Wavelength	Intensities	
nm	a.u.	
179.22	1735	
179.44	1723.7	
179.65	1746.2	
179.86	1701.2	
180.08	1753.1	
180.29	4139.6	
180.51	3093.8	
180.72	5130.8	
180.94	5696.1	
181.15	2850.8	
181.37	2785.9	
181.58	4934.2	
181.79	5156.8	
182.01	2958.6	
182.22	3132.7	
182.44	5137.7	
182.65	4429.1	
182.87	3831.7	
183.08	3402.4	
183.29	5396.4	
183.51	4507.6	
183.72	3093.1	
183.94	4377.2	
184.15	4797.7	
184.37	4843.4	
184.58	2776.4	
184.79	3648.1	
185.01	4549.9	
185.22	5166.3	
185.44	3836.5	
185.65	3349.8	
185.86	4786.8	
186.08	4425	
186.29	2693.1	
186.51	2906.1	
186.72	4609.3	
186.94	5263.3	
187.15	3342.3	
187.36	3394.8	
187.58	6575.3	
187.79	4900.8	
188.01	3466.5	
188.22	5339.7	
188.43	5812.1	
188.65	5128.8	
188.86	2967.5	
189.08	3386.7	
189.29	4687.8	
189.5	4705.5	
189.72	3180.5	
189.93	3235.8	
190.15	5271.5	
190.36	6156.9	
190.57	3402.4	
190.79	3364.8	
191	5309.7	
191.22	5269.4	
191.43	3431	
191.64	2934.7	
191.86	5416.9	
192.07	5315.2	
192.29	3049.4	
192.5	3135.4	
192.71	5331.5	
192.93	4646.2	
193.14	3125.9	
193.35	3229	
193.57	4684.4	
193.78	5322	
194	2551.1	
194.21	3123.2	
194.42	4533.5	
194.64	4885.8	
194.85	3345	
195.07	3908.2	
195.28	4898.1	
195.49	4328.7	
195.71	4121.9	
195.92	2994.8	
196.13	5007.3	
196.35	5044.8	
196.56	4330.1	
196.78	3415.3	
196.99	6108.4	
197.2	5732.3	
197.42	3799	
197.63	3456.3	
197.84	4407.2	
198.06	5062.6	
198.27	3173.7	
198.48	4121.2	
198.7	4679.6	
198.91	4814.1	
199.13	3432.4	
199.34	3476.8	
199.55	5233.9	
199.77	4227.7	
199.98	3087.7	
200.19	3440.6	
200.41	4763.6	
200.62	4523.3	
200.83	3567.6	
201.05	3809.2	
201.26	4829.1	
201.47	4544.4	
201.69	3098.6	
201.9	2966.8	
202.11	4890.5	
202.33	5612.1	
202.54	3205.8	
202.76	3593.5	
202.97	4889.9	
203.18	4921.3	
203.4	3496.6	
203.61	3502.7	
203.82	4922	
204.04	4595.6	
204.25	3459.7	
204.46	3373.7	
204.68	4839.4	
204.89	5000.5	
205.1	3321.1	
205.32	2924.5	
205.53	5141.8	
205.74	5279	
205.96	2584.5	
206.17	3491.1	
206.38	5079	
206.6	5236	
206.81	3851.5	
207.02	3199.6	
207.24	5033.2	
207.45	5383.4	
207.66	3224.9	
207.88	2859	
208.09	5040.7	
208.3	4895.3	
208.52	3041.9	
208.73	3328.6	
208.94	4859.1	
209.15	5395	
209.37	3293.1	
209.58	3622.2	
209.79	5355.4	
210.01	4735.6	
210.22	2739.5	
210.43	2796.8	
210.65	4840	
210.86	5109.7	
211.07	3253.5	
211.29	3003	
211.5	5070.8	
211.71	4808.6	
211.93	3043.3	
212.14	3027.6	
212.35	4787.5	
212.56	4954	
212.78	3426.9	
212.99	2884.9	
213.2	5530.2	
213.42	4668.7	
213.63	3081.5	
213.84	3302.7	
214.06	4381.3	
214.27	4459.8	
214.48	3221.5	
214.69	3500.7	
214.91	5370.5	
215.12	5451.7	
215.33	3457.7	
215.55	3777.1	
215.76	5809.4	
215.97	5110.4	
216.18	3387.3	
216.4	3369.6	
216.61	4548.5	
216.82	5219.6	
217.04	3022.1	
217.25	3150.5	
217.46	5315.2	
217.67	5205.3	
217.89	2772.3	
218.1	2843.9	
218.31	4894.6	
218.53	5039.4	
218.74	3175	
218.95	3017.3	
219.16	4829.8	
219.38	5580	
219.59	3112.2	
219.8	3581.2	
220.01	6041.5	
220.23	4879.6	
220.44	3874.1	
220.65	3020.8	
220.87	4918.5	
221.08	5371.1	
221.29	2883.5	
221.5	3679.5	
221.72	6315.3	
221.93	4577.9	
222.14	3453.6	
222.35	4036.5	
222.57	4877.6	
222.78	5162.2	
222.99	3292.5	
223.2	3535.5	
223.42	5117.2	
223.63	5223.7	
223.84	2622.8	
224.05	2623.4	
224.27	5973.2	
224.48	5511.8	
224.69	4026.3	
224.9	3407.1	
225.12	5042.8	
225.33	4777.9	
225.54	2798.2	
225.75	3086.3	
225.97	4551.3	
226.18	4736.3	
226.39	3282.2	
226.6	3059.7	
226.82	4679.6	
227.03	4506.9	
227.24	3431.7	
227.45	2946.3	
227.67	5226.4	
227.88	5496.1	
228.09	3820.8	
228.3	3831.1	
228.52	5214.8	
228.73	4838	
228.94	3175.7	
229.15	2880.1	
229.36	4785.4	
229.58	4777.2	
229.79	3200.3	
230	3697.9	
230.21	5678.3	
230.43	4894	
230.64	3437.2	
230.85	3505.4	
231.06	5192.3	
231.28	5170.4	
231.49	2886.3	
231.7	3379.8	
231.91	5143.8	
232.12	4867.3	
232.34	2998.9	
232.55	3318.4	
232.76	5307	
232.97	4935.6	
233.18	3031	
233.4	3397.6	
233.61	4992.9	
233.82	4706.2	
234.03	3182.5	
234.25	3142.3	
234.46	6528.9	
234.67	4829.1	
234.88	3489.1	
235.09	3088.3	
235.31	5008.6	
235.52	4764.9	
235.73	3377.8	
235.94	2921.8	
236.15	4614.1	
236.37	5716.6	
236.58	3051.5	
236.79	3318.4	
237	5090.6	
237.21	4354	
237.43	3481.5	
237.64	2778.4	
237.85	8127.7	
238.06	4494.6	
238.27	3538.9	
238.48	2891.7	
238.7	5099.4	
238.91	4718.5	
239.12	3233.7	
239.33	3338.9	
239.54	4493.9	
239.76	4758.1	
239.97	3293.8	
240.18	3298.6	
240.39	5859.2	
240.6	5064.6	
240.82	3426.9	
241.03	2834.4	
241.24	4846.9	
241.45	5490.6	
241.66	3059	
241.87	3576.4	
242.09	5429.8	
242.3	5738.4	
242.51	3504.1	
242.72	3276.1	
242.93	5211.4	
243.14	4810	
243.36	3762.1	
243.57	4068.6	
243.78	5497.4	
243.99	5193	
244.2	3269.9	
244.41	3012.6	
244.63	4515.1	
244.84	5048.2	
245.05	3440.6	
245.26	3312.2	
245.47	5130.8	
245.68	5171.8	
245.9	4232.5	
246.11	3474.7	
246.32	4707.6	
246.53	5061.9	
246.74	5127.4	
246.95	2790.7	
247.16	4540.3	
247.38	4888.5	
247.59	2820.1	
247.8	3365.5	
248.01	4585.4	
248.22	4810	
248.43	2990	
248.64	3224.9	
248.86	4461.8	
249.07	4606.6	
249.28	2922.5	
249.49	3386	
249.7	5234.6	
249.91	5375.9	
250.12	2793.4	
250.34	2843.9	
250.55	4972.5	
250.76	4843.4	
250.97	3420.1	
251.18	3437.2	
251.39	5346.6	
251.6	4945.2	
251.81	3466.5	
252.03	3413.3	
252.24	4649.6	
252.45	5175.2	
252.66	2914.3	
252.87	3611.9	
253.08	4861.2	
253.29	6119.3	
253.5	2915.6	
253.72	3958.7	
253.93	4773.1	
254.14	5629.9	
254.35	3146.4	
254.56	3201	
254.77	5065.3	
254.98	4516.5	
255.19	3153.9	
255.41	3929.4	
255.62	4960.9	
255.83	5418.2	
256.04	3503.4	
256.25	3422.2	
256.46	5851	
256.67	4590.9	
256.88	3403.7	
257.09	3723.2	
257.31	4502.8	
257.52	4575.2	
257.73	4160.1	
257.94	3149.1	
258.15	4825	
258.36	4838	
258.57	3923.9	
258.78	2583.9	
258.99	5266.7	
259.2	4703.5	
259.41	3149.8	
259.63	3271.3	
259.84	5501.5	
260.05	5806.7	
260.26	4044.1	
260.47	3069.2	
260.68	5297.4	
260.89	4745.8	
261.1	3693.9	
261.31	3040.6	
261.52	5391.6	
261.73	5623.7	
261.95	3979.2	
262.16	3502.7	
262.37	5408.7	
262.58	5421	
262.79	3954.6	
263	3194.8	
263.21	4844.1	
263.42	4685.1	
263.63	3444	
263.84	3201.7	
264.05	5210	
264.26	5513.1	
264.47	3908.2	
264.69	3488.4	
264.9	5457.2	
265.11	4986.8	
265.32	3057.6	
265.53	3108.1	
265.74	4983.4	
265.95	4427	
266.16	3351.2	
266.37	3644	
266.58	4915.8	
266.79	4665.3	
267	3209.2	
267.21	2916.3	
267.42	4489.1	
267.63	4859.1	
267.84	3272	
268.06	2824.8	
268.27	5176.6	
268.48	5414.1	
268.69	3186.6	
268.9	3734.8	
269.11	5354.8	
269.32	4413.4	
269.53	3315.7	
269.74	3053.5	
269.95	5115.8	
270.16	4388.1	
270.37	3328.6	
270.58	3749.1	
270.79	4747.9	
271	5231.2	
271.21	3517	
271.42	3304.1	
271.63	4958.8	
271.84	4473.4	
272.05	2687.6	
272.26	2966.8	
272.47	4868	
272.68	4987.5	
272.89	3191.4	
273.11	3588	
273.32	4643.4	
273.53	5575.3	
273.74	3523.9	
273.95	3419.4	
274.16	5231.9	
274.37	4803.2	
274.58	3658.4	
274.79	2921.8	
275	4998.4	
275.21	5300.8	
275.42	4257	
275.63	3653.6	
275.84	5132.2	
276.05	6191.7	
276.26	3421.5	
276.47	3254.2	
276.68	4698	
276.89	5674.9	
277.1	3569.6	
277.31	2917.7	
277.52	5010	
277.73	5274.2	
277.94	2862.4	
278.15	3194.8	
278.36	5048.2	
278.57	4556	
278.78	3108.8	
278.99	3517.7	
279.2	4643.4	
279.41	4532.8	
279.62	4087.1	
279.83	2951.8	
280.04	5811.5	
280.25	4488.5	
280.46	4072	
280.67	3345	
280.88	4610.7	
281.09	5347.9	
281.3	3448.1	
281.51	4269.3	
281.72	4610	
281.93	5241.4	
282.14	3066.5	
282.35	3351.2	
282.56	5289.9	
282.77	5253.7	
282.98	3201.7	
283.19	3848.1	
283.4	6257.2	
283.61	4791.6	
283.82	2992.1	
284.03	3994.2	
284.24	4984.8	
284.45	5393.7	
284.66	4009.2	
284.87	3852.2	
285.08	5307	
285.29	5410.1	
285.5	2900.6	
285.71	3216	
285.92	5313.8	
286.12	5921.4	
286.33	4045.4	
286.54	3213.3	
286.75	5230.5	
286.96	4760.8	
287.17	3001	
287.38	3925.3	
287.59	4575.8	
287.8	4590.2	
288.01	3196.9	
288.22	3668.6	
288.43	5197.1	
288.64	4370.4	
288.85	3778.5	
289.06	3595.6	
289.27	5231.2	
289.48	5573.2	
289.69	4003.8	
289.9	3708.9	
290.11	5410.1	
290.32	4650.3	
290.53	3819.5	
290.74	3506.8	
290.94	5214.1	
291.15	5233.9	
291.36	3130	
291.57	3646.1	
291.78	4697.4	
291.99	4383.3	
292.2	2994.1	
292.41	3542.3	
292.62	5268.7	
292.83	5126.7	
293.04	4373.1	
293.25	3058.3	
293.46	4724	
293.67	5343.2	
293.88	3081.5	
294.09	3038.5	
294.29	4552	
294.5	4933.6	
294.71	3293.8	
294.92	3201	
295.13	4748.6	
295.34	5746.6	
295.55	2821.4	
295.76	2757.2	
295.97	5165.7	
296.18	5756.2	
296.39	2947	
296.6	3130.7	
296.81	4947.9	
297.01	5212.8	
297.22	3196.2	
297.43	3160.7	
297.64	4653.7	
297.85	4538.3	
298.06	2619.4	
298.27	2844.6	
298.48	4831.2	
298.69	4626.4	
298.9	3367.5	
299.11	3078.8	
299.31	4458.4	
299.52	4496	
299.73	3577.1	
299.94	3496.6	
300.15	4863.2	
300.36	4595	
300.57	3480.2	
300.78	3474.7	
300.99	4743.1	
301.2	4938.3	
301.4	3095.8	
301.61	3398.3	
301.82	5119.9	
302.03	5209.3	
302.24	3667.2	
302.45	2979.8	
302.66	5067.4	
302.87	5427.1	
303.08	3083.6	
303.29	4152.6	
303.49	4683.7	
303.7	4812	
303.91	2803	
304.12	3975.8	
304.33	4422.9	
304.54	4990.9	
304.75	3127.9	
304.96	3036.5	
305.16	5089.9	
305.37	5713.8	
305.58	2751.1	
305.79	2842.6	
306	5101.5	
306.21	4353.3	
306.42	3083.6	
306.63	4548.5	
306.83	4743.1	
307.04	5239.4	
307.25	3377.1	
307.46	3377.8	
307.67	4300.1	
307.88	5186.8	
308.09	3065.1	
308.29	3175	
308.5	4931.5	
308.71	5322.7	
308.92	3329.3	
309.13	3033.7	
309.34	4736.3	
309.55	4769	
309.75	3841.3	
309.96	3495.2	
310.17	5145.2	
310.38	4612	
310.59	3682.2	
310.8	2933.4	
311.01	4767.7	
311.21	4780.6	
311.42	3022.1	
311.63	3080.8	
311.84	4693.3	
312.05	4930.8	
312.26	3482.2	
312.46	3689.1	
312.67	4767	
312.88	4510.3	
313.09	3021.4	
313.3	2992.1	
313.51	5460.6	
313.71	5773.2	
313.92	3051.5	
314.13	3158.7	
314.34	5048.2	
314.55	4827.7	
314.76	3766.9	
314.96	3327.3	
315.17	4969.7	
315.38	5086.5	
315.59	2990.7	
315.8	2935.4	
316.01	5518.6	
316.21	5580.7	
316.42	2921.8	
316.63	3319.1	
316.84	4775.2	
317.05	5385.5	
317.26	3543	
317.46	3238.5	
317.67	4854.4	
317.88	5197.7	
318.09	3781.2	
318.3	2827.6	
318.5	4654.4	
318.71	5075.5	
318.92	4693.9	
319.13	3488.4	
319.34	5264.6	
319.54	5354.8	
319.75	2836.4	
319.96	2756.6	
320.17	5156.1	
320.38	5281.7	
320.58	2757.9	
320.79	3317.7	
321	5318.6	
321.21	5352	
321.42	3334.8	
321.62	2798.9	
321.83	4549.9	
322.04	4891.2	
322.25	3195.5	
322.46	2993.4	
322.66	4877.6	
322.87	5084.4	
323.08	3639.2	
323.29	2975.7	
323.5	5666.7	
323.7	4502.1	
323.91	3990.1	
324.12	3611.9	
324.33	4992.3	
324.53	5120.6	
324.74	3525.9	
324.95	3597.6	
325.16	4364.9	
325.37	4727.4	
325.57	3000.3	
325.78	3070.6	
325.99	4945.8	
326.2	4498	
326.4	4243.4	
326.61	2845.3	
326.82	4830.5	
327.03	4936.3	
327.24	4179.2	
327.44	3950.5	
327.65	5069.4	
327.86	4190.1	
328.07	3465.2	
328.27	2953.9	
328.48	5433.9	
328.69	4457.1	
328.9	4230.4	
329.1	3198.2	
329.31	4811.4	
329.52	5477	
329.73	3034.4	
329.93	3349.8	
330.14	4950.6	
330.35	4988.9	
330.56	4726.7	
330.76	3661.1	
330.97	4727.4	
331.18	4937	
331.39	3326.6	
331.59	2724.5	
331.8	5309	
332.01	5447.6	
332.22	3133.4	
332.42	3419.4	
332.63	4958.8	
332.84	4590.2	
333.05	3407.8	
333.25	3085.6	
333.46	4683.7	
333.67	4874.2	
333.88	3149.8	
334.08	3500	
334.29	6276.3	
334.5	5360.2	
334.7	2962	
334.91	4171.7	
335.12	4479.6	
335.33	5168.4	
335.53	3325.2	
335.74	4695.3	
335.95	4734.9	
336.16	4487.1	
336.36	3274.7	
336.57	3800.3	
336.78	4453.6	
336.98	5299.5	
337.19	4009.9	
337.4	3246	
337.61	5750	
337.81	4519.9	
338.02	3110.9	
338.23	3914.4	
338.43	5427.1	
338.64	4591.5	
338.85	3048.7	
339.05	3895.2	
339.26	5560.2	
339.47	4405.2	
339.68	3102.7	
339.88	4304.1	
340.09	5079	
340.3	5261.2	
340.5	3494.5	
340.71	2734.7	
340.92	4493.2	
341.13	5382.7	
341.33	2916.3	
341.54	3482.9	
341.75	5073.5	
341.95	4737.6	
342.16	3375.7	
342.37	3636.5	
342.57	4473.4	
342.78	4772.4	
342.99	3685.7	
343.19	2755.2	
343.4	5156.1	
343.61	5085.1	
343.81	3228.3	
344.02	2923.8	
344.23	5184.1	
344.43	5502.9	
344.64	3753.9	
344.85	3588	
345.06	5044.8	
345.26	5289.9	
345.47	3458.3	
345.68	3993.5	
345.88	4363.5	
346.09	5208.7	
346.3	3588	
346.5	2734	
346.71	4860.5	
346.92	4592.2	
347.12	2859	
347.33	3420.1	
347.54	5253	
347.74	5541.8	
347.95	3443.3	
348.16	2689	
348.36	4661.9	
348.57	4585.4	
348.78	3452.9	
348.98	3627.6	
349.19	4759.5	
349.39	4357.4	
349.6	2883.5	
349.81	3065.1	
350.01	5094	
350.22	4577.2	
350.43	3343	
350.63	3891.8	
350.84	4883.7	
351.05	4650.9	
351.25	3060.3	
351.46	2792.1	
351.67	5246.2	
351.87	4571.1	
352.08	3255.6	
352.29	3656.3	
352.49	5222.3	
352.7	5273.5	
352.9	2968.9	
353.11	3581.9	
353.32	5732.9	
353.52	4681.7	
353.73	2945.7	
353.94	3670	
354.14	4994.3	
354.35	4881	
354.55	3050.8	
354.76	3307.5	
354.97	5081	
355.17	4841.4	
355.38	2912.2	
355.59	3850.9	
355.79	4548.5	
356	4816.8	
356.2	3308.2	
356.41	2936.8	
356.62	4478.9	
356.82	4775.9	
357.03	3588	
357.24	3220.1	
357.44	4625.7	
357.65	4718.5	
357.85	4207.2	
358.06	3336.8	
358.27	4373.8	
358.47	4567	
358.68	2850.1	
358.88	3520.5	
359.09	5017.5	
359.3	5229.8	
359.5	4070	
359.71	3625.6	
359.91	5628.5	
360.12	5072.8	
360.33	3550.5	
360.53	3857	
360.74	4571.7	
360.94	4674.8	
361.15	3685.7	
361.36	3052.8	
361.56	5224.4	
361.77	4766.3	
361.97	4016.7	
362.18	3220.1	
362.38	5244.2	
362.59	4493.9	
362.8	2994.8	
363	2937.5	
363.21	4330.1	
363.41	4871.4	
363.62	3448.8	
363.83	4229.1	
364.03	4954.7	
364.24	5644.9	
364.44	4375.8	
364.65	4229.7	
364.85	4759.5	
365.06	4502.8	
365.27	3149.8	
365.47	3231.7	
365.68	5453.1	
365.88	4751.3	
366.09	3446	
366.29	3225.6	
366.5	4906.9	
366.71	5219.6	
366.91	4214.7	
367.12	3609.2	
367.32	5733.6	
367.53	5097.4	
367.73	3611.9	
367.94	4289.8	
368.14	5103.5	
368.35	5740.5	
368.56	3519.1	
368.76	3043.3	
368.97	5197.1	
369.17	6432.7	
369.38	3172.3	
369.58	3392.8	
369.79	4424.3	
369.99	5464.7	
370.2	4123.2	
370.4	3454.2	
370.61	4983.4	
370.82	5967.8	
371.02	3401	
371.23	2845.3	
371.43	4394.3	
371.64	5404.6	
371.84	3352.5	
372.05	4244.1	
372.25	6383.5	
372.46	5115.8	
372.66	3340.9	
372.87	3344.3	
373.07	5178.6	
373.28	6490	
373.48	4161.5	
373.69	3916.4	
373.9	4753.3	
374.1	4824.3	
374.31	4107.5	
374.51	3663.1	
374.72	5451	
374.92	4599.1	
375.13	4239.3	
375.33	3562.8	
375.54	5121.3	
375.74	4713.1	
375.95	3618.1	
376.15	4562.9	
376.36	5143.8	
376.56	4985.4	
376.77	3712.3	
376.97	4049.5	
377.18	5965.7	
377.38	5170.4	
377.59	4185.4	
377.79	3298.6	
378	4954	
378.2	5307.7	
378.41	3343	
378.61	3284.3	
378.82	5401.9	
379.02	4737.6	
379.23	3514.3	
379.43	4300.7	
379.64	5522	
379.84	5165	
380.05	3412.6	
380.25	3333.4	
380.46	5238.7	
380.66	4909	
380.87	4392.9	
381.07	4627	
381.28	5706.3	
381.48	5233.9	
381.69	3373	
381.89	3448.1	
382.1	4500.1	
382.3	5365.7	
382.51	4249.5	
382.71	4932.2	
382.91	5160.9	
383.12	5584.1	
383.32	3646.1	
383.53	3837.9	
383.73	5162.2	
383.94	5052.3	
384.14	3786.7	
384.35	3116.3	
384.55	4861.9	
384.76	5221.6	
384.96	3675.4	
385.17	3886.4	
385.37	5263.3	
385.58	4653	
385.78	3887.7	
385.98	3059.7	
386.19	4878.3	
386.39	5164.3	
386.6	3435.1	
386.8	3652.9	
387.01	5270.1	
387.21	5256.5	
387.42	3953.3	
387.62	4379.2	
387.83	4776.5	
388.03	5087.2	
388.23	3740.3	
388.44	4272.7	
388.64	4444.1	
388.85	4573.1	
389.05	3928	
389.26	4403.1	
389.46	6102.9	
389.67	5603.9	
389.87	3917.8	
390.07	3973.7	
390.28	4962.9	
390.48	4619.5	
390.69	3392.8	
390.89	3560.7	
391.1	4805.2	
391.3	5507.7	
391.5	4493.9	
391.71	4945.8	
391.91	5291.3	
392.12	6012.2	
392.32	4590.2	
392.53	3974.4	
392.73	4862.6	
392.93	4962.2	
393.14	3753.9	
393.34	4322.6	
393.55	5319.3	
393.75	4994.3	
393.95	3758.7	
394.16	3608.5	
394.36	4810.7	
394.57	5362.9	
394.77	3349.8	
394.98	3592.8	
395.18	4795.7	
395.38	4800.4	
395.59	4345.1	
395.79	3482.9	
396	4892.6	
396.2	5253	
396.4	4182	
396.61	4076.1	
396.81	5343.2	
397.02	4855.1	
397.22	4315.1	
397.42	4394.9	
397.63	5429.2	
397.83	4794.3	
398.04	3512.3	
398.24	3852.9	
398.44	5199.1	
398.65	4506.9	
398.85	3336.1	
399.05	3440.6	
399.26	4786.8	
399.46	6077	
399.67	3677.5	
399.87	3535.5	
400.07	5021.6	
400.28	5227.1	
400.48	3543	
400.69	4345.8	
400.89	5447.6	
401.09	5818.3	
401.3	3491.8	
401.5	4328	
401.7	5957.5	
401.91	6161	
402.11	3861.8	
402.32	3980.6	
402.52	5573.9	
402.72	5477.6	
402.93	4130.8	
403.13	3298.6	
403.33	6207.4	
403.54	5104.2	
403.74	3898	
403.94	4577.9	
404.15	5150	
404.35	5960.3	
404.56	3745.7	
404.76	5040.7	
404.96	5460.6	
405.17	5252.4	
405.37	4367.6	
405.57	4091.2	
405.78	5479	
405.98	5096.7	
406.18	3744.4	
406.39	4435.2	
406.59	5501.5	
406.79	5186.8	
407	3579.8	
407.2	3631	
407.4	5581.4	
407.61	5610.8	
407.81	3630.4	
408.01	5207.3	
408.22	4622.3	
408.42	6099.5	
408.62	4409.3	
408.83	4052.9	
409.03	5125.4	
409.23	5067.4	
409.44	4110.3	
409.64	4250.2	
409.84	5851.7	
410.05	5816.9	
410.25	4186	
410.45	4038.6	
410.66	5413.5	
410.86	7329	
411.06	4363.5	
411.27	4262.5	
411.47	7068.2	
411.67	5542.5	
411.88	4441.4	
412.08	4603.2	
412.28	5976.7	
412.49	6421.1	
412.69	4319.2	
412.89	4333.5	
413.09	6307.7	
413.3	6127.5	
413.5	4372.4	
413.7	4061.1	
413.91	5630.5	
414.11	6286.6	
414.31	4241.3	
414.52	4506.2	
414.72	6040.8	
414.92	5963	
415.12	4252.3	
415.33	4640	
415.53	6182.1	
415.73	6408.8	
415.94	4908.3	
416.14	4443.4	
416.34	5556.8	
416.55	5326.8	
416.75	5410.1	
416.95	4923.3	
417.15	6221	
417.36	6801.3	
417.56	5609.4	
417.76	4776.5	
417.97	6483.9	
418.17	6322.1	
418.37	4590.9	
418.57	4595.6	
418.78	6165.1	
418.98	5840.1	
419.18	5262.6	
419.38	5095.3	
419.59	5931.6	
419.79	5663.3	
419.99	4457.7	
420.2	4722.6	
420.4	6315.9	
420.6	6429.9	
420.8	4416.1	
421.01	4294.6	
421.21	6254.5	
421.41	6262.7	
421.61	4724	
421.82	4506.9	
422.02	5907	
422.22	6556.9	
422.42	5089.2	
422.63	4757.4	
422.83	5970.5	
423.03	6849.1	
423.23	4915.8	
423.44	4063.9	
423.64	5970.5	
423.84	5730.2	
424.04	4388.1	
424.25	4123.9	
424.45	6664.8	
424.65	6613.6	
424.85	4043.4	
425.06	4412.7	
425.26	6743.3	
425.46	5844.2	
425.66	4833.9	
425.87	4571.7	
426.07	6432.7	
426.27	6283.9	
426.47	4669.4	
426.67	4246.1	
426.88	6790.4	
427.08	6260.6	
427.28	4945.2	
427.48	4180.6	
427.69	5511.8	
427.89	5984.8	
428.09	4821.6	
428.29	4169.7	
428.5	6395.1	
428.7	6217	
428.9	4128	
429.1	4487.1	
429.3	6122.1	
429.51	6307.1	
429.71	4316.4	
429.91	4912.4	
430.11	6253.8	
430.31	6490.7	
430.52	4595	
430.72	4848.2	
430.92	6745.3	
431.12	6371.2	
431.32	4374.5	
431.53	4657.1	
431.73	5508.4	
431.93	6780.8	
432.13	4296.6	
432.33	4197	
432.54	5878.4	
432.74	6109.8	
432.94	4101.4	
433.14	4947.9	
433.34	6326.2	
433.55	5925.5	
433.75	4915.8	
433.95	6224.5	
434.15	6212.2	
434.35	5838.1	
434.56	4337.6	
434.76	3947.8	
434.96	6107	
435.16	6305.7	
435.36	4203.8	
435.56	5107	
435.77	5786.2	
435.97	6062.7	
436.17	5604.6	
436.37	4988.9	
436.57	5828.5	
436.78	5788.9	
436.98	4994.3	
437.18	5482.4	
437.38	6313.9	
437.58	6001.2	
437.78	5590.3	
437.99	4579.3	
438.19	6397.2	
438.39	7438.2	
438.59	4533.5	
438.79	4153.3	
438.99	6874.3	
439.2	6004	
439.4	4125.3	
439.6	4159.4	
439.8	6096.8	
440	6964.5	
440.2	4868.7	
440.4	4990.2	
440.61	6569.2	
440.81	6892.1	
441.01	4395.6	
441.21	5161.6	
441.41	6825.9	
441.61	6552.8	
441.81	5345.9	
442.02	6090	
442.22	7253.9	
442.42	6617.7	
442.62	4465.9	
442.82	4532.2	
443.02	6931	
443.22	6224.5	
443.43	4761.5	
443.63	4415.4	
443.83	6063.4	
444.03	6062	
444.23	5380	
444.43	5166.3	
444.63	6427.9	
444.83	7159.7	
445.04	4621.6	
445.24	5528.2	
445.44	6685.9	
445.64	6620.4	
445.84	5144.5	
446.04	5210	
446.24	6102.9	
446.44	6913.3	
446.65	4478.9	
446.85	4862.6	
447.05	6212.9	
447.25	6808.8	
447.45	4953.4	
447.65	4438.6	
447.85	6341.2	
448.05	6039.5	
448.25	5248.3	
448.46	5052.3	
448.66	6425.2	
448.86	6115.2	
449.06	4387.4	
449.26	5216.2	
449.46	6645	
449.66	5904.3	
449.86	4809.3	
450.06	4764.9	
450.26	6052.4	
450.47	6511.9	
450.67	5046.2	
450.87	5281.7	
451.07	6677.7	
451.27	6371.9	
451.47	4498	
451.67	4963.6	
451.87	6139.8	
452.07	7034.1	
452.27	4686.4	
452.47	4655.7	
452.67	6475	
452.88	6798.6	
453.08	4222.2	
453.28	5704.3	
453.48	7324.2	
453.68	6273.6	
453.88	4663.2	
454.08	4830.5	
454.28	6664.1	
454.48	6364.4	
454.68	5171.1	
454.88	5606.7	
455.08	6785.6	
455.28	6518.7	
455.48	4488.5	
455.68	5130.2	
455.89	7162.4	
456.09	6835.4	
456.29	4800.4	
456.49	4842.1	
456.69	6995.9	
456.89	6450.4	
457.09	5220.3	
457.29	5479	
457.49	6699.6	
457.69	6834.1	
457.89	5081.7	
458.09	4666.6	
458.29	6565.8	
458.49	7122.8	
458.69	5511.1	
458.89	4959.5	
459.09	7297.6	
459.29	7410.9	
459.49	5070.8	
459.69	5691.3	
459.9	6934.4	
460.1	6627.9	
460.3	4982.7	
460.5	4842.8	
460.7	6958.3	
460.9	6627.2	
461.1	4527.4	
461.3	5541.8	
461.5	7408.2	
461.7	7096.2	
461.9	4919.2	
462.1	5296.7	
462.3	6739.9	
462.5	7164.5	
462.7	4984.1	
462.9	5049.6	
463.1	8015.1	
463.3	7720.8	
463.5	5223	
463.7	5900.9	
463.9	6963.8	
464.1	7241.6	
464.3	5322.7	
464.5	5515.2	
464.7	7380.9	
464.9	7142.6	
465.1	6487.3	
465.3	5793.7	
465.5	7625.3	
465.7	7662.8	
465.9	6044.2	
466.1	5816.9	
466.3	7456.7	
466.5	7400.7	
466.7	6488	
466.9	5722.7	
467.1	7377.5	
467.3	8096.3	
467.5	6587	
467.7	5553.4	
467.9	8344.8	
468.1	8834.9	
468.3	6275	
468.5	6574.7	
468.7	7363.1	
468.9	7326.3	
469.1	5956.9	
469.3	6379.4	
469.5	8890.9	
469.7	7023.9	
469.9	6236.7	
470.1	5666.7	
470.3	7475.1	
470.5	7376.1	
470.7	6705.7	
470.9	5778.7	
471.1	7168.6	
471.3	7506.5	
471.5	5627.1	
471.69	7119.4	
471.89	7160.4	
472.09	6801.3	
472.29	6275	
472.49	6568.5	
472.69	6925.5	
472.89	7580.9	
473.09	5586.2	
473.29	5700.2	
473.49	7120.8	
473.69	7173.4	
473.89	6376	
474.09	5754.8	
474.29	8132.5	
474.49	7854.6	
474.69	6378.1	
474.89	5871.5	
475.09	7225.9	
475.29	7206.8	
475.49	5410.1	
475.69	5629.9	
475.88	8384.4	
476.08	7531.7	
476.28	5446.9	
476.48	5687.2	
476.68	7843	
476.88	7593.2	
477.08	5685.8	
477.28	5816.9	
477.48	7263.5	
477.68	7748.1	
477.88	5528.8	
478.08	5687.2	
478.28	8002.8	
478.48	7374.7	
478.67	5834	
478.87	5335	
479.07	7832.8	
479.27	7453.2	
479.47	5902.9	
479.67	5956.2	
479.87	7795.9	
480.07	8032.8	
480.27	5410.1	
480.47	6648.4	
480.67	7428	
480.87	8013.7	
481.06	5600.5	
481.26	6313.9	
481.46	7477.8	
481.66	7290.8	
481.86	5998.5	
482.06	6776	
482.26	7200	
482.46	7906.5	
482.66	5892.7	
482.86	5564.3	
483.05	7523.6	
483.25	6939.9	
483.45	7841.7	
483.65	5884.5	
483.85	7116.7	
484.05	7288.7	
484.25	6339.8	
484.45	6564.4	
484.65	8126.3	
484.84	8102.4	
485.04	5859.9	
485.24	5821	
485.44	8297.7	
485.64	6938.5	
485.84	5368.4	
486.04	6350.1	
486.24	7243	
486.44	7582.3	
486.63	5281	
486.83	5945.9	
487.03	7265.5	
487.23	7348.1	
487.43	5431.9	
487.63	7189.7	
487.83	7443	
488.02	8171.4	
488.22	6129.6	
488.42	6643.6	
488.62	8061.5	
488.82	7241.6	
489.02	5956.2	
489.22	5949.3	
489.41	7954.3	
489.61	7785.7	
489.81	5750	
490.01	5708.4	
490.21	7915.4	
490.41	8480.6	
490.61	5791.7	
490.8	5812.1	
491	7647.1	
491.2	7084.6	
491.4	6324.8	
491.6	5600.5	
491.8	7593.2	
491.99	7595.9	
492.19	5511.8	
492.39	5651.7	
492.59	7868.3	
492.79	7998	
492.99	6365.1	
493.18	5636.7	
493.38	8023.9	
493.58	8559.8	
493.78	6257.2	
493.98	5932.3	
494.18	7841	
494.37	7457.3	
494.57	6405.4	
494.77	6357.6	
494.97	8012.3	
495.17	8243.8	
495.37	6064.7	
495.56	6327.5	
495.76	8387.8	
495.96	8198	
496.16	7137.2	
496.36	6298.2	
496.55	8279.3	
496.75	7890.8	
496.95	6539.8	
497.15	6489.3	
497.35	8353	
497.54	8271.7	
497.74	6316.6	
497.94	7814.4	
498.14	8816.5	
498.34	8639	
498.53	6081.8	
498.73	6657.3	
498.93	7877.2	
499.13	8314.1	
499.33	6524.1	
499.52	6903	
499.72	8358.4	
499.92	8430.1	
500.12	6309.8	
500.32	6500.9	
500.51	8542.1	
500.71	8256	
500.91	7129.7	
501.11	6837.5	
501.31	8509.3	
501.5	8759.8	
501.7	7386.3	
501.9	6580.8	
502.1	8342.7	
502.29	8615.1	
502.49	6929	
502.69	7352.9	
502.89	8486.8	
503.09	8413.1	
503.28	6159.6	
503.48	6272.9	
503.68	7955.7	
503.88	7836.2	
504.07	7012.2	
504.27	6628.6	
504.47	8212.4	
504.67	8303.8	
504.86	6994.5	
505.06	6704.4	
505.26	8097	
505.46	9241.1	
505.65	6649.1	
505.85	6859.3	
506.05	7903.8	
506.25	8259.5	
506.44	6077.7	
506.64	6779.5	
506.84	7827.3	
507.04	8491.6	
507.23	6336.4	
507.43	6698.9	
507.63	9270.5	
507.83	7918.1	
508.02	6738.5	
508.22	6417.7	
508.42	9623.4	
508.62	7771.4	
508.81	6543.3	
509.01	7005.4	
509.21	7699.7	
509.4	7950.2	
509.6	6679.8	
509.8	6287.3	
510	7877.9	
510.19	8925.7	
510.39	6130.3	
510.59	6333	
510.79	7789.1	
510.98	8857.5	
511.18	6374	
511.38	6519.4	
511.57	8460.2	
511.77	8273.8	
511.97	6888.7	
512.17	6169.8	
512.36	8503.8	
512.56	8301.1	
512.76	6140.5	
512.95	5984.2	
513.15	8554.4	
513.35	7342.7	
513.55	6851.1	
513.74	6200.6	
513.94	8505.2	
514.14	7963.2	
514.33	7006.8	
514.53	6752.2	
514.73	7935.9	
514.92	8071.7	
515.12	6298.9	
515.32	6211.5	
515.51	8113.4	
515.71	8456.7	
515.91	7598	
516.11	6253.8	
516.3	9401.5	
516.5	7795.9	
516.7	6738.5	
516.89	7188.4	
517.09	7916.1	
517.29	7909.9	
517.48	7019.1	
517.68	6559	
517.88	7710.6	
518.07	8229.4	
518.27	6916.7	
518.47	6070.9	
518.66	8725	
518.86	7593.2	
519.06	6023.8	
519.25	6385.6	
519.45	7799.3	
519.65	9017.2	
519.84	6889.4	
520.04	7361.8	
520.24	9314.2	
520.43	8349.6	
520.63	6676.4	
520.83	6483.2	
521.02	7841.7	
521.22	8310	
521.42	6799.9	
521.61	7216.4	
521.81	7843.7	
522.01	8064.2	
522.2	6678.4	
522.4	6485.9	
522.6	8441	
522.79	7456.7	
522.99	6536.4	
523.18	6069.5	
523.38	8173.4	
523.58	8207.6	
523.77	7518.8	
523.97	6078.4	
524.17	9704	
524.36	9067.7	
524.56	7187	
524.76	6804	
524.95	8235.6	
525.15	7959.1	
525.34	6741.9	
525.54	6776.7	
525.74	8581	
525.93	7753.6	
526.13	7722.9	
526.33	6784.2	
526.52	8905.3	
526.72	8409	
526.91	7745.4	
527.11	7128.3	
527.31	8818.6	
527.5	9143.5	
527.7	7035.5	
527.89	6346.7	
528.09	8081.3	
528.29	8473.1	
528.48	7417.7	
528.68	7083.2	
528.87	8787.2	
529.07	8729.1	
529.27	7015	
529.46	6741.9	
529.66	8576.9	
529.85	8959.2	
530.05	6739.9	
530.25	7165.2	
530.44	9602.9	
530.64	8435.6	
530.83	6875	
531.03	7095.5	
531.23	8846.5	
531.42	8650.6	
531.62	7617.1	
531.81	7015	
532.01	8983.8	
532.21	9159.2	
532.4	6912.6	
532.6	7047.1	
532.79	9651.4	
532.99	8966.7	
533.18	7230.7	
533.38	7985	
533.58	8658.1	
533.77	9128.5	
533.97	7201.3	
534.16	7812.3	
534.36	9379	
534.55	8742.8	
534.75	7928.4	
534.95	7182.9	
535.14	9491.7	
535.34	8788.5	
535.53	7083.2	
535.73	8581.7	
535.92	9773.6	
536.12	8830.8	
536.31	7096.2	
536.51	7969.3	
536.71	9067.7	
536.9	8682.7	
537.1	7106.5	
537.29	7290.8	
537.49	9361.3	
537.68	8630.8	
537.88	7608.2	
538.07	6931.7	
538.27	8812.4	
538.46	9654.1	
538.66	6881.9	
538.86	7230.7	
539.05	8883.4	
539.25	9218.6	
539.44	7584.3	
539.64	7222.5	
539.83	8781	
540.03	9536	
540.22	7047.7	
540.42	7183.6	
540.61	9034.3	
540.81	9021.3	
541	7477.1	
541.2	8023.3	
541.39	8610.3	
541.59	8857.5	
541.78	7747.5	
541.98	7036.1	
542.18	8414.4	
542.37	8342.1	
542.57	7330.4	
542.76	7776.8	
542.96	8449.2	
543.15	8837	
543.35	7397.9	
543.54	6881.2	
543.74	9063.6	
543.93	8719.6	
544.13	7393.8	
544.32	8089.5	
544.52	9051.3	
544.71	8406.9	
544.91	6589.7	
545.1	7576.1	
545.3	8427.4	
545.49	8882.7	
545.69	6526.2	
545.88	7008.1	
546.08	9736	
546.27	9276.6	
546.47	7417.1	
546.66	6863.4	
546.86	9115.5	
547.05	9470.5	
547.24	7090.8	
547.44	6923.5	
547.63	8297.7	
547.83	9130.5	
548.02	7253.9	
548.22	7402	
548.41	8165.3	
548.61	9140.1	
548.8	6957.6	
549	6883.2	
549.19	8693.6	
549.39	8994	
549.58	6519.4	
549.78	7040.2	
549.97	8981.7	
550.17	8452	
550.36	7744.1	
550.55	8520.2	
550.75	8498.4	
550.94	9192.6	
551.14	6727.6	
551.33	7027.3	
551.53	8103.1	
551.72	8879.3	
551.92	7105.8	
552.11	6849.8	
552.31	8815.8	
552.5	8680.7	
552.69	8226.7	
552.89	6597.2	
553.08	8813.8	
553.28	8478.6	
553.47	6897.6	
553.67	7778.2	
553.86	9281.4	
554.06	7929.7	
554.25	6306.4	
554.44	6651.1	
554.64	9864.4	
554.83	9445.2	
555.03	6637.5	
555.22	6971.3	
555.42	8922.3	
555.61	8608.3	
555.8	6840.9	
556	6972	
556.19	8039.6	
556.39	8866.3	
556.58	6862.7	
556.78	6879.1	
556.97	8609	
557.16	8286.8	
557.36	7867.6	
557.55	6698.2	
557.75	7763.2	
557.94	9195.4	
558.13	6698.9	
558.33	6440.9	
558.52	9086.8	
558.72	8112	
558.91	6612.9	
559.1	6736.5	
559.3	7920.2	
559.49	7694.9	
559.69	6296.1	
559.88	7022.5	
560.07	8520.2	
560.27	8837	
560.46	7096.9	
560.66	7295.5	
560.85	8399.4	
561.04	7720.2	
561.24	6488.6	
561.43	6528.9	
561.63	7980.9	
561.82	8147.5	
562.01	7554.3	
562.21	6867.5	
562.4	8434.9	
562.59	9177.6	
562.79	6767.9	
562.98	6501.6	
563.18	8356.4	
563.37	9519	
563.56	7133.1	
563.76	6480.5	
563.95	8023.9	
564.14	7907.2	
564.34	6767.2	
564.53	6565.1	
564.73	8429.4	
564.92	8674.5	
565.11	6956.3	
565.31	6432	
565.5	8873.2	
565.69	8017.1	
565.89	6598.6	
566.08	6863.4	
566.27	8803.5	
566.47	9097.8	
566.66	7409.6	
566.85	6311.2	
567.05	8550.3	
567.24	8047.2	
567.44	6598.6	
567.63	7637.6	
567.82	8754.4	
568.02	8398.7	
568.21	6528.9	
568.4	6875.7	
568.6	8340	
568.79	8355	
568.98	6473.6	
569.18	6533	
569.37	8374.8	
569.56	9890.3	
569.76	6911.2	
569.95	7692.2	
570.14	8646.5	
570.34	8549.6	
570.53	6455.2	
570.72	6462	
570.91	9067	
571.11	8349.6	
571.3	6926.2	
571.49	7572.7	
571.69	8357.8	
571.88	7965.9	
572.07	7260.7	
572.27	7259.4	
572.46	8012.3	
572.65	8857.5	
572.85	6723.5	
573.04	6970.6	
573.23	8972.2	
573.43	8439	
573.62	6561	
573.81	7024.5	
574	8447.2	
574.2	8291.5	
574.39	6767.2	
574.58	6939.9	
574.78	9202.9	
574.97	8570.7	
575.16	7260.7	
575.36	7405.5	
575.55	8966	
575.74	9041.8	
575.93	6580.1	
576.13	7386.3	
576.32	8509.3	
576.51	8948.3	
576.71	6894.1	
576.9	7942.7	
577.09	9179.7	
577.28	8751	
577.48	7195.2	
577.67	6518	
577.86	8387.1	
578.05	8703.2	
578.25	6963.1	
578.44	7067.5	
578.63	8649.3	
578.83	9569.5	
579.02	6600.6	
579.21	7799.3	
579.4	8756.4	
579.6	8499.8	
579.79	7128.3	
579.98	8730.5	
580.17	8991.3	
580.37	9118.2	
580.56	6827.2	
580.75	7301.7	
580.94	9324.4	
581.14	9264.3	
581.33	7602.1	
581.52	6812.2	
581.71	8923.7	
581.91	9492.3	
582.1	6624.5	
582.29	7040.2	
582.48	8566	
582.68	8655.4	
582.87	7378.1	
583.06	7144.7	
583.25	8991.3	
583.45	8730.5	
583.64	7573.4	
583.83	8236.2	
584.02	8499.8	
584.21	8905.9	
584.41	7638.2	
584.6	7223.2	
584.79	8656.8	
584.98	9227.5	
585.18	6738.5	
585.37	6642.9	
585.56	8380.3	
585.75	8831.5	
585.94	6918.7	
586.14	7383.6	
586.33	9449.3	
586.52	8637.6	
586.71	7307.8	
586.91	7019.8	
587.1	8175.5	
587.29	8933.9	
587.48	6909.2	
587.67	6810.9	
587.87	8854.1	
588.06	8771.5	
588.25	7914.7	
588.44	7329.7	
588.63	8548.9	
588.83	8988.5	
589.02	6979.5	
589.21	6863.4	
589.4	8501.1	
589.59	8295	
589.78	6252.4	
589.98	6443.6	
590.17	8040.3	
590.36	8364.6	
590.55	5947.3	
590.74	6529.6	
590.94	9323	
591.13	8065.6	
591.32	6417	
591.51	6051.7	
591.7	8430.1	
591.89	8092.2	
592.09	6132.3	
592.28	6471.6	
592.47	7543.4	
592.66	9058.8	
592.85	6133	
593.05	6311.2	
593.24	8068.3	
593.43	8743.5	
593.62	6349.4	
593.81	6724.8	
594	8077.9	
594.19	8312	
594.39	6289.3	
594.58	6259.3	
594.77	8402.8	
594.96	8793.3	
595.15	6263.4	
595.34	6756.2	
595.54	8307.9	
595.73	7672.4	
595.92	5699.5	
596.11	6593.8	
596.3	8744.1	
596.49	7735.2	
596.68	6443.6	
596.88	6748.7	
597.07	8443.1	
597.26	7524.9	
597.45	6055.2	
597.64	6987	
597.83	7760.4	
598.02	8276.5	
598.22	6121.4	
598.41	6652.5	
598.6	8112.7	
598.79	7641.7	
598.98	6157.6	
599.17	6853.2	
599.36	8184.4	
599.55	8929.1	
599.74	7693.5	
599.94	7493.5	
600.13	8527.7	
600.32	7578.8	
600.51	5852.4	
600.7	5979.4	
600.89	9088.2	
601.08	8980.3	
601.27	5883.1	
601.47	6598.6	
601.66	8444.5	
601.85	8948.9	
602.04	6406.7	
602.23	6513.9	
602.42	7637.6	
602.61	8140.7	
602.8	6279.8	
602.99	6116.6	
603.18	7959.8	
603.37	8019.8	
603.57	6597.9	
603.76	7003.4	
603.95	8666.3	
604.14	8221.9	
604.33	6116.6	
604.52	6457.9	
604.71	8184.4	
604.9	7771.4	
605.09	6903	
605.28	6839.5	
605.47	8607.6	
605.66	8239	
605.86	6625.9	
606.05	6124.1	
606.24	8564.6	
606.43	7320.8	
606.62	6408.8	
606.81	7049.1	
607	8450.6	
607.19	7757.7	
607.38	5965.1	
607.57	6143.2	
607.76	7734.5	
607.95	7183.6	
608.14	6431.3	
608.33	6905.8	
608.52	7613.7	
608.72	8343.4	
608.91	5866.1	
609.1	5767.1	
609.29	7772.7	
609.48	7380.9	
609.67	6559.6	
609.86	5856.5	
610.05	7487.4	
610.24	7645.1	
610.43	5807.4	
610.62	5470.1	
610.81	8621.9	
611	8318.8	
611.19	5892	
611.38	6350.8	
611.57	7881.3	
611.76	8905.3	
611.95	5683.8	
612.14	5556.8	
612.33	7722.2	
612.52	7449.1	
612.71	6112.5	
612.9	5509.7	
613.09	7081.9	
613.28	8906.6	
613.47	6040.1	
613.66	6652.5	
613.85	7884.7	
614.04	7466.9	
614.24	5952.8	
614.43	5313.1	
614.62	7905.2	
614.81	7935.2	
615	6347.3	
615.19	6387.6	
615.38	7409.6	
615.57	7663.5	
615.76	6298.9	
615.95	7017	
616.14	7991.9	
616.33	7718.1	
616.52	6554.2	
616.71	6662.7	
616.9	8068.3	
617.09	7756.3	
617.28	6025.8	
617.47	6998.6	
617.66	7371.3	
617.85	7291.5	
618.04	6776	
618.22	6303	
618.41	7540.6	
618.6	8251.9	
618.79	6274.3	
618.98	6018.3	
619.17	8475.9	
619.36	7182.2	
619.55	6204.7	
619.74	6243.6	
619.93	7948.2	
620.12	7485.3	
620.31	6643.6	
620.5	6690.7	
620.69	8388.5	
620.88	8649.3	
621.07	7344.7	
621.26	6507.1	
621.45	8145.5	
621.64	8173.4	
621.83	6625.9	
622.02	5963.7	
622.21	8140.7	
622.4	7955	
622.59	7015	
622.78	6966.5	
622.97	7680.6	
623.16	8449.9	
623.35	6687.3	
623.54	5907.7	
623.72	7812.3	
623.91	7957	
624.1	6812.9	
624.29	5870.8	
624.48	8819.2	
624.67	8163.9	
624.86	6771.9	
625.05	6036.7	
625.24	8865.7	
625.43	7563.1	
625.62	7999.4	
625.81	6185.5	
626	8408.3	
626.19	7918.1	
626.38	6736.5	
626.56	6354.8	
626.75	7777.5	
626.94	8285.4	
627.13	6855.9	
627.32	5850.4	
627.51	8285.4	
627.7	9112.1	
627.89	5859.2	
628.08	6797.2	
628.27	7584.3	
628.46	7805.5	
628.65	6127.5	
628.83	5859.2	
629.02	8247.9	
629.21	7664.9	
629.4	6432.7	
629.59	6597.2	
629.78	7580.9	
629.97	8407.6	
630.16	6644.3	
630.35	6221	
630.54	8775.5	
630.72	8403.5	
630.91	6238.8	
631.1	6663.4	
631.29	8047.8	
631.48	8172.1	
631.67	6781.5	
631.86	6285.2	
632.05	7716.1	
632.24	7838.3	
632.42	6016.2	
632.61	6467.5	
632.8	7854.6	
632.99	7492.8	
633.18	6560.3	
633.37	6792.4	
633.56	8045.8	
633.75	7915.4	
633.93	6507.1	
634.12	6250.4	
634.31	8606.2	
634.5	8355.7	
634.69	6268.8	
634.88	6670.2	
635.07	7880.6	
635.25	8348.2	
635.44	6939.9	
635.63	7142.6	
635.82	7730.4	
636.01	7267.6	
636.2	6868.9	
636.39	6603.3	
636.57	8652.7	
636.76	8251.3	
636.95	6118	
637.14	7210.9	
637.33	8064.2	
637.52	8794	
637.7	5913.2	
637.89	6701	
638.08	7772.7	
638.27	8760.5	
638.46	6715.3	
638.65	7028.6	
638.83	8906.6	
639.02	7638.9	
639.21	6730.3	
639.4	7002.7	
639.59	7987.1	
639.78	7720.8	
639.96	6085.9	
640.15	6178	
640.34	7862.2	
640.53	8037.6	
640.72	5862.7	
640.91	6130.9	
641.09	7466.2	
641.28	8312	
641.47	6147.3	
641.66	6768.5	
641.85	7941.3	
642.03	8046.5	
642.22	6562.4	
642.41	6214.2	
642.6	7472.4	
642.79	6969.9	
642.97	6069.5	
643.16	6600.6	
643.35	7389.8	
643.54	7272.3	
643.73	5966.4	
643.91	6492.1	
644.1	7248.4	
644.29	7632.1	
644.48	6005.3	
644.67	6089.3	
644.85	7243	
645.04	7613	
645.23	5729.5	
645.42	6009.4	
645.6	7215	
645.79	8148.9	
645.98	5941.8	
646.17	5225.1	
646.36	7095.5	
646.54	7469.6	
646.73	6509.1	
646.92	5489.2	
647.11	7197.2	
647.29	7927.7	
647.48	5574.6	
647.67	5447.6	
647.86	8142	
648.05	8137.9	
648.23	5772.5	
648.42	6852.5	
648.61	7629.4	
648.8	7432.1	
648.98	5560.9	
649.17	5831.9	
649.36	7035.5	
649.55	6722.8	
649.73	5643.5	
649.92	6167.8	
650.11	7017.7	
650.3	7332.4	
650.48	5716.6	
650.67	5547.9	
650.86	7445.7	
651.05	6584.9	
651.23	5610.8	
651.42	5582.8	
651.61	7045	
651.79	7083.9	
651.98	5807.4	
652.17	5499.5	
652.36	7414.3	
652.54	6737.1	
652.73	5571.8	
652.92	5406	
653.11	7356.3	
653.29	7459.4	
653.48	5012.7	
653.67	5793	
653.85	7202	
654.04	7958.4	
654.23	5952.1	
654.42	5547.3	
654.6	6890.7	
654.79	7351.5	
654.98	5093.3	
655.16	5582.1	
655.35	6563.1	
655.54	6363.7	
655.73	5061.9	
655.91	5071.5	
656.1	7286	
656.29	6379.4	
656.47	4775.9	
656.66	6094.1	
656.85	6629.3	
657.03	6666.1	
657.22	5189.6	
657.41	5227.1	
657.59	6751.5	
657.78	6547.4	
657.97	4936.3	
658.16	5582.1	
658.34	7260.7	
658.53	7514	
658.72	6235.4	
658.9	6651.1	
659.09	6868.9	
659.28	6905.1	
659.46	5341.1	
659.65	5273.5	
659.84	6670.9	
660.02	7114	
660.21	5327.4	
660.4	5123.3	
660.58	7357.7	
660.77	6870.9	
660.96	5664	
661.14	4910.3	
661.33	7813	
661.52	7710.6	
661.7	4943.8	
661.89	7630.7	
662.08	6683.2	
662.26	6222.4	
662.45	5120.6	
662.64	5151.3	
662.82	7185	
663.01	6490	
663.2	5154.1	
663.38	5769.1	
663.57	7084.6	
663.75	6972	
663.94	5470.8	
664.13	6501.6	
664.31	6590.4	
664.5	7133.1	
664.69	5745.2	
664.87	6051.7	
665.06	6404	
665.25	6961	
665.43	6322.1	
665.62	6264.7	
665.8	7185	
665.99	6674.3	
666.18	5459.2	
666.36	5507	
666.55	7163.8	
666.74	7032.7	
666.92	5240.1	
667.11	6468.9	
667.29	6683.9	
667.48	7090.8	
667.67	6084.5	
667.85	5275.6	
668.04	6651.1	
668.22	6640.2	
668.41	5550	
668.6	5631.2	
668.78	6465.4	
668.97	6744.6	
669.15	5750	
669.34	4956.8	
669.53	6542.6	
669.71	6802.7	
669.9	5043.5	
670.08	5610.8	
670.27	6461.3	
670.46	6949.4	
670.64	5788.9	
670.83	5990.3	
671.01	6436.8	
671.2	6916.7	
671.38	5123.3	
671.57	5061.9	
671.76	7383.6	
671.94	7812.3	
672.13	5058.5	
672.31	5764.3	
672.5	7042.3	
672.69	6496.8	
672.87	5225.7	
673.06	5329.5	
673.24	6968.6	
673.43	6551.5	
673.61	5694.7	
673.8	5356.1	
673.98	7047.1	
674.17	7161.1	
674.36	5804.6	
674.54	5722.7	
674.73	6764.4	
674.91	7064.8	
675.1	5408.7	
675.28	5156.8	
675.47	6675	
675.65	7103	
675.84	5390.3	
676.03	5659.2	
676.21	6602.7	
676.4	6129.6	
676.58	5954.1	
676.77	5754.1	
676.95	7757.7	
677.14	6509.8	
677.32	5033.2	
677.51	5007.3	
677.69	7081.2	
677.88	6325.5	
678.06	5070.1	
678.25	5152.7	
678.44	6707.8	
678.62	6528.9	
678.81	4852.3	
678.99	5667.4	
679.18	7354.3	
679.36	6992.4	
679.55	5328.8	
679.73	5750.7	
679.92	6883.2	
680.1	6494.1	
680.29	6314.6	
680.47	5307.7	
680.66	6464.1	
680.84	7166.5	
681.03	4783.4	
681.21	5633.3	
681.4	6514.6	
681.58	6427.9	
681.77	5137	
681.95	5113.8	
682.14	7204.1	
682.32	7419.1	
682.51	5868.1	
682.69	4897.4	
682.88	6397.9	
683.06	6898.9	
683.25	5604.6	
683.43	5868.8	
683.62	6724.2	
683.8	7044.3	
683.99	6013.5	
684.17	5547.9	
684.36	7612.3	
684.54	6593.8	
684.73	4923.3	
684.91	5027.8	
685.1	6838.9	
685.28	6316.6	
685.46	5414.8	
685.65	5426.4	
685.83	6924.9	
686.02	6410.8	
686.2	4953.4	
686.39	5101.5	
686.57	6219	
686.76	7378.1	
686.94	5023.7	
687.13	5158.2	
687.31	6777.4	
687.5	6535.8	
687.68	4706.2	
687.86	5618.9	
688.05	7822.6	
688.23	6035.4	
688.42	5687.9	
688.6	5030.5	
688.79	6397.2	
688.97	6391.7	
689.16	5356.1	
689.34	4593.6	
689.52	6978.1	
689.71	7230	
689.89	5607.3	
690.08	5015.5	
690.26	6749.4	
690.45	6489.3	
690.63	5801.2	
690.81	5205.3	
691	6499.6	
691.18	6304.3	
691.37	5329.5	
691.55	7043.6	
691.74	6251.1	
691.92	7915.4	
692.1	5326.8	
692.29	4823	
692.47	6507.1	
692.66	5980.8	
692.84	5042.1	
693.02	5422.3	
693.21	5985.5	
693.39	6447.7	
693.58	5442.8	
693.76	5041.4	
693.94	7337.2	
694.13	7212.3	
694.31	5059.8	
694.5	5853.1	
694.68	6262.7	
694.86	6629.3	
695.05	5319.9	
695.23	5433.3	
695.42	6887.3	
695.6	8572.1	
695.78	5836.7	
695.97	5010.7	
696.15	6972	
696.34	6438.1	
696.52	4913.8	
696.7	5555.5	
696.89	6739.2	
697.07	6193.1	
697.25	5470.8	
697.44	6650.4	
697.62	6706.4	
697.81	6922.1	
697.99	5223	
698.17	5616.2	
698.36	6184.2	
698.54	6748.1	
698.72	5513.1	
698.91	4815.5	
699.09	6414.2	
699.28	6226.5	
699.46	5292.6	
699.64	5085.1	
699.83	6171.2	
700.01	7075.7	
700.19	5745.2	
700.38	4520.5	
700.56	7052.5	
700.74	6280.4	
700.93	4833.2	
701.11	5423	
701.29	6739.2	
701.48	7464.8	
701.66	5018.9	
701.84	5033.2	
702.03	6386.9	
702.21	6933.1	
702.39	4716.5	
702.58	5141.1	
702.76	6773.3	
702.94	6806.1	
703.13	4678.2	
703.31	6599.9	
703.49	6141.9	
703.68	7324.9	
703.86	4792.9	
704.04	5627.1	
704.23	6535.8	
704.41	6827.9	
704.59	5013.4	
704.78	5872.9	
704.96	7488.7	
705.14	6910.5	
705.33	4750.6	
705.51	5358.9	
705.69	6399.9	
705.87	7047.7	
706.06	5564.3	
706.24	4663.2	
706.42	6660	
706.61	6738.5	
706.79	5565.7	
706.97	4714.4	
707.16	6184.2	
707.34	6625.2	
707.52	5606.7	
707.7	4908.3	
707.89	6279.1	
708.07	5978.7	
708.25	5579.3	
708.44	5600.5	
708.62	6156.2	
708.8	7113.3	
708.98	5737	
709.17	4952.7	
709.35	6491.4	
709.53	6567.8	
709.72	4685.8	
709.9	4982	
710.08	6783.6	
710.26	6743.3	
710.45	5959.6	
710.63	4952	
710.81	6434.7	
710.99	6434.7	
711.18	5377.3	
711.36	5029.8	
711.54	6358.3	
711.72	6882.5	
711.91	5091.9	
712.09	4666	
712.27	6417	
712.45	6878.4	
712.64	5320.6	
712.82	4473.4	
713	5994.4	
713.18	6125.5	
713.37	4661.2	
713.55	5546.6	
713.73	6776.7	
713.91	5711.1	
714.1	4859.1	
714.28	4448.9	
714.46	6511.2	
714.64	5884.5	
714.83	4051.6	
715.01	4647.5	
715.19	5992.4	
715.37	5436.7	
715.55	4401.1	
715.74	4681.7	
715.92	6616.3	
716.1	5042.8	
716.28	5502.9	
716.47	4730.8	
716.65	5694.7	
716.83	5653.1	
717.01	4571.7	
717.19	4653	
717.38	7280.5	
717.56	5415.5	
717.74	4835.9	
717.92	4134.2	
718.1	6331	
718.29	5746.6	
718.47	3831.1	
718.65	4367.6	
718.83	6304.3	
719.01	6211.5	
719.2	3741	
719.38	4569	
719.56	5958.9	
719.74	7251.9	
719.92	4320.5	
720.11	5113.8	
720.29	6115.9	
720.47	5325.4	
720.65	4032.5	
720.83	4666	
721.02	5650.3	
721.2	5438.7	
721.38	4719.2	
721.56	4071.4	
721.74	5061.9	
721.92	5212.1	
722.11	5042.8	
722.29	4741	
722.47	6219.7	
722.65	5509.7	
722.83	4048.8	
723.01	4691.2	
723.2	5554.1	
723.38	5827.8	
723.56	3672.7	
723.74	4561.5	
723.92	5225.7	
724.1	6011.5	
724.29	4057.7	
724.47	4898.1	
724.65	5323.4	
724.83	5169.8	
725.01	3911.6	
725.19	4581.3	
725.37	5216.2	
725.56	5240.8	
725.74	3815.4	
725.92	4053.6	
726.1	5178.6	
726.28	5423	
726.46	4293.2	
726.64	4077.5	
726.83	5459.2	
727.01	5646.9	
727.19	3797.6	
727.37	4412.7	
727.55	5507.7	
727.73	5917.9	
727.91	3756.7	
728.09	3633.1	
728.28	5927.5	
728.46	6213.5	
728.64	4483	
728.82	4467.3	
729	6689.3	
729.18	6156.2	
729.36	3728	
729.54	5631.2	
729.72	6908.5	
729.91	5567.1	
730.09	5384.1	
730.27	4345.1	
730.45	5547.9	
730.63	5905	
730.81	4762.2	
730.99	4078.2	
731.17	6437.4	
731.35	5306.3	
731.53	4510.3	
731.71	4201.7	
731.9	6165.1	
732.08	6208.8	
732.26	4407.2	
732.44	4037.9	
732.62	6312.5	
732.8	5963.7	
732.98	4659.1	
733.16	3932.8	
733.34	5913.9	
733.52	4965.6	
733.7	4393.6	
733.88	4558.8	
734.07	5802.6	
734.25	5555.5	
734.43	3959.4	
734.61	5121.3	
734.79	6765.1	
734.97	5558.2	
735.15	4041.3	
735.33	4287.1	
735.51	5776.6	
735.69	5551.4	
735.87	5100.1	
736.05	4471.4	
736.23	5661.3	
736.41	5451.7	
736.59	4274.8	
736.77	4345.1	
736.95	5965.1	
737.13	5533.6	
737.32	4020.2	
737.5	4180.6	
737.68	6449.7	
737.86	5437.4	
738.04	3894.6	
738.22	5292.6	
738.4	5347.2	
738.58	5541.8	
738.76	4417.5	
738.94	3508.9	
739.12	5396.4	
739.3	5291.3	
739.48	4826.4	
739.66	4612	
739.84	5578	
740.02	5571.8	
740.2	3657.7	
740.38	3887	
740.56	5878.4	
740.74	4966.3	
740.92	4461.2	
741.1	4401.8	
741.28	5421	
741.46	5255.8	
741.64	4045.4	
741.82	4483	
742	5520	
742.18	5459.2	
742.36	4197	
742.54	3908.9	
742.72	5924.8	
742.9	4934.2	
743.08	4551.3	
743.26	3538.9	
743.44	6026.5	
743.62	5900.9	
743.8	4635.2	
743.98	3906.8	
744.16	5756.8	
744.34	5444.9	
744.52	4528.7	
744.7	4493.9	
744.88	5904.3	
745.06	5414.1	
745.24	4549.9	
745.42	4678.2	
745.6	5925.5	
745.78	5657.2	
745.96	3707.5	
746.14	3895.2	
746.32	6503.7	
746.5	5855.8	
746.68	4366.3	
746.86	3885.7	
747.03	6147.3	
747.21	4961.5	
747.39	4377.2	
747.57	3888.4	
747.75	5586.2	
747.93	5833.3	
748.11	3902.1	
748.29	3846.8	
748.47	6840.2	
748.65	5378.6	
748.83	4450.2	
749.01	4261.8	
749.19	5708.4	
749.37	5005.9	
749.55	4218.1	
749.73	4252.3	
749.91	5507	
750.09	5311.7	
750.26	4271.4	
750.44	3781.9	
750.62	5524.1	
750.8	5420.3	
750.98	3692.5	
751.16	3962.1	
751.34	5563	
751.52	5040.7	
751.7	4536.9	
751.88	3707.5	
752.06	5917.3	
752.24	5663.3	
752.42	3664.5	
752.59	3940.3	
752.77	5444.2	
752.95	6463.4	
753.13	4532.2	
753.31	3971.7	
753.49	5142.4	
753.67	5557.5	
753.85	4240	
754.03	3979.9	
754.21	5795.1	
754.38	6049.7	
754.56	4039.3	
754.74	3325.9	
754.92	5187.5	
755.1	5749.3	
755.28	3366.2	
755.46	3393.5	
755.64	6399.2	
755.82	6519.4	
755.99	3639.9	
756.17	3715	
756.35	4532.2	
756.53	5687.2	
756.71	2864.4	
756.89	3568.9	
757.07	5289.2	
757.25	4659.8	
757.42	3981.9	
757.6	4668.7	
757.78	5460.6	
757.96	4642.1	
758.14	3675.4	
758.32	3398.3	
758.5	4285	
758.67	5003.9	
758.85	3591.5	
759.03	3669.3	
759.21	5145.9	
759.39	4674.8	
759.57	3260.4	
759.75	4188.1	
759.92	5657.9	
760.1	5134.3	
760.28	4500.8	
760.46	4647.5	
760.64	4923.3	
760.82	4667.3	
760.99	4132.1	
761.17	3703.4	
761.35	5555.5	
761.53	4699.4	
761.71	3800.3	
761.89	4290.5	
762.06	5326.8	
762.24	4998.4	
762.42	3827.7	
762.6	3614	
762.78	5001.1	
762.96	5480.4	
763.13	4106.9	
763.31	3851.5	
763.49	5540.4	
763.67	4919.2	
763.85	4564.2	
764.02	4912.4	
764.2	5844.9	
764.38	5167.7	
764.56	3750.5	
764.74	4451.6	
764.91	5921.4	
765.09	5013.4	
765.27	3478.1	
765.45	3294.5	
765.63	5908.4	
765.8	5762.3	
765.98	3151.8	
766.16	3386.7	
766.34	4729.4	
766.52	4511.7	
766.69	4195.6	
766.87	3250.1	
767.05	5084.4	
767.23	5657.9	
767.41	3608.5	
767.58	3684.3	
767.76	5536.3	
767.94	5507	
768.12	3608.5	
768.29	4179.2	
768.47	5063.3	
768.65	5629.9	
768.83	3275.4	
769	4171.7	
769.18	4796.3	
769.36	5356.1	
769.54	4153.3	
769.72	3330	
769.89	5526.1	
770.07	5608.7	
770.25	3607.8	
770.43	4558.8	
770.6	6128.9	
770.78	6447.7	
770.96	3794.9	
771.14	4178.5	
771.31	5494.7	
771.49	4987.5	
771.67	3087.7	
771.85	3289.7	
772.02	4389.5	
772.2	4944.5	
772.38	3932.8	
772.55	3459	
772.73	5195.7	
772.91	4958.8	
773.09	3776.5	
773.26	3872.7	
773.44	5124.7	
773.62	4909	
773.8	3444	
773.97	3252.9	
774.15	5153.4	
774.33	4941.1	
774.5	3312.2	
774.68	3663.1	
774.86	5313.1	
775.04	4944.5	
775.21	3367.5	
775.39	3347.7	
775.57	5203.2	
775.74	5401.9	
775.92	3211.9	
776.1	3118.4	
776.27	5053	
776.45	6145.3	
776.63	3416	
776.81	3026.9	
776.98	4844.8	
777.16	5672.2	
777.34	3516.4	
777.51	3702	
777.69	4880.3	
777.87	4723.3	
778.04	3519.1	
778.22	3966.9	
778.4	4673.5	
778.57	5208.7	
778.75	2989.4	
778.93	3162.7	
779.1	4570.4	
779.28	4379.2	
779.46	2983.9	
779.64	3336.8	
779.81	5330.9	
779.99	6029.2	
780.17	3995.6	
780.34	4080.9	
780.52	4910.3	
780.69	5068.7	
780.87	3642	
781.05	3265.8	
781.22	4949.9	
781.4	4995.7	
781.58	3383.9	
781.75	2749.1	
781.93	4960.9	
782.11	4423.6	
782.28	4090.5	
782.46	3422.8	
782.64	4336.2	
782.81	5066.7	
782.99	3515	
783.17	3435.8	
783.34	5099.4	
783.52	4468	
783.69	3550.5	
783.87	4244.8	
784.05	4606.6	
784.22	4526.7	
784.4	4190.8	
784.58	3694.5	
784.75	5287.2	
784.93	4599.7	
785.1	3401.7	
785.28	3826.3	
785.46	5040.1	
785.63	4503.5	
785.81	3437.2	
785.99	3230.3	
786.16	4677.6	
786.34	4978.6	
786.51	3305.4	
786.69	3653.6	
786.87	4309.6	
787.04	4681.7	
787.22	3211.9	
787.39	3914.4	
787.57	4514.4	
787.75	5367.7	
787.92	4117.8	
788.1	4031.8	
788.27	4497.3	
788.45	4318.5	
788.63	3811.3	
788.8	2811.9	
788.98	4870.8	
789.15	4224.3	
789.33	2926.5	
789.5	3354.6	
789.68	5255.1	
789.86	5373.9	
790.03	3752.6	
790.21	3307.5	
790.38	5292.6	
790.56	4661.2	
790.73	3176.4	
790.91	3198.2	
791.09	4560.1	
791.26	5130.8	
791.44	3468.6	
791.61	2942.9	
791.79	4530.8	
791.96	4511	
792.14	3080.1	
792.32	2742.2	
792.49	4485.7	
792.67	4629.1	
792.84	3147	
793.02	2963.4	
793.19	4867.3	
793.37	5460.6	
793.54	2726.5	
793.72	3039.2	
793.89	5520	
794.07	4502.1	
794.25	3445.4	
794.42	2783.2	
794.6	5348.6	
794.77	5031.9	
794.95	3697.3	
795.12	3248.1	
795.3	4547.9	
795.47	5026.4	
795.65	3530.7	
795.82	3467.9	
796	4393.6	
796.17	5854.5	
796.35	3369.6	
796.52	3956.7	
796.7	4980	
796.87	4981.3	
797.05	3340.2	
797.22	3973.7	
797.4	5009.3	
797.57	5791	
797.75	3444.7	
797.92	3246.7	
798.1	5266.7	
798.27	4463.2	
798.45	2878.1	
798.62	3048.7	
798.8	4839.4	
798.97	5159.5	
799.15	3611.3	
799.32	3457	
799.5	4178.5	
799.67	4796.3	
799.85	3723.2	
800.02	2817.3	
800.2	4506.9	
800.37	4756.7	
800.55	3844	
800.72	3245.3	
800.9	5160.9	
801.07	5458.5	
801.25	4299.4	
801.42	3586.7	
801.6	5201.2	
801.77	4887.8	
801.95	3307.5	
802.12	3192.1	
802.29	4933.6	
802.47	4881.7	
802.64	3596.2	
802.82	2766.8	
802.99	4518.5	
803.17	5244.2	
803.34	3448.8	
803.52	3153.9	
803.69	5819.6	
803.87	4311	
804.04	3431.7	
804.21	3469.9	
804.39	5410.1	
804.56	4684.4	
804.74	3007.1	
804.91	3596.2	
805.09	4540.3	
805.26	4577.9	
805.44	3026.2	
805.61	3266.5	
805.78	5081.7	
805.96	5046.2	
806.13	3551.2	
806.31	3802.4	
806.48	4177.2	
806.66	4571.1	
806.83	3579.8	
807	3476.8	
807.18	4534.9	
807.35	4792.9	
807.53	3487.7	
807.7	2890.4	
807.87	5464	
808.05	4554.7	
808.22	3749.8	
808.4	2816.6	
808.57	4524	
808.74	4280.9	
808.92	3223.5	
809.09	4033.8	
809.27	4521.9	
809.44	4926.7	
809.61	2818.7	
809.79	3140.9	
809.96	5527.5	
810.14	5104.9	
810.31	2761.3	
810.48	3392.8	
810.66	4616.8	
810.83	5186.8	
811.01	3183.9	
811.18	3527.3	
811.35	5133.6	
811.53	4061.8	
811.7	3858.4	
811.87	3575.1	
812.05	4585.4	
812.22	4468	
812.39	3106.1	
812.57	3016	
812.74	4615.4	
812.92	5871.5	
813.09	3400.3	
813.26	3591.5	
813.44	5664.7	
813.61	4501.4	
813.78	2843.3	
813.96	3751.9	
814.13	4555.4	
814.3	4319.8	
814.48	3992.9	
814.65	3352.5	
814.82	5442.1	
815	4278.2	
815.17	3472.7	
815.34	4117.1	
815.52	4506.2	
815.69	4465.3	
815.87	3383.9	
816.04	3332	
816.21	4549.9	
816.38	4092.5	
816.56	3291.8	
816.73	3097.9	
816.9	5642.8	
817.08	5141.1	
817.25	3164.1	
817.42	3849.5	
817.6	4237.2	
817.77	4559.5	
817.94	3520.5	
818.12	3087	
818.29	4360.8	
818.46	6341.2	
818.64	3209.8	
818.81	3035.8	
818.98	4334.2	
819.16	5993	
819.33	3653.6	
819.5	3405.1	
819.67	4829.1	
819.85	5369.1	
820.02	3449.5	
820.19	3590.1	
820.37	4708.3	
820.54	4435.9	
820.71	3493.8	
820.88	4274.1	
821.06	4740.4	
821.23	4383.3	
821.4	3547.1	
821.58	3478.8	
821.75	5115.8	
821.92	4685.8	
822.09	2891.7	
822.27	2948.4	
822.44	4581.3	
822.61	4465.3	
822.79	2882.9	
822.96	5302.2	
823.13	4934.2	
823.3	4313	
823.48	3312.2	
823.65	2978.4	
823.82	5146.5	
823.99	4204.5	
824.17	4149.9	
824.34	3016	
824.51	5849.7	
824.68	4571.7	
824.86	3198.9	
825.03	3464.5	
825.2	4552.6	
825.37	5362.3	
825.55	3144.3	
825.72	3426.9	
825.89	5830.6	
826.06	5479	
826.24	3361.4	
826.41	3411.9	
826.58	5436.7	
826.75	4816.1	
826.92	2762	
827.1	3005.7	
827.27	7164.5	
827.44	5808.7	
827.61	3203	
827.79	3833.1	
827.96	4387.4	
828.13	4579.3	
828.3	3332	
828.47	2798.2	
828.65	4776.5	
828.82	4776.5	
828.99	4240	
829.16	3672	
829.34	5139.7	
829.51	4929.5	
829.68	3437.9	
829.85	3557.3	
830.02	5394.3	
830.2	5085.8	
830.37	2674	
830.54	4091.8	
830.71	5696.1	
830.88	4582	
831.05	2715.6	
831.23	3127.2	
831.4	5547.9	
831.57	6050.4	
831.74	3142.9	
831.91	2858.3	
832.09	4883	
832.26	5159.5	
832.43	3312.2	
832.6	3637.9	
832.77	4830.5	
832.94	5389.6	
833.12	2704	
833.29	3287	
833.46	4482.3	
833.63	6217	
833.8	3572.3	
833.97	3320.4	
834.15	5138.4	
834.32	4994.3	
834.49	3426.9	
834.66	3435.8	
834.83	5220.3	
835	4379.2	
835.17	3161.4	
835.35	3202.3	
835.52	5038.7	
835.69	4920.6	
835.86	3350.5	
836.03	2794.8	
836.2	5107.6	
836.37	4754.7	
836.55	3273.3	
836.72	3066.5	
836.89	4705.5	
837.06	5195	
837.23	3319.1	
837.4	3626.3	
837.57	5674.9	
837.75	6240.2	
837.92	2990	
838.09	3157.3	
838.26	4781.3	
838.43	5236.7	
838.6	3460.4	
838.77	3142.9	
838.94	5926.1	
839.11	5784.1	
839.29	3300.6	
839.46	2629.6	
839.63	5157.5	
839.8	4896.7	
839.97	3194.8	
840.14	3207.8	
840.31	4941.1	
840.48	5153.4	
840.65	2699.2	
840.82	3171.6	
841	5012.7	
841.17	4977.2	
841.34	2934.7	
841.51	3018.7	
841.68	5046.2	
841.85	4827.1	
842.02	3031	
842.19	2587.3	
842.36	4889.2	
842.53	4891.9	
842.7	2821.4	
842.87	3556.6	
843.05	6247.7	
843.22	4792.2	
843.39	2822.8	
843.56	3067.2	
843.73	4681.7	
843.9	5130.2	
844.07	4648.9	
844.24	3878.2	
844.41	7023.9	
844.58	4435.2	
844.75	2893.8	
844.92	3109.5	
845.09	5044.8	
845.26	5001.1	
845.43	2954.5	
845.6	3095.8	
845.77	5094	
845.94	4858.5	
846.12	3231	
846.29	3392.8	
846.46	5263.3	
846.63	5072.8	
846.8	2941.6	
846.97	3433.1	
847.14	5369.1	
847.31	5047.6	
847.48	3287.7	
847.65	3618.8	
847.82	5311.1	
847.99	5189.6	
848.16	3885	
848.33	3605.1	
848.5	4756.7	
848.67	5388.9	
848.84	2931.3	
849.01	3073.3	
849.18	4623.6	
849.35	4360.8	
849.52	3658.4	
849.69	2886.3	
849.86	5203.2	
850.03	5374.6	
850.2	2959.3	
850.37	3549.8	
850.54	5290.6	
850.71	4767.7	
850.88	3491.1	
851.05	2932	
851.22	4986.8	
851.39	5483.1	
851.56	2762.7	
851.73	3358	
851.9	4484.4	
852.07	5224.4	
852.24	3252.9	
852.41	2921.1	
852.58	4967.7	
852.75	4541	
852.92	3300	
853.09	2856.2	
853.26	4728.1	
853.43	5384.8	
853.6	2912.2	
853.77	2552.5	
853.94	5523.4	
854.11	4534.2	
854.28	4225	
854.44	3186.6	
854.61	5807.4	
854.78	5266	
854.95	2923.8	
855.12	3620.8	
855.29	4203.8	
855.46	5500.2	
855.63	2938.2	
855.8	3959.4	
855.97	4692.6	
856.14	5309.7	
856.31	4052.2	
856.48	3216.7	
856.65	4724	
856.82	4489.8	
856.99	2868.5	
857.16	3124.5	
857.33	6042.9	
857.49	4756.7	
857.66	3179.8	
857.83	3343.7	
858	4784.7	
858.17	4945.8	
858.34	2798.9	
858.51	2914.9	
858.68	5588.2	
858.85	5564.3	
859.02	3436.5	
859.19	3560.1	
859.36	4446.8	
859.52	4483	
859.69	2936.8	
859.86	3421.5	
860.03	4572.4	
860.2	5514.5	
860.37	2760	
860.54	2981.2	
860.71	5241.4	
860.88	5547.3	
861.05	3300	
861.21	3649.5	
861.38	5495.4	
861.55	4339	
861.72	2686.3	
861.89	3319.1	
862.06	5221	
862.23	5594.4	
862.4	2882.9	
862.56	3065.1	
862.73	5110.4	
862.9	4874.2	
863.07	3417.4	
863.24	2749.7	
863.41	4431.1	
863.58	4569.7	
863.75	3009.8	
863.91	3395.5	
864.08	5418.9	
864.25	5190.2	
864.42	3641.3	
864.59	4040	
864.76	5721.3	
864.93	4495.3	
865.09	2855.6	
865.26	3138.2	
865.43	5437.4	
865.6	5750	
865.77	2571.6	
865.94	2917.7	
866.1	5386.2	
866.27	5178.6	
866.44	4291.2	
866.61	2766.1	
866.78	4838	
866.95	5138.4	
867.11	2861.7	
867.28	2625.5	
867.45	5381.4	
867.62	4576.5	
867.79	3405.1	
867.96	2919	
868.12	4503.5	
868.29	5205.9	
868.46	2942.9	
868.63	3870	
868.8	5369.1	
868.97	5175.9	
869.13	3067.9	
869.3	3055.6	
869.47	5111.7	
869.64	5312.4	
869.81	2952.5	
869.97	3001	
870.14	4952	
870.31	5517.2	
870.48	2857.6	
870.65	3689.8	
870.81	4825	
870.98	4825.7	
871.15	3269.9	
871.32	3019.4	
871.48	5108.3	
871.65	5612.1	
871.82	2919	
871.99	3199.6	
872.16	5915.9	
872.32	5393	
872.49	2991.4	
872.66	2990	
872.83	5250.3	
872.99	4665.3	
873.16	3350.5	
873.33	2939.5	
873.5	4971.1	
873.67	4972.5	
873.83	3091.8	
874	3812	
874.17	5086.5	
874.34	5735.7	
874.5	3694.5	
874.67	3592.8	
874.84	5496.7	
875.01	4408.6	
875.17	4060.4	
875.34	2950.4	
875.51	4965	
875.68	5883.8	
875.84	3540.3	
876.01	4211.3	
876.18	5248.9	
876.34	5115.8	
876.51	2989.4	
876.68	2919	
876.85	4818.9	
877.01	5395.7	
877.18	4077.5	
877.35	2864.4	
877.52	4971.8	
877.68	4501.4	
877.85	2921.1	
878.02	2902.7	
878.18	4822.3	
878.35	4702.1	
878.52	2381.1	
878.69	3238.5	
878.85	5313.1	
879.02	5142.4	
879.19	4147.8	
879.35	3165.5	
879.52	5241.4	
879.69	5267.4	
879.86	2566.8	
880.02	3254.9	
880.19	4890.5	
880.36	5838.8	
880.52	3355.9	
880.69	3422.2	
880.86	5274.2	
881.02	5261.9	
881.19	3201	
881.36	3145	
881.52	5141.1	
881.69	4629.8	
881.86	3118.4	
882.02	3078.8	
882.19	5389.6	
882.36	6173.9	
882.52	3056.3	
882.69	4059.1	
882.86	5032.5	
883.02	4922	
883.19	3525.2	
883.36	3287.7	
883.52	5289.9	
883.69	5948.7	
883.86	2962	
884.02	2686.9	
884.19	5256.5	
884.36	4841.4	
884.52	3327.9	
884.69	3177.1	
884.86	4735.6	
885.02	5675.6	
885.19	3311.6	
885.36	3302.7	
885.52	4833.2	
885.69	5030.5	
885.86	4143.7	
886.02	3670.6	
886.19	5242.8	
886.35	4769.7	
886.52	3190.1	
886.69	4032.5	
886.85	4554	
887.02	5496.1	
887.19	5496.1	
887.35	5496.1	
887.52	5496.1	
887.68	5496.1	
887.85	5496.1	
888.02	5496.1	
888.18	5496.1	
888.35	5496.1	
888.51	5496.1	
888.68	5496.1	
888.85	5496.1	
889.01	5496.1	
889.18	5496.1	
889.35	5496.1	
889.51	5496.1	
889.68	5496.1	
889.84	5496.1	
890.01	5496.1	
890.17	5496.1	
890.34	5496.1	
890.51	5496.1	
890.67	5496.1	
890.84	5496.1	
891	5496.1	
891.17	5496.1	
891.34	5496.1	
891.5	5496.1	
891.67	5496.1	
891.83	5496.1	
892	5496.1	
892.16	5496.1	
892.33	5496.1	
892.5	5496.1	
892.66	5496.1	
892.83	5496.1	
892.99	5496.1	
893.16	5496.1	
893.32	5496.1	
893.49	5496.1	
893.65	5496.1	
893.82	5496.1	
893.99	5496.1	
894.15	5496.1	
894.32	5496.1	
894.48	5496.1	
894.65	5496.1	
894.81	5496.1	
894.98	5496.1	
895.14	5496.1	
895.31	5496.1	
895.47	5496.1	
895.64	5496.1	
895.81	5496.1	
895.97	5496.1	
896.14	5496.1	
896.3	5496.1	
896.47	5496.1	
896.63	5496.1	
896.8	5496.1	
896.96	5496.1	
897.13	5496.1	
897.29	5496.1	
897.46	5496.1	
897.62	5496.1	
897.79	5496.1	
897.95	5496.1	
898.12	5496.1	
898.28	5496.1	
898.45	5496.1	
898.61	5496.1	
898.78	5496.1	
898.94	5496.1	
899.11	5496.1	
899.27	5496.1	
899.44	5496.1	
899.6	5496.1	
899.77	5496.1	
899.93	5496.1	
900.1	5496.1	
900.26	5496.1	
900.43	5496.1	
900.59	5496.1	
900.76	5496.1	
900.92	5496.1	
901.09	5496.1	
901.25	5496.1	
901.42	5496.1	
901.58	5496.1	
901.75	5496.1	
901.91	5496.1	
902.07	5496.1	
902.24	5496.1	
902.4	5496.1	
902.57	5496.1	
902.73	5496.1	
902.9	5496.1	
903.06	5496.1	
903.23	5496.1	
903.39	5496.1	
903.56	5496.1	
903.72	5496.1	
903.88	5496.1	
904.05	5496.1	
904.21	5496.1	
904.38	5496.1	
904.54	5496.1	
904.71	5496.1	
904.87	5496.1	
905.03	5496.1	
905.2	5496.1	
905.36	5496.1	
905.53	5496.1	
905.69	5496.1	
905.86	5496.1	
906.02	5496.1	
906.18	5496.1	
906.35	5496.1	
906.51	5496.1	
906.68	5496.1	
906.84	5496.1	
907.01	5496.1	
907.17	5496.1	
907.33	5496.1	
907.5	5496.1	
907.66	5496.1	
907.83	5496.1	
907.99	5496.1	
908.15	5496.1	
908.32	5496.1	
908.48	5496.1	
908.65	5496.1	
908.81	5496.1	
908.97	5496.1	
909.14	5496.1	
909.3	5496.1	
909.47	5496.1	
909.63	5496.1	
909.79	5496.1	
909.96	5496.1	
910.12	5496.1	
910.28	5496.1	
910.45	5496.1	
910.61	5496.1	
910.78	5496.1	
910.94	5496.1	
911.1	5496.1	
911.27	5496.1	
911.43	5496.1	
911.59	5496.1	
911.76	5496.1	
911.92	5496.1	
912.08	5496.1	
912.25	5496.1	
912.41	5496.1	
912.57	5496.1	
912.74	5496.1	
912.9	5496.1	
913.07	5496.1	
913.23	5496.1	
913.39	5496.1	
913.56	5496.1	
913.72	5496.1	
913.88	5496.1	
914.05	5496.1	
914.21	5496.1	
914.37	5496.1	
914.54	5496.1	
914.7	5496.1	
914.86	5496.1	
915.03	5496.1	
915.19	5496.1	
