Wavelength	Intensities	
nm	a.u.	
179.22	1715.2	
179.44	1708	
179.65	1722.3	
179.86	1693.7	
180.08	1686.2	
180.29	3984	
180.51	3032.4	
180.72	4973.8	
180.94	5557.5	
181.15	2751.8	
181.37	2713.6	
181.58	4825.7	
181.79	5006.6	
182.01	2841.2	
182.22	3007.8	
182.44	5054.4	
182.65	4311.7	
182.87	3651.5	
183.08	3232.4	
183.29	5244.2	
183.51	4455	
183.72	2966.8	
183.94	4212.7	
184.15	4730.8	
184.37	4653.7	
184.58	2688.3	
184.79	3472	
185.01	4465.3	
185.22	5027.8	
185.44	3707.5	
185.65	3151.1	
185.86	4709	
186.08	4336.2	
186.29	2604.3	
186.51	2804.4	
186.72	4463.9	
186.94	5140.4	
187.15	3219.4	
187.36	3240.6	
187.58	6412.9	
187.79	4810	
188.01	3331.4	
188.22	5136.3	
188.43	5613.5	
188.65	4993.6	
188.86	2792.7	
189.08	3293.8	
189.29	4565.6	
189.5	4603.2	
189.72	3033.7	
189.93	3103.4	
190.15	5122.7	
190.36	5909.8	
190.57	3310.2	
190.79	3198.2	
191	5147.9	
191.22	5105.6	
191.43	3346.4	
191.64	2815.3	
191.86	5372.5	
192.07	5096.7	
192.29	2942.9	
192.5	3011.9	
192.71	5141.8	
192.93	4549.2	
193.14	3036.5	
193.35	3112.9	
193.57	4579.3	
193.78	5100.8	
194	2504	
194.21	2975.7	
194.42	4370.4	
194.64	4706.2	
194.85	3257.6	
195.07	3726.6	
195.28	4739.7	
195.49	4300.7	
195.71	3932.1	
195.92	2822.8	
196.13	4917.2	
196.35	4918.5	
196.56	4106.9	
196.78	3327.3	
196.99	5927.5	
197.2	5588.9	
197.42	3657	
197.63	3262.4	
197.84	4297.3	
198.06	4886.5	
198.27	3049.4	
198.48	3926	
198.7	4580.6	
198.91	4738.3	
199.13	3275.4	
199.34	3321.1	
199.55	5059.2	
199.77	4099.4	
199.98	2948.4	
200.19	3300	
200.41	4725.3	
200.62	4407.9	
200.83	3387.3	
201.05	3631.7	
201.26	4680.3	
201.47	4561.5	
201.69	2975.7	
201.9	2882.2	
202.11	4737.6	
202.33	5425.8	
202.54	3119.1	
202.76	3460.4	
202.97	4745.8	
203.18	4885.8	
203.4	3377.8	
203.61	3435.8	
203.82	4775.9	
204.04	4490.5	
204.25	3256.3	
204.46	3235.1	
204.68	4765.6	
204.89	4899.4	
205.1	3193.5	
205.32	2855.6	
205.53	5047.6	
205.74	5180.7	
205.96	2495.1	
206.17	3338.9	
206.38	4992.9	
206.6	5122	
206.81	3697.3	
207.02	3112.2	
207.24	4902.2	
207.45	5205.9	
207.66	3158.7	
207.88	2790	
208.09	4904.9	
208.3	4717.2	
208.52	2914.3	
208.73	3193.5	
208.94	4721.9	
209.15	5264	
209.37	3151.1	
209.58	3465.2	
209.79	5091.9	
210.01	4605.2	
210.22	2650.1	
210.43	2779.1	
210.65	4713.1	
210.86	5022.3	
211.07	3183.2	
211.29	2945.7	
211.5	4940.4	
211.71	4634.6	
211.93	2967.5	
212.14	2940.9	
212.35	4701.5	
212.56	4736.3	
212.78	3287.7	
212.99	2810.5	
213.2	5452.4	
213.42	4565.6	
213.63	3026.2	
213.84	3194.8	
214.06	4276.2	
214.27	4367	
214.48	3112.2	
214.69	3349.1	
214.91	5283.1	
215.12	5251.7	
215.33	3314.3	
215.55	3560.7	
215.76	5666	
215.97	4982	
216.18	3190.7	
216.4	3225.6	
216.61	4442	
216.82	5081.7	
217.04	2985.9	
217.25	3039.2	
217.46	5133.6	
217.67	4997.7	
217.89	2671.2	
218.1	2761.3	
218.31	4797.7	
218.53	4962.2	
218.74	3110.2	
218.95	2970.2	
219.16	4698.7	
219.38	5435.3	
219.59	2977.7	
219.8	3454.9	
220.01	5803.3	
220.23	4811.4	
220.44	3701.4	
220.65	2923.1	
220.87	4804.5	
221.08	5169.8	
221.29	2771.6	
221.5	3491.8	
221.72	6136.4	
221.93	4493.9	
222.14	3302.7	
222.35	3848.1	
222.57	4863.2	
222.78	5072.1	
222.99	3183.9	
223.2	3371.6	
223.42	4989.5	
223.63	5009.3	
223.84	2489	
224.05	2500.6	
224.27	5768.4	
224.48	5423	
224.69	3829	
224.9	3302.7	
225.12	4806.6	
225.33	4709	
225.54	2707.4	
225.75	2977.7	
225.97	4435.2	
226.18	4687.1	
226.39	3122.5	
226.6	2962.7	
226.82	4531.5	
227.03	4435.9	
227.24	3271.3	
227.45	2795.5	
227.67	5101.5	
227.88	5330.2	
228.09	3629.7	
228.3	3627	
228.52	4973.2	
228.73	4692.6	
228.94	3085.6	
229.15	2824.1	
229.36	4737.6	
229.58	4695.3	
229.79	3154.6	
230	3535.5	
230.21	5534.3	
230.43	4811.4	
230.64	3234.4	
230.85	3360	
231.06	5129.5	
231.28	5155.4	
231.49	2802.3	
231.7	3192.1	
231.91	4932.9	
232.12	4730.1	
232.34	2876.7	
232.55	3180.5	
232.76	5194.3	
232.97	4786.1	
233.18	2984.6	
233.4	3244	
233.61	4823.6	
233.82	4532.2	
234.03	3063.1	
234.25	3060.3	
234.46	6244.9	
234.67	4735.6	
234.88	3363.4	
235.09	2979.1	
235.31	4945.2	
235.52	4646.2	
235.73	3237.2	
235.94	2807.8	
236.15	4478.9	
236.37	5557.5	
236.58	2934.7	
236.79	3132	
237	4990.9	
237.21	4300.7	
237.43	3381.9	
237.64	2714.9	
237.85	7743.4	
238.06	4401.8	
238.27	3400.3	
238.48	2830.3	
238.7	5012.1	
238.91	4618.2	
239.12	3110.9	
239.33	3231	
239.54	4439.3	
239.76	4700.8	
239.97	3157.3	
240.18	3156.6	
240.39	5615.5	
240.6	4889.9	
240.82	3312.9	
241.03	2753.2	
241.24	4663.9	
241.45	5344.5	
241.66	2921.1	
241.87	3423.5	
242.09	5281.7	
242.3	5525.4	
242.51	3378.5	
242.72	3132.7	
242.93	4982.7	
243.14	4691.9	
243.36	3580.5	
243.57	3860.4	
243.78	5364.3	
243.99	4930.1	
244.2	3199.6	
244.41	2901.3	
244.63	4401.1	
244.84	4958.8	
245.05	3397.6	
245.26	3128.6	
245.47	4992.3	
245.68	5032.5	
245.9	4022.9	
246.11	3293.1	
246.32	4601.1	
246.53	4904.9	
246.74	4922	
246.95	2718.3	
247.16	4431.8	
247.38	4759.5	
247.59	2740.9	
247.8	3228.3	
248.01	4422.2	
248.22	4728.1	
248.43	2928.6	
248.64	3136.1	
248.86	4313	
249.07	4556	
249.28	2853.5	
249.49	3233.1	
249.7	5137.7	
249.91	5160.2	
250.12	2754.5	
250.34	2800.3	
250.55	4788.2	
250.76	4713.1	
250.97	3261.7	
251.18	3344.3	
251.39	5152.7	
251.6	4807.9	
251.81	3325.9	
252.03	3246.7	
252.24	4602.5	
252.45	5025.7	
252.66	2807.8	
252.87	3391.4	
253.08	4710.3	
253.29	5864	
253.5	2850.1	
253.72	3779.9	
253.93	4666.6	
254.14	5430.5	
254.35	3039.9	
254.56	3069.9	
254.77	4863.9	
254.98	4459.8	
255.19	3063.8	
255.41	3697.3	
255.62	4815.5	
255.83	5207.3	
256.04	3380.5	
256.25	3254.9	
256.46	5563	
256.67	4536.3	
256.88	3235.8	
257.09	3590.8	
257.31	4437.9	
257.52	4483.7	
257.73	4014.7	
257.94	3051.5	
258.15	4667.3	
258.36	4686.4	
258.57	3683.6	
258.78	2494.4	
258.99	5115.1	
259.2	4584.7	
259.41	3078.1	
259.63	3100.6	
259.84	5342.5	
260.05	5592.3	
260.26	3887.7	
260.47	2970.2	
260.68	5175.2	
260.89	4639.3	
261.1	3588.7	
261.31	2921.8	
261.52	5223	
261.73	5423.7	
261.95	3821.5	
262.16	3388.7	
262.37	5200.5	
262.58	5360.9	
262.79	3869.3	
263	3027.6	
263.21	4829.8	
263.42	4381.3	
263.63	3335.5	
263.84	3070.6	
264.05	5165	
264.26	5393	
264.47	3717.7	
264.69	3268.6	
264.9	5266.7	
265.11	4901.5	
265.32	3000.3	
265.53	3037.1	
265.74	4831.8	
265.95	4259.1	
266.16	3278.1	
266.37	3497.2	
266.58	4849.6	
266.79	4579.3	
267	3036.5	
267.21	2864.4	
267.42	4410	
267.63	4674.1	
267.84	3112.2	
268.06	2779.8	
268.27	5105.6	
268.48	5179.3	
268.69	3074.7	
268.9	3569.6	
269.11	5246.2	
269.32	4320.5	
269.53	3196.9	
269.74	2925.9	
269.95	4905.6	
270.16	4240.7	
270.37	3211.2	
270.58	3592.1	
270.79	4693.3	
271	5123.3	
271.21	3349.1	
271.42	3182.5	
271.63	4952.7	
271.84	4402.5	
272.05	2626.2	
272.26	2871.9	
272.47	4752	
272.68	4895.3	
272.89	3053.5	
273.11	3418.7	
273.32	4567.7	
273.53	5369.8	
273.74	3349.8	
273.95	3304.1	
274.16	5096	
274.37	4760.8	
274.58	3433.8	
274.79	2852.8	
275	4853.7	
275.21	5185.5	
275.42	4093.9	
275.63	3476.8	
275.84	4996.4	
276.05	6052.4	
276.26	3318.4	
276.47	3110.9	
276.68	4706.2	
276.89	5487.9	
277.1	3556	
277.31	2768.2	
277.52	4918.5	
277.73	5152	
277.94	2828.2	
278.15	3024.8	
278.36	4863.9	
278.57	4470	
278.78	3050.1	
278.99	3398.3	
279.2	4586.8	
279.41	4434.5	
279.62	3915	
279.83	2871.9	
280.04	5644.9	
280.25	4450.9	
280.46	3894.6	
280.67	3166.2	
280.88	4491.9	
281.09	5193.6	
281.3	3312.9	
281.51	4061.1	
281.72	4560.1	
281.93	5038.7	
282.14	3020.1	
282.35	3258.3	
282.56	5160.9	
282.77	5061.9	
282.98	3076	
283.19	3660.4	
283.4	6022.4	
283.61	4668.7	
283.82	2897.2	
284.03	3840.6	
284.24	4878.9	
284.45	5203.2	
284.66	3864.5	
284.87	3693.9	
285.08	5173.2	
285.29	5238.7	
285.5	2755.2	
285.71	3089	
285.92	5221	
286.12	5656.5	
286.33	3788.7	
286.54	3096.5	
286.75	5068.7	
286.96	4684.4	
287.17	2903.3	
287.38	3689.1	
287.59	4502.8	
287.8	4504.2	
288.01	3130	
288.22	3493.2	
288.43	4986.1	
288.64	4269.3	
288.85	3647.4	
289.06	3485	
289.27	5084.4	
289.48	5373.9	
289.69	3890.5	
289.9	3518.4	
290.11	5226.4	
290.32	4574.5	
290.53	3663.8	
290.74	3382.6	
290.94	5025	
291.15	5076.9	
291.36	3060.3	
291.57	3449.5	
291.78	4635.2	
291.99	4347.2	
292.2	2883.5	
292.41	3393.5	
292.62	5188.2	
292.83	4978.6	
293.04	4053.6	
293.25	2981.8	
293.46	4595	
293.67	5154.7	
293.88	2977.1	
294.09	2943.6	
294.29	4465.9	
294.5	4853.7	
294.71	3184.6	
294.92	3032.4	
295.13	4633.9	
295.34	5582.1	
295.55	2756.6	
295.76	2711.5	
295.97	5014.8	
296.18	5571.8	
296.39	2886.3	
296.6	2950.4	
296.81	4790.2	
297.01	5033.9	
297.22	3100.6	
297.43	3028.9	
297.64	4578.6	
297.85	4436.6	
298.06	2557.2	
298.27	2770.2	
298.48	4749.9	
298.69	4524.6	
298.9	3235.8	
299.11	2961.4	
299.31	4402.5	
299.52	4403.8	
299.73	3467.2	
299.94	3382.6	
300.15	4757.4	
300.36	4480.3	
300.57	3385.3	
300.78	3327.3	
300.99	4581.3	
301.2	4785.4	
301.4	2994.8	
301.61	3186.6	
301.82	5020.3	
302.03	5014.1	
302.24	3560.1	
302.45	2850.1	
302.66	5016.8	
302.87	5167	
303.08	3013.9	
303.29	3981.9	
303.49	4610	
303.7	4724.7	
303.91	2743.6	
304.12	3767.6	
304.33	4349.2	
304.54	4876.2	
304.75	3017.3	
304.96	2861.7	
305.16	4975.9	
305.37	5460.6	
305.58	2643.9	
305.79	2770.2	
306	4962.2	
306.21	4270.7	
306.42	3009.8	
306.63	4335.5	
306.83	4618.2	
307.04	5084.4	
307.25	3250.1	
307.46	3241.9	
307.67	4162.2	
307.88	5020.9	
308.09	2980.5	
308.29	3018	
308.5	4777.2	
308.71	5124	
308.92	3199.6	
309.13	2918.4	
309.34	4657.8	
309.55	4687.8	
309.75	3683.6	
309.96	3362.8	
310.17	5017.5	
310.38	4506.9	
310.59	3490.4	
310.8	2841.2	
311.01	5543.9	
311.21	4670.7	
311.42	2951.1	
311.63	2959.3	
311.84	4575.8	
312.05	4773.8	
312.26	3322.5	
312.46	3575.8	
312.67	4618.2	
312.88	4403.8	
313.09	2950.4	
313.3	2894.5	
313.51	5313.1	
313.71	5550	
313.92	2894.5	
314.13	3076	
314.34	4917.9	
314.55	4724.7	
314.76	3605.1	
314.96	3235.1	
315.17	4919.9	
315.38	5026.4	
315.59	2938.8	
315.8	2827.6	
316.01	5267.4	
316.21	5387.5	
316.42	2835.1	
316.63	3175	
316.84	4616.8	
317.05	5146.5	
317.26	3364.1	
317.46	3084.2	
317.67	4724	
317.88	5013.4	
318.09	3607.2	
318.3	2747.7	
318.5	4536.9	
318.71	5004.6	
318.92	4497.3	
319.13	3400.3	
319.34	5088.5	
319.54	5195.7	
319.75	2762.7	
319.96	2642.6	
320.17	4958.8	
320.38	5132.2	
320.58	2712.2	
320.79	3209.8	
321	5203.9	
321.21	5244.2	
321.42	3229.6	
321.62	2751.8	
321.83	4493.9	
322.04	4740.4	
322.25	3084.9	
322.46	2938.8	
322.66	4827.1	
322.87	4977.2	
323.08	3524.6	
323.29	2843.3	
323.5	5539.8	
323.7	4406.5	
323.91	3812.6	
324.12	3534.8	
324.33	4876.9	
324.53	4997	
324.74	3336.1	
324.95	3494.5	
325.16	4372.4	
325.37	4604.5	
325.57	2891.7	
325.78	2933.4	
325.99	4803.2	
326.2	4320.5	
326.4	4061.8	
326.61	2740.9	
326.82	4685.8	
327.03	4844.1	
327.24	3997	
327.44	3752.6	
327.65	4958.1	
327.86	4127.3	
328.07	3325.9	
328.27	2841.9	
328.48	5289.2	
328.69	4442.7	
328.9	4019.5	
329.1	3017.3	
329.31	4690.5	
329.52	5295.4	
329.73	2942.2	
329.93	3236.5	
330.14	4741.7	
330.35	4917.2	
330.56	4571.7	
330.76	3531.4	
330.97	4643.4	
331.18	4842.1	
331.39	3215.3	
331.59	2663.7	
331.8	5208.7	
332.01	5276.9	
332.22	2982.5	
332.42	3318.4	
332.63	4844.1	
332.84	4473.4	
333.05	3222.8	
333.25	3020.8	
333.46	4534.9	
333.67	4786.1	
333.88	3089.7	
334.08	3287	
334.29	6002.6	
334.5	5224.4	
334.7	2861.7	
334.91	4035.9	
335.12	4426.3	
335.33	5028.4	
335.53	3268.6	
335.74	4459.8	
335.95	4659.1	
336.16	4403.8	
336.36	3181.9	
336.57	3661.8	
336.78	4370.4	
336.98	5154.7	
337.19	3873.4	
337.4	3158	
337.61	5588.2	
337.81	4400.4	
338.02	3015.3	
338.23	3722.5	
338.43	5332.2	
338.64	4472.1	
338.85	2949.8	
339.05	3781.2	
339.26	5398.4	
339.47	4315.8	
339.68	2941.6	
339.88	4113	
340.09	4968.4	
340.3	5115.1	
340.5	3386	
340.71	2628.9	
340.92	4394.3	
341.13	5289.2	
341.33	2822.8	
341.54	3375.1	
341.75	4963.6	
341.95	4618.2	
342.16	3236.5	
342.37	3544.4	
342.57	4468.7	
342.78	4670.1	
342.99	3600.3	
343.19	2719.7	
343.4	5068	
343.61	5008	
343.81	3141.6	
344.02	2856.9	
344.23	5050.3	
344.43	5309.7	
344.64	3596.2	
344.85	3525.2	
345.06	4939	
345.26	5166.3	
345.47	3415.3	
345.68	3834.5	
345.88	4334.9	
346.09	5115.8	
346.3	3401	
346.5	2663.7	
346.71	4718.5	
346.92	4548.5	
347.12	2809.1	
347.33	3310.2	
347.54	5167.7	
347.74	5413.5	
347.95	3330.7	
348.16	2609.8	
348.36	4595.6	
348.57	4459.8	
348.78	3362.8	
348.98	3540.3	
349.19	4749.2	
349.39	4364.2	
349.6	2814.6	
349.81	3023.5	
350.01	5076.9	
350.22	4563.6	
350.43	3322.5	
350.63	3848.8	
350.84	4835.3	
351.05	4554	
351.25	3036.5	
351.46	2779.8	
351.67	5214.1	
351.87	4573.1	
352.08	3241.9	
352.29	3579.2	
352.49	5196.4	
352.7	5192.3	
352.9	2883.5	
353.11	3571.7	
353.32	5630.5	
353.52	4730.8	
353.73	2985.9	
353.94	3616.7	
354.14	5076.9	
354.35	4885.8	
354.55	3080.1	
354.76	3346.4	
354.97	5056.4	
355.17	4837.3	
355.38	2962	
355.59	3911.6	
355.79	4634.6	
356	4934.9	
356.2	3340.9	
356.41	3016	
356.62	4493.9	
356.82	4872.1	
357.03	3611.3	
357.24	3273.3	
357.44	4662.5	
357.65	4795.7	
357.85	4188.1	
358.06	3431	
358.27	4466.6	
358.47	4624.3	
358.68	3001.6	
358.88	3621.5	
359.09	5130.2	
359.3	5390.3	
359.5	4162.2	
359.71	3796.3	
359.91	5727.5	
360.12	5273.5	
360.33	3665.9	
360.53	4076.1	
360.74	4827.1	
360.94	4867.3	
361.15	3858.4	
361.36	3300	
361.56	5461.2	
361.77	4944.5	
361.97	4286.4	
362.18	3487.7	
362.38	5527.5	
362.59	4764.9	
362.8	3286.3	
363	3216.7	
363.21	4640	
363.41	5202.5	
363.62	3688.4	
363.83	4448.2	
364.03	5338.4	
364.24	5897.5	
364.44	4592.2	
364.65	4502.8	
364.85	5136.3	
365.06	4760.2	
365.27	3469.3	
365.47	3554.6	
365.68	5829.2	
365.88	5057.1	
366.09	3891.1	
366.29	3571.7	
366.5	5261.9	
366.71	5594.4	
366.91	4613.4	
367.12	3997	
367.32	6111.8	
367.53	5549.3	
367.73	3996.3	
367.94	4731.5	
368.14	5509	
368.35	6108.4	
368.56	3931.4	
368.76	3481.5	
368.97	5609.4	
369.17	6774	
369.38	3535.5	
369.58	3796.3	
369.79	4805.2	
369.99	5780.7	
370.2	4541.7	
370.4	3865.9	
370.61	5368.4	
370.82	6294.1	
371.02	3725.9	
371.23	3240.6	
371.43	4856.4	
371.64	5836.7	
371.84	3933.5	
372.05	4745.8	
372.25	6813.6	
372.46	5591	
372.66	3944.4	
372.87	4010.6	
373.07	5764.3	
373.28	7051.2	
373.48	4666.6	
373.69	4489.8	
373.9	5405.3	
374.1	5442.1	
374.31	4697.4	
374.51	4336.9	
374.72	6023.8	
374.92	5212.1	
375.13	4925.4	
375.33	4287.1	
375.54	5817.6	
375.74	5526.8	
375.95	4543.1	
376.15	5357.5	
376.36	5915.9	
376.56	5809.4	
376.77	4521.2	
376.97	4883	
377.18	6806.1	
377.38	6071.5	
377.59	5115.8	
377.79	4255	
378	5984.2	
378.2	6368.5	
378.41	4462.5	
378.61	4292.5	
378.82	6361	
379.02	5810.8	
379.23	4586.8	
379.43	5300.8	
379.64	6603.3	
379.84	6208.1	
380.05	4348.5	
380.25	4276.8	
380.46	6273.6	
380.66	5840.1	
380.87	5298.8	
381.07	5580	
381.28	6762.4	
381.48	6169.2	
381.69	4300.7	
381.89	4424.3	
382.1	5445.5	
382.3	6234	
382.51	5100.8	
382.71	5744.6	
382.91	6150.1	
383.12	6459.3	
383.32	4545.8	
383.53	4694.6	
383.73	6029.9	
383.94	5924.1	
384.14	4723.3	
384.35	3978.5	
384.55	5774.6	
384.76	6035.4	
384.96	4557.4	
385.17	4653	
385.37	6101.6	
385.58	5459.9	
385.78	4657.8	
385.98	3829	
386.19	5678.3	
386.39	5982.1	
386.6	4375.8	
386.8	4458.4	
387.01	6087.2	
387.21	6056.5	
387.42	4816.8	
387.62	5279.7	
387.83	5683.8	
388.03	6026.5	
388.23	4669.4	
388.44	5302.2	
388.64	5547.9	
388.85	5606.7	
389.05	4994.3	
389.26	5468.8	
389.46	7122.2	
389.67	6716.7	
389.87	5090.6	
390.07	5055.8	
390.28	6096.8	
390.48	5788.2	
390.69	4533.5	
390.89	4769	
391.1	5950	
391.3	6627.9	
391.5	5582.8	
391.71	6083.1	
391.91	6476.4	
392.12	7139.2	
392.32	5723.4	
392.53	5079	
392.73	6089.3	
392.93	6118	
393.14	4839.4	
393.34	5363.6	
393.55	6336.4	
393.75	6000.5	
393.95	4747.9	
394.16	4638	
394.36	5845.6	
394.57	6231.3	
394.77	4365.6	
394.98	4614.1	
395.18	5851.7	
395.38	6045.6	
395.59	5411.4	
395.79	4719.9	
396	6222.4	
396.2	6617.7	
396.4	5445.5	
396.61	5423.7	
396.81	6667.5	
397.02	6210.8	
397.22	5685.8	
397.42	5759.6	
397.63	6778.1	
397.83	6277	
398.04	4917.2	
398.24	5361.6	
398.44	6552.8	
398.65	6011.5	
398.85	4805.9	
399.05	4889.2	
399.26	6338.5	
399.46	7529.7	
399.67	5217.5	
399.87	5061.9	
400.07	6619.7	
400.28	6783.6	
400.48	5162.2	
400.69	6036.7	
400.89	7126.9	
401.09	7480.5	
401.3	5293.3	
401.5	6007.4	
401.7	7685.3	
401.91	7865.6	
402.11	5543.9	
402.32	5629.9	
402.52	7301	
402.72	7069.6	
402.93	5716.6	
403.13	4870.8	
403.33	7613	
403.54	6398.5	
403.74	5236	
403.94	5717.9	
404.15	6397.9	
404.35	7176.8	
404.56	4866	
404.76	6227.9	
404.96	6763.1	
405.17	6573.3	
405.37	6311.2	
405.57	5563.6	
405.78	7124.2	
405.98	6607.4	
406.18	5371.8	
406.39	5922.7	
406.59	7092.8	
406.79	6681.8	
407	5013.4	
407.2	5027.1	
407.4	7182.2	
407.61	6979.5	
407.81	5134.3	
408.01	6722.8	
408.22	6255.9	
408.42	7844.4	
408.62	6371.2	
408.83	6092.7	
409.03	7224.6	
409.23	7238.2	
409.44	6335.1	
409.64	6484.6	
409.84	8281.3	
410.05	8285.4	
410.25	6617	
410.45	6405.4	
410.66	8010.3	
410.86	9770.9	
411.06	7056.6	
411.27	6834.1	
411.47	9864.4	
411.67	8315.4	
411.88	7161.1	
412.08	7531.7	
412.28	8840.4	
412.49	9205.6	
412.69	7203.4	
412.89	7227.3	
413.09	9130.5	
413.3	9075.9	
413.5	7309.9	
413.7	7086	
413.91	8600.1	
414.11	9191.3	
414.31	7204.8	
414.52	7701.7	
414.72	9054.8	
414.92	9017.9	
415.12	7236.8	
415.33	7690.1	
415.53	9429.5	
415.73	9480	
415.94	7970	
416.14	7532.4	
416.34	8627.4	
416.55	8401.5	
416.75	8495	
416.95	8062.2	
417.15	9506	
417.36	9727.2	
417.56	8807.6	
417.76	8118.1	
417.97	9703.3	
418.17	9676.7	
418.37	7811	
418.57	7915.4	
418.78	9643.9	
418.98	9182.4	
419.18	8483.4	
419.38	8441.7	
419.59	9187.9	
419.79	8876.6	
419.99	7646.4	
420.2	7806.9	
420.4	9509.4	
420.6	9559.2	
420.8	7457.3	
421.01	7481.2	
421.21	9538.1	
421.41	9549	
421.61	7925	
421.82	7660.1	
422.02	9073.9	
422.22	9740.1	
422.42	8288.1	
422.63	7752.2	
422.83	9140.8	
423.03	10064	
423.23	7845.1	
423.44	7109.2	
423.64	9121.7	
423.84	8720.9	
424.04	7475.1	
424.25	7161.1	
424.45	9620.7	
424.65	9472.5	
424.85	7010.9	
425.06	7434.1	
425.26	9726.5	
425.46	8797.4	
425.66	7618.4	
425.87	7540.6	
426.07	9357.2	
426.27	9064.3	
426.47	7580.9	
426.67	7114.6	
426.88	9583.1	
427.08	9177.6	
427.28	7805.5	
427.48	6928.3	
427.69	8251.3	
427.89	8731.9	
428.09	7643.7	
428.29	6999.3	
428.5	9200.2	
428.7	9031.5	
428.9	6991.8	
429.1	7201.3	
429.3	8906.6	
429.51	9149	
429.71	7098.3	
429.91	7823.9	
430.11	9288.9	
430.31	9430.2	
430.52	7578.2	
430.72	7813	
430.92	9667.8	
431.12	9353.8	
431.32	7393.8	
431.53	7556.3	
431.73	8489.5	
431.93	9654.1	
432.13	7162.4	
432.33	7148.1	
432.54	8819.2	
432.74	9106	
432.94	7165.8	
433.14	7938.6	
433.34	9412.5	
433.55	9174.9	
433.75	8015.7	
433.95	9362.6	
434.15	9174.9	
434.35	9061.6	
434.56	7458	
434.76	7264.8	
434.96	9343.5	
435.16	9643.2	
435.36	7428	
435.56	8387.1	
435.77	9193.3	
435.97	9353.1	
436.17	8929.1	
436.37	8238.3	
436.57	9176.3	
436.78	9226.1	
436.98	8138.6	
437.18	8767.4	
437.38	9825.5	
437.58	9459.6	
437.78	8809.7	
437.99	7821.2	
438.19	9615.9	
438.39	10142	
438.59	7718.8	
438.79	7195.2	
438.99	9985.9	
439.2	9017.2	
439.4	7148.8	
439.6	7132.4	
439.8	9176.3	
440	10063	
440.2	8247.2	
440.4	8290.9	
440.61	9910.1	
440.81	10415	
441.01	7957.7	
441.21	8742.8	
441.41	10678	
441.61	10099	
441.81	8961.2	
442.02	9695.8	
442.22	10763	
442.42	10217	
442.62	8089.5	
442.82	7943.4	
443.02	10476	
443.22	9779.7	
443.43	8457.4	
443.63	8101.8	
443.83	9695.1	
444.03	9716.9	
444.23	9184.5	
444.43	8841.1	
444.63	10148	
444.83	10847	
445.04	8542.8	
445.24	9372.2	
445.44	10258	
445.64	10479	
445.84	8673.1	
446.04	8697	
446.24	9614.5	
446.44	10432	
446.65	7813	
446.85	8336.6	
447.05	9564	
447.25	10267	
447.45	8354.3	
447.65	7901.1	
447.85	9764	
448.05	9295.7	
448.25	8616.5	
448.46	8546.2	
448.66	9786.6	
448.86	9520.3	
449.06	7771.4	
449.26	8654.7	
449.46	10163	
449.66	9347.6	
449.86	8495.7	
450.06	8246.5	
450.26	9553.1	
450.47	10036	
450.67	8413.1	
450.87	8812.4	
451.07	10178	
451.27	9991.4	
451.47	7983	
451.67	8523	
451.87	9677.3	
452.07	10408	
452.27	8353.7	
452.47	8102.4	
452.67	9835.7	
452.88	10275	
453.08	7636.9	
453.28	9167.4	
453.48	10882	
453.68	9692.4	
453.88	8148.2	
454.08	8224	
454.28	10204	
454.48	9878.7	
454.68	8675.2	
454.88	8961.9	
455.08	10350	
455.28	10192	
455.48	8024.6	
455.68	8787.8	
455.89	10832	
456.09	10600	
456.29	8415.8	
456.49	8657.4	
456.69	10869	
456.89	10008	
457.09	8982.4	
457.29	9329.2	
457.49	10582	
457.69	10707	
457.89	9096.4	
458.09	8521.6	
458.29	10598	
458.49	11166	
458.69	9430.2	
458.89	9047.2	
459.09	11392	
459.29	11494	
459.49	9086.8	
459.69	9798.8	
459.9	10946	
460.1	10733	
460.3	8881.4	
460.5	8873.8	
460.7	10933	
460.9	10660	
461.1	8485.4	
461.3	9655.5	
461.5	11607	
461.7	11303	
461.9	9301.2	
462.1	9417.9	
462.3	11172	
462.5	11402	
462.7	9393.3	
462.9	9424.1	
463.1	12217	
463.3	12282	
463.5	9658.9	
463.7	10602	
463.9	11461	
464.1	11856	
464.3	10070	
464.5	10056	
464.7	12004	
464.9	11948	
465.1	11230	
465.3	10476	
465.5	12191	
465.7	12353	
465.9	10696	
466.1	10245	
466.3	12344	
466.5	11903	
466.7	11453	
466.9	10380	
467.1	12218	
467.3	12829	
467.5	11400	
467.7	10476	
467.9	12960	
468.1	13668	
468.3	10983	
468.5	11487	
468.7	12362	
468.9	12162	
469.1	10783	
469.3	11517	
469.5	13878	
469.7	12147	
469.9	11028	
470.1	10718	
470.3	12476	
470.5	12495	
470.7	11574	
470.9	10630	
471.1	12217	
471.3	12336	
471.5	10551	
471.69	11962	
471.89	12060	
472.09	11536	
472.29	11114	
472.49	11056	
472.69	11784	
472.89	12338	
473.09	10373	
473.29	10226	
473.49	11773	
473.69	11737	
473.89	10957	
474.09	10387	
474.29	12702	
474.49	12473	
474.69	10920	
474.89	10366	
475.09	11910	
475.29	11702	
475.49	9943.6	
475.69	10219	
475.88	12844	
476.08	11957	
476.28	10009	
476.48	9991.4	
476.68	12094	
476.88	11946	
477.08	10019	
477.28	10238	
477.48	11491	
477.68	11936	
477.88	9681.4	
478.08	9864.4	
478.28	12276	
478.48	11572	
478.67	10141	
478.87	9596.1	
479.07	12341	
479.27	11728	
479.47	10079	
479.67	10273	
479.87	11992	
480.07	12426	
480.27	9686.2	
480.47	10832	
480.67	11636	
480.87	12205	
481.06	9836.4	
481.26	10578	
481.46	11844	
481.66	11649	
481.86	10162	
482.06	10918	
482.26	11418	
482.46	12005	
482.66	10001	
482.86	9772.9	
483.05	11792	
483.25	11201	
483.45	11865	
483.65	10155	
483.85	11325	
484.05	11680	
484.25	10455	
484.45	10964	
484.65	12239	
484.84	12455	
485.04	10256	
485.24	10123	
485.44	12575	
485.64	11464	
485.84	9767.4	
486.04	10729	
486.24	11678	
486.44	11963	
486.63	9654.1	
486.83	10360	
487.03	11792	
487.23	11826	
487.43	9891	
487.63	11632	
487.83	12060	
488.02	12631	
488.22	10812	
488.42	11229	
488.62	12593	
488.82	11913	
489.02	10399	
489.22	10512	
489.41	12561	
489.61	12282	
489.81	10247	
490.01	10292	
490.21	12556	
490.41	13108	
490.61	10389	
490.8	10461	
491	12307	
491.2	11749	
491.4	10712	
491.6	10215	
491.8	12021	
491.99	11991	
492.19	9757.9	
492.39	10019	
492.59	12263	
492.79	12334	
492.99	10757	
493.18	10176	
493.38	12601	
493.58	13355	
493.78	10975	
493.98	10679	
494.18	12596	
494.37	12260	
494.57	11329	
494.77	11266	
494.97	13008	
495.17	13347	
495.37	11061	
495.56	11439	
495.76	13455	
495.96	13305	
496.16	12241	
496.36	11473	
496.55	13555	
496.75	13273	
496.95	11632	
497.15	11615	
497.35	13337	
497.54	13325	
497.74	11480	
497.94	12675	
498.14	13940	
498.34	13859	
498.53	11308	
498.73	11792	
498.93	13117	
499.13	13628	
499.33	11916	
499.52	11938	
499.72	13585	
499.92	13709	
500.12	11619	
500.32	11911	
500.51	13876	
500.71	13699	
500.91	12458	
501.11	12155	
501.31	13760	
501.5	14048	
501.7	12689	
501.9	11940	
502.1	13437	
502.29	13820	
502.49	12316	
502.69	12382	
502.89	13731	
503.09	13636	
503.28	11331	
503.48	11352	
503.68	12940	
503.88	12986	
504.07	12001	
504.27	11581	
504.47	13269	
504.67	13159	
504.86	11973	
505.06	11626	
505.26	12941	
505.46	14031	
505.65	11518	
505.85	11564	
506.05	12663	
506.25	13069	
506.44	10693	
506.64	11452	
506.84	12394	
507.04	12912	
507.23	10859	
507.43	11330	
507.63	13763	
507.83	12520	
508.02	11184	
508.22	10867	
508.42	14010	
508.62	12300	
508.81	11021	
509.01	11416	
509.21	12037	
509.4	12404	
509.6	11110	
509.8	10650	
510	12284	
510.19	13305	
510.39	10584	
510.59	10719	
510.79	12323	
510.98	13250	
511.18	10892	
511.38	10886	
511.57	12930	
511.77	12702	
511.97	11260	
512.17	10548	
512.36	12737	
512.56	12532	
512.76	10505	
512.95	10313	
513.15	12750	
513.35	11682	
513.55	11131	
513.74	10586	
513.94	12622	
514.14	12285	
514.33	11335	
514.53	11138	
514.73	12321	
514.92	12384	
515.12	10712	
515.32	10678	
515.51	12499	
515.71	12882	
515.91	11906	
516.11	10645	
516.3	13675	
516.5	12314	
516.7	11125	
516.89	11498	
517.09	12261	
517.29	12280	
517.48	11213	
517.68	10740	
517.88	12069	
518.07	12593	
518.27	11305	
518.47	10445	
518.66	12847	
518.86	11934	
519.06	10230	
519.25	10610	
519.45	12184	
519.65	13300	
519.84	11174	
520.04	11652	
520.24	13508	
520.43	12739	
520.63	10831	
520.83	10771	
521.02	12026	
521.22	12514	
521.42	10894	
521.61	11158	
521.81	11964	
522.01	12147	
522.2	10655	
522.4	10502	
522.6	12566	
522.79	11624	
522.99	10735	
523.18	10299	
523.38	12566	
523.58	12604	
523.77	11903	
523.97	10512	
524.17	14132	
524.36	13513	
524.56	11537	
524.76	11174	
524.95	12782	
525.15	12550	
525.34	11163	
525.54	11262	
525.74	13160	
525.93	12423	
526.13	12297	
526.33	11587	
526.52	13603	
526.72	13134	
526.91	12351	
527.11	11777	
527.31	13493	
527.5	13867	
527.7	11679	
527.89	11110	
528.09	12830	
528.29	13474	
528.48	12088	
528.68	11761	
528.87	13536	
529.07	13467	
529.27	11744	
529.46	11543	
529.66	13448	
529.85	13796	
530.05	11472	
530.25	12058	
530.44	14440	
530.64	13267	
530.83	11544	
531.03	11843	
531.23	13532	
531.42	13359	
531.62	12362	
531.81	11650	
532.01	13782	
532.21	14014	
532.4	11761	
532.6	12114	
532.79	14666	
532.99	14177	
533.18	12283	
533.38	13003	
533.58	13854	
533.77	14303	
533.97	12374	
534.16	12918	
534.36	14453	
534.55	13718	
534.75	13035	
534.95	12450	
535.14	14518	
535.34	13807	
535.53	12181	
535.73	13566	
535.92	14931	
536.12	13800	
536.31	12153	
536.51	12876	
536.71	13950	
536.9	13731	
537.1	12072	
537.29	12243	
537.49	14295	
537.68	13622	
537.88	12576	
538.07	11828	
538.27	13867	
538.46	14496	
538.66	11773	
538.86	12355	
539.05	13867	
539.25	14173	
539.44	12600	
539.64	12205	
539.83	13799	
540.03	14468	
540.22	12076	
540.42	11955	
540.61	13812	
540.81	13888	
541	12224	
541.2	12773	
541.39	13358	
541.59	13728	
541.78	12572	
541.98	11752	
542.18	13110	
542.37	13107	
542.57	12020	
542.76	12413	
542.96	13146	
543.15	13440	
543.35	11983	
543.54	11400	
543.74	13478	
543.93	13246	
544.13	11626	
544.32	12358	
544.52	13381	
544.71	12774	
544.91	10933	
545.1	11788	
545.3	12848	
545.49	13280	
545.69	10879	
545.88	11391	
546.08	13962	
546.27	13586	
546.47	11665	
546.66	11125	
546.86	13413	
547.05	13753	
547.24	11148	
547.44	11243	
547.63	12563	
547.83	13446	
548.02	11415	
548.22	11575	
548.41	12313	
548.61	13334	
548.8	10945	
549	11002	
549.19	12794	
549.39	13108	
549.58	10692	
549.78	11047	
549.97	12997	
550.17	12530	
550.36	11697	
550.55	12428	
550.75	12367	
550.94	13188	
551.14	10793	
551.33	10983	
551.53	12044	
551.72	12784	
551.92	11027	
552.11	10769	
552.31	12826	
552.5	12748	
552.69	11992	
552.89	10493	
553.08	12652	
553.28	12468	
553.47	10834	
553.67	11591	
553.86	13095	
554.06	11840	
554.25	10129	
554.44	10553	
554.64	13575	
554.83	13208	
555.03	10478	
555.22	10659	
555.42	12750	
555.61	12531	
555.8	10568	
556	10694	
556.19	11796	
556.39	12628	
556.58	10641	
556.78	10563	
556.97	12316	
557.16	12025	
557.36	11527	
557.55	10232	
557.75	11496	
557.94	12941	
558.13	10357	
558.33	10071	
558.52	12700	
558.72	11751	
558.91	10291	
559.1	10283	
559.3	11554	
559.49	11351	
559.69	9846	
559.88	10565	
560.07	12179	
560.27	12384	
560.46	10730	
560.66	10808	
560.85	12101	
561.04	11261	
561.24	10122	
561.43	10080	
561.63	11486	
561.82	11617	
562.01	11061	
562.21	10344	
562.4	11967	
562.59	12557	
562.79	10226	
562.98	9965.4	
563.18	11923	
563.37	13062	
563.56	10609	
563.76	10034	
563.95	11652	
564.14	11639	
564.34	10441	
564.53	10163	
564.73	11928	
564.92	12144	
565.11	10373	
565.31	10036	
565.5	12370	
565.69	11504	
565.89	10139	
566.08	10374	
566.27	12241	
566.47	12671	
566.66	10883	
566.85	9905.3	
567.05	11999	
567.24	11574	
567.44	10159	
567.63	11094	
567.82	12151	
568.02	11874	
568.21	10113	
568.4	10301	
568.6	11867	
568.79	11728	
568.98	9958.6	
569.18	10181	
569.37	11959	
569.56	13411	
569.76	10494	
569.95	11055	
570.14	12235	
570.34	12071	
570.53	10056	
570.72	9992.7	
570.91	12528	
571.11	11913	
571.3	10378	
571.49	10956	
571.69	11956	
571.88	11485	
572.07	10725	
572.27	10658	
572.46	11602	
572.65	12196	
572.85	10120	
573.04	10406	
573.23	12476	
573.43	11957	
573.62	10092	
573.81	10421	
574	12134	
574.2	11856	
574.39	10435	
574.58	10400	
574.78	12750	
574.97	12141	
575.16	10808	
575.36	10926	
575.55	12534	
575.74	12611	
575.93	10130	
576.13	10970	
576.32	12037	
576.51	12486	
576.71	10615	
576.9	11525	
577.09	12712	
577.28	12374	
577.48	10728	
577.67	10116	
577.86	12080	
578.05	12383	
578.25	10595	
578.44	10665	
578.63	12097	
578.83	13090	
579.02	10150	
579.21	11439	
579.4	12286	
579.6	12218	
579.79	10702	
579.98	12327	
580.17	12519	
580.37	12668	
580.56	10365	
580.75	10921	
580.94	12898	
581.14	12820	
581.33	11181	
581.52	10404	
581.71	12508	
581.91	13047	
582.1	10187	
582.29	10743	
582.48	12319	
582.68	12278	
582.87	11107	
583.06	10794	
583.25	12482	
583.45	12096	
583.64	11340	
583.83	11843	
584.02	12134	
584.21	12482	
584.41	11221	
584.6	10658	
584.79	12268	
584.98	12853	
585.18	10385	
585.37	10295	
585.56	12111	
585.75	12643	
585.94	10441	
586.14	10968	
586.33	12860	
586.52	12241	
586.71	10697	
586.91	10494	
587.1	11604	
587.29	12383	
587.48	10346	
587.67	10356	
587.87	12122	
588.06	12131	
588.25	11187	
588.44	10654	
588.63	11869	
588.83	12280	
589.02	10266	
589.21	10043	
589.4	11540	
589.59	11529	
589.78	9239.8	
589.98	9421.3	
590.17	10868	
590.36	11160	
590.55	8675.9	
590.74	9186.5	
590.94	11843	
591.13	10777	
591.32	9069.1	
591.51	8654.7	
591.7	11130	
591.89	10812	
592.09	8855.4	
592.28	9237	
592.47	10363	
592.66	11888	
592.85	8938.7	
593.05	9083.4	
593.24	10774	
593.43	11442	
593.62	9222.7	
593.81	9514.2	
594	10869	
594.19	10974	
594.39	9065.7	
594.58	8962.6	
594.77	11043	
594.96	11609	
595.15	9007	
595.34	9419.3	
595.54	10914	
595.73	10343	
595.92	8402.8	
596.11	9197.4	
596.3	11252	
596.49	10415	
596.68	8923	
596.88	9352.4	
597.07	11013	
597.26	10243	
597.45	8707.3	
597.64	9680.1	
597.83	10477	
598.02	10976	
598.22	8811	
598.41	9149	
598.6	10715	
598.79	10243	
598.98	8714.8	
599.17	9346.9	
599.36	10740	
599.55	11459	
599.74	10187	
599.94	10089	
600.13	11142	
600.32	10212	
600.51	8606.9	
600.7	8742.1	
600.89	11558	
601.08	11635	
601.27	8515.5	
601.47	9193.3	
601.66	11017	
601.85	11492	
602.04	9062.3	
602.23	9097.1	
602.42	10384	
602.61	10788	
602.8	8854.1	
602.99	8708.6	
603.18	10483	
603.37	10740	
603.57	9178.3	
603.76	9581.1	
603.95	11194	
604.14	10866	
604.33	8877.9	
604.52	9129.2	
604.71	10777	
604.9	10386	
605.09	9443.9	
605.28	9280	
605.47	11158	
605.66	10827	
605.86	9166.7	
606.05	8882.7	
606.24	11123	
606.43	10004	
606.62	8991.3	
606.81	9464.3	
607	10897	
607.19	10494	
607.38	8609	
607.57	8673.8	
607.76	10232	
607.95	9734	
608.14	9082.7	
608.33	9498.5	
608.52	10333	
608.72	10940	
608.91	8447.9	
609.1	8372.8	
609.29	10238	
609.48	9922.4	
609.67	9004.2	
609.86	8396.7	
610.05	10008	
610.24	10155	
610.43	8305.9	
610.62	8005.5	
610.81	10940	
611	10816	
611.19	8385.1	
611.38	8834.9	
611.57	10297	
611.76	11344	
611.95	8229.4	
612.14	8073.1	
612.33	10264	
612.52	9886.2	
612.71	8649.3	
612.9	7947.5	
613.09	9519	
613.28	11316	
613.47	8417.8	
613.66	9012.4	
613.85	10293	
614.04	9830.2	
614.24	8340.7	
614.43	7827.3	
614.62	10307	
614.81	10309	
615	8739.4	
615.19	8732.5	
615.38	9784.5	
615.57	10103	
615.76	8720.3	
615.95	9367.4	
616.14	10402	
616.33	10253	
616.52	9013.1	
616.71	9047.9	
616.9	10340	
617.09	10171	
617.28	8473.8	
617.47	9303.2	
617.66	9758.6	
617.85	9741.5	
618.04	9141.4	
618.22	8672.5	
618.41	10013	
618.6	10787	
618.79	8755.1	
618.98	8619.2	
619.17	10978	
619.36	9657.5	
619.55	8619.9	
619.74	8742.8	
619.93	10399	
620.12	9995.5	
620.31	9093.7	
620.5	9245.2	
620.69	10955	
620.88	11267	
621.07	9787.2	
621.26	9140.1	
621.45	10757	
621.64	10660	
621.83	9306.7	
622.02	8613.1	
622.21	10694	
622.4	10574	
622.59	9566.1	
622.78	9389.3	
622.97	10223	
623.16	10985	
623.35	9196.7	
623.54	8528.4	
623.72	10426	
623.91	10528	
624.1	9340.8	
624.29	8432.9	
624.48	11299	
624.67	10740	
624.86	9286.2	
625.05	8587.8	
625.24	11396	
625.43	10268	
625.62	10471	
625.81	8755.1	
626	10948	
626.19	10466	
626.38	9254.8	
626.56	8901.2	
626.75	10303	
626.94	10810	
627.13	9275.9	
627.32	8454	
627.51	10784	
627.7	11616	
627.89	8413.1	
628.08	9305.3	
628.27	10045	
628.46	10220	
628.65	8563.9	
628.83	8310	
629.02	10601	
629.21	10022	
629.4	8940.7	
629.59	9010.4	
629.78	10027	
629.97	10714	
630.16	9091.6	
630.35	8704.5	
630.54	11203	
630.72	10882	
630.91	8688.2	
631.1	9006.3	
631.29	10461	
631.48	10545	
631.67	9193.3	
631.86	8680.7	
632.05	10272	
632.24	10287	
632.42	8452.6	
632.61	8811	
632.8	10193	
632.99	10023	
633.18	8970.8	
633.37	9123	
633.56	10436	
633.75	10342	
633.93	8993.3	
634.12	8697	
634.31	11028	
634.5	10712	
634.69	8841.1	
634.88	9075.2	
635.07	10228	
635.25	10749	
635.44	9327.1	
635.63	9532.6	
635.82	10136	
636.01	9633.6	
636.2	9270.5	
636.39	8851.3	
636.57	10953	
636.76	10624	
636.95	8475.9	
637.14	9459.6	
637.33	10544	
637.52	11077	
637.7	8406.2	
637.89	9082.1	
638.08	10182	
638.27	11153	
638.46	9102.5	
638.65	9307.3	
638.83	11055	
639.02	9988.6	
639.21	9000.8	
639.4	9259.5	
639.59	10371	
639.78	9935.4	
639.96	8391.9	
640.15	8411.7	
640.34	10134	
640.53	10071	
640.72	8271.7	
640.91	8313.4	
641.09	9684.2	
641.28	10541	
641.47	8359.8	
641.66	8976.9	
641.85	10045	
642.03	10246	
642.22	8727.8	
642.41	8353	
642.6	9678.7	
642.79	9223.4	
642.97	8243.1	
643.16	8578.3	
643.35	9544.2	
643.54	9402.2	
643.73	8004.8	
643.91	8615.1	
644.1	9264.3	
644.29	9837.8	
644.48	8016.4	
644.67	8028	
644.85	9392	
645.04	9673.2	
645.23	7601.4	
645.42	7890.8	
645.6	9235.7	
645.79	9983.8	
645.98	7690.8	
646.17	7123.5	
646.36	8787.2	
646.54	9212.4	
646.73	8139.3	
646.92	7299	
647.11	8860.2	
647.29	9658.2	
647.48	7383.6	
647.67	7133.8	
647.86	9893.1	
648.05	9764	
648.23	7594.6	
648.42	8449.2	
648.61	9381.7	
648.8	9176.9	
648.98	7258	
649.17	7573.4	
649.36	8818.6	
649.55	8410.3	
649.73	7311.2	
649.92	7849.9	
650.11	8808.3	
650.3	9112.1	
650.48	7406.1	
650.67	7303.7	
650.86	9099.8	
651.05	8307.9	
651.23	7344.7	
651.42	7242.3	
651.61	8815.8	
651.79	8718.9	
651.98	7526.3	
652.17	7186.3	
652.36	9026.1	
652.54	8420.6	
652.73	7221.8	
652.92	7109.2	
653.11	9017.2	
653.29	9017.2	
653.48	6621.8	
653.67	7290.1	
653.85	8809.7	
654.04	9626.8	
654.23	7435.5	
654.42	7088	
654.6	8377.6	
654.79	8818.6	
654.98	6558.3	
655.16	6984.3	
655.35	7920.2	
655.54	7787.1	
655.73	6492.1	
655.91	6479.1	
656.1	8542.8	
656.29	7755	
656.47	6206	
656.66	7525.6	
656.85	8189.8	
657.03	8125.7	
657.22	6780.1	
657.41	6750.8	
657.59	8303.8	
657.78	8146.1	
657.97	6552.8	
658.16	7021.8	
658.34	8820.6	
658.53	9117.6	
658.72	7736.5	
658.9	8118.1	
659.09	8375.5	
659.28	8484.1	
659.46	6905.8	
659.65	6784.2	
659.84	8213.7	
660.02	8692.9	
660.21	6856.6	
660.4	6746.7	
660.58	8979	
660.77	8557.8	
660.96	7247.1	
661.14	6561.7	
661.33	9288.2	
661.52	9236.3	
661.7	6607.4	
661.89	8876.6	
662.08	8170	
662.26	7754.3	
662.45	6633.4	
662.64	6775.4	
662.82	8755.1	
663.01	8054.7	
663.2	6704.4	
663.38	7327.6	
663.57	8577.6	
663.75	8484.7	
663.94	6961.7	
664.13	7883.3	
664.31	8092.2	
664.5	8651.3	
664.69	7262.8	
664.87	7544.7	
665.06	7961.8	
665.25	8464.3	
665.43	7669.6	
665.62	7633.5	
665.8	8602.2	
665.99	8106.5	
666.18	6938.5	
666.36	6916.7	
666.55	8642.4	
666.74	8462.2	
666.92	6649.8	
667.11	7656	
667.29	8253.3	
667.48	8480.6	
667.67	7492.2	
667.85	6772.6	
668.04	8159.8	
668.22	8037.6	
668.41	6924.9	
668.6	7147.4	
668.78	7944.1	
668.97	8150.2	
669.15	7167.9	
669.34	6457.9	
669.53	8076.5	
669.71	8246.5	
669.9	6505	
670.08	6982.9	
670.27	7918.1	
670.46	8475.2	
670.64	7234.8	
670.83	7374.1	
671.01	7830.7	
671.2	8257.4	
671.38	6664.1	
671.57	6480.5	
671.76	8846.5	
671.94	9172.2	
672.13	6397.9	
672.31	7265.5	
672.5	8573.5	
672.69	7905.8	
672.87	6584.2	
673.06	6823.1	
673.24	8391.2	
673.43	7989.8	
673.61	7019.8	
673.8	6737.8	
673.98	8496.3	
674.17	8551	
674.36	7163.1	
674.54	7116.7	
674.73	8203.5	
674.91	8548.9	
675.1	6881.2	
675.28	6544.6	
675.47	8077.9	
675.65	8441	
675.84	6711.2	
676.03	7075.7	
676.21	7950.9	
676.4	7546.1	
676.58	7322.2	
676.77	7154.2	
676.95	9062.9	
677.14	7906.5	
677.32	6479.1	
677.51	6354.2	
677.69	8553	
677.88	7707.9	
678.06	6394.4	
678.25	6497.5	
678.44	8152.3	
678.62	7935.2	
678.81	6249	
678.99	6999.3	
679.18	8677.2	
679.36	8326.4	
679.55	6687.3	
679.73	7022.5	
679.92	8313.4	
680.1	7892.2	
680.29	7468.9	
680.47	6651.8	
680.66	7873.1	
680.84	8496.3	
681.03	6161	
681.21	6890	
681.4	7928.4	
681.58	7771.4	
681.77	6466.1	
681.95	6380.8	
682.14	8458.8	
682.32	8702.5	
682.51	7148.1	
682.69	6229.9	
682.88	7787.1	
683.06	8216.5	
683.25	6927.6	
683.43	7109.9	
683.62	8088.1	
683.8	8312.7	
683.99	7197.2	
684.17	6784.9	
684.36	8892.3	
684.54	7870.3	
684.73	6113.2	
684.91	6137.1	
685.1	7942.7	
685.28	7436.2	
685.46	6440.2	
685.65	6406.7	
685.83	7845.8	
686.02	7399.3	
686.2	5917.3	
686.39	6018.3	
686.57	7331	
686.76	8352.3	
686.94	6053.8	
687.13	6190.3	
687.31	7954.3	
687.5	7637.6	
687.68	5750.7	
687.86	6541.9	
688.05	8882.7	
688.23	7135.1	
688.42	6709.1	
688.6	6161	
688.79	7499.7	
688.97	7524.2	
689.16	6513.9	
689.34	5750	
689.52	8021.9	
689.71	8283.4	
689.89	6731	
690.08	6153.5	
690.26	7817.8	
690.45	7578.2	
690.63	6830	
690.81	6384.2	
691	7660.8	
691.18	7503.1	
691.37	6382.8	
691.55	8017.1	
691.74	7434.8	
691.92	8893.6	
692.1	6316.6	
692.29	5978	
692.47	7583.6	
692.66	7045.7	
692.84	6094.8	
693.02	6492.1	
693.21	7182.2	
693.39	7537.2	
693.58	6578.1	
693.76	6157.6	
693.94	8444.5	
694.13	8260.8	
694.31	6227.9	
694.5	6948.8	
694.68	7485.3	
694.86	7818.5	
695.05	6487.3	
695.23	6683.9	
695.42	8162.5	
695.6	9771.5	
695.78	6898.9	
695.97	6300.2	
696.15	8174.8	
696.34	7585	
696.52	6122.7	
696.7	6746	
696.89	7874.4	
697.07	7393.8	
697.25	6584.9	
697.44	7623.9	
697.62	7794.6	
697.81	7993.2	
697.99	6386.2	
698.17	6654.5	
698.36	7333.8	
698.54	7819.1	
698.72	6597.2	
698.91	5857.9	
699.09	7531.1	
699.28	7340.6	
699.46	6301.6	
699.64	6227.9	
699.83	7423.2	
700.01	8152.3	
700.19	6735.1	
700.38	5616.2	
700.56	8242.4	
700.74	7455.3	
700.93	5908.4	
701.11	6511.9	
701.29	7951.6	
701.48	8664.3	
701.66	6137.1	
701.84	6247	
702.03	7547.4	
702.21	8037.6	
702.39	5907.7	
702.58	6295.5	
702.76	7927	
702.94	7873.8	
703.13	5907.7	
703.31	7663.5	
703.49	7427.3	
703.68	8118.8	
703.86	6014.2	
704.04	6779.5	
704.23	7736.5	
704.41	8000	
704.59	6162.3	
704.78	7008.8	
704.96	9004.2	
705.14	7966.6	
705.33	6018.3	
705.51	6488.6	
705.69	7520.8	
705.87	8181	
706.06	6728.9	
706.24	5949.3	
706.42	7738.6	
706.61	8039	
706.79	6789	
706.97	5978	
707.16	7407.5	
707.34	7867.6	
707.52	6687.3	
707.7	6096.8	
707.89	7417.1	
708.07	7260.7	
708.25	6771.3	
708.44	6744	
708.62	7331	
708.8	8290.9	
708.98	6972	
709.17	6099.5	
709.35	7714.7	
709.53	7697.6	
709.72	5866.1	
709.9	6161.7	
710.08	7894.9	
710.26	7961.8	
710.45	7010.9	
710.63	6144.6	
710.81	7636.9	
710.99	7669.6	
711.18	6522.1	
711.36	6213.5	
711.54	7394.5	
711.72	7902.4	
711.91	6216.3	
712.09	5838.8	
712.27	7561.8	
712.45	7983	
712.64	6354.2	
712.82	5569.8	
713	7020.4	
713.18	7191.1	
713.37	5602.6	
713.55	6453.1	
713.73	7843	
713.91	6711.9	
714.1	5735	
714.28	5322.7	
714.46	7332.4	
714.64	6663.4	
714.83	4808.6	
715.01	5285.8	
715.19	6594.5	
715.37	6071.5	
715.55	5033.2	
715.74	5229.8	
715.92	7184.3	
716.1	5678.3	
716.28	6023.1	
716.47	5310.4	
716.65	6268.1	
716.83	6206.7	
717.01	5122.7	
717.19	5154.1	
717.38	7767.3	
717.56	5991	
717.74	5298.1	
717.92	4717.2	
718.1	6924.2	
718.29	6279.1	
718.47	4451.6	
718.65	5086.5	
718.83	6978.8	
719.01	6952.9	
719.2	4566.3	
719.38	5386.8	
719.56	6707.8	
719.74	7871	
719.92	5144.5	
720.11	5831.9	
720.29	6827.2	
720.47	6203.3	
720.65	4724	
720.83	5276.3	
721.02	6325.5	
721.2	6103.6	
721.38	5233.9	
721.56	4750.6	
721.74	5653.1	
721.92	5793	
722.11	5536.3	
722.29	5296	
722.47	6746.7	
722.65	6081.8	
722.83	4715.8	
723.01	5337.7	
723.2	6200.6	
723.38	6466.1	
723.56	4257	
723.74	5063.9	
723.92	5866.7	
724.1	6647	
724.29	4591.5	
724.47	5415.5	
724.65	5918.6	
724.83	5805.3	
725.01	4501.4	
725.19	5163.6	
725.37	5803.3	
725.56	5848.3	
725.74	4456.4	
725.92	4648.2	
726.1	5788.9	
726.28	6014.9	
726.46	4848.9	
726.64	4671.4	
726.83	6032.6	
727.01	6141.2	
727.19	4437.3	
727.37	4994.3	
727.55	6133	
727.73	6528.9	
727.91	4374.5	
728.09	4313	
728.28	6484.6	
728.46	6696.2	
728.64	5048.2	
728.82	5068.7	
729	7241.6	
729.18	6742.6	
729.36	4526	
729.54	6113.2	
729.72	7467.6	
729.91	6279.8	
730.09	5943.2	
730.27	5107.6	
730.45	6158.9	
730.63	6623.8	
730.81	5495.4	
730.99	4823.6	
731.17	7082.6	
731.35	5963.7	
731.53	5199.1	
731.71	4868.7	
731.9	6854.6	
732.08	6857.3	
732.26	5016.2	
732.44	4814.8	
732.62	6964.5	
732.8	6637.5	
732.98	5348.6	
733.16	4642.7	
733.34	6638.8	
733.52	5637.4	
733.7	4924	
733.88	5146.5	
734.07	6482.5	
734.25	6275.7	
734.43	4646.2	
734.61	5690.6	
734.79	7341.3	
734.97	6152.1	
735.15	4693.3	
735.33	4990.9	
735.51	6458.6	
735.69	6178.7	
735.87	5702.2	
736.05	5025.7	
736.23	6232	
736.41	6109.8	
736.59	4922.6	
736.77	5067.4	
736.95	6681.2	
737.13	6242.2	
737.32	4694.6	
737.5	4847.5	
737.68	7027.9	
737.86	6112.5	
738.04	4573.8	
738.22	5881.8	
738.4	5957.5	
738.58	6148.7	
738.76	4984.8	
738.94	4221.5	
739.12	6068.1	
739.3	5995.8	
739.48	5447.6	
739.66	5136.3	
739.84	6162.3	
740.02	6156.9	
740.2	4354.7	
740.38	4535.6	
740.56	6493.4	
740.74	5581.4	
740.92	4992.9	
741.1	4866.7	
741.28	5999.2	
741.46	5844.9	
741.64	4639.3	
741.82	4960.9	
742	6140.5	
742.18	6039.5	
742.36	4816.8	
742.54	4489.8	
742.72	6496.2	
742.9	5507.7	
743.08	5007.3	
743.26	4157.4	
743.44	6543.3	
743.62	6376	
743.8	5220.3	
743.98	4481.6	
744.16	6220.4	
744.34	5941.8	
744.52	4982	
744.7	4989.5	
744.88	6315.3	
745.06	5939.1	
745.24	5088.5	
745.42	5042.1	
745.6	6328.9	
745.78	6231.3	
745.96	4233.8	
746.14	4404.5	
746.32	6950.1	
746.5	6268.8	
746.68	4752.7	
746.86	4396.3	
747.03	6537.8	
747.21	5377.3	
747.39	4749.9	
747.57	4302.8	
747.75	5948.7	
747.93	6229.2	
748.11	4345.1	
748.29	4294.6	
748.47	7207.5	
748.65	5805.3	
748.83	4825.7	
749.01	4749.2	
749.19	6138.4	
749.37	5449.6	
749.55	4603.8	
749.73	4672.1	
749.91	5932.3	
750.09	5689.3	
750.26	4614.8	
750.44	4223.6	
750.62	5849.7	
750.8	5840.8	
750.98	4125.3	
751.16	4379.2	
751.34	6003.3	
751.52	5453.7	
751.7	4911	
751.88	4079.6	
752.06	6253.8	
752.24	5990.3	
752.42	4072	
752.59	4295.3	
752.77	5797.1	
752.95	6701.6	
753.13	4827.7	
753.31	4378.6	
753.49	5558.9	
753.67	5892.7	
753.85	4569	
754.03	4237.9	
754.21	6053.1	
754.38	6342.6	
754.56	4302.8	
754.74	3615.3	
754.92	5419.6	
755.1	5820.3	
755.28	3570.3	
755.46	3623.5	
755.64	6487.3	
755.82	6507.8	
755.99	3768.9	
756.17	3773.7	
756.35	4563.6	
756.53	5644.9	
756.71	2869.9	
756.89	3523.2	
757.07	5330.9	
757.25	4749.9	
757.42	3946.4	
757.6	4603.8	
757.78	5418.2	
757.96	4705.5	
758.14	3769.6	
758.32	3422.8	
758.5	4431.1	
758.67	5051.7	
758.85	3588	
759.03	3680.9	
759.21	5158.2	
759.39	4745.8	
759.57	3295.9	
759.75	4124.6	
759.92	5709.1	
760.1	5234.6	
760.28	4432.5	
760.46	4694.6	
760.64	4968.4	
760.82	4818.9	
760.99	4384.7	
761.17	3728.7	
761.35	5595.7	
761.53	4816.1	
761.71	3905.5	
761.89	4338.3	
762.06	5482.4	
762.24	5125.4	
762.42	3916.4	
762.6	3705.5	
762.78	5118.6	
762.96	5614.2	
763.13	4236.6	
763.31	3891.8	
763.49	5672.9	
763.67	5122	
763.85	4500.8	
764.02	4978.6	
764.2	5937.1	
764.38	5283.8	
764.56	3857.7	
764.74	4483	
764.91	5977.3	
765.09	5156.8	
765.27	3687.7	
765.45	3502.7	
765.63	6084.5	
765.8	5850.4	
765.98	3349.8	
766.16	3523.2	
766.34	4863.2	
766.52	4659.8	
766.69	4230.4	
766.87	3435.8	
767.05	5176.6	
767.23	5717.2	
767.41	3681.6	
767.58	3794.9	
767.76	5533.6	
767.94	5610.1	
768.12	3754.6	
768.29	4163.5	
768.47	5061.9	
768.65	5734.3	
768.83	3437.9	
769	4256.4	
769.18	4810	
769.36	5327.4	
769.54	4213.4	
769.72	3455.6	
769.89	5634.6	
770.07	5605.3	
770.25	3686.3	
770.43	4603.8	
770.6	6130.3	
770.78	6410.1	
770.96	3831.7	
771.14	4229.7	
771.31	5529.5	
771.49	5042.8	
771.67	3195.5	
771.85	3377.1	
772.02	4482.3	
772.2	5029.1	
772.38	3954.6	
772.55	3490.4	
772.73	5205.3	
772.91	5019.6	
773.09	3794.9	
773.26	3821.5	
773.44	5165.7	
773.62	4943.8	
773.8	3435.1	
773.97	3227.6	
774.15	5188.9	
774.33	4933.6	
774.5	3360	
774.68	3599.6	
774.86	5280.3	
775.04	4961.5	
775.21	3420.8	
775.39	3358	
775.57	5100.1	
775.74	5430.5	
775.92	3302	
776.1	3196.2	
776.27	5065.3	
776.45	5971.2	
776.63	3396.2	
776.81	3069.2	
776.98	4827.1	
777.16	5554.1	
777.34	3464.5	
777.51	3684.3	
777.69	4842.1	
777.87	4670.1	
778.04	3525.2	
778.22	3904.1	
778.4	4679.6	
778.57	5151.3	
778.75	2990.7	
778.93	3200.3	
779.1	4558.1	
779.28	4384	
779.46	2988.7	
779.64	3304.7	
779.81	5291.3	
779.99	5907.7	
780.17	3892.5	
780.34	3960.1	
780.52	4921.3	
780.69	4990.9	
780.87	3565.5	
781.05	3254.9	
781.22	4922.6	
781.4	4935.6	
781.58	3336.8	
781.75	2721.8	
781.93	4974.5	
782.11	4401.1	
782.28	4022.9	
782.46	3345.7	
782.64	4359.4	
782.81	5037.3	
782.99	3424.2	
783.17	3335.5	
783.34	4975.9	
783.52	4481	
783.69	3528.7	
783.87	4107.5	
784.05	4489.8	
784.22	4459.1	
784.4	4114.4	
784.58	3612.6	
784.75	5206.6	
784.93	4584.7	
785.1	3325.2	
785.28	3766.9	
785.46	4984.8	
785.63	4493.2	
785.81	3317	
785.99	3258.3	
786.16	4689.2	
786.34	4833.9	
786.51	3245.3	
786.69	3504.1	
786.87	4285.7	
787.04	4703.5	
787.22	3186	
787.39	3854.3	
787.57	4484.4	
787.75	5207.3	
787.92	4014.7	
788.1	3864.5	
788.27	4423.6	
788.45	4247.5	
788.63	3695.9	
788.8	2759.3	
788.98	4797	
789.15	4169	
789.33	2842.6	
789.5	3303.4	
789.68	5184.1	
789.86	5238	
790.03	3652.2	
790.21	3241.3	
790.38	5239.4	
790.56	4582.7	
790.73	3121.8	
790.91	3097.2	
791.09	4482.3	
791.26	4972.5	
791.44	3367.5	
791.61	2910.2	
791.79	4448.2	
791.96	4473.4	
792.14	2982.5	
792.32	2723.8	
792.49	4430.4	
792.67	4555.4	
792.84	3061	
793.02	2866.5	
793.19	4776.5	
793.37	5329.5	
793.54	2686.3	
793.72	2969.6	
793.89	5369.1	
794.07	4442.7	
794.25	3325.2	
794.42	2758.6	
794.6	5210.7	
794.77	4926	
794.95	3635.1	
795.12	3140.9	
795.3	4515.8	
795.47	4898.1	
795.65	3493.2	
795.82	3330.7	
796	4364.9	
796.17	5692.7	
796.35	3240.6	
796.52	3721.8	
796.7	4886.5	
796.87	4883.7	
797.05	3271.3	
797.22	3808.5	
797.4	4931.5	
797.57	5625.1	
797.75	3351.8	
797.92	3141.6	
798.1	5141.1	
798.27	4341	
798.45	2775.7	
798.62	2895.1	
798.8	4647.5	
798.97	5040.1	
799.15	3510.2	
799.32	3366.9	
799.5	4127.3	
799.67	4713.7	
799.85	3567.6	
800.02	2701.3	
800.2	4351.9	
800.37	4599.7	
800.55	3717.7	
800.72	3135.4	
800.9	4985.4	
801.07	5319.9	
801.25	4190.1	
801.42	3478.1	
801.6	5085.8	
801.77	4727.4	
801.95	3219.4	
802.12	3076	
802.29	4870.1	
802.47	4757.4	
802.64	3477.5	
802.82	2706	
802.99	4419.5	
803.17	5174.5	
803.34	3349.8	
803.52	3037.1	
803.69	5595.7	
803.87	4272.7	
804.04	3327.3	
804.21	3364.1	
804.39	5294.7	
804.56	4521.9	
804.74	2867.8	
804.91	3444.7	
805.09	4479.6	
805.26	4459.8	
805.44	2959.3	
805.61	3185.3	
805.78	4930.8	
805.96	4929.5	
806.13	3435.1	
806.31	3691.1	
806.48	4105.5	
806.66	4453.6	
806.83	3472.7	
807	3324.5	
807.18	4449.6	
807.35	4635.9	
807.53	3354.6	
807.7	2806.4	
807.87	5313.8	
808.05	4457.7	
808.22	3640.6	
808.4	2782.5	
808.57	4410	
808.74	4186.7	
808.92	3128.6	
809.09	3870.7	
809.27	4459.1	
809.44	4777.2	
809.61	2790	
809.79	3001.6	
809.96	5422.3	
810.14	4986.8	
810.31	2757.9	
810.48	3275.4	
810.66	4481.6	
810.83	4990.2	
811.01	3115	
811.18	3378.5	
811.35	4984.8	
811.53	3981.3	
811.7	3702.7	
811.87	3392.8	
812.05	4585.4	
812.22	4397.7	
812.39	3062.4	
812.57	2911.5	
812.74	4519.9	
812.92	5685.8	
813.09	3236.5	
813.26	3493.8	
813.44	5501.5	
813.61	4389.5	
813.78	2753.2	
813.96	3536.2	
814.13	4518.5	
814.3	4260.5	
814.48	3787.4	
814.65	3168.2	
814.82	5217.5	
815	4189.5	
815.17	3295.2	
815.34	3930.1	
815.52	4424.3	
815.69	4389.5	
815.87	3251.5	
816.04	3204.4	
816.21	4439.3	
816.38	4014.7	
816.56	3183.9	
816.73	3054.9	
816.9	5500.2	
817.08	4960.9	
817.25	3032.4	
817.42	3663.8	
817.6	4120.5	
817.77	4405.9	
817.94	3368.9	
818.12	2968.2	
818.29	4280.9	
818.46	6102.9	
818.64	3151.1	
818.81	2938.2	
818.98	4226.3	
819.16	5756.2	
819.33	3558	
819.5	3326.6	
819.67	4689.8	
819.85	5195	
820.02	3275.4	
820.19	3459	
820.37	4601.1	
820.54	4316.4	
820.71	3312.9	
820.88	4089.8	
821.06	4621.6	
821.23	4244.8	
821.4	3385.3	
821.58	3314.3	
821.75	4970.4	
821.92	4583.4	
822.09	2798.9	
822.27	2818	
822.44	4474.1	
822.61	4359.4	
822.79	2788.7	
822.96	5015.5	
823.13	4711.7	
823.3	4235.9	
823.48	3125.2	
823.65	2874.7	
823.82	4939.7	
823.99	4107.5	
824.17	3893.9	
824.34	2985.3	
824.51	5614.2	
824.68	4522.6	
824.86	2999.6	
825.03	3365.5	
825.2	4500.8	
825.37	5265.3	
825.55	3001	
825.72	3283.6	
825.89	5657.9	
826.06	5272.8	
826.24	3245.3	
826.41	3217.4	
826.58	5265.3	
826.75	4686.4	
826.92	2664.4	
827.1	2889	
827.27	6907.8	
827.44	5609.4	
827.61	3077.4	
827.79	3671.3	
827.96	4268	
828.13	4487.8	
828.3	3216	
828.47	2773.6	
828.65	4692.6	
828.82	4627	
828.99	3997.6	
829.16	3563.5	
829.34	4999.8	
829.51	4811.4	
829.68	3306.8	
829.85	3345.7	
830.02	5251.7	
830.2	4967.7	
830.37	2603.7	
830.54	3887.7	
830.71	5551.4	
830.88	4479.6	
831.05	2624.1	
831.23	3019.4	
831.4	5398.4	
831.57	5881.8	
831.74	3079.5	
831.91	2692.4	
832.09	4764.9	
832.26	4974.5	
832.43	3171.6	
832.6	3507.5	
832.77	4668.7	
832.94	5244.8	
833.12	2572.9	
833.29	3106.8	
833.46	4394.3	
833.63	6025.8	
833.8	3453.6	
833.97	3194.8	
834.15	4969.7	
834.32	4863.9	
834.49	3293.1	
834.66	3302	
834.83	5102.2	
835	4347.2	
835.17	3035.1	
835.35	3083.6	
835.52	4913.8	
835.69	4827.1	
835.86	3241.9	
836.03	2697.2	
836.2	5012.1	
836.37	4648.2	
836.55	3136.1	
836.72	2955.2	
836.89	4655.7	
837.06	5035.3	
837.23	3197.6	
837.4	3469.3	
837.57	5573.9	
837.75	6002.6	
837.92	2910.2	
838.09	3053.5	
838.26	4598.4	
838.43	5115.8	
838.6	3249.4	
838.77	2988.7	
838.94	5703.6	
839.11	5577.3	
839.29	3173.7	
839.46	2576.3	
839.63	4969.1	
839.8	4752	
839.97	3099.9	
840.14	3076	
840.31	4776.5	
840.48	4960.9	
840.65	2565.4	
840.82	3031.7	
841	4934.9	
841.17	4855.1	
841.34	2852.1	
841.51	2908.1	
841.68	4951.3	
841.85	4748.6	
842.02	2948.4	
842.19	2512.2	
842.36	4816.8	
842.53	4726.7	
842.7	2816	
842.87	3442.6	
843.05	6008.1	
843.22	4709.6	
843.39	2687.6	
843.56	2957.3	
843.73	4552.6	
843.9	4995	
844.07	4431.8	
844.24	3707.5	
844.41	6728.9	
844.58	4355.3	
844.75	2754.5	
844.92	2988	
845.09	4908.3	
845.26	4863.9	
845.43	2812.5	
845.6	3003	
845.77	4988.2	
845.94	4729.4	
846.12	3103.4	
846.29	3250.8	
846.46	5174.5	
846.63	4894.6	
846.8	2842.6	
846.97	3321.1	
847.14	5246.2	
847.31	4866.7	
847.48	3179.8	
847.65	3437.9	
847.82	5129.5	
847.99	5055.8	
848.16	3705.5	
848.33	3424.2	
848.5	4581.3	
848.67	5246.2	
848.84	2782.5	
849.01	2958.6	
849.18	4553.3	
849.35	4295.3	
849.52	3465.2	
849.69	2764.8	
849.86	5132.2	
850.03	5227.8	
850.2	2816	
850.37	3366.2	
850.54	5150.6	
850.71	4682.3	
850.88	3347.1	
851.05	2762.7	
851.22	4828.4	
851.39	5367	
851.56	2698.5	
851.73	3185.3	
851.9	4400.4	
852.07	5127.4	
852.24	3095.2	
852.41	2797.5	
852.58	4857.8	
852.75	4407.2	
852.92	3127.2	
853.09	2768.9	
853.26	4547.9	
853.43	5233.9	
853.6	2862.4	
853.77	2449.4	
853.94	5403.9	
854.11	4384	
854.28	4006.5	
854.44	3028.9	
854.61	5633.3	
854.78	5131.5	
854.95	2826.9	
855.12	3549.8	
855.29	4088.4	
855.46	5513.1	
855.63	2865.8	
855.8	3781.9	
855.97	4567.7	
856.14	5185.5	
856.31	3875.4	
856.48	3054.2	
856.65	4651.6	
856.82	4368.3	
856.99	2748.4	
857.16	2992.8	
857.33	5827.8	
857.49	4691.9	
857.66	3037.1	
857.83	3250.1	
858	4657.8	
858.17	4773.8	
858.34	2695.8	
858.51	2819.4	
858.68	5387.5	
858.85	5354.1	
859.02	3197.6	
859.19	3458.3	
859.36	4376.5	
859.52	4420.2	
859.69	2800.9	
859.86	3280.2	
860.03	4458.4	
860.2	5322.7	
860.37	2651.4	
860.54	2887.6	
860.71	5025	
860.88	5393.7	
861.05	3160.7	
861.21	3487	
861.38	5388.2	
861.55	4268	
861.72	2598.2	
861.89	3149.8	
862.06	5163.6	
862.23	5449.6	
862.4	2770.9	
862.56	2934.1	
862.73	4947.9	
862.9	4789.5	
863.07	3276.1	
863.24	2590	
863.41	4346.5	
863.58	4403.1	
863.75	2871.3	
863.91	3229.6	
864.08	5305.6	
864.25	5024.3	
864.42	3441.3	
864.59	3916.4	
864.76	5606	
864.93	4436.6	
865.09	2785.9	
865.26	3041.2	
865.43	5270.1	
865.6	5628.5	
865.77	2454.8	
865.94	2794.1	
866.1	5294.7	
866.27	5012.7	
866.44	4040.6	
866.61	2742.2	
866.78	4715.1	
866.95	5056.4	
867.11	2756.6	
867.28	2568.2	
867.45	5203.9	
867.62	4485.1	
867.79	3226.9	
867.96	2809.1	
868.12	4356.7	
868.29	5084.4	
868.46	2800.9	
868.63	3661.1	
868.8	5179.3	
868.97	4980	
869.13	2962.7	
869.3	2947.7	
869.47	4932.9	
869.64	5167	
869.81	2814.6	
869.97	2895.8	
870.14	4870.1	
870.31	5386.8	
870.48	2747	
870.65	3468.6	
870.81	4661.9	
870.98	4685.8	
871.15	3229	
871.32	2924.5	
871.48	4970.4	
871.65	5435.3	
871.82	2770.9	
871.99	3016	
872.16	5737	
872.32	5212.8	
872.49	2865.1	
872.66	2882.2	
872.83	5078.3	
872.99	4536.3	
873.16	3231	
873.33	2811.9	
873.5	4760.8	
873.67	4833.9	
873.83	3002.3	
874	3639.9	
874.17	4891.2	
874.34	5616.9	
874.5	3579.8	
874.67	3396.9	
874.84	5351.3	
875.01	4293.9	
875.17	3843.4	
875.34	2820.1	
875.51	4826.4	
875.68	5760.3	
875.84	3334.1	
876.01	3928	
876.18	5069.4	
876.34	5021.6	
876.51	2833	
876.68	2804.4	
876.85	4653.7	
877.01	5334.3	
877.18	3879.5	
877.35	2808.4	
877.52	4829.1	
877.68	4377.9	
877.85	2757.9	
878.02	2798.9	
878.18	4668	
878.35	4559.5	
878.52	2266.4	
878.69	3098.6	
878.85	5131.5	
879.02	4988.2	
879.19	3898.6	
879.35	3024.2	
879.52	5028.4	
879.69	5158.8	
879.86	2508.1	
880.02	3135.4	
880.19	4759.5	
880.36	5629.9	
880.52	3144.3	
880.69	3278.1	
880.86	5160.9	
881.02	5154.1	
881.19	3121.1	
881.36	3009.1	
881.52	5094	
881.69	4511.7	
881.86	3034.4	
882.02	2966.1	
882.19	5248.3	
882.36	5941.2	
882.52	2839.2	
882.69	3848.8	
882.86	4865.3	
883.02	4823.6	
883.19	3341.6	
883.36	3153.2	
883.52	5126.7	
883.69	5745.2	
883.86	2895.1	
884.02	2590.7	
884.19	5020.9	
884.36	4802.5	
884.52	3175	
884.69	3018.7	
884.86	4605.2	
885.02	5491.3	
885.19	3119.1	
885.36	3196.2	
885.52	4672.1	
885.69	4852.3	
885.86	3948.5	
886.02	3544.4	
886.19	5068.7	
886.35	4577.2	
886.52	3104.7	
886.69	3820.8	
886.85	4419.5	
887.02	5318.6	
887.19	5318.6	
887.35	5318.6	
887.52	5318.6	
887.68	5318.6	
887.85	5318.6	
888.02	5318.6	
888.18	5318.6	
888.35	5318.6	
888.51	5318.6	
888.68	5318.6	
888.85	5318.6	
889.01	5318.6	
889.18	5318.6	
889.35	5318.6	
889.51	5318.6	
889.68	5318.6	
889.84	5318.6	
890.01	5318.6	
890.17	5318.6	
890.34	5318.6	
890.51	5318.6	
890.67	5318.6	
890.84	5318.6	
891	5318.6	
891.17	5318.6	
891.34	5318.6	
891.5	5318.6	
891.67	5318.6	
891.83	5318.6	
892	5318.6	
892.16	5318.6	
892.33	5318.6	
892.5	5318.6	
892.66	5318.6	
892.83	5318.6	
892.99	5318.6	
893.16	5318.6	
893.32	5318.6	
893.49	5318.6	
893.65	5318.6	
893.82	5318.6	
893.99	5318.6	
894.15	5318.6	
894.32	5318.6	
894.48	5318.6	
894.65	5318.6	
894.81	5318.6	
894.98	5318.6	
895.14	5318.6	
895.31	5318.6	
895.47	5318.6	
895.64	5318.6	
895.81	5318.6	
895.97	5318.6	
896.14	5318.6	
896.3	5318.6	
896.47	5318.6	
896.63	5318.6	
896.8	5318.6	
896.96	5318.6	
897.13	5318.6	
897.29	5318.6	
897.46	5318.6	
897.62	5318.6	
897.79	5318.6	
897.95	5318.6	
898.12	5318.6	
898.28	5318.6	
898.45	5318.6	
898.61	5318.6	
898.78	5318.6	
898.94	5318.6	
899.11	5318.6	
899.27	5318.6	
899.44	5318.6	
899.6	5318.6	
899.77	5318.6	
899.93	5318.6	
900.1	5318.6	
900.26	5318.6	
900.43	5318.6	
900.59	5318.6	
900.76	5318.6	
900.92	5318.6	
901.09	5318.6	
901.25	5318.6	
901.42	5318.6	
901.58	5318.6	
901.75	5318.6	
901.91	5318.6	
902.07	5318.6	
902.24	5318.6	
902.4	5318.6	
902.57	5318.6	
902.73	5318.6	
902.9	5318.6	
903.06	5318.6	
903.23	5318.6	
903.39	5318.6	
903.56	5318.6	
903.72	5318.6	
903.88	5318.6	
904.05	5318.6	
904.21	5318.6	
904.38	5318.6	
904.54	5318.6	
904.71	5318.6	
904.87	5318.6	
905.03	5318.6	
905.2	5318.6	
905.36	5318.6	
905.53	5318.6	
905.69	5318.6	
905.86	5318.6	
906.02	5318.6	
906.18	5318.6	
906.35	5318.6	
906.51	5318.6	
906.68	5318.6	
906.84	5318.6	
907.01	5318.6	
907.17	5318.6	
907.33	5318.6	
907.5	5318.6	
907.66	5318.6	
907.83	5318.6	
907.99	5318.6	
908.15	5318.6	
908.32	5318.6	
908.48	5318.6	
908.65	5318.6	
908.81	5318.6	
908.97	5318.6	
909.14	5318.6	
909.3	5318.6	
909.47	5318.6	
909.63	5318.6	
909.79	5318.6	
909.96	5318.6	
910.12	5318.6	
910.28	5318.6	
910.45	5318.6	
910.61	5318.6	
910.78	5318.6	
910.94	5318.6	
911.1	5318.6	
911.27	5318.6	
911.43	5318.6	
911.59	5318.6	
911.76	5318.6	
911.92	5318.6	
912.08	5318.6	
912.25	5318.6	
912.41	5318.6	
912.57	5318.6	
912.74	5318.6	
912.9	5318.6	
913.07	5318.6	
913.23	5318.6	
913.39	5318.6	
913.56	5318.6	
913.72	5318.6	
913.88	5318.6	
914.05	5318.6	
914.21	5318.6	
914.37	5318.6	
914.54	5318.6	
914.7	5318.6	
914.86	5318.6	
915.03	5318.6	
915.19	5318.6	
