Wavelength	Intensities	
nm	a.u.	
179.22	1913.7	
179.44	1908.4	
179.65	1918.9	
179.86	1897.8	
180.08	1915.5	
180.29	5066.7	
180.51	3609.2	
180.72	5741.1	
180.94	6780.8	
181.15	3259	
181.37	3195.5	
181.58	5636	
181.79	5879	
182.01	3429.7	
182.22	3695.9	
182.44	5890	
182.65	4891.9	
182.87	4663.2	
183.08	4120.5	
183.29	6113.9	
183.51	5097.4	
183.72	3776.5	
183.94	5476.3	
184.15	5405.3	
184.37	5465.3	
184.58	3260.4	
184.79	4567.7	
185.01	5033.2	
185.22	5841.5	
185.44	4739.7	
185.65	4039.3	
185.86	5375.9	
186.08	5011.4	
186.29	3195.5	
186.51	3482.2	
186.72	5103.5	
186.94	6048.3	
187.15	3947.1	
187.36	4152.6	
187.58	7864.9	
187.79	5579.3	
188.01	4304.1	
188.22	6625.9	
188.43	6697.5	
188.65	5763	
188.86	3434.4	
189.08	4016.7	
189.29	5241.4	
189.5	5281	
189.72	3754.6	
189.93	3915.7	
190.15	6026.5	
190.36	7290.1	
190.57	4166.3	
190.79	4123.9	
191	6210.8	
191.22	6048.3	
191.43	4186	
191.64	3375.7	
191.86	6387.6	
192.07	6100.2	
192.29	3616	
192.5	3800.3	
192.71	6088.6	
192.93	5204.6	
193.14	3773.7	
193.35	3881.6	
193.57	5266	
193.78	6037.4	
194	3007.8	
194.21	3741	
194.42	5061.2	
194.64	5528.2	
194.85	4145.8	
195.07	4901.5	
195.28	5549.3	
195.49	4823	
195.71	5120.6	
195.92	3587.4	
196.13	5672.9	
196.35	5825.1	
196.56	5446.2	
196.78	4163.5	
196.99	7098.9	
197.2	6748.1	
197.42	4716.5	
197.63	4119.1	
197.84	4893.3	
198.06	5717.9	
198.27	3827.7	
198.48	5098.8	
198.7	5214.8	
198.91	5337.7	
199.13	4151.2	
199.34	4170.3	
199.55	5859.9	
199.77	4804.5	
199.98	3644.7	
200.19	4179.9	
200.41	5302.9	
200.62	5067.4	
200.83	4376.5	
201.05	4628.4	
201.26	5348.6	
201.47	5098.1	
201.69	3675.4	
201.9	3469.9	
202.11	5462.6	
202.33	6533.7	
202.54	3930.7	
202.76	4397	
202.97	5561.6	
203.18	5593.7	
203.4	4321.2	
203.61	4247.5	
203.82	5583.4	
204.04	5173.2	
204.25	4203.8	
204.46	4144.4	
204.68	5512.4	
204.89	5759.6	
205.1	3984.7	
205.32	3519.1	
205.53	5999.9	
205.74	6040.1	
205.96	2964.8	
206.17	4245.4	
206.38	5913.9	
206.6	6025.1	
206.81	4748.6	
207.02	3906.2	
207.24	5780.1	
207.45	6190.3	
207.66	3972.4	
207.88	3366.9	
208.09	5673.6	
208.3	5524.7	
208.52	3633.8	
208.73	4029	
208.94	5535	
209.15	6217	
209.37	3976.5	
209.58	4110.3	
209.79	6026.5	
210.01	5283.1	
210.22	3139.5	
210.43	3302	
210.65	5485.1	
210.86	5922.7	
211.07	3954.6	
211.29	3578.5	
211.5	5892	
211.71	5423.7	
211.93	3573	
212.14	3624.9	
212.35	5437.4	
212.56	5697.4	
212.78	4195.6	
212.99	3411.2	
213.2	6493.4	
213.42	5200.5	
213.63	3736.9	
213.84	4096.6	
214.06	4876.2	
214.27	4998.4	
214.48	3947.8	
214.69	4243.4	
214.91	6214.2	
215.12	6307.7	
215.33	4315.8	
215.55	4696.7	
215.76	6823.1	
215.97	5859.2	
216.18	4065.2	
216.4	3973.7	
216.61	5163.6	
216.82	6010.8	
217.04	3645.4	
217.25	3790.1	
217.46	6142.5	
217.67	5855.8	
217.89	3274.7	
218.1	3348.4	
218.31	5530.2	
218.53	5700.2	
218.74	3823.6	
218.95	3689.8	
219.16	5483.8	
219.38	6491.4	
219.59	3752.6	
219.8	4475.5	
220.01	7232.1	
220.23	5490.6	
220.44	4911.7	
220.65	3594.2	
220.87	5549.3	
221.08	6148.7	
221.29	3349.1	
221.5	4510.3	
221.72	7545.4	
221.93	5240.8	
222.14	4226.3	
222.35	5018.2	
222.57	5516.5	
222.78	5851	
222.99	3968.3	
223.2	4300.7	
223.42	5793	
223.63	5909.1	
223.84	3054.2	
224.05	3003	
224.27	7049.1	
224.48	6485.9	
224.69	4927.4	
224.9	4187.4	
225.12	5740.5	
225.33	5464.7	
225.54	3317	
225.75	3743.7	
225.97	5031.2	
226.18	5313.8	
226.39	4045.4	
226.6	3758	
226.82	5223.7	
227.03	5083.1	
227.24	4139.6	
227.45	3435.8	
227.67	5825.1	
227.88	6493.4	
228.09	4633.2	
228.3	4653	
228.52	5955.5	
228.73	5493.3	
228.94	3870.7	
229.15	3407.1	
229.36	5365.7	
229.58	5295.4	
229.79	3923.9	
230	4566.3	
230.21	6533	
230.43	5598.5	
230.64	4148.5	
230.85	4322.6	
231.06	5964.4	
231.28	5943.2	
231.49	3384.6	
231.7	4076.1	
231.91	5824.4	
232.12	5500.8	
232.34	3541.6	
232.55	4025.6	
232.76	6122.1	
232.97	5727.5	
233.18	3646.7	
233.4	4116.4	
233.61	5690.6	
233.82	5244.8	
234.03	3773.7	
234.25	3709.6	
234.46	7694.9	
234.67	5560.2	
234.88	4217.5	
235.09	3714.3	
235.31	5810.1	
235.52	5377.3	
235.73	4095.3	
235.94	3439.9	
236.15	5234.6	
236.37	6646.3	
236.58	3639.2	
236.79	4001.7	
237	5885.9	
237.21	4988.2	
237.43	4280.3	
237.64	3400.3	
237.85	10125	
238.06	5055.1	
238.27	4392.9	
238.48	3447.4	
238.7	5795.8	
238.91	5350.7	
239.12	3934.1	
239.33	3986.7	
239.54	5101.5	
239.76	5457.2	
239.97	3893.9	
240.18	3955.3	
240.39	6969.2	
240.6	5840.8	
240.82	4115.1	
241.03	3366.9	
241.24	5522.7	
241.45	6431.3	
241.66	3626.3	
241.87	4289.8	
242.09	6227.9	
242.3	6659.3	
242.51	4306.2	
242.72	3998.3	
242.93	6011.5	
243.14	5483.8	
243.36	4538.3	
243.57	5076.2	
243.78	6399.2	
243.99	5896.1	
244.2	4064.5	
244.41	3584.6	
244.63	5061.2	
244.84	5814.9	
245.05	4290.5	
245.26	4017.4	
245.47	5757.5	
245.68	6081.1	
245.9	5354.8	
246.11	4291.9	
246.32	5352.7	
246.53	5742.5	
246.74	6505	
246.95	3328.6	
247.16	4980	
247.38	5524.1	
247.59	3317	
247.8	3999	
248.01	5181.4	
248.22	5430.5	
248.43	3618.8	
248.64	3913.7	
248.86	4869.4	
249.07	5248.3	
249.28	3490.4	
249.49	4123.2	
249.7	6068.8	
249.91	6230.6	
250.12	3293.8	
250.34	3396.9	
250.55	5584.8	
250.76	5509	
250.97	4087.1	
251.18	4168.3	
251.39	6257.9	
251.6	5656.5	
251.81	4252.9	
252.03	4154.6	
252.24	5264.6	
252.45	6021.7	
252.66	3488.4	
252.87	4440	
253.08	5524.7	
253.29	7300.3	
253.5	3472	
253.72	4930.1	
253.93	5342.5	
254.14	6535.1	
254.35	3779.2	
254.56	3934.1	
254.77	5758.9	
254.98	5095.3	
255.19	3763.5	
255.41	4841.4	
255.62	5566.4	
255.83	6177.4	
256.04	4272.1	
256.25	4161.5	
256.46	6845	
256.67	5165	
256.88	4102.8	
257.09	4593.6	
257.31	5202.5	
257.52	5197.7	
257.73	5131.5	
257.94	3737.5	
258.15	5338.4	
258.36	5498.1	
258.57	4790.2	
258.78	3020.1	
258.99	6125.5	
259.2	5299.5	
259.41	3846.8	
259.63	3926.6	
259.84	6365.8	
260.05	6879.8	
260.26	5039.4	
260.47	3708.2	
260.68	6103.6	
260.89	5402.5	
261.1	4645.5	
261.31	3609.2	
261.52	6027.9	
261.73	6556.9	
261.95	4949.9	
262.16	4287.8	
262.37	6263.4	
262.58	6331	
262.79	4909.7	
263	3889.8	
263.21	5451.7	
263.42	5029.8	
263.63	3945.1	
263.84	3860.4	
264.05	6100.2	
264.26	6445.6	
264.47	4752.7	
264.69	4351.3	
264.9	6219	
265.11	5662	
265.32	3697.3	
265.53	3787.4	
265.74	5633.3	
265.95	4906.9	
266.16	4110.3	
266.37	4513	
266.58	5644.2	
266.79	5301.5	
267	3831.1	
267.21	3471.3	
267.42	5017.5	
267.63	5444.2	
267.84	4003.8	
268.06	3339.6	
268.27	6040.1	
268.48	6213.5	
268.69	3848.1	
268.9	4568.3	
269.11	6302.3	
269.32	4958.8	
269.53	3969.6	
269.74	3725.9	
269.95	5898.1	
270.16	4880.3	
270.37	4065.2	
270.58	4644.1	
270.79	5310.4	
271	6059.3	
271.21	4272.7	
271.42	4010.6	
271.63	5607.3	
271.84	5169.1	
272.05	3166.2	
272.26	3588	
272.47	5519.3	
272.68	5712.5	
272.89	3771.7	
273.11	4449.6	
273.32	5290.6	
273.53	6527.6	
273.74	4317.8	
273.95	4250.2	
274.16	6199.2	
274.37	5614.2	
274.58	4375.8	
274.79	3444.7	
275	5640.1	
275.21	6211.5	
275.42	5254.4	
275.63	4546.5	
275.84	5773.2	
276.05	7272.3	
276.26	4191.5	
276.47	3930.1	
276.68	5386.8	
276.89	6554.2	
277.1	4533.5	
277.31	3497.2	
277.52	5765	
277.73	5880.4	
277.94	3450.1	
278.15	3880.9	
278.36	5672.9	
278.57	5119.2	
278.78	3759.4	
278.99	4306.9	
279.2	5139	
279.41	5072.8	
279.62	5003.2	
279.83	3493.8	
280.04	6774	
280.25	4988.9	
280.46	4931.5	
280.67	4002.4	
280.88	5097.4	
281.09	6213.5	
281.3	4197	
281.51	5315.8	
281.72	5220.3	
281.93	6083.1	
282.14	3715	
282.35	4046.8	
282.56	5976.7	
282.77	6001.9	
282.98	3851.5	
283.19	4743.8	
283.4	7404.1	
283.61	5443.5	
283.82	3519.1	
284.03	5018.2	
284.24	5642.8	
284.45	6194.4	
284.66	4986.1	
284.87	4756.7	
285.08	6120.7	
285.29	6287.3	
285.5	3463.1	
285.71	3955.3	
285.92	6133	
286.12	6878.4	
286.33	4901.5	
286.54	3907.5	
286.75	6025.1	
286.96	5364.3	
287.17	3533.4	
287.38	4913.1	
287.59	5165.7	
287.8	5058.5	
288.01	3970.3	
288.22	4535.6	
288.43	5722.7	
288.64	5047.6	
288.85	4683.7	
289.06	4429.8	
289.27	5971.2	
289.48	6522.1	
289.69	4962.2	
289.9	4507.6	
290.11	6199.9	
290.32	5235.3	
290.53	4773.8	
290.74	4369.7	
290.94	6003.3	
291.15	6030.6	
291.36	3781.9	
291.57	4465.9	
291.78	5263.3	
291.99	4906.9	
292.2	3511.6	
292.41	4322.6	
292.62	6106.4	
292.83	5845.6	
293.04	5421	
293.25	3619.4	
293.46	5319.3	
293.67	6094.8	
293.88	3764.8	
294.09	3594.9	
294.29	5029.1	
294.5	5685.2	
294.71	4051.6	
294.92	3831.1	
295.13	5269.4	
295.34	6706.4	
295.55	3352.5	
295.76	3476.1	
295.97	5917.9	
296.18	6772.6	
296.39	3549.1	
296.6	3758	
296.81	5611.4	
297.01	5908.4	
297.22	3856.3	
297.43	3751.9	
297.64	5141.8	
297.85	5166.3	
298.06	3108.8	
298.27	3317.7	
298.48	5570.5	
298.69	5259.2	
298.9	4074.8	
299.11	3664.5	
299.31	4995	
299.52	5070.1	
299.73	4319.2	
299.94	4274.8	
300.15	5464	
300.36	5094	
300.57	4254.3	
300.78	4263.9	
300.99	5412.8	
301.2	5666.7	
301.4	3736.9	
301.61	4033.1	
301.82	5810.8	
302.03	5948.7	
302.24	4495.3	
302.45	3544.4	
302.66	5763.7	
302.87	6329.6	
303.08	3727.3	
303.29	5137.7	
303.49	5264	
303.7	5536.3	
303.91	3310.9	
304.12	4939	
304.33	5001.1	
304.54	5649.7	
304.75	3739.6	
304.96	3558.7	
305.16	5905	
305.37	6643.6	
305.58	3241.9	
305.79	3404.4	
306	5873.6	
306.21	4921.3	
306.42	3690.4	
306.63	5738.4	
306.83	5392.3	
307.04	6113.2	
307.25	4064.5	
307.46	4064.5	
307.67	4665.3	
307.88	6016.9	
308.09	3637.2	
308.29	3870	
308.5	5599.1	
308.71	6236.1	
308.92	3951.2	
309.13	3593.5	
309.34	5375.2	
309.55	5431.9	
309.75	4650.3	
309.96	4315.1	
310.17	5926.8	
310.38	5179.3	
310.59	4532.8	
310.8	3502	
311.01	6418.3	
311.21	5386.8	
311.42	3555.3	
311.63	3736.2	
311.84	5242.8	
312.05	5689.9	
312.26	4186	
312.46	4603.2	
312.67	5392.3	
312.88	5061.9	
313.09	3624.9	
313.3	3537.5	
313.51	6369.2	
313.71	6768.5	
313.92	3575.1	
314.13	3794.9	
314.34	5715.2	
314.55	5407.3	
314.76	4724.7	
314.96	4019.5	
315.17	5593.7	
315.38	5935	
315.59	3512.9	
315.8	3486.3	
316.01	6474.3	
316.21	6470.9	
316.42	3489.7	
316.63	3951.2	
316.84	5391.6	
317.05	6278.4	
317.26	4345.1	
317.46	3878.2	
317.67	5411.4	
317.88	5892	
318.09	4623.6	
318.3	3364.1	
318.5	5194.3	
318.71	5857.9	
318.92	5912.5	
319.13	4207.9	
319.34	6076.3	
319.54	6232.7	
319.75	3388.7	
319.96	3259	
320.17	5951.4	
320.38	6123.4	
320.58	3286.3	
320.79	3991.5	
321	6095.4	
321.21	6172.6	
321.42	4008.6	
321.62	3276.7	
321.83	5128.8	
322.04	5513.1	
322.25	3815.4	
322.46	3629.7	
322.66	5670.8	
322.87	5781.4	
323.08	4586.8	
323.29	3551.2	
323.5	6629.3	
323.7	5068.7	
323.91	4964.3	
324.12	4452.3	
324.33	5570.5	
324.53	5799.8	
324.74	4261.8	
324.95	4506.9	
325.16	4921.3	
325.37	5306.3	
325.57	3668.6	
325.78	3678.2	
325.99	5583.4	
326.2	5025	
326.4	5132.2	
326.61	3310.2	
326.82	5479.7	
327.03	5701.5	
327.24	5164.3	
327.44	4863.9	
327.65	5783.5	
327.86	4659.1	
328.07	4278.9	
328.27	3540.3	
328.48	6219.7	
328.69	5139.7	
328.9	5281.7	
329.1	3887	
329.31	5415.5	
329.52	6369.2	
329.73	3620.8	
329.93	4100.7	
330.14	5487.2	
330.35	5780.1	
330.56	5997.8	
330.76	4489.8	
330.97	5325.4	
331.18	5696.1	
331.39	4028.4	
331.59	3250.8	
331.8	6098.2	
332.01	6262.7	
332.22	3734.1	
332.42	4282.3	
332.63	5648.3	
332.84	5188.2	
333.05	4067.9	
333.25	3685.7	
333.46	5262.6	
333.67	5547.9	
333.88	3814	
334.08	4185.4	
334.29	7481.2	
334.5	6211.5	
334.7	3515.7	
334.91	5198.4	
335.12	5071.5	
335.33	5983.5	
335.53	4042.7	
335.74	5989.6	
335.95	5297.4	
336.16	5147.9	
336.36	3991.5	
336.57	4678.2	
336.78	4988.2	
336.98	6105	
337.19	5042.1	
337.4	3950.5	
337.61	6716.7	
337.81	5035.3	
338.02	3712.3	
338.23	4851.6	
338.43	6322.8	
338.64	5171.8	
338.85	3685	
339.05	4790.9	
339.26	6389.7	
339.47	4927.4	
339.68	3685	
339.88	5481.7	
340.09	5730.9	
340.3	5989.6	
340.5	4263.2	
340.71	3222.1	
340.92	5025.7	
341.13	6261.3	
341.33	3556.6	
341.54	4313	
341.75	5788.2	
341.95	5391.6	
342.16	4080.2	
342.37	4451.6	
342.57	5106.3	
342.78	5520	
342.99	4524.6	
343.19	3216.7	
343.4	5945.9	
343.61	5791	
343.81	3931.4	
344.02	3584.6	
344.23	5995.1	
344.43	6393.8	
344.64	4536.9	
344.85	4453.6	
345.06	5821.7	
345.26	6216.3	
345.47	4160.8	
345.68	4927.4	
345.88	4816.1	
346.09	6014.9	
346.3	4298.7	
346.5	3247.4	
346.71	5608	
346.92	5217.5	
347.12	3290.4	
347.33	4182	
347.54	6091.3	
347.74	6477	
347.95	4179.9	
348.16	3067.9	
348.36	5360.9	
348.57	5086.5	
348.78	4136.9	
348.98	4459.8	
349.19	5511.1	
349.39	4963.6	
349.6	3331.4	
349.81	3692.5	
350.01	5792.3	
350.22	5252.4	
350.43	3975.8	
350.63	4811.4	
350.84	5550.7	
351.05	5307.7	
351.25	3622.2	
351.46	3287.7	
351.67	6139.8	
351.87	5191.6	
352.08	3865.2	
352.29	4458.4	
352.49	5985.5	
352.7	5681.7	
352.9	3537.5	
353.11	4419.5	
353.32	6660.7	
353.52	5300.1	
353.73	3433.1	
353.94	4418.2	
354.14	5855.1	
354.35	5692	
354.55	3577.8	
354.76	3994.2	
354.97	5774.6	
355.17	5553.4	
355.38	3355.9	
355.59	4716.5	
355.79	5165.7	
356	5629.9	
356.2	3951.2	
356.41	3435.8	
356.62	4937.7	
356.82	5408	
357.03	4278.2	
357.24	3785.3	
357.44	5233.9	
357.65	5324	
357.85	5166.3	
358.06	4029	
358.27	4909	
358.47	5149.3	
358.68	3339.6	
358.88	4202.4	
359.09	5728.2	
359.3	6134.3	
359.5	4926.7	
359.71	4386.7	
359.91	6640.9	
360.12	5873.6	
360.33	4194.9	
360.53	4670.1	
360.74	5157.5	
360.94	5183.4	
361.15	4356.7	
361.36	3581.9	
361.56	5915.9	
361.77	5359.5	
361.97	4894.6	
362.18	3788.7	
362.38	5911.1	
362.59	4983.4	
362.8	3541.6	
363	3340.9	
363.21	4793.6	
363.41	5466	
363.62	4059.8	
363.83	5107.6	
364.03	5582.1	
364.24	6605.4	
364.44	5256.5	
364.65	5141.8	
364.85	5309.7	
365.06	4936.3	
365.27	3683.6	
365.47	3734.8	
365.68	6265.4	
365.88	5271.5	
366.09	4066.6	
366.29	3751.2	
366.5	5573.2	
366.71	6012.2	
366.91	5158.8	
367.12	4278.2	
367.32	6645	
367.53	5833.3	
367.73	4208.6	
367.94	5267.4	
368.14	5777.3	
368.35	6746	
368.56	4134.8	
368.76	3539.6	
368.97	5928.9	
369.17	7664.9	
369.38	3683.6	
369.58	3953.9	
369.79	4905.6	
369.99	6250.4	
370.2	5014.8	
370.4	4074.8	
370.61	5567.7	
370.82	6769.2	
371.02	3952.6	
371.23	3232.4	
371.43	4774.5	
371.64	6184.9	
371.84	3900	
372.05	5186.1	
372.25	7509.9	
372.46	5816.2	
372.66	3910.3	
372.87	3904.1	
373.07	5903.6	
373.28	7595.9	
373.48	5027.8	
373.69	4670.1	
373.9	5390.9	
374.1	5373.9	
374.31	4888.5	
374.51	4404.5	
374.72	6195.1	
374.92	5046.2	
375.13	5020.3	
375.33	4193.6	
375.54	5713.2	
375.74	5126.7	
375.95	4212	
376.15	5481.7	
376.36	5679	
376.56	5550	
376.77	4283.7	
376.97	4767	
377.18	6798.6	
377.38	5801.2	
377.59	5128.1	
377.79	3680.9	
378	5533.6	
378.2	6012.2	
378.41	3816.7	
378.61	3720.5	
378.82	6038.8	
379.02	5117.2	
379.23	3961.5	
379.43	5134.9	
379.64	6110.5	
379.84	5771.2	
380.05	3788.7	
380.25	3768.3	
380.46	5878.4	
380.66	5393	
380.87	5123.3	
381.07	5593.7	
381.28	6442.9	
381.48	5855.8	
381.69	3848.1	
381.89	3865.9	
382.1	4810	
382.3	6027.9	
382.51	5024.3	
382.71	5917.9	
382.91	5907.7	
383.12	6433.4	
383.32	4277.5	
383.53	4437.9	
383.73	5685.8	
383.94	5524.1	
384.14	4324.6	
384.35	3472	
384.55	5467.4	
384.76	5948.7	
384.96	4265.2	
385.17	4579.3	
385.37	5829.9	
385.58	5124	
385.78	4547.2	
385.98	3431.7	
386.19	5343.2	
386.39	5728.9	
386.6	3997	
386.8	4218.1	
387.01	5834.7	
387.21	5869.5	
387.42	4747.9	
387.62	5234.6	
387.83	5107	
388.03	5790.3	
388.23	4253.6	
388.44	5116.5	
388.64	4837.3	
388.85	4879.6	
389.05	4603.8	
389.26	5205.9	
389.46	6838.9	
389.67	6199.9	
389.87	4519.9	
390.07	4638.6	
390.28	5486.5	
390.48	4999.8	
390.69	3757.3	
390.89	4048.8	
391.1	5181.4	
391.3	6158.9	
391.5	5270.1	
391.71	5947.3	
391.91	5849.7	
392.12	6936.5	
392.32	5427.1	
392.53	4612	
392.73	5289.9	
392.93	5460.6	
393.14	4289.8	
393.34	5167.7	
393.55	6025.8	
393.75	5495.4	
393.95	4233.2	
394.16	4180.6	
394.36	5238.7	
394.57	5972.6	
394.77	3708.9	
394.98	4199	
395.18	5152	
395.38	5364.3	
395.59	5061.2	
395.79	3932.1	
396	5277.6	
396.2	5771.9	
396.4	4747.2	
396.61	4696.7	
396.81	5946.6	
397.02	5182	
397.22	4982.7	
397.42	5094	
397.63	5919.3	
397.83	5085.1	
398.04	3829	
398.24	4381.3	
398.44	5679.7	
398.65	4677.6	
398.85	3685.7	
399.05	3710.2	
399.26	5021.6	
399.46	6795.8	
399.67	4176.5	
399.87	3829.7	
400.07	5347.2	
400.28	5803.3	
400.48	3925.3	
400.69	5040.7	
400.89	6406	
401.09	6414.2	
401.3	3829.7	
401.5	4985.4	
401.7	6665.5	
401.91	6980.2	
402.11	4160.8	
402.32	4429.8	
402.52	6073.6	
402.72	5961.6	
402.93	4696.7	
403.13	3559.4	
403.33	6789.7	
403.54	5496.1	
403.74	4365.6	
403.94	5300.8	
404.15	5556.1	
404.35	6779.5	
404.56	4139.6	
404.76	6057.9	
404.96	6029.2	
405.17	5754.1	
405.37	5091.9	
405.57	4644.1	
405.78	6014.9	
405.98	5477	
406.18	4160.8	
406.39	5109.7	
406.59	6051.7	
406.79	5626.5	
407	3964.9	
407.2	4084.3	
407.4	6027.9	
407.61	6240.8	
407.81	3997	
408.01	6154.8	
408.22	4840	
408.42	6961	
408.62	4975.9	
408.83	4375.8	
409.03	5479	
409.23	5274.9	
409.44	4526.7	
409.64	4784.1	
409.84	6397.9	
410.05	6190.3	
410.25	4488.5	
410.45	4330.8	
410.66	5571.8	
410.86	8201.4	
411.06	4691.2	
411.27	4577.2	
411.47	7810.3	
411.67	5805.3	
411.88	4799.8	
412.08	5028.4	
412.28	6418.3	
412.49	6963.8	
412.69	4551.3	
412.89	4504.8	
413.09	6806.8	
413.3	6535.1	
413.5	4650.9	
413.7	4153.3	
413.91	5819	
414.11	6620.4	
414.31	4395.6	
414.52	4732.2	
414.72	6307.1	
414.92	6222.4	
415.12	4359.4	
415.33	4934.9	
415.53	6541.9	
415.73	6821.8	
415.94	5321.3	
416.14	4665.3	
416.34	5541.1	
416.55	5343.8	
416.75	5977.3	
416.95	5350.7	
417.15	6519.4	
417.36	7353.6	
417.56	6138.4	
417.76	5155.4	
417.97	6961.7	
418.17	6548.7	
418.37	4696.7	
418.57	4748.6	
418.78	6321.4	
418.98	6075.6	
419.18	5682.4	
419.38	5562.3	
419.59	6062.7	
419.79	5689.9	
419.99	4628.4	
420.2	5044.8	
420.4	6634.7	
420.6	6764.4	
420.8	4494.6	
421.01	4364.9	
421.21	6384.9	
421.41	6641.6	
421.61	4920.6	
421.82	4627.7	
422.02	5900.9	
422.22	6901.7	
422.42	5482.4	
422.63	5171.1	
422.83	6079.1	
423.03	7265.5	
423.23	5211.4	
423.44	4121.2	
423.64	6156.2	
423.84	5924.1	
424.04	4628.4	
424.25	4200.4	
424.45	7079.1	
424.65	7006.1	
424.85	4020.8	
425.06	4622.9	
425.26	7122.8	
425.46	5571.2	
425.66	5197.1	
425.87	4881	
426.07	6849.8	
426.27	6666.1	
426.47	4965.6	
426.67	4401.1	
426.88	7163.8	
427.08	6656.6	
427.28	5151.3	
427.48	4266.6	
427.69	5528.8	
427.89	6177.4	
428.09	5233.2	
428.29	4319.2	
428.5	6933.1	
428.7	6313.2	
428.9	4171	
429.1	4723.3	
429.3	6247.7	
429.51	6673	
429.71	4577.2	
429.91	5309.7	
430.11	6546.7	
430.31	6805.4	
430.52	4845.5	
430.72	5081.7	
430.92	7243	
431.12	6679.8	
431.32	4498	
431.53	5001.1	
431.73	5491.3	
431.93	7293.5	
432.13	4394.9	
432.33	4210.6	
432.54	5945.3	
432.74	6376.7	
432.94	4115.7	
433.14	5296.7	
433.34	6517.3	
433.55	5933.6	
433.75	5139	
433.95	6970.6	
434.15	6224.5	
434.35	5896.8	
434.56	4265.2	
434.76	3865.2	
434.96	6187.6	
435.16	6421.7	
435.36	4184	
435.56	5298.1	
435.77	5796.4	
435.97	6002.6	
436.17	5986.2	
436.37	5317.9	
436.57	5795.1	
436.78	5699.5	
436.98	6511.9	
437.18	5892.7	
437.38	6438.8	
437.58	6034	
437.78	6120.7	
437.99	4706.9	
438.19	6586.3	
438.39	7847.1	
438.59	4605.2	
438.79	4118.5	
438.99	7217	
439.2	5988.3	
439.4	4220.2	
439.6	4128	
439.8	6266.1	
440	7447.1	
440.2	5175.2	
440.4	5240.1	
440.61	6669.6	
440.81	7220.5	
441.01	4248.9	
441.21	5220.3	
441.41	7032	
441.61	6692.1	
441.81	5485.8	
442.02	6590.4	
442.22	7549.5	
442.42	6704.4	
442.62	4398.4	
442.82	4425	
443.02	6990.4	
443.22	6092	
443.43	4740.4	
443.63	4371.7	
443.83	5945.3	
444.03	5970.5	
444.23	5548.6	
444.43	5175.9	
444.63	6262	
444.83	7563.8	
445.04	4394.3	
445.24	5846.3	
445.44	6675	
445.64	6708.5	
445.84	5356.8	
446.04	5329.5	
446.24	6053.8	
446.44	7112.6	
446.65	4491.9	
446.85	4885.1	
447.05	6378.1	
447.25	7032.7	
447.45	4985.4	
447.65	4321.2	
447.85	6371.9	
448.05	6063.4	
448.25	5427.8	
448.46	5150	
448.66	6334.4	
448.86	6068.1	
449.06	4171	
449.26	5354.8	
449.46	6735.8	
449.66	5726.8	
449.86	4800.4	
450.06	4782.7	
450.26	5894.7	
450.47	6524.1	
450.67	5164.3	
450.87	5499.5	
451.07	6615.6	
451.27	6371.2	
451.47	4442	
451.67	4917.2	
451.87	6039.5	
452.07	7225.9	
452.27	4622.3	
452.47	4629.8	
452.67	6359.6	
452.88	6875	
453.08	3984	
453.28	6073.6	
453.48	7539.3	
453.68	6401.3	
453.88	4468	
454.08	4793.6	
454.28	6686.6	
454.48	6300.2	
454.68	5287.9	
454.88	5906.3	
455.08	6770.6	
455.28	6405.4	
455.48	4435.9	
455.68	4967	
455.89	7224.6	
456.09	6781.5	
456.29	4655.7	
456.49	4703.5	
456.69	6973.3	
456.89	6300.9	
457.09	5212.1	
457.29	5560.9	
457.49	6598.6	
457.69	6665.5	
457.89	4954	
458.09	4391.5	
458.29	6285.9	
458.49	7072.3	
458.69	5404.6	
458.89	4753.3	
459.09	7217.7	
459.29	7384.3	
459.49	4928.8	
459.69	5724.1	
459.9	6843.6	
460.1	6172.6	
460.3	4818.9	
460.5	4576.5	
460.7	6759	
460.9	6486.6	
461.1	4190.1	
461.3	5538.4	
461.5	7389.1	
461.7	6942.6	
461.9	4519.2	
462.1	5065.3	
462.3	6355.5	
462.5	6997.9	
462.7	4617.5	
462.9	4730.1	
463.1	8030.1	
463.3	7606.8	
463.5	4855.7	
463.7	5724.1	
463.9	6526.2	
464.1	6896.2	
464.3	4893.3	
464.5	5187.5	
464.7	7216.4	
464.9	6718.7	
465.1	6621.1	
465.3	5577.3	
465.5	7551.5	
465.7	7403.4	
465.9	5791	
466.1	5715.2	
466.3	7268.9	
466.5	7101.7	
466.7	6447	
466.9	5296	
467.1	6954.2	
467.3	7950.2	
467.5	6295.5	
467.7	5234.6	
467.9	8152.3	
468.1	9075.9	
468.3	6043.6	
468.5	6470.2	
468.7	6873.7	
468.9	6946	
469.1	5421.7	
469.3	6255.2	
469.5	8988.5	
469.7	6415.6	
469.9	6023.1	
470.1	5143.8	
470.3	6875	
470.5	6925.5	
470.7	6578.8	
470.9	5324.7	
471.1	6682.5	
471.3	7270.3	
471.5	5094.7	
471.69	7230.7	
471.89	6569.2	
472.09	6135.7	
472.29	5935	
472.49	6427.2	
472.69	6255.2	
472.89	7247.1	
473.09	5059.8	
473.29	5268.7	
473.49	6460.7	
473.69	6754.9	
473.89	6155.5	
474.09	5328.8	
474.29	8040.3	
474.49	7664.2	
474.69	6212.2	
474.89	5537	
475.09	6766.5	
475.29	6733.7	
475.49	4944.5	
475.69	5150.6	
475.88	8448.6	
476.08	7068.2	
476.28	4835.3	
476.48	5443.5	
476.68	7555.6	
476.88	7442.3	
477.08	5246.2	
477.28	5512.4	
477.48	6961.7	
477.68	7610.3	
477.88	5027.1	
478.08	5433.9	
478.28	7843.7	
478.48	6966.5	
478.67	5406	
478.87	4853.7	
479.07	7654.6	
479.27	7164.5	
479.47	5709.7	
479.67	5614.8	
479.87	7366.5	
480.07	8032.1	
480.27	4863.9	
480.47	6564.4	
480.67	7157.7	
480.87	7750.9	
481.06	5143.8	
481.26	6042.9	
481.46	7028.6	
481.66	6982.2	
481.86	5591	
482.06	6812.9	
482.26	6738.5	
482.46	7720.2	
482.66	5614.8	
482.86	5257.1	
483.05	7042.3	
483.25	6492.7	
483.45	8147.5	
483.65	5543.2	
483.85	6646.3	
484.05	7004.7	
484.25	6026.5	
484.45	6429.9	
484.65	7890.8	
484.84	7866.2	
485.04	5428.5	
485.24	5427.8	
485.44	8049.2	
485.64	6449.1	
485.84	4782.7	
486.04	6145.3	
486.24	6769.9	
486.44	7221.1	
486.63	4603.8	
486.83	5508.4	
487.03	6579.4	
487.23	6868.2	
487.43	4787.5	
487.63	7158.3	
487.83	6855.9	
488.02	7829.4	
488.22	5728.2	
488.42	6434.7	
488.62	7799.3	
488.82	6652.5	
489.02	5393	
489.22	5438	
489.41	7711.3	
489.61	7245	
489.81	5126.1	
490.01	5152	
490.21	7497.6	
490.41	8226	
490.61	5112.4	
490.8	5292	
491	6993.1	
491.2	6413.6	
491.4	5952.8	
491.6	4970.4	
491.8	7043.6	
491.99	7225.9	
492.19	4775.9	
492.39	5174.5	
492.59	7578.8	
492.79	7610.3	
492.99	5969.8	
493.18	5089.9	
493.38	7666.2	
493.58	8353.7	
493.78	5821	
493.98	5343.2	
494.18	7211.6	
494.37	6719.4	
494.57	5948.7	
494.77	5791.7	
494.97	7388.4	
495.17	7723.6	
495.37	5326.1	
495.56	5656.5	
495.76	7810.3	
495.96	7461.4	
496.16	6542.6	
496.36	5412.1	
496.55	7651.9	
496.75	7131	
496.95	6387.6	
497.15	5685.2	
497.35	7627.3	
497.54	7623.2	
497.74	5416.2	
497.94	7251.9	
498.14	8325.7	
498.34	8196	
498.53	5135.6	
498.73	5981.4	
498.93	6829.3	
499.13	7520.8	
499.33	5799.2	
499.52	6475.7	
499.72	7438.9	
499.92	7793.9	
500.12	5440.8	
500.32	5698.1	
500.51	7699	
500.71	7492.2	
500.91	6404	
501.11	6140.5	
501.31	7649.2	
501.5	8152.3	
501.7	6817	
501.9	5661.3	
502.1	7453.2	
502.29	7814.4	
502.49	6143.9	
502.69	6731	
502.89	7725.6	
503.09	7748.1	
503.28	5275.6	
503.48	5355.4	
503.68	6907.8	
503.88	6941.2	
504.07	6429.9	
504.27	5925.5	
504.47	7346.1	
504.67	7501.7	
504.86	6244.9	
505.06	6038.8	
505.26	7092.1	
505.46	8974.2	
505.65	5863.3	
505.85	6162.3	
506.05	7020.4	
506.25	7565.9	
506.44	5298.1	
506.64	6275.7	
506.84	6898.2	
507.04	8018.5	
507.23	5466.7	
507.43	6100.2	
507.63	9152.4	
507.83	7268.9	
508.02	6141.9	
508.22	5689.3	
508.42	9361.9	
508.62	6974	
508.81	6016.9	
509.01	6569.9	
509.21	6839.5	
509.4	7068.2	
509.6	6283.2	
509.8	5464.7	
510	7076.4	
510.19	8677.2	
510.39	5462.6	
510.59	5560.9	
510.79	6911.9	
510.98	8419.2	
511.18	5616.9	
511.38	5836	
511.57	7788.4	
511.77	7693.5	
511.97	6484.6	
512.17	5501.5	
512.36	7782.3	
512.56	7798	
512.76	5506.3	
512.95	5274.2	
513.15	7927	
513.35	6496.2	
513.55	6384.2	
513.74	5479	
513.94	7871.7	
514.14	7226.6	
514.33	6557.6	
514.53	6194.4	
514.73	7173.4	
514.92	7331	
515.12	5733.6	
515.32	5471.5	
515.51	7421.8	
515.71	8028	
515.91	7258.7	
516.11	5514.5	
516.3	9191.3	
516.5	6989.7	
516.7	6181.5	
516.89	6776.7	
517.09	7154.9	
517.29	7015	
517.48	6488	
517.68	5825.8	
517.88	6901	
518.07	7461.4	
518.27	6287.9	
518.47	5334.3	
518.66	8163.2	
518.86	6669.6	
519.06	5226.4	
519.25	5711.8	
519.45	7033.4	
519.65	8594	
519.84	6287.3	
520.04	7013.6	
520.24	9004.2	
520.43	7729	
520.63	5986.9	
520.83	5757.5	
521.02	6929.6	
521.22	7650.5	
521.42	6364.4	
521.61	6948.8	
521.81	7127.6	
522.01	7282.6	
522.2	6121.4	
522.4	5911.8	
522.6	7810.3	
522.79	6579.4	
522.99	5942.5	
523.18	5160.2	
523.38	7465.5	
523.58	7350.2	
523.77	7255.3	
523.97	5140.4	
524.17	9398.8	
524.36	8398.7	
524.56	6498.2	
524.76	6158.2	
524.95	7410.9	
525.15	7063.4	
525.34	5950.7	
525.54	5857.9	
525.74	7744.1	
525.93	6681.8	
526.13	7182.2	
526.33	5870.2	
526.52	8046.5	
526.72	7508.5	
526.91	7077.8	
527.11	6326.2	
527.31	8119.5	
527.5	8553	
527.7	6182.8	
527.89	5225.7	
528.09	6868.9	
528.29	7419.1	
528.48	6665.5	
528.68	6247	
528.87	7842.4	
529.07	7911.3	
529.27	6195.8	
529.46	5723.4	
529.66	7353.6	
529.85	8011	
530.05	5382.1	
530.25	6310.5	
530.44	8927.1	
530.64	7418.4	
530.83	5928.2	
531.03	6163.7	
531.23	7838.9	
531.42	7797.3	
531.62	6965.8	
531.81	5996.5	
532.01	7836.2	
532.21	8385.7	
532.4	5730.9	
532.6	6070.9	
532.79	8952.4	
532.99	7912.7	
533.18	6049	
533.38	7227.3	
533.58	7393.2	
533.77	8254	
533.97	5987.6	
534.16	6855.9	
534.36	8445.8	
534.55	7509.9	
534.75	7047.1	
534.95	6103.6	
535.14	8317.5	
535.34	7430	
535.53	5755.5	
535.73	7810.3	
535.92	8862.2	
536.12	7628	
536.31	5803.3	
536.51	7104.4	
536.71	7958.4	
536.9	7463.5	
537.1	6029.2	
537.29	6187.6	
537.49	8435.6	
537.68	7385	
537.88	6548.7	
538.07	5821.7	
538.27	7553.6	
538.46	8707.3	
538.66	5670.8	
538.86	6022.4	
539.05	7802.8	
539.25	8093.6	
539.44	6404	
539.64	6026.5	
539.83	7486	
540.03	8573.5	
540.22	5869.5	
540.42	6054.5	
540.61	7837.6	
540.81	7999.4	
541	6574.7	
541.2	7189.7	
541.39	7338.6	
541.59	7787.7	
541.78	6848.4	
541.98	5943.9	
542.18	7020.4	
542.37	7045.7	
542.57	6294.8	
542.76	6924.2	
542.96	7179.5	
543.15	7987.1	
543.35	6453.1	
543.54	5722.7	
543.74	8219.9	
543.93	7788.4	
544.13	6370.5	
544.32	7529.7	
544.52	8184.4	
544.71	7302.4	
544.91	5505.6	
545.1	6818.4	
545.3	7335.1	
545.49	8088.1	
545.69	5395	
545.88	6105	
546.08	9084.1	
546.27	8681.3	
546.47	6563.7	
546.66	5778.7	
546.86	8316.8	
547.05	8954.4	
547.24	6161	
547.44	5914.5	
547.63	7177.4	
547.83	8410.3	
548.02	6439.5	
548.22	6627.2	
548.41	7040.9	
548.61	8476.5	
548.8	5890.6	
549	5883.8	
549.19	7791.2	
549.39	8032.8	
549.58	5603.2	
549.78	6260	
549.97	8127.7	
550.17	7566.6	
550.36	7161.7	
550.55	8178.2	
550.75	7599.3	
550.94	8651.3	
551.14	5887.9	
551.33	6394.4	
551.53	6974.7	
551.72	7956.4	
551.92	6352.8	
552.11	6070.9	
552.31	8023.3	
552.5	8112	
552.69	7861.5	
552.89	5700.2	
553.08	8026	
553.28	7697.6	
553.47	6102.3	
553.67	7350.2	
553.86	8763.3	
554.06	6980.2	
554.25	5282.4	
554.44	5874.3	
554.64	9521.7	
554.83	8939.4	
555.03	5898.8	
555.22	6239.5	
555.42	8200.7	
555.61	7948.2	
555.8	6057.2	
556	6362.4	
556.19	7012.9	
556.39	8514.1	
556.58	6145.3	
556.78	6031.3	
556.97	7818.5	
557.16	7506.5	
557.36	7346.7	
557.55	5821.7	
557.75	6789.7	
557.94	8568	
558.13	5963	
558.33	5596.4	
558.52	8380.3	
558.72	7264.1	
558.91	5784.8	
559.1	5981.4	
559.3	6982.2	
559.49	6715.3	
559.69	5277.6	
559.88	6352.8	
560.07	7804.8	
560.27	8286.8	
560.46	6573.3	
560.66	6743.3	
560.85	7584.3	
561.04	6845.7	
561.24	5756.2	
561.43	5993.7	
561.63	7085.3	
561.82	7357.7	
562.01	7234.8	
562.21	6271.6	
562.4	7834.2	
562.59	8802.9	
562.79	6065.4	
562.98	5781.4	
563.18	7648.5	
563.37	9201.5	
563.56	6681.8	
563.76	5615.5	
563.95	7180.9	
564.14	7035.5	
564.34	6004	
564.53	5835.3	
564.73	7628.7	
564.92	8081.3	
565.11	6246.3	
565.31	5504.9	
565.5	8285.4	
565.69	7151.5	
565.89	5786.2	
566.08	6029.9	
566.27	8143.4	
566.47	8466.3	
566.66	6776	
566.85	5326.1	
567.05	7684	
567.24	7039.6	
567.44	5710.4	
567.63	7125.6	
567.82	7951.6	
568.02	7684.7	
568.21	5696.8	
568.4	6081.8	
568.6	7595.9	
568.79	7507.2	
568.98	5418.9	
569.18	5686.5	
569.37	7438.9	
569.56	9568.1	
569.76	6032.6	
569.95	7061.4	
570.14	7967.3	
570.34	7812.3	
570.53	5492.7	
570.72	5560.2	
570.91	8377.6	
571.11	7430.7	
571.3	6050.4	
571.49	7024.5	
571.69	7491.5	
571.88	7036.1	
572.07	6659.3	
572.27	6684.6	
572.46	7080.5	
572.65	8122.9	
572.85	5819	
573.04	6182.1	
573.23	8398.7	
573.43	7549.5	
573.62	5530.9	
573.81	6208.8	
574	7603.4	
574.2	7482.6	
574.39	5856.5	
574.58	6069.5	
574.78	8414.4	
574.97	7670.3	
575.16	6404.7	
575.36	6513.9	
575.55	8039	
575.74	8198	
575.93	5524.1	
576.13	6563.7	
576.32	7431.4	
576.51	7996	
576.71	5890	
576.9	7256	
577.09	8392.6	
577.28	7828.7	
577.48	6379.4	
577.67	5406	
577.86	7548.8	
578.05	7723.6	
578.25	6055.8	
578.44	6193.1	
578.63	7552.2	
578.83	8800.1	
579.02	5450.3	
579.21	7047.7	
579.4	7750.9	
579.6	7439.6	
579.79	6206	
579.98	8489.5	
580.17	8065.6	
580.37	8211	
580.56	5686.5	
580.75	6520.7	
580.94	8634.2	
581.14	8483.4	
581.33	6918.7	
581.52	5833.3	
581.71	7982.3	
581.91	8711.4	
582.1	5455.8	
582.29	6081.8	
582.48	7584.3	
582.68	7461.4	
582.87	6574.7	
583.06	6195.1	
583.25	7951.6	
583.45	7247.1	
583.64	6920.1	
583.83	7627.3	
584.02	7380.2	
584.21	7886.7	
584.41	6980.8	
584.6	6024.4	
584.79	7550.2	
584.98	8406.9	
585.18	5508.4	
585.37	5606.7	
585.56	7172.7	
585.75	7996.6	
585.94	5858.6	
586.14	6462	
586.33	8680.7	
586.52	7565.9	
586.71	6402.6	
586.91	6155.5	
587.1	6970.6	
587.29	8116.1	
587.48	6135.7	
587.67	5988.9	
587.87	7892.2	
588.06	8051.2	
588.25	7379.5	
588.44	6623.1	
588.63	7651.9	
588.83	8322.3	
589.02	6056.5	
589.21	5999.2	
589.4	7458.7	
589.59	7365.9	
589.78	5313.8	
589.98	5599.8	
590.17	7088	
590.36	7660.1	
590.55	5016.8	
590.74	5934.3	
590.94	9145.5	
591.13	7591.1	
591.32	5687.2	
591.51	5221	
591.7	8060.8	
591.89	7507.9	
592.09	5329.5	
592.28	5797.8	
592.47	6692.8	
592.66	8722.3	
592.85	5317.9	
593.05	5552	
593.24	7357	
593.43	8041.7	
593.62	5548.6	
593.81	6021.7	
594	7303.1	
594.19	7634.8	
594.39	5542.5	
594.58	5438	
594.77	7707.2	
594.96	8305.2	
595.15	5417.6	
595.34	6156.9	
595.54	7785.7	
595.73	6827.9	
595.92	4821.6	
596.11	5995.8	
596.3	8295	
596.49	6959.7	
596.68	5759.6	
596.88	6273.6	
597.07	7999.4	
597.26	6731.7	
597.45	5317.9	
597.64	6546.7	
597.83	6989.7	
598.02	7630.7	
598.22	5404.6	
598.41	6071.5	
598.6	7458.7	
598.79	6894.1	
598.98	5417.6	
599.17	6369.9	
599.36	7441	
599.55	8697.7	
599.74	7622.5	
599.94	7278.5	
600.13	8020.5	
600.32	6850.5	
600.51	5106.3	
600.7	5326.1	
600.89	8750.3	
601.08	8765.3	
601.27	5043.5	
601.47	6102.9	
601.66	7887.4	
601.85	8583.7	
602.04	5748.6	
602.23	6129.6	
602.42	6922.1	
602.61	7608.2	
602.8	5682.4	
602.99	5475.6	
603.18	7301.7	
603.37	7581.6	
603.57	6133	
603.76	6681.2	
603.95	8421.9	
604.14	7899.7	
604.33	5513.8	
604.52	5887.2	
604.71	7514	
604.9	7130.3	
605.09	6593.8	
605.28	6358.3	
605.47	8084.7	
605.66	7811.6	
605.86	6164.4	
606.05	5569.1	
606.24	8117.5	
606.43	6666.1	
606.62	5896.1	
606.81	6696.2	
607	8051.2	
607.19	7286.7	
607.38	5314.5	
607.57	5547.3	
607.76	7108.5	
607.95	6608.1	
608.14	5991	
608.33	6591.7	
608.52	7045.7	
608.72	7952.3	
608.91	5264.6	
609.1	5074.2	
609.29	7203.4	
609.48	6673	
609.67	6227.2	
609.86	5206.6	
610.05	6728.9	
610.24	7113.3	
610.43	5130.2	
610.62	4745.8	
610.81	8245.1	
611	8024.6	
611.19	5158.8	
611.38	5940.5	
611.57	7386.3	
611.76	8839	
611.95	4928.1	
612.14	4848.2	
612.33	7267.6	
612.52	6741.9	
612.71	5556.1	
612.9	4791.6	
613.09	6318.7	
613.28	8787.2	
613.47	5386.2	
613.66	6269.5	
613.85	7359.7	
614.04	6927.6	
614.24	5392.3	
614.43	4559.5	
614.62	7557.7	
614.81	7423.9	
615	5971.9	
615.19	5962.3	
615.38	6771.3	
615.57	7086	
615.76	5849.7	
615.95	6885.3	
616.14	7496.2	
616.33	7225.9	
616.52	6154.8	
616.71	6423.8	
616.9	7535.8	
617.09	7272.3	
617.28	5395	
617.47	6986.3	
617.66	6543.3	
617.85	6544.6	
618.04	6376	
618.22	5804.6	
618.41	6833.4	
618.6	7789.8	
618.79	5771.2	
618.98	5352	
619.17	8114.7	
619.36	6384.9	
619.55	5424.4	
619.74	5555.5	
619.93	7366.5	
620.12	6794.5	
620.31	6115.2	
620.5	6245.6	
620.69	7935.9	
620.88	8267	
621.07	7050.5	
621.26	5989.6	
621.45	7408.2	
621.64	7513.3	
621.83	6080.4	
622.02	5214.1	
622.21	7555.6	
622.4	7245	
622.59	6614.9	
622.78	6301.6	
622.97	6800.6	
623.16	7834.2	
623.35	6027.2	
623.54	5133.6	
623.72	7049.1	
623.91	7273.7	
624.1	6248.4	
624.29	4905.6	
624.48	8346.8	
624.67	7603.4	
624.86	6054.5	
625.05	5128.8	
625.24	8518.2	
625.43	6686.6	
625.62	7961.1	
625.81	5447.6	
626	7906.5	
626.19	6995.9	
626.38	6225.8	
626.56	5587.5	
626.75	6921.5	
626.94	7643.7	
627.13	6248.4	
627.32	4952	
627.51	7586.4	
627.7	9047.2	
627.89	5072.1	
628.08	6287.9	
628.27	6728.3	
628.46	7003.4	
628.65	5373.9	
628.83	4985.4	
629.02	7578.8	
629.21	6828.6	
629.4	5762.3	
629.59	5998.5	
629.78	6692.1	
629.97	7894.2	
630.16	6016.2	
630.35	5446.2	
630.54	8277.9	
630.72	7936.6	
630.91	5472.2	
631.1	6068.1	
631.29	7280.5	
631.48	7577.5	
631.67	6114.6	
631.86	5578.7	
632.05	6946.7	
632.24	7004.1	
632.42	5250.3	
632.61	5859.9	
632.8	7073.7	
632.99	6723.5	
633.18	5827.8	
633.37	6249	
633.56	7395.2	
633.75	7219.1	
633.93	5847.6	
634.12	5537.7	
634.31	8232.8	
634.5	7802.8	
634.69	5588.9	
634.88	6038.8	
635.07	7089.4	
635.25	7795.9	
635.44	6411.5	
635.63	6690	
635.82	6956.9	
636.01	6531	
636.2	6439.5	
636.39	5972.6	
636.57	8118.1	
636.76	7901.7	
636.95	5308.3	
637.14	6758.3	
637.33	7448.5	
637.52	8581.7	
637.7	5091.3	
637.89	6133.7	
638.08	7036.8	
638.27	8589.2	
638.46	6210.1	
638.65	6717.3	
638.83	8531.2	
639.02	6862.1	
639.21	6152.8	
639.4	6657.9	
639.59	7322.9	
639.78	6920.1	
639.96	5403.2	
640.15	5458.5	
640.34	7187	
640.53	7425.9	
640.72	5223.7	
640.91	5549.3	
641.09	6610.2	
641.28	8053.3	
641.47	5523.4	
641.66	6414.9	
641.85	7447.1	
642.03	7607.5	
642.22	6198.5	
642.41	5586.9	
642.6	6818.4	
642.79	6192.4	
642.97	5378.6	
643.16	6194.4	
643.35	6757.6	
643.54	6593.8	
643.73	5334.3	
643.91	6193.7	
644.1	6470.9	
644.29	7089.4	
644.48	5463.3	
644.67	5526.8	
644.85	6735.1	
645.04	7128.3	
645.23	5134.3	
645.42	5292.6	
645.6	6544.6	
645.79	7907.2	
645.98	5398.4	
646.17	4481	
646.36	6425.8	
646.54	7063.4	
646.73	6310.5	
646.92	5128.8	
647.11	6687.3	
647.29	7744.7	
647.48	5126.1	
647.67	4920.6	
647.86	8030.8	
648.05	7933.8	
648.23	5532.2	
648.42	6841.6	
648.61	7380.9	
648.8	7079.1	
648.98	5126.1	
649.17	5365.7	
649.36	6653.2	
649.55	6144.6	
649.73	5171.1	
649.92	5970.5	
650.11	6528.9	
650.3	6920.1	
650.48	5326.1	
650.67	5149.3	
650.86	7204.1	
651.05	6079.7	
651.23	5266.7	
651.42	5251.7	
651.61	6632.7	
651.79	6736.5	
651.98	5486.5	
652.17	5087.2	
652.36	7147.4	
652.54	6176.7	
652.73	5102.2	
652.92	4960.2	
653.11	7178.8	
653.29	7234.1	
653.48	4420.2	
653.67	5483.8	
653.85	7009.5	
654.04	8008.9	
654.23	5761.6	
654.42	5239.4	
654.6	6511.9	
654.79	7144	
654.98	4741.7	
655.16	5328.1	
655.35	6123.4	
655.54	6120	
655.73	4812.7	
655.91	4793.6	
656.1	7259.4	
656.29	6027.2	
656.47	4323.9	
656.66	6091.3	
656.85	6283.9	
657.03	6282.5	
657.22	4860.5	
657.41	4890.5	
657.59	6425.2	
657.78	6169.2	
657.97	4528.1	
658.16	5337.7	
658.34	7020.4	
658.53	7489.4	
658.72	6229.2	
658.9	6703	
659.09	6434	
659.28	6582.2	
659.46	4986.8	
659.65	4937	
659.84	6262.7	
660.02	6757.6	
660.21	4789.5	
660.4	4788.2	
660.58	7303.1	
660.77	6653.2	
660.96	5395.7	
661.14	4399.7	
661.33	7823.9	
661.52	7651.2	
661.7	4386.1	
661.89	8274.5	
662.08	6212.9	
662.26	5822.4	
662.45	4719.9	
662.64	4804.5	
662.82	6903	
663.01	6107.7	
663.2	4827.1	
663.38	5651.7	
663.57	6838.9	
663.75	6767.9	
663.94	5123.3	
664.13	6451.1	
664.31	6224.5	
664.5	6987	
664.69	5352.7	
664.87	6090.7	
665.06	5970.5	
665.25	6683.9	
665.43	6250.4	
665.62	6269.5	
665.8	7062.8	
665.99	6309.1	
666.18	5175.9	
666.36	5344.5	
666.55	7005.4	
666.74	6963.8	
666.92	4772.4	
667.11	6571.2	
667.29	6352.8	
667.48	7004.7	
667.67	6100.9	
667.85	5090.6	
668.04	6465.4	
668.22	6317.3	
668.41	5240.1	
668.6	5442.8	
668.78	6155.5	
668.97	6465.4	
669.15	5689.9	
669.34	4562.2	
669.53	6169.2	
669.71	6517.3	
669.9	4741	
670.08	5468.1	
670.27	6158.2	
670.46	6761.7	
670.64	5688.6	
670.83	5925.5	
671.01	6088.6	
671.2	6774.7	
671.38	4732.2	
671.57	4775.9	
671.76	7352.2	
671.94	8004.8	
672.13	4633.9	
672.31	5855.8	
672.5	6959.7	
672.69	6187.6	
672.87	4809.3	
673.06	5190.2	
673.24	6721.4	
673.43	6199.9	
673.61	5569.1	
673.8	5101.5	
673.98	6965.1	
674.17	7101	
674.36	5765.7	
674.54	5559.6	
674.73	6706.4	
674.91	6905.8	
675.1	5248.3	
675.28	4896.7	
675.47	6436.8	
675.65	7057.3	
675.84	5147.9	
676.03	5453.1	
676.21	6178.7	
676.4	5734.3	
676.58	6038.1	
676.77	5666	
676.95	7774.8	
677.14	6165.8	
677.32	4853.7	
677.51	4650.3	
677.69	6986.3	
677.88	5768.4	
678.06	4631.8	
678.25	4835.9	
678.44	6437.4	
678.62	6193.1	
678.81	4493.2	
678.99	5472.2	
679.18	7297.6	
679.36	6889.4	
679.55	5104.2	
679.73	5754.1	
679.92	6884.6	
680.1	6249.7	
680.29	6355.5	
680.47	5060.5	
680.66	6061.3	
680.84	6993.1	
681.03	4353.3	
681.21	5629.9	
681.4	6240.8	
681.58	6084.5	
681.77	4907.6	
681.95	4829.1	
682.14	7095.5	
682.32	7496.2	
682.51	5799.2	
682.69	4573.1	
682.88	6143.2	
683.06	6835.4	
683.25	5436	
683.43	6004	
683.62	6404.7	
683.8	6867.5	
683.99	6079.1	
684.17	5309.7	
684.36	7820.5	
684.54	6409.5	
684.73	4575.2	
684.91	4769.7	
685.1	6757.6	
685.28	6184.2	
685.46	5450.3	
685.65	5570.5	
685.83	7086	
686.02	6383.5	
686.2	4891.2	
686.39	5042.1	
686.57	6221.7	
686.76	7847.8	
686.94	4891.2	
687.13	5031.9	
687.31	6865.5	
687.5	6401.3	
687.68	4427.7	
687.86	5869.5	
688.05	8210.3	
688.23	5840.8	
688.42	5845.6	
688.6	4926.7	
688.79	6257.9	
688.97	6193.1	
689.16	5341.8	
689.34	4179.9	
689.52	7003.4	
689.71	7193.8	
689.89	5621	
690.08	4866	
690.26	6535.8	
690.45	6400.6	
690.63	5874.9	
690.81	5002.5	
691	6204	
691.18	6193.1	
691.37	5215.5	
691.55	7578.2	
691.74	6079.1	
691.92	8269.7	
692.1	5203.9	
692.29	4616.8	
692.47	6333.7	
692.66	5717.9	
692.84	4857.1	
693.02	5405.3	
693.21	5748	
693.39	6305.7	
693.58	5389.6	
693.76	4838	
693.94	7525.6	
694.13	7296.9	
694.31	4786.8	
694.5	5913.2	
694.68	6069.5	
694.86	6376.7	
695.05	5190.2	
695.23	5600.5	
695.42	6766.5	
695.6	9254.1	
695.78	5855.8	
695.97	4868	
696.15	6812.9	
696.34	6176.7	
696.52	4638.6	
696.7	5530.9	
696.89	6537.8	
697.07	6028.5	
697.25	5440.1	
697.44	7060.7	
697.62	6522.8	
697.81	6984.3	
697.99	5143.1	
698.17	5653.8	
698.36	5949.3	
698.54	6624.5	
698.72	5439.4	
698.91	4472.8	
699.09	6266.1	
699.28	6100.2	
699.46	5170.4	
699.64	5027.1	
699.83	5932.3	
700.01	7298.3	
700.19	5816.9	
700.38	4155.3	
700.56	7185.6	
700.74	6024.4	
700.93	4634.6	
701.11	5471.5	
701.29	6593.1	
701.48	7662.1	
701.66	4784.1	
701.84	4823	
702.03	6154.8	
702.21	6759	
702.39	4332.1	
702.58	4954	
702.76	6571.9	
702.94	6716	
703.13	4363.5	
703.31	6962.4	
703.49	5819.6	
703.68	7445.7	
703.86	4591.5	
704.04	5614.8	
704.23	6380.8	
704.41	6808.8	
704.59	4764.3	
704.78	6111.8	
704.96	7432.1	
705.14	6815.6	
705.33	4460.5	
705.51	5337.7	
705.69	6174.6	
705.87	7045.7	
706.06	5629.2	
706.24	4498	
706.42	6536.4	
706.61	6763.1	
706.79	5673.6	
706.97	4529.4	
707.16	5932.3	
707.34	6646.3	
707.52	5659.9	
707.7	4741.7	
707.89	6038.1	
708.07	5771.2	
708.25	5642.2	
708.44	5944.6	
708.62	5992.4	
708.8	7249.1	
708.98	5960.3	
709.17	4752	
709.35	6422.4	
709.53	6517.3	
709.72	4474.8	
709.9	5073.5	
710.08	6709.1	
710.26	6773.3	
710.45	6232	
710.63	4922	
710.81	6369.2	
710.99	6423.8	
711.18	5509	
711.36	4989.5	
711.54	6238.1	
711.72	7024.5	
711.91	5078.3	
712.09	4493.9	
712.27	6408.1	
712.45	7462.1	
712.64	5413.5	
712.82	4335.5	
713	5939.8	
713.18	6058.6	
713.37	4554.7	
713.55	5858.6	
713.73	7036.8	
713.91	5652.4	
714.1	5073.5	
714.28	4533.5	
714.46	6849.1	
714.64	5989.6	
714.83	4024.3	
715.01	4937	
715.19	6083.1	
715.37	5607.3	
715.55	4619.5	
715.74	4910.3	
715.92	7154.2	
716.1	5068.7	
716.28	6178	
716.47	5107	
716.65	5840.8	
716.83	5984.8	
717.01	5003.9	
717.19	5098.1	
717.38	8191.9	
717.56	5514.5	
717.74	5294.7	
717.92	4283.7	
718.1	6864.1	
718.29	5938.4	
718.47	3931.4	
718.65	4610.7	
718.83	6656.6	
719.01	6450.4	
719.2	3708.9	
719.38	4836.6	
719.56	6262.7	
719.74	7870.3	
719.92	4437.9	
720.11	5546.6	
720.29	6309.8	
720.47	5394.3	
720.65	3964.9	
720.83	4930.1	
721.02	5797.8	
721.2	5575.3	
721.38	5109.7	
721.56	4250.2	
721.74	5081.7	
721.92	5328.8	
722.11	5593.7	
722.29	5271.5	
722.47	6587.6	
722.65	5767.1	
722.83	4265.9	
723.01	5294	
723.2	5825.1	
723.38	6190.3	
723.56	3717.7	
723.74	4924	
723.92	5329.5	
724.1	6569.9	
724.29	4191.5	
724.47	5486.5	
724.65	5340.4	
724.83	5332.2	
725.01	4135.5	
725.19	5073.5	
725.37	5384.1	
725.56	5481.7	
725.74	3956.7	
725.92	4183.3	
726.1	5281	
726.28	5556.1	
726.46	4699.4	
726.64	4390.2	
726.83	5542.5	
727.01	5930.2	
727.19	3979.2	
727.37	4812	
727.55	5752.7	
727.73	6231.3	
727.91	3945.8	
728.09	3738.9	
728.28	6241.5	
728.46	6946	
728.64	4930.1	
728.82	4868	
729	7437.5	
729.18	6557.6	
729.36	3984.7	
729.54	6495.5	
729.72	7636.9	
729.91	5814.2	
730.09	5975.3	
730.27	4715.1	
730.45	5649	
730.63	6335.7	
730.81	5229.1	
730.99	4317.1	
731.17	6871.6	
731.35	5350	
731.53	4819.6	
731.71	4440	
731.9	6538.5	
732.08	6857.3	
732.26	4650.9	
732.44	4371.7	
732.62	6824.5	
732.8	6333.7	
732.98	5130.8	
733.16	4136.9	
733.34	6317.3	
733.52	5032.5	
733.7	4756.7	
733.88	5020.9	
734.07	6173.3	
734.25	5879.7	
734.43	4149.9	
734.61	5825.8	
734.79	7438.9	
734.97	5726.8	
735.15	4234.5	
735.33	4663.9	
735.51	6194.4	
735.69	5799.8	
735.87	5828.5	
736.05	4875.5	
736.23	5976	
736.41	5746.6	
736.59	4653	
736.77	4757.4	
736.95	6411.5	
737.13	5756.8	
737.32	4343.1	
737.5	4482.3	
737.68	7013.6	
737.86	5715.9	
738.04	4043.4	
738.22	6154.1	
738.4	5524.1	
738.58	5836	
738.76	4810	
738.94	3672	
739.12	5649.7	
739.3	5535	
739.48	5461.2	
739.66	5131.5	
739.84	5911.8	
740.02	5952.1	
740.2	3753.9	
740.38	4156	
740.56	6331.6	
740.74	5175.9	
740.92	4801.8	
741.1	4773.8	
741.28	5711.1	
741.46	5636	
741.64	4367.6	
741.82	4997	
742	5805.3	
742.18	5780.1	
742.36	4642.1	
742.54	4254.3	
742.72	6311.2	
742.9	5117.2	
743.08	5066	
743.26	3827	
743.44	6645	
743.62	6469.5	
743.8	5253	
743.98	4302.8	
744.16	6167.8	
744.34	5849.7	
744.52	5104.9	
744.7	5064.6	
744.88	6292.7	
745.06	5870.8	
745.24	5194.3	
745.42	5360.9	
745.6	6386.9	
745.78	6171.9	
745.96	4003.8	
746.14	4257.7	
746.32	7216.4	
746.5	6495.5	
746.68	4903.5	
746.86	4334.9	
747.03	6903.7	
747.21	5107	
747.39	4921.3	
747.57	4397.7	
747.75	6004	
747.93	6480.5	
748.11	4367	
748.29	4298.7	
748.47	7752.9	
748.65	5773.9	
748.83	5143.1	
749.01	4823.6	
749.19	6300.9	
749.37	5431.2	
749.55	4719.9	
749.73	4774.5	
749.91	5932.3	
750.09	5656.5	
750.26	4807.3	
750.44	4237.2	
750.62	5923.4	
750.8	5937.7	
750.98	4014	
751.16	4390.8	
751.34	6037.4	
751.52	5313.8	
751.7	5216.9	
751.88	4029	
752.06	6488.6	
752.24	6279.8	
752.42	3971.7	
752.59	4376.5	
752.77	5890	
752.95	7277.8	
753.13	5144.5	
753.31	4511	
753.49	5555.5	
753.67	6154.1	
753.85	4835.9	
754.03	4403.1	
754.21	6449.7	
754.38	6813.6	
754.56	4591.5	
754.74	3672	
754.92	5679.7	
755.1	6473.6	
755.28	3788.7	
755.46	3871.3	
755.64	7340.6	
755.82	7527	
755.99	4236.6	
756.17	4407.9	
756.35	4887.1	
756.53	6618.4	
756.71	3287	
756.89	4192.9	
757.07	6164.4	
757.25	5169.1	
757.42	4772.4	
757.6	5693.4	
757.78	6156.2	
757.96	5063.3	
758.14	4416.8	
758.32	3860.4	
758.5	4645.5	
758.67	5518.6	
758.85	4228.4	
759.03	4370.4	
759.21	5758.2	
759.39	5125.4	
759.57	3790.8	
759.75	5082.4	
759.92	6356.2	
760.1	5583.4	
760.28	5336.3	
760.46	5584.8	
760.64	5408.7	
760.82	5068	
760.99	5219.6	
761.17	4283	
761.35	6193.7	
761.53	5053.7	
761.71	4383.3	
761.89	5101.5	
762.06	5986.9	
762.24	5461.9	
762.42	4420.9	
762.6	4172.4	
762.78	5459.9	
762.96	6118.6	
763.13	4767	
763.31	4537.6	
763.49	6342.6	
763.67	5425.8	
763.85	5369.1	
764.02	6025.1	
764.2	6561.7	
764.38	5773.2	
764.56	4359.4	
764.74	5308.3	
764.91	6781.5	
765.09	5562.3	
765.27	3934.1	
765.45	3858.4	
765.63	6757.6	
765.8	6588.3	
765.98	3515.7	
766.16	3829.7	
766.34	5138.4	
766.52	4952.7	
766.69	4850.3	
766.87	3710.2	
767.05	5588.9	
767.23	6351.4	
767.41	4100	
767.58	4416.1	
767.76	6126.2	
767.94	6236.1	
768.12	4131.4	
768.29	4959.5	
768.47	5728.9	
768.65	6425.8	
768.83	3812	
769	5008	
769.18	5203.9	
769.36	5942.5	
769.54	5030.5	
769.72	3870	
769.89	6307.7	
770.07	6400.6	
770.25	4222.9	
770.43	5556.1	
770.6	7134.4	
770.78	7578.8	
770.96	4414.7	
771.14	5038	
771.31	6173.9	
771.49	5578	
771.67	3561.4	
771.85	3820.8	
772.02	4737.6	
772.2	5579.3	
772.38	4700.1	
772.55	4128	
772.73	5797.8	
772.91	5597.1	
773.09	4473.4	
773.26	4584.7	
773.44	5804.6	
773.62	5384.1	
773.8	3930.1	
773.97	3716.4	
774.15	5887.9	
774.33	5487.2	
774.5	3855.6	
774.68	4298.7	
774.86	6066.8	
775.04	5522	
775.21	3987.4	
775.39	3966.9	
775.57	5774.6	
775.74	6217.6	
775.92	3823.6	
776.1	3732.1	
776.27	5773.2	
776.45	7091.4	
776.63	3979.2	
776.81	3472.7	
776.98	5406.6	
777.16	6589.7	
777.34	4213.4	
777.51	4493.2	
777.69	5453.1	
777.87	5157.5	
778.04	4145.8	
778.22	4909	
778.4	5203.9	
778.57	5959.6	
778.75	3448.8	
778.93	3794.2	
779.1	5039.4	
779.28	4894.6	
779.46	3502.7	
779.64	4009.9	
779.81	6135	
779.99	7019.8	
780.17	4787.5	
780.34	5042.1	
780.52	5492.7	
780.69	5765.7	
780.87	4391.5	
781.05	3878.2	
781.22	5582.1	
781.4	5687.2	
781.58	4060.4	
781.75	3121.8	
781.93	5699.5	
782.11	5011.4	
782.28	5034.6	
782.46	4035.2	
782.64	4865.3	
782.81	5792.3	
782.99	4151.9	
783.17	4098.7	
783.34	5766.4	
783.52	4875.5	
783.69	4413.4	
783.87	5251.7	
784.05	5093.3	
784.22	5031.2	
784.4	5204.6	
784.58	4489.8	
784.75	6040.1	
784.93	5079.6	
785.1	4086.4	
785.28	4788.2	
785.46	5703.6	
785.63	5012.1	
785.81	4031.1	
785.99	3851.5	
786.16	5231.9	
786.34	5635.3	
786.51	3981.9	
786.69	4430.4	
786.87	4812	
787.04	5381.4	
787.22	3814.7	
787.39	4833.2	
787.57	5035.3	
787.75	6264.7	
787.92	4968.4	
788.1	4954	
788.27	5124.7	
788.45	4815.5	
788.63	4681	
788.8	3297.9	
788.98	5413.5	
789.15	4749.9	
789.33	3413.3	
789.5	4134.2	
789.68	6027.9	
789.86	6216.3	
790.03	4589.5	
790.21	3952.6	
790.38	6112.5	
790.56	5246.9	
790.73	3854.3	
790.91	3831.1	
791.09	5055.8	
791.26	5931.6	
791.44	4098	
791.61	3582.6	
791.79	5070.8	
791.96	5124	
792.14	3599	
792.32	3252.2	
792.49	5137	
792.67	5251	
792.84	3713	
793.02	3444.7	
793.19	5508.4	
793.37	6345.3	
793.54	3204.4	
793.72	3640.6	
793.89	6611.5	
794.07	5096.7	
794.25	4273.4	
794.42	3311.6	
794.6	6242.2	
794.77	5841.5	
794.95	4539	
795.12	3926.6	
795.3	5110.4	
795.47	5804.6	
795.65	4379.9	
795.82	4212	
796	4913.8	
796.17	6946.7	
796.35	4085.7	
796.52	4773.1	
796.7	5640.1	
796.87	5808	
797.05	5052.3	
797.22	5033.2	
797.4	5770.5	
797.57	6752.2	
797.75	4180.6	
797.92	3969.6	
798.1	6067.4	
798.27	5121.3	
798.45	3334.8	
798.62	3612.6	
798.8	5389.6	
798.97	5949.3	
799.15	4462.5	
799.32	4224.3	
799.5	4633.9	
799.67	5528.2	
799.85	4545.1	
800.02	3256.3	
800.2	5024.3	
800.37	5434.6	
800.55	4819.6	
800.72	3913	
800.9	5883.8	
801.07	6470.2	
801.25	5401.9	
801.42	4307.6	
801.6	5988.9	
801.77	5698.8	
801.95	4045.4	
802.12	3852.2	
802.29	5655.8	
802.47	5629.9	
802.64	4318.5	
802.82	3213.3	
802.99	5066.7	
803.17	6195.1	
803.34	4224.3	
803.52	3768.9	
803.69	6871.6	
803.87	4895.3	
804.04	4151.9	
804.21	4272.1	
804.39	6223.8	
804.56	5275.6	
804.74	3553.9	
804.91	4373.1	
805.09	5068.7	
805.26	5221.6	
805.44	3622.9	
805.61	3962.1	
805.78	5766.4	
805.96	5869.5	
806.13	4337.6	
806.31	4711	
806.48	4708.3	
806.66	5194.3	
806.83	4328.7	
807	4250.9	
807.18	5110.4	
807.35	5574.6	
807.53	4244.8	
807.7	3318.4	
807.87	6391.7	
808.05	5194.3	
808.22	4724.7	
808.4	3371	
808.57	5219.6	
808.74	4791.6	
808.92	3885.7	
809.09	4993.6	
809.27	5001.8	
809.44	5685.2	
809.61	3430.3	
809.79	3883.6	
809.96	6304.3	
810.14	5952.1	
810.31	3263.8	
810.48	4081.6	
810.66	5315.2	
810.83	6036.7	
811.01	3880.9	
811.18	4344.4	
811.35	5986.9	
811.53	4603.8	
811.7	4675.5	
811.87	4417.5	
812.05	5145.2	
812.22	5074.2	
812.39	3738.2	
812.57	3595.6	
812.74	5160.2	
812.92	6976.7	
813.09	4022.2	
813.26	4471.4	
813.44	6750.1	
813.61	5059.2	
813.78	3430.3	
813.96	4625.7	
814.13	5177.9	
814.3	4834.6	
814.48	4856.4	
814.65	4110.3	
814.82	6466.8	
815	4941.1	
815.17	4193.6	
815.34	5156.1	
815.52	5057.1	
815.69	5111	
815.87	4149.9	
816.04	3536.2	
816.21	5214.8	
816.38	4524	
816.56	4095.9	
816.73	3756	
816.9	6522.8	
817.08	5997.8	
817.25	3827	
817.42	4729.4	
817.6	4747.9	
817.77	5188.2	
817.94	4330.1	
818.12	3780.6	
818.29	4926	
818.46	7765.9	
818.64	3913.7	
818.81	3636.5	
818.98	4767	
819.16	7111.2	
819.33	4474.8	
819.5	4207.2	
819.67	5580	
819.85	6292	
820.02	4098.7	
820.19	4407.2	
820.37	5420.3	
820.54	4994.3	
820.71	4295.3	
820.88	5334.3	
821.06	5411.4	
821.23	4924.7	
821.4	4330.8	
821.58	4208.6	
821.75	5952.8	
821.92	5356.8	
822.09	3407.8	
822.27	3740.3	
822.44	5227.1	
822.61	5134.9	
822.79	3464.5	
822.96	6640.9	
823.13	5745.9	
823.3	4874.2	
823.48	4033.1	
823.65	3581.2	
823.82	5943.9	
823.99	4655	
824.17	5135.6	
824.34	3677.5	
824.51	6892.1	
824.68	5253.7	
824.86	3781.9	
825.03	4225	
825.2	5219.6	
825.37	6380.8	
825.55	3789.4	
825.72	4239.3	
825.89	6966.5	
826.06	6440.2	
826.24	4089.1	
826.41	4108.2	
826.58	6326.9	
826.75	5469.4	
826.92	3192.1	
827.1	3521.1	
827.27	8746.2	
827.44	6992.4	
827.61	3833.1	
827.79	4735.6	
827.96	4894.6	
828.13	5347.2	
828.3	4035.2	
828.47	3388.7	
828.65	5370.5	
828.82	5340.4	
828.99	5320.6	
829.16	4666.6	
829.34	5805.3	
829.51	5563.6	
829.68	4290.5	
829.85	4399.7	
830.02	6140.5	
830.2	5848.3	
830.37	3267.9	
830.54	5130.2	
830.71	6699.6	
830.88	5190.2	
831.05	3269.2	
831.23	3786	
831.4	6352.8	
831.57	7238.2	
831.74	3909.6	
831.91	3429.7	
832.09	5391.6	
832.26	5815.5	
832.43	4037.9	
832.6	4583.4	
832.77	5444.9	
832.94	6182.1	
833.12	3181.2	
833.29	3999	
833.46	4981.3	
833.63	7473	
833.8	4398.4	
833.97	4092.5	
834.15	5838.1	
834.32	5569.8	
834.49	4241.3	
834.66	4349.2	
834.83	6042.2	
835	4906.9	
835.17	3895.9	
835.35	3949.8	
835.52	5715.9	
835.69	5540.4	
835.86	4240.7	
836.03	3409.2	
836.2	5736.4	
836.37	5326.1	
836.55	4067.3	
836.72	3811.3	
836.89	5367.7	
837.06	5893.4	
837.23	4117.8	
837.4	4556.7	
837.57	6713.9	
837.75	7462.1	
837.92	3727.3	
838.09	3967.6	
838.26	5345.9	
838.43	6196.5	
838.6	4311.7	
838.77	3770.3	
838.94	7090.8	
839.11	6711.2	
839.29	3998.3	
839.46	3175	
839.63	5743.2	
839.8	5582.8	
839.97	3964.9	
840.14	3936.2	
840.31	5533.6	
840.48	5824.4	
840.65	3224.2	
840.82	4010.6	
841	5838.1	
841.17	5744.6	
841.34	3558.7	
841.51	3648.1	
841.68	5712.5	
841.85	5465.3	
842.02	3807.2	
842.19	3097.9	
842.36	5575.9	
842.53	5511.8	
842.7	3622.2	
842.87	4485.7	
843.05	7397.9	
843.22	5453.7	
843.39	3437.2	
843.56	3694.5	
843.73	5231.2	
843.9	5868.8	
844.07	6019	
844.24	4937	
844.41	8647.9	
844.58	5015.5	
844.75	3459.7	
844.92	3842	
845.09	5784.8	
845.26	5802.6	
845.43	3559.4	
845.6	3807.2	
845.77	5805.3	
845.94	5468.8	
846.12	3972.4	
846.29	4194.9	
846.46	5997.8	
846.63	5827.2	
846.8	3587.4	
846.97	4270.7	
847.14	6226.5	
847.31	5731.6	
847.48	4078.2	
847.65	4425.7	
847.82	6110.5	
847.99	6040.8	
848.16	4816.1	
848.33	4507.6	
848.5	5373.2	
848.67	6354.8	
848.84	3619.4	
849.01	3733.4	
849.18	5181.4	
849.35	4863.9	
849.52	4549.2	
849.69	3505.4	
849.86	5984.8	
850.03	6209.4	
850.2	3605.8	
850.37	4461.2	
850.54	6194.4	
850.71	5478.3	
850.88	4285	
851.05	3513.6	
851.22	5711.1	
851.39	6413.6	
851.56	3436.5	
851.73	4112.3	
851.9	5003.2	
852.07	6068.8	
852.24	3962.8	
852.41	3605.8	
852.58	5614.2	
852.75	5188.2	
852.92	4005.8	
853.09	3517	
853.26	5380	
853.43	6276.3	
853.6	3559.4	
853.77	3028.3	
853.94	6419.7	
854.11	5791	
854.28	5375.9	
854.44	3865.2	
854.61	6849.1	
854.78	6186.9	
854.95	3559.4	
855.12	4545.1	
855.29	4653.7	
855.46	6393.1	
855.63	3577.8	
855.8	5004.6	
855.97	5358.9	
856.14	6118.6	
856.31	5154.7	
856.48	3889.8	
856.65	5298.8	
856.82	5057.8	
856.99	3414.6	
857.16	3941	
857.33	7182.2	
857.49	5425.8	
857.66	3874.8	
857.83	4165.6	
858	5376.6	
858.17	5614.8	
858.34	3401.7	
858.51	3554.6	
858.68	6573.3	
858.85	6638.1	
859.02	4227.7	
859.19	4477.5	
859.36	5023.7	
859.52	5111	
859.69	3586	
859.86	4217.5	
860.03	5124.7	
860.2	6432	
860.37	3248.1	
860.54	3667.9	
860.71	6080.4	
860.88	6449.7	
861.05	4009.9	
861.21	4567.7	
861.38	6584.9	
861.55	4965	
861.72	3222.1	
861.89	4037.2	
862.06	6115.2	
862.23	6603.3	
862.4	3533.4	
862.56	3727.3	
862.73	5930.9	
862.9	5612.1	
863.07	4210.6	
863.24	3283.6	
863.41	5079.6	
863.58	5126.1	
863.75	3596.9	
863.91	4159.4	
864.08	6444.3	
864.25	5973.2	
864.42	4500.1	
864.59	5132.9	
864.76	6805.4	
864.93	5080.3	
865.09	3543	
865.26	3831.1	
865.43	6337.8	
865.6	6779.5	
865.77	3130	
865.94	3548.4	
866.1	6412.2	
866.27	6098.2	
866.44	5433.9	
866.61	3413.3	
866.78	5472.2	
866.95	5975.3	
867.11	3480.2	
867.28	3194.1	
867.45	6121.4	
867.62	5222.3	
867.79	4225	
867.96	3566.9	
868.12	5116.5	
868.29	6082.5	
868.46	3101.3	
868.63	4838	
868.8	6264.7	
868.97	6028.5	
869.13	3767.6	
869.3	3753.2	
869.47	5881.8	
869.64	6151.4	
869.81	3632.4	
869.97	3586.7	
870.14	5792.3	
870.31	6550.8	
870.48	3586	
870.65	4562.9	
870.81	5417.6	
870.98	5369.1	
871.15	4116.4	
871.32	3757.3	
871.48	5916.6	
871.65	6529.6	
871.82	3532.1	
871.99	3926	
872.16	7105.8	
872.32	6360.3	
872.49	3588.7	
872.66	3663.1	
872.83	6006.7	
872.99	5249.6	
873.16	4189.5	
873.33	3510.2	
873.5	5643.5	
873.67	5701.5	
873.83	3815.4	
874	4875.5	
874.17	5790.3	
874.34	7055.3	
874.5	4627.7	
874.67	4526	
874.84	6501.6	
875.01	5073.5	
875.17	5085.1	
875.34	3590.1	
875.51	5694.7	
875.68	6935.8	
875.84	4342.4	
876.01	5340.4	
876.18	6041.5	
876.34	5993.7	
876.51	3644.7	
876.68	3465.2	
876.85	5520	
877.01	6258.6	
877.18	5122.7	
877.35	3573.7	
877.52	5541.1	
877.68	5016.2	
877.85	3533.4	
878.02	3550.5	
878.18	5591	
878.35	5244.8	
878.52	2851.5	
878.69	4046.8	
878.85	6000.5	
879.02	6019.7	
879.19	5126.7	
879.35	3919.1	
879.52	5960.3	
879.69	6240.8	
879.86	3084.9	
880.02	4020.8	
880.19	5488.6	
880.36	6870.3	
880.52	4177.2	
880.69	4295.3	
880.86	6052.4	
881.02	6255.9	
881.19	3969	
881.36	3975.8	
881.52	6007.4	
881.69	5300.8	
881.86	3901.4	
882.02	3792.2	
882.19	6283.9	
882.36	7410.9	
882.52	3678.2	
882.69	5042.1	
882.86	5772.5	
883.02	5637.4	
883.19	4437.9	
883.36	4147.8	
883.52	6157.6	
883.69	6992.4	
883.86	3647.4	
884.02	3244	
884.19	6062.7	
884.36	5569.8	
884.52	4038.6	
884.69	3774.4	
884.86	5291.3	
885.02	6778.8	
885.19	4037.9	
885.36	4122.6	
885.52	5610.8	
885.69	5787.6	
885.86	5267.4	
886.02	4661.9	
886.19	6077.7	
886.35	5446.2	
886.52	3989.4	
886.69	5072.8	
886.85	5229.8	
887.02	6432	
887.19	6432	
887.35	6432	
887.52	6432	
887.68	6432	
887.85	6432	
888.02	6432	
888.18	6432	
888.35	6432	
888.51	6432	
888.68	6432	
888.85	6432	
889.01	6432	
889.18	6432	
889.35	6432	
889.51	6432	
889.68	6432	
889.84	6432	
890.01	6432	
890.17	6432	
890.34	6432	
890.51	6432	
890.67	6432	
890.84	6432	
891	6432	
891.17	6432	
891.34	6432	
891.5	6432	
891.67	6432	
891.83	6432	
892	6432	
892.16	6432	
892.33	6432	
892.5	6432	
892.66	6432	
892.83	6432	
892.99	6432	
893.16	6432	
893.32	6432	
893.49	6432	
893.65	6432	
893.82	6432	
893.99	6432	
894.15	6432	
894.32	6432	
894.48	6432	
894.65	6432	
894.81	6432	
894.98	6432	
895.14	6432	
895.31	6432	
895.47	6432	
895.64	6432	
895.81	6432	
895.97	6432	
896.14	6432	
896.3	6432	
896.47	6432	
896.63	6432	
896.8	6432	
896.96	6432	
897.13	6432	
897.29	6432	
897.46	6432	
897.62	6432	
897.79	6432	
897.95	6432	
898.12	6432	
898.28	6432	
898.45	6432	
898.61	6432	
898.78	6432	
898.94	6432	
899.11	6432	
899.27	6432	
899.44	6432	
899.6	6432	
899.77	6432	
899.93	6432	
900.1	6432	
900.26	6432	
900.43	6432	
900.59	6432	
900.76	6432	
900.92	6432	
901.09	6432	
901.25	6432	
901.42	6432	
901.58	6432	
901.75	6432	
901.91	6432	
902.07	6432	
902.24	6432	
902.4	6432	
902.57	6432	
902.73	6432	
902.9	6432	
903.06	6432	
903.23	6432	
903.39	6432	
903.56	6432	
903.72	6432	
903.88	6432	
904.05	6432	
904.21	6432	
904.38	6432	
904.54	6432	
904.71	6432	
904.87	6432	
905.03	6432	
905.2	6432	
905.36	6432	
905.53	6432	
905.69	6432	
905.86	6432	
906.02	6432	
906.18	6432	
906.35	6432	
906.51	6432	
906.68	6432	
906.84	6432	
907.01	6432	
907.17	6432	
907.33	6432	
907.5	6432	
907.66	6432	
907.83	6432	
907.99	6432	
908.15	6432	
908.32	6432	
908.48	6432	
908.65	6432	
908.81	6432	
908.97	6432	
909.14	6432	
909.3	6432	
909.47	6432	
909.63	6432	
909.79	6432	
909.96	6432	
910.12	6432	
910.28	6432	
910.45	6432	
910.61	6432	
910.78	6432	
910.94	6432	
911.1	6432	
911.27	6432	
911.43	6432	
911.59	6432	
911.76	6432	
911.92	6432	
912.08	6432	
912.25	6432	
912.41	6432	
912.57	6432	
912.74	6432	
912.9	6432	
913.07	6432	
913.23	6432	
913.39	6432	
913.56	6432	
913.72	6432	
913.88	6432	
914.05	6432	
914.21	6432	
914.37	6432	
914.54	6432	
914.7	6432	
914.86	6432	
915.03	6432	
915.19	6432	
