Wavelength	Intensities	
nm	a.u.	
179.22	1629.2	
179.44	1632.2	
179.65	1626.1	
179.86	1638.4	
180.08	1673.9	
180.29	3764.8	
180.51	2900.6	
180.72	4836.6	
180.94	5386.8	
181.15	2611.8	
181.37	2620.7	
181.58	4617.5	
181.79	4823	
182.01	2675.3	
182.22	2814.6	
182.44	4893.3	
182.65	4274.1	
182.87	3446	
183.08	3070.6	
183.29	5062.6	
183.51	4246.1	
183.72	2877.4	
183.94	3929.4	
184.15	4612.7	
184.37	4498.7	
184.58	2617.3	
184.79	3286.3	
185.01	4321.9	
185.22	4906.9	
185.44	3478.1	
185.65	3049.4	
185.86	4601.8	
186.08	4261.1	
186.29	2514.2	
186.51	2670.6	
186.72	4350.6	
186.94	4930.1	
187.15	3041.9	
187.36	3096.5	
187.58	6090.7	
187.79	4655	
188.01	3191.4	
188.22	4664.6	
188.43	5359.5	
188.65	4848.2	
188.86	2729.3	
189.08	3170.3	
189.29	4431.8	
189.5	4400.4	
189.72	2887.6	
189.93	2951.8	
190.15	4914.4	
190.36	5713.8	
190.57	3082.9	
190.79	2981.2	
191	4954.7	
191.22	4952	
191.43	3190.7	
191.64	2698.5	
191.86	5166.3	
192.07	4966.3	
192.29	2744.3	
192.5	2918.4	
192.71	4960.9	
192.93	4437.9	
193.14	2846.7	
193.35	2997.5	
193.57	4385.4	
193.78	5042.1	
194	2399.5	
194.21	2792.7	
194.42	4205.8	
194.64	4568.3	
194.85	3120.4	
195.07	3516.4	
195.28	4490.5	
195.49	4089.8	
195.71	3732.8	
195.92	2720.4	
196.13	4764.3	
196.35	4733.5	
196.56	3837.9	
196.78	3081.5	
196.99	5723.4	
197.2	5350	
197.42	3430.3	
197.63	3083.6	
197.84	4212	
198.06	4758.8	
198.27	2889	
198.48	3701.4	
198.7	4416.8	
198.91	4601.8	
199.13	3093.1	
199.34	3108.8	
199.55	4937.7	
199.77	4026.3	
199.98	2798.2	
200.19	3119.7	
200.41	4612	
200.62	4320.5	
200.83	3205.8	
201.05	3447.4	
201.26	4549.9	
201.47	4382	
201.69	2787.3	
201.9	2736.8	
202.11	4595	
202.33	5272.2	
202.54	2914.9	
202.76	3233.1	
202.97	4605.2	
203.18	4730.8	
203.4	3165.5	
203.61	3231	
203.82	4635.9	
204.04	4417.5	
204.25	3102.7	
204.46	3097.2	
204.68	4617.5	
204.89	4748.6	
205.1	3082.2	
205.32	2695.1	
205.53	4866	
205.74	4939	
205.96	2368.1	
206.17	3130.7	
206.38	4860.5	
206.6	4930.1	
206.81	3522.5	
207.02	2958.6	
207.24	4728.1	
207.45	5024.3	
207.66	2935.4	
207.88	2641.9	
208.09	4704.2	
208.3	4560.8	
208.52	2820.7	
208.73	2994.8	
208.94	4605.9	
209.15	5043.5	
209.37	2972.3	
209.58	3119.1	
209.79	4950.6	
210.01	4462.5	
210.22	2513.5	
210.43	2557.9	
210.65	4498.7	
210.86	4779.3	
211.07	2987.3	
211.29	2693.1	
211.5	4745.1	
211.71	4546.5	
211.93	2829.6	
212.14	2805	
212.35	4557.4	
212.56	4655.7	
212.78	3173.7	
212.99	2598.2	
213.2	5159.5	
213.42	4532.2	
213.63	2856.9	
213.84	2951.1	
214.06	4175.1	
214.27	4229.7	
214.48	2959.3	
214.69	3133.4	
214.91	5053.7	
215.12	5024.3	
215.33	3121.8	
215.55	3390.1	
215.76	5421.7	
215.97	4832.5	
216.18	3044	
216.4	3007.8	
216.61	4311	
216.82	4894	
217.04	2798.9	
217.25	2918.4	
217.46	4995.7	
217.67	4836.6	
217.89	2570.2	
218.1	2585.9	
218.31	4689.2	
218.53	4690.5	
218.74	2950.4	
218.95	2822.1	
219.16	4552	
219.38	5264.6	
219.59	2826.2	
219.8	3285.6	
220.01	5559.6	
220.23	4597.7	
220.44	3540.9	
220.65	2749.7	
220.87	4678.2	
221.08	5039.4	
221.29	2658.9	
221.5	3321.1	
221.72	5833.3	
221.93	4379.9	
222.14	3140.2	
222.35	3612.6	
222.57	4578.6	
222.78	4921.3	
222.99	3009.1	
223.2	3167.5	
223.42	4801.8	
223.63	4885.1	
223.84	2359.9	
224.05	2352.4	
224.27	5529.5	
224.48	5173.9	
224.69	3618.1	
224.9	3146.4	
225.12	4709.6	
225.33	4548.5	
225.54	2573.6	
225.75	2820.7	
225.97	4308.2	
226.18	4542.4	
226.39	3037.8	
226.6	2846.7	
226.82	4405.9	
227.03	4292.5	
227.24	3098.6	
227.45	2642.6	
227.67	4873.5	
227.88	5133.6	
228.09	3433.1	
228.3	3453.6	
228.52	4803.2	
228.73	4523.3	
228.94	2930.6	
229.15	2629.6	
229.36	4515.8	
229.58	4548.5	
229.79	2962.7	
230	3335.5	
230.21	5325.4	
230.43	4606.6	
230.64	3093.1	
230.85	3174.4	
231.06	4955.4	
231.28	4921.3	
231.49	2623.4	
231.7	3127.9	
231.91	4831.2	
232.12	4577.9	
232.34	2712.9	
232.55	3011.9	
232.76	5006.6	
232.97	4684.4	
233.18	2765.4	
233.4	3073.3	
233.61	4702.8	
233.82	4393.6	
234.03	2899.9	
234.25	2880.8	
234.46	5984.2	
234.67	4610	
234.88	3171.6	
235.09	2879.4	
235.31	4785.4	
235.52	4502.1	
235.73	3069.9	
235.94	2674.6	
236.15	4377.9	
236.37	5310.4	
236.58	2809.8	
236.79	2991.4	
237	4769	
237.21	4205.8	
237.43	3184.6	
237.64	2573.6	
237.85	7253.9	
238.06	4345.8	
238.27	3145.7	
238.48	2700.6	
238.7	4843.4	
238.91	4493.2	
239.12	2950.4	
239.33	3107.5	
239.54	4308.9	
239.76	4481.6	
239.97	3007.8	
240.18	2985.3	
240.39	5335	
240.6	4736.3	
240.82	3153.9	
241.03	2581.1	
241.24	4590.2	
241.45	5124.7	
241.66	2769.5	
241.87	3222.1	
242.09	5166.3	
242.3	5301.5	
242.51	3235.1	
242.72	2972.3	
242.93	4831.8	
243.14	4521.2	
243.36	3422.8	
243.57	3676.1	
243.78	5166.3	
243.99	4803.9	
244.2	2992.8	
244.41	2727.2	
244.63	4250.9	
244.84	4722.6	
245.05	3133.4	
245.26	2921.8	
245.47	4788.2	
245.68	4862.6	
245.9	3815.4	
246.11	3092.4	
246.32	4444.8	
246.53	4717.2	
246.74	4639.3	
246.95	2614.6	
247.16	4347.8	
247.38	4595.6	
247.59	2622.8	
247.8	3019.4	
248.01	4245.4	
248.22	4547.2	
248.43	2749.7	
248.64	2943.6	
248.86	4222.9	
249.07	4402.5	
249.28	2772.9	
249.49	3095.2	
249.7	4932.2	
249.91	5018.9	
250.12	2639.8	
250.34	2671.2	
250.55	4607.2	
250.76	4586.8	
250.97	3079.5	
251.18	3117	
251.39	4944.5	
251.6	4694.6	
251.81	3140.2	
252.03	3121.8	
252.24	4420.9	
252.45	4782	
252.66	2732	
252.87	3307.5	
253.08	4590.9	
253.29	5877	
253.5	2721.8	
253.72	3605.1	
253.93	4505.5	
254.14	5220.3	
254.35	2880.8	
254.56	2942.9	
254.77	4676.9	
254.98	4333.5	
255.19	2888.3	
255.41	3542.3	
255.62	4727.4	
255.83	5009.3	
256.04	3197.6	
256.25	3042.6	
256.46	5427.8	
256.67	4311	
256.88	3082.9	
257.09	3427.6	
257.31	4289.1	
257.52	4309.6	
257.73	3794.9	
257.94	2917	
258.15	4511.7	
258.36	4540.3	
258.57	3512.9	
258.78	2365.4	
258.99	4943.8	
259.2	4489.1	
259.41	2880.1	
259.63	2953.9	
259.84	5104.9	
260.05	5338.4	
260.26	3672.7	
260.47	2775	
260.68	5000.5	
260.89	4457.1	
261.1	3370.3	
261.31	2777	
261.52	5071.5	
261.73	5161.6	
261.95	3640.6	
262.16	3203.7	
262.37	5039.4	
262.58	5150.6	
262.79	3633.8	
263	2882.9	
263.21	4582.7	
263.42	4156	
263.63	3122.5	
263.84	2933.4	
264.05	4926	
264.26	5180.7	
264.47	3530	
264.69	3149.1	
264.9	5073.5	
265.11	4709	
265.32	2796.8	
265.53	2870.6	
265.74	4633.2	
265.95	4100	
266.16	3038.5	
266.37	3278.8	
266.58	4647.5	
266.79	4448.9	
267	2895.8	
267.21	2680.1	
267.42	4264.6	
267.63	4564.9	
267.84	2950.4	
268.06	2669.2	
268.27	4941.1	
268.48	5094.7	
268.69	2957.3	
268.9	3332	
269.11	5029.8	
269.32	4164.9	
269.53	3024.2	
269.74	2826.2	
269.95	4694.6	
270.16	4210.6	
270.37	3025.5	
270.58	3397.6	
270.79	4479.6	
271	4932.2	
271.21	3154.6	
271.42	3026.2	
271.63	4743.8	
271.84	4264.6	
272.05	2536.8	
272.26	2789.3	
272.47	4576.5	
272.68	4670.1	
272.89	2930	
273.11	3222.1	
273.32	4392.9	
273.53	5111	
273.74	3147	
273.95	3160.7	
274.16	4879.6	
274.37	4559.5	
274.58	3331.4	
274.79	2708.1	
275	4722.6	
275.21	4994.3	
275.42	3784	
275.63	3276.8	
275.84	4818.2	
276.05	5746.6	
276.26	3153.2	
276.47	2910.2	
276.68	4533.5	
276.89	5295.4	
277.1	3319.8	
277.31	2698.5	
277.52	4701.5	
277.73	4985.4	
277.94	2671.2	
278.15	2899.9	
278.36	4753.3	
278.57	4382.7	
278.78	2889.7	
278.99	3182.5	
279.2	4453.6	
279.41	4320.5	
279.62	3650.8	
279.83	2708.8	
280.04	5473.5	
280.25	4323.3	
280.46	3708.9	
280.67	2979.1	
280.88	4351.9	
281.09	5000.5	
281.3	3118.4	
281.51	3807.9	
281.72	4377.2	
281.93	4884.4	
282.14	2873.3	
282.35	3081.5	
282.56	4988.9	
282.77	4847.5	
282.98	2906.8	
283.19	3437.9	
283.4	5791	
283.61	4483	
283.82	2765.4	
284.03	3570.3	
284.24	4739.7	
284.45	5011.4	
284.66	3695.2	
284.87	3411.2	
285.08	4978.6	
285.29	5074.2	
285.5	2654.2	
285.71	2898.6	
285.92	4969.7	
286.12	5414.8	
286.33	3637.2	
286.54	2943.6	
286.75	4922	
286.96	4479.6	
287.17	2761.3	
287.38	3454.2	
287.59	4382	
287.8	4375.8	
288.01	2959.3	
288.22	3300	
288.43	4798.4	
288.64	4180.6	
288.85	3442	
289.06	3246	
289.27	4940.4	
289.48	5100.8	
289.69	3603.1	
289.9	3334.8	
290.11	5045.5	
290.32	4449.6	
290.53	3406.5	
290.74	3187.3	
290.94	4913.1	
291.15	4889.9	
291.36	2876.7	
291.57	3293.1	
291.78	4442.7	
291.99	4141	
292.2	2790	
292.41	3200.3	
292.62	4950.6	
292.83	4758.8	
293.04	3833.1	
293.25	2845.3	
293.46	4469.4	
293.67	4930.8	
293.88	2813.2	
294.09	2779.1	
294.29	4363.5	
294.5	4676.2	
294.71	3105.4	
294.92	2896.5	
295.13	4451.6	
295.34	5372.5	
295.55	2646.7	
295.76	2578.4	
295.97	4855.7	
296.18	5298.1	
296.39	2722.4	
296.6	2865.8	
296.81	4595	
297.01	4911.7	
297.22	2960.7	
297.43	2872.6	
297.64	4434.5	
297.85	4311	
298.06	2471.9	
298.27	2589.3	
298.48	4569.7	
298.69	4384.7	
298.9	3117	
299.11	2802.3	
299.31	4295.3	
299.52	4345.8	
299.73	3229.6	
299.94	3244	
300.15	4637.3	
300.36	4397	
300.57	3195.5	
300.78	3121.1	
300.99	4453	
301.2	4627	
301.4	2897.2	
301.61	3046.7	
301.82	4774.5	
302.03	4835.3	
302.24	3365.5	
302.45	2794.1	
302.66	4805.9	
302.87	5040.7	
303.08	2817.3	
303.29	3713.6	
303.49	4474.1	
303.7	4549.9	
303.91	2615.3	
304.12	3601.7	
304.33	4225.6	
304.54	4672.8	
304.75	2839.2	
304.96	2774.3	
305.16	4840.7	
305.37	5299.5	
305.58	2599.6	
305.79	2631	
306	4823	
306.21	4180.6	
306.42	2816	
306.63	4100.7	
306.83	4430.4	
307.04	4814.8	
307.25	3061	
307.46	3067.2	
307.67	4126	
307.88	4731.5	
308.09	2838.5	
308.29	2804.4	
308.5	4676.9	
308.71	4916.5	
308.92	2988	
309.13	2772.9	
309.34	4582	
309.55	4501.4	
309.75	3480.9	
309.96	3192.1	
310.17	4786.8	
310.38	4404.5	
310.59	3299.3	
310.8	2736.1	
311.01	4489.1	
311.21	4545.1	
311.42	2784.6	
311.63	2779.8	
311.84	4463.9	
312.05	4673.5	
312.26	3230.3	
312.46	3392.8	
312.67	4481.6	
312.88	4233.2	
313.09	2753.8	
313.3	2739.5	
313.51	5109	
313.71	5326.8	
313.92	2746.3	
314.13	2854.2	
314.34	4725.3	
314.55	4560.8	
314.76	3360.7	
314.96	3061.7	
315.17	4724	
315.38	4808.6	
315.59	2825.5	
315.8	2695.8	
316.01	5119.2	
316.21	5217.5	
316.42	2722.4	
316.63	3054.2	
316.84	4485.7	
317.05	4951.3	
317.26	3202.3	
317.46	2890.4	
317.67	4541.7	
317.88	4842.8	
318.09	3388	
318.3	2643.2	
318.5	4457.1	
318.71	4783.4	
318.92	4199.7	
319.13	3204.4	
319.34	4900.8	
319.54	5013.4	
319.75	2657.6	
319.96	2545.6	
320.17	4778.6	
320.38	4931.5	
320.58	2618.7	
320.79	2970.9	
321	5023.7	
321.21	5033.9	
321.42	3018	
321.62	2584.5	
321.83	4341.7	
322.04	4580.6	
322.25	2990	
322.46	2775	
322.66	4688.5	
322.87	4803.9	
323.08	3349.1	
323.29	2719	
323.5	5326.8	
323.7	4251.6	
323.91	3589.4	
324.12	3308.2	
324.33	4681	
324.53	4788.2	
324.74	3195.5	
324.95	3256.3	
325.16	4203.8	
325.37	4500.8	
325.57	2770.9	
325.78	2813.9	
325.99	4703.5	
326.2	4220.9	
326.4	3805.8	
326.61	2605.7	
326.82	4531.5	
327.03	4635.2	
327.24	3775.1	
327.44	3535.5	
327.65	4775.9	
327.86	4003.1	
328.07	3208.5	
328.27	2669.9	
328.48	5120.6	
328.69	4243.4	
328.9	3774.4	
329.1	2910.2	
329.31	4528.1	
329.52	5113.1	
329.73	2808.4	
329.93	3043.3	
330.14	4654.4	
330.35	4709.6	
330.56	4296	
330.76	3313.6	
330.97	4458.4	
331.18	4601.8	
331.39	3035.8	
331.59	2525.1	
331.8	4937.7	
332.01	5077.6	
332.22	2878.1	
332.42	3158.7	
332.63	4661.9	
332.84	4313	
333.05	3063.8	
333.25	2822.1	
333.46	4373.1	
333.67	4554	
333.88	2895.8	
334.08	3132	
334.29	5776.6	
334.5	4933.6	
334.7	2717.7	
334.91	3764.2	
335.12	4257	
335.33	4799.8	
335.53	3122.5	
335.74	4224.3	
335.95	4493.2	
336.16	4263.2	
336.36	3018.7	
336.57	3431	
336.78	4291.2	
336.98	5000.5	
337.19	3635.1	
337.4	3009.1	
337.61	5390.9	
337.81	4248.2	
338.02	2803	
338.23	3496.6	
338.43	5156.8	
338.64	4332.1	
338.85	2833.7	
339.05	3580.5	
339.26	5203.2	
339.47	4188.8	
339.68	2813.2	
339.88	3909.6	
340.09	4794.3	
340.3	4930.8	
340.5	3217.4	
340.71	2603	
340.92	4236.6	
341.13	5066	
341.33	2707.4	
341.54	3190.7	
341.75	4777.2	
341.95	4447.5	
342.16	3045.3	
342.37	3278.8	
342.57	4285	
342.78	4545.1	
342.99	3321.1	
343.19	2598.9	
343.4	4875.5	
343.61	4743.8	
343.81	2966.8	
344.02	2710.8	
344.23	4880.3	
344.43	5061.2	
344.64	3346.4	
344.85	3278.1	
345.06	4782.7	
345.26	4934.9	
345.47	3239.2	
345.68	3639.9	
345.88	4235.9	
346.09	4925.4	
346.3	3269.9	
346.5	2493.1	
346.71	4577.2	
346.92	4384.7	
347.12	2669.2	
347.33	3108.8	
347.54	4926	
347.74	5196.4	
347.95	3117	
348.16	2453.5	
348.36	4445.5	
348.57	4347.2	
348.78	3174.4	
348.98	3312.9	
349.19	4505.5	
349.39	4202.4	
349.6	2665.1	
349.81	2787.3	
350.01	4770.4	
350.22	4360.1	
350.43	3124.5	
350.63	3579.2	
350.84	4563.6	
351.05	4383.3	
351.25	2823.5	
351.46	2578.4	
351.67	4933.6	
351.87	4326.7	
352.08	2957.9	
352.29	3320.4	
352.49	4922.6	
352.7	4650.3	
352.9	2732	
353.11	3295.9	
353.32	5317.9	
353.52	4439.3	
353.73	2754.5	
353.94	3339.6	
354.14	4755.4	
354.35	4570.4	
354.55	2826.2	
354.76	3012.6	
354.97	4734.9	
355.17	4537.6	
355.38	2702.6	
355.59	3452.9	
355.79	4380.6	
356	4500.8	
356.2	3028.9	
356.41	2790	
356.62	4167.6	
356.82	4518.5	
357.03	3274.7	
357.24	2951.1	
357.44	4354.7	
357.65	4409.3	
357.85	3759.4	
358.06	3078.1	
358.27	4188.8	
358.47	4277.5	
358.68	2671.2	
358.88	3246	
359.09	4786.1	
359.3	4887.8	
359.5	3632.4	
359.71	3297.9	
359.91	5131.5	
360.12	4746.5	
360.33	3251.5	
360.53	3555.3	
360.74	4429.1	
360.94	4420.2	
361.15	3377.1	
361.36	2864.4	
361.56	4883	
361.77	4536.3	
361.97	3646.7	
362.18	3001.6	
362.38	4941.1	
362.59	4263.2	
362.8	2777.7	
363	2702.6	
363.21	4089.1	
363.41	4556.7	
363.62	3117.7	
363.83	3750.5	
364.03	4739	
364.24	5168.4	
364.44	3898	
364.65	3844	
364.85	4483.7	
365.06	4313.7	
365.27	2964.8	
365.47	3000.3	
365.68	5173.9	
365.88	4523.3	
366.09	3201	
366.29	2958.6	
366.5	4620.2	
366.71	4889.9	
366.91	3814	
367.12	3331.4	
367.32	5334.3	
367.53	4824.3	
367.73	3338.9	
367.94	3971.7	
368.14	4845.5	
368.35	5255.8	
368.56	3212.6	
368.76	2828.9	
368.97	4934.9	
369.17	5932.3	
369.38	2882.9	
369.58	3088.3	
369.79	4214.7	
369.99	5132.9	
370.2	3808.5	
370.4	3192.8	
370.61	4650.9	
370.82	5540.4	
371.02	3127.2	
371.23	2692.4	
371.43	4280.3	
371.64	5157.5	
371.84	3139.5	
372.05	3840.6	
372.25	5900.2	
372.46	4775.2	
372.66	3138.2	
372.87	3130.7	
373.07	4922.6	
373.28	5993	
373.48	3779.2	
373.69	3583.3	
373.9	4607.9	
374.1	4641.4	
374.31	3747.1	
374.51	3454.2	
374.72	5059.2	
374.92	4410.6	
375.13	3874.8	
375.33	3328.6	
375.54	4788.2	
375.74	4539	
375.95	3442	
376.15	4176.5	
376.36	4896.7	
376.56	4737	
376.77	3398.9	
376.97	3680.9	
377.18	5577.3	
377.38	4899.4	
377.59	3878.9	
377.79	3139.5	
378	4738.3	
378.2	4983.4	
378.41	3133.4	
378.61	3079.5	
378.82	5182.7	
379.02	4552.6	
379.23	3275.4	
379.43	3908.9	
379.64	5214.8	
379.84	4891.9	
380.05	3177.1	
380.25	3090.4	
380.46	4944.5	
380.66	4689.8	
380.87	4048.2	
381.07	4236.6	
381.28	5339.7	
381.48	4906.9	
381.69	3135.4	
381.89	3181.2	
382.1	4347.8	
382.3	5008.6	
382.51	3852.9	
382.71	4446.1	
382.91	4902.8	
383.12	5260.5	
383.32	3371	
383.53	3498.6	
383.73	4868	
383.94	4695.3	
384.14	3536.8	
384.35	2912.9	
384.55	4625.7	
384.76	4885.1	
384.96	3353.9	
385.17	3568.9	
385.37	5012.1	
385.58	4468	
385.78	3551.2	
385.98	2854.2	
386.19	4601.8	
386.39	4856.4	
386.6	3209.2	
386.8	3345	
387.01	4939	
387.21	4978.6	
387.42	3644.7	
387.62	3986.7	
387.83	4565.6	
388.03	4764.9	
388.23	3523.9	
388.44	3820.8	
388.64	4317.8	
388.85	4355.3	
389.05	3611.9	
389.26	3999.7	
389.46	5717.2	
389.67	5200.5	
389.87	3637.2	
390.07	3660.4	
390.28	4651.6	
390.48	4459.8	
390.69	3135.4	
390.89	3384.6	
391.1	4577.2	
391.3	5165	
391.5	4115.1	
391.71	4534.2	
391.91	5037.3	
392.12	5544.5	
392.32	4164.9	
392.53	3613.3	
392.73	4673.5	
392.93	4700.8	
393.14	3486.3	
393.34	3986.7	
393.55	5012.7	
393.75	4730.1	
393.95	3409.9	
394.16	3396.2	
394.36	4646.2	
394.57	5050.3	
394.77	3117	
394.98	3353.2	
395.18	4582.7	
395.38	4661.9	
395.59	3987.4	
395.79	3274	
396	4710.3	
396.2	4980	
396.4	3852.9	
396.61	3733.4	
396.81	5046.2	
397.02	4615.4	
397.22	3942.3	
397.42	4027.7	
397.63	5147.9	
397.83	4622.3	
398.04	3250.8	
398.24	3561.4	
398.44	4947.2	
398.65	4321.9	
398.85	3178.4	
399.05	3183.2	
399.26	4616.8	
399.46	5681.7	
399.67	3544.4	
399.87	3313.6	
400.07	4870.8	
400.28	5036	
400.48	3331.4	
400.69	3971	
400.89	5444.9	
401.09	5527.5	
401.3	3285.6	
401.5	3973.1	
401.7	5566.4	
401.91	5834.7	
402.11	3631	
402.32	3715	
402.52	5199.8	
402.72	5116.5	
402.93	3856.3	
403.13	3123.2	
403.33	5738.4	
403.54	4822.3	
403.74	3609.2	
403.94	4177.2	
404.15	4915.8	
404.35	5702.9	
404.56	3525.2	
404.76	4679.6	
404.96	5251.7	
405.17	5021.6	
405.37	4016.7	
405.57	3815.4	
405.78	5193.6	
405.98	4861.2	
406.18	3491.8	
406.39	4014.7	
406.59	5197.7	
406.79	4940.4	
407	3330	
407.2	3381.2	
407.4	5432.6	
407.61	5298.1	
407.81	3447.4	
408.01	4837.3	
408.22	4539	
408.42	5767.1	
408.62	4133.5	
408.83	3807.9	
409.03	4907.6	
409.23	4941.7	
409.44	3802.4	
409.64	3981.9	
409.84	5555.5	
410.05	5474.9	
410.25	3964.9	
410.45	3842	
410.66	5247.6	
410.86	6789	
411.06	4150.6	
411.27	3995.6	
411.47	6638.8	
411.67	5309	
411.88	4169	
412.08	4313	
412.28	5674.2	
412.49	5963.7	
412.69	4039.3	
412.89	4007.9	
413.09	5922.7	
413.3	5862	
413.5	4130.8	
413.7	3905.5	
413.91	5427.1	
414.11	5924.1	
414.31	3943.7	
414.52	4237.2	
414.72	5730.2	
414.92	5648.3	
415.12	4010.6	
415.33	4271.4	
415.53	5936.4	
415.73	6055.2	
415.94	4585.4	
416.14	4169.7	
416.34	5312.4	
416.55	5141.8	
416.75	4881	
416.95	4588.1	
417.15	6042.2	
417.36	6404.7	
417.56	5136.3	
417.76	4405.9	
417.97	6185.5	
418.17	5944.6	
418.37	4327.4	
418.57	4218.8	
418.78	5940.5	
418.98	5597.1	
419.18	4816.8	
419.38	4774.5	
419.59	5578.7	
419.79	5455.8	
419.99	4218.8	
420.2	4345.1	
420.4	5981.4	
420.6	6072.2	
420.8	4169	
421.01	4050.9	
421.21	5879	
421.41	5875.6	
421.61	4291.2	
421.82	4201.7	
422.02	5625.8	
422.22	6207.4	
422.42	4760.8	
422.63	4537.6	
422.83	5576.6	
423.03	6419	
423.23	4485.1	
423.44	3775.8	
423.64	5668.8	
423.84	5384.1	
424.04	4092.5	
424.25	3863.8	
424.45	6214.9	
424.65	6182.1	
424.85	3785.3	
425.06	4135.5	
425.26	6320.7	
425.46	5558.9	
425.66	4442.7	
425.87	4268	
426.07	5973.2	
426.27	5933.6	
426.47	4327.4	
426.67	3914.4	
426.88	6315.9	
427.08	5882.4	
427.28	4525.3	
427.48	3892.5	
427.69	5316.5	
427.89	5597.1	
428.09	4479.6	
428.29	3856.3	
428.5	6014.9	
428.7	5814.2	
428.9	3899.3	
429.1	4182	
429.3	5789.6	
429.51	5900.9	
429.71	4088.4	
429.91	4610.7	
430.11	6034.7	
430.31	6092.7	
430.52	4280.9	
430.72	4436.6	
430.92	6303	
431.12	5971.2	
431.32	4018.1	
431.53	4339	
431.73	5217.5	
431.93	6410.1	
432.13	4027.7	
432.33	3913.7	
432.54	5672.2	
432.74	5716.6	
432.94	3902.1	
433.14	4530.8	
433.34	5982.8	
433.55	5655.8	
433.75	4569.7	
433.95	5613.5	
434.15	5804.6	
434.35	5524.7	
434.56	4027.7	
434.76	3728	
434.96	5726.1	
435.16	5913.9	
435.36	4005.8	
435.56	4655.7	
435.77	5542.5	
435.97	5628.5	
436.17	5146.5	
436.37	4620.2	
436.57	5584.1	
436.78	5528.2	
436.98	5806	
437.18	4978.6	
437.38	5984.8	
437.58	5653.1	
437.78	5118.6	
437.99	4184	
438.19	5998.5	
438.39	6546	
438.59	4233.8	
438.79	3865.2	
438.99	6506.4	
439.2	5615.5	
439.4	3928.7	
439.6	3919.8	
439.8	5786.9	
440	6547.4	
440.2	4540.3	
440.4	4634.6	
440.61	6176.7	
440.81	6454.5	
441.01	4102.1	
441.21	4631.1	
441.41	6406.7	
441.61	6098.9	
441.81	4887.1	
442.02	5478.3	
442.22	6698.9	
442.42	6239.5	
442.62	4114.4	
442.82	4310.3	
443.02	6511.9	
443.22	5878.4	
443.43	4530.8	
443.63	4157.4	
443.83	5777.3	
444.03	5781.4	
444.23	4889.2	
444.43	4627.7	
444.63	5970.5	
444.83	6731.7	
445.04	4253.6	
445.24	5041.4	
445.44	6205.3	
445.64	6232.7	
445.84	4788.8	
446.04	4762.2	
446.24	5823.1	
446.44	6492.1	
446.65	4257	
446.85	4544.4	
447.05	6021.7	
447.25	6386.9	
447.45	4603.8	
447.65	4104.1	
447.85	6120	
448.05	5719.3	
448.25	4754.7	
448.46	4646.8	
448.66	6025.8	
448.86	5763	
449.06	4133.5	
449.26	4811.4	
449.46	6224.5	
449.66	5651	
449.86	4515.8	
450.06	4403.1	
450.26	5712.5	
450.47	6165.1	
450.67	4717.8	
450.87	4887.8	
451.07	6394.4	
451.27	6023.1	
451.47	4238.6	
451.67	4816.8	
451.87	5811.5	
452.07	6571.2	
452.27	4444.8	
452.47	4327.4	
452.67	6047.7	
452.88	6373.3	
453.08	4009.9	
453.28	5248.9	
453.48	6905.1	
453.68	5982.1	
453.88	4371	
454.08	4485.1	
454.28	6431.3	
454.48	6035.4	
454.68	4797	
454.88	5111	
455.08	6468.2	
455.28	6110.5	
455.48	4231.1	
455.68	4662.5	
455.89	6684.6	
456.09	6408.8	
456.29	4478.9	
456.49	4571.1	
456.69	6634.1	
456.89	6061.3	
457.09	4822.3	
457.29	5048.2	
457.49	6354.2	
457.69	6467.5	
457.89	4698.7	
458.09	4392.9	
458.29	6136.4	
458.49	6759.7	
458.69	5040.7	
458.89	4656.4	
459.09	6853.9	
459.29	6916.7	
459.49	4730.1	
459.69	5237.3	
459.9	6535.1	
460.1	6249	
460.3	4655	
460.5	4475.5	
460.7	6571.9	
460.9	6234.7	
461.1	4319.2	
461.3	5111.7	
461.5	6948.8	
461.7	6768.5	
461.9	4603.8	
462.1	4887.8	
462.3	6376	
462.5	6727.6	
462.7	4669.4	
462.9	4743.1	
463.1	7478.5	
463.3	7188.4	
463.5	4838.7	
463.7	5459.2	
463.9	6632.7	
464.1	6830.7	
464.3	4988.2	
464.5	5097.4	
464.7	7016.3	
464.9	6736.5	
465.1	5945.9	
465.3	5345.2	
465.5	7206.8	
465.7	7215.7	
465.9	5542.5	
466.1	5424.4	
466.3	7044.3	
466.5	7017.7	
466.7	5982.1	
466.9	5354.1	
467.1	7111.2	
467.3	7565.2	
467.5	5999.9	
467.7	5270.1	
467.9	7773.4	
468.1	8202.1	
468.3	5814.2	
468.5	5984.8	
468.7	6947.4	
468.9	6931	
469.1	5444.2	
469.3	5953.4	
469.5	8284.7	
469.7	6632	
469.9	5818.3	
470.1	5261.2	
470.3	7090.8	
470.5	7059.3	
470.7	6204	
470.9	5432.6	
471.1	6903.7	
471.3	7236.2	
471.5	5265.3	
471.69	6449.7	
471.89	6863.4	
472.09	6486.6	
472.29	5752.7	
472.49	5929.6	
472.69	6603.3	
472.89	7073	
473.09	5221	
473.29	5254.4	
473.49	6759.7	
473.69	6757.6	
473.89	5920	
474.09	5373.2	
474.29	7701	
474.49	7458	
474.69	5948.7	
474.89	5393.7	
475.09	6894.1	
475.29	6824.5	
475.49	5122.7	
475.69	5251.7	
475.88	7917.4	
476.08	7100.3	
476.28	5057.1	
476.48	5297.4	
476.68	7389.8	
476.88	7161.7	
477.08	5326.1	
477.28	5495.4	
477.48	6941.2	
477.68	7285.3	
477.88	5120.6	
478.08	5307.7	
478.28	7468.9	
478.48	6891.4	
478.67	5436.7	
478.87	4978.6	
479.07	7291.5	
479.27	7085.3	
479.47	5569.1	
479.67	5531.6	
479.87	7351.5	
480.07	7592.5	
480.27	5121.3	
480.47	6032.6	
480.67	7005.4	
480.87	7477.8	
481.06	5191.6	
481.26	5878.4	
481.46	7092.8	
481.66	6959.7	
481.86	5585.5	
482.06	6138.4	
482.26	6924.2	
482.46	7423.9	
482.66	5486.5	
482.86	5165.7	
483.05	7223.2	
483.25	6709.8	
483.45	7166.5	
483.65	5553.4	
483.85	6763.8	
484.05	7038.9	
484.25	5855.1	
484.45	6081.8	
484.65	7543.4	
484.84	7555.6	
485.04	5494	
485.24	5487.9	
485.44	7860.8	
485.64	6707.8	
485.84	5028.4	
486.04	5941.2	
486.24	6947.4	
486.44	7127.6	
486.63	5083.1	
486.83	5603.9	
487.03	6988.4	
487.23	7070.3	
487.43	5100.1	
487.63	6680.5	
487.83	7092.1	
488.02	7582.9	
488.22	5697.4	
488.42	6139.8	
488.62	7701.7	
488.82	6969.2	
489.02	5564.3	
489.22	5599.1	
489.41	7604.8	
489.61	7405.5	
489.81	5381.4	
490.01	5428.5	
490.21	7612.3	
490.41	8013	
490.61	5493.3	
490.8	5496.1	
491	7268.9	
491.2	6934.4	
491.4	5866.1	
491.6	5371.8	
491.8	7320.1	
491.99	7329.7	
492.19	5255.8	
492.39	5427.8	
492.59	7604.8	
492.79	7688.1	
492.99	6053.1	
493.18	5457.8	
493.38	7790.5	
493.58	8140.7	
493.78	5913.2	
493.98	5594.4	
494.18	7587	
494.37	7174	
494.57	6056.5	
494.77	5997.1	
494.97	7748.8	
495.17	7931.1	
495.37	5799.8	
495.56	6036.7	
495.76	7988.4	
495.96	7871	
496.16	6620.4	
496.36	6012.2	
496.55	8011.7	
496.75	7649.8	
496.95	6238.1	
497.15	6109.8	
497.35	8084	
497.54	7947.5	
497.74	6035.4	
497.94	7278.5	
498.14	8474.5	
498.34	8221.9	
498.53	5778	
498.73	6398.5	
498.93	7524.9	
499.13	7902.4	
499.33	6292	
499.52	6535.1	
499.72	8078.6	
499.92	8079.2	
500.12	5988.9	
500.32	6305.7	
500.51	8144.1	
500.71	7851.2	
500.91	6701.6	
501.11	6475.7	
501.31	8019.2	
501.5	8395.3	
501.7	7013.6	
501.9	6295.5	
502.1	7966.6	
502.29	8239	
502.49	6518	
502.69	6894.8	
502.89	8110.6	
503.09	8223.3	
503.28	5981.4	
503.48	5948.7	
503.68	7757	
503.88	7587	
504.07	6671.6	
504.27	6332.3	
504.47	7910.6	
504.67	7911.3	
504.86	6578.1	
505.06	6491.4	
505.26	7714	
505.46	8781.7	
505.65	6316.6	
505.85	6466.8	
506.05	7661.5	
506.25	8084.7	
506.44	5846.3	
506.64	6482.5	
506.84	7600.7	
507.04	8020.5	
507.23	6078.4	
507.43	6383.5	
507.63	8828.1	
507.83	7641.7	
508.02	6317.3	
508.22	6077.7	
508.42	9072.5	
508.62	7568.6	
508.81	6238.8	
509.01	6606.1	
509.21	7437.5	
509.4	7746.8	
509.6	6378.7	
509.8	6024.4	
510	7613.7	
510.19	8488.8	
510.39	5842.9	
510.59	5989.6	
510.79	7540.6	
510.98	8389.2	
511.18	6112.5	
511.38	6082.5	
511.57	8221.9	
511.77	7817.1	
511.97	6562.4	
512.17	5939.1	
512.36	8129.8	
512.56	7935.9	
512.76	5995.1	
512.95	5784.1	
513.15	8305.2	
513.35	7201.3	
513.55	6531.7	
513.74	5943.9	
513.94	8061.5	
514.14	7600.7	
514.33	6627.2	
514.53	6435.4	
514.73	7714.7	
514.92	7734.5	
515.12	6150.1	
515.32	5875.6	
515.51	7856.7	
515.71	8065.6	
515.91	7171.3	
516.11	6007.4	
516.3	8919.6	
516.5	7588.4	
516.7	6390.3	
516.89	6688	
517.09	7694.2	
517.29	7678.5	
517.48	6709.1	
517.68	6147.3	
517.88	7454.6	
518.07	7987.1	
518.27	6459.3	
518.47	5840.1	
518.66	8360.5	
518.86	7525.6	
519.06	5803.9	
519.25	6117.3	
519.45	7582.9	
519.65	8562.6	
519.84	6558.3	
520.04	7028.6	
520.24	8950.3	
520.43	8024.6	
520.63	6380.1	
520.83	6197.8	
521.02	7671	
521.22	7988.4	
521.42	6585.6	
521.61	6914.6	
521.81	7770	
522.01	7875.1	
522.2	6459.3	
522.4	6212.9	
522.6	8066.9	
522.79	7291.5	
522.99	6306.4	
523.18	5871.5	
523.38	7985.7	
523.58	7998.7	
523.77	7202	
523.97	5827.2	
524.17	9249.3	
524.36	8699.1	
524.56	6763.8	
524.76	6599.2	
524.95	7994.6	
525.15	7868.3	
525.34	6569.9	
525.54	6583.5	
525.74	8361.9	
525.93	7778.9	
526.13	7318.8	
526.33	6518	
526.52	8649.9	
526.72	8221.9	
526.91	7459.4	
527.11	6907.8	
527.31	8611	
527.5	8816.5	
527.7	6840.9	
527.89	6205.3	
528.09	7963.9	
528.29	8314.8	
528.48	7085.3	
528.68	6956.9	
528.87	8650.6	
529.07	8615.8	
529.27	6841.6	
529.46	6619.7	
529.66	8461.5	
529.85	8768.7	
530.05	6536.4	
530.25	7061.4	
530.44	9460.3	
530.64	8403.5	
530.83	6832	
531.03	6908.5	
531.23	8771.5	
531.42	8619.2	
531.62	7430	
531.81	6939.9	
532.01	8840.4	
532.21	9054.8	
532.4	6763.8	
532.6	6966.5	
532.79	9332.6	
532.99	8874.5	
533.18	7148.1	
533.38	7759.1	
533.58	8640.4	
533.77	9101.9	
533.97	7188.4	
534.16	7649.2	
534.36	9479.4	
534.55	8687.5	
534.75	7793.9	
534.95	7290.1	
535.14	9364.7	
535.34	8689.5	
535.53	6985.6	
535.73	8247.2	
535.92	9752.4	
536.12	8840.4	
536.31	7230.7	
536.51	8011.7	
536.71	9106	
536.9	8785.1	
537.1	7187	
537.29	7350.2	
537.49	9323.7	
537.68	8603.5	
537.88	7589.8	
538.07	6865.5	
538.27	8858.8	
538.46	9580.4	
538.66	6911.2	
538.86	7314.7	
539.05	8947.6	
539.25	9149	
539.44	7531.7	
539.64	7150.8	
539.83	8858.1	
540.03	9493.7	
540.22	7260.7	
540.42	7286.7	
540.61	9034.3	
540.81	9013.8	
541	7529.7	
541.2	7883.3	
541.39	8583.7	
541.59	8903.2	
541.78	7664.9	
541.98	7197.9	
542.18	8453.3	
542.37	8477.9	
542.57	7370.6	
542.76	7751.6	
542.96	8473.1	
543.15	8870.4	
543.35	7368.6	
543.54	6952.2	
543.74	8978.3	
543.93	8824.7	
544.13	7307.2	
544.32	8083.3	
544.52	9095	
544.71	8533.2	
544.91	6759	
545.1	7497.6	
545.3	8604.2	
545.49	8802.2	
545.69	6580.1	
545.88	7121.5	
546.08	9604.3	
546.27	9157.2	
546.47	7419.8	
546.66	6876.4	
546.86	9088.9	
547.05	9508	
547.24	7067.5	
547.44	6896.2	
547.63	8335.2	
547.83	9096.4	
548.02	7339.2	
548.22	7344.7	
548.41	8349.6	
548.61	9179.7	
548.8	6949.4	
549	6935.8	
549.19	8757.8	
549.39	8972.2	
549.58	6653.2	
549.78	7131.7	
549.97	9010.4	
550.17	8572.1	
550.36	7645.8	
550.55	8314.8	
550.75	8710	
550.94	9261.6	
551.14	6890	
551.33	7028.6	
551.53	8049.9	
551.72	8823.3	
551.92	7113.3	
552.11	7025.9	
552.31	8852	
552.5	8812.4	
552.69	8097	
552.89	6680.5	
553.08	8891.6	
553.28	8697	
553.47	7006.8	
553.67	7748.1	
553.86	9323.7	
554.06	8100.4	
554.25	6485.9	
554.44	6877.8	
554.64	9785.2	
554.83	9460.3	
555.03	6860	
555.22	7163.1	
555.42	8989.2	
555.61	8852.7	
555.8	6893.5	
556	7101.7	
556.19	8221.9	
556.39	8948.3	
556.58	7005.4	
556.78	7066.2	
556.97	8702.5	
557.16	8523	
557.36	7828.7	
557.55	6756.9	
557.75	8008.2	
557.94	9195.4	
558.13	6837.5	
558.33	6602	
558.52	9150.3	
558.72	8234.9	
558.91	6656.6	
559.1	6920.1	
559.3	8140.7	
559.49	7925	
559.69	6647	
559.88	7105.1	
560.07	8649.9	
560.27	8959.9	
560.46	7223.2	
560.66	7292.1	
560.85	8596	
561.04	8031.5	
561.24	6717.3	
561.43	6834.8	
561.63	8226.7	
561.82	8389.2	
562.01	7657.4	
562.21	7038.2	
562.4	8683.4	
562.59	9250	
562.79	6929	
562.98	6679.8	
563.18	8613.1	
563.37	9466.4	
563.56	7124.9	
563.76	6662.7	
563.95	8301.1	
564.14	8267	
564.34	6864.8	
564.53	6793.8	
564.73	8675.2	
564.92	8755.1	
565.11	7061.4	
565.31	6572.6	
565.5	9025.4	
565.69	8208.3	
565.89	6948.1	
566.08	7060.7	
566.27	8895	
566.47	9184.5	
566.66	7480.5	
566.85	6627.9	
567.05	8760.5	
567.24	8316.8	
567.44	6866.8	
567.63	7742	
567.82	8844.5	
568.02	8699.1	
568.21	6888.7	
568.4	7103	
568.6	8593.3	
568.79	8606.9	
568.98	6877.1	
569.18	6734.4	
569.37	8634.9	
569.56	9936.7	
569.76	7193.8	
569.95	7732.4	
570.14	8910	
570.34	8830.8	
570.53	6836.1	
570.72	6797.9	
570.91	9279.3	
571.11	8658.8	
571.3	7192.5	
571.49	7705.8	
571.69	8828.8	
571.88	8248.5	
572.07	7505.8	
572.27	7484	
572.46	8393.3	
572.65	9060.2	
572.85	7044.3	
573.04	7284.6	
573.23	9301.9	
573.43	8806.9	
573.62	6863.4	
573.81	7314.7	
574	8923.7	
574.2	8689.5	
574.39	7202	
574.58	7228	
574.78	9409.1	
574.97	8851.3	
575.16	7581.6	
575.36	7695.6	
575.55	9196.7	
575.74	9385.8	
575.93	7023.2	
576.13	7689.4	
576.32	8788.5	
576.51	9168.1	
576.71	7322.2	
576.9	8198.7	
577.09	9488.9	
577.28	9063.6	
577.48	7596.6	
577.67	6956.3	
577.86	8858.8	
578.05	9095	
578.25	7396.6	
578.44	7425.3	
578.63	9000.1	
578.83	9770.9	
579.02	7111.2	
579.21	8153	
579.4	9140.1	
579.6	8950.3	
579.79	7626	
579.98	8979	
580.17	9396.8	
580.37	9474.6	
580.56	7200	
580.75	7714	
580.94	9527.2	
581.14	9670.5	
581.33	8017.8	
581.52	7292.8	
581.71	9213.1	
581.91	9697.1	
582.1	7094.2	
582.29	7477.1	
582.48	9012.4	
582.68	8976.9	
582.87	7742.7	
583.06	7675.1	
583.25	9368.8	
583.45	8795.3	
583.64	8002.1	
583.83	8399.4	
584.02	9075.9	
584.21	9366	
584.41	7961.8	
584.6	7547.4	
584.79	9140.8	
584.98	9530.6	
585.18	7279.8	
585.37	7115.3	
585.56	8886.1	
585.75	9275.9	
585.94	7366.5	
586.14	7767.3	
586.33	9770.2	
586.52	9019.3	
586.71	7692.2	
586.91	7506.5	
587.1	8675.9	
587.29	9331.2	
587.48	7366.5	
587.67	7432.8	
587.87	9227.5	
588.06	9239.8	
588.25	8280.6	
588.44	7714	
588.63	8930.5	
588.83	9298.5	
589.02	7408.2	
589.21	7293.5	
589.4	8856.1	
589.59	8810.4	
589.78	6864.8	
589.98	6950.1	
590.17	8520.2	
590.36	8731.9	
590.55	6513.2	
590.74	7010.2	
590.94	9597.5	
591.13	8574.8	
591.32	6841.6	
591.51	6464.8	
591.7	8839	
591.89	8540.7	
592.09	6512.5	
592.28	6915.3	
592.47	7920.2	
592.66	9385.2	
592.85	6572.6	
593.05	6781.5	
593.24	8436.3	
593.43	9047.2	
593.62	6763.1	
593.81	7128.3	
594	8531.8	
594.19	8535.9	
594.39	6718.7	
594.58	6696.9	
594.77	8766.7	
594.96	9065	
595.15	6713.2	
595.34	7103.7	
595.54	8689.5	
595.73	8094.3	
595.92	6271.6	
596.11	7011.6	
596.3	8976.9	
596.49	8121.6	
596.68	6849.8	
596.88	7109.9	
597.07	8769.4	
597.26	8056	
597.45	6507.8	
597.64	7296.9	
597.83	8221.9	
598.02	8686.1	
598.22	6625.9	
598.41	6994.5	
598.6	8498.4	
598.79	7992.5	
598.98	6569.9	
599.17	7208.8	
599.36	8574.2	
599.55	9267.7	
599.74	7942.7	
599.94	7809.6	
600.13	8899.8	
600.32	8049.2	
600.51	6357.6	
600.7	6528.9	
600.89	9255.5	
601.08	9369.5	
601.27	6365.8	
601.47	7006.8	
601.66	8836.3	
601.85	9127.8	
602.04	6805.4	
602.23	7007.5	
602.42	8149.6	
602.61	8611.7	
602.8	6751.5	
602.99	6665.5	
603.18	8450.6	
603.37	8576.2	
603.57	6945.3	
603.76	7294.9	
603.95	9042.5	
604.14	8731.9	
604.33	6675.7	
604.52	6905.8	
604.71	8550.3	
604.9	8219.9	
605.09	7296.9	
605.28	7216.4	
605.47	8993.3	
605.66	8673.1	
605.86	7065.5	
606.05	6731	
606.24	8965.3	
606.43	7915.4	
606.62	6998.6	
606.81	7402	
607	8842.4	
607.19	8333.9	
607.38	6473.6	
607.57	6679.1	
607.76	8257.4	
607.95	7802.8	
608.14	6999.3	
608.33	7295.5	
608.52	8153.6	
608.72	8802.2	
608.91	6410.8	
609.1	6294.1	
609.29	8201.4	
609.48	7923.6	
609.67	7125.6	
609.86	6374.6	
610.05	8018.5	
610.24	8159.1	
610.43	6389	
610.62	6146.6	
610.81	8910	
611	8819.9	
611.19	6352.1	
611.38	6825.2	
611.57	8421.2	
611.76	9175.6	
611.95	6283.2	
612.14	6161	
612.33	8296.3	
612.52	8003.5	
612.71	6683.9	
612.9	6158.2	
613.09	7786.4	
613.28	9357.9	
613.47	6490	
613.66	7076.4	
613.85	8391.2	
614.04	8064.2	
614.24	6541.2	
614.43	6047.7	
614.62	8426.7	
614.81	8462.9	
615	6871.6	
615.19	6887.3	
615.38	8032.8	
615.57	8189.8	
615.76	6860.7	
615.95	7433.4	
616.14	8654	
616.33	8310	
616.52	7052.5	
616.71	7147.4	
616.9	8467	
617.09	8323.6	
617.28	6619	
617.47	7339.9	
617.66	7925	
617.85	7946.1	
618.04	7061.4	
618.22	6842.3	
618.41	8123.6	
618.6	8737.3	
618.79	6838.9	
618.98	6679.8	
619.17	8959.9	
619.36	7750.9	
619.55	6737.1	
619.74	6697.5	
619.93	8522.3	
620.12	8137.3	
620.31	7157.7	
620.5	7288	
620.69	8883.4	
620.88	9217.9	
621.07	7713.3	
621.26	7141.3	
621.45	8662.9	
621.64	8680	
621.83	7176.8	
622.02	6583.5	
622.21	8688.8	
622.4	8662.9	
622.59	7578.2	
622.78	7476.5	
622.97	8362.5	
623.16	8897.1	
623.35	7255.3	
623.54	6647	
623.72	8510.7	
623.91	8555	
624.1	7374.7	
624.29	6618.4	
624.48	9311.4	
624.67	8874.5	
624.86	7367.2	
625.05	6762.4	
625.24	9468.4	
625.43	8324.3	
625.62	8505.9	
625.81	6847	
626	8955.1	
626.19	8583.7	
626.38	7407.5	
626.56	7002.7	
626.75	8416.5	
626.94	8992.6	
627.13	7496.2	
627.32	6572.6	
627.51	8945.5	
627.7	9706.7	
627.89	6685.9	
628.08	7533.1	
628.27	8372.8	
628.46	8538.7	
628.65	6877.1	
628.83	6612.9	
629.02	8795.3	
629.21	8408.3	
629.4	7231.4	
629.59	7324.2	
629.78	8388.5	
629.97	8939.4	
630.16	7300.3	
630.35	7000.6	
630.54	9443.9	
630.72	9150.3	
630.91	7015	
631.1	7311.2	
631.29	8739.4	
631.48	8779	
631.67	7497.6	
631.86	7077.1	
632.05	8615.8	
632.24	8613.8	
632.42	6831.3	
632.61	7182.9	
632.8	8572.8	
632.99	8322.9	
633.18	7294.2	
633.37	7428.7	
633.56	8810.4	
633.75	8757.8	
633.93	7293.5	
634.12	7032	
634.31	9385.8	
634.5	9024	
634.69	7012.9	
634.88	7458	
635.07	8666.3	
635.25	9097.8	
635.44	7792.5	
635.63	7813.7	
635.82	8587.8	
636.01	7996	
636.2	7598	
636.39	7303.7	
636.57	9321.7	
636.76	8973.5	
636.95	6969.2	
637.14	7886.7	
637.33	8952.4	
637.52	9332.6	
637.7	6741.9	
637.89	7612.3	
638.08	8634.2	
638.27	9615.2	
638.46	7498.3	
638.65	7771.4	
638.83	9491.7	
639.02	8548.9	
639.21	7465.5	
639.4	7774.8	
639.59	8797.4	
639.78	8580.3	
639.96	6908.5	
640.15	6980.8	
640.34	8742.1	
640.53	8702.5	
640.72	6723.5	
640.91	6952.2	
641.09	8311.3	
641.28	9116.2	
641.47	7051.2	
641.66	7533.1	
641.85	8719.6	
642.03	8779.6	
642.22	7383.6	
642.41	6967.2	
642.6	8348.2	
642.79	7907.2	
642.97	6926.9	
643.16	7341.3	
643.35	8379.6	
643.54	8237.6	
643.73	6830	
643.91	7311.9	
644.1	8084.7	
644.29	8561.2	
644.48	6832	
644.67	6818.4	
644.85	8024.6	
645.04	8534.6	
645.23	6640.9	
645.42	6803.4	
645.6	8047.8	
645.79	8862.9	
645.98	6653.9	
646.17	6018.3	
646.36	7798.7	
646.54	8173.4	
646.73	7118.1	
646.92	6431.3	
647.11	8029.4	
647.29	8597.4	
647.48	6460	
647.67	6219	
647.86	8830.8	
648.05	8770.1	
648.23	6593.1	
648.42	7426.6	
648.61	8426	
648.8	8256.7	
648.98	6414.9	
649.17	6556.9	
649.36	7922.2	
649.55	7628.7	
649.73	6351.4	
649.92	6888.7	
650.11	7745.4	
650.3	8075.1	
650.48	6565.1	
650.67	6457.9	
650.86	8305.9	
651.05	7507.9	
651.23	6420.4	
651.42	6373.3	
651.61	7839.6	
651.79	7809.6	
651.98	6483.2	
652.17	6285.2	
652.36	8095.6	
652.54	7428.7	
652.73	6259.3	
652.92	6270.9	
653.11	8142.7	
653.29	8222.6	
653.48	5932.3	
653.67	6457.9	
653.85	7930.4	
654.04	8678.6	
654.23	6638.8	
654.42	6298.2	
654.6	7593.2	
654.79	8010.3	
654.98	6016.9	
655.16	6324.8	
655.35	7374.1	
655.54	7136.5	
655.73	5912.5	
655.91	5814.2	
656.1	7723.6	
656.29	7043	
656.47	5456.5	
656.66	6608.1	
656.85	7281.2	
657.03	7302.4	
657.22	5872.2	
657.41	6012.2	
657.59	7465.5	
657.78	7333.1	
657.97	5726.1	
658.16	6226.5	
658.34	7954.3	
658.53	8221.9	
658.72	6763.8	
658.9	7120.1	
659.09	7673.1	
659.28	7643.7	
659.46	6112.5	
659.65	6096.1	
659.84	7388.4	
660.02	7968.6	
660.21	6094.8	
660.4	5971.2	
660.58	8050.6	
660.77	7629.4	
660.96	6419	
661.14	5765	
661.33	8501.1	
661.52	8382.3	
661.7	5811.5	
661.89	8062.9	
662.08	7446.4	
662.26	7060	
662.45	5924.8	
662.64	6064.7	
662.82	7954.3	
663.01	7420.5	
663.2	5982.8	
663.38	6510.5	
663.57	7788.4	
663.75	7703.8	
663.94	6221	
664.13	7039.6	
664.31	7373.4	
664.5	7802.1	
664.69	6404.7	
664.87	6676.4	
665.06	7268.2	
665.25	7670.3	
665.43	6840.2	
665.62	6908.5	
665.8	7834.2	
665.99	7409.6	
666.18	6178	
666.36	6160.3	
666.55	7847.8	
666.74	7792.5	
666.92	5984.8	
667.11	6961	
667.29	7502.4	
667.48	7849.2	
667.67	6613.6	
667.85	6068.1	
668.04	7397.3	
668.22	7397.9	
668.41	6262.7	
668.6	6432.7	
668.78	7226.6	
668.97	7407.5	
669.15	6381.5	
669.34	5730.2	
669.53	7331	
669.71	7494.2	
669.9	5917.9	
670.08	6344.6	
670.27	7245.7	
670.46	7703.8	
670.64	6429.3	
670.83	6564.4	
671.01	7227.3	
671.2	7568.6	
671.38	6005.3	
671.57	5879	
671.76	8069.7	
671.94	8374.1	
672.13	5838.1	
672.31	6540.5	
672.5	7776.1	
672.69	7253.9	
672.87	5932.3	
673.06	6126.2	
673.24	7682.6	
673.43	7385	
673.61	6441.5	
673.8	6082.5	
673.98	7727.7	
674.17	7854.6	
674.36	6501.6	
674.54	6322.8	
674.73	7481.2	
674.91	7813	
675.1	6187.6	
675.28	5945.3	
675.47	7378.1	
675.65	7832.1	
675.84	6176.7	
676.03	6371.2	
676.21	7338.6	
676.4	6991.1	
676.58	6614.3	
676.77	6437.4	
676.95	8329.8	
677.14	7315.3	
677.32	5883.8	
677.51	5819	
677.69	7800.7	
677.88	7185	
678.06	5870.8	
678.25	5988.3	
678.44	7448.5	
678.62	7302.4	
678.81	5792.3	
678.99	6335.7	
679.18	7959.1	
679.36	7714	
679.55	6090.7	
679.73	6451.8	
679.92	7732.4	
680.1	7266.9	
680.29	6920.1	
680.47	6010.1	
680.66	7322.9	
680.84	7848.5	
681.03	5716.6	
681.21	6275	
681.4	7288	
681.58	7282.6	
681.77	5973.2	
681.95	5931.6	
682.14	7845.1	
682.32	8110.6	
682.51	6451.8	
682.69	5652.4	
682.88	7231.4	
683.06	7604.1	
683.25	6316.6	
683.43	6588.3	
683.62	7563.8	
683.8	7721.5	
683.99	6745.3	
684.17	6135.7	
684.36	8276.5	
684.54	7361.1	
684.73	5741.8	
684.91	5888.6	
685.1	7591.8	
685.28	7145.4	
685.46	6168.5	
685.65	6065.4	
685.83	7496.9	
686.02	7112.6	
686.2	5538.4	
686.39	5617.6	
686.57	6668.9	
686.76	7879.9	
686.94	5597.1	
687.13	5740.5	
687.31	7311.2	
687.5	7126.2	
687.68	5326.8	
687.86	6149.4	
688.05	8348.9	
688.23	6738.5	
688.42	6124.8	
688.6	5709.7	
688.79	7110.5	
688.97	7079.8	
689.16	6035.4	
689.34	5356.8	
689.52	7536.5	
689.71	7742	
689.89	6238.8	
690.08	5817.6	
690.26	7422.5	
690.45	7237.5	
690.63	6368.5	
690.81	5972.6	
691	7366.5	
691.18	7176.1	
691.37	6059.3	
691.55	7403.4	
691.74	7083.2	
691.92	8434.9	
692.1	5886.5	
692.29	5602.6	
692.47	7228.6	
692.66	6834.1	
692.84	5718.6	
693.02	6059.9	
693.21	6862.1	
693.39	7281.9	
693.58	6174.6	
693.76	5798.5	
693.94	7990.5	
694.13	7873.8	
694.31	5873.6	
694.5	6579.4	
694.68	7137.2	
694.86	7414.3	
695.05	6121.4	
695.23	6202.6	
695.42	7659.4	
695.6	9275.3	
695.78	6623.8	
695.97	6031.3	
696.15	7806.2	
696.34	7391.1	
696.52	5920	
696.7	6443.6	
696.89	7717.4	
697.07	7169.3	
697.25	6289.3	
697.44	7299.6	
697.62	7568.6	
697.81	7720.8	
697.99	6070.2	
698.17	6457.2	
698.36	7138.5	
698.54	7572.7	
698.72	6354.2	
698.91	5658.5	
699.09	7302.4	
699.28	7106.5	
699.46	6055.2	
699.64	6032.6	
699.83	7158.3	
700.01	7850.5	
700.19	6603.3	
700.38	5453.7	
700.56	7901.1	
700.74	7222.5	
700.93	5709.1	
701.11	6270.9	
701.29	7497.6	
701.48	8245.8	
701.66	5821	
701.84	5975.3	
702.03	7299.6	
702.21	7730.4	
702.39	5667.4	
702.58	6098.2	
702.76	7630	
702.94	7612.3	
703.13	5594.4	
703.31	7237.5	
703.49	7137.9	
703.68	7965.9	
703.86	5752.7	
704.04	6406.7	
704.23	7458.7	
704.41	7796.6	
704.59	5930.9	
704.78	6576.7	
704.96	8551	
705.14	7672.4	
705.33	5732.9	
705.51	6204.7	
705.69	7176.8	
705.87	7819.1	
706.06	6361	
706.24	5570.5	
706.42	7482.6	
706.61	7674.4	
706.79	6436.1	
706.97	5677	
707.16	7165.2	
707.34	7514.7	
707.52	6346	
707.7	5802.6	
707.89	7130.3	
708.07	6996.5	
708.25	6300.9	
708.44	6646.3	
708.62	7050.5	
708.8	7843	
708.98	6479.8	
709.17	5842.9	
709.35	7335.1	
709.53	7342.7	
709.72	5564.3	
709.9	5692.7	
710.08	7587.7	
710.26	7544	
710.45	6624.5	
710.63	5806	
710.81	7202	
710.99	7303.7	
711.18	6230.6	
711.36	5808	
711.54	7145.4	
711.72	7563.8	
711.91	5834	
712.09	5542.5	
712.27	7217	
712.45	7594.6	
712.64	5983.5	
712.82	5312.4	
713	6825.2	
713.18	6836.8	
713.37	5273.5	
713.55	6129.6	
713.73	7437.5	
713.91	6531.7	
714.1	5576.6	
714.28	5156.1	
714.46	7081.9	
714.64	6489.3	
714.83	4702.8	
715.01	5100.8	
715.19	6460.7	
715.37	5883.1	
715.55	4747.2	
715.74	4929.5	
715.92	6853.9	
716.1	5500.8	
716.28	5687.9	
716.47	4979.3	
716.65	6036.7	
716.83	6026.5	
717.01	4903.5	
717.19	4822.3	
717.38	7408.9	
717.56	5771.2	
717.74	5038.7	
717.92	4441.4	
718.1	6526.2	
718.29	5922.7	
718.47	4213.4	
718.65	4629.8	
718.83	6530.3	
719.01	6616.3	
719.2	4203.8	
719.38	4901.5	
719.56	6386.9	
719.74	7408.2	
719.92	4771.1	
720.11	5373.9	
720.29	6451.1	
720.47	5877	
720.65	4448.2	
720.83	5033.2	
721.02	6020.3	
721.2	5896.8	
721.38	4937	
721.56	4379.9	
721.74	5442.1	
721.92	5558.9	
722.11	5132.9	
722.29	4947.2	
722.47	6357.6	
722.65	5803.9	
722.83	4430.4	
723.01	4919.2	
723.2	5838.1	
723.38	6074.3	
723.56	4001	
723.74	4717.8	
723.92	5497.4	
724.1	6245.6	
724.29	4309.6	
724.47	5030.5	
724.65	5681.1	
724.83	5483.1	
725.01	4233.8	
725.19	4732.9	
725.37	5500.8	
725.56	5464.7	
725.74	4071.4	
725.92	4281.6	
726.1	5483.8	
726.28	5655.8	
726.46	4576.5	
726.64	4325.3	
726.83	5683.1	
727.01	5786.2	
727.19	4046.1	
727.37	4659.1	
727.55	5783.5	
727.73	6054.5	
727.91	4016.1	
728.09	3907.5	
728.28	6049.7	
728.46	6227.2	
728.64	4599.1	
728.82	4522.6	
729	6670.2	
729.18	6252.4	
729.36	4033.1	
729.54	5498.1	
729.72	6935.1	
729.91	5807.4	
730.09	5322	
730.27	4459.8	
730.45	5750.7	
730.63	6117.3	
730.81	4832.5	
730.99	4288.4	
731.17	6511.9	
731.35	5547.9	
731.53	4564.2	
731.71	4349.2	
731.9	6319.3	
732.08	6352.8	
732.26	4574.5	
732.44	4290.5	
732.62	6434.7	
732.8	6062	
732.98	4807.3	
733.16	4145.1	
733.34	6015.6	
733.52	5104.2	
733.7	4399.7	
733.88	4604.5	
734.07	5874.3	
734.25	5754.8	
734.43	4080.2	
734.61	5007.3	
734.79	6760.3	
734.97	5621	
735.15	4116.4	
735.33	4396.3	
735.51	5927.5	
735.69	5659.9	
735.87	4979.3	
736.05	4479.6	
736.23	5745.9	
736.41	5490.6	
736.59	4371	
736.77	4403.1	
736.95	6005.3	
737.13	5558.2	
737.32	4071.4	
737.5	4217.5	
737.68	6378.1	
737.86	5468.1	
738.04	3954.6	
738.22	5151.3	
738.4	5382.1	
738.58	5629.2	
738.76	4332.1	
738.94	3678.8	
739.12	5445.5	
739.3	5359.5	
739.48	4724	
739.66	4465.3	
739.84	5566.4	
740.02	5510.4	
740.2	3689.8	
740.38	3876.8	
740.56	5735.7	
740.74	4991.6	
740.92	4275.5	
741.1	4145.8	
741.28	5400.5	
741.46	5214.8	
741.64	3971	
741.82	4335.5	
742	5453.1	
742.18	5347.9	
742.36	4068.6	
742.54	3838.6	
742.72	5831.2	
742.9	4893.3	
743.08	4322.6	
743.26	3583.3	
743.44	5864.7	
743.62	5767.8	
743.8	4382.7	
743.98	3769.6	
744.16	5507.7	
744.34	5257.1	
744.52	4283	
744.7	4212	
744.88	5599.8	
745.06	5282.4	
745.24	4265.9	
745.42	4387.4	
745.6	5682.4	
745.78	5554.8	
745.96	3590.1	
746.14	3791.5	
746.32	6189.6	
746.5	5606.7	
746.68	4114.4	
746.86	3706.8	
747.03	5825.1	
747.21	4866	
747.39	4086.4	
747.57	3734.8	
747.75	5304.9	
747.93	5508.4	
748.11	3698.6	
748.29	3665.9	
748.47	6422.4	
748.65	5111.7	
748.83	4173.8	
749.01	3986	
749.19	5444.9	
749.37	4845.5	
749.55	3962.8	
749.73	3962.1	
749.91	5272.2	
750.09	5085.1	
750.26	3978.5	
750.44	3530	
750.62	5234.6	
750.8	5177.3	
750.98	3521.1	
751.16	3668.6	
751.34	5358.9	
751.52	4917.9	
751.7	4225	
751.88	3419.4	
752.06	5638.1	
752.24	5427.1	
752.42	3441.3	
752.59	3698.6	
752.77	5212.1	
752.95	6034.7	
753.13	4096.6	
753.31	3747.1	
753.49	4956.8	
753.67	5242.1	
753.85	3949.2	
754.03	3620.8	
754.21	5455.8	
754.38	5689.9	
754.56	3705.5	
754.74	3093.8	
754.92	4885.8	
755.1	5263.3	
755.28	3089.7	
755.46	3123.8	
755.64	5914.5	
755.82	5930.9	
755.99	3355.3	
756.17	3387.3	
756.35	4262.5	
756.53	5338.4	
756.71	2661.7	
756.89	3315.7	
757.07	5006.6	
757.25	4412	
757.42	3630.4	
757.6	4216.8	
757.78	5089.2	
757.96	4410	
758.14	3386	
758.32	3096.5	
758.5	4105.5	
758.67	4649.6	
758.85	3269.9	
759.03	3360.7	
759.21	4847.5	
759.39	4394.9	
759.57	3003.7	
759.75	3772.4	
759.92	5278.3	
760.1	4827.7	
760.28	3969	
760.46	4121.9	
760.64	4633.9	
760.82	4535.6	
760.99	3843.4	
761.17	3375.1	
761.35	5147.2	
761.53	4419.5	
761.71	3562.1	
761.89	3890.5	
762.06	5085.1	
762.24	4714.4	
762.42	3491.1	
762.6	3287.7	
762.78	4732.2	
762.96	4647.5	
763.13	3729.4	
763.31	3448.8	
763.49	5175.2	
763.67	4693.3	
763.85	4040.6	
764.02	4434.5	
764.2	5483.8	
764.38	4799.8	
764.56	3390.8	
764.74	4001	
764.91	5487.9	
765.09	4654.4	
765.27	3284.3	
765.45	3099.3	
765.63	5550	
765.8	5383.4	
765.98	2967.5	
766.16	3152.5	
766.34	4449.6	
766.52	4274.1	
766.69	3783.3	
766.87	3050.8	
767.05	4758.1	
767.23	5197.1	
767.41	3291.8	
767.58	3432.4	
767.76	5137	
767.94	5192.3	
768.12	3302	
768.29	3753.9	
768.47	4764.9	
768.65	5246.2	
768.83	3078.8	
769	3830.4	
769.18	4525.3	
769.36	4959.5	
769.54	3867.9	
769.72	3093.8	
769.89	5233.9	
770.07	5213.4	
770.25	3336.1	
770.43	4192.9	
770.6	5701.5	
770.78	5883.8	
770.96	3433.8	
771.14	3874.8	
771.31	5201.8	
771.49	4702.1	
771.67	2923.8	
771.85	3058.3	
772.02	4245.4	
772.2	4597	
772.38	3584.6	
772.55	3238.5	
772.73	4884.4	
772.91	4727.4	
773.09	3469.9	
773.26	3586.7	
773.44	4870.1	
773.62	4678.2	
773.8	3124.5	
773.97	3021.4	
774.15	4934.2	
774.33	4724.7	
774.5	3088.3	
774.68	3351.2	
774.86	5013.4	
775.04	4655.7	
775.21	3191.4	
775.39	3113.6	
775.57	4835.9	
775.74	5047.6	
775.92	2991.4	
776.1	2956.6	
776.27	4838	
776.45	5646.9	
776.63	3078.1	
776.81	2860.3	
776.98	4622.3	
777.16	5319.9	
777.34	3189.4	
777.51	3400.3	
777.69	4605.2	
777.87	4453.6	
778.04	3312.2	
778.22	3670.6	
778.4	4489.8	
778.57	4945.2	
778.75	2796.8	
778.93	3009.8	
779.1	4394.9	
779.28	4173.8	
779.46	2738.8	
779.64	3070.6	
779.81	5018.2	
779.99	5570.5	
780.17	3617.4	
780.34	3685.7	
780.52	4675.5	
780.69	4816.8	
780.87	3353.2	
781.05	3080.1	
781.22	4752.7	
781.4	4727.4	
781.58	3161.4	
781.75	2569.5	
781.93	4792.2	
782.11	4250.9	
782.28	3758	
782.46	3160.7	
782.64	4164.9	
782.81	4833.9	
782.99	3189.4	
783.17	3185.3	
783.34	4694.6	
783.52	4362.2	
783.69	3234.4	
783.87	3814.7	
784.05	4312.3	
784.22	4282.3	
784.4	3857.7	
784.58	3351.8	
784.75	5025	
784.93	4400.4	
785.1	3082.9	
785.28	3517.7	
785.46	4805.9	
785.63	4276.2	
785.81	3124.5	
785.99	2933.4	
786.16	4484.4	
786.34	4691.2	
786.51	2994.1	
786.69	3349.8	
786.87	4086.4	
787.04	4442	
787.22	2983.2	
787.39	3585.3	
787.57	4325.3	
787.75	5015.5	
787.92	3725.9	
788.1	3631.7	
788.27	4290.5	
788.45	4066.6	
788.63	3459.7	
788.8	2638.5	
788.98	4662.5	
789.15	4046.1	
789.33	2769.5	
789.5	3127.9	
789.68	4924.7	
789.86	4947.9	
790.03	3451.5	
790.21	2967.5	
790.38	4995	
790.56	4390.2	
790.73	2957.3	
790.91	2962	
791.09	4341	
791.26	4749.2	
791.44	3148.4	
791.61	2744.3	
791.79	4334.9	
791.96	4293.2	
792.14	2857.6	
792.32	2566.1	
792.49	4254.3	
792.67	4384	
792.84	2921.1	
793.02	2755.9	
793.19	4683	
793.37	5042.8	
793.54	2572.2	
793.72	2824.1	
793.89	5130.2	
794.07	4291.9	
794.25	3246	
794.42	2614.6	
794.6	4999.8	
794.77	4684.4	
794.95	3374.4	
795.12	2953.2	
795.3	4300.7	
795.47	4698	
795.65	3255.6	
795.82	3089	
796	4171.7	
796.17	5446.9	
796.35	3086.3	
796.52	3556	
796.7	4679.6	
796.87	4730.8	
797.05	3045.3	
797.22	3588.7	
797.4	4706.2	
797.57	5392.3	
797.75	3193.5	
797.92	2993.4	
798.1	4990.9	
798.27	4163.5	
798.45	2675.3	
798.62	2780.5	
798.8	4504.2	
798.97	4777.2	
799.15	3295.9	
799.32	3151.1	
799.5	4030.4	
799.67	4489.1	
799.85	3437.2	
800.02	2546.3	
800.2	4268.6	
800.37	4415.4	
800.55	3502.7	
800.72	3006.4	
800.9	4862.6	
801.07	5094	
801.25	3853.6	
801.42	3266.5	
801.6	4846.9	
801.77	4512.4	
801.95	3089.7	
802.12	2963.4	
802.29	4657.1	
802.47	4593.6	
802.64	3252.9	
802.82	2558.6	
802.99	4323.9	
803.17	4907.6	
803.34	3110.2	
803.52	2857.6	
803.69	5341.8	
803.87	4111.6	
804.04	3145.7	
804.21	3150.5	
804.39	5077.6	
804.56	4358.1	
804.74	2740.9	
804.91	3229.6	
805.09	4246.8	
805.26	4290.5	
805.44	2796.2	
805.61	3008.5	
805.78	4775.2	
805.96	4729.4	
806.13	3228.3	
806.31	3435.8	
806.48	3992.9	
806.66	4285.7	
806.83	3209.2	
807	3169.6	
807.18	4337.6	
807.35	4526.7	
807.53	3015.3	
807.7	2671.9	
807.87	5067.4	
808.05	4267.3	
808.22	3394.8	
808.4	2637.1	
808.57	4207.2	
808.74	4016.7	
808.92	2984.6	
809.09	3635.1	
809.27	4307.6	
809.44	4619.5	
809.61	2618.7	
809.79	2870.6	
809.96	5186.8	
810.14	4766.3	
810.31	2583.9	
810.48	3102	
810.66	4343.1	
810.83	4809.3	
811.01	2930.6	
811.18	3207.1	
811.35	4859.1	
811.53	3871.3	
811.7	3453.6	
811.87	3293.1	
812.05	4362.2	
812.22	4198.3	
812.39	2863.7	
812.57	2777.7	
812.74	4367.6	
812.92	5420.3	
813.09	3089.7	
813.26	3260.4	
813.44	5257.8	
813.61	4215.4	
813.78	2676.7	
813.96	3388	
814.13	4331.5	
814.3	4128	
814.48	3577.8	
814.65	3063.1	
814.82	5014.1	
815	4072	
815.17	3094.5	
815.34	3697.9	
815.52	4252.9	
815.69	4265.9	
815.87	3007.1	
816.04	3008.5	
816.21	4275.5	
816.38	3926.6	
816.56	3035.1	
816.73	2848.7	
816.9	5296.7	
817.08	4790.2	
817.25	2902.7	
817.42	3507.5	
817.6	3949.2	
817.77	4220.2	
817.94	3192.1	
818.12	2834.4	
818.29	4200.4	
818.46	5913.9	
818.64	2992.1	
818.81	2764.8	
818.98	4156	
819.16	5537.7	
819.33	3360.7	
819.5	3088.3	
819.67	4515.1	
819.85	4990.2	
820.02	3072	
820.19	3207.1	
820.37	4437.3	
820.54	4252.9	
820.71	3239.9	
820.88	3816.7	
821.06	4410	
821.23	4132.1	
821.4	3195.5	
821.58	3107.5	
821.75	4744.5	
821.92	4404.5	
822.09	2607.1	
822.27	2809.1	
822.44	4328	
822.61	4220.2	
822.79	2697.9	
822.96	4677.6	
823.13	4543.8	
823.3	4080.2	
823.48	2998.2	
823.65	2725.8	
823.82	4771.1	
823.99	4024.9	
824.17	3689.8	
824.34	2757.9	
824.51	5423.7	
824.68	4320.5	
824.86	2902.7	
825.03	3153.9	
825.2	4344.4	
825.37	4947.2	
825.55	2875.3	
825.72	3100.6	
825.89	5339.1	
826.06	5080.3	
826.24	3039.2	
826.41	3076	
826.58	5083.7	
826.75	4491.2	
826.92	2546.3	
827.1	2738.8	
827.27	6525.5	
827.44	5318.6	
827.61	2906.1	
827.79	3461.1	
827.96	4160.8	
828.13	4252.9	
828.3	2977.1	
828.47	2629.6	
828.65	4558.8	
828.82	4461.2	
828.99	3715.7	
829.16	3292.5	
829.34	4787.5	
829.51	4616.1	
829.68	3119.1	
829.85	3166.8	
830.02	5074.9	
830.2	4820.2	
830.37	2470.5	
830.54	3620.8	
830.71	5318.6	
830.88	4381.3	
831.05	2541.5	
831.23	2852.8	
831.4	5222.3	
831.57	5575.9	
831.74	2889	
831.91	2560	
832.09	4646.8	
832.26	4790.9	
832.43	2908.8	
832.6	3293.1	
832.77	4513	
832.94	5014.1	
833.12	2406.4	
833.29	2932.7	
833.46	4631.1	
833.63	5732.9	
833.8	3203	
833.97	3002.3	
834.15	4844.8	
834.32	4631.8	
834.49	3096.5	
834.66	3110.9	
834.83	4919.2	
835	4175.1	
835.17	2889	
835.35	2871.9	
835.52	4760.8	
835.69	4630.5	
835.86	3086.3	
836.03	2516.3	
836.2	4748.6	
836.37	4505.5	
836.55	2967.5	
836.72	2850.8	
836.89	4560.1	
837.06	4857.8	
837.23	3039.2	
837.4	3179.8	
837.57	5375.9	
837.75	5736.4	
837.92	2777.7	
838.09	2911.5	
838.26	4496.7	
838.43	4950.6	
838.6	3069.9	
838.77	2794.1	
838.94	5494	
839.11	5337	
839.29	3016.7	
839.46	2402.9	
839.63	4799.1	
839.8	4595	
839.97	2920.4	
840.14	2884.2	
840.31	4693.9	
840.48	4770.4	
840.65	2491.7	
840.82	2819.4	
841	4825.7	
841.17	4644.1	
841.34	2707.4	
841.51	2781.1	
841.68	4788.8	
841.85	4533.5	
842.02	2824.8	
842.19	2398.9	
842.36	4645.5	
842.53	4591.5	
842.7	2729.9	
842.87	3189.4	
843.05	5712.5	
843.22	4569.7	
843.39	2581.8	
843.56	2800.3	
843.73	4440	
843.9	4889.9	
844.07	4152.6	
844.24	3491.8	
844.41	6365.8	
844.58	4255.7	
844.75	2578.4	
844.92	2824.1	
845.09	4691.2	
845.26	4742.4	
845.43	2727.9	
845.6	2832.3	
845.77	4803.9	
845.94	4556	
846.12	2953.2	
846.29	3069.9	
846.46	4940.4	
846.63	4741	
846.8	2702	
846.97	3154.6	
847.14	5104.2	
847.31	4732.9	
847.48	3011.2	
847.65	3227.6	
847.82	4885.1	
847.99	4820.9	
848.16	3450.1	
848.33	3228.3	
848.5	4377.2	
848.67	5066.7	
848.84	2678.7	
849.01	2803.7	
849.18	4405.9	
849.35	4197	
849.52	3199.6	
849.69	2604.3	
849.86	4949.9	
850.03	5001.8	
850.2	2654.9	
850.37	3142.3	
850.54	4931.5	
850.71	4529.4	
850.88	3155.2	
851.05	2623.4	
851.22	4650.3	
851.39	5097.4	
851.56	2549	
851.73	3031	
851.9	4214.7	
852.07	4920.6	
852.24	2916.3	
852.41	2670.6	
852.58	4711.7	
852.75	4296.6	
852.92	2943.6	
853.09	2604.3	
853.26	4400.4	
853.43	5026.4	
853.6	2671.9	
853.77	2363.4	
853.94	5097.4	
854.11	4235.2	
854.28	3747.8	
854.44	2857.6	
854.61	5357.5	
854.78	4990.2	
854.95	2653.5	
855.12	3218.7	
855.29	3947.1	
855.46	5135.6	
855.63	2702	
855.8	3523.2	
855.97	4450.9	
856.14	5039.4	
856.31	3672	
856.48	2902.7	
856.65	4500.8	
856.82	4199.7	
856.99	2570.2	
857.16	2887	
857.33	5547.9	
857.49	4528.7	
857.66	2824.1	
857.83	3045.3	
858	4611.3	
858.17	4649.6	
858.34	2555.9	
858.51	2682.2	
858.68	5162.9	
858.85	5128.1	
859.02	3036.5	
859.19	3224.2	
859.36	4315.1	
859.52	4286.4	
859.69	2697.9	
859.86	3075.4	
860.03	4272.7	
860.2	5108.3	
860.37	2521.7	
860.54	2667.1	
860.71	4880.3	
860.88	5190.9	
861.05	2951.1	
861.21	3285.6	
861.38	5100.8	
861.55	4186	
861.72	2461	
861.89	2934.7	
862.06	4944.5	
862.23	5193	
862.4	2628.2	
862.56	2736.8	
862.73	4809.3	
862.9	4616.1	
863.07	3039.9	
863.24	2458.2	
863.41	4222.2	
863.58	4312.3	
863.75	2693.8	
863.91	3065.1	
864.08	5016.2	
864.25	4899.4	
864.42	3251.5	
864.59	3569.6	
864.76	5298.8	
864.93	4249.5	
865.09	2572.9	
865.26	2859.6	
865.43	5068.7	
865.6	5279.7	
865.77	2415.2	
865.94	2596.1	
866.1	5046.2	
866.27	4816.1	
866.44	3873.4	
866.61	2583.2	
866.78	4513.7	
866.95	4835.9	
867.11	2672.6	
867.28	2428.9	
867.45	5001.8	
867.62	4229.7	
867.79	2993.4	
867.96	2667.1	
868.12	4272.1	
868.29	4914.4	
868.46	2667.1	
868.63	3473.4	
868.8	4992.3	
868.97	4851	
869.13	2775.7	
869.3	2770.9	
869.47	4773.8	
869.64	4956.1	
869.81	2649.4	
869.97	2674	
870.14	4676.9	
870.31	5128.1	
870.48	2605	
870.65	3301.3	
870.81	4552.6	
870.98	4582.7	
871.15	3013.2	
871.32	2788.7	
871.48	4729.4	
871.65	5192.3	
871.82	2720.4	
871.99	2904.7	
872.16	5438	
872.32	5086.5	
872.49	2716.3	
872.66	2729.9	
872.83	4924	
872.99	4373.1	
873.16	2994.8	
873.33	2631.6	
873.5	4627	
873.67	4664.6	
873.83	2770.9	
874	3461.1	
874.17	4730.1	
874.34	5378	
874.5	3358	
874.67	3198.2	
874.84	5132.9	
875.01	4115.1	
875.17	3525.2	
875.34	2702.6	
875.51	4697.4	
875.68	5523.4	
875.84	3192.8	
876.01	3678.2	
876.18	4852.3	
876.34	4857.8	
876.51	2656.9	
876.68	2607.7	
876.85	4483	
877.01	5117.9	
877.18	3644	
877.35	2617.3	
877.52	4665.3	
877.68	4265.9	
877.85	2664.4	
878.02	2641.2	
878.18	4543.8	
878.35	4405.9	
878.52	2179	
878.69	3100.6	
878.85	4954	
879.02	4840.7	
879.19	3636.5	
879.35	2836.4	
879.52	4846.2	
879.69	4916.5	
879.86	2425.5	
880.02	2908.1	
880.19	4605.9	
880.36	5401.9	
880.52	2984.6	
880.69	3121.1	
880.86	4962.2	
881.02	4913.1	
881.19	2899.2	
881.36	2822.1	
881.52	4816.1	
881.69	4337.6	
881.86	2876.7	
882.02	2820.7	
882.19	5042.1	
882.36	5670.1	
882.52	2759.3	
882.69	3606.5	
882.86	4677.6	
883.02	4664.6	
883.19	3166.8	
883.36	2984.6	
883.52	4899.4	
883.69	5477	
883.86	2676	
884.02	2468.5	
884.19	4899.4	
884.36	4661.2	
884.52	2964.1	
884.69	2867.8	
884.86	4507.6	
885.02	5230.5	
885.19	2904	
885.36	3007.8	
885.52	4529.4	
885.69	4746.5	
885.86	3691.1	
886.02	3326.6	
886.19	4900.8	
886.35	4502.8	
886.52	2899.2	
886.69	3534.1	
886.85	4260.5	
887.02	5143.1	
887.19	5143.1	
887.35	5143.1	
887.52	5143.1	
887.68	5143.1	
887.85	5143.1	
888.02	5143.1	
888.18	5143.1	
888.35	5143.1	
888.51	5143.1	
888.68	5143.1	
888.85	5143.1	
889.01	5143.1	
889.18	5143.1	
889.35	5143.1	
889.51	5143.1	
889.68	5143.1	
889.84	5143.1	
890.01	5143.1	
890.17	5143.1	
890.34	5143.1	
890.51	5143.1	
890.67	5143.1	
890.84	5143.1	
891	5143.1	
891.17	5143.1	
891.34	5143.1	
891.5	5143.1	
891.67	5143.1	
891.83	5143.1	
892	5143.1	
892.16	5143.1	
892.33	5143.1	
892.5	5143.1	
892.66	5143.1	
892.83	5143.1	
892.99	5143.1	
893.16	5143.1	
893.32	5143.1	
893.49	5143.1	
893.65	5143.1	
893.82	5143.1	
893.99	5143.1	
894.15	5143.1	
894.32	5143.1	
894.48	5143.1	
894.65	5143.1	
894.81	5143.1	
894.98	5143.1	
895.14	5143.1	
895.31	5143.1	
895.47	5143.1	
895.64	5143.1	
895.81	5143.1	
895.97	5143.1	
896.14	5143.1	
896.3	5143.1	
896.47	5143.1	
896.63	5143.1	
896.8	5143.1	
896.96	5143.1	
897.13	5143.1	
897.29	5143.1	
897.46	5143.1	
897.62	5143.1	
897.79	5143.1	
897.95	5143.1	
898.12	5143.1	
898.28	5143.1	
898.45	5143.1	
898.61	5143.1	
898.78	5143.1	
898.94	5143.1	
899.11	5143.1	
899.27	5143.1	
899.44	5143.1	
899.6	5143.1	
899.77	5143.1	
899.93	5143.1	
900.1	5143.1	
900.26	5143.1	
900.43	5143.1	
900.59	5143.1	
900.76	5143.1	
900.92	5143.1	
901.09	5143.1	
901.25	5143.1	
901.42	5143.1	
901.58	5143.1	
901.75	5143.1	
901.91	5143.1	
902.07	5143.1	
902.24	5143.1	
902.4	5143.1	
902.57	5143.1	
902.73	5143.1	
902.9	5143.1	
903.06	5143.1	
903.23	5143.1	
903.39	5143.1	
903.56	5143.1	
903.72	5143.1	
903.88	5143.1	
904.05	5143.1	
904.21	5143.1	
904.38	5143.1	
904.54	5143.1	
904.71	5143.1	
904.87	5143.1	
905.03	5143.1	
905.2	5143.1	
905.36	5143.1	
905.53	5143.1	
905.69	5143.1	
905.86	5143.1	
906.02	5143.1	
906.18	5143.1	
906.35	5143.1	
906.51	5143.1	
906.68	5143.1	
906.84	5143.1	
907.01	5143.1	
907.17	5143.1	
907.33	5143.1	
907.5	5143.1	
907.66	5143.1	
907.83	5143.1	
907.99	5143.1	
908.15	5143.1	
908.32	5143.1	
908.48	5143.1	
908.65	5143.1	
908.81	5143.1	
908.97	5143.1	
909.14	5143.1	
909.3	5143.1	
909.47	5143.1	
909.63	5143.1	
909.79	5143.1	
909.96	5143.1	
910.12	5143.1	
910.28	5143.1	
910.45	5143.1	
910.61	5143.1	
910.78	5143.1	
910.94	5143.1	
911.1	5143.1	
911.27	5143.1	
911.43	5143.1	
911.59	5143.1	
911.76	5143.1	
911.92	5143.1	
912.08	5143.1	
912.25	5143.1	
912.41	5143.1	
912.57	5143.1	
912.74	5143.1	
912.9	5143.1	
913.07	5143.1	
913.23	5143.1	
913.39	5143.1	
913.56	5143.1	
913.72	5143.1	
913.88	5143.1	
914.05	5143.1	
914.21	5143.1	
914.37	5143.1	
914.54	5143.1	
914.7	5143.1	
914.86	5143.1	
915.03	5143.1	
915.19	5143.1	
