Wavelength	Intensities	
nm	a.u.	
179.22	1840.1	
179.44	1839.8	
179.65	1840.4	
179.86	1839.1	
180.08	1867.1	
180.29	4602.5	
180.51	3319.8	
180.72	5404.6	
180.94	6268.8	
181.15	3088.3	
181.37	3037.1	
181.58	5276.3	
181.79	5524.1	
182.01	3233.1	
182.22	3449.5	
182.44	5574.6	
182.65	4718.5	
182.87	4275.5	
183.08	3798.3	
183.29	5780.1	
183.51	4775.9	
183.72	3411.9	
183.94	4985.4	
184.15	5156.1	
184.37	5154.1	
184.58	3012.6	
184.79	4136.9	
185.01	4827.1	
185.22	5528.8	
185.44	4258.4	
185.65	3669.3	
185.86	5091.3	
186.08	4724	
186.29	2979.1	
186.51	3183.2	
186.72	4844.1	
186.94	5676.3	
187.15	3674.1	
187.36	3736.2	
187.58	7309.9	
187.79	5287.2	
188.01	3943.7	
188.22	5955.5	
188.43	6295.5	
188.65	5554.1	
188.86	3192.1	
189.08	3771	
189.29	5020.3	
189.5	4997	
189.72	3493.8	
189.93	3593.5	
190.15	5658.5	
190.36	6712.6	
190.57	3859.7	
190.79	3713	
191	5763.7	
191.22	5730.9	
191.43	3874.8	
191.64	3140.2	
191.86	5928.2	
192.07	5747.3	
192.29	3351.8	
192.5	3487	
192.71	5693.4	
192.93	4957.4	
193.14	3500.7	
193.35	3545	
193.57	4937	
193.78	5696.8	
194	2839.8	
194.21	3462.4	
194.42	4754.7	
194.64	5200.5	
194.85	3791.5	
195.07	4447.5	
195.28	5245.5	
195.49	4517.1	
195.71	4612	
195.92	3281.5	
196.13	5350.7	
196.35	5458.5	
196.56	4904.2	
196.78	3795.6	
196.99	6663.4	
197.2	6270.2	
197.42	4252.9	
197.63	3799.7	
197.84	4685.1	
198.06	5354.1	
198.27	3536.2	
198.48	4609.3	
198.7	5024.3	
198.91	5109.7	
199.13	3803.1	
199.34	3807.9	
199.55	5571.8	
199.77	4582	
199.98	3371	
200.19	3874.1	
200.41	5082.4	
200.62	4862.6	
200.83	3953.9	
201.05	4248.9	
201.26	5130.2	
201.47	4852.3	
201.69	3355.3	
201.9	3263.1	
202.11	5227.8	
202.33	6143.9	
202.54	3597.6	
202.76	3988.1	
202.97	5316.5	
203.18	5317.9	
203.4	3947.8	
203.61	3890.5	
203.82	5194.3	
204.04	4899.4	
204.25	3864.5	
204.46	3696.6	
204.68	5201.8	
204.89	5414.1	
205.1	3688.4	
205.32	3224.9	
205.53	5534.3	
205.74	5700.2	
205.96	2764.8	
206.17	3903.4	
206.38	5502.9	
206.6	5613.5	
206.81	4335.5	
207.02	3560.7	
207.24	5365	
207.45	5721.3	
207.66	3624.2	
207.88	3132.7	
208.09	5362.3	
208.3	5151.3	
208.52	3327.9	
208.73	3682.2	
208.94	5158.2	
209.15	5864.7	
209.37	3619.4	
209.58	3784.6	
209.79	5636.7	
210.01	4975.2	
210.22	2949.1	
210.43	3036.5	
210.65	5175.2	
210.86	5556.8	
211.07	3633.1	
211.29	3326.6	
211.5	5468.1	
211.71	5129.5	
211.93	3336.8	
212.14	3357.3	
212.35	5130.8	
212.56	5279.7	
212.78	3852.9	
212.99	3163.4	
213.2	6044.2	
213.42	4976.6	
213.63	3435.1	
213.84	3638.6	
214.06	4608.6	
214.27	4680.3	
214.48	3616	
214.69	3886.4	
214.91	5742.5	
215.12	5822.4	
215.33	3889.1	
215.55	4235.2	
215.76	6331.6	
215.97	5533.6	
216.18	3725.3	
216.4	3706.8	
216.61	4891.9	
216.82	5626.5	
217.04	3349.8	
217.25	3522.5	
217.46	5756.2	
217.67	5509.7	
217.89	2978.4	
218.1	3106.1	
218.31	5247.6	
218.53	5402.5	
218.74	3525.2	
218.95	3372.3	
219.16	5132.2	
219.38	6004.6	
219.59	3425.6	
219.8	4065.9	
220.01	6653.2	
220.23	5226.4	
220.44	4489.8	
220.65	3345.7	
220.87	5235.3	
221.08	5777.3	
221.29	3105.4	
221.5	4108.2	
221.72	7000	
221.93	4888.5	
222.14	3822.9	
222.35	4427.7	
222.57	5145.9	
222.78	5535.7	
222.99	3629.7	
223.2	3856.3	
223.42	5455.1	
223.63	5561.6	
223.84	2819.4	
224.05	2863.1	
224.27	6500.9	
224.48	5990.3	
224.69	4505.5	
224.9	3806.5	
225.12	5416.9	
225.33	5147.2	
225.54	3047.4	
225.75	3406.5	
225.97	4756.7	
226.18	5040.7	
226.39	3729.4	
226.6	3422.2	
226.82	4983.4	
227.03	4851.6	
227.24	3836.5	
227.45	3194.1	
227.67	5558.9	
227.88	6025.1	
228.09	4209.9	
228.3	4296	
228.52	5580.7	
228.73	5128.1	
228.94	3588.7	
229.15	3170.9	
229.36	5123.3	
229.58	5054.4	
229.79	3619.4	
230	4122.6	
230.21	6148	
230.43	5309	
230.64	3777.1	
230.85	3940.3	
231.06	5622.4	
231.28	5509.7	
231.49	3146.4	
231.7	3685	
231.91	5477	
232.12	5166.3	
232.34	3244.7	
232.55	3639.2	
232.76	5738.4	
232.97	5342.5	
233.18	3344.3	
233.4	3769.6	
233.61	5417.6	
233.82	4971.1	
234.03	3464.5	
234.25	3449.5	
234.46	7133.8	
234.67	5235.3	
234.88	3837.9	
235.09	3391.4	
235.31	5500.2	
235.52	5107.6	
235.73	3765.5	
235.94	3201	
236.15	4925.4	
236.37	6238.8	
236.58	3401.7	
236.79	3663.8	
237	5487.2	
237.21	4706.2	
237.43	3975.1	
237.64	3080.1	
237.85	9162.6	
238.06	4810.7	
238.27	3981.9	
238.48	3209.8	
238.7	5469.4	
238.91	5028.4	
239.12	3589.4	
239.33	3721.2	
239.54	4874.8	
239.76	5131.5	
239.97	3548.4	
240.18	3637.9	
240.39	6350.8	
240.6	5403.2	
240.82	3844	
241.03	3108.1	
241.24	5170.4	
241.45	5969.8	
241.66	3348.4	
241.87	3946.4	
242.09	5799.8	
242.3	6209.4	
242.51	3932.1	
242.72	3668.6	
242.93	5695.4	
243.14	5104.9	
243.36	4247.5	
243.57	4565.6	
243.78	5978.7	
243.99	5503.6	
244.2	3712.3	
244.41	3325.2	
244.63	4755.4	
244.84	5440.1	
245.05	3875.4	
245.26	3618.8	
245.47	5408.7	
245.68	5623	
245.9	4827.7	
246.11	3854.3	
246.32	5049.6	
246.53	5444.9	
246.74	5891.3	
246.95	3110.9	
247.16	4729.4	
247.38	5233.9	
247.59	3090.4	
247.8	3678.2	
248.01	4898.1	
248.22	5138.4	
248.43	3372.3	
248.64	3595.6	
248.86	4625.7	
249.07	4974.5	
249.28	3271.3	
249.49	3775.8	
249.7	5696.1	
249.91	5795.1	
250.12	3042.6	
250.34	3111.5	
250.55	5352.7	
250.76	5212.8	
250.97	3846.1	
251.18	3779.2	
251.39	5848.3	
251.6	5356.8	
251.81	3883.6	
252.03	3883.6	
252.24	4960.2	
252.45	5615.5	
252.66	3174.4	
252.87	4044.1	
253.08	5228.5	
253.29	6717.3	
253.5	3224.2	
253.72	4398.4	
253.93	5052.3	
254.14	6150.7	
254.35	3491.8	
254.56	3600.3	
254.77	5387.5	
254.98	4845.5	
255.19	3401	
255.41	4413.4	
255.62	5286.5	
255.83	5713.8	
256.04	3904.8	
256.25	3816.7	
256.46	6361	
256.67	4889.2	
256.88	3745.1	
257.09	4214.7	
257.31	4834.6	
257.52	4900.8	
257.73	4726.7	
257.94	3477.5	
258.15	5063.3	
258.36	5246.9	
258.57	4335.5	
258.78	2781.8	
258.99	5603.9	
259.2	5057.8	
259.41	3553.2	
259.63	3530	
259.84	5925.5	
260.05	6349.4	
260.26	4548.5	
260.47	3421.5	
260.68	5698.1	
260.89	5113.8	
261.1	4199.7	
261.31	3287.7	
261.52	5774.6	
261.73	6078.4	
261.95	4475.5	
262.16	3880.9	
262.37	5844.9	
262.58	5922.7	
262.79	4389.5	
263	3571.7	
263.21	5285.1	
263.42	5117.2	
263.63	3588	
263.84	3557.3	
264.05	5705.6	
264.26	6066.8	
264.47	4334.2	
264.69	3883.6	
264.9	5840.8	
265.11	5418.2	
265.32	3377.8	
265.53	3515	
265.74	5309.7	
265.95	4661.2	
266.16	3692.5	
266.37	4104.8	
266.58	5279	
266.79	5005.2	
267	3458.3	
267.21	3223.5	
267.42	4771.1	
267.63	5111	
267.84	3658.4	
268.06	3163.4	
268.27	5606.7	
268.48	5880.4	
268.69	3638.6	
268.9	4220.9	
269.11	5811.5	
269.32	4741.7	
269.53	3635.1	
269.74	3377.1	
269.95	5452.4	
270.16	4605.2	
270.37	3653.6	
270.58	4235.2	
270.79	5078.3	
271	5621.7	
271.21	3884.3	
271.42	3669.3	
271.63	5364.3	
271.84	4884.4	
272.05	2907.4	
272.26	3249.4	
272.47	5190.9	
272.68	5342.5	
272.89	3538.2	
273.11	4067.9	
273.32	5040.1	
273.53	6081.1	
273.74	3999.7	
273.95	3846.1	
274.16	5744.6	
274.37	5189.6	
274.58	4022.9	
274.79	3237.2	
275	5330.9	
275.21	5790.3	
275.42	4801.8	
275.63	4120.5	
275.84	5456.5	
276.05	6744	
276.26	3836.5	
276.47	3616	
276.68	5027.1	
276.89	6092	
277.1	4117.8	
277.31	3231.7	
277.52	5423	
277.73	5606.7	
277.94	3159.3	
278.15	3523.9	
278.36	5449	
278.57	4912.4	
278.78	3539.6	
278.99	3941.7	
279.2	4867.3	
279.41	4838.7	
279.62	4616.1	
279.83	3272	
280.04	6337.8	
280.25	4775.2	
280.46	4646.2	
280.67	3660.4	
280.88	4870.8	
281.09	5757.5	
281.3	3834.5	
281.51	4874.2	
281.72	4937.7	
281.93	5642.8	
282.14	3503.4	
282.35	3691.8	
282.56	5687.2	
282.77	5653.1	
282.98	3553.9	
283.19	4321.2	
283.4	6862.1	
283.61	5131.5	
283.82	3252.9	
284.03	4543.8	
284.24	5283.8	
284.45	5778.7	
284.66	4563.6	
284.87	4334.2	
285.08	5735	
285.29	5852.4	
285.5	3141.6	
285.71	3575.8	
285.92	5736.4	
286.12	6381.5	
286.33	4454.3	
286.54	3594.2	
286.75	5669.5	
286.96	5066	
287.17	3309.5	
287.38	4375.1	
287.59	4919.9	
287.8	4846.2	
288.01	3618.1	
288.22	4100.7	
288.43	5631.2	
288.64	4752.7	
288.85	4231.8	
289.06	4027	
289.27	5624.4	
289.48	5999.9	
289.69	4511.7	
289.9	4093.2	
290.11	5778.7	
290.32	4917.9	
290.53	4300.7	
290.74	3976.5	
290.94	5622.4	
291.15	5588.2	
291.36	3511.6	
291.57	4039.3	
291.78	5000.5	
291.99	4649.6	
292.2	3343.7	
292.41	3968.3	
292.62	5711.8	
292.83	5535	
293.04	4869.4	
293.25	3339.6	
293.46	5034.6	
293.67	5735	
293.88	3427.6	
294.09	3319.1	
294.29	4765.6	
294.5	5297.4	
294.71	3695.9	
294.92	3514.3	
295.13	4996.4	
295.34	6272.2	
295.55	3081.5	
295.76	3161.4	
295.97	5579.3	
296.18	6247	
296.39	3250.1	
296.6	3503.4	
296.81	5296.7	
297.01	5631.2	
297.22	3590.8	
297.43	3450.1	
297.64	4859.8	
297.85	4831.2	
298.06	2871.3	
298.27	3113.6	
298.48	5253	
298.69	4948.6	
298.9	3680.2	
299.11	3346.4	
299.31	4780.6	
299.52	4832.5	
299.73	3997	
299.94	3888.4	
300.15	5250.3	
300.36	4891.2	
300.57	3932.8	
300.78	3859.1	
300.99	5063.9	
301.2	5328.8	
301.4	3438.5	
301.61	3779.9	
301.82	5524.7	
302.03	5601.9	
302.24	4136.2	
302.45	3260.4	
302.66	5434.6	
302.87	5875.6	
303.08	3478.1	
303.29	4658.4	
303.49	4995.7	
303.7	5234.6	
303.91	3065.8	
304.12	4367.6	
304.33	4734.9	
304.54	5406	
304.75	3457	
304.96	3263.8	
305.16	5481	
305.37	6189.6	
305.58	3025.5	
305.79	3104.7	
306	5519.3	
306.21	4668.7	
306.42	3429	
306.63	5201.2	
306.83	5081	
307.04	5711.1	
307.25	3756	
307.46	3719.1	
307.67	4450.2	
307.88	5552.7	
308.09	3371.6	
308.29	3456.3	
308.5	5317.2	
308.71	5785.5	
308.92	3696.6	
309.13	3287	
309.34	5104.9	
309.55	5114.5	
309.75	4259.8	
309.96	3865.9	
310.17	5645.6	
310.38	4939.7	
310.59	4107.5	
310.8	3209.2	
311.01	5065.3	
311.21	5115.8	
311.42	3276.1	
311.63	3386.7	
311.84	4954	
312.05	5284.4	
312.26	3835.8	
312.46	4182	
312.67	5068	
312.88	4753.3	
313.09	3325.9	
313.3	3252.2	
313.51	5947.3	
313.71	6264.1	
313.92	3328.6	
314.13	3500.7	
314.34	5382.7	
314.55	5099.4	
314.76	4209.3	
314.96	3708.9	
315.17	5302.9	
315.38	5575.3	
315.59	3357.3	
315.8	3212.6	
316.01	6001.9	
316.21	6052.4	
316.42	3180.5	
316.63	3700	
316.84	5121.3	
317.05	5870.2	
317.26	3926	
317.46	3565.5	
317.67	5103.5	
317.88	5597.8	
318.09	4235.9	
318.3	3112.9	
318.5	4936.3	
318.71	5464	
318.92	5369.1	
319.13	3900.7	
319.34	5640.1	
319.54	5825.1	
319.75	3138.9	
319.96	2975.7	
320.17	5475.6	
320.38	5803.9	
320.58	3087.7	
320.79	3593.5	
321	5780.7	
321.21	5898.8	
321.42	3707.5	
321.62	3051.5	
321.83	4825.7	
322.04	5207.3	
322.25	3504.1	
322.46	3377.8	
322.66	5311.1	
322.87	5459.9	
323.08	4080.9	
323.29	3238.5	
323.5	6147.3	
323.7	4792.2	
323.91	4514.4	
324.12	4021.5	
324.33	5318.6	
324.53	5524.7	
324.74	3934.8	
324.95	4097.3	
325.16	4713.1	
325.37	5043.5	
325.57	3325.9	
325.78	3446	
325.99	5264.6	
326.2	4683	
326.4	4763.6	
326.61	3142.3	
326.82	5143.8	
327.03	5296.7	
327.24	4738.3	
327.44	4379.9	
327.65	5416.9	
327.86	4467.3	
328.07	3887.7	
328.27	3237.2	
328.48	5901.6	
328.69	4792.9	
328.9	4790.2	
329.1	3606.5	
329.31	5093.3	
329.52	5913.9	
329.73	3379.8	
329.93	3757.3	
330.14	5242.1	
330.35	5427.8	
330.56	5387.5	
330.76	4088.4	
330.97	5053	
331.18	5401.9	
331.39	3735.5	
331.59	3018	
331.8	5821.7	
332.01	5928.9	
332.22	3388.7	
332.42	3917.8	
332.63	5289.2	
332.84	4948.6	
333.05	3693.9	
333.25	3384.6	
333.46	4989.5	
333.67	5164.3	
333.88	3536.2	
334.08	3872	
334.29	6974	
334.5	5748.6	
334.7	3272.7	
334.91	4754.7	
335.12	4779.3	
335.33	5588.9	
335.53	3691.8	
335.74	5404.6	
335.95	5005.9	
336.16	4846.2	
336.36	3668.6	
336.57	4228.4	
336.78	4752.7	
336.98	5743.2	
337.19	4558.1	
337.4	3668.6	
337.61	6257.2	
337.81	4785.4	
338.02	3334.1	
338.23	4307.6	
338.43	5911.8	
338.64	4851	
338.85	3392.1	
339.05	4347.8	
339.26	5998.5	
339.47	4668.7	
339.68	3345.7	
339.88	4922	
340.09	5385.5	
340.3	5626.5	
340.5	3932.1	
340.71	3024.8	
340.92	4768.4	
341.13	5842.9	
341.33	3237.8	
341.54	3889.8	
341.75	5433.9	
341.95	5071.5	
342.16	3790.1	
342.37	4044.1	
342.57	4860.5	
342.78	5136.3	
342.99	4155.3	
343.19	3082.9	
343.4	5595.7	
343.61	5429.2	
343.81	3551.2	
344.02	3246.7	
344.23	5601.9	
344.43	5997.8	
344.64	4164.2	
344.85	3994.2	
345.06	5453.7	
345.26	5808.7	
345.47	3873.4	
345.68	4502.1	
345.88	4698	
346.09	5638.7	
346.3	3964.2	
346.5	2988.7	
346.71	5169.1	
346.92	4943.1	
347.12	3073.3	
347.33	3886.4	
347.54	5737.7	
347.74	6146.6	
347.95	3833.1	
348.16	2874.7	
348.36	5016.8	
348.57	4860.5	
348.78	3817.4	
348.98	4049.5	
349.19	5188.9	
349.39	4722.6	
349.6	3109.5	
349.81	3439.9	
350.01	5518.6	
350.22	4950.6	
350.43	3719.1	
350.63	4487.1	
350.84	5255.8	
351.05	5052.3	
351.25	3439.2	
351.46	3099.9	
351.67	5734.3	
351.87	4975.9	
352.08	3618.1	
352.29	4132.8	
352.49	5584.8	
352.7	5708.4	
352.9	3299.3	
353.11	4095.3	
353.32	6260.6	
353.52	5041.4	
353.73	3287.7	
353.94	4126	
354.14	5504.9	
354.35	5390.3	
354.55	3414	
354.76	3708.9	
354.97	5475.6	
355.17	5265.3	
355.38	3176.4	
355.59	4371.7	
355.79	4973.8	
356	5257.8	
356.2	3690.4	
356.41	3301.3	
356.62	4780.6	
356.82	5197.1	
357.03	3965.6	
357.24	3597.6	
357.44	4986.1	
357.65	5116.5	
357.85	4747.9	
358.06	3766.9	
358.27	4706.2	
358.47	4976.6	
358.68	3179.8	
358.88	3971.7	
359.09	5477.6	
359.3	5811.5	
359.5	4661.9	
359.71	4164.2	
359.91	6253.1	
360.12	5619.6	
360.33	3970.3	
360.53	4364.9	
360.74	5027.1	
360.94	5050.3	
361.15	4179.2	
361.36	3473.4	
361.56	5766.4	
361.77	5156.1	
361.97	4627	
362.18	3706.8	
362.38	5696.8	
362.59	4918.5	
362.8	3381.9	
363	3325.9	
363.21	4707.6	
363.41	5372.5	
363.62	3930.1	
363.83	4839.4	
364.03	5404.6	
364.24	6312.5	
364.44	4881	
364.65	4829.8	
364.85	5184.8	
365.06	4885.1	
365.27	3601.7	
365.47	3671.3	
365.68	6118	
365.88	5197.1	
366.09	3994.9	
366.29	3691.8	
366.5	5402.5	
366.71	5846.3	
366.91	4926	
367.12	4143	
367.32	6346	
367.53	5657.2	
367.73	4091.2	
367.94	4964.3	
368.14	5640.8	
368.35	6433.4	
368.56	4106.9	
368.76	3540.3	
368.97	5722.7	
369.17	7262.8	
369.38	3569.6	
369.58	3886.4	
369.79	4951.3	
369.99	6111.1	
370.2	4719.9	
370.4	3923.2	
370.61	5442.1	
370.82	6584.2	
371.02	3779.2	
371.23	3267.9	
371.43	4883.7	
371.64	5986.9	
371.84	3928.7	
372.05	4925.4	
372.25	7173.4	
372.46	5806.7	
372.66	3892.5	
372.87	3846.1	
373.07	5814.9	
373.28	7231.4	
373.48	4830.5	
373.69	4536.9	
373.9	5333.6	
374.1	5369.8	
374.31	4778.6	
374.51	4373.8	
374.72	6105	
374.92	5112.4	
375.13	4952	
375.33	4239.3	
375.54	5700.9	
375.74	5247.6	
375.95	4295.3	
376.15	5373.2	
376.36	5745.2	
376.56	5610.1	
376.77	4379.9	
376.97	4784.1	
377.18	6777.4	
377.38	5836	
377.59	5072.1	
377.79	3906.8	
378	5681.7	
378.2	6040.8	
378.41	3979.2	
378.61	3956.7	
378.82	6161.7	
379.02	5359.5	
379.23	4130.8	
379.43	5116.5	
379.64	6225.1	
379.84	5840.8	
380.05	3947.1	
380.25	3860.4	
380.46	5954.8	
380.66	5578	
380.87	5124	
381.07	5515.9	
381.28	6425.2	
381.48	5905.7	
381.69	4036.5	
381.89	4009.2	
382.1	4988.2	
382.3	6086.6	
382.51	4992.3	
382.71	5834	
382.91	5864	
383.12	6395.1	
383.32	4281.6	
383.53	4502.8	
383.73	5828.5	
383.94	5599.1	
384.14	4394.3	
384.35	3659	
384.55	5529.5	
384.76	5931.6	
384.96	4275.5	
385.17	4561.5	
385.37	5941.2	
385.58	5242.1	
385.78	4568.3	
385.98	3594.2	
386.19	5391.6	
386.39	5768.4	
386.6	4069.3	
386.8	4264.6	
387.01	5907.7	
387.21	5958.9	
387.42	4706.2	
387.62	5202.5	
387.83	5364.3	
388.03	5877.7	
388.23	4368.3	
388.44	5134.3	
388.64	5154.7	
388.85	5233.9	
389.05	4666	
389.26	5300.1	
389.46	6928.3	
389.67	6378.7	
389.87	4696	
390.07	4715.8	
390.28	5689.9	
390.48	5237.3	
390.69	4040.6	
390.89	4328.7	
391.1	5471.5	
391.3	6262	
391.5	5448.3	
391.71	5976.7	
391.91	6089.3	
392.12	6984.9	
392.32	5469.4	
392.53	4754.7	
392.73	5561.6	
392.93	5704.3	
393.14	4416.8	
393.34	5124.7	
393.55	5997.8	
393.75	5687.9	
393.95	4413.4	
394.16	4281.6	
394.36	5406.6	
394.57	6046.3	
394.77	3873.4	
394.98	4314.4	
395.18	5395	
395.38	5502.9	
395.59	5087.2	
395.79	4240.7	
396	5578	
396.2	6024.4	
396.4	5014.8	
396.61	4918.5	
396.81	6137.8	
397.02	5570.5	
397.22	5193.6	
397.42	5255.1	
397.63	6270.9	
397.83	5522	
398.04	4231.1	
398.24	4668.7	
398.44	6029.9	
398.65	5190.2	
398.85	4089.1	
399.05	4192.9	
399.26	5523.4	
399.46	6991.1	
399.67	4588.8	
399.87	4291.9	
400.07	5862.7	
400.28	6102.9	
400.48	4399.7	
400.69	5332.2	
400.89	6344.6	
401.09	6767.9	
401.3	4343.1	
401.5	5380.7	
401.7	7038.2	
401.91	7221.8	
402.11	4635.2	
402.32	4861.9	
402.52	6409.5	
402.72	6316.6	
402.93	5054.4	
403.13	3927.3	
403.33	7047.1	
403.54	5769.8	
403.74	4646.8	
403.94	5344.5	
404.15	5875.6	
404.35	6928.3	
404.56	4474.8	
404.76	6066.8	
404.96	6320	
405.17	6105.7	
405.37	5689.9	
405.57	4949.9	
405.78	6429.3	
405.98	5890	
406.18	4498	
406.39	5395.7	
406.59	6359.6	
406.79	5987.6	
407	4234.5	
407.2	4401.1	
407.4	6352.8	
407.61	6500.9	
407.81	4443.4	
408.01	5965.1	
408.22	5345.2	
408.42	7292.1	
408.62	5503.6	
408.83	5117.9	
409.03	6051.7	
409.23	6019	
409.44	5205.9	
409.64	5373.2	
409.84	7050.5	
410.05	6874.3	
410.25	5332.2	
410.45	5094.7	
410.66	6427.2	
410.86	8781.7	
411.06	5589.6	
411.27	5408.7	
411.47	8662.9	
411.67	6720.1	
411.88	5685.8	
412.08	5987.6	
412.28	7187.7	
412.49	7778.9	
412.69	5511.8	
412.89	5508.4	
413.09	7594.6	
413.3	7495.6	
413.5	5643.5	
413.7	5226.4	
413.91	6840.2	
414.11	7659.4	
414.31	5413.5	
414.52	5844.9	
414.72	7303.7	
414.92	7271	
415.12	5483.1	
415.33	5929.6	
415.53	7652.6	
415.73	7767.3	
415.94	6281.8	
416.14	5780.1	
416.34	6688.7	
416.55	6399.2	
416.75	6890.7	
416.95	6296.8	
417.15	7660.1	
417.36	8252.6	
417.56	7079.1	
417.76	6220.4	
417.97	7983.7	
418.17	7667.6	
418.37	5842.2	
418.57	5948	
418.78	7501.7	
418.98	7214.3	
419.18	6713.2	
419.38	6594.5	
419.59	7206.1	
419.79	6806.8	
419.99	5713.8	
420.2	6090	
420.4	7665.5	
420.6	7800	
420.8	5726.1	
421.01	5520	
421.21	7565.9	
421.41	7714	
421.61	6090.7	
421.82	5828.5	
422.02	7078.5	
422.22	7929.7	
422.42	6513.2	
422.63	6189.6	
422.83	7200.7	
423.03	8257.4	
423.23	6132.3	
423.44	5173.2	
423.64	7211.6	
423.84	6974.7	
424.04	5668.8	
424.25	5387.5	
424.45	8066.9	
424.65	7902.4	
424.85	5143.8	
425.06	5710.4	
425.26	8051.9	
425.46	7084.6	
425.66	6146	
425.87	5838.8	
426.07	7740	
426.27	7587	
426.47	5976	
426.67	5296	
426.88	8147.5	
427.08	7564.5	
427.28	6199.2	
427.48	5264	
427.69	6613.6	
427.89	7095.5	
428.09	6145.3	
428.29	5365.7	
428.5	7748.1	
428.7	7382.2	
428.9	5261.2	
429.1	5669.5	
429.3	7229.3	
429.51	7737.9	
429.71	5535	
429.91	6290.7	
430.11	7650.5	
430.31	7865.6	
430.52	5890.6	
430.72	6189.6	
430.92	8130.4	
431.12	7578.8	
431.32	5563	
431.53	5968.5	
431.73	6631.3	
431.93	8191.2	
432.13	5502.9	
432.33	5410.7	
432.54	7161.7	
432.74	7397.9	
432.94	5385.5	
433.14	6322.1	
433.34	7670.3	
433.55	7200.7	
433.75	6208.1	
433.95	7874.4	
434.15	7432.8	
434.35	7268.9	
434.56	5569.8	
434.76	5153.4	
434.96	7437.5	
435.16	7670.3	
435.36	5456.5	
435.56	6475.7	
435.77	7087.3	
435.97	7322.2	
436.17	7178.1	
436.37	6468.9	
436.57	7116.7	
436.78	7124.2	
436.98	8123.6	
437.18	7015.7	
437.38	7819.8	
437.58	7357	
437.78	7157	
437.99	5905.7	
438.19	7732.4	
438.39	8446.5	
438.59	5756.8	
438.79	5355.4	
438.99	8289.5	
439.2	7259.4	
439.4	5387.5	
439.6	5442.1	
439.8	7557	
440	8620.6	
440.2	6361.7	
440.4	6565.8	
440.61	8023.3	
440.81	8497	
441.01	5707	
441.21	6610.2	
441.41	8478.6	
441.61	7996	
441.81	6859.3	
442.02	7879.9	
442.22	8880.7	
442.42	8166.6	
442.62	5819	
442.82	5866.7	
443.02	8396.7	
443.22	7603.4	
443.43	6290	
443.63	5879	
443.83	7432.8	
444.03	7487.4	
444.23	7135.1	
444.43	6566.5	
444.63	7780.9	
444.83	8880	
445.04	6090.7	
445.24	7247.1	
445.44	8137.3	
445.64	8251.3	
445.84	6730.3	
446.04	6727.6	
446.24	7495.6	
446.44	8382.3	
446.65	5853.1	
446.85	6320.7	
447.05	7494.2	
447.25	8419.9	
447.45	6306.4	
447.65	5750.7	
447.85	7745.4	
448.05	7437.5	
448.25	6754.2	
448.46	6541.2	
448.66	7770.7	
448.86	7580.2	
449.06	5721.3	
449.26	6713.9	
449.46	8102.4	
449.66	7203.4	
449.86	6373.3	
450.06	6299.6	
450.26	7382.2	
450.47	7932.5	
450.67	6537.1	
450.87	6878.4	
451.07	8084.7	
451.27	7859.4	
451.47	5921.4	
451.67	6384.9	
451.87	7586.4	
452.07	8595.3	
452.27	6053.8	
452.47	6127.5	
452.67	7866.2	
452.88	8307.9	
453.08	5455.1	
453.28	7396.6	
453.48	9022	
453.68	7785	
453.88	6052.4	
454.08	6186.9	
454.28	8181	
454.48	7968	
454.68	6689.3	
454.88	7238.9	
455.08	8230.8	
455.28	8052.6	
455.48	5945.3	
455.68	6557.6	
455.89	8721.6	
456.09	8471.8	
456.29	6257.2	
456.49	6341.9	
456.69	8667.7	
456.89	7933.8	
457.09	6876.4	
457.29	7193.1	
457.49	8297	
457.69	8406.9	
457.89	6704.4	
458.09	6168.5	
458.29	8084.7	
458.49	8834.9	
458.69	7163.1	
458.89	6597.2	
459.09	9069.8	
459.29	9200.2	
459.49	6643.6	
459.69	7448.5	
459.9	8548.9	
460.1	8157.7	
460.3	6526.2	
460.5	6429.9	
460.7	8536.6	
460.9	8293.6	
461.1	6091.3	
461.3	7353.6	
461.5	9342.2	
461.7	8881.4	
461.9	6533	
462.1	6933.1	
462.3	8445.1	
462.5	8987.9	
462.7	6608.1	
462.9	6761.7	
463.1	9924.5	
463.3	9650.7	
463.5	7004.7	
463.7	7878.5	
463.9	8684.8	
464.1	9057.5	
464.3	7159	
464.5	7312.6	
464.7	9226.1	
464.9	9028.8	
465.1	8538	
465.3	7724.3	
465.5	9592.7	
465.7	9573.6	
465.9	7993.2	
466.1	7752.9	
466.3	9499.2	
466.5	9247.3	
466.7	8630.8	
466.9	7558.4	
467.1	9331.9	
467.3	10224	
467.5	8625.4	
467.7	7555	
467.9	10385	
468.1	11176	
468.3	8335.2	
468.5	8761.9	
468.7	9313.5	
468.9	9341.5	
469.1	7935.9	
469.3	8516.8	
469.5	11148	
469.7	8975.6	
469.9	8308.6	
470.1	7693.5	
470.3	9367.4	
470.5	9420	
470.7	8860.9	
470.9	7728.4	
471.1	9141.4	
471.3	9535.3	
471.5	7511.3	
471.69	9172.2	
471.89	9047.2	
472.09	8585.1	
472.29	8327	
472.49	8558.5	
472.69	8746.2	
472.89	9550.4	
473.09	7517.4	
473.29	7552.2	
473.49	8928.5	
473.69	9111.4	
473.89	8475.9	
474.09	7632.1	
474.29	10121	
474.49	9927.9	
474.69	8319.5	
474.89	7767.3	
475.09	9042.5	
475.29	9054.1	
475.49	7284.6	
475.69	7445.7	
475.88	10490	
476.08	9259.5	
476.28	7207.5	
476.48	7574.8	
476.68	9701.9	
476.88	9446.6	
477.08	7456	
477.28	7679.2	
477.48	9073.9	
477.68	9573.6	
477.88	7260.7	
478.08	7472.4	
478.28	9927.2	
478.48	9103.9	
478.67	7553.6	
478.87	7015	
479.07	9820.7	
479.27	9292.3	
479.47	7708.6	
479.67	7754.3	
479.87	9583.8	
480.07	10035	
480.27	7109.2	
480.47	8543.4	
480.67	9329.2	
480.87	9904	
481.06	7408.9	
481.26	8239.7	
481.46	9256.1	
481.66	9136.7	
481.86	7810.3	
482.06	8716.8	
482.26	8972.2	
482.46	10057	
482.66	7755	
482.86	7365.9	
483.05	9327.1	
483.25	8661.5	
483.45	9950.4	
483.65	7754.3	
483.85	8963.3	
484.05	9230.2	
484.25	8164.6	
484.45	8617.2	
484.65	9983.8	
484.84	10073	
485.04	7673.1	
485.24	7653.9	
485.44	10318	
485.64	8795.3	
485.84	7153.6	
486.04	8354.3	
486.24	9062.9	
486.44	9523.1	
486.63	7092.8	
486.83	7902.4	
487.03	9101.2	
487.23	9310.1	
487.43	7224.6	
487.63	9491.7	
487.83	9291	
488.02	10198	
488.22	8127.7	
488.42	8699.8	
488.62	10124	
488.82	9065.7	
489.02	7800	
489.22	7925.6	
489.41	9996.8	
489.61	9715.6	
489.81	7675.8	
490.01	7586.4	
490.21	9985.2	
490.41	10545	
490.61	7675.8	
490.8	7760.4	
491	9581.1	
491.2	8863.6	
491.4	8214.4	
491.6	7425.3	
491.8	9537.4	
491.99	9505.3	
492.19	7208.2	
492.39	7514.7	
492.59	9912.9	
492.79	9985.9	
492.99	8387.1	
493.18	7526.3	
493.38	10044	
493.58	10922	
493.78	8355	
493.98	7912.7	
494.18	9915.6	
494.37	9454.1	
494.57	8630.8	
494.77	8426	
494.97	10165	
495.17	10416	
495.37	8168.7	
495.56	8484.1	
495.76	10722	
495.96	10315	
496.16	9364.7	
496.36	8365.3	
496.55	10542	
496.75	10154	
496.95	8857.5	
497.15	8661.5	
497.35	10341	
497.54	10484	
497.74	8410.3	
497.94	10023	
498.14	11234	
498.34	10970	
498.53	8236.2	
498.73	8976.9	
498.93	9943.6	
499.13	10514	
499.33	8708.6	
499.52	9181.7	
499.72	10575	
499.92	10789	
500.12	8499.8	
500.32	8811.7	
500.51	10764	
500.71	10562	
500.91	9607	
501.11	9126.4	
501.31	10757	
501.5	11056	
501.7	9766.1	
501.9	8788.5	
502.1	10533	
502.29	10794	
502.49	9253.4	
502.69	9594.1	
502.89	10704	
503.09	10664	
503.28	8316.1	
503.48	8290.2	
503.68	9916.3	
503.88	9971.6	
504.07	9284.8	
504.27	8833.6	
504.47	10366	
504.67	10415	
504.86	9209.7	
505.06	8825.4	
505.26	10008	
505.46	11570	
505.65	8667	
505.85	8887.5	
506.05	9848	
506.25	10294	
506.44	8053.3	
506.64	8835.6	
506.84	9633	
507.04	10614	
507.23	8297.7	
507.43	8717.5	
507.63	11643	
507.83	9961.3	
508.02	8711.4	
508.22	8329.1	
508.42	11773	
508.62	9689.6	
508.81	8570.1	
509.01	9154.4	
509.21	9502.6	
509.4	9855.5	
509.6	8766.7	
509.8	8273.8	
510	9723.1	
510.19	11206	
510.39	8143.4	
510.59	8297.7	
510.79	9757.2	
510.98	11048	
511.18	8315.4	
511.38	8415.8	
511.57	10482	
511.77	10288	
511.97	9090.3	
512.17	8125	
512.36	10391	
512.56	10338	
512.76	8028	
512.95	7858.7	
513.15	10495	
513.35	9216.5	
513.55	8964	
513.74	8135.9	
513.94	10571	
514.14	9850.7	
514.33	9090.9	
514.53	8873.8	
514.73	9822.7	
514.92	10035	
515.12	8355	
515.32	8247.9	
515.51	10109	
515.71	10628	
515.91	9894.4	
516.11	8335.2	
516.3	11755	
516.5	9785.2	
516.7	8779	
516.89	9378.3	
517.09	9813.2	
517.29	9791.3	
517.48	8923	
517.68	8471.1	
517.88	9514.9	
518.07	10167	
518.27	8898.4	
518.47	8008.2	
518.66	10752	
518.86	9415.2	
519.06	7971.4	
519.25	8281.3	
519.45	9778.4	
519.65	11105	
519.84	8949.6	
520.04	9565.4	
520.24	11521	
520.43	10405	
520.63	8744.8	
520.83	8397.4	
521.02	9638.4	
521.22	10169	
521.42	8733.2	
521.61	9404.3	
521.81	9759.9	
522.01	10034	
522.2	8692.9	
522.4	8469	
522.6	10499	
522.79	9317.6	
522.99	8582.4	
523.18	7926.3	
523.38	10241	
523.58	10209	
523.77	9809.1	
523.97	8063.5	
524.17	12008	
524.36	11265	
524.56	9374.9	
524.76	9093	
524.95	10309	
525.15	10002	
525.34	8852	
525.54	8923	
525.74	10779	
525.93	9880.1	
526.13	10103	
526.33	8927.8	
526.52	11072	
526.72	10662	
526.91	10034	
527.11	9454.8	
527.31	11017	
527.5	11454	
527.7	9284.8	
527.89	8396.7	
528.09	10202	
528.29	10787	
528.48	9744.9	
528.68	9377	
528.87	11074	
529.07	11081	
529.27	9281.4	
529.46	8802.9	
529.66	10781	
529.85	11200	
530.05	8765.3	
530.25	9441.1	
530.44	12021	
530.64	10506	
530.83	9087.5	
531.03	9334	
531.23	11112	
531.42	10899	
531.62	10024	
531.81	9194	
532.01	11243	
532.21	11546	
532.4	9123	
532.6	9458.9	
532.79	11943	
532.99	11417	
533.18	9582.4	
533.38	10482	
533.58	10905	
533.77	11694	
533.97	9588.6	
534.16	10264	
534.36	11907	
534.55	11000	
534.75	10466	
534.95	9667.8	
535.14	11878	
535.34	11021	
535.53	9214.5	
535.73	11140	
535.92	12352	
536.12	11085	
536.31	9387.2	
536.51	10501	
536.71	11369	
536.9	11035	
537.1	9422	
537.29	9529.9	
537.49	11814	
537.68	10975	
537.88	10008	
538.07	9231.6	
538.27	11175	
538.46	12108	
538.66	9115.5	
538.86	9617.3	
539.05	11207	
539.25	11602	
539.44	9914.9	
539.64	9557.2	
539.83	11015	
540.03	11886	
540.22	9390.6	
540.42	9432.9	
540.61	11283	
540.81	11233	
541	9708.1	
541.2	10448	
541.39	10826	
541.59	11139	
541.78	10198	
541.98	9260.2	
542.18	10556	
542.37	10413	
542.57	9594.7	
542.76	10067	
542.96	10434	
543.15	11074	
543.35	9592	
543.54	8925.7	
543.74	11409	
543.93	10987	
544.13	9486.9	
544.32	10444	
544.52	11160	
544.71	10381	
544.91	8578.9	
545.1	9780.4	
545.3	10512	
545.49	11035	
545.69	8544.8	
545.88	9159.9	
546.08	12073	
546.27	11564	
546.47	9571.5	
546.66	8984.4	
546.86	11331	
547.05	11811	
547.24	9171.5	
547.44	9071.1	
547.63	10336	
547.83	11355	
548.02	9361.9	
548.22	9497.1	
548.41	10100	
548.61	11450	
548.8	8890.9	
549	8895.7	
549.19	10675	
549.39	11115	
549.58	8556.4	
549.78	9157.8	
549.97	11062	
550.17	10541	
550.36	9894.4	
550.55	10753	
550.75	10498	
550.94	11355	
551.14	8759.8	
551.33	8916.9	
551.53	9908.8	
551.72	10782	
551.92	9170.8	
552.11	8854.7	
552.31	10857	
552.5	10994	
552.69	10445	
552.89	8541.4	
553.08	10828	
553.28	10504	
553.47	8936.7	
553.67	9873.9	
553.86	11493	
554.06	9747.6	
554.25	8074.5	
554.44	8684.8	
554.64	12129	
554.83	11554	
555.03	8642.4	
555.22	8991.3	
555.42	11000	
555.61	10694	
555.8	8854.7	
556	9051.3	
556.19	9892.4	
556.39	11037	
556.58	8908.7	
556.78	8758.5	
556.97	10522	
557.16	10262	
557.36	10024	
557.55	8560.5	
557.75	9698.5	
557.94	11361	
558.13	8607.6	
558.33	8419.2	
558.52	10970	
558.72	10018	
558.91	8463.6	
559.1	8647.9	
559.3	9701.2	
559.49	9485.5	
559.69	7985.7	
559.88	8904.6	
560.07	10551	
560.27	10906	
560.46	9104.6	
560.66	9328.5	
560.85	10259	
561.04	9544.2	
561.24	8370.7	
561.43	8466.3	
561.63	9658.2	
561.82	10056	
562.01	9751.1	
562.21	8806.9	
562.4	10425	
562.59	11272	
562.79	8636.3	
562.98	8328.4	
563.18	10321	
563.37	11710	
563.56	9192.6	
563.76	8424	
563.95	9928.6	
564.14	9818	
564.34	8699.8	
564.53	8515.5	
564.73	10353	
564.92	10619	
565.11	8761.9	
565.31	8225.3	
565.5	10949	
565.69	9866.4	
565.89	8503.8	
566.08	8748.2	
566.27	10789	
566.47	11176	
566.66	9377.6	
566.85	8109.3	
567.05	10344	
567.24	9830.9	
567.44	8360.5	
567.63	9729.9	
567.82	10660	
568.02	10389	
568.21	8406.2	
568.4	8816.5	
568.6	10279	
568.79	10209	
568.98	8299.1	
569.18	8406.2	
569.37	10165	
569.56	12174	
569.76	8825.4	
569.95	9721.7	
570.14	10580	
570.34	10557	
570.53	8400.8	
570.72	8316.8	
570.91	11058	
571.11	10226	
571.3	8684.1	
571.49	9688.9	
571.69	10302	
571.88	9944.3	
572.07	9284.8	
572.27	9303.2	
572.46	9830.9	
572.65	10866	
572.85	8534.6	
573.04	8882	
573.23	11032	
573.43	10268	
573.62	8361.9	
573.81	9004.2	
574	10436	
574.2	10352	
574.39	8754.4	
574.58	8860.9	
574.78	11294	
574.97	10565	
575.16	9286.9	
575.36	9423.4	
575.55	10972	
575.74	11045	
575.93	8470.4	
576.13	9440.5	
576.32	10348	
576.51	10838	
576.71	8947.6	
576.9	10077	
577.09	11256	
577.28	10785	
577.48	9238.4	
577.67	8385.1	
577.86	10366	
578.05	10634	
578.25	8971.5	
578.44	9125.7	
578.63	10486	
578.83	11588	
579.02	8474.5	
579.21	9876	
579.4	10730	
579.6	10390	
579.79	9069.1	
579.98	11085	
580.17	11149	
580.37	11166	
580.56	8738.7	
580.75	9353.1	
580.94	11478	
581.14	11337	
581.33	9759.3	
581.52	8702.5	
581.71	10843	
581.91	11640	
582.1	8531.2	
582.29	9103.2	
582.48	10542	
582.68	10530	
582.87	9435.7	
583.06	9235.7	
583.25	10886	
583.45	10732	
583.64	9696.4	
583.83	10473	
584.02	10455	
584.21	10830	
584.41	9753.8	
584.6	9043.1	
584.79	10647	
584.98	11343	
585.18	8604.2	
585.37	8480.6	
585.56	10228	
585.75	10956	
585.94	8763.3	
586.14	9338.1	
586.33	11360	
586.52	10523	
586.71	9259.5	
586.91	8938.7	
587.1	9846.6	
587.29	10857	
587.48	8789.2	
587.67	8612.4	
587.87	10701	
588.06	10713	
588.25	9872.6	
588.44	9227.5	
588.63	10385	
588.83	10836	
589.02	8777.6	
589.21	8666.3	
589.4	10143	
589.59	9957.2	
589.78	7832.8	
589.98	8082	
590.17	9515.5	
590.36	9958.6	
590.55	7418.4	
590.74	8119.5	
590.94	11031	
591.13	9711.5	
591.32	7952.9	
591.51	7502.4	
591.7	10230	
591.89	9852.8	
592.09	7707.9	
592.28	8035.5	
592.47	9082.1	
592.66	10824	
592.85	7695.6	
593.05	7907.2	
593.24	9626.1	
593.43	10421	
593.62	7971.4	
593.81	8402.8	
594	9708.7	
594.19	9864.4	
594.39	7791.2	
594.58	7767.9	
594.77	9974.3	
594.96	10456	
595.15	7711.3	
595.34	8371.4	
595.54	10023	
595.73	9114.8	
595.92	7167.2	
596.11	8189.8	
596.3	10370	
596.49	9222.7	
596.68	7946.1	
596.88	8458.1	
597.07	10096	
597.26	8975.6	
597.45	7574.8	
597.64	8781	
597.83	9330.5	
598.02	9932	
598.22	7708.6	
598.41	8224	
598.6	9725.1	
598.79	9174.9	
598.98	7690.1	
599.17	8421.9	
599.36	9701.2	
599.55	10687	
599.74	9557.2	
599.94	9234.3	
600.13	10153	
600.32	9111.4	
600.51	7353.6	
600.7	7546.8	
600.89	10772	
601.08	10828	
601.27	7339.2	
601.47	8209.6	
601.66	10072	
601.85	10659	
602.04	7927.7	
602.23	8230.8	
602.42	9140.1	
602.61	9881.4	
602.8	7908.6	
602.99	7607.5	
603.18	9481.4	
603.37	9710.1	
603.57	8244.4	
603.76	8683.4	
603.95	10428	
604.14	9968.8	
604.33	7700.4	
604.52	8072.4	
604.71	9722.4	
604.9	9418.6	
605.09	8890.2	
605.28	8344.8	
605.47	10238	
605.66	9913.5	
605.86	8282	
606.05	7670.3	
606.24	10271	
606.43	8863.6	
606.62	8003.5	
606.81	8661.5	
607	10072	
607.19	9443.9	
607.38	7456	
607.57	7678.5	
607.76	9161.9	
607.95	8615.8	
608.14	8043.7	
608.33	8647.2	
608.52	9173.5	
608.72	10013	
608.91	7367.9	
609.1	7157.7	
609.29	9243.8	
609.48	8743.5	
609.67	8200.7	
609.86	7218.4	
610.05	8880	
610.24	9132.6	
610.43	7289.4	
610.62	6896.9	
610.81	10251	
611	10017	
611.19	7407.5	
611.38	8023.3	
611.57	9432.9	
611.76	10663	
611.95	7095.5	
612.14	6973.3	
612.33	9308.7	
612.52	8796.7	
612.71	7556.3	
612.9	6895.5	
613.09	8519.6	
613.28	10660	
613.47	7438.2	
613.66	8201.4	
613.85	9366	
614.04	8882	
614.24	7375.4	
614.43	6683.2	
614.62	9441.1	
614.81	9412.5	
615	7869	
615.19	7989.8	
615.38	8784.4	
615.57	9112.8	
615.76	7703.1	
615.95	8662.9	
616.14	9514.2	
616.33	9251.4	
616.52	8072.4	
616.71	8288.1	
616.9	9456.8	
617.09	9286.2	
617.28	7417.7	
617.47	8624	
617.66	8665	
617.85	8760.5	
618.04	8387.1	
618.22	7854.6	
618.41	8955.1	
618.6	9858.2	
618.79	7785	
618.98	7479.2	
619.17	10121	
619.36	8647.2	
619.55	7704.5	
619.74	7735.2	
619.93	9497.8	
620.12	8948.3	
620.31	8197.3	
620.5	8386.4	
620.69	10122	
620.88	10432	
621.07	9013.1	
621.26	8155.7	
621.45	9730.6	
621.64	9749.7	
621.83	8223.3	
622.02	7548.8	
622.21	9736	
622.4	9607.7	
622.59	8802.2	
622.78	8536.6	
622.97	9189.9	
623.16	10045	
623.35	8153	
623.54	7484	
623.72	9306	
623.91	9530.6	
624.1	8508.6	
624.29	7197.9	
624.48	10556	
624.67	9750.4	
624.86	8433.5	
625.05	7539.3	
625.24	10618	
625.43	9071.8	
625.62	9965.4	
625.81	7716.7	
626	9996.1	
626.19	9314.8	
626.38	8504.5	
626.56	7811.6	
626.75	9241.1	
626.94	9974.3	
627.13	8326.4	
627.32	7233.4	
627.51	9882.1	
627.7	11015	
627.89	7251.2	
628.08	8356.4	
628.27	9039.7	
628.46	9277.3	
628.65	7607.5	
628.83	7207.5	
629.02	9740.1	
629.21	9124.4	
629.4	8043.1	
629.59	8189.1	
629.78	9062.9	
629.97	10004	
630.16	8279.9	
630.35	7781.6	
630.54	10374	
630.72	10013	
630.91	7624.6	
631.1	8245.8	
631.29	9652.1	
631.48	9671.2	
631.67	8310.7	
631.86	7836.9	
632.05	9351	
632.24	9299.8	
632.42	7543.4	
632.61	8038.3	
632.8	9372.2	
632.99	9024	
633.18	8064.9	
633.37	8356.4	
633.56	9562.6	
633.75	9438.4	
633.93	8007.6	
634.12	7808.9	
634.31	10277	
634.5	10006	
634.69	7804.1	
634.88	8261.5	
635.07	9390.6	
635.25	9800.9	
635.44	8611	
635.63	8752.3	
635.82	9196.7	
636.01	8719.6	
636.2	8512.7	
636.39	8006.2	
636.57	10179	
636.76	9994.8	
636.95	7535.8	
637.14	8832.9	
637.33	9519.6	
637.52	10490	
637.7	7380.9	
637.89	8290.9	
638.08	9217.9	
638.27	10475	
638.46	8250.6	
638.65	8672.5	
638.83	10539	
639.02	9026.8	
639.21	8204.8	
639.4	8641.7	
639.59	9506	
639.78	9104.6	
639.96	7468.3	
640.15	7515.4	
640.34	9335.3	
640.53	9469.1	
640.72	7244.3	
640.91	7444.4	
641.09	8800.1	
641.28	9960	
641.47	7537.9	
641.66	8267.6	
641.85	9302.6	
642.03	9504.6	
642.22	8066.9	
642.41	7591.8	
642.6	8822.6	
642.79	8274.5	
642.97	7296.2	
643.16	8185.7	
643.35	8726.4	
643.54	8589.9	
643.73	7291.5	
643.91	7967.3	
644.1	8455.4	
644.29	8994.7	
644.48	7290.8	
644.67	7363.8	
644.85	8555.7	
645.04	8872.5	
645.23	6931.7	
645.42	7150.1	
645.6	8363.2	
645.79	9559.9	
645.98	7193.8	
646.17	6239.5	
646.36	8118.8	
646.54	8647.9	
646.73	7776.1	
646.92	6651.8	
647.11	8239.7	
647.29	9206.3	
647.48	6816.3	
647.67	6526.9	
647.86	9515.5	
648.05	9455.5	
648.23	7079.1	
648.42	8261.5	
648.61	8919.6	
648.8	8603.5	
648.98	6692.8	
649.17	6987	
649.36	8289.5	
649.55	7864.9	
649.73	6795.8	
649.92	7490.1	
650.11	8108.6	
650.3	8430.8	
650.48	6865.5	
650.67	6647	
650.86	8721.6	
651.05	7662.1	
651.23	6707.8	
651.42	6717.3	
651.61	8207.6	
651.79	8305.2	
651.98	6929	
652.17	6677.1	
652.36	8578.3	
652.54	7716.1	
652.73	6659.3	
652.92	6438.1	
653.11	8557.1	
653.29	8561.2	
653.48	5953.4	
653.67	6821.1	
653.85	8363.2	
654.04	9331.2	
654.23	7083.2	
654.42	6651.1	
654.6	7815	
654.79	8485.4	
654.98	6128.2	
655.16	6591.7	
655.35	7421.2	
655.54	7399.3	
655.73	6206	
655.91	6018.3	
656.1	8497	
656.29	7350.8	
656.47	5691.3	
656.66	7293.5	
656.85	7703.1	
657.03	7722.9	
657.22	6201.2	
657.41	6273.6	
657.59	7778.9	
657.78	7568.6	
657.97	5947.3	
658.16	6646.3	
658.34	8479.3	
658.53	8706.6	
658.72	7501	
658.9	7959.1	
659.09	7848.5	
659.28	7938.6	
659.46	6423.1	
659.65	6327.5	
659.84	7774.1	
660.02	8151.6	
660.21	6197.2	
660.4	6255.9	
660.58	8612.4	
660.77	7958.4	
660.96	6726.9	
661.14	5842.9	
661.33	9075.2	
661.52	8974.9	
661.7	5816.9	
661.89	9287.5	
662.08	7593.9	
662.26	7187.7	
662.45	6041.5	
662.64	6178	
662.82	8240.3	
663.01	7473	
663.2	6214.2	
663.38	6930.3	
663.57	8206.9	
663.75	8099.7	
663.94	6546	
664.13	7687.4	
664.31	7598	
664.5	8245.8	
664.69	6671.6	
664.87	7253.9	
665.06	7344.7	
665.25	8097.7	
665.43	7492.2	
665.62	7447.1	
665.8	8358.4	
665.99	7714.7	
666.18	6477	
666.36	6604.7	
666.55	8258.8	
666.74	8202.8	
666.92	6140.5	
667.11	7737.9	
667.29	7658.7	
667.48	8277.2	
667.67	7273.7	
667.85	6425.2	
668.04	7751.6	
668.22	7686	
668.41	6488.6	
668.6	6676.4	
668.78	7480.5	
668.97	7821.9	
669.15	6881.2	
669.34	5907.7	
669.53	7587	
669.71	7809.6	
669.9	6028.5	
670.08	6735.1	
670.27	7486	
670.46	8054.7	
670.64	6812.9	
670.83	7061.4	
671.01	7329.7	
671.2	7986.4	
671.38	6079.1	
671.57	6021	
671.76	8542.8	
671.94	9140.8	
672.13	5945.9	
672.31	6993.1	
672.5	8144.1	
672.69	7507.9	
672.87	6138.4	
673.06	6390.3	
673.24	7996.6	
673.43	7547.4	
673.61	6726.2	
673.8	6408.8	
673.98	8146.1	
674.17	8277.9	
674.36	6946	
674.54	6743.3	
674.73	7932.5	
674.91	8155	
675.1	6548.7	
675.28	6126.8	
675.47	7671.7	
675.65	8279.3	
675.84	6447.7	
676.03	6711.2	
676.21	7488.1	
676.4	7073	
676.58	7146	
676.77	6839.5	
676.95	8915.5	
677.14	7490.8	
677.32	6052.4	
677.51	5938.4	
677.69	8234.9	
677.88	7167.9	
678.06	5999.9	
678.25	6105	
678.44	7763.2	
678.62	7416.4	
678.81	5787.6	
678.99	6741.2	
679.18	8466.3	
679.36	8066.3	
679.55	6383.5	
679.73	6886.6	
679.92	8025.3	
680.1	7447.8	
680.29	7414.3	
680.47	6311.2	
680.66	7440.3	
680.84	8180.3	
681.03	5710.4	
681.21	6775.4	
681.4	7511.3	
681.58	7361.1	
681.77	6094.8	
681.95	6054.5	
682.14	8243.1	
682.32	8498.4	
682.51	6849.1	
682.69	5761.6	
682.88	7436.2	
683.06	7954.3	
683.25	6638.8	
683.43	7066.9	
683.62	7681.9	
683.8	7968.6	
683.99	7140.6	
684.17	6517.3	
684.36	8777.6	
684.54	7490.8	
684.73	5745.2	
684.91	5853.8	
685.1	7699.7	
685.28	7141.9	
685.46	6358.9	
685.65	6324.8	
685.83	7914.7	
686.02	7424.6	
686.2	5829.9	
686.39	5967.8	
686.57	7056.6	
686.76	8578.9	
686.94	5837.4	
687.13	6114.6	
687.31	7841	
687.5	7387.7	
687.68	5515.2	
687.86	6664.1	
688.05	9060.9	
688.23	6930.3	
688.42	6683.2	
688.6	5954.8	
688.79	7268.9	
688.97	7255.3	
689.16	6322.8	
689.34	5317.2	
689.52	7974.1	
689.71	8241.7	
689.89	6599.2	
690.08	5914.5	
690.26	7587	
690.45	7419.8	
690.63	6776.7	
690.81	6106.4	
691	7288	
691.18	7247.1	
691.37	6310.5	
691.55	8207.6	
691.74	7210.2	
691.92	9039.1	
692.1	6176.7	
692.29	5662.6	
692.47	7372	
692.66	6762.4	
692.84	5792.3	
693.02	6406.7	
693.21	6834.8	
693.39	7329.7	
693.58	6451.1	
693.76	5933.6	
693.94	8461.5	
694.13	8266.3	
694.31	6004.6	
694.5	6934.4	
694.68	7233.4	
694.86	7533.8	
695.05	6294.1	
695.23	6425.8	
695.42	7939.3	
695.6	10047	
695.78	6895.5	
695.97	5972.6	
696.15	7903.8	
696.34	7387.7	
696.52	5904.3	
696.7	6578.8	
696.89	7647.1	
697.07	7047.7	
697.25	6423.1	
697.44	7864.2	
697.62	7676.5	
697.81	7920.9	
697.99	6206	
698.17	6635.4	
698.36	7002	
698.54	7638.2	
698.72	6496.8	
698.91	5567.1	
699.09	7288.7	
699.28	7078.5	
699.46	6191.7	
699.64	6012.2	
699.83	6999.3	
700.01	8181.6	
700.19	6775.4	
700.38	5296.7	
700.56	8202.8	
700.74	7169.3	
700.93	5743.9	
701.11	6468.9	
701.29	7664.9	
701.48	8647.9	
701.66	5900.9	
701.84	5965.7	
702.03	7331.7	
702.21	7897.7	
702.39	5529.5	
702.58	6147.3	
702.76	7686.7	
702.94	7804.1	
703.13	5507.7	
703.31	7714.7	
703.49	6971.3	
703.68	8345.5	
703.86	5732.9	
704.04	6636.1	
704.23	7423.2	
704.41	7761.1	
704.59	5832.6	
704.78	6997.9	
704.96	8512.7	
705.14	7842.4	
705.33	5688.6	
705.51	6399.9	
705.69	7324.2	
705.87	8058.1	
706.06	6702.3	
706.24	5624.4	
706.42	7572.7	
706.61	7821.2	
706.79	6705	
706.97	5577.3	
707.16	7161.7	
707.34	7607.5	
707.52	6604	
707.7	5809.4	
707.89	7176.1	
708.07	6867.5	
708.25	6709.1	
708.44	6928.3	
708.62	7177.4	
708.8	8249.2	
708.98	6890.7	
709.17	5889.3	
709.35	7535.8	
709.53	7562.5	
709.72	5602.6	
709.9	6104.3	
710.08	7706.5	
710.26	7841	
710.45	7111.9	
710.63	5846.3	
710.81	7373.4	
710.99	7411.6	
711.18	6483.9	
711.36	6023.1	
711.54	7263.5	
711.72	7927.7	
711.91	6107	
712.09	5466	
712.27	7318.1	
712.45	8311.3	
712.64	6302.3	
712.82	5296	
713	6874.3	
713.18	7065.5	
713.37	5450.3	
713.55	6583.5	
713.73	7776.1	
713.91	6403.3	
714.1	5789.6	
714.28	5198.4	
714.46	7387.7	
714.64	6582.9	
714.83	4714.4	
715.01	5395	
715.19	6716	
715.37	6120	
715.55	5102.9	
715.74	5332.2	
715.92	7459.4	
716.1	5603.9	
716.28	6371.2	
716.47	5489.9	
716.65	6318.7	
716.83	6311.8	
717.01	5414.1	
717.19	5405.3	
717.38	8232.2	
717.56	6027.9	
717.74	5640.1	
717.92	4851	
718.1	7203.4	
718.29	6440.2	
718.47	4455	
718.65	5063.3	
718.83	7197.9	
719.01	7068.9	
719.2	4364.2	
719.38	5481	
719.56	6815	
719.74	8271.1	
719.92	5128.1	
720.11	6028.5	
720.29	6886.6	
720.47	5995.8	
720.65	4608.6	
720.83	5404.6	
721.02	6319.3	
721.2	6036.7	
721.38	5391.6	
721.56	4762.9	
721.74	5614.8	
721.92	5793	
722.11	5902.9	
722.29	5632.6	
722.47	6992.4	
722.65	6194.4	
722.83	4715.1	
723.01	5601.9	
723.2	6262.7	
723.38	6541.9	
723.56	4224.3	
723.74	5274.2	
723.92	5778	
724.1	6929	
724.29	4711.7	
724.47	5779.4	
724.65	5874.9	
724.83	5834.7	
725.01	4601.1	
725.19	5475.6	
725.37	5872.9	
725.56	5909.1	
725.74	4465.3	
725.92	4756.7	
726.1	5756.2	
726.28	6044.2	
726.46	5111.7	
726.64	4772.4	
726.83	6037.4	
727.01	6294.1	
727.19	4410.6	
727.37	5165.7	
727.55	6182.8	
727.73	6648.4	
727.91	4438.6	
728.09	4234.5	
728.28	6671.6	
728.46	7212.9	
728.64	5326.1	
728.82	5227.8	
729	7711.3	
729.18	7036.1	
729.36	4487.8	
729.54	6728.3	
729.72	7948.2	
729.91	6313.9	
730.09	6306.4	
730.27	5189.6	
730.45	6227.2	
730.63	6819.1	
730.81	5730.9	
730.99	4909.7	
731.17	7391.8	
731.35	6001.9	
731.53	5413.5	
731.71	4954	
731.9	7098.3	
732.08	7176.8	
732.26	5137.7	
732.44	4878.9	
732.62	7284.6	
732.8	6816.3	
732.98	5580	
733.16	4724.7	
733.34	6789.7	
733.52	5618.9	
733.7	5154.1	
733.88	5493.3	
734.07	6641.6	
734.25	6432	
734.43	4689.8	
734.61	6198.5	
734.79	7798.7	
734.97	6295.5	
735.15	4782.7	
735.33	5113.8	
735.51	6693.4	
735.69	6280.4	
735.87	6198.5	
736.05	5311.7	
736.23	6464.8	
736.41	6277.7	
736.59	5130.2	
736.77	5175.2	
736.95	6885.3	
737.13	6362.4	
737.32	4801.8	
737.5	5001.1	
737.68	7434.1	
737.86	6238.1	
738.04	4663.2	
738.22	6345.3	
738.4	6136.4	
738.58	6411.5	
738.76	5246.2	
738.94	4260.5	
739.12	6200.6	
739.3	6085.2	
739.48	5868.1	
739.66	5575.9	
739.84	6409.5	
740.02	6427.2	
740.2	4309.6	
740.38	4712.4	
740.56	6802	
740.74	5739.8	
740.92	5300.8	
741.1	5301.5	
741.28	6286.6	
741.46	6102.3	
741.64	4835.3	
741.82	5369.8	
742	6315.3	
742.18	6220.4	
742.36	5063.9	
742.54	4640	
742.72	6819.1	
742.9	5612.8	
743.08	5431.2	
743.26	4262.5	
743.44	6924.2	
743.62	6778.8	
743.8	5571.8	
743.98	4722.6	
744.16	6560.3	
744.34	6304.3	
744.52	5445.5	
744.7	5384.8	
744.88	6672.3	
745.06	6184.9	
745.24	5428.5	
745.42	5563.6	
745.6	6804.7	
745.78	6293.4	
745.96	4411.3	
746.14	4697.4	
746.32	7413	
746.5	6681.8	
746.68	5229.8	
746.86	4698	
747.03	7124.9	
747.21	5596.4	
747.39	5224.4	
747.57	4690.5	
747.75	6382.8	
747.93	6730.3	
748.11	4649.6	
748.29	4569.7	
748.47	7785.7	
748.65	6083.1	
748.83	5418.2	
749.01	5102.2	
749.19	6533.7	
749.37	5742.5	
749.55	5054.4	
749.73	5103.5	
749.91	6254.5	
750.09	6015.6	
750.26	5103.5	
750.44	4500.8	
750.62	6250.4	
750.8	6221	
750.98	4389.5	
751.16	4672.1	
751.34	6330.3	
751.52	5676.3	
751.7	5516.5	
751.88	4358.1	
752.06	6756.2	
752.24	6512.5	
752.42	4318.5	
752.59	4665.3	
752.77	6182.1	
752.95	7441.6	
753.13	5332.2	
753.31	4758.1	
753.49	5882.4	
753.67	6343.9	
753.85	5105.6	
754.03	4661.2	
754.21	6552.8	
754.38	6901.7	
754.56	4823	
754.74	3918.4	
754.92	5900.2	
755.1	6556.9	
755.28	3928.7	
755.46	4004.5	
755.64	7125.6	
755.82	7305.8	
755.99	4159.4	
756.17	4285	
756.35	4897.4	
756.53	6382.8	
756.71	3228.3	
756.89	4083	
757.07	5893.4	
757.25	5044.8	
757.42	4585.4	
757.6	5408	
757.78	6062	
757.96	5076.9	
758.14	4259.1	
758.32	3881.6	
758.5	4675.5	
758.67	5801.9	
758.85	4120.5	
759.03	4250.2	
759.21	5651.7	
759.39	5118.6	
759.57	3734.8	
759.75	4793.6	
759.92	6276.3	
760.1	5560.9	
760.28	5154.1	
760.46	5373.9	
760.64	5335.6	
760.82	5096	
760.99	5033.9	
761.17	4241.3	
761.35	6149.4	
761.53	5165.7	
761.71	4434.5	
761.89	4975.9	
762.06	6052.4	
762.24	5571.2	
762.42	4457.1	
762.6	4234.5	
762.78	5603.9	
762.96	6191.7	
763.13	4858.5	
763.31	4490.5	
763.49	6340.5	
763.67	5481	
763.85	5339.7	
764.02	5800.5	
764.2	6574.7	
764.38	5847	
764.56	4371.7	
764.74	5145.2	
764.91	6744	
765.09	5614.2	
765.27	4069.3	
765.45	3890.5	
765.63	6671.6	
765.8	6563.7	
765.98	3632.4	
766.16	3940.3	
766.34	5182	
766.52	4994.3	
766.69	4805.9	
766.87	3779.9	
767.05	5599.1	
767.23	6309.8	
767.41	4124.6	
767.58	4339.6	
767.76	6169.2	
767.94	6252.4	
768.12	4183.3	
768.29	4809.3	
768.47	5672.9	
768.65	6327.5	
768.83	3815.4	
769	4879.6	
769.18	5199.1	
769.36	5879	
769.54	4846.2	
769.72	3913.7	
769.89	6125.5	
770.07	6293.4	
770.25	4191.5	
770.43	5373.2	
770.6	6942.6	
770.78	7322.2	
770.96	4358.8	
771.14	4936.3	
771.31	6064	
771.49	5478.3	
771.67	3558	
771.85	3812.6	
772.02	4751.3	
772.2	5491.3	
772.38	4485.7	
772.55	3995.6	
772.73	5719.3	
772.91	5522.7	
773.09	4283	
773.26	4471.4	
773.44	5686.5	
773.62	5420.3	
773.8	3882.3	
773.97	3648.8	
774.15	5785.5	
774.33	5300.1	
774.5	3790.1	
774.68	4145.8	
774.86	5928.2	
775.04	5393.7	
775.21	3842.7	
775.39	3851.5	
775.57	5707.7	
775.74	5985.5	
775.92	3723.9	
776.1	3583.9	
776.27	5569.1	
776.45	6847	
776.63	3902.7	
776.81	3429.7	
776.98	5280.3	
777.16	6290.7	
777.34	4030.4	
777.51	4274.8	
777.69	5246.9	
777.87	5053.7	
778.04	4088.4	
778.22	4589.5	
778.4	5110.4	
778.57	5637.4	
778.75	3302.7	
778.93	3571	
779.1	4885.1	
779.28	4790.9	
779.46	3352.5	
779.64	3805.8	
779.81	5852.4	
779.99	6636.1	
780.17	4517.1	
780.34	4698.7	
780.52	5328.1	
780.69	5534.3	
780.87	4123.9	
781.05	3691.8	
781.22	5395	
781.4	5504.3	
781.58	3828.3	
781.75	2990	
781.93	5499.5	
782.11	4776.5	
782.28	4699.4	
782.46	3827.7	
782.64	4716.5	
782.81	5569.1	
782.99	3937.6	
783.17	3902.7	
783.34	5507.7	
783.52	4728.1	
783.69	4095.3	
783.87	4796.3	
784.05	4842.8	
784.22	4806.6	
784.4	4831.8	
784.58	4175.8	
784.75	5801.9	
784.93	4937.7	
785.1	3837.9	
785.28	4445.5	
785.46	5522.7	
785.63	4818.9	
785.81	3812.6	
785.99	3654.9	
786.16	5048.9	
786.34	5356.1	
786.51	3665.9	
786.69	4023.6	
786.87	4599.1	
787.04	5205.9	
787.22	3552.5	
787.39	4512.4	
787.57	4847.5	
787.75	5900.2	
787.92	4676.2	
788.1	4553.3	
788.27	4858.5	
788.45	4631.8	
788.63	4304.8	
788.8	3097.2	
788.98	5251.7	
789.15	4601.8	
789.33	3259	
789.5	3857	
789.68	5712.5	
789.86	5849.7	
790.03	4255	
790.21	3677.5	
790.38	5739.8	
790.56	5018.9	
790.73	3541.6	
790.91	3673.4	
791.09	4896.7	
791.26	5588.9	
791.44	3876.1	
791.61	3316.3	
791.79	4859.1	
791.96	4894	
792.14	3466.5	
792.32	3054.9	
792.49	4913.8	
792.67	4998.4	
792.84	3579.2	
793.02	3345.7	
793.19	5535	
793.37	5939.8	
793.54	3025.5	
793.72	3322.5	
793.89	6020.3	
794.07	4870.8	
794.25	3868.6	
794.42	3065.1	
794.6	5825.1	
794.77	5486.5	
794.95	4192.2	
795.12	3674.7	
795.3	4851.6	
795.47	5498.8	
795.65	3985.3	
795.82	3898	
796	4698.7	
796.17	6487.3	
796.35	3828.3	
796.52	4459.1	
796.7	5403.2	
796.87	5470.1	
797.05	4656.4	
797.22	4588.8	
797.4	5461.9	
797.57	6376	
797.75	3862.5	
797.92	3650.8	
798.1	5699.5	
798.27	4840	
798.45	3121.8	
798.62	3324.5	
798.8	5147.9	
798.97	5598.5	
799.15	4103.4	
799.32	3953.3	
799.5	4472.8	
799.67	5247.6	
799.85	4255.7	
800.02	3097.2	
800.2	4861.9	
800.37	5139	
800.55	4375.1	
800.72	3676.1	
800.9	5604.6	
801.07	5999.9	
801.25	4945.2	
801.42	4005.1	
801.6	5679	
801.77	5369.1	
801.95	3704.1	
802.12	3604.4	
802.29	5334.3	
802.47	5354.8	
802.64	3981.9	
802.82	3043.3	
802.99	4835.3	
803.17	5794.4	
803.34	3931.4	
803.52	3510.9	
803.69	6395.8	
803.87	4586.8	
804.04	3910.9	
804.21	3911.6	
804.39	5941.8	
804.56	5061.9	
804.74	3297.2	
804.91	3997.6	
805.09	4878.3	
805.26	4984.1	
805.44	3372.3	
805.61	3743.7	
805.78	5479	
805.96	5487.9	
806.13	4059.8	
806.31	4304.1	
806.48	4439.3	
806.66	4926.7	
806.83	4008.6	
807	3906.2	
807.18	4840	
807.35	5222.3	
807.53	3691.8	
807.7	3189.4	
807.87	6019	
808.05	4878.9	
808.22	4305.5	
808.4	3117	
808.57	4862.6	
808.74	4571.1	
808.92	3575.1	
809.09	4581.3	
809.27	4764.3	
809.44	5362.3	
809.61	3145	
809.79	3533.4	
809.96	5995.8	
810.14	5593	
810.31	3060.3	
810.48	3745.7	
810.66	4952	
810.83	5657.2	
811.01	3562.8	
811.18	3951.2	
811.35	5608.7	
811.53	4349.9	
811.7	4328	
811.87	4084.3	
812.05	4990.2	
812.22	4825.7	
812.39	3437.9	
812.57	3392.8	
812.74	4967	
812.92	6445	
813.09	3751.9	
813.26	4076.1	
813.44	6211.5	
813.61	4840	
813.78	3201.7	
813.96	4264.6	
814.13	4954	
814.3	4603.2	
814.48	4536.3	
814.65	3767.6	
814.82	6285.2	
815	4718.5	
815.17	3848.1	
815.34	4628.4	
815.52	4827.7	
815.69	4841.4	
815.87	3779.9	
816.04	3276.1	
816.21	4920.6	
816.38	4353.3	
816.56	3719.1	
816.73	3469.9	
816.9	6122.7	
817.08	5559.6	
817.25	3513.6	
817.42	4365.6	
817.6	4495.3	
817.77	4933.6	
817.94	3911.6	
818.12	3404.4	
818.29	4639.3	
818.46	7161.1	
818.64	3590.1	
818.81	3384.6	
818.98	4599.1	
819.16	6612.9	
819.33	4104.1	
819.5	3846.1	
819.67	5292.6	
819.85	5885.9	
820.02	3788.1	
820.19	4027	
820.37	5175.2	
820.54	4721.9	
820.71	3899.3	
820.88	4829.1	
821.06	5092.6	
821.23	4689.2	
821.4	3923.2	
821.58	3910.3	
821.75	5537	
821.92	5021.6	
822.09	3178.4	
822.27	3289.7	
822.44	4898.7	
822.61	4855.7	
822.79	3201.7	
822.96	6077.7	
823.13	5354.8	
823.3	4656.4	
823.48	3635.1	
823.65	3332.7	
823.82	5585.5	
823.99	4459.8	
824.17	4612	
824.34	3417.4	
824.51	6425.8	
824.68	4960.9	
824.86	3528.7	
825.03	3902.1	
825.2	4903.5	
825.37	5903.6	
825.55	3489.1	
825.72	3910.3	
825.89	6469.5	
826.06	6001.9	
826.24	3796.9	
826.41	3764.8	
826.58	5971.2	
826.75	5156.1	
826.92	3001	
827.1	3317	
827.27	7926.3	
827.44	6382.2	
827.61	3571.7	
827.79	4373.1	
827.96	4614.8	
828.13	4967	
828.3	3698.6	
828.47	3203.7	
828.65	5130.2	
828.82	5131.5	
828.99	4796.3	
829.16	4205.2	
829.34	5575.9	
829.51	5257.8	
829.68	3895.9	
829.85	3968.3	
830.02	5762.3	
830.2	5532.2	
830.37	2975.7	
830.54	4690.5	
830.71	6254.5	
830.88	4896	
831.05	3036.5	
831.23	3497.2	
831.4	6007.4	
831.57	6610.8	
831.74	3635.8	
831.91	3157.3	
832.09	5158.8	
832.26	5522	
832.43	3689.8	
832.6	4229.1	
832.77	5124	
832.94	5861.3	
833.12	2948.4	
833.29	3644.7	
833.46	5309.7	
833.63	6849.1	
833.8	4014	
833.97	3696.6	
834.15	5524.1	
834.32	5319.3	
834.49	3894.6	
834.66	3943	
834.83	5749.3	
835	4662.5	
835.17	3550.5	
835.35	3615.3	
835.52	5438	
835.69	5285.1	
835.86	3787.4	
836.03	3132.7	
836.2	5468.8	
836.37	5104.9	
836.55	3716.4	
836.72	3517.7	
836.89	5087.2	
837.06	5589.6	
837.23	3822.2	
837.4	4157.4	
837.57	6328.2	
837.75	6918	
837.92	3387.3	
838.09	3644	
838.26	5028.4	
838.43	5768.4	
838.6	3902.1	
838.77	3454.9	
838.94	6554.2	
839.11	6264.7	
839.29	3748.5	
839.46	2917.7	
839.63	5470.8	
839.8	5195.7	
839.97	3669.3	
840.14	3630.4	
840.31	5289.2	
840.48	5498.1	
840.65	3028.9	
840.82	3524.6	
841	5473.5	
841.17	5407.3	
841.34	3388	
841.51	3372.3	
841.68	5416.9	
841.85	5132.9	
842.02	3495.2	
842.19	2930.6	
842.36	5287.9	
842.53	5170.4	
842.7	3392.8	
842.87	4063.9	
843.05	6771.9	
843.22	5128.1	
843.39	3147.7	
843.56	3497.2	
843.73	5030.5	
843.9	5522	
844.07	5331.5	
844.24	4453.6	
844.41	7920.9	
844.58	4739	
844.75	3233.7	
844.92	3545.7	
845.09	5451.7	
845.26	5464	
845.43	3312.9	
845.6	3457	
845.77	5483.1	
845.94	5208.7	
846.12	3598.3	
846.29	3816	
846.46	5694.7	
846.63	5500.2	
846.8	3321.8	
846.97	3837.9	
847.14	5872.9	
847.31	5399.1	
847.48	3674.1	
847.65	4117.1	
847.82	5717.2	
847.99	5674.2	
848.16	4520.5	
848.33	4103.4	
848.5	5081.7	
848.67	5948	
848.84	3265.8	
849.01	3347.1	
849.18	4948.6	
849.35	4625	
849.52	4131.4	
849.69	3317.7	
849.86	5634.6	
850.03	5826.5	
850.2	3274.7	
850.37	4020.2	
850.54	5799.2	
850.71	5146.5	
850.88	3964.2	
851.05	3252.2	
851.22	5397.8	
851.39	6019.7	
851.56	3092.4	
851.73	3801.7	
851.9	4788.2	
852.07	5756.8	
852.24	3678.2	
852.41	3244.7	
852.58	5311.7	
852.75	4878.9	
852.92	3663.8	
853.09	3241.9	
853.26	5061.9	
853.43	5855.1	
853.6	3274	
853.77	2823.5	
853.94	5988.3	
854.11	5362.3	
854.28	4812	
854.44	3562.1	
854.61	6406	
854.78	5766.4	
854.95	3304.7	
855.12	4140.3	
855.29	4431.8	
855.46	6072.9	
855.63	3254.2	
855.8	4608.6	
855.97	5042.8	
856.14	5733.6	
856.31	4685.8	
856.48	3549.1	
856.65	5027.8	
856.82	4760.8	
856.99	3138.2	
857.16	3589.4	
857.33	6611.5	
857.49	5217.5	
857.66	3585.3	
857.83	3850.9	
858	5137.7	
858.17	5369.8	
858.34	3158.7	
858.51	3326.6	
858.68	6051.1	
858.85	6044.9	
859.02	3824.2	
859.19	4080.9	
859.36	4844.1	
859.52	4851	
859.69	3297.2	
859.86	3855	
860.03	4918.5	
860.2	5966.4	
860.37	3022.1	
860.54	3339.6	
860.71	5683.8	
860.88	5992.4	
861.05	3713	
861.21	4144.4	
861.38	6078.4	
861.55	4644.8	
861.72	3003.7	
861.89	3681.6	
862.06	5752.1	
862.23	6203.3	
862.4	3183.9	
862.56	3454.9	
862.73	5596.4	
862.9	5264.6	
863.07	3874.8	
863.24	2988.7	
863.41	4706.9	
863.58	4847.5	
863.75	3358	
863.91	3801	
864.08	6014.9	
864.25	5578.7	
864.42	4147.1	
864.59	4619.5	
864.76	6292.7	
864.93	4838	
865.09	3203	
865.26	3544.4	
865.43	5862	
865.6	6318.7	
865.77	2904	
865.94	3246.7	
866.1	5997.1	
866.27	5626.5	
866.44	4958.8	
866.61	3100.6	
866.78	5164.3	
866.95	5571.2	
867.11	3184.6	
867.28	2969.6	
867.45	5771.2	
867.62	4853	
867.79	3766.9	
867.96	3255.6	
868.12	4773.8	
868.29	5692	
868.46	2857.6	
868.63	4327.4	
868.8	5842.9	
868.97	5647.6	
869.13	3473.4	
869.3	3444.7	
869.47	5560.9	
869.64	5689.9	
869.81	3361.4	
869.97	3334.1	
870.14	5429.2	
870.31	6099.5	
870.48	3241.3	
870.65	4181.3	
870.81	5133.6	
870.98	5177.3	
871.15	3736.2	
871.32	3403.7	
871.48	5539.8	
871.65	6107	
871.82	3213.9	
871.99	3558	
872.16	6524.1	
872.32	5934.3	
872.49	3314.3	
872.66	3321.1	
872.83	5657.2	
872.99	5025.7	
873.16	3756	
873.33	3278.8	
873.5	5337	
873.67	5329.5	
873.83	3489.1	
874	4364.9	
874.17	5474.2	
874.34	6444.3	
874.5	4214	
874.67	4106.9	
874.84	5995.1	
875.01	4762.2	
875.17	4612.7	
875.34	3257.6	
875.51	5421.7	
875.68	6434.7	
875.84	3966.2	
876.01	4775.2	
876.18	5659.2	
876.34	5594.4	
876.51	3349.1	
876.68	3253.5	
876.85	5123.3	
877.01	5916.6	
877.18	4638.6	
877.35	3303.4	
877.52	5281	
877.68	4766.3	
877.85	3234.4	
878.02	3244.7	
878.18	5212.8	
878.35	5008.6	
878.52	2648	
878.69	3747.8	
878.85	5693.4	
879.02	5593.7	
879.19	4682.3	
879.35	3573.7	
879.52	5678.3	
879.69	5819.6	
879.86	2851.5	
880.02	3655.6	
880.19	5203.2	
880.36	6361	
880.52	3808.5	
880.69	3893.9	
880.86	5705.6	
881.02	5702.9	
881.19	3659.7	
881.36	3552.5	
881.52	5608.7	
881.69	5013.4	
881.86	3577.8	
882.02	3495.2	
882.19	5889.3	
882.36	6849.8	
882.52	3351.2	
882.69	4652.3	
882.86	5403.2	
883.02	5419.6	
883.19	4024.9	
883.36	3768.9	
883.52	5754.1	
883.69	6574	
883.86	3340.9	
884.02	3007.8	
884.19	5689.3	
884.36	5261.2	
884.52	3747.1	
884.69	3456.3	
884.86	5033.9	
885.02	6250.4	
885.19	3667.2	
885.36	3753.9	
885.52	5259.2	
885.69	5484.5	
885.86	4710.3	
886.02	4181.3	
886.19	5686.5	
886.35	5126.7	
886.52	3636.5	
886.69	4543.8	
886.85	4827.1	
887.02	6051.7	
887.19	6051.7	
887.35	6051.7	
887.52	6051.7	
887.68	6051.7	
887.85	6051.7	
888.02	6051.7	
888.18	6051.7	
888.35	6051.7	
888.51	6051.7	
888.68	6051.7	
888.85	6051.7	
889.01	6051.7	
889.18	6051.7	
889.35	6051.7	
889.51	6051.7	
889.68	6051.7	
889.84	6051.7	
890.01	6051.7	
890.17	6051.7	
890.34	6051.7	
890.51	6051.7	
890.67	6051.7	
890.84	6051.7	
891	6051.7	
891.17	6051.7	
891.34	6051.7	
891.5	6051.7	
891.67	6051.7	
891.83	6051.7	
892	6051.7	
892.16	6051.7	
892.33	6051.7	
892.5	6051.7	
892.66	6051.7	
892.83	6051.7	
892.99	6051.7	
893.16	6051.7	
893.32	6051.7	
893.49	6051.7	
893.65	6051.7	
893.82	6051.7	
893.99	6051.7	
894.15	6051.7	
894.32	6051.7	
894.48	6051.7	
894.65	6051.7	
894.81	6051.7	
894.98	6051.7	
895.14	6051.7	
895.31	6051.7	
895.47	6051.7	
895.64	6051.7	
895.81	6051.7	
895.97	6051.7	
896.14	6051.7	
896.3	6051.7	
896.47	6051.7	
896.63	6051.7	
896.8	6051.7	
896.96	6051.7	
897.13	6051.7	
897.29	6051.7	
897.46	6051.7	
897.62	6051.7	
897.79	6051.7	
897.95	6051.7	
898.12	6051.7	
898.28	6051.7	
898.45	6051.7	
898.61	6051.7	
898.78	6051.7	
898.94	6051.7	
899.11	6051.7	
899.27	6051.7	
899.44	6051.7	
899.6	6051.7	
899.77	6051.7	
899.93	6051.7	
900.1	6051.7	
900.26	6051.7	
900.43	6051.7	
900.59	6051.7	
900.76	6051.7	
900.92	6051.7	
901.09	6051.7	
901.25	6051.7	
901.42	6051.7	
901.58	6051.7	
901.75	6051.7	
901.91	6051.7	
902.07	6051.7	
902.24	6051.7	
902.4	6051.7	
902.57	6051.7	
902.73	6051.7	
902.9	6051.7	
903.06	6051.7	
903.23	6051.7	
903.39	6051.7	
903.56	6051.7	
903.72	6051.7	
903.88	6051.7	
904.05	6051.7	
904.21	6051.7	
904.38	6051.7	
904.54	6051.7	
904.71	6051.7	
904.87	6051.7	
905.03	6051.7	
905.2	6051.7	
905.36	6051.7	
905.53	6051.7	
905.69	6051.7	
905.86	6051.7	
906.02	6051.7	
906.18	6051.7	
906.35	6051.7	
906.51	6051.7	
906.68	6051.7	
906.84	6051.7	
907.01	6051.7	
907.17	6051.7	
907.33	6051.7	
907.5	6051.7	
907.66	6051.7	
907.83	6051.7	
907.99	6051.7	
908.15	6051.7	
908.32	6051.7	
908.48	6051.7	
908.65	6051.7	
908.81	6051.7	
908.97	6051.7	
909.14	6051.7	
909.3	6051.7	
909.47	6051.7	
909.63	6051.7	
909.79	6051.7	
909.96	6051.7	
910.12	6051.7	
910.28	6051.7	
910.45	6051.7	
910.61	6051.7	
910.78	6051.7	
910.94	6051.7	
911.1	6051.7	
911.27	6051.7	
911.43	6051.7	
911.59	6051.7	
911.76	6051.7	
911.92	6051.7	
912.08	6051.7	
912.25	6051.7	
912.41	6051.7	
912.57	6051.7	
912.74	6051.7	
912.9	6051.7	
913.07	6051.7	
913.23	6051.7	
913.39	6051.7	
913.56	6051.7	
913.72	6051.7	
913.88	6051.7	
914.05	6051.7	
914.21	6051.7	
914.37	6051.7	
914.54	6051.7	
914.7	6051.7	
914.86	6051.7	
915.03	6051.7	
915.19	6051.7	
