Wavelength	Intensities	
nm	a.u.	
179.22	1679.7	
179.44	1674.6	
179.65	1684.8	
179.86	1664.3	
180.08	1687.5	
180.29	3832.4	
180.51	2966.1	
180.72	4857.1	
180.94	5436.7	
181.15	2634.4	
181.37	2639.1	
181.58	4700.1	
181.79	4895.3	
182.01	2766.1	
182.22	2915.6	
182.44	4962.2	
182.65	4269.3	
182.87	3592.1	
183.08	3164.8	
183.29	5145.9	
183.51	4360.8	
183.72	2897.2	
183.94	4015.4	
184.15	4668.7	
184.37	4661.9	
184.58	2652.8	
184.79	3383.2	
185.01	4414.1	
185.22	4972.5	
185.44	3519.8	
185.65	3106.8	
185.86	4649.6	
186.08	4349.2	
186.29	2577	
186.51	2739.5	
186.72	4379.9	
186.94	5057.1	
187.15	3110.2	
187.36	3186	
187.58	6285.2	
187.79	4731.5	
188.01	3230.3	
188.22	4853.7	
188.43	5517.2	
188.65	4937	
188.86	2730.6	
189.08	3220.1	
189.29	4542.4	
189.5	4419.5	
189.72	2994.8	
189.93	2952.5	
190.15	5020.3	
190.36	5784.8	
190.57	3214.6	
190.79	3116.3	
191	5069.4	
191.22	5102.2	
191.43	3261	
191.64	2782.5	
191.86	5261.9	
192.07	5061.9	
192.29	2873.3	
192.5	2964.1	
192.71	5079	
192.93	4513.7	
193.14	2927.9	
193.35	3016.7	
193.57	4508.3	
193.78	5136.3	
194	2400.9	
194.21	2863.1	
194.42	4332.8	
194.64	4599.7	
194.85	3160.7	
195.07	3588.7	
195.28	4626.4	
195.49	4157.4	
195.71	3760.8	
195.92	2794.1	
196.13	4829.1	
196.35	4824.3	
196.56	4018.1	
196.78	3194.8	
196.99	5826.5	
197.2	5434.6	
197.42	3508.2	
197.63	3222.1	
197.84	4279.6	
198.06	4805.9	
198.27	2937.5	
198.48	3769.6	
198.7	4475.5	
198.91	4665.3	
199.13	3200.3	
199.34	3203	
199.55	5012.1	
199.77	4052.2	
199.98	2854.9	
200.19	3248.8	
200.41	4659.8	
200.62	4425.7	
200.83	3304.1	
201.05	3549.8	
201.26	4647.5	
201.47	4460.5	
201.69	2912.2	
201.9	2787.3	
202.11	4689.2	
202.33	5348.6	
202.54	3107.5	
202.76	3364.8	
202.97	4756.7	
203.18	4750.6	
203.4	3300.6	
203.61	3328.6	
203.82	4698.7	
204.04	4427	
204.25	3267.2	
204.46	3130	
204.68	4609.3	
204.89	4849.6	
205.1	3127.2	
205.32	2750.4	
205.53	4903.5	
205.74	5072.8	
205.96	2477.4	
206.17	3248.8	
206.38	4926	
206.6	5055.8	
206.81	3641.3	
207.02	3018	
207.24	4884.4	
207.45	5046.2	
207.66	3104	
207.88	2682.8	
208.09	4744.5	
208.3	4700.8	
208.52	2887	
208.73	3104.7	
208.94	4676.9	
209.15	5102.2	
209.37	3056.3	
209.58	3160.7	
209.79	5057.8	
210.01	4478.2	
210.22	2575	
210.43	2615.3	
210.65	4656.4	
210.86	4923.3	
211.07	3039.2	
211.29	2841.2	
211.5	4865.3	
211.71	4612.7	
211.93	2853.5	
212.14	2884.9	
212.35	4685.8	
212.56	4706.9	
212.78	3238.5	
212.99	2678.7	
213.2	5347.2	
213.42	4527.4	
213.63	2899.9	
213.84	3037.8	
214.06	4241.3	
214.27	4328.7	
214.48	3005.1	
214.69	3259.7	
214.91	5180.7	
215.12	5150	
215.33	3242.6	
215.55	3480.9	
215.76	5578.7	
215.97	4880.3	
216.18	3084.2	
216.4	3079.5	
216.61	4398.4	
216.82	5025.7	
217.04	2863.7	
217.25	2986.6	
217.46	5064.6	
217.67	4917.2	
217.89	2629.6	
218.1	2736.1	
218.31	4711.7	
218.53	4799.8	
218.74	3041.9	
218.95	2867.8	
219.16	4632.5	
219.38	5287.2	
219.59	2929.3	
219.8	3378.5	
220.01	5642.8	
220.23	4668	
220.44	3669.3	
220.65	2798.2	
220.87	4708.3	
221.08	5134.9	
221.29	2742.2	
221.5	3450.1	
221.72	5953.4	
221.93	4411.3	
222.14	3265.1	
222.35	3717.7	
222.57	4657.8	
222.78	5001.8	
222.99	3133.4	
223.2	3232.4	
223.42	4881.7	
223.63	4978.6	
223.84	2464.4	
224.05	2487.6	
224.27	5651	
224.48	5268.7	
224.69	3757.3	
224.9	3228.3	
225.12	4814.8	
225.33	4625.7	
225.54	2678.1	
225.75	2903.3	
225.97	4368.3	
226.18	4625.7	
226.39	3059.7	
226.6	2919	
226.82	4504.2	
227.03	4327.4	
227.24	3191.4	
227.45	2734	
227.67	5011.4	
227.88	5257.1	
228.09	3534.1	
228.3	3515.7	
228.52	4943.8	
228.73	4617.5	
228.94	3009.8	
229.15	2725.8	
229.36	4676.9	
229.58	4603.8	
229.79	3025.5	
230	3444.7	
230.21	5449.6	
230.43	4691.2	
230.64	3115	
230.85	3266.5	
231.06	4990.9	
231.28	4997.7	
231.49	2715.6	
231.7	3173.7	
231.91	4891.2	
232.12	4661.9	
232.34	2828.2	
232.55	3078.8	
232.76	5107.6	
232.97	4793.6	
233.18	2851.5	
233.4	3205.8	
233.61	4788.8	
233.82	4468	
234.03	3076.7	
234.25	2956.6	
234.46	6083.1	
234.67	4678.2	
234.88	3270.6	
235.09	2939.5	
235.31	4835.9	
235.52	4559.5	
235.73	3175	
235.94	2731.3	
236.15	4439.3	
236.37	5478.3	
236.58	2843.3	
236.79	3076.7	
237	4853	
237.21	4317.1	
237.43	3317.7	
237.64	2669.2	
237.85	7518.8	
238.06	4367.6	
238.27	3275.4	
238.48	2754.5	
238.7	4956.1	
238.91	4544.4	
239.12	3011.9	
239.33	3189.4	
239.54	4397.7	
239.76	4595.6	
239.97	3026.9	
240.18	3095.2	
240.39	5485.8	
240.6	4829.8	
240.82	3226.9	
241.03	2696.5	
241.24	4616.1	
241.45	5234.6	
241.66	2820.7	
241.87	3301.3	
242.09	5164.3	
242.3	5425.1	
242.51	3347.1	
242.72	3038.5	
242.93	4958.8	
243.14	4667.3	
243.36	3525.9	
243.57	3758	
243.78	5215.5	
243.99	4912.4	
244.2	3097.2	
244.41	2806.4	
244.63	4363.5	
244.84	4803.9	
245.05	3280.8	
245.26	3062.4	
245.47	4854.4	
245.68	4965.6	
245.9	3926.6	
246.11	3218.7	
246.32	4532.2	
246.53	4835.9	
246.74	4758.8	
246.95	2653.5	
247.16	4405.9	
247.38	4709	
247.59	2673.3	
247.8	3117	
248.01	4341.7	
248.22	4605.9	
248.43	2867.2	
248.64	3033	
248.86	4274.8	
249.07	4535.6	
249.28	2804.4	
249.49	3152.5	
249.7	4981.3	
249.91	5042.1	
250.12	2687.6	
250.34	2738.1	
250.55	4781.3	
250.76	4655	
250.97	3235.8	
251.18	3190.1	
251.39	5096	
251.6	4762.9	
251.81	3267.9	
252.03	3197.6	
252.24	4477.5	
252.45	4982	
252.66	2745.6	
252.87	3347.7	
253.08	4690.5	
253.29	5816.2	
253.5	2772.9	
253.72	3676.8	
253.93	4571.1	
254.14	5318.6	
254.35	2944.3	
254.56	3052.8	
254.77	4843.4	
254.98	4359.4	
255.19	2936.8	
255.41	3602.4	
255.62	4769.7	
255.83	5107.6	
256.04	3277.4	
256.25	3164.1	
256.46	5560.9	
256.67	4442	
256.88	3186.6	
257.09	3474	
257.31	4358.1	
257.52	4383.3	
257.73	3923.9	
257.94	2939.5	
258.15	4577.9	
258.36	4644.1	
258.57	3623.5	
258.78	2422.1	
258.99	4960.9	
259.2	4527.4	
259.41	2933.4	
259.63	3095.8	
259.84	5274.9	
260.05	5485.1	
260.26	3723.9	
260.47	2908.1	
260.68	5113.8	
260.89	4499.4	
261.1	3460.4	
261.31	2879.4	
261.52	5134.9	
261.73	5292.6	
261.95	3736.2	
262.16	3232.4	
262.37	5121.3	
262.58	5192.3	
262.79	3693.2	
263	2979.8	
263.21	4764.3	
263.42	4227	
263.63	3209.2	
263.84	2998.9	
264.05	5034.6	
264.26	5244.2	
264.47	3582.6	
264.69	3209.8	
264.9	5198.4	
265.11	4810	
265.32	2960	
265.53	2947	
265.74	4713.7	
265.95	4252.3	
266.16	3155.2	
266.37	3397.6	
266.58	4783.4	
266.79	4496.7	
267	2923.1	
267.21	2775	
267.42	4262.5	
267.63	4631.8	
267.84	3101.3	
268.06	2704	
268.27	5035.3	
268.48	5203.2	
268.69	3049.4	
268.9	3457.7	
269.11	5081	
269.32	4214	
269.53	3054.2	
269.74	2928.6	
269.95	4855.7	
270.16	4238.6	
270.37	3066.5	
270.58	3557.3	
270.79	4542.4	
271	5024.3	
271.21	3209.8	
271.42	3101.3	
271.63	4803.9	
271.84	4298	
272.05	2571.6	
272.26	2815.3	
272.47	4625.7	
272.68	4782.7	
272.89	3045.3	
273.11	3371	
273.32	4484.4	
273.53	5289.9	
273.74	3238.5	
273.95	3186	
274.16	5023	
274.37	4673.5	
274.58	3386.7	
274.79	2760.7	
275	4844.8	
275.21	5079	
275.42	3908.9	
275.63	3392.8	
275.84	4862.6	
276.05	5874.9	
276.26	3213.3	
276.47	3054.2	
276.68	4595	
276.89	5408.7	
277.1	3446.7	
277.31	2731.3	
277.52	4811.4	
277.73	5066.7	
277.94	2732	
278.15	2996.2	
278.36	4759.5	
278.57	4429.8	
278.78	2987.3	
278.99	3329.3	
279.2	4479.6	
279.41	4409.3	
279.62	3880.2	
279.83	2810.5	
280.04	5496.1	
280.25	4410	
280.46	3770.3	
280.67	3085.6	
280.88	4464.6	
281.09	5143.1	
281.3	3231	
281.51	3947.8	
281.72	4454.3	
281.93	4994.3	
282.14	2949.8	
282.35	3162.1	
282.56	5059.8	
282.77	5005.9	
282.98	3033.7	
283.19	3551.9	
283.4	5896.8	
283.61	4590.9	
283.82	2822.1	
284.03	3764.2	
284.24	4870.1	
284.45	5128.1	
284.66	3773.7	
284.87	3608.5	
285.08	5066.7	
285.29	5190.9	
285.5	2696.5	
285.71	3031.7	
285.92	5028.4	
286.12	5543.9	
286.33	3746.4	
286.54	3085.6	
286.75	4958.1	
286.96	4559.5	
287.17	2874	
287.38	3573.7	
287.59	4479.6	
287.8	4449.6	
288.01	3088.3	
288.22	3392.8	
288.43	4927.4	
288.64	4223.6	
288.85	3529.3	
289.06	3407.8	
289.27	4941.1	
289.48	5276.9	
289.69	3708.2	
289.9	3410.6	
290.11	5137.7	
290.32	4520.5	
290.53	3524.6	
290.74	3296.5	
290.94	5005.2	
291.15	4977.2	
291.36	2914.9	
291.57	3365.5	
291.78	4534.9	
291.99	4247.5	
292.2	2887.6	
292.41	3297.2	
292.62	5046.9	
292.83	4879.6	
293.04	4000.4	
293.25	2895.1	
293.46	4595	
293.67	5076.2	
293.88	2895.1	
294.09	2878.1	
294.29	4412	
294.5	4764.3	
294.71	3119.1	
294.92	2981.8	
295.13	4506.2	
295.34	5414.1	
295.55	2664.4	
295.76	2669.9	
295.97	4933.6	
296.18	5466.7	
296.39	2811.9	
296.6	2936.8	
296.81	4716.5	
297.01	4956.8	
297.22	3009.1	
297.43	2940.2	
297.64	4507.6	
297.85	4370.4	
298.06	2476.7	
298.27	2729.3	
298.48	4642.7	
298.69	4459.8	
298.9	3107.5	
299.11	2837.8	
299.31	4349.9	
299.52	4350.6	
299.73	3398.3	
299.94	3266.5	
300.15	4672.1	
300.36	4403.8	
300.57	3280.2	
300.78	3253.5	
300.99	4587.4	
301.2	4739	
301.4	2927.2	
301.61	3110.2	
301.82	4932.9	
302.03	4954	
302.24	3453.6	
302.45	2788	
302.66	4928.1	
302.87	5055.8	
303.08	2949.8	
303.29	3831.7	
303.49	4546.5	
303.7	4677.6	
303.91	2633	
304.12	3633.1	
304.33	4313	
304.54	4820.2	
304.75	2953.9	
304.96	2859.6	
305.16	4877.6	
305.37	5365.7	
305.58	2608.4	
305.79	2708.8	
306	4857.1	
306.21	4190.1	
306.42	2945.7	
306.63	4235.9	
306.83	4550.6	
307.04	4947.2	
307.25	3173	
307.46	3146.4	
307.67	4168.3	
307.88	4913.1	
308.09	2902.7	
308.29	2927.9	
308.5	4747.2	
308.71	5066.7	
308.92	3095.2	
309.13	2828.2	
309.34	4640.7	
309.55	4579.3	
309.75	3551.2	
309.96	3264.5	
310.17	4997.7	
310.38	4439.3	
310.59	3386.7	
310.8	2776.4	
311.01	4579.9	
311.21	4609.3	
311.42	2847.4	
311.63	2876	
311.84	4504.8	
312.05	4734.9	
312.26	3226.9	
312.46	3523.9	
312.67	4574.5	
312.88	4318.5	
313.09	2845.3	
313.3	2751.8	
313.51	5233.2	
313.71	5489.9	
313.92	2902	
314.13	2939.5	
314.34	4848.2	
314.55	4580.6	
314.76	3534.1	
314.96	3146.4	
315.17	4764.9	
315.38	4861.2	
315.59	2882.2	
315.8	2764.8	
316.01	5227.8	
316.21	5299.5	
316.42	2764.8	
316.63	3112.2	
316.84	4577.9	
317.05	5046.9	
317.26	3278.1	
317.46	2994.1	
317.67	4665.3	
317.88	4897.4	
318.09	3502	
318.3	2706	
318.5	4495.3	
318.71	4834.6	
318.92	4377.2	
319.13	3285.6	
319.34	5011.4	
319.54	5060.5	
319.75	2708.1	
319.96	2631.6	
320.17	4846.2	
320.38	5014.1	
320.58	2661.7	
320.79	3044	
321	5087.2	
321.21	5147.2	
321.42	3105.4	
321.62	2649.4	
321.83	4419.5	
322.04	4695.3	
322.25	3050.1	
322.46	2825.5	
322.66	4730.1	
322.87	4905.6	
323.08	3395.5	
323.29	2803.7	
323.5	5413.5	
323.7	4367.6	
323.91	3741.6	
324.12	3370.3	
324.33	4727.4	
324.53	4920.6	
324.74	3272	
324.95	3382.6	
325.16	4285.7	
325.37	4576.5	
325.57	2835.8	
325.78	2880.8	
325.99	4767	
326.2	4320.5	
326.4	3929.4	
326.61	2727.2	
326.82	4632.5	
327.03	4711.7	
327.24	3827.7	
327.44	3650.8	
327.65	4874.8	
327.86	4108.9	
328.07	3298.6	
328.27	2797.5	
328.48	5155.4	
328.69	4364.2	
328.9	3936.9	
329.1	2996.2	
329.31	4653.7	
329.52	5193.6	
329.73	2918.4	
329.93	3125.2	
330.14	4727.4	
330.35	4775.2	
330.56	4426.3	
330.76	3396.2	
330.97	4491.9	
331.18	4711.7	
331.39	3132	
331.59	2627.5	
331.8	5078.3	
332.01	5158.8	
332.22	2951.1	
332.42	3283.6	
332.63	4778.6	
332.84	4424.3	
333.05	3179.8	
333.25	2911.5	
333.46	4460.5	
333.67	4662.5	
333.88	3010.5	
334.08	3154.6	
334.29	5911.1	
334.5	5068.7	
334.7	2792.7	
334.91	3831.1	
335.12	4347.2	
335.33	4860.5	
335.53	3140.9	
335.74	4354	
335.95	4575.2	
336.16	4347.8	
336.36	3102.7	
336.57	3536.2	
336.78	4321.9	
336.98	5049.6	
337.19	3740.3	
337.4	3034.4	
337.61	5563.6	
337.81	4361.5	
338.02	2925.2	
338.23	3635.8	
338.43	5237.3	
338.64	4444.8	
338.85	2925.2	
339.05	3695.9	
339.26	5331.5	
339.47	4289.8	
339.68	2907.4	
339.88	4101.4	
340.09	4870.8	
340.3	4967.7	
340.5	3283.6	
340.71	2613.9	
340.92	4339.6	
341.13	5156.8	
341.33	2770.2	
341.54	3282.2	
341.75	4826.4	
341.95	4487.1	
342.16	3184.6	
342.37	3383.2	
342.57	4332.8	
342.78	4622.9	
342.99	3448.1	
343.19	2639.8	
343.4	4975.2	
343.61	4836.6	
343.81	3041.2	
344.02	2803.7	
344.23	4994.3	
344.43	5185.5	
344.64	3523.9	
344.85	3410.6	
345.06	4891.2	
345.26	5078.3	
345.47	3293.8	
345.68	3732.1	
345.88	4304.8	
346.09	5022.3	
346.3	3272.7	
346.5	2663.7	
346.71	4644.1	
346.92	4450.9	
347.12	2721.1	
347.33	3191.4	
347.54	5008.6	
347.74	5261.9	
347.95	3278.8	
348.16	2525.1	
348.36	4526	
348.57	4399	
348.78	3291.1	
348.98	3436.5	
349.19	4596.3	
349.39	4230.4	
349.6	2760.7	
349.81	2906.1	
350.01	4885.8	
350.22	4457.1	
350.43	3190.7	
350.63	3615.3	
350.84	4662.5	
351.05	4451.6	
351.25	2873.3	
351.46	2718.3	
351.67	5004.6	
351.87	4427.7	
352.08	3077.4	
352.29	3425.6	
352.49	4977.9	
352.7	5034.6	
352.9	2811.2	
353.11	3441.3	
353.32	5440.1	
353.52	4586.1	
353.73	2893.8	
353.94	3506.1	
354.14	4881.7	
354.35	4692.6	
354.55	2925.9	
354.76	3205.8	
354.97	4887.8	
355.17	4653	
355.38	2841.2	
355.59	3676.1	
355.79	4435.2	
356	4713.1	
356.2	3162.1	
356.41	2863.7	
356.62	4328	
356.82	4700.8	
357.03	3469.9	
357.24	3080.8	
357.44	4486.4	
357.65	4592.9	
357.85	3909.6	
358.06	3224.2	
358.27	4335.5	
358.47	4449.6	
358.68	2820.1	
358.88	3423.5	
359.09	4876.2	
359.3	5146.5	
359.5	3817.4	
359.71	3536.2	
359.91	5446.9	
360.12	4911	
360.33	3482.2	
360.53	3746.4	
360.74	4627	
360.94	4674.1	
361.15	3561.4	
361.36	3090.4	
361.56	5151.3	
361.77	4764.9	
361.97	3882.3	
362.18	3233.1	
362.38	5095.3	
362.59	4541	
362.8	3011.2	
363	2970.9	
363.21	4368.3	
363.41	4857.8	
363.62	3373.7	
363.83	4043.4	
364.03	4955.4	
364.24	5474.2	
364.44	4128	
364.65	4165.6	
364.85	4812	
365.06	4549.9	
365.27	3225.6	
365.47	3269.2	
365.68	5481	
365.88	4781.3	
366.09	3484.3	
366.29	3225.6	
366.5	4836.6	
366.71	5250.3	
366.91	4152.6	
367.12	3638.6	
367.32	5668.1	
367.53	5150	
367.73	3656.3	
367.94	4227.7	
368.14	5164.3	
368.35	5702.2	
368.56	3571	
368.76	3391.4	
368.97	5233.2	
369.17	6315.9	
369.38	3233.7	
369.58	3475.4	
369.79	4543.8	
369.99	5453.7	
370.2	4205.2	
370.4	3509.5	
370.61	4936.3	
370.82	5867.4	
371.02	3405.1	
371.23	3003.7	
371.43	4573.1	
371.64	5515.9	
371.84	3492.5	
372.05	4264.6	
372.25	6252.4	
372.46	5171.8	
372.66	3530	
372.87	3487	
373.07	5279	
373.28	6429.9	
373.48	4128.7	
373.69	3980.6	
373.9	5016.8	
374.1	4970.4	
374.31	4209.3	
374.51	3834.5	
374.72	5520	
374.92	4841.4	
375.13	4293.2	
375.33	3831.7	
375.54	5257.8	
375.74	4968.4	
375.95	3902.1	
376.15	4733.5	
376.36	5354.8	
376.56	5263.3	
376.77	3960.1	
376.97	4195.6	
377.18	6126.2	
377.38	5441.5	
377.59	4399.7	
377.79	3703.4	
378	5352	
378.2	5535	
378.41	3764.8	
378.61	3635.8	
378.82	5754.1	
379.02	5236	
379.23	3846.1	
379.43	4605.2	
379.64	5933.6	
379.84	5542.5	
380.05	3724.6	
380.25	3689.1	
380.46	5520.6	
380.66	5326.8	
380.87	4668.7	
381.07	4831.8	
381.28	6014.2	
381.48	5608	
381.69	3682.2	
381.89	3778.5	
382.1	4883.7	
382.3	5567.7	
382.51	4544.4	
382.71	5141.8	
382.91	5443.5	
383.12	5856.5	
383.32	3986.7	
383.53	4110.3	
383.73	5414.8	
383.94	5365	
384.14	4074.1	
384.35	3498.6	
384.55	5208	
384.76	5504.9	
384.96	4041.3	
385.17	4100	
385.37	5484.5	
385.58	5063.3	
385.78	4048.8	
385.98	3418.1	
386.19	5149.3	
386.39	5431.9	
386.6	3800.3	
386.8	3953.3	
387.01	5496.1	
387.21	5649	
387.42	4189.5	
387.62	4662.5	
387.83	5157.5	
388.03	5358.9	
388.23	4104.8	
388.44	4614.1	
388.64	4995	
388.85	5023.7	
389.05	4353.3	
389.26	4745.8	
389.46	6505	
389.67	6064	
389.87	4405.9	
390.07	4420.9	
390.28	5479.7	
390.48	5146.5	
390.69	3852.2	
390.89	4113	
391.1	5367	
391.3	5903.6	
391.5	4880.3	
391.71	5210.7	
391.91	5879.7	
392.12	6365.8	
392.32	4989.5	
392.53	4391.5	
392.73	5459.2	
392.93	5550	
393.14	4278.9	
393.34	4684.4	
393.55	5865.4	
393.75	5429.2	
393.95	4209.9	
394.16	4115.7	
394.36	5362.3	
394.57	5799.2	
394.77	3866.6	
394.98	3956	
395.18	5314.5	
395.38	5461.9	
395.59	4792.2	
395.79	4062.5	
396	5525.4	
396.2	5827.8	
396.4	4711.7	
396.61	4702.1	
396.81	5999.9	
397.02	5576.6	
397.22	4986.1	
397.42	4986.8	
397.63	6106.4	
397.83	5597.1	
398.04	4267.3	
398.24	4594.3	
398.44	5905	
398.65	5257.8	
398.85	4135.5	
399.05	4225	
399.26	5610.8	
399.46	6754.9	
399.67	4543.1	
399.87	4354.7	
400.07	5887.9	
400.28	6084.5	
400.48	4426.3	
400.69	5165.7	
400.89	6273.6	
401.09	6646.3	
401.3	4472.1	
401.5	5216.2	
401.7	6832.7	
401.91	6989.7	
402.11	4761.5	
402.32	4883	
402.52	6423.1	
402.72	6314.6	
402.93	5029.1	
403.13	4226.3	
403.33	6865.5	
403.54	5780.1	
403.74	4682.3	
403.94	5210.7	
404.15	5871.5	
404.35	6726.9	
404.56	4431.8	
404.76	5640.1	
404.96	6214.2	
405.17	6001.9	
405.37	5337.7	
405.57	4825	
405.78	6348.7	
405.98	5892	
406.18	4629.8	
406.39	5243.5	
406.59	6384.9	
406.79	6012.2	
407	4410.6	
407.2	4458.4	
407.4	6566.5	
407.61	6433.4	
407.81	4496.7	
408.01	5597.8	
408.22	5620.3	
408.42	7075	
408.62	5468.1	
408.83	5225.1	
409.03	6349.4	
409.23	6363.7	
409.44	5307	
409.64	5584.8	
409.84	7287.4	
410.05	7241.6	
410.25	5706.3	
410.45	5552	
410.66	7059.3	
410.86	8736	
411.06	6022.4	
411.27	5864.7	
411.47	8729.8	
411.67	7284.6	
411.88	6092.7	
412.08	6386.9	
412.28	7786.4	
412.49	8124.3	
412.69	6095.4	
412.89	6139.8	
413.09	8082	
413.3	8032.8	
413.5	6338.5	
413.7	6145.3	
413.91	7549.5	
414.11	8193.9	
414.31	6227.9	
414.52	6575.3	
414.72	8028.7	
414.92	8046.5	
415.12	6147.3	
415.33	6767.9	
415.53	8232.8	
415.73	8441.7	
415.94	6828.6	
416.14	6525.5	
416.34	7746.1	
416.55	7411.6	
416.75	7413.6	
416.95	7058.7	
417.15	8476.5	
417.36	8800.1	
417.56	7718.8	
417.76	7023.9	
417.97	8684.1	
418.17	8586.5	
418.37	6814.3	
418.57	6894.8	
418.78	8589.2	
418.98	8213	
419.18	7466.2	
419.38	7339.9	
419.59	8216.5	
419.79	7845.1	
419.99	6666.8	
420.2	7032	
420.4	8632.9	
420.6	8660.2	
420.8	6673.6	
421.01	6562.4	
421.21	8585.1	
421.41	8538	
421.61	6890	
421.82	6761	
422.02	8272.4	
422.22	8865.7	
422.42	7406.1	
422.63	6959.7	
422.83	8229.4	
423.03	9182.4	
423.23	7047.1	
423.44	6407.4	
423.64	8277.2	
423.84	7921.5	
424.04	6600.6	
424.25	6467.5	
424.45	8761.9	
424.65	8680.7	
424.85	6251.1	
425.06	6690.7	
425.26	8911.4	
425.46	8127.7	
425.66	6972.7	
425.87	6744	
426.07	8637.6	
426.27	8458.1	
426.47	6799.3	
426.67	6371.9	
426.88	8857.5	
427.08	8479.3	
427.28	7156.3	
427.48	6342.6	
427.69	7691.5	
427.89	8110.6	
428.09	6969.9	
428.29	6386.9	
428.5	8552.3	
428.7	8282	
428.9	6321.4	
429.1	6651.1	
429.3	8313.4	
429.51	8488.1	
429.71	6518	
429.91	7126.2	
430.11	8651.3	
430.31	8768.7	
430.52	6944	
430.72	7274.4	
430.92	9035	
431.12	8602.8	
431.32	6771.9	
431.53	7008.8	
431.73	8021.9	
431.93	9031.5	
432.13	6667.5	
432.33	6561.7	
432.54	8276.5	
432.74	8499.1	
432.94	6640.9	
433.14	7394.5	
433.34	8817.9	
433.55	8505.9	
433.75	7415	
433.95	8755.7	
434.15	8675.2	
434.35	8439	
434.56	6841.6	
434.76	6657.3	
434.96	8812.4	
435.16	9103.2	
435.36	6911.2	
435.56	7844.4	
435.77	8581.7	
435.97	8769.4	
436.17	8316.8	
436.37	7818.5	
436.57	8741.4	
436.78	8797.4	
436.98	8453.3	
437.18	8142	
437.38	9320.3	
437.58	8860.2	
437.78	8271.7	
437.99	7311.2	
438.19	9196.7	
438.39	10229	
438.59	7359	
438.79	6909.8	
438.99	9549.7	
439.2	8620.6	
439.4	6728.3	
439.6	6819.7	
439.8	8831.5	
440	9675.3	
440.2	7805.5	
440.4	7808.9	
440.61	9446.6	
440.81	9768.1	
441.01	7479.9	
441.21	8272.4	
441.41	10063	
441.61	9615.2	
441.81	8572.8	
442.02	9158.5	
442.22	10356	
442.42	9740.1	
442.62	7692.9	
442.82	7616.4	
443.02	10170	
443.22	9564	
443.43	8179.6	
443.63	7716.7	
443.83	9331.9	
444.03	9319.6	
444.23	8662.9	
444.43	8476.5	
444.63	9867.1	
444.83	10552	
445.04	8077.2	
445.24	8955.8	
445.44	9980.4	
445.64	10156	
445.84	8376.2	
446.04	8551	
446.24	9453.4	
446.44	10121	
446.65	7675.1	
446.85	8196.7	
447.05	9492.3	
447.25	9962	
447.45	8142.7	
447.65	7655.3	
447.85	9624.8	
448.05	9170.1	
448.25	8466.3	
448.46	8278.6	
448.66	9677.3	
448.86	9359.9	
449.06	7660.1	
449.26	8389.8	
449.46	9956.5	
449.66	9265	
449.86	8322.3	
450.06	8202.1	
450.26	9505.3	
450.47	10039	
450.67	8219.9	
450.87	8651.3	
451.07	10114	
451.27	9837.8	
451.47	7912.7	
451.67	8684.1	
451.87	9775	
452.07	10379	
452.27	8373.5	
452.47	8196	
452.67	9888.3	
452.88	10208	
453.08	7582.3	
453.28	9197.4	
453.48	10966	
453.68	9796.1	
453.88	8257.4	
454.08	8248.5	
454.28	10272	
454.48	9938.1	
454.68	8674.5	
454.88	8983.8	
455.08	10342	
455.28	10311	
455.48	8019.8	
455.68	8769.4	
455.89	10935	
456.09	10628	
456.29	8541.4	
456.49	8875.2	
456.69	10945	
456.89	10284	
457.09	9209	
457.29	9551.7	
457.49	10659	
457.69	10924	
457.89	9321.7	
458.09	8856.1	
458.29	10813	
458.49	11445	
458.69	9594.7	
458.89	9310.1	
459.09	11631	
459.29	11675	
459.49	9318.3	
459.69	10044	
459.9	11185	
460.1	11161	
460.3	9227.5	
460.5	9183.8	
460.7	11391	
460.9	11006	
461.1	9070.5	
461.3	9887.6	
461.5	11941	
461.7	11676	
461.9	9627.5	
462.1	9756.5	
462.3	11424	
462.5	11859	
462.7	9633.6	
462.9	9876.7	
463.1	12573	
463.3	12582	
463.5	10157	
463.7	11056	
463.9	12057	
464.1	12276	
464.3	10694	
464.5	10591	
464.7	12564	
464.9	12627	
465.1	11666	
465.3	11015	
465.5	12860	
465.7	12925	
465.9	11309	
466.1	10863	
466.3	13024	
466.5	12560	
466.7	12041	
466.9	11064	
467.1	12914	
467.3	13511	
467.5	12116	
467.7	11232	
467.9	13709	
468.1	14413	
468.3	11669	
468.5	12274	
468.7	13211	
468.9	12997	
469.1	11633	
469.3	12278	
469.5	14636	
469.7	13007	
469.9	11868	
470.1	11695	
470.3	13358	
470.5	13387	
470.7	12523	
470.9	11650	
471.1	13329	
471.3	13178	
471.5	11693	
471.69	12740	
471.89	13001	
472.09	12447	
472.29	12093	
472.49	11974	
472.69	12931	
472.89	13284	
473.09	11443	
473.29	11275	
473.49	12879	
473.69	12857	
473.89	12060	
474.09	11460	
474.29	13704	
474.49	13369	
474.69	12080	
474.89	11515	
475.09	12897	
475.29	12978	
475.49	11107	
475.69	11402	
475.88	13922	
476.08	13130	
476.28	11213	
476.48	11058	
476.68	13360	
476.88	13055	
477.08	11173	
477.28	11309	
477.48	12712	
477.68	13091	
477.88	10966	
478.08	11189	
478.28	13526	
478.48	12803	
478.67	11385	
478.87	10639	
479.07	13547	
479.27	12891	
479.47	11381	
479.67	11473	
479.87	13284	
480.07	13529	
480.27	10996	
480.47	12019	
480.67	12944	
480.87	13517	
481.06	11190	
481.26	11839	
481.46	13099	
481.66	12947	
481.86	11727	
482.06	12202	
482.26	12931	
482.46	13439	
482.66	11458	
482.86	11374	
483.05	13214	
483.25	12643	
483.45	13283	
483.65	11575	
483.85	12910	
484.05	13125	
484.25	11815	
484.45	12504	
484.65	13682	
484.84	13962	
485.04	11710	
485.24	11671	
485.44	14167	
485.64	12962	
485.84	11469	
486.04	12419	
486.24	13305	
486.44	13493	
486.63	11282	
486.83	12086	
487.03	13400	
487.23	13671	
487.43	11461	
487.63	13235	
487.83	13600	
488.02	14338	
488.22	12532	
488.42	13014	
488.62	14190	
488.82	13564	
489.02	12151	
489.22	12581	
489.41	14273	
489.61	14288	
489.81	12076	
490.01	12073	
490.21	14313	
490.41	14976	
490.61	12270	
490.8	12310	
491	14142	
491.2	13694	
491.4	12496	
491.6	12090	
491.8	13957	
491.99	13784	
492.19	11733	
492.39	11974	
492.59	14172	
492.79	14191	
492.99	12719	
493.18	12025	
493.38	14424	
493.58	15195	
493.78	12775	
493.98	12624	
494.18	14666	
494.37	14397	
494.57	13482	
494.77	13373	
494.97	15124	
495.17	15460	
495.37	13419	
495.56	13565	
495.76	15806	
495.96	15631	
496.16	14463	
496.36	13895	
496.55	15831	
496.75	15631	
496.95	14220	
497.15	14119	
497.35	15822	
497.54	15976	
497.74	13988	
497.94	15130	
498.14	16563	
498.34	16221	
498.53	13792	
498.73	14430	
498.93	15596	
499.13	16083	
499.33	14473	
499.52	14539	
499.72	16419	
499.92	16255	
500.12	14352	
500.32	14552	
500.51	16376	
500.71	16440	
500.91	15114	
501.11	14934	
501.31	16535	
501.5	16756	
501.7	15449	
501.9	14685	
502.1	16339	
502.29	16662	
502.49	15146	
502.69	15184	
502.89	16505	
503.09	16589	
503.28	14143	
503.48	14182	
503.68	15820	
503.88	15846	
504.07	14874	
504.27	14317	
504.47	16077	
504.67	15974	
504.86	14764	
505.06	14471	
505.26	15783	
505.46	16763	
505.65	14335	
505.85	14289	
506.05	15557	
506.25	15805	
506.44	13512	
506.64	14033	
506.84	15141	
507.04	15672	
507.23	13577	
507.43	13961	
507.63	16556	
507.83	15250	
508.02	14069	
508.22	13715	
508.42	16735	
508.62	15252	
508.81	13768	
509.01	14413	
509.21	14912	
509.4	15232	
509.6	14024	
509.8	13728	
510	15197	
510.19	16199	
510.39	13441	
510.59	13657	
510.79	15295	
510.98	16392	
511.18	13815	
511.38	14006	
511.57	15868	
511.77	15676	
511.97	14289	
512.17	13465	
512.36	15693	
512.56	15565	
512.76	13501	
512.95	13213	
513.15	15771	
513.35	14673	
513.55	14046	
513.74	13525	
513.94	15752	
514.14	15308	
514.33	14306	
514.53	14083	
514.73	15334	
514.92	15528	
515.12	13745	
515.32	13671	
515.51	15599	
515.71	15834	
515.91	14853	
516.11	13743	
516.3	16817	
516.5	15425	
516.7	14141	
516.89	14616	
517.09	15511	
517.29	15470	
517.48	14351	
517.68	14011	
517.88	15243	
518.07	15713	
518.27	14433	
518.47	13680	
518.66	16014	
518.86	15153	
519.06	13484	
519.25	13779	
519.45	15292	
519.65	16621	
519.84	14353	
520.04	14952	
520.24	16807	
520.43	15794	
520.63	14209	
520.83	13953	
521.02	15311	
521.22	15625	
521.42	14014	
521.61	14520	
521.81	15272	
522.01	15249	
522.2	14057	
522.4	13771	
522.6	15770	
522.79	14921	
522.99	13935	
523.18	13606	
523.38	15806	
523.58	15930	
523.77	15287	
523.97	13939	
524.17	17495	
524.36	16926	
524.56	15061	
524.76	14837	
524.95	16504	
525.15	16284	
525.34	15018	
525.54	15152	
525.74	17005	
525.93	16335	
526.13	16062	
526.33	15296	
526.52	17480	
526.72	17009	
526.91	16440	
527.11	15858	
527.31	17514	
527.5	17847	
527.7	15990	
527.89	15254	
528.09	17036	
528.29	17531	
528.48	16074	
528.68	15686	
528.87	17678	
529.07	17660	
529.27	16038	
529.46	15958	
529.66	17737	
529.85	17950	
530.05	15774	
530.25	16383	
530.44	18608	
530.64	17353	
530.83	15877	
531.03	16071	
531.23	17890	
531.42	17715	
531.62	16666	
531.81	15975	
532.01	18158	
532.21	18389	
532.4	16189	
532.6	16623	
532.79	18968	
532.99	18637	
533.18	16918	
533.38	17669	
533.58	18484	
533.77	18875	
533.97	17142	
534.16	17675	
534.36	19306	
534.55	18659	
534.75	17846	
534.95	17170	
535.14	19480	
535.34	18837	
535.53	17028	
535.73	18284	
535.92	19784	
536.12	18713	
536.31	16899	
536.51	17782	
536.71	18868	
536.9	18603	
537.1	16880	
537.29	17188	
537.49	19034	
537.68	18557	
537.88	17571	
538.07	16772	
538.27	18876	
538.46	19557	
538.66	16815	
538.86	17333	
539.05	18811	
539.25	19142	
539.44	17701	
539.64	17144	
539.83	18761	
540.03	19514	
540.22	17141	
540.42	16914	
540.61	18830	
540.81	18923	
541	17079	
541.2	17829	
541.39	18385	
541.59	18654	
541.78	17534	
541.98	16673	
542.18	17948	
542.37	18239	
542.57	16819	
542.76	17443	
542.96	17968	
543.15	18311	
543.35	16771	
543.54	16217	
543.74	18338	
543.93	18091	
544.13	16510	
544.32	17308	
544.52	18272	
544.71	17523	
544.91	15766	
545.1	16600	
545.3	17578	
545.49	18247	
545.69	15801	
545.88	16143	
546.08	18811	
546.27	18313	
546.47	16429	
546.66	15851	
546.86	18230	
547.05	18355	
547.24	16036	
547.44	16240	
547.63	17311	
547.83	18047	
548.02	16384	
548.22	16120	
548.41	17096	
548.61	18114	
548.8	15878	
549	15765	
549.19	17592	
549.39	17914	
549.58	15485	
549.78	15908	
549.97	17748	
550.17	17240	
550.36	16329	
550.55	17026	
550.75	17154	
550.94	17770	
551.14	15453	
551.33	15436	
551.53	16788	
551.72	17406	
551.92	15567	
552.11	15350	
552.31	17359	
552.5	17099	
552.69	16535	
552.89	15137	
553.08	17359	
553.28	17123	
553.47	15373	
553.67	16065	
553.86	17538	
554.06	16401	
554.25	14676	
554.44	15091	
554.64	18079	
554.83	17772	
555.03	15159	
555.22	15321	
555.42	17333	
555.61	16980	
555.8	15116	
556	15266	
556.19	16300	
556.39	17177	
556.58	15097	
556.78	15225	
556.97	16767	
557.16	16644	
557.36	15953	
557.55	14868	
557.75	16164	
557.94	17495	
558.13	14849	
558.33	14635	
558.52	17249	
558.72	16332	
558.91	14631	
559.1	14835	
559.3	16240	
559.49	15846	
559.69	14450	
559.88	14978	
560.07	16575	
560.27	16939	
560.46	15120	
560.66	15301	
560.85	16376	
561.04	15711	
561.24	14547	
561.43	14472	
561.63	15975	
561.82	16156	
562.01	15393	
562.21	14748	
562.4	16384	
562.59	17094	
562.79	14577	
562.98	14384	
563.18	16357	
563.37	17454	
563.56	15061	
563.76	14524	
563.95	16182	
564.14	15995	
564.34	14974	
564.53	14676	
564.73	16545	
564.92	16776	
565.11	15113	
565.31	14682	
565.5	16990	
565.69	16169	
565.89	14945	
566.08	15179	
566.27	16946	
566.47	17393	
566.66	15567	
566.85	14668	
567.05	16710	
567.24	16270	
567.44	14875	
567.63	15702	
567.82	16958	
568.02	16711	
568.21	14808	
568.4	15301	
568.6	16767	
568.79	16696	
568.98	14903	
569.18	15087	
569.37	16804	
569.56	18134	
569.76	15339	
569.95	15922	
570.14	17038	
570.34	16966	
570.53	15107	
570.72	15061	
570.91	17520	
571.11	16823	
571.3	15264	
571.49	15919	
571.69	16985	
571.88	16503	
572.07	15765	
572.27	15517	
572.46	16504	
572.65	17218	
572.85	15333	
573.04	15405	
573.23	17650	
573.43	17038	
573.62	15222	
573.81	15497	
574	17333	
574.2	17006	
574.39	15566	
574.58	15632	
574.78	17940	
574.97	17494	
575.16	15993	
575.36	16241	
575.55	17918	
575.74	17892	
575.93	15438	
576.13	16497	
576.32	17225	
576.51	17767	
576.71	15943	
576.9	16910	
577.09	18168	
577.28	17744	
577.48	16182	
577.67	15361	
577.86	17490	
578.05	17761	
578.25	16007	
578.44	15987	
578.63	17518	
578.83	18605	
579.02	15517	
579.21	16762	
579.4	17779	
579.6	17567	
579.79	16021	
579.98	17740	
580.17	18011	
580.37	18176	
580.56	15860	
580.75	16391	
580.94	18264	
581.14	18231	
581.33	16651	
581.52	15809	
581.71	17925	
581.91	18267	
582.1	15887	
582.29	16193	
582.48	17795	
582.68	17691	
582.87	16440	
583.06	16343	
583.25	17956	
583.45	17847	
583.64	16926	
583.83	17268	
584.02	17788	
584.21	18158	
584.41	16745	
584.6	16335	
584.79	17931	
584.98	18365	
585.18	16048	
585.37	15969	
585.56	17557	
585.75	18240	
585.94	15954	
586.14	16521	
586.33	18276	
586.52	17667	
586.71	16322	
586.91	16016	
587.1	17062	
587.29	17917	
587.48	15587	
587.67	15816	
587.87	17608	
588.06	17529	
588.25	16470	
588.44	15993	
588.63	17163	
588.83	17503	
589.02	15587	
589.21	15302	
589.4	16835	
589.59	16864	
589.78	14452	
589.98	14629	
590.17	15943	
590.36	16264	
590.55	13674	
590.74	13949	
590.94	16701	
591.13	15580	
591.32	13820	
591.51	13409	
591.7	15744	
591.89	15632	
592.09	13545	
592.28	13928	
592.47	15012	
592.66	16605	
592.85	13731	
593.05	13966	
593.24	15683	
593.43	16251	
593.62	13969	
593.81	14269	
594	15809	
594.19	15835	
594.39	13923	
594.58	13839	
594.77	15917	
594.96	16171	
595.15	13647	
595.34	14280	
595.54	15685	
595.73	15197	
595.92	13268	
596.11	14035	
596.3	15855	
596.49	15190	
596.68	13545	
596.88	13984	
597.07	15586	
597.26	14919	
597.45	13374	
597.64	14280	
597.83	15332	
598.02	15555	
598.22	13519	
598.41	13863	
598.6	15388	
598.79	14816	
598.98	13416	
599.17	14042	
599.36	15380	
599.55	16060	
599.74	14799	
599.94	14596	
600.13	15700	
600.32	14900	
600.51	13186	
600.7	13244	
600.89	16071	
601.08	16088	
601.27	13103	
601.47	13629	
601.66	15574	
601.85	15982	
602.04	13583	
602.23	13617	
602.42	14878	
602.61	15192	
602.8	13212	
602.99	13078	
603.18	14988	
603.37	15160	
603.57	13552	
603.76	14022	
603.95	15609	
604.14	15274	
604.33	13246	
604.52	13442	
604.71	15195	
604.9	14728	
605.09	13924	
605.28	13595	
605.47	15550	
605.66	15221	
605.86	13667	
606.05	13308	
606.24	15389	
606.43	14348	
606.62	13476	
606.81	13827	
607	15526	
607.19	14831	
607.38	12835	
607.57	13074	
607.76	14597	
607.95	14115	
608.14	13355	
608.33	13812	
608.52	14538	
608.72	15285	
608.91	12796	
609.1	12706	
609.29	14543	
609.48	14239	
609.67	13278	
609.86	12578	
610.05	14407	
610.24	14397	
610.43	12563	
610.62	12222	
610.81	15122	
611	15059	
611.19	12600	
611.38	13068	
611.57	14579	
611.76	15496	
611.95	12458	
612.14	12088	
612.33	14463	
612.52	14083	
612.71	12779	
612.9	12194	
613.09	13768	
613.28	15558	
613.47	12651	
613.66	13134	
613.85	14495	
614.04	13992	
614.24	12537	
614.43	12027	
614.62	14578	
614.81	14458	
615	12853	
615.19	13028	
615.38	14050	
615.57	14353	
615.76	13010	
615.95	13617	
616.14	14656	
616.33	14392	
616.52	13144	
616.71	13341	
616.9	14599	
617.09	14416	
617.28	12742	
617.47	13444	
617.66	14016	
617.85	13999	
618.04	13302	
618.22	12970	
618.41	14427	
618.6	15139	
618.79	13071	
618.98	12922	
619.17	15352	
619.36	14046	
619.55	13228	
619.74	13175	
619.93	14971	
620.12	14581	
620.31	13619	
620.5	13806	
620.69	15408	
620.88	15838	
621.07	14331	
621.26	13723	
621.45	15334	
621.64	15268	
621.83	13818	
622.02	13220	
622.21	15362	
622.4	15312	
622.59	14311	
622.78	14130	
622.97	14990	
623.16	15723	
623.35	13830	
623.54	13201	
623.72	15199	
623.91	15298	
624.1	14093	
624.29	13092	
624.48	16031	
624.67	15408	
624.86	14035	
625.05	13317	
625.24	16126	
625.43	15083	
625.62	15160	
625.81	13455	
626	15564	
626.19	15220	
626.38	14104	
626.56	13647	
626.75	15085	
626.94	15593	
627.13	14050	
627.32	13160	
627.51	15634	
627.7	16374	
627.89	13183	
628.08	14010	
628.27	14841	
628.46	14904	
628.65	13396	
628.83	13186	
629.02	15341	
629.21	14807	
629.4	13646	
629.59	13686	
629.78	14838	
629.97	15515	
630.16	13849	
630.35	13451	
630.54	15890	
630.72	15686	
630.91	13562	
631.1	13787	
631.29	15249	
631.48	15290	
631.67	13996	
631.86	13424	
632.05	15051	
632.24	14969	
632.42	13276	
632.61	13663	
632.8	14990	
632.99	14871	
633.18	13835	
633.37	13831	
633.56	15257	
633.75	15143	
633.93	13726	
634.12	13546	
634.31	15915	
634.5	15557	
634.69	13536	
634.88	13766	
635.07	15100	
635.25	15489	
635.44	14014	
635.63	14186	
635.82	14863	
636.01	14397	
636.2	13960	
636.39	13669	
636.57	15665	
636.76	15427	
636.95	13370	
637.14	14202	
637.33	15117	
637.52	15850	
637.7	13093	
637.89	13911	
638.08	15016	
638.27	15795	
638.46	13836	
638.65	13971	
638.83	15799	
639.02	14674	
639.21	13647	
639.4	13947	
639.59	14918	
639.78	14648	
639.96	12855	
640.15	13005	
640.34	14687	
640.53	14758	
640.72	12592	
640.91	12769	
641.09	14148	
641.28	15005	
641.47	12831	
641.66	13383	
641.85	14622	
642.03	14551	
642.22	13268	
642.41	12858	
642.6	14183	
642.79	13757	
642.97	12611	
643.16	12995	
643.35	14078	
643.54	13954	
643.73	12409	
643.91	13020	
644.1	13705	
644.29	14196	
644.48	12336	
644.67	12342	
644.85	13661	
645.04	13971	
645.23	11855	
645.42	12160	
645.6	13355	
645.79	14231	
645.98	11837	
646.17	11129	
646.36	12938	
646.54	13061	
646.73	12261	
646.92	11370	
647.11	12949	
647.29	13505	
647.48	11302	
647.67	11057	
647.86	13673	
648.05	13636	
648.23	11443	
648.42	12191	
648.61	13201	
648.8	13164	
648.98	11060	
649.17	11294	
649.36	12682	
649.55	12439	
649.73	11110	
649.92	11559	
650.11	12649	
650.3	12883	
650.48	11263	
650.67	11101	
650.86	13048	
651.05	12186	
651.23	11076	
651.42	10977	
651.61	12607	
651.79	12463	
651.98	11148	
652.17	10806	
652.36	12667	
652.54	12099	
652.73	10867	
652.92	10697	
653.11	12711	
653.29	12690	
653.48	10294	
653.67	10875	
653.85	12423	
654.04	13164	
654.23	10972	
654.42	10570	
654.6	11801	
654.79	12209	
654.98	9958.6	
655.16	10247	
655.35	11297	
655.54	11054	
655.73	9780.4	
655.91	9722.4	
656.1	11819	
656.29	10997	
656.47	9375.6	
656.66	10685	
656.85	11434	
657.03	11396	
657.22	10013	
657.41	10051	
657.59	11555	
657.78	11475	
657.97	9802.9	
658.16	10357	
658.34	12080	
658.53	12393	
658.72	11030	
658.9	11397	
659.09	11910	
659.28	11839	
659.46	10325	
659.65	10114	
659.84	11636	
660.02	12090	
660.21	10398	
660.4	10283	
660.58	12349	
660.77	11868	
660.96	10630	
661.14	9993.4	
661.33	12645	
661.52	12588	
661.7	9879.4	
661.89	12324	
662.08	11521	
662.26	11096	
662.45	9990.7	
662.64	10054	
662.82	12012	
663.01	11433	
663.2	9956.5	
663.38	10565	
663.57	11864	
663.75	11645	
663.94	10218	
664.13	10925	
664.31	11416	
664.5	11855	
664.69	10436	
664.87	10722	
665.06	11210	
665.25	11722	
665.43	10918	
665.62	10870	
665.8	11801	
665.99	11292	
666.18	10204	
666.36	10139	
666.55	11759	
666.74	11658	
666.92	9989.3	
667.11	10925	
667.29	11417	
667.48	11790	
667.67	10632	
667.85	9975	
668.04	11229	
668.22	11262	
668.41	10171	
668.6	10242	
668.78	11187	
668.97	11318	
669.15	10262	
669.34	9601.6	
669.53	11138	
669.71	11459	
669.9	9591.3	
670.08	10094	
670.27	11149	
670.46	11444	
670.64	10189	
670.83	10381	
671.01	10964	
671.2	11324	
671.38	9755.8	
671.57	9495.7	
671.76	11880	
671.94	12246	
672.13	9607.7	
672.31	10227	
672.5	11642	
672.69	11151	
672.87	9721	
673.06	9861	
673.24	11615	
673.43	11145	
673.61	10106	
673.8	9892.4	
673.98	11526	
674.17	11540	
674.36	10290	
674.54	10150	
674.73	11284	
674.91	11553	
675.1	9976.3	
675.28	9613.2	
675.47	11221	
675.65	11606	
675.84	9871.2	
676.03	10091	
676.21	11083	
676.4	10639	
676.58	10385	
676.77	10086	
676.95	12065	
677.14	10988	
677.32	9557.9	
677.51	9449.3	
677.69	11488	
677.88	10822	
678.06	9510.1	
678.25	9555.1	
678.44	11125	
678.62	10950	
678.81	9367.4	
678.99	9952.4	
679.18	11762	
679.36	11381	
679.55	9720.3	
679.73	10162	
679.92	11359	
680.1	11027	
680.29	10618	
680.47	9691	
680.66	10869	
680.84	11509	
681.03	9320.3	
681.21	10060	
681.4	10948	
681.58	10862	
681.77	9510.8	
681.95	9456.2	
682.14	11493	
682.32	11758	
682.51	10073	
682.69	9189.9	
682.88	10755	
683.06	11017	
683.25	9901.2	
683.43	10146	
683.62	11131	
683.8	11335	
683.99	10191	
684.17	9700.5	
684.36	11723	
684.54	10705	
684.73	8977.6	
684.91	8994.7	
685.1	10614	
685.28	10116	
685.46	9063.6	
685.65	8973.5	
685.83	10442	
686.02	10014	
686.2	8535.9	
686.39	8618.5	
686.57	9948.3	
686.76	10996	
686.94	8560.5	
687.13	8830.2	
687.31	10477	
687.5	10277	
687.68	8340	
687.86	9207	
688.05	11536	
688.23	9935.4	
688.42	9411.8	
688.6	8901.2	
688.79	10255	
688.97	10185	
689.16	9204.3	
689.34	8395.3	
689.52	10969	
689.71	11153	
689.89	9499.8	
690.08	9080	
690.26	10631	
690.45	10602	
690.63	9540.1	
690.81	9214.5	
691	10553	
691.18	10500	
691.37	9198.8	
691.55	10585	
691.74	10154	
691.92	11670	
692.1	9108	
692.29	8703.9	
692.47	10414	
692.66	9885.5	
692.84	8793.3	
693.02	9142.1	
693.21	10071	
693.39	10428	
693.58	9426.1	
693.76	9025.4	
693.94	11210	
694.13	11142	
694.31	9125.1	
694.5	9811.1	
694.68	10368	
694.86	10783	
695.05	9547.6	
695.23	9559.2	
695.42	11112	
695.6	12692	
695.78	10032	
695.97	9293	
696.15	11310	
696.34	10682	
696.52	9185.8	
696.7	9767.4	
696.89	10934	
697.07	10482	
697.25	9626.8	
697.44	10576	
697.62	10876	
697.81	10976	
697.99	9302.6	
698.17	9689.6	
698.36	10391	
698.54	10766	
698.72	9548.3	
698.91	8796	
699.09	10488	
699.28	10370	
699.46	9226.8	
699.64	9122.3	
699.83	10255	
700.01	10999	
700.19	9719.7	
700.38	8624	
700.56	11166	
700.74	10313	
700.93	8996	
701.11	9491	
701.29	10773	
701.48	11651	
701.66	9116.9	
701.84	9250	
702.03	10647	
702.21	11160	
702.39	8817.2	
702.58	9386.5	
702.76	10959	
702.94	10910	
703.13	8877.9	
703.31	10657	
703.49	10386	
703.68	11133	
703.86	9028.8	
704.04	9787.2	
704.23	10740	
704.41	11060	
704.59	9101.2	
704.78	9861	
704.96	11906	
705.14	10959	
705.33	9041.1	
705.51	9524.4	
705.69	10634	
705.87	11172	
706.06	9699.2	
706.24	8922.3	
706.42	10763	
706.61	11125	
706.79	9750.4	
706.97	8860.2	
707.16	10365	
707.34	10820	
707.52	9609.1	
707.7	9096.4	
707.89	10427	
708.07	10232	
708.25	9597.5	
708.44	10025	
708.62	10394	
708.8	11210	
708.98	9826.2	
709.17	9069.1	
709.35	10624	
709.53	10469	
709.72	8858.8	
709.9	8814.5	
710.08	10893	
710.26	10760	
710.45	9918.3	
710.63	9022.7	
710.81	10455	
710.99	10432	
711.18	9332.6	
711.36	8897.7	
711.54	10362	
711.72	10686	
711.91	8965.3	
712.09	8527.7	
712.27	10269	
712.45	10655	
712.64	8903.9	
712.82	8226.7	
713	9754.5	
713.18	9747	
713.37	8178.2	
713.55	8914.1	
713.73	10261	
713.91	9036.3	
714.1	8053.3	
714.28	7523.6	
714.46	9446.6	
714.64	8761.2	
714.83	6857.3	
715.01	7193.8	
715.19	8519.5	
715.37	7798	
715.55	6842.9	
715.74	6873.7	
715.92	8807.6	
716.1	7390.4	
716.28	7598	
716.47	6889.4	
716.65	7887.4	
716.83	7802.1	
717.01	6746.7	
717.19	6710.5	
717.38	9293.7	
717.56	7662.8	
717.74	6876.4	
717.92	6313.2	
718.1	8576.9	
718.29	8054.7	
718.47	6274.3	
718.65	6747.4	
718.83	8733.9	
719.01	8770.1	
719.2	6498.9	
719.38	7366.5	
719.56	8665	
719.74	9837.8	
719.92	7032	
720.11	7659.4	
720.29	8729.8	
720.47	8080.6	
720.65	6554.9	
720.83	7114	
721.02	8115.4	
721.2	7747.5	
721.38	6901	
721.56	6314.6	
721.74	7346.7	
721.92	7347.4	
722.11	7144	
722.29	6918	
722.47	8239	
722.65	7661.5	
722.83	6247.7	
723.01	6863.4	
723.2	7708.6	
723.38	7916.8	
723.56	5792.3	
723.74	6664.8	
723.92	7279.8	
724.1	8096.3	
724.29	6096.1	
724.47	6927.6	
724.65	7447.8	
724.83	7319.4	
725.01	5967.1	
725.19	6611.5	
725.37	7224.6	
725.56	7363.8	
725.74	5961.6	
725.92	6092	
726.1	7272.3	
726.28	7464.2	
726.46	6275.7	
726.64	6017.6	
726.83	7524.2	
727.01	7513.3	
727.19	5898.2	
727.37	6399.9	
727.55	7569.3	
727.73	7887.4	
727.91	5827.8	
728.09	5695.4	
728.28	7981.6	
728.46	8011	
728.64	6460	
728.82	6404	
729	8604.2	
729.18	8250.6	
729.36	5980.8	
729.54	7523.6	
729.72	9006.3	
729.91	7763.2	
730.09	7440.3	
730.27	6637.5	
730.45	7864.2	
730.63	8208.9	
730.81	6944.7	
730.99	6333.7	
731.17	8701.8	
731.35	7572	
731.53	6701	
731.71	6503	
731.9	8405.5	
732.08	8423.3	
732.26	6530.3	
732.44	6339.8	
732.62	8458.1	
732.8	8096.3	
732.98	6720.1	
733.16	6099.5	
733.34	8112.7	
733.52	7060.7	
733.7	6368.5	
733.88	6528.9	
734.07	7845.1	
734.25	7742.7	
734.43	6053.1	
734.61	7005.4	
734.79	8795.3	
734.97	7708.6	
735.15	6106.4	
735.33	6294.1	
735.51	7852.6	
735.69	7606.8	
735.87	7022.5	
736.05	6450.4	
736.23	7724.3	
736.41	7473	
736.59	6250.4	
736.77	6284.5	
736.95	8038.3	
737.13	7598.6	
737.32	6085.2	
737.5	6148	
737.68	8327	
737.86	7430	
738.04	5845.6	
738.22	7123.5	
738.4	7343.3	
738.58	7522.9	
738.76	6216.3	
738.94	5522	
739.12	7367.2	
739.3	7292.1	
739.48	6690.7	
739.66	6416.3	
739.84	7464.2	
740.02	7570.7	
740.2	5571.2	
740.38	5832.6	
740.56	7740	
740.74	6909.2	
740.92	6236.1	
741.1	6053.1	
741.28	7195.9	
741.46	7037.5	
741.64	5887.2	
741.82	6257.2	
742	7318.8	
742.18	7240.9	
742.36	5951.4	
742.54	5646.2	
742.72	7634.8	
742.9	6700.3	
743.08	6115.9	
743.26	5282.4	
743.44	7650.5	
743.62	7480.5	
743.8	6184.2	
743.98	5531.6	
744.16	7289.4	
744.34	6995.2	
744.52	6046.3	
744.7	6023.1	
744.88	7406.1	
745.06	7083.9	
745.24	6027.2	
745.42	6050.4	
745.6	7425.3	
745.78	7193.8	
745.96	5254.4	
746.14	5369.1	
746.32	7793.9	
746.5	7238.2	
746.68	5676.3	
746.86	5296	
747.03	7537.9	
747.21	6341.2	
747.39	5666.7	
747.57	5273.5	
747.75	6916.7	
747.93	7120.8	
748.11	5268.1	
748.29	5273.5	
748.47	8057.4	
748.65	6721.4	
748.83	5769.8	
749.01	5543.9	
749.19	7007.5	
749.37	6397.2	
749.55	5473.5	
749.73	5480.4	
749.91	6821.8	
750.09	6614.3	
750.26	5455.1	
750.44	5083.7	
750.62	6778.8	
750.8	6677.1	
750.98	4909	
751.16	5130.8	
751.34	6845	
751.52	6337.8	
751.7	5702.9	
751.88	4947.2	
752.06	7124.2	
752.24	6882.5	
752.42	4850.3	
752.59	5146.5	
752.77	6601.3	
752.95	7507.2	
753.13	5664	
753.31	5176.6	
753.49	6406	
753.67	6695.5	
753.85	5354.8	
754.03	5040.1	
754.21	6816.3	
754.38	6982.2	
754.56	4964.3	
754.74	4370.4	
754.92	6150.7	
755.1	6526.2	
755.28	4203.8	
755.46	4149.9	
755.64	6873	
755.82	6865.5	
755.99	4076.1	
756.17	4034.5	
756.35	4859.1	
756.53	5853.8	
756.71	3138.9	
756.89	3742.3	
757.07	5540.4	
757.25	4926	
757.42	4159.4	
757.6	4831.8	
757.78	5690.6	
757.96	5112.4	
758.14	4107.5	
758.32	3842	
758.5	4717.8	
758.67	5358.9	
758.85	3952.6	
759.03	3988.1	
759.21	5429.2	
759.39	5040.1	
759.57	3661.8	
759.75	4482.3	
759.92	5982.1	
760.1	5560.9	
760.28	4723.3	
760.46	4941.7	
760.64	5367	
760.82	5209.3	
760.99	4795	
761.17	4199	
761.35	6021.7	
761.53	5273.5	
761.71	4339.6	
761.89	4761.5	
762.06	5904.3	
762.24	5611.4	
762.42	4379.9	
762.6	4289.8	
762.78	5610.1	
762.96	6098.2	
763.13	4711.7	
763.31	4542.4	
763.49	6219	
763.67	5655.1	
763.85	5111	
764.02	5504.3	
764.2	6474.3	
764.38	5782.1	
764.56	4362.9	
764.74	4942.4	
764.91	6410.1	
765.09	5687.9	
765.27	4253.6	
765.45	4059.1	
765.63	6561.7	
765.8	6370.5	
765.98	3882.3	
766.16	4022.9	
766.34	5373.2	
766.52	5178.6	
766.69	4671.4	
766.87	3989.4	
767.05	5627.1	
767.23	6163	
767.41	4145.8	
767.58	4270.7	
767.76	5949.3	
767.94	6092.7	
768.12	4145.1	
768.29	4614.8	
768.47	5569.1	
768.65	6095.4	
768.83	3774.4	
769	4614.1	
769.18	5279	
769.36	5769.8	
769.54	4619.5	
769.72	3824.2	
769.89	5991.7	
770.07	5974.6	
770.25	4119.1	
770.43	4983.4	
770.6	6492.1	
770.78	6718	
770.96	4143.7	
771.14	4094.6	
771.31	5916.6	
771.49	5395	
771.67	3581.9	
771.85	3734.8	
772.02	4807.9	
772.2	5272.2	
772.38	4259.8	
772.55	3809.2	
772.73	5537	
772.91	5343.2	
773.09	4119.8	
773.26	4169.7	
773.44	5421.7	
773.62	5292.6	
773.8	3781.2	
773.97	3567.6	
774.15	5483.1	
774.33	5218.2	
774.5	3676.8	
774.68	3855.6	
774.86	5576.6	
775.04	5254.4	
775.21	3692.5	
775.39	3607.2	
775.57	5341.1	
775.74	5556.1	
775.92	3528.7	
776.1	3401.7	
776.27	5303.6	
776.45	6220.4	
776.63	3610.6	
776.81	3379.8	
776.98	5059.2	
777.16	5859.2	
777.34	3728	
777.51	3865.2	
777.69	5083.7	
777.87	4860.5	
778.04	3754.6	
778.22	4067.9	
778.4	4888.5	
778.57	5386.2	
778.75	3239.2	
778.93	3389.4	
779.1	4713.7	
779.28	4637.3	
779.46	3200.3	
779.64	3469.9	
779.81	5453.7	
779.99	5986.9	
780.17	4070	
780.34	4114.4	
780.52	5096.7	
780.69	5169.1	
780.87	3768.9	
781.05	3431.7	
781.22	5096	
781.4	5103.5	
781.58	3491.1	
781.75	2863.7	
781.93	5109	
782.11	4644.1	
782.28	4129.4	
782.46	3508.9	
782.64	4560.8	
782.81	5156.8	
782.99	3517	
783.17	3532.1	
783.34	5031.2	
783.52	4690.5	
783.69	3613.3	
783.87	4231.8	
784.05	4741.7	
784.22	4584.7	
784.4	4163.5	
784.58	3633.1	
784.75	5343.2	
784.93	4698.7	
785.1	3388	
785.28	3839.9	
785.46	5040.7	
785.63	4537.6	
785.81	3404.4	
785.99	3237.2	
786.16	4777.2	
786.34	4974.5	
786.51	3284.9	
786.69	3590.1	
786.87	4369	
787.04	4749.2	
787.22	3249.4	
787.39	3829	
787.57	4614.1	
787.75	5330.9	
787.92	4031.8	
788.1	3884.3	
788.27	4515.1	
788.45	4337.6	
788.63	3760.1	
788.8	2820.1	
788.98	4960.2	
789.15	4265.9	
789.33	3008.5	
789.5	3366.9	
789.68	5171.8	
789.86	5232.6	
790.03	3636.5	
790.21	3268.6	
790.38	5201.8	
790.56	4624.3	
790.73	3198.2	
790.91	3159.3	
791.09	4568.3	
791.26	4975.9	
791.44	3431	
791.61	2997.5	
791.79	4510.3	
791.96	4506.2	
792.14	3110.9	
792.32	2747.7	
792.49	4483.7	
792.67	4612.7	
792.84	3126.6	
793.02	2889.7	
793.19	4823	
793.37	5284.4	
793.54	2775.7	
793.72	2984.6	
793.89	5395	
794.07	4440.7	
794.25	3349.1	
794.42	2775	
794.6	5243.5	
794.77	4968.4	
794.95	3590.8	
795.12	3177.8	
795.3	4508.3	
795.47	4884.4	
795.65	3436.5	
795.82	3327.3	
796	4388.1	
796.17	5657.2	
796.35	3264.5	
796.52	3781.9	
796.7	4926.7	
796.87	4955.4	
797.05	3226.9	
797.22	3758	
797.4	4912.4	
797.57	5559.6	
797.75	3315.7	
797.92	3173	
798.1	5150	
798.27	4330.1	
798.45	2883.5	
798.62	2983.2	
798.8	4704.2	
798.97	5031.2	
799.15	3497.2	
799.32	3304.7	
799.5	4211.3	
799.67	4685.1	
799.85	3530	
800.02	2794.1	
800.2	4446.1	
800.37	4616.8	
800.55	3728.7	
800.72	3223.5	
800.9	4997.7	
801.07	5224.4	
801.25	4087.1	
801.42	3409.9	
801.6	5070.1	
801.77	4691.2	
801.95	3212.6	
802.12	3046	
802.29	4841.4	
802.47	4721.9	
802.64	3469.9	
802.82	2710.8	
802.99	4437.9	
803.17	5070.8	
803.34	3381.2	
803.52	2996.9	
803.69	5550.7	
803.87	4249.5	
804.04	3346.4	
804.21	3362.8	
804.39	5218.9	
804.56	4538.3	
804.74	2867.2	
804.91	3389.4	
805.09	4404.5	
805.26	4488.5	
805.44	3013.2	
805.61	3147.7	
805.78	4943.1	
805.96	4842.1	
806.13	3382.6	
806.31	3588	
806.48	4125.3	
806.66	4485.7	
806.83	3373	
807	3301.3	
807.18	4437.9	
807.35	4647.5	
807.53	3117.7	
807.7	2797.5	
807.87	5221.6	
808.05	4360.1	
808.22	3605.8	
808.4	2783.2	
808.57	4349.2	
808.74	4147.1	
808.92	3076	
809.09	3728	
809.27	4405.2	
809.44	4764.9	
809.61	2719.7	
809.79	2977.1	
809.96	5302.9	
810.14	4869.4	
810.31	2721.8	
810.48	3222.8	
810.66	4483	
810.83	4911	
811.01	3085.6	
811.18	3322.5	
811.35	4943.1	
811.53	3984	
811.7	3655.6	
811.87	3362.1	
812.05	4498	
812.22	4383.3	
812.39	2980.5	
812.57	2899.9	
812.74	4503.5	
812.92	5606.7	
813.09	3239.9	
813.26	3398.3	
813.44	5430.5	
813.61	4308.9	
813.78	2753.2	
813.96	3513.6	
814.13	4457.1	
814.3	4203.8	
814.48	3756.7	
814.65	3173	
814.82	5218.9	
815	4173.8	
815.17	3232.4	
815.34	3875.4	
815.52	4377.2	
815.69	4343.7	
815.87	3216.7	
816.04	3186	
816.21	4392.2	
816.38	3988.1	
816.56	3180.5	
816.73	2947	
816.9	5386.2	
817.08	4930.8	
817.25	3007.1	
817.42	3564.1	
817.6	4102.1	
817.77	4371	
817.94	3284.9	
818.12	2931.3	
818.29	4218.1	
818.46	6030.6	
818.64	3098.6	
818.81	2874.7	
818.98	4227	
819.16	5655.8	
819.33	3447.4	
819.5	3286.3	
819.67	4701.5	
819.85	5120.6	
820.02	3235.1	
820.19	3371.6	
820.37	4542.4	
820.54	4339	
820.71	3291.1	
820.88	3972.4	
821.06	4504.2	
821.23	4225	
821.4	3351.8	
821.58	3263.8	
821.75	4877.6	
821.92	4496.7	
822.09	2726.5	
822.27	2967.5	
822.44	4377.2	
822.61	4382	
822.79	2800.9	
822.96	4876.2	
823.13	4587.4	
823.3	4141.7	
823.48	3105.4	
823.65	2846	
823.82	4969.1	
823.99	4111	
824.17	3873.4	
824.34	2891	
824.51	5573.2	
824.68	4437.3	
824.86	3027.6	
825.03	3279.5	
825.2	4392.9	
825.37	5158.2	
825.55	2987.3	
825.72	3225.6	
825.89	5507.7	
826.06	5156.1	
826.24	3096.5	
826.41	3195.5	
826.58	5239.4	
826.75	4615.4	
826.92	2637.8	
827.1	2821.4	
827.27	6729.6	
827.44	5493.3	
827.61	3048.1	
827.79	3554.6	
827.96	4278.2	
828.13	4408.6	
828.3	3154.6	
828.47	2741.5	
828.65	4646.2	
828.82	4564.9	
828.99	3892.5	
829.16	3437.2	
829.34	4959.5	
829.51	4737	
829.68	3252.2	
829.85	3264.5	
830.02	5160.9	
830.2	4954	
830.37	2592.7	
830.54	3803.8	
830.71	5431.9	
830.88	4474.8	
831.05	2578.4	
831.23	2870.6	
831.4	5315.8	
831.57	5689.3	
831.74	3018	
831.91	2660.3	
832.09	4741	
832.26	4878.3	
832.43	3052.8	
832.6	3403	
832.77	4700.1	
832.94	5180.7	
833.12	2568.8	
833.29	3066.5	
833.46	4408.6	
833.63	5917.9	
833.8	3358	
833.97	3081.5	
834.15	4928.1	
834.32	4741	
834.49	3263.8	
834.66	3266.5	
834.83	4984.8	
835	4302.8	
835.17	3028.3	
835.35	3020.1	
835.52	4884.4	
835.69	4725.3	
835.86	3184.6	
836.03	2625.5	
836.2	4888.5	
836.37	4641.4	
836.55	3022.1	
836.72	2970.2	
836.89	4646.2	
837.06	4933.6	
837.23	3175.7	
837.4	3342.3	
837.57	5444.9	
837.75	5903.6	
837.92	2855.6	
838.09	3039.9	
838.26	4542.4	
838.43	5072.1	
838.6	3248.8	
838.77	2933.4	
838.94	5586.9	
839.11	5477	
839.29	3056.9	
839.46	2473.9	
839.63	4917.9	
839.8	4671.4	
839.97	3023.5	
840.14	2994.1	
840.31	4784.1	
840.48	4911.7	
840.65	2559.3	
840.82	2953.2	
841	4887.1	
841.17	4765.6	
841.34	2749.1	
841.51	2852.1	
841.68	4874.8	
841.85	4648.9	
842.02	2906.1	
842.19	2472.6	
842.36	4771.8	
842.53	4743.8	
842.7	2761.3	
842.87	3269.9	
843.05	5895.4	
843.22	4646.8	
843.39	2660.3	
843.56	2874	
843.73	4553.3	
843.9	4962.9	
844.07	4296.6	
844.24	3574.4	
844.41	6604	
844.58	4367.6	
844.75	2760	
844.92	2917	
845.09	4851.6	
845.26	4830.5	
845.43	2840.5	
845.6	2934.7	
845.77	4921.3	
845.94	4681.7	
846.12	3094.5	
846.29	3170.9	
846.46	5032.5	
846.63	4822.3	
846.8	2791.4	
846.97	3190.7	
847.14	5184.8	
847.31	4849.6	
847.48	3115.6	
847.65	3354.6	
847.82	5048.2	
847.99	4973.2	
848.16	3577.8	
848.33	3379.1	
848.5	4487.8	
848.67	5179.3	
848.84	2772.3	
849.01	2846.7	
849.18	4481.6	
849.35	4254.3	
849.52	3390.8	
849.69	2715.6	
849.86	5067.4	
850.03	5078.3	
850.2	2766.1	
850.37	3319.8	
850.54	5092.6	
850.71	4646.2	
850.88	3241.9	
851.05	2729.3	
851.22	4700.1	
851.39	5259.9	
851.56	2626.2	
851.73	3182.5	
851.9	4369.7	
852.07	5044.8	
852.24	3095.8	
852.41	2740.2	
852.58	4800.4	
852.75	4429.8	
852.92	3046.7	
853.09	2696.5	
853.26	4532.2	
853.43	5160.2	
853.6	2790	
853.77	2425.5	
853.94	5201.8	
854.11	4310.3	
854.28	3883.6	
854.44	2966.1	
854.61	5508.4	
854.78	5050.3	
854.95	2738.8	
855.12	3376.4	
855.29	4013.3	
855.46	5281.7	
855.63	2762	
855.8	3670.6	
855.97	4480.3	
856.14	5091.9	
856.31	3738.2	
856.48	2971.6	
856.65	4584	
856.82	4314.4	
856.99	2680.1	
857.16	2984.6	
857.33	5687.9	
857.49	4586.1	
857.66	2945.7	
857.83	3113.6	
858	4577.2	
858.17	4820.9	
858.34	2633.7	
858.51	2784.6	
858.68	5298.8	
858.85	5257.1	
859.02	3170.9	
859.19	3332.7	
859.36	4353.3	
859.52	4361.5	
859.69	2775.7	
859.86	3163.4	
860.03	4414.1	
860.2	5205.3	
860.37	2606.4	
860.54	2799.6	
860.71	5016.2	
860.88	5300.8	
861.05	3037.8	
861.21	3375.7	
861.38	5292.6	
861.55	4205.2	
861.72	2512.9	
861.89	3044	
862.06	5049.6	
862.23	5344.5	
862.4	2725.2	
862.56	2796.2	
862.73	4928.8	
862.9	4645.5	
863.07	3171.6	
863.24	2555.9	
863.41	4372.4	
863.58	4355.3	
863.75	2793.4	
863.91	3168.2	
864.08	5177.3	
864.25	4936.3	
864.42	3343.7	
864.59	3780.6	
864.76	5487.2	
864.93	4319.8	
865.09	2686.9	
865.26	2942.9	
865.43	5217.5	
865.6	5431.9	
865.77	2465.1	
865.94	2783.9	
866.1	5156.1	
866.27	4950.6	
866.44	3986.7	
866.61	2683.5	
866.78	4621.6	
866.95	4927.4	
867.11	2719	
867.28	2484.9	
867.45	5138.4	
867.62	4379.2	
867.79	3054.2	
867.96	2785.9	
868.12	4316.4	
868.29	5005.9	
868.46	2759.3	
868.63	3595.6	
868.8	5040.1	
868.97	4948.6	
869.13	2841.2	
869.3	2839.8	
869.47	4821.6	
869.64	5046.2	
869.81	2787.3	
869.97	2771.6	
870.14	4784.1	
870.31	5287.2	
870.48	2699.2	
870.65	3364.1	
870.81	4576.5	
870.98	4604.5	
871.15	3041.2	
871.32	2820.1	
871.48	4931.5	
871.65	5344.5	
871.82	2727.9	
871.99	3019.4	
872.16	5584.1	
872.32	5087.8	
872.49	2826.2	
872.66	2785.2	
872.83	4997	
872.99	4465.9	
873.16	3115	
873.33	2710.8	
873.5	4729.4	
873.67	4715.8	
873.83	2895.1	
874	3528.7	
874.17	4846.9	
874.34	5456.5	
874.5	3452.9	
874.67	3293.8	
874.84	5215.5	
875.01	4224.3	
875.17	3706.8	
875.34	2737.5	
875.51	4785.4	
875.68	5683.1	
875.84	3251.5	
876.01	3837.2	
876.18	4949.3	
876.34	4983.4	
876.51	2738.8	
876.68	2714.2	
876.85	4552.6	
877.01	5220.3	
877.18	3794.9	
877.35	2760	
877.52	4792.9	
877.68	4331.5	
877.85	2704.7	
878.02	2691	
878.18	4585.4	
878.35	4448.2	
878.52	2263	
878.69	2995.5	
878.85	5043.5	
879.02	4903.5	
879.19	3799	
879.35	2916.3	
879.52	5027.8	
879.69	5020.9	
879.86	2467.8	
880.02	3058.3	
880.19	4635.9	
880.36	5559.6	
880.52	3104	
880.69	3238.5	
880.86	5031.9	
881.02	4984.8	
881.19	3044	
881.36	2921.8	
881.52	4896.7	
881.69	4410.6	
881.86	2897.9	
882.02	2910.2	
882.19	5140.4	
882.36	5810.8	
882.52	2841.2	
882.69	3676.8	
882.86	4783.4	
883.02	4732.9	
883.19	3274.7	
883.36	3074	
883.52	5032.5	
883.69	5640.1	
883.86	2812.5	
884.02	2554.5	
884.19	4947.2	
884.36	4688.5	
884.52	3072	
884.69	2940.2	
884.86	4521.9	
885.02	5350	
885.19	3050.8	
885.36	3091.8	
885.52	4672.8	
885.69	4842.1	
885.86	3800.3	
886.02	3413.3	
886.19	5052.3	
886.35	4607.2	
886.52	3073.3	
886.69	3678.2	
886.85	4314.4	
887.02	5188.2	
887.19	5188.2	
887.35	5188.2	
887.52	5188.2	
887.68	5188.2	
887.85	5188.2	
888.02	5188.2	
888.18	5188.2	
888.35	5188.2	
888.51	5188.2	
888.68	5188.2	
888.85	5188.2	
889.01	5188.2	
889.18	5188.2	
889.35	5188.2	
889.51	5188.2	
889.68	5188.2	
889.84	5188.2	
890.01	5188.2	
890.17	5188.2	
890.34	5188.2	
890.51	5188.2	
890.67	5188.2	
890.84	5188.2	
891	5188.2	
891.17	5188.2	
891.34	5188.2	
891.5	5188.2	
891.67	5188.2	
891.83	5188.2	
892	5188.2	
892.16	5188.2	
892.33	5188.2	
892.5	5188.2	
892.66	5188.2	
892.83	5188.2	
892.99	5188.2	
893.16	5188.2	
893.32	5188.2	
893.49	5188.2	
893.65	5188.2	
893.82	5188.2	
893.99	5188.2	
894.15	5188.2	
894.32	5188.2	
894.48	5188.2	
894.65	5188.2	
894.81	5188.2	
894.98	5188.2	
895.14	5188.2	
895.31	5188.2	
895.47	5188.2	
895.64	5188.2	
895.81	5188.2	
895.97	5188.2	
896.14	5188.2	
896.3	5188.2	
896.47	5188.2	
896.63	5188.2	
896.8	5188.2	
896.96	5188.2	
897.13	5188.2	
897.29	5188.2	
897.46	5188.2	
897.62	5188.2	
897.79	5188.2	
897.95	5188.2	
898.12	5188.2	
898.28	5188.2	
898.45	5188.2	
898.61	5188.2	
898.78	5188.2	
898.94	5188.2	
899.11	5188.2	
899.27	5188.2	
899.44	5188.2	
899.6	5188.2	
899.77	5188.2	
899.93	5188.2	
900.1	5188.2	
900.26	5188.2	
900.43	5188.2	
900.59	5188.2	
900.76	5188.2	
900.92	5188.2	
901.09	5188.2	
901.25	5188.2	
901.42	5188.2	
901.58	5188.2	
901.75	5188.2	
901.91	5188.2	
902.07	5188.2	
902.24	5188.2	
902.4	5188.2	
902.57	5188.2	
902.73	5188.2	
902.9	5188.2	
903.06	5188.2	
903.23	5188.2	
903.39	5188.2	
903.56	5188.2	
903.72	5188.2	
903.88	5188.2	
904.05	5188.2	
904.21	5188.2	
904.38	5188.2	
904.54	5188.2	
904.71	5188.2	
904.87	5188.2	
905.03	5188.2	
905.2	5188.2	
905.36	5188.2	
905.53	5188.2	
905.69	5188.2	
905.86	5188.2	
906.02	5188.2	
906.18	5188.2	
906.35	5188.2	
906.51	5188.2	
906.68	5188.2	
906.84	5188.2	
907.01	5188.2	
907.17	5188.2	
907.33	5188.2	
907.5	5188.2	
907.66	5188.2	
907.83	5188.2	
907.99	5188.2	
908.15	5188.2	
908.32	5188.2	
908.48	5188.2	
908.65	5188.2	
908.81	5188.2	
908.97	5188.2	
909.14	5188.2	
909.3	5188.2	
909.47	5188.2	
909.63	5188.2	
909.79	5188.2	
909.96	5188.2	
910.12	5188.2	
910.28	5188.2	
910.45	5188.2	
910.61	5188.2	
910.78	5188.2	
910.94	5188.2	
911.1	5188.2	
911.27	5188.2	
911.43	5188.2	
911.59	5188.2	
911.76	5188.2	
911.92	5188.2	
912.08	5188.2	
912.25	5188.2	
912.41	5188.2	
912.57	5188.2	
912.74	5188.2	
912.9	5188.2	
913.07	5188.2	
913.23	5188.2	
913.39	5188.2	
913.56	5188.2	
913.72	5188.2	
913.88	5188.2	
914.05	5188.2	
914.21	5188.2	
914.37	5188.2	
914.54	5188.2	
914.7	5188.2	
914.86	5188.2	
915.03	5188.2	
915.19	5188.2	
