Wavelength	Intensities	
nm	a.u.	
179.22	1859.2	
179.44	1858.9	
179.65	1859.6	
179.86	1858.2	
180.08	1883.4	
180.29	4546.5	
180.51	3366.9	
180.72	5412.1	
180.94	6246.3	
181.15	3085.6	
181.37	3039.9	
181.58	5263.3	
181.79	5488.6	
182.01	3211.9	
182.22	3377.1	
182.44	5528.8	
182.65	4660.5	
182.87	4261.8	
183.08	3725.9	
183.29	5799.8	
183.51	4813.4	
183.72	3448.8	
183.94	4969.1	
184.15	5163.6	
184.37	5262.6	
184.58	3032.4	
184.79	4108.2	
185.01	4790.9	
185.22	5537	
185.44	4319.8	
185.65	3738.9	
185.86	5104.2	
186.08	4672.1	
186.29	2985.3	
186.51	3183.9	
186.72	4834.6	
186.94	5692	
187.15	3667.2	
187.36	3713	
187.58	7205.4	
187.79	5302.9	
188.01	3898	
188.22	6016.2	
188.43	6266.1	
188.65	5470.8	
188.86	3220.8	
189.08	3763.5	
189.29	5018.2	
189.5	4983.4	
189.72	3527.3	
189.93	3581.9	
190.15	5651.7	
190.36	6771.9	
190.57	3834.5	
190.79	3706.8	
191	5732.9	
191.22	5740.5	
191.43	3846.8	
191.64	3185.3	
191.86	5937.7	
192.07	5694	
192.29	3335.5	
192.5	3479.5	
192.71	5714.5	
192.93	4956.1	
193.14	3496.6	
193.35	3578.5	
193.57	4978.6	
193.78	5687.9	
194	2811.2	
194.21	3460.4	
194.42	4794.3	
194.64	5223.7	
194.85	3729.4	
195.07	4382	
195.28	5180.7	
195.49	4524	
195.71	4652.3	
195.92	3290.4	
196.13	5415.5	
196.35	5466.7	
196.56	4939.7	
196.78	3805.1	
196.99	6618.4	
197.2	6334.4	
197.42	4285.7	
197.63	3835.2	
197.84	4677.6	
198.06	5380	
198.27	3517	
198.48	4629.1	
198.7	4941.7	
198.91	5107	
199.13	3784.6	
199.34	3846.8	
199.55	5603.2	
199.77	4538.3	
199.98	3364.1	
200.19	3866.6	
200.41	5098.1	
200.62	4830.5	
200.83	4006.5	
201.05	4258.4	
201.26	5162.9	
201.47	4845.5	
201.69	3380.5	
201.9	3264.5	
202.11	5144.5	
202.33	6051.7	
202.54	3618.8	
202.76	3984	
202.97	5244.2	
203.18	5292.6	
203.4	3956	
203.61	3918.4	
203.82	5229.8	
204.04	4915.1	
204.25	3839.9	
204.46	3758	
204.68	5180.7	
204.89	5390.3	
205.1	3754.6	
205.32	3202.3	
205.53	5547.9	
205.74	5696.8	
205.96	2807.1	
206.17	3885	
206.38	5535.7	
206.6	5663.3	
206.81	4382	
207.02	3531.4	
207.24	5436	
207.45	5807.4	
207.66	3617.4	
207.88	3110.2	
208.09	5324	
208.3	5200.5	
208.52	3359.4	
208.73	3755.3	
208.94	5139.7	
209.15	5844.9	
209.37	3661.1	
209.58	3816	
209.79	5700.2	
210.01	5105.6	
210.22	2901.3	
210.43	3046	
210.65	5184.1	
210.86	5538.4	
211.07	3692.5	
211.29	3340.9	
211.5	5483.8	
211.71	5154.1	
211.93	3336.1	
212.14	3350.5	
212.35	5197.7	
212.56	5330.9	
212.78	3828.3	
212.99	3171.6	
213.2	6037.4	
213.42	4958.1	
213.63	3468.6	
213.84	3652.2	
214.06	4617.5	
214.27	4742.4	
214.48	3617.4	
214.69	3885	
214.91	5808.7	
215.12	5883.8	
215.33	3943	
215.55	4253.6	
215.76	6283.9	
215.97	5520	
216.18	3760.1	
216.4	3673.4	
216.61	4894.6	
216.82	5649.7	
217.04	3380.5	
217.25	3515	
217.46	5764.3	
217.67	5514.5	
217.89	3035.8	
218.1	3085.6	
218.31	5225.1	
218.53	5404.6	
218.74	3567.6	
218.95	3417.4	
219.16	5158.2	
219.38	5999.2	
219.59	3411.2	
219.8	4078.9	
220.01	6548	
220.23	5265.3	
220.44	4455	
220.65	3332	
220.87	5255.8	
221.08	5737.7	
221.29	3085.6	
221.5	4143.7	
221.72	6927.6	
221.93	4886.5	
222.14	3884.3	
222.35	4510.3	
222.57	5217.5	
222.78	5534.3	
222.99	3608.5	
223.2	3998.3	
223.42	5502.9	
223.63	5602.6	
223.84	2839.8	
224.05	2805	
224.27	6508.4	
224.48	5983.5	
224.69	4519.9	
224.9	3822.2	
225.12	5334.3	
225.33	5178.6	
225.54	3059.7	
225.75	3475.4	
225.97	4803.9	
226.18	5096	
226.39	3687	
226.6	3442.6	
226.82	4973.8	
227.03	4816.1	
227.24	3829	
227.45	3177.1	
227.67	5554.8	
227.88	6016.9	
228.09	4227	
228.3	4225	
228.52	5532.9	
228.73	5117.9	
228.94	3511.6	
229.15	3138.2	
229.36	5077.6	
229.58	5051	
229.79	3547.8	
230	4138.9	
230.21	6123.4	
230.43	5220.3	
230.64	3781.9	
230.85	3906.2	
231.06	5621	
231.28	5616.9	
231.49	3127.9	
231.7	3710.9	
231.91	5512.4	
232.12	5210.7	
232.34	3263.8	
232.55	3713.7	
232.76	5772.5	
232.97	5371.8	
233.18	3362.1	
233.4	3757.3	
233.61	5336.3	
233.82	4968.4	
234.03	3553.9	
234.25	3433.1	
234.46	7073.7	
234.67	5235.3	
234.88	3878.2	
235.09	3392.1	
235.31	5477	
235.52	5059.8	
235.73	3785.3	
235.94	3244.7	
236.15	4935.6	
236.37	6244.9	
236.58	3338.9	
236.79	3710.2	
237	5510.4	
237.21	4795	
237.43	3936.9	
237.64	3030.3	
237.85	9176.9	
238.06	4836.6	
238.27	3997	
238.48	3175.7	
238.7	5545.9	
238.91	5053	
239.12	3614	
239.33	3674.1	
239.54	4999.8	
239.76	5098.8	
239.97	3616.7	
240.18	3651.5	
240.39	6356.2	
240.6	5393.7	
240.82	3798.3	
241.03	3163.4	
241.24	5212.1	
241.45	5973.9	
241.66	3340.9	
241.87	3914.4	
242.09	5847	
242.3	6184.9	
242.51	3973.1	
242.72	3644.7	
242.93	5587.5	
243.14	5154.1	
243.36	4188.8	
243.57	4554	
243.78	5909.1	
243.99	5508.4	
244.2	3670	
244.41	3333.4	
244.63	4749.2	
244.84	5444.2	
245.05	3882.9	
245.26	3676.8	
245.47	5491.3	
245.68	5710.4	
245.9	4853	
246.11	3819.5	
246.32	5047.6	
246.53	5417.6	
246.74	5842.2	
246.95	3086.3	
247.16	4753.3	
247.38	5195.7	
247.59	3115	
247.8	3659.7	
248.01	4922.6	
248.22	5109	
248.43	3329.3	
248.64	3575.1	
248.86	4616.1	
249.07	4969.7	
249.28	3282.2	
249.49	3734.8	
249.7	5727.5	
249.91	5773.2	
250.12	3125.2	
250.34	3099.3	
250.55	5324	
250.76	5188.9	
250.97	3792.8	
251.18	3829.7	
251.39	5815.5	
251.6	5384.1	
251.81	3835.8	
252.03	3814.7	
252.24	4921.3	
252.45	5672.9	
252.66	3211.2	
252.87	4025.6	
253.08	5205.9	
253.29	6733.7	
253.5	3206.4	
253.72	4457.7	
253.93	5029.1	
254.14	6162.3	
254.35	3500	
254.56	3575.1	
254.77	5366.4	
254.98	4780	
255.19	3452.2	
255.41	4430.4	
255.62	5297.4	
255.83	5769.1	
256.04	3940.3	
256.25	3811.3	
256.46	6282.5	
256.67	4882.4	
256.88	3826.3	
257.09	4164.9	
257.31	4840.7	
257.52	4922	
257.73	4719.9	
257.94	3459	
258.15	5048.2	
258.36	5146.5	
258.57	4349.2	
258.78	2821.4	
258.99	5582.8	
259.2	5025.7	
259.41	3489.7	
259.63	3570.3	
259.84	5896.1	
260.05	6432	
260.26	4612	
260.47	3419.4	
260.68	5732.3	
260.89	5137	
261.1	4187.4	
261.31	3345.7	
261.52	5720.7	
261.73	6116.6	
261.95	4560.8	
262.16	3915.7	
262.37	5898.1	
262.58	5995.1	
262.79	4459.1	
263	3592.8	
263.21	5301.5	
263.42	5126.1	
263.63	3584.6	
263.84	3518.4	
264.05	5776.6	
264.26	6104.3	
264.47	4340.3	
264.69	3915	
264.9	5892.7	
265.11	5378	
265.32	3390.1	
265.53	3451.5	
265.74	5320.6	
265.95	4631.1	
266.16	3688.4	
266.37	4137.6	
266.58	5283.8	
266.79	5011.4	
267	3449.5	
267.21	3257	
267.42	4780.6	
267.63	5180	
267.84	3654.3	
268.06	3174.4	
268.27	5624.4	
268.48	5794.4	
268.69	3543.7	
268.9	4189.5	
269.11	5827.8	
269.32	4691.9	
269.53	3667.9	
269.74	3412.6	
269.95	5508.4	
270.16	4620.9	
270.37	3681.6	
270.58	4220.9	
270.79	5029.8	
271	5653.8	
271.21	3879.5	
271.42	3672.7	
271.63	5339.7	
271.84	4829.8	
272.05	2973.7	
272.26	3295.9	
272.47	5248.3	
272.68	5384.8	
272.89	3511.6	
273.11	4059.1	
273.32	4986.1	
273.53	6056.5	
273.74	3994.2	
273.95	3811.3	
274.16	5748.6	
274.37	5266.7	
274.58	4072.7	
274.79	3190.7	
275	5345.9	
275.21	5776.6	
275.42	4795	
275.63	4146.5	
275.84	5452.4	
276.05	6798.6	
276.26	3825.6	
276.47	3604.4	
276.68	5008.6	
276.89	6086.6	
277.1	4146.5	
277.31	3236.5	
277.52	5438	
277.73	5654.4	
277.94	3136.1	
278.15	3526.6	
278.36	5364.3	
278.57	4894	
278.78	3477.5	
278.99	3919.8	
279.2	4868.7	
279.41	4813.4	
279.62	4631.1	
279.83	3235.1	
280.04	6313.2	
280.25	4771.1	
280.46	4541	
280.67	3670.6	
280.88	4869.4	
281.09	5795.1	
281.3	3771	
281.51	4868.7	
281.72	4934.9	
281.93	5657.2	
282.14	3426.3	
282.35	3715.7	
282.56	5660.6	
282.77	5590.3	
282.98	3566.9	
283.19	4312.3	
283.4	6829.3	
283.61	5177.9	
283.82	3288.4	
284.03	4562.9	
284.24	5304.2	
284.45	5840.8	
284.66	4491.9	
284.87	4380.6	
285.08	5732.3	
285.29	5916.6	
285.5	3112.2	
285.71	3562.1	
285.92	5801.9	
286.12	6386.2	
286.33	4493.2	
286.54	3564.8	
286.75	5664	
286.96	5079.6	
287.17	3284.3	
287.38	4403.8	
287.59	4878.3	
287.8	4807.9	
288.01	3616	
288.22	4113.7	
288.43	5692	
288.64	4751.3	
288.85	4236.6	
289.06	4035.9	
289.27	5610.1	
289.48	6047.7	
289.69	4556.7	
289.9	4125.3	
290.11	5825.8	
290.32	4952	
290.53	4287.8	
290.74	3968.3	
290.94	5573.9	
291.15	5665.4	
291.36	3508.9	
291.57	4115.7	
291.78	5018.2	
291.99	4613.4	
292.2	3315.7	
292.41	3962.1	
292.62	5725.4	
292.83	5549.3	
293.04	4829.8	
293.25	3373.7	
293.46	5059.8	
293.67	5715.9	
293.88	3450.8	
294.09	3291.8	
294.29	4811.4	
294.5	5385.5	
294.71	3684.3	
294.92	3552.5	
295.13	5040.1	
295.34	6230.6	
295.55	3067.9	
295.76	3170.9	
295.97	5626.5	
296.18	6243.6	
296.39	3263.8	
296.6	3468.6	
296.81	5294	
297.01	5603.9	
297.22	3571	
297.43	3383.9	
297.64	4864.6	
297.85	4831.2	
298.06	2887	
298.27	3125.9	
298.48	5246.9	
298.69	4952.7	
298.9	3743	
299.11	3333.4	
299.31	4767	
299.52	4780	
299.73	3979.2	
299.94	3919.1	
300.15	5193	
300.36	4860.5	
300.57	3936.2	
300.78	3888.4	
300.99	5058.5	
301.2	5315.8	
301.4	3405.8	
301.61	3729.4	
301.82	5551.4	
302.03	5595.7	
302.24	4189.5	
302.45	3281.5	
302.66	5466	
302.87	5883.8	
303.08	3450.1	
303.29	4669.4	
303.49	4975.9	
303.7	5278.3	
303.91	3092.4	
304.12	4480.3	
304.33	4752	
304.54	5367.7	
304.75	3495.2	
304.96	3308.2	
305.16	5479	
305.37	6181.5	
305.58	3012.6	
305.79	3151.8	
306	5485.1	
306.21	4637.3	
306.42	3485.6	
306.63	5261.9	
306.83	5113.1	
307.04	5679.7	
307.25	3771.7	
307.46	3764.8	
307.67	4485.1	
307.88	5632.6	
308.09	3433.8	
308.29	3517	
308.5	5266.7	
308.71	5792.3	
308.92	3652.2	
309.13	3349.8	
309.34	5113.8	
309.55	5111.7	
309.75	4320.5	
309.96	3910.3	
310.17	5619.6	
310.38	4890.5	
310.59	4147.8	
310.8	3265.8	
311.01	5044.8	
311.21	5075.5	
311.42	3302.7	
311.63	3379.8	
311.84	4995	
312.05	5261.9	
312.26	3796.3	
312.46	4259.8	
312.67	5085.1	
312.88	4793.6	
313.09	3336.1	
313.3	3267.2	
313.51	5920.7	
313.71	6242.2	
313.92	3341.6	
314.13	3497.2	
314.34	5399.8	
314.55	5113.1	
314.76	4242.7	
314.96	3717.7	
315.17	5272.8	
315.38	5563.6	
315.59	3355.3	
315.8	3220.8	
316.01	5974.6	
316.21	6071.5	
316.42	3232.4	
316.63	3723.9	
316.84	5076.2	
317.05	5859.9	
317.26	3898	
317.46	3518.4	
317.67	5124	
317.88	5570.5	
318.09	4214.7	
318.3	3147	
318.5	4951.3	
318.71	5548.6	
318.92	5304.2	
319.13	3939.6	
319.34	5674.2	
319.54	5793	
319.75	3137.5	
319.96	3018	
320.17	5585.5	
320.38	5707	
320.58	3037.1	
320.79	3657.7	
321	5727.5	
321.21	5867.4	
321.42	3710.9	
321.62	3013.2	
321.83	4827.7	
322.04	5221	
322.25	3521.1	
322.46	3388.7	
322.66	5311.7	
322.87	5493.3	
323.08	4099.4	
323.29	3272.7	
323.5	6173.9	
323.7	4791.6	
323.91	4506.2	
324.12	4085.7	
324.33	5330.9	
324.53	5466.7	
324.74	3867.9	
324.95	4088.4	
325.16	4643.4	
325.37	5031.9	
325.57	3333.4	
325.78	3437.2	
325.99	5345.9	
326.2	4775.2	
326.4	4824.3	
326.61	3096.5	
326.82	5144.5	
327.03	5277.6	
327.24	4724.7	
327.44	4413.4	
327.65	5442.1	
327.86	4388.8	
328.07	3904.1	
328.27	3248.1	
328.48	5826.5	
328.69	4816.8	
328.9	4816.1	
329.1	3633.8	
329.31	5122	
329.52	5984.8	
329.73	3347.1	
329.93	3749.1	
330.14	5201.8	
330.35	5423	
330.56	5470.1	
330.76	4122.6	
330.97	5031.2	
331.18	5319.9	
331.39	3691.1	
331.59	2999.6	
331.8	5769.8	
332.01	5865.4	
332.22	3452.9	
332.42	3926.6	
332.63	5332.2	
332.84	4897.4	
333.05	3741	
333.25	3409.2	
333.46	4999.8	
333.67	5175.9	
333.88	3466.5	
334.08	3884.3	
334.29	6868.2	
334.5	5814.9	
334.7	3290.4	
334.91	4728.8	
335.12	4801.8	
335.33	5612.8	
335.53	3685.7	
335.74	5429.2	
335.95	5018.9	
336.16	4863.9	
336.36	3720.5	
336.57	4225.6	
336.78	4760.8	
336.98	5769.8	
337.19	4565.6	
337.4	3604.4	
337.61	6261.3	
337.81	4761.5	
338.02	3398.9	
338.23	4389.5	
338.43	5894.7	
338.64	4891.9	
338.85	3331.4	
339.05	4408.6	
339.26	6037.4	
339.47	4706.9	
339.68	3322.5	
339.88	4922.6	
340.09	5419.6	
340.3	5654.4	
340.5	3901.4	
340.71	3040.6	
340.92	4747.9	
341.13	5847.6	
341.33	3224.2	
341.54	3944.4	
341.75	5386.2	
341.95	5107.6	
342.16	3744.4	
342.37	4077.5	
342.57	4852.3	
342.78	5097.4	
342.99	4106.9	
343.19	2982.5	
343.4	5545.9	
343.61	5470.8	
343.81	3568.2	
344.02	3297.2	
344.23	5621.7	
344.43	5938.4	
344.64	4140.3	
344.85	4021.5	
345.06	5410.1	
345.26	5793.7	
345.47	3886.4	
345.68	4500.1	
345.88	4685.1	
346.09	5575.9	
346.3	3964.9	
346.5	2968.2	
346.71	5211.4	
346.92	4930.8	
347.12	3084.9	
347.33	3884.3	
347.54	5702.2	
347.74	6018.3	
347.95	3839.9	
348.16	2869.2	
348.36	5037.3	
348.57	4833.2	
348.78	3846.1	
348.98	4150.6	
349.19	5167.7	
349.39	4722.6	
349.6	3093.1	
349.81	3430.3	
350.01	5401.2	
350.22	4887.1	
350.43	3700.7	
350.63	4466.6	
350.84	5211.4	
351.05	5005.9	
351.25	3377.1	
351.46	3051.5	
351.67	5690.6	
351.87	4888.5	
352.08	3570.3	
352.29	4053.6	
352.49	5565.7	
352.7	5669.5	
352.9	3210.5	
353.11	4050.9	
353.32	6279.1	
353.52	5038.7	
353.73	3199.6	
353.94	4081.6	
354.14	5455.1	
354.35	5303.6	
354.55	3304.7	
354.76	3699.3	
354.97	5372.5	
355.17	5187.5	
355.38	3148.4	
355.59	4339.6	
355.79	4874.8	
356	5296	
356.2	3699.3	
356.41	3183.9	
356.62	4627.7	
356.82	5081	
357.03	3899.3	
357.24	3525.9	
357.44	4924.7	
357.65	5034.6	
357.85	4694.6	
358.06	3738.2	
358.27	4646.8	
358.47	4823	
358.68	3112.9	
358.88	3881.6	
359.09	5424.4	
359.3	5646.2	
359.5	4522.6	
359.71	3988.1	
359.91	6148.7	
360.12	5535.7	
360.33	3898.6	
360.53	4280.9	
360.74	4863.2	
360.94	4945.2	
361.15	4032.5	
361.36	3351.2	
361.56	5584.1	
361.77	5070.8	
361.97	4460.5	
362.18	3560.7	
362.38	5640.8	
362.59	4731.5	
362.8	3304.7	
363	3123.2	
363.21	4536.3	
363.41	5180.7	
363.62	3760.8	
363.83	4696.7	
364.03	5201.8	
364.24	6154.8	
364.44	4741.7	
364.65	4720.6	
364.85	5032.5	
365.06	4702.8	
365.27	3428.3	
365.47	3479.5	
365.68	5915.9	
365.88	4990.2	
366.09	3799	
366.29	3486.3	
366.5	5245.5	
366.71	5660.6	
366.91	4674.8	
367.12	3960.1	
367.32	6234	
367.53	5550.7	
367.73	3889.8	
367.94	4742.4	
368.14	5532.2	
368.35	6278.4	
368.56	3911.6	
368.76	3695.2	
368.97	5541.8	
369.17	7098.3	
369.38	3430.3	
369.58	3678.8	
369.79	4673.5	
369.99	5919.3	
370.2	4612.7	
370.4	3691.1	
370.61	5333.6	
370.82	6382.2	
371.02	3690.4	
371.23	3067.2	
371.43	4594.3	
371.64	5793	
371.84	3653.6	
372.05	4842.8	
372.25	6963.8	
372.46	5590.3	
372.66	3692.5	
372.87	3583.9	
373.07	5556.1	
373.28	7034.8	
373.48	4582	
373.69	4321.9	
373.9	5079.6	
374.1	5098.8	
374.31	4517.8	
374.51	4055.7	
374.72	5851.7	
374.92	4784.7	
375.13	4660.5	
375.33	3909.6	
375.54	5443.5	
375.74	4906.9	
375.95	3946.4	
376.15	5085.1	
376.36	5472.2	
376.56	5277.6	
376.77	4048.2	
376.97	4467.3	
377.18	6403.3	
377.38	5444.2	
377.59	4727.4	
377.79	3534.8	
378	5326.1	
378.2	5717.9	
378.41	3562.1	
378.61	3533.4	
378.82	5786.2	
379.02	4903.5	
379.23	3760.1	
379.43	4755.4	
379.64	5852.4	
379.84	5474.9	
380.05	3618.1	
380.25	3511.6	
380.46	5569.8	
380.66	5186.1	
380.87	4778.6	
381.07	5151.3	
381.28	6090	
381.48	5581.4	
381.69	3651.5	
381.89	3733.4	
382.1	4621.6	
382.3	5715.9	
382.51	4577.2	
382.71	5433.3	
382.91	5530.9	
383.12	6062	
383.32	4008.6	
383.53	4142.4	
383.73	5425.1	
383.94	5257.1	
384.14	4071.4	
384.35	3329.3	
384.55	5208.7	
384.76	5606.7	
384.96	3967.6	
385.17	4235.9	
385.37	5588.2	
385.58	4939	
385.78	4227	
385.98	3227.6	
386.19	5080.3	
386.39	5435.3	
386.6	3725.9	
386.8	3932.8	
387.01	5561.6	
387.21	5610.8	
387.42	4330.1	
387.62	4838.7	
387.83	4912.4	
388.03	5507	
388.23	4003.8	
388.44	4682.3	
388.64	4607.2	
388.85	4693.3	
389.05	4322.6	
389.26	4853	
389.46	6471.6	
389.67	5919.3	
389.87	4346.5	
390.07	4349.9	
390.28	5210	
390.48	4832.5	
390.69	3605.8	
390.89	3851.5	
391.1	5027.1	
391.3	5853.8	
391.5	4952.7	
391.71	5541.8	
391.91	5642.8	
392.12	6445	
392.32	5028.4	
392.53	4308.2	
392.73	5090.6	
392.93	5195.7	
393.14	3986.7	
393.34	4741	
393.55	5642.8	
393.75	5217.5	
393.95	4044.7	
394.16	3908.9	
394.36	5013.4	
394.57	5637.4	
394.77	3519.8	
394.98	3888.4	
395.18	4978.6	
395.38	5061.2	
395.59	4709.6	
395.79	3706.8	
396	5081	
396.2	5567.7	
396.4	4425	
396.61	4441.4	
396.81	5651.7	
397.02	4997.7	
397.22	4706.2	
397.42	4718.5	
397.63	5690.6	
397.83	4989.5	
398.04	3672.7	
398.24	4119.1	
398.44	5436	
398.65	5083.1	
398.85	3526.6	
399.05	3597.6	
399.26	4891.2	
399.46	6487.3	
399.67	3968.3	
399.87	3753.2	
400.07	5193.6	
400.28	5593	
400.48	3807.9	
400.69	4833.9	
400.89	5767.8	
401.09	6117.3	
401.3	3675.4	
401.5	4754	
401.7	6354.8	
401.91	6599.2	
402.11	3999.7	
402.32	4223.6	
402.52	5834.7	
402.72	5782.8	
402.93	4441.4	
403.13	3440.6	
403.33	6511.2	
403.54	5367	
403.74	4106.2	
403.94	5034.6	
404.15	5367.7	
404.35	6469.5	
404.56	3938.2	
404.76	5586.9	
404.96	5769.8	
405.17	5540.4	
405.37	5140.4	
405.57	4454.3	
405.78	5779.4	
405.98	5350	
406.18	3973.7	
406.39	4853.7	
406.59	5859.2	
406.79	5433.3	
407	3758	
407.2	3845.4	
407.4	5802.6	
407.61	5953.4	
407.81	3818.8	
408.01	5898.1	
408.22	4766.3	
408.42	6600.6	
408.62	4803.2	
408.83	4319.8	
409.03	5358.9	
409.23	5246.2	
409.44	4359.4	
409.64	4589.5	
409.84	6219	
410.05	6108.4	
410.25	4496	
410.45	4313	
410.66	5588.9	
410.86	7942.7	
411.06	4685.1	
411.27	4530.8	
411.47	7628.7	
411.67	5772.5	
411.88	4767	
412.08	4923.3	
412.28	6341.9	
412.49	6829.3	
412.69	4509.6	
412.89	4497.3	
413.09	6565.8	
413.3	6483.2	
413.5	4624.3	
413.7	4243.4	
413.91	5799.8	
414.11	6554.9	
414.31	4436.6	
414.52	4817.5	
414.72	6214.9	
414.92	6124.1	
415.12	4448.2	
415.33	4926.7	
415.53	6548	
415.73	6713.9	
415.94	5259.2	
416.14	4715.8	
416.34	5636	
416.55	5365.7	
416.75	5821	
416.95	5300.8	
417.15	6550.8	
417.36	7218.4	
417.56	5964.4	
417.76	5048.9	
417.97	6851.8	
418.17	6522.1	
418.37	4736.3	
418.57	4786.1	
418.78	6399.9	
418.98	6120	
419.18	5597.1	
419.38	5551.4	
419.59	6152.1	
419.79	5755.5	
419.99	4651.6	
420.2	4990.9	
420.4	6575.3	
420.6	6731	
420.8	4623.6	
421.01	4517.1	
421.21	6406	
421.41	6548.7	
421.61	4974.5	
421.82	4691.9	
422.02	5956.9	
422.22	6866.2	
422.42	5416.2	
422.63	5142.4	
422.83	6068.1	
423.03	7191.8	
423.23	5154.1	
423.44	4156	
423.64	6176	
423.84	5981.4	
424.04	4638	
424.25	4354	
424.45	6995.9	
424.65	7004.1	
424.85	4138.9	
425.06	4685.1	
425.26	7015.7	
425.46	5986.2	
425.66	5135.6	
425.87	4848.9	
426.07	6820.4	
426.27	6727.6	
426.47	4980	
426.67	4396.3	
426.88	7126.2	
427.08	6584.9	
427.28	5231.9	
427.48	4354.7	
427.69	5681.7	
427.89	6165.1	
428.09	5221.6	
428.29	4409.3	
428.5	6868.2	
428.7	6357.6	
428.9	4261.8	
429.1	4745.1	
429.3	6321.4	
429.51	6673	
429.71	4668	
429.91	5313.1	
430.11	6586.3	
430.31	6790.4	
430.52	4940.4	
430.72	5138.4	
430.92	7154.9	
431.12	6648.4	
431.32	4515.8	
431.53	4977.2	
431.73	5638.1	
431.93	7180.2	
432.13	4447.5	
432.33	4367	
432.54	6070.9	
432.74	6339.8	
432.94	4293.9	
433.14	5257.8	
433.34	6545.3	
433.55	6070.2	
433.75	5242.1	
433.95	6840.2	
434.15	6413.6	
434.35	6168.5	
434.56	4579.9	
434.76	4074.8	
434.96	6331.6	
435.16	6632.7	
435.36	4412	
435.56	5399.1	
435.77	6016.2	
435.97	6186.9	
436.17	6085.9	
436.37	5401.2	
436.57	6059.3	
436.78	6002.6	
436.98	5351.3	
437.18	5915.9	
437.38	6675.7	
437.58	6211.5	
437.78	6074.3	
437.99	4827.7	
438.19	6730.3	
438.39	7389.1	
438.59	4782.7	
438.79	4300.7	
438.99	7299.6	
439.2	6136.4	
439.4	4367.6	
439.6	4332.1	
439.8	6436.8	
440	7438.2	
440.2	5337.7	
440.4	5421.7	
440.61	6868.9	
440.81	7306.5	
441.01	4577.9	
441.21	5305.6	
441.41	7251.9	
441.61	6889.4	
441.81	5692	
442.02	6582.9	
442.22	7680.6	
442.42	6974	
442.62	4588.1	
442.82	4694.6	
443.02	7191.8	
443.22	6438.1	
443.43	5058.5	
443.63	4640.7	
443.83	6294.8	
444.03	6247.7	
444.23	5773.2	
444.43	5423	
444.63	6622.4	
444.83	7659.4	
445.04	4779.3	
445.24	5926.1	
445.44	6880.5	
445.64	7028.6	
445.84	5492	
446.04	5500.8	
446.24	6400.6	
446.44	7246.4	
446.65	4723.3	
446.85	5118.6	
447.05	6383.5	
447.25	7241.6	
447.45	5249.6	
447.65	4586.1	
447.85	6635.4	
448.05	6299.6	
448.25	5634.6	
448.46	5384.1	
448.66	6653.9	
448.86	6361.7	
449.06	4435.9	
449.26	5592.3	
449.46	6935.8	
449.66	6120	
449.86	5116.5	
450.06	5075.5	
450.26	6273.6	
450.47	6826.6	
450.67	5370.5	
450.87	5679.7	
451.07	6914.6	
451.27	6633.4	
451.47	4729.4	
451.67	5320.6	
451.87	6346.7	
452.07	7455.3	
452.27	4957.4	
452.47	4904.2	
452.67	6680.5	
452.88	7066.2	
453.08	4437.3	
453.28	6176.7	
453.48	7709.9	
453.68	6610.8	
453.88	4853.7	
454.08	5094.7	
454.28	6943.3	
454.48	6681.8	
454.68	5558.9	
454.88	6055.8	
455.08	7044.3	
455.28	6754.9	
455.48	4754	
455.68	5312.4	
455.89	7490.1	
456.09	7154.2	
456.29	5003.2	
456.49	5113.8	
456.69	7314.7	
456.89	6672.3	
457.09	5612.1	
457.29	5932.3	
457.49	7004.7	
457.69	7118.7	
457.89	5390.3	
458.09	4902.2	
458.29	6731	
458.49	7441.6	
458.69	5821	
458.89	5277.6	
459.09	7682.6	
459.29	7806.2	
459.49	5356.1	
459.69	6133	
459.9	7283.3	
460.1	6726.2	
460.3	5208	
460.5	5081.7	
460.7	7230	
460.9	6937.2	
461.1	4765.6	
461.3	5872.2	
461.5	7803.4	
461.7	7428	
461.9	5117.9	
462.1	5584.8	
462.3	7010.9	
462.5	7484.6	
462.7	5117.9	
462.9	5314.5	
463.1	8521.6	
463.3	8109.3	
463.5	5516.5	
463.7	6351.4	
463.9	7242.3	
464.1	7527.7	
464.3	5582.1	
464.5	5816.2	
464.7	7798	
464.9	7441.6	
465.1	7131	
465.3	6168.5	
465.5	8157.1	
465.7	8120.2	
465.9	6399.2	
466.1	6208.8	
466.3	7909.9	
466.5	7771.4	
466.7	7078.5	
466.9	6053.1	
467.1	7773.4	
467.3	8481.3	
467.5	6967.9	
467.7	5991.7	
467.9	8762.6	
468.1	9551.7	
468.3	6695.5	
468.5	7006.1	
468.7	7694.9	
468.9	7675.1	
469.1	6244.9	
469.3	6873.7	
469.5	9501.9	
469.7	7262.8	
469.9	6707.1	
470.1	5976	
470.3	7774.1	
470.5	7767.3	
470.7	7232.7	
470.9	6086.6	
471.1	7503.1	
471.3	7909.3	
471.5	5984.2	
471.69	7713.3	
471.89	7445.7	
472.09	6993.8	
472.29	6711.9	
472.49	7006.8	
472.69	7181.5	
472.89	8002.1	
473.09	5894.7	
473.29	6001.2	
473.49	7324.9	
473.69	7465.5	
473.89	6802.7	
474.09	6131.6	
474.29	8566.7	
474.49	8349.6	
474.69	6917.4	
474.89	6311.8	
475.09	7550.9	
475.29	7505.8	
475.49	5739.8	
475.69	5940.5	
475.88	9014.5	
476.08	7804.1	
476.28	5780.1	
476.48	6205.3	
476.68	8275.2	
476.88	8167.3	
477.08	5968.5	
477.28	6178	
477.48	7690.8	
477.68	8146.1	
477.88	5883.8	
478.08	6079.1	
478.28	8535.3	
478.48	7709.2	
478.67	6122.7	
478.87	5636.7	
479.07	8424.7	
479.27	7730.4	
479.47	6423.1	
479.67	6397.2	
479.87	8170.7	
480.07	8665.6	
480.27	5707.7	
480.47	7087.3	
480.67	7892.2	
480.87	8488.1	
481.06	6021.7	
481.26	6841.6	
481.46	7724.9	
481.66	7788.4	
481.86	6414.9	
482.06	7294.2	
482.26	7538.6	
482.46	8375.5	
482.66	6291.4	
482.86	5888.6	
483.05	7940.7	
483.25	7378.8	
483.45	8704.5	
483.65	6377.4	
483.85	7538.6	
484.05	7702.4	
484.25	6765.1	
484.45	7235.5	
484.65	8611.7	
484.84	8625.4	
485.04	6256.5	
485.24	6240.2	
485.44	8984.4	
485.64	7260	
485.84	5639.4	
486.04	6886	
486.24	7627.3	
486.44	7920.2	
486.63	5621	
486.83	6413.6	
487.03	7568.6	
487.23	7772.7	
487.43	5764.3	
487.63	7985	
487.83	7866.9	
488.02	8633.6	
488.22	6626.5	
488.42	7135.1	
488.62	8695	
488.82	7599.3	
489.02	6302.3	
489.22	6263.4	
489.41	8464.3	
489.61	8206.2	
489.81	6133.7	
490.01	6113.9	
490.21	8372.8	
490.41	9081.4	
490.61	6035.4	
490.8	6186.9	
491	8002.8	
491.2	7378.8	
491.4	6753.5	
491.6	5965.7	
491.8	7993.9	
491.99	8051.9	
492.19	5760.3	
492.39	6053.8	
492.59	8455.4	
492.79	8544.8	
492.99	6864.8	
493.18	6110.5	
493.38	8634.2	
493.58	9265	
493.78	6837.5	
493.98	6395.8	
494.18	8239.7	
494.37	7811	
494.57	6974.7	
494.77	6824.5	
494.97	8505.2	
495.17	8744.8	
495.37	6548.7	
495.56	6849.1	
495.76	9085.5	
495.96	8698.4	
496.16	7648.5	
496.36	6595.1	
496.55	8838.4	
496.75	8404.9	
496.95	7125.6	
497.15	6898.9	
497.35	8794	
497.54	8813.1	
497.74	6706.4	
497.94	8406.9	
498.14	9463.7	
498.34	9288.2	
498.53	6481.8	
498.73	7235.5	
498.93	8286.8	
499.13	8879.3	
499.33	7083.2	
499.52	7518.8	
499.72	8809	
499.92	9062.3	
500.12	6721.4	
500.32	7004.7	
500.51	9082.7	
500.71	8883.4	
500.91	7753.6	
501.11	7334.5	
501.31	9012.4	
501.5	9351	
501.7	8002.8	
501.9	7034.8	
502.1	8895	
502.29	9161.9	
502.49	7540.6	
502.69	7944.8	
502.89	8988.5	
503.09	9063.6	
503.28	6675	
503.48	6686.6	
503.68	8352.3	
503.88	8355	
504.07	7660.8	
504.27	7214.3	
504.47	8699.1	
504.67	8839.7	
504.86	7607.5	
505.06	7337.2	
505.26	8500.4	
505.46	10060	
505.65	7189.1	
505.85	7403.4	
506.05	8385.7	
506.25	8762.6	
506.44	6602.7	
506.64	7523.6	
506.84	8284.7	
507.04	9118.9	
507.23	6771.3	
507.43	7238.9	
507.63	10096	
507.83	8495.7	
508.02	7288	
508.22	6987	
508.42	10428	
508.62	8346.2	
508.81	7214.3	
509.01	7646.4	
509.21	8214.4	
509.4	8472.4	
509.6	7339.2	
509.8	6785.6	
510	8441	
510.19	9745.6	
510.39	6722.8	
510.59	6842.3	
510.79	8251.9	
510.98	9580.4	
511.18	6907.8	
511.38	7101.7	
511.57	9059.5	
511.77	8826.1	
511.97	7571.3	
512.17	6642.2	
512.36	9011.1	
512.56	8994.7	
512.76	6749.4	
512.95	6548	
513.15	9187.2	
513.35	7874.4	
513.55	7599.3	
513.74	6800.6	
513.94	9136.7	
514.14	8476.5	
514.33	7666.2	
514.53	7460.8	
514.73	8447.2	
514.92	8742.8	
515.12	6944	
515.32	6846.4	
515.51	8783.1	
515.71	9235.7	
515.91	8310.7	
516.11	6892.1	
516.3	10457	
516.5	8529.1	
516.7	7431.4	
516.89	7922.2	
517.09	8563.2	
517.29	8497	
517.48	7616.4	
517.68	7174.7	
517.88	8370	
518.07	8936	
518.27	7653.3	
518.47	6802.7	
518.66	9501.9	
518.86	8122.9	
519.06	6533	
519.25	7042.3	
519.45	8480	
519.65	9869.2	
519.84	7752.9	
520.04	8244.4	
520.24	10270	
520.43	9118.2	
520.63	7411.6	
520.83	7185.6	
521.02	8366.6	
521.22	8992.6	
521.42	7688.8	
521.61	8092.9	
521.81	8568.7	
522.01	8798.1	
522.2	7531.7	
522.4	7240.9	
522.6	9146.2	
522.79	8072.4	
522.99	7406.1	
523.18	6720.8	
523.38	9023.4	
523.58	9042.5	
523.77	8621.9	
523.97	6701.6	
524.17	10707	
524.36	9958.6	
524.56	8171.4	
524.76	7684	
524.95	9011.1	
525.15	8789.9	
525.34	7609.6	
525.54	7630.7	
525.74	9442.5	
525.93	8574.2	
526.13	8713.4	
526.33	7694.2	
526.52	9920.4	
526.72	9369.5	
526.91	8792.6	
527.11	8084	
527.31	9869.2	
527.5	10260	
527.7	8058.1	
527.89	7227.3	
528.09	8906.6	
528.29	9436.4	
528.48	8527.1	
528.68	8165.9	
528.87	9801.6	
529.07	9843.2	
529.27	8079.2	
529.46	7559.7	
529.66	9521	
529.85	10002	
530.05	7572.7	
530.25	8202.8	
530.44	10938	
530.64	9530.6	
530.83	7884	
531.03	8063.5	
531.23	9899.9	
531.42	9734.7	
531.62	8816.5	
531.81	8060.1	
532.01	9951.1	
532.21	10516	
532.4	7922.2	
532.6	8256	
532.79	10815	
532.99	10191	
533.18	8373.5	
533.38	9259.5	
533.58	9751.1	
533.77	10429	
533.97	8407.6	
534.16	9089.6	
534.36	10834	
534.55	9826.2	
534.75	9322.4	
534.95	8424.7	
535.14	10689	
535.34	9837.1	
535.53	8133.2	
535.73	9992.7	
535.92	11112	
536.12	10041	
536.31	8345.5	
536.51	9452.7	
536.71	10260	
536.9	9916.9	
537.1	8333.2	
537.29	8569.4	
537.49	10748	
537.68	9864.4	
537.88	8917.5	
538.07	8131.8	
538.27	10063	
538.46	11054	
538.66	8064.2	
538.86	8555.7	
539.05	10215	
539.25	10548	
539.44	8793.3	
539.64	8462.9	
539.83	10094	
540.03	10938	
540.22	8393.9	
540.42	8411	
540.61	10208	
540.81	10398	
541	8912.8	
541.2	9511.4	
541.39	9742.2	
541.59	10255	
541.78	9101.9	
541.98	8364.6	
542.18	9585.2	
542.37	9570.2	
542.57	8738.7	
542.76	9212.4	
542.96	9592.7	
543.15	10282	
543.35	8782.4	
543.54	8080.6	
543.74	10529	
543.93	10157	
544.13	8679.3	
544.32	9693	
544.52	10312	
544.71	9723.1	
544.91	7763.2	
545.1	9016.5	
545.3	9717.6	
545.49	10391	
545.69	7772.7	
545.88	8372.1	
546.08	11166	
546.27	10877	
546.47	8836.3	
546.66	8098.4	
546.86	10545	
547.05	11103	
547.24	8334.6	
547.44	8359.8	
547.63	9521.7	
547.83	10614	
548.02	8681.3	
548.22	8696.4	
548.41	9392.7	
548.61	10574	
548.8	8143.4	
549	8197.3	
549.19	9996.8	
549.39	10305	
549.58	7863.5	
549.78	8396	
549.97	10298	
550.17	9769.5	
550.36	9252.7	
550.55	10154	
550.75	9888.3	
550.94	10699	
551.14	8071.7	
551.33	8525	
551.53	9219.3	
551.72	10202	
551.92	8475.2	
552.11	8189.1	
552.31	10146	
552.5	10292	
552.69	9718.3	
552.89	7849.9	
553.08	10166	
553.28	9850.7	
553.47	8285.4	
553.67	9328.5	
553.86	10787	
554.06	9269.1	
554.25	7471	
554.44	8073.1	
554.64	11417	
554.83	11009	
555.03	8041	
555.22	8404.9	
555.42	10418	
555.61	10141	
555.8	8147.5	
556	8502.5	
556.19	9344.9	
556.39	10504	
556.58	8281.3	
556.78	8258.1	
556.97	10000	
557.16	9667.1	
557.36	9472.5	
557.55	7861.5	
557.75	9017.9	
557.94	10712	
558.13	7991.2	
558.33	7825.3	
558.52	10564	
558.72	9488.2	
558.91	7884	
559.1	8145.5	
559.3	9275.3	
559.49	8965.3	
559.69	7593.9	
559.88	8412.4	
560.07	9941.5	
560.27	10314	
560.46	8692.9	
560.66	8738	
560.85	9736.7	
561.04	9036.3	
561.24	7863.5	
561.43	7992.5	
561.63	9299.8	
561.82	9611.1	
562.01	9192.6	
562.21	8301.8	
562.4	9932.6	
562.59	10662	
562.79	8238.3	
562.98	7936.6	
563.18	9869.2	
563.37	11131	
563.56	8760.5	
563.76	7843	
563.95	9390.6	
564.14	9383.8	
564.34	8241	
564.53	7892.2	
564.73	9870.5	
564.92	10178	
565.11	8359.1	
565.31	7801.4	
565.5	10453	
565.69	9429.5	
565.89	7941.3	
566.08	8236.2	
566.27	10330	
566.47	10673	
566.66	8764.6	
566.85	7637.6	
567.05	9990	
567.24	9510.8	
567.44	7959.1	
567.63	9267.7	
567.82	10101	
568.02	9871.2	
568.21	7948.2	
568.4	8350.3	
568.6	9856.2	
568.79	9868.5	
568.98	7811	
569.18	8106.5	
569.37	9791.3	
569.56	11573	
569.76	8392.6	
569.95	9201.5	
570.14	10181	
570.34	10032	
570.53	7914.7	
570.72	7893.6	
570.91	10646	
571.11	9742.2	
571.3	8391.2	
571.49	9164.7	
571.69	9803.6	
571.88	9400.9	
572.07	8815.1	
572.27	8923.7	
572.46	9439.1	
572.65	10443	
572.85	8207.6	
573.04	8412.4	
573.23	10589	
573.43	9871.2	
573.62	7987.1	
573.81	8484.7	
574	9906	
574.2	9837.1	
574.39	8324.3	
574.58	8519.6	
574.78	10823	
574.97	10242	
575.16	8720.3	
575.36	9002.2	
575.55	10479	
575.74	10611	
575.93	8022.6	
576.13	9021.3	
576.32	9942.2	
576.51	10420	
576.71	8471.1	
576.9	10187	
577.09	10744	
577.28	10340	
577.48	8767.4	
577.67	7966.6	
577.86	9933.3	
578.05	10200	
578.25	8614.4	
578.44	8673.1	
578.63	10168	
578.83	11145	
579.02	8000	
579.21	9524.4	
579.4	10328	
579.6	10010	
579.79	8707.3	
579.98	10720	
580.17	10599	
580.37	10684	
580.56	8194.6	
580.75	8924.4	
580.94	11101	
581.14	10959	
581.33	9288.9	
581.52	8258.8	
581.71	10481	
581.91	11088	
582.1	8088.1	
582.29	8684.1	
582.48	10150	
582.68	10158	
582.87	9159.9	
583.06	8768.7	
583.25	10492	
583.45	9803.6	
583.64	9456.2	
583.83	10076	
584.02	10041	
584.21	10550	
584.41	9366.7	
584.6	8680	
584.79	10200	
584.98	11020	
585.18	8192.6	
585.37	8187.1	
585.56	9707.4	
585.75	10583	
585.94	8414.4	
586.14	9105.3	
586.33	11047	
586.52	10170	
586.71	8809	
586.91	8622.6	
587.1	9574.3	
587.29	10563	
587.48	8557.1	
587.67	8482	
587.87	10367	
588.06	10333	
588.25	9688.9	
588.44	8970.8	
588.63	9944.9	
588.83	10627	
589.02	8519.5	
589.21	8379.6	
589.4	9929.2	
589.59	9760.6	
589.78	7687.4	
589.98	7867.6	
590.17	9295	
590.36	9796.8	
590.55	7212.9	
590.74	7983	
590.94	10998	
591.13	9622	
591.32	7698.3	
591.51	7365.9	
591.7	9964.1	
591.89	9622.7	
592.09	7438.9	
592.28	7912	
592.47	8850	
592.66	10669	
592.85	7503.1	
593.05	7674.4	
593.24	9456.8	
593.43	10228	
593.62	7692.2	
593.81	8191.2	
594	9428.8	
594.19	9709.4	
594.39	7687.4	
594.58	7573.4	
594.77	9777	
594.96	10377	
595.15	7570	
595.34	8133.2	
595.54	9829.6	
595.73	8968.1	
595.92	6997.9	
596.11	8017.8	
596.3	10311	
596.49	8989.2	
596.68	7798.7	
596.88	8204.2	
597.07	9923.1	
597.26	8843.8	
597.45	7318.1	
597.64	8531.8	
597.83	9043.8	
598.02	9739.5	
598.22	7464.2	
598.41	8077.9	
598.6	9514.2	
598.79	8984.4	
598.98	7462.8	
599.17	8371.4	
599.36	9542.2	
599.55	10551	
599.74	9395.4	
599.94	9105.3	
600.13	10018	
600.32	8897.1	
600.51	7225.2	
600.7	7415.7	
600.89	10590	
601.08	10565	
601.27	7116.7	
601.47	8033.5	
601.66	9916.3	
601.85	10527	
602.04	7782.3	
602.23	8038.3	
602.42	9024	
602.61	9643.9	
602.8	7662.1	
602.99	7537.9	
603.18	9275.3	
603.37	9611.8	
603.57	8066.9	
603.76	8503.2	
603.95	10245	
604.14	9818	
604.33	7591.1	
604.52	7863.5	
604.71	9513.5	
604.9	9174.2	
605.09	8586.5	
605.28	8218.5	
605.47	10132	
605.66	9826.8	
605.86	8148.9	
606.05	7519.5	
606.24	10067	
606.43	8712.7	
606.62	7899.7	
606.81	8610.3	
607	9892.4	
607.19	9327.8	
607.38	7281.9	
607.57	7525.6	
607.76	9083.4	
607.95	8562.6	
608.14	7934.5	
608.33	8435.6	
608.52	9056.8	
608.72	9884.2	
608.91	7195.2	
609.1	7185	
609.29	9082.7	
609.48	8643.1	
609.67	8058.1	
609.86	7279.2	
610.05	8665	
610.24	9100.5	
610.43	7048.4	
610.62	6775.4	
610.81	10131	
611	9934.7	
611.19	7197.2	
611.38	7874.4	
611.57	9351.7	
611.76	10641	
611.95	6974.7	
612.14	6853.2	
612.33	9093.7	
612.52	8825.4	
612.71	7506.5	
612.9	6802	
613.09	8347.5	
613.28	10506	
613.47	7263.5	
613.66	8090.2	
613.85	9351.7	
614.04	8858.1	
614.24	7286	
614.43	6481.1	
614.62	9352.4	
614.81	9253.4	
615	7800.7	
615.19	7831.4	
615.38	8689.5	
615.57	9073.9	
615.76	7727.7	
615.95	8620.6	
616.14	9405.6	
616.33	9117.6	
616.52	8011.7	
616.71	8190.5	
616.9	9367.4	
617.09	9240.4	
617.28	7389.8	
617.47	8574.2	
617.66	8562.6	
617.85	8613.1	
618.04	8256	
618.22	7789.8	
618.41	8891.6	
618.6	9704	
618.79	7656	
618.98	7385.7	
619.17	9995.5	
619.36	8536.6	
619.55	7582.3	
619.74	7587	
619.93	9417.2	
620.12	8938	
620.31	8143.4	
620.5	8314.1	
620.69	9979.1	
620.88	10321	
621.07	9010.4	
621.26	8140	
621.45	9566.1	
621.64	9609.8	
621.83	8179.6	
622.02	7352.2	
622.21	9662.3	
622.4	9527.8	
622.59	8697	
622.78	8428.1	
622.97	9086.2	
623.16	9953.1	
623.35	8095.6	
623.54	7309.2	
623.72	9342.8	
623.91	9480	
624.1	8365.3	
624.29	7236.2	
624.48	10423	
624.67	9643.2	
624.86	8322.9	
625.05	7426.6	
625.24	10597	
625.43	9042.5	
625.62	9887.6	
625.81	7661.5	
626	10016	
626.19	9263.6	
626.38	8431.5	
626.56	7818.5	
626.75	9220	
626.94	9909.4	
627.13	8408.3	
627.32	7187.7	
627.51	9834.3	
627.7	10996	
627.89	7224.6	
628.08	8384.4	
628.27	9082.1	
628.46	9265.7	
628.65	7604.8	
628.83	7344	
629.02	9707.4	
629.21	9081.4	
629.4	7994.6	
629.59	8181.6	
629.78	8931.9	
629.97	9947.7	
630.16	8263.6	
630.35	7778.2	
630.54	10413	
630.72	10195	
630.91	7740	
631.1	8304.5	
631.29	9546.3	
631.48	9780.4	
631.67	8373.5	
631.86	7778.2	
632.05	9257.5	
632.24	9314.2	
632.42	7451.2	
632.61	8137.3	
632.8	9314.2	
632.99	8965.3	
633.18	8100.4	
633.37	8443.8	
633.56	9600.2	
633.75	9412.5	
633.93	8028	
634.12	7804.1	
634.31	10361	
634.5	9963.4	
634.69	7817.1	
634.88	8241.7	
635.07	9355.1	
635.25	10032	
635.44	8640.4	
635.63	8845.2	
635.82	9278	
636.01	8731.2	
636.2	8570.7	
636.39	8202.1	
636.57	10273	
636.76	9957.9	
636.95	7709.9	
637.14	8897.7	
637.33	9602.2	
637.52	10627	
637.7	7421.8	
637.89	8304.5	
638.08	9297.8	
638.27	10630	
638.46	8330.5	
638.65	8752.3	
638.83	10635	
639.02	9006.3	
639.21	8207.6	
639.4	8625.4	
639.59	9456.2	
639.78	9138	
639.96	7613.7	
640.15	7545.4	
640.34	9346.9	
640.53	9503.3	
640.72	7349.5	
640.91	7522.2	
641.09	8821.3	
641.28	9964.7	
641.47	7617.1	
641.66	8323.6	
641.85	9559.9	
642.03	9785.2	
642.22	8110	
642.41	7734.5	
642.6	8925.7	
642.79	8412.4	
642.97	7456	
643.16	8215.1	
643.35	8830.2	
643.54	8647.2	
643.73	7415	
643.91	8129.1	
644.1	8525	
644.29	9202.2	
644.48	7369.3	
644.67	7451.9	
644.85	8702.5	
645.04	9036.3	
645.23	7038.2	
645.42	7360.4	
645.6	8621.3	
645.79	9647.3	
645.98	7268.2	
646.17	6311.8	
646.36	8251.3	
646.54	8830.8	
646.73	7955	
646.92	6870.3	
647.11	8433.5	
647.29	9435.7	
647.48	7009.5	
647.67	6642.2	
647.86	9567.4	
648.05	9693	
648.23	7131	
648.42	8404.9	
648.61	9033.6	
648.8	8790.6	
648.98	6846.4	
649.17	7131	
649.36	8388.5	
649.55	7888.8	
649.73	6833.4	
649.92	7519.5	
650.11	8299.1	
650.3	8611.7	
650.48	7051.8	
650.67	6772.6	
650.86	8895.7	
651.05	7836.9	
651.23	6991.1	
651.42	6900.3	
651.61	8331.8	
651.79	8399.4	
651.98	7094.8	
652.17	6733.7	
652.36	8837.7	
652.54	7903.8	
652.73	6739.2	
652.92	6569.2	
653.11	8785.8	
653.29	8807.6	
653.48	6077	
653.67	7090.8	
653.85	8521.6	
654.04	9459.6	
654.23	7292.1	
654.42	6751.5	
654.6	7998	
654.79	8600.8	
654.98	6233.3	
655.16	6778.8	
655.35	7555.6	
655.54	7494.2	
655.73	6229.9	
655.91	6111.1	
656.1	8576.2	
656.29	7410.2	
656.47	5795.1	
656.66	7370.6	
656.85	7836.2	
657.03	7765.2	
657.22	6339.1	
657.41	6376	
657.59	7891.5	
657.78	7680.6	
657.97	6075.6	
658.16	6810.9	
658.34	8568	
658.53	8879.3	
658.72	7502.4	
658.9	8079.2	
659.09	8027.4	
659.28	8075.1	
659.46	6549.4	
659.65	6363	
659.84	7785	
660.02	8304.5	
660.21	6348	
660.4	6277	
660.58	8691.6	
660.77	8065.6	
660.96	6877.1	
661.14	6065.4	
661.33	9133.3	
661.52	9045.2	
661.7	5992.4	
661.89	9371.5	
662.08	7703.1	
662.26	7331	
662.45	6208.1	
662.64	6300.2	
662.82	8387.8	
663.01	7606.2	
663.2	6273.6	
663.38	6971.3	
663.57	8228.7	
663.75	8183	
663.94	6646.3	
664.13	7760.4	
664.31	7709.9	
664.5	8205.5	
664.69	6783.6	
664.87	7381.6	
665.06	7394.5	
665.25	8134.5	
665.43	7509.9	
665.62	7542	
665.8	8472.4	
665.99	7802.8	
666.18	6626.5	
666.36	6696.2	
666.55	8366.6	
666.74	8239	
666.92	6264.1	
667.11	7711.3	
667.29	7790.5	
667.48	8344.8	
667.67	7359.7	
667.85	6490.7	
668.04	7789.8	
668.22	7833.5	
668.41	6596.5	
668.6	6812.9	
668.78	7651.9	
668.97	7788.4	
669.15	6987.7	
669.34	5978.7	
669.53	7712	
669.71	7896.3	
669.9	6176	
670.08	6735.1	
670.27	7549.5	
670.46	8168.7	
670.64	6910.5	
670.83	7130.3	
671.01	7484.6	
671.2	8024.6	
671.38	6162.3	
671.57	6061.3	
671.76	8687.5	
671.94	9171.5	
672.13	6073.6	
672.31	6950.8	
672.5	8272.4	
672.69	7620.5	
672.87	6210.8	
673.06	6551.5	
673.24	8140	
673.43	7630	
673.61	6913.3	
673.8	6512.5	
673.98	8222.6	
674.17	8504.5	
674.36	7075	
674.54	6851.1	
674.73	8019.8	
674.91	8230.1	
675.1	6643.6	
675.28	6281.8	
675.47	7758.4	
675.65	8320.9	
675.84	6475	
676.03	6793.8	
676.21	7583.6	
676.4	7147.4	
676.58	7148.1	
676.77	6984.3	
676.95	8964.6	
677.14	7572.7	
677.32	6249	
677.51	6083.8	
677.69	8389.2	
677.88	7305.1	
678.06	6140.5	
678.25	6169.8	
678.44	7811.6	
678.62	7574.1	
678.81	5889.3	
678.99	6751.5	
679.18	8561.2	
679.36	8190.5	
679.55	6499.6	
679.73	7025.2	
679.92	8177.5	
680.1	7638.9	
680.29	7604.1	
680.47	6455.9	
680.66	7500.3	
680.84	8403.5	
681.03	5782.8	
681.21	6792.4	
681.4	7567.9	
681.58	7505.1	
681.77	6281.8	
681.95	6150.7	
682.14	8405.5	
682.32	8716.8	
682.51	7033.4	
682.69	5886.5	
682.88	7549.5	
683.06	8092.2	
683.25	6807.4	
683.43	7236.8	
683.62	7724.3	
683.8	8219.2	
683.99	7348.1	
684.17	6637.5	
684.36	9060.9	
684.54	7806.9	
684.73	5874.9	
684.91	6050.4	
685.1	7993.9	
685.28	7395.9	
685.46	6567.8	
685.65	6611.5	
685.83	8205.5	
686.02	7607.5	
686.2	6065.4	
686.39	6188.3	
686.57	7225.2	
686.76	8879.3	
686.94	6133	
687.13	6267.5	
687.31	8098.4	
687.5	7669	
687.68	5897.5	
687.86	6930.3	
688.05	9312.8	
688.23	7208.8	
688.42	7034.1	
688.6	6382.2	
688.79	7619.8	
688.97	7647.1	
689.16	6701	
689.34	5692	
689.52	8329.8	
689.71	8620.6	
689.89	7000	
690.08	6286.6	
690.26	7927.7	
690.45	7742	
690.63	7111.2	
690.81	6506.4	
691	7699.7	
691.18	7662.8	
691.37	6675.7	
691.55	8645.8	
691.74	7594.6	
691.92	9469.8	
692.1	6609.5	
692.29	6075.6	
692.47	7839.6	
692.66	7169.9	
692.84	6259.3	
693.02	6855.2	
693.21	7289.4	
693.39	7922.2	
693.58	6934.4	
693.76	6447.7	
693.94	8940.7	
694.13	8740	
694.31	6469.5	
694.5	7526.3	
694.68	7714.7	
694.86	8028.7	
695.05	6879.8	
695.23	6864.1	
695.42	8456.7	
695.6	10774	
695.78	7577.5	
695.97	6653.2	
696.15	8602.8	
696.34	7892.2	
696.52	6428.6	
696.7	7170.6	
696.89	8295	
697.07	7767.3	
697.25	7178.8	
697.44	8543.4	
697.62	8311.3	
697.81	8620.6	
697.99	6767.9	
698.17	7264.1	
698.36	7761.1	
698.54	8391.9	
698.72	7208.2	
698.91	6290.7	
699.09	7901.7	
699.28	7853.3	
699.46	6840.2	
699.64	6776.7	
699.83	7756.3	
700.01	8921.6	
700.19	7543.4	
700.38	6065.4	
700.56	8964	
700.74	7993.9	
700.93	6457.2	
701.11	7291.5	
701.29	8469	
701.48	9441.8	
701.66	6718	
701.84	6756.9	
702.03	8118.1	
702.21	8774.9	
702.39	6425.8	
702.58	6881.9	
702.76	8550.3	
702.94	8667	
703.13	6367.8	
703.31	8697.7	
703.49	7832.8	
703.68	9176.3	
703.86	6632.7	
704.04	7538.6	
704.23	8396	
704.41	8837	
704.59	6776	
704.78	7850.5	
704.96	9463	
705.14	8746.9	
705.33	6644.3	
705.51	7352.2	
705.69	8205.5	
705.87	9038.4	
706.06	7708.6	
706.24	6608.1	
706.42	8537.3	
706.61	8906.6	
706.79	7668.3	
706.97	6569.2	
707.16	8049.9	
707.34	8548.9	
707.52	7638.2	
707.7	6846.4	
707.89	8157.1	
708.07	7890.8	
708.25	7682.6	
708.44	8157.7	
708.62	8150.2	
708.8	9186.5	
708.98	7827.3	
709.17	6990.4	
709.35	8604.2	
709.53	8528.4	
709.72	6659.3	
709.9	7128.3	
710.08	8733.2	
710.26	8783.1	
710.45	8109.3	
710.63	6918	
710.81	8481.3	
710.99	8514.8	
711.18	7609.6	
711.36	7067.5	
711.54	8348.9	
711.72	8947.6	
711.91	7106.5	
712.09	6621.1	
712.27	8398	
712.45	9065	
712.64	7344.7	
712.82	6402.6	
713	7874.4	
713.18	8015.1	
713.37	6578.8	
713.55	7557.7	
713.73	8837.7	
713.91	7501	
714.1	6765.1	
714.28	6220.4	
714.46	8373.5	
714.64	7533.1	
714.83	5597.1	
715.01	6277	
715.19	7594.6	
715.37	6907.8	
715.55	5930.9	
715.74	6217	
715.92	8236.9	
716.1	6471.6	
716.28	7246.4	
716.47	6300.2	
716.65	7109.9	
716.83	7175.4	
717.01	6161.7	
717.19	6185.5	
717.38	9154.4	
717.56	6818.4	
717.74	6437.4	
717.92	5620.3	
718.1	8075.8	
718.29	7243.7	
718.47	5341.1	
718.65	6016.2	
718.83	8016.4	
719.01	7972.1	
719.2	5345.2	
719.38	6404	
719.56	7742	
719.74	9389.3	
719.92	6041.5	
720.11	7005.4	
720.29	7841	
720.47	6939.2	
720.65	5560.9	
720.83	6302.3	
721.02	7191.1	
721.2	6952.9	
721.38	6294.8	
721.56	5681.1	
721.74	6588.3	
721.92	6683.2	
722.11	6735.8	
722.29	6438.8	
722.47	7889.5	
722.65	7077.8	
722.83	5648.3	
723.01	6428.6	
723.2	7077.8	
723.38	7363.8	
723.56	5018.9	
723.74	6264.1	
723.92	6688.7	
724.1	7794.6	
724.29	5524.7	
724.47	6673.6	
724.65	6758.3	
724.83	6692.8	
725.01	5481.7	
725.19	6242.9	
725.37	6680.5	
725.56	6778.8	
725.74	5318.6	
725.92	5549.3	
726.1	6578.1	
726.28	6877.8	
726.46	5951.4	
726.64	5621.7	
726.83	6925.5	
727.01	7123.5	
727.19	5338.4	
727.37	6102.3	
727.55	7058.7	
727.73	7524.2	
727.91	5278.3	
728.09	5150	
728.28	7569.3	
728.46	8045.1	
728.64	6152.1	
728.82	6231.3	
729	8493.6	
729.18	7903.1	
729.36	5458.5	
729.54	7590.5	
729.72	8884.1	
729.91	7317.4	
730.09	7316	
730.27	6082.5	
730.45	7265.5	
730.63	7820.5	
730.81	6689.3	
730.99	5786.2	
731.17	8335.2	
731.35	7067.5	
731.53	6263.4	
731.71	5926.8	
731.9	8049.9	
732.08	8226.7	
732.26	6111.8	
732.44	5882.4	
732.62	8208.3	
732.8	7727	
732.98	6545.3	
733.16	5663.3	
733.34	7768.6	
733.52	6576	
733.7	6044.2	
733.88	6348	
734.07	7517.4	
734.25	7299	
734.43	5563.6	
734.61	7077.8	
734.79	8699.1	
734.97	7156.3	
735.15	5670.1	
735.33	5950.7	
735.51	7456.7	
735.69	7144.7	
735.87	7018.4	
736.05	6178.7	
736.23	7337.9	
736.41	7083.2	
736.59	5971.2	
736.77	6114.6	
736.95	7709.2	
737.13	7227.3	
737.32	5701.5	
737.5	5922.7	
737.68	8345.5	
737.86	7073	
738.04	5477	
738.22	7280.5	
738.4	6912.6	
738.58	7139.9	
738.76	6012.2	
738.94	5075.5	
739.12	6991.8	
739.3	6907.1	
739.48	6702.3	
739.66	6342.6	
739.84	7278.5	
740.02	7240.9	
740.2	5156.1	
740.38	5506.3	
740.56	7507.9	
740.74	6525.5	
740.92	6118	
741.1	6036	
741.28	7014.3	
741.46	6827.2	
741.64	5626.5	
741.82	6049.7	
742	7031.4	
742.18	6966.5	
742.36	5786.9	
742.54	5456.5	
742.72	7602.1	
742.9	6328.2	
743.08	6197.8	
743.26	5015.5	
743.44	7718.8	
743.62	7530.4	
743.8	6313.9	
743.98	5393	
744.16	7275.1	
744.34	6934.4	
744.52	6180.8	
744.7	6059.3	
744.88	7395.2	
745.06	6896.2	
745.24	6137.1	
745.42	6205.3	
745.6	7363.1	
745.78	6898.9	
745.96	5031.9	
746.14	5312.4	
746.32	8094.9	
746.5	7321.5	
746.68	5834	
746.86	5319.9	
747.03	7700.4	
747.21	6135.7	
747.39	5806.7	
747.57	5337	
747.75	6978.1	
747.93	7313.3	
748.11	5274.9	
748.29	5231.2	
748.47	8498.4	
748.65	6647.7	
748.83	5965.1	
749.01	5747.3	
749.19	7127.6	
749.37	6361.7	
749.55	5455.8	
749.73	5618.3	
749.91	6836.8	
750.09	6550.8	
750.26	5669.5	
750.44	5137.7	
750.62	6832.7	
750.8	6839.5	
750.98	4976.6	
751.16	5261.2	
751.34	6879.1	
751.52	6203.3	
751.7	5996.5	
751.88	4967.7	
752.06	7273.7	
752.24	7096.9	
752.42	4937	
752.59	5236	
752.77	6776	
752.95	7924.3	
753.13	5814.2	
753.31	5383.4	
753.49	6350.1	
753.67	6823.1	
753.85	5594.4	
754.03	5143.8	
754.21	7105.8	
754.38	7364.5	
754.56	5240.8	
754.74	4343.1	
754.92	6238.8	
755.1	6960.4	
755.28	4296.6	
755.46	4283.7	
755.64	7581.6	
755.82	7572.7	
755.99	4416.1	
756.17	4489.1	
756.35	5079.6	
756.53	6582.9	
756.71	3406.5	
756.89	4236.6	
757.07	6197.2	
757.25	5335	
757.42	4857.1	
757.6	5682.4	
757.78	6348.7	
757.96	5395	
758.14	4571.1	
758.32	4074.8	
758.5	4940.4	
758.67	5764.3	
758.85	4364.2	
759.03	4591.5	
759.21	5930.9	
759.39	5395.7	
759.57	4045.4	
759.75	5164.3	
759.92	6571.2	
760.1	5818.3	
760.28	5492.7	
760.46	5696.1	
760.64	5676.3	
760.82	5379.3	
760.99	5341.1	
761.17	4588.1	
761.35	6423.1	
761.53	5476.3	
761.71	4646.2	
761.89	5371.8	
762.06	6370.5	
762.24	5898.1	
762.42	4789.5	
762.6	4582.7	
762.78	5923.4	
762.96	6558.3	
763.13	5138.4	
763.31	4876.9	
763.49	6701	
763.67	5865.4	
763.85	5669.5	
764.02	6154.8	
764.2	6881.2	
764.38	6070.2	
764.56	4698	
764.74	5577.3	
764.91	6941.2	
765.09	5920.7	
765.27	4457.7	
765.45	4210.6	
765.63	7092.8	
765.8	6894.1	
765.98	3981.3	
766.16	4287.1	
766.34	5494.7	
766.52	5313.1	
766.69	5229.8	
766.87	4134.2	
767.05	5885.9	
767.23	6567.8	
767.41	4414.1	
767.58	4686.4	
767.76	6423.1	
767.94	6474.3	
768.12	4425.7	
768.29	5154.7	
768.47	5955.5	
768.65	6604.7	
768.83	4123.2	
769	5150.6	
769.18	5500.2	
769.36	6170.5	
769.54	5143.1	
769.72	4119.1	
769.89	6431.3	
770.07	6567.2	
770.25	4397.7	
770.43	5538.4	
770.6	7097.6	
770.78	7495.6	
770.96	4624.3	
771.14	5173.2	
771.31	6292.7	
771.49	5705.6	
771.67	3779.9	
771.85	3986.7	
772.02	4957.4	
772.2	5696.8	
772.38	4642.1	
772.55	4206.5	
772.73	5936.4	
772.91	5692	
773.09	4569.7	
773.26	4644.1	
773.44	5868.8	
773.62	5532.2	
773.8	4070.7	
773.97	3788.7	
774.15	5931.6	
774.33	5568.4	
774.5	3997	
774.68	4308.2	
774.86	6035.4	
775.04	5586.2	
775.21	4015.4	
775.39	4030.4	
775.57	5877	
775.74	6218.3	
775.92	3888.4	
776.1	3796.9	
776.27	5782.1	
776.45	6909.8	
776.63	4045.4	
776.81	3551.2	
776.98	5457.2	
777.16	6568.5	
777.34	4119.8	
777.51	4444.8	
777.69	5417.6	
777.87	5223.7	
778.04	4190.8	
778.22	4757.4	
778.4	5221	
778.57	5808	
778.75	3570.3	
778.93	3758	
779.1	5060.5	
779.28	4954.7	
779.46	3473.4	
779.64	3962.8	
779.81	5986.9	
779.99	6862.1	
780.17	4674.8	
780.34	4846.9	
780.52	5507	
780.69	5656.5	
780.87	4287.8	
781.05	3834.5	
781.22	5568.4	
781.4	5567.7	
781.58	3946.4	
781.75	3229	
781.93	5588.2	
782.11	4975.2	
782.28	4790.9	
782.46	3958.7	
782.64	4792.2	
782.81	5665.4	
782.99	4067.3	
783.17	3999.7	
783.34	5661.3	
783.52	4838.7	
783.69	4225.6	
783.87	4922	
784.05	4952	
784.22	4957.4	
784.4	4952.7	
784.58	4262.5	
784.75	5849	
784.93	5018.2	
785.1	3927.3	
785.28	4534.9	
785.46	5604.6	
785.63	4971.1	
785.81	3912.3	
785.99	3781.9	
786.16	5160.9	
786.34	5513.8	
786.51	3781.2	
786.69	4177.9	
786.87	4744.5	
787.04	5248.3	
787.22	3629.7	
787.39	4590.2	
787.57	4956.8	
787.75	6038.8	
787.92	4780.6	
788.1	4708.3	
788.27	4988.2	
788.45	4736.3	
788.63	4424.3	
788.8	3149.8	
788.98	5422.3	
789.15	4680.3	
789.33	3282.9	
789.5	3895.9	
789.68	5798.5	
789.86	5859.9	
790.03	4347.8	
790.21	3855	
790.38	5768.4	
790.56	5063.9	
790.73	3692.5	
790.91	3685.7	
791.09	4920.6	
791.26	5584.1	
791.44	3919.8	
791.61	3361.4	
791.79	4891.2	
791.96	4928.8	
792.14	3517	
792.32	3108.1	
792.49	4954	
792.67	5081	
792.84	3555.3	
793.02	3377.8	
793.19	5395.7	
793.37	6033.3	
793.54	3145.7	
793.72	3431	
793.89	6127.5	
794.07	4982	
794.25	3858.4	
794.42	3157.3	
794.6	5948	
794.77	5556.8	
794.95	4297.3	
795.12	3743	
795.3	4911	
795.47	5513.1	
795.65	4087.1	
795.82	3935.5	
796	4784.7	
796.17	6488	
796.35	3814	
796.52	4508.9	
796.7	5370.5	
796.87	5514.5	
797.05	4702.8	
797.22	4561.5	
797.4	5520.6	
797.57	6507.8	
797.75	3997.6	
797.92	3658.4	
798.1	5786.9	
798.27	4898.7	
798.45	3211.2	
798.62	3422.8	
798.8	5223	
798.97	5633.3	
799.15	4163.5	
799.32	3943.7	
799.5	4485.7	
799.67	5272.2	
799.85	4275.5	
800.02	3157.3	
800.2	4926	
800.37	5213.4	
800.55	4415.4	
800.72	3723.9	
800.9	5629.9	
801.07	6077.7	
801.25	4901.5	
801.42	4052.9	
801.6	5663.3	
801.77	5397.8	
801.95	3765.5	
802.12	3606.5	
802.29	5394.3	
802.47	5398.4	
802.64	4005.8	
802.82	3068.5	
802.99	4902.2	
803.17	5799.2	
803.34	3874.1	
803.52	3596.2	
803.69	6417.7	
803.87	4699.4	
804.04	3917.1	
804.21	3973.1	
804.39	5965.7	
804.56	5124	
804.74	3317.7	
804.91	4024.9	
805.09	4967	
805.26	5042.8	
805.44	3380.5	
805.61	3747.8	
805.78	5538.4	
805.96	5513.8	
806.13	4061.1	
806.31	4328.7	
806.48	4476.9	
806.66	4942.4	
806.83	4102.8	
807	4025.6	
807.18	4873.5	
807.35	5285.8	
807.53	3637.9	
807.7	3194.1	
807.87	5954.8	
808.05	5004.6	
808.22	4308.2	
808.4	3185.3	
808.57	4928.1	
808.74	4636.6	
808.92	3607.8	
809.09	4599.7	
809.27	4822.3	
809.44	5401.2	
809.61	3236.5	
809.79	3574.4	
809.96	6038.1	
810.14	5600.5	
810.31	3128.6	
810.48	3790.8	
810.66	5034.6	
810.83	5681.1	
811.01	3584.6	
811.18	3963.5	
811.35	5655.8	
811.53	4361.5	
811.7	4321.2	
811.87	4077.5	
812.05	4944.5	
812.22	4868	
812.39	3533.4	
812.57	3373.7	
812.74	4937.7	
812.92	6436.8	
813.09	3787.4	
813.26	4089.1	
813.44	6262	
813.61	4810.7	
813.78	3146.4	
813.96	4255	
814.13	4984.1	
814.3	4611.3	
814.48	4566.3	
814.65	3768.3	
814.82	6339.1	
815	4724	
815.17	3907.5	
815.34	4678.9	
815.52	4857.1	
815.69	4832.5	
815.87	3866.6	
816.04	3336.8	
816.21	4973.2	
816.38	4380.6	
816.56	3747.8	
816.73	3482.2	
816.9	6205.3	
817.08	5651.7	
817.25	3514.3	
817.42	4333.5	
817.6	4505.5	
817.77	4971.8	
817.94	3941.7	
818.12	3506.1	
818.29	4737.6	
818.46	7151.5	
818.64	3667.2	
818.81	3420.8	
818.98	4616.8	
819.16	6677.7	
819.33	4173.8	
819.5	3841.3	
819.67	5281.7	
819.85	5854.5	
820.02	3807.2	
820.19	4055	
820.37	5149.3	
820.54	4759.5	
820.71	3899.3	
820.88	4897.4	
821.06	5102.2	
821.23	4758.1	
821.4	3978.5	
821.58	3918.4	
821.75	5636	
821.92	5096	
822.09	3213.9	
822.27	3310.2	
822.44	4911.7	
822.61	4810	
822.79	3196.9	
822.96	6070.9	
823.13	5393.7	
823.3	4641.4	
823.48	3706.1	
823.65	3341.6	
823.82	5586.2	
823.99	4511	
824.17	4636.6	
824.34	3422.8	
824.51	6465.4	
824.68	4982.7	
824.86	3568.2	
825.03	4007.2	
825.2	4939	
825.37	5935	
825.55	3462.4	
825.72	3905.5	
825.89	6436.8	
826.06	5996.5	
826.24	3780.6	
826.41	3777.1	
826.58	5973.9	
826.75	5184.1	
826.92	3069.2	
827.1	3349.8	
827.27	8024.6	
827.44	6449.7	
827.61	3607.2	
827.79	4411.3	
827.96	4701.5	
828.13	4986.8	
828.3	3780.6	
828.47	3218.7	
828.65	5118.6	
828.82	5108.3	
828.99	4814.8	
829.16	4149.9	
829.34	5565.7	
829.51	5290.6	
829.68	3842.7	
829.85	4050.9	
830.02	5750.7	
830.2	5506.3	
830.37	3001	
830.54	4711	
830.71	6311.2	
830.88	4910.3	
831.05	3128.6	
831.23	3544.4	
831.4	6005.3	
831.57	6713.2	
831.74	3558.7	
831.91	3235.8	
832.09	5139.7	
832.26	5544.5	
832.43	3755.3	
832.6	4179.2	
832.77	5186.1	
832.94	5857.2	
833.12	3005.1	
833.29	3689.1	
833.46	5300.8	
833.63	6902.3	
833.8	4019.5	
833.97	3728	
834.15	5565.7	
834.32	5351.3	
834.49	3910.3	
834.66	3979.2	
834.83	5706.3	
835	4694.6	
835.17	3611.9	
835.35	3547.1	
835.52	5446.2	
835.69	5335.6	
835.86	3807.9	
836.03	3132.7	
836.2	5470.8	
836.37	5113.8	
836.55	3744.4	
836.72	3549.1	
836.89	5148.6	
837.06	5606	
837.23	3821.5	
837.4	4172.4	
837.57	6310.5	
837.75	6928.3	
837.92	3360	
838.09	3629.7	
838.26	5071.5	
838.43	5770.5	
838.6	3936.2	
838.77	3514.3	
838.94	6545.3	
839.11	6307.1	
839.29	3732.8	
839.46	2964.1	
839.63	5451.7	
839.8	5190.9	
839.97	3652.2	
840.14	3570.3	
840.31	5292.6	
840.48	5495.4	
840.65	3065.8	
840.82	3560.7	
841	5506.3	
841.17	5422.3	
841.34	3359.4	
841.51	3385.3	
841.68	5414.8	
841.85	5144.5	
842.02	3465.2	
842.19	2878.1	
842.36	5294	
842.53	5210.7	
842.7	3347.7	
842.87	4130.1	
843.05	6862.1	
843.22	5195.7	
843.39	3132.7	
843.56	3523.2	
843.73	4975.2	
843.9	5563.6	
844.07	5356.1	
844.24	4405.9	
844.41	7921.5	
844.58	4775.2	
844.75	3259.7	
844.92	3525.2	
845.09	5465.3	
845.26	5415.5	
845.43	3314.3	
845.6	3471.3	
845.77	5470.8	
845.94	5241.4	
846.12	3634.5	
846.29	3919.8	
846.46	5760.9	
846.63	5456.5	
846.8	3317.7	
846.97	3936.2	
847.14	5924.8	
847.31	5350	
847.48	3773.7	
847.65	4105.5	
847.82	5763	
847.99	5708.4	
848.16	4417.5	
848.33	4058.4	
848.5	5043.5	
848.67	5935.7	
848.84	3302.7	
849.01	3401	
849.18	4970.4	
849.35	4653.7	
849.52	4138.3	
849.69	3233.7	
849.86	5706.3	
850.03	5836	
850.2	3310.2	
850.37	4014	
850.54	5806	
850.71	5205.9	
850.88	3900	
851.05	3263.8	
851.22	5413.5	
851.39	5958.2	
851.56	3153.9	
851.73	3784	
851.9	4801.8	
852.07	5673.6	
852.24	3648.8	
852.41	3279.5	
852.58	5409.4	
852.75	4891.9	
852.92	3713	
853.09	3208.5	
853.26	5107.6	
853.43	5879	
853.6	3270.6	
853.77	2824.1	
853.94	6018.3	
854.11	5393	
854.28	4715.1	
854.44	3609.2	
854.61	6361	
854.78	5782.1	
854.95	3330	
855.12	4102.1	
855.29	4429.1	
855.46	6234	
855.63	3237.2	
855.8	4539.7	
855.97	5051.7	
856.14	5787.6	
856.31	4679.6	
856.48	3575.8	
856.65	5104.2	
856.82	4770.4	
856.99	3215.3	
857.16	3545.7	
857.33	6638.1	
857.49	5139.7	
857.66	3587.4	
857.83	3786	
858	5143.1	
858.17	5307.7	
858.34	3144.3	
858.51	3324.5	
858.68	6130.3	
858.85	6126.8	
859.02	3781.9	
859.19	4108.9	
859.36	4842.1	
859.52	4865.3	
859.69	3338.2	
859.86	3930.1	
860.03	4915.1	
860.2	5998.5	
860.37	3005.1	
860.54	3333.4	
860.71	5598.5	
860.88	6017.6	
861.05	3679.5	
861.21	4197.7	
861.38	6075	
861.55	4669.4	
861.72	3004.4	
861.89	3678.2	
862.06	5780.1	
862.23	6234.7	
862.4	3180.5	
862.56	3445.4	
862.73	5609.4	
862.9	5250.3	
863.07	3848.8	
863.24	2988.7	
863.41	4705.5	
863.58	4831.8	
863.75	3358.7	
863.91	3857.7	
864.08	6021.7	
864.25	5634.6	
864.42	4123.2	
864.59	4586.1	
864.76	6339.1	
864.93	4885.8	
865.09	3209.8	
865.26	3495.2	
865.43	5938.4	
865.6	6350.1	
865.77	2927.9	
865.94	3273.3	
866.1	5979.4	
866.27	5695.4	
866.44	4936.3	
866.61	3178.4	
866.78	5180	
866.95	5645.6	
867.11	3217.4	
867.28	2917	
867.45	5801.2	
867.62	4891.9	
867.79	3741	
867.96	3277.4	
868.12	4827.7	
868.29	5665.4	
868.46	2865.1	
868.63	4365.6	
868.8	5868.1	
868.97	5637.4	
869.13	3440.6	
869.3	3476.1	
869.47	5599.8	
869.64	5788.9	
869.81	3383.9	
869.97	3317.7	
870.14	5446.2	
870.31	6039.5	
870.48	3211.9	
870.65	4147.8	
870.81	5155.4	
870.98	5128.8	
871.15	3719.8	
871.32	3437.2	
871.48	5542.5	
871.65	6126.2	
871.82	3274	
871.99	3638.6	
872.16	6566.5	
872.32	5941.2	
872.49	3327.3	
872.66	3369.6	
872.83	5675.6	
872.99	4967	
873.16	3760.1	
873.33	3289.7	
873.5	5347.9	
873.67	5345.9	
873.83	3476.1	
874	4388.8	
874.17	5513.8	
874.34	6422.4	
874.5	4250.2	
874.67	4095.3	
874.84	6083.8	
875.01	4749.9	
875.17	4603.2	
875.34	3340.9	
875.51	5339.7	
875.68	6444.3	
875.84	4006.5	
876.01	4788.2	
876.18	5622.4	
876.34	5565	
876.51	3310.9	
876.68	3219.4	
876.85	5163.6	
877.01	5976.7	
877.18	4656.4	
877.35	3295.9	
877.52	5280.3	
877.68	4700.8	
877.85	3271.3	
878.02	3245.3	
878.18	5192.3	
878.35	4911.7	
878.52	2648.7	
878.69	3663.1	
878.85	5681.1	
879.02	5643.5	
879.19	4640.7	
879.35	3566.9	
879.52	5643.5	
879.69	5786.9	
879.86	2858.3	
880.02	3670.6	
880.19	5236.7	
880.36	6400.6	
880.52	3794.2	
880.69	3893.9	
880.86	5706.3	
881.02	5748	
881.19	3568.2	
881.36	3618.1	
881.52	5614.2	
881.69	4941.1	
881.86	3571	
882.02	3437.9	
882.19	5939.8	
882.36	6870.3	
882.52	3400.3	
882.69	4606.6	
882.86	5437.4	
883.02	5287.2	
883.19	3986.7	
883.36	3794.2	
883.52	5723.4	
883.69	6470.2	
883.86	3374.4	
884.02	2992.8	
884.19	5698.1	
884.36	5313.1	
884.52	3722.5	
884.69	3522.5	
884.86	5034.6	
885.02	6218.3	
885.19	3683.6	
885.36	3819.5	
885.52	5225.7	
885.69	5397.1	
885.86	4808.6	
886.02	4231.8	
886.19	5645.6	
886.35	5162.2	
886.52	3639.2	
886.69	4597.7	
886.85	4852.3	
887.02	5996.5	
887.19	5996.5	
887.35	5996.5	
887.52	5996.5	
887.68	5996.5	
887.85	5996.5	
888.02	5996.5	
888.18	5996.5	
888.35	5996.5	
888.51	5996.5	
888.68	5996.5	
888.85	5996.5	
889.01	5996.5	
889.18	5996.5	
889.35	5996.5	
889.51	5996.5	
889.68	5996.5	
889.84	5996.5	
890.01	5996.5	
890.17	5996.5	
890.34	5996.5	
890.51	5996.5	
890.67	5996.5	
890.84	5996.5	
891	5996.5	
891.17	5996.5	
891.34	5996.5	
891.5	5996.5	
891.67	5996.5	
891.83	5996.5	
892	5996.5	
892.16	5996.5	
892.33	5996.5	
892.5	5996.5	
892.66	5996.5	
892.83	5996.5	
892.99	5996.5	
893.16	5996.5	
893.32	5996.5	
893.49	5996.5	
893.65	5996.5	
893.82	5996.5	
893.99	5996.5	
894.15	5996.5	
894.32	5996.5	
894.48	5996.5	
894.65	5996.5	
894.81	5996.5	
894.98	5996.5	
895.14	5996.5	
895.31	5996.5	
895.47	5996.5	
895.64	5996.5	
895.81	5996.5	
895.97	5996.5	
896.14	5996.5	
896.3	5996.5	
896.47	5996.5	
896.63	5996.5	
896.8	5996.5	
896.96	5996.5	
897.13	5996.5	
897.29	5996.5	
897.46	5996.5	
897.62	5996.5	
897.79	5996.5	
897.95	5996.5	
898.12	5996.5	
898.28	5996.5	
898.45	5996.5	
898.61	5996.5	
898.78	5996.5	
898.94	5996.5	
899.11	5996.5	
899.27	5996.5	
899.44	5996.5	
899.6	5996.5	
899.77	5996.5	
899.93	5996.5	
900.1	5996.5	
900.26	5996.5	
900.43	5996.5	
900.59	5996.5	
900.76	5996.5	
900.92	5996.5	
901.09	5996.5	
901.25	5996.5	
901.42	5996.5	
901.58	5996.5	
901.75	5996.5	
901.91	5996.5	
902.07	5996.5	
902.24	5996.5	
902.4	5996.5	
902.57	5996.5	
902.73	5996.5	
902.9	5996.5	
903.06	5996.5	
903.23	5996.5	
903.39	5996.5	
903.56	5996.5	
903.72	5996.5	
903.88	5996.5	
904.05	5996.5	
904.21	5996.5	
904.38	5996.5	
904.54	5996.5	
904.71	5996.5	
904.87	5996.5	
905.03	5996.5	
905.2	5996.5	
905.36	5996.5	
905.53	5996.5	
905.69	5996.5	
905.86	5996.5	
906.02	5996.5	
906.18	5996.5	
906.35	5996.5	
906.51	5996.5	
906.68	5996.5	
906.84	5996.5	
907.01	5996.5	
907.17	5996.5	
907.33	5996.5	
907.5	5996.5	
907.66	5996.5	
907.83	5996.5	
907.99	5996.5	
908.15	5996.5	
908.32	5996.5	
908.48	5996.5	
908.65	5996.5	
908.81	5996.5	
908.97	5996.5	
909.14	5996.5	
909.3	5996.5	
909.47	5996.5	
909.63	5996.5	
909.79	5996.5	
909.96	5996.5	
910.12	5996.5	
910.28	5996.5	
910.45	5996.5	
910.61	5996.5	
910.78	5996.5	
910.94	5996.5	
911.1	5996.5	
911.27	5996.5	
911.43	5996.5	
911.59	5996.5	
911.76	5996.5	
911.92	5996.5	
912.08	5996.5	
912.25	5996.5	
912.41	5996.5	
912.57	5996.5	
912.74	5996.5	
912.9	5996.5	
913.07	5996.5	
913.23	5996.5	
913.39	5996.5	
913.56	5996.5	
913.72	5996.5	
913.88	5996.5	
914.05	5996.5	
914.21	5996.5	
914.37	5996.5	
914.54	5996.5	
914.7	5996.5	
914.86	5996.5	
915.03	5996.5	
915.19	5996.5	
