Wavelength	Intensities	
nm	a.u.	
179.22	1734.8	
179.44	1737	
179.65	1732.6	
179.86	1741.5	
180.08	1716.9	
180.29	4148.5	
180.51	3064.4	
180.72	5066.7	
180.94	5740.5	
181.15	2787.3	
181.37	2784.6	
181.58	4911.7	
181.79	5137.7	
182.01	2955.9	
182.22	3068.5	
182.44	5128.1	
182.65	4457.7	
182.87	3857	
183.08	3343.7	
183.29	5411.4	
183.51	4514.4	
183.72	3141.6	
183.94	4319.2	
184.15	4816.8	
184.37	4868.7	
184.58	2779.1	
184.79	3557.3	
185.01	4547.9	
185.22	5126.1	
185.44	3878.9	
185.65	3295.9	
185.86	4765.6	
186.08	4437.3	
186.29	2723.8	
186.51	2875.3	
186.72	4554	
186.94	5228.5	
187.15	3277.4	
187.36	3423.5	
187.58	6595.8	
187.79	4909.7	
188.01	3459	
188.22	5271.5	
188.43	5754.1	
188.65	5072.8	
188.86	2866.5	
189.08	3360	
189.29	4722.6	
189.5	4626.4	
189.72	3147	
189.93	3215.3	
190.15	5281	
190.36	6203.3	
190.57	3444	
190.79	3312.2	
191	5307.7	
191.22	5253.7	
191.43	3427.6	
191.64	2926.5	
191.86	5513.1	
192.07	5252.4	
192.29	2998.2	
192.5	3209.8	
192.71	5329.5	
192.93	4638	
193.14	3079.5	
193.35	3191.4	
193.57	4592.2	
193.78	5330.9	
194	2592	
194.21	3065.1	
194.42	4504.2	
194.64	4855.1	
194.85	3417.4	
195.07	3889.8	
195.28	4855.1	
195.49	4246.8	
195.71	4077.5	
195.92	2940.9	
196.13	5033.9	
196.35	5095.3	
196.56	4255	
196.78	3381.2	
196.99	6092.7	
197.2	5725.4	
197.42	3728	
197.63	3446	
197.84	4399.7	
198.06	5010.7	
198.27	3103.4	
198.48	4104.8	
198.7	4644.8	
198.91	4866.7	
199.13	3467.9	
199.34	3414	
199.55	5240.1	
199.77	4238.6	
199.98	3043.3	
200.19	3471.3	
200.41	4704.9	
200.62	4544.4	
200.83	3525.2	
201.05	3824.2	
201.26	4753.3	
201.47	4627.7	
201.69	3121.1	
201.9	2968.2	
202.11	4851	
202.33	5573.9	
202.54	3232.4	
202.76	3617.4	
202.97	4941.1	
203.18	4938.3	
203.4	3528	
203.61	3538.9	
203.82	4896	
204.04	4592.2	
204.25	3404.4	
204.46	3360.7	
204.68	4826.4	
204.89	5002.5	
205.1	3357.3	
205.32	2907.4	
205.53	5188.2	
205.74	5313.8	
205.96	2563.4	
206.17	3487	
206.38	5075.5	
206.6	5263.3	
206.81	3862.5	
207.02	3155.2	
207.24	5083.1	
207.45	5337	
207.66	3248.8	
207.88	2846.7	
208.09	4959.5	
208.3	4844.8	
208.52	3033.7	
208.73	3311.6	
208.94	4795.7	
209.15	5421.7	
209.37	3235.1	
209.58	3694.5	
209.79	5308.3	
210.01	4695.3	
210.22	2709.5	
210.43	2821.4	
210.65	4825	
210.86	5197.1	
211.07	3250.8	
211.29	2988	
211.5	5066	
211.71	4807.3	
211.93	3050.8	
212.14	3016	
212.35	4771.1	
212.56	4886.5	
212.78	3464.5	
212.99	2865.8	
213.2	5562.3	
213.42	4674.1	
213.63	3067.9	
213.84	3278.1	
214.06	4388.1	
214.27	4444.1	
214.48	3226.9	
214.69	3479.5	
214.91	5363.6	
215.12	5479.7	
215.33	3482.2	
215.55	3784.6	
215.76	5838.1	
215.97	5116.5	
216.18	3366.2	
216.4	3310.9	
216.61	4579.9	
216.82	5201.2	
217.04	3082.9	
217.25	3136.8	
217.46	5281	
217.67	5141.1	
217.89	2757.9	
218.1	2830.3	
218.31	4870.8	
218.53	5023	
218.74	3173.7	
218.95	3127.9	
219.16	4843.4	
219.38	5537.7	
219.59	3108.8	
219.8	3590.1	
220.01	6006.7	
220.23	4903.5	
220.44	3870	
220.65	2983.9	
220.87	4861.2	
221.08	5333.6	
221.29	2919	
221.5	3637.2	
221.72	6313.2	
221.93	4576.5	
222.14	3412.6	
222.35	3983.3	
222.57	4827.7	
222.78	5141.1	
222.99	3284.9	
223.2	3471.3	
223.42	5082.4	
223.63	5143.1	
223.84	2570.2	
224.05	2587.9	
224.27	5887.9	
224.48	5509	
224.69	3954.6	
224.9	3443.3	
225.12	4958.8	
225.33	4859.8	
225.54	2765.4	
225.75	3061.7	
225.97	4518.5	
226.18	4786.1	
226.39	3277.4	
226.6	3063.1	
226.82	4673.5	
227.03	4492.6	
227.24	3355.9	
227.45	2820.1	
227.67	5185.5	
227.88	5488.6	
228.09	3842	
228.3	3779.2	
228.52	5184.1	
228.73	4795.7	
228.94	3137.5	
229.15	2880.8	
229.36	4767.7	
229.58	4741.7	
229.79	3240.6	
230	3638.6	
230.21	5662.6	
230.43	4906.9	
230.64	3346.4	
230.85	3480.2	
231.06	5236.7	
231.28	5159.5	
231.49	2850.8	
231.7	3329.3	
231.91	5136.3	
232.12	4842.8	
232.34	2970.9	
232.55	3321.1	
232.76	5327.4	
232.97	4932.9	
233.18	3041.9	
233.4	3367.5	
233.61	5008.6	
233.82	4629.1	
234.03	3177.8	
234.25	3087.7	
234.46	6411.5	
234.67	4858.5	
234.88	3506.1	
235.09	3056.3	
235.31	5052.3	
235.52	4748.6	
235.73	3379.1	
235.94	2927.9	
236.15	4600.4	
236.37	5698.8	
236.58	3035.1	
236.79	3291.1	
237	5050.3	
237.21	4415.4	
237.43	3492.5	
237.64	2825.5	
237.85	8067.6	
238.06	4534.9	
238.27	3541.6	
238.48	2937.5	
238.7	5166.3	
238.91	4739	
239.12	3259	
239.33	3324.5	
239.54	4547.9	
239.76	4728.1	
239.97	3218.7	
240.18	3253.5	
240.39	5877.7	
240.6	4960.2	
240.82	3456.3	
241.03	2891.7	
241.24	4812	
241.45	5444.2	
241.66	3005.7	
241.87	3524.6	
242.09	5434.6	
242.3	5680.4	
242.51	3519.1	
242.72	3301.3	
242.93	5198.4	
243.14	4826.4	
243.36	3758	
243.57	3973.7	
243.78	5454.4	
243.99	5152	
244.2	3211.9	
244.41	2988	
244.63	4459.1	
244.84	5025	
245.05	3521.1	
245.26	3261	
245.47	5078.3	
245.68	5204.6	
245.9	4214	
246.11	3409.9	
246.32	4715.1	
246.53	5023	
246.74	5183.4	
246.95	2788.7	
247.16	4537.6	
247.38	4881.7	
247.59	2829.6	
247.8	3314.3	
248.01	4515.8	
248.22	4807.3	
248.43	3020.8	
248.64	3252.9	
248.86	4372.4	
249.07	4664.6	
249.28	2950.4	
249.49	3330.7	
249.7	5297.4	
249.91	5334.3	
250.12	2826.9	
250.34	2865.1	
250.55	4939.7	
250.76	4838	
250.97	3434.4	
251.18	3382.6	
251.39	5384.8	
251.6	4906.3	
251.81	3434.4	
252.03	3402.4	
252.24	4661.2	
252.45	5189.6	
252.66	2925.9	
252.87	3588.7	
253.08	4867.3	
253.29	6170.5	
253.5	2919	
253.72	3936.2	
253.93	4731.5	
254.14	5630.5	
254.35	3129.3	
254.56	3190.7	
254.77	5009.3	
254.98	4547.9	
255.19	3139.5	
255.41	3933.5	
255.62	4983.4	
255.83	5345.9	
256.04	3489.1	
256.25	3344.3	
256.46	5755.5	
256.67	4545.1	
256.88	3388	
257.09	3658.4	
257.31	4549.9	
257.52	4549.9	
257.73	4209.3	
257.94	3116.3	
258.15	4758.1	
258.36	4846.9	
258.57	3928	
258.78	2549.7	
258.99	5252.4	
259.2	4715.8	
259.41	3152.5	
259.63	3245.3	
259.84	5464	
260.05	5742.5	
260.26	4040.6	
260.47	3048.1	
260.68	5335.6	
260.89	4763.6	
261.1	3735.5	
261.31	2992.8	
261.52	5365	
261.73	5603.2	
261.95	3969.6	
262.16	3487.7	
262.37	5380.7	
262.58	5464.7	
262.79	3993.5	
263	3170.3	
263.21	4841.4	
263.42	4704.2	
263.63	3442.6	
263.84	3159.3	
264.05	5235.3	
264.26	5616.9	
264.47	3829	
264.69	3533.4	
264.9	5413.5	
265.11	4991.6	
265.32	3099.9	
265.53	3120.4	
265.74	4962.9	
265.95	4350.6	
266.16	3354.6	
266.37	3646.7	
266.58	4899.4	
266.79	4635.9	
267	3104	
267.21	2902.7	
267.42	4540.3	
267.63	4827.7	
267.84	3259.7	
268.06	2827.6	
268.27	5165	
268.48	5386.2	
268.69	3206.4	
268.9	3767.6	
269.11	5313.1	
269.32	4399.7	
269.53	3261.7	
269.74	3126.6	
269.95	5069.4	
270.16	4366.3	
270.37	3338.2	
270.58	3771.7	
270.79	4692.6	
271	5284.4	
271.21	3466.5	
271.42	3290.4	
271.63	4952	
271.84	4471.4	
272.05	2676.7	
272.26	2997.5	
272.47	4820.9	
272.68	4999.8	
272.89	3192.8	
273.11	3583.3	
273.32	4687.8	
273.53	5523.4	
273.74	3524.6	
273.95	3368.9	
274.16	5266	
274.37	4864.6	
274.58	3592.1	
274.79	2899.2	
275	4990.2	
275.21	5319.9	
275.42	4212.7	
275.63	3612.6	
275.84	5008.6	
276.05	6149.4	
276.26	3467.9	
276.47	3216.7	
276.68	4786.1	
276.89	5682.4	
277.1	3605.8	
277.31	2902	
277.52	5047.6	
277.73	5309.7	
277.94	2910.2	
278.15	3211.9	
278.36	5004.6	
278.57	4563.6	
278.78	3165.5	
278.99	3576.4	
279.2	4587.4	
279.41	4468	
279.62	4100	
279.83	2973.7	
280.04	5773.2	
280.25	4467.3	
280.46	4090.5	
280.67	3287.7	
280.88	4611.3	
281.09	5350.7	
281.3	3443.3	
281.51	4278.2	
281.72	4621.6	
281.93	5203.9	
282.14	3126.6	
282.35	3322.5	
282.56	5301.5	
282.77	5124.7	
282.98	3239.2	
283.19	3940.3	
283.4	6311.8	
283.61	4749.9	
283.82	3005.1	
284.03	4016.7	
284.24	4998.4	
284.45	5326.8	
284.66	4015.4	
284.87	3854.3	
285.08	5322	
285.29	5408.7	
285.5	2895.8	
285.71	3247.4	
285.92	5284.4	
286.12	5829.2	
286.33	3973.7	
286.54	3241.3	
286.75	5199.1	
286.96	4754	
287.17	3005.1	
287.38	3840.6	
287.59	4621.6	
287.8	4630.5	
288.01	3228.3	
288.22	3629.7	
288.43	5207.3	
288.64	4405.2	
288.85	3771	
289.06	3579.2	
289.27	5208.7	
289.48	5517.9	
289.69	4029.7	
289.9	3631	
290.11	5334.3	
290.32	4635.9	
290.53	3784.6	
290.74	3508.9	
290.94	5169.8	
291.15	5249.6	
291.36	3102.7	
291.57	3590.1	
291.78	4673.5	
291.99	4314.4	
292.2	3044.6	
292.41	3495.9	
292.62	5238	
292.83	5089.9	
293.04	4254.3	
293.25	3015.3	
293.46	4691.9	
293.67	5300.8	
293.88	3094.5	
294.09	2966.1	
294.29	4567	
294.5	4986.1	
294.71	3302	
294.92	3202.3	
295.13	4711.7	
295.34	5703.6	
295.55	2850.1	
295.76	2788.7	
295.97	5169.8	
296.18	5691.3	
296.39	2935.4	
296.6	3102.7	
296.81	4932.9	
297.01	5190.2	
297.22	3224.2	
297.43	3155.2	
297.64	4633.2	
297.85	4551.3	
298.06	2629.6	
298.27	2887.6	
298.48	4829.1	
298.69	4577.2	
298.9	3356.6	
299.11	3038.5	
299.31	4459.8	
299.52	4554.7	
299.73	3544.4	
299.94	3508.2	
300.15	4872.8	
300.36	4582	
300.57	3478.1	
300.78	3472	
300.99	4714.4	
301.2	4919.9	
301.4	3109.5	
301.61	3321.1	
301.82	5086.5	
302.03	5221.6	
302.24	3745.1	
302.45	2965.5	
302.66	5074.9	
302.87	5367	
303.08	3116.3	
303.29	4141.7	
303.49	4687.8	
303.7	4844.8	
303.91	2786.6	
304.12	3936.2	
304.33	4468	
304.54	4941.1	
304.75	3126.6	
304.96	3004.4	
305.16	5113.8	
305.37	5687.9	
305.58	2790.7	
305.79	2782.5	
306	5114.5	
306.21	4417.5	
306.42	3057.6	
306.63	4595.6	
306.83	4706.9	
307.04	5160.9	
307.25	3411.2	
307.46	3347.1	
307.67	4298.7	
307.88	5156.1	
308.09	3118.4	
308.29	3136.1	
308.5	4920.6	
308.71	5341.8	
308.92	3252.9	
309.13	3001.6	
309.34	4798.4	
309.55	4767.7	
309.75	3803.8	
309.96	3452.9	
310.17	5179.3	
310.38	4582	
310.59	3667.2	
310.8	2964.8	
311.01	4713.7	
311.21	4804.5	
311.42	3011.9	
311.63	3097.2	
311.84	4657.8	
312.05	4930.1	
312.26	3411.9	
312.46	3687.7	
312.67	4745.8	
312.88	4459.1	
313.09	2972.3	
313.3	3011.2	
313.51	5418.2	
313.71	5741.1	
313.92	3000.3	
314.13	3099.3	
314.34	5029.1	
314.55	4823.6	
314.76	3784.6	
314.96	3349.8	
315.17	4960.2	
315.38	5170.4	
315.59	3009.1	
315.8	2947	
316.01	5444.9	
316.21	5600.5	
316.42	2979.8	
316.63	3294.5	
316.84	4748.6	
317.05	5391.6	
317.26	3456.3	
317.46	3177.1	
317.67	4792.9	
317.88	5159.5	
318.09	3709.6	
318.3	2789.3	
318.5	4684.4	
318.71	5058.5	
318.92	4691.9	
319.13	3521.1	
319.34	5255.8	
319.54	5374.6	
319.75	2851.5	
319.96	2752.5	
320.17	5072.8	
320.38	5334.3	
320.58	2777.7	
320.79	3270.6	
321	5328.1	
321.21	5411.4	
321.42	3293.1	
321.62	2788.7	
321.83	4542.4	
322.04	4842.8	
322.25	3206.4	
322.46	3006.4	
322.66	4912.4	
322.87	5062.6	
323.08	3684.3	
323.29	2956.6	
323.5	5687.2	
323.7	4528.1	
323.91	3997.6	
324.12	3603.7	
324.33	4957.4	
324.53	5067.4	
324.74	3520.5	
324.95	3641.3	
325.16	4401.8	
325.37	4698	
325.57	3025.5	
325.78	3050.8	
325.99	4927.4	
326.2	4422.9	
326.4	4148.5	
326.61	2846	
326.82	4820.2	
327.03	4897.4	
327.24	4244.1	
327.44	3934.8	
327.65	5048.9	
327.86	4217.5	
328.07	3501.3	
328.27	2934.7	
328.48	5427.8	
328.69	4517.1	
328.9	4189.5	
329.1	3158	
329.31	4810.7	
329.52	5505.6	
329.73	3022.1	
329.93	3336.8	
330.14	4866	
330.35	4997.7	
330.56	4729.4	
330.76	3631.7	
330.97	4730.1	
331.18	4954.7	
331.39	3373.7	
331.59	2761.3	
331.8	5283.1	
332.01	5381.4	
332.22	3092.4	
332.42	3515	
332.63	4928.1	
332.84	4576.5	
333.05	3379.1	
333.25	3042.6	
333.46	4658.4	
333.67	4777.9	
333.88	3165.5	
334.08	3411.2	
334.29	6274.3	
334.5	5334.3	
334.7	2968.9	
334.91	4137.6	
335.12	4485.1	
335.33	5112.4	
335.53	3311.6	
335.74	4693.3	
335.95	4696	
336.16	4571.1	
336.36	3275.4	
336.57	3786.7	
336.78	4474.1	
336.98	5312.4	
337.19	4014	
337.4	3267.2	
337.61	5743.9	
337.81	4461.2	
338.02	3093.1	
338.23	3825.6	
338.43	5467.4	
338.64	4607.2	
338.85	3097.9	
339.05	3899.3	
339.26	5554.8	
339.47	4364.2	
339.68	3024.8	
339.88	4369.7	
340.09	5061.2	
340.3	5212.8	
340.5	3532.7	
340.71	2749.1	
340.92	4489.8	
341.13	5397.8	
341.33	2904.7	
341.54	3480.2	
341.75	5037.3	
341.95	4663.9	
342.16	3375.1	
342.37	3654.3	
342.57	4470	
342.78	4745.8	
342.99	3674.7	
343.19	2772.3	
343.4	5151.3	
343.61	5022.3	
343.81	3239.9	
344.02	2964.1	
344.23	5160.9	
344.43	5413.5	
344.64	3724.6	
344.85	3613.3	
345.06	5100.8	
345.26	5335.6	
345.47	3485.6	
345.68	4025.6	
345.88	4393.6	
346.09	5178.6	
346.3	3491.8	
346.5	2726.5	
346.71	4858.5	
346.92	4579.9	
347.12	2859.6	
347.33	3465.8	
347.54	5316.5	
347.74	5599.1	
347.95	3429.7	
348.16	2623.4	
348.36	4640	
348.57	4561.5	
348.78	3457.7	
348.98	3536.8	
349.19	4810.7	
349.39	4390.8	
349.6	2862.4	
349.81	3069.9	
350.01	5084.4	
350.22	4642.7	
350.43	3407.1	
350.63	3920.5	
350.84	4887.1	
351.05	4646.8	
351.25	3066.5	
351.46	2877.4	
351.67	5317.9	
351.87	4590.2	
352.08	3269.9	
352.29	3615.3	
352.49	5179.3	
352.7	5291.3	
352.9	3004.4	
353.11	3639.2	
353.32	5745.9	
353.52	4732.2	
353.73	2948.4	
353.94	3693.9	
354.14	5036	
354.35	4930.1	
354.55	3098.6	
354.76	3368.2	
354.97	5109	
355.17	4840	
355.38	2943.6	
355.59	3855	
355.79	4657.8	
356	4887.1	
356.2	3354.6	
356.41	3017.3	
356.62	4465.9	
356.82	4848.2	
357.03	3597.6	
357.24	3263.1	
357.44	4704.2	
357.65	4771.1	
357.85	4218.1	
358.06	3426.9	
358.27	4476.9	
358.47	4567	
358.68	2972.3	
358.88	3540.3	
359.09	5111	
359.3	5348.6	
359.5	4020.2	
359.71	3686.3	
359.91	5679	
360.12	5225.7	
360.33	3542.3	
360.53	4027.7	
360.74	4722.6	
360.94	4734.9	
361.15	3751.2	
361.36	3180.5	
361.56	5335	
361.77	4867.3	
361.97	4141	
362.18	3332.7	
362.38	5296	
362.59	4601.8	
362.8	3151.1	
363	3052.2	
363.21	4476.2	
363.41	4999.1	
363.62	3505.4	
363.83	4300.1	
364.03	5137.7	
364.24	5775.3	
364.44	4400.4	
364.65	4399	
364.85	4945.8	
365.06	4682.3	
365.27	3347.1	
365.47	3318.4	
365.68	5679.7	
365.88	4902.2	
366.09	3647.4	
366.29	3345.7	
366.5	5089.2	
366.71	5378.6	
366.91	4361.5	
367.12	3784	
367.32	5854.5	
367.53	5247.6	
367.73	3758	
367.94	4432.5	
368.14	5284.4	
368.35	5945.9	
368.56	3609.2	
368.76	3186	
368.97	5369.1	
369.17	6587.6	
369.38	3323.2	
369.58	3508.9	
369.79	4612.7	
369.99	5590.3	
370.2	4340.3	
370.4	3547.1	
370.61	5058.5	
370.82	6083.8	
371.02	3543	
371.23	3069.9	
371.43	4616.1	
371.64	5554.1	
371.84	3596.9	
372.05	4453.6	
372.25	6518	
372.46	5321.3	
372.66	3601.7	
372.87	3506.1	
373.07	5378	
373.28	6632	
373.48	4395.6	
373.69	4111.6	
373.9	5026.4	
374.1	5079.6	
374.31	4296	
374.51	3936.2	
374.72	5654.4	
374.92	4853	
375.13	4414.1	
375.33	3878.2	
375.54	5322	
375.74	4941.1	
375.95	3921.9	
376.15	4870.1	
376.36	5413.5	
376.56	5260.5	
376.77	3999.7	
376.97	4287.8	
377.18	6219.7	
377.38	5499.5	
377.59	4510.3	
377.79	3667.2	
378	5292.6	
378.2	5603.9	
378.41	3698.6	
378.61	3596.9	
378.82	5704.3	
379.02	5115.1	
379.23	3801.7	
379.43	4594.3	
379.64	5864.7	
379.84	5437.4	
380.05	3738.9	
380.25	3630.4	
380.46	5539.8	
380.66	5195	
380.87	4654.4	
381.07	4980	
381.28	5960.3	
381.48	5529.5	
381.69	3677.5	
381.89	3725.3	
382.1	4807.3	
382.3	5618.3	
382.51	4521.2	
382.71	5190.2	
382.91	5427.1	
383.12	5872.2	
383.32	3921.9	
383.53	4078.9	
383.73	5281.7	
383.94	5252.4	
384.14	4087.1	
384.35	3364.8	
384.55	5145.2	
384.76	5470.1	
384.96	3977.2	
385.17	4147.8	
385.37	5504.9	
385.58	4877.6	
385.78	4172.4	
385.98	3360.7	
386.19	5129.5	
386.39	5404.6	
386.6	3753.2	
386.8	3875.4	
387.01	5499.5	
387.21	5584.1	
387.42	4192.9	
387.62	4638	
387.83	5070.8	
388.03	5336.3	
388.23	3967.6	
388.44	4519.2	
388.64	4763.6	
388.85	4884.4	
389.05	4189.5	
389.26	4741	
389.46	6403.3	
389.67	5917.9	
389.87	4346.5	
390.07	4304.1	
390.28	5277.6	
390.48	4942.4	
390.69	3648.1	
390.89	3977.8	
391.1	5181.4	
391.3	5783.5	
391.5	4846.2	
391.71	5240.8	
391.91	5683.8	
392.12	6363.7	
392.32	4859.1	
392.53	4246.8	
392.73	5283.1	
392.93	5257.1	
393.14	4023.6	
393.34	4705.5	
393.55	5612.8	
393.75	5233.9	
393.95	4019.5	
394.16	3945.8	
394.36	5117.2	
394.57	5618.9	
394.77	3662.5	
394.98	3898	
395.18	5122	
395.38	5294	
395.59	4605.2	
395.79	3843.4	
396	5260.5	
396.2	5641.5	
396.4	4498	
396.61	4428.4	
396.81	5691.3	
397.02	5231.2	
397.22	4749.2	
397.42	4704.9	
397.63	5840.8	
397.83	5197.1	
398.04	3837.2	
398.24	4296	
398.44	5601.9	
398.65	4904.2	
398.85	3732.1	
399.05	3874.1	
399.26	5187.5	
399.46	6462.7	
399.67	4144.4	
399.87	3921.9	
400.07	5487.9	
400.28	5743.9	
400.48	4074.1	
400.69	4835.3	
400.89	5914.5	
401.09	6265.4	
401.3	3957.4	
401.5	4816.1	
401.7	6410.8	
401.91	6694.1	
402.11	4321.2	
402.32	4422.9	
402.52	5991	
402.72	5867.4	
402.93	4543.8	
403.13	3658.4	
403.33	6406.7	
403.54	5364.3	
403.74	4177.9	
403.94	4830.5	
404.15	5487.9	
404.35	6302.3	
404.56	4108.9	
404.76	5418.2	
404.96	5810.1	
405.17	5678.3	
405.37	4783.4	
405.57	4487.8	
405.78	5963	
405.98	5498.1	
406.18	4181.3	
406.39	4782	
406.59	5871.5	
406.79	5545.2	
407	3921.2	
407.2	4014	
407.4	5902.2	
407.61	6012.2	
407.81	4039.3	
408.01	5775.3	
408.22	5098.8	
408.42	6655.2	
408.62	4971.8	
408.83	4649.6	
409.03	5724.8	
409.23	5662.6	
409.44	4683	
409.64	4843.4	
409.84	6504.3	
410.05	6479.1	
410.25	4848.9	
410.45	4686.4	
410.66	6072.2	
410.86	7882.6	
411.06	5031.2	
411.27	4864.6	
411.47	7871.7	
411.67	6262.7	
411.88	5085.8	
412.08	5331.5	
412.28	6676.4	
412.49	7114.6	
412.69	4969.7	
412.89	4980	
413.09	6980.2	
413.3	6888.7	
413.5	5105.6	
413.7	4827.7	
413.91	6363	
414.11	7019.8	
414.31	4922.6	
414.52	5248.3	
414.72	6810.9	
414.92	6652.5	
415.12	4932.2	
415.33	5407.3	
415.53	7026.6	
415.73	7164.5	
415.94	5612.1	
416.14	5260.5	
416.34	6232.7	
416.55	6035.4	
416.75	6189	
416.95	5639.4	
417.15	7048.4	
417.36	7597.3	
417.56	6313.2	
417.76	5645.6	
417.97	7271	
418.17	7086	
418.37	5313.8	
418.57	5335	
418.78	7025.2	
418.98	6694.1	
419.18	6021	
419.38	5928.2	
419.59	6584.2	
419.79	6384.2	
419.99	5201.2	
420.2	5441.5	
420.4	7036.8	
420.6	7145.4	
420.8	5130.2	
421.01	5040.1	
421.21	6975.4	
421.41	7081.9	
421.61	5443.5	
421.82	5257.1	
422.02	6603.3	
422.22	7256	
422.42	5808	
422.63	5495.4	
422.83	6582.2	
423.03	7583.6	
423.23	5543.9	
423.44	4749.9	
423.64	6660	
423.84	6400.6	
424.04	5081.7	
424.25	4840	
424.45	7281.9	
424.65	7322.9	
424.85	4726	
425.06	5086.5	
425.26	7415	
425.46	6537.1	
425.66	5510.4	
425.87	5261.2	
426.07	7175.4	
426.27	6972.7	
426.47	5298.8	
426.67	4749.9	
426.88	7400	
427.08	6892.1	
427.28	5535.7	
427.48	4845.5	
427.69	6126.2	
427.89	6573.3	
428.09	5425.1	
428.29	4777.9	
428.5	7114.6	
428.7	6735.1	
428.9	4751.3	
429.1	5096.7	
429.3	6706.4	
429.51	6918.7	
429.71	4984.8	
429.91	5674.2	
430.11	6997.2	
430.31	7397.9	
430.52	5294	
430.72	5516.5	
430.92	7453.9	
431.12	7006.1	
431.32	4992.3	
431.53	5235.3	
431.73	6109.8	
431.93	7357	
432.13	4976.6	
432.33	4862.6	
432.54	6621.1	
432.74	6702.3	
432.94	4824.3	
433.14	5677.7	
433.34	7038.9	
433.55	6610.8	
433.75	5606.7	
433.95	6951.5	
434.15	6876.4	
434.35	6602.7	
434.56	5028.4	
434.76	4640	
434.96	6826.6	
435.16	7032.7	
435.36	4871.4	
435.56	5934.3	
435.77	6608.1	
435.97	6733.7	
436.17	6350.8	
436.37	5715.2	
436.57	6588.3	
436.78	6530.3	
436.98	7127.6	
437.18	6252.4	
437.38	7100.3	
437.58	6677.7	
437.78	6395.1	
437.99	5249.6	
438.19	7037.5	
438.39	7645.8	
438.59	5152	
438.79	4706.9	
438.99	7540.6	
439.2	6590.4	
439.4	4767.7	
439.6	4849.6	
439.8	6876.4	
440	7744.7	
440.2	5763	
440.4	5855.8	
440.61	7342.7	
440.81	7658	
441.01	5212.8	
441.21	5989.6	
441.41	7656.7	
441.61	7352.9	
441.81	6102.3	
442.02	6901.7	
442.22	7951.6	
442.42	7367.9	
442.62	5223	
442.82	5250.3	
443.02	7776.1	
443.22	7015	
443.43	5593.7	
443.63	5281.7	
443.83	6773.3	
444.03	6823.8	
444.23	6215.6	
444.43	5924.1	
444.63	7228	
444.83	8098.4	
445.04	5477	
445.24	6323.4	
445.44	7480.5	
445.64	7380.9	
445.84	5859.2	
446.04	5924.1	
446.24	6836.1	
446.44	7646.4	
446.65	5180	
446.85	5507.7	
447.05	7066.2	
447.25	7641.7	
447.45	5621.7	
447.65	5190.2	
447.85	7120.8	
448.05	6733	
448.25	5944.6	
448.46	5795.1	
448.66	7086	
448.86	6855.9	
449.06	5139.7	
449.26	5961.6	
449.46	7372	
449.66	6675	
449.86	5627.1	
450.06	5629.9	
450.26	6824.5	
450.47	7248.4	
450.67	5750.7	
450.87	6049.7	
451.07	7494.2	
451.27	7199.3	
451.47	5341.8	
451.67	5776.6	
451.87	6944	
452.07	7841	
452.27	5473.5	
452.47	5406	
452.67	7113.3	
452.88	7498.3	
453.08	4949.9	
453.28	6494.1	
453.48	8103.1	
453.68	7038.2	
453.88	5356.8	
454.08	5460.6	
454.28	7405.5	
454.48	7187	
454.68	5954.1	
454.88	6354.2	
455.08	7545.4	
455.28	7378.1	
455.48	5298.8	
455.68	5787.6	
455.89	7883.3	
456.09	7584.3	
456.29	5623.7	
456.49	5701.5	
456.69	7896.3	
456.89	7260	
457.09	6069.5	
457.29	6395.8	
457.49	7585.7	
457.69	7633.5	
457.89	6039.5	
458.09	5494	
458.29	7413.6	
458.49	7985	
458.69	6249.7	
458.89	5877.7	
459.09	8175.5	
459.29	8182.3	
459.49	5900.9	
459.69	6556.9	
459.9	7798.7	
460.1	7407.5	
460.3	5761.6	
460.5	5631.9	
460.7	7706.5	
460.9	7424.6	
461.1	5306.3	
461.3	6433.4	
461.5	8330.5	
461.7	8001.4	
461.9	5859.9	
462.1	6225.1	
462.3	7690.8	
462.5	8106.5	
462.7	5939.8	
462.9	5958.9	
463.1	8983.1	
463.3	8741.4	
463.5	6138.4	
463.7	6828.6	
463.9	7941.3	
464.1	8187.8	
464.3	6443.6	
464.5	6501.6	
464.7	8398	
464.9	8204.2	
465.1	7537.9	
465.3	6791.7	
465.5	8573.5	
465.7	8665	
465.9	7038.9	
466.1	6764.4	
466.3	8542.1	
466.5	8334.6	
466.7	7602.1	
466.9	6609.5	
467.1	8429.4	
467.3	9150.3	
467.5	7537.9	
467.7	6614.9	
467.9	9357.2	
468.1	9935.4	
468.3	7264.1	
468.5	7595.9	
468.7	8361.2	
468.9	8249.9	
469.1	6950.8	
469.3	7503.8	
469.5	9889	
469.7	8156.4	
469.9	7254.6	
470.1	6765.8	
470.3	8563.2	
470.5	8520.9	
470.7	7626.6	
470.9	6783.6	
471.1	8275.2	
471.3	8514.8	
471.5	6655.9	
471.69	8103.1	
471.89	8187.1	
472.09	7739.3	
472.29	7282.6	
472.49	7459.4	
472.69	7977.5	
472.89	8462.9	
473.09	6538.5	
473.29	6628.6	
473.49	8060.1	
473.69	8106.5	
473.89	7380.9	
474.09	6717.3	
474.29	9030.2	
474.49	8880.7	
474.69	7290.1	
474.89	6848.4	
475.09	8216.5	
475.29	8001.4	
475.49	6373.3	
475.69	6597.9	
475.88	9370.8	
476.08	8508.6	
476.28	6266.1	
476.48	6548	
476.68	8703.9	
476.88	8542.8	
477.08	6468.2	
477.28	6693.4	
477.48	8118.8	
477.68	8636.3	
477.88	6468.9	
478.08	6696.9	
478.28	8885.5	
478.48	8231.5	
478.67	6713.9	
478.87	6156.9	
479.07	8713.4	
479.27	8289.5	
479.47	6823.1	
479.67	6787.7	
479.87	8569.4	
480.07	9017.2	
480.27	6225.1	
480.47	7454.6	
480.67	8279.9	
480.87	8855.4	
481.06	6451.1	
481.26	7204.1	
481.46	8367.3	
481.66	8189.1	
481.86	6913.9	
482.06	7626.6	
482.26	8034.9	
482.46	8906.6	
482.66	6734.4	
482.86	6496.2	
483.05	8411.7	
483.25	7922.2	
483.45	8698.4	
483.65	6833.4	
483.85	8002.1	
484.05	8297	
484.25	7148.1	
484.45	7445.7	
484.65	8930.5	
484.84	8916.9	
485.04	6741.2	
485.24	6701	
485.44	9254.8	
485.64	7891.5	
485.84	6253.8	
486.04	7252.5	
486.24	8241.7	
486.44	8451.3	
486.63	6167.8	
486.83	6934.4	
487.03	8163.9	
487.23	8263.6	
487.43	6292	
487.63	8198.7	
487.83	8417.8	
488.02	9103.9	
488.22	7112.6	
488.42	7563.8	
488.62	8990.6	
488.82	8233.5	
489.02	6808.8	
489.22	6853.9	
489.41	8934.6	
489.61	8746.9	
489.81	6643.6	
490.01	6673	
490.21	8912.1	
490.41	9372.2	
490.61	6646.3	
490.8	6847.7	
491	8533.9	
491.2	8023.9	
491.4	7176.1	
491.6	6499.6	
491.8	8442.4	
491.99	8474.5	
492.19	6358.9	
492.39	6534.4	
492.59	8886.1	
492.79	8935.3	
492.99	7248.4	
493.18	6635.4	
493.38	9108	
493.58	9710.1	
493.78	7249.8	
493.98	6975.4	
494.18	8865	
494.37	8451.3	
494.57	7464.2	
494.77	7382.2	
494.97	9062.3	
495.17	9372.9	
495.37	7172.7	
495.56	7451.9	
495.76	9497.1	
495.96	9361.9	
496.16	8155.7	
496.36	7322.2	
496.55	9381.7	
496.75	8960.5	
496.95	7676.5	
497.15	7483.3	
497.35	9334	
497.54	9288.2	
497.74	7376.8	
497.94	8908.7	
498.14	10005	
498.34	9744.2	
498.53	7270.3	
498.73	7741.3	
498.93	8903.2	
499.13	9310.1	
499.33	7641.7	
499.52	8064.9	
499.72	9437.7	
499.92	9593.4	
500.12	7401.4	
500.32	7601.4	
500.51	9601.6	
500.71	9379.7	
500.91	8168	
501.11	7862.2	
501.31	9611.8	
501.5	9886.2	
501.7	8418.5	
501.9	7716.1	
502.1	9458.2	
502.29	9608.4	
502.49	8010.3	
502.69	8376.9	
502.89	9574.9	
503.09	9426.1	
503.28	7168.6	
503.48	7271.7	
503.68	8884.8	
503.88	8859.5	
504.07	8045.8	
504.27	7643	
504.47	9051.3	
504.67	9258.2	
504.86	7935.9	
505.06	7649.8	
505.26	8960.5	
505.46	10202	
505.65	7555	
505.85	7706.5	
506.05	8807.6	
506.25	9250	
506.44	7040.9	
506.64	7696.9	
506.84	8645.8	
507.04	9438.4	
507.23	7163.1	
507.43	7628	
507.63	10262	
507.83	8816.5	
508.02	7645.8	
508.22	7322.2	
508.42	10460	
508.62	8682.7	
508.81	7362.4	
509.01	7826	
509.21	8521.6	
509.4	8856.8	
509.6	7619.1	
509.8	7160.4	
510	8766.7	
510.19	9848.7	
510.39	7146	
510.59	7260.7	
510.79	8714.8	
510.98	9748.3	
511.18	7277.8	
511.38	7303.1	
511.57	9394.7	
511.77	9103.9	
511.97	7808.2	
512.17	7110.5	
512.36	9257.5	
512.56	9191.3	
512.76	7030	
512.95	6931	
513.15	9402.2	
513.35	8236.2	
513.55	7776.1	
513.74	7101	
513.94	9291.6	
514.14	8953	
514.33	7898.3	
514.53	7591.1	
514.73	8788.5	
514.92	8938.7	
515.12	7250.5	
515.32	7077.1	
515.51	9008.3	
515.71	9462.3	
515.91	8512.7	
516.11	7202	
516.3	10383	
516.5	8722.3	
516.7	7690.1	
516.89	8080.6	
517.09	8752.3	
517.29	8783.1	
517.48	8004.1	
517.68	7366.5	
517.88	8553.7	
518.07	9100.5	
518.27	7794.6	
518.47	6950.1	
518.66	9445.2	
518.86	8467	
519.06	6838.9	
519.25	7245.7	
519.45	8741.4	
519.65	9895.8	
519.84	7726.3	
520.04	8144.1	
520.24	10196	
520.43	9226.8	
520.63	7565.2	
520.83	7303.1	
521.02	8588.5	
521.22	9072.5	
521.42	7629.4	
521.61	8074.5	
521.81	8727.8	
522.01	8936.7	
522.2	7626	
522.4	7365.2	
522.6	9338.1	
522.79	8340.7	
522.99	7415	
523.18	6951.5	
523.38	9162.6	
523.58	9130.5	
523.77	8551	
523.97	7023.2	
524.17	10710	
524.36	10034	
524.56	8109.3	
524.76	7904.5	
524.95	9263	
525.15	8973.5	
525.34	7715.4	
525.54	7809.6	
525.74	9577	
525.93	8675.9	
526.13	8613.1	
526.33	7746.8	
526.52	9888.3	
526.72	9377	
526.91	8776.2	
527.11	8154.3	
527.31	9779.7	
527.5	10163	
527.7	8030.1	
527.89	7412.3	
528.09	9213.1	
528.29	9572.2	
528.48	8402.8	
528.68	8118.1	
528.87	9809.8	
529.07	9848.7	
529.27	8014.4	
529.46	7745.4	
529.66	9625.5	
529.85	9846	
530.05	7567.2	
530.25	8119.5	
530.44	10561	
530.64	9452.1	
530.83	7896.3	
531.03	7955.7	
531.23	9879.4	
531.42	9665	
531.62	8704.5	
531.81	8101.1	
532.01	10099	
532.21	10247	
532.4	7898.3	
532.6	8200.7	
532.79	10766	
532.99	10118	
533.18	8355	
533.38	9058.2	
533.58	9732.6	
533.77	10294	
533.97	8258.1	
534.16	8913.4	
534.36	10541	
534.55	9785.2	
534.75	9071.1	
534.95	8353	
535.14	10475	
535.34	9863	
535.53	8090.2	
535.73	9471.9	
535.92	10857	
536.12	9930.6	
536.31	8115.4	
536.51	9109.4	
536.71	10093	
536.9	9729.2	
537.1	8212.4	
537.29	8387.8	
537.49	10516	
537.68	9658.9	
537.88	8600.8	
538.07	7931.1	
538.27	9925.1	
538.46	10781	
538.66	7937.9	
538.86	8310.7	
539.05	9878	
539.25	10349	
539.44	8547.5	
539.64	8180.3	
539.83	9807.7	
540.03	10650	
540.22	8066.9	
540.42	8172.8	
540.61	9975	
540.81	10044	
541	8501.1	
541.2	9002.9	
541.39	9611.8	
541.59	9911.5	
541.78	8765.3	
541.98	8069	
542.18	9425.4	
542.37	9353.8	
542.57	8251.9	
542.76	8733.9	
542.96	9370.8	
543.15	9776.3	
543.35	8271.7	
543.54	7790.5	
543.74	9966.8	
543.93	9755.8	
544.13	8198.7	
544.32	9080.7	
544.52	9973.6	
544.71	9403.6	
544.91	7467.6	
545.1	8488.1	
545.3	9405.6	
545.49	9902.6	
545.69	7414.3	
545.88	7898.3	
546.08	10585	
546.27	10202	
546.47	8329.1	
546.66	7727.7	
546.86	10011	
547.05	10404	
547.24	7885.4	
547.44	7886.7	
547.63	9161.9	
547.83	10071	
548.02	8148.9	
548.22	8258.1	
548.41	9108	
548.61	10028	
548.8	7722.9	
549	7684	
549.19	9513.5	
549.39	9850.7	
549.58	7499	
549.78	7980.3	
549.97	9808.4	
550.17	9382.4	
550.36	8619.9	
550.55	9254.8	
550.75	9338.7	
550.94	10023	
551.14	7617.1	
551.33	7926.3	
551.53	8824.7	
551.72	9669.8	
551.92	7907.2	
552.11	7662.8	
552.31	9736.7	
552.5	9675.3	
552.69	8975.6	
552.89	7481.2	
553.08	9559.2	
553.28	9480.7	
553.47	7743.4	
553.67	8622.6	
553.86	10066	
554.06	8775.5	
554.25	7165.2	
554.44	7522.9	
554.64	10663	
554.83	10334	
555.03	7548.1	
555.22	7817.8	
555.42	9727.9	
555.61	9539.4	
555.8	7599.3	
556	7848.5	
556.19	8748.2	
556.39	9781.1	
556.58	7625.3	
556.78	7612.3	
556.97	9478	
557.16	9139.4	
557.36	8533.2	
557.55	7280.5	
557.75	8527.7	
557.94	10109	
558.13	7492.2	
558.33	7266.2	
558.52	9900.6	
558.72	8902.5	
558.91	7364.5	
559.1	7566.6	
559.3	8733.2	
559.49	8506.6	
559.69	7034.8	
559.88	7808.2	
560.07	9318.3	
560.27	9667.1	
560.46	7898.3	
560.66	8032.8	
560.85	9239.8	
561.04	8453.3	
561.24	7287.4	
561.43	7500.3	
561.63	8683.4	
561.82	8942.8	
562.01	8326.4	
562.21	7604.8	
562.4	9372.9	
562.59	9927.2	
562.79	7601.4	
562.98	7315.3	
563.18	9265	
563.37	10341	
563.56	8033.5	
563.76	7335.1	
563.95	8807.6	
564.14	8783.1	
564.34	7550.2	
564.53	7366.5	
564.73	9236.3	
564.92	9470.5	
565.11	7724.9	
565.31	7217.7	
565.5	9738.8	
565.69	8864.3	
565.89	7476.5	
566.08	7639.6	
566.27	9542.2	
566.47	10016	
566.66	8188.5	
566.85	7090.1	
567.05	9344.9	
567.24	8862.2	
567.44	7352.2	
567.63	8465.6	
567.82	9474.6	
568.02	9208.4	
568.21	7349.5	
568.4	7677.8	
568.6	9138	
568.79	9179	
568.98	7321.5	
569.18	7365.9	
569.37	9207	
569.56	10768	
569.76	7633.5	
569.95	8378.9	
570.14	9516.2	
570.34	9329.9	
570.53	7318.1	
570.72	7234.1	
570.91	9822.7	
571.11	9151.7	
571.3	7623.2	
571.49	8494.3	
571.69	9188.6	
571.88	8876.6	
572.07	8121.6	
572.27	8048.5	
572.46	8697.7	
572.65	9568.1	
572.85	7464.8	
573.04	7706.5	
573.23	9858.9	
573.43	9310.1	
573.62	7324.2	
573.81	7869	
574	9316.2	
574.2	9139.4	
574.39	7662.8	
574.58	7731.1	
574.78	10068	
574.97	9402.2	
575.16	8064.9	
575.36	8158.4	
575.55	9745.6	
575.74	9798.8	
575.93	7305.1	
576.13	8237.6	
576.32	9305.3	
576.51	9816.6	
576.71	7692.9	
576.9	8718.2	
577.09	9927.9	
577.28	9488.2	
577.48	8036.9	
577.67	7349.5	
577.86	9370.8	
578.05	9572.2	
578.25	7813	
578.44	7888.1	
578.63	9384.5	
578.83	10295	
579.02	7359.7	
579.21	8607.6	
579.4	9580.4	
579.6	9258.9	
579.79	7998.7	
579.98	9587.2	
580.17	9803.6	
580.37	9899.9	
580.56	7556.3	
580.75	8140.7	
580.94	10112	
581.14	10107	
581.33	8442.4	
581.52	7633.5	
581.71	9738.1	
581.91	10253	
582.1	7448.5	
582.29	7830.1	
582.48	9461.6	
582.68	9366.7	
582.87	8239	
583.06	7942.7	
583.25	9715.6	
583.45	9121.7	
583.64	8551.6	
583.83	9116.2	
584.02	9382.4	
584.21	9738.8	
584.41	8482	
584.6	7961.8	
584.79	9523.7	
584.98	10004	
585.18	7556.3	
585.37	7593.9	
585.56	9239.1	
585.75	9681.4	
585.94	7722.2	
586.14	8221.2	
586.33	10150	
586.52	9439.1	
586.71	8078.6	
586.91	7707.9	
587.1	8822.6	
587.29	9823.4	
587.48	7740	
587.67	7678.5	
587.87	9596.8	
588.06	9600.9	
588.25	8679.3	
588.44	8077.9	
588.63	9278.7	
588.83	9728.5	
589.02	7647.1	
589.21	7520.1	
589.4	9059.5	
589.59	8951	
589.78	6800.6	
589.98	7055.9	
590.17	8523	
590.36	8862.9	
590.55	6415.6	
590.74	7135.8	
590.94	9860.3	
591.13	8690.9	
591.32	6886	
591.51	6539.2	
591.7	9080.7	
591.89	8705.9	
592.09	6742.6	
592.28	7026.6	
592.47	8102.4	
592.66	9669.8	
592.85	6731.7	
593.05	6913.9	
593.24	8575.5	
593.43	9309.4	
593.62	7008.8	
593.81	7329	
594	8809.7	
594.19	8882.7	
594.39	6932.4	
594.58	6850.5	
594.77	8987.9	
594.96	9388.6	
595.15	6815	
595.34	7299	
595.54	8876.6	
595.73	8200.1	
595.92	6301.6	
596.11	7109.9	
596.3	9190.6	
596.49	8319.5	
596.68	7023.9	
596.88	7356.3	
597.07	9030.9	
597.26	8188.5	
597.45	6677.7	
597.64	7534.5	
597.83	8334.6	
598.02	8899.1	
598.22	6724.2	
598.41	7319.4	
598.6	8681.3	
598.79	8180.3	
598.98	6785.6	
599.17	7456	
599.36	8656.1	
599.55	9538.1	
599.74	8313.4	
599.94	8094.3	
600.13	9069.1	
600.32	8170	
600.51	6464.8	
600.7	6571.9	
600.89	9557.9	
601.08	9568.1	
601.27	6473.6	
601.47	7244.3	
601.66	9060.2	
601.85	9398.8	
602.04	7015.7	
602.23	7164.5	
602.42	8288.8	
602.61	8771.5	
602.8	6887.3	
602.99	6726.2	
603.18	8547.5	
603.37	8660.9	
603.57	7202.7	
603.76	7621.2	
603.95	9274.6	
604.14	8875.9	
604.33	6835.4	
604.52	7034.1	
604.71	8733.9	
604.9	8282	
605.09	7531.1	
605.28	7399.3	
605.47	9181	
605.66	8718.9	
605.86	7199.3	
606.05	6849.1	
606.24	9159.2	
606.43	7918.8	
606.62	6992.4	
606.81	7576.1	
607	9069.8	
607.19	8390.5	
607.38	6543.9	
607.57	6781.5	
607.76	8271.1	
607.95	7778.9	
608.14	7025.9	
608.33	7587	
608.52	8305.2	
608.72	8978.3	
608.91	6464.8	
609.1	6384.9	
609.29	8295.6	
609.48	7888.8	
609.67	7137.9	
609.86	6503	
610.05	8091.5	
610.24	8322.9	
610.43	6397.2	
610.62	5954.8	
610.81	9170.1	
611	8971.5	
611.19	6404	
611.38	6920.1	
611.57	8540.7	
611.76	9424.8	
611.95	6273.6	
612.14	6098.2	
612.33	8322.3	
612.52	7984.3	
612.71	6664.8	
612.9	6149.4	
613.09	7606.8	
613.28	9484.1	
613.47	6671.6	
613.66	7150.8	
613.85	8428.8	
614.04	7970.7	
614.24	6535.1	
614.43	5866.7	
614.62	8578.9	
614.81	8466.3	
615	6910.5	
615.19	7002.7	
615.38	7965.9	
615.57	8303.8	
615.76	6944	
615.95	7640.3	
616.14	8610.3	
616.33	8217.1	
616.52	7101	
616.71	7167.9	
616.9	8501.8	
617.09	8353.7	
617.28	6622.4	
617.47	7548.1	
617.66	7845.8	
617.85	7888.1	
618.04	7312.6	
618.22	6915.3	
618.41	8178.2	
618.6	8812.4	
618.79	6855.9	
618.98	6646.3	
619.17	9118.9	
619.36	7800	
619.55	6709.1	
619.74	6755.6	
619.93	8639	
620.12	8043.7	
620.31	7212.9	
620.5	7354.3	
620.69	8961.2	
620.88	9330.5	
621.07	7926.3	
621.26	7095.5	
621.45	8708	
621.64	8688.2	
621.83	7276.4	
622.02	6601.3	
622.21	8800.1	
622.4	8594	
622.59	7769.3	
622.78	7520.1	
622.97	8262.2	
623.16	8934.6	
623.35	7175.4	
623.54	6559.6	
623.72	8363.9	
623.91	8563.9	
624.1	7488.7	
624.29	6449.1	
624.48	9367.4	
624.67	8766.7	
624.86	7358.4	
625.05	6630.6	
625.24	9566.1	
625.43	8235.6	
625.62	8660.9	
625.81	6799.9	
626	8954.4	
626.19	8479.3	
626.38	7346.7	
626.56	6981.5	
626.75	8353.7	
626.94	8907.3	
627.13	7421.2	
627.32	6443.6	
627.51	8828.1	
627.7	9720.3	
627.89	6479.1	
628.08	7380.9	
628.27	8118.8	
628.46	8353	
628.65	6704.4	
628.83	6488	
629.02	8832.2	
629.21	8176.2	
629.4	7086	
629.59	7215	
629.78	8180.3	
629.97	8925	
630.16	7265.5	
630.35	6821.1	
630.54	9332.6	
630.72	9020.6	
630.91	6969.2	
631.1	7107.8	
631.29	8619.2	
631.48	8653.4	
631.67	7392.5	
631.86	6827.9	
632.05	8352.3	
632.24	8351.6	
632.42	6667.5	
632.61	7049.8	
632.8	8396.7	
632.99	8172.1	
633.18	7143.3	
633.37	7382.2	
633.56	8680	
633.75	8514.8	
633.93	7080.5	
634.12	6819.7	
634.31	9263.6	
634.5	8879.3	
634.69	6858.6	
634.88	7314	
635.07	8439.7	
635.25	8826.7	
635.44	7676.5	
635.63	7748.1	
635.82	8277.9	
636.01	7948.8	
636.2	7499	
636.39	7113.3	
636.57	9164	
636.76	8936.7	
636.95	6685.9	
637.14	7748.1	
637.33	8688.2	
637.52	9406.3	
637.7	6541.2	
637.89	7294.9	
638.08	8454.7	
638.27	9568.1	
638.46	7276.4	
638.65	7625.3	
638.83	9374.2	
639.02	8144.1	
639.21	7303.7	
639.4	7604.1	
639.59	8547.5	
639.78	8227.4	
639.96	6645.7	
640.15	6668.2	
640.34	8363.9	
640.53	8503.8	
640.72	6483.2	
640.91	6618.4	
641.09	7866.9	
641.28	9007.6	
641.47	6649.8	
641.66	7208.2	
641.85	8477.9	
642.03	8528.4	
642.22	7055.3	
642.41	6776.7	
642.6	8017.1	
642.79	7482.6	
642.97	6561.7	
643.16	7129	
643.35	7942.7	
643.54	7791.8	
643.73	6475	
643.91	7088.7	
644.1	7704.5	
644.29	8196.7	
644.48	6447	
644.67	6463.4	
644.85	7728.4	
645.04	8044.4	
645.23	6128.2	
645.42	6352.1	
645.6	7696.3	
645.79	8554.4	
645.98	6348.7	
646.17	5509	
646.36	7421.2	
646.54	7862.8	
646.73	6892.8	
646.92	5961	
647.11	7515.4	
647.29	8273.8	
647.48	5940.5	
647.67	5784.8	
647.86	8540.7	
648.05	8501.8	
648.23	6181.5	
648.42	7138.5	
648.61	8027.4	
648.8	7776.1	
648.98	5894.7	
649.17	6234	
649.36	7415	
649.55	7169.3	
649.73	5978.7	
649.92	6565.1	
650.11	7427.3	
650.3	7708.6	
650.48	6027.9	
650.67	5959.6	
650.86	7896.3	
651.05	6954.2	
651.23	6019.7	
651.42	5972.6	
651.61	7428	
651.79	7438.9	
651.98	6209.4	
652.17	5850.4	
652.36	7774.8	
652.54	7051.8	
652.73	5889.3	
652.92	5769.1	
653.11	7699.7	
653.29	7840.3	
653.48	5332.2	
653.67	6040.1	
653.85	7567.2	
654.04	8310	
654.23	6180.1	
654.42	5855.1	
654.6	7132.4	
654.79	7608.9	
654.98	5408.7	
655.16	5797.8	
655.35	6791.7	
655.54	6593.1	
655.73	5457.2	
655.91	5341.8	
656.1	7522.2	
656.29	6725.5	
656.47	5123.3	
656.66	6427.2	
656.85	6996.5	
657.03	6990.4	
657.22	5545.2	
657.41	5569.8	
657.59	7119.4	
657.78	6988.4	
657.97	5295.4	
658.16	5894.1	
658.34	7576.8	
658.53	7849.2	
658.72	6535.8	
658.9	6989.7	
659.09	7258.7	
659.28	7244.3	
659.46	5674.9	
659.65	5561.6	
659.84	6960.4	
660.02	7462.8	
660.21	5618.9	
660.4	5471.5	
660.58	7755	
660.77	7154.2	
660.96	6021.7	
661.14	5279	
661.33	8140.7	
661.52	7991.2	
661.7	5218.2	
661.89	8006.2	
662.08	6952.9	
662.26	6622.4	
662.45	5420.3	
662.64	5529.5	
662.82	7472.4	
663.01	6815.6	
663.2	5484.5	
663.38	6149.4	
663.57	7372.7	
663.75	7263.5	
663.94	5769.8	
664.13	6761	
664.31	6963.8	
664.5	7425.3	
664.69	5932.3	
664.87	6414.9	
665.06	6692.1	
665.25	7209.5	
665.43	6553.5	
665.62	6611.5	
665.8	7538.6	
665.99	6963.8	
666.18	5784.1	
666.36	5836	
666.55	7610.3	
666.74	7329.7	
666.92	5512.4	
667.11	6778.1	
667.29	7023.9	
667.48	7435.5	
667.67	6399.9	
667.85	5672.2	
668.04	6939.2	
668.22	6934.4	
668.41	5806	
668.6	5975.3	
668.78	6787.7	
668.97	7054.6	
669.15	6047	
669.34	5137	
669.53	6854.6	
669.71	7075	
669.9	5322.7	
670.08	5874.9	
670.27	6858.6	
670.46	7309.2	
670.64	6099.5	
670.83	6227.9	
671.01	6664.1	
671.2	7220.5	
671.38	5460.6	
671.57	5377.3	
671.76	7681.2	
671.94	8039	
672.13	5335	
672.31	6173.3	
672.5	7352.9	
672.69	6904.4	
672.87	5494	
673.06	5679.7	
673.24	7264.1	
673.43	6940.6	
673.61	5987.6	
673.8	5680.4	
673.98	7367.9	
674.17	7503.8	
674.36	6149.4	
674.54	5953.4	
674.73	7169.3	
674.91	7380.9	
675.1	5727.5	
675.28	5532.9	
675.47	6978.8	
675.65	7448.5	
675.84	5640.1	
676.03	5943.9	
676.21	6866.8	
676.4	6378.1	
676.58	6356.2	
676.77	6052.4	
676.95	8026	
677.14	6845.7	
677.32	5388.9	
677.51	5285.1	
677.69	7428.7	
677.88	6587	
678.06	5401.9	
678.25	5522	
678.44	7066.2	
678.62	6769.9	
678.81	5173.2	
678.99	5887.2	
679.18	7618.4	
679.36	7210.9	
679.55	5561.6	
679.73	6049	
679.92	7258	
680.1	6811.5	
680.29	6554.9	
680.47	5564.3	
680.66	6795.2	
680.84	7298.3	
681.03	5111	
681.21	6027.9	
681.4	6744	
681.58	6676.4	
681.77	5419.6	
681.95	5402.5	
682.14	7395.2	
682.32	7712	
682.51	6084.5	
682.69	5190.9	
682.88	6690	
683.06	7161.7	
683.25	5904.3	
683.43	6224.5	
683.62	7051.8	
683.8	7283.9	
683.99	6337.1	
684.17	5652.4	
684.36	7975.5	
684.54	6844.3	
684.73	5136.3	
684.91	5165	
685.1	7007.5	
685.28	6489.3	
685.46	5558.2	
685.65	5577.3	
685.83	7090.1	
686.02	6666.8	
686.2	5220.3	
686.39	5304.9	
686.57	6594.5	
686.76	7674.4	
686.94	5234.6	
687.13	5310.4	
687.31	7109.9	
687.5	6779.5	
687.68	4926	
687.86	5943.2	
688.05	8060.1	
688.23	6301.6	
688.42	5918.6	
688.6	5287.2	
688.79	6599.9	
688.97	6617	
689.16	5656.5	
689.34	4772.4	
689.52	7207.5	
689.71	7390.4	
689.89	5814.2	
690.08	5304.2	
690.26	6840.9	
690.45	6694.8	
690.63	5970.5	
690.81	5408	
691	6707.8	
691.18	6580.1	
691.37	5537	
691.55	7234.8	
691.74	6506.4	
691.92	8016.4	
692.1	5447.6	
692.29	5023.7	
692.47	6708.5	
692.66	6203.3	
692.84	5209.3	
693.02	5663.3	
693.21	6234	
693.39	6649.8	
693.58	5772.5	
693.76	5283.8	
693.94	7550.2	
694.13	7486	
694.31	5307	
694.5	6172.6	
694.68	6532.3	
694.86	6869.6	
695.05	5582.8	
695.23	5730.9	
695.42	7215.7	
695.6	8868.4	
695.78	6021.7	
695.97	5352	
696.15	7158.3	
696.34	6691.4	
696.52	5160.2	
696.7	5816.9	
696.89	6935.8	
697.07	6423.8	
697.25	5720.7	
697.44	6840.9	
697.62	6948.8	
697.81	7104.4	
697.99	5524.7	
698.17	5834	
698.36	6358.9	
698.54	6964.5	
698.72	5675.6	
698.91	4997	
699.09	6552.1	
699.28	6416.3	
699.46	5498.8	
699.64	5404.6	
699.83	6438.1	
700.01	7319.4	
700.19	6089.3	
700.38	4754.7	
700.56	7369.3	
700.74	6509.8	
700.93	5046.9	
701.11	5737	
701.29	6916	
701.48	7795.3	
701.66	5226.4	
701.84	5404.6	
702.03	6746.7	
702.21	7180.9	
702.39	4992.9	
702.58	5413.5	
702.76	6981.5	
702.94	6984.9	
703.13	5028.4	
703.31	6847.7	
703.49	6427.9	
703.68	7488.1	
703.86	5069.4	
704.04	5938.4	
704.23	6812.9	
704.41	7143.3	
704.59	5246.2	
704.78	6154.8	
704.96	7759.8	
705.14	7163.1	
705.33	5091.3	
705.51	5686.5	
705.69	6651.1	
705.87	7299	
706.06	5895.4	
706.24	5020.9	
706.42	6933.7	
706.61	7127.6	
706.79	5834.7	
706.97	4927.4	
707.16	6485.2	
707.34	6967.2	
707.52	5829.2	
707.7	5202.5	
707.89	6468.2	
708.07	6313.2	
708.25	5881.8	
708.44	5896.8	
708.62	6497.5	
708.8	7394.5	
708.98	6087.2	
709.17	5243.5	
709.35	6823.1	
709.53	6807.4	
709.72	5054.4	
709.9	5338.4	
710.08	7107.1	
710.26	7059.3	
710.45	6255.2	
710.63	5188.2	
710.81	6771.3	
710.99	6767.2	
711.18	5679	
711.36	5305.6	
711.54	6546.7	
711.72	7195.2	
711.91	5375.2	
712.09	4885.8	
712.27	6722.1	
712.45	7216.4	
712.64	5591	
712.82	4748.6	
713	6346	
713.18	6410.1	
713.37	4842.1	
713.55	5791.7	
713.73	7106.5	
713.91	5921.4	
714.1	5100.1	
714.28	4633.2	
714.46	6744	
714.64	6063.4	
714.83	4189.5	
715.01	4732.2	
715.19	6098.9	
715.37	5560.2	
715.55	4574.5	
715.74	4780	
715.92	6722.1	
716.1	5150.6	
716.28	5668.8	
716.47	4852.3	
716.65	5804.6	
716.83	5785.5	
717.01	4758.8	
717.19	4784.1	
717.38	7402.7	
717.56	5565.7	
717.74	4922.6	
717.92	4302.1	
718.1	6514.6	
718.29	5887.2	
718.47	4001.7	
718.65	4569.7	
718.83	6490	
719.01	6434	
719.2	4006.5	
719.38	4932.2	
719.56	6236.1	
719.74	7400.7	
719.92	4513	
720.11	5339.1	
720.29	6262	
720.47	5598.5	
720.65	4144.4	
720.83	4746.5	
721.02	5872.9	
721.2	5624.4	
721.38	4795.7	
721.56	4236.6	
721.74	5183.4	
721.92	5306.3	
722.11	5165	
722.29	5012.7	
722.47	6389	
722.65	5647.6	
722.83	4240.7	
723.01	4934.9	
723.2	5728.9	
723.38	6029.2	
723.56	3820.8	
723.74	4667.3	
723.92	5388.2	
724.1	6252.4	
724.29	4186.7	
724.47	5147.2	
724.65	5449	
724.83	5367.7	
725.01	4150.6	
725.19	4746.5	
725.37	5359.5	
725.56	5401.9	
725.74	4010.6	
725.92	4226.3	
726.1	5303.6	
726.28	5565.7	
726.46	4463.9	
726.64	4242	
726.83	5626.5	
727.01	5739.1	
727.19	3995.6	
727.37	4645.5	
727.55	5669.5	
727.73	6086.6	
727.91	3939.6	
728.09	3816	
728.28	6166.4	
728.46	6357.6	
728.64	4675.5	
728.82	4648.9	
729	6990.4	
729.18	6395.8	
729.36	4007.2	
729.54	5834	
729.72	7210.2	
729.91	5791.7	
730.09	5615.5	
730.27	4573.8	
730.45	5791.7	
730.63	6304.3	
730.81	5122.7	
730.99	4377.2	
731.17	6728.3	
731.35	5575.3	
731.53	4758.1	
731.71	4444.1	
731.9	6424.5	
732.08	6511.2	
732.26	4704.9	
732.44	4430.4	
732.62	6619	
732.8	6255.2	
732.98	5015.5	
733.16	4208.6	
733.34	6273.6	
733.52	5191.6	
733.7	4633.9	
733.88	4833.9	
734.07	6078.4	
734.25	5919.3	
734.43	4185.4	
734.61	5471.5	
734.79	7069.6	
734.97	5824.4	
735.15	4350.6	
735.33	4635.2	
735.51	6115.9	
735.69	5831.2	
735.87	5401.9	
736.05	4712.4	
736.23	5958.9	
736.41	5745.9	
736.59	4604.5	
736.77	4690.5	
736.95	6397.9	
737.13	5811.5	
737.32	4384	
737.5	4476.9	
737.68	6726.2	
737.86	5744.6	
738.04	4231.1	
738.22	5664.7	
738.4	5690.6	
738.58	5909.8	
738.76	4720.6	
738.94	3878.2	
739.12	5778.7	
739.3	5597.8	
739.48	5094	
739.66	4848.9	
739.84	5981.4	
740.02	5971.2	
740.2	3918.4	
740.38	4247.5	
740.56	6237.4	
740.74	5291.3	
740.92	4735.6	
741.1	4626.4	
741.28	5786.2	
741.46	5646.2	
741.64	4434.5	
741.82	4807.3	
742	5866.7	
742.18	5763	
742.36	4588.1	
742.54	4198.3	
742.72	6275	
742.9	5168.4	
743.08	4771.1	
743.26	3921.2	
743.44	6376	
743.62	6268.8	
743.8	5024.3	
743.98	4246.8	
744.16	6025.8	
744.34	5784.8	
744.52	4902.8	
744.7	4849.6	
744.88	6178	
745.06	5774.6	
745.24	4935.6	
745.42	5045.5	
745.6	6191	
745.78	6071.5	
745.96	3988.1	
746.14	4192.2	
746.32	6767.2	
746.5	6191.7	
746.68	4674.1	
746.86	4280.9	
747.03	6494.8	
747.21	5266	
747.39	4660.5	
747.57	4195.6	
747.75	5909.1	
747.93	6133.7	
748.11	4204.5	
748.29	4166.9	
748.47	7111.9	
748.65	5631.2	
748.83	4800.4	
749.01	4534.2	
749.19	6066.8	
749.37	5282.4	
749.55	4492.6	
749.73	4493.9	
749.91	5771.2	
750.09	5573.9	
750.26	4526	
750.44	4102.1	
750.62	5782.1	
750.8	5727.5	
750.98	4074.1	
751.16	4220.2	
751.34	5812.8	
751.52	5317.2	
751.7	4896	
751.88	3920.5	
752.06	6265.4	
752.24	5982.1	
752.42	3857	
752.59	4164.2	
752.77	5779.4	
752.95	6696.9	
753.13	4770.4	
753.31	4272.7	
753.49	5537	
753.67	5803.3	
753.85	4541.7	
754.03	4135.5	
754.21	6000.5	
754.38	6339.1	
754.56	4276.8	
754.74	3529.3	
754.92	5412.1	
755.1	5902.9	
755.28	3581.2	
755.46	3548.4	
755.64	6524.1	
755.82	6662	
755.99	3743.7	
756.17	3874.8	
756.35	4562.9	
756.53	5748.6	
756.71	2846	
756.89	3585.3	
757.07	5390.3	
757.25	4759.5	
757.42	4091.2	
757.6	4762.2	
757.78	5522	
757.96	4749.2	
758.14	3814.7	
758.32	3452.2	
758.5	4389.5	
758.67	5074.9	
758.85	3660.4	
759.03	3784	
759.21	5171.8	
759.39	4767	
759.57	3330	
759.75	4290.5	
759.92	5699.5	
760.1	5196.4	
760.28	4562.2	
760.46	4719.9	
760.64	4975.9	
760.82	4838.7	
760.99	4214.7	
761.17	3735.5	
761.35	5626.5	
761.53	4795	
761.71	3941.7	
761.89	4485.7	
762.06	5614.2	
762.24	5166.3	
762.42	4066.6	
762.6	3760.1	
762.78	5177.9	
762.96	5694.7	
763.13	4300.7	
763.31	4023.6	
763.49	5765.7	
763.67	5128.8	
763.85	4690.5	
764.02	5121.3	
764.2	6053.8	
764.38	5305.6	
764.56	3921.9	
764.74	4635.9	
764.91	6033.3	
765.09	5203.9	
765.27	3664.5	
765.45	3550.5	
765.63	6164.4	
765.8	5956.9	
765.98	3385.3	
766.16	3624.9	
766.34	4900.8	
766.52	4646.8	
766.69	4364.9	
766.87	3471.3	
767.05	5214.1	
767.23	5741.1	
767.41	3637.9	
767.58	3892.5	
767.76	5657.2	
767.94	5683.1	
768.12	3771.7	
768.29	4311	
768.47	5186.8	
768.65	5808.7	
768.83	3468.6	
769	4371.7	
769.18	4867.3	
769.36	5430.5	
769.54	4321.9	
769.72	3498.6	
769.89	5657.2	
770.07	5719.3	
770.25	3752.6	
770.43	4743.1	
770.6	6264.7	
770.78	6511.9	
770.96	3880.9	
771.14	4425	
771.31	5618.3	
771.49	5089.9	
771.67	3181.9	
771.85	3443.3	
772.02	4498.7	
772.2	5074.9	
772.38	3977.2	
772.55	3615.3	
772.73	5283.8	
772.91	5102.2	
773.09	3889.1	
773.26	3948.5	
773.44	5223	
773.62	4958.1	
773.8	3498.6	
773.97	3267.9	
774.15	5238	
774.33	4973.8	
774.5	3423.5	
774.68	3683.6	
774.86	5407.3	
775.04	4984.1	
775.21	3411.2	
775.39	3426.3	
775.57	5190.2	
775.74	5433.3	
775.92	3338.2	
776.1	3273.3	
776.27	5186.1	
776.45	6156.9	
776.63	3420.8	
776.81	3084.2	
776.98	4904.9	
777.16	5754.8	
777.34	3572.3	
777.51	3760.8	
777.69	4921.3	
777.87	4655	
778.04	3611.3	
778.22	4091.8	
778.4	4697.4	
778.57	5261.9	
778.75	3001	
778.93	3248.8	
779.1	4622.9	
779.28	4474.1	
779.46	3021.4	
779.64	3393.5	
779.81	5395	
779.99	6094.1	
780.17	4000.4	
780.34	4083.6	
780.52	4940.4	
780.69	4995.7	
780.87	3721.2	
781.05	3323.2	
781.22	5010	
781.4	5012.1	
781.58	3449.5	
781.75	2742.9	
781.93	5066.7	
782.11	4479.6	
782.28	4130.1	
782.46	3410.6	
782.64	4388.8	
782.81	5097.4	
782.99	3529.3	
783.17	3405.1	
783.34	5030.5	
783.52	4475.5	
783.69	3603.7	
783.87	4260.5	
784.05	4630.5	
784.22	4504.2	
784.4	4250.9	
784.58	3675.4	
784.75	5281.7	
784.93	4588.8	
785.1	3418.1	
785.28	3945.1	
785.46	5079	
785.63	4481	
785.81	3420.1	
785.99	3269.2	
786.16	4685.8	
786.34	4999.1	
786.51	3295.9	
786.69	3675.4	
786.87	4281.6	
787.04	4714.4	
787.22	3200.3	
787.39	3945.8	
787.57	4530.1	
787.75	5332.2	
787.92	4098	
788.1	3997	
788.27	4559.5	
788.45	4341.7	
788.63	3860.4	
788.8	2823.5	
788.98	4862.6	
789.15	4285	
789.33	2917.7	
789.5	3462.4	
789.68	5313.1	
789.86	5329.5	
790.03	3774.4	
790.21	3287	
790.38	5293.3	
790.56	4670.1	
790.73	3177.8	
790.91	3235.1	
791.09	4582.7	
791.26	5090.6	
791.44	3427.6	
791.61	2951.1	
791.79	4555.4	
791.96	4517.1	
792.14	3075.4	
792.32	2741.5	
792.49	4581.3	
792.67	4622.9	
792.84	3162.7	
793.02	2957.3	
793.19	4928.8	
793.37	5470.1	
793.54	2772.3	
793.72	3022.8	
793.89	5485.1	
794.07	4539.7	
794.25	3458.3	
794.42	2818	
794.6	5397.8	
794.77	5046.2	
794.95	3702	
795.12	3260.4	
795.3	4524.6	
795.47	5010.7	
795.65	3566.2	
795.82	3459.7	
796	4403.1	
796.17	5921.4	
796.35	3314.3	
796.52	3876.1	
796.7	5005.9	
796.87	5057.8	
797.05	3344.3	
797.22	4004.5	
797.4	5073.5	
797.57	5844.2	
797.75	3438.5	
797.92	3270.6	
798.1	5295.4	
798.27	4418.2	
798.45	2939.5	
798.62	3052.8	
798.8	4765.6	
798.97	5158.8	
799.15	3633.1	
799.32	3508.2	
799.5	4207.2	
799.67	4815.5	
799.85	3715	
800.02	2772.9	
800.2	4478.9	
800.37	4681.7	
800.55	3840.6	
800.72	3246.7	
800.9	5117.9	
801.07	5486.5	
801.25	4304.8	
801.42	3550.5	
801.6	5118.6	
801.77	4846.2	
801.95	3356.6	
802.12	3192.8	
802.29	4933.6	
802.47	4887.8	
802.64	3587.4	
802.82	2803	
802.99	4530.8	
803.17	5266	
803.34	3413.3	
803.52	3155.2	
803.69	5766.4	
803.87	4299.4	
804.04	3388	
804.21	3442.6	
804.39	5426.4	
804.56	4693.9	
804.74	2985.3	
804.91	3581.2	
805.09	4526	
805.26	4560.1	
805.44	3064.4	
805.61	3304.7	
805.78	5079.6	
805.96	5076.2	
806.13	3558	
806.31	3827	
806.48	4147.8	
806.66	4573.8	
806.83	3589.4	
807	3521.1	
807.18	4596.3	
807.35	4807.3	
807.53	3426.3	
807.7	2838.5	
807.87	5483.1	
808.05	4596.3	
808.22	3763.5	
808.4	2856.2	
808.57	4557.4	
808.74	4270.7	
808.92	3228.3	
809.09	4022.2	
809.27	4493.2	
809.44	4962.9	
809.61	2825.5	
809.79	3144.3	
809.96	5556.1	
810.14	5122	
810.31	2771.6	
810.48	3403	
810.66	4631.1	
810.83	5165	
811.01	3235.8	
811.18	3508.2	
811.35	5177.3	
811.53	4093.2	
811.7	3811.3	
811.87	3504.1	
812.05	4621.6	
812.22	4509.6	
812.39	3119.7	
812.57	2987.3	
812.74	4592.9	
812.92	5892	
813.09	3325.9	
813.26	3589.4	
813.44	5680.4	
813.61	4422.9	
813.78	2778.4	
813.96	3736.9	
814.13	4563.6	
814.3	4328	
814.48	3926.6	
814.65	3302.7	
814.82	5492.7	
815	4233.8	
815.17	3366.2	
815.34	4093.9	
815.52	4517.1	
815.69	4481	
815.87	3338.9	
816.04	3367.5	
816.21	4523.3	
816.38	4091.8	
816.56	3283.6	
816.73	3066.5	
816.9	5644.9	
817.08	5059.8	
817.25	3171.6	
817.42	3847.5	
817.6	4193.6	
817.77	4547.9	
817.94	3485.6	
818.12	3072	
818.29	4376.5	
818.46	6423.1	
818.64	3209.2	
818.81	3012.6	
818.98	4343.7	
819.16	6013.5	
819.33	3646.7	
819.5	3463.1	
819.67	4866.7	
819.85	5340.4	
820.02	3373	
820.19	3581.9	
820.37	4730.8	
820.54	4489.8	
820.71	3489.1	
820.88	4286.4	
821.06	4732.9	
821.23	4362.2	
821.4	3564.1	
821.58	3444	
821.75	5078.3	
821.92	4661.2	
822.09	2910.2	
822.27	2932	
822.44	4630.5	
822.61	4477.5	
822.79	2872.6	
822.96	5285.8	
823.13	4814.8	
823.3	4289.1	
823.48	3284.9	
823.65	2966.1	
823.82	5168.4	
823.99	4148.5	
824.17	4083	
824.34	3041.2	
824.51	5803.9	
824.68	4610.7	
824.86	3162.1	
825.03	3460.4	
825.2	4575.8	
825.37	5393	
825.55	3168.2	
825.72	3440.6	
825.89	5821.7	
826.06	5433.9	
826.24	3332	
826.41	3371	
826.58	5451.7	
826.75	4788.2	
826.92	2723.8	
827.1	3024.2	
827.27	7172	
827.44	5793.7	
827.61	3245.3	
827.79	3794.9	
827.96	4393.6	
828.13	4622.9	
828.3	3303.4	
828.47	2843.3	
828.65	4804.5	
828.82	4781.3	
828.99	4162.8	
829.16	3633.8	
829.34	5120.6	
829.51	4930.8	
829.68	3437.9	
829.85	3545.7	
830.02	5345.9	
830.2	5107	
830.37	2692.4	
830.54	4054.3	
830.71	5718.6	
830.88	4567.7	
831.05	2696.5	
831.23	3127.2	
831.4	5485.1	
831.57	6074.3	
831.74	3163.4	
831.91	2852.1	
832.09	4876.2	
832.26	5062.6	
832.43	3293.8	
832.6	3712.3	
832.77	4823	
832.94	5373.9	
833.12	2665.8	
833.29	3213.9	
833.46	4859.1	
833.63	6247.7	
833.8	3550.5	
833.97	3259.7	
834.15	5122.7	
834.32	4932.9	
834.49	3475.4	
834.66	3529.3	
834.83	5271.5	
835	4373.1	
835.17	3166.2	
835.35	3154.6	
835.52	5044.1	
835.69	4881	
835.86	3379.1	
836.03	2813.9	
836.2	5058.5	
836.37	4795	
836.55	3261	
836.72	3114.3	
836.89	4700.8	
837.06	5146.5	
837.23	3344.3	
837.4	3627	
837.57	5746.6	
837.75	6192.4	
837.92	3015.3	
838.09	3179.8	
838.26	4734.9	
838.43	5246.9	
838.6	3435.1	
838.77	3084.2	
838.94	5945.3	
839.11	5792.3	
839.29	3330	
839.46	2592.7	
839.63	5145.9	
839.8	4874.8	
839.97	3164.8	
840.14	3188.7	
840.31	4913.8	
840.48	5165	
840.65	2700.6	
840.82	3105.4	
841	5035.3	
841.17	4943.1	
841.34	2942.9	
841.51	2987.3	
841.68	4992.3	
841.85	4806.6	
842.02	3015.3	
842.19	2620.7	
842.36	4898.1	
842.53	4906.3	
842.7	2962.7	
842.87	3557.3	
843.05	6188.3	
843.22	4799.8	
843.39	2908.1	
843.56	3035.1	
843.73	4709.6	
843.9	5128.1	
844.07	4601.8	
844.24	3902.7	
844.41	7043.6	
844.58	4465.9	
844.75	2845.3	
844.92	3078.8	
845.09	5067.4	
845.26	5071.5	
845.43	2930.6	
845.6	3097.2	
845.77	5042.1	
845.94	4859.1	
846.12	3287	
846.29	3409.2	
846.46	5228.5	
846.63	5011.4	
846.8	2957.3	
846.97	3432.4	
847.14	5379.3	
847.31	5008.6	
847.48	3282.9	
847.65	3611.3	
847.82	5270.1	
847.99	5231.2	
848.16	3878.2	
848.33	3514.3	
848.5	4668	
848.67	5403.9	
848.84	2919	
849.01	3067.2	
849.18	4612	
849.35	4320.5	
849.52	3650.8	
849.69	2878.8	
849.86	5253.7	
850.03	5324.7	
850.2	2970.2	
850.37	3551.9	
850.54	5332.2	
850.71	4761.5	
850.88	3424.2	
851.05	2891.7	
851.22	5032.5	
851.39	5449	
851.56	2765.4	
851.73	3338.2	
851.9	4467.3	
852.07	5203.9	
852.24	3303.4	
852.41	2959.3	
852.58	4945.8	
852.75	4547.2	
852.92	3248.1	
853.09	2833.7	
853.26	4697.4	
853.43	5384.8	
853.6	2900.6	
853.77	2517.6	
853.94	5471.5	
854.11	4523.3	
854.28	4229.1	
854.44	3165.5	
854.61	5816.2	
854.78	5320.6	
854.95	2916.3	
855.12	3583.3	
855.29	4154	
855.46	5591.6	
855.63	2932.7	
855.8	4022.9	
855.97	4726.7	
856.14	5349.3	
856.31	4031.1	
856.48	3168.2	
856.65	4700.8	
856.82	4454.3	
856.99	2816.6	
857.16	3118.4	
857.33	5949.3	
857.49	4749.2	
857.66	3116.3	
857.83	3345	
858	4783.4	
858.17	4971.1	
858.34	2770.9	
858.51	2940.9	
858.68	5567.1	
858.85	5525.4	
859.02	3369.6	
859.19	3534.8	
859.36	4498	
859.52	4500.8	
859.69	2994.8	
859.86	3416	
860.03	4549.2	
860.2	5467.4	
860.37	2658.9	
860.54	3011.9	
860.71	5249.6	
860.88	5587.5	
861.05	3281.5	
861.21	3630.4	
861.38	5534.3	
861.55	4386.7	
861.72	2689.7	
861.89	3294.5	
862.06	5254.4	
862.23	5679.7	
862.4	2854.2	
862.56	3016	
862.73	5127.4	
862.9	4862.6	
863.07	3444	
863.24	2699.9	
863.41	4404.5	
863.58	4501.4	
863.75	2955.9	
863.91	3410.6	
864.08	5451.7	
864.25	5209.3	
864.42	3594.9	
864.59	3992.2	
864.76	5721.3	
864.93	4528.1	
865.09	2800.3	
865.26	3120.4	
865.43	5455.1	
865.6	5666.7	
865.77	2582.5	
865.94	2897.9	
866.1	5414.1	
866.27	5134.9	
866.44	4337.6	
866.61	2805.7	
866.78	4805.9	
866.95	5172.5	
867.11	2876	
867.28	2674.6	
867.45	5321.3	
867.62	4504.8	
867.79	3325.9	
867.96	2923.8	
868.12	4461.8	
868.29	5227.8	
868.46	2897.9	
868.63	3836.5	
868.8	5361.6	
868.97	5140.4	
869.13	3087.7	
869.3	3074	
869.47	5040.1	
869.64	5314.5	
869.81	2904.7	
869.97	2921.1	
870.14	5034.6	
870.31	5547.3	
870.48	2897.2	
870.65	3657.7	
870.81	4754	
870.98	4827.7	
871.15	3278.8	
871.32	3044.6	
871.48	5157.5	
871.65	5568.4	
871.82	2914.3	
871.99	3201	
872.16	5933.6	
872.32	5421	
872.49	3002.3	
872.66	2946.3	
872.83	5274.9	
872.99	4646.2	
873.16	3385.3	
873.33	2903.3	
873.5	4930.1	
873.67	4900.8	
873.83	3072	
874	3874.1	
874.17	5011.4	
874.34	5818.3	
874.5	3774.4	
874.67	3588	
874.84	5500.8	
875.01	4377.2	
875.17	4020.8	
875.34	2932	
875.51	4982	
875.68	5877.7	
875.84	3500	
876.01	4237.2	
876.18	5216.2	
876.34	5141.8	
876.51	2946.3	
876.68	2876.7	
876.85	4771.8	
877.01	5458.5	
877.18	4078.9	
877.35	2897.2	
877.52	4973.2	
877.68	4427.7	
877.85	2934.7	
878.02	2896.5	
878.18	4822.3	
878.35	4618.9	
878.52	2378.4	
878.69	3278.1	
878.85	5251.7	
879.02	5117.9	
879.19	4074.1	
879.35	3170.9	
879.52	5165.7	
879.69	5274.2	
879.86	2589.3	
880.02	3299.3	
880.19	4834.6	
880.36	5797.1	
880.52	3315.7	
880.69	3438.5	
880.86	5229.1	
881.02	5334.3	
881.19	3244	
881.36	3146.4	
881.52	5147.9	
881.69	4597	
881.86	3141.6	
882.02	3069.9	
882.19	5418.2	
882.36	6176	
882.52	3014.6	
882.69	4086.4	
882.86	4987.5	
883.02	5000.5	
883.19	3518.4	
883.36	3323.2	
883.52	5226.4	
883.69	5878.4	
883.86	2969.6	
884.02	2686.9	
884.19	5195.7	
884.36	4829.8	
884.52	3345	
884.69	3130.7	
884.86	4706.2	
885.02	5640.1	
885.19	3286.3	
885.36	3324.5	
885.52	4840	
885.69	5094.7	
885.86	4140.3	
886.02	3666.5	
886.19	5245.5	
886.35	4750.6	
886.52	3177.1	
886.69	4036.5	
886.85	4539.7	
887.02	5473.5	
887.19	5473.5	
887.35	5473.5	
887.52	5473.5	
887.68	5473.5	
887.85	5473.5	
888.02	5473.5	
888.18	5473.5	
888.35	5473.5	
888.51	5473.5	
888.68	5473.5	
888.85	5473.5	
889.01	5473.5	
889.18	5473.5	
889.35	5473.5	
889.51	5473.5	
889.68	5473.5	
889.84	5473.5	
890.01	5473.5	
890.17	5473.5	
890.34	5473.5	
890.51	5473.5	
890.67	5473.5	
890.84	5473.5	
891	5473.5	
891.17	5473.5	
891.34	5473.5	
891.5	5473.5	
891.67	5473.5	
891.83	5473.5	
892	5473.5	
892.16	5473.5	
892.33	5473.5	
892.5	5473.5	
892.66	5473.5	
892.83	5473.5	
892.99	5473.5	
893.16	5473.5	
893.32	5473.5	
893.49	5473.5	
893.65	5473.5	
893.82	5473.5	
893.99	5473.5	
894.15	5473.5	
894.32	5473.5	
894.48	5473.5	
894.65	5473.5	
894.81	5473.5	
894.98	5473.5	
895.14	5473.5	
895.31	5473.5	
895.47	5473.5	
895.64	5473.5	
895.81	5473.5	
895.97	5473.5	
896.14	5473.5	
896.3	5473.5	
896.47	5473.5	
896.63	5473.5	
896.8	5473.5	
896.96	5473.5	
897.13	5473.5	
897.29	5473.5	
897.46	5473.5	
897.62	5473.5	
897.79	5473.5	
897.95	5473.5	
898.12	5473.5	
898.28	5473.5	
898.45	5473.5	
898.61	5473.5	
898.78	5473.5	
898.94	5473.5	
899.11	5473.5	
899.27	5473.5	
899.44	5473.5	
899.6	5473.5	
899.77	5473.5	
899.93	5473.5	
900.1	5473.5	
900.26	5473.5	
900.43	5473.5	
900.59	5473.5	
900.76	5473.5	
900.92	5473.5	
901.09	5473.5	
901.25	5473.5	
901.42	5473.5	
901.58	5473.5	
901.75	5473.5	
901.91	5473.5	
902.07	5473.5	
902.24	5473.5	
902.4	5473.5	
902.57	5473.5	
902.73	5473.5	
902.9	5473.5	
903.06	5473.5	
903.23	5473.5	
903.39	5473.5	
903.56	5473.5	
903.72	5473.5	
903.88	5473.5	
904.05	5473.5	
904.21	5473.5	
904.38	5473.5	
904.54	5473.5	
904.71	5473.5	
904.87	5473.5	
905.03	5473.5	
905.2	5473.5	
905.36	5473.5	
905.53	5473.5	
905.69	5473.5	
905.86	5473.5	
906.02	5473.5	
906.18	5473.5	
906.35	5473.5	
906.51	5473.5	
906.68	5473.5	
906.84	5473.5	
907.01	5473.5	
907.17	5473.5	
907.33	5473.5	
907.5	5473.5	
907.66	5473.5	
907.83	5473.5	
907.99	5473.5	
908.15	5473.5	
908.32	5473.5	
908.48	5473.5	
908.65	5473.5	
908.81	5473.5	
908.97	5473.5	
909.14	5473.5	
909.3	5473.5	
909.47	5473.5	
909.63	5473.5	
909.79	5473.5	
909.96	5473.5	
910.12	5473.5	
910.28	5473.5	
910.45	5473.5	
910.61	5473.5	
910.78	5473.5	
910.94	5473.5	
911.1	5473.5	
911.27	5473.5	
911.43	5473.5	
911.59	5473.5	
911.76	5473.5	
911.92	5473.5	
912.08	5473.5	
912.25	5473.5	
912.41	5473.5	
912.57	5473.5	
912.74	5473.5	
912.9	5473.5	
913.07	5473.5	
913.23	5473.5	
913.39	5473.5	
913.56	5473.5	
913.72	5473.5	
913.88	5473.5	
914.05	5473.5	
914.21	5473.5	
914.37	5473.5	
914.54	5473.5	
914.7	5473.5	
914.86	5473.5	
915.03	5473.5	
915.19	5473.5	
