Wavelength	Intensities	
nm	a.u.	
179.22	1905.8	
179.44	1903.6	
179.65	1908	
179.86	1899.1	
180.08	1884.8	
180.29	4912.4	
180.51	3498.6	
180.72	5560.2	
180.94	6596.5	
181.15	3200.3	
181.37	3124.5	
181.58	5524.1	
181.79	5795.1	
182.01	3368.9	
182.22	3579.8	
182.44	5755.5	
182.65	4803.9	
182.87	4510.3	
183.08	3869.3	
183.29	6034	
183.51	4978.6	
183.72	3587.4	
183.94	5339.7	
184.15	5340.4	
184.37	5386.8	
184.58	3194.1	
184.79	4441.4	
185.01	4989.5	
185.22	5696.8	
185.44	4512.4	
185.65	3889.8	
185.86	5182	
186.08	4818.2	
186.29	3100.6	
186.51	3327.9	
186.72	4994.3	
186.94	5921.4	
187.15	3893.9	
187.36	4055.7	
187.58	7664.9	
187.79	5433.9	
188.01	4186	
188.22	6442.9	
188.43	6498.9	
188.65	5657.9	
188.86	3327.9	
189.08	4009.9	
189.29	5177.9	
189.5	5188.2	
189.72	3710.2	
189.93	3770.3	
190.15	5930.9	
190.36	7098.3	
190.57	3906.2	
190.79	3935.5	
191	6072.2	
191.22	5957.5	
191.43	4089.1	
191.64	3313.6	
191.86	6199.2	
192.07	5953.4	
192.29	3468.6	
192.5	3717.7	
192.71	5891.3	
192.93	5098.8	
193.14	3647.4	
193.35	3761.4	
193.57	5165	
193.78	5931.6	
194	2956.6	
194.21	3635.1	
194.42	4943.8	
194.64	5371.8	
194.85	3995.6	
195.07	4709.6	
195.28	5505.6	
195.49	4655	
195.71	4923.3	
195.92	3414	
196.13	5580.7	
196.35	5688.6	
196.56	5218.9	
196.78	3995.6	
196.99	7033.4	
197.2	6577.4	
197.42	4551.3	
197.63	4065.2	
197.84	4801.1	
198.06	5575.3	
198.27	3719.1	
198.48	4956.8	
198.7	5164.3	
198.91	5252.4	
199.13	4022.2	
199.34	4025.6	
199.55	5783.5	
199.77	4678.2	
199.98	3557.3	
200.19	4048.2	
200.41	5276.9	
200.62	4946.5	
200.83	4193.6	
201.05	4501.4	
201.26	5284.4	
201.47	4999.1	
201.69	3574.4	
201.9	3442.6	
202.11	5388.9	
202.33	6361	
202.54	3809.2	
202.76	4190.1	
202.97	5498.1	
203.18	5535.7	
203.4	4208.6	
203.61	4058.4	
203.82	5423	
204.04	5063.3	
204.25	4093.2	
204.46	3962.8	
204.68	5327.4	
204.89	5582.1	
205.1	3938.2	
205.32	3355.3	
205.53	5791.7	
205.74	5957.5	
205.96	2924.5	
206.17	4111	
206.38	5765	
206.6	5882.4	
206.81	4524.6	
207.02	3775.8	
207.24	5608	
207.45	6027.2	
207.66	3776.5	
207.88	3192.8	
208.09	5607.3	
208.3	5397.8	
208.52	3545.7	
208.73	3926	
208.94	5358.9	
209.15	6134.3	
209.37	3847.5	
209.58	4041.3	
209.79	5879	
210.01	5158.8	
210.22	3072	
210.43	3241.3	
210.65	5368.4	
210.86	5809.4	
211.07	3848.8	
211.29	3512.3	
211.5	5713.8	
211.71	5284.4	
211.93	3478.8	
212.14	3478.8	
212.35	5315.8	
212.56	5629.2	
212.78	4047.5	
212.99	3344.3	
213.2	6337.1	
213.42	5154.1	
213.63	3652.2	
213.84	3893.9	
214.06	4804.5	
214.27	4896	
214.48	3851.5	
214.69	4080.2	
214.91	6086.6	
215.12	6077	
215.33	4138.3	
215.55	4560.1	
215.76	6573.3	
215.97	5722	
216.18	3926	
216.4	3897.3	
216.61	5078.3	
216.82	5884.5	
217.04	3552.5	
217.25	3687.7	
217.46	6061.3	
217.67	5784.8	
217.89	3125.9	
218.1	3259	
218.31	5461.9	
218.53	5537	
218.74	3674.1	
218.95	3538.9	
219.16	5330.9	
219.38	6307.1	
219.59	3607.8	
219.8	4303.5	
220.01	6988.4	
220.23	5360.9	
220.44	4734.2	
220.65	3497.2	
220.87	5449.6	
221.08	5975.3	
221.29	3244	
221.5	4362.9	
221.72	7372.7	
221.93	5089.9	
222.14	4047.5	
222.35	4778.6	
222.57	5408	
222.78	5768.4	
222.99	3850.2	
223.2	4092.5	
223.42	5681.1	
223.63	5868.1	
223.84	2971.6	
224.05	2923.8	
224.27	6873.7	
224.48	6272.9	
224.69	4764.3	
224.9	4082.3	
225.12	5631.2	
225.33	5332.9	
225.54	3194.1	
225.75	3610.6	
225.97	4965.6	
226.18	5304.9	
226.39	3901.4	
226.6	3611.9	
226.82	5119.2	
227.03	4980	
227.24	4065.9	
227.45	3321.8	
227.67	5726.1	
227.88	6294.1	
228.09	4513	
228.3	4512.4	
228.52	5816.2	
228.73	5348.6	
228.94	3739.6	
229.15	3336.8	
229.36	5292.6	
229.58	5201.8	
229.79	3781.9	
230	4390.8	
230.21	6352.1	
230.43	5461.9	
230.64	3932.1	
230.85	4188.1	
231.06	5785.5	
231.28	5797.1	
231.49	3295.9	
231.7	3901.4	
231.91	5680.4	
232.12	5392.3	
232.34	3459	
232.55	3927.3	
232.76	5997.8	
232.97	5541.8	
233.18	3542.3	
233.4	3911.6	
233.61	5607.3	
233.82	5168.4	
234.03	3678.2	
234.25	3678.8	
234.46	7410.2	
234.67	5428.5	
234.88	4138.9	
235.09	3577.8	
235.31	5677.7	
235.52	5270.1	
235.73	3991.5	
235.94	3370.3	
236.15	5090.6	
236.37	6504.3	
236.58	3561.4	
236.79	3910.9	
237	5724.8	
237.21	4888.5	
237.43	4121.2	
237.64	3223.5	
237.85	9700.5	
238.06	4982.7	
238.27	4209.9	
238.48	3377.1	
238.7	5706.3	
238.91	5184.1	
239.12	3775.8	
239.33	3867.9	
239.54	4949.3	
239.76	5322.7	
239.97	3831.7	
240.18	3875.4	
240.39	6698.2	
240.6	5616.2	
240.82	4009.2	
241.03	3280.2	
241.24	5307.7	
241.45	6225.1	
241.66	3540.9	
241.87	4123.9	
242.09	6047	
242.3	6473.6	
242.51	4229.7	
242.72	3885	
242.93	5882.4	
243.14	5268.1	
243.36	4453.6	
243.57	4854.4	
243.78	6298.2	
243.99	5797.8	
244.2	3942.3	
244.41	3486.3	
244.63	4892.6	
244.84	5649.7	
245.05	4119.1	
245.26	3837.9	
245.47	5681.1	
245.68	5930.2	
245.9	5141.1	
246.11	4018.8	
246.32	5200.5	
246.53	5595.7	
246.74	6237.4	
246.95	3222.8	
247.16	4876.9	
247.38	5350	
247.59	3216.7	
247.8	3870	
248.01	5079.6	
248.22	5313.8	
248.43	3420.1	
248.64	3796.3	
248.86	4735.6	
249.07	5105.6	
249.28	3395.5	
249.49	3950.5	
249.7	5946.6	
249.91	6123.4	
250.12	3222.1	
250.34	3267.9	
250.55	5481	
250.76	5435.3	
250.97	3976.5	
251.18	4051.6	
251.39	6103.6	
251.6	5538.4	
251.81	4132.8	
252.03	4053.6	
252.24	5164.3	
252.45	5904.3	
252.66	3371	
252.87	4251.6	
253.08	5449	
253.29	7099.6	
253.5	3370.3	
253.72	4693.3	
253.93	5257.1	
254.14	6410.1	
254.35	3622.2	
254.56	3710.9	
254.77	5634.6	
254.98	4966.3	
255.19	3579.8	
255.41	4660.5	
255.62	5461.2	
255.83	6035.4	
256.04	4178.5	
256.25	4098.7	
256.46	6619	
256.67	5072.8	
256.88	4039.3	
257.09	4431.1	
257.31	5002.5	
257.52	5074.9	
257.73	5054.4	
257.94	3664.5	
258.15	5282.4	
258.36	5427.1	
258.57	4650.3	
258.78	2916.3	
258.99	5864	
259.2	5238.7	
259.41	3674.7	
259.63	3840.6	
259.84	6155.5	
260.05	6680.5	
260.26	4872.1	
260.47	3581.9	
260.68	5939.1	
260.89	5283.8	
261.1	4493.9	
261.31	3510.2	
261.52	5900.9	
261.73	6392.4	
261.95	4792.2	
262.16	4126.7	
262.37	6122.7	
262.58	6223.8	
262.79	4771.8	
263	3760.1	
263.21	5427.1	
263.42	4911	
263.63	3742.3	
263.84	3761.4	
264.05	5945.3	
264.26	6361	
264.47	4606.6	
264.69	4126.7	
264.9	6104.3	
265.11	5618.9	
265.32	3588	
265.53	3706.8	
265.74	5564.3	
265.95	4807.3	
266.16	3916.4	
266.37	4328	
266.58	5490.6	
266.79	5222.3	
267	3672	
267.21	3406.5	
267.42	4969.1	
267.63	5378.6	
267.84	3846.1	
268.06	3306.1	
268.27	5860.6	
268.48	6120	
268.69	3736.2	
268.9	4402.5	
269.11	6055.8	
269.32	4853.7	
269.53	3901.4	
269.74	3603.1	
269.95	5761.6	
270.16	4717.8	
270.37	3881.6	
270.58	4421.6	
270.79	5259.2	
271	5896.1	
271.21	4162.8	
271.42	3893.9	
271.63	5472.2	
271.84	4988.2	
272.05	3095.8	
272.26	3470.6	
272.47	5436.7	
272.68	5639.4	
272.89	3693.9	
273.11	4297.3	
273.32	5225.7	
273.53	6350.1	
273.74	4157.4	
273.95	4100	
274.16	5991	
274.37	5464.7	
274.58	4154.6	
274.79	3361.4	
275	5502.2	
275.21	6084.5	
275.42	5059.2	
275.63	4301.4	
275.84	5665.4	
276.05	7122.8	
276.26	4064.5	
276.47	3810.6	
276.68	5226.4	
276.89	6358.9	
277.1	4398.4	
277.31	3362.1	
277.52	5630.5	
277.73	5781.4	
277.94	3374.4	
278.15	3757.3	
278.36	5606.7	
278.57	5038.7	
278.78	3691.1	
278.99	4124.6	
279.2	5018.2	
279.41	4958.8	
279.62	4840.7	
279.83	3416.7	
280.04	6597.2	
280.25	5032.5	
280.46	4867.3	
280.67	3852.9	
280.88	5017.5	
281.09	6012.8	
281.3	4095.3	
281.51	5087.8	
281.72	5860.6	
281.93	5892.7	
282.14	3577.8	
282.35	3906.8	
282.56	5887.9	
282.77	5859.2	
282.98	3725.9	
283.19	4582.7	
283.4	7215.7	
283.61	5332.2	
283.82	3442.6	
284.03	4737.6	
284.24	5444.2	
284.45	6023.8	
284.66	4784.7	
284.87	4545.8	
285.08	5857.9	
285.29	6148	
285.5	3290.4	
285.71	3781.2	
285.92	6032	
286.12	6646.3	
286.33	4751.3	
286.54	3770.3	
286.75	5899.5	
286.96	5259.9	
287.17	3466.5	
287.38	4605.2	
287.59	5042.8	
287.8	4950.6	
288.01	3807.2	
288.22	4369	
288.43	5885.2	
288.64	4924	
288.85	4495.3	
289.06	4250.9	
289.27	5840.1	
289.48	6329.6	
289.69	4721.3	
289.9	4356.7	
290.11	6059.3	
290.32	5070.8	
290.53	4577.9	
290.74	4167.6	
290.94	5806	
291.15	5859.2	
291.36	3704.8	
291.57	4337.6	
291.78	5156.8	
291.99	4818.2	
292.2	3458.3	
292.41	4230.4	
292.62	5926.8	
292.83	5708.4	
293.04	5150.6	
293.25	3522.5	
293.46	5182.7	
293.67	5974.6	
293.88	3642.7	
294.09	3489.7	
294.29	4973.2	
294.5	5504.9	
294.71	3986	
294.92	3688.4	
295.13	5214.8	
295.34	6483.9	
295.55	3258.3	
295.76	3401	
295.97	5779.4	
296.18	6582.9	
296.39	3444.7	
296.6	3605.8	
296.81	5494.7	
297.01	5793	
297.22	3723.2	
297.43	3599	
297.64	5002.5	
297.85	5028.4	
298.06	2992.1	
298.27	3250.1	
298.48	5404.6	
298.69	5107.6	
298.9	3906.8	
299.11	3575.1	
299.31	4840	
299.52	4962.2	
299.73	4203.1	
299.94	4154.6	
300.15	5407.3	
300.36	4960.2	
300.57	4121.2	
300.78	4143	
300.99	5253.7	
301.2	5525.4	
301.4	3578.5	
301.61	3962.8	
301.82	5732.3	
302.03	5805.3	
302.24	4440	
302.45	3421.5	
302.66	5687.9	
302.87	6111.8	
303.08	3654.9	
303.29	4932.9	
303.49	5124.7	
303.7	5421.7	
303.91	3257	
304.12	4710.3	
304.33	4930.8	
304.54	5504.3	
304.75	3644.7	
304.96	3461.1	
305.16	5715.2	
305.37	6491.4	
305.58	3132	
305.79	3337.5	
306	5668.1	
306.21	4796.3	
306.42	3701.4	
306.63	5494.7	
306.83	5257.8	
307.04	6020.3	
307.25	4003.8	
307.46	3968.3	
307.67	4585.4	
307.88	5877	
308.09	3551.2	
308.29	3710.2	
308.5	5501.5	
308.71	5965.7	
308.92	3899.3	
309.13	3515.7	
309.34	5252.4	
309.55	5350.7	
309.75	4513.7	
309.96	4133.5	
310.17	5825.8	
310.38	5065.3	
310.59	4364.9	
310.8	3394.2	
311.01	5264.6	
311.21	5228.5	
311.42	3472.7	
311.63	3527.3	
311.84	5143.1	
312.05	5502.9	
312.26	4067.3	
312.46	4378.6	
312.67	5228.5	
312.88	4937	
313.09	3495.9	
313.3	3427.6	
313.51	6198.5	
313.71	6495.5	
313.92	3491.8	
314.13	3700	
314.34	5580	
314.55	5309	
314.76	4459.1	
314.96	3928	
315.17	5455.1	
315.38	5821	
315.59	3503.4	
315.8	3350.5	
316.01	6303.6	
316.21	6334.4	
316.42	3396.2	
316.63	3908.2	
316.84	5272.2	
317.05	6120	
317.26	4098.7	
317.46	3733.4	
317.67	5298.8	
317.88	5806	
318.09	4429.8	
318.3	3249.4	
318.5	5138.4	
318.71	5735	
318.92	5708.4	
319.13	4113.7	
319.34	5897.5	
319.54	6070.2	
319.75	3277.4	
319.96	3087	
320.17	5793.7	
320.38	5949.3	
320.58	3150.5	
320.79	3811.3	
321	5913.2	
321.21	6062	
321.42	3892.5	
321.62	3188.7	
321.83	4965	
322.04	5438	
322.25	3693.9	
322.46	3536.8	
322.66	5559.6	
322.87	5623.7	
323.08	4368.3	
323.29	3470.6	
323.5	6490	
323.7	5005.2	
323.91	4795.7	
324.12	4291.9	
324.33	5474.2	
324.53	5754.1	
324.74	4166.9	
324.95	4374.5	
325.16	4776.5	
325.37	5188.9	
325.57	3567.6	
325.78	3651.5	
325.99	5442.1	
326.2	4916.5	
326.4	5078.3	
326.61	3257.6	
326.82	5347.9	
327.03	5543.2	
327.24	4968.4	
327.44	4648.2	
327.65	5672.2	
327.86	4578.6	
328.07	4178.5	
328.27	3366.9	
328.48	6034.7	
328.69	4986.1	
328.9	5051	
329.1	3816.7	
329.31	5304.9	
329.52	6202.6	
329.73	3528.7	
329.93	3883.6	
330.14	5431.9	
330.35	5640.8	
330.56	5810.1	
330.76	4357.4	
330.97	5224.4	
331.18	5593.7	
331.39	3904.1	
331.59	3161.4	
331.8	5947.3	
332.01	6118.6	
332.22	3650.2	
332.42	4157.4	
332.63	5543.2	
332.84	5149.3	
333.05	3917.1	
333.25	3581.9	
333.46	5176.6	
333.67	5361.6	
333.88	3670.6	
334.08	4055.7	
334.29	7188.4	
334.5	6113.9	
334.7	3433.8	
334.91	5083.1	
335.12	4952	
335.33	5857.2	
335.53	3891.8	
335.74	5774.6	
335.95	5172.5	
336.16	4996.4	
336.36	3940.3	
336.57	4485.1	
336.78	4870.8	
336.98	6009.4	
337.19	4803.9	
337.4	3831.7	
337.61	6530.3	
337.81	4913.1	
338.02	3593.5	
338.23	4640.7	
338.43	6148	
338.64	5096.7	
338.85	3540.3	
339.05	4709	
339.26	6191	
339.47	4827.7	
339.68	3504.1	
339.88	5252.4	
340.09	5657.9	
340.3	5828.5	
340.5	4123.9	
340.71	3140.9	
340.92	4881	
341.13	6139.1	
341.33	3446.7	
341.54	4203.1	
341.75	5654.4	
341.95	5240.8	
342.16	3968.3	
342.37	4299.4	
342.57	4990.2	
342.78	5356.8	
342.99	4399	
343.19	3139.5	
343.4	5854.5	
343.61	5714.5	
343.81	3713	
344.02	3487.7	
344.23	5815.5	
344.43	6184.9	
344.64	4407.2	
344.85	4306.2	
345.06	5656.5	
345.26	6053.1	
345.47	4115.1	
345.68	4816.8	
345.88	4743.1	
346.09	5905.7	
346.3	4103.4	
346.5	3162.1	
346.71	5438.7	
346.92	5086.5	
347.12	3236.5	
347.33	4086.4	
347.54	5993.7	
347.74	6341.9	
347.95	3956.7	
348.16	2990.7	
348.36	5214.8	
348.57	5023.7	
348.78	3973.1	
348.98	4341	
349.19	5308.3	
349.39	4874.8	
349.6	3246.7	
349.81	3618.8	
350.01	5655.1	
350.22	5147.2	
350.43	3844	
350.63	4630.5	
350.84	5433.3	
351.05	5203.9	
351.25	3524.6	
351.46	3219.4	
351.67	5898.1	
351.87	5108.3	
352.08	3770.3	
352.29	4313	
352.49	5844.9	
352.7	5948.7	
352.9	3435.1	
353.11	4305.5	
353.32	6497.5	
353.52	5209.3	
353.73	3379.8	
353.94	4294.6	
354.14	5705	
354.35	5504.9	
354.55	3512.3	
354.76	3865.2	
354.97	5600.5	
355.17	5395	
355.38	3273.3	
355.59	4549.2	
355.79	5117.2	
356	5467.4	
356.2	3816.7	
356.41	3317.7	
356.62	4796.3	
356.82	5335.6	
357.03	4169.7	
357.24	3743.7	
357.44	5094.7	
357.65	5215.5	
357.85	4990.2	
358.06	3910.3	
358.27	4846.9	
358.47	5031.2	
358.68	3240.6	
358.88	4065.9	
359.09	5608	
359.3	5993	
359.5	4729.4	
359.71	4237.9	
359.91	6485.9	
360.12	5720.7	
360.33	4060.4	
360.53	4569	
360.74	5074.9	
360.94	5079.6	
361.15	4285.7	
361.36	3504.8	
361.56	5836	
361.77	5292.6	
361.97	4796.3	
362.18	3726.6	
362.38	5866.7	
362.59	4939.7	
362.8	3459	
363	3279.5	
363.21	4771.1	
363.41	5347.9	
363.62	3946.4	
363.83	4980	
364.03	5388.2	
364.24	6404	
364.44	5111.7	
364.65	4926	
364.85	5198.4	
365.06	4859.1	
365.27	3605.1	
365.47	3638.6	
365.68	6240.8	
365.88	5169.8	
366.09	3975.1	
366.29	3695.9	
366.5	5397.8	
366.71	5934.3	
366.91	4959.5	
367.12	4157.4	
367.32	6522.1	
367.53	5717.2	
367.73	4118.5	
367.94	5083.1	
368.14	5679	
368.35	6550.8	
368.56	4117.1	
368.76	3876.8	
368.97	5741.1	
369.17	7409.6	
369.38	3563.5	
369.58	3837.2	
369.79	4837.3	
369.99	6135	
370.2	4848.2	
370.4	3954.6	
370.61	5509.7	
370.82	6661.4	
371.02	3853.6	
371.23	3178.4	
371.43	4710.3	
371.64	6075.6	
371.84	3879.5	
372.05	5102.2	
372.25	7342.7	
372.46	5784.1	
372.66	3874.1	
372.87	3830.4	
373.07	5744.6	
373.28	7378.1	
373.48	4805.2	
373.69	4547.9	
373.9	5300.1	
374.1	5312.4	
374.31	4754.7	
374.51	4242.7	
374.72	6093.4	
374.92	4980	
375.13	4949.3	
375.33	4157.4	
375.54	5625.1	
375.74	5135.6	
375.95	4119.8	
376.15	5442.1	
376.36	5593.7	
376.56	5529.5	
376.77	4240	
376.97	4612	
377.18	6662	
377.38	5725.4	
377.59	4993.6	
377.79	3659.7	
378	5502.9	
378.2	5941.8	
378.41	3805.8	
378.61	3693.9	
378.82	6005.3	
379.02	5096.7	
379.23	3904.1	
379.43	5053.7	
379.64	6083.1	
379.84	5694	
380.05	3796.3	
380.25	3713	
380.46	5797.1	
380.66	5380.7	
380.87	5057.8	
381.07	5401.9	
381.28	6341.2	
381.48	5765	
381.69	3789.4	
381.89	3812	
382.1	4752.7	
382.3	5948	
382.51	4883.7	
382.71	5787.6	
382.91	5776.6	
383.12	6363.7	
383.32	4136.2	
383.53	4393.6	
383.73	5685.8	
383.94	5447.6	
384.14	4318.5	
384.35	3448.8	
384.55	5422.3	
384.76	5837.4	
384.96	4216.1	
385.17	4489.8	
385.37	5841.5	
385.58	5054.4	
385.78	4473.4	
385.98	3426.9	
386.19	5339.7	
386.39	5737.7	
386.6	3913.7	
386.8	4155.3	
387.01	5777.3	
387.21	5865.4	
387.42	4599.7	
387.62	5169.1	
387.83	5096	
388.03	5748	
388.23	4180.6	
388.44	4959.5	
388.64	4831.2	
388.85	4939.7	
389.05	4539	
389.26	5196.4	
389.46	6759.7	
389.67	6249	
389.87	4459.1	
390.07	4618.9	
390.28	5453.1	
390.48	4978.6	
390.69	3743	
390.89	4043.4	
391.1	5143.1	
391.3	6094.1	
391.5	5199.1	
391.71	5836	
391.91	5881.1	
392.12	6836.8	
392.32	5343.8	
392.53	4590.2	
392.73	5279	
392.93	5447.6	
393.14	4232.5	
393.34	5038	
393.55	5960.3	
393.75	5431.9	
393.95	4210.6	
394.16	4154	
394.36	5199.8	
394.57	5907	
394.77	3635.1	
394.98	4133.5	
395.18	5192.3	
395.38	5335	
395.59	4951.3	
395.79	3866.6	
396	5315.2	
396.2	5735	
396.4	4765.6	
396.61	4691.2	
396.81	5999.9	
397.02	5231.2	
397.22	4924	
397.42	5061.2	
397.63	5931.6	
397.83	5168.4	
398.04	3919.8	
398.24	4344.4	
398.44	5668.1	
398.65	4743.8	
398.85	3700	
399.05	3931.4	
399.26	5091.9	
399.46	6746	
399.67	4213.4	
399.87	3920.5	
400.07	5473.5	
400.28	5822.4	
400.48	4014.7	
400.69	5036	
400.89	6016.9	
401.09	6520.7	
401.3	3829	
401.5	5030.5	
401.7	6731.7	
401.91	6883.2	
402.11	4223.6	
402.32	4438.6	
402.52	6006	
402.72	6058.6	
402.93	4701.5	
403.13	3611.9	
403.33	6817	
403.54	5504.3	
403.74	4376.5	
403.94	5297.4	
404.15	5597.8	
404.35	6689.3	
404.56	4151.2	
404.76	6019	
404.96	6049.7	
405.17	5842.2	
405.37	5499.5	
405.57	4637.3	
405.78	6069.5	
405.98	5497.4	
406.18	4197.7	
406.39	5104.9	
406.59	6051.7	
406.79	5644.2	
407	3970.3	
407.2	4106.2	
407.4	6074.3	
407.61	6236.7	
407.81	4091.8	
408.01	6059.3	
408.22	5028.4	
408.42	6967.2	
408.62	5087.8	
408.83	4608.6	
409.03	5535.7	
409.23	5466	
409.44	4622.9	
409.64	4962.2	
409.84	6525.5	
410.05	6365.8	
410.25	4722.6	
410.45	4489.8	
410.66	5824.4	
410.86	8289.5	
411.06	4868.7	
411.27	4846.2	
411.47	7991.2	
411.67	6015.6	
411.88	5011.4	
412.08	5188.2	
412.28	6632	
412.49	7088.7	
412.69	4758.8	
412.89	4797.7	
413.09	6945.3	
413.3	6836.1	
413.5	4881	
413.7	4427.7	
413.91	6051.7	
414.11	6920.1	
414.31	4625.7	
414.52	5124.7	
414.72	6585.6	
414.92	6445	
415.12	4706.9	
415.33	5266.7	
415.53	6841.6	
415.73	7046.4	
415.94	5573.9	
416.14	4985.4	
416.34	5873.6	
416.55	5653.8	
416.75	6173.9	
416.95	5567.7	
417.15	6838.2	
417.36	7632.8	
417.56	6378.1	
417.76	5474.2	
417.97	7253.9	
418.17	6815.6	
418.37	5025.7	
418.57	5119.2	
418.78	6630.6	
418.98	6363	
419.18	5999.2	
419.38	5894.1	
419.59	6441.5	
419.79	5997.8	
419.99	4902.2	
420.2	5298.1	
420.4	6896.2	
420.6	7109.2	
420.8	4851.6	
421.01	4747.9	
421.21	6686.6	
421.41	6926.2	
421.61	5345.9	
421.82	4997	
422.02	6247.7	
422.22	7243	
422.42	5730.2	
422.63	5436.7	
422.83	6416.3	
423.03	7541.3	
423.23	5439.4	
423.44	4416.1	
423.64	6477	
423.84	6178	
424.04	4900.1	
424.25	4605.2	
424.45	7430.7	
424.65	7365.9	
424.85	4371	
425.06	4947.9	
425.26	7356.3	
425.46	5908.4	
425.66	5431.2	
425.87	5148.6	
426.07	7161.1	
426.27	6984.3	
426.47	5315.2	
426.67	4642.7	
426.88	7491.5	
427.08	6868.2	
427.28	5549.3	
427.48	4683.7	
427.69	5846.3	
427.89	6524.8	
428.09	5516.5	
428.29	4696	
428.5	7199.3	
428.7	6731	
428.9	4530.1	
429.1	5089.2	
429.3	6563.7	
429.51	7088	
429.71	4888.5	
429.91	5679	
430.11	6909.2	
430.31	7450.5	
430.52	5192.3	
430.72	5470.1	
430.92	7552.2	
431.12	6951.5	
431.32	4876.9	
431.53	5338.4	
431.73	5855.8	
431.93	7669.6	
432.13	4777.9	
432.33	4620.2	
432.54	6341.9	
432.74	6773.3	
432.94	4545.1	
433.14	5619.6	
433.34	6913.3	
433.55	6377.4	
433.75	5582.1	
433.95	7320.8	
434.15	6687.3	
434.35	6412.9	
434.56	4842.8	
434.76	4343.7	
434.96	6740.5	
435.16	6931	
435.36	4694.6	
435.56	5791	
435.77	6279.1	
435.97	6545.3	
436.17	6447	
436.37	5753.4	
436.57	6270.9	
436.78	6229.9	
436.98	6926.2	
437.18	6333.7	
437.38	6972	
437.58	6591	
437.78	6533	
437.99	5150	
438.19	7016.3	
438.39	7881.3	
438.59	5113.1	
438.79	4557.4	
438.99	7637.6	
439.2	6513.2	
439.4	4715.8	
439.6	4589.5	
439.8	6722.1	
440	7895.6	
440.2	5631.2	
440.4	5760.9	
440.61	7165.2	
440.81	7785.7	
441.01	4885.1	
441.21	5774.6	
441.41	7586.4	
441.61	7281.9	
441.81	6115.2	
442.02	7122.8	
442.22	8064.9	
442.42	7331.7	
442.62	4903.5	
442.82	5025	
443.02	7567.9	
443.22	6746	
443.43	5401.9	
443.63	4871.4	
443.83	6602	
444.03	6533.7	
444.23	6176	
444.43	5787.6	
444.63	6881.9	
444.83	8105.9	
445.04	5111	
445.24	6394.4	
445.44	7217.7	
445.64	7380.9	
445.84	5886.5	
446.04	5957.5	
446.24	6664.8	
446.44	7677.8	
446.65	5036	
446.85	5423	
447.05	6730.3	
447.25	7613	
447.45	5538.4	
447.65	4953.4	
447.85	7008.1	
448.05	6609.5	
448.25	5969.1	
448.46	5841.5	
448.66	6947.4	
448.86	6713.2	
449.06	4791.6	
449.26	5982.8	
449.46	7320.1	
449.66	6361	
449.86	5532.9	
450.06	5470.8	
450.26	6590.4	
450.47	7225.9	
450.67	5868.8	
450.87	6021.7	
451.07	7299.6	
451.27	7043.6	
451.47	5043.5	
451.67	5631.2	
451.87	6675	
452.07	7858.7	
452.27	5328.8	
452.47	5292	
452.67	7015.7	
452.88	7506.5	
453.08	4684.4	
453.28	6728.9	
453.48	8215.8	
453.68	7027.9	
453.88	5233.2	
454.08	5507.7	
454.28	7281.2	
454.48	7015	
454.68	5988.9	
454.88	6604.7	
455.08	7467.6	
455.28	7202	
455.48	5058.5	
455.68	5714.5	
455.89	7924.3	
456.09	7662.1	
456.29	5429.2	
456.49	5399.1	
456.69	7797.3	
456.89	7048.4	
457.09	5989.6	
457.29	6290	
457.49	7471	
457.69	7608.2	
457.89	5832.6	
458.09	5237.3	
458.29	7148.8	
458.49	7991.9	
458.69	6178	
458.89	5687.9	
459.09	8122.2	
459.29	8228.1	
459.49	5802.6	
459.69	6542.6	
459.9	7748.1	
460.1	7222.5	
460.3	5652.4	
460.5	5450.3	
460.7	7570	
460.9	7392.5	
461.1	5088.5	
461.3	6402.6	
461.5	8381.7	
461.7	7887.4	
461.9	5588.9	
462.1	6000.5	
462.3	7465.5	
462.5	8004.8	
462.7	5614.2	
462.9	5724.1	
463.1	8999.5	
463.3	8654	
463.5	5959.6	
463.7	6782.9	
463.9	7573.4	
464.1	8043.7	
464.3	6053.1	
464.5	6250.4	
464.7	8348.9	
464.9	7974.8	
465.1	7618.4	
465.3	6709.1	
465.5	8643.8	
465.7	8554.4	
465.9	6879.1	
466.1	6741.2	
466.3	8462.2	
466.5	8242.4	
466.7	7534.5	
466.9	6503.7	
467.1	8147.5	
467.3	9142.8	
467.5	7632.1	
467.7	6417	
467.9	9309.4	
468.1	10194	
468.3	7261.4	
468.5	7643	
468.7	8199.4	
468.9	8176.9	
469.1	6756.2	
469.3	7466.2	
469.5	10155	
469.7	7822.6	
469.9	7226.6	
470.1	6505	
470.3	8205.5	
470.5	8245.1	
470.7	7791.8	
470.9	6666.8	
471.1	8004.1	
471.3	8504.5	
471.5	6427.9	
471.69	8332.5	
471.89	7869	
472.09	7449.8	
472.29	7268.2	
472.49	7608.9	
472.69	7716.7	
472.89	8552.3	
473.09	6322.8	
473.29	6507.8	
473.49	7764.5	
473.69	7899.7	
473.89	7480.5	
474.09	6665.5	
474.29	9194.7	
474.49	8815.1	
474.69	7410.9	
474.89	6819.1	
475.09	8046.5	
475.29	7887.4	
475.49	6290.7	
475.69	6466.1	
475.88	9673.2	
476.08	8359.8	
476.28	6195.1	
476.48	6657.9	
476.68	8849.3	
476.88	8562.6	
477.08	6408.1	
477.28	6793.8	
477.48	8107.9	
477.68	8749.6	
477.88	6285.2	
478.08	6722.8	
478.28	9117.6	
478.48	8283.4	
478.67	6677.7	
478.87	6184.9	
479.07	8941.4	
479.27	8418.5	
479.47	6907.8	
479.67	6900.3	
479.87	8734.6	
480.07	9306.7	
480.27	6184.9	
480.47	7722.9	
480.67	8387.1	
480.87	9004.9	
481.06	6448.4	
481.26	7350.2	
481.46	8332.5	
481.66	8316.8	
481.86	6887.3	
482.06	8011	
482.26	8058.1	
482.46	9050	
482.66	6846.4	
482.86	6483.9	
483.05	8411	
483.25	7873.8	
483.45	9384.5	
483.65	6878.4	
483.85	8079.9	
484.05	8396.7	
484.25	7275.8	
484.45	7825.3	
484.65	9237.7	
484.84	9168.8	
485.04	6787.7	
485.24	6826.6	
485.44	9506.7	
485.64	7822.6	
485.84	6103.6	
486.04	7488.7	
486.24	8197.3	
486.44	8594.6	
486.63	6096.1	
486.83	6946	
487.03	8155.7	
487.23	8381.7	
487.43	6298.2	
487.63	8713.4	
487.83	8413.7	
488.02	9325.8	
488.22	7243	
488.42	7834.2	
488.62	9286.9	
488.82	8238.3	
489.02	6872.3	
489.22	6958.3	
489.41	9168.1	
489.61	8816.5	
489.81	6610.8	
490.01	6735.1	
490.21	9059.5	
490.41	9715.6	
490.61	6571.2	
490.8	6781.5	
491	8563.2	
491.2	8007.6	
491.4	7337.9	
491.6	6464.1	
491.8	8533.2	
491.99	8780.3	
492.19	6377.4	
492.39	6685.9	
492.59	9032.9	
492.79	9030.9	
492.99	7534.5	
493.18	6629.3	
493.38	9218.6	
493.58	9973.6	
493.78	7354.3	
493.98	6958.3	
494.18	8904.6	
494.37	8464.3	
494.57	7714.7	
494.77	7557	
494.97	9230.2	
495.17	9497.1	
495.37	7160.4	
495.56	7473.7	
495.76	9706	
495.96	9388.6	
496.16	8396	
496.36	7331.7	
496.55	9474.6	
496.75	9009.7	
496.95	7737.2	
497.15	7552.9	
497.35	9450	
497.54	9476.6	
497.74	7301.7	
497.94	9047.9	
498.14	10161	
498.34	9947.7	
498.53	6984.3	
498.73	7929.1	
498.93	8874.5	
499.13	9544.2	
499.33	7791.2	
499.52	8186.4	
499.72	9471.9	
499.92	9766.8	
500.12	7492.2	
500.32	7692.2	
500.51	9797.5	
500.71	9669.1	
500.91	8582.4	
501.11	8187.1	
501.31	9570.2	
501.5	10108	
501.7	8839	
501.9	7807.5	
502.1	9522.4	
502.29	9773.6	
502.49	8206.9	
502.69	8662.2	
502.89	9767.4	
503.09	9673.2	
503.28	7316	
503.48	7368.6	
503.68	8888.9	
503.88	9000.8	
504.07	8359.8	
504.27	7808.9	
504.47	9317.6	
504.67	9535.3	
504.86	8271.7	
505.06	7957	
505.26	9179	
505.46	10936	
505.65	7867.6	
505.85	8029.4	
506.05	9000.8	
506.25	9420	
506.44	7146.7	
506.64	8144.8	
506.84	8756.4	
507.04	9841.9	
507.23	7439.6	
507.43	7969.3	
507.63	10929	
507.83	9248.6	
508.02	7906.5	
508.22	7607.5	
508.42	11087	
508.62	8840.4	
508.81	7789.8	
509.01	8487.5	
509.21	8924.4	
509.4	9019.3	
509.6	8081.3	
509.8	7464.2	
510	9067	
510.19	10486	
510.39	7348.1	
510.59	7484.6	
510.79	8903.2	
510.98	10353	
511.18	7641.7	
511.38	7736.5	
511.57	9767.4	
511.77	9549.7	
511.97	8393.3	
512.17	7342.7	
512.36	9725.8	
512.56	9635.7	
512.76	7450.5	
512.95	7011.6	
513.15	9891	
513.35	8430.8	
513.55	8286.1	
513.74	7484	
513.94	9740.1	
514.14	9086.2	
514.33	8489.5	
514.53	8146.1	
514.73	9106.6	
514.92	9291.6	
515.12	7595.2	
515.32	7395.2	
515.51	9381.1	
515.71	10040	
515.91	9143.5	
516.11	7548.8	
516.3	11161	
516.5	9036.3	
516.7	8132.5	
516.89	8702.5	
517.09	9197.4	
517.29	9034.3	
517.48	8366.6	
517.68	7733.8	
517.88	8832.9	
518.07	9514.2	
518.27	8373.5	
518.47	7279.8	
518.66	10045	
518.86	8681.3	
519.06	7115.3	
519.25	7578.8	
519.45	9024	
519.65	10580	
519.84	8275.8	
520.04	8966.7	
520.24	10983	
520.43	9766.1	
520.63	8064.9	
520.83	7778.9	
521.02	8903.9	
521.22	9658.2	
521.42	8207.6	
521.61	8852	
521.81	9073.2	
522.01	9266.4	
522.2	8140.7	
522.4	7835.5	
522.6	9854.1	
522.79	8545.5	
522.99	7942.7	
523.18	7282.6	
523.38	9626.8	
523.58	9563.3	
523.77	9275.9	
523.97	7259.4	
524.17	11497	
524.36	10630	
524.56	8622.6	
524.76	8359.1	
524.95	9684.8	
525.15	9351	
525.34	8226.7	
525.54	8193.9	
525.74	10057	
525.93	9089.6	
526.13	9366	
526.33	8193.9	
526.52	10430	
526.72	9927.9	
526.91	9401.5	
527.11	8675.9	
527.31	10432	
527.5	10897	
527.7	8607.6	
527.89	7662.1	
528.09	9393.3	
528.29	9979.1	
528.48	9053.4	
528.68	8639	
528.87	10320	
529.07	10333	
529.27	8598.1	
529.46	8181.6	
529.66	10053	
529.85	10499	
530.05	7984.3	
530.25	8792.6	
530.44	11480	
530.64	9896.5	
530.83	8467	
531.03	8591.2	
531.23	10360	
531.42	10200	
531.62	9355.8	
531.81	8484.7	
532.01	10555	
532.21	10991	
532.4	8385.1	
532.6	8770.8	
532.79	11576	
532.99	10705	
533.18	8821.3	
533.38	9949.7	
533.58	10150	
533.77	10961	
533.97	8809.7	
534.16	9589.3	
534.36	11228	
534.55	10282	
534.75	10016	
534.95	8921	
535.14	11157	
535.34	10287	
535.53	8594.6	
535.73	10540	
535.92	11701	
536.12	10477	
536.31	8703.9	
536.51	9822.1	
536.71	10708	
536.9	10341	
537.1	8785.8	
537.29	8989.9	
537.49	11172	
537.68	10234	
537.88	9293	
538.07	8554.4	
538.27	10501	
538.46	11536	
538.66	8377.6	
538.86	8886.1	
539.05	10507	
539.25	11078	
539.44	9290.3	
539.64	8899.8	
539.83	10420	
540.03	11424	
540.22	8721.6	
540.42	8813.8	
540.61	10606	
540.81	10672	
541	9273.9	
541.2	9811.8	
541.39	10077	
541.59	10482	
541.78	9548.3	
541.98	8714.8	
542.18	9819.3	
542.37	9861	
542.57	9047.2	
542.76	9556.5	
542.96	9947.7	
543.15	10587	
543.35	9085.5	
543.54	8327.7	
543.74	10864	
543.93	10396	
544.13	9007	
544.32	10187	
544.52	10656	
544.71	9934	
544.91	8107.9	
545.1	9382.4	
545.3	10009	
545.49	10648	
545.69	8061.5	
545.88	8597.4	
546.08	11632	
546.27	11153	
546.47	9175.6	
546.66	8385.7	
546.86	10804	
547.05	11503	
547.24	8665.6	
547.44	8501.8	
547.63	9723.1	
547.83	11011	
548.02	8895	
548.22	9157.2	
548.41	9631.6	
548.61	10984	
548.8	8480	
549	8359.1	
549.19	10253	
549.39	10580	
549.58	8068.3	
549.78	8738.7	
549.97	10672	
550.17	10158	
550.36	9549	
550.55	10642	
550.75	9988.6	
550.94	11097	
551.14	8348.2	
551.33	8724.3	
551.53	9405	
551.72	10585	
551.92	8697.7	
552.11	8509.3	
552.31	10451	
552.5	10585	
552.69	10114	
552.89	8157.1	
553.08	10472	
553.28	10122	
553.47	8544.1	
553.67	9693	
553.86	11088	
554.06	9389.9	
554.25	7716.7	
554.44	8416.5	
554.64	11803	
554.83	11398	
555.03	8198	
555.22	8677.2	
555.42	10781	
555.61	10298	
555.8	8439.7	
556	8820.6	
556.19	9422	
556.39	10843	
556.58	8540	
556.78	8447.2	
556.97	10214	
557.16	9929.9	
557.36	9815.2	
557.55	8072.4	
557.75	9189.2	
557.94	11040	
558.13	8240.3	
558.33	8006.9	
558.52	10798	
558.72	9706.7	
558.91	8101.1	
559.1	8421.9	
559.3	9406.3	
559.49	9093	
559.69	7679.9	
559.88	8660.9	
560.07	10170	
560.27	10585	
560.46	8809	
560.66	9052	
560.85	10015	
561.04	9084.1	
561.24	8121.6	
561.43	8302.5	
561.63	9458.9	
561.82	9691.7	
562.01	9622	
562.21	8581	
562.4	10079	
562.59	11066	
562.79	8357.1	
562.98	8090.2	
563.18	10009	
563.37	11490	
563.56	8886.8	
563.76	8017.1	
563.95	9626.8	
564.14	9512.8	
564.34	8379.6	
564.53	8302.5	
564.73	10026	
564.92	10411	
565.11	8613.1	
565.31	8018.5	
565.5	10672	
565.69	9633	
565.89	8243.8	
566.08	8413.7	
566.27	10563	
566.47	10912	
566.66	9035	
566.85	7767.3	
567.05	10088	
567.24	9453.4	
567.44	8127.7	
567.63	9569.5	
567.82	10461	
568.02	10083	
568.21	8140.7	
568.4	8533.9	
568.6	10103	
568.79	10034	
568.98	7945.4	
569.18	8269	
569.37	10038	
569.56	12066	
569.76	8580.3	
569.95	9552.4	
570.14	10481	
570.34	10241	
570.53	8128.4	
570.72	8155.7	
570.91	10908	
571.11	10030	
571.3	8605.6	
571.49	9422	
571.69	10114	
571.88	9620	
572.07	9197.4	
572.27	9156.5	
572.46	9702.6	
572.65	10684	
572.85	8326.4	
573.04	8654	
573.23	10957	
573.43	10110	
573.62	8120.9	
573.81	8740.7	
574	10212	
574.2	9979.8	
574.39	8522.3	
574.58	8768	
574.78	11078	
574.97	10339	
575.16	9056.8	
575.36	9325.8	
575.55	10722	
575.74	10911	
575.93	8191.9	
576.13	9351.7	
576.32	10144	
576.51	10611	
576.71	8671.8	
576.9	9985.2	
577.09	11030	
577.28	10527	
577.48	8981.7	
577.67	8042.4	
577.86	10280	
578.05	10611	
578.25	8744.1	
578.44	8884.1	
578.63	10346	
578.83	11535	
579.02	8159.8	
579.21	9778.4	
579.4	10596	
579.6	10337	
579.79	8992.6	
579.98	11277	
580.17	10992	
580.37	11006	
580.56	8536.6	
580.75	9220	
580.94	11452	
581.14	11247	
581.33	9695.8	
581.52	8575.5	
581.71	10791	
581.91	11442	
582.1	8329.8	
582.29	8911.4	
582.48	10444	
582.68	10327	
582.87	9338.1	
583.06	8957.8	
583.25	10830	
583.45	10212	
583.64	9686.9	
583.83	10494	
584.02	10187	
584.21	10732	
584.41	9713.5	
584.6	8926.4	
584.79	10393	
584.98	11259	
585.18	8338.6	
585.37	8414.4	
585.56	9940.8	
585.75	10806	
585.94	8650.6	
586.14	9307.3	
586.33	11381	
586.52	10397	
586.71	9089.6	
586.91	8902.5	
587.1	9743.6	
587.29	10750	
587.48	8737.3	
587.67	8652	
587.87	10694	
588.06	10669	
588.25	10020	
588.44	9297.1	
588.63	10352	
588.83	10860	
589.02	8699.1	
589.21	8664.3	
589.4	10096	
589.59	10017	
589.78	7800.7	
589.98	8069.7	
590.17	9472.5	
590.36	10138	
590.55	7374.1	
590.74	8198	
590.94	11307	
591.13	9953.1	
591.32	8014.4	
591.51	7489.4	
591.7	10365	
591.89	9841.9	
592.09	7694.9	
592.28	8098.4	
592.47	9205.6	
592.66	10977	
592.85	7619.1	
593.05	7945.4	
593.24	9676.7	
593.43	10574	
593.62	7891.5	
593.81	8515.5	
594	9727.2	
594.19	10002	
594.39	7905.2	
594.58	7881.9	
594.77	10157	
594.96	10666	
595.15	7800	
595.34	8439.7	
595.54	10092	
595.73	9088.2	
595.92	7120.8	
596.11	8272.4	
596.3	10593	
596.49	9245.2	
596.68	8056	
596.88	8516.1	
597.07	10260	
597.26	9065.7	
597.45	7502.4	
597.64	8766.7	
597.83	9325.8	
598.02	10017	
598.22	7693.5	
598.41	8327	
598.6	9816.6	
598.79	9101.2	
598.98	7640.3	
599.17	8632.2	
599.36	9809.1	
599.55	10927	
599.74	9670.5	
599.94	9435.7	
600.13	10248	
600.32	9113.5	
600.51	7293.5	
600.7	7529.7	
600.89	10934	
601.08	10923	
601.27	7338.6	
601.47	8340	
601.66	10221	
601.85	10841	
602.04	8035.5	
602.23	8235.6	
602.42	9179.7	
602.61	9775.6	
602.8	7942	
602.99	7667.6	
603.18	9525.8	
603.37	9753.1	
603.57	8339.3	
603.76	8813.1	
603.95	10501	
604.14	10064	
604.33	7757.7	
604.52	8125	
604.71	9686.9	
604.9	9353.1	
605.09	8649.9	
605.28	8433.5	
605.47	10311	
605.66	9966.1	
605.86	8321.6	
606.05	7714	
606.24	10264	
606.43	8800.8	
606.62	8054	
606.81	8787.8	
607	10076	
607.19	9445.9	
607.38	7434.1	
607.57	7697.6	
607.76	9200.8	
607.95	8647.2	
608.14	8044.4	
608.33	8762.6	
608.52	9320.3	
608.72	10073	
608.91	7367.2	
609.1	7298.3	
609.29	9340.1	
609.48	8806.9	
609.67	8301.1	
609.86	7413.6	
610.05	8930.5	
610.24	9228.1	
610.43	7150.1	
610.62	6861.4	
610.81	10428	
611	10120	
611.19	7289.4	
611.38	8088.8	
611.57	9525.8	
611.76	10998	
611.95	7173.4	
612.14	6920.1	
612.33	9397.4	
612.52	8826.7	
612.71	7651.2	
612.9	6788.3	
613.09	8482	
613.28	10843	
613.47	7458.7	
613.66	8331.8	
613.85	9503.3	
614.04	9020.6	
614.24	7466.2	
614.43	6678.4	
614.62	9548.3	
614.81	9489.6	
615	8056.7	
615.19	7968.6	
615.38	8814.5	
615.57	9097.8	
615.76	7787.7	
615.95	8794	
616.14	9612.5	
616.33	9260.9	
616.52	8234.2	
616.71	8473.8	
616.9	9532.6	
617.09	9425.4	
617.28	7522.2	
617.47	8782.4	
617.66	8660.9	
617.85	8746.9	
618.04	8424.7	
618.22	7957.7	
618.41	9045.9	
618.6	10004	
618.79	7765.9	
618.98	7572.7	
619.17	10262	
619.36	8657.4	
619.55	7760.4	
619.74	7740	
619.93	9551.7	
620.12	9056.1	
620.31	8346.8	
620.5	8593.3	
620.69	10580	
620.88	10506	
621.07	9146.9	
621.26	8145.5	
621.45	9877.4	
621.64	9772.2	
621.83	8364.6	
622.02	7535.8	
622.21	9786.6	
622.4	9575.6	
622.59	8942.1	
622.78	8645.2	
622.97	9170.1	
623.16	10163	
623.35	8316.1	
623.54	7466.2	
623.72	9533.3	
623.91	9602.2	
624.1	8515.5	
624.29	7261.4	
624.48	10602	
624.67	9824.8	
624.86	8535.9	
625.05	7520.1	
625.24	10735	
625.43	9088.2	
625.62	10211	
625.81	7759.8	
626	10175	
626.19	9439.1	
626.38	8611	
626.56	8059.4	
626.75	9352.4	
626.94	10154	
627.13	8499.8	
627.32	7277.1	
627.51	10016	
627.7	11324	
627.89	7436.2	
628.08	8540.7	
628.27	9180.4	
628.46	9315.5	
628.65	7706.5	
628.83	7348.8	
629.02	9966.8	
629.21	9194	
629.4	8077.2	
629.59	8345.5	
629.78	9214.5	
629.97	10043	
630.16	8445.8	
630.35	7823.2	
630.54	10543	
630.72	10209	
630.91	7746.8	
631.1	8531.2	
631.29	9749	
631.48	9920.4	
631.67	8503.8	
631.86	7862.2	
632.05	9305.3	
632.24	9398.1	
632.42	7542	
632.61	8209.6	
632.8	9467.1	
632.99	9144.9	
633.18	8147.5	
633.37	8708	
633.56	9715.6	
633.75	9508	
633.93	8057.4	
634.12	7794.6	
634.31	10450	
634.5	10097	
634.69	7932.5	
634.88	8288.1	
635.07	9446.6	
635.25	10047	
635.44	8854.1	
635.63	8979	
635.82	9254.8	
636.01	8835.6	
636.2	8729.1	
636.39	8125.7	
636.57	10347	
636.76	10117	
636.95	7684.7	
637.14	8966	
637.33	9707.4	
637.52	10780	
637.7	7464.8	
637.89	8377.6	
638.08	9358.5	
638.27	10815	
638.46	8463.6	
638.65	8973.5	
638.83	10772	
639.02	9088.9	
639.21	8485.4	
639.4	8933.2	
639.59	9592	
639.78	9093.7	
639.96	7599.3	
640.15	7637.6	
640.34	9357.9	
640.53	9519.6	
640.72	7329.7	
640.91	7626	
641.09	8818.6	
641.28	10198	
641.47	7649.2	
641.66	8563.9	
641.85	9450	
642.03	9753.8	
642.22	8241.7	
642.41	7679.9	
642.6	9041.1	
642.79	8403.5	
642.97	7516.7	
643.16	8267.6	
643.35	8916.9	
643.54	8703.9	
643.73	7402.7	
643.91	8178.9	
644.1	8500.4	
644.29	9232.2	
644.48	7434.1	
644.67	7458	
644.85	8789.2	
645.04	9103.2	
645.23	7128.3	
645.42	7431.4	
645.6	8547.5	
645.79	9839.8	
645.98	7351.5	
646.17	6440.9	
646.36	8230.8	
646.54	8921	
646.73	8208.9	
646.92	6888.7	
647.11	8445.8	
647.29	9462.3	
647.48	6895.5	
647.67	6801.3	
647.86	9823.4	
648.05	9857.6	
648.23	7242.3	
648.42	8559.1	
648.61	9148.3	
648.8	8905.3	
648.98	6868.9	
649.17	7181.5	
649.36	8386.4	
649.55	7901.1	
649.73	6961.7	
649.92	7733.1	
650.11	8305.2	
650.3	8663.6	
650.48	7111.2	
650.67	6862.7	
650.86	8951	
651.05	7770.7	
651.23	7031.4	
651.42	6926.2	
651.61	8411	
651.79	8494.3	
651.98	7208.2	
652.17	6779.5	
652.36	8812.4	
652.54	7945.4	
652.73	6804.7	
652.92	6703.7	
653.11	8916.9	
653.29	9006.3	
653.48	6154.8	
653.67	7105.1	
653.85	8654	
654.04	9637.1	
654.23	7391.1	
654.42	6883.9	
654.6	8143.4	
654.79	8740.7	
654.98	6315.9	
655.16	6756.2	
655.35	7647.8	
655.54	7584.3	
655.73	6277	
655.91	6152.1	
656.1	8761.9	
656.29	7505.1	
656.47	5810.8	
656.66	7548.8	
656.85	7820.5	
657.03	7962.5	
657.22	6429.3	
657.41	6549.4	
657.59	8050.6	
657.78	7722.9	
657.97	6214.2	
658.16	6978.1	
658.34	8633.6	
658.53	9069.1	
658.72	7700.4	
658.9	8337.3	
659.09	8004.1	
659.28	8197.3	
659.46	6660.7	
659.65	6563.1	
659.84	7948.8	
660.02	8343.4	
660.21	6415.6	
660.4	6378.7	
660.58	8867.7	
660.77	8243.8	
660.96	6923.5	
661.14	6096.1	
661.33	9310.1	
661.52	9183.1	
661.7	6044.2	
661.89	9684.8	
662.08	7723.6	
662.26	7394.5	
662.45	6247.7	
662.64	6421.7	
662.82	8493.6	
663.01	7612.3	
663.2	6399.9	
663.38	7169.3	
663.57	8370.7	
663.75	8198.7	
663.94	6651.8	
664.13	7859.4	
664.31	7723.6	
664.5	8373.5	
664.69	6932.4	
664.87	7484.6	
665.06	7562.5	
665.25	8243.8	
665.43	7699	
665.62	7757.7	
665.8	8546.9	
665.99	7869.7	
666.18	6678.4	
666.36	6829.3	
666.55	8546.9	
666.74	8458.8	
666.92	6305.7	
667.11	7961.1	
667.29	7897	
667.48	8530.5	
667.67	7541.3	
667.85	6539.8	
668.04	7972.7	
668.22	7981.6	
668.41	6750.8	
668.6	6898.2	
668.78	7733.8	
668.97	7946.8	
669.15	7047.7	
669.34	6031.3	
669.53	7626	
669.71	8036.9	
669.9	6307.1	
670.08	6896.2	
670.27	7677.8	
670.46	8321.6	
670.64	7098.9	
670.83	7374.7	
671.01	7558.4	
671.2	8259.5	
671.38	6321.4	
671.57	6125.5	
671.76	8837.7	
671.94	9422	
672.13	6174.6	
672.31	7198.6	
672.5	8389.2	
672.69	7649.8	
672.87	6318	
673.06	6598.6	
673.24	8267	
673.43	7730.4	
673.61	7043.6	
673.8	6562.4	
673.98	8389.8	
674.17	8558.5	
674.36	7167.2	
674.54	7036.1	
674.73	8125	
674.91	8486.1	
675.1	6730.3	
675.28	6343.2	
675.47	7985	
675.65	8471.8	
675.84	6516.6	
676.03	6913.3	
676.21	7781.6	
676.4	7193.1	
676.58	7385	
676.77	7138.5	
676.95	9172.2	
677.14	7565.9	
677.32	6204	
677.51	6108.4	
677.69	8414.4	
677.88	7339.9	
678.06	6198.5	
678.25	6316.6	
678.44	7934.5	
678.62	7701.7	
678.81	6001.9	
678.99	7009.5	
679.18	8816.5	
679.36	8299.7	
679.55	6527.6	
679.73	7170.6	
679.92	8321.6	
680.1	7709.2	
680.29	7814.4	
680.47	6597.9	
680.66	7626	
680.84	8502.5	
681.03	5801.2	
681.21	6849.8	
681.4	7652.6	
681.58	7535.2	
681.77	6296.8	
681.95	6253.8	
682.14	8509.3	
682.32	8787.2	
682.51	7202.7	
682.69	6080.4	
682.88	7554.3	
683.06	8191.9	
683.25	6865.5	
683.43	7394.5	
683.62	7854.6	
683.8	8232.8	
683.99	7503.1	
684.17	6773.3	
684.36	9204.3	
684.54	7729	
684.73	5933.6	
684.91	6100.9	
685.1	8082.7	
685.28	7453.2	
685.46	6625.2	
685.65	6738.5	
685.83	8204.2	
686.02	7554.3	
686.2	6099.5	
686.39	6285.9	
686.57	7379.5	
686.76	8915.5	
686.94	6124.8	
687.13	6337.8	
687.31	8148.2	
687.5	7701	
687.68	5705	
687.86	7036.8	
688.05	9400.2	
688.23	7160.4	
688.42	7041.6	
688.6	6233.3	
688.79	7534.5	
688.97	7619.8	
689.16	6602.7	
689.34	5600.5	
689.52	8424.7	
689.71	8523	
689.89	6949.4	
690.08	6209.4	
690.26	7920.9	
690.45	7774.8	
690.63	7079.8	
690.81	6383.5	
691	7633.5	
691.18	7546.1	
691.37	6576	
691.55	8667	
691.74	7512.6	
691.92	9485.5	
692.1	6640.2	
692.29	5986.2	
692.47	7650.5	
692.66	7017	
692.84	6153.5	
693.02	6757.6	
693.21	7098.9	
693.39	7617.1	
693.58	6862.7	
693.76	6264.1	
693.94	8850.6	
694.13	8640.4	
694.31	6244.3	
694.5	7306.5	
694.68	7543.4	
694.86	7870.3	
695.05	6578.8	
695.23	6731.7	
695.42	8248.5	
695.6	10571	
695.78	7260.7	
695.97	6305	
696.15	8245.8	
696.34	7658	
696.52	6042.9	
696.7	6951.5	
696.89	7972.1	
697.07	7444.4	
697.25	6816.3	
697.44	8254.7	
697.62	7920.9	
697.81	8288.1	
697.99	6588.3	
698.17	7019.1	
698.36	7307.2	
698.54	7988.4	
698.72	6812.9	
698.91	5868.8	
699.09	7489.4	
699.28	7484	
699.46	6569.9	
699.64	6331	
699.83	7342	
700.01	8637	
700.19	7146	
700.38	5579.3	
700.56	8510.7	
700.74	7421.8	
700.93	5958.9	
701.11	6726.2	
701.29	8004.8	
701.48	9026.1	
701.66	6171.2	
701.84	6196.5	
702.03	7564.5	
702.21	8331.8	
702.39	5839.4	
702.58	6398.5	
702.76	7957.7	
702.94	8123.6	
703.13	5823.1	
703.31	8185.7	
703.49	7279.8	
703.68	8784.4	
703.86	5958.9	
704.04	7010.2	
704.23	7760.4	
704.41	8166.6	
704.59	6118	
704.78	7443.7	
704.96	8896.4	
705.14	8269	
705.33	5904.3	
705.51	6737.8	
705.69	7630	
705.87	8439.7	
706.06	6995.2	
706.24	5791.7	
706.42	7930.4	
706.61	8153.6	
706.79	7010.9	
706.97	5868.8	
707.16	7354.9	
707.34	7957.7	
707.52	6882.5	
707.7	6098.9	
707.89	7534.5	
708.07	7223.9	
708.25	6908.5	
708.44	7127.6	
708.62	7309.2	
708.8	8519.6	
708.98	7221.8	
709.17	6111.1	
709.35	7880.6	
709.53	7849.9	
709.72	5838.1	
709.9	6310.5	
710.08	8056.7	
710.26	8079.2	
710.45	7557.7	
710.63	6210.8	
710.81	7696.9	
710.99	7746.8	
711.18	6744.6	
711.36	6326.2	
711.54	7482.6	
711.72	8200.1	
711.91	6268.8	
712.09	5823.7	
712.27	7676.5	
712.45	8746.9	
712.64	6548.7	
712.82	5649.7	
713	7040.9	
713.18	7187	
713.37	5751.4	
713.55	6954.9	
713.73	8082	
713.91	6711.2	
714.1	6190.3	
714.28	5543.9	
714.46	7740.6	
714.64	6952.2	
714.83	5006.6	
715.01	5755.5	
715.19	6977.4	
715.37	6381.5	
715.55	5418.9	
715.74	5741.8	
715.92	7886	
716.1	5891.3	
716.28	6789	
716.47	5879.7	
716.65	6535.8	
716.83	6655.9	
717.01	5722	
717.19	5786.9	
717.38	8774.2	
717.56	6284.5	
717.74	5975.3	
717.92	5079	
718.1	7619.1	
718.29	6754.9	
718.47	4774.5	
718.65	5431.9	
718.83	7501	
719.01	7427.3	
719.2	4689.2	
719.38	5769.1	
719.56	7126.9	
719.74	8733.2	
719.92	5328.8	
720.11	6420.4	
720.29	7132.4	
720.47	6313.9	
720.65	4747.2	
720.83	5827.8	
721.02	6587	
721.2	6344.6	
721.38	5705	
721.56	5044.8	
721.74	5889.3	
721.92	6152.8	
722.11	6290	
722.29	5928.9	
722.47	7326.3	
722.65	6513.2	
722.83	5049.6	
723.01	5950.7	
723.2	6546	
723.38	6855.9	
723.56	4412	
723.74	5664.7	
723.92	6102.3	
724.1	7187.7	
724.29	4936.3	
724.47	6189	
724.65	6122.7	
724.83	6042.2	
725.01	4862.6	
725.19	5690.6	
725.37	6093.4	
725.56	6143.9	
725.74	4665.3	
725.92	4915.1	
726.1	6002.6	
726.28	6298.9	
726.46	5335	
726.64	5057.1	
726.83	6315.3	
727.01	6598.6	
727.19	4652.3	
727.37	5502.2	
727.55	6451.8	
727.73	6911.9	
727.91	4628.4	
728.09	4432.5	
728.28	6932.4	
728.46	7509.2	
728.64	5604.6	
728.82	5543.2	
729	8039	
729.18	7247.8	
729.36	4676.9	
729.54	7019.8	
729.72	8279.9	
729.91	6549.4	
730.09	6651.1	
730.27	5414.1	
730.45	6337.1	
730.63	7090.8	
730.81	6009.4	
730.99	5036.6	
731.17	7632.1	
731.35	6167.1	
731.53	5597.8	
731.71	5199.1	
731.9	7355.6	
732.08	7482.6	
732.26	5510.4	
732.44	5042.1	
732.62	7565.9	
732.8	7040.2	
732.98	5890.6	
733.16	4874.8	
733.34	6995.9	
733.52	5806.7	
733.7	5423.7	
733.88	5598.5	
734.07	6860	
734.25	6669.6	
734.43	4796.3	
734.61	6516	
734.79	8103.1	
734.97	6469.5	
735.15	5032.5	
735.33	5363.6	
735.51	6806.1	
735.69	6464.1	
735.87	6365.1	
736.05	5497.4	
736.23	6695.5	
736.41	6450.4	
736.59	5309	
736.77	5453.7	
736.95	7128.3	
737.13	6460	
737.32	5020.3	
737.5	5194.3	
737.68	7641	
737.86	6352.1	
738.04	4777.2	
738.22	6690.7	
738.4	6224.5	
738.58	6553.5	
738.76	5474.9	
738.94	4404.5	
739.12	6378.7	
739.3	6200.6	
739.48	6063.4	
739.66	5804.6	
739.84	6574	
740.02	6599.9	
740.2	4420.9	
740.38	4880.3	
740.56	6967.9	
740.74	5875.6	
740.92	5530.9	
741.1	5421	
741.28	6464.1	
741.46	6223.1	
741.64	5094	
741.82	5603.2	
742	6353.5	
742.18	6414.9	
742.36	5229.8	
742.54	4863.2	
742.72	6917.4	
742.9	5702.2	
743.08	5689.3	
743.26	4430.4	
743.44	7246.4	
743.62	7044.3	
743.8	5738.4	
743.98	4814.1	
744.16	6709.8	
744.34	6432	
744.52	5680.4	
744.7	5537	
744.88	6834.1	
745.06	6367.8	
745.24	5685.2	
745.42	5870.8	
745.6	6936.5	
745.78	6729.6	
745.96	4479.6	
746.14	4868	
746.32	7701	
746.5	6918	
746.68	5489.2	
746.86	4923.3	
747.03	7402	
747.21	5666	
747.39	5415.5	
747.57	4874.8	
747.75	6591	
747.93	6942.6	
748.11	4896	
748.29	4800.4	
748.47	8217.1	
748.65	6251.1	
748.83	5640.8	
749.01	5367	
749.19	6768.5	
749.37	5898.8	
749.55	5132.9	
749.73	5199.8	
749.91	6378.7	
750.09	6177.4	
750.26	5294	
750.44	4664.6	
750.62	6412.2	
750.8	6442.9	
750.98	4552	
751.16	4891.2	
751.34	6494.8	
751.52	5795.8	
751.7	5672.9	
751.88	4547.2	
752.06	6980.8	
752.24	6793.8	
752.42	4468	
752.59	4895.3	
752.77	6383.5	
752.95	7698.3	
753.13	5603.2	
753.31	4971.1	
753.49	6065.4	
753.67	6532.3	
753.85	5268.1	
754.03	4866	
754.21	6804	
754.38	7165.2	
754.56	5027.1	
754.74	4037.2	
754.92	6044.9	
755.1	6753.5	
755.28	4088.4	
755.46	4135.5	
755.64	7582.9	
755.82	7591.1	
755.99	4420.9	
756.17	4491.2	
756.35	5012.1	
756.53	6657.9	
756.71	3356.6	
756.89	4348.5	
757.07	6191.7	
757.25	5377.3	
757.42	4908.3	
757.6	5779.4	
757.78	6266.1	
757.96	5279.7	
758.14	4588.1	
758.32	4084.3	
758.5	4881	
758.67	5663.3	
758.85	4360.1	
759.03	4506.9	
759.21	5937.7	
759.39	5324	
759.57	3973.1	
759.75	5143.1	
759.92	6510.5	
760.1	5786.9	
760.28	5471.5	
760.46	5740.5	
760.64	5591.6	
760.82	5281.7	
760.99	5303.6	
761.17	4510.3	
761.35	6372.6	
761.53	5330.9	
761.71	4574.5	
761.89	5343.8	
762.06	6269.5	
762.24	5758.9	
762.42	4639.3	
762.6	4518.5	
762.78	5728.9	
762.96	6438.8	
763.13	5137.7	
763.31	4769	
763.49	6612.9	
763.67	5740.5	
763.85	5612.8	
764.02	6204	
764.2	6903	
764.38	6017.6	
764.56	4577.9	
764.74	5521.3	
764.91	6910.5	
765.09	5842.2	
765.27	4308.2	
765.45	4065.9	
765.63	6968.6	
765.8	6892.8	
765.98	3842	
766.16	4146.5	
766.34	5402.5	
766.52	5240.1	
766.69	5173.9	
766.87	3971.7	
767.05	5799.2	
767.23	6656.6	
767.41	4307.6	
767.58	4587.4	
767.76	6383.5	
767.94	6445.6	
768.12	4427	
768.29	5064.6	
768.47	5921.4	
768.65	6705	
768.83	4030.4	
769	5204.6	
769.18	5453.1	
769.36	6185.5	
769.54	5260.5	
769.72	4098.7	
769.89	6442.9	
770.07	6550.8	
770.25	4382.7	
770.43	5720.7	
770.6	7244.3	
770.78	7610.9	
770.96	4552	
771.14	5289.9	
771.31	6304.3	
771.49	5704.3	
771.67	3713	
771.85	4003.1	
772.02	4956.1	
772.2	5685.2	
772.38	4741	
772.55	4209.9	
772.73	5937.1	
772.91	5756.8	
773.09	4597.7	
773.26	4686.4	
773.44	5919.3	
773.62	5504.9	
773.8	4139.6	
773.97	3839.9	
774.15	6012.2	
774.33	5618.3	
774.5	4002.4	
774.68	4418.8	
774.86	6115.9	
775.04	5640.8	
775.21	4042	
775.39	4149.2	
775.57	5900.2	
775.74	6261.3	
775.92	3925.3	
776.1	3889.1	
776.27	5807.4	
776.45	7147.4	
776.63	4079.6	
776.81	3594.2	
776.98	5488.6	
777.16	6559.6	
777.34	4229.1	
777.51	4516.5	
777.69	5538.4	
777.87	5215.5	
778.04	4264.6	
778.22	4870.8	
778.4	5331.5	
778.57	5971.9	
778.75	3518.4	
778.93	3831.1	
779.1	5105.6	
779.28	4965	
779.46	3549.8	
779.64	3992.9	
779.81	6146.6	
779.99	7054.6	
780.17	4841.4	
780.34	5021.6	
780.52	5607.3	
780.69	5753.4	
780.87	4380.6	
781.05	3905.5	
781.22	5594.4	
781.4	5715.2	
781.58	4052.9	
781.75	3220.1	
781.93	5657.9	
782.11	5029.1	
782.28	4988.2	
782.46	4104.1	
782.64	4917.2	
782.81	5797.8	
782.99	4152.6	
783.17	4059.1	
783.34	5707	
783.52	5004.6	
783.69	4344.4	
783.87	5131.5	
784.05	5061.9	
784.22	5032.5	
784.4	5117.9	
784.58	4403.8	
784.75	5975.3	
784.93	5124.7	
785.1	4042.7	
785.28	4677.6	
785.46	5732.9	
785.63	5002.5	
785.81	4014.7	
785.99	3887.7	
786.16	5210	
786.34	5620.3	
786.51	3975.8	
786.69	4278.9	
786.87	4810.7	
787.04	5305.6	
787.22	3746.4	
787.39	4718.5	
787.57	5033.9	
787.75	6173.9	
787.92	4893.3	
788.1	4810.7	
788.27	5085.1	
788.45	4811.4	
788.63	4602.5	
788.8	3283.6	
788.98	5412.1	
789.15	4737.6	
789.33	3473.4	
789.5	4080.2	
789.68	5979.4	
789.86	6113.9	
790.03	4510.3	
790.21	3983.3	
790.38	5978.7	
790.56	5188.2	
790.73	3732.8	
790.91	3790.8	
791.09	5077.6	
791.26	5825.1	
791.44	4032.5	
791.61	3458.3	
791.79	5063.3	
791.96	5109.7	
792.14	3591.5	
792.32	3221.5	
792.49	5023	
792.67	5155.4	
792.84	3611.3	
793.02	3506.8	
793.19	5472.2	
793.37	6229.2	
793.54	3180.5	
793.72	3570.3	
793.89	6394.4	
794.07	5130.8	
794.25	4265.9	
794.42	3269.2	
794.6	6128.9	
794.77	5771.2	
794.95	4478.2	
795.12	3834.5	
795.3	5031.9	
795.47	5680.4	
795.65	4288.4	
795.82	4149.9	
796	4865.3	
796.17	6860	
796.35	3976.5	
796.52	4673.5	
796.7	5581.4	
796.87	5715.2	
797.05	4873.5	
797.22	4879.6	
797.4	5708.4	
797.57	6724.8	
797.75	4107.5	
797.92	3835.2	
798.1	5927.5	
798.27	5048.2	
798.45	3241.9	
798.62	3534.1	
798.8	5373.9	
798.97	5876.3	
799.15	4336.9	
799.32	4080.2	
799.5	4655	
799.67	5399.8	
799.85	4462.5	
800.02	3207.1	
800.2	4957.4	
800.37	5383.4	
800.55	4638.6	
800.72	3818.1	
800.9	5849	
801.07	6284.5	
801.25	5196.4	
801.42	4235.9	
801.6	5879.7	
801.77	5629.2	
801.95	3944.4	
802.12	3706.1	
802.29	5573.2	
802.47	5510.4	
802.64	4185.4	
802.82	3146.4	
802.99	5013.4	
803.17	6084.5	
803.34	4126.7	
803.52	3732.8	
803.69	6676.4	
803.87	4799.1	
804.04	4046.1	
804.21	4199.7	
804.39	6100.2	
804.56	5197.7	
804.74	3516.4	
804.91	4237.9	
805.09	5072.8	
805.26	5180	
805.44	3547.1	
805.61	3901.4	
805.78	5728.9	
805.96	5779.4	
806.13	4229.7	
806.31	4597.7	
806.48	4575.8	
806.66	5180	
806.83	4179.9	
807	4158.7	
807.18	5030.5	
807.35	5459.9	
807.53	4095.9	
807.7	3294.5	
807.87	6184.2	
808.05	5126.7	
808.22	4571.7	
808.4	3296.5	
808.57	5117.9	
808.74	4713.1	
808.92	3758.7	
809.09	4835.3	
809.27	4922	
809.44	5578.7	
809.61	3322.5	
809.79	3691.1	
809.96	6230.6	
810.14	5863.3	
810.31	3207.8	
810.48	3988.1	
810.66	5124.7	
810.83	5909.1	
811.01	3787.4	
811.18	4176.5	
811.35	5820.3	
811.53	4551.3	
811.7	4528.1	
811.87	4281.6	
812.05	5048.2	
812.22	4984.1	
812.39	3650.2	
812.57	3561.4	
812.74	5089.9	
812.92	6771.3	
813.09	3919.8	
813.26	4300.1	
813.44	6539.8	
813.61	5054.4	
813.78	3313.6	
813.96	4508.9	
814.13	5116.5	
814.3	4713.7	
814.48	4799.8	
814.65	3911.6	
814.82	6309.8	
815	4798.4	
815.17	4083	
815.34	4931.5	
815.52	5010	
815.69	4997.7	
815.87	4055.7	
816.04	3514.3	
816.21	5128.1	
816.38	4469.4	
816.56	3919.8	
816.73	3686.3	
816.9	6472.9	
817.08	5849.7	
817.25	3694.5	
817.42	4665.3	
817.6	4605.9	
817.77	5093.3	
817.94	4189.5	
818.12	3635.1	
818.29	4769.7	
818.46	7609.6	
818.64	3812.6	
818.81	3531.4	
818.98	4727.4	
819.16	6918.7	
819.33	4354.7	
819.5	4100.7	
819.67	5468.8	
819.85	6104.3	
820.02	4050.9	
820.19	4245.4	
820.37	5300.8	
820.54	4837.3	
820.71	4169	
820.88	5233.9	
821.06	5300.1	
821.23	4846.2	
821.4	4123.2	
821.58	4147.1	
821.75	5827.8	
821.92	5206.6	
822.09	3306.1	
822.27	3447.4	
822.44	5051	
822.61	4984.8	
822.79	3355.9	
822.96	6468.2	
823.13	5552	
823.3	4785.4	
823.48	3902.1	
823.65	3484.3	
823.82	5788.9	
823.99	4606.6	
824.17	4934.9	
824.34	3545.7	
824.51	6679.1	
824.68	5135.6	
824.86	3665.2	
825.03	4184	
825.2	5070.1	
825.37	6158.2	
825.55	3640.6	
825.72	4061.8	
825.89	6850.5	
826.06	6315.3	
826.24	3971.7	
826.41	3988.8	
826.58	6192.4	
826.75	5378	
826.92	3148.4	
827.1	3424.9	
827.27	8483.4	
827.44	6680.5	
827.61	3747.8	
827.79	4614.1	
827.96	4803.9	
828.13	5160.9	
828.3	3911.6	
828.47	3324.5	
828.65	5245.5	
828.82	5253.7	
828.99	5091.9	
829.16	4493.9	
829.34	5722.7	
829.51	5504.3	
829.68	4136.9	
829.85	4258.4	
830.02	6005.3	
830.2	5718.6	
830.37	3155.2	
830.54	5012.1	
830.71	6542.6	
830.88	5084.4	
831.05	3248.1	
831.23	3693.9	
831.4	6158.9	
831.57	6961.7	
831.74	3788.7	
831.91	3312.9	
832.09	5327.4	
832.26	5657.9	
832.43	3915.7	
832.6	4410	
832.77	5306.3	
832.94	6085.9	
833.12	3101.3	
833.29	3912.3	
833.46	4911	
833.63	7273	
833.8	4336.9	
833.97	3945.8	
834.15	5675.6	
834.32	5483.8	
834.49	4076.8	
834.66	4148.5	
834.83	5917.3	
835	4818.9	
835.17	3762.1	
835.35	3792.8	
835.52	5603.2	
835.69	5491.3	
835.86	3992.9	
836.03	3293.1	
836.2	5684.5	
836.37	5292.6	
836.55	3979.9	
836.72	3702.7	
836.89	5223.7	
837.06	5819	
837.23	4001.7	
837.4	4405.9	
837.57	6534.4	
837.75	7199.3	
837.92	3562.8	
838.09	3803.1	
838.26	5276.3	
838.43	6019	
838.6	4070.7	
838.77	3701.4	
838.94	6839.5	
839.11	6525.5	
839.29	3936.2	
839.46	3123.2	
839.63	5653.8	
839.8	5401.2	
839.97	3786.7	
840.14	3825.6	
840.31	5430.5	
840.48	5711.1	
840.65	3107.5	
840.82	3796.9	
841	5650.3	
841.17	5664.7	
841.34	3536.2	
841.51	3563.5	
841.68	5589.6	
841.85	5354.8	
842.02	3624.9	
842.19	3007.8	
842.36	5410.7	
842.53	5392.3	
842.7	3529.3	
842.87	4313	
843.05	7131.7	
843.22	5403.9	
843.39	3334.1	
843.56	3619.4	
843.73	5173.2	
843.9	5703.6	
844.07	5667.4	
844.24	4741	
844.41	8445.8	
844.58	4912.4	
844.75	3414	
844.92	3729.4	
845.09	5666.7	
845.26	5689.3	
845.43	3476.8	
845.6	3669.3	
845.77	5664.7	
845.94	5422.3	
846.12	3882.9	
846.29	4075.5	
846.46	5849.7	
846.63	5673.6	
846.8	3417.4	
846.97	4185.4	
847.14	6154.1	
847.31	5638.7	
847.48	3981.3	
847.65	4359.4	
847.82	5991.7	
847.99	5947.3	
848.16	4714.4	
848.33	4331.5	
848.5	5231.9	
848.67	6135	
848.84	3485	
849.01	3639.9	
849.18	5061.9	
849.35	4758.8	
849.52	4361.5	
849.69	3400.3	
849.86	5857.9	
850.03	6124.8	
850.2	3527.3	
850.37	4266.6	
850.54	6038.8	
850.71	5347.9	
850.88	4221.5	
851.05	3422.2	
851.22	5607.3	
851.39	6232.7	
851.56	3265.1	
851.73	3988.1	
851.9	4932.9	
852.07	5934.3	
852.24	3845.4	
852.41	3462.4	
852.58	5507.7	
852.75	5072.8	
852.92	3842	
853.09	3378.5	
853.26	5243.5	
853.43	6178	
853.6	3472	
853.77	3015.3	
853.94	6208.8	
854.11	4950.6	
854.28	5177.3	
854.44	3796.9	
854.61	6626.5	
854.78	6001.9	
854.95	3472.7	
855.12	4397.7	
855.29	4590.9	
855.46	6165.1	
855.63	3440.6	
855.8	4855.1	
855.97	5242.8	
856.14	6011.5	
856.31	4992.9	
856.48	3842	
856.65	5225.7	
856.82	4924.7	
856.99	3369.6	
857.16	3742.3	
857.33	6929.6	
857.49	5325.4	
857.66	3753.2	
857.83	4016.7	
858	5253	
858.17	5551.4	
858.34	3290.4	
858.51	3435.1	
858.68	6352.8	
858.85	6376	
859.02	4035.9	
859.19	4324.6	
859.36	4969.7	
859.52	4988.9	
859.69	3480.2	
859.86	4113	
860.03	5053.7	
860.2	6272.9	
860.37	3127.9	
860.54	3530.7	
860.71	5891.3	
860.88	6345.3	
861.05	3931.4	
861.21	4481	
861.38	6313.9	
861.55	4857.8	
861.72	3166.2	
861.89	3888.4	
862.06	6036	
862.23	6491.4	
862.4	3364.8	
862.56	3679.5	
862.73	5751.4	
862.9	5429.2	
863.07	4108.9	
863.24	3149.1	
863.41	4881.7	
863.58	4958.1	
863.75	3544.4	
863.91	3982.6	
864.08	6224.5	
864.25	5874.3	
864.42	4377.9	
864.59	4902.8	
864.76	6527.6	
864.93	4969.7	
865.09	3357.3	
865.26	3721.2	
865.43	6148	
865.6	6535.1	
865.77	3039.9	
865.94	3424.9	
866.1	6193.1	
866.27	5949.3	
866.44	5255.8	
866.61	3370.3	
866.78	5348.6	
866.95	5788.2	
867.11	3342.3	
867.28	3118.4	
867.45	5955.5	
867.62	5034.6	
867.79	4043.4	
867.96	3465.2	
868.12	5043.5	
868.29	5946.6	
868.46	3048.7	
868.63	4642.7	
868.8	6102.3	
868.97	5841.5	
869.13	3644	
869.3	3606.5	
869.47	5754.1	
869.64	6065.4	
869.81	3543	
869.97	3515.7	
870.14	5690.6	
870.31	6342.6	
870.48	3474	
870.65	4404.5	
870.81	5268.1	
870.98	5249.6	
871.15	3950.5	
871.32	3599.6	
871.48	5741.8	
871.65	6392.4	
871.82	3455.6	
871.99	3819.5	
872.16	6794.5	
872.32	6198.5	
872.49	3513.6	
872.66	3502.7	
872.83	5959.6	
872.99	5150.6	
873.16	4016.1	
873.33	3457.7	
873.5	5528.8	
873.67	5551.4	
873.83	3637.9	
874	4659.1	
874.17	5686.5	
874.34	6749.4	
874.5	4530.1	
874.67	4304.1	
874.84	6334.4	
875.01	4951.3	
875.17	4917.9	
875.34	3476.8	
875.51	5560.9	
875.68	6722.1	
875.84	4178.5	
876.01	5111.7	
876.18	5879.7	
876.34	5793	
876.51	3465.2	
876.68	3383.9	
876.85	5377.3	
877.01	6213.5	
877.18	4976.6	
877.35	3452.9	
877.52	5454.4	
877.68	4878.9	
877.85	3390.8	
878.02	3424.2	
878.18	5434.6	
878.35	5139	
878.52	2800.3	
878.69	3850.2	
878.85	5915.9	
879.02	5834	
879.19	4892.6	
879.35	3749.1	
879.52	5871.5	
879.69	6096.8	
879.86	3001	
880.02	3875.4	
880.19	5438	
880.36	6681.2	
880.52	4024.9	
880.69	4127.3	
880.86	5919.3	
881.02	6014.9	
881.19	3855.6	
881.36	3815.4	
881.52	5814.2	
881.69	5182	
881.86	3730	
882.02	3682.2	
882.19	6124.1	
882.36	7110.5	
882.52	3579.2	
882.69	4925.4	
882.86	5644.2	
883.02	5571.8	
883.19	4279.6	
883.36	4022.9	
883.52	5979.4	
883.69	6835.4	
883.86	3517	
884.02	3166.2	
884.19	5909.8	
884.36	5513.1	
884.52	3911.6	
884.69	3702	
884.86	5188.9	
885.02	6531.7	
885.19	3874.8	
885.36	3978.5	
885.52	5464.7	
885.69	5603.2	
885.86	5070.1	
886.02	4485.1	
886.19	5926.8	
886.35	5422.3	
886.52	3857	
886.69	4849.6	
886.85	5025.7	
887.02	6255.2	
887.19	6255.2	
887.35	6255.2	
887.52	6255.2	
887.68	6255.2	
887.85	6255.2	
888.02	6255.2	
888.18	6255.2	
888.35	6255.2	
888.51	6255.2	
888.68	6255.2	
888.85	6255.2	
889.01	6255.2	
889.18	6255.2	
889.35	6255.2	
889.51	6255.2	
889.68	6255.2	
889.84	6255.2	
890.01	6255.2	
890.17	6255.2	
890.34	6255.2	
890.51	6255.2	
890.67	6255.2	
890.84	6255.2	
891	6255.2	
891.17	6255.2	
891.34	6255.2	
891.5	6255.2	
891.67	6255.2	
891.83	6255.2	
892	6255.2	
892.16	6255.2	
892.33	6255.2	
892.5	6255.2	
892.66	6255.2	
892.83	6255.2	
892.99	6255.2	
893.16	6255.2	
893.32	6255.2	
893.49	6255.2	
893.65	6255.2	
893.82	6255.2	
893.99	6255.2	
894.15	6255.2	
894.32	6255.2	
894.48	6255.2	
894.65	6255.2	
894.81	6255.2	
894.98	6255.2	
895.14	6255.2	
895.31	6255.2	
895.47	6255.2	
895.64	6255.2	
895.81	6255.2	
895.97	6255.2	
896.14	6255.2	
896.3	6255.2	
896.47	6255.2	
896.63	6255.2	
896.8	6255.2	
896.96	6255.2	
897.13	6255.2	
897.29	6255.2	
897.46	6255.2	
897.62	6255.2	
897.79	6255.2	
897.95	6255.2	
898.12	6255.2	
898.28	6255.2	
898.45	6255.2	
898.61	6255.2	
898.78	6255.2	
898.94	6255.2	
899.11	6255.2	
899.27	6255.2	
899.44	6255.2	
899.6	6255.2	
899.77	6255.2	
899.93	6255.2	
900.1	6255.2	
900.26	6255.2	
900.43	6255.2	
900.59	6255.2	
900.76	6255.2	
900.92	6255.2	
901.09	6255.2	
901.25	6255.2	
901.42	6255.2	
901.58	6255.2	
901.75	6255.2	
901.91	6255.2	
902.07	6255.2	
902.24	6255.2	
902.4	6255.2	
902.57	6255.2	
902.73	6255.2	
902.9	6255.2	
903.06	6255.2	
903.23	6255.2	
903.39	6255.2	
903.56	6255.2	
903.72	6255.2	
903.88	6255.2	
904.05	6255.2	
904.21	6255.2	
904.38	6255.2	
904.54	6255.2	
904.71	6255.2	
904.87	6255.2	
905.03	6255.2	
905.2	6255.2	
905.36	6255.2	
905.53	6255.2	
905.69	6255.2	
905.86	6255.2	
906.02	6255.2	
906.18	6255.2	
906.35	6255.2	
906.51	6255.2	
906.68	6255.2	
906.84	6255.2	
907.01	6255.2	
907.17	6255.2	
907.33	6255.2	
907.5	6255.2	
907.66	6255.2	
907.83	6255.2	
907.99	6255.2	
908.15	6255.2	
908.32	6255.2	
908.48	6255.2	
908.65	6255.2	
908.81	6255.2	
908.97	6255.2	
909.14	6255.2	
909.3	6255.2	
909.47	6255.2	
909.63	6255.2	
909.79	6255.2	
909.96	6255.2	
910.12	6255.2	
910.28	6255.2	
910.45	6255.2	
910.61	6255.2	
910.78	6255.2	
910.94	6255.2	
911.1	6255.2	
911.27	6255.2	
911.43	6255.2	
911.59	6255.2	
911.76	6255.2	
911.92	6255.2	
912.08	6255.2	
912.25	6255.2	
912.41	6255.2	
912.57	6255.2	
912.74	6255.2	
912.9	6255.2	
913.07	6255.2	
913.23	6255.2	
913.39	6255.2	
913.56	6255.2	
913.72	6255.2	
913.88	6255.2	
914.05	6255.2	
914.21	6255.2	
914.37	6255.2	
914.54	6255.2	
914.7	6255.2	
914.86	6255.2	
915.03	6255.2	
915.19	6255.2	
