Wavelength	Intensities	
nm	a.u.	
179.22	1902.2	
179.44	1901.2	
179.65	1903.2	
179.86	1899.1	
180.08	1874.6	
180.29	4932.9	
180.51	3501.3	
180.72	5713.8	
180.94	6669.6	
181.15	3264.5	
181.37	3205.8	
181.58	5499.5	
181.79	5792.3	
182.01	3424.2	
182.22	3624.9	
182.44	5788.2	
182.65	4872.1	
182.87	4644.8	
183.08	4060.4	
183.29	6133.7	
183.51	5008.6	
183.72	3683.6	
183.94	5406	
184.15	5422.3	
184.37	5463.3	
184.58	3201	
184.79	4396.3	
185.01	5000.5	
185.22	5760.9	
185.44	4662.5	
185.65	3960.8	
185.86	5315.2	
186.08	4878.9	
186.29	3080.8	
186.51	3384.6	
186.72	5111.7	
186.94	5948.7	
187.15	3890.5	
187.36	4042	
187.58	7777.5	
187.79	5526.1	
188.01	4207.9	
188.22	6584.2	
188.43	6670.2	
188.65	5729.5	
188.86	3342.3	
189.08	4053.6	
189.29	5246.9	
189.5	5208	
189.72	3740.3	
189.93	3838.6	
190.15	6012.2	
190.36	7159	
190.57	4149.2	
190.79	3981.9	
191	6111.1	
191.22	6015.6	
191.43	4141.7	
191.64	3347.1	
191.86	6297.5	
192.07	5958.9	
192.29	3487	
192.5	3697.3	
192.71	5978	
192.93	5148.6	
193.14	3665.9	
193.35	3807.2	
193.57	5229.8	
193.78	5997.1	
194	2964.8	
194.21	3649.5	
194.42	4895.3	
194.64	5452.4	
194.85	4031.1	
195.07	4713.7	
195.28	5489.2	
195.49	4704.2	
195.71	5000.5	
195.92	3465.2	
196.13	5584.1	
196.35	5780.7	
196.56	5313.8	
196.78	4019.5	
196.99	7025.2	
197.2	6609.5	
197.42	4666	
197.63	4088.4	
197.84	4868	
198.06	5679.7	
198.27	3704.8	
198.48	5081.7	
198.7	5198.4	
198.91	5337	
199.13	4051.6	
199.34	4031.8	
199.55	5823.1	
199.77	4695.3	
199.98	3560.1	
200.19	4142.4	
200.41	5300.8	
200.62	5017.5	
200.83	4253.6	
201.05	4580.6	
201.26	5386.2	
201.47	5025.7	
201.69	3607.2	
201.9	3462.4	
202.11	5366.4	
202.33	6458.6	
202.54	3880.2	
202.76	4330.8	
202.97	5511.1	
203.18	5488.6	
203.4	4259.1	
203.61	4117.1	
203.82	5465.3	
204.04	5102.2	
204.25	4074.8	
204.46	3984	
204.68	5455.8	
204.89	5720.7	
205.1	4015.4	
205.32	3394.8	
205.53	5846.3	
205.74	6010.8	
205.96	2925.9	
206.17	4140.3	
206.38	5877	
206.6	5930.9	
206.81	4689.2	
207.02	3787.4	
207.24	5678.3	
207.45	6079.1	
207.66	3856.3	
207.88	3366.9	
208.09	5673.6	
208.3	5389.6	
208.52	3557.3	
208.73	3882.9	
208.94	5455.1	
209.15	6133	
209.37	3872.7	
209.58	4091.2	
209.79	5986.2	
210.01	5242.1	
210.22	3108.1	
210.43	3241.3	
210.65	5480.4	
210.86	5852.4	
211.07	3910.9	
211.29	3565.5	
211.5	5792.3	
211.71	5391.6	
211.93	3536.8	
212.14	3561.4	
212.35	5342.5	
212.56	5591.6	
212.78	4078.9	
212.99	3311.6	
213.2	6386.2	
213.42	5200.5	
213.63	3693.2	
213.84	4004.5	
214.06	4793.6	
214.27	4909.7	
214.48	3898.6	
214.69	4167.6	
214.91	6130.3	
215.12	6200.6	
215.33	4150.5	
215.55	4626.4	
215.76	6724.8	
215.97	5844.9	
216.18	4009.9	
216.4	3891.1	
216.61	5042.8	
216.82	5862	
217.04	3607.2	
217.25	3749.8	
217.46	6078.4	
217.67	5842.9	
217.89	3191.4	
218.1	3263.8	
218.31	5520	
218.53	5601.9	
218.74	3710.2	
218.95	3662.5	
219.16	5322	
219.38	6286.6	
219.59	3596.9	
219.8	4379.2	
220.01	7024.5	
220.23	5460.6	
220.44	4722.6	
220.65	3548.4	
220.87	5488.6	
221.08	6103.6	
221.29	3291.8	
221.5	4471.4	
221.72	7412.3	
221.93	5174.5	
222.14	4119.1	
222.35	4818.2	
222.57	5470.1	
222.78	5828.5	
222.99	3895.2	
223.2	4207.2	
223.42	5702.9	
223.63	5866.7	
223.84	2993.4	
224.05	2966.1	
224.27	6956.3	
224.48	6316.6	
224.69	4844.1	
224.9	4144.4	
225.12	5637.4	
225.33	5368.4	
225.54	3289.7	
225.75	3604.4	
225.97	4977.2	
226.18	5270.8	
226.39	3951.2	
226.6	3681.6	
226.82	5210.7	
227.03	5012.7	
227.24	4090.5	
227.45	3398.9	
227.67	5810.8	
227.88	6408.1	
228.09	4579.9	
228.3	4640	
228.52	5855.8	
228.73	5355.4	
228.94	3751.9	
229.15	3323.2	
229.36	5332.2	
229.58	5237.3	
229.79	3822.9	
230	4515.8	
230.21	6453.1	
230.43	5567.1	
230.64	4084.3	
230.85	4220.9	
231.06	5847.6	
231.28	5870.8	
231.49	3317.7	
231.7	3977.8	
231.91	5808	
232.12	5415.5	
232.34	3456.3	
232.55	3976.5	
232.76	6044.2	
232.97	5602.6	
233.18	3555.3	
233.4	4058.4	
233.61	5627.1	
233.82	5141.8	
234.03	3764.2	
234.25	3668.6	
234.46	7539.3	
234.67	5405.3	
234.88	4126.7	
235.09	3631.7	
235.31	5756.2	
235.52	5360.2	
235.73	3995.6	
235.94	3447.4	
236.15	5122.7	
236.37	6613.6	
236.58	3559.4	
236.79	3967.6	
237	5726.8	
237.21	4939.7	
237.43	4246.1	
237.64	3291.1	
237.85	9875.3	
238.06	5026.4	
238.27	4320.5	
238.48	3430.3	
238.7	5754.1	
238.91	5272.2	
239.12	3949.2	
239.33	3977.8	
239.54	5123.3	
239.76	5406	
239.97	3823.6	
240.18	3904.8	
240.39	6879.1	
240.6	5717.2	
240.82	4027.7	
241.03	3298.6	
241.24	5406.6	
241.45	6277	
241.66	3564.8	
241.87	4268.6	
242.09	6139.8	
242.3	6540.5	
242.51	4272.1	
242.72	3862.5	
242.93	5930.9	
243.14	5322	
243.36	4490.5	
243.57	4913.1	
243.78	6336.4	
243.99	5791	
244.2	3902.1	
244.41	3551.2	
244.63	4972.5	
244.84	5720.7	
245.05	4185.4	
245.26	3937.6	
245.47	5728.9	
245.68	6008.7	
245.9	5242.1	
246.11	4120.5	
246.32	5278.3	
246.53	5718.6	
246.74	6388.3	
246.95	3246	
247.16	4897.4	
247.38	5392.3	
247.59	3232.4	
247.8	4005.8	
248.01	5079	
248.22	5289.2	
248.43	3564.1	
248.64	3809.9	
248.86	4768.4	
249.07	5216.9	
249.28	3474	
249.49	3977.8	
249.7	6007.4	
249.91	6109.8	
250.12	3260.4	
250.34	3327.3	
250.55	5500.2	
250.76	5472.9	
250.97	4038.6	
251.18	4082.3	
251.39	6169.8	
251.6	5593	
251.81	4104.1	
252.03	4144.4	
252.24	5149.3	
252.45	5926.8	
252.66	3380.5	
252.87	4357.4	
253.08	5489.9	
253.29	7139.2	
253.5	3405.8	
253.72	4775.9	
253.93	5295.4	
254.14	6438.8	
254.35	3755.3	
254.56	3839.3	
254.77	5683.8	
254.98	5023	
255.19	3657	
255.41	4809.3	
255.62	5533.6	
255.83	6098.9	
256.04	4218.8	
256.25	4141.7	
256.46	6667.5	
256.67	5137	
256.88	4012	
257.09	4554	
257.31	5065.3	
257.52	5147.2	
257.73	5085.1	
257.94	3700	
258.15	5312.4	
258.36	5420.3	
258.57	4722.6	
258.78	2936.1	
258.99	5896.8	
259.2	5246.9	
259.41	3764.2	
259.63	3880.9	
259.84	6253.8	
260.05	6779.5	
260.26	4902.8	
260.47	3652.9	
260.68	6055.8	
260.89	5294	
261.1	4537.6	
261.31	3554.6	
261.52	6016.9	
261.73	6418.3	
261.95	4799.1	
262.16	4246.8	
262.37	6094.8	
262.58	6285.9	
262.79	4849.6	
263	3796.3	
263.21	5429.2	
263.42	4958.8	
263.63	3850.2	
263.84	3786	
264.05	6011.5	
264.26	6381.5	
264.47	4703.5	
264.69	4200.4	
264.9	6122.7	
265.11	5645.6	
265.32	3616.7	
265.53	3704.8	
265.74	5615.5	
265.95	4836.6	
266.16	4005.8	
266.37	4383.3	
266.58	5642.8	
266.79	5280.3	
267	3693.2	
267.21	3468.6	
267.42	5020.9	
267.63	5365.7	
267.84	3920.5	
268.06	3287	
268.27	5855.1	
268.48	6148.7	
268.69	3799	
268.9	4557.4	
269.11	6103.6	
269.32	4906.3	
269.53	3911.6	
269.74	3619.4	
269.95	5834	
270.16	4769.7	
270.37	3906.2	
270.58	4490.5	
270.79	5244.2	
271	5954.8	
271.21	4203.8	
271.42	3915	
271.63	5563	
271.84	5117.9	
272.05	3090.4	
272.26	3485.6	
272.47	5466.7	
272.68	5668.8	
272.89	3793.5	
273.11	4426.3	
273.32	5227.1	
273.53	6352.1	
273.74	4226.3	
273.95	4128	
274.16	6077	
274.37	5489.9	
274.58	4254.3	
274.79	3391.4	
275	5589.6	
275.21	6094.1	
275.42	5126.1	
275.63	4436.6	
275.84	5676.3	
276.05	7152.2	
276.26	4109.6	
276.47	3785.3	
276.68	5277.6	
276.89	6486.6	
277.1	4387.4	
277.31	3460.4	
277.52	5745.2	
277.73	5873.6	
277.94	3375.7	
278.15	3747.8	
278.36	5698.8	
278.57	5066	
278.78	3794.9	
278.99	4252.3	
279.2	5057.1	
279.41	5014.1	
279.62	5010.7	
279.83	3444.7	
280.04	6638.8	
280.25	4989.5	
280.46	4967	
280.67	3915.7	
280.88	5077.6	
281.09	6051.7	
281.3	4098	
281.51	5236	
281.72	5174.5	
281.93	5957.5	
282.14	3633.8	
282.35	3958	
282.56	5915.2	
282.77	5887.2	
282.98	3775.8	
283.19	4627.7	
283.4	7283.3	
283.61	5348.6	
283.82	3388.7	
284.03	4841.4	
284.24	5545.2	
284.45	6068.8	
284.66	4874.8	
284.87	4669.4	
285.08	6014.2	
285.29	6197.8	
285.5	3320.4	
285.71	3824.2	
285.92	6150.7	
286.12	6724.2	
286.33	4790.2	
286.54	3792.2	
286.75	5906.3	
286.96	5264.6	
287.17	3451.5	
287.38	4754.7	
287.59	5089.9	
287.8	4980.7	
288.01	3819.5	
288.22	4432.5	
288.43	5971.2	
288.64	4922	
288.85	4536.9	
289.06	4339.6	
289.27	5928.2	
289.48	6382.2	
289.69	4895.3	
289.9	4407.2	
290.11	6072.2	
290.32	5122	
290.53	4672.1	
290.74	4236.6	
290.94	5867.4	
291.15	6010.8	
291.36	3670.6	
291.57	4399.7	
291.78	5209.3	
291.99	4835.3	
292.2	3482.9	
292.41	4274.1	
292.62	5992.4	
292.83	5775.3	
293.04	5279	
293.25	3567.6	
293.46	5264	
293.67	6113.9	
293.88	3638.6	
294.09	3496.6	
294.29	4975.9	
294.5	5623.7	
294.71	3837.9	
294.92	3791.5	
295.13	5213.4	
295.34	6580.8	
295.55	3274	
295.76	3383.2	
295.97	5883.8	
296.18	6630.6	
296.39	3475.4	
296.6	3663.1	
296.81	5501.5	
297.01	5902.2	
297.22	3825.6	
297.43	3568.9	
297.64	5061.9	
297.85	5040.7	
298.06	3012.6	
298.27	3267.2	
298.48	5499.5	
298.69	5143.8	
298.9	3920.5	
299.11	3603.7	
299.31	4885.1	
299.52	5004.6	
299.73	4200.4	
299.94	4149.9	
300.15	5466.7	
300.36	5075.5	
300.57	4200.4	
300.78	4157.4	
300.99	5296.7	
301.2	5573.9	
301.4	3601	
301.61	3966.9	
301.82	5763	
302.03	5910.4	
302.24	4497.3	
302.45	3510.9	
302.66	5793	
302.87	6247	
303.08	3667.2	
303.29	5056.4	
303.49	5171.1	
303.7	5561.6	
303.91	3231.7	
304.12	4823	
304.33	4956.8	
304.54	5539.1	
304.75	3675.4	
304.96	3524.6	
305.16	5811.5	
305.37	6530.3	
305.58	3187.3	
305.79	3383.2	
306	5693.4	
306.21	4827.1	
306.42	3640.6	
306.63	5634	
306.83	5253	
307.04	6019.7	
307.25	4027.7	
307.46	4037.2	
307.67	4641.4	
307.88	5908.4	
308.09	3605.8	
308.29	3742.3	
308.5	5533.6	
308.71	6038.8	
308.92	3938.9	
309.13	3524.6	
309.34	5384.8	
309.55	5360.2	
309.75	4602.5	
309.96	4235.2	
310.17	5849.7	
310.38	5101.5	
310.59	4382.7	
310.8	3451.5	
311.01	6462.7	
311.21	5318.6	
311.42	3485.6	
311.63	3663.1	
311.84	5193	
312.05	5597.8	
312.26	4085.7	
312.46	4525.3	
312.67	5274.2	
312.88	5009.3	
313.09	3515.7	
313.3	3491.8	
313.51	6296.1	
313.71	6615.6	
313.92	3508.2	
314.13	3779.2	
314.34	5614.8	
314.55	5383.4	
314.76	4568.3	
314.96	3986	
315.17	5474.9	
315.38	6047.7	
315.59	3560.1	
315.8	3372.3	
316.01	6334.4	
316.21	6375.3	
316.42	3463.8	
316.63	3928.7	
316.84	5324	
317.05	6186.2	
317.26	4159.4	
317.46	3725.3	
317.67	5352.7	
317.88	5859.2	
318.09	4488.5	
318.3	3296.5	
318.5	5141.8	
318.71	5762.3	
318.92	5821	
319.13	4117.8	
319.34	6021.7	
319.54	6043.6	
319.75	3325.2	
319.96	3190.7	
320.17	5837.4	
320.38	6019.7	
320.58	3211.2	
320.79	3923.9	
321	5967.1	
321.21	6171.2	
321.42	3875.4	
321.62	3228.3	
321.83	5046.9	
322.04	5454.4	
322.25	3749.8	
322.46	3547.8	
322.66	5509.7	
322.87	5746.6	
323.08	4401.1	
323.29	3473.4	
323.5	6552.8	
323.7	4981.3	
323.91	4846.2	
324.12	4373.1	
324.33	5491.3	
324.53	5809.4	
324.74	4173.1	
324.95	4398.4	
325.16	4786.8	
325.37	5255.1	
325.57	3557.3	
325.78	3621.5	
325.99	5492.7	
326.2	4954.7	
326.4	5084.4	
326.61	3303.4	
326.82	5298.1	
327.03	5603.2	
327.24	5012.1	
327.44	4764.9	
327.65	5692.7	
327.86	4625	
328.07	4139.6	
328.27	3407.1	
328.48	6137.8	
328.69	4979.3	
328.9	5188.2	
329.1	3861.1	
329.31	5356.1	
329.52	6322.8	
329.73	3553.2	
329.93	3981.9	
330.14	5466.7	
330.35	5696.1	
330.56	5893.4	
330.76	4433.2	
330.97	5229.1	
331.18	5711.8	
331.39	3941.7	
331.59	3175.7	
331.8	6069.5	
332.01	6188.3	
332.22	3675.4	
332.42	4212.7	
332.63	5556.8	
332.84	5137	
333.05	3996.3	
333.25	3671.3	
333.46	5255.1	
333.67	5473.5	
333.88	3685.7	
334.08	4145.8	
334.29	7260.7	
334.5	6158.9	
334.7	3422.2	
334.91	5071.5	
335.12	5016.2	
335.33	5855.8	
335.53	3969	
335.74	5875.6	
335.95	5206.6	
336.16	5052.3	
336.36	4040	
336.57	4560.8	
336.78	4938.3	
336.98	6050.4	
337.19	4858.5	
337.4	3895.9	
337.61	6556.9	
337.81	4935.6	
338.02	3650.8	
338.23	4724	
338.43	6251.8	
338.64	5092.6	
338.85	3518.4	
339.05	4704.9	
339.26	6341.9	
339.47	4852.3	
339.68	3572.3	
339.88	5363.6	
340.09	5678.3	
340.3	5915.9	
340.5	4214.7	
340.71	3210.5	
340.92	4893.3	
341.13	6223.1	
341.33	3451.5	
341.54	4268	
341.75	5685.8	
341.95	5281	
342.16	3962.1	
342.37	4371	
342.57	4995	
342.78	5426.4	
342.99	4525.3	
343.19	3147	
343.4	5896.8	
343.61	5668.1	
343.81	3807.2	
344.02	3499.3	
344.23	5867.4	
344.43	6294.1	
344.64	4391.5	
344.85	4299.4	
345.06	5713.2	
345.26	6094.8	
345.47	4155.3	
345.68	4833.9	
345.88	4842.1	
346.09	5906.3	
346.3	4213.4	
346.5	3167.5	
346.71	5431.2	
346.92	5112.4	
347.12	3216.7	
347.33	4050.2	
347.54	5993	
347.74	6405.4	
347.95	4081.6	
348.16	3025.5	
348.36	5263.3	
348.57	4942.4	
348.78	4091.2	
348.98	4384.7	
349.19	5393.7	
349.39	4902.2	
349.6	3241.3	
349.81	3618.8	
350.01	5664.7	
350.22	5057.8	
350.43	3889.1	
350.63	4716.5	
350.84	5528.8	
351.05	5237.3	
351.25	3599.6	
351.46	3170.3	
351.67	6072.9	
351.87	5063.9	
352.08	3799.7	
352.29	4286.4	
352.49	5876.3	
352.7	6016.9	
352.9	3432.4	
353.11	4313	
353.32	6611.5	
353.52	5220.3	
353.73	3425.6	
353.94	4425.7	
354.14	5674.9	
354.35	5525.4	
354.55	3510.9	
354.76	3921.2	
354.97	5666	
355.17	5427.1	
355.38	3325.9	
355.59	4609.3	
355.79	5143.8	
356	5556.1	
356.2	3907.5	
356.41	3423.5	
356.62	4825	
356.82	5328.8	
357.03	4150.6	
357.24	3798.3	
357.44	5120.6	
357.65	5208.7	
357.85	5029.1	
358.06	3910.9	
358.27	4896	
358.47	5022.3	
358.68	3255.6	
358.88	4107.5	
359.09	5627.1	
359.3	6083.8	
359.5	4774.5	
359.71	4344.4	
359.91	6560.3	
360.12	5827.8	
360.33	4138.9	
360.53	4601.1	
360.74	5066	
360.94	5160.2	
361.15	4379.9	
361.36	3579.8	
361.56	5927.5	
361.77	5281	
361.97	4857.8	
362.18	3749.1	
362.38	5878.4	
362.59	4924	
362.8	3433.1	
363	3207.8	
363.21	4737	
363.41	5373.2	
363.62	3941.7	
363.83	5087.8	
364.03	5421.7	
364.24	6488.6	
364.44	5081	
364.65	5074.9	
364.85	5225.7	
365.06	5081.7	
365.27	3586	
365.47	3689.1	
365.68	6243.6	
365.88	5194.3	
366.09	3987.4	
366.29	3700	
366.5	5467.4	
366.71	5914.5	
366.91	5012.1	
367.12	4188.8	
367.32	6500.9	
367.53	5730.9	
367.73	4102.8	
367.94	5079	
368.14	5666	
368.35	6614.3	
368.56	4026.3	
368.76	3377.1	
368.97	5812.1	
369.17	7562.5	
369.38	3592.8	
369.58	3880.9	
369.79	4799.1	
369.99	6208.1	
370.2	4894	
370.4	3971.7	
370.61	5483.8	
370.82	6654.5	
371.02	3788.7	
371.23	3156.6	
371.43	4689.8	
371.64	6041.5	
371.84	3822.2	
372.05	5070.8	
372.25	7378.1	
372.46	5856.5	
372.66	3807.2	
372.87	3778.5	
373.07	5829.2	
373.28	7451.2	
373.48	4873.5	
373.69	4564.9	
373.9	5255.1	
374.1	5268.7	
374.31	4729.4	
374.51	4274.8	
374.72	6100.9	
374.92	4977.2	
375.13	4866	
375.33	4119.1	
375.54	5649.7	
375.74	5038	
375.95	4162.2	
376.15	5427.8	
376.36	5595.1	
376.56	5487.2	
376.77	4186.7	
376.97	4642.7	
377.18	6720.1	
377.38	5662	
377.59	5011.4	
377.79	3618.8	
378	5504.9	
378.2	5933.6	
378.41	3713	
378.61	3601	
378.82	5941.8	
379.02	4965.6	
379.23	3875.4	
379.43	5040.7	
379.64	5946.6	
379.84	5594.4	
380.05	3684.3	
380.25	3646.1	
380.46	5723.4	
380.66	5302.2	
380.87	5063.9	
381.07	5350	
381.28	6408.8	
381.48	5752.7	
381.69	3791.5	
381.89	3697.3	
382.1	4636.6	
382.3	5991	
382.51	4944.5	
382.71	5866.7	
382.91	5789.6	
383.12	6331.6	
383.32	4106.2	
383.53	4367.6	
383.73	5597.1	
383.94	5358.9	
384.14	4276.8	
384.35	3366.9	
384.55	5285.8	
384.76	5784.1	
384.96	4198.3	
385.17	4465.3	
385.37	5760.3	
385.58	5025.7	
385.78	4478.9	
385.98	3323.2	
386.19	5270.1	
386.39	5666	
386.6	3875.4	
386.8	4171.7	
387.01	5753.4	
387.21	5781.4	
387.42	4521.9	
387.62	5145.2	
387.83	5096.7	
388.03	5743.9	
388.23	4132.1	
388.44	4924.7	
388.64	4809.3	
388.85	4857.8	
389.05	4488.5	
389.26	5117.9	
389.46	6684.6	
389.67	6202.6	
389.87	4364.2	
390.07	4491.9	
390.28	5409.4	
390.48	4934.2	
390.69	3682.2	
390.89	3979.9	
391.1	5098.8	
391.3	6062.7	
391.5	5233.2	
391.71	5872.9	
391.91	5767.8	
392.12	6875	
392.32	5319.9	
392.53	4456.4	
392.73	5159.5	
392.93	5369.8	
393.14	4146.5	
393.34	4958.8	
393.55	5797.8	
393.75	5371.8	
393.95	4200.4	
394.16	4087.1	
394.36	5096.7	
394.57	5790.3	
394.77	3633.1	
394.98	4063.9	
395.18	5038.7	
395.38	5318.6	
395.59	4922	
395.79	3806.5	
396	5157.5	
396.2	5642.2	
396.4	4633.2	
396.61	4573.1	
396.81	5793	
397.02	5128.8	
397.22	4881	
397.42	4962.9	
397.63	5838.8	
397.83	4923.3	
398.04	3767.6	
398.24	4177.2	
398.44	5558.2	
398.65	4617.5	
398.85	3543.7	
399.05	3694.5	
399.26	4936.3	
399.46	6692.1	
399.67	4034.5	
399.87	3807.9	
400.07	5303.6	
400.28	5670.8	
400.48	3868.6	
400.69	4906.3	
400.89	5890	
401.09	6295.5	
401.3	3747.8	
401.5	4889.9	
401.7	6491.4	
401.91	6826.6	
402.11	4087.7	
402.32	4311	
402.52	5922.7	
402.72	5861.3	
402.93	4531.5	
403.13	3366.9	
403.33	6663.4	
403.54	5416.2	
403.74	4296	
403.94	5177.9	
404.15	5527.5	
404.35	6675	
404.56	4065.2	
404.76	5924.8	
404.96	5939.8	
405.17	5708.4	
405.37	5429.2	
405.57	4545.8	
405.78	5902.9	
405.98	5408	
406.18	4016.1	
406.39	5007.3	
406.59	5913.9	
406.79	5459.2	
407	3844	
407.2	3995.6	
407.4	5911.1	
407.61	6092.7	
407.81	3902.1	
408.01	6008.1	
408.22	4855.1	
408.42	6951.5	
408.62	4901.5	
408.83	4341.7	
409.03	5328.8	
409.23	5137.7	
409.44	4455.7	
409.64	4701.5	
409.84	6264.7	
410.05	6128.9	
410.25	4497.3	
410.45	4263.2	
410.66	5481	
410.86	8019.2	
411.06	4631.8	
411.27	4506.2	
411.47	7720.2	
411.67	5681.7	
411.88	4745.1	
412.08	4934.2	
412.28	6327.5	
412.49	6810.2	
412.69	4440.7	
412.89	4476.9	
413.09	6667.5	
413.3	6449.1	
413.5	4515.8	
413.7	4116.4	
413.91	5659.9	
414.11	6640.9	
414.31	4315.1	
414.52	4736.3	
414.72	6182.8	
414.92	6127.5	
415.12	4303.5	
415.33	4822.3	
415.53	6483.9	
415.73	6650.4	
415.94	5196.4	
416.14	4634.6	
416.34	5477	
416.55	5257.1	
416.75	5855.8	
416.95	5259.2	
417.15	6441.5	
417.36	7239.6	
417.56	5988.3	
417.76	5012.7	
417.97	6847	
418.17	6529.6	
418.37	4560.8	
418.57	4652.3	
418.78	6204.7	
418.98	5915.2	
419.18	5513.1	
419.38	5549.3	
419.59	6002.6	
419.79	5665.4	
419.99	4500.8	
420.2	4943.8	
420.4	6531	
420.6	6694.1	
420.8	4445.5	
421.01	4285	
421.21	6266.1	
421.41	6515.3	
421.61	4813.4	
421.82	4537.6	
422.02	5800.5	
422.22	6778.1	
422.42	5401.2	
422.63	5095.3	
422.83	6000.5	
423.03	7121.5	
423.23	5008	
423.44	3999.7	
423.64	6067.4	
423.84	5858.6	
424.04	4467.3	
424.25	4099.4	
424.45	6988.4	
424.65	7031.4	
424.85	3909.6	
425.06	4548.5	
425.26	6982.2	
425.46	5885.2	
425.66	5055.1	
425.87	4752.7	
426.07	6782.2	
426.27	6555.5	
426.47	4850.3	
426.67	4220.2	
426.88	7124.9	
427.08	6481.8	
427.28	5135.6	
427.48	4169	
427.69	5404.6	
427.89	6106.4	
428.09	5079	
428.29	4251.6	
428.5	6822.5	
428.7	6240.8	
428.9	4085	
429.1	4704.9	
429.3	6222.4	
429.51	6496.8	
429.71	4480.3	
429.91	5197.1	
430.11	6409.5	
430.31	6702.3	
430.52	4700.8	
430.72	4929.5	
430.92	7047.7	
431.12	6497.5	
431.32	4336.9	
431.53	4841.4	
431.73	5293.3	
431.93	7178.1	
432.13	4300.1	
432.33	4092.5	
432.54	5810.1	
432.74	6247	
432.94	4024.9	
433.14	5115.8	
433.34	6345.3	
433.55	5844.9	
433.75	5091.3	
433.95	6834.1	
434.15	6188.3	
434.35	5821	
434.56	4298.7	
434.76	3696.6	
434.96	6151.4	
435.16	6338.5	
435.36	4109.6	
435.56	5281	
435.77	5679	
435.97	5891.3	
436.17	6001.9	
436.37	5098.8	
436.57	5720	
436.78	5539.8	
436.98	5105.6	
437.18	5791.7	
437.38	6354.2	
437.58	5851	
437.78	5972.6	
437.99	4483.7	
438.19	6452.5	
438.39	7211.6	
438.59	4483	
438.79	4020.8	
438.99	7229.3	
439.2	5971.9	
439.4	4078.2	
439.6	4044.1	
439.8	6209.4	
440	7347.4	
440.2	5150.6	
440.4	5212.8	
440.61	6540.5	
440.81	7195.9	
441.01	4147.8	
441.21	5139	
441.41	6920.1	
441.61	6537.1	
441.81	5406.6	
442.02	6507.8	
442.22	7425.3	
442.42	6642.2	
442.62	4208.6	
442.82	4286.4	
443.02	6938.5	
443.22	6070.2	
443.43	4661.2	
443.63	4237.2	
443.83	5825.8	
444.03	5835.3	
444.23	5477.6	
444.43	5084.4	
444.63	6156.2	
444.83	7410.9	
445.04	4153.3	
445.24	5654.4	
445.44	6535.1	
445.64	6671.6	
445.84	5208	
446.04	5109.7	
446.24	5910.4	
446.44	6948.8	
446.65	4363.5	
446.85	4727.4	
447.05	6294.8	
447.25	6888.7	
447.45	4852.3	
447.65	4233.2	
447.85	6204.7	
448.05	5922	
448.25	5236	
448.46	5050.3	
448.66	6255.9	
448.86	5966.4	
449.06	4016.7	
449.26	5269.4	
449.46	6657.3	
449.66	5581.4	
449.86	4745.8	
450.06	4658.4	
450.26	5829.2	
450.47	6376	
450.67	5009.3	
450.87	5298.1	
451.07	6488.6	
451.27	6264.7	
451.47	4279.6	
451.67	4836.6	
451.87	5883.8	
452.07	7122.2	
452.27	4440	
452.47	4457.1	
452.67	6250.4	
452.88	6781.5	
453.08	3866.6	
453.28	5851.7	
453.48	7391.8	
453.68	6172.6	
453.88	4354.7	
454.08	4676.2	
454.28	6521.4	
454.48	6187.6	
454.68	5235.3	
454.88	5743.9	
455.08	6697.5	
455.28	6303.6	
455.48	4225	
455.68	4784.1	
455.89	7002.7	
456.09	6759.7	
456.29	4482.3	
456.49	4530.8	
456.69	6940.6	
456.89	6169.2	
457.09	5081.7	
457.29	5433.3	
457.49	6511.2	
457.69	6549.4	
457.89	4900.8	
458.09	4278.9	
458.29	6238.8	
458.49	6980.2	
458.69	5300.1	
458.89	4674.1	
459.09	7107.8	
459.29	7252.5	
459.49	4763.6	
459.69	5569.1	
459.9	6652.5	
460.1	6136.4	
460.3	4726.7	
460.5	4431.8	
460.7	6621.8	
460.9	6337.8	
461.1	3980.6	
461.3	5334.3	
461.5	7169.9	
461.7	6920.8	
461.9	4418.2	
462.1	4995	
462.3	6225.8	
462.5	6952.9	
462.7	4450.2	
462.9	4536.9	
463.1	7932.5	
463.3	7542.7	
463.5	4782	
463.7	5624.4	
463.9	6389	
464.1	6834.8	
464.3	4729.4	
464.5	5128.1	
464.7	6990.4	
464.9	6599.2	
465.1	6470.2	
465.3	5362.9	
465.5	7354.9	
465.7	7256.6	
465.9	5607.3	
466.1	5552	
466.3	7088.7	
466.5	7069.6	
466.7	6343.9	
466.9	5102.2	
467.1	6873.7	
467.3	7866.2	
467.5	6231.3	
467.7	5076.9	
467.9	7998.7	
468.1	8839	
468.3	5987.6	
468.5	6326.9	
468.7	6732.4	
468.9	6764.4	
469.1	5355.4	
469.3	6045.6	
469.5	8731.2	
469.7	6309.1	
469.9	5834.7	
470.1	4998.4	
470.3	6698.9	
470.5	6819.7	
470.7	6367.1	
470.9	5165.7	
471.1	6597.2	
471.3	7007.5	
471.5	4958.1	
471.69	6970.6	
471.89	6397.9	
472.09	5963	
472.29	5779.4	
472.49	6286.6	
472.69	6053.1	
472.89	7032.7	
473.09	4876.2	
473.29	5156.8	
473.49	6324.8	
473.69	6522.8	
473.89	6042.9	
474.09	5208	
474.29	7862.8	
474.49	7568.6	
474.69	5976.7	
474.89	5352	
475.09	6612.9	
475.29	6575.3	
475.49	4743.1	
475.69	4973.2	
475.88	8196.7	
476.08	6827.9	
476.28	4656.4	
476.48	5196.4	
476.68	7419.8	
476.88	7260.7	
477.08	5056.4	
477.28	5413.5	
477.48	6769.2	
477.68	7413	
477.88	4838	
478.08	5259.9	
478.28	7683.3	
478.48	6898.2	
478.67	5280.3	
478.87	4745.8	
479.07	7436.2	
479.27	6955.6	
479.47	5527.5	
479.67	5390.9	
479.87	7318.8	
480.07	7874.4	
480.27	4711.7	
480.47	6342.6	
480.67	6911.9	
480.87	7577.5	
481.06	4947.2	
481.26	5859.9	
481.46	6880.5	
481.66	6816.3	
481.86	5405.3	
482.06	6520	
482.26	6515.3	
482.46	7701	
482.66	5406.6	
482.86	5015.5	
483.05	6870.9	
483.25	6410.8	
483.45	7970.7	
483.65	5310.4	
483.85	6511.2	
484.05	6769.2	
484.25	5762.3	
484.45	6281.8	
484.65	7787.1	
484.84	7618.4	
485.04	5276.9	
485.24	5248.9	
485.44	7898.3	
485.64	6197.8	
485.84	4510.3	
486.04	5958.9	
486.24	6595.8	
486.44	6976.1	
486.63	4483.7	
486.83	5233.2	
487.03	6406	
487.23	6666.1	
487.43	4598.4	
487.63	7092.1	
487.83	6677.7	
488.02	7766.6	
488.22	5511.8	
488.42	6180.1	
488.62	7673.7	
488.82	6457.9	
489.02	5231.9	
489.22	5238.7	
489.41	7372.7	
489.61	6989.7	
489.81	4890.5	
490.01	4906.3	
490.21	7333.8	
490.41	7988.4	
490.61	4840	
490.8	4995.7	
491	6772.6	
491.2	6140.5	
491.4	5649.7	
491.6	4690.5	
491.8	6774	
491.99	7012.9	
492.19	4588.8	
492.39	5004.6	
492.59	7401.4	
492.79	7395.9	
492.99	5838.8	
493.18	4964.3	
493.38	7443	
493.58	8086.7	
493.78	5559.6	
493.98	5124	
494.18	7095.5	
494.37	6455.9	
494.57	5802.6	
494.77	5653.8	
494.97	7154.9	
495.17	7431.4	
495.37	5087.2	
495.56	5391.6	
495.76	7607.5	
495.96	7159	
496.16	6429.9	
496.36	5220.3	
496.55	7350.2	
496.75	6890	
496.95	5672.2	
497.15	5487.2	
497.35	7429.3	
497.54	7260.7	
497.74	5319.3	
497.94	7030	
498.14	8056	
498.34	7836.2	
498.53	4925.4	
498.73	5767.1	
498.93	6650.4	
499.13	7311.2	
499.33	5498.1	
499.52	6259.3	
499.72	7194.5	
499.92	7618.4	
500.12	5173.9	
500.32	5447.6	
500.51	7598.6	
500.71	7309.9	
500.91	6267.5	
501.11	5866.7	
501.31	7454.6	
501.5	7884	
501.7	6483.9	
501.9	5443.5	
502.1	7230	
502.29	7533.1	
502.49	5913.2	
502.69	6470.9	
502.89	7518.1	
503.09	7388.4	
503.28	4980.7	
503.48	5150.6	
503.68	6660.7	
503.88	6676.4	
504.07	6214.2	
504.27	5655.8	
504.47	7075.7	
504.67	7311.9	
504.86	6015.6	
505.06	5770.5	
505.26	6824.5	
505.46	8696.4	
505.65	5629.2	
505.85	5907	
506.05	6723.5	
506.25	7282.6	
506.44	4988.2	
506.64	5958.9	
506.84	6719.4	
507.04	7647.8	
507.23	5254.4	
507.43	6036.7	
507.63	8796.7	
507.83	7038.9	
508.02	5857.9	
508.22	5461.9	
508.42	9004.9	
508.62	6782.9	
508.81	5789.6	
509.01	6260	
509.21	6651.8	
509.4	6899.6	
509.6	5920.7	
509.8	5228.5	
510	6900.3	
510.19	8413.1	
510.39	5241.4	
510.59	5315.2	
510.79	6602	
510.98	8140.7	
511.18	5371.8	
511.38	5449	
511.57	7558.4	
511.77	7336.5	
511.97	6161.7	
512.17	5097.4	
512.36	7510.6	
512.56	7433.4	
512.76	5244.8	
512.95	4963.6	
513.15	7669	
513.35	6301.6	
513.55	6157.6	
513.74	5323.4	
513.94	7580.9	
514.14	6821.1	
514.33	6180.1	
514.53	5902.9	
514.73	6862.7	
514.92	7092.1	
515.12	5442.8	
515.32	5160.2	
515.51	7145.4	
515.71	7822.6	
515.91	7042.3	
516.11	5288.5	
516.3	8901.2	
516.5	6766.5	
516.7	5877	
516.89	6443.6	
517.09	6869.6	
517.29	6757.6	
517.48	6287.3	
517.68	5530.9	
517.88	6559.6	
518.07	7281.9	
518.27	6022.4	
518.47	5100.8	
518.66	7755	
518.86	6471.6	
519.06	4884.4	
519.25	5376.6	
519.45	6763.8	
519.65	8295.6	
519.84	6062.7	
520.04	6684.6	
520.24	8617.2	
520.43	7460.8	
520.63	5758.9	
520.83	5401.2	
521.02	6622.4	
521.22	7268.2	
521.42	5998.5	
521.61	6623.1	
521.81	6863.4	
522.01	7118.7	
522.2	5821.7	
522.4	5667.4	
522.6	7623.9	
522.79	6305	
522.99	5782.1	
523.18	4928.1	
523.38	7232.7	
523.58	7210.2	
523.77	6949.4	
523.97	4907.6	
524.17	9065.7	
524.36	8226.7	
524.56	6264.1	
524.76	5908.4	
524.95	7148.8	
525.15	6774.7	
525.34	5699.5	
525.54	5644.9	
525.74	7419.8	
525.93	6442.9	
526.13	6819.7	
526.33	5513.8	
526.52	7722.2	
526.72	7228	
526.91	6816.3	
527.11	6030.6	
527.31	7859.4	
527.5	8152.3	
527.7	5928.2	
527.89	4905.6	
528.09	6610.2	
528.29	7200.7	
528.48	6354.2	
528.68	6002.6	
528.87	7594.6	
529.07	7656	
529.27	5868.1	
529.46	5302.9	
529.66	7233.4	
529.85	7654.6	
530.05	5074.2	
530.25	6018.3	
530.44	8622.6	
530.64	7151.5	
530.83	5593	
531.03	5842.2	
531.23	7507.9	
531.42	7468.9	
531.62	6650.4	
531.81	5776	
532.01	7657.4	
532.21	8191.2	
532.4	5405.3	
532.6	5791	
532.79	8495.7	
532.99	7598	
533.18	5808	
533.38	6879.1	
533.58	7111.2	
533.77	7991.9	
533.97	5668.8	
534.16	6599.9	
534.36	8125.7	
534.55	7126.9	
534.75	6679.8	
534.95	5782.1	
535.14	7902.4	
535.34	7114.6	
535.53	5443.5	
535.73	7347.4	
535.92	8513.4	
536.12	7324.2	
536.31	5597.1	
536.51	6793.8	
536.71	7703.1	
536.9	7211.6	
537.1	5814.2	
537.29	5881.1	
537.49	8161.8	
537.68	7136.5	
537.88	6212.9	
538.07	5383.4	
538.27	7344.7	
538.46	8391.2	
538.66	5318.6	
538.86	5736.4	
539.05	7379.5	
539.25	7793.9	
539.44	5988.9	
539.64	5722.7	
539.83	7236.8	
540.03	8288.1	
540.22	5565	
540.42	5756.8	
540.61	7484	
540.81	7659.4	
541	6236.7	
541.2	6815	
541.39	7067.5	
541.59	7372.7	
541.78	6440.9	
541.98	5556.8	
542.18	6724.8	
542.37	6736.5	
542.57	6012.2	
542.76	6456.6	
542.96	6801.3	
543.15	7557.7	
543.35	6056.5	
543.54	5397.1	
543.74	7961.8	
543.93	7436.2	
544.13	6137.8	
544.32	7199.3	
544.52	7924.3	
544.71	6954.2	
544.91	5089.9	
545.1	6514.6	
545.3	6958.3	
545.49	7691.5	
545.69	5074.9	
545.88	5825.8	
546.08	8678.6	
546.27	8301.1	
546.47	6309.1	
546.66	5510.4	
546.86	7902.4	
547.05	8582.4	
547.24	5745.9	
547.44	5627.1	
547.63	6871.6	
547.83	8058.1	
548.02	6030.6	
548.22	6272.2	
548.41	6724.8	
548.61	8147.5	
548.8	5529.5	
549	5523.4	
549.19	7367.9	
549.39	7653.9	
549.58	5217.5	
549.78	5905	
549.97	7829.4	
550.17	7307.8	
550.36	6802.7	
550.55	7787.1	
550.75	7273	
550.94	8237.6	
551.14	5525.4	
551.33	6054.5	
551.53	6649.8	
551.72	7691.5	
551.92	6009.4	
552.11	5686.5	
552.31	7681.9	
552.5	7644.4	
552.69	7501	
552.89	5345.9	
553.08	7694.2	
553.28	7364.5	
553.47	5767.1	
553.67	6966.5	
553.86	8411	
554.06	6645.7	
554.25	4955.4	
554.44	5574.6	
554.64	9235	
554.83	8591.2	
555.03	5500.8	
555.22	6006	
555.42	7915.4	
555.61	7656	
555.8	5785.5	
556	6064	
556.19	6744.6	
556.39	8033.5	
556.58	5877	
556.78	5757.5	
556.97	7477.8	
557.16	7212.9	
557.36	7086.7	
557.55	5388.2	
557.75	6474.3	
557.94	8308.6	
558.13	5530.9	
558.33	5294.7	
558.52	8114.1	
558.72	6905.1	
558.91	5352.7	
559.1	5718.6	
559.3	6591	
559.49	6399.2	
559.69	5018.9	
559.88	6024.4	
560.07	7509.2	
560.27	7918.8	
560.46	6201.2	
560.66	6352.8	
560.85	7303.1	
561.04	6520	
561.24	5486.5	
561.43	5618.3	
561.63	6749.4	
561.82	7019.8	
562.01	6918	
562.21	5912.5	
562.4	7447.8	
562.59	8417.8	
562.79	5831.9	
562.98	5408	
563.18	7348.1	
563.37	8817.2	
563.56	6247.7	
563.76	5293.3	
563.95	6860.7	
564.14	6701	
564.34	5680.4	
564.53	5466	
564.73	7351.5	
564.92	7709.2	
565.11	5862	
565.31	5177.3	
565.5	7963.9	
565.69	6885.3	
565.89	5430.5	
566.08	5683.8	
566.27	7772.7	
566.47	8089.5	
566.66	6363.7	
566.85	4975.2	
567.05	7378.8	
567.24	6706.4	
567.44	5356.1	
567.63	6769.2	
567.82	7601.4	
568.02	7318.8	
568.21	5356.1	
568.4	5709.7	
568.6	7232.7	
568.79	7204.8	
568.98	5157.5	
569.18	5296.7	
569.37	7062.8	
569.56	9120.3	
569.76	5674.9	
569.95	6625.9	
570.14	7568.6	
570.34	7349.5	
570.53	5124	
570.72	5226.4	
570.91	8059.4	
571.11	7058.7	
571.3	5627.1	
571.49	6658.6	
571.69	7109.9	
571.88	6734.4	
572.07	6135	
572.27	6240.8	
572.46	6665.5	
572.65	7744.1	
572.85	5446.2	
573.04	5829.9	
573.23	7938.6	
573.43	7093.5	
573.62	5073.5	
573.81	5803.9	
574	7159	
574.2	7038.9	
574.39	5401.2	
574.58	5690.6	
574.78	8060.8	
574.97	7273	
575.16	5991.7	
575.36	6189	
575.55	7582.9	
575.74	7696.9	
575.93	5109	
576.13	6083.8	
576.32	6830	
576.51	7522.2	
576.71	5500.8	
576.9	6889.4	
577.09	7916.8	
577.28	7458.7	
577.48	6004	
577.67	4928.1	
577.86	7088.7	
578.05	7358.4	
578.25	5583.4	
578.44	5696.8	
578.63	7217	
578.83	8430.1	
579.02	4988.2	
579.21	6561	
579.4	7418.4	
579.6	6963.1	
579.79	5791.7	
579.98	8099	
580.17	7679.9	
580.37	7734.5	
580.56	5255.8	
580.75	5945.9	
580.94	8295	
581.14	8117.5	
581.33	6510.5	
581.52	5365.7	
581.71	7588.4	
581.91	8247.2	
582.1	5012.1	
582.29	5715.9	
582.48	7206.8	
582.68	7090.8	
582.87	6186.9	
583.06	5735	
583.25	7514	
583.45	7324.2	
583.64	6404.7	
583.83	7238.9	
584.02	7006.8	
584.21	7414.3	
584.41	6445	
584.6	5674.9	
584.79	7157.7	
584.98	7955	
585.18	5144.5	
585.37	5132.2	
585.56	6689.3	
585.75	7411.6	
585.94	5399.8	
586.14	6054.5	
586.33	8219.2	
586.52	7120.1	
586.71	5922	
586.91	5553.4	
587.1	6633.4	
587.29	7659.4	
587.48	5648.3	
587.67	5483.8	
587.87	7509.9	
588.06	7611.6	
588.25	6828.6	
588.44	6121.4	
588.63	7195.2	
588.83	7737.2	
589.02	5498.1	
589.21	5502.2	
589.4	7016.3	
589.59	6772.6	
589.78	4855.7	
589.98	5198.4	
590.17	6591.7	
590.36	7195.9	
590.55	4558.1	
590.74	5562.3	
590.94	8694.3	
591.13	7185	
591.32	5171.1	
591.51	4795	
591.7	7601.4	
591.89	7010.9	
592.09	4857.1	
592.28	5360.2	
592.47	6236.7	
592.66	8187.8	
592.85	4874.2	
593.05	5123.3	
593.24	6913.9	
593.43	7635.5	
593.62	5128.1	
593.81	5625.1	
594	6882.5	
594.19	7180.9	
594.39	5061.2	
594.58	5055.1	
594.77	7243.7	
594.96	7806.9	
595.15	4973.2	
595.34	5679.7	
595.54	7378.1	
595.73	6403.3	
595.92	4363.5	
596.11	5633.3	
596.3	7843	
596.49	6508.4	
596.68	5310.4	
596.88	5864.7	
597.07	7580.2	
597.26	6324.1	
597.45	4878.3	
597.64	6167.1	
597.83	6595.1	
598.02	7261.4	
598.22	4940.4	
598.41	5648.3	
598.6	7023.9	
598.79	6475	
598.98	4992.3	
599.17	5976.7	
599.36	7097.6	
599.55	8251.3	
599.74	7153.6	
599.94	6823.8	
600.13	7658.7	
600.32	6400.6	
600.51	4727.4	
600.7	4881	
600.89	8331.8	
601.08	8364.6	
601.27	4680.3	
601.47	5765	
601.66	7587.7	
601.85	8211	
602.04	5365	
602.23	5526.1	
602.42	6564.4	
602.61	7260	
602.8	5321.3	
602.99	5112.4	
603.18	6975.4	
603.37	7156.3	
603.57	5870.8	
603.76	6370.5	
603.95	7981.6	
604.14	7518.1	
604.33	5131.5	
604.52	5485.1	
604.71	7112.6	
604.9	6724.8	
605.09	6143.9	
605.28	5959.6	
605.47	7717.4	
605.66	7471	
605.86	5735.7	
606.05	5195.7	
606.24	7755.7	
606.43	6195.1	
606.62	5504.3	
606.81	6281.8	
607	7634.8	
607.19	6872.3	
607.38	4971.1	
607.57	5183.4	
607.76	6719.4	
607.95	6201.9	
608.14	5596.4	
608.33	6253.8	
608.52	6784.2	
608.72	7586.4	
608.91	4844.1	
609.1	4739.7	
609.29	6797.2	
609.48	6270.9	
609.67	5814.2	
609.86	4799.1	
610.05	6451.8	
610.24	6768.5	
610.43	4665.3	
610.62	4377.9	
610.81	7920.2	
611	7742	
611.19	4920.6	
611.38	5556.8	
611.57	7101.7	
611.76	8422.6	
611.95	4615.4	
612.14	4502.1	
612.33	6845	
612.52	6356.9	
612.71	5231.2	
612.9	4398.4	
613.09	5975.3	
613.28	8382.3	
613.47	4919.2	
613.66	5938.4	
613.85	7074.4	
614.04	6530.3	
614.24	5028.4	
614.43	4227.7	
614.62	7166.5	
614.81	7118.7	
615	5634	
615.19	5583.4	
615.38	6371.2	
615.57	6707.8	
615.76	5406.6	
615.95	6339.1	
616.14	7149.5	
616.33	6758.3	
616.52	5763.7	
616.71	6059.9	
616.9	7137.2	
617.09	6919.4	
617.28	5035.3	
617.47	6388.3	
617.66	6153.5	
617.85	6250.4	
618.04	6005.3	
618.22	5444.9	
618.41	6544.6	
618.6	7389.1	
618.79	5305.6	
618.98	4930.8	
619.17	7764.5	
619.36	6066.1	
619.55	5093.3	
619.74	5207.3	
619.93	6939.2	
620.12	6410.1	
620.31	5656.5	
620.5	5911.8	
620.69	7529.7	
620.88	7891.5	
621.07	6571.9	
621.26	5627.8	
621.45	7103	
621.64	7058.7	
621.83	5674.9	
622.02	4843.4	
622.21	7135.1	
622.4	6793.8	
622.59	6221.7	
622.78	5943.2	
622.97	6481.8	
623.16	7467.6	
623.35	5550.7	
623.54	4676.2	
623.72	6616.3	
623.91	6802.7	
624.1	5826.5	
624.29	4504.8	
624.48	7900.4	
624.67	7170.6	
624.86	5700.9	
625.05	4731.5	
625.24	8030.1	
625.43	6389.7	
625.62	7473.7	
625.81	4988.2	
626	7441.6	
626.19	6623.1	
626.38	5773.9	
626.56	5184.8	
626.75	6475	
626.94	7206.8	
627.13	5760.9	
627.32	4408.6	
627.51	7156.3	
627.7	8531.8	
627.89	4598.4	
628.08	5814.9	
628.27	6382.2	
628.46	6537.8	
628.65	4920.6	
628.83	4540.3	
629.02	7178.1	
629.21	6410.8	
629.4	5306.3	
629.59	5524.7	
629.78	6374	
629.97	7408.9	
630.16	5549.3	
630.35	5075.5	
630.54	7766.6	
630.72	7434.8	
630.91	5009.3	
631.1	5635.3	
631.29	6954.2	
631.48	7101.7	
631.67	5765.7	
631.86	5201.8	
632.05	6567.2	
632.24	6628.6	
632.42	4821.6	
632.61	5457.2	
632.8	6730.3	
632.99	6235.4	
633.18	5416.9	
633.37	5860.6	
633.56	6929.6	
633.75	6781.5	
633.93	5406.6	
634.12	5070.8	
634.31	7758.4	
634.5	7382.9	
634.69	5104.2	
634.88	5706.3	
635.07	6677.1	
635.25	7343.3	
635.44	6068.1	
635.63	6324.1	
635.82	6564.4	
636.01	6074.3	
636.2	6060.6	
636.39	5532.2	
636.57	7715.4	
636.76	7457.3	
636.95	4917.2	
637.14	6494.8	
637.33	7044.3	
637.52	7923.6	
637.7	4747.2	
637.89	5743.9	
638.08	6582.9	
638.27	8071	
638.46	5787.6	
638.65	6281.8	
638.83	8146.8	
639.02	6432.7	
639.21	5750.7	
639.4	6268.8	
639.59	6927.6	
639.78	6565.8	
639.96	5053.7	
640.15	5049.6	
640.34	6787	
640.53	7008.8	
640.72	4784.7	
640.91	5150	
641.09	6191	
641.28	7638.9	
641.47	5158.2	
641.66	5915.2	
641.85	6929	
642.03	7299.6	
642.22	5688.6	
642.41	5269.4	
642.6	6383.5	
642.79	5839.4	
642.97	5011.4	
643.16	5713.2	
643.35	6411.5	
643.54	6214.9	
643.73	4989.5	
643.91	5860.6	
644.1	6141.2	
644.29	6696.2	
644.48	5069.4	
644.67	5083.1	
644.85	6341.9	
645.04	6630	
645.23	4702.8	
645.42	4937.7	
645.6	6178.7	
645.79	7424.6	
645.98	5061.9	
646.17	4070	
646.36	5984.2	
646.54	6640.9	
646.73	5909.1	
646.92	4692.6	
647.11	6227.2	
647.29	7318.8	
647.48	4794.3	
647.67	4561.5	
647.86	7568.6	
648.05	7623.2	
648.23	5098.8	
648.42	6396.5	
648.61	6995.9	
648.8	6736.5	
648.98	4806.6	
649.17	5064.6	
649.36	6313.9	
649.55	5699.5	
649.73	4792.2	
649.92	5596.4	
650.11	6155.5	
650.3	6492.7	
650.48	4994.3	
650.67	4741	
650.86	6873.7	
651.05	5730.9	
651.23	4900.1	
651.42	4842.1	
651.61	6190.3	
651.79	6444.3	
651.98	5128.1	
652.17	4825	
652.36	6784.9	
652.54	5853.1	
652.73	4760.2	
652.92	4584	
653.11	6782.2	
653.29	6885.3	
653.48	4065.9	
653.67	5148.6	
653.85	6567.8	
654.04	7727	
654.23	5274.2	
654.42	4845.5	
654.6	6095.4	
654.79	6790.4	
654.98	4372.4	
655.16	4941.1	
655.35	5793.7	
655.54	5812.8	
655.73	4506.9	
655.91	4435.9	
656.1	6925.5	
656.29	5774.6	
656.47	4003.8	
656.66	5753.4	
656.85	6023.1	
657.03	6026.5	
657.22	4500.8	
657.41	4601.1	
657.59	6035.4	
657.78	5851	
657.97	4231.1	
658.16	4962.2	
658.34	6759.7	
658.53	7105.1	
658.72	5839.4	
658.9	6411.5	
659.09	6092	
659.28	6300.9	
659.46	4666	
659.65	4635.9	
659.84	5978.7	
660.02	6451.1	
660.21	4458.4	
660.4	4447.5	
660.58	6909.8	
660.77	6255.9	
660.96	5125.4	
661.14	4130.8	
661.33	7452.6	
661.52	7265.5	
661.7	4042	
661.89	7915.4	
662.08	5863.3	
662.26	5425.1	
662.45	4334.2	
662.64	4497.3	
662.82	6528.2	
663.01	5763	
663.2	4521.2	
663.38	5270.8	
663.57	6494.8	
663.75	6415.6	
663.94	4866.7	
664.13	6207.4	
664.31	5848.3	
664.5	6589.7	
664.69	5041.4	
664.87	5726.8	
665.06	5719.3	
665.25	6391.7	
665.43	5898.8	
665.62	6022.4	
665.8	6735.1	
665.99	5982.8	
666.18	4870.1	
666.36	4994.3	
666.55	6726.2	
666.74	6517.3	
666.92	4461.2	
667.11	6184.9	
667.29	6029.9	
667.48	6740.5	
667.67	5793	
667.85	4902.2	
668.04	6061.3	
668.22	6062	
668.41	4873.5	
668.6	5110.4	
668.78	5821.7	
668.97	6084.5	
669.15	5361.6	
669.34	4208.6	
669.53	5882.4	
669.71	6266.8	
669.9	4412.7	
670.08	5117.9	
670.27	5857.2	
670.46	6419.7	
670.64	5300.8	
670.83	5616.9	
671.01	5798.5	
671.2	6412.2	
671.38	4486.4	
671.57	4423.6	
671.76	7099.6	
671.94	7656	
672.13	4360.8	
672.31	5492.7	
672.5	6613.6	
672.69	5844.9	
672.87	4524	
673.06	4912.4	
673.24	6389.7	
673.43	5874.3	
673.61	5314.5	
673.8	4891.9	
673.98	6543.9	
674.17	6768.5	
674.36	5479.7	
674.54	5268.1	
674.73	6331.6	
674.91	6619.7	
675.1	4973.8	
675.28	4623.6	
675.47	6102.3	
675.65	6707.8	
675.84	4797	
676.03	5236	
676.21	5922.7	
676.4	5427.1	
676.58	5714.5	
676.77	5384.1	
676.95	7323.5	
677.14	5844.2	
677.32	4516.5	
677.51	4276.2	
677.69	6681.8	
677.88	5444.9	
678.06	4410.6	
678.25	4489.1	
678.44	6137.1	
678.62	5912.5	
678.81	4179.9	
678.99	5173.9	
679.18	6961	
679.36	6539.8	
679.55	4715.8	
679.73	5427.8	
679.92	6511.2	
680.1	5846.3	
680.29	6066.8	
680.47	4741	
680.66	5859.2	
680.84	6698.2	
681.03	4057.7	
681.21	5309.7	
681.4	5855.1	
681.58	5745.2	
681.77	4574.5	
681.95	4463.2	
682.14	6720.8	
682.32	7098.3	
682.51	5415.5	
682.69	4299.4	
682.88	5770.5	
683.06	6512.5	
683.25	5113.8	
683.43	5563.6	
683.62	6115.2	
683.8	6509.1	
683.99	5707.7	
684.17	5005.2	
684.36	7421.8	
684.54	6053.1	
684.73	4199	
684.91	4446.8	
685.1	6445	
685.28	5881.8	
685.46	5088.5	
685.65	5154.7	
685.83	6701.6	
686.02	6032	
686.2	4579.9	
686.39	4696	
686.57	5730.2	
686.76	7466.2	
686.94	4590.2	
687.13	4679.6	
687.31	6657.3	
687.5	6048.3	
687.68	4107.5	
687.86	5432.6	
688.05	7692.9	
688.23	5545.2	
688.42	5470.8	
688.6	4635.2	
688.79	5986.9	
688.97	5929.6	
689.16	4989.5	
689.34	3908.9	
689.52	6734.4	
689.71	6869.6	
689.89	5279.7	
690.08	4555.4	
690.26	6143.9	
690.45	6059.9	
690.63	5481	
690.81	4633.2	
691	5961.6	
691.18	5859.9	
691.37	4865.3	
691.55	7151.5	
691.74	5815.5	
691.92	7990.5	
692.1	4911	
692.29	4252.3	
692.47	6134.3	
692.66	5374.6	
692.84	4496	
693.02	5218.9	
693.21	5459.2	
693.39	6018.3	
693.58	5184.1	
693.76	4571.7	
693.94	7256.6	
694.13	6997.2	
694.31	4564.2	
694.5	5629.9	
694.68	5814.2	
694.86	6093.4	
695.05	4853.7	
695.23	5335.6	
695.42	6441.5	
695.6	8811.7	
695.78	5461.2	
695.97	4611.3	
696.15	6509.1	
696.34	5889.3	
696.52	4302.8	
696.7	5227.8	
696.89	6251.8	
697.07	5725.4	
697.25	5123.3	
697.44	6842.3	
697.62	6232	
697.81	6687.3	
697.99	4861.2	
698.17	5369.8	
698.36	5614.2	
698.54	6250.4	
698.72	5229.1	
698.91	4111	
699.09	5885.9	
699.28	5776.6	
699.46	4864.6	
699.64	4733.5	
699.83	5621	
700.01	6993.8	
700.19	5526.8	
700.38	3898.6	
700.56	6950.1	
700.74	5769.8	
700.93	4335.5	
701.11	5188.9	
701.29	6376.7	
701.48	7471	
701.66	4504.8	
701.84	4545.1	
702.03	5872.2	
702.21	6529.6	
702.39	4111.6	
702.58	4772.4	
702.76	6272.9	
702.94	6375.3	
703.13	4146.5	
703.31	6619	
703.49	5650.3	
703.68	7251.9	
703.86	4324.6	
704.04	5330.2	
704.23	6075.6	
704.41	6590.4	
704.59	4423.6	
704.78	5754.1	
704.96	7199.3	
705.14	6574.7	
705.33	4309.6	
705.51	5164.3	
705.69	6014.2	
705.87	6779.5	
706.06	5404.6	
706.24	4268	
706.42	6274.3	
706.61	6480.5	
706.79	5464.7	
706.97	4228.4	
707.16	5698.1	
707.34	6305.7	
707.52	5435.3	
707.7	4518.5	
707.89	5969.8	
708.07	5594.4	
708.25	5461.2	
708.44	5490.6	
708.62	5792.3	
708.8	6984.9	
708.98	5716.6	
709.17	4562.9	
709.35	6333.7	
709.53	6290	
709.72	4242.7	
709.9	4505.5	
710.08	6511.9	
710.26	6526.9	
710.45	5997.8	
710.63	4620.2	
710.81	6253.1	
710.99	6220.4	
711.18	5368.4	
711.36	4858.5	
711.54	6045.6	
711.72	6838.9	
711.91	4939	
712.09	4343.7	
712.27	6279.1	
712.45	6898.9	
712.64	5315.2	
712.82	4164.2	
713	5695.4	
713.18	5896.8	
713.37	4326	
713.55	5638.7	
713.73	6837.5	
713.91	5395.7	
714.1	4824.3	
714.28	4270.7	
714.46	6588.3	
714.64	5784.1	
714.83	3792.8	
715.01	4711.7	
715.19	5924.8	
715.37	5388.2	
715.55	4449.6	
715.74	4826.4	
715.92	6932.4	
716.1	4850.3	
716.28	5918.6	
716.47	4980	
716.65	5644.2	
716.83	5680.4	
717.01	4773.8	
717.19	4883	
717.38	7819.8	
717.56	5339.7	
717.74	5049.6	
717.92	4162.2	
718.1	6670.2	
718.29	5820.3	
718.47	3782.6	
718.65	4413.4	
718.83	6454.5	
719.01	6320	
719.2	3552.5	
719.38	4667.3	
719.56	6048.3	
719.74	7703.1	
719.92	4249.5	
720.11	5322	
720.29	6096.1	
720.47	5240.8	
720.65	3825.6	
720.83	4690.5	
721.02	5642.8	
721.2	5456.5	
721.38	4945.2	
721.56	4095.9	
721.74	4928.1	
721.92	5171.1	
722.11	5497.4	
722.29	5068	
722.47	6453.1	
722.65	5644.2	
722.83	4123.9	
723.01	5115.8	
723.2	5708.4	
723.38	5964.4	
723.56	3528.7	
723.74	4730.8	
723.92	5183.4	
724.1	6355.5	
724.29	4090.5	
724.47	5301.5	
724.65	5232.6	
724.83	5198.4	
725.01	3942.3	
725.19	4891.2	
725.37	5267.4	
725.56	5288.5	
725.74	3839.3	
725.92	4100	
726.1	5152	
726.28	5504.3	
726.46	4525.3	
726.64	4300.7	
726.83	5477	
727.01	5771.2	
727.19	3820.1	
727.37	4636.6	
727.55	5591.6	
727.73	6144.6	
727.91	3788.1	
728.09	3642	
728.28	6148.7	
728.46	6876.4	
728.64	4806.6	
728.82	4760.8	
729	7277.8	
729.18	6488	
729.36	3962.1	
729.54	6429.9	
729.72	7581.6	
729.91	5737.7	
730.09	5915.9	
730.27	4584.7	
730.45	5588.9	
730.63	6313.9	
730.81	5203.9	
730.99	4196.3	
731.17	6804	
731.35	5373.2	
731.53	4757.4	
731.71	4354.7	
731.9	6546	
732.08	6804.7	
732.26	4640.7	
732.44	4257	
732.62	6752.2	
732.8	6271.6	
732.98	5059.2	
733.16	4026.3	
733.34	6244.3	
733.52	4984.1	
733.7	4601.1	
733.88	4938.3	
734.07	6125.5	
734.25	5882.4	
734.43	4102.8	
734.61	5726.8	
734.79	7417.7	
734.97	5726.8	
735.15	4227	
735.33	4600.4	
735.51	6149.4	
735.69	5743.2	
735.87	5906.3	
736.05	4849.6	
736.23	5956.9	
736.41	5717.9	
736.59	4625	
736.77	4727.4	
736.95	6462	
737.13	5778	
737.32	4330.1	
737.5	4526.7	
737.68	7011.6	
737.86	5779.4	
738.04	4078.9	
738.22	6097.5	
738.4	5540.4	
738.58	5870.8	
738.76	4825	
738.94	3691.8	
739.12	5649.7	
739.3	5515.9	
739.48	5440.8	
739.66	5131.5	
739.84	5993.7	
740.02	5885.2	
740.2	3747.1	
740.38	4184.7	
740.56	6311.8	
740.74	5141.8	
740.92	4900.8	
741.1	4829.1	
741.28	5720	
741.46	5618.3	
741.64	4377.2	
741.82	4947.2	
742	5853.1	
742.18	5759.6	
742.36	4617.5	
742.54	4166.3	
742.72	6425.2	
742.9	5072.1	
743.08	5073.5	
743.26	3785.3	
743.44	6622.4	
743.62	6487.3	
743.8	5287.2	
743.98	4262.5	
744.16	6211.5	
744.34	5854.5	
744.52	5231.2	
744.7	5075.5	
744.88	6317.3	
745.06	5823.1	
745.24	5199.1	
745.42	5322	
745.6	6437.4	
745.78	6182.8	
745.96	3946.4	
746.14	4358.8	
746.32	7219.1	
746.5	6498.9	
746.68	4934.2	
746.86	4386.1	
747.03	6888	
747.21	5171.1	
747.39	4939	
747.57	4347.8	
747.75	6107	
747.93	6451.8	
748.11	4361.5	
748.29	4269.3	
748.47	7740	
748.65	5877.7	
748.83	5126.1	
749.01	4819.6	
749.19	6295.5	
749.37	5460.6	
749.55	4769	
749.73	4792.9	
749.91	6014.2	
750.09	5601.2	
750.26	4842.8	
750.44	4269.3	
750.62	6019	
750.8	5989.6	
750.98	4071.4	
751.16	4394.9	
751.34	6085.2	
751.52	5358.9	
751.7	5259.9	
751.88	4040.6	
752.06	6574	
752.24	6315.3	
752.42	4018.1	
752.59	4390.2	
752.77	5983.5	
752.95	7279.8	
753.13	5198.4	
753.31	4583.4	
753.49	5636.7	
753.67	6123.4	
753.85	4821.6	
754.03	4491.2	
754.21	6397.2	
754.38	6817	
754.56	4701.5	
754.74	3612.6	
754.92	5651.7	
755.1	6460.7	
755.28	3756.7	
755.46	3806.5	
755.64	7266.2	
755.82	7400.7	
755.99	4131.4	
756.17	4255	
756.35	4807.3	
756.53	6516.6	
756.71	3097.2	
756.89	4132.1	
757.07	6081.1	
757.25	5163.6	
757.42	4724	
757.6	5598.5	
757.78	6094.8	
757.96	5037.3	
758.14	4322.6	
758.32	3801	
758.5	4539.7	
758.67	5467.4	
758.85	4106.2	
759.03	4272.1	
759.21	5657.9	
759.39	5032.5	
759.57	3710.2	
759.75	4911.7	
759.92	6377.4	
760.1	5432.6	
760.28	5279	
760.46	5526.1	
760.64	5289.9	
760.82	5001.8	
760.99	5053	
761.17	4184	
761.35	6110.5	
761.53	5048.2	
761.71	4296.6	
761.89	5061.2	
762.06	6036	
762.24	5444.9	
762.42	4419.5	
762.6	4153.3	
762.78	5451	
762.96	6144.6	
763.13	4752	
763.31	4502.8	
763.49	6313.2	
763.67	5384.1	
763.85	5330.9	
764.02	5918.6	
764.2	6567.8	
764.38	5754.8	
764.56	4364.9	
764.74	5282.4	
764.91	6757.6	
765.09	5606	
765.27	4014	
765.45	3800.3	
765.63	6726.2	
765.8	6647.7	
765.98	3503.4	
766.16	3887.7	
766.34	5133.6	
766.52	4853.7	
766.69	4885.8	
766.87	3755.3	
767.05	5563	
767.23	6413.6	
767.41	4063.2	
767.58	4339.6	
767.76	6147.3	
767.94	6335.7	
768.12	4149.2	
768.29	4980	
768.47	5706.3	
768.65	6431.3	
768.83	3805.8	
769	5042.1	
769.18	5188.2	
769.36	6005.3	
769.54	4863.2	
769.72	3850.9	
769.89	6248.4	
770.07	6412.2	
770.25	4215.4	
770.43	5504.9	
770.6	7049.1	
770.78	7520.1	
770.96	4438.6	
771.14	5076.9	
771.31	6266.1	
771.49	5511.1	
771.67	3556.6	
771.85	3839.9	
772.02	4691.9	
772.2	5580.7	
772.38	4614.1	
772.55	4113.7	
772.73	5758.2	
772.91	5614.2	
773.09	4521.2	
773.26	4513.7	
773.44	5827.8	
773.62	5470.8	
773.8	3994.9	
773.97	3656.3	
774.15	5899.5	
774.33	5370.5	
774.5	3900.7	
774.68	4280.9	
774.86	6017.6	
775.04	5524.7	
775.21	3992.2	
775.39	3944.4	
775.57	5814.9	
775.74	6191.7	
775.92	3816.7	
776.1	3743	
776.27	5817.6	
776.45	7081.9	
776.63	3984.7	
776.81	3497.9	
776.98	5413.5	
777.16	6543.9	
777.34	4179.2	
777.51	4112.3	
777.69	5398.4	
777.87	5147.2	
778.04	4152.6	
778.22	4897.4	
778.4	5180.7	
778.57	5892.7	
778.75	3444	
778.93	3739.6	
779.1	4952.7	
779.28	4846.2	
779.46	3433.1	
779.64	3973.7	
779.81	6062	
779.99	6959	
780.17	4799.1	
780.34	4954.7	
780.52	5489.2	
780.69	5752.1	
780.87	4351.9	
781.05	3842.7	
781.22	5569.8	
781.4	5614.8	
781.58	3992.2	
781.75	3149.8	
781.93	5472.9	
782.11	4987.5	
782.28	4969.1	
782.46	4052.2	
782.64	4799.1	
782.81	5830.6	
782.99	4135.5	
783.17	4048.2	
783.34	5700.2	
783.52	4857.1	
783.69	4323.9	
783.87	5145.2	
784.05	5031.9	
784.22	4956.8	
784.4	5149.3	
784.58	4425.7	
784.75	5996.5	
784.93	5048.9	
785.1	4005.8	
785.28	4722.6	
785.46	5648.3	
785.63	5029.8	
785.81	4015.4	
785.99	3831.1	
786.16	5151.3	
786.34	5591.6	
786.51	3879.5	
786.69	4328.7	
786.87	4752	
787.04	5309	
787.22	3749.8	
787.39	4761.5	
787.57	4934.2	
787.75	6167.8	
787.92	4949.3	
788.1	4893.3	
788.27	5059.8	
788.45	4786.1	
788.63	4657.8	
788.8	3222.1	
788.98	5418.9	
789.15	4749.2	
789.33	3403	
789.5	4072.7	
789.68	5945.3	
789.86	6064	
790.03	4487.8	
790.21	3879.5	
790.38	5982.8	
790.56	5173.9	
790.73	3771.7	
790.91	3794.9	
791.09	5015.5	
791.26	5831.9	
791.44	4045.4	
791.61	3489.1	
791.79	5023	
791.96	5057.1	
792.14	3510.9	
792.32	3155.9	
792.49	5020.3	
792.67	5162.2	
792.84	3676.1	
793.02	3442.6	
793.19	5522.7	
793.37	6294.8	
793.54	3204.4	
793.72	3517	
793.89	6368.5	
794.07	5053.7	
794.25	4242.7	
794.42	3261.7	
794.6	6133.7	
794.77	5698.8	
794.95	4506.2	
795.12	3861.8	
795.3	4967.7	
795.47	5731.6	
795.65	4326.7	
795.82	4100.7	
796	4827.1	
796.17	6892.1	
796.35	3976.5	
796.52	4700.1	
796.7	5595.7	
796.87	5636.7	
797.05	4899.4	
797.22	4752.7	
797.4	5693.4	
797.57	6777.4	
797.75	4090.5	
797.92	3865.2	
798.1	6038.1	
798.27	4989.5	
798.45	3265.1	
798.62	3609.9	
798.8	5379.3	
798.97	5905	
799.15	4390.2	
799.32	4100.7	
799.5	4640	
799.67	5426.4	
799.85	4504.2	
800.02	3224.2	
800.2	4978.6	
800.37	5337.7	
800.55	4678.9	
800.72	3845.4	
800.9	5851	
801.07	6290	
801.25	5225.1	
801.42	4214.7	
801.6	5847	
801.77	5617.6	
801.95	3988.8	
802.12	3757.3	
802.29	5574.6	
802.47	5587.5	
802.64	4156	
802.82	3138.9	
802.99	4997.7	
803.17	6089.3	
803.34	4130.8	
803.52	3708.9	
803.69	6773.3	
803.87	4786.1	
804.04	4097.3	
804.21	4206.5	
804.39	6129.6	
804.56	5238	
804.74	3494.5	
804.91	4244.1	
805.09	5059.2	
805.26	5155.4	
805.44	3525.9	
805.61	3926.6	
805.78	5770.5	
805.96	5774.6	
806.13	4305.5	
806.31	4599.1	
806.48	4568.3	
806.66	5156.1	
806.83	4257	
807	4184.7	
807.18	5018.9	
807.35	5421	
807.53	4138.3	
807.7	3306.1	
807.87	6314.6	
808.05	5038	
808.22	4622.3	
808.4	3289.7	
808.57	5104.2	
808.74	4679.6	
808.92	3824.2	
809.09	4887.8	
809.27	4944.5	
809.44	5597.8	
809.61	3372.3	
809.79	3762.8	
809.96	6254.5	
810.14	5853.1	
810.31	3217.4	
810.48	3992.2	
810.66	5197.7	
810.83	5962.3	
811.01	3846.8	
811.18	4228.4	
811.35	5836	
811.53	4564.9	
811.7	4658.4	
811.87	4289.1	
812.05	5109.7	
812.22	5025	
812.39	3705.5	
812.57	3582.6	
812.74	5053	
812.92	6886.6	
813.09	3964.2	
813.26	4359.4	
813.44	6578.8	
813.61	5072.1	
813.78	3321.8	
813.96	4492.6	
814.13	5091.9	
814.3	4701.5	
814.48	4891.9	
814.65	4048.2	
814.82	6331	
815	4899.4	
815.17	4117.8	
815.34	5051	
815.52	5016.8	
815.69	5071.5	
815.87	4046.1	
816.04	3547.1	
816.21	5119.9	
816.38	4506.2	
816.56	3942.3	
816.73	3648.1	
816.9	6482.5	
817.08	5874.9	
817.25	3748.5	
817.42	4696	
817.6	4661.9	
817.77	5101.5	
817.94	4218.8	
818.12	3654.3	
818.29	4808.6	
818.46	7668.3	
818.64	3836.5	
818.81	3572.3	
818.98	4775.9	
819.16	6949.4	
819.33	4425	
819.5	4057.7	
819.67	5461.9	
819.85	6202.6	
820.02	3997.6	
820.19	4276.8	
820.37	5362.9	
820.54	4889.9	
820.71	4212	
820.88	5195.7	
821.06	5360.9	
821.23	4878.9	
821.4	4235.9	
821.58	4141	
821.75	5838.1	
821.92	5249.6	
822.09	3395.5	
822.27	3468.6	
822.44	5119.2	
822.61	5001.8	
822.79	3400.3	
822.96	6563.7	
823.13	5644.9	
823.3	4829.8	
823.48	3947.8	
823.65	3524.6	
823.82	5877	
823.99	4630.5	
824.17	4990.2	
824.34	3582.6	
824.51	6793.1	
824.68	5185.5	
824.86	3646.1	
825.03	4248.9	
825.2	5096	
825.37	6247.7	
825.55	3711.6	
825.72	4134.2	
825.89	6917.4	
826.06	6318	
826.24	4049.5	
826.41	4048.8	
826.58	6251.8	
826.75	5468.8	
826.92	3155.9	
827.1	3487	
827.27	8598.7	
827.44	6827.9	
827.61	3811.3	
827.79	4647.5	
827.96	4878.3	
828.13	5158.2	
828.3	3977.8	
828.47	3353.2	
828.65	5343.8	
828.82	5311.1	
828.99	5251	
829.16	4579.3	
829.34	5697.4	
829.51	5449.6	
829.68	4181.3	
829.85	4354.7	
830.02	5961	
830.2	5819	
830.37	3147.7	
830.54	4947.9	
830.71	6550.8	
830.88	5104.9	
831.05	3239.2	
831.23	3719.8	
831.4	6244.3	
831.57	7074.4	
831.74	3809.2	
831.91	3318.4	
832.09	5329.5	
832.26	5774.6	
832.43	4036.5	
832.6	4527.4	
832.77	5337.7	
832.94	6163	
833.12	3153.9	
833.29	3921.2	
833.46	5471.5	
833.63	7286	
833.8	4327.4	
833.97	3990.8	
834.15	5750.7	
834.32	5466.7	
834.49	4168.3	
834.66	4250.2	
834.83	6001.9	
835	4840	
835.17	3780.6	
835.35	3835.8	
835.52	5616.2	
835.69	5519.3	
835.86	4092.5	
836.03	3327.9	
836.2	5737.7	
836.37	5332.9	
836.55	3971	
836.72	3736.2	
836.89	5321.3	
837.06	5744.6	
837.23	4030.4	
837.4	4512.4	
837.57	6560.3	
837.75	7320.1	
837.92	3646.1	
838.09	3891.1	
838.26	5255.1	
838.43	6077.7	
838.6	4153.3	
838.77	3723.9	
838.94	6917.4	
839.11	6591.7	
839.29	3952.6	
839.46	3124.5	
839.63	5658.5	
839.8	5427.1	
839.97	3862.5	
840.14	3907.5	
840.31	5498.1	
840.48	5713.8	
840.65	3155.2	
840.82	3687	
841	5709.7	
841.17	5730.2	
841.34	3543.7	
841.51	3587.4	
841.68	5636	
841.85	5373.9	
842.02	3686.3	
842.19	3028.9	
842.36	5449.6	
842.53	5413.5	
842.7	3541.6	
842.87	4345.8	
843.05	7264.1	
843.22	5358.2	
843.39	3393.5	
843.56	3612.6	
843.73	5178.6	
843.9	5793	
844.07	5816.9	
844.24	4800.4	
844.41	8545.5	
844.58	4913.8	
844.75	3415.3	
844.92	3683.6	
845.09	5763.7	
845.26	5717.9	
845.43	3480.2	
845.6	3685.7	
845.77	5745.2	
845.94	5413.5	
846.12	3938.9	
846.29	4190.8	
846.46	5967.1	
846.63	5690.6	
846.8	3526.6	
846.97	4179.2	
847.14	6198.5	
847.31	5643.5	
847.48	3997	
847.65	4431.1	
847.82	6054.5	
847.99	5964.4	
848.16	4780.6	
848.33	4381.3	
848.5	5177.3	
848.67	6225.1	
848.84	3487.7	
849.01	3657	
849.18	5120.6	
849.35	4764.9	
849.52	4441.4	
849.69	3477.5	
849.86	5930.9	
850.03	6148.7	
850.2	3519.8	
850.37	4334.9	
850.54	6057.9	
850.71	5421.7	
850.88	4237.2	
851.05	3444.7	
851.22	5588.9	
851.39	6289.3	
851.56	3328.6	
851.73	4042	
851.9	5023.7	
852.07	5983.5	
852.24	3956	
852.41	3510.2	
852.58	5589.6	
852.75	5100.1	
852.92	3949.8	
853.09	3426.3	
853.26	5299.5	
853.43	6170.5	
853.6	3473.4	
853.77	2956.6	
853.94	6223.1	
854.11	5668.8	
854.28	5265.3	
854.44	3803.8	
854.61	6793.1	
854.78	5879	
854.95	3522.5	
855.12	4401.8	
855.29	4622.9	
855.46	6356.9	
855.63	3514.3	
855.8	4940.4	
855.97	5218.9	
856.14	6133.7	
856.31	4908.3	
856.48	3790.8	
856.65	5198.4	
856.82	4999.8	
856.99	3360	
857.16	3788.1	
857.33	6987	
857.49	5412.8	
857.66	3760.1	
857.83	4136.2	
858	5309.7	
858.17	5508.4	
858.34	3312.2	
858.51	3510.9	
858.68	6434	
858.85	6438.1	
859.02	4098	
859.19	4373.8	
859.36	4954	
859.52	5076.2	
859.69	3536.2	
859.86	4222.2	
860.03	5087.8	
860.2	6290.7	
860.37	3138.9	
860.54	3553.9	
860.71	5893.4	
860.88	6352.8	
861.05	3946.4	
861.21	4429.1	
861.38	6414.9	
861.55	4881.7	
861.72	3192.8	
861.89	3956	
862.06	6004	
862.23	6496.2	
862.4	3371.6	
862.56	3717.7	
862.73	5823.1	
862.9	5526.8	
863.07	4150.5	
863.24	3153.9	
863.41	4918.5	
863.58	5018.2	
863.75	3616.7	
863.91	4125.3	
864.08	6349.4	
864.25	5881.1	
864.42	4462.5	
864.59	4949.9	
864.76	6666.8	
864.93	5065.3	
865.09	3402.4	
865.26	3803.8	
865.43	6195.8	
865.6	6646.3	
865.77	3037.1	
865.94	3500	
866.1	6250.4	
866.27	5987.6	
866.44	5312.4	
866.61	3272	
866.78	5406.6	
866.95	5847	
867.11	3330.7	
867.28	3121.8	
867.45	6060.6	
867.62	5088.5	
867.79	4087.7	
867.96	3506.1	
868.12	5015.5	
868.29	5936.4	
868.46	3515	
868.63	4698.7	
868.8	6215.6	
868.97	5896.1	
869.13	3713	
869.3	3672	
869.47	5840.8	
869.64	6010.1	
869.81	3534.1	
869.97	3547.8	
870.14	5684.5	
870.31	6410.1	
870.48	3450.8	
870.65	4433.9	
870.81	5362.9	
870.98	5235.3	
871.15	4029	
871.32	3676.8	
871.48	5810.8	
871.65	6382.2	
871.82	3534.1	
871.99	3866.6	
872.16	6937.8	
872.32	6220.4	
872.49	3556	
872.66	3532.1	
872.83	5925.5	
872.99	5223.7	
873.16	4077.5	
873.33	3424.2	
873.5	5518.6	
873.67	5608.7	
873.83	3676.8	
874	4733.5	
874.17	5722	
874.34	6890.7	
874.5	4610	
874.67	4401.1	
874.84	6347.3	
875.01	4943.1	
875.17	5031.9	
875.34	3509.5	
875.51	5659.9	
875.68	6821.8	
875.84	4288.4	
876.01	5164.3	
876.18	5919.3	
876.34	5862	
876.51	3566.9	
876.68	3431.7	
876.85	5381.4	
877.01	6191	
877.18	5063.9	
877.35	3512.3	
877.52	5433.3	
877.68	4889.9	
877.85	3476.1	
878.02	3513.6	
878.18	5475.6	
878.35	5190.9	
878.52	2806.4	
878.69	3969	
878.85	6001.9	
879.02	5907.7	
879.19	5054.4	
879.35	3798.3	
879.52	5902.2	
879.69	6163.7	
879.86	3021.4	
880.02	3955.3	
880.19	5519.3	
880.36	6642.9	
880.52	4084.3	
880.69	4148.5	
880.86	5995.1	
881.02	6114.6	
881.19	3885.7	
881.36	3857.7	
881.52	5921.4	
881.69	5180.7	
881.86	3793.5	
882.02	3702.7	
882.19	6196.5	
882.36	7301.7	
882.52	3594.9	
882.69	5001.8	
882.86	5705	
883.02	5578	
883.19	4286.4	
883.36	4025.6	
883.52	6010.8	
883.69	6888	
883.86	3554.6	
884.02	3196.2	
884.19	6004.6	
884.36	5521.3	
884.52	3937.6	
884.69	3707.5	
884.86	5247.6	
885.02	6624.5	
885.19	3987.4	
885.36	4067.9	
885.52	5479.7	
885.69	5643.5	
885.86	5105.6	
886.02	4571.1	
886.19	5956.2	
886.35	5453.1	
886.52	3863.2	
886.69	4981.3	
886.85	5104.2	
887.02	6362.4	
887.19	6362.4	
887.35	6362.4	
887.52	6362.4	
887.68	6362.4	
887.85	6362.4	
888.02	6362.4	
888.18	6362.4	
888.35	6362.4	
888.51	6362.4	
888.68	6362.4	
888.85	6362.4	
889.01	6362.4	
889.18	6362.4	
889.35	6362.4	
889.51	6362.4	
889.68	6362.4	
889.84	6362.4	
890.01	6362.4	
890.17	6362.4	
890.34	6362.4	
890.51	6362.4	
890.67	6362.4	
890.84	6362.4	
891	6362.4	
891.17	6362.4	
891.34	6362.4	
891.5	6362.4	
891.67	6362.4	
891.83	6362.4	
892	6362.4	
892.16	6362.4	
892.33	6362.4	
892.5	6362.4	
892.66	6362.4	
892.83	6362.4	
892.99	6362.4	
893.16	6362.4	
893.32	6362.4	
893.49	6362.4	
893.65	6362.4	
893.82	6362.4	
893.99	6362.4	
894.15	6362.4	
894.32	6362.4	
894.48	6362.4	
894.65	6362.4	
894.81	6362.4	
894.98	6362.4	
895.14	6362.4	
895.31	6362.4	
895.47	6362.4	
895.64	6362.4	
895.81	6362.4	
895.97	6362.4	
896.14	6362.4	
896.3	6362.4	
896.47	6362.4	
896.63	6362.4	
896.8	6362.4	
896.96	6362.4	
897.13	6362.4	
897.29	6362.4	
897.46	6362.4	
897.62	6362.4	
897.79	6362.4	
897.95	6362.4	
898.12	6362.4	
898.28	6362.4	
898.45	6362.4	
898.61	6362.4	
898.78	6362.4	
898.94	6362.4	
899.11	6362.4	
899.27	6362.4	
899.44	6362.4	
899.6	6362.4	
899.77	6362.4	
899.93	6362.4	
900.1	6362.4	
900.26	6362.4	
900.43	6362.4	
900.59	6362.4	
900.76	6362.4	
900.92	6362.4	
901.09	6362.4	
901.25	6362.4	
901.42	6362.4	
901.58	6362.4	
901.75	6362.4	
901.91	6362.4	
902.07	6362.4	
902.24	6362.4	
902.4	6362.4	
902.57	6362.4	
902.73	6362.4	
902.9	6362.4	
903.06	6362.4	
903.23	6362.4	
903.39	6362.4	
903.56	6362.4	
903.72	6362.4	
903.88	6362.4	
904.05	6362.4	
904.21	6362.4	
904.38	6362.4	
904.54	6362.4	
904.71	6362.4	
904.87	6362.4	
905.03	6362.4	
905.2	6362.4	
905.36	6362.4	
905.53	6362.4	
905.69	6362.4	
905.86	6362.4	
906.02	6362.4	
906.18	6362.4	
906.35	6362.4	
906.51	6362.4	
906.68	6362.4	
906.84	6362.4	
907.01	6362.4	
907.17	6362.4	
907.33	6362.4	
907.5	6362.4	
907.66	6362.4	
907.83	6362.4	
907.99	6362.4	
908.15	6362.4	
908.32	6362.4	
908.48	6362.4	
908.65	6362.4	
908.81	6362.4	
908.97	6362.4	
909.14	6362.4	
909.3	6362.4	
909.47	6362.4	
909.63	6362.4	
909.79	6362.4	
909.96	6362.4	
910.12	6362.4	
910.28	6362.4	
910.45	6362.4	
910.61	6362.4	
910.78	6362.4	
910.94	6362.4	
911.1	6362.4	
911.27	6362.4	
911.43	6362.4	
911.59	6362.4	
911.76	6362.4	
911.92	6362.4	
912.08	6362.4	
912.25	6362.4	
912.41	6362.4	
912.57	6362.4	
912.74	6362.4	
912.9	6362.4	
913.07	6362.4	
913.23	6362.4	
913.39	6362.4	
913.56	6362.4	
913.72	6362.4	
913.88	6362.4	
914.05	6362.4	
914.21	6362.4	
914.37	6362.4	
914.54	6362.4	
914.7	6362.4	
914.86	6362.4	
915.03	6362.4	
915.19	6362.4	
