Wavelength	Intensities	
nm	a.u.	
179.22	1659.5	
179.44	1656.8	
179.65	1662.3	
179.86	1651.3	
180.08	1624.7	
180.29	3687	
180.51	2828.9	
180.72	4826.4	
180.94	5288.5	
181.15	2600.9	
181.37	2506	
181.58	4622.9	
181.79	4801.1	
182.01	2716.3	
182.22	2832.3	
182.44	4812	
182.65	4223.6	
182.87	3422.2	
183.08	3061.7	
183.29	5040.7	
183.51	4329.4	
183.72	2810.5	
183.94	3895.2	
184.15	4579.9	
184.37	4482.3	
184.58	2529.9	
184.79	3274.7	
185.01	4314.4	
185.22	4887.8	
185.44	3407.1	
185.65	2997.5	
185.86	4604.5	
186.08	4211.3	
186.29	2539.5	
186.51	2622.8	
186.72	4345.1	
186.94	4928.8	
187.15	2977.7	
187.36	3072	
187.58	6042.2	
187.79	4601.8	
188.01	3124.5	
188.22	4648.2	
188.43	5390.9	
188.65	4784.1	
188.86	2661	
189.08	3097.2	
189.29	4432.5	
189.5	4351.3	
189.72	2843.3	
189.93	2922.5	
190.15	4927.4	
190.36	5628.5	
190.57	3098.6	
190.79	2971.6	
191	4911.7	
191.22	4931.5	
191.43	3115.6	
191.64	2702.6	
191.86	5036.6	
192.07	4929.5	
192.29	2826.2	
192.5	2836.4	
192.71	4969.1	
192.93	4356.7	
193.14	2802.3	
193.35	2936.8	
193.57	4370.4	
193.78	4938.3	
194	2354.5	
194.21	2795.5	
194.42	4227.7	
194.64	4556	
194.85	3029.6	
195.07	3467.2	
195.28	4554	
195.49	4106.2	
195.71	3646.1	
195.92	2702	
196.13	4722.6	
196.35	4706.2	
196.56	3768.9	
196.78	3048.1	
196.99	5670.8	
197.2	5315.8	
197.42	3426.9	
197.63	3121.1	
197.84	4211.3	
198.06	4672.8	
198.27	2846.7	
198.48	3609.2	
198.7	4397	
198.91	4623.6	
199.13	3069.9	
199.34	3045.3	
199.55	4930.1	
199.77	4052.9	
199.98	2742.9	
200.19	3115.6	
200.41	4555.4	
200.62	4290.5	
200.83	3181.2	
201.05	3332.7	
201.26	4542.4	
201.47	4277.5	
201.69	2779.1	
201.9	2715.6	
202.11	4590.9	
202.33	5175.2	
202.54	2897.9	
202.76	3266.5	
202.97	4522.6	
203.18	4701.5	
203.4	3170.3	
203.61	3224.9	
203.82	4552.6	
204.04	4310.3	
204.25	3112.9	
204.46	3009.8	
204.68	4556	
204.89	4764.3	
205.1	3002.3	
205.32	2646.7	
205.53	4812	
205.74	4903.5	
205.96	2412.5	
206.17	3112.2	
206.38	4762.9	
206.6	4933.6	
206.81	3469.3	
207.02	2902.7	
207.24	4782.7	
207.45	4974.5	
207.66	2957.9	
207.88	2617.3	
208.09	4655	
208.3	4576.5	
208.52	2765.4	
208.73	2979.1	
208.94	4553.3	
209.15	5032.5	
209.37	2912.9	
209.58	3029.6	
209.79	4906.3	
210.01	4365.6	
210.22	2465.8	
210.43	2566.8	
210.65	4497.3	
210.86	4795.7	
211.07	2953.2	
211.29	2733.4	
211.5	4679.6	
211.71	4521.2	
211.93	2844.6	
212.14	2731.3	
212.35	4484.4	
212.56	4552.6	
212.78	3117	
212.99	2615.3	
213.2	5199.8	
213.42	4407.9	
213.63	2828.2	
213.84	2930	
214.06	4174.4	
214.27	4228.4	
214.48	2945	
214.69	3158	
214.91	4970.4	
215.12	5078.3	
215.33	3130	
215.55	3348.4	
215.76	5332.9	
215.97	4708.3	
216.18	3023.5	
216.4	2986.6	
216.61	4314.4	
216.82	4791.6	
217.04	2794.1	
217.25	2838.5	
217.46	4962.9	
217.67	4820.9	
217.89	2519	
218.1	2611.8	
218.31	4574.5	
218.53	4677.6	
218.74	2885.6	
218.95	2792.1	
219.16	4500.1	
219.38	5157.5	
219.59	2805	
219.8	3224.9	
220.01	5503.6	
220.23	4522.6	
220.44	3525.9	
220.65	2758.6	
220.87	4629.8	
221.08	4968.4	
221.29	2635.7	
221.5	3306.8	
221.72	5793	
221.93	4314.4	
222.14	3061	
222.35	3588	
222.57	4603.2	
222.78	4831.8	
222.99	2976.4	
223.2	3128.6	
223.42	4693.9	
223.63	4842.8	
223.84	2367.5	
224.05	2377	
224.27	5442.1	
224.48	5139	
224.69	3559.4	
224.9	3135.4	
225.12	4679.6	
225.33	4480.3	
225.54	2622.8	
225.75	2781.8	
225.97	4272.7	
226.18	4502.1	
226.39	2945.7	
226.6	2809.8	
226.82	4416.8	
227.03	4257.7	
227.24	3082.2	
227.45	2622.1	
227.67	4859.8	
227.88	5182	
228.09	3426.3	
228.3	3347.7	
228.52	4816.1	
228.73	4497.3	
228.94	2910.8	
229.15	2658.9	
229.36	4549.9	
229.58	4540.3	
229.79	2969.6	
230	3343.7	
230.21	5335	
230.43	4556.7	
230.64	3072	
230.85	3119.1	
231.06	4906.3	
231.28	4853	
231.49	2609.8	
231.7	3061.7	
231.91	4768.4	
232.12	4506.9	
232.34	2733.4	
232.55	3003	
232.76	4906.9	
232.97	4603.2	
233.18	2749.7	
233.4	3085.6	
233.61	4673.5	
233.82	4351.9	
234.03	2876.7	
234.25	2886.3	
234.46	5896.8	
234.67	4596.3	
234.88	3143.6	
235.09	2874	
235.31	4726.7	
235.52	4475.5	
235.73	3033.7	
235.94	2654.2	
236.15	4345.1	
236.37	5290.6	
236.58	2751.1	
236.79	3009.1	
237	4755.4	
237.21	4171.7	
237.43	3145.7	
237.64	2580.4	
237.85	7238.9	
238.06	4259.8	
238.27	3127.2	
238.48	2655.5	
238.7	4853.7	
238.91	4459.1	
239.12	2957.9	
239.33	3061	
239.54	4287.8	
239.76	4416.1	
239.97	2973	
240.18	2955.9	
240.39	5299.5	
240.6	4678.9	
240.82	3110.2	
241.03	2595.5	
241.24	4508.3	
241.45	5066	
241.66	2717	
241.87	3197.6	
242.09	5110.4	
242.3	5208	
242.51	3266.5	
242.72	2904.7	
242.93	4809.3	
243.14	4547.2	
243.36	3425.6	
243.57	3566.9	
243.78	5125.4	
243.99	4801.1	
244.2	2945.7	
244.41	2708.1	
244.63	4270	
244.84	4695.3	
245.05	3123.8	
245.26	2941.6	
245.47	4833.9	
245.68	4859.8	
245.9	3711.6	
246.11	3110.2	
246.32	4414.7	
246.53	4706.9	
246.74	4546.5	
246.95	2579.8	
247.16	4278.9	
247.38	4554	
247.59	2583.9	
247.8	2973	
248.01	4224.3	
248.22	4528.1	
248.43	2768.2	
248.64	2945.7	
248.86	4201.1	
249.07	4406.5	
249.28	2747.7	
249.49	3038.5	
249.7	4879.6	
249.91	4945.8	
250.12	2601.6	
250.34	2557.2	
250.55	4679.6	
250.76	4577.9	
250.97	3057.6	
251.18	3120.4	
251.39	4975.9	
251.6	4663.9	
251.81	3086.3	
252.03	3077.4	
252.24	4401.8	
252.45	4855.7	
252.66	2658.3	
252.87	3246.7	
253.08	4547.9	
253.29	5660.6	
253.5	2653.5	
253.72	3592.1	
253.93	4504.2	
254.14	5220.3	
254.35	2869.2	
254.56	2890.4	
254.77	4681	
254.98	4306.2	
255.19	2869.9	
255.41	3491.1	
255.62	4675.5	
255.83	4957.4	
256.04	3134.8	
256.25	3081.5	
256.46	5364.3	
256.67	4323.9	
256.88	3037.1	
257.09	3316.3	
257.31	4169.7	
257.52	4298	
257.73	3721.8	
257.94	2856.2	
258.15	4488.5	
258.36	4545.8	
258.57	3411.2	
258.78	2405	
258.99	4889.9	
259.2	4416.8	
259.41	2845.3	
259.63	2966.1	
259.84	5091.3	
260.05	5307.7	
260.26	3561.4	
260.47	2780.5	
260.68	4930.1	
260.89	4493.9	
261.1	3334.8	
261.31	2770.2	
261.52	5048.9	
261.73	5177.9	
261.95	3521.8	
262.16	3150.5	
262.37	4971.1	
262.58	5104.2	
262.79	3526.6	
263	2899.2	
263.21	4591.5	
263.42	4151.2	
263.63	3097.2	
263.84	2928.6	
264.05	4868.7	
264.26	5106.3	
264.47	3439.9	
264.69	3152.5	
264.9	5102.2	
265.11	4678.2	
265.32	2787.3	
265.53	2811.9	
265.74	4655	
265.95	4095.9	
266.16	2990.7	
266.37	3276.8	
266.58	4604.5	
266.79	4407.2	
267	2850.1	
267.21	2665.8	
267.42	4250.2	
267.63	4521.9	
267.84	2981.8	
268.06	2626.9	
268.27	4882.4	
268.48	4980	
268.69	2945.7	
268.9	3364.1	
269.11	5008	
269.32	4151.9	
269.53	2992.8	
269.74	2740.9	
269.95	4678.2	
270.16	4121.9	
270.37	2964.8	
270.58	3407.8	
270.79	4483	
271	4896	
271.21	3147	
271.42	2970.2	
271.63	4679.6	
271.84	4222.2	
272.05	2491.7	
272.26	2744.3	
272.47	4556.7	
272.68	4635.2	
272.89	2881.5	
273.11	3207.8	
273.32	4343.7	
273.53	5103.5	
273.74	3135.4	
273.95	3096.5	
274.16	4856.4	
274.37	4564.2	
274.58	3311.6	
274.79	2683.5	
275	4657.8	
275.21	4977.2	
275.42	3810.6	
275.63	3243.3	
275.84	4780	
276.05	5634	
276.26	3103.4	
276.47	2904	
276.68	4487.1	
276.89	5210	
277.1	3294.5	
277.31	2669.2	
277.52	4723.3	
277.73	4971.1	
277.94	2605	
278.15	2890.4	
278.36	4702.1	
278.57	4395.6	
278.78	2899.9	
278.99	3177.1	
279.2	4407.2	
279.41	4238.6	
279.62	3622.9	
279.83	2740.9	
280.04	5345.9	
280.25	4237.2	
280.46	3637.9	
280.67	2964.1	
280.88	4346.5	
281.09	4924	
281.3	3138.9	
281.51	3739.6	
281.72	4354.7	
281.93	4866	
282.14	2824.1	
282.35	3067.2	
282.56	4931.5	
282.77	4846.9	
282.98	2942.2	
283.19	3433.1	
283.4	5761.6	
283.61	4462.5	
283.82	2738.1	
284.03	3513.6	
284.24	4682.3	
284.45	4855.1	
284.66	3639.2	
284.87	3401.7	
285.08	5042.1	
285.29	5060.5	
285.5	2626.9	
285.71	2921.8	
285.92	4891.9	
286.12	5342.5	
286.33	3592.1	
286.54	2953.9	
286.75	4858.5	
286.96	4483.7	
287.17	2735.4	
287.38	3416	
287.59	4357.4	
287.8	4415.4	
288.01	2951.8	
288.22	3254.9	
288.43	4769.7	
288.64	4184	
288.85	3382.6	
289.06	3252.2	
289.27	4857.8	
289.48	5134.3	
289.69	3571.7	
289.9	3289.7	
290.11	5009.3	
290.32	4381.3	
290.53	3418.7	
290.74	3132	
290.94	4826.4	
291.15	4900.8	
291.36	2809.8	
291.57	3263.1	
291.78	4443.4	
291.99	4155.3	
292.2	2765.4	
292.41	3131.3	
292.62	4926.7	
292.83	4763.6	
293.04	3812	
293.25	2768.9	
293.46	4478.2	
293.67	4945.8	
293.88	2798.2	
294.09	2745.6	
294.29	4263.9	
294.5	4662.5	
294.71	3027.6	
294.92	2885.6	
295.13	4425	
295.34	5328.8	
295.55	2556.5	
295.76	2575.7	
295.97	4859.1	
296.18	5287.9	
296.39	2689.7	
296.6	2800.9	
296.81	4642.1	
297.01	4889.9	
297.22	2973	
297.43	2835.1	
297.64	4401.1	
297.85	4257	
298.06	2441.9	
298.27	2599.6	
298.48	4504.8	
298.69	4322.6	
298.9	3048.1	
299.11	2732	
299.31	4270.7	
299.52	4268.6	
299.73	3194.8	
299.94	3143.6	
300.15	4599.1	
300.36	4349.2	
300.57	3138.2	
300.78	3145.7	
300.99	4444.8	
301.2	4648.2	
301.4	2853.5	
301.61	3005.7	
301.82	4760.2	
302.03	4858.5	
302.24	3296.5	
302.45	2716.3	
302.66	4770.4	
302.87	4963.6	
303.08	2809.8	
303.29	3650.2	
303.49	4416.8	
303.7	4457.7	
303.91	2575.7	
304.12	3532.7	
304.33	4141	
304.54	4639.3	
304.75	2805.7	
304.96	2740.9	
305.16	4760.2	
305.37	5268.7	
305.58	2570.2	
305.79	2585.9	
306	4787.5	
306.21	4159.4	
306.42	2833	
306.63	4011.3	
306.83	4493.9	
307.04	4863.2	
307.25	3038.5	
307.46	3020.1	
307.67	4064.5	
307.88	4719.9	
308.09	2862.4	
308.29	2846	
308.5	4619.5	
308.71	4832.5	
308.92	2959.3	
309.13	2697.2	
309.34	4601.8	
309.55	4474.8	
309.75	3439.2	
309.96	3121.1	
310.17	4823.6	
310.38	4348.5	
310.59	3178.4	
310.8	3120.4	
311.01	4612.7	
311.21	4512.4	
311.42	2769.5	
311.63	2820.1	
311.84	4394.3	
312.05	4567.7	
312.26	3107.5	
312.46	3329.3	
312.67	4405.9	
312.88	4183.3	
313.09	2731.3	
313.3	2714.2	
313.51	5083.1	
313.71	5299.5	
313.92	2736.8	
314.13	2888.3	
314.34	4737	
314.55	4516.5	
314.76	3364.1	
314.96	2994.1	
315.17	4683.7	
315.38	4675.5	
315.59	2749.1	
315.8	2683.5	
316.01	5059.8	
316.21	5180	
316.42	2703.3	
316.63	3001.6	
316.84	4429.8	
317.05	4911.7	
317.26	3173.7	
317.46	2878.8	
317.67	4503.5	
317.88	4780.6	
318.09	3375.7	
318.3	2639.1	
318.5	4432.5	
318.71	4744.5	
318.92	4093.9	
319.13	3186	
319.34	4844.1	
319.54	4976.6	
319.75	2596.8	
319.96	2516.3	
320.17	4756.7	
320.38	4922.6	
320.58	2523.1	
320.79	2992.8	
321	4890.5	
321.21	5011.4	
321.42	3020.1	
321.62	2542.2	
321.83	4325.3	
322.04	4567	
322.25	2910.8	
322.46	2757.9	
322.66	4607.9	
322.87	4826.4	
323.08	3284.3	
323.29	2686.9	
323.5	5244.8	
323.7	4274.8	
323.91	3579.8	
324.12	3238.5	
324.33	4650.9	
324.53	4789.5	
324.74	3127.2	
324.95	3235.1	
325.16	4202.4	
325.37	4408.6	
325.57	2731.3	
325.78	2865.8	
325.99	4677.6	
326.2	4200.4	
326.4	3809.9	
326.61	2614.6	
326.82	4498	
327.03	4571.1	
327.24	3731.4	
327.44	3459	
327.65	4715.8	
327.86	4002.4	
328.07	3153.2	
328.27	2667.1	
328.48	5016.2	
328.69	4182	
328.9	3752.6	
329.1	2861.7	
329.31	4514.4	
329.52	5063.3	
329.73	2808.4	
329.93	2936.1	
330.14	4622.3	
330.35	4650.9	
330.56	4214	
330.76	3278.1	
330.97	4420.9	
331.18	4584.7	
331.39	3028.9	
331.59	2504	
331.8	4954	
332.01	5002.5	
332.22	2837.8	
332.42	3137.5	
332.63	4622.9	
332.84	4330.8	
333.05	3034.4	
333.25	2796.8	
333.46	4319.8	
333.67	4562.9	
333.88	2850.8	
334.08	3076.7	
334.29	5681.1	
334.5	4913.8	
334.7	2729.9	
334.91	3727.3	
335.12	4212	
335.33	4797.7	
335.53	3064.4	
335.74	4112.3	
335.95	4478.9	
336.16	4225	
336.36	2988.7	
336.57	3364.8	
336.78	4183.3	
336.98	4929.5	
337.19	3606.5	
337.4	2889.7	
337.61	5325.4	
337.81	4238.6	
338.02	2833.7	
338.23	3418.1	
338.43	5052.3	
338.64	4315.1	
338.85	2764.1	
339.05	3507.5	
339.26	5092.6	
339.47	4197.7	
339.68	2722.4	
339.88	3831.1	
340.09	4796.3	
340.3	4874.2	
340.5	3127.9	
340.71	2534.7	
340.92	4248.2	
341.13	4995.7	
341.33	2669.2	
341.54	3140.9	
341.75	4723.3	
341.95	4430.4	
342.16	3028.3	
342.37	3261.7	
342.57	4240.7	
342.78	4521.9	
342.99	3310.2	
343.19	2565.4	
343.4	4872.8	
343.61	4710.3	
343.81	2953.9	
344.02	2683.5	
344.23	4781.3	
344.43	5017.5	
344.64	3377.8	
344.85	3265.8	
345.06	4743.1	
345.26	4914.4	
345.47	3158.7	
345.68	3573	
345.88	4216.8	
346.09	4816.1	
346.3	3172.3	
346.5	2424.1	
346.71	4482.3	
346.92	4384	
347.12	2693.8	
347.33	3127.9	
347.54	4876.9	
347.74	5208	
347.95	3139.5	
348.16	2473.3	
348.36	4401.1	
348.57	4279.6	
348.78	3189.4	
348.98	3286.3	
349.19	4547.9	
349.39	4163.5	
349.6	2628.9	
349.81	2871.9	
350.01	4843.4	
350.22	4307.6	
350.43	3071.3	
350.63	3531.4	
350.84	4538.3	
351.05	4298	
351.25	2798.9	
351.46	2608.4	
351.67	4891.9	
351.87	4365.6	
352.08	2970.2	
352.29	3238.5	
352.49	4874.2	
352.7	4640	
352.9	2725.8	
353.11	3237.8	
353.32	5285.1	
353.52	4433.2	
353.73	2729.9	
353.94	3382.6	
354.14	4777.9	
354.35	4632.5	
354.55	2849.4	
354.76	3016	
354.97	4748.6	
355.17	4522.6	
355.38	2737.5	
355.59	3508.9	
355.79	4323.9	
356	4530.1	
356.2	3020.1	
356.41	2733.4	
356.62	4261.1	
356.82	4502.8	
357.03	3252.9	
357.24	2942.9	
357.44	4327.4	
357.65	4413.4	
357.85	3712.3	
358.06	3130	
358.27	4210.6	
358.47	4317.8	
358.68	2723.1	
358.88	3226.9	
359.09	4780.6	
359.3	4956.1	
359.5	3676.8	
359.71	3323.9	
359.91	5182.7	
360.12	4777.9	
360.33	3288.4	
360.53	3543.7	
360.74	4480.3	
360.94	4429.8	
361.15	3393.5	
361.36	2930	
361.56	4922.6	
361.77	4624.3	
361.97	3654.9	
362.18	3099.9	
362.38	4967.7	
362.59	4328	
362.8	2897.9	
363	2858.3	
363.21	4212.7	
363.41	4622.9	
363.62	3154.6	
363.83	3793.5	
364.03	4850.3	
364.24	5205.3	
364.44	3962.8	
364.65	3894.6	
364.85	4573.8	
365.06	4401.1	
365.27	2968.9	
365.47	3050.8	
365.68	5201.8	
365.88	4573.1	
366.09	3279.5	
366.29	3038.5	
366.5	4677.6	
366.71	4982.7	
366.91	3875.4	
367.12	3358	
367.32	5395	
367.53	4864.6	
367.73	3399.6	
367.94	3984.7	
368.14	4930.1	
368.35	5301.5	
368.56	3338.9	
368.76	3155.2	
368.97	5026.4	
369.17	5916.6	
369.38	2962	
369.58	3164.1	
369.79	4356	
369.99	5190.9	
370.2	3871.3	
370.4	3264.5	
370.61	4769.7	
370.82	5567.1	
371.02	3212.6	
371.23	2822.8	
371.43	4318.5	
371.64	5216.2	
371.84	3269.2	
372.05	3932.1	
372.25	5912.5	
372.46	4889.9	
372.66	3237.2	
372.87	3212.6	
373.07	4929.5	
373.28	6063.4	
373.48	3848.1	
373.69	3620.8	
373.9	4705.5	
374.1	4686.4	
374.31	3865.2	
374.51	3522.5	
374.72	5178.6	
374.92	4554	
375.13	3924.6	
375.33	3440.6	
375.54	4896.7	
375.74	4676.2	
375.95	3583.3	
376.15	4270	
376.36	5025	
376.56	4883	
376.77	3560.7	
376.97	3863.2	
377.18	5685.8	
377.38	5081	
377.59	3986.7	
377.79	3303.4	
378	4904.9	
378.2	5148.6	
378.41	3292.5	
378.61	3242.6	
378.82	5238.7	
379.02	4745.8	
379.23	3394.2	
379.43	4039.3	
379.64	5329.5	
379.84	5027.8	
380.05	3305.4	
380.25	3247.4	
380.46	5083.7	
380.66	4788.2	
380.87	4143.7	
381.07	4315.1	
381.28	5479	
381.48	5111.7	
381.69	3306.1	
381.89	3364.8	
382.1	4464.6	
382.3	5143.8	
382.51	4001	
382.71	4521.9	
382.91	4980	
383.12	5375.9	
383.32	3530	
383.53	3614	
383.73	4948.6	
383.94	4864.6	
384.14	3641.3	
384.35	3122.5	
384.55	4695.3	
384.76	4984.1	
384.96	3593.5	
385.17	3757.3	
385.37	5040.7	
385.58	4554	
385.78	3694.5	
385.98	3064.4	
386.19	4728.8	
386.39	5007.3	
386.6	3350.5	
386.8	3500	
387.01	5049.6	
387.21	5153.4	
387.42	3753.2	
387.62	4126.7	
387.83	4716.5	
388.03	4857.1	
388.23	3622.2	
388.44	4041.3	
388.64	4528.1	
388.85	4545.8	
389.05	3821.5	
389.26	4103.4	
389.46	5873.6	
389.67	5454.4	
389.87	3841.3	
390.07	3804.4	
390.28	4795	
390.48	4576.5	
390.69	3287	
390.89	3536.8	
391.1	4807.9	
391.3	5287.2	
391.5	4294.6	
391.71	4629.8	
391.91	5194.3	
392.12	5707	
392.32	4333.5	
392.53	3864.5	
392.73	4851.6	
392.93	4862.6	
393.14	3560.1	
393.34	4064.5	
393.55	5147.2	
393.75	4818.2	
393.95	3606.5	
394.16	3513.6	
394.36	4861.9	
394.57	5130.2	
394.77	3308.8	
394.98	3504.8	
395.18	4777.9	
395.38	4868.7	
395.59	4110.3	
395.79	3435.8	
396	4909	
396.2	5237.3	
396.4	3966.9	
396.61	3894.6	
396.81	5171.8	
397.02	4789.5	
397.22	4098.7	
397.42	4154.6	
397.63	5335	
397.83	4868.7	
398.04	3444	
398.24	3837.2	
398.44	5102.2	
398.65	4536.9	
398.85	3338.2	
399.05	3414	
399.26	4831.8	
399.46	5820.3	
399.67	3678.8	
399.87	3496.6	
400.07	5030.5	
400.28	5270.8	
400.48	3620.1	
400.69	4270.7	
400.89	5292	
401.09	5728.2	
401.3	3506.1	
401.5	4186	
401.7	5784.8	
401.91	5898.8	
402.11	3820.1	
402.32	3897.3	
402.52	5449.6	
402.72	5330.2	
402.93	4007.2	
403.13	3297.2	
403.33	5848.3	
403.54	4974.5	
403.74	3673.4	
403.94	4282.3	
404.15	5029.8	
404.35	5779.4	
404.56	3599	
404.76	4801.8	
404.96	5360.9	
405.17	5194.3	
405.37	4173.8	
405.57	4033.1	
405.78	5404.6	
405.98	4991.6	
406.18	3666.5	
406.39	4243.4	
406.59	5397.8	
406.79	4984.8	
407	3487	
407.2	3604.4	
407.4	5574.6	
407.61	5533.6	
407.81	3608.5	
408.01	4932.9	
408.22	4711	
408.42	5973.2	
408.62	4373.1	
408.83	4098.7	
409.03	5216.9	
409.23	5223.7	
409.44	4108.2	
409.64	4232.5	
409.84	5902.9	
410.05	5803.3	
410.25	4223.6	
410.45	4119.1	
410.66	5532.9	
410.86	7081.2	
411.06	4394.3	
411.27	4330.1	
411.47	6993.8	
411.67	5631.9	
411.88	4429.1	
412.08	4597	
412.28	6049	
412.49	6323.4	
412.69	4275.5	
412.89	4304.8	
413.09	6225.8	
413.3	6175.3	
413.5	4413.4	
413.7	4279.6	
413.91	5732.3	
414.11	6267.5	
414.31	4343.7	
414.52	4595.6	
414.72	6026.5	
414.92	5950.7	
415.12	4368.3	
415.33	4653	
415.53	6210.1	
415.73	6299.6	
415.94	4900.1	
416.14	4465.3	
416.34	5730.9	
416.55	5494	
416.75	5269.4	
416.95	4906.3	
417.15	6349.4	
417.36	6718	
417.56	5472.9	
417.76	4803.9	
417.97	6502.3	
418.17	6315.3	
418.37	4618.2	
418.57	4614.1	
418.78	6229.9	
418.98	6019	
419.18	5170.4	
419.38	5155.4	
419.59	5983.5	
419.79	5748.6	
419.99	4441.4	
420.2	4704.2	
420.4	6291.4	
420.6	6336.4	
420.8	4387.4	
421.01	4411.3	
421.21	6236.7	
421.41	6170.5	
421.61	4672.1	
421.82	4533.5	
422.02	5881.1	
422.22	6481.8	
422.42	5020.3	
422.63	4711.7	
422.83	5935.7	
423.03	6724.2	
423.23	4761.5	
423.44	4091.8	
423.64	5911.8	
423.84	5740.5	
424.04	4389.5	
424.25	4200.4	
424.45	6524.8	
424.65	6424.5	
424.85	4128.7	
425.06	4418.8	
425.26	6685.9	
425.46	5857.2	
425.66	4752	
425.87	4557.4	
426.07	6315.9	
426.27	6173.9	
426.47	4609.3	
426.67	4201.7	
426.88	6558.3	
427.08	6170.5	
427.28	4808.6	
427.48	4215.4	
427.69	5539.8	
427.89	5848.3	
428.09	4736.3	
428.29	4216.1	
428.5	6303.6	
428.7	6045.6	
428.9	4160.8	
429.1	4414.7	
429.3	6016.9	
429.51	6168.5	
429.71	4371.7	
429.91	4896	
430.11	6339.1	
430.31	6582.9	
430.52	4503.5	
430.72	4685.1	
430.92	6591	
431.12	6265.4	
431.32	4321.2	
431.53	4554	
431.73	5555.5	
431.93	6592.4	
432.13	4272.1	
432.33	4244.8	
432.54	5898.8	
432.74	6087.2	
432.94	4186.7	
433.14	4829.1	
433.34	6382.2	
433.55	5964.4	
433.75	4803.2	
433.95	5881.1	
434.15	6134.3	
434.35	5909.8	
434.56	4346.5	
434.76	4057.7	
434.96	6074.3	
435.16	6189.6	
435.36	4186	
435.56	5012.1	
435.77	5849.7	
435.97	6012.8	
436.17	5399.1	
436.37	4870.1	
436.57	5760.3	
436.78	5871.5	
436.98	6074.3	
437.18	5305.6	
437.38	6205.3	
437.58	5924.8	
437.78	5361.6	
437.99	4498	
438.19	6274.3	
438.39	7145.4	
438.59	4487.1	
438.79	4075.5	
438.99	6672.3	
439.2	5881.1	
439.4	4104.1	
439.6	4218.8	
439.8	6093.4	
440	6887.3	
440.2	4925.4	
440.4	4974.5	
440.61	6495.5	
440.81	6714.6	
441.01	4419.5	
441.21	5040.7	
441.41	6790.4	
441.61	6510.5	
441.81	5111	
442.02	5757.5	
442.22	7019.1	
442.42	6609.5	
442.62	4475.5	
442.82	4471.4	
443.02	6787	
443.22	6190.3	
443.43	4729.4	
443.63	4437.9	
443.83	6066.1	
444.03	6064.7	
444.23	5292.6	
444.43	5033.2	
444.63	6395.1	
444.83	7015.7	
445.04	4692.6	
445.24	5350.7	
445.44	6436.8	
445.64	6554.2	
445.84	5027.8	
446.04	5042.1	
446.24	6030.6	
446.44	6791.1	
446.65	4467.3	
446.85	4704.9	
447.05	6073.6	
447.25	6656.6	
447.45	4801.8	
447.65	4356	
447.85	6316.6	
448.05	5948.7	
448.25	5059.2	
448.46	4870.1	
448.66	6314.6	
448.86	6016.2	
449.06	4339	
449.26	5037.3	
449.46	6492.7	
449.66	5899.5	
449.86	4791.6	
450.06	4683.7	
450.26	5971.9	
450.47	6409.5	
450.67	4930.1	
450.87	5098.1	
451.07	6598.6	
451.27	6275	
451.47	4476.9	
451.67	5026.4	
451.87	6135.7	
452.07	6830.7	
452.27	4591.5	
452.47	4552	
452.67	6327.5	
452.88	6546.7	
453.08	4171.7	
453.28	5436.7	
453.48	7077.1	
453.68	6231.3	
453.88	4500.1	
454.08	4624.3	
454.28	6552.8	
454.48	6231.3	
454.68	5040.7	
454.88	5317.2	
455.08	6634.1	
455.28	6440.9	
455.48	4514.4	
455.68	4967.7	
455.89	6996.5	
456.09	6632.7	
456.29	4705.5	
456.49	4842.1	
456.69	6851.1	
456.89	6354.8	
457.09	5081	
457.29	5348.6	
457.49	6567.8	
457.69	6638.1	
457.89	5057.8	
458.09	4656.4	
458.29	6439.5	
458.49	6993.1	
458.69	5257.1	
458.89	4852.3	
459.09	7088	
459.29	7102.4	
459.49	4958.1	
459.69	5505.6	
459.9	6726.2	
460.1	6412.2	
460.3	4835.3	
460.5	4706.2	
460.7	6706.4	
460.9	6376	
461.1	4559.5	
461.3	5333.6	
461.5	7230	
461.7	6962.4	
461.9	4873.5	
462.1	5138.4	
462.3	6634.7	
462.5	7008.1	
462.7	4881.7	
462.9	5002.5	
463.1	7665.5	
463.3	7462.1	
463.5	5097.4	
463.7	5784.8	
463.9	6805.4	
464.1	7060	
464.3	5231.9	
464.5	5476.3	
464.7	7231.4	
464.9	6934.4	
465.1	6168.5	
465.3	5632.6	
465.5	7407.5	
465.7	7400	
465.9	5784.8	
466.1	5520.6	
466.3	7273.7	
466.5	7225.9	
466.7	6218.3	
466.9	5480.4	
467.1	7240.3	
467.3	7722.2	
467.5	6248.4	
467.7	5406.6	
467.9	7976.8	
468.1	8411	
468.3	5901.6	
468.5	6280.4	
468.7	7172	
468.9	7010.9	
469.1	5645.6	
469.3	6100.9	
469.5	8504.5	
469.7	6861.4	
469.9	6040.8	
470.1	5511.8	
470.3	7275.1	
470.5	7232.1	
470.7	6348	
470.9	5516.5	
471.1	6989.7	
471.3	7304.4	
471.5	5425.8	
471.69	6559.6	
471.89	7055.3	
472.09	6605.4	
472.29	5972.6	
472.49	6136.4	
472.69	6712.6	
472.89	7271.7	
473.09	5328.8	
473.29	5380	
473.49	6869.6	
473.69	6926.2	
473.89	5892	
474.09	5510.4	
474.29	7776.8	
474.49	7449.1	
474.69	5984.2	
474.89	5538.4	
475.09	6987.7	
475.29	6911.2	
475.49	5201.2	
475.69	5345.2	
475.88	7990.5	
476.08	7135.1	
476.28	5091.9	
476.48	5337	
476.68	7541.3	
476.88	7250.5	
477.08	5361.6	
477.28	5421	
477.48	7006.1	
477.68	7324.2	
477.88	5224.4	
478.08	5378	
478.28	7585	
478.48	7081.2	
478.67	5512.4	
478.87	5003.9	
479.07	7415	
479.27	7112.6	
479.47	5578.7	
479.67	5623.7	
479.87	7273	
480.07	7646.4	
480.27	5145.9	
480.47	6139.8	
480.67	7060.7	
480.87	7535.2	
481.06	5306.3	
481.26	5849	
481.46	7154.2	
481.66	7051.8	
481.86	5670.8	
482.06	6192.4	
482.26	6917.4	
482.46	7463.5	
482.66	5438	
482.86	5142.4	
483.05	7260.7	
483.25	6746.7	
483.45	7162.4	
483.65	5536.3	
483.85	6773.3	
484.05	7060.7	
484.25	5810.8	
484.45	6114.6	
484.65	7503.8	
484.84	7593.2	
485.04	5483.1	
485.24	5511.1	
485.44	7864.9	
485.64	6660.7	
485.84	5047.6	
486.04	5862	
486.24	6950.8	
486.44	7110.5	
486.63	5033.2	
486.83	5623.7	
487.03	6956.9	
487.23	7073	
487.43	5079.6	
487.63	6526.9	
487.83	7073.7	
488.02	7591.8	
488.22	5767.1	
488.42	6108.4	
488.62	7694.9	
488.82	6858.6	
489.02	5525.4	
489.22	5537.7	
489.41	7451.9	
489.61	7396.6	
489.81	5406	
490.01	5426.4	
490.21	7559.7	
490.41	7984.3	
490.61	5352.7	
490.8	5435.3	
491	7223.2	
491.2	6769.9	
491.4	5737	
491.6	5255.8	
491.8	7221.1	
491.99	7080.5	
492.19	5097.4	
492.39	5254.4	
492.59	7465.5	
492.79	7508.5	
492.99	5909.8	
493.18	5393	
493.38	7688.8	
493.58	8141.4	
493.78	5958.2	
493.98	5542.5	
494.18	7389.8	
494.37	7093.5	
494.57	6033.3	
494.77	5849.7	
494.97	7569.3	
495.17	7768.6	
495.37	5670.8	
495.56	5940.5	
495.76	7920.2	
495.96	7711.3	
496.16	6513.2	
496.36	5817.6	
496.55	7805.5	
496.75	7407.5	
496.95	6017.6	
497.15	5955.5	
497.35	7796.6	
497.54	7680.6	
497.74	5859.2	
497.94	6989	
498.14	8340.7	
498.34	8088.8	
498.53	5667.4	
498.73	6175.3	
498.93	7355.6	
499.13	7776.1	
499.33	6135	
499.52	6247.7	
499.72	7851.2	
499.92	7948.2	
500.12	5814.2	
500.32	6082.5	
500.51	7913.4	
500.71	7697.6	
500.91	6528.9	
501.11	6219	
501.31	7873.1	
501.5	8185.7	
501.7	6750.1	
501.9	6063.4	
502.1	7728.4	
502.29	8002.1	
502.49	6357.6	
502.69	6562.4	
502.89	7892.2	
503.09	7795.9	
503.28	5686.5	
503.48	5726.1	
503.68	7503.1	
503.88	7307.2	
504.07	6342.6	
504.27	6054.5	
504.47	7567.9	
504.67	7678.5	
504.86	6292	
505.06	6032	
505.26	7426.6	
505.46	8459.5	
505.65	5964.4	
505.85	6085.9	
506.05	7355.6	
506.25	7713.3	
506.44	5584.8	
506.64	6128.9	
506.84	7228.6	
507.04	7758.4	
507.23	5668.1	
507.43	5992.4	
507.63	8461.5	
507.83	7327.6	
508.02	5977.3	
508.22	5788.2	
508.42	8629.5	
508.62	7200	
508.81	5829.9	
509.01	6328.9	
509.21	7079.8	
509.4	7260.7	
509.6	5980.8	
509.8	5634	
510	7320.1	
510.19	8075.1	
510.39	5580.7	
510.59	5666.7	
510.79	7240.9	
510.98	8048.5	
511.18	5812.8	
511.38	5776	
511.57	7745.4	
511.77	7561.8	
511.97	6117.3	
512.17	5575.9	
512.36	7730.4	
512.56	7559.7	
512.76	5533.6	
512.95	5403.9	
513.15	7832.1	
513.35	6851.8	
513.55	6164.4	
513.74	5580	
513.94	7747.5	
514.14	7244.3	
514.33	6257.2	
514.53	6040.8	
514.73	7369.3	
514.92	7408.2	
515.12	5621.7	
515.32	5569.1	
515.51	7471	
515.71	7676.5	
515.91	6701	
516.11	5559.6	
516.3	8575.5	
516.5	7309.2	
516.7	5952.1	
516.89	6346	
517.09	7258.7	
517.29	7228	
517.48	6277.7	
517.68	5760.9	
517.88	7022.5	
518.07	7563.1	
518.27	6119.3	
518.47	5428.5	
518.66	7875.1	
518.86	7061.4	
519.06	5372.5	
519.25	5687.2	
519.45	7239.6	
519.65	8155	
519.84	6078.4	
520.04	6595.8	
520.24	8471.8	
520.43	7646.4	
520.63	5920	
520.83	5743.9	
521.02	7118.1	
521.22	7415	
521.42	5999.9	
521.61	6477.7	
521.81	7295.5	
522.01	7453.9	
522.2	5943.9	
522.4	5845.6	
522.6	7731.1	
522.79	6852.5	
522.99	5831.2	
523.18	5420.3	
523.38	7620.5	
523.58	7454.6	
523.77	6707.8	
523.97	5489.9	
524.17	8755.1	
524.36	8205.5	
524.56	6416.3	
524.76	6186.2	
524.95	7578.8	
525.15	7311.2	
525.34	6028.5	
525.54	6007.4	
525.74	7847.1	
525.93	7167.9	
526.13	6832	
526.33	5953.4	
526.52	8032.1	
526.72	7715.4	
526.91	6698.2	
527.11	6392.4	
527.31	8056	
527.5	8233.5	
527.7	6285.2	
527.89	5610.8	
528.09	7382.9	
528.29	7752.2	
528.48	6610.8	
528.68	6283.9	
528.87	8001.4	
529.07	7934.5	
529.27	6234.7	
529.46	5950	
529.66	7755.7	
529.85	8065.6	
530.05	5805.3	
530.25	6309.8	
530.44	8634.2	
530.64	7531.1	
530.83	6141.2	
531.03	6197.8	
531.23	8100.4	
531.42	7897	
531.62	6704.4	
531.81	6214.9	
532.01	8174.1	
532.21	8326.4	
532.4	6165.8	
532.6	6293.4	
532.79	8748.2	
532.99	8110	
533.18	6485.2	
533.38	6980.8	
533.58	7869.7	
533.77	8217.1	
533.97	6260.6	
534.16	6804.7	
534.36	8545.5	
534.55	7825.3	
534.75	7023.2	
534.95	6418.3	
535.14	8498.4	
535.34	7838.3	
535.53	6124.8	
535.73	7382.9	
535.92	8773.5	
536.12	7881.3	
536.31	6178	
536.51	6924.9	
536.71	8191.9	
536.9	7866.2	
537.1	6287.9	
537.29	6443.6	
537.49	8415.1	
537.68	7750.9	
537.88	6580.8	
538.07	6127.5	
538.27	7969.3	
538.46	8584.4	
538.66	6028.5	
538.86	6322.1	
539.05	8015.1	
539.25	8352.3	
539.44	6668.9	
539.64	6287.9	
539.83	7894.9	
540.03	8557.1	
540.22	6238.1	
540.42	6207.4	
540.61	8114.1	
540.81	8136.6	
541	6475.7	
541.2	6925.5	
541.39	7694.9	
541.59	7926.3	
541.78	6746.7	
541.98	6203.3	
542.18	7419.1	
542.37	7494.2	
542.57	6419	
542.76	6610.2	
542.96	7543.4	
543.15	7885.4	
543.35	6380.1	
543.54	5929.6	
543.74	7948.2	
543.93	7758.4	
544.13	6261.3	
544.32	6982.2	
544.52	8062.2	
544.71	7543.4	
544.91	5768.4	
545.1	6440.9	
545.3	7588.4	
545.49	7903.1	
545.69	5692	
545.88	6035.4	
546.08	8633.6	
546.27	8168	
546.47	6341.2	
546.66	5922.7	
546.86	8094.9	
547.05	8484.1	
547.24	6061.3	
547.44	6008.1	
547.63	7411.6	
547.83	8083.3	
548.02	6184.2	
548.22	6361.7	
548.41	7240.9	
548.61	8083.3	
548.8	5914.5	
549	5930.2	
549.19	7756.3	
549.39	7956.4	
549.58	5729.5	
549.78	6106.4	
549.97	7886.7	
550.17	7618.4	
550.36	6662.7	
550.55	7244.3	
550.75	7572.7	
550.94	8203.5	
551.14	5814.9	
551.33	6086.6	
551.53	7174	
551.72	7663.5	
551.92	6179.4	
552.11	5926.1	
552.31	7888.8	
552.5	7650.5	
552.69	7008.1	
552.89	5697.4	
553.08	7839.6	
553.28	7578.8	
553.47	5986.2	
553.67	6644.3	
553.86	8202.8	
554.06	7078.5	
554.25	5423.7	
554.44	5846.3	
554.64	8698.4	
554.83	8309.3	
555.03	5803.9	
555.22	6004	
555.42	7906.5	
555.61	7710.6	
555.8	5885.9	
556	6109.8	
556.19	7221.8	
556.39	7920.2	
556.58	5829.9	
556.78	5948.7	
556.97	7628.7	
557.16	7390.4	
557.36	6706.4	
557.55	5662.6	
557.75	6967.2	
557.94	8163.2	
558.13	5659.9	
558.33	5535	
558.52	8056.7	
558.72	7105.8	
558.91	5631.2	
559.1	5739.8	
559.3	7037.5	
559.49	6830	
559.69	5604.6	
559.88	6016.9	
560.07	7610.3	
560.27	7881.9	
560.46	6122.7	
560.66	6176	
560.85	7529	
561.04	6879.1	
561.24	5580.7	
561.43	5717.2	
561.63	7019.8	
561.82	7263.5	
562.01	6544.6	
562.21	5896.8	
562.4	7467.6	
562.59	8131.8	
562.79	5784.8	
562.98	5635.3	
563.18	7455.3	
563.37	8436.3	
563.56	6199.2	
563.76	5617.6	
563.95	7146	
564.14	7098.3	
564.34	5842.2	
564.53	5692	
564.73	7479.2	
564.92	7510.6	
565.11	5920.7	
565.31	5509	
565.5	7834.8	
565.69	7096.2	
565.89	5720.7	
566.08	5877	
566.27	7726.3	
566.47	7946.1	
566.66	6349.4	
566.85	5430.5	
567.05	7563.8	
567.24	7232.1	
567.44	5600.5	
567.63	6438.1	
567.82	7659.4	
568.02	7419.8	
568.21	5613.5	
568.4	5803.3	
568.6	7392.5	
568.79	7331.7	
568.98	5603.9	
569.18	5569.8	
569.37	7365.2	
569.56	8647.2	
569.76	5826.5	
569.95	6417.7	
570.14	7604.1	
570.34	7419.8	
570.53	5565	
570.72	5480.4	
570.91	7837.6	
571.11	7331.7	
571.3	5823.7	
571.49	6453.1	
571.69	7366.5	
571.88	6989.7	
572.07	6184.2	
572.27	6154.8	
572.46	7045	
572.65	7671	
572.85	5676.3	
573.04	5875.6	
573.23	7898.3	
573.43	7469.6	
573.62	5501.5	
573.81	5954.1	
574	7514.7	
574.2	7329.7	
574.39	5770.5	
574.58	5882.4	
574.78	8006.2	
574.97	7470.3	
575.16	6141.9	
575.36	6224.5	
575.55	7831.4	
575.74	7813.7	
575.93	5483.1	
576.13	6160.3	
576.32	7377.5	
576.51	7671.7	
576.71	5854.5	
576.9	6642.2	
577.09	7961.1	
577.28	7611.6	
577.48	6011.5	
577.67	5459.2	
577.86	7425.3	
578.05	7559.7	
578.25	5857.9	
578.44	5850.4	
578.63	7499.7	
578.83	8247.2	
579.02	5515.2	
579.21	6480.5	
579.4	7619.8	
579.6	7462.1	
579.79	5988.9	
579.98	7360.4	
580.17	7737.2	
580.37	7908.6	
580.56	5589.6	
580.75	6159.6	
580.94	8047.8	
581.14	8151.6	
581.33	6433.4	
581.52	5773.9	
581.71	7669	
581.91	8161.2	
582.1	5598.5	
582.29	5976	
582.48	7479.2	
582.68	7499.7	
582.87	6286.6	
583.06	6012.8	
583.25	7804.8	
583.45	7613.7	
583.64	6389	
583.83	6920.1	
584.02	7575.4	
584.21	7679.9	
584.41	6466.1	
584.6	6004	
584.79	7544.7	
584.98	7912	
585.18	5649.7	
585.37	5577.3	
585.56	7288	
585.75	7694.2	
585.94	5777.3	
586.14	6191.7	
586.33	8116.8	
586.52	7423.2	
586.71	6057.2	
586.91	5882.4	
587.1	7122.2	
587.29	7753.6	
587.48	5752.7	
587.67	5779.4	
587.87	7732.4	
588.06	7582.3	
588.25	6632	
588.44	6169.2	
588.63	7399.3	
588.83	7722.9	
589.02	5793	
589.21	5621.7	
589.4	7269.6	
589.59	7149.5	
589.78	5253.7	
589.98	5278.3	
590.17	6789.7	
590.36	7161.7	
590.55	4824.3	
590.74	5407.3	
590.94	7885.4	
591.13	7043	
591.32	5310.4	
591.51	4988.2	
591.7	7339.9	
591.89	7043.6	
592.09	5061.2	
592.28	5439.4	
592.47	6514.6	
592.66	7827.3	
592.85	5080.3	
593.05	5223	
593.24	6940.6	
593.43	7460.1	
593.62	5283.1	
593.81	5542.5	
594	7034.8	
594.19	7141.3	
594.39	5205.9	
594.58	5134.3	
594.77	7161.7	
594.96	7522.2	
595.15	5152.7	
595.34	5570.5	
595.54	7041.6	
595.73	6557.6	
595.92	4825	
596.11	5432.6	
596.3	7475.1	
596.49	6692.8	
596.68	5389.6	
596.88	5715.2	
597.07	7281.2	
597.26	6532.3	
597.45	5073.5	
597.64	5772.5	
597.83	6712.6	
598.02	7125.6	
598.22	5113.8	
598.41	5475.6	
598.6	7061.4	
598.79	6560.3	
598.98	5080.3	
599.17	5708.4	
599.36	6958.3	
599.55	7662.1	
599.74	6388.3	
599.94	6283.9	
600.13	7409.6	
600.32	6574	
600.51	4946.5	
600.7	5023.7	
600.89	7690.8	
601.08	7822.6	
601.27	4926.7	
601.47	5468.8	
601.66	7273.7	
601.85	7619.1	
602.04	5393.7	
602.23	5449.6	
602.42	6777.4	
602.61	7028.6	
602.8	5323.4	
602.99	5115.8	
603.18	6889.4	
603.37	6978.1	
603.57	5522.7	
603.76	5900.2	
603.95	7521.5	
604.14	7230	
604.33	5210	
604.52	5471.5	
604.71	7062.1	
604.9	6744.6	
605.09	5835.3	
605.28	5643.5	
605.47	7475.1	
605.66	7124.9	
605.86	5535.7	
606.05	5188.9	
606.24	7438.2	
606.43	6420.4	
606.62	5416.9	
606.81	5926.1	
607	7342.7	
607.19	6827.9	
607.38	5015.5	
607.57	5165.7	
607.76	6585.6	
607.95	6279.8	
608.14	5469.4	
608.33	5735	
608.52	6634.1	
608.72	7240.9	
608.91	5001.1	
609.1	4812.7	
609.29	6752.8	
609.48	6404.7	
609.67	5582.1	
609.86	4907.6	
610.05	6574	
610.24	6673	
610.43	4797	
610.62	4664.6	
610.81	7488.7	
611	7370.6	
611.19	4973.8	
611.38	5476.3	
611.57	7009.5	
611.76	7709.9	
611.95	4835.3	
612.14	4711.7	
612.33	6708.5	
612.52	6546	
612.71	5110.4	
612.9	4590.9	
613.09	6232	
613.28	7778.2	
613.47	5083.1	
613.66	5600.5	
613.85	6829.3	
614.04	6576	
614.24	5048.9	
614.43	4551.3	
614.62	6898.9	
614.81	6875.7	
615	5418.9	
615.19	5352	
615.38	6503	
615.57	6731.7	
615.76	5332.9	
615.95	5870.2	
616.14	7000	
616.33	6732.4	
616.52	5513.8	
616.71	5565.7	
616.9	6906.4	
617.09	6763.1	
617.28	5158.2	
617.47	5825.8	
617.66	6420.4	
617.85	6378.1	
618.04	5639.4	
618.22	5280.3	
618.41	6646.3	
618.6	7210.2	
618.79	5221.6	
618.98	5040.7	
619.17	7333.1	
619.36	6237.4	
619.55	5149.3	
619.74	5172.5	
619.93	6933.1	
620.12	6427.9	
620.31	5514.5	
620.5	5701.5	
620.69	7522.9	
620.88	7570.7	
621.07	6101.6	
621.26	5487.2	
621.45	7010.2	
621.64	6954.2	
621.83	5559.6	
622.02	5023	
622.21	7069.6	
622.4	6890.7	
622.59	5868.1	
622.78	5780.1	
622.97	6701	
623.16	7288	
623.35	5578	
623.54	4997	
623.72	6731.7	
623.91	6857.3	
624.1	5668.1	
624.29	4814.8	
624.48	7537.2	
624.67	7084.6	
624.86	5606	
625.05	5093.3	
625.24	7682.6	
625.43	6669.6	
625.62	6645.7	
625.81	5117.9	
626	7169.3	
626.19	6799.3	
626.38	5540.4	
626.56	5296	
626.75	6661.4	
626.94	7145.4	
627.13	5595.1	
627.32	4805.2	
627.51	7121.5	
627.7	7740.6	
627.89	4866	
628.08	5523.4	
628.27	6505	
628.46	6647.7	
628.65	5141.1	
628.83	4874.2	
629.02	7020.4	
629.21	6520	
629.4	5379.3	
629.59	5515.2	
629.78	6507.1	
629.97	7159.7	
630.16	5503.6	
630.35	5201.8	
630.54	7572	
630.72	7251.9	
630.91	5184.8	
631.1	5498.1	
631.29	6903	
631.48	6909.2	
631.67	5659.2	
631.86	5181.4	
632.05	6704.4	
632.24	6705.7	
632.42	5007.3	
632.61	5344.5	
632.8	6765.1	
632.99	6488	
633.18	5462.6	
633.37	5563.6	
633.56	6931.7	
633.75	6766.5	
633.93	5428.5	
634.12	5210	
634.31	7503.1	
634.5	7156.3	
634.69	5281	
634.88	5520	
635.07	6795.2	
635.25	7181.5	
635.44	5818.3	
635.63	5935	
635.82	6741.2	
636.01	6169.8	
636.2	5788.2	
636.39	5481	
636.57	7429.3	
636.76	7101.7	
636.95	5056.4	
637.14	5983.5	
637.33	7038.9	
637.52	7581.6	
637.7	4994.3	
637.89	5697.4	
638.08	6744.6	
638.27	7567.2	
638.46	5578.7	
638.65	5844.2	
638.83	7578.8	
639.02	6559	
639.21	5563	
639.4	5908.4	
639.59	6907.8	
639.78	6614.3	
639.96	5091.3	
640.15	5117.2	
640.34	6819.7	
640.53	6803.4	
640.72	4939.7	
640.91	5123.3	
641.09	6373.3	
641.28	7255.3	
641.47	5100.8	
641.66	5698.1	
641.85	6946.7	
642.03	6989	
642.22	5383.4	
642.41	5236	
642.6	6490.7	
642.79	6066.8	
642.97	5059.2	
643.16	5438	
643.35	6433.4	
643.54	6345.3	
643.73	4904.2	
643.91	5396.4	
644.1	6247.7	
644.29	6582.2	
644.48	4972.5	
644.67	4967.7	
644.85	6263.4	
645.04	6602.7	
645.23	4741	
645.42	5004.6	
645.6	6285.2	
645.79	6894.1	
645.98	4870.8	
646.17	4240.7	
646.36	6099.5	
646.54	6372.6	
646.73	5380	
646.92	4693.9	
647.11	6133	
647.29	6860	
647.48	4668	
647.67	4480.3	
647.86	6995.2	
648.05	6950.1	
648.23	4794.3	
648.42	5759.6	
648.61	6613.6	
648.8	6399.9	
648.98	4639.3	
649.17	4890.5	
649.36	6177.4	
649.55	5857.2	
649.73	4632.5	
649.92	5126.1	
650.11	6089.3	
650.3	6307.1	
650.48	4637.3	
650.67	4552	
650.86	6463.4	
651.05	5730.2	
651.23	4631.1	
651.42	4694.6	
651.61	6122.1	
651.79	6087.2	
651.98	4836.6	
652.17	4502.8	
652.36	6421.7	
652.54	5816.9	
652.73	4672.1	
652.92	4564.9	
653.11	6419.7	
653.29	6485.9	
653.48	4201.7	
653.67	4778.6	
653.85	6238.1	
654.04	6867.5	
654.23	4874.2	
654.42	4661.9	
654.6	5969.1	
654.79	6335.7	
654.98	4290.5	
655.16	4656.4	
655.35	5709.7	
655.54	5525.4	
655.73	4340.3	
655.91	4233.8	
656.1	6322.1	
656.29	5571.2	
656.47	4076.8	
656.66	5087.2	
656.85	5841.5	
657.03	5819.6	
657.22	4390.8	
657.41	4452.3	
657.59	5849.7	
657.78	5752.1	
657.97	4159.4	
658.16	4635.9	
658.34	6253.1	
658.53	6593.1	
658.72	5246.2	
658.9	5487.2	
659.09	6064.7	
659.28	6007.4	
659.46	4483.7	
659.65	4382	
659.84	5789.6	
660.02	6212.2	
660.21	4445.5	
660.4	4286.4	
660.58	6434	
660.77	5956.2	
660.96	4755.4	
661.14	4045.4	
661.33	6776	
661.52	6647.7	
661.7	4171.7	
661.89	6287.3	
662.08	5751.4	
662.26	5382.1	
662.45	4263.9	
662.64	4383.3	
662.82	6279.1	
663.01	5651.7	
663.2	4350.6	
663.38	4830.5	
663.57	6173.9	
663.75	6015.6	
663.94	4600.4	
664.13	5361.6	
664.31	5785.5	
664.5	6244.3	
664.69	4758.8	
664.87	4993.6	
665.06	5626.5	
665.25	5976.7	
665.43	5200.5	
665.62	5180	
665.8	6239.5	
665.99	5827.8	
666.18	4584	
666.36	4579.9	
666.55	6244.9	
666.74	6138.4	
666.92	4345.1	
667.11	5448.3	
667.29	5863.3	
667.48	6224.5	
667.67	5082.4	
667.85	4422.9	
668.04	5802.6	
668.22	5788.9	
668.41	4615.4	
668.6	4857.8	
668.78	5646.2	
668.97	5814.2	
669.15	4904.2	
669.34	4108.9	
669.53	5700.9	
669.71	5932.3	
669.9	4272.7	
670.08	4711	
670.27	5580	
670.46	6094.8	
670.64	4889.2	
670.83	4997	
671.01	5547.9	
671.2	5983.5	
671.38	4343.7	
671.57	4245.4	
671.76	6457.9	
671.94	6708.5	
672.13	4156	
672.31	4896	
672.5	6144.6	
672.69	5657.2	
672.87	4305.5	
673.06	4540.3	
673.24	6055.2	
673.43	5757.5	
673.61	4793.6	
673.8	4548.5	
673.98	6144.6	
674.17	6201.2	
674.36	4924.7	
674.54	4896.7	
674.73	5872.9	
674.91	6209.4	
675.1	4523.3	
675.28	4265.9	
675.47	5834	
675.65	6147.3	
675.84	4563.6	
676.03	4715.1	
676.21	5711.8	
676.4	5361.6	
676.58	5038	
676.77	4911	
676.95	6702.3	
677.14	5671.5	
677.32	4290.5	
677.51	4191.5	
677.69	6143.9	
677.88	5580.7	
678.06	4293.2	
678.25	4279.6	
678.44	5813.5	
678.62	5698.1	
678.81	4160.8	
678.99	4708.3	
679.18	6369.9	
679.36	6058.6	
679.55	4458.4	
679.73	4868	
679.92	6106.4	
680.1	5636	
680.29	5215.5	
680.47	4457.1	
680.66	5693.4	
680.84	6210.1	
681.03	4096.6	
681.21	4723.3	
681.4	5711.1	
681.58	5565	
681.77	4362.2	
681.95	4295.3	
682.14	6240.2	
682.32	6380.1	
682.51	4919.9	
682.69	4076.8	
682.88	5640.1	
683.06	5984.2	
683.25	4615.4	
683.43	4930.8	
683.62	5852.4	
683.8	6040.8	
683.99	5048.2	
684.17	4556	
684.36	6623.1	
684.54	5750.7	
684.73	4052.2	
684.91	4218.1	
685.1	5907.7	
685.28	5542.5	
685.46	4534.2	
685.65	4534.9	
685.83	6068.1	
686.02	5623.7	
686.2	4240	
686.39	4259.1	
686.57	5530.2	
686.76	6481.8	
686.94	4218.8	
687.13	4334.9	
687.31	5937.1	
687.5	5754.8	
687.68	3912.3	
687.86	4682.3	
688.05	6831.3	
688.23	5352	
688.42	4689.2	
688.6	4228.4	
688.79	5640.8	
688.97	5633.3	
689.16	4581.3	
689.34	3852.9	
689.52	6075	
689.71	6299.6	
689.89	4752.7	
690.08	4201.7	
690.26	5832.6	
690.45	5628.5	
690.63	4810.7	
690.81	4320.5	
691	5677	
691.18	5539.1	
691.37	4454.3	
691.55	5885.2	
691.74	5513.1	
691.92	6797.9	
692.1	4394.9	
692.29	4068.6	
692.47	5616.9	
692.66	5234.6	
692.84	4150.5	
693.02	4529.4	
693.21	5294.7	
693.39	5690.6	
693.58	4639.3	
693.76	4225	
693.94	6376	
694.13	6249.7	
694.31	4249.5	
694.5	4897.4	
694.68	5497.4	
694.86	5810.8	
695.05	4485.1	
695.23	4575.8	
695.42	5908.4	
695.6	7435.5	
695.78	4806.6	
695.97	4345.8	
696.15	6109.1	
696.34	5600.5	
696.52	4065.9	
696.7	4698	
696.89	5886.5	
697.07	5416.2	
697.25	4575.2	
697.44	5520.6	
697.62	5909.8	
697.81	6030.6	
697.99	4425	
698.17	4687.8	
698.36	5528.8	
698.54	5833.3	
698.72	4612	
698.91	3945.1	
699.09	5563	
699.28	5476.3	
699.46	4426.3	
699.64	4300.1	
699.83	5492.7	
700.01	6165.8	
700.19	4853.7	
700.38	3814.7	
700.56	6211.5	
700.74	5550.7	
700.93	4012.7	
701.11	4626.4	
701.29	5904.3	
701.48	6567.2	
701.66	4252.3	
701.84	4321.9	
702.03	5662	
702.21	6025.8	
702.39	4027	
702.58	4328	
702.76	5847.6	
702.94	5919.3	
703.13	4013.3	
703.31	5479	
703.49	5425.8	
703.68	6377.4	
703.86	4084.3	
704.04	4757.4	
704.23	5824.4	
704.41	5970.5	
704.59	4237.2	
704.78	5010.7	
704.96	6820.4	
705.14	5995.8	
705.33	4077.5	
705.51	4644.1	
705.69	5580.7	
705.87	6151.4	
706.06	4780	
706.24	4030.4	
706.42	5863.3	
706.61	6012.8	
706.79	4808.6	
706.97	4040	
707.16	5590.3	
707.34	5849	
707.52	4744.5	
707.7	4207.2	
707.89	5481	
708.07	5388.2	
708.25	4810.7	
708.44	4829.1	
708.62	5572.5	
708.8	6232.7	
708.98	4990.9	
709.17	4260.5	
709.35	5765	
709.53	5852.4	
709.72	4024.3	
709.9	4136.9	
710.08	6047.7	
710.26	6038.8	
710.45	5154.7	
710.63	4283	
710.81	5729.5	
710.99	5776	
711.18	4677.6	
711.36	4314.4	
711.54	5633.3	
711.72	6157.6	
711.91	4500.1	
712.09	4072	
712.27	5750.7	
712.45	6107.7	
712.64	4528.7	
712.82	3921.9	
713	5427.8	
713.18	5468.8	
713.37	4002.4	
713.55	4747.2	
713.73	6079.7	
713.91	5127.4	
714.1	4214	
714.28	3843.4	
714.46	5800.5	
714.64	5233.2	
714.83	3503.4	
715.01	3979.2	
715.19	5394.3	
715.37	4855.7	
715.55	3835.8	
715.74	3975.8	
715.92	5868.1	
716.1	4575.2	
716.28	4770.4	
716.47	4129.4	
716.65	5146.5	
716.83	5109.7	
717.01	3945.1	
717.19	3993.5	
717.38	6426.5	
717.56	4873.5	
717.74	4123.9	
717.92	3582.6	
718.1	5775.3	
718.29	5239.4	
718.47	3334.1	
718.65	3809.9	
718.83	5703.6	
719.01	5590.3	
719.2	3349.1	
719.38	4053.6	
719.56	5389.6	
719.74	6420.4	
719.92	3794.2	
720.11	4465.3	
720.29	5519.3	
720.47	4922.6	
720.65	3486.3	
720.83	4117.1	
721.02	5133.6	
721.2	4961.5	
721.38	4068.6	
721.56	3581.9	
721.74	4648.9	
721.92	4715.1	
722.11	4324.6	
722.29	4177.9	
722.47	5565.7	
722.65	5014.1	
722.83	3596.2	
723.01	4158.1	
723.2	5078.3	
723.38	5317.9	
723.56	3233.1	
723.74	3981.9	
723.92	4764.3	
724.1	5578.7	
724.29	3572.3	
724.47	4291.9	
724.65	4891.2	
724.83	4724	
725.01	3515.7	
725.19	4011.3	
725.37	4819.6	
725.56	4724.7	
725.74	3422.2	
725.92	3521.1	
726.1	4786.8	
726.28	5027.1	
726.46	3829.7	
726.64	3615.3	
726.83	5051.7	
727.01	5126.7	
727.19	3424.9	
727.37	3950.5	
727.55	5055.8	
727.73	5359.5	
727.91	3351.2	
728.09	3276.1	
728.28	5436	
728.46	5530.2	
728.64	3934.1	
728.82	3979.9	
729	6110.5	
729.18	5616.9	
729.36	3393.5	
729.54	4888.5	
729.72	6311.8	
729.91	5135.6	
730.09	4678.2	
730.27	3844.7	
730.45	5117.2	
730.63	5419.6	
730.81	4252.9	
730.99	3646.1	
731.17	5975.3	
731.35	4925.4	
731.53	3971.7	
731.71	3719.1	
731.9	5598.5	
732.08	5748.6	
732.26	3920.5	
732.44	3645.4	
732.62	5780.1	
732.8	5455.8	
732.98	4166.3	
733.16	3595.6	
733.34	5512.4	
733.52	4583.4	
733.7	3873.4	
733.88	4025.6	
734.07	5332.9	
734.25	5207.3	
734.43	3521.8	
734.61	4585.4	
734.79	6175.3	
734.97	5134.3	
735.15	3611.3	
735.33	3852.2	
735.51	5429.2	
735.69	5152.7	
735.87	4586.1	
736.05	3939.6	
736.23	5253	
736.41	5020.3	
736.59	3891.1	
736.77	3953.9	
736.95	5522.7	
737.13	5099.4	
737.32	3631.7	
737.5	3790.8	
737.68	5986.9	
737.86	5076.9	
738.04	3526.6	
738.22	4700.1	
738.4	4971.8	
738.58	5212.1	
738.76	3875.4	
738.94	3237.8	
739.12	5096.7	
739.3	4973.8	
739.48	4292.5	
739.66	4207.9	
739.84	5186.1	
740.02	5196.4	
740.2	3356.6	
740.38	3549.8	
740.56	5472.2	
740.74	4670.1	
740.92	4048.8	
741.1	3923.9	
741.28	5098.8	
741.46	4965	
741.64	3694.5	
741.82	4055	
742	5198.4	
742.18	5074.2	
742.36	3808.5	
742.54	3605.8	
742.72	5528.2	
742.9	4642.7	
743.08	4089.1	
743.26	3286.3	
743.44	5562.3	
743.62	5451	
743.8	4237.9	
743.98	3541.6	
744.16	5270.1	
744.34	5117.9	
744.52	4059.1	
744.7	4070	
744.88	5463.3	
745.06	5087.8	
745.24	4125.3	
745.42	4206.5	
745.6	5550.7	
745.78	5345.2	
745.96	3360.7	
746.14	3598.3	
746.32	5978	
746.5	5428.5	
746.68	3941	
746.86	3503.4	
747.03	5605.3	
747.21	4627	
747.39	3952.6	
747.57	3543	
747.75	5158.2	
747.93	5339.1	
748.11	3523.2	
748.29	3494.5	
748.47	6278.4	
748.65	4967.7	
748.83	4009.9	
749.01	3891.8	
749.19	5350.7	
749.37	4739.7	
749.55	3814	
749.73	3828.3	
749.91	5217.5	
750.09	4984.1	
750.26	3891.1	
750.44	3436.5	
750.62	5068	
750.8	5096	
750.98	3410.6	
751.16	3617.4	
751.34	5223	
751.52	4754	
751.7	4115.1	
751.88	3304.7	
752.06	5545.9	
752.24	5283.8	
752.42	3300.6	
752.59	3564.1	
752.77	5132.9	
752.95	5947.3	
753.13	4037.2	
753.31	3646.7	
753.49	4932.9	
753.67	5122	
753.85	3832.4	
754.03	3587.4	
754.21	5444.2	
754.38	5585.5	
754.56	3635.1	
754.74	3086.3	
754.92	4823	
755.1	5328.1	
755.28	3050.8	
755.46	3093.8	
755.64	5894.7	
755.82	5933	
755.99	3243.3	
756.17	3321.8	
756.35	4237.2	
756.53	5223	
756.71	2572.9	
756.89	3214.6	
757.07	4889.9	
757.25	4345.1	
757.42	3545.7	
757.6	4097.3	
757.78	5029.8	
757.96	4337.6	
758.14	3302.7	
758.32	3089.7	
758.5	3988.1	
758.67	4614.1	
758.85	3236.5	
759.03	3299.3	
759.21	4698.7	
759.39	4318.5	
759.57	2919.7	
759.75	3614	
759.92	5209.3	
760.1	4775.9	
760.28	3973.1	
760.46	4046.8	
760.64	4590.2	
760.82	4452.3	
760.99	3844.7	
761.17	3302.7	
761.35	5108.3	
761.53	4329.4	
761.71	3491.8	
761.89	3749.8	
762.06	4989.5	
762.24	4689.8	
762.42	3446	
762.6	3321.1	
762.78	4659.1	
762.96	5079	
763.13	3654.3	
763.31	3447.4	
763.49	5091.3	
763.67	4607.9	
763.85	4035.9	
764.02	4387.4	
764.2	5433.9	
764.38	4807.3	
764.56	3381.9	
764.74	3967.6	
764.91	5439.4	
765.09	4712.4	
765.27	3300	
765.45	2981.2	
765.63	5535	
765.8	5341.1	
765.98	2951.8	
766.16	3069.9	
766.34	4414.1	
766.52	4228.4	
766.69	3715.7	
766.87	2985.9	
767.05	4650.3	
767.23	5219.6	
767.41	3183.2	
767.58	3425.6	
767.76	5044.8	
767.94	5156.8	
768.12	3294.5	
768.29	3667.9	
768.47	4708.3	
768.65	5259.2	
768.83	2961.4	
769	3695.9	
769.18	4429.1	
769.36	4876.9	
769.54	3667.9	
769.72	3042.6	
769.89	5186.1	
770.07	5122	
770.25	3347.7	
770.43	4149.2	
770.6	5628.5	
770.78	5897.5	
770.96	3413.3	
771.14	3760.8	
771.31	5094	
771.49	4622.9	
771.67	2828.2	
771.85	2976.4	
772.02	4182.6	
772.2	4615.4	
772.38	3495.9	
772.55	3103.4	
772.73	4861.2	
772.91	4650.9	
773.09	3385.3	
773.26	3530	
773.44	4778.6	
773.62	4607.2	
773.8	3105.4	
773.97	2925.9	
774.15	4906.3	
774.33	4664.6	
774.5	3044.6	
774.68	3237.8	
774.86	4872.1	
775.04	4619.5	
775.21	3085.6	
775.39	3052.2	
775.57	4763.6	
775.74	4950.6	
775.92	2969.6	
776.1	2843.3	
776.27	4741.7	
776.45	5471.5	
776.63	3082.2	
776.81	2774.3	
776.98	4622.9	
777.16	5160.2	
777.34	3155.9	
777.51	3358.7	
777.69	4553.3	
777.87	4321.2	
778.04	3250.1	
778.22	3556.6	
778.4	4382.7	
778.57	4833.9	
778.75	2714.2	
778.93	2901.3	
779.1	4317.8	
779.28	4044.1	
779.46	2708.8	
779.64	2990.7	
779.81	4971.8	
779.99	5518.6	
780.17	3513.6	
780.34	3605.8	
780.52	4594.3	
780.69	4684.4	
780.87	3231	
781.05	2991.4	
781.22	4633.2	
781.4	4693.3	
781.58	3067.9	
781.75	2503.3	
781.93	4662.5	
782.11	4086.4	
782.28	3644.7	
782.46	3024.8	
782.64	4086.4	
782.81	4781.3	
782.99	3175	
783.17	3061.7	
783.34	4617.5	
783.52	4293.9	
783.69	3132	
783.87	3753.9	
784.05	4318.5	
784.22	4209.9	
784.4	3721.2	
784.58	3286.3	
784.75	4951.3	
784.93	4330.1	
785.1	3080.1	
785.28	3421.5	
785.46	4724	
785.63	4154.6	
785.81	3026.2	
785.99	2905.4	
786.16	4437.9	
786.34	4596.3	
786.51	2947	
786.69	3224.2	
786.87	4067.9	
787.04	4403.8	
787.22	2879.4	
787.39	3551.9	
787.57	4248.9	
787.75	5010	
787.92	3654.9	
788.1	3590.8	
788.27	4182.6	
788.45	4003.1	
788.63	3411.9	
788.8	2530.6	
788.98	4546.5	
789.15	3968.3	
789.33	2666.5	
789.5	3020.8	
789.68	4859.8	
789.86	5010.7	
790.03	3346.4	
790.21	2926.5	
790.38	4952	
790.56	4351.3	
790.73	2929.3	
790.91	2905.4	
791.09	4214.7	
791.26	4674.8	
791.44	3080.8	
791.61	2663	
791.79	4277.5	
791.96	4249.5	
792.14	2811.2	
792.32	2455.5	
792.49	4190.8	
792.67	4314.4	
792.84	2837.1	
793.02	2639.1	
793.19	4587.4	
793.37	5025	
793.54	2482.1	
793.72	2755.2	
793.89	5046.2	
794.07	4221.5	
794.25	3142.9	
794.42	2542.9	
794.6	4961.5	
794.77	4635.9	
794.95	3338.2	
795.12	2914.9	
795.3	4300.7	
795.47	4601.8	
795.65	3226.2	
795.82	3057.6	
796	4084.3	
796.17	5383.4	
796.35	3000.3	
796.52	3461.7	
796.7	4689.2	
796.87	4687.1	
797.05	2999.6	
797.22	3540.3	
797.4	4662.5	
797.57	5247.6	
797.75	3127.2	
797.92	2930.6	
798.1	4868.7	
798.27	4094.6	
798.45	2620	
798.62	2777	
798.8	4476.9	
798.97	4792.9	
799.15	3233.1	
799.32	3095.8	
799.5	3932.1	
799.67	4417.5	
799.85	3325.9	
800.02	2593.4	
800.2	4210.6	
800.37	4407.2	
800.55	3448.8	
800.72	2954.5	
800.9	4795	
801.07	4959.5	
801.25	3827.7	
801.42	3209.8	
801.6	4814.1	
801.77	4448.2	
801.95	3022.8	
802.12	2830.3	
802.29	4593.6	
802.47	4508.9	
802.64	3208.5	
802.82	2564.1	
802.99	4232.5	
803.17	4882.4	
803.34	3120.4	
803.52	2843.9	
803.69	5278.3	
803.87	4052.9	
804.04	3147	
804.21	3135.4	
804.39	5018.9	
804.56	4292.5	
804.74	2695.1	
804.91	3193.5	
805.09	4246.8	
805.26	4219.5	
805.44	2757.9	
805.61	2960.7	
805.78	4725.3	
805.96	4672.1	
806.13	3196.2	
806.31	3420.8	
806.48	3931.4	
806.66	4302.8	
806.83	3159.3	
807	3128.6	
807.18	4263.9	
807.35	4450.2	
807.53	2994.8	
807.7	2592.7	
807.87	4995	
808.05	4235.2	
808.22	3325.2	
808.4	2587.9	
808.57	4157.4	
808.74	3951.9	
808.92	2922.5	
809.09	3504.1	
809.27	4255.7	
809.44	4583.4	
809.61	2611.2	
809.79	2848.7	
809.96	5147.9	
810.14	4734.2	
810.31	2593.4	
810.48	3041.9	
810.66	4269.3	
810.83	4767	
811.01	2939.5	
811.18	3201.7	
811.35	4760.2	
811.53	3807.9	
811.7	3377.8	
811.87	3252.2	
812.05	4332.8	
812.22	4187.4	
812.39	2849.4	
812.57	2768.9	
812.74	4290.5	
812.92	5331.5	
813.09	3056.9	
813.26	3201	
813.44	5173.9	
813.61	4175.8	
813.78	2607.1	
813.96	3307.5	
814.13	4302.1	
814.3	4111	
814.48	3599	
814.65	2969.6	
814.82	4985.4	
815	4051.6	
815.17	3056.3	
815.34	3694.5	
815.52	4224.3	
815.69	4234.5	
815.87	3014.6	
816.04	2979.1	
816.21	4216.1	
816.38	3949.2	
816.56	2978.4	
816.73	2790.7	
816.9	5275.6	
817.08	4748.6	
817.25	2836.4	
817.42	3441.3	
817.6	3979.9	
817.77	4227	
817.94	3115.6	
818.12	2805	
818.29	4141.7	
818.46	5810.1	
818.64	2940.2	
818.81	2700.6	
818.98	4104.1	
819.16	5399.1	
819.33	3295.9	
819.5	3110.9	
819.67	4506.2	
819.85	4931.5	
820.02	3119.1	
820.19	3205.1	
820.37	4501.4	
820.54	4188.8	
820.71	3104	
820.88	3770.3	
821.06	4387.4	
821.23	4091.8	
821.4	3095.2	
821.58	3069.2	
821.75	4694.6	
821.92	4354.7	
822.09	2633	
822.27	2773.6	
822.44	4222.9	
822.61	4254.3	
822.79	2587.3	
822.96	4655	
823.13	4507.6	
823.3	4032.5	
823.48	2974.3	
823.65	2652.8	
823.82	4740.4	
823.99	4012	
824.17	3700	
824.34	2719	
824.51	5356.8	
824.68	4353.3	
824.86	2888.3	
825.03	3081.5	
825.2	4267.3	
825.37	4875.5	
825.55	2825.5	
825.72	3074	
825.89	5299.5	
826.06	5003.9	
826.24	2996.2	
826.41	3003	
826.58	5021.6	
826.75	4410	
826.92	2531.3	
827.1	2727.9	
827.27	6464.8	
827.44	5249.6	
827.61	2901.3	
827.79	3418.7	
827.96	4129.4	
828.13	4285.7	
828.3	3001	
828.47	2595.5	
828.65	4552.6	
828.82	4477.5	
828.99	3673.4	
829.16	3259.7	
829.34	4775.9	
829.51	4661.9	
829.68	3121.8	
829.85	3128.6	
830.02	5033.2	
830.2	4740.4	
830.37	2450.1	
830.54	3558.7	
830.71	5258.5	
830.88	4300.1	
831.05	2442.5	
831.23	2769.5	
831.4	5111	
831.57	5477.6	
831.74	2848.7	
831.91	2578.4	
832.09	4610	
832.26	4740.4	
832.43	2935.4	
832.6	3203.7	
832.77	4499.4	
832.94	5042.1	
833.12	2420	
833.29	2904.7	
833.46	4239.3	
833.63	5654.4	
833.8	3105.4	
833.97	2879.4	
834.15	4832.5	
834.32	4626.4	
834.49	3067.2	
834.66	3126.6	
834.83	4881.7	
835	4150.6	
835.17	2838.5	
835.35	2850.8	
835.52	4682.3	
835.69	4609.3	
835.86	2964.1	
836.03	2490.3	
836.2	4718.5	
836.37	4511	
836.55	2900.6	
836.72	2730.6	
836.89	4467.3	
837.06	4820.2	
837.23	2928.6	
837.4	3170.3	
837.57	5328.1	
837.75	5673.6	
837.92	2702	
838.09	2874	
838.26	4487.8	
838.43	4908.3	
838.6	3033	
838.77	2738.8	
838.94	5397.8	
839.11	5315.8	
839.29	2997.5	
839.46	2398.2	
839.63	4787.5	
839.8	4524	
839.97	2876.7	
840.14	2843.3	
840.31	4609.3	
840.48	4735.6	
840.65	2445.3	
840.82	2795.5	
841	4770.4	
841.17	4556.7	
841.34	2646	
841.51	2754.5	
841.68	4732.2	
841.85	4508.3	
842.02	2760	
842.19	2355.8	
842.36	4561.5	
842.53	4567.7	
842.7	2667.1	
842.87	3158	
843.05	5699.5	
843.22	4517.8	
843.39	2539.5	
843.56	2806.4	
843.73	4412.7	
843.9	4861.9	
844.07	4069.3	
844.24	3415.3	
844.41	6257.2	
844.58	4263.9	
844.75	2610.5	
844.92	2782.5	
845.09	4707.6	
845.26	4685.8	
845.43	2680.1	
845.6	2784.6	
845.77	4787.5	
845.94	4498.7	
846.12	2898.6	
846.29	3034.4	
846.46	4902.8	
846.63	4698.7	
846.8	2643.9	
846.97	3093.1	
847.14	5001.1	
847.31	4685.8	
847.48	2927.9	
847.65	3200.3	
847.82	4866.7	
847.99	4822.3	
848.16	3386	
848.33	3151.1	
848.5	4369	
848.67	5010.7	
848.84	2619.4	
849.01	2747	
849.18	4390.8	
849.35	4126	
849.52	3226.9	
849.69	2639.1	
849.86	4933.6	
850.03	4896.7	
850.2	2662.4	
850.37	3092.4	
850.54	4906.9	
850.71	4472.8	
850.88	3117.7	
851.05	2633.7	
851.22	4625.7	
851.39	5053	
851.56	2503.3	
851.73	2973	
851.9	4218.8	
852.07	4862.6	
852.24	2895.8	
852.41	2620	
852.58	4655.7	
852.75	4285	
852.92	2944.3	
853.09	2586.6	
853.26	4351.9	
853.43	4962.9	
853.6	2615.9	
853.77	2295.8	
853.94	5057.1	
854.11	4194.9	
854.28	3729.4	
854.44	2854.9	
854.61	5319.9	
854.78	4920.6	
854.95	2640.5	
855.12	3198.9	
855.29	3984.7	
855.46	5169.8	
855.63	2616.6	
855.8	3474	
855.97	4369.7	
856.14	4971.1	
856.31	3566.9	
856.48	2852.1	
856.65	4496.7	
856.82	4160.8	
856.99	2521.7	
857.16	2837.1	
857.33	5509.7	
857.49	4502.8	
857.66	2837.1	
857.83	2960.7	
858	4482.3	
858.17	4622.3	
858.34	2495.1	
858.51	2644.6	
858.68	5166.3	
858.85	5160.2	
859.02	3004.4	
859.19	3130.7	
859.36	4248.9	
859.52	4177.2	
859.69	2646	
859.86	3003.7	
860.03	4252.9	
860.2	5057.8	
860.37	2457.6	
860.54	2680.1	
860.71	4849.6	
860.88	5059.2	
861.05	2914.9	
861.21	3319.1	
861.38	5091.9	
861.55	4117.8	
861.72	2489.6	
861.89	2882.9	
862.06	4895.3	
862.23	5139	
862.4	2583.2	
862.56	2667.1	
862.73	4780	
862.9	4545.1	
863.07	3004.4	
863.24	2446	
863.41	4245.4	
863.58	4278.9	
863.75	2699.9	
863.91	3033.7	
864.08	5008	
864.25	4816.1	
864.42	3239.9	
864.59	3528.7	
864.76	5261.2	
864.93	4216.1	
865.09	2599.6	
865.26	2781.1	
865.43	5077.6	
865.6	5256.5	
865.77	2383.2	
865.94	2648.7	
866.1	5026.4	
866.27	4787.5	
866.44	3820.1	
866.61	2555.9	
866.78	4495.3	
866.95	4831.8	
867.11	2667.1	
867.28	2396.1	
867.45	4990.2	
867.62	4218.8	
867.79	2949.1	
867.96	2636.4	
868.12	4198.3	
868.29	4836.6	
868.46	2648.7	
868.63	3388	
868.8	4959.5	
868.97	4790.9	
869.13	2751.1	
869.3	2727.2	
869.47	4678.9	
869.64	4914.4	
869.81	2654.9	
869.97	2694.4	
870.14	4693.3	
870.31	5141.1	
870.48	2547	
870.65	3273.3	
870.81	4491.2	
870.98	4444.1	
871.15	2934.1	
871.32	2741.5	
871.48	4732.2	
871.65	5182	
871.82	2592.7	
871.99	2896.5	
872.16	5494	
872.32	5072.1	
872.49	2693.1	
872.66	2652.8	
872.83	4872.1	
872.99	4351.3	
873.16	2992.1	
873.33	2618	
873.5	4557.4	
873.67	4667.3	
873.83	2773.6	
874	3394.8	
874.17	4706.9	
874.34	5283.8	
874.5	3278.1	
874.67	3232.4	
874.84	5050.3	
875.01	4147.8	
875.17	3521.1	
875.34	2676	
875.51	4677.6	
875.68	5433.3	
875.84	3162.1	
876.01	3651.5	
876.18	4840.7	
876.34	4802.5	
876.51	2655.5	
876.68	2606.4	
876.85	4462.5	
877.01	5095.3	
877.18	3638.6	
877.35	2604.3	
877.52	4684.4	
877.68	4225	
877.85	2627.5	
878.02	2594.8	
878.18	4491.9	
878.35	4407.2	
878.52	2174.9	
878.69	3036.5	
878.85	4934.9	
879.02	4790.9	
879.19	3590.1	
879.35	2809.1	
879.52	4894.6	
879.69	4914.4	
879.86	2364	
880.02	2891.7	
880.19	4617.5	
880.36	5335.6	
880.52	2972.3	
880.69	3081.5	
880.86	4908.3	
881.02	4900.8	
881.19	2831.7	
881.36	2813.2	
881.52	4826.4	
881.69	4373.1	
881.86	2828.9	
882.02	2816.6	
882.19	4947.2	
882.36	5727.5	
882.52	2713.6	
882.69	3558.7	
882.86	4679.6	
883.02	4634.6	
883.19	3121.1	
883.36	2945.7	
883.52	4903.5	
883.69	5407.3	
883.86	2686.9	
884.02	2457.6	
884.19	4808.6	
884.36	4564.9	
884.52	2968.9	
884.69	2837.8	
884.86	4425.7	
885.02	5175.2	
885.19	2896.5	
885.36	2977.7	
885.52	4494.6	
885.69	4709.6	
885.86	3611.3	
886.02	3283.6	
886.19	4842.8	
886.35	4391.5	
886.52	2889	
886.69	3551.9	
886.85	4205.2	
887.02	5033.9	
887.19	5033.9	
887.35	5033.9	
887.52	5033.9	
887.68	5033.9	
887.85	5033.9	
888.02	5033.9	
888.18	5033.9	
888.35	5033.9	
888.51	5033.9	
888.68	5033.9	
888.85	5033.9	
889.01	5033.9	
889.18	5033.9	
889.35	5033.9	
889.51	5033.9	
889.68	5033.9	
889.84	5033.9	
890.01	5033.9	
890.17	5033.9	
890.34	5033.9	
890.51	5033.9	
890.67	5033.9	
890.84	5033.9	
891	5033.9	
891.17	5033.9	
891.34	5033.9	
891.5	5033.9	
891.67	5033.9	
891.83	5033.9	
892	5033.9	
892.16	5033.9	
892.33	5033.9	
892.5	5033.9	
892.66	5033.9	
892.83	5033.9	
892.99	5033.9	
893.16	5033.9	
893.32	5033.9	
893.49	5033.9	
893.65	5033.9	
893.82	5033.9	
893.99	5033.9	
894.15	5033.9	
894.32	5033.9	
894.48	5033.9	
894.65	5033.9	
894.81	5033.9	
894.98	5033.9	
895.14	5033.9	
895.31	5033.9	
895.47	5033.9	
895.64	5033.9	
895.81	5033.9	
895.97	5033.9	
896.14	5033.9	
896.3	5033.9	
896.47	5033.9	
896.63	5033.9	
896.8	5033.9	
896.96	5033.9	
897.13	5033.9	
897.29	5033.9	
897.46	5033.9	
897.62	5033.9	
897.79	5033.9	
897.95	5033.9	
898.12	5033.9	
898.28	5033.9	
898.45	5033.9	
898.61	5033.9	
898.78	5033.9	
898.94	5033.9	
899.11	5033.9	
899.27	5033.9	
899.44	5033.9	
899.6	5033.9	
899.77	5033.9	
899.93	5033.9	
900.1	5033.9	
900.26	5033.9	
900.43	5033.9	
900.59	5033.9	
900.76	5033.9	
900.92	5033.9	
901.09	5033.9	
901.25	5033.9	
901.42	5033.9	
901.58	5033.9	
901.75	5033.9	
901.91	5033.9	
902.07	5033.9	
902.24	5033.9	
902.4	5033.9	
902.57	5033.9	
902.73	5033.9	
902.9	5033.9	
903.06	5033.9	
903.23	5033.9	
903.39	5033.9	
903.56	5033.9	
903.72	5033.9	
903.88	5033.9	
904.05	5033.9	
904.21	5033.9	
904.38	5033.9	
904.54	5033.9	
904.71	5033.9	
904.87	5033.9	
905.03	5033.9	
905.2	5033.9	
905.36	5033.9	
905.53	5033.9	
905.69	5033.9	
905.86	5033.9	
906.02	5033.9	
906.18	5033.9	
906.35	5033.9	
906.51	5033.9	
906.68	5033.9	
906.84	5033.9	
907.01	5033.9	
907.17	5033.9	
907.33	5033.9	
907.5	5033.9	
907.66	5033.9	
907.83	5033.9	
907.99	5033.9	
908.15	5033.9	
908.32	5033.9	
908.48	5033.9	
908.65	5033.9	
908.81	5033.9	
908.97	5033.9	
909.14	5033.9	
909.3	5033.9	
909.47	5033.9	
909.63	5033.9	
909.79	5033.9	
909.96	5033.9	
910.12	5033.9	
910.28	5033.9	
910.45	5033.9	
910.61	5033.9	
910.78	5033.9	
910.94	5033.9	
911.1	5033.9	
911.27	5033.9	
911.43	5033.9	
911.59	5033.9	
911.76	5033.9	
911.92	5033.9	
912.08	5033.9	
912.25	5033.9	
912.41	5033.9	
912.57	5033.9	
912.74	5033.9	
912.9	5033.9	
913.07	5033.9	
913.23	5033.9	
913.39	5033.9	
913.56	5033.9	
913.72	5033.9	
913.88	5033.9	
914.05	5033.9	
914.21	5033.9	
914.37	5033.9	
914.54	5033.9	
914.7	5033.9	
914.86	5033.9	
915.03	5033.9	
915.19	5033.9	
