Wavelength	Intensities	
nm	a.u.	
179.22	1552.4	
179.44	1546.2	
179.65	1558.5	
179.86	1533.9	
180.08	1571.5	
180.29	3413.3	
180.51	2719.7	
180.72	4593.6	
180.94	4973.8	
181.15	2443.2	
181.37	2396.8	
181.58	4383.3	
181.79	4580.6	
182.01	2556.5	
182.22	2653.5	
182.44	4623.6	
182.65	4078.2	
182.87	3128.6	
183.08	2849.4	
183.29	4811.4	
183.51	4064.5	
183.72	2614.6	
183.94	3523.9	
184.15	4384.7	
184.37	4224.3	
184.58	2403.6	
184.79	2950.4	
185.01	4170.3	
185.22	4654.4	
185.44	3103.4	
185.65	2794.1	
185.86	4397.7	
186.08	4137.6	
186.29	2394.1	
186.51	2504	
186.72	4192.9	
186.94	4729.4	
187.15	2829.6	
187.36	2865.8	
187.58	5663.3	
187.79	4427	
188.01	2880.1	
188.22	4193.6	
188.43	5069.4	
188.65	4554.7	
188.86	2517	
189.08	2902.7	
189.29	4218.1	
189.5	4216.1	
189.72	2664.4	
189.93	2703.3	
190.15	4704.9	
190.36	5242.1	
190.57	2917	
190.79	2746.3	
191	4698.7	
191.22	4719.2	
191.43	2925.9	
191.64	2534	
191.86	4851.6	
192.07	4635.2	
192.29	2540.2	
192.5	2587.3	
192.71	4690.5	
192.93	4293.9	
193.14	2633.7	
193.35	2704	
193.57	4180.6	
193.78	4726	
194	2224.8	
194.21	2583.2	
194.42	4094.6	
194.64	4356.7	
194.85	2761.3	
195.07	3190.7	
195.28	4302.8	
195.49	3956	
195.71	3376.4	
195.92	2538.8	
196.13	4472.8	
196.35	4505.5	
196.56	3495.2	
196.78	2872.6	
196.99	5293.3	
197.2	4962.9	
197.42	3117	
197.63	2863.7	
197.84	4037.9	
198.06	4516.5	
198.27	2655.5	
198.48	3345	
198.7	4219.5	
198.91	4384.7	
199.13	2847.4	
199.34	2806.4	
199.55	4780.6	
199.77	3884.3	
199.98	2566.1	
200.19	2886.3	
200.41	4402.5	
200.62	4156	
200.83	2899.9	
201.05	3143.6	
201.26	4384.7	
201.47	4211.3	
201.69	2609.1	
201.9	2600.2	
202.11	4423.6	
202.33	4880.3	
202.54	2718.3	
202.76	2938.2	
202.97	4326	
203.18	4485.1	
203.4	2906.1	
203.61	2990.7	
203.82	4424.3	
204.04	4129.4	
204.25	2836.4	
204.46	2800.9	
204.68	4329.4	
204.89	4539.7	
205.1	2769.5	
205.32	2523.8	
205.53	4528.7	
205.74	4696	
205.96	2282.8	
206.17	2843.9	
206.38	4546.5	
206.6	4629.8	
206.81	3107.5	
207.02	2676	
207.24	4552	
207.45	4777.2	
207.66	2771.6	
207.88	2443.9	
208.09	4526	
208.3	4322.6	
208.52	2578.4	
208.73	2800.3	
208.94	4344.4	
209.15	4779.3	
209.37	2734	
209.58	2849.4	
209.79	4668	
210.01	4237.9	
210.22	2332	
210.43	2467.8	
210.65	4314.4	
210.86	4549.2	
211.07	2710.8	
211.29	2570.9	
211.5	4488.5	
211.71	4302.1	
211.93	2607.7	
212.14	2530.6	
212.35	4322.6	
212.56	4345.1	
212.78	2876	
212.99	2405	
213.2	4924.7	
213.42	4266.6	
213.63	2656.9	
213.84	2752.5	
214.06	4072	
214.27	4052.2	
214.48	2692.4	
214.69	2898.6	
214.91	4757.4	
215.12	4747.9	
215.33	2865.8	
215.55	3069.2	
215.76	5055.8	
215.97	4491.9	
216.18	2806.4	
216.4	2793.4	
216.61	4141	
216.82	4634.6	
217.04	2611.8	
217.25	2665.8	
217.46	4710.3	
217.67	4596.3	
217.89	2409.8	
218.1	2423.4	
218.31	4347.8	
218.53	4483	
218.74	2736.1	
218.95	2596.8	
219.16	4346.5	
219.38	4942.4	
219.59	2605	
219.8	2992.8	
220.01	5172.5	
220.23	4369	
220.44	3195.5	
220.65	2538.1	
220.87	4487.8	
221.08	4797.7	
221.29	2460.3	
221.5	3030.3	
221.72	5430.5	
221.93	4095.9	
222.14	2904.7	
222.35	3327.9	
222.57	4288.4	
222.78	4663.9	
222.99	2818	
223.2	2930	
223.42	4491.9	
223.63	4588.1	
223.84	2226.8	
224.05	2268.5	
224.27	5086.5	
224.48	4916.5	
224.69	3272	
224.9	2882.2	
225.12	4481.6	
225.33	4293.2	
225.54	2392	
225.75	2600.9	
225.97	4100.7	
226.18	4321.2	
226.39	2713.6	
226.6	2652.8	
226.82	4240	
227.03	4054.3	
227.24	2839.2	
227.45	2433.7	
227.67	4600.4	
227.88	4822.3	
228.09	3110.9	
228.3	3112.9	
228.52	4526	
228.73	4330.1	
228.94	2702	
229.15	2461.7	
229.36	4393.6	
229.58	4369.7	
229.79	2730.6	
230	3059.7	
230.21	5065.3	
230.43	4337.6	
230.64	2859	
230.85	2842.6	
231.06	4680.3	
231.28	4638.6	
231.49	2448	
231.7	2794.1	
231.91	4612	
232.12	4373.8	
232.34	2555.2	
232.55	2750.4	
232.76	4719.9	
232.97	4329.4	
233.18	2559.3	
233.4	2850.1	
233.61	4392.2	
233.82	4208.6	
234.03	2695.1	
234.25	2657.6	
234.46	5571.8	
234.67	4351.9	
234.88	2853.5	
235.09	2660.3	
235.31	4386.1	
235.52	4239.3	
235.73	2820.1	
235.94	2438.4	
236.15	4197.7	
236.37	4975.2	
236.58	2570.9	
236.79	2762.7	
237	4519.2	
237.21	4003.1	
237.43	2891.7	
237.64	2397.5	
237.85	6687.3	
238.06	4144.4	
238.27	2856.9	
238.48	2540.2	
238.7	4523.3	
238.91	4252.3	
239.12	2671.9	
239.33	2835.1	
239.54	4138.9	
239.76	4240.7	
239.97	2716.3	
240.18	2757.2	
240.39	5061.2	
240.6	4424.3	
240.82	2914.3	
241.03	2469.2	
241.24	4379.2	
241.45	4784.7	
241.66	2564.1	
241.87	2978.4	
242.09	4813.4	
242.3	4929.5	
242.51	2997.5	
242.72	2740.2	
242.93	4592.9	
243.14	4276.8	
243.36	3039.2	
243.57	3293.8	
243.78	4829.8	
243.99	4471.4	
244.2	2727.9	
244.41	2491.7	
244.63	4085	
244.84	4504.8	
245.05	2882.9	
245.26	2692.4	
245.47	4547.9	
245.68	4603.8	
245.9	3430.3	
246.11	2907.4	
246.32	4162.8	
246.53	4514.4	
246.74	4134.8	
246.95	2396.1	
247.16	4166.9	
247.38	4364.9	
247.59	2476.7	
247.8	2757.2	
248.01	4083	
248.22	4351.3	
248.43	2547.7	
248.64	2765.4	
248.86	4074.1	
249.07	4182	
249.28	2573.6	
249.49	2881.5	
249.7	4606.6	
249.91	4650.3	
250.12	2445.3	
250.34	2509.4	
250.55	4454.3	
250.76	4376.5	
250.97	2793.4	
251.18	2866.5	
251.39	4700.1	
251.6	4368.3	
251.81	2891	
252.03	2868.5	
252.24	4177.9	
252.45	4573.1	
252.66	2455.5	
252.87	2975.7	
253.08	4325.3	
253.29	5294	
253.5	2518.3	
253.72	3205.8	
253.93	4326	
254.14	4922.6	
254.35	2681.5	
254.56	2697.9	
254.77	4483	
254.98	4151.9	
255.19	2667.8	
255.41	3235.8	
255.62	4486.4	
255.83	4681.7	
256.04	2923.1	
256.25	2824.1	
256.46	5067.4	
256.67	4203.1	
256.88	2828.2	
257.09	3048.7	
257.31	4040.6	
257.52	4104.8	
257.73	3464.5	
257.94	2631.6	
258.15	4344.4	
258.36	4332.1	
258.57	3101.3	
258.78	2237.1	
258.99	4646.2	
259.2	4231.8	
259.41	2684.2	
259.63	2753.8	
259.84	4871.4	
260.05	5004.6	
260.26	3291.8	
260.47	2596.1	
260.68	4638	
260.89	4241.3	
261.1	3099.3	
261.31	2590.7	
261.52	4780	
261.73	4915.1	
261.95	3298.6	
262.16	2922.5	
262.37	4728.8	
262.58	4820.9	
262.79	3259.7	
263	2629.6	
263.21	4355.3	
263.42	4154	
263.63	2856.2	
263.84	2714.9	
264.05	4626.4	
264.26	4764.9	
264.47	3182.5	
264.69	2896.5	
264.9	4861.9	
265.11	4390.2	
265.32	2556.5	
265.53	2653.5	
265.74	4431.8	
265.95	3941	
266.16	2794.1	
266.37	2947	
266.58	4489.1	
266.79	4166.9	
267	2658.9	
267.21	2461	
267.42	4075.5	
267.63	4319.8	
267.84	2708.8	
268.06	2473.9	
268.27	4596.3	
268.48	4774.5	
268.69	2679.4	
268.9	3087.7	
269.11	4698	
269.32	3971.7	
269.53	2769.5	
269.74	2585.9	
269.95	4486.4	
270.16	3986.7	
270.37	2803.7	
270.58	3099.9	
270.79	4248.2	
271	4667.3	
271.21	2876	
271.42	2761.3	
271.63	4471.4	
271.84	3990.8	
272.05	2345.6	
272.26	2584.5	
272.47	4313	
272.68	4416.8	
272.89	2712.2	
273.11	2953.2	
273.32	4158.7	
273.53	4818.2	
273.74	2891	
273.95	2903.3	
274.16	4617.5	
274.37	4332.1	
274.58	2971.6	
274.79	2532	
275	4498	
275.21	4714.4	
275.42	3490.4	
275.63	3011.2	
275.84	4543.1	
276.05	5371.1	
276.26	2850.8	
276.47	2707.4	
276.68	4341	
276.89	4942.4	
277.1	3022.1	
277.31	2463.7	
277.52	4474.8	
277.73	4728.1	
277.94	2443.9	
278.15	2646	
278.36	4531.5	
278.57	4201.1	
278.78	2666.5	
278.99	2959.3	
279.2	4168.3	
279.41	4076.1	
279.62	3411.2	
279.83	2530.6	
280.04	5020.9	
280.25	4125.3	
280.46	3329.3	
280.67	2759.3	
280.88	4177.9	
281.09	4749.2	
281.3	2940.9	
281.51	3496.6	
281.72	4190.1	
281.93	4555.4	
282.14	2619.4	
282.35	2809.1	
282.56	4694.6	
282.77	4591.5	
282.98	2785.2	
283.19	3134.8	
283.4	5398.4	
283.61	4289.1	
283.82	2551.1	
284.03	3274.7	
284.24	4497.3	
284.45	4706.2	
284.66	3294.5	
284.87	3128.6	
285.08	4734.9	
285.29	4781.3	
285.5	2466.4	
285.71	2712.9	
285.92	4684.4	
286.12	5108.3	
286.33	3301.3	
286.54	2715.6	
286.75	4581.3	
286.96	4286.4	
287.17	2578.4	
287.38	3131.3	
287.59	4250.9	
287.8	4205.2	
288.01	2689	
288.22	2949.1	
288.43	4484.4	
288.64	3923.9	
288.85	3129.3	
289.06	3007.8	
289.27	4660.5	
289.48	4824.3	
289.69	3315	
289.9	3076.7	
290.11	4848.2	
290.32	4209.9	
290.53	3153.2	
290.74	2902	
290.94	4581.3	
291.15	4574.5	
291.36	2662.4	
291.57	2983.9	
291.78	4301.4	
291.99	4003.1	
292.2	2583.9	
292.41	2886.3	
292.62	4650.3	
292.83	4451.6	
293.04	3453.6	
293.25	2656.2	
293.46	4268	
293.67	4663.2	
293.88	2570.2	
294.09	2547.7	
294.29	4133.5	
294.5	4458.4	
294.71	2800.3	
294.92	2643.2	
295.13	4296	
295.34	5040.1	
295.55	2429.6	
295.76	2372.9	
295.97	4577.9	
296.18	5022.3	
296.39	2469.9	
296.6	2591.4	
296.81	4364.2	
297.01	4584	
297.22	2746.3	
297.43	2643.2	
297.64	4255	
297.85	4080.9	
298.06	2286.9	
298.27	2410.5	
298.48	4311	
298.69	4153.3	
298.9	2813.2	
299.11	2649.4	
299.31	4099.4	
299.52	4084.3	
299.73	3013.2	
299.94	2942.9	
300.15	4390.8	
300.36	4194.9	
300.57	2936.8	
300.78	2894.5	
300.99	4256.4	
301.2	4385.4	
301.4	2687.6	
301.61	2810.5	
301.82	4535.6	
302.03	4596.3	
302.24	3073.3	
302.45	2550.4	
302.66	4530.8	
302.87	4657.1	
303.08	2641.2	
303.29	3403.7	
303.49	4238.6	
303.7	4280.3	
303.91	2405.7	
304.12	3252.9	
304.33	4005.8	
304.54	4424.3	
304.75	2664.4	
304.96	2631	
305.16	4573.1	
305.37	4922	
305.58	2394.8	
305.79	2418	
306	4562.9	
306.21	3982.6	
306.42	2613.2	
306.63	3689.8	
306.83	4268	
307.04	4539	
307.25	2843.9	
307.46	2776.4	
307.67	3923.2	
307.88	4480.3	
308.09	2655.5	
308.29	2654.9	
308.5	4400.4	
308.71	4619.5	
308.92	2789.3	
309.13	2544.9	
309.34	4391.5	
309.55	4293.9	
309.75	3201	
309.96	2899.9	
310.17	4595	
310.38	4117.8	
310.59	2968.2	
310.8	2895.1	
311.01	4917.2	
311.21	4322.6	
311.42	2583.2	
311.63	2598.2	
311.84	4234.5	
312.05	4346.5	
312.26	2876	
312.46	3087	
312.67	4278.9	
312.88	4022.2	
313.09	2566.1	
313.3	2471.9	
313.51	4816.8	
313.71	5025	
313.92	2560	
314.13	2668.5	
314.34	4454.3	
314.55	4365.6	
314.76	3086.3	
314.96	2772.3	
315.17	4511	
315.38	4495.3	
315.59	2600.9	
315.8	2514.2	
316.01	4773.1	
316.21	4887.8	
316.42	2551.1	
316.63	2789.3	
316.84	4279.6	
317.05	4638	
317.26	2960	
317.46	2718.3	
317.67	4378.6	
317.88	4590.9	
318.09	3072.6	
318.3	2441.9	
318.5	4239.3	
318.71	4472.1	
318.92	3739.6	
319.13	2942.9	
319.34	4647.5	
319.54	4724.7	
319.75	2406.4	
319.96	2359.9	
320.17	4537.6	
320.38	4684.4	
320.58	2369.5	
320.79	2785.2	
321	4703.5	
321.21	4806.6	
321.42	2824.8	
321.62	2391.3	
321.83	4198.3	
322.04	4399	
322.25	2706	
322.46	2574.3	
322.66	4417.5	
322.87	4589.5	
323.08	3012.6	
323.29	2443.2	
323.5	5033.9	
323.7	4027.7	
323.91	3277.4	
324.12	2960	
324.33	4441.4	
324.53	4526.7	
324.74	2891.7	
324.95	2984.6	
325.16	4037.9	
325.37	4212	
325.57	2531.3	
325.78	2622.1	
325.99	4464.6	
326.2	4021.5	
326.4	3384.6	
326.61	2414.6	
326.82	4306.9	
327.03	4388.1	
327.24	3358	
327.44	3197.6	
327.65	4526.7	
327.86	3825.6	
328.07	2956.6	
328.27	2523.8	
328.48	4796.3	
328.69	4032.5	
328.9	3437.2	
329.1	2683.5	
329.31	4299.4	
329.52	4808.6	
329.73	2592.7	
329.93	2745	
330.14	4455	
330.35	4444.8	
330.56	3800.3	
330.76	3039.9	
330.97	4276.2	
331.18	4351.9	
331.39	2806.4	
331.59	2409.8	
331.8	4676.9	
332.01	4707.6	
332.22	2681.5	
332.42	2895.1	
332.63	4425	
332.84	4118.5	
333.05	2843.3	
333.25	2627.5	
333.46	4164.2	
333.67	4333.5	
333.88	2650.1	
334.08	2869.9	
334.29	5939.1	
334.5	4638	
334.7	2521	
334.91	3413.3	
335.12	4062.5	
335.33	4498	
335.53	2816.6	
335.74	3689.1	
335.95	4293.9	
336.16	4035.9	
336.36	2801.6	
336.57	3130	
336.78	3950.5	
336.98	4625	
337.19	3290.4	
337.4	2721.8	
337.61	5096.7	
337.81	4037.9	
338.02	2618.7	
338.23	3199.6	
338.43	4777.2	
338.64	4191.5	
338.85	2604.3	
339.05	3241.3	
339.26	4892.6	
339.47	4030.4	
339.68	2610.5	
339.88	3529.3	
340.09	4561.5	
340.3	4641.4	
340.5	2951.1	
340.71	2327.2	
340.92	4085.7	
341.13	4728.1	
341.33	2523.1	
341.54	2873.3	
341.75	4520.5	
341.95	4209.3	
342.16	2812.5	
342.37	2980.5	
342.57	4034.5	
342.78	4279.6	
342.99	3015.3	
343.19	2417.3	
343.4	4605.9	
343.61	4524	
343.81	2783.2	
344.02	2458.2	
344.23	4569	
344.43	4737.6	
344.64	3035.1	
344.85	3011.2	
345.06	4541.7	
345.26	4681	
345.47	2992.1	
345.68	3246.7	
345.88	4023.6	
346.09	4627.7	
346.3	2953.9	
346.5	2309.4	
346.71	4270.7	
346.92	4129.4	
347.12	2522.4	
347.33	2944.3	
347.54	4670.1	
347.74	4815.5	
347.95	2860.3	
348.16	2351.1	
348.36	4255.7	
348.57	4090.5	
348.78	2996.9	
348.98	3028.9	
349.19	4296.6	
349.39	3941.7	
349.6	2445.3	
349.81	2590	
350.01	4553.3	
350.22	4141.7	
350.43	2881.5	
350.63	3226.2	
350.84	4318.5	
351.05	4143.7	
351.25	2577	
351.46	2391.3	
351.67	4616.1	
351.87	4149.2	
352.08	2766.1	
352.29	3012.6	
352.49	4643.4	
352.7	4367	
352.9	2494.4	
353.11	3018.7	
353.32	4990.2	
353.52	4227.7	
353.73	2563.4	
353.94	3117.7	
354.14	4513	
354.35	4306.2	
354.55	2647.3	
354.76	2805	
354.97	4461.2	
355.17	4318.5	
355.38	2561.3	
355.59	3186.6	
355.79	4169.7	
356	4268	
356.2	2781.8	
356.41	2525.8	
356.62	4007.2	
356.82	4272.1	
357.03	3018	
357.24	2678.1	
357.44	4131.4	
357.65	4172.4	
357.85	3369.6	
358.06	2878.1	
358.27	3946.4	
358.47	4055.7	
358.68	2444.6	
358.88	2957.9	
359.09	4461.8	
359.3	4566.3	
359.5	3336.1	
359.71	3007.8	
359.91	4865.3	
360.12	4487.8	
360.33	2970.2	
360.53	3224.2	
360.74	4134.8	
360.94	4171.7	
361.15	3066.5	
361.36	2648	
361.56	4622.3	
361.77	4218.8	
361.97	3316.3	
362.18	2763.4	
362.38	4611.3	
362.59	4053.6	
362.8	2587.9	
363	2518.3	
363.21	3992.2	
363.41	4319.2	
363.62	2912.2	
363.83	3373	
364.03	4564.9	
364.24	4820.2	
364.44	3517	
364.65	3498.6	
364.85	4243.4	
365.06	4050.9	
365.27	2691	
365.47	2770.2	
365.68	4807.3	
365.88	4265.2	
366.09	2930.6	
366.29	2682.8	
366.5	4345.1	
366.71	4627	
366.91	3468.6	
367.12	2971.6	
367.32	5045.5	
367.53	4468.7	
367.73	3050.1	
367.94	3584.6	
368.14	4606.6	
368.35	4884.4	
368.56	2981.2	
368.76	2603.7	
368.97	4683.7	
369.17	5441.5	
369.38	2615.3	
369.58	2843.9	
369.79	3977.2	
369.99	4827.1	
370.2	3480.9	
370.4	2893.1	
370.61	4395.6	
370.82	5147.9	
371.02	2904.7	
371.23	2492.4	
371.43	4061.8	
371.64	4823.6	
371.84	2942.2	
372.05	3535.5	
372.25	5433.3	
372.46	4464.6	
372.66	2865.1	
372.87	2870.6	
373.07	4559.5	
373.28	5541.1	
373.48	3458.3	
373.69	3259	
373.9	4338.3	
374.1	4337.6	
374.31	3421.5	
374.51	3103.4	
374.72	4789.5	
374.92	4096.6	
375.13	3505.4	
375.33	3024.8	
375.54	4540.3	
375.74	4225	
375.95	3093.1	
376.15	3789.4	
376.36	4565.6	
376.56	4463.2	
376.77	3134.8	
376.97	3381.9	
377.18	5220.3	
377.38	4622.9	
377.59	3479.5	
377.79	2884.9	
378	4430.4	
378.2	4681.7	
378.41	2897.2	
378.61	2783.9	
378.82	4822.3	
379.02	4241.3	
379.23	2935.4	
379.43	3583.3	
379.64	5006.6	
379.84	4595.6	
380.05	2922.5	
380.25	2794.1	
380.46	4670.7	
380.66	4420.9	
380.87	3622.9	
381.07	3830.4	
381.28	5051	
381.48	4686.4	
381.69	2900.6	
381.89	2855.6	
382.1	4050.9	
382.3	4640.7	
382.51	3528.7	
382.71	4033.1	
382.91	4544.4	
383.12	4897.4	
383.32	3043.3	
383.53	3217.4	
383.73	4545.8	
383.94	4515.1	
384.14	3217.4	
384.35	2637.1	
384.55	4292.5	
384.76	4635.9	
384.96	3130.7	
385.17	3263.8	
385.37	4654.4	
385.58	4125.3	
385.78	3265.1	
385.98	2622.8	
386.19	4379.9	
386.39	4676.9	
386.6	2928.6	
386.8	3106.8	
387.01	4645.5	
387.21	4645.5	
387.42	3309.5	
387.62	3622.9	
387.83	4328	
388.03	4413.4	
388.23	3180.5	
388.44	3541.6	
388.64	4104.1	
388.85	4122.6	
389.05	3267.2	
389.26	3620.1	
389.46	5364.3	
389.67	4955.4	
389.87	3339.6	
390.07	3320.4	
390.28	4350.6	
390.48	4157.4	
390.69	2848	
390.89	3113.6	
391.1	4340.3	
391.3	4861.9	
391.5	3738.2	
391.71	4095.3	
391.91	4763.6	
392.12	5139	
392.32	3822.9	
392.53	3285.6	
392.73	4368.3	
392.93	4470	
393.14	3149.8	
393.34	3629.7	
393.55	4828.4	
393.75	4431.1	
393.95	3184.6	
394.16	3121.1	
394.36	4343.7	
394.57	4732.9	
394.77	2850.1	
394.98	3048.1	
395.18	4360.8	
395.38	4304.8	
395.59	3588	
395.79	2946.3	
396	4397.7	
396.2	4712.4	
396.4	3481.5	
396.61	3480.9	
396.81	4745.1	
397.02	4291.2	
397.22	3667.9	
397.42	3634.5	
397.63	4805.2	
397.83	4301.4	
398.04	3018	
398.24	3294.5	
398.44	4691.9	
398.65	4039.3	
398.85	2927.2	
399.05	2983.9	
399.26	4414.7	
399.46	5291.3	
399.67	3225.6	
399.87	3066.5	
400.07	4585.4	
400.28	4699.4	
400.48	3063.1	
400.69	3710.9	
400.89	5082.4	
401.09	5129.5	
401.3	3036.5	
401.5	3666.5	
401.7	5227.1	
401.91	5431.9	
402.11	3345	
402.32	3333.4	
402.52	4975.9	
402.72	4824.3	
402.93	3545	
403.13	2795.5	
403.33	5349.3	
403.54	4569	
403.74	3360	
403.94	3862.5	
404.15	4642.1	
404.35	5302.2	
404.56	3222.1	
404.76	4215.4	
404.96	4928.8	
405.17	4752	
405.37	3804.4	
405.57	3480.9	
405.78	4893.3	
405.98	4632.5	
406.18	3243.3	
406.39	3650.2	
406.59	4905.6	
406.79	4616.8	
407	3074.7	
407.2	3140.9	
407.4	5219.6	
407.61	5003.9	
407.81	3220.8	
408.01	4437.3	
408.22	4203.1	
408.42	5351.3	
408.62	3776.5	
408.83	3561.4	
409.03	4721.3	
409.23	4683.7	
409.44	3520.5	
409.64	3722.5	
409.84	5297.4	
410.05	5233.9	
410.25	3657.7	
410.45	3520.5	
410.66	4988.9	
410.86	6426.5	
411.06	3801.7	
411.27	3715.7	
411.47	6258.6	
411.67	5013.4	
411.88	3862.5	
412.08	4008.6	
412.28	5376.6	
412.49	5704.3	
412.69	3748.5	
412.89	3790.8	
413.09	5636.7	
413.3	5507.7	
413.5	3891.8	
413.7	3589.4	
413.91	5113.8	
414.11	5643.5	
414.31	3710.2	
414.52	3999	
414.72	5547.3	
414.92	5297.4	
415.12	3746.4	
415.33	4089.1	
415.53	5649.7	
415.73	5750	
415.94	4249.5	
416.14	3786.7	
416.34	5080.3	
416.55	4964.3	
416.75	4616.8	
416.95	4283	
417.15	5776	
417.36	6002.6	
417.56	4732.9	
417.76	4166.9	
417.97	5866.7	
418.17	5763	
418.37	3992.9	
418.57	3992.2	
418.78	5655.1	
418.98	5360.9	
419.18	4568.3	
419.38	4457.1	
419.59	5359.5	
419.79	5150	
419.99	3922.5	
420.2	4102.1	
420.4	5662.6	
420.6	5728.2	
420.8	3890.5	
421.01	3789.4	
421.21	5588.9	
421.41	5615.5	
421.61	4050.2	
421.82	3977.2	
422.02	5372.5	
422.22	5911.1	
422.42	4439.3	
422.63	4190.1	
422.83	5371.8	
423.03	6183.5	
423.23	4191.5	
423.44	3590.1	
423.64	5347.2	
423.84	5203.9	
424.04	3948.5	
424.25	3706.8	
424.45	5937.1	
424.65	5878.4	
424.85	3590.8	
425.06	3934.1	
425.26	6087.2	
425.46	5341.8	
425.66	4176.5	
425.87	4017.4	
426.07	5750	
426.27	5586.9	
426.47	4053.6	
426.67	3715	
426.88	6015.6	
427.08	5667.4	
427.28	4249.5	
427.48	3671.3	
427.69	5112.4	
427.89	5357.5	
428.09	4183.3	
428.29	3663.1	
428.5	5708.4	
428.7	5657.9	
428.9	3667.2	
429.1	3966.9	
429.3	5524.7	
429.51	5702.2	
429.71	3930.7	
429.91	4334.2	
430.11	5718.6	
430.31	6028.5	
430.52	4044.7	
430.72	4225	
430.92	6056.5	
431.12	5735.7	
431.32	3873.4	
431.53	4137.6	
431.73	5119.2	
431.93	6092.7	
432.13	3809.2	
432.33	3726.6	
432.54	5457.2	
432.74	5466.7	
432.94	3666.5	
433.14	4357.4	
433.34	5840.1	
433.55	5588.9	
433.75	4293.9	
433.95	5327.4	
434.15	5687.9	
434.35	5364.3	
434.56	3889.1	
434.76	3516.4	
434.96	5583.4	
435.16	5766.4	
435.36	3852.9	
435.56	4522.6	
435.77	5544.5	
435.97	5599.1	
436.17	4903.5	
436.37	4353.3	
436.57	5426.4	
436.78	5324	
436.98	5411.4	
437.18	4825	
437.38	5767.8	
437.58	5455.1	
437.78	4823	
437.99	4033.1	
438.19	5871.5	
438.39	6277	
438.59	4042	
438.79	3720.5	
438.99	6195.8	
439.2	5441.5	
439.4	3808.5	
439.6	3791.5	
439.8	5571.2	
440	6234	
440.2	4427	
440.4	4472.1	
440.61	5972.6	
440.81	6223.1	
441.01	3973.1	
441.21	4466.6	
441.41	6274.3	
441.61	5937.1	
441.81	4767	
442.02	5242.8	
442.22	6543.9	
442.42	6043.6	
442.62	4066.6	
442.82	4130.1	
443.02	6357.6	
443.22	5765.7	
443.43	4321.9	
443.63	4094.6	
443.83	5650.3	
444.03	5616.9	
444.23	4789.5	
444.43	4569	
444.63	5941.2	
444.83	6491.4	
445.04	4204.5	
445.24	4898.7	
445.44	6095.4	
445.64	6069.5	
445.84	4614.1	
446.04	4586.8	
446.24	5682.4	
446.44	6247.7	
446.65	4107.5	
446.85	4367	
447.05	5897.5	
447.25	6259.3	
447.45	4462.5	
447.65	4007.9	
447.85	5984.2	
448.05	5590.3	
448.25	4665.3	
448.46	4485.1	
448.66	5927.5	
448.86	5649	
449.06	3984.7	
449.26	4550.6	
449.46	6076.3	
449.66	5546.6	
449.86	4420.9	
450.06	4383.3	
450.26	5657.2	
450.47	6021.7	
450.67	4490.5	
450.87	4708.3	
451.07	6348	
451.27	5847	
451.47	4106.2	
451.67	4661.2	
451.87	5795.1	
452.07	6431.3	
452.27	4243.4	
452.47	4307.6	
452.67	6004.6	
452.88	6163.7	
453.08	3940.3	
453.28	4986.1	
453.48	6712.6	
453.68	5913.9	
453.88	4218.1	
454.08	4364.9	
454.28	6226.5	
454.48	6030.6	
454.68	4586.1	
454.88	4945.2	
455.08	6371.9	
455.28	6088.6	
455.48	4205.8	
455.68	4596.3	
455.89	6655.9	
456.09	6315.3	
456.29	4472.1	
456.49	4493.9	
456.69	6497.5	
456.89	6059.9	
457.09	4711	
457.29	4989.5	
457.49	6280.4	
457.69	6284.5	
457.89	4721.3	
458.09	4309.6	
458.29	6180.8	
458.49	6629.3	
458.69	4887.1	
458.89	4589.5	
459.09	6765.8	
459.29	6817	
459.49	4631.8	
459.69	5098.1	
459.9	6511.9	
460.1	6199.2	
460.3	4532.2	
460.5	4470	
460.7	6528.2	
460.9	6164.4	
461.1	4293.2	
461.3	5059.2	
461.5	6864.1	
461.7	6675.7	
461.9	4616.1	
462.1	4865.3	
462.3	6447	
462.5	6706.4	
462.7	4771.8	
462.9	4674.1	
463.1	7325.6	
463.3	7148.1	
463.5	4930.8	
463.7	5406	
463.9	6631.3	
464.1	6783.6	
464.3	5061.2	
464.5	5098.8	
464.7	6874.3	
464.9	6785.6	
465.1	5758.2	
465.3	5368.4	
465.5	7127.6	
465.7	7182.2	
465.9	5563	
466.1	5285.8	
466.3	7031.4	
466.5	6923.5	
466.7	5938.4	
466.9	5276.9	
467.1	7142.6	
467.3	7561.1	
467.5	5965.1	
467.7	5265.3	
467.9	7694.2	
468.1	8043.7	
468.3	5727.5	
468.5	5913.9	
468.7	6995.2	
468.9	6891.4	
469.1	5429.8	
469.3	5826.5	
469.5	8088.1	
469.7	6754.2	
469.9	5760.3	
470.1	5298.1	
470.3	7132.4	
470.5	7058.7	
470.7	6114.6	
470.9	5402.5	
471.1	6907.1	
471.3	7216.4	
471.5	5276.3	
471.69	6404	
471.89	6875	
472.09	6526.2	
472.29	5726.8	
472.49	5945.3	
472.69	6670.9	
472.89	7056.6	
473.09	5279	
473.29	5347.9	
473.49	6855.2	
473.69	6756.2	
473.89	5838.1	
474.09	5369.8	
474.29	7606.8	
474.49	7358.4	
474.69	5840.1	
474.89	5572.5	
475.09	6855.9	
475.29	6830.7	
475.49	5118.6	
475.69	5274.2	
475.88	7734.5	
476.08	7101.7	
476.28	5087.8	
476.48	5268.7	
476.68	7366.5	
476.88	7065.5	
477.08	5291.3	
477.28	5379.3	
477.48	6980.2	
477.68	7159	
477.88	5162.9	
478.08	5296	
478.28	7524.2	
478.48	6967.2	
478.67	5425.1	
478.87	4957.4	
479.07	7379.5	
479.27	6999.3	
479.47	5522.7	
479.67	5556.8	
479.87	7251.2	
480.07	7484	
480.27	5102.9	
480.47	5937.1	
480.67	7034.1	
480.87	7406.1	
481.06	5296.7	
481.26	5823.1	
481.46	7122.2	
481.66	6995.9	
481.86	5612.8	
482.06	6081.8	
482.26	6886.6	
482.46	7352.9	
482.66	5510.4	
482.86	5294	
483.05	7209.5	
483.25	6708.5	
483.45	6909.8	
483.65	5374.6	
483.85	6791.7	
484.05	7044.3	
484.25	5710.4	
484.45	6012.8	
484.65	7415	
484.84	7456	
485.04	5511.1	
485.24	5450.3	
485.44	7826	
485.64	6711.9	
485.84	5138.4	
486.04	5872.2	
486.24	7040.9	
486.44	7161.1	
486.63	5144.5	
486.83	5666.7	
487.03	6969.9	
487.23	7137.2	
487.43	5180	
487.63	6484.6	
487.83	7232.7	
488.02	7494.9	
488.22	5775.3	
488.42	6196.5	
488.62	7766.6	
488.82	7044.3	
489.02	5586.9	
489.22	5616.9	
489.41	7561.1	
489.61	7462.1	
489.81	5457.8	
490.01	5526.1	
490.21	7600.7	
490.41	8027.4	
490.61	5484.5	
490.8	5538.4	
491	7283.9	
491.2	6922.8	
491.4	5890	
491.6	5491.3	
491.8	7406.1	
491.99	7264.8	
492.19	5278.3	
492.39	5360.2	
492.59	7567.9	
492.79	7688.8	
492.99	5974.6	
493.18	5486.5	
493.38	7806.2	
493.58	8159.1	
493.78	5881.8	
493.98	5739.8	
494.18	7555	
494.37	7125.6	
494.57	6143.2	
494.77	5991	
494.97	7733.8	
495.17	7927.7	
495.37	5863.3	
495.56	6098.2	
495.76	7987.8	
495.96	7838.3	
496.16	6678.4	
496.36	6019.7	
496.55	8074.5	
496.75	7726.3	
496.95	6290.7	
497.15	6255.9	
497.35	8027.4	
497.54	7888.8	
497.74	6118.6	
497.94	7111.2	
498.14	8489.5	
498.34	8308.6	
498.53	5937.7	
498.73	6322.1	
498.93	7583.6	
499.13	8005.5	
499.33	6364.4	
499.52	6617.7	
499.72	8159.8	
499.92	8106.5	
500.12	6128.2	
500.32	6339.1	
500.51	8247.2	
500.71	7972.1	
500.91	6787.7	
501.11	6477	
501.31	8154.3	
501.5	8444.5	
501.7	7018.4	
501.9	6331.6	
502.1	8084.7	
502.29	8240.3	
502.49	6567.2	
502.69	6858.6	
502.89	8124.3	
503.09	8243.8	
503.28	6044.2	
503.48	6130.3	
503.68	7765.2	
503.88	7719.5	
504.07	6657.3	
504.27	6392.4	
504.47	7977.5	
504.67	7993.2	
504.86	6565.8	
505.06	6420.4	
505.26	7905.2	
505.46	8695	
505.65	6252.4	
505.85	6425.8	
506.05	7738.6	
506.25	8072.4	
506.44	5913.9	
506.64	6333	
506.84	7610.9	
507.04	8028	
507.23	6008.1	
507.43	6324.8	
507.63	8645.8	
507.83	7589.8	
508.02	6320.7	
508.22	6090	
508.42	8865	
508.62	7522.9	
508.81	6398.5	
509.01	6585.6	
509.21	7499.7	
509.4	7765.2	
509.6	6382.8	
509.8	5998.5	
510	7650.5	
510.19	8314.1	
510.39	5899.5	
510.59	6019.7	
510.79	7628.7	
510.98	8447.2	
511.18	6150.7	
511.38	6198.5	
511.57	8237.6	
511.77	7826.7	
511.97	6513.2	
512.17	6004.6	
512.36	8122.2	
512.56	7888.1	
512.76	6040.1	
512.95	5823.7	
513.15	8157.7	
513.35	7254.6	
513.55	6479.1	
513.74	6008.7	
513.94	8152.3	
514.14	7756.3	
514.33	6590.4	
514.53	6445	
514.73	7837.6	
514.92	7815	
515.12	6118	
515.32	6032.6	
515.51	7967.3	
515.71	8030.8	
515.91	7010.2	
516.11	6048.3	
516.3	8865.7	
516.5	7709.9	
516.7	6427.2	
516.89	6723.5	
517.09	7844.4	
517.29	7851.2	
517.48	6593.8	
517.68	6178	
517.88	7442.3	
518.07	7962.5	
518.27	6513.2	
518.47	6025.1	
518.66	8250.6	
518.86	7623.2	
519.06	5872.2	
519.25	6118.6	
519.45	7667.6	
519.65	8583	
519.84	6560.3	
520.04	7026.6	
520.24	8775.5	
520.43	8132.5	
520.63	6371.9	
520.83	6264.1	
521.02	7736.5	
521.22	7960.5	
521.42	6545.3	
521.61	6818.4	
521.81	7778.9	
522.01	7880.6	
522.2	6473.6	
522.4	6264.1	
522.6	8253.3	
522.79	7366.5	
522.99	6348.7	
523.18	5954.1	
523.38	8045.1	
523.58	7992.5	
523.77	7150.1	
523.97	6081.1	
524.17	9068.4	
524.36	8761.2	
524.56	6980.8	
524.76	6739.2	
524.95	8188.5	
525.15	7952.3	
525.34	6563.7	
525.54	6595.1	
525.74	8524.3	
525.93	7914	
526.13	7316	
526.33	6762.4	
526.52	8694.3	
526.72	8342.7	
526.91	7419.8	
527.11	6998.6	
527.31	8657.4	
527.5	8830.2	
527.7	6933.1	
527.89	6432.7	
528.09	8142	
528.29	8481.3	
528.48	7295.5	
528.68	6995.2	
528.87	8672.5	
529.07	8761.2	
529.27	6950.8	
529.46	6752.2	
529.66	8572.8	
529.85	8817.2	
530.05	6609.5	
530.25	7021.1	
530.44	9314.2	
530.64	8438.3	
530.83	6838.9	
531.03	6961	
531.23	8893	
531.42	8587.1	
531.62	7361.1	
531.81	6961	
532.01	8820.6	
532.21	9084.8	
532.4	6909.2	
532.6	7037.5	
532.79	9433.6	
532.99	9013.1	
533.18	7295.5	
533.38	7795.3	
533.58	8817.2	
533.77	9034.3	
533.97	7217.7	
534.16	7657.4	
534.36	9431.6	
534.55	8768	
534.75	7767.3	
534.95	7326.9	
535.14	9368.8	
535.34	8817.9	
535.53	7105.8	
535.73	8180.3	
535.92	9664.4	
536.12	8850	
536.31	7203.4	
536.51	7897.7	
536.71	9083.4	
536.9	8687.5	
537.1	7108.5	
537.29	7325.6	
537.49	9282.8	
537.68	8725	
537.88	7508.5	
538.07	7038.2	
538.27	8950.3	
538.46	9508.7	
538.66	6987.7	
538.86	7324.2	
539.05	9009	
539.25	9206.3	
539.44	7512.6	
539.64	7201.3	
539.83	8860.2	
540.03	9430.2	
540.22	7138.5	
540.42	7244.3	
540.61	9063.6	
540.81	9151.7	
541	7412.3	
541.2	7831.4	
541.39	8723.7	
541.59	8836.3	
541.78	7667.6	
541.98	7176.8	
542.18	8561.9	
542.37	8533.9	
542.57	7290.8	
542.76	7712.7	
542.96	8464.3	
543.15	8884.1	
543.35	7368.6	
543.54	6946.7	
543.74	8662.9	
543.93	8732.5	
544.13	7154.2	
544.32	7846.5	
544.52	8960.5	
544.71	8416.5	
544.91	6677.7	
545.1	7354.3	
545.3	8468.4	
545.49	8771.5	
545.69	6705.7	
545.88	6952.9	
546.08	9497.8	
546.27	9131.2	
546.47	7260	
546.66	6886	
546.86	8923.7	
547.05	9183.1	
547.24	6997.9	
547.44	6863.4	
547.63	8434.9	
547.83	8940.7	
548.02	7060.7	
548.22	7286	
548.41	8275.2	
548.61	8988.5	
548.8	6817	
549	6883.2	
549.19	8688.2	
549.39	8770.8	
549.58	6651.8	
549.78	7023.2	
549.97	8831.5	
550.17	8393.3	
550.36	7457.3	
550.55	7976.8	
550.75	8460.8	
550.94	9007.6	
551.14	6812.9	
551.33	6974.7	
551.53	8069	
551.72	8652	
551.92	7049.8	
552.11	6870.9	
552.31	8825.4	
552.5	8668.4	
552.69	7770.7	
552.89	6616.3	
553.08	8625.4	
553.28	8462.2	
553.47	6823.8	
553.67	7450.5	
553.86	8946.9	
554.06	8017.8	
554.25	6393.8	
554.44	6656.6	
554.64	9421.3	
554.83	9122.3	
555.03	6722.8	
555.22	6953.5	
555.42	8761.9	
555.61	8693.6	
555.8	6809.5	
556	6853.9	
556.19	8107.9	
556.39	8654	
556.58	6779.5	
556.78	6793.1	
556.97	8580.3	
557.16	8314.1	
557.36	7452.6	
557.55	6570.6	
557.75	7975.5	
557.94	8949.6	
558.13	6663.4	
558.33	6484.6	
558.52	8914.1	
558.72	8054.7	
558.91	6600.6	
559.1	6617	
559.3	7919.5	
559.49	7857.4	
559.69	6406.7	
559.88	6863.4	
560.07	8387.8	
560.27	8738.7	
560.46	7014.3	
560.66	7017	
560.85	8441	
561.04	7808.9	
561.24	6470.9	
561.43	6614.3	
561.63	7975.5	
561.82	8139.3	
562.01	7275.8	
562.21	6726.2	
562.4	8390.5	
562.59	8834.3	
562.79	6708.5	
562.98	6483.2	
563.18	8354.3	
563.37	9142.1	
563.56	6952.2	
563.76	6464.8	
563.95	8039	
564.14	8096.3	
564.34	6849.1	
564.53	6564.4	
564.73	8447.2	
564.92	8452	
565.11	6871.6	
565.31	6421.1	
565.5	8753	
565.69	7987.8	
565.89	6703	
566.08	6721.4	
566.27	8705.2	
566.47	8885.5	
566.66	7200.7	
566.85	6358.3	
567.05	8520.9	
567.24	8165.9	
567.44	6578.8	
567.63	7364.5	
567.82	8611.7	
568.02	8421.9	
568.21	6632	
568.4	6802.7	
568.6	8422.6	
568.79	8214.4	
568.98	6606.1	
569.18	6568.5	
569.37	8401.5	
569.56	9468.4	
569.76	6821.8	
569.95	7426.6	
570.14	8615.1	
570.34	8488.1	
570.53	6582.2	
570.72	6563.7	
570.91	8915.5	
571.11	8378.9	
571.3	6924.9	
571.49	7370	
571.69	8369.4	
571.88	8003.5	
572.07	7085.3	
572.27	7028.6	
572.46	7996.6	
572.65	8657.4	
572.85	6662	
573.04	6884.6	
573.23	8893	
573.43	8364.6	
573.62	6619.7	
573.81	6942.6	
574	8522.3	
574.2	8335.2	
574.39	6748.1	
574.58	6860	
574.78	8987.2	
574.97	8634.9	
575.16	7157.7	
575.36	7257.3	
575.55	8933.2	
575.74	8882.7	
575.93	6617	
576.13	7178.8	
576.32	8478.6	
576.51	8824.7	
576.71	6957.6	
576.9	7750.2	
577.09	9053.4	
577.28	8716.2	
577.48	7158.3	
577.67	6683.9	
577.86	8547.5	
578.05	8712.1	
578.25	6980.2	
578.44	7030.7	
578.63	8615.1	
578.83	9301.2	
579.02	6690.7	
579.21	7597.3	
579.4	8772.1	
579.6	8534.6	
579.79	7083.9	
579.98	8434.9	
580.17	8869.1	
580.37	9090.9	
580.56	6856.6	
580.75	7236.2	
580.94	9060.9	
581.14	9290.3	
581.33	7506.5	
581.52	6983.6	
581.71	8787.8	
581.91	9263	
582.1	6793.8	
582.29	7060.7	
582.48	8666.3	
582.68	8637.6	
582.87	7338.6	
583.06	7245	
583.25	8957.8	
583.45	8363.2	
583.64	7506.5	
583.83	7892.9	
584.02	8681.3	
584.21	9005.6	
584.41	7542.7	
584.6	7123.5	
584.79	8737.3	
584.98	9050.7	
585.18	6936.5	
585.37	6916	
585.56	8683.4	
585.75	8940.7	
585.94	6951.5	
586.14	7375.4	
586.33	9203.6	
586.52	8684.8	
586.71	7251.2	
586.91	7069.6	
587.1	8322.9	
587.29	8989.2	
587.48	6972.7	
587.67	6921.5	
587.87	8880	
588.06	8666.3	
588.25	7670.3	
588.44	7218.4	
588.63	8529.8	
588.83	8824	
589.02	6959.7	
589.21	6852.5	
589.4	8482.7	
589.59	8310	
589.78	6356.2	
589.98	6364.4	
590.17	7969.3	
590.36	8164.6	
590.55	6036.7	
590.74	6337.1	
590.94	8785.1	
591.13	8022.6	
591.32	6274.3	
591.51	6002.6	
591.7	8252.6	
591.89	7897.7	
592.09	6027.9	
592.28	6266.8	
592.47	7486.7	
592.66	8746.9	
592.85	6105.7	
593.05	6327.5	
593.24	7999.4	
593.43	8536.6	
593.62	6266.1	
593.81	6559.6	
594	8034.2	
594.19	8084.7	
594.39	6331.6	
594.58	6242.2	
594.77	8267	
594.96	8367.3	
595.15	6232	
595.34	6556.2	
595.54	8052.6	
595.73	7691.5	
595.92	5896.1	
596.11	6374	
596.3	8346.2	
596.49	7656.7	
596.68	6328.9	
596.88	6528.2	
597.07	8213	
597.26	7559.1	
597.45	6051.1	
597.64	6722.8	
597.83	7743.4	
598.02	8091.5	
598.22	6107.7	
598.41	6525.5	
598.6	8061.5	
598.79	7699.7	
598.98	6102.3	
599.17	6640.2	
599.36	7965.2	
599.55	8531.2	
599.74	7230.7	
599.94	7117.4	
600.13	8325.7	
600.32	7585.7	
600.51	5973.2	
600.7	6063.4	
600.89	8552.3	
601.08	8666.3	
601.27	5924.8	
601.47	6348.7	
601.66	8185.7	
601.85	8520.9	
602.04	6398.5	
602.23	6417.7	
602.42	7641.7	
602.61	8021.2	
602.8	6163.7	
602.99	6122.1	
603.18	7817.1	
603.37	7862.8	
603.57	6419.7	
603.76	6784.2	
603.95	8376.9	
604.14	8086.7	
604.33	6241.5	
604.52	6338.5	
604.71	8008.2	
604.9	7729.7	
605.09	6751.5	
605.28	6527.6	
605.47	8372.8	
605.66	7983.7	
605.86	6444.3	
606.05	6135.7	
606.24	8387.1	
606.43	7489.4	
606.62	6466.8	
606.81	6689.3	
607	8173.4	
607.19	7724.3	
607.38	6027.2	
607.57	6065.4	
607.76	7602.1	
607.95	7296.2	
608.14	6426.5	
608.33	6721.4	
608.52	7633.5	
608.72	8111.3	
608.91	5898.2	
609.1	5846.3	
609.29	7780.9	
609.48	7395.2	
609.67	6478.4	
609.86	5933	
610.05	7519.5	
610.24	7613.7	
610.43	5872.2	
610.62	5631.2	
610.81	8297.7	
611	8175.5	
611.19	5930.2	
611.38	6336.4	
611.57	7847.1	
611.76	8456.7	
611.95	5769.8	
612.14	5750.7	
612.33	7696.9	
612.52	7436.9	
612.71	6057.2	
612.9	5716.6	
613.09	7230	
613.28	8654.7	
613.47	6042.2	
613.66	6395.8	
613.85	7813.7	
614.04	7397.3	
614.24	5968.5	
614.43	5575.3	
614.62	7921.5	
614.81	7799.3	
615	6322.1	
615.19	6194.4	
615.38	7372	
615.57	7718.8	
615.76	6237.4	
615.95	6790.4	
616.14	7982.3	
616.33	7689.4	
616.52	6358.9	
616.71	6438.1	
616.9	7839.6	
617.09	7734.5	
617.28	6009.4	
617.47	6620.4	
617.66	7428	
617.85	7385	
618.04	6593.8	
618.22	6176	
618.41	7520.1	
618.6	8209.6	
618.79	6269.5	
618.98	6048.3	
619.17	8273.1	
619.36	7301.7	
619.55	6254.5	
619.74	6217	
619.93	7864.2	
620.12	7521.5	
620.31	6515.3	
620.5	6722.8	
620.69	8153	
620.88	8553.7	
621.07	7004.7	
621.26	6511.2	
621.45	8054.7	
621.64	7987.8	
621.83	6573.3	
622.02	6087.2	
622.21	8109.3	
622.4	7991.2	
622.59	6899.6	
622.78	6871.6	
622.97	7831.4	
623.16	8322.3	
623.35	6617	
623.54	6065.4	
623.72	7839.6	
623.91	7931.8	
624.1	6793.1	
624.29	5940.5	
624.48	8624	
624.67	8185	
624.86	6604.7	
625.05	6154.8	
625.24	8665	
625.43	7861.5	
625.62	7602.1	
625.81	6286.6	
626	8247.2	
626.19	7912	
626.38	6730.3	
626.56	6399.2	
626.75	7741.3	
626.94	8157.1	
627.13	6645	
627.32	6040.1	
627.51	8254	
627.7	8701.8	
627.89	6016.2	
628.08	6748.7	
628.27	7549.5	
628.46	7804.8	
628.65	6236.1	
628.83	5860.6	
629.02	8124.3	
629.21	7657.4	
629.4	6436.8	
629.59	6546.7	
629.78	7656	
629.97	8191.2	
630.16	6584.2	
630.35	6311.8	
630.54	8568.7	
630.72	8333.2	
630.91	6309.8	
631.1	6481.8	
631.29	7961.1	
631.48	7957.7	
631.67	6636.8	
631.86	6339.8	
632.05	7959.1	
632.24	7844.4	
632.42	6162.3	
632.61	6409.5	
632.8	7858.1	
632.99	7631.4	
633.18	6508.4	
633.37	6701.6	
633.56	8083.3	
633.75	7923.6	
633.93	6582.9	
634.12	6314.6	
634.31	8543.4	
634.5	8195.3	
634.69	6361	
634.88	6575.3	
635.07	7913.4	
635.25	8198.7	
635.44	6841.6	
635.63	6924.2	
635.82	7851.9	
636.01	7161.7	
636.2	6829.3	
636.39	6512.5	
636.57	8548.2	
636.76	8040.3	
636.95	6219.7	
637.14	6895.5	
637.33	7980.9	
637.52	8480	
637.7	6020.3	
637.89	6650.4	
638.08	7923.6	
638.27	8573.5	
638.46	6651.8	
638.65	6810.2	
638.83	8694.3	
639.02	7659.4	
639.21	6546	
639.4	6852.5	
639.59	7908.6	
639.78	7770	
639.96	6059.9	
640.15	6206.7	
640.34	7843.7	
640.53	7763.8	
640.72	6049	
640.91	6273.6	
641.09	7496.2	
641.28	8301.8	
641.47	6308.4	
641.66	6591	
641.85	7909.9	
642.03	7879.9	
642.22	6374	
642.41	6155.5	
642.6	7501.7	
642.79	7139.9	
642.97	6094.8	
643.16	6438.8	
643.35	7410.2	
643.54	7326.9	
643.73	5940.5	
643.91	6351.4	
644.1	7247.1	
644.29	7684.7	
644.48	5957.5	
644.67	5905.7	
644.85	7197.9	
645.04	7549.5	
645.23	5744.6	
645.42	6050.4	
645.6	7290.1	
645.79	7872.4	
645.98	5798.5	
646.17	5261.9	
646.36	6984.9	
646.54	7258.7	
646.73	6148.7	
646.92	5577.3	
647.11	7010.2	
647.29	7589.8	
647.48	5552.7	
647.67	5413.5	
647.86	7773.4	
648.05	7727.7	
648.23	5700.2	
648.42	6451.8	
648.61	7387	
648.8	7230	
648.98	5466	
649.17	5741.8	
649.36	6935.1	
649.55	6712.6	
649.73	5531.6	
649.92	5962.3	
650.11	6929.6	
650.3	7092.8	
650.48	5575.9	
650.67	5573.9	
650.86	7357.7	
651.05	6621.1	
651.23	5474.9	
651.42	5429.2	
651.61	6920.1	
651.79	6948.1	
651.98	5640.1	
652.17	5425.1	
652.36	7203.4	
652.54	6664.1	
652.73	5475.6	
652.92	5360.2	
653.11	7202.7	
653.29	7318.8	
653.48	5114.5	
653.67	5595.7	
653.85	7053.2	
654.04	7651.2	
654.23	5688.6	
654.42	5431.9	
654.6	6728.3	
654.79	7140.6	
654.98	5078.3	
655.16	5381.4	
655.35	6436.8	
655.54	6279.8	
655.73	5115.1	
655.91	4956.1	
656.1	6905.1	
656.29	6212.2	
656.47	4770.4	
656.66	5739.8	
656.85	6585.6	
657.03	6555.5	
657.22	5163.6	
657.41	5195	
657.59	6600.6	
657.78	6526.2	
657.97	4977.9	
658.16	5406	
658.34	7015	
658.53	7273	
658.72	5937.7	
658.9	6128.2	
659.09	6808.8	
659.28	6791.7	
659.46	5257.8	
659.65	5222.3	
659.84	6550.8	
660.02	6973.3	
660.21	5255.8	
660.4	5137	
660.58	7191.8	
660.77	6793.1	
660.96	5556.1	
661.14	4902.8	
661.33	7493.5	
661.52	7402	
661.7	4967	
661.89	6827.9	
662.08	6577.4	
662.26	6215.6	
662.45	5081	
662.64	5168.4	
662.82	7021.8	
663.01	6470.9	
663.2	5143.8	
663.38	5593	
663.57	6922.8	
663.75	6815	
663.94	5277.6	
664.13	6029.2	
664.31	6576.7	
664.5	6890	
664.69	5542.5	
664.87	5788.2	
665.06	6410.8	
665.25	6740.5	
665.43	5833.3	
665.62	5864	
665.8	6948.1	
665.99	6550.1	
666.18	5329.5	
666.36	5408	
666.55	7001.3	
666.74	6837.5	
666.92	5169.8	
667.11	6048.3	
667.29	6683.9	
667.48	6876.4	
667.67	5773.2	
667.85	5259.9	
668.04	6506.4	
668.22	6588.3	
668.41	5298.1	
668.6	5581.4	
668.78	6380.1	
668.97	6559.6	
669.15	5585.5	
669.34	4876.9	
669.53	6448.4	
669.71	6662	
669.9	5005.9	
670.08	5345.2	
670.27	6327.5	
670.46	6776	
670.64	5496.7	
670.83	5695.4	
671.01	6313.9	
671.2	6627.9	
671.38	5101.5	
671.57	5020.3	
671.76	7099.6	
671.94	7382.2	
672.13	4999.1	
672.31	5537.7	
672.5	6933.7	
672.69	6419	
672.87	5074.2	
673.06	5216.2	
673.24	6777.4	
673.43	6488	
673.61	5440.1	
673.8	5198.4	
673.98	6843.6	
674.17	6894.1	
674.36	5579.3	
674.54	5470.8	
674.73	6558.3	
674.91	6897.6	
675.1	5315.2	
675.28	4992.3	
675.47	6589.7	
675.65	6855.2	
675.84	5248.9	
676.03	5373.2	
676.21	6462.7	
676.4	6073.6	
676.58	5583.4	
676.77	5534.3	
676.95	7365.2	
677.14	6493.4	
677.32	4980.7	
677.51	4974.5	
677.69	6906.4	
677.88	6300.9	
678.06	4993.6	
678.25	5048.9	
678.44	6559.6	
678.62	6396.5	
678.81	4911	
678.99	5406.6	
679.18	6999.3	
679.36	6726.9	
679.55	5238	
679.73	5474.2	
679.92	6720.1	
680.1	6458.6	
680.29	5862.7	
680.47	5144.5	
680.66	6419.7	
680.84	6860	
681.03	4771.8	
681.21	5405.3	
681.4	6430.6	
681.58	6427.9	
681.77	5127.4	
681.95	5020.3	
682.14	6835.4	
682.32	7087.3	
682.51	5482.4	
682.69	4842.1	
682.88	6342.6	
683.06	6621.1	
683.25	5340.4	
683.43	5657.9	
683.62	6612.2	
683.8	6718.7	
683.99	5718.6	
684.17	5240.8	
684.36	7170.6	
684.54	6461.3	
684.73	4799.8	
684.91	4780	
685.1	6656.6	
685.28	6148.7	
685.46	5100.8	
685.65	5056.4	
685.83	6534.4	
686.02	6139.8	
686.2	4670.7	
686.39	4734.2	
686.57	5879.7	
686.76	6810.2	
686.94	4814.8	
687.13	4874.2	
687.31	6393.8	
687.5	6211.5	
687.68	4566.3	
687.86	5188.2	
688.05	7247.8	
688.23	5963.7	
688.42	5267.4	
688.6	4808.6	
688.79	6172.6	
688.97	6219	
689.16	5066	
689.34	4521.9	
689.52	6516	
689.71	6770.6	
689.89	5285.1	
690.08	4900.8	
690.26	6440.9	
690.45	6185.5	
690.63	5295.4	
690.81	4995.7	
691	6345.3	
691.18	6204.7	
691.37	5077.6	
691.55	6245.6	
691.74	6107.7	
691.92	7200	
692.1	5003.2	
692.29	4733.5	
692.47	6440.2	
692.66	5915.2	
692.84	4840.7	
693.02	5037.3	
693.21	5939.1	
693.39	6322.8	
693.58	5162.9	
693.76	4782	
693.94	6951.5	
694.13	6812.9	
694.31	4949.3	
694.5	5500.2	
694.68	6197.2	
694.86	6449.1	
695.05	5136.3	
695.23	5385.5	
695.42	6636.1	
695.6	7894.2	
695.78	5495.4	
695.97	4971.1	
696.15	6783.6	
696.34	6363.7	
696.52	4886.5	
696.7	5362.3	
696.89	6574.7	
697.07	6169.8	
697.25	5206.6	
697.44	5978	
697.62	6507.8	
697.81	6593.8	
697.99	5001.1	
698.17	5348.6	
698.36	6225.8	
698.54	6473.6	
698.72	5199.8	
698.91	4721.3	
699.09	6226.5	
699.28	6133.7	
699.46	4988.2	
699.64	4930.1	
699.83	6217.6	
700.01	6638.8	
700.19	5461.9	
700.38	4526.7	
700.56	6718.7	
700.74	6264.1	
700.93	4694.6	
701.11	5200.5	
701.29	6511.2	
701.48	7197.9	
701.66	4866	
701.84	4933.6	
702.03	6338.5	
702.21	6779.5	
702.39	4735.6	
702.58	5042.8	
702.76	6607.4	
702.94	6677.7	
703.13	4678.9	
703.31	6037.4	
703.49	6283.9	
703.68	6884.6	
703.86	4827.1	
704.04	5371.8	
704.23	6522.8	
704.41	6682.5	
704.59	4999.1	
704.78	5499.5	
704.96	7397.9	
705.14	6677.1	
705.33	4699.4	
705.51	5190.2	
705.69	6305	
705.87	6868.9	
706.06	5378.6	
706.24	4737.6	
706.42	6558.3	
706.61	6713.9	
706.79	5459.2	
706.97	4760.8	
707.16	6248.4	
707.34	6554.2	
707.52	5369.8	
707.7	4924.7	
707.89	6249.7	
708.07	6087.2	
708.25	5382.7	
708.44	5445.5	
708.62	6172.6	
708.8	6920.8	
708.98	5530.2	
709.17	4942.4	
709.35	6432.7	
709.53	6395.8	
709.72	4786.1	
709.9	4829.1	
710.08	6732.4	
710.26	6662.7	
710.45	5644.9	
710.63	4947.9	
710.81	6354.8	
710.99	6431.3	
711.18	5302.9	
711.36	4867.3	
711.54	6272.9	
711.72	6681.8	
711.91	5017.5	
712.09	4696	
712.27	6434	
712.45	6599.9	
712.64	5132.2	
712.82	4484.4	
713	6064	
713.18	6189	
713.37	4489.1	
713.55	5215.5	
713.73	6602	
713.91	5732.9	
714.1	4671.4	
714.28	4369.7	
714.46	6205.3	
714.64	5769.1	
714.83	3998.3	
715.01	4369	
715.19	5733.6	
715.37	5236	
715.55	4127.3	
715.74	4292.5	
715.92	6098.2	
716.1	4878.9	
716.28	4864.6	
716.47	4291.2	
716.65	5397.8	
716.83	5354.8	
717.01	4148.5	
717.19	4203.8	
717.38	6462	
717.56	5183.4	
717.74	4347.2	
717.92	3895.9	
718.1	5892.7	
718.29	5419.6	
718.47	3677.5	
718.65	4115.7	
718.83	5949.3	
719.01	5881.1	
719.2	3719.8	
719.38	4388.1	
719.56	5748.6	
719.74	6684.6	
719.92	4215.4	
720.11	4713.7	
720.29	5897.5	
720.47	5302.9	
720.65	3846.1	
720.83	4364.2	
721.02	5437.4	
721.2	5273.5	
721.38	4332.8	
721.56	3867.2	
721.74	4998.4	
721.92	5018.2	
722.11	4569.7	
722.29	4325.3	
722.47	5838.1	
722.65	5274.9	
722.83	3885	
723.01	4261.8	
723.2	5296	
723.38	5490.6	
723.56	3545.7	
723.74	4250.9	
723.92	5003.9	
724.1	5677.7	
724.29	3821.5	
724.47	4436.6	
724.65	5178.6	
724.83	5030.5	
725.01	3768.3	
725.19	4127.3	
725.37	5067.4	
725.56	4979.3	
725.74	3650.2	
725.92	3772.4	
726.1	5051	
726.28	5208	
726.46	3968.3	
726.64	3820.1	
726.83	5274.2	
727.01	5372.5	
727.19	3642.7	
727.37	4158.7	
727.55	5344.5	
727.73	5588.9	
727.91	3666.5	
728.09	3520.5	
728.28	5612.1	
728.46	5692	
728.64	4178.5	
728.82	4108.9	
729	6156.2	
729.18	5788.9	
729.36	3633.8	
729.54	4947.2	
729.72	6416.3	
729.91	5367.7	
730.09	4896	
730.27	4130.1	
730.45	5449.6	
730.63	5700.9	
730.81	4442.7	
730.99	3931.4	
731.17	6109.1	
731.35	5258.5	
731.53	4204.5	
731.71	4045.4	
731.9	5890	
732.08	5885.2	
732.26	4124.6	
732.44	3962.1	
732.62	6009.4	
732.8	5711.8	
732.98	4439.3	
733.16	3824.9	
733.34	5730.9	
733.52	4900.8	
733.7	4067.9	
733.88	4258.4	
734.07	5631.9	
734.25	5461.2	
734.43	3795.6	
734.61	4668.7	
734.79	6277.7	
734.97	5382.1	
735.15	3892.5	
735.33	4058.4	
735.51	5637.4	
735.69	5440.1	
735.87	4606.6	
736.05	4189.5	
736.23	5492	
736.41	5266.7	
736.59	4076.8	
736.77	4186.7	
736.95	5763.7	
737.13	5319.9	
737.32	3846.1	
737.5	3976.5	
737.68	6064	
737.86	5279	
738.04	3807.9	
738.22	4788.2	
738.4	5226.4	
738.58	5412.8	
738.76	4085.7	
738.94	3542.3	
739.12	5271.5	
739.3	5188.9	
739.48	4394.3	
739.66	4304.8	
739.84	5318.6	
740.02	5416.2	
740.2	3594.9	
740.38	3736.9	
740.56	5577.3	
740.74	4835.3	
740.92	4205.2	
741.1	4075.5	
741.28	5310.4	
741.46	5055.1	
741.64	3848.1	
741.82	4170.3	
742	5356.8	
742.18	5207.3	
742.36	3958	
742.54	3800.3	
742.72	5691.3	
742.9	4786.1	
743.08	4115.7	
743.26	3446	
743.44	5642.8	
743.62	5494	
743.8	4276.8	
743.98	3771.7	
744.16	5446.9	
744.34	5196.4	
744.52	4162.8	
744.7	4093.2	
744.88	5500.2	
745.06	5154.1	
745.24	4078.2	
745.42	4153.3	
745.6	5565	
745.78	5477	
745.96	3496.6	
746.14	3630.4	
746.32	5993.7	
746.5	5444.2	
746.68	3979.9	
746.86	3647.4	
747.03	5598.5	
747.21	4780.6	
747.39	3962.1	
747.57	3577.8	
747.75	5252.4	
747.93	5332.2	
748.11	3540.9	
748.29	3590.8	
748.47	6191	
748.65	5056.4	
748.83	3980.6	
749.01	3845.4	
749.19	5369.8	
749.37	4773.1	
749.55	3832.4	
749.73	3782.6	
749.91	5268.7	
750.09	5023	
750.26	3852.2	
750.44	3449.5	
750.62	5167	
750.8	5096.7	
750.98	3419.4	
751.16	3679.5	
751.34	5302.9	
751.52	4807.9	
751.7	4165.6	
751.88	3382.6	
752.06	5528.2	
752.24	5344.5	
752.42	3362.1	
752.59	3576.4	
752.77	5119.9	
752.95	5831.9	
753.13	3979.2	
753.31	3581.2	
753.49	4900.8	
753.67	5151.3	
753.85	3903.4	
754.03	3529.3	
754.21	5410.7	
754.38	5527.5	
754.56	3577.1	
754.74	3060.3	
754.92	4827.1	
755.1	5213.4	
755.28	2978.4	
755.46	3038.5	
755.64	5655.8	
755.82	5588.2	
755.99	3204.4	
756.17	3176.4	
756.35	4158.7	
756.53	4985.4	
756.71	2458.2	
756.89	3284.3	
757.07	4753.3	
757.25	4216.8	
757.42	3337.5	
757.6	3810.6	
757.78	4833.2	
757.96	4269.3	
758.14	3160.7	
758.32	2859.6	
758.5	3952.6	
758.67	4508.3	
758.85	3037.1	
759.03	3100.6	
759.21	4623.6	
759.39	4211.3	
759.57	2821.4	
759.75	3442.6	
759.92	5040.7	
760.1	4607.9	
760.28	3697.3	
760.46	3845.4	
760.64	4469.4	
760.82	4338.3	
760.99	3482.9	
761.17	3133.4	
761.35	4963.6	
761.53	4301.4	
761.71	3328.6	
761.89	3611.9	
762.06	4799.8	
762.24	4596.3	
762.42	3340.9	
762.6	3163.4	
762.78	4552.6	
762.96	4909	
763.13	3523.2	
763.31	3304.7	
763.49	5029.1	
763.67	4558.8	
763.85	3838.6	
764.02	4219.5	
764.2	5265.3	
764.38	4627	
764.56	3262.4	
764.74	3750.5	
764.91	5224.4	
765.09	4602.5	
765.27	3144.3	
765.45	2951.1	
765.63	5386.2	
765.8	5108.3	
765.98	2890.4	
766.16	3009.8	
766.34	4289.1	
766.52	4188.1	
766.69	3552.5	
766.87	2891	
767.05	4642.7	
767.23	5021.6	
767.41	3093.1	
767.58	3249.4	
767.76	4911.7	
767.94	4981.3	
768.12	3152.5	
768.29	3486.3	
768.47	4532.2	
768.65	5037.3	
768.83	2945	
769	3526.6	
769.18	4371.7	
769.36	4787.5	
769.54	3564.1	
769.72	2937.5	
769.89	5101.5	
770.07	4915.1	
770.25	3157.3	
770.43	3846.8	
770.6	5399.8	
770.78	5538.4	
770.96	3219.4	
771.14	3573	
771.31	4911.7	
771.49	4500.1	
771.67	2745.6	
771.85	2835.1	
772.02	4019.5	
772.2	4478.2	
772.38	3342.3	
772.55	3015.3	
772.73	4706.2	
772.91	4496	
773.09	3192.8	
773.26	3310.2	
773.44	4661.2	
773.62	4478.2	
773.8	2953.2	
773.97	2856.9	
774.15	4678.2	
774.33	4534.9	
774.5	2903.3	
774.68	3059	
774.86	4694.6	
775.04	4471.4	
775.21	2925.9	
775.39	2908.8	
775.57	4629.8	
775.74	4790.2	
775.92	2773.6	
776.1	2676	
776.27	4536.9	
776.45	5276.3	
776.63	2954.5	
776.81	2655.5	
776.98	4394.9	
777.16	4956.8	
777.34	3008.5	
777.51	3155.9	
777.69	4404.5	
777.87	4238.6	
778.04	3052.8	
778.22	3331.4	
778.4	4302.1	
778.57	4650.3	
778.75	2605	
778.93	2763.4	
779.1	4211.3	
779.28	3978.5	
779.46	2557.9	
779.64	2878.8	
779.81	4784.1	
779.99	5185.5	
780.17	3263.1	
780.34	3341.6	
780.52	4431.1	
780.69	4461.2	
780.87	3085.6	
781.05	2776.4	
781.22	4481	
781.4	4489.8	
781.58	2959.3	
781.75	2351.1	
781.93	4526	
782.11	4020.8	
782.28	3420.8	
782.46	2902.7	
782.64	3956	
782.81	4562.2	
782.99	2995.5	
783.17	2846	
783.34	4450.2	
783.52	4100	
783.69	2955.2	
783.87	3457	
784.05	4123.9	
784.22	4067.3	
784.4	3491.1	
784.58	3117	
784.75	4726	
784.93	4222.2	
785.1	2862.4	
785.28	3220.8	
785.46	4563.6	
785.63	4042	
785.81	2908.8	
785.99	2686.9	
786.16	4258.4	
786.34	4429.1	
786.51	2791.4	
786.69	3130.7	
786.87	3863.8	
787.04	4231.1	
787.22	2705.4	
787.39	3241.9	
787.57	4130.8	
787.75	4700.1	
787.92	3418.1	
788.1	3297.9	
788.27	4024.3	
788.45	3841.3	
788.63	3213.3	
788.8	2409.1	
788.98	4434.5	
789.15	3831.7	
789.33	2543.6	
789.5	2841.2	
789.68	4638.6	
789.86	4702.1	
790.03	3093.1	
790.21	2762.7	
790.38	4727.4	
790.56	4203.1	
790.73	2751.1	
790.91	2736.8	
791.09	4099.4	
791.26	4452.3	
791.44	2910.8	
791.61	2535.4	
791.79	4121.2	
791.96	4073.4	
792.14	2572.9	
792.32	2372.9	
792.49	4112.3	
792.67	4189.5	
792.84	2667.8	
793.02	2546.3	
793.19	4430.4	
793.37	4742.4	
793.54	2375	
793.72	2612.5	
793.89	4800.4	
794.07	4061.1	
794.25	2962	
794.42	2420	
794.6	4702.1	
794.77	4405.2	
794.95	3080.1	
795.12	2757.9	
795.3	4083	
795.47	4434.5	
795.65	3007.1	
795.82	2857.6	
796	3960.8	
796.17	5026.4	
796.35	2799.6	
796.52	3238.5	
796.7	4450.9	
796.87	4474.1	
797.05	2772.3	
797.22	3279.5	
797.4	4468.7	
797.57	5022.3	
797.75	2938.8	
797.92	2736.1	
798.1	4720.6	
798.27	3915	
798.45	2523.1	
798.62	2554.5	
798.8	4260.5	
798.97	4580.6	
799.15	3048.1	
799.32	2880.1	
799.5	3842.7	
799.67	4231.8	
799.85	3026.2	
800.02	2399.5	
800.2	4094.6	
800.37	4172.4	
800.55	3171.6	
800.72	2706.7	
800.9	4530.8	
801.07	4707.6	
801.25	3442	
801.42	2946.3	
801.6	4549.9	
801.77	4252.9	
801.95	2823.5	
802.12	2656.9	
802.29	4402.5	
802.47	4302.1	
802.64	2976.4	
802.82	2362	
802.99	4105.5	
803.17	4596.3	
803.34	2904.7	
803.52	2637.8	
803.69	4947.9	
803.87	3877.5	
804.04	2885.6	
804.21	2910.2	
804.39	4744.5	
804.56	4115.1	
804.74	2538.8	
804.91	2931.3	
805.09	4077.5	
805.26	4122.6	
805.44	2572.9	
805.61	2813.2	
805.78	4483	
805.96	4416.8	
806.13	2917	
806.31	3050.8	
806.48	3794.9	
806.66	4104.1	
806.83	2973.7	
807	2897.9	
807.18	4054.3	
807.35	4284.4	
807.53	2844.6	
807.7	2433	
807.87	4713.7	
808.05	4089.1	
808.22	3106.1	
808.4	2439.1	
808.57	3975.8	
808.74	3845.4	
808.92	2686.3	
809.09	3292.5	
809.27	4151.2	
809.44	4332.8	
809.61	2437.1	
809.79	2658.9	
809.96	4934.2	
810.14	4399	
810.31	2396.1	
810.48	3053.5	
810.66	4127.3	
810.83	4483	
811.01	2721.8	
811.18	2913.6	
811.35	4528.7	
811.53	3682.2	
811.7	3122.5	
811.87	2968.9	
812.05	4108.2	
812.22	4012	
812.39	2639.1	
812.57	2570.9	
812.74	4091.2	
812.92	4980.7	
813.09	2835.8	
813.26	2917.7	
813.44	4894.6	
813.61	3933.5	
813.78	2457.6	
813.96	3031	
814.13	4077.5	
814.3	3971.7	
814.48	3321.8	
814.65	2809.1	
814.82	4841.4	
815	3842	
815.17	2860.3	
815.34	3369.6	
815.52	4050.2	
815.69	4022.2	
815.87	2801.6	
816.04	2790	
816.21	4022.2	
816.38	3775.8	
816.56	2805	
816.73	2613.2	
816.9	4951.3	
817.08	4470.7	
817.25	2681.5	
817.42	3119.1	
817.6	3813.3	
817.77	3969	
817.94	2853.5	
818.12	2577	
818.29	3914.4	
818.46	5298.1	
818.64	2740.2	
818.81	2555.2	
818.98	3933.5	
819.16	5104.2	
819.33	3033.7	
819.5	2818.7	
819.67	4289.1	
819.85	4694.6	
820.02	2836.4	
820.19	2896.5	
820.37	4226.3	
820.54	4016.1	
820.71	2878.1	
820.88	3502	
821.06	4199.7	
821.23	3957.4	
821.4	2906.1	
821.58	2824.1	
821.75	4422.2	
821.92	4240	
822.09	2443.2	
822.27	2493.7	
822.44	4089.8	
822.61	4014.7	
822.79	2406.4	
822.96	4186.7	
823.13	4252.9	
823.3	3786	
823.48	2716.3	
823.65	2472.6	
823.82	4543.1	
823.99	3847.5	
824.17	3391.4	
824.34	2557.9	
824.51	5018.9	
824.68	4087.7	
824.86	2657.6	
825.03	2861	
825.2	4140.3	
825.37	4653.7	
825.55	2646	
825.72	2816	
825.89	4975.9	
826.06	4737	
826.24	2736.8	
826.41	2808.4	
826.58	4771.8	
826.75	4179.9	
826.92	2402.9	
827.1	2545.6	
827.27	6003.3	
827.44	4938.3	
827.61	2650.8	
827.79	3108.8	
827.96	4040.6	
828.13	4030.4	
828.3	2780.5	
828.47	2400.2	
828.65	4313.7	
828.82	4294.6	
828.99	3388.7	
829.16	2982.5	
829.34	4536.9	
829.51	4448.2	
829.68	2855.6	
829.85	2888.3	
830.02	4837.3	
830.2	4521.2	
830.37	2291.7	
830.54	3251.5	
830.71	5021.6	
830.88	4148.5	
831.05	2293.7	
831.23	2619.4	
831.4	4928.8	
831.57	5184.1	
831.74	2637.1	
831.91	2385.2	
832.09	4464.6	
832.26	4556.7	
832.43	2695.1	
832.6	2964.1	
832.77	4350.6	
832.94	4807.9	
833.12	2235.7	
833.29	2650.8	
833.46	4348.5	
833.63	5295.4	
833.8	2941.6	
833.97	2682.8	
834.15	4588.8	
834.32	4452.3	
834.49	2800.9	
834.66	2896.5	
834.83	4594.3	
835	3987.4	
835.17	2650.8	
835.35	2622.8	
835.52	4521.2	
835.69	4390.2	
835.86	2755.2	
836.03	2330.6	
836.2	4575.8	
836.37	4302.8	
836.55	2638.5	
836.72	2562	
836.89	4279.6	
837.06	4630.5	
837.23	2749.1	
837.4	2879.4	
837.57	5115.8	
837.75	5344.5	
837.92	2577.7	
838.09	2651.4	
838.26	4261.8	
838.43	4632.5	
838.6	2803.7	
838.77	2611.8	
838.94	5120.6	
839.11	5029.1	
839.29	2737.5	
839.46	2232.3	
839.63	4601.8	
839.8	4360.1	
839.97	2633	
840.14	2610.5	
840.31	4445.5	
840.48	4544.4	
840.65	2332	
840.82	2617.3	
841	4498	
841.17	4375.8	
841.34	2396.1	
841.51	2523.8	
841.68	4519.2	
841.85	4347.2	
842.02	2532.7	
842.19	2215.2	
842.36	4394.3	
842.53	4417.5	
842.7	2461	
842.87	2857.6	
843.05	5365	
843.22	4306.9	
843.39	2318.3	
843.56	2569.5	
843.73	4227	
843.9	4619.5	
844.07	3697.3	
844.24	3094.5	
844.41	5821	
844.58	4096.6	
844.75	2426.8	
844.92	2527.9	
845.09	4437.3	
845.26	4450.9	
845.43	2454.1	
845.6	2607.7	
845.77	4578.6	
845.94	4422.2	
846.12	2695.8	
846.29	2845.3	
846.46	4714.4	
846.63	4481.6	
846.8	2467.1	
846.97	2890.4	
847.14	4788.2	
847.31	4477.5	
847.48	2736.1	
847.65	2952.5	
847.82	4508.9	
847.99	4576.5	
848.16	3101.3	
848.33	2927.2	
848.5	4160.8	
848.67	4844.8	
848.84	2397.5	
849.01	2512.9	
849.18	4231.8	
849.35	3960.8	
849.52	2966.1	
849.69	2424.1	
849.86	4704.9	
850.03	4668.7	
850.2	2487.6	
850.37	2839.8	
850.54	4698.7	
850.71	4256.4	
850.88	2828.9	
851.05	2420.7	
851.22	4398.4	
851.39	4825	
851.56	2396.1	
851.73	2720.4	
851.9	4039.3	
852.07	4651.6	
852.24	2645.3	
852.41	2426.2	
852.58	4478.2	
852.75	4121.9	
852.92	2689.7	
853.09	2389.3	
853.26	4102.1	
853.43	4728.1	
853.6	2481.5	
853.77	2174.9	
853.94	4807.9	
854.11	3979.2	
854.28	3416	
854.44	2633.7	
854.61	5078.3	
854.78	4670.1	
854.95	2404.3	
855.12	2878.1	
855.29	3812	
855.46	4954	
855.63	2480.1	
855.8	3148.4	
855.97	4199	
856.14	4698.7	
856.31	3247.4	
856.48	2654.2	
856.65	4287.1	
856.82	4050.9	
856.99	2336	
857.16	2643.2	
857.33	5148.6	
857.49	4297.3	
857.66	2594.1	
857.83	2787.3	
858	4375.1	
858.17	4420.9	
858.34	2308.7	
858.51	2492.4	
858.68	4776.5	
858.85	4885.1	
859.02	2782.5	
859.19	2883.5	
859.36	4076.8	
859.52	3983.3	
859.69	2518.3	
859.86	2781.1	
860.03	4069.3	
860.2	4801.1	
860.37	2316.3	
860.54	2499.2	
860.71	4636.6	
860.88	4881	
861.05	2682.2	
861.21	2987.3	
861.38	4813.4	
861.55	3913.7	
861.72	2305.3	
861.89	2736.1	
862.06	4663.9	
862.23	4941.7	
862.4	2358.6	
862.56	2501.9	
862.73	4558.1	
862.9	4388.1	
863.07	2796.2	
863.24	2281.4	
863.41	4040.6	
863.58	4040	
863.75	2487.6	
863.91	2812.5	
864.08	4717.2	
864.25	4573.8	
864.42	2934.7	
864.59	3237.2	
864.76	4969.1	
864.93	4079.6	
865.09	2386.6	
865.26	2588.6	
865.43	4783.4	
865.6	5003.9	
865.77	2190	
865.94	2391.3	
866.1	4713.1	
866.27	4483	
866.44	3428.3	
866.61	2385.2	
866.78	4287.8	
866.95	4571.7	
867.11	2400.2	
867.28	2266.4	
867.45	4686.4	
867.62	4067.9	
867.79	2720.4	
867.96	2428.2	
868.12	4024.9	
868.29	4563.6	
868.46	2434.4	
868.63	3038.5	
868.8	4681	
868.97	4573.8	
869.13	2577.7	
869.3	2588.6	
869.47	4464.6	
869.64	4657.1	
869.81	2467.8	
869.97	2469.9	
870.14	4379.2	
870.31	4844.8	
870.48	2375	
870.65	2954.5	
870.81	4302.1	
870.98	4315.8	
871.15	2722.4	
871.32	2508.8	
871.48	4562.9	
871.65	4885.1	
871.82	2432.3	
871.99	2612.5	
872.16	5154.7	
872.32	4764.9	
872.49	2547	
872.66	2470.5	
872.83	4592.2	
872.99	4187.4	
873.16	2701.3	
873.33	2439.1	
873.5	4377.9	
873.67	4406.5	
873.83	2575.7	
874	3123.8	
874.17	4478.9	
874.34	4958.8	
874.5	3058.3	
874.67	2921.8	
874.84	4732.9	
875.01	3898	
875.17	3225.6	
875.34	2391.3	
875.51	4397	
875.68	5115.1	
875.84	2903.3	
876.01	3284.3	
876.18	4614.8	
876.34	4536.9	
876.51	2474.6	
876.68	2419.3	
876.85	4272.7	
877.01	4808.6	
877.18	3287.7	
877.35	2413.9	
877.52	4524	
877.68	4100	
877.85	2409.1	
878.02	2388.6	
878.18	4174.4	
878.35	4179.9	
878.52	2015.9	
878.69	2846.7	
878.85	4735.6	
879.02	4508.9	
879.19	3282.9	
879.35	2577	
879.52	4585.4	
879.69	4629.1	
879.86	2181.8	
880.02	2707.4	
880.19	4351.3	
880.36	5053	
880.52	2717	
880.69	2835.1	
880.86	4603.2	
881.02	4642.1	
881.19	2654.2	
881.36	2575.7	
881.52	4587.4	
881.69	4171	
881.86	2626.9	
882.02	2613.9	
882.19	4755.4	
882.36	5300.8	
882.52	2504	
882.69	3259	
882.86	4476.2	
883.02	4439.3	
883.19	2828.9	
883.36	2728.6	
883.52	4691.9	
883.69	5094	
883.86	2499.9	
884.02	2312.2	
884.19	4517.1	
884.36	4392.9	
884.52	2708.8	
884.69	2654.2	
884.86	4247.5	
885.02	4894	
885.19	2663	
885.36	2780.5	
885.52	4274.8	
885.69	4535.6	
885.86	3332.7	
886.02	2940.9	
886.19	4631.8	
886.35	4156.7	
886.52	2664.4	
886.69	3226.9	
886.85	4031.8	
887.02	4783.4	
887.19	4783.4	
887.35	4783.4	
887.52	4783.4	
887.68	4783.4	
887.85	4783.4	
888.02	4783.4	
888.18	4783.4	
888.35	4783.4	
888.51	4783.4	
888.68	4783.4	
888.85	4783.4	
889.01	4783.4	
889.18	4783.4	
889.35	4783.4	
889.51	4783.4	
889.68	4783.4	
889.84	4783.4	
890.01	4783.4	
890.17	4783.4	
890.34	4783.4	
890.51	4783.4	
890.67	4783.4	
890.84	4783.4	
891	4783.4	
891.17	4783.4	
891.34	4783.4	
891.5	4783.4	
891.67	4783.4	
891.83	4783.4	
892	4783.4	
892.16	4783.4	
892.33	4783.4	
892.5	4783.4	
892.66	4783.4	
892.83	4783.4	
892.99	4783.4	
893.16	4783.4	
893.32	4783.4	
893.49	4783.4	
893.65	4783.4	
893.82	4783.4	
893.99	4783.4	
894.15	4783.4	
894.32	4783.4	
894.48	4783.4	
894.65	4783.4	
894.81	4783.4	
894.98	4783.4	
895.14	4783.4	
895.31	4783.4	
895.47	4783.4	
895.64	4783.4	
895.81	4783.4	
895.97	4783.4	
896.14	4783.4	
896.3	4783.4	
896.47	4783.4	
896.63	4783.4	
896.8	4783.4	
896.96	4783.4	
897.13	4783.4	
897.29	4783.4	
897.46	4783.4	
897.62	4783.4	
897.79	4783.4	
897.95	4783.4	
898.12	4783.4	
898.28	4783.4	
898.45	4783.4	
898.61	4783.4	
898.78	4783.4	
898.94	4783.4	
899.11	4783.4	
899.27	4783.4	
899.44	4783.4	
899.6	4783.4	
899.77	4783.4	
899.93	4783.4	
900.1	4783.4	
900.26	4783.4	
900.43	4783.4	
900.59	4783.4	
900.76	4783.4	
900.92	4783.4	
901.09	4783.4	
901.25	4783.4	
901.42	4783.4	
901.58	4783.4	
901.75	4783.4	
901.91	4783.4	
902.07	4783.4	
902.24	4783.4	
902.4	4783.4	
902.57	4783.4	
902.73	4783.4	
902.9	4783.4	
903.06	4783.4	
903.23	4783.4	
903.39	4783.4	
903.56	4783.4	
903.72	4783.4	
903.88	4783.4	
904.05	4783.4	
904.21	4783.4	
904.38	4783.4	
904.54	4783.4	
904.71	4783.4	
904.87	4783.4	
905.03	4783.4	
905.2	4783.4	
905.36	4783.4	
905.53	4783.4	
905.69	4783.4	
905.86	4783.4	
906.02	4783.4	
906.18	4783.4	
906.35	4783.4	
906.51	4783.4	
906.68	4783.4	
906.84	4783.4	
907.01	4783.4	
907.17	4783.4	
907.33	4783.4	
907.5	4783.4	
907.66	4783.4	
907.83	4783.4	
907.99	4783.4	
908.15	4783.4	
908.32	4783.4	
908.48	4783.4	
908.65	4783.4	
908.81	4783.4	
908.97	4783.4	
909.14	4783.4	
909.3	4783.4	
909.47	4783.4	
909.63	4783.4	
909.79	4783.4	
909.96	4783.4	
910.12	4783.4	
910.28	4783.4	
910.45	4783.4	
910.61	4783.4	
910.78	4783.4	
910.94	4783.4	
911.1	4783.4	
911.27	4783.4	
911.43	4783.4	
911.59	4783.4	
911.76	4783.4	
911.92	4783.4	
912.08	4783.4	
912.25	4783.4	
912.41	4783.4	
912.57	4783.4	
912.74	4783.4	
912.9	4783.4	
913.07	4783.4	
913.23	4783.4	
913.39	4783.4	
913.56	4783.4	
913.72	4783.4	
913.88	4783.4	
914.05	4783.4	
914.21	4783.4	
914.37	4783.4	
914.54	4783.4	
914.7	4783.4	
914.86	4783.4	
915.03	4783.4	
915.19	4783.4	
