Wavelength	Intensities	
nm	a.u.	
179.22	1714.7	
179.44	1721.3	
179.65	1708	
179.86	1734.6	
180.08	1742.8	
180.29	4123.9	
180.51	3048.1	
180.72	5051.7	
180.94	5722	
181.15	2822.1	
181.37	2781.8	
181.58	4916.5	
181.79	5110.4	
182.01	2897.2	
182.22	3017.3	
182.44	5119.9	
182.65	4400.4	
182.87	3750.5	
183.08	3355.3	
183.29	5332.9	
183.51	4489.8	
183.72	3061	
183.94	4296.6	
184.15	4795.7	
184.37	4715.8	
184.58	2746.3	
184.79	3641.3	
185.01	4532.8	
185.22	5188.2	
185.44	3807.2	
185.65	3276.1	
185.86	4777.9	
186.08	4431.1	
186.29	2680.8	
186.51	2882.2	
186.72	4567	
186.94	5305.6	
187.15	3299.3	
187.36	3392.8	
187.58	6648.4	
187.79	4868	
188.01	3467.2	
188.22	5238.7	
188.43	5766.4	
188.65	5115.1	
188.86	2827.6	
189.08	3415.3	
189.29	4645.5	
189.5	4646.8	
189.72	3152.5	
189.93	3161.4	
190.15	5238.7	
190.36	6069.5	
190.57	3429	
190.79	3334.8	
191	5295.4	
191.22	5253.7	
191.43	3425.6	
191.64	2921.8	
191.86	5450.3	
192.07	5295.4	
192.29	2991.4	
192.5	3114.3	
192.71	5236	
192.93	4643.4	
193.14	3111.5	
193.35	3197.6	
193.57	4623.6	
193.78	5200.5	
194	2555.9	
194.21	3093.1	
194.42	4482.3	
194.64	4832.5	
194.85	3345	
195.07	3830.4	
195.28	4809.3	
195.49	4290.5	
195.71	4061.8	
195.92	2942.9	
196.13	5018.2	
196.35	5074.2	
196.56	4269.3	
196.78	3356.6	
196.99	6081.1	
197.2	5710.4	
197.42	3765.5	
197.63	3396.2	
197.84	4459.1	
198.06	5001.1	
198.27	3106.8	
198.48	4053.6	
198.7	4668	
198.91	4761.5	
199.13	3413.3	
199.34	3390.1	
199.55	5223.7	
199.77	4182	
199.98	3055.6	
200.19	3464.5	
200.41	4790.9	
200.62	4545.8	
200.83	3489.7	
201.05	3747.8	
201.26	4801.8	
201.47	4613.4	
201.69	3016.7	
201.9	2953.2	
202.11	4806.6	
202.33	5640.1	
202.54	3192.1	
202.76	3562.8	
202.97	4942.4	
203.18	4957.4	
203.4	3518.4	
203.61	3476.8	
203.82	4900.1	
204.04	4620.9	
204.25	3369.6	
204.46	3345	
204.68	4847.5	
204.89	5006.6	
205.1	3305.4	
205.32	2943.6	
205.53	5099.4	
205.74	5227.8	
205.96	2575.7	
206.17	3444.7	
206.38	5076.2	
206.6	5147.9	
206.81	3816	
207.02	3183.2	
207.24	4992.9	
207.45	5371.1	
207.66	3216.7	
207.88	2831	
208.09	4949.9	
208.3	4728.8	
208.52	3042.6	
208.73	3297.9	
208.94	4833.9	
209.15	5352	
209.37	3287	
209.58	3668.6	
209.79	5190.9	
210.01	4670.7	
210.22	2682.2	
210.43	2783.9	
210.65	4834.6	
210.86	5134.3	
211.07	3237.2	
211.29	3028.9	
211.5	5074.2	
211.71	4760.8	
211.93	3059	
212.14	3013.9	
212.35	4760.2	
212.56	4872.8	
212.78	3405.8	
212.99	2839.2	
213.2	5518.6	
213.42	4691.2	
213.63	3087.7	
213.84	3287	
214.06	4364.2	
214.27	4466.6	
214.48	3248.1	
214.69	3424.9	
214.91	5338.4	
215.12	5418.9	
215.33	3459.7	
215.55	3707.5	
215.76	5780.1	
215.97	5097.4	
216.18	3273.3	
216.4	3282.2	
216.61	4550.6	
216.82	5111.7	
217.04	3039.9	
217.25	3151.1	
217.46	5290.6	
217.67	5138.4	
217.89	2824.8	
218.1	2838.5	
218.31	4900.8	
218.53	4997	
218.74	3198.9	
218.95	3074.7	
219.16	4814.8	
219.38	5563	
219.59	3085.6	
219.8	3598.3	
220.01	5935	
220.23	4844.8	
220.44	3904.8	
220.65	2951.1	
220.87	4917.9	
221.08	5322	
221.29	2902	
221.5	3667.9	
221.72	6277	
221.93	4612	
222.14	3411.2	
222.35	3986	
222.57	4758.8	
222.78	5129.5	
222.99	3265.1	
223.2	3441.3	
223.42	5022.3	
223.63	5137	
223.84	2532.7	
224.05	2585.9	
224.27	5953.4	
224.48	5469.4	
224.69	3991.5	
224.9	3441.3	
225.12	4909.7	
225.33	4771.1	
225.54	2788	
225.75	3028.3	
225.97	4506.2	
226.18	4752.7	
226.39	3241.9	
226.6	3073.3	
226.82	4630.5	
227.03	4495.3	
227.24	3372.3	
227.45	2843.3	
227.67	5171.8	
227.88	5515.2	
228.09	3790.1	
228.3	3708.9	
228.52	5112.4	
228.73	4815.5	
228.94	3153.9	
229.15	2840.5	
229.36	4775.2	
229.58	4780	
229.79	3260.4	
230	3652.2	
230.21	5659.2	
230.43	4864.6	
230.64	3352.5	
230.85	3478.8	
231.06	5227.8	
231.28	5136.3	
231.49	2854.2	
231.7	3300	
231.91	5094	
232.12	4825	
232.34	2930	
232.55	3297.9	
232.76	5285.1	
232.97	4910.3	
233.18	3031.7	
233.4	3379.1	
233.61	4974.5	
233.82	4713.1	
234.03	3183.2	
234.25	3144.3	
234.46	6457.2	
234.67	4859.8	
234.88	3414.6	
235.09	3074.7	
235.31	5008	
235.52	4719.2	
235.73	3330	
235.94	2887	
236.15	4572.4	
236.37	5744.6	
236.58	3023.5	
236.79	3284.9	
237	5014.8	
237.21	4403.1	
237.43	3467.2	
237.64	2838.5	
237.85	7989.8	
238.06	4500.1	
238.27	3528.7	
238.48	2946.3	
238.7	5104.2	
238.91	4751.3	
239.12	3183.2	
239.33	3313.6	
239.54	4526	
239.76	4765.6	
239.97	3208.5	
240.18	3246	
240.39	5798.5	
240.6	4969.1	
240.82	3390.8	
241.03	2799.6	
241.24	4816.1	
241.45	5486.5	
241.66	2997.5	
241.87	3561.4	
242.09	5406.6	
242.3	5649	
242.51	3497.9	
242.72	3247.4	
242.93	5132.9	
243.14	4734.2	
243.36	3794.2	
243.57	3989.4	
243.78	5477.6	
243.99	5074.9	
244.2	3244.7	
244.41	2983.2	
244.63	4508.3	
244.84	5038	
245.05	3485	
245.26	3308.8	
245.47	5107.6	
245.68	5186.1	
245.9	4257.7	
246.11	3392.1	
246.32	4687.1	
246.53	5017.5	
246.74	5123.3	
246.95	2767.5	
247.16	4481.6	
247.38	4861.2	
247.59	2790.7	
247.8	3269.9	
248.01	4545.8	
248.22	4831.8	
248.43	3040.6	
248.64	3207.8	
248.86	4384	
249.07	4642.7	
249.28	2966.8	
249.49	3375.1	
249.7	5298.8	
249.91	5257.8	
250.12	2802.3	
250.34	2831.7	
250.55	4865.3	
250.76	4861.9	
250.97	3379.8	
251.18	3402.4	
251.39	5276.3	
251.6	4986.1	
251.81	3449.5	
252.03	3381.9	
252.24	4631.1	
252.45	5206.6	
252.66	2918.4	
252.87	3554.6	
253.08	4810.7	
253.29	6040.1	
253.5	2895.1	
253.72	3904.1	
253.93	4717.2	
254.14	5580.7	
254.35	3168.9	
254.56	3188	
254.77	5087.2	
254.98	4524.6	
255.19	3127.9	
255.41	3882.3	
255.62	4910.3	
255.83	5335.6	
256.04	3494.5	
256.25	3369.6	
256.46	5733.6	
256.67	4564.2	
256.88	3358.7	
257.09	3649.5	
257.31	4515.8	
257.52	4573.8	
257.73	4182.6	
257.94	3118.4	
258.15	4725.3	
258.36	4811.4	
258.57	3796.3	
258.78	2589.3	
258.99	5237.3	
259.2	4661.9	
259.41	3145	
259.63	3190.1	
259.84	5466	
260.05	5695.4	
260.26	3958	
260.47	3035.1	
260.68	5264.6	
260.89	4734.2	
261.1	3708.9	
261.31	3013.2	
261.52	5305.6	
261.73	5567.1	
261.95	3921.2	
262.16	3471.3	
262.37	5369.8	
262.58	5414.1	
262.79	3941.7	
263	3141.6	
263.21	4889.2	
263.42	4661.2	
263.63	3434.4	
263.84	3164.1	
264.05	5278.3	
264.26	5562.3	
264.47	3809.2	
264.69	3427.6	
264.9	5414.8	
265.11	4974.5	
265.32	3081.5	
265.53	3060.3	
265.74	4891.2	
265.95	4371	
266.16	3323.9	
266.37	3611.3	
266.58	4887.1	
266.79	4684.4	
267	3102.7	
267.21	2904	
267.42	4520.5	
267.63	4809.3	
267.84	3183.9	
268.06	2829.6	
268.27	5199.1	
268.48	5350	
268.69	3183.9	
268.9	3693.2	
269.11	5363.6	
269.32	4364.9	
269.53	3243.3	
269.74	3015.3	
269.95	5060.5	
270.16	4329.4	
270.37	3293.8	
270.58	3725.9	
270.79	4668.7	
271	5238	
271.21	3469.3	
271.42	3319.8	
271.63	4952	
271.84	4448.2	
272.05	2737.5	
272.26	2942.2	
272.47	4883.7	
272.68	4968.4	
272.89	3174.4	
273.11	3549.1	
273.32	4632.5	
273.53	5552.7	
273.74	3495.9	
273.95	3380.5	
274.16	5223.7	
274.37	4799.1	
274.58	3581.9	
274.79	2899.2	
275	4931.5	
275.21	5243.5	
275.42	4248.9	
275.63	3609.2	
275.84	5062.6	
276.05	6156.2	
276.26	3454.2	
276.47	3201.7	
276.68	4738.3	
276.89	5638.7	
277.1	3661.8	
277.31	2899.2	
277.52	5085.8	
277.73	5244.2	
277.94	2903.3	
278.15	3201.7	
278.36	4985.4	
278.57	4550.6	
278.78	3168.2	
278.99	3485	
279.2	4562.9	
279.41	4517.1	
279.62	4054.3	
279.83	2913.6	
280.04	5771.2	
280.25	4492.6	
280.46	4038.6	
280.67	3264.5	
280.88	4593.6	
281.09	5284.4	
281.3	3450.1	
281.51	4226.3	
281.72	4608.6	
281.93	5221.6	
282.14	3139.5	
282.35	3282.9	
282.56	5199.1	
282.77	5242.1	
282.98	3172.3	
283.19	3801	
283.4	6196.5	
283.61	4767.7	
283.82	3004.4	
284.03	3975.1	
284.24	4945.8	
284.45	5328.1	
284.66	4057.7	
284.87	3763.5	
285.08	5277.6	
285.29	5351.3	
285.5	2841.2	
285.71	3205.8	
285.92	5329.5	
286.12	5773.2	
286.33	3914.4	
286.54	3228.3	
286.75	5202.5	
286.96	4682.3	
287.17	3013.2	
287.38	3804.4	
287.59	4573.1	
287.8	4567.7	
288.01	3212.6	
288.22	3622.2	
288.43	5143.1	
288.64	4413.4	
288.85	3760.1	
289.06	3607.8	
289.27	5175.2	
289.48	5515.9	
289.69	3992.2	
289.9	3639.2	
290.11	5335	
290.32	4624.3	
290.53	3797.6	
290.74	3498.6	
290.94	5189.6	
291.15	5211.4	
291.36	3132.7	
291.57	3637.2	
291.78	4688.5	
291.99	4328	
292.2	2981.8	
292.41	3522.5	
292.62	5256.5	
292.83	5130.8	
293.04	4296	
293.25	3020.1	
293.46	4721.3	
293.67	5234.6	
293.88	3037.8	
294.09	2960.7	
294.29	4515.1	
294.5	4949.9	
294.71	3299.3	
294.92	3092.4	
295.13	4702.8	
295.34	5732.9	
295.55	2839.2	
295.76	2772.3	
295.97	5156.8	
296.18	5663.3	
296.39	2920.4	
296.6	3095.8	
296.81	4891.2	
297.01	5119.9	
297.22	3214.6	
297.43	3130	
297.64	4579.9	
297.85	4524	
298.06	2638.5	
298.27	2792.7	
298.48	4798.4	
298.69	4614.8	
298.9	3324.5	
299.11	3078.8	
299.31	4490.5	
299.52	4528.7	
299.73	3480.9	
299.94	3465.8	
300.15	4873.5	
300.36	4581.3	
300.57	3477.5	
300.78	3433.1	
300.99	4698	
301.2	4835.9	
301.4	3095.8	
301.61	3308.8	
301.82	5137.7	
302.03	5188.9	
302.24	3670.6	
302.45	2934.1	
302.66	5059.8	
302.87	5302.2	
303.08	3083.6	
303.29	4069.3	
303.49	4714.4	
303.7	4826.4	
303.91	2807.1	
304.12	3844.7	
304.33	4413.4	
304.54	4957.4	
304.75	3123.8	
304.96	3028.9	
305.16	5123.3	
305.37	5622.4	
305.58	2751.1	
305.79	2882.2	
306	5069.4	
306.21	4348.5	
306.42	3130.7	
306.63	4545.1	
306.83	4672.8	
307.04	5145.9	
307.25	3358.7	
307.46	3390.8	
307.67	4207.9	
307.88	5086.5	
308.09	2994.8	
308.29	3121.1	
308.5	4947.9	
308.71	5292	
308.92	3265.8	
309.13	2969.6	
309.34	4781.3	
309.55	4773.8	
309.75	3790.8	
309.96	3427.6	
310.17	5176.6	
310.38	4575.8	
310.59	3598.3	
310.8	2899.9	
311.01	5649.7	
311.21	4766.3	
311.42	3024.8	
311.63	3041.9	
311.84	4674.1	
312.05	4891.9	
312.26	3418.1	
312.46	3705.5	
312.67	4635.9	
312.88	4432.5	
313.09	2957.9	
313.3	2942.2	
313.51	5472.2	
313.71	5773.2	
313.92	2963.4	
314.13	3172.3	
314.34	4985.4	
314.55	4836.6	
314.76	3709.6	
314.96	3239.9	
315.17	4942.4	
315.38	5176.6	
315.59	2995.5	
315.8	2899.2	
316.01	5418.2	
316.21	5515.2	
316.42	2910.2	
316.63	3315	
316.84	4715.1	
317.05	5332.2	
317.26	3495.2	
317.46	3201.7	
317.67	4771.1	
317.88	5142.4	
318.09	3665.2	
318.3	2809.1	
318.5	4681	
318.71	5044.1	
318.92	4663.9	
319.13	3490.4	
319.34	5218.2	
319.54	5361.6	
319.75	2803	
319.96	2699.9	
320.17	5097.4	
320.38	5286.5	
320.58	2771.6	
320.79	3220.1	
321	5296	
321.21	5380.7	
321.42	3323.2	
321.62	2807.1	
321.83	4553.3	
322.04	4866.7	
322.25	3161.4	
322.46	2979.1	
322.66	4917.9	
322.87	5117.9	
323.08	3643.3	
323.29	2936.8	
323.5	5640.1	
323.7	4499.4	
323.91	4011.3	
324.12	3586	
324.33	4879.6	
324.53	5096	
324.74	3534.8	
324.95	3596.2	
325.16	4377.2	
325.37	4690.5	
325.57	3021.4	
325.78	3044.6	
325.99	4948.6	
326.2	4419.5	
326.4	4100	
326.61	2857.6	
326.82	4769.7	
327.03	4911	
327.24	4164.9	
327.44	3866.6	
327.65	5117.9	
327.86	4190.1	
328.07	3450.8	
328.27	2913.6	
328.48	5294	
328.69	4464.6	
328.9	4160.1	
329.1	3132	
329.31	4777.2	
329.52	5431.9	
329.73	3076.7	
329.93	3284.3	
330.14	4861.9	
330.35	5037.3	
330.56	4737	
330.76	3649.5	
330.97	4659.1	
331.18	4949.3	
331.39	3283.6	
331.59	2734	
331.8	5292.6	
332.01	5347.9	
332.22	3137.5	
332.42	3436.5	
332.63	4937.7	
332.84	4607.9	
333.05	3361.4	
333.25	3076	
333.46	4625	
333.67	4827.7	
333.88	3146.4	
334.08	3411.2	
334.29	6342.6	
334.5	5276.9	
334.7	2936.8	
334.91	4135.5	
335.12	4497.3	
335.33	5150	
335.53	3312.2	
335.74	4709	
335.95	4736.3	
336.16	4506.9	
336.36	3278.1	
336.57	3748.5	
336.78	4416.1	
336.98	5268.1	
337.19	3963.5	
337.4	3207.8	
337.61	5725.4	
337.81	4481.6	
338.02	3067.9	
338.23	3788.7	
338.43	5419.6	
338.64	4597.7	
338.85	3027.6	
339.05	3870.7	
339.26	5549.3	
339.47	4379.2	
339.68	3033	
339.88	4352.6	
340.09	5081.7	
340.3	5194.3	
340.5	3459	
340.71	2746.3	
340.92	4465.3	
341.13	5322.7	
341.33	2914.3	
341.54	3488.4	
341.75	5023	
341.95	4696	
342.16	3303.4	
342.37	3566.9	
342.57	4477.5	
342.78	4762.2	
342.99	3609.9	
343.19	2746.3	
343.4	5124.7	
343.61	5029.1	
343.81	3183.9	
344.02	2952.5	
344.23	5190.2	
344.43	5472.2	
344.64	3708.2	
344.85	3639.9	
345.06	5023.7	
345.26	5270.1	
345.47	3461.1	
345.68	3936.2	
345.88	4379.2	
346.09	5244.2	
346.3	3504.8	
346.5	2706	
346.71	4789.5	
346.92	4561.5	
347.12	2831.7	
347.33	3386.7	
347.54	5236.7	
347.74	5563.6	
347.95	3398.3	
348.16	2641.9	
348.36	4663.2	
348.57	4506.9	
348.78	3451.5	
348.98	3686.3	
349.19	4774.5	
349.39	4376.5	
349.6	2811.9	
349.81	3030.3	
350.01	5050.3	
350.22	4609.3	
350.43	3305.4	
350.63	3867.9	
350.84	4870.8	
351.05	4603.2	
351.25	3054.9	
351.46	2775.7	
351.67	5172.5	
351.87	4599.7	
352.08	3241.3	
352.29	3580.5	
352.49	5153.4	
352.7	5233.9	
352.9	2956.6	
353.11	3632.4	
353.32	5627.1	
353.52	4674.1	
353.73	2893.1	
353.94	3698.6	
354.14	5083.1	
354.35	4960.2	
354.55	3029.6	
354.76	3269.9	
354.97	4988.2	
355.17	4755.4	
355.38	2887.6	
355.59	3863.2	
355.79	4551.3	
356	4802.5	
356.2	3332	
356.41	2897.9	
356.62	4363.5	
356.82	4739.7	
357.03	3563.5	
357.24	3137.5	
357.44	4534.9	
357.65	4620.2	
357.85	4138.3	
358.06	3318.4	
358.27	4345.8	
358.47	4498	
358.68	2871.3	
358.88	3491.8	
359.09	4984.8	
359.3	5236	
359.5	4035.9	
359.71	3576.4	
359.91	5540.4	
360.12	5057.1	
360.33	3486.3	
360.53	3893.2	
360.74	4605.2	
360.94	4658.4	
361.15	3635.8	
361.36	3056.9	
361.56	5210.7	
361.77	4733.5	
361.97	3955.3	
362.18	3210.5	
362.38	5227.1	
362.59	4462.5	
362.8	3008.5	
363	2878.1	
363.21	4250.2	
363.41	4847.5	
363.62	3373	
363.83	4126	
364.03	4922.6	
364.24	5583.4	
364.44	4263.2	
364.65	4246.8	
364.85	4721.3	
365.06	4466.6	
365.27	3105.4	
365.47	3175	
365.68	5461.9	
365.88	4749.2	
366.09	3453.6	
366.29	3151.8	
366.5	4918.5	
366.71	5256.5	
366.91	4189.5	
367.12	3564.1	
367.32	5686.5	
367.53	5095.3	
367.73	3550.5	
367.94	4296	
368.14	5063.9	
368.35	5753.4	
368.56	3518.4	
368.76	3026.9	
368.97	5195	
369.17	6408.8	
369.38	3157.3	
369.58	3332	
369.79	4388.8	
369.99	5418.2	
370.2	4134.8	
370.4	3416	
370.61	4939.7	
370.82	5803.3	
371.02	3337.5	
371.23	2839.8	
371.43	4440.7	
371.64	5382.1	
371.84	3363.4	
372.05	4176.5	
372.25	6299.6	
372.46	5124	
372.66	3385.3	
372.87	3295.2	
373.07	5174.5	
373.28	6429.3	
373.48	4112.3	
373.69	3886.4	
373.9	4857.1	
374.1	4831.8	
374.31	4108.9	
374.51	3702	
374.72	5443.5	
374.92	4562.9	
375.13	4097.3	
375.33	3585.3	
375.54	5055.8	
375.74	4713.7	
375.95	3630.4	
376.15	4555.4	
376.36	5144.5	
376.56	4986.8	
376.77	3648.1	
376.97	3945.1	
377.18	5933.6	
377.38	5150.6	
377.59	4225	
377.79	3289.7	
378	5001.1	
378.2	5218.9	
378.41	3300.6	
378.61	3291.1	
378.82	5438.7	
379.02	4714.4	
379.23	3478.8	
379.43	4305.5	
379.64	5516.5	
379.84	5077.6	
380.05	3383.9	
380.25	3264.5	
380.46	5170.4	
380.66	4921.3	
380.87	4385.4	
381.07	4599.7	
381.28	5729.5	
381.48	5130.2	
381.69	3336.8	
381.89	3379.1	
382.1	4442.7	
382.3	5288.5	
382.51	4147.1	
382.71	4927.4	
382.91	5175.9	
383.12	5560.2	
383.32	3606.5	
383.53	3794.2	
383.73	5102.9	
383.94	4998.4	
384.14	3790.1	
384.35	3089	
384.55	4849.6	
384.76	5195	
384.96	3596.9	
385.17	3925.3	
385.37	5201.2	
385.58	4611.3	
385.78	3801.7	
385.98	3022.1	
386.19	4823.6	
386.39	5108.3	
386.6	3439.2	
386.8	3651.5	
387.01	5205.9	
387.21	5207.3	
387.42	3897.3	
387.62	4254.3	
387.83	4707.6	
388.03	5048.2	
388.23	3648.8	
388.44	4207.2	
388.64	4502.8	
388.85	4525.3	
389.05	3864.5	
389.26	4343.7	
389.46	6038.8	
389.67	5542.5	
389.87	3874.1	
390.07	3893.9	
390.28	4830.5	
390.48	4567.7	
390.69	3284.3	
390.89	3560.1	
391.1	4724	
391.3	5376.6	
391.5	4437.3	
391.71	4909.7	
391.91	5299.5	
392.12	5937.7	
392.32	4469.4	
392.53	3860.4	
392.73	4797.7	
392.93	4909	
393.14	3666.5	
393.34	4452.3	
393.55	5477.6	
393.75	4913.8	
393.95	3663.1	
394.16	3594.2	
394.36	4772.4	
394.57	5238	
394.77	3260.4	
394.98	3553.9	
395.18	4713.7	
395.38	4842.1	
395.59	4171.7	
395.79	3381.2	
396	4842.1	
396.2	5154.7	
396.4	4007.2	
396.61	3955.3	
396.81	5242.1	
397.02	4761.5	
397.22	4164.2	
397.42	4245.4	
397.63	5268.1	
397.83	4666.6	
398.04	3370.3	
398.24	3770.3	
398.44	5063.9	
398.65	4418.2	
398.85	3246.7	
399.05	3309.5	
399.26	4693.3	
399.46	5889.3	
399.67	3597.6	
399.87	3386	
400.07	4937.7	
400.28	5205.3	
400.48	3431.7	
400.69	4229.7	
400.89	5348.6	
401.09	5740.5	
401.3	3392.1	
401.5	4281.6	
401.7	5833.3	
401.91	6081.1	
402.11	3737.5	
402.32	3837.2	
402.52	5412.8	
402.72	5296.7	
402.93	4089.1	
403.13	3128.6	
403.33	6070.9	
403.54	5008	
403.74	3773	
403.94	4491.9	
404.15	5135.6	
404.35	5907.7	
404.56	3639.2	
404.76	4913.1	
404.96	5279	
405.17	5184.8	
405.37	4234.5	
405.57	3956.7	
405.78	5373.9	
405.98	5033.9	
406.18	3607.2	
406.39	4270.7	
406.59	5417.6	
406.79	5055.1	
407	3441.3	
407.2	3538.2	
407.4	5432.6	
407.61	5481	
407.81	3494.5	
408.01	5054.4	
408.22	4491.9	
408.42	6001.2	
408.62	4309.6	
408.83	3846.1	
409.03	4984.1	
409.23	4870.1	
409.44	3944.4	
409.64	4047.5	
409.84	5692.7	
410.05	5556.8	
410.25	4031.1	
410.45	3833.8	
410.66	5242.8	
410.86	7020.4	
411.06	4078.2	
411.27	4005.1	
411.47	6881.2	
411.67	5296.7	
411.88	4316.4	
412.08	4333.5	
412.28	5799.8	
412.49	6150.7	
412.69	4034.5	
412.89	4018.8	
413.09	6032	
413.3	5897.5	
413.5	4057	
413.7	3796.9	
413.91	5396.4	
414.11	5977.3	
414.31	4000.4	
414.52	4260.5	
414.72	5765.7	
414.92	5591.6	
415.12	3986	
415.33	4360.1	
415.53	5881.1	
415.73	6060.6	
415.94	4620.2	
416.14	4192.2	
416.34	5203.9	
416.55	5048.9	
416.75	5039.4	
416.95	4684.4	
417.15	5979.4	
417.36	6485.2	
417.56	5223.7	
417.76	4502.1	
417.97	6176	
418.17	5836.7	
418.37	4203.8	
418.57	4223.6	
418.78	5810.8	
418.98	5575.3	
419.18	4922.6	
419.38	4829.1	
419.59	5533.6	
419.79	5287.9	
419.99	4096.6	
420.2	4395.6	
420.4	6002.6	
420.6	6007.4	
420.8	4050.9	
421.01	3953.3	
421.21	5864	
421.41	5890.6	
421.61	4295.3	
421.82	4072	
422.02	5512.4	
422.22	6177.4	
422.42	4627.7	
422.63	4434.5	
422.83	5494	
423.03	6454.5	
423.23	4504.8	
423.44	3697.9	
423.64	5579.3	
423.84	5326.8	
424.04	4016.7	
424.25	3731.4	
424.45	6205.3	
424.65	6239.5	
424.85	3629	
425.06	4040.6	
425.26	6388.3	
425.46	5479.7	
425.66	4423.6	
425.87	4261.8	
426.07	6070.9	
426.27	5912.5	
426.47	4304.1	
426.67	3822.2	
426.88	6318.7	
427.08	5934.3	
427.28	4532.8	
427.48	3756	
427.69	5098.1	
427.89	5549.3	
428.09	4392.2	
428.29	3848.8	
428.5	6109.1	
428.7	5712.5	
428.9	3715	
429.1	4124.6	
429.3	5677	
429.51	5913.2	
429.71	4002.4	
429.91	4611.3	
430.11	5951.4	
430.31	6050.4	
430.52	4177.2	
430.72	4362.2	
430.92	6252.4	
431.12	5827.2	
431.32	3847.5	
431.53	4314.4	
431.73	5071.5	
431.93	6336.4	
432.13	3855	
432.33	3763.5	
432.54	5466.7	
432.74	5645.6	
432.94	3647.4	
433.14	4496.7	
433.34	5898.2	
433.55	5432.6	
433.75	4473.4	
433.95	5715.2	
434.15	5716.6	
434.35	5332.2	
434.56	3870.7	
434.76	3440.6	
434.96	5651	
435.16	5797.8	
435.36	3697.3	
435.56	4559.5	
435.77	5336.3	
435.97	5482.4	
436.17	5070.1	
436.37	4472.8	
436.57	5323.4	
436.78	5222.3	
436.98	4515.1	
437.18	5030.5	
437.38	5799.2	
437.58	5464	
437.78	5089.2	
437.99	4031.8	
438.19	5969.1	
438.39	6533	
438.59	3999	
438.79	3614	
438.99	6327.5	
439.2	5414.1	
439.4	3684.3	
439.6	3736.2	
439.8	5649	
440	6444.3	
440.2	4396.3	
440.4	4486.4	
440.61	6021	
440.81	6337.8	
441.01	3809.2	
441.21	4513.7	
441.41	6248.4	
441.61	5898.1	
441.81	4638.6	
442.02	5439.4	
442.22	6632	
442.42	6060.6	
442.62	3816.7	
442.82	3901.4	
443.02	6292.7	
443.22	5605.3	
443.43	4102.8	
443.63	3787.4	
443.83	5432.6	
444.03	5479.7	
444.23	4770.4	
444.43	4426.3	
444.63	5687.9	
444.83	6571.9	
445.04	3958	
445.24	4916.5	
445.44	6001.9	
445.64	6014.2	
445.84	4506.9	
446.04	4575.2	
446.24	5490.6	
446.44	6309.8	
446.65	3949.2	
446.85	4215.4	
447.05	5771.9	
447.25	6244.3	
447.45	4353.3	
447.65	3849.5	
447.85	5765.7	
448.05	5491.3	
448.25	4620.2	
448.46	4422.9	
448.66	5758.9	
448.86	5496.1	
449.06	3670	
449.26	4561.5	
449.46	5935	
449.66	5271.5	
449.86	4201.7	
450.06	4156	
450.26	5414.8	
450.47	5841.5	
450.67	4414.7	
450.87	4634.6	
451.07	6005.3	
451.27	5711.1	
451.47	3919.8	
451.67	4276.8	
451.87	5501.5	
452.07	6363.7	
452.27	4013.3	
452.47	3960.8	
452.67	5751.4	
452.88	6049.7	
453.08	3566.2	
453.28	5051.7	
453.48	6712.6	
453.68	5671.5	
453.88	3982.6	
454.08	4052.9	
454.28	5877.7	
454.48	5643.5	
454.68	4481	
454.88	4877.6	
455.08	6079.1	
455.28	5717.2	
455.48	3814	
455.68	4279.6	
455.89	6379.4	
456.09	6049.7	
456.29	4106.9	
456.49	4091.2	
456.69	6273.6	
456.89	5659.2	
457.09	4485.1	
457.29	4741	
457.49	5935.7	
457.69	5923.4	
457.89	4285.7	
458.09	3823.6	
458.29	5748.6	
458.49	6209.4	
458.69	4624.3	
458.89	4105.5	
459.09	6433.4	
459.29	6512.5	
459.49	4152.6	
459.69	4857.1	
459.9	6115.2	
460.1	5709.7	
460.3	4177.2	
460.5	4010.6	
460.7	6070.2	
460.9	5791	
461.1	3663.8	
461.3	4683	
461.5	6561	
461.7	6160.3	
461.9	3971.7	
462.1	4372.4	
462.3	5797.8	
462.5	6211.5	
462.7	4126.7	
462.9	4079.6	
463.1	6992.4	
463.3	6709.1	
463.5	4242	
463.7	4909.7	
463.9	5939.1	
464.1	6162.3	
464.3	4279.6	
464.5	4547.2	
464.7	6404	
464.9	6073.6	
465.1	5499.5	
465.3	4738.3	
465.5	6665.5	
465.7	6623.1	
465.9	4965	
466.1	4842.1	
466.3	6364.4	
466.5	6367.1	
466.7	5466	
466.9	4576.5	
467.1	6421.7	
467.3	6978.1	
467.5	5272.2	
467.7	4489.8	
467.9	7178.1	
468.1	7709.2	
468.3	5191.6	
468.5	5458.5	
468.7	6221	
468.9	6190.3	
469.1	4764.9	
469.3	5186.1	
469.5	7729	
469.7	5927.5	
469.9	5131.5	
470.1	4506.9	
470.3	6260.6	
470.5	6262	
470.7	5439.4	
470.9	4624.3	
471.1	5976	
471.3	6487.3	
471.5	4416.8	
471.69	6015.6	
471.89	6081.1	
472.09	5652.4	
472.29	5023.7	
472.49	5366.4	
472.69	5766.4	
472.89	6404	
473.09	4360.8	
473.29	4573.1	
473.49	5993.7	
473.69	6036	
473.89	5311.1	
474.09	4696.7	
474.29	6921.5	
474.49	6794.5	
474.69	5200.5	
474.89	4690.5	
475.09	6026.5	
475.29	6000.5	
475.49	4344.4	
475.69	4536.3	
475.88	7355.6	
476.08	6427.9	
476.28	4232.5	
476.48	4597	
476.68	6756.2	
476.88	6485.9	
477.08	4503.5	
477.28	4816.8	
477.48	6272.9	
477.68	6707.1	
477.88	4411.3	
478.08	4632.5	
478.28	6889.4	
478.48	6273.6	
478.67	4640.7	
478.87	4204.5	
479.07	6692.8	
479.27	6313.9	
479.47	4778.6	
479.67	4855.1	
479.87	6632	
480.07	6987	
480.27	4252.3	
480.47	5489.9	
480.67	6352.8	
480.87	6847	
481.06	4521.2	
481.26	5173.2	
481.46	6386.2	
481.66	6195.1	
481.86	4846.2	
482.06	5528.8	
482.26	6097.5	
482.46	6767.2	
482.66	4777.2	
482.86	4541	
483.05	6403.3	
483.25	5881.8	
483.45	6638.8	
483.65	4721.3	
483.85	5987.6	
484.05	6171.9	
484.25	5091.9	
484.45	5331.5	
484.65	6819.1	
484.84	6849.8	
485.04	4702.8	
485.24	4721.3	
485.44	7122.2	
485.64	5842.9	
485.84	4182	
486.04	5159.5	
486.24	6053.8	
486.44	6320	
486.63	4149.9	
486.83	4713.7	
487.03	6014.9	
487.23	6126.2	
487.43	4194.9	
487.63	5980.1	
487.83	6194.4	
488.02	6836.1	
488.22	4879.6	
488.42	5362.9	
488.62	6783.6	
488.82	6006.7	
489.02	4634.6	
489.22	4635.9	
489.41	6731	
489.61	6496.8	
489.81	4412	
490.01	4440.7	
490.21	6739.9	
490.41	7179.5	
490.61	4404.5	
490.8	4498	
491	6367.8	
491.2	5827.2	
491.4	4986.1	
491.6	4330.8	
491.8	6427.9	
491.99	6391	
492.19	4225	
492.39	4524	
492.59	6685.9	
492.79	6824.5	
492.99	5107.6	
493.18	4412.7	
493.38	6796.5	
493.58	7275.1	
493.78	4954.7	
493.98	4562.9	
494.18	6483.2	
494.37	6064	
494.57	5016.2	
494.77	4945.8	
494.97	6671.6	
495.17	6769.2	
495.37	4640.7	
495.56	4867.3	
495.76	6940.6	
495.96	6568.5	
496.16	5593.7	
496.36	4772.4	
496.55	6776	
496.75	6361.7	
496.95	5072.1	
497.15	4932.9	
497.35	6708.5	
497.54	6684.6	
497.74	4769.7	
497.94	6215.6	
498.14	7272.3	
498.34	7131	
498.53	4498	
498.73	5097.4	
498.93	6197.2	
499.13	6707.8	
499.33	4922	
499.52	5336.3	
499.72	6696.9	
499.92	6928.3	
500.12	4718.5	
500.32	4926.7	
500.51	6969.2	
500.71	6674.3	
500.91	5551.4	
501.11	5201.8	
501.31	6853.2	
501.5	7161.1	
501.7	5735	
501.9	4973.2	
502.1	6639.5	
502.29	7021.1	
502.49	5287.2	
502.69	5726.1	
502.89	6862.7	
503.09	6877.1	
503.28	4655	
503.48	4715.8	
503.68	6359.6	
503.88	6300.2	
504.07	5548.6	
504.27	5040.7	
504.47	6584.2	
504.67	6727.6	
504.86	5431.2	
505.06	5085.8	
505.26	6459.3	
505.46	7703.8	
505.65	5060.5	
505.85	5313.8	
506.05	6335.7	
506.25	6815	
506.44	4630.5	
506.64	5269.4	
506.84	6325.5	
507.04	7020.4	
507.23	4776.5	
507.43	5152.7	
507.63	7804.8	
507.83	6497.5	
508.02	5223	
508.22	4965	
508.42	8054.7	
508.62	6295.5	
508.81	5080.3	
509.01	5517.2	
509.21	6296.1	
509.4	6483.9	
509.6	5231.9	
509.8	4802.5	
510	6358.3	
510.19	7458	
510.39	4723.3	
510.59	4843.4	
510.79	6317.3	
510.98	7283.3	
511.18	4880.3	
511.38	4840	
511.57	6990.4	
511.77	6750.8	
511.97	5487.9	
512.17	4823	
512.36	6878.4	
512.56	6849.8	
512.76	4776.5	
512.95	4646.2	
513.15	7080.5	
513.35	5928.9	
513.55	5501.5	
513.74	4760.8	
513.94	6939.2	
514.14	6498.9	
514.33	5464.7	
514.53	5304.2	
514.73	6514.6	
514.92	6527.6	
515.12	4883	
515.32	4767	
515.51	6650.4	
515.71	7016.3	
515.91	6163	
516.11	4757.4	
516.3	7856	
516.5	6310.5	
516.7	5232.6	
516.89	5606	
517.09	6442.2	
517.29	6459.3	
517.48	5455.8	
517.68	5061.9	
517.88	6178.7	
518.07	6749.4	
518.27	5391.6	
518.47	4689.8	
518.66	7146.7	
518.86	6073.6	
519.06	4528.1	
519.25	4890.5	
519.45	6344.6	
519.65	7482.6	
519.84	5398.4	
520.04	5888.6	
520.24	7843	
520.43	6856.6	
520.63	5173.2	
520.83	4990.2	
521.02	6354.8	
521.22	6851.8	
521.42	5395.7	
521.61	5793	
521.81	6474.3	
522.01	6672.3	
522.2	5254.4	
522.4	5150.6	
522.6	6948.8	
522.79	5977.3	
522.99	5148.6	
523.18	4670.7	
523.38	6717.3	
523.58	6740.5	
523.77	5955.5	
523.97	4561.5	
524.17	8035.5	
524.36	7510.6	
524.56	5512.4	
524.76	5294	
524.95	6681.2	
525.15	6414.2	
525.34	5162.9	
525.54	5167	
525.74	7000	
525.93	6172.6	
526.13	6066.8	
526.33	5107	
526.52	7208.8	
526.72	6808.1	
526.91	6059.9	
527.11	5479.7	
527.31	7202.7	
527.5	7464.8	
527.7	5421	
527.89	4698.7	
528.09	6335.7	
528.29	6761.7	
528.48	5700.9	
528.68	5427.8	
528.87	7133.1	
529.07	7234.8	
529.27	5345.9	
529.46	5029.8	
529.66	6858.6	
529.85	7230	
530.05	4874.2	
530.25	5547.9	
530.44	7821.2	
530.64	6745.3	
530.83	5229.8	
531.03	5401.2	
531.23	7283.9	
531.42	7027.3	
531.62	5900.9	
531.81	5328.8	
532.01	7255.3	
532.21	7516.7	
532.4	5086.5	
532.6	5341.8	
532.79	7937.9	
532.99	7143.3	
533.18	5398.4	
533.38	6138.4	
533.58	6830.7	
533.77	7395.2	
533.97	5371.1	
534.16	5948.7	
534.36	7667.6	
534.55	6804.7	
534.75	6037.4	
534.95	5428.5	
535.14	7531.7	
535.34	6872.3	
535.53	5210	
535.73	6711.9	
535.92	7915.4	
536.12	6993.8	
536.31	5289.2	
536.51	6155.5	
536.71	7281.9	
536.9	6974	
537.1	5450.3	
537.29	5636.7	
537.49	7550.9	
537.68	6850.5	
537.88	5847.6	
538.07	5175.9	
538.27	7016.3	
538.46	7800	
538.66	5057.8	
538.86	5427.1	
539.05	7164.5	
539.25	7323.5	
539.44	5621	
539.64	5354.1	
539.83	6954.2	
540.03	7712.7	
540.22	5271.5	
540.42	5369.1	
540.61	7231.4	
540.81	7206.8	
541	5715.2	
541.2	6252.4	
541.39	6819.7	
541.59	6999.3	
541.78	5995.1	
541.98	5326.8	
542.18	6571.9	
542.37	6547.4	
542.57	5672.2	
542.76	5947.3	
542.96	6702.3	
543.15	7200.7	
543.35	5603.9	
543.54	5122	
543.74	7395.2	
543.93	7140.6	
544.13	5668.1	
544.32	6460.7	
544.52	7334.5	
544.71	6789.7	
544.91	4952	
545.1	5905.7	
545.3	6786.3	
545.49	7303.1	
545.69	4953.4	
545.88	5431.2	
546.08	8017.8	
546.27	7640.3	
546.47	5803.3	
546.66	5227.8	
546.86	7448.5	
547.05	7867.6	
547.24	5378.6	
547.44	5274.9	
547.63	6680.5	
547.83	7447.1	
548.02	5600.5	
548.22	5800.5	
548.41	6488.6	
548.61	7486	
548.8	5273.5	
549	5285.1	
549.19	7092.8	
549.39	7290.1	
549.58	4989.5	
549.78	5457.2	
549.97	7372	
550.17	6892.1	
550.36	6154.8	
550.55	6917.4	
550.75	6969.2	
550.94	7705.8	
551.14	5258.5	
551.33	5541.1	
551.53	6444.3	
551.72	7199.3	
551.92	5552.7	
552.11	5353.4	
552.31	7366.5	
552.5	7276.4	
552.69	6723.5	
552.89	5173.2	
553.08	7280.5	
553.28	6942.6	
553.47	5396.4	
553.67	6291.4	
553.86	7793.9	
554.06	6394.4	
554.25	4747.9	
554.44	5225.7	
554.64	8335.9	
554.83	7911.3	
555.03	5244.2	
555.22	5586.9	
555.42	7434.1	
555.61	7178.1	
555.8	5374.6	
556	5588.9	
556.19	6521.4	
556.39	7465.5	
556.58	5409.4	
556.78	5438.7	
556.97	7179.5	
557.16	6828.6	
557.36	6330.3	
557.55	5129.5	
557.75	6365.8	
557.94	7737.2	
558.13	5242.8	
558.33	5044.1	
558.52	7564.5	
558.72	6609.5	
558.91	5119.2	
559.1	5401.2	
559.3	6435.4	
559.49	6252.4	
559.69	4838	
559.88	5618.9	
560.07	7103.7	
560.27	7464.8	
560.46	5767.8	
560.66	5897.5	
560.85	6937.8	
561.04	6297.5	
561.24	5147.2	
561.43	5322.7	
561.63	6500.9	
561.82	6782.2	
562.01	6211.5	
562.21	5468.1	
562.4	7117.4	
562.59	7755	
562.79	5451.7	
562.98	5117.2	
563.18	6987	
563.37	8135.9	
563.56	5717.2	
563.76	5066	
563.95	6668.9	
564.14	6532.3	
564.34	5432.6	
564.53	5254.4	
564.73	7121.5	
564.92	7275.1	
565.11	5528.2	
565.31	4954	
565.5	7460.1	
565.69	6623.1	
565.89	5238	
566.08	5433.3	
566.27	7342.7	
566.47	7599.3	
566.66	5963.7	
566.85	4853	
567.05	7046.4	
567.24	6604.7	
567.44	5083.1	
567.63	6133	
567.82	7223.2	
568.02	6950.1	
568.21	5099.4	
568.4	5410.7	
568.6	6971.3	
568.79	6874.3	
568.98	5038	
569.18	5155.4	
569.37	6840.9	
569.56	8408.3	
569.76	5467.4	
569.95	6146	
570.14	7225.2	
570.34	7081.9	
570.53	5076.2	
570.72	5049.6	
570.91	7574.1	
571.11	6845	
571.3	5397.1	
571.49	6186.9	
571.69	6922.1	
571.88	6580.8	
572.07	5797.8	
572.27	5792.3	
572.46	6506.4	
572.65	7314.7	
572.85	5293.3	
573.04	5550.7	
573.23	7546.8	
573.43	6997.9	
573.62	5056.4	
573.81	5608.7	
574	7015	
574.2	6735.1	
574.39	5248.9	
574.58	5341.8	
574.78	7556.3	
574.97	7064.8	
575.16	5668.1	
575.36	5765	
575.55	7408.2	
575.74	7417.7	
575.93	4973.8	
576.13	5775.3	
576.32	6877.1	
576.51	7308.5	
576.71	5339.1	
576.9	6378.1	
577.09	7574.8	
577.28	7150.8	
577.48	5708.4	
577.67	4926	
577.86	6871.6	
578.05	7117.4	
578.25	5454.4	
578.44	5474.9	
578.63	6990.4	
578.83	7931.8	
579.02	4995.7	
579.21	6105.7	
579.4	7208.8	
579.6	6953.5	
579.79	5554.8	
579.98	7230.7	
580.17	7413	
580.37	7533.1	
580.56	5205.3	
580.75	5723.4	
580.94	7746.8	
581.14	7816.4	
581.33	6044.9	
581.52	5381.4	
581.71	7273.7	
581.91	7807.5	
582.1	5091.9	
582.29	5509.7	
582.48	7036.1	
582.68	6987.7	
582.87	5851	
583.06	5575.9	
583.25	7331	
583.45	6862.7	
583.64	6086.6	
583.83	6568.5	
584.02	6946	
584.21	7329	
584.41	6097.5	
584.6	5553.4	
584.79	7056.6	
584.98	7593.2	
585.18	5131.5	
585.37	5110.4	
585.56	6705	
585.75	7286	
585.94	5359.5	
586.14	5788.9	
586.33	7866.9	
586.52	6992.4	
586.71	5752.1	
586.91	5497.4	
587.1	6643.6	
587.29	7476.5	
587.48	5485.8	
587.67	5337.7	
587.87	7391.8	
588.06	7293.5	
588.25	6397.2	
588.44	5906.3	
588.63	7100.3	
588.83	7467.6	
589.02	5466.7	
589.21	5319.9	
589.4	6978.1	
589.59	6878.4	
589.78	4863.2	
589.98	5145.2	
590.17	6600.6	
590.36	6962.4	
590.55	4719.2	
590.74	5337	
590.94	8058.8	
591.13	6933.7	
591.32	5130.2	
591.51	4694.6	
591.7	7245.7	
591.89	6813.6	
592.09	4797.7	
592.28	5156.8	
592.47	6234.7	
592.66	7726.3	
592.85	4845.5	
593.05	5046.2	
593.24	6738.5	
593.43	7458.7	
593.62	5045.5	
593.81	5443.5	
594	6790.4	
594.19	6938.5	
594.39	5037.3	
594.58	5032.5	
594.77	7025.2	
594.96	7447.8	
595.15	4924	
595.34	5453.1	
595.54	6995.9	
595.73	6397.2	
595.92	4523.3	
596.11	5358.2	
596.3	7389.8	
596.49	6513.9	
596.68	5222.3	
596.88	5468.8	
597.07	7206.8	
597.26	6254.5	
597.45	4814.1	
597.64	5730.9	
597.83	6447.7	
598.02	7028.6	
598.22	4877.6	
598.41	5509.7	
598.6	6857.3	
598.79	6370.5	
598.98	4896.7	
599.17	5639.4	
599.36	6918	
599.55	7742.7	
599.74	6475	
599.94	6247.7	
600.13	7324.2	
600.32	6454.5	
600.51	4693.3	
600.7	4846.9	
600.89	7815	
601.08	7878.5	
601.27	4686.4	
601.47	5390.3	
601.66	7255.3	
601.85	7726.3	
602.04	5254.4	
602.23	5412.8	
602.42	6484.6	
602.61	7015.7	
602.8	5140.4	
602.99	4995.7	
603.18	6745.3	
603.37	6920.8	
603.57	5520.6	
603.76	5883.8	
603.95	7482.6	
604.14	7142.6	
604.33	5102.2	
604.52	5286.5	
604.71	7058	
604.9	6648.4	
605.09	5758.2	
605.28	5599.1	
605.47	7399.3	
605.66	7044.3	
605.86	5420.3	
606.05	5018.9	
606.24	7354.3	
606.43	6237.4	
606.62	5262.6	
606.81	5800.5	
607	7295.5	
607.19	6747.4	
607.38	4852.3	
607.57	5023	
607.76	6583.5	
607.95	6073.6	
608.14	5418.9	
608.33	5777.3	
608.52	6513.9	
608.72	7278.5	
608.91	4756.1	
609.1	4711	
609.29	6668.2	
609.48	6263.4	
609.67	5481	
609.86	4825.7	
610.05	6367.1	
610.24	6597.2	
610.43	4725.3	
610.62	4402.5	
610.81	7440.3	
611	7347.4	
611.19	4865.3	
611.38	5366.4	
611.57	6900.3	
611.76	7752.2	
611.95	4681	
612.14	4588.1	
612.33	6668.9	
612.52	6379.4	
612.71	5085.8	
612.9	4487.8	
613.09	6079.1	
613.28	7907.2	
613.47	4992.9	
613.66	5602.6	
613.85	6806.8	
614.04	6356.9	
614.24	4912.4	
614.43	4313.7	
614.62	6918	
614.81	6873	
615	5319.3	
615.19	5387.5	
615.38	6393.8	
615.57	6707.8	
615.76	5323.4	
615.95	5963.7	
616.14	6999.3	
616.33	6701	
616.52	5510.4	
616.71	5578	
616.9	6878.4	
617.09	6704.4	
617.28	5028.4	
617.47	5981.4	
617.66	6202.6	
617.85	6214.2	
618.04	5677.7	
618.22	5315.2	
618.41	6481.1	
618.6	7224.6	
618.79	5187.5	
618.98	4985.4	
619.17	7332.4	
619.36	6066.8	
619.55	5050.3	
619.74	5035.3	
619.93	6756.9	
620.12	6389	
620.31	5523.4	
620.5	5601.2	
620.69	7253.9	
620.88	7550.9	
621.07	6187.6	
621.26	5403.9	
621.45	6962.4	
621.64	6992.4	
621.83	5569.1	
622.02	4929.5	
622.21	7077.1	
622.4	6813.6	
622.59	5907.7	
622.78	5773.2	
622.97	6552.1	
623.16	7298.3	
623.35	5502.9	
623.54	4881	
623.72	6694.1	
623.91	6793.1	
624.1	5696.1	
624.29	4657.8	
624.48	7658.7	
624.67	7073	
624.86	5607.3	
625.05	4874.8	
625.24	7729	
625.43	6580.1	
625.62	6898.9	
625.81	5023.7	
626	7255.3	
626.19	6746	
626.38	5671.5	
626.56	5153.4	
626.75	6590.4	
626.94	7111.2	
627.13	5651.7	
627.32	4689.8	
627.51	7118.1	
627.7	7910.6	
627.89	4811.4	
628.08	5661.3	
628.27	6490.7	
628.46	6713.2	
628.65	5074.9	
628.83	4802.5	
629.02	7083.9	
629.21	6483.2	
629.4	5354.1	
629.59	5522.7	
629.78	6442.2	
629.97	7232.7	
630.16	5511.8	
630.35	5143.8	
630.54	7566.6	
630.72	7346.1	
630.91	5144.5	
631.1	5498.1	
631.29	6929.6	
631.48	6978.1	
631.67	5642.2	
631.86	5240.8	
632.05	6714.6	
632.24	6721.4	
632.42	4991.6	
632.61	5459.2	
632.8	6686.6	
632.99	6412.2	
633.18	5457.2	
633.37	5700.9	
633.56	6965.8	
633.75	6840.9	
633.93	5488.6	
634.12	5291.3	
634.31	7600.7	
634.5	7242.3	
634.69	5153.4	
634.88	5627.8	
635.07	6771.3	
635.25	7324.2	
635.44	5933.6	
635.63	6167.1	
635.82	6724.8	
636.01	6279.8	
636.2	5782.1	
636.39	5560.9	
636.57	7581.6	
636.76	7148.1	
636.95	5122.7	
637.14	6081.1	
637.33	7027.9	
637.52	7656.7	
637.7	4945.8	
637.89	5772.5	
638.08	6703.7	
638.27	7780.9	
638.46	5723.4	
638.65	6038.8	
638.83	7895.6	
639.02	6557.6	
639.21	5654.4	
639.4	6010.1	
639.59	6931.7	
639.78	6661.4	
639.96	5044.8	
640.15	5175.9	
640.34	6822.5	
640.53	6929	
640.72	4950.6	
640.91	5214.8	
641.09	6350.8	
641.28	7387.7	
641.47	5156.1	
641.66	5830.6	
641.85	6919.4	
642.03	7103.7	
642.22	5617.6	
642.41	5177.9	
642.6	6435.4	
642.79	6098.9	
642.97	5152.7	
643.16	5571.8	
643.35	6482.5	
643.54	6322.1	
643.73	5026.4	
643.91	5591.6	
644.1	6286.6	
644.29	6740.5	
644.48	5096.7	
644.67	5164.3	
644.85	6294.8	
645.04	6725.5	
645.23	4820.9	
645.42	5015.5	
645.6	6384.2	
645.79	7215	
645.98	4973.2	
646.17	4250.2	
646.36	6132.3	
646.54	6636.1	
646.73	5666.7	
646.92	4705.5	
647.11	6292	
647.29	7076.4	
647.48	4804.5	
647.67	4631.8	
647.86	7358.4	
648.05	7324.2	
648.23	5010	
648.42	5964.4	
648.61	6849.8	
648.8	6605.4	
648.98	4753.3	
649.17	5072.1	
649.36	6307.1	
649.55	5866.7	
649.73	4863.9	
649.92	5368.4	
650.11	6212.2	
650.3	6559	
650.48	4928.1	
650.67	4806.6	
650.86	6704.4	
651.05	5803.9	
651.23	4862.6	
651.42	4870.1	
651.61	6331	
651.79	6318.7	
651.98	5055.1	
652.17	4683.7	
652.36	6650.4	
652.54	5948	
652.73	4778.6	
652.92	4694.6	
653.11	6637.5	
653.29	6752.8	
653.48	4232.5	
653.67	5057.1	
653.85	6457.9	
654.04	7277.1	
654.23	5165	
654.42	4798.4	
654.6	6133.7	
654.79	6744	
654.98	4432.5	
655.16	4875.5	
655.35	5856.5	
655.54	5726.8	
655.73	4504.8	
655.91	4459.8	
656.1	6590.4	
656.29	5745.9	
656.47	4164.2	
656.66	5365.7	
656.85	6006.7	
657.03	5956.9	
657.22	4525.3	
657.41	4526.7	
657.59	6088.6	
657.78	5831.9	
657.97	4343.7	
658.16	4807.9	
658.34	6601.3	
658.53	6866.8	
658.72	5543.9	
658.9	5869.5	
659.09	6228.6	
659.28	6174.6	
659.46	4677.6	
659.65	4558.8	
659.84	5955.5	
660.02	6458.6	
660.21	4668	
660.4	4511	
660.58	6706.4	
660.77	6200.6	
660.96	5001.1	
661.14	4317.8	
661.33	7108.5	
661.52	6969.2	
661.7	4195.6	
661.89	6915.3	
662.08	5951.4	
662.26	5594.4	
662.45	4445.5	
662.64	4601.1	
662.82	6550.8	
663.01	5821	
663.2	4576.5	
663.38	5102.9	
663.57	6421.7	
663.75	6198.5	
663.94	4750.6	
664.13	5787.6	
664.31	5906.3	
664.5	6467.5	
664.69	4984.1	
664.87	5332.9	
665.06	5724.8	
665.25	6259.3	
665.43	5567.7	
665.62	5600.5	
665.8	6543.3	
665.99	6052.4	
666.18	4795.7	
666.36	4857.1	
666.55	6503.7	
666.74	6399.9	
666.92	4547.9	
667.11	5787.6	
667.29	6113.9	
667.48	6461.3	
667.67	5464.7	
667.85	4721.9	
668.04	6123.4	
668.22	5987.6	
668.41	4946.5	
668.6	5007.3	
668.78	5947.3	
668.97	6104.3	
669.15	5137.7	
669.34	4357.4	
669.53	5894.7	
669.71	6204.7	
669.9	4498	
670.08	4934.9	
670.27	5890	
670.46	6385.6	
670.64	5178.6	
670.83	5296	
671.01	5776	
671.2	6286.6	
671.38	4591.5	
671.57	4500.1	
671.76	6817	
671.94	7211.6	
672.13	4414.7	
672.31	5251.7	
672.5	6444.3	
672.69	5918.6	
672.87	4588.1	
673.06	4753.3	
673.24	6314.6	
673.43	5971.9	
673.61	5113.1	
673.8	4771.8	
673.98	6403.3	
674.17	6541.2	
674.36	5239.4	
674.54	5073.5	
674.73	6238.8	
674.91	6523.5	
675.1	4823.6	
675.28	4579.3	
675.47	6146.6	
675.65	6551.5	
675.84	4809.3	
676.03	4982	
676.21	6036.7	
676.4	5580	
676.58	5403.2	
676.77	5157.5	
676.95	7114	
677.14	5952.8	
677.32	4516.5	
677.51	4437.3	
677.69	6528.9	
677.88	5682.4	
678.06	4477.5	
678.25	4577.2	
678.44	6131.6	
678.62	5966.4	
678.81	4406.5	
678.99	5077.6	
679.18	6707.1	
679.36	6443.6	
679.55	4719.9	
679.73	5203.2	
679.92	6439.5	
680.1	5958.2	
680.29	5677	
680.47	4738.3	
680.66	5961	
680.84	6573.3	
681.03	4271.4	
681.21	5008.6	
681.4	5905	
681.58	5963	
681.77	4613.4	
681.95	4554.7	
682.14	6625.2	
682.32	6879.1	
682.51	5238.7	
682.69	4315.8	
682.88	5870.2	
683.06	6374	
683.25	5016.2	
683.43	5357.5	
683.62	6173.9	
683.8	6454.5	
683.99	5507.7	
684.17	4926.7	
684.36	7142.6	
684.54	6111.1	
684.73	4382.7	
684.91	4499.4	
685.1	6378.1	
685.28	5924.8	
685.46	4909.7	
685.65	4988.9	
685.83	6500.3	
686.02	6008.1	
686.2	4459.8	
686.39	4622.3	
686.57	5860.6	
686.76	6804.7	
686.94	4542.4	
687.13	4658.4	
687.31	6293.4	
687.5	6053.1	
687.68	4204.5	
687.86	5186.1	
688.05	7347.4	
688.23	5589.6	
688.42	5107.6	
688.6	4579.3	
688.79	5918.6	
688.97	5987.6	
689.16	4962.9	
689.34	4064.5	
689.52	6492.7	
689.71	6717.3	
689.89	5125.4	
690.08	4618.9	
690.26	6178.7	
690.45	6034	
690.63	5154.7	
690.81	4711	
691	6030.6	
691.18	5909.8	
691.37	4842.1	
691.55	6522.8	
691.74	5927.5	
691.92	7339.2	
692.1	4807.3	
692.29	4320.5	
692.47	6030.6	
692.66	5563	
692.84	4544.4	
693.02	4934.2	
693.21	5517.9	
693.39	6075.6	
693.58	5087.2	
693.76	4565.6	
693.94	6868.9	
694.13	6717.3	
694.31	4601.8	
694.5	5406.6	
694.68	5864.7	
694.86	6158.9	
695.05	4876.9	
695.23	4941.7	
695.42	6395.1	
695.6	8117.5	
695.78	5297.4	
695.97	4677.6	
696.15	6507.8	
696.34	5964.4	
696.52	4473.4	
696.7	5138.4	
696.89	6267.5	
697.07	5801.9	
697.25	5091.9	
697.44	6146	
697.62	6275.7	
697.81	6452.5	
697.99	4809.3	
698.17	5152	
698.36	5821	
698.54	6298.2	
698.72	5007.3	
698.91	4345.8	
699.09	5997.1	
699.28	5845.6	
699.46	4820.2	
699.64	4711.7	
699.83	5886.5	
700.01	6651.8	
700.19	5369.8	
700.38	4172.4	
700.56	6737.8	
700.74	5834.7	
700.93	4386.7	
701.11	5033.9	
701.29	6322.8	
701.48	7079.8	
701.66	4613.4	
701.84	4672.8	
702.03	5969.8	
702.21	6507.1	
702.39	4358.8	
702.58	4760.8	
702.76	6353.5	
702.94	6358.9	
703.13	4262.5	
703.31	6087.2	
703.49	5811.5	
703.68	6503.7	
703.86	4489.8	
704.04	5216.9	
704.23	6186.9	
704.41	6446.3	
704.59	4652.3	
704.78	5560.2	
704.96	7084.6	
705.14	6432	
705.33	4425.7	
705.51	5042.8	
705.69	5960.3	
705.87	6677.1	
706.06	5240.8	
706.24	4352.6	
706.42	6235.4	
706.61	6438.8	
706.79	5335	
706.97	4412	
707.16	5856.5	
707.34	6309.1	
707.52	5229.8	
707.7	4523.3	
707.89	5973.2	
708.07	5659.9	
708.25	5275.6	
708.44	5383.4	
708.62	5858.6	
708.8	6777.4	
708.98	5485.8	
709.17	4642.1	
709.35	6244.9	
709.53	6229.9	
709.72	4428.4	
709.9	4791.6	
710.08	6438.8	
710.26	6404.7	
710.45	5709.1	
710.63	4666.6	
710.81	6163	
710.99	6157.6	
711.18	5146.5	
711.36	4780	
711.54	5997.8	
711.72	6568.5	
711.91	4830.5	
712.09	4399.7	
712.27	6139.8	
712.45	6918	
712.64	5023.7	
712.82	4256.4	
713	5828.5	
713.18	5967.1	
713.37	4394.9	
713.55	5313.1	
713.73	6546	
713.91	5509.7	
714.1	4691.2	
714.28	4281.6	
714.46	6303.6	
714.64	5771.2	
714.83	3923.9	
715.01	4500.1	
715.19	5829.9	
715.37	5279.7	
715.55	4201.7	
715.74	4497.3	
715.92	6420.4	
716.1	4894.6	
716.28	5326.1	
716.47	4539	
716.65	5532.2	
716.83	5503.6	
717.01	4484.4	
717.19	4503.5	
717.38	7105.8	
717.56	5238	
717.74	4622.3	
717.92	3991.5	
718.1	6204	
718.29	5483.1	
718.47	3632.4	
718.65	4124.6	
718.83	6113.9	
719.01	6035.4	
719.2	3585.3	
719.38	4386.1	
719.56	5829.9	
719.74	6974.7	
719.92	4170.3	
720.11	4960.2	
720.29	5857.2	
720.47	5272.2	
720.65	3745.1	
720.83	4429.8	
721.02	5487.2	
721.2	5322.7	
721.38	4465.3	
721.56	3903.4	
721.74	4926	
721.92	5092.6	
722.11	4825.7	
722.29	4655	
722.47	5982.1	
722.65	5360.9	
722.83	3947.1	
723.01	4593.6	
723.2	5504.3	
723.38	5728.2	
723.56	3450.8	
723.74	4364.9	
723.92	5058.5	
724.1	5939.1	
724.29	3887	
724.47	4818.9	
724.65	5158.2	
724.83	4986.8	
725.01	3816	
725.19	4481	
725.37	5152.7	
725.56	5113.8	
725.74	3681.6	
725.92	3760.8	
726.1	5040.1	
726.28	5319.3	
726.46	4180.6	
726.64	3981.3	
726.83	5300.8	
727.01	5470.8	
727.19	3661.8	
727.37	4287.1	
727.55	5429.2	
727.73	5730.2	
727.91	3665.9	
728.09	3493.8	
728.28	5781.4	
728.46	6034.7	
728.64	4360.8	
728.82	4320.5	
729	6516.6	
729.18	6040.8	
729.36	3692.5	
729.54	5479	
729.72	6865.5	
729.91	5361.6	
730.09	5236	
730.27	4214.7	
730.45	5330.2	
730.63	5855.8	
730.81	4689.2	
730.99	3949.2	
731.17	6268.8	
731.35	5154.7	
731.53	4359.4	
731.71	4029	
731.9	6026.5	
732.08	6142.5	
732.26	4270	
732.44	3926.6	
732.62	6202.6	
732.8	5758.2	
732.98	4581.3	
733.16	3785.3	
733.34	5840.1	
733.52	4859.1	
733.7	4127.3	
733.88	4374.5	
734.07	5638.7	
734.25	5526.1	
734.43	3743.7	
734.61	4942.4	
734.79	6567.2	
734.97	5350	
735.15	3885	
735.33	4149.2	
735.51	5629.9	
735.69	5426.4	
735.87	5020.3	
736.05	4342.4	
736.23	5537	
736.41	5311.1	
736.59	4151.9	
736.77	4234.5	
736.95	5921.4	
737.13	5370.5	
737.32	3952.6	
737.5	4059.8	
737.68	6220.4	
737.86	5329.5	
738.04	3715.7	
738.22	5242.1	
738.4	5213.4	
738.58	5488.6	
738.76	4251.6	
738.94	3456.3	
739.12	5284.4	
739.3	5176.6	
739.48	4707.6	
739.66	4470.7	
739.84	5468.1	
740.02	5438	
740.2	3525.9	
740.38	3790.1	
740.56	5769.1	
740.74	4829.8	
740.92	4252.9	
741.1	4231.1	
741.28	5303.6	
741.46	5164.3	
741.64	3945.8	
741.82	4367	
742	5345.9	
742.18	5314.5	
742.36	4090.5	
742.54	3785.3	
742.72	5792.3	
742.9	4801.1	
743.08	4378.6	
743.26	3379.1	
743.44	5881.1	
743.62	5855.8	
743.8	4466.6	
743.98	3783.3	
744.16	5588.9	
744.34	5229.8	
744.52	4358.1	
744.7	4356	
744.88	5601.2	
745.06	5264	
745.24	4412	
745.42	4503.5	
745.6	5822.4	
745.78	5627.8	
745.96	3524.6	
746.14	3816	
746.32	6382.2	
746.5	5665.4	
746.68	4174.4	
746.86	3801.7	
747.03	5959.6	
747.21	4759.5	
747.39	4222.9	
747.57	3789.4	
747.75	5489.2	
747.93	5721.3	
748.11	3777.1	
748.29	3661.8	
748.47	6710.5	
748.65	5184.1	
748.83	4295.3	
749.01	4173.8	
749.19	5605.3	
749.37	4853	
749.55	4050.9	
749.73	4087.7	
749.91	5375.2	
750.09	5139.7	
750.26	4085.7	
750.44	3642	
750.62	5373.2	
750.8	5298.1	
750.98	3558	
751.16	3757.3	
751.34	5414.1	
751.52	4898.7	
751.7	4419.5	
751.88	3539.6	
752.06	5822.4	
752.24	5530.2	
752.42	3500.7	
752.59	3761.4	
752.77	5317.9	
752.95	6290.7	
753.13	4355.3	
753.31	3895.9	
753.49	5050.3	
753.67	5430.5	
753.85	4134.8	
754.03	3779.9	
754.21	5659.9	
754.38	5939.1	
754.56	3891.8	
754.74	3167.5	
754.92	5041.4	
755.1	5616.2	
755.28	3203	
755.46	3237.8	
755.64	6276.3	
755.82	6402	
755.99	3544.4	
756.17	3704.1	
756.35	4387.4	
756.53	5598.5	
756.71	2763.4	
756.89	3474	
757.07	5315.2	
757.25	4630.5	
757.42	3885	
757.6	4599.1	
757.78	5347.9	
757.96	4504.8	
758.14	3637.2	
758.32	3224.9	
758.5	4175.1	
758.67	4844.8	
758.85	3557.3	
759.03	3606.5	
759.21	5098.8	
759.39	4550.6	
759.57	3177.8	
759.75	4018.8	
759.92	5541.8	
760.1	5018.9	
760.28	4353.3	
760.46	4512.4	
760.64	4751.3	
760.82	4574.5	
760.99	4081.6	
761.17	3610.6	
761.35	5352	
761.53	4579.9	
761.71	3635.1	
761.89	4171	
762.06	5230.5	
762.24	4872.8	
762.42	3734.1	
762.6	3523.2	
762.78	4857.8	
762.96	5420.3	
763.13	4007.9	
763.31	3751.2	
763.49	5464	
763.67	4788.8	
763.85	4354.7	
764.02	4794.3	
764.2	5757.5	
764.38	4971.8	
764.56	3665.9	
764.74	4262.5	
764.91	5786.9	
765.09	4873.5	
765.27	3416.7	
765.45	3222.1	
765.63	5904.3	
765.8	5621	
765.98	3077.4	
766.16	3315	
766.34	4628.4	
766.52	4384.7	
766.69	4039.3	
766.87	3140.9	
767.05	4933.6	
767.23	5504.3	
767.41	3463.8	
767.58	3619.4	
767.76	5380	
767.94	5401.2	
768.12	3506.8	
768.29	4025.6	
768.47	4951.3	
768.65	5561.6	
768.83	3211.2	
769	4114.4	
769.18	4693.3	
769.36	5216.9	
769.54	4075.5	
769.72	3283.6	
769.89	5483.8	
770.07	5471.5	
770.25	3585.3	
770.43	4517.1	
770.6	6109.1	
770.78	6321.4	
770.96	3693.2	
771.14	4147.8	
771.31	5375.9	
771.49	4795	
771.67	3035.1	
771.85	3233.1	
772.02	4278.2	
772.2	4833.2	
772.38	3818.8	
772.55	3400.3	
772.73	5164.3	
772.91	4980	
773.09	3686.3	
773.26	3781.9	
773.44	5134.3	
773.62	4828.4	
773.8	3298.6	
773.97	3127.9	
774.15	5172.5	
774.33	4831.2	
774.5	3250.8	
774.68	3562.8	
774.86	5294.7	
775.04	4922.6	
775.21	3350.5	
775.39	3325.9	
775.57	5054.4	
775.74	5360.2	
775.92	3148.4	
776.1	3123.2	
776.27	5044.8	
776.45	6034.7	
776.63	3370.3	
776.81	2945	
776.98	4794.3	
777.16	5625.8	
777.34	3412.6	
777.51	3684.3	
777.69	4857.8	
777.87	4601.1	
778.04	3553.9	
778.22	3903.4	
778.4	4643.4	
778.57	5129.5	
778.75	2930.6	
778.93	3153.2	
779.1	4487.8	
779.28	4334.9	
779.46	2984.6	
779.64	3304.1	
779.81	5315.2	
779.99	5974.6	
780.17	3923.9	
780.34	4031.1	
780.52	4850.3	
780.69	4984.1	
780.87	3579.2	
781.05	3252.2	
781.22	4963.6	
781.4	4957.4	
781.58	3319.1	
781.75	2754.5	
781.93	4934.2	
782.11	4444.8	
782.28	4078.2	
782.46	3320.4	
782.64	4319.8	
782.81	5046.9	
782.99	3471.3	
783.17	3392.8	
783.34	4999.8	
783.52	4456.4	
783.69	3516.4	
783.87	4148.5	
784.05	4474.1	
784.22	4428.4	
784.4	4177.2	
784.58	3624.2	
784.75	5248.9	
784.93	4524.6	
785.1	3349.1	
785.28	3814.7	
785.46	4994.3	
785.63	4437.9	
785.81	3346.4	
785.99	3236.5	
786.16	4642.1	
786.34	4946.5	
786.51	3308.2	
786.69	3614	
786.87	4263.2	
787.04	4661.2	
787.22	3200.3	
787.39	3870	
787.57	4486.4	
787.75	5333.6	
787.92	4087.1	
788.1	3996.3	
788.27	4499.4	
788.45	4265.9	
788.63	3767.6	
788.8	2783.9	
788.98	4926.7	
789.15	4216.1	
789.33	2831	
789.5	3324.5	
789.68	5244.2	
789.86	5326.1	
790.03	3695.9	
790.21	3247.4	
790.38	5273.5	
790.56	4582.7	
790.73	3202.3	
790.91	3218	
791.09	4515.8	
791.26	5107	
791.44	3420.8	
791.61	2924.5	
791.79	4515.1	
791.96	4501.4	
792.14	3015.3	
792.32	2757.2	
792.49	4500.1	
792.67	4601.8	
792.84	3098.6	
793.02	2966.8	
793.19	4878.9	
793.37	5440.8	
793.54	2687.6	
793.72	3015.3	
793.89	5455.8	
794.07	4462.5	
794.25	3461.1	
794.42	2764.8	
794.6	5335.6	
794.77	4984.1	
794.95	3665.9	
795.12	3149.1	
795.3	4486.4	
795.47	4978.6	
795.65	3601.7	
795.82	3420.1	
796	4349.2	
796.17	5831.9	
796.35	3355.3	
796.52	3941.7	
796.7	4940.4	
796.87	5016.2	
797.05	3261.7	
797.22	3940.3	
797.4	5044.1	
797.57	5795.1	
797.75	3416.7	
797.92	3213.3	
798.1	5309	
798.27	4433.2	
798.45	2831	
798.62	2990	
798.8	4823.6	
798.97	5209.3	
799.15	3586	
799.32	3451.5	
799.5	4179.2	
799.67	4795	
799.85	3744.4	
800.02	2730.6	
800.2	4511	
800.37	4683.7	
800.55	3823.6	
800.72	3236.5	
800.9	5131.5	
801.07	5444.9	
801.25	4229.1	
801.42	3519.8	
801.6	5119.2	
801.77	4857.1	
801.95	3318.4	
802.12	3180.5	
802.29	4920.6	
802.47	4804.5	
802.64	3495.9	
802.82	2725.2	
802.99	4504.8	
803.17	5186.1	
803.34	3443.3	
803.52	3108.8	
803.69	5732.9	
803.87	4344.4	
804.04	3427.6	
804.21	3459	
804.39	5416.9	
804.56	4661.9	
804.74	2906.8	
804.91	3546.4	
805.09	4491.9	
805.26	4605.9	
805.44	2936.1	
805.61	3260.4	
805.78	5087.2	
805.96	5033.9	
806.13	3540.9	
806.31	3730	
806.48	4117.1	
806.66	4550.6	
806.83	3484.3	
807	3458.3	
807.18	4481.6	
807.35	4760.8	
807.53	3391.4	
807.7	2826.2	
807.87	5416.2	
808.05	4556.7	
808.22	3780.6	
808.4	2833	
808.57	4504.2	
808.74	4216.1	
808.92	3151.1	
809.09	3974.4	
809.27	4461.8	
809.44	4877.6	
809.61	2828.9	
809.79	3165.5	
809.96	5548.6	
810.14	5031.2	
810.31	2758.6	
810.48	3316.3	
810.66	4627	
810.83	5158.2	
811.01	3181.9	
811.18	3503.4	
811.35	5104.9	
811.53	4012	
811.7	3792.2	
811.87	3548.4	
812.05	4573.1	
812.22	4490.5	
812.39	3078.8	
812.57	2977.1	
812.74	4530.1	
812.92	5840.1	
813.09	3354.6	
813.26	3581.2	
813.44	5574.6	
813.61	4416.8	
813.78	2766.1	
813.96	3665.2	
814.13	4551.3	
814.3	4339	
814.48	3962.1	
814.65	3305.4	
814.82	5403.9	
815	4313.7	
815.17	3413.3	
815.34	4090.5	
815.52	4467.3	
815.69	4476.9	
815.87	3403.7	
816.04	3340.9	
816.21	4517.8	
816.38	4079.6	
816.56	3269.9	
816.73	3106.1	
816.9	5603.9	
817.08	5088.5	
817.25	3105.4	
817.42	3820.8	
817.6	4199.7	
817.77	4541	
817.94	3497.9	
818.12	3061.7	
818.29	4382	
818.46	6375.3	
818.64	3224.9	
818.81	2990	
818.98	4355.3	
819.16	5922	
819.33	3644	
819.5	3404.4	
819.67	4762.2	
819.85	5335	
820.02	3313.6	
820.19	3550.5	
820.37	4731.5	
820.54	4436.6	
820.71	3472.7	
820.88	4188.1	
821.06	4756.1	
821.23	4356	
821.4	3479.5	
821.58	3417.4	
821.75	5036.6	
821.92	4642.7	
822.09	2858.3	
822.27	2920.4	
822.44	4532.2	
822.61	4403.8	
822.79	2846.7	
822.96	5186.1	
823.13	4866.7	
823.3	4311.7	
823.48	3260.4	
823.65	2916.3	
823.82	5066	
823.99	4167.6	
824.17	4099.4	
824.34	3005.1	
824.51	5774.6	
824.68	4602.5	
824.86	3165.5	
825.03	3466.5	
825.2	4540.3	
825.37	5342.5	
825.55	3035.1	
825.72	3396.2	
825.89	5819	
826.06	5442.8	
826.24	3286.3	
826.41	3320.4	
826.58	5416.9	
826.75	4779.3	
826.92	2693.1	
827.1	2983.9	
827.27	7170.6	
827.44	5815.5	
827.61	3164.1	
827.79	3794.9	
827.96	4405.2	
828.13	4536.9	
828.3	3330	
828.47	2803.7	
828.65	4784.7	
828.82	4728.1	
828.99	4161.5	
829.16	3677.5	
829.34	5076.2	
829.51	4860.5	
829.68	3364.8	
829.85	3511.6	
830.02	5392.3	
830.2	5106.3	
830.37	2708.1	
830.54	4014	
830.71	5695.4	
830.88	4552.6	
831.05	2706	
831.23	3067.9	
831.4	5486.5	
831.57	5999.2	
831.74	3188	
831.91	2790	
832.09	4829.1	
832.26	5087.8	
832.43	3269.9	
832.6	3605.1	
832.77	4782	
832.94	5357.5	
833.12	2658.9	
833.29	3236.5	
833.46	4920.6	
833.63	6185.5	
833.8	3528	
833.97	3250.1	
834.15	5147.9	
834.32	4942.4	
834.49	3419.4	
834.66	3429.7	
834.83	5156.8	
835	4309.6	
835.17	3192.8	
835.35	3129.3	
835.52	4976.6	
835.69	4907.6	
835.86	3345.7	
836.03	2736.8	
836.2	5069.4	
836.37	4743.8	
836.55	3254.9	
836.72	3061.7	
836.89	4773.1	
837.06	5176.6	
837.23	3278.1	
837.4	3567.6	
837.57	5735	
837.75	6205.3	
837.92	3012.6	
838.09	3160.7	
838.26	4713.1	
838.43	5262.6	
838.6	3403.7	
838.77	3052.8	
838.94	5967.8	
839.11	5778	
839.29	3295.9	
839.46	2615.3	
839.63	5081	
839.8	4806.6	
839.97	3177.1	
840.14	3173	
840.31	4899.4	
840.48	5149.3	
840.65	2693.8	
840.82	3132	
841	5027.1	
841.17	4952	
841.34	2924.5	
841.51	3030.3	
841.68	4977.9	
841.85	4786.1	
842.02	3035.8	
842.19	2592	
842.36	4868	
842.53	4908.3	
842.7	2902	
842.87	3509.5	
843.05	6167.8	
843.22	4754.7	
843.39	2874	
843.56	3039.9	
843.73	4653	
843.9	5147.9	
844.07	4628.4	
844.24	3844	
844.41	6945.3	
844.58	4481.6	
844.75	2859.6	
844.92	3025.5	
845.09	5000.5	
845.26	5029.8	
845.43	2902.7	
845.6	3093.1	
845.77	5038.7	
845.94	4812	
846.12	3160.7	
846.29	3370.3	
846.46	5241.4	
846.63	5033.2	
846.8	2943.6	
846.97	3399.6	
847.14	5458.5	
847.31	4997.7	
847.48	3233.7	
847.65	3578.5	
847.82	5227.8	
847.99	5215.5	
848.16	3833.8	
848.33	3494.5	
848.5	4625	
848.67	5390.3	
848.84	2912.9	
849.01	3009.1	
849.18	4575.2	
849.35	4367.6	
849.52	3612.6	
849.69	2843.3	
849.86	5224.4	
850.03	5335	
850.2	2987.3	
850.37	3514.3	
850.54	5298.1	
850.71	4760.2	
850.88	3445.4	
851.05	2861	
851.22	4943.8	
851.39	5465.3	
851.56	2748.4	
851.73	3336.1	
851.9	4469.4	
852.07	5257.8	
852.24	3241.9	
852.41	2889.7	
852.58	4937.7	
852.75	4541	
852.92	3249.4	
853.09	2860.3	
853.26	4707.6	
853.43	5341.1	
853.6	2921.8	
853.77	2529.9	
853.94	5480.4	
854.11	4431.8	
854.28	4188.1	
854.44	3150.5	
854.61	5737	
854.78	5269.4	
854.95	2874	
855.12	3627.6	
855.29	4172.4	
855.46	5556.1	
855.63	2875.3	
855.8	3910.9	
855.97	4618.9	
856.14	5318.6	
856.31	4080.9	
856.48	3134.1	
856.65	4709	
856.82	4442.7	
856.99	2810.5	
857.16	3140.9	
857.33	5956.9	
857.49	4786.8	
857.66	3125.9	
857.83	3319.8	
858	4807.9	
858.17	4921.3	
858.34	2803.7	
858.51	2954.5	
858.68	5553.4	
858.85	5556.1	
859.02	3397.6	
859.19	3540.3	
859.36	4503.5	
859.52	4511	
859.69	2954.5	
859.86	3427.6	
860.03	4568.3	
860.2	5511.1	
860.37	2702	
860.54	2933.4	
860.71	5188.9	
860.88	5558.2	
861.05	3196.9	
861.21	3592.1	
861.38	5486.5	
861.55	4315.1	
861.72	2676.7	
861.89	3257.6	
862.06	5264.6	
862.23	5631.2	
862.4	2851.5	
862.56	2979.1	
862.73	5065.3	
862.9	4818.2	
863.07	3354.6	
863.24	2697.2	
863.41	4412.7	
863.58	4504.2	
863.75	2951.8	
863.91	3347.1	
864.08	5496.7	
864.25	5124	
864.42	3571	
864.59	4001	
864.76	5721.3	
864.93	4506.9	
865.09	2833	
865.26	3089	
865.43	5391.6	
865.6	5681.7	
865.77	2582.5	
865.94	2875.3	
866.1	5408	
866.27	5154.1	
866.44	4289.8	
866.61	2824.1	
866.78	4784.1	
866.95	5162.2	
867.11	2800.9	
867.28	2655.5	
867.45	5339.7	
867.62	4519.2	
867.79	3377.1	
867.96	2912.9	
868.12	4457.1	
868.29	5218.9	
868.46	2917	
868.63	3820.8	
868.8	5332.2	
868.97	5145.2	
869.13	3016	
869.3	3029.6	
869.47	5088.5	
869.64	5273.5	
869.81	2921.8	
869.97	2906.8	
870.14	4969.1	
870.31	5475.6	
870.48	2879.4	
870.65	3635.8	
870.81	4727.4	
870.98	4759.5	
871.15	3271.3	
871.32	3017.3	
871.48	5073.5	
871.65	5551.4	
871.82	2880.8	
871.99	3196.9	
872.16	5926.1	
872.32	5395.7	
872.49	2961.4	
872.66	2961.4	
872.83	5267.4	
872.99	4643.4	
873.16	3315.7	
873.33	2920.4	
873.5	4887.8	
873.67	4930.8	
873.83	3069.9	
874	3895.9	
874.17	5016.8	
874.34	5781.4	
874.5	3717.1	
874.67	3576.4	
874.84	5544.5	
875.01	4364.9	
875.17	3977.8	
875.34	2904.7	
875.51	4914.4	
875.68	5831.9	
875.84	3487.7	
876.01	4184.7	
876.18	5126.7	
876.34	5121.3	
876.51	2861.7	
876.68	2858.3	
876.85	4739.7	
877.01	5364.3	
877.18	4028.4	
877.35	2919	
877.52	4969.1	
877.68	4456.4	
877.85	2864.4	
878.02	2868.5	
878.18	4807.3	
878.35	4618.9	
878.52	2362.7	
878.69	3220.1	
878.85	5262.6	
879.02	5151.3	
879.19	4048.2	
879.35	3096.5	
879.52	5193.6	
879.69	5276.3	
879.86	2562.7	
880.02	3225.6	
880.19	4816.8	
880.36	5767.8	
880.52	3280.8	
880.69	3450.8	
880.86	5243.5	
881.02	5287.2	
881.19	3224.2	
881.36	3162.7	
881.52	5100.8	
881.69	4600.4	
881.86	3159.3	
882.02	3003.7	
882.19	5395	
882.36	6193.7	
882.52	3018.7	
882.69	4013.3	
882.86	4977.9	
883.02	4972.5	
883.19	3545.7	
883.36	3279.5	
883.52	5268.7	
883.69	5898.2	
883.86	3000.3	
884.02	2637.1	
884.19	5182.7	
884.36	4876.9	
884.52	3216	
884.69	3116.3	
884.86	4657.1	
885.02	5601.2	
885.19	3188	
885.36	3340.9	
885.52	4797.7	
885.69	5066	
885.86	4137.6	
886.02	3653.6	
886.19	5216.9	
886.35	4780.6	
886.52	3157.3	
886.69	4009.2	
886.85	4510.3	
887.02	5504.9	
887.19	5504.9	
887.35	5504.9	
887.52	5504.9	
887.68	5504.9	
887.85	5504.9	
888.02	5504.9	
888.18	5504.9	
888.35	5504.9	
888.51	5504.9	
888.68	5504.9	
888.85	5504.9	
889.01	5504.9	
889.18	5504.9	
889.35	5504.9	
889.51	5504.9	
889.68	5504.9	
889.84	5504.9	
890.01	5504.9	
890.17	5504.9	
890.34	5504.9	
890.51	5504.9	
890.67	5504.9	
890.84	5504.9	
891	5504.9	
891.17	5504.9	
891.34	5504.9	
891.5	5504.9	
891.67	5504.9	
891.83	5504.9	
892	5504.9	
892.16	5504.9	
892.33	5504.9	
892.5	5504.9	
892.66	5504.9	
892.83	5504.9	
892.99	5504.9	
893.16	5504.9	
893.32	5504.9	
893.49	5504.9	
893.65	5504.9	
893.82	5504.9	
893.99	5504.9	
894.15	5504.9	
894.32	5504.9	
894.48	5504.9	
894.65	5504.9	
894.81	5504.9	
894.98	5504.9	
895.14	5504.9	
895.31	5504.9	
895.47	5504.9	
895.64	5504.9	
895.81	5504.9	
895.97	5504.9	
896.14	5504.9	
896.3	5504.9	
896.47	5504.9	
896.63	5504.9	
896.8	5504.9	
896.96	5504.9	
897.13	5504.9	
897.29	5504.9	
897.46	5504.9	
897.62	5504.9	
897.79	5504.9	
897.95	5504.9	
898.12	5504.9	
898.28	5504.9	
898.45	5504.9	
898.61	5504.9	
898.78	5504.9	
898.94	5504.9	
899.11	5504.9	
899.27	5504.9	
899.44	5504.9	
899.6	5504.9	
899.77	5504.9	
899.93	5504.9	
900.1	5504.9	
900.26	5504.9	
900.43	5504.9	
900.59	5504.9	
900.76	5504.9	
900.92	5504.9	
901.09	5504.9	
901.25	5504.9	
901.42	5504.9	
901.58	5504.9	
901.75	5504.9	
901.91	5504.9	
902.07	5504.9	
902.24	5504.9	
902.4	5504.9	
902.57	5504.9	
902.73	5504.9	
902.9	5504.9	
903.06	5504.9	
903.23	5504.9	
903.39	5504.9	
903.56	5504.9	
903.72	5504.9	
903.88	5504.9	
904.05	5504.9	
904.21	5504.9	
904.38	5504.9	
904.54	5504.9	
904.71	5504.9	
904.87	5504.9	
905.03	5504.9	
905.2	5504.9	
905.36	5504.9	
905.53	5504.9	
905.69	5504.9	
905.86	5504.9	
906.02	5504.9	
906.18	5504.9	
906.35	5504.9	
906.51	5504.9	
906.68	5504.9	
906.84	5504.9	
907.01	5504.9	
907.17	5504.9	
907.33	5504.9	
907.5	5504.9	
907.66	5504.9	
907.83	5504.9	
907.99	5504.9	
908.15	5504.9	
908.32	5504.9	
908.48	5504.9	
908.65	5504.9	
908.81	5504.9	
908.97	5504.9	
909.14	5504.9	
909.3	5504.9	
909.47	5504.9	
909.63	5504.9	
909.79	5504.9	
909.96	5504.9	
910.12	5504.9	
910.28	5504.9	
910.45	5504.9	
910.61	5504.9	
910.78	5504.9	
910.94	5504.9	
911.1	5504.9	
911.27	5504.9	
911.43	5504.9	
911.59	5504.9	
911.76	5504.9	
911.92	5504.9	
912.08	5504.9	
912.25	5504.9	
912.41	5504.9	
912.57	5504.9	
912.74	5504.9	
912.9	5504.9	
913.07	5504.9	
913.23	5504.9	
913.39	5504.9	
913.56	5504.9	
913.72	5504.9	
913.88	5504.9	
914.05	5504.9	
914.21	5504.9	
914.37	5504.9	
914.54	5504.9	
914.7	5504.9	
914.86	5504.9	
915.03	5504.9	
915.19	5504.9	
