Wavelength	Intensities	
nm	a.u.	
179.22	1726.3	
179.44	1719.3	
179.65	1733.3	
179.86	1705.3	
180.08	1731.2	
180.29	4192.2	
180.51	3066.5	
180.72	5101.5	
180.94	5777.3	
181.15	2785.9	
181.37	2794.8	
181.58	4934.2	
181.79	5147.2	
182.01	2879.4	
182.22	3043.3	
182.44	5145.9	
182.65	4446.1	
182.87	3772.4	
183.08	3375.7	
183.29	5430.5	
183.51	4506.2	
183.72	3119.7	
183.94	4393.6	
184.15	4870.1	
184.37	4874.2	
184.58	2732.7	
184.79	3611.3	
185.01	4603.2	
185.22	5172.5	
185.44	3851.5	
185.65	3281.5	
185.86	4815.5	
186.08	4493.9	
186.29	2741.5	
186.51	2876.7	
186.72	4546.5	
186.94	5244.2	
187.15	3337.5	
187.36	3377.1	
187.58	6649.8	
187.79	4915.8	
188.01	3502	
188.22	5321.3	
188.43	5789.6	
188.65	5152	
188.86	2904.7	
189.08	3432.4	
189.29	4685.1	
189.5	4689.2	
189.72	3164.1	
189.93	3207.1	
190.15	5261.2	
190.36	6133.7	
190.57	3456.3	
190.79	3282.9	
191	5330.2	
191.22	5292	
191.43	3460.4	
191.64	2938.2	
191.86	5552	
192.07	5259.9	
192.29	3049.4	
192.5	3112.2	
192.71	5319.9	
192.93	4702.1	
193.14	3144.3	
193.35	3206.4	
193.57	4662.5	
193.78	5225.1	
194	2603	
194.21	3108.1	
194.42	4524.6	
194.64	4904.2	
194.85	3451.5	
195.07	3960.8	
195.28	4896.7	
195.49	4266.6	
195.71	4123.2	
195.92	2985.3	
196.13	5019.6	
196.35	5052.3	
196.56	4306.2	
196.78	3407.8	
196.99	6111.1	
197.2	5737.7	
197.42	3777.8	
197.63	3414.6	
197.84	4396.3	
198.06	5058.5	
198.27	3132.7	
198.48	4073.4	
198.7	4680.3	
198.91	4824.3	
199.13	3435.1	
199.34	3414	
199.55	5248.3	
199.77	4242.7	
199.98	3051.5	
200.19	3440.6	
200.41	4769	
200.62	4566.3	
200.83	3517.7	
201.05	3812.6	
201.26	4807.9	
201.47	4614.1	
201.69	3045.3	
201.9	2998.2	
202.11	4830.5	
202.33	5651	
202.54	3243.3	
202.76	3603.7	
202.97	4898.7	
203.18	4966.3	
203.4	3591.5	
203.61	3545.7	
203.82	4902.8	
204.04	4590.2	
204.25	3420.8	
204.46	3384.6	
204.68	4839.4	
204.89	5048.9	
205.1	3364.1	
205.32	2906.1	
205.53	5177.3	
205.74	5287.2	
205.96	2607.1	
206.17	3453.6	
206.38	5140.4	
206.6	5304.2	
206.81	3949.8	
207.02	3183.9	
207.24	5025.7	
207.45	5401.9	
207.66	3250.1	
207.88	2835.1	
208.09	5003.9	
208.3	4825	
208.52	3046.7	
208.73	3320.4	
208.94	4823.6	
209.15	5356.1	
209.37	3236.5	
209.58	3659	
209.79	5260.5	
210.01	4698	
210.22	2671.9	
210.43	2795.5	
210.65	4888.5	
210.86	5199.8	
211.07	3250.1	
211.29	3034.4	
211.5	5089.9	
211.71	4807.9	
211.93	3046.7	
212.14	3112.2	
212.35	4816.8	
212.56	4894.6	
212.78	3448.1	
212.99	2863.1	
213.2	5580	
213.42	4683.7	
213.63	3113.6	
213.84	3261.7	
214.06	4394.9	
214.27	4495.3	
214.48	3260.4	
214.69	3491.1	
214.91	5382.7	
215.12	5456.5	
215.33	3533.4	
215.55	3807.2	
215.76	5795.1	
215.97	5153.4	
216.18	3331.4	
216.4	3302.7	
216.61	4619.5	
216.82	5208	
217.04	3077.4	
217.25	3172.3	
217.46	5360.2	
217.67	5190.2	
217.89	2754.5	
218.1	2857.6	
218.31	4874.2	
218.53	5071.5	
218.74	3199.6	
218.95	3078.1	
219.16	4773.1	
219.38	5577.3	
219.59	3081.5	
219.8	3605.8	
220.01	6045.6	
220.23	4918.5	
220.44	3941.7	
220.65	2987.3	
220.87	4880.3	
221.08	5351.3	
221.29	2860.3	
221.5	3672	
221.72	6339.8	
221.93	4605.2	
222.14	3474.7	
222.35	4001.7	
222.57	4844.1	
222.78	5173.2	
222.99	3343.7	
223.2	3516.4	
223.42	5123.3	
223.63	5152	
223.84	2600.2	
224.05	2585.2	
224.27	5954.1	
224.48	5515.9	
224.69	4012.7	
224.9	3446	
225.12	5049.6	
225.33	4838.7	
225.54	2803	
225.75	3126.6	
225.97	4506.9	
226.18	4805.9	
226.39	3310.9	
226.6	3120.4	
226.82	4632.5	
227.03	4608.6	
227.24	3406.5	
227.45	2912.2	
227.67	5196.4	
227.88	5545.2	
228.09	3806.5	
228.3	3790.8	
228.52	5141.8	
228.73	4798.4	
228.94	3207.1	
229.15	2914.9	
229.36	4827.7	
229.58	4791.6	
229.79	3282.9	
230	3681.6	
230.21	5705	
230.43	4859.1	
230.64	3422.8	
230.85	3540.3	
231.06	5253.7	
231.28	5228.5	
231.49	2904	
231.7	3355.9	
231.91	5126.1	
232.12	4855.1	
232.34	2973	
232.55	3255.6	
232.76	5335	
232.97	4971.1	
233.18	3048.7	
233.4	3381.9	
233.61	5040.7	
233.82	4628.4	
234.03	3194.8	
234.25	3221.5	
234.46	6467.5	
234.67	4875.5	
234.88	3476.8	
235.09	3098.6	
235.31	5049.6	
235.52	4755.4	
235.73	3432.4	
235.94	2905.4	
236.15	4650.3	
236.37	5726.8	
236.58	3071.3	
236.79	3280.8	
237	5056.4	
237.21	4441.4	
237.43	3553.9	
237.64	2872.6	
237.85	8107.2	
238.06	4478.2	
238.27	3525.2	
238.48	2918.4	
238.7	5160.9	
238.91	4749.9	
239.12	3295.2	
239.33	3366.9	
239.54	4703.5	
239.76	4791.6	
239.97	3239.2	
240.18	3295.2	
240.39	5839.4	
240.6	5046.2	
240.82	3389.4	
241.03	2866.5	
241.24	4844.8	
241.45	5447.6	
241.66	3039.2	
241.87	3538.9	
242.09	5456.5	
242.3	5657.2	
242.51	3573.7	
242.72	3273.3	
242.93	5220.3	
243.14	4831.2	
243.36	3758	
243.57	4045.4	
243.78	5591	
243.99	5119.9	
244.2	3297.9	
244.41	3007.1	
244.63	4488.5	
244.84	5088.5	
245.05	3523.2	
245.26	3291.1	
245.47	5139	
245.68	5213.4	
245.9	4289.1	
246.11	3429	
246.32	4698	
246.53	5052.3	
246.74	5211.4	
246.95	2848.7	
247.16	4523.3	
247.38	4881	
247.59	2821.4	
247.8	3321.1	
248.01	4612	
248.22	4834.6	
248.43	3020.1	
248.64	3264.5	
248.86	4393.6	
249.07	4653.7	
249.28	2981.2	
249.49	3405.1	
249.7	5244.2	
249.91	5358.2	
250.12	2824.8	
250.34	2871.9	
250.55	4982.7	
250.76	4869.4	
250.97	3396.2	
251.18	3431	
251.39	5371.8	
251.6	4975.9	
251.81	3463.1	
252.03	3418.7	
252.24	4636.6	
252.45	5260.5	
252.66	2914.9	
252.87	3633.8	
253.08	4862.6	
253.29	6128.9	
253.5	2936.1	
253.72	3895.9	
253.93	4769	
254.14	5657.9	
254.35	3194.8	
254.56	3269.2	
254.77	5064.6	
254.98	4572.4	
255.19	3128.6	
255.41	3947.8	
255.62	4997	
255.83	5358.9	
256.04	3530	
256.25	3422.8	
256.46	5775.3	
256.67	4582	
256.88	3409.2	
257.09	3743.7	
257.31	4531.5	
257.52	4611.3	
257.73	4214.7	
257.94	3188	
258.15	4795	
258.36	4842.8	
258.57	3883.6	
258.78	2566.1	
258.99	5259.2	
259.2	4743.8	
259.41	3115	
259.63	3262.4	
259.84	5588.2	
260.05	5777.3	
260.26	4094.6	
260.47	3124.5	
260.68	5337	
260.89	4773.8	
261.1	3770.3	
261.31	3012.6	
261.52	5344.5	
261.73	5633.3	
261.95	3969.6	
262.16	3574.4	
262.37	5387.5	
262.58	5455.8	
262.79	4028.4	
263	3201	
263.21	4927.4	
263.42	4733.5	
263.63	3494.5	
263.84	3203.7	
264.05	5251.7	
264.26	5551.4	
264.47	3873.4	
264.69	3538.2	
264.9	5492	
265.11	5016.2	
265.32	3079.5	
265.53	3095.2	
265.74	4974.5	
265.95	4345.1	
266.16	3376.4	
266.37	3665.9	
266.58	4999.8	
266.79	4661.2	
267	3121.8	
267.21	2923.8	
267.42	4496	
267.63	4868.7	
267.84	3239.2	
268.06	2833	
268.27	5223.7	
268.48	5404.6	
268.69	3211.9	
268.9	3728	
269.11	5423.7	
269.32	4423.6	
269.53	3274	
269.74	3095.2	
269.95	5042.8	
270.16	4373.1	
270.37	3344.3	
270.58	3779.9	
270.79	4756.7	
271	5277.6	
271.21	3482.2	
271.42	3362.1	
271.63	5049.6	
271.84	4520.5	
272.05	2704.7	
272.26	3002.3	
272.47	4891.2	
272.68	5032.5	
272.89	3203.7	
273.11	3657.7	
273.32	4705.5	
273.53	5563	
273.74	3528	
273.95	3459	
274.16	5268.1	
274.37	4857.8	
274.58	3655.6	
274.79	2990	
275	4972.5	
275.21	5377.3	
275.42	4256.4	
275.63	3695.9	
275.84	5080.3	
276.05	6182.1	
276.26	3486.3	
276.47	3220.8	
276.68	4782.7	
276.89	5694.7	
277.1	3685	
277.31	2912.2	
277.52	5000.5	
277.73	5259.2	
277.94	2891	
278.15	3174.4	
278.36	5088.5	
278.57	4622.3	
278.78	3160	
278.99	3554.6	
279.2	4634.6	
279.41	4567.7	
279.62	4080.9	
279.83	2968.2	
280.04	5782.8	
280.25	4465.3	
280.46	4076.1	
280.67	3306.8	
280.88	4614.1	
281.09	5291.3	
281.3	3473.4	
281.51	4276.8	
281.72	4660.5	
281.93	5233.9	
282.14	3098.6	
282.35	3373	
282.56	5292	
282.77	5193	
282.98	3257.6	
283.19	3803.1	
283.4	6279.1	
283.61	4791.6	
283.82	3007.1	
284.03	4018.1	
284.24	5003.2	
284.45	5370.5	
284.66	4061.1	
284.87	3871.3	
285.08	5314.5	
285.29	5378.6	
285.5	2836.4	
285.71	3263.8	
285.92	5371.1	
286.12	5816.9	
286.33	4027	
286.54	3230.3	
286.75	5245.5	
286.96	4770.4	
287.17	3035.1	
287.38	3872	
287.59	4558.8	
287.8	4564.9	
288.01	3278.1	
288.22	3635.8	
288.43	5183.4	
288.64	4440.7	
288.85	3816.7	
289.06	3630.4	
289.27	5253.7	
289.48	5608.7	
289.69	4069.3	
289.9	3697.9	
290.11	5393.7	
290.32	4714.4	
290.53	3830.4	
290.74	3582.6	
290.94	5231.2	
291.15	5197.1	
291.36	3148.4	
291.57	3624.2	
291.78	4680.3	
291.99	4392.9	
292.2	3039.2	
292.41	3564.8	
292.62	5283.1	
292.83	5110.4	
293.04	4309.6	
293.25	3089.7	
293.46	4739	
293.67	5326.8	
293.88	3076.7	
294.09	3035.8	
294.29	4519.9	
294.5	4981.3	
294.71	3291.8	
294.92	3152.5	
295.13	4724.7	
295.34	5783.5	
295.55	2856.2	
295.76	2800.3	
295.97	5257.1	
296.18	5776	
296.39	2977.1	
296.6	3140.9	
296.81	4987.5	
297.01	5189.6	
297.22	3269.2	
297.43	3125.9	
297.64	4674.1	
297.85	4583.4	
298.06	2596.8	
298.27	2826.2	
298.48	4865.3	
298.69	4614.1	
298.9	3353.2	
299.11	3098.6	
299.31	4530.1	
299.52	4524.6	
299.73	3597.6	
299.94	3500.7	
300.15	4906.3	
300.36	4594.3	
300.57	3507.5	
300.78	3489.7	
300.99	4770.4	
301.2	5006.6	
301.4	3141.6	
301.61	3345.7	
301.82	5134.3	
302.03	5244.2	
302.24	3700.7	
302.45	2991.4	
302.66	5143.8	
302.87	5367	
303.08	3125.2	
303.29	4169	
303.49	4719.2	
303.7	4868.7	
303.91	2863.7	
304.12	3964.2	
304.33	4422.9	
304.54	5019.6	
304.75	3138.9	
304.96	3033	
305.16	5122.7	
305.37	5695.4	
305.58	2751.8	
305.79	2817.3	
306	5117.9	
306.21	4361.5	
306.42	3059	
306.63	4616.1	
306.83	4724	
307.04	5214.1	
307.25	3463.8	
307.46	3452.9	
307.67	4270.7	
307.88	5106.3	
308.09	3134.1	
308.29	3136.1	
308.5	4949.9	
308.71	5270.1	
308.92	3304.1	
309.13	2985.3	
309.34	4762.2	
309.55	4790.2	
309.75	3861.8	
309.96	3523.2	
310.17	5186.8	
310.38	4559.5	
310.59	3664.5	
310.8	2911.5	
311.01	4724.7	
311.21	4798.4	
311.42	3034.4	
311.63	3076.7	
311.84	4678.2	
312.05	4905.6	
312.26	3431.7	
312.46	3771.7	
312.67	4758.8	
312.88	4502.8	
313.09	3032.4	
313.3	2985.3	
313.51	5545.9	
313.71	5711.1	
313.92	2995.5	
314.13	3162.1	
314.34	5031.2	
314.55	4861.2	
314.76	3750.5	
314.96	3333.4	
315.17	5012.1	
315.38	5158.2	
315.59	3051.5	
315.8	2949.1	
316.01	5471.5	
316.21	5553.4	
316.42	2954.5	
316.63	3344.3	
316.84	4749.2	
317.05	5375.2	
317.26	3545	
317.46	3190.7	
317.67	4814.1	
317.88	5171.8	
318.09	3777.1	
318.3	2836.4	
318.5	4683.7	
318.71	5096	
318.92	4678.2	
319.13	3490.4	
319.34	5248.9	
319.54	5317.2	
319.75	2843.9	
319.96	2727.2	
320.17	5185.5	
320.38	5327.4	
320.58	2809.8	
320.79	3295.9	
321	5357.5	
321.21	5375.2	
321.42	3373	
321.62	2814.6	
321.83	4596.3	
322.04	4884.4	
322.25	3261	
322.46	3052.8	
322.66	4913.1	
322.87	5115.8	
323.08	3696.6	
323.29	2945.7	
323.5	5700.2	
323.7	4565.6	
323.91	4017.4	
324.12	3664.5	
324.33	4915.8	
324.53	5126.7	
324.74	3549.8	
324.95	3704.1	
325.16	4367	
325.37	4773.1	
325.57	3037.1	
325.78	3092.4	
325.99	4956.8	
326.2	4491.9	
326.4	4177.2	
326.61	2840.5	
326.82	4827.7	
327.03	4889.9	
327.24	4199	
327.44	3978.5	
327.65	5095.3	
327.86	4235.9	
328.07	3566.9	
328.27	2936.8	
328.48	5448.3	
328.69	4471.4	
328.9	4317.8	
329.1	3239.2	
329.31	4833.9	
329.52	5511.8	
329.73	3037.8	
329.93	3330	
330.14	4932.9	
330.35	5036	
330.56	4746.5	
330.76	3658.4	
330.97	4706.2	
331.18	4986.8	
331.39	3347.1	
331.59	2808.4	
331.8	5327.4	
332.01	5394.3	
332.22	3099.3	
332.42	3464.5	
332.63	5004.6	
332.84	4618.2	
333.05	3380.5	
333.25	3066.5	
333.46	4581.3	
333.67	4854.4	
333.88	3204.4	
334.08	3461.1	
334.29	6285.9	
334.5	5412.8	
334.7	2940.2	
334.91	4162.2	
335.12	4513	
335.33	5147.2	
335.53	3312.2	
335.74	4783.4	
335.95	4737	
336.16	4539	
336.36	3309.5	
336.57	3773	
336.78	4542.4	
336.98	5349.3	
337.19	4039.3	
337.4	3280.8	
337.61	5805.3	
337.81	4508.9	
338.02	3084.9	
338.23	3921.9	
338.43	5469.4	
338.64	4668.7	
338.85	3135.4	
339.05	3979.9	
339.26	5517.9	
339.47	4410	
339.68	3047.4	
339.88	4296.6	
340.09	5141.8	
340.3	5220.3	
340.5	3551.9	
340.71	2717	
340.92	4503.5	
341.13	5397.8	
341.33	2967.5	
341.54	3573.7	
341.75	5085.8	
341.95	4710.3	
342.16	3383.2	
342.37	3642	
342.57	4501.4	
342.78	4801.8	
342.99	3704.8	
343.19	2803.7	
343.4	5229.1	
343.61	5069.4	
343.81	3246.7	
344.02	2964.8	
344.23	5219.6	
344.43	5541.1	
344.64	3756.7	
344.85	3655.6	
345.06	5120.6	
345.26	5373.9	
345.47	3550.5	
345.68	4049.5	
345.88	4405.2	
346.09	5235.3	
346.3	3548.4	
346.5	2729.9	
346.71	4878.3	
346.92	4682.3	
347.12	2880.1	
347.33	3431	
347.54	5268.7	
347.74	5627.1	
347.95	3493.8	
348.16	2684.2	
348.36	4729.4	
348.57	4592.9	
348.78	3527.3	
348.98	3657	
349.19	4792.9	
349.39	4439.3	
349.6	2921.8	
349.81	3119.7	
350.01	5146.5	
350.22	4622.3	
350.43	3408.5	
350.63	4048.2	
350.84	4922.6	
351.05	4706.9	
351.25	3106.8	
351.46	2840.5	
351.67	5269.4	
351.87	4618.9	
352.08	3301.3	
352.29	3741	
352.49	5276.9	
352.7	5310.4	
352.9	3034.4	
353.11	3646.7	
353.32	5798.5	
353.52	4775.2	
353.73	3021.4	
353.94	3748.5	
354.14	5167	
354.35	4960.2	
354.55	3152.5	
354.76	3431	
354.97	5127.4	
355.17	4997	
355.38	3021.4	
355.59	3989.4	
355.79	4633.9	
356	5039.4	
356.2	3424.9	
356.41	3086.3	
356.62	4527.4	
356.82	4945.2	
357.03	3763.5	
357.24	3314.3	
357.44	4686.4	
357.65	4842.8	
357.85	4270.7	
358.06	3501.3	
358.27	4525.3	
358.47	4731.5	
358.68	3031	
358.88	3688.4	
359.09	5212.8	
359.3	5469.4	
359.5	4250.2	
359.71	3851.5	
359.91	5865.4	
360.12	5321.3	
360.33	3777.8	
360.53	4141.7	
360.74	4792.2	
360.94	4896.7	
361.15	3959.4	
361.36	3343	
361.56	5529.5	
361.77	5050.3	
361.97	4357.4	
362.18	3547.8	
362.38	5551.4	
362.59	4813.4	
362.8	3263.8	
363	3213.9	
363.21	4664.6	
363.41	5252.4	
363.62	3824.9	
363.83	4605.2	
364.03	5356.8	
364.24	6012.8	
364.44	4758.8	
364.65	4759.5	
364.85	5172.5	
365.06	4868	
365.27	3570.3	
365.47	3611.3	
365.68	6001.9	
365.88	5174.5	
366.09	4007.9	
366.29	3685.7	
366.5	5452.4	
366.71	5661.3	
366.91	4813.4	
367.12	4129.4	
367.32	6307.1	
367.53	5683.8	
367.73	4132.1	
367.94	4917.9	
368.14	5695.4	
368.35	6323.4	
368.56	4121.2	
368.76	3909.6	
368.97	5793	
369.17	7065.5	
369.38	3700.7	
369.58	4025.6	
369.79	4985.4	
369.99	6117.3	
370.2	4743.8	
370.4	4035.9	
370.61	5518.6	
370.82	6530.3	
371.02	3980.6	
371.23	3420.1	
371.43	4954	
371.64	6008.1	
371.84	4004.5	
372.05	5025.7	
372.25	7116	
372.46	5855.8	
372.66	4095.9	
372.87	4094.6	
373.07	5999.2	
373.28	7395.2	
373.48	4980.7	
373.69	4708.3	
373.9	5636	
374.1	5662	
374.31	5030.5	
374.51	4627.7	
374.72	6401.3	
374.92	5461.2	
375.13	5193.6	
375.33	4528.7	
375.54	6093.4	
375.74	5759.6	
375.95	4748.6	
376.15	5614.2	
376.36	6287.9	
376.56	6076.3	
376.77	4851.6	
376.97	5193	
377.18	7211.6	
377.38	6453.1	
377.59	5440.8	
377.79	4577.9	
378	6331	
378.2	6651.8	
378.41	4746.5	
378.61	4564.2	
378.82	6763.1	
379.02	6170.5	
379.23	4982.7	
379.43	5824.4	
379.64	6927.6	
379.84	6671.6	
380.05	4749.9	
380.25	4669.4	
380.46	6725.5	
380.66	6251.8	
380.87	5775.3	
381.07	6034.7	
381.28	7099.6	
381.48	6605.4	
381.69	4642.7	
381.89	4788.2	
382.1	5685.8	
382.3	6713.2	
382.51	5582.8	
382.71	6343.2	
382.91	6530.3	
383.12	7005.4	
383.32	5033.2	
383.53	5130.8	
383.73	6422.4	
383.94	6303.6	
384.14	5168.4	
384.35	4334.9	
384.55	6194.4	
384.76	6561.7	
384.96	5028.4	
385.17	5133.6	
385.37	6511.9	
385.58	5883.8	
385.78	5161.6	
385.98	4118.5	
386.19	6038.8	
386.39	6375.3	
386.6	4701.5	
386.8	4837.3	
387.01	6533	
387.21	6533	
387.42	5141.8	
387.62	5680.4	
387.83	6022.4	
388.03	6403.3	
388.23	5145.2	
388.44	5674.2	
388.64	5745.9	
388.85	5953.4	
389.05	5317.9	
389.26	5839.4	
389.46	7622.5	
389.67	7153.6	
389.87	5578	
390.07	5482.4	
390.28	6507.8	
390.48	6067.4	
390.69	4939	
390.89	5145.9	
391.1	6246.3	
391.3	7020.4	
391.5	6150.1	
391.71	6492.7	
391.91	6923.5	
392.12	7622.5	
392.32	6176.7	
392.53	5586.2	
392.73	6505	
392.93	6535.1	
393.14	5319.9	
393.34	5916.6	
393.55	6824.5	
393.75	6461.3	
393.95	5214.1	
394.16	5132.2	
394.36	6341.2	
394.57	6739.9	
394.77	4684.4	
394.98	5031.2	
395.18	6262	
395.38	6265.4	
395.59	5986.2	
395.79	5085.8	
396	6576	
396.2	6984.3	
396.4	5896.8	
396.61	5920.7	
396.81	7208.8	
397.02	6675.7	
397.22	6273.6	
397.42	6271.6	
397.63	7328.3	
397.83	6843.6	
398.04	5406	
398.24	5978.7	
398.44	7083.9	
398.65	6543.9	
398.85	5396.4	
399.05	5419.6	
399.26	6819.7	
399.46	8114.7	
399.67	5857.2	
399.87	5616.2	
400.07	7264.8	
400.28	7502.4	
400.48	5791.7	
400.69	6785.6	
400.89	7778.2	
401.09	8152.3	
401.3	5858.6	
401.5	6701.6	
401.7	8503.8	
401.91	8623.3	
402.11	6268.1	
402.32	6405.4	
402.52	8072.4	
402.72	7813.7	
402.93	6520	
403.13	5524.7	
403.33	8432.2	
403.54	7246.4	
403.74	6023.1	
403.94	6582.9	
404.15	7169.9	
404.35	8032.1	
404.56	5679	
404.76	7026.6	
404.96	7495.6	
405.17	7268.2	
405.37	6569.2	
405.57	6195.8	
405.78	7775.5	
405.98	7279.8	
406.18	6099.5	
406.39	6724.8	
406.59	7776.8	
406.79	7421.8	
407	5745.9	
407.2	5825.8	
407.4	7855.3	
407.61	7886	
407.81	5859.9	
408.01	7598.6	
408.22	6949.4	
408.42	8726.4	
408.62	7105.8	
408.83	6848.4	
409.03	8043.1	
409.23	8053.3	
409.44	7166.5	
409.64	7395.9	
409.84	9218.6	
410.05	9205.6	
410.25	7686.7	
410.45	7460.8	
410.66	9241.1	
410.86	11101	
411.06	8219.9	
411.27	8021.2	
411.47	11182	
411.67	9482.8	
411.88	8320.2	
412.08	8673.1	
412.28	10049	
412.49	10580	
412.69	8553.7	
412.89	8574.2	
413.09	10421	
413.3	10484	
413.5	8794	
413.7	8462.9	
413.91	9876	
414.11	10580	
414.31	8660.9	
414.52	9181	
414.72	10458	
414.92	10598	
415.12	8694.3	
415.33	9170.1	
415.53	10849	
415.73	10945	
415.94	9428.2	
416.14	9046.6	
416.34	10209	
416.55	9770.2	
416.75	10021	
416.95	9607	
417.15	11105	
417.36	11362	
417.56	10434	
417.76	9604.3	
417.97	11361	
418.17	11292	
418.37	9341.5	
418.57	9432.3	
418.78	11102	
418.98	10780	
419.18	10160	
419.38	9871.2	
419.59	10792	
419.79	10256	
419.99	9200.2	
420.2	9352.4	
420.4	11128	
420.6	11059	
420.8	9155.1	
421.01	9002.2	
421.21	11039	
421.41	11030	
421.61	9269.1	
421.82	9195.4	
422.02	10654	
422.22	11223	
422.42	9881.4	
422.63	9200.8	
422.83	10692	
423.03	11674	
423.23	9405.6	
423.44	8645.2	
423.64	10617	
423.84	10159	
424.04	8934.6	
424.25	8694.3	
424.45	11138	
424.65	10976	
424.85	8433.5	
425.06	8899.8	
425.26	11211	
425.46	10332	
425.66	9261.6	
425.87	8991.3	
426.07	10868	
426.27	10745	
426.47	9096.4	
426.67	8464.9	
426.88	11043	
427.08	10670	
427.28	9436.4	
427.48	8486.8	
427.69	9656.9	
427.89	10275	
428.09	9200.8	
428.29	8469	
428.5	10720	
428.7	10383	
428.9	8438.3	
429.1	8813.8	
429.3	10414	
429.51	10729	
429.71	8538.7	
429.91	9312.8	
430.11	10722	
430.31	11034	
430.52	9030.9	
430.72	9325.8	
430.92	11235	
431.12	10762	
431.32	8941.4	
431.53	9006.3	
431.73	10028	
431.93	11379	
432.13	8778.3	
432.33	8662.2	
432.54	10349	
432.74	10735	
432.94	8804.9	
433.14	9386.5	
433.34	10938	
433.55	10763	
433.75	9535.3	
433.95	11075	
434.15	10867	
434.35	10649	
434.56	8954.4	
434.76	8844.5	
434.96	10886	
435.16	11291	
435.36	9000.8	
435.56	10087	
435.77	10935	
435.97	11007	
436.17	10785	
436.37	10185	
436.57	10836	
436.78	10992	
436.98	11310	
437.18	10436	
437.38	11669	
437.58	10987	
437.78	10652	
437.99	9476.6	
438.19	11303	
438.39	12077	
438.59	9494.4	
438.79	8978.3	
438.99	11703	
439.2	10791	
439.4	8834.9	
439.6	8809	
439.8	10956	
440	11899	
440.2	9836.4	
440.4	9948.3	
440.61	11651	
440.81	12020	
441.01	9606.3	
441.21	10550	
441.41	12441	
441.61	11635	
441.81	10907	
442.02	11613	
442.22	12684	
442.42	12094	
442.62	9929.9	
442.82	9853.5	
443.02	12439	
443.22	11773	
443.43	10340	
443.63	9912.9	
443.83	11394	
444.03	11459	
444.23	11127	
444.43	10658	
444.63	11952	
444.83	12831	
445.04	10411	
445.24	11303	
445.44	12240	
445.64	12381	
445.84	10556	
446.04	10791	
446.24	11559	
446.44	12405	
446.65	9858.2	
446.85	10321	
447.05	11219	
447.25	12084	
447.45	10195	
447.65	9696.4	
447.85	11716	
448.05	11054	
448.25	10525	
448.46	10247	
448.66	11632	
448.86	11259	
449.06	9624.8	
449.26	10400	
449.46	12020	
449.66	11114	
449.86	10362	
450.06	10166	
450.26	11415	
450.47	11909	
450.67	10290	
450.87	10767	
451.07	11986	
451.27	11855	
451.47	9854.8	
451.67	10529	
451.87	11830	
452.07	12370	
452.27	10221	
452.47	10049	
452.67	11820	
452.88	12271	
453.08	9443.2	
453.28	11219	
453.48	12986	
453.68	11574	
453.88	10099	
454.08	10249	
454.28	12246	
454.48	11963	
454.68	10716	
454.88	11057	
455.08	12233	
455.28	12319	
455.48	9873.9	
455.68	10729	
455.89	12797	
456.09	12692	
456.29	10473	
456.49	10746	
456.69	13072	
456.89	12202	
457.09	11069	
457.29	11626	
457.49	12794	
457.69	12898	
457.89	11458	
458.09	10662	
458.29	12756	
458.49	13472	
458.69	11662	
458.89	11349	
459.09	13818	
459.29	13808	
459.49	11458	
459.69	12091	
459.9	13317	
460.1	13257	
460.3	11103	
460.5	11123	
460.7	13454	
460.9	13041	
461.1	10881	
461.3	12123	
461.5	14071	
461.7	13619	
461.9	11787	
462.1	11857	
462.3	13465	
462.5	13998	
462.7	11738	
462.9	11945	
463.1	14897	
463.3	14874	
463.5	12200	
463.7	13313	
463.9	14214	
464.1	14458	
464.3	12759	
464.5	12658	
464.7	14683	
464.9	14769	
465.1	13980	
465.3	13326	
465.5	14891	
465.7	15217	
465.9	13586	
466.1	13056	
466.3	15236	
466.5	14801	
466.7	14437	
466.9	13319	
467.1	15115	
467.3	15823	
467.5	14327	
467.7	13526	
467.9	15956	
468.1	16670	
468.3	13895	
468.5	14428	
468.7	15277	
468.9	15190	
469.1	13855	
469.3	14539	
469.5	16995	
469.7	15146	
469.9	14083	
470.1	13945	
470.3	15399	
470.5	15524	
470.7	14706	
470.9	13723	
471.1	15350	
471.3	15270	
471.5	13575	
471.69	15044	
471.89	15100	
472.09	14552	
472.29	14308	
472.49	13986	
472.69	14932	
472.89	15284	
473.09	13465	
473.29	13207	
473.49	14790	
473.69	14728	
473.89	13944	
474.09	13392	
474.29	15702	
474.49	15416	
474.69	14007	
474.89	13331	
475.09	14812	
475.29	14592	
475.49	12848	
475.69	13259	
475.88	15698	
476.08	15042	
476.28	12919	
476.48	12912	
476.68	14990	
476.88	14777	
477.08	12851	
477.28	13209	
477.48	14240	
477.68	14718	
477.88	12616	
478.08	12764	
478.28	15230	
478.48	14315	
478.67	12964	
478.87	12185	
479.07	15202	
479.27	14443	
479.47	12946	
479.67	13225	
479.87	14922	
480.07	15307	
480.27	12515	
480.47	13684	
480.67	14361	
480.87	15230	
481.06	12626	
481.26	13515	
481.46	14502	
481.66	14489	
481.86	13102	
482.06	13812	
482.26	14246	
482.46	14978	
482.66	12847	
482.86	12736	
483.05	14620	
483.25	14044	
483.45	14812	
483.65	12995	
483.85	14271	
484.05	14526	
484.25	13457	
484.45	14042	
484.65	15070	
484.84	15296	
485.04	13106	
485.24	13033	
485.44	15587	
485.64	14245	
485.84	12712	
486.04	13871	
486.24	14631	
486.44	14969	
486.63	12693	
486.83	13488	
487.03	14960	
487.23	15078	
487.43	12904	
487.63	14868	
487.83	15143	
488.02	15909	
488.22	13875	
488.42	14498	
488.62	15696	
488.82	15052	
489.02	13512	
489.22	13777	
489.41	15685	
489.61	15609	
489.81	13480	
490.01	13517	
490.21	15817	
490.41	16350	
490.61	13635	
490.8	13741	
491	15474	
491.2	15018	
491.4	13980	
491.6	13279	
491.8	15223	
491.99	15272	
492.19	13085	
492.39	13222	
492.59	15577	
492.79	15635	
492.99	14030	
493.18	13326	
493.38	15801	
493.58	16626	
493.78	14163	
493.98	13742	
494.18	15715	
494.37	15587	
494.57	14702	
494.77	14607	
494.97	16417	
495.17	16802	
495.37	14572	
495.56	14797	
495.76	17107	
495.96	16888	
496.16	15742	
496.36	15012	
496.55	17159	
496.75	16877	
496.95	15503	
497.15	15342	
497.35	17208	
497.54	17231	
497.74	15188	
497.94	16713	
498.14	17929	
498.34	17584	
498.53	14992	
498.73	15620	
498.93	16718	
499.13	17247	
499.33	15567	
499.52	15921	
499.72	17612	
499.92	17488	
500.12	15529	
500.32	15830	
500.51	17587	
500.71	17615	
500.91	16384	
501.11	16148	
501.31	17830	
501.5	17877	
501.7	16593	
501.9	15841	
502.1	17410	
502.29	17731	
502.49	16318	
502.69	16351	
502.89	17477	
503.09	17600	
503.28	15162	
503.48	15242	
503.68	16762	
503.88	16840	
504.07	16064	
504.27	15321	
504.47	17028	
504.67	16978	
504.86	15784	
505.06	15410	
505.26	16635	
505.46	17813	
505.65	15325	
505.85	15257	
506.05	16437	
506.25	16813	
506.44	14444	
506.64	14952	
506.84	16043	
507.04	16577	
507.23	14338	
507.43	14648	
507.63	17299	
507.83	15900	
508.02	14630	
508.22	14403	
508.42	17408	
508.62	15758	
508.81	14592	
509.01	14891	
509.21	15339	
509.4	15748	
509.6	14431	
509.8	14022	
510	15659	
510.19	16913	
510.39	13849	
510.59	14186	
510.79	15702	
510.98	16789	
511.18	14227	
511.38	14358	
511.57	16404	
511.77	15995	
511.97	14642	
512.17	13966	
512.36	16389	
512.56	16025	
512.76	13944	
512.95	13677	
513.15	16294	
513.35	15159	
513.55	14519	
513.74	13915	
513.94	16151	
514.14	15705	
514.33	14648	
514.53	14501	
514.73	15560	
514.92	15770	
515.12	14197	
515.32	14097	
515.51	15990	
515.71	16178	
515.91	15411	
516.11	14158	
516.3	17408	
516.5	15626	
516.7	14575	
516.89	15015	
517.09	15728	
517.29	15894	
517.48	14778	
517.68	14342	
517.88	15586	
518.07	15984	
518.27	14751	
518.47	13890	
518.66	16381	
518.86	15373	
519.06	13822	
519.25	14061	
519.45	15650	
519.65	16837	
519.84	14646	
520.04	15253	
520.24	17146	
520.43	16070	
520.63	14408	
520.83	14137	
521.02	15565	
521.22	15875	
521.42	14379	
521.61	14935	
521.81	15556	
522.01	15646	
522.2	14216	
522.4	13971	
522.6	15939	
522.79	14920	
522.99	14014	
523.18	13807	
523.38	15885	
523.58	16044	
523.77	15423	
523.97	13937	
524.17	17700	
524.36	17118	
524.56	15165	
524.76	15075	
524.95	16401	
525.15	16118	
525.34	15127	
525.54	15081	
525.74	17116	
525.93	16279	
526.13	16135	
526.33	15472	
526.52	17444	
526.72	17042	
526.91	16390	
527.11	15791	
527.31	17495	
527.5	18014	
527.7	15662	
527.89	14970	
528.09	16722	
528.29	17349	
528.48	16051	
528.68	15623	
528.87	17490	
529.07	17542	
529.27	15858	
529.46	15821	
529.66	17615	
529.85	17958	
530.05	15593	
530.25	16132	
530.44	18613	
530.64	17362	
530.83	15795	
531.03	16087	
531.23	17833	
531.42	17626	
531.62	16394	
531.81	15778	
532.01	17972	
532.21	18335	
532.4	15898	
532.6	16169	
532.79	18727	
532.99	18432	
533.18	16740	
533.38	17264	
533.58	18223	
533.77	18686	
533.97	16808	
534.16	17386	
534.36	19144	
534.55	18317	
534.75	17452	
534.95	16967	
535.14	19314	
535.34	18338	
535.53	16679	
535.73	18114	
535.92	19547	
536.12	18251	
536.31	16724	
536.51	17442	
536.71	18517	
536.9	18181	
537.1	16632	
537.29	16787	
537.49	18767	
537.68	18132	
537.88	17088	
538.07	16247	
538.27	18445	
538.46	19068	
538.66	16341	
538.86	16875	
539.05	18305	
539.25	18505	
539.44	17141	
539.64	16734	
539.83	18249	
540.03	19115	
540.22	16688	
540.42	16635	
540.61	18285	
540.81	18472	
541	16477	
541.2	17487	
541.39	17894	
541.59	18243	
541.78	17159	
541.98	16320	
542.18	17419	
542.37	17555	
542.57	16369	
542.76	16995	
542.96	17448	
543.15	17873	
543.35	16282	
543.54	15815	
543.74	17704	
543.93	17621	
544.13	15961	
544.32	16726	
544.52	17686	
544.71	16922	
544.91	15047	
545.1	16004	
545.3	17036	
545.49	17375	
545.69	14976	
545.88	15357	
546.08	18082	
546.27	17724	
546.47	15859	
546.66	15170	
546.86	17453	
547.05	17944	
547.24	15221	
547.44	15398	
547.63	16601	
547.83	17703	
548.02	15639	
548.22	15771	
548.41	16356	
548.61	17241	
548.8	15038	
549	15079	
549.19	16766	
549.39	17121	
549.58	14672	
549.78	15195	
549.97	17049	
550.17	16565	
550.36	15666	
550.55	16584	
550.75	16490	
550.94	17148	
551.14	14549	
551.33	14794	
551.53	15947	
551.72	16731	
551.92	14883	
552.11	14719	
552.31	16745	
552.5	16603	
552.69	15908	
552.89	14372	
553.08	16683	
553.28	16316	
553.47	14738	
553.67	15438	
553.86	16892	
554.06	15610	
554.25	13947	
554.44	14509	
554.64	17499	
554.83	17030	
555.03	14363	
555.22	14700	
555.42	16555	
555.61	16318	
555.8	14421	
556	14674	
556.19	15745	
556.39	16528	
556.58	14338	
556.78	14489	
556.97	16071	
557.16	15942	
557.36	15218	
557.55	14298	
557.75	15213	
557.94	16747	
558.13	14079	
558.33	13915	
558.52	16455	
558.72	15539	
558.91	14002	
559.1	14195	
559.3	15371	
559.49	14900	
559.69	13541	
559.88	14317	
560.07	15864	
560.27	16244	
560.46	14459	
560.66	14500	
560.85	15649	
561.04	14920	
561.24	13857	
561.43	13678	
561.63	15057	
561.82	15340	
562.01	14846	
562.21	14068	
562.4	15447	
562.59	16383	
562.79	13855	
562.98	13681	
563.18	15531	
563.37	16735	
563.56	14298	
563.76	13732	
563.95	15128	
564.14	15173	
564.34	14022	
564.53	13839	
564.73	15625	
564.92	15934	
565.11	14184	
565.31	13635	
565.5	16084	
565.69	15340	
565.89	13882	
566.08	14032	
566.27	16083	
566.47	16356	
566.66	14676	
566.85	13574	
567.05	15767	
567.24	15244	
567.44	13786	
567.63	14858	
567.82	15922	
568.02	15603	
568.21	13831	
568.4	14055	
568.6	15672	
568.79	15517	
568.98	13700	
569.18	13957	
569.37	15651	
569.56	17052	
569.76	14197	
569.95	14883	
570.14	15860	
570.34	15823	
570.53	13665	
570.72	13674	
570.91	16242	
571.11	15479	
571.3	13829	
571.49	14631	
571.69	15444	
571.88	14890	
572.07	14343	
572.27	14139	
572.46	15107	
572.65	15828	
572.85	13827	
573.04	13977	
573.23	16175	
573.43	15399	
573.62	13585	
573.81	14097	
574	15592	
574.2	15348	
574.39	13958	
574.58	13992	
574.78	16380	
574.97	15879	
575.16	14459	
575.36	14652	
575.55	16369	
575.74	16247	
575.93	13628	
576.13	14844	
576.32	15691	
576.51	16158	
576.71	14188	
576.9	15451	
577.09	16490	
577.28	16077	
577.48	14530	
577.67	13773	
577.86	15819	
578.05	16154	
578.25	14367	
578.44	14366	
578.63	15861	
578.83	16944	
579.02	13763	
579.21	15210	
579.4	16078	
579.6	15881	
579.79	14429	
579.98	16158	
580.17	16238	
580.37	16523	
580.56	13981	
580.75	14720	
580.94	16594	
581.14	16663	
581.33	14935	
581.52	14260	
581.71	16214	
581.91	16844	
582.1	14031	
582.29	14476	
582.48	16006	
582.68	16163	
582.87	14909	
583.06	14644	
583.25	16311	
583.45	16008	
583.64	15313	
583.83	15634	
584.02	16117	
584.21	16402	
584.41	15019	
584.6	14593	
584.79	16166	
584.98	16803	
585.18	14182	
585.37	14175	
585.56	15829	
585.75	16448	
585.94	14300	
586.14	14847	
586.33	16697	
586.52	16032	
586.71	14697	
586.91	14317	
587.1	15368	
587.29	16122	
587.48	13971	
587.67	14027	
587.87	15837	
588.06	15887	
588.25	14825	
588.44	14326	
588.63	15226	
588.83	15793	
589.02	13729	
589.21	13398	
589.4	14854	
589.59	14700	
589.78	12390	
589.98	12415	
590.17	13876	
590.36	14280	
590.55	11534	
590.74	12027	
590.94	14851	
591.13	13565	
591.32	11579	
591.51	11156	
591.7	13715	
591.89	13390	
592.09	11176	
592.28	11679	
592.47	12700	
592.66	14319	
592.85	11337	
593.05	11542	
593.24	13315	
593.43	13991	
593.62	11807	
593.81	12045	
594	13388	
594.19	13573	
594.39	11686	
594.58	11675	
594.77	13716	
594.96	14228	
595.15	11652	
595.34	12097	
595.54	13685	
595.73	12894	
595.92	11054	
596.11	11915	
596.3	13958	
596.49	13093	
596.68	11486	
596.88	11916	
597.07	13699	
597.26	12790	
597.45	11228	
597.64	12185	
597.83	12973	
598.02	13528	
598.22	11381	
598.41	11959	
598.6	13530	
598.79	12956	
598.98	11497	
599.17	12186	
599.36	13510	
599.55	14375	
599.74	13177	
599.94	13017	
600.13	13945	
600.32	13014	
600.51	11363	
600.7	11641	
600.89	14444	
601.08	14592	
601.27	11475	
601.47	12072	
601.66	13913	
601.85	14437	
602.04	12027	
602.23	12133	
602.42	13209	
602.61	13706	
602.8	11913	
602.99	11682	
603.18	13528	
603.37	13697	
603.57	12125	
603.76	12579	
603.95	14270	
604.14	13951	
604.33	11808	
604.52	12003	
604.71	13913	
604.9	13336	
605.09	12466	
605.28	12360	
605.47	14268	
605.66	13850	
605.86	12187	
606.05	11774	
606.24	14188	
606.43	12918	
606.62	12116	
606.81	12497	
607	13901	
607.19	13430	
607.38	11452	
607.57	11684	
607.76	13196	
607.95	12732	
608.14	11897	
608.33	12456	
608.52	13108	
608.72	13971	
608.91	11314	
609.1	11258	
609.29	13148	
609.48	12809	
609.67	11894	
609.86	11186	
610.05	12779	
610.24	12962	
610.43	11136	
610.62	10838	
610.81	13911	
611	13684	
611.19	11107	
611.38	11785	
611.57	13449	
611.76	14207	
611.95	10947	
612.14	10868	
612.33	13007	
612.52	12579	
612.71	11428	
612.9	10775	
613.09	12371	
613.28	14229	
613.47	11250	
613.66	11889	
613.85	13124	
614.04	12637	
614.24	11261	
614.43	10527	
614.62	13067	
614.81	13097	
615	11567	
615.19	11592	
615.38	12576	
615.57	12918	
615.76	11401	
615.95	12222	
616.14	13196	
616.33	12911	
616.52	11810	
616.71	11846	
616.9	13137	
617.09	13044	
617.28	11137	
617.47	12135	
617.66	12442	
617.85	12473	
618.04	11804	
618.22	11417	
618.41	12699	
618.6	13632	
618.79	11470	
618.98	11314	
619.17	13909	
619.36	12361	
619.55	11498	
619.74	11407	
619.93	13285	
620.12	12900	
620.31	12028	
620.5	12139	
620.69	13776	
620.88	14132	
621.07	12619	
621.26	11952	
621.45	13558	
621.64	13562	
621.83	12041	
622.02	11410	
622.21	13553	
622.4	13423	
622.59	12512	
622.78	12321	
622.97	13070	
623.16	13779	
623.35	12082	
623.54	11365	
623.72	13250	
623.91	13273	
624.1	12154	
624.29	11144	
624.48	14310	
624.67	13573	
624.86	12113	
625.05	11323	
625.24	14287	
625.43	13050	
625.62	13436	
625.81	11525	
626	13749	
626.19	13231	
626.38	12075	
626.56	11551	
626.75	13094	
626.94	13775	
627.13	12038	
627.32	11082	
627.51	13573	
627.7	14377	
627.89	11084	
628.08	12028	
628.27	12625	
628.46	12886	
628.65	11182	
628.83	10912	
629.02	13183	
629.21	12626	
629.4	11622	
629.59	11720	
629.78	12785	
629.97	13404	
630.16	11754	
630.35	11331	
630.54	13935	
630.72	13546	
630.91	11477	
631.1	11730	
631.29	13244	
631.48	13287	
631.67	11901	
631.86	11291	
632.05	13083	
632.24	13023	
632.42	11054	
632.61	11569	
632.8	12985	
632.99	12637	
633.18	11622	
633.37	11898	
633.56	13104	
633.75	12989	
633.93	11710	
634.12	11346	
634.31	14010	
634.5	13548	
634.69	11410	
634.88	11756	
635.07	12940	
635.25	13555	
635.44	12183	
635.63	12329	
635.82	12867	
636.01	12405	
636.2	12111	
636.39	11671	
636.57	13794	
636.76	13377	
636.95	11287	
637.14	12349	
637.33	13221	
637.52	13885	
637.7	11101	
637.89	11988	
638.08	12899	
638.27	14076	
638.46	11914	
638.65	12054	
638.83	13849	
639.02	12655	
639.21	11735	
639.4	12085	
639.59	12991	
639.78	12744	
639.96	11127	
640.15	11118	
640.34	12869	
640.53	12985	
640.72	10793	
640.91	11069	
641.09	12324	
641.28	13338	
641.47	11024	
641.66	11614	
641.85	12821	
642.03	12970	
642.22	11394	
642.41	10984	
642.6	12306	
642.79	11940	
642.97	10675	
643.16	11281	
643.35	12155	
643.54	11938	
643.73	10534	
643.91	11229	
644.1	11774	
644.29	12347	
644.48	10505	
644.67	10535	
644.85	11729	
645.04	12098	
645.23	10005	
645.42	10300	
645.6	11493	
645.79	12275	
645.98	10009	
646.17	9173.5	
646.36	10984	
646.54	11279	
646.73	10295	
646.92	9405	
647.11	10910	
647.29	11674	
647.48	9420.7	
647.67	9093.7	
647.86	11871	
648.05	11906	
648.23	9430.2	
648.42	10456	
648.61	11376	
648.8	11191	
648.98	9165.3	
649.17	9531.9	
649.36	10697	
649.55	10457	
649.73	9317.6	
649.92	9927.9	
650.11	10748	
650.3	11144	
650.48	9393.3	
650.67	9389.9	
650.86	11256	
651.05	10401	
651.23	9438.4	
651.42	9230.9	
651.61	10684	
651.79	10608	
651.98	9470.5	
652.17	9166.7	
652.36	11011	
652.54	10309	
652.73	9216.5	
652.92	8966	
653.11	11101	
653.29	11146	
653.48	8692.9	
653.67	9410.4	
653.85	10788	
654.04	11666	
654.23	9443.9	
654.42	9088.9	
654.6	10361	
654.79	10845	
654.98	8534.6	
655.16	8897.1	
655.35	9816.6	
655.54	9645.3	
655.73	8387.8	
655.91	8186.4	
656.1	10501	
656.29	9476	
656.47	7929.1	
656.66	9286.2	
656.85	9892.4	
657.03	9905.3	
657.22	8498.4	
657.41	8568	
657.59	10043	
657.78	9975	
657.97	8393.9	
658.16	8968.1	
658.34	10713	
658.53	10981	
658.72	9741.5	
658.9	9949.7	
659.09	10479	
659.28	10430	
659.46	8833.6	
659.65	8897.1	
659.84	10140	
660.02	10647	
660.21	9017.2	
660.4	8753	
660.58	10946	
660.77	10541	
660.96	9245.9	
661.14	8432.9	
661.33	11351	
661.52	11299	
661.7	8396	
661.89	11292	
662.08	10194	
662.26	9773.6	
662.45	8723	
662.64	8708	
662.82	10727	
663.01	9998.9	
663.2	8688.8	
663.38	9417.2	
663.57	10694	
663.75	10441	
663.94	9004.9	
664.13	9848.7	
664.31	10077	
664.5	10540	
664.69	9209	
664.87	9458.2	
665.06	9803.6	
665.25	10543	
665.43	9719	
665.62	9781.8	
665.8	10634	
665.99	10032	
666.18	8884.1	
666.36	8968.7	
666.55	10550	
666.74	10506	
666.92	8584.4	
667.11	9857.6	
667.29	10150	
667.48	10619	
667.67	9486.9	
667.85	8751.7	
668.04	10080	
668.22	10101	
668.41	8874.5	
668.6	9038.4	
668.78	9924.5	
668.97	10139	
669.15	9052.7	
669.34	8273.1	
669.53	9996.1	
669.71	10190	
669.9	8371.4	
670.08	9015.8	
670.27	9877.4	
670.46	10368	
670.64	9039.7	
670.83	9359.2	
671.01	9668.5	
671.2	10228	
671.38	8480	
671.57	8417.2	
671.76	10705	
671.94	11107	
672.13	8262.2	
672.31	9101.2	
672.5	10418	
672.69	9820	
672.87	8490.9	
673.06	8757.1	
673.24	10251	
673.43	9934.7	
673.61	8978.3	
673.8	8601.5	
673.98	10328	
674.17	10395	
674.36	9181.7	
674.54	9024.7	
674.73	10046	
674.91	10361	
675.1	8699.1	
675.28	8400.1	
675.47	10009	
675.65	10385	
675.84	8623.3	
676.03	8815.8	
676.21	9907.4	
676.4	9271.8	
676.58	9197.4	
676.77	8992.6	
676.95	10853	
677.14	9690.3	
677.32	8342.1	
677.51	8300.4	
677.69	10370	
677.88	9540.8	
678.06	8232.8	
678.25	8393.9	
678.44	9921.7	
678.62	9629.5	
678.81	8092.2	
678.99	8811	
679.18	10550	
679.36	10154	
679.55	8590.5	
679.73	8895.7	
679.92	10203	
680.1	9753.8	
680.29	9457.5	
680.47	8565.3	
680.66	9661.6	
680.84	10346	
681.03	7968.6	
681.21	8811	
681.4	9668.5	
681.58	9503.9	
681.77	8286.1	
681.95	8238.3	
682.14	10302	
682.32	10518	
682.51	8946.9	
682.69	7995.3	
682.88	9525.1	
683.06	9917.6	
683.25	8566.7	
683.43	8897.7	
683.62	9825.5	
683.8	10033	
683.99	9194.7	
684.17	8445.1	
684.36	10649	
684.54	9557.2	
684.73	7703.1	
684.91	7830.1	
685.1	9633.6	
685.28	8883.4	
685.46	8041.7	
685.65	7965.2	
685.83	9484.8	
686.02	8847.2	
686.2	7297.6	
686.39	7346.7	
686.57	8376.2	
686.76	9676.7	
686.94	7310.6	
687.13	7476.5	
687.31	9175.6	
687.5	8912.8	
687.68	7105.1	
687.86	8022.6	
688.05	10314	
688.23	8456.7	
688.42	8106.5	
688.6	7438.9	
688.79	8901.8	
688.97	8869.8	
689.16	7876.5	
689.34	6980.8	
689.52	9510.8	
689.71	9633	
689.89	8047.8	
690.08	7576.1	
690.26	9116.9	
690.45	8954.4	
690.63	8130.4	
690.81	7699	
691	8867	
691.18	8733.2	
691.37	7669.6	
691.55	9336.7	
691.74	8644.5	
691.92	10256	
692.1	7647.8	
692.29	7038.2	
692.47	8711.4	
692.66	8156.4	
692.84	7204.1	
693.02	7609.6	
693.21	8307.2	
693.39	8698.4	
693.58	7737.9	
693.76	7247.1	
693.94	9710.8	
694.13	9525.1	
694.31	7460.1	
694.5	8271.7	
694.68	8765.3	
694.86	9057.5	
695.05	7905.8	
695.23	7955	
695.42	9577.7	
695.6	11275	
695.78	8450.6	
695.97	7722.2	
696.15	9654.8	
696.34	9154.4	
696.52	7578.8	
696.7	8082.6	
696.89	9290.3	
697.07	8670.4	
697.25	7930.4	
697.44	9120.3	
697.62	9087.5	
697.81	9371.5	
697.99	7570	
698.17	7995.3	
698.36	8481.3	
698.54	8980.3	
698.72	7832.8	
698.91	7107.1	
699.09	8733.2	
699.28	8561.2	
699.46	7523.6	
699.64	7389.1	
699.83	8498.4	
700.01	9326.4	
700.19	8098.4	
700.38	6842.9	
700.56	9411.1	
700.74	8657.4	
700.93	7035.5	
701.11	7797.3	
701.29	9052	
701.48	9992	
701.66	7401.4	
701.84	7535.2	
702.03	8882.7	
702.21	9485.5	
702.39	7094.8	
702.58	7651.9	
702.76	9244.5	
702.94	9325.1	
703.13	7185.6	
703.31	9094.3	
703.49	8632.9	
703.68	9766.1	
703.86	7227.3	
704.04	8019.2	
704.23	8976.2	
704.41	9338.7	
704.59	7481.9	
704.78	8269.7	
704.96	10011	
705.14	9375.6	
705.33	7179.5	
705.51	7888.1	
705.69	8884.1	
705.87	9590	
706.06	8106.5	
706.24	7190.4	
706.42	9163.3	
706.61	9395.4	
706.79	8084	
706.97	7216.4	
707.16	8721.6	
707.34	9078	
707.52	7981.6	
707.7	7380.9	
707.89	8774.9	
708.07	8518.9	
708.25	7999.4	
708.44	8385.7	
708.62	8693.6	
708.8	9554.5	
708.98	8250.6	
709.17	7496.9	
709.35	9070.5	
709.53	9006.3	
709.72	7258	
709.9	7597.3	
710.08	9316.9	
710.26	9230.9	
710.45	8454.7	
710.63	7446.4	
710.81	8951	
710.99	8847.9	
711.18	7770.7	
711.36	7332.4	
711.54	8555	
711.72	9222	
711.91	7379.5	
712.09	6969.9	
712.27	8731.9	
712.45	9059.5	
712.64	7464.8	
712.82	6543.3	
713	8084	
713.18	8150.2	
713.37	6578.8	
713.55	7439.6	
713.73	8688.8	
713.91	7537.9	
714.1	6690.7	
714.28	6088.6	
714.46	8089.5	
714.64	7325.6	
714.83	5353.4	
715.01	5852.4	
715.19	7134.4	
715.37	6454.5	
715.55	5386.8	
715.74	5528.2	
715.92	7578.2	
716.1	5983.5	
716.28	6492.7	
716.47	5701.5	
716.65	6626.5	
716.83	6546.7	
717.01	5532.2	
717.19	5464.7	
717.38	8118.1	
717.56	6241.5	
717.74	5638.1	
717.92	4998.4	
718.1	7239.6	
718.29	6675.7	
718.47	4745.8	
718.65	5378	
718.83	7411.6	
719.01	7400	
719.2	4985.4	
719.38	5887.9	
719.56	7273.7	
719.74	8560.5	
719.92	5698.1	
720.11	6487.3	
720.29	7492.8	
720.47	6714.6	
720.65	5156.8	
720.83	5777.3	
721.02	6675.7	
721.2	6599.9	
721.38	5555.5	
721.56	5046.2	
721.74	6004	
721.92	6049.7	
722.11	5948.7	
722.29	5676.3	
722.47	7136.5	
722.65	6414.2	
722.83	4986.1	
723.01	5668.8	
723.2	6490.7	
723.38	6722.8	
723.56	4465.9	
723.74	5416.9	
723.92	6095.4	
724.1	6898.9	
724.29	4951.3	
724.47	5817.6	
724.65	6185.5	
724.83	6040.8	
725.01	4813.4	
725.19	5487.2	
725.37	6066.8	
725.56	6081.8	
725.74	4764.3	
725.92	4826.4	
726.1	6088.6	
726.28	6340.5	
726.46	5241.4	
726.64	4998.4	
726.83	6263.4	
727.01	6441.5	
727.19	4681	
727.37	5308.3	
727.55	6398.5	
727.73	6855.9	
727.91	4662.5	
728.09	4490.5	
728.28	6873.7	
728.46	7081.9	
728.64	5339.7	
728.82	5346.6	
729	7704.5	
729.18	7091.4	
729.36	4823	
729.54	6659.3	
729.72	8023.9	
729.91	6746	
730.09	6479.1	
730.27	5569.8	
730.45	6689.3	
730.63	7211.6	
730.81	6002.6	
730.99	5328.8	
731.17	7667.6	
731.35	6541.2	
731.53	5679.7	
731.71	5454.4	
731.9	7435.5	
732.08	7428.7	
732.26	5614.2	
732.44	5304.2	
732.62	7516.7	
732.8	7139.9	
732.98	5831.2	
733.16	5137.7	
733.34	7112.6	
733.52	6044.2	
733.7	5418.9	
733.88	5614.8	
734.07	6917.4	
734.25	6756.2	
734.43	4971.8	
734.61	6227.9	
734.79	7963.2	
734.97	6701.6	
735.15	5173.9	
735.33	5395.7	
735.51	6940.6	
735.69	6670.9	
735.87	6292.7	
736.05	5584.8	
736.23	6801.3	
736.41	6564.4	
736.59	5435.3	
736.77	5538.4	
736.95	7179.5	
737.13	6642.9	
737.32	5218.9	
737.5	5409.4	
737.68	7613.7	
737.86	6552.1	
738.04	4973.8	
738.22	6453.8	
738.4	6417.7	
738.58	6699.6	
738.76	5488.6	
738.94	4631.1	
739.12	6541.9	
739.3	6391.7	
739.48	5992.4	
739.66	5741.8	
739.84	6748.7	
740.02	6688.7	
740.2	4752	
740.38	5029.1	
740.56	7068.9	
740.74	6023.8	
740.92	5614.8	
741.1	5414.8	
741.28	6487.3	
741.46	6380.1	
741.64	5134.3	
741.82	5550	
742	6580.1	
742.18	6468.9	
742.36	5253.7	
742.54	4954.7	
742.72	6991.8	
742.9	5942.5	
743.08	5498.1	
743.26	4575.2	
743.44	7044.3	
743.62	6938.5	
743.8	5631.9	
743.98	4896	
744.16	6688	
744.34	6421.7	
744.52	5655.8	
744.7	5477	
744.88	6804	
745.06	6354.2	
745.24	5429.2	
745.42	5637.4	
745.6	6889.4	
745.78	6581.5	
745.96	4589.5	
746.14	4782	
746.32	7380.9	
746.5	6703	
746.68	5209.3	
746.86	4725.3	
747.03	7024.5	
747.21	5713.8	
747.39	5155.4	
747.57	4704.2	
747.75	6410.8	
747.93	6649.1	
748.11	4661.9	
748.29	4665.3	
748.47	7690.1	
748.65	6163.7	
748.83	5259.9	
749.01	4995.7	
749.19	6543.9	
749.37	5789.6	
749.55	5003.2	
749.73	5040.7	
749.91	6268.8	
750.09	6034.7	
750.26	5057.1	
750.44	4555.4	
750.62	6272.2	
750.8	6154.1	
750.98	4426.3	
751.16	4693.9	
751.34	6260	
751.52	5787.6	
751.7	5341.1	
751.88	4320.5	
752.06	6668.2	
752.24	6438.8	
752.42	4336.2	
752.59	4570.4	
752.77	6200.6	
752.95	7069.6	
753.13	5226.4	
753.31	4674.8	
753.49	5894.7	
753.67	6192.4	
753.85	4934.9	
754.03	4487.8	
754.21	6362.4	
754.38	6653.9	
754.56	4546.5	
754.74	3894.6	
754.92	5663.3	
755.1	6126.8	
755.28	3753.2	
755.46	3839.3	
755.64	6765.8	
755.82	6713.2	
755.99	3903.4	
756.17	3953.9	
756.35	4666.6	
756.53	5835.3	
756.71	2981.8	
756.89	3743.7	
757.07	5556.8	
757.25	4869.4	
757.42	4170.3	
757.6	4806.6	
757.78	5612.1	
757.96	4831.8	
758.14	3913.7	
758.32	3547.8	
758.5	4508.9	
758.67	5143.1	
758.85	3764.2	
759.03	3906.8	
759.21	5377.3	
759.39	4823.6	
759.57	3455.6	
759.75	4365.6	
759.92	5866.1	
760.1	5373.9	
760.28	4638.6	
760.46	4891.9	
760.64	5112.4	
760.82	4928.1	
760.99	4385.4	
761.17	3997	
761.35	5802.6	
761.53	4943.1	
761.71	4078.9	
761.89	4545.8	
762.06	5704.3	
762.24	5354.8	
762.42	4206.5	
762.6	3976.5	
762.78	5348.6	
762.96	5865.4	
763.13	4504.8	
763.31	4184	
763.49	5886.5	
763.67	5328.8	
763.85	4912.4	
764.02	5316.5	
764.2	6257.9	
764.38	5569.8	
764.56	4086.4	
764.74	4840	
764.91	6295.5	
765.09	5357.5	
765.27	3936.9	
765.45	3772.4	
765.63	6318.7	
765.8	6206	
765.98	3545	
766.16	3792.8	
766.34	5099.4	
766.52	4883	
766.69	4494.6	
766.87	3687	
767.05	5407.3	
767.23	5973.9	
767.41	3900	
767.58	4092.5	
767.76	5825.8	
767.94	5940.5	
768.12	3935.5	
768.29	4511	
768.47	5408.7	
768.65	5979.4	
768.83	3628.3	
769	4521.2	
769.18	5024.3	
769.36	5599.1	
769.54	4541	
769.72	3605.8	
769.89	5861.3	
770.07	5933.6	
770.25	3868.6	
770.43	4943.8	
770.6	6453.8	
770.78	6744	
770.96	4020.2	
771.14	4538.3	
771.31	5747.3	
771.49	5255.1	
771.67	3381.2	
771.85	3528	
772.02	4679.6	
772.2	5223	
772.38	4214	
772.55	3766.2	
772.73	5487.2	
772.91	5249.6	
773.09	4022.2	
773.26	4136.2	
773.44	5392.3	
773.62	5177.9	
773.8	3648.1	
773.97	3455.6	
774.15	5448.3	
774.33	5154.1	
774.5	3580.5	
774.68	3904.8	
774.86	5545.9	
775.04	5137.7	
775.21	3638.6	
775.39	3573.7	
775.57	5397.1	
775.74	5617.6	
775.92	3500.7	
776.1	3380.5	
776.27	5339.1	
776.45	6296.8	
776.63	3605.8	
776.81	3315.7	
776.98	5055.1	
777.16	5872.2	
777.34	3720.5	
777.51	3940.3	
777.69	5028.4	
777.87	4829.8	
778.04	3839.9	
778.22	4202.4	
778.4	4881.7	
778.57	5394.3	
778.75	3139.5	
778.93	3403.7	
779.1	4764.3	
779.28	4568.3	
779.46	3112.2	
779.64	3519.8	
779.81	5526.8	
779.99	6146.6	
780.17	4147.8	
780.34	4213.4	
780.52	5052.3	
780.69	5209.3	
780.87	3791.5	
781.05	3434.4	
781.22	5099.4	
781.4	5175.2	
781.58	3536.8	
781.75	2889.7	
781.93	5197.7	
782.11	4615.4	
782.28	4222.9	
782.46	3504.1	
782.64	4520.5	
782.81	5284.4	
782.99	3611.3	
783.17	3613.3	
783.34	5199.1	
783.52	4587.4	
783.69	3713	
783.87	4370.4	
784.05	4603.8	
784.22	4617.5	
784.4	4354	
784.58	3792.2	
784.75	5438.7	
784.93	4743.1	
785.1	3507.5	
785.28	4002.4	
785.46	5184.1	
785.63	4590.9	
785.81	3553.2	
785.99	3384.6	
786.16	4784.1	
786.34	5022.3	
786.51	3405.8	
786.69	3758.7	
786.87	4375.8	
787.04	4850.3	
787.22	3316.3	
787.39	4050.9	
787.57	4642.1	
787.75	5518.6	
787.92	4269.3	
788.1	4074.8	
788.27	4610.7	
788.45	4412	
788.63	3959.4	
788.8	2910.8	
788.98	5070.1	
789.15	4321.9	
789.33	3012.6	
789.5	3483.6	
789.68	5386.2	
789.86	5477.6	
790.03	3778.5	
790.21	3389.4	
790.38	5403.9	
790.56	4648.2	
790.73	3254.2	
790.91	3317.7	
791.09	4642.1	
791.26	5185.5	
791.44	3583.9	
791.61	3028.3	
791.79	4626.4	
791.96	4628.4	
792.14	3149.1	
792.32	2884.9	
792.49	4593.6	
792.67	4706.9	
792.84	3240.6	
793.02	3070.6	
793.19	5014.8	
793.37	5545.9	
793.54	2841.2	
793.72	3085.6	
793.89	5540.4	
794.07	4597	
794.25	3546.4	
794.42	2951.8	
794.6	5457.8	
794.77	5170.4	
794.95	3827	
795.12	3295.2	
795.3	4594.3	
795.47	5029.8	
795.65	3708.2	
795.82	3484.3	
796	4431.8	
796.17	5887.2	
796.35	3419.4	
796.52	3984	
796.7	4975.2	
796.87	5122	
797.05	3427.6	
797.22	4067.9	
797.4	5047.6	
797.57	5816.9	
797.75	3474.7	
797.92	3302.7	
798.1	5358.9	
798.27	4472.8	
798.45	2902.7	
798.62	3044.6	
798.8	4858.5	
798.97	5264	
799.15	3696.6	
799.32	3510.2	
799.5	4261.1	
799.67	4862.6	
799.85	3797.6	
800.02	2828.9	
800.2	4579.3	
800.37	4840.7	
800.55	3876.8	
800.72	3354.6	
800.9	5192.3	
801.07	5550	
801.25	4318.5	
801.42	3595.6	
801.6	5228.5	
801.77	4886.5	
801.95	3371.6	
802.12	3311.6	
802.29	4999.8	
802.47	4880.3	
802.64	3585.3	
802.82	2846	
802.99	4536.9	
803.17	5333.6	
803.34	3534.8	
803.52	3203.7	
803.69	5826.5	
803.87	4342.4	
804.04	3493.8	
804.21	3555.3	
804.39	5500.8	
804.56	4741.7	
804.74	2983.9	
804.91	3638.6	
805.09	4548.5	
805.26	4586.8	
805.44	3053.5	
805.61	3371	
805.78	5143.1	
805.96	5068	
806.13	3622.2	
806.31	3865.2	
806.48	4201.1	
806.66	4587.4	
806.83	3568.2	
807	3485.6	
807.18	4543.1	
807.35	4863.9	
807.53	3507.5	
807.7	2902	
807.87	5543.2	
808.05	4540.3	
808.22	3781.2	
808.4	2831	
808.57	4557.4	
808.74	4289.1	
808.92	3276.1	
809.09	4010.6	
809.27	4564.2	
809.44	4960.2	
809.61	2894.5	
809.79	3166.2	
809.96	5567.1	
810.14	5119.2	
810.31	2861	
810.48	3405.8	
810.66	4558.1	
810.83	5152	
811.01	3259	
811.18	3566.2	
811.35	5162.9	
811.53	4095.3	
811.7	3888.4	
811.87	3591.5	
812.05	4597.7	
812.22	4505.5	
812.39	3127.9	
812.57	3042.6	
812.74	4674.1	
812.92	5858.6	
813.09	3432.4	
813.26	3648.8	
813.44	5725.4	
813.61	4536.3	
813.78	2914.9	
813.96	3764.2	
814.13	4614.1	
814.3	4375.1	
814.48	4020.2	
814.65	3335.5	
814.82	5471.5	
815	4339	
815.17	3491.8	
815.34	4106.9	
815.52	4545.1	
815.69	4482.3	
815.87	3411.2	
816.04	3387.3	
816.21	4545.8	
816.38	4074.8	
816.56	3349.1	
816.73	3174.4	
816.9	5686.5	
817.08	5162.9	
817.25	3169.6	
817.42	3852.2	
817.6	4231.8	
817.77	4549.9	
817.94	3556.6	
818.12	3085.6	
818.29	4333.5	
818.46	6450.4	
818.64	3323.2	
818.81	3037.8	
818.98	4332.1	
819.16	6014.2	
819.33	3695.9	
819.5	3448.1	
819.67	4891.2	
819.85	5394.3	
820.02	3416.7	
820.19	3608.5	
820.37	4743.8	
820.54	4476.2	
820.71	3506.8	
820.88	4298	
821.06	4782.7	
821.23	4403.1	
821.4	3543	
821.58	3448.8	
821.75	5130.8	
821.92	4717.2	
822.09	2878.8	
822.27	2950.4	
822.44	4602.5	
822.61	4485.7	
822.79	2859.6	
822.96	5339.7	
823.13	4920.6	
823.3	4300.7	
823.48	3289	
823.65	2971.6	
823.82	5166.3	
823.99	4224.3	
824.17	4085.7	
824.34	3019.4	
824.51	5903.6	
824.68	4691.2	
824.86	3215.3	
825.03	3420.1	
825.2	4581.3	
825.37	5441.5	
825.55	3153.9	
825.72	3398.3	
825.89	5816.9	
826.06	5481.7	
826.24	3411.2	
826.41	3371.6	
826.58	5459.2	
826.75	4804.5	
826.92	2696.5	
827.1	3017.3	
827.27	7177.4	
827.44	5835.3	
827.61	3213.3	
827.79	3845.4	
827.96	4382.7	
828.13	4595	
828.3	3367.5	
828.47	2882.2	
828.65	4843.4	
828.82	4801.1	
828.99	4232.5	
829.16	3744.4	
829.34	5172.5	
829.51	4948.6	
829.68	3376.4	
829.85	3557.3	
830.02	5438.7	
830.2	5119.2	
830.37	2709.5	
830.54	4135.5	
830.71	5722	
830.88	4586.8	
831.05	2704.7	
831.23	3132.7	
831.4	5609.4	
831.57	6137.8	
831.74	3248.8	
831.91	2867.8	
832.09	4901.5	
832.26	5129.5	
832.43	3295.2	
832.6	3694.5	
832.77	4857.1	
832.94	5458.5	
833.12	2717.7	
833.29	3244	
833.46	4893.3	
833.63	6297.5	
833.8	3599.6	
833.97	3329.3	
834.15	5159.5	
834.32	4968.4	
834.49	3458.3	
834.66	3518.4	
834.83	5279	
835	4412.7	
835.17	3148.4	
835.35	3266.5	
835.52	5074.9	
835.69	4947.2	
835.86	3359.4	
836.03	2795.5	
836.2	5104.9	
836.37	4769.7	
836.55	3310.9	
836.72	3106.1	
836.89	4750.6	
837.06	5215.5	
837.23	3390.1	
837.4	3619.4	
837.57	5763	
837.75	6275	
837.92	3030.3	
838.09	3167.5	
838.26	4820.9	
838.43	5320.6	
838.6	3450.1	
838.77	3173	
838.94	5882.4	
839.11	5763	
839.29	3367.5	
839.46	2641.9	
839.63	5101.5	
839.8	4877.6	
839.97	3206.4	
840.14	3194.8	
840.31	4971.8	
840.48	5152.7	
840.65	2689.7	
840.82	3179.1	
841	5052.3	
841.17	5026.4	
841.34	2919	
841.51	3065.8	
841.68	5094	
841.85	4803.2	
842.02	3067.9	
842.19	2609.1	
842.36	4894	
842.53	4947.2	
842.7	2985.3	
842.87	3564.1	
843.05	6228.6	
843.22	4862.6	
843.39	2854.2	
843.56	3032.4	
843.73	4717.2	
843.9	5167.7	
844.07	4666.6	
844.24	3908.9	
844.41	7066.9	
844.58	4505.5	
844.75	2915.6	
844.92	3123.2	
845.09	5049.6	
845.26	5045.5	
845.43	2934.1	
845.6	3059	
845.77	5096.7	
845.94	4899.4	
846.12	3219.4	
846.29	3411.9	
846.46	5257.8	
846.63	5061.2	
846.8	2941.6	
846.97	3473.4	
847.14	5511.8	
847.31	5051	
847.48	3285.6	
847.65	3600.3	
847.82	5339.1	
847.99	5204.6	
848.16	3837.9	
848.33	3553.9	
848.5	4724	
848.67	5446.9	
848.84	2921.8	
849.01	3044.6	
849.18	4657.1	
849.35	4384.7	
849.52	3659.7	
849.69	2912.9	
849.86	5190.9	
850.03	5334.3	
850.2	2931.3	
850.37	3543.7	
850.54	5397.1	
850.71	4808.6	
850.88	3525.2	
851.05	2884.9	
851.22	4986.8	
851.39	5473.5	
851.56	2818	
851.73	3360	
851.9	4528.1	
852.07	5258.5	
852.24	3255.6	
852.41	2982.5	
852.58	4943.8	
852.75	4568.3	
852.92	3300	
853.09	2902.7	
853.26	4755.4	
853.43	5461.9	
853.6	2921.8	
853.77	2582.5	
853.94	5525.4	
854.11	4514.4	
854.28	4242.7	
854.44	3155.2	
854.61	5890	
854.78	5315.2	
854.95	2957.9	
855.12	3608.5	
855.29	4199	
855.46	5570.5	
855.63	2895.1	
855.8	4000.4	
855.97	4704.2	
856.14	5342.5	
856.31	4060.4	
856.48	3217.4	
856.65	4743.1	
856.82	4509.6	
856.99	2868.5	
857.16	3199.6	
857.33	6084.5	
857.49	4791.6	
857.66	3162.7	
857.83	3371.6	
858	4823	
858.17	4945.8	
858.34	2807.8	
858.51	2959.3	
858.68	5626.5	
858.85	5628.5	
859.02	3419.4	
859.19	3597.6	
859.36	4537.6	
859.52	4534.9	
859.69	2940.9	
859.86	3372.3	
860.03	4589.5	
860.2	5529.5	
860.37	2701.3	
860.54	2996.2	
860.71	5152	
860.88	5604.6	
861.05	3234.4	
861.21	3674.7	
861.38	5593	
861.55	4371.7	
861.72	2702.6	
861.89	3287	
862.06	5299.5	
862.23	5644.9	
862.4	2895.8	
862.56	3074.7	
862.73	5142.4	
862.9	4885.8	
863.07	3429.7	
863.24	2710.1	
863.41	4446.8	
863.58	4502.8	
863.75	3019.4	
863.91	3419.4	
864.08	5504.9	
864.25	5205.3	
864.42	3631	
864.59	4019.5	
864.76	5816.2	
864.93	4521.2	
865.09	2886.3	
865.26	3165.5	
865.43	5459.9	
865.6	5778	
865.77	2607.1	
865.94	2926.5	
866.1	5421.7	
866.27	5208.7	
866.44	4260.5	
866.61	2761.3	
866.78	4808.6	
866.95	5147.2	
867.11	2871.3	
867.28	2674	
867.45	5347.9	
867.62	4539.7	
867.79	3345.7	
867.96	2921.1	
868.12	4461.2	
868.29	5233.2	
868.46	2938.2	
868.63	3813.3	
868.8	5335.6	
868.97	5184.8	
869.13	3066.5	
869.3	3066.5	
869.47	5123.3	
869.64	5293.3	
869.81	2951.8	
869.97	2918.4	
870.14	5022.3	
870.31	5591.6	
870.48	2867.2	
870.65	3654.3	
870.81	4736.3	
870.98	4769	
871.15	3392.8	
871.32	3054.2	
871.48	5128.1	
871.65	5603.9	
871.82	2914.3	
871.99	3248.1	
872.16	5956.9	
872.32	5431.9	
872.49	2996.2	
872.66	2986.6	
872.83	5239.4	
872.99	4641.4	
873.16	3349.8	
873.33	2926.5	
873.5	4949.9	
873.67	4983.4	
873.83	3084.2	
874	3854.3	
874.17	4981.3	
874.34	5764.3	
874.5	3777.1	
874.67	3593.5	
874.84	5522.7	
875.01	4467.3	
875.17	3994.9	
875.34	2947	
875.51	5005.9	
875.68	5921.4	
875.84	3475.4	
876.01	4211.3	
876.18	5207.3	
876.34	5158.2	
876.51	2953.9	
876.68	2923.1	
876.85	4719.9	
877.01	5456.5	
877.18	4084.3	
877.35	2916.3	
877.52	4986.1	
877.68	4452.3	
877.85	2930.6	
878.02	2895.1	
878.18	4823	
878.35	4686.4	
878.52	2385.9	
878.69	3286.3	
878.85	5291.3	
879.02	5202.5	
879.19	4096.6	
879.35	3168.2	
879.52	5202.5	
879.69	5307	
879.86	2627.5	
880.02	3255.6	
880.19	4904.9	
880.36	5788.2	
880.52	3370.3	
880.69	3416	
880.86	5311.7	
881.02	5328.1	
881.19	3286.3	
881.36	3135.4	
881.52	5169.1	
881.69	4638.6	
881.86	3117	
882.02	3078.1	
882.19	5456.5	
882.36	6229.9	
882.52	3001.6	
882.69	4028.4	
882.86	5046.2	
883.02	4997	
883.19	3513.6	
883.36	3344.3	
883.52	5284.4	
883.69	5939.1	
883.86	2985.3	
884.02	2655.5	
884.19	5208.7	
884.36	4866.7	
884.52	3336.8	
884.69	3162.7	
884.86	4648.9	
885.02	5715.9	
885.19	3221.5	
885.36	3333.4	
885.52	4877.6	
885.69	5046.2	
885.86	4169	
886.02	3674.1	
886.19	5240.8	
886.35	4762.9	
886.52	3248.1	
886.69	4033.8	
886.85	4467.3	
887.02	5464	
887.19	5464	
887.35	5464	
887.52	5464	
887.68	5464	
887.85	5464	
888.02	5464	
888.18	5464	
888.35	5464	
888.51	5464	
888.68	5464	
888.85	5464	
889.01	5464	
889.18	5464	
889.35	5464	
889.51	5464	
889.68	5464	
889.84	5464	
890.01	5464	
890.17	5464	
890.34	5464	
890.51	5464	
890.67	5464	
890.84	5464	
891	5464	
891.17	5464	
891.34	5464	
891.5	5464	
891.67	5464	
891.83	5464	
892	5464	
892.16	5464	
892.33	5464	
892.5	5464	
892.66	5464	
892.83	5464	
892.99	5464	
893.16	5464	
893.32	5464	
893.49	5464	
893.65	5464	
893.82	5464	
893.99	5464	
894.15	5464	
894.32	5464	
894.48	5464	
894.65	5464	
894.81	5464	
894.98	5464	
895.14	5464	
895.31	5464	
895.47	5464	
895.64	5464	
895.81	5464	
895.97	5464	
896.14	5464	
896.3	5464	
896.47	5464	
896.63	5464	
896.8	5464	
896.96	5464	
897.13	5464	
897.29	5464	
897.46	5464	
897.62	5464	
897.79	5464	
897.95	5464	
898.12	5464	
898.28	5464	
898.45	5464	
898.61	5464	
898.78	5464	
898.94	5464	
899.11	5464	
899.27	5464	
899.44	5464	
899.6	5464	
899.77	5464	
899.93	5464	
900.1	5464	
900.26	5464	
900.43	5464	
900.59	5464	
900.76	5464	
900.92	5464	
901.09	5464	
901.25	5464	
901.42	5464	
901.58	5464	
901.75	5464	
901.91	5464	
902.07	5464	
902.24	5464	
902.4	5464	
902.57	5464	
902.73	5464	
902.9	5464	
903.06	5464	
903.23	5464	
903.39	5464	
903.56	5464	
903.72	5464	
903.88	5464	
904.05	5464	
904.21	5464	
904.38	5464	
904.54	5464	
904.71	5464	
904.87	5464	
905.03	5464	
905.2	5464	
905.36	5464	
905.53	5464	
905.69	5464	
905.86	5464	
906.02	5464	
906.18	5464	
906.35	5464	
906.51	5464	
906.68	5464	
906.84	5464	
907.01	5464	
907.17	5464	
907.33	5464	
907.5	5464	
907.66	5464	
907.83	5464	
907.99	5464	
908.15	5464	
908.32	5464	
908.48	5464	
908.65	5464	
908.81	5464	
908.97	5464	
909.14	5464	
909.3	5464	
909.47	5464	
909.63	5464	
909.79	5464	
909.96	5464	
910.12	5464	
910.28	5464	
910.45	5464	
910.61	5464	
910.78	5464	
910.94	5464	
911.1	5464	
911.27	5464	
911.43	5464	
911.59	5464	
911.76	5464	
911.92	5464	
912.08	5464	
912.25	5464	
912.41	5464	
912.57	5464	
912.74	5464	
912.9	5464	
913.07	5464	
913.23	5464	
913.39	5464	
913.56	5464	
913.72	5464	
913.88	5464	
914.05	5464	
914.21	5464	
914.37	5464	
914.54	5464	
914.7	5464	
914.86	5464	
915.03	5464	
915.19	5464	
