Wavelength	Intensities	
nm	a.u.	
179.22	1745.2	
179.44	1736	
179.65	1754.4	
179.86	1717.6	
180.08	1747.6	
180.29	4177.9	
180.51	3118.4	
180.72	5126.7	
180.94	5844.9	
181.15	2861	
181.37	2827.6	
181.58	4953.4	
181.79	5157.5	
182.01	2938.2	
182.22	3124.5	
182.44	5209.3	
182.65	4439.3	
182.87	3898	
183.08	3454.9	
183.29	5424.4	
183.51	4556	
183.72	3166.2	
183.94	4439.3	
184.15	4894.6	
184.37	4840	
184.58	2778.4	
184.79	3680.2	
185.01	4596.3	
185.22	5187.5	
185.44	3917.8	
185.65	3334.1	
185.86	4849.6	
186.08	4511.7	
186.29	2796.8	
186.51	2972.3	
186.72	4648.9	
186.94	5367.7	
187.15	3416.7	
187.36	3422.8	
187.58	6592.4	
187.79	4983.4	
188.01	3544.4	
188.22	5361.6	
188.43	5874.3	
188.65	5194.3	
188.86	2977.1	
189.08	3470.6	
189.29	4718.5	
189.5	4743.8	
189.72	3179.8	
189.93	3267.9	
190.15	5279.7	
190.36	6180.1	
190.57	3411.2	
190.79	3358.7	
191	5380.7	
191.22	5361.6	
191.43	3503.4	
191.64	2940.2	
191.86	5481	
192.07	5367.7	
192.29	3061	
192.5	3184.6	
192.71	5328.8	
192.93	4667.3	
193.14	3139.5	
193.35	3302.7	
193.57	4712.4	
193.78	5276.9	
194	2620.7	
194.21	3153.9	
194.42	4485.7	
194.64	4871.4	
194.85	3405.8	
195.07	3979.2	
195.28	4904.2	
195.49	4312.3	
195.71	4106.2	
195.92	3026.9	
196.13	5095.3	
196.35	5050.3	
196.56	4336.9	
196.78	3436.5	
196.99	6191.7	
197.2	5791.7	
197.42	3826.3	
197.63	3447.4	
197.84	4473.4	
198.06	5123.3	
198.27	3229	
198.48	4143	
198.7	4742.4	
198.91	4868.7	
199.13	3493.2	
199.34	3487.7	
199.55	5263.3	
199.77	4292.5	
199.98	3080.1	
200.19	3509.5	
200.41	4829.1	
200.62	4571.1	
200.83	3637.9	
201.05	3865.2	
201.26	4874.2	
201.47	4637.3	
201.69	3094.5	
201.9	2998.9	
202.11	4868.7	
202.33	5696.8	
202.54	3282.2	
202.76	3644	
202.97	4913.1	
203.18	4972.5	
203.4	3573.7	
203.61	3526.6	
203.82	4937.7	
204.04	4571.7	
204.25	3502.7	
204.46	3436.5	
204.68	4905.6	
204.89	5119.9	
205.1	3390.1	
205.32	3022.1	
205.53	5207.3	
205.74	5337.7	
205.96	2579.1	
206.17	3521.1	
206.38	5124.7	
206.6	5301.5	
206.81	3876.1	
207.02	3223.5	
207.24	5117.9	
207.45	5358.2	
207.66	3351.2	
207.88	2892.4	
208.09	5114.5	
208.3	4902.2	
208.52	3076.7	
208.73	3365.5	
208.94	4913.8	
209.15	5474.9	
209.37	3280.8	
209.58	3752.6	
209.79	5346.6	
210.01	4711.7	
210.22	2719.7	
210.43	2805.7	
210.65	4913.1	
210.86	5208	
211.07	3303.4	
211.29	3061.7	
211.5	5130.2	
211.71	4838.7	
211.93	3082.9	
212.14	3083.6	
212.35	4820.2	
212.56	4939.7	
212.78	3481.5	
212.99	2927.9	
213.2	5658.5	
213.42	4700.1	
213.63	3201	
213.84	3385.3	
214.06	4392.9	
214.27	4499.4	
214.48	3323.2	
214.69	3476.8	
214.91	5436.7	
215.12	5470.8	
215.33	3554.6	
215.55	3803.8	
215.76	5883.8	
215.97	5132.9	
216.18	3396.9	
216.4	3372.3	
216.61	4572.4	
216.82	5298.1	
217.04	3121.8	
217.25	3265.1	
217.46	5373.9	
217.67	5220.3	
217.89	2769.5	
218.1	2897.9	
218.31	4926.7	
218.53	5025.7	
218.74	3232.4	
218.95	3162.7	
219.16	4863.2	
219.38	5568.4	
219.59	3130.7	
219.8	3678.8	
220.01	6075.6	
220.23	4968.4	
220.44	4028.4	
220.65	2994.8	
220.87	4960.2	
221.08	5408	
221.29	2947	
221.5	3718.4	
221.72	6440.2	
221.93	4671.4	
222.14	3530.7	
222.35	4042.7	
222.57	4922	
222.78	5218.9	
222.99	3309.5	
223.2	3523.2	
223.42	5156.8	
223.63	5219.6	
223.84	2602.3	
224.05	2649.4	
224.27	5973.2	
224.48	5547.9	
224.69	4059.1	
224.9	3541.6	
225.12	5010	
225.33	4887.1	
225.54	2812.5	
225.75	3145.7	
225.97	4570.4	
226.18	4807.3	
226.39	3382.6	
226.6	3155.9	
226.82	4699.4	
227.03	4609.3	
227.24	3441.3	
227.45	2922.5	
227.67	5238.7	
227.88	5639.4	
228.09	3871.3	
228.3	3894.6	
228.52	5174.5	
228.73	4846.9	
228.94	3248.1	
229.15	2892.4	
229.36	4863.9	
229.58	4848.9	
229.79	3188	
230	3761.4	
230.21	5756.2	
230.43	4964.3	
230.64	3457	
230.85	3535.5	
231.06	5294	
231.28	5218.2	
231.49	2856.9	
231.7	3409.2	
231.91	5229.8	
232.12	4929.5	
232.34	2994.1	
232.55	3376.4	
232.76	5379.3	
232.97	4975.2	
233.18	3105.4	
233.4	3450.1	
233.61	5081.7	
233.82	4713.1	
234.03	3214.6	
234.25	3164.8	
234.46	6590.4	
234.67	4891.9	
234.88	3590.1	
235.09	3089	
235.31	5089.2	
235.52	4823	
235.73	3403	
235.94	2967.5	
236.15	4663.9	
236.37	5777.3	
236.58	3086.3	
236.79	3338.2	
237	5207.3	
237.21	4457.7	
237.43	3549.8	
237.64	2833.7	
237.85	8264.9	
238.06	4548.5	
238.27	3564.1	
238.48	2985.3	
238.7	5213.4	
238.91	4783.4	
239.12	3300	
239.33	3357.3	
239.54	4572.4	
239.76	4799.1	
239.97	3293.8	
240.18	3323.9	
240.39	5951.4	
240.6	5109	
240.82	3469.3	
241.03	2859.6	
241.24	4851	
241.45	5558.9	
241.66	3046	
241.87	3610.6	
242.09	5479.7	
242.3	5706.3	
242.51	3585.3	
242.72	3357.3	
242.93	5219.6	
243.14	4869.4	
243.36	3827.7	
243.57	4109.6	
243.78	5513.8	
243.99	5150.6	
244.2	3353.2	
244.41	2987.3	
244.63	4551.3	
244.84	5126.7	
245.05	3498.6	
245.26	3259.7	
245.47	5130.8	
245.68	5332.2	
245.9	4330.8	
246.11	3515.7	
246.32	4685.1	
246.53	5090.6	
246.74	5167.7	
246.95	2806.4	
247.16	4552.6	
247.38	4950.6	
247.59	2885.6	
247.8	3299.3	
248.01	4604.5	
248.22	4872.8	
248.43	3063.8	
248.64	3302	
248.86	4455	
249.07	4701.5	
249.28	3014.6	
249.49	3432.4	
249.7	5332.9	
249.91	5347.9	
250.12	2861.7	
250.34	2940.2	
250.55	4989.5	
250.76	4854.4	
250.97	3465.2	
251.18	3460.4	
251.39	5402.5	
251.6	5098.1	
251.81	3508.9	
252.03	3480.9	
252.24	4702.1	
252.45	5246.9	
252.66	2971.6	
252.87	3635.1	
253.08	4899.4	
253.29	6165.1	
253.5	2929.3	
253.72	4045.4	
253.93	4794.3	
254.14	5728.2	
254.35	3224.2	
254.56	3242.6	
254.77	5134.9	
254.98	4526.7	
255.19	3167.5	
255.41	3963.5	
255.62	5057.1	
255.83	5392.3	
256.04	3585.3	
256.25	3414.6	
256.46	5857.2	
256.67	4613.4	
256.88	3442	
257.09	3761.4	
257.31	4601.8	
257.52	4588.8	
257.73	4283.7	
257.94	3208.5	
258.15	4769	
258.36	4881.7	
258.57	3903.4	
258.78	2590	
258.99	5248.3	
259.2	4741	
259.41	3248.1	
259.63	3265.8	
259.84	5574.6	
260.05	5874.3	
260.26	4136.2	
260.47	3130	
260.68	5341.1	
260.89	4771.1	
261.1	3821.5	
261.31	3051.5	
261.52	5464.7	
261.73	5662	
261.95	4085.7	
262.16	3549.1	
262.37	5494	
262.58	5530.9	
262.79	4076.1	
263	3255.6	
263.21	4923.3	
263.42	4742.4	
263.63	3315.7	
263.84	3273.3	
264.05	5319.3	
264.26	5635.3	
264.47	3952.6	
264.69	3504.1	
264.9	5535	
265.11	5029.1	
265.32	3133.4	
265.53	3192.8	
265.74	4980.7	
265.95	4402.5	
266.16	3424.2	
266.37	3737.5	
266.58	4988.9	
266.79	4687.1	
267	3167.5	
267.21	2991.4	
267.42	4547.9	
267.63	4885.8	
267.84	3338.9	
268.06	2913.6	
268.27	5237.3	
268.48	5482.4	
268.69	3263.1	
268.9	3785.3	
269.11	5466.7	
269.32	4433.9	
269.53	3339.6	
269.74	3093.1	
269.95	5083.7	
270.16	4403.1	
270.37	3384.6	
270.58	3831.7	
270.79	4720.6	
271	5306.3	
271.21	3539.6	
271.42	3383.9	
271.63	5005.2	
271.84	4543.1	
272.05	2756.6	
272.26	3026.9	
272.47	4952.7	
272.68	4992.9	
272.89	3256.3	
273.11	3688.4	
273.32	4740.4	
273.53	5667.4	
273.74	3603.1	
273.95	3512.9	
274.16	5334.3	
274.37	4929.5	
274.58	3587.4	
274.79	2995.5	
275	5063.3	
275.21	5421	
275.42	4296	
275.63	3751.9	
275.84	5129.5	
276.05	6212.9	
276.26	3468.6	
276.47	3261	
276.68	4780.6	
276.89	5726.1	
277.1	3723.9	
277.31	2972.3	
277.52	5079.6	
277.73	5291.3	
277.94	2889.7	
278.15	3235.1	
278.36	5082.4	
278.57	4629.1	
278.78	3177.8	
278.99	3614.7	
279.2	4645.5	
279.41	4587.4	
279.62	4158.7	
279.83	3024.8	
280.04	5838.8	
280.25	4543.8	
280.46	4089.1	
280.67	3368.9	
280.88	4629.8	
281.09	5453.7	
281.3	3465.8	
281.51	4377.2	
281.72	4680.3	
281.93	5221.6	
282.14	3135.4	
282.35	3438.5	
282.56	5329.5	
282.77	5229.1	
282.98	3235.8	
283.19	3913	
283.4	6320	
283.61	4788.2	
283.82	2979.8	
284.03	4123.2	
284.24	5030.5	
284.45	5356.8	
284.66	4109.6	
284.87	3877.5	
285.08	5378.6	
285.29	5448.3	
285.5	2932	
285.71	3267.2	
285.92	5367	
286.12	5900.2	
286.33	4052.2	
286.54	3319.1	
286.75	5235.3	
286.96	4788.2	
287.17	3031	
287.38	3957.4	
287.59	4657.1	
287.8	4611.3	
288.01	3293.1	
288.22	3706.1	
288.43	5204.6	
288.64	4459.8	
288.85	3852.9	
289.06	3655.6	
289.27	5301.5	
289.48	5571.2	
289.69	4077.5	
289.9	3735.5	
290.11	5381.4	
290.32	4709	
290.53	3874.8	
290.74	3592.8	
290.94	5226.4	
291.15	5321.3	
291.36	3139.5	
291.57	3670.6	
291.78	4749.9	
291.99	4439.3	
292.2	3009.8	
292.41	3604.4	
292.62	5327.4	
292.83	5146.5	
293.04	4418.2	
293.25	3108.8	
293.46	4761.5	
293.67	5376.6	
293.88	3138.9	
294.09	3049.4	
294.29	4601.1	
294.5	5003.2	
294.71	3377.1	
294.92	3233.7	
295.13	4761.5	
295.34	5810.8	
295.55	2856.2	
295.76	2805	
295.97	5216.2	
296.18	5777.3	
296.39	3023.5	
296.6	3181.9	
296.81	4952.7	
297.01	5261.2	
297.22	3300.6	
297.43	3188.7	
297.64	4711.7	
297.85	4633.2	
298.06	2684.9	
298.27	2852.1	
298.48	4868	
298.69	4716.5	
298.9	3398.3	
299.11	3078.1	
299.31	4567	
299.52	4572.4	
299.73	3674.1	
299.94	3551.2	
300.15	4942.4	
300.36	4657.8	
300.57	3577.8	
300.78	3531.4	
300.99	4795.7	
301.2	4938.3	
301.4	3134.8	
301.61	3398.9	
301.82	5198.4	
302.03	5259.2	
302.24	3730.7	
302.45	3022.8	
302.66	5082.4	
302.87	5412.1	
303.08	3097.9	
303.29	4219.5	
303.49	4774.5	
303.7	4904.9	
303.91	2845.3	
304.12	3988.1	
304.33	4457.1	
304.54	5027.1	
304.75	3183.2	
304.96	3053.5	
305.16	5155.4	
305.37	5785.5	
305.58	2794.1	
305.79	2903.3	
306	5152	
306.21	4427	
306.42	3062.4	
306.63	4665.3	
306.83	4758.1	
307.04	5307.7	
307.25	3439.9	
307.46	3443.3	
307.67	4311	
307.88	5238.7	
308.09	3149.1	
308.29	3187.3	
308.5	4947.9	
308.71	5411.4	
308.92	3370.3	
309.13	3038.5	
309.34	4844.8	
309.55	4800.4	
309.75	3875.4	
309.96	3561.4	
310.17	5193	
310.38	4698.7	
310.59	3717.1	
310.8	2949.1	
311.01	5669.5	
311.21	4864.6	
311.42	3061.7	
311.63	3106.8	
311.84	4764.3	
312.05	5009.3	
312.26	3518.4	
312.46	3844.7	
312.67	4795	
312.88	4536.3	
313.09	3063.8	
313.3	3032.4	
313.51	5535	
313.71	5846.3	
313.92	3069.9	
314.13	3177.1	
314.34	5076.9	
314.55	4851	
314.76	3822.2	
314.96	3385.3	
315.17	5016.2	
315.38	5184.8	
315.59	3093.8	
315.8	2934.7	
316.01	5558.2	
316.21	5665.4	
316.42	2978.4	
316.63	3355.9	
316.84	4763.6	
317.05	5455.8	
317.26	3603.1	
317.46	3232.4	
317.67	4849.6	
317.88	5264.6	
318.09	3842.7	
318.3	2885.6	
318.5	4719.2	
318.71	5168.4	
318.92	4751.3	
319.13	3532.7	
319.34	5291.3	
319.54	5421	
319.75	2880.1	
319.96	2775	
320.17	5180.7	
320.38	5361.6	
320.58	2865.8	
320.79	3351.8	
321	5402.5	
321.21	5440.8	
321.42	3355.9	
321.62	2828.9	
321.83	4638.6	
322.04	4909	
322.25	3305.4	
322.46	3069.9	
322.66	4985.4	
322.87	5144.5	
323.08	3672.7	
323.29	2940.2	
323.5	5756.2	
323.7	4529.4	
323.91	4100.7	
324.12	3733.4	
324.33	4967.7	
324.53	5165.7	
324.74	3564.8	
324.95	3706.8	
325.16	4478.9	
325.37	4771.1	
325.57	3062.4	
325.78	3123.2	
325.99	4972.5	
326.2	4504.8	
326.4	4375.1	
326.61	2848	
326.82	4807.3	
327.03	4941.1	
327.24	4207.2	
327.44	3990.8	
327.65	5169.8	
327.86	4254.3	
328.07	3558	
328.27	2984.6	
328.48	5423	
328.69	4521.2	
328.9	4332.1	
329.1	3188	
329.31	4814.8	
329.52	5541.8	
329.73	3100.6	
329.93	3399.6	
330.14	4968.4	
330.35	5085.1	
330.56	4872.8	
330.76	3640.6	
330.97	4775.9	
331.18	5010	
331.39	3420.8	
331.59	2804.4	
331.8	5347.9	
332.01	5418.9	
332.22	3219.4	
332.42	3556	
332.63	4986.1	
332.84	4636.6	
333.05	3395.5	
333.25	3165.5	
333.46	4688.5	
333.67	4915.1	
333.88	3216.7	
334.08	3517	
334.29	6362.4	
334.5	5446.2	
334.7	3024.2	
334.91	4266.6	
335.12	4526	
335.33	5255.1	
335.53	3378.5	
335.74	4883	
335.95	4804.5	
336.16	4584.7	
336.36	3364.1	
336.57	3854.3	
336.78	4569.7	
336.98	5397.1	
337.19	4102.1	
337.4	3305.4	
337.61	5788.2	
337.81	4511.7	
338.02	3169.6	
338.23	3908.2	
338.43	5574.6	
338.64	4601.8	
338.85	3093.1	
339.05	3988.1	
339.26	5611.4	
339.47	4457.7	
339.68	3100.6	
339.88	4371.7	
340.09	5135.6	
340.3	5286.5	
340.5	3601.7	
340.71	2850.8	
340.92	4559.5	
341.13	5476.3	
341.33	2963.4	
341.54	3556.6	
341.75	5098.1	
341.95	4811.4	
342.16	3415.3	
342.37	3728	
342.57	4562.2	
342.78	4872.1	
342.99	3791.5	
343.19	2845.3	
343.4	5240.8	
343.61	5129.5	
343.81	3265.1	
344.02	3028.9	
344.23	5264	
344.43	5559.6	
344.64	3753.9	
344.85	3690.4	
345.06	5158.2	
345.26	5444.2	
345.47	3525.9	
345.68	4072	
345.88	4437.9	
346.09	5316.5	
346.3	3657.7	
346.5	2777.7	
346.71	4915.1	
346.92	4695.3	
347.12	2910.8	
347.33	3545	
347.54	5372.5	
347.74	5682.4	
347.95	3517	
348.16	2684.9	
348.36	4799.1	
348.57	4605.9	
348.78	3538.2	
348.98	3743.7	
349.19	4891.2	
349.39	4479.6	
349.6	2968.9	
349.81	3128.6	
350.01	5241.4	
350.22	4682.3	
350.43	3444	
350.63	4096.6	
350.84	4946.5	
351.05	4789.5	
351.25	3188.7	
351.46	2938.8	
351.67	5405.3	
351.87	4693.9	
352.08	3341.6	
352.29	3802.4	
352.49	5352	
352.7	5421	
352.9	3102	
353.11	3745.7	
353.32	5881.8	
353.52	4888.5	
353.73	3095.2	
353.94	3838.6	
354.14	5223.7	
354.35	5109.7	
354.55	3207.8	
354.76	3512.9	
354.97	5268.7	
355.17	4987.5	
355.38	3049.4	
355.59	4033.8	
355.79	4780	
356	5100.1	
356.2	3553.9	
356.41	3175	
356.62	4635.9	
356.82	5057.8	
357.03	3764.8	
357.24	3433.1	
357.44	4818.9	
357.65	4919.9	
357.85	4470	
358.06	3605.1	
358.27	4652.3	
358.47	4808.6	
358.68	3073.3	
358.88	3781.9	
359.09	5358.2	
359.3	5594.4	
359.5	4371	
359.71	4029	
359.91	6052.4	
360.12	5452.4	
360.33	3893.2	
360.53	4322.6	
360.74	5003.2	
360.94	5022.3	
361.15	4028.4	
361.36	3459	
361.56	5648.3	
361.77	5228.5	
361.97	4484.4	
362.18	3653.6	
362.38	5636.7	
362.59	4851.6	
362.8	3515.7	
363	3321.8	
363.21	4786.8	
363.41	5313.1	
363.62	3861.8	
363.83	4730.1	
364.03	5452.4	
364.24	6085.9	
364.44	4747.9	
364.65	4752	
364.85	5241.4	
365.06	4942.4	
365.27	3588	
365.47	3673.4	
365.68	6009.4	
365.88	5296	
366.09	3936.9	
366.29	3765.5	
366.5	5399.8	
366.71	5799.8	
366.91	4840	
367.12	4181.3	
367.32	6348.7	
367.53	5685.2	
367.73	4149.9	
367.94	4943.8	
368.14	5728.9	
368.35	6442.2	
368.56	4131.4	
368.76	3614	
368.97	5789.6	
369.17	7068.9	
369.38	3672.7	
369.58	3941.7	
369.79	4995	
369.99	6051.1	
370.2	4724	
370.4	4028.4	
370.61	5496.7	
370.82	6503	
371.02	3951.9	
371.23	3383.9	
371.43	4929.5	
371.64	6035.4	
371.84	4006.5	
372.05	4941.7	
372.25	7111.2	
372.46	5859.2	
372.66	4095.9	
372.87	4061.8	
373.07	5943.9	
373.28	7284.6	
373.48	4924.7	
373.69	4724	
373.9	5551.4	
374.1	5638.7	
374.31	4900.8	
374.51	4545.8	
374.72	6315.3	
374.92	5423.7	
375.13	5191.6	
375.33	4457.7	
375.54	6043.6	
375.74	5589.6	
375.95	4582.7	
376.15	5573.2	
376.36	6146.6	
376.56	6034	
376.77	4676.2	
376.97	5036.6	
377.18	7043.6	
377.38	6262.7	
377.59	5338.4	
377.79	4371.7	
378	6227.2	
378.2	6520.7	
378.41	4533.5	
378.61	4483	
378.82	6618.4	
379.02	5958.9	
379.23	4712.4	
379.43	5491.3	
379.64	6711.9	
379.84	6389.7	
380.05	4504.8	
380.25	4460.5	
380.46	6380.8	
380.66	6055.8	
380.87	5615.5	
381.07	5816.2	
381.28	6896.2	
381.48	6339.8	
381.69	4448.9	
381.89	4584.7	
382.1	5539.1	
382.3	6503	
382.51	5343.2	
382.71	6042.2	
382.91	6287.3	
383.12	6821.8	
383.32	4779.3	
383.53	4830.5	
383.73	6120	
383.94	6088.6	
384.14	4878.9	
384.35	4141	
384.55	5871.5	
384.76	6324.8	
384.96	4723.3	
385.17	4851	
385.37	6332.3	
385.58	5559.6	
385.78	4821.6	
385.98	3981.9	
386.19	5819	
386.39	6158.2	
386.6	4425.7	
386.8	4595	
387.01	6234	
387.21	6288.6	
387.42	5019.6	
387.62	5466	
387.83	5786.9	
388.03	6236.7	
388.23	4827.7	
388.44	5443.5	
388.64	5654.4	
388.85	5807.4	
389.05	5134.3	
389.26	5582.8	
389.46	7428	
389.67	6943.3	
389.87	5304.9	
390.07	5231.9	
390.28	6272.9	
390.48	5948	
390.69	4736.3	
390.89	4914.4	
391.1	6058.6	
391.3	6731	
391.5	5831.2	
391.71	6276.3	
391.91	6708.5	
392.12	7360.4	
392.32	5932.3	
392.53	5316.5	
392.73	6181.5	
392.93	6361	
393.14	5039.4	
393.34	5879	
393.55	6504.3	
393.75	6085.9	
393.95	4857.8	
394.16	4847.5	
394.36	6044.2	
394.57	6386.9	
394.77	4420.2	
394.98	4769	
395.18	6026.5	
395.38	6085.9	
395.59	5643.5	
395.79	4900.1	
396	6283.9	
396.2	6704.4	
396.4	5595.1	
396.61	5580.7	
396.81	6935.1	
397.02	6330.3	
397.22	5853.1	
397.42	5960.3	
397.63	6954.2	
397.83	6423.1	
398.04	5057.8	
398.24	5526.8	
398.44	6731.7	
398.65	6445.6	
398.85	5004.6	
399.05	5020.3	
399.26	6473.6	
399.46	7737.9	
399.67	5388.9	
399.87	5199.1	
400.07	6777.4	
400.28	6982.2	
400.48	5344.5	
400.69	6239.5	
400.89	7317.4	
401.09	7701	
401.3	5343.2	
401.5	6176	
401.7	7943.4	
401.91	8151.6	
402.11	5748.6	
402.32	5822.4	
402.52	7444.4	
402.72	7262.8	
402.93	5941.8	
403.13	4970.4	
403.33	7802.8	
403.54	6507.1	
403.74	5311.1	
403.94	5924.8	
404.15	6434	
404.35	7358.4	
404.56	5090.6	
404.76	6487.3	
404.96	6944.7	
405.17	6792.4	
405.37	6466.1	
405.57	5750	
405.78	7296.2	
405.98	6797.2	
406.18	5537	
406.39	6130.3	
406.59	7217	
406.79	6842.3	
407	5113.8	
407.2	5133.6	
407.4	7082.6	
407.61	7197.9	
407.81	5311.7	
408.01	6998.6	
408.22	6380.8	
408.42	8134.5	
408.62	6571.9	
408.83	6199.9	
409.03	7414.3	
409.23	7382.2	
409.44	6488	
409.64	6698.2	
409.84	8464.9	
410.05	8370	
410.25	6871.6	
410.45	6617	
410.66	8195.3	
410.86	10108	
411.06	7225.9	
411.27	7033.4	
411.47	10172	
411.67	8394.6	
411.88	7260	
412.08	7714	
412.28	9030.9	
412.49	9398.1	
412.69	7365.9	
412.89	7400	
413.09	9301.9	
413.3	9336.7	
413.5	7507.9	
413.7	7290.1	
413.91	8626	
414.11	9385.8	
414.31	7429.3	
414.52	7925	
414.72	9114.8	
414.92	9322.4	
415.12	7430	
415.33	7900.4	
415.53	9605	
415.73	9664.4	
415.94	8222.6	
416.14	7679.2	
416.34	8903.2	
416.55	8499.8	
416.75	8615.8	
416.95	8290.9	
417.15	9780.4	
417.36	10087	
417.56	9071.8	
417.76	8291.5	
417.97	10079	
418.17	9839.8	
418.37	7929.7	
418.57	8094.3	
418.78	9818	
418.98	9375.6	
419.18	8768	
419.38	8673.8	
419.59	9338.7	
419.79	8994	
419.99	7757	
420.2	7946.8	
420.4	9672.6	
420.6	9632.3	
420.8	7690.1	
421.01	7651.9	
421.21	9729.9	
421.41	9850.7	
421.61	8107.9	
421.82	7948.8	
422.02	9338.7	
422.22	10003	
422.42	8634.2	
422.63	7937.9	
422.83	9185.8	
423.03	10216	
423.23	8013.7	
423.44	7277.8	
423.64	9300.5	
423.84	8942.8	
424.04	7671	
424.25	7374.1	
424.45	9762	
424.65	9752.4	
424.85	7095.5	
425.06	7572.7	
425.26	9923.1	
425.46	9021.3	
425.66	7933.1	
425.87	7718.1	
426.07	9555.8	
426.27	9469.1	
426.47	7839.6	
426.67	7154.2	
426.88	9753.8	
427.08	9249.3	
427.28	8056	
427.48	7145.4	
427.69	8479.3	
427.89	8870.4	
428.09	7883.3	
428.29	7134.4	
428.5	9396.1	
428.7	9108.7	
428.9	7134.4	
429.1	7479.2	
429.3	9050.7	
429.51	9371.5	
429.71	7311.9	
429.91	8071.7	
430.11	9583.8	
430.31	9756.5	
430.52	7821.2	
430.72	8165.9	
430.92	9981.1	
431.12	9518.3	
431.32	7573.4	
431.53	7753.6	
431.73	8654.7	
431.93	9889.6	
432.13	7316.7	
432.33	7305.1	
432.54	9060.2	
432.74	9336.7	
432.94	7365.2	
433.14	8146.8	
433.34	9579	
433.55	9417.2	
433.75	8276.5	
433.95	9764.7	
434.15	9588.6	
434.35	9370.8	
434.56	7570.7	
434.76	7438.2	
434.96	9500.5	
435.16	9830.9	
435.36	7605.5	
435.56	8611	
435.77	9400.9	
435.97	9544.2	
436.17	9219.3	
436.37	8583.7	
436.57	9321.7	
436.78	9437.7	
436.98	9884.9	
437.18	9166.7	
437.38	10069	
437.58	9536.7	
437.78	9151	
437.99	8112	
438.19	9785.2	
438.39	11030	
438.59	7948.2	
438.79	7438.2	
438.99	10225	
439.2	9230.9	
439.4	7337.9	
439.6	7392.5	
439.8	9460.9	
440	10465	
440.2	8504.5	
440.4	8655.4	
440.61	10260	
440.81	10842	
441.01	8236.9	
441.21	9015.8	
441.41	10944	
441.61	10455	
441.81	9402.9	
442.02	10129	
442.22	11151	
442.42	10436	
442.62	8305.2	
442.82	8199.4	
443.02	10768	
443.22	10107	
443.43	8757.8	
443.63	8349.6	
443.83	9858.9	
444.03	9968.8	
444.23	9541.5	
444.43	9107.3	
444.63	10472	
444.83	11341	
445.04	8722.3	
445.24	9622	
445.44	10617	
445.64	10718	
445.84	9038.4	
446.04	9164.7	
446.24	9937.4	
446.44	10739	
446.65	8224	
446.85	8641.1	
447.05	9889.6	
447.25	10608	
447.45	8550.3	
447.65	8124.3	
447.85	10046	
448.05	9596.1	
448.25	8955.8	
448.46	8823.3	
448.66	10204	
448.86	9708.1	
449.06	8003.5	
449.26	8879.3	
449.46	10505	
449.66	9580.4	
449.86	8755.7	
450.06	8771.5	
450.26	9936.1	
450.47	10314	
450.67	8748.2	
450.87	9080.7	
451.07	10415	
451.27	10327	
451.47	8340	
451.67	8764.6	
451.87	9989.3	
452.07	10813	
452.27	8573.5	
452.47	8484.7	
452.67	10225	
452.88	10532	
453.08	8001.4	
453.28	9686.9	
453.48	11247	
453.68	9929.9	
453.88	8522.3	
454.08	8570.7	
454.28	10643	
454.48	10226	
454.68	9043.8	
454.88	9507.4	
455.08	10682	
455.28	10708	
455.48	8334.6	
455.68	9080.7	
455.89	11180	
456.09	10967	
456.29	8789.9	
456.49	9035	
456.69	11269	
456.89	10415	
457.09	9357.9	
457.29	9867.1	
457.49	10897	
457.69	11151	
457.89	9557.9	
458.09	8977.6	
458.29	11015	
458.49	11624	
458.69	9923.8	
458.89	9534	
459.09	12003	
459.29	11878	
459.49	9592.7	
459.69	10305	
459.9	11463	
460.1	11217	
460.3	9266.4	
460.5	9168.8	
460.7	11396	
460.9	11085	
461.1	8905.3	
461.3	10104	
461.5	12131	
461.7	11784	
461.9	9752.4	
462.1	9919	
462.3	11559	
462.5	11910	
462.7	9634.3	
462.9	9904	
463.1	12975	
463.3	12835	
463.5	10125	
463.7	11096	
463.9	11970	
464.1	12334	
464.3	10613	
464.5	10441	
464.7	12613	
464.9	12446	
465.1	11842	
465.3	11061	
465.5	12791	
465.7	12942	
465.9	11318	
466.1	10865	
466.3	13012	
466.5	12537	
466.7	12042	
466.9	10849	
467.1	12755	
467.3	13386	
467.5	12081	
467.7	11079	
467.9	13670	
468.1	14476	
468.3	11683	
468.5	12125	
468.7	12882	
468.9	12755	
469.1	11525	
469.3	12237	
469.5	14528	
469.7	12730	
469.9	11785	
470.1	11316	
470.3	13078	
470.5	12992	
470.7	12385	
470.9	11221	
471.1	12861	
471.3	12860	
471.5	11166	
471.69	12611	
471.89	12479	
472.09	12062	
472.29	11901	
472.49	11770	
472.69	12432	
472.89	12934	
473.09	11084	
473.29	10900	
473.49	12510	
473.69	12341	
473.89	11696	
474.09	11067	
474.29	13408	
474.49	13055	
474.69	11725	
474.89	11109	
475.09	12482	
475.29	12454	
475.49	10611	
475.69	10917	
475.88	13414	
476.08	12693	
476.28	10590	
476.48	10787	
476.68	12824	
476.88	12628	
477.08	10630	
477.28	10978	
477.48	12050	
477.68	12590	
477.88	10440	
478.08	10634	
478.28	12996	
478.48	12224	
478.67	10815	
478.87	10199	
479.07	13009	
479.27	12301	
479.47	10781	
479.67	10907	
479.87	12704	
480.07	13087	
480.27	10321	
480.47	11587	
480.67	12398	
480.87	13071	
481.06	10581	
481.26	11329	
481.46	12574	
481.66	12283	
481.86	10984	
482.06	11644	
482.26	12013	
482.46	12943	
482.66	10712	
482.86	10408	
483.05	12469	
483.25	12010	
483.45	12814	
483.65	10776	
483.85	12144	
484.05	12392	
484.25	11293	
484.45	11744	
484.65	13031	
484.84	13362	
485.04	10892	
485.24	11029	
485.44	13500	
485.64	12085	
485.84	10491	
486.04	11716	
486.24	12426	
486.44	12707	
486.63	10495	
486.83	11239	
487.03	12489	
487.23	12803	
487.43	10645	
487.63	12609	
487.83	12870	
488.02	13687	
488.22	11594	
488.42	12157	
488.62	13479	
488.82	12699	
489.02	11252	
489.22	11401	
489.41	13394	
489.61	13263	
489.81	11101	
490.01	11189	
490.21	13362	
490.41	13950	
490.61	11246	
490.8	11216	
491	13201	
491.2	12524	
491.4	11624	
491.6	10984	
491.8	12797	
491.99	12828	
492.19	10601	
492.39	10835	
492.59	13106	
492.79	13384	
492.99	11664	
493.18	11098	
493.38	13579	
493.58	14422	
493.78	11907	
493.98	11599	
494.18	13564	
494.37	13347	
494.57	12383	
494.77	12172	
494.97	13992	
495.17	14154	
495.37	12208	
495.56	12427	
495.76	14648	
495.96	14362	
496.16	13210	
496.36	12543	
496.55	14748	
496.75	14286	
496.95	12790	
497.15	12620	
497.35	14557	
497.54	14456	
497.74	12410	
497.94	13740	
498.14	15015	
498.34	14884	
498.53	12443	
498.73	12944	
498.93	14167	
499.13	14605	
499.33	12926	
499.52	13157	
499.72	14844	
499.92	14812	
500.12	12795	
500.32	12955	
500.51	14958	
500.71	14904	
500.91	13662	
501.11	13335	
501.31	14920	
501.5	15236	
501.7	13883	
501.9	13059	
502.1	14605	
502.29	14935	
502.49	13477	
502.69	13676	
502.89	14816	
503.09	15109	
503.28	12313	
503.48	12499	
503.68	14039	
503.88	14110	
504.07	13201	
504.27	12660	
504.47	14342	
504.67	14385	
504.86	13132	
505.06	12790	
505.26	14082	
505.46	15270	
505.65	12650	
505.85	12687	
506.05	13818	
506.25	14215	
506.44	11801	
506.64	12560	
506.84	13588	
507.04	14083	
507.23	11986	
507.43	12390	
507.63	14907	
507.83	13653	
508.02	12430	
508.22	12088	
508.42	15319	
508.62	13416	
508.81	12144	
509.01	12745	
509.21	13196	
509.4	13524	
509.6	12251	
509.8	11744	
510	13393	
510.19	14543	
510.39	11804	
510.59	11894	
510.79	13432	
510.98	14579	
511.18	12180	
511.38	12157	
511.57	14104	
511.77	13876	
511.97	12420	
512.17	11678	
512.36	14048	
512.56	13849	
512.76	11619	
512.95	11374	
513.15	14055	
513.35	12777	
513.55	12419	
513.74	11706	
513.94	13790	
514.14	13455	
514.33	12464	
514.53	12468	
514.73	13493	
514.92	13705	
515.12	11938	
515.32	11736	
515.51	13660	
515.71	14046	
515.91	13387	
516.11	11839	
516.3	15003	
516.5	13402	
516.7	12239	
516.89	12762	
517.09	13523	
517.29	13512	
517.48	12469	
517.68	11981	
517.88	13362	
518.07	13915	
518.27	12415	
518.47	11630	
518.66	14204	
518.86	13124	
519.06	11502	
519.25	11951	
519.45	13435	
519.65	14689	
519.84	12479	
520.04	13053	
520.24	15049	
520.43	13921	
520.63	12273	
520.83	11974	
521.02	13236	
521.22	13644	
521.42	12170	
521.61	12657	
521.81	13244	
522.01	13329	
522.2	12022	
522.4	11891	
522.6	13867	
522.79	12891	
522.99	12045	
523.18	11650	
523.38	13684	
523.58	13805	
523.77	13274	
523.97	11891	
524.17	15418	
524.36	14878	
524.56	12985	
524.76	12893	
524.95	14218	
525.15	13814	
525.34	12690	
525.54	12744	
525.74	14661	
525.93	13926	
526.13	14043	
526.33	13016	
526.52	15041	
526.72	14622	
526.91	13906	
527.11	13356	
527.31	15107	
527.5	15373	
527.7	13362	
527.89	12644	
528.09	14345	
528.29	14990	
528.48	13670	
528.68	13292	
528.87	15096	
529.07	14976	
529.27	13343	
529.46	13012	
529.66	14888	
529.85	15337	
530.05	13099	
530.25	13665	
530.44	16152	
530.64	14669	
530.83	13115	
531.03	13393	
531.23	15208	
531.42	14861	
531.62	13896	
531.81	13398	
532.01	15397	
532.21	15730	
532.4	13466	
532.6	13803	
532.79	16157	
532.99	15758	
533.18	14100	
533.38	14801	
533.58	15461	
533.77	16038	
533.97	14199	
534.16	14767	
534.36	16350	
534.55	15618	
534.75	14970	
534.95	14319	
535.14	16563	
535.34	15597	
535.53	14030	
535.73	15532	
535.92	16800	
536.12	15634	
536.31	13825	
536.51	14864	
536.71	15848	
536.9	15502	
537.1	13872	
537.29	13935	
537.49	16049	
537.68	15229	
537.88	14363	
538.07	13680	
538.27	15672	
538.46	16494	
538.66	13786	
538.86	14099	
539.05	15748	
539.25	16055	
539.44	14572	
539.64	14021	
539.83	15537	
540.03	16492	
540.22	13674	
540.42	13859	
540.61	15513	
540.81	15770	
541	13955	
541.2	14715	
541.39	15225	
541.59	15496	
541.78	14479	
541.98	13676	
542.18	14903	
542.37	14990	
542.57	13809	
542.76	14309	
542.96	14836	
543.15	15255	
543.35	13741	
543.54	13182	
543.74	15340	
543.93	15086	
544.13	13367	
544.32	14297	
544.52	15131	
544.71	14475	
544.91	12614	
545.1	13643	
545.3	14481	
545.49	15089	
545.69	12678	
545.88	13205	
546.08	15969	
546.27	15346	
546.47	13473	
546.66	12936	
546.86	15133	
547.05	15508	
547.24	13010	
547.44	12972	
547.63	14301	
547.83	15175	
548.02	13359	
548.22	13317	
548.41	14106	
548.61	15192	
548.8	12777	
549	12844	
549.19	14580	
549.39	14757	
549.58	12495	
549.78	13012	
549.97	14849	
550.17	14376	
550.36	13505	
550.55	14251	
550.75	14242	
550.94	14984	
551.14	12450	
551.33	12682	
551.53	13751	
551.72	14413	
551.92	12813	
552.11	12622	
552.31	14594	
552.5	14394	
552.69	13916	
552.89	12209	
553.08	14497	
553.28	14167	
553.47	12504	
553.67	13392	
553.86	14937	
554.06	13429	
554.25	11726	
554.44	12207	
554.64	15507	
554.83	15074	
555.03	12128	
555.22	12598	
555.42	14373	
555.61	14240	
555.8	12304	
556	12487	
556.19	13525	
556.39	14311	
556.58	12264	
556.78	12316	
556.97	14033	
557.16	13852	
557.36	13220	
557.55	11929	
557.75	13218	
557.94	14886	
558.13	12043	
558.33	11853	
558.52	14438	
558.72	13577	
558.91	11973	
559.1	12097	
559.3	13310	
559.49	12973	
559.69	11466	
559.88	12367	
560.07	13745	
560.27	14262	
560.46	12405	
560.66	12589	
560.85	13719	
561.04	12958	
561.24	11647	
561.43	11796	
561.63	13190	
561.82	13304	
562.01	12720	
562.21	12054	
562.4	13647	
562.59	14449	
562.79	11855	
562.98	11656	
563.18	13627	
563.37	14955	
563.56	12407	
563.76	11815	
563.95	13308	
564.14	13366	
564.34	12131	
564.53	11968	
564.73	13788	
564.92	13992	
565.11	12200	
565.31	11851	
565.5	14219	
565.69	13265	
565.89	12119	
566.08	12226	
566.27	14072	
566.47	14592	
566.66	12740	
566.85	11643	
567.05	13889	
567.24	13327	
567.44	11955	
567.63	13001	
567.82	13964	
568.02	13626	
568.21	11908	
568.4	12198	
568.6	13805	
568.79	13725	
568.98	11820	
569.18	12019	
569.37	13678	
569.56	15448	
569.76	12290	
569.95	12963	
570.14	14021	
570.34	14095	
570.53	11891	
570.72	11938	
570.91	14360	
571.11	13658	
571.3	12183	
571.49	12942	
571.69	13882	
571.88	13369	
572.07	12707	
572.27	12674	
572.46	13411	
572.65	14155	
572.85	12072	
573.04	12472	
573.23	14470	
573.43	13868	
573.62	12019	
573.81	12521	
574	14025	
574.2	13747	
574.39	12378	
574.58	12354	
574.78	14887	
574.97	14235	
575.16	12885	
575.36	12989	
575.55	14650	
575.74	14683	
575.93	12127	
576.13	13123	
576.32	14047	
576.51	14512	
576.71	12562	
576.9	13622	
577.09	14883	
577.28	14446	
577.48	12832	
577.67	12178	
577.86	14248	
578.05	14459	
578.25	12675	
578.44	12747	
578.63	14317	
578.83	15152	
579.02	12309	
579.21	13554	
579.4	14434	
579.6	14237	
579.79	12835	
579.98	14615	
580.17	14725	
580.37	14826	
580.56	12371	
580.75	13110	
580.94	15149	
581.14	14939	
581.33	13447	
581.52	12530	
581.71	14752	
581.91	15256	
582.1	12289	
582.29	12693	
582.48	14303	
582.68	14452	
582.87	13224	
583.06	12897	
583.25	14651	
583.45	14088	
583.64	13431	
583.83	14005	
584.02	14331	
584.21	14672	
584.41	13493	
584.6	12845	
584.79	14503	
584.98	15003	
585.18	12485	
585.37	12482	
585.56	13982	
585.75	14618	
585.94	12467	
586.14	13080	
586.33	14983	
586.52	14371	
586.71	12970	
586.91	12622	
587.1	13650	
587.29	14438	
587.48	12385	
587.67	12386	
587.87	14282	
588.06	14142	
588.25	13409	
588.44	12649	
588.63	13909	
588.83	14378	
589.02	12277	
589.21	12138	
589.4	13586	
589.59	13446	
589.78	11129	
589.98	11311	
590.17	12627	
590.36	13015	
590.55	10369	
590.74	10944	
590.94	13680	
591.13	12570	
591.32	10814	
591.51	10398	
591.7	12942	
591.89	12624	
592.09	10552	
592.28	11026	
592.47	12121	
592.66	13790	
592.85	10640	
593.05	10914	
593.24	12542	
593.43	13401	
593.62	10879	
593.81	11301	
594	12663	
594.19	12829	
594.39	10788	
594.58	10887	
594.77	12903	
594.96	13449	
595.15	10703	
595.34	11274	
595.54	12831	
595.73	12129	
595.92	10049	
596.11	10948	
596.3	13110	
596.49	12155	
596.68	10718	
596.88	11100	
597.07	12867	
597.26	12020	
597.45	10395	
597.64	11400	
597.83	12099	
598.02	12775	
598.22	10561	
598.41	11081	
598.6	12544	
598.79	12103	
598.98	10485	
599.17	11307	
599.36	12512	
599.55	13317	
599.74	12142	
599.94	11867	
600.13	13039	
600.32	11985	
600.51	10340	
600.7	10419	
600.89	13482	
601.08	13409	
601.27	10277	
601.47	11038	
601.66	12884	
601.85	13398	
602.04	10859	
602.23	11011	
602.42	12035	
602.61	12611	
602.8	10616	
602.99	10436	
603.18	12331	
603.37	12511	
603.57	10912	
603.76	11439	
603.95	13136	
604.14	12688	
604.33	10529	
604.52	10841	
604.71	12510	
604.9	12000	
605.09	11260	
605.28	11127	
605.47	13017	
605.66	12664	
605.86	11093	
606.05	10583	
606.24	12983	
606.43	11835	
606.62	10753	
606.81	11389	
607	12707	
607.19	12245	
607.38	10336	
607.57	10357	
607.76	12076	
607.95	11596	
608.14	10784	
608.33	11380	
608.52	12013	
608.72	12702	
608.91	10086	
609.1	10116	
609.29	12095	
609.48	11594	
609.67	10776	
609.86	10053	
610.05	11740	
610.24	11863	
610.43	10028	
610.62	9735.4	
610.81	12738	
611	12584	
611.19	10056	
611.38	10550	
611.57	12200	
611.76	13068	
611.95	9832.3	
612.14	9681.4	
612.33	11957	
612.52	11675	
612.71	10213	
612.9	9643.2	
613.09	11211	
613.28	13112	
613.47	10195	
613.66	10746	
613.85	12068	
614.04	11626	
614.24	10162	
614.43	9495.1	
614.62	12159	
614.81	12045	
615	10327	
615.19	10533	
615.38	11463	
615.57	11856	
615.76	10376	
615.95	11234	
616.14	12191	
616.33	11847	
616.52	10736	
616.71	10855	
616.9	12074	
617.09	11929	
617.28	10174	
617.47	11114	
617.66	11394	
617.85	11476	
618.04	10926	
618.22	10386	
618.41	11749	
618.6	12587	
618.79	10463	
618.98	10251	
619.17	12883	
619.36	11393	
619.55	10513	
619.74	10564	
619.93	12272	
620.12	11802	
620.31	11056	
620.5	11161	
620.69	13087	
620.88	13334	
621.07	11746	
621.26	11015	
621.45	12562	
621.64	12656	
621.83	11097	
622.02	10531	
622.21	12680	
622.4	12545	
622.59	11622	
622.78	11442	
622.97	12110	
623.16	12869	
623.35	11174	
623.54	10327	
623.72	12379	
623.91	12441	
624.1	11414	
624.29	10243	
624.48	13234	
624.67	12676	
624.86	11245	
625.05	10437	
625.24	13380	
625.43	12070	
625.62	12707	
625.81	10634	
626	12817	
626.19	12413	
626.38	11260	
626.56	10796	
626.75	12250	
626.94	12844	
627.13	11219	
627.32	10290	
627.51	12759	
627.7	13653	
627.89	10328	
628.08	11239	
628.27	11939	
628.46	12190	
628.65	10486	
628.83	10144	
629.02	12532	
629.21	12050	
629.4	10965	
629.59	11034	
629.78	11974	
629.97	12669	
630.16	11038	
630.35	10627	
630.54	13194	
630.72	12949	
630.91	10638	
631.1	11080	
631.29	12485	
631.48	12609	
631.67	11100	
631.86	10664	
632.05	12159	
632.24	12190	
632.42	10397	
632.61	10823	
632.8	12169	
632.99	11858	
633.18	10895	
633.37	11135	
633.56	12353	
633.75	12250	
633.93	10897	
634.12	10632	
634.31	13057	
634.5	12776	
634.69	10601	
634.88	11087	
635.07	12340	
635.25	12695	
635.44	11311	
635.63	11525	
635.82	12086	
636.01	11540	
636.2	11189	
636.39	10922	
636.57	13090	
636.76	12587	
636.95	10403	
637.14	11492	
637.33	12454	
637.52	13032	
637.7	10204	
637.89	11053	
638.08	12043	
638.27	13142	
638.46	11013	
638.65	11273	
638.83	13078	
639.02	11785	
639.21	10781	
639.4	11188	
639.59	12103	
639.78	11867	
639.96	10103	
640.15	10336	
640.34	11858	
640.53	11955	
640.72	9856.9	
640.91	10136	
641.09	11438	
641.28	12495	
641.47	10177	
641.66	10825	
641.85	11955	
642.03	12024	
642.22	10511	
642.41	10139	
642.6	11523	
642.79	10925	
642.97	9912.2	
643.16	10716	
643.35	11444	
643.54	11204	
643.73	9773.6	
643.91	10421	
644.1	10960	
644.29	11474	
644.48	9752.4	
644.67	9796.1	
644.85	11044	
645.04	11400	
645.23	9316.2	
645.42	9653.4	
645.6	10825	
645.79	11571	
645.98	9409.7	
646.17	8518.9	
646.36	10370	
646.54	10769	
646.73	9869.2	
646.92	8865.7	
647.11	10363	
647.29	11320	
647.48	8917.5	
647.67	8751	
647.86	11416	
648.05	11873	
648.23	9058.8	
648.42	10119	
648.61	10867	
648.8	10745	
648.98	8815.1	
649.17	8991.9	
649.36	10268	
649.55	10028	
649.73	8899.8	
649.92	9527.8	
650.11	10319	
650.3	10615	
650.48	9071.1	
650.67	8750.3	
650.86	10711	
651.05	9785.9	
651.23	8811.7	
651.42	8744.8	
651.61	10219	
651.79	10177	
651.98	9064.3	
652.17	8622.6	
652.36	10554	
652.54	9779.7	
652.73	8669.7	
652.92	8479.3	
653.11	10515	
653.29	10617	
653.48	8060.8	
653.67	8836.3	
653.85	10271	
654.04	11129	
654.23	8964.6	
654.42	8568	
654.6	9823.4	
654.79	10316	
654.98	8004.1	
655.16	8383.7	
655.35	9227.5	
655.54	9065.7	
655.73	7821.9	
655.91	7659.4	
656.1	10010	
656.29	9078.6	
656.47	7471.7	
656.66	8825.4	
656.85	9498.5	
657.03	9590.6	
657.22	8088.1	
657.41	8149.6	
657.59	9623.4	
657.78	9628.2	
657.97	8000	
658.16	8572.8	
658.34	10245	
658.53	10576	
658.72	9129.8	
658.9	9629.5	
659.09	9859.6	
659.28	9887.6	
659.46	8349.6	
659.65	8220.5	
659.84	9605	
660.02	10121	
660.21	8295.6	
660.4	8143.4	
660.58	10342	
660.77	9885.5	
660.96	8717.5	
661.14	7892.2	
661.33	10806	
661.52	10800	
661.7	7792.5	
661.89	10717	
662.08	9591.3	
662.26	9183.1	
662.45	8082.6	
662.64	8112.7	
662.82	10050	
663.01	9456.8	
663.2	8073.8	
663.38	8710	
663.57	9916.3	
663.75	9894.4	
663.94	8348.9	
664.13	9253.4	
664.31	9460.3	
664.5	10038	
664.69	8574.2	
664.87	8951	
665.06	9268.4	
665.25	9881.4	
665.43	9095	
665.62	9146.9	
665.8	10045	
665.99	9502.6	
666.18	8253.3	
666.36	8374.8	
666.55	10094	
666.74	9922.4	
666.92	7987.8	
667.11	9293.7	
667.29	9553.1	
667.48	10030	
667.67	9037.7	
667.85	8105.9	
668.04	9529.2	
668.22	9508	
668.41	8336.6	
668.6	8503.2	
668.78	9269.1	
668.97	9510.8	
669.15	8488.1	
669.34	7733.1	
669.53	9318.3	
669.71	9624.1	
669.9	7854	
670.08	8393.9	
670.27	9257.5	
670.46	9750.4	
670.64	8516.1	
670.83	8719.6	
671.01	9185.1	
671.2	9621.4	
671.38	7971.4	
671.57	7814.4	
671.76	10195	
671.94	10651	
672.13	7804.1	
672.31	8570.1	
672.5	9874.6	
672.69	9267.7	
672.87	7862.2	
673.06	8129.8	
673.24	9782.5	
673.43	9323.7	
673.61	8449.9	
673.8	8143.4	
673.98	9811.8	
674.17	9936.1	
674.36	8629.5	
674.54	8398.7	
674.73	9515.5	
674.91	9798.2	
675.1	8148.9	
675.28	7854.6	
675.47	9456.2	
675.65	9889.6	
675.84	8053.3	
676.03	8430.1	
676.21	9312.8	
676.4	8804.9	
676.58	8783.1	
676.77	8583.7	
676.95	10446	
677.14	9221.3	
677.32	7751.6	
677.51	7788.4	
677.69	9864.4	
677.88	9009	
678.06	7680.6	
678.25	7847.8	
678.44	9415.2	
678.62	9236.3	
678.81	7552.2	
678.99	8277.2	
679.18	10021	
679.36	9688.3	
679.55	8031.5	
679.73	8581.7	
679.92	9727.2	
680.1	9237	
680.29	9082.1	
680.47	7977.5	
680.66	9245.2	
680.84	9781.8	
681.03	7539.9	
681.21	8303.8	
681.4	9183.1	
681.58	9084.8	
681.77	7789.8	
681.95	7724.9	
682.14	9840.5	
682.32	10086	
682.51	8469.7	
682.69	7433.4	
682.88	9101.2	
683.06	9409.7	
683.25	8165.9	
683.43	8591.2	
683.62	9396.8	
683.8	9716.2	
683.99	8697.7	
684.17	8028.7	
684.36	10348	
684.54	9252.7	
684.73	7324.2	
684.91	7434.1	
685.1	9250.7	
685.28	8611	
685.46	7583.6	
685.65	7552.9	
685.83	9011.1	
686.02	8554.4	
686.2	7034.1	
686.39	7150.1	
686.57	8305.2	
686.76	9641.8	
686.94	7281.9	
687.13	7426.6	
687.31	9091.6	
687.5	8830.2	
687.68	6936.5	
687.86	7903.1	
688.05	10192	
688.23	8312.7	
688.42	8015.1	
688.6	7385	
688.79	8759.8	
688.97	8710.7	
689.16	7750.2	
689.34	6861.4	
689.52	9306.7	
689.71	9522.4	
689.89	7976.8	
690.08	7439.6	
690.26	9093.7	
690.45	8893.6	
690.63	8072.4	
690.81	7480.5	
691	8841.8	
691.18	8552.3	
691.37	7601.4	
691.55	9213.8	
691.74	8596	
691.92	10147	
692.1	7611.6	
692.29	7078.5	
692.47	8768	
692.66	8211.7	
692.84	7229.3	
693.02	7632.8	
693.21	8406.9	
693.39	8828.8	
693.58	7856.7	
693.76	7311.2	
693.94	9750.4	
694.13	9639.1	
694.31	7475.8	
694.5	8286.1	
694.68	8747.6	
694.86	9055.4	
695.05	7781.6	
695.23	8158.4	
695.42	9456.8	
695.6	11122	
695.78	8348.9	
695.97	7572	
696.15	9481.4	
696.34	8921	
696.52	7379.5	
696.7	7961.8	
696.89	9133.9	
697.07	8569.4	
697.25	7802.1	
697.44	9044.5	
697.62	8996.7	
697.81	9263.6	
697.99	7543.4	
698.17	8011.7	
698.36	8360.5	
698.54	9120.3	
698.72	7825.3	
698.91	6965.1	
699.09	8669.1	
699.28	8492.2	
699.46	7535.8	
699.64	7404.8	
699.83	8555	
700.01	9360.6	
700.19	7935.2	
700.38	6761	
700.56	9478.7	
700.74	8556.4	
700.93	7102.4	
701.11	7847.8	
701.29	9058.2	
701.48	10008	
701.66	7354.9	
701.84	7501	
702.03	8855.4	
702.21	9416.6	
702.39	7068.9	
702.58	7529.7	
702.76	9106	
702.94	9192	
703.13	7027.3	
703.31	8978.3	
703.49	8538.7	
703.68	9351	
703.86	7199.3	
704.04	7934.5	
704.23	8957.8	
704.41	9262.3	
704.59	7329.7	
704.78	8253.3	
704.96	9911.5	
705.14	9256.8	
705.33	7247.1	
705.51	7757.7	
705.69	8845.2	
705.87	9415.2	
706.06	7969.3	
706.24	7150.8	
706.42	9035	
706.61	9265	
706.79	8106.5	
706.97	7092.8	
707.16	8562.6	
707.34	9028.1	
707.52	7877.9	
707.7	7231.4	
707.89	8717.5	
708.07	8335.9	
708.25	7965.9	
708.44	8102.4	
708.62	8533.9	
708.8	9506	
708.98	8226	
709.17	7359.7	
709.35	8910.7	
709.53	8852	
709.72	7052.5	
709.9	7389.8	
710.08	9144.2	
710.26	9145.5	
710.45	8340	
710.63	7328.3	
710.81	8817.9	
710.99	8764.6	
711.18	7762.5	
711.36	7293.5	
711.54	8599.4	
711.72	9233.6	
711.91	7324.9	
712.09	6869.6	
712.27	8688.8	
712.45	9159.2	
712.64	7403.4	
712.82	6676.4	
713	8169.3	
713.18	8138.6	
713.37	6639.5	
713.55	7456	
713.73	8695	
713.91	7550.9	
714.1	6693.4	
714.28	6211.5	
714.46	8202.8	
714.64	7473	
714.83	5559.6	
715.01	6120.7	
715.19	7334.5	
715.37	6724.2	
715.55	5776	
715.74	5975.3	
715.92	7923.6	
716.1	6324.8	
716.28	6795.8	
716.47	6029.9	
716.65	6944	
716.83	6903	
717.01	5847.6	
717.19	5853.8	
717.38	8532.5	
717.56	6621.1	
717.74	6025.8	
717.92	5418.2	
718.1	7673.7	
718.29	7054.6	
718.47	5146.5	
718.65	5776.6	
718.83	7758.4	
719.01	7789.8	
719.2	5344.5	
719.38	6253.1	
719.56	7561.1	
719.74	8772.8	
719.92	5872.2	
720.11	6733.7	
720.29	7607.5	
720.47	6908.5	
720.65	5431.9	
720.83	6091.3	
721.02	7064.8	
721.2	6810.9	
721.38	5956.2	
721.56	5415.5	
721.74	6354.8	
721.92	6418.3	
722.11	6311.8	
722.29	6064	
722.47	7383.6	
722.65	6750.8	
722.83	5278.3	
723.01	5997.1	
723.2	6776	
723.38	7114.6	
723.56	4895.3	
723.74	5795.1	
723.92	6454.5	
724.1	7385.7	
724.29	5246.9	
724.47	6264.1	
724.65	6541.2	
724.83	6445	
725.01	5098.8	
725.19	5853.1	
725.37	6368.5	
725.56	6491.4	
725.74	5073.5	
725.92	5259.2	
726.1	6460	
726.28	6601.3	
726.46	5556.8	
726.64	5260.5	
726.83	6675.7	
727.01	6842.3	
727.19	5026.4	
727.37	5668.1	
727.55	6789.7	
727.73	7115.3	
727.91	4964.3	
728.09	4851.6	
728.28	7089.4	
728.46	7402.7	
728.64	5761.6	
728.82	5700.9	
729	7992.5	
729.18	7445	
729.36	5082.4	
729.54	6927.6	
729.72	8184.4	
729.91	6983.6	
730.09	6666.1	
730.27	5746.6	
730.45	6895.5	
730.63	7433.4	
730.81	6248.4	
730.99	5487.2	
731.17	7859.4	
731.35	6754.9	
731.53	5958.9	
731.71	5588.9	
731.9	7628	
732.08	7720.2	
732.26	5815.5	
732.44	5500.2	
732.62	7746.1	
732.8	7326.3	
732.98	6036	
733.16	5335	
733.34	7311.2	
733.52	6284.5	
733.7	5642.8	
733.88	5907.7	
734.07	7114	
734.25	6967.2	
734.43	5283.8	
734.61	6479.1	
734.79	8207.6	
734.97	6881.2	
735.15	5380.7	
735.33	5618.3	
735.51	7132.4	
735.69	6914.6	
735.87	6421.1	
736.05	5753.4	
736.23	7055.9	
736.41	6743.3	
736.59	5598.5	
736.77	5737	
736.95	7290.1	
737.13	6794.5	
737.32	5329.5	
737.5	5503.6	
737.68	7735.9	
737.86	6769.9	
738.04	5190.9	
738.22	6632.7	
738.4	6661.4	
738.58	6916	
738.76	5672.2	
738.94	4802.5	
739.12	6712.6	
739.3	6576	
739.48	6139.8	
739.66	5939.1	
739.84	6906.4	
740.02	6873	
740.2	4911.7	
740.38	5104.9	
740.56	7182.2	
740.74	6268.8	
740.92	5730.2	
741.1	5565	
741.28	6651.1	
741.46	6513.9	
741.64	5292.6	
741.82	5722	
742	6703	
742.18	6588.3	
742.36	5382.7	
742.54	5131.5	
742.72	7157	
742.9	6091.3	
743.08	5745.9	
743.26	4711	
743.44	7216.4	
743.62	7027.3	
743.8	5747.3	
743.98	5079.6	
744.16	6833.4	
744.34	6524.8	
744.52	5712.5	
744.7	5604.6	
744.88	6969.2	
745.06	6512.5	
745.24	5660.6	
745.42	5793.7	
745.6	6944.7	
745.78	6784.2	
745.96	4777.9	
746.14	4895.3	
746.32	7527.7	
746.5	6896.9	
746.68	5360.9	
746.86	5006.6	
747.03	7232.1	
747.21	5862	
747.39	5345.9	
747.57	4919.9	
747.75	6550.8	
747.93	6845	
748.11	4852.3	
748.29	4788.2	
748.47	7793.9	
748.65	6191	
748.83	5445.5	
749.01	5270.1	
749.19	6674.3	
749.37	5991	
749.55	5083.7	
749.73	5188.9	
749.91	6447.7	
750.09	6177.4	
750.26	5261.9	
750.44	4668	
750.62	6369.2	
750.8	6309.8	
750.98	4589.5	
751.16	4897.4	
751.34	6467.5	
751.52	5868.8	
751.7	5474.9	
751.88	4507.6	
752.06	6843.6	
752.24	6546	
752.42	4498	
752.59	4715.1	
752.77	6361	
752.95	7216.4	
753.13	5414.1	
753.31	4874.8	
753.49	6073.6	
753.67	6408.1	
753.85	4996.4	
754.03	4724.7	
754.21	6591	
754.38	6818.4	
754.56	4791.6	
754.74	4083	
754.92	5883.1	
755.1	6364.4	
755.28	3988.8	
755.46	3948.5	
755.64	6956.9	
755.82	6949.4	
755.99	4074.1	
756.17	4051.6	
756.35	4803.9	
756.53	6039.5	
756.71	3110.2	
756.89	3865.9	
757.07	5630.5	
757.25	4952.7	
757.42	4308.2	
757.6	4956.1	
757.78	5823.7	
757.96	5016.8	
758.14	4104.1	
758.32	3738.2	
758.5	4704.2	
758.67	5296.7	
758.85	3973.7	
759.03	4077.5	
759.21	5508.4	
759.39	5041.4	
759.57	3692.5	
759.75	4529.4	
759.92	6004.6	
760.1	5457.2	
760.28	4835.3	
760.46	5062.6	
760.64	5309.7	
760.82	5084.4	
760.99	4605.2	
761.17	4091.8	
761.35	5925.5	
761.53	5178.6	
761.71	4268	
761.89	4714.4	
762.06	5816.2	
762.24	5515.9	
762.42	4365.6	
762.6	4097.3	
762.78	5464.7	
762.96	6022.4	
763.13	4622.9	
763.31	4368.3	
763.49	6064.7	
763.67	5461.2	
763.85	5059.8	
764.02	5383.4	
764.2	6378.7	
764.38	5620.3	
764.56	4212.7	
764.74	5004.6	
764.91	6367.1	
765.09	5466.7	
765.27	4090.5	
765.45	3842.7	
765.63	6492.7	
765.8	6266.8	
765.98	3670	
766.16	3880.9	
766.34	5141.8	
766.52	4977.9	
766.69	4586.8	
766.87	3716.4	
767.05	5483.1	
767.23	6176.7	
767.41	3972.4	
767.58	4220.9	
767.76	5950.7	
767.94	5986.2	
768.12	4018.8	
768.29	4515.8	
768.47	5487.9	
768.65	6092.7	
768.83	3652.2	
769	4567	
769.18	5122	
769.36	5725.4	
769.54	4605.9	
769.72	3777.8	
769.89	5952.1	
770.07	6012.8	
770.25	4056.3	
770.43	5025	
770.6	6574.7	
770.78	6820.4	
770.96	4120.5	
771.14	4563.6	
771.31	5854.5	
771.49	5292	
771.67	3418.7	
771.85	3590.1	
772.02	4703.5	
772.2	5219.6	
772.38	4306.9	
772.55	3771.7	
772.73	5521.3	
772.91	5315.8	
773.09	4135.5	
773.26	4143.7	
773.44	5464	
773.62	5150.6	
773.8	3705.5	
773.97	3517.7	
774.15	5450.3	
774.33	5253	
774.5	3630.4	
774.68	3897.3	
774.86	5687.9	
775.04	5195.7	
775.21	3622.9	
775.39	3627	
775.57	5409.4	
775.74	5662	
775.92	3512.9	
776.1	3349.1	
776.27	5423.7	
776.45	6413.6	
776.63	3697.9	
776.81	3282.2	
776.98	5152	
777.16	5919.3	
777.34	3796.9	
777.51	4007.9	
777.69	5135.6	
777.87	4919.9	
778.04	3809.2	
778.22	4230.4	
778.4	4887.1	
778.57	5513.8	
778.75	3256.3	
778.93	3405.8	
779.1	4754.7	
779.28	4630.5	
779.46	3249.4	
779.64	3590.1	
779.81	5545.2	
779.99	6269.5	
780.17	4126	
780.34	4347.2	
780.52	5158.2	
780.69	5227.1	
780.87	3778.5	
781.05	3427.6	
781.22	5158.8	
781.4	5221.6	
781.58	3559.4	
781.75	2962.7	
781.93	5167	
782.11	4635.2	
782.28	4349.9	
782.46	3560.1	
782.64	4569	
782.81	5277.6	
782.99	3636.5	
783.17	3630.4	
783.34	5225.1	
783.52	4610	
783.69	3775.8	
783.87	4434.5	
784.05	4703.5	
784.22	4697.4	
784.4	4419.5	
784.58	3839.9	
784.75	5485.1	
784.93	4773.8	
785.1	3551.2	
785.28	4012.7	
785.46	5215.5	
785.63	4655	
785.81	3549.8	
785.99	3376.4	
786.16	4795	
786.34	5015.5	
786.51	3418.7	
786.69	3835.2	
786.87	4445.5	
787.04	4853.7	
787.22	3327.3	
787.39	4083	
787.57	4643.4	
787.75	5549.3	
787.92	4275.5	
788.1	4184.7	
788.27	4660.5	
788.45	4479.6	
788.63	3964.2	
788.8	2936.1	
788.98	5036.6	
789.15	4346.5	
789.33	3054.9	
789.5	3590.8	
789.68	5438.7	
789.86	5499.5	
790.03	3873.4	
790.21	3411.9	
790.38	5400.5	
790.56	4723.3	
790.73	3355.9	
790.91	3330	
791.09	4647.5	
791.26	5205.3	
791.44	3558	
791.61	3151.1	
791.79	4689.2	
791.96	4621.6	
792.14	3226.2	
792.32	2873.3	
792.49	4685.8	
792.67	4759.5	
792.84	3242.6	
793.02	3091.1	
793.19	5035.3	
793.37	5632.6	
793.54	2901.3	
793.72	3164.8	
793.89	5606.7	
794.07	4631.1	
794.25	3560.1	
794.42	2968.2	
794.6	5511.8	
794.77	5177.9	
794.95	3811.3	
795.12	3391.4	
795.3	4616.8	
795.47	5123.3	
795.65	3734.8	
795.82	3550.5	
796	4564.2	
796.17	6019.7	
796.35	3495.2	
796.52	4024.9	
796.7	5087.8	
796.87	5139	
797.05	3450.1	
797.22	4057	
797.4	5131.5	
797.57	5978	
797.75	3611.9	
797.92	3412.6	
798.1	5417.6	
798.27	4521.9	
798.45	2966.8	
798.62	3127.9	
798.8	4925.4	
798.97	5288.5	
799.15	3768.9	
799.32	3506.8	
799.5	4300.7	
799.67	4973.2	
799.85	3895.2	
800.02	2903.3	
800.2	4581.3	
800.37	4810	
800.55	3934.1	
800.72	3377.8	
800.9	5335	
801.07	5588.9	
801.25	4402.5	
801.42	3674.7	
801.6	5283.8	
801.77	4943.8	
801.95	3418.7	
802.12	3270.6	
802.29	4992.9	
802.47	4933.6	
802.64	3703.4	
802.82	2833	
802.99	4571.1	
803.17	5401.2	
803.34	3554.6	
803.52	3245.3	
803.69	5898.1	
803.87	4416.1	
804.04	3474.7	
804.21	3594.9	
804.39	5477.6	
804.56	4772.4	
804.74	3096.5	
804.91	3715.7	
805.09	4642.7	
805.26	4681	
805.44	3082.2	
805.61	3394.8	
805.78	5182.7	
805.96	5103.5	
806.13	3672	
806.31	3897.3	
806.48	4272.1	
806.66	4603.2	
806.83	3663.1	
807	3555.3	
807.18	4622.3	
807.35	4936.3	
807.53	3565.5	
807.7	2923.8	
807.87	5502.2	
808.05	4600.4	
808.22	3867.2	
808.4	2880.1	
808.57	4680.3	
808.74	4339.6	
808.92	3302	
809.09	4116.4	
809.27	4549.2	
809.44	4994.3	
809.61	2942.2	
809.79	3220.8	
809.96	5644.2	
810.14	5147.2	
810.31	2850.8	
810.48	3422.2	
810.66	4678.9	
810.83	5218.9	
811.01	3273.3	
811.18	3571.7	
811.35	5252.4	
811.53	4118.5	
811.7	3945.8	
811.87	3646.7	
812.05	4646.8	
812.22	4508.9	
812.39	3207.8	
812.57	3089	
812.74	4644.8	
812.92	6040.1	
813.09	3456.3	
813.26	3694.5	
813.44	5722	
813.61	4490.5	
813.78	2916.3	
813.96	3837.2	
814.13	4680.3	
814.3	4384	
814.48	4101.4	
814.65	3401	
814.82	5568.4	
815	4378.6	
815.17	3434.4	
815.34	4212	
815.52	4552	
815.69	4588.1	
815.87	3461.1	
816.04	3437.9	
816.21	4580.6	
816.38	4150.6	
816.56	3448.8	
816.73	3216	
816.9	5752.7	
817.08	5201.8	
817.25	3224.9	
817.42	3908.2	
817.6	4247.5	
817.77	4565.6	
817.94	3586	
818.12	3141.6	
818.29	4412	
818.46	6496.2	
818.64	3306.1	
818.81	3084.2	
818.98	4386.1	
819.16	6090	
819.33	3768.9	
819.5	3530	
819.67	4900.1	
819.85	5412.8	
820.02	3417.4	
820.19	3651.5	
820.37	4782	
820.54	4561.5	
820.71	3556	
820.88	4401.8	
821.06	4824.3	
821.23	4479.6	
821.4	3562.1	
821.58	3568.2	
821.75	5164.3	
821.92	4735.6	
822.09	2841.2	
822.27	3031.7	
822.44	4607.9	
822.61	4488.5	
822.79	2927.9	
822.96	5438	
823.13	4941.7	
823.3	4334.9	
823.48	3331.4	
823.65	3039.9	
823.82	5231.2	
823.99	4261.8	
824.17	4167.6	
824.34	3078.8	
824.51	5909.8	
824.68	4635.9	
824.86	3205.8	
825.03	3569.6	
825.2	4616.1	
825.37	5493.3	
825.55	3201	
825.72	3528	
825.89	5957.5	
826.06	5503.6	
826.24	3419.4	
826.41	3448.1	
826.58	5537.7	
826.75	4842.1	
826.92	2822.8	
827.1	3059	
827.27	7228	
827.44	5917.9	
827.61	3240.6	
827.79	3873.4	
827.96	4431.1	
828.13	4647.5	
828.3	3393.5	
828.47	2915.6	
828.65	4859.8	
828.82	4796.3	
828.99	4242	
829.16	3781.2	
829.34	5202.5	
829.51	4992.9	
829.68	3496.6	
829.85	3620.8	
830.02	5463.3	
830.2	5151.3	
830.37	2753.8	
830.54	4141	
830.71	5808.7	
830.88	4650.9	
831.05	2774.3	
831.23	3151.1	
831.4	5591.6	
831.57	6155.5	
831.74	3235.8	
831.91	2938.2	
832.09	4943.1	
832.26	5185.5	
832.43	3374.4	
832.6	3713	
832.77	4870.1	
832.94	5467.4	
833.12	2706.7	
833.29	3268.6	
833.46	4981.3	
833.63	6298.9	
833.8	3613.3	
833.97	3362.1	
834.15	5180	
834.32	4990.2	
834.49	3472.7	
834.66	3582.6	
834.83	5319.3	
835	4441.4	
835.17	3230.3	
835.35	3276.1	
835.52	5122	
835.69	4956.8	
835.86	3475.4	
836.03	2827.6	
836.2	5157.5	
836.37	4747.2	
836.55	3405.1	
836.72	3130.7	
836.89	4799.8	
837.06	5238	
837.23	3406.5	
837.4	3720.5	
837.57	5784.1	
837.75	6248.4	
837.92	3061.7	
838.09	3276.1	
838.26	4806.6	
838.43	5325.4	
838.6	3503.4	
838.77	3151.8	
838.94	5983.5	
839.11	5823.7	
839.29	3366.9	
839.46	2691	
839.63	5150	
839.8	4949.3	
839.97	3287	
840.14	3174.4	
840.31	4985.4	
840.48	5192.3	
840.65	2768.9	
840.82	3233.7	
841	5163.6	
841.17	5036	
841.34	2998.2	
841.51	3074	
841.68	5103.5	
841.85	4882.4	
842.02	3181.2	
842.19	2663	
842.36	4967.7	
842.53	4931.5	
842.7	2960.7	
842.87	3581.9	
843.05	6350.1	
843.22	4844.8	
843.39	2841.2	
843.56	3044.6	
843.73	4793.6	
843.9	5228.5	
844.07	4787.5	
844.24	3935.5	
844.41	7112.6	
844.58	4528.7	
844.75	2933.4	
844.92	3202.3	
845.09	5110.4	
845.26	5090.6	
845.43	2955.2	
845.6	3129.3	
845.77	5134.3	
845.94	4892.6	
846.12	3274	
846.29	3488.4	
846.46	5348.6	
846.63	5135.6	
846.8	3026.2	
846.97	3494.5	
847.14	5481	
847.31	5115.1	
847.48	3324.5	
847.65	3678.8	
847.82	5319.9	
847.99	5238.7	
848.16	3956	
848.33	3599.6	
848.5	4746.5	
848.67	5493.3	
848.84	2962	
849.01	3149.8	
849.18	4673.5	
849.35	4468.7	
849.52	3674.1	
849.69	2983.9	
849.86	5345.9	
850.03	5420.3	
850.2	3050.1	
850.37	3533.4	
850.54	5341.1	
850.71	4891.9	
850.88	3569.6	
851.05	2968.2	
851.22	4958.1	
851.39	5566.4	
851.56	2851.5	
851.73	3377.8	
851.9	4546.5	
852.07	5353.4	
852.24	3227.6	
852.41	2966.1	
852.58	5025.7	
852.75	4567	
852.92	3327.9	
853.09	2912.9	
853.26	4792.2	
853.43	5482.4	
853.6	3001.6	
853.77	2600.9	
853.94	5516.5	
854.11	4552.6	
854.28	4254.3	
854.44	3211.2	
854.61	5857.2	
854.78	5327.4	
854.95	2976.4	
855.12	3670.6	
855.29	4197	
855.46	5696.1	
855.63	3002.3	
855.8	4030.4	
855.97	4709	
856.14	5406.6	
856.31	4135.5	
856.48	3242.6	
856.65	4803.2	
856.82	4510.3	
856.99	2880.8	
857.16	3180.5	
857.33	6090.7	
857.49	4870.8	
857.66	3178.4	
857.83	3452.2	
858	4840	
858.17	5018.2	
858.34	2790.7	
858.51	3007.1	
858.68	5638.1	
858.85	5697.4	
859.02	3375.7	
859.19	3620.8	
859.36	4567.7	
859.52	4600.4	
859.69	3002.3	
859.86	3487.7	
860.03	4595	
860.2	5576.6	
860.37	2775.7	
860.54	3035.8	
860.71	5289.9	
860.88	5567.7	
861.05	3373	
861.21	3702	
861.38	5603.2	
861.55	4379.9	
861.72	2749.7	
861.89	3321.8	
862.06	5334.3	
862.23	5675.6	
862.4	2899.9	
862.56	3133.4	
862.73	5270.8	
862.9	4909.7	
863.07	3523.9	
863.24	2734	
863.41	4493.2	
863.58	4566.3	
863.75	3065.1	
863.91	3439.9	
864.08	5554.1	
864.25	5256.5	
864.42	3759.4	
864.59	4102.8	
864.76	5838.8	
864.93	4559.5	
865.09	2917	
865.26	3186	
865.43	5496.1	
865.6	5823.1	
865.77	2622.1	
865.94	2962	
866.1	5587.5	
866.27	5199.8	
866.44	4359.4	
866.61	2837.8	
866.78	4853.7	
866.95	5213.4	
867.11	2894.5	
867.28	2659.6	
867.45	5432.6	
867.62	4549.9	
867.79	3454.9	
867.96	3016	
868.12	4546.5	
868.29	5322	
868.46	2942.9	
868.63	3869.3	
868.8	5401.9	
868.97	5292.6	
869.13	3132	
869.3	3158	
869.47	5150.6	
869.64	5362.9	
869.81	2982.5	
869.97	3007.1	
870.14	5089.9	
870.31	5633.3	
870.48	2903.3	
870.65	3707.5	
870.81	4842.1	
870.98	4859.1	
871.15	3273.3	
871.32	3084.9	
871.48	5164.3	
871.65	5645.6	
871.82	2947	
871.99	3240.6	
872.16	6038.1	
872.32	5494	
872.49	3019.4	
872.66	2971.6	
872.83	5295.4	
872.99	4653	
873.16	3429.7	
873.33	2942.9	
873.5	5018.2	
873.67	4995.7	
873.83	3139.5	
874	3912.3	
874.17	5104.2	
874.34	5885.2	
874.5	3803.1	
874.67	3659.7	
874.84	5545.9	
875.01	4479.6	
875.17	4093.9	
875.34	3017.3	
875.51	5007.3	
875.68	5924.1	
875.84	3538.2	
876.01	4286.4	
876.18	5259.9	
876.34	5157.5	
876.51	3019.4	
876.68	2916.3	
876.85	4775.9	
877.01	5464	
877.18	4123.9	
877.35	2937.5	
877.52	4950.6	
877.68	4491.9	
877.85	2914.3	
878.02	2909.5	
878.18	4896	
878.35	4704.9	
878.52	2422.7	
878.69	3320.4	
878.85	5382.1	
879.02	5246.2	
879.19	4226.3	
879.35	3160.7	
879.52	5285.1	
879.69	5399.8	
879.86	2609.1	
880.02	3340.2	
880.19	4902.8	
880.36	5917.9	
880.52	3417.4	
880.69	3487.7	
880.86	5313.8	
881.02	5364.3	
881.19	3240.6	
881.36	3189.4	
881.52	5212.1	
881.69	4646.2	
881.86	3227.6	
882.02	3166.2	
882.19	5401.2	
882.36	6295.5	
882.52	3041.2	
882.69	4164.2	
882.86	5020.9	
883.02	5021.6	
883.19	3601.7	
883.36	3338.9	
883.52	5293.3	
883.69	5961	
883.86	3018.7	
884.02	2728.6	
884.19	5294.7	
884.36	4930.8	
884.52	3317.7	
884.69	3191.4	
884.86	4696.7	
885.02	5722	
885.19	3373.7	
885.36	3364.8	
885.52	4891.9	
885.69	5086.5	
885.86	4203.8	
886.02	3727.3	
886.19	5320.6	
886.35	4771.8	
886.52	3283.6	
886.69	4078.2	
886.85	4528.1	
887.02	5486.5	
887.19	5486.5	
887.35	5486.5	
887.52	5486.5	
887.68	5486.5	
887.85	5486.5	
888.02	5486.5	
888.18	5486.5	
888.35	5486.5	
888.51	5486.5	
888.68	5486.5	
888.85	5486.5	
889.01	5486.5	
889.18	5486.5	
889.35	5486.5	
889.51	5486.5	
889.68	5486.5	
889.84	5486.5	
890.01	5486.5	
890.17	5486.5	
890.34	5486.5	
890.51	5486.5	
890.67	5486.5	
890.84	5486.5	
891	5486.5	
891.17	5486.5	
891.34	5486.5	
891.5	5486.5	
891.67	5486.5	
891.83	5486.5	
892	5486.5	
892.16	5486.5	
892.33	5486.5	
892.5	5486.5	
892.66	5486.5	
892.83	5486.5	
892.99	5486.5	
893.16	5486.5	
893.32	5486.5	
893.49	5486.5	
893.65	5486.5	
893.82	5486.5	
893.99	5486.5	
894.15	5486.5	
894.32	5486.5	
894.48	5486.5	
894.65	5486.5	
894.81	5486.5	
894.98	5486.5	
895.14	5486.5	
895.31	5486.5	
895.47	5486.5	
895.64	5486.5	
895.81	5486.5	
895.97	5486.5	
896.14	5486.5	
896.3	5486.5	
896.47	5486.5	
896.63	5486.5	
896.8	5486.5	
896.96	5486.5	
897.13	5486.5	
897.29	5486.5	
897.46	5486.5	
897.62	5486.5	
897.79	5486.5	
897.95	5486.5	
898.12	5486.5	
898.28	5486.5	
898.45	5486.5	
898.61	5486.5	
898.78	5486.5	
898.94	5486.5	
899.11	5486.5	
899.27	5486.5	
899.44	5486.5	
899.6	5486.5	
899.77	5486.5	
899.93	5486.5	
900.1	5486.5	
900.26	5486.5	
900.43	5486.5	
900.59	5486.5	
900.76	5486.5	
900.92	5486.5	
901.09	5486.5	
901.25	5486.5	
901.42	5486.5	
901.58	5486.5	
901.75	5486.5	
901.91	5486.5	
902.07	5486.5	
902.24	5486.5	
902.4	5486.5	
902.57	5486.5	
902.73	5486.5	
902.9	5486.5	
903.06	5486.5	
903.23	5486.5	
903.39	5486.5	
903.56	5486.5	
903.72	5486.5	
903.88	5486.5	
904.05	5486.5	
904.21	5486.5	
904.38	5486.5	
904.54	5486.5	
904.71	5486.5	
904.87	5486.5	
905.03	5486.5	
905.2	5486.5	
905.36	5486.5	
905.53	5486.5	
905.69	5486.5	
905.86	5486.5	
906.02	5486.5	
906.18	5486.5	
906.35	5486.5	
906.51	5486.5	
906.68	5486.5	
906.84	5486.5	
907.01	5486.5	
907.17	5486.5	
907.33	5486.5	
907.5	5486.5	
907.66	5486.5	
907.83	5486.5	
907.99	5486.5	
908.15	5486.5	
908.32	5486.5	
908.48	5486.5	
908.65	5486.5	
908.81	5486.5	
908.97	5486.5	
909.14	5486.5	
909.3	5486.5	
909.47	5486.5	
909.63	5486.5	
909.79	5486.5	
909.96	5486.5	
910.12	5486.5	
910.28	5486.5	
910.45	5486.5	
910.61	5486.5	
910.78	5486.5	
910.94	5486.5	
911.1	5486.5	
911.27	5486.5	
911.43	5486.5	
911.59	5486.5	
911.76	5486.5	
911.92	5486.5	
912.08	5486.5	
912.25	5486.5	
912.41	5486.5	
912.57	5486.5	
912.74	5486.5	
912.9	5486.5	
913.07	5486.5	
913.23	5486.5	
913.39	5486.5	
913.56	5486.5	
913.72	5486.5	
913.88	5486.5	
914.05	5486.5	
914.21	5486.5	
914.37	5486.5	
914.54	5486.5	
914.7	5486.5	
914.86	5486.5	
915.03	5486.5	
915.19	5486.5	
