Wavelength	Intensities	
nm	a.u.	
179.22	1913.3	
179.44	1900.2	
179.65	1926.5	
179.86	1873.9	
180.08	1915.5	
180.29	4963.6	
180.51	3500.7	
180.72	5632.6	
180.94	6683.9	
181.15	3276.8	
181.37	3166.8	
181.58	5506.3	
181.79	5797.8	
182.01	3424.9	
182.22	3646.1	
182.44	5776	
182.65	4802.5	
182.87	4617.5	
183.08	3997	
183.29	6077.7	
183.51	4999.1	
183.72	3645.4	
183.94	5402.5	
184.15	5326.1	
184.37	5451	
184.58	3152.5	
184.79	4466.6	
185.01	4988.9	
185.22	5730.9	
185.44	4715.8	
185.65	3993.5	
185.86	5278.3	
186.08	4928.1	
186.29	3152.5	
186.51	3405.8	
186.72	5048.2	
186.94	5997.1	
187.15	3926	
187.36	4041.3	
187.58	7750.2	
187.79	5525.4	
188.01	4227	
188.22	6562.4	
188.43	6688	
188.65	5736.4	
188.86	3385.3	
189.08	4018.1	
189.29	5205.9	
189.5	5201.2	
189.72	3776.5	
189.93	3827	
190.15	5999.9	
190.36	7200	
190.57	4147.8	
190.79	4039.3	
191	6058.6	
191.22	6010.8	
191.43	4123.2	
191.64	3340.2	
191.86	6179.4	
192.07	5957.5	
192.29	3558	
192.5	3795.6	
192.71	5976.7	
192.93	5085.8	
193.14	3713	
193.35	3781.9	
193.57	5200.5	
193.78	5956.9	
194	3012.6	
194.21	3650.8	
194.42	4948.6	
194.64	5433.9	
194.85	4001.7	
195.07	4741.7	
195.28	5446.2	
195.49	4713.7	
195.71	4975.2	
195.92	3442.6	
196.13	5639.4	
196.35	5715.9	
196.56	5306.3	
196.78	4024.9	
196.99	7090.8	
197.2	6612.9	
197.42	4644.1	
197.63	4052.9	
197.84	4833.9	
198.06	5636	
198.27	3750.5	
198.48	5066	
198.7	5193	
198.91	5309	
199.13	4095.9	
199.34	4074.1	
199.55	5763.7	
199.77	4701.5	
199.98	3593.5	
200.19	4143.7	
200.41	5253.7	
200.62	5012.1	
200.83	4302.1	
201.05	4530.8	
201.26	5324	
201.47	5070.1	
201.69	3596.9	
201.9	3473.4	
202.11	5423.7	
202.33	6405.4	
202.54	3890.5	
202.76	4279.6	
202.97	5579.3	
203.18	5533.6	
203.4	4278.9	
203.61	4151.2	
203.82	5490.6	
204.04	5121.3	
204.25	4100.7	
204.46	4037.9	
204.68	5433.3	
204.89	5716.6	
205.1	3992.2	
205.32	3426.3	
205.53	5816.2	
205.74	5950	
205.96	2925.2	
206.17	4160.1	
206.38	5838.1	
206.6	6004.6	
206.81	4718.5	
207.02	3818.8	
207.24	5687.2	
207.45	6133	
207.66	3902.1	
207.88	3297.2	
208.09	5636.7	
208.3	5456.5	
208.52	3605.8	
208.73	3876.1	
208.94	5396.4	
209.15	6141.2	
209.37	3885.7	
209.58	4100.7	
209.79	6041.5	
210.01	5273.5	
210.22	3103.4	
210.43	3259	
210.65	5395	
210.86	5793	
211.07	3926	
211.29	3584.6	
211.5	5828.5	
211.71	5372.5	
211.93	3536.8	
212.14	3577.8	
212.35	5339.7	
212.56	5578.7	
212.78	4038.6	
212.99	3340.9	
213.2	6393.8	
213.42	5172.5	
213.63	3691.8	
213.84	3962.1	
214.06	4824.3	
214.27	4874.8	
214.48	3916.4	
214.69	4164.2	
214.91	6047	
215.12	6140.5	
215.33	4142.4	
215.55	4592.2	
215.76	6670.2	
215.97	5808	
216.18	4009.9	
216.4	3908.9	
216.61	5120.6	
216.82	5942.5	
217.04	3588	
217.25	3754.6	
217.46	6087.2	
217.67	5864.7	
217.89	3230.3	
218.1	3266.5	
218.31	5542.5	
218.53	5589.6	
218.74	3756.7	
218.95	3647.4	
219.16	5403.9	
219.38	6364.4	
219.59	3676.8	
219.8	4308.2	
220.01	7032.7	
220.23	5483.1	
220.44	4841.4	
220.65	3517	
220.87	5453.1	
221.08	6062	
221.29	3319.1	
221.5	4433.9	
221.72	7419.1	
221.93	5141.8	
222.14	4126.7	
222.35	4812.7	
222.57	5471.5	
222.78	5808	
222.99	3892.5	
223.2	4191.5	
223.42	5781.4	
223.63	5890	
223.84	2986.6	
224.05	2936.1	
224.27	6918	
224.48	6346	
224.69	4876.9	
224.9	4067.9	
225.12	5657.9	
225.33	5418.2	
225.54	3212.6	
225.75	3601	
225.97	4995	
226.18	5308.3	
226.39	3951.9	
226.6	3635.1	
226.82	5197.1	
227.03	5055.8	
227.24	4098	
227.45	3368.9	
227.67	5809.4	
227.88	6365.1	
228.09	4496	
228.3	4498.7	
228.52	5865.4	
228.73	5385.5	
228.94	3768.3	
229.15	3345.7	
229.36	5307.7	
229.58	5250.3	
229.79	3768.3	
230	4409.3	
230.21	6455.9	
230.43	5527.5	
230.64	4047.5	
230.85	4186.7	
231.06	5836.7	
231.28	5884.5	
231.49	3349.8	
231.7	3949.8	
231.91	5760.3	
232.12	5442.8	
232.34	3487	
232.55	3966.9	
232.76	6079.1	
232.97	5608	
233.18	3554.6	
233.4	4027.7	
233.61	5613.5	
233.82	5157.5	
234.03	3695.9	
234.25	3706.8	
234.46	7582.9	
234.67	5461.9	
234.88	4186	
235.09	3625.6	
235.31	5743.9	
235.52	5298.1	
235.73	4016.7	
235.94	3389.4	
236.15	5118.6	
236.37	6605.4	
236.58	3564.1	
236.79	3908.2	
237	5826.5	
237.21	4955.4	
237.43	4223.6	
237.64	3292.5	
237.85	9862.3	
238.06	4964.3	
238.27	4278.2	
238.48	3411.9	
238.7	5800.5	
238.91	5302.9	
239.12	3870	
239.33	3880.9	
239.54	5011.4	
239.76	5344.5	
239.97	3852.2	
240.18	3908.9	
240.39	6815.6	
240.6	5705	
240.82	4059.1	
241.03	3314.3	
241.24	5417.6	
241.45	6304.3	
241.66	3567.6	
241.87	4278.9	
242.09	6162.3	
242.3	6562.4	
242.51	4280.3	
242.72	3892.5	
242.93	5950.7	
243.14	5406.6	
243.36	4541	
243.57	4917.2	
243.78	6352.1	
243.99	5660.6	
244.2	3971.7	
244.41	3545	
244.63	4955.4	
244.84	5709.1	
245.05	4233.2	
245.26	3977.2	
245.47	5841.5	
245.68	5976	
245.9	5272.8	
246.11	4178.5	
246.32	5310.4	
246.53	5667.4	
246.74	6384.2	
246.95	3310.9	
247.16	4903.5	
247.38	5450.3	
247.59	3257	
247.8	3913.7	
248.01	5109	
248.22	5389.6	
248.43	3589.4	
248.64	3803.1	
248.86	4863.2	
249.07	5196.4	
249.28	3415.3	
249.49	3961.5	
249.7	6010.1	
249.91	6148.7	
250.12	3228.3	
250.34	3346.4	
250.55	5535.7	
250.76	5393	
250.97	4052.9	
251.18	4090.5	
251.39	6135.7	
251.6	5554.1	
251.81	4164.2	
252.03	4153.3	
252.24	5166.3	
252.45	5958.2	
252.66	3406.5	
252.87	4384	
253.08	5448.3	
253.29	7229.3	
253.5	3428.3	
253.72	4818.2	
253.93	5266.7	
254.14	6395.8	
254.35	3684.3	
254.56	3850.2	
254.77	5685.2	
254.98	5039.4	
255.19	3673.4	
255.41	4742.4	
255.62	5499.5	
255.83	6164.4	
256.04	4245.4	
256.25	4070	
256.46	6488	
256.67	5137.7	
256.88	4074.8	
257.09	4532.8	
257.31	5053	
257.52	5135.6	
257.73	5066	
257.94	3675.4	
258.15	5349.3	
258.36	5451	
258.57	4695.3	
258.78	2981.8	
258.99	5856.5	
259.2	5287.9	
259.41	3729.4	
259.63	3844	
259.84	6262.7	
260.05	6792.4	
260.26	4938.3	
260.47	3624.2	
260.68	5993.7	
260.89	5328.8	
261.1	4520.5	
261.31	3556.6	
261.52	6016.9	
261.73	6436.1	
261.95	4876.9	
262.16	4255.7	
262.37	6152.8	
262.58	6254.5	
262.79	4855.1	
263	3767.6	
263.21	5378	
263.42	4960.9	
263.63	3878.9	
263.84	3760.8	
264.05	6063.4	
264.26	6341.2	
264.47	4676.9	
264.69	4221.5	
264.9	6176	
265.11	5678.3	
265.32	3633.8	
265.53	3734.8	
265.74	5566.4	
265.95	4836.6	
266.16	3971	
266.37	4376.5	
266.58	5573.2	
266.79	5264	
267	3713.6	
267.21	3420.8	
267.42	5011.4	
267.63	5384.1	
267.84	3869.3	
268.06	3335.5	
268.27	5899.5	
268.48	6146.6	
268.69	3833.1	
268.9	4508.3	
269.11	6192.4	
269.32	4919.9	
269.53	3924.6	
269.74	3586.7	
269.95	5722.7	
270.16	4810.7	
270.37	3934.1	
270.58	4543.1	
270.79	5257.8	
271	5952.8	
271.21	4212	
271.42	3977.2	
271.63	5571.8	
271.84	5126.1	
272.05	3134.8	
272.26	3560.1	
272.47	5472.9	
272.68	5676.3	
272.89	3759.4	
273.11	4360.1	
273.32	5255.1	
273.53	6442.9	
273.74	4255	
273.95	4106.9	
274.16	6148.7	
274.37	5509	
274.58	4183.3	
274.79	3416	
275	5576.6	
275.21	6101.6	
275.42	5205.9	
275.63	4394.9	
275.84	5711.1	
276.05	7101.7	
276.26	4145.1	
276.47	3892.5	
276.68	5266.7	
276.89	6446.3	
277.1	4440	
277.31	3458.3	
277.52	5700.9	
277.73	5894.1	
277.94	3359.4	
278.15	3780.6	
278.36	5625.8	
278.57	5068.7	
278.78	3720.5	
278.99	4303.5	
279.2	5140.4	
279.41	5026.4	
279.62	4975.9	
279.83	3482.9	
280.04	6692.8	
280.25	4999.1	
280.46	4948.6	
280.67	3883.6	
280.88	5100.1	
281.09	6150.7	
281.3	4173.1	
281.51	5255.8	
281.72	5147.2	
281.93	6024.4	
282.14	3657.7	
282.35	3938.9	
282.56	5953.4	
282.77	5898.1	
282.98	3816	
283.19	4633.2	
283.4	7298.3	
283.61	5392.3	
283.82	3351.2	
284.03	4928.1	
284.24	5514.5	
284.45	6123.4	
284.66	4909	
284.87	4692.6	
285.08	6033.3	
285.29	6197.2	
285.5	3300.6	
285.71	3824.9	
285.92	6148.7	
286.12	6752.8	
286.33	4803.2	
286.54	3836.5	
286.75	5911.1	
286.96	5326.8	
287.17	3429	
287.38	4736.3	
287.59	5047.6	
287.8	5001.8	
288.01	3896.6	
288.22	4398.4	
288.43	5975.3	
288.64	4990.9	
288.85	4517.1	
289.06	4283.7	
289.27	5853.1	
289.48	6369.9	
289.69	4892.6	
289.9	4437.9	
290.11	6176.7	
290.32	5160.9	
290.53	4617.5	
290.74	4252.3	
290.94	5883.1	
291.15	5955.5	
291.36	3685.7	
291.57	4363.5	
291.78	5157.5	
291.99	4872.1	
292.2	3551.2	
292.41	4335.5	
292.62	6073.6	
292.83	5789.6	
293.04	5242.8	
293.25	3539.6	
293.46	5182.7	
293.67	6032.6	
293.88	3656.3	
294.09	3515.7	
294.29	5004.6	
294.5	5563.6	
294.71	3939.6	
294.92	3753.9	
295.13	5215.5	
295.34	6541.9	
295.55	3302.7	
295.76	3381.2	
295.97	5888.6	
296.18	6633.4	
296.39	3451.5	
296.6	3733.4	
296.81	5556.8	
297.01	5831.2	
297.22	3824.2	
297.43	3681.6	
297.64	5085.8	
297.85	5080.3	
298.06	3037.8	
298.27	3323.2	
298.48	5513.8	
298.69	5158.8	
298.9	4003.8	
299.11	3559.4	
299.31	5001.1	
299.52	4962.2	
299.73	4233.2	
299.94	4156.7	
300.15	5452.4	
300.36	5033.2	
300.57	4186.7	
300.78	4221.5	
300.99	5338.4	
301.2	5571.8	
301.4	3658.4	
301.61	3945.1	
301.82	5774.6	
302.03	5926.8	
302.24	4515.1	
302.45	3504.8	
302.66	5723.4	
302.87	6260.6	
303.08	3630.4	
303.29	4990.9	
303.49	5195.7	
303.7	5504.9	
303.91	3287	
304.12	4846.9	
304.33	4960.2	
304.54	5599.8	
304.75	3722.5	
304.96	3517	
305.16	5730.2	
305.37	6518	
305.58	3204.4	
305.79	3349.8	
306	5774.6	
306.21	4843.4	
306.42	3717.1	
306.63	5669.5	
306.83	5272.2	
307.04	6067.4	
307.25	4093.9	
307.46	3947.1	
307.67	4653.7	
307.88	5907	
308.09	3572.3	
308.29	3749.1	
308.5	5554.1	
308.71	6057.9	
308.92	3910.3	
309.13	3552.5	
309.34	5406.6	
309.55	5386.2	
309.75	4567.7	
309.96	4208.6	
310.17	5896.8	
310.38	5128.8	
310.59	4435.2	
310.8	3451.5	
311.01	6281.8	
311.21	5360.9	
311.42	3526.6	
311.63	3618.8	
311.84	5185.5	
312.05	5573.9	
312.26	4110.3	
312.46	4529.4	
312.67	5241.4	
312.88	4977.2	
313.09	3605.1	
313.3	3529.3	
313.51	6249	
313.71	6627.9	
313.92	3580.5	
314.13	3753.2	
314.34	5623.7	
314.55	5396.4	
314.76	4591.5	
314.96	3942.3	
315.17	5485.1	
315.38	5972.6	
315.59	3564.1	
315.8	3380.5	
316.01	6349.4	
316.21	6342.6	
316.42	3398.9	
316.63	3921.2	
316.84	5283.1	
317.05	6176	
317.26	4215.4	
317.46	3833.8	
317.67	5340.4	
317.88	5878.4	
318.09	4540.3	
318.3	3282.9	
318.5	5178.6	
318.71	5795.1	
318.92	5801.9	
319.13	4186	
319.34	5943.9	
319.54	6098.9	
319.75	3300.6	
319.96	3145	
320.17	5796.4	
320.38	5984.8	
320.58	3253.5	
320.79	3910.3	
321	6078.4	
321.21	6175.3	
321.42	3879.5	
321.62	3205.8	
321.83	5066.7	
322.04	5483.8	
322.25	3762.1	
322.46	3547.1	
322.66	5575.3	
322.87	5740.5	
323.08	4433.2	
323.29	3512.9	
323.5	6455.2	
323.7	4965.6	
323.91	4832.5	
324.12	4344.4	
324.33	5479.7	
324.53	5791	
324.74	4257	
324.95	4414.1	
325.16	4840	
325.37	5287.9	
325.57	3575.8	
325.78	3635.8	
325.99	5494.7	
326.2	4881.7	
326.4	5216.2	
326.61	3294.5	
326.82	5402.5	
327.03	5537	
327.24	5048.2	
327.44	4809.3	
327.65	5690.6	
327.86	4657.8	
328.07	4204.5	
328.27	3424.2	
328.48	6128.9	
328.69	5028.4	
328.9	5145.9	
329.1	3824.9	
329.31	5326.1	
329.52	6290.7	
329.73	3602.4	
329.93	4035.9	
330.14	5442.1	
330.35	5664.7	
330.56	5930.9	
330.76	4437.9	
330.97	5275.6	
331.18	5685.8	
331.39	4011.3	
331.59	3204.4	
331.8	6019.7	
332.01	6219.7	
332.22	3691.8	
332.42	4209.9	
332.63	5559.6	
332.84	5102.2	
333.05	4021.5	
333.25	3594.9	
333.46	5191.6	
333.67	5477.6	
333.88	3755.3	
334.08	4175.8	
334.29	7359.7	
334.5	6140.5	
334.7	3485	
334.91	5103.5	
335.12	5012.1	
335.33	5844.2	
335.53	3973.7	
335.74	5875.6	
335.95	5236.7	
336.16	5124.7	
336.36	3941.7	
336.57	4619.5	
336.78	4934.2	
336.98	6032.6	
337.19	4842.8	
337.4	3932.8	
337.61	6663.4	
337.81	5009.3	
338.02	3627	
338.23	4725.3	
338.43	6244.9	
338.64	5124.7	
338.85	3590.1	
339.05	4699.4	
339.26	6302.3	
339.47	4879.6	
339.68	3596.9	
339.88	5272.2	
340.09	5700.9	
340.3	5916.6	
340.5	4132.8	
340.71	3192.8	
340.92	4926.7	
341.13	6227.2	
341.33	3508.9	
341.54	4225.6	
341.75	5716.6	
341.95	5319.3	
342.16	3999.7	
342.37	4341	
342.57	5016.2	
342.78	5403.2	
342.99	4468	
343.19	3201.7	
343.4	5806	
343.61	5679	
343.81	3828.3	
344.02	3533.4	
344.23	5875.6	
344.43	6361	
344.64	4401.1	
344.85	4357.4	
345.06	5683.8	
345.26	6121.4	
345.47	4178.5	
345.68	4870.8	
345.88	4816.8	
346.09	5962.3	
346.3	4192.9	
346.5	3171.6	
346.71	5406	
346.92	5139	
347.12	3274.7	
347.33	4103.4	
347.54	6010.8	
347.74	6454.5	
347.95	4134.8	
348.16	3045.3	
348.36	5230.5	
348.57	4945.2	
348.78	4106.9	
348.98	4452.3	
349.19	5426.4	
349.39	4902.2	
349.6	3259	
349.81	3581.2	
350.01	5681.7	
350.22	5185.5	
350.43	3915.7	
350.63	4795	
350.84	5556.1	
351.05	5221	
351.25	3624.9	
351.46	3291.1	
351.67	6054.5	
351.87	5133.6	
352.08	3824.9	
352.29	4447.5	
352.49	5935.7	
352.7	5980.1	
352.9	3418.1	
353.11	4349.9	
353.32	6581.5	
353.52	5286.5	
353.73	3467.2	
353.94	4410	
354.14	5737.7	
354.35	5548.6	
354.55	3474.7	
354.76	3990.1	
354.97	5754.8	
355.17	5483.8	
355.38	3276.1	
355.59	4717.2	
355.79	5142.4	
356	5593	
356.2	3891.1	
356.41	3380.5	
356.62	4847.5	
356.82	5312.4	
357.03	4205.2	
357.24	3765.5	
357.44	5091.3	
357.65	5276.3	
357.85	5095.3	
358.06	3971	
358.27	4847.5	
358.47	5109	
358.68	3257.6	
358.88	4156.7	
359.09	5693.4	
359.3	6004	
359.5	4921.3	
359.71	4368.3	
359.91	6553.5	
360.12	5870.8	
360.33	4102.1	
360.53	4657.1	
360.74	5098.8	
360.94	5152	
361.15	4366.3	
361.36	3588	
361.56	5898.8	
361.77	5364.3	
361.97	4902.8	
362.18	3855.6	
362.38	5945.3	
362.59	4992.9	
362.8	3495.2	
363	3351.2	
363.21	4798.4	
363.41	5508.4	
363.62	4030.4	
363.83	5114.5	
364.03	5539.1	
364.24	6587.6	
364.44	5230.5	
364.65	5201.2	
364.85	5297.4	
365.06	5203.2	
365.27	3657.7	
365.47	3735.5	
365.68	6352.8	
365.88	5248.9	
366.09	4126	
366.29	3746.4	
366.5	5536.3	
366.71	6009.4	
366.91	5046.9	
367.12	4301.4	
367.32	6584.2	
367.53	5823.7	
367.73	4185.4	
367.94	5205.3	
368.14	5808.7	
368.35	6655.2	
368.56	4117.1	
368.76	3951.2	
368.97	5881.1	
369.17	7651.9	
369.38	3681.6	
369.58	3948.5	
369.79	4900.8	
369.99	6234	
370.2	4996.4	
370.4	4035.2	
370.61	5528.2	
370.82	6812.9	
371.02	3897.3	
371.23	3239.2	
371.43	4776.5	
371.64	6198.5	
371.84	3926	
372.05	5188.2	
372.25	7517.4	
372.46	5878.4	
372.66	3926	
372.87	3890.5	
373.07	5892	
373.28	7533.1	
373.48	5004.6	
373.69	4634.6	
373.9	5309.7	
374.1	5371.8	
374.31	4898.1	
374.51	4422.9	
374.72	6154.8	
374.92	5026.4	
375.13	5070.8	
375.33	4246.1	
375.54	5743.2	
375.74	5180.7	
375.95	4286.4	
376.15	5559.6	
376.36	5773.9	
376.56	5608.7	
376.77	4288.4	
376.97	4835.9	
377.18	6839.5	
377.38	5821.7	
377.59	5145.2	
377.79	3790.1	
378	5674.2	
378.2	6113.2	
378.41	3928	
378.61	3809.9	
378.82	6178.7	
379.02	5147.2	
379.23	4057.7	
379.43	5216.2	
379.64	6225.1	
379.84	5791	
380.05	3845.4	
380.25	3792.8	
380.46	5893.4	
380.66	5459.9	
380.87	5237.3	
381.07	5580.7	
381.28	6555.5	
381.48	5892.7	
381.69	3931.4	
381.89	3975.1	
382.1	4850.3	
382.3	6131.6	
382.51	5033.9	
382.71	5972.6	
382.91	5956.2	
383.12	6397.2	
383.32	4273.4	
383.53	4515.1	
383.73	5767.1	
383.94	5595.7	
384.14	4349.9	
384.35	3547.1	
384.55	5464	
384.76	6010.8	
384.96	4310.3	
385.17	4627.7	
385.37	5918.6	
385.58	5210	
385.78	4695.3	
385.98	3506.1	
386.19	5415.5	
386.39	5826.5	
386.6	4065.2	
386.8	4267.3	
387.01	5939.1	
387.21	5963	
387.42	4737.6	
387.62	5239.4	
387.83	5187.5	
388.03	5886.5	
388.23	4356.7	
388.44	5224.4	
388.64	4849.6	
388.85	4985.4	
389.05	4681	
389.26	5296	
389.46	6689.3	
389.67	6330.3	
389.87	4602.5	
390.07	4746.5	
390.28	5511.8	
390.48	5140.4	
390.69	3880.2	
390.89	4214	
391.1	5294.7	
391.3	6248.4	
391.5	5367.7	
391.71	6069.5	
391.91	5988.3	
392.12	7071.6	
392.32	5507.7	
392.53	4696.7	
392.73	5405.3	
392.93	5614.2	
393.14	4372.4	
393.34	5494.7	
393.55	6150.1	
393.75	5600.5	
393.95	4374.5	
394.16	4352.6	
394.36	5341.1	
394.57	5985.5	
394.77	3842	
394.98	4289.1	
395.18	5210.7	
395.38	5340.4	
395.59	5115.8	
395.79	4050.9	
396	5382.7	
396.2	5877.7	
396.4	4912.4	
396.61	4831.2	
396.81	6052.4	
397.02	5375.2	
397.22	5115.8	
397.42	5194.3	
397.63	6041.5	
397.83	5268.1	
398.04	3991.5	
398.24	4534.2	
398.44	5811.5	
398.65	4906.9	
398.85	3786.7	
399.05	3955.3	
399.26	5229.1	
399.46	6966.5	
399.67	4333.5	
399.87	4091.2	
400.07	5606.7	
400.28	5898.2	
400.48	4171.7	
400.69	5256.5	
400.89	6237.4	
401.09	6645	
401.3	4049.5	
401.5	5204.6	
401.7	6901	
401.91	7075.7	
402.11	4392.2	
402.32	4622.3	
402.52	6216.3	
402.72	6137.1	
402.93	4902.2	
403.13	3728.7	
403.33	7008.8	
403.54	5687.9	
403.74	4547.9	
403.94	5462.6	
404.15	5819	
404.35	6896.2	
404.56	4271.4	
404.76	6228.6	
404.96	6134.3	
405.17	5945.3	
405.37	5595.7	
405.57	4801.1	
405.78	6207.4	
405.98	5701.5	
406.18	4393.6	
406.39	5338.4	
406.59	6229.9	
406.79	5874.9	
407	4118.5	
407.2	4182.6	
407.4	6158.9	
407.61	6421.7	
407.81	4188.1	
408.01	6378.7	
408.22	5135.6	
408.42	7217.7	
408.62	5313.8	
408.83	4760.2	
409.03	5765	
409.23	5521.3	
409.44	4885.8	
409.64	5139	
409.84	6756.9	
410.05	6625.9	
410.25	4982.7	
410.45	4723.3	
410.66	6084.5	
410.86	8594	
411.06	5093.3	
411.27	5038	
411.47	8324.3	
411.67	6290.7	
411.88	5309.7	
412.08	5498.1	
412.28	6935.8	
412.49	7425.3	
412.69	5053	
412.89	5061.9	
413.09	7263.5	
413.3	7041.6	
413.5	5108.3	
413.7	4663.9	
413.91	6260.6	
414.11	7178.8	
414.31	4928.1	
414.52	5380	
414.72	6858.6	
414.92	6727.6	
415.12	4998.4	
415.33	5497.4	
415.53	7095.5	
415.73	7351.5	
415.94	5876.3	
416.14	5247.6	
416.34	6121.4	
416.55	5752.7	
416.75	6458.6	
416.95	5887.2	
417.15	7190.4	
417.36	7851.9	
417.56	6752.8	
417.76	5711.8	
417.97	7569.3	
418.17	7201.3	
418.37	5233.2	
418.57	5397.8	
418.78	6965.1	
418.98	6683.9	
419.18	6296.1	
419.38	6195.1	
419.59	6701	
419.79	6324.8	
419.99	5292.6	
420.2	5629.9	
420.4	7102.4	
420.6	7380.9	
420.8	5112.4	
421.01	5001.1	
421.21	7055.3	
421.41	7183.6	
421.61	5549.3	
421.82	5197.1	
422.02	6479.1	
422.22	7485.3	
422.42	6059.3	
422.63	5771.2	
422.83	6638.1	
423.03	7850.5	
423.23	5750.7	
423.44	4646.8	
423.64	6720.8	
423.84	6475.7	
424.04	5153.4	
424.25	4777.9	
424.45	7699	
424.65	7613	
424.85	4664.6	
425.06	5209.3	
425.26	7595.9	
425.46	6636.8	
425.66	5763	
425.87	5374.6	
426.07	7399.3	
426.27	7263.5	
426.47	5507.7	
426.67	4891.9	
426.88	7779.6	
427.08	7177.4	
427.28	5830.6	
427.48	4887.8	
427.69	6051.7	
427.89	6744.6	
428.09	5832.6	
428.29	4832.5	
428.5	7445.7	
428.7	7012.9	
428.9	4815.5	
429.1	5430.5	
429.3	6833.4	
429.51	7335.8	
429.71	5149.3	
429.91	5943.9	
430.11	7180.2	
430.31	7397.3	
430.52	5455.1	
430.72	5700.9	
430.92	7834.2	
431.12	7254.6	
431.32	5134.3	
431.53	5500.2	
431.73	6128.2	
431.93	7946.8	
432.13	4999.1	
432.33	4878.3	
432.54	6624.5	
432.74	7019.8	
432.94	4906.9	
433.14	5963	
433.34	7105.1	
433.55	6544.6	
433.75	5838.1	
433.95	7685.3	
434.15	6965.8	
434.35	6652.5	
434.56	5071.5	
434.76	4579.9	
434.96	6974	
435.16	7204.8	
435.36	4931.5	
435.56	6143.9	
435.77	6604	
435.97	6776.7	
436.17	6841.6	
436.37	6036.7	
436.57	6589.7	
436.78	6452.5	
436.98	7820.5	
437.18	6620.4	
437.38	7216.4	
437.58	6767.2	
437.78	6807.4	
437.99	5393	
438.19	7306.5	
438.39	8507.3	
438.59	5253.7	
438.79	4846.9	
438.99	7940	
439.2	6780.1	
439.4	4898.1	
439.6	4823	
439.8	7027.3	
440	8163.2	
440.2	5905.7	
440.4	6056.5	
440.61	7414.3	
440.81	7998.7	
441.01	5106.3	
441.21	6069.5	
441.41	7914.7	
441.61	7443.7	
441.81	6363	
442.02	7358.4	
442.22	8409.6	
442.42	7627.3	
442.62	5166.3	
442.82	5189.6	
443.02	7845.8	
443.22	7014.3	
443.43	5714.5	
443.63	5199.1	
443.83	6794.5	
444.03	6875.7	
444.23	6417.7	
444.43	6038.8	
444.63	7176.8	
444.83	8415.1	
445.04	5343.2	
445.24	6641.6	
445.44	7628.7	
445.64	7694.9	
445.84	6281.8	
446.04	6115.2	
446.24	6958.3	
446.44	7989.1	
446.65	5322.7	
446.85	5754.8	
447.05	6970.6	
447.25	7843.7	
447.45	5791.7	
447.65	5150	
447.85	7193.8	
448.05	6933.1	
448.25	6281.8	
448.46	6008.1	
448.66	7210.9	
448.86	6918.7	
449.06	5008.6	
449.26	6290	
449.46	7649.2	
449.66	6524.1	
449.86	5785.5	
450.06	5784.8	
450.26	6830.7	
450.47	7398.6	
450.67	5999.2	
450.87	6348	
451.07	7419.8	
451.27	7249.8	
451.47	5248.9	
451.67	5910.4	
451.87	6926.2	
452.07	8188.5	
452.27	5582.1	
452.47	5499.5	
452.67	7239.6	
452.88	7946.8	
453.08	4931.5	
453.28	6952.2	
453.48	8368	
453.68	7186.3	
453.88	5341.8	
454.08	5771.2	
454.28	7552.2	
454.48	7290.1	
454.68	6271.6	
454.88	6743.3	
455.08	7759.1	
455.28	7532.4	
455.48	5316.5	
455.68	6027.9	
455.89	8193.9	
456.09	7883.3	
456.29	5764.3	
456.49	5726.8	
456.69	8143.4	
456.89	7321.5	
457.09	6270.9	
457.29	6643.6	
457.49	7634.1	
457.69	7791.2	
457.89	6057.9	
458.09	5457.8	
458.29	7505.1	
458.49	8216.5	
458.69	6565.8	
458.89	5893.4	
459.09	8499.8	
459.29	8587.8	
459.49	6092.7	
459.69	6864.1	
459.9	8012.3	
460.1	7455.3	
460.3	5842.9	
460.5	5750	
460.7	7945.4	
460.9	7688.1	
461.1	5456.5	
461.3	6698.2	
461.5	8624	
461.7	8181.6	
461.9	5842.2	
462.1	6310.5	
462.3	7737.2	
462.5	8349.6	
462.7	5829.9	
462.9	6022.4	
463.1	9436.4	
463.3	8961.2	
463.5	6207.4	
463.7	7116.7	
463.9	7953.6	
464.1	8310	
464.3	6306.4	
464.5	6561	
464.7	8652	
464.9	8292.2	
465.1	7985.7	
465.3	6944.7	
465.5	9021.3	
465.7	8798.8	
465.9	7264.1	
466.1	7088.7	
466.3	8775.5	
466.5	8589.2	
466.7	7970.7	
466.9	6715.3	
467.1	8456.1	
467.3	9468.4	
467.5	7895.6	
467.7	6730.3	
467.9	9677.3	
468.1	10557	
468.3	7577.5	
468.5	8063.5	
468.7	8486.8	
468.9	8469	
469.1	7011.6	
469.3	7759.1	
469.5	10514	
469.7	8065.6	
469.9	7588.4	
470.1	6735.1	
470.3	8553.7	
470.5	8544.1	
470.7	8125.7	
470.9	6919.4	
471.1	8282	
471.3	8736	
471.5	6686.6	
471.69	8798.8	
471.89	8138.6	
472.09	7701	
472.29	7577.5	
472.49	7987.8	
472.69	7942.7	
472.89	8744.1	
473.09	6677.1	
473.29	6746	
473.49	8042.4	
473.69	8239.7	
473.89	7698.3	
474.09	6922.1	
474.29	9549	
474.49	9272.5	
474.69	7781.6	
474.89	7079.1	
475.09	8275.8	
475.29	8178.9	
475.49	6550.1	
475.69	6720.1	
475.88	9857.6	
476.08	8576.2	
476.28	6372.6	
476.48	6840.2	
476.68	9017.2	
476.88	8862.2	
477.08	6712.6	
477.28	7021.1	
477.48	8322.3	
477.68	9012.4	
477.88	6495.5	
478.08	6797.2	
478.28	9370.8	
478.48	8513.4	
478.67	6929.6	
478.87	6313.2	
479.07	9166	
479.27	8591.2	
479.47	7124.9	
479.67	7128.3	
479.87	8899.1	
480.07	9479.4	
480.27	6350.1	
480.47	8021.9	
480.67	8598.1	
480.87	9154.4	
481.06	6634.1	
481.26	7574.8	
481.46	8449.2	
481.66	8493.6	
481.86	7061.4	
482.06	8206.2	
482.26	8246.5	
482.46	9042.5	
482.66	7066.2	
482.86	6638.8	
483.05	8587.8	
483.25	8028.7	
483.45	9515.5	
483.65	7071.6	
483.85	8168	
484.05	8534.6	
484.25	7453.2	
484.45	8020.5	
484.65	9398.1	
484.84	9340.8	
485.04	6972.7	
485.24	7055.9	
485.44	9733.3	
485.64	7942.7	
485.84	6245.6	
486.04	7734.5	
486.24	8338.6	
486.44	8781.7	
486.63	6231.3	
486.83	7098.3	
487.03	8267.6	
487.23	8557.1	
487.43	6413.6	
487.63	8927.8	
487.83	8533.9	
488.02	9714.2	
488.22	7380.2	
488.42	8062.9	
488.62	9430.2	
488.82	8416.5	
489.02	7068.2	
489.22	7193.1	
489.41	9362.6	
489.61	8978.3	
489.81	6858	
490.01	6851.1	
490.21	9261.6	
490.41	9986.6	
490.61	6765.1	
490.8	6972	
491	8805.6	
491.2	8090.8	
491.4	7582.3	
491.6	6632.7	
491.8	8725	
491.99	8975.6	
492.19	6462.7	
492.39	6865.5	
492.59	9214.5	
492.79	9360.6	
492.99	7682.6	
493.18	6756.2	
493.38	9325.8	
493.58	10226	
493.78	7585.7	
493.98	7195.2	
494.18	9039.7	
494.37	8570.1	
494.57	7817.8	
494.77	7721.5	
494.97	9330.5	
495.17	9716.9	
495.37	7382.9	
495.56	7676.5	
495.76	9959.3	
495.96	9411.8	
496.16	8594.6	
496.36	7546.1	
496.55	9774.3	
496.75	9212.4	
496.95	7856.7	
497.15	7746.8	
497.35	9648.7	
497.54	9659.6	
497.74	7650.5	
497.94	9381.1	
498.14	10418	
498.34	10168	
498.53	7232.7	
498.73	8163.9	
498.93	9015.2	
499.13	9731.3	
499.33	7927.7	
499.52	8608.3	
499.72	9669.8	
499.92	9942.9	
500.12	7637.6	
500.32	7870.3	
500.51	9990.7	
500.71	9764.7	
500.91	8697	
501.11	8313.4	
501.31	9812.5	
501.5	10283	
501.7	8996.7	
501.9	7901.1	
502.1	9774.3	
502.29	9956.5	
502.49	8441	
502.69	8801.5	
502.89	9830.2	
503.09	9886.2	
503.28	7436.2	
503.48	7436.2	
503.68	9022	
503.88	9099.1	
504.07	8589.9	
504.27	7941.3	
504.47	9454.8	
504.67	9553.8	
504.86	8424	
505.06	8064.9	
505.26	9180.4	
505.46	10916	
505.65	8006.2	
505.85	8107.2	
506.05	9082.1	
506.25	9540.1	
506.44	7195.2	
506.64	8121.6	
506.84	8835.6	
507.04	9731.3	
507.23	7360.4	
507.43	7958.4	
507.63	10869	
507.83	9054.8	
508.02	7838.3	
508.22	7546.1	
508.42	11070	
508.62	8779.6	
508.81	7746.8	
509.01	8204.8	
509.21	8525.7	
509.4	8775.5	
509.6	7886.7	
509.8	7243	
510	8873.8	
510.19	10444	
510.39	7248.4	
510.59	7443	
510.79	8724.3	
510.98	10244	
511.18	7460.1	
511.38	7623.2	
511.57	9517.6	
511.77	9471.2	
511.97	8253.3	
512.17	7208.8	
512.36	9542.2	
512.56	9602.9	
512.76	7245.7	
512.95	7103.7	
513.15	9649.3	
513.35	8282	
513.55	8172.8	
513.74	7268.9	
513.94	9686.9	
514.14	9041.8	
514.33	8324.3	
514.53	8162.5	
514.73	9061.6	
514.92	9294.4	
515.12	7546.1	
515.32	7320.1	
515.51	9324.4	
515.71	9948.3	
515.91	9172.2	
516.11	7468.3	
516.3	11259	
516.5	9024	
516.7	8153.6	
516.89	8766.7	
517.09	9182.4	
517.29	9047.2	
517.48	8325.7	
517.68	7800.7	
517.88	8801.5	
518.07	9549.7	
518.27	8378.9	
518.47	7320.1	
518.66	10109	
518.86	8620.6	
519.06	7245	
519.25	7570	
519.45	9028.8	
519.65	10604	
519.84	8305.2	
520.04	9061.6	
520.24	11042	
520.43	9804.3	
520.63	8073.8	
520.83	7751.6	
521.02	8881.4	
521.22	9554.5	
521.42	8286.8	
521.61	8865	
521.81	9136	
522.01	9314.8	
522.2	8111.3	
522.4	7886.7	
522.6	9837.8	
522.79	8563.2	
522.99	7969.3	
523.18	7242.3	
523.38	9480.7	
523.58	9566.1	
523.77	9311.4	
523.97	7302.4	
524.17	11529	
524.36	10649	
524.56	8695	
524.76	8423.3	
524.95	9668.5	
525.15	9204.9	
525.34	8120.2	
525.54	8164.6	
525.74	10034	
525.93	8931.2	
526.13	9440.5	
526.33	8176.9	
526.52	10365	
526.72	9781.1	
526.91	9458.2	
527.11	8675.9	
527.31	10428	
527.5	10759	
527.7	8544.8	
527.89	7522.9	
528.09	9394	
528.29	9972.9	
528.48	8948.9	
528.68	8549.6	
528.87	10249	
529.07	10295	
529.27	8564.6	
529.46	7965.9	
529.66	9912.2	
529.85	10439	
530.05	7854.6	
530.25	8782.4	
530.44	11274	
530.64	9841.2	
530.83	8241	
531.03	8480.6	
531.23	10176	
531.42	10108	
531.62	9242.5	
531.81	8432.9	
532.01	10311	
532.21	10930	
532.4	8230.8	
532.6	8761.2	
532.79	11130	
532.99	10554	
533.18	8801.5	
533.38	9779.1	
533.58	10118	
533.77	10849	
533.97	8671.1	
534.16	9537.4	
534.36	11101	
534.55	10094	
534.75	9643.9	
534.95	8759.2	
535.14	10922	
535.34	10148	
535.53	8379.6	
535.73	10486	
535.92	11548	
536.12	10284	
536.31	8439.7	
536.51	9721	
536.71	10512	
536.9	10050	
537.1	8602.2	
537.29	8780.3	
537.49	11052	
537.68	10102	
537.88	9273.9	
538.07	8415.1	
538.27	10282	
538.46	11307	
538.66	8189.8	
538.86	8712.7	
539.05	10228	
539.25	10785	
539.44	9056.8	
539.64	8675.2	
539.83	10197	
540.03	11213	
540.22	8460.8	
540.42	8670.4	
540.61	10393	
540.81	10516	
541	9083.4	
541.2	9734.7	
541.39	9846	
541.59	10353	
541.78	9301.2	
541.98	8398.7	
542.18	9572.2	
542.37	9540.8	
542.57	8840.4	
542.76	9411.1	
542.96	9676.7	
543.15	10351	
543.35	8841.1	
543.54	7993.9	
543.74	10557	
543.93	10085	
544.13	8572.1	
544.32	9814.5	
544.52	10336	
544.71	9552.4	
544.91	7770.7	
545.1	8968.1	
545.3	9571.5	
545.49	10307	
545.69	7664.2	
545.88	8298.4	
546.08	11344	
546.27	10848	
546.47	8820.6	
546.66	8032.8	
546.86	10531	
547.05	11206	
547.24	8217.1	
547.44	8181	
547.63	9356.5	
547.83	10693	
548.02	8543.4	
548.22	8794.7	
548.41	9300.5	
548.61	10612	
548.8	8107.2	
549	7918.1	
549.19	9815.9	
549.39	10230	
549.58	7776.8	
549.78	8368	
549.97	10248	
550.17	9816.6	
550.36	9278.7	
550.55	10276	
550.75	9778.4	
550.94	10742	
551.14	8060.1	
551.33	8469.7	
551.53	9154.4	
551.72	10168	
551.92	8490.2	
552.11	8138.6	
552.31	10137	
552.5	10084	
552.69	9984.5	
552.89	7849.2	
553.08	10212	
553.28	9837.1	
553.47	8222.6	
553.67	9370.1	
553.86	10868	
554.06	9070.5	
554.25	7391.8	
554.44	8096.3	
554.64	11555	
554.83	11056	
555.03	7984.3	
555.22	8456.1	
555.42	10352	
555.61	10133	
555.8	8221.2	
556	8541.4	
556.19	9238.4	
556.39	10449	
556.58	8329.1	
556.78	8136.6	
556.97	9888.3	
557.16	9709.4	
557.36	9583.8	
557.55	7847.1	
557.75	8882	
557.94	10835	
558.13	8051.9	
558.33	7774.8	
558.52	10545	
558.72	9488.2	
558.91	7868.3	
559.1	8050.6	
559.3	9063.6	
559.49	8766	
559.69	7373.4	
559.88	8477.9	
560.07	9909.4	
560.27	10276	
560.46	8653.4	
560.66	8733.9	
560.85	9674.6	
561.04	8838.4	
561.24	7851.2	
561.43	8059.4	
561.63	9129.8	
561.82	9385.8	
562.01	9159.9	
562.21	8312.7	
562.4	9878	
562.59	10817	
562.79	8145.5	
562.98	7764.5	
563.18	9760.6	
563.37	11194	
563.56	8643.8	
563.76	7651.9	
563.95	9299.8	
564.14	9119.6	
564.34	8155.7	
564.53	7827.3	
564.73	9700.5	
564.92	10097	
565.11	8159.1	
565.31	7582.3	
565.5	10334	
565.69	9273.2	
565.89	7860.1	
566.08	8116.1	
566.27	10234	
566.47	10658	
566.66	8817.9	
566.85	7403.4	
567.05	9785.2	
567.24	9179.7	
567.44	7773.4	
567.63	9189.2	
567.82	9962.7	
568.02	9748.3	
568.21	7699.7	
568.4	8154.3	
568.6	9542.9	
568.79	9547.6	
568.98	7485.3	
569.18	7623.9	
569.37	9469.8	
569.56	11546	
569.76	8014.4	
569.95	8993.3	
570.14	9856.9	
570.34	9652.1	
570.53	7375.4	
570.72	7457.3	
570.91	10216	
571.11	9282.8	
571.3	7778.9	
571.49	8693.6	
571.69	9335.3	
571.88	8793.3	
572.07	8425.3	
572.27	8391.2	
572.46	8803.5	
572.65	9907.4	
572.85	7587	
573.04	7974.8	
573.23	10075	
573.43	9379.7	
573.62	7371.3	
573.81	8011.7	
574	9389.3	
574.2	9167.4	
574.39	7708.6	
574.58	7920.2	
574.78	10378	
574.97	9524.4	
575.16	8243.8	
575.36	8451.3	
575.55	9940.2	
575.74	10025	
575.93	7337.2	
576.13	8470.4	
576.32	9243.8	
576.51	9813.9	
576.71	7714	
576.9	9220	
577.09	10056	
577.28	9630.2	
577.48	8269.7	
577.67	7161.7	
577.86	9316.9	
578.05	9598.8	
578.25	7853.3	
578.44	8020.5	
578.63	9391.3	
578.83	10643	
579.02	7244.3	
579.21	8892.3	
579.4	9692.4	
579.6	9355.1	
579.79	7985.7	
579.98	10350	
580.17	10105	
580.37	10154	
580.56	7471.7	
580.75	8370	
580.94	10570	
581.14	10439	
581.33	8850.6	
581.52	7819.8	
581.71	9979.1	
581.91	10644	
582.1	7503.8	
582.29	8273.1	
582.48	9669.8	
582.68	9569.5	
582.87	8713.4	
583.06	8289.5	
583.25	10137	
583.45	9777.7	
583.64	9030.9	
583.83	9759.9	
584.02	9595.4	
584.21	9995.5	
584.41	8968.7	
584.6	8194.6	
584.79	9790.7	
584.98	10508	
585.18	7701.7	
585.37	7711.3	
585.56	9273.9	
585.75	10073	
585.94	7906.5	
586.14	8553.7	
586.33	10753	
586.52	9663	
586.71	8363.9	
586.91	8138.6	
587.1	8943.5	
587.29	10058	
587.48	7970.7	
587.67	7838.3	
587.87	9929.9	
588.06	9902.6	
588.25	9141.4	
588.44	8424	
588.63	9417.2	
588.83	9979.8	
589.02	7655.3	
589.21	7506.5	
589.4	8891.6	
589.59	8782.4	
589.78	6604	
589.98	6783.6	
590.17	8202.8	
590.36	8747.6	
590.55	5956.2	
590.74	6883.2	
590.94	9898.5	
591.13	8471.8	
591.32	6509.8	
591.51	6028.5	
591.7	8899.1	
591.89	8344.1	
592.09	6202.6	
592.28	6733	
592.47	7606.2	
592.66	9579.7	
592.85	6335.7	
593.05	6468.2	
593.24	8247.9	
593.43	9113.5	
593.62	6557.6	
593.81	7126.9	
594	8324.3	
594.19	8714.8	
594.39	6559.6	
594.58	6556.2	
594.77	8871.1	
594.96	9497.1	
595.15	6566.5	
595.34	7158.3	
595.54	8905.9	
595.73	7796.6	
595.92	5840.1	
596.11	6982.9	
596.3	9344.9	
596.49	7879.2	
596.68	6801.3	
596.88	7290.8	
597.07	9082.7	
597.26	7930.4	
597.45	6361.7	
597.64	7669	
597.83	8185.7	
598.02	8825.4	
598.22	6515.3	
598.41	7167.2	
598.6	8673.8	
598.79	8066.9	
598.98	6617	
599.17	7647.1	
599.36	8672.5	
599.55	9916.9	
599.74	8759.8	
599.94	8499.1	
600.13	9346.2	
600.32	8060.8	
600.51	6442.9	
600.7	6662	
600.89	10049	
601.08	10073	
601.27	6477	
601.47	7524.9	
601.66	9399.5	
601.85	10140	
602.04	7262.1	
602.23	7522.2	
602.42	8446.5	
602.61	9093	
602.8	7145.4	
602.99	7005.4	
603.18	8927.1	
603.37	9122.3	
603.57	7724.9	
603.76	8178.2	
603.95	9918.3	
604.14	9354.4	
604.33	7077.1	
604.52	7445.7	
604.71	9141.4	
604.9	8722.3	
605.09	8116.8	
605.28	8002.8	
605.47	9791.3	
605.66	9370.1	
605.86	7775.5	
606.05	7238.9	
606.24	9771.5	
606.43	8193.2	
606.62	7529	
606.81	8330.5	
607	9568.1	
607.19	8992.6	
607.38	6903.7	
607.57	7270.3	
607.76	8670.4	
607.95	8208.9	
608.14	7637.6	
608.33	8226	
608.52	8635.6	
608.72	9619.3	
608.91	6783.6	
609.1	6810.2	
609.29	8810.4	
609.48	8206.2	
609.67	7750.9	
609.86	6813.6	
610.05	8319.5	
610.24	8676.6	
610.43	6651.1	
610.62	6326.9	
610.81	9910.1	
611	9622.7	
611.19	6817	
611.38	7514.7	
611.57	9042.5	
611.76	10387	
611.95	6594.5	
612.14	6446.3	
612.33	8848.6	
612.52	8393.9	
612.71	7187.7	
612.9	6352.1	
613.09	8001.4	
613.28	10369	
613.47	6860	
613.66	7862.8	
613.85	8914.8	
614.04	8448.6	
614.24	6937.2	
614.43	6225.1	
614.62	9041.8	
614.81	8976.2	
615	7508.5	
615.19	7505.1	
615.38	8300.4	
615.57	8703.2	
615.76	7404.1	
615.95	8433.5	
616.14	9144.9	
616.33	8723	
616.52	7686.7	
616.71	7993.9	
616.9	8964.6	
617.09	8871.1	
617.28	7005.4	
617.47	8312.7	
617.66	8109.3	
617.85	8149.6	
618.04	7923.6	
618.22	7349.5	
618.41	8492.2	
618.6	9393.4	
618.79	7376.8	
618.98	6998.6	
619.17	9891	
619.36	8110.6	
619.55	7141.9	
619.74	7182.2	
619.93	8987.9	
620.12	8378.9	
620.31	7703.1	
620.5	7811.6	
620.69	9566.7	
620.88	9932	
621.07	8686.8	
621.26	7651.2	
621.45	9163.3	
621.64	9205.6	
621.83	7785.7	
622.02	6873.7	
622.21	9161.9	
622.4	8880	
622.59	8228.1	
622.78	8012.3	
622.97	8529.1	
623.16	9527.2	
623.35	7676.5	
623.54	6730.3	
623.72	8684.8	
623.91	8877.9	
624.1	7848.5	
624.29	6567.2	
624.48	10003	
624.67	9127.1	
624.86	7745.4	
625.05	6791.7	
625.24	10107	
625.43	8409.6	
625.62	9448.6	
625.81	6954.2	
626	9427.5	
626.19	8647.2	
626.38	7760.4	
626.56	7142.6	
626.75	8384.4	
626.94	9189.2	
627.13	7724.9	
627.32	6296.8	
627.51	8966	
627.7	10432	
627.89	6399.2	
628.08	7592.5	
628.27	8065.6	
628.46	8318.2	
628.65	6599.9	
628.83	6218.3	
629.02	8921	
629.21	8112	
629.4	7147.4	
629.59	7347.4	
629.78	8048.5	
629.97	9080.7	
630.16	7382.2	
630.35	6853.2	
630.54	9502.6	
630.72	9254.8	
630.91	6870.9	
631.1	7456	
631.29	8792.6	
631.48	8946.9	
631.67	7445.7	
631.86	6937.8	
632.05	8259.5	
632.24	8399.4	
632.42	6638.8	
632.61	7211.6	
632.8	8566	
632.99	8178.2	
633.18	7336.5	
633.37	7798	
633.56	8806.3	
633.75	8572.1	
633.93	7324.2	
634.12	6892.8	
634.31	9622.7	
634.5	9232.2	
634.69	7058	
634.88	7457.3	
635.07	8546.9	
635.25	9125.7	
635.44	7992.5	
635.63	8138.6	
635.82	8423.3	
636.01	7912	
636.2	7922.9	
636.39	7384.3	
636.57	9616.6	
636.76	9352.4	
636.95	6830	
637.14	8363.2	
637.33	8935.3	
637.52	9755.2	
637.7	6689.3	
637.89	7584.3	
638.08	8480.6	
638.27	9977	
638.46	7749.5	
638.65	8075.8	
638.83	10035	
639.02	8269	
639.21	7592.5	
639.4	8088.1	
639.59	8797.4	
639.78	8361.2	
639.96	6812.2	
640.15	6898.9	
640.34	8661.5	
640.53	8853.4	
640.72	6561.7	
640.91	6862.1	
641.09	8098.4	
641.28	9514.2	
641.47	6849.8	
641.66	7752.9	
641.85	8783.1	
642.03	9087.5	
642.22	7516.7	
642.41	6958.3	
642.6	8181.6	
642.79	7576.1	
642.97	6692.1	
643.16	7517.4	
643.35	8087.4	
643.54	7879.2	
643.73	6580.1	
643.91	7413.6	
644.1	7727	
644.29	8356.4	
644.48	6624.5	
644.67	6718.7	
644.85	7836.2	
645.04	8200.1	
645.23	6143.2	
645.42	6389	
645.6	7466.2	
645.79	8811	
645.98	6297.5	
646.17	5233.2	
646.36	7243	
646.54	7779.6	
646.73	6970.6	
646.92	5792.3	
647.11	7292.8	
647.29	8432.2	
647.48	5841.5	
647.67	5580	
647.86	8721.6	
648.05	8692.3	
648.23	6223.1	
648.42	7609.6	
648.61	8120.2	
648.8	7920.2	
648.98	5893.4	
649.17	6130.3	
649.36	7442.3	
649.55	6957.6	
649.73	6060.6	
649.92	6855.9	
650.11	7419.8	
650.3	7790.5	
650.48	6138.4	
650.67	5928.2	
650.86	8052.6	
651.05	6886	
651.23	6066.8	
651.42	6066.8	
651.61	7458.7	
651.79	7511.3	
651.98	6244.9	
652.17	5929.6	
652.36	7967.3	
652.54	7000	
652.73	5983.5	
652.92	5823.7	
653.11	8133.8	
653.29	8082	
653.48	5221.6	
653.67	6238.8	
653.85	7779.6	
654.04	8835.6	
654.23	6582.2	
654.42	5974.6	
654.6	7322.2	
654.79	7933.1	
654.98	5450.3	
655.16	6065.4	
655.35	6806.1	
655.54	6797.2	
655.73	5516.5	
655.91	5476.3	
656.1	7922.9	
656.29	6806.8	
656.47	5099.4	
656.66	6892.1	
656.85	7111.9	
657.03	7114.6	
657.22	5666.7	
657.41	5783.5	
657.59	7337.2	
657.78	7081.2	
657.97	5384.1	
658.16	6158.9	
658.34	7908.6	
658.53	8359.1	
658.72	7010.2	
658.9	7651.2	
659.09	7346.7	
659.28	7471	
659.46	5943.2	
659.65	5941.8	
659.84	7292.8	
660.02	7772	
660.21	5748.6	
660.4	5800.5	
660.58	8357.8	
660.77	7645.8	
660.96	6421.7	
661.14	5480.4	
661.33	8830.2	
661.52	8742.8	
661.7	5408	
661.89	9183.8	
662.08	7283.9	
662.26	6876.4	
662.45	5642.2	
662.64	5822.4	
662.82	7944.1	
663.01	7078.5	
663.2	5901.6	
663.38	6672.3	
663.57	7816.4	
663.75	7679.2	
663.94	6150.1	
664.13	7548.1	
664.31	7258.7	
664.5	8006.2	
664.69	6455.2	
664.87	7071	
665.06	6942.6	
665.25	7731.1	
665.43	7264.1	
665.62	7344	
665.8	8077.2	
665.99	7327.6	
666.18	6168.5	
666.36	6343.9	
666.55	8045.8	
666.74	7901.7	
666.92	5816.2	
667.11	7584.3	
667.29	7382.2	
667.48	8034.9	
667.67	7208.2	
667.85	6192.4	
668.04	7391.8	
668.22	7392.5	
668.41	6326.2	
668.6	6466.8	
668.78	7236.2	
668.97	7401.4	
669.15	6599.9	
669.34	5522	
669.53	7151.5	
669.71	7531.1	
669.9	5739.8	
670.08	6466.1	
670.27	7237.5	
670.46	7786.4	
670.64	6632	
670.83	6881.9	
671.01	7081.2	
671.2	7693.5	
671.38	5817.6	
671.57	5775.3	
671.76	8340	
671.94	8992.6	
672.13	5694	
672.31	6768.5	
672.5	7894.9	
672.69	7241.6	
672.87	5857.2	
673.06	6167.1	
673.24	7691.5	
673.43	7262.1	
673.61	6699.6	
673.8	6060.6	
673.98	7881.9	
674.17	8004.1	
674.36	6660.7	
674.54	6552.1	
674.73	7688.1	
674.91	7856	
675.1	6225.1	
675.28	5897.5	
675.47	7480.5	
675.65	7988.4	
675.84	6095.4	
676.03	6535.8	
676.21	7214.3	
676.4	6724.2	
676.58	6899.6	
676.77	6663.4	
676.95	8695	
677.14	7180.2	
677.32	5760.9	
677.51	5634.6	
677.69	7931.1	
677.88	6827.9	
678.06	5660.6	
678.25	5642.2	
678.44	7416.4	
678.62	7174.7	
678.81	5425.1	
678.99	6427.9	
679.18	8245.1	
679.36	7834.2	
679.55	6012.2	
679.73	6681.2	
679.92	7756.3	
680.1	7141.9	
680.29	7323.5	
680.47	6060.6	
680.66	7040.2	
680.84	7972.1	
681.03	5277.6	
681.21	6355.5	
681.4	7124.9	
681.58	7067.5	
681.77	5768.4	
681.95	5642.2	
682.14	7983	
682.32	8363.2	
682.51	6663.4	
682.69	5474.9	
682.88	7012.2	
683.06	7677.8	
683.25	6382.2	
683.43	6818.4	
683.62	7245	
683.8	7695.6	
683.99	6907.8	
684.17	6145.3	
684.36	8596	
684.54	7180.2	
684.73	5247.6	
684.91	5466	
685.1	7384.3	
685.28	6701	
685.46	5805.3	
685.65	5884.5	
685.83	7388.4	
686.02	6767.2	
686.2	5227.8	
686.39	5350.7	
686.57	6692.8	
686.76	8125	
686.94	5334.3	
687.13	5439.4	
687.31	7368.6	
687.5	6782.2	
687.68	4918.5	
687.86	6227.9	
688.05	8397.4	
688.23	6233.3	
688.42	6228.6	
688.6	5426.4	
688.79	6744	
688.97	6754.2	
689.16	5851.7	
689.34	4707.6	
689.52	7413.6	
689.71	7672.4	
689.89	6057.2	
690.08	5313.8	
690.26	6982.9	
690.45	6741.2	
690.63	6207.4	
690.81	5423	
691	6571.9	
691.18	6555.5	
691.37	5554.8	
691.55	7753.6	
691.74	6472.3	
691.92	8492.9	
692.1	5543.9	
692.29	4851	
692.47	6684.6	
692.66	5894.7	
692.84	5096.7	
693.02	5844.2	
693.21	6092	
693.39	6589.7	
693.58	5943.2	
693.76	5209.3	
693.94	7877.9	
694.13	7583.6	
694.31	5257.8	
694.5	6353.5	
694.68	6475	
694.86	6910.5	
695.05	5707.7	
695.23	5844.9	
695.42	7342	
695.6	9787.2	
695.78	6363.7	
695.97	5430.5	
696.15	7357	
696.34	6764.4	
696.52	5238	
696.7	5936.4	
696.89	6972	
697.07	6410.1	
697.25	5849.7	
697.44	7419.8	
697.62	6860	
697.81	7349.5	
697.99	5510.4	
698.17	5944.6	
698.36	6234	
698.54	7023.2	
698.72	5760.9	
698.91	4745.8	
699.09	6479.8	
699.28	6378.1	
699.46	5463.3	
699.64	5314.5	
699.83	6249.7	
700.01	7642.3	
700.19	6134.3	
700.38	4586.1	
700.56	7638.9	
700.74	6414.2	
700.93	5051	
701.11	5842.2	
701.29	7071	
701.48	8242.4	
701.66	5326.1	
701.84	5371.8	
702.03	6652.5	
702.21	7405.5	
702.39	4868	
702.58	5500.8	
702.76	7051.2	
702.94	7174.7	
703.13	4830.5	
703.31	7329	
703.49	6327.5	
703.68	7426.6	
703.86	5087.2	
704.04	6036.7	
704.23	6875.7	
704.41	7277.1	
704.59	5259.2	
704.78	6524.1	
704.96	7925	
705.14	7311.2	
705.33	5036	
705.51	5921.4	
705.69	6725.5	
705.87	7574.1	
706.06	6173.3	
706.24	5040.1	
706.42	7017.7	
706.61	7346.1	
706.79	6231.3	
706.97	5024.3	
707.16	6464.8	
707.34	7086	
707.52	6202.6	
707.7	5289.2	
707.89	6707.1	
708.07	6296.1	
708.25	6197.2	
708.44	6274.3	
708.62	6596.5	
708.8	7727.7	
708.98	6500.9	
709.17	5418.2	
709.35	7111.9	
709.53	7110.5	
709.72	5112.4	
709.9	5396.4	
710.08	7309.2	
710.26	7351.5	
710.45	6810.2	
710.63	5375.9	
710.81	6953.5	
710.99	7004.7	
711.18	6014.9	
711.36	5578.7	
711.54	6751.5	
711.72	7473	
711.91	5636.7	
712.09	4991.6	
712.27	6914.6	
712.45	7517.4	
712.64	5881.1	
712.82	4748.6	
713	6274.3	
713.18	6475	
713.37	4920.6	
713.55	6130.3	
713.73	7364.5	
713.91	5808	
714.1	5204.6	
714.28	4544.4	
714.46	6814.3	
714.64	6075.6	
714.83	3968.3	
715.01	4893.3	
715.19	6052.4	
715.37	5440.8	
715.55	4539	
715.74	4904.2	
715.92	7021.1	
716.1	4962.2	
716.28	6049	
716.47	5022.3	
716.65	5675.6	
716.83	5840.1	
717.01	4848.2	
717.19	4932.2	
717.38	7892.9	
717.56	5501.5	
717.74	5168.4	
717.92	4253.6	
718.1	6731.7	
718.29	5973.9	
718.47	3913.7	
718.65	4578.6	
718.83	6630.6	
719.01	6636.1	
719.2	3781.2	
719.38	4970.4	
719.56	6335	
719.74	7933.1	
719.92	4448.2	
720.11	5635.3	
720.29	6321.4	
720.47	5406.6	
720.65	4029.7	
720.83	4966.3	
721.02	5873.6	
721.2	5534.3	
721.38	5023.7	
721.56	4259.8	
721.74	5061.2	
721.92	5290.6	
722.11	5543.2	
722.29	5193	
722.47	6552.8	
722.65	5684.5	
722.83	4245.4	
723.01	5216.2	
723.2	5791	
723.38	6057.9	
723.56	3638.6	
723.74	4881.7	
723.92	5294.7	
724.1	6475	
724.29	4143	
724.47	5405.3	
724.65	5374.6	
724.83	5288.5	
725.01	4091.2	
725.19	5060.5	
725.37	5396.4	
725.56	5453.1	
725.74	3988.8	
725.92	4274.1	
726.1	5327.4	
726.28	5624.4	
726.46	4693.3	
726.64	4410.6	
726.83	5590.3	
727.01	5873.6	
727.19	3891.8	
727.37	4841.4	
727.55	5647.6	
727.73	6211.5	
727.91	3952.6	
728.09	3773	
728.28	6261.3	
728.46	6939.9	
728.64	4946.5	
728.82	4866.7	
729	7411.6	
729.18	6644.3	
729.36	4118.5	
729.54	6549.4	
729.72	7775.5	
729.91	5937.7	
730.09	6146	
730.27	4882.4	
730.45	5859.2	
730.63	6569.9	
730.81	5553.4	
730.99	4506.9	
731.17	7131	
731.35	5675.6	
731.53	5152.7	
731.71	4625.7	
731.9	6803.4	
732.08	7065.5	
732.26	4958.1	
732.44	4550.6	
732.62	7129	
732.8	6457.2	
732.98	5435.3	
733.16	4368.3	
733.34	6563.1	
733.52	5318.6	
733.7	4895.3	
733.88	5203.2	
734.07	6401.3	
734.25	6122.1	
734.43	4335.5	
734.61	6068.8	
734.79	7817.1	
734.97	6053.8	
735.15	4584	
735.33	4915.8	
735.51	6448.4	
735.69	6040.8	
735.87	6159.6	
736.05	5118.6	
736.23	6284.5	
736.41	6097.5	
736.59	5033.2	
736.77	5146.5	
736.95	6768.5	
737.13	6205.3	
737.32	4729.4	
737.5	4898.7	
737.68	7368.6	
737.86	6129.6	
738.04	4416.8	
738.22	6410.8	
738.4	5964.4	
738.58	6213.5	
738.76	5238	
738.94	4118.5	
739.12	6040.8	
739.3	5940.5	
739.48	5872.2	
739.66	5573.9	
739.84	6412.9	
740.02	6374	
740.2	4260.5	
740.38	4666	
740.56	6783.6	
740.74	5601.9	
740.92	5320.6	
741.1	5283.8	
741.28	6251.1	
741.46	6079.1	
741.64	4872.8	
741.82	5454.4	
742	6223.8	
742.18	6250.4	
742.36	5109.7	
742.54	4609.3	
742.72	6830.7	
742.9	5550.7	
743.08	5512.4	
743.26	4305.5	
743.44	7136.5	
743.62	6911.9	
743.8	5694	
743.98	4672.1	
744.16	6593.8	
744.34	6382.8	
744.52	5598.5	
744.7	5471.5	
744.88	6726.9	
745.06	6299.6	
745.24	5618.3	
745.42	5793.7	
745.6	6868.2	
745.78	6606.1	
745.96	4422.2	
746.14	4801.8	
746.32	7689.4	
746.5	6860.7	
746.68	5360.9	
746.86	4739	
747.03	7333.1	
747.21	5580.7	
747.39	5323.4	
747.57	4788.2	
747.75	6461.3	
747.93	6836.8	
748.11	4709.6	
748.29	4671.4	
748.47	8062.2	
748.65	6154.1	
748.83	5516.5	
749.01	5263.3	
749.19	6660.7	
749.37	5825.8	
749.55	5092.6	
749.73	5234.6	
749.91	6293.4	
750.09	6029.2	
750.26	5226.4	
750.44	4631.8	
750.62	6352.1	
750.8	6444.3	
750.98	4408.6	
751.16	4798.4	
751.34	6369.9	
751.52	5711.1	
751.7	5670.8	
751.88	4378.6	
752.06	6862.7	
752.24	6613.6	
752.42	4362.2	
752.59	4773.1	
752.77	6261.3	
752.95	7541.3	
753.13	5499.5	
753.31	4864.6	
753.49	6009.4	
753.67	6427.2	
753.85	5154.1	
754.03	4747.9	
754.21	6752.8	
754.38	7062.8	
754.56	4911.7	
754.74	3930.7	
754.92	5910.4	
755.1	6696.2	
755.28	3938.2	
755.46	4012	
755.64	7352.9	
755.82	7531.1	
755.99	4222.9	
756.17	4309.6	
756.35	4926.7	
756.53	6541.9	
756.71	3212.6	
756.89	4182.6	
757.07	6043.6	
757.25	5171.1	
757.42	4697.4	
757.6	5679.7	
757.78	6153.5	
757.96	5079.6	
758.14	4358.8	
758.32	3829.7	
758.5	4626.4	
758.67	5511.1	
758.85	4201.1	
759.03	4309.6	
759.21	5684.5	
759.39	5109.7	
759.57	3738.2	
759.75	4928.8	
759.92	6354.8	
760.1	5599.8	
760.28	5269.4	
760.46	5538.4	
760.64	5321.3	
760.82	5007.3	
760.99	4960.9	
761.17	4324.6	
761.35	6198.5	
761.53	5154.7	
761.71	4415.4	
761.89	5201.2	
762.06	6189.6	
762.24	5556.8	
762.42	4513	
762.6	4343.7	
762.78	5632.6	
762.96	5584.1	
763.13	4966.3	
763.31	4638.6	
763.49	6489.3	
763.67	5575.9	
763.85	5514.5	
764.02	6120.7	
764.2	6835.4	
764.38	5938.4	
764.56	4527.4	
764.74	5442.8	
764.91	6950.1	
765.09	5738.4	
765.27	4215.4	
765.45	4069.3	
765.63	6928.3	
765.8	6888	
765.98	3665.9	
766.16	4095.9	
766.34	5356.8	
766.52	5122.7	
766.69	5096.7	
766.87	3956.7	
767.05	5826.5	
767.23	6656.6	
767.41	4247.5	
767.58	4550.6	
767.76	6400.6	
767.94	6471.6	
768.12	4397.7	
768.29	5223.7	
768.47	5899.5	
768.65	6634.7	
768.83	4007.2	
769	5143.8	
769.18	5382.7	
769.36	6152.1	
769.54	5005.2	
769.72	4071.4	
769.89	6399.9	
770.07	6565.1	
770.25	4339	
770.43	5715.2	
770.6	7180.9	
770.78	7685.3	
770.96	4553.3	
771.14	5238	
771.31	6354.8	
771.49	5702.2	
771.67	3688.4	
771.85	4008.6	
772.02	4893.3	
772.2	5588.2	
772.38	4720.6	
772.55	4199	
772.73	5928.2	
772.91	5705.6	
773.09	4604.5	
773.26	4730.1	
773.44	5851.7	
773.62	5578.7	
773.8	4115.1	
773.97	3838.6	
774.15	5956.9	
774.33	5562.3	
774.5	3949.8	
774.68	4386.7	
774.86	6180.1	
775.04	5586.2	
775.21	4057	
775.39	4077.5	
775.57	5930.9	
775.74	6369.9	
775.92	3973.1	
776.1	3813.3	
776.27	5814.9	
776.45	7165.2	
776.63	4033.8	
776.81	3605.1	
776.98	5498.8	
777.16	6657.3	
777.34	4227.7	
777.51	4196.3	
777.69	5501.5	
777.87	5263.3	
778.04	4206.5	
778.22	4976.6	
778.4	5246.9	
778.57	6032	
778.75	3469.3	
778.93	3849.5	
779.1	5121.3	
779.28	4954	
779.46	3548.4	
779.64	4005.1	
779.81	6142.5	
779.99	7012.2	
780.17	4835.9	
780.34	5004.6	
780.52	5541.1	
780.69	5728.9	
780.87	4358.8	
781.05	3947.1	
781.22	5606	
781.4	5682.4	
781.58	4055	
781.75	3172.3	
781.93	5645.6	
782.11	5061.9	
782.28	5055.1	
782.46	4053.6	
782.64	4884.4	
782.81	5881.1	
782.99	4207.9	
783.17	4127.3	
783.34	5673.6	
783.52	4950.6	
783.69	4317.8	
783.87	5211.4	
784.05	5072.8	
784.22	5042.1	
784.4	5199.8	
784.58	4434.5	
784.75	5997.8	
784.93	5010.7	
785.1	4044.7	
785.28	4761.5	
785.46	5786.2	
785.63	5039.4	
785.81	4083	
785.99	3946.4	
786.16	5147.9	
786.34	5597.1	
786.51	3919.8	
786.69	4351.9	
786.87	4799.1	
787.04	5340.4	
787.22	3797.6	
787.39	4786.8	
787.57	5029.8	
787.75	6200.6	
787.92	5019.6	
788.1	4927.4	
788.27	5074.9	
788.45	4817.5	
788.63	4662.5	
788.8	3280.2	
788.98	5603.9	
789.15	4744.5	
789.33	3394.2	
789.5	4125.3	
789.68	6059.9	
789.86	6118.6	
790.03	4576.5	
790.21	3928.7	
790.38	5988.3	
790.56	5180.7	
790.73	3829.7	
790.91	3867.2	
791.09	5023.7	
791.26	5872.9	
791.44	4094.6	
791.61	3495.2	
791.79	5022.3	
791.96	5122	
792.14	3633.8	
792.32	3170.9	
792.49	5042.8	
792.67	5246.2	
792.84	3698.6	
793.02	3447.4	
793.19	5491.3	
793.37	6296.1	
793.54	3239.9	
793.72	3543	
793.89	6398.5	
794.07	5055.1	
794.25	4231.1	
794.42	3226.9	
794.6	6204	
794.77	5855.8	
794.95	4503.5	
795.12	3916.4	
795.3	5022.3	
795.47	5752.7	
795.65	4277.5	
795.82	4071.4	
796	4904.9	
796.17	6793.8	
796.35	3964.9	
796.52	4729.4	
796.7	5550	
796.87	5738.4	
797.05	4967.7	
797.22	4952	
797.4	5715.2	
797.57	6691.4	
797.75	4144.4	
797.92	3875.4	
798.1	6014.2	
798.27	5094	
798.45	3327.3	
798.62	3562.1	
798.8	5383.4	
798.97	5924.8	
799.15	4340.3	
799.32	4088.4	
799.5	4625	
799.67	5517.9	
799.85	4459.8	
800.02	3270.6	
800.2	4994.3	
800.37	5424.4	
800.55	4678.2	
800.72	3907.5	
800.9	5855.8	
801.07	6327.5	
801.25	5272.8	
801.42	4241.3	
801.6	5922.7	
801.77	5634.6	
801.95	3809.9	
802.12	3786	
802.29	5569.1	
802.47	5604.6	
802.64	4242.7	
802.82	3164.1	
802.99	5018.2	
803.17	6030.6	
803.34	4134.8	
803.52	3730	
803.69	6711.9	
803.87	4788.8	
804.04	4083	
804.21	4186.7	
804.39	6165.1	
804.56	5278.3	
804.74	3467.2	
804.91	4272.7	
805.09	5017.5	
805.26	5159.5	
805.44	3575.8	
805.61	3888.4	
805.78	5764.3	
805.96	5852.4	
806.13	4293.2	
806.31	4592.2	
806.48	4569	
806.66	5154.1	
806.83	4252.9	
807	4190.8	
807.18	5055.8	
807.35	5421.7	
807.53	4179.2	
807.7	3333.4	
807.87	6285.9	
808.05	5126.7	
808.22	4660.5	
808.4	3312.9	
808.57	5165	
808.74	4720.6	
808.92	3798.3	
809.09	4873.5	
809.27	4948.6	
809.44	5654.4	
809.61	3360	
809.79	3686.3	
809.96	6303	
810.14	5942.5	
810.31	3222.1	
810.48	4065.2	
810.66	5190.9	
810.83	5992.4	
811.01	3800.3	
811.18	4604.5	
811.35	5913.2	
811.53	4510.3	
811.7	4622.9	
811.87	4274.1	
812.05	5137	
812.22	5044.1	
812.39	3655.6	
812.57	3599	
812.74	5159.5	
812.92	6857.3	
813.09	3956.7	
813.26	4412	
813.44	6596.5	
813.61	4996.4	
813.78	3327.9	
813.96	4506.2	
814.13	5143.1	
814.3	4732.9	
814.48	4873.5	
814.65	4007.9	
814.82	6323.4	
815	4860.5	
815.17	4143.7	
815.34	5059.2	
815.52	5087.8	
815.69	5053.7	
815.87	4071.4	
816.04	3507.5	
816.21	5115.1	
816.38	4442	
816.56	3935.5	
816.73	3665.2	
816.9	6442.9	
817.08	5909.8	
817.25	3741.6	
817.42	4715.1	
817.6	4643.4	
817.77	5086.5	
817.94	4224.3	
818.12	3660.4	
818.29	4837.3	
818.46	7676.5	
818.64	3814	
818.81	3617.4	
818.98	4758.8	
819.16	7045	
819.33	4438.6	
819.5	4166.9	
819.67	5551.4	
819.85	6139.8	
820.02	4054.3	
820.19	4291.2	
820.37	5362.3	
820.54	4889.9	
820.71	4197.7	
820.88	5229.1	
821.06	5348.6	
821.23	4878.9	
821.4	4218.1	
821.58	4126	
821.75	5861.3	
821.92	5278.3	
822.09	3349.8	
822.27	3463.1	
822.44	5138.4	
822.61	5042.1	
822.79	3332	
822.96	6576.7	
823.13	5658.5	
823.3	4843.4	
823.48	3885.7	
823.65	3545	
823.82	5827.8	
823.99	4672.1	
824.17	4980.7	
824.34	3528	
824.51	6830	
824.68	5221	
824.86	3775.8	
825.03	4134.2	
825.2	5069.4	
825.37	6234.7	
825.55	3671.3	
825.72	4141.7	
825.89	6844.3	
826.06	6330.3	
826.24	4070	
826.41	4070.7	
826.58	6260.6	
826.75	5462.6	
826.92	3142.9	
827.1	3533.4	
827.27	8599.4	
827.44	6812.2	
827.61	3830.4	
827.79	4661.2	
827.96	4903.5	
828.13	5240.8	
828.3	3959.4	
828.47	3327.9	
828.65	5341.1	
828.82	5294.7	
828.99	5172.5	
829.16	4490.5	
829.34	5753.4	
829.51	5499.5	
829.68	4165.6	
829.85	4332.1	
830.02	6040.1	
830.2	5754.1	
830.37	3183.2	
830.54	5025	
830.71	6584.9	
830.88	5113.1	
831.05	3194.1	
831.23	3760.1	
831.4	6272.2	
831.57	7048.4	
831.74	3805.1	
831.91	3381.9	
832.09	5345.9	
832.26	5763.7	
832.43	4012.7	
832.6	4498.7	
832.77	5344.5	
832.94	6160.3	
833.12	3160.7	
833.29	3887.7	
833.46	5535	
833.63	7316.7	
833.8	4367.6	
833.97	4011.3	
834.15	5765.7	
834.32	5505.6	
834.49	4148.5	
834.66	4219.5	
834.83	6021	
835	4868	
835.17	3787.4	
835.35	3902.1	
835.52	5665.4	
835.69	5486.5	
835.86	4084.3	
836.03	3319.1	
836.2	5691.3	
836.37	5317.2	
836.55	4000.4	
836.72	3762.8	
836.89	5279.7	
837.06	5743.2	
837.23	4009.2	
837.4	4392.9	
837.57	6588.3	
837.75	7288	
837.92	3668.6	
838.09	3859.7	
838.26	5276.9	
838.43	5993	
838.6	4174.4	
838.77	3749.1	
838.94	6935.1	
839.11	6586.3	
839.29	3951.9	
839.46	3125.2	
839.63	5674.2	
839.8	5436.7	
839.97	3829	
840.14	3839.3	
840.31	5457.2	
840.48	5713.2	
840.65	3173	
840.82	3758	
841	5763	
841.17	5650.3	
841.34	3562.1	
841.51	3651.5	
841.68	5630.5	
841.85	5449	
842.02	3670.6	
842.19	3020.1	
842.36	5446.9	
842.53	5482.4	
842.7	3583.9	
842.87	4434.5	
843.05	7221.1	
843.22	5390.3	
843.39	3409.9	
843.56	3634.5	
843.73	5116.5	
843.9	5758.2	
844.07	5822.4	
844.24	4889.9	
844.41	8496.3	
844.58	5016.2	
844.75	3426.3	
844.92	3745.1	
845.09	5696.8	
845.26	5743.9	
845.43	3563.5	
845.6	3738.2	
845.77	5758.2	
845.94	5387.5	
846.12	3908.2	
846.29	4173.8	
846.46	5898.1	
846.63	5709.7	
846.8	3633.8	
846.97	4186	
847.14	6181.5	
847.31	5668.8	
847.48	3994.2	
847.65	4416.8	
847.82	6025.1	
847.99	5999.2	
848.16	4751.3	
848.33	4375.1	
848.5	5274.9	
848.67	6176.7	
848.84	3458.3	
849.01	3692.5	
849.18	5153.4	
849.35	4764.9	
849.52	4485.7	
849.69	3452.9	
849.86	5933	
850.03	6164.4	
850.2	3533.4	
850.37	4273.4	
850.54	6075	
850.71	5408.7	
850.88	4248.9	
851.05	3474.7	
851.22	5610.1	
851.39	6281.8	
851.56	3302.7	
851.73	4042.7	
851.9	5007.3	
852.07	5986.9	
852.24	3872	
852.41	3535.5	
852.58	5607.3	
852.75	5087.2	
852.92	3970.3	
853.09	3497.2	
853.26	5309.7	
853.43	6215.6	
853.6	3519.8	
853.77	2978.4	
853.94	6284.5	
854.11	4998.4	
854.28	5212.8	
854.44	3794.9	
854.61	6674.3	
854.78	5836	
854.95	3497.2	
855.12	4435.2	
855.29	4593.6	
855.46	6472.3	
855.63	3517.7	
855.8	4942.4	
855.97	5278.3	
856.14	6078.4	
856.31	4977.9	
856.48	3854.3	
856.65	5294.7	
856.82	5029.1	
856.99	3373.7	
857.16	3736.2	
857.33	7023.9	
857.49	5393.7	
857.66	3850.9	
857.83	4094.6	
858	5283.8	
858.17	5498.1	
858.34	3314.3	
858.51	3483.6	
858.68	6490	
858.85	6501.6	
859.02	4089.1	
859.19	4387.4	
859.36	4977.9	
859.52	5061.2	
859.69	3520.5	
859.86	4188.8	
860.03	5093.3	
860.2	6279.8	
860.37	3205.1	
860.54	3539.6	
860.71	5948	
860.88	6399.2	
861.05	3978.5	
861.21	4395.6	
861.38	6431.3	
861.55	4884.4	
861.72	3262.4	
861.89	3901.4	
862.06	6018.3	
862.23	6526.9	
862.4	3394.2	
862.56	3671.3	
862.73	5838.1	
862.9	5529.5	
863.07	4158.7	
863.24	3155.9	
863.41	4822.3	
863.58	5059.2	
863.75	3622.2	
863.91	4100.7	
864.08	6393.8	
864.25	5941.2	
864.42	4390.8	
864.59	4932.9	
864.76	6748.1	
864.93	4973.2	
865.09	3454.9	
865.26	3740.3	
865.43	6210.1	
865.6	6653.9	
865.77	3084.2	
865.94	3506.8	
866.1	6299.6	
866.27	6019	
866.44	5319.9	
866.61	3341.6	
866.78	5416.9	
866.95	5890	
867.11	3405.1	
867.28	3080.1	
867.45	6021	
867.62	5122	
867.79	4032.5	
867.96	3468.6	
868.12	5058.5	
868.29	5971.2	
868.46	3093.8	
868.63	4760.8	
868.8	6148	
868.97	5928.2	
869.13	3710.9	
869.3	3676.1	
869.47	5857.9	
869.64	6010.8	
869.81	3560.1	
869.97	3547.8	
870.14	5675.6	
870.31	6396.5	
870.48	3504.8	
870.65	4546.5	
870.81	5377.3	
870.98	5305.6	
871.15	4043.4	
871.32	3642	
871.48	5796.4	
871.65	6492.1	
871.82	3461.1	
871.99	3898	
872.16	6913.3	
872.32	6312.5	
872.49	3549.8	
872.66	3586	
872.83	5919.3	
872.99	5223	
873.16	4063.9	
873.33	3541.6	
873.5	5547.9	
873.67	5626.5	
873.83	3705.5	
874	4750.6	
874.17	5679.7	
874.34	6824.5	
874.5	4541.7	
874.67	4415.4	
874.84	6386.9	
875.01	5007.3	
875.17	4982	
875.34	3495.2	
875.51	5636	
875.68	6823.1	
875.84	4240.7	
876.01	5213.4	
876.18	5935	
876.34	5829.2	
876.51	3532.1	
876.68	3450.8	
876.85	5399.8	
877.01	6178.7	
877.18	5038	
877.35	3460.4	
877.52	5535	
877.68	4951.3	
877.85	3437.9	
878.02	3502.7	
878.18	5479.7	
878.35	5157.5	
878.52	2817.3	
878.69	3985.3	
878.85	6007.4	
879.02	5838.1	
879.19	5058.5	
879.35	3837.9	
879.52	5887.9	
879.69	6116.6	
879.86	3038.5	
880.02	3910.9	
880.19	5507	
880.36	6621.8	
880.52	4062.5	
880.69	4162.2	
880.86	5965.1	
881.02	6075	
881.19	3923.2	
881.36	3807.2	
881.52	5853.1	
881.69	5186.8	
881.86	3869.3	
882.02	3704.8	
882.19	6171.9	
882.36	7273.7	
882.52	3588	
882.69	4988.2	
882.86	5657.2	
883.02	5646.2	
883.19	4327.4	
883.36	4089.1	
883.52	6061.3	
883.69	6916.7	
883.86	3537.5	
884.02	3173	
884.19	5969.8	
884.36	5476.3	
884.52	3957.4	
884.69	3723.2	
884.86	5233.9	
885.02	6580.8	
885.19	3999	
885.36	4101.4	
885.52	5504.3	
885.69	5694.7	
885.86	5044.8	
886.02	4534.2	
886.19	6033.3	
886.35	5482.4	
886.52	3919.8	
886.69	4982	
886.85	5063.9	
887.02	6313.2	
887.19	6313.2	
887.35	6313.2	
887.52	6313.2	
887.68	6313.2	
887.85	6313.2	
888.02	6313.2	
888.18	6313.2	
888.35	6313.2	
888.51	6313.2	
888.68	6313.2	
888.85	6313.2	
889.01	6313.2	
889.18	6313.2	
889.35	6313.2	
889.51	6313.2	
889.68	6313.2	
889.84	6313.2	
890.01	6313.2	
890.17	6313.2	
890.34	6313.2	
890.51	6313.2	
890.67	6313.2	
890.84	6313.2	
891	6313.2	
891.17	6313.2	
891.34	6313.2	
891.5	6313.2	
891.67	6313.2	
891.83	6313.2	
892	6313.2	
892.16	6313.2	
892.33	6313.2	
892.5	6313.2	
892.66	6313.2	
892.83	6313.2	
892.99	6313.2	
893.16	6313.2	
893.32	6313.2	
893.49	6313.2	
893.65	6313.2	
893.82	6313.2	
893.99	6313.2	
894.15	6313.2	
894.32	6313.2	
894.48	6313.2	
894.65	6313.2	
894.81	6313.2	
894.98	6313.2	
895.14	6313.2	
895.31	6313.2	
895.47	6313.2	
895.64	6313.2	
895.81	6313.2	
895.97	6313.2	
896.14	6313.2	
896.3	6313.2	
896.47	6313.2	
896.63	6313.2	
896.8	6313.2	
896.96	6313.2	
897.13	6313.2	
897.29	6313.2	
897.46	6313.2	
897.62	6313.2	
897.79	6313.2	
897.95	6313.2	
898.12	6313.2	
898.28	6313.2	
898.45	6313.2	
898.61	6313.2	
898.78	6313.2	
898.94	6313.2	
899.11	6313.2	
899.27	6313.2	
899.44	6313.2	
899.6	6313.2	
899.77	6313.2	
899.93	6313.2	
900.1	6313.2	
900.26	6313.2	
900.43	6313.2	
900.59	6313.2	
900.76	6313.2	
900.92	6313.2	
901.09	6313.2	
901.25	6313.2	
901.42	6313.2	
901.58	6313.2	
901.75	6313.2	
901.91	6313.2	
902.07	6313.2	
902.24	6313.2	
902.4	6313.2	
902.57	6313.2	
902.73	6313.2	
902.9	6313.2	
903.06	6313.2	
903.23	6313.2	
903.39	6313.2	
903.56	6313.2	
903.72	6313.2	
903.88	6313.2	
904.05	6313.2	
904.21	6313.2	
904.38	6313.2	
904.54	6313.2	
904.71	6313.2	
904.87	6313.2	
905.03	6313.2	
905.2	6313.2	
905.36	6313.2	
905.53	6313.2	
905.69	6313.2	
905.86	6313.2	
906.02	6313.2	
906.18	6313.2	
906.35	6313.2	
906.51	6313.2	
906.68	6313.2	
906.84	6313.2	
907.01	6313.2	
907.17	6313.2	
907.33	6313.2	
907.5	6313.2	
907.66	6313.2	
907.83	6313.2	
907.99	6313.2	
908.15	6313.2	
908.32	6313.2	
908.48	6313.2	
908.65	6313.2	
908.81	6313.2	
908.97	6313.2	
909.14	6313.2	
909.3	6313.2	
909.47	6313.2	
909.63	6313.2	
909.79	6313.2	
909.96	6313.2	
910.12	6313.2	
910.28	6313.2	
910.45	6313.2	
910.61	6313.2	
910.78	6313.2	
910.94	6313.2	
911.1	6313.2	
911.27	6313.2	
911.43	6313.2	
911.59	6313.2	
911.76	6313.2	
911.92	6313.2	
912.08	6313.2	
912.25	6313.2	
912.41	6313.2	
912.57	6313.2	
912.74	6313.2	
912.9	6313.2	
913.07	6313.2	
913.23	6313.2	
913.39	6313.2	
913.56	6313.2	
913.72	6313.2	
913.88	6313.2	
914.05	6313.2	
914.21	6313.2	
914.37	6313.2	
914.54	6313.2	
914.7	6313.2	
914.86	6313.2	
915.03	6313.2	
915.19	6313.2	
