Wavelength	Intensities	
nm	a.u.	
179.22	1678.1	
179.44	1672.8	
179.65	1683.4	
179.86	1662.3	
180.08	1693.7	
180.29	3864.5	
180.51	3043.3	
180.72	4975.9	
180.94	5560.9	
181.15	2741.5	
181.37	2681.5	
181.58	4768.4	
181.79	4958.8	
182.01	2836.4	
182.22	2970.9	
182.44	5019.6	
182.65	4291.9	
182.87	3676.8	
183.08	3240.6	
183.29	5259.2	
183.51	4391.5	
183.72	2968.2	
183.94	4166.3	
184.15	4729.4	
184.37	4687.8	
184.58	2661	
184.79	3434.4	
185.01	4436.6	
185.22	5018.9	
185.44	3622.9	
185.65	3186	
185.86	4703.5	
186.08	4290.5	
186.29	2654.9	
186.51	2764.8	
186.72	4448.2	
186.94	5130.2	
187.15	3213.3	
187.36	3270.6	
187.58	6356.2	
187.79	4811.4	
188.01	3385.3	
188.22	5031.2	
188.43	5616.2	
188.65	4934.9	
188.86	2840.5	
189.08	3278.8	
189.29	4558.1	
189.5	4564.2	
189.72	2998.9	
189.93	3117	
190.15	5175.2	
190.36	5879	
190.57	3281.5	
190.79	3175	
191	5127.4	
191.22	5141.8	
191.43	3361.4	
191.64	2812.5	
191.86	5357.5	
192.07	5102.9	
192.29	2919	
192.5	3033	
192.71	5082.4	
192.93	4532.2	
193.14	3019.4	
193.35	3078.8	
193.57	4594.3	
193.78	5124.7	
194	2486.9	
194.21	2956.6	
194.42	4358.8	
194.64	4736.3	
194.85	3158	
195.07	3693.2	
195.28	4773.8	
195.49	4197.7	
195.71	3878.9	
195.92	2843.3	
196.13	4933.6	
196.35	4930.1	
196.56	4077.5	
196.78	3234.4	
196.99	5866.7	
197.2	5528.2	
197.42	3586	
197.63	3276.1	
197.84	4294.6	
198.06	4877.6	
198.27	3012.6	
198.48	3904.1	
198.7	4550.6	
198.91	4732.9	
199.13	3276.1	
199.34	3263.8	
199.55	5140.4	
199.77	4081.6	
199.98	2960	
200.19	3331.4	
200.41	4727.4	
200.62	4417.5	
200.83	3429	
201.05	3597.6	
201.26	4721.3	
201.47	4463.2	
201.69	2939.5	
201.9	2844.6	
202.11	4734.9	
202.33	5466.7	
202.54	3131.3	
202.76	3457	
202.97	4801.8	
203.18	4842.8	
203.4	3383.2	
203.61	3424.2	
203.82	4816.8	
204.04	4524	
204.25	3294.5	
204.46	3213.9	
204.68	4754.7	
204.89	4898.1	
205.1	3181.2	
205.32	2834.4	
205.53	4985.4	
205.74	5141.1	
205.96	2465.8	
206.17	3280.8	
206.38	4960.2	
206.6	5122.7	
206.81	3710.2	
207.02	3056.9	
207.24	4949.9	
207.45	5216.2	
207.66	3176.4	
207.88	2728.6	
208.09	4859.1	
208.3	4696	
208.52	2917.7	
208.73	3140.9	
208.94	4764.3	
209.15	5246.2	
209.37	3109.5	
209.58	3237.8	
209.79	5147.2	
210.01	4586.1	
210.22	2644.6	
210.43	2698.5	
210.65	4670.1	
210.86	5006.6	
211.07	3165.5	
211.29	2917.7	
211.5	4922	
211.71	4671.4	
211.93	2926.5	
212.14	2989.4	
212.35	4693.9	
212.56	4806.6	
212.78	3317	
212.99	2770.9	
213.2	5398.4	
213.42	4576.5	
213.63	2981.2	
213.84	3164.1	
214.06	4302.8	
214.27	4379.2	
214.48	3087.7	
214.69	3314.3	
214.91	5196.4	
215.12	5265.3	
215.33	3312.2	
215.55	3562.8	
215.76	5672.2	
215.97	4947.2	
216.18	3190.1	
216.4	3183.2	
216.61	4436.6	
216.82	5031.2	
217.04	2935.4	
217.25	2981.2	
217.46	5201.8	
217.67	4982	
217.89	2652.1	
218.1	2775.7	
218.31	4767.7	
218.53	4885.8	
218.74	3065.8	
218.95	2974.3	
219.16	4701.5	
219.38	5403.2	
219.59	2979.1	
219.8	3500	
220.01	5829.2	
220.23	4767	
220.44	3736.9	
220.65	2891	
220.87	4798.4	
221.08	5188.2	
221.29	2779.1	
221.5	3487.7	
221.72	6075	
221.93	4483.7	
222.14	3340.9	
222.35	3806.5	
222.57	4758.8	
222.78	5012.7	
222.99	3138.2	
223.2	3321.8	
223.42	4923.3	
223.63	5063.9	
223.84	2509.4	
224.05	2503.3	
224.27	5735	
224.48	5378	
224.69	3790.1	
224.9	3333.4	
225.12	4827.1	
225.33	4709	
225.54	2680.8	
225.75	2970.9	
225.97	4386.7	
226.18	4653	
226.39	3105.4	
226.6	2966.1	
226.82	4579.9	
227.03	4438.6	
227.24	3210.5	
227.45	2768.9	
227.67	5027.8	
227.88	5333.6	
228.09	3619.4	
228.3	3633.1	
228.52	4957.4	
228.73	4635.2	
228.94	3066.5	
229.15	2775.7	
229.36	4719.2	
229.58	4702.1	
229.79	3080.8	
230	3545	
230.21	5546.6	
230.43	4795.7	
230.64	3209.8	
230.85	3358.7	
231.06	5079	
231.28	5042.8	
231.49	2782.5	
231.7	3262.4	
231.91	5014.8	
232.12	4738.3	
232.34	2860.3	
232.55	3123.8	
232.76	5150.6	
232.97	4851.6	
233.18	2927.9	
233.4	3257.6	
233.61	4848.2	
233.82	4571.1	
234.03	3102.7	
234.25	3052.2	
234.46	6191.7	
234.67	4765.6	
234.88	3369.6	
235.09	3001	
235.31	4896	
235.52	4618.2	
235.73	3224.2	
235.94	2776.4	
236.15	4543.8	
236.37	5591.6	
236.58	2904.7	
236.79	3123.2	
237	4936.3	
237.21	4349.9	
237.43	3382.6	
237.64	2693.8	
237.85	7683.3	
238.06	4431.8	
238.27	3330.7	
238.48	2847.4	
238.7	4968.4	
238.91	4631.8	
239.12	3147	
239.33	3214.6	
239.54	4466.6	
239.76	4611.3	
239.97	3083.6	
240.18	3162.1	
240.39	5587.5	
240.6	4835.3	
240.82	3307.5	
241.03	2798.9	
241.24	4715.8	
241.45	5335	
241.66	2920.4	
241.87	3406.5	
242.09	5304.2	
242.3	5498.8	
242.51	3401	
242.72	3153.2	
242.93	5020.9	
243.14	4678.9	
243.36	3584.6	
243.57	3845.4	
243.78	5347.9	
243.99	4992.3	
244.2	3112.9	
244.41	2899.9	
244.63	4343.7	
244.84	4903.5	
245.05	3303.4	
245.26	3147	
245.47	5038.7	
245.68	5026.4	
245.9	4017.4	
246.11	3276.1	
246.32	4562.9	
246.53	4943.8	
246.74	4946.5	
246.95	2684.2	
247.16	4438.6	
247.38	4781.3	
247.59	2748.4	
247.8	3233.1	
248.01	4485.1	
248.22	4677.6	
248.43	2910.2	
248.64	3044.6	
248.86	4333.5	
249.07	4564.9	
249.28	2813.9	
249.49	3259.7	
249.7	5107	
249.91	5189.6	
250.12	2705.4	
250.34	2773.6	
250.55	4823	
250.76	4750.6	
250.97	3234.4	
251.18	3318.4	
251.39	5152.7	
251.6	4817.5	
251.81	3334.1	
252.03	3233.7	
252.24	4576.5	
252.45	5038.7	
252.66	2809.8	
252.87	3416	
253.08	4748.6	
253.29	5938.4	
253.5	2843.3	
253.72	3747.1	
253.93	4672.8	
254.14	5479.7	
254.35	3026.9	
254.56	3118.4	
254.77	4855.7	
254.98	4440.7	
255.19	3033.7	
255.41	3782.6	
255.62	4799.8	
255.83	5124	
256.04	3347.7	
256.25	3259	
256.46	5546.6	
256.67	4520.5	
256.88	3235.8	
257.09	3594.2	
257.31	4393.6	
257.52	4439.3	
257.73	4007.9	
257.94	3017.3	
258.15	4648.9	
258.36	4683	
258.57	3723.2	
258.78	2481.5	
258.99	5089.2	
259.2	4567	
259.41	3058.3	
259.63	3087	
259.84	5339.7	
260.05	5604.6	
260.26	3829	
260.47	3004.4	
260.68	5209.3	
260.89	4654.4	
261.1	3628.3	
261.31	2906.8	
261.52	5223	
261.73	5455.1	
261.95	3895.9	
262.16	3393.5	
262.37	5191.6	
262.58	5304.2	
262.79	3774.4	
263	3033.7	
263.21	4801.8	
263.42	4313.7	
263.63	3289	
263.84	3121.1	
264.05	5094.7	
264.26	5337	
264.47	3758.7	
264.69	3257.6	
264.9	5285.1	
265.11	4831.8	
265.32	2960	
265.53	3009.1	
265.74	4781.3	
265.95	4283.7	
266.16	3224.2	
266.37	3445.4	
266.58	4797	
266.79	4524.6	
267	3070.6	
267.21	2867.8	
267.42	4389.5	
267.63	4693.9	
267.84	3149.1	
268.06	2764.8	
268.27	5044.1	
268.48	5195.7	
268.69	3096.5	
268.9	3572.3	
269.11	5299.5	
269.32	4265.2	
269.53	3147	
269.74	2952.5	
269.95	4887.1	
270.16	4289.1	
270.37	3205.8	
270.58	3632.4	
270.79	4606.6	
271	5079.6	
271.21	3366.2	
271.42	3214.6	
271.63	4933.6	
271.84	4382.7	
272.05	2649.4	
272.26	2880.1	
272.47	4714.4	
272.68	4866	
272.89	3084.2	
273.11	3474.7	
273.32	4549.9	
273.53	5329.5	
273.74	3335.5	
273.95	3304.1	
274.16	5088.5	
274.37	4709	
274.58	3497.9	
274.79	2800.3	
275	4818.2	
275.21	5181.4	
275.42	4027.7	
275.63	3486.3	
275.84	4966.3	
276.05	5973.9	
276.26	3287.7	
276.47	3133.4	
276.68	4637.3	
276.89	5463.3	
277.1	3507.5	
277.31	2856.9	
277.52	4891.2	
277.73	5116.5	
277.94	2795.5	
278.15	2991.4	
278.36	4883.7	
278.57	4502.8	
278.78	3026.9	
278.99	3391.4	
279.2	4538.3	
279.41	4399	
279.62	3913.7	
279.83	2840.5	
280.04	5645.6	
280.25	4431.1	
280.46	3880.9	
280.67	3156.6	
280.88	4455	
281.09	5182	
281.3	3356.6	
281.51	4077.5	
281.72	4508.3	
281.93	5064.6	
282.14	2983.2	
282.35	3207.1	
282.56	5108.3	
282.77	5025.7	
282.98	3041.2	
283.19	3685.7	
283.4	5993.7	
283.61	4668.7	
283.82	2826.2	
284.03	3824.2	
284.24	4889.9	
284.45	5161.6	
284.66	3850.9	
284.87	3639.9	
285.08	5162.9	
285.29	5304.2	
285.5	2794.8	
285.71	3140.2	
285.92	5180	
286.12	5632.6	
286.33	3815.4	
286.54	3126.6	
286.75	5094	
286.96	4580.6	
287.17	2888.3	
287.38	3696.6	
287.59	4505.5	
287.8	4513.7	
288.01	3093.8	
288.22	3462.4	
288.43	5009.3	
288.64	4308.2	
288.85	3639.2	
289.06	3464.5	
289.27	5046.2	
289.48	5341.8	
289.69	3850.2	
289.9	3493.8	
290.11	5205.9	
290.32	4569.7	
290.53	3650.8	
290.74	3324.5	
290.94	5018.2	
291.15	5103.5	
291.36	3004.4	
291.57	3512.3	
291.78	4578.6	
291.99	4268	
292.2	2891	
292.41	3391.4	
292.62	5122	
292.83	4967.7	
293.04	4108.2	
293.25	3017.3	
293.46	4561.5	
293.67	5081	
293.88	2930.6	
294.09	2895.1	
294.29	4441.4	
294.5	4823	
294.71	3209.2	
294.92	3052.8	
295.13	4604.5	
295.34	5567.7	
295.55	2783.9	
295.76	2729.9	
295.97	5023	
296.18	5519.3	
296.39	2836.4	
296.6	2987.3	
296.81	4829.8	
297.01	5014.8	
297.22	3138.9	
297.43	3020.8	
297.64	4534.2	
297.85	4430.4	
298.06	2562.7	
298.27	2740.2	
298.48	4678.9	
298.69	4508.9	
298.9	3284.9	
299.11	2898.6	
299.31	4422.2	
299.52	4388.1	
299.73	3437.2	
299.94	3381.9	
300.15	4786.8	
300.36	4473.4	
300.57	3376.4	
300.78	3330.7	
300.99	4585.4	
301.2	4827.7	
301.4	2988.7	
301.61	3193.5	
301.82	4934.2	
302.03	4990.9	
302.24	3602.4	
302.45	2859	
302.66	4973.2	
302.87	5233.9	
303.08	2949.1	
303.29	3981.9	
303.49	4581.3	
303.7	4705.5	
303.91	2699.9	
304.12	3721.2	
304.33	4367	
304.54	4780	
304.75	3040.6	
304.96	2895.8	
305.16	5074.2	
305.37	5474.2	
305.58	2706	
305.79	2745.6	
306	5003.2	
306.21	4289.1	
306.42	3052.2	
306.63	4373.8	
306.83	4667.3	
307.04	5093.3	
307.25	3306.1	
307.46	3233.1	
307.67	4169.7	
307.88	4980.7	
308.09	3016.7	
308.29	3076	
308.5	4804.5	
308.71	5135.6	
308.92	3140.2	
309.13	2845.3	
309.34	4723.3	
309.55	4685.8	
309.75	3635.1	
309.96	3318.4	
310.17	5014.1	
310.38	4493.9	
310.59	3487.7	
310.8	2846.7	
311.01	4606.6	
311.21	4696	
311.42	2906.1	
311.63	2974.3	
311.84	4564.2	
312.05	4891.9	
312.26	3270.6	
312.46	3611.3	
312.67	4607.2	
312.88	4416.8	
313.09	2910.2	
313.3	2863.1	
313.51	5329.5	
313.71	5489.2	
313.92	2893.8	
314.13	3094.5	
314.34	4906.9	
314.55	4771.1	
314.76	3582.6	
314.96	3214.6	
315.17	4846.9	
315.38	4990.2	
315.59	2903.3	
315.8	2816.6	
316.01	5310.4	
316.21	5433.3	
316.42	2797.5	
316.63	3172.3	
316.84	4611.3	
317.05	5184.8	
317.26	3396.2	
317.46	3067.2	
317.67	4686.4	
317.88	5004.6	
318.09	3562.8	
318.3	2727.2	
318.5	4558.1	
318.71	4962.2	
318.92	4418.2	
319.13	3328.6	
319.34	5066.7	
319.54	5137	
319.75	2754.5	
319.96	2674	
320.17	4968.4	
320.38	5102.2	
320.58	2690.3	
320.79	3162.7	
321	5162.2	
321.21	5231.2	
321.42	3231	
321.62	2728.6	
321.83	4503.5	
322.04	4768.4	
322.25	3099.9	
322.46	2882.2	
322.66	4820.9	
322.87	4924	
323.08	3507.5	
323.29	2880.1	
323.5	5482.4	
323.7	4442.7	
323.91	3790.8	
324.12	3462.4	
324.33	4871.4	
324.53	4955.4	
324.74	3381.2	
324.95	3508.9	
325.16	4282.3	
325.37	4643.4	
325.57	2933.4	
325.78	2990	
325.99	4808.6	
326.2	4352.6	
326.4	3962.8	
326.61	2697.2	
326.82	4692.6	
327.03	4814.1	
327.24	3936.2	
327.44	3775.1	
327.65	5003.9	
327.86	4125.3	
328.07	3329.3	
328.27	2850.8	
328.48	5301.5	
328.69	4427	
328.9	4055	
329.1	3074	
329.31	4661.9	
329.52	5322	
329.73	2883.5	
329.93	3204.4	
330.14	4773.8	
330.35	4926.7	
330.56	4548.5	
330.76	3474.7	
330.97	4611.3	
331.18	4919.2	
331.39	3213.9	
331.59	2653.5	
331.8	5151.3	
332.01	5210	
332.22	2939.5	
332.42	3345.7	
332.63	4838.7	
332.84	4474.1	
333.05	3244.7	
333.25	2967.5	
333.46	4564.9	
333.67	4726	
333.88	3081.5	
334.08	3291.1	
334.29	6008.1	
334.5	5162.9	
334.7	2887	
334.91	3981.9	
335.12	4354	
335.33	5027.8	
335.53	3191.4	
335.74	4473.4	
335.95	4609.3	
336.16	4390.2	
336.36	3205.8	
336.57	3642.7	
336.78	4358.8	
336.98	5167.7	
337.19	3894.6	
337.4	3162.7	
337.61	5637.4	
337.81	4341.7	
338.02	2961.4	
338.23	3679.5	
338.43	5254.4	
338.64	4525.3	
338.85	2964.1	
339.05	3751.9	
339.26	5386.2	
339.47	4302.8	
339.68	2906.8	
339.88	4124.6	
340.09	5030.5	
340.3	5124	
340.5	3388.7	
340.71	2651.4	
340.92	4360.8	
341.13	5206.6	
341.33	2848	
341.54	3366.2	
341.75	4896.7	
341.95	4567.7	
342.16	3229.6	
342.37	3453.6	
342.57	4407.9	
342.78	4693.3	
342.99	3549.1	
343.19	2660.3	
343.4	5017.5	
343.61	4950.6	
343.81	3116.3	
344.02	2822.1	
344.23	5008.6	
344.43	5303.6	
344.64	3550.5	
344.85	3448.8	
345.06	4949.9	
345.26	5174.5	
345.47	3345	
345.68	3829	
345.88	4328	
346.09	5097.4	
346.3	3413.3	
346.5	2678.1	
346.71	4706.2	
346.92	4549.9	
347.12	2745.6	
347.33	3270.6	
347.54	5134.9	
347.74	5372.5	
347.95	3275.4	
348.16	2566.8	
348.36	4618.9	
348.57	4444.8	
348.78	3416.7	
348.98	3554.6	
349.19	4730.1	
349.39	4303.5	
349.6	2756.6	
349.81	2993.4	
350.01	4953.4	
350.22	4551.3	
350.43	3289	
350.63	3812.6	
350.84	4799.8	
351.05	4538.3	
351.25	2955.9	
351.46	2723.1	
351.67	5147.9	
351.87	4507.6	
352.08	3127.2	
352.29	3526.6	
352.49	5107.6	
352.7	5163.6	
352.9	2912.9	
353.11	3510.2	
353.32	5564.3	
353.52	4650.3	
353.73	2911.5	
353.94	3581.9	
354.14	4986.1	
354.35	4773.8	
354.55	2987.3	
354.76	3325.9	
354.97	4999.8	
355.17	4764.3	
355.38	2870.6	
355.59	3721.2	
355.79	4577.2	
356	4812	
356.2	3240.6	
356.41	2957.9	
356.62	4379.2	
356.82	4760.2	
357.03	3488.4	
357.24	3216.7	
357.44	4579.9	
357.65	4737	
357.85	4020.2	
358.06	3341.6	
358.27	4334.9	
358.47	4502.1	
358.68	2860.3	
358.88	3509.5	
359.09	5044.1	
359.3	5265.3	
359.5	3990.1	
359.71	3647.4	
359.91	5559.6	
360.12	5111.7	
360.33	3588	
360.53	3937.6	
360.74	4742.4	
360.94	4689.2	
361.15	3728.7	
361.36	3151.1	
361.56	5273.5	
361.77	4810.7	
361.97	4044.7	
362.18	3307.5	
362.38	5312.4	
362.59	4578.6	
362.8	3123.8	
363	2953.2	
363.21	4470	
363.41	4997.7	
363.62	3549.8	
363.83	4272.7	
364.03	5081.7	
364.24	5702.9	
364.44	4458.4	
364.65	4308.2	
364.85	4835.3	
365.06	4620.2	
365.27	3323.2	
365.47	3371	
365.68	5664	
365.88	4911	
366.09	3633.8	
366.29	3294.5	
366.5	5026.4	
366.71	5376.6	
366.91	4358.1	
367.12	3809.2	
367.32	5897.5	
367.53	5261.9	
367.73	3786.7	
367.94	4493.2	
368.14	5344.5	
368.35	5868.1	
368.56	3693.9	
368.76	3565.5	
368.97	5414.1	
369.17	6507.1	
369.38	3384.6	
369.58	3536.8	
369.79	4659.1	
369.99	5693.4	
370.2	4394.3	
370.4	3661.1	
370.61	5141.1	
370.82	6059.3	
371.02	3534.1	
371.23	3088.3	
371.43	4629.8	
371.64	5644.9	
371.84	3639.2	
372.05	4564.2	
372.25	6629.3	
372.46	5374.6	
372.66	3741.6	
372.87	3639.2	
373.07	5544.5	
373.28	6787.7	
373.48	4448.9	
373.69	4267.3	
373.9	5190.9	
374.1	5180	
374.31	4491.9	
374.51	4098.7	
374.72	5840.1	
374.92	5023	
375.13	4653	
375.33	3966.9	
375.54	5550.7	
375.74	5197.1	
375.95	4233.8	
376.15	5074.2	
376.36	5611.4	
376.56	5554.8	
376.77	4312.3	
376.97	4584	
377.18	6554.9	
377.38	5791	
377.59	4845.5	
377.79	3999.7	
378	5724.8	
378.2	6029.9	
378.41	4063.9	
378.61	3966.9	
378.82	6143.2	
379.02	5466	
379.23	4225	
379.43	5086.5	
379.64	6204.7	
379.84	5911.1	
380.05	4078.9	
380.25	3999.7	
380.46	5948	
380.66	5606	
380.87	5043.5	
381.07	5324	
381.28	6505	
381.48	5932.3	
381.69	4061.8	
381.89	4108.2	
382.1	5101.5	
382.3	6035.4	
382.51	4929.5	
382.71	5613.5	
382.91	5861.3	
383.12	6293.4	
383.32	4284.4	
383.53	4480.3	
383.73	5768.4	
383.94	5589.6	
384.14	4476.9	
384.35	3743	
384.55	5543.2	
384.76	5885.2	
384.96	4298	
385.17	4562.9	
385.37	5845.6	
385.58	5226.4	
385.78	4487.8	
385.98	3634.5	
386.19	5418.2	
386.39	5780.7	
386.6	4093.2	
386.8	4291.2	
387.01	5830.6	
387.21	5938.4	
387.42	4622.3	
387.62	5063.3	
387.83	5510.4	
388.03	5883.8	
388.23	4502.8	
388.44	4982	
388.64	5244.2	
388.85	5440.8	
389.05	4808.6	
389.26	5204.6	
389.46	7041.6	
389.67	6532.3	
389.87	4894	
390.07	4868.7	
390.28	5829.2	
390.48	5496.7	
390.69	4296	
390.89	4568.3	
391.1	5743.9	
391.3	6412.2	
391.5	5440.1	
391.71	5868.1	
391.91	6367.8	
392.12	6967.9	
392.32	5562.3	
392.53	4916.5	
392.73	5823.7	
392.93	5921.4	
393.14	4745.1	
393.34	5213.4	
393.55	6150.1	
393.75	5782.8	
393.95	4530.1	
394.16	4505.5	
394.36	5719.3	
394.57	6126.8	
394.77	4191.5	
394.98	4484.4	
395.18	5716.6	
395.38	5821	
395.59	5305.6	
395.79	4608.6	
396	6005.3	
396.2	6414.9	
396.4	5343.8	
396.61	5331.5	
396.81	6568.5	
397.02	6094.1	
397.22	5633.3	
397.42	5612.8	
397.63	6711.2	
397.83	6069.5	
398.04	4765.6	
398.24	5224.4	
398.44	6479.8	
398.65	5885.9	
398.85	4720.6	
399.05	4776.5	
399.26	6250.4	
399.46	7451.9	
399.67	5191.6	
399.87	4935.6	
400.07	6495.5	
400.28	6778.8	
400.48	5095.3	
400.69	6003.3	
400.89	7001.3	
401.09	7438.2	
401.3	5196.4	
401.5	6029.2	
401.7	7706.5	
401.91	7895.6	
402.11	5542.5	
402.32	5591	
402.52	7249.8	
402.72	7004.1	
402.93	5737.7	
403.13	4665.3	
403.33	7436.2	
403.54	6243.6	
403.74	5104.2	
403.94	5726.1	
404.15	6229.9	
404.35	7165.2	
404.56	4958.8	
404.76	6311.2	
404.96	6801.3	
405.17	6662	
405.37	6229.9	
405.57	5607.3	
405.78	7210.2	
405.98	6599.9	
406.18	5435.3	
406.39	5950.7	
406.59	7014.3	
406.79	6556.9	
407	4970.4	
407.2	4926	
407.4	7167.2	
407.61	7060.7	
407.81	5187.5	
408.01	6662.7	
408.22	6408.8	
408.42	7976.2	
408.62	6498.9	
408.83	6221.7	
409.03	7333.1	
409.23	7324.2	
409.44	6436.8	
409.64	6571.2	
409.84	8419.2	
410.05	8329.1	
410.25	6781.5	
410.45	6625.2	
410.66	8226	
410.86	9979.8	
411.06	7277.8	
411.27	7086	
411.47	10141	
411.67	8498.4	
411.88	7300.3	
412.08	7718.1	
412.28	9059.5	
412.49	9515.5	
412.69	7425.3	
412.89	7396.6	
413.09	9382.4	
413.3	9361.3	
413.5	7631.4	
413.7	7415.7	
413.91	8855.4	
414.11	9536.7	
414.31	7518.1	
414.52	8069.7	
414.72	9387.2	
414.92	9353.8	
415.12	7652.6	
415.33	8045.8	
415.53	9734	
415.73	9805	
415.94	8349.6	
416.14	7889.5	
416.34	9150.3	
416.55	8761.9	
416.75	8861.6	
416.95	8547.5	
417.15	9901.2	
417.36	10159	
417.56	9226.8	
417.76	8492.9	
417.97	10231	
418.17	10226	
418.37	8290.9	
418.57	8515.5	
418.78	10039	
418.98	9654.8	
419.18	9077.3	
419.38	8888.9	
419.59	9609.1	
419.79	9217.2	
419.99	8153.6	
420.2	8388.5	
420.4	10110	
420.6	10001	
420.8	8153	
421.01	8046.5	
421.21	10127	
421.41	10068	
421.61	8505.9	
421.82	8308.6	
422.02	9794.8	
422.22	10243	
422.42	8901.2	
422.63	8292.2	
422.83	9721.7	
423.03	10574	
423.23	8553.7	
423.44	7770.7	
423.64	9579.7	
423.84	9314.8	
424.04	8080.6	
424.25	7752.9	
424.45	10262	
424.65	10052	
424.85	7598.6	
425.06	7973.4	
425.26	10408	
425.46	9515.5	
425.66	8415.8	
425.87	8066.3	
426.07	10030	
426.27	9766.1	
426.47	8259.5	
426.67	7690.8	
426.88	10122	
427.08	9771.5	
427.28	8466.3	
427.48	7552.2	
427.69	8953.7	
427.89	9373.6	
428.09	8303.8	
428.29	7636.2	
428.5	9960	
428.7	9598.1	
428.9	7713.3	
429.1	8019.8	
429.3	9635.7	
429.51	9902.6	
429.71	7901.1	
429.91	8571.4	
430.11	10092	
430.31	10347	
430.52	8299.1	
430.72	8642.4	
430.92	10518	
431.12	9997.5	
431.32	8127	
431.53	8331.8	
431.73	9390.6	
431.93	10471	
432.13	8013.7	
432.33	8136.6	
432.54	9698.5	
432.74	9914.2	
432.94	8082.6	
433.14	8867.7	
433.34	10171	
433.55	10049	
433.75	8864.3	
433.95	10317	
434.15	10191	
434.35	9986.6	
434.56	8355.7	
434.76	8105.2	
434.96	10304	
435.16	10628	
435.36	8385.1	
435.56	9465	
435.77	10239	
435.97	10368	
436.17	9953.1	
436.37	9400.2	
436.57	10198	
436.78	10405	
436.98	10020	
437.18	9883.5	
437.38	11027	
437.58	10306	
437.78	9889	
437.99	8839.7	
438.19	10613	
438.39	11153	
438.59	8676.6	
438.79	8119.5	
438.99	10913	
439.2	9981.1	
439.4	8044.4	
439.6	8295.6	
439.8	10501	
440	11349	
440.2	9514.2	
440.4	9708.1	
440.61	11382	
440.81	11729	
441.01	9336	
441.21	10041	
441.41	12011	
441.61	11382	
441.81	10338	
442.02	10964	
442.22	12168	
442.42	11554	
442.62	9387.2	
442.82	9301.9	
443.02	11975	
443.22	11329	
443.43	9968.1	
443.63	9632.3	
443.83	11144	
444.03	11205	
444.23	10673	
444.43	10408	
444.63	11787	
444.83	12413	
445.04	9985.2	
445.24	10804	
445.44	11813	
445.64	11813	
445.84	10095	
446.04	10222	
446.24	11039	
446.44	11796	
446.65	9297.1	
446.85	9672.6	
447.05	10985	
447.25	11701	
447.45	9865.1	
447.65	9321.7	
447.85	11336	
448.05	10881	
448.25	10177	
448.46	9912.2	
448.66	11303	
448.86	10927	
449.06	9436.4	
449.26	10257	
449.46	11713	
449.66	11000	
449.86	10191	
450.06	9925.1	
450.26	11293	
450.47	11728	
450.67	10013	
450.87	10395	
451.07	11700	
451.27	11673	
451.47	9691.7	
451.67	10476	
451.87	11596	
452.07	12211	
452.27	10150	
452.47	9837.1	
452.67	11696	
452.88	12032	
453.08	9346.9	
453.28	10878	
453.48	12720	
453.68	11333	
453.88	10002	
454.08	10071	
454.28	12128	
454.48	11813	
454.68	10552	
454.88	10884	
455.08	12119	
455.28	12143	
455.48	9896.5	
455.68	10662	
455.89	12729	
456.09	12469	
456.29	10425	
456.49	10731	
456.69	12865	
456.89	12109	
457.09	11037	
457.29	11536	
457.49	12719	
457.69	12960	
457.89	11420	
458.09	10791	
458.29	12910	
458.49	13470	
458.69	11708	
458.89	11383	
459.09	13883	
459.29	13825	
459.49	11289	
459.69	12114	
459.9	13128	
460.1	13136	
460.3	11065	
460.5	10954	
460.7	13340	
460.9	12947	
461.1	10993	
461.3	12024	
461.5	14040	
461.7	13839	
461.9	11910	
462.1	11881	
462.3	13647	
462.5	14086	
462.7	11856	
462.9	12032	
463.1	14916	
463.3	14998	
463.5	12360	
463.7	13410	
463.9	14385	
464.1	14476	
464.3	13093	
464.5	12942	
464.7	14891	
464.9	14964	
465.1	14081	
465.3	13334	
465.5	15136	
465.7	15341	
465.9	13893	
466.1	13241	
466.3	15403	
466.5	14900	
466.7	14658	
466.9	13421	
467.1	15373	
467.3	15956	
467.5	14699	
467.7	13902	
467.9	16212	
468.1	16965	
468.3	14287	
468.5	14826	
468.7	15646	
468.9	15482	
469.1	14318	
469.3	14794	
469.5	17124	
469.7	15643	
469.9	14507	
470.1	14145	
470.3	15771	
470.5	15900	
470.7	14984	
470.9	14140	
471.1	15502	
471.3	15447	
471.5	13997	
471.69	15292	
471.89	15338	
472.09	14879	
472.29	14644	
472.49	14407	
472.69	15369	
472.89	15563	
473.09	13977	
473.29	13732	
473.49	15249	
473.69	15182	
473.89	14384	
474.09	13728	
474.29	16085	
474.49	15718	
474.69	14484	
474.89	13844	
475.09	15281	
475.29	15268	
475.49	13445	
475.69	13796	
475.88	16168	
476.08	15351	
476.28	13345	
476.48	13297	
476.68	15575	
476.88	15270	
477.08	13295	
477.28	13611	
477.48	14805	
477.68	15141	
477.88	13301	
478.08	13356	
478.28	15841	
478.48	15043	
478.67	13622	
478.87	12889	
479.07	15765	
479.27	15177	
479.47	13652	
479.67	13695	
479.87	15476	
480.07	15857	
480.27	13220	
480.47	14311	
480.67	15104	
480.87	15847	
481.06	13341	
481.26	14070	
481.46	15425	
481.66	15178	
481.86	13624	
482.06	14465	
482.26	15044	
482.46	15710	
482.66	13568	
482.86	13361	
483.05	15384	
483.25	14799	
483.45	15509	
483.65	13818	
483.85	15157	
484.05	15448	
484.25	14149	
484.45	14683	
484.65	16006	
484.84	16314	
485.04	13842	
485.24	13905	
485.44	16327	
485.64	15243	
485.84	13705	
486.04	14596	
486.24	15431	
486.44	15753	
486.63	13554	
486.83	14445	
487.03	15659	
487.23	15970	
487.43	13822	
487.63	15560	
487.83	16043	
488.02	16621	
488.22	14970	
488.42	15286	
488.62	16789	
488.82	16079	
489.02	14392	
489.22	14820	
489.41	16546	
489.61	16571	
489.81	14407	
490.01	14355	
490.21	16765	
490.41	17236	
490.61	14550	
490.8	14448	
491	16430	
491.2	15606	
491.4	14784	
491.6	14115	
491.8	15829	
491.99	15800	
492.19	13809	
492.39	14029	
492.59	16195	
492.79	16479	
492.99	14914	
493.18	14631	
493.38	16887	
493.58	17843	
493.78	15351	
493.98	15024	
494.18	17054	
494.37	16881	
494.57	16027	
494.77	15843	
494.97	17864	
495.17	18202	
495.37	15948	
495.56	16191	
495.76	18510	
495.96	18267	
496.16	17192	
496.36	16604	
496.55	18465	
496.75	18135	
496.95	16511	
497.15	16519	
497.35	18310	
497.54	18431	
497.74	16515	
497.94	17460	
498.14	19123	
498.34	19019	
498.53	16575	
498.73	17072	
498.93	18339	
499.13	18627	
499.33	17109	
499.52	17083	
499.72	19095	
499.92	19090	
500.12	16948	
500.32	17086	
500.51	19106	
500.71	19025	
500.91	17752	
501.11	17497	
501.31	19200	
501.5	19335	
501.7	18036	
501.9	17299	
502.1	18871	
502.29	19249	
502.49	17770	
502.69	17727	
502.89	19051	
503.09	19031	
503.28	16409	
503.48	16415	
503.68	18133	
503.88	18061	
504.07	17204	
504.27	16645	
504.47	18553	
504.67	18363	
504.86	17026	
505.06	16695	
505.26	17991	
505.46	19056	
505.65	16589	
505.85	16593	
506.05	17834	
506.25	18030	
506.44	15794	
506.64	16268	
506.84	17351	
507.04	17922	
507.23	15825	
507.43	16271	
507.63	18787	
507.83	17534	
508.02	16238	
508.22	16008	
508.42	19116	
508.62	17350	
508.81	15929	
509.01	16594	
509.21	17084	
509.4	17548	
509.6	16142	
509.8	15754	
510	17421	
510.19	18576	
510.39	15846	
510.59	15879	
510.79	17466	
510.98	18529	
511.18	15990	
511.38	16210	
511.57	17928	
511.77	17912	
511.97	16192	
512.17	15612	
512.36	17910	
512.56	17638	
512.76	15459	
512.95	15317	
513.15	18023	
513.35	16940	
513.55	16369	
513.74	15735	
513.94	17856	
514.14	17456	
514.33	16528	
514.53	16251	
514.73	17469	
514.92	17588	
515.12	15919	
515.32	15770	
515.51	17783	
515.71	18159	
515.91	17087	
516.11	15882	
516.3	19113	
516.5	17578	
516.7	16410	
516.89	16723	
517.09	17492	
517.29	17440	
517.48	16363	
517.68	16098	
517.88	17292	
518.07	17871	
518.27	16427	
518.47	15640	
518.66	18132	
518.86	17154	
519.06	15524	
519.25	15876	
519.45	17378	
519.65	18729	
519.84	16574	
520.04	17111	
520.24	19057	
520.43	17856	
520.63	16030	
520.83	15756	
521.02	17150	
521.22	17381	
521.42	15992	
521.61	16350	
521.81	17177	
522.01	17357	
522.2	15903	
522.4	15817	
522.6	17970	
522.79	17082	
522.99	16117	
523.18	15758	
523.38	18011	
523.58	18229	
523.77	17533	
523.97	16186	
524.17	19791	
524.36	19377	
524.56	17577	
524.76	17238	
524.95	18822	
525.15	18407	
525.34	17220	
525.54	17472	
525.74	19243	
525.93	18596	
526.13	18475	
526.33	17785	
526.52	19778	
526.72	19410	
526.91	18621	
527.11	18146	
527.31	19773	
527.5	20120	
527.7	18346	
527.89	17605	
528.09	19355	
528.29	20024	
528.48	18759	
528.68	18273	
528.87	20101	
529.07	20095	
529.27	18204	
529.46	18028	
529.66	19955	
529.85	20248	
530.05	17874	
530.25	18426	
530.44	20919	
530.64	19380	
530.83	17996	
531.03	18355	
531.23	20222	
531.42	19883	
531.62	19060	
531.81	18533	
532.01	20659	
532.21	21039	
532.4	18761	
532.6	19295	
532.79	21560	
532.99	21336	
533.18	19484	
533.38	20260	
533.58	20940	
533.77	21308	
533.97	19772	
534.16	20381	
534.36	21890	
534.55	21273	
534.75	20337	
534.95	19897	
535.14	22203	
535.34	21222	
535.53	19516	
535.73	20882	
535.92	22293	
536.12	20950	
536.31	19374	
536.51	20193	
536.71	21399	
536.9	20972	
537.1	19376	
537.29	19594	
537.49	21698	
537.68	21033	
537.88	19990	
538.07	19242	
538.27	21305	
538.46	22111	
538.66	19313	
538.86	19865	
539.05	21382	
539.25	21654	
539.44	20373	
539.64	19692	
539.83	21190	
540.03	21790	
540.22	19377	
540.42	19338	
540.61	21036	
540.81	21143	
541	19538	
541.2	20276	
541.39	20629	
541.59	21095	
541.78	20200	
541.98	19097	
542.18	20526	
542.37	20321	
542.57	19261	
542.76	19757	
542.96	20259	
543.15	20523	
543.35	18927	
543.54	18662	
543.74	20426	
543.93	20347	
544.13	18614	
544.32	19459	
544.52	20327	
544.71	19817	
544.91	17905	
545.1	18819	
545.3	20045	
545.49	20304	
545.69	17817	
545.88	18267	
546.08	21022	
546.27	20489	
546.47	18651	
546.66	18130	
546.86	20242	
547.05	20581	
547.24	18041	
547.44	18303	
547.63	19417	
547.83	20235	
548.02	18313	
548.22	18373	
548.41	19170	
548.61	20276	
548.8	17776	
549	17876	
549.19	19407	
549.39	19948	
549.58	17522	
549.78	18083	
549.97	19622	
550.17	19213	
550.36	18341	
550.55	19032	
550.75	19113	
550.94	19731	
551.14	17292	
551.33	17523	
551.53	18617	
551.72	19450	
551.92	17553	
552.11	17504	
552.31	19323	
552.5	19175	
552.69	18542	
552.89	17055	
553.08	19282	
553.28	18972	
553.47	17366	
553.67	17976	
553.86	19595	
554.06	18260	
554.25	16507	
554.44	17025	
554.64	20013	
554.83	19644	
555.03	17093	
555.22	17258	
555.42	19104	
555.61	18770	
555.8	16828	
556	17101	
556.19	18101	
556.39	18890	
556.58	16854	
556.78	16896	
556.97	18542	
557.16	18481	
557.36	17743	
557.55	16688	
557.75	17818	
557.94	19366	
558.13	16675	
558.33	16374	
558.52	19128	
558.72	18002	
558.91	16386	
559.1	16633	
559.3	17909	
559.49	17470	
559.69	16094	
559.88	16769	
560.07	18243	
560.27	18647	
560.46	16832	
560.66	17006	
560.85	18157	
561.04	17471	
561.24	16227	
561.43	16204	
561.63	17450	
561.82	17786	
562.01	17217	
562.21	16382	
562.4	17974	
562.59	18874	
562.79	16340	
562.98	16193	
563.18	18231	
563.37	19316	
563.56	16728	
563.76	16344	
563.95	17911	
564.14	17776	
564.34	16641	
564.53	16280	
564.73	18347	
564.92	18536	
565.11	16825	
565.31	16215	
565.5	18696	
565.69	17834	
565.89	16603	
566.08	16893	
566.27	18599	
566.47	19059	
566.66	17344	
566.85	16294	
567.05	18515	
567.24	18094	
567.44	16607	
567.63	17458	
567.82	18620	
568.02	18284	
568.21	16508	
568.4	16642	
568.6	18426	
568.79	18243	
568.98	16484	
569.18	16651	
569.37	18452	
569.56	19895	
569.76	16993	
569.95	17835	
570.14	18648	
570.34	18702	
570.53	16668	
570.72	16580	
570.91	19123	
571.11	18441	
571.3	16999	
571.49	17460	
571.69	18629	
571.88	18030	
572.07	17462	
572.27	17415	
572.46	18190	
572.65	18789	
572.85	16761	
573.04	17012	
573.23	19090	
573.43	18462	
573.62	16683	
573.81	17219	
574	18850	
574.2	18660	
574.39	17223	
574.58	17400	
574.78	19749	
574.97	19116	
575.16	17718	
575.36	17887	
575.55	19623	
575.74	19505	
575.93	17025	
576.13	18015	
576.32	18984	
576.51	19495	
576.71	17632	
576.9	18518	
577.09	19671	
577.28	19336	
577.48	17797	
577.67	17027	
577.86	18955	
578.05	19361	
578.25	17582	
578.44	17752	
578.63	19155	
578.83	20087	
579.02	17131	
579.21	18311	
579.4	19286	
579.6	19170	
579.79	17679	
579.98	19239	
580.17	19576	
580.37	19712	
580.56	17169	
580.75	17914	
580.94	19957	
581.14	19790	
581.33	18283	
581.52	17383	
581.71	19558	
581.91	20038	
582.1	17480	
582.29	17721	
582.48	19329	
582.68	19275	
582.87	17939	
583.06	17875	
583.25	19599	
583.45	18984	
583.64	18293	
583.83	18874	
584.02	19226	
584.21	19648	
584.41	18181	
584.6	17790	
584.79	19407	
584.98	19936	
585.18	17487	
585.37	17402	
585.56	19007	
585.75	19617	
585.94	17421	
586.14	18119	
586.33	19662	
586.52	19013	
586.71	17677	
586.91	17385	
587.1	18318	
587.29	19247	
587.48	16983	
587.67	17009	
587.87	18914	
588.06	18768	
588.25	17942	
588.44	17371	
588.63	18391	
588.83	18919	
589.02	16775	
589.21	16556	
589.4	17949	
589.59	17916	
589.78	15509	
589.98	15531	
590.17	16796	
590.36	17238	
590.55	14678	
590.74	14990	
590.94	17785	
591.13	16657	
591.32	14747	
591.51	14560	
591.7	17010	
591.89	16782	
592.09	14801	
592.28	15153	
592.47	16211	
592.66	17817	
592.85	14838	
593.05	15132	
593.24	16660	
593.43	17409	
593.62	15079	
593.81	15405	
594	16849	
594.19	16944	
594.39	14987	
594.58	14853	
594.77	17033	
594.96	17350	
595.15	14726	
595.34	15281	
595.54	16682	
595.73	16072	
595.92	14193	
596.11	14965	
596.3	16943	
596.49	16058	
596.68	14708	
596.88	15079	
597.07	16799	
597.26	16015	
597.45	14434	
597.64	15269	
597.83	16058	
598.02	16514	
598.22	14475	
598.41	14947	
598.6	16570	
598.79	15784	
598.98	14250	
599.17	15012	
599.36	16405	
599.55	16913	
599.74	15791	
599.94	15696	
600.13	16597	
600.32	15687	
600.51	14087	
600.7	14112	
600.89	17051	
601.08	17023	
601.27	14074	
601.47	14431	
601.66	16341	
601.85	16837	
602.04	14450	
602.23	14507	
602.42	15754	
602.61	16148	
602.8	14185	
602.99	14005	
603.18	15882	
603.37	16008	
603.57	14453	
603.76	14840	
603.95	16488	
604.14	16246	
604.33	14329	
604.52	14504	
604.71	16157	
604.9	15628	
605.09	14801	
605.28	14665	
605.47	16600	
605.66	16236	
605.86	14496	
606.05	14018	
606.24	16398	
606.43	15310	
606.62	14391	
606.81	14841	
607	16080	
607.19	15665	
607.38	13717	
607.57	13876	
607.76	15543	
607.95	14992	
608.14	14193	
608.33	14547	
608.52	15502	
608.72	16055	
608.91	13476	
609.1	13563	
609.29	15326	
609.48	14919	
609.67	14097	
609.86	13326	
610.05	14888	
610.24	15072	
610.43	13313	
610.62	12942	
610.81	16016	
611	15872	
611.19	13410	
611.38	13879	
611.57	15403	
611.76	16323	
611.95	13167	
612.14	12841	
612.33	15132	
612.52	14875	
612.71	13471	
612.9	12920	
613.09	14584	
613.28	16268	
613.47	13262	
613.66	13954	
613.85	15313	
614.04	14711	
614.24	13378	
614.43	12682	
614.62	15323	
614.81	15245	
615	13658	
615.19	13807	
615.38	14711	
615.57	15027	
615.76	13624	
615.95	14389	
616.14	15470	
616.33	14952	
616.52	13829	
616.71	13934	
616.9	15231	
617.09	15170	
617.28	13437	
617.47	14250	
617.66	14708	
617.85	14842	
618.04	14340	
618.22	13801	
618.41	15203	
618.6	16012	
618.79	13953	
618.98	13794	
619.17	16241	
619.36	15005	
619.55	14027	
619.74	13986	
619.93	15621	
620.12	15367	
620.31	14406	
620.5	14666	
620.69	16278	
620.88	16721	
621.07	15162	
621.26	14398	
621.45	16012	
621.64	15981	
621.83	14595	
622.02	13926	
622.21	15937	
622.4	15934	
622.59	15035	
622.78	14956	
622.97	15694	
623.16	16335	
623.35	14615	
623.54	14005	
623.72	15770	
623.91	15901	
624.1	14744	
624.29	13876	
624.48	16888	
624.67	16181	
624.86	14812	
625.05	14181	
625.24	16890	
625.43	15735	
625.62	15995	
625.81	14235	
626	16514	
626.19	16057	
626.38	14881	
626.56	14446	
626.75	15960	
626.94	16440	
627.13	14756	
627.32	13934	
627.51	16286	
627.7	17096	
627.89	13751	
628.08	14854	
628.27	15694	
628.46	15818	
628.65	14065	
628.83	13889	
629.02	16193	
629.21	15522	
629.4	14459	
629.59	14534	
629.78	15679	
629.97	16221	
630.16	14592	
630.35	14276	
630.54	16587	
630.72	16520	
630.91	14295	
631.1	14554	
631.29	16006	
631.48	16097	
631.67	14735	
631.86	14240	
632.05	15884	
632.24	15810	
632.42	13939	
632.61	14418	
632.8	15719	
632.99	15594	
633.18	14467	
633.37	14605	
633.56	15866	
633.75	15849	
633.93	14501	
634.12	14148	
634.31	16434	
634.5	16292	
634.69	14162	
634.88	14532	
635.07	15882	
635.25	16102	
635.44	14740	
635.63	15054	
635.82	15520	
636.01	14999	
636.2	14616	
636.39	14391	
636.57	16379	
636.76	15866	
636.95	14020	
637.14	14886	
637.33	15864	
637.52	16438	
637.7	13736	
637.89	14591	
638.08	15659	
638.27	16526	
638.46	14527	
638.65	14724	
638.83	16369	
639.02	15334	
639.21	14141	
639.4	14636	
639.59	15575	
639.78	15177	
639.96	13527	
640.15	13596	
640.34	15366	
640.53	15390	
640.72	13301	
640.91	13525	
641.09	14683	
641.28	15610	
641.47	13403	
641.66	14028	
641.85	15104	
642.03	15274	
642.22	13734	
642.41	13437	
642.6	14682	
642.79	14162	
642.97	13026	
643.16	13584	
643.35	14547	
643.54	14282	
643.73	12983	
643.91	13508	
644.1	14087	
644.29	14728	
644.48	12753	
644.67	12741	
644.85	14054	
645.04	14485	
645.23	12308	
645.42	12534	
645.6	13879	
645.79	14513	
645.98	12316	
646.17	11568	
646.36	13485	
646.54	13635	
646.73	12549	
646.92	11667	
647.11	13091	
647.29	13980	
647.48	11587	
647.67	11398	
647.86	14076	
648.05	14074	
648.23	11774	
648.42	12758	
648.61	13471	
648.8	13361	
648.98	11428	
649.17	11676	
649.36	12983	
649.55	12874	
649.73	11500	
649.92	12101	
650.11	13035	
650.3	13244	
650.48	11561	
650.67	11304	
650.86	13299	
651.05	12456	
651.23	11380	
651.42	11376	
651.61	12904	
651.79	12692	
651.98	11591	
652.17	11197	
652.36	13009	
652.54	12362	
652.73	11145	
652.92	11125	
653.11	13069	
653.29	13072	
653.48	10471	
653.67	11256	
653.85	12622	
654.04	13437	
654.23	11180	
654.42	10774	
654.6	11962	
654.79	12296	
654.98	9981.8	
655.16	10365	
655.35	11275	
655.54	11151	
655.73	9910.1	
655.91	9806.4	
656.1	12132	
656.29	11420	
656.47	9837.1	
656.66	10967	
656.85	11772	
657.03	11775	
657.22	10317	
657.41	10488	
657.59	11938	
657.78	11830	
657.97	10150	
658.16	10760	
658.34	12343	
658.53	12643	
658.72	11385	
658.9	11734	
659.09	12032	
659.28	12095	
659.46	10456	
659.65	10432	
659.84	11817	
660.02	12345	
660.21	10471	
660.4	10395	
660.58	12691	
660.77	12015	
660.96	10778	
661.14	10229	
661.33	12902	
661.52	12714	
661.7	10038	
661.89	12576	
662.08	11609	
662.26	11365	
662.45	10157	
662.64	10203	
662.82	12283	
663.01	11568	
663.2	10223	
663.38	10767	
663.57	12033	
663.75	11964	
663.94	10360	
664.13	11326	
664.31	11565	
664.5	11942	
664.69	10632	
664.87	10864	
665.06	11389	
665.25	11886	
665.43	11080	
665.62	11051	
665.8	11930	
665.99	11467	
666.18	10299	
666.36	10335	
666.55	12039	
666.74	11860	
666.92	9983.8	
667.11	11127	
667.29	11560	
667.48	11874	
667.67	10883	
667.85	10113	
668.04	11454	
668.22	11360	
668.41	10170	
668.6	10354	
668.78	11301	
668.97	11374	
669.15	10405	
669.34	9581.8	
669.53	11444	
669.71	11489	
669.9	9818	
670.08	10200	
670.27	11234	
670.46	11626	
670.64	10398	
670.83	10565	
671.01	11101	
671.2	11495	
671.38	9892.4	
671.57	9668.5	
671.76	12057	
671.94	12406	
672.13	9567.4	
672.31	10419	
672.5	11849	
672.69	11153	
672.87	9828.2	
673.06	10071	
673.24	11623	
673.43	11116	
673.61	10177	
673.8	10003	
673.98	11624	
674.17	11824	
674.36	10396	
674.54	10230	
674.73	11333	
674.91	11688	
675.1	10029	
675.28	9718.3	
675.47	11253	
675.65	11719	
675.84	9888.3	
676.03	10204	
676.21	11153	
676.4	10789	
676.58	10486	
676.77	10361	
676.95	12144	
677.14	11060	
677.32	9632.3	
677.51	9516.9	
677.69	11584	
677.88	10838	
678.06	9681.4	
678.25	9801.6	
678.44	11318	
678.62	11073	
678.81	9467.1	
678.99	10170	
679.18	11770	
679.36	11601	
679.55	9798.2	
679.73	10321	
679.92	11478	
680.1	11092	
680.29	10779	
680.47	9764	
680.66	11047	
680.84	11684	
681.03	9432.3	
681.21	10223	
681.4	11040	
681.58	10980	
681.77	9655.5	
681.95	9596.8	
682.14	11645	
682.32	11852	
682.51	10227	
682.69	9283.4	
682.88	10959	
683.06	11164	
683.25	9949	
683.43	10331	
683.62	11162	
683.8	11482	
683.99	10385	
684.17	9785.9	
684.36	11811	
684.54	10809	
684.73	9012.4	
684.91	8918.9	
685.1	10763	
685.28	10117	
685.46	9022.7	
685.65	9028.8	
685.83	10486	
686.02	10066	
686.2	8647.9	
686.39	8871.1	
686.57	10026	
686.76	11086	
686.94	8871.8	
687.13	9026.1	
687.31	10674	
687.5	10451	
687.68	8639.7	
687.86	9572.2	
688.05	11761	
688.23	10134	
688.42	9682.1	
688.6	9159.9	
688.79	10557	
688.97	10544	
689.16	9522.4	
689.34	8668.4	
689.52	11140	
689.71	11342	
689.89	9722.4	
690.08	9293.7	
690.26	10931	
690.45	10776	
690.63	9762	
690.81	9338.7	
691	10678	
691.18	10574	
691.37	9473.9	
691.55	10985	
691.74	10544	
691.92	11860	
692.1	9299.1	
692.29	8979	
692.47	10635	
692.66	10193	
692.84	9131.9	
693.02	9410.4	
693.21	10368	
693.39	10720	
693.58	9843.2	
693.76	9299.8	
693.94	11586	
694.13	11494	
694.31	9413.1	
694.5	10360	
694.68	10846	
694.86	11202	
695.05	9849.4	
695.23	9967.5	
695.42	11499	
695.6	13119	
695.78	10401	
695.97	9644.6	
696.15	11615	
696.34	11113	
696.52	9485.5	
696.7	10208	
696.89	11312	
697.07	10793	
697.25	10019	
697.44	11079	
697.62	11121	
697.81	11273	
697.99	9740.8	
698.17	10094	
698.36	10693	
698.54	11230	
698.72	9937.4	
698.91	9192.6	
699.09	10912	
699.28	10734	
699.46	9671.9	
699.64	9553.8	
699.83	10798	
700.01	11460	
700.19	10182	
700.38	8942.1	
700.56	11628	
700.74	10910	
700.93	9404.3	
701.11	10021	
701.29	11224	
701.48	12144	
701.66	9727.9	
701.84	9728.5	
702.03	11052	
702.21	11787	
702.39	9386.5	
702.58	9921.7	
702.76	11403	
702.94	11502	
703.13	9469.1	
703.31	11227	
703.49	11032	
703.68	11690	
703.86	9585.2	
704.04	10287	
704.23	11296	
704.41	11567	
704.59	9736	
704.78	10415	
704.96	12625	
705.14	11572	
705.33	9664.4	
705.51	10101	
705.69	11301	
705.87	11749	
706.06	10256	
706.24	9535.3	
706.42	11431	
706.61	11626	
706.79	10367	
706.97	9590	
707.16	11012	
707.34	11434	
707.52	10266	
707.7	9708.1	
707.89	11074	
708.07	10882	
708.25	10384	
708.44	10548	
708.62	11044	
708.8	11922	
708.98	10485	
709.17	9836.4	
709.35	11355	
709.53	11228	
709.72	9559.9	
709.9	9901.2	
710.08	11654	
710.26	11511	
710.45	10739	
710.63	9659.6	
710.81	11312	
710.99	11172	
711.18	10107	
711.36	9674.6	
711.54	10925	
711.72	11472	
711.91	9726.5	
712.09	9196.7	
712.27	10978	
712.45	11390	
712.64	9692.4	
712.82	9003.6	
713	10314	
713.18	10440	
713.37	8870.4	
713.55	9531.9	
713.73	10926	
713.91	9743.6	
714.1	8634.2	
714.28	8233.5	
714.46	10079	
714.64	9275.9	
714.83	7336.5	
715.01	7750.9	
715.19	9086.8	
715.37	8382.3	
715.55	7323.5	
715.74	7512.6	
715.92	9368.8	
716.1	7965.2	
716.28	8217.8	
716.47	7487.4	
716.65	8430.8	
716.83	8430.8	
717.01	7292.1	
717.19	7326.3	
717.38	9997.5	
717.56	8184.4	
717.74	7496.2	
717.92	7023.9	
718.1	9190.6	
718.29	8600.1	
718.47	6892.8	
718.65	7447.1	
718.83	9495.7	
719.01	9581.8	
719.2	7234.1	
719.38	8034.2	
719.56	9471.2	
719.74	10503	
719.92	7877.2	
720.11	8456.7	
720.29	9372.9	
720.47	8809	
720.65	7195.2	
720.83	7742	
721.02	8615.1	
721.2	8504.5	
721.38	7568.6	
721.56	6977.4	
721.74	7893.6	
721.92	8040.3	
722.11	7797.3	
722.29	7573.4	
722.47	8952.4	
722.65	8340	
722.83	6833.4	
723.01	7393.8	
723.2	8350.3	
723.38	8559.8	
723.56	6460.7	
723.74	7251.2	
723.92	7990.5	
724.1	8833.6	
724.29	6846.4	
724.47	7712	
724.65	8082.6	
724.83	8013.7	
725.01	6701.6	
725.19	7354.3	
725.37	7965.2	
725.56	7913.4	
725.74	6494.8	
725.92	6773.3	
726.1	8027.4	
726.28	8177.5	
726.46	6975.4	
726.64	6803.4	
726.83	8226.7	
727.01	8246.5	
727.19	6514.6	
727.37	7179.5	
727.55	8249.9	
727.73	8585.1	
727.91	6520.7	
728.09	6414.2	
728.28	8564.6	
728.46	8761.2	
728.64	7239.6	
728.82	7189.7	
729	9451.4	
729.18	9004.9	
729.36	6793.8	
729.54	8332.5	
729.72	9854.8	
729.91	8660.2	
730.09	8262.2	
730.27	7380.9	
730.45	8570.1	
730.63	9026.1	
730.81	7909.9	
730.99	7215	
731.17	9530.6	
731.35	8456.1	
731.53	7535.8	
731.71	7256.6	
731.9	9194	
732.08	9269.8	
732.26	7550.9	
732.44	7116.7	
732.62	9351.7	
732.8	8977.6	
732.98	7643	
733.16	6923.5	
733.34	8901.2	
733.52	7926.3	
733.7	7159.7	
733.88	7408.9	
734.07	8710	
734.25	8562.6	
734.43	6937.8	
734.61	7928.4	
734.79	9719.7	
734.97	8514.8	
735.15	6997.2	
735.33	7228.6	
735.51	8683.4	
735.69	8491.6	
735.87	8024.6	
736.05	7261.4	
736.23	8529.8	
736.41	8277.9	
736.59	7160.4	
736.77	7275.1	
736.95	8910.7	
737.13	8409.6	
737.32	6948.1	
737.5	7045.7	
737.68	9275.9	
737.86	8323.6	
738.04	6737.1	
738.22	7998	
738.4	8097.7	
738.58	8370	
738.76	7094.2	
738.94	6418.3	
739.12	8172.8	
739.3	8178.2	
739.48	7581.6	
739.66	7438.9	
739.84	8363.2	
740.02	8340.7	
740.2	6349.4	
740.38	6561.7	
740.56	8604.2	
740.74	7674.4	
740.92	7141.9	
741.1	6975.4	
741.28	8016.4	
741.46	7899.7	
741.64	6641.6	
741.82	6911.9	
742	8137.3	
742.18	7850.5	
742.36	6747.4	
742.54	6462.7	
742.72	8502.5	
742.9	7439.6	
743.08	6984.9	
743.26	6095.4	
743.44	8406.9	
743.62	8352.3	
743.8	7037.5	
743.98	6311.8	
744.16	8112.7	
744.34	7816.4	
744.52	6846.4	
744.7	6805.4	
744.88	8173.4	
745.06	7748.8	
745.24	6833.4	
745.42	6817.7	
745.6	8155.7	
745.78	7871	
745.96	5874.3	
746.14	6059.9	
746.32	8679.3	
746.5	7861.5	
746.68	6371.2	
746.86	6092.7	
747.03	8202.8	
747.21	6989.7	
747.39	6405.4	
747.57	6014.9	
747.75	7599.3	
747.93	7947.5	
748.11	5978	
748.29	5889.3	
748.47	8840.4	
748.65	7393.8	
748.83	6483.9	
749.01	6296.8	
749.19	7752.9	
749.37	7052.5	
749.55	6148	
749.73	6189	
749.91	7525.6	
750.09	7324.9	
750.26	6159.6	
750.44	5759.6	
750.62	7438.2	
750.8	7290.1	
750.98	5703.6	
751.16	5775.3	
751.34	7483.3	
751.52	6902.3	
751.7	6366.5	
751.88	5557.5	
752.06	7809.6	
752.24	7555	
752.42	5611.4	
752.59	5837.4	
752.77	7321.5	
752.95	8214.4	
753.13	6324.8	
753.31	5857.2	
753.49	7083.2	
753.67	7325.6	
753.85	6048.3	
754.03	5743.9	
754.21	7525.6	
754.38	7709.9	
754.56	5599.8	
754.74	4887.1	
754.92	6666.8	
755.1	7109.2	
755.28	4688.5	
755.46	4558.1	
755.64	7437.5	
755.82	7324.2	
755.99	4412.7	
756.17	4342.4	
756.35	5073.5	
756.53	6114.6	
756.71	3295.9	
756.89	3989.4	
757.07	5776.6	
757.25	5114.5	
757.42	4444.1	
757.6	5183.4	
757.78	6018.3	
757.96	5354.1	
758.14	4457.7	
758.32	4161.5	
758.5	5037.3	
758.67	5767.1	
758.85	4261.1	
759.03	4319.8	
759.21	5718.6	
759.39	5315.2	
759.57	3932.8	
759.75	4807.9	
759.92	6250.4	
760.1	5866.1	
760.28	5182.7	
760.46	5341.1	
760.64	5759.6	
760.82	5547.9	
760.99	5107	
761.17	4506.2	
761.35	6456.6	
761.53	5651.7	
761.71	4700.1	
761.89	5309.7	
762.06	6363.7	
762.24	6044.9	
762.42	4846.2	
762.6	4674.8	
762.78	6014.9	
762.96	6583.5	
763.13	5186.1	
763.31	4939	
763.49	6649.1	
763.67	6070.2	
763.85	5638.7	
764.02	5981.4	
764.2	6987	
764.38	6281.8	
764.56	4924.7	
764.74	5500.8	
764.91	6940.6	
765.09	6067.4	
765.27	4661.9	
765.45	4448.2	
765.63	6965.1	
765.8	6888	
765.98	4316.4	
766.16	4463.2	
766.34	5765.7	
766.52	5594.4	
766.69	5197.1	
766.87	4334.9	
767.05	6042.2	
767.23	6490	
767.41	4492.6	
767.58	4711.7	
767.76	6470.9	
767.94	6471.6	
768.12	4494.6	
768.29	5035.3	
768.47	5986.9	
768.65	6539.8	
768.83	4180.6	
769	5044.8	
769.18	5656.5	
769.36	6128.2	
769.54	4997	
769.72	4202.4	
769.89	6332.3	
770.07	6352.8	
770.25	4420.9	
770.43	5337	
770.6	6901	
770.78	7164.5	
770.96	4496	
771.14	4410	
771.31	6209.4	
771.49	5700.2	
771.67	3833.1	
771.85	3979.2	
772.02	5108.3	
772.2	5620.3	
772.38	4584	
772.55	4138.3	
772.73	5831.9	
772.91	5616.9	
773.09	4453.6	
773.26	4429.8	
773.44	5776.6	
773.62	5498.8	
773.8	4003.1	
773.97	3816	
774.15	5757.5	
774.33	5550	
774.5	3950.5	
774.68	4202.4	
774.86	5823.1	
775.04	5490.6	
775.21	3946.4	
775.39	3895.9	
775.57	5706.3	
775.74	5863.3	
775.92	3747.1	
776.1	3637.2	
776.27	5592.3	
776.45	6531.7	
776.63	3857.7	
776.81	3509.5	
776.98	5311.1	
777.16	6042.9	
777.34	3940.3	
777.51	4149.9	
777.69	5302.2	
777.87	5046.2	
778.04	3968.3	
778.22	4416.1	
778.4	5089.9	
778.57	5591.6	
778.75	3375.1	
778.93	3596.2	
779.1	4931.5	
779.28	4757.4	
779.46	3377.8	
779.64	3712.3	
779.81	5665.4	
779.99	6261.3	
780.17	4276.8	
780.34	4373.1	
780.52	5237.3	
780.69	5373.9	
780.87	3952.6	
781.05	3559.4	
781.22	5287.2	
781.4	5235.3	
781.58	3719.1	
781.75	3037.1	
781.93	5311.1	
782.11	4719.2	
782.28	4345.8	
782.46	3685.7	
782.64	4634.6	
782.81	5345.2	
782.99	3692.5	
783.17	3620.1	
783.34	5179.3	
783.52	4741	
783.69	3803.8	
783.87	4382.7	
784.05	4819.6	
784.22	4699.4	
784.4	4344.4	
784.58	3846.8	
784.75	5455.8	
784.93	4771.8	
785.1	3540.9	
785.28	3986.7	
785.46	5236	
785.63	4618.2	
785.81	3561.4	
785.99	3403	
786.16	4907.6	
786.34	5153.4	
786.51	3499.3	
786.69	3787.4	
786.87	4463.9	
787.04	4861.9	
787.22	3300.6	
787.39	4022.9	
787.57	4635.2	
787.75	5446.2	
787.92	4234.5	
788.1	4079.6	
788.27	4605.9	
788.45	4451.6	
788.63	3888.4	
788.8	2895.8	
788.98	5062.6	
789.15	4377.2	
789.33	3047.4	
789.5	3516.4	
789.68	5335	
789.86	5472.9	
790.03	3817.4	
790.21	3391.4	
790.38	5388.2	
790.56	4709	
790.73	3326.6	
790.91	3248.1	
791.09	4637.3	
791.26	5109.7	
791.44	3521.8	
791.61	3018	
791.79	4648.9	
791.96	4660.5	
792.14	3194.8	
792.32	2811.9	
792.49	4565.6	
792.67	4715.8	
792.84	3263.1	
793.02	3006.4	
793.19	5130.2	
793.37	5438	
793.54	2807.8	
793.72	3011.2	
793.89	5515.9	
794.07	4535.6	
794.25	3399.6	
794.42	2897.2	
794.6	5317.2	
794.77	5014.8	
794.95	3682.2	
795.12	3277.4	
795.3	4612	
795.47	4988.9	
795.65	3551.2	
795.82	3436.5	
796	4409.3	
796.17	5831.2	
796.35	3363.4	
796.52	3894.6	
796.7	4956.8	
796.87	5039.4	
797.05	3355.3	
797.22	3963.5	
797.4	5037.3	
797.57	5745.9	
797.75	3469.3	
797.92	3294.5	
798.1	5286.5	
798.27	4497.3	
798.45	2849.4	
798.62	3013.9	
798.8	4803.2	
798.97	5211.4	
799.15	3573.7	
799.32	3451.5	
799.5	4255	
799.67	4738.3	
799.85	3743	
800.02	2829.6	
800.2	4517.1	
800.37	4651.6	
800.55	3792.2	
800.72	3282.2	
800.9	5096	
801.07	5428.5	
801.25	4197	
801.42	3549.1	
801.6	5139	
801.77	4838	
801.95	3323.9	
802.12	3115	
802.29	4962.9	
802.47	4857.1	
802.64	3558.7	
802.82	2736.8	
802.99	4518.5	
803.17	5193.6	
803.34	3439.9	
803.52	3151.1	
803.69	5649	
803.87	4292.5	
804.04	3390.1	
804.21	3510.2	
804.39	5299.5	
804.56	4583.4	
804.74	3012.6	
804.91	3549.1	
805.09	4506.2	
805.26	4548.5	
805.44	3007.1	
805.61	3229.6	
805.78	5058.5	
805.96	5015.5	
806.13	3557.3	
806.31	3746.4	
806.48	4149.9	
806.66	4528.1	
806.83	3480.9	
807	3465.2	
807.18	4464.6	
807.35	4766.3	
807.53	3368.9	
807.7	2801.6	
807.87	5344.5	
808.05	4504.2	
808.22	3665.2	
808.4	2778.4	
808.57	4420.2	
808.74	4245.4	
808.92	3176.4	
809.09	3914.4	
809.27	4517.1	
809.44	4833.2	
809.61	2751.8	
809.79	3065.8	
809.96	5455.1	
810.14	4999.8	
810.31	2768.9	
810.48	3288.4	
810.66	4520.5	
810.83	5064.6	
811.01	3126.6	
811.18	3459	
811.35	5090.6	
811.53	3992.2	
811.7	3727.3	
811.87	3460.4	
812.05	4538.3	
812.22	4489.1	
812.39	3050.8	
812.57	2975.7	
812.74	4572.4	
812.92	5720	
813.09	3296.5	
813.26	3496.6	
813.44	5543.9	
813.61	4347.2	
813.78	2794.1	
813.96	3583.9	
814.13	4523.3	
814.3	4274.1	
814.48	3900.7	
814.65	3250.8	
814.82	5354.1	
815	4294.6	
815.17	3351.2	
815.34	3992.9	
815.52	4452.3	
815.69	4376.5	
815.87	3262.4	
816.04	3259.7	
816.21	4442.7	
816.38	4070.7	
816.56	3230.3	
816.73	2981.2	
816.9	5578.7	
817.08	5022.3	
817.25	3044	
817.42	3675.4	
817.6	4141	
817.77	4440.7	
817.94	3354.6	
818.12	3017.3	
818.29	4310.3	
818.46	6129.6	
818.64	3191.4	
818.81	2983.2	
818.98	4264.6	
819.16	5786.2	
819.33	3560.1	
819.5	3348.4	
819.67	4781.3	
819.85	5210.7	
820.02	3286.3	
820.19	3450.8	
820.37	4663.9	
820.54	4395.6	
820.71	3352.5	
820.88	4093.9	
821.06	4659.1	
821.23	4345.8	
821.4	3438.5	
821.58	3374.4	
821.75	4960.2	
821.92	4610	
822.09	2812.5	
822.27	2887	
822.44	4485.1	
822.61	4403.1	
822.79	2853.5	
822.96	5048.2	
823.13	4758.1	
823.3	4177.2	
823.48	3217.4	
823.65	2923.1	
823.82	5009.3	
823.99	4141	
824.17	3972.4	
824.34	2941.6	
824.51	5698.8	
824.68	4542.4	
824.86	3115.6	
825.03	3358.7	
825.2	4478.9	
825.37	5237.3	
825.55	3105.4	
825.72	3269.9	
825.89	5648.3	
826.06	5295.4	
826.24	3275.4	
826.41	3292.5	
826.58	5330.9	
826.75	4683.7	
826.92	2690.3	
827.1	2961.4	
827.27	6959	
827.44	5578.7	
827.61	3079.5	
827.79	3642	
827.96	4304.1	
828.13	4461.2	
828.3	3226.2	
828.47	2813.9	
828.65	4754.7	
828.82	4685.8	
828.99	3991.5	
829.16	3570.3	
829.34	4954	
829.51	4832.5	
829.68	3337.5	
829.85	3370.3	
830.02	5273.5	
830.2	4941.1	
830.37	2622.1	
830.54	3848.1	
830.71	5562.3	
830.88	4446.8	
831.05	2641.2	
831.23	3008.5	
831.4	5385.5	
831.57	5805.3	
831.74	3094.5	
831.91	2766.1	
832.09	4788.8	
832.26	5002.5	
832.43	3166.2	
832.6	3549.1	
832.77	4732.2	
832.94	5283.8	
833.12	2624.8	
833.29	3104	
833.46	4386.7	
833.63	6034.7	
833.8	3411.9	
833.97	3184.6	
834.15	5022.3	
834.32	4878.9	
834.49	3343.7	
834.66	3346.4	
834.83	5085.8	
835	4323.3	
835.17	3093.8	
835.35	3067.2	
835.52	4914.4	
835.69	4775.2	
835.86	3193.5	
836.03	2708.1	
836.2	4967.7	
836.37	4633.2	
836.55	3160.7	
836.72	3028.9	
836.89	4633.9	
837.06	5052.3	
837.23	3181.2	
837.4	3445.4	
837.57	5639.4	
837.75	6015.6	
837.92	2943.6	
838.09	3077.4	
838.26	4632.5	
838.43	5082.4	
838.6	3319.8	
838.77	2971.6	
838.94	5712.5	
839.11	5584.8	
839.29	3198.2	
839.46	2582.5	
839.63	4995	
839.8	4674.1	
839.97	3114.3	
840.14	3044.6	
840.31	4825	
840.48	4988.9	
840.65	2643.9	
840.82	3030.3	
841	4913.1	
841.17	4837.3	
841.34	2917.7	
841.51	2913.6	
841.68	4921.3	
841.85	4677.6	
842.02	2977.1	
842.19	2544.3	
842.36	4827.7	
842.53	4786.8	
842.7	2869.9	
842.87	3396.9	
843.05	6017.6	
843.22	4714.4	
843.39	2709.5	
843.56	3059	
843.73	4610.7	
843.9	5048.2	
844.07	4356	
844.24	3678.2	
844.41	6779.5	
844.58	4359.4	
844.75	2758.6	
844.92	2931.3	
845.09	4939	
845.26	4891.2	
845.43	2853.5	
845.6	3044	
845.77	4962.9	
845.94	4773.8	
846.12	3135.4	
846.29	3244.7	
846.46	5168.4	
846.63	4989.5	
846.8	2796.2	
846.97	3334.1	
847.14	5246.9	
847.31	4846.9	
847.48	3127.9	
847.65	3455.6	
847.82	5173.9	
847.99	5010	
848.16	3663.8	
848.33	3424.2	
848.5	4622.9	
848.67	5293.3	
848.84	2793.4	
849.01	2968.2	
849.18	4530.1	
849.35	4287.8	
849.52	3444.7	
849.69	2765.4	
849.86	5156.1	
850.03	5196.4	
850.2	2804.4	
850.37	3401.7	
850.54	5129.5	
850.71	4663.9	
850.88	3388.7	
851.05	2717.7	
851.22	4820.9	
851.39	5270.1	
851.56	2621.4	
851.73	3167.5	
851.9	4422.9	
852.07	5150.6	
852.24	3131.3	
852.41	2811.2	
852.58	4874.8	
852.75	4451.6	
852.92	3153.9	
853.09	2836.4	
853.26	4572.4	
853.43	5258.5	
853.6	2862.4	
853.77	2500.6	
853.94	5338.4	
854.11	4427	
854.28	4037.9	
854.44	3073.3	
854.61	5588.2	
854.78	5153.4	
854.95	2833.7	
855.12	3457.7	
855.29	4103.4	
855.46	5475.6	
855.63	2813.2	
855.8	3816.7	
855.97	4580.6	
856.14	5175.2	
856.31	3866.6	
856.48	3084.9	
856.65	4640.7	
856.82	4333.5	
856.99	2745.6	
857.16	3076.7	
857.33	5786.2	
857.49	4694.6	
857.66	3000.3	
857.83	3166.8	
858	4674.1	
858.17	4840.7	
858.34	2671.9	
858.51	2856.9	
858.68	5377.3	
858.85	5385.5	
859.02	3226.2	
859.19	3399.6	
859.36	4490.5	
859.52	4421.6	
859.69	2846	
859.86	3310.2	
860.03	4487.1	
860.2	5381.4	
860.37	2613.9	
860.54	2870.6	
860.71	5115.8	
860.88	5318.6	
861.05	3139.5	
861.21	3552.5	
861.38	5364.3	
861.55	4312.3	
861.72	2624.1	
861.89	3112.2	
862.06	5091.9	
862.23	5453.7	
862.4	2696.5	
862.56	2923.8	
862.73	4979.3	
862.9	4773.1	
863.07	3193.5	
863.24	2654.9	
863.41	4341.7	
863.58	4345.1	
863.75	2852.8	
863.91	3262.4	
864.08	5302.2	
864.25	5046.9	
864.42	3442	
864.59	3901.4	
864.76	5590.3	
864.93	4435.9	
865.09	2761.3	
865.26	2993.4	
865.43	5292	
865.6	5532.2	
865.77	2510.1	
865.94	2786.6	
866.1	5241.4	
866.27	5055.1	
866.44	4136.9	
866.61	2670.6	
866.78	4696	
866.95	4977.2	
867.11	2758.6	
867.28	2534.7	
867.45	5217.5	
867.62	4412.7	
867.79	3207.8	
867.96	2794.1	
868.12	4339.6	
868.29	5050.3	
868.46	2808.4	
868.63	3656.3	
868.8	5171.1	
868.97	5000.5	
869.13	2942.9	
869.3	2957.9	
869.47	4941.7	
869.64	5176.6	
869.81	2833.7	
869.97	2805	
870.14	4870.1	
870.31	5420.3	
870.48	2799.6	
870.65	3485	
870.81	4625.7	
870.98	4631.1	
871.15	3159.3	
871.32	2904	
871.48	4951.3	
871.65	5425.8	
871.82	2784.6	
871.99	3095.8	
872.16	5735	
872.32	5233.9	
872.49	2873.3	
872.66	2886.3	
872.83	5084.4	
872.99	4515.8	
873.16	3194.1	
873.33	2770.2	
873.5	4785.4	
873.67	4833.2	
873.83	2940.2	
874	3691.1	
874.17	4938.3	
874.34	5655.8	
874.5	3534.1	
874.67	3424.9	
874.84	5310.4	
875.01	4293.2	
875.17	3814.7	
875.34	2803	
875.51	4866	
875.68	5764.3	
875.84	3336.8	
876.01	3919.8	
876.18	5001.1	
876.34	4977.2	
876.51	2804.4	
876.68	2784.6	
876.85	4601.8	
877.01	5257.1	
877.18	3895.2	
877.35	2768.9	
877.52	4868	
877.68	4383.3	
877.85	2806.4	
878.02	2750.4	
878.18	4709.6	
878.35	4530.8	
878.52	2303.3	
878.69	3106.8	
878.85	5147.9	
879.02	4981.3	
879.19	3851.5	
879.35	3008.5	
879.52	5028.4	
879.69	5143.1	
879.86	2507.4	
880.02	3131.3	
880.19	4763.6	
880.36	5590.3	
880.52	3138.2	
880.69	3291.1	
880.86	5079.6	
881.02	5125.4	
881.19	3045.3	
881.36	3026.2	
881.52	4979.3	
881.69	4509.6	
881.86	3013.9	
882.02	2973.7	
882.19	5224.4	
882.36	5954.8	
882.52	2882.9	
882.69	3863.8	
882.86	4886.5	
883.02	4823.6	
883.19	3373	
883.36	3143.6	
883.52	5128.1	
883.69	5687.2	
883.86	2852.8	
884.02	2575	
884.19	5087.8	
884.36	4754	
884.52	3151.1	
884.69	3037.8	
884.86	4601.1	
885.02	5459.2	
885.19	3072.6	
885.36	3172.3	
885.52	4734.2	
885.69	4889.2	
885.86	3943	
886.02	3512.3	
886.19	5005.9	
886.35	4575.2	
886.52	3077.4	
886.69	3827.7	
886.85	4400.4	
887.02	5294	
887.19	5294	
887.35	5294	
887.52	5294	
887.68	5294	
887.85	5294	
888.02	5294	
888.18	5294	
888.35	5294	
888.51	5294	
888.68	5294	
888.85	5294	
889.01	5294	
889.18	5294	
889.35	5294	
889.51	5294	
889.68	5294	
889.84	5294	
890.01	5294	
890.17	5294	
890.34	5294	
890.51	5294	
890.67	5294	
890.84	5294	
891	5294	
891.17	5294	
891.34	5294	
891.5	5294	
891.67	5294	
891.83	5294	
892	5294	
892.16	5294	
892.33	5294	
892.5	5294	
892.66	5294	
892.83	5294	
892.99	5294	
893.16	5294	
893.32	5294	
893.49	5294	
893.65	5294	
893.82	5294	
893.99	5294	
894.15	5294	
894.32	5294	
894.48	5294	
894.65	5294	
894.81	5294	
894.98	5294	
895.14	5294	
895.31	5294	
895.47	5294	
895.64	5294	
895.81	5294	
895.97	5294	
896.14	5294	
896.3	5294	
896.47	5294	
896.63	5294	
896.8	5294	
896.96	5294	
897.13	5294	
897.29	5294	
897.46	5294	
897.62	5294	
897.79	5294	
897.95	5294	
898.12	5294	
898.28	5294	
898.45	5294	
898.61	5294	
898.78	5294	
898.94	5294	
899.11	5294	
899.27	5294	
899.44	5294	
899.6	5294	
899.77	5294	
899.93	5294	
900.1	5294	
900.26	5294	
900.43	5294	
900.59	5294	
900.76	5294	
900.92	5294	
901.09	5294	
901.25	5294	
901.42	5294	
901.58	5294	
901.75	5294	
901.91	5294	
902.07	5294	
902.24	5294	
902.4	5294	
902.57	5294	
902.73	5294	
902.9	5294	
903.06	5294	
903.23	5294	
903.39	5294	
903.56	5294	
903.72	5294	
903.88	5294	
904.05	5294	
904.21	5294	
904.38	5294	
904.54	5294	
904.71	5294	
904.87	5294	
905.03	5294	
905.2	5294	
905.36	5294	
905.53	5294	
905.69	5294	
905.86	5294	
906.02	5294	
906.18	5294	
906.35	5294	
906.51	5294	
906.68	5294	
906.84	5294	
907.01	5294	
907.17	5294	
907.33	5294	
907.5	5294	
907.66	5294	
907.83	5294	
907.99	5294	
908.15	5294	
908.32	5294	
908.48	5294	
908.65	5294	
908.81	5294	
908.97	5294	
909.14	5294	
909.3	5294	
909.47	5294	
909.63	5294	
909.79	5294	
909.96	5294	
910.12	5294	
910.28	5294	
910.45	5294	
910.61	5294	
910.78	5294	
910.94	5294	
911.1	5294	
911.27	5294	
911.43	5294	
911.59	5294	
911.76	5294	
911.92	5294	
912.08	5294	
912.25	5294	
912.41	5294	
912.57	5294	
912.74	5294	
912.9	5294	
913.07	5294	
913.23	5294	
913.39	5294	
913.56	5294	
913.72	5294	
913.88	5294	
914.05	5294	
914.21	5294	
914.37	5294	
914.54	5294	
914.7	5294	
914.86	5294	
915.03	5294	
915.19	5294	
