Wavelength	Intensities	
nm	a.u.	
179.22	1772.3	
179.44	1771.8	
179.65	1772.9	
179.86	1770.8	
180.08	1798.1	
180.29	4323.3	
180.51	3180.5	
180.72	5178.6	
180.94	5947.3	
181.15	2942.9	
181.37	2869.9	
181.58	5074.2	
181.79	5317.9	
182.01	3006.4	
182.22	3210.5	
182.44	5307.7	
182.65	4490.5	
182.87	4030.4	
183.08	3517	
183.29	5588.2	
183.51	4614.1	
183.72	3236.5	
183.94	4610	
184.15	4973.2	
184.37	4972.5	
184.58	2882.2	
184.79	3820.8	
185.01	4626.4	
185.22	5321.3	
185.44	4044.7	
185.65	3504.1	
185.86	4917.9	
186.08	4560.1	
186.29	2807.8	
186.51	3040.6	
186.72	4670.7	
186.94	5399.8	
187.15	3450.1	
187.36	3581.9	
187.58	6855.9	
187.79	5066.7	
188.01	3652.9	
188.22	5526.8	
188.43	6023.8	
188.65	5304.2	
188.86	2981.2	
189.08	3547.8	
189.29	4779.3	
189.5	4804.5	
189.72	3267.9	
189.93	3411.2	
190.15	5442.8	
190.36	6369.9	
190.57	3670.6	
190.79	3426.3	
191	5498.1	
191.22	5460.6	
191.43	3645.4	
191.64	3031	
191.86	5696.1	
192.07	5406.6	
192.29	3121.8	
192.5	3321.1	
192.71	5434.6	
192.93	4743.1	
193.14	3269.9	
193.35	3320.4	
193.57	4827.1	
193.78	5522	
194	2689.7	
194.21	3300	
194.42	4668.7	
194.64	5029.8	
194.85	3557.3	
195.07	4127.3	
195.28	4998.4	
195.49	4418.2	
195.71	4280.3	
195.92	3093.8	
196.13	5137	
196.35	5195.7	
196.56	4567	
196.78	3555.3	
196.99	6401.3	
197.2	5981.4	
197.42	4028.4	
197.63	3566.9	
197.84	4479.6	
198.06	5167.7	
198.27	3288.4	
198.48	4274.8	
198.7	4821.6	
198.91	4924.7	
199.13	3534.8	
199.34	3579.2	
199.55	5383.4	
199.77	4399.7	
199.98	3166.2	
200.19	3626.3	
200.41	4955.4	
200.62	4629.8	
200.83	3664.5	
201.05	3946.4	
201.26	4899.4	
201.47	4700.1	
201.69	3202.3	
201.9	3072.6	
202.11	5011.4	
202.33	5773.9	
202.54	3430.3	
202.76	3749.8	
202.97	5108.3	
203.18	5133.6	
203.4	3710.2	
203.61	3661.8	
203.82	5063.3	
204.04	4742.4	
204.25	3547.8	
204.46	3495.9	
204.68	4996.4	
204.89	5185.5	
205.1	3507.5	
205.32	3087.7	
205.53	5344.5	
205.74	5404.6	
205.96	2648.7	
206.17	3579.8	
206.38	5285.1	
206.6	5394.3	
206.81	4197.7	
207.02	3303.4	
207.24	5174.5	
207.45	5546.6	
207.66	3446.7	
207.88	2960.7	
208.09	5175.9	
208.3	4979.3	
208.52	3152.5	
208.73	3459.7	
208.94	4943.1	
209.15	5582.1	
209.37	3368.9	
209.58	3822.9	
209.79	5418.2	
210.01	4772.4	
210.22	2822.1	
210.43	2886.3	
210.65	4979.3	
210.86	5304.9	
211.07	3378.5	
211.29	3112.9	
211.5	5239.4	
211.71	4904.2	
211.93	3130.7	
212.14	3153.9	
212.35	4894.6	
212.56	5112.4	
212.78	3581.9	
212.99	2970.9	
213.2	5758.2	
213.42	4823	
213.63	3272.7	
213.84	3471.3	
214.06	4446.8	
214.27	4578.6	
214.48	3382.6	
214.69	3622.9	
214.91	5517.2	
215.12	5589.6	
215.33	3645.4	
215.55	3964.2	
215.76	5975.3	
215.97	5258.5	
216.18	3521.1	
216.4	3448.8	
216.61	4709	
216.82	5387.5	
217.04	3210.5	
217.25	3274.7	
217.46	5510.4	
217.67	5253.7	
217.89	2849.4	
218.1	2913.6	
218.31	5115.1	
218.53	5145.9	
218.74	3342.3	
218.95	3213.3	
219.16	4985.4	
219.38	5751.4	
219.59	3265.1	
219.8	3826.3	
220.01	6213.5	
220.23	4961.5	
220.44	4111	
220.65	3121.8	
220.87	5063.9	
221.08	5512.4	
221.29	2943.6	
221.5	3842.7	
221.72	6617.7	
221.93	4751.3	
222.14	3577.1	
222.35	4237.2	
222.57	4937.7	
222.78	5288.5	
222.99	3482.2	
223.2	3679.5	
223.42	5244.2	
223.63	5329.5	
223.84	2712.2	
224.05	2686.3	
224.27	6248.4	
224.48	5730.2	
224.69	4190.8	
224.9	3540.9	
225.12	5168.4	
225.33	4964.3	
225.54	2924.5	
225.75	3209.8	
225.97	4639.3	
226.18	4928.1	
226.39	3474	
226.6	3269.2	
226.82	4792.2	
227.03	4686.4	
227.24	3604.4	
227.45	3004.4	
227.67	5289.2	
227.88	5725.4	
228.09	4041.3	
228.3	3961.5	
228.52	5334.3	
228.73	4937	
228.94	3303.4	
229.15	3017.3	
229.36	4934.9	
229.58	4896.7	
229.79	3384.6	
230	3934.1	
230.21	5866.1	
230.43	5038.7	
230.64	3523.9	
230.85	3682.2	
231.06	5428.5	
231.28	5331.5	
231.49	3010.5	
231.7	3459	
231.91	5287.2	
232.12	4954	
232.34	3067.9	
232.55	3472.7	
232.76	5531.6	
232.97	5115.1	
233.18	3168.9	
233.4	3583.3	
233.61	5229.1	
233.82	4773.1	
234.03	3332.7	
234.25	3313.6	
234.46	6722.1	
234.67	4995.7	
234.88	3675.4	
235.09	3186	
235.31	5235.3	
235.52	4883	
235.73	3549.1	
235.94	3028.3	
236.15	4769.7	
236.37	5912.5	
236.58	3201	
236.79	3502.7	
237	5238.7	
237.21	4526.7	
237.43	3707.5	
237.64	2936.8	
237.85	8530.5	
238.06	4622.3	
238.27	3656.3	
238.48	3033.7	
238.7	5332.9	
238.91	4872.1	
239.12	3411.2	
239.33	3484.3	
239.54	4629.1	
239.76	4922.6	
239.97	3393.5	
240.18	3446.7	
240.39	6059.9	
240.6	5160.9	
240.82	3581.9	
241.03	2958.6	
241.24	4945.2	
241.45	5694	
241.66	3118.4	
241.87	3684.3	
242.09	5649	
242.3	5878.4	
242.51	3702.7	
242.72	3487	
242.93	5386.8	
243.14	4905.6	
243.36	3945.8	
243.57	4267.3	
243.78	5670.8	
243.99	5289.2	
244.2	3430.3	
244.41	3138.9	
244.63	4582.7	
244.84	5225.1	
245.05	3630.4	
245.26	3410.6	
245.47	5228.5	
245.68	5417.6	
245.9	4446.1	
246.11	3589.4	
246.32	4844.8	
246.53	5207.3	
246.74	5436	
246.95	2907.4	
247.16	4614.8	
247.38	5023.7	
247.59	2926.5	
247.8	3454.9	
248.01	4625	
248.22	4996.4	
248.43	3108.1	
248.64	3375.7	
248.86	4561.5	
249.07	4772.4	
249.28	3132.7	
249.49	3483.6	
249.7	5425.1	
249.91	5515.9	
250.12	2919.7	
250.34	2970.2	
250.55	5113.8	
250.76	5027.1	
250.97	3589.4	
251.18	3601.7	
251.39	5529.5	
251.6	5160.2	
251.81	3586.7	
252.03	3610.6	
252.24	4760.2	
252.45	5397.1	
252.66	3036.5	
252.87	3777.1	
253.08	4997	
253.29	6334.4	
253.5	3054.9	
253.72	4135.5	
253.93	4913.8	
254.14	5832.6	
254.35	3303.4	
254.56	3358.7	
254.77	5203.9	
254.98	4690.5	
255.19	3235.1	
255.41	4065.2	
255.62	5092.6	
255.83	5528.8	
256.04	3706.8	
256.25	3571	
256.46	5970.5	
256.67	4734.9	
256.88	3548.4	
257.09	3947.8	
257.31	4722.6	
257.52	4713.1	
257.73	4385.4	
257.94	3284.3	
258.15	4899.4	
258.36	4967	
258.57	4052.9	
258.78	2626.2	
258.99	5409.4	
259.2	4844.1	
259.41	3263.8	
259.63	3365.5	
259.84	5658.5	
260.05	5980.8	
260.26	4197.7	
260.47	3266.5	
260.68	5461.2	
260.89	4929.5	
261.1	3947.8	
261.31	3204.4	
261.52	5589.6	
261.73	5836	
261.95	4214	
262.16	3605.1	
262.37	5526.1	
262.58	5623	
262.79	4171	
263	3364.8	
263.21	5053	
263.42	4882.4	
263.63	3412.6	
263.84	3356.6	
264.05	5443.5	
264.26	5745.9	
264.47	4106.9	
264.69	3642.7	
264.9	5609.4	
265.11	5133.6	
265.32	3233.1	
265.53	3291.8	
265.74	5118.6	
265.95	4485.7	
266.16	3478.1	
266.37	3861.8	
266.58	5148.6	
266.79	4830.5	
267	3267.2	
267.21	3035.8	
267.42	4582	
267.63	4943.8	
267.84	3405.8	
268.06	2996.2	
268.27	5433.3	
268.48	5559.6	
268.69	3368.2	
268.9	3962.1	
269.11	5582.1	
269.32	4516.5	
269.53	3378.5	
269.74	3213.9	
269.95	5218.2	
270.16	4451.6	
270.37	3478.1	
270.58	4006.5	
270.79	4865.3	
271	5418.2	
271.21	3625.6	
271.42	3448.8	
271.63	5128.8	
271.84	4600.4	
272.05	2798.2	
272.26	3106.1	
272.47	5037.3	
272.68	5145.9	
272.89	3368.2	
273.11	3809.2	
273.32	4790.9	
273.53	5767.8	
273.74	3680.9	
273.95	3594.2	
274.16	5429.8	
274.37	5040.7	
274.58	3769.6	
274.79	3052.2	
275	5111	
275.21	5545.9	
275.42	4501.4	
275.63	3847.5	
275.84	5227.8	
276.05	6398.5	
276.26	3586.7	
276.47	3441.3	
276.68	4878.3	
276.89	5792.3	
277.1	3846.1	
277.31	3018	
277.52	5200.5	
277.73	5384.8	
277.94	3013.2	
278.15	3289	
278.36	5169.8	
278.57	4757.4	
278.78	3272.7	
278.99	3672	
279.2	4698	
279.41	4660.5	
279.62	4273.4	
279.83	3139.5	
280.04	6023.8	
280.25	4657.8	
280.46	4289.1	
280.67	3398.9	
280.88	4695.3	
281.09	5565.7	
281.3	3611.3	
281.51	4499.4	
281.72	4756.7	
281.93	5354.8	
282.14	3244.7	
282.35	3476.1	
282.56	5440.1	
282.77	5378.6	
282.98	3350.5	
283.19	4029	
283.4	6486.6	
283.61	4943.1	
283.82	3127.2	
284.03	4205.8	
284.24	5130.8	
284.45	5508.4	
284.66	4242	
284.87	4041.3	
285.08	5439.4	
285.29	5571.8	
285.5	2974.3	
285.71	3388	
285.92	5520.6	
286.12	6110.5	
286.33	4161.5	
286.54	3387.3	
286.75	5379.3	
286.96	4906.9	
287.17	3099.3	
287.38	4119.1	
287.59	4727.4	
287.8	4681	
288.01	3362.1	
288.22	3844	
288.43	5361.6	
288.64	4530.8	
288.85	3979.2	
289.06	3779.2	
289.27	5396.4	
289.48	5745.9	
289.69	4221.5	
289.9	3839.9	
290.11	5539.1	
290.32	4764.9	
290.53	4041.3	
290.74	3718.4	
290.94	5339.1	
291.15	5435.3	
291.36	3267.2	
291.57	3778.5	
291.78	4797	
291.99	4470.7	
292.2	3149.1	
292.41	3697.9	
292.62	5461.9	
292.83	5303.6	
293.04	4468	
293.25	3173.7	
293.46	4831.2	
293.67	5446.9	
293.88	3248.8	
294.09	3162.1	
294.29	4600.4	
294.5	5101.5	
294.71	3478.8	
294.92	3276.8	
295.13	4859.8	
295.34	5892	
295.55	2975	
295.76	2902.7	
295.97	5315.2	
296.18	5907	
296.39	3112.2	
296.6	3261.7	
296.81	5089.9	
297.01	5401.2	
297.22	3356.6	
297.43	3241.9	
297.64	4723.3	
297.85	4653	
298.06	2718.3	
298.27	2924.5	
298.48	4976.6	
298.69	4705.5	
298.9	3543	
299.11	3183.9	
299.31	4600.4	
299.52	4642.7	
299.73	3716.4	
299.94	3604.4	
300.15	5004.6	
300.36	4740.4	
300.57	3728.7	
300.78	3596.9	
300.99	4905.6	
301.2	5047.6	
301.4	3235.1	
301.61	3529.3	
301.82	5270.8	
302.03	5362.3	
302.24	3904.8	
302.45	3066.5	
302.66	5205.9	
302.87	5556.8	
303.08	3283.6	
303.29	4335.5	
303.49	4868	
303.7	5005.9	
303.91	2962.7	
304.12	4163.5	
304.33	4634.6	
304.54	5107	
304.75	3275.4	
304.96	3119.1	
305.16	5236.7	
305.37	5915.2	
305.58	2901.3	
305.79	2924.5	
306	5270.8	
306.21	4539.7	
306.42	3200.3	
306.63	4818.2	
306.83	4864.6	
307.04	5442.8	
307.25	3586	
307.46	3545	
307.67	4377.2	
307.88	5371.8	
308.09	3212.6	
308.29	3261.7	
308.5	5063.9	
308.71	5467.4	
308.92	3500	
309.13	3132.7	
309.34	4911.7	
309.55	4919.2	
309.75	3981.3	
309.96	3681.6	
310.17	5342.5	
310.38	4730.8	
310.59	3828.3	
310.8	3060.3	
311.01	5784.8	
311.21	4886.5	
311.42	3127.2	
311.63	3232.4	
311.84	4811.4	
312.05	5109.7	
312.26	3607.2	
312.46	3879.5	
312.67	4829.8	
312.88	4611.3	
313.09	3117	
313.3	3087	
313.51	5672.2	
313.71	5907.7	
313.92	3155.2	
314.13	3269.2	
314.34	5188.9	
314.55	4908.3	
314.76	3929.4	
314.96	3484.3	
315.17	5117.9	
315.38	5270.1	
315.59	3187.3	
315.8	3059.7	
316.01	5662.6	
316.21	5825.1	
316.42	3033.7	
316.63	3483.6	
316.84	4849.6	
317.05	5569.1	
317.26	3616.7	
317.46	3297.2	
317.67	4911	
317.88	5301.5	
318.09	3961.5	
318.3	2928.6	
318.5	4816.8	
318.71	5259.2	
318.92	4999.8	
319.13	3678.2	
319.34	5425.8	
319.54	5522.7	
319.75	2988	
319.96	2796.8	
320.17	5281	
320.38	5487.2	
320.58	2975	
320.79	3386	
321	5508.4	
321.21	5545.2	
321.42	3530.7	
321.62	2898.6	
321.83	4685.8	
322.04	4997	
322.25	3381.9	
322.46	3239.9	
322.66	5077.6	
322.87	5298.1	
323.08	3830.4	
323.29	3104	
323.5	5860.6	
323.7	4615.4	
323.91	4164.9	
324.12	3741.6	
324.33	5033.2	
324.53	5309	
324.74	3676.8	
324.95	3839.9	
325.16	4500.8	
325.37	4856.4	
325.57	3172.3	
325.78	3245.3	
325.99	5098.1	
326.2	4566.3	
326.4	4336.9	
326.61	2942.2	
326.82	4888.5	
327.03	5074.2	
327.24	4384.7	
327.44	4158.7	
327.65	5211.4	
327.86	4354	
328.07	3623.5	
328.27	3066.5	
328.48	5613.5	
328.69	4678.9	
328.9	4423.6	
329.1	3378.5	
329.31	4885.1	
329.52	5678.3	
329.73	3188	
329.93	3479.5	
330.14	5040.1	
330.35	5235.3	
330.56	5096	
330.76	3812	
330.97	4862.6	
331.18	5137	
331.39	3476.1	
331.59	2893.8	
331.8	5433.9	
332.01	5565	
332.22	3294.5	
332.42	3700	
332.63	5104.9	
332.84	4696.7	
333.05	3538.2	
333.25	3220.8	
333.46	4715.8	
333.67	5005.2	
333.88	3228.3	
334.08	3553.9	
334.29	6456.6	
334.5	5579.3	
334.7	3052.8	
334.91	4435.2	
335.12	4668	
335.33	5338.4	
335.53	3489.1	
335.74	4977.2	
335.95	4881	
336.16	4612	
336.36	3487.7	
336.57	3979.2	
336.78	4533.5	
336.98	5541.8	
337.19	4248.9	
337.4	3379.1	
337.61	5973.2	
337.81	4616.1	
338.02	3270.6	
338.23	4114.4	
338.43	5679	
338.64	4747.2	
338.85	3186	
339.05	4075.5	
339.26	5767.1	
339.47	4509.6	
339.68	3191.4	
339.88	4558.1	
340.09	5208	
340.3	5350.7	
340.5	3667.9	
340.71	2893.8	
340.92	4577.9	
341.13	5601.9	
341.33	3039.9	
341.54	3684.3	
341.75	5172.5	
341.95	4878.3	
342.16	3515.7	
342.37	3871.3	
342.57	4695.3	
342.78	4958.8	
342.99	3866.6	
343.19	2875.3	
343.4	5347.2	
343.61	5207.3	
343.81	3383.2	
344.02	3091.8	
344.23	5361.6	
344.43	5634	
344.64	3907.5	
344.85	3792.2	
345.06	5234.6	
345.26	5494.7	
345.47	3661.8	
345.68	4231.1	
345.88	4471.4	
346.09	5373.9	
346.3	3770.3	
346.5	2851.5	
346.71	4959.5	
346.92	4752	
347.12	2968.9	
347.33	3662.5	
347.54	5487.2	
347.74	5791.7	
347.95	3632.4	
348.16	2746.3	
348.36	4799.1	
348.57	4682.3	
348.78	3627.6	
348.98	3846.1	
349.19	4958.8	
349.39	4547.9	
349.6	2970.9	
349.81	3215.3	
350.01	5229.8	
350.22	4746.5	
350.43	3519.1	
350.63	4099.4	
350.84	5033.2	
351.05	4799.1	
351.25	3217.4	
351.46	2960.7	
351.67	5433.9	
351.87	4743.8	
352.08	3372.3	
352.29	3857	
352.49	5337.7	
352.7	5128.1	
352.9	3124.5	
353.11	3790.8	
353.32	5978.7	
353.52	4864.6	
353.73	3141.6	
353.94	3910.3	
354.14	5258.5	
354.35	5053.7	
354.55	3163.4	
354.76	3487.7	
354.97	5195	
355.17	5041.4	
355.38	3066.5	
355.59	4084.3	
355.79	4776.5	
356	5066	
356.2	3512.3	
356.41	3115	
356.62	4601.8	
356.82	4975.2	
357.03	3853.6	
357.24	3395.5	
357.44	4800.4	
357.65	4846.2	
357.85	4406.5	
358.06	3578.5	
358.27	4571.1	
358.47	4741.7	
358.68	3043.3	
358.88	3776.5	
359.09	5254.4	
359.3	5522	
359.5	4379.9	
359.71	3888.4	
359.91	5928.2	
360.12	5360.2	
360.33	3796.3	
360.53	4130.8	
360.74	4838.7	
360.94	4945.2	
361.15	3943	
361.36	3294.5	
361.56	5529.5	
361.77	5086.5	
361.97	4417.5	
362.18	3530	
362.38	5569.8	
362.59	4782.7	
362.8	3300.6	
363	3147.7	
363.21	4581.3	
363.41	5104.9	
363.62	3735.5	
363.83	4597	
364.03	5263.3	
364.24	5976.7	
364.44	4655	
364.65	4643.4	
364.85	5082.4	
365.06	4784.1	
365.27	3472	
365.47	3516.4	
365.68	5983.5	
365.88	4948.6	
366.09	3809.2	
366.29	3510.9	
366.5	5208.7	
366.71	5571.2	
366.91	4670.7	
367.12	4016.7	
367.32	6131.6	
367.53	5539.8	
367.73	3991.5	
367.94	4792.2	
368.14	5501.5	
368.35	6214.2	
368.56	3933.5	
368.76	3352.5	
368.97	5595.7	
369.17	6855.2	
369.38	3486.3	
369.58	3782.6	
369.79	4743.1	
369.99	5901.6	
370.2	4571.1	
370.4	3779.2	
370.61	5302.9	
370.82	6326.9	
371.02	3744.4	
371.23	3164.1	
371.43	4723.3	
371.64	5935	
371.84	3725.9	
372.05	4773.1	
372.25	6963.1	
372.46	5597.1	
372.66	3813.3	
372.87	3738.2	
373.07	5674.2	
373.28	7041.6	
373.48	4614.1	
373.69	4377.9	
373.9	5322.7	
374.1	5372.5	
374.31	4599.7	
374.51	4240	
374.72	5967.8	
374.92	5029.1	
375.13	4831.2	
375.33	4081.6	
375.54	5661.3	
375.74	5218.9	
375.95	4225.6	
376.15	5261.9	
376.36	5698.1	
376.56	5626.5	
376.77	4307.6	
376.97	4638	
377.18	6664.1	
377.38	5870.2	
377.59	4999.1	
377.79	3907.5	
378	5657.2	
378.2	6038.1	
378.41	3960.1	
378.61	3926	
378.82	6054.5	
379.02	5384.1	
379.23	4143.7	
379.43	5033.9	
379.64	6176	
379.84	5856.5	
380.05	3980.6	
380.25	3895.2	
380.46	5883.1	
380.66	5642.2	
380.87	5202.5	
381.07	5422.3	
381.28	6438.1	
381.48	5879	
381.69	3958.7	
381.89	4038.6	
382.1	5012.7	
382.3	6018.3	
382.51	4885.1	
382.71	5698.1	
382.91	5825.1	
383.12	6310.5	
383.32	4275.5	
383.53	4459.8	
383.73	5803.9	
383.94	5600.5	
384.14	4483.7	
384.35	3700	
384.55	5477.6	
384.76	5827.8	
384.96	4297.3	
385.17	4497.3	
385.37	5894.7	
385.58	5208	
385.78	4564.2	
385.98	3624.9	
386.19	5447.6	
386.39	5806	
386.6	4119.1	
386.8	4251.6	
387.01	5866.7	
387.21	5894.7	
387.42	4638.6	
387.62	5093.3	
387.83	5322.7	
388.03	5809.4	
388.23	4372.4	
388.44	5023.7	
388.64	5127.4	
388.85	5229.1	
389.05	4675.5	
389.26	5242.8	
389.46	6916	
389.67	6344.6	
389.87	4756.7	
390.07	4785.4	
390.28	5677	
390.48	5381.4	
390.69	4074.1	
390.89	4379.2	
391.1	5504.3	
391.3	6318.7	
391.5	5311.1	
391.71	5816.9	
391.91	6113.2	
392.12	6903	
392.32	5422.3	
392.53	4709.6	
392.73	5578	
392.93	5781.4	
393.14	4534.9	
393.34	5079	
393.55	6019.7	
393.75	5709.1	
393.95	4510.3	
394.16	4416.1	
394.36	5543.9	
394.57	6021	
394.77	3942.3	
394.98	4345.8	
395.18	5466	
395.38	5545.2	
395.59	5213.4	
395.79	4325.3	
396	5667.4	
396.2	6098.9	
396.4	4999.1	
396.61	4977.2	
396.81	6189	
397.02	5671.5	
397.22	5324.7	
397.42	5328.1	
397.63	6331.6	
397.83	5689.9	
398.04	4315.1	
398.24	4790.9	
398.44	6044.2	
398.65	5393	
398.85	4263.2	
399.05	4397	
399.26	5709.1	
399.46	7182.2	
399.67	4677.6	
399.87	4469.4	
400.07	5961	
400.28	6335.1	
400.48	4599.1	
400.69	5530.2	
400.89	6591.7	
401.09	6935.1	
401.3	4563.6	
401.5	5454.4	
401.7	7163.1	
401.91	7367.2	
402.11	4926.7	
402.32	5068.7	
402.52	6621.8	
402.72	6502.3	
402.93	5184.8	
403.13	4172.4	
403.33	7214.3	
403.54	5929.6	
403.74	4836.6	
403.94	5585.5	
404.15	6066.1	
404.35	7131.7	
404.56	4674.1	
404.76	6122.7	
404.96	6504.3	
405.17	6301.6	
405.37	5760.3	
405.57	5108.3	
405.78	6608.1	
405.98	6060.6	
406.18	4819.6	
406.39	5528.2	
406.59	6542.6	
406.79	6126.2	
407	4597.7	
407.2	4637.3	
407.4	6606.1	
407.61	6779.5	
407.81	4726.7	
408.01	6445.6	
408.22	5754.8	
408.42	7496.9	
408.62	5713.8	
408.83	5388.9	
409.03	6469.5	
409.23	6306.4	
409.44	5582.8	
409.64	5834.7	
409.84	7413	
410.05	7408.9	
410.25	5785.5	
410.45	5530.9	
410.66	7071.6	
410.86	9110.7	
411.06	6098.2	
411.27	6008.7	
411.47	9058.8	
411.67	7339.2	
411.88	6155.5	
412.08	6468.2	
412.28	7856.7	
412.49	8181	
412.69	6130.9	
412.89	6165.1	
413.09	8207.6	
413.3	8176.2	
413.5	6256.5	
413.7	5978.7	
413.91	7558.4	
414.11	8238.3	
414.31	6222.4	
414.52	6630	
414.72	7994.6	
414.92	7947.5	
415.12	6242.9	
415.33	6679.1	
415.53	8224.6	
415.73	8475.9	
415.94	7031.4	
416.14	6416.3	
416.34	7573.4	
416.55	7250.5	
416.75	7417.7	
416.95	7054.6	
417.15	8405.5	
417.36	8877.3	
417.56	7774.8	
417.76	6899.6	
417.97	8733.2	
418.17	8434.9	
418.37	6663.4	
418.57	6665.5	
418.78	8232.2	
418.98	8014.4	
419.18	7391.8	
419.38	7337.9	
419.59	8009.6	
419.79	7667.6	
419.99	6519.4	
420.2	6855.9	
420.4	8497	
420.6	8516.1	
420.8	6447	
421.01	6425.8	
421.21	8359.1	
421.41	8434.9	
421.61	6746.7	
421.82	6541.2	
422.02	7990.5	
422.22	8680	
422.42	7228.6	
422.63	6806.1	
422.83	8004.8	
423.03	9101.9	
423.23	6945.3	
423.44	6072.9	
423.64	8063.5	
423.84	7720.8	
424.04	6524.1	
424.25	6102.3	
424.45	8742.1	
424.65	8669.1	
424.85	5977.3	
425.06	6378.1	
425.26	8806.9	
425.46	7804.1	
425.66	6857.3	
425.87	6559	
426.07	8570.7	
426.27	8283.4	
426.47	6674.3	
426.67	6064.7	
426.88	8775.5	
427.08	8172.1	
427.28	6924.9	
427.48	6092.7	
427.69	7354.9	
427.89	7938.6	
428.09	6883.2	
428.29	6114.6	
428.5	8498.4	
428.7	8165.9	
428.9	6067.4	
429.1	6449.1	
429.3	8061.5	
429.51	8325	
429.71	6229.9	
429.91	7071	
430.11	8396.7	
430.31	8556.4	
430.52	6692.1	
430.72	6955.6	
430.92	8859.5	
431.12	8370	
431.32	6428.6	
431.53	6672.3	
431.73	7582.3	
431.93	8929.1	
432.13	6364.4	
432.33	6283.9	
432.54	7892.9	
432.74	8277.9	
432.94	6305	
433.14	7075	
433.34	8471.8	
433.55	8152.3	
433.75	7040.9	
433.95	8551.6	
434.15	8357.1	
434.35	8135.9	
434.56	6475.7	
434.76	6144.6	
434.96	8325	
435.16	8581.7	
435.36	6371.2	
435.56	7399.3	
435.77	8129.8	
435.97	8325	
436.17	8060.1	
436.37	7430.7	
436.57	8124.3	
436.78	8086.7	
436.98	8813.1	
437.18	7835.5	
437.38	8782.4	
437.58	8322.3	
437.78	8030.8	
437.99	6815.6	
438.19	8630.8	
438.39	9953.1	
438.59	6647.7	
438.79	6251.8	
438.99	9115.5	
439.2	8211	
439.4	6339.8	
439.6	6318.7	
439.8	8462.9	
440	9433.6	
440.2	7346.7	
440.4	7432.1	
440.61	8957.1	
440.81	9410.4	
441.01	6741.9	
441.21	7607.5	
441.41	9510.1	
441.61	9095.7	
441.81	7901.7	
442.02	8797.4	
442.22	9850	
442.42	9211.8	
442.62	6987	
442.82	6976.1	
443.02	9514.2	
443.22	8727.1	
443.43	7363.1	
443.63	6926.9	
443.83	8562.6	
444.03	8609	
444.23	8131.1	
444.43	7739.3	
444.63	8968.1	
444.83	9970.2	
445.04	7201.3	
445.24	8262.9	
445.44	9183.1	
445.64	9289.6	
445.84	7761.1	
446.04	7791.8	
446.24	8673.1	
446.44	9452.7	
446.65	7018.4	
446.85	7515.4	
447.05	8573.5	
447.25	9415.2	
447.45	7407.5	
447.65	6797.2	
447.85	8890.2	
448.05	8506.6	
448.25	7801.4	
448.46	7604.1	
448.66	8921	
448.86	8601.5	
449.06	6876.4	
449.26	7752.2	
449.46	9261.6	
449.66	8338.6	
449.86	7435.5	
450.06	7404.1	
450.26	8581	
450.47	9118.9	
450.67	7498.3	
450.87	7957.7	
451.07	9212.4	
451.27	9022.7	
451.47	7050.5	
451.67	7612.3	
451.87	8835.6	
452.07	9643.9	
452.27	7384.3	
452.47	7275.1	
452.67	9014.5	
452.88	9486.9	
453.08	6701.6	
453.28	8374.8	
453.48	10114	
453.68	8795.3	
453.88	7290.1	
454.08	7500.3	
454.28	9415.2	
454.48	9110.7	
454.68	7898.3	
454.88	8390.5	
455.08	9425.4	
455.28	9308.7	
455.48	7169.9	
455.68	7828	
455.89	10031	
456.09	9716.2	
456.29	7526.3	
456.49	7701.7	
456.69	9978.4	
456.89	9373.6	
457.09	8170.7	
457.29	8538	
457.49	9659.6	
457.69	9772.2	
457.89	8140	
458.09	7608.9	
458.29	9544.9	
458.49	10095	
458.69	8559.1	
458.89	8107.9	
459.09	10403	
459.29	10424	
459.49	8105.2	
459.69	8940.7	
459.9	9991.4	
460.1	9779.7	
460.3	7901.1	
460.5	7818.5	
460.7	9998.2	
460.9	9734	
461.1	7634.1	
461.3	8860.2	
461.5	10744	
461.7	10352	
461.9	8196.7	
462.1	8452.6	
462.3	10056	
462.5	10496	
462.7	8239	
462.9	8368.7	
463.1	11478	
463.3	11291	
463.5	8553	
463.7	9551.7	
463.9	10476	
464.1	10817	
464.3	8902.5	
464.5	9069.1	
464.7	11064	
464.9	10846	
465.1	10283	
465.3	9472.5	
465.5	11289	
465.7	11418	
465.9	9704.6	
466.1	9491.7	
466.3	11295	
466.5	11052	
466.7	10462	
466.9	9389.9	
467.1	11274	
467.3	11823	
467.5	10550	
467.7	9400.2	
467.9	12160	
468.1	12861	
468.3	10138	
468.5	10529	
468.7	11230	
468.9	11243	
469.1	9754.5	
469.3	10531	
469.5	12957	
469.7	11016	
469.9	10145	
470.1	9617.3	
470.3	11457	
470.5	11313	
470.7	10697	
470.9	9762	
471.1	11235	
471.3	11275	
471.5	9620	
471.69	11082	
471.89	10985	
472.09	10519	
472.29	10179	
472.49	10306	
472.69	10819	
472.89	11363	
473.09	9413.8	
473.29	9450	
473.49	10858	
473.69	10882	
473.89	10142	
474.09	9456.2	
474.29	11954	
474.49	11702	
474.69	10189	
474.89	9672.6	
475.09	10914	
475.29	10984	
475.49	9021.3	
475.69	9394.7	
475.88	12083	
476.08	11266	
476.28	9043.8	
476.48	9211.1	
476.68	11525	
476.88	11298	
477.08	9215.9	
477.28	9577.7	
477.48	10790	
477.68	11339	
477.88	9090.3	
478.08	9332.6	
478.28	11658	
478.48	10933	
478.67	9402.9	
478.87	8834.3	
479.07	11631	
479.27	10999	
479.47	9569.5	
479.67	9579.7	
479.87	11493	
480.07	11831	
480.27	8972.2	
480.47	10215	
480.67	11047	
480.87	11673	
481.06	9091.6	
481.26	9981.8	
481.46	11143	
481.66	10963	
481.86	9652.1	
482.06	10539	
482.26	10802	
482.46	11524	
482.66	9568.1	
482.86	9172.2	
483.05	11160	
483.25	10641	
483.45	11667	
483.65	9618.6	
483.85	10788	
484.05	11051	
484.25	9945.6	
484.45	10427	
484.65	11598	
484.84	11979	
485.04	9649.3	
485.24	9576.3	
485.44	12162	
485.64	10740	
485.84	9043.8	
486.04	10297	
486.24	10998	
486.44	11391	
486.63	9082.1	
486.83	9899.9	
487.03	11057	
487.23	11249	
487.43	9267.7	
487.63	11310	
487.83	11354	
488.02	12192	
488.22	10186	
488.42	10692	
488.62	12213	
488.82	11269	
489.02	9779.7	
489.22	9972.2	
489.41	12007	
489.61	11796	
489.81	9728.5	
490.01	9706	
490.21	12138	
490.41	12671	
490.61	9728.5	
490.8	9756.5	
491	11680	
491.2	11006	
491.4	10301	
491.6	9524.4	
491.8	11560	
491.99	11530	
492.19	9431.6	
492.39	9541.5	
492.59	11955	
492.79	11970	
492.99	10414	
493.18	9657.5	
493.38	12244	
493.58	13009	
493.78	10400	
493.98	10037	
494.18	12062	
494.37	11614	
494.57	10796	
494.77	10780	
494.97	12600	
495.17	12841	
495.37	10610	
495.56	10879	
495.76	13157	
495.96	12779	
496.16	11667	
496.36	10828	
496.55	12930	
496.75	12570	
496.95	11118	
497.15	11166	
497.35	12933	
497.54	12863	
497.74	10859	
497.94	12353	
498.14	13573	
498.34	13283	
498.53	10876	
498.73	11463	
498.93	12435	
499.13	13037	
499.33	11268	
499.52	11715	
499.72	13203	
499.92	13307	
500.12	11101	
500.32	11390	
500.51	13279	
500.71	13203	
500.91	12065	
501.11	11686	
501.31	13317	
501.5	13609	
501.7	12224	
501.9	11430	
502.1	13057	
502.29	13429	
502.49	11755	
502.69	11931	
502.89	13218	
503.09	13297	
503.28	10829	
503.48	10848	
503.68	12541	
503.88	12524	
504.07	11841	
504.27	11277	
504.47	12922	
504.67	12921	
504.86	11660	
505.06	11337	
505.26	12536	
505.46	13905	
505.65	11141	
505.85	11240	
506.05	12392	
506.25	12676	
506.44	10464	
506.64	11117	
506.84	12168	
507.04	12913	
507.23	10598	
507.43	11043	
507.63	13736	
507.83	12208	
508.02	10959	
508.22	10657	
508.42	13942	
508.62	11990	
508.81	10803	
509.01	11366	
509.21	11843	
509.4	12201	
509.6	11039	
509.8	10515	
510	12194	
510.19	13263	
510.39	10382	
510.59	10454	
510.79	12007	
510.98	13251	
511.18	10662	
511.38	10765	
511.57	12734	
511.77	12579	
511.97	11270	
512.17	10457	
512.36	12704	
512.56	12566	
512.76	10479	
512.95	10180	
513.15	12831	
513.35	11669	
513.55	11205	
513.74	10387	
513.94	12777	
514.14	12192	
514.33	11220	
514.53	11003	
514.73	12063	
514.92	12267	
515.12	10578	
515.32	10514	
515.51	12415	
515.71	12837	
515.91	11979	
516.11	10582	
516.3	13797	
516.5	12039	
516.7	11036	
516.89	11614	
517.09	12090	
517.29	12131	
517.48	11318	
517.68	10731	
517.88	12020	
518.07	12553	
518.27	11192	
518.47	10270	
518.66	12898	
518.86	11839	
519.06	10235	
519.25	10651	
519.45	12155	
519.65	13423	
519.84	11268	
520.04	11852	
520.24	13773	
520.43	12613	
520.63	10892	
520.83	10762	
521.02	11996	
521.22	12414	
521.42	11065	
521.61	11459	
521.81	12084	
522.01	12183	
522.2	11029	
522.4	10761	
522.6	12690	
522.79	11615	
522.99	10836	
523.18	10327	
523.38	12514	
523.58	12685	
523.77	12142	
523.97	10585	
524.17	14298	
524.36	13555	
524.56	11832	
524.76	11525	
524.95	12921	
525.15	12611	
525.34	11379	
525.54	11458	
525.74	13323	
525.93	12592	
526.13	12529	
526.33	11678	
526.52	13736	
526.72	13235	
526.91	12631	
527.11	11982	
527.31	13695	
527.5	14117	
527.7	12050	
527.89	11268	
528.09	12947	
528.29	13508	
528.48	12375	
528.68	12050	
528.87	13767	
529.07	13734	
529.27	12039	
529.46	11564	
529.66	13558	
529.85	13930	
530.05	11487	
530.25	12168	
530.44	14711	
530.64	13246	
530.83	11787	
531.03	12072	
531.23	13784	
531.42	13677	
531.62	12799	
531.81	11912	
532.01	14089	
532.21	14411	
532.4	11983	
532.6	12461	
532.79	15029	
532.99	14291	
533.18	12555	
533.38	13225	
533.58	13980	
533.77	14625	
533.97	12676	
534.16	13238	
534.36	15049	
534.55	14215	
534.75	13457	
534.95	12689	
535.14	14912	
535.34	14061	
535.53	12320	
535.73	14067	
535.92	15247	
536.12	14207	
536.31	12424	
536.51	13478	
536.71	14413	
536.9	13951	
537.1	12425	
537.29	12632	
537.49	14683	
537.68	13985	
537.88	12889	
538.07	12329	
538.27	14255	
538.46	15057	
538.66	12249	
538.86	12610	
539.05	14375	
539.25	14605	
539.44	12961	
539.64	12538	
539.83	14070	
540.03	14959	
540.22	12366	
540.42	12375	
540.61	14207	
540.81	14272	
541	12573	
541.2	13426	
541.39	13721	
541.59	14220	
541.78	13115	
541.98	12229	
542.18	13515	
542.37	13401	
542.57	12501	
542.76	13002	
542.96	13442	
543.15	13921	
543.35	12278	
543.54	11908	
543.74	14065	
543.93	13795	
544.13	12117	
544.32	13228	
544.52	13932	
544.71	13221	
544.91	11415	
545.1	12430	
545.3	13291	
545.49	13882	
545.69	11360	
545.88	11791	
546.08	14659	
546.27	14127	
546.47	12251	
546.66	11671	
546.86	13861	
547.05	14357	
547.24	11855	
547.44	11847	
547.63	12973	
547.83	14000	
548.02	12040	
548.22	12170	
548.41	12743	
548.61	13950	
548.8	11647	
549	11442	
549.19	13348	
549.39	13702	
549.58	11345	
549.78	11696	
549.97	13560	
550.17	13102	
550.36	12404	
550.55	13206	
550.75	13130	
550.94	13960	
551.14	11227	
551.33	11568	
551.53	12577	
551.72	13386	
551.92	11734	
552.11	11414	
552.31	13403	
552.5	13318	
552.69	12817	
552.89	10985	
553.08	13389	
553.28	13060	
553.47	11355	
553.67	12291	
553.86	13749	
554.06	12347	
554.25	10594	
554.44	11204	
554.64	14301	
554.83	13820	
555.03	11117	
555.22	11439	
555.42	13325	
555.61	13035	
555.8	11252	
556	11479	
556.19	12331	
556.39	13405	
556.58	11224	
556.78	11187	
556.97	12938	
557.16	12691	
557.36	12164	
557.55	10892	
557.75	12097	
557.94	13656	
558.13	10986	
558.33	10776	
558.52	13398	
558.72	12329	
558.91	10837	
559.1	11092	
559.3	12282	
559.49	11835	
559.69	10383	
559.88	11334	
560.07	12568	
560.27	13261	
560.46	11355	
560.66	11397	
560.85	12587	
561.04	11868	
561.24	10756	
561.43	10782	
561.63	12194	
561.82	12297	
562.01	11768	
562.21	11130	
562.4	12592	
562.59	13589	
562.79	10953	
562.98	10692	
563.18	12611	
563.37	13835	
563.56	11477	
563.76	10774	
563.95	12187	
564.14	12252	
564.34	11043	
564.53	10823	
564.73	12757	
564.92	12919	
565.11	11299	
565.31	10731	
565.5	13170	
565.69	12310	
565.89	10940	
566.08	11170	
566.27	13102	
566.47	13547	
566.66	11783	
566.85	10574	
567.05	12777	
567.24	12298	
567.44	10922	
567.63	11923	
567.82	13030	
568.02	12817	
568.21	10846	
568.4	11101	
568.6	12683	
568.79	12718	
568.98	10788	
569.18	10905	
569.37	12795	
569.56	14383	
569.76	11355	
569.95	12025	
570.14	12934	
570.34	12953	
570.53	10783	
570.72	10824	
570.91	13481	
571.11	12723	
571.3	11141	
571.49	11973	
571.69	12726	
571.88	12368	
572.07	11644	
572.27	11652	
572.46	12398	
572.65	13180	
572.85	10970	
573.04	11282	
573.23	13470	
573.43	12819	
573.62	10915	
573.81	11449	
574	12927	
574.2	12735	
574.39	11256	
574.58	11331	
574.78	13764	
574.97	13101	
575.16	11707	
575.36	11881	
575.55	13528	
575.74	13659	
575.93	10972	
576.13	12096	
576.32	13006	
576.51	13435	
576.71	11422	
576.9	12566	
577.09	13805	
577.28	13307	
577.48	11874	
577.67	11008	
577.86	13001	
578.05	13395	
578.25	11647	
578.44	11619	
578.63	13131	
578.83	14132	
579.02	11072	
579.21	12426	
579.4	13236	
579.6	13115	
579.79	11726	
579.98	13739	
580.17	13485	
580.37	13755	
580.56	11223	
580.75	11912	
580.94	13929	
581.14	13961	
581.33	12361	
581.52	11400	
581.71	13560	
581.91	14029	
582.1	11323	
582.29	11763	
582.48	13203	
582.68	13192	
582.87	12084	
583.06	11786	
583.25	13599	
583.45	12996	
583.64	12499	
583.83	12907	
584.02	13091	
584.21	13604	
584.41	12248	
584.6	11741	
584.79	13377	
584.98	13902	
585.18	11349	
585.37	11303	
585.56	12889	
585.75	13627	
585.94	11415	
586.14	11957	
586.33	13923	
586.52	13155	
586.71	11799	
586.91	11528	
587.1	12542	
587.29	13442	
587.48	11370	
587.67	11246	
587.87	13345	
588.06	13181	
588.25	12420	
588.44	11673	
588.63	12843	
588.83	13262	
589.02	11228	
589.21	10906	
589.4	12308	
589.59	12409	
589.78	10051	
589.98	10342	
590.17	11728	
590.36	12215	
590.55	9564.7	
590.74	10075	
590.94	12991	
591.13	11731	
591.32	10006	
591.51	9528.5	
591.7	12116	
591.89	11770	
592.09	9684.2	
592.28	10212	
592.47	11213	
592.66	12908	
592.85	9732.6	
593.05	10014	
593.24	11713	
593.43	12390	
593.62	10034	
593.81	10443	
594	11817	
594.19	11940	
594.39	10004	
594.58	9987.3	
594.77	12086	
594.96	12600	
595.15	9832.3	
595.34	10366	
595.54	11898	
595.73	11204	
595.92	9206.3	
596.11	10139	
596.3	12362	
596.49	11252	
596.68	10079	
596.88	10411	
597.07	12086	
597.26	11084	
597.45	9619.3	
597.64	10621	
597.83	11333	
598.02	11858	
598.22	9633	
598.41	10232	
598.6	11878	
598.79	11241	
598.98	9687.6	
599.17	10448	
599.36	11726	
599.55	12714	
599.74	11463	
599.94	11120	
600.13	12084	
600.32	11172	
600.51	9468.4	
600.7	9583.8	
600.89	12658	
601.08	12725	
601.27	9385.8	
601.47	10178	
601.66	11932	
601.85	12484	
602.04	10017	
602.23	10120	
602.42	11254	
602.61	11789	
602.8	9855.5	
602.99	9599.5	
603.18	11475	
603.37	11695	
603.57	10133	
603.76	10612	
603.95	12306	
604.14	11904	
604.33	9695.8	
604.52	9987.3	
604.71	11701	
604.9	11306	
605.09	10704	
605.28	10298	
605.47	12130	
605.66	11868	
605.86	10245	
606.05	9736	
606.24	12132	
606.43	10903	
606.62	9956.5	
606.81	10541	
607	11979	
607.19	11353	
607.38	9366.7	
607.57	9666.4	
607.76	11166	
607.95	10730	
608.14	9815.9	
608.33	10516	
608.52	11106	
608.72	11847	
608.91	9239.1	
609.1	9240.4	
609.29	11163	
609.48	10642	
609.67	10017	
609.86	9240.4	
610.05	10837	
610.24	11051	
610.43	9103.9	
610.62	8822	
610.81	12012	
611	11942	
611.19	9202.2	
611.38	9774.3	
611.57	11318	
611.76	12441	
611.95	8991.9	
612.14	8832.9	
612.33	11158	
612.52	10736	
612.71	9488.2	
612.9	8819.9	
613.09	10461	
613.28	12432	
613.47	9323	
613.66	10078	
613.85	11262	
614.04	10820	
614.24	9211.8	
614.43	8669.7	
614.62	11314	
614.81	11265	
615	9710.8	
615.19	9828.2	
615.38	10636	
615.57	11016	
615.76	9768.8	
615.95	10491	
616.14	11406	
616.33	11007	
616.52	9851.4	
616.71	10034	
616.9	11299	
617.09	11167	
617.28	9333.3	
617.47	10398	
617.66	10598	
617.85	10657	
618.04	10175	
618.22	9766.1	
618.41	10962	
618.6	11811	
618.79	9602.2	
618.98	9550.4	
619.17	12060	
619.36	10628	
619.55	9597.5	
619.74	9768.1	
619.93	11418	
620.12	10963	
620.31	10107	
620.5	10293	
620.69	12020	
620.88	12367	
621.07	10847	
621.26	10176	
621.45	11654	
621.64	11720	
621.83	10190	
622.02	9548.3	
622.21	11771	
622.4	11525	
622.59	10785	
622.78	10580	
622.97	11226	
623.16	12119	
623.35	10263	
623.54	9473.2	
623.72	11407	
623.91	11566	
624.1	10383	
624.29	9336.7	
624.48	12394	
624.67	11740	
624.86	10296	
625.05	9503.3	
625.24	12529	
625.43	11220	
625.62	11791	
625.81	9753.1	
626	12038	
626.19	11610	
626.38	10473	
626.56	9909.4	
626.75	11254	
626.94	11980	
627.13	10310	
627.32	9281.4	
627.51	11860	
627.7	12753	
627.89	9156.5	
628.08	10294	
628.27	11214	
628.46	11288	
628.65	9512.8	
628.83	9312.8	
629.02	11700	
629.21	11073	
629.4	9865.7	
629.59	10054	
629.78	11177	
629.97	11988	
630.16	10241	
630.35	9792.7	
630.54	12338	
630.72	12022	
630.91	9789.3	
631.1	10163	
631.29	11564	
631.48	11656	
631.67	10185	
631.86	9720.3	
632.05	11234	
632.24	11333	
632.42	9499.8	
632.61	9987.3	
632.8	11310	
632.99	11047	
633.18	10011	
633.37	10294	
633.56	11514	
633.75	11385	
633.93	10042	
634.12	9839.8	
634.31	12318	
634.5	11858	
634.69	9775	
634.88	10129	
635.07	11454	
635.25	11886	
635.44	10436	
635.63	10710	
635.82	11178	
636.01	10723	
636.2	10408	
636.39	9994.8	
636.57	12261	
636.76	11776	
636.95	9470.5	
637.14	10705	
637.33	11536	
637.52	12249	
637.7	9426.1	
637.89	10082	
638.08	11244	
638.27	12396	
638.46	10219	
638.65	10494	
638.83	12338	
639.02	10899	
639.21	10112	
639.4	10470	
639.59	11400	
639.78	10946	
639.96	9435	
640.15	9377	
640.34	11091	
640.53	11339	
640.72	9130.5	
640.91	9376.3	
641.09	10625	
641.28	11739	
641.47	9302.6	
641.66	10122	
641.85	11245	
642.03	11370	
642.22	9811.8	
642.41	9448.6	
642.6	10688	
642.79	10185	
642.97	9108.7	
643.16	9825.5	
643.35	10539	
643.54	10455	
643.73	9010.4	
643.91	9611.8	
644.1	10278	
644.29	10792	
644.48	9002.2	
644.67	9092.3	
644.85	10306	
645.04	10570	
645.23	8576.9	
645.42	8870.4	
645.6	10096	
645.79	11013	
645.98	8709.3	
646.17	7828	
646.36	9768.1	
646.54	10171	
646.73	9204.3	
646.92	8249.9	
647.11	9829.6	
647.29	10602	
647.48	8237.6	
647.67	8043.1	
647.86	10858	
648.05	10932	
648.23	8458.1	
648.42	9547.6	
648.61	10258	
648.8	10062	
648.98	8197.3	
649.17	8408.3	
649.36	9746.3	
649.55	9346.2	
649.73	8184.4	
649.92	8890.9	
650.11	9742.9	
650.3	9905.3	
650.48	8314.8	
650.67	8038.3	
650.86	10247	
651.05	9242.5	
651.23	8130.4	
651.42	8167.3	
651.61	9721.7	
651.79	9614.5	
651.98	8341.4	
652.17	7974.8	
652.36	9956.5	
652.54	9148.3	
652.73	8133.2	
652.92	7978.2	
653.11	9932.6	
653.29	10050	
653.48	7403.4	
653.67	8232.2	
653.85	9755.2	
654.04	10490	
654.23	8419.2	
654.42	7955	
654.6	9139.4	
654.79	9758.6	
654.98	7379.5	
655.16	7830.7	
655.35	8711.4	
655.54	8612.4	
655.73	7289.4	
655.91	7208.2	
656.1	9573.6	
656.29	8613.1	
656.47	6926.9	
656.66	8370.7	
656.85	8955.8	
657.03	8847.9	
657.22	7514.7	
657.41	7563.1	
657.59	9066.4	
657.78	8927.1	
657.97	7303.1	
658.16	7840.3	
658.34	9602.9	
658.53	10013	
658.72	8640.4	
658.9	9071.8	
659.09	9228.8	
659.28	9256.8	
659.46	7735.9	
659.65	7653.3	
659.84	8974.9	
660.02	9466.4	
660.21	7537.2	
660.4	7609.6	
660.58	9865.1	
660.77	9252.7	
660.96	8089.5	
661.14	7307.8	
661.33	10295	
661.52	10152	
661.7	7244.3	
661.89	10218	
662.08	8906.6	
662.26	8518.2	
662.45	7488.1	
662.64	7510.6	
662.82	9531.9	
663.01	8759.8	
663.2	7479.2	
663.38	8119.5	
663.57	9407	
663.75	9288.9	
663.94	7767.9	
664.13	8780.3	
664.31	8823.3	
664.5	9483.5	
664.69	8058.8	
664.87	8396.7	
665.06	8661.5	
665.25	9181.7	
665.43	8682.7	
665.62	8576.9	
665.8	9403.6	
665.99	8900.5	
666.18	7733.1	
666.36	7741.3	
666.55	9403.6	
666.74	9398.1	
666.92	7413	
667.11	8707.3	
667.29	8868.4	
667.48	9402.9	
667.67	8469.7	
667.85	7585.7	
668.04	8958.5	
668.22	8959.2	
668.41	7770	
668.6	7837.6	
668.78	8632.9	
668.97	8983.1	
669.15	8108.6	
669.34	7174	
669.53	8810.4	
669.71	9049.3	
669.9	7217.7	
670.08	7827.3	
670.27	8693.6	
670.46	9268.4	
670.64	8030.1	
670.83	8177.5	
671.01	8627.4	
671.2	9127.1	
671.38	7343.3	
671.57	7210.2	
671.76	9687.6	
671.94	10091	
672.13	7117.4	
672.31	7965.9	
672.5	9411.1	
672.69	8733.2	
672.87	7316	
673.06	7679.2	
673.24	9167.4	
673.43	8785.1	
673.61	7896.3	
673.8	7496.9	
673.98	9306	
674.17	9437.7	
674.36	7985	
674.54	7878.5	
674.73	9054.1	
674.91	9329.9	
675.1	7722.2	
675.28	7291.5	
675.47	8884.1	
675.65	9341.5	
675.84	7525.6	
676.03	7875.8	
676.21	8719.6	
676.4	8293.6	
676.58	8170.7	
676.77	7956.4	
676.95	10010	
677.14	8613.1	
677.32	7210.9	
677.51	7116.7	
677.69	9329.9	
677.88	8368.7	
678.06	7166.5	
678.25	7160.4	
678.44	8892.3	
678.62	8670.4	
678.81	6974.7	
678.99	7742.7	
679.18	9620.7	
679.36	9211.8	
679.55	7449.1	
679.73	8024.6	
679.92	9136	
680.1	8666.3	
680.29	8484.7	
680.47	7486	
680.66	8622.6	
680.84	9256.8	
681.03	6898.2	
681.21	7777.5	
681.4	8582.4	
681.58	8537.3	
681.77	7171.3	
681.95	7159	
682.14	9452.7	
682.32	9461.6	
682.51	8018.5	
682.69	6984.3	
682.88	8551	
683.06	8973.5	
683.25	7595.2	
683.43	8077.2	
683.62	8769.4	
683.8	9061.6	
683.99	8163.2	
684.17	7544	
684.36	9727.2	
684.54	8705.2	
684.73	6799.9	
684.91	6928.3	
685.1	8671.8	
685.28	8196	
685.46	7248.4	
685.65	7198.6	
685.83	8779	
686.02	8132.5	
686.2	6750.8	
686.39	6733	
686.57	8035.5	
686.76	9299.8	
686.94	6741.2	
687.13	6853.2	
687.31	8706.6	
687.5	8452	
687.68	6438.8	
687.86	7486.7	
688.05	9759.3	
688.23	7844.4	
688.42	7596.6	
688.6	6946.7	
688.79	8257.4	
688.97	8219.9	
689.16	7254.6	
689.34	6398.5	
689.52	8884.1	
689.71	9201.5	
689.89	7502.4	
690.08	6984.9	
690.26	8503.2	
690.45	8384.4	
690.63	7614.3	
690.81	7065.5	
691	8243.1	
691.18	8256	
691.37	7122.2	
691.55	8921	
691.74	8058.8	
691.92	9751.1	
692.1	7094.2	
692.29	6644.3	
692.47	8289.5	
692.66	7677.8	
692.84	6812.9	
693.02	7152.9	
693.21	7831.4	
693.39	8219.2	
693.58	7348.1	
693.76	6801.3	
693.94	9357.2	
694.13	9111.4	
694.31	6896.2	
694.5	7789.8	
694.68	8103.8	
694.86	8529.1	
695.05	7249.8	
695.23	7353.6	
695.42	8880.7	
695.6	10809	
695.78	7769.3	
695.97	6959.7	
696.15	8853.4	
696.34	8350.9	
696.52	6832	
696.7	7486	
696.89	8677.2	
697.07	8111.3	
697.25	7456.7	
697.44	8669.7	
697.62	8555	
697.81	8783.1	
697.99	7101	
698.17	7490.1	
698.36	7933.1	
698.54	8533.9	
698.72	7350.8	
698.91	6531.7	
699.09	8182.3	
699.28	8004.1	
699.46	7004.7	
699.64	6881.9	
699.83	7925	
700.01	8912.8	
700.19	7505.8	
700.38	6325.5	
700.56	8987.2	
700.74	8069.7	
700.93	6598.6	
701.11	7235.5	
701.29	8576.2	
701.48	9469.1	
701.66	6761.7	
701.84	6893.5	
702.03	8208.9	
702.21	8832.2	
702.39	6483.2	
702.58	7046.4	
702.76	8645.8	
702.94	8645.2	
703.13	6526.2	
703.31	8440.4	
703.49	7987.8	
703.68	8927.1	
703.86	6639.5	
704.04	7492.8	
704.23	8348.2	
704.41	8682.7	
704.59	6752.8	
704.78	7708.6	
704.96	9415.2	
705.14	8820.6	
705.33	6527.6	
705.51	7300.3	
705.69	8156.4	
705.87	8964.6	
706.06	7444.4	
706.24	6516.6	
706.42	8475.2	
706.61	8712.7	
706.79	7574.1	
706.97	6516	
707.16	8013.7	
707.34	8466.3	
707.52	7330.4	
707.7	6752.2	
707.89	8053.3	
708.07	7826	
708.25	7357.7	
708.44	7497.6	
708.62	8013	
708.8	8951.7	
708.98	7583.6	
709.17	6719.4	
709.35	8388.5	
709.53	8211.7	
709.72	6512.5	
709.9	6787.7	
710.08	8538	
710.26	8558.5	
710.45	7823.2	
710.63	6744.6	
710.81	8266.3	
710.99	8137.9	
711.18	7244.3	
711.36	6754.9	
711.54	8044.4	
711.72	8648.6	
711.91	6783.6	
712.09	6380.1	
712.27	8102.4	
712.45	8598.1	
712.64	6881.2	
712.82	6010.8	
713	7671	
713.18	7653.9	
713.37	6099.5	
713.55	7042.3	
713.73	8260.1	
713.91	7095.5	
714.1	6278.4	
714.28	5778	
714.46	7844.4	
714.64	7040.9	
714.83	5125.4	
715.01	5707	
715.19	6991.1	
715.37	6296.8	
715.55	5474.2	
715.74	5627.8	
715.92	7653.9	
716.1	5920	
716.28	6554.2	
716.47	5669.5	
716.65	6489.3	
716.83	6571.2	
717.01	5592.3	
717.19	5589.6	
717.38	8428.1	
717.56	6258.6	
717.74	5796.4	
717.92	5075.5	
718.1	7354.9	
718.29	6726.9	
718.47	4847.5	
718.65	5423.7	
718.83	7447.8	
719.01	7400	
719.2	4852.3	
719.38	5825.1	
719.56	7231.4	
719.74	8440.4	
719.92	5481	
720.11	6340.5	
720.29	7212.3	
720.47	6426.5	
720.65	4986.1	
720.83	5672.9	
721.02	6613.6	
721.2	6410.1	
721.38	5636	
721.56	4967.7	
721.74	5962.3	
721.92	6090	
722.11	6019	
722.29	5773.9	
722.47	7141.9	
722.65	6390.3	
722.83	5022.3	
723.01	5771.9	
723.2	6458.6	
723.38	6708.5	
723.56	4454.3	
723.74	5466.7	
723.92	6074.3	
724.1	7052.5	
724.29	4855.7	
724.47	5881.1	
724.65	6099.5	
724.83	6003.3	
725.01	4794.3	
725.19	5543.2	
725.37	6067.4	
725.56	6052.4	
725.74	4676.2	
725.92	4891.9	
726.1	5961.6	
726.28	6261.3	
726.46	5226.4	
726.64	4961.5	
726.83	6236.1	
727.01	6417	
727.19	4717.2	
727.37	5317.2	
727.55	6333	
727.73	6765.1	
727.91	4609.3	
728.09	4433.2	
728.28	6907.1	
728.46	7141.9	
728.64	5475.6	
728.82	5380	
729	7737.2	
729.18	7166.5	
729.36	4718.5	
729.54	6750.8	
729.72	7975.5	
729.91	6649.1	
730.09	6468.9	
730.27	5427.1	
730.45	6520.7	
730.63	7075.7	
730.81	5941.2	
730.99	5139	
731.17	7524.2	
731.35	6324.8	
731.53	5578.7	
731.71	5244.8	
731.9	7275.8	
732.08	7392.5	
732.26	5480.4	
732.44	5144.5	
732.62	7447.1	
732.8	6992.4	
732.98	5870.8	
733.16	4909.7	
733.34	6954.2	
733.52	5927.5	
733.7	5375.9	
733.88	5516.5	
734.07	6808.1	
734.25	6621.1	
734.43	4889.9	
734.61	6189.6	
734.79	7957.7	
734.97	6520	
735.15	5040.7	
735.33	5304.9	
735.51	6726.9	
735.69	6429.9	
735.87	6361	
736.05	5478.3	
736.23	6666.8	
736.41	6477	
736.59	5282.4	
736.77	5418.2	
736.95	7043.6	
737.13	6500.3	
737.32	5074.9	
737.5	5279	
737.68	7495.6	
737.86	6450.4	
738.04	4859.1	
738.22	6438.1	
738.4	6303.6	
738.58	6507.1	
738.76	5416.2	
738.94	4486.4	
739.12	6406.7	
739.3	6319.3	
739.48	5852.4	
739.66	5586.2	
739.84	6593.1	
740.02	6551.5	
740.2	4622.3	
740.38	4850.3	
740.56	6913.3	
740.74	5971.2	
740.92	5487.9	
741.1	5346.6	
741.28	6374	
741.46	6255.9	
741.64	5011.4	
741.82	5418.9	
742	6412.2	
742.18	6397.9	
742.36	5153.4	
742.54	4818.9	
742.72	6882.5	
742.9	5788.2	
743.08	5517.2	
743.26	4407.9	
743.44	6968.6	
743.62	6894.1	
743.8	5596.4	
743.98	4812	
744.16	6679.8	
744.34	6393.1	
744.52	5464.7	
744.7	5468.8	
744.88	6754.9	
745.06	6364.4	
745.24	5468.8	
745.42	5567.1	
745.6	6776	
745.78	6556.2	
745.96	4461.2	
746.14	4793.6	
746.32	7419.1	
746.5	6731	
746.68	5255.8	
746.86	4712.4	
747.03	7025.9	
747.21	5646.9	
747.39	5199.8	
747.57	4700.1	
747.75	6397.9	
747.93	6685.3	
748.11	4728.1	
748.29	4661.9	
748.47	7789.8	
748.65	6062	
748.83	5326.8	
749.01	4994.3	
749.19	6505.7	
749.37	5767.1	
749.55	4996.4	
749.73	5003.2	
749.91	6283.9	
750.09	6017.6	
750.26	4988.2	
750.44	4518.5	
750.62	6270.9	
750.8	6191.7	
750.98	4455.7	
751.16	4701.5	
751.34	6306.4	
751.52	5704.3	
751.7	5395.7	
751.88	4412	
752.06	6768.5	
752.24	6484.6	
752.42	4308.9	
752.59	4657.1	
752.77	6265.4	
752.95	7265.5	
753.13	5293.3	
753.31	4730.1	
753.49	5865.4	
753.67	6290.7	
753.85	5023	
754.03	4653.7	
754.21	6501.6	
754.38	6798.6	
754.56	4698	
754.74	3876.1	
754.92	5821	
755.1	6321.4	
755.28	3900	
755.46	3857	
755.64	6959	
755.82	6976.1	
755.99	4020.2	
756.17	4048.8	
756.35	4702.1	
756.53	6072.9	
756.71	3059.7	
756.89	3880.2	
757.07	5717.9	
757.25	4943.8	
757.42	4325.3	
757.6	5106.3	
757.78	5872.9	
757.96	4939.7	
758.14	4145.1	
758.32	3736.9	
758.5	4582	
758.67	5334.3	
758.85	3900.7	
759.03	4050.2	
759.21	5470.1	
759.39	4942.4	
759.57	3627	
759.75	4531.5	
759.92	6012.2	
760.1	5446.9	
760.28	4918.5	
760.46	5145.9	
760.64	5177.9	
760.82	4994.3	
760.99	4603.8	
761.17	4061.8	
761.35	6002.6	
761.53	4994.3	
761.71	4221.5	
761.89	4831.2	
762.06	5834	
762.24	5388.9	
762.42	4335.5	
762.6	4146.5	
762.78	5529.5	
762.96	6037.4	
763.13	4650.9	
763.31	4403.1	
763.49	6176.7	
763.67	5442.1	
763.85	5049.6	
764.02	5575.3	
764.2	6378.7	
764.38	5629.2	
764.56	4217.5	
764.74	4983.4	
764.91	6444.3	
765.09	5457.8	
765.27	3963.5	
765.45	3821.5	
765.63	6531.7	
765.8	6399.2	
765.98	3595.6	
766.16	3872.7	
766.34	5074.2	
766.52	4944.5	
766.69	4659.8	
766.87	3721.8	
767.05	5474.9	
767.23	6107	
767.41	3921.9	
767.58	4136.9	
767.76	5937.7	
767.94	5997.8	
768.12	4059.1	
768.29	4595.6	
768.47	5540.4	
768.65	6141.2	
768.83	3766.2	
769	4697.4	
769.18	5131.5	
769.36	5679.7	
769.54	4650.3	
769.72	3713.7	
769.89	5997.1	
770.07	6088.6	
770.25	4052.2	
770.43	5143.8	
770.6	6580.8	
770.78	7012.2	
770.96	4141	
771.14	4692.6	
771.31	5859.9	
771.49	5337	
771.67	3442	
771.85	3607.8	
772.02	4726	
772.2	5318.6	
772.38	4233.8	
772.55	3821.5	
772.73	5535.7	
772.91	5348.6	
773.09	4126.7	
773.26	4306.9	
773.44	5584.8	
773.62	5223	
773.8	3659.7	
773.97	3463.8	
774.15	5606	
774.33	5220.3	
774.5	3589.4	
774.68	3924.6	
774.86	5659.2	
775.04	5256.5	
775.21	3714.3	
775.39	3633.1	
775.57	5397.1	
775.74	5765	
775.92	3544.4	
776.1	3472	
776.27	5424.4	
776.45	6503	
776.63	3654.9	
776.81	3309.5	
776.98	5131.5	
777.16	6048.3	
777.34	3807.9	
777.51	4086.4	
777.69	5122.7	
777.87	4876.2	
778.04	3818.8	
778.22	4323.9	
778.4	4897.4	
778.57	5494	
778.75	3217.4	
778.93	3409.9	
779.1	4754.7	
779.28	4601.1	
779.46	3200.3	
779.64	3638.6	
779.81	5652.4	
779.99	6400.6	
780.17	4321.2	
780.34	4395.6	
780.52	5118.6	
780.69	5332.2	
780.87	3880.2	
781.05	3536.2	
781.22	5204.6	
781.4	5217.5	
781.58	3600.3	
781.75	2876.7	
781.93	5269.4	
782.11	4706.9	
782.28	4379.2	
782.46	3577.8	
782.64	4631.8	
782.81	5364.3	
782.99	3719.1	
783.17	3633.8	
783.34	5317.2	
783.52	4541	
783.69	3818.8	
783.87	4548.5	
784.05	4688.5	
784.22	4702.1	
784.4	4496	
784.58	3969	
784.75	5536.3	
784.93	4735.6	
785.1	3632.4	
785.28	4169	
785.46	5302.2	
785.63	4693.3	
785.81	3671.3	
785.99	3456.3	
786.16	4856.4	
786.34	5132.9	
786.51	3485	
786.69	3844	
786.87	4439.3	
787.04	4925.4	
787.22	3402.4	
787.39	4180.6	
787.57	4699.4	
787.75	5582.8	
787.92	4373.1	
788.1	4207.2	
788.27	4702.1	
788.45	4473.4	
788.63	4067.9	
788.8	2979.8	
788.98	5025.7	
789.15	4401.1	
789.33	3091.1	
789.5	3596.2	
789.68	5436.7	
789.86	5545.9	
790.03	3979.9	
790.21	3490.4	
790.38	5473.5	
790.56	4881.7	
790.73	3386	
790.91	3452.2	
791.09	4645.5	
791.26	5372.5	
791.44	3617.4	
791.61	3091.8	
791.79	4654.4	
791.96	4723.3	
792.14	3161.4	
792.32	2821.4	
792.49	4697.4	
792.67	4820.9	
792.84	3332.7	
793.02	3082.2	
793.19	5134.9	
793.37	5677	
793.54	2856.9	
793.72	3160.7	
793.89	5709.7	
794.07	4643.4	
794.25	3571.7	
794.42	2955.2	
794.6	5599.8	
794.77	5289.2	
794.95	3955.3	
795.12	3382.6	
795.3	4721.9	
795.47	5175.2	
795.65	3784	
795.82	3631.7	
796	4491.2	
796.17	6163.7	
796.35	3521.1	
796.52	4149.9	
796.7	5143.8	
796.87	5261.9	
797.05	3503.4	
797.22	4220.2	
797.4	5169.1	
797.57	6025.8	
797.75	3645.4	
797.92	3429	
798.1	5468.8	
798.27	4604.5	
798.45	2937.5	
798.62	3219.4	
798.8	4869.4	
798.97	5320.6	
799.15	3797.6	
799.32	3657.7	
799.5	4287.8	
799.67	4966.3	
799.85	4004.5	
800.02	2902.7	
800.2	4587.4	
800.37	4897.4	
800.55	4083	
800.72	3399.6	
800.9	5309.7	
801.07	5703.6	
801.25	4560.8	
801.42	3775.8	
801.6	5281	
801.77	5053	
801.95	3508.9	
802.12	3333.4	
802.29	5140.4	
802.47	5061.9	
802.64	3747.8	
802.82	2876	
802.99	4614.1	
803.17	5436.7	
803.34	3669.3	
803.52	3272	
803.69	5999.9	
803.87	4422.2	
804.04	3659	
804.21	3732.8	
804.39	5591	
804.56	4822.3	
804.74	3177.8	
804.91	3741.6	
805.09	4672.1	
805.26	4737.6	
805.44	3194.1	
805.61	3428.3	
805.78	5265.3	
805.96	5274.2	
806.13	3788.1	
806.31	4000.4	
806.48	4277.5	
806.66	4732.9	
806.83	3733.4	
807	3657.7	
807.18	4656.4	
807.35	4991.6	
807.53	3652.9	
807.7	2959.3	
807.87	5661.3	
808.05	4677.6	
808.22	3990.8	
808.4	2955.9	
808.57	4635.9	
808.74	4346.5	
808.92	3372.3	
809.09	4228.4	
809.27	4646.2	
809.44	5076.9	
809.61	2953.9	
809.79	3291.1	
809.96	5747.3	
810.14	5369.1	
810.31	2914.9	
810.48	3521.1	
810.66	4782	
810.83	5304.2	
811.01	3364.8	
811.18	3678.8	
811.35	5352.7	
811.53	4151.2	
811.7	3997.6	
811.87	3760.1	
812.05	4723.3	
812.22	4672.8	
812.39	3260.4	
812.57	3093.8	
812.74	4716.5	
812.92	6090.7	
813.09	3592.8	
813.26	3778.5	
813.44	5887.2	
813.61	4614.1	
813.78	2981.8	
813.96	3863.2	
814.13	4717.8	
814.3	4431.1	
814.48	4218.1	
814.65	3504.8	
814.82	5872.2	
815	4503.5	
815.17	3606.5	
815.34	4392.9	
815.52	4617.5	
815.69	4639.3	
815.87	3529.3	
816.04	3525.9	
816.21	4683	
816.38	4163.5	
816.56	3498.6	
816.73	3218.7	
816.9	5859.9	
817.08	5309.7	
817.25	3300	
817.42	4051.6	
817.6	4308.9	
817.77	4605.9	
817.94	3656.3	
818.12	3246.7	
818.29	4478.9	
818.46	6682.5	
818.64	3382.6	
818.81	3167.5	
818.98	4412	
819.16	6244.3	
819.33	3840.6	
819.5	3580.5	
819.67	4982	
819.85	5547.9	
820.02	3536.8	
820.19	3772.4	
820.37	4855.7	
820.54	4590.2	
820.71	3698.6	
820.88	4491.2	
821.06	4911	
821.23	4524	
821.4	3640.6	
821.58	3643.3	
821.75	5287.2	
821.92	4802.5	
822.09	2956.6	
822.27	3259	
822.44	4663.2	
822.61	4577.2	
822.79	3018	
822.96	5582.8	
823.13	5051.7	
823.3	4385.4	
823.48	3427.6	
823.65	3079.5	
823.82	5287.9	
823.99	4284.4	
824.17	4296.6	
824.34	3160.7	
824.51	5996.5	
824.68	4739	
824.86	3280.2	
825.03	3633.8	
825.2	4720.6	
825.37	5593.7	
825.55	3292.5	
825.72	3543.7	
825.89	6066.8	
826.06	5651.7	
826.24	3551.9	
826.41	3493.2	
826.58	5623.7	
826.75	4982.7	
826.92	2816.6	
827.1	3213.3	
827.27	7569.3	
827.44	6014.2	
827.61	3374.4	
827.79	4027.7	
827.96	4471.4	
828.13	4749.9	
828.3	3517.7	
828.47	2940.9	
828.65	4959.5	
828.82	4851.6	
828.99	4420.9	
829.16	3953.9	
829.34	5295.4	
829.51	5042.1	
829.68	3600.3	
829.85	3710.9	
830.02	5504.3	
830.2	5253.7	
830.37	2819.4	
830.54	4265.9	
830.71	5925.5	
830.88	4689.8	
831.05	2855.6	
831.23	3296.5	
831.4	5702.9	
831.57	6311.8	
831.74	3364.1	
831.91	2973.7	
832.09	5023	
832.26	5239.4	
832.43	3398.3	
832.6	3794.2	
832.77	4936.3	
832.94	5586.9	
833.12	2798.9	
833.29	3416.7	
833.46	5029.1	
833.63	6532.3	
833.8	3774.4	
833.97	3463.8	
834.15	5262.6	
834.32	5081.7	
834.49	3569.6	
834.66	3680.2	
834.83	5425.1	
835	4494.6	
835.17	3311.6	
835.35	3359.4	
835.52	5186.1	
835.69	5072.1	
835.86	3505.4	
836.03	2907.4	
836.2	5205.9	
836.37	4900.8	
836.55	3400.3	
836.72	3271.3	
836.89	4840	
837.06	5263.3	
837.23	3494.5	
837.4	3819.5	
837.57	5935	
837.75	6516.6	
837.92	3117	
838.09	3349.8	
838.26	4861.9	
838.43	5440.1	
838.6	3634.5	
838.77	3230.3	
838.94	6136.4	
839.11	6040.8	
839.29	3455.6	
839.46	2712.2	
839.63	5183.4	
839.8	4960.2	
839.97	3360	
840.14	3345.7	
840.31	5057.1	
840.48	5201.2	
840.65	2784.6	
840.82	3304.1	
841	5190.9	
841.17	5121.3	
841.34	3048.1	
841.51	3177.8	
841.68	5167.7	
841.85	4962.2	
842.02	3180.5	
842.19	2704.7	
842.36	5017.5	
842.53	5056.4	
842.7	3091.1	
842.87	3685.7	
843.05	6481.8	
843.22	4943.8	
843.39	2953.2	
843.56	3208.5	
843.73	4801.1	
843.9	5263.3	
844.07	4913.1	
844.24	4100	
844.41	7350.2	
844.58	4568.3	
844.75	3002.3	
844.92	3306.1	
845.09	5214.1	
845.26	5195	
845.43	3095.2	
845.6	3263.8	
845.77	5234.6	
845.94	4963.6	
846.12	3402.4	
846.29	3550.5	
846.46	5439.4	
846.63	5190.2	
846.8	3130	
846.97	3626.3	
847.14	5662	
847.31	5212.1	
847.48	3421.5	
847.65	3774.4	
847.82	5388.9	
847.99	5431.2	
848.16	4050.9	
848.33	3732.1	
848.5	4871.4	
848.67	5616.9	
848.84	3014.6	
849.01	3231	
849.18	4720.6	
849.35	4465.9	
849.52	3760.8	
849.69	3024.8	
849.86	5416.2	
850.03	5512.4	
850.2	3052.8	
850.37	3743	
850.54	5526.8	
850.71	4964.3	
850.88	3703.4	
851.05	3054.9	
851.22	5169.1	
851.39	5603.2	
851.56	2898.6	
851.73	3560.1	
851.9	4645.5	
852.07	5378	
852.24	3389.4	
852.41	3074.7	
852.58	5130.8	
852.75	4664.6	
852.92	3425.6	
853.09	2960	
853.26	4871.4	
853.43	5564.3	
853.6	3059.7	
853.77	2637.1	
853.94	5676.3	
854.11	5155.4	
854.28	4499.4	
854.44	3338.2	
854.61	6006.7	
854.78	5498.1	
854.95	3009.8	
855.12	3809.9	
855.29	4259.8	
855.46	5703.6	
855.63	3105.4	
855.8	4138.3	
855.97	4805.2	
856.14	5500.2	
856.31	4260.5	
856.48	3327.9	
856.65	4827.7	
856.82	4524	
856.99	2981.8	
857.16	3312.2	
857.33	6243.6	
857.49	4952.7	
857.66	3325.2	
857.83	3514.3	
858	4929.5	
858.17	5081.7	
858.34	2935.4	
858.51	3121.1	
858.68	5776.6	
858.85	5797.1	
859.02	3538.2	
859.19	3746.4	
859.36	4644.1	
859.52	4641.4	
859.69	3091.1	
859.86	3605.8	
860.03	4626.4	
860.2	5747.3	
860.37	2813.2	
860.54	3128.6	
860.71	5382.1	
860.88	5758.9	
861.05	3438.5	
861.21	3829	
861.38	5733.6	
861.55	4530.8	
861.72	2810.5	
861.89	3418.7	
862.06	5524.1	
862.23	5836	
862.4	2958.6	
862.56	3221.5	
862.73	5306.3	
862.9	5025	
863.07	3561.4	
863.24	2834.4	
863.41	4545.1	
863.58	4665.3	
863.75	3147	
863.91	3517.7	
864.08	5674.2	
864.25	5307.7	
864.42	3828.3	
864.59	4213.4	
864.76	6084.5	
864.93	4642.7	
865.09	2979.8	
865.26	3241.3	
865.43	5620.3	
865.6	5963	
865.77	2712.9	
865.94	3022.1	
866.1	5616.2	
866.27	5424.4	
866.44	4542.4	
866.61	2859	
866.78	4903.5	
866.95	5266	
867.11	3013.2	
867.28	2752.5	
867.45	5515.2	
867.62	4661.2	
867.79	3485.6	
867.96	3040.6	
868.12	4565.6	
868.29	5403.9	
868.46	2683.5	
868.63	4077.5	
868.8	5518.6	
868.97	5408	
869.13	3198.2	
869.3	3224.9	
869.47	5285.1	
869.64	5442.8	
869.81	3114.3	
869.97	3092.4	
870.14	5199.8	
870.31	5750	
870.48	3024.2	
870.65	3831.1	
870.81	4966.3	
870.98	4933.6	
871.15	3444.7	
871.32	3232.4	
871.48	5286.5	
871.65	5769.1	
871.82	3042.6	
871.99	3360	
872.16	6191.7	
872.32	5587.5	
872.49	3140.2	
872.66	3102	
872.83	5410.7	
872.99	4786.8	
873.16	3497.9	
873.33	3060.3	
873.5	5068.7	
873.67	5104.2	
873.83	3192.8	
874	4090.5	
874.17	5197.7	
874.34	6070.9	
874.5	3885	
874.67	3801	
874.84	5683.1	
875.01	4525.3	
875.17	4270	
875.34	3076.7	
875.51	5145.9	
875.68	6115.2	
875.84	3612.6	
876.01	4431.1	
876.18	5356.1	
876.34	5294	
876.51	3117	
876.68	3035.1	
876.85	4966.3	
877.01	5644.2	
877.18	4332.8	
877.35	3022.1	
877.52	5079.6	
877.68	4534.2	
877.85	3003	
878.02	2991.4	
878.18	4944.5	
878.35	4782	
878.52	2445.3	
878.69	3415.3	
878.85	5472.2	
879.02	5396.4	
879.19	4234.5	
879.35	3265.8	
879.52	5334.3	
879.69	5468.8	
879.86	2656.9	
880.02	3429	
880.19	5067.4	
880.36	6060.6	
880.52	3530.7	
880.69	3588.7	
880.86	5435.3	
881.02	5403.9	
881.19	3416.7	
881.36	3321.1	
881.52	5323.4	
881.69	4748.6	
881.86	3235.8	
882.02	3246	
882.19	5617.6	
882.36	6446.3	
882.52	3155.9	
882.69	4274.8	
882.86	5159.5	
883.02	5126.1	
883.19	3662.5	
883.36	3474.7	
883.52	5412.8	
883.69	6105	
883.86	3124.5	
884.02	2854.9	
884.19	5373.2	
884.36	5082.4	
884.52	3450.8	
884.69	3274	
884.86	4798.4	
885.02	5869.5	
885.19	3409.2	
885.36	3500.7	
885.52	5016.8	
885.69	5199.8	
885.86	4384.7	
886.02	3855	
886.19	5378	
886.35	4883	
886.52	3337.5	
886.69	4240	
886.85	4650.9	
887.02	5685.2	
887.19	5685.2	
887.35	5685.2	
887.52	5685.2	
887.68	5685.2	
887.85	5685.2	
888.02	5685.2	
888.18	5685.2	
888.35	5685.2	
888.51	5685.2	
888.68	5685.2	
888.85	5685.2	
889.01	5685.2	
889.18	5685.2	
889.35	5685.2	
889.51	5685.2	
889.68	5685.2	
889.84	5685.2	
890.01	5685.2	
890.17	5685.2	
890.34	5685.2	
890.51	5685.2	
890.67	5685.2	
890.84	5685.2	
891	5685.2	
891.17	5685.2	
891.34	5685.2	
891.5	5685.2	
891.67	5685.2	
891.83	5685.2	
892	5685.2	
892.16	5685.2	
892.33	5685.2	
892.5	5685.2	
892.66	5685.2	
892.83	5685.2	
892.99	5685.2	
893.16	5685.2	
893.32	5685.2	
893.49	5685.2	
893.65	5685.2	
893.82	5685.2	
893.99	5685.2	
894.15	5685.2	
894.32	5685.2	
894.48	5685.2	
894.65	5685.2	
894.81	5685.2	
894.98	5685.2	
895.14	5685.2	
895.31	5685.2	
895.47	5685.2	
895.64	5685.2	
895.81	5685.2	
895.97	5685.2	
896.14	5685.2	
896.3	5685.2	
896.47	5685.2	
896.63	5685.2	
896.8	5685.2	
896.96	5685.2	
897.13	5685.2	
897.29	5685.2	
897.46	5685.2	
897.62	5685.2	
897.79	5685.2	
897.95	5685.2	
898.12	5685.2	
898.28	5685.2	
898.45	5685.2	
898.61	5685.2	
898.78	5685.2	
898.94	5685.2	
899.11	5685.2	
899.27	5685.2	
899.44	5685.2	
899.6	5685.2	
899.77	5685.2	
899.93	5685.2	
900.1	5685.2	
900.26	5685.2	
900.43	5685.2	
900.59	5685.2	
900.76	5685.2	
900.92	5685.2	
901.09	5685.2	
901.25	5685.2	
901.42	5685.2	
901.58	5685.2	
901.75	5685.2	
901.91	5685.2	
902.07	5685.2	
902.24	5685.2	
902.4	5685.2	
902.57	5685.2	
902.73	5685.2	
902.9	5685.2	
903.06	5685.2	
903.23	5685.2	
903.39	5685.2	
903.56	5685.2	
903.72	5685.2	
903.88	5685.2	
904.05	5685.2	
904.21	5685.2	
904.38	5685.2	
904.54	5685.2	
904.71	5685.2	
904.87	5685.2	
905.03	5685.2	
905.2	5685.2	
905.36	5685.2	
905.53	5685.2	
905.69	5685.2	
905.86	5685.2	
906.02	5685.2	
906.18	5685.2	
906.35	5685.2	
906.51	5685.2	
906.68	5685.2	
906.84	5685.2	
907.01	5685.2	
907.17	5685.2	
907.33	5685.2	
907.5	5685.2	
907.66	5685.2	
907.83	5685.2	
907.99	5685.2	
908.15	5685.2	
908.32	5685.2	
908.48	5685.2	
908.65	5685.2	
908.81	5685.2	
908.97	5685.2	
909.14	5685.2	
909.3	5685.2	
909.47	5685.2	
909.63	5685.2	
909.79	5685.2	
909.96	5685.2	
910.12	5685.2	
910.28	5685.2	
910.45	5685.2	
910.61	5685.2	
910.78	5685.2	
910.94	5685.2	
911.1	5685.2	
911.27	5685.2	
911.43	5685.2	
911.59	5685.2	
911.76	5685.2	
911.92	5685.2	
912.08	5685.2	
912.25	5685.2	
912.41	5685.2	
912.57	5685.2	
912.74	5685.2	
912.9	5685.2	
913.07	5685.2	
913.23	5685.2	
913.39	5685.2	
913.56	5685.2	
913.72	5685.2	
913.88	5685.2	
914.05	5685.2	
914.21	5685.2	
914.37	5685.2	
914.54	5685.2	
914.7	5685.2	
914.86	5685.2	
915.03	5685.2	
915.19	5685.2	
