Wavelength	Intensities	
nm	a.u.	
179.22	1711.6	
179.44	1702.2	
179.65	1721	
179.86	1683.4	
180.08	1692.3	
180.29	3848.8	
180.51	3051.5	
180.72	4955.4	
180.94	5650.3	
181.15	2760.7	
181.37	2693.8	
181.58	4810	
181.79	5028.4	
182.01	2862.4	
182.22	2994.1	
182.44	5078.3	
182.65	4363.5	
182.87	3681.6	
183.08	3259.7	
183.29	5275.6	
183.51	4437.3	
183.72	3040.6	
183.94	4187.4	
184.15	4717.8	
184.37	4695.3	
184.58	2705.4	
184.79	3485.6	
185.01	4450.9	
185.22	5127.4	
185.44	3646.1	
185.65	3203	
185.86	4734.9	
186.08	4425.7	
186.29	2664.4	
186.51	2824.1	
186.72	4450.2	
186.94	5178.6	
187.15	3239.9	
187.36	3248.8	
187.58	6436.8	
187.79	4841.4	
188.01	3363.4	
188.22	5107	
188.43	5651.7	
188.65	5015.5	
188.86	2816.6	
189.08	3319.1	
189.29	4583.4	
189.5	4558.8	
189.72	3084.2	
189.93	3099.9	
190.15	5128.1	
190.36	6010.1	
190.57	3317.7	
190.79	3234.4	
191	5173.9	
191.22	5145.9	
191.43	3400.3	
191.64	2796.2	
191.86	5371.1	
192.07	5161.6	
192.29	2947.7	
192.5	2994.1	
192.71	5175.9	
192.93	4584	
193.14	2996.9	
193.35	3140.9	
193.57	4588.8	
193.78	5142.4	
194	2549	
194.21	2985.9	
194.42	4365.6	
194.64	4752	
194.85	3234.4	
195.07	3784.6	
195.28	4743.1	
195.49	4244.8	
195.71	3898.6	
195.92	2822.8	
196.13	4901.5	
196.35	4943.1	
196.56	4160.8	
196.78	3265.8	
196.99	5967.8	
197.2	5565.7	
197.42	3686.3	
197.63	3301.3	
197.84	4293.9	
198.06	4949.9	
198.27	3086.3	
198.48	3906.8	
198.7	4548.5	
198.91	4758.8	
199.13	3361.4	
199.34	3302.7	
199.55	5108.3	
199.77	4141	
199.98	2965.5	
200.19	3349.1	
200.41	4733.5	
200.62	4459.8	
200.83	3409.2	
201.05	3682.2	
201.26	4719.9	
201.47	4513.7	
201.69	2945.7	
201.9	2942.2	
202.11	4768.4	
202.33	5436	
202.54	3150.5	
202.76	3437.9	
202.97	4746.5	
203.18	4852.3	
203.4	3373.7	
203.61	3381.9	
203.82	4828.4	
204.04	4494.6	
204.25	3326.6	
204.46	3315.7	
204.68	4729.4	
204.89	4863.9	
205.1	3223.5	
205.32	2839.8	
205.53	4986.8	
205.74	5167.7	
205.96	2485.6	
206.17	3318.4	
206.38	4976.6	
206.6	5103.5	
206.81	3756	
207.02	3102	
207.24	4930.1	
207.45	5226.4	
207.66	3156.6	
207.88	2768.2	
208.09	4912.4	
208.3	4774.5	
208.52	2899.9	
208.73	3212.6	
208.94	4758.8	
209.15	5254.4	
209.37	3173	
209.58	3533.4	
209.79	5138.4	
210.01	4594.3	
210.22	2583.2	
210.43	2750.4	
210.65	4722.6	
210.86	5055.1	
211.07	3184.6	
211.29	2904.7	
211.5	4988.2	
211.71	4708.3	
211.93	2971.6	
212.14	2914.3	
212.35	4715.1	
212.56	4780.6	
212.78	3313.6	
212.99	2776.4	
213.2	5434.6	
213.42	4628.4	
213.63	3009.8	
213.84	3162.7	
214.06	4306.9	
214.27	4304.1	
214.48	3108.1	
214.69	3356.6	
214.91	5281	
215.12	5224.4	
215.33	3375.1	
215.55	3646.7	
215.76	5624.4	
215.97	4939	
216.18	3200.3	
216.4	3208.5	
216.61	4526	
216.82	5062.6	
217.04	2956.6	
217.25	3071.3	
217.46	5187.5	
217.67	5060.5	
217.89	2674.6	
218.1	2804.4	
218.31	4852.3	
218.53	4947.9	
218.74	3137.5	
218.95	3063.8	
219.16	4708.3	
219.38	5422.3	
219.59	2980.5	
219.8	3494.5	
220.01	5885.2	
220.23	4787.5	
220.44	3806.5	
220.65	2892.4	
220.87	4830.5	
221.08	5236.7	
221.29	2763.4	
221.5	3598.3	
221.72	6209.4	
221.93	4522.6	
222.14	3317.7	
222.35	3867.2	
222.57	4752.7	
222.78	5097.4	
222.99	3211.9	
223.2	3365.5	
223.42	4963.6	
223.63	5063.3	
223.84	2547.7	
224.05	2529.9	
224.27	5771.2	
224.48	5419.6	
224.69	3850.9	
224.9	3295.2	
225.12	4940.4	
225.33	4707.6	
225.54	2720.4	
225.75	2984.6	
225.97	4406.5	
226.18	4696.7	
226.39	3134.8	
226.6	3003	
226.82	4543.1	
227.03	4505.5	
227.24	3283.6	
227.45	2790	
227.67	5048.9	
227.88	5390.9	
228.09	3672.7	
228.3	3597.6	
228.52	5023	
228.73	4696	
228.94	3133.4	
229.15	2829.6	
229.36	4737.6	
229.58	4722.6	
229.79	3132.7	
230	3579.8	
230.21	5595.1	
230.43	4799.8	
230.64	3249.4	
230.85	3359.4	
231.06	5027.1	
231.28	5040.1	
231.49	2793.4	
231.7	3284.9	
231.91	5013.4	
232.12	4743.8	
232.34	2925.2	
232.55	3221.5	
232.76	5208.7	
232.97	4827.7	
233.18	2961.4	
233.4	3254.9	
233.61	4862.6	
233.82	4557.4	
234.03	3135.4	
234.25	3071.3	
234.46	6294.8	
234.67	4782.7	
234.88	3407.1	
235.09	2979.8	
235.31	4956.1	
235.52	4639.3	
235.73	3290.4	
235.94	2833.7	
236.15	4557.4	
236.37	5567.1	
236.58	2953.9	
236.79	3153.9	
237	4981.3	
237.21	4390.2	
237.43	3408.5	
237.64	2686.9	
237.85	7881.9	
238.06	4433.2	
238.27	3408.5	
238.48	2864.4	
238.7	4988.9	
238.91	4675.5	
239.12	3104.7	
239.33	3284.9	
239.54	4471.4	
239.76	4652.3	
239.97	3170.9	
240.18	3235.1	
240.39	5560.2	
240.6	4866	
240.82	3291.8	
241.03	2794.8	
241.24	4687.8	
241.45	5353.4	
241.66	2934.7	
241.87	3429	
242.09	5319.9	
242.3	5504.3	
242.51	3435.8	
242.72	3156.6	
242.93	5020.3	
243.14	4674.8	
243.36	3626.3	
243.57	3889.8	
243.78	5404.6	
243.99	5057.8	
244.2	3175.7	
244.41	2858.3	
244.63	4407.2	
244.84	5003.9	
245.05	3364.1	
245.26	3144.3	
245.47	4952	
245.68	5100.8	
245.9	4077.5	
246.11	3334.8	
246.32	4624.3	
246.53	4902.8	
246.74	4959.5	
246.95	2760	
247.16	4423.6	
247.38	4749.2	
247.59	2753.8	
247.8	3181.9	
248.01	4429.8	
248.22	4752.7	
248.43	2932	
248.64	3125.2	
248.86	4308.9	
249.07	4595	
249.28	2836.4	
249.49	3293.8	
249.7	5171.8	
249.91	5235.3	
250.12	2742.9	
250.34	2761.3	
250.55	4877.6	
250.76	4784.7	
250.97	3309.5	
251.18	3315.7	
251.39	5218.2	
251.6	4876.2	
251.81	3315	
252.03	3318.4	
252.24	4568.3	
252.45	5095.3	
252.66	2830.3	
252.87	3440.6	
253.08	4754	
253.29	5921.4	
253.5	2897.9	
253.72	3796.3	
253.93	4668	
254.14	5573.9	
254.35	3044.6	
254.56	3102	
254.77	4924	
254.98	4465.3	
255.19	3031	
255.41	3783.3	
255.62	4906.9	
255.83	5249.6	
256.04	3391.4	
256.25	3263.1	
256.46	5655.1	
256.67	4539.7	
256.88	3321.8	
257.09	3577.1	
257.31	4459.8	
257.52	4483	
257.73	4009.2	
257.94	3031	
258.15	4687.1	
258.36	4714.4	
258.57	3725.9	
258.78	2497.8	
258.99	5139.7	
259.2	4605.2	
259.41	3091.1	
259.63	3179.1	
259.84	5332.9	
260.05	5695.4	
260.26	3906.8	
260.47	3011.2	
260.68	5240.1	
260.89	4659.1	
261.1	3631.7	
261.31	2902.7	
261.52	5254.4	
261.73	5496.1	
261.95	3821.5	
262.16	3388.7	
262.37	5233.2	
262.58	5374.6	
262.79	3837.2	
263	3050.1	
263.21	4811.4	
263.42	4616.8	
263.63	3330.7	
263.84	3118.4	
264.05	5134.3	
264.26	5381.4	
264.47	3727.3	
264.69	3323.2	
264.9	5289.9	
265.11	4891.9	
265.32	2956.6	
265.53	3013.2	
265.74	4831.8	
265.95	4280.9	
266.16	3227.6	
266.37	3510.2	
266.58	4868.7	
266.79	4547.9	
267	3048.1	
267.21	2850.8	
267.42	4413.4	
267.63	4775.9	
267.84	3173.7	
268.06	2777	
268.27	5152	
268.48	5236.7	
268.69	3131.3	
268.9	3586	
269.11	5262.6	
269.32	4252.9	
269.53	3189.4	
269.74	2960	
269.95	4934.9	
270.16	4279.6	
270.37	3205.1	
270.58	3657.7	
270.79	4672.1	
271	5122.7	
271.21	3372.3	
271.42	3201.7	
271.63	4892.6	
271.84	4404.5	
272.05	2681.5	
272.26	2891	
272.47	4744.5	
272.68	4915.1	
272.89	3048.1	
273.11	3461.7	
273.32	4539	
273.53	5403.9	
273.74	3384.6	
273.95	3325.2	
274.16	5095.3	
274.37	4745.8	
274.58	3427.6	
274.79	2899.2	
275	4900.1	
275.21	5169.8	
275.42	4081.6	
275.63	3483.6	
275.84	4978.6	
276.05	6025.1	
276.26	3294.5	
276.47	3129.3	
276.68	4722.6	
276.89	5510.4	
277.1	3551.9	
277.31	2809.1	
277.52	4946.5	
277.73	5156.8	
277.94	2824.8	
278.15	3073.3	
278.36	4878.3	
278.57	4493.2	
278.78	3061	
278.99	3458.3	
279.2	4513	
279.41	4446.8	
279.62	3892.5	
279.83	2886.3	
280.04	5685.2	
280.25	4448.2	
280.46	3891.8	
280.67	3203	
280.88	4491.2	
281.09	5219.6	
281.3	3331.4	
281.51	4080.2	
281.72	4543.1	
281.93	5113.8	
282.14	3011.2	
282.35	3210.5	
282.56	5167	
282.77	5096	
282.98	3082.9	
283.19	3670	
283.4	6067.4	
283.61	4698	
283.82	2882.9	
284.03	3833.1	
284.24	4915.1	
284.45	5256.5	
284.66	3892.5	
284.87	3745.7	
285.08	5221	
285.29	5254.4	
285.5	2809.8	
285.71	3142.9	
285.92	5177.3	
286.12	5662.6	
286.33	3802.4	
286.54	3162.7	
286.75	5117.9	
286.96	4633.2	
287.17	2941.6	
287.38	3762.1	
287.59	4537.6	
287.8	4517.1	
288.01	3128.6	
288.22	3474	
288.43	5112.4	
288.64	4332.1	
288.85	3657.7	
289.06	3515	
289.27	5056.4	
289.48	5414.1	
289.69	3867.9	
289.9	3570.3	
290.11	5283.8	
290.32	4580.6	
290.53	3676.1	
290.74	3384.6	
290.94	5131.5	
291.15	5078.3	
291.36	2998.9	
291.57	3454.2	
291.78	4576.5	
291.99	4308.2	
292.2	2943.6	
292.41	3403	
292.62	5196.4	
292.83	5011.4	
293.04	4160.1	
293.25	2971.6	
293.46	4619.5	
293.67	5183.4	
293.88	3007.1	
294.09	2930.6	
294.29	4473.4	
294.5	4845.5	
294.71	3162.7	
294.92	3037.8	
295.13	4626.4	
295.34	5550	
295.55	2715.6	
295.76	2824.8	
295.97	5089.9	
296.18	5572.5	
296.39	2865.1	
296.6	2990	
296.81	4850.3	
297.01	5034.6	
297.22	3126.6	
297.43	3059.7	
297.64	4552	
297.85	4439.3	
298.06	2555.9	
298.27	2751.8	
298.48	4737	
298.69	4514.4	
298.9	3194.8	
299.11	2936.1	
299.31	4438.6	
299.52	4414.7	
299.73	3452.2	
299.94	3355.9	
300.15	4812	
300.36	4541.7	
300.57	3376.4	
300.78	3369.6	
300.99	4597	
301.2	4834.6	
301.4	3006.4	
301.61	3231.7	
301.82	5027.1	
302.03	5119.2	
302.24	3580.5	
302.45	2905.4	
302.66	4967	
302.87	5233.2	
303.08	3051.5	
303.29	3963.5	
303.49	4602.5	
303.7	4757.4	
303.91	2760	
304.12	3783.3	
304.33	4342.4	
304.54	4932.9	
304.75	2990.7	
304.96	2910.8	
305.16	5006.6	
305.37	5515.2	
305.58	2745.6	
305.79	2738.1	
306	4996.4	
306.21	4302.8	
306.42	3026.2	
306.63	4369	
306.83	4624.3	
307.04	5109	
307.25	3231.7	
307.46	3252.2	
307.67	4229.7	
307.88	5053.7	
308.09	3018	
308.29	3069.9	
308.5	4805.9	
308.71	5165.7	
308.92	3184.6	
309.13	2876.7	
309.34	4726	
309.55	4704.2	
309.75	3714.3	
309.96	3469.3	
310.17	5049.6	
310.38	4513	
310.59	3445.4	
310.8	2859	
311.01	4642.7	
311.21	4689.2	
311.42	2936.8	
311.63	3001.6	
311.84	4609.3	
312.05	4824.3	
312.26	3325.2	
312.46	3607.2	
312.67	4636.6	
312.88	4414.7	
313.09	2891.7	
313.3	2874	
313.51	5266.7	
313.71	5588.9	
313.92	2939.5	
314.13	3033	
314.34	4914.4	
314.55	4687.1	
314.76	3666.5	
314.96	3250.1	
315.17	4898.1	
315.38	4958.8	
315.59	2939.5	
315.8	2784.6	
316.01	5283.1	
316.21	5433.3	
316.42	2854.9	
316.63	3231	
316.84	4676.2	
317.05	5237.3	
317.26	3392.8	
317.46	3127.2	
317.67	4756.1	
317.88	5022.3	
318.09	3640.6	
318.3	2757.2	
318.5	4609.3	
318.71	4895.3	
318.92	4519.2	
319.13	3420.1	
319.34	5108.3	
319.54	5190.9	
319.75	2738.8	
319.96	2648	
320.17	5023.7	
320.38	5195.7	
320.58	2706	
320.79	3176.4	
321	5190.9	
321.21	5259.9	
321.42	3220.1	
321.62	2745.6	
321.83	4459.1	
322.04	4770.4	
322.25	3124.5	
322.46	2949.8	
322.66	4861.2	
322.87	4957.4	
323.08	3579.8	
323.29	2853.5	
323.5	5550.7	
323.7	4404.5	
323.91	3854.3	
324.12	3504.8	
324.33	4816.8	
324.53	4993.6	
324.74	3364.8	
324.95	3538.2	
325.16	4320.5	
325.37	4611.3	
325.57	2941.6	
325.78	2936.8	
325.99	4876.9	
326.2	4377.9	
326.4	4002.4	
326.61	2750.4	
326.82	4700.8	
327.03	4813.4	
327.24	4020.8	
327.44	3775.1	
327.65	4919.2	
327.86	4082.3	
328.07	3363.4	
328.27	2858.3	
328.48	5289.2	
328.69	4381.3	
328.9	4016.1	
329.1	3071.3	
329.31	4694.6	
329.52	5317.9	
329.73	2925.2	
329.93	3180.5	
330.14	4825	
330.35	4879.6	
330.56	4578.6	
330.76	3550.5	
330.97	4620.2	
331.18	4867.3	
331.39	3262.4	
331.59	2706.7	
331.8	5156.8	
332.01	5289.9	
332.22	3025.5	
332.42	3373.7	
332.63	4831.2	
332.84	4490.5	
333.05	3239.9	
333.25	2976.4	
333.46	4612	
333.67	4727.4	
333.88	3091.8	
334.08	3294.5	
334.29	6059.9	
334.5	5177.3	
334.7	2872.6	
334.91	3991.5	
335.12	4376.5	
335.33	5029.1	
335.53	3212.6	
335.74	4519.2	
335.95	4603.8	
336.16	4410.6	
336.36	3175	
336.57	3674.7	
336.78	4410	
336.98	5152	
337.19	3898	
337.4	3161.4	
337.61	5573.2	
337.81	4392.9	
338.02	2972.3	
338.23	3761.4	
338.43	5336.3	
338.64	4529.4	
338.85	2957.3	
339.05	3784	
339.26	5403.9	
339.47	4401.1	
339.68	2932.7	
339.88	4120.5	
340.09	4999.1	
340.3	5100.8	
340.5	3360	
340.71	2676.7	
340.92	4419.5	
341.13	5303.6	
341.33	2825.5	
341.54	3352.5	
341.75	4956.1	
341.95	4652.3	
342.16	3266.5	
342.37	3478.8	
342.57	4425	
342.78	4731.5	
342.99	3573	
343.19	2670.6	
343.4	5030.5	
343.61	4932.2	
343.81	3117	
344.02	2889	
344.23	5039.4	
344.43	5324.7	
344.64	3599.6	
344.85	3454.2	
345.06	4934.9	
345.26	5160.9	
345.47	3373.7	
345.68	3857.7	
345.88	4304.8	
346.09	5101.5	
346.3	3434.4	
346.5	2609.8	
346.71	4704.2	
346.92	4539.7	
347.12	2785.2	
347.33	3315	
347.54	5147.2	
347.74	5421	
347.95	3308.8	
348.16	2596.1	
348.36	4590.2	
348.57	4402.5	
348.78	3340.2	
348.98	3493.8	
349.19	4679.6	
349.39	4361.5	
349.6	2735.4	
349.81	2990.7	
350.01	4960.9	
350.22	4506.2	
350.43	3202.3	
350.63	3831.1	
350.84	4753.3	
351.05	4520.5	
351.25	2996.9	
351.46	2792.1	
351.67	5121.3	
351.87	4507.6	
352.08	3177.8	
352.29	3482.2	
352.49	5095.3	
352.7	5132.9	
352.9	2834.4	
353.11	3465.8	
353.32	5543.9	
353.52	4562.2	
353.73	2845.3	
353.94	3519.8	
354.14	4932.9	
354.35	4790.2	
354.55	2950.4	
354.76	3205.1	
354.97	4941.1	
355.17	4773.8	
355.38	2863.7	
355.59	3818.8	
355.79	4506.2	
356	4719.2	
356.2	3190.7	
356.41	2858.3	
356.62	4401.8	
356.82	4650.9	
357.03	3376.4	
357.24	3072	
357.44	4426.3	
357.65	4605.9	
357.85	3971	
358.06	3269.9	
358.27	4300.7	
358.47	4392.9	
358.68	2805	
358.88	3351.8	
359.09	4876.9	
359.3	5083.1	
359.5	3904.1	
359.71	3491.1	
359.91	5414.1	
360.12	4945.8	
360.33	3420.8	
360.53	3686.3	
360.74	4453	
360.94	4554.7	
361.15	3517	
361.36	2908.8	
361.56	5074.9	
361.77	4665.3	
361.97	3827	
362.18	3130.7	
362.38	5057.1	
362.59	4395.6	
362.8	2889	
363	2814.6	
363.21	4266.6	
363.41	4829.1	
363.62	3177.1	
363.83	3926.6	
364.03	4838.7	
364.24	5411.4	
364.44	4103.4	
364.65	3935.5	
364.85	4599.1	
365.06	4363.5	
365.27	3068.5	
365.47	3102	
365.68	5347.9	
365.88	4598.4	
366.09	3267.2	
366.29	3070.6	
366.5	4774.5	
366.71	5048.9	
366.91	3971	
367.12	3474.7	
367.32	5548.6	
367.53	4960.2	
367.73	3434.4	
367.94	4100	
368.14	4952.7	
368.35	5515.2	
368.56	3318.4	
368.76	2967.5	
368.97	5054.4	
369.17	6294.8	
369.38	3038.5	
369.58	3218	
369.79	4279.6	
369.99	5304.2	
370.2	4013.3	
370.4	3314.3	
370.61	4799.8	
370.82	5712.5	
371.02	3213.9	
371.23	2753.8	
371.43	4314.4	
371.64	5270.8	
371.84	3195.5	
372.05	4055	
372.25	6090.7	
372.46	4963.6	
372.66	3196.2	
372.87	3189.4	
373.07	5042.8	
373.28	6248.4	
373.48	3923.9	
373.69	3728.7	
373.9	4695.3	
374.1	4653	
374.31	3854.3	
374.51	3521.8	
374.72	5229.1	
374.92	4450.9	
375.13	3930.7	
375.33	3388.7	
375.54	4865.3	
375.74	4514.4	
375.95	3475.4	
376.15	4377.2	
376.36	4911.7	
376.56	4832.5	
376.77	3474	
376.97	3719.1	
377.18	5705.6	
377.38	5004.6	
377.59	3989.4	
377.79	3177.8	
378	4831.8	
378.2	5047.6	
378.41	3128.6	
378.61	3048.1	
378.82	5157.5	
379.02	4547.2	
379.23	3315.7	
379.43	4091.2	
379.64	5248.3	
379.84	4921.3	
380.05	3135.4	
380.25	3093.1	
380.46	5032.5	
380.66	4702.8	
380.87	4154.6	
381.07	4343.1	
381.28	5478.3	
381.48	4967.7	
381.69	3145.7	
381.89	3225.6	
382.1	4289.8	
382.3	5054.4	
382.51	3975.1	
382.71	4643.4	
382.91	4955.4	
383.12	5385.5	
383.32	3431.7	
383.53	3614.7	
383.73	4924.7	
383.94	4814.8	
384.14	3614	
384.35	2955.2	
384.55	4626.4	
384.76	4995.7	
384.96	3444	
385.17	3704.1	
385.37	5010.7	
385.58	4453	
385.78	3667.9	
385.98	2911.5	
386.19	4680.3	
386.39	4952	
386.6	3279.5	
386.8	3447.4	
387.01	5018.9	
387.21	5038.7	
387.42	3763.5	
387.62	4110.3	
387.83	4536.9	
388.03	4915.8	
388.23	3465.2	
388.44	4029	
388.64	4371	
388.85	4405.2	
389.05	3701.4	
389.26	4126.7	
389.46	5812.1	
389.67	5358.2	
389.87	3715.7	
390.07	3696.6	
390.28	4780	
390.48	4423.6	
390.69	3112.9	
390.89	3386	
391.1	4631.1	
391.3	5231.9	
391.5	4187.4	
391.71	4595.6	
391.91	5079.6	
392.12	5651.7	
392.32	4300.7	
392.53	3697.9	
392.73	4653.7	
392.93	4745.1	
393.14	3473.4	
393.34	4040.6	
393.55	5085.1	
393.75	4739.7	
393.95	3520.5	
394.16	3392.8	
394.36	4582	
394.57	5096	
394.77	3087	
394.98	3329.3	
395.18	4587.4	
395.38	4620.2	
395.59	4001.7	
395.79	3305.4	
396	4657.8	
396.2	5012.1	
396.4	3852.2	
396.61	3817.4	
396.81	5091.9	
397.02	4589.5	
397.22	3986	
397.42	4037.2	
397.63	5147.2	
397.83	4531.5	
398.04	3241.3	
398.24	3573.7	
398.44	4968.4	
398.65	4220.9	
398.85	3146.4	
399.05	3149.8	
399.26	4561.5	
399.46	5750	
399.67	3511.6	
399.87	3241.9	
400.07	4842.1	
400.28	5036	
400.48	3260.4	
400.69	3994.9	
400.89	5139	
401.09	5502.9	
401.3	3278.8	
401.5	3969	
401.7	5655.1	
401.91	5803.3	
402.11	3539.6	
402.32	3652.2	
402.52	5226.4	
402.72	5131.5	
402.93	3859.1	
403.13	3022.8	
403.33	5854.5	
403.54	4829.8	
403.74	3615.3	
403.94	4227.7	
404.15	4913.8	
404.35	5745.2	
404.56	3457.7	
404.76	4734.2	
404.96	5193	
405.17	4993.6	
405.37	4233.8	
405.57	3718.4	
405.78	5239.4	
405.98	4784.7	
406.18	3386	
406.39	4095.3	
406.59	5295.4	
406.79	4788.8	
407	3304.1	
407.2	3396.9	
407.4	5329.5	
407.61	5365	
407.81	3350.5	
408.01	4685.8	
408.22	4383.3	
408.42	5769.8	
408.62	4106.2	
408.83	3670	
409.03	4803.2	
409.23	4720.6	
409.44	3784	
409.64	3879.5	
409.84	5522	
410.05	5382.7	
410.25	3835.2	
410.45	3740.3	
410.66	5055.1	
410.86	6850.5	
411.06	3962.1	
411.27	3847.5	
411.47	6593.8	
411.67	5147.9	
411.88	4033.8	
412.08	4219.5	
412.28	5639.4	
412.49	5958.9	
412.69	3839.9	
412.89	3889.1	
413.09	5875.6	
413.3	5747.3	
413.5	3901.4	
413.7	3661.1	
413.91	5320.6	
414.11	5818.3	
414.31	3743	
414.52	4101.4	
414.72	5618.3	
414.92	5492	
415.12	3763.5	
415.33	4203.1	
415.53	5755.5	
415.73	5943.2	
415.94	4430.4	
416.14	4009.2	
416.34	5070.1	
416.55	4913.8	
416.75	4894.6	
416.95	4498.7	
417.15	5782.8	
417.36	6268.1	
417.56	5009.3	
417.76	4285	
417.97	6016.2	
418.17	5792.3	
418.37	4104.8	
418.57	4098.7	
418.78	5684.5	
418.98	5513.1	
419.18	4687.1	
419.38	4641.4	
419.59	5430.5	
419.79	5189.6	
419.99	4025.6	
420.2	4238.6	
420.4	5848.3	
420.6	5900.9	
420.8	3954.6	
421.01	3812	
421.21	5683.1	
421.41	5689.9	
421.61	4197.7	
421.82	4001.7	
422.02	5386.2	
422.22	6055.2	
422.42	4573.1	
422.63	4329.4	
422.83	5445.5	
423.03	6326.2	
423.23	4371.7	
423.44	3603.1	
423.64	5442.8	
423.84	5255.8	
424.04	3959.4	
424.25	3674.1	
424.45	6182.8	
424.65	6097.5	
424.85	3607.8	
425.06	4000.4	
425.26	6255.2	
425.46	5381.4	
425.66	4361.5	
425.87	4182	
426.07	5993	
426.27	5840.8	
426.47	4238.6	
426.67	3745.1	
426.88	6287.9	
427.08	5842.2	
427.28	4426.3	
427.48	3729.4	
427.69	5077.6	
427.89	5543.2	
428.09	4339.6	
428.29	3738.9	
428.5	5948.7	
428.7	5661.3	
428.9	3720.5	
429.1	4074.1	
429.3	5622.4	
429.51	5891.3	
429.71	3951.2	
429.91	4569.7	
430.11	5817.6	
430.31	5986.2	
430.52	4159.4	
430.72	4318.5	
430.92	6244.9	
431.12	5870.2	
431.32	3850.9	
431.53	4214.7	
431.73	5048.9	
431.93	6305	
432.13	3825.6	
432.33	3770.3	
432.54	5468.1	
432.74	5595.1	
432.94	3680.9	
433.14	4509.6	
433.34	5920.7	
433.55	5522	
433.75	4403.8	
433.95	5746.6	
434.15	5667.4	
434.35	5369.1	
434.56	3858.4	
434.76	3485	
434.96	5610.8	
435.16	5882.4	
435.36	3749.1	
435.56	4600.4	
435.77	5400.5	
435.97	5555.5	
436.17	5058.5	
436.37	4534.2	
436.57	5408.7	
436.78	5326.8	
436.98	5868.1	
437.18	4994.3	
437.38	5810.8	
437.58	5492	
437.78	5087.8	
437.99	4115.1	
438.19	5905.7	
438.39	6950.8	
438.59	4080.2	
438.79	3673.4	
438.99	6324.1	
439.2	5556.1	
439.4	3727.3	
439.6	3746.4	
439.8	5703.6	
440	6467.5	
440.2	4487.8	
440.4	4491.2	
440.61	6025.8	
440.81	6343.9	
441.01	3849.5	
441.21	4565.6	
441.41	6362.4	
441.61	6002.6	
441.81	4719.2	
442.02	5505.6	
442.22	6709.8	
442.42	6151.4	
442.62	3986	
442.82	3990.1	
443.02	6404	
443.22	5692.7	
443.43	4300.1	
443.63	3890.5	
443.83	5536.3	
444.03	5461.9	
444.23	4852.3	
444.43	4516.5	
444.63	5900.2	
444.83	6640.2	
445.04	4064.5	
445.24	5009.3	
445.44	6107	
445.64	6111.1	
445.84	4688.5	
446.04	4631.1	
446.24	5606	
446.44	6383.5	
446.65	4087.7	
446.85	4323.9	
447.05	5754.8	
447.25	6381.5	
447.45	4407.2	
447.65	3938.9	
447.85	5952.8	
448.05	5576.6	
448.25	4697.4	
448.46	4600.4	
448.66	5836.7	
448.86	5608	
449.06	3898	
449.26	4809.3	
449.46	6151.4	
449.66	5472.2	
449.86	4315.1	
450.06	4317.1	
450.26	5547.9	
450.47	6049.7	
450.67	4506.9	
450.87	4829.8	
451.07	6164.4	
451.27	5915.9	
451.47	4075.5	
451.67	4430.4	
451.87	5621	
452.07	6559.6	
452.27	4205.8	
452.47	4190.1	
452.67	5967.8	
452.88	6212.2	
453.08	3813.3	
453.28	5295.4	
453.48	6770.6	
453.68	5843.5	
453.88	4139.6	
454.08	4386.7	
454.28	6165.1	
454.48	5848.3	
454.68	4683.7	
454.88	5061.2	
455.08	6313.9	
455.28	5944.6	
455.48	4072	
455.68	4542.4	
455.89	6617	
456.09	6386.9	
456.29	4353.3	
456.49	4380.6	
456.69	6512.5	
456.89	5885.2	
457.09	4745.8	
457.29	5022.3	
457.49	6214.2	
457.69	6245.6	
457.89	4604.5	
458.09	4131.4	
458.29	6042.9	
458.49	6532.3	
458.69	4886.5	
458.89	4472.8	
459.09	6721.4	
459.29	6821.8	
459.49	4569.7	
459.69	5120.6	
459.9	6383.5	
460.1	5960.3	
460.3	4520.5	
460.5	4326	
460.7	6393.1	
460.9	6180.1	
461.1	4130.1	
461.3	4930.1	
461.5	6875	
461.7	6524.8	
461.9	4399.7	
462.1	4700.8	
462.3	6152.8	
462.5	6635.4	
462.7	4456.4	
462.9	4525.3	
463.1	7446.4	
463.3	7140.6	
463.5	4633.9	
463.7	5322.7	
463.9	6408.1	
464.1	6680.5	
464.3	4728.8	
464.5	4948.6	
464.7	6779.5	
464.9	6533.7	
465.1	5844.2	
465.3	5162.9	
465.5	7061.4	
465.7	7013.6	
465.9	5350	
466.1	5240.8	
466.3	6926.2	
466.5	6818.4	
466.7	5851	
466.9	5108.3	
467.1	6877.8	
467.3	7432.1	
467.5	5811.5	
467.7	5049.6	
467.9	7630.7	
468.1	8230.1	
468.3	5563	
468.5	5910.4	
468.7	6720.8	
468.9	6663.4	
469.1	5285.1	
469.3	5762.3	
469.5	8303.1	
469.7	6436.8	
469.9	5598.5	
470.1	5111.7	
470.3	6852.5	
470.5	6903	
470.7	6033.3	
470.9	5212.1	
471.1	6639.5	
471.3	7009.5	
471.5	5050.3	
471.69	6434	
471.89	6670.9	
472.09	6150.7	
472.29	5598.5	
472.49	5849	
472.69	6397.2	
472.89	6907.8	
473.09	5000.5	
473.29	5088.5	
473.49	6522.8	
473.69	6603.3	
473.89	5816.9	
474.09	5253	
474.29	7574.8	
474.49	7322.9	
474.69	5690.6	
474.89	5289.2	
475.09	6641.6	
475.29	6672.3	
475.49	4900.8	
475.69	5082.4	
475.88	7800	
476.08	7066.2	
476.28	4881	
476.48	5228.5	
476.68	7270.3	
476.88	7137.2	
477.08	5113.1	
477.28	5299.5	
477.48	6790.4	
477.68	7150.1	
477.88	4885.1	
478.08	5123.3	
478.28	7460.1	
478.48	6781.5	
478.67	5257.1	
478.87	4776.5	
479.07	7258	
479.27	6989	
479.47	5423.7	
479.67	5433.3	
479.87	7219.1	
480.07	7542.7	
480.27	4849.6	
480.47	6047.7	
480.67	6892.1	
480.87	7423.2	
481.06	5066.7	
481.26	5770.5	
481.46	6941.2	
481.66	6864.1	
481.86	5387.5	
482.06	6195.8	
482.26	6720.8	
482.46	7417.1	
482.66	5417.6	
482.86	5184.8	
483.05	7055.3	
483.25	6500.9	
483.45	7144	
483.65	5354.1	
483.85	6616.3	
484.05	6806.8	
484.25	5677	
484.45	6019.7	
484.65	7428	
484.84	7518.1	
485.04	5291.3	
485.24	5388.2	
485.44	7746.1	
485.64	6500.3	
485.84	4897.4	
486.04	5840.1	
486.24	6793.1	
486.44	6989	
486.63	4797.7	
486.83	5404.6	
487.03	6725.5	
487.23	6926.9	
487.43	4875.5	
487.63	6571.9	
487.83	6925.5	
488.02	7570.7	
488.22	5623.7	
488.42	6090.7	
488.62	7542.7	
488.82	6741.2	
489.02	5363.6	
489.22	5466.7	
489.41	7441	
489.61	7276.4	
489.81	5218.2	
490.01	5220.3	
490.21	7490.8	
490.41	7976.2	
490.61	5272.8	
490.8	5335	
491	7046.4	
491.2	6655.2	
491.4	5732.9	
491.6	5155.4	
491.8	7120.8	
491.99	7150.1	
492.19	5017.5	
492.39	5259.9	
492.59	7481.9	
492.79	7556.3	
492.99	5905.7	
493.18	5276.3	
493.38	7553.6	
493.58	8099	
493.78	5799.8	
493.98	5481	
494.18	7351.5	
494.37	6842.9	
494.57	5951.4	
494.77	5902.9	
494.97	7523.6	
495.17	7722.9	
495.37	5515.2	
495.56	5802.6	
495.76	7943.4	
495.96	7573.4	
496.16	6549.4	
496.36	5739.8	
496.55	7707.2	
496.75	7374.7	
496.95	5998.5	
497.15	5888.6	
497.35	7780.9	
497.54	7702.4	
497.74	5825.8	
497.94	7090.1	
498.14	8362.5	
498.34	8174.8	
498.53	5583.4	
498.73	6167.8	
498.93	7209.5	
499.13	7721.5	
499.33	6036	
499.52	6374	
499.72	7871	
499.92	7942.7	
500.12	5747.3	
500.32	6029.2	
500.51	7898.3	
500.71	7681.2	
500.91	6523.5	
501.11	6302.3	
501.31	7942	
501.5	8272.4	
501.7	6771.9	
501.9	6056.5	
502.1	7804.8	
502.29	8021.9	
502.49	6364.4	
502.69	6743.3	
502.89	7996	
503.09	7989.8	
503.28	5623.7	
503.48	5800.5	
503.68	7447.1	
503.88	7366.5	
504.07	6578.1	
504.27	6090.7	
504.47	7682.6	
504.67	7897.7	
504.86	6402	
505.06	6266.8	
505.26	7487.4	
505.46	8703.2	
505.65	6146	
505.85	6309.1	
506.05	7471.7	
506.25	7931.8	
506.44	5767.1	
506.64	6288.6	
506.84	7320.1	
507.04	7972.1	
507.23	5849	
507.43	6193.1	
507.63	8762.6	
507.83	7456.7	
508.02	6201.9	
508.22	5892.7	
508.42	8972.2	
508.62	7307.8	
508.81	6116.6	
509.01	6571.2	
509.21	7262.8	
509.4	7555.6	
509.6	6352.1	
509.8	5815.5	
510	7463.5	
510.19	8371.4	
510.39	5740.5	
510.59	5915.9	
510.79	7348.8	
510.98	8279.9	
511.18	6053.8	
511.38	5984.2	
511.57	8062.9	
511.77	7735.9	
511.97	6520	
512.17	5849	
512.36	8021.2	
512.56	7847.8	
512.76	5927.5	
512.95	5627.1	
513.15	8137.3	
513.35	6985.6	
513.55	6418.3	
513.74	5862	
513.94	7957.7	
514.14	7503.8	
514.33	6548	
514.53	6361	
514.73	7501.7	
514.92	7714	
515.12	5905	
515.32	5831.9	
515.51	7752.9	
515.71	8044.4	
515.91	7136.5	
516.11	5862.7	
516.3	8871.8	
516.5	7423.9	
516.7	6148.7	
516.89	6735.1	
517.09	7548.8	
517.29	7576.8	
517.48	6675.7	
517.68	6042.2	
517.88	7279.8	
518.07	7766.6	
518.27	6391	
518.47	5754.1	
518.66	8233.5	
518.86	7249.1	
519.06	5690.6	
519.25	5837.4	
519.45	7447.8	
519.65	8484.7	
519.84	6475	
520.04	6995.2	
520.24	8787.2	
520.43	7942.7	
520.63	6338.5	
520.83	6061.3	
521.02	7442.3	
521.22	7908.6	
521.42	6462	
521.61	6866.2	
521.81	7641	
522.01	7780.2	
522.2	6281.8	
522.4	6111.1	
522.6	8110	
522.79	7056.6	
522.99	6182.1	
523.18	5674.9	
523.38	7869.7	
523.58	7774.1	
523.77	7096.2	
523.97	5658.5	
524.17	9199.5	
524.36	8601.5	
524.56	6785.6	
524.76	6529.6	
524.95	7805.5	
525.15	7681.9	
525.34	6361.7	
525.54	6380.1	
525.74	8158.4	
525.93	7436.9	
526.13	7172	
526.33	6318	
526.52	8525.7	
526.72	8054	
526.91	7352.2	
527.11	6686.6	
527.31	8437.6	
527.5	8736.6	
527.7	6713.9	
527.89	5881.8	
528.09	7709.9	
528.29	8130.4	
528.48	6873	
528.68	6647	
528.87	8444.5	
529.07	8376.9	
529.27	6685.3	
529.46	6389.7	
529.66	8252.6	
529.85	8531.8	
530.05	6286.6	
530.25	6851.1	
530.44	9283.4	
530.64	8164.6	
530.83	6601.3	
531.03	6698.9	
531.23	8572.8	
531.42	8319.5	
531.62	7164.5	
531.81	6642.9	
532.01	8669.1	
532.21	8828.8	
532.4	6474.3	
532.6	6800.6	
532.79	9157.2	
532.99	8581	
533.18	6886	
533.38	7507.2	
533.58	8342.7	
533.77	8804.9	
533.97	6865.5	
534.16	7451.2	
534.36	9087.5	
534.55	8419.9	
534.75	7582.3	
534.95	6888.7	
535.14	9046.6	
535.34	8338	
535.53	6772.6	
535.73	8075.1	
535.92	9414.5	
536.12	8471.8	
536.31	6768.5	
536.51	7641	
536.71	8860.9	
536.9	8406.2	
537.1	6802	
537.29	6995.2	
537.49	9011.7	
537.68	8366.6	
537.88	7237.5	
538.07	6645	
538.27	8590.5	
538.46	9368.1	
538.66	6541.2	
538.86	6879.8	
539.05	8535.9	
539.25	8888.9	
539.44	7257.3	
539.64	6873.7	
539.83	8524.3	
540.03	9243.2	
540.22	6763.1	
540.42	6870.9	
540.61	8715.5	
540.81	8723	
541	7221.8	
541.2	7651.9	
541.39	8383	
541.59	8541.4	
541.78	7406.8	
541.98	6745.3	
542.18	8106.5	
542.37	8055.3	
542.57	7140.6	
542.76	7462.8	
542.96	8175.5	
543.15	8559.1	
543.35	7068.9	
543.54	6588.3	
543.74	8671.1	
543.93	8499.1	
544.13	7074.4	
544.32	7703.1	
544.52	8652	
544.71	8078.6	
544.91	6313.9	
545.1	7320.1	
545.3	8192.6	
545.49	8473.1	
545.69	6285.2	
545.88	6774.7	
546.08	9345.6	
546.27	9007.6	
546.47	7127.6	
546.66	6580.1	
546.86	8821.3	
547.05	9172.2	
547.24	6733	
547.44	6617.7	
547.63	7971.4	
547.83	8836.3	
548.02	6992.4	
548.22	7141.9	
548.41	7963.9	
548.61	8877.3	
548.8	6696.2	
549	6620.4	
549.19	8432.9	
549.39	8712.1	
549.58	6320.7	
549.78	6833.4	
549.97	8660.9	
550.17	8264.9	
550.36	7440.3	
550.55	8161.8	
550.75	8317.5	
550.94	8920.3	
551.14	6490.7	
551.33	6765.8	
551.53	7814.4	
551.72	8503.2	
551.92	6848.4	
552.11	6633.4	
552.31	8617.2	
552.5	8612.4	
552.69	7918.8	
552.89	6341.9	
553.08	8552.3	
553.28	8362.5	
553.47	6643.6	
553.67	7475.1	
553.86	9062.9	
554.06	7768.6	
554.25	6085.9	
554.44	6516	
554.64	9527.2	
554.83	9185.1	
555.03	6466.8	
555.22	6787.7	
555.42	8765.3	
555.61	8412.4	
555.8	6589	
556	6816.3	
556.19	7842.4	
556.39	8736	
556.58	6669.6	
556.78	6668.9	
556.97	8395.3	
557.16	8163.2	
557.36	7637.6	
557.55	6489.3	
557.75	7606.8	
557.94	8978.3	
558.13	6490.7	
558.33	6267.5	
558.52	8825.4	
558.72	7886	
558.91	6362.4	
559.1	6498.2	
559.3	7666.2	
559.49	7514.7	
559.69	6065.4	
559.88	6808.8	
560.07	8347.5	
560.27	8758.5	
560.46	7030	
560.66	7092.8	
560.85	8213.7	
561.04	7572.7	
561.24	6298.2	
561.43	6527.6	
561.63	7794.6	
561.82	8014.4	
562.01	7429.3	
562.21	6682.5	
562.4	8347.5	
562.59	8980.3	
562.79	6610.2	
562.98	6350.8	
563.18	8160.5	
563.37	9204.3	
563.56	6969.9	
563.76	6314.6	
563.95	7814.4	
564.14	7868.3	
564.34	6673.6	
564.53	6453.1	
564.73	8337.3	
564.92	8436.9	
565.11	6744	
565.31	6264.1	
565.5	8750.3	
565.69	7787.1	
565.89	6526.2	
566.08	6692.1	
566.27	8617.2	
566.47	8874.5	
566.66	7178.8	
566.85	6111.8	
567.05	8406.2	
567.24	7916.1	
567.44	6386.2	
567.63	7474.4	
567.82	8548.9	
568.02	8329.1	
568.21	6433.4	
568.4	6667.5	
568.6	8230.1	
568.79	8165.3	
568.98	6398.5	
569.18	6448.4	
569.37	8255.4	
569.56	9711.5	
569.76	6805.4	
569.95	7431.4	
570.14	8537.3	
570.34	8348.9	
570.53	6417.7	
570.72	6356.9	
570.91	8947.6	
571.11	8316.1	
571.3	6824.5	
571.49	7436.2	
571.69	8338.6	
571.88	7893.6	
572.07	7058.7	
572.27	7134.4	
572.46	7849.9	
572.65	8735.3	
572.85	6596.5	
573.04	6799.9	
573.23	8899.1	
573.43	8345.5	
573.62	6414.2	
573.81	6925.5	
574	8449.9	
574.2	8247.2	
574.39	6640.2	
574.58	6779.5	
574.78	9054.8	
574.97	8570.7	
575.16	7150.1	
575.36	7263.5	
575.55	8729.8	
575.74	8988.5	
575.93	6444.3	
576.13	7286	
576.32	8271.7	
576.51	8725	
576.71	6891.4	
576.9	7804.8	
577.09	9086.8	
577.28	8630.8	
577.48	7176.1	
577.67	6479.8	
577.86	8459.5	
578.05	8727.8	
578.25	6946.7	
578.44	6972.7	
578.63	8476.5	
578.83	9452.7	
579.02	6586.3	
579.21	7607.5	
579.4	8642.4	
579.6	8482.7	
579.79	7082.6	
579.98	8659.5	
580.17	8918.9	
580.37	9003.6	
580.56	6680.5	
580.75	7178.8	
580.94	9136	
581.14	9194.7	
581.33	7541.3	
581.52	6797.9	
581.71	8748.2	
581.91	9269.1	
582.1	6650.4	
582.29	6954.2	
582.48	8542.8	
582.68	8454	
582.87	7352.2	
583.06	7108.5	
583.25	8798.8	
583.45	8712.1	
583.64	7573.4	
583.83	7973.4	
584.02	8512	
584.21	8846.5	
584.41	7512.6	
584.6	7003.4	
584.79	8561.9	
584.98	9028.1	
585.18	6711.2	
585.37	6668.2	
585.56	8414.4	
585.75	8821.3	
585.94	6840.2	
586.14	7306.5	
586.33	9297.1	
586.52	8527.1	
586.71	7185	
586.91	6993.1	
587.1	8110	
587.29	8798.1	
587.48	6918	
587.67	6876.4	
587.87	8834.9	
588.06	8727.8	
588.25	7825.3	
588.44	7326.3	
588.63	8505.2	
588.83	8924.4	
589.02	6923.5	
589.21	6815.6	
589.4	8409.6	
589.59	8332.5	
589.78	6264.1	
589.98	6539.2	
590.17	7963.9	
590.36	8333.9	
590.55	5903.6	
590.74	6563.7	
590.94	9209.7	
591.13	8113.4	
591.32	6367.8	
591.51	5907	
591.7	8538	
591.89	8112	
592.09	6089.3	
592.28	6457.9	
592.47	7603.4	
592.66	9071.8	
592.85	6134.3	
593.05	6313.9	
593.24	8069.7	
593.43	8699.8	
593.62	6343.2	
593.81	6660	
594	8157.1	
594.19	8234.2	
594.39	6238.8	
594.58	6268.1	
594.77	8340	
594.96	8782.4	
595.15	6271.6	
595.34	6665.5	
595.54	8286.1	
595.73	7666.9	
595.92	5776	
596.11	6627.2	
596.3	8691.6	
596.49	7671.7	
596.68	6441.5	
596.88	6692.1	
597.07	8434.9	
597.26	7559.7	
597.45	6050.4	
597.64	6867.5	
597.83	7692.2	
598.02	8234.9	
598.22	6102.3	
598.41	6507.1	
598.6	8058.8	
598.79	7666.9	
598.98	6165.1	
599.17	6769.9	
599.36	8123.6	
599.55	8884.8	
599.74	7598.6	
599.94	7402	
600.13	8396	
600.32	7636.9	
600.51	5897.5	
600.7	5969.1	
600.89	8887.5	
601.08	8873.8	
601.27	5810.8	
601.47	6577.4	
601.66	8303.8	
601.85	8768.7	
602.04	6436.1	
602.23	6522.1	
602.42	7643	
602.61	8153	
602.8	6272.9	
602.99	6136.4	
603.18	8006.9	
603.37	8057.4	
603.57	6558.3	
603.76	6939.9	
603.95	8697.7	
604.14	8239	
604.33	6152.8	
604.52	6395.1	
604.71	8165.3	
604.9	7730.4	
605.09	6889.4	
605.28	6602.7	
605.47	8465.6	
605.66	8338.6	
605.86	6569.2	
606.05	6118.6	
606.24	8490.2	
606.43	7414.3	
606.62	6466.1	
606.81	6917.4	
607	8415.1	
607.19	7789.1	
607.38	5911.1	
607.57	6090.7	
607.76	7680.6	
607.95	7243.7	
608.14	6460	
608.33	6840.9	
608.52	7638.2	
608.72	8342.1	
608.91	5825.8	
609.1	5824.4	
609.29	7776.1	
609.48	7339.2	
609.67	6572.6	
609.86	5819	
610.05	7425.3	
610.24	7662.1	
610.43	5874.3	
610.62	5565	
610.81	8480.6	
611	8268.3	
611.19	5840.1	
611.38	6285.2	
611.57	7977.5	
611.76	8800.1	
611.95	5655.1	
612.14	5597.1	
612.33	7743.4	
612.52	7358.4	
612.71	6162.3	
612.9	5511.8	
613.09	7130.3	
613.28	8796.7	
613.47	6098.9	
613.66	6673.6	
613.85	7818.5	
614.04	7462.8	
614.24	6048.3	
614.43	5339.1	
614.62	7916.8	
614.81	7938.6	
615	6364.4	
615.19	6309.8	
615.38	7421.2	
615.57	7672.4	
615.76	6269.5	
615.95	6972.7	
616.14	7981.6	
616.33	7714	
616.52	6498.9	
616.71	6616.3	
616.9	7932.5	
617.09	7817.1	
617.28	6103.6	
617.47	6931	
617.66	7336.5	
617.85	7415.7	
618.04	6691.4	
618.22	6272.2	
618.41	7574.1	
618.6	8325	
618.79	6268.1	
618.98	6064.7	
619.17	8477.2	
619.36	7188.4	
619.55	6225.8	
619.74	6214.2	
619.93	7977.5	
620.12	7476.5	
620.31	6645.7	
620.5	6759	
620.69	8342.1	
620.88	8746.9	
621.07	7247.8	
621.26	6574	
621.45	8061.5	
621.64	8148.9	
621.83	6662.7	
622.02	6047	
622.21	8124.3	
622.4	8011.7	
622.59	7015	
622.78	6875.7	
622.97	7738.6	
623.16	8406.9	
623.35	6604	
623.54	5994.4	
623.72	7871	
623.91	7910.6	
624.1	6877.1	
624.29	5829.9	
624.48	8788.5	
624.67	8234.2	
624.86	6693.4	
625.05	6039.5	
625.24	8891.6	
625.43	7729.7	
625.62	7955.7	
625.81	6208.8	
626	8404.9	
626.19	7832.1	
626.38	6794.5	
626.56	6348.7	
626.75	7752.2	
626.94	8219.9	
627.13	6864.8	
627.32	5896.1	
627.51	8255.4	
627.7	9123.7	
627.89	6044.2	
628.08	6804.7	
628.27	7621.9	
628.46	7834.2	
628.65	6167.1	
628.83	5883.1	
629.02	8195.3	
629.21	7709.9	
629.4	6477	
629.59	6617	
629.78	7680.6	
629.97	8381	
630.16	6660.7	
630.35	6304.3	
630.54	8757.8	
630.72	8557.8	
630.91	6340.5	
631.1	6739.9	
631.29	8044.4	
631.48	8217.1	
631.67	6778.8	
631.86	6352.1	
632.05	7847.1	
632.24	7852.6	
632.42	6126.8	
632.61	6488.6	
632.8	7849.9	
632.99	7636.9	
633.18	6543.3	
633.37	6873	
633.56	8036.2	
633.75	7921.5	
633.93	6562.4	
634.12	6305	
634.31	8656.8	
634.5	8272.4	
634.69	6386.2	
634.88	6704.4	
635.07	7947.5	
635.25	8327.7	
635.44	7009.5	
635.63	7150.1	
635.82	7722.9	
636.01	7323.5	
636.2	6924.2	
636.39	6590.4	
636.57	8581.7	
636.76	8363.9	
636.95	6167.8	
637.14	7233.4	
637.33	8161.2	
637.52	8768	
637.7	6021	
637.89	6761	
638.08	7883.3	
638.27	8929.8	
638.46	6751.5	
638.65	7087.3	
638.83	8927.8	
639.02	7648.5	
639.21	6666.1	
639.4	7036.1	
639.59	8014.4	
639.78	7788.4	
639.96	6191	
640.15	6168.5	
640.34	7920.2	
640.53	7962.5	
640.72	5976	
640.91	6219	
641.09	7488.1	
641.28	8366	
641.47	6229.9	
641.66	6840.9	
641.85	7945.4	
642.03	8100.4	
642.22	6534.4	
642.41	6256.5	
642.6	7520.8	
642.79	7068.2	
642.97	6137.1	
643.16	6643.6	
643.35	7471	
643.54	7317.4	
643.73	5978.7	
643.91	6642.9	
644.1	7275.1	
644.29	7753.6	
644.48	6124.1	
644.67	6106.4	
644.85	7359.7	
645.04	7702.4	
645.23	5782.8	
645.42	6009.4	
645.6	7279.2	
645.79	8157.7	
645.98	5927.5	
646.17	5267.4	
646.36	7146.7	
646.54	7494.2	
646.73	6531	
646.92	5726.1	
647.11	7245.7	
647.29	7926.3	
647.48	5693.4	
647.67	5491.3	
647.86	8112.7	
648.05	8129.8	
648.23	5877.7	
648.42	6761	
648.61	7656	
648.8	7434.1	
648.98	5605.3	
649.17	5903.6	
649.36	7012.9	
649.55	6756.9	
649.73	5623	
649.92	6180.1	
650.11	7094.8	
650.3	7318.8	
650.48	5788.9	
650.67	5496.1	
650.86	7578.2	
651.05	6743.3	
651.23	5705	
651.42	5608.7	
651.61	7127.6	
651.79	7101	
651.98	5819.6	
652.17	5508.4	
652.36	7396.6	
652.54	6764.4	
652.73	5571.2	
652.92	5516.5	
653.11	7486.7	
653.29	7448.5	
653.48	5066	
653.67	5706.3	
653.85	7266.9	
654.04	8098.4	
654.23	5906.3	
654.42	5588.9	
654.6	6954.2	
654.79	7366.5	
654.98	5141.1	
655.16	5651	
655.35	6579.4	
655.54	6416.3	
655.73	5219.6	
655.91	5042.1	
656.1	7260	
656.29	6415.6	
656.47	4796.3	
656.66	6033.3	
656.85	6728.3	
657.03	6731	
657.22	5179.3	
657.41	5340.4	
657.59	6743.3	
657.78	6585.6	
657.97	4986.1	
658.16	5518.6	
658.34	7325.6	
658.53	7552.2	
658.72	6280.4	
658.9	6459.3	
659.09	6931	
659.28	6863.4	
659.46	5435.3	
659.65	5305.6	
659.84	6677.1	
660.02	7150.8	
660.21	5376.6	
660.4	5208.7	
660.58	7424.6	
660.77	6924.9	
660.96	5734.3	
661.14	4995	
661.33	7836.9	
661.52	7690.8	
661.7	5070.1	
661.89	7545.4	
662.08	6669.6	
662.26	6295.5	
662.45	5149.3	
662.64	5197.1	
662.82	7214.3	
663.01	6503	
663.2	5232.6	
663.38	5791.7	
663.57	7075.7	
663.75	7020.4	
663.94	5442.8	
664.13	6339.1	
664.31	6648.4	
664.5	7035.5	
664.69	5644.9	
664.87	6029.2	
665.06	6415.6	
665.25	6872.3	
665.43	6179.4	
665.62	6264.7	
665.8	7174.7	
665.99	6635.4	
666.18	5484.5	
666.36	5504.9	
666.55	7134.4	
666.74	7098.9	
666.92	5131.5	
667.11	6425.2	
667.29	6732.4	
667.48	7146	
667.67	6066.8	
667.85	5283.8	
668.04	6653.2	
668.22	6662	
668.41	5523.4	
668.6	5711.8	
668.78	6542.6	
668.97	6716	
669.15	5704.3	
669.34	4983.4	
669.53	6601.3	
669.71	6752.2	
669.9	5160.9	
670.08	5557.5	
670.27	6523.5	
670.46	6910.5	
670.64	5795.1	
670.83	6015.6	
671.01	6373.3	
671.2	6907.8	
671.38	5188.2	
671.57	5120.6	
671.76	7382.9	
671.94	7831.4	
672.13	5061.2	
672.31	5767.8	
672.5	7089.4	
672.69	6577.4	
672.87	5104.9	
673.06	5351.3	
673.24	6933.1	
673.43	6571.9	
673.61	5680.4	
673.8	5343.2	
673.98	7089.4	
674.17	7138.5	
674.36	5866.1	
674.54	5670.8	
674.73	6781.5	
674.91	7078.5	
675.1	5466	
675.28	5180.7	
675.47	6672.3	
675.65	7081.2	
675.84	5409.4	
676.03	5617.6	
676.21	6617.7	
676.4	6147.3	
676.58	5907.7	
676.77	5705.6	
676.95	7639.6	
677.14	6500.3	
677.32	5016.8	
677.51	4962.9	
677.69	7116.7	
677.88	6227.2	
678.06	5048.9	
678.25	5161.6	
678.44	6661.4	
678.62	6496.8	
678.81	4930.1	
678.99	5655.1	
679.18	7234.8	
679.36	6929	
679.55	5374.6	
679.73	5750	
679.92	6976.1	
680.1	6525.5	
680.29	6241.5	
680.47	5356.1	
680.66	6543.3	
680.84	7132.4	
681.03	4799.8	
681.21	5606.7	
681.4	6500.3	
681.58	6382.8	
681.77	5210.7	
681.95	5066	
682.14	7182.9	
682.32	7338.6	
682.51	5786.2	
682.69	4928.8	
682.88	6413.6	
683.06	6830	
683.25	5520.6	
683.43	5848.3	
683.62	6723.5	
683.8	6950.8	
683.99	5978.7	
684.17	5451.7	
684.36	7621.2	
684.54	6670.2	
684.73	4918.5	
684.91	5020.9	
685.1	6819.7	
685.28	6305	
685.46	5360.9	
685.65	5477.6	
685.83	6905.1	
686.02	6470.9	
686.2	4947.2	
686.39	5039.4	
686.57	6053.1	
686.76	7245.7	
686.94	4956.1	
687.13	5089.2	
687.31	6741.2	
687.5	6483.2	
687.68	4640	
687.86	5542.5	
688.05	7726.3	
688.23	6073.6	
688.42	5575.9	
688.6	5020.9	
688.79	6369.2	
688.97	6367.8	
689.16	5337	
689.34	4550.6	
689.52	6875	
689.71	7133.1	
689.89	5522	
690.08	5072.8	
690.26	6597.9	
690.45	6475.7	
690.63	5754.1	
690.81	5197.7	
691	6490.7	
691.18	6357.6	
691.37	5297.4	
691.55	6915.3	
691.74	6404.7	
691.92	7798.7	
692.1	5255.8	
692.29	4850.3	
692.47	6483.9	
692.66	6002.6	
692.84	4951.3	
693.02	5352	
693.21	6009.4	
693.39	6526.2	
693.58	5548.6	
693.76	5026.4	
693.94	7359	
694.13	7131	
694.31	5088.5	
694.5	5817.6	
694.68	6308.4	
694.86	6642.2	
695.05	5313.8	
695.23	5349.3	
695.42	6836.1	
695.6	8495	
695.78	5786.9	
695.97	5051.7	
696.15	6963.8	
696.34	6481.8	
696.52	4941.7	
696.7	5497.4	
696.89	6739.2	
697.07	6274.3	
697.25	5556.8	
697.44	6539.2	
697.62	6705	
697.81	6886.6	
697.99	5296.7	
698.17	5636.7	
698.36	6240.8	
698.54	6636.8	
698.72	5527.5	
698.91	4730.1	
699.09	6396.5	
699.28	6244.9	
699.46	5272.8	
699.64	5099.4	
699.83	6220.4	
700.01	7081.2	
700.19	5731.6	
700.38	4478.2	
700.56	7039.6	
700.74	6306.4	
700.93	4739	
701.11	5483.1	
701.29	6686.6	
701.48	7417.1	
701.66	4980.7	
701.84	5043.5	
702.03	6394.4	
702.21	6873	
702.39	4689.8	
702.58	5117.2	
702.76	6735.1	
702.94	6766.5	
703.13	4715.8	
703.31	6455.2	
703.49	6189.6	
703.68	7283.3	
703.86	4775.2	
704.04	5570.5	
704.23	6516.6	
704.41	6803.4	
704.59	4967.7	
704.78	5773.2	
704.96	7822.6	
705.14	6796.5	
705.33	4831.8	
705.51	5365.7	
705.69	6312.5	
705.87	7011.6	
706.06	5468.8	
706.24	4681	
706.42	6575.3	
706.61	6845.7	
706.79	5591	
706.97	4743.1	
707.16	6143.9	
707.34	6657.3	
707.52	5472.9	
707.7	4878.9	
707.89	6198.5	
708.07	6087.2	
708.25	5467.4	
708.44	5540.4	
708.62	6173.9	
708.8	7044.3	
708.98	5675.6	
709.17	4998.4	
709.35	6505	
709.53	6463.4	
709.72	4613.4	
709.9	4982	
710.08	6744.6	
710.26	6718.7	
710.45	5810.1	
710.63	4992.3	
710.81	6375.3	
710.99	6443.6	
711.18	5415.5	
711.36	5003.9	
711.54	6291.4	
711.72	6827.9	
711.91	5013.4	
712.09	4718.5	
712.27	6398.5	
712.45	6855.2	
712.64	5280.3	
712.82	4482.3	
713	5995.8	
713.18	6126.2	
713.37	4609.3	
713.55	5474.2	
713.73	6837.5	
713.91	5745.9	
714.1	4888.5	
714.28	4479.6	
714.46	6453.1	
714.64	5865.4	
714.83	4010.6	
715.01	4561.5	
715.19	5966.4	
715.37	5344.5	
715.55	4339.6	
715.74	4503.5	
715.92	6534.4	
716.1	4997.7	
716.28	5373.9	
716.47	4688.5	
716.65	5649.7	
716.83	5598.5	
717.01	4534.2	
717.19	4535.6	
717.38	7109.2	
717.56	5366.4	
717.74	4691.2	
717.92	4041.3	
718.1	6277.7	
718.29	5670.1	
718.47	3730.7	
718.65	4263.2	
718.83	6177.4	
719.01	6123.4	
719.2	3653.6	
719.38	4566.3	
719.56	5834	
719.74	7118.1	
719.92	4214.7	
720.11	5054.4	
720.29	5971.9	
720.47	5299.5	
720.65	3918.4	
720.83	4583.4	
721.02	5612.1	
721.2	5390.3	
721.38	4536.9	
721.56	4018.1	
721.74	5020.3	
721.92	5045.5	
722.11	4874.2	
722.29	4721.3	
722.47	6070.9	
722.65	5416.9	
722.83	3999.7	
723.01	4670.1	
723.2	5489.9	
723.38	5726.8	
723.56	3564.8	
723.74	4409.3	
723.92	5089.9	
724.1	5984.8	
724.29	3951.2	
724.47	4790.9	
724.65	5268.7	
724.83	5047.6	
725.01	3834.5	
725.19	4446.8	
725.37	5100.8	
725.56	5101.5	
725.74	3791.5	
725.92	3922.5	
726.1	5056.4	
726.28	5360.2	
726.46	4186	
726.64	3899.3	
726.83	5249.6	
727.01	5438.7	
727.19	3724.6	
727.37	4332.8	
727.55	5451.7	
727.73	5777.3	
727.91	3682.2	
728.09	3529.3	
728.28	5824.4	
728.46	5972.6	
728.64	4379.9	
728.82	4280.3	
729	6602	
729.18	6024.4	
729.36	3661.8	
729.54	5429.8	
729.72	6746	
729.91	5438.7	
730.09	5145.9	
730.27	4170.3	
730.45	5421.7	
730.63	5823.7	
730.81	4663.2	
730.99	4011.3	
731.17	6278.4	
731.35	5159.5	
731.53	4354	
731.71	4052.9	
731.9	6026.5	
732.08	6086.6	
732.26	4246.8	
732.44	4032.5	
732.62	6142.5	
732.8	5862	
732.98	4560.8	
733.16	3812.6	
733.34	5789.6	
733.52	4801.8	
733.7	4193.6	
733.88	4397	
734.07	5655.1	
734.25	5480.4	
734.43	3792.2	
734.61	4888.5	
734.79	6543.3	
734.97	5388.2	
735.15	3934.1	
735.33	4154.6	
735.51	5702.2	
735.69	5403.2	
735.87	4922.6	
736.05	4289.8	
736.23	5506.3	
736.41	5258.5	
736.59	4168.3	
736.77	4281.6	
736.95	5808	
737.13	5376.6	
737.32	3919.8	
737.5	4018.1	
737.68	6320	
737.86	5373.2	
738.04	3714.3	
738.22	5059.8	
738.4	5205.3	
738.58	5473.5	
738.76	4251.6	
738.94	3450.1	
739.12	5238.7	
739.3	5183.4	
739.48	4660.5	
739.66	4426.3	
739.84	5455.8	
740.02	5476.3	
740.2	3496.6	
740.38	3760.8	
740.56	5703.6	
740.74	4863.9	
740.92	4293.9	
741.1	4160.8	
741.28	5345.9	
741.46	5084.4	
741.64	3937.6	
741.82	4360.1	
742	5315.2	
742.18	5259.9	
742.36	4053.6	
742.54	3749.8	
742.72	5756.2	
742.9	4768.4	
743.08	4250.9	
743.26	3407.1	
743.44	5825.8	
743.62	5739.8	
743.8	4455.7	
743.98	3721.2	
744.16	5533.6	
744.34	5310.4	
744.52	4357.4	
744.7	4344.4	
744.88	5672.9	
745.06	5258.5	
745.24	4403.1	
745.42	4511.7	
745.6	5780.7	
745.78	5554.8	
745.96	3592.1	
746.14	3739.6	
746.32	6266.8	
746.5	5662.6	
746.68	4175.1	
746.86	3734.8	
747.03	6004.6	
747.21	4788.8	
747.39	4189.5	
747.57	3760.8	
747.75	5374.6	
747.93	5638.1	
748.11	3762.1	
748.29	3680.2	
748.47	6608.8	
748.65	5190.2	
748.83	4295.3	
749.01	4093.2	
749.19	5630.5	
749.37	4884.4	
749.55	4038.6	
749.73	4029.7	
749.91	5369.8	
750.09	5096	
750.26	4081.6	
750.44	3608.5	
750.62	5356.1	
750.8	5249.6	
750.98	3565.5	
751.16	3743.7	
751.34	5397.1	
751.52	4816.8	
751.7	4393.6	
751.88	3525.9	
752.06	5717.2	
752.24	5491.3	
752.42	3442	
752.59	3718.4	
752.77	5262.6	
752.95	6205.3	
753.13	4313.7	
753.31	3813.3	
753.49	4984.1	
753.67	5350.7	
753.85	4072	
754.03	3657	
754.21	5581.4	
754.38	5832.6	
754.56	3811.3	
754.74	3252.2	
754.92	4978.6	
755.1	5486.5	
755.28	3197.6	
755.46	3276.1	
755.64	6153.5	
755.82	6237.4	
755.99	3506.8	
756.17	3545	
756.35	4412	
756.53	5573.2	
756.71	2740.2	
756.89	3420.1	
757.07	5196.4	
757.25	4526.7	
757.42	3806.5	
757.6	4453	
757.78	5345.2	
757.96	4490.5	
758.14	3646.1	
758.32	3239.9	
758.5	4229.7	
758.67	4863.9	
758.85	3431	
759.03	3497.9	
759.21	5012.7	
759.39	4498.7	
759.57	3095.8	
759.75	3979.9	
759.92	5444.9	
760.1	4947.2	
760.28	4240.7	
760.46	4488.5	
760.64	4726	
760.82	4568.3	
760.99	4109.6	
761.17	3508.2	
761.35	5363.6	
761.53	4550.6	
761.71	3536.2	
761.89	4141	
762.06	5180.7	
762.24	4829.8	
762.42	3654.3	
762.6	3519.8	
762.78	4777.9	
762.96	4934.9	
763.13	3937.6	
763.31	3630.4	
763.49	5438	
763.67	4812	
763.85	4345.1	
764.02	4673.5	
764.2	5661.3	
764.38	4929.5	
764.56	3579.8	
764.74	4255	
764.91	5692.7	
765.09	4898.7	
765.27	3353.9	
765.45	3212.6	
765.63	5795.8	
765.8	5631.2	
765.98	3029.6	
766.16	3274	
766.34	4597	
766.52	4384	
766.69	3960.1	
766.87	3135.4	
767.05	4925.4	
767.23	5434.6	
767.41	3340.2	
767.58	3591.5	
767.76	5311.7	
767.94	5408	
768.12	3405.1	
768.29	3956.7	
768.47	4922	
768.65	5469.4	
768.83	3160.7	
769	3992.2	
769.18	4642.1	
769.36	5113.1	
769.54	4024.3	
769.72	3192.8	
769.89	5407.3	
770.07	5383.4	
770.25	3549.1	
770.43	4401.8	
770.6	5962.3	
770.78	6154.8	
770.96	3574.4	
771.14	4047.5	
771.31	5268.1	
771.49	4829.1	
771.67	2970.2	
771.85	3095.8	
772.02	4285	
772.2	4794.3	
772.38	3736.9	
772.55	3304.7	
772.73	5033.2	
772.91	4853.7	
773.09	3624.9	
773.26	3729.4	
773.44	5067.4	
773.62	4835.9	
773.8	3239.2	
773.97	3058.3	
774.15	5011.4	
774.33	4799.1	
774.5	3171.6	
774.68	3425.6	
774.86	5155.4	
775.04	4762.9	
775.21	3262.4	
775.39	3219.4	
775.57	4977.2	
775.74	5232.6	
775.92	3174.4	
776.1	3061.7	
776.27	4968.4	
776.45	5839.4	
776.63	3266.5	
776.81	2950.4	
776.98	4720.6	
777.16	5425.1	
777.34	3351.2	
777.51	3566.2	
777.69	4721.9	
777.87	4554	
778.04	3476.8	
778.22	3834.5	
778.4	4554	
778.57	5072.8	
778.75	2910.8	
778.93	3049.4	
779.1	4440.7	
779.28	4274.8	
779.46	2895.1	
779.64	3242.6	
779.81	5198.4	
779.99	5803.9	
780.17	3795.6	
780.34	3872	
780.52	4772.4	
780.69	4885.1	
780.87	3498.6	
781.05	3128.6	
781.22	4861.2	
781.4	4883.7	
781.58	3263.8	
781.75	2637.8	
781.93	4900.8	
782.11	4339	
782.28	4012.7	
782.46	3274	
782.64	4251.6	
782.81	5016.8	
782.99	3402.4	
783.17	3291.1	
783.34	4878.3	
783.52	4361.5	
783.69	3416	
783.87	4044.7	
784.05	4453.6	
784.22	4377.9	
784.4	4108.9	
784.58	3550.5	
784.75	5109.7	
784.93	4468	
785.1	3276.1	
785.28	3733.4	
785.46	4952	
785.63	4400.4	
785.81	3245.3	
785.99	3090.4	
786.16	4561.5	
786.34	4866	
786.51	3180.5	
786.69	3535.5	
786.87	4205.2	
787.04	4585.4	
787.22	3048.1	
787.39	3797.6	
787.57	4437.9	
787.75	5246.9	
787.92	3960.1	
788.1	3862.5	
788.27	4398.4	
788.45	4212.7	
788.63	3628.3	
788.8	2704	
788.98	4709.6	
789.15	4140.3	
789.33	2876.7	
789.5	3240.6	
789.68	5068.7	
789.86	5201.8	
790.03	3595.6	
790.21	3179.8	
790.38	5206.6	
790.56	4567	
790.73	3071.3	
790.91	3157.3	
791.09	4429.8	
791.26	4958.1	
791.44	3317	
791.61	2825.5	
791.79	4446.1	
791.96	4438.6	
792.14	2970.9	
792.32	2671.2	
792.49	4428.4	
792.67	4468.7	
792.84	3003.7	
793.02	2811.9	
793.19	4795	
793.37	5279.7	
793.54	2674.6	
793.72	2903.3	
793.89	5354.8	
794.07	4438.6	
794.25	3294.5	
794.42	2753.8	
794.6	5218.9	
794.77	4883	
794.95	3547.8	
795.12	3145	
795.3	4432.5	
795.47	4858.5	
795.65	3409.9	
795.82	3355.9	
796	4299.4	
796.17	5696.1	
796.35	3225.6	
796.52	3808.5	
796.7	4831.2	
796.87	4906.3	
797.05	3209.2	
797.22	3818.1	
797.4	4915.8	
797.57	5608	
797.75	3330	
797.92	3147	
798.1	5193	
798.27	4352.6	
798.45	2755.2	
798.62	2949.1	
798.8	4675.5	
798.97	5022.3	
799.15	3485	
799.32	3362.1	
799.5	4123.9	
799.67	4635.2	
799.85	3571	
800.02	2693.1	
800.2	4425	
800.37	4597.7	
800.55	3695.2	
800.72	3140.2	
800.9	5010	
801.07	5330.9	
801.25	4101.4	
801.42	3420.8	
801.6	5081	
801.77	4678.9	
801.95	3258.3	
802.12	3077.4	
802.29	4864.6	
802.47	4714.4	
802.64	3467.9	
802.82	2678.1	
802.99	4405.9	
803.17	5077.6	
803.34	3399.6	
803.52	3047.4	
803.69	5672.9	
803.87	4138.3	
804.04	3324.5	
804.21	3382.6	
804.39	5268.7	
804.56	4539.7	
804.74	2846	
804.91	3441.3	
805.09	4419.5	
805.26	4464.6	
805.44	2945.7	
805.61	3196.2	
805.78	4964.3	
805.96	4881	
806.13	3446	
806.31	3661.8	
806.48	4085	
806.66	4455	
806.83	3414.6	
807	3332	
807.18	4419.5	
807.35	4693.3	
807.53	3302.7	
807.7	2798.9	
807.87	5319.3	
808.05	4464.6	
808.22	3610.6	
808.4	2762.7	
808.57	4345.8	
808.74	4173.1	
808.92	3057.6	
809.09	3891.8	
809.27	4394.9	
809.44	4795.7	
809.61	2744.3	
809.79	3068.5	
809.96	5393.7	
810.14	4964.3	
810.31	2747	
810.48	3349.1	
810.66	4503.5	
810.83	5035.3	
811.01	3071.3	
811.18	3379.1	
811.35	5015.5	
811.53	4005.8	
811.7	3684.3	
811.87	3480.2	
812.05	4511	
812.22	4421.6	
812.39	3032.4	
812.57	2961.4	
812.74	4483.7	
812.92	5683.1	
813.09	3268.6	
813.26	3450.1	
813.44	5472.2	
813.61	4364.2	
813.78	2775	
813.96	3625.6	
814.13	4500.8	
814.3	4248.2	
814.48	3823.6	
814.65	3246	
814.82	5351.3	
815	4177.2	
815.17	3355.3	
815.34	3923.2	
815.52	4331.5	
815.69	4416.1	
815.87	3269.9	
816.04	3186	
816.21	4426.3	
816.38	4034.5	
816.56	3183.9	
816.73	3027.6	
816.9	5451.7	
817.08	5029.8	
817.25	3035.8	
817.42	3713.7	
817.6	4141.7	
817.77	4464.6	
817.94	3368.9	
818.12	3005.7	
818.29	4276.2	
818.46	6206	
818.64	3175.7	
818.81	2987.3	
818.98	4299.4	
819.16	5831.2	
819.33	3568.2	
819.5	3308.8	
819.67	4727.4	
819.85	5221	
820.02	3269.9	
820.19	3472.7	
820.37	4638	
820.54	4358.1	
820.71	3342.3	
820.88	4074.8	
821.06	4639.3	
821.23	4303.5	
821.4	3371	
821.58	3350.5	
821.75	4935.6	
821.92	4582	
822.09	2808.4	
822.27	2971.6	
822.44	4420.2	
822.61	4366.3	
822.79	2822.1	
822.96	5039.4	
823.13	4722.6	
823.3	4207.2	
823.48	3130	
823.65	2856.9	
823.82	5035.3	
823.99	4149.9	
824.17	3891.8	
824.34	2925.2	
824.51	5689.9	
824.68	4530.8	
824.86	3059	
825.03	3403	
825.2	4483.7	
825.37	5221	
825.55	3031.7	
825.72	3286.3	
825.89	5651	
826.06	5365.7	
826.24	3263.1	
826.41	3265.8	
826.58	5330.9	
826.75	4676.9	
826.92	2624.8	
827.1	2891.7	
827.27	6961.7	
827.44	5573.2	
827.61	3106.8	
827.79	3652.9	
827.96	4347.2	
828.13	4433.9	
828.3	3261.7	
828.47	2718.3	
828.65	4722.6	
828.82	4601.1	
828.99	4035.2	
829.16	3536.2	
829.34	4990.2	
829.51	4775.2	
829.68	3291.1	
829.85	3377.1	
830.02	5291.3	
830.2	5005.2	
830.37	2599.6	
830.54	3890.5	
830.71	5564.3	
830.88	4526.7	
831.05	2650.1	
831.23	2973.7	
831.4	5377.3	
831.57	5793	
831.74	3114.3	
831.91	2719.7	
832.09	4790.9	
832.26	4984.8	
832.43	3142.3	
832.6	3547.1	
832.77	4721.9	
832.94	5272.8	
833.12	2590.7	
833.29	3119.1	
833.46	4810	
833.63	6092.7	
833.8	3392.1	
833.97	3179.1	
834.15	5038.7	
834.32	4857.1	
834.49	3297.2	
834.66	3305.4	
834.83	5056.4	
835	4339.6	
835.17	3060.3	
835.35	3089.7	
835.52	4922.6	
835.69	4827.1	
835.86	3206.4	
836.03	2671.9	
836.2	4975.9	
836.37	4655.7	
836.55	3157.3	
836.72	2973	
836.89	4635.2	
837.06	5061.9	
837.23	3200.3	
837.4	3491.1	
837.57	5575.3	
837.75	6079.7	
837.92	2876.7	
838.09	3130.7	
838.26	4568.3	
838.43	5138.4	
838.6	3256.3	
838.77	2974.3	
838.94	5758.2	
839.11	5615.5	
839.29	3166.2	
839.46	2544.3	
839.63	4994.3	
839.8	4687.8	
839.97	3059.7	
840.14	3086.3	
840.31	4864.6	
840.48	5018.9	
840.65	2577	
840.82	3008.5	
841	4947.2	
841.17	4881.7	
841.34	2863.1	
841.51	2967.5	
841.68	4902.8	
841.85	4713.1	
842.02	2958.6	
842.19	2505.3	
842.36	4780	
842.53	4740.4	
842.7	2839.2	
842.87	3425.6	
843.05	5944.6	
843.22	4618.2	
843.39	2706	
843.56	2952.5	
843.73	4597	
843.9	5063.3	
844.07	4440.7	
844.24	3742.3	
844.41	6754.2	
844.58	4399.7	
844.75	2802.3	
844.92	2992.8	
845.09	4920.6	
845.26	4933.6	
845.43	2856.2	
845.6	3019.4	
845.77	4992.3	
845.94	4752	
846.12	3136.1	
846.29	3265.8	
846.46	5165.7	
846.63	4922	
846.8	2861.7	
846.97	3311.6	
847.14	5298.1	
847.31	4891.2	
847.48	3169.6	
847.65	3473.4	
847.82	5146.5	
847.99	5114.5	
848.16	3691.1	
848.33	3467.2	
848.5	4580.6	
848.67	5300.8	
848.84	2760	
849.01	2944.3	
849.18	4526	
849.35	4269.3	
849.52	3510.9	
849.69	2843.3	
849.86	5117.9	
850.03	5231.9	
850.2	2885.6	
850.37	3447.4	
850.54	5165	
850.71	4664.6	
850.88	3389.4	
851.05	2807.8	
851.22	4857.8	
851.39	5322	
851.56	2665.1	
851.73	3232.4	
851.9	4463.2	
852.07	5141.1	
852.24	3141.6	
852.41	2760.7	
852.58	4881.7	
852.75	4483	
852.92	3158.7	
853.09	2777.7	
853.26	4589.5	
853.43	5209.3	
853.6	2852.8	
853.77	2458.2	
853.94	5330.2	
854.11	4382	
854.28	4050.2	
854.44	3032.4	
854.61	5645.6	
854.78	5139.7	
854.95	2843.3	
855.12	3483.6	
855.29	4098.7	
855.46	5485.1	
855.63	2874	
855.8	3826.3	
855.97	4512.4	
856.14	5195.7	
856.31	3931.4	
856.48	3075.4	
856.65	4650.3	
856.82	4386.7	
856.99	2753.8	
857.16	3092.4	
857.33	5831.2	
857.49	4688.5	
857.66	3047.4	
857.83	3237.2	
858	4719.9	
858.17	4866	
858.34	2712.9	
858.51	2889	
858.68	5406	
858.85	5406.6	
859.02	3278.8	
859.19	3421.5	
859.36	4409.3	
859.52	4414.7	
859.69	2794.1	
859.86	3283.6	
860.03	4458.4	
860.2	5385.5	
860.37	2635.7	
860.54	2878.8	
860.71	5092.6	
860.88	5407.3	
861.05	3151.8	
861.21	3545.7	
861.38	5365	
861.55	4278.9	
861.72	2618.7	
861.89	3170.9	
862.06	5147.9	
862.23	5508.4	
862.4	2768.2	
862.56	2897.2	
862.73	4990.9	
862.9	4732.9	
863.07	3306.8	
863.24	2619.4	
863.41	4370.4	
863.58	4444.8	
863.75	2914.3	
863.91	3282.2	
864.08	5303.6	
864.25	5092.6	
864.42	3512.3	
864.59	3903.4	
864.76	5646.9	
864.93	4388.8	
865.09	2747	
865.26	3055.6	
865.43	5251.7	
865.6	5594.4	
865.77	2529.2	
865.94	2771.6	
866.1	5274.9	
866.27	5048.2	
866.44	4118.5	
866.61	2729.9	
866.78	4699.4	
866.95	5013.4	
867.11	2779.8	
867.28	2576.3	
867.45	5228.5	
867.62	4414.1	
867.79	3261	
867.96	2832.3	
868.12	4406.5	
868.29	5117.2	
868.46	2823.5	
868.63	3705.5	
868.8	5227.1	
868.97	5034.6	
869.13	2994.8	
869.3	3000.3	
869.47	4978.6	
869.64	5202.5	
869.81	2835.1	
869.97	2880.8	
870.14	4902.2	
870.31	5430.5	
870.48	2806.4	
870.65	3527.3	
870.81	4705.5	
870.98	4696	
871.15	3140.9	
871.32	2991.4	
871.48	4965	
871.65	5474.9	
871.82	2764.1	
871.99	3095.8	
872.16	5728.2	
872.32	5307.7	
872.49	2898.6	
872.66	2929.3	
872.83	5131.5	
872.99	4577.9	
873.16	3256.3	
873.33	2797.5	
873.5	4842.8	
873.67	4839.4	
873.83	3005.1	
874	3728	
874.17	4925.4	
874.34	5599.1	
874.5	3601.7	
874.67	3434.4	
874.84	5433.3	
875.01	4306.9	
875.17	3880.9	
875.34	2828.9	
875.51	4825.7	
875.68	5754.1	
875.84	3418.7	
876.01	4018.8	
876.18	5091.3	
876.34	5008.6	
876.51	2797.5	
876.68	2790	
876.85	4700.1	
877.01	5334.3	
877.18	3966.2	
877.35	2838.5	
877.52	4868.7	
877.68	4448.2	
877.85	2779.8	
878.02	2785.9	
878.18	4676.9	
878.35	4536.9	
878.52	2319.7	
878.69	3110.9	
878.85	5129.5	
879.02	4994.3	
879.19	3889.8	
879.35	3076	
879.52	5127.4	
879.69	5161.6	
879.86	2501.3	
880.02	3159.3	
880.19	4820.9	
880.36	5662	
880.52	3176.4	
880.69	3355.9	
880.86	5141.8	
881.02	5163.6	
881.19	3082.2	
881.36	3048.7	
881.52	5074.9	
881.69	4517.1	
881.86	3057.6	
882.02	2978.4	
882.19	5266	
882.36	5980.8	
882.52	2946.3	
882.69	3898.6	
882.86	4920.6	
883.02	4844.1	
883.19	3405.8	
883.36	3207.1	
883.52	5145.9	
883.69	5784.1	
883.86	2866.5	
884.02	2624.1	
884.19	5125.4	
884.36	4823	
884.52	3231	
884.69	3056.9	
884.86	4568.3	
885.02	5554.8	
885.19	3119.7	
885.36	3248.1	
885.52	4739	
885.69	4888.5	
885.86	4020.2	
886.02	3541.6	
886.19	5086.5	
886.35	4620.2	
886.52	3075.4	
886.69	3863.8	
886.85	4448.9	
887.02	5322.7	
887.19	5322.7	
887.35	5322.7	
887.52	5322.7	
887.68	5322.7	
887.85	5322.7	
888.02	5322.7	
888.18	5322.7	
888.35	5322.7	
888.51	5322.7	
888.68	5322.7	
888.85	5322.7	
889.01	5322.7	
889.18	5322.7	
889.35	5322.7	
889.51	5322.7	
889.68	5322.7	
889.84	5322.7	
890.01	5322.7	
890.17	5322.7	
890.34	5322.7	
890.51	5322.7	
890.67	5322.7	
890.84	5322.7	
891	5322.7	
891.17	5322.7	
891.34	5322.7	
891.5	5322.7	
891.67	5322.7	
891.83	5322.7	
892	5322.7	
892.16	5322.7	
892.33	5322.7	
892.5	5322.7	
892.66	5322.7	
892.83	5322.7	
892.99	5322.7	
893.16	5322.7	
893.32	5322.7	
893.49	5322.7	
893.65	5322.7	
893.82	5322.7	
893.99	5322.7	
894.15	5322.7	
894.32	5322.7	
894.48	5322.7	
894.65	5322.7	
894.81	5322.7	
894.98	5322.7	
895.14	5322.7	
895.31	5322.7	
895.47	5322.7	
895.64	5322.7	
895.81	5322.7	
895.97	5322.7	
896.14	5322.7	
896.3	5322.7	
896.47	5322.7	
896.63	5322.7	
896.8	5322.7	
896.96	5322.7	
897.13	5322.7	
897.29	5322.7	
897.46	5322.7	
897.62	5322.7	
897.79	5322.7	
897.95	5322.7	
898.12	5322.7	
898.28	5322.7	
898.45	5322.7	
898.61	5322.7	
898.78	5322.7	
898.94	5322.7	
899.11	5322.7	
899.27	5322.7	
899.44	5322.7	
899.6	5322.7	
899.77	5322.7	
899.93	5322.7	
900.1	5322.7	
900.26	5322.7	
900.43	5322.7	
900.59	5322.7	
900.76	5322.7	
900.92	5322.7	
901.09	5322.7	
901.25	5322.7	
901.42	5322.7	
901.58	5322.7	
901.75	5322.7	
901.91	5322.7	
902.07	5322.7	
902.24	5322.7	
902.4	5322.7	
902.57	5322.7	
902.73	5322.7	
902.9	5322.7	
903.06	5322.7	
903.23	5322.7	
903.39	5322.7	
903.56	5322.7	
903.72	5322.7	
903.88	5322.7	
904.05	5322.7	
904.21	5322.7	
904.38	5322.7	
904.54	5322.7	
904.71	5322.7	
904.87	5322.7	
905.03	5322.7	
905.2	5322.7	
905.36	5322.7	
905.53	5322.7	
905.69	5322.7	
905.86	5322.7	
906.02	5322.7	
906.18	5322.7	
906.35	5322.7	
906.51	5322.7	
906.68	5322.7	
906.84	5322.7	
907.01	5322.7	
907.17	5322.7	
907.33	5322.7	
907.5	5322.7	
907.66	5322.7	
907.83	5322.7	
907.99	5322.7	
908.15	5322.7	
908.32	5322.7	
908.48	5322.7	
908.65	5322.7	
908.81	5322.7	
908.97	5322.7	
909.14	5322.7	
909.3	5322.7	
909.47	5322.7	
909.63	5322.7	
909.79	5322.7	
909.96	5322.7	
910.12	5322.7	
910.28	5322.7	
910.45	5322.7	
910.61	5322.7	
910.78	5322.7	
910.94	5322.7	
911.1	5322.7	
911.27	5322.7	
911.43	5322.7	
911.59	5322.7	
911.76	5322.7	
911.92	5322.7	
912.08	5322.7	
912.25	5322.7	
912.41	5322.7	
912.57	5322.7	
912.74	5322.7	
912.9	5322.7	
913.07	5322.7	
913.23	5322.7	
913.39	5322.7	
913.56	5322.7	
913.72	5322.7	
913.88	5322.7	
914.05	5322.7	
914.21	5322.7	
914.37	5322.7	
914.54	5322.7	
914.7	5322.7	
914.86	5322.7	
915.03	5322.7	
915.19	5322.7	
