Wavelength	Intensities	
nm	a.u.	
179.22	1881.7	
179.44	1879.4	
179.65	1884.1	
179.86	1874.6	
180.08	1914.9	
180.29	4919.9	
180.51	3443.3	
180.72	5601.2	
180.94	6561	
181.15	3226.9	
181.37	3127.9	
181.58	5457.2	
181.79	5751.4	
182.01	3366.2	
182.22	3609.2	
182.44	5784.1	
182.65	4805.9	
182.87	4513.7	
183.08	3941	
183.29	6029.2	
183.51	4941.7	
183.72	3629.7	
183.94	5328.8	
184.15	5370.5	
184.37	5376.6	
184.58	3158.7	
184.79	4380.6	
185.01	4928.8	
185.22	5711.1	
185.44	4635.2	
185.65	3904.1	
185.86	5285.8	
186.08	4855.7	
186.29	3108.1	
186.51	3325.9	
186.72	5046.2	
186.94	5927.5	
187.15	3887.7	
187.36	4002.4	
187.58	7742.7	
187.79	5468.8	
188.01	4247.5	
188.22	6559.6	
188.43	6593.1	
188.65	5693.4	
188.86	3350.5	
189.08	4069.3	
189.29	5231.9	
189.5	5205.3	
189.72	3715.7	
189.93	3790.1	
190.15	5930.2	
190.36	7060.7	
190.57	4036.5	
190.79	3966.2	
191	6061.3	
191.22	5980.1	
191.43	4078.9	
191.64	3342.3	
191.86	6275.7	
192.07	5973.9	
192.29	3511.6	
192.5	3689.1	
192.71	5907.7	
192.93	5092.6	
193.14	3702	
193.35	3767.6	
193.57	5158.2	
193.78	5940.5	
194	3006.4	
194.21	3637.2	
194.42	4956.8	
194.64	5356.8	
194.85	4002.4	
195.07	4719.2	
195.28	5452.4	
195.49	4652.3	
195.71	4986.1	
195.92	3466.5	
196.13	5543.9	
196.35	5671.5	
196.56	5268.1	
196.78	3987.4	
196.99	6982.9	
197.2	6592.4	
197.42	4496.7	
197.63	4028.4	
197.84	4853.7	
198.06	5491.3	
198.27	3671.3	
198.48	4863.2	
198.7	5128.8	
198.91	5280.3	
199.13	4029	
199.34	4047.5	
199.55	5777.3	
199.77	4644.1	
199.98	3509.5	
200.19	4070.7	
200.41	5173.2	
200.62	5071.5	
200.83	4171	
201.05	4493.2	
201.26	5287.9	
201.47	5039.4	
201.69	3632.4	
201.9	3430.3	
202.11	5365	
202.33	6391	
202.54	3779.9	
202.76	4243.4	
202.97	5522.7	
203.18	5495.4	
203.4	4254.3	
203.61	4128	
203.82	5481	
204.04	5030.5	
204.25	4078.9	
204.46	3984	
204.68	5433.9	
204.89	5633.3	
205.1	3934.8	
205.32	3389.4	
205.53	5762.3	
205.74	6004.6	
205.96	2906.8	
206.17	4149.2	
206.38	5791.7	
206.6	5977.3	
206.81	4666.6	
207.02	3796.9	
207.24	5638.1	
207.45	6056.5	
207.66	3842	
207.88	3267.9	
208.09	5579.3	
208.3	5388.2	
208.52	3545.7	
208.73	3965.6	
208.94	5371.1	
209.15	6094.1	
209.37	3835.2	
209.58	3962.1	
209.79	5954.1	
210.01	5239.4	
210.22	3087.7	
210.43	3199.6	
210.65	5407.3	
210.86	5752.7	
211.07	3881.6	
211.29	3517	
211.5	5732.3	
211.71	5349.3	
211.93	3457	
212.14	3502	
212.35	5385.5	
212.56	5573.2	
212.78	4121.9	
212.99	3338.9	
213.2	6386.9	
213.42	5183.4	
213.63	3673.4	
213.84	3962.1	
214.06	4807.3	
214.27	4830.5	
214.48	3838.6	
214.69	4095.3	
214.91	6105	
215.12	6161	
215.33	4161.5	
215.55	4551.3	
215.76	6590.4	
215.97	5769.1	
216.18	3958	
216.4	3871.3	
216.61	5049.6	
216.82	5902.9	
217.04	3601.7	
217.25	3696.6	
217.46	6070.2	
217.67	5776.6	
217.89	3136.1	
218.1	3297.9	
218.31	5442.8	
218.53	5612.1	
218.74	3737.5	
218.95	3605.8	
219.16	5365	
219.38	6339.8	
219.59	3682.9	
219.8	4336.9	
220.01	6967.9	
220.23	5436	
220.44	4750.6	
220.65	3511.6	
220.87	5440.8	
221.08	6023.1	
221.29	3302.7	
221.5	4413.4	
221.72	7410.2	
221.93	5055.1	
222.14	4157.4	
222.35	4786.1	
222.57	5387.5	
222.78	5787.6	
222.99	3836.5	
223.2	4205.2	
223.42	5712.5	
223.63	5828.5	
223.84	2955.9	
224.05	2949.1	
224.27	6915.3	
224.48	6271.6	
224.69	4716.5	
224.9	4083	
225.12	5606	
225.33	5366.4	
225.54	3209.8	
225.75	3580.5	
225.97	4980	
226.18	5227.8	
226.39	3883.6	
226.6	3598.3	
226.82	5158.8	
227.03	4983.4	
227.24	4081.6	
227.45	3333.4	
227.67	5758.9	
227.88	6385.6	
228.09	4554.7	
228.3	4551.3	
228.52	5855.8	
228.73	5418.9	
228.94	3725.3	
229.15	3349.1	
229.36	5335	
229.58	5265.3	
229.79	3748.5	
230	4450.2	
230.21	6423.1	
230.43	5483.8	
230.64	4087.1	
230.85	4204.5	
231.06	5864	
231.28	5841.5	
231.49	3254.2	
231.7	3975.8	
231.91	5733.6	
232.12	5496.7	
232.34	3437.9	
232.55	3934.8	
232.76	6022.4	
232.97	5617.6	
233.18	3547.8	
233.4	3952.6	
233.61	5623.7	
233.82	5155.4	
234.03	3709.6	
234.25	3648.1	
234.46	7555	
234.67	5457.8	
234.88	4118.5	
235.09	3554.6	
235.31	5687.9	
235.52	5239.4	
235.73	3999	
235.94	3445.4	
236.15	5112.4	
236.37	6636.8	
236.58	3553.9	
236.79	3887.7	
237	5742.5	
237.21	4919.2	
237.43	4232.5	
237.64	3281.5	
237.85	9794.1	
238.06	4952.7	
238.27	4196.3	
238.48	3375.7	
238.7	5720.7	
238.91	5254.4	
239.12	3852.9	
239.33	3922.5	
239.54	5025	
239.76	5303.6	
239.97	3775.8	
240.18	3829.7	
240.39	6837.5	
240.6	5642.8	
240.82	3992.9	
241.03	3283.6	
241.24	5374.6	
241.45	6234	
241.66	3558	
241.87	4188.8	
242.09	6098.9	
242.3	6552.8	
242.51	4166.9	
242.72	3899.3	
242.93	5876.3	
243.14	5288.5	
243.36	4439.3	
243.57	4873.5	
243.78	6254.5	
243.99	5747.3	
244.2	3932.1	
244.41	3534.8	
244.63	4984.1	
244.84	5659.2	
245.05	4183.3	
245.26	3878.9	
245.47	5634.6	
245.68	5948	
245.9	5210.7	
246.11	4066.6	
246.32	5208.7	
246.53	5628.5	
246.74	6290	
246.95	3244.7	
247.16	4897.4	
247.38	5437.4	
247.59	3218	
247.8	3889.1	
248.01	5085.8	
248.22	5353.4	
248.43	3510.2	
248.64	3809.9	
248.86	4775.9	
249.07	5162.9	
249.28	3442	
249.49	4011.3	
249.7	5898.8	
249.91	6027.2	
250.12	3168.9	
250.34	3220.1	
250.55	5534.3	
250.76	5367.7	
250.97	3989.4	
251.18	4078.2	
251.39	6106.4	
251.6	5606.7	
251.81	4061.1	
252.03	4116.4	
252.24	5113.8	
252.45	5956.9	
252.66	3346.4	
252.87	4308.2	
253.08	5446.9	
253.29	7118.1	
253.5	3463.8	
253.72	4777.2	
253.93	5251.7	
254.14	6390.3	
254.35	3685.7	
254.56	3814	
254.77	5644.2	
254.98	5050.3	
255.19	3625.6	
255.41	4722.6	
255.62	5558.2	
255.83	6086.6	
256.04	4148.5	
256.25	4067.9	
256.46	6705	
256.67	5076.9	
256.88	4048.8	
257.09	4451.6	
257.31	5097.4	
257.52	5119.2	
257.73	4967	
257.94	3708.9	
258.15	5244.8	
258.36	5397.1	
258.57	4697.4	
258.78	2934.1	
258.99	5866.7	
259.2	5246.2	
259.41	3695.9	
259.63	3786.7	
259.84	6237.4	
260.05	6718.7	
260.26	4877.6	
260.47	3579.8	
260.68	5954.8	
260.89	5331.5	
261.1	4478.9	
261.31	3542.3	
261.52	5941.2	
261.73	6439.5	
261.95	4818.2	
262.16	4209.9	
262.37	6096.8	
262.58	6223.8	
262.79	4816.8	
263	3757.3	
263.21	5382.1	
263.42	4934.2	
263.63	3826.3	
263.84	3743.7	
264.05	5951.4	
264.26	6355.5	
264.47	4621.6	
264.69	4164.2	
264.9	6126.8	
265.11	5637.4	
265.32	3562.8	
265.53	3668.6	
265.74	5557.5	
265.95	4788.2	
266.16	3963.5	
266.37	4386.1	
266.58	5516.5	
266.79	5180.7	
267	3647.4	
267.21	3408.5	
267.42	4982.7	
267.63	5353.4	
267.84	3827.7	
268.06	3326.6	
268.27	5840.8	
268.48	6130.3	
268.69	3779.9	
268.9	4426.3	
269.11	6109.1	
269.32	4875.5	
269.53	3915	
269.74	3595.6	
269.95	5742.5	
270.16	4758.8	
270.37	3898.6	
270.58	4526.7	
270.79	5214.1	
271	5933	
271.21	4188.8	
271.42	3890.5	
271.63	5526.1	
271.84	5047.6	
272.05	3091.1	
272.26	3500.7	
272.47	5457.8	
272.68	5611.4	
272.89	3725.9	
273.11	4365.6	
273.32	5217.5	
273.53	6290.7	
273.74	4173.1	
273.95	4102.8	
274.16	6043.6	
274.37	5485.1	
274.58	4270.7	
274.79	3389.4	
275	5557.5	
275.21	6107.7	
275.42	5167	
275.63	4383.3	
275.84	5612.8	
276.05	7113.3	
276.26	4059.1	
276.47	3825.6	
276.68	5276.9	
276.89	6417.7	
277.1	4410.6	
277.31	3472.7	
277.52	5651.7	
277.73	5814.2	
277.94	3325.9	
278.15	3743	
278.36	5597.1	
278.57	5066.7	
278.78	3720.5	
278.99	4258.4	
279.2	5076.2	
279.41	5005.2	
279.62	4902.2	
279.83	3441.3	
280.04	6597.2	
280.25	4995	
280.46	4878.9	
280.67	3878.9	
280.88	5042.1	
281.09	6072.2	
281.3	4034.5	
281.51	5182	
281.72	5919.3	
281.93	5925.5	
282.14	3620.1	
282.35	3866.6	
282.56	5921.4	
282.77	5859.2	
282.98	3753.9	
283.19	4627	
283.4	7266.9	
283.61	5299.5	
283.82	3459.7	
284.03	4846.2	
284.24	5520.6	
284.45	5992.4	
284.66	4896	
284.87	4682.3	
285.08	5969.1	
285.29	6123.4	
285.5	3266.5	
285.71	3773.7	
285.92	6050.4	
286.12	6679.1	
286.33	4793.6	
286.54	3785.3	
286.75	5919.3	
286.96	5242.8	
287.17	3481.5	
287.38	4713.7	
287.59	5082.4	
287.8	4997.7	
288.01	3803.1	
288.22	4348.5	
288.43	5977.3	
288.64	4927.4	
288.85	4483.7	
289.06	4310.3	
289.27	5844.9	
289.48	6318	
289.69	4829.8	
289.9	4360.8	
290.11	6048.3	
290.32	5162.2	
290.53	4538.3	
290.74	4195.6	
290.94	5859.2	
291.15	5879	
291.36	3692.5	
291.57	4368.3	
291.78	5177.9	
291.99	4876.9	
292.2	3473.4	
292.41	4250.9	
292.62	5982.1	
292.83	5722	
293.04	5266	
293.25	3489.1	
293.46	5208	
293.67	5933	
293.88	3598.3	
294.09	3480.9	
294.29	4962.9	
294.5	5555.5	
294.71	3935.5	
294.92	3768.3	
295.13	5193.6	
295.34	6479.1	
295.55	3275.4	
295.76	3349.1	
295.97	5852.4	
296.18	6609.5	
296.39	3424.2	
296.6	3637.9	
296.81	5511.1	
297.01	5862	
297.22	3794.9	
297.43	3648.8	
297.64	5038	
297.85	5057.8	
298.06	2999.6	
298.27	3272	
298.48	5429.2	
298.69	5144.5	
298.9	3956	
299.11	3555.3	
299.31	4958.1	
299.52	4927.4	
299.73	4212.7	
299.94	4123.2	
300.15	5383.4	
300.36	5062.6	
300.57	4136.9	
300.78	4118.5	
300.99	5315.8	
301.2	5517.9	
301.4	3556	
301.61	4074.1	
301.82	5705	
302.03	5867.4	
302.24	4422.9	
302.45	3445.4	
302.66	5699.5	
302.87	6142.5	
303.08	3659	
303.29	5020.9	
303.49	5214.8	
303.7	5446.9	
303.91	3244	
304.12	4745.8	
304.33	4937.7	
304.54	5558.9	
304.75	3691.1	
304.96	3456.3	
305.16	5738.4	
305.37	6475	
305.58	3161.4	
305.79	3353.2	
306	5724.8	
306.21	4818.9	
306.42	3662.5	
306.63	5541.8	
306.83	5308.3	
307.04	6079.1	
307.25	4011.3	
307.46	3962.8	
307.67	4626.4	
307.88	5870.8	
308.09	3562.8	
308.29	3730.7	
308.5	5474.2	
308.71	6065.4	
308.92	3870	
309.13	3503.4	
309.34	5252.4	
309.55	5332.2	
309.75	4541	
309.96	4125.3	
310.17	5828.5	
310.38	5083.7	
310.59	4416.8	
310.8	3451.5	
311.01	5308.3	
311.21	5296.7	
311.42	3497.9	
311.63	3624.2	
311.84	5115.1	
312.05	5552	
312.26	4078.2	
312.46	4460.5	
312.67	5252.4	
312.88	4937	
313.09	3549.8	
313.3	3408.5	
313.51	6176.7	
313.71	6554.2	
313.92	3519.1	
314.13	3704.8	
314.34	5621.7	
314.55	5319.9	
314.76	4557.4	
314.96	3911.6	
315.17	5481	
315.38	5845.6	
315.59	3531.4	
315.8	3372.3	
316.01	6310.5	
316.21	6334.4	
316.42	3416.7	
316.63	3908.2	
316.84	5331.5	
317.05	6087.2	
317.26	4099.4	
317.46	3697.3	
317.67	5364.3	
317.88	5795.1	
318.09	4489.8	
318.3	3291.8	
318.5	5158.8	
318.71	5691.3	
318.92	5757.5	
319.13	4100.7	
319.34	5907.7	
319.54	6077	
319.75	3303.4	
319.96	3116.3	
320.17	5779.4	
320.38	6023.8	
320.58	3219.4	
320.79	3878.2	
321	5961.6	
321.21	6111.8	
321.42	3929.4	
321.62	3208.5	
321.83	5053	
322.04	5419.6	
322.25	3705.5	
322.46	3571	
322.66	5552	
322.87	5686.5	
323.08	4365.6	
323.29	3491.1	
323.5	6498.2	
323.7	4964.3	
323.91	4796.3	
324.12	4331.5	
324.33	5485.8	
324.53	5850.4	
324.74	4203.1	
324.95	4426.3	
325.16	4811.4	
325.37	5254.4	
325.57	3588.7	
325.78	3549.8	
325.99	5511.1	
326.2	4936.3	
326.4	5034.6	
326.61	3263.8	
326.82	5328.8	
327.03	5528.8	
327.24	5063.9	
327.44	4718.5	
327.65	5705.6	
327.86	4560.8	
328.07	4143	
328.27	3461.7	
328.48	6120	
328.69	5012.7	
328.9	5158.2	
329.1	3772.4	
329.31	5294	
329.52	6273.6	
329.73	3546.4	
329.93	3977.8	
330.14	5446.2	
330.35	5616.2	
330.56	5874.9	
330.76	4372.4	
330.97	5239.4	
331.18	5631.9	
331.39	3915	
331.59	3198.9	
331.8	5999.2	
332.01	6160.3	
332.22	3620.8	
332.42	4207.2	
332.63	5556.8	
332.84	5126.7	
333.05	3985.3	
333.25	3667.9	
333.46	5193	
333.67	5461.9	
333.88	3728.7	
334.08	4121.9	
334.29	7335.8	
334.5	6075.6	
334.7	3401	
334.91	5055.1	
335.12	4996.4	
335.33	5870.8	
335.53	3930.1	
335.74	5836	
335.95	5211.4	
336.16	5048.9	
336.36	3932.8	
336.57	4511.7	
336.78	4907.6	
336.98	6004	
337.19	4808.6	
337.4	3872.7	
337.61	6589	
337.81	4975.9	
338.02	3647.4	
338.23	4657.1	
338.43	6222.4	
338.64	5062.6	
338.85	3474	
339.05	4707.6	
339.26	6257.9	
339.47	4824.3	
339.68	3530.7	
339.88	5292.6	
340.09	5651.7	
340.3	5862.7	
340.5	4130.8	
340.71	3158.7	
340.92	4875.5	
341.13	6133	
341.33	3449.5	
341.54	4215.4	
341.75	5644.2	
341.95	5317.2	
342.16	3977.2	
342.37	4305.5	
342.57	5004.6	
342.78	5362.9	
342.99	4354.7	
343.19	3183.2	
343.4	5806	
343.61	5636	
343.81	3749.1	
344.02	3446.7	
344.23	5864	
344.43	6309.8	
344.64	4382	
344.85	4276.2	
345.06	5638.1	
345.26	5978.7	
345.47	4090.5	
345.68	4808.6	
345.88	4755.4	
346.09	5931.6	
346.3	4161.5	
346.5	3170.3	
346.71	5393.7	
346.92	5111.7	
347.12	3229.6	
347.33	4084.3	
347.54	6008.1	
347.74	6454.5	
347.95	4065.2	
348.16	3008.5	
348.36	5240.1	
348.57	4947.9	
348.78	4001.7	
348.98	4363.5	
349.19	5347.2	
349.39	4881.7	
349.6	3216.7	
349.81	3593.5	
350.01	5698.1	
350.22	5109	
350.43	3895.9	
350.63	4735.6	
350.84	5489.2	
351.05	5238.7	
351.25	3562.8	
351.46	3205.8	
351.67	5937.7	
351.87	5087.8	
352.08	3813.3	
352.29	4350.6	
352.49	5900.2	
352.7	6055.2	
352.9	3474	
353.11	4323.3	
353.32	6520	
353.52	5205.9	
353.73	3462.4	
353.94	4405.9	
354.14	5702.9	
354.35	5545.2	
354.55	3537.5	
354.76	3984	
354.97	5720	
355.17	5470.1	
355.38	3334.1	
355.59	4691.9	
355.79	5094	
356	5537.7	
356.2	3915	
356.41	3422.8	
356.62	4864.6	
356.82	5302.9	
357.03	4227.7	
357.24	3751.9	
357.44	5092.6	
357.65	5244.8	
357.85	4986.8	
358.06	3962.1	
358.27	4838	
358.47	5076.9	
358.68	3259.7	
358.88	4183.3	
359.09	5705	
359.3	6087.9	
359.5	4857.8	
359.71	4329.4	
359.91	6524.8	
360.12	5854.5	
360.33	4165.6	
360.53	4654.4	
360.74	5141.8	
360.94	5184.8	
361.15	4339.6	
361.36	3575.1	
361.56	5890.6	
361.77	5382.7	
361.97	4867.3	
362.18	3850.9	
362.38	5941.8	
362.59	5024.3	
362.8	3538.2	
363	3403	
363.21	4811.4	
363.41	5520	
363.62	4085	
363.83	5107.6	
364.03	5545.9	
364.24	6536.4	
364.44	5159.5	
364.65	5203.9	
364.85	5379.3	
365.06	4990.9	
365.27	3756	
365.47	3775.8	
365.68	6358.9	
365.88	5296.7	
366.09	4135.5	
366.29	3831.7	
366.5	5624.4	
366.71	5993.7	
366.91	5150.6	
367.12	4358.8	
367.32	6653.9	
367.53	5824.4	
367.73	4194.9	
367.94	5276.3	
368.14	5862.7	
368.35	6704.4	
368.56	4214.7	
368.76	4061.8	
368.97	5934.3	
369.17	7684	
369.38	3760.8	
369.58	3994.2	
369.79	4943.8	
369.99	6257.9	
370.2	5074.2	
370.4	4082.3	
370.61	5595.1	
370.82	6767.9	
371.02	4018.1	
371.23	3419.4	
371.43	4945.2	
371.64	6243.6	
371.84	4093.2	
372.05	5352.7	
372.25	7580.2	
372.46	5963.7	
372.66	4095.3	
372.87	4039.3	
373.07	5947.3	
373.28	7634.8	
373.48	5078.3	
373.69	4792.9	
373.9	5506.3	
374.1	5597.8	
374.31	5089.9	
374.51	4553.3	
374.72	6371.2	
374.92	5208	
375.13	5216.2	
375.33	4459.8	
375.54	5975.3	
375.74	5465.3	
375.95	4472.8	
376.15	5668.1	
376.36	5986.9	
376.56	5816.2	
376.77	4577.9	
376.97	5006.6	
377.18	7027.9	
377.38	6125.5	
377.59	5340.4	
377.79	4010.6	
378	5844.9	
378.2	6353.5	
378.41	4136.9	
378.61	4012	
378.82	6340.5	
379.02	5467.4	
379.23	4321.9	
379.43	5346.6	
379.64	6419.7	
379.84	5958.9	
380.05	4101.4	
380.25	3970.3	
380.46	6173.9	
380.66	5720.7	
380.87	5459.2	
381.07	5793	
381.28	6763.8	
381.48	6133	
381.69	4117.8	
381.89	4184.7	
382.1	5121.3	
382.3	6331	
382.51	5231.2	
382.71	6065.4	
382.91	6118	
383.12	6657.9	
383.32	4412	
383.53	4654.4	
383.73	5987.6	
383.94	5756.2	
384.14	4525.3	
384.35	3717.7	
384.55	5674.2	
384.76	6108.4	
384.96	4439.3	
385.17	4790.2	
385.37	6227.2	
385.58	5355.4	
385.78	4827.1	
385.98	3654.9	
386.19	5606.7	
386.39	6034.7	
386.6	4180.6	
386.8	4422.2	
387.01	6081.1	
387.21	6173.9	
387.42	4938.3	
387.62	5551.4	
387.83	5464.7	
388.03	6109.1	
388.23	4506.2	
388.44	5338.4	
388.64	5162.9	
388.85	5275.6	
389.05	4934.2	
389.26	5509.7	
389.46	7189.7	
389.67	6526.9	
389.87	4917.9	
390.07	4995	
390.28	5764.3	
390.48	5401.2	
390.69	4121.2	
390.89	4435.2	
391.1	5581.4	
391.3	6549.4	
391.5	5592.3	
391.71	6267.5	
391.91	6226.5	
392.12	7264.1	
392.32	5717.2	
392.53	4870.8	
392.73	5610.1	
392.93	5770.5	
393.14	4543.1	
393.34	5352.7	
393.55	6246.3	
393.75	5726.1	
393.95	4611.3	
394.16	4493.2	
394.36	5572.5	
394.57	6277.7	
394.77	4102.1	
394.98	4541.7	
395.18	5614.8	
395.38	5655.1	
395.59	5453.1	
395.79	4403.8	
396	5692.7	
396.2	6240.8	
396.4	5255.8	
396.61	5201.8	
396.81	6428.6	
397.02	5669.5	
397.22	5414.8	
397.42	5500.2	
397.63	6386.2	
397.83	5627.1	
398.04	4336.2	
398.24	4902.2	
398.44	6161.7	
398.65	5302.2	
398.85	4237.2	
399.05	4369	
399.26	5613.5	
399.46	7384.3	
399.67	4768.4	
399.87	4512.4	
400.07	6056.5	
400.28	6410.1	
400.48	4589.5	
400.69	5646.2	
400.89	6672.3	
401.09	7069.6	
401.3	4510.3	
401.5	5629.2	
401.7	7305.8	
401.91	7494.9	
402.11	4764.9	
402.32	5020.3	
402.52	6557.6	
402.72	6402	
402.93	4988.9	
403.13	3932.8	
403.33	7130.3	
403.54	5907.7	
403.74	4820.9	
403.94	5715.2	
404.15	6129.6	
404.35	7317.4	
404.56	4663.9	
404.76	6589.7	
404.96	6670.2	
405.17	6380.8	
405.37	6088.6	
405.57	5165.7	
405.78	6583.5	
405.98	6029.9	
406.18	4642.7	
406.39	5616.2	
406.59	6496.8	
406.79	6127.5	
407	4494.6	
407.2	4659.1	
407.4	6666.8	
407.61	6904.4	
407.81	4699.4	
408.01	6375.3	
408.22	5807.4	
408.42	7790.5	
408.62	5905	
408.83	5434.6	
409.03	6427.9	
409.23	6232	
409.44	5482.4	
409.64	5806	
409.84	7448.5	
410.05	7323.5	
410.25	5634	
410.45	5434.6	
410.66	6850.5	
410.86	9310.1	
411.06	5922	
411.27	5794.4	
411.47	9070.5	
411.67	6969.2	
411.88	5987.6	
412.08	6244.9	
412.28	7582.3	
412.49	8170	
412.69	5758.2	
412.89	5804.6	
413.09	7946.8	
413.3	7824.6	
413.5	5895.4	
413.7	5505.6	
413.91	7077.8	
414.11	7907.2	
414.31	5723.4	
414.52	6249.7	
414.72	7598	
414.92	7581.6	
415.12	5776.6	
415.33	6301.6	
415.53	7907.9	
415.73	8115.4	
415.94	6569.9	
416.14	6072.9	
416.34	6972.7	
416.55	6723.5	
416.75	7240.9	
416.95	6661.4	
417.15	7954.3	
417.36	8656.8	
417.56	7497.6	
417.76	6610.8	
417.97	8344.8	
418.17	8066.9	
418.37	6078.4	
418.57	6114.6	
418.78	7744.7	
418.98	7428	
419.18	6969.9	
419.38	6881.2	
419.59	7393.8	
419.79	7033.4	
419.99	5991	
420.2	6488	
420.4	8005.5	
420.6	8206.9	
420.8	5978.7	
421.01	5795.1	
421.21	7853.3	
421.41	8015.7	
421.61	6305	
421.82	5967.1	
422.02	7288.7	
422.22	8263.6	
422.42	6879.8	
422.63	6372.6	
422.83	7458.7	
423.03	8597.4	
423.23	6486.6	
423.44	5453.1	
423.64	7434.1	
423.84	7176.1	
424.04	5868.8	
424.25	5581.4	
424.45	8457.4	
424.65	8305.2	
424.85	5325.4	
425.06	5999.2	
425.26	8318.2	
425.46	6824.5	
425.66	6399.2	
425.87	5997.1	
426.07	8025.3	
426.27	7914.7	
426.47	6234.7	
426.67	5526.8	
426.88	8359.1	
427.08	7776.1	
427.28	6515.3	
427.48	5500.2	
427.69	6678.4	
427.89	7432.8	
428.09	6408.8	
428.29	5490.6	
428.5	8108.6	
428.7	7668.3	
428.9	5571.2	
429.1	6038.8	
429.3	7517.4	
429.51	8082	
429.71	5781.4	
429.91	6628.6	
430.11	7905.2	
430.31	8122.2	
430.52	6124.8	
430.72	6405.4	
430.92	8497.7	
431.12	7853.3	
431.32	5786.2	
431.53	6220.4	
431.73	6841.6	
431.93	8579.6	
432.13	5789.6	
432.33	5620.3	
432.54	7256.6	
432.74	7791.2	
432.94	5575.3	
433.14	6621.1	
433.34	7941.3	
433.55	7402	
433.75	6596.5	
433.95	8389.2	
434.15	7679.2	
434.35	7414.3	
434.56	5798.5	
434.76	5378	
434.96	7722.2	
435.16	7931.1	
435.36	5616.2	
435.56	6878.4	
435.77	7321.5	
435.97	7561.8	
436.17	7494.2	
436.37	6828.6	
436.57	7379.5	
436.78	7383.6	
436.98	7337.2	
437.18	7253.2	
437.38	7991.9	
437.58	7440.3	
437.78	7407.5	
437.99	6000.5	
438.19	7892.9	
438.39	8700.5	
438.59	5929.6	
438.79	5491.3	
438.99	8656.1	
439.2	7544	
439.4	5771.9	
439.6	5728.9	
439.8	8032.1	
440	9013.1	
440.2	6847.7	
440.4	6926.9	
440.61	8347.5	
440.81	8938	
441.01	5964.4	
441.21	6895.5	
441.41	8856.8	
441.61	8274.5	
441.81	7159	
442.02	8187.1	
442.22	9284.8	
442.42	8398.7	
442.62	6029.9	
442.82	6083.8	
443.02	8817.9	
443.22	7903.8	
443.43	6545.3	
443.63	6137.1	
443.83	7755.7	
444.03	7719.5	
444.23	7442.3	
444.43	6875.7	
444.63	8045.8	
444.83	9254.8	
445.04	6198.5	
445.24	7403.4	
445.44	8274.5	
445.64	8458.1	
445.84	6922.1	
446.04	6886.6	
446.24	7642.3	
446.44	8727.8	
446.65	6160.3	
446.85	6625.2	
447.05	8048.5	
447.25	8688.2	
447.45	6683.9	
447.65	5995.1	
447.85	7987.8	
448.05	7692.9	
448.25	7049.1	
448.46	6834.8	
448.66	8124.3	
448.86	7752.2	
449.06	5844.9	
449.26	7041.6	
449.46	8454.7	
449.66	7460.8	
449.86	6597.2	
450.06	6543.9	
450.26	7683.3	
450.47	8251.9	
450.67	6759.7	
450.87	7043	
451.07	8249.9	
451.27	8143.4	
451.47	6094.1	
451.67	6812.9	
451.87	7793.2	
452.07	8910.7	
452.27	6354.8	
452.47	6346	
452.67	8094.9	
452.88	8545.5	
453.08	5693.4	
453.28	7712.7	
453.48	9288.2	
453.68	8006.2	
453.88	6350.1	
454.08	6509.1	
454.28	8495	
454.48	8200.1	
454.68	7127.6	
454.88	7668.3	
455.08	8671.1	
455.28	8391.9	
455.48	6212.2	
455.68	6862.1	
455.89	9134.6	
456.09	8804.9	
456.29	6556.2	
456.49	6612.2	
456.69	9020.6	
456.89	8307.2	
457.09	7279.2	
457.29	7585	
457.49	8710.7	
457.69	8794	
457.89	7160.4	
458.09	6467.5	
458.29	8418.5	
458.49	9164.7	
458.69	7496.9	
458.89	6963.1	
459.09	9377.6	
459.29	9518.3	
459.49	6984.9	
459.69	7835.5	
459.9	8873.8	
460.1	8454	
460.3	6885.3	
460.5	6665.5	
460.7	8940.1	
460.9	8682.7	
461.1	6423.1	
461.3	7757.7	
461.5	9655.5	
461.7	9265	
461.9	6849.1	
462.1	7354.9	
462.3	8758.5	
462.5	9406.3	
462.7	7070.3	
462.9	7108.5	
463.1	10519	
463.3	10154	
463.5	7322.2	
463.7	8270.4	
463.9	9113.5	
464.1	9418.6	
464.3	7537.9	
464.5	7705.1	
464.7	9655.5	
464.9	9409.1	
465.1	9097.8	
465.3	8135.9	
465.5	10032	
465.7	10030	
465.9	8350.3	
466.1	8113.4	
466.3	9942.2	
466.5	9744.9	
466.7	9212.4	
466.9	8009.6	
467.1	9770.9	
467.3	10720	
467.5	9146.9	
467.7	7847.1	
467.9	10795	
468.1	11790	
468.3	8743.5	
468.5	9305.3	
468.7	9706	
468.9	9708.1	
469.1	8322.9	
469.3	8995.4	
469.5	11731	
469.7	9278.7	
469.9	8729.1	
470.1	7944.8	
470.3	9665	
470.5	9780.4	
470.7	9265	
470.9	7989.1	
471.1	9463	
471.3	9898.5	
471.5	7822.6	
471.69	9876.7	
471.89	9344.9	
472.09	8830.2	
472.29	8627.4	
472.49	9040.4	
472.69	9062.3	
472.89	9855.5	
473.09	7739.3	
473.29	7847.1	
473.49	9146.9	
473.69	9364.7	
473.89	8833.6	
474.09	8049.2	
474.29	10686	
474.49	10337	
474.69	8931.2	
474.89	8029.4	
475.09	9402.2	
475.29	9420	
475.49	7508.5	
475.69	7814.4	
475.88	10937	
476.08	9608.4	
476.28	7441	
476.48	7922.2	
476.68	10082	
476.88	9852.8	
477.08	7754.3	
477.28	8190.5	
477.48	9437.7	
477.68	10064	
477.88	7662.8	
478.08	7963.2	
478.28	10535	
478.48	9558.6	
478.67	8016.4	
478.87	7346.7	
479.07	10189	
479.27	9615.2	
479.47	8230.1	
479.67	8310	
479.87	10075	
480.07	10536	
480.27	7472.4	
480.47	9085.5	
480.67	9779.1	
480.87	10445	
481.06	7832.1	
481.26	8647.2	
481.46	9695.1	
481.66	9494.4	
481.86	8234.2	
482.06	9301.2	
482.26	9258.9	
482.46	10387	
482.66	8159.1	
482.86	7861.5	
483.05	9791.3	
483.25	9201.5	
483.45	10712	
483.65	8187.8	
483.85	9322.4	
484.05	9743.6	
484.25	8634.2	
484.45	9169.4	
484.65	10586	
484.84	10617	
485.04	8249.9	
485.24	8256.7	
485.44	10846	
485.64	9144.9	
485.84	7498.3	
486.04	8957.8	
486.24	9514.9	
486.44	9977.7	
486.63	7514	
486.83	8269	
487.03	9542.2	
487.23	9792	
487.43	7551.5	
487.63	10015	
487.83	9795.4	
488.02	10694	
488.22	8607.6	
488.42	9305.3	
488.62	10606	
488.82	9626.1	
489.02	8239.7	
489.22	8276.5	
489.41	10453	
489.61	10210	
489.81	8082	
490.01	7965.9	
490.21	10378	
490.41	11016	
490.61	7898.3	
490.8	7978.2	
491	9767.4	
491.2	9101.2	
491.4	8600.8	
491.6	7620.5	
491.8	9787.9	
491.99	10009	
492.19	7637.6	
492.39	8143.4	
492.59	10555	
492.79	10629	
492.99	9106.6	
493.18	8204.8	
493.38	10770	
493.58	11545	
493.78	8863.6	
493.98	8479.3	
494.18	10410	
494.37	9946.3	
494.57	9219.3	
494.77	9058.2	
494.97	10845	
495.17	11056	
495.37	8752.3	
495.56	9097.1	
495.76	11196	
495.96	10848	
496.16	9905.3	
496.36	8791.2	
496.55	10952	
496.75	10503	
496.95	9288.9	
497.15	9038.4	
497.35	11129	
497.54	11129	
497.74	8992.6	
497.94	10696	
498.14	11714	
498.34	11564	
498.53	8576.9	
498.73	9559.9	
498.93	10393	
499.13	11043	
499.33	9300.5	
499.52	9767.4	
499.72	11168	
499.92	11473	
500.12	9022	
500.32	9292.3	
500.51	11140	
500.71	11156	
500.91	10114	
501.11	9572.2	
501.31	11233	
501.5	11654	
501.7	10258	
501.9	9314.8	
502.1	11005	
502.29	11355	
502.49	9835	
502.69	10090	
502.89	11146	
503.09	11132	
503.28	8673.1	
503.48	8776.9	
503.68	10305	
503.88	10408	
504.07	9815.2	
504.27	9300.5	
504.47	10717	
504.67	10810	
504.86	9719	
505.06	9350.3	
505.26	10422	
505.46	12194	
505.65	9189.2	
505.85	9416.6	
506.05	10355	
506.25	10843	
506.44	8505.9	
506.64	9339.4	
506.84	10160	
507.04	11234	
507.23	8814.5	
507.43	9381.7	
507.63	12225	
507.83	10518	
508.02	9249.3	
508.22	8811.7	
508.42	12447	
508.62	10215	
508.81	9235.7	
509.01	9743.6	
509.21	10235	
509.4	10381	
509.6	9350.3	
509.8	8774.2	
510	10438	
510.19	11914	
510.39	8731.9	
510.59	8758.5	
510.79	10167	
510.98	11597	
511.18	8855.4	
511.38	8980.3	
511.57	11048	
511.77	10848	
511.97	9478.7	
512.17	8546.9	
512.36	10932	
512.56	11013	
512.76	8673.8	
512.95	8454.7	
513.15	11128	
513.35	9772.9	
513.55	9592	
513.74	8755.1	
513.94	11088	
514.14	10337	
514.33	9599.5	
514.53	9321.7	
514.73	10279	
514.92	10530	
515.12	8826.7	
515.32	8783.7	
515.51	10648	
515.71	11288	
515.91	10430	
516.11	8723.7	
516.3	12391	
516.5	10231	
516.7	9221.3	
516.89	9920.4	
517.09	10359	
517.29	10256	
517.48	9567.4	
517.68	8910.7	
517.88	9923.8	
518.07	10673	
518.27	9559.9	
518.47	8589.2	
518.66	11312	
518.86	9860.3	
519.06	8381.7	
519.25	8854.7	
519.45	10205	
519.65	11862	
519.84	9413.8	
520.04	10114	
520.24	11949	
520.43	10760	
520.63	9011.1	
520.83	8795.3	
521.02	9850	
521.22	10617	
521.42	9302.6	
521.61	9949.7	
521.81	10281	
522.01	10505	
522.2	9263	
522.4	9037.7	
522.6	11034	
522.79	9901.2	
522.99	9269.1	
523.18	8566	
523.38	10816	
523.58	10950	
523.77	10603	
523.97	8617.9	
524.17	12766	
524.36	11932	
524.56	9975	
524.76	9731.9	
524.95	10927	
525.15	10493	
525.34	9484.8	
525.54	9463.7	
525.74	11245	
525.93	10180	
526.13	10727	
526.33	9409.1	
526.52	11640	
526.72	11097	
526.91	10753	
527.11	10020	
527.31	11817	
527.5	12305	
527.7	9998.2	
527.89	9024	
528.09	10752	
528.29	11398	
528.48	10372	
528.68	10010	
528.87	11744	
529.07	11629	
529.27	9849.4	
529.46	9263	
529.66	11039	
529.85	11585	
530.05	8935.3	
530.25	9798.2	
530.44	12519	
530.64	11252	
530.83	9658.2	
531.03	10004	
531.23	11788	
531.42	11711	
531.62	10802	
531.81	9959.3	
532.01	11931	
532.21	12428	
532.4	9851.4	
532.6	10071	
532.79	12873	
532.99	12063	
533.18	10172	
533.38	11140	
533.58	11555	
533.77	12428	
533.97	10195	
534.16	10983	
534.36	12555	
534.55	11544	
534.75	11081	
534.95	10308	
535.14	12347	
535.34	11529	
535.53	9730.6	
535.73	11729	
535.92	12869	
536.12	11616	
536.31	9828.2	
536.51	11159	
536.71	11893	
536.9	11536	
537.1	10079	
537.29	10342	
537.49	12392	
537.68	11483	
537.88	10649	
538.07	9834.3	
538.27	11751	
538.46	12907	
538.66	9802.9	
538.86	10199	
539.05	11691	
539.25	12138	
539.44	10329	
539.64	9891.7	
539.83	11449	
540.03	12517	
540.22	9846.6	
540.42	9931.3	
540.61	11740	
540.81	11914	
541	10487	
541.2	11116	
541.39	11354	
541.59	11726	
541.78	10710	
541.98	9680.1	
542.18	10878	
542.37	10896	
542.57	10096	
542.76	10713	
542.96	10872	
543.15	11678	
543.35	10144	
543.54	9407.7	
543.74	11918	
543.93	11472	
544.13	10112	
544.32	11224	
544.52	11811	
544.71	10864	
544.91	9136.7	
545.1	10372	
545.3	10951	
545.49	11706	
545.69	9062.9	
545.88	9714.9	
546.08	12766	
546.27	12201	
546.47	10195	
546.66	9430.9	
546.86	12021	
547.05	12620	
547.24	9769.5	
547.44	9669.1	
547.63	10769	
547.83	12092	
548.02	9908.1	
548.22	10139	
548.41	10536	
548.61	12039	
548.8	9370.1	
549	9360.6	
549.19	11278	
549.39	11547	
549.58	8998.1	
549.78	9635	
549.97	11552	
550.17	11003	
550.36	10515	
550.55	11523	
550.75	10991	
550.94	12038	
551.14	9330.5	
551.33	9721.7	
551.53	10418	
551.72	11398	
551.92	9669.8	
552.11	9441.1	
552.31	11376	
552.5	11458	
552.69	11120	
552.89	9018.6	
553.08	11430	
553.28	11057	
553.47	9450.7	
553.67	10609	
553.86	12038	
554.06	10275	
554.25	8660.2	
554.44	9226.1	
554.64	12719	
554.83	12164	
555.03	9184.5	
555.22	9462.3	
555.42	11564	
555.61	11225	
555.8	9328.5	
556	9572.2	
556.19	10404	
556.39	11669	
556.58	9372.9	
556.78	9396.8	
556.97	11135	
557.16	10873	
557.36	10650	
557.55	9088.2	
557.75	10066	
557.94	11907	
558.13	9108	
558.33	8819.2	
558.52	11615	
558.72	10514	
558.91	8957.8	
559.1	9073.2	
559.3	10223	
559.49	9936.7	
559.69	8547.5	
559.88	9552.4	
560.07	11039	
560.27	11478	
560.46	9665	
560.66	9858.9	
560.85	10767	
561.04	9934.7	
561.24	8817.2	
561.43	8959.9	
561.63	10243	
561.82	10473	
562.01	10444	
562.21	9450	
562.4	11039	
562.59	12101	
562.79	9357.9	
562.98	8964	
563.18	10941	
563.37	12362	
563.56	9793.4	
563.76	8872.5	
563.95	10376	
564.14	10230	
564.34	9281.4	
564.53	8965.3	
564.73	10902	
564.92	11333	
565.11	9420	
565.31	8839.7	
565.5	11564	
565.69	10411	
565.89	9043.8	
566.08	9240.4	
566.27	11385	
566.47	11832	
566.66	9927.9	
566.85	8660.9	
567.05	10942	
567.24	10278	
567.44	8962.6	
567.63	10385	
567.82	11146	
568.02	11002	
568.21	8990.6	
568.4	9280.7	
568.6	10839	
568.79	10907	
568.98	8855.4	
569.18	9102.5	
569.37	10845	
569.56	12826	
569.76	9339.4	
569.95	10362	
570.14	11189	
570.34	11209	
570.53	8831.5	
570.72	8893	
570.91	11808	
571.11	10834	
571.3	9441.8	
571.49	10286	
571.69	10932	
571.88	10421	
572.07	9933.3	
572.27	9857.6	
572.46	10452	
572.65	11501	
572.85	9199.5	
573.04	9587.2	
573.23	11867	
573.43	11086	
573.62	8974.2	
573.81	9764	
574	11105	
574.2	10892	
574.39	9420.7	
574.58	9583.8	
574.78	12013	
574.97	11207	
575.16	10004	
575.36	10140	
575.55	11646	
575.74	11731	
575.93	9001.5	
576.13	10155	
576.32	11033	
576.51	11658	
576.71	9415.9	
576.9	10806	
577.09	11883	
577.28	11444	
577.48	9953.8	
577.67	9019.9	
577.86	11036	
578.05	11355	
578.25	9652.1	
578.44	9727.2	
578.63	11269	
578.83	12224	
579.02	9058.2	
579.21	10607	
579.4	11378	
579.6	11077	
579.79	9904.7	
579.98	11957	
580.17	11736	
580.37	11856	
580.56	9260.2	
580.75	10094	
580.94	12285	
581.14	12051	
581.33	10530	
581.52	9540.1	
581.71	11662	
581.91	12208	
582.1	9103.2	
582.29	9685.5	
582.48	11300	
582.68	11145	
582.87	10227	
583.06	9855.5	
583.25	11568	
583.45	11286	
583.64	10512	
583.83	11245	
584.02	11082	
584.21	11525	
584.41	10426	
584.6	9750.4	
584.79	11330	
584.98	12050	
585.18	9140.1	
585.37	9176.3	
585.56	10740	
585.75	11564	
585.94	9407	
586.14	10088	
586.33	12065	
586.52	11109	
586.71	9660.3	
586.91	9613.2	
587.1	10435	
587.29	11522	
587.48	9473.9	
587.67	9347.6	
587.87	11420	
588.06	11384	
588.25	10597	
588.44	10021	
588.63	11003	
588.83	11512	
589.02	9431.6	
589.21	9044.5	
589.4	10679	
589.59	10365	
589.78	8304.5	
589.98	8542.8	
590.17	10028	
590.36	10563	
590.55	7875.8	
590.74	8901.8	
590.94	12090	
591.13	10583	
591.32	8751.7	
591.51	8140.7	
591.7	11097	
591.89	10597	
592.09	8350.3	
592.28	8832.2	
592.47	9874.6	
592.66	11649	
592.85	8402.8	
593.05	8572.8	
593.24	10288	
593.43	11142	
593.62	8626.7	
593.81	9144.9	
594	10449	
594.19	10677	
594.39	8489.5	
594.58	8531.8	
594.77	10731	
594.96	11134	
595.15	8385.7	
595.34	9031.5	
595.54	10603	
595.73	9851.4	
595.92	7774.8	
596.11	8921.6	
596.3	11132	
596.49	9868.5	
596.68	8640.4	
596.88	9116.2	
597.07	10935	
597.26	9678.7	
597.45	8190.5	
597.64	9461.6	
597.83	9816.6	
598.02	10610	
598.22	8225.3	
598.41	8871.8	
598.6	10276	
598.79	9755.2	
598.98	8151.6	
599.17	9259.5	
599.36	10268	
599.55	11477	
599.74	10293	
599.94	10061	
600.13	10828	
600.32	9543.5	
600.51	7929.1	
600.7	8099	
600.89	11505	
601.08	11453	
601.27	7847.1	
601.47	8882	
601.66	10648	
601.85	11351	
602.04	8476.5	
602.23	8803.5	
602.42	9701.9	
602.61	10253	
602.8	8320.9	
602.99	8159.1	
603.18	10099	
603.37	10344	
603.57	8832.2	
603.76	9413.8	
603.95	11155	
604.14	10601	
604.33	8260.1	
604.52	8574.8	
604.71	10285	
604.9	9886.2	
605.09	9114.8	
605.28	9012.4	
605.47	10901	
605.66	10454	
605.86	8772.8	
606.05	8190.5	
606.24	10784	
606.43	9316.9	
606.62	8534.6	
606.81	9331.9	
607	10658	
607.19	10021	
607.38	7898.3	
607.57	8275.8	
607.76	9798.8	
607.95	9202.2	
608.14	8667.7	
608.33	9268.4	
608.52	9579	
608.72	10667	
608.91	7866.2	
609.1	7850.5	
609.29	9837.8	
609.48	9286.9	
609.67	8796.7	
609.86	7841.7	
610.05	9382.4	
610.24	9792	
610.43	7605.5	
610.62	7245	
610.81	10868	
611	10531	
611.19	7827.3	
611.38	8516.8	
611.57	10059	
611.76	11342	
611.95	7607.5	
612.14	7450.5	
612.33	9813.2	
612.52	9389.9	
612.71	8109.3	
612.9	7288	
613.09	8935.3	
613.28	11366	
613.47	7832.8	
613.66	8811.7	
613.85	9936.1	
614.04	9405.6	
614.24	7906.5	
614.43	7161.7	
614.62	10029	
614.81	9940.8	
615	8535.9	
615.19	8548.9	
615.38	9297.8	
615.57	9586.5	
615.76	8310	
615.95	9293.7	
616.14	9981.8	
616.33	9622	
616.52	8658.1	
616.71	8858.8	
616.9	9975	
617.09	9924.5	
617.28	8082.6	
617.47	9299.1	
617.66	9255.5	
617.85	9135.3	
618.04	8975.6	
618.22	8512.7	
618.41	9476	
618.6	10512	
618.79	8284.7	
618.98	8061.5	
619.17	10807	
619.36	9114.1	
619.55	8264.9	
619.74	8237.6	
619.93	10139	
620.12	9559.9	
620.31	8847.9	
620.5	8940.7	
620.69	10996	
620.88	11000	
621.07	9676.7	
621.26	8559.1	
621.45	10219	
621.64	10253	
621.83	8832.2	
622.02	8000.7	
622.21	10226	
622.4	10145	
622.59	9404.3	
622.78	9223.4	
622.97	9673.2	
623.16	10642	
623.35	8763.3	
623.54	7897	
623.72	9896.5	
623.91	10049	
624.1	9091.6	
624.29	7686.7	
624.48	11067	
624.67	10325	
624.86	8895	
625.05	7910.6	
625.24	11303	
625.43	9562.6	
625.62	10722	
625.81	8159.8	
626	10630	
626.19	9862.3	
626.38	8979.7	
626.56	8372.1	
626.75	9750.4	
626.94	10564	
627.13	8964	
627.32	7712.7	
627.51	10421	
627.7	11643	
627.89	7790.5	
628.08	8976.2	
628.27	9606.3	
628.46	9840.5	
628.65	8177.5	
628.83	7774.8	
629.02	10357	
629.21	9563.3	
629.4	8515.5	
629.59	8800.1	
629.78	9457.5	
629.97	10513	
630.16	8794	
630.35	8352.3	
630.54	11038	
630.72	10604	
630.91	8258.8	
631.1	8842.4	
631.29	10118	
631.48	10361	
631.67	8887.5	
631.86	8366	
632.05	9755.8	
632.24	9867.8	
632.42	8041.7	
632.61	8674.5	
632.8	9830.2	
632.99	9524.4	
633.18	8557.1	
633.37	9090.3	
633.56	10116	
633.75	9930.6	
633.93	8677.9	
634.12	8275.8	
634.31	10942	
634.5	10600	
634.69	8320.9	
634.88	8773.5	
635.07	9889.6	
635.25	10445	
635.44	9210.4	
635.63	9405.6	
635.82	9770.2	
636.01	9273.2	
636.2	9077.3	
636.39	8670.4	
636.57	10843	
636.76	10427	
636.95	8098.4	
637.14	9548.3	
637.33	10126	
637.52	11180	
637.7	7914	
637.89	8845.2	
638.08	9725.8	
638.27	11166	
638.46	8872.5	
638.65	9303.2	
638.83	11156	
639.02	9372.9	
639.21	8840.4	
639.4	9260.2	
639.59	9997.5	
639.78	9723.1	
639.96	8082.6	
640.15	8000.7	
640.34	9880.1	
640.53	10019	
640.72	7745.4	
640.91	8067.6	
641.09	9273.2	
641.28	10621	
641.47	8098.4	
641.66	8933.2	
641.85	9938.1	
642.03	10093	
642.22	8680	
642.41	8144.8	
642.6	9374.2	
642.79	8716.8	
642.97	7877.9	
643.16	8658.8	
643.35	9271.8	
643.54	9080	
643.73	7766.6	
643.91	8563.2	
644.1	8924.4	
644.29	9611.1	
644.48	7861.5	
644.67	7880.6	
644.85	9088.2	
645.04	9463.7	
645.23	7408.9	
645.42	7649.8	
645.6	8819.9	
645.79	10129	
645.98	7697.6	
646.17	6687.3	
646.36	8659.5	
646.54	9273.9	
646.73	8456.1	
646.92	7216.4	
647.11	8862.9	
647.29	9877.4	
647.48	7309.9	
647.67	7090.1	
647.86	10101	
648.05	10183	
648.23	7615	
648.42	8968.1	
648.61	9479.4	
648.8	9212.4	
648.98	7302.4	
649.17	7586.4	
649.36	8804.9	
649.55	8357.1	
649.73	7344	
649.92	8034.9	
650.11	8674.5	
650.3	8910	
650.48	7337.9	
650.67	7135.8	
650.86	9253.4	
651.05	8109.3	
651.23	7355.6	
651.42	7299	
651.61	8742.8	
651.79	8796.7	
651.98	7564.5	
652.17	7149.5	
652.36	9117.6	
652.54	8220.5	
652.73	7053.2	
652.92	6930.3	
653.11	9125.7	
653.29	9189.9	
653.48	6383.5	
653.67	7388.4	
653.85	8802.2	
654.04	9905.3	
654.23	7501.7	
654.42	7032.7	
654.6	8239	
654.79	8867	
654.98	6413.6	
655.16	7072.3	
655.35	7814.4	
655.54	7817.8	
655.73	6671.6	
655.91	6567.8	
656.1	9060.2	
656.29	7899.7	
656.47	6119.3	
656.66	7919.5	
656.85	8201.4	
657.03	8141.4	
657.22	6662.7	
657.41	6753.5	
657.59	8249.9	
657.78	7994.6	
657.97	6346.7	
658.16	7120.1	
658.34	8830.8	
658.53	9350.3	
658.72	8024.6	
658.9	8531.8	
659.09	8279.3	
659.28	8398	
659.46	6872.3	
659.65	6742.6	
659.84	8125.7	
660.02	8611	
660.21	6762.4	
660.4	6516	
660.58	9140.8	
660.77	8429.4	
660.96	7243.7	
661.14	6341.9	
661.33	9549	
661.52	9394	
661.7	6195.8	
661.89	9985.9	
662.08	7981.6	
662.26	7621.9	
662.45	6398.5	
662.64	6602	
662.82	8652	
663.01	7843	
663.2	6578.1	
663.38	7430.7	
663.57	8748.9	
663.75	8428.1	
663.94	6938.5	
664.13	8271.7	
664.31	7905.2	
664.5	8615.1	
664.69	7264.1	
664.87	7767.9	
665.06	7716.1	
665.25	8476.5	
665.43	7925	
665.62	7964.6	
665.8	8821.3	
665.99	7982.3	
666.18	6887.3	
666.36	6969.9	
666.55	8720.9	
666.74	8620.6	
666.92	6449.1	
667.11	8125.7	
667.29	8092.2	
667.48	8587.8	
667.67	7744.7	
667.85	6728.3	
668.04	8021.2	
668.22	8052.6	
668.41	6903.7	
668.6	7097.6	
668.78	7809.6	
668.97	8029.4	
669.15	7245	
669.34	6215.6	
669.53	7856.7	
669.71	8150.9	
669.9	6427.2	
670.08	7063.4	
670.27	7791.8	
670.46	8436.3	
670.64	7217	
670.83	7503.8	
671.01	7692.9	
671.2	8318.2	
671.38	6505.7	
671.57	6410.8	
671.76	8989.2	
671.94	9571.5	
672.13	6329.6	
672.31	7409.6	
672.5	8598.1	
672.69	7879.2	
672.87	6547.4	
673.06	6797.9	
673.24	8389.8	
673.43	7821.2	
673.61	7200	
673.8	6715.3	
673.98	8590.5	
674.17	8725	
674.36	7304.4	
674.54	7116	
674.73	8249.9	
674.91	8477.9	
675.1	6942.6	
675.28	6560.3	
675.47	8092.2	
675.65	8635.6	
675.84	6789	
676.03	7075.7	
676.21	7894.9	
676.4	7350.8	
676.58	7518.1	
676.77	7293.5	
676.95	9274.6	
677.14	7777.5	
677.32	6460.7	
677.51	6227.9	
677.69	8535.3	
677.88	7458	
678.06	6281.8	
678.25	6412.2	
678.44	8032.8	
678.62	7767.9	
678.81	6105.7	
678.99	7049.1	
679.18	8850	
679.36	8428.8	
679.55	6607.4	
679.73	7352.9	
679.92	8402.8	
680.1	7802.8	
680.29	7989.8	
680.47	6688.7	
680.66	7790.5	
680.84	8671.8	
681.03	5958.2	
681.21	7085.3	
681.4	7759.8	
681.58	7653.3	
681.77	6498.9	
681.95	6381.5	
682.14	8686.8	
682.32	8996	
682.51	7319.4	
682.69	6135.7	
682.88	7755.7	
683.06	8314.1	
683.25	6961.7	
683.43	7425.3	
683.62	8019.2	
683.8	8469.7	
683.99	7555.6	
684.17	6830.7	
684.36	9168.1	
684.54	7801.4	
684.73	5977.3	
684.91	6164.4	
685.1	8157.1	
685.28	7525.6	
685.46	6688	
685.65	6858	
685.83	8434.2	
686.02	7795.9	
686.2	6329.6	
686.39	6447	
686.57	7489.4	
686.76	9024	
686.94	6276.3	
687.13	6496.2	
687.31	8219.2	
687.5	7780.9	
687.68	5862	
687.86	7250.5	
688.05	9625.5	
688.23	7338.6	
688.42	7192.5	
688.6	6381.5	
688.79	7688.8	
688.97	7686	
689.16	6827.2	
689.34	5683.8	
689.52	8559.8	
689.71	8699.1	
689.89	7098.9	
690.08	6370.5	
690.26	8015.1	
690.45	7909.3	
690.63	7285.3	
690.81	6521.4	
691	7696.9	
691.18	7671	
691.37	6667.5	
691.55	8924.4	
691.74	7658.7	
691.92	9633.6	
692.1	6626.5	
692.29	6116.6	
692.47	7888.8	
692.66	7108.5	
692.84	6374.6	
693.02	6944.7	
693.21	7295.5	
693.39	7800.7	
693.58	6897.6	
693.76	6406.7	
693.94	9006.3	
694.13	8821.3	
694.31	6344.6	
694.5	7546.8	
694.68	7648.5	
694.86	7963.2	
695.05	6735.8	
695.23	6770.6	
695.42	8311.3	
695.6	10673	
695.78	7386.3	
695.97	6312.5	
696.15	8389.8	
696.34	7792.5	
696.52	6234	
696.7	6967.2	
696.89	8118.1	
697.07	7502.4	
697.25	6884.6	
697.44	8521.6	
697.62	8073.1	
697.81	8346.2	
697.99	6603.3	
698.17	7140.6	
698.36	7361.8	
698.54	8021.2	
698.72	6983.6	
698.91	5982.8	
699.09	7644.4	
699.28	7477.8	
699.46	6614.9	
699.64	6444.3	
699.83	7486.7	
700.01	8840.4	
700.19	7312.6	
700.38	5631.9	
700.56	8619.2	
700.74	7555	
700.93	6130.9	
701.11	6944	
701.29	8084	
701.48	9194.7	
701.66	6334.4	
701.84	6338.5	
702.03	7599.3	
702.21	8363.2	
702.39	5874.9	
702.58	6434.7	
702.76	8037.6	
702.94	8200.7	
703.13	5896.1	
703.31	8418.5	
703.49	7322.2	
703.68	8860.2	
703.86	6070.2	
704.04	7103.7	
704.23	7872.4	
704.41	8280.6	
704.59	6214.2	
704.78	7466.2	
704.96	8972.8	
705.14	8353	
705.33	6001.2	
705.51	6767.9	
705.69	7613.7	
705.87	8454.7	
706.06	7086.7	
706.24	5948	
706.42	7927.7	
706.61	8238.3	
706.79	7114	
706.97	5972.6	
707.16	7472.4	
707.34	8072.4	
707.52	7018.4	
707.7	6203.3	
707.89	7647.1	
708.07	7151.5	
708.25	7000	
708.44	7189.1	
708.62	7418.4	
708.8	8662.2	
708.98	7288.7	
709.17	6182.8	
709.35	7901.7	
709.53	7788.4	
709.72	5903.6	
709.9	6385.6	
710.08	8054	
710.26	8129.8	
710.45	7587.7	
710.63	6253.1	
710.81	7835.5	
710.99	7797.3	
711.18	6815.6	
711.36	6361	
711.54	7537.9	
711.72	8284.7	
711.91	6385.6	
712.09	5829.2	
712.27	7740	
712.45	8393.3	
712.64	6610.8	
712.82	5575.3	
713	7160.4	
713.18	7272.3	
713.37	5717.2	
713.55	6993.1	
713.73	8109.3	
713.91	6666.1	
714.1	6050.4	
714.28	5555.5	
714.46	7814.4	
714.64	6968.6	
714.83	4990.9	
715.01	5800.5	
715.19	7037.5	
715.37	6496.2	
715.55	5487.9	
715.74	5717.2	
715.92	7929.7	
716.1	5913.2	
716.28	6921.5	
716.47	5929.6	
716.65	6670.9	
716.83	6726.2	
717.01	5776	
717.19	5862.7	
717.38	8862.9	
717.56	6355.5	
717.74	6086.6	
717.92	5231.9	
718.1	7707.9	
718.29	6893.5	
718.47	4796.3	
718.65	5535.7	
718.83	7465.5	
719.01	7468.9	
719.2	4670.1	
719.38	5812.8	
719.56	7159.7	
719.74	8748.2	
719.92	5278.3	
720.11	6405.4	
720.29	7212.9	
720.47	6232	
720.65	4873.5	
720.83	5728.2	
721.02	6727.6	
721.2	6373.3	
721.38	5841.5	
721.56	4997	
721.74	5928.9	
721.92	6101.6	
722.11	6330.3	
722.29	5980.8	
722.47	7388.4	
722.65	6526.2	
722.83	5077.6	
723.01	6005.3	
723.2	6580.1	
723.38	6951.5	
723.56	4564.9	
723.74	5653.1	
723.92	6085.2	
724.1	7295.5	
724.29	5018.2	
724.47	6106.4	
724.65	6083.8	
724.83	6032	
725.01	4832.5	
725.19	5842.2	
725.37	6040.8	
725.56	6244.3	
725.74	4730.8	
725.92	4924	
726.1	5998.5	
726.28	6367.8	
726.46	5427.1	
726.64	5139.7	
726.83	6384.2	
727.01	6598.6	
727.19	4701.5	
727.37	5526.8	
727.55	6410.8	
727.73	6963.8	
727.91	4653.7	
728.09	4491.2	
728.28	7065.5	
728.46	7631.4	
728.64	5642.8	
728.82	5614.8	
729	8077.9	
729.18	7362.4	
729.36	4718.5	
729.54	7146	
729.72	8339.3	
729.91	6620.4	
730.09	6776.7	
730.27	5473.5	
730.45	6432.7	
730.63	7116.7	
730.81	6117.3	
730.99	5055.1	
731.17	7725.6	
731.35	6118	
731.53	5651	
731.71	5230.5	
731.9	7345.4	
732.08	7593.9	
732.26	5486.5	
732.44	5111.7	
732.62	7563.8	
732.8	7086	
732.98	5928.2	
733.16	4919.9	
733.34	7104.4	
733.52	5843.5	
733.7	5429.2	
733.88	5687.9	
734.07	6880.5	
734.25	6626.5	
734.43	4844.8	
734.61	6455.2	
734.79	8177.5	
734.97	6530.3	
735.15	4999.1	
735.33	5409.4	
735.51	6882.5	
735.69	6466.8	
735.87	6771.9	
736.05	5566.4	
736.23	6744.6	
736.41	6358.9	
736.59	5404.6	
736.77	5522.7	
736.95	7090.8	
737.13	6576.7	
737.32	5008	
737.5	5240.8	
737.68	7746.1	
737.86	6473.6	
738.04	4810	
738.22	6756.2	
738.4	6229.9	
738.58	6581.5	
738.76	5539.8	
738.94	4407.9	
739.12	6358.3	
739.3	6317.3	
739.48	6094.1	
739.66	5838.1	
739.84	6614.9	
740.02	6638.1	
740.2	4487.1	
740.38	4915.1	
740.56	7041.6	
740.74	5813.5	
740.92	5547.9	
741.1	5448.3	
741.28	6501.6	
741.46	6242.9	
741.64	5094.7	
741.82	5642.2	
742	6517.3	
742.18	6435.4	
742.36	5260.5	
742.54	4906.3	
742.72	7060.7	
742.9	5721.3	
743.08	5732.9	
743.26	4435.2	
743.44	7245.7	
743.62	7131.7	
743.8	5777.3	
743.98	4869.4	
744.16	6806.1	
744.34	6472.9	
744.52	5798.5	
744.7	5601.2	
744.88	6916.7	
745.06	6465.4	
745.24	5834	
745.42	5874.9	
745.6	6976.1	
745.78	6781.5	
745.96	4607.9	
746.14	4937	
746.32	7746.1	
746.5	7071	
746.68	5539.1	
746.86	4899.4	
747.03	7496.2	
747.21	5782.1	
747.39	5469.4	
747.57	5006.6	
747.75	6580.1	
747.93	7004.1	
748.11	4938.3	
748.29	4824.3	
748.47	8187.1	
748.65	6331	
748.83	5742.5	
749.01	5416.9	
749.19	6819.1	
749.37	5995.1	
749.55	5285.8	
749.73	5361.6	
749.91	6408.1	
750.09	6169.2	
750.26	5359.5	
750.44	4781.3	
750.62	6526.2	
750.8	6448.4	
750.98	4590.2	
751.16	4953.4	
751.34	6597.9	
751.52	5846.3	
751.7	5773.9	
751.88	4586.1	
752.06	7096.9	
752.24	6936.5	
752.42	4522.6	
752.59	4935.6	
752.77	6502.3	
752.95	7725.6	
753.13	5706.3	
753.31	5067.4	
753.49	6173.9	
753.67	6674.3	
753.85	5366.4	
754.03	4954	
754.21	6933.7	
754.38	7270.3	
754.56	5111.7	
754.74	4080.2	
754.92	6046.3	
755.1	6870.9	
755.28	4132.1	
755.46	4136.9	
755.64	7550.9	
755.82	7712.7	
755.99	4427.7	
756.17	4562.2	
756.35	5088.5	
756.53	6696.9	
756.71	3363.4	
756.89	4331.5	
757.07	6262.7	
757.25	5389.6	
757.42	4951.3	
757.6	5848.3	
757.78	6463.4	
757.96	5439.4	
758.14	4683	
758.32	4100.7	
758.5	4893.3	
758.67	5841.5	
758.85	4487.8	
759.03	4603.8	
759.21	5965.1	
759.39	5437.4	
759.57	4089.8	
759.75	5198.4	
759.92	6629.3	
760.1	5838.1	
760.28	5578	
760.46	5844.9	
760.64	5644.2	
760.82	5381.4	
760.99	5464	
761.17	4562.2	
761.35	6485.9	
761.53	5431.9	
761.71	4745.8	
761.89	5457.8	
762.06	6397.9	
762.24	5859.2	
762.42	4852.3	
762.6	4640.7	
762.78	5903.6	
762.96	6576	
763.13	5243.5	
763.31	4829.1	
763.49	6794.5	
763.67	5913.2	
763.85	5776.6	
764.02	6313.2	
764.2	6983.6	
764.38	6210.8	
764.56	4720.6	
764.74	5631.9	
764.91	7137.2	
765.09	6032.6	
765.27	4425	
765.45	4286.4	
765.63	7040.2	
765.8	7026.6	
765.98	3974.4	
766.16	4326.7	
766.34	5547.9	
766.52	5309.7	
766.69	5250.3	
766.87	4140.3	
767.05	5986.9	
767.23	6629.3	
767.41	4473.4	
767.58	4711.7	
767.76	6565.8	
767.94	6567.8	
768.12	4513.7	
768.29	5237.3	
768.47	5986.2	
768.65	6787.7	
768.83	4160.8	
769	5349.3	
769.18	5529.5	
769.36	6318	
769.54	5328.1	
769.72	4235.9	
769.89	6597.9	
770.07	6664.8	
770.25	4536.3	
770.43	5839.4	
770.6	7372	
770.78	7846.5	
770.96	4760.8	
771.14	5337	
771.31	6472.3	
771.49	5807.4	
771.67	3852.2	
771.85	4113	
772.02	5002.5	
772.2	5873.6	
772.38	4854.4	
772.55	4324.6	
772.73	6108.4	
772.91	5794.4	
773.09	4679.6	
773.26	4801.8	
773.44	6072.9	
773.62	5638.1	
773.8	4231.8	
773.97	3938.9	
774.15	6100.2	
774.33	5732.9	
774.5	4130.8	
774.68	4481	
774.86	6322.8	
775.04	5725.4	
775.21	4157.4	
775.39	4133.5	
775.57	6016.2	
775.74	6480.5	
775.92	3994.2	
776.1	3904.8	
776.27	5906.3	
776.45	7276.4	
776.63	4132.8	
776.81	3685	
776.98	5572.5	
777.16	6796.5	
777.34	4299.4	
777.51	4653.7	
777.69	5614.2	
777.87	5405.3	
778.04	4387.4	
778.22	5023.7	
778.4	5337	
778.57	6072.2	
778.75	3626.3	
778.93	3923.2	
779.1	5162.2	
779.28	5051.7	
779.46	3683.6	
779.64	4164.9	
779.81	6210.8	
779.99	7120.8	
780.17	4941.7	
780.34	5062.6	
780.52	5603.2	
780.69	5843.5	
780.87	4429.1	
781.05	4068.6	
781.22	5713.8	
781.4	5781.4	
781.58	4131.4	
781.75	3287	
781.93	5763.7	
782.11	5185.5	
782.28	5068	
782.46	4144.4	
782.64	4945.2	
782.81	5943.9	
782.99	4229.7	
783.17	4184.7	
783.34	5827.8	
783.52	4995	
783.69	4392.9	
783.87	5254.4	
784.05	5093.3	
784.22	5072.1	
784.4	5221.6	
784.58	4534.2	
784.75	6017.6	
784.93	5166.3	
785.1	4184	
785.28	4795.7	
785.46	5869.5	
785.63	5033.2	
785.81	4087.1	
785.99	3939.6	
786.16	5248.9	
786.34	5655.1	
786.51	4041.3	
786.69	4386.7	
786.87	4840	
787.04	5428.5	
787.22	3813.3	
787.39	4839.4	
787.57	5095.3	
787.75	6201.9	
787.92	5050.3	
788.1	4933.6	
788.27	5128.1	
788.45	4803.2	
788.63	4683.7	
788.8	3373	
788.98	5515.9	
789.15	4833.9	
789.33	3411.2	
789.5	4123.2	
789.68	6045.6	
789.86	6167.8	
790.03	4568.3	
790.21	3946.4	
790.38	6040.1	
790.56	5215.5	
790.73	3812.6	
790.91	3880.9	
791.09	5103.5	
791.26	5896.1	
791.44	4108.9	
791.61	3519.1	
791.79	5066	
791.96	5137.7	
792.14	3639.2	
792.32	3178.4	
792.49	5029.8	
792.67	5159.5	
792.84	3685.7	
793.02	3556.6	
793.19	5914.5	
793.37	6311.2	
793.54	3182.5	
793.72	3583.9	
793.89	6483.2	
794.07	5042.1	
794.25	4283	
794.42	3307.5	
794.6	6238.1	
794.77	5767.8	
794.95	4452.3	
795.12	3923.9	
795.3	5090.6	
795.47	5761.6	
795.65	4313.7	
795.82	4126.7	
796	4851	
796.17	6902.3	
796.35	3985.3	
796.52	4714.4	
796.7	5660.6	
796.87	5722	
797.05	5054.4	
797.22	4960.9	
797.4	5695.4	
797.57	6713.2	
797.75	4141	
797.92	3929.4	
798.1	6024.4	
798.27	5067.4	
798.45	3315.7	
798.62	3574.4	
798.8	5390.3	
798.97	5928.2	
799.15	4351.3	
799.32	4128.7	
799.5	4629.1	
799.67	5453.7	
799.85	4471.4	
800.02	3257	
800.2	4988.2	
800.37	5459.9	
800.55	4683	
800.72	3921.2	
800.9	5827.2	
801.07	6331	
801.25	5252.4	
801.42	4290.5	
801.6	5888.6	
801.77	5624.4	
801.95	3930.1	
802.12	3807.9	
802.29	5613.5	
802.47	5513.8	
802.64	4257.7	
802.82	3221.5	
802.99	5000.5	
803.17	6111.8	
803.34	4118.5	
803.52	3726.6	
803.69	6731	
803.87	4785.4	
804.04	4113	
804.21	4176.5	
804.39	6139.8	
804.56	5225.7	
804.74	3487	
804.91	4274.1	
805.09	5053.7	
805.26	5199.1	
805.44	3504.8	
805.61	3895.9	
805.78	5793	
805.96	5775.3	
806.13	4339.6	
806.31	4603.8	
806.48	4607.9	
806.66	5143.1	
806.83	4244.1	
807	4199.7	
807.18	5015.5	
807.35	5469.4	
807.53	4186	
807.7	3335.5	
807.87	6257.2	
808.05	5040.7	
808.22	4566.3	
808.4	3310.2	
808.57	5083.1	
808.74	4670.1	
808.92	3806.5	
809.09	4788.2	
809.27	5035.3	
809.44	5644.2	
809.61	3383.2	
809.79	3732.8	
809.96	6260.6	
810.14	5933.6	
810.31	3203	
810.48	3970.3	
810.66	5180	
810.83	5930.9	
811.01	3794.9	
811.18	4258.4	
811.35	5892	
811.53	4536.3	
811.7	4644.1	
811.87	4271.4	
812.05	5100.8	
812.22	5048.2	
812.39	3710.2	
812.57	3553.9	
812.74	5066.7	
812.92	6847.7	
813.09	3982.6	
813.26	4364.2	
813.44	6539.8	
813.61	4987.5	
813.78	3348.4	
813.96	4552	
814.13	5145.2	
814.3	4805.2	
814.48	4856.4	
814.65	3975.8	
814.82	6367.1	
815	4881.7	
815.17	4105.5	
815.34	5001.1	
815.52	5053	
815.69	4976.6	
815.87	4080.9	
816.04	3547.1	
816.21	5150	
816.38	4463.9	
816.56	3925.3	
816.73	3668.6	
816.9	6461.3	
817.08	5872.9	
817.25	3664.5	
817.42	4714.4	
817.6	4668	
817.77	5154.1	
817.94	4272.7	
818.12	3661.1	
818.29	4851	
818.46	7620.5	
818.64	3816.7	
818.81	3546.4	
818.98	4787.5	
819.16	6954.9	
819.33	4405.2	
819.5	4063.2	
819.67	5523.4	
819.85	6114.6	
820.02	4033.8	
820.19	4316.4	
820.37	5322.7	
820.54	4920.6	
820.71	4158.7	
820.88	5193.6	
821.06	5343.2	
821.23	4909	
821.4	4182	
821.58	4172.4	
821.75	5890.6	
821.92	5252.4	
822.09	3326.6	
822.27	3442	
822.44	5084.4	
822.61	5023.7	
822.79	3366.2	
822.96	6492.1	
823.13	5629.2	
823.3	4821.6	
823.48	3936.9	
823.65	3465.2	
823.82	5870.8	
823.99	4612	
824.17	4970.4	
824.34	3608.5	
824.51	6716	
824.68	5216.2	
824.86	3777.8	
825.03	4198.3	
825.2	5132.9	
825.37	6197.8	
825.55	3666.5	
825.72	4138.3	
825.89	6802	
826.06	6370.5	
826.24	4001.7	
826.41	4040.6	
826.58	6234.7	
826.75	5410.1	
826.92	3108.8	
827.1	3493.8	
827.27	8505.2	
827.44	6801.3	
827.61	3788.1	
827.79	4601.8	
827.96	4835.9	
828.13	5224.4	
828.3	3987.4	
828.47	3312.2	
828.65	5313.1	
828.82	5257.1	
828.99	5201.8	
829.16	4440.7	
829.34	5760.3	
829.51	5489.2	
829.68	4117.8	
829.85	4280.3	
830.02	6006.7	
830.2	5766.4	
830.37	3220.8	
830.54	5031.9	
830.71	6526.9	
830.88	5076.2	
831.05	3257.6	
831.23	3711.6	
831.4	6215.6	
831.57	6998.6	
831.74	3799.7	
831.91	3371.6	
832.09	5410.7	
832.26	5702.2	
832.43	3980.6	
832.6	4425.7	
832.77	5341.1	
832.94	6130.3	
833.12	3129.3	
833.29	3931.4	
833.46	5007.3	
833.63	7315.3	
833.8	4311	
833.97	3972.4	
834.15	5789.6	
834.32	5479	
834.49	4121.9	
834.66	4242	
834.83	5943.9	
835	4838	
835.17	3818.8	
835.35	3832.4	
835.52	5601.9	
835.69	5488.6	
835.86	4093.2	
836.03	3260.4	
836.2	5659.9	
836.37	5312.4	
836.55	3923.9	
836.72	3680.9	
836.89	5238.7	
837.06	5879.7	
837.23	4012.7	
837.4	4416.1	
837.57	6543.9	
837.75	7217	
837.92	3605.1	
838.09	3827	
838.26	5242.1	
838.43	6027.9	
838.6	4147.8	
838.77	3710.9	
838.94	6893.5	
839.11	6590.4	
839.29	3957.4	
839.46	3130	
839.63	5651.7	
839.8	5425.1	
839.97	3861.8	
840.14	3848.8	
840.31	5474.2	
840.48	5675.6	
840.65	3181.2	
840.82	3878.9	
841	5659.2	
841.17	5670.1	
841.34	3555.3	
841.51	3560.7	
841.68	5588.2	
841.85	5384.1	
842.02	3665.9	
842.19	2994.1	
842.36	5503.6	
842.53	5442.8	
842.7	3501.3	
842.87	4358.8	
843.05	7200	
843.22	5350	
843.39	3408.5	
843.56	3626.3	
843.73	5148.6	
843.9	5821	
844.07	5698.1	
844.24	4827.7	
844.41	8455.4	
844.58	4913.8	
844.75	3374.4	
844.92	3677.5	
845.09	5718.6	
845.26	5694.7	
845.43	3472.7	
845.6	3725.9	
845.77	5685.8	
845.94	5412.1	
846.12	3886.4	
846.29	4154	
846.46	5963	
846.63	5651	
846.8	3554.6	
846.97	4128	
847.14	6171.9	
847.31	5616.9	
847.48	4029.7	
847.65	4379.9	
847.82	6014.2	
847.99	5950.7	
848.16	4746.5	
848.33	4329.4	
848.5	5272.2	
848.67	6214.2	
848.84	3512.9	
849.01	3637.9	
849.18	5154.1	
849.35	4775.2	
849.52	4501.4	
849.69	3430.3	
849.86	5911.1	
850.03	6109.8	
850.2	3487.7	
850.37	4269.3	
850.54	6051.7	
850.71	5354.1	
850.88	4220.2	
851.05	3462.4	
851.22	5633.3	
851.39	6287.3	
851.56	3280.8	
851.73	4027	
851.9	4959.5	
852.07	5925.5	
852.24	3893.9	
852.41	3451.5	
852.58	5532.9	
852.75	5055.1	
852.92	3891.8	
853.09	3400.3	
853.26	5328.8	
853.43	6182.8	
853.6	3465.8	
853.77	3005.1	
853.94	6275	
854.11	5657.9	
854.28	5230.5	
854.44	3771.7	
854.61	6681.2	
854.78	6051.1	
854.95	3489.1	
855.12	4444.8	
855.29	4592.9	
855.46	6389	
855.63	3506.1	
855.8	4887.1	
855.97	5250.3	
856.14	6006	
856.31	5008.6	
856.48	3810.6	
856.65	5242.8	
856.82	4963.6	
856.99	3373	
857.16	3807.9	
857.33	6905.8	
857.49	5384.8	
857.66	3816.7	
857.83	4085	
858	5302.2	
858.17	5529.5	
858.34	3300	
858.51	3509.5	
858.68	6395.8	
858.85	6415.6	
859.02	4066.6	
859.19	4309.6	
859.36	4973.2	
859.52	5015.5	
859.69	3499.3	
859.86	4191.5	
860.03	5094.7	
860.2	6280.4	
860.37	3144.3	
860.54	3493.8	
860.71	5928.9	
860.88	6358.3	
861.05	3982.6	
861.21	4436.6	
861.38	6367.1	
861.55	4838	
861.72	3213.9	
861.89	3933.5	
862.06	5930.9	
862.23	6509.8	
862.4	3332.7	
862.56	3631	
862.73	5837.4	
862.9	5418.9	
863.07	4126	
863.24	3189.4	
863.41	4899.4	
863.58	5003.2	
863.75	3562.8	
863.91	4012.7	
864.08	6324.8	
864.25	5845.6	
864.42	4442	
864.59	4943.8	
864.76	6683.9	
864.93	5033.2	
865.09	3442	
865.26	3697.3	
865.43	6203.3	
865.6	6552.8	
865.77	3079.5	
865.94	3452.2	
866.1	6294.1	
866.27	5967.1	
866.44	5266.7	
866.61	3316.3	
866.78	5377.3	
866.95	5802.6	
867.11	3336.8	
867.28	3143.6	
867.45	6072.9	
867.62	5109	
867.79	3993.5	
867.96	3472	
868.12	4993.6	
868.29	5963	
868.46	3026.2	
868.63	4726.7	
868.8	6165.1	
868.97	5844.9	
869.13	3633.8	
869.3	3641.3	
869.47	5785.5	
869.64	6012.2	
869.81	3530.7	
869.97	3571.7	
870.14	5722.7	
870.31	6401.3	
870.48	3532.7	
870.65	4394.3	
870.81	5334.3	
870.98	5267.4	
871.15	3947.8	
871.32	3574.4	
871.48	5788.2	
871.65	6474.3	
871.82	3437.2	
871.99	3861.8	
872.16	6808.8	
872.32	6266.1	
872.49	3529.3	
872.66	3558.7	
872.83	5956.2	
872.99	5186.1	
873.16	4009.9	
873.33	3518.4	
873.5	5554.8	
873.67	5584.1	
873.83	3699.3	
874	4771.8	
874.17	5666.7	
874.34	6848.4	
874.5	4518.5	
874.67	4377.9	
874.84	6281.1	
875.01	4976.6	
875.17	4964.3	
875.34	3448.8	
875.51	5616.9	
875.68	6756.9	
875.84	4223.6	
876.01	5173.9	
876.18	5860.6	
876.34	5808	
876.51	3497.9	
876.68	3407.1	
876.85	5317.9	
877.01	6200.6	
877.18	4922	
877.35	3504.8	
877.52	5448.3	
877.68	4893.3	
877.85	3411.2	
878.02	3431	
878.18	5459.2	
878.35	5165.7	
878.52	2782.5	
878.69	3934.1	
878.85	5939.1	
879.02	5854.5	
879.19	4954.7	
879.35	3775.8	
879.52	5896.1	
879.69	6118.6	
879.86	2981.2	
880.02	3911.6	
880.19	5403.9	
880.36	6728.9	
880.52	4063.2	
880.69	4160.1	
880.86	5963	
881.02	6057.9	
881.19	3857.7	
881.36	3822.9	
881.52	5822.4	
881.69	5143.1	
881.86	3784.6	
882.02	3630.4	
882.19	6206	
882.36	7128.3	
882.52	3614.7	
882.69	4940.4	
882.86	5626.5	
883.02	5519.3	
883.19	4214.7	
883.36	4051.6	
883.52	6015.6	
883.69	6802	
883.86	3564.8	
884.02	3181.9	
884.19	5976	
884.36	5476.3	
884.52	3976.5	
884.69	3718.4	
884.86	5186.8	
885.02	6578.1	
885.19	3890.5	
885.36	4111	
885.52	5480.4	
885.69	5626.5	
885.86	5094	
886.02	4524.6	
886.19	5933.6	
886.35	5364.3	
886.52	3906.8	
886.69	4980.7	
886.85	4990.9	
887.02	6324.8	
887.19	6324.8	
887.35	6324.8	
887.52	6324.8	
887.68	6324.8	
887.85	6324.8	
888.02	6324.8	
888.18	6324.8	
888.35	6324.8	
888.51	6324.8	
888.68	6324.8	
888.85	6324.8	
889.01	6324.8	
889.18	6324.8	
889.35	6324.8	
889.51	6324.8	
889.68	6324.8	
889.84	6324.8	
890.01	6324.8	
890.17	6324.8	
890.34	6324.8	
890.51	6324.8	
890.67	6324.8	
890.84	6324.8	
891	6324.8	
891.17	6324.8	
891.34	6324.8	
891.5	6324.8	
891.67	6324.8	
891.83	6324.8	
892	6324.8	
892.16	6324.8	
892.33	6324.8	
892.5	6324.8	
892.66	6324.8	
892.83	6324.8	
892.99	6324.8	
893.16	6324.8	
893.32	6324.8	
893.49	6324.8	
893.65	6324.8	
893.82	6324.8	
893.99	6324.8	
894.15	6324.8	
894.32	6324.8	
894.48	6324.8	
894.65	6324.8	
894.81	6324.8	
894.98	6324.8	
895.14	6324.8	
895.31	6324.8	
895.47	6324.8	
895.64	6324.8	
895.81	6324.8	
895.97	6324.8	
896.14	6324.8	
896.3	6324.8	
896.47	6324.8	
896.63	6324.8	
896.8	6324.8	
896.96	6324.8	
897.13	6324.8	
897.29	6324.8	
897.46	6324.8	
897.62	6324.8	
897.79	6324.8	
897.95	6324.8	
898.12	6324.8	
898.28	6324.8	
898.45	6324.8	
898.61	6324.8	
898.78	6324.8	
898.94	6324.8	
899.11	6324.8	
899.27	6324.8	
899.44	6324.8	
899.6	6324.8	
899.77	6324.8	
899.93	6324.8	
900.1	6324.8	
900.26	6324.8	
900.43	6324.8	
900.59	6324.8	
900.76	6324.8	
900.92	6324.8	
901.09	6324.8	
901.25	6324.8	
901.42	6324.8	
901.58	6324.8	
901.75	6324.8	
901.91	6324.8	
902.07	6324.8	
902.24	6324.8	
902.4	6324.8	
902.57	6324.8	
902.73	6324.8	
902.9	6324.8	
903.06	6324.8	
903.23	6324.8	
903.39	6324.8	
903.56	6324.8	
903.72	6324.8	
903.88	6324.8	
904.05	6324.8	
904.21	6324.8	
904.38	6324.8	
904.54	6324.8	
904.71	6324.8	
904.87	6324.8	
905.03	6324.8	
905.2	6324.8	
905.36	6324.8	
905.53	6324.8	
905.69	6324.8	
905.86	6324.8	
906.02	6324.8	
906.18	6324.8	
906.35	6324.8	
906.51	6324.8	
906.68	6324.8	
906.84	6324.8	
907.01	6324.8	
907.17	6324.8	
907.33	6324.8	
907.5	6324.8	
907.66	6324.8	
907.83	6324.8	
907.99	6324.8	
908.15	6324.8	
908.32	6324.8	
908.48	6324.8	
908.65	6324.8	
908.81	6324.8	
908.97	6324.8	
909.14	6324.8	
909.3	6324.8	
909.47	6324.8	
909.63	6324.8	
909.79	6324.8	
909.96	6324.8	
910.12	6324.8	
910.28	6324.8	
910.45	6324.8	
910.61	6324.8	
910.78	6324.8	
910.94	6324.8	
911.1	6324.8	
911.27	6324.8	
911.43	6324.8	
911.59	6324.8	
911.76	6324.8	
911.92	6324.8	
912.08	6324.8	
912.25	6324.8	
912.41	6324.8	
912.57	6324.8	
912.74	6324.8	
912.9	6324.8	
913.07	6324.8	
913.23	6324.8	
913.39	6324.8	
913.56	6324.8	
913.72	6324.8	
913.88	6324.8	
914.05	6324.8	
914.21	6324.8	
914.37	6324.8	
914.54	6324.8	
914.7	6324.8	
914.86	6324.8	
915.03	6324.8	
915.19	6324.8	
