Wavelength	Intensities	
nm	a.u.	
179.22	1965.4	
179.44	1963.3	
179.65	1967.4	
179.86	1959.2	
180.08	1894.4	
180.29	4986.1	
180.51	3541.6	
180.72	5731.6	
180.94	6727.6	
181.15	3311.6	
181.37	3254.9	
181.58	5628.5	
181.79	5877	
182.01	3447.4	
182.22	3663.1	
182.44	5847.6	
182.65	4858.5	
182.87	4668	
183.08	4067.9	
183.29	6224.5	
183.51	5093.3	
183.72	3678.8	
183.94	5475.6	
184.15	5459.2	
184.37	5478.3	
184.58	3280.8	
184.79	4505.5	
185.01	5057.1	
185.22	5857.9	
185.44	4777.2	
185.65	4020.2	
185.86	5358.2	
186.08	4948.6	
186.29	3170.3	
186.51	3383.2	
186.72	5098.8	
186.94	6025.8	
187.15	3962.8	
187.36	4080.2	
187.58	7886	
187.79	5558.9	
188.01	4317.8	
188.22	6662.7	
188.43	6772.6	
188.65	5771.9	
188.86	3395.5	
189.08	4108.2	
189.29	5283.8	
189.5	5289.9	
189.72	3802.4	
189.93	3938.9	
190.15	6070.9	
190.36	7250.5	
190.57	4205.8	
190.79	4098.7	
191	6150.7	
191.22	6152.8	
191.43	4193.6	
191.64	3372.3	
191.86	6367.1	
192.07	6073.6	
192.29	3542.3	
192.5	3829	
192.71	6071.5	
192.93	5203.2	
193.14	3766.2	
193.35	3812	
193.57	5206.6	
193.78	6024.4	
194	3037.1	
194.21	3727.3	
194.42	4963.6	
194.64	5530.2	
194.85	4103.4	
195.07	4856.4	
195.28	5557.5	
195.49	4795.7	
195.71	5176.6	
195.92	3506.1	
196.13	5595.7	
196.35	5814.9	
196.56	5537.7	
196.78	4079.6	
196.99	7141.3	
197.2	6739.9	
197.42	4696	
197.63	4154.6	
197.84	4890.5	
198.06	5640.1	
198.27	3803.8	
198.48	5122	
198.7	5246.9	
198.91	5365.7	
199.13	4152.6	
199.34	4143	
199.55	5855.8	
199.77	4736.3	
199.98	3586	
200.19	4253.6	
200.41	5440.1	
200.62	5085.8	
200.83	4313	
201.05	4691.2	
201.26	5365.7	
201.47	5128.8	
201.69	3691.1	
201.9	3553.9	
202.11	5440.1	
202.33	6512.5	
202.54	3936.9	
202.76	4347.8	
202.97	5545.9	
203.18	5606.7	
203.4	4284.4	
203.61	4242	
203.82	5547.9	
204.04	5109.7	
204.25	4207.2	
204.46	4136.2	
204.68	5455.1	
204.89	5709.7	
205.1	3962.1	
205.32	3538.9	
205.53	5884.5	
205.74	6062.7	
205.96	3001	
206.17	4270.7	
206.38	5893.4	
206.6	6008.1	
206.81	4762.2	
207.02	3867.9	
207.24	5731.6	
207.45	6173.3	
207.66	3957.4	
207.88	3370.3	
208.09	5726.1	
208.3	5500.8	
208.52	3519.1	
208.73	4040.6	
208.94	5488.6	
209.15	6260	
209.37	3911.6	
209.58	4112.3	
209.79	6029.2	
210.01	5279	
210.22	3147.7	
210.43	3282.9	
210.65	5470.1	
210.86	5927.5	
211.07	3961.5	
211.29	3588	
211.5	5829.2	
211.71	5395	
211.93	3646.1	
212.14	3597.6	
212.35	5443.5	
212.56	5716.6	
212.78	4162.8	
212.99	3388	
213.2	6431.3	
213.42	5257.8	
213.63	3725.9	
213.84	4009.9	
214.06	4848.2	
214.27	4959.5	
214.48	3924.6	
214.69	4222.2	
214.91	6156.2	
215.12	6317.3	
215.33	4270.7	
215.55	4700.8	
215.76	6786.3	
215.97	5883.1	
216.18	4113.7	
216.4	3974.4	
216.61	5173.2	
216.82	6025.8	
217.04	3639.2	
217.25	3734.8	
217.46	6178	
217.67	5915.9	
217.89	3278.1	
218.1	3364.1	
218.31	5604.6	
218.53	5616.9	
218.74	3801.7	
218.95	3738.9	
219.16	5479.7	
219.38	6451.8	
219.59	3788.1	
219.8	4483.7	
220.01	7174	
220.23	5468.8	
220.44	4849.6	
220.65	3553.9	
220.87	5560.2	
221.08	6168.5	
221.29	3366.2	
221.5	4465.3	
221.72	7628.7	
221.93	5207.3	
222.14	4162.2	
222.35	4924.7	
222.57	5586.2	
222.78	5913.9	
222.99	3894.6	
223.2	4306.9	
223.42	5826.5	
223.63	5953.4	
223.84	3095.8	
224.05	3014.6	
224.27	7083.2	
224.48	6430.6	
224.69	4975.9	
224.9	4151.2	
225.12	5679.7	
225.33	5412.8	
225.54	3325.2	
225.75	3733.4	
225.97	5014.1	
226.18	5343.2	
226.39	3990.8	
226.6	3748.5	
226.82	5264	
227.03	5086.5	
227.24	4133.5	
227.45	3402.4	
227.67	5876.3	
227.88	6509.8	
228.09	4709	
228.3	4649.6	
228.52	5949.3	
228.73	5395.7	
228.94	3821.5	
229.15	3415.3	
229.36	5417.6	
229.58	5263.3	
229.79	3900.7	
230	4528.7	
230.21	6521.4	
230.43	5573.9	
230.64	4123.9	
230.85	4298	
231.06	5924.1	
231.28	5930.2	
231.49	3433.8	
231.7	4052.2	
231.91	5828.5	
232.12	5506.3	
232.34	3444.7	
232.55	4024.9	
232.76	6108.4	
232.97	5687.9	
233.18	3609.2	
233.4	4055	
233.61	5733.6	
233.82	5270.8	
234.03	3823.6	
234.25	3754.6	
234.46	7663.5	
234.67	5477.6	
234.88	4226.3	
235.09	3674.1	
235.31	5808.7	
235.52	5336.3	
235.73	4153.3	
235.94	3459	
236.15	5200.5	
236.37	6665.5	
236.58	3653.6	
236.79	4009.2	
237	5782.8	
237.21	5003.9	
237.43	4311	
237.64	3373.7	
237.85	10089	
238.06	5017.5	
238.27	4334.9	
238.48	3481.5	
238.7	5906.3	
238.91	5305.6	
239.12	3932.1	
239.33	3994.9	
239.54	5053	
239.76	5402.5	
239.97	3910.9	
240.18	3949.2	
240.39	6959	
240.6	5755.5	
240.82	4115.7	
241.03	3353.9	
241.24	5463.3	
241.45	6361.7	
241.66	3607.8	
241.87	4287.1	
242.09	6249.7	
242.3	6696.2	
242.51	4373.8	
242.72	4039.3	
242.93	5983.5	
243.14	5457.8	
243.36	4603.8	
243.57	5028.4	
243.78	6434.7	
243.99	5870.2	
244.2	4001.7	
244.41	3600.3	
244.63	4997.7	
244.84	5892.7	
245.05	4231.1	
245.26	4028.4	
245.47	5804.6	
245.68	6062.7	
245.9	5371.8	
246.11	4239.3	
246.32	5322	
246.53	5761.6	
246.74	6485.9	
246.95	3340.2	
247.16	4984.1	
247.38	5513.8	
247.59	3302	
247.8	4030.4	
248.01	5213.4	
248.22	5427.8	
248.43	3564.8	
248.64	3920.5	
248.86	4833.2	
249.07	5231.9	
249.28	3506.8	
249.49	4116.4	
249.7	6051.7	
249.91	6226.5	
250.12	3286.3	
250.34	3366.9	
250.55	5610.1	
250.76	5505.6	
250.97	4111	
251.18	4215.4	
251.39	6277.7	
251.6	5665.4	
251.81	4204.5	
252.03	4212.7	
252.24	5281	
252.45	6066.1	
252.66	3449.5	
252.87	4435.2	
253.08	5455.1	
253.29	7271.7	
253.5	3464.5	
253.72	4836.6	
253.93	5345.9	
254.14	6552.1	
254.35	3760.8	
254.56	3898	
254.77	5763.7	
254.98	5063.3	
255.19	3730	
255.41	4786.1	
255.62	5639.4	
255.83	6186.2	
256.04	4272.1	
256.25	4159.4	
256.46	6781.5	
256.67	5195.7	
256.88	4131.4	
257.09	4555.4	
257.31	5151.3	
257.52	5264.6	
257.73	5114.5	
257.94	3811.3	
258.15	5319.3	
258.36	5509	
258.57	4812.7	
258.78	3030.3	
258.99	5988.3	
259.2	5307.7	
259.41	3848.1	
259.63	3859.7	
259.84	6300.2	
260.05	6799.9	
260.26	5053.7	
260.47	3731.4	
260.68	6091.3	
260.89	5367	
261.1	4533.5	
261.31	3670.6	
261.52	6066.1	
261.73	6491.4	
261.95	4861.9	
262.16	4298	
262.37	6213.5	
262.58	6352.1	
262.79	4911	
263	3852.2	
263.21	5445.5	
263.42	4984.8	
263.63	3898.6	
263.84	3816.7	
264.05	6111.1	
264.26	6462	
264.47	4795.7	
264.69	4331.5	
264.9	6189.6	
265.11	5659.9	
265.32	3695.9	
265.53	3776.5	
265.74	5606	
265.95	4891.2	
266.16	4076.8	
266.37	4474.8	
266.58	5597.8	
266.79	5261.9	
267	3721.8	
267.21	3481.5	
267.42	5057.8	
267.63	5492.7	
267.84	3956.7	
268.06	3358.7	
268.27	5938.4	
268.48	6223.8	
268.69	3878.2	
268.9	4639.3	
269.11	6257.9	
269.32	4960.2	
269.53	3990.8	
269.74	3648.1	
269.95	5872.2	
270.16	4809.3	
270.37	3967.6	
270.58	4597	
270.79	5345.9	
271	6049	
271.21	4289.1	
271.42	4035.9	
271.63	5580.7	
271.84	5123.3	
272.05	3132.7	
272.26	3611.3	
272.47	5510.4	
272.68	5683.8	
272.89	3790.8	
273.11	4457.1	
273.32	5356.1	
273.53	6430.6	
273.74	4311	
273.95	4203.8	
274.16	6186.2	
274.37	5526.8	
274.58	4317.8	
274.79	3502.7	
275	5629.9	
275.21	6215.6	
275.42	5251.7	
275.63	4468.7	
275.84	5726.8	
276.05	7297.6	
276.26	4188.1	
276.47	3930.7	
276.68	5311.7	
276.89	6532.3	
277.1	4493.9	
277.31	3495.2	
277.52	5857.9	
277.73	5928.9	
277.94	3491.8	
278.15	3848.1	
278.36	5717.2	
278.57	5094	
278.78	3825.6	
278.99	4330.1	
279.2	5077.6	
279.41	5032.5	
279.62	5016.8	
279.83	3501.3	
280.04	6766.5	
280.25	4990.9	
280.46	5016.2	
280.67	3971	
280.88	5115.8	
281.09	6180.8	
281.3	4134.2	
281.51	5299.5	
281.72	5249.6	
281.93	6096.1	
282.14	3743	
282.35	4069.3	
282.56	6001.9	
282.77	6003.3	
282.98	3819.5	
283.19	4737.6	
283.4	7401.4	
283.61	5428.5	
283.82	3536.2	
284.03	4988.9	
284.24	5603.9	
284.45	6169.8	
284.66	4950.6	
284.87	4758.8	
285.08	6088.6	
285.29	6218.3	
285.5	3334.8	
285.71	3887.7	
285.92	6192.4	
286.12	6811.5	
286.33	4858.5	
286.54	3891.1	
286.75	6053.1	
286.96	5380	
287.17	3564.1	
287.38	4859.8	
287.59	5144.5	
287.8	5013.4	
288.01	3857.7	
288.22	4498.7	
288.43	6075	
288.64	4983.4	
288.85	4675.5	
289.06	4390.2	
289.27	5945.9	
289.48	6509.8	
289.69	4965	
289.9	4528.1	
290.11	6187.6	
290.32	5210	
290.53	4769.7	
290.74	4287.8	
290.94	5925.5	
291.15	6055.8	
291.36	3753.9	
291.57	4473.4	
291.78	5240.1	
291.99	4926	
292.2	3588.7	
292.41	4339	
292.62	6077.7	
292.83	5866.1	
293.04	5362.9	
293.25	3607.2	
293.46	5297.4	
293.67	6103.6	
293.88	3721.2	
294.09	3623.5	
294.29	5022.3	
294.5	5647.6	
294.71	3956.7	
294.92	3886.4	
295.13	5304.9	
295.34	6627.2	
295.55	3341.6	
295.76	3468.6	
295.97	5946.6	
296.18	6754.2	
296.39	3482.2	
296.6	3771	
296.81	5659.2	
297.01	5965.7	
297.22	3911.6	
297.43	3721.8	
297.64	5148.6	
297.85	5053.7	
298.06	3039.9	
298.27	3340.9	
298.48	5539.8	
298.69	5244.8	
298.9	3991.5	
299.11	3712.3	
299.31	4977.9	
299.52	5006.6	
299.73	4330.8	
299.94	4218.1	
300.15	5504.3	
300.36	5076.9	
300.57	4319.2	
300.78	4229.7	
300.99	5435.3	
301.2	5677.7	
301.4	3685	
301.61	4110.3	
301.82	5870.8	
302.03	5996.5	
302.24	4610	
302.45	3543	
302.66	5745.9	
302.87	6282.5	
303.08	3736.2	
303.29	5124.7	
303.49	5193.6	
303.7	5559.6	
303.91	3350.5	
304.12	4922.6	
304.33	4959.5	
304.54	5616.2	
304.75	3753.9	
304.96	3596.9	
305.16	5848.3	
305.37	6645	
305.58	3232.4	
305.79	3345	
306	5851	
306.21	4900.8	
306.42	3702	
306.63	5776	
306.83	5326.1	
307.04	6143.9	
307.25	4072	
307.46	4089.8	
307.67	4718.5	
307.88	5977.3	
308.09	3639.9	
308.29	3847.5	
308.5	5642.8	
308.71	6159.6	
308.92	4004.5	
309.13	3588.7	
309.34	5377.3	
309.55	5421	
309.75	4641.4	
309.96	4255	
310.17	5940.5	
310.38	5231.2	
310.59	4496.7	
310.8	3489.7	
311.01	6120.7	
311.21	5373.2	
311.42	3549.8	
311.63	3712.3	
311.84	5265.3	
312.05	5648.3	
312.26	4145.8	
312.46	4527.4	
312.67	5315.8	
312.88	5063.9	
313.09	3622.9	
313.3	3517.7	
313.51	6297.5	
313.71	6667.5	
313.92	3578.5	
314.13	3803.8	
314.34	5685.8	
314.55	5420.3	
314.76	4687.1	
314.96	4037.2	
315.17	5595.7	
315.38	5926.8	
315.59	3582.6	
315.8	3439.2	
316.01	6434.7	
316.21	6467.5	
316.42	3496.6	
316.63	3944.4	
316.84	5388.2	
317.05	6211.5	
317.26	4285	
317.46	3823.6	
317.67	5384.8	
317.88	5900.2	
318.09	4577.2	
318.3	3350.5	
318.5	5218.9	
318.71	5800.5	
318.92	5953.4	
319.13	4251.6	
319.34	6030.6	
319.54	6163	
319.75	3316.3	
319.96	3226.9	
320.17	5940.5	
320.38	6113.9	
320.58	3241.3	
320.79	3948.5	
321	6137.8	
321.21	6265.4	
321.42	3987.4	
321.62	3242.6	
321.83	5106.3	
322.04	5531.6	
322.25	3878.9	
322.46	3635.1	
322.66	5662	
322.87	5804.6	
323.08	4484.4	
323.29	3542.3	
323.5	6647.7	
323.7	5061.9	
323.91	4988.9	
324.12	4442.7	
324.33	5577.3	
324.53	5791.7	
324.74	4278.9	
324.95	4491.9	
325.16	4893.3	
325.37	5317.2	
325.57	3614.7	
325.78	3702.7	
325.99	5608.7	
326.2	4959.5	
326.4	5096.7	
326.61	3262.4	
326.82	5464	
327.03	5665.4	
327.24	5161.6	
327.44	4806.6	
327.65	5830.6	
327.86	4669.4	
328.07	4341.7	
328.27	3408.5	
328.48	6239.5	
328.69	5066.7	
328.9	5266	
329.1	3874.8	
329.31	5399.1	
329.52	6352.1	
329.73	3563.5	
329.93	4087.7	
330.14	5477.6	
330.35	5801.9	
330.56	5973.2	
330.76	4478.2	
330.97	5335	
331.18	5768.4	
331.39	4049.5	
331.59	3274	
331.8	6178.7	
332.01	6290.7	
332.22	3690.4	
332.42	4283.7	
332.63	5603.9	
332.84	5218.9	
333.05	4008.6	
333.25	3666.5	
333.46	5262.6	
333.67	5530.9	
333.88	3751.2	
334.08	4233.8	
334.29	7405.5	
334.5	6232	
334.7	3543	
334.91	5172.5	
335.12	5087.8	
335.33	5915.9	
335.53	4010.6	
335.74	5981.4	
335.95	5283.8	
336.16	5128.8	
336.36	4034.5	
336.57	4648.2	
336.78	4982	
336.98	6119.3	
337.19	4939	
337.4	3979.9	
337.61	6729.6	
337.81	5046.2	
338.02	3717.1	
338.23	4823	
338.43	6315.9	
338.64	5152	
338.85	3626.3	
339.05	4807.3	
339.26	6413.6	
339.47	4953.4	
339.68	3649.5	
339.88	5418.2	
340.09	5741.1	
340.3	6047.7	
340.5	4252.3	
340.71	3215.3	
340.92	4941.7	
341.13	6269.5	
341.33	3527.3	
341.54	4297.3	
341.75	5783.5	
341.95	5387.5	
342.16	4050.2	
342.37	4426.3	
342.57	5073.5	
342.78	5470.1	
342.99	4539.7	
343.19	3260.4	
343.4	5949.3	
343.61	5783.5	
343.81	3826.3	
344.02	3549.1	
344.23	5948.7	
344.43	6388.3	
344.64	4558.1	
344.85	4349.9	
345.06	5814.9	
345.26	6155.5	
345.47	4223.6	
345.68	4935.6	
345.88	4820.9	
346.09	6047	
346.3	4272.7	
346.5	3199.6	
346.71	5521.3	
346.92	5195	
347.12	3309.5	
347.33	4186	
347.54	6043.6	
347.74	6534.4	
347.95	4116.4	
348.16	3050.8	
348.36	5340.4	
348.57	5119.2	
348.78	4134.2	
348.98	4457.1	
349.19	5446.2	
349.39	4980.7	
349.6	3305.4	
349.81	3674.1	
350.01	5745.2	
350.22	5173.2	
350.43	4013.3	
350.63	4889.2	
350.84	5519.3	
351.05	5269.4	
351.25	3612.6	
351.46	3278.8	
351.67	6083.8	
351.87	5212.8	
352.08	3893.2	
352.29	4455.7	
352.49	5978.7	
352.7	5614.8	
352.9	3522.5	
353.11	4435.9	
353.32	6711.2	
353.52	5306.3	
353.73	3435.1	
353.94	4485.7	
354.14	5812.1	
354.35	5618.3	
354.55	3579.8	
354.76	3969	
354.97	5766.4	
355.17	5565	
355.38	3406.5	
355.59	4746.5	
355.79	5149.3	
356	5583.4	
356.2	3991.5	
356.41	3435.1	
356.62	4898.7	
356.82	5427.8	
357.03	4289.8	
357.24	3807.2	
357.44	5122.7	
357.65	5313.1	
357.85	5085.8	
358.06	4032.5	
358.27	4891.2	
358.47	5160.2	
358.68	3312.2	
358.88	4204.5	
359.09	5704.3	
359.3	6163.7	
359.5	4992.3	
359.71	4400.4	
359.91	6655.9	
360.12	5872.9	
360.33	4169	
360.53	4663.9	
360.74	5132.2	
360.94	5231.2	
361.15	4427.7	
361.36	3588	
361.56	6028.5	
361.77	5409.4	
361.97	4866.7	
362.18	3806.5	
362.38	5981.4	
362.59	5070.8	
362.8	3519.8	
363	3410.6	
363.21	4797	
363.41	5471.5	
363.62	4102.1	
363.83	5156.8	
364.03	5557.5	
364.24	6668.9	
364.44	5195.7	
364.65	5135.6	
364.85	5346.6	
365.06	4976.6	
365.27	3743	
365.47	3747.8	
365.68	6313.2	
365.88	5259.2	
366.09	4119.1	
366.29	3852.2	
366.5	5597.8	
366.71	6025.8	
366.91	5226.4	
367.12	4282.3	
367.32	6651.8	
367.53	5840.1	
367.73	4242.7	
367.94	5249.6	
368.14	5873.6	
368.35	6711.9	
368.56	4069.3	
368.76	3566.9	
368.97	5908.4	
369.17	7709.9	
369.38	3683.6	
369.58	3903.4	
369.79	4931.5	
369.99	6253.8	
370.2	5065.3	
370.4	4104.8	
370.61	5597.8	
370.82	6841.6	
371.02	3958.7	
371.23	3283.6	
371.43	4824.3	
371.64	6176.7	
371.84	3989.4	
372.05	5268.1	
372.25	7621.9	
372.46	5961	
372.66	4016.1	
372.87	3865.9	
373.07	5984.8	
373.28	7634.1	
373.48	4878.9	
373.69	4647.5	
373.9	5449	
374.1	5402.5	
374.31	4956.1	
374.51	4526.7	
374.72	6262.7	
374.92	5055.8	
375.13	5128.1	
375.33	4289.8	
375.54	5836	
375.74	5184.1	
375.95	4304.8	
376.15	5640.1	
376.36	5774.6	
376.56	5635.3	
376.77	4394.9	
376.97	4861.9	
377.18	6909.8	
377.38	5858.6	
377.59	5205.3	
377.79	3843.4	
378	5614.8	
378.2	6059.3	
378.41	3873.4	
378.61	3758	
378.82	6146	
379.02	5173.2	
379.23	3996.3	
379.43	5208.7	
379.64	6201.2	
379.84	5773.2	
380.05	3861.8	
380.25	3752.6	
380.46	5940.5	
380.66	5498.1	
380.87	5259.2	
381.07	5659.2	
381.28	6600.6	
381.48	5895.4	
381.69	3898.6	
381.89	3953.3	
382.1	4834.6	
382.3	6072.2	
382.51	5100.1	
382.71	5984.8	
382.91	5987.6	
383.12	6447.7	
383.32	4306.9	
383.53	4487.8	
383.73	5783.5	
383.94	5539.8	
384.14	4371	
384.35	3467.9	
384.55	5464	
384.76	5909.1	
384.96	4287.8	
385.17	4657.8	
385.37	5937.7	
385.58	5175.2	
385.78	4611.3	
385.98	3465.2	
386.19	5388.9	
386.39	5852.4	
386.6	4014	
386.8	4313	
387.01	5881.8	
387.21	5939.8	
387.42	4736.3	
387.62	5413.5	
387.83	5180.7	
388.03	5893.4	
388.23	4310.3	
388.44	5136.3	
388.64	4856.4	
388.85	5012.7	
389.05	4652.3	
389.26	5316.5	
389.46	6967.9	
389.67	6309.1	
389.87	4541	
390.07	4724.7	
390.28	5488.6	
390.48	5106.3	
390.69	3865.2	
390.89	4205.8	
391.1	5285.8	
391.3	6256.5	
391.5	5452.4	
391.71	6055.2	
391.91	5966.4	
392.12	7069.6	
392.32	5502.2	
392.53	4663.9	
392.73	5278.3	
392.93	5552.7	
393.14	4314.4	
393.34	5201.8	
393.55	6044.2	
393.75	5482.4	
393.95	4349.9	
394.16	4308.2	
394.36	5257.8	
394.57	5972.6	
394.77	3746.4	
394.98	4307.6	
395.18	5269.4	
395.38	5416.9	
395.59	5167	
395.79	3971.7	
396	5315.8	
396.2	5882.4	
396.4	4863.9	
396.61	4748.6	
396.81	6084.5	
397.02	5250.3	
397.22	5075.5	
397.42	5234.6	
397.63	5992.4	
397.83	5211.4	
398.04	3915.7	
398.24	4405.2	
398.44	5838.8	
398.65	4749.2	
398.85	3768.9	
399.05	3867.2	
399.26	5157.5	
399.46	6997.2	
399.67	4289.1	
399.87	4014	
400.07	5533.6	
400.28	5825.8	
400.48	4080.2	
400.69	5187.5	
400.89	6140.5	
401.09	6609.5	
401.3	3933.5	
401.5	5195.7	
401.7	6810.9	
401.91	7020.4	
402.11	4293.2	
402.32	4549.9	
402.52	6098.2	
402.72	6021.7	
402.93	4747.2	
403.13	3532.1	
403.33	6873	
403.54	5556.8	
403.74	4431.8	
403.94	5434.6	
404.15	5681.1	
404.35	6840.9	
404.56	4222.2	
404.76	6226.5	
404.96	6165.8	
405.17	5944.6	
405.37	5217.5	
405.57	4713.1	
405.78	6163	
405.98	5582.8	
406.18	4169	
406.39	5192.3	
406.59	6067.4	
406.79	5770.5	
407	4085.7	
407.2	4230.4	
407.4	6137.8	
407.61	6401.3	
407.81	4169.7	
408.01	6524.8	
408.22	5172.5	
408.42	7209.5	
408.62	5266.7	
408.83	4694.6	
409.03	5785.5	
409.23	5436.7	
409.44	4707.6	
409.64	4981.3	
409.84	6565.8	
410.05	6445	
410.25	4856.4	
410.45	4634.6	
410.66	5896.8	
410.86	8514.8	
411.06	4931.5	
411.27	4818.9	
411.47	8189.1	
411.67	6014.9	
411.88	5056.4	
412.08	5318.6	
412.28	6577.4	
412.49	7179.5	
412.69	4700.1	
412.89	4799.8	
413.09	6976.1	
413.3	6830.7	
413.5	4870.1	
413.7	4378.6	
413.91	6013.5	
414.11	6970.6	
414.31	4646.2	
414.52	5103.5	
414.72	6591.7	
414.92	6442.9	
415.12	4644.1	
415.33	5176.6	
415.53	6827.9	
415.73	7083.2	
415.94	5468.8	
416.14	4952	
416.34	5802.6	
416.55	5438.7	
416.75	6143.2	
416.95	5583.4	
417.15	6781.5	
417.36	7589.8	
417.56	6396.5	
417.76	5341.8	
417.97	7150.8	
418.17	6870.9	
418.37	4911	
418.57	4969.1	
418.78	6564.4	
418.98	6198.5	
419.18	5802.6	
419.38	5855.8	
419.59	6280.4	
419.79	5955.5	
419.99	4884.4	
420.2	5349.3	
420.4	6825.2	
420.6	7082.6	
420.8	4764.9	
421.01	4683	
421.21	6571.9	
421.41	6793.1	
421.61	5218.2	
421.82	4797.7	
422.02	6081.1	
422.22	7083.2	
422.42	5653.1	
422.63	5332.2	
422.83	6269.5	
423.03	7465.5	
423.23	5405.3	
423.44	4265.2	
423.64	6334.4	
423.84	6138.4	
424.04	4795	
424.25	4408.6	
424.45	7318.1	
424.65	7246.4	
424.85	4193.6	
425.06	4845.5	
425.26	7264.8	
425.46	5726.8	
425.66	5382.1	
425.87	4971.1	
426.07	7030	
426.27	6881.9	
426.47	5152	
426.67	4483.7	
426.88	7376.1	
427.08	6810.9	
427.28	5437.4	
427.48	4440	
427.69	5711.1	
427.89	6317.3	
428.09	5450.3	
428.29	4552.6	
428.5	7118.7	
428.7	6526.9	
428.9	4339.6	
429.1	4907.6	
429.3	6460	
429.51	6944.7	
429.71	4719.9	
429.91	5517.9	
430.11	6741.2	
430.31	7374.1	
430.52	4965.6	
430.72	5317.9	
430.92	7397.3	
431.12	6755.6	
431.32	4653.7	
431.53	5031.9	
431.73	5623.7	
431.93	7445.7	
432.13	4592.9	
432.33	4418.2	
432.54	6120	
432.74	6563.7	
432.94	4313	
433.14	5415.5	
433.34	6702.3	
433.55	6141.9	
433.75	5366.4	
433.95	7182.9	
434.15	6453.8	
434.35	6130.9	
434.56	4577.9	
434.76	4052.2	
434.96	6437.4	
435.16	6618.4	
435.36	4388.8	
435.56	5514.5	
435.77	6004	
435.97	6167.1	
436.17	6344.6	
436.37	5489.2	
436.57	5986.2	
436.78	5855.8	
436.98	7344.7	
437.18	6124.1	
437.38	6721.4	
437.58	6204.7	
437.78	6272.9	
437.99	4774.5	
438.19	6672.3	
438.39	7580.2	
438.59	4780.6	
438.79	4254.3	
438.99	7458.7	
439.2	6308.4	
439.4	4471.4	
439.6	4439.3	
439.8	6625.9	
440	7733.8	
440.2	5403.2	
440.4	5541.1	
440.61	6914.6	
440.81	7590.5	
441.01	4532.2	
441.21	5489.2	
441.41	7320.1	
441.61	6892.1	
441.81	5710.4	
442.02	6797.9	
442.22	7802.8	
442.42	6924.9	
442.62	4547.9	
442.82	4645.5	
443.02	7266.2	
443.22	6332.3	
443.43	5011.4	
443.63	4524.6	
443.83	6094.8	
444.03	6135	
444.23	5831.9	
444.43	5417.6	
444.63	6432.7	
444.83	7781.6	
445.04	4624.3	
445.24	5954.1	
445.44	6811.5	
445.64	6961.7	
445.84	5496.7	
446.04	5465.3	
446.24	6178	
446.44	7333.8	
446.65	4719.9	
446.85	5113.8	
447.05	6430.6	
447.25	7244.3	
447.45	5163.6	
447.65	4548.5	
447.85	6500.3	
448.05	6221	
448.25	5614.2	
448.46	5433.3	
448.66	6584.9	
448.86	6227.2	
449.06	4344.4	
449.26	5668.1	
449.46	6959.7	
449.66	5949.3	
449.86	5059.8	
450.06	5056.4	
450.26	6141.9	
450.47	6664.1	
450.67	5366.4	
450.87	5644.9	
451.07	6724.2	
451.27	6580.8	
451.47	4628.4	
451.67	5154.1	
451.87	6176.7	
452.07	7506.5	
452.27	4835.9	
452.47	4825.7	
452.67	6593.1	
452.88	7058.7	
453.08	4138.3	
453.28	6243.6	
453.48	7696.3	
453.68	6482.5	
453.88	4670.1	
454.08	5006.6	
454.28	6866.2	
454.48	6584.9	
454.68	5565	
454.88	6100.9	
455.08	6983.6	
455.28	6705.7	
455.48	4612.7	
455.68	5229.1	
455.89	7417.1	
456.09	7057.3	
456.29	4881	
456.49	4941.1	
456.69	7338.6	
456.89	6552.8	
457.09	5511.8	
457.29	5803.3	
457.49	6851.1	
457.69	6957.6	
457.89	5271.5	
458.09	4652.3	
458.29	6541.9	
458.49	7281.2	
458.69	5615.5	
458.89	5031.2	
459.09	7456.7	
459.29	7623.9	
459.49	5062.6	
459.69	5982.1	
459.9	7146	
460.1	6522.8	
460.3	5024.3	
460.5	4847.5	
460.7	7032	
460.9	6720.8	
461.1	4384.7	
461.3	5839.4	
461.5	7650.5	
461.7	7248.4	
461.9	4831.8	
462.1	5362.3	
462.3	6623.1	
462.5	7309.9	
462.7	4911	
462.9	4931.5	
463.1	8376.2	
463.3	8001.4	
463.5	5160.2	
463.7	6036.7	
463.9	6812.9	
464.1	7217.7	
464.3	5218.9	
464.5	5504.9	
464.7	7486.7	
464.9	7140.6	
465.1	6933.1	
465.3	5847	
465.5	7816.4	
465.7	7744.7	
465.9	6029.9	
466.1	6064	
466.3	7570	
466.5	7371.3	
466.7	6858	
466.9	5652.4	
467.1	7275.8	
467.3	8303.8	
467.5	6733.7	
467.7	5477.6	
467.9	8539.3	
468.1	9389.3	
468.3	6383.5	
468.5	6713.2	
468.7	7225.9	
468.9	7212.3	
469.1	5706.3	
469.3	6513.9	
469.5	9208.4	
469.7	6722.1	
469.9	6391.7	
470.1	5470.1	
470.3	7182.9	
470.5	7227.3	
470.7	6788.3	
470.9	5643.5	
471.1	6960.4	
471.3	7452.6	
471.5	5390.9	
471.69	7457.3	
471.89	6812.9	
472.09	6414.9	
472.29	6264.7	
472.49	6683.2	
472.69	6589.7	
472.89	7520.8	
473.09	5266	
473.29	5505.6	
473.49	6736.5	
473.69	7045	
473.89	6580.8	
474.09	5703.6	
474.29	8258.1	
474.49	7997.3	
474.69	6452.5	
474.89	5873.6	
475.09	7040.2	
475.29	6946	
475.49	5192.3	
475.69	5457.2	
475.88	8736	
476.08	7266.9	
476.28	5070.1	
476.48	5687.9	
476.68	7843	
476.88	7734.5	
477.08	5524.7	
477.28	5869.5	
477.48	7156.3	
477.68	7843.7	
477.88	5335	
478.08	5703.6	
478.28	8017.1	
478.48	7285.3	
478.67	5650.3	
478.87	5214.8	
479.07	7933.8	
479.27	7335.8	
479.47	5952.8	
479.67	5871.5	
479.87	7794.6	
480.07	8293.6	
480.27	5122.7	
480.47	6898.2	
480.67	7428.7	
480.87	8053.3	
481.06	5398.4	
481.26	6316.6	
481.46	7273	
481.66	7250.5	
481.86	5907.7	
482.06	7030	
482.26	7115.3	
482.46	8066.3	
482.66	5877.7	
482.86	5456.5	
483.05	7412.3	
483.25	6761	
483.45	8436.9	
483.65	5836.7	
483.85	7000.6	
484.05	7270.3	
484.25	6218.3	
484.45	6820.4	
484.65	8161.8	
484.84	8122.2	
485.04	5771.2	
485.24	5757.5	
485.44	8456.7	
485.64	6634.7	
485.84	4900.8	
486.04	6509.1	
486.24	7008.1	
486.44	7424.6	
486.63	4966.3	
486.83	5796.4	
487.03	6949.4	
487.23	7198.6	
487.43	5031.9	
487.63	7595.9	
487.83	7184.3	
488.02	8176.2	
488.22	6056.5	
488.42	6720.8	
488.62	8032.1	
488.82	7062.8	
489.02	5695.4	
489.22	5635.3	
489.41	7881.9	
489.61	7533.1	
489.81	5436.7	
490.01	5445.5	
490.21	7781.6	
490.41	8525	
490.61	5423.7	
490.8	5498.8	
491	7308.5	
491.2	6575.3	
491.4	6194.4	
491.6	5294	
491.8	7329.7	
491.99	7526.3	
492.19	5096.7	
492.39	5556.8	
492.59	7965.2	
492.79	7980.9	
492.99	6439.5	
493.18	5385.5	
493.38	7967.3	
493.58	8733.9	
493.78	6100.2	
493.98	5702.9	
494.18	7641.7	
494.37	7064.1	
494.57	6268.8	
494.77	6226.5	
494.97	7799.3	
495.17	8101.1	
495.37	5763.7	
495.56	6036.7	
495.76	8234.9	
495.96	7856	
496.16	6961	
496.36	5754.8	
496.55	7956.4	
496.75	7503.1	
496.95	6769.2	
497.15	6076.3	
497.35	7916.1	
497.54	7978.9	
497.74	5900.2	
497.94	7680.6	
498.14	8684.8	
498.34	8462.9	
498.53	5541.1	
498.73	6371.2	
498.93	7275.8	
499.13	8013	
499.33	6104.3	
499.52	6552.8	
499.72	7785	
499.92	8193.2	
500.12	5753.4	
500.32	5949.3	
500.51	8156.4	
500.71	7853.3	
500.91	6870.3	
501.11	6468.9	
501.31	7984.3	
501.5	8497	
501.7	7161.1	
501.9	6072.2	
502.1	7890.1	
502.29	8137.9	
502.49	6541.2	
502.69	6989.7	
502.89	8039	
503.09	7970.7	
503.28	5617.6	
503.48	5735	
503.68	7276.4	
503.88	7290.1	
504.07	6837.5	
504.27	6310.5	
504.47	7669	
504.67	7969.3	
504.86	6664.8	
505.06	6335.7	
505.26	7471	
505.46	9295.7	
505.65	6287.9	
505.85	6531.7	
506.05	7292.1	
506.25	7872.4	
506.44	5614.2	
506.64	6599.2	
506.84	7350.2	
507.04	8429.4	
507.23	5795.8	
507.43	6511.9	
507.63	9427.5	
507.83	7560.4	
508.02	6440.9	
508.22	6023.8	
508.42	9622	
508.62	7342	
508.81	6424.5	
509.01	6937.2	
509.21	7219.8	
509.4	7462.1	
509.6	6482.5	
509.8	5899.5	
510	7512.6	
510.19	9056.8	
510.39	5870.8	
510.59	5928.9	
510.79	7311.2	
510.98	8718.2	
511.18	5943.2	
511.38	6042.9	
511.57	8131.8	
511.77	8001.4	
511.97	6847.7	
512.17	5751.4	
512.36	8142.7	
512.56	8116.1	
512.76	5895.4	
512.95	5604.6	
513.15	8234.9	
513.35	6828.6	
513.55	6668.2	
513.74	5810.8	
513.94	8131.1	
514.14	7474.4	
514.33	6798.6	
514.53	6520.7	
514.73	7472.4	
514.92	7686	
515.12	6075.6	
515.32	5765.7	
515.51	7737.9	
515.71	8416.5	
515.91	7677.8	
516.11	5903.6	
516.3	9531.2	
516.5	7309.9	
516.7	6509.8	
516.89	7004.7	
517.09	7485.3	
517.29	7425.3	
517.48	6765.1	
517.68	6158.2	
517.88	7143.3	
518.07	7838.3	
518.27	6662	
518.47	5610.8	
518.66	8480	
518.86	6958.3	
519.06	5539.8	
519.25	5999.2	
519.45	7445	
519.65	8919.6	
519.84	6702.3	
520.04	7360.4	
520.24	9191.3	
520.43	8017.1	
520.63	6376.7	
520.83	6115.9	
521.02	7187.7	
521.22	7907.2	
521.42	6668.9	
521.61	7188.4	
521.81	7425.3	
522.01	7694.9	
522.2	6417	
522.4	6267.5	
522.6	8137.9	
522.79	6965.8	
522.99	6334.4	
523.18	5601.9	
523.38	7839.6	
523.58	7856	
523.77	7577.5	
523.97	5522.7	
524.17	9804.3	
524.36	8814.5	
524.56	7069.6	
524.76	6536.4	
524.95	7709.9	
525.15	7451.9	
525.34	6335	
525.54	6264.1	
525.74	8082.7	
525.93	7067.5	
526.13	7527.7	
526.33	6178	
526.52	8385.1	
526.72	7881.3	
526.91	7519.5	
527.11	6738.5	
527.31	8532.5	
527.5	8905.3	
527.7	6640.9	
527.89	5591.6	
528.09	7324.2	
528.29	7875.8	
528.48	7025.9	
528.68	6669.6	
528.87	8264.9	
529.07	8416.5	
529.27	6518.7	
529.46	6071.5	
529.66	7829.4	
529.85	8325.7	
530.05	5793.7	
530.25	6715.3	
530.44	9341.5	
530.64	7900.4	
530.83	6251.1	
531.03	6638.1	
531.23	8290.9	
531.42	8205.5	
531.62	7383.6	
531.81	6471.6	
532.01	8464.9	
532.21	8963.3	
532.4	6205.3	
532.6	6526.9	
532.79	9387.2	
532.99	8454.7	
533.18	6492.1	
533.38	7651.9	
533.58	7910.6	
533.77	8740	
533.97	6505.7	
534.16	7412.3	
534.36	8994	
534.55	7929.7	
534.75	7565.2	
534.95	6570.6	
535.14	8701.8	
535.34	7914.7	
535.53	6111.1	
535.73	8282.7	
535.92	9376.3	
536.12	8172.8	
536.31	6403.3	
536.51	7666.2	
536.71	8440.4	
536.9	8083.3	
537.1	6546	
537.29	6725.5	
537.49	8900.5	
537.68	7889.5	
537.88	7077.1	
538.07	6217	
538.27	8125	
538.46	9142.8	
538.66	6093.4	
538.86	6571.9	
539.05	8172.1	
539.25	8572.1	
539.44	6821.8	
539.64	6407.4	
539.83	7966.6	
540.03	9042.5	
540.22	6324.1	
540.42	6516	
540.61	8373.5	
540.81	8413.7	
541	7107.8	
541.2	7651.2	
541.39	7851.9	
541.59	8234.9	
541.78	7314	
541.98	6358.9	
542.18	7465.5	
542.37	7456.7	
542.57	6818.4	
542.76	7383.6	
542.96	7645.1	
543.15	8390.5	
543.35	6873	
543.54	6135	
543.74	8695.7	
543.93	8271.1	
544.13	6857.3	
544.32	7931.1	
544.52	8691.6	
544.71	7722.2	
544.91	5912.5	
545.1	7269.6	
545.3	7724.3	
545.49	8519.5	
545.69	5871.5	
545.88	6572.6	
546.08	9499.8	
546.27	9056.1	
546.47	7149.5	
546.66	6300.2	
546.86	8774.2	
547.05	9458.9	
547.24	6618.4	
547.44	6365.8	
547.63	7634.8	
547.83	8893.6	
548.02	6797.9	
548.22	7029.3	
548.41	7508.5	
548.61	8850.6	
548.8	6368.5	
549	6264.7	
549.19	8187.1	
549.39	8487.5	
549.58	5976.7	
549.78	6689.3	
549.97	8670.4	
550.17	8088.1	
550.36	8357.8	
550.55	8604.2	
550.75	8095.6	
550.94	9069.8	
551.14	6296.8	
551.33	6760.3	
551.53	7421.8	
551.72	8432.2	
551.92	6728.3	
552.11	6427.9	
552.31	8417.2	
552.5	8546.9	
552.69	8336.6	
552.89	6172.6	
553.08	8368.7	
553.28	8097.7	
553.47	6427.9	
553.67	7748.1	
553.86	9214.5	
554.06	7400.7	
554.25	5722.7	
554.44	6375.3	
554.64	9904	
554.83	9441.1	
555.03	6263.4	
555.22	6658.6	
555.42	8650.6	
555.61	8316.8	
555.8	6490.7	
556	6845.7	
556.19	7499.7	
556.39	8948.3	
556.58	6508.4	
556.78	6530.3	
556.97	8226.7	
557.16	7948.2	
557.36	7831.4	
557.55	6178	
557.75	7243	
557.94	9166	
558.13	6311.2	
558.33	6016.2	
558.52	8899.8	
558.72	7725.6	
558.91	6173.3	
559.1	6423.1	
559.3	7436.2	
559.49	7141.9	
559.69	5756.2	
559.88	6783.6	
560.07	8328.4	
560.27	8600.1	
560.46	6986.3	
560.66	7164.5	
560.85	8051.9	
561.04	7268.2	
561.24	6229.9	
561.43	6417	
561.63	7468.9	
561.82	7811.6	
562.01	7774.1	
562.21	6675.7	
562.4	8243.1	
562.59	9258.9	
562.79	6553.5	
562.98	6154.8	
563.18	8132.5	
563.37	9645.3	
563.56	7089.4	
563.76	6059.9	
563.95	7628	
564.14	7493.5	
564.34	6472.3	
564.53	6281.8	
564.73	8140	
564.92	8571.4	
565.11	6613.6	
565.31	5987.6	
565.5	8731.9	
565.69	7604.8	
565.89	6208.8	
566.08	6567.8	
566.27	8582.4	
566.47	9054.8	
566.66	7214.3	
566.85	5821	
567.05	8178.2	
567.24	7574.8	
567.44	6158.9	
567.63	7599.3	
567.82	8439.7	
568.02	8146.1	
568.21	6161.7	
568.4	6611.5	
568.6	7982.3	
568.79	8049.2	
568.98	5963	
569.18	6113.9	
569.37	7945.4	
569.56	10163	
569.76	6513.2	
569.95	7632.8	
570.14	8374.8	
570.34	8314.1	
570.53	6034.7	
570.72	6054.5	
570.91	8877.9	
571.11	7935.9	
571.3	6551.5	
571.49	7535.8	
571.69	8053.3	
571.88	7536.5	
572.07	7178.1	
572.27	7154.9	
572.46	7460.8	
572.65	8718.2	
572.85	6319.3	
573.04	6705.7	
573.23	8843.8	
573.43	8071	
573.62	6009.4	
573.81	6653.2	
574	8082.6	
574.2	7918.8	
574.39	6400.6	
574.58	6574.7	
574.78	8998.8	
574.97	8202.1	
575.16	6953.5	
575.36	7130.3	
575.55	8535.9	
575.74	8746.2	
575.93	6020.3	
576.13	7108.5	
576.32	7851.2	
576.51	8535.9	
576.71	6429.9	
576.9	7879.2	
577.09	8847.9	
577.28	8391.2	
577.48	6944	
577.67	5892.7	
577.86	8021.9	
578.05	8374.1	
578.25	6614.3	
578.44	6722.8	
578.63	8188.5	
578.83	9318.3	
579.02	5950.7	
579.21	7488.7	
579.4	8350.3	
579.6	7968	
579.79	6823.1	
579.98	9103.2	
580.17	8745.5	
580.37	8740.7	
580.56	6202.6	
580.75	7012.9	
580.94	9234.3	
581.14	9133.9	
581.33	7420.5	
581.52	6378.7	
581.71	8507.9	
581.91	9267.7	
582.1	6032.6	
582.29	6641.6	
582.48	8116.1	
582.68	8054	
582.87	7138.5	
583.06	6776.7	
583.25	8437.6	
583.45	7808.2	
583.64	7417.1	
583.83	8202.1	
584.02	7950.2	
584.21	8326.4	
584.41	7400	
584.6	6653.2	
584.79	8114.7	
584.98	8951	
585.18	6087.2	
585.37	6090.7	
585.56	7733.8	
585.75	8514.8	
585.94	6300.2	
586.14	7094.8	
586.33	9112.1	
586.52	8084	
586.71	6881.9	
586.91	6569.9	
587.1	7507.9	
587.29	8662.9	
587.48	6611.5	
587.67	6552.8	
587.87	8381.7	
588.06	8629.5	
588.25	7894.9	
588.44	7068.9	
588.63	8225.3	
588.83	8800.1	
589.02	6580.8	
589.21	6451.1	
589.4	8047.2	
589.59	7827.3	
589.78	5793.7	
589.98	6114.6	
590.17	7641.7	
590.36	8183	
590.55	5453.7	
590.74	6468.9	
590.94	9640.5	
591.13	8172.8	
591.32	6149.4	
591.51	5772.5	
591.7	8579.6	
591.89	8010.3	
592.09	5774.6	
592.28	6317.3	
592.47	7152.9	
592.66	9076.6	
592.85	5786.9	
593.05	6079.7	
593.24	7747.5	
593.43	8555	
593.62	6049.7	
593.81	6632.7	
594	7826	
594.19	8134.5	
594.39	6018.3	
594.58	5925.5	
594.77	8256	
594.96	8785.1	
595.15	5967.1	
595.34	6626.5	
595.54	8335.9	
595.73	7316.7	
595.92	5264	
596.11	6490	
596.3	8785.1	
596.49	7409.6	
596.68	6279.1	
596.88	6718	
597.07	8444.5	
597.26	7180.9	
597.45	5731.6	
597.64	7021.1	
597.83	7445	
598.02	8155.7	
598.22	5834.7	
598.41	6604.7	
598.6	7932.5	
598.79	7357.7	
598.98	5936.4	
599.17	6856.6	
599.36	7859.4	
599.55	9196.1	
599.74	8020.5	
599.94	7822.6	
600.13	8491.6	
600.32	7288	
600.51	5649.7	
600.7	5698.1	
600.89	9202.9	
601.08	9176.3	
601.27	5565.7	
601.47	6569.9	
601.66	8481.3	
601.85	9058.8	
602.04	6275.7	
602.23	6528.9	
602.42	7363.8	
602.61	8113.4	
602.8	6198.5	
602.99	5949.3	
603.18	7761.8	
603.37	8061.5	
603.57	6577.4	
603.76	7128.3	
603.95	8759.2	
604.14	8362.5	
604.33	5936.4	
604.52	6327.5	
604.71	8007.6	
604.9	7612.3	
605.09	6944	
605.28	6834.1	
605.47	8633.6	
605.66	8332.5	
605.86	6584.2	
606.05	6011.5	
606.24	8638.3	
606.43	7031.4	
606.62	6268.8	
606.81	7051.8	
607	8467	
607.19	7809.6	
607.38	5709.1	
607.57	6099.5	
607.76	7486	
607.95	6948.8	
608.14	6414.2	
608.33	7069.6	
608.52	7588.4	
608.72	8420.6	
608.91	5820.3	
609.1	5526.8	
609.29	7661.5	
609.48	7042.3	
609.67	6540.5	
609.86	5685.2	
610.05	7198.6	
610.24	7563.1	
610.43	5468.8	
610.62	5147.9	
610.81	8772.8	
611	8481.3	
611.19	5691.3	
611.38	6400.6	
611.57	7901.1	
611.76	9295	
611.95	5410.1	
612.14	5300.8	
612.33	7647.8	
612.52	7153.6	
612.71	6082.5	
612.9	5129.5	
613.09	6827.9	
613.28	9174.9	
613.47	5810.8	
613.66	6719.4	
613.85	7828.7	
614.04	7364.5	
614.24	5816.9	
614.43	5001.8	
614.62	7915.4	
614.81	7918.8	
615	6455.2	
615.19	6482.5	
615.38	7193.1	
615.57	7574.1	
615.76	6242.2	
615.95	7206.1	
616.14	7874.4	
616.33	7619.8	
616.52	6622.4	
616.71	6844.3	
616.9	8010.3	
617.09	7841.7	
617.28	5875.6	
617.47	7411.6	
617.66	6991.8	
617.85	7031.4	
618.04	6870.3	
618.22	6313.2	
618.41	7346.7	
618.6	8313.4	
618.79	6184.2	
618.98	5781.4	
619.17	8685.4	
619.36	6888.7	
619.55	5969.1	
619.74	6055.2	
619.93	7795.9	
620.12	7252.5	
620.31	6595.1	
620.5	6727.6	
620.69	8404.9	
620.88	8767.4	
621.07	7589.8	
621.26	6455.9	
621.45	7983.7	
621.64	8056	
621.83	6543.9	
622.02	5751.4	
622.21	8086.7	
622.4	7752.9	
622.59	7099.6	
622.78	6888	
622.97	7354.9	
623.16	8380.3	
623.35	6487.3	
623.54	5619.6	
623.72	7618.4	
623.91	7733.1	
624.1	6775.4	
624.29	5381.4	
624.48	8783.7	
624.67	8022.6	
624.86	6692.8	
625.05	5672.2	
625.24	8935.3	
625.43	7242.3	
625.62	8557.1	
625.81	5883.1	
626	8377.6	
626.19	7578.2	
626.38	6703	
626.56	6188.3	
626.75	7406.8	
626.94	8203.5	
627.13	6674.3	
627.32	5410.7	
627.51	8134.5	
627.7	9494.4	
627.89	5565.7	
628.08	6686.6	
628.27	7241.6	
628.46	7504.4	
628.65	5851.7	
628.83	5550.7	
629.02	8098.4	
629.21	7348.8	
629.4	6369.2	
629.59	6533.7	
629.78	7306.5	
629.97	8258.1	
630.16	6578.1	
630.35	6011.5	
630.54	8687.5	
630.72	8479.3	
630.91	5993	
631.1	6582.2	
631.29	7887.4	
631.48	8011	
631.67	6709.1	
631.86	6154.1	
632.05	7447.1	
632.24	7559.1	
632.42	5729.5	
632.61	6346	
632.8	7714.7	
632.99	7197.9	
633.18	6398.5	
633.37	6822.5	
633.56	7963.9	
633.75	7687.4	
633.93	6367.8	
634.12	5982.8	
634.31	8692.3	
634.5	8297	
634.69	6065.4	
634.88	6655.2	
635.07	7616.4	
635.25	8303.8	
635.44	7040.9	
635.63	7325.6	
635.82	7533.1	
636.01	6995.2	
636.2	7001.3	
636.39	6567.2	
636.57	8761.2	
636.76	8437.6	
636.95	5935.7	
637.14	7342.7	
637.33	7961.1	
637.52	9039.7	
637.7	5722	
637.89	6677.7	
638.08	7565.9	
638.27	9126.4	
638.46	6771.3	
638.65	7228.6	
638.83	9058.8	
639.02	7333.1	
639.21	6713.9	
639.4	7238.9	
639.59	7922.2	
639.78	7475.1	
639.96	5922.7	
640.15	6014.2	
640.34	7733.1	
640.53	7954.3	
640.72	5634	
640.91	6009.4	
641.09	7190.4	
641.28	8609.7	
641.47	6000.5	
641.66	6829.3	
641.85	7905.2	
642.03	8282	
642.22	6636.1	
642.41	6152.1	
642.6	7320.8	
642.79	6666.8	
642.97	5956.9	
643.16	6680.5	
643.35	7328.3	
643.54	7051.2	
643.73	5890	
643.91	6712.6	
644.1	6987.7	
644.29	7619.1	
644.48	6014.9	
644.67	6025.8	
644.85	7208.2	
645.04	7527.7	
645.23	5560.9	
645.42	5812.8	
645.6	7125.6	
645.79	8344.8	
645.98	5942.5	
646.17	4880.3	
646.36	6887.3	
646.54	7630	
646.73	6786.3	
646.92	5588.9	
647.11	7125.6	
647.29	8209.6	
647.48	5602.6	
647.67	5420.3	
647.86	8551.6	
648.05	8483.4	
648.23	6019	
648.42	7303.7	
648.61	7815.7	
648.8	7499.7	
648.98	5581.4	
649.17	5896.8	
649.36	7083.9	
649.55	6510.5	
649.73	5625.1	
649.92	6436.1	
650.11	7093.5	
650.3	7363.8	
650.48	5780.1	
650.67	5578	
650.86	7866.9	
651.05	6504.3	
651.23	5783.5	
651.42	5640.8	
651.61	7111.2	
651.79	7240.3	
651.98	5905.7	
652.17	5492	
652.36	7525.6	
652.54	6528.9	
652.73	5621	
652.92	5377.3	
653.11	7618.4	
653.29	7679.9	
653.48	4828.4	
653.67	5860.6	
653.85	7367.9	
654.04	8517.5	
654.23	6171.9	
654.42	5686.5	
654.6	6920.1	
654.79	7550.9	
654.98	5119.2	
655.16	5755.5	
655.35	6464.8	
655.54	6471.6	
655.73	5264	
655.91	5126.1	
656.1	7699.7	
656.29	6450.4	
656.47	4694.6	
656.66	6552.8	
656.85	6692.1	
657.03	6681.8	
657.22	5187.5	
657.41	5342.5	
657.59	6723.5	
657.78	6597.2	
657.97	4918.5	
658.16	5750	
658.34	7512.6	
658.53	7913.4	
658.72	6578.8	
658.9	7120.1	
659.09	6857.3	
659.28	7025.9	
659.46	5399.1	
659.65	5399.1	
659.84	6625.2	
660.02	7204.8	
660.21	5241.4	
660.4	5164.3	
660.58	7660.8	
660.77	7021.1	
660.96	5812.1	
661.14	4832.5	
661.33	8157.1	
661.52	8043.7	
661.7	4729.4	
661.89	8654.7	
662.08	6616.3	
662.26	6137.1	
662.45	5074.9	
662.64	5260.5	
662.82	7309.2	
663.01	6456.6	
663.2	5297.4	
663.38	6093.4	
663.57	7268.2	
663.75	7094.8	
663.94	5584.8	
664.13	6901.7	
664.31	6559	
664.5	7359	
664.69	5711.1	
664.87	6487.3	
665.06	6311.8	
665.25	7116.7	
665.43	6716	
665.62	6728.3	
665.8	7443.7	
665.99	6700.3	
666.18	5571.8	
666.36	5671.5	
666.55	7509.9	
666.74	7358.4	
666.92	5153.4	
667.11	6836.8	
667.29	6724.8	
667.48	7319.4	
667.67	6486.6	
667.85	5463.3	
668.04	6707.1	
668.22	6734.4	
668.41	5587.5	
668.6	5848.3	
668.78	6550.8	
668.97	6790.4	
669.15	6068.1	
669.34	4907.6	
669.53	6606.1	
669.71	6926.2	
669.9	5117.2	
670.08	5854.5	
670.27	6554.9	
670.46	7193.1	
670.64	6040.1	
670.83	6249.7	
671.01	6413.6	
671.2	7111.2	
671.38	5252.4	
671.57	5132.2	
671.76	7768.6	
671.94	8345.5	
672.13	5068	
672.31	6223.1	
672.5	7344.7	
672.69	6429.9	
672.87	5190.2	
673.06	5504.3	
673.24	7120.1	
673.43	6607.4	
673.61	5996.5	
673.8	5515.2	
673.98	7286	
674.17	7523.6	
674.36	6118.6	
674.54	6016.9	
674.73	7127.6	
674.91	7306.5	
675.1	5668.1	
675.28	5291.3	
675.47	6806.1	
675.65	7367.9	
675.84	5481	
676.03	5879	
676.21	6602	
676.4	6152.1	
676.58	6414.9	
676.77	6099.5	
676.95	8222.6	
677.14	6574.7	
677.32	5243.5	
677.51	4960.2	
677.69	7350.2	
677.88	6201.9	
678.06	5102.9	
678.25	5160.9	
678.44	6820.4	
678.62	6520	
678.81	4826.4	
678.99	5927.5	
679.18	7716.1	
679.36	7271.7	
679.55	5470.8	
679.73	6199.9	
679.92	7178.1	
680.1	6637.5	
680.29	6797.2	
680.47	5502.2	
680.66	6570.6	
680.84	7410.2	
681.03	4744.5	
681.21	6051.7	
681.4	6552.1	
681.58	6410.1	
681.77	5228.5	
681.95	5143.8	
682.14	7443	
682.32	7806.9	
682.51	6218.3	
682.69	4965	
682.88	6556.2	
683.06	7212.3	
683.25	5890.6	
683.43	6330.3	
683.62	6770.6	
683.8	7275.8	
683.99	6440.9	
684.17	5710.4	
684.36	8178.2	
684.54	6763.8	
684.73	4887.1	
684.91	5108.3	
685.1	7238.9	
685.28	6495.5	
685.46	5713.2	
685.65	5896.1	
685.83	7456.7	
686.02	6829.3	
686.2	5288.5	
686.39	5375.2	
686.57	6340.5	
686.76	8089.5	
686.94	5313.8	
687.13	5459.9	
687.31	7240.9	
687.5	6762.4	
687.68	4767	
687.86	6208.1	
688.05	8581	
688.23	6201.2	
688.42	6207.4	
688.6	5292.6	
688.79	6595.1	
688.97	6649.8	
689.16	5712.5	
689.34	4604.5	
689.52	7473.7	
689.71	7656.7	
689.89	6027.9	
690.08	5285.8	
690.26	6911.2	
690.45	6733.7	
690.63	6244.3	
690.81	5416.2	
691	6619.7	
691.18	6620.4	
691.37	5674.2	
691.55	8051.2	
691.74	6605.4	
691.92	8700.5	
692.1	5650.3	
692.29	4990.2	
692.47	6834.8	
692.66	6005.3	
692.84	5298.1	
693.02	5825.1	
693.21	6198.5	
693.39	6787.7	
693.58	5917.9	
693.76	5298.8	
693.94	7972.7	
694.13	7776.1	
694.31	5244.2	
694.5	6318	
694.68	6484.6	
694.86	6930.3	
695.05	5593	
695.23	6090	
695.42	7227.3	
695.6	9712.8	
695.78	6314.6	
695.97	5319.3	
696.15	7303.7	
696.34	6656.6	
696.52	5126.1	
696.7	5945.3	
696.89	7098.9	
697.07	6475.7	
697.25	5917.3	
697.44	7539.3	
697.62	6995.2	
697.81	7484.6	
697.99	5638.1	
698.17	6053.1	
698.36	6367.8	
698.54	7000.6	
698.72	5962.3	
698.91	4919.2	
699.09	6655.2	
699.28	6509.1	
699.46	5657.9	
699.64	5453.1	
699.83	6419	
700.01	7811	
700.19	6336.4	
700.38	4653.7	
700.56	7734.5	
700.74	6461.3	
700.93	5040.7	
701.11	5898.1	
701.29	7089.4	
701.48	8175.5	
701.66	5244.8	
701.84	5309	
702.03	6602.7	
702.21	7285.3	
702.39	4902.2	
702.58	5485.8	
702.76	7029.3	
702.94	7079.1	
703.13	4838	
703.31	7474.4	
703.49	6222.4	
703.68	7327.6	
703.86	5036.6	
704.04	6161.7	
704.23	6819.1	
704.41	7325.6	
704.59	5169.8	
704.78	6521.4	
704.96	8010.3	
705.14	7354.3	
705.33	5001.8	
705.51	5869.5	
705.69	6660.7	
705.87	7543.4	
706.06	6183.5	
706.24	4939.7	
706.42	6989	
706.61	7271	
706.79	6216.3	
706.97	4945.2	
707.16	6368.5	
707.34	7073	
707.52	6117.3	
707.7	5127.4	
707.89	6563.7	
708.07	6232.7	
708.25	6081.8	
708.44	6534.4	
708.62	6464.1	
708.8	7706.5	
708.98	6406	
709.17	5295.4	
709.35	6910.5	
709.53	6934.4	
709.72	4910.3	
709.9	5440.8	
710.08	7210.2	
710.26	7297.6	
710.45	6727.6	
710.63	5380.7	
710.81	6834.1	
710.99	6868.2	
711.18	5941.8	
711.36	5483.8	
711.54	6684.6	
711.72	7474.4	
711.91	5488.6	
712.09	4912.4	
712.27	6913.3	
712.45	7517.4	
712.64	5844.2	
712.82	4762.2	
713	6246.3	
713.18	6486.6	
713.37	5011.4	
713.55	6238.8	
713.73	7477.1	
713.91	5995.8	
714.1	5378.6	
714.28	4895.3	
714.46	7167.9	
714.64	6311.2	
714.83	4367.6	
715.01	5229.1	
715.19	6507.8	
715.37	5883.1	
715.55	4968.4	
715.74	5315.8	
715.92	7542.7	
716.1	5412.1	
716.28	6559	
716.47	5432.6	
716.65	6165.1	
716.83	6201.2	
717.01	5315.2	
717.19	5428.5	
717.38	8406.2	
717.56	5850.4	
717.74	5513.1	
717.92	4631.8	
718.1	7149.5	
718.29	6262.7	
718.47	4172.4	
718.65	4860.5	
718.83	6976.1	
719.01	6818.4	
719.2	4001.7	
719.38	5233.2	
719.56	6554.9	
719.74	8177.5	
719.92	4691.9	
720.11	5888.6	
720.29	6587	
720.47	5717.9	
720.65	4284.4	
720.83	5272.2	
721.02	6130.9	
721.2	5868.8	
721.38	5292	
721.56	4554	
721.74	5352	
721.92	5575.9	
722.11	5852.4	
722.29	5541.1	
722.47	6944.7	
722.65	6024.4	
722.83	4560.8	
723.01	5494	
723.2	6118.6	
723.38	6399.2	
723.56	3951.9	
723.74	5162.2	
723.92	5593.7	
724.1	6774	
724.29	4471.4	
724.47	5713.8	
724.65	5700.9	
724.83	5560.9	
725.01	4339	
725.19	5298.8	
725.37	5638.7	
725.56	5739.8	
725.74	4214.7	
725.92	4408.6	
726.1	5516.5	
726.28	5850.4	
726.46	4916.5	
726.64	4596.3	
726.83	5843.5	
727.01	6132.3	
727.19	4155.3	
727.37	5024.3	
727.55	5933	
727.73	6552.8	
727.91	4156.7	
728.09	4050.9	
728.28	6561.7	
728.46	7219.1	
728.64	5148.6	
728.82	5072.8	
729	7636.9	
729.18	6784.2	
729.36	4197.7	
729.54	6721.4	
729.72	7815	
729.91	6087.9	
730.09	6257.2	
730.27	4938.3	
730.45	5832.6	
730.63	6591.7	
730.81	5475.6	
730.99	4493.2	
731.17	7056.6	
731.35	5573.2	
731.53	5070.8	
731.71	4616.8	
731.9	6821.1	
732.08	7017	
732.26	4904.9	
732.44	4553.3	
732.62	7063.4	
732.8	6527.6	
732.98	5343.2	
733.16	4381.3	
733.34	6511.9	
733.52	5320.6	
733.7	4942.4	
733.88	5239.4	
734.07	6403.3	
734.25	6114.6	
734.43	4349.9	
734.61	6079.1	
734.79	7712	
734.97	5959.6	
735.15	4429.8	
735.33	4775.2	
735.51	6365.1	
735.69	5969.1	
735.87	6044.9	
736.05	5098.1	
736.23	6217	
736.41	5967.1	
736.59	4870.8	
736.77	4970.4	
736.95	6608.8	
737.13	5967.1	
737.32	4517.8	
737.5	4765.6	
737.68	7226.6	
737.86	5896.1	
738.04	4222.2	
738.22	6296.1	
738.4	5721.3	
738.58	6014.9	
738.76	5007.3	
738.94	3889.8	
739.12	5829.2	
739.3	5745.9	
739.48	5664	
739.66	5375.2	
739.84	6090	
740.02	6104.3	
740.2	3900.7	
740.38	4361.5	
740.56	6559	
740.74	5258.5	
740.92	5083.7	
741.1	4997	
741.28	5892.7	
741.46	5715.9	
741.64	4588.1	
741.82	5110.4	
742	5991	
742.18	5931.6	
742.36	4795	
742.54	4343.1	
742.72	6561	
742.9	5294.7	
743.08	5231.9	
743.26	3908.2	
743.44	6805.4	
743.62	6594.5	
743.8	5382.1	
743.98	4364.2	
744.16	6374.6	
744.34	5980.1	
744.52	5339.1	
744.7	5231.9	
744.88	6540.5	
745.06	5991	
745.24	5363.6	
745.42	5540.4	
745.6	6544.6	
745.78	6277	
745.96	4145.8	
746.14	4396.3	
746.32	7410.2	
746.5	6643.6	
746.68	5135.6	
746.86	4545.1	
747.03	7129	
747.21	5285.8	
747.39	5105.6	
747.57	4533.5	
747.75	6187.6	
747.93	6692.1	
748.11	4493.2	
748.29	4429.8	
748.47	7877.9	
748.65	5884.5	
748.83	5285.8	
749.01	4954	
749.19	6412.2	
749.37	5506.3	
749.55	4872.8	
749.73	4864.6	
749.91	5995.1	
750.09	5744.6	
750.26	4967	
750.44	4341	
750.62	6096.8	
750.8	6091.3	
750.98	4212	
751.16	4584	
751.34	6228.6	
751.52	5435.3	
751.7	5369.8	
751.88	4222.2	
752.06	6737.8	
752.24	6419.7	
752.42	4076.1	
752.59	4485.7	
752.77	6060.6	
752.95	7457.3	
753.13	5345.9	
753.31	4646.2	
753.49	5687.2	
753.67	6216.3	
753.85	4991.6	
754.03	4543.1	
754.21	6513.2	
754.38	6939.2	
754.56	4807.9	
754.74	3733.4	
754.92	5736.4	
755.1	6494.8	
755.28	3854.3	
755.46	3890.5	
755.64	7396.6	
755.82	7565.9	
755.99	4303.5	
756.17	4479.6	
756.35	4996.4	
756.53	6696.2	
756.71	3293.1	
756.89	4276.8	
757.07	6217.6	
757.25	5254.4	
757.42	4910.3	
757.6	5815.5	
757.78	6279.1	
757.96	5161.6	
758.14	4495.3	
758.32	3969	
758.5	4715.1	
758.67	5672.9	
758.85	4300.1	
759.03	4430.4	
759.21	5773.9	
759.39	5203.2	
759.57	3843.4	
759.75	5070.1	
759.92	6453.8	
760.1	5683.8	
760.28	5434.6	
760.46	5737	
760.64	5444.2	
760.82	5179.3	
760.99	5196.4	
761.17	4356	
761.35	6249	
761.53	5214.8	
761.71	4549.2	
761.89	5252.4	
762.06	6173.3	
762.24	5565	
762.42	4536.3	
762.6	4291.2	
762.78	5517.2	
762.96	6344.6	
763.13	4934.2	
763.31	4614.8	
763.49	6483.9	
763.67	5551.4	
763.85	5426.4	
764.02	6102.9	
764.2	6722.1	
764.38	5827.8	
764.56	4453.6	
764.74	5405.3	
764.91	6886	
765.09	5681.1	
765.27	4024.9	
765.45	3945.8	
765.63	6858.6	
765.8	6752.8	
765.98	3631	
766.16	4083.6	
766.34	5270.8	
766.52	4989.5	
766.69	5016.8	
766.87	3866.6	
767.05	5644.2	
767.23	6475.7	
767.41	4189.5	
767.58	4454.3	
767.76	6346	
767.94	6404	
768.12	4249.5	
768.29	4999.1	
768.47	5798.5	
768.65	6600.6	
768.83	3850.2	
769	5057.1	
769.18	5310.4	
769.36	6015.6	
769.54	5159.5	
769.72	3970.3	
769.89	6359.6	
770.07	6565.1	
770.25	4308.2	
770.43	5611.4	
770.6	7214.3	
770.78	7589.1	
770.96	4521.2	
771.14	5173.9	
771.31	6309.1	
771.49	5608	
771.67	3616	
771.85	3839.9	
772.02	4871.4	
772.2	5613.5	
772.38	4722.6	
772.55	4210.6	
772.73	5919.3	
772.91	5712.5	
773.09	4606.6	
773.26	4704.9	
773.44	5859.2	
773.62	5500.8	
773.8	4095.9	
773.97	3771	
774.15	6027.2	
774.33	5520.6	
774.5	3934.8	
774.68	4374.5	
774.86	6173.3	
775.04	5591	
775.21	4064.5	
775.39	4001.7	
775.57	5904.3	
775.74	6356.2	
775.92	3851.5	
776.1	3770.3	
776.27	5937.7	
776.45	7166.5	
776.63	4000.4	
776.81	3527.3	
776.98	5483.8	
777.16	6648.4	
777.34	4201.7	
777.51	4556.7	
777.69	5516.5	
777.87	5276.9	
778.04	4152.6	
778.22	4971.1	
778.4	5352	
778.57	6001.9	
778.75	3508.2	
778.93	3801	
779.1	5051.7	
779.28	4938.3	
779.46	3525.2	
779.64	4089.8	
779.81	6177.4	
779.99	7173.4	
780.17	4964.3	
780.34	5068	
780.52	5599.1	
780.69	5784.8	
780.87	4390.2	
781.05	3919.8	
781.22	5729.5	
781.4	5765	
781.58	4052.9	
781.75	3205.1	
781.93	5627.1	
782.11	5070.1	
782.28	5086.5	
782.46	4091.2	
782.64	4878.3	
782.81	5899.5	
782.99	4205.2	
783.17	4166.9	
783.34	5840.1	
783.52	4945.8	
783.69	4319.2	
783.87	5300.1	
784.05	5113.1	
784.22	5106.3	
784.4	5232.6	
784.58	4471.4	
784.75	6057.9	
784.93	5098.1	
785.1	4104.1	
785.28	4848.2	
785.46	5782.1	
785.63	5073.5	
785.81	4121.2	
785.99	3983.3	
786.16	5301.5	
786.34	5685.8	
786.51	4044.1	
786.69	4439.3	
786.87	4823.6	
787.04	5391.6	
787.22	3829.7	
787.39	4867.3	
787.57	5043.5	
787.75	6282.5	
787.92	5083.7	
788.1	5003.2	
788.27	5135.6	
788.45	4908.3	
788.63	4739	
788.8	3343	
788.98	5467.4	
789.15	4829.1	
789.33	3469.9	
789.5	4140.3	
789.68	6094.8	
789.86	6224.5	
790.03	4625.7	
790.21	4007.2	
790.38	5996.5	
790.56	5250.3	
790.73	3902.7	
790.91	3906.8	
791.09	5107	
791.26	5883.8	
791.44	4120.5	
791.61	3535.5	
791.79	5087.2	
791.96	5180.7	
792.14	3650.8	
792.32	3234.4	
792.49	5122.7	
792.67	5242.8	
792.84	3760.8	
793.02	3536.2	
793.19	5625.8	
793.37	6331.6	
793.54	3242.6	
793.72	3661.1	
793.89	6481.8	
794.07	5151.3	
794.25	4291.9	
794.42	3376.4	
794.6	6295.5	
794.77	5885.2	
794.95	4556.7	
795.12	3935.5	
795.3	5134.3	
795.47	5801.9	
795.65	4399.7	
795.82	4206.5	
796	4913.1	
796.17	7050.5	
796.35	4083	
796.52	4860.5	
796.7	5720.7	
796.87	5821.7	
797.05	5078.3	
797.22	4992.3	
797.4	5779.4	
797.57	6787	
797.75	4177.2	
797.92	4000.4	
798.1	6099.5	
798.27	5193.6	
798.45	3388.7	
798.62	3614.7	
798.8	5479	
798.97	5986.9	
799.15	4472.8	
799.32	4274.1	
799.5	4662.5	
799.67	5543.9	
799.85	4582.7	
800.02	3300	
800.2	5053	
800.37	5476.3	
800.55	4795	
800.72	3959.4	
800.9	5923.4	
801.07	6479.8	
801.25	5350	
801.42	4407.2	
801.6	6000.5	
801.77	5748.6	
801.95	4019.5	
802.12	3846.8	
802.29	5739.8	
802.47	5668.8	
802.64	4266.6	
802.82	3257.6	
802.99	5022.3	
803.17	6184.2	
803.34	4209.9	
803.52	3793.5	
803.69	6910.5	
803.87	4835.3	
804.04	4151.2	
804.21	4313.7	
804.39	6290	
804.56	5339.1	
804.74	3601.7	
804.91	4419.5	
805.09	5166.3	
805.26	5265.3	
805.44	3650.2	
805.61	4012.7	
805.78	5831.9	
805.96	5835.3	
806.13	4417.5	
806.31	4716.5	
806.48	4654.4	
806.66	5175.2	
806.83	4385.4	
807	4281.6	
807.18	5085.1	
807.35	5571.8	
807.53	4219.5	
807.7	3396.9	
807.87	6376	
808.05	5209.3	
808.22	4708.3	
808.4	3362.8	
808.57	5258.5	
808.74	4830.5	
808.92	3792.2	
809.09	5023	
809.27	4990.2	
809.44	5673.6	
809.61	3395.5	
809.79	3835.8	
809.96	6394.4	
810.14	5982.1	
810.31	3321.8	
810.48	4146.5	
810.66	5261.9	
810.83	6089.3	
811.01	3909.6	
811.18	4325.3	
811.35	5960.3	
811.53	4610.7	
811.7	4679.6	
811.87	4398.4	
812.05	5144.5	
812.22	5092.6	
812.39	3774.4	
812.57	3618.8	
812.74	5154.1	
812.92	6930.3	
813.09	4145.8	
813.26	4484.4	
813.44	6727.6	
813.61	5066	
813.78	3388.7	
813.96	4614.8	
814.13	5213.4	
814.3	4819.6	
814.48	4971.8	
814.65	4151.9	
814.82	6488	
815	4980	
815.17	4175.1	
815.34	5136.3	
815.52	5103.5	
815.69	5173.2	
815.87	4217.5	
816.04	3602.4	
816.21	5190.2	
816.38	4536.3	
816.56	3986	
816.73	3733.4	
816.9	6610.2	
817.08	6019.7	
817.25	3755.3	
817.42	4835.3	
817.6	4725.3	
817.77	5246.2	
817.94	4321.2	
818.12	3715.7	
818.29	4952.7	
818.46	7778.9	
818.64	3930.1	
818.81	3705.5	
818.98	4835.3	
819.16	7077.8	
819.33	4518.5	
819.5	4201.1	
819.67	5556.8	
819.85	6267.5	
820.02	4125.3	
820.19	4407.9	
820.37	5394.3	
820.54	4993.6	
820.71	4267.3	
820.88	5371.8	
821.06	5423.7	
821.23	4971.1	
821.4	4345.1	
821.58	4230.4	
821.75	5957.5	
821.92	5326.8	
822.09	3411.9	
822.27	3515.7	
822.44	5197.7	
822.61	5091.3	
822.79	3395.5	
822.96	6685.9	
823.13	5758.9	
823.3	4910.3	
823.48	3996.3	
823.65	3594.2	
823.82	5937.7	
823.99	4724	
824.17	5052.3	
824.34	3644.7	
824.51	6876.4	
824.68	5227.1	
824.86	3848.8	
825.03	4308.2	
825.2	5193	
825.37	6368.5	
825.55	3759.4	
825.72	4199	
825.89	7015.7	
826.06	6439.5	
826.24	4122.6	
826.41	4147.8	
826.58	6431.3	
826.75	5498.1	
826.92	3226.9	
827.1	3621.5	
827.27	8707.3	
827.44	6897.6	
827.61	3926	
827.79	4788.2	
827.96	4915.8	
828.13	5281.7	
828.3	4079.6	
828.47	3386	
828.65	5426.4	
828.82	5380.7	
828.99	5302.9	
829.16	4679.6	
829.34	5862	
829.51	5598.5	
829.68	4227	
829.85	4438.6	
830.02	6106.4	
830.2	5894.1	
830.37	3203.7	
830.54	5137.7	
830.71	6711.9	
830.88	5137	
831.05	3269.2	
831.23	3820.1	
831.4	6337.8	
831.57	7135.1	
831.74	3951.2	
831.91	3452.9	
832.09	5401.2	
832.26	5810.8	
832.43	4093.2	
832.6	4592.2	
832.77	5445.5	
832.94	6287.9	
833.12	3179.1	
833.29	4028.4	
833.46	5033.9	
833.63	7504.4	
833.8	4395.6	
833.97	4122.6	
834.15	5855.8	
834.32	5558.9	
834.49	4271.4	
834.66	4340.3	
834.83	6078.4	
835	4906.9	
835.17	3926	
835.35	3919.8	
835.52	5696.1	
835.69	5590.3	
835.86	4189.5	
836.03	3416	
836.2	5764.3	
836.37	5378.6	
836.55	4061.1	
836.72	3837.9	
836.89	5384.1	
837.06	5876.3	
837.23	4129.4	
837.4	4552	
837.57	6681.8	
837.75	7458	
837.92	3738.2	
838.09	3956.7	
838.26	5291.3	
838.43	6153.5	
838.6	4317.1	
838.77	3824.2	
838.94	7041.6	
839.11	6721.4	
839.29	4082.3	
839.46	3179.8	
839.63	5724.1	
839.8	5538.4	
839.97	3931.4	
840.14	3908.9	
840.31	5558.2	
840.48	5797.1	
840.65	3259.7	
840.82	4022.9	
841	5767.8	
841.17	5793.7	
841.34	3616.7	
841.51	3672.7	
841.68	5680.4	
841.85	5439.4	
842.02	3817.4	
842.19	3089.7	
842.36	5526.8	
842.53	5518.6	
842.7	3625.6	
842.87	4420.9	
843.05	7325.6	
843.22	5424.4	
843.39	3409.9	
843.56	3679.5	
843.73	5209.3	
843.9	5850.4	
844.07	5954.8	
844.24	4909.7	
844.41	8664.3	
844.58	4986.1	
844.75	3517.7	
844.92	3770.3	
845.09	5773.9	
845.26	5778	
845.43	3582.6	
845.6	3809.2	
845.77	5801.2	
845.94	5553.4	
846.12	4000.4	
846.29	4234.5	
846.46	5993.7	
846.63	5801.9	
846.8	3596.2	
846.97	4258.4	
847.14	6285.2	
847.31	5769.8	
847.48	4089.8	
847.65	4438.6	
847.82	6090.7	
847.99	6016.9	
848.16	4923.3	
848.33	4479.6	
848.5	5362.3	
848.67	6255.9	
848.84	3565.5	
849.01	3768.9	
849.18	5190.2	
849.35	4844.1	
849.52	4569	
849.69	3553.9	
849.86	5978.7	
850.03	6197.2	
850.2	3634.5	
850.37	4487.1	
850.54	6242.2	
850.71	5464	
850.88	4367	
851.05	3583.3	
851.22	5659.2	
851.39	6460.7	
851.56	3402.4	
851.73	4135.5	
851.9	5046.9	
852.07	5986.2	
852.24	3999	
852.41	3585.3	
852.58	5629.2	
852.75	5154.1	
852.92	4050.9	
853.09	3493.2	
853.26	5382.1	
853.43	6234.7	
853.6	3506.1	
853.77	3034.4	
853.94	6349.4	
854.11	5765	
854.28	5425.8	
854.44	3850.9	
854.61	6877.1	
854.78	6164.4	
854.95	3607.8	
855.12	4524.6	
855.29	4618.2	
855.46	6548.7	
855.63	3575.1	
855.8	5128.8	
855.97	5364.3	
856.14	6100.9	
856.31	5102.9	
856.48	3936.9	
856.65	5356.1	
856.82	4997	
856.99	3488.4	
857.16	3932.1	
857.33	7111.9	
857.49	5479	
857.66	3882.3	
857.83	4203.1	
858	5411.4	
858.17	5600.5	
858.34	3380.5	
858.51	3563.5	
858.68	6599.2	
858.85	6578.8	
859.02	4156.7	
859.19	4465.9	
859.36	5074.9	
859.52	5158.2	
859.69	3571	
859.86	4313.7	
860.03	5130.8	
860.2	6400.6	
860.37	3284.9	
860.54	3685.7	
860.71	6050.4	
860.88	6492.1	
861.05	4103.4	
861.21	4578.6	
861.38	6493.4	
861.55	4990.2	
861.72	3252.2	
861.89	4046.8	
862.06	6098.2	
862.23	6653.2	
862.4	3507.5	
862.56	3736.9	
862.73	5961	
862.9	5545.2	
863.07	4265.9	
863.24	3216	
863.41	4967	
863.58	5063.3	
863.75	3687.7	
863.91	4161.5	
864.08	6460.7	
864.25	6032	
864.42	4564.2	
864.59	5046.2	
864.76	6818.4	
864.93	5048.2	
865.09	3510.2	
865.26	3831.7	
865.43	6336.4	
865.6	6716	
865.77	3114.3	
865.94	3550.5	
866.1	6356.9	
866.27	6147.3	
866.44	5427.1	
866.61	3379.8	
866.78	5494.7	
866.95	5966.4	
867.11	3536.8	
867.28	3166.8	
867.45	6126.8	
867.62	5180.7	
867.79	4143	
867.96	3592.1	
868.12	5050.3	
868.29	6150.1	
868.46	3111.5	
868.63	4807.3	
868.8	6293.4	
868.97	5964.4	
869.13	3768.9	
869.3	3775.1	
869.47	5926.1	
869.64	6121.4	
869.81	3607.8	
869.97	3661.8	
870.14	5812.1	
870.31	6536.4	
870.48	3579.2	
870.65	4539	
870.81	5380	
870.98	5352	
871.15	4102.8	
871.32	3733.4	
871.48	5852.4	
871.65	6581.5	
871.82	3648.8	
871.99	4018.8	
872.16	7048.4	
872.32	6423.8	
872.49	3596.2	
872.66	3680.9	
872.83	6026.5	
872.99	5246.2	
873.16	4179.2	
873.33	3573	
873.5	5660.6	
873.67	5677	
873.83	3766.2	
874	4939	
874.17	5761.6	
874.34	6980.8	
874.5	4663.2	
874.67	4499.4	
874.84	6465.4	
875.01	5087.2	
875.17	5127.4	
875.34	3609.9	
875.51	5726.8	
875.68	6919.4	
875.84	4364.9	
876.01	5366.4	
876.18	6040.1	
876.34	5950.7	
876.51	3578.5	
876.68	3570.3	
876.85	5470.8	
877.01	6335	
877.18	5132.2	
877.35	3614.7	
877.52	5567.7	
877.68	5031.2	
877.85	3506.8	
878.02	3542.3	
878.18	5561.6	
878.35	5237.3	
878.52	2877.4	
878.69	4085.7	
878.85	6016.2	
879.02	6030.6	
879.19	5104.9	
879.35	3828.3	
879.52	5971.2	
879.69	6214.2	
879.86	3101.3	
880.02	4071.4	
880.19	5572.5	
880.36	6784.9	
880.52	4171	
880.69	4242	
880.86	6123.4	
881.02	6155.5	
881.19	4005.8	
881.36	3932.8	
881.52	5973.9	
881.69	5272.2	
881.86	3886.4	
882.02	3825.6	
882.19	6228.6	
882.36	7441.6	
882.52	3605.1	
882.69	5129.5	
882.86	5735.7	
883.02	5710.4	
883.19	4409.3	
883.36	4194.9	
883.52	6192.4	
883.69	7006.8	
883.86	3599.6	
884.02	3227.6	
884.19	6113.9	
884.36	5626.5	
884.52	4054.3	
884.69	3799	
884.86	5314.5	
885.02	6717.3	
885.19	4065.9	
885.36	4254.3	
885.52	5578	
885.69	5774.6	
885.86	5263.3	
886.02	4596.3	
886.19	6046.3	
886.35	5479.7	
886.52	3997.6	
886.69	5056.4	
886.85	5135.6	
887.02	6491.4	
887.19	6491.4	
887.35	6491.4	
887.52	6491.4	
887.68	6491.4	
887.85	6491.4	
888.02	6491.4	
888.18	6491.4	
888.35	6491.4	
888.51	6491.4	
888.68	6491.4	
888.85	6491.4	
889.01	6491.4	
889.18	6491.4	
889.35	6491.4	
889.51	6491.4	
889.68	6491.4	
889.84	6491.4	
890.01	6491.4	
890.17	6491.4	
890.34	6491.4	
890.51	6491.4	
890.67	6491.4	
890.84	6491.4	
891	6491.4	
891.17	6491.4	
891.34	6491.4	
891.5	6491.4	
891.67	6491.4	
891.83	6491.4	
892	6491.4	
892.16	6491.4	
892.33	6491.4	
892.5	6491.4	
892.66	6491.4	
892.83	6491.4	
892.99	6491.4	
893.16	6491.4	
893.32	6491.4	
893.49	6491.4	
893.65	6491.4	
893.82	6491.4	
893.99	6491.4	
894.15	6491.4	
894.32	6491.4	
894.48	6491.4	
894.65	6491.4	
894.81	6491.4	
894.98	6491.4	
895.14	6491.4	
895.31	6491.4	
895.47	6491.4	
895.64	6491.4	
895.81	6491.4	
895.97	6491.4	
896.14	6491.4	
896.3	6491.4	
896.47	6491.4	
896.63	6491.4	
896.8	6491.4	
896.96	6491.4	
897.13	6491.4	
897.29	6491.4	
897.46	6491.4	
897.62	6491.4	
897.79	6491.4	
897.95	6491.4	
898.12	6491.4	
898.28	6491.4	
898.45	6491.4	
898.61	6491.4	
898.78	6491.4	
898.94	6491.4	
899.11	6491.4	
899.27	6491.4	
899.44	6491.4	
899.6	6491.4	
899.77	6491.4	
899.93	6491.4	
900.1	6491.4	
900.26	6491.4	
900.43	6491.4	
900.59	6491.4	
900.76	6491.4	
900.92	6491.4	
901.09	6491.4	
901.25	6491.4	
901.42	6491.4	
901.58	6491.4	
901.75	6491.4	
901.91	6491.4	
902.07	6491.4	
902.24	6491.4	
902.4	6491.4	
902.57	6491.4	
902.73	6491.4	
902.9	6491.4	
903.06	6491.4	
903.23	6491.4	
903.39	6491.4	
903.56	6491.4	
903.72	6491.4	
903.88	6491.4	
904.05	6491.4	
904.21	6491.4	
904.38	6491.4	
904.54	6491.4	
904.71	6491.4	
904.87	6491.4	
905.03	6491.4	
905.2	6491.4	
905.36	6491.4	
905.53	6491.4	
905.69	6491.4	
905.86	6491.4	
906.02	6491.4	
906.18	6491.4	
906.35	6491.4	
906.51	6491.4	
906.68	6491.4	
906.84	6491.4	
907.01	6491.4	
907.17	6491.4	
907.33	6491.4	
907.5	6491.4	
907.66	6491.4	
907.83	6491.4	
907.99	6491.4	
908.15	6491.4	
908.32	6491.4	
908.48	6491.4	
908.65	6491.4	
908.81	6491.4	
908.97	6491.4	
909.14	6491.4	
909.3	6491.4	
909.47	6491.4	
909.63	6491.4	
909.79	6491.4	
909.96	6491.4	
910.12	6491.4	
910.28	6491.4	
910.45	6491.4	
910.61	6491.4	
910.78	6491.4	
910.94	6491.4	
911.1	6491.4	
911.27	6491.4	
911.43	6491.4	
911.59	6491.4	
911.76	6491.4	
911.92	6491.4	
912.08	6491.4	
912.25	6491.4	
912.41	6491.4	
912.57	6491.4	
912.74	6491.4	
912.9	6491.4	
913.07	6491.4	
913.23	6491.4	
913.39	6491.4	
913.56	6491.4	
913.72	6491.4	
913.88	6491.4	
914.05	6491.4	
914.21	6491.4	
914.37	6491.4	
914.54	6491.4	
914.7	6491.4	
914.86	6491.4	
915.03	6491.4	
915.19	6491.4	
