Wavelength	Intensities	
nm	a.u.	
179.22	1885.3	
179.44	1884.5	
179.65	1886.2	
179.86	1882.8	
180.08	1905.3	
180.29	4689.8	
180.51	3419.4	
180.72	5524.7	
180.94	6476.4	
181.15	3146.4	
181.37	3132	
181.58	5420.3	
181.79	5692	
182.01	3308.8	
182.22	3566.9	
182.44	5726.1	
182.65	4788.2	
182.87	4437.3	
183.08	3895.9	
183.29	5993.7	
183.51	4943.8	
183.72	3599	
183.94	5199.8	
184.15	5336.3	
184.37	5265.3	
184.58	3091.1	
184.79	4293.9	
185.01	4900.1	
185.22	5623	
185.44	4592.9	
185.65	3867.9	
185.86	5181.4	
186.08	4784.7	
186.29	3085.6	
186.51	3321.8	
186.72	4980	
186.94	5844.2	
187.15	3796.3	
187.36	3875.4	
187.58	7518.8	
187.79	5404.6	
188.01	4083.6	
188.22	6324.1	
188.43	6514.6	
188.65	5670.1	
188.86	3245.3	
189.08	3917.8	
189.29	5134.9	
189.5	5129.5	
189.72	3676.1	
189.93	3704.1	
190.15	5856.5	
190.36	7018.4	
190.57	4017.4	
190.79	3892.5	
191	5913.2	
191.22	5851.7	
191.43	4020.2	
191.64	3309.5	
191.86	6155.5	
192.07	5897.5	
192.29	3502.7	
192.5	3627.6	
192.71	5899.5	
192.93	5062.6	
193.14	3605.1	
193.35	3713	
193.57	5113.1	
193.78	5874.9	
194	2967.5	
194.21	3600.3	
194.42	4863.2	
194.64	5292.6	
194.85	3900	
195.07	4622.3	
195.28	5294.7	
195.49	4645.5	
195.71	4825.7	
195.92	3409.2	
196.13	5487.9	
196.35	5670.8	
196.56	5191.6	
196.78	3928	
196.99	6956.3	
197.2	6389	
197.42	4490.5	
197.63	4013.3	
197.84	4764.3	
198.06	5513.1	
198.27	3629.7	
198.48	4892.6	
198.7	5031.9	
198.91	5193	
199.13	3983.3	
199.34	3966.2	
199.55	5744.6	
199.77	4607.9	
199.98	3452.2	
200.19	4005.8	
200.41	5268.7	
200.62	4921.3	
200.83	4113.7	
201.05	4446.1	
201.26	5249.6	
201.47	4984.1	
201.69	3512.3	
201.9	3356.6	
202.11	5264.6	
202.33	6307.7	
202.54	3804.4	
202.76	4209.3	
202.97	5430.5	
203.18	5442.1	
203.4	4106.9	
203.61	4048.2	
203.82	5368.4	
204.04	5075.5	
204.25	4048.2	
204.46	3875.4	
204.68	5337.7	
204.89	5592.3	
205.1	3942.3	
205.32	3368.2	
205.53	5721.3	
205.74	5884.5	
205.96	2914.3	
206.17	4114.4	
206.38	5683.8	
206.6	5774.6	
206.81	4490.5	
207.02	3715	
207.24	5609.4	
207.45	5961.6	
207.66	3740.3	
207.88	3258.3	
208.09	5572.5	
208.3	5332.9	
208.52	3521.1	
208.73	3788.1	
208.94	5378.6	
209.15	5991	
209.37	3792.8	
209.58	3902.1	
209.79	5867.4	
210.01	5141.8	
210.22	2981.8	
210.43	3200.3	
210.65	5332.2	
210.86	5720.7	
211.07	3824.2	
211.29	3458.3	
211.5	5709.7	
211.71	5278.3	
211.93	3497.9	
212.14	3427.6	
212.35	5310.4	
212.56	5511.8	
212.78	3992.9	
212.99	3287.7	
213.2	6218.3	
213.42	5101.5	
213.63	3609.2	
213.84	3847.5	
214.06	4693.3	
214.27	4848.2	
214.48	3799	
214.69	3945.8	
214.91	6001.9	
215.12	6051.1	
215.33	4071.4	
215.55	4434.5	
215.76	6551.5	
215.97	5640.1	
216.18	3863.8	
216.4	3807.2	
216.61	5001.8	
216.82	5832.6	
217.04	3522.5	
217.25	3617.4	
217.46	5954.8	
217.67	5673.6	
217.89	3111.5	
218.1	3220.1	
218.31	5388.2	
218.53	5524.7	
218.74	3678.8	
218.95	3492.5	
219.16	5259.9	
219.38	6184.2	
219.59	3566.9	
219.8	4214.7	
220.01	6870.9	
220.23	5341.8	
220.44	4637.3	
220.65	3424.2	
220.87	5451	
221.08	5926.1	
221.29	3242.6	
221.5	4295.3	
221.72	7246.4	
221.93	5123.3	
222.14	4085	
222.35	4661.9	
222.57	5442.1	
222.78	5673.6	
222.99	3778.5	
223.2	4140.3	
223.42	5603.9	
223.63	5732.9	
223.84	2934.7	
224.05	2919	
224.27	6732.4	
224.48	6248.4	
224.69	4738.3	
224.9	3973.1	
225.12	5525.4	
225.33	5296.7	
225.54	3145.7	
225.75	3539.6	
225.97	4925.4	
226.18	5146.5	
226.39	3834.5	
226.6	3578.5	
226.82	5064.6	
227.03	4938.3	
227.24	3956	
227.45	3326.6	
227.67	5680.4	
227.88	6185.5	
228.09	4444.1	
228.3	4429.1	
228.52	5760.3	
228.73	5311.7	
228.94	3702.7	
229.15	3260.4	
229.36	5218.2	
229.58	5166.3	
229.79	3751.2	
230	4399	
230.21	6323.4	
230.43	5401.2	
230.64	3939.6	
230.85	4126	
231.06	5720.7	
231.28	5762.3	
231.49	3288.4	
231.7	3835.8	
231.91	5655.1	
232.12	5347.9	
232.34	3394.2	
232.55	3900.7	
232.76	5958.2	
232.97	5493.3	
233.18	3532.7	
233.4	3947.1	
233.61	5526.1	
233.82	5184.1	
234.03	3707.5	
234.25	3605.1	
234.46	7375.4	
234.67	5368.4	
234.88	4055	
235.09	3540.9	
235.31	5707	
235.52	5267.4	
235.73	4005.8	
235.94	3343.7	
236.15	5079.6	
236.37	6445	
236.58	3488.4	
236.79	3771	
237	5612.8	
237.21	4832.5	
237.43	4122.6	
237.64	3182.5	
237.85	9624.8	
238.06	4926.7	
238.27	4140.3	
238.48	3353.9	
238.7	5701.5	
238.91	5148.6	
239.12	3778.5	
239.33	3828.3	
239.54	4984.8	
239.76	5256.5	
239.97	3752.6	
240.18	3834.5	
240.39	6675	
240.6	5638.1	
240.82	4001.7	
241.03	3245.3	
241.24	5302.2	
241.45	6180.8	
241.66	3500	
241.87	4077.5	
242.09	6048.3	
242.3	6366.5	
242.51	4170.3	
242.72	3837.9	
242.93	5769.8	
243.14	5279	
243.36	4384.7	
243.57	4727.4	
243.78	6156.2	
243.99	5715.2	
244.2	3812	
244.41	3481.5	
244.63	4872.1	
244.84	5680.4	
245.05	4083.6	
245.26	3775.1	
245.47	5660.6	
245.68	5816.2	
245.9	5085.8	
246.11	3987.4	
246.32	5154.7	
246.53	5487.9	
246.74	6137.1	
246.95	3192.8	
247.16	4859.1	
247.38	5356.8	
247.59	3227.6	
247.8	3823.6	
248.01	5021.6	
248.22	5265.3	
248.43	3484.3	
248.64	3706.8	
248.86	4739	
249.07	5159.5	
249.28	3383.2	
249.49	3890.5	
249.7	5840.1	
249.91	6027.2	
250.12	3188	
250.34	3226.9	
250.55	5423.7	
250.76	5322.7	
250.97	3896.6	
251.18	4000.4	
251.39	6034	
251.6	5481	
251.81	4044.7	
252.03	3986	
252.24	5079.6	
252.45	5836.7	
252.66	3323.9	
252.87	4281.6	
253.08	5373.2	
253.29	7010.9	
253.5	3297.9	
253.72	4607.2	
253.93	5207.3	
254.14	6361	
254.35	3632.4	
254.56	3728.7	
254.77	5551.4	
254.98	5026.4	
255.19	3558	
255.41	4605.9	
255.62	5511.8	
255.83	5978	
256.04	4115.7	
256.25	4048.8	
256.46	6550.1	
256.67	5040.7	
256.88	3910.3	
257.09	4380.6	
257.31	4994.3	
257.52	4969.1	
257.73	4989.5	
257.94	3606.5	
258.15	5180	
258.36	5332.2	
258.57	4598.4	
258.78	2893.8	
258.99	5834.7	
259.2	5199.1	
259.41	3674.7	
259.63	3680.9	
259.84	6153.5	
260.05	6550.8	
260.26	4853	
260.47	3565.5	
260.68	5895.4	
260.89	5257.1	
261.1	4397.7	
261.31	3482.9	
261.52	5920.7	
261.73	6281.8	
261.95	4711	
262.16	4113.7	
262.37	6088.6	
262.58	6066.8	
262.79	4665.3	
263	3679.5	
263.21	5326.1	
263.42	5221	
263.63	3706.8	
263.84	3667.2	
264.05	5842.2	
264.26	6234	
264.47	4580.6	
264.69	4080.9	
264.9	6086.6	
265.11	5588.9	
265.32	3523.2	
265.53	3644	
265.74	5467.4	
265.95	4790.9	
266.16	3919.8	
266.37	4283.7	
266.58	5481.7	
266.79	5191.6	
267	3613.3	
267.21	3332.7	
267.42	4915.1	
267.63	5344.5	
267.84	3808.5	
268.06	3244	
268.27	5770.5	
268.48	6103.6	
268.69	3648.1	
268.9	4375.8	
269.11	6040.8	
269.32	4786.8	
269.53	3809.2	
269.74	3501.3	
269.95	5701.5	
270.16	4743.1	
270.37	3821.5	
270.58	4427	
270.79	5162.9	
271	5785.5	
271.21	4110.3	
271.42	3840.6	
271.63	5475.6	
271.84	4983.4	
272.05	3075.4	
272.26	3459.7	
272.47	5304.9	
272.68	5551.4	
272.89	3616.7	
273.11	4253.6	
273.32	5150	
273.53	6262.7	
273.74	4094.6	
273.95	3966.2	
274.16	5933	
274.37	5428.5	
274.58	4183.3	
274.79	3333.4	
275	5504.3	
275.21	5997.1	
275.42	4988.2	
275.63	4287.1	
275.84	5623	
276.05	7066.2	
276.26	4035.2	
276.47	3727.3	
276.68	5194.3	
276.89	6356.2	
277.1	4355.3	
277.31	3334.1	
277.52	5575.3	
277.73	5693.4	
277.94	3316.3	
278.15	3700.7	
278.36	5501.5	
278.57	4994.3	
278.78	3713	
278.99	4164.2	
279.2	5009.3	
279.41	4943.8	
279.62	4800.4	
279.83	3381.2	
280.04	6528.2	
280.25	4934.2	
280.46	4760.2	
280.67	3833.8	
280.88	4997	
281.09	5983.5	
281.3	4037.2	
281.51	5109.7	
281.72	5042.8	
281.93	5873.6	
282.14	3605.1	
282.35	3818.1	
282.56	5840.1	
282.77	5782.8	
282.98	3756	
283.19	4534.2	
283.4	7117.4	
283.61	5267.4	
283.82	3421.5	
284.03	4714.4	
284.24	5429.2	
284.45	5963	
284.66	4691.9	
284.87	4474.8	
285.08	5927.5	
285.29	6058.6	
285.5	3248.1	
285.71	3709.6	
285.92	5950	
286.12	6626.5	
286.33	4721.3	
286.54	3635.1	
286.75	5808.7	
286.96	5213.4	
287.17	3402.4	
287.38	4567	
287.59	4986.8	
287.8	4948.6	
288.01	3781.9	
288.22	4271.4	
288.43	5853.8	
288.64	4862.6	
288.85	4403.8	
289.06	4256.4	
289.27	5750.7	
289.48	6238.1	
289.69	4752.7	
289.9	4268.6	
290.11	6004	
290.32	5067.4	
290.53	4512.4	
290.74	4176.5	
290.94	5737	
291.15	5816.9	
291.36	3605.1	
291.57	4271.4	
291.78	5117.2	
291.99	4788.2	
292.2	3445.4	
292.41	4154.6	
292.62	5911.8	
292.83	5653.8	
293.04	5102.2	
293.25	3452.9	
293.46	5165.7	
293.67	5917.9	
293.88	3523.9	
294.09	3472	
294.29	4926.7	
294.5	5497.4	
294.71	3884.3	
294.92	3700.7	
295.13	5102.2	
295.34	6390.3	
295.55	3240.6	
295.76	3325.9	
295.97	5749.3	
296.18	6464.8	
296.39	3364.8	
296.6	3575.1	
296.81	5444.9	
297.01	5770.5	
297.22	3776.5	
297.43	3572.3	
297.64	4976.6	
297.85	4980	
298.06	2960	
298.27	3185.3	
298.48	5406.6	
298.69	5047.6	
298.9	3900.7	
299.11	3510.9	
299.31	4898.7	
299.52	4922.6	
299.73	4130.1	
299.94	4106.2	
300.15	5342.5	
300.36	4989.5	
300.57	4046.1	
300.78	4034.5	
300.99	5191.6	
301.2	5444.9	
301.4	3557.3	
301.61	3913.7	
301.82	5642.2	
302.03	5841.5	
302.24	4371.7	
302.45	3399.6	
302.66	5618.9	
302.87	6089.3	
303.08	3635.1	
303.29	4923.3	
303.49	5098.1	
303.7	5364.3	
303.91	3205.8	
304.12	4693.3	
304.33	4838	
304.54	5456.5	
304.75	3604.4	
304.96	3481.5	
305.16	5651.7	
305.37	6409.5	
305.58	3149.8	
305.79	3263.8	
306	5616.2	
306.21	4777.9	
306.42	3577.1	
306.63	5438	
306.83	5261.9	
307.04	5930.9	
307.25	3968.3	
307.46	3931.4	
307.67	4612	
307.88	5821	
308.09	3523.9	
308.29	3703.4	
308.5	5443.5	
308.71	5942.5	
308.92	3846.1	
309.13	3420.1	
309.34	5169.8	
309.55	5304.2	
309.75	4500.1	
309.96	4119.8	
310.17	5755.5	
310.38	5060.5	
310.59	4311.7	
310.8	3329.3	
311.01	5257.8	
311.21	5223	
311.42	3451.5	
311.63	3548.4	
311.84	5072.8	
312.05	5487.9	
312.26	3973.1	
312.46	4364.9	
312.67	5163.6	
312.88	4885.8	
313.09	3497.9	
313.3	3379.8	
313.51	6128.2	
313.71	6447	
313.92	3453.6	
314.13	3618.8	
314.34	5541.1	
314.55	5324.7	
314.76	4388.8	
314.96	3934.1	
315.17	5382.7	
315.38	5750	
315.59	3508.9	
315.8	3308.2	
316.01	6167.1	
316.21	6223.1	
316.42	3289.7	
316.63	3858.4	
316.84	5216.9	
317.05	6014.9	
317.26	4065.2	
317.46	3652.9	
317.67	5312.4	
317.88	5705	
318.09	4433.9	
318.3	3256.3	
318.5	5057.1	
318.71	5601.2	
318.92	5650.3	
319.13	4044.1	
319.34	5868.8	
319.54	6021	
319.75	3233.7	
319.96	3083.6	
320.17	5720.7	
320.38	5849	
320.58	3180.5	
320.79	3755.3	
321	5898.8	
321.21	6051.7	
321.42	3814	
321.62	3172.3	
321.83	4969.7	
322.04	5365	
322.25	3740.3	
322.46	3483.6	
322.66	5437.4	
322.87	5663.3	
323.08	4277.5	
323.29	3379.1	
323.5	6393.1	
323.7	4946.5	
323.91	4716.5	
324.12	4214	
324.33	5412.1	
324.53	5649.7	
324.74	4088.4	
324.95	4313.7	
325.16	4769	
325.37	5200.5	
325.57	3506.1	
325.78	3530	
325.99	5459.2	
326.2	4878.9	
326.4	5045.5	
326.61	3201	
326.82	5311.7	
327.03	5448.3	
327.24	4935.6	
327.44	4607.2	
327.65	5592.3	
327.86	4487.8	
328.07	4074.8	
328.27	3334.8	
328.48	5988.9	
328.69	4926.7	
328.9	4973.8	
329.1	3702	
329.31	5279	
329.52	6199.2	
329.73	3476.1	
329.93	3945.8	
330.14	5440.1	
330.35	5524.1	
330.56	5695.4	
330.76	4321.9	
330.97	5122	
331.18	5522	
331.39	3857.7	
331.59	3162.1	
331.8	5948	
332.01	6047.7	
332.22	3558.7	
332.42	4050.9	
332.63	5491.3	
332.84	5045.5	
333.05	3904.1	
333.25	3538.2	
333.46	5126.1	
333.67	5391.6	
333.88	3676.1	
334.08	4005.1	
334.29	7072.3	
334.5	6081.1	
334.7	3435.1	
334.91	4937.7	
335.12	4954	
335.33	5742.5	
335.53	3893.9	
335.74	5687.2	
335.95	5152	
336.16	4952.7	
336.36	3857	
336.57	4417.5	
336.78	4814.8	
336.98	5939.1	
337.19	4732.2	
337.4	3788.1	
337.61	6431.3	
337.81	4842.8	
338.02	3548.4	
338.23	4617.5	
338.43	6105.7	
338.64	4988.2	
338.85	3507.5	
339.05	4601.8	
339.26	6150.1	
339.47	4813.4	
339.68	3508.2	
339.88	5144.5	
340.09	5631.9	
340.3	5849.7	
340.5	4108.2	
340.71	3164.8	
340.92	4835.9	
341.13	6044.2	
341.33	3312.9	
341.54	4117.8	
341.75	5582.1	
341.95	5199.8	
342.16	3932.1	
342.37	4166.3	
342.57	4979.3	
342.78	5340.4	
342.99	4351.9	
343.19	3148.4	
343.4	5715.9	
343.61	5617.6	
343.81	3768.3	
344.02	3442.6	
344.23	5790.3	
344.43	6134.3	
344.64	4268	
344.85	4192.9	
345.06	5541.8	
345.26	5936.4	
345.47	4018.8	
345.68	4707.6	
345.88	4735.6	
346.09	5815.5	
346.3	4106.2	
346.5	3134.1	
346.71	5352	
346.92	5034.6	
347.12	3196.9	
347.33	4037.9	
347.54	5859.9	
347.74	6309.1	
347.95	4001.7	
348.16	2985.9	
348.36	5186.1	
348.57	4997	
348.78	4014	
348.98	4285	
349.19	5305.6	
349.39	4828.4	
349.6	3199.6	
349.81	3575.1	
350.01	5515.9	
350.22	5119.2	
350.43	3835.8	
350.63	4644.1	
350.84	5422.3	
351.05	5202.5	
351.25	3512.9	
351.46	3245.3	
351.67	5905	
351.87	5036	
352.08	3768.3	
352.29	4214.7	
352.49	5786.9	
352.7	5544.5	
352.9	3373.7	
353.11	4238.6	
353.32	6447	
353.52	5139	
353.73	3359.4	
353.94	4277.5	
354.14	5635.3	
354.35	5469.4	
354.55	3453.6	
354.76	3829.7	
354.97	5589.6	
355.17	5328.8	
355.38	3252.2	
355.59	4526	
355.79	5065.3	
356	5428.5	
356.2	3815.4	
356.41	3344.3	
356.62	4810.7	
356.82	5217.5	
357.03	4093.2	
357.24	3678.2	
357.44	5036.6	
357.65	5102.2	
357.85	4922.6	
358.06	3864.5	
358.27	4815.5	
358.47	5003.2	
358.68	3210.5	
358.88	4134.2	
359.09	5477.6	
359.3	5920	
359.5	4727.4	
359.71	4237.2	
359.91	6410.8	
360.12	5672.2	
360.33	4045.4	
360.53	4509.6	
360.74	5051.7	
360.94	5100.8	
361.15	4216.8	
361.36	3521.1	
361.56	5797.1	
361.77	5225.1	
361.97	4695.3	
362.18	3706.1	
362.38	5760.9	
362.59	4876.2	
362.8	3453.6	
363	3210.5	
363.21	4678.2	
363.41	5392.3	
363.62	3874.8	
363.83	4881	
364.03	5434.6	
364.24	6373.3	
364.44	5059.8	
364.65	4848.9	
364.85	5137.7	
365.06	5056.4	
365.27	3569.6	
365.47	3637.2	
365.68	6135.7	
365.88	5127.4	
366.09	3995.6	
366.29	3663.8	
366.5	5382.1	
366.71	5881.8	
366.91	4941.7	
367.12	4119.8	
367.32	6421.1	
367.53	5655.1	
367.73	4029.7	
367.94	4949.9	
368.14	5641.5	
368.35	6518.7	
368.56	4119.1	
368.76	3412.6	
368.97	5732.9	
369.17	7422.5	
369.38	3588.7	
369.58	3825.6	
369.79	4759.5	
369.99	6135.7	
370.2	4810.7	
370.4	3943.7	
370.61	5464	
370.82	6564.4	
371.02	3814	
371.23	3186.6	
371.43	4715.8	
371.64	6043.6	
371.84	3843.4	
372.05	5019.6	
372.25	7276.4	
372.46	5735	
372.66	3830.4	
372.87	3786.7	
373.07	5724.8	
373.28	7345.4	
373.48	4848.2	
373.69	4542.4	
373.9	5207.3	
374.1	5261.9	
374.31	4734.2	
374.51	4283	
374.72	5955.5	
374.92	4924.7	
375.13	4939.7	
375.33	4069.3	
375.54	5607.3	
375.74	5086.5	
375.95	4131.4	
376.15	5391.6	
376.36	5650.3	
376.56	5445.5	
376.77	4167.6	
376.97	4597	
377.18	6679.8	
377.38	5709.7	
377.59	4963.6	
377.79	3660.4	
378	5481.7	
378.2	5947.3	
378.41	3767.6	
378.61	3677.5	
378.82	5943.2	
379.02	5096.7	
379.23	3889.1	
379.43	4995	
379.64	5988.3	
379.84	5655.1	
380.05	3732.1	
380.25	3661.8	
380.46	5725.4	
380.66	5303.6	
380.87	5007.3	
381.07	5398.4	
381.28	6343.9	
381.48	5784.1	
381.69	3776.5	
381.89	3822.2	
382.1	4782.7	
382.3	5863.3	
382.51	4863.9	
382.71	5736.4	
382.91	5814.9	
383.12	6272.2	
383.32	4121.9	
383.53	4359.4	
383.73	5651.7	
383.94	5464.7	
384.14	4283	
384.35	3493.8	
384.55	5367	
384.76	5805.3	
384.96	4111.6	
385.17	4431.1	
385.37	5811.5	
385.58	5076.2	
385.78	4497.3	
385.98	3361.4	
386.19	5292	
386.39	5699.5	
386.6	3943	
386.8	4124.6	
387.01	5739.8	
387.21	5763.7	
387.42	4551.3	
387.62	5076.9	
387.83	5084.4	
388.03	5715.2	
388.23	4199.7	
388.44	4921.3	
388.64	4878.3	
388.85	4906.9	
389.05	4520.5	
389.26	5128.1	
389.46	6787.7	
389.67	6124.8	
389.87	4517.1	
390.07	4603.2	
390.28	5393	
390.48	5006.6	
390.69	3771.7	
390.89	4024.9	
391.1	5169.1	
391.3	6095.4	
391.5	5215.5	
391.71	5812.8	
391.91	5814.9	
392.12	6834.8	
392.32	5313.8	
392.53	4530.8	
392.73	5280.3	
392.93	5479	
393.14	4251.6	
393.34	5020.3	
393.55	5930.2	
393.75	5466	
393.95	4251.6	
394.16	4158.1	
394.36	5175.2	
394.57	5862	
394.77	3713	
394.98	4096.6	
395.18	5105.6	
395.38	5223.7	
395.59	4918.5	
395.79	3938.2	
396	5339.1	
396.2	5761.6	
396.4	4806.6	
396.61	4696.7	
396.81	5935	
397.02	5198.4	
397.22	4971.8	
397.42	4992.3	
397.63	5887.2	
397.83	5150	
398.04	3867.9	
398.24	4364.9	
398.44	5674.2	
398.65	4806.6	
398.85	3701.4	
399.05	3877.5	
399.26	5081	
399.46	6819.7	
399.67	4199	
399.87	3979.2	
400.07	5450.3	
400.28	5786.9	
400.48	3992.2	
400.69	5035.3	
400.89	5955.5	
401.09	6450.4	
401.3	3897.3	
401.5	4973.2	
401.7	6722.8	
401.91	6900.3	
402.11	4268.6	
402.32	4498.7	
402.52	6039.5	
402.72	6004.6	
402.93	4716.5	
403.13	3609.2	
403.33	6838.2	
403.54	5558.2	
403.74	4391.5	
403.94	5328.1	
404.15	5662.6	
404.35	6711.9	
404.56	4188.8	
404.76	6010.1	
404.96	6035.4	
405.17	5857.2	
405.37	5717.9	
405.57	4745.8	
405.78	6100.9	
405.98	5541.8	
406.18	4222.9	
406.39	5086.5	
406.59	6001.2	
406.79	5658.5	
407	3991.5	
407.2	4109.6	
407.4	6050.4	
407.61	6260	
407.81	4054.3	
408.01	6189	
408.22	5045.5	
408.42	6985.6	
408.62	5139	
408.83	4610.7	
409.03	5574.6	
409.23	5466	
409.44	4652.3	
409.64	4921.3	
409.84	6502.3	
410.05	6471.6	
410.25	4744.5	
410.45	4594.3	
410.66	5866.7	
410.86	8366	
411.06	4864.6	
411.27	4857.8	
411.47	8062.2	
411.67	6029.2	
411.88	5045.5	
412.08	5296	
412.28	6673	
412.49	7124.9	
412.69	4800.4	
412.89	4855.7	
413.09	6993.1	
413.3	6823.8	
413.5	4927.4	
413.7	4533.5	
413.91	6104.3	
414.11	6974	
414.31	4663.2	
414.52	5179.3	
414.72	6620.4	
414.92	6570.6	
415.12	4822.3	
415.33	5262.6	
415.53	6898.9	
415.73	7124.2	
415.94	5655.1	
416.14	5036	
416.34	5898.1	
416.55	5793	
416.75	6239.5	
416.95	5620.3	
417.15	6877.8	
417.36	7651.9	
417.56	6416.3	
417.76	5480.4	
417.97	7264.8	
418.17	6986.3	
418.37	5128.1	
418.57	5200.5	
418.78	6762.4	
418.98	6392.4	
419.18	6004.6	
419.38	5930.9	
419.59	6497.5	
419.79	6093.4	
419.99	5042.8	
420.2	5375.2	
420.4	7008.8	
420.6	7148.8	
420.8	4896	
421.01	4861.9	
421.21	6797.9	
421.41	6983.6	
421.61	5369.8	
421.82	5069.4	
422.02	6319.3	
422.22	7309.2	
422.42	5782.8	
422.63	5520	
422.83	6522.1	
423.03	7597.3	
423.23	5578.7	
423.44	4583.4	
423.64	6496.2	
423.84	6279.8	
424.04	4971.8	
424.25	4673.5	
424.45	7423.2	
424.65	7410.9	
424.85	4472.8	
425.06	5002.5	
425.26	7365.9	
425.46	5948.7	
425.66	5560.9	
425.87	5177.9	
426.07	7172	
426.27	7012.2	
426.47	5302.9	
426.67	4752	
426.88	7549.5	
427.08	7038.2	
427.28	5621.7	
427.48	4696.7	
427.69	5937.1	
427.89	6536.4	
428.09	5552.7	
428.29	4744.5	
428.5	7202.7	
428.7	6752.8	
428.9	4627.7	
429.1	5106.3	
429.3	6737.1	
429.51	7146	
429.71	5031.2	
429.91	5758.2	
430.11	6930.3	
430.31	7191.1	
430.52	5274.2	
430.72	5543.2	
430.92	7533.8	
431.12	7047.1	
431.32	4904.9	
431.53	5356.1	
431.73	5971.9	
431.93	7690.1	
432.13	4859.8	
432.33	4695.3	
432.54	6494.1	
432.74	6806.1	
432.94	4700.1	
433.14	5748	
433.34	7015.7	
433.55	6469.5	
433.75	5656.5	
433.95	7372.7	
434.15	6787	
434.35	6511.2	
434.56	4863.9	
434.76	4405.2	
434.96	6782.2	
435.16	7024.5	
435.36	4683	
435.56	5800.5	
435.77	6369.2	
435.97	6547.4	
436.17	6511.9	
436.37	5793	
436.57	6434.7	
436.78	6316.6	
436.98	7555	
437.18	6394.4	
437.38	7078.5	
437.58	6589	
437.78	6445	
437.99	5156.1	
438.19	7098.9	
438.39	7888.8	
438.59	5088.5	
438.79	4654.4	
438.99	7669	
439.2	6548.7	
439.4	4726	
439.6	4718.5	
439.8	6873	
440	7900.4	
440.2	5742.5	
440.4	5879.7	
440.61	7372	
440.81	7761.8	
441.01	4975.9	
441.21	5883.8	
441.41	7734.5	
441.61	7288.7	
441.81	6152.1	
442.02	7166.5	
442.22	8191.9	
442.42	7344.7	
442.62	5043.5	
442.82	5173.9	
443.02	7643	
443.22	6840.2	
443.43	5522	
443.63	5082.4	
443.83	6641.6	
444.03	6686.6	
444.23	6312.5	
444.43	5881.8	
444.63	6989	
444.83	8142	
445.04	5188.2	
445.24	6413.6	
445.44	7387.7	
445.64	7532.4	
445.84	6014.2	
446.04	6009.4	
446.24	6749.4	
446.44	7812.3	
446.65	5189.6	
446.85	5588.9	
447.05	7178.1	
447.25	7745.4	
447.45	5683.1	
447.65	5099.4	
447.85	7067.5	
448.05	6779.5	
448.25	6064	
448.46	5866.1	
448.66	7096.9	
448.86	6803.4	
449.06	4948.6	
449.26	6080.4	
449.46	7471.7	
449.66	6541.2	
449.86	5603.9	
450.06	5614.2	
450.26	6804.7	
450.47	7342.7	
450.67	5900.2	
450.87	6105	
451.07	7371.3	
451.27	7188.4	
451.47	5188.2	
451.67	5732.3	
451.87	6877.8	
452.07	7929.7	
452.27	5500.8	
452.47	5397.1	
452.67	7141.3	
452.88	7621.9	
453.08	4855.7	
453.28	6793.8	
453.48	8436.9	
453.68	7103.7	
453.88	5362.9	
454.08	5600.5	
454.28	7469.6	
454.48	7240.9	
454.68	6161	
454.88	6724.2	
455.08	7634.8	
455.28	7467.6	
455.48	5269.4	
455.68	5861.3	
455.89	8111.3	
456.09	7722.9	
456.29	5636	
456.49	5674.2	
456.69	7998	
456.89	7275.1	
457.09	6173.9	
457.29	6552.1	
457.49	7610.3	
457.69	7647.1	
457.89	6072.9	
458.09	5394.3	
458.29	7363.1	
458.49	8064.2	
458.69	6434	
458.89	5913.2	
459.09	8290.9	
459.29	8470.4	
459.49	5957.5	
459.69	6724.8	
459.9	7899.7	
460.1	7428.7	
460.3	5868.8	
460.5	5658.5	
460.7	7947.5	
460.9	7552.9	
461.1	5306.3	
461.3	6675.7	
461.5	8487.5	
461.7	8064.2	
461.9	5748.6	
462.1	6163.7	
462.3	7661.5	
462.5	8199.4	
462.7	5843.5	
462.9	5982.1	
463.1	9258.9	
463.3	8927.8	
463.5	6131.6	
463.7	7099.6	
463.9	7886	
464.1	8142	
464.3	6245.6	
464.5	6566.5	
464.7	8541.4	
464.9	8030.8	
465.1	7857.4	
465.3	6867.5	
465.5	8884.8	
465.7	8817.2	
465.9	7114	
466.1	6927.6	
466.3	8690.2	
466.5	8470.4	
466.7	7830.1	
466.9	6740.5	
467.1	8411.7	
467.3	9372.2	
467.5	7808.2	
467.7	6623.1	
467.9	9622.7	
468.1	10484	
468.3	7494.2	
468.5	7954.3	
468.7	8389.8	
468.9	8410.3	
469.1	7011.6	
469.3	7675.1	
469.5	10314	
469.7	8046.5	
469.9	7441.6	
470.1	6791.1	
470.3	8440.4	
470.5	8532.5	
470.7	7971.4	
470.9	6827.9	
471.1	8237.6	
471.3	8680	
471.5	6743.3	
471.69	8596.7	
471.89	8103.8	
472.09	7707.2	
472.29	7408.2	
472.49	7894.9	
472.69	7937.9	
472.89	8764.6	
473.09	6597.9	
473.29	6744.6	
473.49	8069	
473.69	8301.8	
473.89	7761.1	
474.09	6859.3	
474.29	9553.8	
474.49	9123	
474.69	7673.7	
474.89	7057.3	
475.09	8258.8	
475.29	8296.3	
475.49	6582.2	
475.69	6809.5	
475.88	9873.3	
476.08	8593.3	
476.28	6429.9	
476.48	6901.7	
476.68	9032.2	
476.88	8927.1	
477.08	6697.5	
477.28	7007.5	
477.48	8336.6	
477.68	9110	
477.88	6632	
478.08	6913.3	
478.28	9292.3	
478.48	8523.6	
478.67	7025.2	
478.87	6444.3	
479.07	9135.3	
479.27	8619.2	
479.47	7157.7	
479.67	7239.6	
479.87	8998.1	
480.07	9555.8	
480.27	6498.2	
480.47	8111.3	
480.67	8755.7	
480.87	9383.8	
481.06	6717.3	
481.26	7587	
481.46	8645.2	
481.66	8611	
481.86	7161.7	
482.06	8206.9	
482.26	8346.2	
482.46	9310.7	
482.66	7164.5	
482.86	6827.9	
483.05	8796	
483.25	8176.2	
483.45	9637.1	
483.65	7306.5	
483.85	8454	
484.05	8703.9	
484.25	7677.2	
484.45	8123.6	
484.65	9511.4	
484.84	9542.2	
485.04	7160.4	
485.24	7177.4	
485.44	9878	
485.64	8185.7	
485.84	6479.1	
486.04	7851.2	
486.24	8488.1	
486.44	8931.9	
486.63	6403.3	
486.83	7290.1	
487.03	8383.7	
487.23	8658.1	
487.43	6595.8	
487.63	8878.6	
487.83	8693.6	
488.02	9664.4	
488.22	7597.3	
488.42	8193.2	
488.62	9477.3	
488.82	8561.2	
489.02	7299.6	
489.22	7321.5	
489.41	9506	
489.61	9099.1	
489.81	7117.4	
490.01	7053.2	
490.21	9398.8	
490.41	10103	
490.61	7060	
490.8	7176.8	
491	8900.5	
491.2	8327.7	
491.4	7714	
491.6	6743.3	
491.8	8841.1	
491.99	9036.3	
492.19	6746	
492.39	7126.9	
492.59	9500.5	
492.79	9538.1	
492.99	7944.8	
493.18	7100.3	
493.38	9716.2	
493.58	10440	
493.78	7800.7	
493.98	7537.2	
494.18	9272.5	
494.37	8909.3	
494.57	8003.5	
494.77	8015.1	
494.97	9637.1	
495.17	9912.9	
495.37	7639.6	
495.56	7952.3	
495.76	10185	
495.96	9775.6	
496.16	8870.4	
496.36	7806.9	
496.55	9951.8	
496.75	9521	
496.95	8222.6	
497.15	8048.5	
497.35	9922.4	
497.54	9891.7	
497.74	7901.1	
497.94	9570.2	
498.14	10586	
498.34	10464	
498.53	7511.3	
498.73	8311.3	
498.93	9309.4	
499.13	9940.2	
499.33	8191.2	
499.52	8757.1	
499.72	9977.7	
499.92	10177	
500.12	7933.8	
500.32	8189.8	
500.51	10288	
500.71	9927.9	
500.91	9017.9	
501.11	8542.8	
501.31	10178	
501.5	10521	
501.7	9306.7	
501.9	8302.5	
502.1	9981.8	
502.29	10430	
502.49	8673.1	
502.69	9145.5	
502.89	10189	
503.09	10221	
503.28	7740	
503.48	7845.8	
503.68	9406.3	
503.88	9434.3	
504.07	8822.6	
504.27	8356.4	
504.47	9746.3	
504.67	9867.8	
504.86	8729.8	
505.06	8389.2	
505.26	9426.1	
505.46	11272	
505.65	8236.9	
505.85	8440.4	
506.05	9416.6	
506.25	9826.8	
506.44	7582.3	
506.64	8558.5	
506.84	9329.9	
507.04	10300	
507.23	7713.3	
507.43	8424	
507.63	11322	
507.83	9643.9	
508.02	8316.1	
508.22	8102.4	
508.42	11611	
508.62	9351	
508.81	8282.7	
509.01	8870.4	
509.21	9137.4	
509.4	9495.1	
509.6	8445.8	
509.8	7852.6	
510	9512.1	
510.19	10977	
510.39	7888.1	
510.59	7991.2	
510.79	9303.9	
510.98	10759	
511.18	8091.5	
511.38	8181.6	
511.57	10161	
511.77	10044	
511.97	8735.3	
512.17	7802.8	
512.36	10139	
512.56	10047	
512.76	7808.9	
512.95	7609.6	
513.15	10194	
513.35	8976.2	
513.55	8697	
513.74	7855.3	
513.94	10234	
514.14	9613.2	
514.33	8799.4	
514.53	8700.5	
514.73	9549	
514.92	9787.9	
515.12	8142.7	
515.32	7883.3	
515.51	9948.3	
515.71	10533	
515.91	9635	
516.11	8036.9	
516.3	11606	
516.5	9516.9	
516.7	8656.8	
516.89	9181	
517.09	9648	
517.29	9559.9	
517.48	9058.2	
517.68	8246.5	
517.88	9355.1	
518.07	10116	
518.27	8827.4	
518.47	7841	
518.66	10722	
518.86	9231.6	
519.06	7679.9	
519.25	8102.4	
519.45	9590	
519.65	11197	
519.84	8789.2	
520.04	9464.3	
520.24	11390	
520.43	10174	
520.63	8522.3	
520.83	8234.2	
521.02	9405.6	
521.22	10152	
521.42	8788.5	
521.61	9300.5	
521.81	9677.3	
522.01	9829.6	
522.2	8682	
522.4	8449.9	
522.6	10445	
522.79	9160.6	
522.99	8441	
523.18	7816.4	
523.38	10104	
523.58	10211	
523.77	9910.8	
523.97	7873.8	
524.17	12044	
524.36	11198	
524.56	9284.1	
524.76	8983.8	
524.95	10215	
525.15	9897.8	
525.34	8775.5	
525.54	8727.8	
525.74	10682	
525.93	9629.5	
526.13	10056	
526.33	8802.2	
526.52	10989	
526.72	10416	
526.91	10133	
527.11	9334	
527.31	11129	
527.5	11607	
527.7	9282.8	
527.89	8279.9	
528.09	10184	
528.29	10642	
528.48	9757.9	
528.68	9400.9	
528.87	11060	
529.07	10992	
529.27	9179.7	
529.46	8736	
529.66	10643	
529.85	11082	
530.05	8553.7	
530.25	9359.2	
530.44	12011	
530.64	10473	
530.83	9045.2	
531.03	9292.3	
531.23	11013	
531.42	10933	
531.62	10025	
531.81	9389.9	
532.01	11248	
532.21	11664	
532.4	9035.6	
532.6	9504.6	
532.79	12086	
532.99	11333	
533.18	9512.8	
533.38	10430	
533.58	10958	
533.77	11603	
533.97	9461.6	
534.16	10279	
534.36	11872	
534.55	11001	
534.75	10413	
534.95	9598.8	
535.14	11893	
535.34	10987	
535.53	9273.2	
535.73	11245	
535.92	12238	
536.12	11149	
536.31	9311.4	
536.51	10492	
536.71	11376	
536.9	11010	
537.1	9470.5	
537.29	9653.4	
537.49	11883	
537.68	10934	
537.88	10086	
538.07	9271.8	
538.27	11213	
538.46	12276	
538.66	9136	
538.86	9575.6	
539.05	11201	
539.25	11671	
539.44	10008	
539.64	9553.8	
539.83	11041	
540.03	12123	
540.22	9316.9	
540.42	9415.9	
540.61	11318	
540.81	11436	
541	9905.3	
541.2	10601	
541.39	10789	
541.59	11244	
541.78	10163	
541.98	9342.2	
542.18	10461	
542.37	10432	
542.57	9734.7	
542.76	10189	
542.96	10492	
543.15	11209	
543.35	9641.2	
543.54	9017.2	
543.74	11475	
543.93	10991	
544.13	9613.2	
544.32	10633	
544.52	11391	
544.71	10516	
544.91	8827.4	
545.1	9979.8	
545.3	10621	
545.49	11316	
545.69	8675.2	
545.88	9328.5	
546.08	12223	
546.27	11880	
546.47	9750.4	
546.66	8983.1	
546.86	11343	
547.05	12014	
547.24	9366.7	
547.44	9219.3	
547.63	10392	
547.83	11531	
548.02	9607.7	
548.22	9731.3	
548.41	10241	
548.61	11566	
548.8	9160.6	
549	9112.8	
549.19	10940	
549.39	11116	
549.58	8682	
549.78	9341.5	
549.97	11249	
550.17	10679	
550.36	10175	
550.55	11171	
550.75	10703	
550.94	11609	
551.14	8967.4	
551.33	9306.7	
551.53	10189	
551.72	11058	
551.92	9328.5	
552.11	9146.2	
552.31	11135	
552.5	11119	
552.69	10802	
552.89	8718.9	
553.08	11018	
553.28	10766	
553.47	9037	
553.67	10281	
553.86	11776	
554.06	9914.2	
554.25	8353	
554.44	8909.3	
554.64	12346	
554.83	11910	
555.03	8851.3	
555.22	9241.1	
555.42	11256	
555.61	10937	
555.8	9011.1	
556	9267.1	
556.19	9994.1	
556.39	11423	
556.58	9116.2	
556.78	9043.8	
556.97	10784	
557.16	10485	
557.36	10362	
557.55	8791.2	
557.75	9846	
557.94	11555	
558.13	8837.7	
558.33	8596	
558.52	11387	
558.72	10280	
558.91	8671.8	
559.1	8978.3	
559.3	9869.2	
559.49	9714.9	
559.69	8282.7	
559.88	9300.5	
560.07	10789	
560.27	11219	
560.46	9445.2	
560.66	9588.6	
560.85	10529	
561.04	9715.6	
561.24	8674.5	
561.43	8862.9	
561.63	10079	
561.82	10204	
562.01	10062	
562.21	9184.5	
562.4	10738	
562.59	11686	
562.79	8952.4	
562.98	8798.8	
563.18	10705	
563.37	12191	
563.56	9584.5	
563.76	8635.6	
563.95	10217	
564.14	10112	
564.34	9032.9	
564.53	8871.1	
564.73	10716	
564.92	10994	
565.11	9187.2	
565.31	8722.3	
565.5	11290	
565.69	10277	
565.89	8866.3	
566.08	9290.3	
566.27	11084	
566.47	11473	
566.66	9677.3	
566.85	8467	
567.05	10789	
567.24	10255	
567.44	8822	
567.63	10225	
567.82	11035	
568.02	10834	
568.21	8796	
568.4	9320.3	
568.6	10698	
568.79	10707	
568.98	8778.3	
569.18	8954.4	
569.37	10796	
569.56	12763	
569.76	9179.7	
569.95	10236	
570.14	11083	
570.34	11014	
570.53	8811.7	
570.72	8760.5	
570.91	11636	
571.11	10710	
571.3	9257.5	
571.49	10180	
571.69	10742	
571.88	10384	
572.07	9854.8	
572.27	9794.1	
572.46	10293	
572.65	11338	
572.85	9128.5	
573.04	9425.4	
573.23	11597	
573.43	10888	
573.62	8948.9	
573.81	9526.5	
574	11025	
574.2	10704	
574.39	9317.6	
574.58	9437.7	
574.78	11852	
574.97	11161	
575.16	9821.4	
575.36	10114	
575.55	11551	
575.74	11797	
575.93	8939.4	
576.13	10116	
576.32	10989	
576.51	11540	
576.71	9474.6	
576.9	10798	
577.09	11875	
577.28	11427	
577.48	9810.5	
577.67	8960.5	
577.86	11048	
578.05	11417	
578.25	9613.2	
578.44	9714.2	
578.63	11131	
578.83	12388	
579.02	9060.2	
579.21	10558	
579.4	11376	
579.6	11047	
579.79	9815.2	
579.98	11868	
580.17	11712	
580.37	11755	
580.56	9225.4	
580.75	10026	
580.94	12246	
581.14	11995	
581.33	10479	
581.52	9426.1	
581.71	11593	
581.91	12276	
582.1	9105.3	
582.29	9693.7	
582.48	11232	
582.68	11151	
582.87	10241	
583.06	9759.9	
583.25	11527	
583.45	10922	
583.64	10515	
583.83	11241	
584.02	11024	
584.21	11456	
584.41	10454	
584.6	9697.8	
584.79	11214	
584.98	11940	
585.18	9226.1	
585.37	9252	
585.56	10759	
585.75	11592	
585.94	9454.8	
586.14	10167	
586.33	12102	
586.52	11211	
586.71	9861.7	
586.91	9646.6	
587.1	10536	
587.29	11607	
587.48	9536.7	
587.67	9349	
587.87	11508	
588.06	11547	
588.25	10853	
588.44	10070	
588.63	11119	
588.83	11716	
589.02	9514.9	
589.21	9337.4	
589.4	10919	
589.59	10676	
589.78	8470.4	
589.98	8860.9	
590.17	10215	
590.36	10856	
590.55	8150.9	
590.74	8921	
590.94	12185	
591.13	10612	
591.32	8824.7	
591.51	8376.9	
591.7	11155	
591.89	10654	
592.09	8514.8	
592.28	8916.2	
592.47	9932	
592.66	11848	
592.85	8444.5	
593.05	8770.8	
593.24	10455	
593.43	11256	
593.62	8774.2	
593.81	9310.1	
594	10539	
594.19	10722	
594.39	8684.1	
594.58	8721.6	
594.77	10862	
594.96	11408	
595.15	8497	
595.34	9299.1	
595.54	10895	
595.73	9941.5	
595.92	7896.3	
596.11	9075.2	
596.3	11310	
596.49	10042	
596.68	8903.9	
596.88	9334.6	
597.07	11096	
597.26	9857.6	
597.45	8372.1	
597.64	9606.3	
597.83	10226	
598.02	10776	
598.22	8452.6	
598.41	9092.3	
598.6	10493	
598.79	9888.3	
598.98	8471.1	
599.17	9375.6	
599.36	10512	
599.55	11729	
599.74	10523	
599.94	10210	
600.13	10978	
600.32	9813.2	
600.51	8103.1	
600.7	8290.9	
600.89	11622	
601.08	11708	
601.27	8060.8	
601.47	9050.7	
601.66	10867	
601.85	11494	
602.04	8772.8	
602.23	9030.2	
602.42	9929.9	
602.61	10634	
602.8	8629.5	
602.99	8362.5	
603.18	10235	
603.37	10641	
603.57	9001.5	
603.76	9453.4	
603.95	11288	
604.14	10832	
604.33	8454.7	
604.52	8838.4	
604.71	10479	
604.9	10178	
605.09	9621.4	
605.28	9200.2	
605.47	11031	
605.66	10681	
605.86	8981.7	
606.05	8458.1	
606.24	11019	
606.43	9630.2	
606.62	8821.3	
606.81	9606.3	
607	10929	
607.19	10230	
607.38	8134.5	
607.57	8531.8	
607.76	9967.5	
607.95	9459.6	
608.14	8866.3	
608.33	9443.9	
608.52	9967.5	
608.72	10865	
608.91	8084	
609.1	8032.1	
609.29	10137	
609.48	9549.7	
609.67	9054.1	
609.86	8100.4	
610.05	9579	
610.24	9962	
610.43	7970	
610.62	7572	
610.81	11070	
611	10883	
611.19	8056.7	
611.38	8800.8	
611.57	10264	
611.76	11668	
611.95	7855.3	
612.14	7647.1	
612.33	10100	
612.52	9540.1	
612.71	8382.3	
612.9	7674.4	
613.09	9248.6	
613.28	11644	
613.47	8219.9	
613.66	9015.8	
613.85	10219	
614.04	9754.5	
614.24	8213	
614.43	7453.2	
614.62	10316	
614.81	10260	
615	8823.3	
615.19	8899.1	
615.38	9623.4	
615.57	9944.9	
615.76	8717.5	
615.95	9568.8	
616.14	10269	
616.33	9998.2	
616.52	8928.5	
616.71	9232.9	
616.9	10315	
617.09	10204	
617.28	8351.6	
617.47	9596.1	
617.66	9517.6	
617.85	9553.8	
618.04	9334.6	
618.22	8727.8	
618.41	9889.6	
618.6	10834	
618.79	8668.4	
618.98	8514.8	
619.17	11187	
619.36	9517.6	
619.55	8699.1	
619.74	8622.6	
619.93	10395	
620.12	9885.5	
620.31	9042.5	
620.5	9405.6	
620.69	11049	
620.88	11422	
621.07	10077	
621.26	9248.6	
621.45	10659	
621.64	10674	
621.83	9222	
622.02	8459.5	
622.21	10858	
622.4	10501	
622.59	9845.3	
622.78	9495.1	
622.97	10158	
623.16	11196	
623.35	9192.6	
623.54	8440.4	
623.72	10372	
623.91	10567	
624.1	9645.9	
624.29	8274.5	
624.48	11646	
624.67	10930	
624.86	9467.8	
625.05	8568	
625.24	11785	
625.43	10207	
625.62	11155	
625.81	8901.2	
626	11262	
626.19	10423	
626.38	9602.9	
626.56	8985.1	
626.75	10369	
626.94	11187	
627.13	9675.3	
627.32	8381.7	
627.51	10925	
627.7	12156	
627.89	8531.2	
628.08	9563.3	
628.27	10188	
628.46	10483	
628.65	8712.1	
628.83	8443.8	
629.02	10976	
629.21	10281	
629.4	9192	
629.59	9408.4	
629.78	10210	
629.97	11207	
630.16	9424.1	
630.35	8845.9	
630.54	11609	
630.72	11232	
630.91	8887.5	
631.1	9492.3	
631.29	10772	
631.48	10955	
631.67	9632.3	
631.86	8964.6	
632.05	10337	
632.24	10574	
632.42	8596.7	
632.61	9203.6	
632.8	10487	
632.99	10150	
633.18	9302.6	
633.37	9565.4	
633.56	10753	
633.75	10572	
633.93	9125.1	
634.12	8895.7	
634.31	11594	
634.5	11026	
634.69	9027.4	
634.88	9398.1	
635.07	10527	
635.25	11090	
635.44	9707.4	
635.63	10044	
635.82	10361	
636.01	9850.7	
636.2	9650	
636.39	9308.7	
636.57	11351	
636.76	11110	
636.95	8607.6	
637.14	10045	
637.33	10716	
637.52	11714	
637.7	8356.4	
637.89	9316.9	
638.08	10330	
638.27	11741	
638.46	9387.9	
638.65	9881.4	
638.83	11660	
639.02	10091	
639.21	9306.7	
639.4	9804.3	
639.59	10570	
639.78	10091	
639.96	8591.9	
640.15	8559.8	
640.34	10342	
640.53	10503	
640.72	8204.2	
640.91	8642.4	
641.09	9799.5	
641.28	11158	
641.47	8678.6	
641.66	9447.3	
641.85	10413	
642.03	10593	
642.22	9162.6	
642.41	8717.5	
642.6	9788.6	
642.79	9285.5	
642.97	8353.7	
643.16	9129.2	
643.35	9844.6	
643.54	9639.1	
643.73	8314.1	
643.91	9088.9	
644.1	9425.4	
644.29	10028	
644.48	8392.6	
644.67	8438.3	
644.85	9480.7	
645.04	9924.5	
645.23	7920.9	
645.42	8320.9	
645.6	9527.8	
645.79	10479	
645.98	8185	
646.17	7208.2	
646.36	9135.3	
646.54	9760.6	
646.73	8834.3	
646.92	7724.3	
647.11	9281.4	
647.29	10368	
647.48	7752.2	
647.67	7505.1	
647.86	10573	
648.05	10618	
648.23	8018.5	
648.42	9296.4	
648.61	9963.4	
648.8	9615.2	
648.98	7648.5	
649.17	7940.7	
649.36	9263.6	
649.55	8774.9	
649.73	7689.4	
649.92	8527.1	
650.11	9125.1	
650.3	9400.9	
650.48	7840.3	
650.67	7591.1	
650.86	9738.1	
651.05	8639.7	
651.23	7788.4	
651.42	7815.7	
651.61	9194.7	
651.79	9253.4	
651.98	7928.4	
652.17	7537.9	
652.36	9538.1	
652.54	8665.6	
652.73	7522.2	
652.92	7377.5	
653.11	9548.3	
653.29	9703.3	
653.48	6841.6	
653.67	7859.4	
653.85	9337.4	
654.04	10322	
654.23	8021.9	
654.42	7506.5	
654.6	8785.1	
654.79	9424.8	
654.98	6882.5	
655.16	7464.2	
655.35	8328.4	
655.54	8189.1	
655.73	7001.3	
655.91	6861.4	
656.1	9370.8	
656.29	8350.9	
656.47	6546.7	
656.66	8288.8	
656.85	8583.7	
657.03	8660.2	
657.22	7075.7	
657.41	7199.3	
657.59	8706.6	
657.78	8462.9	
657.97	6780.8	
658.16	7634.1	
658.34	9344.9	
658.53	9707.4	
658.72	8428.1	
658.9	9006.3	
659.09	8721.6	
659.28	8813.8	
659.46	7301	
659.65	7207.5	
659.84	8620.6	
660.02	9080.7	
660.21	7121.5	
660.4	7124.2	
660.58	9496.4	
660.77	8900.5	
660.96	7716.7	
661.14	6785.6	
661.33	10034	
661.52	9879.4	
661.7	6803.4	
661.89	10456	
662.08	8437.6	
662.26	8062.9	
662.45	7008.1	
662.64	7174	
662.82	9284.8	
663.01	8381.7	
663.2	7174.7	
663.38	7849.9	
663.57	9097.1	
663.75	8927.1	
663.94	7472.4	
664.13	8662.2	
664.31	8488.8	
664.5	9146.9	
664.69	7606.2	
664.87	8142	
665.06	8142.7	
665.25	9031.5	
665.43	8420.6	
665.62	8510.7	
665.8	9236.3	
665.99	8604.9	
666.18	7324.2	
666.36	7555.6	
666.55	9172.9	
666.74	9111.4	
666.92	7098.3	
667.11	8682.7	
667.29	8565.3	
667.48	9138	
667.67	8215.8	
667.85	7233.4	
668.04	8647.2	
668.22	8544.8	
668.41	7460.8	
668.6	7576.1	
668.78	8396	
668.97	8544.8	
669.15	7767.3	
669.34	6790.4	
669.53	8354.3	
669.71	8693.6	
669.9	6933.7	
670.08	7592.5	
670.27	8379.6	
670.46	8911.4	
670.64	7803.4	
670.83	8023.9	
671.01	8203.5	
671.2	8829.5	
671.38	6899.6	
671.57	6834.8	
671.76	9439.8	
671.94	10028	
672.13	6778.8	
672.31	7890.1	
672.5	9131.2	
672.69	8462.9	
672.87	7007.5	
673.06	7385	
673.24	8848.6	
673.43	8472.4	
673.61	7723.6	
673.8	7288.7	
673.98	9060.9	
674.17	9252	
674.36	7881.9	
674.54	7720.8	
674.73	8877.9	
674.91	9069.8	
675.1	7436.2	
675.28	6995.2	
675.47	8625.4	
675.65	9221.3	
675.84	7272.3	
676.03	7552.2	
676.21	8405.5	
676.4	7909.9	
676.58	8084.7	
676.77	7746.1	
676.95	9899.2	
677.14	8383	
677.32	7019.1	
677.51	6778.1	
677.69	9110.7	
677.88	8043.7	
678.06	6890.7	
678.25	6980.8	
678.44	8647.2	
678.62	8345.5	
678.81	6657.9	
678.99	7580.2	
679.18	9476.6	
679.36	8988.5	
679.55	7207.5	
679.73	7865.6	
679.92	8958.5	
680.1	8355	
680.29	8406.9	
680.47	7242.3	
680.66	8275.2	
680.84	9144.9	
681.03	6567.8	
681.21	7567.2	
681.4	8423.3	
681.58	8214.4	
681.77	6948.1	
681.95	6918.7	
682.14	9198.1	
682.32	9514.9	
682.51	7834.2	
682.69	6714.6	
682.88	8262.2	
683.06	8932.6	
683.25	7595.9	
683.43	7935.2	
683.62	8495.7	
683.8	8971.5	
683.99	8185.7	
684.17	7382.9	
684.36	9747	
684.54	8412.4	
684.73	6542.6	
684.91	6709.8	
685.1	8606.2	
685.28	8043.1	
685.46	7172.7	
685.65	7324.9	
685.83	8859.5	
686.02	8186.4	
686.2	6744	
686.39	6890	
686.57	7947.5	
686.76	9528.5	
686.94	6784.9	
687.13	6945.3	
687.31	8717.5	
687.5	8336.6	
687.68	6366.5	
687.86	7599.3	
688.05	10003	
688.23	7796.6	
688.42	7685.3	
688.6	6824.5	
688.79	8286.1	
688.97	8226	
689.16	7242.3	
689.34	6211.5	
689.52	8996	
689.71	9237	
689.89	7593.2	
690.08	6861.4	
690.26	8502.5	
690.45	8421.9	
690.63	7703.1	
690.81	7073.7	
691	8243.8	
691.18	8151.6	
691.37	7183.6	
691.55	9297.8	
691.74	8069.7	
691.92	10130	
692.1	7225.2	
692.29	6611.5	
692.47	8313.4	
692.66	7684.7	
692.84	6884.6	
693.02	7401.4	
693.21	7840.3	
693.39	8302.5	
693.58	7473	
693.76	6905.1	
693.94	9482.8	
694.13	9327.8	
694.31	6905.1	
694.5	7977.5	
694.68	8134.5	
694.86	8486.1	
695.05	7208.2	
695.23	7377.5	
695.42	8910.7	
695.6	11085	
695.78	7838.3	
695.97	6909.8	
696.15	8966.7	
696.34	8211	
696.52	6716	
696.7	7535.8	
696.89	8632.9	
697.07	8080.6	
697.25	7387.7	
697.44	8863.6	
697.62	8593.3	
697.81	8903.9	
697.99	7102.4	
698.17	7586.4	
698.36	7892.9	
698.54	8595.3	
698.72	7428.7	
698.91	6415.6	
699.09	8138.6	
699.28	8045.1	
699.46	7079.1	
699.64	7016.3	
699.83	7922.9	
700.01	9115.5	
700.19	7722.2	
700.38	6184.9	
700.56	9115.5	
700.74	8039.6	
700.93	6642.9	
701.11	7435.5	
701.29	8550.3	
701.48	9592	
701.66	6810.2	
701.84	6877.1	
702.03	8083.3	
702.21	8803.5	
702.39	6420.4	
702.58	6956.9	
702.76	8600.1	
702.94	8652.7	
703.13	6435.4	
703.31	8788.5	
703.49	7873.1	
703.68	9151	
703.86	6551.5	
704.04	7526.3	
704.23	8305.9	
704.41	8731.2	
704.59	6715.3	
704.78	7888.1	
704.96	9452.7	
705.14	8774.2	
705.33	6403.3	
705.51	7282.6	
705.69	8131.8	
705.87	8976.9	
706.06	7551.5	
706.24	6476.4	
706.42	8417.2	
706.61	8623.3	
706.79	7560.4	
706.97	6428.6	
707.16	7867.6	
707.34	8418.5	
707.52	7449.1	
707.7	6622.4	
707.89	7969.3	
708.07	7749.5	
708.25	7516	
708.44	7578.2	
708.62	7834.2	
708.8	8987.9	
708.98	7768.6	
709.17	6633.4	
709.35	8293.6	
709.53	8316.8	
709.72	6333	
709.9	6803.4	
710.08	8520.2	
710.26	8555.7	
710.45	7896.3	
710.63	6594.5	
710.81	8224	
710.99	8204.2	
711.18	7240.3	
711.36	6810.2	
711.54	8022.6	
711.72	8753.7	
711.91	6828.6	
712.09	6183.5	
712.27	8131.8	
712.45	8703.2	
712.64	7059.3	
712.82	6047.7	
713	7549.5	
713.18	7675.1	
713.37	6200.6	
713.55	7496.2	
713.73	8494.3	
713.91	7037.5	
714.1	6369.2	
714.28	5870.2	
714.46	8086.1	
714.64	7195.2	
714.83	5309	
715.01	6135	
715.19	7350.8	
715.37	6670.9	
715.55	5771.2	
715.74	5943.2	
715.92	8187.1	
716.1	6188.3	
716.28	7139.2	
716.47	6141.2	
716.65	6819.7	
716.83	6924.9	
717.01	5958.9	
717.19	6036.7	
717.38	8993.3	
717.56	6683.2	
717.74	6346	
717.92	5471.5	
718.1	7808.9	
718.29	7124.9	
718.47	5072.1	
718.65	5778	
718.83	7817.1	
719.01	7720.2	
719.2	4956.1	
719.38	6055.2	
719.56	7389.8	
719.74	8924.4	
719.92	5543.9	
720.11	6668.2	
720.29	7372.7	
720.47	6546	
720.65	5160.9	
720.83	5971.2	
721.02	6825.2	
721.2	6676.4	
721.38	6036.7	
721.56	5310.4	
721.74	6112.5	
721.92	6406.7	
722.11	6504.3	
722.29	6300.9	
722.47	7577.5	
722.65	6747.4	
722.83	5264.6	
723.01	6283.9	
723.2	6860.7	
723.38	7063.4	
723.56	4694.6	
723.74	5930.9	
723.92	6276.3	
724.1	7452.6	
724.29	5211.4	
724.47	6337.1	
724.65	6360.3	
724.83	6348.7	
725.01	5117.9	
725.19	5928.2	
725.37	6368.5	
725.56	6452.5	
725.74	4932.2	
725.92	5185.5	
726.1	6210.1	
726.28	6552.8	
726.46	5565.7	
726.64	5341.1	
726.83	6567.2	
727.01	6864.8	
727.19	4928.8	
727.37	5696.8	
727.55	6708.5	
727.73	7168.6	
727.91	4899.4	
728.09	4715.1	
728.28	7222.5	
728.46	7719.5	
728.64	5806.7	
728.82	5758.2	
729	8288.1	
729.18	7542	
729.36	5032.5	
729.54	7361.1	
729.72	8531.2	
729.91	6812.9	
730.09	6920.8	
730.27	5648.3	
730.45	6711.9	
730.63	7437.5	
730.81	6247.7	
730.99	5319.3	
731.17	7842.4	
731.35	6473.6	
731.53	5826.5	
731.71	5513.1	
731.9	7601.4	
732.08	7836.2	
732.26	5682.4	
732.44	5473.5	
732.62	7723.6	
732.8	7299	
732.98	6140.5	
733.16	5193	
733.34	7288	
733.52	6100.2	
733.7	5623	
733.88	5905.7	
734.07	7070.3	
734.25	6878.4	
734.43	5090.6	
734.61	6704.4	
734.79	8361.2	
734.97	6728.3	
735.15	5152.7	
735.33	5528.2	
735.51	7136.5	
735.69	6676.4	
735.87	6946	
736.05	5754.1	
736.23	6931	
736.41	6728.9	
736.59	5522.7	
736.77	5647.6	
736.95	7361.8	
737.13	6784.2	
737.32	5211.4	
737.5	5410.1	
737.68	7932.5	
737.86	6625.2	
738.04	5018.9	
738.22	6915.3	
738.4	6470.2	
738.58	6797.2	
738.76	5735.7	
738.94	4661.2	
739.12	6597.9	
739.3	6548	
739.48	6242.2	
739.66	5976	
739.84	6822.5	
740.02	6793.8	
740.2	4743.8	
740.38	5107	
740.56	7198.6	
740.74	6072.9	
740.92	5769.1	
741.1	5654.4	
741.28	6642.2	
741.46	6496.8	
741.64	5271.5	
741.82	5823.1	
742	6783.6	
742.18	6690.7	
742.36	5492	
742.54	5085.1	
742.72	7240.3	
742.9	5937.7	
743.08	5876.3	
743.26	4669.4	
743.44	7429.3	
743.62	7226.6	
743.8	5969.8	
743.98	5095.3	
744.16	6946.7	
744.34	6686.6	
744.52	5969.8	
744.7	5835.3	
744.88	7060	
745.06	6609.5	
745.24	5885.2	
745.42	6021	
745.6	7116.7	
745.78	6943.3	
745.96	4753.3	
746.14	5100.1	
746.32	7891.5	
746.5	7200.7	
746.68	5633.3	
746.86	5104.9	
747.03	7539.9	
747.21	5941.8	
747.39	5626.5	
747.57	5085.8	
747.75	6780.8	
747.93	7183.6	
748.11	5079	
748.29	4952	
748.47	8327	
748.65	6530.3	
748.83	5750	
749.01	5557.5	
749.19	6966.5	
749.37	6125.5	
749.55	5389.6	
749.73	5480.4	
749.91	6668.2	
750.09	6387.6	
750.26	5549.3	
750.44	4921.3	
750.62	6679.8	
750.8	6639.5	
750.98	4822.3	
751.16	5126.7	
751.34	6808.8	
751.52	6049.7	
751.7	5875.6	
751.88	4773.8	
752.06	7193.1	
752.24	6978.8	
752.42	4659.1	
752.59	5063.3	
752.77	6692.8	
752.95	7879.2	
753.13	5838.1	
753.31	5145.9	
753.49	6309.1	
753.67	6783.6	
753.85	5424.4	
754.03	5076.9	
754.21	7047.7	
754.38	7357	
754.56	5258.5	
754.74	4255	
754.92	6230.6	
755.1	6935.1	
755.28	4302.8	
755.46	4258.4	
755.64	7625.3	
755.82	7708.6	
755.99	4487.8	
756.17	4520.5	
756.35	5094.7	
756.53	6634.7	
756.71	3418.1	
756.89	4369	
757.07	6296.8	
757.25	5367	
757.42	4876.2	
757.6	5888.6	
757.78	6401.3	
757.96	5423.7	
758.14	4704.2	
758.32	4160.8	
758.5	4975.2	
758.67	5840.8	
758.85	4575.8	
759.03	4674.8	
759.21	5954.8	
759.39	5411.4	
759.57	4050.2	
759.75	5257.8	
759.92	6651.1	
760.1	5924.8	
760.28	5657.2	
760.46	5818.3	
760.64	5674.9	
760.82	5397.8	
760.99	5507.7	
761.17	4606.6	
761.35	6532.3	
761.53	5509	
761.71	4767.7	
761.89	5464.7	
762.06	6498.9	
762.24	5961.6	
762.42	4893.3	
762.6	4655	
762.78	5946.6	
762.96	6619	
763.13	5259.9	
763.31	4906.9	
763.49	6810.2	
763.67	5926.1	
763.85	5779.4	
764.02	6288.6	
764.2	7010.2	
764.38	6163.7	
764.56	4814.1	
764.74	5656.5	
764.91	7165.8	
765.09	5986.9	
765.27	4440.7	
765.45	4302.8	
765.63	7148.1	
765.8	7004.1	
765.98	4009.2	
766.16	4284.4	
766.34	5552.7	
766.52	5371.8	
766.69	5232.6	
766.87	4154	
767.05	5984.8	
767.23	6721.4	
767.41	4481	
767.58	4728.8	
767.76	6485.9	
767.94	6624.5	
768.12	4560.1	
768.29	5228.5	
768.47	6021	
768.65	6723.5	
768.83	4159.4	
769	5290.6	
769.18	5552	
769.36	6290.7	
769.54	5279.7	
769.72	4198.3	
769.89	6528.9	
770.07	6700.3	
770.25	4524	
770.43	5732.9	
770.6	7276.4	
770.78	7618.4	
770.96	4712.4	
771.14	5371.1	
771.31	6439.5	
771.49	5831.9	
771.67	3831.1	
771.85	4063.2	
772.02	5083.7	
772.2	5739.8	
772.38	4771.1	
772.55	4330.1	
772.73	6053.1	
772.91	5868.1	
773.09	4685.8	
773.26	4841.4	
773.44	6032.6	
773.62	5618.9	
773.8	4153.3	
773.97	3889.1	
774.15	6049.7	
774.33	5679	
774.5	4089.8	
774.68	4490.5	
774.86	6253.1	
775.04	5683.8	
775.21	4125.3	
775.39	4115.7	
775.57	5904.3	
775.74	6336.4	
775.92	3977.8	
776.1	3851.5	
776.27	5902.2	
776.45	7141.9	
776.63	4056.3	
776.81	3667.9	
776.98	5524.1	
777.16	6679.8	
777.34	4250.2	
777.51	4592.9	
777.69	5560.9	
777.87	5299.5	
778.04	4343.7	
778.22	4876.9	
778.4	5348.6	
778.57	5971.9	
778.75	3609.2	
778.93	3801	
779.1	5094.7	
779.28	5040.1	
779.46	3551.2	
779.64	4024.3	
779.81	6119.3	
779.99	6997.9	
780.17	4831.8	
780.34	4952.7	
780.52	5602.6	
780.69	5851.7	
780.87	4385.4	
781.05	3891.1	
781.22	5655.8	
781.4	5698.1	
781.58	4037.2	
781.75	3255.6	
781.93	5586.9	
782.11	5100.8	
782.28	4970.4	
782.46	4070	
782.64	4911.7	
782.81	5868.1	
782.99	4197	
783.17	4119.1	
783.34	5713.8	
783.52	4965	
783.69	4304.8	
783.87	5139	
784.05	5008	
784.22	5060.5	
784.4	5089.9	
784.58	4397.7	
784.75	5978	
784.93	5117.9	
785.1	4067.9	
785.28	4723.3	
785.46	5752.1	
785.63	5045.5	
785.81	4030.4	
785.99	3892.5	
786.16	5220.3	
786.34	5571.8	
786.51	3895.2	
786.69	4283	
786.87	4785.4	
787.04	5334.3	
787.22	3809.2	
787.39	4719.9	
787.57	4968.4	
787.75	6178	
787.92	4911	
788.1	4841.4	
788.27	5029.8	
788.45	4791.6	
788.63	4588.8	
788.8	3227.6	
788.98	5595.1	
789.15	4764.3	
789.33	3415.3	
789.5	4092.5	
789.68	5999.2	
789.86	6062	
790.03	4437.9	
790.21	3918.4	
790.38	5973.9	
790.56	5141.1	
790.73	3749.8	
790.91	3831.1	
791.09	4997	
791.26	5735	
791.44	4030.4	
791.61	3410.6	
791.79	5041.4	
791.96	5132.2	
792.14	3564.1	
792.32	3175.7	
792.49	5066	
792.67	5167	
792.84	3659.7	
793.02	3427.6	
793.19	5672.9	
793.37	6225.1	
793.54	3220.8	
793.72	3521.8	
793.89	6358.9	
794.07	5032.5	
794.25	4183.3	
794.42	3261.7	
794.6	6092.7	
794.77	5754.8	
794.95	4455	
795.12	3849.5	
795.3	4992.3	
795.47	5608.7	
795.65	4269.3	
795.82	4040	
796	4833.9	
796.17	6690.7	
796.35	3949.8	
796.52	4656.4	
796.7	5537	
796.87	5647.6	
797.05	4900.8	
797.22	4777.9	
797.4	5646.9	
797.57	6641.6	
797.75	4078.9	
797.92	3852.9	
798.1	5974.6	
798.27	5001.1	
798.45	3286.3	
798.62	3530	
798.8	5363.6	
798.97	5875.6	
799.15	4307.6	
799.32	4094.6	
799.5	4533.5	
799.67	5371.8	
799.85	4458.4	
800.02	3211.2	
800.2	4969.1	
800.37	5331.5	
800.55	4590.2	
800.72	3827.7	
800.9	5734.3	
801.07	6180.1	
801.25	5146.5	
801.42	4194.9	
801.6	5793	
801.77	5562.3	
801.95	3867.2	
802.12	3732.1	
802.29	5522	
802.47	5517.2	
802.64	4125.3	
802.82	3154.6	
802.99	4992.3	
803.17	5926.1	
803.34	4080.9	
803.52	3666.5	
803.69	6634.7	
803.87	4745.8	
804.04	3981.3	
804.21	4100.7	
804.39	6080.4	
804.56	5212.1	
804.74	3454.9	
804.91	4242	
805.09	4991.6	
805.26	5088.5	
805.44	3510.2	
805.61	3823.6	
805.78	5727.5	
805.96	5737	
806.13	4212.7	
806.31	4520.5	
806.48	4543.1	
806.66	5033.2	
806.83	4155.3	
807	4112.3	
807.18	4980.7	
807.35	5451	
807.53	4016.7	
807.7	3295.9	
807.87	6142.5	
808.05	5068.7	
808.22	4552	
808.4	3259.7	
808.57	5063.9	
808.74	4661.9	
808.92	3764.2	
809.09	4741	
809.27	4883.7	
809.44	5528.8	
809.61	3282.2	
809.79	3657.7	
809.96	6173.9	
810.14	5803.9	
810.31	3211.9	
810.48	3893.9	
810.66	5114.5	
810.83	5865.4	
811.01	3634.5	
811.18	4113	
811.35	5739.1	
811.53	4449.6	
811.7	4531.5	
811.87	4203.8	
812.05	5045.5	
812.22	4906.9	
812.39	3637.2	
812.57	3534.8	
812.74	5075.5	
812.92	6802.7	
813.09	3958	
813.26	4301.4	
813.44	6446.3	
813.61	5006.6	
813.78	3261	
813.96	4401.8	
814.13	5051.7	
814.3	4710.3	
814.48	4721.9	
814.65	3914.4	
814.82	6309.8	
815	4848.9	
815.17	4058.4	
815.34	4943.8	
815.52	4927.4	
815.69	4936.3	
815.87	3966.9	
816.04	3431	
816.21	4999.1	
816.38	4396.3	
816.56	3876.1	
816.73	3622.9	
816.9	6352.8	
817.08	5781.4	
817.25	3693.9	
817.42	4625	
817.6	4653.7	
817.77	5091.3	
817.94	4113.7	
818.12	3568.9	
818.29	4788.2	
818.46	7499.7	
818.64	3730.7	
818.81	3513.6	
818.98	4711	
819.16	6886.6	
819.33	4343.1	
819.5	4029	
819.67	5420.3	
819.85	6039.5	
820.02	3941.7	
820.19	4164.9	
820.37	5240.1	
820.54	4825.7	
820.71	4077.5	
820.88	5111.7	
821.06	5240.1	
821.23	4762.2	
821.4	4169.7	
821.58	4048.2	
821.75	5785.5	
821.92	5154.7	
822.09	3315.7	
822.27	3471.3	
822.44	5042.1	
822.61	4986.1	
822.79	3353.9	
822.96	6381.5	
823.13	5513.8	
823.3	4783.4	
823.48	3791.5	
823.65	3455.6	
823.82	5719.3	
823.99	4564.2	
824.17	4943.1	
824.34	3488.4	
824.51	6483.9	
824.68	5107.6	
824.86	3631.7	
825.03	4050.9	
825.2	5001.1	
825.37	6156.2	
825.55	3647.4	
825.72	4050.9	
825.89	6724.8	
826.06	6229.9	
826.24	3880.2	
826.41	3925.3	
826.58	6130.9	
826.75	5301.5	
826.92	3084.9	
827.1	3480.2	
827.27	8299.7	
827.44	6672.3	
827.61	3759.4	
827.79	4485.1	
827.96	4768.4	
828.13	5119.2	
828.3	3849.5	
828.47	3292.5	
828.65	5269.4	
828.82	5205.3	
828.99	5063.3	
829.16	4397.7	
829.34	5652.4	
829.51	5423	
829.68	4059.1	
829.85	4195.6	
830.02	5944.6	
830.2	5666	
830.37	3150.5	
830.54	4833.2	
830.71	6384.9	
830.88	5042.8	
831.05	3155.2	
831.23	3676.8	
831.4	6117.3	
831.57	6904.4	
831.74	3732.1	
831.91	3254.2	
832.09	5293.3	
832.26	5691.3	
832.43	3876.1	
832.6	4342.4	
832.77	5286.5	
832.94	6079.1	
833.12	3070.6	
833.29	3868.6	
833.46	5470.8	
833.63	7185	
833.8	4216.1	
833.97	3889.8	
834.15	5723.4	
834.32	5485.1	
834.49	4019.5	
834.66	4124.6	
834.83	5888.6	
835	4774.5	
835.17	3729.4	
835.35	3773	
835.52	5545.2	
835.69	5502.9	
835.86	3921.2	
836.03	3173.7	
836.2	5608.7	
836.37	5259.2	
836.55	3903.4	
836.72	3616	
836.89	5149.3	
837.06	5754.1	
837.23	4052.9	
837.4	4333.5	
837.57	6477.7	
837.75	7182.9	
837.92	3531.4	
838.09	3810.6	
838.26	5195	
838.43	5942.5	
838.6	4061.1	
838.77	3673.4	
838.94	6728.3	
839.11	6494.1	
839.29	3889.8	
839.46	3041.2	
839.63	5595.7	
839.8	5383.4	
839.97	3779.9	
840.14	3713	
840.31	5373.9	
840.48	5645.6	
840.65	3118.4	
840.82	3821.5	
841	5648.3	
841.17	5634	
841.34	3495.2	
841.51	3467.9	
841.68	5569.8	
841.85	5320.6	
842.02	3607.8	
842.19	2956.6	
842.36	5376.6	
842.53	5444.2	
842.7	3482.2	
842.87	4246.8	
843.05	7068.9	
843.22	5365	
843.39	3242.6	
843.56	3551.9	
843.73	5116.5	
843.9	5710.4	
844.07	5698.1	
844.24	4604.5	
844.41	8366	
844.58	4884.4	
844.75	3351.2	
844.92	3608.5	
845.09	5636.7	
845.26	5605.3	
845.43	3457.7	
845.6	3624.2	
845.77	5639.4	
845.94	5360.2	
846.12	3792.2	
846.29	4045.4	
846.46	5849	
846.63	5580.7	
846.8	3491.1	
846.97	4040	
847.14	6094.8	
847.31	5565	
847.48	3861.1	
847.65	4236.6	
847.82	5930.2	
847.99	5853.1	
848.16	4671.4	
848.33	4289.8	
848.5	5194.3	
848.67	6107	
848.84	3399.6	
849.01	3570.3	
849.18	5001.1	
849.35	4697.4	
849.52	4340.3	
849.69	3428.3	
849.86	5819	
850.03	6005.3	
850.2	3469.9	
850.37	4168.3	
850.54	5972.6	
850.71	5244.8	
850.88	4124.6	
851.05	3425.6	
851.22	5527.5	
851.39	6096.1	
851.56	3229.6	
851.73	3961.5	
851.9	4980.7	
852.07	5853.1	
852.24	3835.2	
852.41	3400.3	
852.58	5459.2	
852.75	5033.9	
852.92	3866.6	
853.09	3338.9	
853.26	5191.6	
853.43	6096.8	
853.6	3347.1	
853.77	2932.7	
853.94	6145.3	
854.11	4840.7	
854.28	5096.7	
854.44	3692.5	
854.61	6647.7	
854.78	5898.8	
854.95	3356.6	
855.12	4326	
855.29	4531.5	
855.46	6230.6	
855.63	3384.6	
855.8	4741	
855.97	5192.3	
856.14	5981.4	
856.31	4939.7	
856.48	3786	
856.65	5150	
856.82	4876.9	
856.99	3292.5	
857.16	3711.6	
857.33	6809.5	
857.49	5292	
857.66	3745.1	
857.83	3978.5	
858	5259.9	
858.17	5507.7	
858.34	3209.2	
858.51	3417.4	
858.68	6254.5	
858.85	6307.7	
859.02	3990.1	
859.19	4217.5	
859.36	4902.2	
859.52	4921.3	
859.69	3459	
859.86	4024.3	
860.03	5005.2	
860.2	6193.7	
860.37	3127.2	
860.54	3426.9	
860.71	5847.6	
860.88	6297.5	
861.05	3854.3	
861.21	4317.1	
861.38	6333	
861.55	4807.9	
861.72	3092.4	
861.89	3836.5	
862.06	5900.2	
862.23	6332.3	
862.4	3287	
862.56	3563.5	
862.73	5685.8	
862.9	5447.6	
863.07	3992.2	
863.24	3097.2	
863.41	4849.6	
863.58	5061.9	
863.75	3508.2	
863.91	4028.4	
864.08	6111.8	
864.25	5770.5	
864.42	4343.1	
864.59	4833.9	
864.76	6549.4	
864.93	4962.2	
865.09	3378.5	
865.26	3644.7	
865.43	6086.6	
865.6	6490.7	
865.77	2983.9	
865.94	3381.2	
866.1	6135	
866.27	5843.5	
866.44	5204.6	
866.61	3220.8	
866.78	5352	
866.95	5741.8	
867.11	3338.9	
867.28	3080.1	
867.45	5919.3	
867.62	4980	
867.79	4044.1	
867.96	3379.8	
868.12	4937	
868.29	5900.2	
868.46	2992.1	
868.63	4608.6	
868.8	6032.6	
868.97	5839.4	
869.13	3614	
869.3	3650.2	
869.47	5693.4	
869.64	5930.2	
869.81	3481.5	
869.97	3437.9	
870.14	5629.2	
870.31	6314.6	
870.48	3333.4	
870.65	4377.9	
870.81	5268.1	
870.98	5267.4	
871.15	3902.7	
871.32	3546.4	
871.48	5697.4	
871.65	6331	
871.82	3408.5	
871.99	3824.2	
872.16	6718	
872.32	6094.8	
872.49	3456.3	
872.66	3462.4	
872.83	5819.6	
872.99	5137.7	
873.16	3976.5	
873.33	3404.4	
873.5	5438.7	
873.67	5477	
873.83	3672.7	
874	4685.1	
874.17	5580.7	
874.34	6669.6	
874.5	4455.7	
874.67	4235.2	
874.84	6241.5	
875.01	4884.4	
875.17	4808.6	
875.34	3479.5	
875.51	5516.5	
875.68	6635.4	
875.84	4136.2	
876.01	5074.9	
876.18	5814.2	
876.34	5689.9	
876.51	3491.1	
876.68	3381.2	
876.85	5275.6	
877.01	6120	
877.18	4900.1	
877.35	3343.7	
877.52	5431.9	
877.68	4870.1	
877.85	3396.2	
878.02	3420.8	
878.18	5371.8	
878.35	5060.5	
878.52	2755.9	
878.69	3908.2	
878.85	5864.7	
879.02	5816.9	
879.19	4885.1	
879.35	3746.4	
879.52	5732.9	
879.69	6027.9	
879.86	2965.5	
880.02	3853.6	
880.19	5380	
880.36	6606.7	
880.52	3909.6	
880.69	4098	
880.86	5956.9	
881.02	5927.5	
881.19	3752.6	
881.36	3738.2	
881.52	5786.9	
881.69	5119.9	
881.86	3687.7	
882.02	3620.1	
882.19	6072.9	
882.36	7129.7	
882.52	3532.1	
882.69	4809.3	
882.86	5625.8	
883.02	5468.1	
883.19	4191.5	
883.36	3951.2	
883.52	5941.2	
883.69	6729.6	
883.86	3502	
884.02	3136.8	
884.19	5827.2	
884.36	5390.9	
884.52	3863.2	
884.69	3620.1	
884.86	5155.4	
885.02	6409.5	
885.19	3841.3	
885.36	3981.3	
885.52	5440.8	
885.69	5570.5	
885.86	4952.7	
886.02	4363.5	
886.19	5842.2	
886.35	5398.4	
886.52	3812.6	
886.69	4802.5	
886.85	4932.2	
887.02	6212.2	
887.19	6212.2	
887.35	6212.2	
887.52	6212.2	
887.68	6212.2	
887.85	6212.2	
888.02	6212.2	
888.18	6212.2	
888.35	6212.2	
888.51	6212.2	
888.68	6212.2	
888.85	6212.2	
889.01	6212.2	
889.18	6212.2	
889.35	6212.2	
889.51	6212.2	
889.68	6212.2	
889.84	6212.2	
890.01	6212.2	
890.17	6212.2	
890.34	6212.2	
890.51	6212.2	
890.67	6212.2	
890.84	6212.2	
891	6212.2	
891.17	6212.2	
891.34	6212.2	
891.5	6212.2	
891.67	6212.2	
891.83	6212.2	
892	6212.2	
892.16	6212.2	
892.33	6212.2	
892.5	6212.2	
892.66	6212.2	
892.83	6212.2	
892.99	6212.2	
893.16	6212.2	
893.32	6212.2	
893.49	6212.2	
893.65	6212.2	
893.82	6212.2	
893.99	6212.2	
894.15	6212.2	
894.32	6212.2	
894.48	6212.2	
894.65	6212.2	
894.81	6212.2	
894.98	6212.2	
895.14	6212.2	
895.31	6212.2	
895.47	6212.2	
895.64	6212.2	
895.81	6212.2	
895.97	6212.2	
896.14	6212.2	
896.3	6212.2	
896.47	6212.2	
896.63	6212.2	
896.8	6212.2	
896.96	6212.2	
897.13	6212.2	
897.29	6212.2	
897.46	6212.2	
897.62	6212.2	
897.79	6212.2	
897.95	6212.2	
898.12	6212.2	
898.28	6212.2	
898.45	6212.2	
898.61	6212.2	
898.78	6212.2	
898.94	6212.2	
899.11	6212.2	
899.27	6212.2	
899.44	6212.2	
899.6	6212.2	
899.77	6212.2	
899.93	6212.2	
900.1	6212.2	
900.26	6212.2	
900.43	6212.2	
900.59	6212.2	
900.76	6212.2	
900.92	6212.2	
901.09	6212.2	
901.25	6212.2	
901.42	6212.2	
901.58	6212.2	
901.75	6212.2	
901.91	6212.2	
902.07	6212.2	
902.24	6212.2	
902.4	6212.2	
902.57	6212.2	
902.73	6212.2	
902.9	6212.2	
903.06	6212.2	
903.23	6212.2	
903.39	6212.2	
903.56	6212.2	
903.72	6212.2	
903.88	6212.2	
904.05	6212.2	
904.21	6212.2	
904.38	6212.2	
904.54	6212.2	
904.71	6212.2	
904.87	6212.2	
905.03	6212.2	
905.2	6212.2	
905.36	6212.2	
905.53	6212.2	
905.69	6212.2	
905.86	6212.2	
906.02	6212.2	
906.18	6212.2	
906.35	6212.2	
906.51	6212.2	
906.68	6212.2	
906.84	6212.2	
907.01	6212.2	
907.17	6212.2	
907.33	6212.2	
907.5	6212.2	
907.66	6212.2	
907.83	6212.2	
907.99	6212.2	
908.15	6212.2	
908.32	6212.2	
908.48	6212.2	
908.65	6212.2	
908.81	6212.2	
908.97	6212.2	
909.14	6212.2	
909.3	6212.2	
909.47	6212.2	
909.63	6212.2	
909.79	6212.2	
909.96	6212.2	
910.12	6212.2	
910.28	6212.2	
910.45	6212.2	
910.61	6212.2	
910.78	6212.2	
910.94	6212.2	
911.1	6212.2	
911.27	6212.2	
911.43	6212.2	
911.59	6212.2	
911.76	6212.2	
911.92	6212.2	
912.08	6212.2	
912.25	6212.2	
912.41	6212.2	
912.57	6212.2	
912.74	6212.2	
912.9	6212.2	
913.07	6212.2	
913.23	6212.2	
913.39	6212.2	
913.56	6212.2	
913.72	6212.2	
913.88	6212.2	
914.05	6212.2	
914.21	6212.2	
914.37	6212.2	
914.54	6212.2	
914.7	6212.2	
914.86	6212.2	
915.03	6212.2	
915.19	6212.2	
