Wavelength	Intensities	
nm	a.u.	
179.22	1903.6	
179.44	1899.8	
179.65	1907.3	
179.86	1892.3	
180.08	1936.7	
180.29	4867.3	
180.51	3459	
180.72	5608.7	
180.94	6589	
181.15	3244	
181.37	3096.5	
181.58	5466.7	
181.79	5743.2	
182.01	3346.4	
182.22	3573	
182.44	5759.6	
182.65	4734.9	
182.87	4557.4	
183.08	3923.9	
183.29	6034.7	
183.51	4937	
183.72	3648.8	
183.94	5268.1	
184.15	5386.8	
184.37	5347.9	
184.58	3188	
184.79	4401.1	
185.01	4987.5	
185.22	5718.6	
185.44	4611.3	
185.65	3867.9	
185.86	5298.1	
186.08	4852.3	
186.29	3044	
186.51	3288.4	
186.72	4971.8	
186.94	5890.6	
187.15	3831.7	
187.36	3980.6	
187.58	7636.9	
187.79	5473.5	
188.01	4128	
188.22	6460	
188.43	6569.2	
188.65	5721.3	
188.86	3280.8	
189.08	4005.8	
189.29	5193	
189.5	5150.6	
189.72	3719.8	
189.93	3743	
190.15	5988.9	
190.36	7081.9	
190.57	4123.2	
190.79	3930.7	
191	6014.2	
191.22	5943.9	
191.43	4042	
191.64	3276.8	
191.86	6120.7	
192.07	5917.9	
192.29	3463.1	
192.5	3704.1	
192.71	5950	
192.93	5125.4	
193.14	3620.1	
193.35	3732.8	
193.57	5136.3	
193.78	5949.3	
194	2953.9	
194.21	3620.8	
194.42	4911	
194.64	5311.1	
194.85	3976.5	
195.07	4651.6	
195.28	5457.2	
195.49	4689.2	
195.71	4941.1	
195.92	3425.6	
196.13	5638.7	
196.35	5651.7	
196.56	5213.4	
196.78	3992.2	
196.99	6985.6	
197.2	6496.2	
197.42	4556	
197.63	4094.6	
197.84	4789.5	
198.06	5596.4	
198.27	3646.1	
198.48	4952	
198.7	5150.6	
198.91	5322.7	
199.13	4006.5	
199.34	4048.8	
199.55	5792.3	
199.77	4663.2	
199.98	3538.2	
200.19	4119.1	
200.41	5205.3	
200.62	5008	
200.83	4190.8	
201.05	4498.7	
201.26	5274.9	
201.47	5012.1	
201.69	3557.3	
201.9	3429	
202.11	5350	
202.33	6331.6	
202.54	3833.1	
202.76	4259.8	
202.97	5460.6	
203.18	5483.8	
203.4	4140.3	
203.61	4099.4	
203.82	5416.2	
204.04	5094.7	
204.25	4049.5	
204.46	3969.6	
204.68	5399.1	
204.89	5615.5	
205.1	3920.5	
205.32	3382.6	
205.53	5797.8	
205.74	5897.5	
205.96	2891	
206.17	4108.9	
206.38	5740.5	
206.6	5894.7	
206.81	4607.2	
207.02	3733.4	
207.24	5600.5	
207.45	6097.5	
207.66	3809.9	
207.88	3262.4	
208.09	5572.5	
208.3	5315.8	
208.52	3493.2	
208.73	3759.4	
208.94	5378	
209.15	6127.5	
209.37	3813.3	
209.58	4039.3	
209.79	5845.6	
210.01	5188.9	
210.22	3049.4	
210.43	3222.1	
210.65	5415.5	
210.86	5746.6	
211.07	3890.5	
211.29	3485.6	
211.5	5763.7	
211.71	5290.6	
211.93	3509.5	
212.14	3538.9	
212.35	5301.5	
212.56	5550.7	
212.78	4007.9	
212.99	3313.6	
213.2	6330.3	
213.42	5147.9	
213.63	3622.2	
213.84	3859.7	
214.06	4756.7	
214.27	4880.3	
214.48	3829	
214.69	4039.3	
214.91	6012.2	
215.12	6118	
215.33	4179.9	
215.55	4534.2	
215.76	6652.5	
215.97	5766.4	
216.18	3969.6	
216.4	3867.2	
216.61	5061.9	
216.82	5854.5	
217.04	3546.4	
217.25	3672.7	
217.46	5963	
217.67	5803.3	
217.89	3115	
218.1	3290.4	
218.31	5432.6	
218.53	5541.1	
218.74	3719.1	
218.95	3588	
219.16	5314.5	
219.38	6280.4	
219.59	3607.8	
219.8	4272.7	
220.01	6930.3	
220.23	5360.9	
220.44	4698.7	
220.65	3530.7	
220.87	5449	
221.08	6050.4	
221.29	3266.5	
221.5	4315.8	
221.72	7303.1	
221.93	5116.5	
222.14	4134.8	
222.35	4756.1	
222.57	5410.1	
222.78	5760.3	
222.99	3820.1	
223.2	4201.1	
223.42	5705.6	
223.63	5820.3	
223.84	3020.8	
224.05	2945	
224.27	6854.6	
224.48	6276.3	
224.69	5008.6	
224.9	4029.7	
225.12	5625.8	
225.33	5361.6	
225.54	3208.5	
225.75	3705.5	
225.97	4940.4	
226.18	5269.4	
226.39	3865.2	
226.6	3586.7	
226.82	5101.5	
227.03	4995	
227.24	3985.3	
227.45	3371.6	
227.67	5742.5	
227.88	6332.3	
228.09	4420.9	
228.3	4579.3	
228.52	5809.4	
228.73	5311.7	
228.94	3728.7	
229.15	3293.1	
229.36	5341.1	
229.58	5212.8	
229.79	3769.6	
230	4446.1	
230.21	6430.6	
230.43	5494	
230.64	3968.3	
230.85	4130.8	
231.06	5820.3	
231.28	5823.7	
231.49	3319.8	
231.7	3913.7	
231.91	5709.1	
232.12	5393	
232.34	3381.2	
232.55	3950.5	
232.76	5943.2	
232.97	5573.2	
233.18	3540.9	
233.4	3921.9	
233.61	5649.7	
233.82	5135.6	
234.03	3718.4	
234.25	3666.5	
234.46	7456	
234.67	5429.2	
234.88	4073.4	
235.09	3622.9	
235.31	5741.8	
235.52	5281	
235.73	4020.2	
235.94	3352.5	
236.15	5092.6	
236.37	6574	
236.58	3555.3	
236.79	3896.6	
237	5688.6	
237.21	4845.5	
237.43	4134.8	
237.64	3295.9	
237.85	9776.3	
238.06	4943.8	
238.27	4233.8	
238.48	3351.8	
238.7	5709.1	
238.91	5227.1	
239.12	3818.1	
239.33	3834.5	
239.54	5068.7	
239.76	5253.7	
239.97	3782.6	
240.18	3862.5	
240.39	6733	
240.6	5628.5	
240.82	3972.4	
241.03	3278.1	
241.24	5365	
241.45	6272.9	
241.66	3538.2	
241.87	4136.9	
242.09	6092	
242.3	6507.8	
242.51	4132.1	
242.72	3857.7	
242.93	5841.5	
243.14	5309.7	
243.36	4490.5	
243.57	4846.2	
243.78	6247.7	
243.99	5696.8	
244.2	3883.6	
244.41	3492.5	
244.63	4939	
244.84	5651.7	
245.05	4168.3	
245.26	3807.9	
245.47	5659.9	
245.68	5969.1	
245.9	5126.7	
246.11	4078.9	
246.32	5262.6	
246.53	5668.8	
246.74	6271.6	
246.95	3259.7	
247.16	4813.4	
247.38	5381.4	
247.59	3234.4	
247.8	3864.5	
248.01	5098.1	
248.22	5339.1	
248.43	3489.1	
248.64	3720.5	
248.86	4790.2	
249.07	5083.7	
249.28	3377.8	
249.49	3945.1	
249.7	5921.4	
249.91	6102.9	
250.12	3266.5	
250.34	3233.1	
250.55	5520	
250.76	5388.9	
250.97	4014.7	
251.18	4029.7	
251.39	6104.3	
251.6	5545.9	
251.81	4079.6	
252.03	4055	
252.24	5061.2	
252.45	5879.7	
252.66	3325.9	
252.87	4250.9	
253.08	5433.9	
253.29	7083.9	
253.5	3392.8	
253.72	4732.2	
253.93	5252.4	
254.14	6425.2	
254.35	3664.5	
254.56	3775.1	
254.77	5586.2	
254.98	5009.3	
255.19	3594.9	
255.41	4648.9	
255.62	5489.9	
255.83	6075.6	
256.04	4142.4	
256.25	4019.5	
256.46	6601.3	
256.67	5115.8	
256.88	4007.9	
257.09	4498	
257.31	5051	
257.52	5074.9	
257.73	5060.5	
257.94	3643.3	
258.15	5261.9	
258.36	5356.1	
258.57	4620.9	
258.78	2883.5	
258.99	5863.3	
259.2	5253	
259.41	3737.5	
259.63	3804.4	
259.84	6257.2	
260.05	6668.9	
260.26	4906.3	
260.47	3596.9	
260.68	5889.3	
260.89	5270.1	
261.1	4470	
261.31	3515.7	
261.52	5936.4	
261.73	6284.5	
261.95	4761.5	
262.16	4171	
262.37	6082.5	
262.58	6135	
262.79	4733.5	
263	3741	
263.21	5415.5	
263.42	4948.6	
263.63	3799.7	
263.84	3758.7	
264.05	6005.3	
264.26	6309.1	
264.47	4653	
264.69	4168.3	
264.9	6047	
265.11	5621	
265.32	3635.8	
265.53	3628.3	
265.74	5515.2	
265.95	4782.7	
266.16	3956	
266.37	4332.8	
266.58	5429.8	
266.79	5229.1	
267	3668.6	
267.21	3370.3	
267.42	4986.8	
267.63	5338.4	
267.84	3839.3	
268.06	3284.9	
268.27	5831.9	
268.48	6108.4	
268.69	3744.4	
268.9	4439.3	
269.11	6087.9	
269.32	4910.3	
269.53	3847.5	
269.74	3592.1	
269.95	5700.2	
270.16	4724	
270.37	3876.8	
270.58	4459.8	
270.79	5226.4	
271	5961.6	
271.21	4097.3	
271.42	3907.5	
271.63	5543.9	
271.84	5033.2	
272.05	3100.6	
272.26	3487	
272.47	5454.4	
272.68	5627.1	
272.89	3682.2	
273.11	4235.9	
273.32	5183.4	
273.53	6298.9	
273.74	4184.7	
273.95	4108.9	
274.16	6062.7	
274.37	5499.5	
274.58	4203.8	
274.79	3362.1	
275	5539.1	
275.21	6058.6	
275.42	5066.7	
275.63	4331.5	
275.84	5672.9	
276.05	7111.9	
276.26	4147.1	
276.47	3807.9	
276.68	5258.5	
276.89	6391	
277.1	4349.9	
277.31	3440.6	
277.52	5657.9	
277.73	5814.9	
277.94	3355.9	
278.15	3728.7	
278.36	5552.7	
278.57	5108.3	
278.78	3696.6	
278.99	4194.9	
279.2	5002.5	
279.41	5010.7	
279.62	4872.8	
279.83	3425.6	
280.04	6516	
280.25	4968.4	
280.46	4845.5	
280.67	3874.1	
280.88	5026.4	
281.09	6056.5	
281.3	4057.7	
281.51	5109.7	
281.72	5098.1	
281.93	5899.5	
282.14	3643.3	
282.35	3928.7	
282.56	5823.1	
282.77	5874.9	
282.98	3751.9	
283.19	4596.3	
283.4	7253.2	
283.61	5309	
283.82	3400.3	
284.03	4825	
284.24	5521.3	
284.45	6029.9	
284.66	4831.8	
284.87	4614.1	
285.08	5945.3	
285.29	6118.6	
285.5	3288.4	
285.71	3776.5	
285.92	6044.9	
286.12	6630	
286.33	4737.6	
286.54	3768.3	
286.75	5875.6	
286.96	5263.3	
287.17	3454.9	
287.38	4678.2	
287.59	5076.9	
287.8	4982	
288.01	3814.7	
288.22	4407.2	
288.43	5909.8	
288.64	4891.9	
288.85	4526	
289.06	4229.7	
289.27	5767.8	
289.48	6335.7	
289.69	4863.9	
289.9	4390.2	
290.11	6039.5	
290.32	5128.1	
290.53	4501.4	
290.74	4193.6	
290.94	5895.4	
291.15	6027.9	
291.36	3667.9	
291.57	4306.9	
291.78	5188.2	
291.99	4812.7	
292.2	3476.1	
292.41	4274.1	
292.62	5906.3	
292.83	5735.7	
293.04	5229.8	
293.25	3525.2	
293.46	5182.7	
293.67	5991	
293.88	3650.2	
294.09	3454.9	
294.29	4949.9	
294.5	5504.3	
294.71	3865.9	
294.92	3766.9	
295.13	5201.2	
295.34	6464.8	
295.55	3272	
295.76	3325.9	
295.97	5810.8	
296.18	6602.7	
296.39	3445.4	
296.6	3717.7	
296.81	5456.5	
297.01	5821.7	
297.22	3798.3	
297.43	3648.8	
297.64	5033.9	
297.85	4987.5	
298.06	2971.6	
298.27	3265.8	
298.48	5451	
298.69	5111	
298.9	3961.5	
299.11	3523.2	
299.31	4913.1	
299.52	4921.3	
299.73	4270	
299.94	4116.4	
300.15	5386.8	
300.36	5021.6	
300.57	4190.1	
300.78	4111	
300.99	5268.1	
301.2	5501.5	
301.4	3629.7	
301.61	3922.5	
301.82	5659.9	
302.03	5779.4	
302.24	4462.5	
302.45	3404.4	
302.66	5706.3	
302.87	6075	
303.08	3579.8	
303.29	4962.9	
303.49	5145.2	
303.7	5416.2	
303.91	3244.7	
304.12	4671.4	
304.33	4898.7	
304.54	5547.3	
304.75	3638.6	
304.96	3517.7	
305.16	5735	
305.37	6497.5	
305.58	3138.9	
305.79	3252.2	
306	5754.1	
306.21	4806.6	
306.42	3605.8	
306.63	5595.7	
306.83	5294	
307.04	5939.1	
307.25	3997.6	
307.46	3988.8	
307.67	4618.9	
307.88	5882.4	
308.09	3590.1	
308.29	3678.8	
308.5	5472.2	
308.71	6035.4	
308.92	3879.5	
309.13	3495.9	
309.34	5296	
309.55	5362.9	
309.75	4545.8	
309.96	4140.3	
310.17	5818.3	
310.38	5115.1	
310.59	4376.5	
310.8	4133.5	
311.01	6522.8	
311.21	5269.4	
311.42	3478.1	
311.63	3579.2	
311.84	5137.7	
312.05	5532.9	
312.26	4048.8	
312.46	4442.7	
312.67	5211.4	
312.88	4957.4	
313.09	3527.3	
313.3	3442	
313.51	6180.8	
313.71	6522.1	
313.92	3518.4	
314.13	3698.6	
314.34	5530.9	
314.55	5324.7	
314.76	4547.2	
314.96	3949.8	
315.17	5493.3	
315.38	5790.3	
315.59	3508.2	
315.8	3375.1	
316.01	6257.2	
316.21	6292	
316.42	3348.4	
316.63	3899.3	
316.84	5256.5	
317.05	6035.4	
317.26	4132.8	
317.46	3778.5	
317.67	5323.4	
317.88	5781.4	
318.09	4459.1	
318.3	3267.2	
318.5	5122	
318.71	5719.3	
318.92	5686.5	
319.13	4087.7	
319.34	5906.3	
319.54	6034.7	
319.75	3247.4	
319.96	3123.2	
320.17	5810.1	
320.38	5978.7	
320.58	3198.2	
320.79	3842.7	
321	5973.9	
321.21	6161	
321.42	3889.1	
321.62	3227.6	
321.83	5020.3	
322.04	5430.5	
322.25	3781.9	
322.46	3565.5	
322.66	5526.8	
322.87	5747.3	
323.08	4335.5	
323.29	3473.4	
323.5	6465.4	
323.7	4980.7	
323.91	4803.9	
324.12	4352.6	
324.33	5421	
324.53	5697.4	
324.74	4137.6	
324.95	4425	
325.16	4775.9	
325.37	5260.5	
325.57	3568.2	
325.78	3572.3	
325.99	5485.8	
326.2	4914.4	
326.4	4973.8	
326.61	3286.3	
326.82	5363.6	
327.03	5464.7	
327.24	5000.5	
327.44	4761.5	
327.65	5664	
327.86	4573.8	
328.07	4146.5	
328.27	3332	
328.48	6058.6	
328.69	5008.6	
328.9	5105.6	
329.1	3791.5	
329.31	5307.7	
329.52	6191.7	
329.73	3546.4	
329.93	4057.7	
330.14	5412.8	
330.35	5599.8	
330.56	5752.7	
330.76	4418.8	
330.97	5237.3	
331.18	5579.3	
331.39	3938.9	
331.59	3188	
331.8	5980.8	
332.01	6106.4	
332.22	3676.8	
332.42	4136.9	
332.63	5514.5	
332.84	5089.2	
333.05	3947.1	
333.25	3526.6	
333.46	5158.2	
333.67	5416.2	
333.88	3644.7	
334.08	4113	
334.29	7387.7	
334.5	6090	
334.7	3435.1	
334.91	5009.3	
335.12	4954	
335.33	5841.5	
335.53	3915.7	
335.74	5803.3	
335.95	5193	
336.16	4990.2	
336.36	3934.8	
336.57	4515.1	
336.78	4970.4	
336.98	6009.4	
337.19	4814.8	
337.4	3814.7	
337.61	6472.9	
337.81	4961.5	
338.02	3621.5	
338.23	4672.1	
338.43	6135.7	
338.64	5068	
338.85	3495.2	
339.05	4676.2	
339.26	6270.9	
339.47	4834.6	
339.68	3494.5	
339.88	5276.3	
340.09	5638.7	
340.3	5849	
340.5	4168.3	
340.71	3169.6	
340.92	4906.9	
341.13	6143.2	
341.33	3489.1	
341.54	4171	
341.75	5639.4	
341.95	5318.6	
342.16	4004.5	
342.37	4301.4	
342.57	4986.8	
342.78	5344.5	
342.99	4388.1	
343.19	3142.9	
343.4	5859.2	
343.61	5646.2	
343.81	3781.2	
344.02	3457.7	
344.23	5847	
344.43	6280.4	
344.64	4440	
344.85	4244.8	
345.06	5702.9	
345.26	6005.3	
345.47	4060.4	
345.68	4807.9	
345.88	4793.6	
346.09	5866.1	
346.3	4237.2	
346.5	3138.2	
346.71	5425.8	
346.92	5146.5	
347.12	3290.4	
347.33	4098.7	
347.54	6032	
347.74	6363.7	
347.95	4022.9	
348.16	3056.3	
348.36	5201.8	
348.57	4919.2	
348.78	4031.1	
348.98	4387.4	
349.19	5376.6	
349.39	4900.8	
349.6	3274	
349.81	3599	
350.01	5690.6	
350.22	5133.6	
350.43	3906.2	
350.63	4708.3	
350.84	5471.5	
351.05	5199.1	
351.25	3605.8	
351.46	3232.4	
351.67	6024.4	
351.87	5101.5	
352.08	3760.8	
352.29	4348.5	
352.49	5941.2	
352.7	6027.9	
352.9	3488.4	
353.11	4255.7	
353.32	6535.1	
353.52	5276.9	
353.73	3354.6	
353.94	4397	
354.14	5748.6	
354.35	5596.4	
354.55	3550.5	
354.76	3982.6	
354.97	5739.1	
355.17	5415.5	
355.38	3341.6	
355.59	4674.1	
355.79	5158.2	
356	5536.3	
356.2	3935.5	
356.41	3428.3	
356.62	4823	
356.82	5347.9	
357.03	4212.7	
357.24	3747.1	
357.44	5144.5	
357.65	5253.7	
357.85	5072.8	
358.06	3977.2	
358.27	4909.7	
358.47	5173.2	
358.68	3307.5	
358.88	4257.7	
359.09	5724.1	
359.3	6075	
359.5	4925.4	
359.71	4341.7	
359.91	6543.9	
360.12	5858.6	
360.33	4198.3	
360.53	4738.3	
360.74	5180.7	
360.94	5214.8	
361.15	4483	
361.36	3679.5	
361.56	6066.8	
361.77	5406.6	
361.97	4975.2	
362.18	3910.3	
362.38	6029.9	
362.59	5072.8	
362.8	3667.9	
363	3409.9	
363.21	4843.4	
363.41	5601.9	
363.62	4169.7	
363.83	5267.4	
364.03	5666	
364.24	6725.5	
364.44	5330.9	
364.65	5235.3	
364.85	5466	
365.06	5337.7	
365.27	3788.1	
365.47	3876.1	
365.68	6470.9	
365.88	5440.8	
366.09	4279.6	
366.29	3960.8	
366.5	5777.3	
366.71	6149.4	
366.91	5252.4	
367.12	4478.2	
367.32	6749.4	
367.53	6020.3	
367.73	4371.7	
367.94	5403.9	
368.14	6013.5	
368.35	6903	
368.56	4372.4	
368.76	4173.1	
368.97	6076.3	
369.17	7810.3	
369.38	3904.1	
369.58	4175.1	
369.79	5117.9	
369.99	6472.9	
370.2	5127.4	
370.4	4333.5	
370.61	5819.6	
370.82	7010.9	
371.02	4176.5	
371.23	3521.8	
371.43	5044.1	
371.64	6380.1	
371.84	4306.9	
372.05	5469.4	
372.25	7845.8	
372.46	6157.6	
372.66	4339.6	
372.87	4237.9	
373.07	6261.3	
373.28	8014.4	
373.48	5336.3	
373.69	5046.9	
373.9	5808.7	
374.1	5881.8	
374.31	5343.2	
374.51	4924	
374.72	6694.1	
374.92	5573.2	
375.13	5596.4	
375.33	4770.4	
375.54	6291.4	
375.74	5665.4	
375.95	4823	
376.15	6139.1	
376.36	6327.5	
376.56	6134.3	
376.77	4962.2	
376.97	5463.3	
377.18	7539.9	
377.38	6517.3	
377.59	5798.5	
377.79	4511	
378	6305.7	
378.2	6815	
378.41	4608.6	
378.61	4461.8	
378.82	6912.6	
379.02	5907.7	
379.23	4823.6	
379.43	5917.3	
379.64	6966.5	
379.84	6523.5	
380.05	4578.6	
380.25	4541.7	
380.46	6679.1	
380.66	6263.4	
380.87	5982.8	
381.07	6306.4	
381.28	7283.9	
381.48	6612.9	
381.69	4699.4	
381.89	4626.4	
382.1	5509.7	
382.3	6804.7	
382.51	5827.8	
382.71	6659.3	
382.91	6621.8	
383.12	7156.3	
383.32	4998.4	
383.53	5186.1	
383.73	6380.8	
383.94	6266.8	
384.14	5081.7	
384.35	4154.6	
384.55	6148	
384.76	6670.2	
384.96	4911	
385.17	5209.3	
385.37	6610.2	
385.58	5861.3	
385.78	5255.1	
385.98	4070.7	
386.19	6046.3	
386.39	6491.4	
386.6	4761.5	
386.8	5003.9	
387.01	6631.3	
387.21	6724.2	
387.42	5384.1	
387.62	6090.7	
387.83	5990.3	
388.03	6641.6	
388.23	5232.6	
388.44	5993	
388.64	5657.2	
388.85	5885.2	
389.05	5644.9	
389.26	6186.2	
389.46	7843.7	
389.67	7144	
389.87	5559.6	
390.07	5628.5	
390.28	6399.9	
390.48	5986.9	
390.69	4810	
390.89	5122.7	
391.1	6220.4	
391.3	7230	
391.5	6414.9	
391.71	6923.5	
391.91	6972	
392.12	7938.6	
392.32	6425.8	
392.53	5601.9	
392.73	6223.8	
392.93	6419	
393.14	5267.4	
393.34	6067.4	
393.55	7002.7	
393.75	6393.8	
393.95	5159.5	
394.16	5174.5	
394.36	6249	
394.57	6967.2	
394.77	4847.5	
394.98	5196.4	
395.18	6281.8	
395.38	6574.7	
395.59	6294.1	
395.79	5190.2	
396	6515.3	
396.2	7034.8	
396.4	6132.3	
396.61	6091.3	
396.81	7348.1	
397.02	6581.5	
397.22	6505	
397.42	6497.5	
397.63	7324.9	
397.83	6642.9	
398.04	5261.2	
398.24	5952.1	
398.44	7148.8	
398.65	6297.5	
398.85	5300.8	
399.05	5408.7	
399.26	6715.3	
399.46	8508.6	
399.67	5874.3	
399.87	5532.9	
400.07	7163.1	
400.28	7587	
400.48	5747.3	
400.69	6897.6	
400.89	7925.6	
401.09	8300.4	
401.3	5703.6	
401.5	6957.6	
401.7	8624.7	
401.91	8800.1	
402.11	5985.5	
402.32	6181.5	
402.52	7774.1	
402.72	7594.6	
402.93	6337.8	
403.13	4984.8	
403.33	8408.3	
403.54	6929.6	
403.74	5961.6	
403.94	6825.9	
404.15	7129.7	
404.35	8484.1	
404.56	5866.1	
404.76	7742	
404.96	7733.1	
405.17	7508.5	
405.37	7223.2	
405.57	6445	
405.78	7866.9	
405.98	7109.2	
406.18	5895.4	
406.39	6874.3	
406.59	7793.2	
406.79	7370.6	
407	5799.8	
407.2	5896.1	
407.4	8010.3	
407.61	8274.5	
407.81	6196.5	
408.01	8282.7	
408.22	7142.6	
408.42	9296.4	
408.62	7546.8	
408.83	7150.8	
409.03	8161.2	
409.23	8049.9	
409.44	7319.4	
409.64	7775.5	
409.84	9490.3	
410.05	9387.2	
410.25	7694.2	
410.45	7441	
410.66	9081.4	
410.86	11493	
411.06	8228.7	
411.27	8002.1	
411.47	11550	
411.67	9291.6	
411.88	8244.4	
412.08	8749.6	
412.28	10121	
412.49	10667	
412.69	8318.2	
412.89	8373.5	
413.09	10448	
413.3	10495	
413.5	8499.1	
413.7	8133.8	
413.91	9649.3	
414.11	10672	
414.31	8439	
414.52	9043.8	
414.72	10380	
414.92	10348	
415.12	8436.3	
415.33	9082.7	
415.53	10815	
415.73	10914	
415.94	9473.9	
416.14	8846.5	
416.34	9841.2	
416.55	9534	
416.75	10165	
416.95	9763.3	
417.15	11005	
417.36	11613	
417.56	10654	
417.76	9691	
417.97	11423	
418.17	11295	
418.37	9183.8	
418.57	9247.9	
418.78	10806	
418.98	10458	
419.18	10096	
419.38	9934	
419.59	10621	
419.79	10047	
419.99	9155.1	
420.2	9424.1	
420.4	11082	
420.6	11238	
420.8	9123	
421.01	9013.1	
421.21	11099	
421.41	11340	
421.61	9493	
421.82	9131.2	
422.02	10503	
422.22	11432	
422.42	10136	
422.63	9410.4	
422.83	10680	
423.03	11807	
423.23	9549.7	
423.44	8570.1	
423.64	10664	
423.84	10210	
424.04	8956.4	
424.25	8600.1	
424.45	11526	
424.65	11360	
424.85	8348.9	
425.06	9034.3	
425.26	11376	
425.46	10456	
425.66	9446.6	
425.87	9097.1	
426.07	11075	
426.27	10858	
426.47	9269.1	
426.67	8500.4	
426.88	11381	
427.08	10863	
427.28	9710.1	
427.48	8396	
427.69	9711.5	
427.89	10444	
428.09	9499.8	
428.29	8580.3	
428.5	11178	
428.7	10759	
428.9	8626	
429.1	9224.7	
429.3	10672	
429.51	11256	
429.71	8813.8	
429.91	9824.1	
430.11	11079	
430.31	11428	
430.52	9286.2	
430.72	9725.8	
430.92	11710	
431.12	11206	
431.32	9211.8	
431.53	9476.6	
431.73	10281	
431.93	11927	
432.13	9052.7	
432.33	9008.3	
432.54	10669	
432.74	11202	
432.94	9138.7	
433.14	10152	
433.34	11364	
433.55	11075	
433.75	10163	
433.95	12119	
434.15	11256	
434.35	11163	
434.56	9291	
434.76	9048.6	
434.96	11368	
435.16	11807	
435.36	9350.3	
435.56	10672	
435.77	11274	
435.97	11409	
436.17	11434	
436.37	10824	
436.57	11176	
436.78	11379	
436.98	10484	
437.18	11134	
437.38	12109	
437.58	11376	
437.78	11204	
437.99	9724.4	
438.19	11658	
438.39	12570	
438.59	9821.4	
438.79	9328.5	
438.99	12581	
439.2	11540	
439.4	9628.2	
439.6	9678	
439.8	12031	
440	13155	
440.2	10991	
440.4	11153	
440.61	12693	
440.81	13254	
441.01	10247	
441.21	11324	
441.41	13308	
441.61	12663	
441.81	11675	
442.02	12759	
442.22	13743	
442.42	12966	
442.62	10599	
442.82	10550	
443.02	13440	
443.22	12738	
443.43	11233	
443.63	10730	
443.83	12348	
444.03	12517	
444.23	12210	
444.43	11667	
444.63	12844	
444.83	14013	
445.04	10945	
445.24	12258	
445.44	12968	
445.64	13142	
445.84	11366	
446.04	11542	
446.24	12251	
446.44	13401	
446.65	10569	
446.85	11222	
447.05	12309	
447.25	13253	
447.45	11014	
447.65	10509	
447.85	12499	
448.05	12002	
448.25	11680	
448.46	11517	
448.66	12686	
448.86	12297	
449.06	10539	
449.26	11666	
449.46	13291	
449.66	12155	
449.86	11394	
450.06	11307	
450.26	12332	
450.47	13125	
450.67	11467	
450.87	11974	
451.07	13146	
451.27	12949	
451.47	10776	
451.67	11654	
451.87	12732	
452.07	13600	
452.27	11280	
452.47	11109	
452.67	12750	
452.88	13550	
453.08	10277	
453.28	12694	
453.48	14284	
453.68	12787	
453.88	11434	
454.08	11598	
454.28	13548	
454.48	13145	
454.68	12241	
454.88	12788	
455.08	13736	
455.28	13883	
455.48	11284	
455.68	12226	
455.89	14532	
456.09	14317	
456.29	12090	
456.49	12308	
456.69	14708	
456.89	13716	
457.09	12927	
457.29	13364	
457.49	14363	
457.69	14851	
457.89	13149	
458.09	12381	
458.29	14519	
458.49	15076	
458.69	13476	
458.89	13110	
459.09	15645	
459.29	15640	
459.49	12944	
459.69	13916	
459.9	15029	
460.1	14960	
460.3	12880	
460.5	12796	
460.7	15354	
460.9	14863	
461.1	12675	
461.3	14320	
461.5	16211	
461.7	15801	
461.9	13777	
462.1	13850	
462.3	15607	
462.5	16180	
462.7	13812	
462.9	14098	
463.1	17498	
463.3	17438	
463.5	14452	
463.7	15715	
463.9	16348	
464.1	16587	
464.3	15186	
464.5	15059	
464.7	17078	
464.9	17161	
465.1	16578	
465.3	15736	
465.5	17537	
465.7	17767	
465.9	16177	
466.1	15550	
466.3	17863	
466.5	17271	
466.7	17247	
466.9	15795	
467.1	17656	
467.3	18682	
467.5	17393	
467.7	16075	
467.9	18907	
468.1	20099	
468.3	16739	
468.5	17524	
468.7	18089	
468.9	17832	
469.1	16598	
469.3	17458	
469.5	20043	
469.7	17731	
469.9	16784	
470.1	16571	
470.3	18054	
470.5	18044	
470.7	17650	
470.9	16447	
471.1	17963	
471.3	17950	
471.5	16464	
471.69	18144	
471.89	17389	
472.09	17036	
472.29	17102	
472.49	17040	
472.69	17443	
472.89	18133	
473.09	16208	
473.29	15883	
473.49	17380	
473.69	17402	
473.89	16993	
474.09	16226	
474.29	18662	
474.49	18320	
474.69	17182	
474.89	16208	
475.09	17545	
475.29	17533	
475.49	15498	
475.69	15911	
475.88	18751	
476.08	17586	
476.28	15446	
476.48	15723	
476.68	17850	
476.88	17731	
477.08	15684	
477.28	16199	
477.48	17240	
477.68	17883	
477.88	15616	
478.08	15849	
478.28	18398	
478.48	17372	
478.67	15998	
478.87	15192	
479.07	18273	
479.27	17399	
479.47	16081	
479.67	16118	
479.87	17972	
480.07	18617	
480.27	15528	
480.47	17146	
480.67	17666	
480.87	18358	
481.06	15754	
481.26	16646	
481.46	17406	
481.66	17482	
481.86	16143	
482.06	17296	
482.26	17215	
482.46	18206	
482.66	16242	
482.86	15851	
483.05	17974	
483.25	17283	
483.45	18745	
483.65	16431	
483.85	17640	
484.05	17946	
484.25	16826	
484.45	17636	
484.65	18890	
484.84	19088	
485.04	16551	
485.24	16627	
485.44	19419	
485.64	17603	
485.84	16176	
486.04	17574	
486.24	18264	
486.44	18686	
486.63	16262	
486.83	17178	
487.03	18587	
487.23	18916	
487.43	16492	
487.63	19126	
487.83	18888	
488.02	19823	
488.22	17914	
488.42	18652	
488.62	19874	
488.82	18926	
489.02	17358	
489.22	17957	
489.41	19683	
489.61	19798	
489.81	17367	
490.01	17302	
490.21	19762	
490.41	20354	
490.61	17271	
490.8	17172	
491	19034	
491.2	18198	
491.4	17769	
491.6	16925	
491.8	18942	
491.99	19118	
492.19	16972	
492.39	17296	
492.59	20015	
492.79	20032	
492.99	18515	
493.18	17826	
493.38	20112	
493.58	21589	
493.78	18821	
493.98	18421	
494.18	20541	
494.37	20261	
494.57	19833	
494.77	19658	
494.97	21376	
495.17	21954	
495.37	19486	
495.56	19740	
495.76	22227	
495.96	21754	
496.16	20925	
496.36	19987	
496.55	22122	
496.75	21747	
496.95	20233	
497.15	20173	
497.35	22030	
497.54	22367	
497.74	20094	
497.94	21979	
498.14	23132	
498.34	22854	
498.53	20224	
498.73	20908	
498.93	22071	
499.13	22573	
499.33	20992	
499.52	21339	
499.72	23039	
499.92	23081	
500.12	20795	
500.32	21087	
500.51	23006	
500.71	23111	
500.91	21911	
501.11	21496	
501.31	23166	
501.5	23363	
501.7	22180	
501.9	21209	
502.1	22656	
502.29	23043	
502.49	21631	
502.69	21771	
502.89	22868	
503.09	22905	
503.28	20193	
503.48	20388	
503.68	21792	
503.88	21900	
504.07	21298	
504.27	20423	
504.47	22160	
504.67	22019	
504.86	20899	
505.06	20554	
505.26	21325	
505.46	23191	
505.65	20155	
505.85	20228	
506.05	21094	
506.25	21495	
506.44	19232	
506.64	19971	
506.84	20908	
507.04	21431	
507.23	18973	
507.43	19529	
507.63	22372	
507.83	20694	
508.02	19335	
508.22	18997	
508.42	22601	
508.62	20255	
508.81	19173	
509.01	19845	
509.21	20050	
509.4	20396	
509.6	19535	
509.8	18964	
510	20377	
510.19	22117	
510.39	18921	
510.59	19127	
510.79	20273	
510.98	22025	
511.18	19012	
511.38	19237	
511.57	21202	
511.77	21237	
511.97	19807	
512.17	18684	
512.36	21261	
512.56	21260	
512.76	18972	
512.95	18626	
513.15	21507	
513.35	20179	
513.55	19967	
513.74	18959	
513.94	21496	
514.14	20902	
514.33	20272	
514.53	20049	
514.73	21076	
514.92	21290	
515.12	19654	
515.32	19592	
515.51	21543	
515.71	22083	
515.91	21325	
516.11	19858	
516.3	23261	
516.5	21272	
516.7	20357	
516.89	20966	
517.09	21377	
517.29	21260	
517.48	20669	
517.68	20018	
517.88	21149	
518.07	22009	
518.27	20581	
518.47	19695	
518.66	22573	
518.86	21037	
519.06	19567	
519.25	19998	
519.45	21431	
519.65	22950	
519.84	20560	
520.04	21269	
520.24	23092	
520.43	21660	
520.63	20006	
520.83	19781	
521.02	20847	
521.22	21505	
521.42	20206	
521.61	21004	
521.81	21216	
522.01	21514	
522.2	20469	
522.4	20094	
522.6	22138	
522.79	21221	
522.99	20613	
523.18	20119	
523.38	22518	
523.58	22688	
523.77	22604	
523.97	20553	
524.17	24841	
524.36	23976	
524.56	22260	
524.76	21936	
524.95	23378	
525.15	22958	
525.34	22015	
525.54	22071	
525.74	23918	
525.93	22799	
526.13	23358	
526.33	22216	
526.52	24615	
526.72	24093	
526.91	23771	
527.11	23139	
527.31	24938	
527.5	25337	
527.7	22908	
527.89	22184	
528.09	23849	
528.29	24587	
528.48	23289	
528.68	23137	
528.87	25013	
529.07	24595	
529.27	22935	
529.46	21942	
529.66	23943	
529.85	24480	
530.05	21979	
530.25	22760	
530.44	25691	
530.64	24184	
530.83	22803	
531.03	23295	
531.23	25096	
531.42	24929	
531.62	24242	
531.81	23419	
532.01	25561	
532.21	26295	
532.4	23564	
532.6	24321	
532.79	26794	
532.99	26197	
533.18	24528	
533.38	25224	
533.58	26030	
533.77	26576	
533.97	24707	
534.16	25548	
534.36	26952	
534.55	26041	
534.75	25458	
534.95	24683	
535.14	26951	
535.34	25819	
535.53	24122	
535.73	26156	
535.92	27357	
536.12	25869	
536.31	24234	
536.51	25614	
536.71	26243	
536.9	25874	
537.1	24279	
537.29	24662	
537.49	26759	
537.68	25745	
537.88	25272	
538.07	24352	
538.27	26333	
538.46	27290	
538.66	24418	
538.86	24991	
539.05	26209	
539.25	26507	
539.44	25111	
539.64	24522	
539.83	25878	
540.03	26951	
540.22	24352	
540.42	24034	
540.61	26005	
540.81	26327	
541	24439	
541.2	25385	
541.39	25257	
541.59	25905	
541.78	25014	
541.98	23720	
542.18	24761	
542.37	24652	
542.57	23775	
542.76	24392	
542.96	24267	
543.15	24927	
543.35	23360	
543.54	22717	
543.74	24821	
543.93	24588	
544.13	23104	
544.32	24147	
544.52	24562	
544.71	23795	
544.91	22023	
545.1	23262	
545.3	23748	
545.49	24630	
545.69	21756	
545.88	22434	
546.08	25505	
546.27	24930	
546.47	22952	
546.66	22197	
546.86	24649	
547.05	25294	
547.24	22271	
547.44	22354	
547.63	23307	
547.83	24712	
548.02	22577	
548.22	22657	
548.41	23172	
548.61	24384	
548.8	21881	
549	21975	
549.19	23522	
549.39	24064	
549.58	21573	
549.78	22073	
549.97	23946	
550.17	23264	
550.36	22787	
550.55	23891	
550.75	23324	
550.94	24352	
551.14	21724	
551.33	21792	
551.53	22859	
551.72	23823	
551.92	22142	
552.11	21869	
552.31	23736	
552.5	23741	
552.69	23368	
552.89	21235	
553.08	23817	
553.28	23270	
553.47	21816	
553.67	23051	
553.86	24269	
554.06	22694	
554.25	20880	
554.44	21506	
554.64	24806	
554.83	24528	
555.03	21457	
555.22	21738	
555.42	23547	
555.61	23288	
555.8	21356	
556	21736	
556.19	22633	
556.39	23625	
556.58	21537	
556.78	21390	
556.97	23135	
557.16	23013	
557.36	22668	
557.55	21216	
557.75	21977	
557.94	24103	
558.13	21050	
558.33	20710	
558.52	23739	
558.72	22456	
558.91	20765	
559.1	21035	
559.3	22081	
559.49	21787	
559.69	20364	
559.88	21375	
560.07	22780	
560.27	23163	
560.46	21461	
560.66	21485	
560.85	22390	
561.04	21672	
561.24	20504	
561.43	20661	
561.63	21854	
561.82	22072	
562.01	22062	
562.21	21097	
562.4	22590	
562.59	23796	
562.79	20940	
562.98	20678	
563.18	22615	
563.37	24241	
563.56	21410	
563.76	20755	
563.95	22276	
564.14	22088	
564.34	21268	
564.53	20738	
564.73	22756	
564.92	23190	
565.11	21332	
565.31	20728	
565.5	23527	
565.69	22371	
565.89	20970	
566.08	21353	
566.27	23180	
566.47	23947	
566.66	22055	
566.85	20617	
567.05	22913	
567.24	22290	
567.44	20865	
567.63	22183	
567.82	23011	
568.02	22866	
568.21	20858	
568.4	21135	
568.6	22725	
568.79	22812	
568.98	20579	
569.18	20927	
569.37	22679	
569.56	24444	
569.76	21084	
569.95	21951	
570.14	22530	
570.34	22668	
570.53	20132	
570.72	20131	
570.91	22859	
571.11	22023	
571.3	20509	
571.49	21349	
571.69	22004	
571.88	21541	
572.07	21206	
572.27	20930	
572.46	21530	
572.65	22876	
572.85	20504	
573.04	21031	
573.23	23193	
573.43	22414	
573.62	20504	
573.81	21156	
574	22785	
574.2	22401	
574.39	20952	
574.58	20994	
574.78	23771	
574.97	22853	
575.16	21614	
575.36	21664	
575.55	23269	
575.74	23262	
575.93	20470	
576.13	21864	
576.32	22558	
576.51	23328	
576.71	21023	
576.9	22767	
577.09	23604	
577.28	23040	
577.48	21805	
577.67	20760	
577.86	22856	
578.05	23399	
578.25	21535	
578.44	21655	
578.63	23097	
578.83	24419	
579.02	21020	
579.21	22483	
579.4	23473	
579.6	23298	
579.79	21826	
579.98	24124	
580.17	23857	
580.37	24161	
580.56	21381	
580.75	22500	
580.94	24655	
581.14	24455	
581.33	23124	
581.52	21947	
581.71	24291	
581.91	24899	
582.1	21999	
582.29	22453	
582.48	24139	
582.68	24216	
582.87	23012	
583.06	22614	
583.25	24450	
583.45	23746	
583.64	23426	
583.83	24306	
584.02	23902	
584.21	24426	
584.41	23436	
584.6	22706	
584.79	24288	
584.98	24993	
585.18	22092	
585.37	22000	
585.56	23565	
585.75	24372	
585.94	21976	
586.14	22918	
586.33	24551	
586.52	23611	
586.71	22259	
586.91	21855	
587.1	22513	
587.29	23531	
587.48	21138	
587.67	21232	
587.87	22852	
588.06	22671	
588.25	21769	
588.44	20852	
588.63	21452	
588.83	21898	
589.02	19150	
589.21	18578	
589.4	19745	
589.59	19508	
589.78	16733	
589.98	16830	
590.17	18020	
590.36	18415	
590.55	15474	
590.74	16043	
590.94	19471	
591.13	17926	
591.32	16033	
591.51	15550	
591.7	18325	
591.89	17948	
592.09	15743	
592.28	16214	
592.47	17335	
592.66	19294	
592.85	15980	
593.05	16316	
593.24	18028	
593.43	19182	
593.62	16832	
593.81	17420	
594	18534	
594.19	18760	
594.39	16550	
594.58	16675	
594.77	18662	
594.96	19214	
595.15	16408	
595.34	16975	
595.54	18725	
595.73	17598	
595.92	15823	
596.11	16873	
596.3	19391	
596.49	17936	
596.68	16817	
596.88	17391	
597.07	19195	
597.26	18125	
597.45	16344	
597.64	17979	
597.83	18383	
598.02	19263	
598.22	16793	
598.41	17463	
598.6	19022	
598.79	18522	
598.98	17105	
599.17	18059	
599.36	19265	
599.55	20515	
599.74	19467	
599.94	19186	
600.13	19996	
600.32	18844	
600.51	17184	
600.7	17499	
600.89	20850	
601.08	21022	
601.27	17394	
601.47	18535	
601.66	20389	
601.85	21018	
602.04	18312	
602.23	18493	
602.42	19562	
602.61	20278	
602.8	18321	
602.99	18128	
603.18	20104	
603.37	20444	
603.57	18835	
603.76	19521	
603.95	21191	
604.14	20764	
604.33	18590	
604.52	18937	
604.71	20732	
604.9	20151	
605.09	19417	
605.28	19214	
605.47	21231	
605.66	20604	
605.86	18970	
606.05	18521	
606.24	21035	
606.43	19581	
606.62	18826	
606.81	19471	
607	20907	
607.19	20272	
607.38	18112	
607.57	18406	
607.76	19925	
607.95	19204	
608.14	18704	
608.33	19283	
608.52	19811	
608.72	20831	
608.91	17824	
609.1	17829	
609.29	19904	
609.48	19270	
609.67	18687	
609.86	17718	
610.05	19318	
610.24	19686	
610.43	17673	
610.62	17207	
610.81	20684	
611	20590	
611.19	17722	
611.38	18446	
611.57	19833	
611.76	21283	
611.95	17522	
612.14	17126	
612.33	19747	
612.52	19281	
612.71	17943	
612.9	17110	
613.09	18795	
613.28	21301	
613.47	17584	
613.66	18658	
613.85	19827	
614.04	19180	
614.24	17742	
614.43	17008	
614.62	20041	
614.81	19834	
615	18244	
615.19	18279	
615.38	19204	
615.57	19581	
615.76	18257	
615.95	19280	
616.14	19884	
616.33	19539	
616.52	18418	
616.71	18787	
616.9	20028	
617.09	19847	
617.28	17901	
617.47	19228	
617.66	19136	
617.85	19305	
618.04	19158	
618.22	18361	
618.41	19813	
618.6	20655	
618.79	18552	
618.98	18410	
619.17	21157	
619.36	19308	
619.55	18589	
619.74	18583	
619.93	20474	
620.12	20100	
620.31	19317	
620.5	19561	
620.69	21327	
620.88	21787	
621.07	20273	
621.26	19415	
621.45	21000	
621.64	20949	
621.83	19337	
622.02	18562	
622.21	20921	
622.4	20796	
622.59	20174	
622.78	19860	
622.97	20213	
623.16	21292	
623.35	19397	
623.54	18439	
623.72	20536	
623.91	20669	
624.1	19460	
624.29	18260	
624.48	21717	
624.67	20822	
624.86	19417	
625.05	18526	
625.24	21607	
625.43	20187	
625.62	21058	
625.81	18654	
626	20837	
626.19	20264	
626.38	19216	
626.56	18370	
626.75	19766	
626.94	20527	
627.13	18581	
627.32	17212	
627.51	19970	
627.7	21305	
627.89	17400	
628.08	18582	
628.27	18968	
628.46	19209	
628.65	17647	
628.83	17137	
629.02	19699	
629.21	19117	
629.4	18176	
629.59	18312	
629.78	19278	
629.97	20248	
630.16	18670	
630.35	18018	
630.54	20730	
630.72	20449	
630.91	17982	
631.1	18441	
631.29	19963	
631.48	20008	
631.67	18593	
631.86	18062	
632.05	19590	
632.24	19689	
632.42	17649	
632.61	18499	
632.8	19620	
632.99	19303	
633.18	18582	
633.37	18785	
633.56	20168	
633.75	19962	
633.93	18600	
634.12	18318	
634.31	20790	
634.5	20700	
634.69	18290	
634.88	18615	
635.07	19932	
635.25	20407	
635.44	19222	
635.63	19572	
635.82	19736	
636.01	19157	
636.2	19005	
636.39	18784	
636.57	20940	
636.76	20403	
636.95	18187	
637.14	19474	
637.33	20164	
637.52	21243	
637.7	17776	
637.89	18703	
638.08	19766	
638.27	21262	
638.46	18901	
638.65	19140	
638.83	20983	
639.02	19316	
639.21	18624	
639.4	19091	
639.59	19636	
639.78	19404	
639.96	17621	
640.15	17820	
640.34	19543	
640.53	19646	
640.72	17337	
640.91	17626	
641.09	18779	
641.28	20090	
641.47	17817	
641.66	18498	
641.85	19486	
642.03	19467	
642.22	18031	
642.41	17429	
642.6	18621	
642.79	18025	
642.97	16872	
643.16	17825	
643.35	18408	
643.54	18056	
643.73	16518	
643.91	17290	
644.1	17376	
644.29	18178	
644.48	15997	
644.67	15944	
644.85	17122	
645.04	17254	
645.23	15015	
645.42	15178	
645.6	16158	
645.79	17169	
645.98	14453	
646.17	13420	
646.36	15143	
646.54	15674	
646.73	14711	
646.92	13437	
647.11	14929	
647.29	16074	
647.48	13395	
647.67	13062	
647.86	16266	
648.05	16552	
648.23	14005	
648.42	15453	
648.61	16096	
648.8	15976	
648.98	13896	
649.17	14532	
649.36	15601	
649.55	15056	
649.73	14024	
649.92	14691	
650.11	15399	
650.3	15670	
650.48	13948	
650.67	13854	
650.86	15883	
651.05	14797	
651.23	13962	
651.42	13981	
651.61	15401	
651.79	15493	
651.98	14212	
652.17	13878	
652.36	15886	
652.54	14915	
652.73	13867	
652.92	13596	
653.11	15718	
653.29	15739	
653.48	12844	
653.67	13794	
653.85	15171	
654.04	16074	
654.23	13616	
654.42	13090	
654.6	14070	
654.79	14752	
654.98	12272	
655.16	12813	
655.35	13741	
655.54	13751	
655.73	12501	
655.91	12422	
656.1	15065	
656.29	14036	
656.47	12450	
656.66	14014	
656.85	14446	
657.03	14629	
657.22	13177	
657.41	13463	
657.59	14905	
657.78	14812	
657.97	13246	
658.16	13927	
658.34	15538	
658.53	16062	
658.72	14828	
658.9	15338	
659.09	15230	
659.28	15380	
659.46	13826	
659.65	13792	
659.84	15201	
660.02	15778	
660.21	13770	
660.4	13756	
660.58	16125	
660.77	15597	
660.96	14401	
661.14	13370	
661.33	16657	
661.52	16561	
661.7	13231	
661.89	16925	
662.08	15036	
662.26	14685	
662.45	13461	
662.64	13609	
662.82	15732	
663.01	14982	
663.2	13586	
663.38	14472	
663.57	15555	
663.75	15523	
663.94	13907	
664.13	15169	
664.31	14896	
664.5	15622	
664.69	14161	
664.87	14851	
665.06	14690	
665.25	15368	
665.43	14988	
665.62	14991	
665.8	15811	
665.99	14958	
666.18	13810	
666.36	13925	
666.55	15550	
666.74	15667	
666.92	13368	
667.11	15089	
667.29	14932	
667.48	15584	
667.67	14670	
667.85	13854	
668.04	14984	
668.22	14880	
668.41	13783	
668.6	13969	
668.78	14788	
668.97	14954	
669.15	14076	
669.34	12910	
669.53	14644	
669.71	15152	
669.9	13159	
670.08	13867	
670.27	14690	
670.46	15037	
670.64	14015	
670.83	14332	
671.01	14549	
671.2	14999	
671.38	13343	
671.57	12968	
671.76	15673	
671.94	16310	
672.13	13013	
672.31	14027	
672.5	15567	
672.69	14699	
672.87	13215	
673.06	13599	
673.24	15059	
673.43	14725	
673.61	13926	
673.8	13471	
673.98	15328	
674.17	15367	
674.36	14044	
674.54	13864	
674.73	14898	
674.91	15198	
675.1	13631	
675.28	13080	
675.47	14760	
675.65	15401	
675.84	13459	
676.03	13729	
676.21	14467	
676.4	14034	
676.58	14124	
676.77	13816	
676.95	15980	
677.14	14400	
677.32	13034	
677.51	12860	
677.69	15133	
677.88	14008	
678.06	12884	
678.25	12904	
678.44	14803	
678.62	14371	
678.81	12551	
678.99	13659	
679.18	15365	
679.36	14932	
679.55	13189	
679.73	13835	
679.92	14835	
680.1	14345	
680.29	14510	
680.47	13160	
680.66	14128	
680.84	15053	
681.03	12363	
681.21	13430	
681.4	14208	
681.58	14111	
681.77	12798	
681.95	12616	
682.14	14985	
682.32	15190	
682.51	13575	
682.69	12276	
682.88	13917	
683.06	14438	
683.25	13197	
683.43	13457	
683.62	14114	
683.8	14335	
683.99	13122	
684.17	12266	
684.36	14397	
684.54	12766	
684.73	10613	
684.91	10663	
685.1	12505	
685.28	11752	
685.46	10839	
685.65	10910	
685.83	12434	
686.02	11806	
686.2	10362	
686.39	10471	
686.57	11523	
686.76	13308	
686.94	10526	
687.13	10639	
687.31	12582	
687.5	12175	
687.68	10292	
687.86	11585	
688.05	14096	
688.23	11693	
688.42	11604	
688.6	10903	
688.79	12299	
688.97	12233	
689.16	11119	
689.34	9994.8	
689.52	13058	
689.71	12873	
689.89	11372	
690.08	10566	
690.26	12060	
690.45	11945	
690.63	11097	
690.81	10312	
691	11357	
691.18	11312	
691.37	10265	
691.55	12272	
691.74	11107	
691.92	13090	
692.1	10125	
692.29	9624.8	
692.47	11410	
692.66	10617	
692.84	10006	
693.02	10624	
693.21	11082	
693.39	11506	
693.58	11021	
693.76	10486	
693.94	13213	
694.13	13184	
694.31	10765	
694.5	12086	
694.68	12257	
694.86	12717	
695.05	11564	
695.23	11588	
695.42	13198	
695.6	15412	
695.78	11983	
695.97	10887	
696.15	12841	
696.34	12106	
696.52	10468	
696.7	11141	
696.89	12215	
697.07	11502	
697.25	10729	
697.44	12357	
697.62	11788	
697.81	12144	
697.99	10214	
698.17	10864	
698.36	10893	
698.54	11695	
698.72	10583	
698.91	9557.2	
699.09	11249	
699.28	11198	
699.46	10192	
699.64	10118	
699.83	11122	
700.01	12372	
700.19	11064	
700.38	9689.6	
700.56	12726	
700.74	11619	
700.93	10278	
701.11	11173	
701.29	12358	
701.48	13530	
701.66	10663	
701.84	10716	
702.03	11908	
702.21	12792	
702.39	10157	
702.58	10752	
702.76	12306	
702.94	12432	
703.13	10068	
703.31	12585	
703.49	11733	
703.68	12579	
703.86	10213	
704.04	11368	
704.23	12119	
704.41	12597	
704.59	10554	
704.78	11635	
704.96	13360	
705.14	12641	
705.33	10306	
705.51	11120	
705.69	12065	
705.87	12818	
706.06	11533	
706.24	10359	
706.42	12523	
706.61	12875	
706.79	11622	
706.97	10408	
707.16	11889	
707.34	12482	
707.52	11434	
707.7	10699	
707.89	12007	
708.07	11712	
708.25	11481	
708.44	11809	
708.62	12089	
708.8	13069	
708.98	11830	
709.17	10835	
709.35	12544	
709.53	12360	
709.72	10439	
709.9	10562	
710.08	12563	
710.26	12556	
710.45	11878	
710.63	10619	
710.81	12224	
710.99	12054	
711.18	11135	
711.36	10443	
711.54	11555	
711.72	12243	
711.91	10288	
712.09	9586.5	
712.27	11327	
712.45	11940	
712.64	10089	
712.82	8839	
713	10210	
713.18	10236	
713.37	8363.9	
713.55	9389.3	
713.73	10374	
713.91	8587.1	
714.1	7800	
714.28	7027.3	
714.46	9168.8	
714.64	8187.1	
714.83	6000.5	
715.01	6708.5	
715.19	7879.2	
715.37	7219.1	
715.55	6294.1	
715.74	6521.4	
715.92	8712.7	
716.1	6574	
716.28	7632.8	
716.47	6567.2	
716.65	7275.8	
716.83	7333.1	
717.01	6519.4	
717.19	6492.7	
717.38	9692.4	
717.56	7302.4	
717.74	7127.6	
717.92	6369.9	
718.1	8832.2	
718.29	8243.1	
718.47	6350.8	
718.65	7176.8	
718.83	9293	
719.01	9280	
719.2	6601.3	
719.38	7722.2	
719.56	8989.9	
719.74	10593	
719.92	7036.8	
720.11	8072.4	
720.29	8652.7	
720.47	7710.6	
720.65	6165.1	
720.83	6965.1	
721.02	7742	
721.2	7416.4	
721.38	6850.5	
721.56	6051.7	
721.74	6885.3	
721.92	7047.1	
722.11	7320.1	
722.29	6994.5	
722.47	8341.4	
722.65	7486.7	
722.83	6056.5	
723.01	6974	
723.2	7591.8	
723.38	7894.9	
723.56	5418.2	
723.74	6609.5	
723.92	6995.2	
724.1	8112.7	
724.29	5944.6	
724.47	7162.4	
724.65	7208.2	
724.83	7120.1	
725.01	5926.1	
725.19	6827.2	
725.37	7216.4	
725.56	7200.7	
725.74	5729.5	
725.92	6079.1	
726.1	7204.8	
726.28	7474.4	
726.46	6432	
726.64	6133	
726.83	7413	
727.01	7678.5	
727.19	5694	
727.37	6590.4	
727.55	7591.8	
727.73	7982.3	
727.91	5691.3	
728.09	5611.4	
728.28	8230.8	
728.46	8911.4	
728.64	7029.3	
728.82	7118.7	
729	9610.4	
729.18	9082.7	
729.36	6610.8	
729.54	8974.9	
729.72	10394	
729.91	8651.3	
730.09	8888.9	
730.27	7610.3	
730.45	8685.4	
730.63	9430.9	
730.81	8363.9	
730.99	7447.1	
731.17	9987.9	
731.35	8490.9	
731.53	7917.4	
731.71	7490.8	
731.9	9609.1	
732.08	9828.2	
732.26	7621.9	
732.44	7322.2	
732.62	9725.1	
732.8	9216.5	
732.98	7996.6	
733.16	7101	
733.34	9166.7	
733.52	8006.9	
733.7	7622.5	
733.88	7944.8	
734.07	9139.4	
734.25	9005.6	
734.43	7187	
734.61	8834.3	
734.79	10689	
734.97	8942.1	
735.15	7370	
735.33	7832.8	
735.51	9351.7	
735.69	8926.4	
735.87	8996	
736.05	8044.4	
736.23	9312.8	
736.41	9007.6	
736.59	7890.1	
736.77	8112	
736.95	9817.3	
737.13	9263	
737.32	7727.7	
737.5	8041	
737.68	10591	
737.86	9219.3	
738.04	7603.4	
738.22	9435	
738.4	8989.9	
738.58	9250.7	
738.76	8232.2	
738.94	7243.7	
739.12	9178.3	
739.3	9100.5	
739.48	8946.9	
739.66	8826.1	
739.84	9583.1	
740.02	9564	
740.2	7480.5	
740.38	7929.7	
740.56	10008	
740.74	8724.3	
740.92	8448.6	
741.1	8398	
741.28	9334	
741.46	9213.8	
741.64	8005.5	
741.82	8544.8	
742	9415.9	
742.18	9398.8	
742.36	8209.6	
742.54	7679.2	
742.72	9912.9	
742.9	8606.2	
743.08	8480.6	
743.26	7346.7	
743.44	10086	
743.62	9932.6	
743.8	8578.9	
743.98	7628.7	
744.16	9635	
744.34	9286.9	
744.52	8559.8	
744.7	8430.8	
744.88	9671.2	
745.06	9241.1	
745.24	8542.1	
745.42	8516.8	
745.6	9691.7	
745.78	9413.8	
745.96	7154.9	
746.14	7574.1	
746.32	10430	
746.5	9611.8	
746.68	7957	
746.86	7439.6	
747.03	10047	
747.21	8230.8	
747.39	7978.2	
747.57	7451.9	
747.75	9277.3	
747.93	9480	
748.11	7463.5	
748.29	7399.3	
748.47	10760	
748.65	8852	
748.83	8243.8	
749.01	7946.1	
749.19	9331.9	
749.37	8514.1	
749.55	7773.4	
749.73	7839.6	
749.91	9007.6	
750.09	8712.7	
750.26	7830.1	
750.44	7180.9	
750.62	9083.4	
750.8	9015.2	
750.98	7074.4	
751.16	7370.6	
751.34	9093	
751.52	8411	
751.7	8198.7	
751.88	7049.1	
752.06	9453.4	
752.24	9364	
752.42	7043	
752.59	7391.1	
752.77	8890.9	
752.95	10277	
753.13	8017.8	
753.31	7507.9	
753.49	8576.2	
753.67	9091.6	
753.85	7741.3	
754.03	7199.3	
754.21	9132.6	
754.38	9510.1	
754.56	7172	
754.74	6071.5	
754.92	8023.9	
755.1	8484.1	
755.28	5633.3	
755.46	5304.2	
755.64	8404.2	
755.82	8277.2	
755.99	4860.5	
756.17	4799.8	
756.35	5237.3	
756.53	6909.2	
756.71	3479.5	
756.89	4508.3	
757.07	6393.8	
757.25	5542.5	
757.42	5248.9	
757.6	6274.3	
757.78	6969.9	
757.96	5880.4	
758.14	5171.1	
758.32	4575.2	
758.5	5238	
758.67	6141.9	
758.85	4730.1	
759.03	4798.4	
759.21	6221	
759.39	5692.7	
759.57	4319.8	
759.75	5547.3	
759.92	6965.8	
760.1	6262.7	
760.28	6031.3	
760.46	6421.7	
760.64	6227.9	
760.82	5994.4	
760.99	6152.1	
761.17	5325.4	
761.35	7321.5	
761.53	6374	
761.71	5745.2	
761.89	6533	
762.06	7472.4	
762.24	7005.4	
762.42	6012.8	
762.6	5868.8	
762.78	7255.3	
762.96	7975.5	
763.13	6610.8	
763.31	6371.9	
763.49	8245.1	
763.67	7406.1	
763.85	7303.1	
764.02	7845.8	
764.2	8641.7	
764.38	7787.1	
764.56	6343.2	
764.74	7211.6	
764.91	8803.5	
765.09	7496.9	
765.27	6092.7	
765.45	5889.3	
765.63	8784.4	
765.8	8692.9	
765.98	5535	
766.16	5944.6	
766.34	7103	
766.52	6821.8	
766.69	6884.6	
766.87	5713.2	
767.05	7476.5	
767.23	8232.2	
767.41	5973.9	
767.58	6206	
767.76	7989.8	
767.94	8065.6	
768.12	5964.4	
768.29	6870.3	
768.47	7514.7	
768.65	8193.2	
768.83	5618.9	
769	6746	
769.18	6905.1	
769.36	7715.4	
769.54	6759	
769.72	5588.2	
769.89	7942.7	
770.07	8028	
770.25	5804.6	
770.43	7157	
770.6	8643.8	
770.78	9032.2	
770.96	5934.3	
771.14	6661.4	
771.31	7752.2	
771.49	7040.9	
771.67	5046.2	
771.85	5272.8	
772.02	6216.3	
772.2	7023.2	
772.38	5958.2	
772.55	5498.8	
772.73	7243.7	
772.91	6966.5	
773.09	5894.1	
773.26	5870.8	
773.44	7010.9	
773.62	6744.6	
773.8	5327.4	
773.97	4980.7	
774.15	7078.5	
774.33	6761.7	
774.5	5109.7	
774.68	5452.4	
774.86	7311.2	
775.04	6685.9	
775.21	5120.6	
775.39	5104.2	
775.57	6957.6	
775.74	7319.4	
775.92	4888.5	
776.1	4831.2	
776.27	6864.1	
776.45	8162.5	
776.63	4997.7	
776.81	4496	
776.98	6392.4	
777.16	7632.8	
777.34	5110.4	
777.51	5107.6	
777.69	6384.2	
777.87	6128.2	
778.04	5134.9	
778.22	5799.2	
778.4	6070.2	
778.57	6787	
778.75	4296.6	
778.93	4663.9	
779.1	5750	
779.28	5707	
779.46	4285	
779.64	4831.8	
779.81	6847	
779.99	7744.7	
780.17	5558.9	
780.34	5711.1	
780.52	6199.2	
780.69	6489.3	
780.87	4910.3	
781.05	4537.6	
781.22	6265.4	
781.4	6326.2	
781.58	4650.9	
781.75	3774.4	
781.93	6253.1	
782.11	5556.8	
782.28	5428.5	
782.46	4585.4	
782.64	5428.5	
782.81	6436.8	
782.99	4615.4	
783.17	4628.4	
783.34	6234.7	
783.52	5324	
783.69	4844.1	
783.87	5571.2	
784.05	5560.2	
784.22	5421	
784.4	5546.6	
784.58	4849.6	
784.75	6327.5	
784.93	5433.3	
785.1	4498.7	
785.28	5096	
785.46	6081.1	
785.63	5373.2	
785.81	4410.6	
785.99	4226.3	
786.16	5563.6	
786.34	5991.7	
786.51	4277.5	
786.69	4724.7	
786.87	5111.7	
787.04	5652.4	
787.22	4143	
787.39	5107	
787.57	5335.6	
787.75	6531.7	
787.92	5251.7	
788.1	5195.7	
788.27	5339.7	
788.45	5132.9	
788.63	4919.2	
788.8	3554.6	
788.98	5881.1	
789.15	5143.1	
789.33	3670.6	
789.5	4370.4	
789.68	6336.4	
789.86	6393.1	
790.03	4824.3	
790.21	4192.9	
790.38	6214.2	
790.56	5380	
790.73	3985.3	
790.91	4034.5	
791.09	5253.7	
791.26	6009.4	
791.44	4210.6	
791.61	3785.3	
791.79	5242.8	
791.96	5353.4	
792.14	3822.2	
792.32	3340.2	
792.49	5242.8	
792.67	5360.9	
792.84	3883.6	
793.02	3625.6	
793.19	5665.4	
793.37	6476.4	
793.54	3382.6	
793.72	3723.2	
793.89	6640.2	
794.07	5197.7	
794.25	4384	
794.42	3366.9	
794.6	6359.6	
794.77	5874.3	
794.95	4577.9	
795.12	4058.4	
795.3	5142.4	
795.47	5792.3	
795.65	4374.5	
795.82	4190.1	
796	5010.7	
796.17	6976.7	
796.35	4123.2	
796.52	4807.9	
796.7	5683.8	
796.87	5842.9	
797.05	4982.7	
797.22	4916.5	
797.4	5867.4	
797.57	6852.5	
797.75	4226.3	
797.92	3999.7	
798.1	6129.6	
798.27	5132.2	
798.45	3365.5	
798.62	3659.7	
798.8	5466.7	
798.97	5967.8	
799.15	4470	
799.32	4240	
799.5	4676.9	
799.67	5567.7	
799.85	4532.8	
800.02	3334.1	
800.2	5119.9	
800.37	5464.7	
800.55	4726	
800.72	3959.4	
800.9	5943.9	
801.07	6378.1	
801.25	5390.9	
801.42	4313	
801.6	5958.2	
801.77	5672.9	
801.95	4020.2	
802.12	3872	
802.29	5652.4	
802.47	5651	
802.64	4347.8	
802.82	3256.3	
802.99	5108.3	
803.17	6116.6	
803.34	4148.5	
803.52	3792.8	
803.69	6730.3	
803.87	4893.3	
804.04	4139.6	
804.21	4278.2	
804.39	6250.4	
804.56	5279.7	
804.74	3519.1	
804.91	4351.3	
805.09	5025	
805.26	5191.6	
805.44	3594.9	
805.61	3938.9	
805.78	5696.8	
805.96	5827.8	
806.13	4250.2	
806.31	4592.2	
806.48	4643.4	
806.66	5147.9	
806.83	4275.5	
807	4182	
807.18	5025.7	
807.35	5491.3	
807.53	4086.4	
807.7	3324.5	
807.87	6277	
808.05	5140.4	
808.22	4565.6	
808.4	3291.1	
808.57	5079.6	
808.74	4689.2	
808.92	3766.9	
809.09	4820.2	
809.27	4973.8	
809.44	5603.9	
809.61	3297.9	
809.79	3704.8	
809.96	6260	
810.14	5831.2	
810.31	3209.2	
810.48	3952.6	
810.66	5190.2	
810.83	5981.4	
811.01	3809.9	
811.18	4201.1	
811.35	5840.1	
811.53	4521.9	
811.7	4653	
811.87	4253.6	
812.05	5066	
812.22	5043.5	
812.39	3635.8	
812.57	3555.3	
812.74	5135.6	
812.92	6841.6	
813.09	3965.6	
813.26	4335.5	
813.44	6539.8	
813.61	4967.7	
813.78	3355.3	
813.96	4397	
814.13	5081.7	
814.3	4801.8	
814.48	4764.3	
814.65	3997.6	
814.82	6301.6	
815	4828.4	
815.17	4061.1	
815.34	5008.6	
815.52	4984.8	
815.69	4997	
815.87	4077.5	
816.04	3461.7	
816.21	5070.8	
816.38	4477.5	
816.56	3926	
816.73	3689.8	
816.9	6387.6	
817.08	5834.7	
817.25	3713.6	
817.42	4665.3	
817.6	4643.4	
817.77	5151.3	
817.94	4100.7	
818.12	3650.8	
818.29	4825	
818.46	7550.2	
818.64	3801	
818.81	3539.6	
818.98	4769	
819.16	6924.9	
819.33	4384.7	
819.5	4100	
819.67	5388.9	
819.85	6134.3	
820.02	4010.6	
820.19	4211.3	
820.37	5316.5	
820.54	4910.3	
820.71	4196.3	
820.88	5238	
821.06	5303.6	
821.23	4820.9	
821.4	4186	
821.58	4121.2	
821.75	5838.1	
821.92	5289.9	
822.09	3298.6	
822.27	3418.1	
822.44	5127.4	
822.61	4984.1	
822.79	3336.1	
822.96	6426.5	
823.13	5597.1	
823.3	4764.9	
823.48	3862.5	
823.65	3485.6	
823.82	5819	
823.99	4638	
824.17	4896	
824.34	3558.7	
824.51	6784.2	
824.68	5214.8	
824.86	3714.3	
825.03	4160.1	
825.2	5118.6	
825.37	6206.7	
825.55	3668.6	
825.72	4052.9	
825.89	6763.1	
826.06	6286.6	
826.24	3968.3	
826.41	3993.5	
826.58	6218.3	
826.75	5442.8	
826.92	3178.4	
827.1	3530	
827.27	8459.5	
827.44	6766.5	
827.61	3797.6	
827.79	4663.9	
827.96	4807.9	
828.13	5274.2	
828.3	3897.3	
828.47	3353.2	
828.65	5338.4	
828.82	5257.1	
828.99	5139.7	
829.16	4487.1	
829.34	5669.5	
829.51	5459.9	
829.68	4076.8	
829.85	4265.9	
830.02	6027.2	
830.2	5711.1	
830.37	3157.3	
830.54	4927.4	
830.71	6551.5	
830.88	5024.3	
831.05	3240.6	
831.23	3719.8	
831.4	6251.8	
831.57	7017	
831.74	3730.7	
831.91	3371.6	
832.09	5305.6	
832.26	5734.3	
832.43	3898	
832.6	4425	
832.77	5353.4	
832.94	6127.5	
833.12	3054.9	
833.29	3837.9	
833.46	4960.2	
833.63	7201.3	
833.8	4345.8	
833.97	3962.1	
834.15	5752.1	
834.32	5482.4	
834.49	4116.4	
834.66	4246.8	
834.83	5957.5	
835	4802.5	
835.17	3766.2	
835.35	3857.7	
835.52	5616.2	
835.69	5449	
835.86	4093.2	
836.03	3327.9	
836.2	5621	
836.37	5305.6	
836.55	3930.7	
836.72	3693.2	
836.89	5274.2	
837.06	5668.8	
837.23	4019.5	
837.4	4386.1	
837.57	6524.8	
837.75	7191.8	
837.92	3536.2	
838.09	3843.4	
838.26	5240.8	
838.43	6013.5	
838.6	4128.7	
838.77	3695.9	
838.94	6861.4	
839.11	6561	
839.29	3943.7	
839.46	3072	
839.63	5659.2	
839.8	5441.5	
839.97	3792.8	
840.14	3803.8	
840.31	5440.1	
840.48	5705.6	
840.65	3160.7	
840.82	3737.5	
841	5704.3	
841.17	5606	
841.34	3533.4	
841.51	3542.3	
841.68	5584.8	
841.85	5278.3	
842.02	3640.6	
842.19	3011.2	
842.36	5454.4	
842.53	5404.6	
842.7	3510.9	
842.87	4313	
843.05	7233.4	
843.22	5393	
843.39	3347.7	
843.56	3637.2	
843.73	5120.6	
843.9	5737	
844.07	5751.4	
844.24	4719.2	
844.41	8375.5	
844.58	4913.1	
844.75	3360	
844.92	3718.4	
845.09	5670.1	
845.26	5636.7	
845.43	3437.9	
845.6	3659	
845.77	5704.3	
845.94	5369.8	
846.12	3880.9	
846.29	4161.5	
846.46	5896.8	
846.63	5705.6	
846.8	3526.6	
846.97	4203.1	
847.14	6129.6	
847.31	5614.2	
847.48	3934.8	
847.65	4349.2	
847.82	5956.2	
847.99	5883.1	
848.16	4667.3	
848.33	4304.8	
848.5	5236	
848.67	6156.9	
848.84	3502.7	
849.01	3627	
849.18	5074.2	
849.35	4726	
849.52	4352.6	
849.69	3409.9	
849.86	5905.7	
850.03	6068.1	
850.2	3535.5	
850.37	4244.1	
850.54	6008.7	
850.71	5363.6	
850.88	4197	
851.05	3375.7	
851.22	5532.2	
851.39	6142.5	
851.56	3274.7	
851.73	3968.3	
851.9	4944.5	
852.07	5898.2	
852.24	3878.2	
852.41	3475.4	
852.58	5524.1	
852.75	5104.9	
852.92	3919.1	
853.09	3388.7	
853.26	5221.6	
853.43	6186.9	
853.6	3498.6	
853.77	2949.8	
853.94	6223.1	
854.11	5608	
854.28	5137	
854.44	3766.2	
854.61	6674.3	
854.78	5773.2	
854.95	3444.7	
855.12	4362.9	
855.29	4519.2	
855.46	6234	
855.63	3463.1	
855.8	4873.5	
855.97	5245.5	
856.14	5999.9	
856.31	4937	
856.48	3736.2	
856.65	5213.4	
856.82	4925.4	
856.99	3323.2	
857.16	3752.6	
857.33	6849.8	
857.49	5267.4	
857.66	3744.4	
857.83	4020.8	
858	5301.5	
858.17	5484.5	
858.34	3286.3	
858.51	3441.3	
858.68	6364.4	
858.85	6397.2	
859.02	4026.3	
859.19	4303.5	
859.36	4962.9	
859.52	4990.2	
859.69	3439.2	
859.86	4134.2	
860.03	5025	
860.2	6277	
860.37	3153.9	
860.54	3529.3	
860.71	5896.1	
860.88	6327.5	
861.05	3913	
861.21	4363.5	
861.38	6311.8	
861.55	4840	
861.72	3152.5	
861.89	3902.1	
862.06	5996.5	
862.23	6432.7	
862.4	3369.6	
862.56	3614	
862.73	5761.6	
862.9	5466.7	
863.07	4128	
863.24	3202.3	
863.41	4828.4	
863.58	4987.5	
863.75	3571	
863.91	4065.2	
864.08	6256.5	
864.25	5834	
864.42	4384.7	
864.59	4860.5	
864.76	6550.1	
864.93	4988.2	
865.09	3329.3	
865.26	3702.7	
865.43	6186.9	
865.6	6500.3	
865.77	3071.3	
865.94	3411.2	
866.1	6192.4	
866.27	5965.1	
866.44	5254.4	
866.61	3295.2	
866.78	5368.4	
866.95	5740.5	
867.11	3392.8	
867.28	3087.7	
867.45	5997.1	
867.62	5052.3	
867.79	3997.6	
867.96	3479.5	
868.12	4928.1	
868.29	5983.5	
868.46	3495.2	
868.63	4663.9	
868.8	6097.5	
868.97	5849.7	
869.13	3665.2	
869.3	3663.1	
869.47	5759.6	
869.64	5954.1	
869.81	3498.6	
869.97	3495.2	
870.14	5695.4	
870.31	6351.4	
870.48	3348.4	
870.65	4412	
870.81	5274.9	
870.98	5245.5	
871.15	3936.2	
871.32	3575.8	
871.48	5748.6	
871.65	6377.4	
871.82	3447.4	
871.99	3817.4	
872.16	6776.7	
872.32	6204.7	
872.49	3519.1	
872.66	3538.9	
872.83	5877.7	
872.99	5157.5	
873.16	4055	
873.33	3462.4	
873.5	5520	
873.67	5554.1	
873.83	3621.5	
874	4659.8	
874.17	5663.3	
874.34	6750.8	
874.5	4499.4	
874.67	4399.7	
874.84	6287.3	
875.01	4932.9	
875.17	4821.6	
875.34	3527.3	
875.51	5560.2	
875.68	6718	
875.84	4246.8	
876.01	5178.6	
876.18	5845.6	
876.34	5786.2	
876.51	3500	
876.68	3433.1	
876.85	5275.6	
877.01	6173.9	
877.18	4941.1	
877.35	3463.8	
877.52	5468.8	
877.68	4949.9	
877.85	3371	
878.02	3423.5	
878.18	5445.5	
878.35	5116.5	
878.52	2773.6	
878.69	3920.5	
878.85	5878.4	
879.02	5855.8	
879.19	4960.2	
879.35	3708.9	
879.52	5844.9	
879.69	6042.9	
879.86	2997.5	
880.02	3885.7	
880.19	5388.9	
880.36	6586.3	
880.52	4002.4	
880.69	4143	
880.86	5977.3	
881.02	6061.3	
881.19	3819.5	
881.36	3845.4	
881.52	5795.1	
881.69	5117.2	
881.86	3836.5	
882.02	3632.4	
882.19	6122.1	
882.36	7154.9	
882.52	3588	
882.69	4954.7	
882.86	5569.1	
883.02	5497.4	
883.19	4253.6	
883.36	4020.8	
883.52	5976	
883.69	6817.7	
883.86	3536.2	
884.02	3137.5	
884.19	5862.7	
884.36	5456.5	
884.52	3956	
884.69	3691.1	
884.86	5152	
885.02	6507.8	
885.19	3875.4	
885.36	4038.6	
885.52	5464	
885.69	5674.2	
885.86	5024.3	
886.02	4479.6	
886.19	5897.5	
886.35	5316.5	
886.52	3827	
886.69	4903.5	
886.85	4962.9	
887.02	6216.3	
887.19	6216.3	
887.35	6216.3	
887.52	6216.3	
887.68	6216.3	
887.85	6216.3	
888.02	6216.3	
888.18	6216.3	
888.35	6216.3	
888.51	6216.3	
888.68	6216.3	
888.85	6216.3	
889.01	6216.3	
889.18	6216.3	
889.35	6216.3	
889.51	6216.3	
889.68	6216.3	
889.84	6216.3	
890.01	6216.3	
890.17	6216.3	
890.34	6216.3	
890.51	6216.3	
890.67	6216.3	
890.84	6216.3	
891	6216.3	
891.17	6216.3	
891.34	6216.3	
891.5	6216.3	
891.67	6216.3	
891.83	6216.3	
892	6216.3	
892.16	6216.3	
892.33	6216.3	
892.5	6216.3	
892.66	6216.3	
892.83	6216.3	
892.99	6216.3	
893.16	6216.3	
893.32	6216.3	
893.49	6216.3	
893.65	6216.3	
893.82	6216.3	
893.99	6216.3	
894.15	6216.3	
894.32	6216.3	
894.48	6216.3	
894.65	6216.3	
894.81	6216.3	
894.98	6216.3	
895.14	6216.3	
895.31	6216.3	
895.47	6216.3	
895.64	6216.3	
895.81	6216.3	
895.97	6216.3	
896.14	6216.3	
896.3	6216.3	
896.47	6216.3	
896.63	6216.3	
896.8	6216.3	
896.96	6216.3	
897.13	6216.3	
897.29	6216.3	
897.46	6216.3	
897.62	6216.3	
897.79	6216.3	
897.95	6216.3	
898.12	6216.3	
898.28	6216.3	
898.45	6216.3	
898.61	6216.3	
898.78	6216.3	
898.94	6216.3	
899.11	6216.3	
899.27	6216.3	
899.44	6216.3	
899.6	6216.3	
899.77	6216.3	
899.93	6216.3	
900.1	6216.3	
900.26	6216.3	
900.43	6216.3	
900.59	6216.3	
900.76	6216.3	
900.92	6216.3	
901.09	6216.3	
901.25	6216.3	
901.42	6216.3	
901.58	6216.3	
901.75	6216.3	
901.91	6216.3	
902.07	6216.3	
902.24	6216.3	
902.4	6216.3	
902.57	6216.3	
902.73	6216.3	
902.9	6216.3	
903.06	6216.3	
903.23	6216.3	
903.39	6216.3	
903.56	6216.3	
903.72	6216.3	
903.88	6216.3	
904.05	6216.3	
904.21	6216.3	
904.38	6216.3	
904.54	6216.3	
904.71	6216.3	
904.87	6216.3	
905.03	6216.3	
905.2	6216.3	
905.36	6216.3	
905.53	6216.3	
905.69	6216.3	
905.86	6216.3	
906.02	6216.3	
906.18	6216.3	
906.35	6216.3	
906.51	6216.3	
906.68	6216.3	
906.84	6216.3	
907.01	6216.3	
907.17	6216.3	
907.33	6216.3	
907.5	6216.3	
907.66	6216.3	
907.83	6216.3	
907.99	6216.3	
908.15	6216.3	
908.32	6216.3	
908.48	6216.3	
908.65	6216.3	
908.81	6216.3	
908.97	6216.3	
909.14	6216.3	
909.3	6216.3	
909.47	6216.3	
909.63	6216.3	
909.79	6216.3	
909.96	6216.3	
910.12	6216.3	
910.28	6216.3	
910.45	6216.3	
910.61	6216.3	
910.78	6216.3	
910.94	6216.3	
911.1	6216.3	
911.27	6216.3	
911.43	6216.3	
911.59	6216.3	
911.76	6216.3	
911.92	6216.3	
912.08	6216.3	
912.25	6216.3	
912.41	6216.3	
912.57	6216.3	
912.74	6216.3	
912.9	6216.3	
913.07	6216.3	
913.23	6216.3	
913.39	6216.3	
913.56	6216.3	
913.72	6216.3	
913.88	6216.3	
914.05	6216.3	
914.21	6216.3	
914.37	6216.3	
914.54	6216.3	
914.7	6216.3	
914.86	6216.3	
915.03	6216.3	
915.19	6216.3	
