Wavelength	Intensities	
nm	a.u.	
179.22	1425.9	
179.44	1423	
179.65	1428.8	
179.86	1417.2	
180.08	1397.4	
180.29	2901.3	
180.51	2423.4	
180.72	4236.6	
180.94	4493.2	
181.15	2213.9	
181.37	2206.3	
181.58	4012	
181.79	4036.5	
182.01	2239.1	
182.22	2317.6	
182.44	4298.7	
182.65	3747.1	
182.87	2712.9	
183.08	2495.1	
183.29	4375.8	
183.51	3769.6	
183.72	2267.1	
183.94	2967.5	
184.15	3999.7	
184.37	3903.4	
184.58	2155.1	
184.79	2513.5	
185.01	3812	
185.22	4391.5	
185.44	2635.1	
185.65	2443.9	
185.86	4147.1	
186.08	3807.9	
186.29	2122.4	
186.51	2214.5	
186.72	3937.6	
186.94	4299.4	
187.15	2480.8	
187.36	2493.7	
187.58	5013.4	
187.79	4115.7	
188.01	2480.8	
188.22	3448.8	
188.43	4556	
188.65	4174.4	
188.86	2280.1	
189.08	2547.7	
189.29	3886.4	
189.5	3800.3	
189.72	2303.3	
189.93	2345.6	
190.15	4229.1	
190.36	4699.4	
190.57	2529.9	
190.79	2392	
191	4199.7	
191.22	4309.6	
191.43	2566.1	
191.64	2240.5	
191.86	4364.9	
192.07	4244.8	
192.29	2281.4	
192.5	2304	
192.71	4317.1	
192.93	3914.4	
193.14	2341.5	
193.35	2433.7	
193.57	3873.4	
193.78	4335.5	
194	2014.5	
194.21	2257.5	
194.42	3599	
194.64	4029.7	
194.85	2434.4	
195.07	2689	
195.28	3967.6	
195.49	3716.4	
195.71	2826.9	
195.92	2258.2	
196.13	4203.1	
196.35	4095.9	
196.56	2911.5	
196.78	2483.5	
196.99	4721.9	
197.2	4484.4	
197.42	2667.1	
197.63	2456.9	
197.84	3773.7	
198.06	4086.4	
198.27	2343.6	
198.48	2787.3	
198.7	3916.4	
198.91	4138.9	
199.13	2502.6	
199.34	2512.9	
199.55	4386.1	
199.77	3498.6	
199.98	2269.8	
200.19	2482.8	
200.41	4020.8	
200.62	3840.6	
200.83	2476	
201.05	2712.2	
201.26	4076.8	
201.47	3920.5	
201.69	2276	
201.9	2281.4	
202.11	4055	
202.33	4443.4	
202.54	2391.3	
202.76	2616.6	
202.97	4012.7	
203.18	4133.5	
203.4	2509.4	
203.61	2643.9	
203.82	4051.6	
204.04	3775.8	
204.25	2475.3	
204.46	2466.4	
204.68	4070	
204.89	4136.2	
205.1	2454.1	
205.32	2220	
205.53	4094.6	
205.74	4292.5	
205.96	2024.8	
206.17	2493.1	
206.38	4129.4	
206.6	4272.7	
206.81	2669.9	
207.02	2347.7	
207.24	4175.8	
207.45	4347.8	
207.66	2450.1	
207.88	2199.5	
208.09	4117.1	
208.3	3967.6	
208.52	2290.3	
208.73	2410.5	
208.94	4057.7	
209.15	4289.1	
209.37	2383.8	
209.58	2424.1	
209.79	4147.1	
210.01	4001	
210.22	2123.7	
210.43	2196.8	
210.65	3932.8	
210.86	4124.6	
211.07	2381.8	
211.29	2299.2	
211.5	4077.5	
211.71	3972.4	
211.93	2270.5	
212.14	2265.1	
212.35	4032.5	
212.56	3959.4	
212.78	2456.2	
212.99	2127.8	
213.2	4422.9	
213.42	3975.8	
213.63	2334	
213.84	2387.9	
214.06	3784.6	
214.27	3696.6	
214.48	2365.4	
214.69	2538.1	
214.91	4348.5	
215.12	4321.9	
215.33	2480.8	
215.55	2635.1	
215.76	4605.9	
215.97	4136.9	
216.18	2411.8	
216.4	2452.8	
216.61	3823.6	
216.82	4194.2	
217.04	2297.1	
217.25	2353.8	
217.46	4229.7	
217.67	4164.2	
217.89	2200.9	
218.1	2178.4	
218.31	3949.2	
218.53	4118.5	
218.74	2442.5	
218.95	2259.6	
219.16	4039.3	
219.38	4475.5	
219.59	2267.1	
219.8	2580.4	
220.01	4603.2	
220.23	4062.5	
220.44	2682.8	
220.65	2235	
220.87	4128	
221.08	4361.5	
221.29	2272.6	
221.5	2602.3	
221.72	4769	
221.93	3710.2	
222.14	2450.1	
222.35	2813.2	
222.57	3954.6	
222.78	4322.6	
222.99	2448.7	
223.2	2512.2	
223.42	4065.2	
223.63	4083.6	
223.84	2023.4	
224.05	2062.3	
224.27	4498.7	
224.48	4369.7	
224.69	2785.2	
224.9	2529.2	
225.12	4052.9	
225.33	4007.2	
225.54	2144.9	
225.75	2343.6	
225.97	3873.4	
226.18	4003.8	
226.39	2304	
226.6	2306.7	
226.82	3977.2	
227.03	3802.4	
227.24	2411.8	
227.45	2191.3	
227.67	4301.4	
227.88	4358.8	
228.09	2753.2	
228.3	2674.6	
228.52	4136.9	
228.73	3949.2	
228.94	2379.1	
229.15	2173.6	
229.36	4138.3	
229.58	4046.1	
229.79	2430.3	
230	2534.7	
230.21	4569	
230.43	3995.6	
230.64	2511.5	
230.85	2514.2	
231.06	4294.6	
231.28	4261.8	
231.49	2200.2	
231.7	2464.4	
231.91	4308.9	
232.12	4058.4	
232.34	2263	
232.55	2392.7	
232.76	4332.1	
232.97	4054.3	
233.18	2247.3	
233.4	2454.8	
233.61	4006.5	
233.82	3796.3	
234.03	2392.7	
234.25	2399.5	
234.46	4918.5	
234.67	4045.4	
234.88	2491	
235.09	2284.9	
235.31	4018.8	
235.52	3981.9	
235.73	2426.8	
235.94	2163.3	
236.15	3878.2	
236.37	4503.5	
236.58	2228.2	
236.79	2379.1	
237	4143.7	
237.21	3734.8	
237.43	2544.9	
237.64	2147.6	
237.85	5744.6	
238.06	3896.6	
238.27	2428.9	
238.48	2220.7	
238.7	4224.3	
238.91	4001	
239.12	2390.7	
239.33	2453.5	
239.54	3796.9	
239.76	3930.7	
239.97	2421.4	
240.18	2382.5	
240.39	4445.5	
240.6	3992.2	
240.82	2607.7	
241.03	2216.6	
241.24	3956	
241.45	4379.2	
241.66	2252.1	
241.87	2572.2	
242.09	4420.9	
242.3	4360.1	
242.51	2549.7	
242.72	2402.9	
242.93	4169	
243.14	3835.8	
243.36	2693.1	
243.57	2805.7	
243.78	4399	
243.99	4076.1	
244.2	2366.1	
244.41	2186.5	
244.63	3713.6	
244.84	4009.9	
245.05	2571.6	
245.26	2371.5	
245.47	4205.2	
245.68	4182	
245.9	2858.3	
246.11	2509.4	
246.32	3768.3	
246.53	4156.7	
246.74	3477.5	
246.95	2139.4	
247.16	3997	
247.38	3981.9	
247.59	2168.1	
247.8	2441.9	
248.01	3553.2	
248.22	4062.5	
248.43	2261.6	
248.64	2402.3	
248.86	3804.4	
249.07	3917.1	
249.28	2258.9	
249.49	2463	
249.7	4111.6	
249.91	4187.4	
250.12	2216.6	
250.34	2220.7	
250.55	4033.8	
250.76	3951.9	
250.97	2499.2	
251.18	2467.8	
251.39	4170.3	
251.6	4089.1	
251.81	2479.4	
252.03	2450.7	
252.24	3748.5	
252.45	4154	
252.66	2193.4	
252.87	2575	
253.08	4001	
253.29	4732.9	
253.5	2238.4	
253.72	2766.8	
253.93	3927.3	
254.14	4440.7	
254.35	2346.3	
254.56	2381.8	
254.77	4072	
254.98	3852.9	
255.19	2352.4	
255.41	2723.1	
255.62	4151.2	
255.83	4259.1	
256.04	2555.9	
256.25	2387.2	
256.46	4554.7	
256.67	3787.4	
256.88	2486.9	
257.09	2629.6	
257.31	3650.8	
257.52	3809.2	
257.73	2918.4	
257.94	2373.6	
258.15	4015.4	
258.36	3928	
258.57	2713.6	
258.78	1940.8	
258.99	4276.8	
259.2	3895.9	
259.41	2297.8	
259.63	2411.8	
259.84	4413.4	
260.05	4465.9	
260.26	2779.1	
260.47	2301.2	
260.68	4299.4	
260.89	3923.2	
261.1	2683.5	
261.31	2291	
261.52	4471.4	
261.73	4433.2	
261.95	2871.9	
262.16	2479.4	
262.37	4278.9	
262.58	4334.2	
262.79	2779.1	
263	2332	
263.21	4010.6	
263.42	3803.8	
263.63	2492.4	
263.84	2359.9	
264.05	4187.4	
264.26	4379.9	
264.47	2723.8	
264.69	2512.9	
264.9	4468	
265.11	3949.2	
265.32	2212.5	
265.53	2319.7	
265.74	4035.9	
265.95	3631	
266.16	2397.5	
266.37	2572.2	
266.58	4113	
266.79	3855.6	
267	2326.5	
267.21	2251.4	
267.42	3751.2	
267.63	3986.7	
267.84	2403.6	
268.06	2210.4	
268.27	4190.8	
268.48	4259.1	
268.69	2379.7	
268.9	2609.1	
269.11	3953.9	
269.32	3688.4	
269.53	2357.9	
269.74	2291.7	
269.95	4040	
270.16	3728	
270.37	2461.7	
270.58	2655.5	
270.79	3960.8	
271	4263.9	
271.21	2467.8	
271.42	2451.4	
271.63	4197	
271.84	3690.4	
272.05	2114.2	
272.26	2244.6	
272.47	3992.2	
272.68	4049.5	
272.89	2446	
273.11	2565.4	
273.32	3795.6	
273.53	4362.2	
273.74	2486.2	
273.95	2521	
274.16	4020.8	
274.37	3949.8	
274.58	2667.1	
274.79	2216.6	
275	4140.3	
275.21	4158.7	
275.42	2965.5	
275.63	2596.1	
275.84	4209.3	
276.05	4735.6	
276.26	2478	
276.47	2336.7	
276.68	4035.9	
276.89	4435.2	
277.1	2612.5	
277.31	2119.6	
277.52	4084.3	
277.73	4423.6	
277.94	2150.4	
278.15	2375.6	
278.36	4182.6	
278.57	3859.7	
278.78	2325.1	
278.99	2527.2	
279.2	3837.9	
279.41	3803.1	
279.62	2884.9	
279.83	2252.8	
280.04	4581.3	
280.25	3753.9	
280.46	2836.4	
280.67	2395.4	
280.88	3917.1	
281.09	4296.6	
281.3	2465.8	
281.51	2860.3	
281.72	3890.5	
281.93	3975.8	
282.14	2350.4	
282.35	2497.8	
282.56	4321.9	
282.77	4161.5	
282.98	2391.3	
283.19	2687.6	
283.4	4801.1	
283.61	3933.5	
283.82	2268.5	
284.03	2766.1	
284.24	4197.7	
284.45	4156	
284.66	2892.4	
284.87	2627.5	
285.08	4316.4	
285.29	4367	
285.5	2292.4	
285.71	2355.2	
285.92	4123.2	
286.12	4564.2	
286.33	2782.5	
286.54	2385.9	
286.75	4179.9	
286.96	3936.2	
287.17	2299.9	
287.38	2684.9	
287.59	3972.4	
287.8	4029.7	
288.01	2385.9	
288.22	2538.1	
288.43	3928.7	
288.64	3693.2	
288.85	2690.3	
289.06	2591.4	
289.27	4352.6	
289.48	4265.2	
289.69	2865.8	
289.9	2677.4	
290.11	4410.6	
290.32	3930.1	
290.53	2650.8	
290.74	2473.3	
290.94	4242.7	
291.15	4206.5	
291.36	2323.1	
291.57	2562.7	
291.78	4012	
291.99	3682.2	
292.2	2298.5	
292.41	2511.5	
292.62	4242.7	
292.83	4169	
293.04	2927.9	
293.25	2319	
293.46	3990.8	
293.67	4208.6	
293.88	2276	
294.09	2261.6	
294.29	3858.4	
294.5	4067.9	
294.71	2403.6	
294.92	2319	
295.13	3908.2	
295.34	4595.6	
295.55	2159.2	
295.76	2146.3	
295.97	4206.5	
296.18	4411.3	
296.39	2226.8	
296.6	2363.4	
296.81	3861.8	
297.01	4194.9	
297.22	2367.5	
297.43	2378.4	
297.64	4018.8	
297.85	3794.9	
298.06	2047.3	
298.27	2187.2	
298.48	3918.4	
298.69	3926.6	
298.9	2454.1	
299.11	2297.8	
299.31	3830.4	
299.52	3843.4	
299.73	2613.2	
299.94	2519	
300.15	4102.1	
300.36	3892.5	
300.57	2486.9	
300.78	2510.1	
300.99	3894.6	
301.2	4044.1	
301.4	2394.1	
301.61	2443.9	
301.82	4037.9	
302.03	4218.1	
302.24	2625.5	
302.45	2238.4	
302.66	4151.2	
302.87	4119.1	
303.08	2326.5	
303.29	2854.2	
303.49	3988.1	
303.7	3754.6	
303.91	2194.7	
304.12	2764.8	
304.33	3601	
304.54	4179.2	
304.75	2357.9	
304.96	2324.4	
305.16	4219.5	
305.37	4405.2	
305.58	2152.4	
305.79	2162	
306	4179.9	
306.21	3701.4	
306.42	2296.5	
306.63	3098.6	
306.83	3921.9	
307.04	4089.8	
307.25	2483.5	
307.46	2452.1	
307.67	3722.5	
307.88	4080.9	
308.09	2375.6	
308.29	2299.9	
308.5	4004.5	
308.71	4181.3	
308.92	2429.6	
309.13	2212.5	
309.34	4090.5	
309.55	3936.2	
309.75	2747.7	
309.96	2501.9	
310.17	4207.9	
310.38	3807.9	
310.59	2564.1	
310.8	2461.7	
311.01	4412	
311.21	4076.8	
311.42	2316.9	
311.63	2328.5	
311.84	3964.9	
312.05	3954.6	
312.26	2577	
312.46	2662.4	
312.67	3909.6	
312.88	3644.7	
313.09	2237.1	
313.3	2274.6	
313.51	4346.5	
313.71	4575.2	
313.92	2256.2	
314.13	2324.4	
314.34	4134.8	
314.55	4012	
314.76	2656.2	
314.96	2416.6	
315.17	4202.4	
315.38	3875.4	
315.59	2276	
315.8	2217.3	
316.01	4334.9	
316.21	4401.8	
316.42	2290.3	
316.63	2477.4	
316.84	3958	
317.05	4213.4	
317.26	2566.8	
317.46	2383.8	
317.67	4017.4	
317.88	4147.8	
318.09	2652.8	
318.3	2219.3	
318.5	3984.7	
318.71	4103.4	
318.92	3207.8	
319.13	2576.3	
319.34	4222.9	
319.54	4306.2	
319.75	2190	
319.96	2121	
320.17	4061.1	
320.38	4242.7	
320.58	2123.1	
320.79	2430.3	
321	4266.6	
321.21	4425.7	
321.42	2443.2	
321.62	2138.8	
321.83	3902.1	
322.04	3999.7	
322.25	2409.8	
322.46	2280.1	
322.66	4007.9	
322.87	4233.2	
323.08	2588.6	
323.29	2118.3	
323.5	4543.8	
323.7	3801.7	
323.91	2801.6	
324.12	2579.8	
324.33	4173.8	
324.53	4201.1	
324.74	2481.5	
324.95	2585.2	
325.16	3764.8	
325.37	3937.6	
325.57	2227.5	
325.78	2248.7	
325.99	4205.8	
326.2	3756	
326.4	2923.1	
326.61	2208.4	
326.82	3947.1	
327.03	4008.6	
327.24	2942.9	
327.44	2792.7	
327.65	4126	
327.86	3587.4	
328.07	2562	
328.27	2310.1	
328.48	4401.1	
328.69	3706.1	
328.9	2914.9	
329.1	2290.3	
329.31	3948.5	
329.52	4319.2	
329.73	2377.7	
329.93	2399.5	
330.14	4122.6	
330.35	4064.5	
330.56	3212.6	
330.76	2620.7	
330.97	3920.5	
331.18	3969.6	
331.39	2395.4	
331.59	2101.2	
331.8	4263.9	
332.01	4339.6	
332.22	2349.7	
332.42	2491	
332.63	3997	
332.84	3753.9	
333.05	2474.6	
333.25	2302.6	
333.46	3753.9	
333.67	4001.7	
333.88	2375.6	
334.08	2469.9	
334.29	4815.5	
334.5	4207.9	
334.7	2244.6	
334.91	2882.9	
335.12	3687.7	
335.33	4104.1	
335.53	2473.3	
335.74	3186	
335.95	4023.6	
336.16	3652.9	
336.36	2411.8	
336.57	2647.3	
336.78	3457	
336.98	4207.2	
337.19	2866.5	
337.4	2394.1	
337.61	4452.3	
337.81	3756.7	
338.02	2377.7	
338.23	2716.3	
338.43	4399.7	
338.64	3898.6	
338.85	2307.4	
339.05	2836.4	
339.26	4453.6	
339.47	3697.9	
339.68	2249.4	
339.88	2974.3	
340.09	4254.3	
340.3	4291.9	
340.5	2562	
340.71	2158.6	
340.92	3815.4	
341.13	4296.6	
341.33	2185.2	
341.54	2511.5	
341.75	4135.5	
341.95	3890.5	
342.16	2524.5	
342.37	2646	
342.57	3755.3	
342.78	3915.7	
342.99	2622.1	
343.19	2226.8	
343.4	4194.9	
343.61	4138.3	
343.81	2409.8	
344.02	2207.7	
344.23	4212.7	
344.43	4275.5	
344.64	2658.9	
344.85	2572.2	
345.06	4177.2	
345.26	4226.3	
345.47	2552.5	
345.68	2874	
345.88	3781.9	
346.09	4238.6	
346.3	2604.3	
346.5	2104.6	
346.71	3884.3	
346.92	3887.7	
347.12	2280.8	
347.33	2437.8	
347.54	4206.5	
347.74	4371	
347.95	2491	
348.16	2103.3	
348.36	3914.4	
348.57	3760.8	
348.78	2628.9	
348.98	2599.6	
349.19	3938.2	
349.39	3635.1	
349.6	2226.8	
349.81	2266.4	
350.01	4209.3	
350.22	3811.3	
350.43	2555.9	
350.63	2749.1	
350.84	3871.3	
351.05	3834.5	
351.25	2347.7	
351.46	2245.9	
351.67	4063.9	
351.87	3803.1	
352.08	2390.7	
352.29	2600.2	
352.49	4149.2	
352.7	4186	
352.9	2205.7	
353.11	2628.2	
353.32	4432.5	
353.52	3887	
353.73	2276.7	
353.94	2670.6	
354.14	4143.7	
354.35	3790.8	
354.55	2359.9	
354.76	2501.9	
354.97	4097.3	
355.17	3948.5	
355.38	2297.8	
355.59	2746.3	
355.79	3809.2	
356	4033.8	
356.2	2492.4	
356.41	2249.4	
356.62	3801.7	
356.82	4005.8	
357.03	2657.6	
357.24	2379.1	
357.44	3751.9	
357.65	3895.2	
357.85	2921.8	
358.06	2530.6	
358.27	3716.4	
358.47	3743.7	
358.68	2283.5	
358.88	2626.9	
359.09	4100.7	
359.3	4182	
359.5	2875.3	
359.71	2714.9	
359.91	4278.2	
360.12	3964.9	
360.33	2697.2	
360.53	2906.1	
360.74	3907.5	
360.94	3904.1	
361.15	2742.9	
361.36	2385.2	
361.56	4276.8	
361.77	4106.2	
361.97	2896.5	
362.18	2508.1	
362.38	4308.9	
362.59	3793.5	
362.8	2351.8	
363	2329.9	
363.21	3727.3	
363.41	4063.2	
363.62	2613.2	
363.83	2927.2	
364.03	4306.2	
364.24	4379.2	
364.44	3154.6	
364.65	3015.3	
364.85	4072	
365.06	3925.3	
365.27	2430.9	
365.47	2545.6	
365.68	4332.1	
365.88	4077.5	
366.09	2706	
366.29	2493.7	
366.5	3963.5	
366.71	4255.7	
366.91	3071.3	
367.12	2783.2	
367.32	4629.1	
367.53	4123.2	
367.73	2815.3	
367.94	3192.1	
368.14	4292.5	
368.35	4285	
368.56	2752.5	
368.76	2468.5	
368.97	4093.9	
369.17	4988.2	
369.38	2537.4	
369.58	2650.8	
369.79	3764.8	
369.99	4499.4	
370.2	3155.2	
370.4	2661.7	
370.61	4164.9	
370.82	4771.8	
371.02	2717.7	
371.23	2366.8	
371.43	3930.1	
371.64	4562.2	
371.84	2711.5	
372.05	3122.5	
372.25	4865.3	
372.46	4066.6	
372.66	2673.3	
372.87	2680.8	
373.07	4136.2	
373.28	5122.7	
373.48	3097.9	
373.69	2948.4	
373.9	4149.2	
374.1	4173.8	
374.31	3145	
374.51	2861	
374.72	4419.5	
374.92	4016.1	
375.13	3168.2	
375.33	2859.6	
375.54	4291.2	
375.74	4147.1	
375.95	3019.4	
376.15	3380.5	
376.36	4427	
376.56	4342.4	
376.77	2936.8	
376.97	3140.2	
377.18	4932.9	
377.38	4414.7	
377.59	3185.3	
377.79	2787.3	
378	4380.6	
378.2	4425.7	
378.41	2815.3	
378.61	2734	
378.82	4635.9	
379.02	4290.5	
379.23	2926.5	
379.43	3344.3	
379.64	4819.6	
379.84	4429.1	
380.05	2934.7	
380.25	2827.6	
380.46	4545.1	
380.66	4298.7	
380.87	3396.2	
381.07	3515	
381.28	4763.6	
381.48	4446.8	
381.69	2780.5	
381.89	2879.4	
382.1	4094.6	
382.3	4488.5	
382.51	3341.6	
382.71	3633.8	
382.91	4246.8	
383.12	4541.7	
383.32	2958.6	
383.53	3024.8	
383.73	4400.4	
383.94	4368.3	
384.14	3017.3	
384.35	2653.5	
384.55	4063.9	
384.76	4393.6	
384.96	3011.9	
385.17	3053.5	
385.37	4532.8	
385.58	4003.1	
385.78	3049.4	
385.98	2614.6	
386.19	4223.6	
386.39	4433.9	
386.6	2852.8	
386.8	2914.9	
387.01	4404.5	
387.21	4537.6	
387.42	3131.3	
387.62	3364.1	
387.83	4290.5	
388.03	4226.3	
388.23	3080.1	
388.44	3360	
388.64	4100	
388.85	4009.2	
389.05	3131.3	
389.26	3359.4	
389.46	5193	
389.67	4820.2	
389.87	3190.7	
390.07	3199.6	
390.28	4375.1	
390.48	4184	
390.69	2836.4	
390.89	3073.3	
391.1	4345.8	
391.3	4682.3	
391.5	3592.1	
391.71	3680.2	
391.91	4690.5	
392.12	4863.2	
392.32	3596.9	
392.53	3272.7	
392.73	4308.2	
392.93	4407.2	
393.14	3177.1	
393.34	3407.8	
393.55	4665.3	
393.75	4375.8	
393.95	3077.4	
394.16	3082.9	
394.36	4427	
394.57	4607.9	
394.77	2887.6	
394.98	2972.3	
395.18	4280.9	
395.38	4306.9	
395.59	3443.3	
395.79	2979.1	
396	4486.4	
396.2	4675.5	
396.4	3435.1	
396.61	3412.6	
396.81	4623.6	
397.02	4367.6	
397.22	3583.3	
397.42	3540.9	
397.63	4862.6	
397.83	4485.1	
398.04	3115	
398.24	3319.1	
398.44	4663.9	
398.65	4211.3	
398.85	3093.1	
399.05	3069.9	
399.26	4566.3	
399.46	5238	
399.67	3303.4	
399.87	3212.6	
400.07	4765.6	
400.28	4801.8	
400.48	3247.4	
400.69	3665.9	
400.89	4860.5	
401.09	5139.7	
401.3	3259	
401.5	3665.9	
401.7	5192.3	
401.91	5339.1	
402.11	3474	
402.32	3463.1	
402.52	5085.1	
402.72	4963.6	
402.93	3669.3	
403.13	3076.7	
403.33	5358.9	
403.54	4717.2	
403.74	3418.7	
403.94	3837.9	
404.15	4650.9	
404.35	5240.8	
404.56	3248.1	
404.76	3997.6	
404.96	4922.6	
405.17	4725.3	
405.37	3689.8	
405.57	3509.5	
405.78	4992.9	
405.98	4545.1	
406.18	3368.9	
406.39	3684.3	
406.59	4807.9	
406.79	4763.6	
407	3284.9	
407.2	3318.4	
407.4	5321.3	
407.61	5101.5	
407.81	3373	
408.01	4225.6	
408.22	4331.5	
408.42	5337	
408.62	3874.8	
408.83	3690.4	
409.03	4895.3	
409.23	4992.9	
409.44	3770.3	
409.64	3928	
409.84	5552	
410.05	5517.9	
410.25	4042.7	
410.45	3977.2	
410.66	5480.4	
410.86	6516.6	
411.06	4201.1	
411.27	4104.1	
411.47	6475	
411.67	5537	
411.88	4278.9	
412.08	4400.4	
412.28	5828.5	
412.49	6068.8	
412.69	4354.7	
412.89	4283	
413.09	5953.4	
413.3	6006.7	
413.5	4399.7	
413.7	4308.2	
413.91	5537.7	
414.11	6087.2	
414.31	4386.7	
414.52	4543.8	
414.72	5993	
414.92	5908.4	
415.12	4388.1	
415.33	4654.4	
415.53	5985.5	
415.73	6225.8	
415.94	4814.8	
416.14	4477.5	
416.34	5896.8	
416.55	5657.9	
416.75	5080.3	
416.95	4879.6	
417.15	6411.5	
417.36	6481.8	
417.56	5288.5	
417.76	4870.8	
417.97	6377.4	
418.17	6365.8	
418.37	4714.4	
418.57	4663.9	
418.78	6419.7	
418.98	6111.1	
419.18	5147.9	
419.38	5029.1	
419.59	6145.3	
419.79	5907	
419.99	4758.8	
420.2	4774.5	
420.4	6399.9	
420.6	6290	
420.8	4684.4	
421.01	4584	
421.21	6368.5	
421.41	6215.6	
421.61	4745.1	
421.82	4758.1	
422.02	6279.8	
422.22	6511.9	
422.42	5057.1	
422.63	4864.6	
422.83	6150.1	
423.03	6685.3	
423.23	4888.5	
423.44	4431.1	
423.64	6062	
423.84	5860.6	
424.04	4671.4	
424.25	4492.6	
424.45	6452.5	
424.65	6484.6	
424.85	4384	
425.06	4664.6	
425.26	6756.2	
425.46	6053.8	
425.66	4777.9	
425.87	4713.1	
426.07	6440.2	
426.27	6183.5	
426.47	4799.8	
426.67	4450.2	
426.88	6596.5	
427.08	6311.8	
427.28	4932.9	
427.48	4413.4	
427.69	5820.3	
427.89	6107	
428.09	4763.6	
428.29	4394.3	
428.5	6241.5	
428.7	6170.5	
428.9	4497.3	
429.1	4556.7	
429.3	6294.1	
429.51	6199.9	
429.71	4586.8	
429.91	4957.4	
430.11	6500.9	
430.31	6507.1	
430.52	4818.2	
430.72	4888.5	
430.92	6610.8	
431.12	6397.2	
431.32	4671.4	
431.53	4885.1	
431.73	5985.5	
431.93	6632.7	
432.13	4632.5	
432.33	4661.2	
432.54	6290.7	
432.74	6246.3	
432.94	4616.1	
433.14	5082.4	
433.34	6697.5	
433.55	6454.5	
433.75	5132.9	
433.95	5864.7	
434.15	6604.7	
434.35	6354.2	
434.56	4713.1	
434.76	4672.8	
434.96	6376.7	
435.16	6689.3	
435.36	4821.6	
435.56	5315.2	
435.77	6507.8	
435.97	6508.4	
436.17	5610.8	
436.37	5309.7	
436.57	6367.1	
436.78	6412.9	
436.98	5294	
437.18	5607.3	
437.38	6613.6	
437.58	6374	
437.78	5628.5	
437.99	5057.1	
438.19	6804	
438.39	7432.8	
438.59	5173.9	
438.79	4848.9	
438.99	7131	
439.2	6476.4	
439.4	4725.3	
439.6	4837.3	
439.8	6398.5	
440	7088	
440.2	5287.9	
440.4	5248.3	
440.61	6900.3	
440.81	7045	
441.01	5051	
441.21	5551.4	
441.41	7309.2	
441.61	6990.4	
441.81	5751.4	
442.02	6185.5	
442.22	7534.5	
442.42	7272.3	
442.62	5311.1	
442.82	5286.5	
443.02	7475.1	
443.22	7037.5	
443.43	5535.7	
443.63	5254.4	
443.83	6825.9	
444.03	6890.7	
444.23	5873.6	
444.43	5756.8	
444.63	7188.4	
444.83	7570	
445.04	5569.8	
445.24	6029.9	
445.44	7333.1	
445.64	7303.1	
445.84	5739.8	
446.04	5786.2	
446.24	7034.1	
446.44	7363.8	
446.65	5412.8	
446.85	5654.4	
447.05	7066.9	
447.25	7286	
447.45	5612.1	
447.65	5322.7	
447.85	7186.3	
448.05	6684.6	
448.25	5737	
448.46	5716.6	
448.66	6989.7	
448.86	6901.7	
449.06	5382.1	
449.26	5714.5	
449.46	7263.5	
449.66	6930.3	
449.86	5609.4	
450.06	5566.4	
450.26	6926.2	
450.47	7305.1	
450.67	5756.8	
450.87	5892.7	
451.07	7546.8	
451.27	7178.8	
451.47	5432.6	
451.67	5910.4	
451.87	7221.8	
452.07	7542	
452.27	5699.5	
452.47	5599.8	
452.67	7324.2	
452.88	7385.7	
453.08	5264	
453.28	6128.9	
453.48	8023.3	
453.68	7159.7	
453.88	5716.6	
454.08	5788.2	
454.28	7595.2	
454.48	7387.7	
454.68	6023.1	
454.88	6116.6	
455.08	7632.1	
455.28	7518.1	
455.48	5571.2	
455.68	6045.6	
455.89	7841.7	
456.09	7762.5	
456.29	5902.9	
456.49	6022.4	
456.69	7955.7	
456.89	7402	
457.09	6212.2	
457.29	6514.6	
457.49	7754.3	
457.69	7835.5	
457.89	6353.5	
458.09	5976	
458.29	7831.4	
458.49	8206.9	
458.69	6588.3	
458.89	6290.7	
459.09	8412.4	
459.29	8443.8	
459.49	6393.8	
459.69	6750.8	
459.9	8125	
460.1	8082	
460.3	6268.1	
460.5	6167.8	
460.7	8318.8	
460.9	7886.7	
461.1	6180.1	
461.3	6754.9	
461.5	8650.6	
461.7	8402.1	
461.9	6626.5	
462.1	6683.2	
462.3	8359.1	
462.5	8473.1	
462.7	6650.4	
462.9	6720.8	
463.1	9057.5	
463.3	9030.9	
463.5	6942.6	
463.7	7486.7	
463.9	8689.5	
464.1	8795.3	
464.3	7202	
464.5	7208.8	
464.7	8866.3	
464.9	9072.5	
465.1	7744.1	
465.3	7473.7	
465.5	9116.9	
465.7	9345.6	
465.9	7739.3	
466.1	7423.9	
466.3	9172.2	
466.5	9025.4	
466.7	8097	
466.9	7473	
467.1	9350.3	
467.3	9618.6	
467.5	8168.7	
467.7	7613.7	
467.9	9802.9	
468.1	10126	
468.3	7827.3	
468.5	8160.5	
468.7	9257.5	
468.9	9278.7	
469.1	7922.2	
469.3	8398	
469.5	10417	
469.7	9323	
469.9	8079.2	
470.1	7914.7	
470.3	9723.8	
470.5	9453.4	
470.7	8436.9	
470.9	7836.2	
471.1	9440.5	
471.3	9508.7	
471.5	7873.1	
471.69	8523	
471.89	9493.7	
472.09	8962.6	
472.29	8176.9	
472.49	8126.3	
472.69	9267.7	
472.89	9446.6	
473.09	7813.7	
473.29	7686.7	
473.49	9356.5	
473.69	9028.8	
473.89	8157.1	
474.09	7799.3	
474.29	9884.2	
474.49	9559.9	
474.69	8122.2	
474.89	7724.3	
475.09	9255.5	
475.29	9311.4	
475.49	7585	
475.69	7813	
475.88	9793.4	
476.08	9392	
476.28	7594.6	
476.48	7686	
476.68	9716.9	
476.88	9316.2	
477.08	7672.4	
477.28	7688.1	
477.48	9228.1	
477.68	9220.6	
477.88	7466.9	
478.08	7462.1	
478.28	9655.5	
478.48	9181	
478.67	7757.7	
478.87	7248.4	
479.07	9470.5	
479.27	9280.7	
479.47	7836.9	
479.67	7758.4	
479.87	9533.3	
480.07	9794.1	
480.27	7563.1	
480.47	8048.5	
480.67	9237	
480.87	9711.5	
481.06	7645.8	
481.26	8041	
481.46	9458.9	
481.66	9293.7	
481.86	7985.7	
482.06	8215.1	
482.26	9360.6	
482.46	9528.5	
482.66	7905.2	
482.86	7621.9	
483.05	9723.1	
483.25	9112.8	
483.45	8940.1	
483.65	7854	
483.85	9110	
484.05	9386.5	
484.25	8072.4	
484.45	8305.2	
484.65	9456.2	
484.84	9906.7	
485.04	7966.6	
485.24	7949.5	
485.44	10239	
485.64	9355.8	
485.84	7855.3	
486.04	8320.2	
486.24	9546.3	
486.44	9722.4	
486.63	7763.2	
486.83	8302.5	
487.03	9684.8	
487.23	9863	
487.43	7925.6	
487.63	8856.8	
487.83	9899.9	
488.02	9679.4	
488.22	8546.9	
488.42	8779.6	
488.62	10314	
488.82	9704	
489.02	8372.1	
489.22	8338.6	
489.41	9874.6	
489.61	10331	
489.81	8317.5	
490.01	8319.5	
490.21	10320	
490.41	10707	
490.61	8402.1	
490.8	8381	
491	10207	
491.2	9908.1	
491.4	8692.9	
491.6	8379.6	
491.8	10131	
491.99	10006	
492.19	8160.5	
492.39	8281.3	
492.59	10160	
492.79	10417	
492.99	8648.6	
493.18	8290.9	
493.38	10479	
493.58	10901	
493.78	8684.1	
493.98	8521.6	
494.18	10201	
494.37	10099	
494.57	9150.3	
494.77	9054.8	
494.97	10815	
495.17	11052	
495.37	9027.4	
495.56	9230.9	
495.76	10946	
495.96	11162	
496.16	9835	
496.36	9418.6	
496.55	11336	
496.75	10992	
496.95	9626.1	
497.15	9688.9	
497.35	11374	
497.54	11389	
497.74	9605	
497.94	10350	
498.14	11787	
498.34	11450	
498.53	9480.7	
498.73	9790	
498.93	11115	
499.13	11418	
499.33	9830.2	
499.52	9967.5	
499.72	11708	
499.92	11543	
500.12	9880.1	
500.32	9914.2	
500.51	11589	
500.71	11603	
500.91	10239	
501.11	10155	
501.31	11837	
501.5	12002	
501.7	10653	
501.9	9996.1	
502.1	11694	
502.29	11892	
502.49	10408	
502.69	10344	
502.89	11752	
503.09	11831	
503.28	9727.9	
503.48	9927.9	
503.68	11505	
503.88	11354	
504.07	10032	
504.27	9832.3	
504.47	11559	
504.67	11582	
504.86	10088	
505.06	9755.2	
505.26	11444	
505.46	11850	
505.65	9799.5	
505.85	9789.3	
506.05	11275	
506.25	11499	
506.44	9456.2	
506.64	9663.7	
506.84	10946	
507.04	11318	
507.23	9432.9	
507.43	9420.7	
507.63	11704	
507.83	10810	
508.02	9550.4	
508.22	9311.4	
508.42	11921	
508.62	10836	
508.81	9372.9	
509.01	9811.8	
509.21	10905	
509.4	11140	
509.6	9601.6	
509.8	9303.9	
510	11033	
510.19	11329	
510.39	9172.9	
510.59	9366	
510.79	10917	
510.98	11561	
511.18	9527.8	
511.38	9478	
511.57	11441	
511.77	11120	
511.97	9751.1	
512.17	9351.7	
512.36	11402	
512.56	11257	
512.76	9358.5	
512.95	9134.6	
513.15	11467	
513.35	10676	
513.55	9605	
513.74	9237	
513.94	11290	
514.14	11092	
514.33	9780.4	
514.53	9605.7	
514.73	11082	
514.92	11005	
515.12	9400.9	
515.32	9370.8	
515.51	11254	
515.71	11110	
515.91	10122	
516.11	9438.4	
516.3	12056	
516.5	11297	
516.7	9798.2	
516.89	9845.3	
517.09	11131	
517.29	11318	
517.48	10020	
517.68	9596.1	
517.88	10732	
518.07	11475	
518.27	9947.7	
518.47	9415.2	
518.66	11727	
518.86	11060	
519.06	9371.5	
519.25	9613.8	
519.45	11121	
519.65	11879	
519.84	9899.9	
520.04	10155	
520.24	12049	
520.43	11531	
520.63	9927.9	
520.83	9765.4	
521.02	11249	
521.22	11352	
521.42	9809.1	
521.61	10038	
521.81	11071	
522.01	11417	
522.2	9868.5	
522.4	9663.7	
522.6	11615	
522.79	10785	
522.99	9672.6	
523.18	9447.3	
523.38	11488	
523.58	11532	
523.77	10468	
523.97	9610.4	
524.17	12482	
524.36	12293	
524.56	10527	
524.76	10277	
524.95	11930	
525.15	11727	
525.34	10337	
525.54	10516	
525.74	12377	
525.93	11904	
526.13	11131	
526.33	10694	
526.52	12637	
526.72	12316	
526.91	11320	
527.11	11026	
527.31	12638	
527.5	12924	
527.7	11061	
527.89	10659	
528.09	12355	
528.29	12598	
528.48	11168	
528.68	10925	
528.87	12872	
529.07	12789	
529.27	11118	
529.46	10895	
529.66	12910	
529.85	13022	
530.05	10943	
530.25	11303	
530.44	13642	
530.64	12766	
530.83	11245	
531.03	11322	
531.23	13258	
531.42	12870	
531.62	11454	
531.81	11179	
532.01	12792	
532.21	13291	
532.4	11322	
532.6	11471	
532.79	13634	
532.99	13355	
533.18	11787	
533.38	12137	
533.58	13434	
533.77	13568	
533.97	12005	
534.16	12233	
534.36	13949	
534.55	13517	
534.75	12340	
534.95	11966	
535.14	14061	
535.34	13515	
535.53	11873	
535.73	12595	
535.92	14221	
536.12	13382	
536.31	11938	
536.51	12379	
536.71	13833	
536.9	13421	
537.1	11883	
537.29	12009	
537.49	13885	
537.68	13409	
537.88	12122	
538.07	11703	
538.27	13650	
538.46	14090	
538.66	11815	
538.86	12138	
539.05	13723	
539.25	13917	
539.44	12301	
539.64	11938	
539.83	13691	
540.03	14085	
540.22	11964	
540.42	11847	
540.61	13725	
540.81	13739	
541	12007	
541.2	12380	
541.39	13293	
541.59	13557	
541.78	12325	
541.98	11699	
542.18	13239	
542.37	13198	
542.57	11916	
542.76	12215	
542.96	13120	
543.15	13406	
543.35	11817	
543.54	11432	
543.74	12553	
543.93	13282	
544.13	11581	
544.32	12007	
544.52	13238	
544.71	12807	
544.91	10957	
545.1	11548	
545.3	12953	
545.49	13011	
545.69	11032	
545.88	11304	
546.08	13716	
546.27	13241	
546.47	11490	
546.66	11151	
546.86	13299	
547.05	13166	
547.24	11160	
547.44	11266	
547.63	12721	
547.83	13021	
548.02	11400	
548.22	11379	
548.41	12603	
548.61	13187	
548.8	11144	
549	11051	
549.19	12836	
549.39	13013	
549.58	10950	
549.78	11211	
549.97	12934	
550.17	12540	
550.36	11287	
550.55	11892	
550.75	12577	
550.94	13030	
551.14	10970	
551.33	10950	
551.53	12257	
551.72	12683	
551.92	11000	
552.11	10939	
552.31	12825	
552.5	12605	
552.69	11746	
552.89	10720	
553.08	12795	
553.28	12456	
553.47	10944	
553.67	11281	
553.86	12649	
554.06	12099	
554.25	10555	
554.44	10775	
554.64	13120	
554.83	12927	
555.03	10664	
555.22	10888	
555.42	12773	
555.61	12564	
555.8	10709	
556	10735	
556.19	12170	
556.39	12278	
556.58	10689	
556.78	10659	
556.97	12561	
557.16	12271	
557.36	11182	
557.55	10651	
557.75	11887	
557.94	12925	
558.13	10541	
558.33	10385	
558.52	12667	
558.72	11780	
558.91	10449	
559.1	10515	
559.3	11869	
559.49	11736	
559.69	10386	
559.88	10558	
560.07	12211	
560.27	12426	
560.46	10833	
560.66	10714	
560.85	12123	
561.04	11636	
561.24	10385	
561.43	10318	
561.63	11790	
561.82	12046	
562.01	10817	
562.21	10476	
562.4	12095	
562.59	12542	
562.79	10462	
562.98	10277	
563.18	12136	
563.37	12659	
563.56	10599	
563.76	10322	
563.95	11891	
564.14	11938	
564.34	10658	
564.53	10402	
564.73	12197	
564.92	12203	
565.11	10604	
565.31	10452	
565.5	12584	
565.69	11993	
565.89	10628	
566.08	10676	
566.27	12309	
566.47	12646	
566.66	10997	
566.85	10488	
567.05	12417	
567.24	12182	
567.44	10464	
567.63	11041	
567.82	12469	
568.02	12202	
568.21	10648	
568.4	10720	
568.6	12338	
568.79	12156	
568.98	10621	
569.18	10575	
569.37	12329	
569.56	13110	
569.76	10863	
569.95	11303	
570.14	12428	
570.34	12336	
570.53	10710	
570.72	10537	
570.91	12754	
571.11	12361	
571.3	10811	
571.49	11266	
571.69	12579	
571.88	12107	
572.07	10892	
572.27	11012	
572.46	12133	
572.65	12538	
572.85	10817	
573.04	10958	
573.23	12816	
573.43	12471	
573.62	10722	
573.81	10957	
574	12638	
574.2	12317	
574.39	10993	
574.58	10924	
574.78	12951	
574.97	12712	
575.16	11354	
575.36	11226	
575.55	13136	
575.74	13028	
575.93	10835	
576.13	11540	
576.32	12661	
576.51	13016	
576.71	11218	
576.9	11733	
577.09	13265	
577.28	12843	
577.48	11381	
577.67	11032	
577.86	12960	
578.05	13033	
578.25	11271	
578.44	11233	
578.63	12880	
578.83	13477	
579.02	11017	
579.21	11829	
579.4	12991	
579.6	12999	
579.79	11229	
579.98	12387	
580.17	13134	
580.37	13348	
580.56	11155	
580.75	11516	
580.94	13080	
581.14	13504	
581.33	11784	
581.52	11296	
581.71	13018	
581.91	13502	
582.1	11234	
582.29	11379	
582.48	12919	
582.68	12997	
582.87	11566	
583.06	11475	
583.25	13372	
583.45	12914	
583.64	11843	
583.83	12137	
584.02	13160	
584.21	13377	
584.41	11918	
584.6	11709	
584.79	13201	
584.98	13287	
585.18	11374	
585.37	11295	
585.56	12998	
585.75	13388	
585.94	11456	
586.14	11820	
586.33	13337	
586.52	13137	
586.71	11634	
586.91	11394	
587.1	12661	
587.29	13148	
587.48	11241	
587.67	11154	
587.87	13013	
588.06	12705	
588.25	11646	
588.44	11365	
588.63	12652	
588.83	12846	
589.02	10967	
589.21	10740	
589.4	12452	
589.59	12411	
589.78	10256	
589.98	10476	
590.17	11816	
590.36	11798	
590.55	9826.2	
590.74	9935.4	
590.94	12098	
591.13	11396	
591.32	9799.5	
591.51	9430.9	
591.7	11486	
591.89	11398	
592.09	9434.3	
592.28	9656.2	
592.47	10787	
592.66	12041	
592.85	9608.4	
593.05	9744.2	
593.24	11316	
593.43	11889	
593.62	9959.3	
593.81	9973.6	
594	11573	
594.19	11561	
594.39	9752.4	
594.58	9693.7	
594.77	11668	
594.96	11792	
595.15	9757.2	
595.34	9894.4	
595.54	11312	
595.73	11027	
595.92	9347.6	
596.11	9806.4	
596.3	11701	
596.49	11103	
596.68	9652.1	
596.88	9797.5	
597.07	11472	
597.26	10993	
597.45	9402.9	
597.64	9923.8	
597.83	11161	
598.02	11363	
598.22	9516.9	
598.41	9760.6	
598.6	11221	
598.79	11017	
598.98	9550.4	
599.17	9994.1	
599.36	11475	
599.55	11667	
599.74	10363	
599.94	10244	
600.13	11462	
600.32	10959	
600.51	9327.8	
600.7	9506	
600.89	11799	
601.08	11809	
601.27	9418.6	
601.47	9812.5	
601.66	11527	
601.85	11604	
602.04	9782.5	
602.23	9688.9	
602.42	11058	
602.61	11344	
602.8	9589.3	
602.99	9435	
603.18	11267	
603.37	11217	
603.57	9697.8	
603.76	9970.2	
603.95	11666	
604.14	11363	
604.33	9660.3	
604.52	9644.6	
604.71	11299	
604.9	11014	
605.09	9867.1	
605.28	9836.4	
605.47	11624	
605.66	11244	
605.86	9825.5	
606.05	9541.5	
606.24	11639	
606.43	10765	
606.62	9793.4	
606.81	9889.6	
607	11445	
607.19	10971	
607.38	9370.8	
607.57	9421.3	
607.76	10950	
607.95	10490	
608.14	9756.5	
608.33	9784.5	
608.52	10879	
608.72	11417	
608.91	9232.9	
609.1	9173.5	
609.29	11026	
609.48	10686	
609.67	9531.2	
609.86	9167.4	
610.05	10646	
610.24	10722	
610.43	9287.5	
610.62	8930.5	
610.81	11409	
611	11254	
611.19	9116.9	
611.38	9428.2	
611.57	11080	
611.76	11432	
611.95	9067.7	
612.14	8953.7	
612.33	10737	
612.52	10508	
612.71	9209.7	
612.9	8985.1	
613.09	10391	
613.28	11548	
613.47	9175.6	
613.66	9553.8	
613.85	10899	
614.04	10617	
614.24	9099.8	
614.43	8802.2	
614.62	11012	
614.81	10992	
615	9308.7	
615.19	9297.8	
615.38	10634	
615.57	10885	
615.76	9275.9	
615.95	9704.6	
616.14	11129	
616.33	10867	
616.52	9579	
616.71	9525.8	
616.9	10940	
617.09	10889	
617.28	9306	
617.47	9638.4	
617.66	10672	
617.85	10571	
618.04	9634.3	
618.22	9437	
618.41	10683	
618.6	11450	
618.79	9423.4	
618.98	9336	
619.17	11580	
619.36	10656	
619.55	9635.7	
619.74	9519	
619.93	11241	
620.12	11001	
620.31	9867.1	
620.5	9998.9	
620.69	11563	
620.88	11868	
621.07	10255	
621.26	9980.4	
621.45	11551	
621.64	11374	
621.83	9959.3	
622.02	9582.4	
622.21	11499	
622.4	11428	
622.59	10338	
622.78	10312	
622.97	11327	
623.16	11669	
623.35	10152	
623.54	9525.1	
623.72	11495	
623.91	11390	
624.1	10294	
624.29	9742.2	
624.48	11972	
624.67	11721	
624.86	10180	
625.05	9689.6	
625.24	12172	
625.43	11344	
625.62	10811	
625.81	9882.8	
626	11650	
626.19	11572	
626.38	10101	
626.56	9895.8	
626.75	11234	
626.94	11771	
627.13	10137	
627.32	9513.5	
627.51	11733	
627.7	11970	
627.89	9643.2	
628.08	10092	
628.27	11157	
628.46	11308	
628.65	9657.5	
628.83	9454.8	
629.02	11475	
629.21	10974	
629.4	9816.6	
629.59	9910.1	
629.78	11202	
629.97	11508	
630.16	9982.5	
630.35	9731.3	
630.54	11938	
630.72	11779	
630.91	9794.1	
631.1	9883.5	
631.29	11249	
631.48	11416	
631.67	10084	
631.86	9659.6	
632.05	11459	
632.24	11435	
632.42	9614.5	
632.61	9868.5	
632.8	11164	
632.99	10998	
633.18	10020	
633.37	10032	
633.56	11525	
633.75	11426	
633.93	9902.6	
634.12	9871.9	
634.31	11880	
634.5	11715	
634.69	9825.5	
634.88	9970.2	
635.07	11512	
635.25	11630	
635.44	10291	
635.63	10296	
635.82	11364	
636.01	10430	
636.2	10086	
636.39	10008	
636.57	11870	
636.76	11312	
636.95	9651.4	
637.14	10181	
637.33	11645	
637.52	11849	
637.7	9553.8	
637.89	10075	
638.08	11395	
638.27	11890	
638.46	10088	
638.65	10107	
638.83	11833	
639.02	11087	
639.21	9940.2	
639.4	10118	
639.59	11284	
639.78	11120	
639.96	9492.3	
640.15	9564	
640.34	11198	
640.53	10952	
640.72	9353.8	
640.91	9379.7	
641.09	10804	
641.28	11397	
641.47	9557.9	
641.66	9686.9	
641.85	11041	
642.03	11100	
642.22	9571.5	
642.41	9448.6	
642.6	10756	
642.79	10508	
642.97	9267.1	
643.16	9418.6	
643.35	10776	
643.54	10525	
643.73	9178.3	
643.91	9373.6	
644.1	10459	
644.29	10844	
644.48	9018.6	
644.67	9045.2	
644.85	10051	
645.04	10705	
645.23	8713.4	
645.42	9046.6	
645.6	10219	
645.79	10712	
645.98	8769.4	
646.17	8142.7	
646.36	9711.5	
646.54	9951.1	
646.73	8794	
646.92	8337.3	
647.11	9737.4	
647.29	10152	
647.48	8232.8	
647.67	8084	
647.86	10307	
648.05	10131	
648.23	8295	
648.42	8819.2	
648.61	10051	
648.8	9873.9	
648.98	8159.8	
649.17	8224.6	
649.36	9652.8	
649.55	9455.5	
649.73	8091.5	
649.92	8527.7	
650.11	9656.9	
650.3	9727.2	
650.48	8153.6	
650.67	8133.2	
650.86	9798.2	
651.05	9243.2	
651.23	8165.3	
651.42	8032.1	
651.61	9516.2	
651.79	9414.5	
651.98	8135.2	
652.17	7918.1	
652.36	9607.7	
652.54	9170.8	
652.73	8117.5	
652.92	7901.7	
653.11	9659.6	
653.29	9731.9	
653.48	7675.8	
653.67	8011	
653.85	9385.2	
654.04	9893.1	
654.23	7931.1	
654.42	7771.4	
654.6	9144.9	
654.79	9230.9	
654.98	7456	
655.16	7625.3	
655.35	8841.8	
655.54	8497	
655.73	7250.5	
655.91	7116.7	
656.1	8927.8	
656.29	8483.4	
656.47	7027.9	
656.66	7831.4	
656.85	8757.8	
657.03	8703.9	
657.22	7352.9	
657.41	7486	
657.59	8788.5	
657.78	8896.4	
657.97	7413.6	
658.16	7710.6	
658.34	9328.5	
658.53	9503.9	
658.72	8145.5	
658.9	8322.3	
659.09	9179.7	
659.28	9196.1	
659.46	7594.6	
659.65	7598	
659.84	9043.1	
660.02	9404.3	
660.21	7610.9	
660.4	7527.7	
660.58	9424.1	
660.77	9012.4	
660.96	7806.2	
661.14	7419.8	
661.33	9742.2	
661.52	9671.2	
661.7	7379.5	
661.89	8753.7	
662.08	8958.5	
662.26	8607.6	
662.45	7502.4	
662.64	7530.4	
662.82	9396.1	
663.01	8846.5	
663.2	7500.3	
663.38	7829.4	
663.57	9142.1	
663.75	9065.7	
663.94	7617.8	
664.13	8127	
664.31	8842.4	
664.5	9136.7	
664.69	7802.8	
664.87	7870.3	
665.06	8705.2	
665.25	9027.4	
665.43	8023.9	
665.62	7914.7	
665.8	9063.6	
665.99	8837	
666.18	7679.9	
666.36	7553.6	
666.55	9118.9	
666.74	9015.2	
666.92	7537.2	
667.11	8083.3	
667.29	8994.7	
667.48	9060.9	
667.67	7890.8	
667.85	7518.1	
668.04	8755.7	
668.22	8774.2	
668.41	7578.2	
668.6	7766.6	
668.78	8748.9	
668.97	8884.1	
669.15	7671	
669.34	7146.7	
669.53	8784.4	
669.71	8860.9	
669.9	7249.1	
670.08	7413	
670.27	8598.1	
670.46	8944.2	
670.64	7669	
670.83	7675.1	
671.01	8477.2	
671.2	8766	
671.38	7291.5	
671.57	7218.4	
671.76	9222.7	
671.94	9430.9	
672.13	7171.3	
672.31	7638.9	
672.5	9086.8	
672.69	8760.5	
672.87	7131.7	
673.06	7382.2	
673.24	8970.8	
673.43	8714.8	
673.61	7557	
673.8	7313.3	
673.98	8893	
674.17	8987.9	
674.36	7692.2	
674.54	7572	
674.73	8458.1	
674.91	9027.4	
675.1	7411.6	
675.28	7126.2	
675.47	8787.2	
675.65	8991.3	
675.84	7427.3	
676.03	7509.9	
676.21	8634.9	
676.4	8285.4	
676.58	7686.7	
676.77	7613.7	
676.95	9411.8	
677.14	8652.7	
677.32	7109.9	
677.51	7197.9	
677.69	9037.7	
677.88	8510.7	
678.06	7178.8	
678.25	7260	
678.44	8801.5	
678.62	8586.5	
678.81	7075	
678.99	7449.8	
679.18	9129.2	
679.36	8936.7	
679.55	7376.1	
679.73	7479.2	
679.92	8826.1	
680.1	8624	
680.29	7834.2	
680.47	7262.8	
680.66	8658.1	
680.84	8862.9	
681.03	7013.6	
681.21	7472.4	
681.4	8591.2	
681.58	8497	
681.77	7206.1	
681.95	7163.8	
682.14	8980.3	
682.32	8954.4	
682.51	7535.8	
682.69	6862.7	
682.88	8570.1	
683.06	8526.4	
683.25	7411.6	
683.43	7531.7	
683.62	8723.7	
683.8	8812.4	
683.99	7516	
684.17	7233.4	
684.36	9033.6	
684.54	8353.7	
684.73	6761	
684.91	6723.5	
685.1	8441	
685.28	7964.6	
685.46	6744.6	
685.65	6635.4	
685.83	8085.4	
686.02	7777.5	
686.2	6304.3	
686.39	6324.1	
686.57	7419.1	
686.76	8170.7	
686.94	6369.2	
687.13	6393.1	
687.31	7929.1	
687.5	7924.3	
687.68	6199.2	
687.86	6778.8	
688.05	8716.8	
688.23	7800	
688.42	6896.9	
688.6	6599.9	
688.79	7815.7	
688.97	7981.6	
689.16	6779.5	
689.34	6313.9	
689.52	8288.1	
689.71	8518.2	
689.89	6995.9	
690.08	6653.2	
690.26	8244.4	
690.45	7883.3	
690.63	7041.6	
690.81	6812.9	
691	8139.3	
691.18	7995.3	
691.37	6855.2	
691.55	7755.7	
691.74	7928.4	
691.92	8825.4	
692.1	6735.8	
692.29	6475.7	
692.47	8074.5	
692.66	7759.8	
692.84	6550.8	
693.02	6740.5	
693.21	7757	
693.39	8006.2	
693.58	6935.1	
693.76	6573.3	
693.94	8447.9	
694.13	8560.5	
694.31	6840.9	
694.5	7253.9	
694.68	7963.2	
694.86	8492.9	
695.05	6995.2	
695.23	7243.7	
695.42	8525.7	
695.6	9497.1	
695.78	7423.2	
695.97	6972	
696.15	8809	
696.34	8384.4	
696.52	6978.8	
696.7	7273.7	
696.89	8447.2	
697.07	8197.3	
697.25	7049.1	
697.44	7737.9	
697.62	8402.8	
697.81	8310	
697.99	6957.6	
698.17	7059.3	
698.36	8144.8	
698.54	8355.7	
698.72	6967.2	
698.91	6564.4	
699.09	8169.3	
699.28	7976.2	
699.46	6914.6	
699.64	6739.9	
699.83	7995.3	
700.01	8340	
700.19	7133.8	
700.38	6524.8	
700.56	8233.5	
700.74	8205.5	
700.93	6607.4	
701.11	7085.3	
701.29	8383.7	
701.48	8951.7	
701.66	6878.4	
701.84	6912.6	
702.03	8267.6	
702.21	8768.7	
702.39	6700.3	
702.58	7020.4	
702.76	8644.5	
702.94	8560.5	
703.13	6705	
703.31	7828.7	
703.49	8350.3	
703.68	8684.8	
703.86	6797.2	
704.04	7253.2	
704.23	8449.9	
704.41	8610.3	
704.59	6929.6	
704.78	7271	
704.96	9312.8	
705.14	8560.5	
705.33	6823.1	
705.51	7115.3	
705.69	8220.5	
705.87	8620.6	
706.06	7204.8	
706.24	6842.3	
706.42	8501.8	
706.61	8572.1	
706.79	7320.1	
706.97	6692.8	
707.16	8132.5	
707.34	8434.9	
707.52	7183.6	
707.7	6879.1	
707.89	7909.9	
708.07	8075.1	
708.25	7301.7	
708.44	7354.3	
708.62	8105.2	
708.8	8661.5	
708.98	7370	
709.17	6912.6	
709.35	8225.3	
709.53	8368.7	
709.72	6709.1	
709.9	6759.7	
710.08	8524.3	
710.26	8539.3	
710.45	7324.9	
710.63	6876.4	
710.81	8100.4	
710.99	8297.7	
711.18	7095.5	
711.36	6789	
711.54	8197.3	
711.72	8383.7	
711.91	6767.9	
712.09	6543.9	
712.27	8131.1	
712.45	8415.8	
712.64	6688.7	
712.82	6252.4	
713	7721.5	
713.18	7608.2	
713.37	6221.7	
713.55	6612.9	
713.73	7836.9	
713.91	7242.3	
714.1	6020.3	
714.28	5634	
714.46	7410.2	
714.64	6868.2	
714.83	5176.6	
715.01	5281	
715.19	6683.2	
715.37	6189.6	
715.55	4961.5	
715.74	4988.2	
715.92	6680.5	
716.1	5678.3	
716.28	5545.2	
716.47	5005.9	
716.65	6202.6	
716.83	5996.5	
717.01	4817.5	
717.19	4769.7	
717.38	6972.7	
717.56	5961	
717.74	4972.5	
717.92	4612	
718.1	6542.6	
718.29	6117.3	
718.47	4577.9	
718.65	4897.4	
718.83	6818.4	
719.01	6753.5	
719.2	4853.7	
719.38	5365	
719.56	6797.2	
719.74	7551.5	
719.92	5356.1	
720.11	5773.9	
720.29	6900.3	
720.47	6445	
720.65	4912.4	
720.83	5292.6	
721.02	6346.7	
721.2	6296.1	
721.38	5053	
721.56	4703.5	
721.74	5869.5	
721.92	5804.6	
722.11	5064.6	
722.29	5031.2	
722.47	6448.4	
722.65	6095.4	
722.83	4601.1	
723.01	4861.9	
723.2	5854.5	
723.38	6184.9	
723.56	4345.1	
723.74	4840	
723.92	5558.2	
724.1	6303.6	
724.29	4586.8	
724.47	5011.4	
724.65	5937.7	
724.83	5800.5	
725.01	4756.7	
725.19	4757.4	
725.37	5773.9	
725.56	5762.3	
725.74	4474.1	
725.92	4482.3	
726.1	5775.3	
726.28	5967.8	
726.46	4626.4	
726.64	4567	
726.83	6047.7	
727.01	5964.4	
727.19	4431.1	
727.37	4737	
727.55	6143.2	
727.73	6353.5	
727.91	4348.5	
728.09	4300.7	
728.28	5987.6	
728.46	6255.9	
728.64	4747.9	
728.82	4698	
729	6666.1	
729.18	6552.1	
729.36	4502.8	
729.54	5404.6	
729.72	6962.4	
729.91	6215.6	
730.09	5518.6	
730.27	4998.4	
730.45	6247.7	
730.63	6445.6	
730.81	5277.6	
730.99	4879.6	
731.17	6929	
731.35	6145.3	
731.53	5005.9	
731.71	4985.4	
731.9	6692.1	
732.08	6562.4	
732.26	4913.1	
732.44	4876.9	
732.62	6657.9	
732.8	6500.9	
732.98	5111.7	
733.16	4714.4	
733.34	6498.9	
733.52	5736.4	
733.7	4840	
733.88	4851	
734.07	6383.5	
734.25	6285.9	
734.43	4663.2	
734.61	5236	
734.79	6864.8	
734.97	6111.1	
735.15	4814.1	
735.33	4861.9	
735.51	6321.4	
735.69	6197.8	
735.87	5301.5	
736.05	4873.5	
736.23	6220.4	
736.41	6026.5	
736.59	4938.3	
736.77	4833.9	
736.95	6496.2	
737.13	6094.1	
737.32	4620.9	
737.5	4798.4	
737.68	6754.2	
737.86	6071.5	
738.04	4616.1	
738.22	5322	
738.4	6008.1	
738.58	6131.6	
738.76	4782	
738.94	4392.2	
739.12	6099.5	
739.3	6036.7	
739.48	4969.7	
739.66	4876.2	
739.84	6116.6	
740.02	6038.8	
740.2	4446.8	
740.38	4481.6	
740.56	6307.1	
740.74	5543.9	
740.92	4868	
741.1	4646.2	
741.28	6014.9	
741.46	5858.6	
741.64	4592.2	
741.82	4739	
742	5985.5	
742.18	5870.8	
742.36	4638	
742.54	4493.9	
742.72	6216.3	
742.9	5494.7	
743.08	4668.7	
743.26	4111.6	
743.44	6098.9	
743.62	6087.9	
743.8	4746.5	
743.98	4345.1	
744.16	5915.9	
744.34	5762.3	
744.52	4606.6	
744.7	4602.5	
744.88	6019.7	
745.06	5741.1	
745.24	4597	
745.42	4614.1	
745.6	6075	
745.78	5970.5	
745.96	4059.8	
746.14	4112.3	
746.32	6244.3	
746.5	5662.6	
746.68	4351.3	
746.86	4085.7	
747.03	5880.4	
747.21	5375.2	
747.39	4435.9	
747.57	4018.8	
747.75	5601.2	
747.93	5739.8	
748.11	4074.8	
748.29	3984.7	
748.47	6438.8	
748.65	5609.4	
748.83	4407.2	
749.01	4289.1	
749.19	5818.3	
749.37	5296	
749.55	4266.6	
749.73	4227.7	
749.91	5603.2	
750.09	5524.7	
750.26	4276.8	
750.44	3945.8	
750.62	5584.8	
750.8	5473.5	
750.98	3923.2	
751.16	4018.8	
751.34	5664	
751.52	5276.3	
751.7	4352.6	
751.88	3850.2	
752.06	5813.5	
752.24	5636.7	
752.42	3802.4	
752.59	4003.1	
752.77	5563	
752.95	6066.8	
753.13	4303.5	
753.31	3994.9	
753.49	5347.9	
753.67	5515.2	
753.85	4110.3	
754.03	3825.6	
754.21	5553.4	
754.38	5694.7	
754.56	3782.6	
754.74	3444	
754.92	5054.4	
755.1	5191.6	
755.28	3259	
755.46	3208.5	
755.64	5492.7	
755.82	5396.4	
755.99	3072	
756.17	3024.8	
756.35	4012	
756.53	4598.4	
756.71	2411.1	
756.89	2989.4	
757.07	4438.6	
757.25	4079.6	
757.42	3061.7	
757.6	3457	
757.78	4609.3	
757.96	4176.5	
758.14	2995.5	
758.32	2872.6	
758.5	3990.8	
758.67	4411.3	
758.85	2975	
759.03	2901.3	
759.21	4405.9	
759.39	4003.8	
759.57	2708.1	
759.75	3238.5	
759.92	4845.5	
760.1	4541	
760.28	3448.1	
760.46	3583.3	
760.64	4466.6	
760.82	4414.7	
760.99	3426.9	
761.17	3149.1	
761.35	4881	
761.53	4399	
761.71	3302.7	
761.89	3538.9	
762.06	4829.1	
762.24	4657.1	
762.42	3366.9	
762.6	3289.7	
762.78	4691.2	
762.96	4655.7	
763.13	3552.5	
763.31	3363.4	
763.49	5010	
763.67	4732.2	
763.85	3826.3	
764.02	4024.9	
764.2	5302.2	
764.38	4573.1	
764.56	3433.1	
764.74	3734.8	
764.91	5124.7	
765.09	4657.1	
765.27	3269.2	
765.45	3151.8	
765.63	5385.5	
765.8	5052.3	
765.98	3081.5	
766.16	3154.6	
766.34	4272.7	
766.52	4341.7	
766.69	3607.8	
766.87	3074	
767.05	4701.5	
767.23	5024.3	
767.41	3209.8	
767.58	3336.1	
767.76	4924	
767.94	4902.8	
768.12	3207.8	
768.29	3487	
768.47	4417.5	
768.65	4990.2	
768.83	3028.9	
769	3459	
769.18	4395.6	
769.36	4752	
769.54	3483.6	
769.72	2995.5	
769.89	5005.2	
770.07	4808.6	
770.25	3254.9	
770.43	3662.5	
770.6	5111	
770.78	5191.6	
770.96	3207.8	
771.14	3405.1	
771.31	4884.4	
771.49	4509.6	
771.67	2863.1	
771.85	2891	
772.02	4134.2	
772.2	4412	
772.38	3323.9	
772.55	2899.9	
772.73	4556	
772.91	4488.5	
773.09	3097.2	
773.26	3189.4	
773.44	4564.2	
773.62	4517.1	
773.8	2940.9	
773.97	2850.8	
774.15	4549.9	
774.33	4427	
774.5	2874	
774.68	3026.9	
774.86	4521.9	
775.04	4403.8	
775.21	2891.7	
775.39	2776.4	
775.57	4442.7	
775.74	4543.1	
775.92	2733.4	
776.1	2609.1	
776.27	4423.6	
776.45	5042.8	
776.63	2850.8	
776.81	2665.1	
776.98	4365.6	
777.16	4735.6	
777.34	2937.5	
777.51	2979.8	
777.69	4297.3	
777.87	4179.2	
778.04	2949.1	
778.22	3116.3	
778.4	4138.9	
778.57	4471.4	
778.75	2559.3	
778.93	2693.8	
779.1	4107.5	
779.28	3876.8	
779.46	2519.7	
779.64	2713.6	
779.81	4499.4	
779.99	4812	
780.17	3047.4	
780.34	3082.2	
780.52	4314.4	
780.69	4357.4	
780.87	2880.1	
781.05	2688.3	
781.22	4317.1	
781.4	4283.7	
781.58	2708.1	
781.75	2298.5	
781.93	4318.5	
782.11	3857	
782.28	3126.6	
782.46	2637.8	
782.64	3887	
782.81	4357.4	
782.99	2803	
783.17	2674	
783.34	4080.2	
783.52	4040.6	
783.69	2650.8	
783.87	3105.4	
784.05	4054.3	
784.22	3976.5	
784.4	3094.5	
784.58	2798.9	
784.75	4478.9	
784.93	4083	
785.1	2588.6	
785.28	2876	
785.46	4367.6	
785.63	3919.1	
785.81	2666.5	
785.99	2514.2	
786.16	4062.5	
786.34	4113	
786.51	2553.1	
786.69	2780.5	
786.87	3775.1	
787.04	3984.7	
787.22	2521	
787.39	2952.5	
787.57	3939.6	
787.75	4365.6	
787.92	3108.8	
788.1	2927.2	
788.27	3891.1	
788.45	3457	
788.63	2878.8	
788.8	2260.3	
788.98	4164.9	
789.15	3545	
789.33	2372.9	
789.5	2583.2	
789.68	4339	
789.86	4384	
790.03	2774.3	
790.21	2542.2	
790.38	4379.9	
790.56	3988.8	
790.73	2549	
790.91	2446.6	
791.09	3907.5	
791.26	4137.6	
791.44	2635.7	
791.61	2338.1	
791.79	3908.2	
791.96	3847.5	
792.14	2438.4	
792.32	2223.4	
792.49	3880.9	
792.67	3955.3	
792.84	2489	
793.02	2349.7	
793.19	4225	
793.37	4323.9	
793.54	2181.8	
793.72	2331.3	
793.89	4398.4	
794.07	3753.2	
794.25	2669.2	
794.42	2250	
794.6	4349.9	
794.77	4083	
794.95	2763.4	
795.12	2418.7	
795.3	3829.7	
795.47	4102.1	
795.65	2655.5	
795.82	2557.9	
796	3764.8	
796.17	4536.3	
796.35	2523.1	
796.52	2854.9	
796.7	4141.7	
796.87	4160.1	
797.05	2530.6	
797.22	2847.4	
797.4	4192.9	
797.57	4499.4	
797.75	2605.7	
797.92	2562	
798.1	4337.6	
798.27	3644	
798.45	2229.6	
798.62	2335.4	
798.8	4043.4	
798.97	4194.9	
799.15	2665.1	
799.32	2556.5	
799.5	3646.7	
799.67	3866.6	
799.85	2760	
800.02	2211.1	
800.2	3864.5	
800.37	3828.3	
800.55	2760	
800.72	2433.7	
800.9	4201.1	
801.07	4278.9	
801.25	3064.4	
801.42	2631	
801.6	4233.2	
801.77	3871.3	
801.95	2485.6	
802.12	2404.3	
802.29	4068.6	
802.47	3933.5	
802.64	2661	
802.82	2157.9	
802.99	3812.6	
803.17	4188.1	
803.34	2569.5	
803.52	2411.1	
803.69	4379.9	
803.87	3608.5	
804.04	2535.4	
804.21	2576.3	
804.39	4344.4	
804.56	3814	
804.74	2303.3	
804.91	2619.4	
805.09	3790.1	
805.26	3800.3	
805.44	2333.3	
805.61	2456.9	
805.78	4186	
805.96	4003.8	
806.13	2609.1	
806.31	2723.8	
806.48	3516.4	
806.66	3775.1	
806.83	2613.2	
807	2520.4	
807.18	3836.5	
807.35	3952.6	
807.53	2509.4	
807.7	2218.6	
807.87	4339.6	
808.05	3742.3	
808.22	2689	
808.4	2182.5	
808.57	3624.2	
808.74	3586.7	
808.92	2433	
809.09	2831.7	
809.27	3891.1	
809.44	3956.7	
809.61	2198.2	
809.79	2315.6	
809.96	4448.2	
810.14	4022.9	
810.31	2132.6	
810.48	2682.8	
810.66	3764.8	
810.83	4046.1	
811.01	2441.9	
811.18	2560.6	
811.35	4119.8	
811.53	3415.3	
811.7	2689	
811.87	2613.2	
812.05	3947.1	
812.22	3734.1	
812.39	2345.6	
812.57	2230.2	
812.74	3886.4	
812.92	4438.6	
813.09	2511.5	
813.26	2557.9	
813.44	4390.8	
813.61	3654.3	
813.78	2189.3	
813.96	2583.2	
814.13	3836.5	
814.3	3776.5	
814.48	2810.5	
814.65	2394.8	
814.82	4130.8	
815	3525.2	
815.17	2540.8	
815.34	2861.7	
815.52	3699.3	
815.69	3732.1	
815.87	2461	
816.04	2420.7	
816.21	3574.4	
816.38	3575.1	
816.56	2424.8	
816.73	2320.3	
816.9	4567	
817.08	3975.1	
817.25	2337.4	
817.42	2653.5	
817.6	3532.1	
817.77	3671.3	
817.94	2501.3	
818.12	2238.4	
818.29	3680.9	
818.46	4689.2	
818.64	2428.9	
818.81	2248	
818.98	3674.7	
819.16	4542.4	
819.33	2629.6	
819.5	2513.5	
819.67	3928	
819.85	4269.3	
820.02	2483.5	
820.19	2511.5	
820.37	3871.3	
820.54	3691.1	
820.71	2570.9	
820.88	2949.1	
821.06	3820.1	
821.23	3678.2	
821.4	2519	
821.58	2553.8	
821.75	4007.9	
821.92	3893.2	
822.09	2165.4	
822.27	2223.4	
822.44	3816	
822.61	3753.9	
822.79	2187.2	
822.96	3500.7	
823.13	3810.6	
823.3	3549.8	
823.48	2381.8	
823.65	2229.6	
823.82	4154.6	
823.99	3613.3	
824.17	2918.4	
824.34	2235	
824.51	4541.7	
824.68	3809.9	
824.86	2334	
825.03	2518.3	
825.2	3792.2	
825.37	4183.3	
825.55	2402.9	
825.72	2431.6	
825.89	4442	
826.06	4242	
826.24	2387.2	
826.41	2463.7	
826.58	4319.2	
826.75	3799	
826.92	2194.1	
827.1	2208.4	
827.27	5235.3	
827.44	4361.5	
827.61	2375	
827.79	2665.1	
827.96	3745.1	
828.13	3705.5	
828.3	2474.6	
828.47	2131.9	
828.65	4102.8	
828.82	4006.5	
828.99	2803.7	
829.16	2496.5	
829.34	4069.3	
829.51	4175.8	
829.68	2484.9	
829.85	2458.9	
830.02	4533.5	
830.2	4222.2	
830.37	2124.4	
830.54	2763.4	
830.71	4513.7	
830.88	3913	
831.05	2008.4	
831.23	2253.4	
831.4	4504.2	
831.57	4569	
831.74	2312.8	
831.91	2108.7	
832.09	4188.8	
832.26	4193.6	
832.43	2284.9	
832.6	2541.5	
832.77	4004.5	
832.94	4371.7	
833.12	2063	
833.29	2253.4	
833.46	3711.6	
833.63	4760.8	
833.8	2477.4	
833.97	2271.9	
834.15	4235.9	
834.32	4130.1	
834.49	2445.3	
834.66	2433	
834.83	4082.3	
835	3760.1	
835.17	2302.6	
835.35	2250.7	
835.52	4175.1	
835.69	4031.8	
835.86	2370.9	
836.03	2107.4	
836.2	4204.5	
836.37	4002.4	
836.55	2265.1	
836.72	2185.2	
836.89	3941	
837.06	4230.4	
837.23	2446	
837.4	2471.9	
837.57	4508.3	
837.75	4694.6	
837.92	2228.2	
838.09	2284.9	
838.26	3987.4	
838.43	4190.8	
838.6	2387.2	
838.77	2232.3	
838.94	4569	
839.11	4543.8	
839.29	2412.5	
839.46	1987.9	
839.63	4271.4	
839.8	3959.4	
839.97	2303.3	
840.14	2233	
840.31	4154	
840.48	4259.1	
840.65	2035.7	
840.82	2304	
841	4120.5	
841.17	3979.2	
841.34	2105.3	
841.51	2274.6	
841.68	4184	
841.85	3941.7	
842.02	2211.1	
842.19	1989.9	
842.36	4136.9	
842.53	4088.4	
842.7	2192.7	
842.87	2431.6	
843.05	4709	
843.22	3953.3	
843.39	2082.8	
843.56	2287.6	
843.73	3986.7	
843.9	4220.2	
844.07	3026.2	
844.24	2613.2	
844.41	5100.8	
844.58	3785.3	
844.75	2078.7	
844.92	2221.4	
845.09	3967.6	
845.26	4068.6	
845.43	2167.4	
845.6	2241.8	
845.77	4160.8	
845.94	4042.7	
846.12	2332.6	
846.29	2329.2	
846.46	4367.6	
846.63	4171	
846.8	2114.2	
846.97	2465.8	
847.14	4244.1	
847.31	4116.4	
847.48	2308.1	
847.65	2485.6	
847.82	3796.3	
847.99	4182.6	
848.16	2606.4	
848.33	2504	
848.5	3846.1	
848.67	4342.4	
848.84	2084.1	
849.01	2202.2	
849.18	3938.2	
849.35	3623.5	
849.52	2493.7	
849.69	2087.6	
849.86	4273.4	
850.03	4205.8	
850.2	2153.8	
850.37	2400.2	
850.54	4261.8	
850.71	3755.3	
850.88	2459.6	
851.05	2074.6	
851.22	4042	
851.39	4276.2	
851.56	2024.8	
851.73	2391.3	
851.9	3757.3	
852.07	4248.9	
852.24	2320.3	
852.41	2052.7	
852.58	4162.8	
852.75	3837.2	
852.92	2297.1	
853.09	2101.2	
853.26	3566.9	
853.43	4201.7	
853.6	2134.7	
853.77	1902.6	
853.94	4364.2	
854.11	3771	
854.28	2878.1	
854.44	2294.4	
854.61	4492.6	
854.78	4204.5	
854.95	2126.5	
855.12	2481.5	
855.29	3544.4	
855.46	4311.7	
855.63	2200.2	
855.8	2738.8	
855.97	3846.8	
856.14	4334.9	
856.31	2723.8	
856.48	2271.9	
856.65	3966.9	
856.82	3769.6	
856.99	2119	
857.16	2230.9	
857.33	4585.4	
857.49	3916.4	
857.66	2235	
857.83	2337.4	
858	4080.9	
858.17	4082.3	
858.34	2000.2	
858.51	2147.6	
858.68	4330.8	
858.85	4378.6	
859.02	2346.3	
859.19	2458.2	
859.36	3816.7	
859.52	3534.8	
859.69	2131.9	
859.86	2401.6	
860.03	3601	
860.2	4379.2	
860.37	2029.5	
860.54	2178.4	
860.71	4136.2	
860.88	4421.6	
861.05	2350.4	
861.21	2566.1	
861.38	4300.1	
861.55	3598.3	
861.72	2058.9	
861.89	2315.6	
862.06	4238.6	
862.23	4399	
862.4	2078.7	
862.56	2160.6	
862.73	4190.8	
862.9	4000.4	
863.07	2347	
863.24	2000.9	
863.41	3672	
863.58	3824.2	
863.75	2176.3	
863.91	2381.8	
864.08	4245.4	
864.25	4012.7	
864.42	2458.2	
864.59	2755.9	
864.76	4435.2	
864.93	3775.8	
865.09	2092.3	
865.26	2257.5	
865.43	4338.3	
865.6	4524	
865.77	1949	
865.94	2087.6	
866.1	4291.9	
866.27	4011.3	
866.44	2859.6	
866.61	2067.8	
866.78	3949.2	
866.95	4182	
867.11	2119	
867.28	2015.2	
867.45	4344.4	
867.62	3724.6	
867.79	2340.1	
867.96	2136	
868.12	3682.2	
868.29	4106.9	
868.46	2176.3	
868.63	2639.8	
868.8	4168.3	
868.97	4155.3	
869.13	2170.8	
869.3	2196.8	
869.47	3984.7	
869.64	4190.8	
869.81	2136	
869.97	2127.2	
870.14	3889.8	
870.31	4344.4	
870.48	2103.3	
870.65	2517	
870.81	3988.8	
870.98	3988.8	
871.15	2366.1	
871.32	2166.1	
871.48	4075.5	
871.65	4392.9	
871.82	2125.8	
871.99	2268.5	
872.16	4552.6	
872.32	4355.3	
872.49	2200.2	
872.66	2124.4	
872.83	4252.3	
872.99	3869.3	
873.16	2338.1	
873.33	2077.3	
873.5	3988.8	
873.67	4086.4	
873.83	2211.8	
874	2622.8	
874.17	4113.7	
874.34	4287.1	
874.5	2576.3	
874.67	2463	
874.84	4312.3	
875.01	3606.5	
875.17	2736.1	
875.34	2122.4	
875.51	4044.1	
875.68	4685.1	
875.84	2471.9	
876.01	2774.3	
876.18	4142.4	
876.34	4147.1	
876.51	2068.4	
876.68	2107.4	
876.85	3854.3	
877.01	4387.4	
877.18	2768.9	
877.35	2078.7	
877.52	4192.9	
877.68	3789.4	
877.85	2161.3	
878.02	2118.3	
878.18	3590.8	
878.35	3908.9	
878.52	1818.6	
878.69	2398.2	
878.85	4403.8	
879.02	4166.9	
879.19	2766.1	
879.35	2245.9	
879.52	4199.7	
879.69	4169.7	
879.86	1993.4	
880.02	2325.8	
880.19	4045.4	
880.36	4500.8	
880.52	2336.7	
880.69	2415.9	
880.86	4203.1	
881.02	4233.8	
881.19	2299.2	
881.36	2213.9	
881.52	4115.1	
881.69	3778.5	
881.86	2261.6	
882.02	2189.3	
882.19	4306.2	
882.36	4762.2	
882.52	2203.6	
882.69	2726.5	
882.86	3987.4	
883.02	4100.7	
883.19	2399.5	
883.36	2330.6	
883.52	4255	
883.69	4558.1	
883.86	2171.5	
884.02	2054.8	
884.19	4131.4	
884.36	4025.6	
884.52	2282.1	
884.69	2286.9	
884.86	3898.6	
885.02	4351.9	
885.19	2259.6	
885.36	2354.5	
885.52	3796.3	
885.69	4128.7	
885.86	2813.2	
886.02	2497.2	
886.19	4136.9	
886.35	3808.5	
886.52	2306	
886.69	2753.2	
886.85	3741.6	
887.02	4306.9	
887.19	4306.9	
887.35	4306.9	
887.52	4306.9	
887.68	4306.9	
887.85	4306.9	
888.02	4306.9	
888.18	4306.9	
888.35	4306.9	
888.51	4306.9	
888.68	4306.9	
888.85	4306.9	
889.01	4306.9	
889.18	4306.9	
889.35	4306.9	
889.51	4306.9	
889.68	4306.9	
889.84	4306.9	
890.01	4306.9	
890.17	4306.9	
890.34	4306.9	
890.51	4306.9	
890.67	4306.9	
890.84	4306.9	
891	4306.9	
891.17	4306.9	
891.34	4306.9	
891.5	4306.9	
891.67	4306.9	
891.83	4306.9	
892	4306.9	
892.16	4306.9	
892.33	4306.9	
892.5	4306.9	
892.66	4306.9	
892.83	4306.9	
892.99	4306.9	
893.16	4306.9	
893.32	4306.9	
893.49	4306.9	
893.65	4306.9	
893.82	4306.9	
893.99	4306.9	
894.15	4306.9	
894.32	4306.9	
894.48	4306.9	
894.65	4306.9	
894.81	4306.9	
894.98	4306.9	
895.14	4306.9	
895.31	4306.9	
895.47	4306.9	
895.64	4306.9	
895.81	4306.9	
895.97	4306.9	
896.14	4306.9	
896.3	4306.9	
896.47	4306.9	
896.63	4306.9	
896.8	4306.9	
896.96	4306.9	
897.13	4306.9	
897.29	4306.9	
897.46	4306.9	
897.62	4306.9	
897.79	4306.9	
897.95	4306.9	
898.12	4306.9	
898.28	4306.9	
898.45	4306.9	
898.61	4306.9	
898.78	4306.9	
898.94	4306.9	
899.11	4306.9	
899.27	4306.9	
899.44	4306.9	
899.6	4306.9	
899.77	4306.9	
899.93	4306.9	
900.1	4306.9	
900.26	4306.9	
900.43	4306.9	
900.59	4306.9	
900.76	4306.9	
900.92	4306.9	
901.09	4306.9	
901.25	4306.9	
901.42	4306.9	
901.58	4306.9	
901.75	4306.9	
901.91	4306.9	
902.07	4306.9	
902.24	4306.9	
902.4	4306.9	
902.57	4306.9	
902.73	4306.9	
902.9	4306.9	
903.06	4306.9	
903.23	4306.9	
903.39	4306.9	
903.56	4306.9	
903.72	4306.9	
903.88	4306.9	
904.05	4306.9	
904.21	4306.9	
904.38	4306.9	
904.54	4306.9	
904.71	4306.9	
904.87	4306.9	
905.03	4306.9	
905.2	4306.9	
905.36	4306.9	
905.53	4306.9	
905.69	4306.9	
905.86	4306.9	
906.02	4306.9	
906.18	4306.9	
906.35	4306.9	
906.51	4306.9	
906.68	4306.9	
906.84	4306.9	
907.01	4306.9	
907.17	4306.9	
907.33	4306.9	
907.5	4306.9	
907.66	4306.9	
907.83	4306.9	
907.99	4306.9	
908.15	4306.9	
908.32	4306.9	
908.48	4306.9	
908.65	4306.9	
908.81	4306.9	
908.97	4306.9	
909.14	4306.9	
909.3	4306.9	
909.47	4306.9	
909.63	4306.9	
909.79	4306.9	
909.96	4306.9	
910.12	4306.9	
910.28	4306.9	
910.45	4306.9	
910.61	4306.9	
910.78	4306.9	
910.94	4306.9	
911.1	4306.9	
911.27	4306.9	
911.43	4306.9	
911.59	4306.9	
911.76	4306.9	
911.92	4306.9	
912.08	4306.9	
912.25	4306.9	
912.41	4306.9	
912.57	4306.9	
912.74	4306.9	
912.9	4306.9	
913.07	4306.9	
913.23	4306.9	
913.39	4306.9	
913.56	4306.9	
913.72	4306.9	
913.88	4306.9	
914.05	4306.9	
914.21	4306.9	
914.37	4306.9	
914.54	4306.9	
914.7	4306.9	
914.86	4306.9	
915.03	4306.9	
915.19	4306.9	
