Wavelength	Intensities	
nm	a.u.	
179.22	1681.2	
179.44	1685.8	
179.65	1676.6	
179.86	1695	
180.08	1741.5	
180.29	3999	
180.51	3106.1	
180.72	5026.4	
180.94	5659.2	
181.15	2767.5	
181.37	2739.5	
181.58	4809.3	
181.79	5060.5	
182.01	2891.7	
182.22	3005.7	
182.44	5056.4	
182.65	4396.3	
182.87	3723.9	
183.08	3336.8	
183.29	5318.6	
183.51	4463.9	
183.72	3037.1	
183.94	4188.1	
184.15	4747.9	
184.37	4769	
184.58	2732	
184.79	3552.5	
185.01	4522.6	
185.22	5074.9	
185.44	3778.5	
185.65	3229.6	
185.86	4714.4	
186.08	4356.7	
186.29	2664.4	
186.51	2812.5	
186.72	4472.8	
186.94	5195	
187.15	3242.6	
187.36	3306.8	
187.58	6505	
187.79	4902.8	
188.01	3409.9	
188.22	5143.8	
188.43	5722	
188.65	5088.5	
188.86	2862.4	
189.08	3298.6	
189.29	4605.9	
189.5	4650.9	
189.72	3074	
189.93	3158.7	
190.15	5184.1	
190.36	6068.8	
190.57	3348.4	
190.79	3262.4	
191	5248.9	
191.22	5227.8	
191.43	3427.6	
191.64	2849.4	
191.86	5361.6	
192.07	5141.1	
192.29	2957.9	
192.5	3052.8	
192.71	5222.3	
192.93	4527.4	
193.14	3010.5	
193.35	3117	
193.57	4620.2	
193.78	5221	
194	2536.1	
194.21	2966.1	
194.42	4426.3	
194.64	4798.4	
194.85	3259.7	
195.07	3807.9	
195.28	4744.5	
195.49	4272.7	
195.71	3975.1	
195.92	2916.3	
196.13	4947.9	
196.35	5044.8	
196.56	4156	
196.78	3341.6	
196.99	6024.4	
197.2	5631.2	
197.42	3719.8	
197.63	3325.2	
197.84	4384	
198.06	4930.1	
198.27	3104.7	
198.48	3976.5	
198.7	4585.4	
198.91	4771.8	
199.13	3318.4	
199.34	3339.6	
199.55	5195	
199.77	4178.5	
199.98	3023.5	
200.19	3370.3	
200.41	4727.4	
200.62	4472.1	
200.83	3438.5	
201.05	3685.7	
201.26	4757.4	
201.47	4517.1	
201.69	2993.4	
201.9	2923.8	
202.11	4778.6	
202.33	5517.9	
202.54	3164.8	
202.76	3500	
202.97	4874.8	
203.18	4894.6	
203.4	3464.5	
203.61	3471.3	
203.82	4844.8	
204.04	4568.3	
204.25	3339.6	
204.46	3276.8	
204.68	4819.6	
204.89	4970.4	
205.1	3284.3	
205.32	2899.2	
205.53	5070.1	
205.74	5214.8	
205.96	2551.1	
206.17	3348.4	
206.38	5048.9	
206.6	5186.8	
206.81	3810.6	
207.02	3095.8	
207.24	4934.9	
207.45	5332.2	
207.66	3199.6	
207.88	2803.7	
208.09	4910.3	
208.3	4747.9	
208.52	2991.4	
208.73	3251.5	
208.94	4820.2	
209.15	5366.4	
209.37	3229	
209.58	3597.6	
209.79	5172.5	
210.01	4633.9	
210.22	2698.5	
210.43	2756.6	
210.65	4781.3	
210.86	5076.2	
211.07	3181.2	
211.29	2975.7	
211.5	4999.8	
211.71	4764.3	
211.93	2952.5	
212.14	2952.5	
212.35	4771.8	
212.56	4749.2	
212.78	3389.4	
212.99	2782.5	
213.2	5436	
213.42	4648.9	
213.63	3077.4	
213.84	3261.7	
214.06	4339	
214.27	4429.8	
214.48	3190.7	
214.69	3377.1	
214.91	5301.5	
215.12	5344.5	
215.33	3410.6	
215.55	3703.4	
215.76	5689.3	
215.97	5036.6	
216.18	3231.7	
216.4	3261	
216.61	4533.5	
216.82	5218.9	
217.04	3001	
217.25	3138.2	
217.46	5251.7	
217.67	5035.3	
217.89	2685.6	
218.1	2783.2	
218.31	4800.4	
218.53	4930.8	
218.74	3132.7	
218.95	3018.7	
219.16	4796.3	
219.38	5532.9	
219.59	3059	
219.8	3519.8	
220.01	5891.3	
220.23	4817.5	
220.44	3839.9	
220.65	2934.1	
220.87	4876.9	
221.08	5258.5	
221.29	2798.2	
221.5	3554.6	
221.72	6247.7	
221.93	4569.7	
222.14	3353.2	
222.35	3893.2	
222.57	4731.5	
222.78	5172.5	
222.99	3243.3	
223.2	3392.1	
223.42	4967	
223.63	5083.1	
223.84	2552.5	
224.05	2569.5	
224.27	5852.4	
224.48	5455.1	
224.69	3915.7	
224.9	3355.9	
225.12	4936.3	
225.33	4739.7	
225.54	2734	
225.75	3061.7	
225.97	4511	
226.18	4741	
226.39	3216.7	
226.6	3039.2	
226.82	4655	
227.03	4384	
227.24	3370.3	
227.45	2822.1	
227.67	5143.1	
227.88	5403.9	
228.09	3715.7	
228.3	3695.2	
228.52	4988.2	
228.73	4789.5	
228.94	3147	
229.15	2826.2	
229.36	4735.6	
229.58	4709	
229.79	3205.8	
230	3625.6	
230.21	5606.7	
230.43	4833.9	
230.64	3349.8	
230.85	3418.7	
231.06	5133.6	
231.28	5147.2	
231.49	2828.9	
231.7	3283.6	
231.91	5051	
232.12	4819.6	
232.34	2914.3	
232.55	3198.9	
232.76	5281	
232.97	4894	
233.18	2997.5	
233.4	3310.2	
233.61	4967	
233.82	4605.2	
234.03	3164.8	
234.25	3095.2	
234.46	6373.3	
234.67	4831.8	
234.88	3442.6	
235.09	3018.7	
235.31	4919.2	
235.52	4695.3	
235.73	3325.9	
235.94	2844.6	
236.15	4590.2	
236.37	5624.4	
236.58	2984.6	
236.79	3207.1	
237	5035.3	
237.21	4372.4	
237.43	3426.9	
237.64	2719.7	
237.85	7825.3	
238.06	4504.8	
238.27	3419.4	
238.48	2837.1	
238.7	5057.8	
238.91	4655	
239.12	3168.9	
239.33	3314.3	
239.54	4514.4	
239.76	4706.2	
239.97	3205.1	
240.18	3196.2	
240.39	5732.9	
240.6	4926.7	
240.82	3387.3	
241.03	2828.2	
241.24	4792.9	
241.45	5372.5	
241.66	2994.1	
241.87	3425.6	
242.09	5387.5	
242.3	5606	
242.51	3494.5	
242.72	3229.6	
242.93	5147.9	
243.14	4710.3	
243.36	3688.4	
243.57	3960.1	
243.78	5461.2	
243.99	5074.9	
244.2	3183.2	
244.41	2966.8	
244.63	4446.1	
244.84	5009.3	
245.05	3399.6	
245.26	3199.6	
245.47	4986.1	
245.68	5113.1	
245.9	4183.3	
246.11	3373	
246.32	4618.2	
246.53	5009.3	
246.74	5066	
246.95	2783.9	
247.16	4466.6	
247.38	4815.5	
247.59	2752.5	
247.8	3228.3	
248.01	4539.7	
248.22	4760.2	
248.43	2954.5	
248.64	3196.9	
248.86	4388.1	
249.07	4595.6	
249.28	2901.3	
249.49	3302.7	
249.7	5179.3	
249.91	5184.8	
250.12	2729.3	
250.34	2812.5	
250.55	4894	
250.76	4799.8	
250.97	3337.5	
251.18	3373.7	
251.39	5289.9	
251.6	4975.2	
251.81	3403	
252.03	3375.1	
252.24	4633.2	
252.45	5142.4	
252.66	2841.9	
252.87	3532.7	
253.08	4767	
253.29	5932.3	
253.5	2854.2	
253.72	3823.6	
253.93	4743.1	
254.14	5516.5	
254.35	3059	
254.56	3191.4	
254.77	4965	
254.98	4468.7	
255.19	3056.9	
255.41	3871.3	
255.62	4924.7	
255.83	5283.8	
256.04	3413.3	
256.25	3293.1	
256.46	5687.2	
256.67	4560.1	
256.88	3281.5	
257.09	3683.6	
257.31	4475.5	
257.52	4532.8	
257.73	4072	
257.94	3136.8	
258.15	4713.7	
258.36	4754	
258.57	3804.4	
258.78	2536.1	
258.99	5186.1	
259.2	4646.2	
259.41	3113.6	
259.63	3186.6	
259.84	5429.8	
260.05	5664	
260.26	3922.5	
260.47	3031.7	
260.68	5222.3	
260.89	4674.1	
261.1	3660.4	
261.31	2927.9	
261.52	5322	
261.73	5535	
261.95	3956	
262.16	3437.9	
262.37	5307.7	
262.58	5330.2	
262.79	3902.1	
263	3138.2	
263.21	4799.1	
263.42	4659.1	
263.63	3397.6	
263.84	3109.5	
264.05	5197.7	
264.26	5425.8	
264.47	3799.7	
264.69	3316.3	
264.9	5313.1	
265.11	5154.1	
265.32	3005.1	
265.53	3038.5	
265.74	4847.5	
265.95	4326.7	
266.16	3260.4	
266.37	3588.7	
266.58	4843.4	
266.79	4636.6	
267	3063.1	
267.21	2851.5	
267.42	4470	
267.63	4767	
267.84	3138.2	
268.06	2861	
268.27	5122.7	
268.48	5288.5	
268.69	3140.9	
268.9	3621.5	
269.11	5283.1	
269.32	4302.8	
269.53	3170.3	
269.74	2992.8	
269.95	4966.3	
270.16	4320.5	
270.37	3282.9	
270.58	3663.1	
270.79	4671.4	
271	5202.5	
271.21	3446	
271.42	3291.1	
271.63	4980	
271.84	4420.9	
272.05	2669.2	
272.26	2902.7	
272.47	4799.8	
272.68	4954.7	
272.89	3082.9	
273.11	3538.2	
273.32	4576.5	
273.53	5403.9	
273.74	3383.2	
273.95	3375.7	
274.16	5193	
274.37	4759.5	
274.58	3540.3	
274.79	2853.5	
275	4913.8	
275.21	5236	
275.42	4190.8	
275.63	3500.7	
275.84	4999.1	
276.05	6075.6	
276.26	3377.1	
276.47	3158.7	
276.68	4706.2	
276.89	5566.4	
277.1	3575.1	
277.31	2859	
277.52	4937	
277.73	5215.5	
277.94	2851.5	
278.15	3138.2	
278.36	4919.2	
278.57	4556.7	
278.78	3119.7	
278.99	3439.2	
279.2	4564.9	
279.41	4525.3	
279.62	4028.4	
279.83	2871.3	
280.04	5694	
280.25	4502.8	
280.46	3968.3	
280.67	3264.5	
280.88	4587.4	
281.09	5268.7	
281.3	3372.3	
281.51	4130.8	
281.72	4565.6	
281.93	5220.3	
282.14	3018	
282.35	3218	
282.56	5203.2	
282.77	5115.1	
282.98	3103.4	
283.19	3792.8	
283.4	6123.4	
283.61	4737	
283.82	2912.2	
284.03	3907.5	
284.24	4934.9	
284.45	5229.8	
284.66	3933.5	
284.87	3750.5	
285.08	5285.8	
285.29	5270.8	
285.5	2841.2	
285.71	3195.5	
285.92	5240.1	
286.12	5728.2	
286.33	3885	
286.54	3174.4	
286.75	5115.1	
286.96	4715.8	
287.17	2926.5	
287.38	3785.3	
287.59	4558.1	
287.8	4543.1	
288.01	3207.8	
288.22	3596.2	
288.43	5102.9	
288.64	4326	
288.85	3699.3	
289.06	3540.3	
289.27	5328.8	
289.48	5433.9	
289.69	3953.3	
289.9	3613.3	
290.11	5336.3	
290.32	4589.5	
290.53	3710.9	
290.74	3398.3	
290.94	5126.7	
291.15	5163.6	
291.36	3044.6	
291.57	3582.6	
291.78	4661.2	
291.99	4300.7	
292.2	2944.3	
292.41	3472	
292.62	5220.3	
292.83	5042.8	
293.04	4198.3	
293.25	2996.2	
293.46	4680.3	
293.67	5248.9	
293.88	3002.3	
294.09	2935.4	
294.29	4474.8	
294.5	4913.8	
294.71	3221.5	
294.92	3112.2	
295.13	4668.7	
295.34	5652.4	
295.55	2823.5	
295.76	2759.3	
295.97	5089.9	
296.18	5701.5	
296.39	2916.3	
296.6	3028.3	
296.81	4874.8	
297.01	5130.2	
297.22	3174.4	
297.43	3081.5	
297.64	4626.4	
297.85	4489.8	
298.06	2606.4	
298.27	2807.8	
298.48	4769.7	
298.69	4552	
298.9	3263.1	
299.11	3030.3	
299.31	4467.3	
299.52	4489.1	
299.73	3451.5	
299.94	3402.4	
300.15	4776.5	
300.36	4528.7	
300.57	3381.9	
300.78	3358.7	
300.99	4685.1	
301.2	4827.7	
301.4	3058.3	
301.61	3306.1	
301.82	5032.5	
302.03	5128.8	
302.24	3622.9	
302.45	2949.8	
302.66	5053.7	
302.87	5311.7	
303.08	3021.4	
303.29	3967.6	
303.49	4654.4	
303.7	4745.8	
303.91	2768.2	
304.12	3812	
304.33	4390.2	
304.54	4945.8	
304.75	3016.7	
304.96	2942.9	
305.16	5057.8	
305.37	5573.2	
305.58	2717.7	
305.79	2861	
306	5036.6	
306.21	4339	
306.42	3005.7	
306.63	4475.5	
306.83	4658.4	
307.04	5104.9	
307.25	3312.9	
307.46	3335.5	
307.67	4272.7	
307.88	5077.6	
308.09	3005.7	
308.29	3123.2	
308.5	4870.1	
308.71	5235.3	
308.92	3251.5	
309.13	2979.1	
309.34	4748.6	
309.55	4675.5	
309.75	3747.8	
309.96	3446	
310.17	5095.3	
310.38	4590.9	
310.59	3562.8	
310.8	3376.4	
311.01	4670.7	
311.21	4705.5	
311.42	2957.3	
311.63	2979.1	
311.84	4616.1	
312.05	4829.1	
312.26	3386.7	
312.46	3685.7	
312.67	4672.8	
312.88	4451.6	
313.09	2937.5	
313.3	2896.5	
313.51	5390.3	
313.71	5627.8	
313.92	2953.2	
314.13	3091.1	
314.34	4986.8	
314.55	4717.2	
314.76	3659.7	
314.96	3254.2	
315.17	4927.4	
315.38	5110.4	
315.59	3003	
315.8	2883.5	
316.01	5312.4	
316.21	5458.5	
316.42	2905.4	
316.63	3228.3	
316.84	4682.3	
317.05	5285.1	
317.26	3422.2	
317.46	3107.5	
317.67	4742.4	
317.88	5051	
318.09	3654.3	
318.3	2807.1	
318.5	4618.2	
318.71	5013.4	
318.92	4536.9	
319.13	3463.1	
319.34	5148.6	
319.54	5301.5	
319.75	2803.7	
319.96	2661	
320.17	5001.1	
320.38	5211.4	
320.58	2749.1	
320.79	3247.4	
321	5286.5	
321.21	5314.5	
321.42	3287	
321.62	2696.5	
321.83	4535.6	
322.04	4825.7	
322.25	3154.6	
322.46	2973.7	
322.66	4892.6	
322.87	5038	
323.08	3578.5	
323.29	2861	
323.5	5611.4	
323.7	4484.4	
323.91	3915.7	
324.12	3560.1	
324.33	4889.2	
324.53	5081.7	
324.74	3389.4	
324.95	3525.2	
325.16	4342.4	
325.37	4654.4	
325.57	2948.4	
325.78	3017.3	
325.99	4885.8	
326.2	4410.6	
326.4	4039.3	
326.61	2780.5	
326.82	4737.6	
327.03	4858.5	
327.24	4064.5	
327.44	3901.4	
327.65	4994.3	
327.86	4142.4	
328.07	3416.7	
328.27	2901.3	
328.48	5314.5	
328.69	4426.3	
328.9	4127.3	
329.1	3101.3	
329.31	4732.2	
329.52	5410.7	
329.73	2976.4	
329.93	3311.6	
330.14	4815.5	
330.35	4962.2	
330.56	4665.3	
330.76	3508.9	
330.97	4678.9	
331.18	4850.3	
331.39	3265.1	
331.59	2732	
331.8	5250.3	
332.01	5332.2	
332.22	3052.8	
332.42	3367.5	
332.63	4867.3	
332.84	4492.6	
333.05	3267.2	
333.25	3048.7	
333.46	4650.3	
333.67	4770.4	
333.88	3096.5	
334.08	3388	
334.29	6081.8	
334.5	5234.6	
334.7	2941.6	
334.91	4048.2	
335.12	4486.4	
335.33	5096.7	
335.53	3233.7	
335.74	4592.2	
335.95	4646.8	
336.16	4487.8	
336.36	3222.8	
336.57	3725.9	
336.78	4448.2	
336.98	5176.6	
337.19	3921.9	
337.4	3172.3	
337.61	5698.8	
337.81	4440.7	
338.02	3035.1	
338.23	3765.5	
338.43	5343.8	
338.64	4526	
338.85	3030.3	
339.05	3844.7	
339.26	5446.9	
339.47	4367.6	
339.68	2966.8	
339.88	4253.6	
340.09	4986.8	
340.3	5130.2	
340.5	3413.3	
340.71	2686.9	
340.92	4479.6	
341.13	5359.5	
341.33	2894.5	
341.54	3463.1	
341.75	5002.5	
341.95	4655.7	
342.16	3327.9	
342.37	3551.9	
342.57	4519.9	
342.78	4693.3	
342.99	3635.8	
343.19	2728.6	
343.4	5130.2	
343.61	4988.9	
343.81	3173.7	
344.02	2895.8	
344.23	5076.2	
344.43	5326.1	
344.64	3642.7	
344.85	3472.7	
345.06	5027.8	
345.26	5186.8	
345.47	3477.5	
345.68	3882.3	
345.88	4299.4	
346.09	5114.5	
346.3	3442	
346.5	2710.1	
346.71	4710.3	
346.92	4606.6	
347.12	2803.7	
347.33	3323.2	
347.54	5229.8	
347.74	5497.4	
347.95	3396.2	
348.16	2567.5	
348.36	4694.6	
348.57	4477.5	
348.78	3406.5	
348.98	3558.7	
349.19	4726	
349.39	4300.7	
349.6	2809.1	
349.81	3065.1	
350.01	5014.1	
350.22	4556.7	
350.43	3338.2	
350.63	3902.7	
350.84	4773.1	
351.05	4552.6	
351.25	2998.9	
351.46	2755.2	
351.67	5223	
351.87	4541.7	
352.08	3129.3	
352.29	3606.5	
352.49	5087.8	
352.7	5157.5	
352.9	2927.9	
353.11	3527.3	
353.32	5583.4	
353.52	4620.2	
353.73	2924.5	
353.94	3602.4	
354.14	4968.4	
354.35	4819.6	
354.55	2997.5	
354.76	3318.4	
354.97	5018.9	
355.17	4751.3	
355.38	2883.5	
355.59	3861.8	
355.79	4541.7	
356	4795.7	
356.2	3268.6	
356.41	2893.1	
356.62	4337.6	
356.82	4682.3	
357.03	3512.9	
357.24	3149.8	
357.44	4547.9	
357.65	4615.4	
357.85	4054.3	
358.06	3254.9	
358.27	4339.6	
358.47	4518.5	
358.68	2803.7	
358.88	3385.3	
359.09	4940.4	
359.3	5140.4	
359.5	3979.9	
359.71	3503.4	
359.91	5470.1	
360.12	5012.1	
360.33	3442.6	
360.53	3777.1	
360.74	4591.5	
360.94	4644.8	
361.15	3642	
361.36	3054.2	
361.56	5175.2	
361.77	4829.1	
361.97	3924.6	
362.18	3218.7	
362.38	5188.2	
362.59	4465.9	
362.8	3015.3	
363	2865.1	
363.21	4254.3	
363.41	4828.4	
363.62	3415.3	
363.83	4130.8	
364.03	4935.6	
364.24	5604.6	
364.44	4225.6	
364.65	4186	
364.85	4767.7	
365.06	4486.4	
365.27	3168.2	
365.47	3170.9	
365.68	5499.5	
365.88	4673.5	
366.09	3376.4	
366.29	3130	
366.5	4848.9	
366.71	5203.9	
366.91	4132.1	
367.12	3581.2	
367.32	5662	
367.53	5069.4	
367.73	3557.3	
367.94	4252.9	
368.14	5118.6	
368.35	5658.5	
368.56	3489.1	
368.76	3091.1	
368.97	5201.8	
369.17	6305	
369.38	3103.4	
369.58	3347.1	
369.79	4429.8	
369.99	5410.1	
370.2	4141.7	
370.4	3399.6	
370.61	4932.2	
370.82	5854.5	
371.02	3390.8	
371.23	2861.7	
371.43	4453.6	
371.64	5374.6	
371.84	3343.7	
372.05	4219.5	
372.25	6257.2	
372.46	5080.3	
372.66	3364.8	
372.87	3348.4	
373.07	5147.9	
373.28	6384.2	
373.48	4183.3	
373.69	3839.9	
373.9	4807.3	
374.1	4807.3	
374.31	4083.6	
374.51	3700	
374.72	5373.2	
374.92	4618.9	
375.13	4155.3	
375.33	3583.9	
375.54	5074.2	
375.74	4712.4	
375.95	3566.9	
376.15	4479.6	
376.36	5143.8	
376.56	5018.9	
376.77	3704.1	
376.97	3992.9	
377.18	5916.6	
377.38	5219.6	
377.59	4184	
377.79	3371.6	
378	5047.6	
378.2	5246.2	
378.41	3360	
378.61	3250.1	
378.82	5388.2	
379.02	4773.8	
379.23	3508.2	
379.43	4306.9	
379.64	5509	
379.84	5148.6	
380.05	3366.9	
380.25	3337.5	
380.46	5257.1	
380.66	4926.7	
380.87	4395.6	
381.07	4643.4	
381.28	5700.9	
381.48	5233.9	
381.69	3394.2	
381.89	3410.6	
382.1	4512.4	
382.3	5274.2	
382.51	4152.6	
382.71	4872.1	
382.91	5168.4	
383.12	5640.1	
383.32	3642.7	
383.53	3829.7	
383.73	5126.7	
383.94	5017.5	
384.14	3828.3	
384.35	3176.4	
384.55	4883.7	
384.76	5244.2	
384.96	3658.4	
385.17	3856.3	
385.37	5241.4	
385.58	4636.6	
385.78	3830.4	
385.98	3106.1	
386.19	4782	
386.39	5143.8	
386.6	3430.3	
386.8	3621.5	
387.01	5198.4	
387.21	5270.8	
387.42	3969.6	
387.62	4330.8	
387.83	4829.8	
388.03	5081	
388.23	3657	
388.44	4260.5	
388.64	4478.9	
388.85	4576.5	
389.05	3921.2	
389.26	4347.8	
389.46	6078.4	
389.67	5563.6	
389.87	3919.8	
390.07	3984	
390.28	4919.2	
390.48	4630.5	
390.69	3381.9	
390.89	3581.9	
391.1	4841.4	
391.3	5479	
391.5	4482.3	
391.71	4942.4	
391.91	5329.5	
392.12	5988.9	
392.32	4516.5	
392.53	3917.1	
392.73	4912.4	
392.93	5014.8	
393.14	3670	
393.34	4342.4	
393.55	5330.2	
393.75	4962.2	
393.95	3760.1	
394.16	3661.8	
394.36	4840	
394.57	5369.8	
394.77	3291.8	
394.98	3659.7	
395.18	4763.6	
395.38	4848.2	
395.59	4362.2	
395.79	3504.1	
396	4928.8	
396.2	5246.9	
396.4	4121.2	
396.61	4080.2	
396.81	5418.9	
397.02	4845.5	
397.22	4327.4	
397.42	4356.7	
397.63	5395.7	
397.83	4827.7	
398.04	3502.7	
398.24	3886.4	
398.44	5255.1	
398.65	4536.3	
398.85	3480.2	
399.05	3489.7	
399.26	4812.7	
399.46	6032	
399.67	3750.5	
399.87	3563.5	
400.07	5053.7	
400.28	5309	
400.48	3590.1	
400.69	4401.1	
400.89	5430.5	
401.09	5873.6	
401.3	3558	
401.5	4365.6	
401.7	5932.3	
401.91	6197.8	
402.11	3904.8	
402.32	3994.9	
402.52	5586.2	
402.72	5494	
402.93	4201.7	
403.13	3337.5	
403.33	6143.2	
403.54	5086.5	
403.74	3947.8	
403.94	4595	
404.15	5217.5	
404.35	5990.3	
404.56	3760.8	
404.76	5096	
404.96	5520.6	
405.17	5316.5	
405.37	4344.4	
405.57	4170.3	
405.78	5504.3	
405.98	5130.8	
406.18	3809.9	
406.39	4414.1	
406.59	5559.6	
406.79	5145.2	
407	3654.9	
407.2	3682.9	
407.4	5601.9	
407.61	5659.9	
407.81	3693.2	
408.01	4977.9	
408.22	4782	
408.42	6213.5	
408.62	4464.6	
408.83	4130.1	
409.03	5269.4	
409.23	5095.3	
409.44	4182	
409.64	4343.1	
409.84	6012.2	
410.05	5878.4	
410.25	4286.4	
410.45	4126.7	
410.66	5552.7	
410.86	7365.9	
411.06	4483.7	
411.27	4332.8	
411.47	7197.2	
411.67	5720	
411.88	4509.6	
412.08	4688.5	
412.28	6195.8	
412.49	6502.3	
412.69	4371	
412.89	4440.7	
413.09	6452.5	
413.3	6300.2	
413.5	4552	
413.7	4203.1	
413.91	5773.2	
414.11	6390.3	
414.31	4390.2	
414.52	4722.6	
414.72	6199.2	
414.92	6083.8	
415.12	4404.5	
415.33	4773.1	
415.53	6425.2	
415.73	6575.3	
415.94	5002.5	
416.14	4620.9	
416.34	5764.3	
416.55	5468.8	
416.75	5498.8	
416.95	5110.4	
417.15	6511.9	
417.36	6919.4	
417.56	5723.4	
417.76	4949.9	
417.97	6638.8	
418.17	6448.4	
418.37	4726.7	
418.57	4729.4	
418.78	6349.4	
418.98	6085.9	
419.18	5385.5	
419.38	5337.7	
419.59	6182.8	
419.79	5835.3	
419.99	4603.2	
420.2	4895.3	
420.4	6514.6	
420.6	6592.4	
420.8	4521.9	
421.01	4461.2	
421.21	6298.2	
421.41	6417	
421.61	4864.6	
421.82	4640	
422.02	6017.6	
422.22	6729.6	
422.42	5275.6	
422.63	4986.8	
422.83	6087.9	
423.03	6954.9	
423.23	5025	
423.44	4268.6	
423.64	6126.2	
423.84	5866.1	
424.04	4579.9	
424.25	4340.3	
424.45	6805.4	
424.65	6737.8	
424.85	4179.2	
425.06	4638.6	
425.26	6888.7	
425.46	6042.9	
425.66	4967	
425.87	4709.6	
426.07	6602.7	
426.27	6432.7	
426.47	4825	
426.67	4384.7	
426.88	6939.2	
427.08	6448.4	
427.28	5096	
427.48	4328	
427.69	5670.8	
427.89	6103.6	
428.09	5001.1	
428.29	4379.9	
428.5	6640.2	
428.7	6285.2	
428.9	4319.8	
429.1	4663.9	
429.3	6267.5	
429.51	6507.8	
429.71	4508.9	
429.91	5139	
430.11	6559.6	
430.31	6901	
430.52	4735.6	
430.72	4917.2	
430.92	6870.3	
431.12	6523.5	
431.32	4504.8	
431.53	4882.4	
431.73	5752.7	
431.93	7005.4	
432.13	4453.6	
432.33	4384	
432.54	6120	
432.74	6247.7	
432.94	4354	
433.14	5130.2	
433.34	6557.6	
433.55	6102.9	
433.75	5133.6	
433.95	6467.5	
434.15	6356.2	
434.35	6139.1	
434.56	4591.5	
434.76	4235.9	
434.96	6395.1	
435.16	6593.8	
435.36	4431.8	
435.56	5354.1	
435.77	6090	
435.97	6256.5	
436.17	5831.2	
436.37	5258.5	
436.57	6059.3	
436.78	5985.5	
436.98	6532.3	
437.18	5685.8	
437.38	6562.4	
437.58	6142.5	
437.78	5819	
437.99	4835.3	
438.19	6632.7	
438.39	7724.9	
438.59	4823	
438.79	4366.3	
438.99	7152.9	
439.2	6172.6	
439.4	4429.1	
439.6	4445.5	
439.8	6442.9	
440	7232.7	
440.2	5207.3	
440.4	5253	
440.61	6718.7	
440.81	7087.3	
441.01	4651.6	
441.21	5295.4	
441.41	7145.4	
441.61	6767.9	
441.81	5615.5	
442.02	6383.5	
442.22	7481.9	
442.42	6967.2	
442.62	4805.2	
442.82	4786.1	
443.02	7191.1	
443.22	6480.5	
443.43	5128.8	
443.63	4792.9	
443.83	6431.3	
444.03	6374.6	
444.23	5659.9	
444.43	5369.8	
444.63	6679.8	
444.83	7496.2	
445.04	4917.9	
445.24	5854.5	
445.44	6930.3	
445.64	6903.7	
445.84	5397.1	
446.04	5572.5	
446.24	6432.7	
446.44	7191.8	
446.65	4820.2	
446.85	5199.1	
447.05	6647.7	
447.25	7172.7	
447.45	5254.4	
447.65	4743.8	
447.85	6696.2	
448.05	6360.3	
448.25	5466	
448.46	5404.6	
448.66	6673.6	
448.86	6440.9	
449.06	4653.7	
449.26	5504.9	
449.46	6986.3	
449.66	6254.5	
449.86	5227.8	
450.06	5171.1	
450.26	6356.2	
450.47	6875.7	
450.67	5342.5	
450.87	5623	
451.07	6927.6	
451.27	6782.9	
451.47	4922.6	
451.67	5284.4	
451.87	6550.8	
452.07	7358.4	
452.27	5150.6	
452.47	4971.8	
452.67	6790.4	
452.88	7037.5	
453.08	4575.8	
453.28	6085.2	
453.48	7697.6	
453.68	6724.2	
453.88	5009.3	
454.08	5073.5	
454.28	7021.8	
454.48	6690	
454.68	5609.4	
454.88	5900.2	
455.08	7141.9	
455.28	6829.3	
455.48	4928.8	
455.68	5414.1	
455.89	7544.7	
456.09	7172.7	
456.29	5196.4	
456.49	5304.2	
456.69	7524.2	
456.89	7002.7	
457.09	5639.4	
457.29	5987.6	
457.49	7115.3	
457.69	7253.2	
457.89	5507	
458.09	5057.8	
458.29	7043	
458.49	7517.4	
458.69	5879.7	
458.89	5436	
459.09	7750.9	
459.29	7949.5	
459.49	5535	
459.69	6154.8	
459.9	7438.2	
460.1	7034.1	
460.3	5453.1	
460.5	5289.2	
460.7	7455.3	
460.9	7079.8	
461.1	5047.6	
461.3	6004.6	
461.5	7845.8	
461.7	7605.5	
461.9	5393	
462.1	5681.7	
462.3	7202.7	
462.5	7682.6	
462.7	5539.8	
462.9	5559.6	
463.1	8510.7	
463.3	8236.9	
463.5	5799.2	
463.7	6476.4	
463.9	7527	
464.1	7699	
464.3	5939.8	
464.5	6068.8	
464.7	7980.9	
464.9	7749.5	
465.1	7100.3	
465.3	6326.9	
465.5	8244.4	
465.7	8215.1	
465.9	6639.5	
466.1	6379.4	
466.3	8062.9	
466.5	7899	
466.7	7103	
466.9	6270.2	
467.1	8092.9	
467.3	8673.1	
467.5	7052.5	
467.7	6294.1	
467.9	8785.8	
468.1	9523.1	
468.3	6800.6	
468.5	7158.3	
468.7	8005.5	
468.9	7983	
469.1	6579.4	
469.3	7081.2	
469.5	9542.2	
469.7	7750.2	
469.9	6911.9	
470.1	6355.5	
470.3	8231.5	
470.5	8079.2	
470.7	7331.7	
470.9	6425.8	
471.1	7963.9	
471.3	8308.6	
471.5	6322.1	
471.69	7702.4	
471.89	7974.1	
472.09	7416.4	
472.29	6884.6	
472.49	7128.3	
472.69	7721.5	
472.89	8295.6	
473.09	6273.6	
473.29	6349.4	
473.49	7759.1	
473.69	7883.3	
473.89	7032.7	
474.09	6468.2	
474.29	8810.4	
474.49	8409.6	
474.69	7008.1	
474.89	6499.6	
475.09	7925	
475.29	7908.6	
475.49	6098.2	
475.69	6333	
475.88	9032.9	
476.08	8232.2	
476.28	6097.5	
476.48	6362.4	
476.68	8469	
476.88	8323.6	
477.08	6303	
477.28	6559	
477.48	7939.3	
477.68	8307.2	
477.88	6122.1	
478.08	6415.6	
478.28	8708	
478.48	8076.5	
478.67	6556.9	
478.87	5899.5	
479.07	8516.1	
479.27	8176.2	
479.47	6663.4	
479.67	6677.7	
479.87	8415.1	
480.07	8731.2	
480.27	6133	
480.47	7214.3	
480.67	8113.4	
480.87	8655.4	
481.06	6246.3	
481.26	6982.2	
481.46	8133.2	
481.66	8036.9	
481.86	6759.7	
482.06	7340.6	
482.26	7981.6	
482.46	8804.2	
482.66	6564.4	
482.86	6371.2	
483.05	8340	
483.25	7823.2	
483.45	8447.2	
483.65	6602.7	
483.85	7844.4	
484.05	8094.9	
484.25	6974	
484.45	7243	
484.65	8768.7	
484.84	8799.4	
485.04	6584.2	
485.24	6631.3	
485.44	9024.7	
485.64	7773.4	
485.84	6205.3	
486.04	7132.4	
486.24	8105.2	
486.44	8262.2	
486.63	6107.7	
486.83	6819.1	
487.03	8129.1	
487.23	8228.1	
487.43	6222.4	
487.63	7934.5	
487.83	8241.7	
488.02	8966	
488.22	7019.8	
488.42	7421.2	
488.62	8993.3	
488.82	8076.5	
489.02	6750.8	
489.22	6754.9	
489.41	8904.6	
489.61	8643.8	
489.81	6497.5	
490.01	6610.2	
490.21	8925	
490.41	9303.9	
490.61	6625.9	
490.8	6683.9	
491	8496.3	
491.2	7978.9	
491.4	7272.3	
491.6	6591	
491.8	8488.8	
491.99	8536.6	
492.19	6350.8	
492.39	6658.6	
492.59	8757.1	
492.79	8863.6	
492.99	7253.2	
493.18	6566.5	
493.38	8902.5	
493.58	9507.4	
493.78	7071	
493.98	6802	
494.18	8763.3	
494.37	8311.3	
494.57	7427.3	
494.77	7258.7	
494.97	9065.7	
495.17	9220.6	
495.37	7094.8	
495.56	7360.4	
495.76	9441.8	
495.96	9219.3	
496.16	8071	
496.36	7318.8	
496.55	9484.1	
496.75	9015.2	
496.95	7588.4	
497.15	7613.7	
497.35	9417.2	
497.54	9445.9	
497.74	7453.9	
497.94	8800.8	
498.14	10024	
498.34	9684.2	
498.53	7227.3	
498.73	7723.6	
498.93	8989.2	
499.13	9460.9	
499.33	7866.2	
499.52	7770	
499.72	9512.1	
499.92	9564	
500.12	7464.8	
500.32	7658.7	
500.51	9645.9	
500.71	9528.5	
500.91	8248.5	
501.11	7907.9	
501.31	9649.3	
501.5	9923.8	
501.7	8557.1	
501.9	7812.3	
502.1	9443.9	
502.29	9809.1	
502.49	8161.2	
502.69	8523	
502.89	9673.2	
503.09	9608.4	
503.28	7331.7	
503.48	7521.5	
503.68	9096.4	
503.88	9067.7	
504.07	8081.3	
504.27	7728.4	
504.47	9340.1	
504.67	9440.5	
504.86	8078.6	
505.06	7850.5	
505.26	9157.8	
505.46	10361	
505.65	7748.1	
505.85	7939.3	
506.05	9171.5	
506.25	9427.5	
506.44	7252.5	
506.64	7941.3	
506.84	8975.6	
507.04	9707.4	
507.23	7306.5	
507.43	7821.9	
507.63	10353	
507.83	9045.9	
508.02	7712.7	
508.22	7439.6	
508.42	10706	
508.62	9017.9	
508.81	7671.7	
509.01	8198	
509.21	8838.4	
509.4	9112.8	
509.6	7884	
509.8	7324.2	
510	8996.7	
510.19	9970.2	
510.39	7277.8	
510.59	7385	
510.79	9007.6	
510.98	9969.5	
511.18	7542.7	
511.38	7654.6	
511.57	9654.8	
511.77	9387.9	
511.97	8049.2	
512.17	7406.8	
512.36	9535.3	
512.56	9471.2	
512.76	7338.6	
512.95	7182.2	
513.15	9671.9	
513.35	8508.6	
513.55	8012.3	
513.74	7434.8	
513.94	9586.5	
514.14	9072.5	
514.33	8193.2	
514.53	7834.8	
514.73	9161.9	
514.92	9184.5	
515.12	7582.9	
515.32	7369.3	
515.51	9256.8	
515.71	9633	
515.91	8725.7	
516.11	7378.8	
516.3	10554	
516.5	9153.1	
516.7	7991.2	
516.89	8296.3	
517.09	9194	
517.29	9178.3	
517.48	8088.8	
517.68	7681.2	
517.88	8932.6	
518.07	9441.1	
518.27	8132.5	
518.47	7376.8	
518.66	9915.6	
518.86	8811	
519.06	7342	
519.25	7559.7	
519.45	9033.6	
519.65	10224	
519.84	8067.6	
520.04	8576.9	
520.24	10544	
520.43	9657.5	
520.63	7991.9	
520.83	7699	
521.02	9161.9	
521.22	9574.9	
521.42	8138.6	
521.61	8475.9	
521.81	9098.4	
522.01	9215.9	
522.2	7867.6	
522.4	7736.5	
522.6	9704.6	
522.79	8621.9	
522.99	7888.8	
523.18	7418.4	
523.38	9436.4	
523.58	9488.9	
523.77	8882.7	
523.97	7427.3	
524.17	10966	
524.36	10363	
524.56	8502.5	
524.76	8219.2	
524.95	9617.3	
525.15	9415.2	
525.34	8127.7	
525.54	8185	
525.74	10004	
525.93	9241.8	
526.13	9045.2	
526.33	8199.4	
526.52	10346	
526.72	10007	
526.91	9224.7	
527.11	8644.5	
527.31	10318	
527.5	10689	
527.7	8649.9	
527.89	7901.1	
528.09	9627.5	
528.29	9986.6	
528.48	8898.4	
528.68	8530.5	
528.87	10431	
529.07	10365	
529.27	8744.1	
529.46	8328.4	
529.66	10221	
529.85	10694	
530.05	8297.7	
530.25	8858.1	
530.44	11320	
530.64	10192	
530.83	8656.1	
531.03	8763.3	
531.23	10548	
531.42	10342	
531.62	9200.8	
531.81	8654	
532.01	10745	
532.21	10932	
532.4	8561.9	
532.6	8901.8	
532.79	11311	
532.99	10710	
533.18	9052.7	
533.38	9742.2	
533.58	10518	
533.77	11049	
533.97	9017.9	
534.16	9633	
534.36	11320	
534.55	10626	
534.75	9768.8	
534.95	9109.4	
535.14	11292	
535.34	10619	
535.53	9019.9	
535.73	10451	
535.92	11789	
536.12	10731	
536.31	9013.1	
536.51	9951.1	
536.71	11006	
536.9	10660	
537.1	9070.5	
537.29	9168.8	
537.49	11146	
537.68	10604	
537.88	9538.1	
538.07	8830.2	
538.27	10776	
538.46	11533	
538.66	8862.9	
538.86	9195.4	
539.05	10839	
539.25	11233	
539.44	9519	
539.64	9159.2	
539.83	10843	
540.03	11677	
540.22	9113.5	
540.42	9161.2	
540.61	10961	
540.81	10976	
541	9422	
541.2	9947.7	
541.39	10560	
541.59	10828	
541.78	9799.5	
541.98	9069.8	
542.18	10425	
542.37	10491	
542.57	9320.3	
542.76	9798.2	
542.96	10360	
543.15	10913	
543.35	9410.4	
543.54	8796.7	
543.74	10929	
543.93	10761	
544.13	9327.1	
544.32	10036	
544.52	10918	
544.71	10346	
544.91	8529.8	
545.1	9455.5	
545.3	10359	
545.49	10828	
545.69	8521.6	
545.88	9013.1	
546.08	11637	
546.27	11236	
546.47	9378.3	
546.66	8759.8	
546.86	11021	
547.05	11428	
547.24	8922.3	
547.44	8871.8	
547.63	10206	
547.83	11093	
548.02	9145.5	
548.22	9240.4	
548.41	10052	
548.61	11049	
548.8	8744.1	
549	8688.2	
549.19	10555	
549.39	10860	
549.58	8591.9	
549.78	8959.9	
549.97	10878	
550.17	10514	
550.36	9547.6	
550.55	10317	
550.75	10380	
550.94	11112	
551.14	8686.1	
551.33	8930.5	
551.53	9885.5	
551.72	10662	
551.92	8908.7	
552.11	8800.1	
552.31	10729	
552.5	10635	
552.69	10077	
552.89	8475.9	
553.08	10723	
553.28	10503	
553.47	8792.6	
553.67	9615.9	
553.86	11133	
554.06	9760.6	
554.25	8127	
554.44	8647.9	
554.64	11595	
554.83	11272	
555.03	8613.8	
555.22	8814.5	
555.42	10742	
555.61	10603	
555.8	8791.2	
556	8879.3	
556.19	9927.2	
556.39	10740	
556.58	8679.3	
556.78	8734.6	
556.97	10520	
557.16	10195	
557.36	9669.1	
557.55	8485.4	
557.75	9682.1	
557.94	11047	
558.13	8574.2	
558.33	8298.4	
558.52	10907	
558.72	10034	
558.91	8469.7	
559.1	8643.1	
559.3	9811.8	
559.49	9621.4	
559.69	8143.4	
559.88	8856.8	
560.07	10355	
560.27	10731	
560.46	9047.9	
560.66	9110	
560.85	10301	
561.04	9661.6	
561.24	8395.3	
561.43	8548.2	
561.63	9795.4	
561.82	10076	
562.01	9439.1	
562.21	8732.5	
562.4	10345	
562.59	11045	
562.79	8591.9	
562.98	8409	
563.18	10312	
563.37	11357	
563.56	9039.7	
563.76	8376.2	
563.95	9976.3	
564.14	9954.5	
564.34	8748.2	
564.53	8462.2	
564.73	10471	
564.92	10606	
565.11	8904.6	
565.31	8278.6	
565.5	10921	
565.69	10002	
565.89	8630.1	
566.08	8840.4	
566.27	10682	
566.47	11153	
566.66	9259.5	
566.85	8287.4	
567.05	10535	
567.24	10089	
567.44	8536.6	
567.63	9623.4	
567.82	10676	
568.02	10416	
568.21	8634.2	
568.4	8837	
568.6	10394	
568.79	10404	
568.98	8452.6	
569.18	8579.6	
569.37	10460	
569.56	11981	
569.76	8966	
569.95	9706	
570.14	10701	
570.34	10746	
570.53	8606.2	
570.72	8628.8	
570.91	11070	
571.11	10413	
571.3	9044.5	
571.49	9621.4	
571.69	10575	
571.88	10132	
572.07	9356.5	
572.27	9317.6	
572.46	10254	
572.65	10980	
572.85	8818.6	
573.04	9050.7	
573.23	11269	
573.43	10627	
573.62	8671.1	
573.81	9181.7	
574	10685	
574.2	10565	
574.39	9015.2	
574.58	9120.3	
574.78	11455	
574.97	10824	
575.16	9385.2	
575.36	9600.2	
575.55	11187	
575.74	11254	
575.93	8935.3	
576.13	9654.1	
576.32	10740	
576.51	11211	
576.71	9225.4	
576.9	10314	
577.09	11426	
577.28	11215	
577.48	9594.7	
577.67	8788.5	
577.86	10810	
578.05	11086	
578.25	9321.7	
578.44	9402.2	
578.63	10899	
578.83	11867	
579.02	8839	
579.21	10113	
579.4	11149	
579.6	10798	
579.79	9521	
579.98	11251	
580.17	11286	
580.37	11449	
580.56	9026.8	
580.75	9725.1	
580.94	11568	
581.14	11738	
581.33	9979.8	
581.52	9186.5	
581.71	11220	
581.91	11827	
582.1	9042.5	
582.29	9400.2	
582.48	10944	
582.68	10995	
582.87	9818	
583.06	9628.9	
583.25	11296	
583.45	10836	
583.64	10124	
583.83	10602	
584.02	10900	
584.21	11417	
584.41	10026	
584.6	9525.8	
584.79	11181	
584.98	11618	
585.18	9196.7	
585.37	9196.1	
585.56	10843	
585.75	11396	
585.94	9330.5	
586.14	9766.1	
586.33	11624	
586.52	11038	
586.71	9729.2	
586.91	9450	
587.1	10565	
587.29	11386	
587.48	9361.9	
587.67	9375.6	
587.87	11327	
588.06	11131	
588.25	10234	
588.44	9689.6	
588.63	10890	
588.83	11443	
589.02	9223.4	
589.21	9222.7	
589.4	10800	
589.59	10762	
589.78	8652.7	
589.98	8811.7	
590.17	10371	
590.36	10686	
590.55	8204.8	
590.74	8691.6	
590.94	11394	
591.13	10303	
591.32	8527.7	
591.51	8068.3	
591.7	10630	
591.89	10305	
592.09	8210.3	
592.28	8523.6	
592.47	9601.6	
592.66	11219	
592.85	8320.9	
593.05	8460.8	
593.24	10248	
593.43	10873	
593.62	8604.2	
593.81	8853.4	
594	10312	
594.19	10410	
594.39	8392.6	
594.58	8383	
594.77	10608	
594.96	10968	
595.15	8443.1	
595.34	8890.9	
595.54	10445	
595.73	9869.2	
595.92	7941.3	
596.11	8786.5	
596.3	10802	
596.49	9949.7	
596.68	8505.9	
596.88	8906.6	
597.07	10449	
597.26	9654.8	
597.45	8141.4	
597.64	9127.1	
597.83	9908.8	
598.02	10451	
598.22	8235.6	
598.41	8686.1	
598.6	10208	
598.79	9768.1	
598.98	8342.7	
599.17	8993.3	
599.36	10303	
599.55	11001	
599.74	9762	
599.94	9654.1	
600.13	10630	
600.32	9677.3	
600.51	8021.2	
600.7	8143.4	
600.89	11039	
601.08	11218	
601.27	8075.8	
601.47	8845.2	
601.66	10490	
601.85	11045	
602.04	8610.3	
602.23	8581	
602.42	9880.8	
602.61	10281	
602.8	8376.2	
602.99	8144.1	
603.18	10113	
603.37	10213	
603.57	8666.3	
603.76	9065.7	
603.95	10868	
604.14	10428	
604.33	8350.9	
604.52	8578.3	
604.71	10383	
604.9	9919.7	
605.09	9030.2	
605.28	8868.4	
605.47	10717	
605.66	10366	
605.86	8769.4	
606.05	8381.7	
606.24	10701	
606.43	9506	
606.62	8658.1	
606.81	9180.4	
607	10619	
607.19	9982.5	
607.38	8125	
607.57	8344.1	
607.76	9817.3	
607.95	9456.2	
608.14	8612.4	
608.33	9067	
608.52	9766.1	
608.72	10557	
608.91	7953.6	
609.1	7963.2	
609.29	9846	
609.48	9538.1	
609.67	8597.4	
609.86	8034.9	
610.05	9660.3	
610.24	9850.7	
610.43	7913.4	
610.62	7670.3	
610.81	10692	
611	10488	
611.19	7999.4	
611.38	8543.4	
611.57	10097	
611.76	11012	
611.95	7828.7	
612.14	7769.3	
612.33	9896.5	
612.52	9568.1	
612.71	8372.1	
612.9	7602.7	
613.09	9271.2	
613.28	11030	
613.47	8132.5	
613.66	8786.5	
613.85	10035	
614.04	9564.7	
614.24	8081.3	
614.43	7563.1	
614.62	10189	
614.81	10079	
615	8467	
615.19	8609	
615.38	9510.8	
615.57	9867.8	
615.76	8409.6	
615.95	9213.8	
616.14	10149	
616.33	9885.5	
616.52	8684.1	
616.71	8809	
616.9	10101	
617.09	9939.5	
617.28	8312.7	
617.47	9011.7	
617.66	9511.4	
617.85	9538.8	
618.04	8819.9	
618.22	8375.5	
618.41	9790	
618.6	10489	
618.79	8480.6	
618.98	8215.8	
619.17	10648	
619.36	9381.7	
619.55	8433.5	
619.74	8458.1	
619.93	10199	
620.12	9788.6	
620.31	8867	
620.5	9028.1	
620.69	10657	
620.88	11092	
621.07	9645.9	
621.26	8943.5	
621.45	10406	
621.64	10613	
621.83	8989.2	
622.02	8353.7	
622.21	10548	
622.4	10361	
622.59	9409.1	
622.78	9250	
622.97	9988.6	
623.16	10738	
623.35	9018.6	
623.54	8317.5	
623.72	10193	
623.91	10248	
624.1	9197.4	
624.29	8220.5	
624.48	11262	
624.67	10498	
624.86	9129.8	
625.05	8515.5	
625.24	11289	
625.43	10132	
625.62	10408	
625.81	8598.1	
626	10788	
626.19	10269	
626.38	9130.5	
626.56	8698.4	
626.75	10132	
626.94	10785	
627.13	9237.7	
627.32	8260.8	
627.51	10697	
627.7	11658	
627.89	8425.3	
628.08	9253.4	
628.27	10058	
628.46	10239	
628.65	8604.2	
628.83	8250.6	
629.02	10585	
629.21	10077	
629.4	8896.4	
629.59	9065	
629.78	10027	
629.97	10832	
630.16	9000.1	
630.35	8710	
630.54	11211	
630.72	10944	
630.91	8657.4	
631.1	9144.9	
631.29	10486	
631.48	10627	
631.67	9170.1	
631.86	8654.7	
632.05	10268	
632.24	10284	
632.42	8401.5	
632.61	8938	
632.8	10251	
632.99	9967.5	
633.18	8957.8	
633.37	9188.6	
633.56	10548	
633.75	10292	
633.93	9029.5	
634.12	8728.4	
634.31	11122	
634.5	10768	
634.69	8775.5	
634.88	9166.7	
635.07	10357	
635.25	10778	
635.44	9443.2	
635.63	9590	
635.82	10303	
636.01	9723.8	
636.2	9454.8	
636.39	9083.4	
636.57	11051	
636.76	10682	
636.95	8600.1	
637.14	9641.8	
637.33	10587	
637.52	11073	
637.7	8430.1	
637.89	9173.5	
638.08	10293	
638.27	11295	
638.46	9241.8	
638.65	9480.7	
638.83	11219	
639.02	10085	
639.21	9176.9	
639.4	9502.6	
639.59	10447	
639.78	10159	
639.96	8521.6	
640.15	8615.8	
640.34	10308	
640.53	10360	
640.72	8281.3	
640.91	8584.4	
641.09	9791.3	
641.28	10864	
641.47	8545.5	
641.66	9205.6	
641.85	10337	
642.03	10449	
642.22	8880	
642.41	8612.4	
642.6	9798.8	
642.79	9536.7	
642.97	8465.6	
643.16	8948.9	
643.35	9837.8	
643.54	9609.8	
643.73	8272.4	
643.91	8959.9	
644.1	9635	
644.29	10017	
644.48	8292.9	
644.67	8359.1	
644.85	9632.3	
645.04	10004	
645.23	7991.2	
645.42	8229.4	
645.6	9436.4	
645.79	10331	
645.98	8049.2	
646.17	7418.4	
646.36	9278.7	
646.54	9590	
646.73	8536.6	
646.92	7826.7	
647.11	9293.7	
647.29	10207	
647.48	7750.9	
647.67	7608.9	
647.86	10253	
648.05	10333	
648.23	7996.6	
648.42	8947.6	
648.61	9901.2	
648.8	9624.8	
648.98	7602.1	
649.17	7903.1	
649.36	9153.7	
649.55	8940.1	
649.73	7623.9	
649.92	8258.8	
650.11	9214.5	
650.3	9435.7	
650.48	7860.8	
650.67	7606.2	
650.86	9676	
651.05	8811.7	
651.23	7759.1	
651.42	7717.4	
651.61	9200.2	
651.79	9167.4	
651.98	7843.7	
652.17	7551.5	
652.36	9462.3	
652.54	8805.6	
652.73	7672.4	
652.92	7566.6	
653.11	9473.2	
653.29	9611.8	
653.48	7115.3	
653.67	7902.4	
653.85	9366.7	
654.04	10124	
654.23	7965.9	
654.42	7598	
654.6	8887.5	
654.79	9385.2	
654.98	7098.9	
655.16	7621.2	
655.35	8484.7	
655.54	8384.4	
655.73	7007.5	
655.91	6899.6	
656.1	9032.9	
656.29	8198	
656.47	6509.1	
656.66	7940	
656.85	8428.1	
657.03	8611	
657.22	7096.2	
657.41	7219.1	
657.59	8635.6	
657.78	8562.6	
657.97	7014.3	
658.16	7585	
658.34	9288.2	
658.53	9538.8	
658.72	8243.8	
658.9	8677.9	
659.09	8962.6	
659.28	8914.8	
659.46	7386.3	
659.65	7335.1	
659.84	8650.6	
660.02	9208.4	
660.21	7339.9	
660.4	7248.4	
660.58	9411.1	
660.77	8939.4	
660.96	7714	
661.14	7012.9	
661.33	9788.6	
661.52	9664.4	
661.7	6935.8	
661.89	9710.8	
662.08	8680	
662.26	8359.8	
662.45	7136.5	
662.64	7212.3	
662.82	9256.8	
663.01	8616.5	
663.2	7220.5	
663.38	7772	
663.57	9108	
663.75	8918.2	
663.94	7398.6	
664.13	8288.1	
664.31	8662.9	
664.5	9112.8	
664.69	7626	
664.87	7987.1	
665.06	8458.1	
665.25	8911.4	
665.43	8122.2	
665.62	8281.3	
665.8	9129.2	
665.99	8746.9	
666.18	7394.5	
666.36	7493.5	
666.55	9116.9	
666.74	9091.6	
666.92	7158.3	
667.11	8387.8	
667.29	8731.2	
667.48	9145.5	
667.67	7991.2	
667.85	7317.4	
668.04	8650.6	
668.22	8660.2	
668.41	7456.7	
668.6	7644.4	
668.78	8538.7	
668.97	8736	
669.15	7646.4	
669.34	6936.5	
669.53	8490.9	
669.71	8750.3	
669.9	7052.5	
670.08	7544.7	
670.27	8507.3	
670.46	8970.1	
670.64	7770.7	
670.83	7908.6	
671.01	8304.5	
671.2	8819.2	
671.38	7127.6	
671.57	7033.4	
671.76	9308	
671.94	9807	
672.13	7038.2	
672.31	7652.6	
672.5	9089.6	
672.69	8524.3	
672.87	7222.5	
673.06	7344	
673.24	8867.7	
673.43	8553.7	
673.61	7649.2	
673.8	7318.1	
673.98	8911.4	
674.17	9146.2	
674.36	7735.2	
674.54	7627.3	
674.73	8763.3	
674.91	9055.4	
675.1	7383.6	
675.28	7079.8	
675.47	8716.2	
675.65	9104.6	
675.84	7394.5	
676.03	7524.9	
676.21	8502.5	
676.4	8126.3	
676.58	7942.7	
676.77	7806.2	
676.95	9673.2	
677.14	8445.1	
677.32	6963.1	
677.51	6964.5	
677.69	9125.7	
677.88	8239.7	
678.06	7045	
678.25	7009.5	
678.44	8777.6	
678.62	8432.9	
678.81	6905.1	
678.99	7660.1	
679.18	9246.6	
679.36	8840.4	
679.55	7288	
679.73	7721.5	
679.92	8918.2	
680.1	8566.7	
680.29	8206.2	
680.47	7191.1	
680.66	8501.1	
680.84	9095.7	
681.03	6757.6	
681.21	7644.4	
681.4	8560.5	
681.58	8438.3	
681.77	7045	
681.95	7074.4	
682.14	9139.4	
682.32	9385.8	
682.51	7753.6	
682.69	6802.7	
682.88	8475.2	
683.06	8829.5	
683.25	7510.6	
683.43	7785	
683.62	8671.1	
683.8	8994	
683.99	7902.4	
684.17	7383.6	
684.36	9562	
684.54	8596	
684.73	6935.1	
684.91	6954.9	
685.1	8773.5	
685.28	8306.6	
685.46	7217.7	
685.65	7208.8	
685.83	8656.1	
686.02	8103.8	
686.2	6555.5	
686.39	6589	
686.57	7884.7	
686.76	9004.2	
686.94	6634.1	
687.13	6821.1	
687.31	8463.6	
687.5	8228.7	
687.68	6390.3	
687.86	7276.4	
688.05	9534.7	
688.23	7810.3	
688.42	7391.1	
688.6	6766.5	
688.79	8160.5	
688.97	8162.5	
689.16	7120.8	
689.34	6365.1	
689.52	8748.9	
689.71	9052.7	
689.89	7331.7	
690.08	6852.5	
690.26	8555.7	
690.45	8376.9	
690.63	7586.4	
690.81	7121.5	
691	8375.5	
691.18	8295.6	
691.37	7164.5	
691.55	8677.9	
691.74	8192.6	
691.92	9724.4	
692.1	7167.9	
692.29	6731.7	
692.47	8317.5	
692.66	7783.6	
692.84	6777.4	
693.02	7200	
693.21	7887.4	
693.39	8228.7	
693.58	7269.6	
693.76	6877.8	
693.94	9172.2	
694.13	9096.4	
694.31	7021.8	
694.5	7664.2	
694.68	8138.6	
694.86	8550.3	
695.05	7284.6	
695.23	7286	
695.42	8854.7	
695.6	10585	
695.78	7806.9	
695.97	7198.6	
696.15	8909.3	
696.34	8481.3	
696.52	6937.8	
696.7	7563.1	
696.89	8761.2	
697.07	8252.6	
697.25	7438.2	
697.44	8499.1	
697.62	8610.3	
697.81	8798.8	
697.99	7106.5	
698.17	7559.7	
698.36	8222.6	
698.54	8651.3	
698.72	7376.1	
698.91	6695.5	
699.09	8279.3	
699.28	8204.2	
699.46	7131.7	
699.64	7055.3	
699.83	8130.4	
700.01	8936	
700.19	7692.9	
700.38	6421.7	
700.56	8867	
700.74	8258.1	
700.93	6634.7	
701.11	7363.1	
701.29	8680	
701.48	9449.3	
701.66	6905.1	
701.84	7066.2	
702.03	8379.6	
702.21	8911.4	
702.39	6623.8	
702.58	7176.8	
702.76	8713.4	
702.94	8769.4	
703.13	6700.3	
703.31	8512	
703.49	8208.3	
703.68	9275.9	
703.86	6885.3	
704.04	7562.5	
704.23	8522.3	
704.41	8850	
704.59	6888.7	
704.78	7826.7	
704.96	9805	
705.14	8770.8	
705.33	6799.3	
705.51	7299	
705.69	8305.9	
705.87	8925.7	
706.06	7537.9	
706.24	6746	
706.42	8576.2	
706.61	8805.6	
706.79	7553.6	
706.97	6691.4	
707.16	8099.7	
707.34	8557.8	
707.52	7474.4	
707.7	6827.9	
707.89	8226.7	
708.07	8037.6	
708.25	7481.2	
708.44	7607.5	
708.62	8066.3	
708.8	9003.6	
708.98	7678.5	
709.17	6828.6	
709.35	8389.2	
709.53	8353	
709.72	6686.6	
709.9	6980.8	
710.08	8659.5	
710.26	8673.8	
710.45	7825.3	
710.63	6869.6	
710.81	8338.6	
710.99	8332.5	
711.18	7249.1	
711.36	6829.3	
711.54	8123.6	
711.72	8710.7	
711.91	6885.3	
712.09	6500.9	
712.27	8285.4	
712.45	8596	
712.64	6947.4	
712.82	6228.6	
713	7744.1	
713.18	7817.8	
713.37	6299.6	
713.55	7127.6	
713.73	8436.3	
713.91	7421.2	
714.1	6587.6	
714.28	6042.9	
714.46	8133.2	
714.64	7358.4	
714.83	5542.5	
715.01	5997.1	
715.19	7317.4	
715.37	6705.7	
715.55	5556.1	
715.74	5839.4	
715.92	7789.8	
716.1	6224.5	
716.28	6576.7	
716.47	5827.8	
716.65	6756.9	
716.83	6776.7	
717.01	5642.8	
717.19	5633.3	
717.38	8282.7	
717.56	6500.9	
717.74	5746.6	
717.92	5198.4	
718.1	7367.2	
718.29	6706.4	
718.47	4833.9	
718.65	5387.5	
718.83	7363.8	
719.01	7318.1	
719.2	4949.9	
719.38	5822.4	
719.56	7198.6	
719.74	8296.3	
719.92	5522.7	
720.11	6294.8	
720.29	7374.7	
720.47	6619.7	
720.65	5175.9	
720.83	5795.1	
721.02	6855.9	
721.2	6642.2	
721.38	5692.7	
721.56	5160.2	
721.74	6040.1	
721.92	6208.8	
722.11	6013.5	
722.29	5769.8	
722.47	7201.3	
722.65	6537.1	
722.83	5053	
723.01	5758.9	
723.2	6580.1	
723.38	6808.1	
723.56	4571.1	
723.74	5488.6	
723.92	6173.9	
724.1	6996.5	
724.29	4997	
724.47	5882.4	
724.65	6298.2	
724.83	6182.8	
725.01	4887.1	
725.19	5489.2	
725.37	6125.5	
725.56	6101.6	
725.74	4756.7	
725.92	4864.6	
726.1	6176.7	
726.28	6315.3	
726.46	5186.8	
726.64	4974.5	
726.83	6336.4	
727.01	6464.1	
727.19	4698.7	
727.37	5259.2	
727.55	6420.4	
727.73	6730.3	
727.91	4692.6	
728.09	4569	
728.28	6757.6	
728.46	7048.4	
728.64	5321.3	
728.82	5253	
729	7477.1	
729.18	7010.2	
729.36	4727.4	
729.54	6328.2	
729.72	7765.2	
729.91	6505.7	
730.09	6178	
730.27	5165	
730.45	6390.3	
730.63	6802.7	
730.81	5654.4	
730.99	4962.2	
731.17	7242.3	
731.35	6163.7	
731.53	5361.6	
731.71	5059.2	
731.9	7055.9	
732.08	7114.6	
732.26	5220.3	
732.44	4947.9	
732.62	7179.5	
732.8	6789	
732.98	5492.7	
733.16	4761.5	
733.34	6788.3	
733.52	5723.4	
733.7	5133.6	
733.88	5300.1	
734.07	6533	
734.25	6379.4	
734.43	4656.4	
734.61	5780.7	
734.79	7583.6	
734.97	6273.6	
735.15	4827.1	
735.33	5027.1	
735.51	6527.6	
735.69	6243.6	
735.87	5793	
736.05	5180.7	
736.23	6374.6	
736.41	6094.8	
736.59	5090.6	
736.77	5070.8	
736.95	6660	
737.13	6096.1	
737.32	4698.7	
737.5	4853	
737.68	7099.6	
737.86	6087.9	
738.04	4468	
738.22	5913.9	
738.4	5961	
738.58	6193.7	
738.76	5009.3	
738.94	4203.1	
739.12	6043.6	
739.3	5941.2	
739.48	5350.7	
739.66	5191.6	
739.84	6247	
740.02	6233.3	
740.2	4207.2	
740.38	4452.3	
740.56	6414.9	
740.74	5504.9	
740.92	4973.8	
741.1	4916.5	
741.28	5998.5	
741.46	5816.2	
741.64	4622.3	
741.82	4943.8	
742	6046.3	
742.18	5955.5	
742.36	4682.3	
742.54	4396.3	
742.72	6349.4	
742.9	5366.4	
743.08	5005.2	
743.26	4040	
743.44	6436.8	
743.62	6258.6	
743.8	5019.6	
743.98	4343.7	
744.16	6060.6	
744.34	5801.2	
744.52	4887.8	
744.7	4892.6	
744.88	6193.1	
745.06	5855.1	
745.24	4961.5	
745.42	5005.9	
745.6	6238.8	
745.78	6092.7	
745.96	4070	
746.14	4214.7	
746.32	6699.6	
746.5	6217	
746.68	4702.8	
746.86	4230.4	
747.03	6445	
747.21	5244.8	
747.39	4644.8	
747.57	4253.6	
747.75	5855.8	
747.93	6115.2	
748.11	4177.2	
748.29	4136.9	
748.47	7078.5	
748.65	5640.8	
748.83	4693.9	
749.01	4508.3	
749.19	5987.6	
749.37	5324.7	
749.55	4467.3	
749.73	4438.6	
749.91	5767.8	
750.09	5563.6	
750.26	4509.6	
750.44	4034.5	
750.62	5710.4	
750.8	5679.7	
750.98	3878.2	
751.16	4182	
751.34	5791	
751.52	5240.1	
751.7	4748.6	
751.88	3828.3	
752.06	6084.5	
752.24	5855.8	
752.42	3767.6	
752.59	4111	
752.77	5679.7	
752.95	6591.7	
753.13	4688.5	
753.31	4182	
753.49	5397.8	
753.67	5663.3	
753.85	4394.9	
754.03	4061.8	
754.21	5917.9	
754.38	6109.8	
754.56	4163.5	
754.74	3411.2	
754.92	5304.9	
755.1	5717.9	
755.28	3422.8	
755.46	3471.3	
755.64	6432.7	
755.82	6457.2	
755.99	3657	
756.17	3761.4	
756.35	4553.3	
756.53	5707.7	
756.71	2944.3	
756.89	3591.5	
757.07	5332.2	
757.25	4697.4	
757.42	4018.8	
757.6	4607.2	
757.78	5429.2	
757.96	4622.9	
758.14	3732.1	
758.32	3353.9	
758.5	4358.8	
758.67	5009.3	
758.85	3677.5	
759.03	3691.8	
759.21	5160.2	
759.39	4683	
759.57	3284.3	
759.75	4113.7	
759.92	5715.2	
760.1	5147.2	
760.28	4424.3	
760.46	4605.9	
760.64	4885.1	
760.82	4765.6	
760.99	4281.6	
761.17	3678.2	
761.35	5569.1	
761.53	4734.2	
761.71	3743.7	
761.89	4263.9	
762.06	5408.7	
762.24	5014.1	
762.42	3864.5	
762.6	3660.4	
762.78	5005.2	
762.96	5461.2	
763.13	4097.3	
763.31	3870.7	
763.49	5551.4	
763.67	4995	
763.85	4461.8	
764.02	4910.3	
764.2	5848.3	
764.38	5098.8	
764.56	3753.2	
764.74	4390.8	
764.91	5874.9	
765.09	4992.9	
765.27	3583.3	
765.45	3346.4	
765.63	5915.2	
765.8	5735.7	
765.98	3213.3	
766.16	3463.8	
766.34	4726.7	
766.52	4545.8	
766.69	4074.8	
766.87	3330.7	
767.05	5068.7	
767.23	5649	
767.41	3575.1	
767.58	3738.9	
767.76	5446.9	
767.94	5511.1	
768.12	3644.7	
768.29	4119.1	
768.47	5066.7	
768.65	5625.1	
768.83	3284.3	
769	4150.6	
769.18	4792.9	
769.36	5290.6	
769.54	4151.2	
769.72	3364.8	
769.89	5541.8	
770.07	5534.3	
770.25	3629	
770.43	4580.6	
770.6	6151.4	
770.78	6367.1	
770.96	3723.9	
771.14	4212	
771.31	5425.1	
771.49	4972.5	
771.67	3132.7	
771.85	3279.5	
772.02	4389.5	
772.2	4960.9	
772.38	3882.3	
772.55	3476.1	
772.73	5137	
772.91	4988.2	
773.09	3715	
773.26	3906.8	
773.44	5171.8	
773.62	4924.7	
773.8	3405.1	
773.97	3247.4	
774.15	5180	
774.33	4906.3	
774.5	3347.1	
774.68	3529.3	
774.86	5343.2	
775.04	4914.4	
775.21	3409.9	
775.39	3335.5	
775.57	5121.3	
775.74	5329.5	
775.92	3200.3	
776.1	3101.3	
776.27	5033.2	
776.45	6049	
776.63	3420.8	
776.81	3060.3	
776.98	4883.7	
777.16	5624.4	
777.34	3431	
777.51	3738.2	
777.69	4863.9	
777.87	4631.1	
778.04	3592.1	
778.22	3994.2	
778.4	4691.2	
778.57	5213.4	
778.75	2989.4	
778.93	3135.4	
779.1	4550.6	
779.28	4366.3	
779.46	3015.3	
779.64	3366.2	
779.81	5315.2	
779.99	5896.8	
780.17	3922.5	
780.34	4012.7	
780.52	4917.2	
780.69	5044.1	
780.87	3584.6	
781.05	3259	
781.22	4996.4	
781.4	4983.4	
781.58	3428.3	
781.75	2742.9	
781.93	4973.2	
782.11	4443.4	
782.28	4100.7	
782.46	3397.6	
782.64	4358.1	
782.81	5087.2	
782.99	3480.9	
783.17	3414	
783.34	4992.9	
783.52	4491.2	
783.69	3508.9	
783.87	4164.9	
784.05	4589.5	
784.22	4567.7	
784.4	4151.2	
784.58	3633.8	
784.75	5266.7	
784.93	4634.6	
785.1	3370.3	
785.28	3869.3	
785.46	5029.1	
785.63	4500.1	
785.81	3394.2	
785.99	3287	
786.16	4706.9	
786.34	4924	
786.51	3300.6	
786.69	3599	
786.87	4346.5	
787.04	4782.7	
787.22	3167.5	
787.39	3847.5	
787.57	4543.8	
787.75	5307.7	
787.92	4058.4	
788.1	3990.1	
788.27	4540.3	
788.45	4287.8	
788.63	3792.8	
788.8	2811.2	
788.98	4861.9	
789.15	4205.8	
789.33	2949.1	
789.5	3385.3	
789.68	5199.1	
789.86	5287.2	
790.03	3711.6	
790.21	3272.7	
790.38	5283.1	
790.56	4636.6	
790.73	3146.4	
790.91	3205.1	
791.09	4503.5	
791.26	5096.7	
791.44	3362.1	
791.61	2936.8	
791.79	4488.5	
791.96	4533.5	
792.14	3091.1	
792.32	2724.5	
792.49	4518.5	
792.67	4601.8	
792.84	3136.8	
793.02	2936.1	
793.19	4872.1	
793.37	5407.3	
793.54	2723.1	
793.72	2968.9	
793.89	5466	
794.07	4483	
794.25	3349.8	
794.42	2807.1	
794.6	5296	
794.77	5060.5	
794.95	3616	
795.12	3251.5	
795.3	4563.6	
795.47	4945.8	
795.65	3552.5	
795.82	3420.1	
796	4386.1	
796.17	5778	
796.35	3365.5	
796.52	3845.4	
796.7	4906.3	
796.87	5026.4	
797.05	3353.2	
797.22	3974.4	
797.4	4966.3	
797.57	5698.1	
797.75	3366.9	
797.92	3196.2	
798.1	5253	
798.27	4413.4	
798.45	2856.2	
798.62	3001	
798.8	4766.3	
798.97	5105.6	
799.15	3586.7	
799.32	3435.8	
799.5	4165.6	
799.67	4720.6	
799.85	3755.3	
800.02	2745	
800.2	4462.5	
800.37	4715.8	
800.55	3772.4	
800.72	3234.4	
800.9	5087.2	
801.07	5399.8	
801.25	4145.1	
801.42	3529.3	
801.6	5095.3	
801.77	4826.4	
801.95	3308.2	
802.12	3168.9	
802.29	4881	
802.47	4814.8	
802.64	3482.2	
802.82	2767.5	
802.99	4493.9	
803.17	5216.2	
803.34	3420.1	
803.52	3120.4	
803.69	5728.2	
803.87	4280.9	
804.04	3387.3	
804.21	3467.2	
804.39	5328.1	
804.56	4608.6	
804.74	2925.9	
804.91	3526.6	
805.09	4484.4	
805.26	4547.2	
805.44	2977.1	
805.61	3236.5	
805.78	4989.5	
805.96	5027.1	
806.13	3558.7	
806.31	3710.2	
806.48	4121.2	
806.66	4541.7	
806.83	3527.3	
807	3414	
807.18	4448.9	
807.35	4743.8	
807.53	3417.4	
807.7	2792.1	
807.87	5340.4	
808.05	4501.4	
808.22	3725.9	
808.4	2779.1	
808.57	4505.5	
808.74	4222.9	
808.92	3179.8	
809.09	3915	
809.27	4435.2	
809.44	4854.4	
809.61	2822.8	
809.79	3083.6	
809.96	5477	
810.14	5026.4	
810.31	2764.8	
810.48	3289	
810.66	4575.8	
810.83	5066.7	
811.01	3158.7	
811.18	3511.6	
811.35	5100.1	
811.53	3990.8	
811.7	3804.4	
811.87	3464.5	
812.05	4613.4	
812.22	4511.7	
812.39	3070.6	
812.57	2977.7	
812.74	4555.4	
812.92	5804.6	
813.09	3305.4	
813.26	3539.6	
813.44	5540.4	
813.61	4415.4	
813.78	2803	
813.96	3629	
814.13	4526	
814.3	4316.4	
814.48	3936.9	
814.65	3264.5	
814.82	5337	
815	4271.4	
815.17	3389.4	
815.34	4039.3	
815.52	4426.3	
815.69	4431.8	
815.87	3319.1	
816.04	3246.7	
816.21	4459.1	
816.38	4065.2	
816.56	3276.1	
816.73	3042.6	
816.9	5577.3	
817.08	5072.1	
817.25	3105.4	
817.42	3768.3	
817.6	4150.5	
817.77	4444.1	
817.94	3440.6	
818.12	2979.8	
818.29	4306.9	
818.46	6296.8	
818.64	3165.5	
818.81	2927.2	
818.98	4267.3	
819.16	5833.3	
819.33	3551.9	
819.5	3353.2	
819.67	4804.5	
819.85	5229.8	
820.02	3355.9	
820.19	3522.5	
820.37	4672.8	
820.54	4401.8	
820.71	3439.2	
820.88	4193.6	
821.06	4668.7	
821.23	4326.7	
821.4	3429	
821.58	3369.6	
821.75	5047.6	
821.92	4629.8	
822.09	2835.1	
822.27	2882.2	
822.44	4464.6	
822.61	4425	
822.79	2796.2	
822.96	5163.6	
823.13	4825.7	
823.3	4291.2	
823.48	3193.5	
823.65	2947.7	
823.82	5078.3	
823.99	4148.5	
824.17	3989.4	
824.34	3023.5	
824.51	5722.7	
824.68	4539.7	
824.86	3117	
825.03	3447.4	
825.2	4513	
825.37	5281.7	
825.55	3038.5	
825.72	3333.4	
825.89	5687.9	
826.06	5355.4	
826.24	3314.3	
826.41	3330.7	
826.58	5362.9	
826.75	4677.6	
826.92	2714.9	
827.1	2942.2	
827.27	7027.3	
827.44	5659.9	
827.61	3133.4	
827.79	3760.1	
827.96	4317.8	
828.13	4514.4	
828.3	3261	
828.47	2812.5	
828.65	4776.5	
828.82	4655	
828.99	4025.6	
829.16	3590.8	
829.34	5027.8	
829.51	4886.5	
829.68	3293.8	
829.85	3435.8	
830.02	5285.8	
830.2	5034.6	
830.37	2645.3	
830.54	3948.5	
830.71	5661.3	
830.88	4582.7	
831.05	2665.8	
831.23	3093.1	
831.4	5445.5	
831.57	5942.5	
831.74	3138.9	
831.91	2804.4	
832.09	4824.3	
832.26	4996.4	
832.43	3280.8	
832.6	3568.9	
832.77	4715.8	
832.94	5299.5	
833.12	2588.6	
833.29	3141.6	
833.46	4431.1	
833.63	6125.5	
833.8	3469.9	
833.97	3227.6	
834.15	5107.6	
834.32	4842.8	
834.49	3336.8	
834.66	3409.2	
834.83	5153.4	
835	4390.2	
835.17	3092.4	
835.35	3101.3	
835.52	4941.7	
835.69	4848.2	
835.86	3281.5	
836.03	2738.1	
836.2	5031.2	
836.37	4683.7	
836.55	3196.2	
836.72	3061	
836.89	4670.1	
837.06	5141.1	
837.23	3264.5	
837.4	3519.1	
837.57	5659.2	
837.75	6109.8	
837.92	2962.7	
838.09	3170.3	
838.26	4700.8	
838.43	5205.9	
838.6	3379.1	
838.77	3020.8	
838.94	5800.5	
839.11	5646.2	
839.29	3205.1	
839.46	2553.1	
839.63	5059.8	
839.8	4769.7	
839.97	3162.7	
840.14	3156.6	
840.31	4912.4	
840.48	5094.7	
840.65	2661.7	
840.82	3046.7	
841	5023.7	
841.17	4917.9	
841.34	2861.7	
841.51	2988	
841.68	4983.4	
841.85	4766.3	
842.02	3035.8	
842.19	2554.5	
842.36	4846.9	
842.53	4816.8	
842.7	2908.8	
842.87	3394.8	
843.05	6111.1	
843.22	4730.8	
843.39	2769.5	
843.56	2966.8	
843.73	4677.6	
843.9	5076.2	
844.07	4529.4	
844.24	3736.2	
844.41	6875.7	
844.58	4393.6	
844.75	2846	
844.92	3021.4	
845.09	5017.5	
845.26	4972.5	
845.43	2882.9	
845.6	3046	
845.77	4991.6	
845.94	4766.3	
846.12	3158.7	
846.29	3315	
846.46	5236	
846.63	4994.3	
846.8	2926.5	
846.97	3410.6	
847.14	5319.9	
847.31	4939.7	
847.48	3220.1	
847.65	3564.8	
847.82	5210	
847.99	5109	
848.16	3749.8	
848.33	3482.2	
848.5	4621.6	
848.67	5328.1	
848.84	2867.8	
849.01	3013.9	
849.18	4603.2	
849.35	4313.7	
849.52	3547.8	
849.69	2815.3	
849.86	5225.1	
850.03	5240.8	
850.2	2899.9	
850.37	3426.9	
850.54	5211.4	
850.71	4732.9	
850.88	3463.1	
851.05	2851.5	
851.22	4903.5	
851.39	5416.9	
851.56	2725.8	
851.73	3297.2	
851.9	4456.4	
852.07	5189.6	
852.24	3163.4	
852.41	2874.7	
852.58	4902.8	
852.75	4489.8	
852.92	3147	
853.09	2787.3	
853.26	4598.4	
853.43	5225.7	
853.6	2871.9	
853.77	2477.4	
853.94	5430.5	
854.11	4431.8	
854.28	4130.1	
854.44	3133.4	
854.61	5685.2	
854.78	5205.3	
854.95	2856.9	
855.12	3527.3	
855.29	4127.3	
855.46	5443.5	
855.63	2884.2	
855.8	3839.9	
855.97	4644.1	
856.14	5191.6	
856.31	4085	
856.48	3136.1	
856.65	4670.1	
856.82	4461.2	
856.99	2755.2	
857.16	3103.4	
857.33	5904.3	
857.49	4782	
857.66	3085.6	
857.83	3276.1	
858	4727.4	
858.17	4878.9	
858.34	2750.4	
858.51	2874	
858.68	5466.7	
858.85	5472.9	
859.02	3289	
859.19	3446	
859.36	4440.7	
859.52	4425.7	
859.69	2896.5	
859.86	3379.8	
860.03	4515.1	
860.2	5407.3	
860.37	2650.8	
860.54	2880.1	
860.71	5109.7	
860.88	5449.6	
861.05	3197.6	
861.21	3604.4	
861.38	5415.5	
861.55	4309.6	
861.72	2684.2	
861.89	3210.5	
862.06	5189.6	
862.23	5603.9	
862.4	2813.9	
862.56	2977.1	
862.73	5129.5	
862.9	4802.5	
863.07	3325.9	
863.24	2637.8	
863.41	4375.8	
863.58	4449.6	
863.75	2973.7	
863.91	3281.5	
864.08	5339.7	
864.25	5081	
864.42	3556.6	
864.59	3875.4	
864.76	5677.7	
864.93	4439.3	
865.09	2807.1	
865.26	3077.4	
865.43	5347.9	
865.6	5681.7	
865.77	2571.6	
865.94	2803	
866.1	5289.2	
866.27	5067.4	
866.44	4174.4	
866.61	2733.4	
866.78	4733.5	
866.95	5076.9	
867.11	2781.8	
867.28	2576.3	
867.45	5268.1	
867.62	4477.5	
867.79	3300	
867.96	2811.9	
868.12	4396.3	
868.29	5135.6	
868.46	2930.6	
868.63	3737.5	
868.8	5223.7	
868.97	5105.6	
869.13	2972.3	
869.3	3027.6	
869.47	4995	
869.64	5169.8	
869.81	2904.7	
869.97	2879.4	
870.14	4936.3	
870.31	5500.2	
870.48	2807.8	
870.65	3547.8	
870.81	4726	
870.98	4730.1	
871.15	3254.9	
871.32	2981.8	
871.48	5014.8	
871.65	5525.4	
871.82	2871.9	
871.99	3132	
872.16	5858.6	
872.32	5345.2	
872.49	2936.1	
872.66	2904	
872.83	5151.3	
872.99	4607.2	
873.16	3205.8	
873.33	2868.5	
873.5	4868.7	
873.67	4911	
873.83	3025.5	
874	3831.1	
874.17	4946.5	
874.34	5729.5	
874.5	3659	
874.67	3488.4	
874.84	5399.1	
875.01	4370.4	
875.17	3891.8	
875.34	2855.6	
875.51	4861.2	
875.68	5799.8	
875.84	3422.2	
876.01	4044.7	
876.18	5119.9	
876.34	5032.5	
876.51	2872.6	
876.68	2809.1	
876.85	4734.9	
877.01	5342.5	
877.18	3990.8	
877.35	2848.7	
877.52	4880.3	
877.68	4369.7	
877.85	2831.7	
878.02	2819.4	
878.18	4737.6	
878.35	4615.4	
878.52	2345.6	
878.69	3177.1	
878.85	5201.2	
879.02	5097.4	
879.19	3957.4	
879.35	3088.3	
879.52	5131.5	
879.69	5193.6	
879.86	2523.8	
880.02	3160.7	
880.19	4805.9	
880.36	5672.9	
880.52	3260.4	
880.69	3329.3	
880.86	5169.8	
881.02	5176.6	
881.19	3133.4	
881.36	3151.1	
881.52	5137.7	
881.69	4607.2	
881.86	3082.2	
882.02	2960.7	
882.19	5294.7	
882.36	6078.4	
882.52	2938.2	
882.69	3988.1	
882.86	4923.3	
883.02	4912.4	
883.19	3410.6	
883.36	3223.5	
883.52	5116.5	
883.69	5812.8	
883.86	2921.1	
884.02	2611.8	
884.19	5145.9	
884.36	4893.3	
884.52	3180.5	
884.69	3089.7	
884.86	4672.1	
885.02	5603.9	
885.19	3164.1	
885.36	3229	
885.52	4763.6	
885.69	4956.1	
885.86	4078.9	
886.02	3564.1	
886.19	5164.3	
886.35	4705.5	
886.52	3175	
886.69	3944.4	
886.85	4425.7	
887.02	5399.1	
887.19	5399.1	
887.35	5399.1	
887.52	5399.1	
887.68	5399.1	
887.85	5399.1	
888.02	5399.1	
888.18	5399.1	
888.35	5399.1	
888.51	5399.1	
888.68	5399.1	
888.85	5399.1	
889.01	5399.1	
889.18	5399.1	
889.35	5399.1	
889.51	5399.1	
889.68	5399.1	
889.84	5399.1	
890.01	5399.1	
890.17	5399.1	
890.34	5399.1	
890.51	5399.1	
890.67	5399.1	
890.84	5399.1	
891	5399.1	
891.17	5399.1	
891.34	5399.1	
891.5	5399.1	
891.67	5399.1	
891.83	5399.1	
892	5399.1	
892.16	5399.1	
892.33	5399.1	
892.5	5399.1	
892.66	5399.1	
892.83	5399.1	
892.99	5399.1	
893.16	5399.1	
893.32	5399.1	
893.49	5399.1	
893.65	5399.1	
893.82	5399.1	
893.99	5399.1	
894.15	5399.1	
894.32	5399.1	
894.48	5399.1	
894.65	5399.1	
894.81	5399.1	
894.98	5399.1	
895.14	5399.1	
895.31	5399.1	
895.47	5399.1	
895.64	5399.1	
895.81	5399.1	
895.97	5399.1	
896.14	5399.1	
896.3	5399.1	
896.47	5399.1	
896.63	5399.1	
896.8	5399.1	
896.96	5399.1	
897.13	5399.1	
897.29	5399.1	
897.46	5399.1	
897.62	5399.1	
897.79	5399.1	
897.95	5399.1	
898.12	5399.1	
898.28	5399.1	
898.45	5399.1	
898.61	5399.1	
898.78	5399.1	
898.94	5399.1	
899.11	5399.1	
899.27	5399.1	
899.44	5399.1	
899.6	5399.1	
899.77	5399.1	
899.93	5399.1	
900.1	5399.1	
900.26	5399.1	
900.43	5399.1	
900.59	5399.1	
900.76	5399.1	
900.92	5399.1	
901.09	5399.1	
901.25	5399.1	
901.42	5399.1	
901.58	5399.1	
901.75	5399.1	
901.91	5399.1	
902.07	5399.1	
902.24	5399.1	
902.4	5399.1	
902.57	5399.1	
902.73	5399.1	
902.9	5399.1	
903.06	5399.1	
903.23	5399.1	
903.39	5399.1	
903.56	5399.1	
903.72	5399.1	
903.88	5399.1	
904.05	5399.1	
904.21	5399.1	
904.38	5399.1	
904.54	5399.1	
904.71	5399.1	
904.87	5399.1	
905.03	5399.1	
905.2	5399.1	
905.36	5399.1	
905.53	5399.1	
905.69	5399.1	
905.86	5399.1	
906.02	5399.1	
906.18	5399.1	
906.35	5399.1	
906.51	5399.1	
906.68	5399.1	
906.84	5399.1	
907.01	5399.1	
907.17	5399.1	
907.33	5399.1	
907.5	5399.1	
907.66	5399.1	
907.83	5399.1	
907.99	5399.1	
908.15	5399.1	
908.32	5399.1	
908.48	5399.1	
908.65	5399.1	
908.81	5399.1	
908.97	5399.1	
909.14	5399.1	
909.3	5399.1	
909.47	5399.1	
909.63	5399.1	
909.79	5399.1	
909.96	5399.1	
910.12	5399.1	
910.28	5399.1	
910.45	5399.1	
910.61	5399.1	
910.78	5399.1	
910.94	5399.1	
911.1	5399.1	
911.27	5399.1	
911.43	5399.1	
911.59	5399.1	
911.76	5399.1	
911.92	5399.1	
912.08	5399.1	
912.25	5399.1	
912.41	5399.1	
912.57	5399.1	
912.74	5399.1	
912.9	5399.1	
913.07	5399.1	
913.23	5399.1	
913.39	5399.1	
913.56	5399.1	
913.72	5399.1	
913.88	5399.1	
914.05	5399.1	
914.21	5399.1	
914.37	5399.1	
914.54	5399.1	
914.7	5399.1	
914.86	5399.1	
915.03	5399.1	
915.19	5399.1	
