Wavelength	Intensities	
nm	a.u.	
179.22	1737.2	
179.44	1743.8	
179.65	1730.5	
179.86	1757.2	
180.08	1734.6	
180.29	4178.5	
180.51	3086.3	
180.72	5124.7	
180.94	5813.5	
181.15	2833	
181.37	2827.6	
181.58	4967.7	
181.79	5177.3	
182.01	2990.7	
182.22	3158.7	
182.44	5247.6	
182.65	4445.5	
182.87	3864.5	
183.08	3435.8	
183.29	5427.1	
183.51	4567	
183.72	3117	
183.94	4483.7	
184.15	4925.4	
184.37	4855.1	
184.58	2801.6	
184.79	3736.9	
185.01	4631.1	
185.22	5237.3	
185.44	3906.2	
185.65	3330.7	
185.86	4844.1	
186.08	4440	
186.29	2750.4	
186.51	2936.1	
186.72	4646.2	
186.94	5289.9	
187.15	3344.3	
187.36	3442	
187.58	6668.2	
187.79	4943.8	
188.01	3539.6	
188.22	5351.3	
188.43	5871.5	
188.65	5183.4	
188.86	2993.4	
189.08	3458.3	
189.29	4739	
189.5	4712.4	
189.72	3177.8	
189.93	3261.7	
190.15	5312.4	
190.36	6251.8	
190.57	3373	
190.79	3368.9	
191	5340.4	
191.22	5348.6	
191.43	3569.6	
191.64	3037.1	
191.86	5573.2	
192.07	5350.7	
192.29	3055.6	
192.5	3173	
192.71	5365	
192.93	4700.8	
193.14	3129.3	
193.35	3284.9	
193.57	4696	
193.78	5285.1	
194	2630.3	
194.21	3132.7	
194.42	4519.9	
194.64	4894.6	
194.85	3417.4	
195.07	3965.6	
195.28	4895.3	
195.49	4330.8	
195.71	4136.2	
195.92	2994.1	
196.13	5018.9	
196.35	5121.3	
196.56	4388.1	
196.78	3419.4	
196.99	6196.5	
197.2	5739.8	
197.42	3842	
197.63	3444.7	
197.84	4474.8	
198.06	5072.1	
198.27	3231	
198.48	4179.2	
198.7	4762.9	
198.91	4820.9	
199.13	3495.2	
199.34	3499.3	
199.55	5315.8	
199.77	4261.1	
199.98	3108.1	
200.19	3520.5	
200.41	4844.1	
200.62	4519.2	
200.83	3573	
201.05	3912.3	
201.26	4863.2	
201.47	4681	
201.69	3108.1	
201.9	3030.3	
202.11	4919.9	
202.33	5723.4	
202.54	3332.7	
202.76	3650.8	
202.97	4982.7	
203.18	5027.1	
203.4	3676.1	
203.61	3581.2	
203.82	4923.3	
204.04	4627	
204.25	3448.1	
204.46	3398.3	
204.68	4919.9	
204.89	5092.6	
205.1	3459.7	
205.32	2966.8	
205.53	5216.2	
205.74	5350.7	
205.96	2607.7	
206.17	3495.2	
206.38	5213.4	
206.6	5253.7	
206.81	4004.5	
207.02	3233.1	
207.24	5132.9	
207.45	5455.8	
207.66	3308.8	
207.88	2870.6	
208.09	5034.6	
208.3	4872.8	
208.52	3098.6	
208.73	3359.4	
208.94	4907.6	
209.15	5445.5	
209.37	3309.5	
209.58	3749.8	
209.79	5248.3	
210.01	4707.6	
210.22	2753.8	
210.43	2830.3	
210.65	4874.8	
210.86	5175.2	
211.07	3321.1	
211.29	3102.7	
211.5	5171.8	
211.71	4838	
211.93	3077.4	
212.14	3055.6	
212.35	4894.6	
212.56	4975.2	
212.78	3468.6	
212.99	2908.1	
213.2	5639.4	
213.42	4712.4	
213.63	3149.1	
213.84	3391.4	
214.06	4366.3	
214.27	4450.2	
214.48	3266.5	
214.69	3495.2	
214.91	5441.5	
215.12	5505.6	
215.33	3551.9	
215.55	3862.5	
215.76	5898.1	
215.97	5120.6	
216.18	3388.7	
216.4	3366.9	
216.61	4644.8	
216.82	5317.9	
217.04	3107.5	
217.25	3188.7	
217.46	5419.6	
217.67	5205.3	
217.89	2805.7	
218.1	2881.5	
218.31	4925.4	
218.53	5019.6	
218.74	3209.2	
218.95	3114.3	
219.16	4878.9	
219.38	5580	
219.59	3147	
219.8	3677.5	
220.01	6141.2	
220.23	4899.4	
220.44	4004.5	
220.65	3022.1	
220.87	4956.1	
221.08	5375.9	
221.29	2890.4	
221.5	3756	
221.72	6382.8	
221.93	4685.8	
222.14	3479.5	
222.35	4091.2	
222.57	4943.1	
222.78	5202.5	
222.99	3373.7	
223.2	3538.9	
223.42	5132.9	
223.63	5203.9	
223.84	2646.7	
224.05	2627.5	
224.27	6019	
224.48	5560.2	
224.69	4086.4	
224.9	3456.3	
225.12	5113.8	
225.33	4866	
225.54	2852.1	
225.75	3154.6	
225.97	4588.1	
226.18	4831.2	
226.39	3331.4	
226.6	3104.7	
226.82	4739.7	
227.03	4528.1	
227.24	3437.2	
227.45	2906.1	
227.67	5263.3	
227.88	5640.1	
228.09	3828.3	
228.3	3827.7	
228.52	5186.1	
228.73	4870.8	
228.94	3222.1	
229.15	2892.4	
229.36	4888.5	
229.58	4784.7	
229.79	3317	
230	3758	
230.21	5776.6	
230.43	4877.6	
230.64	3454.9	
230.85	3577.8	
231.06	5244.2	
231.28	5211.4	
231.49	2914.3	
231.7	3368.9	
231.91	5204.6	
232.12	4879.6	
232.34	2987.3	
232.55	3362.1	
232.76	5367.7	
232.97	4971.1	
233.18	3095.2	
233.4	3439.9	
233.61	5020.3	
233.82	4694.6	
234.03	3207.1	
234.25	3233.7	
234.46	6532.3	
234.67	4909.7	
234.88	3519.1	
235.09	3140.9	
235.31	5094.7	
235.52	4788.8	
235.73	3443.3	
235.94	2947.7	
236.15	4682.3	
236.37	5752.1	
236.58	3062.4	
236.79	3357.3	
237	5163.6	
237.21	4420.2	
237.43	3558	
237.64	2862.4	
237.85	8195.3	
238.06	4521.9	
238.27	3581.9	
238.48	2964.8	
238.7	5162.9	
238.91	4784.1	
239.12	3297.2	
239.33	3425.6	
239.54	4559.5	
239.76	4784.7	
239.97	3308.8	
240.18	3348.4	
240.39	5911.1	
240.6	5088.5	
240.82	3430.3	
241.03	2876	
241.24	4840.7	
241.45	5555.5	
241.66	3080.1	
241.87	3573	
242.09	5493.3	
242.3	5799.2	
242.51	3592.8	
242.72	3355.9	
242.93	5178.6	
243.14	4863.2	
243.36	3833.8	
243.57	4080.9	
243.78	5558.9	
243.99	5190.2	
244.2	3295.9	
244.41	3093.8	
244.63	4510.3	
244.84	5092.6	
245.05	3577.8	
245.26	3344.3	
245.47	5140.4	
245.68	5304.9	
245.9	4319.8	
246.11	3495.9	
246.32	4723.3	
246.53	5151.3	
246.74	5282.4	
246.95	2856.2	
247.16	4526	
247.38	4991.6	
247.59	2902	
247.8	3381.2	
248.01	4638	
248.22	4857.1	
248.43	3093.8	
248.64	3324.5	
248.86	4447.5	
249.07	4671.4	
249.28	3041.2	
249.49	3468.6	
249.7	5373.2	
249.91	5386.8	
250.12	2813.2	
250.34	2880.1	
250.55	4994.3	
250.76	4902.8	
250.97	3469.3	
251.18	3554.6	
251.39	5462.6	
251.6	5036.6	
251.81	3482.2	
252.03	3485.6	
252.24	4706.9	
252.45	5259.2	
252.66	2929.3	
252.87	3646.1	
253.08	4929.5	
253.29	6211.5	
253.5	2998.9	
253.72	4032.5	
253.93	4801.8	
254.14	5653.1	
254.35	3145	
254.56	3280.2	
254.77	5110.4	
254.98	4580.6	
255.19	3144.3	
255.41	3972.4	
255.62	4986.1	
255.83	5436	
256.04	3547.8	
256.25	3426.9	
256.46	5855.8	
256.67	4645.5	
256.88	3433.8	
257.09	3778.5	
257.31	4610.7	
257.52	4600.4	
257.73	4212.7	
257.94	3218	
258.15	4819.6	
258.36	4881	
258.57	3940.3	
258.78	2597.5	
258.99	5288.5	
259.2	4763.6	
259.41	3218.7	
259.63	3291.8	
259.84	5543.9	
260.05	5840.1	
260.26	4134.2	
260.47	3198.2	
260.68	5365	
260.89	4801.8	
261.1	3771.7	
261.31	3016.7	
261.52	5389.6	
261.73	5649.7	
261.95	4109.6	
262.16	3579.8	
262.37	5501.5	
262.58	5520	
262.79	4044.7	
263	3228.3	
263.21	4933.6	
263.42	4767.7	
263.63	3332.7	
263.84	3229.6	
264.05	5311.1	
264.26	5607.3	
264.47	3940.3	
264.69	3515	
264.9	5523.4	
265.11	4984.8	
265.32	3165.5	
265.53	3160.7	
265.74	4984.1	
265.95	4369.7	
266.16	3457	
266.37	3721.2	
266.58	5000.5	
266.79	4682.3	
267	3233.1	
267.21	2981.8	
267.42	4552	
267.63	4891.9	
267.84	3283.6	
268.06	2875.3	
268.27	5270.1	
268.48	5440.1	
268.69	3239.9	
268.9	3753.9	
269.11	5494	
269.32	4435.2	
269.53	3355.3	
269.74	3112.2	
269.95	5154.1	
270.16	4413.4	
270.37	3426.9	
270.58	3861.1	
270.79	4753.3	
271	5336.3	
271.21	3572.3	
271.42	3390.8	
271.63	5126.1	
271.84	4595.6	
272.05	2764.1	
272.26	3055.6	
272.47	4909	
272.68	5061.2	
272.89	3218.7	
273.11	3676.8	
273.32	4687.8	
273.53	5669.5	
273.74	3564.8	
273.95	3502	
274.16	5356.1	
274.37	4939	
274.58	3642	
274.79	2985.3	
275	5035.3	
275.21	5407.3	
275.42	4328	
275.63	3714.3	
275.84	5118.6	
276.05	6238.1	
276.26	3538.2	
276.47	3325.2	
276.68	4818.2	
276.89	5717.9	
277.1	3713	
277.31	2931.3	
277.52	5104.2	
277.73	5338.4	
277.94	2874	
278.15	3215.3	
278.36	5067.4	
278.57	4629.8	
278.78	3186	
278.99	3588.7	
279.2	4661.2	
279.41	4602.5	
279.62	4194.2	
279.83	2962.7	
280.04	5905	
280.25	4545.1	
280.46	4157.4	
280.67	3380.5	
280.88	4672.1	
281.09	5423.7	
281.3	3473.4	
281.51	4374.5	
281.72	4674.1	
281.93	5294	
282.14	3104.7	
282.35	3435.8	
282.56	5357.5	
282.77	5288.5	
282.98	3231.7	
283.19	3870	
283.4	6296.1	
283.61	4841.4	
283.82	3007.1	
284.03	4059.1	
284.24	5036	
284.45	5382.7	
284.66	4125.3	
284.87	3908.2	
285.08	5369.1	
285.29	5453.1	
285.5	2921.8	
285.71	3259.7	
285.92	5387.5	
286.12	5898.1	
286.33	4022.2	
286.54	3279.5	
286.75	5281.7	
286.96	4829.8	
287.17	3050.8	
287.38	3928.7	
287.59	4641.4	
287.8	4616.1	
288.01	3283.6	
288.22	3733.4	
288.43	5212.8	
288.64	4453	
288.85	3890.5	
289.06	3670	
289.27	5252.4	
289.48	5558.9	
289.69	4064.5	
289.9	3719.8	
290.11	5464.7	
290.32	4678.9	
290.53	3867.2	
290.74	3562.1	
290.94	5293.3	
291.15	5310.4	
291.36	3184.6	
291.57	3686.3	
291.78	4688.5	
291.99	4386.7	
292.2	3075.4	
292.41	3581.2	
292.62	5333.6	
292.83	5125.4	
293.04	4338.3	
293.25	3119.1	
293.46	4777.2	
293.67	5320.6	
293.88	3151.1	
294.09	3095.8	
294.29	4622.9	
294.5	4997.7	
294.71	3385.3	
294.92	3239.2	
295.13	4775.9	
295.34	5859.2	
295.55	2950.4	
295.76	2858.3	
295.97	5214.8	
296.18	5786.9	
296.39	3003	
296.6	3182.5	
296.81	4979.3	
297.01	5261.2	
297.22	3293.8	
297.43	3165.5	
297.64	4689.2	
297.85	4568.3	
298.06	2671.2	
298.27	2869.2	
298.48	4876.2	
298.69	4713.7	
298.9	3375.7	
299.11	3138.9	
299.31	4519.2	
299.52	4555.4	
299.73	3644.7	
299.94	3569.6	
300.15	4980.7	
300.36	4630.5	
300.57	3536.8	
300.78	3532.7	
300.99	4762.9	
301.2	5011.4	
301.4	3131.3	
301.61	3387.3	
301.82	5175.2	
302.03	5256.5	
302.24	3713.6	
302.45	2997.5	
302.66	5111.7	
302.87	5472.9	
303.08	3125.2	
303.29	4204.5	
303.49	4771.8	
303.7	4857.1	
303.91	2830.3	
304.12	4054.3	
304.33	4467.3	
304.54	5031.2	
304.75	3179.1	
304.96	3076	
305.16	5191.6	
305.37	5720.7	
305.58	2794.8	
305.79	2873.3	
306	5182.7	
306.21	4437.3	
306.42	3136.1	
306.63	4646.8	
306.83	4796.3	
307.04	5280.3	
307.25	3462.4	
307.46	3435.8	
307.67	4296	
307.88	5220.3	
308.09	3159.3	
308.29	3248.8	
308.5	4992.9	
308.71	5422.3	
308.92	3379.8	
309.13	3037.1	
309.34	4823.6	
309.55	4890.5	
309.75	3900.7	
309.96	3528	
310.17	5237.3	
310.38	4650.3	
310.59	3730.7	
310.8	2950.4	
311.01	4775.2	
311.21	4812	
311.42	3038.5	
311.63	3115.6	
311.84	4704.9	
312.05	4996.4	
312.26	3538.9	
312.46	3755.3	
312.67	4772.4	
312.88	4551.3	
313.09	3056.3	
313.3	3013.9	
313.51	5526.1	
313.71	5808	
313.92	3060.3	
314.13	3216.7	
314.34	5096.7	
314.55	4873.5	
314.76	3857.7	
314.96	3457.7	
315.17	4990.2	
315.38	5160.2	
315.59	3078.1	
315.8	2999.6	
316.01	5540.4	
316.21	5622.4	
316.42	2995.5	
316.63	3390.8	
316.84	4823	
317.05	5347.2	
317.26	3564.8	
317.46	3228.3	
317.67	4893.3	
317.88	5227.8	
318.09	3835.2	
318.3	2835.1	
318.5	4714.4	
318.71	5118.6	
318.92	4757.4	
319.13	3596.2	
319.34	5297.4	
319.54	5466.7	
319.75	2871.9	
319.96	2772.3	
320.17	5167.7	
320.38	5371.8	
320.58	2802.3	
320.79	3317	
321	5331.5	
321.21	5387.5	
321.42	3387.3	
321.62	2843.9	
321.83	4610	
322.04	4878.9	
322.25	3287.7	
322.46	3132.7	
322.66	4981.3	
322.87	5144.5	
323.08	3760.1	
323.29	3024.8	
323.5	5772.5	
323.7	4466.6	
323.91	4115.7	
324.12	3713	
324.33	4998.4	
324.53	5192.3	
324.74	3599	
324.95	3736.9	
325.16	4465.9	
325.37	4733.5	
325.57	3054.9	
325.78	3138.9	
325.99	5030.5	
326.2	4495.3	
326.4	4209.3	
326.61	2885.6	
326.82	4874.8	
327.03	4975.2	
327.24	4220.2	
327.44	4006.5	
327.65	5134.9	
327.86	4173.1	
328.07	3558.7	
328.27	2971.6	
328.48	5438	
328.69	4547.2	
328.9	4319.8	
329.1	3257	
329.31	4814.8	
329.52	5594.4	
329.73	3068.5	
329.93	3373.7	
330.14	4984.8	
330.35	5034.6	
330.56	4870.1	
330.76	3730.7	
330.97	4788.2	
331.18	5049.6	
331.39	3412.6	
331.59	2773.6	
331.8	5369.1	
332.01	5474.2	
332.22	3172.3	
332.42	3577.8	
332.63	5044.8	
332.84	4634.6	
333.05	3460.4	
333.25	3136.1	
333.46	4704.9	
333.67	4922	
333.88	3212.6	
334.08	3489.1	
334.29	6292.7	
334.5	5371.1	
334.7	3005.7	
334.91	4276.2	
335.12	4539.7	
335.33	5192.3	
335.53	3398.9	
335.74	4789.5	
335.95	4784.7	
336.16	4536.3	
336.36	3390.1	
336.57	3934.8	
336.78	4542.4	
336.98	5374.6	
337.19	4164.2	
337.4	3293.8	
337.61	5810.1	
337.81	4611.3	
338.02	3161.4	
338.23	3951.2	
338.43	5526.8	
338.64	4638	
338.85	3105.4	
339.05	3964.2	
339.26	5614.2	
339.47	4508.9	
339.68	3177.8	
339.88	4433.9	
340.09	5162.2	
340.3	5265.3	
340.5	3617.4	
340.71	2806.4	
340.92	4499.4	
341.13	5471.5	
341.33	3006.4	
341.54	3596.9	
341.75	5101.5	
341.95	4762.2	
342.16	3442.6	
342.37	3730	
342.57	4582.7	
342.78	4915.1	
342.99	3762.8	
343.19	2833	
343.4	5240.8	
343.61	5115.8	
343.81	3302	
344.02	3005.1	
344.23	5198.4	
344.43	5554.1	
344.64	3786	
344.85	3641.3	
345.06	5145.9	
345.26	5404.6	
345.47	3540.3	
345.68	4087.7	
345.88	4421.6	
346.09	5300.8	
346.3	3566.2	
346.5	2779.1	
346.71	4902.8	
346.92	4663.9	
347.12	2897.9	
347.33	3478.1	
347.54	5352.7	
347.74	5662.6	
347.95	3516.4	
348.16	2684.2	
348.36	4749.2	
348.57	4601.8	
348.78	3579.2	
348.98	3764.2	
349.19	4879.6	
349.39	4455.7	
349.6	2882.9	
349.81	3147	
350.01	5150.6	
350.22	4695.3	
350.43	3372.3	
350.63	4037.9	
350.84	4898.7	
351.05	4657.1	
351.25	3153.9	
351.46	2861.7	
351.67	5330.9	
351.87	4676.9	
352.08	3330.7	
352.29	3710.9	
352.49	5315.2	
352.7	5323.4	
352.9	3016	
353.11	3700.7	
353.32	5804.6	
353.52	4772.4	
353.73	2996.9	
353.94	3755.3	
354.14	5146.5	
354.35	4988.9	
354.55	3080.8	
354.76	3352.5	
354.97	5057.8	
355.17	4864.6	
355.38	2938.2	
355.59	3987.4	
355.79	4642.1	
356	4916.5	
356.2	3375.1	
356.41	3039.2	
356.62	4436.6	
356.82	4818.9	
357.03	3577.8	
357.24	3258.3	
357.44	4671.4	
357.65	4769	
357.85	4261.8	
358.06	3459.7	
358.27	4501.4	
358.47	4568.3	
358.68	2928.6	
358.88	3588	
359.09	5103.5	
359.3	5376.6	
359.5	4147.1	
359.71	3682.9	
359.91	5682.4	
360.12	5201.8	
360.33	3608.5	
360.53	3997.6	
360.74	4659.1	
360.94	4677.6	
361.15	3786.7	
361.36	3137.5	
361.56	5358.2	
361.77	4890.5	
361.97	4104.1	
362.18	3331.4	
362.38	5347.9	
362.59	4573.1	
362.8	3102	
363	2948.4	
363.21	4375.1	
363.41	4961.5	
363.62	3484.3	
363.83	4193.6	
364.03	5117.9	
364.24	5720.7	
364.44	4358.8	
364.65	4265.9	
364.85	4861.9	
365.06	4547.9	
365.27	3255.6	
365.47	3287	
365.68	5639.4	
365.88	4854.4	
366.09	3637.2	
366.29	3293.8	
366.5	5060.5	
366.71	5384.8	
366.91	4281.6	
367.12	3706.1	
367.32	5851	
367.53	5240.8	
367.73	3672	
367.94	4412.7	
368.14	5182	
368.35	5910.4	
368.56	3676.8	
368.76	3142.3	
368.97	5343.8	
369.17	6571.2	
369.38	3193.5	
369.58	3431.7	
369.79	4491.2	
369.99	5595.1	
370.2	4333.5	
370.4	3515.7	
370.61	5055.1	
370.82	6055.2	
371.02	3500	
371.23	2955.2	
371.43	4482.3	
371.64	5568.4	
371.84	3524.6	
372.05	4429.8	
372.25	6552.8	
372.46	5270.1	
372.66	3429	
372.87	3394.2	
373.07	5320.6	
373.28	6537.8	
373.48	4248.2	
373.69	3995.6	
373.9	4929.5	
374.1	4949.3	
374.31	4246.8	
374.51	3851.5	
374.72	5566.4	
374.92	4678.2	
375.13	4371.7	
375.33	3730.7	
375.54	5244.8	
375.74	4824.3	
375.95	3788.1	
376.15	4758.1	
376.36	5256.5	
376.56	5070.8	
376.77	3798.3	
376.97	4170.3	
377.18	6089.3	
377.38	5298.1	
377.59	4445.5	
377.79	3441.3	
378	5162.2	
378.2	5487.9	
378.41	3510.9	
378.61	3381.2	
378.82	5519.3	
379.02	4801.8	
379.23	3667.9	
379.43	4518.5	
379.64	5623	
379.84	5358.9	
380.05	3509.5	
380.25	3420.1	
380.46	5333.6	
380.66	5102.9	
380.87	4490.5	
381.07	4835.9	
381.28	5873.6	
381.48	5373.2	
381.69	3449.5	
381.89	3517.7	
382.1	4513.7	
382.3	5460.6	
382.51	4371.7	
382.71	5100.1	
382.91	5341.1	
383.12	5833.3	
383.32	3760.8	
383.53	3945.8	
383.73	5248.3	
383.94	5128.8	
384.14	4021.5	
384.35	3211.2	
384.55	4991.6	
384.76	5402.5	
384.96	3867.2	
385.17	4048.2	
385.37	5434.6	
385.58	4773.1	
385.78	4063.9	
385.98	3142.9	
386.19	4897.4	
386.39	5289.9	
386.6	3612.6	
386.8	3830.4	
387.01	5340.4	
387.21	5485.1	
387.42	4093.9	
387.62	4559.5	
387.83	4872.1	
388.03	5260.5	
388.23	3837.2	
388.44	4413.4	
388.64	4689.2	
388.85	4678.2	
389.05	4078.2	
389.26	4605.9	
389.46	6288.6	
389.67	5763	
389.87	4076.8	
390.07	4129.4	
390.28	5048.9	
390.48	4754	
390.69	3487	
390.89	3710.2	
391.1	4983.4	
391.3	5646.2	
391.5	4646.2	
391.71	5130.8	
391.91	5474.2	
392.12	6214.9	
392.32	4827.1	
392.53	4109.6	
392.73	5000.5	
392.93	5137.7	
393.14	3880.9	
393.34	4516.5	
393.55	5484.5	
393.75	5175.9	
393.95	3874.8	
394.16	3857.7	
394.36	4967	
394.57	5504.3	
394.77	3426.3	
394.98	3734.1	
395.18	4844.1	
395.38	4952.7	
395.59	4511	
395.79	3622.2	
396	4960.2	
396.2	5375.9	
396.4	4363.5	
396.61	4235.2	
396.81	5495.4	
397.02	4984.8	
397.22	4511.7	
397.42	4520.5	
397.63	5544.5	
397.83	4933.6	
398.04	3622.2	
398.24	4027	
398.44	5365	
398.65	4962.9	
398.85	3523.9	
399.05	3603.7	
399.26	4884.4	
399.46	6293.4	
399.67	3895.9	
399.87	3683.6	
400.07	5203.9	
400.28	5491.3	
400.48	3768.3	
400.69	4558.1	
400.89	5610.8	
401.09	6050.4	
401.3	3617.4	
401.5	4541	
401.7	6223.1	
401.91	6350.1	
402.11	4005.1	
402.32	4205.2	
402.52	5696.8	
402.72	5632.6	
402.93	4337.6	
403.13	3461.7	
403.33	6311.8	
403.54	5225.1	
403.74	4187.4	
403.94	4812.7	
404.15	5409.4	
404.35	6323.4	
404.56	3911.6	
404.76	5334.3	
404.96	5612.8	
405.17	5497.4	
405.37	4853.7	
405.57	4305.5	
405.78	5655.8	
405.98	5282.4	
406.18	3896.6	
406.39	4657.1	
406.59	5770.5	
406.79	5343.8	
407	3764.8	
407.2	3878.2	
407.4	5794.4	
407.61	5847	
407.81	3850.9	
408.01	5604.6	
408.22	4756.1	
408.42	6421.1	
408.62	4721.9	
408.83	4312.3	
409.03	5380	
409.23	5239.4	
409.44	4346.5	
409.64	4506.2	
409.84	6160.3	
410.05	6063.4	
410.25	4517.8	
410.45	4311	
410.66	5628.5	
410.86	7641.7	
411.06	4638.6	
411.27	4539	
411.47	7474.4	
411.67	5815.5	
411.88	4724	
412.08	4968.4	
412.28	6339.8	
412.49	6795.2	
412.69	4578.6	
412.89	4629.1	
413.09	6615.6	
413.3	6501.6	
413.5	4702.8	
413.7	4439.3	
413.91	5913.2	
414.11	6660	
414.31	4657.1	
414.52	4901.5	
414.72	6367.1	
414.92	6274.3	
415.12	4546.5	
415.33	5017.5	
415.53	6626.5	
415.73	6733.7	
415.94	5287.9	
416.14	4812	
416.34	5868.1	
416.55	5634	
416.75	5752.7	
416.95	5279	
417.15	6675	
417.36	7197.9	
417.56	5965.7	
417.76	5193.6	
417.97	6955.6	
418.17	6592.4	
418.37	4887.1	
418.57	4945.2	
418.78	6537.1	
418.98	6251.8	
419.18	5640.8	
419.38	5519.3	
419.59	6308.4	
419.79	6004	
419.99	4833.2	
420.2	5131.5	
420.4	6754.2	
420.6	6780.8	
420.8	4723.3	
421.01	4659.1	
421.21	6654.5	
421.41	6645	
421.61	5072.8	
421.82	4848.2	
422.02	6206.7	
422.22	6926.9	
422.42	5516.5	
422.63	5202.5	
422.83	6308.4	
423.03	7239.6	
423.23	5232.6	
423.44	4437.9	
423.64	6300.9	
423.84	6031.3	
424.04	4807.9	
424.25	4470.7	
424.45	7000.6	
424.65	7008.1	
424.85	4444.8	
425.06	4805.2	
425.26	7107.1	
425.46	6198.5	
425.66	5197.1	
425.87	5022.3	
426.07	6861.4	
426.27	6632	
426.47	5083.7	
426.67	4532.2	
426.88	7139.2	
427.08	6718	
427.28	5281	
427.48	4554	
427.69	5814.9	
427.89	6378.7	
428.09	5246.2	
428.29	4536.3	
428.5	6847.7	
428.7	6523.5	
428.9	4544.4	
429.1	4877.6	
429.3	6450.4	
429.51	6782.9	
429.71	4744.5	
429.91	5363.6	
430.11	6728.9	
430.31	6878.4	
430.52	4977.2	
430.72	5226.4	
430.92	7152.2	
431.12	6675	
431.32	4803.2	
431.53	5112.4	
431.73	5949.3	
431.93	7223.2	
432.13	4644.8	
432.33	4628.4	
432.54	6253.1	
432.74	6495.5	
432.94	4500.1	
433.14	5457.2	
433.34	6828.6	
433.55	6371.9	
433.75	5340.4	
433.95	6765.8	
434.15	6595.1	
434.35	6325.5	
434.56	4708.3	
434.76	4375.8	
434.96	6558.3	
435.16	6787	
435.36	4638	
435.56	5532.2	
435.77	6270.9	
435.97	6466.1	
436.17	6048.3	
436.37	5522	
436.57	6278.4	
436.78	6155.5	
436.98	5450.3	
437.18	6085.2	
437.38	6765.8	
437.58	6421.1	
437.78	6093.4	
437.99	5043.5	
438.19	6905.8	
438.39	8008.9	
438.59	5055.8	
438.79	4616.8	
438.99	7450.5	
439.2	6450.4	
439.4	4676.2	
439.6	4661.9	
439.8	6658.6	
440	7432.8	
440.2	5461.9	
440.4	5564.3	
440.61	7006.8	
440.81	7421.2	
441.01	4812	
441.21	5577.3	
441.41	7449.1	
441.61	7031.4	
441.81	5812.8	
442.02	6664.8	
442.22	7891.5	
442.42	7139.9	
442.62	5014.1	
442.82	4975.2	
443.02	7395.9	
443.22	6682.5	
443.43	5427.1	
443.63	4988.2	
443.83	6581.5	
444.03	6566.5	
444.23	5971.9	
444.43	5635.3	
444.63	6944.7	
444.83	7799.3	
445.04	5146.5	
445.24	6137.1	
445.44	7238.9	
445.64	7290.1	
445.84	5675.6	
446.04	5778.7	
446.24	6636.1	
446.44	7523.6	
446.65	5010	
446.85	5447.6	
447.05	6891.4	
447.25	7418.4	
447.45	5566.4	
447.65	4971.8	
447.85	6999.3	
448.05	6595.8	
448.25	5776	
448.46	5603.2	
448.66	7017	
448.86	6666.1	
449.06	4866.7	
449.26	5848.3	
449.46	7192.5	
449.66	6453.8	
449.86	5486.5	
450.06	5386.2	
450.26	6671.6	
450.47	7055.3	
450.67	5599.8	
450.87	5863.3	
451.07	7204.1	
451.27	6961.7	
451.47	5142.4	
451.67	5584.8	
451.87	6798.6	
452.07	7754.3	
452.27	5387.5	
452.47	5288.5	
452.67	7095.5	
452.88	7389.8	
453.08	4886.5	
453.28	6403.3	
453.48	8076.5	
453.68	6977.4	
453.88	5293.3	
454.08	5421.7	
454.28	7312.6	
454.48	7025.2	
454.68	5855.1	
454.88	6282.5	
455.08	7396.6	
455.28	7176.1	
455.48	5180	
455.68	5746.6	
455.89	7884	
456.09	7485.3	
456.29	5476.3	
456.49	5509.7	
456.69	7771.4	
456.89	7135.1	
457.09	5862	
457.29	6197.8	
457.49	7410.2	
457.69	7483.3	
457.89	5864.7	
458.09	5413.5	
458.29	7320.1	
458.49	7881.9	
458.69	6218.3	
458.89	5793	
459.09	8071.7	
459.29	8213	
459.49	5880.4	
459.69	6504.3	
459.9	7821.2	
460.1	7385	
460.3	5768.4	
460.5	5642.2	
460.7	7693.5	
460.9	7387.7	
461.1	5339.7	
461.3	6370.5	
461.5	8304.5	
461.7	7934.5	
461.9	5745.9	
462.1	6096.1	
462.3	7576.8	
462.5	7964.6	
462.7	5823.1	
462.9	5955.5	
463.1	8905.9	
463.3	8529.1	
463.5	6069.5	
463.7	6849.8	
463.9	7740.6	
464.1	8132.5	
464.3	6202.6	
464.5	6472.9	
464.7	8368.7	
464.9	8075.1	
465.1	7503.8	
465.3	6750.1	
465.5	8659.5	
465.7	8654.7	
465.9	7053.9	
466.1	6750.8	
466.3	8497.7	
466.5	8368.7	
466.7	7567.9	
466.9	6607.4	
467.1	8452.6	
467.3	9174.2	
467.5	7530.4	
467.7	6622.4	
467.9	9337.4	
468.1	10000	
468.3	7281.9	
468.5	7685.3	
468.7	8378.2	
468.9	8333.2	
469.1	6928.3	
469.3	7523.6	
469.5	9977.7	
469.7	8088.8	
469.9	7315.3	
470.1	6804	
470.3	8499.1	
470.5	8426	
470.7	7735.9	
470.9	6887.3	
471.1	8324.3	
471.3	8619.2	
471.5	6789	
471.69	8200.1	
471.89	8229.4	
472.09	7784.3	
472.29	7364.5	
472.49	7539.3	
472.69	8075.1	
472.89	8696.4	
473.09	6653.2	
473.29	6739.2	
473.49	8160.5	
473.69	8144.1	
473.89	7531.1	
474.09	6789	
474.29	9293.7	
474.49	9022	
474.69	7500.3	
474.89	6980.2	
475.09	8314.8	
475.29	8339.3	
475.49	6538.5	
475.69	6755.6	
475.88	9573.6	
476.08	8732.5	
476.28	6449.7	
476.48	6774	
476.68	8938.7	
476.88	8733.2	
477.08	6791.1	
477.28	6973.3	
477.48	8341.4	
477.68	8835.6	
477.88	6571.2	
478.08	6792.4	
478.28	9132.6	
478.48	8405.5	
478.67	6858.6	
478.87	6345.3	
479.07	9043.8	
479.27	8596	
479.47	7007.5	
479.67	7148.8	
479.87	8892.3	
480.07	9274.6	
480.27	6502.3	
480.47	7686.7	
480.67	8657.4	
480.87	9167.4	
481.06	6727.6	
481.26	7526.3	
481.46	8558.5	
481.66	8484.1	
481.86	7221.8	
482.06	7849.9	
482.26	8286.1	
482.46	9031.5	
482.66	7049.8	
482.86	6810.2	
483.05	8685.4	
483.25	8182.3	
483.45	9127.8	
483.65	7049.8	
483.85	8324.3	
484.05	8598.7	
484.25	7370.6	
484.45	7860.8	
484.65	9207.7	
484.84	9316.9	
485.04	7057.3	
485.24	7045.7	
485.44	9555.1	
485.64	8198.7	
485.84	6611.5	
486.04	7765.9	
486.24	8556.4	
486.44	8864.3	
486.63	6541.2	
486.83	7283.9	
487.03	8576.2	
487.23	8701.1	
487.43	6723.5	
487.63	8596.7	
487.83	8766.7	
488.02	9609.1	
488.22	7538.6	
488.42	8002.1	
488.62	9441.1	
488.82	8566.7	
489.02	7368.6	
489.22	7327.6	
489.41	9392	
489.61	9159.9	
489.81	7076.4	
490.01	7132.4	
490.21	9424.8	
490.41	9933.3	
490.61	7131	
490.8	7277.8	
491	9075.2	
491.2	8500.4	
491.4	7851.9	
491.6	7133.8	
491.8	9078.6	
491.99	9108	
492.19	6861.4	
492.39	7067.5	
492.59	9328.5	
492.79	9439.1	
492.99	7778.9	
493.18	7079.8	
493.38	9482.8	
493.58	10032	
493.78	7673.1	
493.98	7352.2	
494.18	9322.4	
494.37	8970.1	
494.57	8088.8	
494.77	7961.1	
494.97	9546.9	
495.17	9904.7	
495.37	7595.2	
495.56	7869	
495.76	9932	
495.96	9682.8	
496.16	8762.6	
496.36	7924.3	
496.55	9949	
496.75	9602.9	
496.95	8200.7	
497.15	8079.2	
497.35	9955.2	
497.54	9988.6	
497.74	7960.5	
497.94	9375.6	
498.14	10641	
498.34	10296	
498.53	7810.3	
498.73	8429.4	
498.93	9449.3	
499.13	10020	
499.33	8306.6	
499.52	8755.1	
499.72	10090	
499.92	10244	
500.12	8041	
500.32	8303.1	
500.51	10265	
500.71	10191	
500.91	8959.2	
501.11	8600.8	
501.31	10368	
501.5	10661	
501.7	9236.3	
501.9	8462.9	
502.1	10124	
502.29	10330	
502.49	8790.6	
502.69	9240.4	
502.89	10445	
503.09	10435	
503.28	7970	
503.48	8123.6	
503.68	9682.8	
503.88	9682.1	
504.07	8921	
504.27	8436.9	
504.47	9977	
504.67	10152	
504.86	8839.7	
505.06	8549.6	
505.26	9811.8	
505.46	11174	
505.65	8460.8	
505.85	8627.4	
506.05	9700.5	
506.25	10112	
506.44	7869	
506.64	8553.7	
506.84	9569.5	
507.04	10335	
507.23	8037.6	
507.43	8498.4	
507.63	11153	
507.83	9685.5	
508.02	8438.3	
508.22	8112	
508.42	11345	
508.62	9584.5	
508.81	8326.4	
509.01	8894.3	
509.21	9527.2	
509.4	9716.9	
509.6	8591.2	
509.8	8078.6	
510	9656.9	
510.19	10779	
510.39	8021.2	
510.59	8056.7	
510.79	9566.1	
510.98	10700	
511.18	8251.9	
511.38	8311.3	
511.57	10345	
511.77	10067	
511.97	8733.9	
512.17	8157.1	
512.36	10243	
512.56	10064	
512.76	8085.4	
512.95	7818.5	
513.15	10385	
513.35	9230.2	
513.55	8693.6	
513.74	8054.7	
513.94	10304	
514.14	9756.5	
514.33	8929.8	
514.53	8725.7	
514.73	9862.3	
514.92	10008	
515.12	8304.5	
515.32	8090.8	
515.51	10091	
515.71	10363	
515.91	9688.9	
516.11	8150.9	
516.3	11458	
516.5	9762.7	
516.7	8621.3	
516.89	9164.7	
517.09	9997.5	
517.29	9927.2	
517.48	9213.8	
517.68	8482	
517.88	9665	
518.07	10263	
518.27	8838.4	
518.47	8152.3	
518.66	10690	
518.86	9602.9	
519.06	7973.4	
519.25	8390.5	
519.45	9777.7	
519.65	11060	
519.84	8962.6	
520.04	9350.3	
520.24	11274	
520.43	10434	
520.63	8713.4	
520.83	8545.5	
521.02	9940.8	
521.22	10395	
521.42	8877.9	
521.61	9430.2	
521.81	9980.4	
522.01	10087	
522.2	8695	
522.4	8546.2	
522.6	10490	
522.79	9527.8	
522.99	8694.3	
523.18	8054.7	
523.38	10329	
523.58	10305	
523.77	9692.4	
523.97	8230.8	
524.17	11834	
524.36	11188	
524.56	9375.6	
524.76	9118.9	
524.95	10501	
525.15	10331	
525.34	9004.9	
525.54	9068.4	
525.74	10959	
525.93	10189	
526.13	10156	
526.33	9189.2	
526.52	11355	
526.72	10847	
526.91	10234	
527.11	9673.2	
527.31	11290	
527.5	11703	
527.7	9637.7	
527.89	8867.7	
528.09	10545	
528.29	10964	
528.48	9854.8	
528.68	9544.9	
528.87	11337	
529.07	11381	
529.27	9717.6	
529.46	9358.5	
529.66	11215	
529.85	11663	
530.05	9299.1	
530.25	9801.6	
530.44	12354	
530.64	11265	
530.83	9693.7	
531.03	9733.3	
531.23	11452	
531.42	11362	
531.62	10202	
531.81	9612.5	
532.01	11693	
532.21	12039	
532.4	9616.6	
532.6	9873.3	
532.79	12501	
532.99	11932	
533.18	10068	
533.38	10890	
533.58	11587	
533.77	12112	
533.97	10077	
534.16	10778	
534.36	12494	
534.55	11630	
534.75	11228	
534.95	10228	
535.14	12422	
535.34	11798	
535.53	10004	
535.73	11611	
535.92	12938	
536.12	11751	
536.31	10129	
536.51	11036	
536.71	12088	
536.9	11694	
537.1	10122	
537.29	10327	
537.49	12329	
537.68	11723	
537.88	10709	
538.07	9886.9	
538.27	11855	
538.46	12639	
538.66	9929.2	
538.86	10263	
539.05	11968	
539.25	12322	
539.44	10658	
539.64	10195	
539.83	11913	
540.03	12637	
540.22	10238	
540.42	10260	
540.61	12057	
540.81	12239	
541	10583	
541.2	11169	
541.39	11604	
541.59	11899	
541.78	10920	
541.98	10156	
542.18	11409	
542.37	11417	
542.57	10520	
542.76	10981	
542.96	11495	
543.15	12011	
543.35	10391	
543.54	9885.5	
543.74	12153	
543.93	11867	
544.13	10286	
544.32	11113	
544.52	11992	
544.71	11342	
544.91	9455.5	
545.1	10514	
545.3	11351	
545.49	11963	
545.69	9589.3	
545.88	10045	
546.08	12884	
546.27	12386	
546.47	10465	
546.66	9853.5	
546.86	12077	
547.05	12643	
547.24	10003	
547.44	9907.4	
547.63	11221	
547.83	12191	
548.02	10244	
548.22	10370	
548.41	11161	
548.61	12062	
548.8	9754.5	
549	9830.9	
549.19	11675	
549.39	11940	
549.58	9688.9	
549.78	10180	
549.97	11974	
550.17	11585	
550.36	10710	
550.55	11512	
550.75	11452	
550.94	12273	
551.14	9739.5	
551.33	10022	
551.53	11022	
551.72	11783	
551.92	10057	
552.11	9988.6	
552.31	11840	
552.5	11755	
552.69	11228	
552.89	9534	
553.08	11770	
553.28	11576	
553.47	9862.3	
553.67	10910	
553.86	12254	
554.06	10919	
554.25	9192	
554.44	9693.7	
554.64	12796	
554.83	12469	
555.03	9636.4	
555.22	9963.4	
555.42	11891	
555.61	11685	
555.8	9869.8	
556	9981.1	
556.19	11043	
556.39	11847	
556.58	9860.3	
556.78	9724.4	
556.97	11676	
557.16	11313	
557.36	10804	
557.55	9667.8	
557.75	10821	
557.94	12194	
558.13	9597.5	
558.33	9530.6	
558.52	12095	
558.72	11090	
558.91	9575.6	
559.1	9828.9	
559.3	10905	
559.49	10676	
559.69	9342.8	
559.88	10045	
560.07	11526	
560.27	11871	
560.46	10172	
560.66	10355	
560.85	11563	
561.04	10690	
561.24	9643.2	
561.43	9641.2	
561.63	10989	
561.82	11139	
562.01	10668	
562.21	9872.6	
562.4	11486	
562.59	12221	
562.79	9785.2	
562.98	9539.4	
563.18	11452	
563.37	12641	
563.56	10183	
563.76	9526.5	
563.95	11028	
564.14	11117	
564.34	9959.3	
564.53	9680.7	
564.73	11516	
564.92	11841	
565.11	10047	
565.31	9659.6	
565.5	11970	
565.69	11132	
565.89	9766.1	
566.08	10096	
566.27	11964	
566.47	12350	
566.66	10633	
566.85	9566.7	
567.05	11802	
567.24	11269	
567.44	9802.9	
567.63	10933	
567.82	11998	
568.02	11757	
568.21	9858.9	
568.4	10101	
568.6	11593	
568.79	11671	
568.98	9699.9	
569.18	9891.7	
569.37	11723	
569.56	13288	
569.76	10258	
569.95	11048	
570.14	12010	
570.34	11982	
570.53	9804.3	
570.72	9962.7	
570.91	12521	
571.11	11785	
571.3	10276	
571.49	10973	
571.69	11779	
571.88	11441	
572.07	10721	
572.27	10697	
572.46	11426	
572.65	12278	
572.85	10127	
573.04	10320	
573.23	12644	
573.43	11996	
573.62	9927.2	
573.81	10451	
574	12013	
574.2	11710	
574.39	10378	
574.58	10441	
574.78	12694	
574.97	12250	
575.16	10812	
575.36	10938	
575.55	12609	
575.74	12709	
575.93	10193	
576.13	11095	
576.32	12147	
576.51	12640	
576.71	10580	
576.9	11654	
577.09	12788	
577.28	12445	
577.48	11023	
577.67	10220	
577.86	12157	
578.05	12509	
578.25	10746	
578.44	10768	
578.63	12362	
578.83	13377	
579.02	10295	
579.21	11557	
579.4	12493	
579.6	12424	
579.79	10964	
579.98	12749	
580.17	12822	
580.37	12953	
580.56	10449	
580.75	11175	
580.94	13100	
581.14	13153	
581.33	11493	
581.52	10606	
581.71	12771	
581.91	13280	
582.1	10527	
582.29	10793	
582.48	12486	
582.68	12484	
582.87	11388	
583.06	11067	
583.25	12874	
583.45	12320	
583.64	11656	
583.83	12119	
584.02	12519	
584.21	12861	
584.41	11577	
584.6	11087	
584.79	12617	
584.98	13244	
585.18	10731	
585.37	10656	
585.56	12295	
585.75	13003	
585.94	10871	
586.14	11428	
586.33	13377	
586.52	12651	
586.71	11194	
586.91	11024	
587.1	12064	
587.29	13076	
587.48	10820	
587.67	10800	
587.87	12693	
588.06	12642	
588.25	11860	
588.44	11278	
588.63	12452	
588.83	12821	
589.02	10793	
589.21	10503	
589.4	12194	
589.59	12183	
589.78	9990	
589.98	10180	
590.17	11632	
590.36	12098	
590.55	9471.9	
590.74	9996.8	
590.94	12683	
591.13	11501	
591.32	9769.5	
591.51	9212.4	
591.7	11851	
591.89	11458	
592.09	9424.8	
592.28	9815.9	
592.47	10966	
592.66	12613	
592.85	9653.4	
593.05	9880.8	
593.24	11568	
593.43	12257	
593.62	9956.5	
593.81	10303	
594	11650	
594.19	11685	
594.39	9756.5	
594.58	9804.3	
594.77	11942	
594.96	12344	
595.15	9753.8	
595.34	10213	
595.54	11795	
595.73	11166	
595.92	9183.1	
596.11	10096	
596.3	12209	
596.49	11204	
596.68	9820	
596.88	10273	
597.07	11895	
597.26	11030	
597.45	9484.8	
597.64	10509	
597.83	11297	
598.02	11759	
598.22	9540.8	
598.41	10101	
598.6	11633	
598.79	11164	
598.98	9686.9	
599.17	10465	
599.36	11614	
599.55	12546	
599.74	11168	
599.94	11074	
600.13	12107	
600.32	11072	
600.51	9470.5	
600.7	9564.7	
600.89	12500	
601.08	12637	
601.27	9329.9	
601.47	10175	
601.66	12007	
601.85	12458	
602.04	10010	
602.23	10028	
602.42	11185	
602.61	11641	
602.8	9772.2	
602.99	9554.5	
603.18	11491	
603.37	11689	
603.57	10147	
603.76	10529	
603.95	12189	
604.14	11865	
604.33	9783.1	
604.52	10107	
604.71	11632	
604.9	11310	
605.09	10370	
605.28	10332	
605.47	12196	
605.66	11865	
605.86	10260	
606.05	9744.2	
606.24	12173	
606.43	10987	
606.62	10019	
606.81	10630	
607	11990	
607.19	11501	
607.38	9592.7	
607.57	9725.8	
607.76	11361	
607.95	10856	
608.14	9988.6	
608.33	10544	
608.52	11294	
608.72	12078	
608.91	9458.9	
609.1	9411.1	
609.29	11342	
609.48	10858	
609.67	10133	
609.86	9349	
610.05	11029	
610.24	11266	
610.43	9370.8	
610.62	9049.3	
610.81	12160	
611	11987	
611.19	9415.9	
611.38	10011	
611.57	11572	
611.76	12492	
611.95	9226.8	
612.14	9109.4	
612.33	11297	
612.52	10996	
612.71	9736.7	
612.9	9208.4	
613.09	10692	
613.28	12562	
613.47	9587.2	
613.66	10246	
613.85	11482	
614.04	11110	
614.24	9569.5	
614.43	8848.6	
614.62	11537	
614.81	11475	
615	9927.2	
615.19	9984.5	
615.38	10931	
615.57	11419	
615.76	9903.3	
615.95	10717	
616.14	11669	
616.33	11510	
616.52	10183	
616.71	10394	
616.9	11686	
617.09	11501	
617.28	9566.1	
617.47	10684	
617.66	10861	
617.85	10960	
618.04	10487	
618.22	10014	
618.41	11310	
618.6	12076	
618.79	10015	
618.98	9829.6	
619.17	12376	
619.36	10946	
619.55	10103	
619.74	10094	
619.93	11774	
620.12	11256	
620.31	10507	
620.5	10582	
620.69	12636	
620.88	12790	
621.07	11306	
621.26	10494	
621.45	12106	
621.64	12099	
621.83	10645	
622.02	9970.2	
622.21	12110	
622.4	11985	
622.59	11024	
622.78	10905	
622.97	11796	
623.16	12484	
623.35	10634	
623.54	9874.6	
623.72	11843	
623.91	11966	
624.1	10895	
624.29	9721.7	
624.48	12760	
624.67	12380	
624.86	10849	
625.05	10104	
625.24	13007	
625.43	11688	
625.62	12181	
625.81	10217	
626	12458	
626.19	11917	
626.38	10828	
626.56	10438	
626.75	11792	
626.94	12520	
627.13	10903	
627.32	9876.7	
627.51	12527	
627.7	13414	
627.89	9934	
628.08	10895	
628.27	11650	
628.46	11813	
628.65	10160	
628.83	9932	
629.02	12326	
629.21	11775	
629.4	10580	
629.59	10648	
629.78	11757	
629.97	12471	
630.16	10805	
630.35	10316	
630.54	12820	
630.72	12600	
630.91	10292	
631.1	10607	
631.29	12097	
631.48	12240	
631.67	10849	
631.86	10418	
632.05	11928	
632.24	11927	
632.42	10038	
632.61	10501	
632.8	11915	
632.99	11579	
633.18	10617	
633.37	10844	
633.56	12221	
633.75	12101	
633.93	10645	
634.12	10359	
634.31	12821	
634.5	12484	
634.69	10454	
634.88	10821	
635.07	11934	
635.25	12506	
635.44	11107	
635.63	11508	
635.82	11815	
636.01	11363	
636.2	11011	
636.39	10604	
636.57	12738	
636.76	12343	
636.95	10262	
637.14	11272	
637.33	12197	
637.52	12983	
637.7	10034	
637.89	10914	
638.08	11807	
638.27	12918	
638.46	10916	
638.65	11239	
638.83	12942	
639.02	11705	
639.21	10854	
639.4	11177	
639.59	12114	
639.78	11780	
639.96	10092	
640.15	10185	
640.34	11949	
640.53	11912	
640.72	9881.4	
640.91	10032	
641.09	11370	
641.28	12530	
641.47	10032	
641.66	10790	
641.85	11927	
642.03	11989	
642.22	10471	
642.41	10212	
642.6	11464	
642.79	11006	
642.97	9884.9	
643.16	10688	
643.35	11407	
643.54	11234	
643.73	9891.7	
643.91	10448	
644.1	11058	
644.29	11506	
644.48	9876	
644.67	9797.5	
644.85	11213	
645.04	11475	
645.23	9448.6	
645.42	9720.3	
645.6	10996	
645.79	11867	
645.98	9505.3	
646.17	8704.5	
646.36	10539	
646.54	10985	
646.73	9996.1	
646.92	9149.6	
647.11	10631	
647.29	11496	
647.48	9223.4	
647.67	8962.6	
647.86	11688	
648.05	12075	
648.23	9377	
648.42	10436	
648.61	11209	
648.8	11014	
648.98	9009	
649.17	9339.4	
649.36	10505	
649.55	10257	
649.73	9004.9	
649.92	9634.3	
650.11	10675	
650.3	10799	
650.48	9163.3	
650.67	9086.8	
650.86	11064	
651.05	10255	
651.23	9039.1	
651.42	8998.8	
651.61	10494	
651.79	10502	
651.98	9299.8	
652.17	8881.4	
652.36	10851	
652.54	10117	
652.73	8961.2	
652.92	8979.7	
653.11	10858	
653.29	11017	
653.48	8502.5	
653.67	9326.4	
653.85	10655	
654.04	11487	
654.23	9351.7	
654.42	8999.5	
654.6	10133	
654.79	10781	
654.98	8491.6	
655.16	8834.9	
655.35	9792.7	
655.54	9547.6	
655.73	8162.5	
655.91	8086.7	
656.1	10342	
656.29	9391.3	
656.47	7706.5	
656.66	9072.5	
656.85	9744.9	
657.03	9860.3	
657.22	8368	
657.41	8529.1	
657.59	10001	
657.78	9865.7	
657.97	8291.5	
658.16	8939.4	
658.34	10602	
658.53	10916	
658.72	9596.1	
658.9	10071	
659.09	10305	
659.28	10300	
659.46	8759.8	
659.65	8632.9	
659.84	9968.8	
660.02	10639	
660.21	8743.5	
660.4	8614.4	
660.58	10845	
660.77	10326	
660.96	9136.7	
661.14	8338	
661.33	11262	
661.52	11276	
661.7	8335.2	
661.89	11004	
662.08	10037	
662.26	9630.2	
662.45	8527.7	
662.64	8614.4	
662.82	10630	
663.01	9861.7	
663.2	8603.5	
663.38	9203.6	
663.57	10446	
663.75	10294	
663.94	8809	
664.13	9900.6	
664.31	9979.1	
664.5	10520	
664.69	9142.1	
664.87	9504.6	
665.06	9772.9	
665.25	10384	
665.43	9566.7	
665.62	9725.1	
665.8	10614	
665.99	10048	
666.18	8755.1	
666.36	8882	
666.55	10509	
666.74	10472	
666.92	8535.3	
667.11	9725.8	
667.29	10106	
667.48	10539	
667.67	9466.4	
667.85	8710.7	
668.04	10075	
668.22	10072	
668.41	8884.8	
668.6	9065	
668.78	9920.4	
668.97	10114	
669.15	9054.1	
669.34	8361.2	
669.53	9898.5	
669.71	10235	
669.9	8416.5	
670.08	8899.8	
670.27	9861.7	
670.46	10314	
670.64	9116.9	
670.83	9374.2	
671.01	9704.6	
671.2	10251	
671.38	8489.5	
671.57	8395.3	
671.76	10735	
671.94	11247	
672.13	8295.6	
672.31	9114.1	
672.5	10529	
672.69	9858.2	
672.87	8491.6	
673.06	8752.3	
673.24	10437	
673.43	9893.1	
673.61	9153.1	
673.8	8668.4	
673.98	10356	
674.17	10505	
674.36	9215.2	
674.54	9015.2	
674.73	10143	
674.91	10438	
675.1	8873.2	
675.28	8447.2	
675.47	10002	
675.65	10488	
675.84	8751	
676.03	9042.5	
676.21	9897.2	
676.4	9488.9	
676.58	9340.8	
676.77	9183.8	
676.95	11058	
677.14	9898.5	
677.32	8415.8	
677.51	8331.8	
677.69	10526	
677.88	9693	
678.06	8376.9	
678.25	8430.8	
678.44	10138	
678.62	9822.1	
678.81	8161.2	
678.99	8986.5	
679.18	10738	
679.36	10381	
679.55	8598.1	
679.73	9152.4	
679.92	10290	
680.1	9858.9	
680.29	9682.8	
680.47	8723.7	
680.66	9900.6	
680.84	10454	
681.03	8168.7	
681.21	9043.1	
681.4	9936.7	
681.58	9792.7	
681.77	8519.6	
681.95	8438.3	
682.14	10518	
682.32	10795	
682.51	9200.8	
682.69	8128.4	
682.88	9781.8	
683.06	10090	
683.25	8925.7	
683.43	9267.1	
683.62	10056	
683.8	10331	
683.99	9342.2	
684.17	8897.7	
684.36	10972	
684.54	9934	
684.73	8139.3	
684.91	8262.2	
685.1	10110	
685.28	9413.1	
685.46	8524.3	
685.65	8470.4	
685.83	9890.3	
686.02	9260.9	
686.2	7762.5	
686.39	7862.8	
686.57	8877.3	
686.76	10300	
686.94	7791.8	
687.13	8008.9	
687.31	9682.1	
687.5	9537.4	
687.68	7574.1	
687.86	8680.7	
688.05	10967	
688.23	9024.7	
688.42	8700.5	
688.6	8137.9	
688.79	9468.4	
688.97	9447.3	
689.16	8459.5	
689.34	7651.2	
689.52	10103	
689.71	10352	
689.89	8779	
690.08	8117.5	
690.26	9792.7	
690.45	9633	
690.63	8955.1	
690.81	8389.2	
691	9659.6	
691.18	9615.2	
691.37	8510.7	
691.55	10177	
691.74	9483.5	
691.92	11009	
692.1	8413.1	
692.29	8039	
692.47	9674.6	
692.66	9000.8	
692.84	8059.4	
693.02	8506.6	
693.21	9145.5	
693.39	9563.3	
693.58	8723.7	
693.76	8258.1	
693.94	10617	
694.13	10368	
694.31	8286.1	
694.5	9060.9	
694.68	9591.3	
694.86	9912.2	
695.05	8645.8	
695.23	9035	
695.42	10352	
695.6	12112	
695.78	9259.5	
695.97	8498.4	
696.15	10447	
696.34	9932	
696.52	8348.2	
696.7	9013.1	
696.89	10097	
697.07	9673.9	
697.25	8752.3	
697.44	10049	
697.62	9989.3	
697.81	10202	
697.99	8509.3	
698.17	8932.6	
698.36	9413.8	
698.54	10047	
698.72	8806.9	
698.91	7983.7	
699.09	9587.2	
699.28	9469.1	
699.46	8458.8	
699.64	8318.8	
699.83	9476	
700.01	10299	
700.19	9048.6	
700.38	7774.8	
700.56	10454	
700.74	9536	
700.93	8089.5	
701.11	8712.1	
701.29	9944.9	
701.48	10884	
701.66	8231.5	
701.84	8362.5	
702.03	9784.5	
702.21	10355	
702.39	8088.1	
702.58	8538	
702.76	10082	
702.94	10048	
703.13	8007.6	
703.31	9948.3	
703.49	9456.2	
703.68	10316	
703.86	8073.8	
704.04	9008.3	
704.23	9845.3	
704.41	10208	
704.59	8322.3	
704.78	9176.9	
704.96	10794	
705.14	10139	
705.33	8066.9	
705.51	8686.1	
705.69	9653.4	
705.87	10469	
706.06	8925.7	
706.24	8125	
706.42	10007	
706.61	10228	
706.79	8958.5	
706.97	8017.8	
707.16	9578.3	
707.34	9985.2	
707.52	8813.1	
707.7	8246.5	
707.89	9668.5	
708.07	9360.6	
708.25	8855.4	
708.44	8980.3	
708.62	9560.6	
708.8	10326	
708.98	8957.1	
709.17	8224	
709.35	9869.2	
709.53	9837.8	
709.72	7982.3	
709.9	8340	
710.08	9994.8	
710.26	10118	
710.45	9230.9	
710.63	8148.9	
710.81	9676.7	
710.99	9692.4	
711.18	8545.5	
711.36	8128.4	
711.54	9430.2	
711.72	10053	
711.91	8254	
712.09	7658.7	
712.27	9522.4	
712.45	10004	
712.64	8235.6	
712.82	7428.7	
713	8978.3	
713.18	9080.7	
713.37	7395.2	
713.55	8360.5	
713.73	9665	
713.91	8560.5	
714.1	7604.1	
714.28	7127.6	
714.46	9141.4	
714.64	8391.2	
714.83	6446.3	
715.01	6958.3	
715.19	8212.4	
715.37	7503.8	
715.55	6412.2	
715.74	6727.6	
715.92	8615.1	
716.1	6994.5	
716.28	7527.7	
716.47	6645	
716.65	7536.5	
716.83	7550.2	
717.01	6434.7	
717.19	6475	
717.38	9183.8	
717.56	7277.1	
717.74	6632.7	
717.92	5928.2	
718.1	8148.9	
718.29	7538.6	
718.47	5694	
718.65	6234.7	
718.83	8314.1	
719.01	8318.2	
719.2	5907.7	
719.38	6873	
719.56	8191.9	
719.74	9525.8	
719.92	6486.6	
720.11	7328.3	
720.29	8325	
720.47	7576.8	
720.65	6063.4	
720.83	6741.9	
721.02	7634.8	
721.2	7357.7	
721.38	6593.8	
721.56	5902.2	
721.74	6847.7	
721.92	7006.8	
722.11	6903	
722.29	6567.2	
722.47	7962.5	
722.65	7296.9	
722.83	5837.4	
723.01	6539.8	
723.2	7320.8	
723.38	7576.8	
723.56	5369.8	
723.74	6271.6	
723.92	6935.1	
724.1	7905.8	
724.29	5690.6	
724.47	6719.4	
724.65	7071.6	
724.83	6884.6	
725.01	5642.2	
725.19	6336.4	
725.37	6895.5	
725.56	6893.5	
725.74	5485.1	
725.92	5685.8	
726.1	6870.9	
726.28	7070.3	
726.46	5995.1	
726.64	5745.9	
726.83	7039.6	
727.01	7204.1	
727.19	5405.3	
727.37	5992.4	
727.55	7192.5	
727.73	7455.3	
727.91	5269.4	
728.09	5273.5	
728.28	7567.2	
728.46	7845.1	
728.64	6066.8	
728.82	6096.8	
729	8357.8	
729.18	7767.9	
729.36	5488.6	
729.54	7167.2	
729.72	8555.7	
729.91	7273.7	
730.09	7103	
730.27	6096.8	
730.45	7187	
730.63	7651.2	
730.81	6512.5	
730.99	5785.5	
731.17	8121.6	
731.35	6912.6	
731.53	6123.4	
731.71	5928.2	
731.9	7845.1	
732.08	7933.8	
732.26	6079.7	
732.44	5782.1	
732.62	8003.5	
732.8	7548.8	
732.98	6348.7	
733.16	5520.6	
733.34	7502.4	
733.52	6493.4	
733.7	5844.2	
733.88	6055.2	
734.07	7276.4	
734.25	7150.8	
734.43	5503.6	
734.61	6657.3	
734.79	8469	
734.97	7115.3	
735.15	5514.5	
735.33	5806	
735.51	7288.7	
735.69	6981.5	
735.87	6599.2	
736.05	5900.2	
736.23	7108.5	
736.41	6946.7	
736.59	5677	
736.77	5758.2	
736.95	7501.7	
737.13	7019.1	
737.32	5328.1	
737.5	5616.9	
737.68	7817.1	
737.86	6866.8	
738.04	5180	
738.22	6675.7	
738.4	6569.9	
738.58	6908.5	
738.76	5706.3	
738.94	4911	
739.12	6743.3	
739.3	6645.7	
739.48	6121.4	
739.66	5882.4	
739.84	6818.4	
740.02	6842.3	
740.2	4878.3	
740.38	5204.6	
740.56	7180.9	
740.74	6135	
740.92	5681.1	
741.1	5547.3	
741.28	6669.6	
741.46	6485.9	
741.64	5211.4	
741.82	5735	
742	6630	
742.18	6572.6	
742.36	5349.3	
742.54	5018.2	
742.72	7145.4	
742.9	5994.4	
743.08	5642.8	
743.26	4667.3	
743.44	7060	
743.62	6980.8	
743.8	5765	
743.98	4884.4	
744.16	6744.6	
744.34	6441.5	
744.52	5634.6	
744.7	5504.3	
744.88	6830.7	
745.06	6404.7	
745.24	5528.8	
745.42	5626.5	
745.6	6892.8	
745.78	6690.7	
745.96	4582.7	
746.14	4795.7	
746.32	7416.4	
746.5	6754.2	
746.68	5301.5	
746.86	4795.7	
747.03	7086.7	
747.21	5721.3	
747.39	5174.5	
747.57	4806.6	
747.75	6386.9	
747.93	6753.5	
748.11	4758.1	
748.29	4632.5	
748.47	7673.7	
748.65	6102.9	
748.83	5363.6	
749.01	5047.6	
749.19	6566.5	
749.37	5801.9	
749.55	4898.7	
749.73	4992.3	
749.91	6244.9	
750.09	5978	
750.26	5057.8	
750.44	4517.1	
750.62	6238.8	
750.8	6142.5	
750.98	4444.8	
751.16	4678.9	
751.34	6341.2	
751.52	5734.3	
751.7	5309.7	
751.88	4381.3	
752.06	6668.2	
752.24	6307.7	
752.42	4323.3	
752.59	4648.2	
752.77	6166.4	
752.95	7094.8	
753.13	5110.4	
753.31	4674.1	
753.49	5836.7	
753.67	6255.9	
753.85	4913.1	
754.03	4543.1	
754.21	6417.7	
754.38	6664.1	
754.56	4605.2	
754.74	3807.2	
754.92	5707.7	
755.1	6186.9	
755.28	3768.3	
755.46	3808.5	
755.64	6817	
755.82	6839.5	
755.99	3913.7	
756.17	4046.8	
756.35	4791.6	
756.53	6044.9	
756.71	3068.5	
756.89	3915.7	
757.07	5707.7	
757.25	5006.6	
757.42	4290.5	
757.6	4930.8	
757.78	5772.5	
757.96	4930.8	
758.14	4038.6	
758.32	3629.7	
758.5	4587.4	
758.67	5274.2	
758.85	3919.1	
759.03	3946.4	
759.21	5431.9	
759.39	4941.7	
759.57	3557.3	
759.75	4498	
759.92	5971.2	
760.1	5408.7	
760.28	4760.8	
760.46	4949.3	
760.64	5147.9	
760.82	4993.6	
760.99	4501.4	
761.17	4001.7	
761.35	5905.7	
761.53	5071.5	
761.71	4090.5	
761.89	4648.2	
762.06	5732.3	
762.24	5327.4	
762.42	4220.9	
762.6	4035.2	
762.78	5335	
762.96	5872.2	
763.13	4469.4	
763.31	4259.1	
763.49	5986.9	
763.67	5316.5	
763.85	4913.1	
764.02	5326.1	
764.2	6275.7	
764.38	5440.1	
764.56	4134.2	
764.74	4801.8	
764.91	6298.9	
765.09	5370.5	
765.27	3842	
765.45	3691.1	
765.63	6369.2	
765.8	6129.6	
765.98	3524.6	
766.16	3772.4	
766.34	4995.7	
766.52	4844.1	
766.69	4545.8	
766.87	3666.5	
767.05	5382.1	
767.23	5933.6	
767.41	3863.2	
767.58	4045.4	
767.76	5862.7	
767.94	5891.3	
768.12	3899.3	
768.29	4539.7	
768.47	5410.7	
768.65	6016.2	
768.83	3613.3	
769	4551.3	
769.18	5072.8	
769.36	5638.7	
769.54	4507.6	
769.72	3596.9	
769.89	5788.2	
770.07	5937.7	
770.25	3940.3	
770.43	4944.5	
770.6	6451.8	
770.78	6784.2	
770.96	4032.5	
771.14	4504.2	
771.31	5702.9	
771.49	5225.1	
771.67	3345.7	
771.85	3573	
772.02	4674.8	
772.2	5202.5	
772.38	4121.9	
772.55	3744.4	
772.73	5456.5	
772.91	5322	
773.09	4039.3	
773.26	4133.5	
773.44	5416.2	
773.62	5131.5	
773.8	3644	
773.97	3448.8	
774.15	5456.5	
774.33	5167.7	
774.5	3523.2	
774.68	3870	
774.86	5555.5	
775.04	5147.9	
775.21	3683.6	
775.39	3601.7	
775.57	5425.8	
775.74	5668.1	
775.92	3493.8	
776.1	3401.7	
776.27	5339.1	
776.45	6376.7	
776.63	3610.6	
776.81	3296.5	
776.98	5047.6	
777.16	5870.2	
777.34	3678.2	
777.51	3928.7	
777.69	5098.1	
777.87	4864.6	
778.04	3799.7	
778.22	4199	
778.4	4896	
778.57	5453.7	
778.75	3164.1	
778.93	3388	
779.1	4732.2	
779.28	4592.2	
779.46	3149.1	
779.64	3550.5	
779.81	5554.8	
779.99	6233.3	
780.17	4199.7	
780.34	4276.2	
780.52	5130.2	
780.69	5227.1	
780.87	3790.1	
781.05	3476.8	
781.22	5133.6	
781.4	5221.6	
781.58	3588	
781.75	2930.6	
781.93	5251	
782.11	4633.2	
782.28	4356.7	
782.46	3558	
782.64	4597	
782.81	5352.7	
782.99	3697.9	
783.17	3573.7	
783.34	5202.5	
783.52	4626.4	
783.69	3783.3	
783.87	4392.9	
784.05	4664.6	
784.22	4679.6	
784.4	4419.5	
784.58	3829.7	
784.75	5479	
784.93	4753.3	
785.1	3540.9	
785.28	4009.9	
785.46	5215.5	
785.63	4672.1	
785.81	3558.7	
785.99	3418.7	
786.16	4861.9	
786.34	5098.1	
786.51	3469.3	
786.69	3743	
786.87	4430.4	
787.04	4881.7	
787.22	3319.8	
787.39	4109.6	
787.57	4689.2	
787.75	5570.5	
787.92	4310.3	
788.1	4182	
788.27	4629.1	
788.45	4434.5	
788.63	4063.9	
788.8	2936.1	
788.98	5000.5	
789.15	4362.9	
789.33	3099.3	
789.5	3588	
789.68	5399.1	
789.86	5530.9	
790.03	3830.4	
790.21	3485	
790.38	5448.3	
790.56	4777.2	
790.73	3355.3	
790.91	3355.3	
791.09	4687.1	
791.26	5253	
791.44	3570.3	
791.61	3064.4	
791.79	4635.9	
791.96	4630.5	
792.14	3190.7	
792.32	2880.8	
792.49	4704.2	
792.67	4721.9	
792.84	3263.8	
793.02	3059	
793.19	5053.7	
793.37	5587.5	
793.54	2880.1	
793.72	3168.2	
793.89	5660.6	
794.07	4653	
794.25	3509.5	
794.42	2872.6	
794.6	5512.4	
794.77	5162.2	
794.95	3884.3	
795.12	3390.8	
795.3	4639.3	
795.47	5144.5	
795.65	3748.5	
795.82	3605.1	
796	4432.5	
796.17	6038.1	
796.35	3486.3	
796.52	4033.1	
796.7	5087.8	
796.87	5186.1	
797.05	3442	
797.22	4126	
797.4	5134.9	
797.57	5932.3	
797.75	3592.1	
797.92	3390.8	
798.1	5397.1	
798.27	4591.5	
798.45	2938.8	
798.62	3149.8	
798.8	4816.1	
798.97	5305.6	
799.15	3745.7	
799.32	3564.8	
799.5	4277.5	
799.67	4934.2	
799.85	3879.5	
800.02	2873.3	
800.2	4588.8	
800.37	4786.8	
800.55	3981.9	
800.72	3366.2	
800.9	5245.5	
801.07	5588.2	
801.25	4455.7	
801.42	3648.8	
801.6	5311.1	
801.77	4965.6	
801.95	3468.6	
802.12	3262.4	
802.29	5050.3	
802.47	4971.8	
802.64	3640.6	
802.82	2829.6	
802.99	4590.2	
803.17	5359.5	
803.34	3577.8	
803.52	3267.2	
803.69	5879.7	
803.87	4380.6	
804.04	3528	
804.21	3597.6	
804.39	5525.4	
804.56	4775.9	
804.74	3061	
804.91	3673.4	
805.09	4616.8	
805.26	4640	
805.44	3096.5	
805.61	3397.6	
805.78	5195	
805.96	5134.9	
806.13	3639.2	
806.31	3915	
806.48	4219.5	
806.66	4676.9	
806.83	3654.3	
807	3584.6	
807.18	4584	
807.35	4904.2	
807.53	3522.5	
807.7	2920.4	
807.87	5604.6	
808.05	4636.6	
808.22	3877.5	
808.4	2895.8	
808.57	4623.6	
808.74	4352.6	
808.92	3298.6	
809.09	4114.4	
809.27	4592.9	
809.44	5010	
809.61	2945.7	
809.79	3222.1	
809.96	5597.1	
810.14	5115.8	
810.31	2826.9	
810.48	3463.8	
810.66	4683.7	
810.83	5266.7	
811.01	3265.8	
811.18	3642	
811.35	5184.1	
811.53	4165.6	
811.7	3906.8	
811.87	3651.5	
812.05	4584	
812.22	4551.3	
812.39	3272.7	
812.57	3059.7	
812.74	4660.5	
812.92	5934.3	
813.09	3423.5	
813.26	3658.4	
813.44	5752.1	
813.61	4521.9	
813.78	2908.1	
813.96	3782.6	
814.13	4619.5	
814.3	4388.1	
814.48	4082.3	
814.65	3449.5	
814.82	5569.8	
815	4420.9	
815.17	3550.5	
815.34	4236.6	
815.52	4595.6	
815.69	4571.7	
815.87	3499.3	
816.04	3409.2	
816.21	4622.9	
816.38	4146.5	
816.56	3409.9	
816.73	3177.1	
816.9	5739.1	
817.08	5230.5	
817.25	3219.4	
817.42	3928	
817.6	4226.3	
817.77	4585.4	
817.94	3541.6	
818.12	3155.9	
818.29	4385.4	
818.46	6531	
818.64	3369.6	
818.81	3080.8	
818.98	4366.3	
819.16	6088.6	
819.33	3760.1	
819.5	3533.4	
819.67	4915.8	
819.85	5405.3	
820.02	3491.8	
820.19	3680.2	
820.37	4783.4	
820.54	4545.8	
820.71	3605.1	
820.88	4389.5	
821.06	4846.2	
821.23	4434.5	
821.4	3575.8	
821.58	3521.1	
821.75	5246.9	
821.92	4747.9	
822.09	2889.7	
822.27	3186	
822.44	4595.6	
822.61	4532.2	
822.79	2977.7	
822.96	5395	
823.13	4986.1	
823.3	4358.8	
823.48	3336.1	
823.65	3029.6	
823.82	5165	
823.99	4315.1	
824.17	4171.7	
824.34	3138.2	
824.51	5961	
824.68	4648.2	
824.86	3183.2	
825.03	3528.7	
825.2	4650.3	
825.37	5451	
825.55	3216	
825.72	3534.8	
825.89	5866.1	
826.06	5557.5	
826.24	3423.5	
826.41	3429.7	
826.58	5512.4	
826.75	4891.9	
826.92	2772.9	
827.1	3018	
827.27	7309.2	
827.44	5904.3	
827.61	3218.7	
827.79	3878.9	
827.96	4431.1	
828.13	4681.7	
828.3	3441.3	
828.47	2886.3	
828.65	4863.2	
828.82	4812.7	
828.99	4283.7	
829.16	3775.1	
829.34	5170.4	
829.51	5001.1	
829.68	3470.6	
829.85	3630.4	
830.02	5474.2	
830.2	5159.5	
830.37	2798.9	
830.54	4175.8	
830.71	5810.1	
830.88	4653	
831.05	2783.2	
831.23	3194.1	
831.4	5563.6	
831.57	6093.4	
831.74	3295.9	
831.91	2898.6	
832.09	4878.3	
832.26	5181.4	
832.43	3363.4	
832.6	3679.5	
832.77	4895.3	
832.94	5504.3	
833.12	2749.7	
833.29	3289.7	
833.46	4581.3	
833.63	6311.8	
833.8	3670.6	
833.97	3336.1	
834.15	5195.7	
834.32	5052.3	
834.49	3547.8	
834.66	3612.6	
834.83	5312.4	
835	4436.6	
835.17	3192.8	
835.35	3246	
835.52	5102.2	
835.69	4978.6	
835.86	3431.7	
836.03	2816	
836.2	5157.5	
836.37	4773.8	
836.55	3388	
836.72	3186	
836.89	4760.2	
837.06	5222.3	
837.23	3388	
837.4	3690.4	
837.57	5831.2	
837.75	6361.7	
837.92	3076	
838.09	3299.3	
838.26	4766.3	
838.43	5335.6	
838.6	3517	
838.77	3100.6	
838.94	6008.1	
839.11	5840.1	
839.29	3366.2	
839.46	2708.8	
839.63	5193.6	
839.8	4870.1	
839.97	3277.4	
840.14	3267.2	
840.31	4971.8	
840.48	5259.2	
840.65	2753.2	
840.82	3168.9	
841	5119.2	
841.17	5002.5	
841.34	3009.1	
841.51	3076.7	
841.68	5069.4	
841.85	4913.1	
842.02	3094.5	
842.19	2660.3	
842.36	4921.3	
842.53	4971.1	
842.7	3059	
842.87	3650.8	
843.05	6244.9	
843.22	4815.5	
843.39	2892.4	
843.56	3108.1	
843.73	4762.2	
843.9	5242.1	
844.07	4728.1	
844.24	3983.3	
844.41	7089.4	
844.58	4499.4	
844.75	2910.2	
844.92	3117.7	
845.09	5109	
845.26	5079.6	
845.43	3017.3	
845.6	3146.4	
845.77	5091.3	
845.94	4935.6	
846.12	3308.2	
846.29	3523.9	
846.46	5306.3	
846.63	5052.3	
846.8	3006.4	
846.97	3545	
847.14	5512.4	
847.31	5070.8	
847.48	3364.8	
847.65	3663.8	
847.82	5339.1	
847.99	5271.5	
848.16	3947.8	
848.33	3694.5	
848.5	4767	
848.67	5556.8	
848.84	2956.6	
849.01	3086.3	
849.18	4657.1	
849.35	4405.9	
849.52	3715.7	
849.69	2936.8	
849.86	5298.1	
850.03	5386.8	
850.2	3061.7	
850.37	3614	
850.54	5412.8	
850.71	4837.3	
850.88	3597.6	
851.05	2918.4	
851.22	5056.4	
851.39	5573.2	
851.56	2795.5	
851.73	3388.7	
851.9	4583.4	
852.07	5358.2	
852.24	3293.1	
852.41	3001	
852.58	5039.4	
852.75	4587.4	
852.92	3352.5	
853.09	2935.4	
853.26	4780	
853.43	5449	
853.6	2987.3	
853.77	2587.3	
853.94	5559.6	
854.11	4519.2	
854.28	4347.2	
854.44	3226.9	
854.61	5867.4	
854.78	5403.2	
854.95	2972.3	
855.12	3680.9	
855.29	4214	
855.46	5575.3	
855.63	2978.4	
855.8	4073.4	
855.97	4739.7	
856.14	5415.5	
856.31	4199.7	
856.48	3223.5	
856.65	4785.4	
856.82	4509.6	
856.99	2877.4	
857.16	3226.2	
857.33	6107	
857.49	4856.4	
857.66	3168.9	
857.83	3439.2	
858	4813.4	
858.17	4974.5	
858.34	2821.4	
858.51	3016	
858.68	5633.3	
858.85	5666	
859.02	3457	
859.19	3594.9	
859.36	4510.3	
859.52	4556	
859.69	3035.1	
859.86	3510.9	
860.03	4599.1	
860.2	5586.2	
860.37	2739.5	
860.54	3039.2	
860.71	5285.8	
860.88	5655.8	
861.05	3336.1	
861.21	3688.4	
861.38	5618.9	
861.55	4414.1	
861.72	2785.9	
861.89	3327.9	
862.06	5330.2	
862.23	5728.9	
862.4	2892.4	
862.56	3059.7	
862.73	5219.6	
862.9	4898.7	
863.07	3473.4	
863.24	2723.1	
863.41	4444.8	
863.58	4543.1	
863.75	3043.3	
863.91	3461.7	
864.08	5543.9	
864.25	5287.9	
864.42	3666.5	
864.59	4130.8	
864.76	5904.3	
864.93	4588.8	
865.09	2946.3	
865.26	3174.4	
865.43	5546.6	
865.6	5800.5	
865.77	2628.2	
865.94	2942.9	
866.1	5519.3	
866.27	5257.1	
866.44	4368.3	
866.61	2864.4	
866.78	4900.1	
866.95	5200.5	
867.11	2917	
867.28	2684.2	
867.45	5388.2	
867.62	4533.5	
867.79	3386	
867.96	2980.5	
868.12	4590.2	
868.29	5310.4	
868.46	2964.1	
868.63	3928.7	
868.8	5442.8	
868.97	5239.4	
869.13	3151.1	
869.3	3167.5	
869.47	5113.1	
869.64	5352.7	
869.81	2994.1	
869.97	3007.8	
870.14	5089.9	
870.31	5621	
870.48	2908.1	
870.65	3749.1	
870.81	4795.7	
870.98	4820.2	
871.15	3334.8	
871.32	3119.1	
871.48	5149.3	
871.65	5725.4	
871.82	2933.4	
871.99	3288.4	
872.16	6000.5	
872.32	5554.1	
872.49	3018.7	
872.66	3018	
872.83	5262.6	
872.99	4665.3	
873.16	3419.4	
873.33	2937.5	
873.5	4939	
873.67	4984.1	
873.83	3132	
874	3953.9	
874.17	5132.9	
874.34	5834.7	
874.5	3809.2	
874.67	3681.6	
874.84	5595.7	
875.01	4461.8	
875.17	4087.1	
875.34	2970.9	
875.51	5042.1	
875.68	5969.8	
875.84	3584.6	
876.01	4248.9	
876.18	5279	
876.34	5205.9	
876.51	3047.4	
876.68	2930.6	
876.85	4809.3	
877.01	5455.1	
877.18	4124.6	
877.35	2932	
877.52	5018.9	
877.68	4498	
877.85	2921.8	
878.02	2960	
878.18	4873.5	
878.35	4668.7	
878.52	2449.4	
878.69	3289	
878.85	5352.7	
879.02	5221.6	
879.19	4197.7	
879.35	3211.2	
879.52	5246.9	
879.69	5366.4	
879.86	2615.9	
880.02	3339.6	
880.19	4928.8	
880.36	5902.2	
880.52	3368.9	
880.69	3514.3	
880.86	5293.3	
881.02	5348.6	
881.19	3298.6	
881.36	3213.9	
881.52	5175.9	
881.69	4612	
881.86	3238.5	
882.02	3099.3	
882.19	5412.8	
882.36	6291.4	
882.52	3046	
882.69	4102.8	
882.86	5049.6	
883.02	5053	
883.19	3551.2	
883.36	3372.3	
883.52	5332.2	
883.69	5946.6	
883.86	3032.4	
884.02	2710.8	
884.19	5246.2	
884.36	4937.7	
884.52	3369.6	
884.69	3155.2	
884.86	4689.8	
885.02	5746.6	
885.19	3347.7	
885.36	3397.6	
885.52	4881	
885.69	5113.1	
885.86	4250.2	
886.02	3751.9	
886.19	5273.5	
886.35	4766.3	
886.52	3241.9	
886.69	4100	
886.85	4586.1	
887.02	5580	
887.19	5580	
887.35	5580	
887.52	5580	
887.68	5580	
887.85	5580	
888.02	5580	
888.18	5580	
888.35	5580	
888.51	5580	
888.68	5580	
888.85	5580	
889.01	5580	
889.18	5580	
889.35	5580	
889.51	5580	
889.68	5580	
889.84	5580	
890.01	5580	
890.17	5580	
890.34	5580	
890.51	5580	
890.67	5580	
890.84	5580	
891	5580	
891.17	5580	
891.34	5580	
891.5	5580	
891.67	5580	
891.83	5580	
892	5580	
892.16	5580	
892.33	5580	
892.5	5580	
892.66	5580	
892.83	5580	
892.99	5580	
893.16	5580	
893.32	5580	
893.49	5580	
893.65	5580	
893.82	5580	
893.99	5580	
894.15	5580	
894.32	5580	
894.48	5580	
894.65	5580	
894.81	5580	
894.98	5580	
895.14	5580	
895.31	5580	
895.47	5580	
895.64	5580	
895.81	5580	
895.97	5580	
896.14	5580	
896.3	5580	
896.47	5580	
896.63	5580	
896.8	5580	
896.96	5580	
897.13	5580	
897.29	5580	
897.46	5580	
897.62	5580	
897.79	5580	
897.95	5580	
898.12	5580	
898.28	5580	
898.45	5580	
898.61	5580	
898.78	5580	
898.94	5580	
899.11	5580	
899.27	5580	
899.44	5580	
899.6	5580	
899.77	5580	
899.93	5580	
900.1	5580	
900.26	5580	
900.43	5580	
900.59	5580	
900.76	5580	
900.92	5580	
901.09	5580	
901.25	5580	
901.42	5580	
901.58	5580	
901.75	5580	
901.91	5580	
902.07	5580	
902.24	5580	
902.4	5580	
902.57	5580	
902.73	5580	
902.9	5580	
903.06	5580	
903.23	5580	
903.39	5580	
903.56	5580	
903.72	5580	
903.88	5580	
904.05	5580	
904.21	5580	
904.38	5580	
904.54	5580	
904.71	5580	
904.87	5580	
905.03	5580	
905.2	5580	
905.36	5580	
905.53	5580	
905.69	5580	
905.86	5580	
906.02	5580	
906.18	5580	
906.35	5580	
906.51	5580	
906.68	5580	
906.84	5580	
907.01	5580	
907.17	5580	
907.33	5580	
907.5	5580	
907.66	5580	
907.83	5580	
907.99	5580	
908.15	5580	
908.32	5580	
908.48	5580	
908.65	5580	
908.81	5580	
908.97	5580	
909.14	5580	
909.3	5580	
909.47	5580	
909.63	5580	
909.79	5580	
909.96	5580	
910.12	5580	
910.28	5580	
910.45	5580	
910.61	5580	
910.78	5580	
910.94	5580	
911.1	5580	
911.27	5580	
911.43	5580	
911.59	5580	
911.76	5580	
911.92	5580	
912.08	5580	
912.25	5580	
912.41	5580	
912.57	5580	
912.74	5580	
912.9	5580	
913.07	5580	
913.23	5580	
913.39	5580	
913.56	5580	
913.72	5580	
913.88	5580	
914.05	5580	
914.21	5580	
914.37	5580	
914.54	5580	
914.7	5580	
914.86	5580	
915.03	5580	
915.19	5580	
