Wavelength	Intensities	
nm	a.u.	
179.22	1949.2	
179.44	1943.9	
179.65	1954.4	
179.86	1933.3	
180.08	1973.6	
180.29	5059.8	
180.51	3610.6	
180.72	5744.6	
180.94	6807.4	
181.15	3292.5	
181.37	3261.7	
181.58	5618.3	
181.79	5995.1	
182.01	3432.4	
182.22	3774.4	
182.44	5877	
182.65	4924	
182.87	4666.6	
183.08	4148.5	
183.29	6270.2	
183.51	5081.7	
183.72	3779.9	
183.94	5578.7	
184.15	5555.5	
184.37	5502.2	
184.58	3265.1	
184.79	4569.7	
185.01	5080.3	
185.22	5961.6	
185.44	4876.9	
185.65	4051.6	
185.86	5364.3	
186.08	4977.9	
186.29	3188	
186.51	3481.5	
186.72	5111.7	
186.94	6132.3	
187.15	4022.9	
187.36	4199.7	
187.58	7959.8	
187.79	5668.8	
188.01	4343.1	
188.22	6808.8	
188.43	6842.3	
188.65	5857.2	
188.86	3483.6	
189.08	4085.7	
189.29	5307.7	
189.5	5330.2	
189.72	3854.3	
189.93	3920.5	
190.15	6098.9	
190.36	7333.1	
190.57	4220.9	
190.79	4126.7	
191	6150.7	
191.22	6132.3	
191.43	4293.2	
191.64	3466.5	
191.86	6397.2	
192.07	6073.6	
192.29	3595.6	
192.5	3829.7	
192.71	6116.6	
192.93	5264.6	
193.14	3848.1	
193.35	3865.2	
193.57	5311.7	
193.78	6082.5	
194	3097.9	
194.21	3774.4	
194.42	5024.3	
194.64	5548.6	
194.85	4155.3	
195.07	4890.5	
195.28	5646.2	
195.49	4769	
195.71	5152	
195.92	3534.8	
196.13	5754.8	
196.35	5814.2	
196.56	5520.6	
196.78	4158.7	
196.99	7245.7	
197.2	6780.8	
197.42	4745.1	
197.63	4218.8	
197.84	4939	
198.06	5763.7	
198.27	3843.4	
198.48	5227.1	
198.7	5351.3	
198.91	5407.3	
199.13	4184	
199.34	4209.9	
199.55	5988.3	
199.77	4820.9	
199.98	3672	
200.19	4289.1	
200.41	5410.1	
200.62	5132.2	
200.83	4440.7	
201.05	4727.4	
201.26	5353.4	
201.47	5157.5	
201.69	3678.2	
201.9	3539.6	
202.11	5468.8	
202.33	6582.9	
202.54	3925.3	
202.76	4429.1	
202.97	5696.8	
203.18	5683.1	
203.4	4353.3	
203.61	4199	
203.82	5593	
204.04	5193.6	
204.25	4263.2	
204.46	4122.6	
204.68	5500.8	
204.89	5777.3	
205.1	4141.7	
205.32	3513.6	
205.53	5943.2	
205.74	6084.5	
205.96	3045.3	
206.17	4317.8	
206.38	5940.5	
206.6	6109.8	
206.81	4793.6	
207.02	3962.1	
207.24	5720	
207.45	6211.5	
207.66	4003.1	
207.88	3433.8	
208.09	5723.4	
208.3	5550.7	
208.52	3616.7	
208.73	4061.8	
208.94	5527.5	
209.15	6241.5	
209.37	4005.1	
209.58	4234.5	
209.79	6151.4	
210.01	5302.9	
210.22	3181.9	
210.43	3433.8	
210.65	5518.6	
210.86	5979.4	
211.07	3984.7	
211.29	3691.8	
211.5	5982.8	
211.71	5455.8	
211.93	3621.5	
212.14	3658.4	
212.35	5410.1	
212.56	5781.4	
212.78	4243.4	
212.99	3507.5	
213.2	6535.1	
213.42	5251.7	
213.63	3742.3	
213.84	4064.5	
214.06	4861.9	
214.27	4979.3	
214.48	3979.9	
214.69	4317.1	
214.91	6240.2	
215.12	6323.4	
215.33	4343.7	
215.55	4763.6	
215.76	6842.9	
215.97	5878.4	
216.18	4121.9	
216.4	4033.1	
216.61	5208	
216.82	6023.1	
217.04	3726.6	
217.25	3799	
217.46	6207.4	
217.67	5939.8	
217.89	3278.8	
218.1	3417.4	
218.31	5657.9	
218.53	5732.3	
218.74	3889.8	
218.95	3743	
219.16	5481	
219.38	6493.4	
219.59	3795.6	
219.8	4428.4	
220.01	7249.8	
220.23	5545.2	
220.44	5017.5	
220.65	3616.7	
220.87	5586.2	
221.08	6150.7	
221.29	3367.5	
221.5	4636.6	
221.72	7664.2	
221.93	5231.2	
222.14	4256.4	
222.35	4997.7	
222.57	5541.8	
222.78	5886.5	
222.99	3975.1	
223.2	4372.4	
223.42	5887.9	
223.63	6005.3	
223.84	3065.1	
224.05	3005.7	
224.27	7140.6	
224.48	6516	
224.69	4982	
224.9	4215.4	
225.12	5783.5	
225.33	5463.3	
225.54	3296.5	
225.75	3695.9	
225.97	5014.8	
226.18	5332.9	
226.39	4100.7	
226.6	3720.5	
226.82	5266	
227.03	5091.9	
227.24	4223.6	
227.45	3514.3	
227.67	5896.8	
227.88	6488	
228.09	4724.7	
228.3	4730.8	
228.52	5988.3	
228.73	5511.8	
228.94	3824.9	
229.15	3396.2	
229.36	5448.3	
229.58	5395.7	
229.79	3984.7	
230	4584	
230.21	6629.3	
230.43	5694.7	
230.64	4201.1	
230.85	4338.3	
231.06	5925.5	
231.28	5990.3	
231.49	3456.3	
231.7	4055.7	
231.91	5891.3	
232.12	5581.4	
232.34	3521.1	
232.55	4066.6	
232.76	6206	
232.97	5711.8	
233.18	3694.5	
233.4	4175.8	
233.61	5812.1	
233.82	5281.7	
234.03	3876.8	
234.25	3771.7	
234.46	7741.3	
234.67	5601.9	
234.88	4303.5	
235.09	3709.6	
235.31	5883.8	
235.52	5456.5	
235.73	4195.6	
235.94	3473.4	
236.15	5242.8	
236.37	6782.9	
236.58	3720.5	
236.79	4024.3	
237	5836.7	
237.21	5012.1	
237.43	4336.9	
237.64	3391.4	
237.85	10286	
238.06	5096	
238.27	4399	
238.48	3478.1	
238.7	5870.2	
238.91	5382.7	
239.12	4015.4	
239.33	4023.6	
239.54	5040.7	
239.76	5436	
239.97	3947.1	
240.18	4044.1	
240.39	7040.2	
240.6	5857.2	
240.82	4214	
241.03	3429	
241.24	5490.6	
241.45	6455.2	
241.66	3658.4	
241.87	4314.4	
242.09	6281.8	
242.3	6654.5	
242.51	4429.1	
242.72	3993.5	
242.93	6062	
243.14	5504.3	
243.36	4685.1	
243.57	5125.4	
243.78	6488	
243.99	5922.7	
244.2	4081.6	
244.41	3661.8	
244.63	5074.2	
244.84	5853.1	
245.05	4315.8	
245.26	4009.9	
245.47	5823.1	
245.68	6073.6	
245.9	5368.4	
246.11	4185.4	
246.32	5359.5	
246.53	5795.1	
246.74	6601.3	
246.95	3392.8	
247.16	5050.3	
247.38	5501.5	
247.59	3334.1	
247.8	4121.2	
248.01	5204.6	
248.22	5500.8	
248.43	3678.2	
248.64	3857.7	
248.86	4902.8	
249.07	5240.1	
249.28	3569.6	
249.49	4132.1	
249.7	6153.5	
249.91	6273.6	
250.12	3333.4	
250.34	3388	
250.55	5604.6	
250.76	5580	
250.97	4143.7	
251.18	4261.1	
251.39	6354.2	
251.6	5696.8	
251.81	4263.2	
252.03	4235.9	
252.24	5222.3	
252.45	6112.5	
252.66	3528.7	
252.87	4493.2	
253.08	5578.7	
253.29	7382.9	
253.5	3485.6	
253.72	4930.8	
253.93	5355.4	
254.14	6647.7	
254.35	3818.1	
254.56	3962.1	
254.77	5825.1	
254.98	5139.7	
255.19	3792.2	
255.41	4909.7	
255.62	5595.1	
255.83	6296.8	
256.04	4362.2	
256.25	4303.5	
256.46	6888	
256.67	5212.8	
256.88	4143	
257.09	4584	
257.31	5224.4	
257.52	5210.7	
257.73	5286.5	
257.94	3795.6	
258.15	5386.2	
258.36	5592.3	
258.57	4844.1	
258.78	3024.2	
258.99	6116.6	
259.2	5322.7	
259.41	3799.7	
259.63	3977.2	
259.84	6426.5	
260.05	6962.4	
260.26	5059.8	
260.47	3713	
260.68	6137.1	
260.89	5440.8	
261.1	4698.7	
261.31	3712.3	
261.52	6112.5	
261.73	6556.9	
261.95	4924.7	
262.16	4412	
262.37	6274.3	
262.58	6447.7	
262.79	4964.3	
263	3928	
263.21	5537.7	
263.42	5040.7	
263.63	3968.3	
263.84	3865.9	
264.05	6092.7	
264.26	6587	
264.47	4855.1	
264.69	4376.5	
264.9	6242.9	
265.11	5784.1	
265.32	3680.9	
265.53	3853.6	
265.74	5695.4	
265.95	4934.9	
266.16	4067.3	
266.37	4564.2	
266.58	5688.6	
266.79	5401.2	
267	3762.8	
267.21	3497.2	
267.42	5071.5	
267.63	5513.8	
267.84	4025.6	
268.06	3377.1	
268.27	5981.4	
268.48	6265.4	
268.69	3882.9	
268.9	4672.1	
269.11	6310.5	
269.32	4990.9	
269.53	4033.8	
269.74	3729.4	
269.95	5928.9	
270.16	4880.3	
270.37	4035.2	
270.58	4732.9	
270.79	5358.2	
271	6073.6	
271.21	4321.9	
271.42	4149.9	
271.63	5680.4	
271.84	5175.2	
272.05	3169.6	
272.26	3666.5	
272.47	5517.2	
272.68	5750.7	
272.89	3808.5	
273.11	4513	
273.32	5398.4	
273.53	6580.8	
273.74	4441.4	
273.95	4288.4	
274.16	6187.6	
274.37	5638.7	
274.58	4509.6	
274.79	3506.8	
275	5735.7	
275.21	6289.3	
275.42	5327.4	
275.63	4573.8	
275.84	5837.4	
276.05	7340.6	
276.26	4276.2	
276.47	3965.6	
276.68	5383.4	
276.89	6642.2	
277.1	4591.5	
277.31	3539.6	
277.52	5795.1	
277.73	5969.1	
277.94	3494.5	
278.15	3865.9	
278.36	5772.5	
278.57	5187.5	
278.78	3845.4	
278.99	4384.7	
279.2	5091.9	
279.41	5129.5	
279.62	5113.8	
279.83	3569.6	
280.04	6822.5	
280.25	5019.6	
280.46	5087.8	
280.67	4029.7	
280.88	5150.6	
281.09	6249	
281.3	4263.2	
281.51	5461.9	
281.72	5248.9	
281.93	6089.3	
282.14	3784.6	
282.35	4047.5	
282.56	6042.9	
282.77	6036.7	
282.98	3905.5	
283.19	4854.4	
283.4	7524.9	
283.61	5459.2	
283.82	3551.2	
284.03	5058.5	
284.24	5664	
284.45	6193.7	
284.66	5023	
284.87	4856.4	
285.08	6163	
285.29	6322.8	
285.5	3448.1	
285.71	3941.7	
285.92	6234.7	
286.12	6956.3	
286.33	5002.5	
286.54	3940.3	
286.75	6106.4	
286.96	5468.1	
287.17	3658.4	
287.38	4894.6	
287.59	5125.4	
287.8	5076.9	
288.01	3991.5	
288.22	4586.1	
288.43	6152.8	
288.64	5039.4	
288.85	4735.6	
289.06	4474.1	
289.27	6027.9	
289.48	6601.3	
289.69	5032.5	
289.9	4557.4	
290.11	6173.3	
290.32	5177.3	
290.53	4772.4	
290.74	4405.9	
290.94	6000.5	
291.15	6046.3	
291.36	3785.3	
291.57	4500.8	
291.78	5294	
291.99	5020.3	
292.2	3608.5	
292.41	4410	
292.62	6189.6	
292.83	5885.2	
293.04	5402.5	
293.25	3636.5	
293.46	5287.2	
293.67	6222.4	
293.88	3740.3	
294.09	3671.3	
294.29	5091.9	
294.5	5752.7	
294.71	4074.1	
294.92	3921.2	
295.13	5354.8	
295.34	6700.3	
295.55	3372.3	
295.76	3491.1	
295.97	5974.6	
296.18	6810.9	
296.39	3592.8	
296.6	3831.7	
296.81	5642.8	
297.01	5983.5	
297.22	3986.7	
297.43	3739.6	
297.64	5209.3	
297.85	5150.6	
298.06	3078.1	
298.27	3362.1	
298.48	5612.8	
298.69	5270.1	
298.9	4089.1	
299.11	3724.6	
299.31	5040.1	
299.52	5057.8	
299.73	4393.6	
299.94	4358.8	
300.15	5538.4	
300.36	5146.5	
300.57	4309.6	
300.78	4332.1	
300.99	5410.7	
301.2	5649.7	
301.4	3750.5	
301.61	4098.7	
301.82	5911.8	
302.03	5951.4	
302.24	4645.5	
302.45	3603.1	
302.66	5880.4	
302.87	6368.5	
303.08	3789.4	
303.29	5244.8	
303.49	5274.9	
303.7	5603.9	
303.91	3321.8	
304.12	4924	
304.33	5024.3	
304.54	5672.2	
304.75	3799	
304.96	3582.6	
305.16	5890.6	
305.37	6705.7	
305.58	3247.4	
305.79	3406.5	
306	5933	
306.21	4971.1	
306.42	3730.7	
306.63	5832.6	
306.83	5367	
307.04	6223.1	
307.25	4162.8	
307.46	4174.4	
307.67	4757.4	
307.88	6058.6	
308.09	3693.9	
308.29	3872.7	
308.5	5702.9	
308.71	6150.7	
308.92	3983.3	
309.13	3648.8	
309.34	5356.8	
309.55	5474.9	
309.75	4754	
309.96	4386.1	
310.17	6003.3	
310.38	5210.7	
310.59	4558.1	
310.8	4222.2	
311.01	5417.6	
311.21	5427.8	
311.42	3534.1	
311.63	3693.9	
311.84	5255.1	
312.05	5707.7	
312.26	4182.6	
312.46	4654.4	
312.67	5346.6	
312.88	5106.3	
313.09	3667.9	
313.3	3585.3	
313.51	6415.6	
313.71	6860	
313.92	3615.3	
314.13	3838.6	
314.34	5826.5	
314.55	5472.9	
314.76	4793.6	
314.96	4108.2	
315.17	5539.1	
315.38	6034	
315.59	3648.8	
315.8	3474.7	
316.01	6475	
316.21	6507.1	
316.42	3517	
316.63	4028.4	
316.84	5370.5	
317.05	6312.5	
317.26	4280.3	
317.46	3866.6	
317.67	5492.7	
317.88	5974.6	
318.09	4674.1	
318.3	3385.3	
318.5	5211.4	
318.71	5862.7	
318.92	5919.3	
319.13	4329.4	
319.34	6105.7	
319.54	6250.4	
319.75	3376.4	
319.96	3239.9	
320.17	6063.4	
320.38	6197.8	
320.58	3316.3	
320.79	4012.7	
321	6181.5	
321.21	6262.7	
321.42	4018.1	
321.62	3375.7	
321.83	5128.1	
322.04	5596.4	
322.25	3896.6	
322.46	3680.9	
322.66	5637.4	
322.87	5851.7	
323.08	4535.6	
323.29	3622.2	
323.5	6723.5	
323.7	5087.8	
323.91	5018.2	
324.12	4496.7	
324.33	5700.2	
324.53	5884.5	
324.74	4327.4	
324.95	4573.8	
325.16	4934.9	
325.37	5339.7	
325.57	3706.8	
325.78	3773	
325.99	5647.6	
326.2	5040.7	
326.4	5375.2	
326.61	3371	
326.82	5473.5	
327.03	5687.9	
327.24	5250.3	
327.44	4947.2	
327.65	5803.9	
327.86	4663.2	
328.07	4340.3	
328.27	3514.3	
328.48	6283.2	
328.69	5177.9	
328.9	5343.8	
329.1	3946.4	
329.31	5459.2	
329.52	6466.8	
329.73	3685	
329.93	4143.7	
330.14	5608	
330.35	5897.5	
330.56	6074.3	
330.76	4508.9	
330.97	5369.1	
331.18	5789.6	
331.39	4100	
331.59	3267.2	
331.8	6199.9	
332.01	6346	
332.22	3724.6	
332.42	4335.5	
332.63	5699.5	
332.84	5242.8	
333.05	4152.6	
333.25	3749.1	
333.46	5369.1	
333.67	5602.6	
333.88	3831.7	
334.08	4231.8	
334.29	7460.1	
334.5	6262	
334.7	3546.4	
334.91	5312.4	
335.12	5107.6	
335.33	5991.7	
335.53	4063.9	
335.74	6113.2	
335.95	5307.7	
336.16	5175.2	
336.36	4138.3	
336.57	4754.7	
336.78	5035.3	
336.98	6161.7	
337.19	5003.2	
337.4	3943.7	
337.61	6743.3	
337.81	5109	
338.02	3749.1	
338.23	4858.5	
338.43	6344.6	
338.64	5222.3	
338.85	3722.5	
339.05	4887.8	
339.26	6453.8	
339.47	4958.1	
339.68	3663.8	
339.88	5506.3	
340.09	5755.5	
340.3	6098.9	
340.5	4345.1	
340.71	3299.3	
340.92	5005.2	
341.13	6373.3	
341.33	3552.5	
341.54	4412.7	
341.75	5833.3	
341.95	5442.1	
342.16	4117.1	
342.37	4478.2	
342.57	5087.2	
342.78	5532.9	
342.99	4625	
343.19	3280.2	
343.4	5973.9	
343.61	5793	
343.81	3902.1	
344.02	3635.8	
344.23	5999.2	
344.43	6451.8	
344.64	4579.9	
344.85	4481.6	
345.06	5853.1	
345.26	6180.1	
345.47	4263.9	
345.68	5027.1	
345.88	4823.6	
346.09	6118	
346.3	4393.6	
346.5	3235.1	
346.71	5552.7	
346.92	5212.1	
347.12	3297.9	
347.33	4213.4	
347.54	6146.6	
347.74	6574	
347.95	4252.9	
348.16	3116.3	
348.36	5376.6	
348.57	5142.4	
348.78	4218.8	
348.98	4534.2	
349.19	5509.7	
349.39	5038.7	
349.6	3337.5	
349.81	3739.6	
350.01	5776.6	
350.22	5253.7	
350.43	4070.7	
350.63	4915.8	
350.84	5550.7	
351.05	5360.9	
351.25	3733.4	
351.46	3335.5	
351.67	6161	
351.87	5180.7	
352.08	3953.3	
352.29	4574.5	
352.49	6037.4	
352.7	5873.6	
352.9	3608.5	
353.11	4467.3	
353.32	6761.7	
353.52	5365.7	
353.73	3495.9	
353.94	4480.3	
354.14	5864.7	
354.35	5656.5	
354.55	3622.9	
354.76	4051.6	
354.97	5864.7	
355.17	5563.6	
355.38	3340.9	
355.59	4775.2	
355.79	5208	
356	5667.4	
356.2	4005.8	
356.41	3431	
356.62	4965	
356.82	5464.7	
357.03	4290.5	
357.24	3872	
357.44	5244.2	
357.65	5337.7	
357.85	5188.2	
358.06	4024.3	
358.27	4913.1	
358.47	5169.8	
358.68	3297.9	
358.88	4232.5	
359.09	5790.3	
359.3	6169.2	
359.5	4994.3	
359.71	4421.6	
359.91	6709.8	
360.12	5964.4	
360.33	4237.9	
360.53	4756.1	
360.74	5173.2	
360.94	5257.1	
361.15	4437.3	
361.36	3622.9	
361.56	5988.3	
361.77	5371.8	
361.97	4945.8	
362.18	3884.3	
362.38	6001.9	
362.59	4999.1	
362.8	3510.2	
363	3353.2	
363.21	4804.5	
363.41	5560.2	
363.62	4085.7	
363.83	5236	
364.03	5573.9	
364.24	6625.9	
364.44	5221.6	
364.65	5255.8	
364.85	5297.4	
365.06	4958.8	
365.27	3732.8	
365.47	3701.4	
365.68	6376	
365.88	5250.3	
366.09	4094.6	
366.29	3818.8	
366.5	5595.1	
366.71	6097.5	
366.91	5203.9	
367.12	4323.3	
367.32	6655.2	
367.53	5894.1	
367.73	4213.4	
367.94	5244.2	
368.14	5794.4	
368.35	6755.6	
368.56	4291.9	
368.76	3557.3	
368.97	5898.1	
369.17	7722.9	
369.38	3663.8	
369.58	3943	
369.79	4918.5	
369.99	6323.4	
370.2	5040.1	
370.4	4122.6	
370.61	5621.7	
370.82	6870.9	
371.02	3909.6	
371.23	3238.5	
371.43	4829.8	
371.64	6199.2	
371.84	3951.2	
372.05	5268.7	
372.25	7613.7	
372.46	5885.2	
372.66	3962.1	
372.87	3865.9	
373.07	5972.6	
373.28	7636.9	
373.48	5066.7	
373.69	4665.3	
373.9	5363.6	
374.1	5428.5	
374.31	4907.6	
374.51	4364.2	
374.72	6189	
374.92	5058.5	
375.13	5102.2	
375.33	4187.4	
375.54	5764.3	
375.74	5191.6	
375.95	4166.3	
376.15	5621	
376.36	5668.1	
376.56	5506.3	
376.77	4301.4	
376.97	4702.8	
377.18	6834.1	
377.38	5774.6	
377.59	5147.2	
377.79	3745.7	
378	5586.2	
378.2	6051.1	
378.41	3799.7	
378.61	3725.9	
378.82	6117.3	
379.02	5089.2	
379.23	3994.2	
379.43	5212.8	
379.64	6128.9	
379.84	5784.1	
380.05	3883.6	
380.25	3691.8	
380.46	5910.4	
380.66	5455.1	
380.87	5216.9	
381.07	5613.5	
381.28	6516.6	
381.48	5862	
381.69	3816	
381.89	3943	
382.1	4792.9	
382.3	6098.2	
382.51	5052.3	
382.71	6035.4	
382.91	5908.4	
383.12	6451.1	
383.32	4272.7	
383.53	4476.2	
383.73	5731.6	
383.94	5500.8	
384.14	4390.8	
384.35	3510.9	
384.55	5472.2	
384.76	5942.5	
384.96	4201.1	
385.17	4634.6	
385.37	5920.7	
385.58	5179.3	
385.78	4569.7	
385.98	3405.1	
386.19	5392.3	
386.39	5722	
386.6	3976.5	
386.8	4201.1	
387.01	5870.2	
387.21	5900.2	
387.42	4733.5	
387.62	5292.6	
387.83	5152.7	
388.03	5868.1	
388.23	4237.9	
388.44	5116.5	
388.64	4857.1	
388.85	4911.7	
389.05	4660.5	
389.26	5212.8	
389.46	6862.7	
389.67	6268.8	
389.87	4577.2	
390.07	4686.4	
390.28	5399.1	
390.48	5023.7	
390.69	3760.8	
390.89	4117.8	
391.1	5216.9	
391.3	6189.6	
391.5	5392.3	
391.71	6022.4	
391.91	5851	
392.12	6979.5	
392.32	5388.2	
392.53	4640.7	
392.73	5307	
392.93	5492.7	
393.14	4270	
393.34	5040.7	
393.55	6068.1	
393.75	5461.2	
393.95	4308.2	
394.16	4204.5	
394.36	5159.5	
394.57	5965.7	
394.77	3682.2	
394.98	4168.3	
395.18	5170.4	
395.38	5381.4	
395.59	5077.6	
395.79	3900	
396	5251.7	
396.2	5769.1	
396.4	4779.3	
396.61	4683	
396.81	5956.9	
397.02	5137	
397.22	4969.7	
397.42	5080.3	
397.63	5912.5	
397.83	5041.4	
398.04	3862.5	
398.24	4390.8	
398.44	5675.6	
398.65	4709.6	
398.85	3647.4	
399.05	3790.1	
399.26	4990.9	
399.46	6792.4	
399.67	4106.2	
399.87	3874.1	
400.07	5404.6	
400.28	5816.9	
400.48	3924.6	
400.69	5067.4	
400.89	6518	
401.09	6458.6	
401.3	3791.5	
401.5	5012.7	
401.7	6749.4	
401.91	7008.1	
402.11	4135.5	
402.32	4450.9	
402.52	5973.9	
402.72	5947.3	
402.93	4646.2	
403.13	3465.8	
403.33	6827.2	
403.54	5556.8	
403.74	4412	
403.94	5416.2	
404.15	5598.5	
404.35	6794.5	
404.56	4209.9	
404.76	6150.7	
404.96	5984.2	
405.17	5858.6	
405.37	5464	
405.57	4575.8	
405.78	6047	
405.98	5493.3	
406.18	4897.4	
406.39	5105.6	
406.59	6051.1	
406.79	5616.2	
407	3889.8	
407.2	4122.6	
407.4	5994.4	
407.61	6306.4	
407.81	3984.7	
408.01	6447	
408.22	4860.5	
408.42	6964.5	
408.62	5025	
408.83	4438.6	
409.03	5477	
409.23	5190.9	
409.44	4554	
409.64	4838	
409.84	6365.1	
410.05	6220.4	
410.25	4570.4	
410.45	4381.3	
410.66	5591.6	
410.86	8312	
411.06	4676.9	
411.27	4628.4	
411.47	7897	
411.67	5729.5	
411.88	4792.9	
412.08	5030.5	
412.28	6360.3	
412.49	6921.5	
412.69	4513	
412.89	4582	
413.09	6713.2	
413.3	6561	
413.5	4587.4	
413.7	4140.3	
413.91	5801.9	
414.11	6723.5	
414.31	4374.5	
414.52	4738.3	
414.72	6309.1	
414.92	6127.5	
415.12	4383.3	
415.33	4955.4	
415.53	6562.4	
415.73	6787	
415.94	5341.8	
416.14	4705.5	
416.34	5500.8	
416.55	5175.2	
416.75	5993.7	
416.95	5294.7	
417.15	6568.5	
417.36	7370	
417.56	6107	
417.76	5105.6	
417.97	6925.5	
418.17	6570.6	
418.37	4673.5	
418.57	4762.9	
418.78	6311.8	
418.98	6010.1	
419.18	5636.7	
419.38	5624.4	
419.59	6054.5	
419.79	5644.9	
419.99	4648.9	
420.2	5092.6	
420.4	6623.8	
420.6	6823.8	
420.8	4543.1	
421.01	4427	
421.21	6318.7	
421.41	6599.9	
421.61	4967.7	
421.82	4637.3	
422.02	5866.1	
422.22	6942.6	
422.42	5482.4	
422.63	5177.9	
422.83	5997.8	
423.03	7335.1	
423.23	5170.4	
423.44	4053.6	
423.64	6120	
423.84	5958.2	
424.04	4575.8	
424.25	4173.1	
424.45	7165.8	
424.65	7101.7	
424.85	3978.5	
425.06	4657.1	
425.26	7040.9	
425.46	5610.8	
425.66	5109.7	
425.87	4767	
426.07	6858.6	
426.27	6728.9	
426.47	4992.9	
426.67	4280.9	
426.88	7183.6	
427.08	6649.1	
427.28	5188.2	
427.48	4271.4	
427.69	5425.8	
427.89	6181.5	
428.09	5251	
428.29	4279.6	
428.5	6868.9	
428.7	6383.5	
428.9	4162.8	
429.1	4840.7	
429.3	6320.7	
429.51	6722.1	
429.71	4472.8	
429.91	5363.6	
430.11	6539.8	
430.31	7108.5	
430.52	4829.8	
430.72	5084.4	
430.92	7176.8	
431.12	6614.3	
431.32	4428.4	
431.53	4924.7	
431.73	5431.9	
431.93	7290.1	
432.13	4298	
432.33	4223.6	
432.54	5883.1	
432.74	6339.1	
432.94	4095.3	
433.14	5313.1	
433.34	6491.4	
433.55	5897.5	
433.75	5156.1	
433.95	6974.7	
434.15	6209.4	
434.35	5881.8	
434.56	4343.7	
434.76	3788.1	
434.96	6176.7	
435.16	6371.9	
435.36	4181.3	
435.56	5341.8	
435.77	5714.5	
435.97	5920	
436.17	6050.4	
436.37	5279	
436.57	5766.4	
436.78	5582.8	
436.98	5264.6	
437.18	5913.9	
437.38	6498.2	
437.58	6034.7	
437.78	6098.2	
437.99	4586.8	
438.19	6549.4	
438.39	7410.9	
438.59	4529.4	
438.79	4036.5	
438.99	7324.2	
439.2	6029.2	
439.4	4178.5	
439.6	4121.2	
439.8	6322.8	
440	7447.1	
440.2	5147.9	
440.4	5373.2	
440.61	6644.3	
440.81	7190.4	
441.01	4261.1	
441.21	5208	
441.41	7002	
441.61	6678.4	
441.81	5487.9	
442.02	6627.2	
442.22	7627.3	
442.42	6760.3	
442.62	4265.9	
442.82	4423.6	
443.02	7067.5	
443.22	6083.1	
443.43	4732.9	
443.63	4289.8	
443.83	5857.2	
444.03	5896.1	
444.23	5587.5	
444.43	5156.8	
444.63	6180.8	
444.83	7479.2	
445.04	4334.2	
445.24	5761.6	
445.44	6722.1	
445.64	6752.2	
445.84	5325.4	
446.04	5302.9	
446.24	6008.7	
446.44	7164.5	
446.65	4478.9	
446.85	4870.8	
447.05	6469.5	
447.25	7067.5	
447.45	4967.7	
447.65	4291.2	
447.85	6347.3	
448.05	5993.7	
448.25	5367.7	
448.46	5211.4	
448.66	6353.5	
448.86	6014.2	
449.06	4092.5	
449.26	5413.5	
449.46	6750.8	
449.66	5640.8	
449.86	4833.2	
450.06	4822.3	
450.26	5926.8	
450.47	6455.9	
450.67	5167	
450.87	5449.6	
451.07	6610.2	
451.27	6331	
451.47	4371	
451.67	4942.4	
451.87	5934.3	
452.07	7296.9	
452.27	4660.5	
452.47	4584	
452.67	6326.2	
452.88	6793.1	
453.08	3926.6	
453.28	6078.4	
453.48	7597.3	
453.68	6290	
453.88	4478.9	
454.08	4743.8	
454.28	6595.8	
454.48	6262.7	
454.68	5296	
454.88	5865.4	
455.08	6734.4	
455.28	6441.5	
455.48	4276.8	
455.68	4967	
455.89	7225.9	
456.09	6867.5	
456.29	4638	
456.49	4639.3	
456.69	7046.4	
456.89	6213.5	
457.09	5184.1	
457.29	5457.8	
457.49	6494.1	
457.69	6735.1	
457.89	4932.2	
458.09	4291.9	
458.29	6200.6	
458.49	7049.8	
458.69	5370.5	
458.89	4691.9	
459.09	7194.5	
459.29	7436.9	
459.49	4854.4	
459.69	5711.1	
459.9	6765.8	
460.1	6185.5	
460.3	4777.9	
460.5	4517.1	
460.7	6718	
460.9	6451.1	
461.1	4101.4	
461.3	5528.2	
461.5	7333.8	
461.7	7012.2	
461.9	4526	
462.1	5081.7	
462.3	6376	
462.5	6948.1	
462.7	4556.7	
462.9	4676.9	
463.1	8125	
463.3	7660.8	
463.5	4848.9	
463.7	5806.7	
463.9	6468.2	
464.1	6874.3	
464.3	4855.1	
464.5	5195	
464.7	7114.6	
464.9	6691.4	
465.1	6593.1	
465.3	5513.8	
465.5	7503.8	
465.7	7404.1	
465.9	5783.5	
466.1	5620.3	
466.3	7193.1	
466.5	7122.2	
466.7	6457.2	
466.9	5281.7	
467.1	6976.7	
467.3	7949.5	
467.5	6361	
467.7	5065.3	
467.9	8173.4	
468.1	9082.7	
468.3	6062.7	
468.5	6421.7	
468.7	6867.5	
468.9	6857.3	
469.1	5396.4	
469.3	6190.3	
469.5	8968.1	
469.7	6340.5	
469.9	6011.5	
470.1	5123.3	
470.3	6866.8	
470.5	6861.4	
470.7	6515.3	
470.9	5290.6	
471.1	6602.7	
471.3	7154.9	
471.5	4990.2	
471.69	7173.4	
471.89	6591.7	
472.09	5995.1	
472.29	5913.9	
472.49	6473.6	
472.69	6242.2	
472.89	7214.3	
473.09	4930.1	
473.29	5228.5	
473.49	6469.5	
473.69	6690.7	
473.89	6189	
474.09	5351.3	
474.29	8051.9	
474.49	7688.1	
474.69	6199.9	
474.89	5572.5	
475.09	6694.8	
475.29	6659.3	
475.49	4857.1	
475.69	5128.1	
475.88	8479.3	
476.08	7000.6	
476.28	4801.1	
476.48	5390.3	
476.68	7563.8	
476.88	7387	
477.08	5216.2	
477.28	5500.8	
477.48	6866.2	
477.68	7655.3	
477.88	4961.5	
478.08	5341.8	
478.28	7864.9	
478.48	6966.5	
478.67	5398.4	
478.87	4816.8	
479.07	7655.3	
479.27	7023.2	
479.47	5649	
479.67	5567.7	
479.87	7387	
480.07	7986.4	
480.27	4818.2	
480.47	6634.1	
480.67	7114	
480.87	7714.7	
481.06	5110.4	
481.26	5975.3	
481.46	7017	
481.66	6993.8	
481.86	5590.3	
482.06	6677.7	
482.26	6719.4	
482.46	7877.9	
482.66	5546.6	
482.86	5107	
483.05	7007.5	
483.25	6408.8	
483.45	8112	
483.65	5537	
483.85	6610.2	
484.05	6935.8	
484.25	6002.6	
484.45	6527.6	
484.65	7910.6	
484.84	7791.2	
485.04	5455.1	
485.24	5448.3	
485.44	8139.3	
485.64	6380.1	
485.84	4595	
486.04	6110.5	
486.24	6806.1	
486.44	7154.9	
486.63	4569.7	
486.83	5436.7	
487.03	6518.7	
487.23	6773.3	
487.43	4674.8	
487.63	7187	
487.83	6849.1	
488.02	7816.4	
488.22	5687.2	
488.42	6344.6	
488.62	7808.2	
488.82	6616.3	
489.02	5352.7	
489.22	5339.1	
489.41	7674.4	
489.61	7141.3	
489.81	5079.6	
490.01	5029.8	
490.21	7553.6	
490.41	8180.3	
490.61	4796.3	
490.8	5088.5	
491	6937.2	
491.2	6229.9	
491.4	5786.9	
491.6	4842.1	
491.8	6911.2	
491.99	7241.6	
492.19	4685.1	
492.39	5180.7	
492.59	7533.8	
492.79	7540.6	
492.99	6055.2	
493.18	5029.1	
493.38	7621.2	
493.58	8404.9	
493.78	5711.8	
493.98	5288.5	
494.18	7262.8	
494.37	6600.6	
494.57	5875.6	
494.77	5710.4	
494.97	7352.9	
495.17	7643.7	
495.37	5257.1	
495.56	5614.2	
495.76	7831.4	
495.96	7410.2	
496.16	6562.4	
496.36	5342.5	
496.55	7571.3	
496.75	7107.8	
496.95	5700.2	
497.15	5530.2	
497.35	7561.1	
497.54	7555.6	
497.74	5454.4	
497.94	7092.1	
498.14	8302.5	
498.34	8072.4	
498.53	5099.4	
498.73	5844.9	
498.93	6834.1	
499.13	7435.5	
499.33	5610.1	
499.52	6230.6	
499.72	7382.2	
499.92	7848.5	
500.12	5345.2	
500.32	5588.9	
500.51	7656	
500.71	7391.8	
500.91	6436.8	
501.11	6022.4	
501.31	7591.1	
501.5	8056	
501.7	6704.4	
501.9	5578	
502.1	7405.5	
502.29	7690.8	
502.49	6044.2	
502.69	6654.5	
502.89	7593.9	
503.09	7642.3	
503.28	5107.6	
503.48	5281	
503.68	6759	
503.88	6870.9	
504.07	6384.9	
504.27	5831.9	
504.47	7290.1	
504.67	7568.6	
504.86	6269.5	
505.06	5989.6	
505.26	6995.2	
505.46	8955.8	
505.65	5845.6	
505.85	6102.3	
506.05	6965.8	
506.25	7445.7	
506.44	5208.7	
506.64	6311.8	
506.84	6948.8	
507.04	7991.9	
507.23	5468.1	
507.43	6135.7	
507.63	9082.1	
507.83	7133.1	
508.02	6049.7	
508.22	5707	
508.42	9420	
508.62	6926.2	
508.81	5939.8	
509.01	6622.4	
509.21	6836.8	
509.4	7137.9	
509.6	6183.5	
509.8	5378	
510	7096.9	
510.19	8742.1	
510.39	5499.5	
510.59	5511.8	
510.79	6899.6	
510.98	8453.3	
511.18	5591.6	
511.38	5722	
511.57	7823.2	
511.77	7657.4	
511.97	6418.3	
512.17	5313.8	
512.36	7747.5	
512.56	7765.9	
512.76	5461.9	
512.95	5248.9	
513.15	7972.7	
513.35	6474.3	
513.55	6375.3	
513.74	5442.8	
513.94	7793.2	
514.14	7188.4	
514.33	6532.3	
514.53	6260.6	
514.73	7166.5	
514.92	7346.1	
515.12	5650.3	
515.32	5425.8	
515.51	7430	
515.71	8168.7	
515.91	7279.2	
516.11	5535	
516.3	9203.6	
516.5	6945.3	
516.7	6171.2	
516.89	6863.4	
517.09	7172	
517.29	6992.4	
517.48	6642.9	
517.68	5856.5	
517.88	6945.3	
518.07	7483.3	
518.27	6371.2	
518.47	5381.4	
518.66	8204.2	
518.86	6621.8	
519.06	5313.1	
519.25	5730.9	
519.45	7182.9	
519.65	8656.8	
519.84	6398.5	
520.04	7158.3	
520.24	9011.7	
520.43	7757	
520.63	6118.6	
520.83	5826.5	
521.02	6878.4	
521.22	7678.5	
521.42	6451.8	
521.61	7028.6	
521.81	7236.8	
522.01	7465.5	
522.2	6282.5	
522.4	6029.2	
522.6	7899	
522.79	6698.2	
522.99	6162.3	
523.18	5317.9	
523.38	7562.5	
523.58	7643	
523.77	7454.6	
523.97	5309.7	
524.17	9509.4	
524.36	8697	
524.56	6670.2	
524.76	6354.2	
524.95	7526.3	
525.15	7177.4	
525.34	6047.7	
525.54	6072.2	
525.74	7901.1	
525.93	6780.8	
526.13	7310.6	
526.33	5978	
526.52	8213	
526.72	7666.9	
526.91	7372.7	
527.11	6520.7	
527.31	8288.8	
527.5	8707.3	
527.7	6453.8	
527.89	5411.4	
528.09	7071.6	
528.29	7671.7	
528.48	6881.9	
528.68	6457.9	
528.87	8075.8	
529.07	8221.9	
529.27	6378.7	
529.46	5928.2	
529.66	7740	
529.85	8312.7	
530.05	5670.8	
530.25	6592.4	
530.44	9325.8	
530.64	7735.2	
530.83	6176	
531.03	6393.1	
531.23	8082.6	
531.42	8101.1	
531.62	7212.3	
531.81	6399.9	
532.01	8236.9	
532.21	8838.4	
532.4	6053.1	
532.6	6422.4	
532.79	9047.9	
532.99	8241	
533.18	6549.4	
533.38	7617.8	
533.58	7841.7	
533.77	8712.1	
533.97	6385.6	
534.16	7278.5	
534.36	8872.5	
534.55	7818.5	
534.75	7540.6	
534.95	6562.4	
535.14	8733.2	
535.34	7893.6	
535.53	6107.7	
535.73	8320.2	
535.92	9304.6	
536.12	8043.1	
536.31	6296.1	
536.51	7627.3	
536.71	8381.7	
536.9	8019.2	
537.1	6496.2	
537.29	6665.5	
537.49	8922.3	
537.68	7818.5	
537.88	7088	
538.07	6240.8	
538.27	8090.8	
538.46	9291.6	
538.66	6019.7	
538.86	6467.5	
539.05	8106.5	
539.25	8585.1	
539.44	6772.6	
539.64	6507.1	
539.83	7996	
540.03	9074.5	
540.22	6242.9	
540.42	6559.6	
540.61	8273.1	
540.81	8414.4	
541	7115.3	
541.2	7638.9	
541.39	7757	
541.59	8243.8	
541.78	7347.4	
541.98	6410.8	
542.18	7505.8	
542.37	7443	
542.57	6798.6	
542.76	7346.7	
542.96	7626	
543.15	8423.3	
543.35	6805.4	
543.54	6154.1	
543.74	8760.5	
543.93	8250.6	
544.13	6901.7	
544.32	8058.1	
544.52	8570.1	
544.71	7761.1	
544.91	5963	
545.1	7400	
545.3	7777.5	
545.49	8549.6	
545.69	5822.4	
545.88	6503.7	
546.08	9551.7	
546.27	9201.5	
546.47	7179.5	
546.66	6307.7	
546.86	8832.2	
547.05	9511.4	
547.24	6642.9	
547.44	6436.1	
547.63	7660.1	
547.83	8982.4	
548.02	6937.8	
548.22	7079.8	
548.41	7584.3	
548.61	8981	
548.8	6389	
549	6330.3	
549.19	8271.7	
549.39	8520.9	
549.58	6076.3	
549.78	6736.5	
549.97	8650.6	
550.17	8165.9	
550.36	7550.9	
550.55	8695.7	
550.75	8104.5	
550.94	9135.3	
551.14	6303	
551.33	6804	
551.53	7384.3	
551.72	8499.1	
551.92	6765.1	
552.11	6507.1	
552.31	8517.5	
552.5	8600.8	
552.69	8286.1	
552.89	6150.7	
553.08	8532.5	
553.28	8198.7	
553.47	6588.3	
553.67	7780.9	
553.86	9239.8	
554.06	7360.4	
554.25	5677	
554.44	6332.3	
554.64	10010	
554.83	9580.4	
555.03	6342.6	
555.22	6751.5	
555.42	8708.6	
555.61	8386.4	
555.8	6547.4	
556	6874.3	
556.19	7457.3	
556.39	8893	
556.58	6537.1	
556.78	6552.8	
556.97	8304.5	
557.16	7935.2	
557.36	7999.4	
557.55	6151.4	
557.75	7256	
557.94	9157.8	
558.13	6320.7	
558.33	6110.5	
558.52	8898.4	
558.72	7828	
558.91	6158.2	
559.1	6536.4	
559.3	7331.7	
559.49	7185	
559.69	5766.4	
559.88	6946	
560.07	8273.8	
560.27	8749.6	
560.46	7139.9	
560.66	7323.5	
560.85	8040.3	
561.04	7206.8	
561.24	6273.6	
561.43	6425.2	
561.63	7430.7	
561.82	7814.4	
562.01	7810.3	
562.21	6781.5	
562.4	8294.3	
562.59	9308.7	
562.79	6561	
562.98	6176.7	
563.18	8146.8	
563.37	9772.9	
563.56	7080.5	
563.76	6059.9	
563.95	7613.7	
564.14	7523.6	
564.34	6460	
564.53	6257.9	
564.73	8105.2	
564.92	8472.4	
565.11	6670.9	
565.31	5968.5	
565.5	8774.2	
565.69	7626.6	
565.89	6285.2	
566.08	6496.8	
566.27	8630.1	
566.47	9024	
566.66	7174	
566.85	5733.6	
567.05	8143.4	
567.24	7524.9	
567.44	6113.2	
567.63	7621.2	
567.82	8411	
568.02	8131.1	
568.21	6139.1	
568.4	6516	
568.6	7981.6	
568.79	8034.2	
568.98	5864	
569.18	6167.1	
569.37	7801.4	
569.56	10057	
569.76	6488	
569.95	7542.7	
570.14	8372.1	
570.34	8288.8	
570.53	5932.3	
570.72	5892	
570.91	8761.9	
571.11	7832.8	
571.3	6436.8	
571.49	7499	
571.69	7879.9	
571.88	7462.1	
572.07	7012.2	
572.27	7043	
572.46	7484.6	
572.65	8613.8	
572.85	6126.8	
573.04	6498.9	
573.23	8749.6	
573.43	7961.8	
573.62	5902.2	
573.81	6571.9	
574	7888.8	
574.2	7869	
574.39	6216.3	
574.58	6488	
574.78	8850.6	
574.97	8083.3	
575.16	6718	
575.36	6920.8	
575.55	8351.6	
575.74	8626	
575.93	5838.1	
576.13	7019.8	
576.32	7739.3	
576.51	8300.4	
576.71	6299.6	
576.9	7702.4	
577.09	8740.7	
577.28	8170.7	
577.48	6715.3	
577.67	5726.1	
577.86	7791.2	
578.05	8163.9	
578.25	6503	
578.44	6555.5	
578.63	7913.4	
578.83	9245.2	
579.02	5771.2	
579.21	7352.2	
579.4	8226.7	
579.6	7714.7	
579.79	6662	
579.98	8960.5	
580.17	8492.2	
580.37	8521.6	
580.56	5960.3	
580.75	6754.2	
580.94	9042.5	
581.14	8888.2	
581.33	7177.4	
581.52	6145.3	
581.71	8348.9	
581.91	9046.6	
582.1	5756.2	
582.29	6427.2	
582.48	7960.5	
582.68	7848.5	
582.87	6935.1	
583.06	6518	
583.25	8208.3	
583.45	7594.6	
583.64	7154.9	
583.83	8012.3	
584.02	7727	
584.21	8190.5	
584.41	7234.8	
584.6	6445	
584.79	7894.2	
584.98	8715.5	
585.18	5832.6	
585.37	5911.1	
585.56	7380.9	
585.75	8241.7	
585.94	6165.8	
586.14	6821.1	
586.33	8944.8	
586.52	7806.2	
586.71	6655.2	
586.91	6376	
587.1	7296.2	
587.29	8379.6	
587.48	6328.9	
587.67	6191	
587.87	8232.2	
588.06	8351.6	
588.25	7669.6	
588.44	6865.5	
588.63	7929.1	
588.83	8583	
589.02	6328.9	
589.21	6160.3	
589.4	7677.8	
589.59	7497.6	
589.78	5435.3	
589.98	5727.5	
590.17	7296.9	
590.36	7918.8	
590.55	5186.8	
590.74	6132.3	
590.94	9402.2	
591.13	7782.3	
591.32	5957.5	
591.51	5410.1	
591.7	8352.3	
591.89	7755.7	
592.09	5528.8	
592.28	6044.9	
592.47	6894.1	
592.66	8915.5	
592.85	5481	
593.05	5722	
593.24	7542	
593.43	8425.3	
593.62	5761.6	
593.81	6331	
594	7555	
594.19	7871	
594.39	5658.5	
594.58	5672.9	
594.77	7948.2	
594.96	8586.5	
595.15	5602.6	
595.34	6326.2	
595.54	8049.9	
595.73	7060.7	
595.92	5000.5	
596.11	6218.3	
596.3	8518.9	
596.49	7138.5	
596.68	6025.8	
596.88	6480.5	
597.07	8251.9	
597.26	6942.6	
597.45	5472.2	
597.64	6802	
597.83	7191.1	
598.02	7861.5	
598.22	5641.5	
598.41	6280.4	
598.6	7586.4	
598.79	7027.3	
598.98	5619.6	
599.17	6602	
599.36	7692.9	
599.55	8980.3	
599.74	7842.4	
599.94	7483.3	
600.13	8298.4	
600.32	6940.6	
600.51	5236.7	
600.7	5416.9	
600.89	8877.9	
601.08	8998.8	
601.27	5219.6	
601.47	6278.4	
601.66	8157.1	
601.85	8860.2	
602.04	5950.7	
602.23	6260	
602.42	7161.7	
602.61	7888.1	
602.8	5973.2	
602.99	5675.6	
603.18	7565.2	
603.37	7825.3	
603.57	6402	
603.76	6963.8	
603.95	8676.6	
604.14	8117.5	
604.33	5721.3	
604.52	6156.2	
604.71	7694.9	
604.9	7357.7	
605.09	6673.6	
605.28	6564.4	
605.47	8361.9	
605.66	7991.2	
605.86	6336.4	
606.05	5765	
606.24	8408.3	
606.43	6852.5	
606.62	6147.3	
606.81	6995.9	
607	8202.1	
607.19	7524.9	
607.38	5409.4	
607.57	5702.2	
607.76	7283.3	
607.95	6728.9	
608.14	6166.4	
608.33	6780.1	
608.52	7272.3	
608.72	8197.3	
608.91	5392.3	
609.1	5319.9	
609.29	7435.5	
609.48	6833.4	
609.67	6406.7	
609.86	5447.6	
610.05	6980.2	
610.24	7372	
610.43	5247.6	
610.62	4826.4	
610.81	8562.6	
611	8282	
611.19	5335	
611.38	6210.1	
611.57	7602.7	
611.76	9062.9	
611.95	5144.5	
612.14	5039.4	
612.33	7413	
612.52	6883.2	
612.71	5765.7	
612.9	4853	
613.09	6498.2	
613.28	8987.9	
613.47	5495.4	
613.66	6446.3	
613.85	7552.9	
614.04	7034.1	
614.24	5570.5	
614.43	4684.4	
614.62	7748.1	
614.81	7611.6	
615	6105.7	
615.19	6227.9	
615.38	6873	
615.57	7236.2	
615.76	6034	
615.95	7075.7	
616.14	7755	
616.33	7323.5	
616.52	6279.8	
616.71	6610.2	
616.9	7740	
617.09	7469.6	
617.28	5672.2	
617.47	7170.6	
617.66	6614.3	
617.85	6774.7	
618.04	6649.1	
618.22	5951.4	
618.41	7008.1	
618.6	8030.1	
618.79	5831.9	
618.98	5547.9	
619.17	8291.5	
619.36	6589.7	
619.55	5591.6	
619.74	5718.6	
619.93	7564.5	
620.12	6972	
620.31	6257.2	
620.5	6438.1	
620.69	8158.4	
620.88	8531.8	
621.07	7187.7	
621.26	6193.1	
621.45	7678.5	
621.64	7703.1	
621.83	6264.1	
622.02	5372.5	
622.21	7700.4	
622.4	7447.8	
622.59	6856.6	
622.78	6548.7	
622.97	7025.9	
623.16	8079.2	
623.35	6104.3	
623.54	5278.3	
623.72	7266.9	
623.91	7361.8	
624.1	6427.9	
624.29	5048.9	
624.48	8561.9	
624.67	7746.8	
624.86	6285.9	
625.05	5335	
625.24	8615.8	
625.43	6968.6	
625.62	8262.2	
625.81	5530.2	
626	8159.8	
626.19	7223.2	
626.38	6365.8	
626.56	5844.2	
626.75	7102.4	
626.94	7630	
627.13	6332.3	
627.32	5072.1	
627.51	7715.4	
627.7	9244.5	
627.89	5290.6	
628.08	6410.8	
628.27	6854.6	
628.46	7093.5	
628.65	5534.3	
628.83	5161.6	
629.02	7763.2	
629.21	6987	
629.4	5935.7	
629.59	6180.1	
629.78	6886	
629.97	8056.7	
630.16	6240.2	
630.35	5692	
630.54	8406.2	
630.72	8074.5	
630.91	5660.6	
631.1	6212.9	
631.29	7565.2	
631.48	7776.8	
631.67	6358.3	
631.86	5849	
632.05	7101	
632.24	7174.7	
632.42	5375.9	
632.61	6063.4	
632.8	7308.5	
632.99	6864.1	
633.18	6084.5	
633.37	6539.8	
633.56	7546.1	
633.75	7362.4	
633.93	6050.4	
634.12	5686.5	
634.31	8381.7	
634.5	7972.1	
634.69	5675.6	
634.88	6275.7	
635.07	7311.2	
635.25	7909.9	
635.44	6669.6	
635.63	6971.3	
635.82	7155.6	
636.01	6638.1	
636.2	6641.6	
636.39	6147.3	
636.57	8344.8	
636.76	8078.6	
636.95	5509	
637.14	6975.4	
637.33	7616.4	
637.52	8652	
637.7	5294	
637.89	6275	
638.08	7178.8	
638.27	8731.2	
638.46	6414.9	
638.65	6849.1	
638.83	8811.7	
639.02	7023.2	
639.21	6252.4	
639.4	6866.8	
639.59	7613	
639.78	7081.2	
639.96	5588.9	
640.15	5689.9	
640.34	7375.4	
640.53	7582.3	
640.72	5268.1	
640.91	5685.8	
641.09	6845.7	
641.28	8247.9	
641.47	5656.5	
641.66	6502.3	
641.85	7570	
642.03	7858.1	
642.22	6350.1	
642.41	5763	
642.6	6928.3	
642.79	6302.3	
642.97	5586.9	
643.16	6378.1	
643.35	6915.3	
643.54	6780.1	
643.73	5430.5	
643.91	6387.6	
644.1	6571.9	
644.29	7200.7	
644.48	5498.1	
644.67	5666.7	
644.85	6869.6	
645.04	7149.5	
645.23	5184.8	
645.42	5509.7	
645.6	6661.4	
645.79	7969.3	
645.98	5515.2	
646.17	4569	
646.36	6478.4	
646.54	7245.7	
646.73	6411.5	
646.92	5124	
647.11	6783.6	
647.29	7918.8	
647.48	5240.1	
647.67	5025.7	
647.86	8227.4	
648.05	8211.7	
648.23	5611.4	
648.42	6961	
648.61	7499	
648.8	7193.1	
648.98	5231.2	
649.17	5596.4	
649.36	6748.7	
649.55	6130.3	
649.73	5272.2	
649.92	6137.8	
650.11	6677.7	
650.3	7014.3	
650.48	5429.8	
650.67	5143.1	
650.86	7335.8	
651.05	6192.4	
651.23	5301.5	
651.42	5306.3	
651.61	6687.3	
651.79	6873.7	
651.98	5610.8	
652.17	5156.8	
652.36	7310.6	
652.54	6219.7	
652.73	5182.7	
652.92	5015.5	
653.11	7323.5	
653.29	7376.8	
653.48	4477.5	
653.67	5586.9	
653.85	7040.2	
654.04	8163.2	
654.23	5760.9	
654.42	5267.4	
654.6	6634.1	
654.79	7302.4	
654.98	4832.5	
655.16	5468.8	
655.35	6190.3	
655.54	6120	
655.73	4850.3	
655.91	4835.3	
656.1	7458.7	
656.29	6051.1	
656.47	4349.2	
656.66	6266.8	
656.85	6393.8	
657.03	6422.4	
657.22	4939	
657.41	4969.1	
657.59	6444.3	
657.78	6237.4	
657.97	4590.2	
658.16	5410.1	
658.34	7109.9	
658.53	7562.5	
658.72	6294.1	
658.9	6877.8	
659.09	6511.9	
659.28	6574	
659.46	5069.4	
659.65	4997.7	
659.84	6308.4	
660.02	6849.8	
660.21	4930.1	
660.4	4898.1	
660.58	7404.1	
660.77	6659.3	
660.96	5526.8	
661.14	4503.5	
661.33	7873.8	
661.52	7737.2	
661.7	4472.1	
661.89	8495	
662.08	6204	
662.26	5836	
662.45	4741	
662.64	4889.2	
662.82	6978.1	
663.01	6139.8	
663.2	4878.9	
663.38	5788.9	
663.57	6934.4	
663.75	6751.5	
663.94	5240.8	
664.13	6666.8	
664.31	6260	
664.5	6970.6	
664.69	5479.7	
664.87	6156.2	
665.06	5988.9	
665.25	6819.7	
665.43	6351.4	
665.62	6405.4	
665.8	7156.3	
665.99	6400.6	
666.18	5323.4	
666.36	5376.6	
666.55	7077.8	
666.74	7022.5	
666.92	4841.4	
667.11	6591.7	
667.29	6432	
667.48	7098.9	
667.67	6253.8	
667.85	5352.7	
668.04	6503.7	
668.22	6466.1	
668.41	5382.7	
668.6	5528.2	
668.78	6213.5	
668.97	6438.1	
669.15	5708.4	
669.34	4655.7	
669.53	6272.2	
669.71	6632.7	
669.9	4850.3	
670.08	5592.3	
670.27	6195.8	
670.46	6804	
670.64	5793.7	
670.83	5982.1	
671.01	6206.7	
671.2	6849.8	
671.38	4851	
671.57	4830.5	
671.76	7504.4	
671.94	8060.1	
672.13	4706.2	
672.31	5924.1	
672.5	6936.5	
672.69	6240.8	
672.87	4904.2	
673.06	5236.7	
673.24	6853.9	
673.43	6277.7	
673.61	5678.3	
673.8	5213.4	
673.98	7076.4	
674.17	7290.8	
674.36	5796.4	
674.54	5615.5	
674.73	6786.3	
674.91	6976.7	
675.1	5405.3	
675.28	4978.6	
675.47	6513.2	
675.65	7051.2	
675.84	5223.7	
676.03	5571.2	
676.21	6262	
676.4	5805.3	
676.58	6015.6	
676.77	5823.7	
676.95	7909.9	
677.14	6225.8	
677.32	4870.1	
677.51	4692.6	
677.69	7056.6	
677.88	5852.4	
678.06	4772.4	
678.25	4888.5	
678.44	6531.7	
678.62	6260.6	
678.81	4526.7	
678.99	5672.9	
679.18	7423.9	
679.36	6958.3	
679.55	5135.6	
679.73	5801.2	
679.92	6903	
680.1	6288.6	
680.29	6500.9	
680.47	5185.5	
680.66	6256.5	
680.84	7103	
681.03	4425.7	
681.21	5601.2	
681.4	6277	
681.58	6118	
681.77	5045.5	
681.95	4863.2	
682.14	7279.8	
682.32	7554.3	
682.51	5872.9	
682.69	4706.2	
682.88	6229.2	
683.06	7027.3	
683.25	5621.7	
683.43	6119.3	
683.62	6466.1	
683.8	7036.1	
683.99	6189.6	
684.17	5485.8	
684.36	7946.8	
684.54	6492.1	
684.73	4650.3	
684.91	4832.5	
685.1	6916.7	
685.28	6343.9	
685.46	5526.1	
685.65	5623.7	
685.83	7238.2	
686.02	6552.1	
686.2	5012.1	
686.39	5162.2	
686.57	6250.4	
686.76	7883.3	
686.94	4988.2	
687.13	5141.1	
687.31	7053.2	
687.5	6509.8	
687.68	4567	
687.86	5949.3	
688.05	8206.9	
688.23	5945.3	
688.42	5947.3	
688.6	5038.7	
688.79	6363.7	
688.97	6383.5	
689.16	5517.9	
689.34	4384	
689.52	7118.1	
689.71	7367.2	
689.89	5845.6	
690.08	5014.1	
690.26	6677.7	
690.45	6467.5	
690.63	6102.9	
690.81	5212.8	
691	6386.2	
691.18	6415.6	
691.37	5411.4	
691.55	7751.6	
691.74	6384.2	
691.92	8553.7	
692.1	5452.4	
692.29	4812.7	
692.47	6660	
692.66	5811.5	
692.84	4975.2	
693.02	5696.1	
693.21	5945.3	
693.39	6634.1	
693.58	5763	
693.76	5122.7	
693.94	7809.6	
694.13	7539.9	
694.31	5028.4	
694.5	6303.6	
694.68	6336.4	
694.86	6675	
695.05	5466.7	
695.23	5945.3	
695.42	7144	
695.6	9497.1	
695.78	6206	
695.97	5165.7	
696.15	7126.2	
696.34	6531	
696.52	4967	
696.7	5926.1	
696.89	6982.2	
697.07	6308.4	
697.25	5820.3	
697.44	7561.1	
697.62	6924.9	
697.81	7355.6	
697.99	5414.1	
698.17	6026.5	
698.36	6179.4	
698.54	7002.7	
698.72	5937.7	
698.91	4792.2	
699.09	6540.5	
699.28	6436.8	
699.46	5569.8	
699.64	5476.3	
699.83	6357.6	
700.01	7769.3	
700.19	6241.5	
700.38	4593.6	
700.56	7683.3	
700.74	6505.7	
700.93	5024.3	
701.11	5905	
701.29	7109.2	
701.48	8234.2	
701.66	5349.3	
701.84	5367	
702.03	6636.1	
702.21	7348.8	
702.39	4858.5	
702.58	5514.5	
702.76	7034.1	
702.94	7195.2	
703.13	4870.1	
703.31	7434.8	
703.49	6294.8	
703.68	7946.8	
703.86	5118.6	
704.04	6204.7	
704.23	6905.1	
704.41	7427.3	
704.59	5250.3	
704.78	6650.4	
704.96	8114.1	
705.14	7441.6	
705.33	5096	
705.51	5941.8	
705.69	6776.7	
705.87	7632.8	
706.06	6297.5	
706.24	5025.7	
706.42	7158.3	
706.61	7425.3	
706.79	6326.9	
706.97	5063.3	
707.16	6530.3	
707.34	7217	
707.52	6303	
707.7	5461.9	
707.89	6771.3	
708.07	6418.3	
708.25	6371.9	
708.44	6434	
708.62	6676.4	
708.8	7962.5	
708.98	6679.1	
709.17	5455.8	
709.35	7182.9	
709.53	7202.7	
709.72	5147.9	
709.9	5380	
710.08	7389.1	
710.26	7419.1	
710.45	7016.3	
710.63	5550.7	
710.81	7087.3	
710.99	7079.8	
711.18	6280.4	
711.36	5711.8	
711.54	6954.9	
711.72	7658.7	
711.91	5862.7	
712.09	5253	
712.27	7196.6	
712.45	7855.3	
712.64	6127.5	
712.82	5001.8	
713	6546.7	
713.18	6706.4	
713.37	5188.2	
713.55	6752.8	
713.73	7785.7	
713.91	6275	
714.1	5707.7	
714.28	5115.1	
714.46	7421.8	
714.64	6579.4	
714.83	4515.1	
715.01	5497.4	
715.19	6668.2	
715.37	5974.6	
715.55	5123.3	
715.74	5465.3	
715.92	7674.4	
716.1	5560.2	
716.28	6695.5	
716.47	5658.5	
716.65	6285.2	
716.83	6438.8	
717.01	5514.5	
717.19	5608	
717.38	8682	
717.56	6051.1	
717.74	5808.7	
717.92	4850.3	
718.1	7363.1	
718.29	6482.5	
718.47	4394.3	
718.65	5176.6	
718.83	7212.9	
719.01	7154.9	
719.2	4341.7	
719.38	5531.6	
719.56	6910.5	
719.74	8608.3	
719.92	5013.4	
720.11	6143.2	
720.29	6997.2	
720.47	5982.1	
720.65	4616.1	
720.83	5599.8	
721.02	6364.4	
721.2	6098.9	
721.38	5601.2	
721.56	4725.3	
721.74	5511.8	
721.92	5801.2	
722.11	6180.1	
722.29	5858.6	
722.47	7223.2	
722.65	6273.6	
722.83	4827.7	
723.01	5894.1	
723.2	6444.3	
723.38	6683.9	
723.56	4233.2	
723.74	5496.7	
723.92	5847	
724.1	7057.3	
724.29	4748.6	
724.47	6131.6	
724.65	5893.4	
724.83	5828.5	
725.01	4644.1	
725.19	5659.2	
725.37	5955.5	
725.56	6048.3	
725.74	4500.1	
725.92	4768.4	
726.1	5800.5	
726.28	6199.9	
726.46	5319.9	
726.64	4896	
726.83	6130.3	
727.01	6518	
727.19	4481	
727.37	5384.8	
727.55	6222.4	
727.73	6832.7	
727.91	4416.1	
728.09	4331.5	
728.28	6866.2	
728.46	7598.6	
728.64	5551.4	
728.82	5502.2	
729	8038.3	
729.18	7349.5	
729.36	4652.3	
729.54	7185.6	
729.72	8383.7	
729.91	6519.4	
730.09	6720.8	
730.27	5313.8	
730.45	6342.6	
730.63	7137.2	
730.81	6061.3	
730.99	5029.1	
731.17	7638.2	
731.35	6087.2	
731.53	5646.9	
731.71	5175.9	
731.9	7328.3	
732.08	7579.5	
732.26	5440.8	
732.44	5044.8	
732.62	7609.6	
732.8	7002	
732.98	5928.9	
733.16	4799.8	
733.34	7040.9	
733.52	5730.2	
733.7	5427.1	
733.88	5727.5	
734.07	6853.2	
734.25	6627.2	
734.43	4838	
734.61	6694.8	
734.79	8261.5	
734.97	6450.4	
735.15	4976.6	
735.33	5365	
735.51	6916.7	
735.69	6397.9	
735.87	6578.8	
736.05	5659.9	
736.23	6698.2	
736.41	6432.7	
736.59	5412.8	
736.77	5498.8	
736.95	7234.8	
737.13	6581.5	
737.32	4999.1	
737.5	5300.1	
737.68	7748.1	
737.86	6398.5	
738.04	4784.1	
738.22	6911.9	
738.4	6219.7	
738.58	6525.5	
738.76	5529.5	
738.94	4341	
739.12	6310.5	
739.3	6221	
739.48	6169.8	
739.66	5902.2	
739.84	6642.9	
740.02	6614.3	
740.2	4450.9	
740.38	4853.7	
740.56	7077.1	
740.74	5866.1	
740.92	5627.1	
741.1	5484.5	
741.28	6442.9	
741.46	6240.8	
741.64	5015.5	
741.82	5664	
742	6453.8	
742.18	6464.8	
742.36	5359.5	
742.54	4863.2	
742.72	7111.9	
742.9	5707.7	
743.08	5801.9	
743.26	4432.5	
743.44	7370.6	
743.62	7118.1	
743.8	5955.5	
743.98	4926	
744.16	6766.5	
744.34	6529.6	
744.52	5856.5	
744.7	5737.7	
744.88	6954.2	
745.06	6490.7	
745.24	5837.4	
745.42	5960.3	
745.6	7071.6	
745.78	6770.6	
745.96	4577.9	
746.14	4913.1	
746.32	7881.3	
746.5	7103	
746.68	5546.6	
746.86	4967.7	
747.03	7604.1	
747.21	5716.6	
747.39	5567.7	
747.57	4995.7	
747.75	6695.5	
747.93	7129.7	
748.11	4944.5	
748.29	4760.2	
748.47	8308.6	
748.65	6338.5	
748.83	5782.8	
749.01	5474.2	
749.19	6849.8	
749.37	5947.3	
749.55	5294.7	
749.73	5391.6	
749.91	6434.7	
750.09	6201.2	
750.26	5465.3	
750.44	4780	
750.62	6623.8	
750.8	6509.1	
750.98	4627	
751.16	4977.2	
751.34	6627.2	
751.52	5860.6	
751.7	5831.2	
751.88	4523.3	
752.06	7193.8	
752.24	6906.4	
752.42	4540.3	
752.59	4952	
752.77	6477.7	
752.95	7828	
753.13	5839.4	
753.31	5070.8	
753.49	6115.2	
753.67	6648.4	
753.85	5453.7	
754.03	4929.5	
754.21	6886.6	
754.38	7354.9	
754.56	5122	
754.74	4081.6	
754.92	6139.8	
755.1	6940.6	
755.28	4150.6	
755.46	4227.7	
755.64	7693.5	
755.82	7790.5	
755.99	4486.4	
756.17	4540.3	
756.35	5063.9	
756.53	6926.9	
756.71	3379.8	
756.89	4451.6	
757.07	6383.5	
757.25	5418.2	
757.42	5043.5	
757.6	5961.6	
757.78	6481.1	
757.96	5238.7	
758.14	4670.1	
758.32	4126	
758.5	4883	
758.67	5752.7	
758.85	4500.8	
759.03	4683	
759.21	5976	
759.39	5380.7	
759.57	4037.9	
759.75	5281	
759.92	6679.8	
760.1	5822.4	
760.28	5652.4	
760.46	5943.9	
760.64	5668.8	
760.82	5280.3	
760.99	5466.7	
761.17	4625.7	
761.35	6498.9	
761.53	5406.6	
761.71	4713.1	
761.89	5472.2	
762.06	6435.4	
762.24	5855.1	
762.42	4735.6	
762.6	4534.9	
762.78	5791	
762.96	6555.5	
763.13	5217.5	
763.31	4823	
763.49	6756.2	
763.67	5713.8	
763.85	5765.7	
764.02	6423.8	
764.2	7030	
764.38	6091.3	
764.56	4689.8	
764.74	5717.9	
764.91	7161.1	
765.09	5939.8	
765.27	4354	
765.45	4151.9	
765.63	7200.7	
765.8	7060.7	
765.98	3795.6	
766.16	4255.7	
766.34	5448.3	
766.52	5223	
766.69	5264	
766.87	4070	
767.05	5945.3	
767.23	6739.2	
767.41	4415.4	
767.58	4700.1	
767.76	6563.7	
767.94	6646.3	
768.12	4472.8	
768.29	5384.1	
768.47	6021.7	
768.65	6854.6	
768.83	4146.5	
769	5375.9	
769.18	5509	
769.36	6317.3	
769.54	5327.4	
769.72	4156	
769.89	6531.7	
770.07	6776	
770.25	4486.4	
770.43	5896.1	
770.6	7474.4	
770.78	7905.2	
770.96	4721.3	
771.14	5416.9	
771.31	6498.9	
771.49	5770.5	
771.67	3796.3	
771.85	4067.9	
772.02	4946.5	
772.2	5821	
772.38	4904.9	
772.55	4388.1	
772.73	6060.6	
772.91	5831.2	
773.09	4741.7	
773.26	4844.8	
773.44	6018.3	
773.62	5705	
773.8	4226.3	
773.97	3921.2	
774.15	6119.3	
774.33	5681.1	
774.5	4147.1	
774.68	4542.4	
774.86	6359.6	
775.04	5760.3	
775.21	4191.5	
775.39	4188.8	
775.57	6055.8	
775.74	6487.3	
775.92	4036.5	
776.1	3960.1	
776.27	6040.8	
776.45	7378.1	
776.63	4195.6	
776.81	3635.8	
776.98	5621.7	
777.16	6820.4	
777.34	4368.3	
777.51	4689.8	
777.69	5621	
777.87	5366.4	
778.04	4392.9	
778.22	5148.6	
778.4	5440.1	
778.57	6079.1	
778.75	3590.8	
778.93	3930.7	
779.1	5100.8	
779.28	5011.4	
779.46	3635.8	
779.64	4166.9	
779.81	6277	
779.99	7339.2	
780.17	5062.6	
780.34	5290.6	
780.52	5663.3	
780.69	5911.1	
780.87	4569.7	
781.05	3979.9	
781.22	5791	
781.4	5848.3	
781.58	4214	
781.75	3289	
781.93	5784.8	
782.11	5113.1	
782.28	5182.7	
782.46	4181.3	
782.64	5011.4	
782.81	6025.8	
782.99	4343.1	
783.17	4258.4	
783.34	5836	
783.52	4996.4	
783.69	4470	
783.87	5339.7	
784.05	5123.3	
784.22	5147.2	
784.4	5384.1	
784.58	4596.3	
784.75	6182.8	
784.93	5195	
785.1	4250.2	
785.28	4890.5	
785.46	5896.1	
785.63	5121.3	
785.81	4128	
785.99	4066.6	
786.16	5315.2	
786.34	5812.1	
786.51	4092.5	
786.69	4470.7	
786.87	4835.9	
787.04	5440.1	
787.22	3915.7	
787.39	4995.7	
787.57	5117.2	
787.75	6352.8	
787.92	5141.8	
788.1	5104.2	
788.27	5205.3	
788.45	4883	
788.63	4791.6	
788.8	3345.7	
788.98	5495.4	
789.15	4838	
789.33	3541.6	
789.5	4281.6	
789.68	6128.9	
789.86	6328.2	
790.03	4769.7	
790.21	4139.6	
790.38	6186.2	
790.56	5298.8	
790.73	3955.3	
790.91	3938.9	
791.09	5185.5	
791.26	6077	
791.44	4195.6	
791.61	3631.7	
791.79	5081.7	
791.96	5281.7	
792.14	3725.9	
792.32	3281.5	
792.49	5125.4	
792.67	5331.5	
792.84	3793.5	
793.02	3615.3	
793.19	5636	
793.37	6419	
793.54	3296.5	
793.72	3673.4	
793.89	6655.9	
794.07	5193	
794.25	4405.2	
794.42	3366.2	
794.6	6348	
794.77	5967.1	
794.95	4614.1	
795.12	4034.5	
795.3	5129.5	
795.47	5782.1	
795.65	4419.5	
795.82	4212	
796	4906.9	
796.17	7123.5	
796.35	4104.8	
796.52	4837.3	
796.7	5720.7	
796.87	5950.7	
797.05	5178.6	
797.22	5083.1	
797.4	5795.1	
797.57	6907.8	
797.75	4284.4	
797.92	4032.5	
798.1	6192.4	
798.27	5141.1	
798.45	3434.4	
798.62	3758.7	
798.8	5461.9	
798.97	6019.7	
799.15	4481	
799.32	4302.1	
799.5	4734.2	
799.67	5587.5	
799.85	4671.4	
800.02	3306.1	
800.2	5104.2	
800.37	5464	
800.55	4913.8	
800.72	3987.4	
800.9	5993.7	
801.07	6506.4	
801.25	5504.9	
801.42	4356.7	
801.6	5986.2	
801.77	5745.9	
801.95	4080.9	
802.12	3961.5	
802.29	5683.1	
802.47	5732.9	
802.64	4340.3	
802.82	3277.4	
802.99	5132.9	
803.17	6195.8	
803.34	4264.6	
803.52	3858.4	
803.69	6954.2	
803.87	4949.9	
804.04	4280.9	
804.21	4343.7	
804.39	6290.7	
804.56	5398.4	
804.74	3569.6	
804.91	4472.8	
805.09	5115.8	
805.26	5318.6	
805.44	3716.4	
805.61	4100.7	
805.78	5909.1	
805.96	5958.2	
806.13	4487.8	
806.31	4821.6	
806.48	4707.6	
806.66	5294.7	
806.83	4463.2	
807	4346.5	
807.18	5128.1	
807.35	5569.1	
807.53	4306.9	
807.7	3362.8	
807.87	6477	
808.05	5197.1	
808.22	4778.6	
808.4	3386.7	
808.57	5279.7	
808.74	4823.6	
808.92	3956	
809.09	5068.7	
809.27	5048.9	
809.44	5746.6	
809.61	3454.9	
809.79	3865.2	
809.96	6421.7	
810.14	6023.1	
810.31	3334.8	
810.48	4125.3	
810.66	5270.1	
810.83	6166.4	
811.01	3853.6	
811.18	4466.6	
811.35	5988.3	
811.53	4671.4	
811.7	4831.8	
811.87	4424.3	
812.05	5166.3	
812.22	5134.9	
812.39	3767.6	
812.57	3667.2	
812.74	5199.1	
812.92	7043.6	
813.09	4146.5	
813.26	4626.4	
813.44	6756.9	
813.61	5119.9	
813.78	3364.8	
813.96	4671.4	
814.13	5156.8	
814.3	4823.6	
814.48	5072.1	
814.65	4126	
814.82	6557.6	
815	5066.7	
815.17	4227.7	
815.34	5243.5	
815.52	5155.4	
815.69	5177.3	
815.87	4174.4	
816.04	4170.3	
816.21	5253	
816.38	4511	
816.56	4132.8	
816.73	3789.4	
816.9	6692.8	
817.08	6024.4	
817.25	3848.8	
817.42	4872.8	
817.6	4770.4	
817.77	5276.9	
817.94	4431.8	
818.12	3794.9	
818.29	4958.8	
818.46	7862.8	
818.64	3979.9	
818.81	3715.7	
818.98	4806.6	
819.16	7206.8	
819.33	4618.2	
819.5	4240	
819.67	5664	
819.85	6320	
820.02	4194.9	
820.19	4384.7	
820.37	5479.7	
820.54	5025.7	
820.71	4332.1	
820.88	5394.3	
821.06	5515.9	
821.23	4993.6	
821.4	4380.6	
821.58	4358.8	
821.75	6032	
821.92	5352.7	
822.09	3478.1	
822.27	3611.3	
822.44	5270.1	
822.61	5156.8	
822.79	3517.7	
822.96	6813.6	
823.13	5741.1	
823.3	4956.8	
823.48	4027	
823.65	3670	
823.82	5952.8	
823.99	4726	
824.17	5180.7	
824.34	3649.5	
824.51	6896.9	
824.68	5272.8	
824.86	3859.1	
825.03	4395.6	
825.2	5268.7	
825.37	6410.1	
825.55	3803.1	
825.72	4269.3	
825.89	7126.9	
826.06	6535.8	
826.24	4164.2	
826.41	4197	
826.58	6395.1	
826.75	5547.9	
826.92	3217.4	
827.1	3632.4	
827.27	8889.5	
827.44	6952.9	
827.61	3908.9	
827.79	4853.7	
827.96	4897.4	
828.13	5348.6	
828.3	4087.1	
828.47	3495.9	
828.65	5432.6	
828.82	5391.6	
828.99	5414.8	
829.16	4707.6	
829.34	5893.4	
829.51	5677.7	
829.68	4289.1	
829.85	4531.5	
830.02	6168.5	
830.2	5847	
830.37	3242.6	
830.54	5251	
830.71	6730.3	
830.88	5219.6	
831.05	3366.2	
831.23	3867.2	
831.4	6424.5	
831.57	7264.1	
831.74	3947.8	
831.91	3512.3	
832.09	5397.1	
832.26	5814.2	
832.43	4113.7	
832.6	4651.6	
832.77	5471.5	
832.94	6273.6	
833.12	3296.5	
833.29	4115.1	
833.46	5364.3	
833.63	7521.5	
833.8	4461.8	
833.97	4162.8	
834.15	5875.6	
834.32	5683.8	
834.49	4298.7	
834.66	4369	
834.83	6137.1	
835	4947.9	
835.17	3981.9	
835.35	3969	
835.52	5801.9	
835.69	5619.6	
835.86	4186	
836.03	3422.2	
836.2	5852.4	
836.37	5457.8	
836.55	4119.8	
836.72	3857	
836.89	5401.2	
837.06	5958.9	
837.23	4179.9	
837.4	4645.5	
837.57	6740.5	
837.75	7535.2	
837.92	3720.5	
838.09	4002.4	
838.26	5406	
838.43	6161	
838.6	4330.1	
838.77	3884.3	
838.94	7161.7	
839.11	6758.3	
839.29	4095.9	
839.46	3261.7	
839.63	5790.3	
839.8	5530.2	
839.97	4001.7	
840.14	3956.7	
840.31	5566.4	
840.48	5869.5	
840.65	3318.4	
840.82	3909.6	
841	5855.1	
841.17	5818.3	
841.34	3617.4	
841.51	3695.9	
841.68	5726.8	
841.85	5539.1	
842.02	3812	
842.19	3188.7	
842.36	5524.1	
842.53	5530.2	
842.7	3648.8	
842.87	4542.4	
843.05	7442.3	
843.22	5541.8	
843.39	3468.6	
843.56	3736.2	
843.73	5239.4	
843.9	5892.7	
844.07	6012.2	
844.24	5003.9	
844.41	8830.2	
844.58	5054.4	
844.75	3485.6	
844.92	3880.2	
845.09	5850.4	
845.26	5794.4	
845.43	3650.8	
845.6	3796.9	
845.77	5882.4	
845.94	5600.5	
846.12	4055	
846.29	4334.2	
846.46	6071.5	
846.63	5876.3	
846.8	3639.2	
846.97	4345.1	
847.14	6342.6	
847.31	5758.2	
847.48	4157.4	
847.65	4549.9	
847.82	6155.5	
847.99	6039.5	
848.16	4924	
848.33	4515.8	
848.5	5388.9	
848.67	6372.6	
848.84	3596.2	
849.01	3796.3	
849.18	5208.7	
849.35	4850.3	
849.52	4564.2	
849.69	3559.4	
849.86	6035.4	
850.03	6348	
850.2	3653.6	
850.37	4485.7	
850.54	6230.6	
850.71	5492.7	
850.88	4390.8	
851.05	3556	
851.22	5755.5	
851.39	6488	
851.56	3446.7	
851.73	4233.8	
851.9	5078.3	
852.07	6148.7	
852.24	4102.1	
852.41	3620.1	
852.58	5658.5	
852.75	5182	
852.92	4111	
853.09	3512.3	
853.26	5427.8	
853.43	6352.1	
853.6	3557.3	
853.77	3082.9	
853.94	6431.3	
854.11	5819	
854.28	5426.4	
854.44	3961.5	
854.61	6870.9	
854.78	6251.8	
854.95	3599.6	
855.12	4624.3	
855.29	4621.6	
855.46	6562.4	
855.63	3654.9	
855.8	5078.3	
855.97	5391.6	
856.14	6204.7	
856.31	5231.9	
856.48	3975.1	
856.65	5390.3	
856.82	5129.5	
856.99	3478.8	
857.16	3960.1	
857.33	7200.7	
857.49	5537.7	
857.66	3988.1	
857.83	4259.8	
858	5430.5	
858.17	5693.4	
858.34	3454.9	
858.51	3611.3	
858.68	6617.7	
858.85	6626.5	
859.02	4282.3	
859.19	4558.8	
859.36	5078.3	
859.52	5147.9	
859.69	3695.9	
859.86	4315.8	
860.03	5210.7	
860.2	6464.1	
860.37	3273.3	
860.54	3719.1	
860.71	6124.1	
860.88	6532.3	
861.05	4063.9	
861.21	4582	
861.38	6605.4	
861.55	5042.1	
861.72	3323.9	
861.89	4037.9	
862.06	6146.6	
862.23	6769.9	
862.4	3477.5	
862.56	3818.1	
862.73	6015.6	
862.9	5609.4	
863.07	4339	
863.24	3284.3	
863.41	5013.4	
863.58	5101.5	
863.75	3770.3	
863.91	4244.1	
864.08	6477.7	
864.25	6034	
864.42	4564.2	
864.59	5175.9	
864.76	6851.1	
864.93	5087.2	
865.09	3552.5	
865.26	3820.8	
865.43	6337.8	
865.6	6742.6	
865.77	3158.7	
865.94	3632.4	
866.1	6427.9	
866.27	6144.6	
866.44	5532.9	
866.61	3457	
866.78	5494	
866.95	5972.6	
867.11	3530.7	
867.28	3186	
867.45	6210.1	
867.62	5136.3	
867.79	4226.3	
867.96	3564.8	
868.12	5117.2	
868.29	6123.4	
868.46	3656.3	
868.63	4925.4	
868.8	6309.1	
868.97	6048.3	
869.13	3799.7	
869.3	3779.9	
869.47	5973.9	
869.64	6149.4	
869.81	3641.3	
869.97	3691.1	
870.14	5851.7	
870.31	6601.3	
870.48	3516.4	
870.65	4644.1	
870.81	5455.1	
870.98	5440.1	
871.15	4131.4	
871.32	3823.6	
871.48	5948.7	
871.65	6638.8	
871.82	3616	
871.99	3999	
872.16	7078.5	
872.32	6494.1	
872.49	3614.7	
872.66	3736.2	
872.83	6127.5	
872.99	5275.6	
873.16	4184.7	
873.33	3629	
873.5	5707.7	
873.67	5689.3	
873.83	3824.2	
874	4872.8	
874.17	5860.6	
874.34	7043.6	
874.5	4720.6	
874.67	4579.9	
874.84	6561	
875.01	5145.9	
875.17	5192.3	
875.34	3632.4	
875.51	5752.7	
875.68	6988.4	
875.84	4357.4	
876.01	5399.8	
876.18	6049.7	
876.34	6031.3	
876.51	3737.5	
876.68	3575.1	
876.85	5492	
877.01	6337.8	
877.18	5278.3	
877.35	3648.8	
877.52	5602.6	
877.68	5048.9	
877.85	3480.2	
878.02	3582.6	
878.18	5659.9	
878.35	5314.5	
878.52	2897.9	
878.69	4074.1	
878.85	6068.1	
879.02	6078.4	
879.19	5201.8	
879.35	3963.5	
879.52	5920.7	
879.69	6279.1	
879.86	3122.5	
880.02	4091.8	
880.19	5610.1	
880.36	6849.1	
880.52	4243.4	
880.69	4279.6	
880.86	6191.7	
881.02	6199.2	
881.19	3998.3	
881.36	3992.9	
881.52	6091.3	
881.69	5249.6	
881.86	3854.3	
882.02	3801.7	
882.19	6315.3	
882.36	7431.4	
882.52	3730	
882.69	5131.5	
882.86	5804.6	
883.02	5709.1	
883.19	4465.3	
883.36	4218.8	
883.52	6213.5	
883.69	7066.2	
883.86	3702.7	
884.02	3317	
884.19	6112.5	
884.36	5639.4	
884.52	4171.7	
884.69	3879.5	
884.86	5410.7	
885.02	6810.9	
885.19	4082.3	
885.36	4220.9	
885.52	5669.5	
885.69	5771.9	
885.86	5345.2	
886.02	4659.8	
886.19	6133.7	
886.35	5500.2	
886.52	4008.6	
886.69	5116.5	
886.85	5140.4	
887.02	6535.8	
887.19	6535.8	
887.35	6535.8	
887.52	6535.8	
887.68	6535.8	
887.85	6535.8	
888.02	6535.8	
888.18	6535.8	
888.35	6535.8	
888.51	6535.8	
888.68	6535.8	
888.85	6535.8	
889.01	6535.8	
889.18	6535.8	
889.35	6535.8	
889.51	6535.8	
889.68	6535.8	
889.84	6535.8	
890.01	6535.8	
890.17	6535.8	
890.34	6535.8	
890.51	6535.8	
890.67	6535.8	
890.84	6535.8	
891	6535.8	
891.17	6535.8	
891.34	6535.8	
891.5	6535.8	
891.67	6535.8	
891.83	6535.8	
892	6535.8	
892.16	6535.8	
892.33	6535.8	
892.5	6535.8	
892.66	6535.8	
892.83	6535.8	
892.99	6535.8	
893.16	6535.8	
893.32	6535.8	
893.49	6535.8	
893.65	6535.8	
893.82	6535.8	
893.99	6535.8	
894.15	6535.8	
894.32	6535.8	
894.48	6535.8	
894.65	6535.8	
894.81	6535.8	
894.98	6535.8	
895.14	6535.8	
895.31	6535.8	
895.47	6535.8	
895.64	6535.8	
895.81	6535.8	
895.97	6535.8	
896.14	6535.8	
896.3	6535.8	
896.47	6535.8	
896.63	6535.8	
896.8	6535.8	
896.96	6535.8	
897.13	6535.8	
897.29	6535.8	
897.46	6535.8	
897.62	6535.8	
897.79	6535.8	
897.95	6535.8	
898.12	6535.8	
898.28	6535.8	
898.45	6535.8	
898.61	6535.8	
898.78	6535.8	
898.94	6535.8	
899.11	6535.8	
899.27	6535.8	
899.44	6535.8	
899.6	6535.8	
899.77	6535.8	
899.93	6535.8	
900.1	6535.8	
900.26	6535.8	
900.43	6535.8	
900.59	6535.8	
900.76	6535.8	
900.92	6535.8	
901.09	6535.8	
901.25	6535.8	
901.42	6535.8	
901.58	6535.8	
901.75	6535.8	
901.91	6535.8	
902.07	6535.8	
902.24	6535.8	
902.4	6535.8	
902.57	6535.8	
902.73	6535.8	
902.9	6535.8	
903.06	6535.8	
903.23	6535.8	
903.39	6535.8	
903.56	6535.8	
903.72	6535.8	
903.88	6535.8	
904.05	6535.8	
904.21	6535.8	
904.38	6535.8	
904.54	6535.8	
904.71	6535.8	
904.87	6535.8	
905.03	6535.8	
905.2	6535.8	
905.36	6535.8	
905.53	6535.8	
905.69	6535.8	
905.86	6535.8	
906.02	6535.8	
906.18	6535.8	
906.35	6535.8	
906.51	6535.8	
906.68	6535.8	
906.84	6535.8	
907.01	6535.8	
907.17	6535.8	
907.33	6535.8	
907.5	6535.8	
907.66	6535.8	
907.83	6535.8	
907.99	6535.8	
908.15	6535.8	
908.32	6535.8	
908.48	6535.8	
908.65	6535.8	
908.81	6535.8	
908.97	6535.8	
909.14	6535.8	
909.3	6535.8	
909.47	6535.8	
909.63	6535.8	
909.79	6535.8	
909.96	6535.8	
910.12	6535.8	
910.28	6535.8	
910.45	6535.8	
910.61	6535.8	
910.78	6535.8	
910.94	6535.8	
911.1	6535.8	
911.27	6535.8	
911.43	6535.8	
911.59	6535.8	
911.76	6535.8	
911.92	6535.8	
912.08	6535.8	
912.25	6535.8	
912.41	6535.8	
912.57	6535.8	
912.74	6535.8	
912.9	6535.8	
913.07	6535.8	
913.23	6535.8	
913.39	6535.8	
913.56	6535.8	
913.72	6535.8	
913.88	6535.8	
914.05	6535.8	
914.21	6535.8	
914.37	6535.8	
914.54	6535.8	
914.7	6535.8	
914.86	6535.8	
915.03	6535.8	
915.19	6535.8	
