Wavelength	Intensities	
nm	a.u.	
179.22	1718.1	
179.44	1708.3	
179.65	1727.8	
179.86	1688.9	
180.08	1717.6	
180.29	3921.2	
180.51	3048.1	
180.72	4996.4	
180.94	5536.3	
181.15	2709.5	
181.37	2701.3	
181.58	4775.9	
181.79	5003.2	
182.01	2823.5	
182.22	2992.1	
182.44	5016.2	
182.65	4304.8	
182.87	3574.4	
183.08	3254.2	
183.29	5244.2	
183.51	4380.6	
183.72	2951.8	
183.94	4112.3	
184.15	4714.4	
184.37	4661.9	
184.58	2679.4	
184.79	3431.7	
185.01	4477.5	
185.22	5035.3	
185.44	3575.1	
185.65	3156.6	
185.86	4717.2	
186.08	4328	
186.29	2611.8	
186.51	2766.1	
186.72	4442	
186.94	5104.9	
187.15	3218	
187.36	3253.5	
187.58	6358.3	
187.79	4838	
188.01	3257	
188.22	5015.5	
188.43	5573.2	
188.65	4904.2	
188.86	2773.6	
189.08	3297.9	
189.29	4543.1	
189.5	4538.3	
189.72	2995.5	
189.93	3069.9	
190.15	5101.5	
190.36	5904.3	
190.57	3261	
190.79	3154.6	
191	5114.5	
191.22	5089.2	
191.43	3300	
191.64	2798.9	
191.86	5314.5	
192.07	5117.9	
192.29	2887	
192.5	2968.9	
192.71	5208.7	
192.93	4561.5	
193.14	2986.6	
193.35	3075.4	
193.57	4549.2	
193.78	5083.1	
194	2480.8	
194.21	2921.1	
194.42	4381.3	
194.64	4777.9	
194.85	3208.5	
195.07	3702.7	
195.28	4705.5	
195.49	4246.8	
195.71	3860.4	
195.92	2785.2	
196.13	4906.9	
196.35	4903.5	
196.56	4121.2	
196.78	3260.4	
196.99	5906.3	
197.2	5463.3	
197.42	3572.3	
197.63	3263.1	
197.84	4284.4	
198.06	4880.3	
198.27	2959.3	
198.48	3930.1	
198.7	4547.2	
198.91	4712.4	
199.13	3251.5	
199.34	3247.4	
199.55	5128.1	
199.77	4126	
199.98	2909.5	
200.19	3272.7	
200.41	4711.7	
200.62	4384.7	
200.83	3405.8	
201.05	3601	
201.26	4751.3	
201.47	4488.5	
201.69	2943.6	
201.9	2840.5	
202.11	4693.9	
202.33	5444.2	
202.54	3079.5	
202.76	3403	
202.97	4756.1	
203.18	4827.7	
203.4	3338.2	
203.61	3397.6	
203.82	4772.4	
204.04	4461.8	
204.25	3237.8	
204.46	3175.7	
204.68	4709.6	
204.89	4841.4	
205.1	3201	
205.32	2839.8	
205.53	4982.7	
205.74	5139.7	
205.96	2464.4	
206.17	3226.9	
206.38	4934.2	
206.6	5040.1	
206.81	3674.1	
207.02	3087	
207.24	4891.2	
207.45	5135.6	
207.66	3168.9	
207.88	2749.1	
208.09	4859.8	
208.3	4692.6	
208.52	2916.3	
208.73	3112.2	
208.94	4755.4	
209.15	5177.9	
209.37	3136.8	
209.58	3245.3	
209.79	5100.8	
210.01	4549.2	
210.22	2609.1	
210.43	2669.9	
210.65	4686.4	
210.86	4943.8	
211.07	3098.6	
211.29	2911.5	
211.5	4898.1	
211.71	4671.4	
211.93	2897.2	
212.14	2842.6	
212.35	4721.3	
212.56	4760.2	
212.78	3246	
212.99	2738.1	
213.2	5384.1	
213.42	4525.3	
213.63	3007.1	
213.84	3171.6	
214.06	4282.3	
214.27	4304.1	
214.48	3136.1	
214.69	3283.6	
214.91	5200.5	
215.12	5197.7	
215.33	3207.1	
215.55	3523.9	
215.76	5613.5	
215.97	4938.3	
216.18	3180.5	
216.4	3136.8	
216.61	4443.4	
216.82	5030.5	
217.04	2876	
217.25	3041.2	
217.46	5117.9	
217.67	5010	
217.89	2646.7	
218.1	2737.5	
218.31	4769.7	
218.53	4846.9	
218.74	3086.3	
218.95	2930	
219.16	4674.8	
219.38	5426.4	
219.59	2942.9	
219.8	3472.7	
220.01	5765	
220.23	4697.4	
220.44	3673.4	
220.65	2837.1	
220.87	4841.4	
221.08	5168.4	
221.29	2751.1	
221.5	3452.2	
221.72	6081.1	
221.93	4463.9	
222.14	3218	
222.35	3752.6	
222.57	4754.7	
222.78	5063.9	
222.99	3194.8	
223.2	3343.7	
223.42	4925.4	
223.63	5003.2	
223.84	2474.6	
224.05	2495.8	
224.27	5698.1	
224.48	5324	
224.69	3804.4	
224.9	3287	
225.12	4844.1	
225.33	4659.1	
225.54	2667.1	
225.75	2992.8	
225.97	4389.5	
226.18	4644.8	
226.39	3085.6	
226.6	2916.3	
226.82	4537.6	
227.03	4365.6	
227.24	3238.5	
227.45	2744.3	
227.67	5048.2	
227.88	5317.9	
228.09	3611.3	
228.3	3555.3	
228.52	4984.8	
228.73	4612	
228.94	3067.9	
229.15	2742.2	
229.36	4646.8	
229.58	4662.5	
229.79	3091.8	
230	3517	
230.21	5484.5	
230.43	4743.8	
230.64	3277.4	
230.85	3293.1	
231.06	5074.2	
231.28	5068.7	
231.49	2756.6	
231.7	3205.1	
231.91	4940.4	
232.12	4685.1	
232.34	2867.2	
232.55	3157.3	
232.76	5177.3	
232.97	4832.5	
233.18	2889	
233.4	3235.1	
233.61	4850.3	
233.82	4478.9	
234.03	3054.2	
234.25	3005.1	
234.46	6195.1	
234.67	4727.4	
234.88	3377.8	
235.09	2931.3	
235.31	4911.7	
235.52	4622.9	
235.73	3214.6	
235.94	2792.1	
236.15	4509.6	
236.37	5528.8	
236.58	2914.9	
236.79	3123.2	
237	4927.4	
237.21	4369.7	
237.43	3355.3	
237.64	2686.9	
237.85	7691.5	
238.06	4381.3	
238.27	3310.2	
238.48	2836.4	
238.7	4965	
238.91	4620.2	
239.12	3060.3	
239.33	3191.4	
239.54	4442.7	
239.76	4581.3	
239.97	3164.1	
240.18	3065.1	
240.39	5659.9	
240.6	4900.1	
240.82	3272	
241.03	2725.8	
241.24	4641.4	
241.45	5296.7	
241.66	2899.2	
241.87	3370.3	
242.09	5257.8	
242.3	5530.9	
242.51	3407.8	
242.72	3078.1	
242.93	5016.8	
243.14	4699.4	
243.36	3563.5	
243.57	3758.7	
243.78	5347.9	
243.99	4968.4	
244.2	3158	
244.41	2843.9	
244.63	4351.3	
244.84	4842.1	
245.05	3341.6	
245.26	3100.6	
245.47	4904.2	
245.68	5048.2	
245.9	3977.2	
246.11	3265.1	
246.32	4553.3	
246.53	4926	
246.74	4906.3	
246.95	2710.1	
247.16	4443.4	
247.38	4682.3	
247.59	2718.3	
247.8	3153.9	
248.01	4423.6	
248.22	4700.8	
248.43	2903.3	
248.64	3044.6	
248.86	4330.1	
249.07	4505.5	
249.28	2798.9	
249.49	3234.4	
249.7	5082.4	
249.91	5174.5	
250.12	2717.7	
250.34	2753.2	
250.55	4795	
250.76	4712.4	
250.97	3208.5	
251.18	3268.6	
251.39	5119.9	
251.6	4851	
251.81	3254.9	
252.03	3259	
252.24	4546.5	
252.45	5003.9	
252.66	2799.6	
252.87	3394.8	
253.08	4721.9	
253.29	5829.2	
253.5	2805.7	
253.72	3775.1	
253.93	4629.8	
254.14	5440.1	
254.35	3008.5	
254.56	3064.4	
254.77	4853.7	
254.98	4425	
255.19	2983.9	
255.41	3667.2	
255.62	4842.1	
255.83	5168.4	
256.04	3394.8	
256.25	3186.6	
256.46	5573.9	
256.67	4457.1	
256.88	3218	
257.09	3517	
257.31	4388.1	
257.52	4463.9	
257.73	3988.8	
257.94	3037.1	
258.15	4733.5	
258.36	4689.8	
258.57	3696.6	
258.78	2465.1	
258.99	5074.2	
259.2	4529.4	
259.41	2988	
259.63	3087.7	
259.84	5309.7	
260.05	5640.8	
260.26	3847.5	
260.47	2927.2	
260.68	5055.1	
260.89	4601.8	
261.1	3579.8	
261.31	2905.4	
261.52	5193	
261.73	5324.7	
261.95	3764.8	
262.16	3325.2	
262.37	5210	
262.58	5283.8	
262.79	3793.5	
263	3037.1	
263.21	4688.5	
263.42	4289.1	
263.63	3291.8	
263.84	3064.4	
264.05	5072.1	
264.26	5338.4	
264.47	3649.5	
264.69	3254.2	
264.9	5279	
265.11	4804.5	
265.32	2938.2	
265.53	2985.3	
265.74	4772.4	
265.95	4253.6	
266.16	3186.6	
266.37	3514.3	
266.58	4803.9	
266.79	4526	
267	2998.2	
267.21	2844.6	
267.42	4360.1	
267.63	4707.6	
267.84	3089	
268.06	2744.3	
268.27	5081.7	
268.48	5180.7	
268.69	3080.8	
268.9	3594.2	
269.11	5229.8	
269.32	4274.1	
269.53	3160	
269.74	2957.9	
269.95	4869.4	
270.16	4265.9	
270.37	3139.5	
270.58	3590.8	
270.79	4640.7	
271	5076.9	
271.21	3280.8	
271.42	3172.3	
271.63	4852.3	
271.84	4379.9	
272.05	2613.9	
272.26	2854.2	
272.47	4678.2	
272.68	4870.1	
272.89	3078.1	
273.11	3438.5	
273.32	4542.4	
273.53	5342.5	
273.74	3287.7	
273.95	3302.7	
274.16	5075.5	
274.37	4744.5	
274.58	3416.7	
274.79	2773.6	
275	4864.6	
275.21	5124.7	
275.42	4027	
275.63	3454.2	
275.84	4965.6	
276.05	5902.9	
276.26	3265.8	
276.47	3078.1	
276.68	4612.7	
276.89	5457.8	
277.1	3473.4	
277.31	2800.3	
277.52	4842.8	
277.73	5087.2	
277.94	2796.2	
278.15	3061.7	
278.36	4897.4	
278.57	4426.3	
278.78	2986.6	
278.99	3373.7	
279.2	4535.6	
279.41	4405.2	
279.62	3893.9	
279.83	2863.7	
280.04	5594.4	
280.25	4436.6	
280.46	3820.1	
280.67	3156.6	
280.88	4478.9	
281.09	5152.7	
281.3	3260.4	
281.51	4064.5	
281.72	4512.4	
281.93	5038.7	
282.14	2995.5	
282.35	3200.3	
282.56	5111.7	
282.77	5055.8	
282.98	3047.4	
283.19	3672.7	
283.4	5979.4	
283.61	4640	
283.82	2856.9	
284.03	3802.4	
284.24	4863.9	
284.45	5151.3	
284.66	3870.7	
284.87	3651.5	
285.08	5123.3	
285.29	5206.6	
285.5	2773.6	
285.71	3092.4	
285.92	5140.4	
286.12	5627.1	
286.33	3800.3	
286.54	3085.6	
286.75	5090.6	
286.96	4665.3	
287.17	2885.6	
287.38	3662.5	
287.59	4489.1	
287.8	4546.5	
288.01	3087.7	
288.22	3456.3	
288.43	4941.7	
288.64	4279.6	
288.85	3608.5	
289.06	3426.3	
289.27	5027.1	
289.48	5341.8	
289.69	3800.3	
289.9	3489.1	
290.11	5214.1	
290.32	4548.5	
290.53	3621.5	
290.74	3375.1	
290.94	5096.7	
291.15	5025.7	
291.36	3017.3	
291.57	3448.1	
291.78	4556	
291.99	4293.2	
292.2	2924.5	
292.41	3366.9	
292.62	5064.6	
292.83	4925.4	
293.04	4043.4	
293.25	2928.6	
293.46	4582.7	
293.67	5101.5	
293.88	2918.4	
294.09	2855.6	
294.29	4379.9	
294.5	4823.6	
294.71	3110.9	
294.92	3057.6	
295.13	4563.6	
295.34	5529.5	
295.55	2693.8	
295.76	2646.7	
295.97	5041.4	
296.18	5500.8	
296.39	2830.3	
296.6	2950.4	
296.81	4767	
297.01	4979.3	
297.22	3127.9	
297.43	3000.3	
297.64	4533.5	
297.85	4454.3	
298.06	2527.9	
298.27	2714.9	
298.48	4669.4	
298.69	4502.8	
298.9	3185.3	
299.11	2884.9	
299.31	4343.1	
299.52	4380.6	
299.73	3411.9	
299.94	3330.7	
300.15	4729.4	
300.36	4482.3	
300.57	3323.9	
300.78	3327.9	
300.99	4615.4	
301.2	4818.9	
301.4	2951.8	
301.61	3170.3	
301.82	4977.2	
302.03	5027.1	
302.24	3573.7	
302.45	2817.3	
302.66	4907.6	
302.87	5164.3	
303.08	2957.3	
303.29	3820.8	
303.49	4567.7	
303.7	4685.8	
303.91	2690.3	
304.12	3735.5	
304.33	4305.5	
304.54	4842.1	
304.75	3033	
304.96	2923.8	
305.16	4920.6	
305.37	5412.1	
305.58	2683.5	
305.79	2745	
306	4962.2	
306.21	4288.4	
306.42	3003	
306.63	4353.3	
306.83	4601.8	
307.04	5068.7	
307.25	3232.4	
307.46	3164.8	
307.67	4193.6	
307.88	5008	
308.09	2999.6	
308.29	3072	
308.5	4739.7	
308.71	5088.5	
308.92	3115.6	
309.13	2877.4	
309.34	4662.5	
309.55	4615.4	
309.75	3622.9	
309.96	3310.2	
310.17	5021.6	
310.38	4493.2	
310.59	3482.2	
310.8	2835.1	
311.01	4556	
311.21	4655	
311.42	2894.5	
311.63	2985.9	
311.84	4585.4	
312.05	4752	
312.26	3272.7	
312.46	3566.9	
312.67	4610.7	
312.88	4418.8	
313.09	2932.7	
313.3	2821.4	
313.51	5251.7	
313.71	5559.6	
313.92	2927.9	
314.13	3071.3	
314.34	4911.7	
314.55	4683.7	
314.76	3551.2	
314.96	3190.7	
315.17	4828.4	
315.38	4881	
315.59	2930	
315.8	2751.8	
316.01	5225.1	
316.21	5410.7	
316.42	2820.1	
316.63	3173	
316.84	4587.4	
317.05	5174.5	
317.26	3359.4	
317.46	3049.4	
317.67	4757.4	
317.88	5016.8	
318.09	3575.8	
318.3	2746.3	
318.5	4538.3	
318.71	4892.6	
318.92	4436.6	
319.13	3312.2	
319.34	5076.9	
319.54	5198.4	
319.75	2718.3	
319.96	2613.2	
320.17	4954	
320.38	5156.1	
320.58	2706	
320.79	3190.1	
321	5133.6	
321.21	5221.6	
321.42	3190.1	
321.62	2691	
321.83	4452.3	
322.04	4719.9	
322.25	3103.4	
322.46	2844.6	
322.66	4776.5	
322.87	4981.3	
323.08	3446	
323.29	2825.5	
323.5	5515.2	
323.7	4405.2	
323.91	3756.7	
324.12	3425.6	
324.33	4846.2	
324.53	4986.8	
324.74	3347.1	
324.95	3409.9	
325.16	4306.2	
325.37	4560.1	
325.57	2929.3	
325.78	2979.8	
325.99	4870.8	
326.2	4328	
326.4	3953.9	
326.61	2751.1	
326.82	4655.7	
327.03	4824.3	
327.24	3982.6	
327.44	3728.7	
327.65	4906.9	
327.86	4098.7	
328.07	3383.2	
328.27	2800.3	
328.48	5213.4	
328.69	4372.4	
328.9	3978.5	
329.1	3020.8	
329.31	4653	
329.52	5281.7	
329.73	2889.7	
329.93	3133.4	
330.14	4795.7	
330.35	4889.9	
330.56	4579.9	
330.76	3537.5	
330.97	4586.8	
331.18	4860.5	
331.39	3183.2	
331.59	2666.5	
331.8	5141.8	
332.01	5238	
332.22	2952.5	
332.42	3338.9	
332.63	4773.1	
332.84	4470.7	
333.05	3244	
333.25	2939.5	
333.46	4513	
333.67	4741	
333.88	3067.9	
334.08	3292.5	
334.29	6005.3	
334.5	5166.3	
334.7	2869.2	
334.91	3952.6	
335.12	4384	
335.33	4935.6	
335.53	3203	
335.74	4453	
335.95	4656.4	
336.16	4390.8	
336.36	3149.1	
336.57	3614.7	
336.78	4329.4	
336.98	5077.6	
337.19	3818.8	
337.4	3088.3	
337.61	5571.8	
337.81	4349.2	
338.02	2977.7	
338.23	3667.9	
338.43	5257.8	
338.64	4468.7	
338.85	2957.3	
339.05	3768.3	
339.26	5297.4	
339.47	4290.5	
339.68	2915.6	
339.88	4118.5	
340.09	4911.7	
340.3	5069.4	
340.5	3396.2	
340.71	2646	
340.92	4392.2	
341.13	5188.9	
341.33	2773.6	
341.54	3339.6	
341.75	4853.7	
341.95	4554.7	
342.16	3205.8	
342.37	3528	
342.57	4394.9	
342.78	4668.7	
342.99	3517.7	
343.19	2681.5	
343.4	5042.8	
343.61	4906.9	
343.81	3141.6	
344.02	2852.1	
344.23	5025	
344.43	5244.8	
344.64	3526.6	
344.85	3467.9	
345.06	4964.3	
345.26	5163.6	
345.47	3340.2	
345.68	3839.3	
345.88	4304.8	
346.09	5031.2	
346.3	3375.7	
346.5	2619.4	
346.71	4650.3	
346.92	4501.4	
347.12	2791.4	
347.33	3299.3	
347.54	5128.1	
347.74	5387.5	
347.95	3274.7	
348.16	2573.6	
348.36	4605.2	
348.57	4448.9	
348.78	3330.7	
348.98	3508.2	
349.19	4733.5	
349.39	4275.5	
349.6	2761.3	
349.81	2992.8	
350.01	4985.4	
350.22	4523.3	
350.43	3219.4	
350.63	3758.7	
350.84	4708.3	
351.05	4573.1	
351.25	2963.4	
351.46	2758.6	
351.67	5145.2	
351.87	4478.2	
352.08	3162.7	
352.29	3457	
352.49	5066.7	
352.7	5075.5	
352.9	2863.7	
353.11	3490.4	
353.32	5572.5	
353.52	4582	
353.73	2913.6	
353.94	3588	
354.14	4970.4	
354.35	4789.5	
354.55	2955.2	
354.76	3297.2	
354.97	5010.7	
355.17	4732.2	
355.38	2914.3	
355.59	3751.2	
355.79	4548.5	
356	4773.8	
356.2	3258.3	
356.41	2942.9	
356.62	4416.1	
356.82	4757.4	
357.03	3474.7	
357.24	3189.4	
357.44	4500.8	
357.65	4661.2	
357.85	4014	
358.06	3295.9	
358.27	4384	
358.47	4515.1	
358.68	2867.8	
358.88	3457	
359.09	4935.6	
359.3	5136.3	
359.5	3920.5	
359.71	3545.7	
359.91	5468.1	
360.12	4982	
360.33	3506.8	
360.53	3849.5	
360.74	4668	
360.94	4674.1	
361.15	3623.5	
361.36	3147.7	
361.56	5238	
361.77	4791.6	
361.97	3974.4	
362.18	3233.1	
362.38	5199.1	
362.59	4530.1	
362.8	3052.2	
363	2988	
363.21	4465.3	
363.41	4876.9	
363.62	3457.7	
363.83	4111	
364.03	5056.4	
364.24	5560.2	
364.44	4233.8	
364.65	4033.1	
364.85	4810	
365.06	4599.7	
365.27	3203	
365.47	3269.9	
365.68	5453.1	
365.88	4818.2	
366.09	3575.8	
366.29	3260.4	
366.5	4941.7	
366.71	5280.3	
366.91	4186	
367.12	3664.5	
367.32	5723.4	
367.53	5118.6	
367.73	3636.5	
367.94	4292.5	
368.14	5218.2	
368.35	5694.7	
368.56	3563.5	
368.76	3187.3	
368.97	5261.9	
369.17	6345.3	
369.38	3302	
369.58	3411.9	
369.79	4504.2	
369.99	5485.8	
370.2	4214	
370.4	3521.1	
370.61	4997.7	
370.82	5935.7	
371.02	3476.1	
371.23	3044.6	
371.43	4599.1	
371.64	5507	
371.84	3472.7	
372.05	4297.3	
372.25	6332.3	
372.46	5199.1	
372.66	3502.7	
372.87	3517	
373.07	5245.5	
373.28	6400.6	
373.48	4184	
373.69	4011.3	
373.9	4901.5	
374.1	4996.4	
374.31	4156	
374.51	3758.7	
374.72	5552	
374.92	4823.6	
375.13	4360.1	
375.33	3710.9	
375.54	5225.7	
375.74	4977.9	
375.95	3890.5	
376.15	4711	
376.36	5347.9	
376.56	5229.1	
376.77	3855	
376.97	4227.7	
377.18	6105	
377.38	5399.8	
377.59	4326.7	
377.79	3640.6	
378	5241.4	
378.2	5532.9	
378.41	3650.2	
378.61	3613.3	
378.82	5654.4	
379.02	5068.7	
379.23	3757.3	
379.43	4513	
379.64	5715.2	
379.84	5392.3	
380.05	3667.2	
380.25	3642	
380.46	5418.9	
380.66	5128.1	
380.87	4584	
381.07	4756.1	
381.28	5900.2	
381.48	5414.1	
381.69	3572.3	
381.89	3736.9	
382.1	4733.5	
382.3	5461.9	
382.51	4378.6	
382.71	4975.2	
382.91	5367	
383.12	5754.8	
383.32	3861.8	
383.53	3946.4	
383.73	5320.6	
383.94	5229.1	
384.14	3978.5	
384.35	3342.3	
384.55	5076.9	
384.76	5416.2	
384.96	3773.7	
385.17	4045.4	
385.37	5447.6	
385.58	4904.2	
385.78	4022.2	
385.98	3340.9	
386.19	5023.7	
386.39	5351.3	
386.6	3656.3	
386.8	3878.2	
387.01	5340.4	
387.21	5398.4	
387.42	4126.7	
387.62	4496	
387.83	5025.7	
388.03	5231.9	
388.23	3919.8	
388.44	4489.1	
388.64	4866	
388.85	4956.1	
389.05	4114.4	
389.26	4609.3	
389.46	6249.7	
389.67	5877.7	
389.87	4203.1	
390.07	4191.5	
390.28	5240.8	
390.48	4923.3	
390.69	3649.5	
390.89	3835.8	
391.1	5081.7	
391.3	5717.2	
391.5	4677.6	
391.71	5062.6	
391.91	5563.6	
392.12	6178.7	
392.32	4697.4	
392.53	4201.7	
392.73	5150	
392.93	5257.8	
393.14	3945.8	
393.34	4430.4	
393.55	5507	
393.75	5196.4	
393.95	3945.8	
394.16	3819.5	
394.36	5091.9	
394.57	5511.1	
394.77	3626.3	
394.98	3835.8	
395.18	5091.9	
395.38	5121.3	
395.59	4495.3	
395.79	3852.2	
396	5210.7	
396.2	5566.4	
396.4	4415.4	
396.61	4351.9	
396.81	5632.6	
397.02	5185.5	
397.22	4548.5	
397.42	4657.8	
397.63	5765.7	
397.83	5235.3	
398.04	3827	
398.24	4212.7	
398.44	5530.2	
398.65	4935.6	
398.85	3721.2	
399.05	3855	
399.26	5220.3	
399.46	6309.8	
399.67	4111	
399.87	3904.8	
400.07	5376.6	
400.28	5672.9	
400.48	3956	
400.69	4703.5	
400.89	5813.5	
401.09	6160.3	
401.3	3906.2	
401.5	4735.6	
401.7	6354.2	
401.91	6473.6	
402.11	4298	
402.32	4322.6	
402.52	5946.6	
402.72	5767.8	
402.93	4481	
403.13	3693.2	
403.33	6371.9	
403.54	5411.4	
403.74	4135.5	
403.94	4756.7	
404.15	5347.2	
404.35	6249	
404.56	4018.8	
404.76	5245.5	
404.96	5770.5	
405.17	5582.1	
405.37	4859.1	
405.57	4443.4	
405.78	5833.3	
405.98	5429.8	
406.18	4635.2	
406.39	4723.3	
406.59	5834	
406.79	5468.8	
407	3923.2	
407.2	3928	
407.4	5997.8	
407.61	5954.1	
407.81	3935.5	
408.01	5444.9	
408.22	5120.6	
408.42	6491.4	
408.62	4842.8	
408.83	4562.9	
409.03	5672.9	
409.23	5625.8	
409.44	4650.9	
409.64	4734.2	
409.84	6475.7	
410.05	6345.3	
410.25	4784.7	
410.45	4549.9	
410.66	6158.9	
410.86	7724.3	
411.06	5020.9	
411.27	4906.9	
411.47	7650.5	
411.67	6231.3	
411.88	5028.4	
412.08	5215.5	
412.28	6667.5	
412.49	6950.1	
412.69	4984.1	
412.89	4945.2	
413.09	6952.2	
413.3	6878.4	
413.5	5036.6	
413.7	4740.4	
413.91	6427.2	
414.11	6978.8	
414.31	4917.9	
414.52	5191.6	
414.72	6756.9	
414.92	6656.6	
415.12	4941.1	
415.33	5314.5	
415.53	6899.6	
415.73	7049.8	
415.94	5580	
416.14	5178.6	
416.34	6295.5	
416.55	6045.6	
416.75	6081.8	
416.95	5690.6	
417.15	7061.4	
417.36	7376.8	
417.56	6297.5	
417.76	5533.6	
417.97	7206.1	
418.17	7013.6	
418.37	5319.3	
418.57	5320.6	
418.78	7050.5	
418.98	6728.9	
419.18	5832.6	
419.38	5885.2	
419.59	6578.8	
419.79	6335.7	
419.99	5162.2	
420.2	5414.1	
420.4	7013.6	
420.6	7067.5	
420.8	5178.6	
421.01	5046.9	
421.21	6982.9	
421.41	6999.3	
421.61	5302.9	
421.82	5229.1	
422.02	6664.8	
422.22	7269.6	
422.42	5727.5	
422.63	5472.9	
422.83	6616.3	
423.03	7446.4	
423.23	5461.2	
423.44	4710.3	
423.64	6541.9	
423.84	6365.8	
424.04	5096	
424.25	4815.5	
424.45	7200	
424.65	7141.3	
424.85	4666	
425.06	5121.3	
425.26	7359	
425.46	6483.2	
425.66	5436.7	
425.87	5166.3	
426.07	7006.1	
426.27	6808.1	
426.47	5326.8	
426.67	4784.1	
426.88	7255.3	
427.08	6819.7	
427.28	5493.3	
427.48	4714.4	
427.69	6120.7	
427.89	6548	
428.09	5395	
428.29	4832.5	
428.5	6937.2	
428.7	6707.1	
428.9	4811.4	
429.1	5094.7	
429.3	6750.8	
429.51	6840.9	
429.71	5008	
429.91	5527.5	
430.11	6926.2	
430.31	7121.5	
430.52	5160.9	
430.72	5410.7	
430.92	7238.9	
431.12	7008.8	
431.32	4985.4	
431.53	5242.1	
431.73	6222.4	
431.93	7281.9	
432.13	4867.3	
432.33	4805.9	
432.54	6579.4	
432.74	6671.6	
432.94	4840.7	
433.14	5603.2	
433.34	6982.9	
433.55	6642.9	
433.75	5543.9	
433.95	6861.4	
434.15	6782.2	
434.35	6541.2	
434.56	4933.6	
434.76	4666.6	
434.96	6773.3	
435.16	7005.4	
435.36	4902.2	
435.56	5778	
435.77	6587.6	
435.97	6743.3	
436.17	6249	
436.37	5747.3	
436.57	6642.2	
436.78	6610.8	
436.98	6040.8	
437.18	6087.9	
437.38	7051.2	
437.58	6690	
437.78	6189.6	
437.99	5195	
438.19	6998.6	
438.39	7606.2	
438.59	5185.5	
438.79	4842.1	
438.99	7480.5	
439.2	6600.6	
439.4	4778.6	
439.6	4834.6	
439.8	6819.1	
440	7645.1	
440.2	5664	
440.4	5666.7	
440.61	7305.1	
440.81	7617.1	
441.01	5180.7	
441.21	5798.5	
441.41	7623.2	
441.61	7210.9	
441.81	6037.4	
442.02	6689.3	
442.22	7962.5	
442.42	7436.2	
442.62	5164.3	
442.82	5247.6	
443.02	7604.8	
443.22	6969.2	
443.43	5611.4	
443.63	5218.9	
443.83	6815	
444.03	6814.3	
444.23	6119.3	
444.43	5793	
444.63	7175.4	
444.83	7870.3	
445.04	5442.8	
445.24	6197.2	
445.44	7335.1	
445.64	7314.7	
445.84	5890.6	
446.04	5837.4	
446.24	6780.8	
446.44	7526.3	
446.65	5216.2	
446.85	5554.8	
447.05	7017	
447.25	7536.5	
447.45	5572.5	
447.65	5057.1	
447.85	7048.4	
448.05	6750.8	
448.25	5889.3	
448.46	5689.9	
448.66	7092.1	
448.86	6812.9	
449.06	5113.1	
449.26	5853.8	
449.46	7273	
449.66	6636.8	
449.86	5535.7	
450.06	5561.6	
450.26	6810.2	
450.47	7168.6	
450.67	5781.4	
450.87	5987.6	
451.07	7437.5	
451.27	7133.8	
451.47	5255.1	
451.67	5887.2	
451.87	6954.9	
452.07	7712	
452.27	5494	
452.47	5465.3	
452.67	7116	
452.88	7395.9	
453.08	4980.7	
453.28	6370.5	
453.48	7897.7	
453.68	7032.7	
453.88	5390.9	
454.08	5442.8	
454.28	7318.8	
454.48	7110.5	
454.68	5874.9	
454.88	6247	
455.08	7535.8	
455.28	7326.3	
455.48	5302.2	
455.68	5823.1	
455.89	7856	
456.09	7614.3	
456.29	5591	
456.49	5642.8	
456.69	7764.5	
456.89	7181.5	
457.09	5939.8	
457.29	6334.4	
457.49	7527.7	
457.69	7641	
457.89	6040.8	
458.09	5575.3	
458.29	7407.5	
458.49	7976.8	
458.69	6202.6	
458.89	5864	
459.09	8107.2	
459.29	8147.5	
459.49	5808	
459.69	6450.4	
459.9	7764.5	
460.1	7436.9	
460.3	5702.2	
460.5	5651.7	
460.7	7782.3	
460.9	7503.1	
461.1	5429.2	
461.3	6351.4	
461.5	8274.5	
461.7	7967.3	
461.9	5827.2	
462.1	6115.9	
462.3	7595.2	
462.5	8054	
462.7	5885.2	
462.9	5871.5	
463.1	8802.2	
463.3	8624	
463.5	6059.9	
463.7	6868.2	
463.9	7847.1	
464.1	8102.4	
464.3	6340.5	
464.5	6445	
464.7	8299.1	
464.9	8058.8	
465.1	7296.9	
465.3	6744.6	
465.5	8540.7	
465.7	8590.5	
465.9	6904.4	
466.1	6690.7	
466.3	8412.4	
466.5	8285.4	
466.7	7382.9	
466.9	6700.3	
467.1	8411.7	
467.3	8966.7	
467.5	7437.5	
467.7	6578.1	
467.9	9097.8	
468.1	9738.8	
468.3	7111.9	
468.5	7529.7	
468.7	8281.3	
468.9	8210.3	
469.1	6850.5	
469.3	7446.4	
469.5	9841.9	
469.7	8086.1	
469.9	7166.5	
470.1	6622.4	
470.3	8484.7	
470.5	8348.2	
470.7	7627.3	
470.9	6757.6	
471.1	8206.9	
471.3	8454.7	
471.5	6599.9	
471.69	7879.2	
471.89	8125.7	
472.09	7701.7	
472.29	7174	
472.49	7236.8	
472.69	7837.6	
472.89	8397.4	
473.09	6484.6	
473.29	6516.6	
473.49	8043.1	
473.69	7941.3	
473.89	7182.9	
474.09	6580.8	
474.29	8913.4	
474.49	8676.6	
474.69	7160.4	
474.89	6721.4	
475.09	8168	
475.29	7974.1	
475.49	6337.1	
475.69	6503	
475.88	9178.3	
476.08	8305.9	
476.28	6191.7	
476.48	6515.3	
476.68	8598.7	
476.88	8353.7	
477.08	6465.4	
477.28	6584.2	
477.48	7985	
477.68	8438.3	
477.88	6258.6	
478.08	6505	
478.28	8680.7	
478.48	8176.9	
478.67	6591	
478.87	6156.9	
479.07	8575.5	
479.27	8173.4	
479.47	6632	
479.67	6670.9	
479.87	8480.6	
480.07	8768	
480.27	6153.5	
480.47	7248.4	
480.67	8213	
480.87	8669.7	
481.06	6428.6	
481.26	6980.8	
481.46	8258.1	
481.66	8089.5	
481.86	6668.9	
482.06	7382.2	
482.26	7995.3	
482.46	8509.3	
482.66	6550.1	
482.86	6322.1	
483.05	8331.1	
483.25	7824.6	
483.45	8371.4	
483.65	6649.1	
483.85	7879.2	
484.05	8066.3	
484.25	7048.4	
484.45	7267.6	
484.65	8710.7	
484.84	8834.3	
485.04	6559.6	
485.24	6652.5	
485.44	9041.8	
485.64	7756.3	
485.84	6221	
486.04	7204.8	
486.24	8028	
486.44	8258.1	
486.63	6165.8	
486.83	6862.1	
487.03	8144.8	
487.23	8300.4	
487.43	6293.4	
487.63	7948.8	
487.83	8315.4	
488.02	8940.7	
488.22	6976.7	
488.42	7389.8	
488.62	8887.5	
488.82	8011.7	
489.02	6691.4	
489.22	6769.9	
489.41	8752.3	
489.61	8588.5	
489.81	6595.8	
490.01	6580.1	
490.21	8738.7	
490.41	9280.7	
490.61	6569.9	
490.8	6589	
491	8477.2	
491.2	7941.3	
491.4	7116	
491.6	6393.8	
491.8	8372.1	
491.99	8339.3	
492.19	6236.7	
492.39	6415.6	
492.59	8665	
492.79	8837.7	
492.99	7191.1	
493.18	6554.2	
493.38	8959.2	
493.58	9480.7	
493.78	7137.9	
493.98	6836.8	
494.18	8717.5	
494.37	8365.3	
494.57	7425.3	
494.77	7212.9	
494.97	8948.9	
495.17	9311.4	
495.37	7030.7	
495.56	7210.2	
495.76	9299.8	
495.96	9083.4	
496.16	8029.4	
496.36	7228.6	
496.55	9215.9	
496.75	8883.4	
496.95	7471	
497.15	7350.2	
497.35	9138	
497.54	9121	
497.74	7256	
497.94	8348.9	
498.14	9742.2	
498.34	9532.6	
498.53	7083.2	
498.73	7546.8	
498.93	8738.7	
499.13	9244.5	
499.33	7464.2	
499.52	7776.1	
499.72	9302.6	
499.92	9463	
500.12	7266.9	
500.32	7474.4	
500.51	9495.1	
500.71	9288.9	
500.91	7945.4	
501.11	7755.7	
501.31	9328.5	
501.5	9636.4	
501.7	8235.6	
501.9	7516.7	
502.1	9256.1	
502.29	9467.8	
502.49	7775.5	
502.69	8127	
502.89	9248.6	
503.09	9340.8	
503.28	7009.5	
503.48	7167.9	
503.68	8843.1	
503.88	8677.2	
504.07	7874.4	
504.27	7453.2	
504.47	9009	
504.67	9127.1	
504.86	7715.4	
505.06	7550.9	
505.26	8799.4	
505.46	9997.5	
505.65	7428	
505.85	7542	
506.05	8746.2	
506.25	9078.6	
506.44	6847	
506.64	7461.4	
506.84	8523	
507.04	9084.8	
507.23	6944.7	
507.43	7468.9	
507.63	9940.8	
507.83	8741.4	
508.02	7328.3	
508.22	7058	
508.42	10021	
508.62	8512.7	
508.81	7166.5	
509.01	7628	
509.21	8359.8	
509.4	8593.3	
509.6	7451.9	
509.8	6971.3	
510	8599.4	
510.19	9636.4	
510.39	6808.1	
510.59	7075.7	
510.79	8511.4	
510.98	9573.6	
511.18	7083.2	
511.38	7108.5	
511.57	9189.9	
511.77	8899.8	
511.97	7591.8	
512.17	6927.6	
512.36	9102.5	
512.56	8998.1	
512.76	6985.6	
512.95	6748.1	
513.15	9200.2	
513.35	8064.2	
513.55	7548.8	
513.74	6886	
513.94	9168.8	
514.14	8600.8	
514.33	7674.4	
514.53	7526.3	
514.73	8722.3	
514.92	8727.1	
515.12	7034.8	
515.32	7042.3	
515.51	8837.7	
515.71	9256.1	
515.91	8284	
516.11	6999.3	
516.3	10081	
516.5	8680	
516.7	7459.4	
516.89	7909.9	
517.09	8684.8	
517.29	8716.2	
517.48	7901.1	
517.68	7189.1	
517.88	8531.2	
518.07	9022.7	
518.27	7627.3	
518.47	6855.2	
518.66	9411.8	
518.86	8449.2	
519.06	6783.6	
519.25	7174	
519.45	8654	
519.65	9723.1	
519.84	7722.9	
520.04	8153.6	
520.24	9959.3	
520.43	9200.8	
520.63	7443.7	
520.83	7258	
521.02	8575.5	
521.22	8994	
521.42	7564.5	
521.61	7897.7	
521.81	8702.5	
522.01	8852	
522.2	7533.8	
522.4	7357	
522.6	9230.9	
522.79	8359.1	
522.99	7378.8	
523.18	6966.5	
523.38	9116.2	
523.58	9049.3	
523.77	8356.4	
523.97	7011.6	
524.17	10449	
524.36	9909.4	
524.56	8186.4	
524.76	7832.8	
524.95	9146.2	
525.15	8941.4	
525.34	7739.3	
525.54	7805.5	
525.74	9555.8	
525.93	8888.2	
526.13	8548.9	
526.33	7748.1	
526.52	9925.8	
526.72	9413.1	
526.91	8640.4	
527.11	8107.2	
527.31	9776.3	
527.5	10117	
527.7	8118.1	
527.89	7415.7	
528.09	9278.7	
528.29	9630.9	
528.48	8443.1	
528.68	8225.3	
528.87	9919.7	
529.07	9872.6	
529.27	8084	
529.46	7718.8	
529.66	9554.5	
529.85	9830.9	
530.05	7686.7	
530.25	8062.9	
530.44	10591	
530.64	9543.5	
530.83	7901.1	
531.03	8145.5	
531.23	9933.3	
531.42	9741.5	
531.62	8632.2	
531.81	8065.6	
532.01	10112	
532.21	10374	
532.4	8021.2	
532.6	8325.7	
532.79	10679	
532.99	10251	
533.18	8305.9	
533.38	9126.4	
533.58	9912.9	
533.77	10273	
533.97	8402.1	
534.16	8922.3	
534.36	10623	
534.55	9848	
534.75	9061.6	
534.95	8502.5	
535.14	10548	
535.34	9919	
535.53	8140.7	
535.73	9529.9	
535.92	10945	
536.12	9932.6	
536.31	8258.1	
536.51	9054.8	
536.71	10293	
536.9	9918.3	
537.1	8326.4	
537.29	8512.7	
537.49	10539	
537.68	9891.7	
537.88	8710.7	
538.07	8110.6	
538.27	10067	
538.46	10804	
538.66	8183.7	
538.86	8425.3	
539.05	10112	
539.25	10391	
539.44	8700.5	
539.64	8328.4	
539.83	9974.3	
540.03	10616	
540.22	8170	
540.42	8284	
540.61	10201	
540.81	10214	
541	8577.6	
541.2	9125.7	
541.39	9719	
541.59	10026	
541.78	8975.6	
541.98	8243.8	
542.18	9506.7	
542.37	9416.6	
542.57	8444.5	
542.76	8732.5	
542.96	9532.6	
543.15	9906.7	
543.35	8354.3	
543.54	8002.1	
543.74	10044	
543.93	9772.2	
544.13	8243.8	
544.32	9061.6	
544.52	10065	
544.71	9482.8	
544.91	7712	
545.1	8551.6	
545.3	9579.7	
545.49	9892.4	
545.69	7617.1	
545.88	8098.4	
546.08	10688	
546.27	10230	
546.47	8432.9	
546.66	7980.3	
546.86	10073	
547.05	10523	
547.24	8103.1	
547.44	7992.5	
547.63	9374.9	
547.83	10076	
548.02	8279.9	
548.22	8342.7	
548.41	9195.4	
548.61	10153	
548.8	7905.8	
549	7935.2	
549.19	9645.3	
549.39	9971.6	
549.58	7622.5	
549.78	8125	
549.97	9884.9	
550.17	9583.1	
550.36	8634.9	
550.55	9348.3	
550.75	9544.2	
550.94	10224	
551.14	7780.9	
551.33	7983.7	
551.53	9030.9	
551.72	9691.7	
551.92	7991.9	
552.11	7894.2	
552.31	9871.2	
552.5	9781.1	
552.69	9101.2	
552.89	7596.6	
553.08	9721.7	
553.28	9476	
553.47	7959.8	
553.67	8637.6	
553.86	10217	
554.06	8953.7	
554.25	7218.4	
554.44	7674.4	
554.64	10806	
554.83	10363	
555.03	7659.4	
555.22	8023.3	
555.42	9891	
555.61	9583.1	
555.8	7795.3	
556	7922.9	
556.19	9007	
556.39	9924.5	
556.58	7813	
556.78	7795.3	
556.97	9590.6	
557.16	9318.9	
557.36	8716.8	
557.55	7534.5	
557.75	8850	
557.94	10159	
558.13	7657.4	
558.33	7422.5	
558.52	9907.4	
558.72	8959.9	
558.91	7510.6	
559.1	7808.9	
559.3	8817.9	
559.49	8673.8	
559.69	7200.7	
559.88	7937.2	
560.07	9402.2	
560.27	9787.9	
560.46	8013.7	
560.66	8116.1	
560.85	9284.1	
561.04	8673.8	
561.24	7404.1	
561.43	7550.2	
561.63	8933.9	
561.82	9102.5	
562.01	8478.6	
562.21	7811	
562.4	9312.1	
562.59	10048	
562.79	7748.8	
562.98	7468.3	
563.18	9443.9	
563.37	10453	
563.56	8008.2	
563.76	7495.6	
563.95	8972.8	
564.14	8923	
564.34	7638.9	
564.53	7443.7	
564.73	9396.8	
564.92	9526.5	
565.11	7845.1	
565.31	7327.6	
565.5	9841.9	
565.69	8972.8	
565.89	7589.1	
566.08	7822.6	
566.27	9729.2	
566.47	9976.3	
566.66	8373.5	
566.85	7340.6	
567.05	9529.2	
567.24	9013.1	
567.44	7451.2	
567.63	8490.2	
567.82	9568.8	
568.02	9344.9	
568.21	7503.8	
568.4	7791.2	
568.6	9304.6	
568.79	9188.6	
568.98	7371.3	
569.18	7515.4	
569.37	9275.9	
569.56	10664	
569.76	7787.1	
569.95	8404.2	
570.14	9422.7	
570.34	9411.1	
570.53	7418.4	
570.72	7286	
570.91	9832.3	
571.11	9179	
571.3	7623.2	
571.49	8378.9	
571.69	9318.9	
571.88	8869.1	
572.07	7978.9	
572.27	8025.3	
572.46	8806.9	
572.65	9563.3	
572.85	7552.2	
573.04	7785	
573.23	9822.7	
573.43	9331.9	
573.62	7445.7	
573.81	7868.3	
574	9401.5	
574.2	9150.3	
574.39	7733.8	
574.58	7668.3	
574.78	9973.6	
574.97	9430.9	
575.16	8060.1	
575.36	8206.9	
575.55	9772.2	
575.74	9904	
575.93	7433.4	
576.13	8257.4	
576.32	9251.4	
576.51	9656.2	
576.71	7770	
576.9	8707.3	
577.09	9957.9	
577.28	9534	
577.48	8057.4	
577.67	7283.3	
577.86	9240.4	
578.05	9613.8	
578.25	7849.2	
578.44	7919.5	
578.63	9399.5	
578.83	10403	
579.02	7507.2	
579.21	8630.8	
579.4	9486.2	
579.6	9372.9	
579.79	7998	
579.98	9665.7	
580.17	9783.1	
580.37	9906	
580.56	7629.4	
580.75	8111.3	
580.94	10101	
581.14	10218	
581.33	8505.9	
581.52	7700.4	
581.71	9713.5	
581.91	10264	
582.1	7550.2	
582.29	7867.6	
582.48	9520.3	
582.68	9505.3	
582.87	8226	
583.06	8126.3	
583.25	9865.7	
583.45	9655.5	
583.64	8583	
583.83	8971.5	
584.02	9463	
584.21	9827.5	
584.41	8566	
584.6	8030.1	
584.79	9600.9	
584.98	10080	
585.18	7598.6	
585.37	7631.4	
585.56	9281.4	
585.75	9837.1	
585.94	7696.3	
586.14	8179.6	
586.33	10188	
586.52	9421.3	
586.71	8028.7	
586.91	7898.3	
587.1	8990.6	
587.29	9797.5	
587.48	7733.1	
587.67	7680.6	
587.87	9641.8	
588.06	9452.1	
588.25	8686.1	
588.44	8009.6	
588.63	9228.8	
588.83	9727.9	
589.02	7621.2	
589.21	7558.4	
589.4	9104.6	
589.59	8886.1	
589.78	6799.9	
589.98	6944.7	
590.17	8488.1	
590.36	8789.9	
590.55	6421.7	
590.74	6845	
590.94	9534	
591.13	8524.3	
591.32	6809.5	
591.51	6418.3	
591.7	8895	
591.89	8573.5	
592.09	6670.9	
592.28	6899.6	
592.47	7950.2	
592.66	9500.5	
592.85	6646.3	
593.05	6782.2	
593.24	8542.8	
593.43	9173.5	
593.62	6920.1	
593.81	7199.3	
594	8682.7	
594.19	8723.7	
594.39	6938.5	
594.58	6761.7	
594.77	8796.7	
594.96	9245.2	
595.15	6764.4	
595.34	7140.6	
595.54	8678.6	
595.73	8150.9	
595.92	6209.4	
596.11	7026.6	
596.3	9151.7	
596.49	8131.1	
596.68	6969.9	
596.88	7263.5	
597.07	8884.8	
597.26	8198.7	
597.45	6594.5	
597.64	7425.3	
597.83	8309.3	
598.02	8774.2	
598.22	6785.6	
598.41	7161.1	
598.6	8671.8	
598.79	8290.2	
598.98	6709.8	
599.17	7370.6	
599.36	8672.5	
599.55	9420.7	
599.74	8147.5	
599.94	8009.6	
600.13	9060.2	
600.32	8270.4	
600.51	6573.3	
600.7	6721.4	
600.89	9523.7	
601.08	9514.9	
601.27	6545.3	
601.47	7176.1	
601.66	9045.2	
601.85	9432.9	
602.04	7108.5	
602.23	6961.7	
602.42	8367.3	
602.61	8857.5	
602.8	6813.6	
602.99	6739.2	
603.18	8627.4	
603.37	8759.8	
603.57	7189.7	
603.76	7654.6	
603.95	9284.1	
604.14	8914.8	
604.33	6893.5	
604.52	7106.5	
604.71	8811.7	
604.9	8516.8	
605.09	7534.5	
605.28	7376.8	
605.47	9164	
605.66	8787.2	
605.86	7328.3	
606.05	6935.8	
606.24	9199.5	
606.43	8056.7	
606.62	7136.5	
606.81	7608.2	
607	9111.4	
607.19	8570.1	
607.38	6711.9	
607.57	6842.9	
607.76	8314.1	
607.95	8040.3	
608.14	7109.9	
608.33	7580.2	
608.52	8181	
608.72	8989.2	
608.91	6657.3	
609.1	6518	
609.29	8394.6	
609.48	8019.2	
609.67	7292.1	
609.86	6543.3	
610.05	8162.5	
610.24	8309.3	
610.43	6507.1	
610.62	6221	
610.81	9170.8	
611	9027.4	
611.19	6609.5	
611.38	7039.6	
611.57	8652	
611.76	9370.1	
611.95	6412.9	
612.14	6326.9	
612.33	8397.4	
612.52	8110	
612.71	6781.5	
612.9	6239.5	
613.09	7817.8	
613.28	9529.9	
613.47	6664.1	
613.66	7236.8	
613.85	8578.3	
614.04	8120.2	
614.24	6674.3	
614.43	6025.8	
614.62	8657.4	
614.81	8486.8	
615	7030.7	
615.19	7036.1	
615.38	8107.2	
615.57	8390.5	
615.76	6961	
615.95	7677.8	
616.14	8664.3	
616.33	8361.2	
616.52	7176.8	
616.71	7212.9	
616.9	8601.5	
617.09	8485.4	
617.28	6709.8	
617.47	7602.7	
617.66	7955.7	
617.85	8000	
618.04	7355.6	
618.22	6963.1	
618.41	8298.4	
618.6	8996.7	
618.79	7009.5	
618.98	6818.4	
619.17	9157.8	
619.36	7857.4	
619.55	6898.9	
619.74	6997.2	
619.93	8667	
620.12	8273.1	
620.31	7332.4	
620.5	7378.1	
620.69	9058.8	
620.88	9421.3	
621.07	8006.2	
621.26	7346.1	
621.45	8806.9	
621.64	8871.8	
621.83	7370.6	
622.02	6739.2	
622.21	8837	
622.4	8717.5	
622.59	7705.1	
622.78	7555.6	
622.97	8427.4	
623.16	9037	
623.35	7382.2	
623.54	6703.7	
623.72	8595.3	
623.91	8606.2	
624.1	7570	
624.29	6622.4	
624.48	9432.9	
624.67	8848.6	
624.86	7456	
625.05	6734.4	
625.24	9491	
625.43	8385.7	
625.62	8503.8	
625.81	6941.9	
626	9100.5	
626.19	8527.1	
626.38	7439.6	
626.56	7044.3	
626.75	8408.3	
626.94	9112.1	
627.13	7417.1	
627.32	6501.6	
627.51	8858.1	
627.7	9619.3	
627.89	6569.9	
628.08	7364.5	
628.27	8163.2	
628.46	8388.5	
628.65	6780.8	
628.83	6536.4	
629.02	8819.2	
629.21	8154.3	
629.4	7088.7	
629.59	7147.4	
629.78	8262.9	
629.97	8934.6	
630.16	7269.6	
630.35	6873	
630.54	9327.8	
630.72	9089.6	
630.91	6916.7	
631.1	7372	
631.29	8683.4	
631.48	8714.8	
631.67	7428.7	
631.86	6922.8	
632.05	8482	
632.24	8471.8	
632.42	6788.3	
632.61	7154.2	
632.8	8572.1	
632.99	8215.1	
633.18	7191.1	
633.37	7369.3	
633.56	8652	
633.75	8589.2	
633.93	7212.3	
634.12	6977.4	
634.31	9400.9	
634.5	8979.7	
634.69	7023.2	
634.88	7301	
635.07	8560.5	
635.25	8997.4	
635.44	7544.7	
635.63	7684.7	
635.82	8472.4	
636.01	7999.4	
636.2	7619.8	
636.39	7350.2	
636.57	9196.7	
636.76	8914.8	
636.95	6885.3	
637.14	7764.5	
637.33	8787.2	
637.52	9395.4	
637.7	6626.5	
637.89	7475.1	
638.08	8499.8	
638.27	9520.3	
638.46	7395.9	
638.65	7720.8	
638.83	9477.3	
639.02	8235.6	
639.21	7279.2	
639.4	7588.4	
639.59	8634.9	
639.78	8321.6	
639.96	6761	
640.15	6825.2	
640.34	8442.4	
640.53	8572.8	
640.72	6609.5	
640.91	6739.9	
641.09	8068.3	
641.28	8976.2	
641.47	6738.5	
641.66	7281.9	
641.85	8591.9	
642.03	8697	
642.22	7049.8	
642.41	6799.9	
642.6	8075.8	
642.79	7682.6	
642.97	6648.4	
643.16	7062.8	
643.35	8082.6	
643.54	7920.2	
643.73	6540.5	
643.91	7015	
644.1	7779.6	
644.29	8158.4	
644.48	6591	
644.67	6544.6	
644.85	7760.4	
645.04	8073.1	
645.23	6193.7	
645.42	6363.7	
645.6	7679.2	
645.79	8477.2	
645.98	6273.6	
646.17	5568.4	
646.36	7443	
646.54	7752.2	
646.73	6771.3	
646.92	5914.5	
647.11	7513.3	
647.29	8243.8	
647.48	5969.1	
647.67	5773.9	
647.86	8438.3	
648.05	8311.3	
648.23	6184.9	
648.42	7065.5	
648.61	7968	
648.8	7770.7	
648.98	5969.8	
649.17	6227.9	
649.36	7538.6	
649.55	7130.3	
649.73	6008.7	
649.92	6569.2	
650.11	7390.4	
650.3	7711.3	
650.48	6044.2	
650.67	5989.6	
650.86	7763.2	
651.05	7054.6	
651.23	5967.1	
651.42	5986.9	
651.61	7412.3	
651.79	7421.2	
651.98	6189	
652.17	5840.1	
652.36	7655.3	
652.54	7038.2	
652.73	5905	
652.92	5803.9	
653.11	7716.7	
653.29	7804.1	
653.48	5387.5	
653.67	6132.3	
653.85	7473.7	
654.04	8298.4	
654.23	6138.4	
654.42	5838.8	
654.6	7127.6	
654.79	7596.6	
654.98	5350	
655.16	5865.4	
655.35	6836.1	
655.54	6673.6	
655.73	5421	
655.91	5354.8	
656.1	7494.2	
656.29	6677.7	
656.47	5139.7	
656.66	6368.5	
656.85	7083.9	
657.03	7065.5	
657.22	5606.7	
657.41	5614.8	
657.59	7140.6	
657.78	6958.3	
657.97	5364.3	
658.16	5901.6	
658.34	7524.9	
658.53	7854.6	
658.72	6567.2	
658.9	6911.9	
659.09	7251.2	
659.28	7304.4	
659.46	5770.5	
659.65	5635.3	
659.84	7121.5	
660.02	7535.2	
660.21	5695.4	
660.4	5548.6	
660.58	7664.2	
660.77	7224.6	
660.96	5995.1	
661.14	5280.3	
661.33	8131.8	
661.52	8038.3	
661.7	5273.5	
661.89	7838.3	
662.08	6989.7	
662.26	6609.5	
662.45	5476.3	
662.64	5576.6	
662.82	7473	
663.01	6844.3	
663.2	5565.7	
663.38	6144.6	
663.57	7338.6	
663.75	7293.5	
663.94	5735.7	
664.13	6668.9	
664.31	6987.7	
664.5	7425.3	
664.69	6040.1	
664.87	6328.2	
665.06	6800.6	
665.25	7308.5	
665.43	6514.6	
665.62	6502.3	
665.8	7467.6	
665.99	6984.9	
666.18	5843.5	
666.36	5808	
666.55	7417.1	
666.74	7345.4	
666.92	5453.1	
667.11	6654.5	
667.29	7041.6	
667.48	7391.8	
667.67	6354.8	
667.85	5679	
668.04	7079.8	
668.22	7016.3	
668.41	5831.2	
668.6	5914.5	
668.78	6850.5	
668.97	7064.1	
669.15	6001.2	
669.34	5324	
669.53	6905.8	
669.71	7075	
669.9	5434.6	
670.08	5868.1	
670.27	6756.9	
670.46	7254.6	
670.64	6079.7	
670.83	6324.8	
671.01	6759.7	
671.2	7146	
671.38	5492.7	
671.57	5349.3	
671.76	7688.1	
671.94	7963.9	
672.13	5403.9	
672.31	6093.4	
672.5	7367.9	
672.69	6925.5	
672.87	5518.6	
673.06	5700.2	
673.24	7292.1	
673.43	6909.2	
673.61	6059.9	
673.8	5683.1	
673.98	7264.1	
674.17	7380.2	
674.36	6078.4	
674.54	6020.3	
674.73	7131	
674.91	7429.3	
675.1	5749.3	
675.28	5540.4	
675.47	7058	
675.65	7375.4	
675.84	5662.6	
676.03	5852.4	
676.21	6854.6	
676.4	6448.4	
676.58	6163.7	
676.77	6029.2	
676.95	7952.3	
677.14	6828.6	
677.32	5431.2	
677.51	5384.1	
677.69	7368.6	
677.88	6619.7	
678.06	5346.6	
678.25	5497.4	
678.44	7043.6	
678.62	6737.8	
678.81	5260.5	
678.99	5903.6	
679.18	7611.6	
679.36	7262.8	
679.55	5646.9	
679.73	6111.1	
679.92	7281.9	
680.1	6819.7	
680.29	6531	
680.47	5598.5	
680.66	6804.7	
680.84	7427.3	
681.03	5197.7	
681.21	5956.2	
681.4	6825.2	
681.58	6715.3	
681.77	5479.7	
681.95	5423	
682.14	7477.1	
682.32	7681.2	
682.51	6072.2	
682.69	5266.7	
682.88	6762.4	
683.06	7129	
683.25	5838.8	
683.43	6143.9	
683.62	7098.9	
683.8	7249.1	
683.99	6380.1	
684.17	5782.8	
684.36	7916.8	
684.54	6851.1	
684.73	5166.3	
684.91	5210	
685.1	6924.9	
685.28	6494.1	
685.46	5417.6	
685.65	5526.1	
685.83	6923.5	
686.02	6509.1	
686.2	5154.1	
686.39	5258.5	
686.57	6369.9	
686.76	7524.2	
686.94	5220.3	
687.13	5346.6	
687.31	7055.3	
687.5	6712.6	
687.68	4963.6	
687.86	5777.3	
688.05	7988.4	
688.23	6299.6	
688.42	5848.3	
688.6	5313.8	
688.79	6707.1	
688.97	6657.3	
689.16	5706.3	
689.34	4882.4	
689.52	7279.2	
689.71	7412.3	
689.89	5929.6	
690.08	5347.9	
690.26	6918	
690.45	6787.7	
690.63	5929.6	
690.81	5508.4	
691	6832.7	
691.18	6604.7	
691.37	5569.8	
691.55	7076.4	
691.74	6664.1	
691.92	8084	
692.1	5550.7	
692.29	5227.8	
692.47	6852.5	
692.66	6417	
692.84	5331.5	
693.02	5682.4	
693.21	6441.5	
693.39	6864.1	
693.58	5861.3	
693.76	5424.4	
693.94	7735.2	
694.13	7610.3	
694.31	5510.4	
694.5	6250.4	
694.68	6771.9	
694.86	7126.9	
695.05	5801.9	
695.23	5948.7	
695.42	7426.6	
695.6	9011.1	
695.78	6322.8	
695.97	5678.3	
696.15	7401.4	
696.34	6938.5	
696.52	5468.1	
696.7	6122.1	
696.89	7164.5	
697.07	6762.4	
697.25	5952.8	
697.44	7014.3	
697.62	7227.3	
697.81	7386.3	
697.99	5812.1	
698.17	6094.8	
698.36	6799.9	
698.54	7268.2	
698.72	6064.7	
698.91	5303.6	
699.09	6933.7	
699.28	6821.1	
699.46	5737	
699.64	5657.2	
699.83	6778.1	
700.01	7587.7	
700.19	6277	
700.38	5173.9	
700.56	7725.6	
700.74	6961.7	
700.93	5498.1	
701.11	6103.6	
701.29	7343.3	
701.48	8166.6	
701.66	5733.6	
701.84	5766.4	
702.03	7053.9	
702.21	7573.4	
702.39	5388.9	
702.58	5859.9	
702.76	7456	
702.94	7476.5	
703.13	5390.3	
703.31	7228.6	
703.49	7034.1	
703.68	7561.1	
703.86	5572.5	
704.04	6406	
704.23	7408.9	
704.41	7634.1	
704.59	5739.1	
704.78	6505	
704.96	8449.2	
705.14	7660.8	
705.33	5676.3	
705.51	6184.9	
705.69	7149.5	
705.87	7823.2	
706.06	6345.3	
706.24	5615.5	
706.42	7494.2	
706.61	7735.9	
706.79	6476.4	
706.97	5664	
707.16	7041.6	
707.34	7479.2	
707.52	6378.7	
707.7	5838.1	
707.89	7185.6	
708.07	6993.8	
708.25	6475	
708.44	6552.1	
708.62	7165.8	
708.8	7998.7	
708.98	6690	
709.17	5963	
709.35	7445	
709.53	7454.6	
709.72	5680.4	
709.9	5813.5	
710.08	7700.4	
710.26	7723.6	
710.45	6846.4	
710.63	5805.3	
710.81	7478.5	
710.99	7432.1	
711.18	6283.9	
711.36	6009.4	
711.54	7243	
711.72	7704.5	
711.91	6004	
712.09	5671.5	
712.27	7418.4	
712.45	7784.3	
712.64	6133	
712.82	5440.8	
713	6947.4	
713.18	6974	
713.37	5378	
713.55	6262.7	
713.73	7556.3	
713.91	6537.8	
714.1	5685.2	
714.28	5107	
714.46	7119.4	
714.64	6522.8	
714.83	4680.3	
715.01	5164.3	
715.19	6576.7	
715.37	5909.1	
715.55	4895.3	
715.74	5094.7	
715.92	7078.5	
716.1	5599.1	
716.28	5912.5	
716.47	5173.2	
716.65	6190.3	
716.83	6218.3	
717.01	5029.1	
717.19	5062.6	
717.38	7684	
717.56	5840.1	
717.74	5316.5	
717.92	4728.1	
718.1	6864.8	
718.29	6383.5	
718.47	4506.2	
718.65	4987.5	
718.83	6941.9	
719.01	6926.9	
719.2	4486.4	
719.38	5330.9	
719.56	6769.9	
719.74	7884.7	
719.92	5018.9	
720.11	5793	
720.29	6809.5	
720.47	6098.9	
720.65	4713.7	
720.83	5278.3	
721.02	6229.2	
721.2	6111.1	
721.38	5271.5	
721.56	4638.6	
721.74	5674.9	
721.92	5787.6	
722.11	5571.8	
722.29	5353.4	
722.47	6732.4	
722.65	6169.8	
722.83	4670.1	
723.01	5351.3	
723.2	6096.8	
723.38	6423.8	
723.56	4278.2	
723.74	5093.3	
723.92	5843.5	
724.1	6746.7	
724.29	4629.1	
724.47	5470.8	
724.65	5949.3	
724.83	5772.5	
725.01	4620.9	
725.19	5180	
725.37	5839.4	
725.56	5908.4	
725.74	4492.6	
725.92	4670.7	
726.1	5776	
726.28	6053.1	
726.46	4952.7	
726.64	4754	
726.83	6134.3	
727.01	6227.9	
727.19	4494.6	
727.37	5068.7	
727.55	6166.4	
727.73	6539.8	
727.91	4444.8	
728.09	4337.6	
728.28	6587.6	
728.46	6745.3	
728.64	5156.8	
728.82	5171.1	
729	7240.9	
729.18	6904.4	
729.36	4594.3	
729.54	6206	
729.72	7664.9	
729.91	6335.7	
730.09	6046.3	
730.27	5124.7	
730.45	6331.6	
730.63	6863.4	
730.81	5681.1	
730.99	4917.9	
731.17	7244.3	
731.35	6233.3	
731.53	5332.9	
731.71	4992.3	
731.9	7103	
732.08	7066.9	
732.26	5222.3	
732.44	4906.3	
732.62	7109.9	
732.8	6772.6	
732.98	5498.1	
733.16	4828.4	
733.34	6811.5	
733.52	5750.7	
733.7	5193	
733.88	5363.6	
734.07	6663.4	
734.25	6462	
734.43	4777.2	
734.61	5937.7	
734.79	7542.7	
734.97	6422.4	
735.15	4915.8	
735.33	5122	
735.51	6667.5	
735.69	6461.3	
735.87	5948.7	
736.05	5274.9	
736.23	6521.4	
736.41	6326.2	
736.59	5156.8	
736.77	5236.7	
736.95	6854.6	
737.13	6356.9	
737.32	4880.3	
737.5	5019.6	
737.68	7329	
737.86	6348.7	
738.04	4737.6	
738.22	6053.1	
738.4	6231.3	
738.58	6472.3	
738.76	5169.1	
738.94	4440.7	
739.12	6298.9	
739.3	6190.3	
739.48	5584.1	
739.66	5410.1	
739.84	6509.1	
740.02	6440.2	
740.2	4504.8	
740.38	4741.7	
740.56	6761	
740.74	5827.8	
740.92	5284.4	
741.1	5117.9	
741.28	6328.2	
741.46	6085.9	
741.64	4890.5	
741.82	5310.4	
742	6316.6	
742.18	6316.6	
742.36	5068	
742.54	4699.4	
742.72	6685.3	
742.9	5788.2	
743.08	5226.4	
743.26	4388.8	
743.44	6746.7	
743.62	6670.9	
743.8	5496.1	
743.98	4687.1	
744.16	6505	
744.34	6231.3	
744.52	5274.2	
744.7	5265.3	
744.88	6582.2	
745.06	6184.2	
745.24	5304.2	
745.42	5338.4	
745.6	6636.1	
745.78	6452.5	
745.96	4397	
746.14	4646.8	
746.32	7178.8	
746.5	6541.9	
746.68	5029.1	
746.86	4659.1	
747.03	6784.9	
747.21	5655.1	
747.39	4975.9	
747.57	4560.8	
747.75	6197.2	
747.93	6488.6	
748.11	4573.1	
748.29	4568.3	
748.47	7436.2	
748.65	5997.8	
748.83	5116.5	
749.01	4882.4	
749.19	6376.7	
749.37	5659.9	
749.55	4825	
749.73	4900.8	
749.91	6170.5	
750.09	5903.6	
750.26	4839.4	
750.44	4407.9	
750.62	6139.1	
750.8	6072.2	
750.98	4322.6	
751.16	4557.4	
751.34	6267.5	
751.52	5688.6	
751.7	5143.1	
751.88	4317.8	
752.06	6526.2	
752.24	6285.2	
752.42	4321.2	
752.59	4625	
752.77	6136.4	
752.95	6893.5	
753.13	5088.5	
753.31	4618.9	
753.49	5847.6	
753.67	6193.7	
753.85	4816.1	
754.03	4483.7	
754.21	6360.3	
754.38	6552.1	
754.56	4584.7	
754.74	3864.5	
754.92	5742.5	
755.1	6169.2	
755.28	3726.6	
755.46	3764.2	
755.64	6655.2	
755.82	6759	
755.99	3856.3	
756.17	3807.9	
756.35	4579.3	
756.53	5670.1	
756.71	2911.5	
756.89	3563.5	
757.07	5365.7	
757.25	4689.2	
757.42	4005.1	
757.6	4634.6	
757.78	5552	
757.96	4829.1	
758.14	3832.4	
758.32	3493.2	
758.5	4453	
758.67	5102.9	
758.85	3727.3	
759.03	3786.7	
759.21	5188.2	
759.39	4791.6	
759.57	3349.8	
759.75	4230.4	
759.92	5732.3	
760.1	5229.1	
760.28	4480.3	
760.46	4717.8	
760.64	5094	
760.82	4936.3	
760.99	4459.8	
761.17	3958.7	
761.35	5733.6	
761.53	4917.2	
761.71	3979.2	
761.89	4485.7	
762.06	5596.4	
762.24	5306.3	
762.42	4087.7	
762.6	3949.2	
762.78	5307.7	
762.96	5830.6	
763.13	4455.7	
763.31	4157.4	
763.49	5933	
763.67	5314.5	
763.85	4816.1	
764.02	5197.1	
764.2	6168.5	
764.38	5459.9	
764.56	4114.4	
764.74	4700.1	
764.91	6196.5	
765.09	5320.6	
765.27	3918.4	
765.45	3684.3	
765.63	6244.3	
765.8	6113.9	
765.98	3575.8	
766.16	3773	
766.34	5055.1	
766.52	4821.6	
766.69	4503.5	
766.87	3568.2	
767.05	5413.5	
767.23	5914.5	
767.41	3862.5	
767.58	4006.5	
767.76	5764.3	
767.94	5797.1	
768.12	3920.5	
768.29	4347.8	
768.47	5330.9	
768.65	5887.2	
768.83	3596.9	
769	4406.5	
769.18	5003.9	
769.36	5467.4	
769.54	4372.4	
769.72	3590.1	
769.89	5770.5	
770.07	5751.4	
770.25	3800.3	
770.43	4771.1	
770.6	6322.1	
770.78	6542.6	
770.96	4018.8	
771.14	3772.4	
771.31	5692	
771.49	5182	
771.67	3327.3	
771.85	3496.6	
772.02	4594.3	
772.2	5088.5	
772.38	4048.8	
772.55	3664.5	
772.73	5410.7	
772.91	5169.8	
773.09	3888.4	
773.26	3997	
773.44	5314.5	
773.62	5019.6	
773.8	3611.3	
773.97	3349.1	
774.15	5362.3	
774.33	5067.4	
774.5	3452.2	
774.68	3710.9	
774.86	5447.6	
775.04	5042.8	
775.21	3490.4	
775.39	3446.7	
775.57	5249.6	
775.74	5431.9	
775.92	3392.1	
776.1	3205.8	
776.27	5199.1	
776.45	6146.6	
776.63	3487.7	
776.81	3121.8	
776.98	4970.4	
777.16	5683.1	
777.34	3599.6	
777.51	3775.8	
777.69	4876.9	
777.87	4719.9	
778.04	3653.6	
778.22	4019.5	
778.4	4744.5	
778.57	5239.4	
778.75	3067.9	
778.93	3234.4	
779.1	4616.1	
779.28	4487.8	
779.46	3090.4	
779.64	3386	
779.81	5332.2	
779.99	5983.5	
780.17	3946.4	
780.34	4056.3	
780.52	4930.8	
780.69	5089.2	
780.87	3670	
781.05	3297.9	
781.22	5000.5	
781.4	5006.6	
781.58	3416	
781.75	2783.9	
781.93	5014.8	
782.11	4481	
782.28	4058.4	
782.46	3380.5	
782.64	4420.2	
782.81	5058.5	
782.99	3469.9	
783.17	3388	
783.34	4973.8	
783.52	4435.9	
783.69	3518.4	
783.87	4144.4	
784.05	4502.8	
784.22	4506.9	
784.4	4113.7	
784.58	3635.8	
784.75	5234.6	
784.93	4563.6	
785.1	3347.1	
785.28	3809.9	
785.46	5002.5	
785.63	4456.4	
785.81	3353.9	
785.99	3220.1	
786.16	4659.1	
786.34	4902.2	
786.51	3259	
786.69	3590.1	
786.87	4268.6	
787.04	4660.5	
787.22	3167.5	
787.39	3870	
787.57	4532.8	
787.75	5270.8	
787.92	3956	
788.1	3962.8	
788.27	4481.6	
788.45	4262.5	
788.63	3755.3	
788.8	2766.8	
788.98	4906.9	
789.15	4198.3	
789.33	2882.2	
789.5	3343.7	
789.68	5130.8	
789.86	5227.1	
790.03	3618.8	
790.21	3213.9	
790.38	5236.7	
790.56	4526.7	
790.73	3133.4	
790.91	3108.8	
791.09	4445.5	
791.26	5002.5	
791.44	3309.5	
791.61	2879.4	
791.79	4447.5	
791.96	4401.8	
792.14	2983.9	
792.32	2661	
792.49	4469.4	
792.67	4586.1	
792.84	3113.6	
793.02	2880.1	
793.19	4832.5	
793.37	5326.8	
793.54	2677.4	
793.72	2871.9	
793.89	5354.8	
794.07	4399.7	
794.25	3293.8	
794.42	2753.8	
794.6	5273.5	
794.77	4933.6	
794.95	3579.2	
795.12	3154.6	
795.3	4426.3	
795.47	4853	
795.65	3401.7	
795.82	3340.9	
796	4321.2	
796.17	5668.1	
796.35	3265.8	
796.52	3811.3	
796.7	4813.4	
796.87	4957.4	
797.05	3278.8	
797.22	3853.6	
797.4	4872.1	
797.57	5571.8	
797.75	3370.3	
797.92	3160.7	
798.1	5176.6	
798.27	4350.6	
798.45	2775	
798.62	2902	
798.8	4659.8	
798.97	5033.2	
799.15	3499.3	
799.32	3296.5	
799.5	4099.4	
799.67	4688.5	
799.85	3601	
800.02	2697.9	
800.2	4426.3	
800.37	4650.3	
800.55	3685	
800.72	3119.7	
800.9	5027.1	
801.07	5294	
801.25	4111	
801.42	3420.1	
801.6	5012.1	
801.77	4758.1	
801.95	3278.1	
802.12	3099.3	
802.29	4859.1	
802.47	4745.8	
802.64	3438.5	
802.82	2621.4	
802.99	4469.4	
803.17	5095.3	
803.34	3332	
803.52	3056.3	
803.69	5485.1	
803.87	4214	
804.04	3355.3	
804.21	3355.3	
804.39	5268.7	
804.56	4492.6	
804.74	2875.3	
804.91	3459	
805.09	4434.5	
805.26	4515.1	
805.44	2902	
805.61	3181.9	
805.78	4921.3	
805.96	4878.9	
806.13	3369.6	
806.31	3627	
806.48	4077.5	
806.66	4449.6	
806.83	3465.8	
807	3364.8	
807.18	4476.9	
807.35	4695.3	
807.53	3317.7	
807.7	2748.4	
807.87	5289.9	
808.05	4407.9	
808.22	3639.9	
808.4	2717	
808.57	4349.2	
808.74	4163.5	
808.92	3076	
809.09	3861.8	
809.27	4396.3	
809.44	4752	
809.61	2715.6	
809.79	2981.2	
809.96	5362.9	
810.14	4900.1	
810.31	2692.4	
810.48	3286.3	
810.66	4423.6	
810.83	4968.4	
811.01	3037.8	
811.18	3373	
811.35	4997.7	
811.53	4022.2	
811.7	3678.8	
811.87	3396.2	
812.05	4465.9	
812.22	4401.8	
812.39	3010.5	
812.57	2889	
812.74	4488.5	
812.92	5630.5	
813.09	3183.9	
813.26	3416	
813.44	5440.1	
813.61	4329.4	
813.78	2749.1	
813.96	3532.7	
814.13	4524.6	
814.3	4253.6	
814.48	3765.5	
814.65	3162.7	
814.82	5228.5	
815	4202.4	
815.17	3280.2	
815.34	3933.5	
815.52	4318.5	
815.69	4368.3	
815.87	3151.8	
816.04	3215.3	
816.21	4373.1	
816.38	3985.3	
816.56	3246.7	
816.73	2992.1	
816.9	5520	
817.08	4957.4	
817.25	2996.2	
817.42	3606.5	
817.6	4106.9	
817.77	4386.7	
817.94	3320.4	
818.12	2966.8	
818.29	4233.8	
818.46	6074.3	
818.64	3099.9	
818.81	2912.9	
818.98	4242.7	
819.16	5768.4	
819.33	3531.4	
819.5	3300	
819.67	4693.9	
819.85	5158.2	
820.02	3250.1	
820.19	3423.5	
820.37	4576.5	
820.54	4304.1	
820.71	3343	
820.88	4071.4	
821.06	4554.7	
821.23	4231.8	
821.4	3323.9	
821.58	3319.1	
821.75	4880.3	
821.92	4559.5	
822.09	2772.3	
822.27	2934.7	
822.44	4416.8	
822.61	4371	
822.79	2783.9	
822.96	4999.8	
823.13	4742.4	
823.3	4180.6	
823.48	3114.3	
823.65	2857.6	
823.82	5000.5	
823.99	4141	
824.17	3914.4	
824.34	2908.8	
824.51	5685.8	
824.68	4515.1	
824.86	3010.5	
825.03	3313.6	
825.2	4449.6	
825.37	5201.8	
825.55	3004.4	
825.72	3295.9	
825.89	5553.4	
826.06	5209.3	
826.24	3193.5	
826.41	3241.9	
826.58	5287.9	
826.75	4640	
826.92	2665.1	
827.1	2876	
827.27	6866.2	
827.44	5574.6	
827.61	3014.6	
827.79	3700	
827.96	4313.7	
828.13	4444.8	
828.3	3195.5	
828.47	2741.5	
828.65	4666.6	
828.82	4654.4	
828.99	3952.6	
829.16	3497.9	
829.34	5004.6	
829.51	4778.6	
829.68	3252.9	
829.85	3325.9	
830.02	5223.7	
830.2	4995.7	
830.37	2625.5	
830.54	3879.5	
830.71	5500.8	
830.88	4435.9	
831.05	2643.2	
831.23	2998.9	
831.4	5377.3	
831.57	5727.5	
831.74	3028.3	
831.91	2703.3	
832.09	4738.3	
832.26	4954	
832.43	3092.4	
832.6	3446.7	
832.77	4663.2	
832.94	5211.4	
833.12	2535.4	
833.29	3077.4	
833.46	4554	
833.63	6008.1	
833.8	3406.5	
833.97	3121.8	
834.15	4940.4	
834.32	4826.4	
834.49	3259.7	
834.66	3329.3	
834.83	5029.8	
835	4321.9	
835.17	3030.3	
835.35	3009.8	
835.52	4892.6	
835.69	4775.9	
835.86	3207.8	
836.03	2639.8	
836.2	4949.9	
836.37	4634.6	
836.55	3084.9	
836.72	2935.4	
836.89	4575.2	
837.06	5028.4	
837.23	3162.7	
837.4	3442	
837.57	5489.2	
837.75	5968.5	
837.92	2891	
838.09	3065.8	
838.26	4627	
838.43	5091.9	
838.6	3336.8	
838.77	2952.5	
838.94	5696.8	
839.11	5578.7	
839.29	3155.2	
839.46	2508.1	
839.63	4937.7	
839.8	4717.8	
839.97	3092.4	
840.14	3016	
840.31	4780.6	
840.48	5041.4	
840.65	2604.3	
840.82	2998.2	
841	4918.5	
841.17	4795	
841.34	2795.5	
841.51	2881.5	
841.68	4888.5	
841.85	4688.5	
842.02	3007.1	
842.19	2458.9	
842.36	4770.4	
842.53	4820.9	
842.7	2816.6	
842.87	3377.1	
843.05	5962.3	
843.22	4696.7	
843.39	2682.8	
843.56	2984.6	
843.73	4574.5	
843.9	4986.1	
844.07	4334.2	
844.24	3669.3	
844.41	6687.3	
844.58	4379.9	
844.75	2758.6	
844.92	2922.5	
845.09	4909	
845.26	4887.1	
845.43	2856.2	
845.6	3006.4	
845.77	4947.9	
845.94	4727.4	
846.12	3099.9	
846.29	3249.4	
846.46	5097.4	
846.63	4900.8	
846.8	2799.6	
846.97	3277.4	
847.14	5261.9	
847.31	4876.2	
847.48	3123.8	
847.65	3386	
847.82	5073.5	
847.99	5044.8	
848.16	3693.2	
848.33	3369.6	
848.5	4582.7	
848.67	5259.9	
848.84	2793.4	
849.01	2904	
849.18	4487.8	
849.35	4256.4	
849.52	3420.1	
849.69	2769.5	
849.86	5085.8	
850.03	5120.6	
850.2	2889.7	
850.37	3315	
850.54	5145.9	
850.71	4631.8	
850.88	3306.8	
851.05	2768.2	
851.22	4790.2	
851.39	5357.5	
851.56	2663.7	
851.73	3201.7	
851.9	4364.9	
852.07	5037.3	
852.24	3084.2	
852.41	2811.9	
852.58	4901.5	
852.75	4404.5	
852.92	3158.7	
853.09	2752.5	
853.26	4526.7	
853.43	5173.2	
853.6	2796.8	
853.77	2428.9	
853.94	5380	
854.11	4321.9	
854.28	3970.3	
854.44	2994.8	
854.61	5576.6	
854.78	5111	
854.95	2760.7	
855.12	3459	
855.29	4074.1	
855.46	5386.2	
855.63	2811.2	
855.8	3760.1	
855.97	4530.1	
856.14	5162.2	
856.31	3806.5	
856.48	3042.6	
856.65	4624.3	
856.82	4383.3	
856.99	2695.8	
857.16	3047.4	
857.33	5763	
857.49	4652.3	
857.66	2981.2	
857.83	3228.3	
858	4649.6	
858.17	4778.6	
858.34	2696.5	
858.51	2817.3	
858.68	5347.9	
858.85	5385.5	
859.02	3223.5	
859.19	3398.9	
859.36	4388.8	
859.52	4394.9	
859.69	2785.2	
859.86	3238.5	
860.03	4399	
860.2	5377.3	
860.37	2624.1	
860.54	2833	
860.71	5070.1	
860.88	5315.8	
861.05	3149.1	
861.21	3434.4	
861.38	5298.8	
861.55	4252.9	
861.72	2581.8	
861.89	3087.7	
862.06	5071.5	
862.23	5431.9	
862.4	2652.8	
862.56	2962.7	
862.73	4955.4	
862.9	4741.7	
863.07	3206.4	
863.24	2585.9	
863.41	4294.6	
863.58	4422.2	
863.75	2808.4	
863.91	3192.8	
864.08	5218.2	
864.25	4992.3	
864.42	3384.6	
864.59	3855	
864.76	5488.6	
864.93	4406.5	
865.09	2719	
865.26	2977.1	
865.43	5261.2	
865.6	5559.6	
865.77	2497.2	
865.94	2764.1	
866.1	5264	
866.27	5044.8	
866.44	4005.8	
866.61	2716.3	
866.78	4700.1	
866.95	4977.9	
867.11	2713.6	
867.28	2499.9	
867.45	5158.8	
867.62	4339	
867.79	3358.7	
867.96	2760	
868.12	4329.4	
868.29	5063.3	
868.46	2824.8	
868.63	3678.2	
868.8	5146.5	
868.97	5006.6	
869.13	2940.2	
869.3	2943.6	
869.47	4896.7	
869.64	5066.7	
869.81	2818.7	
869.97	2863.1	
870.14	4931.5	
870.31	5347.2	
870.48	2777.7	
870.65	3477.5	
870.81	4649.6	
870.98	4650.9	
871.15	3087.7	
871.32	2926.5	
871.48	4977.2	
871.65	5398.4	
871.82	2759.3	
871.99	3093.1	
872.16	5736.4	
872.32	5247.6	
872.49	2917	
872.66	2833	
872.83	5079	
872.99	4532.2	
873.16	3213.3	
873.33	2755.2	
873.5	4715.8	
873.67	4786.1	
873.83	2959.3	
874	3663.8	
874.17	4861.2	
874.34	5522	
874.5	3545.7	
874.67	3398.9	
874.84	5272.2	
875.01	4204.5	
875.17	3806.5	
875.34	2704.7	
875.51	4837.3	
875.68	5719.3	
875.84	3296.5	
876.01	3966.9	
876.18	5071.5	
876.34	4946.5	
876.51	2822.8	
876.68	2738.1	
876.85	4672.8	
877.01	5236.7	
877.18	3867.2	
877.35	2777	
877.52	4814.8	
877.68	4397.7	
877.85	2749.1	
878.02	2761.3	
878.18	4662.5	
878.35	4561.5	
878.52	2291.7	
878.69	3095.2	
878.85	5105.6	
879.02	4943.1	
879.19	3792.2	
879.35	3007.1	
879.52	5014.1	
879.69	5063.9	
879.86	2460.3	
880.02	3097.9	
880.19	4727.4	
880.36	5538.4	
880.52	3164.1	
880.69	3270.6	
880.86	5108.3	
881.02	5062.6	
881.19	3080.1	
881.36	2977.7	
881.52	4991.6	
881.69	4475.5	
881.86	2976.4	
882.02	2923.8	
882.19	5241.4	
882.36	5991.7	
882.52	2868.5	
882.69	3818.8	
882.86	4865.3	
883.02	4790.2	
883.19	3267.2	
883.36	3146.4	
883.52	5097.4	
883.69	5684.5	
883.86	2811.9	
884.02	2581.1	
884.19	5021.6	
884.36	4795	
884.52	3140.9	
884.69	2951.8	
884.86	4545.1	
885.02	5467.4	
885.19	3099.9	
885.36	3195.5	
885.52	4698	
885.69	4836.6	
885.86	3918.4	
886.02	3504.1	
886.19	5047.6	
886.35	4683.7	
886.52	3024.8	
886.69	3773	
886.85	4389.5	
887.02	5259.2	
887.19	5259.2	
887.35	5259.2	
887.52	5259.2	
887.68	5259.2	
887.85	5259.2	
888.02	5259.2	
888.18	5259.2	
888.35	5259.2	
888.51	5259.2	
888.68	5259.2	
888.85	5259.2	
889.01	5259.2	
889.18	5259.2	
889.35	5259.2	
889.51	5259.2	
889.68	5259.2	
889.84	5259.2	
890.01	5259.2	
890.17	5259.2	
890.34	5259.2	
890.51	5259.2	
890.67	5259.2	
890.84	5259.2	
891	5259.2	
891.17	5259.2	
891.34	5259.2	
891.5	5259.2	
891.67	5259.2	
891.83	5259.2	
892	5259.2	
892.16	5259.2	
892.33	5259.2	
892.5	5259.2	
892.66	5259.2	
892.83	5259.2	
892.99	5259.2	
893.16	5259.2	
893.32	5259.2	
893.49	5259.2	
893.65	5259.2	
893.82	5259.2	
893.99	5259.2	
894.15	5259.2	
894.32	5259.2	
894.48	5259.2	
894.65	5259.2	
894.81	5259.2	
894.98	5259.2	
895.14	5259.2	
895.31	5259.2	
895.47	5259.2	
895.64	5259.2	
895.81	5259.2	
895.97	5259.2	
896.14	5259.2	
896.3	5259.2	
896.47	5259.2	
896.63	5259.2	
896.8	5259.2	
896.96	5259.2	
897.13	5259.2	
897.29	5259.2	
897.46	5259.2	
897.62	5259.2	
897.79	5259.2	
897.95	5259.2	
898.12	5259.2	
898.28	5259.2	
898.45	5259.2	
898.61	5259.2	
898.78	5259.2	
898.94	5259.2	
899.11	5259.2	
899.27	5259.2	
899.44	5259.2	
899.6	5259.2	
899.77	5259.2	
899.93	5259.2	
900.1	5259.2	
900.26	5259.2	
900.43	5259.2	
900.59	5259.2	
900.76	5259.2	
900.92	5259.2	
901.09	5259.2	
901.25	5259.2	
901.42	5259.2	
901.58	5259.2	
901.75	5259.2	
901.91	5259.2	
902.07	5259.2	
902.24	5259.2	
902.4	5259.2	
902.57	5259.2	
902.73	5259.2	
902.9	5259.2	
903.06	5259.2	
903.23	5259.2	
903.39	5259.2	
903.56	5259.2	
903.72	5259.2	
903.88	5259.2	
904.05	5259.2	
904.21	5259.2	
904.38	5259.2	
904.54	5259.2	
904.71	5259.2	
904.87	5259.2	
905.03	5259.2	
905.2	5259.2	
905.36	5259.2	
905.53	5259.2	
905.69	5259.2	
905.86	5259.2	
906.02	5259.2	
906.18	5259.2	
906.35	5259.2	
906.51	5259.2	
906.68	5259.2	
906.84	5259.2	
907.01	5259.2	
907.17	5259.2	
907.33	5259.2	
907.5	5259.2	
907.66	5259.2	
907.83	5259.2	
907.99	5259.2	
908.15	5259.2	
908.32	5259.2	
908.48	5259.2	
908.65	5259.2	
908.81	5259.2	
908.97	5259.2	
909.14	5259.2	
909.3	5259.2	
909.47	5259.2	
909.63	5259.2	
909.79	5259.2	
909.96	5259.2	
910.12	5259.2	
910.28	5259.2	
910.45	5259.2	
910.61	5259.2	
910.78	5259.2	
910.94	5259.2	
911.1	5259.2	
911.27	5259.2	
911.43	5259.2	
911.59	5259.2	
911.76	5259.2	
911.92	5259.2	
912.08	5259.2	
912.25	5259.2	
912.41	5259.2	
912.57	5259.2	
912.74	5259.2	
912.9	5259.2	
913.07	5259.2	
913.23	5259.2	
913.39	5259.2	
913.56	5259.2	
913.72	5259.2	
913.88	5259.2	
914.05	5259.2	
914.21	5259.2	
914.37	5259.2	
914.54	5259.2	
914.7	5259.2	
914.86	5259.2	
915.03	5259.2	
915.19	5259.2	
