Wavelength	Intensities	
nm	a.u.	
179.22	1943.2	
179.44	1938.7	
179.65	1947.6	
179.86	1929.9	
180.08	1931.2	
180.29	5097.4	
180.51	3547.8	
180.72	5693.4	
180.94	6701.6	
181.15	3293.1	
181.37	3173.7	
181.58	5542.5	
181.79	5913.9	
182.01	3450.1	
182.22	3697.9	
182.44	5859.9	
182.65	4863.9	
182.87	4670.7	
183.08	4106.9	
183.29	6176.7	
183.51	4992.9	
183.72	3692.5	
183.94	5479	
184.15	5461.9	
184.37	5527.5	
184.58	3273.3	
184.79	4527.4	
185.01	5096	
185.22	5913.9	
185.44	4854.4	
185.65	4009.9	
185.86	5311.1	
186.08	4967.7	
186.29	3173	
186.51	3368.9	
186.72	5119.9	
186.94	5992.4	
187.15	3946.4	
187.36	4141	
187.58	7925.6	
187.79	5614.2	
188.01	4304.8	
188.22	6735.8	
188.43	6703.7	
188.65	5865.4	
188.86	3378.5	
189.08	4101.4	
189.29	5270.1	
189.5	5242.8	
189.72	3797.6	
189.93	3915.7	
190.15	6027.2	
190.36	7256	
190.57	4221.5	
190.79	4061.1	
191	6159.6	
191.22	6145.3	
191.43	4190.1	
191.64	3442	
191.86	6411.5	
192.07	6105.7	
192.29	3661.8	
192.5	3774.4	
192.71	6049.7	
192.93	5160.9	
193.14	3777.1	
193.35	3907.5	
193.57	5212.8	
193.78	6090	
194	3044	
194.21	3679.5	
194.42	5024.3	
194.64	5493.3	
194.85	4137.6	
195.07	4792.9	
195.28	5584.8	
195.49	4787.5	
195.71	5065.3	
195.92	3562.1	
196.13	5746.6	
196.35	5786.9	
196.56	5442.1	
196.78	4064.5	
196.99	7182.2	
197.2	6806.8	
197.42	4728.1	
197.63	4139.6	
197.84	4843.4	
198.06	5737.7	
198.27	3807.9	
198.48	5079	
198.7	5292	
198.91	5376.6	
199.13	4117.8	
199.34	4093.2	
199.55	5941.2	
199.77	4724.7	
199.98	3651.5	
200.19	4199	
200.41	5419.6	
200.62	5096.7	
200.83	4327.4	
201.05	4623.6	
201.26	5420.3	
201.47	5151.3	
201.69	3657	
201.9	3520.5	
202.11	5484.5	
202.33	6503.7	
202.54	3919.8	
202.76	4345.8	
202.97	5582.8	
203.18	5640.1	
203.4	4349.2	
203.61	4230.4	
203.82	5542.5	
204.04	5144.5	
204.25	4247.5	
204.46	4050.9	
204.68	5560.2	
204.89	5752.1	
205.1	4089.8	
205.32	3465.8	
205.53	5970.5	
205.74	6098.9	
205.96	2952.5	
206.17	4272.1	
206.38	5905	
206.6	6033.3	
206.81	4694.6	
207.02	3926.6	
207.24	5775.3	
207.45	6199.2	
207.66	3962.1	
207.88	3373	
208.09	5694.7	
208.3	5482.4	
208.52	3629.7	
208.73	4086.4	
208.94	5520	
209.15	6234.7	
209.37	3933.5	
209.58	4136.9	
209.79	6080.4	
210.01	5296	
210.22	3178.4	
210.43	3244.7	
210.65	5541.8	
210.86	5952.8	
211.07	3962.1	
211.29	3609.9	
211.5	5872.2	
211.71	5407.3	
211.93	3635.8	
212.14	3610.6	
212.35	5427.8	
212.56	5722.7	
212.78	4185.4	
212.99	3446.7	
213.2	6556.9	
213.42	5264	
213.63	3761.4	
213.84	4076.1	
214.06	4857.8	
214.27	4972.5	
214.48	3979.9	
214.69	4240	
214.91	6161.7	
215.12	6293.4	
215.33	4293.9	
215.55	4737	
215.76	6810.9	
215.97	5899.5	
216.18	4110.3	
216.4	3981.9	
216.61	5158.8	
216.82	5944.6	
217.04	3642.7	
217.25	3826.3	
217.46	6163	
217.67	5963.7	
217.89	3257.6	
218.1	3392.8	
218.31	5609.4	
218.53	5665.4	
218.74	3828.3	
218.95	3649.5	
219.16	5410.1	
219.38	6380.1	
219.59	3736.9	
219.8	4394.9	
220.01	7137.9	
220.23	5444.9	
220.44	4859.8	
220.65	3551.9	
220.87	5546.6	
221.08	6164.4	
221.29	3338.2	
221.5	4500.8	
221.72	7525.6	
221.93	5272.8	
222.14	4265.9	
222.35	4881.7	
222.57	5584.1	
222.78	5881.8	
222.99	3960.8	
223.2	4263.9	
223.42	5844.9	
223.63	6003.3	
223.84	2996.9	
224.05	3045.3	
224.27	7055.9	
224.48	6449.1	
224.69	5001.8	
224.9	4235.9	
225.12	5677.7	
225.33	5403.9	
225.54	3343	
225.75	3741.6	
225.97	5044.8	
226.18	5341.1	
226.39	4016.7	
226.6	3734.1	
226.82	5276.3	
227.03	5105.6	
227.24	4186.7	
227.45	3438.5	
227.67	5885.9	
227.88	6505.7	
228.09	4722.6	
228.3	4640	
228.52	5920.7	
228.73	5444.9	
228.94	3865.9	
229.15	3442.6	
229.36	5393.7	
229.58	5291.3	
229.79	3908.9	
230	4534.9	
230.21	6599.9	
230.43	5605.3	
230.64	4162.2	
230.85	4355.3	
231.06	5941.8	
231.28	5911.8	
231.49	3391.4	
231.7	4043.4	
231.91	5803.9	
232.12	5558.2	
232.34	3538.9	
232.55	4004.5	
232.76	6135.7	
232.97	5668.8	
233.18	3689.1	
233.4	4138.9	
233.61	5724.8	
233.82	5307.7	
234.03	3848.8	
234.25	3737.5	
234.46	7713.3	
234.67	5585.5	
234.88	4239.3	
235.09	3735.5	
235.31	5808	
235.52	5405.3	
235.73	4114.4	
235.94	3420.1	
236.15	5157.5	
236.37	6763.1	
236.58	3646.1	
236.79	3997.6	
237	5803.9	
237.21	5005.9	
237.43	4231.8	
237.64	3369.6	
237.85	10137	
238.06	5071.5	
238.27	4410.6	
238.48	3469.9	
238.7	5847	
238.91	5356.8	
239.12	3947.8	
239.33	4001.7	
239.54	5066.7	
239.76	5413.5	
239.97	3940.3	
240.18	4005.8	
240.39	6881.2	
240.6	5822.4	
240.82	4115.1	
241.03	3377.1	
241.24	5526.8	
241.45	6365.1	
241.66	3625.6	
241.87	4317.1	
242.09	6285.9	
242.3	6676.4	
242.51	4372.4	
242.72	3999.7	
242.93	6049.7	
243.14	5420.3	
243.36	4607.9	
243.57	4984.1	
243.78	6389	
243.99	5907	
244.2	3971	
244.41	3685.7	
244.63	5002.5	
244.84	5828.5	
245.05	4362.9	
245.26	3958	
245.47	5816.2	
245.68	6092	
245.9	5300.8	
246.11	4209.9	
246.32	5357.5	
246.53	5801.9	
246.74	6480.5	
246.95	3334.1	
247.16	4965	
247.38	5459.2	
247.59	3323.2	
247.8	4007.9	
248.01	5117.9	
248.22	5393.7	
248.43	3646.7	
248.64	3860.4	
248.86	4857.1	
249.07	5201.8	
249.28	3489.7	
249.49	4097.3	
249.7	6024.4	
249.91	6217	
250.12	3298.6	
250.34	3381.2	
250.55	5606.7	
250.76	5571.8	
250.97	4127.3	
251.18	4195.6	
251.39	6200.6	
251.6	5674.9	
251.81	4213.4	
252.03	4227	
252.24	5227.1	
252.45	6075	
252.66	3453.6	
252.87	4482.3	
253.08	5562.3	
253.29	7268.9	
253.5	3521.8	
253.72	4848.2	
253.93	5362.9	
254.14	6522.8	
254.35	3741.6	
254.56	3886.4	
254.77	5765	
254.98	5107	
255.19	3723.2	
255.41	4827.1	
255.62	5660.6	
255.83	6177.4	
256.04	4282.3	
256.25	4114.4	
256.46	6754.2	
256.67	5160.2	
256.88	4065.9	
257.09	4580.6	
257.31	5124	
257.52	5163.6	
257.73	5167.7	
257.94	3734.8	
258.15	5319.9	
258.36	5509.7	
258.57	4749.2	
258.78	2968.9	
258.99	6017.6	
259.2	5309	
259.41	3807.9	
259.63	3938.2	
259.84	6371.9	
260.05	6840.9	
260.26	5029.8	
260.47	3710.9	
260.68	6149.4	
260.89	5449	
261.1	4585.4	
261.31	3629.7	
261.52	6093.4	
261.73	6438.8	
261.95	4909	
262.16	4334.9	
262.37	6290.7	
262.58	6350.1	
262.79	4847.5	
263	3844	
263.21	5481.7	
263.42	5008.6	
263.63	3914.4	
263.84	3837.2	
264.05	6123.4	
264.26	6559.6	
264.47	4822.3	
264.69	4299.4	
264.9	6232.7	
265.11	5717.2	
265.32	3685.7	
265.53	3786.7	
265.74	5641.5	
265.95	4889.2	
266.16	4095.9	
266.37	4538.3	
266.58	5617.6	
266.79	5345.2	
267	3789.4	
267.21	3444.7	
267.42	5059.2	
267.63	5476.3	
267.84	3971.7	
268.06	3437.9	
268.27	5996.5	
268.48	6299.6	
268.69	3898.6	
268.9	4617.5	
269.11	6249.7	
269.32	4994.3	
269.53	3976.5	
269.74	3652.2	
269.95	5827.8	
270.16	4825	
270.37	3979.9	
270.58	4610.7	
270.79	5319.3	
271	6065.4	
271.21	4253.6	
271.42	4055.7	
271.63	5617.6	
271.84	5134.3	
272.05	3159.3	
272.26	3570.3	
272.47	5568.4	
272.68	5771.9	
272.89	3801.7	
273.11	4448.2	
273.32	5293.3	
273.53	6502.3	
273.74	4296.6	
273.95	4235.9	
274.16	6143.2	
274.37	5608	
274.58	4435.2	
274.79	3472	
275	5606.7	
275.21	6246.3	
275.42	5341.8	
275.63	4584	
275.84	5715.2	
276.05	7284.6	
276.26	4186.7	
276.47	3934.8	
276.68	5313.8	
276.89	6574.7	
277.1	4526	
277.31	3525.2	
277.52	5803.9	
277.73	5941.2	
277.94	3444.7	
278.15	3857.7	
278.36	5661.3	
278.57	5172.5	
278.78	3878.9	
278.99	4345.8	
279.2	5149.3	
279.41	5066	
279.62	5050.3	
279.83	3499.3	
280.04	6778.8	
280.25	5040.1	
280.46	5028.4	
280.67	4016.7	
280.88	5145.2	
281.09	6204.7	
281.3	4207.2	
281.51	5323.4	
281.72	5189.6	
281.93	6122.1	
282.14	3690.4	
282.35	4030.4	
282.56	6062	
282.77	5987.6	
282.98	3848.8	
283.19	4704.9	
283.4	7367.2	
283.61	5440.8	
283.82	3431	
284.03	4952	
284.24	5625.1	
284.45	6193.1	
284.66	4924.7	
284.87	4786.8	
285.08	6095.4	
285.29	6221.7	
285.5	3358.7	
285.71	3880.2	
285.92	6158.2	
286.12	6906.4	
286.33	4952	
286.54	3836.5	
286.75	6044.9	
286.96	5443.5	
287.17	3485.6	
287.38	4902.8	
287.59	5127.4	
287.8	5063.3	
288.01	3960.8	
288.22	4497.3	
288.43	6137.1	
288.64	5038	
288.85	4698	
289.06	4432.5	
289.27	6318	
289.48	6522.1	
289.69	4884.4	
289.9	4503.5	
290.11	6194.4	
290.32	5216.2	
290.53	4714.4	
290.74	4337.6	
290.94	5981.4	
291.15	6010.8	
291.36	3792.8	
291.57	4489.8	
291.78	5220.3	
291.99	4948.6	
292.2	3502.7	
292.41	4336.9	
292.62	6093.4	
292.83	5815.5	
293.04	5342.5	
293.25	3636.5	
293.46	5319.3	
293.67	6135.7	
293.88	3762.1	
294.09	3627	
294.29	5035.3	
294.5	5663.3	
294.71	4023.6	
294.92	3835.8	
295.13	5279	
295.34	6649.8	
295.55	3324.5	
295.76	3427.6	
295.97	5926.8	
296.18	6795.8	
296.39	3534.1	
296.6	3744.4	
296.81	5592.3	
297.01	5977.3	
297.22	3895.9	
297.43	3692.5	
297.64	5184.1	
297.85	5175.2	
298.06	3061	
298.27	3348.4	
298.48	5563	
298.69	5238.7	
298.9	4013.3	
299.11	3712.3	
299.31	5020.9	
299.52	5006.6	
299.73	4356	
299.94	4262.5	
300.15	5449.6	
300.36	5118.6	
300.57	4248.2	
300.78	4228.4	
300.99	5391.6	
301.2	5613.5	
301.4	3648.8	
301.61	4103.4	
301.82	5830.6	
302.03	5926.1	
302.24	4514.4	
302.45	3604.4	
302.66	5848.3	
302.87	6297.5	
303.08	3745.1	
303.29	5093.3	
303.49	5218.9	
303.7	5524.1	
303.91	3277.4	
304.12	4968.4	
304.33	5074.9	
304.54	5653.1	
304.75	3786.7	
304.96	3549.8	
305.16	5839.4	
305.37	6653.2	
305.58	3274.7	
305.79	3418.7	
306	5855.8	
306.21	4838.7	
306.42	3697.9	
306.63	5809.4	
306.83	5378.6	
307.04	6206.7	
307.25	4112.3	
307.46	4132.1	
307.67	4666.6	
307.88	5934.3	
308.09	3654.9	
308.29	3816	
308.5	5571.8	
308.71	6205.3	
308.92	4010.6	
309.13	3677.5	
309.34	5364.3	
309.55	5456.5	
309.75	4659.8	
309.96	4337.6	
310.17	5975.3	
310.38	5228.5	
310.59	4517.1	
310.8	4301.4	
311.01	5362.9	
311.21	5400.5	
311.42	3534.8	
311.63	3658.4	
311.84	5307	
312.05	5653.1	
312.26	4197	
312.46	4582	
312.67	5314.5	
312.88	5020.3	
313.09	3663.1	
313.3	3564.1	
313.51	6374.6	
313.71	6720.1	
313.92	3592.8	
314.13	3820.8	
314.34	5697.4	
314.55	5365.7	
314.76	4657.8	
314.96	4016.7	
315.17	5653.8	
315.38	5964.4	
315.59	3611.9	
315.8	3426.3	
316.01	6496.2	
316.21	6505	
316.42	3439.9	
316.63	3949.8	
316.84	5360.2	
317.05	6253.8	
317.26	4321.9	
317.46	3871.3	
317.67	5466.7	
317.88	5946.6	
318.09	4619.5	
318.3	3325.9	
318.5	5221.6	
318.71	5838.1	
318.92	5904.3	
319.13	4258.4	
319.34	6082.5	
319.54	6206.7	
319.75	3372.3	
319.96	3211.9	
320.17	5911.1	
320.38	6131.6	
320.58	3321.8	
320.79	3963.5	
321	6138.4	
321.21	6172.6	
321.42	3981.9	
321.62	3302	
321.83	5087.2	
322.04	5520.6	
322.25	3830.4	
322.46	3614	
322.66	5730.9	
322.87	5816.2	
323.08	4593.6	
323.29	3539.6	
323.5	6639.5	
323.7	5074.9	
323.91	5014.1	
324.12	4471.4	
324.33	5599.8	
324.53	5835.3	
324.74	4305.5	
324.95	4500.8	
325.16	4851	
325.37	5321.3	
325.57	3644	
325.78	3691.8	
325.99	5588.9	
326.2	4983.4	
326.4	5311.7	
326.61	3369.6	
326.82	5436	
327.03	5681.7	
327.24	5137.7	
327.44	4967	
327.65	5761.6	
327.86	4666	
328.07	4291.2	
328.27	3474.7	
328.48	6225.8	
328.69	5091.9	
328.9	5234.6	
329.1	3880.9	
329.31	5418.9	
329.52	6399.2	
329.73	3601.7	
329.93	4132.8	
330.14	5536.3	
330.35	5752.7	
330.56	6029.9	
330.76	4451.6	
330.97	5408	
331.18	5750	
331.39	4017.4	
331.59	3224.9	
331.8	6136.4	
332.01	6236.7	
332.22	3727.3	
332.42	4248.2	
332.63	5658.5	
332.84	5244.2	
333.05	4083.6	
333.25	3681.6	
333.46	5302.2	
333.67	5591.6	
333.88	3773.7	
334.08	4198.3	
334.29	7430.7	
334.5	6178	
334.7	3557.3	
334.91	5208	
335.12	5057.8	
335.33	6012.8	
335.53	4040	
335.74	5962.3	
335.95	5302.2	
336.16	5125.4	
336.36	4119.8	
336.57	4703.5	
336.78	5033.9	
336.98	6199.2	
337.19	4985.4	
337.4	3956	
337.61	6631.3	
337.81	5075.5	
338.02	3706.8	
338.23	4857.8	
338.43	6305	
338.64	5179.3	
338.85	3614	
339.05	4745.1	
339.26	6419.7	
339.47	4967.7	
339.68	3600.3	
339.88	5473.5	
340.09	5772.5	
340.3	6010.1	
340.5	4236.6	
340.71	3229	
340.92	4947.9	
341.13	6333	
341.33	3566.9	
341.54	4303.5	
341.75	5723.4	
341.95	5354.1	
342.16	4042	
342.37	4464.6	
342.57	5116.5	
342.78	5489.2	
342.99	4491.2	
343.19	3209.2	
343.4	5932.3	
343.61	5831.9	
343.81	3928	
344.02	3521.1	
344.23	5961.6	
344.43	6378.1	
344.64	4485.1	
344.85	4414.1	
345.06	5720.7	
345.26	6162.3	
345.47	4184.7	
345.68	4866	
345.88	4861.9	
346.09	6007.4	
346.3	4281.6	
346.5	3224.9	
346.71	5519.3	
346.92	5244.8	
347.12	3306.1	
347.33	4222.2	
347.54	6126.2	
347.74	6506.4	
347.95	4184.7	
348.16	3139.5	
348.36	5246.9	
348.57	5131.5	
348.78	4083.6	
348.98	4487.1	
349.19	5458.5	
349.39	5008	
349.6	3321.8	
349.81	3692.5	
350.01	5817.6	
350.22	5244.8	
350.43	4057	
350.63	4817.5	
350.84	5616.9	
351.05	5343.8	
351.25	3660.4	
351.46	3297.2	
351.67	6126.2	
351.87	5176.6	
352.08	3848.8	
352.29	4486.4	
352.49	6001.2	
352.7	5623.7	
352.9	3549.8	
353.11	4458.4	
353.32	6691.4	
353.52	5356.8	
353.73	3461.7	
353.94	4487.8	
354.14	5833.3	
354.35	5664	
354.55	3565.5	
354.76	3991.5	
354.97	5771.9	
355.17	5540.4	
355.38	3371	
355.59	4782	
355.79	5144.5	
356	5635.3	
356.2	3936.9	
356.41	3485.6	
356.62	4937	
356.82	5415.5	
357.03	4301.4	
357.24	3870	
357.44	5230.5	
357.65	5371.8	
357.85	5170.4	
358.06	4010.6	
358.27	4918.5	
358.47	5194.3	
358.68	3379.8	
358.88	4207.9	
359.09	5774.6	
359.3	6154.8	
359.5	4990.2	
359.71	4401.8	
359.91	6656.6	
360.12	5965.1	
360.33	4226.3	
360.53	4676.9	
360.74	5192.3	
360.94	5243.5	
361.15	4496.7	
361.36	3686.3	
361.56	6073.6	
361.77	5459.2	
361.97	4974.5	
362.18	3889.8	
362.38	6031.3	
362.59	5067.4	
362.8	3574.4	
363	3497.9	
363.21	4823	
363.41	5570.5	
363.62	4092.5	
363.83	5238.7	
364.03	5590.3	
364.24	6707.1	
364.44	5343.2	
364.65	5371.1	
364.85	5330.9	
365.06	5003.2	
365.27	3760.1	
365.47	3787.4	
365.68	6379.4	
365.88	5337.7	
366.09	4202.4	
366.29	3870	
366.5	5591.6	
366.71	6104.3	
366.91	5171.1	
367.12	4312.3	
367.32	6617	
367.53	5901.6	
367.73	4297.3	
367.94	5295.4	
368.14	5826.5	
368.35	6850.5	
368.56	4251.6	
368.76	3629	
368.97	5944.6	
369.17	7785.7	
369.38	3743.7	
369.58	3979.2	
369.79	5001.8	
369.99	6300.9	
370.2	5071.5	
370.4	4194.2	
370.61	5732.9	
370.82	6911.2	
371.02	4008.6	
371.23	3336.1	
371.43	4827.1	
371.64	6274.3	
371.84	4046.8	
372.05	5244.2	
372.25	7664.2	
372.46	6057.2	
372.66	4042	
372.87	3949.8	
373.07	5995.8	
373.28	7751.6	
373.48	5104.2	
373.69	4765.6	
373.9	5466	
374.1	5496.1	
374.31	5036	
374.51	4466.6	
374.72	6347.3	
374.92	5124.7	
375.13	5219.6	
375.33	4316.4	
375.54	5829.2	
375.74	5283.8	
375.95	4450.2	
376.15	5714.5	
376.36	5915.2	
376.56	5716.6	
376.77	4453	
376.97	4965	
377.18	6982.9	
377.38	5945.9	
377.59	5289.9	
377.79	3956	
378	5773.2	
378.2	6192.4	
378.41	4041.3	
378.61	3906.2	
378.82	6250.4	
379.02	5311.1	
379.23	4119.8	
379.43	5387.5	
379.64	6312.5	
379.84	5883.1	
380.05	3991.5	
380.25	3911.6	
380.46	6053.1	
380.66	5597.1	
380.87	5364.3	
381.07	5784.8	
381.28	6663.4	
381.48	6022.4	
381.69	3976.5	
381.89	4016.7	
382.1	4947.9	
382.3	6212.2	
382.51	5272.2	
382.71	6122.1	
382.91	6059.3	
383.12	6587	
383.32	4390.2	
383.53	4635.9	
383.73	5901.6	
383.94	5709.7	
384.14	4517.1	
384.35	3644	
384.55	5614.2	
384.76	6097.5	
384.96	4371.7	
385.17	4718.5	
385.37	6062	
385.58	5232.6	
385.78	4803.9	
385.98	3604.4	
386.19	5500.2	
386.39	5892.7	
386.6	4126	
386.8	4434.5	
387.01	6017.6	
387.21	6003.3	
387.42	4830.5	
387.62	5473.5	
387.83	5335	
388.03	6005.3	
388.23	4390.8	
388.44	5298.1	
388.64	4992.3	
388.85	5195.7	
389.05	4832.5	
389.26	5487.2	
389.46	7047.7	
389.67	6483.9	
389.87	4786.8	
390.07	4837.3	
390.28	5670.1	
390.48	5259.2	
390.69	4033.8	
390.89	4368.3	
391.1	5440.8	
391.3	6372.6	
391.5	5554.8	
391.71	6173.9	
391.91	6092.7	
392.12	7214.3	
392.32	5586.2	
392.53	4845.5	
392.73	5471.5	
392.93	5763.7	
393.14	4437.9	
393.34	5300.8	
393.55	6207.4	
393.75	5653.8	
393.95	4508.3	
394.16	4418.2	
394.36	5457.2	
394.57	6145.3	
394.77	3942.3	
394.98	4418.8	
395.18	5378.6	
395.38	5449.6	
395.59	5295.4	
395.79	4118.5	
396	5476.3	
396.2	5937.7	
396.4	5036.6	
396.61	4936.3	
396.81	6234.7	
397.02	5453.7	
397.22	5323.4	
397.42	5391.6	
397.63	6167.1	
397.83	5360.9	
398.04	4136.9	
398.24	4617.5	
398.44	5966.4	
398.65	5001.1	
398.85	3911.6	
399.05	4105.5	
399.26	5330.2	
399.46	7155.6	
399.67	4430.4	
399.87	4184	
400.07	5812.8	
400.28	6064.7	
400.48	4255	
400.69	5411.4	
400.89	6237.4	
401.09	6747.4	
401.3	4147.1	
401.5	5424.4	
401.7	7027.3	
401.91	7339.9	
402.11	4547.2	
402.32	4790.9	
402.52	6383.5	
402.72	6215.6	
402.93	5015.5	
403.13	3777.8	
403.33	7086.7	
403.54	5787.6	
403.74	4724	
403.94	5663.3	
404.15	5785.5	
404.35	7055.3	
404.56	4447.5	
404.76	6458.6	
404.96	6376.7	
405.17	6113.9	
405.37	5780.7	
405.57	4933.6	
405.78	6410.8	
405.98	5855.1	
406.18	4432.5	
406.39	5458.5	
406.59	6367.1	
406.79	5924.1	
407	4270.7	
407.2	4418.8	
407.4	6341.2	
407.61	6542.6	
407.81	4399.7	
408.01	6566.5	
408.22	5373.9	
408.42	7343.3	
408.62	5458.5	
408.83	4898.7	
409.03	5911.8	
409.23	5704.3	
409.44	4995.7	
409.64	5320.6	
409.84	6909.2	
410.05	6753.5	
410.25	5052.3	
410.45	4893.3	
410.66	6071.5	
410.86	8792.6	
411.06	5345.2	
411.27	5164.3	
411.47	8518.2	
411.67	6347.3	
411.88	5359.5	
412.08	5694	
412.28	7100.3	
412.49	7576.8	
412.69	5205.3	
412.89	5170.4	
413.09	7397.9	
413.3	7212.3	
413.5	5310.4	
413.7	4863.2	
413.91	6482.5	
414.11	7318.1	
414.31	5188.9	
414.52	5534.3	
414.72	6961	
414.92	6927.6	
415.12	5091.9	
415.33	5739.8	
415.53	7364.5	
415.73	7554.3	
415.94	5991.7	
416.14	5429.2	
416.34	6311.8	
416.55	6084.5	
416.75	6693.4	
416.95	6098.2	
417.15	7338.6	
417.36	8097.7	
417.56	6885.3	
417.76	5870.8	
417.97	7675.8	
418.17	7407.5	
418.37	5438.7	
418.57	5559.6	
418.78	7116	
418.98	6784.2	
419.18	6459.3	
419.38	6312.5	
419.59	6842.3	
419.79	6477	
419.99	5373.9	
420.2	5831.9	
420.4	7393.8	
420.6	7572	
420.8	5317.9	
421.01	5242.1	
421.21	7188.4	
421.41	7430	
421.61	5754.1	
421.82	5486.5	
422.02	6629.3	
422.22	7690.1	
422.42	6255.9	
422.63	5881.1	
422.83	6825.9	
423.03	7998	
423.23	5946.6	
423.44	4881.7	
423.64	6878.4	
423.84	6580.1	
424.04	5348.6	
424.25	4969.7	
424.45	7885.4	
424.65	7828	
424.85	4762.9	
425.06	5406.6	
425.26	7729.7	
425.46	6316.6	
425.66	5887.9	
425.87	5568.4	
426.07	7575.4	
426.27	7484	
426.47	5760.9	
426.67	5063.9	
426.88	7952.3	
427.08	7359	
427.28	5997.1	
427.48	5006.6	
427.69	6210.1	
427.89	6965.8	
428.09	5960.3	
428.29	5121.3	
428.5	7603.4	
428.7	7137.2	
428.9	4908.3	
429.1	5547.3	
429.3	7005.4	
429.51	7551.5	
429.71	5254.4	
429.91	6098.2	
430.11	7357.7	
430.31	7513.3	
430.52	5519.3	
430.72	5849.7	
430.92	7980.9	
431.12	7335.1	
431.32	5233.9	
431.53	5700.9	
431.73	6238.1	
431.93	8102.4	
432.13	5177.9	
432.33	5098.8	
432.54	6756.9	
432.74	7172.7	
432.94	4971.8	
433.14	6146	
433.34	7251.9	
433.55	6724.8	
433.75	6006.7	
433.95	7854	
434.15	7086.7	
434.35	6754.9	
434.56	5160.2	
434.76	4590.9	
434.96	7021.1	
435.16	7419.8	
435.36	5023.7	
435.56	6264.7	
435.77	6696.2	
435.97	6878.4	
436.17	6976.7	
436.37	6148	
436.57	6773.3	
436.78	6597.2	
436.98	8073.8	
437.18	6766.5	
437.38	7330.4	
437.58	6868.9	
437.78	6957.6	
437.99	5475.6	
438.19	7460.1	
438.39	8193.2	
438.59	5436.7	
438.79	4915.1	
438.99	8127.7	
439.2	6882.5	
439.4	5009.3	
439.6	5081.7	
439.8	7214.3	
440	8319.5	
440.2	6096.1	
440.4	6226.5	
440.61	7655.3	
440.81	8219.9	
441.01	5226.4	
441.21	6242.9	
441.41	7996.6	
441.61	7636.9	
441.81	6468.2	
442.02	7583.6	
442.22	8574.2	
442.42	7753.6	
442.62	5300.8	
442.82	5393	
443.02	8089.5	
443.22	7191.8	
443.43	5810.1	
443.63	5315.8	
443.83	6866.2	
444.03	7073.7	
444.23	6634.7	
444.43	6178.7	
444.63	7230	
444.83	8606.9	
445.04	5465.3	
445.24	6845.7	
445.44	7646.4	
445.64	7764.5	
445.84	6322.8	
446.04	6280.4	
446.24	7002.7	
446.44	8066.3	
446.65	5418.9	
446.85	5954.1	
447.05	7184.3	
447.25	8017.1	
447.45	5984.8	
447.65	5259.9	
447.85	7397.3	
448.05	6993.8	
448.25	6390.3	
448.46	6201.9	
448.66	7326.9	
448.86	7006.8	
449.06	5152	
449.26	6296.8	
449.46	7707.2	
449.66	6723.5	
449.86	5902.9	
450.06	5887.9	
450.26	6963.1	
450.47	7486	
450.67	6135	
450.87	6531.7	
451.07	7620.5	
451.27	7395.9	
451.47	5346.6	
451.67	5968.5	
451.87	7009.5	
452.07	8295	
452.27	5717.9	
452.47	5632.6	
452.67	7387	
452.88	8039	
453.08	5002.5	
453.28	7100.3	
453.48	8613.1	
453.68	7268.9	
453.88	5528.2	
454.08	5795.8	
454.28	7655.3	
454.48	7377.5	
454.68	6376.7	
454.88	6903.7	
455.08	7815.7	
455.28	7572	
455.48	5449	
455.68	6081.8	
455.89	8348.9	
456.09	8036.9	
456.29	5744.6	
456.49	5806	
456.69	8179.6	
456.89	7438.2	
457.09	6374.6	
457.29	6781.5	
457.49	7783.6	
457.69	7903.8	
457.89	6217.6	
458.09	5592.3	
458.29	7507.2	
458.49	8260.8	
458.69	6644.3	
458.89	6010.8	
459.09	8558.5	
459.29	8600.1	
459.49	6093.4	
459.69	7025.2	
459.9	8077.2	
460.1	7574.1	
460.3	6000.5	
460.5	5831.9	
460.7	7925.6	
460.9	7783	
461.1	5412.1	
461.3	6801.3	
461.5	8675.9	
461.7	8246.5	
461.9	5866.7	
462.1	6374	
462.3	7758.4	
462.5	8343.4	
462.7	6007.4	
462.9	6101.6	
463.1	9438.4	
463.3	9235	
463.5	6305.7	
463.7	7190.4	
463.9	8025.3	
464.1	8366.6	
464.3	6432	
464.5	6660.7	
464.7	8667.7	
464.9	8313.4	
465.1	8026.7	
465.3	7101.7	
465.5	8974.9	
465.7	8956.4	
465.9	7225.9	
466.1	7130.3	
466.3	8795.3	
466.5	8546.9	
466.7	8091.5	
466.9	6866.2	
467.1	8481.3	
467.3	9635.7	
467.5	7989.1	
467.7	6767.2	
467.9	9821.4	
468.1	10700	
468.3	7577.5	
468.5	8102.4	
468.7	8495	
468.9	8529.1	
469.1	7160.4	
469.3	7900.4	
469.5	10613	
469.7	8121.6	
469.9	7612.3	
470.1	6768.5	
470.3	8555	
470.5	8480.6	
470.7	8164.6	
470.9	6997.9	
471.1	8286.8	
471.3	8779.6	
471.5	6841.6	
471.69	8766	
471.89	8174.1	
472.09	7743.4	
472.29	7613.7	
472.49	7957	
472.69	7958.4	
472.89	8796.7	
473.09	6617.7	
473.29	6793.8	
473.49	8036.2	
473.69	8311.3	
473.89	7821.9	
474.09	6967.9	
474.29	9641.8	
474.49	9248.6	
474.69	7816.4	
474.89	7160.4	
475.09	8296.3	
475.29	8190.5	
475.49	6437.4	
475.69	6797.9	
475.88	10040	
476.08	8532.5	
476.28	6440.2	
476.48	6965.1	
476.68	9070.5	
476.88	8948.9	
477.08	6776	
477.28	7055.9	
477.48	8339.3	
477.68	9064.3	
477.88	6528.9	
478.08	6850.5	
478.28	9365.4	
478.48	8569.4	
478.67	6915.3	
478.87	6365.8	
479.07	9222.7	
479.27	8570.7	
479.47	7193.1	
479.67	7178.1	
479.87	8994.7	
480.07	9598.8	
480.27	6365.1	
480.47	8172.8	
480.67	8708	
480.87	9342.8	
481.06	6737.1	
481.26	7598.6	
481.46	8523.6	
481.66	8594.6	
481.86	7162.4	
482.06	8283.4	
482.26	8388.5	
482.46	9264.3	
482.66	7125.6	
482.86	6736.5	
483.05	8647.2	
483.25	8088.8	
483.45	9807.7	
483.65	7133.1	
483.85	8226	
484.05	8439.7	
484.25	7573.4	
484.45	8090.8	
484.65	9482.8	
484.84	9435	
485.04	7086.7	
485.24	7111.2	
485.44	9686.2	
485.64	7993.9	
485.84	6335	
486.04	7856.7	
486.24	8372.1	
486.44	8804.2	
486.63	6208.8	
486.83	7198.6	
487.03	8299.7	
487.23	8469.7	
487.43	6435.4	
487.63	8928.5	
487.83	8609.7	
488.02	9578.3	
488.22	7524.2	
488.42	8135.2	
488.62	9555.1	
488.82	8325.7	
489.02	7030.7	
489.22	7156.3	
489.41	9405.6	
489.61	8997.4	
489.81	6803.4	
490.01	6928.3	
490.21	9246.6	
490.41	9923.8	
490.61	6760.3	
490.8	6887.3	
491	8741.4	
491.2	7998	
491.4	7540.6	
491.6	6647	
491.8	8738	
491.99	8977.6	
492.19	6394.4	
492.39	6934.4	
492.59	9275.9	
492.79	9306	
492.99	7817.1	
493.18	6885.3	
493.38	9392	
493.58	10230	
493.78	7597.3	
493.98	7174	
494.18	9071.8	
494.37	8604.9	
494.57	7800	
494.77	7745.4	
494.97	9355.8	
495.17	9665	
495.37	7290.8	
495.56	7647.8	
495.76	9841.2	
495.96	9322.4	
496.16	8625.4	
496.36	7378.8	
496.55	9774.3	
496.75	9187.2	
496.95	7895.6	
497.15	7697.6	
497.35	9622.7	
497.54	9644.6	
497.74	7512.6	
497.94	9111.4	
498.14	10360	
498.34	10231	
498.53	7209.5	
498.73	7988.4	
498.93	9048.6	
499.13	9566.7	
499.33	7854.6	
499.52	8389.2	
499.72	9527.8	
499.92	9960.6	
500.12	7494.9	
500.32	7843.7	
500.51	9893.1	
500.71	9508.7	
500.91	8609.7	
501.11	8198.7	
501.31	9770.9	
501.5	10247	
501.7	8934.6	
501.9	7849.2	
502.1	9507.4	
502.29	9966.1	
502.49	8340	
502.69	8811	
502.89	9809.8	
503.09	9790.7	
503.28	7228	
503.48	7346.7	
503.68	8862.9	
503.88	9019.9	
504.07	8459.5	
504.27	7974.1	
504.47	9409.1	
504.67	9577	
504.86	8293.6	
505.06	8026	
505.26	9014.5	
505.46	10909	
505.65	7892.2	
505.85	8214.4	
506.05	9000.1	
506.25	9461.6	
506.44	7178.1	
506.64	8160.5	
506.84	8918.9	
507.04	9957.9	
507.23	7428	
507.43	7925.6	
507.63	11033	
507.83	9159.2	
508.02	8059.4	
508.22	7613	
508.42	11230	
508.62	8945.5	
508.81	7929.1	
509.01	8518.2	
509.21	8681.3	
509.4	9056.8	
509.6	8086.7	
509.8	7380.2	
510	8955.8	
510.19	10529	
510.39	7342	
510.59	7574.1	
510.79	8856.1	
510.98	10275	
511.18	7499	
511.38	7646.4	
511.57	9712.8	
511.77	9678	
511.97	8363.2	
512.17	7277.1	
512.36	9667.8	
512.56	9555.1	
512.76	7398.6	
512.95	7095.5	
513.15	9812.5	
513.35	8400.1	
513.55	8247.2	
513.74	7423.2	
513.94	9767.4	
514.14	9109.4	
514.33	8371.4	
514.53	8150.9	
514.73	8972.2	
514.92	9280.7	
515.12	7624.6	
515.32	7367.2	
515.51	9300.5	
515.71	10010	
515.91	9263	
516.11	7423.2	
516.3	11100	
516.5	8923	
516.7	8075.1	
516.89	8761.9	
517.09	9150.3	
517.29	8888.2	
517.48	8294.3	
517.68	7814.4	
517.88	8727.8	
518.07	9478	
518.27	8295.6	
518.47	7285.3	
518.66	10002	
518.86	8612.4	
519.06	7049.1	
519.25	7624.6	
519.45	9060.2	
519.65	10565	
519.84	8385.7	
520.04	8982.4	
520.24	10982	
520.43	9665	
520.63	7954.3	
520.83	7646.4	
521.02	8871.1	
521.22	9488.9	
521.42	8230.8	
521.61	8875.9	
521.81	8965.3	
522.01	9267.1	
522.2	8062.9	
522.4	7791.8	
522.6	9639.1	
522.79	8532.5	
522.99	7925	
523.18	7173.4	
523.38	9445.9	
523.58	9542.9	
523.77	9386.5	
523.97	7227.3	
524.17	11453	
524.36	10565	
524.56	8839	
524.76	8260.8	
524.95	9579	
525.15	9149.6	
525.34	8066.9	
525.54	8094.3	
525.74	9929.2	
525.93	8870.4	
526.13	9452.1	
526.33	8049.9	
526.52	10275	
526.72	9738.1	
526.91	9410.4	
527.11	8645.2	
527.31	10305	
527.5	10738	
527.7	8396	
527.89	7604.8	
528.09	9230.9	
528.29	9910.8	
528.48	8978.3	
528.68	8489.5	
528.87	10198	
529.07	10218	
529.27	8490.9	
529.46	7890.8	
529.66	9880.1	
529.85	10266	
530.05	7854	
530.25	8661.5	
530.44	11307	
530.64	9732.6	
530.83	8194.6	
531.03	8467.7	
531.23	10174	
531.42	10062	
531.62	9189.9	
531.81	8395.3	
532.01	10399	
532.21	10840	
532.4	8160.5	
532.6	8511.4	
532.79	11380	
532.99	10484	
533.18	8585.8	
533.38	9637.7	
533.58	9971.6	
533.77	10769	
533.97	8480.6	
534.16	9379.7	
534.36	10989	
534.55	9955.2	
534.75	9658.9	
534.95	8716.8	
535.14	10910	
535.34	10053	
535.53	8361.9	
535.73	10292	
535.92	11529	
536.12	10249	
536.31	8393.9	
536.51	9693	
536.71	10572	
536.9	10129	
537.1	8495.7	
537.29	8715.5	
537.49	11025	
537.68	9982.5	
537.88	9077.3	
538.07	8262.2	
538.27	10196	
538.46	11272	
538.66	8226.7	
538.86	8676.6	
539.05	10251	
539.25	10748	
539.44	8974.2	
539.64	8607.6	
539.83	10137	
540.03	11220	
540.22	8426.7	
540.42	8568.7	
540.61	10302	
540.81	10437	
541	8978.3	
541.2	9690.3	
541.39	9915.6	
541.59	10290	
541.78	9412.5	
541.98	8361.2	
542.18	9491	
542.37	9503.3	
542.57	8727.1	
542.76	9361.3	
542.96	9628.2	
543.15	10335	
543.35	8882.7	
543.54	8148.9	
543.74	10730	
543.93	10201	
544.13	8753.7	
544.32	9997.5	
544.52	10463	
544.71	9633.6	
544.91	7828.7	
545.1	9192	
545.3	9737.4	
545.49	10421	
545.69	7833.5	
545.88	8449.9	
546.08	11407	
546.27	10975	
546.47	9032.9	
546.66	8183.7	
546.86	10646	
547.05	11252	
547.24	8456.1	
547.44	8281.3	
547.63	9486.2	
547.83	10735	
548.02	8720.9	
548.22	8975.6	
548.41	9292.3	
548.61	10746	
548.8	8236.9	
549	8138.6	
549.19	10007	
549.39	10246	
549.58	7787.7	
549.78	8561.2	
549.97	10299	
550.17	9856.2	
550.36	9327.8	
550.55	10397	
550.75	9834.3	
550.94	10819	
551.14	8097	
551.33	8529.1	
551.53	9218.6	
551.72	10207	
551.92	8501.8	
552.11	8217.8	
552.31	10175	
552.5	10398	
552.69	9890.3	
552.89	7877.2	
553.08	10198	
553.28	9910.1	
553.47	8295.6	
553.67	9398.1	
553.86	10834	
554.06	9093	
554.25	7349.5	
554.44	8041	
554.64	11594	
554.83	11191	
555.03	8008.2	
555.22	8429.4	
555.42	10409	
555.61	10120	
555.8	8191.9	
556	8503.2	
556.19	9143.5	
556.39	10528	
556.58	8207.6	
556.78	8093.6	
556.97	10014	
557.16	9689.6	
557.36	9530.6	
557.55	7896.3	
557.75	8841.1	
557.94	10739	
558.13	7888.1	
558.33	7734.5	
558.52	10500	
558.72	9425.4	
558.91	7767.9	
559.1	8174.1	
559.3	9093.7	
559.49	8740	
559.69	7340.6	
559.88	8520.2	
560.07	9934.7	
560.27	10312	
560.46	8650.6	
560.66	8837.7	
560.85	9703.3	
561.04	8783.1	
561.24	7831.4	
561.43	8007.6	
561.63	9110.7	
561.82	9429.5	
562.01	9280.7	
562.21	8368	
562.4	9845.3	
562.59	10844	
562.79	8191.9	
562.98	7845.8	
563.18	9752.4	
563.37	11368	
563.56	8684.8	
563.76	7648.5	
563.95	9243.2	
564.14	9196.1	
564.34	8086.1	
564.53	7890.8	
564.73	9693.7	
564.92	10174	
565.11	8224	
565.31	7682.6	
565.5	10371	
565.69	9272.5	
565.89	7897.7	
566.08	8153	
566.27	10260	
566.47	10647	
566.66	8826.7	
566.85	7414.3	
567.05	9829.6	
567.24	9214.5	
567.44	7823.2	
567.63	9254.8	
567.82	10094	
568.02	9866.4	
568.21	7753.6	
568.4	8232.8	
568.6	9737.4	
568.79	9683.5	
568.98	7707.2	
569.18	7896.3	
569.37	9635	
569.56	11693	
569.76	8245.1	
569.95	9166	
570.14	10124	
570.34	10010	
570.53	7666.2	
570.72	7646.4	
570.91	10500	
571.11	9683.5	
571.3	8198	
571.49	9103.2	
571.69	9682.8	
571.88	9189.9	
572.07	8726.4	
572.27	8754.4	
572.46	9215.2	
572.65	10290	
572.85	7945.4	
573.04	8296.3	
573.23	10526	
573.43	9791.3	
573.62	7673.7	
573.81	8344.8	
574	9849.4	
574.2	9572.9	
574.39	8086.7	
574.58	8299.7	
574.78	10735	
574.97	9899.9	
575.16	8582.4	
575.36	8757.8	
575.55	10222	
575.74	10432	
575.93	7703.8	
576.13	8862.9	
576.32	9642.5	
576.51	10262	
576.71	8148.2	
576.9	9635	
577.09	10622	
577.28	10125	
577.48	8710	
577.67	7587	
577.86	9730.6	
578.05	10094	
578.25	8286.1	
578.44	8384.4	
578.63	9932.6	
578.83	11125	
579.02	7735.9	
579.21	9331.9	
579.4	10122	
579.6	9716.9	
579.79	8441	
579.98	10802	
580.17	10376	
580.37	10456	
580.56	7888.1	
580.75	8654	
580.94	10959	
581.14	10785	
581.33	9213.1	
581.52	8134.5	
581.71	10304	
581.91	11006	
582.1	7704.5	
582.29	8347.5	
582.48	9944.3	
582.68	9691	
582.87	8972.8	
583.06	8496.3	
583.25	10234	
583.45	10139	
583.64	9110	
583.83	9975	
584.02	9674.6	
584.21	10146	
584.41	9201.5	
584.6	8327	
584.79	9914.2	
584.98	10658	
585.18	7915.4	
585.37	7940	
585.56	9476.6	
585.75	10243	
585.94	8133.2	
586.14	8851.3	
586.33	10879	
586.52	9905.3	
586.71	8653.4	
586.91	8329.8	
587.1	9255.5	
587.29	10266	
587.48	8226.7	
587.67	8169.3	
587.87	10068	
588.06	10208	
588.25	9519.6	
588.44	8699.1	
588.63	9805	
588.83	10442	
589.02	8172.8	
589.21	8007.6	
589.4	9524.4	
589.59	9350.3	
589.78	7259.4	
589.98	7491.5	
590.17	8852	
590.36	9549.7	
590.55	6862.1	
590.74	7699.7	
590.94	10925	
591.13	9436.4	
591.32	7420.5	
591.51	6961.7	
591.7	9874.6	
591.89	9290.3	
592.09	7034.8	
592.28	7561.1	
592.47	8538	
592.66	10545	
592.85	7109.2	
593.05	7336.5	
593.24	9229.5	
593.43	9923.1	
593.62	7367.2	
593.81	7904.5	
594	9240.4	
594.19	9401.5	
594.39	7279.8	
594.58	7277.1	
594.77	9484.8	
594.96	10232	
595.15	7231.4	
595.34	7879.2	
595.54	9555.8	
595.73	8581	
595.92	6569.9	
596.11	7714	
596.3	10037	
596.49	8712.7	
596.68	7518.8	
596.88	8072.4	
597.07	9803.6	
597.26	8524.3	
597.45	6960.4	
597.64	8340.7	
597.83	8815.1	
598.02	9435	
598.22	7155.6	
598.41	7826.7	
598.6	9198.8	
598.79	8700.5	
598.98	7223.9	
599.17	8191.2	
599.36	9279.3	
599.55	10461	
599.74	9312.8	
599.94	9085.5	
600.13	9843.9	
600.32	8665	
600.51	6929.6	
600.7	6993.8	
600.89	10497	
601.08	10558	
601.27	6894.1	
601.47	7864.9	
601.66	9654.1	
601.85	10473	
602.04	7481.2	
602.23	7826	
602.42	8729.8	
602.61	9538.1	
602.8	7508.5	
602.99	7117.4	
603.18	9097.1	
603.37	9466.4	
603.57	7937.9	
603.76	8493.6	
603.95	10178	
604.14	9699.9	
604.33	7301	
604.52	7674.4	
604.71	9377.6	
604.9	8985.8	
605.09	8222.6	
605.28	8120.2	
605.47	10021	
605.66	9660.3	
605.86	7939.3	
606.05	7400	
606.24	9934.7	
606.43	8416.5	
606.62	7679.9	
606.81	8518.2	
607	9767.4	
607.19	9018.6	
607.38	7079.8	
607.57	7395.9	
607.76	8819.9	
607.95	8277.2	
608.14	7757.7	
608.33	8479.3	
608.52	8790.6	
608.72	9810.5	
608.91	6983.6	
609.1	6914.6	
609.29	8890.9	
609.48	8333.2	
609.67	7974.8	
609.86	6922.1	
610.05	8505.2	
610.24	8973.5	
610.43	6762.4	
610.62	6369.2	
610.81	10094	
611	9812.5	
611.19	6886.6	
611.38	7716.1	
611.57	9235.7	
611.76	10609	
611.95	6656.6	
612.14	6513.9	
612.33	8943.5	
612.52	8375.5	
612.71	7210.2	
612.9	6533	
613.09	8104.5	
613.28	10568	
613.47	6894.1	
613.66	7909.3	
613.85	9073.2	
614.04	8542.8	
614.24	7034.8	
614.43	6224.5	
614.62	9159.9	
614.81	9141.4	
615	7676.5	
615.19	7700.4	
615.38	8428.8	
615.57	8795.3	
615.76	7494.2	
615.95	8445.8	
616.14	9222.7	
616.33	8863.6	
616.52	7826.7	
616.71	8098.4	
616.9	9108	
617.09	9055.4	
617.28	7106.5	
617.47	8528.4	
617.66	8277.2	
617.85	8292.2	
618.04	8079.9	
618.22	7523.6	
618.41	8586.5	
618.6	9611.1	
618.79	7379.5	
618.98	7168.6	
619.17	9923.8	
619.36	8131.8	
619.55	7225.9	
619.74	7363.1	
619.93	9130.5	
620.12	8558.5	
620.31	7973.4	
620.5	8115.4	
620.69	9768.8	
620.88	10104	
621.07	8874.5	
621.26	7770.7	
621.45	9272.5	
621.64	9364	
621.83	7902.4	
622.02	7068.9	
622.21	9370.8	
622.4	9141.4	
622.59	8527.1	
622.78	8288.8	
622.97	8709.3	
623.16	9725.1	
623.35	7788.4	
623.54	6988.4	
623.72	8989.9	
623.91	9126.4	
624.1	8207.6	
624.29	6690	
624.48	10195	
624.67	9403.6	
624.86	8043.7	
625.05	7060	
625.24	10305	
625.43	8635.6	
625.62	9846	
625.81	7262.1	
626	9716.2	
626.19	8905.3	
626.38	8086.7	
626.56	7408.9	
626.75	8866.3	
626.94	9555.8	
627.13	8091.5	
627.32	6684.6	
627.51	9458.9	
627.7	10757	
627.89	6812.9	
628.08	8105.9	
628.27	8604.9	
628.46	8787.8	
628.65	7215.7	
628.83	6794.5	
629.02	9484.1	
629.21	8716.8	
629.4	7694.9	
629.59	7863.5	
629.78	8617.9	
629.97	9663.7	
630.16	7885.4	
630.35	7344	
630.54	10026	
630.72	9818	
630.91	7298.3	
631.1	7869.7	
631.29	9261.6	
631.48	9410.4	
631.67	7931.1	
631.86	7332.4	
632.05	8806.9	
632.24	8866.3	
632.42	7023.9	
632.61	7752.9	
632.8	8946.2	
632.99	8484.7	
633.18	7724.9	
633.37	8111.3	
633.56	9211.8	
633.75	9000.8	
633.93	7636.2	
634.12	7334.5	
634.31	10084	
634.5	9624.8	
634.69	7452.6	
634.88	7933.8	
635.07	8911.4	
635.25	9535.3	
635.44	8387.8	
635.63	8630.8	
635.82	8811.7	
636.01	8320.9	
636.2	8271.7	
636.39	7875.1	
636.57	10045	
636.76	9671.2	
636.95	7219.8	
637.14	8670.4	
637.33	9224.7	
637.52	10266	
637.7	7030.7	
637.89	7958.4	
638.08	8796	
638.27	10432	
638.46	8097.7	
638.65	8572.8	
638.83	10350	
639.02	8582.4	
639.21	7974.8	
639.4	8495	
639.59	9187.2	
639.78	8605.6	
639.96	7198.6	
640.15	7258.7	
640.34	9017.2	
640.53	9140.1	
640.72	6909.2	
640.91	7231.4	
641.09	8421.9	
641.28	9867.8	
641.47	7242.3	
641.66	8144.1	
641.85	9073.2	
642.03	9478.7	
642.22	7872.4	
642.41	7261.4	
642.6	8524.3	
642.79	7865.6	
642.97	7122.2	
643.16	7907.9	
643.35	8516.1	
643.54	8228.7	
643.73	6948.8	
643.91	7854	
644.1	8112	
644.29	8742.1	
644.48	7092.8	
644.67	7115.3	
644.85	8372.8	
645.04	8612.4	
645.23	6577.4	
645.42	6901	
645.6	8074.5	
645.79	9389.9	
645.98	6933.7	
646.17	5956.2	
646.36	7871.7	
646.54	8500.4	
646.73	7719.5	
646.92	6445	
647.11	8004.8	
647.29	9207.7	
647.48	6579.4	
647.67	6337.8	
647.86	9478	
648.05	9439.8	
648.23	6912.6	
648.42	8177.5	
648.61	8785.8	
648.8	8459.5	
648.98	6496.2	
649.17	6836.1	
649.36	8116.1	
649.55	7531.1	
649.73	6578.8	
649.92	7489.4	
650.11	8004.8	
650.3	8280.6	
650.48	6718	
650.67	6521.4	
650.86	8560.5	
651.05	7437.5	
651.23	6673	
651.42	6599.2	
651.61	8051.2	
651.79	8099	
651.98	6902.3	
652.17	6453.1	
652.36	8554.4	
652.54	7510.6	
652.73	6554.2	
652.92	6335.1	
653.11	8512.7	
653.29	8644.5	
653.48	5704.3	
653.67	6805.4	
653.85	8355.7	
654.04	9318.9	
654.23	7042.3	
654.42	6427.9	
654.6	7763.8	
654.79	8413.1	
654.98	5956.2	
655.16	6511.2	
655.35	7290.1	
655.54	7188.4	
655.73	5980.1	
655.91	5915.9	
656.1	8512	
656.29	7185	
656.47	5500.8	
656.66	7264.8	
656.85	7481.9	
657.03	7571.3	
657.22	6088.6	
657.41	6142.5	
657.59	7656.7	
657.78	7438.2	
657.97	5808	
658.16	6554.9	
658.34	8342.1	
658.53	8783.1	
658.72	7536.5	
658.9	8046.5	
659.09	7757	
659.28	7815.7	
659.46	6258.6	
659.65	6208.1	
659.84	7572.7	
660.02	8047.2	
660.21	6156.9	
660.4	6111.8	
660.58	8514.8	
660.77	7944.1	
660.96	6762.4	
661.14	5709.7	
661.33	9092.3	
661.52	8855.4	
661.7	5752.1	
661.89	9637.7	
662.08	7522.9	
662.26	7088	
662.45	5996.5	
662.64	6054.5	
662.82	8165.3	
663.01	7354.3	
663.2	6109.8	
663.38	6847.7	
663.57	8054.7	
663.75	7953.6	
663.94	6452.5	
664.13	7778.9	
664.31	7438.9	
664.5	8190.5	
664.69	6837.5	
664.87	7279.2	
665.06	7176.1	
665.25	8038.3	
665.43	7494.9	
665.62	7663.5	
665.8	8299.1	
665.99	7536.5	
666.18	6408.8	
666.36	6507.1	
666.55	8292.9	
666.74	8180.3	
666.92	6075	
667.11	7784.3	
667.29	7536.5	
667.48	8223.3	
667.67	7352.2	
667.85	6460	
668.04	7638.9	
668.22	7649.2	
668.41	6400.6	
668.6	6641.6	
668.78	7408.9	
668.97	7575.4	
669.15	6867.5	
669.34	5722	
669.53	7415.7	
669.71	7758.4	
669.9	5971.2	
670.08	6715.3	
670.27	7419.8	
670.46	7961.8	
670.64	6873.7	
670.83	7121.5	
671.01	7333.8	
671.2	7952.9	
671.38	5980.8	
671.57	5990.3	
671.76	8587.8	
671.94	9148.3	
672.13	5853.8	
672.31	6976.7	
672.5	8039	
672.69	7440.3	
672.87	6044.2	
673.06	6419.7	
673.24	7972.7	
673.43	7445	
673.61	6925.5	
673.8	6320.7	
673.98	8180.3	
674.17	8347.5	
674.36	6939.2	
674.54	6841.6	
674.73	7943.4	
674.91	8129.8	
675.1	6542.6	
675.28	6109.1	
675.47	7759.1	
675.65	8252.6	
675.84	6370.5	
676.03	6737.8	
676.21	7414.3	
676.4	6873.7	
676.58	7161.7	
676.77	6957.6	
676.95	9013.1	
677.14	7317.4	
677.32	6032.6	
677.51	5788.9	
677.69	8279.9	
677.88	6982.2	
678.06	5835.3	
678.25	6012.8	
678.44	7705.8	
678.62	7350.8	
678.81	5654.4	
678.99	6761	
679.18	8462.9	
679.36	8044.4	
679.55	6324.1	
679.73	6922.8	
679.92	7903.8	
680.1	7412.3	
680.29	7577.5	
680.47	6326.2	
680.66	7309.2	
680.84	8290.9	
681.03	5585.5	
681.21	6667.5	
681.4	7460.8	
681.58	7296.9	
681.77	6014.9	
681.95	5840.8	
682.14	8325.7	
682.32	8631.5	
682.51	6973.3	
682.69	5690.6	
682.88	7264.1	
683.06	7985	
683.25	6609.5	
683.43	7199.3	
683.62	7529.7	
683.8	7998.7	
683.99	7215	
684.17	6548	
684.36	8892.3	
684.54	7489.4	
684.73	5545.2	
684.91	5811.5	
685.1	7845.1	
685.28	7162.4	
685.46	6446.3	
685.65	6367.1	
685.83	8030.8	
686.02	7334.5	
686.2	5843.5	
686.39	6006.7	
686.57	7147.4	
686.76	8779.6	
686.94	5875.6	
687.13	6008.1	
687.31	7927	
687.5	7427.3	
687.68	5435.3	
687.86	6870.3	
688.05	9030.9	
688.23	6880.5	
688.42	6872.3	
688.6	6005.3	
688.79	7283.3	
688.97	7318.8	
689.16	6397.9	
689.34	5291.3	
689.52	8145.5	
689.71	8320.9	
689.89	6711.9	
690.08	5910.4	
690.26	7528.3	
690.45	7447.1	
690.63	6873.7	
690.81	6117.3	
691	7303.7	
691.18	7230	
691.37	6251.1	
691.55	8609	
691.74	7237.5	
691.92	9281.4	
692.1	6249.7	
692.29	5649	
692.47	7422.5	
692.66	6734.4	
692.84	5866.7	
693.02	6456.6	
693.21	6815	
693.39	7302.4	
693.58	6614.3	
693.76	5958.9	
693.94	8686.8	
694.13	8429.4	
694.31	5858.6	
694.5	7160.4	
694.68	7240.9	
694.86	7512.6	
695.05	6314.6	
695.23	6384.9	
695.42	8016.4	
695.6	10392	
695.78	7034.1	
695.97	6062.7	
696.15	8071	
696.34	7353.6	
696.52	5820.3	
696.7	6654.5	
696.89	7779.6	
697.07	7143.3	
697.25	6623.8	
697.44	8218.5	
697.62	7592.5	
697.81	8085.4	
697.99	6189.6	
698.17	6728.3	
698.36	6977.4	
698.54	7703.8	
698.72	6638.1	
698.91	5541.1	
699.09	7317.4	
699.28	7233.4	
699.46	6247	
699.64	6061.3	
699.83	7072.3	
700.01	8405.5	
700.19	6884.6	
700.38	5283.8	
700.56	8402.1	
700.74	7167.9	
700.93	5800.5	
701.11	6570.6	
701.29	7836.9	
701.48	8917.5	
701.66	6018.3	
701.84	6064.7	
702.03	7292.8	
702.21	8058.8	
702.39	5556.1	
702.58	6257.2	
702.76	7779.6	
702.94	7913.4	
703.13	5651.7	
703.31	8137.9	
703.49	7007.5	
703.68	8093.6	
703.86	5724.8	
704.04	6873	
704.23	7579.5	
704.41	7998	
704.59	6029.9	
704.78	7242.3	
704.96	8717.5	
705.14	8068.3	
705.33	5741.8	
705.51	6648.4	
705.69	7418.4	
705.87	8290.9	
706.06	6894.1	
706.24	5677	
706.42	7720.2	
706.61	8086.1	
706.79	6959.7	
706.97	5675.6	
707.16	7277.8	
707.34	7909.3	
707.52	6931.7	
707.7	6012.2	
707.89	7302.4	
708.07	7077.8	
708.25	6916.7	
708.44	7004.1	
708.62	7306.5	
708.8	8561.2	
708.98	7247.8	
709.17	5996.5	
709.35	7748.8	
709.53	7764.5	
709.72	5738.4	
709.9	5946.6	
710.08	8059.4	
710.26	8034.2	
710.45	7478.5	
710.63	6138.4	
710.81	7716.7	
710.99	7677.8	
711.18	6757.6	
711.36	6292.7	
711.54	7482.6	
711.72	8222.6	
711.91	6322.1	
712.09	5661.3	
712.27	7561.1	
712.45	8277.2	
712.64	6660.7	
712.82	5496.1	
713	7007.5	
713.18	7180.2	
713.37	5715.2	
713.55	6941.2	
713.73	8129.1	
713.91	6552.8	
714.1	6000.5	
714.28	5370.5	
714.46	7723.6	
714.64	6806.1	
714.83	4774.5	
715.01	5671.5	
715.19	6944	
715.37	6272.2	
715.55	5326.8	
715.74	5669.5	
715.92	7888.8	
716.1	5788.2	
716.28	6870.9	
716.47	5749.3	
716.65	6460.7	
716.83	6569.2	
717.01	5739.1	
717.19	5670.8	
717.38	8807.6	
717.56	6214.9	
717.74	5970.5	
717.92	5027.1	
718.1	7469.6	
718.29	6724.8	
718.47	4670.7	
718.65	5416.9	
718.83	7498.3	
719.01	7298.3	
719.2	4511	
719.38	5790.3	
719.56	7163.8	
719.74	8772.8	
719.92	5319.3	
720.11	6390.3	
720.29	7055.9	
720.47	6186.2	
720.65	4773.1	
720.83	5722	
721.02	6556.9	
721.2	6204	
721.38	5779.4	
721.56	4997.7	
721.74	5780.1	
721.92	6003.3	
722.11	6311.8	
722.29	5977.3	
722.47	7324.2	
722.65	6408.1	
722.83	5061.9	
723.01	5943.9	
723.2	6509.8	
723.38	6811.5	
723.56	4389.5	
723.74	5650.3	
723.92	6083.8	
724.1	7329	
724.29	4925.4	
724.47	6094.1	
724.65	6068.1	
724.83	6029.2	
725.01	4681.7	
725.19	5736.4	
725.37	6078.4	
725.56	6185.5	
725.74	4633.2	
725.92	4923.3	
726.1	5973.2	
726.28	6321.4	
726.46	5415.5	
726.64	5131.5	
726.83	6291.4	
727.01	6607.4	
727.19	4638	
727.37	5564.3	
727.55	6458.6	
727.73	6950.8	
727.91	4542.4	
728.09	4414.1	
728.28	7008.1	
728.46	7705.8	
728.64	5747.3	
728.82	5573.9	
729	8185.7	
729.18	7446.4	
729.36	4818.9	
729.54	7315.3	
729.72	8586.5	
729.91	6660.7	
730.09	6821.1	
730.27	5535.7	
730.45	6546	
730.63	7249.8	
730.81	6258.6	
730.99	5193	
731.17	7845.1	
731.35	6271.6	
731.53	5807.4	
731.71	5337.7	
731.9	7491.5	
732.08	7696.3	
732.26	5625.1	
732.44	5250.3	
732.62	7689.4	
732.8	7144.7	
732.98	6124.1	
733.16	5033.2	
733.34	7160.4	
733.52	5973.9	
733.7	5628.5	
733.88	5972.6	
734.07	7052.5	
734.25	6763.8	
734.43	4997	
734.61	6655.9	
734.79	8336.6	
734.97	6632.7	
735.15	5141.8	
735.33	5569.8	
735.51	7044.3	
735.69	6644.3	
735.87	6827.9	
736.05	5749.3	
736.23	6879.1	
736.41	6645	
736.59	5572.5	
736.77	5632.6	
736.95	7330.4	
737.13	6753.5	
737.32	5231.2	
737.5	5376.6	
737.68	7903.8	
737.86	6596.5	
738.04	4971.1	
738.22	6993.1	
738.4	6402	
738.58	6696.9	
738.76	5681.7	
738.94	4557.4	
739.12	6555.5	
739.3	6367.1	
739.48	6313.2	
739.66	5997.8	
739.84	6842.9	
740.02	6846.4	
740.2	4640	
740.38	5103.5	
740.56	7309.9	
740.74	6034	
740.92	5746.6	
741.1	5716.6	
741.28	6650.4	
741.46	6488	
741.64	5227.8	
741.82	5833.3	
742	6610.8	
742.18	6611.5	
742.36	5406.6	
742.54	5033.2	
742.72	7277.1	
742.9	5870.2	
743.08	5880.4	
743.26	4678.2	
743.44	7551.5	
743.62	7282.6	
743.8	6077	
743.98	5078.3	
744.16	6982.2	
744.34	6684.6	
744.52	5964.4	
744.7	5913.9	
744.88	7157	
745.06	6683.9	
745.24	6075	
745.42	6144.6	
745.6	7223.2	
745.78	6916	
745.96	4736.3	
746.14	5072.1	
746.32	7962.5	
746.5	7177.4	
746.68	5656.5	
746.86	5151.3	
747.03	7710.6	
747.21	5864.7	
747.39	5620.3	
747.57	5127.4	
747.75	6784.9	
747.93	7255.3	
748.11	5099.4	
748.29	4947.9	
748.47	8455.4	
748.65	6505	
748.83	5885.9	
749.01	5580.7	
749.19	7004.7	
749.37	6139.8	
749.55	5365.7	
749.73	5517.2	
749.91	6628.6	
750.09	6354.8	
750.26	5560.2	
750.44	4909.7	
750.62	6688.7	
750.8	6588.3	
750.98	4790.2	
751.16	5131.5	
751.34	6675.7	
751.52	5980.8	
751.7	5939.8	
751.88	4696.7	
752.06	7165.8	
752.24	6974.7	
752.42	4618.2	
752.59	4962.9	
752.77	6556.2	
752.95	7902.4	
753.13	5844.2	
753.31	5186.1	
753.49	6293.4	
753.67	6779.5	
753.85	5499.5	
754.03	5044.8	
754.21	6998.6	
754.38	7353.6	
754.56	5184.8	
754.74	4159.4	
754.92	6244.3	
755.1	6843.6	
755.28	4215.4	
755.46	4271.4	
755.64	7720.2	
755.82	7850.5	
755.99	4488.5	
756.17	4562.2	
756.35	5114.5	
756.53	6827.9	
756.71	3379.8	
756.89	4330.8	
757.07	6348	
757.25	5344.5	
757.42	4999.8	
757.6	6031.3	
757.78	6424.5	
757.96	5370.5	
758.14	4660.5	
758.32	4191.5	
758.5	4899.4	
758.67	5763	
758.85	4528.7	
759.03	4610.7	
759.21	5977.3	
759.39	5401.9	
759.57	3970.3	
759.75	5285.1	
759.92	6578.1	
760.1	5828.5	
760.28	5720	
760.46	5952.8	
760.64	5597.1	
760.82	5412.1	
760.99	5511.8	
761.17	4597	
761.35	6536.4	
761.53	5442.1	
761.71	4744.5	
761.89	5533.6	
762.06	6445.6	
762.24	5829.9	
762.42	4872.1	
762.6	4633.2	
762.78	5971.2	
762.96	6625.2	
763.13	5333.6	
763.31	4967.7	
763.49	6826.6	
763.67	5840.8	
763.85	5828.5	
764.02	6425.2	
764.2	7081.9	
764.38	6232	
764.56	4750.6	
764.74	5771.2	
764.91	7172	
765.09	5997.1	
765.27	4488.5	
765.45	4260.5	
765.63	7165.8	
765.8	6976.1	
765.98	3931.4	
766.16	4321.2	
766.34	5517.9	
766.52	5345.2	
766.69	5361.6	
766.87	4111	
767.05	6002.6	
767.23	6778.8	
767.41	4526.7	
767.58	4776.5	
767.76	6492.1	
767.94	6619.7	
768.12	4590.9	
768.29	5435.3	
768.47	6062	
768.65	6844.3	
768.83	4112.3	
769	5462.6	
769.18	5548.6	
769.36	6388.3	
769.54	5416.2	
769.72	4249.5	
769.89	6547.4	
770.07	6784.9	
770.25	4545.8	
770.43	5927.5	
770.6	7550.2	
770.78	7937.9	
770.96	4753.3	
771.14	5388.2	
771.31	6518	
771.49	5844.9	
771.67	3823.6	
771.85	4115.1	
772.02	5074.9	
772.2	5849	
772.38	4917.9	
772.55	4381.3	
772.73	6117.3	
772.91	5897.5	
773.09	4794.3	
773.26	4919.9	
773.44	6038.8	
773.62	5728.2	
773.8	4215.4	
773.97	3975.8	
774.15	6109.8	
774.33	5638.1	
774.5	4062.5	
774.68	4530.1	
774.86	6305	
775.04	5743.2	
775.21	4225	
775.39	4243.4	
775.57	6125.5	
775.74	6494.8	
775.92	4025.6	
776.1	3888.4	
776.27	5951.4	
776.45	7382.9	
776.63	4225.6	
776.81	3729.4	
776.98	5616.2	
777.16	6810.2	
777.34	4356.7	
777.51	4360.1	
777.69	5646.2	
777.87	5397.1	
778.04	4379.9	
778.22	5105.6	
778.4	5440.1	
778.57	6135.7	
778.75	3657	
778.93	3955.3	
779.1	5125.4	
779.28	5047.6	
779.46	3667.9	
779.64	4188.1	
779.81	6288.6	
779.99	7276.4	
780.17	5082.4	
780.34	5211.4	
780.52	5674.9	
780.69	5945.3	
780.87	4500.8	
781.05	4085	
781.22	5762.3	
781.4	5843.5	
781.58	4225.6	
781.75	3348.4	
781.93	5823.1	
782.11	5154.7	
782.28	5177.9	
782.46	4170.3	
782.64	5025	
782.81	5998.5	
782.99	4267.3	
783.17	4212	
783.34	5890	
783.52	5054.4	
783.69	4449.6	
783.87	5381.4	
784.05	5225.7	
784.22	5192.3	
784.4	5352.7	
784.58	4556.7	
784.75	6087.2	
784.93	5081	
785.1	4194.9	
785.28	4898.1	
785.46	5810.1	
785.63	5138.4	
785.81	4136.2	
785.99	3974.4	
786.16	5319.3	
786.34	5811.5	
786.51	4021.5	
786.69	4493.9	
786.87	4917.9	
787.04	5427.1	
787.22	3842.7	
787.39	4909	
787.57	5082.4	
787.75	6346	
787.92	5072.8	
788.1	5061.2	
788.27	5175.2	
788.45	4923.3	
788.63	4726.7	
788.8	3362.1	
788.98	5552	
789.15	4885.8	
789.33	3482.9	
789.5	4259.1	
789.68	6113.9	
789.86	6279.1	
790.03	4631.1	
790.21	4076.8	
790.38	6067.4	
790.56	5292	
790.73	3909.6	
790.91	3958.7	
791.09	5168.4	
791.26	5941.8	
791.44	4177.2	
791.61	3550.5	
791.79	5180.7	
791.96	5233.2	
792.14	3688.4	
792.32	3256.3	
792.49	5143.1	
792.67	5265.3	
792.84	3832.4	
793.02	3577.8	
793.19	5650.3	
793.37	6397.2	
793.54	3339.6	
793.72	3657.7	
793.89	6581.5	
794.07	5160.9	
794.25	4373.1	
794.42	3383.9	
794.6	6290.7	
794.77	5890.6	
794.95	4601.8	
795.12	4020.8	
795.3	5104.2	
795.47	5826.5	
795.65	4404.5	
795.82	4236.6	
796	4952.7	
796.17	7076.4	
796.35	4054.3	
796.52	4865.3	
796.7	5700.2	
796.87	5832.6	
797.05	5107.6	
797.22	4966.3	
797.4	5767.8	
797.57	6825.2	
797.75	4259.1	
797.92	3975.8	
798.1	6132.3	
798.27	5191.6	
798.45	3406.5	
798.62	3639.2	
798.8	5492	
798.97	6040.1	
799.15	4476.9	
799.32	4274.1	
799.5	4706.2	
799.67	5558.9	
799.85	4608.6	
800.02	3347.1	
800.2	5014.1	
800.37	5481.7	
800.55	4829.1	
800.72	3994.2	
800.9	5930.2	
801.07	6460	
801.25	5364.3	
801.42	4429.8	
801.6	6009.4	
801.77	5691.3	
801.95	4101.4	
802.12	3866.6	
802.29	5598.5	
802.47	5681.1	
802.64	4359.4	
802.82	3330	
802.99	5028.4	
803.17	6208.1	
803.34	4255.7	
803.52	3799.7	
803.69	6920.1	
803.87	4950.6	
804.04	4205.8	
804.21	4308.2	
804.39	6326.9	
804.56	5393	
804.74	3520.5	
804.91	4405.9	
805.09	5195.7	
805.26	5225.7	
805.44	3680.9	
805.61	3990.8	
805.78	5819.6	
805.96	5968.5	
806.13	4392.9	
806.31	4698.7	
806.48	4676.2	
806.66	5213.4	
806.83	4373.1	
807	4305.5	
807.18	5109	
807.35	5593.7	
807.53	4272.7	
807.7	3392.1	
807.87	6325.5	
808.05	5155.4	
808.22	4705.5	
808.4	3364.1	
808.57	5204.6	
808.74	4783.4	
808.92	3893.2	
809.09	5022.3	
809.27	5070.8	
809.44	5685.8	
809.61	3426.3	
809.79	3886.4	
809.96	6386.2	
810.14	5978	
810.31	3306.1	
810.48	4083.6	
810.66	5323.4	
810.83	6077	
811.01	3864.5	
811.18	4298.7	
811.35	5959.6	
811.53	4640.7	
811.7	4817.5	
811.87	4436.6	
812.05	5169.8	
812.22	5091.3	
812.39	3715	
812.57	3642.7	
812.74	5207.3	
812.92	7014.3	
813.09	4061.8	
813.26	4416.1	
813.44	6671.6	
813.61	5107.6	
813.78	3405.8	
813.96	4601.1	
814.13	5218.9	
814.3	4831.8	
814.48	4958.8	
814.65	4126.7	
814.82	6526.9	
815	4929.5	
815.17	4216.1	
815.34	5209.3	
815.52	5108.3	
815.69	5110.4	
815.87	4171.7	
816.04	3602.4	
816.21	5174.5	
816.38	4547.9	
816.56	4080.9	
816.73	3737.5	
816.9	6602.7	
817.08	5998.5	
817.25	3850.2	
817.42	4838.7	
817.6	4758.8	
817.77	5254.4	
817.94	4280.9	
818.12	3788.7	
818.29	4963.6	
818.46	7783	
818.64	3989.4	
818.81	3627.6	
818.98	4793.6	
819.16	7181.5	
819.33	4479.6	
819.5	4197	
819.67	5597.8	
819.85	6232.7	
820.02	4142.4	
820.19	4383.3	
820.37	5468.1	
820.54	4906.3	
820.71	4293.9	
820.88	5328.1	
821.06	5482.4	
821.23	4969.7	
821.4	4313.7	
821.58	4236.6	
821.75	5965.1	
821.92	5317.2	
822.09	3401	
822.27	3571.7	
822.44	5209.3	
822.61	5074.9	
822.79	3452.2	
822.96	6692.8	
823.13	5745.2	
823.3	4898.7	
823.48	3988.1	
823.65	3623.5	
823.82	5913.2	
823.99	4731.5	
824.17	5156.1	
824.34	3655.6	
824.51	6931	
824.68	5231.2	
824.86	3840.6	
825.03	4229.7	
825.2	5193	
825.37	6309.1	
825.55	3737.5	
825.72	4255	
825.89	7002	
826.06	6490.7	
826.24	4175.1	
826.41	4156	
826.58	6378.7	
826.75	5567.1	
826.92	3198.2	
827.1	3563.5	
827.27	8779	
827.44	7034.1	
827.61	3919.1	
827.79	4857.8	
827.96	4906.9	
828.13	5300.8	
828.3	4071.4	
828.47	3394.8	
828.65	5399.1	
828.82	5408.7	
828.99	5313.8	
829.16	4655	
829.34	5843.5	
829.51	5617.6	
829.68	4201.7	
829.85	4425	
830.02	6163.7	
830.2	5839.4	
830.37	3270.6	
830.54	5087.8	
830.71	6681.2	
830.88	5152	
831.05	3351.2	
831.23	3833.8	
831.4	6396.5	
831.57	7154.2	
831.74	3890.5	
831.91	3439.9	
832.09	5412.1	
832.26	5814.9	
832.43	4082.3	
832.6	4615.4	
832.77	5435.3	
832.94	6204	
833.12	3223.5	
833.29	4022.9	
833.46	5040.1	
833.63	7478.5	
833.8	4403.8	
833.97	4143.7	
834.15	5825.1	
834.32	5513.1	
834.49	4197.7	
834.66	4333.5	
834.83	6052.4	
835	4853	
835.17	3841.3	
835.35	3898	
835.52	5701.5	
835.69	5562.3	
835.86	4077.5	
836.03	3399.6	
836.2	5740.5	
836.37	5397.1	
836.55	4078.2	
836.72	3807.9	
836.89	5393.7	
837.06	5926.1	
837.23	4168.3	
837.4	4524	
837.57	6709.8	
837.75	7438.9	
837.92	3678.2	
838.09	3986.7	
838.26	5334.3	
838.43	6106.4	
838.6	4256.4	
838.77	3840.6	
838.94	7064.1	
839.11	6788.3	
839.29	4005.1	
839.46	3230.3	
839.63	5767.8	
839.8	5487.2	
839.97	3921.9	
840.14	3917.8	
840.31	5558.2	
840.48	5861.3	
840.65	3274.7	
840.82	3875.4	
841	5874.9	
841.17	5695.4	
841.34	3657	
841.51	3639.2	
841.68	5705	
841.85	5567.1	
842.02	3757.3	
842.19	3065.8	
842.36	5576.6	
842.53	5536.3	
842.7	3658.4	
842.87	4456.4	
843.05	7346.1	
843.22	5464.7	
843.39	3458.3	
843.56	3701.4	
843.73	5169.8	
843.9	5871.5	
844.07	5873.6	
844.24	4900.8	
844.41	8684.8	
844.58	4986.8	
844.75	3493.8	
844.92	3871.3	
845.09	5821	
845.26	5786.2	
845.43	3560.7	
845.6	3788.7	
845.77	5817.6	
845.94	5559.6	
846.12	3994.9	
846.29	4218.8	
846.46	6004.6	
846.63	5786.2	
846.8	3595.6	
846.97	4253.6	
847.14	6283.9	
847.31	5754.1	
847.48	4028.4	
847.65	4482.3	
847.82	6136.4	
847.99	6111.1	
848.16	4868	
848.33	4487.8	
848.5	5322.7	
848.67	6325.5	
848.84	3559.4	
849.01	3728	
849.18	5166.3	
849.35	4863.2	
849.52	4519.2	
849.69	3559.4	
849.86	6023.1	
850.03	6294.1	
850.2	3638.6	
850.37	4428.4	
850.54	6186.2	
850.71	5449.6	
850.88	4353.3	
851.05	3545	
851.22	5713.2	
851.39	6419	
851.56	3388.7	
851.73	4170.3	
851.9	5064.6	
852.07	6034	
852.24	4011.3	
852.41	3644	
852.58	5621	
852.75	5084.4	
852.92	4041.3	
853.09	3573	
853.26	5423.7	
853.43	6244.3	
853.6	3601.7	
853.77	3108.1	
853.94	6380.8	
854.11	5772.5	
854.28	5494.7	
854.44	3929.4	
854.61	6847	
854.78	6143.9	
854.95	3562.1	
855.12	4536.9	
855.29	4625.7	
855.46	6505	
855.63	3564.1	
855.8	4963.6	
855.97	5330.9	
856.14	6148.7	
856.31	5135.6	
856.48	3932.8	
856.65	5288.5	
856.82	4990.2	
856.99	3430.3	
857.16	3978.5	
857.33	7131	
857.49	5409.4	
857.66	3895.2	
857.83	4217.5	
858	5407.3	
858.17	5666.7	
858.34	3401	
858.51	3586.7	
858.68	6528.2	
858.85	6591.7	
859.02	4207.2	
859.19	4459.8	
859.36	5023	
859.52	5108.3	
859.69	3619.4	
859.86	4270	
860.03	5130.2	
860.2	6380.1	
860.37	3272	
860.54	3632.4	
860.71	6019	
860.88	6492.1	
861.05	4101.4	
861.21	4553.3	
861.38	6488.6	
861.55	4902.2	
861.72	3247.4	
861.89	4104.1	
862.06	6166.4	
862.23	6634.7	
862.4	3469.9	
862.56	3743.7	
862.73	5905	
862.9	5593	
863.07	4267.3	
863.24	3241.9	
863.41	4961.5	
863.58	5093.3	
863.75	3674.7	
863.91	4203.1	
864.08	6468.2	
864.25	5980.1	
864.42	4554	
864.59	5109.7	
864.76	6763.8	
864.93	5113.8	
865.09	3484.3	
865.26	3862.5	
865.43	6267.5	
865.6	6737.8	
865.77	3136.8	
865.94	3551.9	
866.1	6380.1	
866.27	6136.4	
866.44	5487.2	
866.61	3416.7	
866.78	5445.5	
866.95	5937.1	
867.11	3512.9	
867.28	3203	
867.45	6138.4	
867.62	5158.8	
867.79	4175.1	
867.96	3569.6	
868.12	5145.2	
868.29	6092	
868.46	3534.8	
868.63	4824.3	
868.8	6195.8	
868.97	5998.5	
869.13	3822.2	
869.3	3773.7	
869.47	5922.7	
869.64	6074.3	
869.81	3670	
869.97	3625.6	
870.14	5802.6	
870.31	6483.2	
870.48	3474	
870.65	4567	
870.81	5405.3	
870.98	5347.2	
871.15	4062.5	
871.32	3768.3	
871.48	5917.9	
871.65	6537.1	
871.82	3560.1	
871.99	3932.1	
872.16	7024.5	
872.32	6434	
872.49	3648.1	
872.66	3665.9	
872.83	6063.4	
872.99	5279.7	
873.16	4168.3	
873.33	3466.5	
873.5	5635.3	
873.67	5725.4	
873.83	3799	
874	4802.5	
874.17	5788.9	
874.34	6987	
874.5	4631.8	
874.67	4508.9	
874.84	6474.3	
875.01	5066.7	
875.17	5107	
875.34	3596.2	
875.51	5702.2	
875.68	6847.7	
875.84	4361.5	
876.01	5318.6	
876.18	5982.8	
876.34	5968.5	
876.51	3572.3	
876.68	3527.3	
876.85	5526.1	
877.01	6311.2	
877.18	5184.8	
877.35	3569.6	
877.52	5532.9	
877.68	4945.2	
877.85	3487	
878.02	3493.8	
878.18	5563	
878.35	5248.9	
878.52	2871.3	
878.69	4022.2	
878.85	6024.4	
879.02	6004	
879.19	5134.9	
879.35	3881.6	
879.52	5944.6	
879.69	6257.9	
879.86	3092.4	
880.02	4009.2	
880.19	5564.3	
880.36	6899.6	
880.52	4176.5	
880.69	4218.8	
880.86	6131.6	
881.02	6197.8	
881.19	3978.5	
881.36	3896.6	
881.52	5975.3	
881.69	5312.4	
881.86	3885.7	
882.02	3757.3	
882.19	6279.1	
882.36	7436.2	
882.52	3669.3	
882.69	5120.6	
882.86	5765	
883.02	5632.6	
883.19	4418.8	
883.36	4127.3	
883.52	6126.8	
883.69	7015	
883.86	3643.3	
884.02	3250.8	
884.19	6107.7	
884.36	5584.8	
884.52	4147.8	
884.69	3809.2	
884.86	5280.3	
885.02	6690.7	
885.19	4050.9	
885.36	4205.2	
885.52	5564.3	
885.69	5727.5	
885.86	5186.1	
886.02	4661.2	
886.19	6047	
886.35	5516.5	
886.52	3941.7	
886.69	5085.1	
886.85	5104.9	
887.02	6493.4	
887.19	6493.4	
887.35	6493.4	
887.52	6493.4	
887.68	6493.4	
887.85	6493.4	
888.02	6493.4	
888.18	6493.4	
888.35	6493.4	
888.51	6493.4	
888.68	6493.4	
888.85	6493.4	
889.01	6493.4	
889.18	6493.4	
889.35	6493.4	
889.51	6493.4	
889.68	6493.4	
889.84	6493.4	
890.01	6493.4	
890.17	6493.4	
890.34	6493.4	
890.51	6493.4	
890.67	6493.4	
890.84	6493.4	
891	6493.4	
891.17	6493.4	
891.34	6493.4	
891.5	6493.4	
891.67	6493.4	
891.83	6493.4	
892	6493.4	
892.16	6493.4	
892.33	6493.4	
892.5	6493.4	
892.66	6493.4	
892.83	6493.4	
892.99	6493.4	
893.16	6493.4	
893.32	6493.4	
893.49	6493.4	
893.65	6493.4	
893.82	6493.4	
893.99	6493.4	
894.15	6493.4	
894.32	6493.4	
894.48	6493.4	
894.65	6493.4	
894.81	6493.4	
894.98	6493.4	
895.14	6493.4	
895.31	6493.4	
895.47	6493.4	
895.64	6493.4	
895.81	6493.4	
895.97	6493.4	
896.14	6493.4	
896.3	6493.4	
896.47	6493.4	
896.63	6493.4	
896.8	6493.4	
896.96	6493.4	
897.13	6493.4	
897.29	6493.4	
897.46	6493.4	
897.62	6493.4	
897.79	6493.4	
897.95	6493.4	
898.12	6493.4	
898.28	6493.4	
898.45	6493.4	
898.61	6493.4	
898.78	6493.4	
898.94	6493.4	
899.11	6493.4	
899.27	6493.4	
899.44	6493.4	
899.6	6493.4	
899.77	6493.4	
899.93	6493.4	
900.1	6493.4	
900.26	6493.4	
900.43	6493.4	
900.59	6493.4	
900.76	6493.4	
900.92	6493.4	
901.09	6493.4	
901.25	6493.4	
901.42	6493.4	
901.58	6493.4	
901.75	6493.4	
901.91	6493.4	
902.07	6493.4	
902.24	6493.4	
902.4	6493.4	
902.57	6493.4	
902.73	6493.4	
902.9	6493.4	
903.06	6493.4	
903.23	6493.4	
903.39	6493.4	
903.56	6493.4	
903.72	6493.4	
903.88	6493.4	
904.05	6493.4	
904.21	6493.4	
904.38	6493.4	
904.54	6493.4	
904.71	6493.4	
904.87	6493.4	
905.03	6493.4	
905.2	6493.4	
905.36	6493.4	
905.53	6493.4	
905.69	6493.4	
905.86	6493.4	
906.02	6493.4	
906.18	6493.4	
906.35	6493.4	
906.51	6493.4	
906.68	6493.4	
906.84	6493.4	
907.01	6493.4	
907.17	6493.4	
907.33	6493.4	
907.5	6493.4	
907.66	6493.4	
907.83	6493.4	
907.99	6493.4	
908.15	6493.4	
908.32	6493.4	
908.48	6493.4	
908.65	6493.4	
908.81	6493.4	
908.97	6493.4	
909.14	6493.4	
909.3	6493.4	
909.47	6493.4	
909.63	6493.4	
909.79	6493.4	
909.96	6493.4	
910.12	6493.4	
910.28	6493.4	
910.45	6493.4	
910.61	6493.4	
910.78	6493.4	
910.94	6493.4	
911.1	6493.4	
911.27	6493.4	
911.43	6493.4	
911.59	6493.4	
911.76	6493.4	
911.92	6493.4	
912.08	6493.4	
912.25	6493.4	
912.41	6493.4	
912.57	6493.4	
912.74	6493.4	
912.9	6493.4	
913.07	6493.4	
913.23	6493.4	
913.39	6493.4	
913.56	6493.4	
913.72	6493.4	
913.88	6493.4	
914.05	6493.4	
914.21	6493.4	
914.37	6493.4	
914.54	6493.4	
914.7	6493.4	
914.86	6493.4	
915.03	6493.4	
915.19	6493.4	
