Wavelength	Intensities	
nm	a.u.	
179.22	1663	
179.44	1665	
179.65	1660.9	
179.86	1669.1	
180.08	1628.1	
180.29	3791.5	
180.51	2966.8	
180.72	4839.4	
180.94	5413.5	
181.15	2593.4	
181.37	2628.2	
181.58	4652.3	
181.79	4856.4	
182.01	2727.9	
182.22	2846	
182.44	4914.4	
182.65	4280.9	
182.87	3474	
183.08	3121.1	
183.29	5081	
183.51	4336.2	
183.72	2805.7	
183.94	3889.8	
184.15	4598.4	
184.37	4435.2	
184.58	2587.9	
184.79	3296.5	
185.01	4306.2	
185.22	4905.6	
185.44	3472.7	
185.65	3021.4	
185.86	4632.5	
186.08	4308.2	
186.29	2564.7	
186.51	2684.2	
186.72	4414.1	
186.94	4993.6	
187.15	3037.8	
187.36	3056.3	
187.58	6161.7	
187.79	4712.4	
188.01	3185.3	
188.22	4767	
188.43	5424.4	
188.65	4831.2	
188.86	2721.1	
189.08	3173.7	
189.29	4442	
189.5	4394.3	
189.72	2824.8	
189.93	2932.7	
190.15	4960.9	
190.36	5726.8	
190.57	3153.9	
190.79	3060.3	
191	4958.1	
191.22	4981.3	
191.43	3221.5	
191.64	2710.8	
191.86	5139	
192.07	5003.2	
192.29	2820.7	
192.5	2910.2	
192.71	4968.4	
192.93	4487.1	
193.14	2848	
193.35	2960.7	
193.57	4439.3	
193.78	4992.9	
194	2420	
194.21	2833.7	
194.42	4301.4	
194.64	4646.8	
194.85	3113.6	
195.07	3547.1	
195.28	4579.3	
195.49	4130.1	
195.71	3672	
195.92	2735.4	
196.13	4819.6	
196.35	4767	
196.56	3943	
196.78	3095.8	
196.99	5692.7	
197.2	5339.1	
197.42	3440.6	
197.63	3131.3	
197.84	4231.8	
198.06	4789.5	
198.27	2957.3	
198.48	3718.4	
198.7	4468	
198.91	4627	
199.13	3158.7	
199.34	3113.6	
199.55	5018.9	
199.77	4029.7	
199.98	2779.8	
200.19	3128.6	
200.41	4571.7	
200.62	4332.1	
200.83	3207.1	
201.05	3430.3	
201.26	4574.5	
201.47	4341	
201.69	2827.6	
201.9	2803.7	
202.11	4618.9	
202.33	5229.8	
202.54	2896.5	
202.76	3346.4	
202.97	4650.9	
203.18	4747.2	
203.4	3237.2	
203.61	3265.1	
203.82	4631.8	
204.04	4384	
204.25	3153.2	
204.46	3096.5	
204.68	4627	
204.89	4767	
205.1	3071.3	
205.32	2722.4	
205.53	4831.2	
205.74	4975.2	
205.96	2385.9	
206.17	3151.1	
206.38	4848.9	
206.6	4926.7	
206.81	3553.2	
207.02	2973.7	
207.24	4777.9	
207.45	5059.2	
207.66	2938.8	
207.88	2689	
208.09	4749.2	
208.3	4586.8	
208.52	2778.4	
208.73	3016	
208.94	4539	
209.15	5085.8	
209.37	2970.2	
209.58	3110.2	
209.79	4964.3	
210.01	4500.8	
210.22	2508.1	
210.43	2593.4	
210.65	4534.2	
210.86	4848.2	
211.07	2983.9	
211.29	2810.5	
211.5	4808.6	
211.71	4582.7	
211.93	2837.8	
212.14	2791.4	
212.35	4573.1	
212.56	4653.7	
212.78	3115.6	
212.99	2631	
213.2	5220.3	
213.42	4478.9	
213.63	2895.8	
213.84	3037.1	
214.06	4176.5	
214.27	4216.1	
214.48	3018	
214.69	3125.2	
214.91	5065.3	
215.12	5089.2	
215.33	3183.2	
215.55	3455.6	
215.76	5423.7	
215.97	4816.8	
216.18	3050.8	
216.4	3082.2	
216.61	4382	
216.82	4948.6	
217.04	2839.2	
217.25	2900.6	
217.46	5057.1	
217.67	4846.2	
217.89	2562	
218.1	2618.7	
218.31	4646.2	
218.53	4705.5	
218.74	2994.1	
218.95	2876	
219.16	4599.7	
219.38	5261.2	
219.59	2882.9	
219.8	3282.9	
220.01	5644.2	
220.23	4630.5	
220.44	3528	
220.65	2719	
220.87	4653	
221.08	5037.3	
221.29	2665.8	
221.5	3377.1	
221.72	5913.9	
221.93	4363.5	
222.14	3125.9	
222.35	3577.1	
222.57	4620.2	
222.78	4915.8	
222.99	3028.3	
223.2	3209.2	
223.42	4745.1	
223.63	4898.7	
223.84	2405.7	
224.05	2387.2	
224.27	5520.6	
224.48	5171.8	
224.69	3694.5	
224.9	3156.6	
225.12	4697.4	
225.33	4573.8	
225.54	2624.1	
225.75	2824.1	
225.97	4300.1	
226.18	4555.4	
226.39	3024.8	
226.6	2861.7	
226.82	4448.9	
227.03	4311	
227.24	3158	
227.45	2689	
227.67	4934.2	
227.88	5125.4	
228.09	3463.1	
228.3	3424.9	
228.52	4906.3	
228.73	4554.7	
228.94	2927.2	
229.15	2684.9	
229.36	4631.8	
229.58	4536.3	
229.79	2983.9	
230	3398.3	
230.21	5300.8	
230.43	4646.2	
230.64	3125.2	
230.85	3145	
231.06	4899.4	
231.28	4887.1	
231.49	2637.1	
231.7	3110.9	
231.91	4885.8	
232.12	4633.9	
232.34	2788	
232.55	3062.4	
232.76	5007.3	
232.97	4706.2	
233.18	2759.3	
233.4	3117.7	
233.61	4715.1	
233.82	4504.2	
234.03	2965.5	
234.25	2949.8	
234.46	6025.1	
234.67	4636.6	
234.88	3147.7	
235.09	2868.5	
235.31	4726.7	
235.52	4521.9	
235.73	3125.2	
235.94	2681.5	
236.15	4367	
236.37	5384.8	
236.58	2840.5	
236.79	2976.4	
237	4815.5	
237.21	4229.7	
237.43	3212.6	
237.64	2600.2	
237.85	7322.9	
238.06	4334.9	
238.27	3221.5	
238.48	2682.2	
238.7	4816.8	
238.91	4515.1	
239.12	2917.7	
239.33	3059.7	
239.54	4333.5	
239.76	4511	
239.97	2972.3	
240.18	3014.6	
240.39	5373.2	
240.6	4720.6	
240.82	3143.6	
241.03	2695.8	
241.24	4564.9	
241.45	5128.8	
241.66	2852.8	
241.87	3269.2	
242.09	5176.6	
242.3	5343.2	
242.51	3255.6	
242.72	3039.9	
242.93	4891.2	
243.14	4584.7	
243.36	3459	
243.57	3672.7	
243.78	5209.3	
243.99	4838.7	
244.2	3009.1	
244.41	2729.9	
244.63	4255.7	
244.84	4752	
245.05	3262.4	
245.26	3009.8	
245.47	4810.7	
245.68	4911	
245.9	3791.5	
246.11	3165.5	
246.32	4461.2	
246.53	4799.1	
246.74	4690.5	
246.95	2650.8	
247.16	4332.1	
247.38	4596.3	
247.59	2634.4	
247.8	3063.8	
248.01	4321.9	
248.22	4585.4	
248.43	2772.9	
248.64	3004.4	
248.86	4230.4	
249.07	4402.5	
249.28	2690.3	
249.49	3115.6	
249.7	4923.3	
249.91	4955.4	
250.12	2603.7	
250.34	2681.5	
250.55	4689.2	
250.76	4595	
250.97	3100.6	
251.18	3160	
251.39	5024.3	
251.6	4728.1	
251.81	3187.3	
252.03	3159.3	
252.24	4473.4	
252.45	4891.9	
252.66	2702.6	
252.87	3224.2	
253.08	4672.1	
253.29	5608.7	
253.5	2770.2	
253.72	3629.7	
253.93	4514.4	
254.14	5249.6	
254.35	2880.1	
254.56	2932.7	
254.77	4717.8	
254.98	4328.7	
255.19	2901.3	
255.41	3532.1	
255.62	4699.4	
255.83	4973.2	
256.04	3204.4	
256.25	3140.9	
256.46	5375.9	
256.67	4414.7	
256.88	3130.7	
257.09	3404.4	
257.31	4285.7	
257.52	4416.1	
257.73	3811.3	
257.94	2898.6	
258.15	4549.2	
258.36	4584	
258.57	3514.3	
258.78	2366.1	
258.99	4969.1	
259.2	4457.1	
259.41	2882.2	
259.63	2994.8	
259.84	5160.9	
260.05	5347.2	
260.26	3706.8	
260.47	2777	
260.68	4992.3	
260.89	4536.9	
261.1	3418.1	
261.31	2808.4	
261.52	5085.1	
261.73	5225.1	
261.95	3663.8	
262.16	3210.5	
262.37	5082.4	
262.58	5112.4	
262.79	3618.8	
263	2921.8	
263.21	4685.8	
263.42	4155.3	
263.63	3145.7	
263.84	2918.4	
264.05	4949.3	
264.26	5159.5	
264.47	3568.2	
264.69	3138.2	
264.9	5135.6	
265.11	4726.7	
265.32	2812.5	
265.53	2882.2	
265.74	4680.3	
265.95	4130.1	
266.16	3045.3	
266.37	3343.7	
266.58	4728.8	
266.79	4485.1	
267	2892.4	
267.21	2691	
267.42	4236.6	
267.63	4569	
267.84	2975	
268.06	2666.5	
268.27	4863.2	
268.48	5030.5	
268.69	2979.8	
268.9	3387.3	
269.11	5072.8	
269.32	4184	
269.53	3014.6	
269.74	2811.9	
269.95	4760.8	
270.16	4166.9	
270.37	3042.6	
270.58	3452.2	
270.79	4528.1	
271	4935.6	
271.21	3115.6	
271.42	3017.3	
271.63	4790.2	
271.84	4248.9	
272.05	2553.8	
272.26	2773.6	
272.47	4586.1	
272.68	4724.7	
272.89	2950.4	
273.11	3291.1	
273.32	4418.2	
273.53	5163.6	
273.74	3187.3	
273.95	3147.7	
274.16	4954	
274.37	4578.6	
274.58	3291.8	
274.79	2688.3	
275	4722.6	
275.21	4976.6	
275.42	3838.6	
275.63	3284.3	
275.84	4842.1	
276.05	5753.4	
276.26	3157.3	
276.47	2964.1	
276.68	4557.4	
276.89	5302.9	
277.1	3387.3	
277.31	2660.3	
277.52	4730.1	
277.73	5011.4	
277.94	2708.8	
278.15	2928.6	
278.36	4791.6	
278.57	4362.2	
278.78	2919	
278.99	3223.5	
279.2	4454.3	
279.41	4296.6	
279.62	3739.6	
279.83	2719.7	
280.04	5399.1	
280.25	4322.6	
280.46	3700	
280.67	3053.5	
280.88	4374.5	
281.09	5038.7	
281.3	3160.7	
281.51	3828.3	
281.72	4373.8	
281.93	4923.3	
282.14	2867.2	
282.35	3074.7	
282.56	4991.6	
282.77	4887.1	
282.98	2955.2	
283.19	3485.6	
283.4	5843.5	
283.61	4566.3	
283.82	2762.7	
284.03	3620.8	
284.24	4769	
284.45	4982.7	
284.66	3685.7	
284.87	3493.8	
285.08	4976.6	
285.29	5091.3	
285.5	2611.8	
285.71	3001	
285.92	4948.6	
286.12	5418.9	
286.33	3649.5	
286.54	2992.1	
286.75	4870.1	
286.96	4517.8	
287.17	2760.7	
287.38	3524.6	
287.59	4367.6	
287.8	4359.4	
288.01	2936.1	
288.22	3366.2	
288.43	4770.4	
288.64	4164.9	
288.85	3444	
289.06	3337.5	
289.27	4909	
289.48	5177.3	
289.69	3622.2	
289.9	3362.8	
290.11	5066	
290.32	4428.4	
290.53	3496.6	
290.74	3218.7	
290.94	4881	
291.15	4911	
291.36	2865.8	
291.57	3282.2	
291.78	4543.8	
291.99	4156	
292.2	2773.6	
292.41	3229.6	
292.62	4985.4	
292.83	4769	
293.04	3860.4	
293.25	2856.9	
293.46	4454.3	
293.67	5002.5	
293.88	2786.6	
294.09	2777	
294.29	4317.1	
294.5	4704.2	
294.71	3054.9	
294.92	2869.2	
295.13	4472.1	
295.34	5399.8	
295.55	2626.2	
295.76	2607.1	
295.97	4870.1	
296.18	5335	
296.39	2732	
296.6	2837.1	
296.81	4668	
297.01	4896.7	
297.22	3023.5	
297.43	2877.4	
297.64	4465.3	
297.85	4341	
298.06	2444.6	
298.27	2640.5	
298.48	4586.1	
298.69	4382	
298.9	3101.3	
299.11	2837.1	
299.31	4262.5	
299.52	4317.8	
299.73	3276.8	
299.94	3195.5	
300.15	4586.1	
300.36	4394.3	
300.57	3207.1	
300.78	3184.6	
300.99	4518.5	
301.2	4625.7	
301.4	2942.2	
301.61	3054.9	
301.82	4858.5	
302.03	4851.6	
302.24	3407.1	
302.45	2789.3	
302.66	4828.4	
302.87	5034.6	
303.08	2902.7	
303.29	3745.7	
303.49	4469.4	
303.7	4539	
303.91	2625.5	
304.12	3617.4	
304.33	4217.5	
304.54	4666.6	
304.75	2893.8	
304.96	2794.8	
305.16	4888.5	
305.37	5285.1	
305.58	2615.9	
305.79	2651.4	
306	4803.9	
306.21	4197.7	
306.42	2902.7	
306.63	4124.6	
306.83	4464.6	
307.04	4861.2	
307.25	3100.6	
307.46	3122.5	
307.67	4076.8	
307.88	4870.8	
308.09	2899.2	
308.29	2925.2	
308.5	4689.2	
308.71	5033.2	
308.92	3001.6	
309.13	2801.6	
309.34	4626.4	
309.55	4506.9	
309.75	3505.4	
309.96	3211.9	
310.17	4845.5	
310.38	4392.2	
310.59	3315.7	
310.8	2686.9	
311.01	4471.4	
311.21	4520.5	
311.42	2813.2	
311.63	2876	
311.84	4442.7	
312.05	4660.5	
312.26	3189.4	
312.46	3421.5	
312.67	4444.8	
312.88	4267.3	
313.09	2803	
313.3	2751.1	
313.51	5139.7	
313.71	5387.5	
313.92	2789.3	
314.13	2920.4	
314.34	4691.9	
314.55	4592.9	
314.76	3444	
314.96	3080.8	
315.17	4734.2	
315.38	4735.6	
315.59	2843.9	
315.8	2682.2	
316.01	5085.8	
316.21	5209.3	
316.42	2772.9	
316.63	3061	
316.84	4491.9	
317.05	4994.3	
317.26	3229	
317.46	2980.5	
317.67	4632.5	
317.88	4926.7	
318.09	3403	
318.3	2613.9	
318.5	4440.7	
318.71	4782	
318.92	4199.7	
319.13	3264.5	
319.34	4959.5	
319.54	4967.7	
319.75	2642.6	
319.96	2575.7	
320.17	4837.3	
320.38	4965	
320.58	2580.4	
320.79	3011.9	
321	5027.1	
321.21	5114.5	
321.42	3049.4	
321.62	2599.6	
321.83	4392.2	
322.04	4605.9	
322.25	2925.2	
322.46	2831.7	
322.66	4665.3	
322.87	4889.9	
323.08	3355.3	
323.29	2765.4	
323.5	5367.7	
323.7	4249.5	
323.91	3662.5	
324.12	3296.5	
324.33	4754.7	
324.53	4861.9	
324.74	3163.4	
324.95	3340.2	
325.16	4233.2	
325.37	4491.9	
325.57	2813.2	
325.78	2843.9	
325.99	4741	
326.2	4283.7	
326.4	3842.7	
326.61	2644.6	
326.82	4521.2	
327.03	4683.7	
327.24	3817.4	
327.44	3553.9	
327.65	4800.4	
327.86	4061.1	
328.07	3216.7	
328.27	2746.3	
328.48	5072.1	
328.69	4298	
328.9	3801	
329.1	2908.8	
329.31	4567.7	
329.52	5093.3	
329.73	2794.8	
329.93	3073.3	
330.14	4698	
330.35	4758.1	
330.56	4301.4	
330.76	3316.3	
330.97	4463.2	
331.18	4645.5	
331.39	3058.3	
331.59	2558.6	
331.8	4929.5	
332.01	5068.7	
332.22	2903.3	
332.42	3191.4	
332.63	4725.3	
332.84	4314.4	
333.05	3067.9	
333.25	2849.4	
333.46	4422.9	
333.67	4617.5	
333.88	2894.5	
334.08	3193.5	
334.29	5859.9	
334.5	4951.3	
334.7	2781.8	
334.91	3800.3	
335.12	4265.9	
335.33	4838	
335.53	3109.5	
335.74	4240	
335.95	4526.7	
336.16	4238.6	
336.36	3045.3	
336.57	3415.3	
336.78	4293.2	
336.98	4995.7	
337.19	3674.1	
337.4	3007.1	
337.61	5443.5	
337.81	4266.6	
338.02	2880.8	
338.23	3495.9	
338.43	5113.8	
338.64	4356.7	
338.85	2892.4	
339.05	3541.6	
339.26	5248.3	
339.47	4235.9	
339.68	2766.1	
339.88	3878.9	
340.09	4831.2	
340.3	4954	
340.5	3250.1	
340.71	2596.1	
340.92	4304.1	
341.13	5069.4	
341.33	2736.8	
341.54	3220.8	
341.75	4803.2	
341.95	4496.7	
342.16	3096.5	
342.37	3329.3	
342.57	4310.3	
342.78	4498.7	
342.99	3375.7	
343.19	2603	
343.4	4915.1	
343.61	4735.6	
343.81	3050.8	
344.02	2721.8	
344.23	4866.7	
344.43	5070.8	
344.64	3360.7	
344.85	3332	
345.06	4795	
345.26	5046.9	
345.47	3216.7	
345.68	3639.2	
345.88	4188.1	
346.09	4958.1	
346.3	3274.7	
346.5	2512.9	
346.71	4535.6	
346.92	4422.2	
347.12	2704.7	
347.33	3189.4	
347.54	4967.7	
347.74	5236	
347.95	3208.5	
348.16	2464.4	
348.36	4452.3	
348.57	4329.4	
348.78	3217.4	
348.98	3352.5	
349.19	4576.5	
349.39	4178.5	
349.6	2682.8	
349.81	2854.2	
350.01	4835.9	
350.22	4404.5	
350.43	3147.7	
350.63	3588.7	
350.84	4616.8	
351.05	4384.7	
351.25	2831.7	
351.46	2640.5	
351.67	4989.5	
351.87	4377.2	
352.08	3051.5	
352.29	3348.4	
352.49	4956.8	
352.7	4689.2	
352.9	2732	
353.11	3363.4	
353.32	5399.1	
353.52	4501.4	
353.73	2844.6	
353.94	3404.4	
354.14	4844.1	
354.35	4633.9	
354.55	2875.3	
354.76	3077.4	
354.97	4814.8	
355.17	4616.8	
355.38	2770.9	
355.59	3601	
355.79	4461.8	
356	4639.3	
356.2	3108.8	
356.41	2839.8	
356.62	4276.2	
356.82	4588.8	
357.03	3343	
357.24	2996.9	
357.44	4356.7	
357.65	4533.5	
357.85	3842.7	
358.06	3210.5	
358.27	4200.4	
358.47	4342.4	
358.68	2775	
358.88	3353.2	
359.09	4846.2	
359.3	5027.1	
359.5	3807.2	
359.71	3493.8	
359.91	5410.7	
360.12	4855.1	
360.33	3411.9	
360.53	3715.7	
360.74	4503.5	
360.94	4514.4	
361.15	3525.9	
361.36	2973.7	
361.56	5115.1	
361.77	4764.9	
361.97	3887.7	
362.18	3137.5	
362.38	5134.9	
362.59	4399	
362.8	2985.3	
363	2859	
363.21	4295.3	
363.41	4788.8	
363.62	3295.2	
363.83	3999	
364.03	4878.3	
364.24	5390.3	
364.44	4143	
364.65	4014.7	
364.85	4705.5	
365.06	4432.5	
365.27	3121.8	
365.47	3183.9	
365.68	5326.1	
365.88	4681	
366.09	3424.9	
366.29	3141.6	
366.5	4820.2	
366.71	5147.2	
366.91	4042	
367.12	3581.2	
367.32	5595.7	
367.53	5025.7	
367.73	3575.8	
367.94	4173.1	
368.14	5051.7	
368.35	5612.8	
368.56	3543.7	
368.76	3321.8	
368.97	5134.9	
369.17	6175.3	
369.38	3091.8	
369.58	3338.2	
369.79	4409.3	
369.99	5385.5	
370.2	4039.3	
370.4	3414	
370.61	4871.4	
370.82	5737	
371.02	3345	
371.23	2831	
371.43	4390.8	
371.64	5359.5	
371.84	3439.9	
372.05	4182	
372.25	6260	
372.46	5107.6	
372.66	3482.2	
372.87	3459	
373.07	5229.1	
373.28	6311.8	
373.48	4112.3	
373.69	3866.6	
373.9	4866	
374.1	4891.2	
374.31	4078.9	
374.51	3820.8	
374.72	5440.1	
374.92	4700.8	
375.13	4327.4	
375.33	3687	
375.54	5161.6	
375.74	4797	
375.95	3786.7	
376.15	4567	
376.36	5297.4	
376.56	5180	
376.77	3844.7	
376.97	4114.4	
377.18	6029.9	
377.38	5374.6	
377.59	4389.5	
377.79	3525.2	
378	5233.2	
378.2	5507	
378.41	3590.1	
378.61	3442.6	
378.82	5569.8	
379.02	5023	
379.23	3733.4	
379.43	4381.3	
379.64	5732.9	
379.84	5352.7	
380.05	3592.8	
380.25	3504.8	
380.46	5419.6	
380.66	5123.3	
380.87	4530.8	
381.07	4770.4	
381.28	5896.1	
381.48	5430.5	
381.69	3579.8	
381.89	3624.9	
382.1	4642.7	
382.3	5459.2	
382.51	4279.6	
382.71	4917.9	
382.91	5413.5	
383.12	5707	
383.32	3848.8	
383.53	3943	
383.73	5287.9	
383.94	5159.5	
384.14	3991.5	
384.35	3262.4	
384.55	4936.3	
384.76	5296.7	
384.96	3883.6	
385.17	3951.9	
385.37	5382.1	
385.58	4770.4	
385.78	3991.5	
385.98	3203	
386.19	4995	
386.39	5255.8	
386.6	3608.5	
386.8	3715.7	
387.01	5332.2	
387.21	5445.5	
387.42	4068.6	
387.62	4510.3	
387.83	4953.4	
388.03	5253.7	
388.23	3894.6	
388.44	4465.3	
388.64	4819.6	
388.85	4839.4	
389.05	4212.7	
389.26	4624.3	
389.46	6242.2	
389.67	5819.6	
389.87	4229.7	
390.07	4207.2	
390.28	5215.5	
390.48	4794.3	
390.69	3629.7	
390.89	3833.8	
391.1	5094.7	
391.3	5715.9	
391.5	4686.4	
391.71	5098.8	
391.91	5547.3	
392.12	6160.3	
392.32	4820.9	
392.53	4261.1	
392.73	5137.7	
392.93	5154.1	
393.14	3917.8	
393.34	4461.2	
393.55	5492.7	
393.75	5143.1	
393.95	3848.8	
394.16	3846.1	
394.36	4967.7	
394.57	5545.2	
394.77	3512.3	
394.98	3847.5	
395.18	5079.6	
395.38	5179.3	
395.59	4507.6	
395.79	3856.3	
396	5248.9	
396.2	5629.9	
396.4	4500.8	
396.61	4383.3	
396.81	5655.8	
397.02	5107.6	
397.22	4658.4	
397.42	4687.8	
397.63	5780.1	
397.83	5192.3	
398.04	3891.8	
398.24	4214	
398.44	5573.9	
398.65	4885.8	
398.85	3781.9	
399.05	3784.6	
399.26	5199.1	
399.46	6326.9	
399.67	4173.1	
399.87	3966.9	
400.07	5550	
400.28	5768.4	
400.48	4038.6	
400.69	4820.2	
400.89	5963.7	
401.09	6248.4	
401.3	4033.8	
401.5	4757.4	
401.7	6419	
401.91	6553.5	
402.11	4330.1	
402.32	4395.6	
402.52	5949.3	
402.72	5817.6	
402.93	4532.8	
403.13	3543.7	
403.33	6377.4	
403.54	5283.8	
403.74	4123.2	
403.94	4735.6	
404.15	5343.2	
404.35	6212.9	
404.56	4029.7	
404.76	5253.7	
404.96	5855.1	
405.17	5656.5	
405.37	4969.1	
405.57	4475.5	
405.78	6004.6	
405.98	5527.5	
406.18	4216.1	
406.39	4777.2	
406.59	5876.3	
406.79	5418.2	
407	3914.4	
407.2	3865.2	
407.4	6040.8	
407.61	5937.1	
407.81	4078.2	
408.01	5553.4	
408.22	5189.6	
408.42	6617.7	
408.62	5081.7	
408.83	4709	
409.03	5855.1	
409.23	5773.9	
409.44	4800.4	
409.64	5028.4	
409.84	6676.4	
410.05	6550.1	
410.25	5014.8	
410.45	4773.1	
410.66	6340.5	
410.86	8092.2	
411.06	5302.2	
411.27	5143.1	
411.47	7879.2	
411.67	6469.5	
411.88	5346.6	
412.08	5540.4	
412.28	6983.6	
412.49	7309.9	
412.69	5311.1	
412.89	5237.3	
413.09	7156.3	
413.3	7095.5	
413.5	5298.8	
413.7	5097.4	
413.91	6612.9	
414.11	7213.6	
414.31	5277.6	
414.52	5593.7	
414.72	7053.2	
414.92	6944.7	
415.12	5275.6	
415.33	5645.6	
415.53	7220.5	
415.73	7335.1	
415.94	5888.6	
416.14	5455.1	
416.34	6572.6	
416.55	6336.4	
416.75	6306.4	
416.95	5930.9	
417.15	7333.1	
417.36	7721.5	
417.56	6511.9	
417.76	5843.5	
417.97	7523.6	
418.17	7394.5	
418.37	5643.5	
418.57	5562.3	
418.78	7312.6	
418.98	7014.3	
419.18	6215.6	
419.38	6077.7	
419.59	6922.8	
419.79	6660	
419.99	5440.8	
420.2	5649	
420.4	7261.4	
420.6	7346.7	
420.8	5485.1	
421.01	5315.2	
421.21	7249.8	
421.41	7302.4	
421.61	5680.4	
421.82	5487.9	
422.02	6945.3	
422.22	7509.9	
422.42	6023.8	
422.63	5637.4	
422.83	6894.8	
423.03	7768.6	
423.23	5723.4	
423.44	5009.3	
423.64	6905.1	
423.84	6589.7	
424.04	5348.6	
424.25	5005.2	
424.45	7486.7	
424.65	7369.3	
424.85	4901.5	
425.06	5355.4	
425.26	7561.1	
425.46	6763.1	
425.66	5627.1	
425.87	5414.8	
426.07	7271	
426.27	7131.7	
426.47	5580	
426.67	5002.5	
426.88	7419.8	
427.08	6980.8	
427.28	5702.9	
427.48	4906.3	
427.69	6287.9	
427.89	6682.5	
428.09	5530.9	
428.29	5001.8	
428.5	7173.4	
428.7	6959	
428.9	4926.7	
429.1	5249.6	
429.3	6866.8	
429.51	7035.5	
429.71	5221.6	
429.91	5846.3	
430.11	7252.5	
430.31	7304.4	
430.52	5472.9	
430.72	5618.3	
430.92	7452.6	
431.12	7077.1	
431.32	5137.7	
431.53	5413.5	
431.73	6337.1	
431.93	7473	
432.13	5097.4	
432.33	5101.5	
432.54	6689.3	
432.74	6927.6	
432.94	5080.3	
433.14	5725.4	
433.34	7204.1	
433.55	6898.9	
433.75	5776.6	
433.95	6995.9	
434.15	6974	
434.35	6746	
434.56	5223.7	
434.76	4954.7	
434.96	6954.9	
435.16	7170.6	
435.36	5164.3	
435.56	5980.8	
435.77	6767.9	
435.97	6985.6	
436.17	6407.4	
436.37	5947.3	
436.57	6722.8	
436.78	6735.8	
436.98	5793	
437.18	6313.9	
437.38	7264.1	
437.58	6891.4	
437.78	6341.2	
437.99	5345.9	
438.19	7146	
438.39	7778.2	
438.59	5343.2	
438.79	4775.2	
438.99	7565.9	
439.2	6673	
439.4	4939.7	
439.6	5010.7	
439.8	7051.8	
440	7791.2	
440.2	5894.1	
440.4	6017.6	
440.61	7563.8	
440.81	7843	
441.01	5387.5	
441.21	5967.1	
441.41	7871	
441.61	7477.1	
441.81	6270.2	
442.02	6868.9	
442.22	8051.2	
442.42	7527.7	
442.62	5455.8	
442.82	5399.1	
443.02	7808.9	
443.22	7230.7	
443.43	5865.4	
443.63	5468.8	
443.83	7088.7	
444.03	7062.1	
444.23	6311.2	
444.43	6049	
444.63	7396.6	
444.83	8169.3	
445.04	5666.7	
445.24	6465.4	
445.44	7514.7	
445.64	7521.5	
445.84	5974.6	
446.04	6019	
446.24	6937.8	
446.44	7692.2	
446.65	5313.8	
446.85	5652.4	
447.05	7089.4	
447.25	7712.7	
447.45	5711.1	
447.65	5283.8	
447.85	7259.4	
448.05	6840.9	
448.25	6004.6	
448.46	5836.7	
448.66	7173.4	
448.86	6909.2	
449.06	5308.3	
449.26	5997.1	
449.46	7515.4	
449.66	6800.6	
449.86	5825.8	
450.06	5683.8	
450.26	6929	
450.47	7365.2	
450.67	5838.8	
450.87	6100.9	
451.07	7515.4	
451.27	7205.4	
451.47	5430.5	
451.67	6001.9	
451.87	6932.4	
452.07	7766.6	
452.27	5601.9	
452.47	5591	
452.67	7258.7	
452.88	7462.8	
453.08	5003.9	
453.28	6466.8	
453.48	8094.3	
453.68	7035.5	
453.88	5506.3	
454.08	5560.2	
454.28	7497.6	
454.48	7113.3	
454.68	6012.8	
454.88	6350.1	
455.08	7616.4	
455.28	7458.7	
455.48	5412.1	
455.68	5925.5	
455.89	7974.1	
456.09	7645.1	
456.29	5725.4	
456.49	5819	
456.69	7854.6	
456.89	7301	
457.09	6133	
457.29	6394.4	
457.49	7600.7	
457.69	7724.9	
457.89	6135.7	
458.09	5551.4	
458.29	7532.4	
458.49	8138.6	
458.69	6362.4	
458.89	5905.7	
459.09	8189.1	
459.29	8211.7	
459.49	5983.5	
459.69	6561	
459.9	7837.6	
460.1	7471.7	
460.3	5765	
460.5	5701.5	
460.7	7828	
460.9	7522.2	
461.1	5597.8	
461.3	6413.6	
461.5	8415.8	
461.7	8020.5	
461.9	5970.5	
462.1	6228.6	
462.3	7788.4	
462.5	8151.6	
462.7	5973.2	
462.9	6055.8	
463.1	8813.8	
463.3	8595.3	
463.5	6202.6	
463.7	6959	
463.9	7940.7	
464.1	8127	
464.3	6462	
464.5	6549.4	
464.7	8375.5	
464.9	8225.3	
465.1	7499	
465.3	6777.4	
465.5	8523	
465.7	8698.4	
465.9	7015.7	
466.1	6738.5	
466.3	8588.5	
466.5	8322.3	
466.7	7496.2	
466.9	6621.1	
467.1	8462.9	
467.3	9033.6	
467.5	7514	
467.7	6694.8	
467.9	9226.8	
468.1	9758.6	
468.3	7152.2	
468.5	7457.3	
468.7	8401.5	
468.9	8275.8	
469.1	6915.3	
469.3	7417.1	
469.5	9817.3	
469.7	8112	
469.9	7133.1	
470.1	6739.2	
470.3	8478.6	
470.5	8427.4	
470.7	7545.4	
470.9	6711.9	
471.1	8214.4	
471.3	8468.4	
471.5	6600.6	
471.69	7850.5	
471.89	8148.9	
472.09	7755.7	
472.29	7193.1	
472.49	7245	
472.69	7925.6	
472.89	8406.2	
473.09	6493.4	
473.29	6555.5	
473.49	8047.8	
473.69	8032.1	
473.89	7103	
474.09	6591	
474.29	8869.8	
474.49	8678.6	
474.69	7197.9	
474.89	6765.1	
475.09	8106.5	
475.29	7978.2	
475.49	6283.9	
475.69	6451.8	
475.88	9106	
476.08	8269	
476.28	6223.8	
476.48	6382.8	
476.68	8562.6	
476.88	8260.8	
477.08	6342.6	
477.28	6576	
477.48	8010.3	
477.68	8402.8	
477.88	6139.8	
478.08	6401.3	
478.28	8691.6	
478.48	8012.3	
478.67	6470.9	
478.87	6006.7	
479.07	8558.5	
479.27	8016.4	
479.47	6481.1	
479.67	6619.7	
479.87	8343.4	
480.07	8649.9	
480.27	6051.7	
480.47	7104.4	
480.67	8009.6	
480.87	8557.1	
481.06	6294.1	
481.26	6854.6	
481.46	8112.7	
481.66	7937.2	
481.86	6594.5	
482.06	7185	
482.26	7866.9	
482.46	8410.3	
482.66	6548	
482.86	6159.6	
483.05	8186.4	
483.25	7589.1	
483.45	8181	
483.65	6436.1	
483.85	7696.3	
484.05	7882.6	
484.25	6870.3	
484.45	7113.3	
484.65	8575.5	
484.84	8625.4	
485.04	6495.5	
485.24	6430.6	
485.44	8942.1	
485.64	7626.6	
485.84	6012.2	
486.04	6937.8	
486.24	7962.5	
486.44	8142.7	
486.63	5967.1	
486.83	6606.1	
487.03	7960.5	
487.23	7957	
487.43	6130.3	
487.63	7757	
487.83	8234.2	
488.02	8594.6	
488.22	6843.6	
488.42	7217	
488.62	8664.3	
488.82	7931.8	
489.02	6493.4	
489.22	6571.9	
489.41	8593.3	
489.61	8423.3	
489.81	6343.2	
490.01	6290.7	
490.21	8509.3	
490.41	9041.8	
490.61	6428.6	
490.8	6502.3	
491	8229.4	
491.2	7793.2	
491.4	6677.1	
491.6	6150.7	
491.8	8057.4	
491.99	8048.5	
492.19	5954.8	
492.39	6238.8	
492.59	8449.9	
492.79	8598.1	
492.99	7002.7	
493.18	6386.2	
493.38	8757.1	
493.58	9161.9	
493.78	6850.5	
493.98	6556.9	
494.18	8491.6	
494.37	8073.1	
494.57	7052.5	
494.77	7026.6	
494.97	8718.2	
495.17	8893	
495.37	6765.1	
495.56	7079.1	
495.76	9039.1	
495.96	8781	
496.16	7617.8	
496.36	6838.9	
496.55	8994.7	
496.75	8544.1	
496.95	7124.2	
497.15	7064.8	
497.35	8830.2	
497.54	8829.5	
497.74	6859.3	
497.94	8186.4	
498.14	9368.1	
498.34	9131.2	
498.53	6802	
498.73	7314.7	
498.93	8385.7	
499.13	8900.5	
499.33	7133.8	
499.52	7540.6	
499.72	8960.5	
499.92	8996	
500.12	7006.1	
500.32	7130.3	
500.51	9118.2	
500.71	8877.9	
500.91	7617.1	
501.11	7408.9	
501.31	8916.2	
501.5	9232.9	
501.7	7864.2	
501.9	7238.2	
502.1	8808.3	
502.29	9087.5	
502.49	7471.7	
502.69	7647.1	
502.89	8961.9	
503.09	8940.1	
503.28	6640.2	
503.48	6787.7	
503.68	8383.7	
503.88	8277.2	
504.07	7443	
504.27	7029.3	
504.47	8594.6	
504.67	8701.8	
504.86	7335.8	
505.06	7064.1	
505.26	8441	
505.46	9475.3	
505.65	6967.9	
505.85	7062.8	
506.05	8291.5	
506.25	8664.3	
506.44	6546.7	
506.64	7068.2	
506.84	8163.2	
507.04	8724.3	
507.23	6556.9	
507.43	6834.1	
507.63	9471.2	
507.83	8271.7	
508.02	6923.5	
508.22	6618.4	
508.42	9617.9	
508.62	8092.2	
508.81	6735.8	
509.01	7236.2	
509.21	7906.5	
509.4	8204.8	
509.6	6958.3	
509.8	6408.8	
510	8150.9	
510.19	9055.4	
510.39	6479.1	
510.59	6503	
510.79	8080.6	
510.98	9056.8	
511.18	6599.9	
511.38	6664.1	
511.57	8707.3	
511.77	8478.6	
511.97	7025.2	
512.17	6450.4	
512.36	8591.2	
512.56	8424	
512.76	6378.7	
512.95	6199.2	
513.15	8649.9	
513.35	7561.1	
513.55	7045.7	
513.74	6398.5	
513.94	8561.2	
514.14	8153.6	
514.33	7126.2	
514.53	6869.6	
514.73	8032.8	
514.92	8263.6	
515.12	6468.9	
515.32	6367.8	
515.51	8393.9	
515.71	8588.5	
515.91	7576.8	
516.11	6384.2	
516.3	9488.2	
516.5	8022.6	
516.7	6847	
516.89	7187.7	
517.09	8145.5	
517.29	8073.1	
517.48	6948.1	
517.68	6614.3	
517.88	7874.4	
518.07	8369.4	
518.27	6905.1	
518.47	6307.7	
518.66	8729.8	
518.86	7727	
519.06	6156.9	
519.25	6429.3	
519.45	8011	
519.65	8974.2	
519.84	6882.5	
520.04	7402.7	
520.24	9265.7	
520.43	8359.1	
520.63	6791.1	
520.83	6520.7	
521.02	7785.7	
521.22	8240.3	
521.42	6774	
521.61	7185	
521.81	7990.5	
522.01	8174.1	
522.2	6750.8	
522.4	6536.4	
522.6	8469	
522.79	7577.5	
522.99	6563.7	
523.18	6169.8	
523.38	8292.9	
523.58	8289.5	
523.77	7525.6	
523.97	6266.1	
524.17	9591.3	
524.36	9054.8	
524.56	7247.1	
524.76	6854.6	
524.95	8301.8	
525.15	8062.9	
525.34	6728.9	
525.54	6855.2	
525.74	8617.9	
525.93	7950.2	
526.13	7595.9	
526.33	6821.8	
526.52	8867.7	
526.72	8543.4	
526.91	7651.2	
527.11	7117.4	
527.31	8765.3	
527.5	9127.8	
527.7	7126.2	
527.89	6455.2	
528.09	8161.2	
528.29	8591.2	
528.48	7396.6	
528.68	7093.5	
528.87	8877.3	
529.07	8761.9	
529.27	7086.7	
529.46	6704.4	
529.66	8580.3	
529.85	8854.7	
530.05	6631.3	
530.25	7137.2	
530.44	9568.1	
530.64	8391.2	
530.83	6853.2	
531.03	6961	
531.23	8884.8	
531.42	8660.9	
531.62	7544	
531.81	6958.3	
532.01	9015.2	
532.21	9101.9	
532.4	6997.9	
532.6	7182.9	
532.79	9594.1	
532.99	9114.1	
533.18	7247.8	
533.38	7778.2	
533.58	8836.3	
533.77	9159.2	
533.97	7281.9	
534.16	7752.9	
534.36	9422	
534.55	8690.2	
534.75	7816.4	
534.95	7192.5	
535.14	9367.4	
535.34	8720.3	
535.53	7069.6	
535.73	8271.1	
535.92	9694.4	
536.12	8796	
536.31	7037.5	
536.51	7816.4	
536.71	8933.2	
536.9	8606.2	
537.1	7124.2	
537.29	7293.5	
537.49	9316.2	
537.68	8589.2	
537.88	7533.1	
538.07	6891.4	
538.27	8819.9	
538.46	9613.8	
538.66	6963.8	
538.86	7114.6	
539.05	8873.8	
539.25	9196.7	
539.44	7478.5	
539.64	7088	
539.83	8756.4	
540.03	9364	
540.22	6923.5	
540.42	6962.4	
540.61	8800.1	
540.81	8872.5	
541	7268.2	
541.2	7868.3	
541.39	8477.2	
541.59	8732.5	
541.78	7524.2	
541.98	6894.1	
542.18	8269	
542.37	8230.8	
542.57	7212.3	
542.76	7454.6	
542.96	8277.2	
543.15	8697	
543.35	7130.3	
543.54	6664.1	
543.74	8724.3	
543.93	8574.8	
544.13	7062.8	
544.32	7814.4	
544.52	8876.6	
544.71	8190.5	
544.91	6498.2	
545.1	7261.4	
545.3	8275.8	
545.49	8589.2	
545.69	6376	
545.88	6819.1	
546.08	9339.4	
546.27	8986.5	
546.47	7114.6	
546.66	6649.1	
546.86	8866.3	
547.05	9143.5	
547.24	6814.3	
547.44	6831.3	
547.63	8023.9	
547.83	8870.4	
548.02	6883.9	
548.22	7023.9	
548.41	7970.7	
548.61	8761.2	
548.8	6620.4	
549	6546.7	
549.19	8366.6	
549.39	8682	
549.58	6411.5	
549.78	6776.7	
549.97	8637.6	
550.17	8159.1	
550.36	7326.9	
550.55	7973.4	
550.75	8237.6	
550.94	8918.2	
551.14	6504.3	
551.33	6741.9	
551.53	7849.2	
551.72	8434.9	
551.92	6798.6	
552.11	6652.5	
552.31	8570.1	
552.5	8516.8	
552.69	7681.2	
552.89	6406.7	
553.08	8374.1	
553.28	8101.8	
553.47	6623.8	
553.67	7275.1	
553.86	8867	
554.06	7673.1	
554.25	5956.2	
554.44	6442.9	
554.64	9330.5	
554.83	8966.7	
555.03	6365.8	
555.22	6606.1	
555.42	8526.4	
555.61	8301.1	
555.8	6554.9	
556	6640.2	
556.19	7849.9	
556.39	8556.4	
556.58	6506.4	
556.78	6582.2	
556.97	8345.5	
557.16	7958.4	
557.36	7367.2	
557.55	6204	
557.75	7546.1	
557.94	8753	
558.13	6290.7	
558.33	6163	
558.52	8613.8	
558.72	7716.7	
558.91	6163	
559.1	6380.1	
559.3	7604.1	
559.49	7318.1	
559.69	5930.9	
559.88	6567.2	
560.07	8142.7	
560.27	8477.2	
560.46	6816.3	
560.66	6807.4	
560.85	8075.1	
561.04	7406.1	
561.24	6212.9	
561.43	6258.6	
561.63	7628	
561.82	7793.9	
562.01	7066.9	
562.21	6447	
562.4	8039.6	
562.59	8729.1	
562.79	6407.4	
562.98	6143.9	
563.18	8055.3	
563.37	9055.4	
563.56	6766.5	
563.76	6189	
563.95	7719.5	
564.14	7619.1	
564.34	6429.3	
564.53	6149.4	
564.73	8120.9	
564.92	8140.7	
565.11	6477.7	
565.31	6049.7	
565.5	8445.1	
565.69	7617.8	
565.89	6320.7	
566.08	6390.3	
566.27	8288.8	
566.47	8628.8	
566.66	6909.8	
566.85	5922	
567.05	8101.1	
567.24	7684	
567.44	6205.3	
567.63	7044.3	
567.82	8245.1	
568.02	7894.9	
568.21	6156.9	
568.4	6336.4	
568.6	7940.7	
568.79	7983.7	
568.98	6017.6	
569.18	6158.2	
569.37	7944.8	
569.56	9164	
569.76	6447	
569.95	7104.4	
570.14	8174.8	
570.34	8062.2	
570.53	6087.2	
570.72	6019.7	
570.91	8490.9	
571.11	7817.8	
571.3	6422.4	
571.49	6997.2	
571.69	7995.3	
571.88	7576.1	
572.07	6688.7	
572.27	6709.1	
572.46	7530.4	
572.65	8181	
572.85	6248.4	
573.04	6405.4	
573.23	8457.4	
573.43	7862.8	
573.62	6032.6	
573.81	6470.9	
574	8046.5	
574.2	7847.1	
574.39	6384.9	
574.58	6392.4	
574.78	8501.1	
574.97	8017.8	
575.16	6664.8	
575.36	6707.1	
575.55	8318.2	
575.74	8400.1	
575.93	6070.9	
576.13	6675.7	
576.32	7886.7	
576.51	8280.6	
576.71	6419	
576.9	7314	
577.09	8526.4	
577.28	8131.8	
577.48	6651.1	
577.67	5930.2	
577.86	8012.3	
578.05	8147.5	
578.25	6455.9	
578.44	6531.7	
578.63	8094.3	
578.83	8802.2	
579.02	6059.9	
579.21	7159.7	
579.4	8008.9	
579.6	7868.3	
579.79	6528.9	
579.98	7924.3	
580.17	8263.6	
580.37	8503.8	
580.56	6260.6	
580.75	6621.1	
580.94	8632.2	
581.14	8670.4	
581.33	7050.5	
581.52	6275	
581.71	8225.3	
581.91	8781.7	
582.1	6160.3	
582.29	6386.2	
582.48	8067.6	
582.68	8103.1	
582.87	6764.4	
583.06	6617.7	
583.25	8341.4	
583.45	7822.6	
583.64	7062.1	
583.83	7440.3	
584.02	8023.9	
584.21	8305.9	
584.41	6922.1	
584.6	6522.8	
584.79	8101.8	
584.98	8553	
585.18	6215.6	
585.37	6154.8	
585.56	7849.2	
585.75	8215.1	
585.94	6272.2	
586.14	6751.5	
586.33	8672.5	
586.52	7949.5	
586.71	6613.6	
586.91	6402	
587.1	7589.1	
587.29	8320.2	
587.48	6322.8	
587.67	6238.1	
587.87	8210.3	
588.06	8127	
588.25	7173.4	
588.44	6594.5	
588.63	7838.9	
588.83	8243.1	
589.02	6338.5	
589.21	6191	
589.4	7798	
589.59	7602.1	
589.78	5596.4	
589.98	5627.8	
590.17	7217	
590.36	7432.8	
590.55	5255.1	
590.74	5759.6	
590.94	8403.5	
591.13	7438.9	
591.32	5705	
591.51	5346.6	
591.7	7756.3	
591.89	7396.6	
592.09	5479.7	
592.28	5804.6	
592.47	6913.3	
592.66	8260.1	
592.85	5472.2	
593.05	5623.7	
593.24	7370.6	
593.43	7871.7	
593.62	5685.2	
593.81	6020.3	
594	7402	
594.19	7507.2	
594.39	5673.6	
594.58	5628.5	
594.77	7647.1	
594.96	8034.9	
595.15	5645.6	
595.34	5975.3	
595.54	7603.4	
595.73	6967.2	
595.92	5085.1	
596.11	5825.1	
596.3	7910.6	
596.49	7062.8	
596.68	5777.3	
596.88	6096.8	
597.07	7746.1	
597.26	6934.4	
597.45	5483.1	
597.64	6249	
597.83	7105.8	
598.02	7527	
598.22	5515.9	
598.41	5929.6	
598.6	7429.3	
598.79	7019.8	
598.98	5489.2	
599.17	6174.6	
599.36	7433.4	
599.55	8110	
599.74	6935.8	
599.94	6662	
600.13	7804.8	
600.32	6943.3	
600.51	5371.8	
600.7	5386.8	
600.89	8168.7	
601.08	8269.7	
601.27	5299.5	
601.47	5986.9	
601.66	7662.1	
601.85	8132.5	
602.04	5782.1	
602.23	5996.5	
602.42	7081.2	
602.61	7578.8	
602.8	5675.6	
602.99	5573.2	
603.18	7322.9	
603.37	7481.9	
603.57	6023.8	
603.76	6452.5	
603.95	7970.7	
604.14	7656	
604.33	5674.2	
604.52	5821.7	
604.71	7528.3	
604.9	7176.8	
605.09	6174.6	
605.28	6120.7	
605.47	7881.9	
605.66	7561.1	
605.86	5980.1	
606.05	5570.5	
606.24	7830.1	
606.43	6793.1	
606.62	5847	
606.81	6365.1	
607	7795.9	
607.19	7156.3	
607.38	5414.1	
607.57	5594.4	
607.76	7098.9	
607.95	6735.1	
608.14	5866.1	
608.33	6268.1	
608.52	7064.1	
608.72	7709.9	
608.91	5374.6	
609.1	5236	
609.29	7147.4	
609.48	6800.6	
609.67	5883.8	
609.86	5274.2	
610.05	6921.5	
610.24	6995.2	
610.43	5259.2	
610.62	5001.8	
610.81	7854.6	
611	7739.3	
611.19	5374.6	
611.38	5851	
611.57	7341.3	
611.76	8127	
611.95	5184.8	
612.14	5079.6	
612.33	7084.6	
612.52	6911.2	
612.71	5548.6	
612.9	4962.9	
613.09	6597.9	
613.28	8198.7	
613.47	5431.2	
613.66	5960.3	
613.85	7276.4	
614.04	6824.5	
614.24	5379.3	
614.43	4915.1	
614.62	7338.6	
614.81	7320.1	
615	5738.4	
615.19	5745.2	
615.38	6808.8	
615.57	7067.5	
615.76	5732.9	
615.95	6293.4	
616.14	7354.9	
616.33	7104.4	
616.52	5848.3	
616.71	5870.2	
616.9	7284.6	
617.09	7168.6	
617.28	5487.2	
617.47	6280.4	
617.66	6756.2	
617.85	6707.8	
618.04	6060.6	
618.22	5669.5	
618.41	6994.5	
618.6	7563.1	
618.79	5666	
618.98	5498.1	
619.17	7792.5	
619.36	6558.3	
619.55	5567.7	
619.74	5640.1	
619.93	7230	
620.12	6881.9	
620.31	5943.9	
620.5	5984.8	
620.69	7661.5	
620.88	8023.9	
621.07	6457.2	
621.26	5820.3	
621.45	7368.6	
621.64	7395.2	
621.83	5918.6	
622.02	5388.9	
622.21	7543.4	
622.4	7271.7	
622.59	6312.5	
622.78	6251.1	
622.97	7063.4	
623.16	7639.6	
623.35	5926.8	
623.54	5229.8	
623.72	7198.6	
623.91	7260	
624.1	6197.2	
624.29	5223	
624.48	8001.4	
624.67	7516	
624.86	5969.8	
625.05	5412.8	
625.24	8042.4	
625.43	6953.5	
625.62	7161.7	
625.81	5587.5	
626	7602.7	
626.19	7161.1	
626.38	5985.5	
626.56	5640.8	
626.75	7019.1	
626.94	7597.3	
627.13	6205.3	
627.32	5208.7	
627.51	7521.5	
627.7	8155.7	
627.89	5263.3	
628.08	6064	
628.27	6961	
628.46	7059.3	
628.65	5418.2	
628.83	5180.7	
629.02	7593.2	
629.21	6910.5	
629.4	5694.7	
629.59	5905.7	
629.78	6858	
629.97	7589.8	
630.16	5887.2	
630.35	5510.4	
630.54	8024.6	
630.72	7802.8	
630.91	5674.2	
631.1	5930.2	
631.29	7346.7	
631.48	7413	
631.67	6022.4	
631.86	5642.2	
632.05	7130.3	
632.24	7156.3	
632.42	5410.7	
632.61	5803.9	
632.8	7176.8	
632.99	6913.9	
633.18	5752.7	
633.37	5915.2	
633.56	7376.8	
633.75	7222.5	
633.93	5872.2	
634.12	5613.5	
634.31	7984.3	
634.5	7583.6	
634.69	5722	
634.88	5948	
635.07	7177.4	
635.25	7620.5	
635.44	6253.1	
635.63	6376	
635.82	7098.3	
636.01	6651.1	
636.2	6255.2	
636.39	5903.6	
636.57	7947.5	
636.76	7496.9	
636.95	5453.7	
637.14	6402.6	
637.33	7468.3	
637.52	7900.4	
637.7	5333.6	
637.89	6081.1	
638.08	7092.8	
638.27	8102.4	
638.46	6044.9	
638.65	6310.5	
638.83	8002.1	
639.02	7004.7	
639.21	6044.2	
639.4	6298.2	
639.59	7252.5	
639.78	7042.3	
639.96	5457.8	
640.15	5541.1	
640.34	7204.1	
640.53	7240.3	
640.72	5311.1	
640.91	5478.3	
641.09	6763.8	
641.28	7754.3	
641.47	5511.8	
641.66	6074.3	
641.85	7262.1	
642.03	7448.5	
642.22	5771.9	
642.41	5547.3	
642.6	6843.6	
642.79	6413.6	
642.97	5444.9	
643.16	5793.7	
643.35	6763.1	
643.54	6658.6	
643.73	5302.2	
643.91	5875.6	
644.1	6618.4	
644.29	6980.8	
644.48	5395.7	
644.67	5403.9	
644.85	6680.5	
645.04	7005.4	
645.23	5078.3	
645.42	5292.6	
645.6	6681.2	
645.79	7374.7	
645.98	5254.4	
646.17	4535.6	
646.36	6389.7	
646.54	6737.8	
646.73	5795.8	
646.92	4919.2	
647.11	6522.8	
647.29	7086.7	
647.48	5016.8	
647.67	4732.2	
647.86	7273.7	
648.05	7311.9	
648.23	5214.1	
648.42	6081.8	
648.61	6962.4	
648.8	6675	
648.98	4897.4	
649.17	5187.5	
649.36	6389.7	
649.55	6114.6	
649.73	5010.7	
649.92	5492	
650.11	6361.7	
650.3	6625.9	
650.48	5045.5	
650.67	4974.5	
650.86	6785.6	
651.05	6072.2	
651.23	4995	
651.42	4971.1	
651.61	6486.6	
651.79	6477	
651.98	5144.5	
652.17	4868.7	
652.36	6756.9	
652.54	6100.9	
652.73	4933.6	
652.92	4847.5	
653.11	6736.5	
653.29	6763.8	
653.48	4408.6	
653.67	5108.3	
653.85	6602	
654.04	7191.8	
654.23	5246.2	
654.42	4792.2	
654.6	6231.3	
654.79	6645	
654.98	4521.9	
655.16	4937	
655.35	5959.6	
655.54	5749.3	
655.73	4494.6	
655.91	4531.5	
656.1	6576	
656.29	5795.1	
656.47	4297.3	
656.66	5419.6	
656.85	6090.7	
657.03	6065.4	
657.22	4653	
657.41	4718.5	
657.59	6089.3	
657.78	6002.6	
657.97	4437.3	
658.16	4891.9	
658.34	6627.9	
658.53	6922.8	
658.72	5579.3	
658.9	5851.7	
659.09	6367.1	
659.28	6327.5	
659.46	4766.3	
659.65	4705.5	
659.84	6044.2	
660.02	6449.1	
660.21	4778.6	
660.4	4616.8	
660.58	6697.5	
660.77	6286.6	
660.96	5111	
661.14	4377.2	
661.33	7104.4	
661.52	7020.4	
661.7	4308.2	
661.89	6739.9	
662.08	5952.1	
662.26	5688.6	
662.45	4505.5	
662.64	4681	
662.82	6591	
663.01	5993.7	
663.2	4638.6	
663.38	5142.4	
663.57	6457.9	
663.75	6326.9	
663.94	4837.3	
664.13	5684.5	
664.31	6055.2	
664.5	6559.6	
664.69	5015.5	
664.87	5345.2	
665.06	5905	
665.25	6344.6	
665.43	5545.9	
665.62	5584.1	
665.8	6533	
665.99	6106.4	
666.18	4840.7	
666.36	4898.7	
666.55	6574	
666.74	6397.9	
666.92	4579.9	
667.11	5704.3	
667.29	6149.4	
667.48	6447	
667.67	5401.2	
667.85	4747.2	
668.04	6021.7	
668.22	6018.3	
668.41	4918.5	
668.6	5069.4	
668.78	5943.2	
668.97	6148	
669.15	5098.1	
669.34	4433.2	
669.53	6004.6	
669.71	6184.9	
669.9	4499.4	
670.08	4984.1	
670.27	5892.7	
670.46	6413.6	
670.64	5128.8	
670.83	5223	
671.01	5837.4	
671.2	6227.2	
671.38	4683	
671.57	4516.5	
671.76	6739.2	
671.94	7119.4	
672.13	4527.4	
672.31	5229.1	
672.5	6546	
672.69	5999.9	
672.87	4567.7	
673.06	4823.6	
673.24	6298.9	
673.43	6016.2	
673.61	5052.3	
673.8	4760.8	
673.98	6461.3	
674.17	6516	
674.36	5297.4	
674.54	5031.9	
674.73	6161.7	
674.91	6493.4	
675.1	4911.7	
675.28	4563.6	
675.47	6161.7	
675.65	6507.1	
675.84	4842.1	
676.03	4995	
676.21	6043.6	
676.4	5631.9	
676.58	5264	
676.77	5143.8	
676.95	7060.7	
677.14	5977.3	
677.32	4496	
677.51	4457.7	
677.69	6580.8	
677.88	5814.2	
678.06	4483.7	
678.25	4549.9	
678.44	6146	
678.62	5897.5	
678.81	4404.5	
678.99	5015.5	
679.18	6718	
679.36	6370.5	
679.55	4743.1	
679.73	5208	
679.92	6384.9	
680.1	6043.6	
680.29	5616.2	
680.47	4713.7	
680.66	6001.2	
680.84	6501.6	
681.03	4348.5	
681.21	5055.1	
681.4	6004.6	
681.58	5833.3	
681.77	4598.4	
681.95	4493.9	
682.14	6551.5	
682.32	6664.8	
682.51	5146.5	
682.69	4413.4	
682.88	5866.7	
683.06	6265.4	
683.25	4990.2	
683.43	5281	
683.62	6096.1	
683.8	6420.4	
683.99	5371.1	
684.17	4860.5	
684.36	6989	
684.54	6070.2	
684.73	4351.3	
684.91	4427.7	
685.1	6230.6	
685.28	5793.7	
685.46	4773.8	
685.65	4777.9	
685.83	6312.5	
686.02	5850.4	
686.2	4432.5	
686.39	4511.7	
686.57	5603.2	
686.76	6702.3	
686.94	4418.2	
687.13	4547.2	
687.31	6182.1	
687.5	5952.8	
687.68	4106.2	
687.86	4934.9	
688.05	7089.4	
688.23	5522.7	
688.42	5002.5	
688.6	4473.4	
688.79	5847	
688.97	5818.3	
689.16	4784.1	
689.34	4020.8	
689.52	6261.3	
689.71	6501.6	
689.89	4933.6	
690.08	4537.6	
690.26	6051.1	
690.45	5919.3	
690.63	5043.5	
690.81	4655.7	
691	5933	
691.18	5792.3	
691.37	4737.6	
691.55	6209.4	
691.74	5743.2	
691.92	7134.4	
692.1	4635.9	
692.29	4334.9	
692.47	5967.1	
692.66	5460.6	
692.84	4446.1	
693.02	4834.6	
693.21	5528.2	
693.39	5949.3	
693.58	4939	
693.76	4468	
693.94	6698.2	
694.13	6567.2	
694.31	4610.7	
694.5	5269.4	
694.68	5804.6	
694.86	6109.8	
695.05	4769	
695.23	4859.1	
695.42	6356.9	
695.6	7730.4	
695.78	5119.2	
695.97	4551.3	
696.15	6356.2	
696.34	5832.6	
696.52	4414.7	
696.7	4988.2	
696.89	6189.6	
697.07	5732.3	
697.25	4853	
697.44	5873.6	
697.62	6152.1	
697.81	6309.1	
697.99	4696.7	
698.17	4988.9	
698.36	5766.4	
698.54	6134.3	
698.72	4936.3	
698.91	4210.6	
699.09	5903.6	
699.28	5736.4	
699.46	4660.5	
699.64	4578.6	
699.83	5767.1	
700.01	6468.9	
700.19	5165.7	
700.38	4147.1	
700.56	6466.1	
700.74	5802.6	
700.93	4360.1	
701.11	4960.2	
701.29	6157.6	
701.48	6909.8	
701.66	4530.8	
701.84	4559.5	
702.03	5922	
702.21	6451.8	
702.39	4254.3	
702.58	4647.5	
702.76	6233.3	
702.94	6266.8	
703.13	4225	
703.31	5877.7	
703.49	5796.4	
703.68	6721.4	
703.86	4439.3	
704.04	5083.1	
704.23	6104.3	
704.41	6353.5	
704.59	4506.9	
704.78	5250.3	
704.96	7172	
705.14	6337.1	
705.33	4385.4	
705.51	4880.3	
705.69	5896.1	
705.87	6528.2	
706.06	5097.4	
706.24	4367	
706.42	6165.1	
706.61	6341.9	
706.79	5093.3	
706.97	4348.5	
707.16	5785.5	
707.34	6229.9	
707.52	5014.1	
707.7	4519.2	
707.89	5806.7	
708.07	5694	
708.25	5139.7	
708.44	5102.2	
708.62	5823.1	
708.8	6529.6	
708.98	5338.4	
709.17	4577.2	
709.35	6054.5	
709.53	6055.8	
709.72	4367	
709.9	4421.6	
710.08	6376.7	
710.26	6363	
710.45	5438.7	
710.63	4545.8	
710.81	6000.5	
710.99	6063.4	
711.18	4988.2	
711.36	4576.5	
711.54	5873.6	
711.72	6417.7	
711.91	4696.7	
712.09	4265.9	
712.27	6044.2	
712.45	6412.2	
712.64	4824.3	
712.82	4144.4	
713	5668.8	
713.18	5755.5	
713.37	4268.6	
713.55	5193.6	
713.73	6324.1	
713.91	5371.8	
714.1	4422.9	
714.28	4020.8	
714.46	6028.5	
714.64	5474.9	
714.83	3692.5	
715.01	4230.4	
715.19	5509.7	
715.37	5070.1	
715.55	3953.3	
715.74	4169	
715.92	6132.3	
716.1	4700.8	
716.28	4952	
716.47	4307.6	
716.65	5330.2	
716.83	5276.3	
717.01	4151.9	
717.19	4195.6	
717.38	6722.1	
717.56	5052.3	
717.74	4291.2	
717.92	3787.4	
718.1	5913.9	
718.29	5347.2	
718.47	3556	
718.65	3941.7	
718.83	5967.8	
719.01	5805.3	
719.2	3491.8	
719.38	4274.8	
719.56	5591	
719.74	6685.3	
719.92	4008.6	
720.11	4708.3	
720.29	5693.4	
720.47	5046.2	
720.65	3690.4	
720.83	4220.9	
721.02	5243.5	
721.2	5192.3	
721.38	4242.7	
721.56	3746.4	
721.74	4775.9	
721.92	4859.8	
722.11	4514.4	
722.29	4326	
722.47	5782.8	
722.65	5154.1	
722.83	3766.2	
723.01	4345.8	
723.2	5240.8	
723.38	5472.9	
723.56	3343	
723.74	4134.8	
723.92	4962.9	
724.1	5667.4	
724.29	3639.2	
724.47	4444.8	
724.65	5035.3	
724.83	4878.3	
725.01	3631.7	
725.19	4185.4	
725.37	4955.4	
725.56	4960.2	
725.74	3544.4	
725.92	3678.2	
726.1	4897.4	
726.28	5111.7	
726.46	3955.3	
726.64	3740.3	
726.83	5154.7	
727.01	5264	
727.19	3549.1	
727.37	4112.3	
727.55	5266.7	
727.73	5560.9	
727.91	3511.6	
728.09	3464.5	
728.28	5614.8	
728.46	5750.7	
728.64	4126.7	
728.82	4115.1	
729	6234	
729.18	5702.9	
729.36	3588.7	
729.54	5099.4	
729.72	6440.2	
729.91	5304.9	
730.09	4936.3	
730.27	4056.3	
730.45	5245.5	
730.63	5649.7	
730.81	4448.2	
730.99	3903.4	
731.17	6087.9	
731.35	5152.7	
731.53	4169	
731.71	3945.1	
731.9	5815.5	
732.08	5967.1	
732.26	4117.1	
732.44	3863.2	
732.62	5972.6	
732.8	5655.1	
732.98	4403.8	
733.16	3725.3	
733.34	5674.2	
733.52	4771.1	
733.7	4027	
733.88	4257	
734.07	5578.7	
734.25	5358.9	
734.43	3713	
734.61	4759.5	
734.79	6389.7	
734.97	5270.1	
735.15	3863.8	
735.33	4048.8	
735.51	5564.3	
735.69	5322.7	
735.87	4757.4	
736.05	4121.2	
736.23	5436	
736.41	5221	
736.59	4066.6	
736.77	4193.6	
736.95	5711.1	
737.13	5315.2	
737.32	3796.3	
737.5	3977.8	
737.68	6204.7	
737.86	5302.9	
738.04	3721.8	
738.22	4986.1	
738.4	5154.7	
738.58	5389.6	
738.76	4061.1	
738.94	3395.5	
739.12	5271.5	
739.3	5168.4	
739.48	4476.2	
739.66	4333.5	
739.84	5453.7	
740.02	5337	
740.2	3557.3	
740.38	3714.3	
740.56	5671.5	
740.74	4801.1	
740.92	4119.8	
741.1	4109.6	
741.28	5320.6	
741.46	5089.2	
741.64	3916.4	
741.82	4258.4	
742	5409.4	
742.18	5226.4	
742.36	4000.4	
742.54	3673.4	
742.72	5704.3	
742.9	4776.5	
743.08	4224.3	
743.26	3403.7	
743.44	5763.7	
743.62	5667.4	
743.8	4350.6	
743.98	3715.7	
744.16	5491.3	
744.34	5218.9	
744.52	4255.7	
744.7	4164.9	
744.88	5629.2	
745.06	5200.5	
745.24	4316.4	
745.42	4350.6	
745.6	5662.6	
745.78	5550	
745.96	3481.5	
746.14	3715	
746.32	6150.7	
746.5	5485.1	
746.68	4059.1	
746.86	3705.5	
747.03	5839.4	
747.21	4769	
747.39	4050.9	
747.57	3737.5	
747.75	5347.2	
747.93	5565	
748.11	3640.6	
748.29	3628.3	
748.47	6446.3	
748.65	5155.4	
748.83	4192.9	
749.01	3929.4	
749.19	5492.7	
749.37	4842.8	
749.55	3969	
749.73	3979.2	
749.91	5323.4	
750.09	5143.1	
750.26	3977.8	
750.44	3548.4	
750.62	5240.1	
750.8	5257.8	
750.98	3534.8	
751.16	3725.3	
751.34	5302.9	
751.52	4883	
751.7	4255	
751.88	3468.6	
752.06	5694.7	
752.24	5396.4	
752.42	3424.9	
752.59	3710.2	
752.77	5277.6	
752.95	6035.4	
753.13	4192.9	
753.31	3805.1	
753.49	5025	
753.67	5242.8	
753.85	4000.4	
754.03	3675.4	
754.21	5547.3	
754.38	5760.3	
754.56	3790.1	
754.74	3159.3	
754.92	4979.3	
755.1	5439.4	
755.28	3192.8	
755.46	3173	
755.64	5970.5	
755.82	6045.6	
755.99	3364.8	
756.17	3375.7	
756.35	4268	
756.53	5322.7	
756.71	2622.1	
756.89	3286.3	
757.07	5014.1	
757.25	4397	
757.42	3629	
757.6	4142.4	
757.78	5111	
757.96	4318.5	
758.14	3409.2	
758.32	3172.3	
758.5	4089.1	
758.67	4772.4	
758.85	3301.3	
759.03	3416.7	
759.21	4903.5	
759.39	4410.6	
759.57	3032.4	
759.75	3792.2	
759.92	5277.6	
760.1	4893.3	
760.28	4091.8	
760.46	4173.8	
760.64	4612	
760.82	4496.7	
760.99	3953.3	
761.17	3404.4	
761.35	5194.3	
761.53	4448.9	
761.71	3562.1	
761.89	3872	
762.06	5096	
762.24	4780	
762.42	3512.9	
762.6	3322.5	
762.78	4758.1	
762.96	5165.7	
763.13	3742.3	
763.31	3539.6	
763.49	5375.2	
763.67	4700.1	
763.85	4105.5	
764.02	4554.7	
764.2	5494.7	
764.38	4846.9	
764.56	3447.4	
764.74	4057.7	
764.91	5493.3	
765.09	4774.5	
765.27	3277.4	
765.45	3140.9	
765.63	5651.7	
765.8	5418.2	
765.98	3026.2	
766.16	3209.2	
766.34	4561.5	
766.52	4340.3	
766.69	3848.8	
766.87	3097.9	
767.05	4832.5	
767.23	5282.4	
767.41	3360.7	
767.58	3525.9	
767.76	5182.7	
767.94	5210.7	
768.12	3420.1	
768.29	3829	
768.47	4728.8	
768.65	5358.2	
768.83	3095.8	
769	3826.3	
769.18	4568.3	
769.36	4971.8	
769.54	3849.5	
769.72	3096.5	
769.89	5329.5	
770.07	5270.8	
770.25	3338.9	
770.43	4171	
770.6	5763.7	
770.78	5935	
770.96	3508.2	
771.14	3869.3	
771.31	5132.2	
771.49	4718.5	
771.67	2960	
771.85	3069.9	
772.02	4186	
772.2	4690.5	
772.38	3525.9	
772.55	3203	
772.73	4999.8	
772.91	4765.6	
773.09	3472	
773.26	3575.8	
773.44	4954	
773.62	4688.5	
773.8	3157.3	
773.97	2990.7	
774.15	4885.1	
774.33	4711	
774.5	3094.5	
774.68	3345.7	
774.86	5061.9	
775.04	4647.5	
775.21	3152.5	
775.39	3135.4	
775.57	4831.8	
775.74	5104.9	
775.92	3011.9	
776.1	2909.5	
776.27	4823	
776.45	5683.1	
776.63	3167.5	
776.81	2820.1	
776.98	4642.7	
777.16	5290.6	
777.34	3242.6	
777.51	3454.2	
777.69	4599.1	
777.87	4427	
778.04	3345.7	
778.22	3627	
778.4	4489.8	
778.57	4915.1	
778.75	2777	
778.93	2983.9	
779.1	4316.4	
779.28	4152.6	
779.46	2760	
779.64	3001.6	
779.81	5068.7	
779.99	5543.9	
780.17	3572.3	
780.34	3674.7	
780.52	4647.5	
780.69	4756.7	
780.87	3361.4	
781.05	3054.2	
781.22	4694.6	
781.4	4739.7	
781.58	3187.3	
781.75	2531.3	
781.93	4754	
782.11	4237.2	
782.28	3762.8	
782.46	3103.4	
782.64	4176.5	
782.81	4811.4	
782.99	3174.4	
783.17	3149.1	
783.34	4718.5	
783.52	4385.4	
783.69	3289	
783.87	3814.7	
784.05	4298.7	
784.22	4244.1	
784.4	3804.4	
784.58	3360	
784.75	5021.6	
784.93	4373.8	
785.1	3090.4	
785.28	3512.9	
785.46	4765.6	
785.63	4265.2	
785.81	3102.7	
785.99	3040.6	
786.16	4463.2	
786.34	4690.5	
786.51	3038.5	
786.69	3301.3	
786.87	4095.3	
787.04	4451.6	
787.22	3005.1	
787.39	3624.2	
787.57	4257.7	
787.75	4982.7	
787.92	3743.7	
788.1	3634.5	
788.27	4304.8	
788.45	4060.4	
788.63	3449.5	
788.8	2660.3	
788.98	4653	
789.15	4031.1	
789.33	2732.7	
789.5	3071.3	
789.68	4887.1	
789.86	4977.2	
790.03	3379.8	
790.21	2990.7	
790.38	4986.1	
790.56	4386.1	
790.73	3002.3	
790.91	2915.6	
791.09	4324.6	
791.26	4760.2	
791.44	3112.9	
791.61	2738.8	
791.79	4313.7	
791.96	4287.8	
792.14	2839.8	
792.32	2547	
792.49	4293.9	
792.67	4348.5	
792.84	2930	
793.02	2796.2	
793.19	4653	
793.37	5051.7	
793.54	2574.3	
793.72	2779.8	
793.89	5157.5	
794.07	4298.7	
794.25	3254.2	
794.42	2624.8	
794.6	5051	
794.77	4745.8	
794.95	3398.9	
795.12	2993.4	
795.3	4318.5	
795.47	4642.1	
795.65	3260.4	
795.82	3076.7	
796	4184.7	
796.17	5427.8	
796.35	3108.1	
796.52	3540.9	
796.7	4766.3	
796.87	4762.9	
797.05	3076.7	
797.22	3644	
797.4	4683.7	
797.57	5367	
797.75	3184.6	
797.92	3002.3	
798.1	4969.7	
798.27	4216.8	
798.45	2668.5	
798.62	2788	
798.8	4534.2	
798.97	4868	
799.15	3287	
799.32	3215.3	
799.5	3973.7	
799.67	4481.6	
799.85	3410.6	
800.02	2607.1	
800.2	4255	
800.37	4435.9	
800.55	3479.5	
800.72	2982.5	
800.9	4825	
801.07	5108.3	
801.25	3910.9	
801.42	3250.8	
801.6	4859.8	
801.77	4537.6	
801.95	3074	
802.12	2914.9	
802.29	4624.3	
802.47	4573.1	
802.64	3304.1	
802.82	2582.5	
802.99	4322.6	
803.17	4913.8	
803.34	3171.6	
803.52	2835.8	
803.69	5383.4	
803.87	4052.9	
804.04	3127.2	
804.21	3188.7	
804.39	5092.6	
804.56	4354	
804.74	2725.8	
804.91	3306.1	
805.09	4291.9	
805.26	4313.7	
805.44	2792.7	
805.61	3050.1	
805.78	4809.3	
805.96	4760.2	
806.13	3205.8	
806.31	3433.8	
806.48	3981.9	
806.66	4327.4	
806.83	3239.9	
807	3155.2	
807.18	4291.9	
807.35	4541.7	
807.53	2977.7	
807.7	2653.5	
807.87	5115.1	
808.05	4255	
808.22	3432.4	
808.4	2651.4	
808.57	4240	
808.74	3990.1	
808.92	2953.9	
809.09	3580.5	
809.27	4289.8	
809.44	4650.9	
809.61	2636.4	
809.79	2866.5	
809.96	5165	
810.14	4798.4	
810.31	2656.2	
810.48	3134.8	
810.66	4326.7	
810.83	4824.3	
811.01	2991.4	
811.18	3227.6	
811.35	4812.7	
811.53	3895.9	
811.7	3512.9	
811.87	3235.8	
812.05	4426.3	
812.22	4247.5	
812.39	2879.4	
812.57	2825.5	
812.74	4379.9	
812.92	5459.2	
813.09	3083.6	
813.26	3280.2	
813.44	5293.3	
813.61	4246.8	
813.78	2656.2	
813.96	3361.4	
814.13	4366.3	
814.3	4139.6	
814.48	3666.5	
814.65	3039.9	
814.82	5126.1	
815	4082.3	
815.17	3149.8	
815.34	3730	
815.52	4238.6	
815.69	4268.6	
815.87	3136.1	
816.04	3005.7	
816.21	4327.4	
816.38	3917.8	
816.56	3049.4	
816.73	2852.8	
816.9	5309	
817.08	4810.7	
817.25	2900.6	
817.42	3525.2	
817.6	4009.9	
817.77	4268	
817.94	3190.1	
818.12	2811.2	
818.29	4140.3	
818.46	5876.3	
818.64	2983.9	
818.81	2817.3	
818.98	4119.1	
819.16	5535	
819.33	3367.5	
819.5	3132	
819.67	4567	
819.85	4968.4	
820.02	3156.6	
820.19	3222.1	
820.37	4448.2	
820.54	4181.3	
820.71	3207.1	
820.88	3887	
821.06	4457.7	
821.23	4136.2	
821.4	3188	
821.58	3186.6	
821.75	4775.9	
821.92	4420.9	
822.09	2661.7	
822.27	2723.1	
822.44	4336.9	
822.61	4237.2	
822.79	2656.2	
822.96	4784.7	
823.13	4560.8	
823.3	4042.7	
823.48	3009.8	
823.65	2717.7	
823.82	4819.6	
823.99	4036.5	
824.17	3746.4	
824.34	2781.1	
824.51	5466.7	
824.68	4367	
824.86	2855.6	
825.03	3151.8	
825.2	4302.8	
825.37	5008.6	
825.55	2898.6	
825.72	3101.3	
825.89	5406	
826.06	5083.1	
826.24	3058.3	
826.41	3069.9	
826.58	5087.2	
826.75	4500.1	
826.92	2542.9	
827.1	2756.6	
827.27	6628.6	
827.44	5347.2	
827.61	2958.6	
827.79	3516.4	
827.96	4180.6	
828.13	4304.8	
828.3	3068.5	
828.47	2613.9	
828.65	4610	
828.82	4515.8	
828.99	3741.6	
829.16	3320.4	
829.34	4816.8	
829.51	4703.5	
829.68	3111.5	
829.85	3207.1	
830.02	5091.3	
830.2	4800.4	
830.37	2478	
830.54	3649.5	
830.71	5376.6	
830.88	4334.2	
831.05	2524.5	
831.23	2899.2	
831.4	5197.1	
831.57	5599.8	
831.74	2947.7	
831.91	2667.8	
832.09	4599.7	
832.26	4829.1	
832.43	2927.9	
832.6	3304.1	
832.77	4586.8	
832.94	5126.1	
833.12	2444.6	
833.29	2904	
833.46	4420.9	
833.63	5752.1	
833.8	3192.1	
833.97	3009.8	
834.15	4861.9	
834.32	4641.4	
834.49	3102.7	
834.66	3165.5	
834.83	4900.1	
835	4219.5	
835.17	2867.2	
835.35	2889.7	
835.52	4752.7	
835.69	4729.4	
835.86	3061	
836.03	2534	
836.2	4799.1	
836.37	4501.4	
836.55	2974.3	
836.72	2839.2	
836.89	4494.6	
837.06	4852.3	
837.23	2992.1	
837.4	3245.3	
837.57	5427.1	
837.75	5824.4	
837.92	2747.7	
838.09	2945	
838.26	4537.6	
838.43	4959.5	
838.6	3127.2	
838.77	2809.1	
838.94	5539.8	
839.11	5363.6	
839.29	3075.4	
839.46	2370.2	
839.63	4855.7	
839.8	4549.2	
839.97	2925.9	
840.14	2932	
840.31	4691.9	
840.48	4813.4	
840.65	2478.7	
840.82	2893.1	
841	4762.9	
841.17	4716.5	
841.34	2658.3	
841.51	2761.3	
841.68	4737	
841.85	4521.9	
842.02	2798.2	
842.19	2388.6	
842.36	4686.4	
842.53	4644.1	
842.7	2736.1	
842.87	3179.8	
843.05	5791.7	
843.22	4513	
843.39	2567.5	
843.56	2803	
843.73	4471.4	
843.9	4871.4	
844.07	4091.2	
844.24	3485	
844.41	6412.9	
844.58	4220.2	
844.75	2638.5	
844.92	2831.7	
845.09	4715.8	
845.26	4736.3	
845.43	2678.7	
845.6	2834.4	
845.77	4763.6	
845.94	4579.3	
846.12	2989.4	
846.29	3082.2	
846.46	4990.9	
846.63	4734.9	
846.8	2742.2	
846.97	3114.3	
847.14	5095.3	
847.31	4775.9	
847.48	2969.6	
847.65	3278.1	
847.82	4885.1	
847.99	4911.7	
848.16	3494.5	
848.33	3263.8	
848.5	4425	
848.67	5136.3	
848.84	2682.2	
849.01	2821.4	
849.18	4455.7	
849.35	4175.1	
849.52	3282.9	
849.69	2661	
849.86	4945.8	
850.03	5014.8	
850.2	2737.5	
850.37	3192.1	
850.54	4952.7	
850.71	4541	
850.88	3177.1	
851.05	2695.1	
851.22	4677.6	
851.39	5098.1	
851.56	2535.4	
851.73	3072.6	
851.9	4259.1	
852.07	4952	
852.24	2941.6	
852.41	2660.3	
852.58	4690.5	
852.75	4358.8	
852.92	3001.6	
853.09	2659.6	
853.26	4433.2	
853.43	5033.2	
853.6	2710.8	
853.77	2357.2	
853.94	5145.9	
854.11	4197	
854.28	3797.6	
854.44	2907.4	
854.61	5400.5	
854.78	5001.8	
854.95	2672.6	
855.12	3285.6	
855.29	3975.8	
855.46	5204.6	
855.63	2677.4	
855.8	3519.1	
855.97	4422.9	
856.14	5046.9	
856.31	3577.8	
856.48	2920.4	
856.65	4496	
856.82	4208.6	
856.99	2621.4	
857.16	2874	
857.33	5603.9	
857.49	4562.2	
857.66	2840.5	
857.83	3064.4	
858	4517.1	
858.17	4690.5	
858.34	2542.9	
858.51	2712.9	
858.68	5180.7	
858.85	5193	
859.02	3076.7	
859.19	3215.3	
859.36	4308.2	
859.52	4267.3	
859.69	2697.2	
859.86	3102	
860.03	4316.4	
860.2	5134.3	
860.37	2552.5	
860.54	2658.9	
860.71	4909	
860.88	5188.2	
861.05	2977.7	
861.21	3362.8	
861.38	5163.6	
861.55	4147.1	
861.72	2534.7	
861.89	2936.1	
862.06	4954	
862.23	5300.1	
862.4	2615.9	
862.56	2742.2	
862.73	4814.1	
862.9	4601.1	
863.07	3121.1	
863.24	2510.8	
863.41	4251.6	
863.58	4332.1	
863.75	2746.3	
863.91	3118.4	
864.08	5115.8	
864.25	4868	
864.42	3201	
864.59	3626.3	
864.76	5365	
864.93	4265.2	
865.09	2538.8	
865.26	2872.6	
865.43	5103.5	
865.6	5342.5	
865.77	2375.6	
865.94	2654.2	
866.1	5071.5	
866.27	4844.8	
866.44	3910.9	
866.61	2585.9	
866.78	4547.9	
866.95	4902.8	
867.11	2648	
867.28	2454.1	
867.45	5023.7	
867.62	4304.1	
867.79	3022.1	
867.96	2698.5	
868.12	4228.4	
868.29	4937.7	
868.46	2705.4	
868.63	3490.4	
868.8	5010	
868.97	4818.9	
869.13	2809.1	
869.3	2764.8	
869.47	4742.4	
869.64	4968.4	
869.81	2694.4	
869.97	2709.5	
870.14	4738.3	
870.31	5159.5	
870.48	2637.1	
870.65	3284.9	
870.81	4500.8	
870.98	4526	
871.15	2974.3	
871.32	2826.2	
871.48	4808.6	
871.65	5244.2	
871.82	2714.2	
871.99	2945.7	
872.16	5479	
872.32	5105.6	
872.49	2723.8	
872.66	2720.4	
872.83	4951.3	
872.99	4390.2	
873.16	3041.9	
873.33	2681.5	
873.5	4727.4	
873.67	4729.4	
873.83	2814.6	
874	3470.6	
874.17	4762.2	
874.34	5412.8	
874.5	3364.1	
874.67	3279.5	
874.84	5109.7	
875.01	4146.5	
875.17	3631.7	
875.34	2664.4	
875.51	4729.4	
875.68	5557.5	
875.84	3182.5	
876.01	3766.9	
876.18	4932.2	
876.34	4831.8	
876.51	2683.5	
876.68	2645.3	
876.85	4496	
877.01	5110.4	
877.18	3670.6	
877.35	2665.1	
877.52	4775.2	
877.68	4254.3	
877.85	2590	
878.02	2645.3	
878.18	4517.8	
878.35	4430.4	
878.52	2194.1	
878.69	3110.9	
878.85	4995.7	
879.02	4861.2	
879.19	3666.5	
879.35	2831	
879.52	4916.5	
879.69	4951.3	
879.86	2406.4	
880.02	3007.8	
880.19	4646.8	
880.36	5470.8	
880.52	3017.3	
880.69	3152.5	
880.86	4981.3	
881.02	4974.5	
881.19	2939.5	
881.36	2895.8	
881.52	4879.6	
881.69	4364.2	
881.86	2839.8	
882.02	2805	
882.19	5094.7	
882.36	5741.1	
882.52	2788.7	
882.69	3662.5	
882.86	4716.5	
883.02	4707.6	
883.19	3142.9	
883.36	3052.8	
883.52	4970.4	
883.69	5485.8	
883.86	2698.5	
884.02	2484.2	
884.19	4890.5	
884.36	4640	
884.52	2988.7	
884.69	2908.8	
884.86	4462.5	
885.02	5296	
885.19	2961.4	
885.36	3061	
885.52	4593.6	
885.69	4760.8	
885.86	3736.9	
886.02	3327.3	
886.19	4909	
886.35	4463.9	
886.52	2926.5	
886.69	3662.5	
886.85	4257.7	
887.02	5172.5	
887.19	5172.5	
887.35	5172.5	
887.52	5172.5	
887.68	5172.5	
887.85	5172.5	
888.02	5172.5	
888.18	5172.5	
888.35	5172.5	
888.51	5172.5	
888.68	5172.5	
888.85	5172.5	
889.01	5172.5	
889.18	5172.5	
889.35	5172.5	
889.51	5172.5	
889.68	5172.5	
889.84	5172.5	
890.01	5172.5	
890.17	5172.5	
890.34	5172.5	
890.51	5172.5	
890.67	5172.5	
890.84	5172.5	
891	5172.5	
891.17	5172.5	
891.34	5172.5	
891.5	5172.5	
891.67	5172.5	
891.83	5172.5	
892	5172.5	
892.16	5172.5	
892.33	5172.5	
892.5	5172.5	
892.66	5172.5	
892.83	5172.5	
892.99	5172.5	
893.16	5172.5	
893.32	5172.5	
893.49	5172.5	
893.65	5172.5	
893.82	5172.5	
893.99	5172.5	
894.15	5172.5	
894.32	5172.5	
894.48	5172.5	
894.65	5172.5	
894.81	5172.5	
894.98	5172.5	
895.14	5172.5	
895.31	5172.5	
895.47	5172.5	
895.64	5172.5	
895.81	5172.5	
895.97	5172.5	
896.14	5172.5	
896.3	5172.5	
896.47	5172.5	
896.63	5172.5	
896.8	5172.5	
896.96	5172.5	
897.13	5172.5	
897.29	5172.5	
897.46	5172.5	
897.62	5172.5	
897.79	5172.5	
897.95	5172.5	
898.12	5172.5	
898.28	5172.5	
898.45	5172.5	
898.61	5172.5	
898.78	5172.5	
898.94	5172.5	
899.11	5172.5	
899.27	5172.5	
899.44	5172.5	
899.6	5172.5	
899.77	5172.5	
899.93	5172.5	
900.1	5172.5	
900.26	5172.5	
900.43	5172.5	
900.59	5172.5	
900.76	5172.5	
900.92	5172.5	
901.09	5172.5	
901.25	5172.5	
901.42	5172.5	
901.58	5172.5	
901.75	5172.5	
901.91	5172.5	
902.07	5172.5	
902.24	5172.5	
902.4	5172.5	
902.57	5172.5	
902.73	5172.5	
902.9	5172.5	
903.06	5172.5	
903.23	5172.5	
903.39	5172.5	
903.56	5172.5	
903.72	5172.5	
903.88	5172.5	
904.05	5172.5	
904.21	5172.5	
904.38	5172.5	
904.54	5172.5	
904.71	5172.5	
904.87	5172.5	
905.03	5172.5	
905.2	5172.5	
905.36	5172.5	
905.53	5172.5	
905.69	5172.5	
905.86	5172.5	
906.02	5172.5	
906.18	5172.5	
906.35	5172.5	
906.51	5172.5	
906.68	5172.5	
906.84	5172.5	
907.01	5172.5	
907.17	5172.5	
907.33	5172.5	
907.5	5172.5	
907.66	5172.5	
907.83	5172.5	
907.99	5172.5	
908.15	5172.5	
908.32	5172.5	
908.48	5172.5	
908.65	5172.5	
908.81	5172.5	
908.97	5172.5	
909.14	5172.5	
909.3	5172.5	
909.47	5172.5	
909.63	5172.5	
909.79	5172.5	
909.96	5172.5	
910.12	5172.5	
910.28	5172.5	
910.45	5172.5	
910.61	5172.5	
910.78	5172.5	
910.94	5172.5	
911.1	5172.5	
911.27	5172.5	
911.43	5172.5	
911.59	5172.5	
911.76	5172.5	
911.92	5172.5	
912.08	5172.5	
912.25	5172.5	
912.41	5172.5	
912.57	5172.5	
912.74	5172.5	
912.9	5172.5	
913.07	5172.5	
913.23	5172.5	
913.39	5172.5	
913.56	5172.5	
913.72	5172.5	
913.88	5172.5	
914.05	5172.5	
914.21	5172.5	
914.37	5172.5	
914.54	5172.5	
914.7	5172.5	
914.86	5172.5	
915.03	5172.5	
915.19	5172.5	
