Wavelength	Intensities	
nm	a.u.	
179.22	1500	
179.44	1503.6	
179.65	1496.4	
179.86	1510.7	
180.08	1503.2	
180.29	3229.6	
180.51	2607.1	
180.72	4513.7	
180.94	4820.9	
181.15	2355.8	
181.37	2338.8	
181.58	4261.8	
181.79	4382.7	
182.01	2415.2	
182.22	2511.5	
182.44	4504.2	
182.65	3947.8	
182.87	2930	
183.08	2710.1	
183.29	4711.7	
183.51	4019.5	
183.72	2500.6	
183.94	3330.7	
184.15	4226.3	
184.37	4126	
184.58	2306	
184.79	2790.7	
185.01	4078.9	
185.22	4557.4	
185.44	2923.1	
185.65	2646	
185.86	4334.2	
186.08	3987.4	
186.29	2276.7	
186.51	2386.6	
186.72	4084.3	
186.94	4543.1	
187.15	2781.8	
187.36	2675.3	
187.58	5332.9	
187.79	4315.8	
188.01	2743.6	
188.22	3955.3	
188.43	4914.4	
188.65	4438.6	
188.86	2431.6	
189.08	2738.1	
189.29	4104.1	
189.5	4046.8	
189.72	2489	
189.93	2565.4	
190.15	4600.4	
190.36	5106.3	
190.57	2708.8	
190.79	2616.6	
191	4462.5	
191.22	4556.7	
191.43	2749.1	
191.64	2431.6	
191.86	4724	
192.07	4541	
192.29	2486.2	
192.5	2444.6	
192.71	4501.4	
192.93	4153.3	
193.14	2529.2	
193.35	2592	
193.57	4076.8	
193.78	4606.6	
194	2164	
194.21	2469.2	
194.42	3948.5	
194.64	4217.5	
194.85	2698.5	
195.07	3025.5	
195.28	4233.2	
195.49	3865.9	
195.71	3108.8	
195.92	2368.1	
196.13	4429.8	
196.35	4344.4	
196.56	3274.7	
196.78	2712.2	
196.99	5089.2	
197.2	4775.2	
197.42	2936.8	
197.63	2655.5	
197.84	3951.9	
198.06	4319.8	
198.27	2544.9	
198.48	3112.9	
198.7	4126.7	
198.91	4328	
199.13	2738.8	
199.34	2710.8	
199.55	4644.1	
199.77	3720.5	
199.98	2448.7	
200.19	2683.5	
200.41	4246.1	
200.62	4043.4	
200.83	2775	
201.05	2967.5	
201.26	4244.1	
201.47	4111	
201.69	2504.7	
201.9	2463.7	
202.11	4248.9	
202.33	4741	
202.54	2621.4	
202.76	2856.2	
202.97	4326.7	
203.18	4353.3	
203.4	2807.1	
203.61	2840.5	
203.82	4302.1	
204.04	4057.7	
204.25	2695.8	
204.46	2691	
204.68	4145.8	
204.89	4321.2	
205.1	2661	
205.32	2382.5	
205.53	4388.8	
205.74	4557.4	
205.96	2205.7	
206.17	2703.3	
206.38	4386.7	
206.6	4511.7	
206.81	2952.5	
207.02	2575	
207.24	4386.1	
207.45	4573.8	
207.66	2644.6	
207.88	2374.3	
208.09	4323.9	
208.3	4201.7	
208.52	2508.8	
208.73	2671.9	
208.94	4265.9	
209.15	4639.3	
209.37	2626.2	
209.58	2668.5	
209.79	4542.4	
210.01	4185.4	
210.22	2269.8	
210.43	2346.3	
210.65	4193.6	
210.86	4388.8	
211.07	2595.5	
211.29	2450.7	
211.5	4410	
211.71	4255	
211.93	2484.9	
212.14	2441.2	
212.35	4216.1	
212.56	4185.4	
212.78	2723.1	
212.99	2318.3	
213.2	4719.2	
213.42	4146.5	
213.63	2538.8	
213.84	2550.4	
214.06	3966.9	
214.27	3930.7	
214.48	2618	
214.69	2769.5	
214.91	4605.9	
215.12	4570.4	
215.33	2738.1	
215.55	2859.6	
215.76	4888.5	
215.97	4380.6	
216.18	2688.3	
216.4	2683.5	
216.61	4014	
216.82	4485.1	
217.04	2491	
217.25	2529.9	
217.46	4528.1	
217.67	4465.3	
217.89	2321.7	
218.1	2350.4	
218.31	4216.1	
218.53	4330.8	
218.74	2618	
218.95	2486.2	
219.16	4285.7	
219.38	4789.5	
219.59	2469.9	
219.8	2828.2	
220.01	4954	
220.23	4223.6	
220.44	3005.1	
220.65	2427.5	
220.87	4342.4	
221.08	4610	
221.29	2372.9	
221.5	2889	
221.72	5208.7	
221.93	4007.2	
222.14	2699.2	
222.35	3127.2	
222.57	4212.7	
222.78	4564.2	
222.99	2665.8	
223.2	2762.7	
223.42	4340.3	
223.63	4421.6	
223.84	2155.8	
224.05	2170.2	
224.27	4846.9	
224.48	4662.5	
224.69	3152.5	
224.9	2751.8	
225.12	4302.1	
225.33	4187.4	
225.54	2291	
225.75	2523.8	
225.97	3994.9	
226.18	4194.2	
226.39	2603	
226.6	2521	
226.82	4157.4	
227.03	3984.7	
227.24	2725.2	
227.45	2379.7	
227.67	4487.8	
227.88	4642.1	
228.09	3005.1	
228.3	2966.1	
228.52	4429.8	
228.73	4199	
228.94	2571.6	
229.15	2368.8	
229.36	4276.2	
229.58	4276.2	
229.79	2619.4	
230	2915.6	
230.21	4867.3	
230.43	4186.7	
230.64	2671.9	
230.85	2702.6	
231.06	4538.3	
231.28	4502.8	
231.49	2387.2	
231.7	2692.4	
231.91	4496.7	
232.12	4257	
232.34	2465.1	
232.55	2613.2	
232.76	4556.7	
232.97	4233.2	
233.18	2433	
233.4	2717	
233.61	4266.6	
233.82	4072	
234.03	2606.4	
234.25	2570.2	
234.46	5319.3	
234.67	4186	
234.88	2762	
235.09	2520.4	
235.31	4276.2	
235.52	4147.1	
235.73	2648	
235.94	2377	
236.15	4076.1	
236.37	4875.5	
236.58	2437.1	
236.79	2599.6	
237	4409.3	
237.21	3876.1	
237.43	2759.3	
237.64	2346.3	
237.85	6288.6	
238.06	4057	
238.27	2729.9	
238.48	2402.9	
238.7	4395.6	
238.91	4147.8	
239.12	2579.8	
239.33	2728.6	
239.54	4075.5	
239.76	4158.1	
239.97	2652.1	
240.18	2665.8	
240.39	4825	
240.6	4313	
240.82	2777.7	
241.03	2331.3	
241.24	4177.2	
241.45	4601.8	
241.66	2490.3	
241.87	2859	
242.09	4690.5	
242.3	4795	
242.51	2792.7	
242.72	2585.9	
242.93	4383.3	
243.14	4178.5	
243.36	2917.7	
243.57	3127.9	
243.78	4711.7	
243.99	4381.3	
244.2	2636.4	
244.41	2405	
244.63	3948.5	
244.84	4306.2	
245.05	2777	
245.26	2570.9	
245.47	4430.4	
245.68	4398.4	
245.9	3175.7	
246.11	2747	
246.32	4040	
246.53	4382.7	
246.74	3919.8	
246.95	2288.3	
247.16	4128.7	
247.38	4252.9	
247.59	2409.8	
247.8	2654.9	
248.01	3918.4	
248.22	4239.3	
248.43	2453.5	
248.64	2611.2	
248.86	3992.9	
249.07	4109.6	
249.28	2464.4	
249.49	2718.3	
249.7	4465.3	
249.91	4479.6	
250.12	2373.6	
250.34	2366.1	
250.55	4302.1	
250.76	4298	
250.97	2691.7	
251.18	2756.6	
251.39	4483.7	
251.6	4336.2	
251.81	2775	
252.03	2698.5	
252.24	4091.8	
252.45	4404.5	
252.66	2336.7	
252.87	2788	
253.08	4235.2	
253.29	5070.1	
253.5	2415.2	
253.72	3134.1	
253.93	4210.6	
254.14	4704.2	
254.35	2585.9	
254.56	2610.5	
254.77	4326.7	
254.98	4028.4	
255.19	2516.3	
255.41	3012.6	
255.62	4377.9	
255.83	4550.6	
256.04	2803.7	
256.25	2688.3	
256.46	4866.7	
256.67	4012.7	
256.88	2735.4	
257.09	2895.8	
257.31	3949.8	
257.52	4014	
257.73	3270.6	
257.94	2564.1	
258.15	4252.9	
258.36	4143	
258.57	3003.7	
258.78	2152.4	
258.99	4522.6	
259.2	4134.8	
259.41	2528.6	
259.63	2631	
259.84	4681.7	
260.05	4778.6	
260.26	3064.4	
260.47	2527.9	
260.68	4569.7	
260.89	4156	
261.1	2934.1	
261.31	2508.8	
261.52	4653.7	
261.73	4706.2	
261.95	3105.4	
262.16	2763.4	
262.37	4528.7	
262.58	4621.6	
262.79	3076.7	
263	2575	
263.21	4235.9	
263.42	4082.3	
263.63	2771.6	
263.84	2572.9	
264.05	4470	
264.26	4645.5	
264.47	3030.3	
264.69	2747.7	
264.9	4743.8	
265.11	4265.9	
265.32	2517.6	
265.53	2508.8	
265.74	4269.3	
265.95	3876.1	
266.16	2658.3	
266.37	2897.9	
266.58	4315.8	
266.79	4044.1	
267	2534	
267.21	2377	
267.42	3974.4	
267.63	4209.3	
267.84	2614.6	
268.06	2331.3	
268.27	4532.8	
268.48	4592.2	
268.69	2573.6	
268.9	2882.2	
269.11	4438.6	
269.32	3904.1	
269.53	2596.8	
269.74	2458.9	
269.95	4261.1	
270.16	3899.3	
270.37	2672.6	
270.58	2962	
270.79	4136.9	
271	4500.1	
271.21	2748.4	
271.42	2656.9	
271.63	4442	
271.84	3925.3	
272.05	2276	
272.26	2426.2	
272.47	4232.5	
272.68	4328	
272.89	2628.9	
273.11	2831	
273.32	4040.6	
273.53	4664.6	
273.74	2688.3	
273.95	2825.5	
274.16	4403.1	
274.37	4204.5	
274.58	2926.5	
274.79	2368.8	
275	4396.3	
275.21	4478.2	
275.42	3262.4	
275.63	2837.1	
275.84	4429.8	
276.05	5128.8	
276.26	2705.4	
276.47	2585.9	
276.68	4249.5	
276.89	4749.2	
277.1	2878.1	
277.31	2357.2	
277.52	4316.4	
277.73	4655.7	
277.94	2357.2	
278.15	2548.4	
278.36	4417.5	
278.57	4083	
278.78	2595.5	
278.99	2790	
279.2	4187.4	
279.41	4017.4	
279.62	3213.3	
279.83	2438.4	
280.04	4872.1	
280.25	3977.2	
280.46	3181.2	
280.67	2686.3	
280.88	4065.2	
281.09	4582	
281.3	2742.2	
281.51	3280.2	
281.72	4445.5	
281.93	4424.3	
282.14	2483.5	
282.35	2691	
282.56	4532.2	
282.77	4470.7	
282.98	2608.4	
283.19	2968.9	
283.4	5143.8	
283.61	4198.3	
283.82	2426.2	
284.03	3127.2	
284.24	4446.8	
284.45	4487.1	
284.66	3175	
284.87	2957.3	
285.08	4569	
285.29	4584	
285.5	2393.4	
285.71	2641.9	
285.92	4505.5	
286.12	4921.3	
286.33	3189.4	
286.54	2616.6	
286.75	4491.9	
286.96	4178.5	
287.17	2469.2	
287.38	2994.1	
287.59	4154	
287.8	4084.3	
288.01	2555.9	
288.22	2850.1	
288.43	4296.6	
288.64	3826.3	
288.85	2982.5	
289.06	2848	
289.27	4460.5	
289.48	4631.1	
289.69	3154.6	
289.9	2898.6	
290.11	4650.3	
290.32	4104.1	
290.53	2965.5	
290.74	2781.8	
290.94	4481.6	
291.15	4469.4	
291.36	2534	
291.57	2850.8	
291.78	4149.2	
291.99	3874.8	
292.2	2473.9	
292.41	2772.3	
292.62	4481	
292.83	4397	
293.04	3288.4	
293.25	2518.3	
293.46	4237.2	
293.67	4485.1	
293.88	2490.3	
294.09	2489.6	
294.29	4125.3	
294.5	4312.3	
294.71	2656.2	
294.92	2542.9	
295.13	4203.1	
295.34	4908.3	
295.55	2325.1	
295.76	2317.6	
295.97	4448.9	
296.18	4758.8	
296.39	2411.8	
296.6	2538.1	
296.81	4210.6	
297.01	4461.2	
297.22	2641.2	
297.43	2579.1	
297.64	4172.4	
297.85	3977.2	
298.06	2226.8	
298.27	2334.7	
298.48	4156	
298.69	4061.1	
298.9	2693.8	
299.11	2473.9	
299.31	3992.2	
299.52	4017.4	
299.73	2851.5	
299.94	2734.7	
300.15	4310.3	
300.36	4076.1	
300.57	2788	
300.78	2721.1	
300.99	4089.1	
301.2	4257	
301.4	2558.6	
301.61	2626.9	
301.82	4322.6	
302.03	4463.9	
302.24	2874.7	
302.45	2436.4	
302.66	4427	
302.87	4467.3	
303.08	2540.8	
303.29	3162.1	
303.49	4207.9	
303.7	4158.1	
303.91	2377.7	
304.12	3127.9	
304.33	3865.2	
304.54	4387.4	
304.75	2588.6	
304.96	2526.5	
305.16	4414.1	
305.37	4784.1	
305.58	2349.7	
305.79	2366.1	
306	4425	
306.21	3879.5	
306.42	2531.3	
306.63	3472.7	
306.83	4151.9	
307.04	4334.2	
307.25	2721.8	
307.46	2655.5	
307.67	3881.6	
307.88	4411.3	
308.09	2566.1	
308.29	2563.4	
308.5	4266.6	
308.71	4500.8	
308.92	2691	
309.13	2458.9	
309.34	4289.8	
309.55	4182.6	
309.75	3041.9	
309.96	2762	
310.17	4477.5	
310.38	4042.7	
310.59	2848	
310.8	2768.9	
311.01	4760.8	
311.21	4227.7	
311.42	2524.5	
311.63	2489.6	
311.84	4148.5	
312.05	4206.5	
312.26	2760.7	
312.46	2920.4	
312.67	4141	
312.88	3974.4	
313.09	2439.1	
313.3	2439.8	
313.51	4661.2	
313.71	4867.3	
313.92	2497.2	
314.13	2558.6	
314.34	4384.7	
314.55	4227.7	
314.76	2961.4	
314.96	2685.6	
315.17	4412.7	
315.38	4263.9	
315.59	2497.8	
315.8	2430.3	
316.01	4588.8	
316.21	4729.4	
316.42	2411.8	
316.63	2663.7	
316.84	4164.2	
317.05	4530.1	
317.26	2768.2	
317.46	2613.2	
317.67	4218.1	
317.88	4396.3	
318.09	2905.4	
318.3	2334.7	
318.5	4188.8	
318.71	4354	
318.92	3555.3	
319.13	2831.7	
319.34	4501.4	
319.54	4549.2	
319.75	2332	
319.96	2296.5	
320.17	4372.4	
320.38	4527.4	
320.58	2324.4	
320.79	2661	
321	4575.2	
321.21	4633.2	
321.42	2695.8	
321.62	2331.3	
321.83	4111.6	
322.04	4273.4	
322.25	2631	
322.46	2494.4	
322.66	4294.6	
322.87	4455	
323.08	2871.9	
323.29	2372.2	
323.5	4863.9	
323.7	4002.4	
323.91	3080.1	
324.12	2878.8	
324.33	4393.6	
324.53	4459.8	
324.74	2745	
324.95	2921.1	
325.16	4009.2	
325.37	4194.9	
325.57	2494.4	
325.78	2508.8	
325.99	4394.3	
326.2	3917.1	
326.4	3239.2	
326.61	2359.9	
326.82	4186.7	
327.03	4287.1	
327.24	3229	
327.44	3031.7	
327.65	4424.3	
327.86	3792.2	
328.07	2826.9	
328.27	2387.9	
328.48	4690.5	
328.69	3994.9	
328.9	3220.1	
329.1	2538.8	
329.31	4213.4	
329.52	4644.1	
329.73	2510.8	
329.93	2597.5	
330.14	4295.3	
330.35	4359.4	
330.56	3535.5	
330.76	2885.6	
330.97	4155.3	
331.18	4209.3	
331.39	2783.2	
331.59	2296.5	
331.8	4567.7	
332.01	4582	
332.22	2519.7	
332.42	2753.8	
332.63	4281.6	
332.84	4026.3	
333.05	2710.8	
333.25	2493.7	
333.46	4058.4	
333.67	4231.1	
333.88	2562.7	
334.08	2766.1	
334.29	5190.2	
334.5	4480.3	
334.7	2483.5	
334.91	3193.5	
335.12	3938.2	
335.33	4377.2	
335.53	2720.4	
335.74	3542.3	
335.95	4220.2	
336.16	3906.8	
336.36	2695.1	
336.57	2976.4	
336.78	3845.4	
336.98	4495.3	
337.19	3170.3	
337.4	2621.4	
337.61	4890.5	
337.81	3974.4	
338.02	2513.5	
338.23	2974.3	
338.43	4638	
338.64	4102.8	
338.85	2532	
339.05	3069.2	
339.26	4713.1	
339.47	3921.2	
339.68	2495.1	
339.88	3271.3	
340.09	4457.1	
340.3	4549.2	
340.5	2758.6	
340.71	2299.2	
340.92	4004.5	
341.13	4575.8	
341.33	2392.7	
341.54	2774.3	
341.75	4343.7	
341.95	4132.8	
342.16	2700.6	
342.37	2909.5	
342.57	3999	
342.78	4103.4	
342.99	2873.3	
343.19	2314.9	
343.4	4453	
343.61	4393.6	
343.81	2624.1	
344.02	2383.8	
344.23	4448.2	
344.43	4614.8	
344.64	2930.6	
344.85	2873.3	
345.06	4448.2	
345.26	4548.5	
345.47	2812.5	
345.68	3147.7	
345.88	3918.4	
346.09	4477.5	
346.3	2893.1	
346.5	2273.9	
346.71	4124.6	
346.92	4034.5	
347.12	2452.1	
347.33	2795.5	
347.54	4483	
347.74	4674.1	
347.95	2808.4	
348.16	2276	
348.36	4107.5	
348.57	3981.3	
348.78	2807.8	
348.98	2896.5	
349.19	4219.5	
349.39	3876.1	
349.6	2425.5	
349.81	2557.9	
350.01	4463.9	
350.22	4035.9	
350.43	2743.6	
350.63	3149.8	
350.84	4198.3	
351.05	4062.5	
351.25	2484.9	
351.46	2390	
351.67	4512.4	
351.87	4093.2	
352.08	2646.7	
352.29	2887.6	
352.49	4456.4	
352.7	4478.9	
352.9	2443.2	
353.11	2938.2	
353.32	4756.1	
353.52	4173.1	
353.73	2520.4	
353.94	2969.6	
354.14	4434.5	
354.35	4155.3	
354.55	2532.7	
354.76	2725.8	
354.97	4418.8	
355.17	4169.7	
355.38	2527.9	
355.59	3097.2	
355.79	4085	
356	4147.1	
356.2	2745	
356.41	2526.5	
356.62	4024.3	
356.82	4197.7	
357.03	2932.7	
357.24	2652.8	
357.44	4055	
357.65	4182.6	
357.85	3277.4	
358.06	2804.4	
358.27	3965.6	
358.47	4027	
358.68	2484.2	
358.88	2888.3	
359.09	4358.8	
359.3	4516.5	
359.5	3214.6	
359.71	2965.5	
359.91	4742.4	
360.12	4395.6	
360.33	2980.5	
360.53	3155.9	
360.74	4160.1	
360.94	4195.6	
361.15	3080.1	
361.36	2684.9	
361.56	4615.4	
361.77	4312.3	
361.97	3272	
362.18	2815.3	
362.38	4680.3	
362.59	4158.7	
362.8	2720.4	
363	2579.8	
363.21	4077.5	
363.41	4337.6	
363.62	2912.2	
363.83	3360	
364.03	4528.1	
364.24	4837.3	
364.44	3551.9	
364.65	3551.2	
364.85	4333.5	
365.06	4229.1	
365.27	2753.8	
365.47	2863.7	
365.68	4825	
365.88	4371.7	
366.09	3026.9	
366.29	2836.4	
366.5	4363.5	
366.71	4655	
366.91	3489.1	
367.12	3150.5	
367.32	5047.6	
367.53	4628.4	
367.73	3153.2	
367.94	3659	
368.14	4697.4	
368.35	4827.7	
368.56	3117.7	
368.76	2822.8	
368.97	4700.8	
369.17	5374.6	
369.38	2875.3	
369.58	3020.8	
369.79	4149.2	
369.99	4945.8	
370.2	3568.9	
370.4	3082.2	
370.61	4513.7	
370.82	5261.9	
371.02	3013.9	
371.23	2707.4	
371.43	4275.5	
371.64	5027.8	
371.84	3068.5	
372.05	3591.5	
372.25	5492	
372.46	4593.6	
372.66	3061.7	
372.87	3084.2	
373.07	4714.4	
373.28	5688.6	
373.48	3551.2	
373.69	3431.7	
373.9	4569	
374.1	4566.3	
374.31	3567.6	
374.51	3336.8	
374.72	4988.2	
374.92	4474.8	
375.13	3687	
375.33	3271.3	
375.54	4783.4	
375.74	4542.4	
375.95	3450.8	
376.15	4036.5	
376.36	4969.7	
376.56	4786.1	
376.77	3414	
376.97	3654.3	
377.18	5554.8	
377.38	5018.2	
377.59	3795.6	
377.79	3308.2	
378	4833.9	
378.2	5018.9	
378.41	3312.2	
378.61	3264.5	
378.82	5127.4	
379.02	4827.7	
379.23	3437.9	
379.43	3959.4	
379.64	5390.3	
379.84	5040.1	
380.05	3393.5	
380.25	3323.9	
380.46	5129.5	
380.66	4885.8	
380.87	4086.4	
381.07	4186.7	
381.28	5399.1	
381.48	5047.6	
381.69	3398.3	
381.89	3386.7	
382.1	4574.5	
382.3	5064.6	
382.51	3964.2	
382.71	4356	
382.91	4967	
383.12	5351.3	
383.32	3608.5	
383.53	3652.9	
383.73	5040.1	
383.94	4964.3	
384.14	3602.4	
384.35	3235.1	
384.55	4760.8	
384.76	4952	
384.96	3529.3	
385.17	3667.9	
385.37	5091.9	
385.58	4545.1	
385.78	3657	
385.98	3145.7	
386.19	4818.9	
386.39	5018.2	
386.6	3428.3	
386.8	3537.5	
387.01	5025.7	
387.21	5051.7	
387.42	3726.6	
387.62	3950.5	
387.83	4829.1	
388.03	4834.6	
388.23	3696.6	
388.44	3995.6	
388.64	4663.2	
388.85	4693.9	
389.05	3764.2	
389.26	4143.7	
389.46	5922.7	
389.67	5485.1	
389.87	3834.5	
390.07	3885.7	
390.28	5012.1	
390.48	4750.6	
390.69	3510.9	
390.89	3703.4	
391.1	4959.5	
391.3	5367.7	
391.5	4204.5	
391.71	4521.9	
391.91	5414.1	
392.12	5609.4	
392.32	4362.2	
392.53	3962.8	
392.73	4987.5	
392.93	5070.1	
393.14	3771	
393.34	4148.5	
393.55	5365.7	
393.75	5046.2	
393.95	3744.4	
394.16	3689.1	
394.36	5046.9	
394.57	5373.2	
394.77	3511.6	
394.98	3667.9	
395.18	4960.9	
395.38	5003.9	
395.59	4196.3	
395.79	3682.9	
396	5154.7	
396.2	5410.7	
396.4	4212.7	
396.61	4143.7	
396.81	5417.6	
397.02	5136.3	
397.22	4402.5	
397.42	4465.3	
397.63	5666.7	
397.83	5315.2	
398.04	3848.8	
398.24	4192.2	
398.44	5481.7	
398.65	5014.1	
398.85	3909.6	
399.05	3874.8	
399.26	5416.2	
399.46	6100.2	
399.67	4126.7	
399.87	3932.1	
400.07	5604.6	
400.28	5695.4	
400.48	4063.2	
400.69	4656.4	
400.89	5733.6	
401.09	6171.2	
401.3	4132.1	
401.5	4661.9	
401.7	6237.4	
401.91	6361	
402.11	4420.2	
402.32	4377.2	
402.52	6077.7	
402.72	5898.1	
402.93	4597	
403.13	3972.4	
403.33	6380.8	
403.54	5527.5	
403.74	4431.1	
403.94	4734.9	
404.15	5580.7	
404.35	6238.1	
404.56	4156	
404.76	5057.8	
404.96	5808	
405.17	5664	
405.37	4544.4	
405.57	4479.6	
405.78	5986.9	
405.98	5640.8	
406.18	4353.3	
406.39	4747.2	
406.59	5945.9	
406.79	5659.9	
407	4158.7	
407.2	4206.5	
407.4	6201.9	
407.61	6114.6	
407.81	4294.6	
408.01	5136.3	
408.22	5315.2	
408.42	6512.5	
408.62	5007.3	
408.83	4804.5	
409.03	6025.1	
409.23	6109.8	
409.44	4992.9	
409.64	5166.3	
409.84	6819.1	
410.05	6854.6	
410.25	5348.6	
410.45	5243.5	
410.66	6808.8	
410.86	7989.8	
411.06	5730.2	
411.27	5494.7	
411.47	8173.4	
411.67	6974.7	
411.88	5749.3	
412.08	6046.3	
412.28	7385.7	
412.49	7728.4	
412.69	5857.9	
412.89	5788.9	
413.09	7733.8	
413.3	7742.7	
413.5	6083.1	
413.7	5888.6	
413.91	7277.8	
414.11	7749.5	
414.31	6004.6	
414.52	6335	
414.72	7708.6	
414.92	7694.2	
415.12	6066.8	
415.33	6393.1	
415.53	7856.7	
415.73	8009.6	
415.94	6588.3	
416.14	6317.3	
416.34	7563.8	
416.55	7353.6	
416.75	6916	
416.95	6713.2	
417.15	8268.3	
417.36	8416.5	
417.56	7174.7	
417.76	6721.4	
417.97	8355.7	
418.17	8243.8	
418.37	6578.8	
418.57	6625.2	
418.78	8287.4	
418.98	8063.5	
419.18	7098.3	
419.38	7030.7	
419.59	8055.3	
419.79	7763.8	
419.99	6551.5	
420.2	6630.6	
420.4	8322.3	
420.6	8260.1	
420.8	6514.6	
421.01	6432	
421.21	8344.8	
421.41	8239	
421.61	6602	
421.82	6613.6	
422.02	8134.5	
422.22	8547.5	
422.42	7119.4	
422.63	6648.4	
422.83	8089.5	
423.03	8808.3	
423.23	6853.2	
423.44	6303.6	
423.64	8024.6	
423.84	7699	
424.04	6503.7	
424.25	6285.2	
424.45	8386.4	
424.65	8466.3	
424.85	6225.1	
425.06	6606.1	
425.26	8755.7	
425.46	7967.3	
425.66	6790.4	
425.87	6569.2	
426.07	8335.2	
426.27	8166.6	
426.47	6647	
426.67	6324.8	
426.88	8548.2	
427.08	8268.3	
427.28	6948.8	
427.48	6315.3	
427.69	7634.8	
427.89	7998	
428.09	6637.5	
428.29	6200.6	
428.5	8282	
428.7	8094.3	
428.9	6326.9	
429.1	6621.1	
429.3	8224	
429.51	8286.8	
429.71	6412.9	
429.91	6933.7	
430.11	8439	
430.31	8770.8	
430.52	6765.8	
430.72	6862.7	
430.92	8686.1	
431.12	8417.2	
431.32	6602.7	
431.53	6847.7	
431.73	7974.1	
431.93	8791.9	
432.13	6550.8	
432.33	6573.3	
432.54	8284	
432.74	8302.5	
432.94	6722.8	
433.14	7200	
433.34	8766	
433.55	8574.8	
433.75	7159.7	
433.95	8248.5	
434.15	8755.7	
434.35	8454.7	
434.56	6818.4	
434.76	6767.2	
434.96	8680	
435.16	8946.9	
435.36	6905.8	
435.56	7648.5	
435.77	8669.7	
435.97	8808.3	
436.17	8069.7	
436.37	7696.9	
436.57	8640.4	
436.78	8868.4	
436.98	7547.4	
437.18	7973.4	
437.38	9188.6	
437.58	8845.2	
437.78	8053.3	
437.99	7393.8	
438.19	9101.9	
438.39	9924.5	
438.59	7362.4	
438.79	6870.9	
438.99	9456.8	
439.2	8665.6	
439.4	6953.5	
439.6	6974	
439.8	8859.5	
440	9454.1	
440.2	7733.1	
440.4	7595.2	
440.61	9430.2	
440.81	9572.9	
441.01	7460.8	
441.21	7974.8	
441.41	10006	
441.61	9508.7	
441.81	8327.7	
442.02	8815.8	
442.22	10233	
442.42	9801.6	
442.62	7865.6	
442.82	7786.4	
443.02	10088	
443.22	9655.5	
443.43	8172.1	
443.63	7819.1	
443.83	9476	
444.03	9462.3	
444.23	8729.1	
444.43	8432.9	
444.63	9949	
444.83	10447	
445.04	8296.3	
445.24	8819.9	
445.44	10050	
445.64	10081	
445.84	8399.4	
446.04	8579.6	
446.24	9620	
446.44	10196	
446.65	7873.8	
446.85	8298.4	
447.05	9522.4	
447.25	9975.7	
447.45	8230.8	
447.65	7881.9	
447.85	9747	
448.05	9316.9	
448.25	8610.3	
448.46	8296.3	
448.66	9751.1	
448.86	9511.4	
449.06	7866.2	
449.26	8347.5	
449.46	10060	
449.66	9473.2	
449.86	8481.3	
450.06	8232.8	
450.26	9665	
450.47	9996.8	
450.67	8380.3	
450.87	8671.8	
451.07	10314	
451.27	10012	
451.47	8236.2	
451.67	8776.9	
451.87	9854.8	
452.07	10358	
452.27	8477.2	
452.47	8308.6	
452.67	9985.9	
452.88	10264	
453.08	7920.2	
453.28	9061.6	
453.48	10864	
453.68	9895.8	
453.88	8515.5	
454.08	8538.7	
454.28	10459	
454.48	10201	
454.68	8921	
454.88	9047.9	
455.08	10574	
455.28	10585	
455.48	8284	
455.68	9074.5	
455.89	10848	
456.09	10821	
456.29	8786.5	
456.49	9068.4	
456.69	11157	
456.89	10485	
457.09	9424.1	
457.29	9767.4	
457.49	10968	
457.69	11119	
457.89	9621.4	
458.09	9073.2	
458.29	10950	
458.49	11536	
458.69	9846	
458.89	9651.4	
459.09	11965	
459.29	11832	
459.49	9522.4	
459.69	10075	
459.9	11440	
460.1	11639	
460.3	9564.7	
460.5	9472.5	
460.7	11774	
460.9	11338	
461.1	9401.5	
461.3	10287	
461.5	12314	
461.7	11882	
461.9	10159	
462.1	10236	
462.3	12030	
462.5	12309	
462.7	10289	
462.9	10322	
463.1	12848	
463.3	12869	
463.5	10536	
463.7	11397	
463.9	12526	
464.1	12543	
464.3	11159	
464.5	11069	
464.7	12940	
464.9	13059	
465.1	11953	
465.3	11456	
465.5	13153	
465.7	13435	
465.9	11884	
466.1	11274	
466.3	13422	
466.5	13102	
466.7	12449	
466.9	11570	
467.1	13606	
467.3	13903	
467.5	12464	
467.7	11912	
467.9	14121	
468.1	14555	
468.3	12169	
468.5	12577	
468.7	13782	
468.9	13614	
469.1	12331	
469.3	12827	
469.5	14881	
469.7	13747	
469.9	12368	
470.1	12378	
470.3	14179	
470.5	13901	
470.7	13052	
470.9	12304	
471.1	13935	
471.3	13705	
471.5	12349	
471.69	13258	
471.89	13765	
472.09	13211	
472.29	12623	
472.49	12554	
472.69	13676	
472.89	13921	
473.09	12230	
473.29	11998	
473.49	13690	
473.69	13511	
473.89	12508	
474.09	12110	
474.29	14256	
474.49	13933	
474.69	12605	
474.89	12088	
475.09	13635	
475.29	13695	
475.49	11811	
475.69	12207	
475.88	14289	
476.08	13873	
476.28	11929	
476.48	11749	
476.68	13975	
476.88	13650	
477.08	11841	
477.28	11975	
477.48	13285	
477.68	13492	
477.88	11694	
478.08	11890	
478.28	14061	
478.48	13433	
478.67	11966	
478.87	11374	
479.07	14122	
479.27	13591	
479.47	12069	
479.67	12194	
479.87	13946	
480.07	14174	
480.27	11824	
480.47	12577	
480.67	13547	
480.87	14210	
481.06	11966	
481.26	12529	
481.46	13773	
481.66	13690	
481.86	12285	
482.06	12710	
482.26	13642	
482.46	13928	
482.66	12253	
482.86	11990	
483.05	14106	
483.25	13512	
483.45	13508	
483.65	12157	
483.85	13578	
484.05	13788	
484.25	12498	
484.45	12940	
484.65	14239	
484.84	14483	
485.04	12408	
485.24	12486	
485.44	14840	
485.64	13898	
485.84	12370	
486.04	13088	
486.24	14068	
486.44	14379	
486.63	12325	
486.83	13138	
487.03	14417	
487.23	14707	
487.43	12534	
487.63	13906	
487.83	14640	
488.02	14737	
488.22	13347	
488.42	13795	
488.62	15159	
488.82	14707	
489.02	13052	
489.22	13377	
489.41	14965	
489.61	15353	
489.81	13271	
490.01	13188	
490.21	15421	
490.41	15852	
490.61	13292	
490.8	13366	
491	15185	
491.2	14796	
491.4	13612	
491.6	13303	
491.8	15078	
491.99	14715	
492.19	13080	
492.39	12973	
492.59	15218	
492.79	15289	
492.99	13782	
493.18	13323	
493.38	15517	
493.58	16154	
493.78	13792	
493.98	13623	
494.18	15658	
494.37	15504	
494.57	14665	
494.77	14474	
494.97	16281	
495.17	16614	
495.37	14672	
495.56	14820	
495.76	16855	
495.96	16781	
496.16	15709	
496.36	15258	
496.55	17228	
496.75	17017	
496.95	15378	
497.15	15446	
497.35	17247	
497.54	17319	
497.74	15382	
497.94	16276	
498.14	17744	
498.34	17503	
498.53	15431	
498.73	15670	
498.93	17098	
499.13	17451	
499.33	16010	
499.52	15985	
499.72	17965	
499.92	17630	
500.12	15860	
500.32	16050	
500.51	17876	
500.71	17804	
500.91	16346	
501.11	16258	
501.31	17897	
501.5	18271	
501.7	16799	
501.9	16315	
502.1	17854	
502.29	18075	
502.49	16452	
502.69	16567	
502.89	18094	
503.09	18056	
503.28	15737	
503.48	15810	
503.68	17531	
503.88	17384	
504.07	16330	
504.27	15701	
504.47	17705	
504.67	17522	
504.86	16126	
505.06	15798	
505.26	17452	
505.46	17975	
505.65	15781	
505.85	15748	
506.05	17057	
506.25	17368	
506.44	15098	
506.64	15371	
506.84	16865	
507.04	17019	
507.23	15047	
507.43	15253	
507.63	17608	
507.83	16658	
508.02	15304	
508.22	15147	
508.42	17907	
508.62	16666	
508.81	14964	
509.01	15530	
509.21	16363	
509.4	16734	
509.6	15245	
509.8	14960	
510	16535	
510.19	17188	
510.39	14758	
510.59	15001	
510.79	16667	
510.98	17454	
511.18	15265	
511.38	15294	
511.57	17220	
511.77	16817	
511.97	15513	
512.17	14982	
512.36	17322	
512.56	16867	
512.76	15013	
512.95	14849	
513.15	17209	
513.35	16349	
513.55	15518	
513.74	14994	
513.94	17048	
514.14	16755	
514.33	15586	
514.53	15491	
514.73	16935	
514.92	17036	
515.12	15209	
515.32	15104	
515.51	17076	
515.71	17146	
515.91	16044	
516.11	15318	
516.3	18136	
516.5	17087	
516.7	15621	
516.89	16047	
517.09	16984	
517.29	17091	
517.48	15855	
517.68	15486	
517.88	16743	
518.07	17345	
518.27	15788	
518.47	15285	
518.66	17428	
518.86	16963	
519.06	15106	
519.25	15335	
519.45	16948	
519.65	17857	
519.84	15771	
520.04	16316	
520.24	18203	
520.43	17395	
520.63	15586	
520.83	15649	
521.02	17108	
521.22	17186	
521.42	15601	
521.61	15948	
521.81	16804	
522.01	17002	
522.2	15472	
522.4	15270	
522.6	17350	
522.79	16660	
522.99	15455	
523.18	15479	
523.38	17420	
523.58	17556	
523.77	16571	
523.97	15753	
524.17	18713	
524.36	18285	
524.56	16676	
524.76	16513	
524.95	18194	
525.15	18041	
525.34	16761	
525.54	16993	
525.74	18697	
525.93	18322	
526.13	17785	
526.33	17264	
526.52	19232	
526.72	18979	
526.91	18060	
527.11	17583	
527.31	19236	
527.5	19626	
527.7	17714	
527.89	17362	
528.09	19088	
528.29	19336	
528.48	17943	
528.68	17521	
528.87	19654	
529.07	19504	
529.27	17790	
529.46	17638	
529.66	19568	
529.85	19799	
530.05	17827	
530.25	18016	
530.44	20451	
530.64	19272	
530.83	18079	
531.03	18057	
531.23	20067	
531.42	19643	
531.62	18396	
531.81	18082	
532.01	20026	
532.21	20317	
532.4	18269	
532.6	18623	
532.79	20772	
532.99	20581	
533.18	19022	
533.38	19390	
533.58	20792	
533.77	20998	
533.97	19426	
534.16	19785	
534.36	21513	
534.55	20847	
534.75	19835	
534.95	19422	
535.14	21584	
535.34	21039	
535.53	19082	
535.73	20185	
535.92	21829	
536.12	20960	
536.31	19320	
536.51	19837	
536.71	21116	
536.9	20682	
537.1	19128	
537.29	19280	
537.49	21097	
537.68	20562	
537.88	19521	
538.07	18998	
538.27	21000	
538.46	21624	
538.66	19126	
538.86	19336	
539.05	21077	
539.25	21249	
539.44	19858	
539.64	19329	
539.83	21048	
540.03	21398	
540.22	19307	
540.42	19144	
540.61	20949	
540.81	21102	
541	19159	
541.2	19817	
541.39	20500	
541.59	20783	
541.78	19567	
541.98	18919	
542.18	20299	
542.37	20307	
542.57	18998	
542.76	19471	
542.96	20233	
543.15	20441	
543.35	18733	
543.54	18393	
543.74	19784	
543.93	20113	
544.13	18420	
544.32	19060	
544.52	20132	
544.71	19626	
544.91	17716	
545.1	18361	
545.3	19721	
545.49	19978	
545.69	17733	
545.88	17980	
546.08	20544	
546.27	20082	
546.47	18279	
546.66	17892	
546.86	19770	
547.05	20068	
547.24	17935	
547.44	17961	
547.63	19243	
547.83	19973	
548.02	18067	
548.22	18094	
548.41	19133	
548.61	19803	
548.8	17658	
549	17733	
549.19	19420	
549.39	19591	
549.58	17322	
549.78	17738	
549.97	19440	
550.17	19047	
550.36	17835	
550.55	18531	
550.75	19060	
550.94	19509	
551.14	17374	
551.33	17286	
551.53	18687	
551.72	19260	
551.92	17336	
552.11	17126	
552.31	19143	
552.5	18920	
552.69	18110	
552.89	16969	
553.08	19140	
553.28	18893	
553.47	17124	
553.67	17703	
553.86	19199	
554.06	18265	
554.25	16723	
554.44	17068	
554.64	19661	
554.83	19247	
555.03	16824	
555.22	17169	
555.42	19022	
555.61	18852	
555.8	16977	
556	16955	
556.19	18383	
556.39	18706	
556.58	16824	
556.78	16838	
556.97	18659	
557.16	18628	
557.36	17603	
557.55	16763	
557.75	18091	
557.94	19108	
558.13	16694	
558.33	16640	
558.52	19003	
558.72	18119	
558.91	16556	
559.1	16626	
559.3	18082	
559.49	17682	
559.69	16511	
559.88	16708	
560.07	18316	
560.27	18545	
560.46	16791	
560.66	16866	
560.85	18221	
561.04	17701	
561.24	16361	
561.43	16319	
561.63	17782	
561.82	17956	
562.01	17058	
562.21	16442	
562.4	18079	
562.59	18731	
562.79	16445	
562.98	16327	
563.18	18162	
563.37	18934	
563.56	16795	
563.76	16516	
563.95	18087	
564.14	18060	
564.34	16854	
564.53	16574	
564.73	18415	
564.92	18533	
565.11	16926	
565.31	16587	
565.5	18751	
565.69	18086	
565.89	16774	
566.08	16999	
566.27	18607	
566.47	19145	
566.66	17324	
566.85	16752	
567.05	18744	
567.24	18375	
567.44	16719	
567.63	17567	
567.82	18826	
568.02	18532	
568.21	16877	
568.4	16997	
568.6	18672	
568.79	18691	
568.98	17079	
569.18	17088	
569.37	18822	
569.56	19702	
569.76	17275	
569.95	17813	
570.14	18983	
570.34	18953	
570.53	17097	
570.72	17068	
570.91	19308	
571.11	18823	
571.3	17249	
571.49	17599	
571.69	18911	
571.88	18424	
572.07	17555	
572.27	17432	
572.46	18568	
572.65	18990	
572.85	17207	
573.04	17352	
573.23	19456	
573.43	18948	
573.62	17200	
573.81	17563	
574	19168	
574.2	18959	
574.39	17676	
574.58	17595	
574.78	19804	
574.97	19473	
575.16	18074	
575.36	18176	
575.55	19891	
575.74	19873	
575.93	17773	
576.13	18460	
576.32	19513	
576.51	19845	
576.71	18038	
576.9	18819	
577.09	20108	
577.28	19799	
577.48	18224	
577.67	17791	
577.86	19861	
578.05	19995	
578.25	18213	
578.44	18168	
578.63	19770	
578.83	20394	
579.02	17940	
579.21	18774	
579.4	19910	
579.6	19986	
579.79	18226	
579.98	19456	
580.17	20006	
580.37	20326	
580.56	17994	
580.75	18570	
580.94	20213	
581.14	20426	
581.33	18855	
581.52	18206	
581.71	20065	
581.91	20517	
582.1	18306	
582.29	18334	
582.48	20145	
582.68	20104	
582.87	18830	
583.06	18644	
583.25	20506	
583.45	20278	
583.64	19203	
583.83	19457	
584.02	20298	
584.21	20595	
584.41	18933	
584.6	18830	
584.79	20422	
584.98	20717	
585.18	18420	
585.37	18560	
585.56	20302	
585.75	20651	
585.94	18397	
586.14	18901	
586.33	20448	
586.52	20152	
586.71	18510	
586.91	18424	
587.1	19450	
587.29	20383	
587.48	18077	
587.67	18099	
587.87	19763	
588.06	19562	
588.25	18542	
588.44	18181	
588.63	19206	
588.83	19775	
589.02	17691	
589.21	17434	
589.4	19060	
589.59	19157	
589.78	16650	
589.98	16569	
590.17	17980	
590.36	18105	
590.55	15557	
590.74	15840	
590.94	18107	
591.13	17236	
591.32	15582	
591.51	15139	
591.7	17165	
591.89	17270	
592.09	15324	
592.28	15599	
592.47	16779	
592.66	18132	
592.85	15452	
593.05	15679	
593.24	17348	
593.43	17834	
593.62	15907	
593.81	15978	
594	17430	
594.19	17591	
594.39	15833	
594.58	15634	
594.77	17653	
594.96	17813	
595.15	15653	
595.34	15845	
595.54	17135	
595.73	16923	
595.92	15033	
596.11	15457	
596.3	17666	
596.49	16858	
596.68	15343	
596.88	15727	
597.07	17333	
597.26	16827	
597.45	15307	
597.64	15805	
597.83	16886	
598.02	17400	
598.22	15345	
598.41	15601	
598.6	17228	
598.79	16900	
598.98	15351	
599.17	15920	
599.36	17108	
599.55	17641	
599.74	16303	
599.94	16451	
600.13	17484	
600.32	16705	
600.51	15180	
600.7	15102	
600.89	17621	
601.08	17679	
601.27	14988	
601.47	15517	
601.66	17156	
601.85	17660	
602.04	15524	
602.23	15410	
602.42	16882	
602.61	17144	
602.8	15369	
602.99	15188	
603.18	17094	
603.37	17093	
603.57	15437	
603.76	15640	
603.95	17511	
604.14	17108	
604.33	15296	
604.52	15484	
604.71	17294	
604.9	16876	
605.09	15773	
605.28	15732	
605.47	17563	
605.66	17081	
605.86	15778	
606.05	15261	
606.24	17462	
606.43	16520	
606.62	15519	
606.81	15732	
607	17350	
607.19	16856	
607.38	15033	
607.57	15224	
607.76	16662	
607.95	16437	
608.14	15455	
608.33	15500	
608.52	16582	
608.72	17260	
608.91	14895	
609.1	14777	
609.29	16586	
609.48	16225	
609.67	15347	
609.86	14827	
610.05	16369	
610.24	16294	
610.43	14986	
610.62	14527	
610.81	16993	
611	16969	
611.19	14792	
611.38	15117	
611.57	16640	
611.76	17243	
611.95	14653	
612.14	14392	
612.33	16488	
612.52	16146	
612.71	14858	
612.9	14623	
613.09	16098	
613.28	17402	
613.47	14758	
613.66	15238	
613.85	16555	
614.04	16167	
614.24	14741	
614.43	14272	
614.62	16603	
614.81	16543	
615	14902	
615.19	15016	
615.38	16202	
615.57	16511	
615.76	14988	
615.95	15502	
616.14	16748	
616.33	16631	
616.52	15255	
616.71	15343	
616.9	16593	
617.09	16612	
617.28	14881	
617.47	15444	
617.66	16308	
617.85	16260	
618.04	15389	
618.22	15113	
618.41	16567	
618.6	17332	
618.79	15422	
618.98	15439	
619.17	17515	
619.36	16578	
619.55	15489	
619.74	15423	
619.93	17205	
620.12	16984	
620.31	15859	
620.5	16024	
620.69	17621	
620.88	18107	
621.07	16385	
621.26	16207	
621.45	17755	
621.64	17715	
621.83	16206	
622.02	15690	
622.21	17717	
622.4	17742	
622.59	16507	
622.78	16511	
622.97	17514	
623.16	17991	
623.35	16346	
623.54	15797	
623.72	17494	
623.91	17739	
624.1	16342	
624.29	15771	
624.48	18369	
624.67	17845	
624.86	16442	
625.05	15963	
625.24	18485	
625.43	17670	
625.62	17247	
625.81	16068	
626	17860	
626.19	17732	
626.38	16655	
626.56	16235	
626.75	17571	
626.94	18191	
627.13	16376	
627.32	15791	
627.51	17966	
627.7	18461	
627.89	15719	
628.08	16514	
628.27	17422	
628.46	17306	
628.65	15759	
628.83	15618	
629.02	17755	
629.21	17123	
629.4	16084	
629.59	16126	
629.78	17290	
629.97	17719	
630.16	16163	
630.35	15887	
630.54	18226	
630.72	17974	
630.91	15912	
631.1	16158	
631.29	17627	
631.48	17811	
631.67	16259	
631.86	15922	
632.05	17679	
632.24	17492	
632.42	15724	
632.61	16064	
632.8	17459	
632.99	17305	
633.18	16264	
633.37	16159	
633.56	17770	
633.75	17656	
633.93	16173	
634.12	16104	
634.31	18249	
634.5	17901	
634.69	16051	
634.88	16148	
635.07	17754	
635.25	17937	
635.44	16618	
635.63	16681	
635.82	17450	
636.01	16715	
636.2	16244	
636.39	16138	
636.57	18101	
636.76	17518	
636.95	15853	
637.14	16431	
637.33	17689	
637.52	18060	
637.7	15641	
637.89	16369	
638.08	17579	
638.27	18174	
638.46	16325	
638.65	16380	
638.83	17923	
639.02	17283	
639.21	16111	
639.4	16257	
639.59	17271	
639.78	17190	
639.96	15582	
640.15	15427	
640.34	17234	
640.53	17164	
640.72	15359	
640.91	15406	
641.09	16739	
641.28	17489	
641.47	15385	
641.66	15739	
641.85	17210	
642.03	17100	
642.22	15493	
642.41	15308	
642.6	16683	
642.79	16163	
642.97	14973	
643.16	15369	
643.35	16570	
643.54	16344	
643.73	14993	
643.91	15350	
644.1	16066	
644.29	16614	
644.48	14654	
644.67	14817	
644.85	15864	
645.04	16305	
645.23	14302	
645.42	14618	
645.6	15652	
645.79	16202	
645.98	13960	
646.17	13549	
646.36	15068	
646.54	15138	
646.73	13933	
646.92	13476	
647.11	14913	
647.29	15306	
647.48	13432	
647.67	13136	
647.86	15423	
648.05	15453	
648.23	13392	
648.42	13975	
648.61	15034	
648.8	14895	
648.98	13134	
649.17	13292	
649.36	14695	
649.55	14467	
649.73	13164	
649.92	13466	
650.11	14678	
650.3	14947	
650.48	13151	
650.67	13256	
650.86	14920	
651.05	14266	
651.23	13141	
651.42	12966	
651.61	14466	
651.79	14240	
651.98	13216	
652.17	12884	
652.36	14655	
652.54	14197	
652.73	12925	
652.92	12904	
653.11	14612	
653.29	14726	
653.48	12411	
653.67	12874	
653.85	14333	
654.04	14958	
654.23	12863	
654.42	12671	
654.6	13770	
654.79	14022	
654.98	12031	
655.16	12130	
655.35	13187	
655.54	12834	
655.73	11660	
655.91	11492	
656.1	13333	
656.29	12815	
656.47	11229	
656.66	12306	
656.85	13269	
657.03	13367	
657.22	11905	
657.41	12091	
657.59	13508	
657.78	13567	
657.97	12067	
658.16	12468	
658.34	13985	
658.53	14362	
658.72	12906	
658.9	13165	
659.09	13930	
659.28	13850	
659.46	12355	
659.65	12411	
659.84	13859	
660.02	14173	
660.21	12398	
660.4	12204	
660.58	14255	
660.77	13860	
660.96	12682	
661.14	12139	
661.33	14622	
661.52	14420	
661.7	12074	
661.89	13928	
662.08	13589	
662.26	13424	
662.45	12252	
662.64	12251	
662.82	14123	
663.01	13501	
663.2	12149	
663.38	12574	
663.57	13886	
663.75	13735	
663.94	12308	
664.13	12894	
664.31	13592	
664.5	13844	
664.69	12434	
664.87	12618	
665.06	13401	
665.25	13855	
665.43	12859	
665.62	12665	
665.8	13737	
665.99	13515	
666.18	12390	
666.36	12185	
666.55	13737	
666.74	13736	
666.92	12025	
667.11	12720	
667.29	13647	
667.48	13790	
667.67	12553	
667.85	12002	
668.04	13332	
668.22	13473	
668.41	12185	
668.6	12383	
668.78	13330	
668.97	13511	
669.15	12280	
669.34	11761	
669.53	13330	
669.71	13646	
669.9	11779	
670.08	12133	
670.27	13189	
670.46	13590	
670.64	12271	
670.83	12522	
671.01	13127	
671.2	13491	
671.38	11906	
671.57	11694	
671.76	13910	
671.94	14193	
672.13	11902	
672.31	12344	
672.5	13740	
672.69	13373	
672.87	11888	
673.06	12116	
673.24	13764	
673.43	13387	
673.61	12196	
673.8	11929	
673.98	13592	
674.17	13595	
674.36	12316	
674.54	12312	
674.73	13218	
674.91	13609	
675.1	12069	
675.28	11788	
675.47	13406	
675.65	13674	
675.84	11923	
676.03	12316	
676.21	13241	
676.4	12994	
676.58	12407	
676.77	12296	
676.95	14028	
677.14	13226	
677.32	11637	
677.51	11772	
677.69	13661	
677.88	13208	
678.06	11738	
678.25	11922	
678.44	13560	
678.62	13201	
678.81	11709	
678.99	12222	
679.18	13839	
679.36	13543	
679.55	11903	
679.73	12242	
679.92	13485	
680.1	13205	
680.29	12611	
680.47	11926	
680.66	13261	
680.84	13630	
681.03	11650	
681.21	12138	
681.4	13162	
681.58	13090	
681.77	11762	
681.95	11798	
682.14	13614	
682.32	13785	
682.51	12347	
682.69	11464	
682.88	13087	
683.06	13200	
683.25	11942	
683.43	12129	
683.62	13251	
683.8	13382	
683.99	12108	
684.17	11869	
684.36	13753	
684.54	12839	
684.73	11067	
684.91	11020	
685.1	12557	
685.28	12026	
685.46	10817	
685.65	10544	
685.83	11878	
686.02	11566	
686.2	10003	
686.39	10010	
686.57	11284	
686.76	12141	
686.94	10303	
687.13	10362	
687.31	11950	
687.5	11884	
687.68	10138	
687.86	10783	
688.05	12899	
688.23	11652	
688.42	10916	
688.6	10576	
688.79	11869	
688.97	12033	
689.16	11030	
689.34	10392	
689.52	12560	
689.71	12768	
689.89	11186	
690.08	10901	
690.26	12568	
690.45	12384	
690.63	11135	
690.81	11152	
691	12364	
691.18	12153	
691.37	10976	
691.55	12032	
691.74	12031	
691.92	13088	
692.1	10860	
692.29	10459	
692.47	12167	
692.66	11630	
692.84	10525	
693.02	10735	
693.21	11836	
693.39	12071	
693.58	11008	
693.76	10659	
693.94	12787	
694.13	12773	
694.31	10906	
694.5	11521	
694.68	12359	
694.86	12813	
695.05	11334	
695.23	11532	
695.42	13100	
695.6	14057	
695.78	11751	
695.97	11369	
696.15	13080	
696.34	12562	
696.52	11165	
696.7	11619	
696.89	12678	
697.07	12372	
697.25	11277	
697.44	12176	
697.62	12666	
697.81	12550	
697.99	11033	
698.17	11211	
698.36	12114	
698.54	12475	
698.72	11166	
698.91	10482	
699.09	12055	
699.28	11953	
699.46	10867	
699.64	10686	
699.83	12030	
700.01	12352	
700.19	11120	
700.38	10301	
700.56	12421	
700.74	12060	
700.93	10558	
701.11	11021	
701.29	12359	
701.48	12961	
701.66	10795	
701.84	10899	
702.03	12315	
702.21	12845	
702.39	10740	
702.58	11039	
702.76	12570	
702.94	12626	
703.13	10649	
703.31	11951	
703.49	12227	
703.68	12705	
703.86	10694	
704.04	11174	
704.23	12366	
704.41	12587	
704.59	10860	
704.78	11230	
704.96	13348	
705.14	12426	
705.33	10596	
705.51	10874	
705.69	12086	
705.87	12731	
706.06	11143	
706.24	10536	
706.42	12323	
706.61	12643	
706.79	11193	
706.97	10468	
707.16	11981	
707.34	12205	
707.52	10940	
707.7	10656	
707.89	11889	
708.07	11854	
708.25	10877	
708.44	11104	
708.62	11862	
708.8	12352	
708.98	11019	
709.17	10667	
709.35	12032	
709.53	12007	
709.72	10366	
709.9	10374	
710.08	12141	
710.26	12109	
710.45	10972	
710.63	10393	
710.81	11675	
710.99	11637	
711.18	10535	
711.36	10139	
711.54	11532	
711.72	11827	
711.91	10081	
712.09	9868.5	
712.27	11428	
712.45	11716	
712.64	9940.2	
712.82	9432.9	
713	10652	
713.18	10760	
713.37	9127.8	
713.55	9686.9	
713.73	10891	
713.91	10019	
714.1	8809	
714.28	8248.5	
714.46	9984.5	
714.64	9273.9	
714.83	7455.3	
715.01	7639.6	
715.19	8833.6	
715.37	8334.6	
715.55	7012.9	
715.74	7077.8	
715.92	8905.9	
716.1	7763.2	
716.28	7574.8	
716.47	6945.3	
716.65	8215.8	
716.83	8013	
717.01	6856.6	
717.19	6718	
717.38	9117.6	
717.56	7908.6	
717.74	6984.3	
717.92	6640.2	
718.1	8570.7	
718.29	8221.2	
718.47	6636.8	
718.65	6997.9	
718.83	9005.6	
719.01	9040.4	
719.2	7047.1	
719.38	7583.6	
719.56	9086.8	
719.74	9942.9	
719.92	7544.7	
720.11	7963.9	
720.29	9129.8	
720.47	8568.7	
720.65	7011.6	
720.83	7281.9	
721.02	8314.1	
721.2	8142	
721.38	6916	
721.56	6470.9	
721.74	7603.4	
721.92	7607.5	
722.11	7050.5	
722.29	6873.7	
722.47	8294.3	
722.65	7811	
722.83	6366.5	
723.01	6742.6	
723.2	7783	
723.38	8082	
723.56	6111.8	
723.74	6664.1	
723.92	7434.8	
724.1	8104.5	
724.29	6277.7	
724.47	6843.6	
724.65	7695.6	
724.83	7498.3	
725.01	6221.7	
725.19	6550.8	
725.37	7408.2	
725.56	7352.9	
725.74	6072.9	
725.92	6188.3	
726.1	7559.7	
726.28	7660.8	
726.46	6348	
726.64	6197.2	
726.83	7601.4	
727.01	7574.8	
727.19	6036	
727.37	6366.5	
727.55	7724.9	
727.73	7880.6	
727.91	5929.6	
728.09	5892.7	
728.28	7804.1	
728.46	7944.8	
728.64	6464.8	
728.82	6390.3	
729	8449.2	
729.18	8168.7	
729.36	6057.2	
729.54	7215.7	
729.72	8794	
729.91	7898.3	
730.09	7240.3	
730.27	6734.4	
730.45	8101.8	
730.63	8185.7	
730.81	7013.6	
730.99	6574	
731.17	8714.8	
731.35	7789.1	
731.53	6759.7	
731.71	6664.8	
731.9	8434.2	
732.08	8411	
732.26	6610.2	
732.44	6500.9	
732.62	8483.4	
732.8	8202.8	
732.98	6799.3	
733.16	6332.3	
733.34	8160.5	
733.52	7322.9	
733.7	6457.2	
733.88	6565.1	
734.07	7959.1	
734.25	7780.2	
734.43	6275	
734.61	6948.1	
734.79	8725	
734.97	7881.9	
735.15	6291.4	
735.33	6439.5	
735.51	7937.9	
735.69	7694.9	
735.87	6925.5	
736.05	6477	
736.23	7855.3	
736.41	7588.4	
736.59	6410.1	
736.77	6463.4	
736.95	8061.5	
737.13	7697.6	
737.32	6167.8	
737.5	6287.9	
737.68	8363.2	
737.86	7654.6	
738.04	6119.3	
738.22	6834.8	
738.4	7520.1	
738.58	7647.8	
738.76	6199.2	
738.94	5799.8	
739.12	7539.3	
739.3	7501	
739.48	6616.3	
739.66	6365.8	
739.84	7612.3	
740.02	7555.6	
740.2	5847	
740.38	5903.6	
740.56	7783	
740.74	7070.3	
740.92	6358.9	
741.1	6092.7	
741.28	7408.9	
741.46	7084.6	
741.64	5964.4	
741.82	6182.8	
742	7391.8	
742.18	7266.9	
742.36	5949.3	
742.54	5774.6	
742.72	7633.5	
742.9	6815.6	
743.08	6021	
743.26	5447.6	
743.44	7604.1	
743.62	7390.4	
743.8	6218.3	
743.98	5686.5	
744.16	7290.1	
744.34	7101	
744.52	5895.4	
744.7	5966.4	
744.88	7260.7	
745.06	7034.8	
745.24	5894.7	
745.42	5884.5	
745.6	7419.1	
745.78	7189.7	
745.96	5279	
746.14	5370.5	
746.32	7574.1	
746.5	7027.3	
746.68	5511.8	
746.86	5288.5	
747.03	7232.1	
747.21	6347.3	
747.39	5534.3	
747.57	5262.6	
747.75	6821.1	
747.93	7006.1	
748.11	5238	
748.29	5158.8	
748.47	7737.9	
748.65	6617.7	
748.83	5563	
749.01	5461.2	
749.19	6907.8	
749.37	6324.8	
749.55	5306.3	
749.73	5333.6	
749.91	6814.3	
750.09	6627.2	
750.26	5429.2	
750.44	5017.5	
750.62	6672.3	
750.8	6503	
750.98	5025	
751.16	5155.4	
751.34	6739.9	
751.52	6352.1	
751.7	5500.2	
751.88	4919.9	
752.06	6898.2	
752.24	6690.7	
752.42	4902.2	
752.59	5030.5	
752.77	6497.5	
752.95	7169.9	
753.13	5353.4	
753.31	5027.8	
753.49	6308.4	
753.67	6550.1	
753.85	5156.8	
754.03	4877.6	
754.21	6577.4	
754.38	6660	
754.56	4871.4	
754.74	4332.1	
754.92	5992.4	
755.1	6133	
755.28	4042.7	
755.46	3996.3	
755.64	6351.4	
755.82	6289.3	
755.99	3750.5	
756.17	3594.2	
756.35	4500.1	
756.53	5211.4	
756.71	2744.3	
756.89	3426.3	
757.07	4913.1	
757.25	4515.1	
757.42	3568.2	
757.6	4121.2	
757.78	5146.5	
757.96	4728.8	
758.14	3641.3	
758.32	3475.4	
758.5	4440.7	
758.67	4904.2	
758.85	3500	
759.03	3512.9	
759.21	5057.1	
759.39	4586.1	
759.57	3295.9	
759.75	3864.5	
759.92	5515.9	
760.1	5139.7	
760.28	4092.5	
760.46	4317.8	
760.64	5040.1	
760.82	5016.2	
760.99	4117.1	
761.17	3839.3	
761.35	5622.4	
761.53	5018.9	
761.71	4022.2	
761.89	4275.5	
762.06	5563.6	
762.24	5417.6	
762.42	4135.5	
762.6	4008.6	
762.78	5464	
762.96	5743.9	
763.13	4349.2	
763.31	4214.7	
763.49	5849	
763.67	5434.6	
763.85	4636.6	
764.02	4914.4	
764.2	6121.4	
764.38	5432.6	
764.56	4195.6	
764.74	4672.8	
764.91	6025.1	
765.09	5455.1	
765.27	3992.2	
765.45	3803.8	
765.63	6120	
765.8	5910.4	
765.98	3661.1	
766.16	3848.1	
766.34	5117.2	
766.52	5036	
766.69	4256.4	
766.87	3725.3	
767.05	5444.9	
767.23	5693.4	
767.41	3943	
767.58	3966.9	
767.76	5626.5	
767.94	5651	
768.12	3883.6	
768.29	4237.9	
768.47	5145.2	
768.65	5776	
768.83	3591.5	
769	4121.9	
769.18	5063.3	
769.36	5348.6	
769.54	4195.6	
769.72	3606.5	
769.89	5684.5	
770.07	5475.6	
770.25	3827	
770.43	4362.9	
770.6	5937.1	
770.78	6032	
770.96	3761.4	
771.14	4083.6	
771.31	5535.7	
771.49	5070.8	
771.67	3377.8	
771.85	3413.3	
772.02	4647.5	
772.2	4986.1	
772.38	3798.3	
772.55	3527.3	
772.73	5195	
772.91	5068	
773.09	3717.7	
773.26	3760.1	
773.44	5124	
773.62	4969.1	
773.8	3421.5	
773.97	3257	
774.15	5086.5	
774.33	4952	
774.5	3373	
774.68	3510.9	
774.86	5089.2	
775.04	4878.9	
775.21	3357.3	
775.39	3260.4	
775.57	5115.1	
775.74	5077.6	
775.92	3196.9	
776.1	3087	
776.27	4913.1	
776.45	5530.2	
776.63	3311.6	
776.81	3043.3	
776.98	4785.4	
777.16	5237.3	
777.34	3340.2	
777.51	3477.5	
777.69	4663.2	
777.87	4569	
778.04	3396.2	
778.22	3593.5	
778.4	4592.2	
778.57	4904.2	
778.75	2903.3	
778.93	3099.9	
779.1	4481	
779.28	4301.4	
779.46	2824.1	
779.64	3108.1	
779.81	4986.1	
779.99	5345.9	
780.17	3476.8	
780.34	3545.7	
780.52	4691.9	
780.69	4711.7	
780.87	3298.6	
781.05	3022.1	
781.22	4728.8	
781.4	4690.5	
781.58	3091.8	
781.75	2608.4	
781.93	4692.6	
782.11	4234.5	
782.28	3528.7	
782.46	3046.7	
782.64	4182	
782.81	4718.5	
782.99	3153.9	
783.17	3030.3	
783.34	4577.2	
783.52	4309.6	
783.69	3097.2	
783.87	3496.6	
784.05	4360.1	
784.22	4238.6	
784.4	3493.8	
784.58	3168.2	
784.75	4902.8	
784.93	4354	
785.1	2973	
785.28	3336.8	
785.46	4676.2	
785.63	4150.6	
785.81	3003.7	
785.99	2893.8	
786.16	4362.9	
786.34	4446.8	
786.51	2898.6	
786.69	3121.1	
786.87	4059.8	
787.04	4336.9	
787.22	2871.3	
787.39	3269.2	
787.57	4255.7	
787.75	4825.7	
787.92	3429	
788.1	3321.8	
788.27	4114.4	
788.45	3880.2	
788.63	3209.2	
788.8	2564.1	
788.98	4541.7	
789.15	3869.3	
789.33	2622.1	
789.5	2900.6	
789.68	4676.9	
789.86	4717.2	
790.03	3179.1	
790.21	2809.1	
790.38	4704.2	
790.56	4275.5	
790.73	2792.7	
790.91	2721.1	
791.09	4124.6	
791.26	4485.1	
791.44	2913.6	
791.61	2618.7	
791.79	4163.5	
791.96	4148.5	
792.14	2661.7	
792.32	2480.8	
792.49	4100	
792.67	4235.9	
792.84	2745	
793.02	2596.8	
793.19	4403.8	
793.37	4706.9	
793.54	2417.3	
793.72	2616.6	
793.89	4802.5	
794.07	4073.4	
794.25	2952.5	
794.42	2450.1	
794.6	4687.1	
794.77	4388.8	
794.95	3023.5	
795.12	2710.1	
795.3	4159.4	
795.47	4363.5	
795.65	2942.2	
795.82	2827.6	
796	3992.9	
796.17	4894	
796.35	2840.5	
796.52	3199.6	
796.7	4427	
796.87	4419.5	
797.05	2768.9	
797.22	3231	
797.4	4466.6	
797.57	4896	
797.75	2885.6	
797.92	2731.3	
798.1	4584	
798.27	3867.2	
798.45	2519	
798.62	2579.1	
798.8	4223.6	
798.97	4464.6	
799.15	2990.7	
799.32	2878.1	
799.5	3917.8	
799.67	4212.7	
799.85	2996.9	
800.02	2426.8	
800.2	4051.6	
800.37	4143.7	
800.55	3155.2	
800.72	2696.5	
800.9	4506.9	
801.07	4632.5	
801.25	3370.3	
801.42	2926.5	
801.6	4556.7	
801.77	4164.2	
801.95	2803	
802.12	2621.4	
802.29	4338.3	
802.47	4222.9	
802.64	2935.4	
802.82	2385.9	
802.99	4047.5	
803.17	4450.2	
803.34	2852.1	
803.52	2617.3	
803.69	4816.1	
803.87	3820.1	
804.04	2819.4	
804.21	2847.4	
804.39	4667.3	
804.56	4079.6	
804.74	2533.3	
804.91	2907.4	
805.09	4106.9	
805.26	4031.1	
805.44	2587.3	
805.61	2691.7	
805.78	4456.4	
805.96	4351.9	
806.13	2840.5	
806.31	2994.1	
806.48	3761.4	
806.66	4062.5	
806.83	2880.1	
807	2775.7	
807.18	4052.2	
807.35	4194.9	
807.53	2812.5	
807.7	2381.1	
807.87	4639.3	
808.05	3979.9	
808.22	2930	
808.4	2351.8	
808.57	3891.1	
808.74	3791.5	
808.92	2650.8	
809.09	3161.4	
809.27	4029.7	
809.44	4245.4	
809.61	2351.1	
809.79	2500.6	
809.96	4739.7	
810.14	4289.8	
810.31	2326.5	
810.48	2977.1	
810.66	3992.2	
810.83	4339.6	
811.01	2633.7	
811.18	2835.8	
811.35	4427	
811.53	3619.4	
811.7	3024.8	
811.87	2798.9	
812.05	4100.7	
812.22	3945.8	
812.39	2581.1	
812.57	2491.7	
812.74	4061.8	
812.92	4829.8	
813.09	2752.5	
813.26	2775	
813.44	4652.3	
813.61	3897.3	
813.78	2390	
813.96	2917.7	
814.13	3993.5	
814.3	3861.8	
814.48	3097.2	
814.65	2674.6	
814.82	4591.5	
815	3796.3	
815.17	2775	
815.34	3190.7	
815.52	3916.4	
815.69	3951.2	
815.87	2689	
816.04	2668.5	
816.21	3893.2	
816.38	3708.2	
816.56	2693.1	
816.73	2525.1	
816.9	4842.1	
817.08	4287.1	
817.25	2537.4	
817.42	2940.9	
817.6	3755.3	
817.77	3893.9	
817.94	2779.8	
818.12	2508.8	
818.29	3841.3	
818.46	5136.3	
818.64	2647.3	
818.81	2453.5	
818.98	3857.7	
819.16	4919.2	
819.33	2931.3	
819.5	2781.1	
819.67	4199.7	
819.85	4545.1	
820.02	2748.4	
820.19	2879.4	
820.37	4126	
820.54	3916.4	
820.71	2807.8	
820.88	3286.3	
821.06	4104.1	
821.23	3838.6	
821.4	2838.5	
821.58	2772.3	
821.75	4340.3	
821.92	4094.6	
822.09	2387.2	
822.27	2542.2	
822.44	3999.7	
822.61	3939.6	
822.79	2400.9	
822.96	3912.3	
823.13	4123.9	
823.3	3747.8	
823.48	2624.1	
823.65	2415.2	
823.82	4419.5	
823.99	3790.8	
824.17	3178.4	
824.34	2493.1	
824.51	4851	
824.68	4003.8	
824.86	2550.4	
825.03	2727.2	
825.2	3983.3	
825.37	4545.1	
825.55	2546.3	
825.72	2671.2	
825.89	4760.2	
826.06	4549.9	
826.24	2671.9	
826.41	2668.5	
826.58	4669.4	
826.75	4050.2	
826.92	2285.5	
827.1	2467.8	
827.27	5756.8	
827.44	4718.5	
827.61	2598.2	
827.79	2998.2	
827.96	3941	
828.13	3922.5	
828.3	2694.4	
828.47	2306.7	
828.65	4278.2	
828.82	4194.2	
828.99	3152.5	
829.16	2841.9	
829.34	4391.5	
829.51	4367	
829.68	2734	
829.85	2733.4	
830.02	4721.9	
830.2	4431.8	
830.37	2230.9	
830.54	3035.1	
830.71	4786.8	
830.88	4040.6	
831.05	2220.7	
831.23	2427.5	
831.4	4772.4	
831.57	5011.4	
831.74	2612.5	
831.91	2246.6	
832.09	4304.8	
832.26	4426.3	
832.43	2547.7	
832.6	2808.4	
832.77	4263.2	
832.94	4645.5	
833.12	2168.8	
833.29	2530.6	
833.46	4303.5	
833.63	5090.6	
833.8	2736.8	
833.97	2605	
834.15	4465.3	
834.32	4308.2	
834.49	2624.1	
834.66	2738.1	
834.83	4445.5	
835	3933.5	
835.17	2514.9	
835.35	2495.1	
835.52	4399	
835.69	4259.1	
835.86	2577.7	
836.03	2277.3	
836.2	4472.1	
836.37	4208.6	
836.55	2594.8	
836.72	2476.7	
836.89	4144.4	
837.06	4468	
837.23	2650.8	
837.4	2794.1	
837.57	4910.3	
837.75	5091.3	
837.92	2399.5	
838.09	2478.7	
838.26	4200.4	
838.43	4460.5	
838.6	2749.1	
838.77	2477.4	
838.94	4929.5	
839.11	4828.4	
839.29	2618.7	
839.46	2165.4	
839.63	4484.4	
839.8	4230.4	
839.97	2526.5	
840.14	2448.7	
840.31	4345.1	
840.48	4437.9	
840.65	2215.2	
840.82	2521.7	
841	4369.7	
841.17	4231.1	
841.34	2283.5	
841.51	2441.9	
841.68	4392.2	
841.85	4249.5	
842.02	2441.2	
842.19	2170.8	
842.36	4315.8	
842.53	4291.2	
842.7	2375.6	
842.87	2689.7	
843.05	5134.3	
843.22	4190.1	
843.39	2276.7	
843.56	2467.1	
843.73	4161.5	
843.9	4472.8	
844.07	3433.1	
844.24	2920.4	
844.41	5498.8	
844.58	3994.2	
844.75	2316.9	
844.92	2413.9	
845.09	4333.5	
845.26	4334.9	
845.43	2369.5	
845.6	2489	
845.77	4429.1	
845.94	4299.4	
846.12	2592.7	
846.29	2669.9	
846.46	4586.8	
846.63	4314.4	
846.8	2355.8	
846.97	2699.2	
847.14	4560.8	
847.31	4334.9	
847.48	2517	
847.65	2729.3	
847.82	4280.9	
847.99	4427.7	
848.16	2927.2	
848.33	2769.5	
848.5	4065.2	
848.67	4560.1	
848.84	2334.7	
849.01	2426.8	
849.18	4063.9	
849.35	3899.3	
849.52	2745	
849.69	2329.9	
849.86	4542.4	
850.03	4537.6	
850.2	2342.2	
850.37	2679.4	
850.54	4474.8	
850.71	4106.9	
850.88	2722.4	
851.05	2299.2	
851.22	4269.3	
851.39	4552	
851.56	2128.5	
851.73	2589.3	
851.9	3951.9	
852.07	4510.3	
852.24	2538.8	
852.41	2303.3	
852.58	4371	
852.75	3983.3	
852.92	2595.5	
853.09	2269.8	
853.26	3944.4	
853.43	4525.3	
853.6	2338.8	
853.77	2061.6	
853.94	4685.1	
854.11	3917.1	
854.28	3136.1	
854.44	2482.8	
854.61	4855.7	
854.78	4489.1	
854.95	2327.9	
855.12	2809.1	
855.29	3728.7	
855.46	4730.8	
855.63	2326.5	
855.8	3009.1	
855.97	4108.2	
856.14	4559.5	
856.31	3063.8	
856.48	2493.7	
856.65	4196.3	
856.82	3915.7	
856.99	2280.8	
857.16	2489.6	
857.33	5016.8	
857.49	4188.1	
857.66	2479.4	
857.83	2540.8	
858	4242	
858.17	4339	
858.34	2253.4	
858.51	2367.5	
858.68	4683.7	
858.85	4658.4	
859.02	2652.1	
859.19	2711.5	
859.36	3973.1	
859.52	3867.9	
859.69	2326.5	
859.86	2641.9	
860.03	3888.4	
860.2	4685.1	
860.37	2231.6	
860.54	2329.9	
860.71	4433.2	
860.88	4631.8	
861.05	2547.7	
861.21	2867.8	
861.38	4578.6	
861.55	3812.6	
861.72	2207	
861.89	2527.9	
862.06	4533.5	
862.23	4695.3	
862.4	2271.2	
862.56	2308.7	
862.73	4386.1	
862.9	4212	
863.07	2607.1	
863.24	2229.6	
863.41	3938.2	
863.58	3950.5	
863.75	2325.1	
863.91	2691	
864.08	4579.9	
864.25	4388.1	
864.42	2771.6	
864.59	2997.5	
864.76	4739	
864.93	3947.8	
865.09	2236.4	
865.26	2494.4	
865.43	4593.6	
865.6	4802.5	
865.77	2125.8	
865.94	2323.8	
866.1	4474.8	
866.27	4291.9	
866.44	3222.8	
866.61	2241.2	
866.78	4175.8	
866.95	4416.1	
867.11	2297.1	
867.28	2171.5	
867.45	4617.5	
867.62	3906.2	
867.79	2594.1	
867.96	2305.3	
868.12	3892.5	
868.29	4433.9	
868.46	2313.5	
868.63	2940.2	
868.8	4491.9	
868.97	4362.2	
869.13	2426.2	
869.3	2405.7	
869.47	4372.4	
869.64	4456.4	
869.81	2294.4	
869.97	2299.2	
870.14	4265.2	
870.31	4607.2	
870.48	2341.5	
870.65	2814.6	
870.81	4218.1	
870.98	4190.1	
871.15	2597.5	
871.32	2381.1	
871.48	4339.6	
871.65	4698.7	
871.82	2335.4	
871.99	2494.4	
872.16	4934.2	
872.32	4597.7	
872.49	2411.1	
872.66	2394.8	
872.83	4509.6	
872.99	4038.6	
873.16	2596.8	
873.33	2310.1	
873.5	4222.9	
873.67	4298.7	
873.83	2409.8	
874	2960.7	
874.17	4354.7	
874.34	4661.9	
874.5	2837.1	
874.67	2738.1	
874.84	4595	
875.01	3792.2	
875.17	3068.5	
875.34	2314.9	
875.51	4336.9	
875.68	4916.5	
875.84	2710.1	
876.01	3102	
876.18	4431.8	
876.34	4356.7	
876.51	2358.6	
876.68	2258.9	
876.85	4129.4	
877.01	4608.6	
877.18	3061	
877.35	2310.8	
877.52	4407.9	
877.68	3960.1	
877.85	2316.3	
878.02	2289.6	
878.18	3969.6	
878.35	4120.5	
878.52	1955.1	
878.69	2645.3	
878.85	4576.5	
879.02	4418.2	
879.19	3140.2	
879.35	2436.4	
879.52	4425.7	
879.69	4420.9	
879.86	2137.4	
880.02	2546.3	
880.19	4207.2	
880.36	4792.2	
880.52	2570.9	
880.69	2662.4	
880.86	4438.6	
881.02	4492.6	
881.19	2521.7	
881.36	2428.2	
881.52	4397.7	
881.69	3992.2	
881.86	2494.4	
882.02	2435.7	
882.19	4494.6	
882.36	5081.7	
882.52	2359.9	
882.69	3026.2	
882.86	4286.4	
883.02	4308.9	
883.19	2682.2	
883.36	2583.2	
883.52	4453.6	
883.69	4940.4	
883.86	2361.3	
884.02	2263.7	
884.19	4396.3	
884.36	4233.2	
884.52	2532.7	
884.69	2499.2	
884.86	4146.5	
885.02	4677.6	
885.19	2533.3	
885.36	2554.5	
885.52	4096.6	
885.69	4343.1	
885.86	3109.5	
886.02	2804.4	
886.19	4444.8	
886.35	4059.1	
886.52	2528.6	
886.69	3024.8	
886.85	3970.3	
887.02	4611.3	
887.19	4611.3	
887.35	4611.3	
887.52	4611.3	
887.68	4611.3	
887.85	4611.3	
888.02	4611.3	
888.18	4611.3	
888.35	4611.3	
888.51	4611.3	
888.68	4611.3	
888.85	4611.3	
889.01	4611.3	
889.18	4611.3	
889.35	4611.3	
889.51	4611.3	
889.68	4611.3	
889.84	4611.3	
890.01	4611.3	
890.17	4611.3	
890.34	4611.3	
890.51	4611.3	
890.67	4611.3	
890.84	4611.3	
891	4611.3	
891.17	4611.3	
891.34	4611.3	
891.5	4611.3	
891.67	4611.3	
891.83	4611.3	
892	4611.3	
892.16	4611.3	
892.33	4611.3	
892.5	4611.3	
892.66	4611.3	
892.83	4611.3	
892.99	4611.3	
893.16	4611.3	
893.32	4611.3	
893.49	4611.3	
893.65	4611.3	
893.82	4611.3	
893.99	4611.3	
894.15	4611.3	
894.32	4611.3	
894.48	4611.3	
894.65	4611.3	
894.81	4611.3	
894.98	4611.3	
895.14	4611.3	
895.31	4611.3	
895.47	4611.3	
895.64	4611.3	
895.81	4611.3	
895.97	4611.3	
896.14	4611.3	
896.3	4611.3	
896.47	4611.3	
896.63	4611.3	
896.8	4611.3	
896.96	4611.3	
897.13	4611.3	
897.29	4611.3	
897.46	4611.3	
897.62	4611.3	
897.79	4611.3	
897.95	4611.3	
898.12	4611.3	
898.28	4611.3	
898.45	4611.3	
898.61	4611.3	
898.78	4611.3	
898.94	4611.3	
899.11	4611.3	
899.27	4611.3	
899.44	4611.3	
899.6	4611.3	
899.77	4611.3	
899.93	4611.3	
900.1	4611.3	
900.26	4611.3	
900.43	4611.3	
900.59	4611.3	
900.76	4611.3	
900.92	4611.3	
901.09	4611.3	
901.25	4611.3	
901.42	4611.3	
901.58	4611.3	
901.75	4611.3	
901.91	4611.3	
902.07	4611.3	
902.24	4611.3	
902.4	4611.3	
902.57	4611.3	
902.73	4611.3	
902.9	4611.3	
903.06	4611.3	
903.23	4611.3	
903.39	4611.3	
903.56	4611.3	
903.72	4611.3	
903.88	4611.3	
904.05	4611.3	
904.21	4611.3	
904.38	4611.3	
904.54	4611.3	
904.71	4611.3	
904.87	4611.3	
905.03	4611.3	
905.2	4611.3	
905.36	4611.3	
905.53	4611.3	
905.69	4611.3	
905.86	4611.3	
906.02	4611.3	
906.18	4611.3	
906.35	4611.3	
906.51	4611.3	
906.68	4611.3	
906.84	4611.3	
907.01	4611.3	
907.17	4611.3	
907.33	4611.3	
907.5	4611.3	
907.66	4611.3	
907.83	4611.3	
907.99	4611.3	
908.15	4611.3	
908.32	4611.3	
908.48	4611.3	
908.65	4611.3	
908.81	4611.3	
908.97	4611.3	
909.14	4611.3	
909.3	4611.3	
909.47	4611.3	
909.63	4611.3	
909.79	4611.3	
909.96	4611.3	
910.12	4611.3	
910.28	4611.3	
910.45	4611.3	
910.61	4611.3	
910.78	4611.3	
910.94	4611.3	
911.1	4611.3	
911.27	4611.3	
911.43	4611.3	
911.59	4611.3	
911.76	4611.3	
911.92	4611.3	
912.08	4611.3	
912.25	4611.3	
912.41	4611.3	
912.57	4611.3	
912.74	4611.3	
912.9	4611.3	
913.07	4611.3	
913.23	4611.3	
913.39	4611.3	
913.56	4611.3	
913.72	4611.3	
913.88	4611.3	
914.05	4611.3	
914.21	4611.3	
914.37	4611.3	
914.54	4611.3	
914.7	4611.3	
914.86	4611.3	
915.03	4611.3	
915.19	4611.3	
