Wavelength	Intensities	
nm	a.u.	
179.22	1722.3	
179.44	1734.6	
179.65	1710.1	
179.86	1759.2	
180.08	1707.3	
180.29	3976.5	
180.51	3067.2	
180.72	5061.2	
180.94	5630.5	
181.15	2806.4	
181.37	2741.5	
181.58	4913.1	
181.79	5122	
182.01	2897.2	
182.22	3044	
182.44	5070.1	
182.65	4380.6	
182.87	3749.1	
183.08	3325.9	
183.29	5395.7	
183.51	4536.9	
183.72	3010.5	
183.94	4342.4	
184.15	4826.4	
184.37	4743.1	
184.58	2778.4	
184.79	3612.6	
185.01	4549.2	
185.22	5220.3	
185.44	3788.1	
185.65	3334.1	
185.86	4838.7	
186.08	4430.4	
186.29	2717	
186.51	2895.1	
186.72	4543.1	
186.94	5201.8	
187.15	3295.2	
187.36	3383.2	
187.58	6533.7	
187.79	4927.4	
188.01	3498.6	
188.22	5137.7	
188.43	5749.3	
188.65	5097.4	
188.86	2902.7	
189.08	3398.9	
189.29	4618.9	
189.5	4659.1	
189.72	3136.1	
189.93	3208.5	
190.15	5188.2	
190.36	6061.3	
190.57	3398.3	
190.79	3302.7	
191	5278.3	
191.22	5263.3	
191.43	3491.1	
191.64	2979.8	
191.86	5350	
192.07	5227.8	
192.29	3005.1	
192.5	3112.9	
192.71	5216.2	
192.93	4650.3	
193.14	3131.3	
193.35	3099.3	
193.57	4660.5	
193.78	5253	
194	2580.4	
194.21	3153.9	
194.42	4524	
194.64	4851.6	
194.85	3379.8	
195.07	3870	
195.28	4803.2	
195.49	4291.9	
195.71	4039.3	
195.92	2948.4	
196.13	5004.6	
196.35	5019.6	
196.56	4289.8	
196.78	3322.5	
196.99	6055.8	
197.2	5613.5	
197.42	3760.8	
197.63	3433.8	
197.84	4374.5	
198.06	4985.4	
198.27	3125.2	
198.48	4065.9	
198.7	4641.4	
198.91	4801.8	
199.13	3380.5	
199.34	3398.3	
199.55	5199.1	
199.77	4236.6	
199.98	3034.4	
200.19	3370.3	
200.41	4786.1	
200.62	4553.3	
200.83	3491.8	
201.05	3792.8	
201.26	4844.8	
201.47	4579.9	
201.69	3024.8	
201.9	2953.9	
202.11	4860.5	
202.33	5547.3	
202.54	3196.9	
202.76	3532.7	
202.97	4889.2	
203.18	4889.9	
203.4	3478.1	
203.61	3545.7	
203.82	4889.9	
204.04	4579.3	
204.25	3360.7	
204.46	3338.2	
204.68	4820.2	
204.89	5050.3	
205.1	3334.1	
205.32	2910.2	
205.53	5104.9	
205.74	5266	
205.96	2529.9	
206.17	3451.5	
206.38	5141.1	
206.6	5196.4	
206.81	3827	
207.02	3149.1	
207.24	5012.1	
207.45	5337	
207.66	3248.1	
207.88	2871.3	
208.09	4954	
208.3	4863.9	
208.52	2985.3	
208.73	3248.1	
208.94	4836.6	
209.15	5384.1	
209.37	3272.7	
209.58	3352.5	
209.79	5248.9	
210.01	4653	
210.22	2686.3	
210.43	2849.4	
210.65	4813.4	
210.86	5082.4	
211.07	3223.5	
211.29	2993.4	
211.5	5005.9	
211.71	4753.3	
211.93	3018.7	
212.14	3055.6	
212.35	4754	
212.56	4864.6	
212.78	3412.6	
212.99	2870.6	
213.2	5542.5	
213.42	4685.1	
213.63	3099.9	
213.84	3299.3	
214.06	4395.6	
214.27	4429.1	
214.48	3222.1	
214.69	3435.1	
214.91	5337	
215.12	5374.6	
215.33	3426.9	
215.55	3700.7	
215.76	5769.8	
215.97	5044.1	
216.18	3343.7	
216.4	3312.9	
216.61	4605.2	
216.82	5233.9	
217.04	3000.3	
217.25	3118.4	
217.46	5303.6	
217.67	5106.3	
217.89	2751.8	
218.1	2875.3	
218.31	4943.8	
218.53	5006.6	
218.74	3192.1	
218.95	3107.5	
219.16	4811.4	
219.38	5534.3	
219.59	3085.6	
219.8	3552.5	
220.01	5988.3	
220.23	4862.6	
220.44	3891.8	
220.65	2961.4	
220.87	4886.5	
221.08	5319.3	
221.29	2883.5	
221.5	3654.9	
221.72	6326.2	
221.93	4613.4	
222.14	3405.8	
222.35	3977.2	
222.57	4814.1	
222.78	5142.4	
222.99	3319.8	
223.2	3486.3	
223.42	5044.1	
223.63	5117.9	
223.84	2583.9	
224.05	2587.3	
224.27	5873.6	
224.48	5512.4	
224.69	3995.6	
224.9	3402.4	
225.12	4989.5	
225.33	4820.2	
225.54	2802.3	
225.75	3104	
225.97	4517.1	
226.18	4734.9	
226.39	3269.2	
226.6	3077.4	
226.82	4653	
227.03	4534.2	
227.24	3388	
227.45	2887	
227.67	5150	
227.88	5494.7	
228.09	3793.5	
228.3	3768.3	
228.52	5113.1	
228.73	4769.7	
228.94	3151.1	
229.15	2850.1	
229.36	4831.8	
229.58	4762.2	
229.79	3217.4	
230	3693.2	
230.21	5677	
230.43	4874.2	
230.64	3292.5	
230.85	3461.1	
231.06	5160.2	
231.28	5175.2	
231.49	2914.9	
231.7	3301.3	
231.91	5081	
232.12	4844.1	
232.34	2945	
232.55	3240.6	
232.76	5313.8	
232.97	4898.1	
233.18	2967.5	
233.4	3332.7	
233.61	4969.7	
233.82	4648.2	
234.03	3140.2	
234.25	3114.3	
234.46	6419	
234.67	4861.9	
234.88	3538.2	
235.09	3076	
235.31	5055.1	
235.52	4774.5	
235.73	3386	
235.94	2867.8	
236.15	4640	
236.37	5703.6	
236.58	3034.4	
236.79	3287.7	
237	5091.3	
237.21	4401.8	
237.43	3489.7	
237.64	2822.8	
237.85	7980.3	
238.06	4524	
238.27	3487	
238.48	2893.8	
238.7	5072.1	
238.91	4753.3	
239.12	3228.3	
239.33	3337.5	
239.54	4570.4	
239.76	4773.8	
239.97	3260.4	
240.18	3269.2	
240.39	5776	
240.6	4999.8	
240.82	3440.6	
241.03	2855.6	
241.24	4743.8	
241.45	5479.7	
241.66	2984.6	
241.87	3512.3	
242.09	5431.2	
242.3	5648.3	
242.51	3554.6	
242.72	3244	
242.93	5109.7	
243.14	4780	
243.36	3745.1	
243.57	4012.7	
243.78	5483.8	
243.99	5021.6	
244.2	3206.4	
244.41	2923.8	
244.63	4487.8	
244.84	5063.3	
245.05	3476.1	
245.26	3270.6	
245.47	5119.2	
245.68	5215.5	
245.9	4137.6	
246.11	3436.5	
246.32	4689.8	
246.53	5047.6	
246.74	5033.2	
246.95	2776.4	
247.16	4493.2	
247.38	4839.4	
247.59	2809.1	
247.8	3304.1	
248.01	4517.8	
248.22	4815.5	
248.43	2966.1	
248.64	3166.8	
248.86	4407.9	
249.07	4666.6	
249.28	2939.5	
249.49	3389.4	
249.7	5253.7	
249.91	5280.3	
250.12	2808.4	
250.34	2848.7	
250.55	4896.7	
250.76	4838.7	
250.97	3368.9	
251.18	3420.8	
251.39	5368.4	
251.6	4988.9	
251.81	3442	
252.03	3392.1	
252.24	4661.2	
252.45	5142.4	
252.66	2873.3	
252.87	3573	
253.08	4874.2	
253.29	5994.4	
253.5	2945	
253.72	3882.3	
253.93	4713.7	
254.14	5623.7	
254.35	3130.7	
254.56	3218	
254.77	5003.2	
254.98	4534.9	
255.19	3180.5	
255.41	3833.8	
255.62	4961.5	
255.83	5283.8	
256.04	3506.1	
256.25	3362.1	
256.46	5744.6	
256.67	4584.7	
256.88	3379.1	
257.09	3675.4	
257.31	4552	
257.52	4566.3	
257.73	4123.2	
257.94	3128.6	
258.15	4742.4	
258.36	4838	
258.57	3808.5	
258.78	2604.3	
258.99	5240.1	
259.2	4642.1	
259.41	3132	
259.63	3246.7	
259.84	5451.7	
260.05	5741.1	
260.26	3979.2	
260.47	3077.4	
260.68	5319.3	
260.89	4760.2	
261.1	3725.3	
261.31	3005.7	
261.52	5352	
261.73	5539.1	
261.95	3975.1	
262.16	3490.4	
262.37	5384.8	
262.58	5479.7	
262.79	3948.5	
263	3196.9	
263.21	4961.5	
263.42	4724	
263.63	3409.2	
263.84	3190.7	
264.05	5242.1	
264.26	5523.4	
264.47	3874.8	
264.69	3308.8	
264.9	5410.1	
265.11	4990.9	
265.32	3000.3	
265.53	3077.4	
265.74	4969.1	
265.95	4390.8	
266.16	3316.3	
266.37	3613.3	
266.58	4945.2	
266.79	4650.3	
267	3125.2	
267.21	2976.4	
267.42	4498.7	
267.63	4801.1	
267.84	3236.5	
268.06	2818	
268.27	5223.7	
268.48	5314.5	
268.69	3165.5	
268.9	3683.6	
269.11	5344.5	
269.32	4406.5	
269.53	3304.7	
269.74	3065.8	
269.95	5066.7	
270.16	4382	
270.37	3294.5	
270.58	3720.5	
270.79	4724	
271	5246.9	
271.21	3429	
271.42	3356.6	
271.63	4979.3	
271.84	4463.2	
272.05	2690.3	
272.26	3032.4	
272.47	4838.7	
272.68	4991.6	
272.89	3134.8	
273.11	3614	
273.32	4636.6	
273.53	5502.2	
273.74	3545.7	
273.95	3391.4	
274.16	5237.3	
274.37	4830.5	
274.58	3572.3	
274.79	2936.8	
275	4972.5	
275.21	5269.4	
275.42	4164.2	
275.63	3653.6	
275.84	5038	
276.05	6111.8	
276.26	3429.7	
276.47	3255.6	
276.68	4773.1	
276.89	5620.3	
277.1	3590.1	
277.31	2921.1	
277.52	4978.6	
277.73	5261.9	
277.94	2898.6	
278.15	3190.7	
278.36	4978.6	
278.57	4603.2	
278.78	3166.2	
278.99	3528.7	
279.2	4640	
279.41	4513.7	
279.62	4089.8	
279.83	2933.4	
280.04	5707.7	
280.25	4510.3	
280.46	4015.4	
280.67	3273.3	
280.88	4592.2	
281.09	5320.6	
281.3	3343	
281.51	4231.8	
281.72	4629.1	
281.93	5159.5	
282.14	3076.7	
282.35	3305.4	
282.56	5214.1	
282.77	5177.3	
282.98	3182.5	
283.19	3778.5	
283.4	6177.4	
283.61	4805.9	
283.82	2943.6	
284.03	3993.5	
284.24	5010	
284.45	5292	
284.66	3997	
284.87	3797.6	
285.08	5312.4	
285.29	5375.9	
285.5	2832.3	
285.71	3233.7	
285.92	5282.4	
286.12	5842.2	
286.33	3972.4	
286.54	3170.3	
286.75	5188.9	
286.96	4790.2	
287.17	3018	
287.38	3882.3	
287.59	4577.9	
287.8	4591.5	
288.01	3220.1	
288.22	3598.3	
288.43	5128.8	
288.64	4423.6	
288.85	3731.4	
289.06	3624.9	
289.27	5193	
289.48	5517.2	
289.69	4007.9	
289.9	3620.1	
290.11	5388.9	
290.32	4696	
290.53	3812.6	
290.74	3495.9	
290.94	5184.8	
291.15	5194.3	
291.36	3132	
291.57	3557.3	
291.78	4704.2	
291.99	4396.3	
292.2	2998.2	
292.41	3547.1	
292.62	5255.8	
292.83	5092.6	
293.04	4307.6	
293.25	3041.9	
293.46	4689.2	
293.67	5252.4	
293.88	3041.2	
294.09	3026.2	
294.29	4527.4	
294.5	4950.6	
294.71	3280.2	
294.92	3152.5	
295.13	4737.6	
295.34	5724.8	
295.55	2880.1	
295.76	2755.2	
295.97	5061.2	
296.18	5694	
296.39	2959.3	
296.6	3117.7	
296.81	4952	
297.01	5156.1	
297.22	3272.7	
297.43	3093.8	
297.64	4621.6	
297.85	4562.9	
298.06	2623.4	
298.27	2800.3	
298.48	4855.1	
298.69	4650.9	
298.9	3319.1	
299.11	3074	
299.31	4470.7	
299.52	4518.5	
299.73	3543	
299.94	3434.4	
300.15	4826.4	
300.36	4649.6	
300.57	3470.6	
300.78	3463.1	
300.99	4685.1	
301.2	4863.2	
301.4	3090.4	
301.61	3302.7	
301.82	5111.7	
302.03	5226.4	
302.24	3711.6	
302.45	2960.7	
302.66	5051	
302.87	5356.1	
303.08	3128.6	
303.29	4075.5	
303.49	4691.9	
303.7	4868.7	
303.91	2848.7	
304.12	3904.1	
304.33	4450.2	
304.54	4857.8	
304.75	3142.9	
304.96	3025.5	
305.16	5110.4	
305.37	5677	
305.58	2766.8	
305.79	2854.2	
306	5094.7	
306.21	4396.3	
306.42	3075.4	
306.63	4461.8	
306.83	4757.4	
307.04	5178.6	
307.25	3374.4	
307.46	3323.9	
307.67	4246.1	
307.88	5126.1	
308.09	3131.3	
308.29	3151.8	
308.5	4907.6	
308.71	5227.1	
308.92	3253.5	
309.13	2993.4	
309.34	4817.5	
309.55	4718.5	
309.75	3785.3	
309.96	3450.1	
310.17	5135.6	
310.38	4582	
310.59	3577.8	
310.8	2983.2	
311.01	4670.1	
311.21	4718.5	
311.42	3013.9	
311.63	3097.9	
311.84	4706.2	
312.05	4885.8	
312.26	3413.3	
312.46	3727.3	
312.67	4698.7	
312.88	4513.7	
313.09	3031.7	
313.3	2960	
313.51	5428.5	
313.71	5743.2	
313.92	3009.8	
314.13	3154.6	
314.34	5008.6	
314.55	4745.8	
314.76	3747.1	
314.96	3283.6	
315.17	4986.1	
315.38	5159.5	
315.59	3019.4	
315.8	2927.2	
316.01	5496.1	
316.21	5504.3	
316.42	2940.2	
316.63	3276.8	
316.84	4755.4	
317.05	5343.2	
317.26	3517.7	
317.46	3192.1	
317.67	4759.5	
317.88	5144.5	
318.09	3722.5	
318.3	2853.5	
318.5	4663.2	
318.71	5070.8	
318.92	4645.5	
319.13	3524.6	
319.34	5227.1	
319.54	5317.9	
319.75	2844.6	
319.96	2749.7	
320.17	5109	
320.38	5279.7	
320.58	2765.4	
320.79	3279.5	
321	5319.3	
321.21	5365	
321.42	3300.6	
321.62	2798.9	
321.83	4556	
322.04	4867.3	
322.25	3138.9	
322.46	3028.9	
322.66	4916.5	
322.87	5089.9	
323.08	3561.4	
323.29	2959.3	
323.5	5657.2	
323.7	4493.9	
323.91	3951.9	
324.12	3597.6	
324.33	4947.9	
324.53	5156.8	
324.74	3443.3	
324.95	3650.8	
325.16	4398.4	
325.37	4776.5	
325.57	3059	
325.78	3033.7	
325.99	4967	
326.2	4427.7	
326.4	4084.3	
326.61	2825.5	
326.82	4827.7	
327.03	4887.8	
327.24	4123.9	
327.44	3902.1	
327.65	5052.3	
327.86	4265.2	
328.07	3474.7	
328.27	2930.6	
328.48	5341.8	
328.69	4567	
328.9	4209.3	
329.1	3226.9	
329.31	4752.7	
329.52	5421	
329.73	3088.3	
329.93	3317	
330.14	4896	
330.35	5001.8	
330.56	4683.7	
330.76	3604.4	
330.97	4657.1	
331.18	4919.9	
331.39	3343	
331.59	2814.6	
331.8	5304.2	
332.01	5451	
332.22	3109.5	
332.42	3491.8	
332.63	4919.2	
332.84	4588.1	
333.05	3342.3	
333.25	3068.5	
333.46	4639.3	
333.67	4876.2	
333.88	3164.1	
334.08	3446	
334.29	6193.1	
334.5	5335	
334.7	2968.2	
334.91	4174.4	
335.12	4414.7	
335.33	5170.4	
335.53	3322.5	
335.74	4663.9	
335.95	4739	
336.16	4515.8	
336.36	3299.3	
336.57	3796.3	
336.78	4450.9	
336.98	5273.5	
337.19	4001	
337.4	3289.7	
337.61	5745.9	
337.81	4488.5	
338.02	3087.7	
338.23	3799.7	
338.43	5431.9	
338.64	4657.8	
338.85	3052.2	
339.05	3874.8	
339.26	5531.6	
339.47	4422.2	
339.68	3049.4	
339.88	4356	
340.09	5097.4	
340.3	5223.7	
340.5	3505.4	
340.71	2749.1	
340.92	4520.5	
341.13	5300.1	
341.33	2952.5	
341.54	3487	
341.75	5085.1	
341.95	4771.1	
342.16	3377.8	
342.37	3651.5	
342.57	4560.8	
342.78	4840	
342.99	3618.1	
343.19	2811.2	
343.4	5171.8	
343.61	5040.7	
343.81	3263.8	
344.02	2936.1	
344.23	5094	
344.43	5498.1	
344.64	3708.9	
344.85	3607.2	
345.06	5150.6	
345.26	5320.6	
345.47	3518.4	
345.68	3973.7	
345.88	4406.5	
346.09	5210	
346.3	3550.5	
346.5	2723.8	
346.71	4840.7	
346.92	4627.7	
347.12	2883.5	
347.33	3446	
347.54	5289.9	
347.74	5621.7	
347.95	3439.2	
348.16	2691	
348.36	4715.1	
348.57	4517.1	
348.78	3510.9	
348.98	3714.3	
349.19	4814.8	
349.39	4416.8	
349.6	2860.3	
349.81	3110.9	
350.01	5122	
350.22	4657.1	
350.43	3340.9	
350.63	3962.8	
350.84	4859.8	
351.05	4681.7	
351.25	3129.3	
351.46	2832.3	
351.67	5281	
351.87	4662.5	
352.08	3304.1	
352.29	3716.4	
352.49	5219.6	
352.7	5298.8	
352.9	2990.7	
353.11	3717.1	
353.32	5711.8	
353.52	4769	
353.73	2995.5	
353.94	3732.8	
354.14	5132.9	
354.35	4990.9	
354.55	3115	
354.76	3414.6	
354.97	5130.2	
355.17	4934.2	
355.38	3022.1	
355.59	3922.5	
355.79	4664.6	
356	4929.5	
356.2	3473.4	
356.41	3026.9	
356.62	4506.9	
356.82	4903.5	
357.03	3691.8	
357.24	3308.2	
357.44	4718.5	
357.65	4814.1	
357.85	4351.3	
358.06	3495.2	
358.27	4528.7	
358.47	4737.6	
358.68	3022.1	
358.88	3686.3	
359.09	5179.3	
359.3	5400.5	
359.5	4214.7	
359.71	3796.3	
359.91	5765	
360.12	5297.4	
360.33	3741.6	
360.53	4099.4	
360.74	4820.2	
360.94	4867.3	
361.15	3831.1	
361.36	3288.4	
361.56	5479	
361.77	5027.1	
361.97	4244.8	
362.18	3527.3	
362.38	5451.7	
362.59	4799.8	
362.8	3328.6	
363	3203	
363.21	4585.4	
363.41	5167.7	
363.62	3685.7	
363.83	4379.2	
364.03	5272.8	
364.24	5943.2	
364.44	4586.8	
364.65	4565.6	
364.85	5094.7	
365.06	4857.1	
365.27	3480.2	
365.47	3592.8	
365.68	5835.3	
365.88	5093.3	
366.09	3857	
366.29	3562.8	
366.5	5269.4	
366.71	5579.3	
366.91	4607.2	
367.12	4015.4	
367.32	6151.4	
367.53	5563	
367.73	3992.9	
367.94	4759.5	
368.14	5590.3	
368.35	6138.4	
368.56	3977.2	
368.76	3721.2	
368.97	5630.5	
369.17	6845	
369.38	3531.4	
369.58	3848.8	
369.79	4885.8	
369.99	5980.8	
370.2	4632.5	
370.4	3881.6	
370.61	5378.6	
370.82	6383.5	
371.02	3862.5	
371.23	3356.6	
371.43	4894.6	
371.64	5921.4	
371.84	3917.8	
372.05	4733.5	
372.25	6869.6	
372.46	5670.1	
372.66	3967.6	
372.87	3974.4	
373.07	5848.3	
373.28	7120.8	
373.48	4762.9	
373.69	4555.4	
373.9	5489.9	
374.1	5571.8	
374.31	4732.9	
374.51	4414.1	
374.72	6180.1	
374.92	5283.8	
375.13	5060.5	
375.33	4377.2	
375.54	5896.1	
375.74	5477.6	
375.95	4509.6	
376.15	5451	
376.36	6010.8	
376.56	5895.4	
376.77	4584	
376.97	4943.1	
377.18	6882.5	
377.38	6128.9	
377.59	5224.4	
377.79	4328	
378	6085.2	
378.2	6421.7	
378.41	4437.9	
378.61	4370.4	
378.82	6528.2	
379.02	5864.7	
379.23	4648.2	
379.43	5387.5	
379.64	6692.8	
379.84	6309.8	
380.05	4513.7	
380.25	4412	
380.46	6334.4	
380.66	6079.1	
380.87	5448.3	
381.07	5803.9	
381.28	6816.3	
381.48	6362.4	
381.69	4486.4	
381.89	4577.9	
382.1	5547.9	
382.3	6354.8	
382.51	5333.6	
382.71	6027.9	
382.91	6305.7	
383.12	6724.2	
383.32	4764.9	
383.53	4956.8	
383.73	6143.2	
383.94	6091.3	
384.14	4872.8	
384.35	4209.3	
384.55	5919.3	
384.76	6362.4	
384.96	4747.9	
385.17	4965	
385.37	6354.8	
385.58	5740.5	
385.78	4932.9	
385.98	4116.4	
386.19	5902.9	
386.39	6296.8	
386.6	4493.9	
386.8	4687.1	
387.01	6414.9	
387.21	6421.1	
387.42	4928.1	
387.62	5557.5	
387.83	5960.3	
388.03	6281.1	
388.23	4904.2	
388.44	5547.3	
388.64	5732.3	
388.85	5842.2	
389.05	5216.9	
389.26	5782.8	
389.46	7479.2	
389.67	7000.6	
389.87	5367.7	
390.07	5439.4	
390.28	6330.3	
390.48	6051.1	
390.69	4857.8	
390.89	5076.9	
391.1	6249.7	
391.3	6927.6	
391.5	5989.6	
391.71	6380.1	
391.91	6825.2	
392.12	7526.3	
392.32	6019.7	
392.53	5464	
392.73	6367.8	
392.93	6554.2	
393.14	5294.7	
393.34	5819.6	
393.55	6794.5	
393.75	6440.9	
393.95	5184.8	
394.16	5126.1	
394.36	6356.2	
394.57	6740.5	
394.77	4701.5	
394.98	5001.8	
395.18	6305	
395.38	6414.9	
395.59	5929.6	
395.79	5176.6	
396	6616.3	
396.2	6946	
396.4	5913.2	
396.61	5855.8	
396.81	7197.2	
397.02	6725.5	
397.22	6281.8	
397.42	6333.7	
397.63	7368.6	
397.83	6859.3	
398.04	5429.8	
398.24	5999.2	
398.44	7139.9	
398.65	6591	
398.85	5451.7	
399.05	5432.6	
399.26	6974.7	
399.46	8273.8	
399.67	5900.2	
399.87	5709.7	
400.07	7302.4	
400.28	7574.8	
400.48	5811.5	
400.69	6778.1	
400.89	8161.2	
401.09	8144.8	
401.3	5900.2	
401.5	6748.1	
401.7	8589.2	
401.91	8662.2	
402.11	6426.5	
402.32	6448.4	
402.52	8109.3	
402.72	7924.3	
402.93	6642.9	
403.13	5656.5	
403.33	8467	
403.54	7208.8	
403.74	6177.4	
403.94	6702.3	
404.15	7303.1	
404.35	8160.5	
404.56	5792.3	
404.76	7271.7	
404.96	7664.2	
405.17	7476.5	
405.37	6861.4	
405.57	6392.4	
405.78	7919.5	
405.98	7483.3	
406.18	6272.2	
406.39	6980.8	
406.59	7998	
406.79	7658.7	
407	6040.1	
407.2	6077	
407.4	8004.8	
407.61	8176.2	
407.81	6193.7	
408.01	7785	
408.22	7274.4	
408.42	8887.5	
408.62	7301.7	
408.83	7092.1	
409.03	8295.6	
409.23	8415.1	
409.44	7465.5	
409.64	7777.5	
409.84	9526.5	
410.05	9626.8	
410.25	8116.8	
410.45	7832.1	
410.66	9770.9	
410.86	11402	
411.06	8738	
411.27	8485.4	
411.47	11675	
411.67	9977.7	
411.88	8743.5	
412.08	9363.3	
412.28	10682	
412.49	11123	
412.69	9143.5	
412.89	9145.5	
413.09	11102	
413.3	11134	
413.5	9341.5	
413.7	9094.3	
413.91	10620	
414.11	11296	
414.31	9465	
414.52	9994.8	
414.72	11217	
414.92	11336	
415.12	9519.6	
415.33	10127	
415.53	11660	
415.73	11880	
415.94	10312	
416.14	9929.9	
416.34	11129	
416.55	10790	
416.75	10928	
416.95	10598	
417.15	12094	
417.36	12330	
417.56	11389	
417.76	10745	
417.97	12346	
418.17	12370	
418.37	10456	
418.57	10505	
418.78	12236	
418.98	11931	
419.18	11376	
419.38	11211	
419.59	11953	
419.79	11512	
419.99	10463	
420.2	10632	
420.4	12351	
420.6	12233	
420.8	10404	
421.01	10189	
421.21	12336	
421.41	12349	
421.61	10640	
421.82	10570	
422.02	12144	
422.22	12642	
422.42	11228	
422.63	10529	
422.83	12103	
423.03	13145	
423.23	10761	
423.44	10109	
423.64	12077	
423.84	11622	
424.04	10424	
424.25	10093	
424.45	12551	
424.65	12484	
424.85	9956.5	
425.06	10470	
425.26	12731	
425.46	11979	
425.66	10750	
425.87	10488	
426.07	12379	
426.27	12215	
426.47	10576	
426.67	10100	
426.88	12729	
427.08	12157	
427.28	10963	
427.48	10031	
427.69	11281	
427.89	11846	
428.09	10933	
428.29	10173	
428.5	12491	
428.7	12126	
428.9	10267	
429.1	10473	
429.3	12175	
429.51	12486	
429.71	10233	
429.91	11192	
430.11	12618	
430.31	12945	
430.52	10850	
430.72	11303	
430.92	13120	
431.12	12910	
431.32	11010	
431.53	11100	
431.73	12134	
431.93	13326	
432.13	10703	
432.33	10823	
432.54	12544	
432.74	12833	
432.94	11032	
433.14	11601	
433.34	13018	
433.55	12977	
433.75	11752	
433.95	13398	
434.15	13177	
434.35	13062	
434.56	11299	
434.76	11407	
434.96	13390	
435.16	13861	
435.36	11540	
435.56	12764	
435.77	13459	
435.97	13684	
436.17	13405	
436.37	12828	
436.57	13565	
436.78	13813	
436.98	13803	
437.18	13136	
437.38	14474	
437.58	13760	
437.78	13367	
437.99	12194	
438.19	14141	
438.39	14837	
438.59	12345	
438.79	11574	
438.99	14469	
439.2	13530	
439.4	11338	
439.6	11566	
439.8	13710	
440	14592	
440.2	12719	
440.4	12771	
440.61	14597	
440.81	15155	
441.01	12753	
441.21	13669	
441.41	15746	
441.61	15038	
441.81	14293	
442.02	14975	
442.22	16074	
442.42	15409	
442.62	13468	
442.82	13042	
443.02	16018	
443.22	15449	
443.43	13778	
443.63	13355	
443.83	14970	
444.03	15132	
444.23	14825	
444.43	14377	
444.63	15876	
444.83	16526	
445.04	14202	
445.24	15101	
445.44	15999	
445.64	16212	
445.84	14257	
446.04	14501	
446.24	15349	
446.44	16087	
446.65	13375	
446.85	14192	
447.05	14924	
447.25	15969	
447.45	13850	
447.65	13386	
447.85	15438	
448.05	14768	
448.25	14337	
448.46	14138	
448.66	15444	
448.86	15023	
449.06	13515	
449.26	14362	
449.46	16030	
449.66	15162	
449.86	14545	
450.06	14314	
450.26	15544	
450.47	16034	
450.67	14169	
450.87	14977	
451.07	16184	
451.27	16256	
451.47	14053	
451.67	15038	
451.87	16165	
452.07	16517	
452.27	14754	
452.47	14506	
452.67	16258	
452.88	16727	
453.08	13791	
453.28	15832	
453.48	17594	
453.68	15948	
453.88	14922	
454.08	14830	
454.28	17007	
454.48	16633	
454.68	15322	
454.88	15555	
455.08	16894	
455.28	17279	
455.48	14547	
455.68	15637	
455.89	17940	
456.09	17712	
456.29	15512	
456.49	15962	
456.69	18109	
456.89	17284	
457.09	16346	
457.29	16991	
457.49	18002	
457.69	18415	
457.89	17073	
458.09	16314	
458.29	18436	
458.49	19001	
458.69	17376	
458.89	17198	
459.09	19895	
459.29	19639	
459.49	17253	
459.69	18006	
459.9	19142	
460.1	19448	
460.3	17024	
460.5	16992	
460.7	19527	
460.9	19150	
461.1	16849	
461.3	18324	
461.5	20534	
461.7	20121	
461.9	18249	
462.1	17996	
462.3	20095	
462.5	20417	
462.7	18263	
462.9	18842	
463.1	21656	
463.3	21892	
463.5	18821	
463.7	20581	
463.9	21224	
464.1	21398	
464.3	20339	
464.5	20044	
464.7	22163	
464.9	22620	
465.1	21485	
465.3	20776	
465.5	22495	
465.7	22849	
465.9	21545	
466.1	20353	
466.3	23210	
466.5	22469	
466.7	22468	
466.9	21132	
467.1	23283	
467.3	23612	
467.5	22793	
467.7	21874	
467.9	24116	
468.1	24791	
468.3	22209	
468.5	23027	
468.7	23620	
468.9	23541	
469.1	22569	
469.3	23322	
469.5	25621	
469.7	24116	
469.9	22675	
470.1	22876	
470.3	24127	
470.5	24354	
470.7	23718	
470.9	22444	
471.1	24490	
471.3	23732	
471.5	22769	
471.69	23982	
471.89	23804	
472.09	23409	
472.29	23309	
472.49	22683	
472.69	24074	
472.89	24128	
473.09	22642	
473.29	21883	
473.49	23708	
473.69	23521	
473.89	22795	
474.09	22128	
474.29	24673	
474.49	24055	
474.69	23003	
474.89	22092	
475.09	23629	
475.29	23883	
475.49	21718	
475.69	22565	
475.88	24611	
476.08	23975	
476.28	21951	
476.48	21730	
476.68	23753	
476.88	23647	
477.08	21535	
477.28	22261	
477.48	22856	
477.68	23426	
477.88	21693	
478.08	21860	
478.28	24046	
478.48	23274	
478.67	22071	
478.87	21168	
479.07	24527	
479.27	23554	
479.47	22199	
479.67	22509	
479.87	24249	
480.07	24671	
480.27	21750	
480.47	22988	
480.67	23666	
480.87	24582	
481.06	22008	
481.26	22950	
481.46	24055	
481.66	24014	
481.86	22827	
482.06	23505	
482.26	23801	
482.46	24341	
482.66	22425	
482.86	22489	
483.05	24493	
483.25	23674	
483.45	24494	
483.65	22867	
483.85	24277	
484.05	24532	
484.25	23118	
484.45	24270	
484.65	24998	
484.84	25860	
485.04	23240	
485.24	23318	
485.44	25815	
485.64	24694	
485.84	23479	
486.04	24353	
486.24	25254	
486.44	25318	
486.63	23372	
486.83	24296	
487.03	25636	
487.23	25959	
487.43	23677	
487.63	25784	
487.83	26024	
488.02	26727	
488.22	25117	
488.42	25725	
488.62	27104	
488.82	26213	
489.02	24703	
489.22	25389	
489.41	26766	
489.61	27114	
489.81	24898	
490.01	25015	
490.21	27443	
490.41	27938	
490.61	25200	
490.8	25319	
491	27430	
491.2	26315	
491.4	25526	
491.6	24933	
491.8	26667	
491.99	26491	
492.19	24590	
492.39	24531	
492.59	26788	
492.79	26955	
492.99	25599	
493.18	25070	
493.38	27454	
493.58	28746	
493.78	26123	
493.98	26024	
494.18	28060	
494.37	28212	
494.57	27762	
494.77	27320	
494.97	29269	
495.17	29962	
495.37	27883	
495.56	28132	
495.76	30684	
495.96	30499	
496.16	29717	
496.36	29114	
496.55	31055	
496.75	31075	
496.95	29446	
497.15	29509	
497.35	31100	
497.54	31532	
497.74	29184	
497.94	30862	
498.14	31995	
498.34	31866	
498.53	29513	
498.73	30033	
498.93	31314	
499.13	31797	
499.33	30390	
499.52	30381	
499.72	32538	
499.92	32149	
500.12	30498	
500.32	30939	
500.51	32464	
500.71	33134	
500.91	31483	
501.11	31024	
501.31	32877	
501.5	32863	
501.7	31925	
501.9	31194	
502.1	32458	
502.29	32965	
502.49	31804	
502.69	31611	
502.89	32839	
503.09	32907	
503.28	30066	
503.48	30428	
503.68	31724	
503.88	32021	
504.07	30859	
504.27	30229	
504.47	32430	
504.67	31881	
504.86	30907	
505.06	30365	
505.26	31503	
505.46	32826	
505.65	30046	
505.85	30128	
506.05	31100	
506.25	31381	
506.44	28872	
506.64	29438	
506.84	30530	
507.04	30920	
507.23	28778	
507.43	29265	
507.63	31935	
507.83	30685	
508.02	29059	
508.22	29059	
508.42	32204	
508.62	30599	
508.81	29022	
509.01	29886	
509.21	30101	
509.4	30685	
509.6	29193	
509.8	28947	
510	30401	
510.19	31779	
510.39	28745	
510.59	29008	
510.79	30603	
510.98	32056	
511.18	29468	
511.38	29624	
511.57	31169	
511.77	31462	
511.97	29969	
512.17	28891	
512.36	31552	
512.56	30952	
512.76	28990	
512.95	28583	
513.15	31196	
513.35	30231	
513.55	29521	
513.74	28920	
513.94	31193	
514.14	30861	
514.33	29868	
514.53	29848	
514.73	30838	
514.92	31286	
515.12	29515	
515.32	29547	
515.51	31416	
515.71	31605	
515.91	30875	
516.11	29725	
516.3	33015	
516.5	31348	
516.7	30070	
516.89	30829	
517.09	31443	
517.29	31596	
517.48	30667	
517.68	29976	
517.88	31294	
518.07	31728	
518.27	30517	
518.47	29640	
518.66	31941	
518.86	31163	
519.06	29287	
519.25	29695	
519.45	31137	
519.65	32737	
519.84	30438	
520.04	31442	
520.24	33195	
520.43	32068	
520.63	30099	
520.83	30210	
521.02	31520	
521.22	31544	
521.42	29904	
521.61	30514	
521.81	30836	
522.01	31194	
522.2	29774	
522.4	29457	
522.6	31691	
522.79	30905	
522.99	29807	
523.18	29980	
523.38	32171	
523.58	32494	
523.77	32079	
523.97	30489	
524.17	34355	
524.36	34045	
524.56	32530	
524.76	32593	
524.95	33992	
525.15	33675	
525.34	32544	
525.54	33010	
525.74	35133	
525.93	34552	
526.13	34349	
526.33	33998	
526.52	35882	
526.72	35762	
526.91	34983	
527.11	34626	
527.31	35957	
527.5	36672	
527.7	34729	
527.89	34217	
528.09	35800	
528.29	36448	
528.48	34798	
528.68	34534	
528.87	36745	
529.07	36447	
529.27	35019	
529.46	34897	
529.66	37099	
529.85	37355	
530.05	35282	
530.25	35616	
530.44	38277	
530.64	36846	
530.83	35129	
531.03	35561	
531.23	37106	
531.42	36712	
531.62	35947	
531.81	35278	
532.01	37632	
532.21	38083	
532.4	36263	
532.6	36940	
532.79	39025	
532.99	39167	
533.18	37501	
533.38	38137	
533.58	39379	
533.77	39370	
533.97	38294	
534.16	38827	
534.36	40495	
534.55	39899	
534.75	38808	
534.95	38522	
535.14	41153	
535.34	40105	
535.53	38158	
535.73	39952	
535.92	41226	
536.12	39813	
536.31	38145	
536.51	39007	
536.71	39841	
536.9	39602	
537.1	37724	
537.29	38175	
537.49	39916	
537.68	39503	
537.88	38414	
538.07	37889	
538.27	39987	
538.46	40248	
538.66	37953	
538.86	38413	
539.05	39863	
539.25	40381	
539.44	39454	
539.64	38317	
539.83	39892	
540.03	40853	
540.22	38421	
540.42	37816	
540.61	39488	
540.81	39991	
541	37627	
541.2	38799	
541.39	38928	
541.59	39688	
541.78	38861	
541.98	37402	
542.18	38802	
542.37	38793	
542.57	37424	
542.76	38613	
542.96	38359	
543.15	38840	
543.35	37215	
543.54	36767	
543.74	38283	
543.93	38321	
544.13	36404	
544.32	37029	
544.52	38056	
544.71	37328	
544.91	35570	
545.1	36177	
545.3	37485	
545.49	37968	
545.69	35387	
545.88	35641	
546.08	38657	
546.27	38275	
546.47	36185	
546.66	35618	
546.86	37782	
547.05	38105	
547.24	35659	
547.44	36019	
547.63	36715	
547.83	37978	
548.02	35858	
548.22	36050	
548.41	36561	
548.61	37500	
548.8	35214	
549	35321	
549.19	36771	
549.39	37420	
549.58	34751	
549.78	35353	
549.97	37055	
550.17	36369	
550.36	35192	
550.55	36153	
550.75	36117	
550.94	36706	
551.14	34470	
551.33	34224	
551.53	35467	
551.72	36317	
551.92	34179	
552.11	34214	
552.31	36187	
552.5	35771	
552.69	35493	
552.89	33760	
553.08	36082	
553.28	35799	
553.47	34196	
553.67	34882	
553.86	36253	
554.06	34977	
554.25	33189	
554.44	33749	
554.64	36622	
554.83	36362	
555.03	33788	
555.22	33882	
555.42	35814	
555.61	35383	
555.8	33383	
556	33675	
556.19	34795	
556.39	35416	
556.58	33225	
556.78	33354	
556.97	35198	
557.16	35054	
557.36	34288	
557.55	33487	
557.75	34052	
557.94	36037	
558.13	33279	
558.33	33154	
558.52	35822	
558.72	34770	
558.91	33034	
559.1	33111	
559.3	34527	
559.49	33887	
559.69	32488	
559.88	33288	
560.07	34566	
560.27	35200	
560.46	33271	
560.66	33408	
560.85	34622	
561.04	33738	
561.24	32750	
561.43	32395	
561.63	34055	
561.82	34178	
562.01	33650	
562.21	32744	
562.4	34103	
562.59	35493	
562.79	32735	
562.98	32534	
563.18	34357	
563.37	35788	
563.56	33257	
563.76	33260	
563.95	34587	
564.14	34538	
564.34	33421	
564.53	33258	
564.73	34989	
564.92	35526	
565.11	33809	
565.31	33329	
565.5	35617	
565.69	34827	
565.89	33473	
566.08	33879	
566.27	35682	
566.47	36379	
566.66	34543	
566.85	33930	
567.05	35844	
567.24	35371	
567.44	33944	
567.63	34921	
567.82	35948	
568.02	35813	
568.21	34033	
568.4	34208	
568.6	35914	
568.79	35899	
568.98	33851	
569.18	34536	
569.37	36309	
569.56	37777	
569.76	34677	
569.95	35751	
570.14	36433	
570.34	36652	
570.53	34584	
570.72	34732	
570.91	37173	
571.11	36548	
571.3	35020	
571.49	35580	
571.69	36754	
571.88	36009	
572.07	35715	
572.27	35445	
572.46	36424	
572.65	37126	
572.85	35154	
573.04	35515	
573.23	37571	
573.43	36680	
573.62	35265	
573.81	35670	
574	37485	
574.2	37279	
574.39	36013	
574.58	36024	
574.78	38617	
574.97	38208	
575.16	36947	
575.36	37293	
575.55	39012	
575.74	38864	
575.93	36352	
576.13	37865	
576.32	38333	
576.51	39229	
576.71	36820	
576.9	38367	
577.09	39372	
577.28	38865	
577.48	37423	
577.67	36715	
577.86	38577	
578.05	39267	
578.25	37559	
578.44	37260	
578.63	38784	
578.83	39889	
579.02	36957	
579.21	38640	
579.4	39225	
579.6	39323	
579.79	37444	
579.98	39355	
580.17	39391	
580.37	39916	
580.56	37152	
580.75	38327	
580.94	39688	
581.14	39792	
581.33	38505	
581.52	37242	
581.71	39567	
581.91	39985	
582.1	37656	
582.29	37862	
582.48	39596	
582.68	39660	
582.87	38394	
583.06	38270	
583.25	40019	
583.45	39427	
583.64	38961	
583.83	39559	
584.02	39281	
584.21	40123	
584.41	38696	
584.6	38555	
584.79	39964	
584.98	40712	
585.18	38031	
585.37	38156	
585.56	39579	
585.75	40354	
585.94	37884	
586.14	38684	
586.33	40161	
586.52	39714	
586.71	37896	
586.91	37953	
587.1	38543	
587.29	39569	
587.48	36870	
587.67	37332	
587.87	38935	
588.06	38746	
588.25	37797	
588.44	37101	
588.63	38144	
588.83	38660	
589.02	36331	
589.21	36029	
589.4	37205	
589.59	37487	
589.78	34617	
589.98	34562	
590.17	35592	
590.36	35947	
590.55	32791	
590.74	32968	
590.94	35779	
591.13	34328	
591.32	32232	
591.51	31782	
591.7	34325	
591.89	34248	
592.09	32202	
592.28	32631	
592.47	33787	
592.66	35953	
592.85	32645	
593.05	32942	
593.24	34374	
593.43	35532	
593.62	33086	
593.81	33541	
594	34629	
594.19	34895	
594.39	32816	
594.58	32814	
594.77	34877	
594.96	34998	
595.15	32619	
595.34	33112	
595.54	34358	
595.73	33844	
595.92	31759	
596.11	32407	
596.3	34243	
596.49	33541	
596.68	31976	
596.88	32419	
597.07	34155	
597.26	33336	
597.45	31678	
597.64	32648	
597.83	33770	
598.02	34164	
598.22	31808	
598.41	32269	
598.6	33933	
598.79	33205	
598.98	31683	
599.17	32516	
599.36	33789	
599.55	34179	
599.74	33100	
599.94	33055	
600.13	33836	
600.32	32789	
600.51	31315	
600.7	31449	
600.89	34213	
601.08	34189	
601.27	31193	
601.47	31920	
601.66	33414	
601.85	34116	
602.04	31733	
602.23	31550	
602.42	32692	
602.61	33089	
602.8	31208	
602.99	31078	
603.18	32926	
603.37	33123	
603.57	31322	
603.76	31866	
603.95	33549	
604.14	33199	
604.33	31128	
604.52	31567	
604.71	33312	
604.9	32827	
605.09	31732	
605.28	31766	
605.47	33669	
605.66	33061	
605.86	31637	
606.05	31225	
606.24	33339	
606.43	32191	
606.62	31589	
606.81	31698	
607	33264	
607.19	32900	
607.38	30676	
607.57	30924	
607.76	32364	
607.95	31800	
608.14	31154	
608.33	31548	
608.52	32301	
608.72	33411	
608.91	30316	
609.1	30301	
609.29	32147	
609.48	31624	
609.67	30675	
609.86	29915	
610.05	31669	
610.24	31748	
610.43	30068	
610.62	29724	
610.81	32417	
611	32439	
611.19	29976	
611.38	30395	
611.57	31799	
611.76	32922	
611.95	29715	
612.14	29377	
612.33	31873	
612.52	31425	
612.71	30148	
612.9	29530	
613.09	31019	
613.28	32958	
613.47	29601	
613.66	30588	
613.85	31712	
614.04	31376	
614.24	29689	
614.43	29201	
614.62	31753	
614.81	31565	
615	30182	
615.19	30403	
615.38	31103	
615.57	31926	
615.76	30277	
615.95	31055	
616.14	32041	
616.33	31746	
616.52	30479	
616.71	30698	
616.9	31902	
617.09	31995	
617.28	30077	
617.47	30974	
617.66	31499	
617.85	31433	
618.04	31172	
618.22	30604	
618.41	32271	
618.6	33155	
618.79	31002	
618.98	31242	
619.17	33693	
619.36	32260	
619.55	31451	
619.74	31375	
619.93	33363	
620.12	33185	
620.31	32142	
620.5	32361	
620.69	34143	
620.88	34778	
621.07	33025	
621.26	32649	
621.45	34318	
621.64	34312	
621.83	32869	
622.02	32382	
622.21	34239	
622.4	34524	
622.59	33583	
622.78	33322	
622.97	34232	
623.16	35124	
623.35	32977	
623.54	32454	
623.72	34501	
623.91	34492	
624.1	33231	
624.29	32477	
624.48	35468	
624.67	34863	
624.86	33370	
625.05	32747	
625.24	35690	
625.43	34427	
625.62	34725	
625.81	32968	
626	34959	
626.19	34748	
626.38	33757	
626.56	33247	
626.75	34698	
626.94	35520	
627.13	33552	
627.32	32694	
627.51	35143	
627.7	36037	
627.89	32697	
628.08	33635	
628.27	34250	
628.46	34542	
628.65	32722	
628.83	32565	
629.02	34456	
629.21	34185	
629.4	32929	
629.59	33043	
629.78	34263	
629.97	34726	
630.16	33297	
630.35	33075	
630.54	35208	
630.72	34927	
630.91	32849	
631.1	33135	
631.29	34617	
631.48	34798	
631.67	33153	
631.86	32617	
632.05	34407	
632.24	34361	
632.42	32388	
632.61	32888	
632.8	34253	
632.99	33992	
633.18	33092	
633.37	33279	
633.56	34581	
633.75	34609	
633.93	32866	
634.12	32785	
634.31	34722	
634.5	34921	
634.69	32940	
634.88	32656	
635.07	34435	
635.25	34547	
635.44	33312	
635.63	33570	
635.82	33944	
636.01	33532	
636.2	33049	
636.39	32825	
636.57	34716	
636.76	34209	
636.95	32413	
637.14	32922	
637.33	34218	
637.52	34775	
637.7	32019	
637.89	32844	
638.08	34109	
638.27	34812	
638.46	32899	
638.65	32749	
638.83	34342	
639.02	33363	
639.21	32370	
639.4	32844	
639.59	33471	
639.78	33344	
639.96	31390	
640.15	31374	
640.34	33363	
640.53	33099	
640.72	30851	
640.91	31167	
641.09	32179	
641.28	33336	
641.47	30842	
641.66	31599	
641.85	32923	
642.03	32679	
642.22	31231	
642.41	30695	
642.6	32311	
642.79	31589	
642.97	30246	
643.16	30954	
643.35	31864	
643.54	31460	
643.73	30067	
643.91	30553	
644.1	30911	
644.29	31888	
644.48	29715	
644.67	29812	
644.85	30898	
645.04	31039	
645.23	28765	
645.42	29335	
645.6	30081	
645.79	30605	
645.98	28297	
646.17	27489	
646.36	28969	
646.54	29210	
646.73	28049	
646.92	27351	
647.11	29005	
647.29	29440	
647.48	27233	
647.67	27142	
647.86	29306	
648.05	29891	
648.23	27164	
648.42	28019	
648.61	29020	
648.8	28733	
648.98	26620	
649.17	26987	
649.36	28066	
649.55	28008	
649.73	26395	
649.92	27192	
650.11	28349	
650.3	28371	
650.48	26523	
650.67	26725	
650.86	28523	
651.05	27736	
651.23	26462	
651.42	26121	
651.61	27659	
651.79	27400	
651.98	26472	
652.17	25902	
652.36	27753	
652.54	27060	
652.73	25763	
652.92	25672	
653.11	27587	
653.29	27779	
653.48	25071	
653.67	25905	
653.85	27358	
654.04	28018	
654.23	25667	
654.42	25363	
654.6	26052	
654.79	26518	
654.98	24036	
655.16	24156	
655.35	24862	
655.54	24505	
655.73	22932	
655.91	22741	
656.1	24903	
656.29	24229	
656.47	22331	
656.66	23692	
656.85	24847	
657.03	24971	
657.22	23330	
657.41	23854	
657.59	25493	
657.78	25587	
657.97	23909	
658.16	24547	
658.34	26124	
658.53	26854	
658.72	25352	
658.9	25692	
659.09	26111	
659.28	25998	
659.46	24431	
659.65	24436	
659.84	25734	
660.02	26368	
660.21	24382	
660.4	24356	
660.58	26430	
660.77	26121	
660.96	24899	
661.14	24025	
661.33	26845	
661.52	26638	
661.7	24040	
661.89	26706	
662.08	25531	
662.26	25435	
662.45	24183	
662.64	24085	
662.82	26105	
663.01	25583	
663.2	23859	
663.38	24648	
663.57	25781	
663.75	25755	
663.94	24187	
664.13	24771	
664.31	25351	
664.5	25658	
664.69	24128	
664.87	24749	
665.06	25187	
665.25	25693	
665.43	24890	
665.62	24717	
665.8	25527	
665.99	24952	
666.18	23854	
666.36	23927	
666.55	25497	
666.74	25563	
666.92	23693	
667.11	24446	
667.29	24991	
667.48	25454	
667.67	24268	
667.85	23722	
668.04	24959	
668.22	25151	
668.41	23608	
668.6	23832	
668.78	24861	
668.97	24889	
669.15	23641	
669.34	22980	
669.53	24837	
669.71	24966	
669.9	23051	
670.08	23535	
670.27	24507	
670.46	25077	
670.64	23726	
670.83	24190	
671.01	24371	
671.2	24672	
671.38	23138	
671.57	22787	
671.76	25379	
671.94	25757	
672.13	22986	
672.31	23719	
672.5	25170	
672.69	24745	
672.87	23158	
673.06	23437	
673.24	24942	
673.43	24836	
673.61	23387	
673.8	23175	
673.98	24813	
674.17	24961	
674.36	23657	
674.54	23362	
674.73	24511	
674.91	24864	
675.1	23299	
675.28	22900	
675.47	24462	
675.65	25118	
675.84	23158	
676.03	23383	
676.21	24320	
676.4	23900	
676.58	23700	
676.77	23754	
676.95	25432	
677.14	24274	
677.32	22821	
677.51	22789	
677.69	24909	
677.88	24036	
678.06	22732	
678.25	22804	
678.44	24716	
678.62	24171	
678.81	22620	
678.99	23266	
679.18	25049	
679.36	24726	
679.55	23062	
679.73	23477	
679.92	24478	
680.1	24226	
680.29	23919	
680.47	22935	
680.66	24002	
680.84	24694	
681.03	22324	
681.21	23148	
681.4	24111	
681.58	23948	
681.77	22636	
681.95	22679	
682.14	24688	
682.32	24828	
682.51	23309	
682.69	22195	
682.88	23810	
683.06	23821	
683.25	22683	
683.43	22982	
683.62	23920	
683.8	24230	
683.99	23176	
684.17	22466	
684.36	24701	
684.54	23450	
684.73	21513	
684.91	21365	
685.1	22851	
685.28	22203	
685.46	20704	
685.65	20535	
685.83	21663	
686.02	21042	
686.2	19513	
686.39	19560	
686.57	20588	
686.76	22078	
686.94	19717	
687.13	20071	
687.31	21629	
687.5	21603	
687.68	19676	
687.86	20771	
688.05	23078	
688.23	21530	
688.42	20973	
688.6	20644	
688.79	21893	
688.97	22016	
689.16	21095	
689.34	20103	
689.52	22905	
689.71	22929	
689.89	21422	
690.08	20967	
690.26	22655	
690.45	22683	
690.63	21377	
690.81	21310	
691	22231	
691.18	22408	
691.37	21144	
691.55	22472	
691.74	21951	
691.92	23410	
692.1	20860	
692.29	20300	
692.47	22008	
692.66	21414	
692.84	20515	
693.02	20721	
693.21	21774	
693.39	21772	
693.58	21009	
693.76	20761	
693.94	22900	
694.13	23185	
694.31	21006	
694.5	21822	
694.68	22317	
694.86	22816	
695.05	21530	
695.23	21640	
695.42	23370	
695.6	24952	
695.78	22259	
695.97	21588	
696.15	23506	
696.34	22783	
696.52	21410	
696.7	21930	
696.89	22820	
697.07	22358	
697.25	21436	
697.44	22453	
697.62	22646	
697.81	22592	
697.99	20837	
698.17	21461	
698.36	21588	
698.54	22214	
698.72	21042	
698.91	20157	
699.09	21893	
699.28	21621	
699.46	20631	
699.64	20345	
699.83	21375	
700.01	22111	
700.19	20921	
700.38	19856	
700.56	22291	
700.74	21503	
700.93	20024	
701.11	20710	
701.29	22029	
701.48	22827	
701.66	20416	
701.84	20551	
702.03	22069	
702.21	22687	
702.39	20018	
702.58	20863	
702.76	22296	
702.94	22309	
703.13	20054	
703.31	22065	
703.49	21620	
703.68	22386	
703.86	20063	
704.04	20855	
704.23	21771	
704.41	22102	
704.59	20265	
704.78	20639	
704.96	23092	
705.14	22065	
705.33	19984	
705.51	20334	
705.69	21403	
705.87	21998	
706.06	20493	
706.24	19667	
706.42	21511	
706.61	21847	
706.79	20198	
706.97	19607	
707.16	20964	
707.34	21402	
707.52	19826	
707.7	19507	
707.89	20981	
708.07	20665	
708.25	20046	
708.44	20313	
708.62	20669	
708.8	21442	
708.98	20106	
709.17	19430	
709.35	20800	
709.53	20596	
709.72	18871	
709.9	19063	
710.08	20790	
710.26	20801	
710.45	19719	
710.63	18852	
710.81	20178	
710.99	20131	
711.18	19143	
711.36	18589	
711.54	19854	
711.72	20197	
711.91	18385	
712.09	17864	
712.27	19397	
712.45	19926	
712.64	17855	
712.82	17268	
713	18445	
713.18	18429	
713.37	16788	
713.55	17399	
713.73	18636	
713.91	17326	
714.1	16165	
714.28	15412	
714.46	17150	
714.64	16029	
714.83	13882	
715.01	14074	
715.19	14996	
715.37	14248	
715.55	12953	
715.74	12950	
715.92	14951	
716.1	13330	
716.28	13698	
716.47	12681	
716.65	13525	
716.83	13611	
717.01	12312	
717.19	12331	
717.38	15225	
717.56	13236	
717.74	12562	
717.92	11945	
718.1	14152	
718.29	13734	
718.47	11825	
718.65	12699	
718.83	14915	
719.01	15044	
719.2	12739	
719.38	13807	
719.56	15152	
719.74	16343	
719.92	13354	
720.11	14045	
720.29	14982	
720.47	14194	
720.65	12443	
720.83	12967	
721.02	13603	
721.2	13263	
721.38	12403	
721.56	11616	
721.74	12603	
721.92	12512	
722.11	12430	
722.29	12108	
722.47	13430	
722.65	12709	
722.83	11347	
723.01	11797	
723.2	12834	
723.38	13026	
723.56	10828	
723.74	11704	
723.92	12328	
724.1	13136	
724.29	11177	
724.47	11942	
724.65	12369	
724.83	12187	
725.01	10813	
725.19	11303	
725.37	11998	
725.56	12085	
725.74	10563	
725.92	10918	
726.1	12032	
726.28	12215	
726.46	10914	
726.64	10667	
726.83	11953	
727.01	12173	
727.19	10299	
727.37	10941	
727.55	12230	
727.73	12465	
727.91	10279	
728.09	10109	
728.28	12413	
728.46	12630	
728.64	11049	
728.82	11007	
729	13208	
729.18	12810	
729.36	10460	
729.54	12118	
729.72	13753	
729.91	12605	
730.09	12248	
730.27	11360	
730.45	12504	
730.63	12952	
730.81	11712	
730.99	11097	
731.17	13439	
731.35	12404	
731.53	11488	
731.71	11155	
731.9	13035	
732.08	13038	
732.26	11119	
732.44	10857	
732.62	12986	
732.8	12689	
732.98	11263	
733.16	10579	
733.34	12413	
733.52	11454	
733.7	10710	
733.88	10877	
734.07	12053	
734.25	12030	
734.43	10277	
734.61	11443	
734.79	13156	
734.97	11822	
735.15	10223	
735.33	10549	
735.51	11899	
735.69	11706	
735.87	11183	
736.05	10406	
736.23	11663	
736.41	11489	
736.59	10316	
736.77	10243	
736.95	12037	
737.13	11554	
737.32	9987.3	
737.5	10135	
737.68	12375	
737.86	11246	
738.04	9688.9	
738.22	10943	
738.4	10974	
738.58	11223	
738.76	10026	
738.94	9119.6	
739.12	10925	
739.3	10972	
739.48	10358	
739.66	10180	
739.84	11244	
740.02	11099	
740.2	9213.1	
740.38	9363.3	
740.56	11409	
740.74	10381	
740.92	9717.6	
741.1	9561.3	
741.28	10706	
741.46	10534	
741.64	9225.4	
741.82	9668.5	
742	10656	
742.18	10559	
742.36	9299.1	
742.54	8874.5	
742.72	10888	
742.9	9811.8	
743.08	9318.3	
743.26	8432.2	
743.44	10883	
743.62	10791	
743.8	9390.6	
743.98	8615.1	
744.16	10382	
744.34	10161	
744.52	9233.6	
744.7	9052.7	
744.88	10352	
745.06	9929.9	
745.24	9012.4	
745.42	9011.1	
745.6	10257	
745.78	10139	
745.96	7924.3	
746.14	8079.2	
746.32	10644	
746.5	9977.7	
746.68	8491.6	
746.86	8032.1	
747.03	10183	
747.21	9020.6	
747.39	8336.6	
747.57	7863.5	
747.75	9577	
747.93	9833.7	
748.11	7732.4	
748.29	7768.6	
748.47	10682	
748.65	9291.6	
748.83	8297.7	
749.01	8137.3	
749.19	9544.9	
749.37	8846.5	
749.55	7956.4	
749.73	8035.5	
749.91	9426.8	
750.09	9041.8	
750.26	7968	
750.44	7419.1	
750.62	9248.6	
750.8	9122.3	
750.98	7332.4	
751.16	7550.9	
751.34	9209.7	
751.52	8677.9	
751.7	8142.7	
751.88	7273	
752.06	9573.6	
752.24	9346.9	
752.42	7115.3	
752.59	7416.4	
752.77	8924.4	
752.95	9947	
753.13	7943.4	
753.31	7464.2	
753.49	8594.6	
753.67	8875.2	
753.85	7560.4	
754.03	7156.3	
754.21	8946.2	
754.38	9185.8	
754.56	7055.9	
754.74	6177.4	
754.92	8019.2	
755.1	8310.7	
755.28	5879	
755.46	5758.9	
755.64	8485.4	
755.82	8275.2	
755.99	5292.6	
756.17	5191.6	
756.35	5783.5	
756.53	6882.5	
756.71	3887	
756.89	4621.6	
757.07	6410.1	
757.25	5827.8	
757.42	5191.6	
757.6	5904.3	
757.78	6891.4	
757.96	6117.3	
758.14	5226.4	
758.32	4895.3	
758.5	5759.6	
758.67	6447	
758.85	5005.9	
759.03	5175.2	
759.21	6558.3	
759.39	6061.3	
759.57	4727.4	
759.75	5616.2	
759.92	7152.2	
760.1	6684.6	
760.28	5992.4	
760.46	6228.6	
760.64	6566.5	
760.82	6423.1	
760.99	6079.7	
761.17	5485.8	
761.35	7270.3	
761.53	6514.6	
761.71	5724.1	
761.89	6208.1	
762.06	7357.7	
762.24	6993.8	
762.42	5870.2	
762.6	5701.5	
762.78	6997.9	
762.96	7545.4	
763.13	6291.4	
763.31	6005.3	
763.49	7605.5	
763.67	7034.1	
763.85	6581.5	
764.02	7035.5	
764.2	7936.6	
764.38	7176.8	
764.56	5812.1	
764.74	6465.4	
764.91	8013	
765.09	6980.8	
765.27	5630.5	
765.45	5315.8	
765.63	7930.4	
765.8	7839.6	
765.98	5116.5	
766.16	5359.5	
766.34	6630	
766.52	6350.8	
766.69	5984.8	
766.87	5167.7	
767.05	6902.3	
767.23	7467.6	
767.41	5431.9	
767.58	5490.6	
767.76	7191.8	
767.94	7240.3	
768.12	5378.6	
768.29	5926.1	
768.47	6761	
768.65	7320.1	
768.83	4973.2	
769	5772.5	
769.18	6344.6	
769.36	6836.8	
769.54	5803.3	
769.72	4955.4	
769.89	7086.7	
770.07	7088	
770.25	5123.3	
770.43	6107	
770.6	7566.6	
770.78	7828	
770.96	5227.1	
771.14	5633.3	
771.31	6919.4	
771.49	6252.4	
771.67	4489.1	
771.85	4641.4	
772.02	5707.7	
772.2	6227.9	
772.38	5156.1	
772.55	4703.5	
772.73	6470.9	
772.91	6202.6	
773.09	4979.3	
773.26	5091.3	
773.44	6324.8	
773.62	6068.1	
773.8	4635.9	
773.97	4462.5	
774.15	6331	
774.33	6052.4	
774.5	4461.2	
774.68	4745.1	
774.86	6462	
775.04	5979.4	
775.21	4482.3	
775.39	4401.1	
775.57	6187.6	
775.74	6427.9	
775.92	4287.8	
776.1	4181.3	
776.27	6134.3	
776.45	6960.4	
776.63	4335.5	
776.81	4010.6	
776.98	5754.8	
777.16	6490.7	
777.34	4405.2	
777.51	4634.6	
777.69	5791	
777.87	5576.6	
778.04	4420.2	
778.22	4822.3	
778.4	5504.9	
778.57	5971.2	
778.75	3812.6	
778.93	4018.8	
779.1	5340.4	
779.28	5188.2	
779.46	3734.8	
779.64	4061.1	
779.81	6107.7	
779.99	6720.1	
780.17	4625	
780.34	4722.6	
780.52	5684.5	
780.69	5761.6	
780.87	4382.7	
781.05	4009.9	
781.22	5655.8	
781.4	5640.1	
781.58	4049.5	
781.75	3360.7	
781.93	5696.1	
782.11	5081	
782.28	4761.5	
782.46	3990.8	
782.64	5007.3	
782.81	5678.3	
782.99	4085	
783.17	4003.8	
783.34	5610.8	
783.52	4974.5	
783.69	4089.8	
783.87	4745.1	
784.05	5051.7	
784.22	5070.8	
784.4	4675.5	
784.58	4152.6	
784.75	5797.8	
784.93	5107	
785.1	3977.2	
785.28	4377.2	
785.46	5582.8	
785.63	4922.6	
785.81	3805.8	
785.99	3752.6	
786.16	5124	
786.34	5452.4	
786.51	3749.8	
786.69	4064.5	
786.87	4769	
787.04	5167.7	
787.22	3607.2	
787.39	4384	
787.57	4973.8	
787.75	5809.4	
787.92	4493.9	
788.1	4418.2	
788.27	4910.3	
788.45	4723.3	
788.63	4179.2	
788.8	3183.2	
788.98	5216.9	
789.15	4618.2	
789.33	3368.2	
789.5	3787.4	
789.68	5646.9	
789.86	5687.2	
790.03	4076.1	
790.21	3646.7	
790.38	5614.2	
790.56	4969.7	
790.73	3567.6	
790.91	3545	
791.09	4849.6	
791.26	5427.1	
791.44	3753.9	
791.61	3307.5	
791.79	4872.8	
791.96	4866	
792.14	3385.3	
792.32	3042.6	
792.49	4803.9	
792.67	4902.8	
792.84	3482.2	
793.02	3308.2	
793.19	5248.3	
793.37	5719.3	
793.54	3032.4	
793.72	3272	
793.89	5780.7	
794.07	4822.3	
794.25	3750.5	
794.42	3089	
794.6	5605.3	
794.77	5242.8	
794.95	4005.8	
795.12	3548.4	
795.3	4805.9	
795.47	5244.2	
795.65	3826.3	
795.82	3673.4	
796	4669.4	
796.17	6062.7	
796.35	3577.8	
796.52	4135.5	
796.7	5240.8	
796.87	5374.6	
797.05	3543.7	
797.22	4220.9	
797.4	5243.5	
797.57	5928.9	
797.75	3688.4	
797.92	3486.3	
798.1	5446.9	
798.27	4716.5	
798.45	3072.6	
798.62	3250.1	
798.8	5038.7	
798.97	5395	
799.15	3888.4	
799.32	3687	
799.5	4365.6	
799.67	4945.2	
799.85	3910.9	
800.02	2988.7	
800.2	4674.8	
800.37	4925.4	
800.55	3977.2	
800.72	3494.5	
800.9	5347.9	
801.07	5657.2	
801.25	4464.6	
801.42	3708.9	
801.6	5361.6	
801.77	5003.9	
801.95	3467.2	
802.12	3370.3	
802.29	5076.9	
802.47	5086.5	
802.64	3677.5	
802.82	2962.7	
802.99	4716.5	
803.17	5397.8	
803.34	3595.6	
803.52	3222.8	
803.69	5885.9	
803.87	4492.6	
804.04	3641.3	
804.21	3598.3	
804.39	5530.2	
804.56	4779.3	
804.74	3117	
804.91	3713.6	
805.09	4637.3	
805.26	4746.5	
805.44	3146.4	
805.61	3444	
805.78	5203.2	
805.96	5195	
806.13	3700	
806.31	3923.2	
806.48	4282.3	
806.66	4712.4	
806.83	3695.9	
807	3513.6	
807.18	4700.8	
807.35	4893.3	
807.53	3510.9	
807.7	2950.4	
807.87	5534.3	
808.05	4681.7	
808.22	3897.3	
808.4	2947.7	
808.57	4593.6	
808.74	4330.1	
808.92	3328.6	
809.09	4056.3	
809.27	4624.3	
809.44	4994.3	
809.61	2927.9	
809.79	3200.3	
809.96	5590.3	
810.14	5184.1	
810.31	2856.9	
810.48	3457	
810.66	4685.1	
810.83	5268.1	
811.01	3300.6	
811.18	3641.3	
811.35	5154.7	
811.53	4117.8	
811.7	3886.4	
811.87	3611.9	
812.05	4640	
812.22	4572.4	
812.39	3232.4	
812.57	3112.9	
812.74	4696.7	
812.92	5908.4	
813.09	3487	
813.26	3632.4	
813.44	5691.3	
813.61	4525.3	
813.78	2910.2	
813.96	3766.9	
814.13	4631.1	
814.3	4432.5	
814.48	4009.2	
814.65	3379.8	
814.82	5558.9	
815	4432.5	
815.17	3477.5	
815.34	4151.9	
815.52	4564.9	
815.69	4547.9	
815.87	3424.2	
816.04	3428.3	
816.21	4578.6	
816.38	4133.5	
816.56	3371.6	
816.73	3167.5	
816.9	5683.1	
817.08	5113.8	
817.25	3158	
817.42	3853.6	
817.6	4270.7	
817.77	4528.7	
817.94	3485	
818.12	3105.4	
818.29	4369	
818.46	6434.7	
818.64	3295.9	
818.81	3108.8	
818.98	4401.8	
819.16	5979.4	
819.33	3705.5	
819.5	3496.6	
819.67	4899.4	
819.85	5389.6	
820.02	3489.1	
820.19	3610.6	
820.37	4710.3	
820.54	4515.1	
820.71	3545.7	
820.88	4289.8	
821.06	4797	
821.23	4416.8	
821.4	3538.2	
821.58	3436.5	
821.75	5124.7	
821.92	4702.8	
822.09	2917.7	
822.27	2969.6	
822.44	4577.2	
822.61	4525.3	
822.79	2897.2	
822.96	5251.7	
823.13	4930.1	
823.3	4368.3	
823.48	3261	
823.65	2979.1	
823.82	5171.1	
823.99	4242	
824.17	4104.1	
824.34	3056.9	
824.51	5814.9	
824.68	4660.5	
824.86	3211.9	
825.03	3508.2	
825.2	4610.7	
825.37	5388.2	
825.55	3136.8	
825.72	3424.2	
825.89	5823.1	
826.06	5504.3	
826.24	3338.2	
826.41	3401	
826.58	5399.8	
826.75	4828.4	
826.92	2784.6	
827.1	3042.6	
827.27	7169.3	
827.44	5806	
827.61	3282.9	
827.79	3768.3	
827.96	4439.3	
828.13	4619.5	
828.3	3387.3	
828.47	2853.5	
828.65	4902.8	
828.82	4773.1	
828.99	4194.9	
829.16	3715	
829.34	5088.5	
829.51	4912.4	
829.68	3429	
829.85	3515	
830.02	5369.1	
830.2	5134.3	
830.37	2774.3	
830.54	4112.3	
830.71	5697.4	
830.88	4603.8	
831.05	2767.5	
831.23	3177.1	
831.4	5528.8	
831.57	6082.5	
831.74	3257	
831.91	2813.9	
832.09	4896	
832.26	5091.3	
832.43	3308.2	
832.6	3701.4	
832.77	4839.4	
832.94	5337.7	
833.12	2734.7	
833.29	3289.7	
833.46	4922	
833.63	6206.7	
833.8	3615.3	
833.97	3353.2	
834.15	5144.5	
834.32	4986.1	
834.49	3445.4	
834.66	3458.3	
834.83	5218.9	
835	4379.9	
835.17	3224.9	
835.35	3226.2	
835.52	5061.2	
835.69	4932.2	
835.86	3397.6	
836.03	2812.5	
836.2	5079	
836.37	4782.7	
836.55	3285.6	
836.72	3128.6	
836.89	4739.7	
837.06	5168.4	
837.23	3297.9	
837.4	3570.3	
837.57	5756.2	
837.75	6219	
837.92	3037.1	
838.09	3222.1	
838.26	4734.9	
838.43	5290.6	
838.6	3426.3	
838.77	3089	
838.94	5870.8	
839.11	5746.6	
839.29	3324.5	
839.46	2676.7	
839.63	5132.9	
839.8	4858.5	
839.97	3203.7	
840.14	3227.6	
840.31	4979.3	
840.48	5127.4	
840.65	2740.2	
840.82	3102	
841	5076.2	
841.17	4982	
841.34	2972.3	
841.51	3018	
841.68	5042.8	
841.85	4814.8	
842.02	3121.1	
842.19	2628.2	
842.36	4933.6	
842.53	4913.8	
842.7	2959.3	
842.87	3587.4	
843.05	6206.7	
843.22	4794.3	
843.39	2884.2	
843.56	3060.3	
843.73	4720.6	
843.9	5150.6	
844.07	4623.6	
844.24	3814	
844.41	6909.2	
844.58	4457.7	
844.75	2863.1	
844.92	3033	
845.09	5037.3	
845.26	5047.6	
845.43	2906.8	
845.6	3131.3	
845.77	5038	
845.94	4853	
846.12	3245.3	
846.29	3403.7	
846.46	5187.5	
846.63	5025.7	
846.8	3009.1	
846.97	3428.3	
847.14	5395.7	
847.31	4992.9	
847.48	3327.3	
847.65	3607.8	
847.82	5233.2	
847.99	5177.9	
848.16	3816	
848.33	3572.3	
848.5	4695.3	
848.67	5412.8	
848.84	2876	
849.01	3080.1	
849.18	4661.2	
849.35	4351.3	
849.52	3589.4	
849.69	2908.1	
849.86	5248.3	
850.03	5287.9	
850.2	2930	
850.37	3480.2	
850.54	5295.4	
850.71	4857.8	
850.88	3512.9	
851.05	2912.2	
851.22	4960.2	
851.39	5448.3	
851.56	2795.5	
851.73	3378.5	
851.9	4502.1	
852.07	5210.7	
852.24	3188.7	
852.41	2944.3	
852.58	4904.9	
852.75	4575.2	
852.92	3282.2	
853.09	2907.4	
853.26	4698	
853.43	5375.2	
853.6	2950.4	
853.77	2575.7	
853.94	5474.9	
854.11	4470.7	
854.28	4179.2	
854.44	3179.8	
854.61	5793	
854.78	5279	
854.95	2875.3	
855.12	3589.4	
855.29	4158.1	
855.46	5532.9	
855.63	2940.9	
855.8	3921.2	
855.97	4711	
856.14	5350	
856.31	4034.5	
856.48	3128.6	
856.65	4728.8	
856.82	4430.4	
856.99	2838.5	
857.16	3142.3	
857.33	5995.1	
857.49	4823.6	
857.66	3153.9	
857.83	3303.4	
858	4752	
858.17	4871.4	
858.34	2763.4	
858.51	2939.5	
858.68	5547.3	
858.85	5545.9	
859.02	3373.7	
859.19	3500.7	
859.36	4532.8	
859.52	4500.8	
859.69	2934.7	
859.86	3407.1	
860.03	4515.1	
860.2	5490.6	
860.37	2721.1	
860.54	2921.8	
860.71	5200.5	
860.88	5462.6	
861.05	3220.8	
861.21	3633.1	
861.38	5459.9	
861.55	4312.3	
861.72	2696.5	
861.89	3251.5	
862.06	5257.1	
862.23	5618.3	
862.4	2880.8	
862.56	3050.1	
862.73	5066.7	
862.9	4801.1	
863.07	3349.8	
863.24	2713.6	
863.41	4407.2	
863.58	4503.5	
863.75	2948.4	
863.91	3384.6	
864.08	5399.1	
864.25	5121.3	
864.42	3602.4	
864.59	3991.5	
864.76	5717.2	
864.93	4469.4	
865.09	2854.9	
865.26	3110.9	
865.43	5389.6	
865.6	5656.5	
865.77	2578.4	
865.94	2863.7	
866.1	5404.6	
866.27	5150.6	
866.44	4261.1	
866.61	2806.4	
866.78	4784.7	
866.95	5131.5	
867.11	2811.9	
867.28	2621.4	
867.45	5342.5	
867.62	4481	
867.79	3257	
867.96	2942.2	
868.12	4476.9	
868.29	5216.2	
868.46	2869.9	
868.63	3785.3	
868.8	5264	
868.97	5134.9	
869.13	3041.2	
869.3	3061.7	
869.47	5059.8	
869.64	5315.2	
869.81	2888.3	
869.97	2931.3	
870.14	4977.2	
870.31	5459.2	
870.48	2843.9	
870.65	3582.6	
870.81	4757.4	
870.98	4722.6	
871.15	3313.6	
871.32	3043.3	
871.48	5068.7	
871.65	5541.8	
871.82	2875.3	
871.99	3167.5	
872.16	5866.7	
872.32	5356.8	
872.49	2995.5	
872.66	2986.6	
872.83	5191.6	
872.99	4603.2	
873.16	3323.2	
873.33	2905.4	
873.5	4857.1	
873.67	4917.2	
873.83	3073.3	
874	3852.9	
874.17	4975.2	
874.34	5688.6	
874.5	3678.8	
874.67	3482.2	
874.84	5488.6	
875.01	4369.7	
875.17	3941.7	
875.34	2892.4	
875.51	4965	
875.68	5827.8	
875.84	3513.6	
876.01	4076.8	
876.18	5197.1	
876.34	5099.4	
876.51	2957.9	
876.68	2871.3	
876.85	4714.4	
877.01	5345.9	
877.18	4020.2	
877.35	2843.3	
877.52	4965.6	
877.68	4388.1	
877.85	2875.3	
878.02	2870.6	
878.18	4769.7	
878.35	4648.9	
878.52	2411.1	
878.69	3216.7	
878.85	5261.9	
879.02	5085.1	
879.19	4008.6	
879.35	3087.7	
879.52	5132.9	
879.69	5205.3	
879.86	2595.5	
880.02	3228.3	
880.19	4840	
880.36	5697.4	
880.52	3263.8	
880.69	3360	
880.86	5192.3	
881.02	5292	
881.19	3196.2	
881.36	3074.7	
881.52	5139.7	
881.69	4586.8	
881.86	3134.8	
882.02	3053.5	
882.19	5356.1	
882.36	6085.2	
882.52	3016.7	
882.69	4003.1	
882.86	4941.1	
883.02	4934.9	
883.19	3423.5	
883.36	3250.8	
883.52	5199.1	
883.69	5848.3	
883.86	2964.1	
884.02	2673.3	
884.19	5126.1	
884.36	4882.4	
884.52	3188.7	
884.69	3083.6	
884.86	4663.9	
885.02	5560.2	
885.19	3181.9	
885.36	3299.3	
885.52	4792.2	
885.69	5025.7	
885.86	4070	
886.02	3594.2	
886.19	5178.6	
886.35	4629.1	
886.52	3194.8	
886.69	3910.9	
886.85	4502.1	
887.02	5406	
887.19	5406	
887.35	5406	
887.52	5406	
887.68	5406	
887.85	5406	
888.02	5406	
888.18	5406	
888.35	5406	
888.51	5406	
888.68	5406	
888.85	5406	
889.01	5406	
889.18	5406	
889.35	5406	
889.51	5406	
889.68	5406	
889.84	5406	
890.01	5406	
890.17	5406	
890.34	5406	
890.51	5406	
890.67	5406	
890.84	5406	
891	5406	
891.17	5406	
891.34	5406	
891.5	5406	
891.67	5406	
891.83	5406	
892	5406	
892.16	5406	
892.33	5406	
892.5	5406	
892.66	5406	
892.83	5406	
892.99	5406	
893.16	5406	
893.32	5406	
893.49	5406	
893.65	5406	
893.82	5406	
893.99	5406	
894.15	5406	
894.32	5406	
894.48	5406	
894.65	5406	
894.81	5406	
894.98	5406	
895.14	5406	
895.31	5406	
895.47	5406	
895.64	5406	
895.81	5406	
895.97	5406	
896.14	5406	
896.3	5406	
896.47	5406	
896.63	5406	
896.8	5406	
896.96	5406	
897.13	5406	
897.29	5406	
897.46	5406	
897.62	5406	
897.79	5406	
897.95	5406	
898.12	5406	
898.28	5406	
898.45	5406	
898.61	5406	
898.78	5406	
898.94	5406	
899.11	5406	
899.27	5406	
899.44	5406	
899.6	5406	
899.77	5406	
899.93	5406	
900.1	5406	
900.26	5406	
900.43	5406	
900.59	5406	
900.76	5406	
900.92	5406	
901.09	5406	
901.25	5406	
901.42	5406	
901.58	5406	
901.75	5406	
901.91	5406	
902.07	5406	
902.24	5406	
902.4	5406	
902.57	5406	
902.73	5406	
902.9	5406	
903.06	5406	
903.23	5406	
903.39	5406	
903.56	5406	
903.72	5406	
903.88	5406	
904.05	5406	
904.21	5406	
904.38	5406	
904.54	5406	
904.71	5406	
904.87	5406	
905.03	5406	
905.2	5406	
905.36	5406	
905.53	5406	
905.69	5406	
905.86	5406	
906.02	5406	
906.18	5406	
906.35	5406	
906.51	5406	
906.68	5406	
906.84	5406	
907.01	5406	
907.17	5406	
907.33	5406	
907.5	5406	
907.66	5406	
907.83	5406	
907.99	5406	
908.15	5406	
908.32	5406	
908.48	5406	
908.65	5406	
908.81	5406	
908.97	5406	
909.14	5406	
909.3	5406	
909.47	5406	
909.63	5406	
909.79	5406	
909.96	5406	
910.12	5406	
910.28	5406	
910.45	5406	
910.61	5406	
910.78	5406	
910.94	5406	
911.1	5406	
911.27	5406	
911.43	5406	
911.59	5406	
911.76	5406	
911.92	5406	
912.08	5406	
912.25	5406	
912.41	5406	
912.57	5406	
912.74	5406	
912.9	5406	
913.07	5406	
913.23	5406	
913.39	5406	
913.56	5406	
913.72	5406	
913.88	5406	
914.05	5406	
914.21	5406	
914.37	5406	
914.54	5406	
914.7	5406	
914.86	5406	
915.03	5406	
915.19	5406	
