Wavelength	Intensities	
nm	a.u.	
179.22	1869.1	
179.44	1874.6	
179.65	1863.7	
179.86	1885.5	
180.08	1859.6	
180.29	4692.6	
180.51	3410.6	
180.72	5542.5	
180.94	6452.5	
181.15	3159.3	
181.37	3090.4	
181.58	5436.7	
181.79	5621	
182.01	3297.9	
182.22	3495.2	
182.44	5577.3	
182.65	4747.9	
182.87	4445.5	
183.08	3852.9	
183.29	5879	
183.51	4874.2	
183.72	3543.7	
183.94	5100.8	
184.15	5326.8	
184.37	5324.7	
184.58	3123.2	
184.79	4210.6	
185.01	4936.3	
185.22	5624.4	
185.44	4464.6	
185.65	3759.4	
185.86	5152.7	
186.08	4834.6	
186.29	3080.8	
186.51	3299.3	
186.72	4948.6	
186.94	5825.8	
187.15	3744.4	
187.36	3880.9	
187.58	7496.9	
187.79	5405.3	
188.01	4087.7	
188.22	6262.7	
188.43	6504.3	
188.65	5617.6	
188.86	3233.1	
189.08	3902.1	
189.29	5041.4	
189.5	5081	
189.72	3614	
189.93	3657.7	
190.15	5791.7	
190.36	6898.2	
190.57	3931.4	
190.79	3823.6	
191	5846.3	
191.22	5827.2	
191.43	3988.8	
191.64	3240.6	
191.86	6086.6	
192.07	5853.8	
192.29	3403	
192.5	3581.2	
192.71	5855.1	
192.93	5063.3	
193.14	3545.7	
193.35	3674.1	
193.57	5003.9	
193.78	5765	
194	2921.1	
194.21	3517	
194.42	4934.9	
194.64	5279	
194.85	3839.3	
195.07	4586.8	
195.28	5375.2	
195.49	4642.1	
195.71	4814.1	
195.92	3325.9	
196.13	5535.7	
196.35	5519.3	
196.56	5110.4	
196.78	3863.8	
196.99	6835.4	
197.2	6447	
197.42	4468.7	
197.63	3957.4	
197.84	4766.3	
198.06	5478.3	
198.27	3652.9	
198.48	4786.8	
198.7	5023.7	
198.91	5189.6	
199.13	3919.8	
199.34	3936.9	
199.55	5715.9	
199.77	4624.3	
199.98	3453.6	
200.19	3986.7	
200.41	5173.9	
200.62	4932.9	
200.83	4097.3	
201.05	4372.4	
201.26	5171.1	
201.47	4971.1	
201.69	3540.3	
201.9	3370.3	
202.11	5292	
202.33	6249	
202.54	3717.7	
202.76	4117.8	
202.97	5446.2	
203.18	5367.7	
203.4	4088.4	
203.61	3962.1	
203.82	5390.3	
204.04	4941.7	
204.25	3941	
204.46	3920.5	
204.68	5239.4	
204.89	5479.7	
205.1	3842.7	
205.32	3353.9	
205.53	5625.8	
205.74	5781.4	
205.96	2829.6	
206.17	4038.6	
206.38	5646.9	
206.6	5771.9	
206.81	4465.3	
207.02	3679.5	
207.24	5507.7	
207.45	5941.2	
207.66	3761.4	
207.88	3198.9	
208.09	5487.2	
208.3	5286.5	
208.52	3443.3	
208.73	3792.8	
208.94	5255.1	
209.15	5966.4	
209.37	3727.3	
209.58	3931.4	
209.79	5791	
210.01	5062.6	
210.22	2926.5	
210.43	3108.1	
210.65	5291.3	
210.86	5724.1	
211.07	3770.3	
211.29	3399.6	
211.5	5629.2	
211.71	5175.2	
211.93	3451.5	
212.14	3426.9	
212.35	5195.7	
212.56	5472.2	
212.78	3947.8	
212.99	3280.8	
213.2	6179.4	
213.42	5081.7	
213.63	3496.6	
213.84	3812.6	
214.06	4659.1	
214.27	4792.9	
214.48	3695.2	
214.69	3979.2	
214.91	5929.6	
215.12	5959.6	
215.33	4005.8	
215.55	4433.2	
215.76	6448.4	
215.97	5592.3	
216.18	3829	
216.4	3817.4	
216.61	4953.4	
216.82	5755.5	
217.04	3478.8	
217.25	3570.3	
217.46	5898.8	
217.67	5679.7	
217.89	3106.8	
218.1	3175.7	
218.31	5373.2	
218.53	5431.9	
218.74	3591.5	
218.95	3487	
219.16	5236.7	
219.38	6143.2	
219.59	3543	
219.8	4172.4	
220.01	6768.5	
220.23	5357.5	
220.44	4620.9	
220.65	3387.3	
220.87	5404.6	
221.08	5875.6	
221.29	3191.4	
221.5	4266.6	
221.72	7116.7	
221.93	5067.4	
222.14	3962.1	
222.35	4648.9	
222.57	5334.3	
222.78	5620.3	
222.99	3778.5	
223.2	4028.4	
223.42	5597.1	
223.63	5715.2	
223.84	2867.8	
224.05	2877.4	
224.27	6738.5	
224.48	6122.1	
224.69	4685.1	
224.9	3906.8	
225.12	5507	
225.33	5243.5	
225.54	3143.6	
225.75	3507.5	
225.97	4862.6	
226.18	5169.1	
226.39	3827.7	
226.6	3544.4	
226.82	5074.2	
227.03	4965	
227.24	3873.4	
227.45	3229.6	
227.67	5630.5	
227.88	6187.6	
228.09	4449.6	
228.3	4422.9	
228.52	5717.2	
228.73	5275.6	
228.94	3666.5	
229.15	3229.6	
229.36	5236.7	
229.58	5164.3	
229.79	3700.7	
230	4266.6	
230.21	6305	
230.43	5343.8	
230.64	3966.9	
230.85	4061.1	
231.06	5692.7	
231.28	5688.6	
231.49	3233.1	
231.7	3768.3	
231.91	5530.2	
232.12	5329.5	
232.34	3332.7	
232.55	3749.8	
232.76	5924.8	
232.97	5451	
233.18	3479.5	
233.4	3846.1	
233.61	5453.1	
233.82	5063.3	
234.03	3632.4	
234.25	3593.5	
234.46	7316.7	
234.67	5353.4	
234.88	3980.6	
235.09	3521.1	
235.31	5597.8	
235.52	5144.5	
235.73	3968.3	
235.94	3306.8	
236.15	5036.6	
236.37	6418.3	
236.58	3441.3	
236.79	3777.8	
237	5585.5	
237.21	4774.5	
237.43	4098.7	
237.64	3193.5	
237.85	9503.3	
238.06	4827.1	
238.27	4155.3	
238.48	3314.3	
238.7	5586.9	
238.91	5168.4	
239.12	3725.3	
239.33	3762.1	
239.54	4915.8	
239.76	5236	
239.97	3681.6	
240.18	3769.6	
240.39	6602.7	
240.6	5595.7	
240.82	3902.7	
241.03	3193.5	
241.24	5234.6	
241.45	6109.1	
241.66	3373.7	
241.87	4045.4	
242.09	6018.3	
242.3	6390.3	
242.51	4115.1	
242.72	3776.5	
242.93	5773.9	
243.14	5249.6	
243.36	4409.3	
243.57	4652.3	
243.78	6135.7	
243.99	5670.1	
244.2	3871.3	
244.41	3417.4	
244.63	4877.6	
244.84	5621.7	
245.05	4051.6	
245.26	3760.1	
245.47	5598.5	
245.68	5756.2	
245.9	5051	
246.11	3958	
246.32	5175.2	
246.53	5543.2	
246.74	6137.1	
246.95	3156.6	
247.16	4806.6	
247.38	5303.6	
247.59	3132	
247.8	3766.2	
248.01	4965	
248.22	5212.1	
248.43	3411.9	
248.64	3702.7	
248.86	4742.4	
249.07	5044.8	
249.28	3315.7	
249.49	3885.7	
249.7	5821	
249.91	5957.5	
250.12	3115	
250.34	3186	
250.55	5399.1	
250.76	5278.3	
250.97	3915.7	
251.18	3956	
251.39	5933	
251.6	5459.9	
251.81	4000.4	
252.03	3957.4	
252.24	5040.7	
252.45	5748	
252.66	3263.8	
252.87	4098	
253.08	5295.4	
253.29	6963.8	
253.5	3332	
253.72	4589.5	
253.93	5174.5	
254.14	6234.7	
254.35	3575.8	
254.56	3725.9	
254.77	5586.9	
254.98	4943.8	
255.19	3534.1	
255.41	4517.8	
255.62	5407.3	
255.83	5949.3	
256.04	4046.8	
256.25	3919.1	
256.46	6457.9	
256.67	4984.1	
256.88	3921.9	
257.09	4284.4	
257.31	5007.3	
257.52	4949.9	
257.73	4885.1	
257.94	3520.5	
258.15	5168.4	
258.36	5304.9	
258.57	4580.6	
258.78	2872.6	
258.99	5728.2	
259.2	5086.5	
259.41	3583.3	
259.63	3735.5	
259.84	6077.7	
260.05	6510.5	
260.26	4790.2	
260.47	3466.5	
260.68	5931.6	
260.89	5217.5	
261.1	4349.2	
261.31	3409.2	
261.52	5883.8	
261.73	6231.3	
261.95	4636.6	
262.16	4027.7	
262.37	5976.7	
262.58	6009.4	
262.79	4629.1	
263	3676.8	
263.21	5305.6	
263.42	5132.2	
263.63	3698.6	
263.84	3663.8	
264.05	5806.7	
264.26	6204	
264.47	4497.3	
264.69	4015.4	
264.9	5934.3	
265.11	5504.3	
265.32	3477.5	
265.53	3588.7	
265.74	5442.8	
265.95	4734.2	
266.16	3818.1	
266.37	4266.6	
266.58	5386.2	
266.79	5173.9	
267	3556	
267.21	3272	
267.42	4916.5	
267.63	5293.3	
267.84	3745.7	
268.06	3202.3	
268.27	5665.4	
268.48	5997.8	
268.69	3699.3	
268.9	4367.6	
269.11	5957.5	
269.32	4775.2	
269.53	3802.4	
269.74	3537.5	
269.95	5596.4	
270.16	4693.3	
270.37	3765.5	
270.58	4321.2	
270.79	5145.9	
271	5788.2	
271.21	4045.4	
271.42	3786.7	
271.63	5426.4	
271.84	4891.9	
272.05	3052.8	
272.26	3418.1	
272.47	5295.4	
272.68	5486.5	
272.89	3592.8	
273.11	4217.5	
273.32	5068.7	
273.53	6171.2	
273.74	4059.8	
273.95	3996.3	
274.16	5879	
274.37	5386.8	
274.58	4117.1	
274.79	3317.7	
275	5372.5	
275.21	5980.1	
275.42	4977.9	
275.63	4184	
275.84	5593.7	
276.05	6914.6	
276.26	3923.2	
276.47	3706.8	
276.68	5156.1	
276.89	6275.7	
277.1	4270	
277.31	3281.5	
277.52	5548.6	
277.73	5763.7	
277.94	3277.4	
278.15	3636.5	
278.36	5473.5	
278.57	5008	
278.78	3640.6	
278.99	4005.1	
279.2	4997	
279.41	4865.3	
279.62	4696.7	
279.83	3367.5	
280.04	6457.2	
280.25	4923.3	
280.46	4706.2	
280.67	3751.9	
280.88	4939.7	
281.09	5924.8	
281.3	3960.8	
281.51	4962.9	
281.72	5034.6	
281.93	5834	
282.14	3502.7	
282.35	3751.2	
282.56	5778	
282.77	5760.3	
282.98	3672.7	
283.19	4471.4	
283.4	7117.4	
283.61	5266.7	
283.82	3379.1	
284.03	4675.5	
284.24	5408.7	
284.45	5896.8	
284.66	4688.5	
284.87	4462.5	
285.08	5801.9	
285.29	5996.5	
285.5	3197.6	
285.71	3678.8	
285.92	5852.4	
286.12	6609.5	
286.33	4588.1	
286.54	3678.2	
286.75	5772.5	
286.96	5162.9	
287.17	3409.9	
287.38	4552	
287.59	4917.9	
287.8	4925.4	
288.01	3678.8	
288.22	4265.9	
288.43	5800.5	
288.64	4869.4	
288.85	4365.6	
289.06	4174.4	
289.27	5702.9	
289.48	6155.5	
289.69	4719.9	
289.9	4261.8	
290.11	5911.1	
290.32	5061.2	
290.53	4417.5	
290.74	4094.6	
290.94	5715.2	
291.15	5737.7	
291.36	3582.6	
291.57	4240	
291.78	5102.9	
291.99	4685.8	
292.2	3446.7	
292.41	4060.4	
292.62	5881.8	
292.83	5671.5	
293.04	4991.6	
293.25	3405.1	
293.46	5067.4	
293.67	5907	
293.88	3528.7	
294.09	3415.3	
294.29	4903.5	
294.5	5442.8	
294.71	3791.5	
294.92	3619.4	
295.13	5080.3	
295.34	6347.3	
295.55	3209.2	
295.76	3429.7	
295.97	5689.3	
296.18	6436.1	
296.39	3340.9	
296.6	3558.7	
296.81	5399.8	
297.01	5763.7	
297.22	3669.3	
297.43	3505.4	
297.64	5026.4	
297.85	4941.7	
298.06	2908.1	
298.27	3201.7	
298.48	5309	
298.69	5021.6	
298.9	3803.1	
299.11	3485.6	
299.31	4897.4	
299.52	4893.3	
299.73	4088.4	
299.94	4057.7	
300.15	5274.2	
300.36	4913.8	
300.57	3992.9	
300.78	4074.8	
300.99	5169.8	
301.2	5397.8	
301.4	3488.4	
301.61	3855	
301.82	5656.5	
302.03	5706.3	
302.24	4317.8	
302.45	3344.3	
302.66	5644.2	
302.87	6047.7	
303.08	3538.9	
303.29	4776.5	
303.49	5068.7	
303.7	5365.7	
303.91	3154.6	
304.12	4633.2	
304.33	4819.6	
304.54	5418.9	
304.75	3560.1	
304.96	3362.1	
305.16	5584.8	
305.37	6298.2	
305.58	3102	
305.79	3237.2	
306	5632.6	
306.21	4715.1	
306.42	3579.8	
306.63	5383.4	
306.83	5173.9	
307.04	5846.3	
307.25	3882.3	
307.46	3850.2	
307.67	4518.5	
307.88	5677.7	
308.09	3433.1	
308.29	3632.4	
308.5	5424.4	
308.71	5867.4	
308.92	3784.6	
309.13	3422.2	
309.34	5180.7	
309.55	5238.7	
309.75	4348.5	
309.96	4044.7	
310.17	5692	
310.38	5007.3	
310.59	4242.7	
310.8	3332.7	
311.01	6391	
311.21	5180.7	
311.42	3388.7	
311.63	3508.2	
311.84	5087.2	
312.05	5442.1	
312.26	3919.8	
312.46	4283.7	
312.67	5150.6	
312.88	4851	
313.09	3390.1	
313.3	3304.1	
313.51	6097.5	
313.71	6389.7	
313.92	3422.8	
314.13	3567.6	
314.34	5577.3	
314.55	5242.1	
314.76	4444.8	
314.96	3815.4	
315.17	5464.7	
315.38	5838.8	
315.59	3397.6	
315.8	3290.4	
316.01	6108.4	
316.21	6193.7	
316.42	3282.2	
316.63	3833.1	
316.84	5099.4	
317.05	6009.4	
317.26	4100.7	
317.46	3593.5	
317.67	5279	
317.88	5704.3	
318.09	4375.1	
318.3	3190.1	
318.5	5077.6	
318.71	5593	
318.92	5551.4	
319.13	4057.7	
319.34	5810.1	
319.54	5894.1	
319.75	3225.6	
319.96	3035.8	
320.17	5688.6	
320.38	5859.9	
320.58	3140.9	
320.79	3731.4	
321	5888.6	
321.21	5972.6	
321.42	3804.4	
321.62	3171.6	
321.83	4915.1	
322.04	5352	
322.25	3620.1	
322.46	3418.1	
322.66	5422.3	
322.87	5597.8	
323.08	4227.7	
323.29	3388.7	
323.5	6360.3	
323.7	4876.2	
323.91	4676.9	
324.12	4163.5	
324.33	5343.2	
324.53	5639.4	
324.74	4027.7	
324.95	4238.6	
325.16	4729.4	
325.37	5126.1	
325.57	3409.9	
325.78	3523.2	
325.99	5382.1	
326.2	4804.5	
326.4	4848.2	
326.61	3211.2	
326.82	5268.7	
327.03	5414.1	
327.24	4887.8	
327.44	4543.1	
327.65	5580.7	
327.86	4541.7	
328.07	4029.7	
328.27	3299.3	
328.48	6025.8	
328.69	4840	
328.9	4901.5	
329.1	3685	
329.31	5156.8	
329.52	6121.4	
329.73	3427.6	
329.93	3929.4	
330.14	5368.4	
330.35	5573.9	
330.56	5602.6	
330.76	4257	
330.97	5189.6	
331.18	5502.9	
331.39	3839.9	
331.59	3041.2	
331.8	5917.9	
332.01	5970.5	
332.22	3560.7	
332.42	4009.2	
332.63	5407.3	
332.84	4967.7	
333.05	3866.6	
333.25	3453.6	
333.46	5120.6	
333.67	5304.2	
333.88	3646.1	
334.08	4096.6	
334.29	6961.7	
334.5	5896.8	
334.7	3353.9	
334.91	4870.8	
335.12	4838	
335.33	5720	
335.53	3792.8	
335.74	5595.7	
335.95	5003.9	
336.16	4937	
336.36	3764.8	
336.57	4365.6	
336.78	4827.7	
336.98	5866.7	
337.19	4691.2	
337.4	3781.2	
337.61	6374.6	
337.81	4879.6	
338.02	3534.8	
338.23	4525.3	
338.43	6065.4	
338.64	4939	
338.85	3446	
339.05	4515.8	
339.26	6132.3	
339.47	4783.4	
339.68	3423.5	
339.88	5127.4	
340.09	5479.7	
340.3	5844.2	
340.5	4016.7	
340.71	3080.1	
340.92	4801.8	
341.13	6019.7	
341.33	3307.5	
341.54	4017.4	
341.75	5521.3	
341.95	5124	
342.16	3798.3	
342.37	4195.6	
342.57	4866	
342.78	5279.7	
342.99	4313	
343.19	3093.1	
343.4	5678.3	
343.61	5529.5	
343.81	3670.6	
344.02	3385.3	
344.23	5713.2	
344.43	6133.7	
344.64	4296.6	
344.85	4199	
345.06	5633.3	
345.26	5853.1	
345.47	4012.7	
345.68	4668	
345.88	4704.9	
346.09	5794.4	
346.3	4098	
346.5	3076	
346.71	5307.7	
346.92	5055.1	
347.12	3153.2	
347.33	3960.8	
347.54	5845.6	
347.74	6247	
347.95	3915	
348.16	2951.1	
348.36	5086.5	
348.57	4969.7	
348.78	3882.9	
348.98	4195.6	
349.19	5210.7	
349.39	4794.3	
349.6	3145.7	
349.81	3515	
350.01	5532.9	
350.22	5000.5	
350.43	3847.5	
350.63	4565.6	
350.84	5354.8	
351.05	5125.4	
351.25	3474.7	
351.46	3152.5	
351.67	5808	
351.87	5046.9	
352.08	3706.8	
352.29	4265.9	
352.49	5753.4	
352.7	5449.6	
352.9	3376.4	
353.11	4134.8	
353.32	6347.3	
353.52	5103.5	
353.73	3330	
353.94	4209.9	
354.14	5612.8	
354.35	5407.3	
354.55	3405.8	
354.76	3824.2	
354.97	5592.3	
355.17	5308.3	
355.38	3262.4	
355.59	4579.9	
355.79	4974.5	
356	5438.7	
356.2	3809.9	
356.41	3316.3	
356.62	4765.6	
356.82	5214.8	
357.03	4078.2	
357.24	3586.7	
357.44	5053.7	
357.65	5075.5	
357.85	4835.3	
358.06	3803.8	
358.27	4772.4	
358.47	5029.8	
358.68	3220.1	
358.88	4024.9	
359.09	5564.3	
359.3	5911.8	
359.5	4692.6	
359.71	4157.4	
359.91	6305	
360.12	5698.8	
360.33	4045.4	
360.53	4496	
360.74	5031.9	
360.94	5046.9	
361.15	4222.9	
361.36	3491.1	
361.56	5784.1	
361.77	5205.3	
361.97	4666	
362.18	3708.9	
362.38	5774.6	
362.59	4909	
362.8	3400.3	
363	3250.8	
363.21	4650.9	
363.41	5367.7	
363.62	4003.8	
363.83	4941.7	
364.03	5445.5	
364.24	6343.2	
364.44	5001.1	
364.65	5049.6	
364.85	5236	
365.06	4875.5	
365.27	3605.8	
365.47	3672.7	
365.68	6161.7	
365.88	5170.4	
366.09	4014	
366.29	3661.1	
366.5	5455.8	
366.71	5871.5	
366.91	4872.1	
367.12	4169	
367.32	6425.8	
367.53	5610.8	
367.73	4024.3	
367.94	5031.9	
368.14	5685.8	
368.35	6523.5	
368.56	4160.8	
368.76	3425.6	
368.97	5756.2	
369.17	7379.5	
369.38	3581.9	
369.58	3883.6	
369.79	4811.4	
369.99	6024.4	
370.2	4819.6	
370.4	3902.1	
370.61	5543.2	
370.82	6597.9	
371.02	3870	
371.23	3182.5	
371.43	4721.3	
371.64	6063.4	
371.84	3880.9	
372.05	5014.8	
372.25	7257.3	
372.46	5766.4	
372.66	3908.2	
372.87	3817.4	
373.07	5756.8	
373.28	7423.9	
373.48	4872.1	
373.69	4568.3	
373.9	5309	
374.1	5341.8	
374.31	4778.6	
374.51	4334.2	
374.72	6052.4	
374.92	5022.3	
375.13	4968.4	
375.33	4212	
375.54	5691.3	
375.74	5113.1	
375.95	4193.6	
376.15	5382.1	
376.36	5745.9	
376.56	5513.1	
376.77	4266.6	
376.97	4734.9	
377.18	6692.1	
377.38	5827.2	
377.59	5040.7	
377.79	3820.8	
378	5585.5	
378.2	6050.4	
378.41	3878.9	
378.61	3763.5	
378.82	6029.2	
379.02	5201.8	
379.23	4037.9	
379.43	5089.2	
379.64	6102.3	
379.84	5769.1	
380.05	3882.9	
380.25	3775.8	
380.46	5874.3	
380.66	5447.6	
380.87	5081	
381.07	5485.8	
381.28	6446.3	
381.48	5767.1	
381.69	3953.3	
381.89	3938.2	
382.1	4825	
382.3	5995.8	
382.51	4999.8	
382.71	5815.5	
382.91	5864.7	
383.12	6361.7	
383.32	4252.3	
383.53	4428.4	
383.73	5698.8	
383.94	5502.9	
384.14	4420.9	
384.35	3528	
384.55	5466	
384.76	5894.1	
384.96	4222.9	
385.17	4532.2	
385.37	5865.4	
385.58	5162.2	
385.78	4525.3	
385.98	3394.2	
386.19	5380	
386.39	5696.8	
386.6	3982.6	
386.8	4205.8	
387.01	5797.1	
387.21	5832.6	
387.42	4644.1	
387.62	5106.3	
387.83	5138.4	
388.03	5795.8	
388.23	4293.2	
388.44	5027.1	
388.64	4810.7	
388.85	5006.6	
389.05	4650.3	
389.26	5155.4	
389.46	6806.1	
389.67	6227.2	
389.87	4541	
390.07	4683.7	
390.28	5464.7	
390.48	5064.6	
390.69	3788.1	
390.89	4094.6	
391.1	5237.3	
391.3	6152.8	
391.5	5244.8	
391.71	5928.2	
391.91	5889.3	
392.12	6865.5	
392.32	5317.9	
392.53	4608.6	
392.73	5366.4	
392.93	5488.6	
393.14	4235.2	
393.34	5042.1	
393.55	5867.4	
393.75	5402.5	
393.95	4339	
394.16	4166.9	
394.36	5255.8	
394.57	5911.8	
394.77	3705.5	
394.98	4140.3	
395.18	5215.5	
395.38	5269.4	
395.59	4996.4	
395.79	3932.8	
396	5215.5	
396.2	5768.4	
396.4	4797	
396.61	4689.8	
396.81	5924.1	
397.02	5247.6	
397.22	5052.3	
397.42	5051	
397.63	5943.2	
397.83	5162.2	
398.04	3931.4	
398.24	4479.6	
398.44	5769.1	
398.65	4846.9	
398.85	3801.7	
399.05	3932.8	
399.26	5227.8	
399.46	6842.9	
399.67	4274.8	
399.87	4018.1	
400.07	5520	
400.28	5864	
400.48	4113	
400.69	5094	
400.89	6100.2	
401.09	6485.2	
401.3	3917.1	
401.5	5091.9	
401.7	6723.5	
401.91	7004.1	
402.11	4313	
402.32	4529.4	
402.52	6121.4	
402.72	6044.2	
402.93	4761.5	
403.13	3644	
403.33	6864.8	
403.54	5637.4	
403.74	4462.5	
403.94	5322.7	
404.15	5709.1	
404.35	6736.5	
404.56	4215.4	
404.76	5907	
404.96	6034.7	
405.17	5789.6	
405.37	5687.9	
405.57	4650.3	
405.78	6054.5	
405.98	5544.5	
406.18	4177.9	
406.39	5130.8	
406.59	6134.3	
406.79	5668.1	
407	3963.5	
407.2	4136.2	
407.4	6154.1	
407.61	6249.7	
407.81	4085.7	
408.01	6298.9	
408.22	4990.2	
408.42	6892.8	
408.62	5082.4	
408.83	4580.6	
409.03	5685.2	
409.23	5445.5	
409.44	4653.7	
409.64	4956.1	
409.84	6505	
410.05	6464.1	
410.25	4774.5	
410.45	4569	
410.66	5890.6	
410.86	8251.9	
411.06	4925.4	
411.27	4819.6	
411.47	8004.8	
411.67	6100.2	
411.88	4990.2	
412.08	5328.8	
412.28	6700.3	
412.49	7119.4	
412.69	4790.2	
412.89	4845.5	
413.09	7060.7	
413.3	6845	
413.5	4924	
413.7	4515.1	
413.91	6141.2	
414.11	6950.8	
414.31	4767.7	
414.52	5119.2	
414.72	6651.1	
414.92	6530.3	
415.12	4712.4	
415.33	5266	
415.53	6862.7	
415.73	7098.3	
415.94	5607.3	
416.14	5059.8	
416.34	5942.5	
416.55	5567.7	
416.75	6217	
416.95	5722	
417.15	6813.6	
417.36	7501.7	
417.56	6376	
417.76	5521.3	
417.97	7218.4	
418.17	6898.2	
418.37	5061.2	
418.57	5105.6	
418.78	6756.2	
418.98	6393.1	
419.18	5968.5	
419.38	5898.8	
419.59	6374.6	
419.79	6070.2	
419.99	4973.2	
420.2	5353.4	
420.4	6922.8	
420.6	7078.5	
420.8	4859.8	
421.01	4699.4	
421.21	6599.2	
421.41	6854.6	
421.61	5263.3	
421.82	4938.3	
422.02	6230.6	
422.22	7195.9	
422.42	5766.4	
422.63	5458.5	
422.83	6318.7	
423.03	7492.2	
423.23	5480.4	
423.44	4391.5	
423.64	6385.6	
423.84	6172.6	
424.04	4907.6	
424.25	4585.4	
424.45	7294.2	
424.65	7183.6	
424.85	4375.1	
425.06	4930.8	
425.26	7286	
425.46	5816.9	
425.66	5358.9	
425.87	5072.8	
426.07	7016.3	
426.27	6881.2	
426.47	5250.3	
426.67	4574.5	
426.88	7373.4	
427.08	6808.1	
427.28	5425.8	
427.48	4551.3	
427.69	5727.5	
427.89	6429.3	
428.09	5352	
428.29	4590.2	
428.5	7036.1	
428.7	6651.8	
428.9	4430.4	
429.1	4949.9	
429.3	6457.9	
429.51	6862.1	
429.71	4750.6	
429.91	5513.1	
430.11	6735.1	
430.31	7266.2	
430.52	5025.7	
430.72	5298.8	
430.92	7382.2	
431.12	6802	
431.32	4660.5	
431.53	5095.3	
431.73	5709.7	
431.93	7454.6	
432.13	4573.8	
432.33	4486.4	
432.54	6150.7	
432.74	6594.5	
432.94	4433.2	
433.14	5460.6	
433.34	6691.4	
433.55	6174.6	
433.75	5394.3	
433.95	7029.3	
434.15	6466.1	
434.35	6156.2	
434.56	4596.3	
434.76	4061.8	
434.96	6445.6	
435.16	6644.3	
435.36	4455	
435.56	5524.7	
435.77	6068.8	
435.97	6229.2	
436.17	6218.3	
436.37	5465.3	
436.57	6055.8	
436.78	5956.2	
436.98	7214.3	
437.18	6033.3	
437.38	6650.4	
437.58	6294.1	
437.78	6208.1	
437.99	4896	
438.19	6737.8	
438.39	7619.8	
438.59	4904.2	
438.79	4341.7	
438.99	7405.5	
439.2	6261.3	
439.4	4468	
439.6	4375.1	
439.8	6538.5	
440	7585	
440.2	5355.4	
440.4	5455.1	
440.61	6854.6	
440.81	7423.9	
441.01	4502.1	
441.21	5369.8	
441.41	7226.6	
441.61	6910.5	
441.81	5765.7	
442.02	6738.5	
442.22	7696.3	
442.42	7002.7	
442.62	4648.2	
442.82	4713.1	
443.02	7269.6	
443.22	6412.9	
443.43	5076.9	
443.63	4541	
443.83	6184.2	
444.03	6204.7	
444.23	5781.4	
444.43	5381.4	
444.63	6472.3	
444.83	7675.8	
445.04	4732.9	
445.24	5959.6	
445.44	6911.2	
445.64	7014.3	
445.84	5469.4	
446.04	5580	
446.24	6350.8	
446.44	7286	
446.65	4786.1	
446.85	5116.5	
447.05	6653.2	
447.25	7255.3	
447.45	5130.2	
447.65	4539	
447.85	6579.4	
448.05	6247	
448.25	5541.1	
448.46	5345.9	
448.66	6612.9	
448.86	6348	
449.06	4453.6	
449.26	5556.1	
449.46	6924.9	
449.66	5951.4	
449.86	5020.9	
450.06	5005.2	
450.26	6171.9	
450.47	6697.5	
450.67	5367.7	
450.87	5666	
451.07	6759.7	
451.27	6524.8	
451.47	4680.3	
451.67	5179.3	
451.87	6232.7	
452.07	7406.8	
452.27	4866.7	
452.47	4823.6	
452.67	6526.2	
452.88	7006.8	
453.08	4231.1	
453.28	6172.6	
453.48	7728.4	
453.68	6499.6	
453.88	4737.6	
454.08	4972.5	
454.28	6911.9	
454.48	6512.5	
454.68	5441.5	
454.88	5889.3	
455.08	7005.4	
455.28	6664.1	
455.48	4536.9	
455.68	5159.5	
455.89	7379.5	
456.09	7024.5	
456.29	4896	
456.49	4926.7	
456.69	7170.6	
456.89	6799.3	
457.09	5483.1	
457.29	5754.8	
457.49	6834.8	
457.69	6963.1	
457.89	5177.9	
458.09	4599.1	
458.29	6474.3	
458.49	7228	
458.69	5594.4	
458.89	5001.1	
459.09	7468.3	
459.29	7585	
459.49	5161.6	
459.69	5836.7	
459.9	7034.8	
460.1	6552.1	
460.3	5112.4	
460.5	4832.5	
460.7	6972.7	
460.9	6650.4	
461.1	4519.9	
461.3	5654.4	
461.5	7589.1	
461.7	7165.2	
461.9	4853	
462.1	5302.2	
462.3	6684.6	
462.5	7217	
462.7	4961.5	
462.9	4902.2	
463.1	8149.6	
463.3	7853.3	
463.5	5094.7	
463.7	5980.8	
463.9	6797.2	
464.1	7177.4	
464.3	5208.7	
464.5	5458.5	
464.7	7441	
464.9	7055.3	
465.1	6737.8	
465.3	5819	
465.5	7789.8	
465.7	7685.3	
465.9	6038.1	
466.1	5928.2	
466.3	7447.8	
466.5	7306.5	
466.7	6690	
466.9	5567.1	
467.1	7309.9	
467.3	8179.6	
467.5	6578.8	
467.7	5481.7	
467.9	8329.8	
468.1	9236.3	
468.3	6310.5	
468.5	6642.2	
468.7	7247.1	
468.9	7223.9	
469.1	5800.5	
469.3	6452.5	
469.5	9085.5	
469.7	6807.4	
469.9	6337.8	
470.1	5553.4	
470.3	7277.8	
470.5	7301.7	
470.7	6808.1	
470.9	5580	
471.1	7032	
471.3	7485.3	
471.5	5380.7	
471.69	7337.2	
471.89	6939.9	
472.09	6438.1	
472.29	6246.3	
472.49	6612.9	
472.69	6705	
472.89	7526.3	
473.09	5348.6	
473.29	5569.8	
473.49	6846.4	
473.69	7014.3	
473.89	6395.8	
474.09	5718.6	
474.29	8247.2	
474.49	7935.2	
474.69	6461.3	
474.89	5771.9	
475.09	6946	
475.29	6933.7	
475.49	5246.9	
475.69	5453.1	
475.88	8526.4	
476.08	7285.3	
476.28	5170.4	
476.48	5640.8	
476.68	7742	
476.88	7605.5	
477.08	5533.6	
477.28	5814.9	
477.48	7111.9	
477.68	7780.2	
477.88	5243.5	
478.08	5670.1	
478.28	8099.7	
478.48	7215	
478.67	5695.4	
478.87	5148.6	
479.07	7869.7	
479.27	7219.1	
479.47	5877	
479.67	5905	
479.87	7670.3	
480.07	8194.6	
480.27	5137	
480.47	6688	
480.67	7372	
480.87	7919.5	
481.06	5402.5	
481.26	6199.9	
481.46	7230	
481.66	7281.2	
481.86	5778	
482.06	6854.6	
482.26	6924.9	
482.46	7940	
482.66	5781.4	
482.86	5422.3	
483.05	7342	
483.25	6760.3	
483.45	8165.9	
483.65	5824.4	
483.85	6863.4	
484.05	7211.6	
484.25	6221	
484.45	6627.2	
484.65	8043.7	
484.84	8068.3	
485.04	5671.5	
485.24	5639.4	
485.44	8250.6	
485.64	6593.8	
485.84	4995.7	
486.04	6333	
486.24	7034.1	
486.44	7344.7	
486.63	4949.3	
486.83	5721.3	
487.03	6840.2	
487.23	7049.8	
487.43	5005.2	
487.63	7325.6	
487.83	7097.6	
488.02	8066.9	
488.22	5914.5	
488.42	6513.9	
488.62	7982.3	
488.82	6888	
489.02	5648.3	
489.22	5591	
489.41	7779.6	
489.61	7471.7	
489.81	5378.6	
490.01	5358.9	
490.21	7809.6	
490.41	8434.9	
490.61	5343.8	
490.8	5537.7	
491	7283.3	
491.2	6639.5	
491.4	6100.2	
491.6	5233.2	
491.8	7225.2	
491.99	7397.9	
492.19	5098.1	
492.39	5421.7	
492.59	7780.2	
492.79	7734.5	
492.99	6203.3	
493.18	5354.1	
493.38	7769.3	
493.58	8473.1	
493.78	5961.6	
493.98	5616.2	
494.18	7490.8	
494.37	6931.7	
494.57	6160.3	
494.77	6006	
494.97	7675.1	
495.17	7896.3	
495.37	5593	
495.56	5932.3	
495.76	8043.1	
495.96	7690.1	
496.16	6729.6	
496.36	5737	
496.55	7869	
496.75	7413.6	
496.95	6197.2	
497.15	5966.4	
497.35	7920.9	
497.54	7851.9	
497.74	5823.7	
497.94	7475.8	
498.14	8566	
498.34	8368.7	
498.53	5401.9	
498.73	6200.6	
498.93	7223.9	
499.13	7755	
499.33	6072.2	
499.52	6571.9	
499.72	7752.2	
499.92	8144.8	
500.12	5713.2	
500.32	5988.9	
500.51	8065.6	
500.71	7834.8	
500.91	6785.6	
501.11	6442.9	
501.31	7883.3	
501.5	8426	
501.7	7027.3	
501.9	6025.1	
502.1	7775.5	
502.29	8067.6	
502.49	6462.7	
502.69	6924.2	
502.89	7992.5	
503.09	7970	
503.28	5573.2	
503.48	5742.5	
503.68	7280.5	
503.88	7172.7	
504.07	6645	
504.27	6116.6	
504.47	7669	
504.67	7794.6	
504.86	6578.8	
505.06	6294.8	
505.26	7339.9	
505.46	9038.4	
505.65	6150.7	
505.85	6332.3	
506.05	7309.2	
506.25	7819.8	
506.44	5601.2	
506.64	6524.8	
506.84	7268.2	
507.04	8196.7	
507.23	5766.4	
507.43	6313.2	
507.63	9138.7	
507.83	7505.8	
508.02	6298.9	
508.22	5906.3	
508.42	9373.6	
508.62	7365.2	
508.81	6464.8	
509.01	6696.2	
509.21	7167.2	
509.4	7415.7	
509.6	6344.6	
509.8	5790.3	
510	7381.6	
510.19	8793.3	
510.39	5726.8	
510.59	5784.8	
510.79	7216.4	
510.98	8539.3	
511.18	5846.3	
511.38	6094.1	
511.57	8041	
511.77	7911.3	
511.97	6614.3	
512.17	5634	
512.36	7948.8	
512.56	7983.7	
512.76	5757.5	
512.95	5468.1	
513.15	8150.9	
513.35	6765.1	
513.55	6504.3	
513.74	5769.8	
513.94	8149.6	
514.14	7432.8	
514.33	6660	
514.53	6437.4	
514.73	7404.8	
514.92	7522.2	
515.12	5878.4	
515.32	5720.7	
515.51	7640.3	
515.71	8270.4	
515.91	7250.5	
516.11	5745.9	
516.3	9260.9	
516.5	7257.3	
516.7	6293.4	
516.89	6901	
517.09	7527	
517.29	7325.6	
517.48	6595.1	
517.68	6023.1	
517.88	7152.2	
518.07	7714	
518.27	6476.4	
518.47	5567.7	
518.66	8246.5	
518.86	6929.6	
519.06	5412.1	
519.25	5832.6	
519.45	7337.9	
519.65	8665.6	
519.84	6444.3	
520.04	7088	
520.24	8994	
520.43	7881.9	
520.63	6186.9	
520.83	6020.3	
521.02	7184.3	
521.22	7899.7	
521.42	6553.5	
521.61	6981.5	
521.81	7413.6	
522.01	7614.3	
522.2	6325.5	
522.4	6128.9	
522.6	8005.5	
522.79	6793.1	
522.99	6186.2	
523.18	5489.2	
523.38	7660.8	
523.58	7695.6	
523.77	7337.2	
523.97	5439.4	
524.17	9420.7	
524.36	8561.9	
524.56	6724.2	
524.76	6347.3	
524.95	7659.4	
525.15	7320.8	
525.34	6184.2	
525.54	6198.5	
525.74	7968	
525.93	7009.5	
526.13	7255.3	
526.33	6126.2	
526.52	8303.1	
526.72	7793.2	
526.91	7259.4	
527.11	6526.2	
527.31	8332.5	
527.5	8703.2	
527.7	6475.7	
527.89	5483.8	
528.09	7215	
528.29	7718.8	
528.48	6896.9	
528.68	6555.5	
528.87	8131.1	
529.07	8226	
529.27	6443.6	
529.46	6028.5	
529.66	7877.2	
529.85	8224	
530.05	5845.6	
530.25	6573.3	
530.44	9239.1	
530.64	7825.3	
530.83	6257.2	
531.03	6483.2	
531.23	8203.5	
531.42	8055.3	
531.62	7148.1	
531.81	6317.3	
532.01	8204.8	
532.21	8718.9	
532.4	6092	
532.6	6395.1	
532.79	8981	
532.99	8190.5	
533.18	6474.3	
533.38	7468.3	
533.58	7854.6	
533.77	8597.4	
533.97	6331.6	
534.16	7187	
534.36	8703.2	
534.55	7902.4	
534.75	7283.3	
534.95	6388.3	
535.14	8611.7	
535.34	7914.7	
535.53	6196.5	
535.73	7995.3	
535.92	9144.2	
536.12	8045.1	
536.31	6318	
536.51	7374.1	
536.71	8321.6	
536.9	7896.3	
537.1	6371.9	
537.29	6558.3	
537.49	8762.6	
537.68	7822.6	
537.88	6869.6	
538.07	6124.1	
538.27	8015.7	
538.46	9045.9	
538.66	6032	
538.86	6489.3	
539.05	8082	
539.25	8458.1	
539.44	6767.9	
539.64	6298.9	
539.83	7903.8	
540.03	8988.5	
540.22	6328.9	
540.42	6357.6	
540.61	8167.3	
540.81	8226.7	
541	6941.9	
541.2	7459.4	
541.39	7776.1	
541.59	8084	
541.78	7152.2	
541.98	6297.5	
542.18	7440.3	
542.37	7417.7	
542.57	6709.8	
542.76	7152.9	
542.96	7531.7	
543.15	8307.2	
543.35	6770.6	
543.54	6110.5	
543.74	8537.3	
543.93	8126.3	
544.13	6745.3	
544.32	7737.9	
544.52	8462.9	
544.71	7719.5	
544.91	5794.4	
545.1	7069.6	
545.3	7778.2	
545.49	8411	
545.69	5886.5	
545.88	6359.6	
546.08	9287.5	
546.27	8874.5	
546.47	6924.2	
546.66	6239.5	
546.86	8685.4	
547.05	9129.8	
547.24	6419	
547.44	6327.5	
547.63	7548.1	
547.83	8708	
548.02	6664.8	
548.22	6860.7	
548.41	7459.4	
548.61	8700.5	
548.8	6289.3	
549	6196.5	
549.19	8086.1	
549.39	8374.8	
549.58	6064.7	
549.78	6571.2	
549.97	8409	
550.17	7936.6	
550.36	7360.4	
550.55	8363.2	
550.75	7915.4	
550.94	8844.5	
551.14	6177.4	
551.33	6606.7	
551.53	7336.5	
551.72	8237.6	
551.92	6617.7	
552.11	6336.4	
552.31	8324.3	
552.5	8388.5	
552.69	7990.5	
552.89	5998.5	
553.08	8300.4	
553.28	8032.8	
553.47	6366.5	
553.67	7414.3	
553.86	8968.7	
554.06	7329	
554.25	5538.4	
554.44	6145.3	
554.64	9671.2	
554.83	9228.1	
555.03	6115.2	
555.22	6472.3	
555.42	8452.6	
555.61	8236.2	
555.8	6333	
556	6662.7	
556.19	7330.4	
556.39	8665.6	
556.58	6382.2	
556.78	6323.4	
556.97	8088.8	
557.16	7787.1	
557.36	7594.6	
557.55	5986.2	
557.75	7120.8	
557.94	8816.5	
558.13	6111.8	
558.33	5924.1	
558.52	8675.2	
558.72	7602.7	
558.91	6021	
559.1	6271.6	
559.3	7272.3	
559.49	7014.3	
559.69	5666.7	
559.88	6618.4	
560.07	8092.2	
560.27	8505.9	
560.46	6790.4	
560.66	6926.9	
560.85	7879.9	
561.04	7103	
561.24	6014.9	
561.43	6255.9	
561.63	7434.8	
561.82	7675.1	
562.01	7489.4	
562.21	6488.6	
562.4	8075.8	
562.59	8959.9	
562.79	6328.9	
562.98	6080.4	
563.18	7995.3	
563.37	9337.4	
563.56	6855.9	
563.76	5953.4	
563.95	7438.9	
564.14	7332.4	
564.34	6286.6	
564.53	6067.4	
564.73	7954.3	
564.92	8295.6	
565.11	6520.7	
565.31	5866.1	
565.5	8596.7	
565.69	7422.5	
565.89	6101.6	
566.08	6344.6	
566.27	8385.7	
566.47	8804.2	
566.66	6922.8	
566.85	5738.4	
567.05	8049.2	
567.24	7421.2	
567.44	5978.7	
567.63	7356.3	
567.82	8267	
568.02	7956.4	
568.21	6003.3	
568.4	6380.1	
568.6	7838.9	
568.79	7855.3	
568.98	5795.8	
569.18	5946.6	
569.37	7757	
569.56	9736	
569.76	6337.1	
569.95	7256.6	
570.14	8294.3	
570.34	8168	
570.53	5943.9	
570.72	5946.6	
570.91	8594.6	
571.11	7772.7	
571.3	6329.6	
571.49	7355.6	
571.69	7860.8	
571.88	7479.2	
572.07	6954.2	
572.27	6848.4	
572.46	7411.6	
572.65	8528.4	
572.85	6126.8	
573.04	6509.8	
573.23	8617.2	
573.43	7982.3	
573.62	5904.3	
573.81	6552.8	
574	7901.1	
574.2	7779.6	
574.39	6233.3	
574.58	6450.4	
574.78	8749.6	
574.97	8116.1	
575.16	6763.8	
575.36	6899.6	
575.55	8386.4	
575.74	8610.3	
575.93	5925.5	
576.13	6852.5	
576.32	7823.9	
576.51	8374.8	
576.71	6351.4	
576.9	7593.9	
577.09	8796.7	
577.28	8148.9	
577.48	6732.4	
577.67	5809.4	
577.86	7779.6	
578.05	8126.3	
578.25	6457.9	
578.44	6531	
578.63	8003.5	
578.83	9077.3	
579.02	5844.9	
579.21	7356.3	
579.4	8155.7	
579.6	7836.2	
579.79	6637.5	
579.98	8716.8	
580.17	8512.7	
580.37	8597.4	
580.56	6136.4	
580.75	6750.8	
580.94	9019.3	
581.14	8817.9	
581.33	7174	
581.52	6215.6	
581.71	8377.6	
581.91	9024.7	
582.1	5886.5	
582.29	6534.4	
582.48	7991.9	
582.68	7875.8	
582.87	6999.3	
583.06	6593.8	
583.25	8294.3	
583.45	7715.4	
583.64	7198.6	
583.83	7914	
584.02	7757.7	
584.21	8224	
584.41	7224.6	
584.6	6578.1	
584.79	8073.1	
584.98	8784.4	
585.18	5948.7	
585.37	6071.5	
585.56	7510.6	
585.75	8314.8	
585.94	6233.3	
586.14	6891.4	
586.33	8957.8	
586.52	8069.7	
586.71	6730.3	
586.91	6513.2	
587.1	7428	
587.29	8466.3	
587.48	6517.3	
587.67	6356.9	
587.87	8354.3	
588.06	8363.2	
588.25	7617.1	
588.44	6981.5	
588.63	8023.3	
588.83	8626	
589.02	6525.5	
589.21	6384.9	
589.4	7899	
589.59	7797.3	
589.78	5708.4	
589.98	5963.7	
590.17	7449.8	
590.36	8017.1	
590.55	5457.8	
590.74	6316.6	
590.94	9273.9	
591.13	7927	
591.32	6047	
591.51	5608.7	
591.7	8247.9	
591.89	7850.5	
592.09	5627.8	
592.28	6143.2	
592.47	7040.9	
592.66	8861.6	
592.85	5614.8	
593.05	5876.3	
593.24	7651.9	
593.43	8441	
593.62	5852.4	
593.81	6440.2	
594	7688.1	
594.19	7866.9	
594.39	5823.1	
594.58	5831.2	
594.77	8006.9	
594.96	8590.5	
595.15	5776.6	
595.34	6410.8	
595.54	8116.1	
595.73	7219.1	
595.92	5231.2	
596.11	6316.6	
596.3	8591.2	
596.49	7275.8	
596.68	6086.6	
596.88	6564.4	
597.07	8301.8	
597.26	7141.3	
597.45	5578.7	
597.64	6815.6	
597.83	7324.2	
598.02	7967.3	
598.22	5677.7	
598.41	6317.3	
598.6	7830.1	
598.79	7165.8	
598.98	5728.9	
599.17	6704.4	
599.36	7770.7	
599.55	8877.3	
599.74	7649.2	
599.94	7503.8	
600.13	8355.7	
600.32	7144	
600.51	5496.1	
600.7	5569.8	
600.89	8860.2	
601.08	9009	
601.27	5429.2	
601.47	6434	
601.66	8145.5	
601.85	8856.8	
602.04	6025.8	
602.23	6266.8	
602.42	7344	
602.61	8041.7	
602.8	6010.1	
602.99	5761.6	
603.18	7669.6	
603.37	7852.6	
603.57	6346	
603.76	6974.7	
603.95	8580.3	
604.14	8152.3	
604.33	5892.7	
604.52	6136.4	
604.71	7783.6	
604.9	7428.7	
605.09	7051.8	
605.28	6612.9	
605.47	8353	
605.66	8074.5	
605.86	6462	
606.05	5886.5	
606.24	8471.1	
606.43	6996.5	
606.62	6195.1	
606.81	6913.3	
607	8327	
607.19	7577.5	
607.38	5630.5	
607.57	5891.3	
607.76	7392.5	
607.95	6835.4	
608.14	6266.1	
608.33	6855.2	
608.52	7380.9	
608.72	8245.8	
608.91	5614.8	
609.1	5457.8	
609.29	7496.2	
609.48	7057.3	
609.67	6455.2	
609.86	5506.3	
610.05	7161.7	
610.24	7429.3	
610.43	5402.5	
610.62	5093.3	
610.81	8557.1	
611	8319.5	
611.19	5561.6	
611.38	6277.7	
611.57	7720.8	
611.76	9019.3	
611.95	5373.9	
612.14	5226.4	
612.33	7537.2	
612.52	7101	
612.71	5941.2	
612.9	5098.1	
613.09	6747.4	
613.28	8888.9	
613.47	5696.8	
613.66	6562.4	
613.85	7610.9	
614.04	7211.6	
614.24	5703.6	
614.43	4965.6	
614.62	7767.3	
614.81	7762.5	
615	6326.2	
615.19	6266.1	
615.38	7131	
615.57	7467.6	
615.76	6190.3	
615.95	7080.5	
616.14	7859.4	
616.33	7441.6	
616.52	6441.5	
616.71	6548.7	
616.9	7881.9	
617.09	7613	
617.28	5780.7	
617.47	6926.9	
617.66	6920.1	
617.85	6886	
618.04	6619.7	
618.22	6106.4	
618.41	7281.9	
618.6	8051.9	
618.79	6045.6	
618.98	5724.1	
619.17	8426.7	
619.36	6857.3	
619.55	5870.8	
619.74	5847.6	
619.93	7724.9	
620.12	7135.1	
620.31	6552.1	
620.5	6645	
620.69	8251.9	
620.88	8712.1	
621.07	7314	
621.26	6374	
621.45	7847.8	
621.64	7894.2	
621.83	6375.3	
622.02	5720	
622.21	7945.4	
622.4	7702.4	
622.59	6939.2	
622.78	6752.8	
622.97	7265.5	
623.16	8272.4	
623.35	6394.4	
623.54	5582.8	
623.72	7468.9	
623.91	7689.4	
624.1	6604	
624.29	5326.8	
624.48	8745.5	
624.67	7978.9	
624.86	6509.8	
625.05	5657.2	
625.24	8776.9	
625.43	7212.9	
625.62	8234.2	
625.81	5784.1	
626	8284	
626.19	7519.5	
626.38	6603.3	
626.56	6012.8	
626.75	7417.1	
626.94	8039	
627.13	6573.3	
627.32	5412.8	
627.51	8042.4	
627.7	9240.4	
627.89	5428.5	
628.08	6595.8	
628.27	7235.5	
628.46	7484	
628.65	5705	
628.83	5505.6	
629.02	8075.8	
629.21	7284.6	
629.4	6210.1	
629.59	6377.4	
629.78	7232.1	
629.97	8192.6	
630.16	6414.9	
630.35	5954.8	
630.54	8622.6	
630.72	8338.6	
630.91	5986.9	
631.1	6469.5	
631.29	7877.9	
631.48	7937.9	
631.67	6513.2	
631.86	6033.3	
632.05	7428.7	
632.24	7481.2	
632.42	5662	
632.61	6248.4	
632.8	7537.9	
632.99	7228	
633.18	6272.9	
633.37	6696.9	
633.56	7873.8	
633.75	7629.4	
633.93	6255.2	
634.12	5902.2	
634.31	8540.7	
634.5	8241	
634.69	5987.6	
634.88	6484.6	
635.07	7562.5	
635.25	8164.6	
635.44	7006.8	
635.63	7176.1	
635.82	7421.8	
636.01	7002	
636.2	6824.5	
636.39	6479.8	
636.57	8553	
636.76	8179.6	
636.95	5771.9	
637.14	7190.4	
637.33	7798.7	
637.52	8899.1	
637.7	5629.9	
637.89	6574	
638.08	7480.5	
638.27	8843.1	
638.46	6632	
638.65	7129.7	
638.83	8937.3	
639.02	7277.1	
639.21	6595.8	
639.4	7053.2	
639.59	7779.6	
639.78	7413.6	
639.96	5887.9	
640.15	5895.4	
640.34	7677.2	
640.53	7875.1	
640.72	5647.6	
640.91	5937.7	
641.09	7072.3	
641.28	8505.9	
641.47	5906.3	
641.66	6813.6	
641.85	7776.8	
642.03	8109.3	
642.22	6555.5	
642.41	6077	
642.6	7221.1	
642.79	6653.2	
642.97	5857.2	
643.16	6582.9	
643.35	7250.5	
643.54	7064.8	
643.73	5837.4	
643.91	6530.3	
644.1	6951.5	
644.29	7533.8	
644.48	5901.6	
644.67	5961.6	
644.85	7176.1	
645.04	7492.2	
645.23	5567.1	
645.42	5808.7	
645.6	7144.7	
645.79	8165.3	
645.98	5751.4	
646.17	4879.6	
646.36	6821.8	
646.54	7388.4	
646.73	6615.6	
646.92	5438.7	
647.11	7055.9	
647.29	8093.6	
647.48	5477.6	
647.67	5326.1	
647.86	8303.1	
648.05	8266.3	
648.23	5871.5	
648.42	7144.7	
648.61	7712.7	
648.8	7495.6	
648.98	5522	
649.17	5866.7	
649.36	7035.5	
649.55	6596.5	
649.73	5513.1	
649.92	6253.1	
650.11	6909.8	
650.3	7277.1	
650.48	5674.2	
650.67	5496.1	
650.86	7506.5	
651.05	6488.6	
651.23	5599.8	
651.42	5612.8	
651.61	6940.6	
651.79	7159	
651.98	5829.2	
652.17	5410.7	
652.36	7443.7	
652.54	6545.3	
652.73	5575.3	
652.92	5315.2	
653.11	7535.2	
653.29	7577.5	
653.48	4797	
653.67	5790.3	
653.85	7303.1	
654.04	8259.5	
654.23	5989.6	
654.42	5508.4	
654.6	6802.7	
654.79	7443	
654.98	5088.5	
655.16	5633.3	
655.35	6481.1	
655.54	6425.8	
655.73	5171.1	
655.91	5038.7	
656.1	7542.7	
656.29	6332.3	
656.47	4678.2	
656.66	6285.9	
656.85	6634.1	
657.03	6600.6	
657.22	5206.6	
657.41	5301.5	
657.59	6799.3	
657.78	6550.1	
657.97	4884.4	
658.16	5602.6	
658.34	7397.3	
658.53	7778.2	
658.72	6438.1	
658.9	6960.4	
659.09	6705	
659.28	6920.8	
659.46	5373.9	
659.65	5266	
659.84	6651.8	
660.02	7080.5	
660.21	5151.3	
660.4	5158.2	
660.58	7597.3	
660.77	6914.6	
660.96	5750.7	
661.14	4803.2	
661.33	8127	
661.52	7977.5	
661.7	4768.4	
661.89	8410.3	
662.08	6540.5	
662.26	6169.2	
662.45	5059.2	
662.64	5217.5	
662.82	7215.7	
663.01	6427.2	
663.2	5225.7	
663.38	5921.4	
663.57	7154.2	
663.75	7040.9	
663.94	5466	
664.13	6765.1	
664.31	6559	
664.5	7228.6	
664.69	5650.3	
664.87	6326.2	
665.06	6296.1	
665.25	7051.2	
665.43	6384.9	
665.62	6611.5	
665.8	7361.1	
665.99	6726.9	
666.18	5483.1	
666.36	5624.4	
666.55	7350.2	
666.74	7206.8	
666.92	5173.2	
667.11	6780.1	
667.29	6720.1	
667.48	7270.3	
667.67	6403.3	
667.85	5428.5	
668.04	6719.4	
668.22	6720.1	
668.41	5608	
668.6	5683.1	
668.78	6557.6	
668.97	6737.1	
669.15	5952.1	
669.34	4917.9	
669.53	6534.4	
669.71	6918	
669.9	5103.5	
670.08	5731.6	
670.27	6540.5	
670.46	7174	
670.64	5955.5	
670.83	6271.6	
671.01	6445.6	
671.2	7036.8	
671.38	5193	
671.57	5095.3	
671.76	7610.3	
671.94	8229.4	
672.13	5033.9	
672.31	6140.5	
672.5	7254.6	
672.69	6584.9	
672.87	5187.5	
673.06	5468.1	
673.24	7087.3	
673.43	6581.5	
673.61	5982.1	
673.8	5516.5	
673.98	7236.8	
674.17	7425.9	
674.36	6045.6	
674.54	5887.9	
674.73	6965.1	
674.91	7260	
675.1	5586.2	
675.28	5264.6	
675.47	6815.6	
675.65	7275.1	
675.84	5515.2	
676.03	5827.2	
676.21	6693.4	
676.4	6068.8	
676.58	6259.3	
676.77	5998.5	
676.95	8032.8	
677.14	6475.7	
677.32	5130.8	
677.51	4941.1	
677.69	7339.9	
677.88	6195.1	
678.06	5068.7	
678.25	5109.7	
678.44	6850.5	
678.62	6632	
678.81	4857.8	
678.99	5850.4	
679.18	7593.2	
679.36	7185	
679.55	5467.4	
679.73	6072.9	
679.92	7163.8	
680.1	6612.2	
680.29	6705	
680.47	5496.1	
680.66	6500.3	
680.84	7328.3	
681.03	4771.8	
681.21	5778.7	
681.4	6561	
681.58	6382.2	
681.77	5248.3	
681.95	5182	
682.14	7457.3	
682.32	7678.5	
682.51	6132.3	
682.69	4945.8	
682.88	6537.1	
683.06	7096.9	
683.25	5835.3	
683.43	6272.2	
683.62	6769.2	
683.8	7189.1	
683.99	6357.6	
684.17	5654.4	
684.36	8013.7	
684.54	6741.9	
684.73	4947.9	
684.91	5184.8	
685.1	7161.1	
685.28	6475	
685.46	5746.6	
685.65	5814.2	
685.83	7288.7	
686.02	6649.1	
686.2	5173.2	
686.39	5298.1	
686.57	6401.3	
686.76	7905.2	
686.94	5178.6	
687.13	5364.3	
687.31	7160.4	
687.5	6636.8	
687.68	4833.2	
687.86	6052.4	
688.05	8377.6	
688.23	6184.2	
688.42	6060.6	
688.6	5242.1	
688.79	6564.4	
688.97	6644.3	
689.16	5688.6	
689.34	4614.1	
689.52	7275.8	
689.71	7546.1	
689.89	5873.6	
690.08	5214.1	
690.26	6846.4	
690.45	6708.5	
690.63	6134.3	
690.81	5425.1	
691	6677.7	
691.18	6585.6	
691.37	5593.7	
691.55	7649.2	
691.74	6517.3	
691.92	8494.3	
692.1	5621.7	
692.29	4947.9	
692.47	6741.2	
692.66	6020.3	
692.84	5208	
693.02	5727.5	
693.21	6199.2	
693.39	6746	
693.58	5877.7	
693.76	5220.3	
693.94	7792.5	
694.13	7596.6	
694.31	5234.6	
694.5	6236.7	
694.68	6522.8	
694.86	6731	
695.05	5593	
695.23	5699.5	
695.42	7217.7	
695.6	9391.3	
695.78	6221.7	
695.97	5278.3	
696.15	7161.1	
696.34	6708.5	
696.52	5082.4	
696.7	5913.2	
696.89	6944.7	
697.07	6395.1	
697.25	5801.9	
697.44	7237.5	
697.62	6879.8	
697.81	7288.7	
697.99	5487.2	
698.17	6031.3	
698.36	6362.4	
698.54	7007.5	
698.72	5909.1	
698.91	4898.7	
699.09	6615.6	
699.28	6492.1	
699.46	5504.9	
699.64	5390.9	
699.83	6404.7	
700.01	7643	
700.19	6236.7	
700.38	4633.2	
700.56	7611.6	
700.74	6432.7	
700.93	4986.1	
701.11	5782.1	
701.29	6983.6	
701.48	8073.8	
701.66	5238	
701.84	5291.3	
702.03	6575.3	
702.21	7259.4	
702.39	4913.1	
702.58	5486.5	
702.76	7070.3	
702.94	7076.4	
703.13	4855.1	
703.31	7229.3	
703.49	6262.7	
703.68	7347.4	
703.86	4980.7	
704.04	6001.2	
704.23	6815	
704.41	7243	
704.59	5252.4	
704.78	6324.8	
704.96	7915.4	
705.14	7264.1	
705.33	5001.1	
705.51	5776.6	
705.69	6663.4	
705.87	7526.3	
706.06	6109.8	
706.24	4955.4	
706.42	6965.1	
706.61	7211.6	
706.79	6106.4	
706.97	4998.4	
707.16	6449.1	
707.34	7057.3	
707.52	6077.7	
707.7	5255.8	
707.89	6569.2	
708.07	6312.5	
708.25	6027.9	
708.44	6087.2	
708.62	6549.4	
708.8	7570	
708.98	6363	
709.17	5292	
709.35	6888.7	
709.53	6928.3	
709.72	4984.1	
709.9	5547.9	
710.08	7174.7	
710.26	7155.6	
710.45	6617	
710.63	5302.9	
710.81	6795.2	
710.99	6858	
711.18	5911.8	
711.36	5485.1	
711.54	6737.8	
711.72	7395.2	
711.91	5520.6	
712.09	4943.1	
712.27	6868.9	
712.45	7441.6	
712.64	5799.8	
712.82	4816.8	
713	6336.4	
713.18	6465.4	
713.37	4919.2	
713.55	6262.7	
713.73	7375.4	
713.91	6069.5	
714.1	5395.7	
714.28	4894.6	
714.46	7118.1	
714.64	6316.6	
714.83	4340.3	
715.01	5075.5	
715.19	6477.7	
715.37	5793	
715.55	4820.9	
715.74	5161.6	
715.92	7275.1	
716.1	5414.8	
716.28	6274.3	
716.47	5332.9	
716.65	6059.9	
716.83	6111.1	
717.01	5121.3	
717.19	5209.3	
717.38	8122.2	
717.56	5769.1	
717.74	5320.6	
717.92	4498	
718.1	6910.5	
718.29	6212.2	
718.47	4202.4	
718.65	4792.2	
718.83	6780.8	
719.01	6742.6	
719.2	4019.5	
719.38	5075.5	
719.56	6523.5	
719.74	8004.8	
719.92	4674.1	
720.11	5734.3	
720.29	6536.4	
720.47	5668.1	
720.65	4342.4	
720.83	5209.3	
721.02	6045.6	
721.2	5843.5	
721.38	5239.4	
721.56	4434.5	
721.74	5346.6	
721.92	5559.6	
722.11	5705.6	
722.29	5410.1	
722.47	6807.4	
722.65	5971.2	
722.83	4506.2	
723.01	5408.7	
723.2	6063.4	
723.38	6292	
723.56	3918.4	
723.74	5107.6	
723.92	5537.7	
724.1	6646.3	
724.29	4425.7	
724.47	5593.7	
724.65	5612.8	
724.83	5533.6	
725.01	4354	
725.19	5266.7	
725.37	5594.4	
725.56	5651.7	
725.74	4159.4	
725.92	4419.5	
726.1	5497.4	
726.28	5888.6	
726.46	4919.2	
726.64	4557.4	
726.83	5840.8	
727.01	6068.8	
727.19	4129.4	
727.37	4932.2	
727.55	6034	
727.73	6448.4	
727.91	4124.6	
728.09	4008.6	
728.28	6455.2	
728.46	7017.7	
728.64	5082.4	
728.82	4969.1	
729	7430	
729.18	6705	
729.36	4174.4	
729.54	6479.1	
729.72	7656	
729.91	6080.4	
730.09	6139.8	
730.27	4843.4	
730.45	5916.6	
730.63	6496.2	
730.81	5442.1	
730.99	4450.9	
731.17	7071	
731.35	5702.9	
731.53	4967	
731.71	4706.2	
731.9	6776.7	
732.08	7053.2	
732.26	4948.6	
732.44	4548.5	
732.62	7009.5	
732.8	6424.5	
732.98	5330.2	
733.16	4405.2	
733.34	6450.4	
733.52	5345.9	
733.7	4882.4	
733.88	5184.1	
734.07	6289.3	
734.25	6111.8	
734.43	4367	
734.61	5885.9	
734.79	7566.6	
734.97	5948.7	
735.15	4506.9	
735.33	4824.3	
735.51	6393.1	
735.69	5958.9	
735.87	5882.4	
736.05	5041.4	
736.23	6151.4	
736.41	5993	
736.59	4863.2	
736.77	4942.4	
736.95	6600.6	
737.13	6036.7	
737.32	4510.3	
737.5	4723.3	
737.68	7202.7	
737.86	5933	
738.04	4248.9	
738.22	6124.8	
738.4	5680.4	
738.58	6054.5	
738.76	4944.5	
738.94	3903.4	
739.12	5905	
739.3	5761.6	
739.48	5534.3	
739.66	5169.8	
739.84	6095.4	
740.02	6059.3	
740.2	3951.2	
740.38	4360.1	
740.56	6434	
740.74	5398.4	
740.92	4964.3	
741.1	4901.5	
741.28	5920.7	
741.46	5724.1	
741.64	4547.2	
741.82	5089.9	
742	5902.2	
742.18	5896.1	
742.36	4757.4	
742.54	4362.2	
742.72	6448.4	
742.9	5317.9	
743.08	5131.5	
743.26	4029	
743.44	6698.2	
743.62	6462.7	
743.8	5380.7	
743.98	4367.6	
744.16	6308.4	
744.34	5966.4	
744.52	5242.8	
744.7	5111	
744.88	6351.4	
745.06	5955.5	
745.24	5194.3	
745.42	5345.2	
745.6	6457.9	
745.78	6259.3	
745.96	4122.6	
746.14	4357.4	
746.32	7256	
746.5	6505.7	
746.68	4991.6	
746.86	4418.8	
747.03	6887.3	
747.21	5265.3	
747.39	4974.5	
747.57	4435.2	
747.75	6089.3	
747.93	6461.3	
748.11	4432.5	
748.29	4280.3	
748.47	7688.8	
748.65	5878.4	
748.83	5179.3	
749.01	4882.4	
749.19	6324.8	
749.37	5466	
749.55	4707.6	
749.73	4801.1	
749.91	5958.2	
750.09	5665.4	
750.26	4842.8	
750.44	4302.8	
750.62	6015.6	
750.8	5973.2	
750.98	4121.2	
751.16	4470	
751.34	6020.3	
751.52	5378.6	
751.7	5181.4	
751.88	4061.1	
752.06	6514.6	
752.24	6345.3	
752.42	4044.1	
752.59	4355.3	
752.77	5949.3	
752.95	7161.7	
753.13	5132.2	
753.31	4506.2	
753.49	5602.6	
753.67	6101.6	
753.85	4830.5	
754.03	4427	
754.21	6402.6	
754.38	6763.1	
754.56	4635.9	
754.74	3638.6	
754.92	5655.1	
755.1	6354.8	
755.28	3723.9	
755.46	3794.2	
755.64	7226.6	
755.82	7351.5	
755.99	4160.1	
756.17	4257.7	
756.35	4851.6	
756.53	6397.2	
756.71	3179.8	
756.89	4091.2	
757.07	5971.2	
757.25	5057.1	
757.42	4623.6	
757.6	5494.7	
757.78	6013.5	
757.96	5009.3	
758.14	4278.9	
758.32	3813.3	
758.5	4620.9	
758.67	5389.6	
758.85	4207.2	
759.03	4204.5	
759.21	5649.7	
759.39	5060.5	
759.57	3653.6	
759.75	4781.3	
759.92	6234.7	
760.1	5471.5	
760.28	5115.8	
760.46	5450.3	
760.64	5272.2	
760.82	5027.1	
760.99	5025	
761.17	4179.2	
761.35	6075	
761.53	5100.1	
761.71	4337.6	
761.89	4988.9	
762.06	5918.6	
762.24	5394.3	
762.42	4302.8	
762.6	4091.8	
762.78	5436	
762.96	6064	
763.13	4676.2	
763.31	4345.8	
763.49	6270.9	
763.67	5380	
763.85	5208	
764.02	5788.9	
764.2	6500.9	
764.38	5644.2	
764.56	4219.5	
764.74	5158.2	
764.91	6588.3	
765.09	5466.7	
765.27	3955.3	
765.45	3756	
765.63	6599.9	
765.8	6465.4	
765.98	3474	
766.16	3844	
766.34	5064.6	
766.52	4838	
766.69	4717.2	
766.87	3691.1	
767.05	5487.9	
767.23	6236.7	
767.41	4031.8	
767.58	4276.2	
767.76	6126.2	
767.94	6128.9	
768.12	4078.9	
768.29	4812	
768.47	5575.3	
768.65	6305	
768.83	3685.7	
769	4870.1	
769.18	5145.9	
769.36	5857.9	
769.54	4861.9	
769.72	3738.9	
769.89	6135.7	
770.07	6201.9	
770.25	4095.3	
770.43	5387.5	
770.6	6888	
770.78	7339.9	
770.96	4302.1	
771.14	4965.6	
771.31	5995.8	
771.49	5378.6	
771.67	3446.7	
771.85	3706.8	
772.02	4644.1	
772.2	5450.3	
772.38	4504.8	
772.55	3984.7	
772.73	5665.4	
772.91	5463.3	
773.09	4348.5	
773.26	4424.3	
773.44	5669.5	
773.62	5301.5	
773.8	3878.9	
773.97	3595.6	
774.15	5745.9	
774.33	5327.4	
774.5	3786.7	
774.68	4198.3	
774.86	5953.4	
775.04	5350	
775.21	3803.8	
775.39	3809.2	
775.57	5666.7	
775.74	6109.1	
775.92	3709.6	
776.1	3581.2	
776.27	5620.3	
776.45	6840.2	
776.63	3818.1	
776.81	3345	
776.98	5313.8	
777.16	6276.3	
777.34	4004.5	
777.51	4385.4	
777.69	5239.4	
777.87	5060.5	
778.04	4016.1	
778.22	4678.9	
778.4	5062.6	
778.57	5796.4	
778.75	3323.9	
778.93	3604.4	
779.1	4947.2	
779.28	4792.2	
779.46	3392.8	
779.64	3801.7	
779.81	5914.5	
779.99	6743.3	
780.17	4701.5	
780.34	4770.4	
780.52	5366.4	
780.69	5621.7	
780.87	4192.9	
781.05	3759.4	
781.22	5461.2	
781.4	5543.2	
781.58	3901.4	
781.75	3032.4	
781.93	5496.7	
782.11	4911	
782.28	4735.6	
782.46	3893.2	
782.64	4774.5	
782.81	5644.2	
782.99	4007.9	
783.17	3951.2	
783.34	5523.4	
783.52	4779.3	
783.69	4145.8	
783.87	4944.5	
784.05	4967.7	
784.22	4870.1	
784.4	4968.4	
784.58	4250.9	
784.75	5831.9	
784.93	4954.7	
785.1	3951.2	
785.28	4498	
785.46	5590.3	
785.63	4897.4	
785.81	3890.5	
785.99	3725.3	
786.16	5119.2	
786.34	5396.4	
786.51	3757.3	
786.69	4168.3	
786.87	4642.7	
787.04	5225.7	
787.22	3628.3	
787.39	4599.1	
787.57	4926	
787.75	5978.7	
787.92	4739	
788.1	4683	
788.27	4925.4	
788.45	4681	
788.63	4462.5	
788.8	3131.3	
788.98	5423	
789.15	4640.7	
789.33	3315	
789.5	3906.2	
789.68	5865.4	
789.86	5987.6	
790.03	4331.5	
790.21	3812.6	
790.38	5860.6	
790.56	5070.1	
790.73	3654.3	
790.91	3687.7	
791.09	4929.5	
791.26	5657.9	
791.44	3949.8	
791.61	3334.8	
791.79	4947.9	
791.96	5032.5	
792.14	3469.3	
792.32	3023.5	
792.49	4977.9	
792.67	5156.8	
792.84	3558	
793.02	3388	
793.19	5375.9	
793.37	6128.2	
793.54	3104	
793.72	3398.9	
793.89	6281.8	
794.07	4963.6	
794.25	4061.1	
794.42	3173.7	
794.6	6023.1	
794.77	5614.2	
794.95	4330.1	
795.12	3779.2	
795.3	4903.5	
795.47	5535	
795.65	4117.1	
795.82	3920.5	
796	4744.5	
796.17	6688.7	
796.35	3865.9	
796.52	4530.1	
796.7	5464	
796.87	5575.9	
797.05	4756.7	
797.22	4728.8	
797.4	5543.2	
797.57	6581.5	
797.75	3971	
797.92	3700	
798.1	5844.9	
798.27	4955.4	
798.45	3229	
798.62	3455.6	
798.8	5280.3	
798.97	5743.2	
799.15	4205.8	
799.32	3934.1	
799.5	4540.3	
799.67	5302.2	
799.85	4300.7	
800.02	3128.6	
800.2	4867.3	
800.37	5179.3	
800.55	4528.1	
800.72	3726.6	
800.9	5687.9	
801.07	6180.1	
801.25	5098.1	
801.42	4088.4	
801.6	5743.2	
801.77	5498.8	
801.95	3829	
802.12	3676.1	
802.29	5461.9	
802.47	5439.4	
802.64	4143.7	
802.82	3059	
802.99	4932.9	
803.17	5883.1	
803.34	3931.4	
803.52	3613.3	
803.69	6503	
803.87	4706.9	
804.04	3949.8	
804.21	4089.1	
804.39	6011.5	
804.56	5095.3	
804.74	3332	
804.91	4125.3	
805.09	4972.5	
805.26	5039.4	
805.44	3418.7	
805.61	3747.8	
805.78	5553.4	
805.96	5627.8	
806.13	4115.7	
806.31	4456.4	
806.48	4461.2	
806.66	5089.2	
806.83	4091.2	
807	4085	
807.18	4934.2	
807.35	5297.4	
807.53	4027	
807.7	3142.3	
807.87	6085.2	
808.05	5000.5	
808.22	4399.7	
808.4	3289.7	
808.57	4948.6	
808.74	4613.4	
808.92	3710.9	
809.09	4739.7	
809.27	4883	
809.44	5480.4	
809.61	3256.3	
809.79	3624.9	
809.96	6099.5	
810.14	5725.4	
810.31	3160.7	
810.48	3871.3	
810.66	5068	
810.83	5809.4	
811.01	3725.3	
811.18	4070	
811.35	5742.5	
811.53	4432.5	
811.7	4416.1	
811.87	4132.8	
812.05	4959.5	
812.22	4879.6	
812.39	3554.6	
812.57	3474	
812.74	4966.3	
812.92	6683.9	
813.09	3913.7	
813.26	4198.3	
813.44	6345.3	
813.61	4922	
813.78	3202.3	
813.96	4326.7	
814.13	4997	
814.3	4642.1	
814.48	4732.9	
814.65	3874.1	
814.82	6189	
815	4771.8	
815.17	3919.1	
815.34	4866.7	
815.52	4918.5	
815.69	4924	
815.87	3944.4	
816.04	3390.1	
816.21	5004.6	
816.38	4399	
816.56	3857	
816.73	3586.7	
816.9	6253.8	
817.08	5709.1	
817.25	3607.8	
817.42	4513	
817.6	4521.2	
817.77	5027.8	
817.94	4046.1	
818.12	3553.2	
818.29	4714.4	
818.46	7357.7	
818.64	3664.5	
818.81	3446	
818.98	4653.7	
819.16	6732.4	
819.33	4291.2	
819.5	3952.6	
819.67	5390.3	
819.85	5976.7	
820.02	3904.8	
820.19	4138.9	
820.37	5241.4	
820.54	4772.4	
820.71	4042	
820.88	5071.5	
821.06	5204.6	
821.23	4757.4	
821.4	4072.7	
821.58	4003.8	
821.75	5708.4	
821.92	5188.9	
822.09	3254.9	
822.27	3387.3	
822.44	5053	
822.61	4930.8	
822.79	3281.5	
822.96	6275.7	
823.13	5437.4	
823.3	4732.9	
823.48	3783.3	
823.65	3366.2	
823.82	5715.9	
823.99	4562.2	
824.17	4845.5	
824.34	3421.5	
824.51	6587	
824.68	5029.1	
824.86	3608.5	
825.03	4059.1	
825.2	4991.6	
825.37	6141.9	
825.55	3551.9	
825.72	3986.7	
825.89	6642.9	
826.06	6141.2	
826.24	3886.4	
826.41	3911.6	
826.58	6070.9	
826.75	5274.9	
826.92	3080.1	
827.1	3368.2	
827.27	8214.4	
827.44	6561.7	
827.61	3672.7	
827.79	4467.3	
827.96	4743.8	
828.13	5098.1	
828.3	3829.7	
828.47	3226.9	
828.65	5225.1	
828.82	5163.6	
828.99	4941.7	
829.16	4354.7	
829.34	5616.9	
829.51	5334.3	
829.68	3991.5	
829.85	4212.7	
830.02	5871.5	
830.2	5643.5	
830.37	3058.3	
830.54	4844.8	
830.71	6420.4	
830.88	5049.6	
831.05	3148.4	
831.23	3596.2	
831.4	6051.7	
831.57	6887.3	
831.74	3625.6	
831.91	3254.2	
832.09	5206.6	
832.26	5632.6	
832.43	3831.1	
832.6	4311.7	
832.77	5238.7	
832.94	6010.8	
833.12	3026.9	
833.29	3795.6	
833.46	4885.1	
833.63	7077.1	
833.8	4128	
833.97	3814.7	
834.15	5630.5	
834.32	5363.6	
834.49	4020.2	
834.66	4066.6	
834.83	5851	
835	4720.6	
835.17	3645.4	
835.35	3706.1	
835.52	5487.2	
835.69	5398.4	
835.86	3936.9	
836.03	3218	
836.2	5578.7	
836.37	5169.1	
836.55	3835.2	
836.72	3545	
836.89	5186.8	
837.06	5651	
837.23	3941	
837.4	4340.3	
837.57	6415.6	
837.75	7045	
837.92	3468.6	
838.09	3762.1	
838.26	5165.7	
838.43	5834	
838.6	4024.9	
838.77	3601.7	
838.94	6647.7	
839.11	6434.7	
839.29	3800.3	
839.46	3002.3	
839.63	5545.9	
839.8	5296	
839.97	3689.8	
840.14	3766.9	
840.31	5352.7	
840.48	5603.9	
840.65	3095.8	
840.82	3734.1	
841	5573.9	
841.17	5569.8	
841.34	3428.3	
841.51	3439.9	
841.68	5479.7	
841.85	5238	
842.02	3545.7	
842.19	2932	
842.36	5311.7	
842.53	5309.7	
842.7	3406.5	
842.87	4134.8	
843.05	6947.4	
843.22	5261.2	
843.39	3212.6	
843.56	3483.6	
843.73	5061.9	
843.9	5610.1	
844.07	5533.6	
844.24	4574.5	
844.41	8176.2	
844.58	4841.4	
844.75	3269.9	
844.92	3612.6	
845.09	5590.3	
845.26	5609.4	
845.43	3396.9	
845.6	3588	
845.77	5624.4	
845.94	5288.5	
846.12	3784.6	
846.29	3987.4	
846.46	5744.6	
846.63	5551.4	
846.8	3350.5	
846.97	4019.5	
847.14	6036.7	
847.31	5556.1	
847.48	3859.1	
847.65	4163.5	
847.82	5866.7	
847.99	5842.2	
848.16	4530.1	
848.33	4250.9	
848.5	5153.4	
848.67	6016.9	
848.84	3362.8	
849.01	3506.1	
849.18	5022.3	
849.35	4630.5	
849.52	4295.3	
849.69	3332	
849.86	5782.1	
850.03	6027.2	
850.2	3414.6	
850.37	4183.3	
850.54	5905	
850.71	5265.3	
850.88	4077.5	
851.05	3335.5	
851.22	5470.8	
851.39	6094.1	
851.56	3172.3	
851.73	3910.3	
851.9	4889.9	
852.07	5794.4	
852.24	3781.2	
852.41	3327.9	
852.58	5498.1	
852.75	4979.3	
852.92	3831.7	
853.09	3247.4	
853.26	5160.2	
853.43	5989.6	
853.6	3355.3	
853.77	2893.8	
853.94	6161	
854.11	4840	
854.28	5000.5	
854.44	3671.3	
854.61	6494.8	
854.78	5862	
854.95	3423.5	
855.12	4211.3	
855.29	4451.6	
855.46	6339.8	
855.63	3402.4	
855.8	4704.9	
855.97	5143.8	
856.14	5906.3	
856.31	4818.2	
856.48	3674.1	
856.65	5132.2	
856.82	4886.5	
856.99	3289	
857.16	3622.9	
857.33	6705.7	
857.49	5231.9	
857.66	3636.5	
857.83	3955.3	
858	5226.4	
858.17	5406	
858.34	3173	
858.51	3416.7	
858.68	6236.1	
858.85	6277	
859.02	3924.6	
859.19	4216.1	
859.36	4871.4	
859.52	4949.9	
859.69	3409.9	
859.86	4035.9	
860.03	4965.6	
860.2	6104.3	
860.37	3093.1	
860.54	3376.4	
860.71	5825.8	
860.88	6119.3	
861.05	3851.5	
861.21	4249.5	
861.38	6217	
861.55	4695.3	
861.72	3091.8	
861.89	3764.2	
862.06	5827.8	
862.23	6287.3	
862.4	3340.9	
862.56	3476.1	
862.73	5649.7	
862.9	5345.2	
863.07	3950.5	
863.24	3061	
863.41	4803.9	
863.58	4920.6	
863.75	3479.5	
863.91	3967.6	
864.08	6130.9	
864.25	5644.9	
864.42	4317.8	
864.59	4703.5	
864.76	6464.8	
864.93	4853	
865.09	3285.6	
865.26	3620.1	
865.43	6012.2	
865.6	6399.9	
865.77	2992.1	
865.94	3353.9	
866.1	6042.9	
866.27	5825.1	
866.44	5092.6	
866.61	3224.9	
866.78	5304.9	
866.95	5730.9	
867.11	3287	
867.28	2957.3	
867.45	5929.6	
867.62	4949.9	
867.79	3938.2	
867.96	3374.4	
868.12	4866.7	
868.29	5805.3	
868.46	2917	
868.63	4550.6	
868.8	5969.8	
868.97	5722	
869.13	3573.7	
869.3	3529.3	
869.47	5659.9	
869.64	5911.8	
869.81	3409.2	
869.97	3382.6	
870.14	5543.2	
870.31	6209.4	
870.48	3272	
870.65	4316.4	
870.81	5231.2	
870.98	5266.7	
871.15	3786.7	
871.32	3544.4	
871.48	5649	
871.65	6323.4	
871.82	3417.4	
871.99	3745.1	
872.16	6789.7	
872.32	6145.3	
872.49	3416	
872.66	3467.9	
872.83	5829.9	
872.99	5045.5	
873.16	3861.1	
873.33	3327.3	
873.5	5392.3	
873.67	5420.3	
873.83	3594.9	
874	4526.7	
874.17	5582.1	
874.34	6527.6	
874.5	4415.4	
874.67	4222.2	
874.84	6166.4	
875.01	4829.8	
875.17	4746.5	
875.34	3414	
875.51	5555.5	
875.68	6646.3	
875.84	4092.5	
876.01	4979.3	
876.18	5755.5	
876.34	5639.4	
876.51	3391.4	
876.68	3353.2	
876.85	5257.1	
877.01	6052.4	
877.18	4820.9	
877.35	3369.6	
877.52	5356.1	
877.68	4845.5	
877.85	3283.6	
878.02	3332.7	
878.18	5363.6	
878.35	5076.2	
878.52	2725.2	
878.69	3805.8	
878.85	5810.8	
879.02	5782.8	
879.19	4823	
879.35	3627.6	
879.52	5753.4	
879.69	5946.6	
879.86	2916.3	
880.02	3807.9	
880.19	5339.7	
880.36	6554.2	
880.52	3917.1	
880.69	4040.6	
880.86	5799.2	
881.02	5926.1	
881.19	3743.7	
881.36	3665.2	
881.52	5718.6	
881.69	5044.8	
881.86	3615.3	
882.02	3634.5	
882.19	6040.8	
882.36	7049.1	
882.52	3385.3	
882.69	4805.9	
882.86	5566.4	
883.02	5465.3	
883.19	4209.9	
883.36	3903.4	
883.52	5864.7	
883.69	6741.2	
883.86	3462.4	
884.02	3116.3	
884.19	5834	
884.36	5433.3	
884.52	3863.8	
884.69	3637.9	
884.86	5168.4	
885.02	6366.5	
885.19	3811.3	
885.36	3878.2	
885.52	5360.9	
885.69	5512.4	
885.86	4913.1	
886.02	4367	
886.19	5827.8	
886.35	5307.7	
886.52	3704.1	
886.69	4745.8	
886.85	4906.9	
887.02	6191	
887.19	6191	
887.35	6191	
887.52	6191	
887.68	6191	
887.85	6191	
888.02	6191	
888.18	6191	
888.35	6191	
888.51	6191	
888.68	6191	
888.85	6191	
889.01	6191	
889.18	6191	
889.35	6191	
889.51	6191	
889.68	6191	
889.84	6191	
890.01	6191	
890.17	6191	
890.34	6191	
890.51	6191	
890.67	6191	
890.84	6191	
891	6191	
891.17	6191	
891.34	6191	
891.5	6191	
891.67	6191	
891.83	6191	
892	6191	
892.16	6191	
892.33	6191	
892.5	6191	
892.66	6191	
892.83	6191	
892.99	6191	
893.16	6191	
893.32	6191	
893.49	6191	
893.65	6191	
893.82	6191	
893.99	6191	
894.15	6191	
894.32	6191	
894.48	6191	
894.65	6191	
894.81	6191	
894.98	6191	
895.14	6191	
895.31	6191	
895.47	6191	
895.64	6191	
895.81	6191	
895.97	6191	
896.14	6191	
896.3	6191	
896.47	6191	
896.63	6191	
896.8	6191	
896.96	6191	
897.13	6191	
897.29	6191	
897.46	6191	
897.62	6191	
897.79	6191	
897.95	6191	
898.12	6191	
898.28	6191	
898.45	6191	
898.61	6191	
898.78	6191	
898.94	6191	
899.11	6191	
899.27	6191	
899.44	6191	
899.6	6191	
899.77	6191	
899.93	6191	
900.1	6191	
900.26	6191	
900.43	6191	
900.59	6191	
900.76	6191	
900.92	6191	
901.09	6191	
901.25	6191	
901.42	6191	
901.58	6191	
901.75	6191	
901.91	6191	
902.07	6191	
902.24	6191	
902.4	6191	
902.57	6191	
902.73	6191	
902.9	6191	
903.06	6191	
903.23	6191	
903.39	6191	
903.56	6191	
903.72	6191	
903.88	6191	
904.05	6191	
904.21	6191	
904.38	6191	
904.54	6191	
904.71	6191	
904.87	6191	
905.03	6191	
905.2	6191	
905.36	6191	
905.53	6191	
905.69	6191	
905.86	6191	
906.02	6191	
906.18	6191	
906.35	6191	
906.51	6191	
906.68	6191	
906.84	6191	
907.01	6191	
907.17	6191	
907.33	6191	
907.5	6191	
907.66	6191	
907.83	6191	
907.99	6191	
908.15	6191	
908.32	6191	
908.48	6191	
908.65	6191	
908.81	6191	
908.97	6191	
909.14	6191	
909.3	6191	
909.47	6191	
909.63	6191	
909.79	6191	
909.96	6191	
910.12	6191	
910.28	6191	
910.45	6191	
910.61	6191	
910.78	6191	
910.94	6191	
911.1	6191	
911.27	6191	
911.43	6191	
911.59	6191	
911.76	6191	
911.92	6191	
912.08	6191	
912.25	6191	
912.41	6191	
912.57	6191	
912.74	6191	
912.9	6191	
913.07	6191	
913.23	6191	
913.39	6191	
913.56	6191	
913.72	6191	
913.88	6191	
914.05	6191	
914.21	6191	
914.37	6191	
914.54	6191	
914.7	6191	
914.86	6191	
915.03	6191	
915.19	6191	
