Wavelength	Intensities	
nm	a.u.	
179.22	1928.7	
179.44	1941.1	
179.65	1916.2	
179.86	1966	
180.08	1929.2	
180.29	4934.2	
180.51	3546.4	
180.72	5627.8	
180.94	6692.8	
181.15	3222.1	
181.37	3224.2	
181.58	5544.5	
181.79	5868.8	
182.01	3457.7	
182.22	3679.5	
182.44	5817.6	
182.65	4863.9	
182.87	4618.9	
183.08	4027	
183.29	6168.5	
183.51	5057.1	
183.72	3757.3	
183.94	5492	
184.15	5441.5	
184.37	5438.7	
184.58	3276.8	
184.79	4509.6	
185.01	5049.6	
185.22	5823.7	
185.44	4791.6	
185.65	3987.4	
185.86	5322.7	
186.08	4962.9	
186.29	3189.4	
186.51	3410.6	
186.72	5087.2	
186.94	6062	
187.15	3948.5	
187.36	4176.5	
187.58	7909.9	
187.79	5571.8	
188.01	4300.1	
188.22	6699.6	
188.43	6708.5	
188.65	5882.4	
188.86	3375.1	
189.08	4098	
189.29	5272.8	
189.5	5259.2	
189.72	3824.9	
189.93	3863.8	
190.15	6059.3	
190.36	7233.4	
190.57	4160.1	
190.79	4052.2	
191	6114.6	
191.22	6074.3	
191.43	4195.6	
191.64	3384.6	
191.86	6356.2	
192.07	6112.5	
192.29	3564.8	
192.5	3809.9	
192.71	6040.8	
192.93	5193.6	
193.14	3738.2	
193.35	3835.2	
193.57	5199.8	
193.78	5982.1	
194	2992.8	
194.21	3762.1	
194.42	4974.5	
194.64	5530.2	
194.85	4101.4	
195.07	4846.9	
195.28	5527.5	
195.49	4769	
195.71	5050.3	
195.92	3549.1	
196.13	5700.2	
196.35	5793.7	
196.56	5410.1	
196.78	4124.6	
196.99	7157	
197.2	6733.7	
197.42	4713.1	
197.63	4139.6	
197.84	4934.2	
198.06	5722	
198.27	3845.4	
198.48	5130.2	
198.7	5254.4	
198.91	5361.6	
199.13	4177.2	
199.34	4194.9	
199.55	5906.3	
199.77	4768.4	
199.98	3634.5	
200.19	4204.5	
200.41	5319.3	
200.62	5107.6	
200.83	4300.7	
201.05	4633.9	
201.26	5378	
201.47	5113.8	
201.69	3663.1	
201.9	3497.2	
202.11	5479	
202.33	6507.1	
202.54	3962.8	
202.76	4358.1	
202.97	5662	
203.18	5566.4	
203.4	4296.6	
203.61	4171.7	
203.82	5545.2	
204.04	5156.8	
204.25	4177.9	
204.46	4070.7	
204.68	5492	
204.89	5742.5	
205.1	4040.6	
205.32	3489.7	
205.53	5894.1	
205.74	6099.5	
205.96	3001	
206.17	4279.6	
206.38	5917.3	
206.6	6024.4	
206.81	4730.8	
207.02	3852.2	
207.24	5763.7	
207.45	6194.4	
207.66	3966.9	
207.88	3362.1	
208.09	5707	
208.3	5492.7	
208.52	3633.1	
208.73	3955.3	
208.94	5451	
209.15	6205.3	
209.37	3926	
209.58	4140.3	
209.79	6012.2	
210.01	5292.6	
210.22	3123.2	
210.43	3327.9	
210.65	5528.2	
210.86	5906.3	
211.07	4008.6	
211.29	3595.6	
211.5	5817.6	
211.71	5464	
211.93	3618.8	
212.14	3636.5	
212.35	5417.6	
212.56	5680.4	
212.78	4218.8	
212.99	3483.6	
213.2	6527.6	
213.42	5212.8	
213.63	3735.5	
213.84	4018.1	
214.06	4830.5	
214.27	4934.9	
214.48	3963.5	
214.69	4182.6	
214.91	6156.9	
215.12	6326.2	
215.33	4304.1	
215.55	4650.9	
215.76	6723.5	
215.97	5866.1	
216.18	4110.3	
216.4	3945.1	
216.61	5189.6	
216.82	5971.9	
217.04	3621.5	
217.25	3778.5	
217.46	6191.7	
217.67	5866.1	
217.89	3259	
218.1	3372.3	
218.31	5569.1	
218.53	5662	
218.74	3818.1	
218.95	3701.4	
219.16	5487.9	
219.38	6443.6	
219.59	3713.6	
219.8	4427	
220.01	7103.7	
220.23	5499.5	
220.44	4889.9	
220.65	3563.5	
220.87	5575.9	
221.08	6107.7	
221.29	3316.3	
221.5	4508.9	
221.72	7531.1	
221.93	5205.9	
222.14	4216.1	
222.35	4934.9	
222.57	5485.8	
222.78	5876.3	
222.99	3908.9	
223.2	4303.5	
223.42	5807.4	
223.63	5885.9	
223.84	3049.4	
224.05	3024.2	
224.27	7095.5	
224.48	6481.8	
224.69	4874.2	
224.9	4148.5	
225.12	5721.3	
225.33	5438.7	
225.54	3334.1	
225.75	3743	
225.97	5038.7	
226.18	5326.1	
226.39	4002.4	
226.6	3747.8	
226.82	5248.3	
227.03	5074.2	
227.24	4148.5	
227.45	3417.4	
227.67	5874.9	
227.88	6464.1	
228.09	4650.3	
228.3	4646.8	
228.52	5976.7	
228.73	5445.5	
228.94	3883.6	
229.15	3416.7	
229.36	5387.5	
229.58	5344.5	
229.79	3925.3	
230	4562.2	
230.21	6527.6	
230.43	5655.8	
230.64	4154	
230.85	4331.5	
231.06	5897.5	
231.28	5952.1	
231.49	3444	
231.7	4030.4	
231.91	5863.3	
232.12	5535	
232.34	3500	
232.55	4008.6	
232.76	6179.4	
232.97	5688.6	
233.18	3635.1	
233.4	4074.8	
233.61	5709.1	
233.82	5367.7	
234.03	3812	
234.25	3724.6	
234.46	7656	
234.67	5524.1	
234.88	4270.7	
235.09	3710.2	
235.31	5821	
235.52	5413.5	
235.73	4104.1	
235.94	3501.3	
236.15	5242.8	
236.37	6632.7	
236.58	3618.8	
236.79	3975.1	
237	5789.6	
237.21	4954	
237.43	4302.1	
237.64	3377.1	
237.85	10122	
238.06	5010	
238.27	4343.1	
238.48	3461.1	
238.7	5842.2	
238.91	5310.4	
239.12	3904.8	
239.33	3984	
239.54	5113.1	
239.76	5474.2	
239.97	3901.4	
240.18	3994.2	
240.39	6968.6	
240.6	5737	
240.82	4156	
241.03	3419.4	
241.24	5506.3	
241.45	6359.6	
241.66	3634.5	
241.87	4270	
242.09	6249	
242.3	6679.1	
242.51	4310.3	
242.72	3992.9	
242.93	5998.5	
243.14	5391.6	
243.36	4644.8	
243.57	5025	
243.78	6373.3	
243.99	5880.4	
244.2	3994.9	
244.41	3657.7	
244.63	5085.1	
244.84	5865.4	
245.05	4260.5	
245.26	3995.6	
245.47	5758.2	
245.68	6051.1	
245.9	5367	
246.11	4228.4	
246.32	5304.9	
246.53	5811.5	
246.74	6502.3	
246.95	3312.9	
247.16	4991.6	
247.38	5504.9	
247.59	3331.4	
247.8	4019.5	
248.01	5139	
248.22	5447.6	
248.43	3649.5	
248.64	3888.4	
248.86	4881	
249.07	5227.1	
249.28	3528	
249.49	4076.8	
249.7	6083.1	
249.91	6266.8	
250.12	3297.2	
250.34	3348.4	
250.55	5638.7	
250.76	5499.5	
250.97	4076.1	
251.18	4205.8	
251.39	6213.5	
251.6	5705.6	
251.81	4242	
252.03	4228.4	
252.24	5254.4	
252.45	6077	
252.66	3475.4	
252.87	4388.8	
253.08	5556.8	
253.29	7302.4	
253.5	3532.1	
253.72	4863.9	
253.93	5341.8	
254.14	6590.4	
254.35	3777.1	
254.56	3889.8	
254.77	5779.4	
254.98	5106.3	
255.19	3731.4	
255.41	4810	
255.62	5591	
255.83	6219.7	
256.04	4304.1	
256.25	4171	
256.46	6587.6	
256.67	5184.1	
256.88	4091.8	
257.09	4610.7	
257.31	5128.8	
257.52	5163.6	
257.73	5167.7	
257.94	3773	
258.15	5318.6	
258.36	5539.1	
258.57	4772.4	
258.78	3005.1	
258.99	5982.8	
259.2	5395.7	
259.41	3839.3	
259.63	3850.2	
259.84	6320.7	
260.05	6859.3	
260.26	5039.4	
260.47	3641.3	
260.68	6132.3	
260.89	5369.8	
261.1	4588.8	
261.31	3643.3	
261.52	6097.5	
261.73	6573.3	
261.95	4908.3	
262.16	4332.1	
262.37	6227.2	
262.58	6293.4	
262.79	4912.4	
263	3872	
263.21	5588.9	
263.42	4952	
263.63	3885	
263.84	3861.1	
264.05	6102.3	
264.26	6453.1	
264.47	4754	
264.69	4196.3	
264.9	6268.1	
265.11	5726.1	
265.32	3678.2	
265.53	3774.4	
265.74	5649.7	
265.95	4973.8	
266.16	4109.6	
266.37	4497.3	
266.58	5698.1	
266.79	5303.6	
267	3750.5	
267.21	3538.2	
267.42	5063.9	
267.63	5483.8	
267.84	3943.7	
268.06	3416.7	
268.27	5912.5	
268.48	6301.6	
268.69	3883.6	
268.9	4560.8	
269.11	6244.3	
269.32	4949.9	
269.53	3990.8	
269.74	3719.8	
269.95	5885.9	
270.16	4841.4	
270.37	4056.3	
270.58	4622.9	
270.79	5375.2	
271	6067.4	
271.21	4235.2	
271.42	4027	
271.63	5640.1	
271.84	5184.1	
272.05	3197.6	
272.26	3618.1	
272.47	5469.4	
272.68	5736.4	
272.89	3811.3	
273.11	4370.4	
273.32	5337.7	
273.53	6550.1	
273.74	4303.5	
273.95	4179.9	
274.16	6165.8	
274.37	5567.1	
274.58	4376.5	
274.79	3482.2	
275	5628.5	
275.21	6177.4	
275.42	5236.7	
275.63	4529.4	
275.84	5793.7	
276.05	7267.6	
276.26	4248.9	
276.47	3965.6	
276.68	5298.1	
276.89	6560.3	
277.1	4538.3	
277.31	3489.1	
277.52	5786.9	
277.73	5950	
277.94	3425.6	
278.15	3889.1	
278.36	5649	
278.57	5171.8	
278.78	3835.8	
278.99	4361.5	
279.2	5158.2	
279.41	5083.1	
279.62	5112.4	
279.83	3560.7	
280.04	6740.5	
280.25	4992.9	
280.46	4986.8	
280.67	3977.2	
280.88	5162.9	
281.09	6172.6	
281.3	4170.3	
281.51	5375.2	
281.72	5236.7	
281.93	6102.9	
282.14	3734.1	
282.35	4019.5	
282.56	6034	
282.77	6034.7	
282.98	3824.2	
283.19	4713.7	
283.4	7390.4	
283.61	5449	
283.82	3476.8	
284.03	4975.2	
284.24	5652.4	
284.45	6155.5	
284.66	4936.3	
284.87	4760.2	
285.08	6068.1	
285.29	6277.7	
285.5	3383.2	
285.71	3959.4	
285.92	6186.9	
286.12	6838.2	
286.33	4880.3	
286.54	3893.9	
286.75	6001.9	
286.96	5387.5	
287.17	3546.4	
287.38	4812	
287.59	5112.4	
287.8	5072.1	
288.01	3913	
288.22	4491.2	
288.43	6043.6	
288.64	5033.2	
288.85	4627	
289.06	4423.6	
289.27	5995.8	
289.48	6533	
289.69	4949.9	
289.9	4499.4	
290.11	6157.6	
290.32	5197.7	
290.53	4728.8	
290.74	4280.9	
290.94	5984.2	
291.15	5980.1	
291.36	3736.9	
291.57	4412	
291.78	5226.4	
291.99	4929.5	
292.2	3557.3	
292.41	4261.1	
292.62	6096.1	
292.83	5870.8	
293.04	5401.2	
293.25	3605.1	
293.46	5313.1	
293.67	6107.7	
293.88	3730	
294.09	3597.6	
294.29	5043.5	
294.5	5634	
294.71	4037.2	
294.92	3869.3	
295.13	5283.8	
295.34	6642.2	
295.55	3358	
295.76	3525.9	
295.97	5937.7	
296.18	6769.2	
296.39	3511.6	
296.6	3731.4	
296.81	5642.2	
297.01	5974.6	
297.22	3951.9	
297.43	3736.9	
297.64	5100.1	
297.85	5172.5	
298.06	3073.3	
298.27	3359.4	
298.48	5596.4	
298.69	5207.3	
298.9	4016.1	
299.11	3674.1	
299.31	5020.3	
299.52	5004.6	
299.73	4390.8	
299.94	4268.6	
300.15	5535.7	
300.36	5111	
300.57	4270	
300.78	4235.9	
300.99	5355.4	
301.2	5612.8	
301.4	3730.7	
301.61	4095.9	
301.82	5777.3	
302.03	5962.3	
302.24	4519.2	
302.45	3547.1	
302.66	5872.9	
302.87	6297.5	
303.08	3693.2	
303.29	5194.3	
303.49	5251.7	
303.7	5511.1	
303.91	3329.3	
304.12	4919.9	
304.33	5006.6	
304.54	5715.2	
304.75	3777.1	
304.96	3590.8	
305.16	5909.1	
305.37	6666.8	
305.58	3226.2	
305.79	3484.3	
306	5840.8	
306.21	4928.8	
306.42	3703.4	
306.63	5715.9	
306.83	5435.3	
307.04	6179.4	
307.25	4121.2	
307.46	4137.6	
307.67	4694.6	
307.88	6027.9	
308.09	3714.3	
308.29	3825.6	
308.5	5623.7	
308.71	6100.2	
308.92	4040.6	
309.13	3588	
309.34	5457.8	
309.55	5439.4	
309.75	4671.4	
309.96	4321.9	
310.17	5995.8	
310.38	5230.5	
310.59	4529.4	
310.8	3485	
311.01	6701	
311.21	5372.5	
311.42	3532.7	
311.63	3650.2	
311.84	5256.5	
312.05	5672.2	
312.26	4186.7	
312.46	4616.1	
312.67	5336.3	
312.88	5015.5	
313.09	3635.8	
313.3	3524.6	
313.51	6326.9	
313.71	6665.5	
313.92	3601	
314.13	3786.7	
314.34	5683.8	
314.55	5405.3	
314.76	4697.4	
314.96	4035.2	
315.17	5612.1	
315.38	5960.3	
315.59	3653.6	
315.8	3510.2	
316.01	6459.3	
316.21	6417	
316.42	3506.8	
316.63	4049.5	
316.84	5402.5	
317.05	6290.7	
317.26	4296	
317.46	3824.9	
317.67	5416.9	
317.88	5948.7	
318.09	4591.5	
318.3	3373.7	
318.5	5270.1	
318.71	5910.4	
318.92	5862	
319.13	4216.8	
319.34	6107.7	
319.54	6124.1	
319.75	3337.5	
319.96	3198.2	
320.17	5926.8	
320.38	6139.1	
320.58	3323.2	
320.79	3993.5	
321	6126.8	
321.21	6263.4	
321.42	4035.2	
321.62	3301.3	
321.83	5109.7	
322.04	5531.6	
322.25	3797.6	
322.46	3652.2	
322.66	5707	
322.87	5828.5	
323.08	4517.1	
323.29	3547.1	
323.5	6623.8	
323.7	5079.6	
323.91	4992.9	
324.12	4445.5	
324.33	5578.7	
324.53	5849	
324.74	4300.7	
324.95	4482.3	
325.16	4886.5	
325.37	5335.6	
325.57	3649.5	
325.78	3736.2	
325.99	5511.8	
326.2	5000.5	
326.4	5165	
326.61	3355.9	
326.82	5483.1	
327.03	5717.9	
327.24	5275.6	
327.44	4912.4	
327.65	5826.5	
327.86	4666	
328.07	4240	
328.27	3497.9	
328.48	6268.8	
328.69	5056.4	
328.9	5255.1	
329.1	3904.1	
329.31	5440.8	
329.52	6319.3	
329.73	3640.6	
329.93	4134.8	
330.14	5529.5	
330.35	5790.3	
330.56	5979.4	
330.76	4552.6	
330.97	5352.7	
331.18	5724.8	
331.39	4050.9	
331.59	3280.2	
331.8	6138.4	
332.01	6247	
332.22	3756.7	
332.42	4293.9	
332.63	5658.5	
332.84	5274.2	
333.05	4052.2	
333.25	3744.4	
333.46	5301.5	
333.67	5552.7	
333.88	3805.1	
334.08	4258.4	
334.29	7424.6	
334.5	6265.4	
334.7	3576.4	
334.91	5235.3	
335.12	4976.6	
335.33	6024.4	
335.53	4016.7	
335.74	5968.5	
335.95	5286.5	
336.16	5143.8	
336.36	4188.1	
336.57	4639.3	
336.78	5048.2	
336.98	6160.3	
337.19	5001.8	
337.4	3966.2	
337.61	6731	
337.81	5057.1	
338.02	3719.1	
338.23	4832.5	
338.43	6337.8	
338.64	5203.2	
338.85	3678.2	
339.05	4777.2	
339.26	6389	
339.47	4938.3	
339.68	3633.1	
339.88	5441.5	
340.09	5839.4	
340.3	6025.1	
340.5	4309.6	
340.71	3282.9	
340.92	5039.4	
341.13	6326.9	
341.33	3559.4	
341.54	4292.5	
341.75	5819.6	
341.95	5421	
342.16	4155.3	
342.37	4444.1	
342.57	5123.3	
342.78	5524.1	
342.99	4593.6	
343.19	3260.4	
343.4	5952.1	
343.61	5834	
343.81	3957.4	
344.02	3569.6	
344.23	6003.3	
344.43	6425.8	
344.64	4592.2	
344.85	4416.1	
345.06	5781.4	
345.26	6127.5	
345.47	4262.5	
345.68	4992.3	
345.88	4823	
346.09	6045.6	
346.3	4347.8	
346.5	3267.9	
346.71	5571.2	
346.92	5274.2	
347.12	3301.3	
347.33	4248.9	
347.54	6111.1	
347.74	6591	
347.95	4130.1	
348.16	3089.7	
348.36	5344.5	
348.57	5025	
348.78	4214	
348.98	4547.9	
349.19	5485.8	
349.39	4980.7	
349.6	3347.7	
349.81	3688.4	
350.01	5767.8	
350.22	5289.9	
350.43	3955.3	
350.63	4874.8	
350.84	5625.1	
351.05	5355.4	
351.25	3691.1	
351.46	3315	
351.67	6134.3	
351.87	5319.3	
352.08	3939.6	
352.29	4519.2	
352.49	6032	
352.7	5719.3	
352.9	3566.2	
353.11	4435.9	
353.32	6774.7	
353.52	5367	
353.73	3488.4	
353.94	4534.2	
354.14	5912.5	
354.35	5716.6	
354.55	3709.6	
354.76	4084.3	
354.97	5886.5	
355.17	5658.5	
355.38	3441.3	
355.59	4881	
355.79	5290.6	
356	5765	
356.2	4091.8	
356.41	3482.2	
356.62	5009.3	
356.82	5498.1	
357.03	4420.9	
357.24	3932.1	
357.44	5325.4	
357.65	5479.7	
357.85	5229.8	
358.06	4159.4	
358.27	5073.5	
358.47	5279.7	
358.68	3433.8	
358.88	4436.6	
359.09	5929.6	
359.3	6287.9	
359.5	5105.6	
359.71	4570.4	
359.91	6855.9	
360.12	6145.3	
360.33	4419.5	
360.53	4939.7	
360.74	5326.1	
360.94	5410.7	
361.15	4627	
361.36	3936.2	
361.56	6181.5	
361.77	5637.4	
361.97	5233.9	
362.18	4141.7	
362.38	6220.4	
362.59	5321.3	
362.8	3833.8	
363	3650.8	
363.21	5078.3	
363.41	5806	
363.62	4391.5	
363.83	5569.8	
364.03	5858.6	
364.24	6986.3	
364.44	5567.1	
364.65	5645.6	
364.85	5738.4	
365.06	5547.9	
365.27	4052.2	
365.47	4060.4	
365.68	6788.3	
365.88	5717.9	
366.09	4545.8	
366.29	4248.2	
366.5	5995.1	
366.71	6488.6	
366.91	5586.2	
367.12	4683	
367.32	7105.1	
367.53	6339.8	
367.73	4729.4	
367.94	5768.4	
368.14	6250.4	
368.35	7252.5	
368.56	4745.8	
368.76	4055.7	
368.97	6404	
369.17	8278.6	
369.38	4189.5	
369.58	4519.9	
369.79	5368.4	
369.99	6766.5	
370.2	5525.4	
370.4	4591.5	
370.61	6167.1	
370.82	7395.9	
371.02	4500.1	
371.23	3732.1	
371.43	5313.8	
371.64	6812.9	
371.84	4611.3	
372.05	5963.7	
372.25	8353.7	
372.46	6615.6	
372.66	4743.8	
372.87	4594.3	
373.07	6718	
373.28	8343.4	
373.48	5880.4	
373.69	5522	
373.9	6180.1	
374.1	6279.8	
374.31	5827.8	
374.51	5302.2	
374.72	7150.1	
374.92	5916.6	
375.13	6103.6	
375.33	5242.1	
375.54	6809.5	
375.74	6233.3	
375.95	5425.8	
376.15	6715.3	
376.36	6858.6	
376.56	6743.3	
376.77	5621	
376.97	6007.4	
377.18	8119.5	
377.38	7202	
377.59	6479.8	
377.79	5146.5	
378	6959.7	
378.2	7513.3	
378.41	5294	
378.61	5143.1	
378.82	7467.6	
379.02	6569.2	
379.23	5461.9	
379.43	6630	
379.64	7554.3	
379.84	7296.9	
380.05	5231.9	
380.25	5205.9	
380.46	7344.7	
380.66	6831.3	
380.87	6686.6	
381.07	7020.4	
381.28	7968	
381.48	7323.5	
381.69	5263.3	
381.89	5264	
382.1	6162.3	
382.3	7447.1	
382.51	6454.5	
382.71	7332.4	
382.91	7216.4	
383.12	7771.4	
383.32	5625.1	
383.53	5813.5	
383.73	7046.4	
383.94	6892.8	
384.14	5662	
384.35	4759.5	
384.55	6754.9	
384.76	7300.3	
384.96	5545.9	
385.17	5806	
385.37	7302.4	
385.58	6434.7	
385.78	5912.5	
385.98	4701.5	
386.19	6688	
386.39	7122.8	
386.6	5371.8	
386.8	5689.9	
387.01	7395.9	
387.21	7314.7	
387.42	6153.5	
387.62	6869.6	
387.83	6672.3	
388.03	7503.1	
388.23	5887.9	
388.44	6742.6	
388.64	6483.9	
388.85	6720.8	
389.05	6380.1	
389.26	6986.3	
389.46	8724.3	
389.67	8110.6	
389.87	6389	
390.07	6402.6	
390.28	7222.5	
390.48	6813.6	
390.69	5745.2	
390.89	5926.1	
391.1	7092.1	
391.3	8092.2	
391.5	7275.1	
391.71	7914	
391.91	7786.4	
392.12	8875.9	
392.32	7289.4	
392.53	6425.8	
392.73	7105.8	
392.93	7355.6	
393.14	6101.6	
393.34	6842.3	
393.55	7798	
393.75	7260	
393.95	6066.8	
394.16	6009.4	
394.36	7145.4	
394.57	7864.9	
394.77	5662.6	
394.98	6111.1	
395.18	7228.6	
395.38	7490.1	
395.59	7296.2	
395.79	6168.5	
396	7564.5	
396.2	8113.4	
396.4	7360.4	
396.61	7269.6	
396.81	8454	
397.02	7675.8	
397.22	7629.4	
397.42	7662.1	
397.63	8529.8	
397.83	7785.7	
398.04	6434.7	
398.24	7171.3	
398.44	8274.5	
398.65	7546.1	
398.85	6516.6	
399.05	6675	
399.26	8006.9	
399.46	9948.3	
399.67	7243.7	
399.87	6940.6	
400.07	8603.5	
400.28	8982.4	
400.48	7245.7	
400.69	8421.2	
400.89	9452.1	
401.09	9867.1	
401.3	7200	
401.5	8362.5	
401.7	10238	
401.91	10205	
402.11	7462.1	
402.32	7580.9	
402.52	9198.8	
402.72	8908	
402.93	7648.5	
403.13	6212.2	
403.33	9671.9	
403.54	8178.9	
403.74	7142.6	
403.94	8079.2	
404.15	8393.3	
404.35	9826.2	
404.56	7139.9	
404.76	9205.6	
404.96	9097.8	
405.17	8962.6	
405.37	8826.7	
405.57	7901.1	
405.78	9479.4	
405.98	8558.5	
406.18	7347.4	
406.39	8288.1	
406.59	9212.4	
406.79	8937.3	
407	7236.8	
407.2	7446.4	
407.4	9607.7	
407.61	9856.2	
407.81	7836.9	
408.01	9901.2	
408.22	8963.3	
408.42	11239	
408.62	9545.6	
408.83	9179	
409.03	10376	
409.23	10135	
409.44	9604.3	
409.64	9922.4	
409.84	11673	
410.05	11714	
410.25	10136	
410.45	9873.3	
410.66	11718	
410.86	14057	
411.06	11004	
411.27	10636	
411.47	14446	
411.67	12188	
411.88	11012	
412.08	11624	
412.28	12899	
412.49	13517	
412.69	11256	
412.89	11295	
413.09	13392	
413.3	13370	
413.5	11490	
413.7	11122	
413.91	12604	
414.11	13704	
414.31	11586	
414.52	12340	
414.72	13300	
414.92	13538	
415.12	11569	
415.33	12265	
415.53	14002	
415.73	14230	
415.94	12723	
416.14	11970	
416.34	13181	
416.55	12841	
416.75	13478	
416.95	13036	
417.15	14519	
417.36	14943	
417.56	14187	
417.76	13201	
417.97	14904	
418.17	14770	
418.37	12680	
418.57	12809	
418.78	14294	
418.98	13835	
419.18	13640	
419.38	13429	
419.59	14177	
419.79	13438	
419.99	12651	
420.2	13104	
420.4	14706	
420.6	14891	
420.8	12646	
421.01	12469	
421.21	14770	
421.41	14892	
421.61	13119	
421.82	12770	
422.02	14074	
422.22	14889	
422.42	13612	
422.63	12697	
422.83	14287	
423.03	15631	
423.23	13028	
423.44	12085	
423.64	14066	
423.84	13628	
424.04	12532	
424.25	12067	
424.45	14876	
424.65	14906	
424.85	11848	
425.06	12473	
425.26	14988	
425.46	13848	
425.66	12755	
425.87	12495	
426.07	14644	
426.27	14366	
426.47	12799	
426.67	11882	
426.88	14781	
427.08	14297	
427.28	13241	
427.48	11829	
427.69	13153	
427.89	13809	
428.09	12953	
428.29	12173	
428.5	14788	
428.7	14212	
428.9	12197	
429.1	12796	
429.3	14235	
429.51	14902	
429.71	12406	
429.91	13608	
430.11	14798	
430.31	15284	
430.52	13054	
430.72	13641	
430.92	15531	
431.12	15001	
431.32	13054	
431.53	13221	
431.73	14037	
431.93	15818	
432.13	12796	
432.33	12946	
432.54	14630	
432.74	15113	
432.94	13148	
433.14	14000	
433.34	15325	
433.55	15261	
433.75	14186	
433.95	16470	
434.15	15367	
434.35	15274	
434.56	13487	
434.76	13351	
434.96	15489	
435.16	16212	
435.36	13652	
435.56	15162	
435.77	15659	
435.97	15898	
436.17	16019	
436.37	15367	
436.57	15784	
436.78	15869	
436.98	14705	
437.18	15597	
437.38	16687	
437.58	15647	
437.78	15474	
437.99	14027	
438.19	15847	
438.39	17333	
438.59	14089	
438.79	13557	
438.99	17001	
439.2	15957	
439.4	13809	
439.6	14176	
439.8	16660	
440	17842	
440.2	15803	
440.4	16002	
440.61	17559	
440.81	18234	
441.01	15202	
441.21	16480	
441.41	18464	
441.61	17633	
441.81	17025	
442.02	17920	
442.22	19066	
442.42	18178	
442.62	15921	
442.82	15522	
443.02	18649	
443.22	18036	
443.43	16565	
443.63	16107	
443.83	17588	
444.03	17881	
444.23	17693	
444.43	17072	
444.63	18392	
444.83	19420	
445.04	16383	
445.24	17738	
445.44	18238	
445.64	18437	
445.84	16463	
446.04	17019	
446.24	17537	
446.44	18473	
446.65	15700	
446.85	16571	
447.05	17329	
447.25	18396	
447.45	16232	
447.65	15645	
447.85	17791	
448.05	17137	
448.25	17146	
448.46	17049	
448.66	18182	
448.86	17624	
449.06	15984	
449.26	17103	
449.46	18847	
449.66	17466	
449.86	17082	
450.06	16769	
450.26	17961	
450.47	18551	
450.67	16727	
450.87	17499	
451.07	18782	
451.27	18602	
451.47	16300	
451.67	17530	
451.87	18359	
452.07	18959	
452.27	17053	
452.47	16677	
452.67	18349	
452.88	19292	
453.08	15873	
453.28	18415	
453.48	20321	
453.68	18304	
453.88	17320	
454.08	17417	
454.28	19620	
454.48	19125	
454.68	18129	
454.88	18626	
455.08	19620	
455.28	20128	
455.48	17083	
455.68	18529	
455.89	20846	
456.09	20784	
456.29	18185	
456.49	18830	
456.69	21093	
456.89	20148	
457.09	19520	
457.29	20310	
457.49	21057	
457.69	21544	
457.89	20112	
458.09	18970	
458.29	21276	
458.49	22162	
458.69	20383	
458.89	20162	
459.09	22672	
459.29	22413	
459.49	19943	
459.69	20897	
459.9	21934	
460.1	22302	
460.3	19833	
460.5	19891	
460.7	22474	
460.9	22367	
461.1	19881	
461.3	21598	
461.5	23909	
461.7	23283	
461.9	21375	
462.1	21289	
462.3	23376	
462.5	23978	
462.7	21693	
462.9	22233	
463.1	25444	
463.3	25658	
463.5	22414	
463.7	24280	
463.9	24572	
464.1	24866	
464.3	23805	
464.5	23244	
464.7	25436	
464.9	25915	
465.1	25180	
465.3	24370	
465.5	25842	
465.7	26331	
465.9	25139	
466.1	24104	
466.3	26931	
466.5	26013	
466.7	26572	
466.9	24661	
467.1	26710	
467.3	27681	
467.5	26725	
467.7	25508	
467.9	28157	
468.1	29278	
468.3	26066	
468.5	27103	
468.7	27465	
468.9	27012	
469.1	26113	
469.3	27204	
469.5	29711	
469.7	27334	
469.9	25985	
470.1	26128	
470.3	27596	
470.5	27585	
470.7	27248	
470.9	25923	
471.1	27450	
471.3	27056	
471.5	25884	
471.69	27716	
471.89	26864	
472.09	26332	
472.29	26942	
472.49	26196	
472.69	26889	
472.89	27465	
473.09	25690	
473.29	25047	
473.49	26778	
473.69	26486	
473.89	26400	
474.09	25533	
474.29	28070	
474.49	27509	
474.69	26556	
474.89	25428	
475.09	26825	
475.29	26736	
475.49	24840	
475.69	25174	
475.88	27807	
476.08	26769	
476.28	24840	
476.48	24677	
476.68	26932	
476.88	26689	
477.08	24487	
477.28	25393	
477.48	26032	
477.68	26925	
477.88	24939	
478.08	25041	
478.28	27623	
478.48	26370	
478.67	25148	
478.87	23883	
479.07	27662	
479.27	26336	
479.47	25237	
479.67	25533	
479.87	27140	
480.07	27944	
480.27	24765	
480.47	26452	
480.67	26672	
480.87	27640	
481.06	24909	
481.26	25866	
481.46	26891	
481.66	26709	
481.86	25490	
482.06	26411	
482.26	26552	
482.46	27205	
482.66	25434	
482.86	25172	
483.05	27248	
483.25	26625	
483.45	28232	
483.65	25814	
483.85	26928	
484.05	27482	
484.25	26224	
484.45	27392	
484.65	28343	
484.84	28958	
485.04	26239	
485.24	26293	
485.44	29018	
485.64	27461	
485.84	26318	
486.04	27652	
486.24	28125	
486.44	28543	
486.63	26256	
486.83	27501	
487.03	28629	
487.23	29271	
487.43	26749	
487.63	29548	
487.83	29407	
488.02	30406	
488.22	28607	
488.42	29336	
488.62	30318	
488.82	29475	
489.02	27924	
489.22	28646	
489.41	30061	
489.61	30152	
489.81	27839	
490.01	27863	
490.21	30223	
490.41	30987	
490.61	27641	
490.8	27656	
491	29539	
491.2	28340	
491.4	28046	
491.6	27485	
491.8	29414	
491.99	29367	
492.19	27499	
492.39	27908	
492.59	30491	
492.79	30844	
492.99	29358	
493.18	28766	
493.38	31297	
493.58	32905	
493.78	30150	
493.98	29631	
494.18	31888	
494.37	31957	
494.57	31749	
494.77	31367	
494.97	33415	
495.17	34054	
495.37	31561	
495.56	32070	
495.76	34449	
495.96	34250	
496.16	33264	
496.36	32258	
496.55	34459	
496.75	34359	
496.95	32698	
497.15	32786	
497.35	34494	
497.54	34905	
497.74	32582	
497.94	34598	
498.14	35727	
498.34	35729	
498.53	33033	
498.73	33719	
498.93	35006	
499.13	35561	
499.33	34140	
499.52	34384	
499.72	36259	
499.92	35895	
500.12	34015	
500.32	34151	
500.51	36196	
500.71	36509	
500.91	35123	
501.11	34714	
501.31	36474	
501.5	36405	
501.7	35510	
501.9	34200	
502.1	35738	
502.29	36024	
502.49	34981	
502.69	34701	
502.89	35831	
503.09	35861	
503.28	33139	
503.48	33020	
503.68	34549	
503.88	34878	
504.07	34181	
504.27	33189	
504.47	35050	
504.67	34531	
504.86	33520	
505.06	32940	
505.26	33891	
505.46	35639	
505.65	32415	
505.85	32505	
506.05	33447	
506.25	33462	
506.44	31161	
506.64	31779	
506.84	32666	
507.04	33428	
507.23	31002	
507.43	31481	
507.63	34142	
507.83	32380	
508.02	31000	
508.22	30429	
508.42	34172	
508.62	31974	
508.81	30502	
509.01	31751	
509.21	31449	
509.4	32210	
509.6	31073	
509.8	30792	
510	31931	
510.19	33916	
510.39	30408	
510.59	30911	
510.79	32354	
510.98	34014	
511.18	31022	
511.38	31149	
511.57	32898	
511.77	32925	
511.97	31442	
512.17	30368	
512.36	33084	
512.56	32793	
512.76	30608	
512.95	30431	
513.15	33228	
513.35	31936	
513.55	31866	
513.74	31057	
513.94	33445	
514.14	32773	
514.33	32201	
514.53	32107	
514.73	32966	
514.92	33413	
515.12	31834	
515.32	31759	
515.51	33781	
515.71	34334	
515.91	33587	
516.11	31867	
516.3	35980	
516.5	33524	
516.7	32425	
516.89	33373	
517.09	33639	
517.29	33574	
517.48	33058	
517.68	32267	
517.88	33495	
518.07	34221	
518.27	33147	
518.47	31923	
518.66	34659	
518.86	33384	
519.06	31834	
519.25	32436	
519.45	33680	
519.65	35751	
519.84	32903	
520.04	33701	
520.24	35184	
520.43	33822	
520.63	31944	
520.83	31935	
521.02	33008	
521.22	33444	
521.42	32081	
521.61	33121	
521.81	33271	
522.01	33525	
522.2	32451	
522.4	32328	
522.6	34383	
522.79	33607	
522.99	32944	
523.18	32659	
523.38	35069	
523.58	35455	
523.77	35618	
523.97	33425	
524.17	37845	
524.36	37172	
524.56	35822	
524.76	35513	
524.95	37042	
525.15	36232	
525.34	35407	
525.54	35592	
525.74	37380	
525.93	36326	
526.13	36911	
526.33	36031	
526.52	38081	
526.72	37969	
526.91	37789	
527.11	37246	
527.31	38757	
527.5	39501	
527.7	37214	
527.89	36452	
528.09	38203	
528.29	39108	
528.48	37612	
528.68	37303	
528.87	39141	
529.07	38576	
529.27	36831	
529.46	36095	
529.66	37843	
529.85	38159	
530.05	35770	
530.25	36620	
530.44	39737	
530.64	38161	
530.83	36837	
531.03	37484	
531.23	39478	
531.42	39145	
531.62	38666	
531.81	37885	
532.01	40256	
532.21	40897	
532.4	38505	
532.6	39150	
532.79	41419	
532.99	41342	
533.18	39662	
533.38	40325	
533.58	41196	
533.77	41417	
533.97	40137	
534.16	40824	
534.36	42336	
534.55	41442	
534.75	40632	
534.95	39901	
535.14	42162	
535.34	41127	
535.53	39128	
535.73	41203	
535.92	42407	
536.12	40674	
536.31	39178	
536.51	40395	
536.71	41069	
536.9	40632	
537.1	39169	
537.29	39772	
537.49	41606	
537.68	40965	
537.88	40333	
538.07	39547	
538.27	41542	
538.46	42611	
538.66	39652	
538.86	40152	
539.05	41355	
539.25	41984	
539.44	40406	
539.64	39325	
539.83	40911	
540.03	41994	
540.22	39400	
540.42	39002	
540.61	40684	
540.81	41217	
541	39115	
541.2	40193	
541.39	39970	
541.59	40538	
541.78	39798	
541.98	38146	
542.18	39221	
542.37	39054	
542.57	37852	
542.76	39066	
542.96	38291	
543.15	39063	
543.35	37361	
543.54	36891	
543.74	38558	
543.93	38482	
544.13	36711	
544.32	37782	
544.52	38442	
544.71	37730	
544.91	35626	
545.1	36984	
545.3	37690	
545.49	38346	
545.69	35502	
545.88	36020	
546.08	39289	
546.27	38496	
546.47	36652	
546.66	35924	
546.86	38076	
547.05	38766	
547.24	35741	
547.44	36136	
547.63	36908	
547.83	38061	
548.02	36091	
548.22	36048	
548.41	36565	
548.61	37767	
548.8	35062	
549	35291	
549.19	36668	
549.39	37380	
549.58	34734	
549.78	35256	
549.97	37007	
550.17	36501	
550.36	35919	
550.55	37132	
550.75	36564	
550.94	37424	
551.14	34684	
551.33	34813	
551.53	35880	
551.72	36847	
551.92	35020	
552.11	34833	
552.31	36650	
552.5	36513	
552.69	36319	
552.89	34088	
553.08	36571	
553.28	36130	
553.47	35006	
553.67	35804	
553.86	36945	
554.06	35281	
554.25	33656	
554.44	34159	
554.64	37580	
554.83	37087	
555.03	34161	
555.22	34480	
555.42	36484	
555.61	35786	
555.8	33909	
556	34330	
556.19	35226	
556.39	36287	
556.58	34140	
556.78	34247	
556.97	35816	
557.16	35691	
557.36	35235	
557.55	33745	
557.75	34409	
557.94	36651	
558.13	33553	
558.33	33406	
558.52	36240	
558.72	34949	
558.91	33111	
559.1	33267	
559.3	34565	
559.49	34035	
559.69	32777	
559.88	33724	
560.07	35254	
560.27	35458	
560.46	33525	
560.66	33600	
560.85	34670	
561.04	33591	
561.24	32852	
561.43	32525	
561.63	34096	
561.82	34126	
562.01	34148	
562.21	33265	
562.4	34571	
562.59	36065	
562.79	33148	
562.98	33172	
563.18	34798	
563.37	36546	
563.56	33656	
563.76	33234	
563.95	34602	
564.14	34405	
564.34	33676	
564.53	33224	
564.73	35160	
564.92	35680	
565.11	33759	
565.31	33242	
565.5	35873	
565.69	34740	
565.89	33409	
566.08	33815	
566.27	35615	
566.47	36407	
566.66	34230	
566.85	33127	
567.05	35291	
567.24	34575	
567.44	33200	
567.63	34646	
567.82	35416	
568.02	35312	
568.21	33358	
568.4	33632	
568.6	35291	
568.79	35263	
568.98	33228	
569.18	33720	
569.37	35229	
569.56	37057	
569.76	33484	
569.95	34321	
570.14	34494	
570.34	34798	
570.53	32503	
570.72	32367	
570.91	35317	
571.11	34052	
571.3	32712	
571.49	33374	
571.69	34163	
571.88	33652	
572.07	33559	
572.27	33133	
572.46	33880	
572.65	34892	
572.85	32916	
573.04	33402	
573.23	35596	
573.43	34748	
573.62	33070	
573.81	33894	
574	35069	
574.2	34965	
574.39	33785	
574.58	33722	
574.78	36495	
574.97	35553	
575.16	34542	
575.36	34620	
575.55	36218	
575.74	36149	
575.93	33482	
576.13	34797	
576.32	35368	
576.51	36225	
576.71	33921	
576.9	35470	
577.09	36486	
577.28	35869	
577.48	34559	
577.67	33596	
577.86	35913	
578.05	36362	
578.25	34426	
578.44	34508	
578.63	35798	
578.83	37392	
579.02	33677	
579.21	35679	
579.4	35994	
579.6	36220	
579.79	34781	
579.98	37109	
580.17	36951	
580.37	36983	
580.56	34435	
580.75	35779	
580.94	37833	
581.14	37452	
581.33	36513	
581.52	35191	
581.71	37701	
581.91	38189	
582.1	35254	
582.29	35794	
582.48	37352	
582.68	37390	
582.87	36530	
583.06	36134	
583.25	37823	
583.45	37826	
583.64	37068	
583.83	37883	
584.02	37234	
584.21	38100	
584.41	36803	
584.6	36524	
584.79	37755	
584.98	38776	
585.18	35636	
585.37	35514	
585.56	37160	
585.75	37941	
585.94	35501	
586.14	36347	
586.33	37757	
586.52	36943	
586.71	35366	
586.91	34990	
587.1	35530	
587.29	36672	
587.48	33978	
587.67	34015	
587.87	35606	
588.06	35064	
588.25	34245	
588.44	32985	
588.63	33517	
588.83	33540	
589.02	30718	
589.21	29866	
589.4	30749	
589.59	30354	
589.78	27114	
589.98	27007	
590.17	27972	
590.36	28618	
590.55	25208	
590.74	25727	
590.94	29315	
591.13	27458	
591.32	25743	
591.51	25316	
591.7	28233	
591.89	27945	
592.09	25514	
592.28	26325	
592.47	27342	
592.66	29632	
592.85	26148	
593.05	26466	
593.24	28285	
593.43	29504	
593.62	27048	
593.81	27668	
594	28891	
594.19	29052	
594.39	27020	
594.58	26695	
594.77	28985	
594.96	29147	
595.15	26323	
595.34	27107	
595.54	28528	
595.73	27578	
595.92	25679	
596.11	26814	
596.3	29059	
596.49	27955	
596.68	26667	
596.88	27366	
597.07	29168	
597.26	28158	
597.45	26549	
597.64	28114	
597.83	28560	
598.02	29287	
598.22	26878	
598.41	27655	
598.6	29236	
598.79	28604	
598.98	27068	
599.17	28386	
599.36	29543	
599.55	30672	
599.74	29775	
599.94	29599	
600.13	30328	
600.32	29219	
600.51	27629	
600.7	27889	
600.89	31230	
601.08	31434	
601.27	27961	
601.47	29042	
601.66	30869	
601.85	31561	
602.04	28919	
602.23	28915	
602.42	30229	
602.61	30825	
602.8	28729	
602.99	28480	
603.18	30697	
603.37	31012	
603.57	29261	
603.76	30178	
603.95	31877	
604.14	31541	
604.33	29070	
604.52	29740	
604.71	31410	
604.9	30913	
605.09	30034	
605.28	29848	
605.47	31926	
605.66	31334	
605.86	29815	
606.05	29156	
606.24	31636	
606.43	30045	
606.62	29590	
606.81	30186	
607	31584	
607.19	30917	
607.38	28712	
607.57	28934	
607.76	30370	
607.95	29781	
608.14	29193	
608.33	29929	
608.52	30296	
608.72	31479	
608.91	28433	
609.1	28246	
609.29	30375	
609.48	29644	
609.67	28892	
609.86	28025	
610.05	29631	
610.24	29887	
610.43	28196	
610.62	27585	
610.81	31073	
611	30912	
611.19	28143	
611.38	28738	
611.57	30175	
611.76	31654	
611.95	27659	
612.14	27427	
612.33	30057	
612.52	29526	
612.71	28348	
612.9	27478	
613.09	29099	
613.28	31636	
613.47	27704	
613.66	29034	
613.85	30161	
614.04	29535	
614.24	27998	
614.43	27094	
614.62	30196	
614.81	30183	
615	28470	
615.19	28719	
615.38	29322	
615.57	29932	
615.76	28437	
615.95	29420	
616.14	30266	
616.33	29741	
616.52	28932	
616.71	29255	
616.9	30208	
617.09	30251	
617.28	28247	
617.47	29846	
617.66	29677	
617.85	29790	
618.04	29866	
618.22	29005	
618.41	30367	
618.6	31688	
618.79	29242	
618.98	29162	
619.17	32170	
619.36	30353	
619.55	29723	
619.74	29604	
619.93	31520	
620.12	31025	
620.31	30331	
620.5	30588	
620.69	32314	
620.88	32927	
621.07	31294	
621.26	30427	
621.45	32164	
621.64	32116	
621.83	30542	
622.02	29686	
622.21	31961	
622.4	32031	
622.59	31331	
622.78	31100	
622.97	31333	
623.16	32630	
623.35	30529	
623.54	29743	
623.72	31965	
623.91	31858	
624.1	30859	
624.29	29414	
624.48	33060	
624.67	31832	
624.86	30821	
625.05	29738	
625.24	32921	
625.43	31083	
625.62	32240	
625.81	29591	
626	31795	
626.19	31361	
626.38	30323	
626.56	29328	
626.75	30630	
626.94	31260	
627.13	29240	
627.32	27891	
627.51	30563	
627.7	32097	
627.89	27727	
628.08	29068	
628.27	29460	
628.46	29713	
628.65	28029	
628.83	27768	
629.02	30343	
629.21	29709	
629.4	28887	
629.59	29015	
629.78	30166	
629.97	30955	
630.16	29500	
630.35	28816	
630.54	31574	
630.72	31050	
630.91	28695	
631.1	29244	
631.29	30543	
631.48	30745	
631.67	29502	
631.86	28719	
632.05	30289	
632.24	30461	
632.42	28426	
632.61	29240	
632.8	30317	
632.99	30130	
633.18	29544	
633.37	29575	
633.56	30668	
633.75	30803	
633.93	29363	
634.12	29261	
634.31	31699	
634.5	31695	
634.69	29364	
634.88	29372	
635.07	30900	
635.25	31484	
635.44	30055	
635.63	30679	
635.82	30652	
636.01	30002	
636.2	29764	
636.39	29644	
636.57	31829	
636.76	31363	
636.95	29041	
637.14	30348	
637.33	31158	
637.52	31945	
637.7	28653	
637.89	29659	
638.08	30866	
638.27	32047	
638.46	29679	
638.65	29760	
638.83	31358	
639.02	30183	
639.21	29058	
639.4	29799	
639.59	30513	
639.78	29951	
639.96	28169	
640.15	28315	
640.34	30002	
640.53	30036	
640.72	27708	
640.91	27910	
641.09	29333	
641.28	30650	
641.47	27991	
641.66	28910	
641.85	29896	
642.03	29653	
642.22	28306	
642.41	27659	
642.6	28953	
642.79	28137	
642.97	26934	
643.16	27848	
643.35	28439	
643.54	27876	
643.73	26441	
643.91	27123	
644.1	27066	
644.29	27890	
644.48	25334	
644.67	25406	
644.85	26270	
645.04	26389	
645.23	23853	
645.42	24039	
645.6	24780	
645.79	25679	
645.98	23137	
646.17	21751	
646.36	23333	
646.54	23806	
646.73	22668	
646.92	21478	
647.11	22889	
647.29	23867	
647.48	21483	
647.67	21091	
647.86	24129	
648.05	24546	
648.23	21982	
648.42	23672	
648.61	24317	
648.8	24214	
648.98	22067	
649.17	22709	
649.36	23957	
649.55	23387	
649.73	22130	
649.92	22991	
650.11	23511	
650.3	23847	
650.48	21873	
650.67	21833	
650.86	24116	
651.05	22929	
651.23	21923	
651.42	22078	
651.61	23518	
651.79	23437	
651.98	22412	
652.17	21930	
652.36	23857	
652.54	22967	
652.73	21791	
652.92	21463	
653.11	23451	
653.29	23518	
653.48	20538	
653.67	21474	
653.85	22674	
654.04	23760	
654.23	20802	
654.42	20132	
654.6	21091	
654.79	21764	
654.98	19302	
655.16	19761	
655.35	20654	
655.54	20799	
655.73	19650	
655.91	19534	
656.1	22339	
656.29	21338	
656.47	19542	
656.66	21601	
656.85	21922	
657.03	22175	
657.22	20839	
657.41	20939	
657.59	22526	
657.78	22435	
657.97	20666	
658.16	21655	
658.34	23328	
658.53	23877	
658.72	22648	
658.9	23147	
659.09	23074	
659.28	23253	
659.46	21708	
659.65	21607	
659.84	23068	
660.02	23741	
660.21	21538	
660.4	21670	
660.58	24167	
660.77	23427	
660.96	22163	
661.14	21214	
661.33	24526	
661.52	24232	
661.7	21151	
661.89	25086	
662.08	22707	
662.26	22481	
662.45	21371	
662.64	21267	
662.82	23557	
663.01	22730	
663.2	21227	
663.38	22334	
663.57	23061	
663.75	23070	
663.94	21624	
664.13	22960	
664.31	22611	
664.5	23281	
664.69	21725	
664.87	22530	
665.06	22139	
665.25	23124	
665.43	22577	
665.62	22706	
665.8	23356	
665.99	22767	
666.18	21495	
666.36	21692	
666.55	23171	
666.74	23197	
666.92	21081	
667.11	22491	
667.29	22580	
667.48	23146	
667.67	22061	
667.85	21266	
668.04	22564	
668.22	22656	
668.41	21289	
668.6	21517	
668.78	22199	
668.97	22369	
669.15	21379	
669.34	20393	
669.53	22179	
669.71	22605	
669.9	20432	
670.08	21213	
670.27	22063	
670.46	22489	
670.64	21349	
670.83	21794	
671.01	21944	
671.2	22427	
671.38	20745	
671.57	20518	
671.76	23191	
671.94	23730	
672.13	20350	
672.31	21358	
672.5	22737	
672.69	22092	
672.87	20570	
673.06	20923	
673.24	22537	
673.43	22152	
673.61	21134	
673.8	20908	
673.98	22528	
674.17	22612	
674.36	21238	
674.54	20923	
674.73	22085	
674.91	22494	
675.1	20921	
675.28	20539	
675.47	22153	
675.65	22748	
675.84	20560	
676.03	21099	
676.21	21670	
676.4	21256	
676.58	21304	
676.77	21280	
676.95	23223	
677.14	21635	
677.32	20104	
677.51	19974	
677.69	22291	
677.88	21306	
678.06	19950	
678.25	20013	
678.44	21940	
678.62	21634	
678.81	19827	
678.99	20921	
679.18	22614	
679.36	22275	
679.55	20474	
679.73	21114	
679.92	22078	
680.1	21472	
680.29	21657	
680.47	20216	
680.66	21242	
680.84	22214	
681.03	19495	
681.21	20471	
681.4	21340	
681.58	21010	
681.77	19566	
681.95	19516	
682.14	21904	
682.32	22268	
682.51	20588	
682.69	19048	
682.88	20728	
683.06	21157	
683.25	20077	
683.43	20439	
683.62	20712	
683.8	20889	
683.99	19635	
684.17	18368	
684.36	20449	
684.54	18413	
684.73	16051	
684.91	15971	
685.1	17670	
685.28	17017	
685.46	15913	
685.65	15978	
685.83	17495	
686.02	16956	
686.2	15531	
686.39	15775	
686.57	17000	
686.76	18691	
686.94	15952	
687.13	16066	
687.31	17912	
687.5	17581	
687.68	15709	
687.86	16988	
688.05	19606	
688.23	17309	
688.42	17197	
688.6	16432	
688.79	17868	
688.97	17656	
689.16	17005	
689.34	15610	
689.52	18625	
689.71	18539	
689.89	16924	
690.08	16025	
690.26	17468	
690.45	17256	
690.63	16332	
690.81	15715	
691	16466	
691.18	16480	
691.37	15300	
691.55	17458	
691.74	16029	
691.92	18336	
692.1	15117	
692.29	14688	
692.47	16565	
692.66	15782	
692.84	15025	
693.02	15755	
693.21	16409	
693.39	17006	
693.58	16557	
693.76	15961	
693.94	18839	
694.13	19000	
694.31	16817	
694.5	17877	
694.68	18057	
694.86	18616	
695.05	17543	
695.23	17600	
695.42	19279	
695.6	21378	
695.78	17865	
695.97	16573	
696.15	18432	
696.34	17666	
696.52	15930	
696.7	16507	
696.89	17532	
697.07	16752	
697.25	16028	
697.44	17709	
697.62	16996	
697.81	17366	
697.99	15231	
698.17	15866	
698.36	16127	
698.54	16744	
698.72	15879	
698.91	14670	
699.09	16378	
699.28	16340	
699.46	15305	
699.64	15208	
699.83	16264	
700.01	17552	
700.19	16364	
700.38	15010	
700.56	18112	
700.74	17025	
700.93	15591	
701.11	16654	
701.29	17823	
701.48	18991	
701.66	16201	
701.84	16167	
702.03	17451	
702.21	18285	
702.39	15470	
702.58	16247	
702.76	17703	
702.94	17863	
703.13	15386	
703.31	18230	
703.49	17031	
703.68	18525	
703.86	15637	
704.04	16890	
704.23	17501	
704.41	18055	
704.59	15912	
704.78	17146	
704.96	18775	
705.14	18062	
705.33	15898	
705.51	16467	
705.69	17359	
705.87	18417	
706.06	17017	
706.24	15666	
706.42	17920	
706.61	18407	
706.79	17087	
706.97	15864	
707.16	17347	
707.34	17866	
707.52	16656	
707.7	15976	
707.89	17374	
708.07	17154	
708.25	16944	
708.44	17210	
708.62	17366	
708.8	18603	
708.98	17149	
709.17	16285	
709.35	17677	
709.53	17479	
709.72	15641	
709.9	15625	
710.08	17763	
710.26	17830	
710.45	17049	
710.63	15743	
710.81	17156	
710.99	17083	
711.18	16053	
711.36	15449	
711.54	16500	
711.72	16970	
711.91	15014	
712.09	14199	
712.27	15889	
712.45	16868	
712.64	14398	
712.82	13175	
713	14242	
713.18	14087	
713.37	12038	
713.55	12851	
713.73	13690	
713.91	11772	
714.1	10711	
714.28	9877.4	
714.46	11859	
714.64	10646	
714.83	8359.8	
715.01	9026.8	
715.19	10142	
715.37	9275.9	
715.55	8338	
715.74	8615.1	
715.92	10705	
716.1	8651.3	
716.28	9697.1	
716.47	8548.2	
716.65	9215.9	
716.83	9338.7	
717.01	8478.6	
717.19	8649.3	
717.38	11786	
717.56	9473.9	
717.74	9295.7	
717.92	8724.3	
718.1	11457	
718.29	10848	
718.47	9035.6	
718.65	9968.8	
718.83	12224	
719.01	12281	
719.2	9415.2	
719.38	10680	
719.56	11986	
719.74	13429	
719.92	9821.4	
720.11	10703	
720.29	11243	
720.47	10146	
720.65	8632.9	
720.83	9219.3	
721.02	9884.2	
721.2	9497.8	
721.38	9011.1	
721.56	8060.8	
721.74	8926.4	
721.92	9196.1	
722.11	9452.7	
722.29	9125.7	
722.47	10451	
722.65	9536	
722.83	8118.1	
723.01	9060.2	
723.2	9703.3	
723.38	10004	
723.56	7492.8	
723.74	8713.4	
723.92	9046.6	
724.1	10314	
724.29	7949.5	
724.47	9221.3	
724.65	9222	
724.83	9101.2	
725.01	7999.4	
725.19	8994	
725.37	9275.3	
725.56	9386.5	
725.74	7777.5	
725.92	8274.5	
726.1	9132.6	
726.28	9530.6	
726.46	8425.3	
726.64	8078.6	
726.83	9329.2	
727.01	9665	
727.19	7688.8	
727.37	8683.4	
727.55	9653.4	
727.73	10122	
727.91	7669.6	
728.09	7632.8	
728.28	10423	
728.46	11187	
728.64	9357.9	
728.82	9416.6	
729	12192	
729.18	11582	
729.36	9106.6	
729.54	11509	
729.72	13049	
729.91	11381	
730.09	11669	
730.27	10420	
730.45	11501	
730.63	12308	
730.81	11189	
730.99	10366	
731.17	12940	
731.35	11341	
731.53	10747	
731.71	10294	
731.9	12392	
732.08	12486	
732.26	10417	
732.44	10100	
732.62	12359	
732.8	11928	
732.98	10707	
733.16	9693	
733.34	11916	
733.52	10640	
733.7	10299	
733.88	10737	
734.07	11855	
734.25	11599	
734.43	9885.5	
734.61	11542	
734.79	13284	
734.97	11587	
735.15	10030	
735.33	10432	
735.51	11959	
735.69	11739	
735.87	11770	
736.05	10819	
736.23	11973	
736.41	11849	
736.59	10772	
736.77	11024	
736.95	12667	
737.13	12059	
737.32	10482	
737.5	10840	
737.68	13386	
737.86	12018	
738.04	10381	
738.22	12378	
738.4	11803	
738.58	12015	
738.76	11032	
738.94	9908.8	
739.12	12068	
739.3	11918	
739.48	11863	
739.66	11683	
739.84	12461	
740.02	12544	
740.2	10240	
740.38	10630	
740.56	12790	
740.74	11600	
740.92	11241	
741.1	11123	
741.28	12155	
741.46	12058	
741.64	10741	
741.82	11215	
742	12249	
742.18	12122	
742.36	10849	
742.54	10373	
742.72	12615	
742.9	11208	
743.08	11266	
743.26	10069	
743.44	12839	
743.62	12620	
743.8	11403	
743.98	10411	
744.16	12155	
744.34	11890	
744.52	11211	
744.7	11043	
744.88	12257	
745.06	11580	
745.24	11054	
745.42	11246	
745.6	12370	
745.78	11871	
745.96	9581.8	
746.14	9987.3	
746.32	12957	
746.5	12041	
746.68	10647	
746.86	9900.6	
747.03	12532	
747.21	10654	
747.39	10515	
747.57	9897.2	
747.75	11526	
747.93	11927	
748.11	9905.3	
748.29	9735.4	
748.47	13226	
748.65	11200	
748.83	10666	
749.01	10391	
749.19	11774	
749.37	10837	
749.55	10114	
749.73	10354	
749.91	11445	
750.09	11081	
750.26	10178	
750.44	9478	
750.62	11426	
750.8	11292	
750.98	9398.8	
751.16	9813.9	
751.34	11441	
751.52	10648	
751.7	10739	
751.88	9407.7	
752.06	11811	
752.24	11576	
752.42	9239.8	
752.59	9641.2	
752.77	11115	
752.95	12540	
753.13	10405	
753.31	9787.9	
753.49	10878	
753.67	11305	
753.85	9925.8	
754.03	9480.7	
754.21	11310	
754.38	11697	
754.56	9295.7	
754.74	8127	
754.92	9902.6	
755.1	10386	
755.28	7096.9	
755.46	6583.5	
755.64	9408.4	
755.82	9125.1	
755.99	5451.7	
756.17	5361.6	
756.35	5741.1	
756.53	7277.1	
756.71	3805.1	
756.89	4825.7	
757.07	6844.3	
757.25	6016.2	
757.42	5862	
757.6	6988.4	
757.78	7688.1	
757.96	6629.3	
758.14	5920	
758.32	5259.9	
758.5	5862.7	
758.67	6678.4	
758.85	5539.1	
759.03	5431.2	
759.21	6838.2	
759.39	6221.7	
759.57	4983.4	
759.75	6277	
759.92	7742.7	
760.1	7038.2	
760.28	6966.5	
760.46	7234.1	
760.64	7114.6	
760.82	6879.1	
760.99	7227.3	
761.17	6399.9	
761.35	8520.9	
761.53	7494.9	
761.71	7008.8	
761.89	7847.1	
762.06	8789.9	
762.24	8393.3	
762.42	7442.3	
762.6	7411.6	
762.78	8695	
762.96	8960.5	
763.13	8203.5	
763.31	8041.7	
763.49	9952.4	
763.67	9032.9	
763.85	8933.2	
764.02	9620.7	
764.2	10342	
764.38	9347.6	
764.56	7885.4	
764.74	8961.2	
764.91	10430	
765.09	9249.3	
765.27	7675.8	
765.45	7415.7	
765.63	10423	
765.8	10316	
765.98	7018.4	
766.16	7558.4	
766.34	8658.8	
766.52	8516.8	
766.69	8516.8	
766.87	7185	
767.05	9045.2	
767.23	9925.1	
767.41	7552.2	
767.58	7650.5	
767.76	9533.3	
767.94	9632.3	
768.12	7492.2	
768.29	8321.6	
768.47	8900.5	
768.65	9742.9	
768.83	6937.2	
769	8217.1	
769.18	8301.8	
769.36	9189.2	
769.54	7918.8	
769.72	6848.4	
769.89	9326.4	
770.07	9441.8	
770.25	7105.8	
770.43	8429.4	
770.6	9948.3	
770.78	10470	
770.96	7232.1	
771.14	7920.2	
771.31	8973.5	
771.49	8221.2	
771.67	6244.3	
771.85	6490	
772.02	7387	
772.2	8154.3	
772.38	7184.3	
772.55	6657.9	
772.73	8414.4	
772.91	8104.5	
773.09	6961	
773.26	7064.8	
773.44	8206.2	
773.62	7855.3	
773.8	6328.2	
773.97	6060.6	
774.15	8184.4	
774.33	7752.2	
774.5	6186.2	
774.68	6595.1	
774.86	8218.5	
775.04	7631.4	
775.21	6146.6	
775.39	6140.5	
775.57	7893.6	
775.74	8372.1	
775.92	5854.5	
776.1	5735	
776.27	7705.1	
776.45	9211.1	
776.63	5915.9	
776.81	5399.1	
776.98	7262.1	
777.16	8527.1	
777.34	6023.8	
777.51	6343.2	
777.69	7209.5	
777.87	6939.9	
778.04	5933.6	
778.22	6633.4	
778.4	6931	
778.57	7725.6	
778.75	5111.7	
778.93	5367	
779.1	6583.5	
779.28	6452.5	
779.46	5061.9	
779.64	5550.7	
779.81	7685.3	
779.99	8619.9	
780.17	6322.8	
780.34	6477.7	
780.52	6929.6	
780.69	7176.1	
780.87	5777.3	
781.05	5226.4	
781.22	6894.1	
781.4	6982.2	
781.58	5271.5	
781.75	4376.5	
781.93	6892.8	
782.11	6180.1	
782.28	6221.7	
782.46	5114.5	
782.64	5950	
782.81	6979.5	
782.99	5180.7	
783.17	5138.4	
783.34	6771.3	
783.52	5845.6	
783.69	5287.2	
783.87	6105	
784.05	5880.4	
784.22	5890.6	
784.4	6076.3	
784.58	5261.2	
784.75	6892.8	
784.93	5818.3	
785.1	4934.2	
785.28	5642.8	
785.46	6486.6	
785.63	5788.2	
785.81	4819.6	
785.99	4670.1	
786.16	5926.1	
786.34	6463.4	
786.51	4709	
786.69	5116.5	
786.87	5473.5	
787.04	6066.8	
787.22	4059.8	
787.39	5493.3	
787.57	5653.8	
787.75	6975.4	
787.92	5721.3	
788.1	5679.7	
788.27	5764.3	
788.45	5502.2	
788.63	5276.3	
788.8	3955.3	
788.98	6197.8	
789.15	5453.1	
789.33	4092.5	
789.5	4795	
789.68	6764.4	
789.86	6807.4	
790.03	5207.3	
790.21	4504.2	
790.38	6569.2	
790.56	5705.6	
790.73	4328	
790.91	4405.2	
791.09	5608.7	
791.26	6418.3	
791.44	4560.8	
791.61	4004.5	
791.79	5567.1	
791.96	5603.9	
792.14	4134.2	
792.32	3663.1	
792.49	5473.5	
792.67	5606	
792.84	4146.5	
793.02	3962.8	
793.19	5899.5	
793.37	6797.2	
793.54	3677.5	
793.72	3964.9	
793.89	6946.7	
794.07	5510.4	
794.25	4724.7	
794.42	3652.2	
794.6	6621.1	
794.77	6176	
794.95	4884.4	
795.12	4311	
795.3	5393.7	
795.47	6135.7	
795.65	4704.9	
795.82	4546.5	
796	5201.2	
796.17	7281.2	
796.35	4367.6	
796.52	5094.7	
796.7	5978.7	
796.87	6093.4	
797.05	5352	
797.22	5276.3	
797.4	6069.5	
797.57	7118.1	
797.75	4448.2	
797.92	4168.3	
798.1	6340.5	
798.27	5393.7	
798.45	3639.2	
798.62	3906.2	
798.8	5683.1	
798.97	6211.5	
799.15	4691.2	
799.32	4517.8	
799.5	4894	
799.67	5759.6	
799.85	4844.8	
800.02	3538.2	
800.2	5333.6	
800.37	5644.9	
800.55	5006.6	
800.72	4190.8	
800.9	6182.8	
801.07	6648.4	
801.25	5576.6	
801.42	4564.2	
801.6	6204.7	
801.77	5982.1	
801.95	4129.4	
802.12	4048.2	
802.29	5903.6	
802.47	5892	
802.64	4511	
802.82	3429	
802.99	5331.5	
803.17	6361.7	
803.34	4430.4	
803.52	3969.6	
803.69	7036.1	
803.87	5022.3	
804.04	4359.4	
804.21	4373.8	
804.39	6452.5	
804.56	5454.4	
804.74	3693.2	
804.91	4535.6	
805.09	5304.2	
805.26	5371.8	
805.44	3738.9	
805.61	4141	
805.78	5969.8	
805.96	5982.8	
806.13	4474.8	
806.31	4814.8	
806.48	4818.2	
806.66	5350	
806.83	4443.4	
807	4380.6	
807.18	5177.9	
807.35	5623.7	
807.53	4304.1	
807.7	3437.2	
807.87	6434.7	
808.05	5224.4	
808.22	4678.2	
808.4	3411.9	
808.57	5281	
808.74	4867.3	
808.92	3908.9	
809.09	4957.4	
809.27	5083.7	
809.44	5741.8	
809.61	3466.5	
809.79	3899.3	
809.96	6419	
810.14	5979.4	
810.31	3312.2	
810.48	4127.3	
810.66	5313.1	
810.83	6050.4	
811.01	3928.7	
811.18	4732.2	
811.35	5993.7	
811.53	4656.4	
811.7	4787.5	
811.87	4389.5	
812.05	5205.3	
812.22	5121.3	
812.39	3791.5	
812.57	3704.8	
812.74	5180.7	
812.92	6970.6	
813.09	4100.7	
813.26	4547.2	
813.44	6703.7	
813.61	5154.1	
813.78	3431.7	
813.96	4662.5	
814.13	5167.7	
814.3	4861.2	
814.48	5021.6	
814.65	4177.2	
814.82	6543.3	
815	5048.9	
815.17	4255	
815.34	5239.4	
815.52	5152.7	
815.69	5114.5	
815.87	4227	
816.04	3633.8	
816.21	5253	
816.38	4515.8	
816.56	4016.1	
816.73	3758	
816.9	6567.8	
817.08	6073.6	
817.25	3784	
817.42	4788.2	
817.6	4741	
817.77	5238	
817.94	4382	
818.12	3779.2	
818.29	4891.2	
818.46	7826.7	
818.64	3934.8	
818.81	3708.2	
818.98	4844.1	
819.16	7093.5	
819.33	4597.7	
819.5	4262.5	
819.67	5643.5	
819.85	6275	
820.02	4190.8	
820.19	4431.1	
820.37	5476.3	
820.54	5036	
820.71	4301.4	
820.88	5382.7	
821.06	5466.7	
821.23	5012.1	
821.4	4359.4	
821.58	4307.6	
821.75	6010.8	
821.92	5399.1	
822.09	3472.7	
822.27	3706.8	
822.44	5241.4	
822.61	5096.7	
822.79	3510.2	
822.96	6716.7	
823.13	5752.7	
823.3	4904.9	
823.48	4045.4	
823.65	3636.5	
823.82	5950	
823.99	4750.6	
824.17	5052.3	
824.34	3654.3	
824.51	6887.3	
824.68	5276.9	
824.86	3784	
825.03	4346.5	
825.2	5188.2	
825.37	6339.8	
825.55	3807.9	
825.72	4276.8	
825.89	7014.3	
826.06	6414.2	
826.24	4114.4	
826.41	4169.7	
826.58	6324.8	
826.75	5537.7	
826.92	3222.1	
827.1	3574.4	
827.27	8656.8	
827.44	6969.9	
827.61	3929.4	
827.79	4749.2	
827.96	4930.8	
828.13	5337	
828.3	4112.3	
828.47	3418.7	
828.65	5493.3	
828.82	5423	
828.99	5334.3	
829.16	4726	
829.34	5871.5	
829.51	5636.7	
829.68	4245.4	
829.85	4459.8	
830.02	6131.6	
830.2	5843.5	
830.37	3261	
830.54	5143.1	
830.71	6724.2	
830.88	5211.4	
831.05	3323.2	
831.23	3803.1	
831.4	6374.6	
831.57	7254.6	
831.74	3975.8	
831.91	3421.5	
832.09	5440.8	
832.26	5913.9	
832.43	4104.8	
832.6	4560.1	
832.77	5476.3	
832.94	6234.7	
833.12	3205.1	
833.29	4044.7	
833.46	5087.2	
833.63	7447.8	
833.8	4505.5	
833.97	4056.3	
834.15	5876.3	
834.32	5620.3	
834.49	4223.6	
834.66	4311.7	
834.83	6107	
835	4887.8	
835.17	3961.5	
835.35	4027.7	
835.52	5748.6	
835.69	5652.4	
835.86	4177.9	
836.03	3420.1	
836.2	5808.7	
836.37	5437.4	
836.55	4113.7	
836.72	3835.8	
836.89	5384.1	
837.06	5836	
837.23	4182	
837.4	4588.1	
837.57	6739.9	
837.75	7423.9	
837.92	3716.4	
838.09	3948.5	
838.26	5386.8	
838.43	6186.2	
838.6	4283	
838.77	3781.2	
838.94	7043.6	
839.11	6735.1	
839.29	4093.9	
839.46	3263.8	
839.63	5795.8	
839.8	5546.6	
839.97	3966.2	
840.14	3989.4	
840.31	5577.3	
840.48	5903.6	
840.65	3249.4	
840.82	3876.1	
841	5820.3	
841.17	5773.2	
841.34	3626.3	
841.51	3715.7	
841.68	5750	
841.85	5494.7	
842.02	3760.1	
842.19	3129.3	
842.36	5594.4	
842.53	5585.5	
842.7	3704.1	
842.87	4489.1	
843.05	7400	
843.22	5483.8	
843.39	3452.2	
843.56	3704.8	
843.73	5240.1	
843.9	5887.9	
844.07	5915.9	
844.24	5020.9	
844.41	8582.4	
844.58	5014.1	
844.75	3476.1	
844.92	3814.7	
845.09	5765.7	
845.26	5783.5	
845.43	3605.1	
845.6	3805.8	
845.77	5793	
845.94	5511.1	
846.12	4025.6	
846.29	4240.7	
846.46	6013.5	
846.63	5805.3	
846.8	3633.1	
846.97	4395.6	
847.14	6291.4	
847.31	5741.8	
847.48	4047.5	
847.65	4502.1	
847.82	6161.7	
847.99	6032	
848.16	4807.3	
848.33	4530.8	
848.5	5332.9	
848.67	6338.5	
848.84	3577.8	
849.01	3748.5	
849.18	5154.7	
849.35	4848.9	
849.52	4540.3	
849.69	3568.2	
849.86	5982.8	
850.03	6215.6	
850.2	3634.5	
850.37	4416.8	
850.54	6129.6	
850.71	5475.6	
850.88	4351.9	
851.05	3586	
851.22	5698.1	
851.39	6447	
851.56	3446.7	
851.73	4136.2	
851.9	5089.2	
852.07	6027.2	
852.24	4003.1	
852.41	3612.6	
852.58	5608	
852.75	5165.7	
852.92	4062.5	
853.09	3546.4	
853.26	5423	
853.43	6224.5	
853.6	3595.6	
853.77	3067.2	
853.94	6396.5	
854.11	5083.1	
854.28	5335.6	
854.44	3869.3	
854.61	6847	
854.78	5883.8	
854.95	3613.3	
855.12	4560.8	
855.29	4644.8	
855.46	6771.3	
855.63	3590.8	
855.8	5019.6	
855.97	5343.8	
856.14	6178.7	
856.31	5100.1	
856.48	3938.9	
856.65	5296	
856.82	5040.7	
856.99	3400.3	
857.16	3807.2	
857.33	7050.5	
857.49	5424.4	
857.66	3915	
857.83	4171	
858	5410.7	
858.17	5597.1	
858.34	3439.9	
858.51	3627	
858.68	6571.9	
858.85	6607.4	
859.02	4217.5	
859.19	4534.2	
859.36	5047.6	
859.52	5141.1	
859.69	3607.8	
859.86	4278.2	
860.03	5134.9	
860.2	6400.6	
860.37	3229.6	
860.54	3645.4	
860.71	6089.3	
860.88	6462	
861.05	4031.8	
861.21	4544.4	
861.38	6539.2	
861.55	4904.9	
861.72	3250.1	
861.89	4006.5	
862.06	6139.8	
862.23	6606.7	
862.4	3507.5	
862.56	3768.9	
862.73	5876.3	
862.9	5515.9	
863.07	4246.1	
863.24	3254.9	
863.41	4993.6	
863.58	5098.1	
863.75	3686.3	
863.91	4116.4	
864.08	6446.3	
864.25	5952.1	
864.42	4517.1	
864.59	5050.3	
864.76	6754.2	
864.93	5040.7	
865.09	3530.7	
865.26	3850.9	
865.43	6365.8	
865.6	6705	
865.77	3145	
865.94	3558.7	
866.1	6405.4	
866.27	6056.5	
866.44	5396.4	
866.61	3414	
866.78	5481.7	
866.95	5967.8	
867.11	3442.6	
867.28	3190.1	
867.45	6135	
867.62	5171.1	
867.79	4181.3	
867.96	3607.2	
868.12	5077.6	
868.29	6101.6	
868.46	3124.5	
868.63	4787.5	
868.8	6258.6	
868.97	5998.5	
869.13	3741	
869.3	3768.3	
869.47	5902.2	
869.64	6186.2	
869.81	3597.6	
869.97	3629.7	
870.14	5826.5	
870.31	6508.4	
870.48	3496.6	
870.65	4616.1	
870.81	5400.5	
870.98	5350.7	
871.15	4109.6	
871.32	3751.9	
871.48	5852.4	
871.65	6578.1	
871.82	3558.7	
871.99	3988.8	
872.16	6960.4	
872.32	6297.5	
872.49	3609.9	
872.66	3661.8	
872.83	6029.9	
872.99	5284.4	
873.16	4117.1	
873.33	3534.1	
873.5	5655.1	
873.67	5655.8	
873.83	3814	
874	4816.8	
874.17	5821	
874.34	6918	
874.5	4620.2	
874.67	4461.2	
874.84	6492.7	
875.01	5066	
875.17	5099.4	
875.34	3551.2	
875.51	5732.3	
875.68	6892.8	
875.84	4399.7	
876.01	5302.2	
876.18	6007.4	
876.34	5963.7	
876.51	3630.4	
876.68	3516.4	
876.85	5415.5	
877.01	6281.8	
877.18	5152.7	
877.35	3533.4	
877.52	5526.1	
877.68	5014.1	
877.85	3472	
878.02	3558	
878.18	5556.8	
878.35	5265.3	
878.52	2861.7	
878.69	4024.9	
878.85	6025.1	
879.02	5991	
879.19	5101.5	
879.35	3902.7	
879.52	5930.9	
879.69	6217	
879.86	3053.5	
880.02	4040.6	
880.19	5563.6	
880.36	6720.8	
880.52	4101.4	
880.69	4280.9	
880.86	6087.9	
881.02	6098.9	
881.19	3965.6	
881.36	3844	
881.52	5937.1	
881.69	5272.8	
881.86	3857	
882.02	3756	
882.19	6214.9	
882.36	7335.8	
882.52	3669.3	
882.69	5055.1	
882.86	5746.6	
883.02	5657.2	
883.19	4352.6	
883.36	4115.1	
883.52	6103.6	
883.69	6985.6	
883.86	3613.3	
884.02	3229.6	
884.19	6081.8	
884.36	5526.1	
884.52	4030.4	
884.69	3825.6	
884.86	5259.9	
885.02	6698.2	
885.19	3928.7	
885.36	4104.1	
885.52	5557.5	
885.69	5705.6	
885.86	5180.7	
886.02	4568.3	
886.19	5997.8	
886.35	5505.6	
886.52	3962.1	
886.69	5053.7	
886.85	5157.5	
887.02	6421.1	
887.19	6421.1	
887.35	6421.1	
887.52	6421.1	
887.68	6421.1	
887.85	6421.1	
888.02	6421.1	
888.18	6421.1	
888.35	6421.1	
888.51	6421.1	
888.68	6421.1	
888.85	6421.1	
889.01	6421.1	
889.18	6421.1	
889.35	6421.1	
889.51	6421.1	
889.68	6421.1	
889.84	6421.1	
890.01	6421.1	
890.17	6421.1	
890.34	6421.1	
890.51	6421.1	
890.67	6421.1	
890.84	6421.1	
891	6421.1	
891.17	6421.1	
891.34	6421.1	
891.5	6421.1	
891.67	6421.1	
891.83	6421.1	
892	6421.1	
892.16	6421.1	
892.33	6421.1	
892.5	6421.1	
892.66	6421.1	
892.83	6421.1	
892.99	6421.1	
893.16	6421.1	
893.32	6421.1	
893.49	6421.1	
893.65	6421.1	
893.82	6421.1	
893.99	6421.1	
894.15	6421.1	
894.32	6421.1	
894.48	6421.1	
894.65	6421.1	
894.81	6421.1	
894.98	6421.1	
895.14	6421.1	
895.31	6421.1	
895.47	6421.1	
895.64	6421.1	
895.81	6421.1	
895.97	6421.1	
896.14	6421.1	
896.3	6421.1	
896.47	6421.1	
896.63	6421.1	
896.8	6421.1	
896.96	6421.1	
897.13	6421.1	
897.29	6421.1	
897.46	6421.1	
897.62	6421.1	
897.79	6421.1	
897.95	6421.1	
898.12	6421.1	
898.28	6421.1	
898.45	6421.1	
898.61	6421.1	
898.78	6421.1	
898.94	6421.1	
899.11	6421.1	
899.27	6421.1	
899.44	6421.1	
899.6	6421.1	
899.77	6421.1	
899.93	6421.1	
900.1	6421.1	
900.26	6421.1	
900.43	6421.1	
900.59	6421.1	
900.76	6421.1	
900.92	6421.1	
901.09	6421.1	
901.25	6421.1	
901.42	6421.1	
901.58	6421.1	
901.75	6421.1	
901.91	6421.1	
902.07	6421.1	
902.24	6421.1	
902.4	6421.1	
902.57	6421.1	
902.73	6421.1	
902.9	6421.1	
903.06	6421.1	
903.23	6421.1	
903.39	6421.1	
903.56	6421.1	
903.72	6421.1	
903.88	6421.1	
904.05	6421.1	
904.21	6421.1	
904.38	6421.1	
904.54	6421.1	
904.71	6421.1	
904.87	6421.1	
905.03	6421.1	
905.2	6421.1	
905.36	6421.1	
905.53	6421.1	
905.69	6421.1	
905.86	6421.1	
906.02	6421.1	
906.18	6421.1	
906.35	6421.1	
906.51	6421.1	
906.68	6421.1	
906.84	6421.1	
907.01	6421.1	
907.17	6421.1	
907.33	6421.1	
907.5	6421.1	
907.66	6421.1	
907.83	6421.1	
907.99	6421.1	
908.15	6421.1	
908.32	6421.1	
908.48	6421.1	
908.65	6421.1	
908.81	6421.1	
908.97	6421.1	
909.14	6421.1	
909.3	6421.1	
909.47	6421.1	
909.63	6421.1	
909.79	6421.1	
909.96	6421.1	
910.12	6421.1	
910.28	6421.1	
910.45	6421.1	
910.61	6421.1	
910.78	6421.1	
910.94	6421.1	
911.1	6421.1	
911.27	6421.1	
911.43	6421.1	
911.59	6421.1	
911.76	6421.1	
911.92	6421.1	
912.08	6421.1	
912.25	6421.1	
912.41	6421.1	
912.57	6421.1	
912.74	6421.1	
912.9	6421.1	
913.07	6421.1	
913.23	6421.1	
913.39	6421.1	
913.56	6421.1	
913.72	6421.1	
913.88	6421.1	
914.05	6421.1	
914.21	6421.1	
914.37	6421.1	
914.54	6421.1	
914.7	6421.1	
914.86	6421.1	
915.03	6421.1	
915.19	6421.1	
