Wavelength	Intensities	
nm	a.u.	
179.22	1941.6	
179.44	1945.2	
179.65	1938.1	
179.86	1952.4	
180.08	1914.9	
180.29	5040.7	
180.51	3585.3	
180.72	5784.8	
180.94	6752.8	
181.15	3296.5	
181.37	3238.5	
181.58	5613.5	
181.79	5902.2	
182.01	3485.6	
182.22	3686.3	
182.44	5842.9	
182.65	4903.5	
182.87	4657.8	
183.08	4111	
183.29	6180.8	
183.51	5126.1	
183.72	3801	
183.94	5556.1	
184.15	5485.1	
184.37	5608.7	
184.58	3310.9	
184.79	4545.1	
185.01	5040.1	
185.22	5877	
185.44	4827.7	
185.65	4025.6	
185.86	5341.1	
186.08	4963.6	
186.29	3175.7	
186.51	3476.1	
186.72	5069.4	
186.94	6061.3	
187.15	3961.5	
187.36	4123.2	
187.58	7803.4	
187.79	5591.6	
188.01	4371.7	
188.22	6795.8	
188.43	6704.4	
188.65	5919.3	
188.86	3375.1	
189.08	4115.7	
189.29	5279.7	
189.5	5337	
189.72	3798.3	
189.93	3887.7	
190.15	6080.4	
190.36	7320.1	
190.57	4220.9	
190.79	4080.2	
191	6154.1	
191.22	6133	
191.43	4186	
191.64	3439.2	
191.86	6439.5	
192.07	6204	
192.29	3644	
192.5	3861.1	
192.71	6115.9	
192.93	5191.6	
193.14	3777.1	
193.35	3866.6	
193.57	5268.1	
193.78	6059.9	
194	3046	
194.21	3717.7	
194.42	5021.6	
194.64	5503.6	
194.85	4091.2	
195.07	4871.4	
195.28	5578.7	
195.49	4825.7	
195.71	5135.6	
195.92	3549.8	
196.13	5658.5	
196.35	5847	
196.56	5449	
196.78	4149.2	
196.99	7216.4	
197.2	6768.5	
197.42	4754.7	
197.63	4186.7	
197.84	4897.4	
198.06	5736.4	
198.27	3824.9	
198.48	5128.8	
198.7	5288.5	
198.91	5347.9	
199.13	4151.2	
199.34	4192.2	
199.55	5883.1	
199.77	4726	
199.98	3625.6	
200.19	4235.2	
200.41	5345.2	
200.62	5047.6	
200.83	4373.1	
201.05	4604.5	
201.26	5401.2	
201.47	5131.5	
201.69	3651.5	
201.9	3522.5	
202.11	5425.8	
202.33	6583.5	
202.54	4003.1	
202.76	4388.8	
202.97	5613.5	
203.18	5662	
203.4	4347.8	
203.61	4184	
203.82	5576.6	
204.04	5149.3	
204.25	4255.7	
204.46	4135.5	
204.68	5509.7	
204.89	5758.9	
205.1	4058.4	
205.32	3534.8	
205.53	5956.2	
205.74	6063.4	
205.96	2993.4	
206.17	4301.4	
206.38	5899.5	
206.6	6047	
206.81	4805.2	
207.02	3910.9	
207.24	5765	
207.45	6252.4	
207.66	3922.5	
207.88	3365.5	
208.09	5712.5	
208.3	5511.1	
208.52	3616	
208.73	4038.6	
208.94	5546.6	
209.15	6220.4	
209.37	3956.7	
209.58	4197	
209.79	6054.5	
210.01	5298.8	
210.22	3108.1	
210.43	3264.5	
210.65	5514.5	
210.86	5954.1	
211.07	4034.5	
211.29	3697.9	
211.5	5885.9	
211.71	5418.9	
211.93	3625.6	
212.14	3651.5	
212.35	5408	
212.56	5645.6	
212.78	4158.7	
212.99	3485.6	
213.2	6501.6	
213.42	5265.3	
213.63	3738.9	
213.84	4031.1	
214.06	4900.1	
214.27	4964.3	
214.48	3909.6	
214.69	4226.3	
214.91	6253.1	
215.12	6350.8	
215.33	4333.5	
215.55	4713.1	
215.76	6814.3	
215.97	5876.3	
216.18	4098	
216.4	3973.1	
216.61	5159.5	
216.82	6043.6	
217.04	3684.3	
217.25	3801	
217.46	6210.1	
217.67	5898.2	
217.89	3258.3	
218.1	3388.7	
218.31	5583.4	
218.53	5698.1	
218.74	3882.9	
218.95	3732.8	
219.16	5423	
219.38	6414.2	
219.59	3712.3	
219.8	4423.6	
220.01	7178.1	
220.23	5500.2	
220.44	4889.2	
220.65	3642	
220.87	5526.8	
221.08	6146	
221.29	3381.9	
221.5	4545.8	
221.72	7651.9	
221.93	5231.9	
222.14	4240	
222.35	4968.4	
222.57	5547.9	
222.78	5847.6	
222.99	3992.2	
223.2	4310.3	
223.42	5826.5	
223.63	6005.3	
223.84	3110.9	
224.05	3005.1	
224.27	7088.7	
224.48	6421.1	
224.69	4954	
224.9	4170.3	
225.12	5715.9	
225.33	5438	
225.54	3325.2	
225.75	3762.1	
225.97	5020.3	
226.18	5318.6	
226.39	3939.6	
226.6	3781.2	
226.82	5279.7	
227.03	5045.5	
227.24	4176.5	
227.45	3406.5	
227.67	5859.9	
227.88	6562.4	
228.09	4714.4	
228.3	4681.7	
228.52	5971.2	
228.73	5476.3	
228.94	3938.2	
229.15	3405.8	
229.36	5396.4	
229.58	5324	
229.79	3850.2	
230	4598.4	
230.21	6624.5	
230.43	5676.3	
230.64	4182.6	
230.85	4371.7	
231.06	5951.4	
231.28	5969.8	
231.49	3412.6	
231.7	4086.4	
231.91	5831.2	
232.12	5501.5	
232.34	3498.6	
232.55	4071.4	
232.76	6189	
232.97	5740.5	
233.18	3666.5	
233.4	4105.5	
233.61	5750.7	
233.82	5255.1	
234.03	3772.4	
234.25	3801	
234.46	7710.6	
234.67	5523.4	
234.88	4305.5	
235.09	3655.6	
235.31	5809.4	
235.52	5427.1	
235.73	4146.5	
235.94	3462.4	
236.15	5254.4	
236.37	6756.9	
236.58	3609.2	
236.79	3981.3	
237	5851.7	
237.21	4997	
237.43	4283	
237.64	3348.4	
237.85	10159	
238.06	5076.9	
238.27	4422.2	
238.48	3518.4	
238.7	5840.8	
238.91	5358.9	
239.12	4011.3	
239.33	3970.3	
239.54	5075.5	
239.76	5421.7	
239.97	3969	
240.18	3971.7	
240.39	6947.4	
240.6	5808	
240.82	4111.6	
241.03	3375.7	
241.24	5531.6	
241.45	6428.6	
241.66	3545.7	
241.87	4285	
242.09	6277.7	
242.3	6682.5	
242.51	4373.8	
242.72	4052.2	
242.93	6013.5	
243.14	5481.7	
243.36	4641.4	
243.57	5031.9	
243.78	6400.6	
243.99	5924.8	
244.2	4025.6	
244.41	3645.4	
244.63	5044.1	
244.84	5864	
245.05	4287.8	
245.26	4012	
245.47	5827.8	
245.68	6161.7	
245.9	5371.1	
246.11	4205.2	
246.32	5341.8	
246.53	5768.4	
246.74	6576	
246.95	3354.6	
247.16	4965	
247.38	5477	
247.59	3321.8	
247.8	3997	
248.01	5167	
248.22	5405.3	
248.43	3579.2	
248.64	3870	
248.86	4896.7	
249.07	5248.9	
249.28	3540.3	
249.49	4083.6	
249.7	6062.7	
249.91	6231.3	
250.12	3330.7	
250.34	3379.1	
250.55	5621	
250.76	5547.3	
250.97	4131.4	
251.18	4147.1	
251.39	6225.8	
251.6	5664	
251.81	4276.8	
252.03	4190.8	
252.24	5251.7	
252.45	6056.5	
252.66	3459.7	
252.87	4472.1	
253.08	5565	
253.29	7411.6	
253.5	3475.4	
253.72	4899.4	
253.93	5329.5	
254.14	6631.3	
254.35	3778.5	
254.56	3919.8	
254.77	5750.7	
254.98	5119.2	
255.19	3704.8	
255.41	4870.1	
255.62	5623	
255.83	6229.2	
256.04	4313	
256.25	4229.1	
256.46	6877.1	
256.67	5165.7	
256.88	4109.6	
257.09	4588.8	
257.31	5157.5	
257.52	5219.6	
257.73	5190.9	
257.94	3748.5	
258.15	5298.1	
258.36	5560.2	
258.57	4747.2	
258.78	3009.8	
258.99	6055.8	
259.2	5350	
259.41	3864.5	
259.63	3883.6	
259.84	6383.5	
260.05	6855.2	
260.26	5022.3	
260.47	3687	
260.68	6088.6	
260.89	5395	
261.1	4618.2	
261.31	3647.4	
261.52	6110.5	
261.73	6510.5	
261.95	5025	
262.16	4358.8	
262.37	6262.7	
262.58	6341.2	
262.79	4891.2	
263	3874.1	
263.21	5542.5	
263.42	5028.4	
263.63	3951.2	
263.84	3876.1	
264.05	6154.1	
264.26	6492.7	
264.47	5023.7	
264.69	4370.4	
264.9	6204.7	
265.11	5755.5	
265.32	3700	
265.53	3777.1	
265.74	5622.4	
265.95	4913.8	
266.16	4123.2	
266.37	4512.4	
266.58	5667.4	
266.79	5365	
267	3792.8	
267.21	3522.5	
267.42	5121.3	
267.63	5495.4	
267.84	3984	
268.06	3409.2	
268.27	5973.2	
268.48	6280.4	
268.69	3910.9	
268.9	4587.4	
269.11	6231.3	
269.32	4900.8	
269.53	3973.1	
269.74	3687	
269.95	5905.7	
270.16	4872.1	
270.37	4026.3	
270.58	4663.2	
270.79	5299.5	
271	6049.7	
271.21	4304.8	
271.42	4010.6	
271.63	5623.7	
271.84	5109.7	
272.05	3207.1	
272.26	3583.3	
272.47	5558.2	
272.68	5780.1	
272.89	3785.3	
273.11	4510.3	
273.32	5352	
273.53	6511.9	
273.74	4395.6	
273.95	4201.1	
274.16	6219.7	
274.37	5609.4	
274.58	4425	
274.79	3482.2	
275	5692.7	
275.21	6291.4	
275.42	5320.6	
275.63	4521.9	
275.84	5763.7	
276.05	7318.1	
276.26	4227	
276.47	3936.9	
276.68	5357.5	
276.89	6604.7	
277.1	4578.6	
277.31	3535.5	
277.52	5799.8	
277.73	5959.6	
277.94	3392.1	
278.15	3898	
278.36	5762.3	
278.57	5153.4	
278.78	3793.5	
278.99	4343.7	
279.2	5183.4	
279.41	5081	
279.62	5065.3	
279.83	3577.1	
280.04	6868.2	
280.25	5008	
280.46	5051.7	
280.67	3990.8	
280.88	5120.6	
281.09	6214.2	
281.3	4274.1	
281.51	5399.1	
281.72	5183.4	
281.93	6118	
282.14	3727.3	
282.35	3979.2	
282.56	6040.8	
282.77	5979.4	
282.98	3827.7	
283.19	4785.4	
283.4	7450.5	
283.61	5468.1	
283.82	3525.2	
284.03	4977.9	
284.24	5638.1	
284.45	6184.2	
284.66	4969.7	
284.87	4791.6	
285.08	6053.1	
285.29	6310.5	
285.5	3340.9	
285.71	3882.9	
285.92	6206.7	
286.12	6881.2	
286.33	4974.5	
286.54	3885	
286.75	6017.6	
286.96	5354.1	
287.17	3532.7	
287.38	4858.5	
287.59	5105.6	
287.8	5055.8	
288.01	3943	
288.22	4572.4	
288.43	6121.4	
288.64	5052.3	
288.85	4648.9	
289.06	4506.2	
289.27	5956.2	
289.48	6506.4	
289.69	5003.2	
289.9	4513.7	
290.11	6176.7	
290.32	5225.1	
290.53	4739.7	
290.74	4348.5	
290.94	5946.6	
291.15	6039.5	
291.36	3773.7	
291.57	4526	
291.78	5239.4	
291.99	4930.1	
292.2	3632.4	
292.41	4404.5	
292.62	6102.9	
292.83	5830.6	
293.04	5416.9	
293.25	3664.5	
293.46	5372.5	
293.67	6129.6	
293.88	3771.7	
294.09	3588.7	
294.29	5037.3	
294.5	5687.2	
294.71	4029.7	
294.92	3824.9	
295.13	5276.3	
295.34	6684.6	
295.55	3396.2	
295.76	3454.2	
295.97	5917.9	
296.18	6808.1	
296.39	3560.1	
296.6	3755.3	
296.81	5613.5	
297.01	5988.9	
297.22	3928	
297.43	3687	
297.64	5109.7	
297.85	5116.5	
298.06	3069.9	
298.27	3345	
298.48	5611.4	
298.69	5234.6	
298.9	4149.2	
299.11	3662.5	
299.31	5004.6	
299.52	5040.1	
299.73	4337.6	
299.94	4274.1	
300.15	5546.6	
300.36	5144.5	
300.57	4289.1	
300.78	4272.7	
300.99	5427.1	
301.2	5646.2	
301.4	3702.7	
301.61	4076.8	
301.82	5837.4	
302.03	5956.9	
302.24	4613.4	
302.45	3588	
302.66	5780.1	
302.87	6328.2	
303.08	3719.1	
303.29	5204.6	
303.49	5281	
303.7	5611.4	
303.91	3321.1	
304.12	4911.7	
304.33	5066.7	
304.54	5659.9	
304.75	3785.3	
304.96	3598.3	
305.16	5846.3	
305.37	6670.9	
305.58	3263.8	
305.79	3360.7	
306	5909.8	
306.21	4881	
306.42	3696.6	
306.63	5829.2	
306.83	5394.3	
307.04	6163	
307.25	4143	
307.46	4128	
307.67	4747.2	
307.88	5976.7	
308.09	3665.2	
308.29	3850.9	
308.5	5653.8	
308.71	6166.4	
308.92	3975.1	
309.13	3621.5	
309.34	5397.8	
309.55	5487.2	
309.75	4650.3	
309.96	4264.6	
310.17	5947.3	
310.38	5227.1	
310.59	4600.4	
310.8	3502	
311.01	5355.4	
311.21	5368.4	
311.42	3579.2	
311.63	3711.6	
311.84	5257.8	
312.05	5747.3	
312.26	4186	
312.46	4562.9	
312.67	5355.4	
312.88	5042.1	
313.09	3645.4	
313.3	3490.4	
313.51	6358.9	
313.71	6713.9	
313.92	3571	
314.13	3770.3	
314.34	5723.4	
314.55	5375.9	
314.76	4732.9	
314.96	4021.5	
315.17	5594.4	
315.38	6013.5	
315.59	3663.1	
315.8	3478.8	
316.01	6450.4	
316.21	6525.5	
316.42	3459	
316.63	4033.1	
316.84	5397.8	
317.05	6295.5	
317.26	4322.6	
317.46	3857.7	
317.67	5482.4	
317.88	5976	
318.09	4650.9	
318.3	3375.1	
318.5	5235.3	
318.71	5876.3	
318.92	5957.5	
319.13	4295.3	
319.34	6095.4	
319.54	6296.8	
319.75	3362.8	
319.96	3254.9	
320.17	5973.9	
320.38	6131.6	
320.58	3337.5	
320.79	3981.9	
321	6216.3	
321.21	6246.3	
321.42	3969.6	
321.62	3261	
321.83	5131.5	
322.04	5560.9	
322.25	3829	
322.46	3721.2	
322.66	5634.6	
322.87	5844.2	
323.08	4523.3	
323.29	3594.2	
323.5	6653.9	
323.7	5061.2	
323.91	4996.4	
324.12	4453	
324.33	5575.3	
324.53	5879	
324.74	4297.3	
324.95	4528.1	
325.16	4843.4	
325.37	5346.6	
325.57	3626.3	
325.78	3697.3	
325.99	5587.5	
326.2	5000.5	
326.4	5300.1	
326.61	3321.1	
326.82	5487.2	
327.03	5730.2	
327.24	5268.7	
327.44	4945.8	
327.65	5821	
327.86	4663.9	
328.07	4252.9	
328.27	3463.1	
328.48	6269.5	
328.69	5097.4	
328.9	5271.5	
329.1	3899.3	
329.31	5421	
329.52	6434.7	
329.73	3625.6	
329.93	4158.7	
330.14	5520.6	
330.35	5847.6	
330.56	6009.4	
330.76	4552.6	
330.97	5369.1	
331.18	5720.7	
331.39	4046.1	
331.59	3290.4	
331.8	6184.2	
332.01	6287.9	
332.22	3706.1	
332.42	4278.9	
332.63	5700.9	
332.84	5249.6	
333.05	4093.2	
333.25	3717.7	
333.46	5274.9	
333.67	5597.1	
333.88	3815.4	
334.08	4166.3	
334.29	7466.2	
334.5	6221	
334.7	3528	
334.91	5243.5	
335.12	5061.9	
335.33	6022.4	
335.53	4035.9	
335.74	6029.9	
335.95	5273.5	
336.16	5124.7	
336.36	4036.5	
336.57	4717.2	
336.78	5021.6	
336.98	6186.2	
337.19	4979.3	
337.4	3998.3	
337.61	6722.1	
337.81	5053	
338.02	3756	
338.23	4877.6	
338.43	6341.2	
338.64	5119.9	
338.85	3612.6	
339.05	4848.2	
339.26	6417	
339.47	4960.2	
339.68	3654.9	
339.88	5446.9	
340.09	5806	
340.3	6051.1	
340.5	4315.8	
340.71	3269.2	
340.92	5012.7	
341.13	6325.5	
341.33	3517	
341.54	4311	
341.75	5747.3	
341.95	5350	
342.16	4147.1	
342.37	4491.9	
342.57	5113.1	
342.78	5547.9	
342.99	4595.6	
343.19	3264.5	
343.4	5939.8	
343.61	5842.2	
343.81	3900.7	
344.02	3594.2	
344.23	5950.7	
344.43	6445	
344.64	4559.5	
344.85	4412.7	
345.06	5838.8	
345.26	6158.2	
345.47	4181.3	
345.68	4996.4	
345.88	4894	
346.09	6062	
346.3	4298	
346.5	3174.4	
346.71	5489.2	
346.92	5242.8	
347.12	3306.8	
347.33	4207.2	
347.54	6104.3	
347.74	6576.7	
347.95	4189.5	
348.16	3118.4	
348.36	5342.5	
348.57	5178.6	
348.78	4138.3	
348.98	4573.1	
349.19	5457.2	
349.39	4958.1	
349.6	3293.8	
349.81	3691.1	
350.01	5763.7	
350.22	5227.1	
350.43	4027.7	
350.63	4942.4	
350.84	5599.8	
351.05	5316.5	
351.25	3721.8	
351.46	3335.5	
351.67	6128.2	
351.87	5208.7	
352.08	3927.3	
352.29	4483	
352.49	5990.3	
352.7	5732.9	
352.9	3566.2	
353.11	4399	
353.32	6655.2	
353.52	5353.4	
353.73	3472.7	
353.94	4536.9	
354.14	5840.1	
354.35	5661.3	
354.55	3607.8	
354.76	4024.3	
354.97	5819	
355.17	5591	
355.38	3321.8	
355.59	4762.9	
355.79	5163.6	
356	5653.8	
356.2	4015.4	
356.41	3469.3	
356.62	4863.2	
356.82	5430.5	
357.03	4302.1	
357.24	3847.5	
357.44	5193.6	
357.65	5309.7	
357.85	5216.9	
358.06	4048.2	
358.27	4912.4	
358.47	5190.9	
358.68	3340.2	
358.88	4250.9	
359.09	5731.6	
359.3	6154.1	
359.5	4978.6	
359.71	4362.9	
359.91	6612.2	
360.12	5971.2	
360.33	4156.7	
360.53	4757.4	
360.74	5154.1	
360.94	5202.5	
361.15	4495.3	
361.36	3573.7	
361.56	6001.9	
361.77	5421	
361.97	4923.3	
362.18	3858.4	
362.38	5984.8	
362.59	5013.4	
362.8	3569.6	
363	3379.1	
363.21	4831.2	
363.41	5542.5	
363.62	4144.4	
363.83	5251	
364.03	5610.8	
364.24	6605.4	
364.44	5292	
364.65	5281	
364.85	5367	
365.06	5020.3	
365.27	3750.5	
365.47	3743.7	
365.68	6361	
365.88	5279.7	
366.09	4197	
366.29	3812	
366.5	5623	
366.71	6087.2	
366.91	5173.9	
367.12	4369.7	
367.32	6619.7	
367.53	5951.4	
367.73	4236.6	
367.94	5268.1	
368.14	5841.5	
368.35	6866.2	
368.56	4146.5	
368.76	3991.5	
368.97	5935	
369.17	7755.7	
369.38	3740.3	
369.58	4072.7	
369.79	4986.8	
369.99	6356.9	
370.2	5130.8	
370.4	4122.6	
370.61	5659.2	
370.82	6941.9	
371.02	3979.2	
371.23	3310.2	
371.43	4864.6	
371.64	6313.2	
371.84	4062.5	
372.05	5279	
372.25	7645.1	
372.46	6004.6	
372.66	4025.6	
372.87	3956.7	
373.07	6048.3	
373.28	7686.7	
373.48	5109	
373.69	4778.6	
373.9	5456.5	
374.1	5528.2	
374.31	4984.1	
374.51	4528.1	
374.72	6356.2	
374.92	5175.2	
375.13	5255.8	
375.33	4341	
375.54	5907	
375.74	5246.9	
375.95	4413.4	
376.15	5634.6	
376.36	5883.8	
376.56	5701.5	
376.77	4410	
376.97	4900.1	
377.18	6867.5	
377.38	5905	
377.59	5314.5	
377.79	3886.4	
378	5760.3	
378.2	6150.1	
378.41	3987.4	
378.61	3867.2	
378.82	6255.2	
379.02	5273.5	
379.23	4057	
379.43	5311.7	
379.64	6286.6	
379.84	5921.4	
380.05	3975.1	
380.25	3900	
380.46	5990.3	
380.66	5543.9	
380.87	5328.8	
381.07	5715.9	
381.28	6643.6	
381.48	5941.2	
381.69	3985.3	
381.89	4045.4	
382.1	4916.5	
382.3	6176.7	
382.51	5130.8	
382.71	6067.4	
382.91	6086.6	
383.12	6536.4	
383.32	4427	
383.53	4629.1	
383.73	5827.2	
383.94	5685.2	
384.14	4455.7	
384.35	3591.5	
384.55	5532.2	
384.76	6046.3	
384.96	4343.7	
385.17	4743.1	
385.37	5952.8	
385.58	5231.2	
385.78	4622.3	
385.98	3583.9	
386.19	5414.1	
386.39	5883.1	
386.6	4112.3	
386.8	4345.1	
387.01	5994.4	
387.21	6082.5	
387.42	4759.5	
387.62	5328.8	
387.83	5246.9	
388.03	5969.8	
388.23	4377.9	
388.44	5167	
388.64	4957.4	
388.85	5040.7	
389.05	4761.5	
389.26	5403.2	
389.46	7002.7	
389.67	6397.9	
389.87	4683	
390.07	4739.7	
390.28	5554.8	
390.48	5143.1	
390.69	3923.2	
390.89	4186	
391.1	5319.9	
391.3	6322.8	
391.5	5457.8	
391.71	6180.1	
391.91	6021.7	
392.12	7107.1	
392.32	5575.3	
392.53	4754.7	
392.73	5395.7	
392.93	5595.7	
393.14	4413.4	
393.34	5160.9	
393.55	6180.1	
393.75	5601.9	
393.95	4366.3	
394.16	4306.2	
394.36	5317.9	
394.57	5993.7	
394.77	3874.8	
394.98	4264.6	
395.18	5327.4	
395.38	5550.7	
395.59	5261.9	
395.79	4134.8	
396	5413.5	
396.2	5927.5	
396.4	4961.5	
396.61	4857.8	
396.81	6063.4	
397.02	5375.2	
397.22	5152.7	
397.42	5211.4	
397.63	6049.7	
397.83	5289.9	
398.04	4029.7	
398.24	4519.9	
398.44	5851	
398.65	4900.8	
398.85	3820.8	
399.05	4027	
399.26	5230.5	
399.46	7042.3	
399.67	4388.1	
399.87	4091.8	
400.07	5556.8	
400.28	5932.3	
400.48	4186	
400.69	5241.4	
400.89	6175.3	
401.09	6612.9	
401.3	4008.6	
401.5	5272.2	
401.7	6868.9	
401.91	7068.9	
402.11	4330.8	
402.32	4638.6	
402.52	6208.8	
402.72	6059.3	
402.93	4808.6	
403.13	3651.5	
403.33	6953.5	
403.54	5636	
403.74	4530.8	
403.94	5476.3	
404.15	5756.2	
404.35	6968.6	
404.56	4277.5	
404.76	6249.7	
404.96	6156.9	
405.17	5890.6	
405.37	5307	
405.57	4853	
405.78	6190.3	
405.98	5639.4	
406.18	4302.1	
406.39	5232.6	
406.59	6141.9	
406.79	5771.9	
407	4154.6	
407.2	4214.7	
407.4	6174.6	
407.61	6394.4	
407.81	4218.1	
408.01	6535.1	
408.22	5183.4	
408.42	7241.6	
408.62	5361.6	
408.83	4739	
409.03	5794.4	
409.23	5590.3	
409.44	4812.7	
409.64	5075.5	
409.84	6601.3	
410.05	6540.5	
410.25	4842.8	
410.45	4663.9	
410.66	5979.4	
410.86	8516.8	
411.06	5055.8	
411.27	4894.6	
411.47	8219.2	
411.67	6018.3	
411.88	5167	
412.08	5378	
412.28	6694.1	
412.49	7240.9	
412.69	4873.5	
412.89	4893.3	
413.09	7048.4	
413.3	6896.9	
413.5	4915.1	
413.7	4554.7	
413.91	6126.8	
414.11	6999.3	
414.31	4727.4	
414.52	5210	
414.72	6643.6	
414.92	6557.6	
415.12	4680.3	
415.33	5323.4	
415.53	6951.5	
415.73	7130.3	
415.94	5592.3	
416.14	5043.5	
416.34	5838.8	
416.55	5666.7	
416.75	6296.8	
416.95	5679.7	
417.15	6830	
417.36	7720.8	
417.56	6434.7	
417.76	5488.6	
417.97	7297.6	
418.17	6963.1	
418.37	5033.9	
418.57	5061.2	
418.78	6674.3	
418.98	6371.9	
419.18	5989.6	
419.38	5954.1	
419.59	6366.5	
419.79	5963.7	
419.99	4975.9	
420.2	5308.3	
420.4	6912.6	
420.6	7109.9	
420.8	4836.6	
421.01	4678.9	
421.21	6688	
421.41	6962.4	
421.61	5269.4	
421.82	4917.9	
422.02	6147.3	
422.22	7150.1	
422.42	5745.2	
422.63	5407.3	
422.83	6331.6	
423.03	7507.2	
423.23	5415.5	
423.44	4347.8	
423.64	6412.9	
423.84	6172.6	
424.04	4823.6	
424.25	4516.5	
424.45	7365.9	
424.65	7326.9	
424.85	4304.8	
425.06	4911.7	
425.26	7281.2	
425.46	5724.1	
425.66	5424.4	
425.87	5038.7	
426.07	7047.7	
426.27	7002.7	
426.47	5199.8	
426.67	4547.9	
426.88	7451.2	
427.08	6842.9	
427.28	5462.6	
427.48	4528.1	
427.69	5717.2	
427.89	6437.4	
428.09	5429.8	
428.29	4584.7	
428.5	7165.2	
428.7	6687.3	
428.9	4403.8	
429.1	4997.7	
429.3	6511.2	
429.51	6958.3	
429.71	4803.2	
429.91	5546.6	
430.11	6767.2	
430.31	7036.8	
430.52	5030.5	
430.72	5341.1	
430.92	7433.4	
431.12	6830.7	
431.32	4701.5	
431.53	5160.9	
431.73	5739.1	
431.93	7535.2	
432.13	4640.7	
432.33	4490.5	
432.54	6153.5	
432.74	6554.9	
432.94	4401.8	
433.14	5491.3	
433.34	6759.7	
433.55	6197.2	
433.75	5403.9	
433.95	7275.1	
434.15	6513.9	
434.35	6180.8	
434.56	4596.3	
434.76	4041.3	
434.96	6388.3	
435.16	6690.7	
435.36	4401.1	
435.56	5553.4	
435.77	6062.7	
435.97	6196.5	
436.17	6370.5	
436.37	5481	
436.57	6042.2	
436.78	5936.4	
436.98	7430.7	
437.18	6133.7	
437.38	6699.6	
437.58	6264.7	
437.78	6307.1	
437.99	4812	
438.19	6729.6	
438.39	8299.1	
438.59	4716.5	
438.79	4248.9	
438.99	7481.9	
439.2	6294.1	
439.4	4442.7	
439.6	4373.1	
439.8	6574.7	
440	7790.5	
440.2	5512.4	
440.4	5610.1	
440.61	6883.9	
440.81	7496.9	
441.01	4557.4	
441.21	5460.6	
441.41	7250.5	
441.61	6874.3	
441.81	5778.7	
442.02	6856.6	
442.22	7854.6	
442.42	6978.1	
442.62	4582	
442.82	4691.2	
443.02	7313.3	
443.22	6304.3	
443.43	4986.1	
443.63	4590.2	
443.83	6136.4	
444.03	6198.5	
444.23	5853.1	
444.43	5425.8	
444.63	6475.7	
444.83	7710.6	
445.04	4528.7	
445.24	5962.3	
445.44	6916	
445.64	6979.5	
445.84	5495.4	
446.04	5401.2	
446.24	6199.2	
446.44	7283.3	
446.65	4763.6	
446.85	5026.4	
447.05	6666.8	
447.25	7235.5	
447.45	5139	
447.65	4490.5	
447.85	6587.6	
448.05	6236.7	
448.25	5507.7	
448.46	5332.2	
448.66	6565.8	
448.86	6287.3	
449.06	4360.8	
449.26	5617.6	
449.46	6927.6	
449.66	5881.8	
449.86	5033.9	
450.06	5025	
450.26	6118	
450.47	6726.2	
450.67	5257.8	
450.87	5692.7	
451.07	6774.7	
451.27	6539.2	
451.47	4556	
451.67	5128.1	
451.87	6175.3	
452.07	7429.3	
452.27	4780	
452.47	4780.6	
452.67	6504.3	
452.88	7060.7	
453.08	4205.8	
453.28	6239.5	
453.48	7716.1	
453.68	6448.4	
453.88	4686.4	
454.08	5003.9	
454.28	6795.2	
454.48	6447	
454.68	5520	
454.88	6092	
455.08	6948.8	
455.28	6669.6	
455.48	4560.8	
455.68	5101.5	
455.89	7393.2	
456.09	6974	
456.29	4829.1	
456.49	4860.5	
456.69	7279.2	
456.89	6499.6	
457.09	5403.9	
457.29	5745.2	
457.49	6812.9	
457.69	6864.8	
457.89	5154.7	
458.09	4558.1	
458.29	6430.6	
458.49	7242.3	
458.69	5514.5	
458.89	4885.8	
459.09	7473	
459.29	7555	
459.49	5029.1	
459.69	5881.1	
459.9	6959	
460.1	6397.2	
460.3	5012.1	
460.5	4732.2	
460.7	6908.5	
460.9	6610.2	
461.1	4340.3	
461.3	5677	
461.5	7536.5	
461.7	7084.6	
461.9	4671.4	
462.1	5279	
462.3	6541.9	
462.5	7191.1	
462.7	4728.1	
462.9	4857.8	
463.1	8313.4	
463.3	7862.2	
463.5	5017.5	
463.7	5999.2	
463.9	6663.4	
464.1	7120.1	
464.3	5027.8	
464.5	5445.5	
464.7	7368.6	
464.9	6891.4	
465.1	6742.6	
465.3	5707	
465.5	7780.9	
465.7	7539.9	
465.9	5898.1	
466.1	5786.2	
466.3	7424.6	
466.5	7301.7	
466.7	6574.7	
466.9	5458.5	
467.1	7150.8	
467.3	8099.7	
467.5	6501.6	
467.7	5296.7	
467.9	8357.8	
468.1	9279.3	
468.3	6184.9	
468.5	6591.7	
468.7	7015.7	
468.9	7131	
469.1	5675.6	
469.3	6302.3	
469.5	9079.3	
469.7	6548	
469.9	6120	
470.1	5315.8	
470.3	7053.9	
470.5	7081.2	
470.7	6640.2	
470.9	5458.5	
471.1	6759	
471.3	7395.9	
471.5	5238	
471.69	7334.5	
471.89	6696.9	
472.09	6260.6	
472.29	6034.7	
472.49	6602.7	
472.69	6377.4	
472.89	7373.4	
473.09	5156.1	
473.29	5340.4	
473.49	6606.7	
473.69	6864.1	
473.89	6393.8	
474.09	5521.3	
474.29	8162.5	
474.49	7842.4	
474.69	6283.9	
474.89	5656.5	
475.09	6828.6	
475.29	6781.5	
475.49	5061.9	
475.69	5298.1	
475.88	8543.4	
476.08	7111.9	
476.28	4978.6	
476.48	5501.5	
476.68	7668.3	
476.88	7452.6	
477.08	5367.7	
477.28	5681.7	
477.48	6961.7	
477.68	7708.6	
477.88	5081	
478.08	5461.9	
478.28	7907.2	
478.48	7124.9	
478.67	5497.4	
478.87	4930.1	
479.07	7690.8	
479.27	7169.9	
479.47	5760.3	
479.67	5734.3	
479.87	7549.5	
480.07	8074.5	
480.27	4940.4	
480.47	6741.9	
480.67	7200	
480.87	7850.5	
481.06	5139	
481.26	6113.9	
481.46	7088.7	
481.66	7042.3	
481.86	5722	
482.06	6756.9	
482.26	6851.1	
482.46	7921.5	
482.66	5669.5	
482.86	5250.3	
483.05	7185	
483.25	6576	
483.45	8334.6	
483.65	5662	
483.85	6716.7	
484.05	7002.7	
484.25	6087.2	
484.45	6545.3	
484.65	7968	
484.84	7873.8	
485.04	5455.1	
485.24	5554.8	
485.44	8196.7	
485.64	6378.7	
485.84	4700.8	
486.04	6259.3	
486.24	6825.9	
486.44	7221.1	
486.63	4735.6	
486.83	5601.2	
487.03	6685.9	
487.23	6882.5	
487.43	4774.5	
487.63	7286.7	
487.83	6865.5	
488.02	7890.1	
488.22	5757.5	
488.42	6389.7	
488.62	7838.9	
488.82	6698.2	
489.02	5502.2	
489.22	5409.4	
489.41	7697.6	
489.61	7232.7	
489.81	5074.2	
490.01	5160.9	
490.21	7557.7	
490.41	8246.5	
490.61	5108.3	
490.8	5268.7	
491	7000.6	
491.2	6296.8	
491.4	5993.7	
491.6	4913.8	
491.8	7061.4	
491.99	7322.2	
492.19	4775.9	
492.39	5310.4	
492.59	7646.4	
492.79	7647.8	
492.99	6099.5	
493.18	5177.3	
493.38	7707.9	
493.58	8417.8	
493.78	5843.5	
493.98	5388.2	
494.18	7333.8	
494.37	6718	
494.57	6036	
494.77	5874.3	
494.97	7466.9	
495.17	7654.6	
495.37	5354.1	
495.56	5694.7	
495.76	7926.3	
495.96	7423.9	
496.16	6568.5	
496.36	5400.5	
496.55	7553.6	
496.75	7150.1	
496.95	5863.3	
497.15	5694.7	
497.35	7703.1	
497.54	7489.4	
497.74	5520.6	
497.94	7187.7	
498.14	8251.3	
498.34	8087.4	
498.53	5071.5	
498.73	5969.1	
498.93	6815.6	
499.13	7430.7	
499.33	5745.9	
499.52	6301.6	
499.72	7398.6	
499.92	7881.9	
500.12	5403.2	
500.32	5739.1	
500.51	7808.9	
500.71	7473	
500.91	6503.7	
501.11	6050.4	
501.31	7677.2	
501.5	8079.9	
501.7	6750.8	
501.9	5648.3	
502.1	7464.8	
502.29	7750.2	
502.49	6102.3	
502.69	6660	
502.89	7678.5	
503.09	7622.5	
503.28	5221	
503.48	5273.5	
503.68	6905.1	
503.88	6941.9	
504.07	6335	
504.27	5836.7	
504.47	7265.5	
504.67	7453.9	
504.86	6265.4	
505.06	6020.3	
505.26	7032	
505.46	8939.4	
505.65	5877	
505.85	6055.8	
506.05	6966.5	
506.25	7471.7	
506.44	5208.7	
506.64	6197.2	
506.84	6935.1	
507.04	7877.9	
507.23	5431.9	
507.43	6057.9	
507.63	9071.1	
507.83	7145.4	
508.02	6046.3	
508.22	5720.7	
508.42	9287.5	
508.62	6943.3	
508.81	5956.9	
509.01	6554.2	
509.21	6842.9	
509.4	7053.2	
509.6	6113.9	
509.8	5407.3	
510	7099.6	
510.19	8648.6	
510.39	5429.2	
510.59	5513.8	
510.79	6849.8	
510.98	8288.1	
511.18	5539.8	
511.38	5713.8	
511.57	7764.5	
511.77	7598.6	
511.97	6414.9	
512.17	5242.1	
512.36	7675.8	
512.56	7740.6	
512.76	5386.8	
512.95	5149.3	
513.15	7791.2	
513.35	6391	
513.55	6352.1	
513.74	5491.3	
513.94	7866.2	
514.14	7106.5	
514.33	6429.3	
514.53	6172.6	
514.73	6992.4	
514.92	7298.3	
515.12	5574.6	
515.32	5390.9	
515.51	7348.1	
515.71	7964.6	
515.91	7065.5	
516.11	5498.8	
516.3	9037	
516.5	6876.4	
516.7	6010.1	
516.89	6683.9	
517.09	7084.6	
517.29	6825.9	
517.48	6333.7	
517.68	5619.6	
517.88	6707.1	
518.07	7420.5	
518.27	6227.2	
518.47	5216.2	
518.66	8034.9	
518.86	6616.3	
519.06	5013.4	
519.25	5575.9	
519.45	6992.4	
519.65	8460.2	
519.84	6227.2	
520.04	6840.9	
520.24	8749.6	
520.43	7536.5	
520.63	5874.9	
520.83	5621	
521.02	6780.1	
521.22	7490.8	
521.42	6236.7	
521.61	6815.6	
521.81	7015	
522.01	7246.4	
522.2	6029.2	
522.4	5842.2	
522.6	7755.7	
522.79	6478.4	
522.99	5840.8	
523.18	5125.4	
523.38	7459.4	
523.58	7339.2	
523.77	7122.8	
523.97	5018.9	
524.17	9239.1	
524.36	8441.7	
524.56	6424.5	
524.76	6032	
524.95	7301.7	
525.15	6974	
525.34	5771.9	
525.54	5717.9	
525.74	7574.1	
525.93	6572.6	
526.13	6997.2	
526.33	5694.7	
526.52	7863.5	
526.72	7378.1	
526.91	7008.8	
527.11	6208.1	
527.31	7958.4	
527.5	8371.4	
527.7	6112.5	
527.89	5069.4	
528.09	6765.1	
528.29	7264.8	
528.48	6489.3	
528.68	6221.7	
528.87	7772.7	
529.07	7886	
529.27	6032.6	
529.46	5496.7	
529.66	7320.1	
529.85	7795.9	
530.05	5301.5	
530.25	6015.6	
530.44	8775.5	
530.64	7269.6	
530.83	5752.1	
531.03	6027.9	
531.23	7671	
531.42	7634.1	
531.62	6789	
531.81	5952.1	
532.01	7836.9	
532.21	8344.8	
532.4	5614.2	
532.6	5975.3	
532.79	8750.3	
532.99	7720.8	
533.18	5950	
533.38	6982.2	
533.58	7363.8	
533.77	8153.6	
533.97	5886.5	
534.16	6747.4	
534.36	8323.6	
534.55	7293.5	
534.75	6858	
534.95	5870.8	
535.14	8045.8	
535.34	7333.8	
535.53	5704.3	
535.73	7696.9	
535.92	8681.3	
536.12	7469.6	
536.31	5667.4	
536.51	6931	
536.71	7830.1	
536.9	7400	
537.1	5868.8	
537.29	6005.3	
537.49	8266.3	
537.68	7229.3	
537.88	6378.1	
538.07	5535.7	
538.27	7519.5	
538.46	8590.5	
538.66	5403.2	
538.86	5904.3	
539.05	7460.8	
539.25	7929.7	
539.44	6202.6	
539.64	5800.5	
539.83	7260	
540.03	8396	
540.22	5664	
540.42	5831.9	
540.61	7645.1	
540.81	7763.2	
541	6324.1	
541.2	6954.2	
541.39	7189.7	
541.59	7571.3	
541.78	6642.9	
541.98	5720.7	
542.18	6792.4	
542.37	6810.9	
542.57	6236.1	
542.76	6718.7	
542.96	6956.3	
543.15	7742.7	
543.35	6245.6	
543.54	5472.9	
543.74	8088.1	
543.93	7589.1	
544.13	6229.2	
544.32	7410.9	
544.52	8034.2	
544.71	7199.3	
544.91	5265.3	
545.1	6613.6	
545.3	7167.9	
545.49	7990.5	
545.69	5247.6	
545.88	5897.5	
546.08	8884.1	
546.27	8441.7	
546.47	6482.5	
546.66	5664.7	
546.86	8174.8	
547.05	8837	
547.24	6008.1	
547.44	5797.1	
547.63	7078.5	
547.83	8243.8	
548.02	6141.9	
548.22	6470.9	
548.41	6866.8	
548.61	8295	
548.8	5770.5	
549	5737.7	
549.19	7585.7	
549.39	7831.4	
549.58	5388.9	
549.78	5993	
549.97	8009.6	
550.17	7505.1	
550.36	7051.8	
550.55	8023.9	
550.75	7380.9	
550.94	8449.2	
551.14	5739.1	
551.33	6174.6	
551.53	6750.8	
551.72	7885.4	
551.92	6081.8	
552.11	5877.7	
552.31	7866.9	
552.5	7962.5	
552.69	7683.3	
552.89	5565.7	
553.08	7829.4	
553.28	7512.6	
553.47	6012.2	
553.67	7081.9	
553.86	8644.5	
554.06	6820.4	
554.25	5075.5	
554.44	5738.4	
554.64	9387.9	
554.83	8877.9	
555.03	5735.7	
555.22	6120.7	
555.42	8068.3	
555.61	7780.9	
555.8	5880.4	
556	6257.9	
556.19	6914.6	
556.39	8322.3	
556.58	5898.8	
556.78	5993.7	
556.97	7614.3	
557.16	7438.2	
557.36	7205.4	
557.55	5575.9	
557.75	6633.4	
557.94	8486.8	
558.13	5742.5	
558.33	5431.2	
558.52	8356.4	
558.72	7043	
558.91	5625.1	
559.1	5887.2	
559.3	6795.8	
559.49	6525.5	
559.69	5063.3	
559.88	6262	
560.07	7702.4	
560.27	8127	
560.46	6482.5	
560.66	6651.8	
560.85	7496.9	
561.04	6630.6	
561.24	5623.7	
561.43	5808.7	
561.63	6852.5	
561.82	7154.9	
562.01	7118.1	
562.21	6100.9	
562.4	7743.4	
562.59	8625.4	
562.79	5999.9	
562.98	5649.7	
563.18	7557.7	
563.37	9200.8	
563.56	6520.7	
563.76	5440.8	
563.95	7012.9	
564.14	6892.8	
564.34	5902.2	
564.53	5643.5	
564.73	7550.2	
564.92	7912.7	
565.11	6064	
565.31	5421.7	
565.5	8099.7	
565.69	7024.5	
565.89	5567.1	
566.08	5922.7	
566.27	7963.9	
566.47	8396	
566.66	6552.8	
566.85	5093.3	
567.05	7514	
567.24	6924.2	
567.44	5513.1	
567.63	6997.9	
567.82	7745.4	
568.02	7548.1	
568.21	5495.4	
568.4	5951.4	
568.6	7339.2	
568.79	7360.4	
568.98	5359.5	
569.18	5509	
569.37	7283.3	
569.56	9469.1	
569.76	5902.2	
569.95	6964.5	
570.14	7743.4	
570.34	7657.4	
570.53	5360.2	
570.72	5394.3	
570.91	8214.4	
571.11	7303.1	
571.3	5906.3	
571.49	6926.2	
571.69	7299	
571.88	6883.9	
572.07	6449.1	
572.27	6467.5	
572.46	6870.3	
572.65	7943.4	
572.85	5628.5	
573.04	5979.4	
573.23	8243.8	
573.43	7412.3	
573.62	5309	
573.81	5987.6	
574	7354.3	
574.2	7184.3	
574.39	5661.3	
574.58	5857.9	
574.78	8224.6	
574.97	7462.1	
575.16	6176	
575.36	6397.9	
575.55	7814.4	
575.74	8020.5	
575.93	5276.3	
576.13	6393.1	
576.32	7225.9	
576.51	7752.9	
576.71	5705.6	
576.9	7118.1	
577.09	8171.4	
577.28	7651.2	
577.48	6152.1	
577.67	5197.7	
577.86	7245.7	
578.05	7612.3	
578.25	5880.4	
578.44	5988.3	
578.63	7370.6	
578.83	8630.8	
579.02	5229.8	
579.21	6855.9	
579.4	7651.2	
579.6	7176.8	
579.79	6081.1	
579.98	8390.5	
580.17	7962.5	
580.37	7965.2	
580.56	5456.5	
580.75	6279.1	
580.94	8394.6	
581.14	8274.5	
581.33	6762.4	
581.52	5616.2	
581.71	7790.5	
581.91	8601.5	
582.1	5175.9	
582.29	5887.9	
582.48	7406.8	
582.68	7283.3	
582.87	6381.5	
583.06	5930.9	
583.25	7733.8	
583.45	7510.6	
583.64	6623.8	
583.83	7338.6	
584.02	7112.6	
584.21	7587.7	
584.41	6670.9	
584.6	5890.6	
584.79	7330.4	
584.98	8160.5	
585.18	5283.1	
585.37	5322.7	
585.56	6826.6	
585.75	7664.2	
585.94	5646.2	
586.14	6266.1	
586.33	8348.2	
586.52	7393.2	
586.71	6085.2	
586.91	5902.2	
587.1	6747.4	
587.29	7912.7	
587.48	5886.5	
587.67	5715.2	
587.87	7665.5	
588.06	7881.3	
588.25	7146.7	
588.44	6436.1	
588.63	7376.8	
588.83	7962.5	
589.02	5907.7	
589.21	5803.9	
589.4	7258	
589.59	7072.3	
589.78	5114.5	
589.98	5368.4	
590.17	6847.7	
590.36	7527	
590.55	4860.5	
590.74	5806.7	
590.94	9000.1	
591.13	7458.7	
591.32	5517.2	
591.51	5046.2	
591.7	7969.3	
591.89	7306.5	
592.09	5176.6	
592.28	5554.8	
592.47	6558.3	
592.66	8464.9	
592.85	5113.1	
593.05	5354.8	
593.24	7090.8	
593.43	7943.4	
593.62	5337.7	
593.81	5868.8	
594	7165.8	
594.19	7422.5	
594.39	5358.2	
594.58	5180.7	
594.77	7494.9	
594.96	8147.5	
595.15	5197.7	
595.34	5982.8	
595.54	7576.8	
595.73	6653.2	
595.92	4629.1	
596.11	5857.2	
596.3	8109.3	
596.49	6778.1	
596.68	5574.6	
596.88	6145.3	
597.07	7855.3	
597.26	6576	
597.45	5091.3	
597.64	6376	
597.83	6819.1	
598.02	7548.8	
598.22	5196.4	
598.41	5894.7	
598.6	7343.3	
598.79	6736.5	
598.98	5199.1	
599.17	6283.2	
599.36	7268.2	
599.55	8520.2	
599.74	7432.8	
599.94	7092.8	
600.13	7892.9	
600.32	6665.5	
600.51	4980	
600.7	4998.4	
600.89	8538.7	
601.08	8555	
601.27	4917.9	
601.47	5940.5	
601.66	7798.7	
601.85	8505.2	
602.04	5587.5	
602.23	5973.9	
602.42	6835.4	
602.61	7467.6	
602.8	5462.6	
602.99	5248.9	
603.18	7194.5	
603.37	7379.5	
603.57	6042.9	
603.76	6538.5	
603.95	8208.9	
604.14	7722.9	
604.33	5262.6	
604.52	5733.6	
604.71	7276.4	
604.9	6972.7	
605.09	6341.9	
605.28	6126.2	
605.47	7980.3	
605.66	7660.1	
605.86	5911.1	
606.05	5388.2	
606.24	7895.6	
606.43	6429.9	
606.62	5662	
606.81	6543.9	
607	7902.4	
607.19	7090.1	
607.38	5160.9	
607.57	5362.9	
607.76	6839.5	
607.95	6371.9	
608.14	5758.9	
608.33	6462.7	
608.52	6894.8	
608.72	7796.6	
608.91	5014.8	
609.1	4869.4	
609.29	6961	
609.48	6460.7	
609.67	6051.1	
609.86	5057.1	
610.05	6595.1	
610.24	7060	
610.43	4829.1	
610.62	4548.5	
610.81	8197.3	
611	7886	
611.19	5048.9	
611.38	5790.3	
611.57	7267.6	
611.76	8656.1	
611.95	4833.2	
612.14	4645.5	
612.33	7103	
612.52	6554.2	
612.71	5419.6	
612.9	4515.1	
613.09	6135.7	
613.28	8558.5	
613.47	5133.6	
613.66	6097.5	
613.85	7207.5	
614.04	6686.6	
614.24	5187.5	
614.43	4325.3	
614.62	7365.9	
614.81	7232.1	
615	5764.3	
615.19	5819	
615.38	6582.9	
615.57	6984.9	
615.76	5616.9	
615.95	6626.5	
616.14	7338.6	
616.33	6971.3	
616.52	6016.9	
616.71	6195.8	
616.9	7322.2	
617.09	7077.1	
617.28	5221.6	
617.47	6812.9	
617.66	6352.1	
617.85	6399.9	
618.04	6196.5	
618.22	5670.1	
618.41	6652.5	
618.6	7598	
618.79	5554.8	
618.98	5148.6	
619.17	7894.9	
619.36	6156.2	
619.55	5207.3	
619.74	5302.9	
619.93	7101.7	
620.12	6537.8	
620.31	5875.6	
620.5	6098.2	
620.69	7777.5	
620.88	8055.3	
621.07	6798.6	
621.26	5735.7	
621.45	7283.9	
621.64	7309.9	
621.83	5889.3	
622.02	4958.8	
622.21	7288	
622.4	7055.9	
622.59	6467.5	
622.78	6171.2	
622.97	6673	
623.16	7679.9	
623.35	5844.9	
623.54	4902.2	
623.72	6805.4	
623.91	6999.3	
624.1	6067.4	
624.29	4693.9	
624.48	8151.6	
624.67	7362.4	
624.86	5925.5	
625.05	4939	
625.24	8220.5	
625.43	6483.2	
625.62	7757.7	
625.81	5124	
626	7633.5	
626.19	6812.2	
626.38	6008.7	
626.56	5382.1	
626.75	6634.7	
626.94	7477.8	
627.13	5982.8	
627.32	4620.2	
627.51	7369.3	
627.7	8739.4	
627.89	4884.4	
628.08	6008.1	
628.27	6600.6	
628.46	6868.2	
628.65	5139.7	
628.83	4794.3	
629.02	7363.1	
629.21	6633.4	
629.4	5620.3	
629.59	5819.6	
629.78	6573.3	
629.97	7658.7	
630.16	5846.3	
630.35	5312.4	
630.54	7972.1	
630.72	7815	
630.91	5269.4	
631.1	5905.7	
631.29	7221.8	
631.48	7415	
631.67	5901.6	
631.86	5399.8	
632.05	6744.6	
632.24	6864.8	
632.42	5030.5	
632.61	5679	
632.8	6950.1	
632.99	6534.4	
633.18	5669.5	
633.37	6143.9	
633.56	7137.9	
633.75	6976.7	
633.93	5608	
634.12	5344.5	
634.31	7992.5	
634.5	7636.2	
634.69	5356.1	
634.88	5887.9	
635.07	6950.1	
635.25	7552.2	
635.44	6322.1	
635.63	6527.6	
635.82	6717.3	
636.01	6265.4	
636.2	6270.2	
636.39	5729.5	
636.57	7980.3	
636.76	7638.2	
636.95	5141.1	
637.14	6719.4	
637.33	7240.9	
637.52	8274.5	
637.7	5007.3	
637.89	5980.8	
638.08	6886	
638.27	8390.5	
638.46	6024.4	
638.65	6614.3	
638.83	8391.9	
639.02	6690	
639.21	6017.6	
639.4	6481.8	
639.59	7234.8	
639.78	6752.8	
639.96	5300.1	
640.15	5218.2	
640.34	7006.1	
640.53	7277.8	
640.72	5042.8	
640.91	5374.6	
641.09	6541.9	
641.28	7988.4	
641.47	5306.3	
641.66	6224.5	
641.85	7176.1	
642.03	7496.9	
642.22	5996.5	
642.41	5438	
642.6	6602.7	
642.79	5967.8	
642.97	5246.2	
643.16	6047.7	
643.35	6622.4	
643.54	6465.4	
643.73	5139	
643.91	5978.7	
644.1	6354.8	
644.29	6988.4	
644.48	5305.6	
644.67	5371.8	
644.85	6637.5	
645.04	6948.1	
645.23	4877.6	
645.42	5117.2	
645.6	6417.7	
645.79	7694.2	
645.98	5324	
646.17	4279.6	
646.36	6268.1	
646.54	7025.9	
646.73	6205.3	
646.92	4919.9	
647.11	6547.4	
647.29	7742.7	
647.48	4965.6	
647.67	4850.3	
647.86	7952.3	
648.05	7976.2	
648.23	5408	
648.42	6649.8	
648.61	7212.3	
648.8	6971.3	
648.98	4926.7	
649.17	5393	
649.36	6509.8	
649.55	5990.3	
649.73	5008	
649.92	5831.2	
650.11	6413.6	
650.3	6771.9	
650.48	5212.1	
650.67	5021.6	
650.86	7152.9	
651.05	5930.2	
651.23	5142.4	
651.42	5147.2	
651.61	6469.5	
651.79	6634.7	
651.98	5379.3	
652.17	4955.4	
652.36	6943.3	
652.54	6043.6	
652.73	5033.9	
652.92	4747.9	
653.11	7049.8	
653.29	7096.2	
653.48	4282.3	
653.67	5361.6	
653.85	6821.8	
654.04	7879.9	
654.23	5606.7	
654.42	5122	
654.6	6403.3	
654.79	7103.7	
654.98	4667.3	
655.16	5187.5	
655.35	5979.4	
655.54	5999.2	
655.73	4748.6	
655.91	4646.2	
656.1	7230.7	
656.29	5889.3	
656.47	4147.8	
656.66	5999.2	
656.85	6257.9	
657.03	6193.7	
657.22	4700.1	
657.41	4810.7	
657.59	6321.4	
657.78	6081.8	
657.97	4384.7	
658.16	5217.5	
658.34	7050.5	
658.53	7311.9	
658.72	6213.5	
658.9	6718.7	
659.09	6234.7	
659.28	6422.4	
659.46	4909	
659.65	4823.6	
659.84	6162.3	
660.02	6589	
660.21	4734.2	
660.4	4623.6	
660.58	7118.1	
660.77	6452.5	
660.96	5303.6	
661.14	4283.7	
661.33	7666.9	
661.52	7631.4	
661.7	4276.2	
661.89	8178.2	
662.08	6032	
662.26	5672.2	
662.45	4589.5	
662.64	4723.3	
662.82	6795.2	
663.01	6027.2	
663.2	4739	
663.38	5567.7	
663.57	6673.6	
663.75	6541.9	
663.94	5071.5	
664.13	6476.4	
664.31	6041.5	
664.5	6743.3	
664.69	5229.1	
664.87	5887.9	
665.06	5814.9	
665.25	6673	
665.43	6269.5	
665.62	6249	
665.8	6954.9	
665.99	6194.4	
666.18	5070.1	
666.36	5174.5	
666.55	6962.4	
666.74	6825.9	
666.92	4625.7	
667.11	6469.5	
667.29	6235.4	
667.48	6895.5	
667.67	6021.7	
667.85	4926.7	
668.04	6322.1	
668.22	6254.5	
668.41	5195.7	
668.6	5330.9	
668.78	5988.9	
668.97	6313.2	
669.15	5554.8	
669.34	4397	
669.53	6034	
669.71	6484.6	
669.9	4611.3	
670.08	5323.4	
670.27	6086.6	
670.46	6740.5	
670.64	5514.5	
670.83	5789.6	
671.01	6014.2	
671.2	6593.8	
671.38	4698.7	
671.57	4607.2	
671.76	7244.3	
671.94	7877.9	
672.13	4574.5	
672.31	5744.6	
672.5	6843.6	
672.69	6026.5	
672.87	4660.5	
673.06	4975.9	
673.24	6604	
673.43	6113.9	
673.61	5457.8	
673.8	5085.8	
673.98	6841.6	
674.17	6963.8	
674.36	5656.5	
674.54	5469.4	
674.73	6685.3	
674.91	6844.3	
675.1	5170.4	
675.28	4782	
675.47	6343.2	
675.65	6957.6	
675.84	5041.4	
676.03	5389.6	
676.21	6108.4	
676.4	5567.7	
676.58	5904.3	
676.77	5546.6	
676.95	7699.7	
677.14	6055.8	
677.32	4671.4	
677.51	4453.6	
677.69	6954.2	
677.88	5646.2	
678.06	4543.1	
678.25	4655.7	
678.44	6338.5	
678.62	6062	
678.81	4317.1	
678.99	5411.4	
679.18	7280.5	
679.36	6742.6	
679.55	4984.1	
679.73	5597.8	
679.92	6718.7	
680.1	6092	
680.29	6343.2	
680.47	5053.7	
680.66	6001.9	
680.84	6655.2	
681.03	4256.4	
681.21	5436.7	
681.4	6100.9	
681.58	6036	
681.77	4698	
681.95	4716.5	
682.14	6975.4	
682.32	7377.5	
682.51	5666.7	
682.69	4421.6	
682.88	6074.3	
683.06	6740.5	
683.25	5412.8	
683.43	5885.9	
683.62	6298.2	
683.8	6753.5	
683.99	6019	
684.17	5256.5	
684.36	7695.6	
684.54	6292.7	
684.73	4459.1	
684.91	4700.8	
685.1	6750.8	
685.28	6139.8	
685.46	5354.1	
685.65	5485.1	
685.83	7009.5	
686.02	6344.6	
686.2	4894	
686.39	4937.7	
686.57	5908.4	
686.76	7732.4	
686.94	4829.1	
687.13	4934.2	
687.31	6837.5	
687.5	6333.7	
687.68	4404.5	
687.86	5776	
688.05	8074.5	
688.23	5780.7	
688.42	5754.8	
688.6	4830.5	
688.79	6185.5	
688.97	6186.2	
689.16	5306.3	
689.34	4182.6	
689.52	7020.4	
689.71	7139.9	
689.89	5565.7	
690.08	4835.3	
690.26	6457.2	
690.45	6342.6	
690.63	5793.7	
690.81	5003.2	
691	6135.7	
691.18	6075.6	
691.37	5177.9	
691.55	7513.3	
691.74	6059.9	
691.92	8269	
692.1	5169.1	
692.29	4574.5	
692.47	6361	
692.66	5614.2	
692.84	4824.3	
693.02	5412.1	
693.21	5716.6	
693.39	6239.5	
693.58	5489.9	
693.76	4884.4	
693.94	7546.1	
694.13	7259.4	
694.31	4780.6	
694.5	5940.5	
694.68	6054.5	
694.86	6365.1	
695.05	5117.2	
695.23	5324	
695.42	6752.8	
695.6	9244.5	
695.78	5793	
695.97	4841.4	
696.15	6793.1	
696.34	6184.2	
696.52	4646.2	
696.7	5601.2	
696.89	6577.4	
697.07	5991.7	
697.25	5436.7	
697.44	7078.5	
697.62	6543.9	
697.81	7021.8	
697.99	5177.3	
698.17	5705.6	
698.36	5857.2	
698.54	6636.8	
698.72	5502.9	
698.91	4475.5	
699.09	6164.4	
699.28	6068.8	
699.46	5173.2	
699.64	5006.6	
699.83	6001.2	
700.01	7425.3	
700.19	5839.4	
700.38	4203.1	
700.56	7262.8	
700.74	6016.2	
700.93	4667.3	
701.11	5482.4	
701.29	6601.3	
701.48	7699.7	
701.66	4803.9	
701.84	4829.1	
702.03	6125.5	
702.21	6841.6	
702.39	4412	
702.58	4981.3	
702.76	6598.6	
702.94	6707.1	
703.13	4400.4	
703.31	7015.7	
703.49	5894.1	
703.68	7137.9	
703.86	4659.8	
704.04	5584.1	
704.23	6444.3	
704.41	6875	
704.59	4786.1	
704.78	6094.8	
704.96	7506.5	
705.14	6898.2	
705.33	4489.1	
705.51	5490.6	
705.69	6217.6	
705.87	7135.1	
706.06	5715.9	
706.24	4515.1	
706.42	6602	
706.61	6834.8	
706.79	5716.6	
706.97	4526.7	
707.16	5973.2	
707.34	6645.7	
707.52	5739.8	
707.7	4795	
707.89	6234.7	
708.07	5935.7	
708.25	5721.3	
708.44	5774.6	
708.62	6078.4	
708.8	7256	
708.98	6010.8	
709.17	4864.6	
709.35	6473.6	
709.53	6597.2	
709.72	4456.4	
709.9	4720.6	
710.08	6753.5	
710.26	6804.7	
710.45	6307.7	
710.63	4902.8	
710.81	6482.5	
710.99	6485.2	
711.18	5609.4	
711.36	5071.5	
711.54	6326.2	
711.72	7128.3	
711.91	5186.8	
712.09	4567	
712.27	6558.3	
712.45	7217	
712.64	5502.2	
712.82	4395.6	
713	5908.4	
713.18	6124.8	
713.37	4668	
713.55	6019.7	
713.73	7151.5	
713.91	5634.6	
714.1	5136.3	
714.28	4625	
714.46	6980.2	
714.64	6076.3	
714.83	4115.1	
715.01	5076.9	
715.19	6229.2	
715.37	5601.9	
715.55	4737.6	
715.74	5056.4	
715.92	7279.8	
716.1	5145.9	
716.28	6203.3	
716.47	5248.9	
716.65	5925.5	
716.83	6081.8	
717.01	5057.1	
717.19	5227.8	
717.38	8170	
717.56	5636	
717.74	5341.8	
717.92	4412.7	
718.1	6888	
718.29	6027.9	
718.47	3934.8	
718.65	4668.7	
718.83	6699.6	
719.01	6577.4	
719.2	3752.6	
719.38	4965.6	
719.56	6296.8	
719.74	7914	
719.92	4401.8	
720.11	5713.2	
720.29	6414.9	
720.47	5474.2	
720.65	4078.2	
720.83	5060.5	
721.02	5939.1	
721.2	5636	
721.38	5119.2	
721.56	4332.1	
721.74	5179.3	
721.92	5389.6	
722.11	5674.9	
722.29	5319.3	
722.47	6693.4	
722.65	5816.9	
722.83	4377.2	
723.01	5445.5	
723.2	5881.1	
723.38	6199.2	
723.56	3713	
723.74	5016.8	
723.92	5374.6	
724.1	6648.4	
724.29	4246.1	
724.47	5596.4	
724.65	5422.3	
724.83	5322	
725.01	4176.5	
725.19	5170.4	
725.37	5428.5	
725.56	5522.7	
725.74	4029	
725.92	4355.3	
726.1	5335.6	
726.28	5707.7	
726.46	4762.2	
726.64	4466.6	
726.83	5672.2	
727.01	5954.1	
727.19	3996.3	
727.37	4920.6	
727.55	5791	
727.73	6411.5	
727.91	3973.7	
728.09	3814	
728.28	6328.9	
728.46	7048.4	
728.64	5018.2	
728.82	4939	
729	7475.1	
729.18	6647.7	
729.36	4005.1	
729.54	6589.7	
729.72	7780.2	
729.91	5924.8	
730.09	6108.4	
730.27	4674.1	
730.45	5732.3	
730.63	6404.7	
730.81	5261.9	
730.99	4317.8	
731.17	6888.7	
731.35	5467.4	
731.53	4899.4	
731.71	4463.2	
731.9	6702.3	
732.08	6910.5	
732.26	4735.6	
732.44	4383.3	
732.62	6935.8	
732.8	6322.8	
732.98	5280.3	
733.16	4209.9	
733.34	6371.9	
733.52	5114.5	
733.7	4745.8	
733.88	5068.7	
734.07	6195.8	
734.25	5930.2	
734.43	4144.4	
734.61	5812.8	
734.79	7538.6	
734.97	5840.1	
735.15	4341.7	
735.33	4670.1	
735.51	6218.3	
735.69	5817.6	
735.87	5930.2	
736.05	4936.3	
736.23	6091.3	
736.41	5790.3	
736.59	4674.8	
736.77	4870.8	
736.95	6494.1	
737.13	5908.4	
737.32	4307.6	
737.5	4610	
737.68	7051.8	
737.86	5762.3	
738.04	4158.7	
738.22	6157.6	
738.4	5521.3	
738.58	5943.2	
738.76	4856.4	
738.94	3672.7	
739.12	5706.3	
739.3	5505.6	
739.48	5576.6	
739.66	5171.8	
739.84	5949.3	
740.02	5949.3	
740.2	3792.2	
740.38	4197.7	
740.56	6408.8	
740.74	5218.2	
740.92	4857.8	
741.1	4893.3	
741.28	5771.2	
741.46	5598.5	
741.64	4431.8	
741.82	4992.3	
742	5793	
742.18	5849	
742.36	4650.9	
742.54	4236.6	
742.72	6456.6	
742.9	5105.6	
743.08	5173.2	
743.26	3798.3	
743.44	6692.1	
743.62	6516.6	
743.8	5268.7	
743.98	4242.7	
744.16	6260	
744.34	5903.6	
744.52	5150	
744.7	5156.1	
744.88	6334.4	
745.06	5812.8	
745.24	5228.5	
745.42	5345.9	
745.6	6432	
745.78	6180.8	
745.96	4003.1	
746.14	4408.6	
746.32	7238.9	
746.5	6498.2	
746.68	5010.7	
746.86	4390.8	
747.03	7062.8	
747.21	5158.2	
747.39	4926.7	
747.57	4443.4	
747.75	6100.9	
747.93	6534.4	
748.11	4386.7	
748.29	4312.3	
748.47	7774.1	
748.65	5790.3	
748.83	5144.5	
749.01	4883.7	
749.19	6268.1	
749.37	5477.6	
749.55	4721.3	
749.73	4839.4	
749.91	5951.4	
750.09	5681.7	
750.26	4870.1	
750.44	4208.6	
750.62	5992.4	
750.8	5954.8	
750.98	4114.4	
751.16	4440.7	
751.34	6076.3	
751.52	5321.3	
751.7	5292	
751.88	4075.5	
752.06	6604.7	
752.24	6303.6	
752.42	4051.6	
752.59	4450.9	
752.77	5927.5	
752.95	7300.3	
753.13	5239.4	
753.31	4599.7	
753.49	5526.8	
753.67	6148.7	
753.85	4928.1	
754.03	4491.2	
754.21	6404.7	
754.38	6842.3	
754.56	4681.7	
754.74	3670.6	
754.92	5674.9	
755.1	6434	
755.28	3809.9	
755.46	3855.6	
755.64	7339.9	
755.82	7533.1	
755.99	4235.2	
756.17	4434.5	
756.35	4924.7	
756.53	6638.1	
756.71	3280.2	
756.89	4212	
757.07	6201.9	
757.25	5167.7	
757.42	4797	
757.6	5730.2	
757.78	6255.9	
757.96	5156.8	
758.14	4449.6	
758.32	3895.2	
758.5	4723.3	
758.67	5557.5	
758.85	4247.5	
759.03	4383.3	
759.21	5781.4	
759.39	5124	
759.57	3751.9	
759.75	5089.2	
759.92	6383.5	
760.1	5661.3	
760.28	5478.3	
760.46	5661.3	
760.64	5359.5	
760.82	5091.9	
760.99	5203.9	
761.17	4308.2	
761.35	6169.2	
761.53	5155.4	
761.71	4438.6	
761.89	5184.8	
762.06	6079.7	
762.24	5498.8	
762.42	4474.1	
762.6	4227.7	
762.78	5496.1	
762.96	6265.4	
763.13	4855.1	
763.31	4516.5	
763.49	6424.5	
763.67	5460.6	
763.85	5420.3	
764.02	6100.9	
764.2	6559.6	
764.38	5790.3	
764.56	4318.5	
764.74	5304.2	
764.91	6780.1	
765.09	5621.7	
765.27	3960.8	
765.45	3861.1	
765.63	6827.9	
765.8	6704.4	
765.98	3523.2	
766.16	3959.4	
766.34	5151.3	
766.52	4873.5	
766.69	4882.4	
766.87	3734.8	
767.05	5597.8	
767.23	6417	
767.41	4104.8	
767.58	4384.7	
767.76	6226.5	
767.94	6318	
768.12	4205.8	
768.29	5050.3	
768.47	5720	
768.65	6520.7	
768.83	3829.7	
769	5062.6	
769.18	5218.2	
769.36	6038.8	
769.54	5110.4	
769.72	3916.4	
769.89	6326.2	
770.07	6493.4	
770.25	4279.6	
770.43	5603.2	
770.6	7170.6	
770.78	7690.1	
770.96	4455.7	
771.14	5169.8	
771.31	6201.2	
771.49	5576.6	
771.67	3551.9	
771.85	3866.6	
772.02	4778.6	
772.2	5565.7	
772.38	4405.2	
772.55	4166.9	
772.73	5904.3	
772.91	5665.4	
773.09	4576.5	
773.26	4648.2	
773.44	5842.9	
773.62	5504.3	
773.8	4010.6	
773.97	3755.3	
774.15	5913.9	
774.33	5503.6	
774.5	3935.5	
774.68	4293.2	
774.86	6114.6	
775.04	5566.4	
775.21	3930.7	
775.39	3988.8	
775.57	5859.9	
775.74	6358.3	
775.92	3827.7	
776.1	3765.5	
776.27	5790.3	
776.45	7208.2	
776.63	4039.3	
776.81	3498.6	
776.98	5458.5	
777.16	6647.7	
777.34	4227.7	
777.51	4587.4	
777.69	5446.9	
777.87	5190.9	
778.04	4220.2	
778.22	4939.7	
778.4	5244.8	
778.57	5988.3	
778.75	3476.1	
778.93	3784	
779.1	5054.4	
779.28	4912.4	
779.46	3502.7	
779.64	4046.1	
779.81	6141.2	
779.99	7093.5	
780.17	4883	
780.34	5079	
780.52	5500.2	
780.69	5778	
780.87	4372.4	
781.05	3889.8	
781.22	5595.1	
781.4	5754.8	
781.58	4057.7	
781.75	3158	
781.93	5696.8	
782.11	5017.5	
782.28	5068.7	
782.46	4143.7	
782.64	4839.4	
782.81	5902.2	
782.99	4221.5	
783.17	4203.1	
783.34	5839.4	
783.52	4926.7	
783.69	4360.8	
783.87	5260.5	
784.05	5114.5	
784.22	5096	
784.4	5247.6	
784.58	4494.6	
784.75	6093.4	
784.93	5098.1	
785.1	4119.8	
785.28	4790.9	
785.46	5792.3	
785.63	5094.7	
785.81	4083.6	
785.99	3995.6	
786.16	5209.3	
786.34	5652.4	
786.51	4001	
786.69	4450.9	
786.87	4835.3	
787.04	5439.4	
787.22	3852.2	
787.39	4875.5	
787.57	5040.1	
787.75	6272.9	
787.92	5068	
788.1	4998.4	
788.27	5153.4	
788.45	4912.4	
788.63	4697.4	
788.8	3344.3	
788.98	5643.5	
789.15	4802.5	
789.33	3433.8	
789.5	4186	
789.68	6122.1	
789.86	6193.7	
790.03	4624.3	
790.21	4019.5	
790.38	6026.5	
790.56	5248.3	
790.73	3850.9	
790.91	3937.6	
791.09	5079.6	
791.26	5937.1	
791.44	4119.8	
791.61	3552.5	
791.79	5060.5	
791.96	5199.8	
792.14	3640.6	
792.32	3211.2	
792.49	5096.7	
792.67	5262.6	
792.84	3721.2	
793.02	3525.2	
793.19	5591.6	
793.37	6391.7	
793.54	3247.4	
793.72	3597.6	
793.89	6554.9	
794.07	5115.1	
794.25	4108.9	
794.42	3344.3	
794.6	6240.8	
794.77	5863.3	
794.95	4589.5	
795.12	3996.3	
795.3	5113.8	
795.47	5802.6	
795.65	4384	
795.82	4203.8	
796	4919.9	
796.17	7029.3	
796.35	4070	
796.52	4789.5	
796.7	5702.9	
796.87	5853.1	
797.05	5094.7	
797.22	5049.6	
797.4	5739.1	
797.57	6912.6	
797.75	4224.3	
797.92	4167.6	
798.1	6078.4	
798.27	5160.2	
798.45	3391.4	
798.62	3702	
798.8	5425.1	
798.97	6019	
799.15	4472.8	
799.32	4235.2	
799.5	4666	
799.67	5601.2	
799.85	4573.1	
800.02	3296.5	
800.2	5023	
800.37	5477	
800.55	4803.9	
800.72	4000.4	
800.9	5973.9	
801.07	6402.6	
801.25	5441.5	
801.42	4445.5	
801.6	6032.6	
801.77	5771.9	
801.95	3995.6	
802.12	3837.2	
802.29	5706.3	
802.47	5674.2	
802.64	4316.4	
802.82	3239.2	
802.99	5109	
803.17	6210.1	
803.34	4205.8	
803.52	3821.5	
803.69	6879.8	
803.87	4880.3	
804.04	4182	
804.21	4341	
804.39	6279.1	
804.56	5375.9	
804.74	3528.7	
804.91	4384.7	
805.09	5172.5	
805.26	5288.5	
805.44	3663.8	
805.61	4034.5	
805.78	5847.6	
805.96	5917.3	
806.13	4435.2	
806.31	4803.9	
806.48	4694.6	
806.66	5296	
806.83	4354	
807	4298.7	
807.18	5116.5	
807.35	5597.8	
807.53	4274.1	
807.7	3394.2	
807.87	6402.6	
808.05	5173.9	
808.22	4694.6	
808.4	3420.1	
808.57	5214.1	
808.74	4825.7	
808.92	3897.3	
809.09	5029.8	
809.27	5053	
809.44	5777.3	
809.61	3502	
809.79	3842	
809.96	6394.4	
810.14	6015.6	
810.31	3336.1	
810.48	4061.1	
810.66	5283.8	
810.83	6083.1	
811.01	3891.8	
811.18	4371.7	
811.35	5937.7	
811.53	4575.2	
811.7	4796.3	
811.87	4451.6	
812.05	5168.4	
812.22	5109.7	
812.39	3751.2	
812.57	3699.3	
812.74	5195	
812.92	6984.9	
813.09	4123.2	
813.26	4511.7	
813.44	6760.3	
813.61	5125.4	
813.78	3370.3	
813.96	4652.3	
814.13	5150.6	
814.3	4845.5	
814.48	4975.2	
814.65	4066.6	
814.82	6587	
815	4938.3	
815.17	4240	
815.34	5206.6	
815.52	5117.9	
815.69	5107	
815.87	4166.3	
816.04	4157.4	
816.21	5224.4	
816.38	4568.3	
816.56	4089.1	
816.73	3798.3	
816.9	6618.4	
817.08	6104.3	
817.25	3779.2	
817.42	4797	
817.6	4730.8	
817.77	5246.9	
817.94	4356.7	
818.12	3781.9	
818.29	4884.4	
818.46	7872.4	
818.64	3911.6	
818.81	3732.8	
818.98	4783.4	
819.16	7167.2	
819.33	4516.5	
819.5	4218.1	
819.67	5615.5	
819.85	6298.2	
820.02	4093.9	
820.19	4437.9	
820.37	5481	
820.54	4999.8	
820.71	4327.4	
820.88	5371.8	
821.06	5501.5	
821.23	4952.7	
821.4	4345.8	
821.58	4287.8	
821.75	5993	
821.92	5386.8	
822.09	3449.5	
822.27	3553.2	
822.44	5272.2	
822.61	5104.2	
822.79	3517	
822.96	6779.5	
823.13	5762.3	
823.3	4936.3	
823.48	4010.6	
823.65	3592.1	
823.82	5955.5	
823.99	4728.1	
824.17	5198.4	
824.34	3692.5	
824.51	6938.5	
824.68	5238	
824.86	3841.3	
825.03	4364.2	
825.2	5171.8	
825.37	6368.5	
825.55	3760.1	
825.72	4285.7	
825.89	7066.9	
826.06	6506.4	
826.24	4080.9	
826.41	4115.1	
826.58	6348	
826.75	5531.6	
826.92	3208.5	
827.1	3629	
827.27	8785.8	
827.44	6935.8	
827.61	3949.8	
827.79	4788.2	
827.96	4955.4	
828.13	5367	
828.3	4087.1	
828.47	3461.1	
828.65	5451.7	
828.82	5382.1	
828.99	5287.2	
829.16	4665.3	
829.34	5826.5	
829.51	5590.3	
829.68	4281.6	
829.85	4463.9	
830.02	6102.9	
830.2	5878.4	
830.37	3282.2	
830.54	5200.5	
830.71	6662.7	
830.88	5155.4	
831.05	3305.4	
831.23	3863.8	
831.4	6386.9	
831.57	7222.5	
831.74	3949.8	
831.91	3464.5	
832.09	5390.3	
832.26	5831.9	
832.43	4048.8	
832.6	4642.1	
832.77	5377.3	
832.94	6230.6	
833.12	3231.7	
833.29	4020.2	
833.46	5629.9	
833.63	7501	
833.8	4485.7	
833.97	4162.2	
834.15	5887.2	
834.32	5634.6	
834.49	4220.9	
834.66	4320.5	
834.83	6074.3	
835	4877.6	
835.17	3924.6	
835.35	3957.4	
835.52	5728.9	
835.69	5608	
835.86	4185.4	
836.03	3403.7	
836.2	5822.4	
836.37	5455.1	
836.55	4146.5	
836.72	3848.8	
836.89	5373.9	
837.06	5915.2	
837.23	4187.4	
837.4	4569	
837.57	6751.5	
837.75	7509.2	
837.92	3715.7	
838.09	3979.9	
838.26	5381.4	
838.43	6164.4	
838.6	4292.5	
838.77	3875.4	
838.94	7025.2	
839.11	6722.1	
839.29	4072	
839.46	3163.4	
839.63	5754.1	
839.8	5531.6	
839.97	3971.7	
840.14	3941	
840.31	5545.2	
840.48	5784.1	
840.65	3224.2	
840.82	3920.5	
841	5829.9	
841.17	5781.4	
841.34	3663.8	
841.51	3767.6	
841.68	5700.2	
841.85	5485.1	
842.02	3809.2	
842.19	3035.8	
842.36	5595.1	
842.53	5552	
842.7	3609.9	
842.87	4549.2	
843.05	7428	
843.22	5468.8	
843.39	3482.2	
843.56	3754.6	
843.73	5227.1	
843.9	5921.4	
844.07	6029.9	
844.24	4991.6	
844.41	8771.5	
844.58	5029.8	
844.75	3562.8	
844.92	3811.3	
845.09	5871.5	
845.26	5849.7	
845.43	3586	
845.6	3860.4	
845.77	5901.6	
845.94	5528.2	
846.12	4083	
846.29	4210.6	
846.46	6059.3	
846.63	5838.8	
846.8	3613.3	
846.97	4337.6	
847.14	6333.7	
847.31	5790.3	
847.48	4130.1	
847.65	4539.7	
847.82	6182.8	
847.99	6172.6	
848.16	4861.2	
848.33	4504.2	
848.5	5391.6	
848.67	6346.7	
848.84	3685.7	
849.01	3736.9	
849.18	5230.5	
849.35	4850.3	
849.52	4594.3	
849.69	3546.4	
849.86	6038.1	
850.03	6286.6	
850.2	3650.2	
850.37	4403.8	
850.54	6219.7	
850.71	5464	
850.88	4370.4	
851.05	3585.3	
851.22	5730.2	
851.39	6385.6	
851.56	3435.8	
851.73	4209.3	
851.9	5076.9	
852.07	6112.5	
852.24	4042.7	
852.41	3607.2	
852.58	5691.3	
852.75	5171.8	
852.92	4102.8	
853.09	3497.2	
853.26	5373.2	
853.43	6311.2	
853.6	3600.3	
853.77	3070.6	
853.94	6448.4	
854.11	5752.7	
854.28	5453.1	
854.44	3925.3	
854.61	6719.4	
854.78	6169.2	
854.95	3606.5	
855.12	4608.6	
855.29	4664.6	
855.46	6591.7	
855.63	3631.7	
855.8	5014.8	
855.97	5317.2	
856.14	6198.5	
856.31	5153.4	
856.48	3978.5	
856.65	5347.2	
856.82	5048.2	
856.99	3498.6	
857.16	3983.3	
857.33	7118.7	
857.49	5466	
857.66	3893.2	
857.83	4240	
858	5388.2	
858.17	5657.2	
858.34	3443.3	
858.51	3577.8	
858.68	6587	
858.85	6648.4	
859.02	4270.7	
859.19	4549.2	
859.36	5011.4	
859.52	5101.5	
859.69	3655.6	
859.86	4257.7	
860.03	5160.9	
860.2	6417	
860.37	3267.2	
860.54	3618.1	
860.71	6076.3	
860.88	6511.9	
861.05	4075.5	
861.21	4562.2	
861.38	6608.8	
861.55	5018.2	
861.72	3350.5	
861.89	4007.2	
862.06	6167.8	
862.23	6700.3	
862.4	3530	
862.56	3794.9	
862.73	5958.9	
862.9	5618.3	
863.07	4243.4	
863.24	3239.2	
863.41	4963.6	
863.58	5070.1	
863.75	3667.9	
863.91	4161.5	
864.08	6475.7	
864.25	5954.1	
864.42	4517.8	
864.59	5102.9	
864.76	6885.3	
864.93	5165	
865.09	3603.1	
865.26	3883.6	
865.43	6307.1	
865.6	6778.8	
865.77	3152.5	
865.94	3609.2	
866.1	6430.6	
866.27	6126.2	
866.44	5488.6	
866.61	3438.5	
866.78	5527.5	
866.95	5941.8	
867.11	3513.6	
867.28	3151.8	
867.45	6141.9	
867.62	5212.1	
867.79	4183.3	
867.96	3608.5	
868.12	5134.9	
868.29	6181.5	
868.46	3592.8	
868.63	4887.1	
868.8	6247	
868.97	6011.5	
869.13	3753.2	
869.3	3772.4	
869.47	5954.8	
869.64	6192.4	
869.81	3639.2	
869.97	3648.1	
870.14	5860.6	
870.31	6574.7	
870.48	3474	
870.65	4584	
870.81	5419.6	
870.98	5360.9	
871.15	4179.2	
871.32	3796.9	
871.48	5926.8	
871.65	6647	
871.82	3547.1	
871.99	4014	
872.16	7094.8	
872.32	6352.8	
872.49	3654.3	
872.66	3627	
872.83	6083.8	
872.99	5296	
873.16	4176.5	
873.33	3607.2	
873.5	5689.9	
873.67	5715.2	
873.83	3818.1	
874	4827.1	
874.17	5850.4	
874.34	6993.8	
874.5	4687.1	
874.67	4480.3	
874.84	6547.4	
875.01	5101.5	
875.17	5141.8	
875.34	3575.8	
875.51	5719.3	
875.68	6942.6	
875.84	4407.9	
876.01	5394.3	
876.18	6066.8	
876.34	5950	
876.51	3671.3	
876.68	3571.7	
876.85	5478.3	
877.01	6366.5	
877.18	5177.3	
877.35	3658.4	
877.52	5566.4	
877.68	4981.3	
877.85	3517.7	
878.02	3571.7	
878.18	5618.9	
878.35	5278.3	
878.52	2869.9	
878.69	4106.9	
878.85	6077	
879.02	6049	
879.19	5188.9	
879.35	3917.1	
879.52	5950.7	
879.69	6318.7	
879.86	3129.3	
880.02	4071.4	
880.19	5557.5	
880.36	6890	
880.52	4074.1	
880.69	4332.1	
880.86	6119.3	
881.02	6266.1	
881.19	4001	
881.36	3934.1	
881.52	5982.1	
881.69	5321.3	
881.86	3905.5	
882.02	3818.8	
882.19	6315.9	
882.36	7437.5	
882.52	3701.4	
882.69	5101.5	
882.86	5846.3	
883.02	5595.1	
883.19	4412	
883.36	4165.6	
883.52	6160.3	
883.69	7075.7	
883.86	3675.4	
884.02	3295.9	
884.19	6129.6	
884.36	5521.3	
884.52	4172.4	
884.69	3837.2	
884.86	5374.6	
885.02	6742.6	
885.19	4053.6	
885.36	4145.8	
885.52	5586.9	
885.69	5765	
885.86	5279	
886.02	4642.1	
886.19	6150.1	
886.35	5504.3	
886.52	4014	
886.69	5113.1	
886.85	5118.6	
887.02	6472.9	
887.19	6472.9	
887.35	6472.9	
887.52	6472.9	
887.68	6472.9	
887.85	6472.9	
888.02	6472.9	
888.18	6472.9	
888.35	6472.9	
888.51	6472.9	
888.68	6472.9	
888.85	6472.9	
889.01	6472.9	
889.18	6472.9	
889.35	6472.9	
889.51	6472.9	
889.68	6472.9	
889.84	6472.9	
890.01	6472.9	
890.17	6472.9	
890.34	6472.9	
890.51	6472.9	
890.67	6472.9	
890.84	6472.9	
891	6472.9	
891.17	6472.9	
891.34	6472.9	
891.5	6472.9	
891.67	6472.9	
891.83	6472.9	
892	6472.9	
892.16	6472.9	
892.33	6472.9	
892.5	6472.9	
892.66	6472.9	
892.83	6472.9	
892.99	6472.9	
893.16	6472.9	
893.32	6472.9	
893.49	6472.9	
893.65	6472.9	
893.82	6472.9	
893.99	6472.9	
894.15	6472.9	
894.32	6472.9	
894.48	6472.9	
894.65	6472.9	
894.81	6472.9	
894.98	6472.9	
895.14	6472.9	
895.31	6472.9	
895.47	6472.9	
895.64	6472.9	
895.81	6472.9	
895.97	6472.9	
896.14	6472.9	
896.3	6472.9	
896.47	6472.9	
896.63	6472.9	
896.8	6472.9	
896.96	6472.9	
897.13	6472.9	
897.29	6472.9	
897.46	6472.9	
897.62	6472.9	
897.79	6472.9	
897.95	6472.9	
898.12	6472.9	
898.28	6472.9	
898.45	6472.9	
898.61	6472.9	
898.78	6472.9	
898.94	6472.9	
899.11	6472.9	
899.27	6472.9	
899.44	6472.9	
899.6	6472.9	
899.77	6472.9	
899.93	6472.9	
900.1	6472.9	
900.26	6472.9	
900.43	6472.9	
900.59	6472.9	
900.76	6472.9	
900.92	6472.9	
901.09	6472.9	
901.25	6472.9	
901.42	6472.9	
901.58	6472.9	
901.75	6472.9	
901.91	6472.9	
902.07	6472.9	
902.24	6472.9	
902.4	6472.9	
902.57	6472.9	
902.73	6472.9	
902.9	6472.9	
903.06	6472.9	
903.23	6472.9	
903.39	6472.9	
903.56	6472.9	
903.72	6472.9	
903.88	6472.9	
904.05	6472.9	
904.21	6472.9	
904.38	6472.9	
904.54	6472.9	
904.71	6472.9	
904.87	6472.9	
905.03	6472.9	
905.2	6472.9	
905.36	6472.9	
905.53	6472.9	
905.69	6472.9	
905.86	6472.9	
906.02	6472.9	
906.18	6472.9	
906.35	6472.9	
906.51	6472.9	
906.68	6472.9	
906.84	6472.9	
907.01	6472.9	
907.17	6472.9	
907.33	6472.9	
907.5	6472.9	
907.66	6472.9	
907.83	6472.9	
907.99	6472.9	
908.15	6472.9	
908.32	6472.9	
908.48	6472.9	
908.65	6472.9	
908.81	6472.9	
908.97	6472.9	
909.14	6472.9	
909.3	6472.9	
909.47	6472.9	
909.63	6472.9	
909.79	6472.9	
909.96	6472.9	
910.12	6472.9	
910.28	6472.9	
910.45	6472.9	
910.61	6472.9	
910.78	6472.9	
910.94	6472.9	
911.1	6472.9	
911.27	6472.9	
911.43	6472.9	
911.59	6472.9	
911.76	6472.9	
911.92	6472.9	
912.08	6472.9	
912.25	6472.9	
912.41	6472.9	
912.57	6472.9	
912.74	6472.9	
912.9	6472.9	
913.07	6472.9	
913.23	6472.9	
913.39	6472.9	
913.56	6472.9	
913.72	6472.9	
913.88	6472.9	
914.05	6472.9	
914.21	6472.9	
914.37	6472.9	
914.54	6472.9	
914.7	6472.9	
914.86	6472.9	
915.03	6472.9	
915.19	6472.9	
