Wavelength	Intensities	
nm	a.u.	
179.22	1872	
179.44	1872.2	
179.65	1871.8	
179.86	1872.5	
180.08	1892.3	
180.29	4646.2	
180.51	3375.7	
180.72	5455.1	
180.94	6392.4	
181.15	3121.1	
181.37	3115	
181.58	5313.8	
181.79	5547.9	
182.01	3241.3	
182.22	3446.7	
182.44	5595.7	
182.65	4687.1	
182.87	4305.5	
183.08	3845.4	
183.29	5894.1	
183.51	4844.1	
183.72	3529.3	
183.94	5059.2	
184.15	5270.8	
184.37	5319.3	
184.58	3125.9	
184.79	4220.9	
185.01	4877.6	
185.22	5589.6	
185.44	4422.9	
185.65	3743.7	
185.86	5157.5	
186.08	4767	
186.29	2998.9	
186.51	3250.1	
186.72	4916.5	
186.94	5723.4	
187.15	3694.5	
187.36	3915	
187.58	7421.2	
187.79	5336.3	
188.01	3964.2	
188.22	6235.4	
188.43	6392.4	
188.65	5584.8	
188.86	3243.3	
189.08	3912.3	
189.29	5106.3	
189.5	5086.5	
189.72	3592.8	
189.93	3637.9	
190.15	5794.4	
190.36	6870.3	
190.57	3950.5	
190.79	3831.7	
191	5872.2	
191.22	5874.9	
191.43	3910.3	
191.64	3220.1	
191.86	6102.9	
192.07	5892.7	
192.29	3405.8	
192.5	3605.1	
192.71	5773.9	
192.93	5029.8	
193.14	3552.5	
193.35	3662.5	
193.57	5033.9	
193.78	5763	
194	2871.3	
194.21	3467.2	
194.42	4877.6	
194.64	5272.8	
194.85	3893.9	
195.07	4460.5	
195.28	5313.1	
195.49	4643.4	
195.71	4757.4	
195.92	3342.3	
196.13	5474.2	
196.35	5559.6	
196.56	5058.5	
196.78	3864.5	
196.99	6804.7	
197.2	6360.3	
197.42	4423.6	
197.63	3936.2	
197.84	4731.5	
198.06	5457.2	
198.27	3662.5	
198.48	4789.5	
198.7	5031.2	
198.91	5188.9	
199.13	3857.7	
199.34	3900	
199.55	5652.4	
199.77	4597.7	
199.98	3408.5	
200.19	3892.5	
200.41	5087.2	
200.62	4913.1	
200.83	4078.9	
201.05	4315.8	
201.26	5190.9	
201.47	4928.1	
201.69	3507.5	
201.9	3290.4	
202.11	5234.6	
202.33	6183.5	
202.54	3661.8	
202.76	4080.9	
202.97	5377.3	
203.18	5312.4	
203.4	4005.1	
203.61	3968.3	
203.82	5319.9	
204.04	4941.1	
204.25	3936.2	
204.46	3822.9	
204.68	5315.2	
204.89	5505.6	
205.1	3831.1	
205.32	3282.9	
205.53	5604.6	
205.74	5741.8	
205.96	2832.3	
206.17	3961.5	
206.38	5620.3	
206.6	5780.7	
206.81	4392.9	
207.02	3635.8	
207.24	5503.6	
207.45	5888.6	
207.66	3688.4	
207.88	3205.8	
208.09	5514.5	
208.3	5286.5	
208.52	3447.4	
208.73	3747.8	
208.94	5255.1	
209.15	5933.6	
209.37	3658.4	
209.58	3913.7	
209.79	5781.4	
210.01	5092.6	
210.22	3000.3	
210.43	3123.2	
210.65	5265.3	
210.86	5661.3	
211.07	3715	
211.29	3432.4	
211.5	5579.3	
211.71	5214.8	
211.93	3414	
212.14	3476.1	
212.35	5221.6	
212.56	5399.1	
212.78	3904.8	
212.99	3175.7	
213.2	6173.9	
213.42	5031.9	
213.63	3528.7	
213.84	3760.8	
214.06	4714.4	
214.27	4739.7	
214.48	3768.3	
214.69	4013.3	
214.91	5899.5	
215.12	5932.3	
215.33	4016.7	
215.55	4332.8	
215.76	6434.7	
215.97	5627.8	
216.18	3794.9	
216.4	3712.3	
216.61	4969.1	
216.82	5749.3	
217.04	3403.7	
217.25	3521.8	
217.46	5883.1	
217.67	5638.1	
217.89	3037.8	
218.1	3188	
218.31	5295.4	
218.53	5477.6	
218.74	3621.5	
218.95	3475.4	
219.16	5227.8	
219.38	6123.4	
219.59	3461.7	
219.8	4166.3	
220.01	6712.6	
220.23	5284.4	
220.44	4562.9	
220.65	3388.7	
220.87	5348.6	
221.08	5870.8	
221.29	3207.8	
221.5	4222.2	
221.72	7151.5	
221.93	5019.6	
222.14	3960.8	
222.35	4638.6	
222.57	5322	
222.78	5610.1	
222.99	3734.8	
223.2	3977.2	
223.42	5545.2	
223.63	5717.2	
223.84	2899.9	
224.05	2843.3	
224.27	6662	
224.48	6077	
224.69	4596.3	
224.9	3928.7	
225.12	5491.3	
225.33	5265.3	
225.54	3120.4	
225.75	3515.7	
225.97	4866	
226.18	5147.2	
226.39	3674.1	
226.6	3521.1	
226.82	4977.2	
227.03	4866.7	
227.24	3932.8	
227.45	3229.6	
227.67	5614.2	
227.88	6128.9	
228.09	4306.9	
228.3	4375.8	
228.52	5681.1	
228.73	5234.6	
228.94	3652.9	
229.15	3214.6	
229.36	5221.6	
229.58	5131.5	
229.79	3633.8	
230	4259.1	
230.21	6236.7	
230.43	5329.5	
230.64	3908.9	
230.85	4046.1	
231.06	5660.6	
231.28	5667.4	
231.49	3272	
231.7	3801	
231.91	5641.5	
232.12	5302.9	
232.34	3302.7	
232.55	3813.3	
232.76	5849.7	
232.97	5478.3	
233.18	3426.9	
233.4	3925.3	
233.61	5544.5	
233.82	5039.4	
234.03	3572.3	
234.25	3562.1	
234.46	7297.6	
234.67	5335	
234.88	3945.8	
235.09	3520.5	
235.31	5573.2	
235.52	5160.9	
235.73	3849.5	
235.94	3294.5	
236.15	4989.5	
236.37	6322.8	
236.58	3432.4	
236.79	3750.5	
237	5547.9	
237.21	4753.3	
237.43	4044.7	
237.64	3110.2	
237.85	9416.6	
238.06	4884.4	
238.27	4115.7	
238.48	3291.1	
238.7	5580.7	
238.91	5088.5	
239.12	3667.2	
239.33	3788.1	
239.54	5016.2	
239.76	5174.5	
239.97	3682.2	
240.18	3762.8	
240.39	6526.9	
240.6	5500.2	
240.82	3947.8	
241.03	3172.3	
241.24	5287.2	
241.45	6047.7	
241.66	3406.5	
241.87	4016.7	
242.09	5981.4	
242.3	6313.9	
242.51	3990.1	
242.72	3725.3	
242.93	5735.7	
243.14	5156.8	
243.36	4328.7	
243.57	4638.6	
243.78	6092	
243.99	5584.1	
244.2	3785.3	
244.41	3419.4	
244.63	4853.7	
244.84	5552	
245.05	3990.8	
245.26	3759.4	
245.47	5534.3	
245.68	5754.8	
245.9	4984.1	
246.11	3915	
246.32	5154.7	
246.53	5498.8	
246.74	6044.9	
246.95	3151.1	
247.16	4800.4	
247.38	5279	
247.59	3117	
247.8	3769.6	
248.01	4965.6	
248.22	5200.5	
248.43	3424.9	
248.64	3652.9	
248.86	4713.1	
249.07	5051.7	
249.28	3343	
249.49	3842.7	
249.7	5795.8	
249.91	5890.6	
250.12	3154.6	
250.34	3170.9	
250.55	5316.5	
250.76	5265.3	
250.97	3805.1	
251.18	3922.5	
251.39	5871.5	
251.6	5428.5	
251.81	3964.9	
252.03	3915	
252.24	5076.2	
252.45	5808	
252.66	3239.9	
252.87	4146.5	
253.08	5339.1	
253.29	6883.2	
253.5	3310.9	
253.72	4528.1	
253.93	5139.7	
254.14	6175.3	
254.35	3540.3	
254.56	3708.2	
254.77	5492.7	
254.98	4911.7	
255.19	3476.8	
255.41	4521.2	
255.62	5365	
255.83	5836.7	
256.04	4038.6	
256.25	3895.2	
256.46	6455.9	
256.67	4979.3	
256.88	3877.5	
257.09	4301.4	
257.31	4903.5	
257.52	4942.4	
257.73	4789.5	
257.94	3568.9	
258.15	5187.5	
258.36	5286.5	
258.57	4478.9	
258.78	2831.7	
258.99	5717.9	
259.2	5163.6	
259.41	3558.7	
259.63	3641.3	
259.84	6079.7	
260.05	6513.2	
260.26	4677.6	
260.47	3476.1	
260.68	5845.6	
260.89	5167.7	
261.1	4272.1	
261.31	3425.6	
261.52	5852.4	
261.73	6126.8	
261.95	4558.8	
262.16	3997.6	
262.37	5939.8	
262.58	6051.1	
262.79	4600.4	
263	3698.6	
263.21	5350	
263.42	5210.7	
263.63	3676.1	
263.84	3614.7	
264.05	5764.3	
264.26	6077.7	
264.47	4435.9	
264.69	4057	
264.9	5980.1	
265.11	5498.8	
265.32	3474	
265.53	3536.2	
265.74	5411.4	
265.95	4686.4	
266.16	3833.8	
266.37	4252.3	
266.58	5378.6	
266.79	5108.3	
267	3517	
267.21	3303.4	
267.42	4879.6	
267.63	5281	
267.84	3717.1	
268.06	3224.2	
268.27	5711.8	
268.48	5925.5	
268.69	3703.4	
268.9	4347.8	
269.11	5885.2	
269.32	4783.4	
269.53	3705.5	
269.74	3482.9	
269.95	5580	
270.16	4665.3	
270.37	3674.7	
270.58	4340.3	
270.79	5160.9	
271	5751.4	
271.21	4014.7	
271.42	3809.9	
271.63	5407.3	
271.84	4911.7	
272.05	3042.6	
272.26	3359.4	
272.47	5304.2	
272.68	5427.1	
272.89	3558	
273.11	4149.2	
273.32	5053	
273.53	6176	
273.74	4022.9	
273.95	3977.2	
274.16	5915.2	
274.37	5356.1	
274.58	4104.1	
274.79	3284.3	
275	5416.9	
275.21	5898.2	
275.42	4881.7	
275.63	4181.3	
275.84	5535.7	
276.05	6909.8	
276.26	3921.9	
276.47	3685.7	
276.68	5163.6	
276.89	6213.5	
277.1	4234.5	
277.31	3324.5	
277.52	5554.8	
277.73	5683.1	
277.94	3233.7	
278.15	3643.3	
278.36	5448.3	
278.57	4935.6	
278.78	3599.6	
278.99	4014	
279.2	4928.8	
279.41	4891.2	
279.62	4713.7	
279.83	3334.1	
280.04	6399.9	
280.25	4817.5	
280.46	4660.5	
280.67	3755.3	
280.88	4931.5	
281.09	5921.4	
281.3	3922.5	
281.51	4943.8	
281.72	5045.5	
281.93	5777.3	
282.14	3516.4	
282.35	3855	
282.56	5801.2	
282.77	5748	
282.98	3643.3	
283.19	4422.9	
283.4	7008.1	
283.61	5197.1	
283.82	3332	
284.03	4612	
284.24	5384.8	
284.45	5899.5	
284.66	4644.1	
284.87	4393.6	
285.08	5821.7	
285.29	6016.2	
285.5	3205.8	
285.71	3631.7	
285.92	5870.2	
286.12	6507.1	
286.33	4602.5	
286.54	3678.8	
286.75	5799.2	
286.96	5146.5	
287.17	3344.3	
287.38	4509.6	
287.59	4963.6	
287.8	4854.4	
288.01	3670	
288.22	4250.2	
288.43	5715.2	
288.64	4804.5	
288.85	4281.6	
289.06	4141.7	
289.27	5688.6	
289.48	6185.5	
289.69	4611.3	
289.9	4178.5	
290.11	5895.4	
290.32	5005.2	
290.53	4417.5	
290.74	4051.6	
290.94	5695.4	
291.15	5715.2	
291.36	3523.2	
291.57	4203.1	
291.78	5061.2	
291.99	4724.7	
292.2	3380.5	
292.41	4013.3	
292.62	5827.8	
292.83	5578	
293.04	4947.2	
293.25	3388	
293.46	5065.3	
293.67	5825.1	
293.88	3457	
294.09	3404.4	
294.29	4840	
294.5	5371.1	
294.71	3795.6	
294.92	3618.1	
295.13	5049.6	
295.34	6311.2	
295.55	3156.6	
295.76	3241.9	
295.97	5660.6	
296.18	6421.7	
296.39	3310.9	
296.6	3578.5	
296.81	5349.3	
297.01	5648.3	
297.22	3637.9	
297.43	3511.6	
297.64	4975.2	
297.85	4937.7	
298.06	2906.1	
298.27	3141.6	
298.48	5309.7	
298.69	5010.7	
298.9	3797.6	
299.11	3471.3	
299.31	4821.6	
299.52	4868.7	
299.73	4098	
299.94	3998.3	
300.15	5270.8	
300.36	4941.7	
300.57	4018.1	
300.78	4024.3	
300.99	5167	
301.2	5402.5	
301.4	3517.7	
301.61	3842	
301.82	5502.2	
302.03	5683.8	
302.24	4269.3	
302.45	3358	
302.66	5556.1	
302.87	5925.5	
303.08	3553.2	
303.29	4824.3	
303.49	5074.2	
303.7	5284.4	
303.91	3138.9	
304.12	4596.3	
304.33	4776.5	
304.54	5437.4	
304.75	3532.7	
304.96	3369.6	
305.16	5608	
305.37	6271.6	
305.58	3064.4	
305.79	3190.7	
306	5613.5	
306.21	4719.9	
306.42	3456.3	
306.63	5389.6	
306.83	5124.7	
307.04	5808	
307.25	3864.5	
307.46	3874.1	
307.67	4523.3	
307.88	5685.2	
308.09	3420.1	
308.29	3630.4	
308.5	5362.3	
308.71	5821	
308.92	3799.7	
309.13	3379.1	
309.34	5156.1	
309.55	5229.8	
309.75	4394.3	
309.96	4010.6	
310.17	5636.7	
310.38	4989.5	
310.59	4205.2	
310.8	3292.5	
311.01	5337	
311.21	5162.2	
311.42	3383.2	
311.63	3522.5	
311.84	5036	
312.05	5423.7	
312.26	3915	
312.46	4276.8	
312.67	5124	
312.88	4894.6	
313.09	3434.4	
313.3	3295.9	
313.51	6039.5	
313.71	6408.1	
313.92	3434.4	
314.13	3555.3	
314.34	5459.2	
314.55	5246.9	
314.76	4379.9	
314.96	3822.2	
315.17	5344.5	
315.38	5624.4	
315.59	3392.1	
315.8	3246.7	
316.01	6066.1	
316.21	6219.7	
316.42	3317	
316.63	3700.7	
316.84	5175.2	
317.05	5934.3	
317.26	4016.7	
317.46	3566.9	
317.67	5247.6	
317.88	5677	
318.09	4288.4	
318.3	3202.3	
318.5	5012.1	
318.71	5570.5	
318.92	5447.6	
319.13	3943.7	
319.34	5735.7	
319.54	5864	
319.75	3178.4	
319.96	3063.1	
320.17	5627.1	
320.38	5780.7	
320.58	3076.7	
320.79	3710.9	
321	5906.3	
321.21	5945.3	
321.42	3771	
321.62	3145	
321.83	4892.6	
322.04	5294.7	
322.25	3621.5	
322.46	3454.2	
322.66	5371.1	
322.87	5523.4	
323.08	4215.4	
323.29	3323.9	
323.5	6283.2	
323.7	4829.1	
323.91	4588.8	
324.12	4084.3	
324.33	5291.3	
324.53	5618.3	
324.74	3928	
324.95	4141.7	
325.16	4721.9	
325.37	5115.1	
325.57	3393.5	
325.78	3490.4	
325.99	5354.8	
326.2	4814.1	
326.4	4776.5	
326.61	3158	
326.82	5199.8	
327.03	5371.1	
327.24	4862.6	
327.44	4470	
327.65	5556.8	
327.86	4534.2	
328.07	3979.2	
328.27	3274.7	
328.48	5928.9	
328.69	4911	
328.9	4892.6	
329.1	3672.7	
329.31	5197.7	
329.52	6097.5	
329.73	3424.9	
329.93	3831.7	
330.14	5275.6	
330.35	5519.3	
330.56	5594.4	
330.76	4204.5	
330.97	5107.6	
331.18	5486.5	
331.39	3836.5	
331.59	3069.9	
331.8	5831.2	
332.01	5991.7	
332.22	3517.7	
332.42	3994.2	
332.63	5429.8	
332.84	4991.6	
333.05	3799	
333.25	3461.1	
333.46	5045.5	
333.67	5328.1	
333.88	3608.5	
334.08	3907.5	
334.29	7034.8	
334.5	5969.8	
334.7	3300	
334.91	4833.9	
335.12	4779.3	
335.33	5610.8	
335.53	3734.1	
335.74	5535	
335.95	5073.5	
336.16	4918.5	
336.36	3710.9	
336.57	4390.8	
336.78	4816.8	
336.98	5863.3	
337.19	4650.9	
337.4	3756.7	
337.61	6367.8	
337.81	4880.3	
338.02	3556.6	
338.23	4483.7	
338.43	6082.5	
338.64	4996.4	
338.85	3443.3	
339.05	4493.2	
339.26	6094.1	
339.47	4754.7	
339.68	3431	
339.88	5032.5	
340.09	5472.9	
340.3	5720	
340.5	4033.1	
340.71	3069.2	
340.92	4773.8	
341.13	5986.9	
341.33	3312.9	
341.54	4027.7	
341.75	5467.4	
341.95	5143.1	
342.16	3833.8	
342.37	4158.1	
342.57	4901.5	
342.78	5231.2	
342.99	4276.8	
343.19	3109.5	
343.4	5704.3	
343.61	5570.5	
343.81	3628.3	
344.02	3340.2	
344.23	5709.7	
344.43	6068.8	
344.64	4227	
344.85	4121.9	
345.06	5618.3	
345.26	5913.9	
345.47	3867.2	
345.68	4571.7	
345.88	4676.9	
346.09	5746.6	
346.3	4027.7	
346.5	3056.3	
346.71	5295.4	
346.92	4991.6	
347.12	3114.3	
347.33	3914.4	
347.54	5786.2	
347.74	6178.7	
347.95	3915.7	
348.16	2962	
348.36	5141.1	
348.57	4942.4	
348.78	3875.4	
348.98	4188.1	
349.19	5246.2	
349.39	4777.9	
349.6	3175	
349.81	3433.1	
350.01	5496.7	
350.22	5061.2	
350.43	3753.9	
350.63	4604.5	
350.84	5283.8	
351.05	5097.4	
351.25	3452.2	
351.46	3155.9	
351.67	5814.9	
351.87	4996.4	
352.08	3657.7	
352.29	4207.2	
352.49	5759.6	
352.7	5427.1	
352.9	3343	
353.11	4136.9	
353.32	6383.5	
353.52	5066	
353.73	3274	
353.94	4216.8	
354.14	5600.5	
354.35	5387.5	
354.55	3377.8	
354.76	3795.6	
354.97	5508.4	
355.17	5328.8	
355.38	3178.4	
355.59	4435.9	
355.79	4935.6	
356	5349.3	
356.2	3744.4	
356.41	3277.4	
356.62	4768.4	
356.82	5158.2	
357.03	3992.9	
357.24	3638.6	
357.44	5005.2	
357.65	5105.6	
357.85	4811.4	
358.06	3788.1	
358.27	4715.8	
358.47	4981.3	
358.68	3129.3	
358.88	3979.2	
359.09	5461.2	
359.3	5822.4	
359.5	4690.5	
359.71	4129.4	
359.91	6255.9	
360.12	5621.7	
360.33	4006.5	
360.53	4400.4	
360.74	4977.2	
360.94	4965	
361.15	4212.7	
361.36	3426.9	
361.56	5800.5	
361.77	5220.3	
361.97	4692.6	
362.18	3685.7	
362.38	5745.9	
362.59	4864.6	
362.8	3403.7	
363	3263.1	
363.21	4647.5	
363.41	5317.2	
363.62	3892.5	
363.83	4821.6	
364.03	5349.3	
364.24	6335	
364.44	4965.6	
364.65	4969.1	
364.85	5119.9	
365.06	4823	
365.27	3523.2	
365.47	3538.2	
365.68	6165.8	
365.88	5128.1	
366.09	4006.5	
366.29	3644	
366.5	5362.3	
366.71	5826.5	
366.91	4869.4	
367.12	4113	
367.32	6369.2	
367.53	5634.6	
367.73	4012.7	
367.94	4948.6	
368.14	5570.5	
368.35	6457.2	
368.56	4048.8	
368.76	3467.2	
368.97	5676.3	
369.17	7282.6	
369.38	3540.9	
369.58	3829	
369.79	4824.3	
369.99	6031.3	
370.2	4850.3	
370.4	3885	
370.61	5440.1	
370.82	6533.7	
371.02	3791.5	
371.23	3179.1	
371.43	4736.3	
371.64	5922	
371.84	3829.7	
372.05	4972.5	
372.25	7163.8	
372.46	5677	
372.66	3818.1	
372.87	3738.2	
373.07	5732.9	
373.28	7253.2	
373.48	4696.7	
373.69	4519.9	
373.9	5198.4	
374.1	5248.9	
374.31	4718.5	
374.51	4293.9	
374.72	5966.4	
374.92	4941.1	
375.13	4869.4	
375.33	4076.8	
375.54	5587.5	
375.74	5084.4	
375.95	4215.4	
376.15	5268.7	
376.36	5616.2	
376.56	5486.5	
376.77	4154	
376.97	4638	
377.18	6658.6	
377.38	5660.6	
377.59	4961.5	
377.79	3695.2	
378	5497.4	
378.2	5913.9	
378.41	3781.2	
378.61	3642.7	
378.82	6016.9	
379.02	5120.6	
379.23	3906.2	
379.43	5001.8	
379.64	6038.1	
379.84	5657.9	
380.05	3696.6	
380.25	3734.1	
380.46	5758.2	
380.66	5355.4	
380.87	5029.8	
381.07	5322.7	
381.28	6346	
381.48	5796.4	
381.69	3786	
381.89	3870.7	
382.1	4796.3	
382.3	5887.9	
382.51	4866	
382.71	5591.6	
382.91	5789.6	
383.12	6274.3	
383.32	4158.1	
383.53	4385.4	
383.73	5608.7	
383.94	5455.1	
384.14	4253.6	
384.35	3452.2	
384.55	5345.9	
384.76	5776.6	
384.96	4106.2	
385.17	4487.1	
385.37	5819	
385.58	5066.7	
385.78	4467.3	
385.98	3367.5	
386.19	5269.4	
386.39	5685.2	
386.6	3880.9	
386.8	4193.6	
387.01	5791.7	
387.21	5773.2	
387.42	4554.7	
387.62	5100.8	
387.83	5107	
388.03	5745.2	
388.23	4147.1	
388.44	4918.5	
388.64	4870.8	
388.85	4916.5	
389.05	4528.7	
389.26	5119.2	
389.46	6730.3	
389.67	6221	
389.87	4483.7	
390.07	4586.1	
390.28	5459.9	
390.48	5003.2	
390.69	3858.4	
390.89	4140.3	
391.1	5228.5	
391.3	6040.1	
391.5	5175.2	
391.71	5792.3	
391.91	5883.8	
392.12	6793.1	
392.32	5335	
392.53	4587.4	
392.73	5287.9	
392.93	5437.4	
393.14	4243.4	
393.34	5305.6	
393.55	6028.5	
393.75	5445.5	
393.95	4266.6	
394.16	4138.9	
394.36	5206.6	
394.57	5862	
394.77	3688.4	
394.98	4121.2	
395.18	5214.1	
395.38	5279	
395.59	4966.3	
395.79	3878.9	
396	5354.8	
396.2	5784.8	
396.4	4780.6	
396.61	4668.7	
396.81	6007.4	
397.02	5185.5	
397.22	4992.3	
397.42	4996.4	
397.63	5864	
397.83	5199.8	
398.04	3932.1	
398.24	4367.6	
398.44	5799.2	
398.65	4789.5	
398.85	3738.2	
399.05	3920.5	
399.26	5194.3	
399.46	6748.1	
399.67	4197	
399.87	3964.2	
400.07	5520	
400.28	5869.5	
400.48	4082.3	
400.69	5053.7	
400.89	6053.1	
401.09	6453.1	
401.3	3968.3	
401.5	5082.4	
401.7	6707.8	
401.91	6965.8	
402.11	4310.3	
402.32	4511.7	
402.52	6091.3	
402.72	5981.4	
402.93	4769.7	
403.13	3588.7	
403.33	6840.2	
403.54	5596.4	
403.74	4458.4	
403.94	5300.1	
404.15	5678.3	
404.35	6718	
404.56	4224.3	
404.76	5950	
404.96	6070.2	
405.17	5848.3	
405.37	5430.5	
405.57	4719.9	
405.78	6102.3	
405.98	5616.9	
406.18	4308.2	
406.39	5083.1	
406.59	6086.6	
406.79	5708.4	
407	3999	
407.2	4194.2	
407.4	6146.6	
407.61	6272.2	
407.81	4149.9	
408.01	6190.3	
408.22	5065.3	
408.42	7008.1	
408.62	5143.1	
408.83	4621.6	
409.03	5653.1	
409.23	5547.3	
409.44	4708.3	
409.64	5107	
409.84	6532.3	
410.05	6493.4	
410.25	4806.6	
410.45	4632.5	
410.66	6002.6	
410.86	8299.7	
411.06	5052.3	
411.27	4941.1	
411.47	8073.1	
411.67	6169.8	
411.88	5195.7	
412.08	5484.5	
412.28	6845.7	
412.49	7253.2	
412.69	4947.9	
412.89	4923.3	
413.09	7063.4	
413.3	6918.7	
413.5	5029.8	
413.7	4743.8	
413.91	6292	
414.11	7075	
414.31	4922.6	
414.52	5363.6	
414.72	6849.8	
414.92	6663.4	
415.12	4945.8	
415.33	5451.7	
415.53	7068.2	
415.73	7211.6	
415.94	5747.3	
416.14	5268.7	
416.34	6067.4	
416.55	5874.3	
416.75	6394.4	
416.95	5781.4	
417.15	7148.8	
417.36	7780.9	
417.56	6514.6	
417.76	5657.2	
417.97	7500.3	
418.17	7164.5	
418.37	5296	
418.57	5329.5	
418.78	6948.8	
418.98	6634.7	
419.18	6184.9	
419.38	6102.9	
419.59	6742.6	
419.79	6289.3	
419.99	5246.9	
420.2	5629.9	
420.4	7186.3	
420.6	7308.5	
420.8	5137.7	
421.01	4937	
421.21	6965.8	
421.41	7327.6	
421.61	5624.4	
421.82	5290.6	
422.02	6597.9	
422.22	7552.9	
422.42	6003.3	
422.63	5699.5	
422.83	6642.9	
423.03	7838.3	
423.23	5750.7	
423.44	4767	
423.64	6738.5	
423.84	6485.2	
424.04	5298.1	
424.25	4802.5	
424.45	7605.5	
424.65	7572.7	
424.85	4706.9	
425.06	5256.5	
425.26	7606.2	
425.46	6173.3	
425.66	5774.6	
425.87	5470.1	
426.07	7344	
426.27	7289.4	
426.47	5556.8	
426.67	4984.1	
426.88	7820.5	
427.08	7177.4	
427.28	5819.6	
427.48	4919.2	
427.69	6114.6	
427.89	6819.1	
428.09	5815.5	
428.29	4982	
428.5	7514	
428.7	7012.2	
428.9	4872.8	
429.1	5337	
429.3	6946	
429.51	7215	
429.71	5219.6	
429.91	5933.6	
430.11	7282.6	
430.31	7451.9	
430.52	5451	
430.72	5773.9	
430.92	7743.4	
431.12	7212.9	
431.32	5160.9	
431.53	5603.2	
431.73	6233.3	
431.93	7912	
432.13	5186.8	
432.33	5024.3	
432.54	6640.2	
432.74	7076.4	
432.94	4891.2	
433.14	5877.7	
433.34	7223.9	
433.55	6741.2	
433.75	5846.3	
433.95	7619.1	
434.15	7070.3	
434.35	6735.1	
434.56	5109.7	
434.76	4668.7	
434.96	7068.2	
435.16	7273.7	
435.36	5018.9	
435.56	6212.9	
435.77	6685.3	
435.97	7003.4	
436.17	6838.9	
436.37	6163.7	
436.57	6762.4	
436.78	6648.4	
436.98	6023.8	
437.18	6684.6	
437.38	7401.4	
437.58	6937.2	
437.78	6855.2	
437.99	5511.1	
438.19	7458	
438.39	8260.1	
438.59	5458.5	
438.79	5027.8	
438.99	8037.6	
439.2	6894.1	
439.4	5046.9	
439.6	5018.2	
439.8	7182.2	
440	8226.7	
440.2	6021	
440.4	6207.4	
440.61	7585.7	
440.81	8144.1	
441.01	5370.5	
441.21	6201.9	
441.41	8100.4	
441.61	7662.1	
441.81	6494.1	
442.02	7546.1	
442.22	8554.4	
442.42	7793.2	
442.62	5436	
442.82	5448.3	
443.02	8114.7	
443.22	7214.3	
443.43	5879.7	
443.63	5412.1	
443.83	7023.2	
444.03	7148.8	
444.23	6710.5	
444.43	6299.6	
444.63	7466.2	
444.83	8655.4	
445.04	5479	
445.24	6897.6	
445.44	7844.4	
445.64	7885.4	
445.84	6432.7	
446.04	6406.7	
446.24	7256.6	
446.44	8250.6	
446.65	5623	
446.85	6071.5	
447.05	7563.8	
447.25	8110.6	
447.45	6065.4	
447.65	5481.7	
447.85	7480.5	
448.05	7158.3	
448.25	6533	
448.46	6263.4	
448.66	7561.8	
448.86	7170.6	
449.06	5363.6	
449.26	6470.2	
449.46	7914.7	
449.66	6931	
449.86	6033.3	
450.06	5978.7	
450.26	7173.4	
450.47	7757.7	
450.67	6294.8	
450.87	6648.4	
451.07	7886	
451.27	7686.7	
451.47	5562.3	
451.67	6201.2	
451.87	7367.9	
452.07	8387.1	
452.27	5973.9	
452.47	5913.9	
452.67	7654.6	
452.88	8085.4	
453.08	5302.2	
453.28	7327.6	
453.48	8874.5	
453.68	7551.5	
453.88	5928.9	
454.08	6032.6	
454.28	7916.8	
454.48	7716.1	
454.68	6596.5	
454.88	7007.5	
455.08	8086.1	
455.28	7864.9	
455.48	5709.1	
455.68	6397.9	
455.89	8640.4	
456.09	8276.5	
456.29	6076.3	
456.49	6163.7	
456.69	8456.1	
456.89	7735.2	
457.09	6662	
457.29	7097.6	
457.49	8144.8	
457.69	8295	
457.89	6552.1	
458.09	6027.9	
458.29	7952.9	
458.49	8624	
458.69	6988.4	
458.89	6439.5	
459.09	8873.2	
459.29	9003.6	
459.49	6612.9	
459.69	7320.1	
459.9	8570.1	
460.1	8058.8	
460.3	6406	
460.5	6281.8	
460.7	8548.2	
460.9	8125.7	
461.1	5943.9	
461.3	7164.5	
461.5	9072.5	
461.7	8759.2	
461.9	6490.7	
462.1	6898.2	
462.3	8346.2	
462.5	8924.4	
462.7	6537.8	
462.9	6688.7	
463.1	9898.5	
463.3	9568.1	
463.5	6789	
463.7	7848.5	
463.9	8585.1	
464.1	9024.7	
464.3	7045.7	
464.5	7329.7	
464.7	9278.7	
464.9	8985.1	
465.1	8609.7	
465.3	7684	
465.5	9567.4	
465.7	9627.5	
465.9	7935.2	
466.1	7735.9	
466.3	9535.3	
466.5	9222.7	
466.7	8546.2	
466.9	7589.8	
467.1	9301.2	
467.3	10146	
467.5	8674.5	
467.7	7505.1	
467.9	10370	
468.1	11284	
468.3	8310.7	
468.5	8839.7	
468.7	9350.3	
468.9	9212.4	
469.1	7831.4	
469.3	8625.4	
469.5	11263	
469.7	9039.7	
469.9	8299.1	
470.1	7766.6	
470.3	9514.9	
470.5	9471.2	
470.7	9022	
470.9	7770.7	
471.1	9263	
471.3	9574.9	
471.5	7687.4	
471.69	9411.8	
471.89	9135.3	
472.09	8568.7	
472.29	8445.8	
472.49	8732.5	
472.69	8966.7	
472.89	9695.1	
473.09	7587.7	
473.29	7684.7	
473.49	8998.1	
473.69	9186.5	
473.89	8638.3	
474.09	7798	
474.29	10340	
474.49	10099	
474.69	8520.2	
474.89	7927.7	
475.09	9181.7	
475.29	9266.4	
475.49	7456	
475.69	7746.1	
475.88	10781	
476.08	9534	
476.28	7356.3	
476.48	7827.3	
476.68	9868.5	
476.88	9813.9	
477.08	7776.8	
477.28	7939.3	
477.48	9232.9	
477.68	9871.2	
477.88	7495.6	
478.08	7765.9	
478.28	10311	
478.48	9411.8	
478.67	7940	
478.87	7250.5	
479.07	10236	
479.27	9511.4	
479.47	8082.7	
479.67	8160.5	
479.87	10044	
480.07	10501	
480.27	7354.3	
480.47	8999.5	
480.67	9613.2	
480.87	10215	
481.06	7679.2	
481.26	8538	
481.46	9686.2	
481.66	9483.5	
481.86	8262.2	
482.06	9181	
482.26	9360.6	
482.46	10332	
482.66	8154.3	
482.86	7841.7	
483.05	9656.2	
483.25	9156.5	
483.45	10496	
483.65	8176.9	
483.85	9355.1	
484.05	9724.4	
484.25	8629.5	
484.45	9151.7	
484.65	10494	
484.84	10526	
485.04	8208.9	
485.24	8128.4	
485.44	10772	
485.64	9142.8	
485.84	7486.7	
486.04	8967.4	
486.24	9577	
486.44	9968.1	
486.63	7531.7	
486.83	8427.4	
487.03	9527.2	
487.23	9816.6	
487.43	7690.1	
487.63	10015	
487.83	9910.1	
488.02	10786	
488.22	8788.5	
488.42	9460.9	
488.62	10730	
488.82	9645.3	
489.02	8385.7	
489.22	8540	
489.41	10651	
489.61	10340	
489.81	8277.2	
490.01	8215.8	
490.21	10645	
490.41	11332	
490.61	8282.7	
490.8	8426.7	
491	10290	
491.2	9587.9	
491.4	9030.2	
491.6	8177.5	
491.8	10175	
491.99	10263	
492.19	7916.1	
492.39	8290.2	
492.59	10468	
492.79	10635	
492.99	9021.3	
493.18	8183.7	
493.38	10632	
493.58	11494	
493.78	9042.5	
493.98	8669.1	
494.18	10539	
494.37	10165	
494.57	9336.7	
494.77	9260.2	
494.97	10911	
495.17	11250	
495.37	8920.3	
495.56	9200.2	
495.76	11509	
495.96	11209	
496.16	10260	
496.36	9377.6	
496.55	11471	
496.75	11094	
496.95	9617.3	
497.15	9552.4	
497.35	11439	
497.54	11440	
497.74	9303.9	
497.94	11094	
498.14	12172	
498.34	11885	
498.53	9112.8	
498.73	9893.1	
498.93	10867	
499.13	11487	
499.33	9770.9	
499.52	10269	
499.72	11489	
499.92	11856	
500.12	9516.9	
500.32	9833	
500.51	11798	
500.71	11656	
500.91	10710	
501.11	10245	
501.31	11812	
501.5	12205	
501.7	10836	
501.9	9819.3	
502.1	11665	
502.29	12038	
502.49	10430	
502.69	10796	
502.89	11912	
503.09	12026	
503.28	9424.1	
503.48	9544.2	
503.68	11003	
503.88	11133	
504.07	10436	
504.27	9867.1	
504.47	11456	
504.67	11557	
504.86	10344	
505.06	10090	
505.26	11128	
505.46	12831	
505.65	9938.8	
505.85	10079	
506.05	11081	
506.25	11506	
506.44	9241.1	
506.64	10124	
506.84	10972	
507.04	11743	
507.23	9382.4	
507.43	10045	
507.63	12844	
507.83	11070	
508.02	9901.9	
508.22	9590.6	
508.42	13222	
508.62	10951	
508.81	9866.4	
509.01	10456	
509.21	10828	
509.4	11174	
509.6	9988.6	
509.8	9460.9	
510	11001	
510.19	12540	
510.39	9361.9	
510.59	9462.3	
510.79	11059	
510.98	12294	
511.18	9680.7	
511.38	9783.1	
511.57	11829	
511.77	11673	
511.97	10467	
512.17	9338.1	
512.36	11797	
512.56	11690	
512.76	9548.3	
512.95	9265.7	
513.15	11880	
513.35	10615	
513.55	10323	
513.74	9474.6	
513.94	11832	
514.14	11183	
514.33	10563	
514.53	10157	
514.73	11213	
514.92	11435	
515.12	9792.7	
515.32	9612.5	
515.51	11499	
515.71	12112	
515.91	11300	
516.11	9737.4	
516.3	13234	
516.5	11237	
516.7	10221	
516.89	10826	
517.09	11411	
517.29	11318	
517.48	10930	
517.68	9923.8	
517.88	11073	
518.07	11785	
518.27	10413	
518.47	9458.2	
518.66	12277	
518.86	10888	
519.06	9452.7	
519.25	9780.4	
519.45	11275	
519.65	12767	
519.84	10512	
520.04	11194	
520.24	13145	
520.43	12059	
520.63	10301	
520.83	10056	
521.02	11303	
521.22	11907	
521.42	10421	
521.61	10878	
521.81	11322	
522.01	11460	
522.2	10286	
522.4	10015	
522.6	12022	
522.79	10892	
522.99	10159	
523.18	9564	
523.38	11813	
523.58	11964	
523.77	11554	
523.97	9696.4	
524.17	13684	
524.36	13043	
524.56	11144	
524.76	10742	
524.95	12111	
525.15	11841	
525.34	10656	
525.54	10798	
525.74	12594	
525.93	11729	
526.13	11992	
526.33	11019	
526.52	13110	
526.72	12622	
526.91	12131	
527.11	11411	
527.31	13165	
527.5	13622	
527.7	11336	
527.89	10541	
528.09	12238	
528.29	12736	
528.48	11581	
528.68	11371	
528.87	13127	
529.07	13231	
529.27	11338	
529.46	11009	
529.66	12956	
529.85	13487	
530.05	11076	
530.25	11843	
530.44	14298	
530.64	12874	
530.83	11291	
531.03	11644	
531.23	13268	
531.42	13069	
531.62	12147	
531.81	11530	
532.01	13364	
532.21	13964	
532.4	11409	
532.6	11816	
532.79	14566	
532.99	13917	
533.18	12100	
533.38	12904	
533.58	13502	
533.77	14143	
533.97	12101	
534.16	12826	
534.36	14461	
534.55	13639	
534.75	13157	
534.95	12220	
535.14	14474	
535.34	13863	
535.53	11948	
535.73	13952	
535.92	15054	
536.12	13913	
536.31	12071	
536.51	13142	
536.71	14074	
536.9	13554	
537.1	12131	
537.29	12349	
537.49	14444	
537.68	13582	
537.88	12646	
538.07	11932	
538.27	13921	
538.46	14884	
538.66	11884	
538.86	12341	
539.05	13861	
539.25	14350	
539.44	12739	
539.64	12250	
539.83	13749	
540.03	14887	
540.22	12258	
540.42	12269	
540.61	13961	
540.81	14169	
541	12656	
541.2	13295	
541.39	13492	
541.59	13924	
541.78	12989	
541.98	12025	
542.18	13224	
542.37	13338	
542.57	12435	
542.76	13160	
542.96	13261	
543.15	14061	
543.35	12415	
543.54	11888	
543.74	14081	
543.93	13850	
544.13	12285	
544.32	13309	
544.52	13979	
544.71	13267	
544.91	11269	
545.1	12579	
545.3	13358	
545.49	13953	
545.69	11318	
545.88	11871	
546.08	14954	
546.27	14451	
546.47	12469	
546.66	11796	
546.86	14095	
547.05	14629	
547.24	11973	
547.44	11841	
547.63	12976	
547.83	14341	
548.02	12296	
548.22	12491	
548.41	12981	
548.61	14383	
548.8	11716	
549	11818	
549.19	13570	
549.39	13983	
549.58	11442	
549.78	12059	
549.97	14017	
550.17	13437	
550.36	12777	
550.55	13712	
550.75	13244	
550.94	14304	
551.14	11602	
551.33	11864	
551.53	12793	
551.72	13816	
551.92	11983	
552.11	11778	
552.31	13668	
552.5	13671	
552.69	13317	
552.89	11353	
553.08	13742	
553.28	13416	
553.47	11820	
553.67	12881	
553.86	14249	
554.06	12666	
554.25	10729	
554.44	11562	
554.64	14885	
554.83	14559	
555.03	11537	
555.22	11863	
555.42	13832	
555.61	13566	
555.8	11741	
556	11989	
556.19	12712	
556.39	13964	
556.58	11664	
556.78	11546	
556.97	13379	
557.16	13208	
557.36	12798	
557.55	11264	
557.75	12399	
557.94	14332	
558.13	11563	
558.33	11286	
558.52	14021	
558.72	13021	
558.91	11490	
559.1	11545	
559.3	12614	
559.49	12326	
559.69	10921	
559.88	11882	
560.07	13374	
560.27	13852	
560.46	12052	
560.66	12261	
560.85	13217	
561.04	12384	
561.24	11460	
561.43	11482	
561.63	12704	
561.82	12951	
562.01	12643	
562.21	11768	
562.4	13328	
562.59	14287	
562.79	11634	
562.98	11382	
563.18	13244	
563.37	14767	
563.56	12142	
563.76	11424	
563.95	12933	
564.14	12770	
564.34	11819	
564.53	11486	
564.73	13391	
564.92	13869	
565.11	11959	
565.31	11387	
565.5	14056	
565.69	12979	
565.89	11672	
566.08	12002	
566.27	13997	
566.47	14459	
566.66	12570	
566.85	11382	
567.05	13578	
567.24	13035	
567.44	11710	
567.63	12942	
567.82	13851	
568.02	13568	
568.21	11647	
568.4	12114	
568.6	13508	
568.79	13480	
568.98	11576	
569.18	11812	
569.37	13666	
569.56	15598	
569.76	12213	
569.95	13159	
570.14	14192	
570.34	14000	
570.53	11830	
570.72	11866	
570.91	14567	
571.11	13680	
571.3	12162	
571.49	13168	
571.69	13721	
571.88	13273	
572.07	12927	
572.27	12819	
572.46	13441	
572.65	14404	
572.85	12116	
573.04	12493	
573.23	14617	
573.43	13753	
573.62	11939	
573.81	12446	
574	14012	
574.2	13784	
574.39	12342	
574.58	12673	
574.78	14930	
574.97	14324	
575.16	13063	
575.36	13398	
575.55	14842	
575.74	14873	
575.93	12144	
576.13	13385	
576.32	14271	
576.51	14767	
576.71	12696	
576.9	14074	
577.09	15089	
577.28	14689	
577.48	13209	
577.67	12280	
577.86	14216	
578.05	14782	
578.25	12966	
578.44	13003	
578.63	14422	
578.83	15667	
579.02	12479	
579.21	13882	
579.4	14740	
579.6	14489	
579.79	13198	
579.98	15268	
580.17	15132	
580.37	15201	
580.56	12489	
580.75	13335	
580.94	15512	
581.14	15335	
581.33	13919	
581.52	12789	
581.71	14965	
581.91	15631	
582.1	12466	
582.29	13087	
582.48	14577	
582.68	14710	
582.87	13622	
583.06	13182	
583.25	14973	
583.45	14484	
583.64	13898	
583.83	14627	
584.02	14432	
584.21	15127	
584.41	13857	
584.6	13375	
584.79	14813	
584.98	15600	
585.18	12874	
585.37	12861	
585.56	14219	
585.75	15196	
585.94	12964	
586.14	13719	
586.33	15560	
586.52	14762	
586.71	13332	
586.91	13216	
587.1	14080	
587.29	15074	
587.48	12975	
587.67	12939	
587.87	14698	
588.06	14878	
588.25	14167	
588.44	13431	
588.63	14468	
588.83	14990	
589.02	12903	
589.21	12719	
589.4	14276	
589.59	14181	
589.78	11811	
589.98	12220	
590.17	13657	
590.36	14033	
590.55	11351	
590.74	11903	
590.94	14894	
591.13	13487	
591.32	11611	
591.51	11002	
591.7	13871	
591.89	13530	
592.09	11355	
592.28	11749	
592.47	12833	
592.66	14831	
592.85	11464	
593.05	11779	
593.24	13563	
593.43	14339	
593.62	11802	
593.81	12223	
594	13489	
594.19	13820	
594.39	11654	
594.58	11617	
594.77	13831	
594.96	14455	
595.15	11716	
595.34	12230	
595.54	13835	
595.73	13015	
595.92	10907	
596.11	12001	
596.3	14209	
596.49	12901	
596.68	11754	
596.88	12116	
597.07	13925	
597.26	12770	
597.45	11262	
597.64	12430	
597.83	13091	
598.02	13724	
598.22	11376	
598.41	12141	
598.6	13451	
598.79	12821	
598.98	11429	
599.17	12356	
599.36	13456	
599.55	14524	
599.74	13332	
599.94	13131	
600.13	13876	
600.32	12792	
600.51	10965	
600.7	11232	
600.89	14569	
601.08	14541	
601.27	11051	
601.47	12041	
601.66	13855	
601.85	14411	
602.04	11703	
602.23	11884	
602.42	12879	
602.61	13414	
602.8	11526	
602.99	11299	
603.18	13024	
603.37	13522	
603.57	11983	
603.76	12362	
603.95	14184	
604.14	13583	
604.33	11473	
604.52	11742	
604.71	13522	
604.9	13073	
605.09	12554	
605.28	12141	
605.47	14104	
605.66	13706	
605.86	12123	
606.05	11427	
606.24	14045	
606.43	12616	
606.62	11859	
606.81	12525	
607	13798	
607.19	13274	
607.38	11214	
607.57	11501	
607.76	12916	
607.95	12463	
608.14	11808	
608.33	12336	
608.52	12871	
608.72	13760	
608.91	11073	
609.1	10912	
609.29	12945	
609.48	12476	
609.67	11818	
609.86	10982	
610.05	12600	
610.24	12911	
610.43	10917	
610.62	10570	
610.81	14037	
611	13880	
611.19	11064	
611.38	11679	
611.57	13221	
611.76	14526	
611.95	10828	
612.14	10652	
612.33	13054	
612.52	12592	
612.71	11340	
612.9	10528	
613.09	12165	
613.28	14397	
613.47	11124	
613.66	12037	
613.85	13078	
614.04	12575	
614.24	11121	
614.43	10375	
614.62	13212	
614.81	13192	
615	11500	
615.19	11716	
615.38	12415	
615.57	12917	
615.76	11643	
615.95	12539	
616.14	13258	
616.33	13011	
616.52	11919	
616.71	12164	
616.9	13222	
617.09	13178	
617.28	11295	
617.47	12408	
617.66	12431	
617.85	12473	
618.04	12210	
618.22	11662	
618.41	12899	
618.6	13820	
618.79	11680	
618.98	11506	
619.17	14177	
619.36	12584	
619.55	11744	
619.74	11784	
619.93	13619	
620.12	13028	
620.31	12262	
620.5	12520	
620.69	14249	
620.88	14589	
621.07	13186	
621.26	12378	
621.45	13942	
621.64	13923	
621.83	12432	
622.02	11774	
622.21	13895	
622.4	13700	
622.59	12951	
622.78	12787	
622.97	13377	
623.16	14242	
623.35	12560	
623.54	11695	
623.72	13629	
623.91	13759	
624.1	12793	
624.29	11530	
624.48	14786	
624.67	14093	
624.86	12704	
625.05	11735	
625.24	14827	
625.43	13436	
625.62	14410	
625.81	12051	
626	14319	
626.19	13836	
626.38	12753	
626.56	12179	
626.75	13559	
626.94	14500	
627.13	12842	
627.32	11628	
627.51	14256	
627.7	15543	
627.89	11674	
628.08	12852	
628.27	13454	
628.46	13545	
628.65	11933	
628.83	11566	
629.02	14125	
629.21	13461	
629.4	12501	
629.59	12592	
629.78	13427	
629.97	14328	
630.16	12618	
630.35	12013	
630.54	14681	
630.72	14527	
630.91	12121	
631.1	12600	
631.29	14057	
631.48	14247	
631.67	12701	
631.86	12051	
632.05	13710	
632.24	13599	
632.42	11660	
632.61	12394	
632.8	13648	
632.99	13369	
633.18	12458	
633.37	12854	
633.56	13941	
633.75	13804	
633.93	12439	
634.12	12088	
634.31	14690	
634.5	14339	
634.69	12134	
634.88	12467	
635.07	13729	
635.25	14238	
635.44	12936	
635.63	13153	
635.82	13557	
636.01	12970	
636.2	12753	
636.39	12397	
636.57	14641	
636.76	14204	
636.95	11985	
637.14	13135	
637.33	14002	
637.52	14875	
637.7	11617	
637.89	12589	
638.08	13521	
638.27	14971	
638.46	12785	
638.65	12991	
638.83	14903	
639.02	13337	
639.21	12376	
639.4	12935	
639.59	13794	
639.78	13367	
639.96	11777	
640.15	11770	
640.34	13463	
640.53	13633	
640.72	11357	
640.91	11736	
641.09	12908	
641.28	14269	
641.47	11689	
641.66	12587	
641.85	13603	
642.03	13682	
642.22	12242	
642.41	11780	
642.6	12987	
642.79	12314	
642.97	11297	
643.16	12267	
643.35	12827	
643.54	12606	
643.73	11361	
643.91	12097	
644.1	12413	
644.29	13188	
644.48	11304	
644.67	11430	
644.85	12553	
645.04	13066	
645.23	10800	
645.42	11222	
645.6	12439	
645.79	13450	
645.98	10942	
646.17	10011	
646.36	11930	
646.54	12450	
646.73	11531	
646.92	10498	
647.11	12053	
647.29	13045	
647.48	10634	
647.67	10357	
647.86	13321	
648.05	13462	
648.23	10938	
648.42	12173	
648.61	12654	
648.8	12347	
648.98	10383	
649.17	10616	
649.36	11869	
649.55	11496	
649.73	10347	
649.92	11153	
650.11	11917	
650.3	12280	
650.48	10557	
650.67	10501	
650.86	12544	
651.05	11348	
651.23	10525	
651.42	10455	
651.61	11764	
651.79	11800	
651.98	10666	
652.17	10297	
652.36	12299	
652.54	11418	
652.73	10371	
652.92	10198	
653.11	12249	
653.29	12398	
653.48	9562	
653.67	10554	
653.85	11989	
654.04	13005	
654.23	10722	
654.42	10283	
654.6	11477	
654.79	12040	
654.98	9581.1	
655.16	10037	
655.35	10796	
655.54	10620	
655.73	9316.2	
655.91	9160.6	
656.1	11609	
656.29	10476	
656.47	8673.8	
656.66	10479	
656.85	10885	
657.03	10959	
657.22	9555.1	
657.41	9732.6	
657.59	11139	
657.78	11128	
657.97	9437.7	
658.16	10198	
658.34	11901	
658.53	12298	
658.72	11007	
658.9	11467	
659.09	11394	
659.28	11491	
659.46	9934	
659.65	9772.9	
659.84	11211	
660.02	11737	
660.21	9684.2	
660.4	9759.3	
660.58	12086	
660.77	11509	
660.96	10383	
661.14	9499.2	
661.33	12625	
661.52	12547	
661.7	9382.4	
661.89	12908	
662.08	11075	
662.26	10718	
662.45	9591.3	
662.64	9684.2	
662.82	11808	
663.01	10997	
663.2	9621.4	
663.38	10414	
663.57	11613	
663.75	11541	
663.94	10049	
664.13	11006	
664.31	11080	
664.5	11759	
664.69	10249	
664.87	10835	
665.06	10815	
665.25	11572	
665.43	11021	
665.62	11080	
665.8	11837	
665.99	11138	
666.18	9981.1	
666.36	10124	
666.55	11786	
666.74	11754	
666.92	9563.3	
667.11	11092	
667.29	11198	
667.48	11701	
667.67	10793	
667.85	9798.2	
668.04	11136	
668.22	11249	
668.41	9942.9	
668.6	10146	
668.78	10920	
668.97	11146	
669.15	10282	
669.34	9235	
669.53	10964	
669.71	11325	
669.9	9452.1	
670.08	10099	
670.27	10934	
670.46	11437	
670.64	10278	
670.83	10564	
671.01	10836	
671.2	11335	
671.38	9582.4	
671.57	9420	
671.76	11957	
671.94	12642	
672.13	9370.1	
672.31	10374	
672.5	11644	
672.69	10924	
672.87	9581.1	
673.06	9871.2	
673.24	11446	
673.43	10972	
673.61	10161	
673.8	9858.9	
673.98	11551	
674.17	11729	
674.36	10368	
674.54	10234	
674.73	11391	
674.91	11530	
675.1	9944.9	
675.28	9551	
675.47	11200	
675.65	11650	
675.84	9820	
676.03	10213	
676.21	10868	
676.4	10473	
676.58	10616	
676.77	10251	
676.95	12332	
677.14	10892	
677.32	9582.4	
677.51	9271.8	
677.69	11619	
677.88	10619	
678.06	9432.3	
678.25	9488.2	
678.44	11186	
678.62	10948	
678.81	9161.2	
678.99	10219	
679.18	11969	
679.36	11538	
679.55	9765.4	
679.73	10384	
679.92	11450	
680.1	10974	
680.29	10947	
680.47	9772.9	
680.66	10872	
680.84	11699	
681.03	9032.2	
681.21	10247	
681.4	10931	
681.58	10745	
681.77	9528.5	
681.95	9368.8	
682.14	11786	
682.32	11974	
682.51	10432	
682.69	9204.3	
682.88	10770	
683.06	11321	
683.25	10070	
683.43	10428	
683.62	11056	
683.8	11498	
683.99	10574	
684.17	9955.9	
684.36	12266	
684.54	10902	
684.73	9036.3	
684.91	9205.6	
685.1	11128	
685.28	10464	
685.46	9534	
685.65	9309.4	
685.83	10871	
686.02	10240	
686.2	8699.1	
686.39	8870.4	
686.57	9947	
686.76	11629	
686.94	8893.6	
687.13	9105.3	
687.31	10914	
687.5	10484	
687.68	8653.4	
687.86	9805.7	
688.05	12172	
688.23	10081	
688.42	9974.3	
688.6	9062.3	
688.79	10616	
688.97	10501	
689.16	9657.5	
689.34	8551.6	
689.52	11291	
689.71	11467	
689.89	9960.6	
690.08	9211.8	
690.26	10926	
690.45	10803	
690.63	10090	
690.81	9478.7	
691	10620	
691.18	10653	
691.37	9643.2	
691.55	11590	
691.74	10472	
691.92	12341	
692.1	9486.9	
692.29	8830.8	
692.47	10564	
692.66	9981.8	
692.84	9131.9	
693.02	9671.9	
693.21	10174	
693.39	10589	
693.58	9759.3	
693.76	9297.8	
693.94	11767	
694.13	11664	
694.31	9321	
694.5	10285	
694.68	10533	
694.86	11021	
695.05	9724.4	
695.23	9914.2	
695.42	11478	
695.6	13629	
695.78	10422	
695.97	9608.4	
696.15	11495	
696.34	10924	
696.52	9271.8	
696.7	10178	
696.89	11215	
697.07	10628	
697.25	9975	
697.44	11318	
697.62	11122	
697.81	11467	
697.99	9508.7	
698.17	10108	
698.36	10460	
698.54	11102	
698.72	9981.8	
698.91	8865.7	
699.09	10652	
699.28	10449	
699.46	9533.3	
699.64	9498.5	
699.83	10408	
700.01	11579	
700.19	10185	
700.38	8680	
700.56	11588	
700.74	10533	
700.93	9063.6	
701.11	9838.4	
701.29	11036	
701.48	12166	
701.66	9410.4	
701.84	9361.9	
702.03	10793	
702.21	11503	
702.39	8944.2	
702.58	9526.5	
702.76	11198	
702.94	11273	
703.13	9019.9	
703.31	11357	
703.49	10479	
703.68	11485	
703.86	8976.2	
704.04	10130	
704.23	10965	
704.41	11387	
704.59	9361.3	
704.78	10388	
704.96	12067	
705.14	11352	
705.33	9155.8	
705.51	9831.6	
705.69	10777	
705.87	11544	
706.06	10178	
706.24	8985.8	
706.42	11079	
706.61	11321	
706.79	10137	
706.97	8986.5	
707.16	10469	
707.34	11062	
707.52	9923.8	
707.7	9182.4	
707.89	10675	
708.07	10261	
708.25	9983.2	
708.44	10222	
708.62	10542	
708.8	11579	
708.98	10255	
709.17	9241.8	
709.35	10757	
709.53	10832	
709.72	8955.8	
709.9	9322.4	
710.08	10979	
710.26	11100	
710.45	10441	
710.63	9278.7	
710.81	10637	
710.99	10686	
711.18	9690.3	
711.36	9247.9	
711.54	10454	
711.72	11224	
711.91	9283.4	
712.09	8704.5	
712.27	10527	
712.45	11584	
712.64	9403.6	
712.82	8378.9	
713	9904	
713.18	9962	
713.37	8501.1	
713.55	9494.4	
713.73	10721	
713.91	9376.3	
714.1	8703.2	
714.28	8016.4	
714.46	10187	
714.64	9295.7	
714.83	7209.5	
715.01	7847.8	
715.19	9014.5	
715.37	8385.7	
715.55	7290.8	
715.74	7595.9	
715.92	9692.4	
716.1	7734.5	
716.28	8644.5	
716.47	7643	
716.65	8353.7	
716.83	8421.9	
717.01	7504.4	
717.19	7338.6	
717.38	10482	
717.56	8100.4	
717.74	7635.5	
717.92	6793.8	
718.1	9237	
718.29	8366	
718.47	6486.6	
718.65	7206.1	
718.83	9353.1	
719.01	9375.6	
719.2	6706.4	
719.38	7800	
719.56	9200.2	
719.74	10791	
719.92	7494.2	
720.11	8449.9	
720.29	9155.8	
720.47	8327	
720.65	6870.9	
720.83	7591.1	
721.02	8485.4	
721.2	8191.9	
721.38	7518.8	
721.56	6676.4	
721.74	7688.1	
721.92	7736.5	
722.11	7912	
722.29	7617.8	
722.47	8996	
722.65	8165.9	
722.83	6694.1	
723.01	7563.1	
723.2	8176.2	
723.38	8490.2	
723.56	6108.4	
723.74	7188.4	
723.92	7664.9	
724.1	8918.2	
724.29	6602.7	
724.47	7703.1	
724.65	7851.9	
724.83	7634.8	
725.01	6410.1	
725.19	7167.2	
725.37	7608.2	
725.56	7717.4	
725.74	6201.2	
725.92	6646.3	
726.1	7621.2	
726.28	7883.3	
726.46	6980.8	
726.64	6588.3	
726.83	7763.8	
727.01	8059.4	
727.19	6183.5	
727.37	6999.3	
727.55	7940.7	
727.73	8373.5	
727.91	6178	
728.09	5997.8	
728.28	8415.1	
728.46	8939.4	
728.64	7021.1	
728.82	7008.1	
729	9428.2	
729.18	8790.6	
729.36	6214.2	
729.54	8417.8	
729.72	9843.9	
729.91	8105.2	
730.09	8133.8	
730.27	6950.1	
730.45	8026.7	
730.63	8589.9	
730.81	7577.5	
730.99	6597.9	
731.17	9194	
731.35	7801.4	
731.53	7204.1	
731.71	6765.8	
731.9	8862.9	
732.08	9057.5	
732.26	6972	
732.44	6661.4	
732.62	9068.4	
732.8	8678.6	
732.98	7267.6	
733.16	6376	
733.34	8402.8	
733.52	7287.4	
733.7	6804.7	
733.88	7006.1	
734.07	8247.2	
734.25	8047.2	
734.43	6212.9	
734.61	7791.8	
734.79	9514.2	
734.97	7906.5	
735.15	6321.4	
735.33	6700.3	
735.51	8234.2	
735.69	7830.1	
735.87	7707.2	
736.05	6819.1	
736.23	7987.1	
736.41	7724.3	
736.59	6561.7	
736.77	6766.5	
736.95	8387.1	
737.13	7785.7	
737.32	6283.9	
737.5	6543.3	
737.68	8918.9	
737.86	7632.1	
738.04	5971.9	
738.22	7740.6	
738.4	7424.6	
738.58	7666.9	
738.76	6656.6	
738.94	5575.9	
739.12	7529	
739.3	7403.4	
739.48	7180.9	
739.66	6888	
739.84	7812.3	
740.02	7688.8	
740.2	5612.8	
740.38	5986.2	
740.56	8036.2	
740.74	6924.2	
740.92	6574	
741.1	6516	
741.28	7421.8	
741.46	7296.2	
741.64	6070.9	
741.82	6607.4	
742	7458.7	
742.18	7442.3	
742.36	6225.1	
742.54	5806.7	
742.72	7944.1	
742.9	6642.9	
743.08	6651.8	
743.26	5392.3	
743.44	8140	
743.62	7937.9	
743.8	6637.5	
743.98	5721.3	
744.16	7617.1	
744.34	7303.1	
744.52	6470.2	
744.7	6440.9	
744.88	7669.6	
745.06	7191.8	
745.24	6429.3	
745.42	6604	
745.6	7717.4	
745.78	7460.1	
745.96	5254.4	
746.14	5586.2	
746.32	8362.5	
746.5	7595.2	
746.68	6053.8	
746.86	5608	
747.03	8044.4	
747.21	6416.3	
747.39	6043.6	
747.57	5504.3	
747.75	7248.4	
747.93	7584.3	
748.11	5453.7	
748.29	5412.1	
748.47	8742.1	
748.65	6937.2	
748.83	6242.9	
749.01	5888.6	
749.19	7274.4	
749.37	6582.9	
749.55	5781.4	
749.73	5857.9	
749.91	6981.5	
750.09	6714.6	
750.26	5765	
750.44	5281.7	
750.62	6949.4	
750.8	6941.9	
750.98	5027.1	
751.16	5424.4	
751.34	6961.7	
751.52	6370.5	
751.7	6176	
751.88	5036	
752.06	7585	
752.24	7213.6	
752.42	4907.6	
752.59	5319.9	
752.77	6801.3	
752.95	8011	
753.13	6044.9	
753.31	5378	
753.49	6522.8	
753.67	6913.3	
753.85	5689.3	
754.03	5264.6	
754.21	7105.8	
754.38	7457.3	
754.56	5352	
754.74	4409.3	
754.92	6341.9	
755.1	7043.6	
755.28	4361.5	
755.46	4343.1	
755.64	7699.7	
755.82	7763.8	
755.99	4550.6	
756.17	4649.6	
756.35	5221.6	
756.53	6734.4	
756.71	3475.4	
756.89	4363.5	
757.07	6267.5	
757.25	5429.2	
757.42	4928.8	
757.6	5823.7	
757.78	6333.7	
757.96	5373.2	
758.14	4642.7	
758.32	4217.5	
758.5	4975.9	
758.67	5857.2	
758.85	4506.9	
759.03	4588.1	
759.21	6042.2	
759.39	5382.7	
759.57	4012	
759.75	5218.2	
759.92	6580.1	
760.1	5892	
760.28	5535	
760.46	5785.5	
760.64	5667.4	
760.82	5414.1	
760.99	5408.7	
761.17	4625.7	
761.35	6451.8	
761.53	5495.4	
761.71	4719.9	
761.89	5377.3	
762.06	6399.9	
762.24	5902.9	
762.42	4752	
762.6	4574.5	
762.78	5880.4	
762.96	6491.4	
763.13	5170.4	
763.31	4887.8	
763.49	6651.8	
763.67	5792.3	
763.85	5590.3	
764.02	6193.1	
764.2	6942.6	
764.38	6068.8	
764.56	4691.2	
764.74	5532.9	
764.91	7074.4	
765.09	5924.1	
765.27	4340.3	
765.45	4209.9	
765.63	7048.4	
765.8	6866.2	
765.98	3938.9	
766.16	4233.8	
766.34	5424.4	
766.52	5240.8	
766.69	5083.1	
766.87	4069.3	
767.05	5873.6	
767.23	6593.8	
767.41	4318.5	
767.58	4562.2	
767.76	6460	
767.94	6538.5	
768.12	4468.7	
768.29	5105.6	
768.47	5949.3	
768.65	6650.4	
768.83	4065.2	
769	5166.3	
769.18	5453.1	
769.36	6133.7	
769.54	5148.6	
769.72	4059.8	
769.89	6401.3	
770.07	6505	
770.25	4371.7	
770.43	5627.8	
770.6	7141.9	
770.78	7542.7	
770.96	4584	
771.14	5157.5	
771.31	6361	
771.49	5670.8	
771.67	3728.7	
771.85	3989.4	
772.02	4962.2	
772.2	5722.7	
772.38	4675.5	
772.55	4275.5	
772.73	5930.9	
772.91	5739.8	
773.09	4517.8	
773.26	4663.9	
773.44	5928.2	
773.62	5517.2	
773.8	4049.5	
773.97	3857	
774.15	5902.2	
774.33	5560.2	
774.5	3969	
774.68	4336.2	
774.86	6140.5	
775.04	5619.6	
775.21	4023.6	
775.39	4080.2	
775.57	5829.2	
775.74	6257.9	
775.92	3878.9	
776.1	3816.7	
776.27	5744.6	
776.45	6965.8	
776.63	4003.1	
776.81	3550.5	
776.98	5429.8	
777.16	6531.7	
777.34	4196.3	
777.51	4536.9	
777.69	5459.9	
777.87	5246.2	
778.04	4182.6	
778.22	4808.6	
778.4	5214.1	
778.57	5842.9	
778.75	3484.3	
778.93	3794.9	
779.1	5024.3	
779.28	4857.8	
779.46	3558.7	
779.64	3974.4	
779.81	6099.5	
779.99	6906.4	
780.17	4811.4	
780.34	4851	
780.52	5552.7	
780.69	5689.9	
780.87	4291.9	
781.05	3851.5	
781.22	5517.2	
781.4	5623	
781.58	4057.7	
781.75	3181.9	
781.93	5683.8	
782.11	4952	
782.28	4890.5	
782.46	3973.7	
782.64	4855.7	
782.81	5756.2	
782.99	4108.2	
783.17	4076.8	
783.34	5666.7	
783.52	4887.8	
783.69	4257.7	
783.87	5004.6	
784.05	5004.6	
784.22	5031.2	
784.4	5059.8	
784.58	4307.6	
784.75	5980.8	
784.93	5003.9	
785.1	4031.8	
785.28	4629.8	
785.46	5694	
785.63	5046.2	
785.81	3966.9	
785.99	3799	
786.16	5154.1	
786.34	5605.3	
786.51	3833.8	
786.69	4308.9	
786.87	4709.6	
787.04	5249.6	
787.22	3728.7	
787.39	4699.4	
787.57	4977.2	
787.75	6077.7	
787.92	4841.4	
788.1	4801.1	
788.27	5021.6	
788.45	4767	
788.63	4511	
788.8	3241.3	
788.98	5498.8	
789.15	4715.8	
789.33	3355.9	
789.5	4023.6	
789.68	5860.6	
789.86	5964.4	
790.03	4465.9	
790.21	3832.4	
790.38	5875.6	
790.56	5116.5	
790.73	3738.9	
790.91	3745.7	
791.09	5010.7	
791.26	5755.5	
791.44	3946.4	
791.61	3484.3	
791.79	4989.5	
791.96	5069.4	
792.14	3519.1	
792.32	3174.4	
792.49	5014.1	
792.67	5098.8	
792.84	3637.2	
793.02	3436.5	
793.19	5408.7	
793.37	6193.1	
793.54	3132	
793.72	3455.6	
793.89	6281.1	
794.07	4993.6	
794.25	4093.9	
794.42	3194.1	
794.6	6010.8	
794.77	5591	
794.95	4343.7	
795.12	3857.7	
795.3	4916.5	
795.47	5561.6	
795.65	4130.1	
795.82	3991.5	
796	4797.7	
796.17	6616.3	
796.35	3891.1	
796.52	4627	
796.7	5502.9	
796.87	5646.2	
797.05	4758.8	
797.22	4697.4	
797.4	5570.5	
797.57	6609.5	
797.75	3992.9	
797.92	3775.1	
798.1	5828.5	
798.27	4905.6	
798.45	3254.9	
798.62	3490.4	
798.8	5321.3	
798.97	5761.6	
799.15	4197.7	
799.32	4018.1	
799.5	4577.9	
799.67	5308.3	
799.85	4360.8	
800.02	3179.1	
800.2	4957.4	
800.37	5272.2	
800.55	4503.5	
800.72	3756.7	
800.9	5748.6	
801.07	6175.3	
801.25	5067.4	
801.42	4156	
801.6	5730.2	
801.77	5525.4	
801.95	3879.5	
802.12	3669.3	
802.29	5417.6	
802.47	5444.2	
802.64	4138.9	
802.82	3136.8	
802.99	4886.5	
803.17	5898.2	
803.34	3999.7	
803.52	3624.2	
803.69	6505.7	
803.87	4693.9	
804.04	3940.3	
804.21	4095.9	
804.39	6035.4	
804.56	5156.1	
804.74	3395.5	
804.91	4146.5	
805.09	4930.1	
805.26	5089.2	
805.44	3446	
805.61	3825.6	
805.78	5607.3	
805.96	5620.3	
806.13	4149.9	
806.31	4467.3	
806.48	4484.4	
806.66	5054.4	
806.83	4137.6	
807	4059.8	
807.18	4954.7	
807.35	5328.8	
807.53	4024.9	
807.7	3231	
807.87	6126.2	
808.05	5045.5	
808.22	4412.7	
808.4	3242.6	
808.57	4981.3	
808.74	4576.5	
808.92	3646.1	
809.09	4683.7	
809.27	4910.3	
809.44	5449.6	
809.61	3218.7	
809.79	3625.6	
809.96	6057.2	
810.14	5659.9	
810.31	3131.3	
810.48	3856.3	
810.66	5065.3	
810.83	5752.1	
811.01	3679.5	
811.18	4070	
811.35	5729.5	
811.53	4463.9	
811.7	4438.6	
811.87	4170.3	
812.05	5041.4	
812.22	4982	
812.39	3551.9	
812.57	3476.8	
812.74	4981.3	
812.92	6603.3	
813.09	3891.8	
813.26	4194.2	
813.44	6352.1	
813.61	4948.6	
813.78	3246.7	
813.96	4306.2	
814.13	5008	
814.3	4680.3	
814.48	4688.5	
814.65	3897.3	
814.82	6121.4	
815	4765.6	
815.17	3913.7	
815.34	4792.2	
815.52	4939.7	
815.69	4896	
815.87	3920.5	
816.04	3383.9	
816.21	5009.3	
816.38	4367.6	
816.56	3828.3	
816.73	3611.3	
816.9	6270.9	
817.08	5690.6	
817.25	3547.8	
817.42	4547.9	
817.6	4519.9	
817.77	4977.9	
817.94	4060.4	
818.12	3557.3	
818.29	4682.3	
818.46	7369.3	
818.64	3721.2	
818.81	3457.7	
818.98	4664.6	
819.16	6723.5	
819.33	4252.9	
819.5	3962.8	
819.67	5302.9	
819.85	5971.2	
820.02	3921.9	
820.19	4148.5	
820.37	5193.6	
820.54	4781.3	
820.71	4012.7	
820.88	4995.7	
821.06	5214.8	
821.23	4753.3	
821.4	4033.8	
821.58	3950.5	
821.75	5699.5	
821.92	5158.2	
822.09	3226.2	
822.27	3371	
822.44	4972.5	
822.61	4869.4	
822.79	3224.2	
822.96	6174.6	
823.13	5440.8	
823.3	4717.2	
823.48	3760.1	
823.65	3391.4	
823.82	5664	
823.99	4526	
824.17	4733.5	
824.34	3424.9	
824.51	6524.1	
824.68	5051.7	
824.86	3620.1	
825.03	4034.5	
825.2	4988.2	
825.37	6038.8	
825.55	3546.4	
825.72	4005.8	
825.89	6616.3	
826.06	6089.3	
826.24	3858.4	
826.41	3932.1	
826.58	6014.2	
826.75	5266.7	
826.92	3047.4	
827.1	3435.1	
827.27	8218.5	
827.44	6553.5	
827.61	3684.3	
827.79	4467.3	
827.96	4725.3	
828.13	5103.5	
828.3	3842.7	
828.47	3246.7	
828.65	5208	
828.82	5198.4	
828.99	4973.2	
829.16	4351.3	
829.34	5557.5	
829.51	5380	
829.68	3966.2	
829.85	4098	
830.02	5913.2	
830.2	5624.4	
830.37	3087.7	
830.54	4782	
830.71	6367.8	
830.88	4990.2	
831.05	3152.5	
831.23	3608.5	
831.4	6084.5	
831.57	6821.1	
831.74	3721.2	
831.91	3213.9	
832.09	5218.9	
832.26	5560.9	
832.43	3841.3	
832.6	4287.1	
832.77	5184.8	
832.94	5922.7	
833.12	3011.9	
833.29	3819.5	
833.46	4879.6	
833.63	6990.4	
833.8	4158.1	
833.97	3808.5	
834.15	5575.3	
834.32	5369.1	
834.49	3947.1	
834.66	4074.1	
834.83	5831.9	
835	4729.4	
835.17	3652.9	
835.35	3710.9	
835.52	5563	
835.69	5373.2	
835.86	3888.4	
836.03	3148.4	
836.2	5550.7	
836.37	5179.3	
836.55	3841.3	
836.72	3567.6	
836.89	5172.5	
837.06	5702.2	
837.23	3898.6	
837.4	4232.5	
837.57	6413.6	
837.75	7000	
837.92	3442.6	
838.09	3697.3	
838.26	5162.2	
838.43	5795.8	
838.6	3962.8	
838.77	3569.6	
838.94	6630.6	
839.11	6343.9	
839.29	3810.6	
839.46	2980.5	
839.63	5493.3	
839.8	5255.1	
839.97	3689.1	
840.14	3678.8	
840.31	5380.7	
840.48	5581.4	
840.65	3076.7	
840.82	3721.8	
841	5518.6	
841.17	5509.7	
841.34	3382.6	
841.51	3426.3	
841.68	5489.2	
841.85	5213.4	
842.02	3594.2	
842.19	2898.6	
842.36	5347.2	
842.53	5340.4	
842.7	3442.6	
842.87	4126.7	
843.05	6922.1	
843.22	5253.7	
843.39	3216	
843.56	3482.2	
843.73	5046.2	
843.9	5598.5	
844.07	5511.8	
844.24	4537.6	
844.41	8122.2	
844.58	4835.9	
844.75	3265.1	
844.92	3584.6	
845.09	5524.7	
845.26	5511.1	
845.43	3381.2	
845.6	3579.2	
845.77	5543.9	
845.94	5277.6	
846.12	3743	
846.29	3902.1	
846.46	5760.3	
846.63	5548.6	
846.8	3394.2	
846.97	4038.6	
847.14	5934.3	
847.31	5459.9	
847.48	3750.5	
847.65	4120.5	
847.82	5825.1	
847.99	5806	
848.16	4501.4	
848.33	4183.3	
848.5	5122.7	
848.67	6021	
848.84	3312.9	
849.01	3486.3	
849.18	4992.3	
849.35	4723.3	
849.52	4266.6	
849.69	3319.1	
849.86	5739.1	
850.03	5975.3	
850.2	3414.6	
850.37	4081.6	
850.54	5849	
850.71	5284.4	
850.88	4080.2	
851.05	3335.5	
851.22	5492	
851.39	6031.3	
851.56	3203.7	
851.73	3893.9	
851.9	4863.2	
852.07	5740.5	
852.24	3707.5	
852.41	3313.6	
852.58	5438	
852.75	5025.7	
852.92	3786.7	
853.09	3332	
853.26	5138.4	
853.43	5933.6	
853.6	3355.9	
853.77	2915.6	
853.94	6082.5	
854.11	4851	
854.28	4929.5	
854.44	3664.5	
854.61	6524.1	
854.78	5822.4	
854.95	3393.5	
855.12	4246.1	
855.29	4515.1	
855.46	6229.9	
855.63	3387.3	
855.8	4670.1	
855.97	5091.9	
856.14	5915.9	
856.31	4789.5	
856.48	3626.3	
856.65	5091.3	
856.82	4847.5	
856.99	3205.1	
857.16	3640.6	
857.33	6726.9	
857.49	5246.9	
857.66	3614.7	
857.83	3862.5	
858	5172.5	
858.17	5400.5	
858.34	3192.8	
858.51	3378.5	
858.68	6150.1	
858.85	6223.8	
859.02	3916.4	
859.19	4171.7	
859.36	4844.8	
859.52	4936.3	
859.69	3362.1	
859.86	3970.3	
860.03	4888.5	
860.2	6087.9	
860.37	3047.4	
860.54	3437.9	
860.71	5764.3	
860.88	6201.9	
861.05	3801	
861.21	4256.4	
861.38	6182.8	
861.55	4790.9	
861.72	3049.4	
861.89	3783.3	
862.06	5836.7	
862.23	6272.2	
862.4	3276.8	
862.56	3526.6	
862.73	5644.2	
862.9	5329.5	
863.07	3928.7	
863.24	3033.7	
863.41	4797.7	
863.58	4865.3	
863.75	3392.8	
863.91	3952.6	
864.08	6081.1	
864.25	5738.4	
864.42	4185.4	
864.59	4687.1	
864.76	6455.2	
864.93	4857.1	
865.09	3297.2	
865.26	3567.6	
865.43	6057.9	
865.6	6382.2	
865.77	2964.1	
865.94	3374.4	
866.1	6027.9	
866.27	5809.4	
866.44	5006.6	
866.61	3181.2	
866.78	5251	
866.95	5657.2	
867.11	3274.7	
867.28	3041.2	
867.45	5860.6	
867.62	4904.9	
867.79	3889.1	
867.96	3368.2	
868.12	4905.6	
868.29	5809.4	
868.46	2941.6	
868.63	4528.1	
868.8	5960.3	
868.97	5654.4	
869.13	3523.2	
869.3	3540.3	
869.47	5657.9	
869.64	5847.6	
869.81	3368.9	
869.97	3390.1	
870.14	5591.6	
870.31	6137.1	
870.48	3324.5	
870.65	4195.6	
870.81	5193	
870.98	5247.6	
871.15	3802.4	
871.32	3481.5	
871.48	5628.5	
871.65	6202.6	
871.82	3344.3	
871.99	3655.6	
872.16	6621.8	
872.32	6061.3	
872.49	3364.8	
872.66	3415.3	
872.83	5825.1	
872.99	5091.9	
873.16	3872.7	
873.33	3351.2	
873.5	5356.1	
873.67	5379.3	
873.83	3523.2	
874	4464.6	
874.17	5519.3	
874.34	6513.9	
874.5	4295.3	
874.67	4183.3	
874.84	6153.5	
875.01	4831.2	
875.17	4767	
875.34	3321.8	
875.51	5483.8	
875.68	6543.3	
875.84	4107.5	
876.01	4889.9	
876.18	5750	
876.34	5668.8	
876.51	3426.9	
876.68	3336.8	
876.85	5226.4	
877.01	6010.1	
877.18	4756.7	
877.35	3307.5	
877.52	5335.6	
877.68	4830.5	
877.85	3241.3	
878.02	3347.7	
878.18	5272.2	
878.35	5070.8	
878.52	2679.4	
878.69	3736.9	
878.85	5774.6	
879.02	5681.1	
879.19	4758.8	
879.35	3611.3	
879.52	5698.1	
879.69	5864	
879.86	2952.5	
880.02	3803.1	
880.19	5341.1	
880.36	6529.6	
880.52	3842.7	
880.69	4037.2	
880.86	5816.9	
881.02	5863.3	
881.19	3689.1	
881.36	3678.8	
881.52	5695.4	
881.69	5028.4	
881.86	3601.7	
882.02	3600.3	
882.19	5935	
882.36	6941.2	
882.52	3411.9	
882.69	4711	
882.86	5487.9	
883.02	5436	
883.19	4085.7	
883.36	3842	
883.52	5805.3	
883.69	6582.2	
883.86	3413.3	
884.02	3050.8	
884.19	5776.6	
884.36	5319.3	
884.52	3801.7	
884.69	3687	
884.86	5075.5	
885.02	6371.9	
885.19	3745.7	
885.36	3907.5	
885.52	5285.8	
885.69	5476.3	
885.86	4883	
886.02	4349.9	
886.19	5765.7	
886.35	5218.9	
886.52	3706.8	
886.69	4706.2	
886.85	4899.4	
887.02	6087.2	
887.19	6087.2	
887.35	6087.2	
887.52	6087.2	
887.68	6087.2	
887.85	6087.2	
888.02	6087.2	
888.18	6087.2	
888.35	6087.2	
888.51	6087.2	
888.68	6087.2	
888.85	6087.2	
889.01	6087.2	
889.18	6087.2	
889.35	6087.2	
889.51	6087.2	
889.68	6087.2	
889.84	6087.2	
890.01	6087.2	
890.17	6087.2	
890.34	6087.2	
890.51	6087.2	
890.67	6087.2	
890.84	6087.2	
891	6087.2	
891.17	6087.2	
891.34	6087.2	
891.5	6087.2	
891.67	6087.2	
891.83	6087.2	
892	6087.2	
892.16	6087.2	
892.33	6087.2	
892.5	6087.2	
892.66	6087.2	
892.83	6087.2	
892.99	6087.2	
893.16	6087.2	
893.32	6087.2	
893.49	6087.2	
893.65	6087.2	
893.82	6087.2	
893.99	6087.2	
894.15	6087.2	
894.32	6087.2	
894.48	6087.2	
894.65	6087.2	
894.81	6087.2	
894.98	6087.2	
895.14	6087.2	
895.31	6087.2	
895.47	6087.2	
895.64	6087.2	
895.81	6087.2	
895.97	6087.2	
896.14	6087.2	
896.3	6087.2	
896.47	6087.2	
896.63	6087.2	
896.8	6087.2	
896.96	6087.2	
897.13	6087.2	
897.29	6087.2	
897.46	6087.2	
897.62	6087.2	
897.79	6087.2	
897.95	6087.2	
898.12	6087.2	
898.28	6087.2	
898.45	6087.2	
898.61	6087.2	
898.78	6087.2	
898.94	6087.2	
899.11	6087.2	
899.27	6087.2	
899.44	6087.2	
899.6	6087.2	
899.77	6087.2	
899.93	6087.2	
900.1	6087.2	
900.26	6087.2	
900.43	6087.2	
900.59	6087.2	
900.76	6087.2	
900.92	6087.2	
901.09	6087.2	
901.25	6087.2	
901.42	6087.2	
901.58	6087.2	
901.75	6087.2	
901.91	6087.2	
902.07	6087.2	
902.24	6087.2	
902.4	6087.2	
902.57	6087.2	
902.73	6087.2	
902.9	6087.2	
903.06	6087.2	
903.23	6087.2	
903.39	6087.2	
903.56	6087.2	
903.72	6087.2	
903.88	6087.2	
904.05	6087.2	
904.21	6087.2	
904.38	6087.2	
904.54	6087.2	
904.71	6087.2	
904.87	6087.2	
905.03	6087.2	
905.2	6087.2	
905.36	6087.2	
905.53	6087.2	
905.69	6087.2	
905.86	6087.2	
906.02	6087.2	
906.18	6087.2	
906.35	6087.2	
906.51	6087.2	
906.68	6087.2	
906.84	6087.2	
907.01	6087.2	
907.17	6087.2	
907.33	6087.2	
907.5	6087.2	
907.66	6087.2	
907.83	6087.2	
907.99	6087.2	
908.15	6087.2	
908.32	6087.2	
908.48	6087.2	
908.65	6087.2	
908.81	6087.2	
908.97	6087.2	
909.14	6087.2	
909.3	6087.2	
909.47	6087.2	
909.63	6087.2	
909.79	6087.2	
909.96	6087.2	
910.12	6087.2	
910.28	6087.2	
910.45	6087.2	
910.61	6087.2	
910.78	6087.2	
910.94	6087.2	
911.1	6087.2	
911.27	6087.2	
911.43	6087.2	
911.59	6087.2	
911.76	6087.2	
911.92	6087.2	
912.08	6087.2	
912.25	6087.2	
912.41	6087.2	
912.57	6087.2	
912.74	6087.2	
912.9	6087.2	
913.07	6087.2	
913.23	6087.2	
913.39	6087.2	
913.56	6087.2	
913.72	6087.2	
913.88	6087.2	
914.05	6087.2	
914.21	6087.2	
914.37	6087.2	
914.54	6087.2	
914.7	6087.2	
914.86	6087.2	
915.03	6087.2	
915.19	6087.2	
