Wavelength	Intensities	
nm	a.u.	
179.22	1904.6	
179.44	1903.2	
179.65	1906	
179.86	1900.5	
180.08	1900.5	
180.29	4910.3	
180.51	3524.6	
180.72	5656.5	
180.94	6691.4	
181.15	3287	
181.37	3220.8	
181.58	5550	
181.79	5841.5	
182.01	3370.3	
182.22	3640.6	
182.44	5745.9	
182.65	4844.8	
182.87	4523.3	
183.08	3996.3	
183.29	6092	
183.51	5023	
183.72	3695.9	
183.94	5325.4	
184.15	5444.9	
184.37	5450.3	
184.58	3231	
184.79	4504.2	
185.01	5000.5	
185.22	5690.6	
185.44	4701.5	
185.65	3915.7	
185.86	5319.9	
186.08	4898.7	
186.29	3144.3	
186.51	3386	
186.72	5021.6	
186.94	5922	
187.15	3900.7	
187.36	4034.5	
187.58	7774.8	
187.79	5499.5	
188.01	4227.7	
188.22	6615.6	
188.43	6650.4	
188.65	5812.1	
188.86	3362.1	
189.08	4042.7	
189.29	5259.9	
189.5	5247.6	
189.72	3744.4	
189.93	3910.9	
190.15	5991.7	
190.36	7240.3	
190.57	4102.1	
190.79	3967.6	
191	6068.8	
191.22	6009.4	
191.43	4086.4	
191.64	3366.2	
191.86	6262.7	
192.07	6011.5	
192.29	3538.9	
192.5	3729.4	
192.71	5952.1	
192.93	5163.6	
193.14	3706.1	
193.35	3799.7	
193.57	5180.7	
193.78	5983.5	
194	3001.6	
194.21	3676.8	
194.42	4985.4	
194.64	5440.1	
194.85	4027.7	
195.07	4756.7	
195.28	5520	
195.49	4723.3	
195.71	4988.2	
195.92	3496.6	
196.13	5603.2	
196.35	5713.8	
196.56	5369.1	
196.78	4060.4	
196.99	7121.5	
197.2	6548	
197.42	4649.6	
197.63	4086.4	
197.84	4821.6	
198.06	5607.3	
198.27	3710.2	
198.48	5044.1	
198.7	5197.7	
198.91	5347.2	
199.13	4050.2	
199.34	4064.5	
199.55	5868.1	
199.77	4745.1	
199.98	3624.2	
200.19	4174.4	
200.41	5255.8	
200.62	5029.1	
200.83	4300.7	
201.05	4602.5	
201.26	5294.7	
201.47	5081.7	
201.69	3571	
201.9	3480.2	
202.11	5438.7	
202.33	6419.7	
202.54	3844	
202.76	4332.1	
202.97	5528.8	
203.18	5523.4	
203.4	4234.5	
203.61	4225	
203.82	5509.7	
204.04	5113.1	
204.25	4114.4	
204.46	4010.6	
204.68	5399.1	
204.89	5634.6	
205.1	4020.2	
205.32	3477.5	
205.53	5836	
205.74	6004.6	
205.96	2885.6	
206.17	4240.7	
206.38	5811.5	
206.6	5989.6	
206.81	4680.3	
207.02	3813.3	
207.24	5677	
207.45	6155.5	
207.66	3880.9	
207.88	3310.9	
208.09	5614.8	
208.3	5442.8	
208.52	3541.6	
208.73	3945.1	
208.94	5365.7	
209.15	6070.2	
209.37	3907.5	
209.58	4095.3	
209.79	5937.1	
210.01	5195	
210.22	3113.6	
210.43	3216.7	
210.65	5459.2	
210.86	5839.4	
211.07	3898.6	
211.29	3551.2	
211.5	5778	
211.71	5333.6	
211.93	3594.2	
212.14	3551.9	
212.35	5299.5	
212.56	5539.8	
212.78	4126	
212.99	3420.8	
213.2	6472.9	
213.42	5152	
213.63	3658.4	
213.84	3990.1	
214.06	4789.5	
214.27	4909	
214.48	3874.1	
214.69	4124.6	
214.91	6066.1	
215.12	6234	
215.33	4239.3	
215.55	4603.8	
215.76	6735.1	
215.97	5812.1	
216.18	4050.9	
216.4	3929.4	
216.61	5146.5	
216.82	5870.2	
217.04	3620.8	
217.25	3727.3	
217.46	6121.4	
217.67	5842.9	
217.89	3249.4	
218.1	3297.2	
218.31	5492	
218.53	5578	
218.74	3775.8	
218.95	3661.8	
219.16	5353.4	
219.38	6356.9	
219.59	3650.2	
219.8	4321.9	
220.01	7064.8	
220.23	5475.6	
220.44	4793.6	
220.65	3562.8	
220.87	5504.9	
221.08	6077	
221.29	3318.4	
221.5	4453	
221.72	7515.4	
221.93	5227.8	
222.14	4141	
222.35	4868.7	
222.57	5433.9	
222.78	5836.7	
222.99	3902.7	
223.2	4164.9	
223.42	5762.3	
223.63	5888.6	
223.84	2986.6	
224.05	3003.7	
224.27	6998.6	
224.48	6341.9	
224.69	4862.6	
224.9	4073.4	
225.12	5642.8	
225.33	5411.4	
225.54	3254.2	
225.75	3625.6	
225.97	4998.4	
226.18	5299.5	
226.39	3924.6	
226.6	3692.5	
226.82	5126.7	
227.03	5042.1	
227.24	4126	
227.45	3395.5	
227.67	5793	
227.88	6423.8	
228.09	4625	
228.3	4648.9	
228.52	5842.9	
228.73	5400.5	
228.94	3807.2	
229.15	3374.4	
229.36	5369.8	
229.58	5266.7	
229.79	3857.7	
230	4435.9	
230.21	6484.6	
230.43	5504.9	
230.64	4017.4	
230.85	4306.2	
231.06	5838.8	
231.28	5873.6	
231.49	3371.6	
231.7	3956.7	
231.91	5770.5	
232.12	5476.3	
232.34	3439.2	
232.55	3934.8	
232.76	6080.4	
232.97	5631.9	
233.18	3608.5	
233.4	4012.7	
233.61	5643.5	
233.82	5155.4	
234.03	3767.6	
234.25	3700	
234.46	7596.6	
234.67	5433.3	
234.88	4220.9	
235.09	3594.9	
235.31	5723.4	
235.52	5303.6	
235.73	4077.5	
235.94	3457.7	
236.15	5131.5	
236.37	6606.1	
236.58	3620.8	
236.79	3941.7	
237	5765	
237.21	4915.8	
237.43	4147.8	
237.64	3296.5	
237.85	9977	
238.06	4997	
238.27	4287.1	
238.48	3409.9	
238.7	5765	
238.91	5283.1	
239.12	3872	
239.33	4003.8	
239.54	5305.6	
239.76	5337	
239.97	3809.9	
240.18	3845.4	
240.39	6827.9	
240.6	5689.3	
240.82	4035.9	
241.03	3291.8	
241.24	5403.9	
241.45	6333	
241.66	3575.1	
241.87	4231.8	
242.09	6165.8	
242.3	6596.5	
242.51	4275.5	
242.72	3925.3	
242.93	5904.3	
243.14	5425.1	
243.36	4509.6	
243.57	4929.5	
243.78	6295.5	
243.99	5769.1	
244.2	3917.1	
244.41	3578.5	
244.63	4934.9	
244.84	5694.7	
245.05	4207.2	
245.26	3960.8	
245.47	5750.7	
245.68	6056.5	
245.9	5262.6	
246.11	4158.1	
246.32	5274.2	
246.53	5749.3	
246.74	6386.2	
246.95	3329.3	
247.16	4878.3	
247.38	5417.6	
247.59	3267.2	
247.8	3963.5	
248.01	5137	
248.22	5357.5	
248.43	3519.8	
248.64	3867.9	
248.86	4799.8	
249.07	5175.9	
249.28	3408.5	
249.49	3979.2	
249.7	6043.6	
249.91	6099.5	
250.12	3242.6	
250.34	3334.8	
250.55	5522.7	
250.76	5410.1	
250.97	4084.3	
251.18	4126	
251.39	6163.7	
251.6	5667.4	
251.81	4130.8	
252.03	4126	
252.24	5143.8	
252.45	5905.7	
252.66	3388.7	
252.87	4387.4	
253.08	5498.8	
253.29	7272.3	
253.5	3446.7	
253.72	4749.2	
253.93	5311.1	
254.14	6454.5	
254.35	3747.1	
254.56	3824.9	
254.77	5699.5	
254.98	5013.4	
255.19	3691.1	
255.41	4719.9	
255.62	5537	
255.83	6109.8	
256.04	4166.3	
256.25	4102.1	
256.46	6734.4	
256.67	5156.8	
256.88	4039.3	
257.09	4508.3	
257.31	5108.3	
257.52	5135.6	
257.73	5083.7	
257.94	3712.3	
258.15	5248.9	
258.36	5460.6	
258.57	4723.3	
258.78	2931.3	
258.99	5975.3	
259.2	5241.4	
259.41	3769.6	
259.63	3888.4	
259.84	6283.2	
260.05	6738.5	
260.26	4909.7	
260.47	3602.4	
260.68	6033.3	
260.89	5381.4	
261.1	4494.6	
261.31	3569.6	
261.52	5984.8	
261.73	6358.3	
261.95	4835.3	
262.16	4259.8	
262.37	6195.8	
262.58	6287.3	
262.79	4753.3	
263	3847.5	
263.21	5415.5	
263.42	4944.5	
263.63	3842.7	
263.84	3779.9	
264.05	6019	
264.26	6423.8	
264.47	4735.6	
264.69	4241.3	
264.9	6111.8	
265.11	5662	
265.32	3639.2	
265.53	3762.8	
265.74	5558.2	
265.95	4832.5	
266.16	4033.8	
266.37	4410	
266.58	5560.9	
266.79	5265.3	
267	3693.2	
267.21	3457	
267.42	4967.7	
267.63	5389.6	
267.84	3938.9	
268.06	3315	
268.27	5853.1	
268.48	6218.3	
268.69	3794.2	
268.9	4552.6	
269.11	6149.4	
269.32	4913.8	
269.53	3918.4	
269.74	3620.1	
269.95	5740.5	
270.16	4816.8	
270.37	3951.9	
270.58	4538.3	
270.79	5256.5	
271	6010.1	
271.21	4212.7	
271.42	4002.4	
271.63	5590.3	
271.84	5021.6	
272.05	3127.2	
272.26	3494.5	
272.47	5464.7	
272.68	5681.7	
272.89	3743.7	
273.11	4352.6	
273.32	5227.8	
273.53	6429.9	
273.74	4270	
273.95	4121.9	
274.16	6096.8	
274.37	5555.5	
274.58	4255.7	
274.79	3448.8	
275	5606.7	
275.21	6115.2	
275.42	5141.8	
275.63	4444.1	
275.84	5750	
276.05	7153.6	
276.26	4079.6	
276.47	3918.4	
276.68	5277.6	
276.89	6517.3	
277.1	4409.3	
277.31	3438.5	
277.52	5699.5	
277.73	5874.9	
277.94	3408.5	
278.15	3803.1	
278.36	5659.9	
278.57	5123.3	
278.78	3742.3	
278.99	4205.8	
279.2	5105.6	
279.41	5027.8	
279.62	4948.6	
279.83	3493.8	
280.04	6663.4	
280.25	5038.7	
280.46	4939.7	
280.67	3960.8	
280.88	5078.3	
281.09	6193.1	
281.3	4138.9	
281.51	5221.6	
281.72	5176.6	
281.93	6006.7	
282.14	3661.1	
282.35	3958	
282.56	5974.6	
282.77	5928.2	
282.98	3805.8	
283.19	4646.8	
283.4	7333.1	
283.61	5402.5	
283.82	3340.2	
284.03	4864.6	
284.24	5589.6	
284.45	6098.2	
284.66	4929.5	
284.87	4661.9	
285.08	5977.3	
285.29	6164.4	
285.5	3294.5	
285.71	3833.8	
285.92	6094.1	
286.12	6735.8	
286.33	4853	
286.54	3771	
286.75	5961	
286.96	5259.9	
287.17	3489.1	
287.38	4801.8	
287.59	5115.1	
287.8	5018.2	
288.01	3833.8	
288.22	4425	
288.43	5993.7	
288.64	4970.4	
288.85	4618.9	
289.06	4317.1	
289.27	6236.1	
289.48	6376	
289.69	4935.6	
289.9	4379.9	
290.11	6152.1	
290.32	5131.5	
290.53	4729.4	
290.74	4291.2	
290.94	5915.2	
291.15	5943.9	
291.36	3667.2	
291.57	4415.4	
291.78	5203.9	
291.99	4831.8	
292.2	3516.4	
292.41	4242	
292.62	5997.8	
292.83	5774.6	
293.04	5307.7	
293.25	3573.7	
293.46	5244.8	
293.67	6109.8	
293.88	3672	
294.09	3508.2	
294.29	5001.8	
294.5	5536.3	
294.71	3919.8	
294.92	3750.5	
295.13	5253	
295.34	6597.9	
295.55	3317.7	
295.76	3412.6	
295.97	5920	
296.18	6589	
296.39	3484.3	
296.6	3708.9	
296.81	5575.9	
297.01	5915.9	
297.22	3859.7	
297.43	3596.9	
297.64	5075.5	
297.85	5070.8	
298.06	3024.8	
298.27	3303.4	
298.48	5481	
298.69	5132.9	
298.9	3969	
299.11	3583.3	
299.31	4912.4	
299.52	5020.3	
299.73	4283	
299.94	4178.5	
300.15	5444.2	
300.36	5057.8	
300.57	4187.4	
300.78	4171	
300.99	5294.7	
301.2	5536.3	
301.4	3663.8	
301.61	3969.6	
301.82	5759.6	
302.03	5892.7	
302.24	4463.9	
302.45	3530.7	
302.66	5720	
302.87	6233.3	
303.08	3660.4	
303.29	4999.8	
303.49	5195	
303.7	5485.8	
303.91	3297.9	
304.12	4780	
304.33	4917.2	
304.54	5583.4	
304.75	3693.2	
304.96	3495.2	
305.16	5741.8	
305.37	6496.8	
305.58	3216.7	
305.79	3369.6	
306	5748	
306.21	4835.3	
306.42	3721.8	
306.63	5634	
306.83	5263.3	
307.04	6107	
307.25	4115.1	
307.46	4089.8	
307.67	4637.3	
307.88	5971.9	
308.09	3629	
308.29	3735.5	
308.5	5539.8	
308.71	6109.8	
308.92	3947.1	
309.13	3582.6	
309.34	5276.3	
309.55	5368.4	
309.75	4616.1	
309.96	4219.5	
310.17	5867.4	
310.38	5207.3	
310.59	4377.2	
310.8	3423.5	
311.01	5280.3	
311.21	5329.5	
311.42	3478.1	
311.63	3637.9	
311.84	5187.5	
312.05	5575.3	
312.26	4156	
312.46	4504.8	
312.67	5299.5	
312.88	5005.9	
313.09	3547.1	
313.3	3447.4	
313.51	6245.6	
313.71	6619	
313.92	3549.1	
314.13	3735.5	
314.34	5657.9	
314.55	5264	
314.76	4578.6	
314.96	3928.7	
315.17	5500.2	
315.38	5874.3	
315.59	3520.5	
315.8	3438.5	
316.01	6346.7	
316.21	6366.5	
316.42	3437.2	
316.63	3972.4	
316.84	5358.9	
317.05	6160.3	
317.26	4255	
317.46	3756	
317.67	5356.8	
317.88	5877	
318.09	4508.9	
318.3	3330.7	
318.5	5160.9	
318.71	5767.8	
318.92	5837.4	
319.13	4214	
319.34	5937.1	
319.54	6143.9	
319.75	3312.2	
319.96	3140.2	
320.17	5823.7	
320.38	6012.8	
320.58	3207.8	
320.79	3901.4	
321	6082.5	
321.21	6210.1	
321.42	3902.7	
321.62	3255.6	
321.83	5046.9	
322.04	5441.5	
322.25	3751.2	
322.46	3579.2	
322.66	5602.6	
322.87	5727.5	
323.08	4462.5	
323.29	3500.7	
323.5	6483.9	
323.7	5037.3	
323.91	4861.9	
324.12	4392.2	
324.33	5513.1	
324.53	5824.4	
324.74	4257.7	
324.95	4419.5	
325.16	4848.2	
325.37	5234.6	
325.57	3629	
325.78	3633.1	
325.99	5542.5	
326.2	4931.5	
326.4	5091.9	
326.61	3300.6	
326.82	5458.5	
327.03	5624.4	
327.24	5141.8	
327.44	4834.6	
327.65	5702.2	
327.86	4612.7	
328.07	4173.8	
328.27	3434.4	
328.48	6173.3	
328.69	5013.4	
328.9	5103.5	
329.1	3859.7	
329.31	5360.2	
329.52	6299.6	
329.73	3525.2	
329.93	4039.3	
330.14	5472.9	
330.35	5729.5	
330.56	5923.4	
330.76	4403.1	
330.97	5314.5	
331.18	5627.8	
331.39	3946.4	
331.59	3233.1	
331.8	6024.4	
332.01	6197.8	
332.22	3672	
332.42	4209.9	
332.63	5567.1	
332.84	5177.9	
333.05	3986	
333.25	3606.5	
333.46	5260.5	
333.67	5500.8	
333.88	3769.6	
334.08	4146.5	
334.29	7870.3	
334.5	6158.9	
334.7	3472.7	
334.91	5068	
335.12	5017.5	
335.33	5926.8	
335.53	4002.4	
335.74	5905.7	
335.95	5208	
336.16	5077.6	
336.36	3966.2	
336.57	4541.7	
336.78	5067.4	
336.98	6077.7	
337.19	4902.8	
337.4	3887.7	
337.61	6584.2	
337.81	4973.8	
338.02	3627.6	
338.23	4689.2	
338.43	6242.9	
338.64	5128.1	
338.85	3616.7	
339.05	4683.7	
339.26	6337.8	
339.47	4900.8	
339.68	3551.9	
339.88	5329.5	
340.09	5703.6	
340.3	5973.2	
340.5	4202.4	
340.71	3166.2	
340.92	4977.9	
341.13	6153.5	
341.33	3453.6	
341.54	4227	
341.75	5691.3	
341.95	5334.3	
342.16	4014	
342.37	4346.5	
342.57	4993.6	
342.78	5422.3	
342.99	4468.7	
343.19	3205.1	
343.4	5893.4	
343.61	5700.9	
343.81	3817.4	
344.02	3531.4	
344.23	5885.2	
344.43	6339.1	
344.64	4448.9	
344.85	4352.6	
345.06	5749.3	
345.26	6068.8	
345.47	4102.8	
345.68	4849.6	
345.88	4772.4	
346.09	5958.9	
346.3	4212	
346.5	3207.1	
346.71	5494	
346.92	5157.5	
347.12	3229	
347.33	4139.6	
347.54	6073.6	
347.74	6494.1	
347.95	4072.7	
348.16	3069.2	
348.36	5274.9	
348.57	4939	
348.78	4035.2	
348.98	4422.2	
349.19	5457.2	
349.39	4928.8	
349.6	3320.4	
349.81	3654.9	
350.01	5683.1	
350.22	5190.2	
350.43	3916.4	
350.63	4740.4	
350.84	5485.8	
351.05	5237.3	
351.25	3563.5	
351.46	3211.2	
351.67	6020.3	
351.87	5152	
352.08	3852.2	
352.29	4356.7	
352.49	5916.6	
352.7	6030.6	
352.9	3467.2	
353.11	4364.9	
353.32	6584.9	
353.52	5256.5	
353.73	3426.3	
353.94	4390.8	
354.14	5769.8	
354.35	5493.3	
354.55	3522.5	
354.76	3968.3	
354.97	5726.8	
355.17	5470.1	
355.38	3338.9	
355.59	4676.2	
355.79	5113.1	
356	5496.7	
356.2	3925.3	
356.41	3383.9	
356.62	4870.8	
356.82	5297.4	
357.03	4149.9	
357.24	3745.7	
357.44	5126.7	
357.65	5240.1	
357.85	5045.5	
358.06	3931.4	
358.27	4851.6	
358.47	5119.2	
358.68	3281.5	
358.88	4124.6	
359.09	5658.5	
359.3	6054.5	
359.5	4888.5	
359.71	4246.1	
359.91	6481.1	
360.12	5791.7	
360.33	4112.3	
360.53	4628.4	
360.74	5045.5	
360.94	5154.7	
361.15	4320.5	
361.36	3500	
361.56	5838.8	
361.77	5275.6	
361.97	4769.7	
362.18	3730.7	
362.38	5855.1	
362.59	4838.7	
362.8	3429.7	
363	3312.9	
363.21	4663.2	
363.41	5468.8	
363.62	3968.3	
363.83	5040.7	
364.03	5463.3	
364.24	6447	
364.44	5083.1	
364.65	5078.3	
364.85	5257.1	
365.06	4841.4	
365.27	3598.3	
365.47	3665.2	
365.68	6210.1	
365.88	5221	
366.09	4012	
366.29	3684.3	
366.5	5479	
366.71	5887.2	
366.91	5047.6	
367.12	4198.3	
367.32	6467.5	
367.53	5768.4	
367.73	4122.6	
367.94	5113.1	
368.14	5653.1	
368.35	6614.9	
368.56	4145.8	
368.76	3442	
368.97	5828.5	
369.17	7570	
369.38	3592.8	
369.58	3898.6	
369.79	4860.5	
369.99	6148	
370.2	4956.1	
370.4	4046.1	
370.61	5500.8	
370.82	6670.9	
371.02	3833.8	
371.23	3181.2	
371.43	4696.7	
371.64	6054.5	
371.84	3830.4	
372.05	5147.9	
372.25	7409.6	
372.46	5793	
372.66	3842	
372.87	3792.8	
373.07	5833.3	
373.28	7460.8	
373.48	4861.2	
373.69	4536.9	
373.9	5248.9	
374.1	5315.2	
374.31	4777.9	
374.51	4275.5	
374.72	6037.4	
374.92	4952.7	
375.13	4959.5	
375.33	4163.5	
375.54	5591.6	
375.74	5085.8	
375.95	4157.4	
376.15	5422.3	
376.36	5553.4	
376.56	5468.1	
376.77	4168.3	
376.97	4626.4	
377.18	6739.2	
377.38	5705	
377.59	5006.6	
377.79	3621.5	
378	5470.8	
378.2	5895.4	
378.41	3717.7	
378.61	3593.5	
378.82	5935.7	
379.02	5061.2	
379.23	3892.5	
379.43	4984.1	
379.64	6035.4	
379.84	5642.8	
380.05	3700	
380.25	3611.3	
380.46	5694	
380.66	5312.4	
380.87	5004.6	
381.07	5383.4	
381.28	6352.1	
381.48	5741.1	
381.69	3781.2	
381.89	3795.6	
382.1	4698	
382.3	5983.5	
382.51	4957.4	
382.71	5800.5	
382.91	5803.3	
383.12	6322.8	
383.32	4127.3	
383.53	4348.5	
383.73	5616.9	
383.94	5454.4	
384.14	4204.5	
384.35	3420.8	
384.55	5317.9	
384.76	5799.2	
384.96	4133.5	
385.17	4467.3	
385.37	5720.7	
385.58	5050.3	
385.78	4474.1	
385.98	3371.6	
386.19	5288.5	
386.39	5661.3	
386.6	3893.2	
386.8	4198.3	
387.01	5686.5	
387.21	5768.4	
387.42	4493.2	
387.62	5087.8	
387.83	5055.1	
388.03	5730.9	
388.23	4141.7	
388.44	4894.6	
388.64	4715.8	
388.85	4848.2	
389.05	4514.4	
389.26	5163.6	
389.46	6778.1	
389.67	6164.4	
389.87	4439.3	
390.07	4485.1	
390.28	5315.2	
390.48	4924	
390.69	3703.4	
390.89	4035.9	
391.1	5118.6	
391.3	6070.2	
391.5	5169.8	
391.71	5798.5	
391.91	5778	
392.12	6851.1	
392.32	5290.6	
392.53	4428.4	
392.73	5131.5	
392.93	5412.1	
393.14	4115.7	
393.34	4889.2	
393.55	5887.9	
393.75	5401.9	
393.95	4173.8	
394.16	4093.2	
394.36	5081.7	
394.57	5817.6	
394.77	3558	
394.98	4106.2	
395.18	5029.8	
395.38	5296	
395.59	4925.4	
395.79	3900	
396	5151.3	
396.2	5664.7	
396.4	4699.4	
396.61	4554.7	
396.81	5789.6	
397.02	5066.7	
397.22	4893.3	
397.42	4965	
397.63	5788.9	
397.83	4927.4	
398.04	3747.1	
398.24	4158.1	
398.44	5537	
398.65	4588.8	
398.85	3497.9	
399.05	3669.3	
399.26	4912.4	
399.46	6690	
399.67	4079.6	
399.87	3803.8	
400.07	5288.5	
400.28	5603.9	
400.48	3829.7	
400.69	4917.2	
400.89	5836	
401.09	6266.8	
401.3	3669.3	
401.5	4878.3	
401.7	6477.7	
401.91	6759	
402.11	4071.4	
402.32	4319.2	
402.52	5920	
402.72	5750	
402.93	4580.6	
403.13	3391.4	
403.33	6672.3	
403.54	5440.1	
403.74	4245.4	
403.94	5154.1	
404.15	5481.7	
404.35	6660	
404.56	4047.5	
404.76	5946.6	
404.96	5902.9	
405.17	5637.4	
405.37	5659.2	
405.57	4498.7	
405.78	5987.6	
405.98	5403.2	
406.18	4012.7	
406.39	4947.9	
406.59	5865.4	
406.79	5521.3	
407	3813.3	
407.2	3938.2	
407.4	5898.8	
407.61	6010.1	
407.81	3885	
408.01	6087.2	
408.22	4873.5	
408.42	6787.7	
408.62	4870.8	
408.83	4308.2	
409.03	5358.9	
409.23	5144.5	
409.44	4337.6	
409.64	4674.8	
409.84	6211.5	
410.05	6054.5	
410.25	4469.4	
410.45	4274.8	
410.66	5513.1	
410.86	8034.9	
411.06	4540.3	
411.27	4491.9	
411.47	7764.5	
411.67	5721.3	
411.88	4719.2	
412.08	4920.6	
412.28	6275	
412.49	6762.4	
412.69	4344.4	
412.89	4343.1	
413.09	6595.1	
413.3	6448.4	
413.5	4429.1	
413.7	4023.6	
413.91	5654.4	
414.11	6539.2	
414.31	4279.6	
414.52	4751.3	
414.72	6191.7	
414.92	6026.5	
415.12	4252.3	
415.33	4788.8	
415.53	6375.3	
415.73	6649.8	
415.94	5173.2	
416.14	4570.4	
416.34	5409.4	
416.55	5224.4	
416.75	5771.2	
416.95	5175.9	
417.15	6363	
417.36	7163.1	
417.56	5920.7	
417.76	4991.6	
417.97	6815.6	
418.17	6462.7	
418.37	4575.2	
418.57	4655	
418.78	6180.1	
418.98	5912.5	
419.18	5501.5	
419.38	5427.1	
419.59	5918.6	
419.79	5596.4	
419.99	4445.5	
420.2	4938.3	
420.4	6389	
420.6	6741.9	
420.8	4397.7	
421.01	4196.3	
421.21	6229.9	
421.41	6491.4	
421.61	4835.9	
421.82	4506.2	
422.02	5760.3	
422.22	6749.4	
422.42	5317.2	
422.63	4988.9	
422.83	5905.7	
423.03	7082.6	
423.23	5037.3	
423.44	4041.3	
423.64	5980.1	
423.84	5799.2	
424.04	4436.6	
424.25	4160.8	
424.45	7008.8	
424.65	6881.2	
424.85	3915.7	
425.06	4554.7	
425.26	6894.1	
425.46	5881.1	
425.66	5055.8	
425.87	4728.8	
426.07	6705.7	
426.27	6534.4	
426.47	4818.2	
426.67	4160.1	
426.88	7055.9	
427.08	6522.1	
427.28	5040.1	
427.48	4138.3	
427.69	5362.9	
427.89	6011.5	
428.09	5074.2	
428.29	4199	
428.5	6759.7	
428.7	6309.8	
428.9	4014	
429.1	4734.2	
429.3	6161	
429.51	6586.3	
429.71	4423.6	
429.91	5231.2	
430.11	6412.2	
430.31	6634.7	
430.52	4708.3	
430.72	4933.6	
430.92	7053.9	
431.12	6474.3	
431.32	4261.1	
431.53	4786.8	
431.73	5405.3	
431.93	7049.1	
432.13	4308.9	
432.33	4093.9	
432.54	5878.4	
432.74	6182.1	
432.94	4024.9	
433.14	5095.3	
433.34	6364.4	
433.55	5840.8	
433.75	5122	
433.95	6782.2	
434.15	6142.5	
434.35	5763.7	
434.56	4229.1	
434.76	3749.1	
434.96	6108.4	
435.16	6368.5	
435.36	4046.1	
435.56	5224.4	
435.77	5717.2	
435.97	5869.5	
436.17	5985.5	
436.37	5107.6	
436.57	5749.3	
436.78	5582.8	
436.98	6933.1	
437.18	5713.8	
437.38	6352.1	
437.58	5926.1	
437.78	5877	
437.99	4572.4	
438.19	6440.2	
438.39	7847.1	
438.59	4410	
438.79	4016.7	
438.99	7109.9	
439.2	5855.1	
439.4	4173.1	
439.6	4051.6	
439.8	6170.5	
440	7356.3	
440.2	5074.9	
440.4	5177.3	
440.61	6509.1	
440.81	7107.1	
441.01	4144.4	
441.21	5040.1	
441.41	6878.4	
441.61	6550.8	
441.81	5360.9	
442.02	6365.8	
442.22	7451.9	
442.42	6651.8	
442.62	4196.3	
442.82	4261.8	
443.02	6893.5	
443.22	5991.7	
443.43	4613.4	
443.63	4186	
443.83	5867.4	
444.03	5795.1	
444.23	5362.3	
444.43	4966.3	
444.63	6077	
444.83	7268.9	
445.04	4318.5	
445.24	5614.2	
445.44	6563.1	
445.64	6608.1	
445.84	5145.9	
446.04	5121.3	
446.24	5875.6	
446.44	6969.9	
446.65	4371.7	
446.85	4739.7	
447.05	6125.5	
447.25	6851.1	
447.45	4814.8	
447.65	4192.9	
447.85	6234.7	
448.05	5958.9	
448.25	5253	
448.46	5043.5	
448.66	6253.1	
448.86	5922.7	
449.06	4058.4	
449.26	5206.6	
449.46	6647.7	
449.66	5591.6	
449.86	4682.3	
450.06	4698.7	
450.26	5796.4	
450.47	6382.8	
450.67	4964.3	
450.87	5335	
451.07	6453.1	
451.27	6266.1	
451.47	4278.2	
451.67	4853	
451.87	5879	
452.07	7096.9	
452.27	4450.2	
452.47	4504.2	
452.67	6154.1	
452.88	6882.5	
453.08	3864.5	
453.28	5935.7	
453.48	7436.2	
453.68	6190.3	
453.88	4366.3	
454.08	4612.7	
454.28	6525.5	
454.48	6173.9	
454.68	5134.3	
454.88	5705	
455.08	6598.6	
455.28	6298.2	
455.48	4212.7	
455.68	4897.4	
455.89	7048.4	
456.09	6716.7	
456.29	4521.9	
456.49	4498.7	
456.69	6881.9	
456.89	6133	
457.09	5040.7	
457.29	5417.6	
457.49	6465.4	
457.69	6589.7	
457.89	4810	
458.09	4270	
458.29	6216.3	
458.49	6882.5	
458.69	5241.4	
458.89	4659.8	
459.09	7059.3	
459.29	7261.4	
459.49	4818.2	
459.69	5614.2	
459.9	6659.3	
460.1	6126.2	
460.3	4694.6	
460.5	4451.6	
460.7	6606.1	
460.9	6286.6	
461.1	4065.9	
461.3	5400.5	
461.5	7216.4	
461.7	6882.5	
461.9	4470	
462.1	4965	
462.3	6249.7	
462.5	6901.7	
462.7	4442.7	
462.9	4601.8	
463.1	7910.6	
463.3	7511.9	
463.5	4713.1	
463.7	5608.7	
463.9	6348.7	
464.1	6753.5	
464.3	4778.6	
464.5	5124.7	
464.7	7057.3	
464.9	6600.6	
465.1	6457.2	
465.3	5468.8	
465.5	7467.6	
465.7	7263.5	
465.9	5595.1	
466.1	5563.6	
466.3	7071	
466.5	6926.2	
466.7	6259.3	
466.9	5192.3	
467.1	6825.2	
467.3	7755	
467.5	6208.1	
467.7	5058.5	
467.9	8007.6	
468.1	8914.1	
468.3	5860.6	
468.5	6291.4	
468.7	6782.2	
468.9	6803.4	
469.1	5399.8	
469.3	5984.2	
469.5	8778.3	
469.7	6313.9	
469.9	5852.4	
470.1	4975.9	
470.3	6769.2	
470.5	6860	
470.7	6350.1	
470.9	5184.1	
471.1	6531.7	
471.3	7113.3	
471.5	5071.5	
471.69	6903.7	
471.89	6436.1	
472.09	6017.6	
472.29	5771.9	
472.49	6257.9	
472.69	6215.6	
472.89	7120.1	
473.09	4879.6	
473.29	5123.3	
473.49	6407.4	
473.69	6595.8	
473.89	6042.2	
474.09	5249.6	
474.29	7802.1	
474.49	7494.2	
474.69	6013.5	
474.89	5412.8	
475.09	6661.4	
475.29	6602	
475.49	4841.4	
475.69	5036	
475.88	8282.7	
476.08	6968.6	
476.28	4783.4	
476.48	5264.6	
476.68	7409.6	
476.88	7307.8	
477.08	5120.6	
477.28	5367.7	
477.48	6756.2	
477.68	7443.7	
477.88	4846.9	
478.08	5317.9	
478.28	7696.9	
478.48	6888	
478.67	5261.2	
478.87	4767.7	
479.07	7543.4	
479.27	6938.5	
479.47	5566.4	
479.67	5521.3	
479.87	7237.5	
480.07	7821.2	
480.27	4728.8	
480.47	6418.3	
480.67	6989.7	
480.87	7637.6	
481.06	5059.8	
481.26	5884.5	
481.46	6905.1	
481.66	6911.2	
481.86	5481.7	
482.06	6567.2	
482.26	6673	
482.46	7677.2	
482.66	5530.9	
482.86	5072.1	
483.05	6957.6	
483.25	6416.3	
483.45	7927.7	
483.65	5456.5	
483.85	6516	
484.05	6864.8	
484.25	5952.1	
484.45	6363	
484.65	7760.4	
484.84	7699	
485.04	5335	
485.24	5355.4	
485.44	7991.9	
485.64	6299.6	
485.84	4610.7	
486.04	6031.3	
486.24	6642.2	
486.44	7081.2	
486.63	4609.3	
486.83	5328.1	
487.03	6515.3	
487.23	6688	
487.43	4698	
487.63	7081.9	
487.83	6750.1	
488.02	7738.6	
488.22	5580.7	
488.42	6300.2	
488.62	7716.7	
488.82	6561.7	
489.02	5253.7	
489.22	5187.5	
489.41	7496.9	
489.61	7092.8	
489.81	5013.4	
490.01	5052.3	
490.21	7381.6	
490.41	8049.2	
490.61	4915.8	
490.8	5120.6	
491	6935.1	
491.2	6198.5	
491.4	5689.9	
491.6	4866	
491.8	6901	
491.99	7124.2	
492.19	4693.9	
492.39	5132.9	
492.59	7446.4	
492.79	7397.3	
492.99	5929.6	
493.18	5008	
493.38	7532.4	
493.58	8288.8	
493.78	5736.4	
493.98	5225.7	
494.18	7225.2	
494.37	6604	
494.57	5810.8	
494.77	5704.3	
494.97	7339.9	
495.17	7544	
495.37	5218.9	
495.56	5562.3	
495.76	7820.5	
495.96	7357	
496.16	6397.2	
496.36	5459.2	
496.55	7498.3	
496.75	6997.2	
496.95	5776	
497.15	5580.7	
497.35	7445.7	
497.54	7357	
497.74	5391.6	
497.94	7135.8	
498.14	8217.1	
498.34	8004.1	
498.53	5046.9	
498.73	5932.3	
498.93	6825.2	
499.13	7388.4	
499.33	5617.6	
499.52	6227.2	
499.72	7376.8	
499.92	7744.1	
500.12	5290.6	
500.32	5616.9	
500.51	7688.1	
500.71	7375.4	
500.91	6369.9	
501.11	5967.1	
501.31	7561.1	
501.5	8011	
501.7	6616.3	
501.9	5634	
502.1	7365.9	
502.29	7747.5	
502.49	6056.5	
502.69	6543.9	
502.89	7534.5	
503.09	7627.3	
503.28	5177.3	
503.48	5272.8	
503.68	6815	
503.88	6886	
504.07	6223.8	
504.27	5735	
504.47	7206.8	
504.67	7446.4	
504.86	6212.2	
505.06	5890.6	
505.26	7034.1	
505.46	8856.8	
505.65	5769.1	
505.85	6060.6	
506.05	6945.3	
506.25	7414.3	
506.44	5183.4	
506.64	6158.9	
506.84	6897.6	
507.04	7808.9	
507.23	5356.8	
507.43	5956.2	
507.63	8871.8	
507.83	7080.5	
508.02	5878.4	
508.22	5608.7	
508.42	9168.1	
508.62	6815.6	
508.81	6197.2	
509.01	6517.3	
509.21	6819.1	
509.4	7109.9	
509.6	6062.7	
509.8	5442.1	
510	7141.3	
510.19	8469	
510.39	5430.5	
510.59	5459.9	
510.79	6850.5	
510.98	8264.2	
511.18	5569.8	
511.38	5651.7	
511.57	7761.8	
511.77	7511.9	
511.97	6331	
512.17	5304.9	
512.36	7636.9	
512.56	7672.4	
512.76	5444.9	
512.95	5165.7	
513.15	7761.8	
513.35	6379.4	
513.55	6247.7	
513.74	5413.5	
513.94	7858.1	
514.14	7109.9	
514.33	6432.7	
514.53	6055.2	
514.73	7043.6	
514.92	7305.1	
515.12	5548.6	
515.32	5427.8	
515.51	7387.7	
515.71	7874.4	
515.91	7146	
516.11	5461.2	
516.3	9067	
516.5	6905.1	
516.7	5985.5	
516.89	6589.7	
517.09	7146	
517.29	6950.8	
517.48	6434	
517.68	5747.3	
517.88	6767.9	
518.07	7354.3	
518.27	6183.5	
518.47	5253	
518.66	7963.2	
518.86	6549.4	
519.06	5136.3	
519.25	5574.6	
519.45	6994.5	
519.65	8491.6	
519.84	6225.1	
520.04	6815	
520.24	8820.6	
520.43	7587.7	
520.63	5948.7	
520.83	5692	
521.02	6864.8	
521.22	7556.3	
521.42	6281.1	
521.61	6674.3	
521.81	7125.6	
522.01	7309.2	
522.2	6066.8	
522.4	5797.1	
522.6	7716.7	
522.79	6513.2	
522.99	5913.2	
523.18	5163.6	
523.38	7402	
523.58	7404.8	
523.77	7090.1	
523.97	5094	
524.17	9252	
524.36	8383.7	
524.56	6597.9	
524.76	6085.9	
524.95	7359	
525.15	6900.3	
525.34	5849.7	
525.54	5792.3	
525.74	7675.1	
525.93	6642.9	
526.13	6985.6	
526.33	5732.3	
526.52	7957.7	
526.72	7389.1	
526.91	7029.3	
527.11	6206.7	
527.31	7959.8	
527.5	8383	
527.7	6124.1	
527.89	5138.4	
528.09	6947.4	
528.29	7404.8	
528.48	6559.6	
528.68	6251.1	
528.87	7818.5	
529.07	7905.2	
529.27	6096.1	
529.46	5584.1	
529.66	7329	
529.85	7869	
530.05	5475.6	
530.25	6191	
530.44	8893.6	
530.64	7330.4	
530.83	5831.9	
531.03	6053.8	
531.23	7731.8	
531.42	7769.3	
531.62	6883.9	
531.81	6036	
532.01	7929.7	
532.21	8409	
532.4	5677	
532.6	6067.4	
532.79	8785.1	
532.99	7936.6	
533.18	6068.8	
533.38	7166.5	
533.58	7419.1	
533.77	8234.2	
533.97	5936.4	
534.16	6818.4	
534.36	8455.4	
534.55	7462.8	
534.75	6966.5	
534.95	6012.8	
535.14	8222.6	
535.34	7492.2	
535.53	5760.3	
535.73	7753.6	
535.92	8855.4	
536.12	7645.7	
536.31	5849	
536.51	7119.4	
536.71	7942	
536.9	7577.5	
537.1	6045.6	
537.29	6141.9	
537.49	8406.9	
537.68	7389.1	
537.88	6529.6	
538.07	5768.4	
538.27	7597.3	
538.46	8709.3	
538.66	5661.3	
538.86	6057.9	
539.05	7630	
539.25	8061.5	
539.44	6389.7	
539.64	5995.1	
539.83	7606.2	
540.03	8605.6	
540.22	5851	
540.42	5993	
540.61	7805.5	
540.81	7842.4	
541	6524.1	
541.2	7174	
541.39	7303.1	
541.59	7735.2	
541.78	6760.3	
541.98	5892.7	
542.18	7007.5	
542.37	6999.3	
542.57	6281.8	
542.76	6804.7	
542.96	7057.3	
543.15	7858.7	
543.35	6418.3	
543.54	5689.9	
543.74	8282.7	
543.93	7722.9	
544.13	6341.9	
544.32	7454.6	
544.52	8150.2	
544.71	7228.6	
544.91	5442.1	
545.1	6735.8	
545.3	7345.4	
545.49	8044.4	
545.69	5444.9	
545.88	6034.7	
546.08	8989.2	
546.27	8526.4	
546.47	6643.6	
546.66	5868.1	
546.86	8267.6	
547.05	8897.1	
547.24	6087.2	
547.44	5864.7	
547.63	7191.8	
547.83	8372.1	
548.02	6361.7	
548.22	6555.5	
548.41	7019.8	
548.61	8370	
548.8	5842.9	
549	5821.7	
549.19	7722.2	
549.39	8086.7	
549.58	5629.9	
549.78	6156.9	
549.97	8121.6	
550.17	7552.2	
550.36	7854.6	
550.55	8176.9	
550.75	7598	
550.94	8501.1	
551.14	5746.6	
551.33	6295.5	
551.53	6963.8	
551.72	7980.9	
551.92	6251.8	
552.11	6072.2	
552.31	8057.4	
552.5	7903.8	
552.69	7791.2	
552.89	5692.7	
553.08	8002.1	
553.28	7492.2	
553.47	6100.9	
553.67	7228.6	
553.86	8679.3	
554.06	6879.8	
554.25	5271.5	
554.44	5810.1	
554.64	9400.9	
554.83	8930.5	
555.03	5831.9	
555.22	6192.4	
555.42	8249.9	
555.61	7893.6	
555.8	6033.3	
556	6358.9	
556.19	6993.1	
556.39	8280.6	
556.58	6096.8	
556.78	6095.4	
556.97	7724.3	
557.16	7473	
557.36	7422.5	
557.55	5786.2	
557.75	6804	
557.94	8604.9	
558.13	5849	
558.33	5625.8	
558.52	8383.7	
558.72	7230	
558.91	5755.5	
559.1	5984.8	
559.3	6972.7	
559.49	6732.4	
559.69	5331.5	
559.88	6440.2	
560.07	7774.1	
560.27	8252.6	
560.46	6546	
560.66	6663.4	
560.85	7630	
561.04	6816.3	
561.24	5756.8	
561.43	5945.3	
561.63	7035.5	
561.82	7366.5	
562.01	7219.1	
562.21	6199.2	
562.4	7741.3	
562.59	8739.4	
562.79	6137.1	
562.98	5722	
563.18	7733.1	
563.37	9185.8	
563.56	6543.3	
563.76	5574.6	
563.95	7122.8	
564.14	7102.4	
564.34	6024.4	
564.53	5818.3	
564.73	7667.6	
564.92	8007.6	
565.11	6219.7	
565.31	5564.3	
565.5	8257.4	
565.69	7173.4	
565.89	5737	
566.08	6055.8	
566.27	8095.6	
566.47	8492.9	
566.66	6694.8	
566.85	5268.1	
567.05	7619.8	
567.24	7073.7	
567.44	5664.7	
567.63	7180.9	
567.82	8019.8	
568.02	7705.8	
568.21	5698.8	
568.4	6072.2	
568.6	7544	
568.79	7572.7	
568.98	5539.1	
569.18	5685.2	
569.37	7492.2	
569.56	9506.7	
569.76	6032	
569.95	7023.9	
570.14	7944.1	
570.34	7786.4	
570.53	5507	
570.72	5514.5	
570.91	8305.9	
571.11	7400.7	
571.3	6037.4	
571.49	7010.2	
571.69	7452.6	
571.88	7105.8	
572.07	6523.5	
572.27	6518.7	
572.46	7053.2	
572.65	8169.3	
572.85	5767.1	
573.04	6090.7	
573.23	8232.2	
573.43	7597.3	
573.62	5421.7	
573.81	6184.9	
574	7526.3	
574.2	7425.9	
574.39	5872.9	
574.58	6046.3	
574.78	8291.5	
574.97	7642.3	
575.16	6333	
575.36	6537.8	
575.55	7983	
575.74	8111.3	
575.93	5469.4	
576.13	6516	
576.32	7436.2	
576.51	8010.3	
576.71	5872.9	
576.9	7239.6	
577.09	8314.8	
577.28	7860.8	
577.48	6430.6	
577.67	5384.8	
577.86	7514.7	
578.05	7740.6	
578.25	6054.5	
578.44	6214.9	
578.63	7557	
578.83	8845.9	
579.02	5421	
579.21	7036.8	
579.4	7795.3	
579.6	7426.6	
579.79	6202.6	
579.98	8462.9	
580.17	8092.9	
580.37	8157.7	
580.56	5761.6	
580.75	6411.5	
580.94	8581	
581.14	8490.2	
581.33	6883.9	
581.52	5765.7	
581.71	7990.5	
581.91	8592.6	
582.1	5446.2	
582.29	6079.1	
582.48	7588.4	
582.68	7531.7	
582.87	6610.8	
583.06	6163	
583.25	7886	
583.45	7370	
583.64	6813.6	
583.83	7584.3	
584.02	7322.2	
584.21	7871.7	
584.41	6831.3	
584.6	6113.9	
584.79	7574.8	
584.98	8333.9	
585.18	5517.9	
585.37	5602.6	
585.56	7139.9	
585.75	7920.2	
585.94	5892.7	
586.14	6480.5	
586.33	8617.2	
586.52	7540.6	
586.71	6290.7	
586.91	6116.6	
587.1	7022.5	
587.29	8026	
587.48	6059.3	
587.67	5881.1	
587.87	7925.6	
588.06	8068.3	
588.25	7296.9	
588.44	6527.6	
588.63	7643.7	
588.83	8208.9	
589.02	5996.5	
589.21	5861.3	
589.4	7419.1	
589.59	7240.3	
589.78	5183.4	
589.98	5537.7	
590.17	7025.2	
590.36	7518.1	
590.55	4945.2	
590.74	5829.2	
590.94	9026.1	
591.13	7615.7	
591.32	5542.5	
591.51	5268.1	
591.7	7977.5	
591.89	7415	
592.09	5281.7	
592.28	5849.7	
592.47	6671.6	
592.66	8525.7	
592.85	5282.4	
593.05	5483.8	
593.24	7262.1	
593.43	8023.9	
593.62	5502.9	
593.81	5973.2	
594	7305.1	
594.19	7557.7	
594.39	5473.5	
594.58	5432.6	
594.77	7552.9	
594.96	8282.7	
595.15	5298.1	
595.34	6042.2	
595.54	7744.1	
595.73	6740.5	
595.92	4773.1	
596.11	5941.8	
596.3	8188.5	
596.49	6828.6	
596.68	5748	
596.88	6221	
597.07	7937.9	
597.26	6697.5	
597.45	5227.8	
597.64	6469.5	
597.83	6921.5	
598.02	7578.8	
598.22	5367.7	
598.41	6088.6	
598.6	7372	
598.79	6817.7	
598.98	5360.9	
599.17	6365.1	
599.36	7393.2	
599.55	8598.1	
599.74	7447.8	
599.94	7191.1	
600.13	8017.8	
600.32	6865.5	
600.51	5073.5	
600.7	5253	
600.89	8671.1	
601.08	8628.1	
601.27	5012.1	
601.47	6053.8	
601.66	7920.9	
601.85	8529.1	
602.04	5682.4	
602.23	6109.1	
602.42	6993.8	
602.61	7623.2	
602.8	5633.3	
602.99	5479.7	
603.18	7230	
603.37	7600.7	
603.57	6072.9	
603.76	6702.3	
603.95	8308.6	
604.14	7844.4	
604.33	5466	
604.52	5840.8	
604.71	7610.3	
604.9	7174	
605.09	6436.8	
605.28	6263.4	
605.47	8131.1	
605.66	7766.6	
605.86	6120	
606.05	5538.4	
606.24	8115.4	
606.43	6604.7	
606.62	5826.5	
606.81	6701.6	
607	7998	
607.19	7311.2	
607.38	5291.3	
607.57	5569.8	
607.76	7081.2	
607.95	6544.6	
608.14	5939.8	
608.33	6560.3	
608.52	7093.5	
608.72	7937.2	
608.91	5271.5	
609.1	5109.7	
609.29	7147.4	
609.48	6718.7	
609.67	6165.8	
609.86	5192.3	
610.05	6715.3	
610.24	7096.2	
610.43	5034.6	
610.62	4693.3	
610.81	8256	
611	8004.1	
611.19	5191.6	
611.38	5920	
611.57	7396.6	
611.76	8763.3	
611.95	4991.6	
612.14	4881.7	
612.33	7172.7	
612.52	6774	
612.71	5551.4	
612.9	4734.2	
613.09	6363	
613.28	8718.2	
613.47	5311.7	
613.66	6263.4	
613.85	7361.8	
614.04	6849.1	
614.24	5420.3	
614.43	4600.4	
614.62	7471	
614.81	7421.8	
615	5928.2	
615.19	5872.2	
615.38	6744	
615.57	7094.8	
615.76	5706.3	
615.95	6651.1	
616.14	7516	
616.33	7151.5	
616.52	6122.1	
616.71	6246.3	
616.9	7471.7	
617.09	7238.2	
617.28	5442.1	
617.47	6775.4	
617.66	6557.6	
617.85	6542.6	
618.04	6323.4	
618.22	5864.7	
618.41	6855.2	
618.6	7727.7	
618.79	5648.3	
618.98	5333.6	
619.17	8064.9	
619.36	6371.9	
619.55	5490.6	
619.74	5523.4	
619.93	7307.8	
620.12	6726.9	
620.31	6068.8	
620.5	6268.8	
620.69	7864.9	
620.88	8224.6	
621.07	6944.7	
621.26	5899.5	
621.45	7522.9	
621.64	7440.3	
621.83	6053.8	
622.02	5173.2	
622.21	7445.7	
622.4	7250.5	
622.59	6612.2	
622.78	6324.1	
622.97	6842.3	
623.16	7934.5	
623.35	5906.3	
623.54	5096	
623.72	7088.7	
623.91	7196.6	
624.1	6204	
624.29	4894.6	
624.48	8327	
624.67	7564.5	
624.86	6150.1	
625.05	5172.5	
625.24	8424.7	
625.43	6770.6	
625.62	7999.4	
625.81	5328.1	
626	7859.4	
626.19	7099.6	
626.38	6197.8	
626.56	5534.3	
626.75	6924.2	
626.94	7628	
627.13	6077	
627.32	4943.8	
627.51	7582.9	
627.7	8920.3	
627.89	5063.9	
628.08	6202.6	
628.27	6780.1	
628.46	7002.7	
628.65	5297.4	
628.83	4973.2	
629.02	7526.3	
629.21	6832.7	
629.4	5780.1	
629.59	5913.9	
629.78	6737.1	
629.97	7770.7	
630.16	5936.4	
630.35	5541.1	
630.54	8158.4	
630.72	7862.2	
630.91	5434.6	
631.1	5967.8	
631.29	7367.9	
631.48	7547.4	
631.67	6152.1	
631.86	5628.5	
632.05	6995.9	
632.24	6924.9	
632.42	5215.5	
632.61	5860.6	
632.8	7128.3	
632.99	6735.8	
633.18	5845.6	
633.37	6264.7	
633.56	7238.2	
633.75	7147.4	
633.93	5856.5	
634.12	5480.4	
634.31	8117.5	
634.5	7783.6	
634.69	5577.3	
634.88	6053.1	
635.07	7098.3	
635.25	7790.5	
635.44	6553.5	
635.63	6726.2	
635.82	6975.4	
636.01	6474.3	
636.2	6496.8	
636.39	5937.7	
636.57	8159.8	
636.76	7761.8	
636.95	5347.9	
637.14	6841.6	
637.33	7413	
637.52	8404.2	
637.7	5210.7	
637.89	6085.2	
638.08	6921.5	
638.27	8529.1	
638.46	6120	
638.65	6687.3	
638.83	8472.4	
639.02	6818.4	
639.21	6059.9	
639.4	6587.6	
639.59	7361.1	
639.78	6890	
639.96	5475.6	
640.15	5431.9	
640.34	7194.5	
640.53	7394.5	
640.72	5123.3	
640.91	5457.8	
641.09	6618.4	
641.28	8049.9	
641.47	5738.4	
641.66	6320	
641.85	7365.9	
642.03	7698.3	
642.22	6115.9	
642.41	5624.4	
642.6	6840.9	
642.79	6197.8	
642.97	5397.1	
643.16	6140.5	
643.35	6739.9	
643.54	6577.4	
643.73	5292	
643.91	6204	
644.1	6430.6	
644.29	7075	
644.48	5409.4	
644.67	5513.1	
644.85	6652.5	
645.04	7002	
645.23	5063.3	
645.42	5324.7	
645.6	6560.3	
645.79	7719.5	
645.98	5420.3	
646.17	4469.4	
646.36	6364.4	
646.54	7074.4	
646.73	6205.3	
646.92	4968.4	
647.11	6566.5	
647.29	7724.3	
647.48	5053	
647.67	4866.7	
647.86	7897.7	
648.05	7886	
648.23	5445.5	
648.42	6724.8	
648.61	7320.8	
648.8	7043	
648.98	5057.1	
649.17	5402.5	
649.36	6610.2	
649.55	6120.7	
649.73	5064.6	
649.92	5879.7	
650.11	6475	
650.3	6821.8	
650.48	5232.6	
650.67	4960.2	
650.86	7120.1	
651.05	6018.3	
651.23	5205.9	
651.42	5228.5	
651.61	6541.9	
651.79	7283.9	
651.98	5370.5	
652.17	5068	
652.36	7079.8	
652.54	6163	
652.73	5081.7	
652.92	4879.6	
653.11	7118.7	
653.29	7081.9	
653.48	4292.5	
653.67	5350	
653.85	6894.8	
654.04	7940.7	
654.23	5537.7	
654.42	5162.9	
654.6	6438.1	
654.79	7062.1	
654.98	4642.7	
655.16	5168.4	
655.35	6053.1	
655.54	5976	
655.73	4716.5	
655.91	4732.2	
656.1	7287.4	
656.29	5991	
656.47	4303.5	
656.66	6001.9	
656.85	6288.6	
657.03	6291.4	
657.22	4808.6	
657.41	4848.9	
657.59	6388.3	
657.78	6150.7	
657.97	4463.9	
658.16	5259.9	
658.34	6982.2	
658.53	7365.9	
658.72	6115.9	
658.9	6717.3	
659.09	6393.1	
659.28	6559.6	
659.46	4874.8	
659.65	4885.8	
659.84	6176.7	
660.02	6736.5	
660.21	4764.9	
660.4	4738.3	
660.58	7148.8	
660.77	6573.3	
660.96	5438.7	
661.14	4435.2	
661.33	7705.8	
661.52	7575.4	
661.7	4380.6	
661.89	8115.4	
662.08	6163	
662.26	5700.2	
662.45	4618.9	
662.64	4756.1	
662.82	6789.7	
663.01	6036.7	
663.2	4736.3	
663.38	5616.2	
663.57	6827.9	
663.75	6685.3	
663.94	5169.8	
664.13	6430.6	
664.31	6103.6	
664.5	6840.9	
664.69	5255.1	
664.87	6012.8	
665.06	5971.2	
665.25	6675	
665.43	6159.6	
665.62	6284.5	
665.8	6939.2	
665.99	6271.6	
666.18	5121.3	
666.36	5247.6	
666.55	6956.9	
666.74	6821.8	
666.92	4782.7	
667.11	6463.4	
667.29	6310.5	
667.48	6957.6	
667.67	6073.6	
667.85	5191.6	
668.04	6412.2	
668.22	6331	
668.41	5201.2	
668.6	5341.8	
668.78	6058.6	
668.97	6322.8	
669.15	5507	
669.34	4546.5	
669.53	6150.7	
669.71	6438.1	
669.9	4691.9	
670.08	5324.7	
670.27	6107	
670.46	6737.1	
670.64	5573.2	
670.83	5836.7	
671.01	5973.9	
671.2	6699.6	
671.38	4761.5	
671.57	4702.1	
671.76	7242.3	
671.94	7826.7	
672.13	4534.9	
672.31	5814.2	
672.5	6851.1	
672.69	6137.1	
672.87	4753.3	
673.06	5109.7	
673.24	6709.1	
673.43	6183.5	
673.61	5568.4	
673.8	5068	
673.98	6859.3	
674.17	7009.5	
674.36	5673.6	
674.54	5461.9	
674.73	6648.4	
674.91	6918.7	
675.1	5222.3	
675.28	4892.6	
675.47	6359.6	
675.65	6950.1	
675.84	5072.8	
676.03	5442.8	
676.21	6160.3	
676.4	5763.7	
676.58	5917.9	
676.77	5644.2	
676.95	7673.1	
677.14	6141.2	
677.32	4758.1	
677.51	4539.7	
677.69	6901	
677.88	5833.3	
678.06	4597.7	
678.25	4769	
678.44	6376.7	
678.62	6167.1	
678.81	4486.4	
678.99	5467.4	
679.18	7223.9	
679.36	6722.1	
679.55	5061.2	
679.73	5623.7	
679.92	6804.7	
680.1	6193.7	
680.29	6236.7	
680.47	5008	
680.66	6076.3	
680.84	6941.2	
681.03	4324.6	
681.21	5376.6	
681.4	6225.1	
681.58	6001.2	
681.77	4811.4	
681.95	4762.2	
682.14	7026.6	
682.32	7309.2	
682.51	5597.8	
682.69	4539.7	
682.88	6099.5	
683.06	6825.9	
683.25	5378	
683.43	5898.1	
683.62	6329.6	
683.8	6748.7	
683.99	5976.7	
684.17	5286.5	
684.36	7668.3	
684.54	6365.1	
684.73	4474.1	
684.91	4664.6	
685.1	6665.5	
685.28	6071.5	
685.46	5332.2	
685.65	5395.7	
685.83	6994.5	
686.02	6335	
686.2	4805.9	
686.39	4984.1	
686.57	6208.8	
686.76	7626.6	
686.94	4829.1	
687.13	4960.2	
687.31	6842.9	
687.5	6283.9	
687.68	4400.4	
687.86	5674.9	
688.05	8064.2	
688.23	5813.5	
688.42	5732.3	
688.6	4805.2	
688.79	6195.8	
688.97	6206	
689.16	5307	
689.34	4186.7	
689.52	6946.7	
689.71	7124.9	
689.89	5551.4	
690.08	4815.5	
690.26	6394.4	
690.45	6258.6	
690.63	5714.5	
690.81	4983.4	
691	6152.8	
691.18	6115.9	
691.37	5175.9	
691.55	7374.7	
691.74	6061.3	
691.92	8166.6	
692.1	5158.2	
692.29	4519.2	
692.47	6249.7	
692.66	5618.3	
692.84	4745.1	
693.02	5364.3	
693.21	5725.4	
693.39	6245.6	
693.58	5440.1	
693.76	4819.6	
693.94	7404.8	
694.13	7150.1	
694.31	4795.7	
694.5	5853.8	
694.68	6033.3	
694.86	6361.7	
695.05	5125.4	
695.23	5522.7	
695.42	6719.4	
695.6	9145.5	
695.78	5768.4	
695.97	4898.1	
696.15	6810.9	
696.34	6133.7	
696.52	4564.2	
696.7	5438	
696.89	6505	
697.07	5982.8	
697.25	5365	
697.44	7029.3	
697.62	6536.4	
697.81	6922.8	
697.99	5082.4	
698.17	5547.9	
698.36	5919.3	
698.54	6519.4	
698.72	5447.6	
698.91	4437.3	
699.09	6171.9	
699.28	6038.8	
699.46	5101.5	
699.64	5029.1	
699.83	5943.2	
700.01	7266.9	
700.19	5814.2	
700.38	4209.3	
700.56	7236.2	
700.74	6001.9	
700.93	4605.2	
701.11	5436.7	
701.29	6588.3	
701.48	7706.5	
701.66	4827.7	
701.84	4865.3	
702.03	6167.8	
702.21	6789	
702.39	4370.4	
702.58	4987.5	
702.76	6625.2	
702.94	6735.8	
703.13	4434.5	
703.31	6862.1	
703.49	5895.4	
703.68	6839.5	
703.86	4678.2	
704.04	5526.8	
704.23	6400.6	
704.41	6846.4	
704.59	4763.6	
704.78	6062.7	
704.96	7486	
705.14	6878.4	
705.33	4556	
705.51	5414.1	
705.69	6219	
705.87	7060.7	
706.06	5621.7	
706.24	4587.4	
706.42	6543.3	
706.61	6812.9	
706.79	5691.3	
706.97	4496	
707.16	6008.7	
707.34	6623.1	
707.52	5677	
707.7	4787.5	
707.89	6160.3	
708.07	5844.9	
708.25	5693.4	
708.44	5857.2	
708.62	6120.7	
708.8	7233.4	
708.98	5964.4	
709.17	4889.9	
709.35	6531	
709.53	6529.6	
709.72	4485.7	
709.9	4782	
710.08	6787	
710.26	6815.6	
710.45	6339.1	
710.63	5052.3	
710.81	6400.6	
710.99	6503.7	
711.18	5565.7	
711.36	5090.6	
711.54	6259.3	
711.72	7088.7	
711.91	5147.9	
712.09	4560.1	
712.27	6425.8	
712.45	7176.8	
712.64	5469.4	
712.82	4397	
713	5966.4	
713.18	6215.6	
713.37	4585.4	
713.55	5927.5	
713.73	7051.2	
713.91	5716.6	
714.1	5031.9	
714.28	4459.1	
714.46	6770.6	
714.64	6012.2	
714.83	4112.3	
715.01	4901.5	
715.19	6152.1	
715.37	5515.9	
715.55	4612	
715.74	4989.5	
715.92	7129.7	
716.1	5070.8	
716.28	6113.9	
716.47	5115.8	
716.65	5770.5	
716.83	5827.2	
717.01	5004.6	
717.19	5066	
717.38	8019.8	
717.56	5631.2	
717.74	5259.2	
717.92	4354.7	
718.1	6792.4	
718.29	6015.6	
718.47	3945.8	
718.65	4631.8	
718.83	6666.1	
719.01	6523.5	
719.2	3800.3	
719.38	5006.6	
719.56	6266.8	
719.74	7890.8	
719.92	4485.7	
720.11	5523.4	
720.29	6262	
720.47	5418.9	
720.65	4055.7	
720.83	5022.3	
721.02	5841.5	
721.2	5623.7	
721.38	4982.7	
721.56	4320.5	
721.74	5116.5	
721.92	5410.1	
722.11	5595.1	
722.29	5278.3	
722.47	6635.4	
722.65	5847.6	
722.83	4382.7	
723.01	5317.9	
723.2	5884.5	
723.38	6167.8	
723.56	3756	
723.74	4973.2	
723.92	5431.9	
724.1	6531.7	
724.29	4270	
724.47	5533.6	
724.65	5479	
724.83	5373.2	
725.01	4195.6	
725.19	5182	
725.37	5397.1	
725.56	5487.9	
725.74	4037.2	
725.92	4286.4	
726.1	5375.9	
726.28	5636.7	
726.46	4753.3	
726.64	4478.2	
726.83	5661.3	
727.01	5937.1	
727.19	3977.8	
727.37	4849.6	
727.55	5816.9	
727.73	6246.3	
727.91	4011.3	
728.09	3835.8	
728.28	6343.2	
728.46	6971.3	
728.64	4994.3	
728.82	4866.7	
729	7447.8	
729.18	6614.9	
729.36	4103.4	
729.54	6505.7	
729.72	7722.9	
729.91	5887.9	
730.09	6080.4	
730.27	4703.5	
730.45	5767.1	
730.63	6515.3	
730.81	5325.4	
730.99	4410.6	
731.17	6963.1	
731.35	5543.9	
731.53	4977.2	
731.71	4533.5	
731.9	6699.6	
732.08	6898.2	
732.26	4816.8	
732.44	4478.9	
732.62	6941.9	
732.8	6436.1	
732.98	5268.7	
733.16	4253.6	
733.34	6424.5	
733.52	5210	
733.7	4771.8	
733.88	5091.3	
734.07	6327.5	
734.25	6057.9	
734.43	4260.5	
734.61	5905.7	
734.79	7562.5	
734.97	5937.1	
735.15	4401.8	
735.33	4784.7	
735.51	6233.3	
735.69	5901.6	
735.87	5982.8	
736.05	4990.9	
736.23	6129.6	
736.41	5922	
736.59	4795	
736.77	4961.5	
736.95	6535.8	
737.13	5999.9	
737.32	4481.6	
737.5	4645.5	
737.68	7030	
737.86	5836	
738.04	4263.2	
738.22	6212.2	
738.4	5709.7	
738.58	6039.5	
738.76	4956.1	
738.94	3887	
739.12	5788.2	
739.3	5721.3	
739.48	5524.7	
739.66	5345.9	
739.84	6128.9	
740.02	6107.7	
740.2	3991.5	
740.38	4406.5	
740.56	6499.6	
740.74	5375.2	
740.92	5031.9	
741.1	4922.6	
741.28	5918.6	
741.46	5837.4	
741.64	4573.8	
741.82	5156.1	
742	5995.1	
742.18	5956.2	
742.36	4767	
742.54	4410.6	
742.72	6494.8	
742.9	5269.4	
743.08	5231.2	
743.26	4030.4	
743.44	6787.7	
743.62	6600.6	
743.8	5403.9	
743.98	4453.6	
744.16	6345.3	
744.34	6008.7	
744.52	5281	
744.7	5276.9	
744.88	6459.3	
745.06	5989.6	
745.24	5305.6	
745.42	5508.4	
745.6	6618.4	
745.78	6303	
745.96	4149.9	
746.14	4478.9	
746.32	7390.4	
746.5	6623.8	
746.68	5079.6	
746.86	4595.6	
747.03	7161.7	
747.21	5302.2	
747.39	5117.9	
747.57	4491.9	
747.75	6275.7	
747.93	6644.3	
748.11	4601.1	
748.29	4432.5	
748.47	7831.4	
748.65	5959.6	
748.83	5317.2	
749.01	4855.1	
749.19	6454.5	
749.37	5582.8	
749.55	4843.4	
749.73	5006.6	
749.91	6149.4	
750.09	5788.2	
750.26	4941.1	
750.44	4370.4	
750.62	6041.5	
750.8	6111.8	
750.98	4259.1	
751.16	4629.1	
751.34	6171.9	
751.52	5556.8	
751.7	5443.5	
751.88	4237.9	
752.06	6677.7	
752.24	6452.5	
752.42	4159.4	
752.59	4561.5	
752.77	6072.2	
752.95	7337.2	
753.13	5298.1	
753.31	4716.5	
753.49	5753.4	
753.67	6225.1	
753.85	5047.6	
754.03	4601.8	
754.21	6556.2	
754.38	6891.4	
754.56	4848.2	
754.74	3799	
754.92	5814.2	
755.1	6610.2	
755.28	3880.2	
755.46	3931.4	
755.64	7406.1	
755.82	7485.3	
755.99	4262.5	
756.17	4360.8	
756.35	4881.7	
756.53	6568.5	
756.71	3229.6	
756.89	4193.6	
757.07	6107.7	
757.25	5210.7	
757.42	4790.9	
757.6	5655.8	
757.78	6219.7	
757.96	5130.2	
758.14	4371	
758.32	3947.8	
758.5	4756.1	
758.67	5569.1	
758.85	4264.6	
759.03	4373.8	
759.21	5777.3	
759.39	5162.9	
759.57	3781.9	
759.75	4971.8	
759.92	6387.6	
760.1	5659.2	
760.28	5375.2	
760.46	5636.7	
760.64	5414.8	
760.82	5199.1	
760.99	5236.7	
761.17	4271.4	
761.35	6283.2	
761.53	5166.3	
761.71	4431.1	
761.89	5194.3	
762.06	6185.5	
762.24	5545.2	
762.42	4488.5	
762.6	4308.2	
762.78	5640.1	
762.96	6283.9	
763.13	4926	
763.31	4542.4	
763.49	6441.5	
763.67	5562.3	
763.85	5449	
764.02	6027.2	
764.2	6765.1	
764.38	5839.4	
764.56	4481.6	
764.74	5373.9	
764.91	6819.7	
765.09	5758.2	
765.27	4155.3	
765.45	3979.9	
765.63	6892.8	
765.8	6726.2	
765.98	3709.6	
766.16	4055.7	
766.34	5262.6	
766.52	5063.3	
766.69	5034.6	
766.87	3903.4	
767.05	5771.2	
767.23	6433.4	
767.41	4219.5	
767.58	4473.4	
767.76	6273.6	
767.94	6355.5	
768.12	4268	
768.29	5072.8	
768.47	5743.9	
768.65	6539.8	
768.83	3850.2	
769	5162.2	
769.18	5335	
769.36	6130.9	
769.54	5135.6	
769.72	4001	
769.89	6386.2	
770.07	6470.9	
770.25	4330.1	
770.43	5674.9	
770.6	7166.5	
770.78	7571.3	
770.96	4444.1	
771.14	5152.7	
771.31	6264.1	
771.49	5590.3	
771.67	3688.4	
771.85	3911.6	
772.02	4891.2	
772.2	5653.1	
772.38	4613.4	
772.55	4156	
772.73	5914.5	
772.91	5624.4	
773.09	4569.7	
773.26	4580.6	
773.44	5816.9	
773.62	5556.8	
773.8	4036.5	
773.97	3810.6	
774.15	5950.7	
774.33	5609.4	
774.5	3958.7	
774.68	4352.6	
774.86	5897.5	
775.04	5599.1	
775.21	3994.9	
775.39	4017.4	
775.57	5816.9	
775.74	6297.5	
775.92	3856.3	
776.1	3743.7	
776.27	5857.9	
776.45	7178.1	
776.63	4058.4	
776.81	3584.6	
776.98	5479.7	
777.16	6597.9	
777.34	4197	
777.51	4177.2	
777.69	5427.8	
777.87	5234.6	
778.04	4207.9	
778.22	4872.1	
778.4	5262.6	
778.57	5969.8	
778.75	3460.4	
778.93	3784	
779.1	5120.6	
779.28	4890.5	
779.46	3544.4	
779.64	4042.7	
779.81	6083.8	
779.99	7071	
780.17	4843.4	
780.34	5005.2	
780.52	5504.3	
780.69	5763	
780.87	4368.3	
781.05	3863.8	
781.22	5621.7	
781.4	5730.2	
781.58	4072	
781.75	3225.6	
781.93	5582.1	
782.11	5063.9	
782.28	5011.4	
782.46	4031.1	
782.64	4851.6	
782.81	5941.2	
782.99	4162.8	
783.17	4099.4	
783.34	5771.9	
783.52	4912.4	
783.69	4315.8	
783.87	5212.8	
784.05	5016.8	
784.22	5029.8	
784.4	5161.6	
784.58	4435.2	
784.75	6030.6	
784.93	5083.7	
785.1	4055.7	
785.28	4756.1	
785.46	5694.7	
785.63	5038	
785.81	4048.2	
785.99	3894.6	
786.16	5216.2	
786.34	5649.7	
786.51	3913	
786.69	4373.8	
786.87	4800.4	
787.04	5330.2	
787.22	3789.4	
787.39	4730.1	
787.57	5053	
787.75	6154.1	
787.92	4999.8	
788.1	4863.2	
788.27	5079	
788.45	4786.8	
788.63	4607.2	
788.8	3297.2	
788.98	5644.9	
789.15	4756.7	
789.33	3400.3	
789.5	4145.8	
789.68	6057.2	
789.86	6130.3	
790.03	4534.9	
790.21	3936.2	
790.38	6024.4	
790.56	5218.2	
790.73	3796.9	
790.91	3830.4	
791.09	5012.7	
791.26	5890	
791.44	4055.7	
791.61	3482.9	
791.79	5021.6	
791.96	5126.1	
792.14	3579.8	
792.32	3196.2	
792.49	5096	
792.67	5193.6	
792.84	3720.5	
793.02	3428.3	
793.19	5757.5	
793.37	6290	
793.54	3176.4	
793.72	3587.4	
793.89	6392.4	
794.07	5055.1	
794.25	4192.2	
794.42	3244.7	
794.6	6223.8	
794.77	5771.9	
794.95	4514.4	
795.12	3912.3	
795.3	5070.1	
795.47	5737	
795.65	4315.8	
795.82	4166.9	
796	4871.4	
796.17	6897.6	
796.35	4009.2	
796.52	4809.3	
796.7	5589.6	
796.87	5702.2	
797.05	4970.4	
797.22	4911.7	
797.4	5676.3	
797.57	6783.6	
797.75	4119.1	
797.92	3820.8	
798.1	5976.7	
798.27	5092.6	
798.45	3312.2	
798.62	3583.9	
798.8	5341.8	
798.97	5915.9	
799.15	4393.6	
799.32	4164.2	
799.5	4640.7	
799.67	5489.2	
799.85	4517.8	
800.02	3220.1	
800.2	4975.2	
800.37	5378	
800.55	4702.1	
800.72	3888.4	
800.9	5832.6	
801.07	6334.4	
801.25	5189.6	
801.42	4261.8	
801.6	5921.4	
801.77	5544.5	
801.95	3966.2	
802.12	3860.4	
802.29	5593.7	
802.47	5610.8	
802.64	4246.8	
802.82	3203	
802.99	5006.6	
803.17	6077.7	
803.34	4143.7	
803.52	3748.5	
803.69	6804	
803.87	4812.7	
804.04	4141.7	
804.21	4215.4	
804.39	6217	
804.56	5235.3	
804.74	3568.9	
804.91	4337.6	
805.09	5099.4	
805.26	5193	
805.44	3607.2	
805.61	3921.9	
805.78	5804.6	
805.96	5773.9	
806.13	4306.9	
806.31	4633.9	
806.48	4645.5	
806.66	5173.2	
806.83	4270.7	
807	4177.2	
807.18	5052.3	
807.35	5467.4	
807.53	4146.5	
807.7	3296.5	
807.87	6296.1	
808.05	5126.1	
808.22	4695.3	
808.4	3326.6	
808.57	5138.4	
808.74	4789.5	
808.92	3801	
809.09	4843.4	
809.27	4989.5	
809.44	5653.1	
809.61	3366.2	
809.79	3751.9	
809.96	6252.4	
810.14	5904.3	
810.31	3263.1	
810.48	3975.8	
810.66	5239.4	
810.83	6038.1	
811.01	3820.8	
811.18	4334.2	
811.35	5886.5	
811.53	4577.2	
811.7	4627.7	
811.87	4245.4	
812.05	5137.7	
812.22	5051.7	
812.39	3706.1	
812.57	3545.7	
812.74	5125.4	
812.92	6954.2	
813.09	3980.6	
813.26	4439.3	
813.44	6607.4	
813.61	5012.1	
813.78	3347.7	
813.96	4515.1	
814.13	5137.7	
814.3	4829.8	
814.48	4915.1	
814.65	4012	
814.82	6420.4	
815	4958.1	
815.17	4094.6	
815.34	5063.3	
815.52	5008.6	
815.69	5030.5	
815.87	4096.6	
816.04	3523.2	
816.21	5124.7	
816.38	4513	
816.56	3929.4	
816.73	3707.5	
816.9	6541.9	
817.08	5920	
817.25	3771	
817.42	4774.5	
817.6	4668	
817.77	5135.6	
817.94	4261.8	
818.12	3698.6	
818.29	4882.4	
818.46	7697.6	
818.64	3842	
818.81	3645.4	
818.98	4805.9	
819.16	7005.4	
819.33	4416.8	
819.5	4141.7	
819.67	5535	
819.85	6161	
820.02	4074.8	
820.19	4244.8	
820.37	5335	
820.54	4915.8	
820.71	4191.5	
820.88	5264	
821.06	5360.2	
821.23	4927.4	
821.4	4257	
821.58	4126	
821.75	5898.8	
821.92	5233.9	
822.09	3394.8	
822.27	3447.4	
822.44	5163.6	
822.61	5079.6	
822.79	3407.1	
822.96	6609.5	
823.13	5645.6	
823.3	4790.9	
823.48	3926	
823.65	3540.3	
823.82	5853.1	
823.99	4683.7	
824.17	4998.4	
824.34	3670	
824.51	6788.3	
824.68	5223	
824.86	3765.5	
825.03	4235.2	
825.2	5094.7	
825.37	6262.7	
825.55	3714.3	
825.72	4112.3	
825.89	6864.1	
826.06	6315.9	
826.24	4050.9	
826.41	4016.7	
826.58	6221.7	
826.75	5480.4	
826.92	3164.8	
827.1	3543.7	
827.27	8613.8	
827.44	6857.3	
827.61	3842	
827.79	4663.2	
827.96	4920.6	
828.13	5246.2	
828.3	3963.5	
828.47	3371.6	
828.65	5358.9	
828.82	5315.2	
828.99	5219.6	
829.16	4564.2	
829.34	5793	
829.51	5520.6	
829.68	4136.9	
829.85	4324.6	
830.02	6052.4	
830.2	5757.5	
830.37	3091.1	
830.54	5114.5	
830.71	6593.8	
830.88	5096	
831.05	3267.9	
831.23	3810.6	
831.4	6262.7	
831.57	7062.1	
831.74	3812	
831.91	3375.7	
832.09	5371.8	
832.26	5714.5	
832.43	3982.6	
832.6	4519.2	
832.77	5358.2	
832.94	6186.9	
833.12	3163.4	
833.29	3979.2	
833.46	5064.6	
833.63	7301	
833.8	4339	
833.97	3996.3	
834.15	5804.6	
834.32	5577.3	
834.49	4169.7	
834.66	4229.1	
834.83	6036.7	
835	4817.5	
835.17	3908.9	
835.35	3856.3	
835.52	5632.6	
835.69	5487.9	
835.86	3975.8	
836.03	3309.5	
836.2	5719.3	
836.37	5327.4	
836.55	3968.3	
836.72	3723.9	
836.89	5280.3	
837.06	5885.2	
837.23	4134.8	
837.4	4501.4	
837.57	6619.7	
837.75	7316.7	
837.92	3667.9	
838.09	3895.2	
838.26	5298.1	
838.43	6131.6	
838.6	4201.7	
838.77	3718.4	
838.94	6926.2	
839.11	6692.8	
839.29	4006.5	
839.46	3146.4	
839.63	5716.6	
839.8	5464.7	
839.97	3870	
840.14	3919.1	
840.31	5436	
840.48	5776.6	
840.65	3225.6	
840.82	3766.9	
841	5681.7	
841.17	5738.4	
841.34	3531.4	
841.51	3560.7	
841.68	5624.4	
841.85	5419.6	
842.02	3690.4	
842.19	3033	
842.36	5467.4	
842.53	5517.9	
842.7	3582.6	
842.87	4409.3	
843.05	7311.2	
843.22	5386.2	
843.39	3366.9	
843.56	3646.7	
843.73	5192.3	
843.9	5773.9	
844.07	5702.2	
844.24	4819.6	
844.41	8568	
844.58	4944.5	
844.75	3397.6	
844.92	3716.4	
845.09	5793	
845.26	5713.2	
845.43	3553.9	
845.6	3710.2	
845.77	5724.1	
845.94	5436	
846.12	3990.8	
846.29	4203.1	
846.46	5952.1	
846.63	5756.2	
846.8	3571.7	
846.97	4177.2	
847.14	6186.9	
847.31	5629.9	
847.48	4057	
847.65	4369.7	
847.82	6029.9	
847.99	5992.4	
848.16	4728.1	
848.33	4428.4	
848.5	5281	
848.67	6174.6	
848.84	3515.7	
849.01	3661.1	
849.18	5133.6	
849.35	4762.9	
849.52	4452.3	
849.69	3497.9	
849.86	5913.9	
850.03	6111.1	
850.2	3570.3	
850.37	4338.3	
850.54	6084.5	
850.71	5381.4	
850.88	4281.6	
851.05	3516.4	
851.22	5653.8	
851.39	6277	
851.56	3315.7	
851.73	4070.7	
851.9	5046.9	
852.07	5968.5	
852.24	3947.8	
852.41	3524.6	
852.58	5619.6	
852.75	5124	
852.92	3996.3	
853.09	3491.1	
853.26	5304.2	
853.43	6210.1	
853.6	3564.8	
853.77	2988.7	
853.94	6250.4	
854.11	5677.7	
854.28	5292.6	
854.44	3806.5	
854.61	6756.9	
854.78	6077	
854.95	3493.8	
855.12	4493.2	
855.29	4520.5	
855.46	6455.9	
855.63	3472.7	
855.8	4936.3	
855.97	5241.4	
856.14	6063.4	
856.31	5032.5	
856.48	3821.5	
856.65	5259.2	
856.82	5017.5	
856.99	3365.5	
857.16	3842.7	
857.33	6980.2	
857.49	5389.6	
857.66	3875.4	
857.83	4156.7	
858	5358.9	
858.17	5547.9	
858.34	3360.7	
858.51	3523.9	
858.68	6488	
858.85	6528.2	
859.02	4128	
859.19	4399.7	
859.36	4966.3	
859.52	5059.2	
859.69	3586.7	
859.86	4187.4	
860.03	5094	
860.2	6279.1	
860.37	3159.3	
860.54	3528.7	
860.71	6001.9	
860.88	6354.2	
861.05	3983.3	
861.21	4493.9	
861.38	6419	
861.55	4875.5	
861.72	3245.3	
861.89	3942.3	
862.06	6006.7	
862.23	6563.1	
862.4	3418.1	
862.56	3713	
862.73	5849.7	
862.9	5550.7	
863.07	4165.6	
863.24	3185.3	
863.41	4914.4	
863.58	5026.4	
863.75	3651.5	
863.91	4018.8	
864.08	6382.8	
864.25	5912.5	
864.42	4469.4	
864.59	4984.8	
864.76	6658.6	
864.93	5067.4	
865.09	3450.1	
865.26	3769.6	
865.43	6261.3	
865.6	6631.3	
865.77	3090.4	
865.94	3500.7	
866.1	6367.8	
866.27	6019	
866.44	5328.1	
866.61	3359.4	
866.78	5396.4	
866.95	5864.7	
867.11	3414.6	
867.28	3122.5	
867.45	6082.5	
867.62	5062.6	
867.79	3996.3	
867.96	3541.6	
868.12	5050.3	
868.29	6093.4	
868.46	3492.5	
868.63	4716.5	
868.8	6208.1	
868.97	5943.9	
869.13	3754.6	
869.3	3678.2	
869.47	5801.9	
869.64	6030.6	
869.81	3590.1	
869.97	3592.8	
870.14	5711.8	
870.31	6431.3	
870.48	3457.7	
870.65	4462.5	
870.81	5326.8	
870.98	5322.7	
871.15	4046.1	
871.32	3682.2	
871.48	5784.8	
871.65	6427.2	
871.82	3515.7	
871.99	3913	
872.16	6963.1	
872.32	6320	
872.49	3513.6	
872.66	3577.8	
872.83	5982.1	
872.99	5258.5	
873.16	4099.4	
873.33	3541.6	
873.5	5653.1	
873.67	5582.1	
873.83	3743.7	
874	4755.4	
874.17	5720.7	
874.34	6855.9	
874.5	4554.7	
874.67	4521.2	
874.84	6427.2	
875.01	5003.2	
875.17	4993.6	
875.34	3519.1	
875.51	5627.1	
875.68	6789.7	
875.84	4279.6	
876.01	5235.3	
876.18	5937.7	
876.34	5840.8	
876.51	3609.9	
876.68	3438.5	
876.85	5415.5	
877.01	6246.3	
877.18	5122.7	
877.35	3527.3	
877.52	5523.4	
877.68	4975.9	
877.85	3448.1	
878.02	3479.5	
878.18	5522.7	
878.35	5188.9	
878.52	2816.6	
878.69	4294.6	
878.85	5950.7	
879.02	5945.9	
879.19	5091.3	
879.35	3780.6	
879.52	5921.4	
879.69	6139.8	
879.86	2992.8	
880.02	3969	
880.19	5454.4	
880.36	6700.3	
880.52	4033.1	
880.69	4231.1	
880.86	6023.8	
881.02	6126.2	
881.19	3899.3	
881.36	3859.1	
881.52	5850.4	
881.69	5216.9	
881.86	3823.6	
882.02	3732.8	
882.19	6195.1	
882.36	7290.8	
882.52	3652.2	
882.69	4960.2	
882.86	5739.8	
883.02	5594.4	
883.19	4326.7	
883.36	4023.6	
883.52	6064	
883.69	6914.6	
883.86	3620.1	
884.02	3256.3	
884.19	6027.2	
884.36	5472.9	
884.52	4027	
884.69	3768.3	
884.86	5267.4	
885.02	6595.8	
885.19	3945.8	
885.36	4117.1	
885.52	5481.7	
885.69	5699.5	
885.86	5238.7	
886.02	4586.8	
886.19	6008.1	
886.35	5452.4	
886.52	3921.9	
886.69	4999.8	
886.85	5081.7	
887.02	6416.3	
887.19	6416.3	
887.35	6416.3	
887.52	6416.3	
887.68	6416.3	
887.85	6416.3	
888.02	6416.3	
888.18	6416.3	
888.35	6416.3	
888.51	6416.3	
888.68	6416.3	
888.85	6416.3	
889.01	6416.3	
889.18	6416.3	
889.35	6416.3	
889.51	6416.3	
889.68	6416.3	
889.84	6416.3	
890.01	6416.3	
890.17	6416.3	
890.34	6416.3	
890.51	6416.3	
890.67	6416.3	
890.84	6416.3	
891	6416.3	
891.17	6416.3	
891.34	6416.3	
891.5	6416.3	
891.67	6416.3	
891.83	6416.3	
892	6416.3	
892.16	6416.3	
892.33	6416.3	
892.5	6416.3	
892.66	6416.3	
892.83	6416.3	
892.99	6416.3	
893.16	6416.3	
893.32	6416.3	
893.49	6416.3	
893.65	6416.3	
893.82	6416.3	
893.99	6416.3	
894.15	6416.3	
894.32	6416.3	
894.48	6416.3	
894.65	6416.3	
894.81	6416.3	
894.98	6416.3	
895.14	6416.3	
895.31	6416.3	
895.47	6416.3	
895.64	6416.3	
895.81	6416.3	
895.97	6416.3	
896.14	6416.3	
896.3	6416.3	
896.47	6416.3	
896.63	6416.3	
896.8	6416.3	
896.96	6416.3	
897.13	6416.3	
897.29	6416.3	
897.46	6416.3	
897.62	6416.3	
897.79	6416.3	
897.95	6416.3	
898.12	6416.3	
898.28	6416.3	
898.45	6416.3	
898.61	6416.3	
898.78	6416.3	
898.94	6416.3	
899.11	6416.3	
899.27	6416.3	
899.44	6416.3	
899.6	6416.3	
899.77	6416.3	
899.93	6416.3	
900.1	6416.3	
900.26	6416.3	
900.43	6416.3	
900.59	6416.3	
900.76	6416.3	
900.92	6416.3	
901.09	6416.3	
901.25	6416.3	
901.42	6416.3	
901.58	6416.3	
901.75	6416.3	
901.91	6416.3	
902.07	6416.3	
902.24	6416.3	
902.4	6416.3	
902.57	6416.3	
902.73	6416.3	
902.9	6416.3	
903.06	6416.3	
903.23	6416.3	
903.39	6416.3	
903.56	6416.3	
903.72	6416.3	
903.88	6416.3	
904.05	6416.3	
904.21	6416.3	
904.38	6416.3	
904.54	6416.3	
904.71	6416.3	
904.87	6416.3	
905.03	6416.3	
905.2	6416.3	
905.36	6416.3	
905.53	6416.3	
905.69	6416.3	
905.86	6416.3	
906.02	6416.3	
906.18	6416.3	
906.35	6416.3	
906.51	6416.3	
906.68	6416.3	
906.84	6416.3	
907.01	6416.3	
907.17	6416.3	
907.33	6416.3	
907.5	6416.3	
907.66	6416.3	
907.83	6416.3	
907.99	6416.3	
908.15	6416.3	
908.32	6416.3	
908.48	6416.3	
908.65	6416.3	
908.81	6416.3	
908.97	6416.3	
909.14	6416.3	
909.3	6416.3	
909.47	6416.3	
909.63	6416.3	
909.79	6416.3	
909.96	6416.3	
910.12	6416.3	
910.28	6416.3	
910.45	6416.3	
910.61	6416.3	
910.78	6416.3	
910.94	6416.3	
911.1	6416.3	
911.27	6416.3	
911.43	6416.3	
911.59	6416.3	
911.76	6416.3	
911.92	6416.3	
912.08	6416.3	
912.25	6416.3	
912.41	6416.3	
912.57	6416.3	
912.74	6416.3	
912.9	6416.3	
913.07	6416.3	
913.23	6416.3	
913.39	6416.3	
913.56	6416.3	
913.72	6416.3	
913.88	6416.3	
914.05	6416.3	
914.21	6416.3	
914.37	6416.3	
914.54	6416.3	
914.7	6416.3	
914.86	6416.3	
915.03	6416.3	
915.19	6416.3	
