Wavelength	Intensities	
nm	a.u.	
179.22	1936.4	
179.44	1940.1	
179.65	1932.6	
179.86	1947.6	
180.08	1939.4	
180.29	5044.8	
180.51	3608.5	
180.72	5725.4	
180.94	6808.8	
181.15	3343	
181.37	3234.4	
181.58	5601.9	
181.79	5907	
182.01	3425.6	
182.22	3764.2	
182.44	5868.1	
182.65	4899.4	
182.87	4700.1	
183.08	4151.2	
183.29	6244.3	
183.51	5131.5	
183.72	3729.4	
183.94	5532.9	
184.15	5484.5	
184.37	5503.6	
184.58	3349.8	
184.79	4571.1	
185.01	5076.2	
185.22	5870.2	
185.44	4909.7	
185.65	4051.6	
185.86	5370.5	
186.08	4949.3	
186.29	3201	
186.51	3506.8	
186.72	5111	
186.94	6031.3	
187.15	3984	
187.36	4145.1	
187.58	7940.7	
187.79	5589.6	
188.01	4339	
188.22	6779.5	
188.43	6777.4	
188.65	5876.3	
188.86	3426.9	
189.08	4103.4	
189.29	5341.8	
189.5	5255.8	
189.72	3799	
189.93	3905.5	
190.15	6074.3	
190.36	7337.2	
190.57	4218.8	
190.79	4091.8	
191	6208.8	
191.22	6105.7	
191.43	4250.2	
191.64	3504.1	
191.86	6421.7	
192.07	6197.2	
192.29	3708.2	
192.5	3837.2	
192.71	6115.9	
192.93	5236	
193.14	3749.8	
193.35	3898.6	
193.57	5298.1	
193.78	6042.2	
194	3082.9	
194.21	3752.6	
194.42	5007.3	
194.64	5555.5	
194.85	4156	
195.07	4924.7	
195.28	5549.3	
195.49	4797	
195.71	5165.7	
195.92	3573.7	
196.13	5712.5	
196.35	5834	
196.56	5502.9	
196.78	4161.5	
196.99	7202	
197.2	6764.4	
197.42	4759.5	
197.63	4231.8	
197.84	4874.8	
198.06	5757.5	
198.27	3829	
198.48	5135.6	
198.7	5297.4	
198.91	5477	
199.13	4226.3	
199.34	4178.5	
199.55	5943.2	
199.77	4738.3	
199.98	3656.3	
200.19	4214.7	
200.41	5347.9	
200.62	5110.4	
200.83	4358.8	
201.05	4669.4	
201.26	5444.9	
201.47	5132.2	
201.69	3741	
201.9	3519.1	
202.11	5468.1	
202.33	6582.9	
202.54	3984.7	
202.76	4435.9	
202.97	5674.9	
203.18	5626.5	
203.4	4394.9	
203.61	4266.6	
203.82	5584.8	
204.04	5206.6	
204.25	4244.1	
204.46	4146.5	
204.68	5504.9	
204.89	5800.5	
205.1	4061.1	
205.32	3555.3	
205.53	5965.7	
205.74	6102.3	
205.96	2997.5	
206.17	4323.3	
206.38	5940.5	
206.6	6058.6	
206.81	4823.6	
207.02	3900	
207.24	5721.3	
207.45	6171.9	
207.66	3973.1	
207.88	3358.7	
208.09	5760.9	
208.3	5528.2	
208.52	3637.9	
208.73	4063.2	
208.94	5541.8	
209.15	6264.7	
209.37	3973.7	
209.58	4215.4	
209.79	6120.7	
210.01	5306.3	
210.22	3173.7	
210.43	3302	
210.65	5524.7	
210.86	5980.1	
211.07	4003.8	
211.29	3637.9	
211.5	5957.5	
211.71	5468.1	
211.93	3652.9	
212.14	3635.8	
212.35	5418.2	
212.56	5748.6	
212.78	4265.2	
212.99	3444.7	
213.2	6537.1	
213.42	5252.4	
213.63	3827	
213.84	4079.6	
214.06	4871.4	
214.27	5010.7	
214.48	3989.4	
214.69	4267.3	
214.91	6221.7	
215.12	6367.1	
215.33	4355.3	
215.55	4790.2	
215.76	6841.6	
215.97	5889.3	
216.18	4143.7	
216.4	4067.9	
216.61	5173.9	
216.82	6035.4	
217.04	3684.3	
217.25	3855	
217.46	6215.6	
217.67	6001.2	
217.89	3222.8	
218.1	3373.7	
218.31	5610.8	
218.53	5685.8	
218.74	3838.6	
218.95	3697.9	
219.16	5496.7	
219.38	6505.7	
219.59	3756.7	
219.8	4524	
220.01	7179.5	
220.23	5565	
220.44	4919.2	
220.65	3593.5	
220.87	5591	
221.08	6191	
221.29	3358.7	
221.5	4585.4	
221.72	7614.3	
221.93	5255.1	
222.14	4237.2	
222.35	4958.8	
222.57	5587.5	
222.78	5828.5	
222.99	4035.9	
223.2	4325.3	
223.42	5822.4	
223.63	5947.3	
223.84	3044.6	
224.05	3016	
224.27	7100.3	
224.48	6475	
224.69	4993.6	
224.9	4235.9	
225.12	5728.2	
225.33	5560.2	
225.54	3317.7	
225.75	3740.3	
225.97	5068	
226.18	5367	
226.39	4004.5	
226.6	3772.4	
226.82	5322	
227.03	5156.8	
227.24	4201.1	
227.45	3422.8	
227.67	5920	
227.88	6564.4	
228.09	4683.7	
228.3	4719.9	
228.52	5982.8	
228.73	5496.1	
228.94	3893.2	
229.15	3442.6	
229.36	5431.2	
229.58	5297.4	
229.79	3977.2	
230	4503.5	
230.21	6595.1	
230.43	5608	
230.64	4151.2	
230.85	4362.9	
231.06	5975.3	
231.28	5952.1	
231.49	3430.3	
231.7	4100	
231.91	5877	
232.12	5563	
232.34	3547.8	
232.55	4024.9	
232.76	6232	
232.97	5696.1	
233.18	3663.1	
233.4	4175.8	
233.61	5800.5	
233.82	5238.7	
234.03	3833.8	
234.25	3784	
234.46	7798.7	
234.67	5506.3	
234.88	4248.9	
235.09	3704.8	
235.31	5849	
235.52	5416.9	
235.73	4174.4	
235.94	3517	
236.15	5274.9	
236.37	6785.6	
236.58	3672.7	
236.79	4007.2	
237	5831.9	
237.21	5007.3	
237.43	4284.4	
237.64	3383.9	
237.85	10228	
238.06	5068	
238.27	4306.2	
238.48	3502.7	
238.7	5883.1	
238.91	5422.3	
239.12	4042.7	
239.33	4050.2	
239.54	5053.7	
239.76	5415.5	
239.97	3981.9	
240.18	3982.6	
240.39	6950.8	
240.6	5796.4	
240.82	4103.4	
241.03	3360	
241.24	5485.1	
241.45	6395.8	
241.66	3644.7	
241.87	4346.5	
242.09	6225.1	
242.3	6687.3	
242.51	4369.7	
242.72	3970.3	
242.93	5993	
243.14	5461.2	
243.36	4640.7	
243.57	5008.6	
243.78	6434	
243.99	5931.6	
244.2	4009.9	
244.41	3680.2	
244.63	5028.4	
244.84	5923.4	
245.05	4305.5	
245.26	4027.7	
245.47	5805.3	
245.68	6109.8	
245.9	5451	
246.11	4192.9	
246.32	5394.3	
246.53	5767.1	
246.74	6537.1	
246.95	3360	
247.16	4965.6	
247.38	5563.6	
247.59	3327.3	
247.8	4074.8	
248.01	5197.7	
248.22	5451.7	
248.43	3627	
248.64	3912.3	
248.86	4884.4	
249.07	5271.5	
249.28	3463.8	
249.49	4130.1	
249.7	6096.1	
249.91	6298.9	
250.12	3282.9	
250.34	3394.8	
250.55	5629.2	
250.76	5539.1	
250.97	4118.5	
251.18	4244.8	
251.39	6301.6	
251.6	5785.5	
251.81	4218.1	
252.03	4246.8	
252.24	5306.3	
252.45	6094.1	
252.66	3494.5	
252.87	4468	
253.08	5554.1	
253.29	7357	
253.5	3515	
253.72	4900.1	
253.93	5378	
254.14	6617	
254.35	3803.8	
254.56	3915	
254.77	5838.8	
254.98	5146.5	
255.19	3747.1	
255.41	4844.8	
255.62	5657.2	
255.83	6214.2	
256.04	4249.5	
256.25	4248.9	
256.46	6809.5	
256.67	5184.8	
256.88	4147.8	
257.09	4680.3	
257.31	5184.1	
257.52	5248.3	
257.73	5209.3	
257.94	3796.9	
258.15	5417.6	
258.36	5548.6	
258.57	4799.8	
258.78	3037.8	
258.99	6132.3	
259.2	5385.5	
259.41	3870	
259.63	3900.7	
259.84	6418.3	
260.05	6969.9	
260.26	5055.8	
260.47	3783.3	
260.68	6183.5	
260.89	5459.9	
261.1	4666.6	
261.31	3646.7	
261.52	6143.2	
261.73	6571.2	
261.95	4946.5	
262.16	4341.7	
262.37	6348.7	
262.58	6333	
262.79	5006.6	
263	3934.1	
263.21	5434.6	
263.42	5064.6	
263.63	3965.6	
263.84	3919.1	
264.05	6111.1	
264.26	6486.6	
264.47	4854.4	
264.69	4331.5	
264.9	6213.5	
265.11	5788.9	
265.32	3694.5	
265.53	3852.9	
265.74	5643.5	
265.95	4956.1	
266.16	4054.3	
266.37	4542.4	
266.58	5629.2	
266.79	5332.2	
267	3749.8	
267.21	3531.4	
267.42	5066.7	
267.63	5501.5	
267.84	4041.3	
268.06	3415.3	
268.27	5969.1	
268.48	6345.3	
268.69	3858.4	
268.9	4696.7	
269.11	6224.5	
269.32	4973.8	
269.53	4056.3	
269.74	3702.7	
269.95	5860.6	
270.16	4868.7	
270.37	4022.9	
270.58	4697.4	
270.79	5348.6	
271	6034	
271.21	4276.2	
271.42	4073.4	
271.63	5689.3	
271.84	5130.8	
272.05	3172.3	
272.26	3597.6	
272.47	5572.5	
272.68	5763.7	
272.89	3831.7	
273.11	4539	
273.32	5293.3	
273.53	6577.4	
273.74	4353.3	
273.95	4262.5	
274.16	6305.7	
274.37	5561.6	
274.58	4444.8	
274.79	3510.9	
275	5629.9	
275.21	6289.3	
275.42	5300.1	
275.63	4563.6	
275.84	5834	
276.05	7352.2	
276.26	4280.3	
276.47	3938.2	
276.68	5350.7	
276.89	6595.1	
277.1	4588.1	
277.31	3516.4	
277.52	5812.8	
277.73	5976	
277.94	3495.2	
278.15	3945.1	
278.36	5687.2	
278.57	5178.6	
278.78	3859.7	
278.99	4301.4	
279.2	5087.8	
279.41	5123.3	
279.62	5109	
279.83	3545.7	
280.04	6821.1	
280.25	5050.3	
280.46	5014.1	
280.67	3976.5	
280.88	5143.8	
281.09	6236.7	
281.3	4257.7	
281.51	5350.7	
281.72	5223.7	
281.93	6096.1	
282.14	3733.4	
282.35	4100	
282.56	6030.6	
282.77	5985.5	
282.98	3870.7	
283.19	4801.8	
283.4	7494.2	
283.61	5528.2	
283.82	3609.2	
284.03	4963.6	
284.24	5626.5	
284.45	6201.2	
284.66	5020.3	
284.87	4833.9	
285.08	6176.7	
285.29	6234.7	
285.5	3388	
285.71	3947.8	
285.92	6173.3	
286.12	6897.6	
286.33	5032.5	
286.54	3920.5	
286.75	6066.1	
286.96	5429.2	
287.17	3593.5	
287.38	4799.8	
287.59	5157.5	
287.8	5051.7	
288.01	3944.4	
288.22	4548.5	
288.43	6122.7	
288.64	5085.8	
288.85	4700.8	
289.06	4475.5	
289.27	5958.9	
289.48	6527.6	
289.69	5048.9	
289.9	4472.8	
290.11	6212.2	
290.32	5175.2	
290.53	4757.4	
290.74	4402.5	
290.94	5962.3	
291.15	6069.5	
291.36	3792.8	
291.57	4471.4	
291.78	5223	
291.99	4898.1	
292.2	3620.1	
292.41	4350.6	
292.62	6150.7	
292.83	5898.2	
293.04	5441.5	
293.25	3627	
293.46	5311.1	
293.67	6212.2	
293.88	3739.6	
294.09	3605.8	
294.29	5068.7	
294.5	5672.2	
294.71	4058.4	
294.92	3886.4	
295.13	5323.4	
295.34	6693.4	
295.55	3364.1	
295.76	3493.2	
295.97	5966.4	
296.18	6778.8	
296.39	3543	
296.6	3778.5	
296.81	5655.8	
297.01	5977.3	
297.22	3926.6	
297.43	3762.8	
297.64	5178.6	
297.85	5186.8	
298.06	3100.6	
298.27	3398.9	
298.48	5672.2	
298.69	5190.2	
298.9	4085.7	
299.11	3690.4	
299.31	5042.1	
299.52	5070.8	
299.73	4385.4	
299.94	4238.6	
300.15	5504.3	
300.36	5091.9	
300.57	4310.3	
300.78	4254.3	
300.99	5423	
301.2	5646.9	
301.4	3687.7	
301.61	4101.4	
301.82	5879.7	
302.03	5971.2	
302.24	4613.4	
302.45	3571	
302.66	5915.2	
302.87	6323.4	
303.08	3730.7	
303.29	5182.7	
303.49	5294	
303.7	5573.2	
303.91	3325.9	
304.12	4950.6	
304.33	5040.7	
304.54	5724.1	
304.75	3792.8	
304.96	3624.2	
305.16	5898.8	
305.37	6705	
305.58	3294.5	
305.79	3374.4	
306	5956.2	
306.21	4925.4	
306.42	3736.9	
306.63	5846.3	
306.83	5444.9	
307.04	6147.3	
307.25	4166.9	
307.46	4123.9	
307.67	4737	
307.88	6033.3	
308.09	3659	
308.29	3848.8	
308.5	5626.5	
308.71	6211.5	
308.92	4056.3	
309.13	3673.4	
309.34	5403.2	
309.55	5449.6	
309.75	4693.3	
309.96	4329.4	
310.17	5993	
310.38	5259.2	
310.59	4594.3	
310.8	3545	
311.01	6559.6	
311.21	5405.3	
311.42	3582.6	
311.63	3738.9	
311.84	5216.2	
312.05	5722.7	
312.26	4200.4	
312.46	4594.3	
312.67	5354.8	
312.88	5068	
313.09	3627.6	
313.3	3498.6	
313.51	6359.6	
313.71	6792.4	
313.92	3589.4	
314.13	3863.2	
314.34	5788.9	
314.55	5441.5	
314.76	4670.1	
314.96	4122.6	
315.17	5606	
315.38	6055.2	
315.59	3633.1	
315.8	3512.3	
316.01	6535.1	
316.21	6464.1	
316.42	3497.2	
316.63	4009.2	
316.84	5454.4	
317.05	6335.1	
317.26	4336.9	
317.46	3809.9	
317.67	5492	
317.88	5947.3	
318.09	4675.5	
318.3	3373.7	
318.5	5216.9	
318.71	5850.4	
318.92	6011.5	
319.13	4253.6	
319.34	6096.8	
319.54	6240.2	
319.75	3359.4	
319.96	3287.7	
320.17	5950.7	
320.38	6139.1	
320.58	3325.2	
320.79	4007.2	
321	6122.7	
321.21	6228.6	
321.42	3995.6	
321.62	3305.4	
321.83	5127.4	
322.04	5545.9	
322.25	3867.2	
322.46	3689.8	
322.66	5654.4	
322.87	5794.4	
323.08	4545.8	
323.29	3631	
323.5	6650.4	
323.7	5098.8	
323.91	4989.5	
324.12	4458.4	
324.33	5629.9	
324.53	5868.1	
324.74	4311	
324.95	4514.4	
325.16	4931.5	
325.37	5337	
325.57	3702.7	
325.78	3801	
325.99	5604.6	
326.2	5008	
326.4	5257.1	
326.61	3343.7	
326.82	5466	
327.03	5658.5	
327.24	5327.4	
327.44	5010.7	
327.65	5827.8	
327.86	4708.3	
328.07	4287.1	
328.27	3512.3	
328.48	6270.9	
328.69	5077.6	
328.9	5332.2	
329.1	3893.2	
329.31	5442.1	
329.52	6401.3	
329.73	3620.8	
329.93	4159.4	
330.14	5533.6	
330.35	5838.1	
330.56	6072.2	
330.76	4577.9	
330.97	5364.3	
331.18	5787.6	
331.39	4063.2	
331.59	3274	
331.8	6151.4	
332.01	6282.5	
332.22	3768.3	
332.42	4316.4	
332.63	5675.6	
332.84	5244.2	
333.05	4100	
333.25	3706.1	
333.46	5302.2	
333.67	5562.3	
333.88	3832.4	
334.08	4233.8	
334.29	7475.1	
334.5	6255.2	
334.7	3547.1	
334.91	5205.3	
335.12	5104.9	
335.33	6042.2	
335.53	4104.1	
335.74	6098.9	
335.95	5289.2	
336.16	5188.2	
336.36	4020.2	
336.57	4664.6	
336.78	5008.6	
336.98	6165.8	
337.19	4980.7	
337.4	4011.3	
337.61	6732.4	
337.81	5055.1	
338.02	3743	
338.23	4823.6	
338.43	6338.5	
338.64	5213.4	
338.85	3655.6	
339.05	4838.7	
339.26	6493.4	
339.47	4992.3	
339.68	3670.6	
339.88	5543.2	
340.09	5847	
340.3	6085.9	
340.5	4300.7	
340.71	3305.4	
340.92	5009.3	
341.13	6311.2	
341.33	3575.8	
341.54	4321.9	
341.75	5750.7	
341.95	5360.9	
342.16	4138.3	
342.37	4476.2	
342.57	5086.5	
342.78	5523.4	
342.99	4601.1	
343.19	3237.2	
343.4	6031.3	
343.61	5797.8	
343.81	3895.2	
344.02	3558.7	
344.23	5983.5	
344.43	6422.4	
344.64	4633.9	
344.85	4478.2	
345.06	5812.1	
345.26	6188.3	
345.47	4246.8	
345.68	4982.7	
345.88	4882.4	
346.09	6014.2	
346.3	4332.1	
346.5	3250.1	
346.71	5562.3	
346.92	5230.5	
347.12	3300	
347.33	4229.1	
347.54	6236.1	
347.74	6552.1	
347.95	4250.9	
348.16	3103.4	
348.36	5322	
348.57	5190.2	
348.78	4133.5	
348.98	4498	
349.19	5472.9	
349.39	4986.8	
349.6	3334.1	
349.81	3759.4	
350.01	5819	
350.22	5225.1	
350.43	3979.2	
350.63	4894.6	
350.84	5618.3	
351.05	5337	
351.25	3711.6	
351.46	3324.5	
351.67	6221	
351.87	5238.7	
352.08	3903.4	
352.29	4515.8	
352.49	6051.1	
352.7	5731.6	
352.9	3549.1	
353.11	4474.8	
353.32	6764.4	
353.52	5345.2	
353.73	3533.4	
353.94	4499.4	
354.14	5833.3	
354.35	5692.7	
354.55	3645.4	
354.76	4020.8	
354.97	5792.3	
355.17	5609.4	
355.38	3429.7	
355.59	4872.1	
355.79	5191.6	
356	5694.7	
356.2	4016.7	
356.41	3512.3	
356.62	4936.3	
356.82	5425.8	
357.03	4349.9	
357.24	3895.9	
357.44	5238	
357.65	5373.9	
357.85	5254.4	
358.06	4085.7	
358.27	4960.2	
358.47	5187.5	
358.68	3353.2	
358.88	4313	
359.09	5788.2	
359.3	6206.7	
359.5	5012.7	
359.71	4443.4	
359.91	6692.1	
360.12	6021.7	
360.33	4256.4	
360.53	4800.4	
360.74	5182.7	
360.94	5335	
361.15	4480.3	
361.36	3703.4	
361.56	6056.5	
361.77	5460.6	
361.97	5014.8	
362.18	3954.6	
362.38	6081.1	
362.59	5089.2	
362.8	3628.3	
363	3426.9	
363.21	4902.2	
363.41	5614.8	
363.62	4188.1	
363.83	5280.3	
364.03	5654.4	
364.24	6705.7	
364.44	5378.6	
364.65	5364.3	
364.85	5466	
365.06	5031.2	
365.27	3774.4	
365.47	3863.2	
365.68	6511.2	
365.88	5363.6	
366.09	4221.5	
366.29	3883.6	
366.5	5695.4	
366.71	6163.7	
366.91	5251	
367.12	4410.6	
367.32	6766.5	
367.53	5905.7	
367.73	4330.1	
367.94	5341.8	
368.14	5991.7	
368.35	6891.4	
368.56	4344.4	
368.76	4102.1	
368.97	5996.5	
369.17	7830.1	
369.38	3822.9	
369.58	4141	
369.79	5088.5	
369.99	6413.6	
370.2	5182.7	
370.4	4248.2	
370.61	5743.2	
370.82	6906.4	
371.02	4094.6	
371.23	3354.6	
371.43	4941.1	
371.64	6321.4	
371.84	4101.4	
372.05	5352.7	
372.25	7699.7	
372.46	6036.7	
372.66	4117.1	
372.87	4046.8	
373.07	6109.8	
373.28	7813	
373.48	5171.1	
373.69	4872.1	
373.9	5570.5	
374.1	5591.6	
374.31	5113.1	
374.51	4640	
374.72	6385.6	
374.92	5167	
375.13	5265.3	
375.33	4521.9	
375.54	5951.4	
375.74	5371.1	
375.95	4491.2	
376.15	5794.4	
376.36	5947.3	
376.56	5802.6	
376.77	4527.4	
376.97	5027.1	
377.18	6996.5	
377.38	6033.3	
377.59	5346.6	
377.79	3979.2	
378	5836.7	
378.2	6300.2	
378.41	4094.6	
378.61	4024.3	
378.82	6360.3	
379.02	5436	
379.23	4261.8	
379.43	5443.5	
379.64	6432	
379.84	6059.9	
380.05	4111	
380.25	3985.3	
380.46	6179.4	
380.66	5681.1	
380.87	5542.5	
381.07	5866.7	
381.28	6816.3	
381.48	6099.5	
381.69	4130.8	
381.89	4201.7	
382.1	5018.9	
382.3	6331	
382.51	5283.8	
382.71	6284.5	
382.91	6199.9	
383.12	6703.7	
383.32	4532.8	
383.53	4685.8	
383.73	6046.3	
383.94	5741.8	
384.14	4674.1	
384.35	3744.4	
384.55	5681.1	
384.76	6260.6	
384.96	4468	
385.17	4882.4	
385.37	6150.1	
385.58	5442.8	
385.78	4942.4	
385.98	3590.1	
386.19	5644.9	
386.39	6009.4	
386.6	4230.4	
386.8	4412	
387.01	6135	
387.21	6170.5	
387.42	4911	
387.62	5531.6	
387.83	5393.7	
388.03	6123.4	
388.23	4468	
388.44	5403.9	
388.64	5141.8	
388.85	5211.4	
389.05	4904.9	
389.26	5528.2	
389.46	7164.5	
389.67	6524.8	
389.87	4853	
390.07	4900.8	
390.28	5737.7	
390.48	5360.2	
390.69	4083.6	
390.89	4319.8	
391.1	5562.3	
391.3	6535.8	
391.5	5700.2	
391.71	6298.9	
391.91	6225.1	
392.12	7296.9	
392.32	5751.4	
392.53	4937.7	
392.73	5608	
392.93	5802.6	
393.14	4558.8	
393.34	5361.6	
393.55	6311.8	
393.75	5785.5	
393.95	4567.7	
394.16	4540.3	
394.36	5479	
394.57	6238.8	
394.77	3953.9	
394.98	4490.5	
395.18	5481	
395.38	5696.1	
395.59	5349.3	
395.79	4184.7	
396	5477	
396.2	6030.6	
396.4	5081	
396.61	5104.9	
396.81	6260	
397.02	5537.7	
397.22	5426.4	
397.42	5453.7	
397.63	6253.8	
397.83	5416.2	
398.04	4158.1	
398.24	4735.6	
398.44	6034	
398.65	5076.2	
398.85	3993.5	
399.05	4166.9	
399.26	5364.3	
399.46	7221.8	
399.67	4564.9	
399.87	4244.8	
400.07	5825.8	
400.28	6172.6	
400.48	4307.6	
400.69	5482.4	
400.89	6347.3	
401.09	6858.6	
401.3	4238.6	
401.5	5498.1	
401.7	7133.8	
401.91	7361.8	
402.11	4593.6	
402.32	4913.8	
402.52	6472.9	
402.72	6322.1	
402.93	5092.6	
403.13	3905.5	
403.33	7260.7	
403.54	5872.9	
403.74	4822.3	
403.94	5696.1	
404.15	5971.9	
404.35	7167.2	
404.56	4478.2	
404.76	6412.2	
404.96	6341.9	
405.17	6097.5	
405.37	5735	
405.57	5004.6	
405.78	6346.7	
405.98	5846.3	
406.18	4450.2	
406.39	5523.4	
406.59	6328.9	
406.79	6068.8	
407	4315.8	
407.2	4481.6	
407.4	6408.1	
407.61	6656.6	
407.81	4364.9	
408.01	6399.2	
408.22	5254.4	
408.42	7328.3	
408.62	5430.5	
408.83	4873.5	
409.03	5904.3	
409.23	5758.2	
409.44	5042.1	
409.64	5300.1	
409.84	6916.7	
410.05	6807.4	
410.25	5143.1	
410.45	4842.8	
410.66	6225.1	
410.86	8838.4	
411.06	5340.4	
411.27	5248.3	
411.47	8641.7	
411.67	6367.8	
411.88	5509	
412.08	5719.3	
412.28	7105.8	
412.49	7678.5	
412.69	5242.8	
412.89	5201.2	
413.09	7443.7	
413.3	7335.1	
413.5	5345.2	
413.7	4869.4	
413.91	6553.5	
414.11	7417.1	
414.31	5105.6	
414.52	5588.9	
414.72	7053.2	
414.92	6965.1	
415.12	5132.9	
415.33	5605.3	
415.53	7308.5	
415.73	7482.6	
415.94	6108.4	
416.14	5425.1	
416.34	6361	
416.55	5976.7	
416.75	6774	
416.95	6025.8	
417.15	7306.5	
417.36	8103.8	
417.56	6895.5	
417.76	5909.1	
417.97	7784.3	
418.17	7366.5	
418.37	5512.4	
418.57	5547.3	
418.78	7094.8	
418.98	6789	
419.18	6465.4	
419.38	6394.4	
419.59	6895.5	
419.79	6438.8	
419.99	5430.5	
420.2	5861.3	
420.4	7282.6	
420.6	7563.1	
420.8	5275.6	
421.01	5174.5	
421.21	7095.5	
421.41	7328.3	
421.61	5646.2	
421.82	5395.7	
422.02	6578.1	
422.22	7699	
422.42	6288.6	
422.63	5904.3	
422.83	6783.6	
423.03	7988.4	
423.23	5890.6	
423.44	4714.4	
423.64	6891.4	
423.84	6620.4	
424.04	5271.5	
424.25	4885.1	
424.45	7842.4	
424.65	7764.5	
424.85	4665.3	
425.06	5325.4	
425.26	7707.9	
425.46	6275.7	
425.66	5913.9	
425.87	5496.7	
426.07	7552.9	
426.27	7402	
426.47	5650.3	
426.67	4975.2	
426.88	7869	
427.08	7280.5	
427.28	5878.4	
427.48	4896.7	
427.69	6096.1	
427.89	6807.4	
428.09	5827.8	
428.29	4933.6	
428.5	7502.4	
428.7	7013.6	
428.9	4797	
429.1	5358.2	
429.3	6858	
429.51	7388.4	
429.71	5117.9	
429.91	5982.8	
430.11	7161.1	
430.31	7437.5	
430.52	5427.1	
430.72	5778	
430.92	7919.5	
431.12	7275.8	
431.32	5145.9	
431.53	5550.7	
431.73	6107	
431.93	7939.3	
432.13	5003.9	
432.33	4928.1	
432.54	6595.8	
432.74	7006.1	
432.94	4784.7	
433.14	5926.1	
433.34	7227.3	
433.55	6565.8	
433.75	5840.1	
433.95	7738.6	
434.15	6858.6	
434.35	6589	
434.56	5025.7	
434.76	4461.8	
434.96	6922.8	
435.16	7134.4	
435.36	4803.2	
435.56	6042.9	
435.77	6522.1	
435.97	6721.4	
436.17	6791.7	
436.37	5963.7	
436.57	6583.5	
436.78	6402.6	
436.98	5954.8	
437.18	6584.2	
437.38	7114	
437.58	6734.4	
437.78	6769.2	
437.99	5367	
438.19	7251.9	
438.39	8123.6	
438.59	5223	
438.79	4741	
438.99	8002.1	
439.2	6670.9	
439.4	4930.8	
439.6	4742.4	
439.8	7058.7	
440	8133.8	
440.2	5739.1	
440.4	6032.6	
440.61	7412.3	
440.81	7988.4	
441.01	4988.2	
441.21	5920	
441.41	7700.4	
441.61	7435.5	
441.81	6236.7	
442.02	7515.4	
442.22	8372.8	
442.42	7531.7	
442.62	5109.7	
442.82	5150.6	
443.02	7826.7	
443.22	6899.6	
443.43	5537.7	
443.63	5001.8	
443.83	6648.4	
444.03	6666.8	
444.23	6252.4	
444.43	5923.4	
444.63	6997.9	
444.83	8286.8	
445.04	5095.3	
445.24	6459.3	
445.44	7423.9	
445.64	7595.9	
445.84	6092.7	
446.04	6021	
446.24	6759	
446.44	7828.7	
446.65	5268.7	
446.85	5591.6	
447.05	6848.4	
447.25	7752.9	
447.45	5705.6	
447.65	4990.9	
447.85	7094.8	
448.05	6724.2	
448.25	6150.7	
448.46	5872.2	
448.66	7038.9	
448.86	6703.7	
449.06	4831.8	
449.26	6105.7	
449.46	7432.1	
449.66	6375.3	
449.86	5567.1	
450.06	5583.4	
450.26	6582.9	
450.47	7202.7	
450.67	5831.2	
450.87	6219	
451.07	7259.4	
451.27	7101	
451.47	5087.2	
451.67	5741.8	
451.87	6737.8	
452.07	7952.9	
452.27	5342.5	
452.47	5309	
452.67	7004.1	
452.88	7587	
453.08	4622.3	
453.28	6748.1	
453.48	8269	
453.68	6943.3	
453.88	5186.1	
454.08	5538.4	
454.28	7393.8	
454.48	6981.5	
454.68	6016.2	
454.88	6567.8	
455.08	7430.7	
455.28	7138.5	
455.48	5004.6	
455.68	5684.5	
455.89	7942.7	
456.09	7516.7	
456.29	5394.3	
456.49	5411.4	
456.69	7813	
456.89	7063.4	
457.09	5897.5	
457.29	6359.6	
457.49	7294.9	
457.69	7432.1	
457.89	5731.6	
458.09	5157.5	
458.29	6999.3	
458.49	7807.5	
458.69	6211.5	
458.89	5545.2	
459.09	8091.5	
459.29	8237.6	
459.49	5713.8	
459.69	6488.6	
459.9	7641.7	
460.1	7052.5	
460.3	5659.2	
460.5	5356.8	
460.7	7509.9	
460.9	7286.7	
461.1	4922	
461.3	6302.3	
461.5	8153	
461.7	7759.8	
461.9	5319.3	
462.1	5814.9	
462.3	7218.4	
462.5	7890.8	
462.7	5392.3	
462.9	5472.2	
463.1	8943.5	
463.3	8548.9	
463.5	5671.5	
463.7	6728.3	
463.9	7344.7	
464.1	7775.5	
464.3	5754.8	
464.5	6014.9	
464.7	8023.3	
464.9	7622.5	
465.1	7443.7	
465.3	6405.4	
465.5	8432.2	
465.7	8320.9	
465.9	6593.1	
466.1	6578.8	
466.3	8137.9	
466.5	7962.5	
466.7	7369.3	
466.9	6222.4	
467.1	7861.5	
467.3	8916.9	
467.5	7326.9	
467.7	6102.3	
467.9	9026.8	
468.1	10026	
468.3	6972	
468.5	7363.8	
468.7	7824.6	
468.9	7823.9	
469.1	6393.8	
469.3	7095.5	
469.5	9919.7	
469.7	7334.5	
469.9	6980.2	
470.1	6125.5	
470.3	7838.9	
470.5	7858.1	
470.7	7167.9	
470.9	6211.5	
471.1	7561.1	
471.3	8124.3	
471.5	6025.8	
471.69	8157.1	
471.89	7466.2	
472.09	7017	
472.29	6950.1	
472.49	7356.3	
472.69	7185.6	
472.89	8127.7	
473.09	5917.9	
473.29	6156.9	
473.49	7421.8	
473.69	7569.3	
473.89	7067.5	
474.09	6248.4	
474.29	8932.6	
474.49	8609	
474.69	7066.9	
474.89	6366.5	
475.09	7617.8	
475.29	7526.3	
475.49	5732.3	
475.69	6022.4	
475.88	9324.4	
476.08	7865.6	
476.28	5681.1	
476.48	6220.4	
476.68	8353	
476.88	8216.5	
477.08	6124.1	
477.28	6419	
477.48	7707.2	
477.68	8371.4	
477.88	5836.7	
478.08	6232	
478.28	8673.1	
478.48	7803.4	
478.67	6219.7	
478.87	5627.8	
479.07	8511.4	
479.27	7896.3	
479.47	6479.8	
479.67	6470.2	
479.87	8300.4	
480.07	8841.8	
480.27	5683.1	
480.47	7425.9	
480.67	7955	
480.87	8531.8	
481.06	5981.4	
481.26	6823.1	
481.46	7751.6	
481.66	7751.6	
481.86	6414.9	
482.06	7604.8	
482.26	7492.2	
482.46	8541.4	
482.66	6351.4	
482.86	5957.5	
483.05	7896.3	
483.25	7281.9	
483.45	9011.7	
483.65	6346	
483.85	7425.3	
484.05	7783	
484.25	6832.7	
484.45	7286	
484.65	8716.2	
484.84	8602.8	
485.04	6275.7	
485.24	6251.8	
485.44	8954.4	
485.64	7139.2	
485.84	5440.1	
486.04	6985.6	
486.24	7455.3	
486.44	8005.5	
486.63	5433.9	
486.83	6266.1	
487.03	7350.8	
487.23	7580.2	
487.43	5612.1	
487.63	8147.5	
487.83	7604.8	
488.02	8748.9	
488.22	6528.2	
488.42	7241.6	
488.62	8527.7	
488.82	7477.1	
489.02	6173.9	
489.22	6229.9	
489.41	8563.9	
489.61	8013	
489.81	5907.7	
490.01	5930.2	
490.21	8357.1	
490.41	9086.2	
490.61	5834	
490.8	6088.6	
491	7813	
491.2	7214.3	
491.4	6684.6	
491.6	5776.6	
491.8	7802.1	
491.99	8022.6	
492.19	5565.7	
492.39	5920.7	
492.59	8343.4	
492.79	8365.3	
492.99	6798.6	
493.18	5800.5	
493.38	8425.3	
493.58	9220.6	
493.78	6633.4	
493.98	6135.7	
494.18	8117.5	
494.37	7542	
494.57	6726.9	
494.77	6750.8	
494.97	8283.4	
495.17	8593.3	
495.37	6193.1	
495.56	6497.5	
495.76	8666.3	
495.96	8359.1	
496.16	7388.4	
496.36	6291.4	
496.55	8533.2	
496.75	8126.3	
496.95	6744.6	
497.15	6570.6	
497.35	8492.9	
497.54	8449.9	
497.74	6482.5	
497.94	8311.3	
498.14	9221.3	
498.34	9018.6	
498.53	5904.3	
498.73	6890.7	
498.93	7801.4	
499.13	8370.7	
499.33	6642.9	
499.52	7173.4	
499.72	8336.6	
499.92	8693.6	
500.12	6350.1	
500.32	6646.3	
500.51	8632.9	
500.71	8458.1	
500.91	7414.3	
501.11	7002	
501.31	8678.6	
501.5	9073.9	
501.7	7718.8	
501.9	6561	
502.1	8348.9	
502.29	8772.1	
502.49	7089.4	
502.69	7635.5	
502.89	8549.6	
503.09	8634.9	
503.28	6111.8	
503.48	6215.6	
503.68	7758.4	
503.88	7785	
504.07	7419.8	
504.27	6778.1	
504.47	8206.9	
504.67	8357.1	
504.86	7235.5	
505.06	6851.1	
505.26	7846.5	
505.46	9764.7	
505.65	6754.9	
505.85	7008.1	
506.05	7736.5	
506.25	8314.8	
506.44	6065.4	
506.64	7120.8	
506.84	7761.8	
507.04	8778.3	
507.23	6270.2	
507.43	6890	
507.63	9916.3	
507.83	7871	
508.02	6906.4	
508.22	6589.7	
508.42	10077	
508.62	7836.9	
508.81	6761	
509.01	7402.7	
509.21	7582.9	
509.4	7902.4	
509.6	6909.2	
509.8	6300.2	
510	7844.4	
510.19	9430.9	
510.39	6294.1	
510.59	6292.7	
510.79	7578.2	
510.98	9185.1	
511.18	6401.3	
511.38	6536.4	
511.57	8519.6	
511.77	8462.2	
511.97	7202.7	
512.17	6081.8	
512.36	8532.5	
512.56	8498.4	
512.76	6244.3	
512.95	5999.9	
513.15	8688.8	
513.35	7233.4	
513.55	7085.3	
513.74	6226.5	
513.94	8557.1	
514.14	7922.9	
514.33	7215	
514.53	7000.6	
514.73	7905.8	
514.92	8056.7	
515.12	6320	
515.32	6178	
515.51	8094.3	
515.71	8796	
515.91	8060.1	
516.11	6195.8	
516.3	9899.9	
516.5	7684.7	
516.7	6898.2	
516.89	7470.3	
517.09	7822.6	
517.29	7730.4	
517.48	7245.7	
517.68	6518.7	
517.88	7550.2	
518.07	8272.4	
518.27	7070.3	
518.47	6085.2	
518.66	8830.8	
518.86	7307.8	
519.06	5788.9	
519.25	6276.3	
519.45	7737.9	
519.65	9355.1	
519.84	7107.1	
520.04	7758.4	
520.24	9658.9	
520.43	8458.8	
520.63	6689.3	
520.83	6393.1	
521.02	7650.5	
521.22	8236.9	
521.42	7092.8	
521.61	7599.3	
521.81	7828.7	
522.01	8067.6	
522.2	6805.4	
522.4	6599.2	
522.6	8404.9	
522.79	7161.1	
522.99	6700.3	
523.18	5878.4	
523.38	8138.6	
523.58	8207.6	
523.77	7935.9	
523.97	5798.5	
524.17	10139	
524.36	9015.2	
524.56	7211.6	
524.76	6907.1	
524.95	8071.7	
525.15	7803.4	
525.34	6689.3	
525.54	6601.3	
525.74	8460.2	
525.93	7339.2	
526.13	7914	
526.33	6618.4	
526.52	8787.8	
526.72	8228.1	
526.91	7862.8	
527.11	7111.2	
527.31	8830.2	
527.5	9334	
527.7	6911.2	
527.89	5891.3	
528.09	7587.7	
528.29	8207.6	
528.48	7438.9	
528.68	7067.5	
528.87	8596.7	
529.07	8718.9	
529.27	6881.9	
529.46	6370.5	
529.66	8247.9	
529.85	8751.7	
530.05	6191.7	
530.25	7101	
530.44	9710.8	
530.64	8071.7	
530.83	6707.8	
531.03	6878.4	
531.23	8613.1	
531.42	8496.3	
531.62	7630.7	
531.81	6832	
532.01	8692.3	
532.21	9346.9	
532.4	6455.9	
532.6	6880.5	
532.79	9733.3	
532.99	8661.5	
533.18	6827.9	
533.38	7955.7	
533.58	8168	
533.77	9071.8	
533.97	6810.9	
534.16	7722.9	
534.36	9308	
534.55	8218.5	
534.75	8111.3	
534.95	6856.6	
535.14	9041.1	
535.34	8202.1	
535.53	6514.6	
535.73	8641.7	
535.92	9749.7	
536.12	8474.5	
536.31	6675.7	
536.51	7937.2	
536.71	8791.9	
536.9	8391.9	
537.1	6737.1	
537.29	6974.7	
537.49	9293	
537.68	8111.3	
537.88	7304.4	
538.07	6513.2	
538.27	8335.2	
538.46	9517.6	
538.66	6310.5	
538.86	6847	
539.05	8430.1	
539.25	8895	
539.44	7107.1	
539.64	6739.9	
539.83	8248.5	
540.03	9390.6	
540.22	6643.6	
540.42	6735.1	
540.61	8518.2	
540.81	8664.3	
541	7248.4	
541.2	7871	
541.39	8121.6	
541.59	8498.4	
541.78	7517.4	
541.98	6690	
542.18	7755.7	
542.37	7777.5	
542.57	6967.9	
542.76	7618.4	
542.96	7819.1	
543.15	8684.8	
543.35	7067.5	
543.54	6382.8	
543.74	9011.1	
543.93	8428.8	
544.13	7091.4	
544.32	8246.5	
544.52	8936.7	
544.71	7943.4	
544.91	6141.9	
545.1	7475.1	
545.3	8000	
545.49	8723.7	
545.69	6019	
545.88	6638.1	
546.08	9671.2	
546.27	9387.9	
546.47	7363.8	
546.66	6536.4	
546.86	8955.8	
547.05	9680.7	
547.24	6821.8	
547.44	6513.2	
547.63	7827.3	
547.83	9048.6	
548.02	7010.2	
548.22	7266.2	
548.41	7657.4	
548.61	9099.8	
548.8	6492.1	
549	6507.1	
549.19	8370.7	
549.39	8641.7	
549.58	6180.8	
549.78	6815	
549.97	8800.1	
550.17	8282	
550.36	7795.3	
550.55	8819.2	
550.75	8202.1	
550.94	9209	
551.14	6492.7	
551.33	6888.7	
551.53	7606.2	
551.72	8600.8	
551.92	6924.2	
552.11	6662.7	
552.31	8613.8	
552.5	8702.5	
552.69	8448.6	
552.89	6283.2	
553.08	8637	
553.28	8290.9	
553.47	6612.9	
553.67	7932.5	
553.86	9314.8	
554.06	7562.5	
554.25	5851	
554.44	6455.2	
554.64	10193	
554.83	9563.3	
555.03	6434	
555.22	6822.5	
555.42	8794.7	
555.61	8570.1	
555.8	6574	
556	6952.2	
556.19	7549.5	
556.39	9065.7	
556.58	6657.3	
556.78	6621.1	
556.97	8432.2	
557.16	8125.7	
557.36	7979.6	
557.55	6305	
557.75	7410.9	
557.94	9192	
558.13	6410.1	
558.33	6223.8	
558.52	8996	
558.72	7836.2	
558.91	6324.8	
559.1	6543.3	
559.3	7411.6	
559.49	7219.8	
559.69	5848.3	
559.88	6939.9	
560.07	8384.4	
560.27	8852	
560.46	7127.6	
560.66	7262.8	
560.85	8154.3	
561.04	7365.9	
561.24	6221.7	
561.43	6472.9	
561.63	7605.5	
561.82	7925.6	
562.01	7705.1	
562.21	6800.6	
562.4	8320.2	
562.59	9368.1	
562.79	6642.2	
562.98	6231.3	
563.18	8183	
563.37	9718.3	
563.56	7159	
563.76	6152.8	
563.95	7543.4	
564.14	7520.1	
564.34	6528.9	
564.53	6389.7	
564.73	8172.8	
564.92	8512	
565.11	6709.1	
565.31	6055.2	
565.5	8777.6	
565.69	7684	
565.89	6295.5	
566.08	6592.4	
566.27	8681.3	
566.47	9073.9	
566.66	7188.4	
566.85	5796.4	
567.05	8198	
567.24	7559.1	
567.44	6205.3	
567.63	7684.7	
567.82	8499.1	
568.02	8232.2	
568.21	6195.1	
568.4	6569.2	
568.6	8046.5	
568.79	8028.7	
568.98	6029.9	
569.18	6168.5	
569.37	7985	
569.56	10075	
569.76	6590.4	
569.95	7524.9	
570.14	8393.3	
570.34	8326.4	
570.53	5948.7	
570.72	6002.6	
570.91	8792.6	
571.11	7916.8	
571.3	6595.1	
571.49	7522.9	
571.69	8043.7	
571.88	7494.9	
572.07	7172	
572.27	7058	
572.46	7593.2	
572.65	8679.3	
572.85	6180.1	
573.04	6586.3	
573.23	8826.7	
573.43	8080.6	
573.62	5965.7	
573.81	6684.6	
574	8050.6	
574.2	7941.3	
574.39	6360.3	
574.58	6565.1	
574.78	8943.5	
574.97	8109.3	
575.16	6892.1	
575.36	7099.6	
575.55	8518.9	
575.74	8706.6	
575.93	5926.8	
576.13	6950.8	
576.32	7911.3	
576.51	8447.9	
576.71	6433.4	
576.9	7869	
577.09	8849.3	
577.28	8256	
577.48	6865.5	
577.67	5856.5	
577.86	7894.2	
578.05	8279.9	
578.25	6527.6	
578.44	6647.7	
578.63	8026.7	
578.83	9278.7	
579.02	5877	
579.21	7526.3	
579.4	8357.1	
579.6	7912.7	
579.79	6735.8	
579.98	9058.2	
580.17	8676.6	
580.37	8638.3	
580.56	6133	
580.75	6944.7	
580.94	9222	
581.14	9016.5	
581.33	7424.6	
581.52	6279.8	
581.71	8494.3	
581.91	9234.3	
582.1	5835.3	
582.29	6587.6	
582.48	8150.2	
582.68	8014.4	
582.87	7154.9	
583.06	6716	
583.25	8344.8	
583.45	7733.8	
583.64	7318.1	
583.83	8260.8	
584.02	7879.2	
584.21	8337.3	
584.41	7394.5	
584.6	6597.9	
584.79	8018.5	
584.98	8902.5	
585.18	5957.5	
585.37	6105	
585.56	7508.5	
585.75	8439	
585.94	6350.1	
586.14	6984.3	
586.33	9055.4	
586.52	8051.9	
586.71	6749.4	
586.91	6635.4	
587.1	7415	
587.29	8555.7	
587.48	6544.6	
587.67	6352.1	
587.87	8411.7	
588.06	8498.4	
588.25	7851.2	
588.44	7010.2	
588.63	8105.2	
588.83	8641.1	
589.02	6488.6	
589.21	6352.1	
589.4	7856.7	
589.59	7661.5	
589.78	5616.2	
589.98	5944.6	
590.17	7315.3	
590.36	8014.4	
590.55	5315.8	
590.74	6212.9	
590.94	9400.2	
591.13	7950.2	
591.32	5958.9	
591.51	5598.5	
591.7	8398.7	
591.89	7844.4	
592.09	5718.6	
592.28	6166.4	
592.47	7142.6	
592.66	9071.1	
592.85	5642.8	
593.05	5883.1	
593.24	7646.4	
593.43	8458.1	
593.62	5876.3	
593.81	6476.4	
594	7675.1	
594.19	7941.3	
594.39	5859.9	
594.58	5804.6	
594.77	8048.5	
594.96	8729.1	
595.15	5683.1	
595.34	6386.9	
595.54	8127	
595.73	7156.3	
595.92	5127.4	
596.11	6297.5	
596.3	8688.2	
596.49	7207.5	
596.68	6138.4	
596.88	6641.6	
597.07	8328.4	
597.26	7027.3	
597.45	5614.8	
597.64	6925.5	
597.83	7390.4	
598.02	7966.6	
598.22	5715.2	
598.41	6444.3	
598.6	7699	
598.79	7136.5	
598.98	5763.7	
599.17	6694.8	
599.36	7731.1	
599.55	9136	
599.74	7957.7	
599.94	7653.9	
600.13	8380.3	
600.32	7187.7	
600.51	5565.7	
600.7	5653.8	
600.89	9101.9	
601.08	9085.5	
601.27	5416.2	
601.47	6436.1	
601.66	8331.1	
601.85	9116.9	
602.04	6085.9	
602.23	6436.1	
602.42	7277.8	
602.61	7895.6	
602.8	6071.5	
602.99	5849	
603.18	7624.6	
603.37	7921.5	
603.57	6408.8	
603.76	7002	
603.95	8725	
604.14	8258.8	
604.33	5884.5	
604.52	6219	
604.71	7831.4	
604.9	7500.3	
605.09	6831.3	
605.28	6739.2	
605.47	8459.5	
605.66	8170	
605.86	6476.4	
606.05	5858.6	
606.24	8507.3	
606.43	6925.5	
606.62	6190.3	
606.81	7114	
607	8310	
607.19	7615	
607.38	5611.4	
607.57	5909.8	
607.76	7393.8	
607.95	6848.4	
608.14	6279.1	
608.33	6918	
608.52	7410.2	
608.72	8377.6	
608.91	5470.1	
609.1	5421.7	
609.29	7522.9	
609.48	6993.8	
609.67	6546.7	
609.86	5474.2	
610.05	7120.8	
610.24	7428	
610.43	5326.1	
610.62	4966.3	
610.81	8655.4	
611	8474.5	
611.19	5509	
611.38	6302.3	
611.57	7760.4	
611.76	9157.8	
611.95	5213.4	
612.14	5130.2	
612.33	7621.9	
612.52	7059.3	
612.71	5780.1	
612.9	5016.2	
613.09	6685.9	
613.28	9163.3	
613.47	5554.1	
613.66	6567.8	
613.85	7585	
614.04	7178.1	
614.24	5696.8	
614.43	4846.9	
614.62	7793.9	
614.81	7737.2	
615	6214.2	
615.19	6250.4	
615.38	6987	
615.57	7354.3	
615.76	6077.7	
615.95	7154.2	
616.14	7868.3	
616.33	7435.5	
616.52	6380.8	
616.71	6680.5	
616.9	7783	
617.09	7644.4	
617.28	5764.3	
617.47	7239.6	
617.66	6813.6	
617.85	6825.2	
618.04	6694.1	
618.22	6161.7	
618.41	7140.6	
618.6	8111.3	
618.79	5961.6	
618.98	5631.9	
619.17	8408.3	
619.36	6683.2	
619.55	5804.6	
619.74	5844.9	
619.93	7699.7	
620.12	7093.5	
620.31	6432.7	
620.5	6594.5	
620.69	8200.7	
620.88	8613.1	
621.07	7292.1	
621.26	6218.3	
621.45	7766.6	
621.64	7774.1	
621.83	6391.7	
622.02	5476.3	
622.21	7803.4	
622.4	7587	
622.59	6940.6	
622.78	6657.3	
622.97	7157	
623.16	8198.7	
623.35	6338.5	
623.54	5456.5	
623.72	7288.7	
623.91	7583.6	
624.1	6582.9	
624.29	5173.2	
624.48	8705.9	
624.67	7805.5	
624.86	6441.5	
625.05	5389.6	
625.24	8721.6	
625.43	7073.7	
625.62	8297.7	
625.81	5642.8	
626	8162.5	
626.19	7462.1	
626.38	6472.9	
626.56	5895.4	
626.75	7232.1	
626.94	7959.1	
627.13	6509.1	
627.32	5171.8	
627.51	7838.9	
627.7	9316.9	
627.89	5330.9	
628.08	6492.7	
628.27	7010.9	
628.46	7278.5	
628.65	5608	
628.83	5242.1	
629.02	7916.1	
629.21	7142.6	
629.4	6143.9	
629.59	6269.5	
629.78	7049.8	
629.97	8083.3	
630.16	6405.4	
630.35	5766.4	
630.54	8533.9	
630.72	8203.5	
630.91	5740.5	
631.1	6427.9	
631.29	7613.7	
631.48	7845.8	
631.67	6511.2	
631.86	5867.4	
632.05	7190.4	
632.24	7307.8	
632.42	5507.7	
632.61	6223.8	
632.8	7486	
632.99	7007.5	
633.18	6140.5	
633.37	6597.9	
633.56	7665.5	
633.75	7483.3	
633.93	6079.7	
634.12	5733.6	
634.31	8519.6	
634.5	8134.5	
634.69	5797.8	
634.88	6451.8	
635.07	7431.4	
635.25	8032.1	
635.44	6812.2	
635.63	7090.1	
635.82	7204.1	
636.01	6675	
636.2	6720.1	
636.39	6229.2	
636.57	8443.1	
636.76	8137.3	
636.95	5640.1	
637.14	7221.8	
637.33	7763.8	
637.52	8701.1	
637.7	5485.1	
637.89	6503.7	
638.08	7228	
638.27	8862.2	
638.46	6504.3	
638.65	7107.1	
638.83	8961.2	
639.02	7101	
639.21	6470.9	
639.4	6916	
639.59	7701.7	
639.78	7236.2	
639.96	5692	
640.15	5767.1	
640.34	7464.2	
640.53	7660.8	
640.72	5409.4	
640.91	5788.2	
641.09	6980.8	
641.28	8373.5	
641.47	5776.6	
641.66	6687.3	
641.85	7674.4	
642.03	7985.7	
642.22	6440.2	
642.41	5881.8	
642.6	7086	
642.79	6449.7	
642.97	5707.7	
643.16	6489.3	
643.35	6997.9	
643.54	6865.5	
643.73	5575.3	
643.91	6394.4	
644.1	6681.2	
644.29	7284.6	
644.48	5719.3	
644.67	5713.8	
644.85	6906.4	
645.04	7292.8	
645.23	5279	
645.42	5626.5	
645.6	6831.3	
645.79	8100.4	
645.98	5600.5	
646.17	4694.6	
646.36	6634.1	
646.54	7298.3	
646.73	6541.9	
646.92	5244.8	
647.11	6847	
647.29	8008.9	
647.48	5362.9	
647.67	5086.5	
647.86	8225.3	
648.05	8233.5	
648.23	5746.6	
648.42	7066.2	
648.61	7613.7	
648.8	7236.8	
648.98	5365	
649.17	5665.4	
649.36	6858.6	
649.55	6346.7	
649.73	5386.8	
649.92	6241.5	
650.11	6701.6	
650.3	7122.2	
650.48	5517.9	
650.67	5231.2	
650.86	7423.9	
651.05	6275	
651.23	5449	
651.42	5446.9	
651.61	6816.3	
651.79	6926.9	
651.98	5647.6	
652.17	5308.3	
652.36	7354.9	
652.54	6371.9	
652.73	5361.6	
652.92	5150.6	
653.11	7331.7	
653.29	7402.7	
653.48	4585.4	
653.67	5630.5	
653.85	7093.5	
654.04	8224.6	
654.23	5914.5	
654.42	5360.2	
654.6	6647.7	
654.79	7378.8	
654.98	4820.9	
655.16	5500.2	
655.35	6328.2	
655.54	6293.4	
655.73	5008	
655.91	4953.4	
656.1	7530.4	
656.29	6156.2	
656.47	4505.5	
656.66	6255.2	
656.85	6505	
657.03	6514.6	
657.22	5031.9	
657.41	5130.2	
657.59	6520.7	
657.78	6332.3	
657.97	4626.4	
658.16	5516.5	
658.34	7238.9	
658.53	7618.4	
658.72	6435.4	
658.9	7000.6	
659.09	6563.1	
659.28	6714.6	
659.46	5165.7	
659.65	5084.4	
659.84	6438.8	
660.02	6966.5	
660.21	5005.9	
660.4	4964.3	
660.58	7491.5	
660.77	6818.4	
660.96	5616.9	
661.14	4595.6	
661.33	7997.3	
661.52	7763.8	
661.7	4530.8	
661.89	8478.6	
662.08	6361	
662.26	5965.1	
662.45	4830.5	
662.64	5008	
662.82	7067.5	
663.01	6314.6	
663.2	5033.9	
663.38	5812.8	
663.57	7005.4	
663.75	6942.6	
663.94	5337.7	
664.13	6700.3	
664.31	6281.1	
664.5	7039.6	
664.69	5550	
664.87	6206.7	
665.06	6178.7	
665.25	6955.6	
665.43	6501.6	
665.62	6470.2	
665.8	7286	
665.99	6524.8	
666.18	5339.7	
666.36	5477.6	
666.55	7174	
666.74	7090.1	
666.92	4956.1	
667.11	6771.9	
667.29	6479.8	
667.48	7191.8	
667.67	6154.8	
667.85	5282.4	
668.04	6483.9	
668.22	6485.9	
668.41	5436.7	
668.6	5622.4	
668.78	6303.6	
668.97	6584.2	
669.15	5814.9	
669.34	4695.3	
669.53	6303	
669.71	6746	
669.9	4924	
670.08	5603.9	
670.27	6324.1	
670.46	6924.9	
670.64	5798.5	
670.83	6050.4	
671.01	6265.4	
671.2	6908.5	
671.38	4914.4	
671.57	4925.4	
671.76	7585.7	
671.94	8196.7	
672.13	4815.5	
672.31	6021.7	
672.5	7071	
672.69	6365.1	
672.87	4969.1	
673.06	5304.2	
673.24	6881.9	
673.43	6333.7	
673.61	5830.6	
673.8	5321.3	
673.98	7098.9	
674.17	7257.3	
674.36	5909.1	
674.54	5692	
674.73	6773.3	
674.91	7118.7	
675.1	5489.2	
675.28	5065.3	
675.47	6621.1	
675.65	7217.7	
675.84	5214.1	
676.03	5621	
676.21	6350.1	
676.4	5892	
676.58	6139.1	
676.77	5808.7	
676.95	7857.4	
677.14	6276.3	
677.32	4960.2	
677.51	4709.6	
677.69	7145.4	
677.88	5894.1	
678.06	4829.1	
678.25	4936.3	
678.44	6650.4	
678.62	6337.1	
678.81	4630.5	
678.99	5625.1	
679.18	7429.3	
679.36	6964.5	
679.55	5261.2	
679.73	5982.8	
679.92	6965.8	
680.1	6340.5	
680.29	6547.4	
680.47	5296.7	
680.66	6374.6	
680.84	7204.8	
681.03	4507.6	
681.21	5703.6	
681.4	6391	
681.58	6289.3	
681.77	4951.3	
681.95	4863.9	
682.14	7303.1	
682.32	7631.4	
682.51	5926.8	
682.69	4682.3	
682.88	6231.3	
683.06	6956.9	
683.25	5669.5	
683.43	6109.8	
683.62	6567.8	
683.8	6963.1	
683.99	6244.3	
684.17	5481	
684.36	7898.3	
684.54	6498.2	
684.73	4672.8	
684.91	4868.7	
685.1	6850.5	
685.28	6309.8	
685.46	5461.9	
685.65	5627.8	
685.83	7215	
686.02	6572.6	
686.2	5000.5	
686.39	5165	
686.57	6412.9	
686.76	7877.2	
686.94	4977.9	
687.13	5212.8	
687.31	7053.9	
687.5	6468.9	
687.68	4559.5	
687.86	5917.3	
688.05	8262.9	
688.23	5943.9	
688.42	5936.4	
688.6	5043.5	
688.79	6425.2	
688.97	6388.3	
689.16	5459.9	
689.34	4348.5	
689.52	7174	
689.71	7421.8	
689.89	5700.9	
690.08	4995.7	
690.26	6552.8	
690.45	6498.9	
690.63	6005.3	
690.81	5094	
691	6296.1	
691.18	6279.1	
691.37	5285.8	
691.55	7666.2	
691.74	6235.4	
691.92	8390.5	
692.1	5374.6	
692.29	4706.9	
692.47	6459.3	
692.66	5724.8	
692.84	4933.6	
693.02	5635.3	
693.21	5869.5	
693.39	6390.3	
693.58	5591	
693.76	5078.3	
693.94	7653.9	
694.13	7514.7	
694.31	4960.9	
694.5	6114.6	
694.68	6242.2	
694.86	6546.7	
695.05	5397.8	
695.23	5484.5	
695.42	6936.5	
695.6	9356.5	
695.78	6025.8	
695.97	5020.9	
696.15	6951.5	
696.34	6310.5	
696.52	4768.4	
696.7	5679.7	
696.89	6696.2	
697.07	6084.5	
697.25	5597.8	
697.44	7144.7	
697.62	6685.9	
697.81	7080.5	
697.99	5228.5	
698.17	5885.2	
698.36	6001.9	
698.54	6708.5	
698.72	5748	
698.91	4598.4	
699.09	6268.1	
699.28	6163	
699.46	5221.6	
699.64	5119.9	
699.83	6080.4	
700.01	7505.1	
700.19	5950	
700.38	4295.3	
700.56	7447.8	
700.74	6199.9	
700.93	4709	
701.11	5617.6	
701.29	6774.7	
701.48	7866.9	
701.66	4945.2	
701.84	5017.5	
702.03	6275	
702.21	6984.9	
702.39	4531.5	
702.58	5111.7	
702.76	6604	
702.94	6725.5	
703.13	4515.1	
703.31	7109.9	
703.49	5978	
703.68	7572	
703.86	4760.2	
704.04	5812.1	
704.23	6487.3	
704.41	7011.6	
704.59	4830.5	
704.78	6278.4	
704.96	7632.1	
705.14	7000	
705.33	4640.7	
705.51	5547.3	
705.69	6291.4	
705.87	7206.1	
706.06	5901.6	
706.24	4630.5	
706.42	6660	
706.61	6888	
706.79	5752.1	
706.97	4654.4	
707.16	6077.7	
707.34	6739.2	
707.52	5831.9	
707.7	4926	
707.89	6363.7	
708.07	5932.3	
708.25	5907.7	
708.44	5862	
708.62	6144.6	
708.8	7403.4	
708.98	6014.9	
709.17	4947.9	
709.35	6640.2	
709.53	6630	
709.72	4642.1	
709.9	4809.3	
710.08	6892.1	
710.26	6900.3	
710.45	6408.1	
710.63	4948.6	
710.81	6569.9	
710.99	6536.4	
711.18	5707.7	
711.36	5165.7	
711.54	6310.5	
711.72	7165.8	
711.91	5286.5	
712.09	4648.9	
712.27	6606.1	
712.45	7256	
712.64	5635.3	
712.82	4517.8	
713	6036	
713.18	6169.8	
713.37	4626.4	
713.55	6036	
713.73	7187.7	
713.91	5690.6	
714.1	5149.3	
714.28	4506.9	
714.46	6908.5	
714.64	6027.9	
714.83	4087.7	
715.01	4991.6	
715.19	6269.5	
715.37	5619.6	
715.55	4702.8	
715.74	5015.5	
715.92	7235.5	
716.1	5163.6	
716.28	6262	
716.47	5217.5	
716.65	5842.9	
716.83	5915.2	
717.01	5075.5	
717.19	5124	
717.38	8205.5	
717.56	5621.7	
717.74	5333.6	
717.92	4454.3	
718.1	6944	
718.29	6054.5	
718.47	3972.4	
718.65	4675.5	
718.83	6734.4	
719.01	6645	
719.2	3781.9	
719.38	4933.6	
719.56	6327.5	
719.74	7906.5	
719.92	4458.4	
720.11	5577.3	
720.29	6302.3	
720.47	5401.9	
720.65	4008.6	
720.83	5061.9	
721.02	5868.8	
721.2	5686.5	
721.38	5060.5	
721.56	4326.7	
721.74	5170.4	
721.92	5397.8	
722.11	5752.7	
722.29	5315.2	
722.47	6716.7	
722.65	5831.9	
722.83	4378.6	
723.01	5378	
723.2	5854.5	
723.38	6133.7	
723.56	3732.1	
723.74	5026.4	
723.92	5417.6	
724.1	6623.1	
724.29	4327.4	
724.47	5559.6	
724.65	5477.6	
724.83	5339.1	
725.01	4164.9	
725.19	5154.1	
725.37	5489.9	
725.56	5530.2	
725.74	4022.9	
725.92	4240.7	
726.1	5272.8	
726.28	5730.2	
726.46	4772.4	
726.64	4473.4	
726.83	5659.9	
727.01	6019.7	
727.19	4032.5	
727.37	4913.1	
727.55	5778.7	
727.73	6362.4	
727.91	3975.8	
728.09	3796.3	
728.28	6369.9	
728.46	7017.7	
728.64	5038.7	
728.82	4944.5	
729	7513.3	
729.18	6739.2	
729.36	4048.8	
729.54	6611.5	
729.72	7759.8	
729.91	5970.5	
730.09	6141.2	
730.27	4733.5	
730.45	5791.7	
730.63	6483.9	
730.81	5407.3	
730.99	4330.8	
731.17	7014.3	
731.35	5517.2	
731.53	5015.5	
731.71	4555.4	
731.9	6734.4	
732.08	7053.9	
732.26	4833.2	
732.44	4519.9	
732.62	6995.9	
732.8	6424.5	
732.98	5274.9	
733.16	4242	
733.34	6421.1	
733.52	5188.9	
733.7	4932.9	
733.88	5155.4	
734.07	6266.8	
734.25	5980.1	
734.43	4266.6	
734.61	5963.7	
734.79	7645.1	
734.97	5933.6	
735.15	4433.2	
735.33	4829.1	
735.51	6354.2	
735.69	5921.4	
735.87	6110.5	
736.05	5021.6	
736.23	6105.7	
736.41	5857.2	
736.59	4913.8	
736.77	4880.3	
736.95	6606.7	
737.13	5961	
737.32	4470	
737.5	4644.1	
737.68	7134.4	
737.86	5857.2	
738.04	4229.7	
738.22	6301.6	
738.4	5655.8	
738.58	6006.7	
738.76	5003.2	
738.94	3853.6	
739.12	5857.2	
739.3	5703.6	
739.48	5634.6	
739.66	5261.2	
739.84	6105.7	
740.02	6092.7	
740.2	3956	
740.38	4366.3	
740.56	6550.1	
740.74	5307	
740.92	5036	
741.1	4993.6	
741.28	5917.3	
741.46	5748.6	
741.64	4577.2	
741.82	5173.9	
742	5913.2	
742.18	5963	
742.36	4795	
742.54	4323.9	
742.72	6604.7	
742.9	5288.5	
743.08	5246.2	
743.26	3997.6	
743.44	6858	
743.62	6611.5	
743.8	5467.4	
743.98	4379.2	
744.16	6337.1	
744.34	6022.4	
744.52	5301.5	
744.7	5254.4	
744.88	6463.4	
745.06	5988.9	
745.24	5387.5	
745.42	5475.6	
745.6	6605.4	
745.78	6350.1	
745.96	4155.3	
746.14	4491.9	
746.32	7447.1	
746.5	6688.7	
746.68	5113.1	
746.86	4517.8	
747.03	7100.3	
747.21	5287.9	
747.39	5128.8	
747.57	4606.6	
747.75	6260	
747.93	6679.1	
748.11	4567	
748.29	4453.6	
748.47	7858.7	
748.65	5949.3	
748.83	5315.2	
749.01	5022.3	
749.19	6423.1	
749.37	5554.1	
749.55	4867.3	
749.73	4996.4	
749.91	6035.4	
750.09	5817.6	
750.26	5010	
750.44	4329.4	
750.62	6122.1	
750.8	6113.9	
750.98	4183.3	
751.16	4626.4	
751.34	6187.6	
751.52	5513.1	
751.7	5463.3	
751.88	4209.3	
752.06	6686.6	
752.24	6527.6	
752.42	4130.8	
752.59	4563.6	
752.77	6081.1	
752.95	7388.4	
753.13	5385.5	
753.31	4707.6	
753.49	5740.5	
753.67	6277	
753.85	5030.5	
754.03	4564.2	
754.21	6591.7	
754.38	6953.5	
754.56	4852.3	
754.74	3777.8	
754.92	5859.9	
755.1	6638.1	
755.28	3880.9	
755.46	3919.8	
755.64	7448.5	
755.82	7614.3	
755.99	4289.8	
756.17	4475.5	
756.35	5018.2	
756.53	6679.8	
756.71	3265.1	
756.89	4253.6	
757.07	6234.7	
757.25	5244.8	
757.42	4816.1	
757.6	5808	
757.78	6253.1	
757.96	5180.7	
758.14	4460.5	
758.32	3975.1	
758.5	4713.7	
758.67	5628.5	
758.85	4384.7	
759.03	4405.9	
759.21	5801.9	
759.39	5237.3	
759.57	3835.2	
759.75	5085.1	
759.92	6255.2	
760.1	5705.6	
760.28	5494.7	
760.46	5797.8	
760.64	5421.7	
760.82	5178.6	
760.99	5269.4	
761.17	4374.5	
761.35	6225.8	
761.53	5156.8	
761.71	4506.9	
761.89	5249.6	
762.06	6172.6	
762.24	5584.1	
762.42	4512.4	
762.6	4327.4	
762.78	5586.2	
762.96	6348	
763.13	4954	
763.31	4646.2	
763.49	6534.4	
763.67	5534.3	
763.85	5530.2	
764.02	6162.3	
764.2	6768.5	
764.38	5893.4	
764.56	4467.3	
764.74	5435.3	
764.91	6876.4	
765.09	5709.1	
765.27	4162.2	
765.45	3952.6	
765.63	6967.9	
765.8	6813.6	
765.98	3625.6	
766.16	4042	
766.34	5254.4	
766.52	4997.7	
766.69	5037.3	
766.87	3872.7	
767.05	5765	
767.23	6595.8	
767.41	4242.7	
767.58	4528.7	
767.76	6371.2	
767.94	6460	
768.12	4382.7	
768.29	5175.2	
768.47	5827.8	
768.65	6589	
768.83	3951.2	
769	5182	
769.18	5317.9	
769.36	6098.9	
769.54	5225.7	
769.72	3990.8	
769.89	6365.8	
770.07	6577.4	
770.25	4248.2	
770.43	5750	
770.6	7279.8	
770.78	7670.3	
770.96	4483	
771.14	5288.5	
771.31	6359.6	
771.49	5662	
771.67	3647.4	
771.85	3951.9	
772.02	4874.2	
772.2	5654.4	
772.38	4575.8	
772.55	4175.8	
772.73	5934.3	
772.91	5760.9	
773.09	4592.2	
773.26	4734.2	
773.44	5898.2	
773.62	5638.7	
773.8	4042	
773.97	3824.9	
774.15	6016.9	
774.33	5553.4	
774.5	3979.2	
774.68	4367.6	
774.86	6214.9	
775.04	5634	
775.21	4083.6	
775.39	4081.6	
775.57	5926.1	
775.74	6359.6	
775.92	3927.3	
776.1	3822.2	
776.27	5944.6	
776.45	7263.5	
776.63	4088.4	
776.81	3608.5	
776.98	5480.4	
777.16	6745.3	
777.34	4250.9	
777.51	4592.9	
777.69	5578	
777.87	5259.9	
778.04	4291.9	
778.22	5029.8	
778.4	5324.7	
778.57	5987.6	
778.75	3543.7	
778.93	3811.3	
779.1	5061.9	
779.28	4955.4	
779.46	3526.6	
779.64	4105.5	
779.81	6201.2	
779.99	7186.3	
780.17	4922.6	
780.34	5076.2	
780.52	5653.1	
780.69	5849.7	
780.87	4327.4	
781.05	3989.4	
781.22	5677.7	
781.4	5778.7	
781.58	4123.9	
781.75	3252.9	
781.93	5684.5	
782.11	5107	
782.28	5142.4	
782.46	4098.7	
782.64	4947.2	
782.81	5890.6	
782.99	4209.3	
783.17	4190.1	
783.34	5803.9	
783.52	4967	
783.69	4426.3	
783.87	5276.3	
784.05	5104.2	
784.22	5106.3	
784.4	5333.6	
784.58	4518.5	
784.75	6133.7	
784.93	5117.2	
785.1	4186.7	
785.28	4864.6	
785.46	5877.7	
785.63	5091.3	
785.81	4117.8	
785.99	3990.1	
786.16	5270.8	
786.34	5728.2	
786.51	4024.9	
786.69	4444.8	
786.87	4814.1	
787.04	5424.4	
787.22	3844	
787.39	4899.4	
787.57	5061.9	
787.75	6320.7	
787.92	5124	
788.1	5027.1	
788.27	5144.5	
788.45	4870.8	
788.63	4750.6	
788.8	3380.5	
788.98	5599.1	
789.15	4808.6	
789.33	3500	
789.5	4169.7	
789.68	6101.6	
789.86	6182.1	
790.03	4646.2	
790.21	4006.5	
790.38	6134.3	
790.56	5297.4	
790.73	3880.2	
790.91	3945.1	
791.09	5175.9	
791.26	5990.3	
791.44	4187.4	
791.61	3589.4	
791.79	5159.5	
791.96	5259.9	
792.14	3672.7	
792.32	3241.3	
792.49	5143.8	
792.67	5245.5	
792.84	3797.6	
793.02	3588.7	
793.19	5766.4	
793.37	6405.4	
793.54	3307.5	
793.72	3663.1	
793.89	6604	
794.07	5154.1	
794.25	4160.1	
794.42	3387.3	
794.6	6271.6	
794.77	5910.4	
794.95	4640	
795.12	3981.3	
795.3	5105.6	
795.47	5810.1	
795.65	4425	
795.82	4222.2	
796	4986.8	
796.17	7070.3	
796.35	4083	
796.52	4807.3	
796.7	5718.6	
796.87	5853.1	
797.05	5104.9	
797.22	5023	
797.4	5815.5	
797.57	6877.1	
797.75	4261.1	
797.92	3970.3	
798.1	6124.1	
798.27	5102.2	
798.45	3377.1	
798.62	3646.1	
798.8	5527.5	
798.97	6029.2	
799.15	4481	
799.32	4285.7	
799.5	4724.7	
799.67	5593.7	
799.85	4611.3	
800.02	3317	
800.2	5100.8	
800.37	5481	
800.55	4802.5	
800.72	3983.3	
800.9	5962.3	
801.07	6427.9	
801.25	5403.9	
801.42	4364.9	
801.6	6016.2	
801.77	5771.2	
801.95	4085.7	
802.12	3839.9	
802.29	5708.4	
802.47	5681.7	
802.64	4330.8	
802.82	3250.8	
802.99	5086.5	
803.17	6227.9	
803.34	4264.6	
803.52	3781.9	
803.69	6881.9	
803.87	4944.5	
804.04	4220.9	
804.21	4376.5	
804.39	6303	
804.56	5381.4	
804.74	3573.7	
804.91	4422.2	
805.09	5211.4	
805.26	5276.3	
805.44	3633.8	
805.61	4066.6	
805.78	5856.5	
805.96	5899.5	
806.13	4473.4	
806.31	4816.8	
806.48	4673.5	
806.66	5314.5	
806.83	4332.8	
807	4230.4	
807.18	5148.6	
807.35	5623.7	
807.53	4302.1	
807.7	3349.8	
807.87	6419	
808.05	5145.2	
808.22	4730.8	
808.4	3353.9	
808.57	5205.9	
808.74	4786.8	
808.92	3861.1	
809.09	5008.6	
809.27	5053.7	
809.44	5775.3	
809.61	3426.3	
809.79	3803.8	
809.96	6421.1	
810.14	6027.9	
810.31	3274	
810.48	4162.8	
810.66	5313.1	
810.83	6158.2	
811.01	3932.1	
811.18	4342.4	
811.35	6024.4	
811.53	4592.2	
811.7	4816.8	
811.87	4398.4	
812.05	5210	
812.22	5136.3	
812.39	3761.4	
812.57	3692.5	
812.74	5205.9	
812.92	6998.6	
813.09	4136.9	
813.26	4513	
813.44	6769.2	
813.61	5099.4	
813.78	3396.9	
813.96	4621.6	
814.13	5187.5	
814.3	4872.1	
814.48	5040.7	
814.65	4074.1	
814.82	6507.1	
815	5008.6	
815.17	4231.8	
815.34	5139	
815.52	5102.2	
815.69	5120.6	
815.87	4241.3	
816.04	4201.1	
816.21	5244.2	
816.38	4553.3	
816.56	4047.5	
816.73	3749.8	
816.9	6660	
817.08	6032	
817.25	3801.7	
817.42	4851	
817.6	4724	
817.77	5245.5	
817.94	4315.1	
818.12	3741.6	
818.29	4923.3	
818.46	7990.5	
818.64	3984	
818.81	3639.9	
818.98	4833.2	
819.16	7176.8	
819.33	4661.9	
819.5	4193.6	
819.67	5602.6	
819.85	6348.7	
820.02	4113	
820.19	4450.9	
820.37	5445.5	
820.54	4976.6	
820.71	4293.9	
820.88	5329.5	
821.06	5453.7	
821.23	4941.7	
821.4	4332.1	
821.58	4261.1	
821.75	6019	
821.92	5354.1	
822.09	3422.2	
822.27	3552.5	
822.44	5267.4	
822.61	5110.4	
822.79	3465.2	
822.96	6795.2	
823.13	5754.1	
823.3	4960.9	
823.48	4041.3	
823.65	3617.4	
823.82	5990.3	
823.99	4748.6	
824.17	5130.2	
824.34	3725.3	
824.51	6979.5	
824.68	5270.1	
824.86	3831.1	
825.03	4397.7	
825.2	5201.8	
825.37	6422.4	
825.55	3805.1	
825.72	4283	
825.89	7075.7	
826.06	6445	
826.24	4147.1	
826.41	4161.5	
826.58	6443.6	
826.75	5517.9	
826.92	3239.9	
827.1	3658.4	
827.27	8848.6	
827.44	7030.7	
827.61	3904.1	
827.79	4779.3	
827.96	4947.2	
828.13	5382.7	
828.3	4071.4	
828.47	3459	
828.65	5487.9	
828.82	5375.2	
828.99	5367	
829.16	4673.5	
829.34	5866.1	
829.51	5606	
829.68	4309.6	
829.85	4399.7	
830.02	6165.1	
830.2	5908.4	
830.37	3273.3	
830.54	5189.6	
830.71	6764.4	
830.88	5190.9	
831.05	3323.2	
831.23	3841.3	
831.4	6398.5	
831.57	7226.6	
831.74	3963.5	
831.91	3495.9	
832.09	5470.1	
832.26	5814.2	
832.43	4094.6	
832.6	4617.5	
832.77	5403.2	
832.94	6269.5	
833.12	3218	
833.29	4067.9	
833.46	5669.5	
833.63	7539.9	
833.8	4448.2	
833.97	4141	
834.15	5887.9	
834.32	5665.4	
834.49	4319.2	
834.66	4370.4	
834.83	6134.3	
835	4880.3	
835.17	3997	
835.35	3943.7	
835.52	5794.4	
835.69	5587.5	
835.86	4194.2	
836.03	3388	
836.2	5819.6	
836.37	5389.6	
836.55	4100	
836.72	3805.8	
836.89	5389.6	
837.06	6027.2	
837.23	4223.6	
837.4	4566.3	
837.57	6752.8	
837.75	7516	
837.92	3734.1	
838.09	4007.9	
838.26	5381.4	
838.43	6160.3	
838.6	4322.6	
838.77	3795.6	
838.94	7161.1	
839.11	6812.9	
839.29	4064.5	
839.46	3199.6	
839.63	5842.2	
839.8	5563	
839.97	3981.9	
840.14	3940.3	
840.31	5625.8	
840.48	5861.3	
840.65	3317.7	
840.82	3926.6	
841	5847	
841.17	5808	
841.34	3690.4	
841.51	3695.2	
841.68	5743.9	
841.85	5507.7	
842.02	3788.7	
842.19	3119.7	
842.36	5612.8	
842.53	5543.9	
842.7	3639.2	
842.87	4465.3	
843.05	7408.2	
843.22	5513.8	
843.39	3445.4	
843.56	3800.3	
843.73	5257.1	
843.9	5962.3	
844.07	6002.6	
844.24	4960.2	
844.41	8802.9	
844.58	5021.6	
844.75	3507.5	
844.92	3884.3	
845.09	5860.6	
845.26	5768.4	
845.43	3579.2	
845.6	3898	
845.77	5849	
845.94	5550	
846.12	4042	
846.29	4321.9	
846.46	6034	
846.63	5758.2	
846.8	3667.2	
846.97	4306.2	
847.14	6348	
847.31	5726.1	
847.48	4099.4	
847.65	4523.3	
847.82	6067.4	
847.99	6237.4	
848.16	4912.4	
848.33	4550.6	
848.5	5333.6	
848.67	6345.3	
848.84	3635.8	
849.01	3749.8	
849.18	5240.1	
849.35	4888.5	
849.52	4568.3	
849.69	3533.4	
849.86	6077	
850.03	6286.6	
850.2	3674.1	
850.37	4545.1	
850.54	6279.8	
850.71	5483.1	
850.88	4406.5	
851.05	3583.9	
851.22	5711.1	
851.39	6503.7	
851.56	3379.1	
851.73	4222.9	
851.9	5125.4	
852.07	6087.2	
852.24	4042.7	
852.41	3638.6	
852.58	5680.4	
852.75	5203.2	
852.92	4115.1	
853.09	3545.7	
853.26	5416.9	
853.43	6307.7	
853.6	3674.7	
853.77	3105.4	
853.94	6425.8	
854.11	5810.8	
854.28	5467.4	
854.44	3927.3	
854.61	6736.5	
854.78	6208.8	
854.95	3588	
855.12	4613.4	
855.29	4678.2	
855.46	6524.1	
855.63	3541.6	
855.8	5091.3	
855.97	5362.9	
856.14	6186.2	
856.31	5119.9	
856.48	3952.6	
856.65	5336.3	
856.82	5057.1	
856.99	3508.2	
857.16	3925.3	
857.33	7163.8	
857.49	5466	
857.66	3943	
857.83	4230.4	
858	5461.9	
858.17	5747.3	
858.34	3441.3	
858.51	3608.5	
858.68	6563.1	
858.85	6630.6	
859.02	4240	
859.19	4547.9	
859.36	5075.5	
859.52	5123.3	
859.69	3634.5	
859.86	4307.6	
860.03	5198.4	
860.2	6478.4	
860.37	3271.3	
860.54	3666.5	
860.71	6122.7	
860.88	6516	
861.05	4104.8	
861.21	4597	
861.38	6611.5	
861.55	4909	
861.72	3256.3	
861.89	4063.9	
862.06	6163.7	
862.23	6656.6	
862.4	3598.3	
862.56	3814.7	
862.73	5961	
862.9	5584.1	
863.07	4306.9	
863.24	3317	
863.41	4932.9	
863.58	5086.5	
863.75	3760.1	
863.91	4185.4	
864.08	6482.5	
864.25	5961	
864.42	4650.3	
864.59	5126.1	
864.76	6843.6	
864.93	5066.7	
865.09	3564.1	
865.26	3880.2	
865.43	6414.9	
865.6	6741.2	
865.77	3102	
865.94	3592.1	
866.1	6402	
866.27	6152.1	
866.44	5582.8	
866.61	3451.5	
866.78	5517.9	
866.95	5978.7	
867.11	3529.3	
867.28	3156.6	
867.45	6171.9	
867.62	5208.7	
867.79	4257.7	
867.96	3601.7	
868.12	5085.1	
868.29	6132.3	
868.46	3561.4	
868.63	4878.9	
868.8	6382.8	
868.97	6018.3	
869.13	3779.9	
869.3	3781.9	
869.47	5974.6	
869.64	6221	
869.81	3651.5	
869.97	3598.3	
870.14	5874.9	
870.31	6606.1	
870.48	3543	
870.65	4607.2	
870.81	5466.7	
870.98	5379.3	
871.15	4143.7	
871.32	3822.9	
871.48	5918.6	
871.65	6591	
871.82	3568.2	
871.99	4021.5	
872.16	7141.9	
872.32	6414.9	
872.49	3649.5	
872.66	3659.7	
872.83	5996.5	
872.99	5306.3	
873.16	4246.8	
873.33	3623.5	
873.5	5659.2	
873.67	5697.4	
873.83	3818.1	
874	4969.1	
874.17	5805.3	
874.34	7003.4	
874.5	4710.3	
874.67	4545.1	
874.84	6561	
875.01	5066	
875.17	5188.2	
875.34	3657.7	
875.51	5735	
875.68	6997.9	
875.84	4379.2	
876.01	5429.2	
876.18	6006	
876.34	5941.2	
876.51	3651.5	
876.68	3549.1	
876.85	5521.3	
877.01	6356.2	
877.18	5246.9	
877.35	3602.4	
877.52	5558.9	
877.68	5002.5	
877.85	3506.1	
878.02	3603.7	
878.18	5575.9	
878.35	5267.4	
878.52	2881.5	
878.69	4022.2	
878.85	6109.8	
879.02	6040.8	
879.19	5195	
879.35	3977.8	
879.52	6059.9	
879.69	6265.4	
879.86	3111.5	
880.02	4043.4	
880.19	5610.1	
880.36	6902.3	
880.52	4189.5	
880.69	4307.6	
880.86	6120.7	
881.02	6254.5	
881.19	4003.1	
881.36	3956	
881.52	6012.2	
881.69	5343.2	
881.86	3899.3	
882.02	3843.4	
882.19	6342.6	
882.36	7401.4	
882.52	3747.8	
882.69	5232.6	
882.86	5841.5	
883.02	5757.5	
883.19	4480.3	
883.36	4157.4	
883.52	6164.4	
883.69	7003.4	
883.86	3709.6	
884.02	3275.4	
884.19	6172.6	
884.36	5614.8	
884.52	4115.1	
884.69	3872	
884.86	5304.2	
885.02	6792.4	
885.19	4131.4	
885.36	4203.8	
885.52	5618.3	
885.69	5795.8	
885.86	5279.7	
886.02	4649.6	
886.19	6127.5	
886.35	5455.1	
886.52	4004.5	
886.69	5117.9	
886.85	5127.4	
887.02	6490	
887.19	6490	
887.35	6490	
887.52	6490	
887.68	6490	
887.85	6490	
888.02	6490	
888.18	6490	
888.35	6490	
888.51	6490	
888.68	6490	
888.85	6490	
889.01	6490	
889.18	6490	
889.35	6490	
889.51	6490	
889.68	6490	
889.84	6490	
890.01	6490	
890.17	6490	
890.34	6490	
890.51	6490	
890.67	6490	
890.84	6490	
891	6490	
891.17	6490	
891.34	6490	
891.5	6490	
891.67	6490	
891.83	6490	
892	6490	
892.16	6490	
892.33	6490	
892.5	6490	
892.66	6490	
892.83	6490	
892.99	6490	
893.16	6490	
893.32	6490	
893.49	6490	
893.65	6490	
893.82	6490	
893.99	6490	
894.15	6490	
894.32	6490	
894.48	6490	
894.65	6490	
894.81	6490	
894.98	6490	
895.14	6490	
895.31	6490	
895.47	6490	
895.64	6490	
895.81	6490	
895.97	6490	
896.14	6490	
896.3	6490	
896.47	6490	
896.63	6490	
896.8	6490	
896.96	6490	
897.13	6490	
897.29	6490	
897.46	6490	
897.62	6490	
897.79	6490	
897.95	6490	
898.12	6490	
898.28	6490	
898.45	6490	
898.61	6490	
898.78	6490	
898.94	6490	
899.11	6490	
899.27	6490	
899.44	6490	
899.6	6490	
899.77	6490	
899.93	6490	
900.1	6490	
900.26	6490	
900.43	6490	
900.59	6490	
900.76	6490	
900.92	6490	
901.09	6490	
901.25	6490	
901.42	6490	
901.58	6490	
901.75	6490	
901.91	6490	
902.07	6490	
902.24	6490	
902.4	6490	
902.57	6490	
902.73	6490	
902.9	6490	
903.06	6490	
903.23	6490	
903.39	6490	
903.56	6490	
903.72	6490	
903.88	6490	
904.05	6490	
904.21	6490	
904.38	6490	
904.54	6490	
904.71	6490	
904.87	6490	
905.03	6490	
905.2	6490	
905.36	6490	
905.53	6490	
905.69	6490	
905.86	6490	
906.02	6490	
906.18	6490	
906.35	6490	
906.51	6490	
906.68	6490	
906.84	6490	
907.01	6490	
907.17	6490	
907.33	6490	
907.5	6490	
907.66	6490	
907.83	6490	
907.99	6490	
908.15	6490	
908.32	6490	
908.48	6490	
908.65	6490	
908.81	6490	
908.97	6490	
909.14	6490	
909.3	6490	
909.47	6490	
909.63	6490	
909.79	6490	
909.96	6490	
910.12	6490	
910.28	6490	
910.45	6490	
910.61	6490	
910.78	6490	
910.94	6490	
911.1	6490	
911.27	6490	
911.43	6490	
911.59	6490	
911.76	6490	
911.92	6490	
912.08	6490	
912.25	6490	
912.41	6490	
912.57	6490	
912.74	6490	
912.9	6490	
913.07	6490	
913.23	6490	
913.39	6490	
913.56	6490	
913.72	6490	
913.88	6490	
914.05	6490	
914.21	6490	
914.37	6490	
914.54	6490	
914.7	6490	
914.86	6490	
915.03	6490	
915.19	6490	
