Wavelength	Intensities	
nm	a.u.	
179.22	1692.3	
179.44	1686.8	
179.65	1697.8	
179.86	1675.9	
180.08	1673.2	
180.29	3869.3	
180.51	2979.1	
180.72	4923.3	
180.94	5444.9	
181.15	2704.7	
181.37	2636.4	
181.58	4744.5	
181.79	4973.8	
182.01	2788	
182.22	2900.6	
182.44	4960.2	
182.65	4355.3	
182.87	3598.3	
183.08	3238.5	
183.29	5199.8	
183.51	4373.8	
183.72	2876.7	
183.94	4085	
184.15	4626.4	
184.37	4602.5	
184.58	2643.2	
184.79	3367.5	
185.01	4427.7	
185.22	4984.1	
185.44	3603.7	
185.65	3085.6	
185.86	4676.2	
186.08	4343.7	
186.29	2603	
186.51	2729.3	
186.72	4391.5	
186.94	5071.5	
187.15	3107.5	
187.36	3192.1	
187.58	6316.6	
187.79	4725.3	
188.01	3263.1	
188.22	4891.2	
188.43	5593	
188.65	4964.3	
188.86	2771.6	
189.08	3239.9	
189.29	4537.6	
189.5	4504.2	
189.72	2964.1	
189.93	3080.8	
190.15	5050.3	
190.36	5805.3	
190.57	3248.1	
190.79	3066.5	
191	5080.3	
191.22	5057.1	
191.43	3219.4	
191.64	2794.1	
191.86	5200.5	
192.07	5106.3	
192.29	2891.7	
192.5	2932.7	
192.71	5119.9	
192.93	4508.9	
193.14	2919.7	
193.35	3015.3	
193.57	4534.2	
193.78	5052.3	
194	2514.2	
194.21	2913.6	
194.42	4331.5	
194.64	4699.4	
194.85	3149.8	
195.07	3644.7	
195.28	4641.4	
195.49	4151.9	
195.71	3835.2	
195.92	2794.8	
196.13	4813.4	
196.35	4854.4	
196.56	4041.3	
196.78	3216	
196.99	5833.3	
197.2	5434.6	
197.42	3550.5	
197.63	3246	
197.84	4255.7	
198.06	4846.2	
198.27	2996.9	
198.48	3758.7	
198.7	4478.2	
198.91	4710.3	
199.13	3192.8	
199.34	3197.6	
199.55	5044.8	
199.77	4078.2	
199.98	2910.8	
200.19	3278.1	
200.41	4652.3	
200.62	4392.2	
200.83	3285.6	
201.05	3560.1	
201.26	4672.8	
201.47	4444.8	
201.69	2940.2	
201.9	2838.5	
202.11	4670.1	
202.33	5380.7	
202.54	3065.1	
202.76	3392.1	
202.97	4689.8	
203.18	4818.9	
203.4	3302	
203.61	3315.7	
203.82	4754.7	
204.04	4435.2	
204.25	3237.8	
204.46	3147.7	
204.68	4629.8	
204.89	4834.6	
205.1	3147.7	
205.32	2755.2	
205.53	4937	
205.74	5048.2	
205.96	2440.5	
206.17	3290.4	
206.38	4893.3	
206.6	5031.9	
206.81	3662.5	
207.02	3053.5	
207.24	4846.2	
207.45	5113.1	
207.66	3119.1	
207.88	2695.1	
208.09	4805.9	
208.3	4657.8	
208.52	2859.6	
208.73	3130	
208.94	4692.6	
209.15	5171.8	
209.37	3074.7	
209.58	3184.6	
209.79	5077.6	
210.01	4541	
210.22	2581.1	
210.43	2633.7	
210.65	4653	
210.86	4898.7	
211.07	3072	
211.29	2878.1	
211.5	4874.2	
211.71	4638.6	
211.93	2887.6	
212.14	2863.1	
212.35	4643.4	
212.56	4682.3	
212.78	3287	
212.99	2698.5	
213.2	5338.4	
213.42	4558.8	
213.63	2914.3	
213.84	3052.8	
214.06	4270.7	
214.27	4333.5	
214.48	3076.7	
214.69	3301.3	
214.91	5146.5	
215.12	5148.6	
215.33	3254.2	
215.55	3560.7	
215.76	5548.6	
215.97	4864.6	
216.18	3172.3	
216.4	3119.7	
216.61	4389.5	
216.82	5005.9	
217.04	2873.3	
217.25	2997.5	
217.46	5150	
217.67	4957.4	
217.89	2594.1	
218.1	2695.8	
218.31	4719.9	
218.53	4841.4	
218.74	3004.4	
218.95	2945.7	
219.16	4632.5	
219.38	5330.9	
219.59	2898.6	
219.8	3390.8	
220.01	5711.8	
220.23	4674.8	
220.44	3667.9	
220.65	2809.8	
220.87	4754.7	
221.08	5137	
221.29	2742.9	
221.5	3473.4	
221.72	5991.7	
221.93	4433.9	
222.14	3224.2	
222.35	3810.6	
222.57	4663.2	
222.78	4995.7	
222.99	3152.5	
223.2	3259	
223.42	4835.9	
223.63	4975.2	
223.84	2470.5	
224.05	2488.3	
224.27	5666.7	
224.48	5272.2	
224.69	3752.6	
224.9	3218	
225.12	4816.8	
225.33	4678.9	
225.54	2636.4	
225.75	2942.2	
225.97	4332.1	
226.18	4621.6	
226.39	3101.3	
226.6	2908.8	
226.82	4515.8	
227.03	4404.5	
227.24	3195.5	
227.45	2732	
227.67	4982	
227.88	5319.3	
228.09	3586.7	
228.3	3531.4	
228.52	4922	
228.73	4604.5	
228.94	3017.3	
229.15	2727.2	
229.36	4643.4	
229.58	4599.7	
229.79	3065.1	
230	3466.5	
230.21	5483.1	
230.43	4726.7	
230.64	3231	
230.85	3308.8	
231.06	5032.5	
231.28	4989.5	
231.49	2677.4	
231.7	3180.5	
231.91	4942.4	
232.12	4643.4	
232.34	2860.3	
232.55	3108.1	
232.76	5128.1	
232.97	4749.9	
233.18	2866.5	
233.4	3242.6	
233.61	4845.5	
233.82	4591.5	
234.03	3007.8	
234.25	2970.9	
234.46	6110.5	
234.67	4698	
234.88	3270.6	
235.09	2938.8	
235.31	4912.4	
235.52	4564.2	
235.73	3226.9	
235.94	2776.4	
236.15	4464.6	
236.37	5536.3	
236.58	2889.7	
236.79	3064.4	
237	4928.1	
237.21	4313	
237.43	3314.3	
237.64	2666.5	
237.85	7572	
238.06	4369.7	
238.27	3330.7	
238.48	2750.4	
238.7	4965.6	
238.91	4616.1	
239.12	3018.7	
239.33	3134.1	
239.54	4390.8	
239.76	4585.4	
239.97	3065.1	
240.18	3120.4	
240.39	5522	
240.6	4762.2	
240.82	3236.5	
241.03	2688.3	
241.24	4642.1	
241.45	5243.5	
241.66	2865.8	
241.87	3331.4	
242.09	5256.5	
242.3	5401.9	
242.51	3383.9	
242.72	3097.9	
242.93	4942.4	
243.14	4601.8	
243.36	3534.8	
243.57	3815.4	
243.78	5263.3	
243.99	4912.4	
244.2	3076	
244.41	2828.2	
244.63	4328	
244.84	4834.6	
245.05	3303.4	
245.26	3024.8	
245.47	4921.3	
245.68	4985.4	
245.9	3960.8	
246.11	3237.2	
246.32	4483	
246.53	4833.9	
246.74	4830.5	
246.95	2679.4	
247.16	4392.2	
247.38	4661.2	
247.59	2686.3	
247.8	3138.9	
248.01	4382	
248.22	4666	
248.43	2824.1	
248.64	3061.7	
248.86	4334.9	
249.07	4458.4	
249.28	2817.3	
249.49	3179.8	
249.7	5102.9	
249.91	5073.5	
250.12	2669.2	
250.34	2708.1	
250.55	4798.4	
250.76	4673.5	
250.97	3177.1	
251.18	3222.1	
251.39	5141.8	
251.6	4784.7	
251.81	3224.2	
252.03	3257	
252.24	4514.4	
252.45	4960.9	
252.66	2773.6	
252.87	3338.2	
253.08	4700.1	
253.29	5823.7	
253.5	2804.4	
253.72	3679.5	
253.93	4526.7	
254.14	5378	
254.35	2981.2	
254.56	3039.2	
254.77	4801.1	
254.98	4390.8	
255.19	3002.3	
255.41	3607.8	
255.62	4813.4	
255.83	5126.1	
256.04	3252.9	
256.25	3197.6	
256.46	5526.8	
256.67	4511	
256.88	3187.3	
257.09	3501.3	
257.31	4317.1	
257.52	4386.1	
257.73	4008.6	
257.94	2977.1	
258.15	4599.7	
258.36	4647.5	
258.57	3586.7	
258.78	2499.9	
258.99	4997.7	
259.2	4568.3	
259.41	2937.5	
259.63	3056.9	
259.84	5254.4	
260.05	5523.4	
260.26	3754.6	
260.47	2925.9	
260.68	5113.1	
260.89	4584	
261.1	3547.8	
261.31	2859.6	
261.52	5136.3	
261.73	5373.2	
261.95	3760.1	
262.16	3306.1	
262.37	5166.3	
262.58	5213.4	
262.79	3745.7	
263	2983.9	
263.21	4741	
263.42	4278.2	
263.63	3278.1	
263.84	3000.3	
264.05	5072.8	
264.26	5291.3	
264.47	3595.6	
264.69	3192.8	
264.9	5262.6	
265.11	4760.2	
265.32	2867.2	
265.53	2981.2	
265.74	4765.6	
265.95	4250.9	
266.16	3119.1	
266.37	3409.2	
266.58	4782.7	
266.79	4503.5	
267	2985.3	
267.21	2811.9	
267.42	4369	
267.63	4619.5	
267.84	3096.5	
268.06	2717	
268.27	5036.6	
268.48	5178.6	
268.69	3030.3	
268.9	3478.8	
269.11	5171.1	
269.32	4276.2	
269.53	3137.5	
269.74	2872.6	
269.95	4829.8	
270.16	4188.8	
270.37	3146.4	
270.58	3488.4	
270.79	4573.1	
271	5061.2	
271.21	3272.7	
271.42	3093.1	
271.63	4826.4	
271.84	4328.7	
272.05	2621.4	
272.26	2785.9	
272.47	4646.2	
272.68	4770.4	
272.89	3011.9	
273.11	3405.8	
273.32	4489.8	
273.53	5278.3	
273.74	3274.7	
273.95	3203.7	
274.16	5018.9	
274.37	4691.2	
274.58	3368.2	
274.79	2774.3	
275	4814.1	
275.21	5092.6	
275.42	3948.5	
275.63	3411.2	
275.84	4883.7	
276.05	5911.1	
276.26	3209.2	
276.47	3070.6	
276.68	4610	
276.89	5408	
277.1	3410.6	
277.31	2779.8	
277.52	4830.5	
277.73	5111	
277.94	2725.8	
278.15	3030.3	
278.36	4883	
278.57	4440.7	
278.78	3031.7	
278.99	3220.1	
279.2	4494.6	
279.41	4408.6	
279.62	3836.5	
279.83	2751.8	
280.04	5557.5	
280.25	4339	
280.46	3782.6	
280.67	3102	
280.88	4429.1	
281.09	5152	
281.3	3271.3	
281.51	3969.6	
281.72	4470.7	
281.93	5022.3	
282.14	2925.9	
282.35	3159.3	
282.56	5040.7	
282.77	4933.6	
282.98	3027.6	
283.19	3596.9	
283.4	5959.6	
283.61	4645.5	
283.82	2849.4	
284.03	3786.7	
284.24	4840	
284.45	5053	
284.66	3773.7	
284.87	3564.1	
285.08	5132.9	
285.29	5195	
285.5	2758.6	
285.71	3098.6	
285.92	5054.4	
286.12	5535.7	
286.33	3732.1	
286.54	3057.6	
286.75	4986.8	
286.96	4562.2	
287.17	2854.2	
287.38	3690.4	
287.59	4491.2	
287.8	4444.1	
288.01	3081.5	
288.22	3430.3	
288.43	4912.4	
288.64	4240	
288.85	3521.8	
289.06	3454.9	
289.27	4995	
289.48	5276.3	
289.69	3763.5	
289.9	3438.5	
290.11	5176.6	
290.32	4513	
290.53	3566.2	
290.74	3324.5	
290.94	4977.9	
291.15	4997.7	
291.36	2941.6	
291.57	3423.5	
291.78	4545.8	
291.99	4197.7	
292.2	2840.5	
292.41	3303.4	
292.62	5048.9	
292.83	4834.6	
293.04	4066.6	
293.25	2878.8	
293.46	4555.4	
293.67	5014.1	
293.88	2918.4	
294.09	2901.3	
294.29	4386.7	
294.5	4831.8	
294.71	3158.7	
294.92	3012.6	
295.13	4508.9	
295.34	5461.9	
295.55	2682.8	
295.76	2663.7	
295.97	5011.4	
296.18	5488.6	
296.39	2825.5	
296.6	2899.9	
296.81	4693.3	
297.01	4964.3	
297.22	3061	
297.43	2893.8	
297.64	4534.9	
297.85	4376.5	
298.06	2482.1	
298.27	2685.6	
298.48	4664.6	
298.69	4459.8	
298.9	3160.7	
299.11	2872.6	
299.31	4343.1	
299.52	4362.9	
299.73	3389.4	
299.94	3314.3	
300.15	4702.8	
300.36	4414.1	
300.57	3277.4	
300.78	3221.5	
300.99	4560.8	
301.2	4692.6	
301.4	2969.6	
301.61	3134.8	
301.82	4928.1	
302.03	4942.4	
302.24	3528.7	
302.45	2792.1	
302.66	4883.7	
302.87	5116.5	
303.08	3020.1	
303.29	3812	
303.49	4596.3	
303.7	4644.8	
303.91	2661.7	
304.12	3686.3	
304.33	4310.3	
304.54	4831.8	
304.75	2949.8	
304.96	2882.2	
305.16	4924.7	
305.37	5481	
305.58	2647.3	
305.79	2699.2	
306	4902.2	
306.21	4229.7	
306.42	2908.1	
306.63	4301.4	
306.83	4577.9	
307.04	5018.2	
307.25	3245.3	
307.46	3177.1	
307.67	4177.2	
307.88	4925.4	
308.09	2961.4	
308.29	2932	
308.5	4732.9	
308.71	5081.7	
308.92	3074	
309.13	2847.4	
309.34	4668	
309.55	4610.7	
309.75	3612.6	
309.96	3296.5	
310.17	4980	
310.38	4426.3	
310.59	3445.4	
310.8	2791.4	
311.01	4536.9	
311.21	4624.3	
311.42	2861.7	
311.63	2925.2	
311.84	4517.8	
312.05	4724.7	
312.26	3249.4	
312.46	3484.3	
312.67	4566.3	
312.88	4345.1	
313.09	2833	
313.3	2804.4	
313.51	5225.7	
313.71	5430.5	
313.92	2881.5	
314.13	3002.3	
314.34	4881	
314.55	4626.4	
314.76	3551.9	
314.96	3147.7	
315.17	4799.1	
315.38	4840.7	
315.59	2868.5	
315.8	2761.3	
316.01	5218.2	
316.21	5339.1	
316.42	2808.4	
316.63	3147	
316.84	4601.8	
317.05	5106.3	
317.26	3322.5	
317.46	3019.4	
317.67	4635.9	
317.88	4955.4	
318.09	3510.2	
318.3	2693.1	
318.5	4541.7	
318.71	4933.6	
318.92	4391.5	
319.13	3330	
319.34	5042.8	
319.54	5116.5	
319.75	2712.9	
319.96	2597.5	
320.17	4915.1	
320.38	5033.9	
320.58	2697.2	
320.79	3112.9	
321	5041.4	
321.21	5145.2	
321.42	3151.8	
321.62	2686.3	
321.83	4414.7	
322.04	4661.9	
322.25	3056.3	
322.46	2887	
322.66	4749.9	
322.87	4903.5	
323.08	3416.7	
323.29	2796.8	
323.5	5451	
323.7	4338.3	
323.91	3759.4	
324.12	3392.8	
324.33	4780.6	
324.53	4891.9	
324.74	3282.2	
324.95	3411.2	
325.16	4287.8	
325.37	4545.8	
325.57	2822.1	
325.78	2897.2	
325.99	4787.5	
326.2	4287.8	
326.4	3883.6	
326.61	2665.8	
326.82	4587.4	
327.03	4779.3	
327.24	3883.6	
327.44	3670.6	
327.65	4874.2	
327.86	4083	
328.07	3241.3	
328.27	2811.9	
328.48	5213.4	
328.69	4347.2	
328.9	3970.3	
329.1	3017.3	
329.31	4614.8	
329.52	5285.1	
329.73	2838.5	
329.93	3134.8	
330.14	4739.7	
330.35	4840	
330.56	4420.9	
330.76	3409.9	
330.97	4581.3	
331.18	4870.1	
331.39	3157.3	
331.59	2633	
331.8	5135.6	
332.01	5183.4	
332.22	2960.7	
332.42	3283.6	
332.63	4794.3	
332.84	4403.1	
333.05	3198.9	
333.25	2904.7	
333.46	4518.5	
333.67	4717.2	
333.88	2977.1	
334.08	3229	
334.29	5894.7	
334.5	5137	
334.7	2837.1	
334.91	3888.4	
335.12	4330.1	
335.33	4937.7	
335.53	3153.2	
335.74	4392.2	
335.95	4569.7	
336.16	4321.9	
336.36	3140.9	
336.57	3517	
336.78	4362.9	
336.98	5068.7	
337.19	3807.9	
337.4	3020.8	
337.61	5502.9	
337.81	4330.8	
338.02	2958.6	
338.23	3566.9	
338.43	5200.5	
338.64	4486.4	
338.85	2923.8	
339.05	3742.3	
339.26	5287.2	
339.47	4253.6	
339.68	2888.3	
339.88	4091.8	
340.09	4898.1	
340.3	5046.2	
340.5	3241.3	
340.71	2604.3	
340.92	4384	
341.13	5222.3	
341.33	2776.4	
341.54	3280.2	
341.75	4805.9	
341.95	4524	
342.16	3211.2	
342.37	3431	
342.57	4395.6	
342.78	4634.6	
342.99	3449.5	
343.19	2643.2	
343.4	5029.8	
343.61	4810	
343.81	3048.7	
344.02	2804.4	
344.23	5001.1	
344.43	5207.3	
344.64	3568.9	
344.85	3450.8	
345.06	4874.8	
345.26	5102.9	
345.47	3274	
345.68	3749.8	
345.88	4262.5	
346.09	4960.2	
346.3	3367.5	
346.5	2564.7	
346.71	4670.1	
346.92	4414.7	
347.12	2722.4	
347.33	3210.5	
347.54	5042.1	
347.74	5311.1	
347.95	3247.4	
348.16	2570.9	
348.36	4502.8	
348.57	4407.9	
348.78	3289	
348.98	3433.1	
349.19	4641.4	
349.39	4220.9	
349.6	2715.6	
349.81	2950.4	
350.01	4871.4	
350.22	4419.5	
350.43	3153.9	
350.63	3685	
350.84	4701.5	
351.05	4481.6	
351.25	2864.4	
351.46	2676	
351.67	5066	
351.87	4415.4	
352.08	3076	
352.29	3404.4	
352.49	4915.1	
352.7	5020.9	
352.9	2818.7	
353.11	3388	
353.32	5414.1	
353.52	4538.3	
353.73	2818	
353.94	3407.1	
354.14	4896.7	
354.35	4711.7	
354.55	2855.6	
354.76	3087	
354.97	4885.1	
355.17	4631.8	
355.38	2800.3	
355.59	3579.8	
355.79	4416.8	
356	4657.1	
356.2	3066.5	
356.41	2818	
356.62	4263.2	
356.82	4586.1	
357.03	3356.6	
357.24	2964.1	
357.44	4412.7	
357.65	4543.1	
357.85	3893.2	
358.06	3146.4	
358.27	4207.9	
358.47	4315.8	
358.68	2711.5	
358.88	3312.2	
359.09	4780.6	
359.3	4978.6	
359.5	3763.5	
359.71	3403.7	
359.91	5295.4	
360.12	4840.7	
360.33	3291.1	
360.53	3630.4	
360.74	4384	
360.94	4437.3	
361.15	3462.4	
361.36	2893.1	
361.56	5016.2	
361.77	4614.8	
361.97	3743.7	
362.18	3070.6	
362.38	5018.9	
362.59	4253.6	
362.8	2822.1	
363	2799.6	
363.21	4129.4	
363.41	4626.4	
363.62	3158	
363.83	3829	
364.03	4766.3	
364.24	5335.6	
364.44	4011.3	
364.65	3960.1	
364.85	4584	
365.06	4337.6	
365.27	2963.4	
365.47	2994.8	
365.68	5221	
365.88	4519.2	
366.09	3260.4	
366.29	3019.4	
366.5	4666.6	
366.71	4978.6	
366.91	3893.2	
367.12	3355.3	
367.32	5455.1	
367.53	4870.1	
367.73	3403	
367.94	4033.8	
368.14	4920.6	
368.35	5396.4	
368.56	3312.2	
368.76	3123.8	
368.97	5018.9	
369.17	6057.9	
369.38	2986.6	
369.58	3132.7	
369.79	4270.7	
369.99	5209.3	
370.2	3902.1	
370.4	3248.8	
370.61	4741	
370.82	5616.9	
371.02	3181.2	
371.23	2733.4	
371.43	4246.1	
371.64	5210	
371.84	3192.1	
372.05	3944.4	
372.25	6016.9	
372.46	4924.7	
372.66	3129.3	
372.87	3160	
373.07	4930.1	
373.28	6162.3	
373.48	3864.5	
373.69	3625.6	
373.9	4657.1	
374.1	4622.3	
374.31	3786	
374.51	3453.6	
374.72	5109.7	
374.92	4344.4	
375.13	3921.9	
375.33	3371.6	
375.54	4806.6	
375.74	4498.7	
375.95	3450.1	
376.15	4263.9	
376.36	4970.4	
376.56	4789.5	
376.77	3434.4	
376.97	3717.1	
377.18	5654.4	
377.38	4951.3	
377.59	3936.2	
377.79	3126.6	
378	4771.1	
378.2	5025	
378.41	3205.8	
378.61	3085.6	
378.82	5152	
379.02	4558.1	
379.23	3285.6	
379.43	4046.8	
379.64	5328.1	
379.84	4934.2	
380.05	3151.1	
380.25	3103.4	
380.46	5023	
380.66	4695.3	
380.87	4085.7	
381.07	4289.8	
381.28	5425.8	
381.48	4980	
381.69	3113.6	
381.89	3186	
382.1	4274.8	
382.3	5021.6	
382.51	3961.5	
382.71	4567.7	
382.91	4942.4	
383.12	5304.9	
383.32	3450.8	
383.53	3600.3	
383.73	4889.2	
383.94	4797.7	
384.14	3543.7	
384.35	2945	
384.55	4669.4	
384.76	4985.4	
384.96	3467.2	
385.17	3663.1	
385.37	4982	
385.58	4443.4	
385.78	3579.8	
385.98	2916.3	
386.19	4653	
386.39	4873.5	
386.6	3237.2	
386.8	3407.8	
387.01	4990.2	
387.21	5020.3	
387.42	3719.1	
387.62	4081.6	
387.83	4560.1	
388.03	4846.9	
388.23	3482.2	
388.44	3966.2	
388.64	4359.4	
388.85	4368.3	
389.05	3738.9	
389.26	4055.7	
389.46	5788.9	
389.67	5330.2	
389.87	3724.6	
390.07	3725.9	
390.28	4709.6	
390.48	4400.4	
390.69	3157.3	
390.89	3381.2	
391.1	4627.7	
391.3	5208	
391.5	4213.4	
391.71	4587.4	
391.91	5102.2	
392.12	5618.3	
392.32	4285.7	
392.53	3629	
392.73	4659.8	
392.93	4665.3	
393.14	3517	
393.34	4036.5	
393.55	5183.4	
393.75	4769.7	
393.95	3498.6	
394.16	3432.4	
394.36	4576.5	
394.57	5090.6	
394.77	3112.2	
394.98	3323.2	
395.18	4563.6	
395.38	4684.4	
395.59	4046.8	
395.79	3284.9	
396	4705.5	
396.2	5018.2	
396.4	3900	
396.61	3880.2	
396.81	5109.7	
397.02	4587.4	
397.22	4019.5	
397.42	4019.5	
397.63	5128.8	
397.83	4524.6	
398.04	3293.8	
398.24	3604.4	
398.44	4931.5	
398.65	4209.3	
398.85	3162.1	
399.05	3235.1	
399.26	4640.7	
399.46	5710.4	
399.67	3481.5	
399.87	3314.3	
400.07	4848.9	
400.28	5063.9	
400.48	3321.8	
400.69	4122.6	
400.89	5175.9	
401.09	5531.6	
401.3	3303.4	
401.5	4052.9	
401.7	5627.8	
401.91	5810.1	
402.11	3594.2	
402.32	3706.1	
402.52	5301.5	
402.72	5169.1	
402.93	3861.8	
403.13	3074	
403.33	5800.5	
403.54	4852.3	
403.74	3660.4	
403.94	4266.6	
404.15	5005.2	
404.35	5791	
404.56	3507.5	
404.76	4697.4	
404.96	5212.8	
405.17	5046.2	
405.37	4242.7	
405.57	3804.4	
405.78	5279	
405.98	4885.8	
406.18	3511.6	
406.39	4088.4	
406.59	5214.8	
406.79	4905.6	
407	3346.4	
407.2	3399.6	
407.4	5489.9	
407.61	5384.1	
407.81	3459	
408.01	4690.5	
408.22	4439.3	
408.42	5844.9	
408.62	4162.2	
408.83	3805.8	
409.03	4934.2	
409.23	4866	
409.44	3882.3	
409.64	4016.7	
409.84	5553.4	
410.05	5507.7	
410.25	3978.5	
410.45	3805.8	
410.66	5200.5	
410.86	6938.5	
411.06	4117.8	
411.27	4022.2	
411.47	6744	
411.67	5298.8	
411.88	4150.6	
412.08	4310.3	
412.28	5836	
412.49	6164.4	
412.69	4034.5	
412.89	4080.9	
413.09	6000.5	
413.3	5896.8	
413.5	4173.8	
413.7	3842.7	
413.91	5373.9	
414.11	6021.7	
414.31	4007.2	
414.52	4265.2	
414.72	5832.6	
414.92	5666.7	
415.12	4052.2	
415.33	4437.9	
415.53	5979.4	
415.73	6049.7	
415.94	4664.6	
416.14	4228.4	
416.34	5250.3	
416.55	4992.3	
416.75	5081.7	
416.95	4670.1	
417.15	6100.9	
417.36	6435.4	
417.56	5206.6	
417.76	4552.6	
417.97	6179.4	
418.17	5991	
418.37	4321.2	
418.57	4251.6	
418.78	5894.7	
418.98	5700.9	
419.18	4947.9	
419.38	4917.2	
419.59	5627.8	
419.79	5333.6	
419.99	4242	
420.2	4374.5	
420.4	6008.7	
420.6	6042.2	
420.8	4118.5	
421.01	3996.3	
421.21	5913.2	
421.41	5915.9	
421.61	4393.6	
421.82	4173.8	
422.02	5595.7	
422.22	6248.4	
422.42	4770.4	
422.63	4483	
422.83	5647.6	
423.03	6509.8	
423.23	4533.5	
423.44	3781.9	
423.64	5617.6	
423.84	5470.8	
424.04	4144.4	
424.25	3872.7	
424.45	6273.6	
424.65	6216.3	
424.85	3750.5	
425.06	4128	
425.26	6460	
425.46	5584.1	
425.66	4536.3	
425.87	4299.4	
426.07	6028.5	
426.27	6018.3	
426.47	4440.7	
426.67	3994.2	
426.88	6421.7	
427.08	5967.1	
427.28	4609.3	
427.48	3783.3	
427.69	5173.9	
427.89	5734.3	
428.09	4497.3	
428.29	3906.2	
428.5	6131.6	
428.7	5815.5	
428.9	3843.4	
429.1	4183.3	
429.3	5816.9	
429.51	5903.6	
429.71	4134.2	
429.91	4701.5	
430.11	6074.3	
430.31	6139.8	
430.52	4257.7	
430.72	4487.8	
430.92	6427.2	
431.12	5955.5	
431.32	4171	
431.53	4386.1	
431.73	5240.8	
431.93	6432.7	
432.13	4020.2	
432.33	3902.1	
432.54	5673.6	
432.74	5777.3	
432.94	3895.9	
433.14	4586.1	
433.34	6083.8	
433.55	5713.8	
433.75	4526	
433.95	5860.6	
434.15	5902.2	
434.35	5566.4	
434.56	4084.3	
434.76	3749.1	
434.96	5819.6	
435.16	5963	
435.36	3983.3	
435.56	4775.9	
435.77	5604.6	
435.97	5714.5	
436.17	5237.3	
436.37	4754.7	
436.57	5578	
436.78	5479	
436.98	4886.5	
437.18	5134.3	
437.38	6039.5	
437.58	5687.9	
437.78	5236.7	
437.99	4269.3	
438.19	6077.7	
438.39	6682.5	
438.59	4285.7	
438.79	3819.5	
438.99	6568.5	
439.2	5631.2	
439.4	3949.8	
439.6	3917.8	
439.8	5839.4	
440	6606.7	
440.2	4642.1	
440.4	4711	
440.61	6150.7	
440.81	6536.4	
441.01	4091.2	
441.21	4684.4	
441.41	6534.4	
441.61	6173.3	
441.81	4858.5	
442.02	5631.9	
442.22	6909.8	
442.42	6346.7	
442.62	4152.6	
442.82	4274.8	
443.02	6550.8	
443.22	5932.3	
443.43	4463.9	
443.63	4151.2	
443.83	5751.4	
444.03	5701.5	
444.23	4999.1	
444.43	4745.8	
444.63	6044.9	
444.83	6845	
445.04	4197.7	
445.24	5171.1	
445.44	6283.2	
445.64	6277	
445.84	4853	
446.04	4862.6	
446.24	5797.8	
446.44	6548.7	
446.65	4242	
446.85	4516.5	
447.05	5893.4	
447.25	6492.7	
447.45	4603.8	
447.65	4157.4	
447.85	6126.2	
448.05	5758.2	
448.25	4900.1	
448.46	4696	
448.66	6072.9	
448.86	5830.6	
449.06	4071.4	
449.26	4846.2	
449.46	6257.2	
449.66	5628.5	
449.86	4556	
450.06	4528.7	
450.26	5803.9	
450.47	6152.8	
450.67	4690.5	
450.87	4939	
451.07	6399.2	
451.27	6096.1	
451.47	4196.3	
451.67	4925.4	
451.87	5907.7	
452.07	6677.1	
452.27	4375.1	
452.47	4451.6	
452.67	6187.6	
452.88	6383.5	
453.08	4012	
453.28	5358.2	
453.48	6936.5	
453.68	6027.9	
453.88	4384.7	
454.08	4445.5	
454.28	6381.5	
454.48	6072.9	
454.68	4779.3	
454.88	5191.6	
455.08	6499.6	
455.28	6122.1	
455.48	4212.7	
455.68	4672.1	
455.89	6810.2	
456.09	6479.1	
456.29	4539.7	
456.49	4589.5	
456.69	6719.4	
456.89	6102.9	
457.09	4894	
457.29	5128.1	
457.49	6396.5	
457.69	6447	
457.89	4857.1	
458.09	4316.4	
458.29	6320.7	
458.49	6803.4	
458.69	5133.6	
458.89	4632.5	
459.09	6903	
459.29	6946	
459.49	4752.7	
459.69	5396.4	
459.9	6639.5	
460.1	6234.7	
460.3	4655	
460.5	4488.5	
460.7	6671.6	
460.9	6247	
461.1	4306.9	
461.3	5149.3	
461.5	7112.6	
461.7	6826.6	
461.9	4605.9	
462.1	4945.8	
462.3	6408.8	
462.5	6831.3	
462.7	4710.3	
462.9	4713.7	
463.1	7513.3	
463.3	7342	
463.5	4889.9	
463.7	5565.7	
463.9	6623.1	
464.1	6845.7	
464.3	4999.1	
464.5	5182.7	
464.7	6991.1	
464.9	6831.3	
465.1	6064	
465.3	5414.8	
465.5	7331.7	
465.7	7273.7	
465.9	5640.8	
466.1	5443.5	
466.3	7131.7	
466.5	7062.8	
466.7	6042.2	
466.9	5168.4	
467.1	7086.7	
467.3	7638.2	
467.5	6102.9	
467.7	5197.7	
467.9	7770	
468.1	8352.3	
468.3	5847	
468.5	6167.8	
468.7	6968.6	
468.9	6929	
469.1	5502.2	
469.3	5996.5	
469.5	8372.1	
469.7	6643.6	
469.9	5792.3	
470.1	5317.9	
470.3	7146.7	
470.5	7062.1	
470.7	6258.6	
470.9	5433.9	
471.1	6879.1	
471.3	7184.3	
471.5	5266.7	
471.69	6647	
471.89	6778.1	
472.09	6445.6	
472.29	5825.8	
472.49	6128.9	
472.69	6603.3	
472.89	7187.7	
473.09	5165.7	
473.29	5319.3	
473.49	6700.3	
473.69	6786.3	
473.89	5984.8	
474.09	5385.5	
474.29	7639.6	
474.49	7478.5	
474.69	5907.7	
474.89	5469.4	
475.09	6836.8	
475.29	6760.3	
475.49	5139.7	
475.69	5270.1	
475.88	8017.8	
476.08	7124.9	
476.28	5014.8	
476.48	5261.2	
476.68	7448.5	
476.88	7209.5	
477.08	5240.8	
477.28	5397.1	
477.48	6893.5	
477.68	7373.4	
477.88	5160.2	
478.08	5281.7	
478.28	7546.1	
478.48	6968.6	
478.67	5384.8	
478.87	4984.1	
479.07	7416.4	
479.27	7096.2	
479.47	5522	
479.67	5600.5	
479.87	7332.4	
480.07	7654.6	
480.27	5092.6	
480.47	6116.6	
480.67	7034.1	
480.87	7471	
481.06	5239.4	
481.26	5915.9	
481.46	7033.4	
481.66	6986.3	
481.86	5651	
482.06	6203.3	
482.26	6887.3	
482.46	7461.4	
482.66	5502.2	
482.86	5183.4	
483.05	7172	
483.25	6641.6	
483.45	7223.2	
483.65	5500.8	
483.85	6713.9	
484.05	6982.2	
484.25	5838.8	
484.45	6065.4	
484.65	7576.1	
484.84	7641	
485.04	5447.6	
485.24	5470.8	
485.44	7890.8	
485.64	6593.8	
485.84	5047.6	
486.04	5962.3	
486.24	6908.5	
486.44	7185.6	
486.63	4995.7	
486.83	5621	
487.03	6930.3	
487.23	6932.4	
487.43	5074.2	
487.63	6654.5	
487.83	7117.4	
488.02	7533.1	
488.22	5780.7	
488.42	6191	
488.62	7779.6	
488.82	6885.3	
489.02	5586.2	
489.22	5499.5	
489.41	7597.3	
489.61	7368.6	
489.81	5384.1	
490.01	5359.5	
490.21	7604.1	
490.41	8045.8	
490.61	5339.7	
490.8	5406.6	
491	7247.1	
491.2	6799.3	
491.4	5930.9	
491.6	5238	
491.8	7277.8	
491.99	7153.6	
492.19	5063.3	
492.39	5274.2	
492.59	7519.5	
492.79	7670.3	
492.99	5958.9	
493.18	5315.8	
493.38	7630	
493.58	8163.2	
493.78	5831.9	
493.98	5558.9	
494.18	7406.1	
494.37	7030	
494.57	5975.3	
494.77	5870.2	
494.97	7574.1	
495.17	7763.2	
495.37	5652.4	
495.56	5932.3	
495.76	7955.7	
495.96	7653.9	
496.16	6617.7	
496.36	5868.8	
496.55	7952.3	
496.75	7473.7	
496.95	6039.5	
497.15	5980.8	
497.35	7860.8	
497.54	7770.7	
497.74	5887.9	
497.94	7040.9	
498.14	8384.4	
498.34	8218.5	
498.53	5707	
498.73	6196.5	
498.93	7321.5	
499.13	7800	
499.33	6152.1	
499.52	6358.9	
499.72	7908.6	
499.92	7975.5	
500.12	5897.5	
500.32	6016.9	
500.51	7967.3	
500.71	7859.4	
500.91	6605.4	
501.11	6385.6	
501.31	7957.7	
501.5	8314.1	
501.7	6905.8	
501.9	6091.3	
502.1	7835.5	
502.29	8000.7	
502.49	6449.1	
502.69	6701	
502.89	7930.4	
503.09	7974.8	
503.28	5760.3	
503.48	5855.8	
503.68	7532.4	
503.88	7456.7	
504.07	6518.7	
504.27	6107	
504.47	7718.8	
504.67	7791.8	
504.86	6409.5	
505.06	6185.5	
505.26	7544.7	
505.46	8673.8	
505.65	6042.2	
505.85	6240.8	
506.05	7483.3	
506.25	7770.7	
506.44	5661.3	
506.64	6261.3	
506.84	7332.4	
507.04	7889.5	
507.23	5797.8	
507.43	6129.6	
507.63	8714.1	
507.83	7441.6	
508.02	6166.4	
508.22	5881.1	
508.42	8907.3	
508.62	7245.7	
508.81	6011.5	
509.01	6455.9	
509.21	7169.9	
509.4	7508.5	
509.6	6186.9	
509.8	5722	
510	7385	
510.19	8307.2	
510.39	5750.7	
510.59	5815.5	
510.79	7307.2	
510.98	8234.2	
511.18	5902.2	
511.38	5904.3	
511.57	7976.2	
511.77	7745.4	
511.97	6366.5	
512.17	5711.1	
512.36	7894.9	
512.56	7856.7	
512.76	5773.2	
512.95	5586.9	
513.15	8002.8	
513.35	6968.6	
513.55	6350.8	
513.74	5685.8	
513.94	7921.5	
514.14	7449.1	
514.33	6393.1	
514.53	6268.8	
514.73	7545.4	
514.92	7577.5	
515.12	5895.4	
515.32	5672.9	
515.51	7662.1	
515.71	7855.3	
515.91	7098.9	
516.11	5838.8	
516.3	8845.2	
516.5	7333.8	
516.7	6185.5	
516.89	6645.7	
517.09	7481.2	
517.29	7563.8	
517.48	6464.1	
517.68	6012.8	
517.88	7260.7	
518.07	7793.2	
518.27	6529.6	
518.47	5712.5	
518.66	8191.2	
518.86	7244.3	
519.06	5631.2	
519.25	5957.5	
519.45	7496.2	
519.65	8510.7	
519.84	6487.3	
520.04	6853.2	
520.24	8757.1	
520.43	7931.1	
520.63	6279.1	
520.83	6039.5	
521.02	7385.7	
521.22	7846.5	
521.42	6297.5	
521.61	6762.4	
521.81	7537.2	
522.01	7784.3	
522.2	6325.5	
522.4	6069.5	
522.6	8056.7	
522.79	7076.4	
522.99	6228.6	
523.18	5670.1	
523.38	7856.7	
523.58	7785.7	
523.77	7010.9	
523.97	5692	
524.17	9102.5	
524.36	8535.9	
524.56	6748.1	
524.76	6511.2	
524.95	7856	
525.15	7592.5	
525.34	6327.5	
525.54	6328.2	
525.74	8165.9	
525.93	7503.8	
526.13	7306.5	
526.33	6464.8	
526.52	8499.1	
526.72	7975.5	
526.91	7215	
527.11	6638.1	
527.31	8359.1	
527.5	8692.9	
527.7	6711.2	
527.89	6015.6	
528.09	7750.2	
528.29	8146.1	
528.48	6985.6	
528.68	6730.3	
528.87	8390.5	
529.07	8449.9	
529.27	6652.5	
529.46	6355.5	
529.66	8257.4	
529.85	8486.1	
530.05	6261.3	
530.25	6840.2	
530.44	9220	
530.64	8090.2	
530.83	6524.8	
531.03	6688.7	
531.23	8450.6	
531.42	8264.9	
531.62	7088	
531.81	6644.3	
532.01	8529.1	
532.21	8638.3	
532.4	6472.9	
532.6	6783.6	
532.79	9178.3	
532.99	8557.8	
533.18	6864.8	
533.38	7523.6	
533.58	8304.5	
533.77	8825.4	
533.97	6906.4	
534.16	7371.3	
534.36	9044.5	
534.55	8329.8	
534.75	7515.4	
534.95	6888	
535.14	8999.5	
535.34	8369.4	
535.53	6695.5	
535.73	7961.1	
535.92	9308	
536.12	8371.4	
536.31	6716	
536.51	7553.6	
536.71	8732.5	
536.9	8324.3	
537.1	6829.3	
537.29	6927.6	
537.49	8919.6	
537.68	8252.6	
537.88	7141.9	
538.07	6543.9	
538.27	8457.4	
538.46	9240.4	
538.66	6513.9	
538.86	6892.1	
539.05	8523	
539.25	8737.3	
539.44	7085.3	
539.64	6793.1	
539.83	8397.4	
540.03	9075.9	
540.22	6662.7	
540.42	6732.4	
540.61	8591.2	
540.81	8585.1	
541	7006.1	
541.2	7509.2	
541.39	8178.2	
541.59	8471.8	
541.78	7362.4	
541.98	6711.9	
542.18	8008.9	
542.37	7967.3	
542.57	6934.4	
542.76	7250.5	
542.96	8105.9	
543.15	8445.8	
543.35	7067.5	
543.54	6442.2	
543.74	8602.2	
543.93	8325.7	
544.13	6851.1	
544.32	7600	
544.52	8598.1	
544.71	8003.5	
544.91	6213.5	
545.1	7030.7	
545.3	8106.5	
545.49	8398	
545.69	6165.8	
545.88	6650.4	
546.08	9204.3	
546.27	8805.6	
546.47	7000	
546.66	6425.2	
546.86	8555	
547.05	8964.6	
547.24	6600.6	
547.44	6518.7	
547.63	7918.8	
547.83	8710.7	
548.02	6767.2	
548.22	6952.9	
548.41	7774.8	
548.61	8714.8	
548.8	6436.8	
549	6414.9	
549.19	8276.5	
549.39	8594.6	
549.58	6184.9	
549.78	6582.9	
549.97	8490.2	
550.17	8129.8	
550.36	7247.1	
550.55	7927	
550.75	8080.6	
550.94	8783.7	
551.14	6331	
551.33	6599.2	
551.53	7662.1	
551.72	8335.2	
551.92	6604.7	
552.11	6496.8	
552.31	8445.8	
552.5	8428.8	
552.69	7690.1	
552.89	6278.4	
553.08	8322.9	
553.28	8077.2	
553.47	6541.2	
553.67	7282.6	
553.86	8836.3	
554.06	7597.3	
554.25	5954.8	
554.44	6237.4	
554.64	9285.5	
554.83	8947.6	
555.03	6317.3	
555.22	6602.7	
555.42	8488.8	
555.61	8247.2	
555.8	6448.4	
556	6629.3	
556.19	7680.6	
556.39	8532.5	
556.58	6457.9	
556.78	6399.9	
556.97	8161.8	
557.16	8022.6	
557.36	7290.8	
557.55	6184.9	
557.75	7430.7	
557.94	8691.6	
558.13	6317.3	
558.33	6077.7	
558.52	8576.9	
558.72	7718.8	
558.91	6198.5	
559.1	6309.1	
559.3	7546.1	
559.49	7378.8	
559.69	5890.6	
559.88	6567.8	
560.07	8041.7	
560.27	8402.1	
560.46	6751.5	
560.66	6803.4	
560.85	7989.8	
561.04	7410.9	
561.24	6115.2	
561.43	6248.4	
561.63	7541.3	
561.82	7789.1	
562.01	7147.4	
562.21	6404	
562.4	8086.7	
562.59	8648.6	
562.79	6285.2	
562.98	6029.9	
563.18	7980.3	
563.37	8994	
563.56	6640.9	
563.76	6128.2	
563.95	7675.1	
564.14	7578.2	
564.34	6421.7	
564.53	6232.7	
564.73	8095.6	
564.92	8238.3	
565.11	6414.2	
565.31	6004	
565.5	8357.8	
565.69	7563.1	
565.89	6234.7	
566.08	6399.9	
566.27	8354.3	
566.47	8584.4	
566.66	6837.5	
566.85	5911.1	
567.05	8130.4	
567.24	7669	
567.44	6156.9	
567.63	7107.8	
567.82	8299.1	
568.02	7980.3	
568.21	6040.8	
568.4	6377.4	
568.6	7962.5	
568.79	7849.2	
568.98	6080.4	
569.18	6137.1	
569.37	7935.2	
569.56	9216.5	
569.76	6390.3	
569.95	7055.3	
570.14	8218.5	
570.34	8095.6	
570.53	6017.6	
570.72	5932.3	
570.91	8428.8	
571.11	7882.6	
571.3	6427.2	
571.49	6987.7	
571.69	7933.8	
571.88	7493.5	
572.07	6653.9	
572.27	6660.7	
572.46	7474.4	
572.65	8189.1	
572.85	6241.5	
573.04	6376	
573.23	8487.5	
573.43	7949.5	
573.62	5987.6	
573.81	6362.4	
574	7972.1	
574.2	7795.9	
574.39	6313.2	
574.58	6464.1	
574.78	8506.6	
574.97	7989.1	
575.16	6667.5	
575.36	6722.8	
575.55	8327	
575.74	8412.4	
575.93	6087.9	
576.13	6692.8	
576.32	7838.3	
576.51	8317.5	
576.71	6354.2	
576.9	7294.9	
577.09	8620.6	
577.28	8092.9	
577.48	6681.2	
577.67	5967.1	
577.86	7934.5	
578.05	8131.8	
578.25	6375.3	
578.44	6485.9	
578.63	7963.2	
578.83	8882.7	
579.02	5991.7	
579.21	7075	
579.4	8101.8	
579.6	7891.5	
579.79	6526.9	
579.98	8069.7	
580.17	8370.7	
580.37	8469.7	
580.56	6161.7	
580.75	6692.8	
580.94	8684.1	
581.14	8647.9	
581.33	7024.5	
581.52	6251.1	
581.71	8210.3	
581.91	8731.2	
582.1	6052.4	
582.29	6454.5	
582.48	7989.8	
582.68	8005.5	
582.87	6767.2	
583.06	6553.5	
583.25	8300.4	
583.45	7784.3	
583.64	6999.3	
583.83	7515.4	
584.02	8042.4	
584.21	8224	
584.41	7010.2	
584.6	6477.7	
584.79	7987.1	
584.98	8501.1	
585.18	6163	
585.37	6133.7	
585.56	7823.2	
585.75	8286.1	
585.94	6341.9	
586.14	6697.5	
586.33	8765.3	
586.52	7903.8	
586.71	6602	
586.91	6430.6	
587.1	7559.1	
587.29	8358.4	
587.48	6367.8	
587.67	6293.4	
587.87	8123.6	
588.06	8203.5	
588.25	7235.5	
588.44	6699.6	
588.63	7864.2	
588.83	8308.6	
589.02	6287.9	
589.21	6231.3	
589.4	7781.6	
589.59	7696.9	
589.78	5621	
589.98	5815.5	
590.17	7367.2	
590.36	7671	
590.55	5385.5	
590.74	5922.7	
590.94	8515.5	
591.13	7515.4	
591.32	5748	
591.51	5382.1	
591.7	7859.4	
591.89	7403.4	
592.09	5447.6	
592.28	5867.4	
592.47	6932.4	
592.66	8328.4	
592.85	5458.5	
593.05	5634.6	
593.24	7449.8	
593.43	8034.2	
593.62	5760.9	
593.81	6027.2	
594	7423.2	
594.19	7467.6	
594.39	5653.8	
594.58	5577.3	
594.77	7598	
594.96	8024.6	
595.15	5592.3	
595.34	6089.3	
595.54	7638.2	
595.73	7006.8	
595.92	5172.5	
596.11	5809.4	
596.3	8019.2	
596.49	7098.3	
596.68	5786.2	
596.88	6092	
597.07	7767.3	
597.26	6969.9	
597.45	5509.7	
597.64	6259.3	
597.83	7158.3	
598.02	7600.7	
598.22	5454.4	
598.41	6034	
598.6	7448.5	
598.79	7026.6	
598.98	5554.8	
599.17	6223.8	
599.36	7480.5	
599.55	8202.8	
599.74	6963.8	
599.94	6806.8	
600.13	7864.9	
600.32	7068.9	
600.51	5383.4	
600.7	5465.3	
600.89	8282.7	
601.08	8326.4	
601.27	5345.2	
601.47	5970.5	
601.66	7810.3	
601.85	8225.3	
602.04	5829.9	
602.23	5902.2	
602.42	7154.9	
602.61	7539.9	
602.8	5656.5	
602.99	5603.2	
603.18	7317.4	
603.37	7464.8	
603.57	5913.2	
603.76	6421.7	
603.95	8112	
604.14	7655.3	
604.33	5587.5	
604.52	5876.3	
604.71	7494.9	
604.9	7220.5	
605.09	6275.7	
605.28	6151.4	
605.47	8021.2	
605.66	7603.4	
605.86	6117.3	
606.05	5589.6	
606.24	7903.1	
606.43	6821.8	
606.62	5911.8	
606.81	6321.4	
607	7886.7	
607.19	7335.1	
607.38	5497.4	
607.57	5549.3	
607.76	7120.1	
607.95	6720.8	
608.14	5892.7	
608.33	6342.6	
608.52	7111.9	
608.72	7770.7	
608.91	5322	
609.1	5311.7	
609.29	7246.4	
609.48	6827.9	
609.67	5986.9	
609.86	5339.7	
610.05	6930.3	
610.24	7122.8	
610.43	5255.1	
610.62	5017.5	
610.81	8030.1	
611	7725.6	
611.19	5326.1	
611.38	5918.6	
611.57	7391.8	
611.76	8250.6	
611.95	5203.9	
612.14	5115.1	
612.33	7267.6	
612.52	6867.5	
612.71	5553.4	
612.9	5001.1	
613.09	6597.2	
613.28	8209.6	
613.47	5421.7	
613.66	6027.9	
613.85	7343.3	
614.04	6920.1	
614.24	5442.8	
614.43	4863.2	
614.62	7371.3	
614.81	7279.8	
615	5877.7	
615.19	5803.3	
615.38	6771.9	
615.57	7203.4	
615.76	5748	
615.95	6363	
616.14	7427.3	
616.33	7147.4	
616.52	5913.2	
616.71	6076.3	
616.9	7391.8	
617.09	7186.3	
617.28	5626.5	
617.47	6305	
617.66	6825.2	
617.85	6727.6	
618.04	6165.1	
618.22	5764.3	
618.41	6994.5	
618.6	7630	
618.79	5653.8	
618.98	5485.1	
619.17	7947.5	
619.36	6653.2	
619.55	5570.5	
619.74	5710.4	
619.93	7258	
620.12	6917.4	
620.31	6041.5	
620.5	6124.8	
620.69	8061.5	
620.88	8092.9	
621.07	6678.4	
621.26	5866.7	
621.45	7531.1	
621.64	7508.5	
621.83	6083.8	
622.02	5454.4	
622.21	7537.9	
622.4	7411.6	
622.59	6330.3	
622.78	6194.4	
622.97	7047.7	
623.16	7784.3	
623.35	6018.3	
623.54	5393.7	
623.72	7204.8	
623.91	7281.2	
624.1	6146.6	
624.29	5208.7	
624.48	8147.5	
624.67	7563.8	
624.86	6049	
625.05	5454.4	
625.24	8181	
625.43	7066.2	
625.62	7394.5	
625.81	5608	
626	7817.8	
626.19	7195.2	
626.38	6053.1	
626.56	5666.7	
626.75	7060.7	
626.94	7619.8	
627.13	6131.6	
627.32	5196.4	
627.51	7557	
627.7	8396.7	
627.89	5312.4	
628.08	6182.8	
628.27	6984.3	
628.46	7182.9	
628.65	5470.1	
628.83	5167.7	
629.02	7551.5	
629.21	6933.1	
629.4	5751.4	
629.59	5969.8	
629.78	7053.2	
629.97	7607.5	
630.16	5963.7	
630.35	5523.4	
630.54	8052.6	
630.72	7799.3	
630.91	5610.1	
631.1	5941.8	
631.29	7407.5	
631.48	7434.1	
631.67	6051.7	
631.86	5634	
632.05	7151.5	
632.24	7113.3	
632.42	5421.7	
632.61	5866.7	
632.8	7214.3	
632.99	6817.7	
633.18	5839.4	
633.37	6069.5	
633.56	7448.5	
633.75	7268.9	
633.93	5930.9	
634.12	5658.5	
634.31	7964.6	
634.5	7567.9	
634.69	5627.1	
634.88	6046.3	
635.07	7210.9	
635.25	7614.3	
635.44	6331.6	
635.63	6414.9	
635.82	7177.4	
636.01	6678.4	
636.2	6220.4	
636.39	5932.3	
636.57	7972.1	
636.76	7571.3	
636.95	5493.3	
637.14	6439.5	
637.33	7410.9	
637.52	8060.1	
637.7	5328.8	
637.89	6141.2	
638.08	7088	
638.27	8125.7	
638.46	6072.9	
638.65	6242.9	
638.83	8141.4	
639.02	7004.7	
639.21	5948.7	
639.4	6320.7	
639.59	7346.7	
639.78	7093.5	
639.96	5505.6	
640.15	5478.3	
640.34	7232.7	
640.53	7264.8	
640.72	5261.9	
640.91	5517.9	
641.09	6785.6	
641.28	7843	
641.47	5507	
641.66	6149.4	
641.85	7210.2	
642.03	7384.3	
642.22	5883.8	
642.41	5614.8	
642.6	6909.8	
642.79	6520.7	
642.97	5433.9	
643.16	5863.3	
643.35	6840.2	
643.54	6668.2	
643.73	5366.4	
643.91	5812.1	
644.1	6647	
644.29	7012.9	
644.48	5375.9	
644.67	5451.7	
644.85	6639.5	
645.04	7069.6	
645.23	5147.9	
645.42	5386.8	
645.6	6635.4	
645.79	7458.7	
645.98	5313.8	
646.17	4567.7	
646.36	6485.2	
646.54	6812.2	
646.73	5778.7	
646.92	4957.4	
647.11	6576	
647.29	7165.2	
647.48	4997	
647.67	4835.3	
647.86	7346.7	
648.05	7384.3	
648.23	5181.4	
648.42	6149.4	
648.61	7051.8	
648.8	6769.9	
648.98	4911.7	
649.17	5205.9	
649.36	6507.8	
649.55	6170.5	
649.73	4937.7	
649.92	5524.1	
650.11	6435.4	
650.3	6650.4	
650.48	5082.4	
650.67	5036	
650.86	6847.7	
651.05	6068.8	
651.23	5038.7	
651.42	4997	
651.61	6493.4	
651.79	6466.8	
651.98	5178.6	
652.17	4868.7	
652.36	6777.4	
652.54	6055.2	
652.73	4930.8	
652.92	4850.3	
653.11	6812.2	
653.29	6920.1	
653.48	4546.5	
653.67	5137.7	
653.85	6614.3	
654.04	7346.7	
654.23	5323.4	
654.42	4967.7	
654.6	6378.7	
654.79	6744	
654.98	4620.9	
655.16	5005.2	
655.35	6008.7	
655.54	5818.3	
655.73	4674.1	
655.91	4534.2	
656.1	6546	
656.29	5874.3	
656.47	4266.6	
656.66	5430.5	
656.85	6102.3	
657.03	6039.5	
657.22	4638	
657.41	4755.4	
657.59	6195.8	
657.78	6005.3	
657.97	4442	
658.16	4984.1	
658.34	6643.6	
658.53	6967.2	
658.72	5555.5	
658.9	5899.5	
659.09	6309.8	
659.28	6275.7	
659.46	4810	
659.65	4737.6	
659.84	6115.9	
660.02	6519.4	
660.21	4761.5	
660.4	4624.3	
660.58	6795.8	
660.77	6318	
660.96	5081	
661.14	4406.5	
661.33	7096.9	
661.52	7120.1	
661.7	4379.9	
661.89	6816.3	
662.08	6122.1	
662.26	5669.5	
662.45	4618.9	
662.64	4692.6	
662.82	6663.4	
663.01	5964.4	
663.2	4680.3	
663.38	5230.5	
663.57	6492.1	
663.75	6408.1	
663.94	4852.3	
664.13	5848.3	
664.31	6062	
664.5	6535.1	
664.69	5154.7	
664.87	5454.4	
665.06	5829.2	
665.25	6348	
665.43	5535	
665.62	5648.3	
665.8	6598.6	
665.99	6178.7	
666.18	4887.8	
666.36	4941.1	
666.55	6573.3	
666.74	6481.8	
666.92	4580.6	
667.11	5799.2	
667.29	6161.7	
667.48	6503.7	
667.67	5511.8	
667.85	4834.6	
668.04	6077.7	
668.22	6059.9	
668.41	4985.4	
668.6	5110.4	
668.78	6035.4	
668.97	6133.7	
669.15	5170.4	
669.34	4446.1	
669.53	5986.9	
669.71	6253.1	
669.9	4625	
670.08	4958.8	
670.27	5910.4	
670.46	6421.7	
670.64	5210	
670.83	5318.6	
671.01	5877.7	
671.2	6283.2	
671.38	4707.6	
671.57	4563.6	
671.76	6791.1	
671.94	7111.9	
672.13	4532.2	
672.31	5313.1	
672.5	6530.3	
672.69	6025.8	
672.87	4636.6	
673.06	4826.4	
673.24	6419	
673.43	6025.1	
673.61	5012.7	
673.8	4782.7	
673.98	6430.6	
674.17	6521.4	
674.36	5228.5	
674.54	5131.5	
674.73	6165.1	
674.91	6455.9	
675.1	4894.6	
675.28	4637.3	
675.47	6136.4	
675.65	6488	
675.84	4814.1	
676.03	4973.2	
676.21	6047.7	
676.4	5577.3	
676.58	5407.3	
676.77	5140.4	
676.95	7062.1	
677.14	5976.7	
677.32	4467.3	
677.51	4468	
677.69	6500.9	
677.88	5786.9	
678.06	4515.8	
678.25	4597	
678.44	6135	
678.62	5984.2	
678.81	4425.7	
678.99	5064.6	
679.18	6709.1	
679.36	6352.1	
679.55	4716.5	
679.73	5183.4	
679.92	6363	
680.1	5953.4	
680.29	5610.8	
680.47	4762.9	
680.66	6016.2	
680.84	6560.3	
681.03	4253.6	
681.21	4986.8	
681.4	6015.6	
681.58	5868.8	
681.77	4577.2	
681.95	4570.4	
682.14	6514.6	
682.32	6770.6	
682.51	5218.2	
682.69	4441.4	
682.88	5945.9	
683.06	6300.9	
683.25	5016.2	
683.43	5268.1	
683.62	6250.4	
683.8	6397.9	
683.99	5449	
684.17	4915.1	
684.36	7027.9	
684.54	6102.9	
684.73	4377.2	
684.91	4520.5	
685.1	6285.9	
685.28	5806.7	
685.46	4839.4	
685.65	4858.5	
685.83	6388.3	
686.02	5911.8	
686.2	4455	
686.39	4530.8	
686.57	5712.5	
686.76	6690.7	
686.94	4467.3	
687.13	4551.3	
687.31	6154.1	
687.5	5953.4	
687.68	4190.8	
687.86	4964.3	
688.05	7172.7	
688.23	5541.1	
688.42	5083.1	
688.6	4506.9	
688.79	5831.9	
688.97	5864.7	
689.16	4874.8	
689.34	4089.1	
689.52	6408.1	
689.71	6596.5	
689.89	4969.1	
690.08	4545.1	
690.26	6118.6	
690.45	5918.6	
690.63	5158.8	
690.81	4629.8	
691	5918.6	
691.18	5818.3	
691.37	4704.2	
691.55	6179.4	
691.74	5748	
691.92	7223.2	
692.1	4708.3	
692.29	4414.7	
692.47	5954.1	
692.66	5472.9	
692.84	4448.9	
693.02	4841.4	
693.21	5547.3	
693.39	5956.9	
693.58	4963.6	
693.76	4562.2	
693.94	6754.9	
694.13	6631.3	
694.31	4530.1	
694.5	5303.6	
694.68	5815.5	
694.86	6100.9	
695.05	4807.3	
695.23	4930.1	
695.42	6346	
695.6	7890.8	
695.78	5289.9	
695.97	4642.7	
696.15	6408.1	
696.34	5969.8	
696.52	4498	
696.7	5062.6	
696.89	6176	
697.07	5775.3	
697.25	4993.6	
697.44	5978.7	
697.62	6199.9	
697.81	6407.4	
697.99	4837.3	
698.17	5045.5	
698.36	5786.9	
698.54	6246.3	
698.72	4973.8	
698.91	4315.1	
699.09	5986.9	
699.28	5761.6	
699.46	4811.4	
699.64	4659.8	
699.83	5805.3	
700.01	6567.2	
700.19	5234.6	
700.38	4188.8	
700.56	6648.4	
700.74	5841.5	
700.93	4361.5	
701.11	5012.1	
701.29	6301.6	
701.48	6982.2	
701.66	4618.9	
701.84	4644.1	
702.03	6021.7	
702.21	6469.5	
702.39	4364.9	
702.58	4769.7	
702.76	6399.9	
702.94	6414.2	
703.13	4277.5	
703.31	6021.7	
703.49	5869.5	
703.68	6929.6	
703.86	4482.3	
704.04	5173.2	
704.23	6230.6	
704.41	6461.3	
704.59	4664.6	
704.78	5431.9	
704.96	7407.5	
705.14	6498.9	
705.33	4512.4	
705.51	5045.5	
705.69	6051.1	
705.87	6531.7	
706.06	5237.3	
706.24	4498	
706.42	6303	
706.61	6498.9	
706.79	5274.2	
706.97	4504.8	
707.16	5886.5	
707.34	6315.3	
707.52	5224.4	
707.7	4640.7	
707.89	5945.9	
708.07	5812.1	
708.25	5225.1	
708.44	5290.6	
708.62	5963.7	
708.8	6724.8	
708.98	5455.8	
709.17	4752.7	
709.35	6204	
709.53	6265.4	
709.72	4521.9	
709.9	4676.9	
710.08	6505.7	
710.26	6571.9	
710.45	5679	
710.63	4693.3	
710.81	6197.8	
710.99	6268.8	
711.18	5214.1	
711.36	4756.1	
711.54	6173.3	
711.72	6647.7	
711.91	4927.4	
712.09	4550.6	
712.27	6258.6	
712.45	6681.8	
712.64	5036	
712.82	4402.5	
713	5919.3	
713.18	5938.4	
713.37	4440.7	
713.55	5315.8	
713.73	6576	
713.91	5616.2	
714.1	4730.8	
714.28	4354.7	
714.46	6308.4	
714.64	5726.8	
714.83	3960.8	
715.01	4485.1	
715.19	5805.3	
715.37	5229.8	
715.55	4187.4	
715.74	4397	
715.92	6391	
716.1	4872.8	
716.28	5252.4	
716.47	4576.5	
716.65	5514.5	
716.83	5576.6	
717.01	4446.1	
717.19	4386.7	
717.38	6956.9	
717.56	5219.6	
717.74	4524.6	
717.92	3938.2	
718.1	6144.6	
718.29	5565.7	
718.47	3741.6	
718.65	4179.9	
718.83	6117.3	
719.01	5974.6	
719.2	3730.7	
719.38	4472.1	
719.56	5877	
719.74	7000	
719.92	4244.1	
720.11	4988.2	
720.29	5967.8	
720.47	5329.5	
720.65	3891.1	
720.83	4514.4	
721.02	5535.7	
721.2	5455.1	
721.38	4569.7	
721.56	3968.3	
721.74	5014.8	
721.92	5157.5	
722.11	4846.2	
722.29	4663.2	
722.47	6021	
722.65	5438	
722.83	4016.1	
723.01	4577.2	
723.2	5498.1	
723.38	5721.3	
723.56	3614	
723.74	4410.6	
723.92	5131.5	
724.1	5944.6	
724.29	4007.2	
724.47	4766.3	
724.65	5361.6	
724.83	5094	
725.01	3867.9	
725.19	4515.8	
725.37	5161.6	
725.56	5141.1	
725.74	3822.9	
725.92	3943	
726.1	5184.8	
726.28	5410.1	
726.46	4301.4	
726.64	4050.9	
726.83	5462.6	
727.01	5556.1	
727.19	3831.7	
727.37	4306.2	
727.55	5517.9	
727.73	5917.3	
727.91	3818.8	
728.09	3659.7	
728.28	5875.6	
728.46	5957.5	
728.64	4418.8	
728.82	4379.9	
729	6576	
729.18	6107	
729.36	3829	
729.54	5453.7	
729.72	6840.2	
729.91	5602.6	
730.09	5267.4	
730.27	4396.3	
730.45	5551.4	
730.63	5922	
730.81	4803.2	
730.99	4105.5	
731.17	6438.8	
731.35	5384.1	
731.53	4467.3	
731.71	4288.4	
731.9	6193.7	
732.08	6207.4	
732.26	4420.9	
732.44	4128.7	
732.62	6337.8	
732.8	5949.3	
732.98	4661.9	
733.16	4021.5	
733.34	6017.6	
733.52	5017.5	
733.7	4392.9	
733.88	4534.2	
734.07	5868.8	
734.25	5669.5	
734.43	4065.2	
734.61	5115.8	
734.79	6713.9	
734.97	5575.3	
735.15	4036.5	
735.33	4353.3	
735.51	5844.2	
735.69	5621.7	
735.87	5007.3	
736.05	4446.1	
736.23	5760.3	
736.41	5494	
736.59	4265.9	
736.77	4374.5	
736.95	6031.3	
737.13	5510.4	
737.32	4106.2	
737.5	4190.1	
737.68	6450.4	
737.86	5474.2	
738.04	4018.1	
738.22	5258.5	
738.4	5414.8	
738.58	5641.5	
738.76	4421.6	
738.94	3633.1	
739.12	5466.7	
739.3	5369.1	
739.48	4806.6	
739.66	4611.3	
739.84	5709.7	
740.02	5621.7	
740.2	3736.2	
740.38	3957.4	
740.56	5961	
740.74	5010.7	
740.92	4444.1	
741.1	4330.8	
741.28	5512.4	
741.46	5367	
741.64	4076.8	
741.82	4471.4	
742	5581.4	
742.18	5440.8	
742.36	4213.4	
742.54	3990.1	
742.72	5981.4	
742.9	5006.6	
743.08	4573.1	
743.26	3649.5	
743.44	5997.8	
743.62	5842.2	
743.8	4561.5	
743.98	3938.9	
744.16	5775.3	
744.34	5472.9	
744.52	4496.7	
744.7	4481.6	
744.88	5875.6	
745.06	5447.6	
745.24	4531.5	
745.42	4655.7	
745.6	5871.5	
745.78	5705.6	
745.96	3747.8	
746.14	3874.1	
746.32	6418.3	
746.5	5793.7	
746.68	4281.6	
746.86	3898.6	
747.03	6107.7	
747.21	4950.6	
747.39	4231.8	
747.57	3906.2	
747.75	5539.1	
747.93	5864.7	
748.11	3876.8	
748.29	3855.6	
748.47	6766.5	
748.65	5322	
748.83	4437.9	
749.01	4240.7	
749.19	5778.7	
749.37	5059.2	
749.55	4120.5	
749.73	4203.8	
749.91	5497.4	
750.09	5307.7	
750.26	4203.8	
750.44	3748.5	
750.62	5468.1	
750.8	5345.2	
750.98	3770.3	
751.16	3969	
751.34	5570.5	
751.52	5039.4	
751.7	4475.5	
751.88	3629.7	
752.06	5857.9	
752.24	5643.5	
752.42	3574.4	
752.59	3964.2	
752.77	5418.2	
752.95	6322.1	
753.13	4471.4	
753.31	3915	
753.49	5163.6	
753.67	5426.4	
753.85	4189.5	
754.03	3771	
754.21	5726.1	
754.38	5890.6	
754.56	3893.9	
754.74	3297.9	
754.92	5124	
755.1	5500.2	
755.28	3300	
755.46	3339.6	
755.64	6150.1	
755.82	6219	
755.99	3501.3	
756.17	3573	
756.35	4426.3	
756.53	5500.8	
756.71	2743.6	
756.89	3355.9	
757.07	5221	
757.25	4478.2	
757.42	3798.3	
757.6	4330.8	
757.78	5241.4	
757.96	4527.4	
758.14	3593.5	
758.32	3181.2	
758.5	4184.7	
758.67	4826.4	
758.85	3492.5	
759.03	3570.3	
759.21	4946.5	
759.39	4560.1	
759.57	3080.8	
759.75	3908.2	
759.92	5457.2	
760.1	4947.9	
760.28	4185.4	
760.46	4481.6	
760.64	4754.7	
760.82	4602.5	
760.99	4158.7	
761.17	3574.4	
761.35	5376.6	
761.53	4517.1	
761.71	3549.1	
761.89	4101.4	
762.06	5246.2	
762.24	4877.6	
762.42	3637.2	
762.6	3530.7	
762.78	4884.4	
762.96	5294.7	
763.13	3950.5	
763.31	3711.6	
763.49	5412.8	
763.67	4848.2	
763.85	4246.1	
764.02	4670.1	
764.2	5631.9	
764.38	4985.4	
764.56	3578.5	
764.74	4229.7	
764.91	5730.2	
765.09	4909.7	
765.27	3432.4	
765.45	3230.3	
765.63	5786.9	
765.8	5612.1	
765.98	3130.7	
766.16	3287	
766.34	4595.6	
766.52	4387.4	
766.69	4007.2	
766.87	3165.5	
767.05	4959.5	
767.23	5478.3	
767.41	3431.7	
767.58	3569.6	
767.76	5301.5	
767.94	5395	
768.12	3469.9	
768.29	3879.5	
768.47	4872.8	
768.65	5463.3	
768.83	3192.1	
769	4037.9	
769.18	4655	
769.36	5139	
769.54	3993.5	
769.72	3187.3	
769.89	5397.8	
770.07	5451.7	
770.25	3496.6	
770.43	4388.1	
770.6	5944.6	
770.78	6100.2	
770.96	3603.1	
771.14	4028.4	
771.31	5262.6	
771.49	4870.8	
771.67	3041.2	
771.85	3143.6	
772.02	4280.3	
772.2	4820.2	
772.38	3746.4	
772.55	3340.9	
772.73	5085.8	
772.91	4894	
773.09	3627.6	
773.26	3682.9	
773.44	4999.8	
773.62	4771.8	
773.8	3250.1	
773.97	3098.6	
774.15	5027.8	
774.33	4810	
774.5	3175	
774.68	3455.6	
774.86	5154.1	
775.04	4821.6	
775.21	3279.5	
775.39	3190.7	
775.57	4980	
775.74	5173.9	
775.92	3058.3	
776.1	3037.1	
776.27	4968.4	
776.45	5796.4	
776.63	3237.8	
776.81	2966.8	
776.98	4741	
777.16	5440.1	
777.34	3353.9	
777.51	3544.4	
777.69	4717.8	
777.87	4490.5	
778.04	3466.5	
778.22	3741.6	
778.4	4600.4	
778.57	5072.1	
778.75	2869.9	
778.93	3095.2	
779.1	4463.9	
779.28	4250.2	
779.46	2835.8	
779.64	3202.3	
779.81	5118.6	
779.99	5722.7	
780.17	3725.9	
780.34	3902.1	
780.52	4745.8	
780.69	4898.1	
780.87	3480.2	
781.05	3145.7	
781.22	4841.4	
781.4	4818.9	
781.58	3211.2	
781.75	2658.9	
781.93	4833.9	
782.11	4312.3	
782.28	3876.1	
782.46	3195.5	
782.64	4237.9	
782.81	4960.2	
782.99	3320.4	
783.17	3210.5	
783.34	4838	
783.52	4351.3	
783.69	3366.9	
783.87	4048.8	
784.05	4465.9	
784.22	4373.1	
784.4	3987.4	
784.58	3502.7	
784.75	5122.7	
784.93	4474.1	
785.1	3235.8	
785.28	3697.3	
785.46	4909	
785.63	4339	
785.81	3265.8	
785.99	3109.5	
786.16	4557.4	
786.34	4777.2	
786.51	3155.2	
786.69	3439.2	
786.87	4126	
787.04	4521.9	
787.22	3047.4	
787.39	3705.5	
787.57	4406.5	
787.75	5132.2	
787.92	3864.5	
788.1	3745.7	
788.27	4360.1	
788.45	4132.8	
788.63	3632.4	
788.8	2720.4	
788.98	4725.3	
789.15	4119.8	
789.33	2814.6	
789.5	3191.4	
789.68	5066	
789.86	5103.5	
790.03	3502	
790.21	3113.6	
790.38	5139.7	
790.56	4523.3	
790.73	3106.8	
790.91	3063.8	
791.09	4402.5	
791.26	4927.4	
791.44	3249.4	
791.61	2824.8	
791.79	4389.5	
791.96	4386.7	
792.14	2940.9	
792.32	2591.4	
792.49	4394.9	
792.67	4472.8	
792.84	3009.1	
793.02	2814.6	
793.19	4769	
793.37	5232.6	
793.54	2629.6	
793.72	2887.6	
793.89	5228.5	
794.07	4362.2	
794.25	3241.9	
794.42	2682.2	
794.6	5146.5	
794.77	4835.3	
794.95	3478.1	
795.12	3132.7	
795.3	4401.1	
795.47	4805.2	
795.65	3429	
795.82	3279.5	
796	4252.9	
796.17	5537	
796.35	3166.8	
796.52	3672.7	
796.7	4828.4	
796.87	4846.9	
797.05	3198.2	
797.22	3749.1	
797.4	4849.6	
797.57	5532.2	
797.75	3248.8	
797.92	3104.7	
798.1	5094.7	
798.27	4307.6	
798.45	2751.1	
798.62	2854.2	
798.8	4619.5	
798.97	4968.4	
799.15	3427.6	
799.32	3289	
799.5	4085	
799.67	4605.2	
799.85	3570.3	
800.02	2680.1	
800.2	4382.7	
800.37	4517.1	
800.55	3579.8	
800.72	3081.5	
800.9	4920.6	
801.07	5292.6	
801.25	3997.6	
801.42	3349.1	
801.6	4969.1	
801.77	4671.4	
801.95	3170.3	
802.12	3028.9	
802.29	4746.5	
802.47	4670.7	
802.64	3380.5	
802.82	2615.9	
802.99	4399	
803.17	5008.6	
803.34	3325.9	
803.52	2979.1	
803.69	5498.1	
803.87	4147.8	
804.04	3244	
804.21	3308.8	
804.39	5179.3	
804.56	4504.8	
804.74	2833	
804.91	3388.7	
805.09	4386.7	
805.26	4381.3	
805.44	2929.3	
805.61	3150.5	
805.78	4888.5	
805.96	4826.4	
806.13	3369.6	
806.31	3571.7	
806.48	4015.4	
806.66	4415.4	
806.83	3391.4	
807	3276.1	
807.18	4358.1	
807.35	4575.8	
807.53	3258.3	
807.7	2723.1	
807.87	5167.7	
808.05	4388.1	
808.22	3534.8	
808.4	2712.9	
808.57	4351.9	
808.74	4085	
808.92	3018.7	
809.09	3657	
809.27	4377.2	
809.44	4709.6	
809.61	2727.2	
809.79	2964.1	
809.96	5300.8	
810.14	4906.9	
810.31	2653.5	
810.48	3240.6	
810.66	4427.7	
810.83	4987.5	
811.01	3085.6	
811.18	3331.4	
811.35	4887.1	
811.53	3937.6	
811.7	3566.9	
811.87	3394.8	
812.05	4549.9	
812.22	4394.9	
812.39	2930	
812.57	2882.2	
812.74	4446.8	
812.92	5599.8	
813.09	3116.3	
813.26	3410.6	
813.44	5360.9	
813.61	4287.8	
813.78	2684.2	
813.96	3435.1	
814.13	4390.2	
814.3	4200.4	
814.48	3730	
814.65	3130.7	
814.82	5214.8	
815	4164.2	
815.17	3166.8	
815.34	3820.1	
815.52	4323.9	
815.69	4334.2	
815.87	3213.3	
816.04	3149.8	
816.21	4362.2	
816.38	4018.8	
816.56	3148.4	
816.73	2975	
816.9	5469.4	
817.08	4919.2	
817.25	3034.4	
817.42	3624.2	
817.6	4079.6	
817.77	4321.9	
817.94	3314.3	
818.12	2937.5	
818.29	4227	
818.46	6029.9	
818.64	3105.4	
818.81	2879.4	
818.98	4203.8	
819.16	5700.2	
819.33	3390.1	
819.5	3241.3	
819.67	4639.3	
819.85	5109.7	
820.02	3267.2	
820.19	3343.7	
820.37	4556	
820.54	4271.4	
820.71	3236.5	
820.88	3991.5	
821.06	4542.4	
821.23	4200.4	
821.4	3279.5	
821.58	3232.4	
821.75	4872.1	
821.92	4526.7	
822.09	2729.9	
822.27	2790.7	
822.44	4394.9	
822.61	4270.7	
822.79	2693.8	
822.96	4958.8	
823.13	4670.1	
823.3	4109.6	
823.48	3085.6	
823.65	2821.4	
823.82	4979.3	
823.99	4104.8	
824.17	3887.7	
824.34	2905.4	
824.51	5544.5	
824.68	4456.4	
824.86	3016	
825.03	3258.3	
825.2	4405.9	
825.37	5074.2	
825.55	2954.5	
825.72	3248.8	
825.89	5535	
826.06	5194.3	
826.24	3181.9	
826.41	3192.1	
826.58	5150	
826.75	4600.4	
826.92	2621.4	
827.1	2810.5	
827.27	6705	
827.44	5483.8	
827.61	3019.4	
827.79	3567.6	
827.96	4246.1	
828.13	4395.6	
828.3	3132.7	
828.47	2705.4	
828.65	4667.3	
828.82	4586.8	
828.99	3938.2	
829.16	3460.4	
829.34	4891.9	
829.51	4744.5	
829.68	3200.3	
829.85	3282.9	
830.02	5221	
830.2	4851	
830.37	2550.4	
830.54	3784	
830.71	5455.8	
830.88	4438.6	
831.05	2544.3	
831.23	2966.8	
831.4	5337.7	
831.57	5720	
831.74	3037.8	
831.91	2693.1	
832.09	4686.4	
832.26	4878.3	
832.43	3093.1	
832.6	3480.2	
832.77	4633.2	
832.94	5175.2	
833.12	2529.9	
833.29	3031.7	
833.46	4739	
833.63	5909.8	
833.8	3364.8	
833.97	3042.6	
834.15	4928.8	
834.32	4786.1	
834.49	3196.9	
834.66	3296.5	
834.83	4996.4	
835	4198.3	
835.17	3006.4	
835.35	2988.7	
835.52	4828.4	
835.69	4774.5	
835.86	3169.6	
836.03	2673.3	
836.2	4896.7	
836.37	4595	
836.55	3065.8	
836.72	2921.8	
836.89	4594.3	
837.06	4954	
837.23	3108.8	
837.4	3373	
837.57	5498.1	
837.75	5939.1	
837.92	2848.7	
838.09	2999.6	
838.26	4589.5	
838.43	5063.9	
838.6	3179.1	
838.77	2945.7	
838.94	5648.3	
839.11	5524.1	
839.29	3123.8	
839.46	2468.5	
839.63	4869.4	
839.8	4663.2	
839.97	2985.9	
840.14	2943.6	
840.31	4777.2	
840.48	4894	
840.65	2574.3	
840.82	2962	
841	4852.3	
841.17	4764.9	
841.34	2787.3	
841.51	2869.9	
841.68	4876.2	
841.85	4666.6	
842.02	2889.7	
842.19	2450.7	
842.36	4800.4	
842.53	4739	
842.7	2771.6	
842.87	3327.9	
843.05	5890.6	
843.22	4668.7	
843.39	2643.2	
843.56	2941.6	
843.73	4536.9	
843.9	4995.7	
844.07	4276.2	
844.24	3579.8	
844.41	6586.3	
844.58	4320.5	
844.75	2699.9	
844.92	2896.5	
845.09	4887.1	
845.26	4892.6	
845.43	2792.7	
845.6	2990.7	
845.77	4868	
845.94	4659.8	
846.12	3097.9	
846.29	3171.6	
846.46	5068	
846.63	4888.5	
846.8	2839.8	
846.97	3226.2	
847.14	5249.6	
847.31	4848.9	
847.48	3112.9	
847.65	3383.2	
847.82	5053	
847.99	4986.8	
848.16	3647.4	
848.33	3306.8	
848.5	4513	
848.67	5177.9	
848.84	2706.7	
849.01	2848	
849.18	4490.5	
849.35	4258.4	
849.52	3421.5	
849.69	2674.6	
849.86	5081.7	
850.03	5121.3	
850.2	2757.2	
850.37	3339.6	
850.54	5109.7	
850.71	4638.6	
850.88	3264.5	
851.05	2727.2	
851.22	4751.3	
851.39	5246.9	
851.56	2652.1	
851.73	3201	
851.9	4345.8	
852.07	4960.2	
852.24	3046	
852.41	2754.5	
852.58	4801.1	
852.75	4370.4	
852.92	3057.6	
853.09	2723.8	
853.26	4517.8	
853.43	5108.3	
853.6	2803	
853.77	2433.7	
853.94	5291.3	
854.11	4349.2	
854.28	3989.4	
854.44	2982.5	
854.61	5520	
854.78	5103.5	
854.95	2715.6	
855.12	3352.5	
855.29	4040.6	
855.46	5347.2	
855.63	2805	
855.8	3717.7	
855.97	4524	
856.14	5157.5	
856.31	3767.6	
856.48	2954.5	
856.65	4522.6	
856.82	4274.8	
856.99	2682.2	
857.16	2988	
857.33	5792.3	
857.49	4646.2	
857.66	2930.6	
857.83	3082.9	
858	4606.6	
858.17	4792.2	
858.34	2645.3	
858.51	2784.6	
858.68	5266.7	
858.85	5338.4	
859.02	3173.7	
859.19	3272.7	
859.36	4373.8	
859.52	4335.5	
859.69	2779.8	
859.86	3142.3	
860.03	4336.9	
860.2	5236	
860.37	2568.8	
860.54	2824.8	
860.71	4968.4	
860.88	5353.4	
861.05	3049.4	
861.21	3390.1	
861.38	5284.4	
861.55	4205.2	
861.72	2534.7	
861.89	3091.8	
862.06	5030.5	
862.23	5343.2	
862.4	2675.3	
862.56	2820.7	
862.73	4920.6	
862.9	4680.3	
863.07	3198.2	
863.24	2575	
863.41	4284.4	
863.58	4394.9	
863.75	2824.1	
863.91	3173	
864.08	5177.3	
864.25	5006.6	
864.42	3381.2	
864.59	3746.4	
864.76	5528.8	
864.93	4369	
865.09	2725.2	
865.26	2926.5	
865.43	5231.9	
865.6	5472.9	
865.77	2500.6	
865.94	2726.5	
866.1	5157.5	
866.27	4963.6	
866.44	4031.1	
866.61	2727.9	
866.78	4621.6	
866.95	4913.8	
867.11	2693.8	
867.28	2506	
867.45	5143.1	
867.62	4380.6	
867.79	3119.1	
867.96	2788.7	
868.12	4311	
868.29	5002.5	
868.46	2760	
868.63	3592.1	
868.8	5107	
868.97	4925.4	
869.13	2851.5	
869.3	2861	
869.47	4866.7	
869.64	5119.2	
869.81	2806.4	
869.97	2776.4	
870.14	4775.9	
870.31	5242.1	
870.48	2694.4	
870.65	3437.9	
870.81	4610.7	
870.98	4622.3	
871.15	3099.3	
871.32	2863.7	
871.48	4947.2	
871.65	5322.7	
871.82	2775	
871.99	2984.6	
872.16	5646.9	
872.32	5188.9	
872.49	2845.3	
872.66	2822.8	
872.83	4949.3	
872.99	4419.5	
873.16	3160	
873.33	2748.4	
873.5	4736.3	
873.67	4783.4	
873.83	2933.4	
874	3586.7	
874.17	4848.2	
874.34	5570.5	
874.5	3510.2	
874.67	3363.4	
874.84	5214.8	
875.01	4243.4	
875.17	3762.8	
875.34	2766.8	
875.51	4770.4	
875.68	5629.2	
875.84	3292.5	
876.01	3868.6	
876.18	5010.7	
876.34	4918.5	
876.51	2789.3	
876.68	2758.6	
876.85	4580.6	
877.01	5209.3	
877.18	3832.4	
877.35	2751.8	
877.52	4764.9	
877.68	4338.3	
877.85	2745.6	
878.02	2631	
878.18	4602.5	
878.35	4497.3	
878.52	2292.4	
878.69	3020.1	
878.85	5125.4	
879.02	4997.7	
879.19	3859.7	
879.35	2970.9	
879.52	4971.8	
879.69	5015.5	
879.86	2442.5	
880.02	3014.6	
880.19	4686.4	
880.36	5517.9	
880.52	3137.5	
880.69	3226.9	
880.86	5042.1	
881.02	5112.4	
881.19	3035.8	
881.36	2951.1	
881.52	4938.3	
881.69	4396.3	
881.86	2945.7	
882.02	2936.8	
882.19	5153.4	
882.36	5892.7	
882.52	2884.9	
882.69	3804.4	
882.86	4792.2	
883.02	4762.9	
883.19	3315	
883.36	3135.4	
883.52	5028.4	
883.69	5672.2	
883.86	2788.7	
884.02	2549	
884.19	5040.1	
884.36	4795	
884.52	3087	
884.69	2953.9	
884.86	4515.1	
885.02	5406.6	
885.19	3028.3	
885.36	3147	
885.52	4683	
885.69	4876.2	
885.86	3863.8	
886.02	3452.2	
886.19	4994.3	
886.35	4556.7	
886.52	3061.7	
886.69	3759.4	
886.85	4384.7	
887.02	5280.3	
887.19	5280.3	
887.35	5280.3	
887.52	5280.3	
887.68	5280.3	
887.85	5280.3	
888.02	5280.3	
888.18	5280.3	
888.35	5280.3	
888.51	5280.3	
888.68	5280.3	
888.85	5280.3	
889.01	5280.3	
889.18	5280.3	
889.35	5280.3	
889.51	5280.3	
889.68	5280.3	
889.84	5280.3	
890.01	5280.3	
890.17	5280.3	
890.34	5280.3	
890.51	5280.3	
890.67	5280.3	
890.84	5280.3	
891	5280.3	
891.17	5280.3	
891.34	5280.3	
891.5	5280.3	
891.67	5280.3	
891.83	5280.3	
892	5280.3	
892.16	5280.3	
892.33	5280.3	
892.5	5280.3	
892.66	5280.3	
892.83	5280.3	
892.99	5280.3	
893.16	5280.3	
893.32	5280.3	
893.49	5280.3	
893.65	5280.3	
893.82	5280.3	
893.99	5280.3	
894.15	5280.3	
894.32	5280.3	
894.48	5280.3	
894.65	5280.3	
894.81	5280.3	
894.98	5280.3	
895.14	5280.3	
895.31	5280.3	
895.47	5280.3	
895.64	5280.3	
895.81	5280.3	
895.97	5280.3	
896.14	5280.3	
896.3	5280.3	
896.47	5280.3	
896.63	5280.3	
896.8	5280.3	
896.96	5280.3	
897.13	5280.3	
897.29	5280.3	
897.46	5280.3	
897.62	5280.3	
897.79	5280.3	
897.95	5280.3	
898.12	5280.3	
898.28	5280.3	
898.45	5280.3	
898.61	5280.3	
898.78	5280.3	
898.94	5280.3	
899.11	5280.3	
899.27	5280.3	
899.44	5280.3	
899.6	5280.3	
899.77	5280.3	
899.93	5280.3	
900.1	5280.3	
900.26	5280.3	
900.43	5280.3	
900.59	5280.3	
900.76	5280.3	
900.92	5280.3	
901.09	5280.3	
901.25	5280.3	
901.42	5280.3	
901.58	5280.3	
901.75	5280.3	
901.91	5280.3	
902.07	5280.3	
902.24	5280.3	
902.4	5280.3	
902.57	5280.3	
902.73	5280.3	
902.9	5280.3	
903.06	5280.3	
903.23	5280.3	
903.39	5280.3	
903.56	5280.3	
903.72	5280.3	
903.88	5280.3	
904.05	5280.3	
904.21	5280.3	
904.38	5280.3	
904.54	5280.3	
904.71	5280.3	
904.87	5280.3	
905.03	5280.3	
905.2	5280.3	
905.36	5280.3	
905.53	5280.3	
905.69	5280.3	
905.86	5280.3	
906.02	5280.3	
906.18	5280.3	
906.35	5280.3	
906.51	5280.3	
906.68	5280.3	
906.84	5280.3	
907.01	5280.3	
907.17	5280.3	
907.33	5280.3	
907.5	5280.3	
907.66	5280.3	
907.83	5280.3	
907.99	5280.3	
908.15	5280.3	
908.32	5280.3	
908.48	5280.3	
908.65	5280.3	
908.81	5280.3	
908.97	5280.3	
909.14	5280.3	
909.3	5280.3	
909.47	5280.3	
909.63	5280.3	
909.79	5280.3	
909.96	5280.3	
910.12	5280.3	
910.28	5280.3	
910.45	5280.3	
910.61	5280.3	
910.78	5280.3	
910.94	5280.3	
911.1	5280.3	
911.27	5280.3	
911.43	5280.3	
911.59	5280.3	
911.76	5280.3	
911.92	5280.3	
912.08	5280.3	
912.25	5280.3	
912.41	5280.3	
912.57	5280.3	
912.74	5280.3	
912.9	5280.3	
913.07	5280.3	
913.23	5280.3	
913.39	5280.3	
913.56	5280.3	
913.72	5280.3	
913.88	5280.3	
914.05	5280.3	
914.21	5280.3	
914.37	5280.3	
914.54	5280.3	
914.7	5280.3	
914.86	5280.3	
915.03	5280.3	
915.19	5280.3	
