Wavelength	Intensities	
nm	a.u.	
179.22	1902.6	
179.44	1893.7	
179.65	1911.4	
179.86	1875.9	
180.08	1895.1	
180.29	4773.8	
180.51	3414	
180.72	5532.9	
180.94	6492.1	
181.15	3179.1	
181.37	3129.3	
181.58	5399.8	
181.79	5692.7	
182.01	3368.9	
182.22	3581.2	
182.44	5691.3	
182.65	4778.6	
182.87	4427.7	
183.08	3914.4	
183.29	6012.8	
183.51	4969.1	
183.72	3645.4	
183.94	5258.5	
184.15	5392.3	
184.37	5341.1	
184.58	3177.1	
184.79	4392.2	
185.01	4928.1	
185.22	5686.5	
185.44	4549.9	
185.65	3915.7	
185.86	5257.8	
186.08	4847.5	
186.29	3130	
186.51	3395.5	
186.72	4995.7	
186.94	5925.5	
187.15	3848.1	
187.36	3943	
187.58	7617.8	
187.79	5444.9	
188.01	4120.5	
188.22	6365.8	
188.43	6577.4	
188.65	5722.7	
188.86	3321.1	
189.08	3919.1	
189.29	5183.4	
189.5	5196.4	
189.72	3677.5	
189.93	3740.3	
190.15	5922	
190.36	7096.9	
190.57	4022.9	
190.79	3930.1	
191	5961.6	
191.22	5956.9	
191.43	4052.9	
191.64	3314.3	
191.86	6192.4	
192.07	5802.6	
192.29	3457.7	
192.5	3738.2	
192.71	5874.9	
192.93	5114.5	
193.14	3616.7	
193.35	3691.8	
193.57	5127.4	
193.78	5937.7	
194	3018	
194.21	3605.8	
194.42	4921.3	
194.64	5371.8	
194.85	3909.6	
195.07	4635.9	
195.28	5350.7	
195.49	4687.8	
195.71	4818.9	
195.92	3418.7	
196.13	5596.4	
196.35	5656.5	
196.56	5175.9	
196.78	3975.8	
196.99	6951.5	
197.2	6544.6	
197.42	4463.2	
197.63	4012.7	
197.84	4789.5	
198.06	5547.9	
198.27	3704.1	
198.48	4876.2	
198.7	5164.3	
198.91	5232.6	
199.13	3982.6	
199.34	4013.3	
199.55	5745.2	
199.77	4663.9	
199.98	3530	
200.19	4130.8	
200.41	5290.6	
200.62	4973.2	
200.83	4151.9	
201.05	4421.6	
201.26	5314.5	
201.47	4995.7	
201.69	3517	
201.9	3407.1	
202.11	5311.7	
202.33	6285.9	
202.54	3834.5	
202.76	4280.9	
202.97	5497.4	
203.18	5524.7	
203.4	4188.1	
203.61	4154	
203.82	5416.2	
204.04	5059.8	
204.25	4077.5	
204.46	3906.2	
204.68	5363.6	
204.89	5616.2	
205.1	3883.6	
205.32	3405.8	
205.53	5783.5	
205.74	5836.7	
205.96	2917	
206.17	4095.3	
206.38	5760.9	
206.6	5852.4	
206.81	4597	
207.02	3665.9	
207.24	5629.2	
207.45	6005.3	
207.66	3804.4	
207.88	3306.8	
208.09	5543.2	
208.3	5350.7	
208.52	3537.5	
208.73	3774.4	
208.94	5375.2	
209.15	6079.7	
209.37	3831.1	
209.58	4017.4	
209.79	5909.8	
210.01	5239.4	
210.22	3075.4	
210.43	3237.8	
210.65	5373.2	
210.86	5793	
211.07	3820.8	
211.29	3446	
211.5	5769.1	
211.71	5293.3	
211.93	3510.9	
212.14	3489.7	
212.35	5283.1	
212.56	5509	
212.78	4018.1	
212.99	3319.1	
213.2	6307.7	
213.42	5081.7	
213.63	3592.8	
213.84	3863.2	
214.06	4750.6	
214.27	4838	
214.48	3781.9	
214.69	4085	
214.91	6014.2	
215.12	6117.3	
215.33	4082.3	
215.55	4545.1	
215.76	6584.2	
215.97	5760.9	
216.18	3948.5	
216.4	3871.3	
216.61	5057.1	
216.82	5795.8	
217.04	3504.1	
217.25	3661.1	
217.46	6008.7	
217.67	5763.7	
217.89	3090.4	
218.1	3287.7	
218.31	5454.4	
218.53	5565	
218.74	3733.4	
218.95	3608.5	
219.16	5311.1	
219.38	6236.1	
219.59	3610.6	
219.8	4247.5	
220.01	6901.7	
220.23	5429.8	
220.44	4617.5	
220.65	3474.7	
220.87	5365	
221.08	6022.4	
221.29	3265.1	
221.5	4341.7	
221.72	7320.8	
221.93	5100.8	
222.14	3991.5	
222.35	4781.3	
222.57	5386.8	
222.78	5718.6	
222.99	3854.3	
223.2	4120.5	
223.42	5708.4	
223.63	5791	
223.84	2954.5	
224.05	2988.7	
224.27	6805.4	
224.48	6200.6	
224.69	4805.2	
224.9	4012.7	
225.12	5582.1	
225.33	5355.4	
225.54	3246.7	
225.75	3573	
225.97	4945.8	
226.18	5196.4	
226.39	3872.7	
226.6	3605.1	
226.82	5123.3	
227.03	5016.8	
227.24	4023.6	
227.45	3310.2	
227.67	5724.8	
227.88	6350.8	
228.09	4467.3	
228.3	4474.8	
228.52	5780.1	
228.73	5313.1	
228.94	3729.4	
229.15	3337.5	
229.36	5332.9	
229.58	5214.8	
229.79	3815.4	
230	4334.2	
230.21	6363	
230.43	5453.1	
230.64	4018.1	
230.85	4136.2	
231.06	5828.5	
231.28	5784.8	
231.49	3319.1	
231.7	3919.8	
231.91	5742.5	
232.12	5422.3	
232.34	3406.5	
232.55	3950.5	
232.76	5987.6	
232.97	5534.3	
233.18	3527.3	
233.4	3953.9	
233.61	5580.7	
233.82	5129.5	
234.03	3713	
234.25	3622.2	
234.46	7421.8	
234.67	5432.6	
234.88	4036.5	
235.09	3582.6	
235.31	5651	
235.52	5274.9	
235.73	3960.8	
235.94	3330	
236.15	5151.3	
236.37	6507.1	
236.58	3547.1	
236.79	3853.6	
237	5655.8	
237.21	4854.4	
237.43	4093.9	
237.64	3227.6	
237.85	9635.7	
238.06	4936.3	
238.27	4147.8	
238.48	3304.1	
238.7	5696.8	
238.91	5250.3	
239.12	3851.5	
239.33	3875.4	
239.54	5014.1	
239.76	5325.4	
239.97	3791.5	
240.18	3803.1	
240.39	6710.5	
240.6	5676.3	
240.82	3987.4	
241.03	3245.3	
241.24	5352	
241.45	6195.1	
241.66	3498.6	
241.87	4137.6	
242.09	6035.4	
242.3	6444.3	
242.51	4166.9	
242.72	3829.7	
242.93	5797.1	
243.14	5330.2	
243.36	4446.1	
243.57	4816.8	
243.78	6242.9	
243.99	5588.2	
244.2	3886.4	
244.41	3501.3	
244.63	4960.9	
244.84	5677	
245.05	4096.6	
245.26	3879.5	
245.47	5688.6	
245.68	5909.8	
245.9	5077.6	
246.11	3990.1	
246.32	5282.4	
246.53	5626.5	
246.74	6251.8	
246.95	3265.1	
247.16	4896	
247.38	5379.3	
247.59	3155.9	
247.8	3865.2	
248.01	5067.4	
248.22	5304.2	
248.43	3473.4	
248.64	3710.2	
248.86	4731.5	
249.07	5113.8	
249.28	3366.9	
249.49	3949.2	
249.7	6001.9	
249.91	6068.1	
250.12	3194.1	
250.34	3304.1	
250.55	5449.6	
250.76	5370.5	
250.97	4003.1	
251.18	4055.7	
251.39	6052.4	
251.6	5565	
251.81	4130.1	
252.03	4048.2	
252.24	5106.3	
252.45	5842.2	
252.66	3336.1	
252.87	4233.8	
253.08	5399.1	
253.29	6989.7	
253.5	3408.5	
253.72	4680.3	
253.93	5221	
254.14	6337.8	
254.35	3673.4	
254.56	3742.3	
254.77	5582.1	
254.98	4947.2	
255.19	3661.8	
255.41	4580.6	
255.62	5489.9	
255.83	6020.3	
256.04	4160.8	
256.25	4037.2	
256.46	6582.2	
256.67	5036	
256.88	3934.1	
257.09	4416.1	
257.31	5066	
257.52	5054.4	
257.73	4861.2	
257.94	3618.8	
258.15	5231.9	
258.36	5401.2	
258.57	4583.4	
258.78	2919.7	
258.99	5862	
259.2	5188.9	
259.41	3667.2	
259.63	3756.7	
259.84	6241.5	
260.05	6652.5	
260.26	4816.8	
260.47	3564.1	
260.68	5920.7	
260.89	5255.8	
261.1	4417.5	
261.31	3475.4	
261.52	5971.9	
261.73	6343.9	
261.95	4728.1	
262.16	4100.7	
262.37	6079.7	
262.58	6180.1	
262.79	4711.7	
263	3718.4	
263.21	5382.7	
263.42	4945.2	
263.63	3817.4	
263.84	3715	
264.05	5912.5	
264.26	6347.3	
264.47	4607.9	
264.69	4171	
264.9	6004.6	
265.11	5547.9	
265.32	3596.2	
265.53	3718.4	
265.74	5429.8	
265.95	4784.1	
266.16	3902.1	
266.37	4314.4	
266.58	5528.8	
266.79	5221	
267	3636.5	
267.21	3408.5	
267.42	4939	
267.63	5413.5	
267.84	3809.9	
268.06	3309.5	
268.27	5809.4	
268.48	6034.7	
268.69	3762.8	
268.9	4447.5	
269.11	6030.6	
269.32	4870.1	
269.53	3793.5	
269.74	3543.7	
269.95	5723.4	
270.16	4790.2	
270.37	3897.3	
270.58	4453.6	
270.79	5216.2	
271	5879.7	
271.21	4155.3	
271.42	3865.2	
271.63	5504.3	
271.84	5025.7	
272.05	3084.9	
272.26	3481.5	
272.47	5380.7	
272.68	5578.7	
272.89	3693.2	
273.11	4277.5	
273.32	5221.6	
273.53	6275.7	
273.74	4150.5	
273.95	4040.6	
274.16	6025.1	
274.37	5485.8	
274.58	4242	
274.79	3335.5	
275	5456.5	
275.21	5958.9	
275.42	5065.3	
275.63	4349.9	
275.84	5623	
276.05	7097.6	
276.26	4104.8	
276.47	3778.5	
276.68	5208.7	
276.89	6386.2	
277.1	4377.9	
277.31	3396.9	
277.52	5621	
277.73	5823.7	
277.94	3402.4	
278.15	3701.4	
278.36	5577.3	
278.57	5039.4	
278.78	3719.8	
278.99	4127.3	
279.2	5008.6	
279.41	4968.4	
279.62	4833.2	
279.83	3424.9	
280.04	6617.7	
280.25	4928.8	
280.46	4842.8	
280.67	3919.8	
280.88	5029.8	
281.09	6105.7	
281.3	4007.9	
281.51	5139.7	
281.72	5896.8	
281.93	5868.1	
282.14	3621.5	
282.35	3845.4	
282.56	5879	
282.77	5822.4	
282.98	3669.3	
283.19	4572.4	
283.4	7127.6	
283.61	5316.5	
283.82	3323.9	
284.03	4801.1	
284.24	5496.1	
284.45	5971.9	
284.66	4799.1	
284.87	4571.1	
285.08	5934.3	
285.29	6107	
285.5	3281.5	
285.71	3773.7	
285.92	5998.5	
286.12	6623.1	
286.33	4724.7	
286.54	3727.3	
286.75	5840.1	
286.96	5236	
287.17	3439.2	
287.38	4640	
287.59	5011.4	
287.8	4952.7	
288.01	3824.2	
288.22	4349.2	
288.43	5834.7	
288.64	4934.9	
288.85	4446.8	
289.06	4291.9	
289.27	5803.3	
289.48	6272.2	
289.69	4778.6	
289.9	4358.1	
290.11	6080.4	
290.32	5115.1	
290.53	4601.1	
290.74	4149.9	
290.94	5819.6	
291.15	5871.5	
291.36	3640.6	
291.57	4302.8	
291.78	5144.5	
291.99	4854.4	
292.2	3467.9	
292.41	4179.2	
292.62	5922	
292.83	5679	
293.04	5118.6	
293.25	3468.6	
293.46	5148.6	
293.67	5913.2	
293.88	3581.2	
294.09	3508.2	
294.29	4965.6	
294.5	5569.8	
294.71	3898	
294.92	3663.1	
295.13	5163.6	
295.34	6472.9	
295.55	3226.2	
295.76	3345.7	
295.97	5824.4	
296.18	6539.8	
296.39	3433.1	
296.6	3612.6	
296.81	5487.2	
297.01	5796.4	
297.22	3766.2	
297.43	3553.9	
297.64	5098.1	
297.85	5044.8	
298.06	3050.8	
298.27	3278.1	
298.48	5455.1	
298.69	5114.5	
298.9	3892.5	
299.11	3549.1	
299.31	4930.8	
299.52	4878.9	
299.73	4186	
299.94	4103.4	
300.15	5406	
300.36	5063.3	
300.57	4127.3	
300.78	4152.6	
300.99	5244.8	
301.2	5537	
301.4	3599	
301.61	3948.5	
301.82	5768.4	
302.03	5827.8	
302.24	4378.6	
302.45	3492.5	
302.66	5681.7	
302.87	6087.9	
303.08	3633.8	
303.29	4941.1	
303.49	5164.3	
303.7	5425.1	
303.91	3186	
304.12	4695.3	
304.33	4963.6	
304.54	5520.6	
304.75	3637.2	
304.96	3414	
305.16	5715.2	
305.37	6465.4	
305.58	3212.6	
305.79	3277.4	
306	5737	
306.21	4837.3	
306.42	3577.8	
306.63	5496.1	
306.83	5228.5	
307.04	5988.3	
307.25	3987.4	
307.46	4047.5	
307.67	4639.3	
307.88	5800.5	
308.09	3596.9	
308.29	3695.2	
308.5	5476.3	
308.71	5962.3	
308.92	3842.7	
309.13	3485	
309.34	5340.4	
309.55	5367.7	
309.75	4472.1	
309.96	4204.5	
310.17	5785.5	
310.38	5117.9	
310.59	4386.7	
310.8	4074.8	
311.01	5610.8	
311.21	5248.9	
311.42	3455.6	
311.63	3562.1	
311.84	5136.3	
312.05	5522.7	
312.26	4040	
312.46	4440.7	
312.67	5242.8	
312.88	4896	
313.09	3492.5	
313.3	3418.1	
313.51	6156.9	
313.71	6541.9	
313.92	3454.2	
314.13	3712.3	
314.34	5605.3	
314.55	5271.5	
314.76	4516.5	
314.96	3914.4	
315.17	5501.5	
315.38	5800.5	
315.59	3528.7	
315.8	3334.1	
316.01	6224.5	
316.21	6277.7	
316.42	3424.2	
316.63	3873.4	
316.84	5243.5	
317.05	6046.3	
317.26	4117.8	
317.46	3710.9	
317.67	5301.5	
317.88	5764.3	
318.09	4465.9	
318.3	3252.2	
318.5	5093.3	
318.71	5725.4	
318.92	5680.4	
319.13	4128.7	
319.34	5949.3	
319.54	5995.8	
319.75	3270.6	
319.96	3150.5	
320.17	5808.7	
320.38	5999.9	
320.58	3162.1	
320.79	3849.5	
321	5930.9	
321.21	6140.5	
321.42	3865.9	
321.62	3209.2	
321.83	5049.6	
322.04	5425.8	
322.25	3743	
322.46	3534.1	
322.66	5500.2	
322.87	5659.2	
323.08	4297.3	
323.29	3469.3	
323.5	6440.9	
323.7	4980	
323.91	4768.4	
324.12	4255.7	
324.33	5425.8	
324.53	5697.4	
324.74	4113	
324.95	4323.9	
325.16	4812	
325.37	5193	
325.57	3522.5	
325.78	3584.6	
325.99	5461.2	
326.2	4916.5	
326.4	5071.5	
326.61	3262.4	
326.82	5394.3	
327.03	5461.9	
327.24	5004.6	
327.44	4752	
327.65	5696.8	
327.86	4515.8	
328.07	4186.7	
328.27	3379.1	
328.48	6059.3	
328.69	4958.1	
328.9	5104.9	
329.1	3788.7	
329.31	5244.2	
329.52	6153.5	
329.73	3497.9	
329.93	3964.9	
330.14	5395	
330.35	5681.7	
330.56	5732.3	
330.76	4308.2	
330.97	5239.4	
331.18	5589.6	
331.39	3927.3	
331.59	3178.4	
331.8	6014.9	
332.01	6140.5	
332.22	3597.6	
332.42	4182	
332.63	5541.1	
332.84	5104.2	
333.05	3903.4	
333.25	3635.1	
333.46	5217.5	
333.67	5461.2	
333.88	3672	
334.08	4119.1	
334.29	7218.4	
334.5	6015.6	
334.7	3446.7	
334.91	5005.2	
335.12	4949.3	
335.33	5740.5	
335.53	3870	
335.74	5693.4	
335.95	5192.3	
336.16	4978.6	
336.36	3830.4	
336.57	4438.6	
336.78	4903.5	
336.98	5962.3	
337.19	4706.9	
337.4	3865.2	
337.61	6471.6	
337.81	4955.4	
338.02	3573	
338.23	4625	
338.43	6195.8	
338.64	5036	
338.85	3551.9	
339.05	4626.4	
339.26	6178.7	
339.47	4817.5	
339.68	3594.9	
339.88	5247.6	
340.09	5603.9	
340.3	5884.5	
340.5	4096.6	
340.71	3226.9	
340.92	4860.5	
341.13	6103.6	
341.33	3444	
341.54	4116.4	
341.75	5612.8	
341.95	5308.3	
342.16	4006.5	
342.37	4336.9	
342.57	4988.2	
342.78	5345.9	
342.99	4416.8	
343.19	3160	
343.4	5810.8	
343.61	5664.7	
343.81	3771.7	
344.02	3459.7	
344.23	5877.7	
344.43	6195.8	
344.64	4419.5	
344.85	4272.7	
345.06	5696.1	
345.26	6031.3	
345.47	4098.7	
345.68	4717.8	
345.88	4821.6	
346.09	5859.9	
346.3	4209.9	
346.5	3134.8	
346.71	5360.9	
346.92	5154.1	
347.12	3193.5	
347.33	4078.2	
347.54	5935.7	
347.74	6303.6	
347.95	4100	
348.16	3031	
348.36	5186.1	
348.57	4932.9	
348.78	4027.7	
348.98	4328	
349.19	5369.8	
349.39	4878.9	
349.6	3244.7	
349.81	3571.7	
350.01	5630.5	
350.22	5081	
350.43	3918.4	
350.63	4743.8	
350.84	5464.7	
351.05	5260.5	
351.25	3588	
351.46	3236.5	
351.67	6010.8	
351.87	5078.3	
352.08	3850.2	
352.29	4303.5	
352.49	5871.5	
352.7	5899.5	
352.9	3427.6	
353.11	4317.8	
353.32	6513.9	
353.52	5232.6	
353.73	3364.1	
353.94	4374.5	
354.14	5682.4	
354.35	5510.4	
354.55	3528	
354.76	3919.1	
354.97	5678.3	
355.17	5392.3	
355.38	3277.4	
355.59	4701.5	
355.79	5072.1	
356	5484.5	
356.2	3844	
356.41	3453.6	
356.62	4835.3	
356.82	5300.1	
357.03	4186	
357.24	3803.1	
357.44	5130.2	
357.65	5259.9	
357.85	4975.9	
358.06	3959.4	
358.27	4881.7	
358.47	5118.6	
358.68	3302.7	
358.88	4184.7	
359.09	5661.3	
359.3	6062.7	
359.5	4856.4	
359.71	4323.9	
359.91	6471.6	
360.12	5846.3	
360.33	4129.4	
360.53	4644.8	
360.74	5180.7	
360.94	5218.9	
361.15	4360.1	
361.36	3609.2	
361.56	5936.4	
361.77	5361.6	
361.97	4838	
362.18	3783.3	
362.38	5919.3	
362.59	4965.6	
362.8	3529.3	
363	3343	
363.21	4841.4	
363.41	5485.8	
363.62	4078.9	
363.83	5042.8	
364.03	5523.4	
364.24	6495.5	
364.44	5116.5	
364.65	5122	
364.85	5292.6	
365.06	5180.7	
365.27	3683.6	
365.47	3767.6	
365.68	6261.3	
365.88	5281	
366.09	4126	
366.29	3781.2	
366.5	5574.6	
366.71	5994.4	
366.91	5102.2	
367.12	4326.7	
367.32	6590.4	
367.53	5863.3	
367.73	4182.6	
367.94	5209.3	
368.14	5829.2	
368.35	6659.3	
368.56	4167.6	
368.76	4052.2	
368.97	5870.8	
369.17	7584.3	
369.38	3752.6	
369.58	3990.8	
369.79	4971.1	
369.99	6276.3	
370.2	4973.8	
370.4	4130.1	
370.61	5629.9	
370.82	6817	
371.02	4050.9	
371.23	3292.5	
371.43	4885.8	
371.64	6206.7	
371.84	4003.8	
372.05	5227.8	
372.25	7523.6	
372.46	5969.8	
372.66	4016.1	
372.87	3945.1	
373.07	5982.1	
373.28	7557.7	
373.48	5029.8	
373.69	4747.2	
373.9	5449	
374.1	5500.8	
374.31	5004.6	
374.51	4504.8	
374.72	6296.1	
374.92	5145.9	
375.13	5164.3	
375.33	4319.8	
375.54	5890.6	
375.74	5285.8	
375.95	4368.3	
376.15	5627.1	
376.36	5941.2	
376.56	5728.2	
376.77	4532.2	
376.97	4891.2	
377.18	6933.7	
377.38	5960.3	
377.59	5229.8	
377.79	4007.9	
378	5753.4	
378.2	6230.6	
378.41	4091.2	
378.61	3956.7	
378.82	6197.2	
379.02	5389.6	
379.23	4215.4	
379.43	5358.9	
379.64	6304.3	
379.84	6014.2	
380.05	4102.8	
380.25	3966.2	
380.46	6083.1	
380.66	5720.7	
380.87	5372.5	
381.07	5709.1	
381.28	6712.6	
381.48	6097.5	
381.69	4114.4	
381.89	4128.7	
382.1	5059.2	
382.3	6302.3	
382.51	5209.3	
382.71	6144.6	
382.91	5991.7	
383.12	6531.7	
383.32	4454.3	
383.53	4646.8	
383.73	5838.8	
383.94	5730.9	
384.14	4526	
384.35	3713	
384.55	5629.9	
384.76	6107.7	
384.96	4523.3	
385.17	4775.2	
385.37	6123.4	
385.58	5371.1	
385.78	4806.6	
385.98	3652.2	
386.19	5584.8	
386.39	5970.5	
386.6	4233.8	
386.8	4496	
387.01	6092.7	
387.21	6106.4	
387.42	4885.8	
387.62	5481	
387.83	5461.9	
388.03	6060.6	
388.23	4553.3	
388.44	5293.3	
388.64	5175.2	
388.85	5283.1	
389.05	4891.9	
389.26	5482.4	
389.46	7129.7	
389.67	6574.7	
389.87	4831.8	
390.07	4898.1	
390.28	5791.7	
390.48	5379.3	
390.69	4139.6	
390.89	4412.7	
391.1	5601.9	
391.3	6496.2	
391.5	5578.7	
391.71	6218.3	
391.91	6191	
392.12	7204.8	
392.32	5713.8	
392.53	4871.4	
392.73	5625.1	
392.93	5788.2	
393.14	4581.3	
393.34	5308.3	
393.55	6240.2	
393.75	5807.4	
393.95	4614.1	
394.16	4608.6	
394.36	5588.2	
394.57	6256.5	
394.77	4074.8	
394.98	4526	
395.18	5573.2	
395.38	5728.2	
395.59	5437.4	
395.79	4334.9	
396	5661.3	
396.2	6156.2	
396.4	5240.1	
396.61	5113.1	
396.81	6402	
397.02	5665.4	
397.22	5449	
397.42	5462.6	
397.63	6293.4	
397.83	5677.7	
398.04	4290.5	
398.24	4870.8	
398.44	6123.4	
398.65	5273.5	
398.85	4186.7	
399.05	4332.8	
399.26	5634.6	
399.46	7341.3	
399.67	4739	
399.87	4480.3	
400.07	6004.6	
400.28	6402	
400.48	4635.2	
400.69	5648.3	
400.89	6523.5	
401.09	6997.2	
401.3	4407.2	
401.5	5589.6	
401.7	7223.2	
401.91	7469.6	
402.11	4749.2	
402.32	4859.1	
402.52	6539.8	
402.72	6403.3	
402.93	5131.5	
403.13	4001.7	
403.33	7361.8	
403.54	6057.2	
403.74	4930.8	
403.94	5880.4	
404.15	6218.3	
404.35	7335.1	
404.56	4752	
404.76	6602	
404.96	6574	
405.17	6294.8	
405.37	6020.3	
405.57	5282.4	
405.78	6578.1	
405.98	6063.4	
406.18	4751.3	
406.39	5625.1	
406.59	6575.3	
406.79	6249	
407	4631.1	
407.2	4734.9	
407.4	6760.3	
407.61	6954.9	
407.81	4754	
408.01	6890	
408.22	5737.7	
408.42	7663.5	
408.62	5923.4	
408.83	5373.9	
409.03	6376	
409.23	6191.7	
409.44	5492.7	
409.64	5801.2	
409.84	7350.2	
410.05	7299.6	
410.25	5696.8	
410.45	5401.2	
410.66	6765.8	
410.86	9331.2	
411.06	5855.8	
411.27	5751.4	
411.47	9020.6	
411.67	6995.9	
411.88	6029.9	
412.08	6365.1	
412.28	7636.2	
412.49	8105.9	
412.69	5806	
412.89	5807.4	
413.09	7931.1	
413.3	7833.5	
413.5	5893.4	
413.7	5498.1	
413.91	7120.8	
414.11	8027.4	
414.31	5757.5	
414.52	6330.3	
414.72	7656.7	
414.92	7613	
415.12	5865.4	
415.33	6314.6	
415.53	7989.8	
415.73	8252.6	
415.94	6730.3	
416.14	6214.2	
416.34	7016.3	
416.55	6812.9	
416.75	7382.2	
416.95	6875	
417.15	8039.6	
417.36	8763.3	
417.56	7516	
417.76	6677.7	
417.97	8449.9	
418.17	8144.8	
418.37	6161	
418.57	6300.9	
418.78	7813	
418.98	7470.3	
419.18	7130.3	
419.38	7038.9	
419.59	7644.4	
419.79	7221.8	
419.99	6200.6	
420.2	6554.2	
420.4	8189.1	
420.6	8314.1	
420.8	6072.9	
421.01	5967.8	
421.21	7927.7	
421.41	8118.8	
421.61	6494.8	
421.82	6113.9	
422.02	7471.7	
422.22	8381.7	
422.42	6991.8	
422.63	6606.7	
422.83	7553.6	
423.03	8781	
423.23	6724.8	
423.44	5649	
423.64	7705.1	
423.84	7397.3	
424.04	6113.9	
424.25	5782.1	
424.45	8581	
424.65	8554.4	
424.85	5630.5	
425.06	6155.5	
425.26	8500.4	
425.46	7557	
425.66	6614.3	
425.87	6329.6	
426.07	8337.3	
426.27	8169.3	
426.47	6528.9	
426.67	5829.2	
426.88	8699.8	
427.08	8105.9	
427.28	6696.2	
427.48	5752.7	
427.69	7021.8	
427.89	7696.9	
428.09	6698.9	
428.29	5821	
428.5	8457.4	
428.7	7941.3	
428.9	5859.9	
429.1	6412.2	
429.3	7868.3	
429.51	8305.9	
429.71	6072.9	
429.91	6903	
430.11	8137.3	
430.31	8461.5	
430.52	6409.5	
430.72	6742.6	
430.92	8797.4	
431.12	8239.7	
431.32	6124.1	
431.53	6557.6	
431.73	7238.9	
431.93	8880.7	
432.13	6122.7	
432.33	6043.6	
432.54	7682.6	
432.74	8062.2	
432.94	5948.7	
433.14	6969.9	
433.34	8247.2	
433.55	7881.3	
433.75	6995.9	
433.95	8781	
434.15	8028	
434.35	7821.9	
434.56	6184.9	
434.76	5734.3	
434.96	8082	
435.16	8358.4	
435.36	6070.9	
435.56	7320.1	
435.77	7788.4	
435.97	7929.1	
436.17	7910.6	
436.37	7202	
436.57	7748.8	
436.78	7653.9	
436.98	8909.3	
437.18	7731.1	
437.38	8464.3	
437.58	7892.2	
437.78	7808.2	
437.99	6511.2	
438.19	8330.5	
438.39	9273.2	
438.59	6539.2	
438.79	6057.9	
438.99	9245.9	
439.2	8118.8	
439.4	6264.7	
439.6	6194.4	
439.8	8482.7	
440	9472.5	
440.2	7243.7	
440.4	7438.9	
440.61	8824	
440.81	9316.2	
441.01	6445	
441.21	7362.4	
441.41	9301.2	
441.61	8720.3	
441.81	7776.8	
442.02	8769.4	
442.22	9777.7	
442.42	9000.1	
442.62	6666.1	
442.82	6754.2	
443.02	9333.3	
443.22	8476.5	
443.43	7103.7	
443.63	6688.7	
443.83	8206.2	
444.03	8320.2	
444.23	7999.4	
444.43	7525.6	
444.63	8539.3	
444.83	9814.5	
445.04	6774.7	
445.24	8040.3	
445.44	8791.2	
445.64	9046.6	
445.84	7499	
446.04	7523.6	
446.24	8341.4	
446.44	9340.8	
446.65	6830	
446.85	7204.8	
447.05	8469.7	
447.25	9258.2	
447.45	7369.3	
447.65	6589.7	
447.85	8692.3	
448.05	8335.9	
448.25	7763.8	
448.46	7550.9	
448.66	8746.2	
448.86	8439	
449.06	6545.3	
449.26	7733.8	
449.46	9146.2	
449.66	8131.1	
449.86	7353.6	
450.06	7237.5	
450.26	8374.8	
450.47	9061.6	
450.67	7574.8	
450.87	7942	
451.07	9118.9	
451.27	8871.8	
451.47	6842.3	
451.67	7537.2	
451.87	8618.5	
452.07	9661	
452.27	7214.3	
452.47	7115.3	
452.67	8833.6	
452.88	9521	
453.08	6542.6	
453.28	8569.4	
453.48	10240	
453.68	8867	
453.88	7201.3	
454.08	7481.2	
454.28	9477.3	
454.48	9108	
454.68	7983.7	
454.88	8489.5	
455.08	9522.4	
455.28	9353.8	
455.48	7024.5	
455.68	7813	
455.89	10059	
456.09	9715.6	
456.29	7587.7	
456.49	7694.9	
456.69	10135	
456.89	9300.5	
457.09	8218.5	
457.29	8637	
457.49	9723.1	
457.69	9865.1	
457.89	8183.7	
458.09	7474.4	
458.29	9583.1	
458.49	10210	
458.69	8572.1	
458.89	8110	
459.09	10526	
459.29	10658	
459.49	8062.2	
459.69	8991.9	
459.9	10001	
460.1	9783.1	
460.3	7992.5	
460.5	7903.8	
460.7	10178	
460.9	9862.3	
461.1	7647.8	
461.3	8951	
461.5	10943	
461.7	10503	
461.9	8266.3	
462.1	8567.3	
462.3	10116	
462.5	10677	
462.7	8329.8	
462.9	8509.3	
463.1	11725	
463.3	11522	
463.5	8699.8	
463.7	9777.7	
463.9	10360	
464.1	10726	
464.3	8925	
464.5	8964.6	
464.7	11140	
464.9	10915	
465.1	10576	
465.3	9630.9	
465.5	11448	
465.7	11463	
465.9	9858.2	
466.1	9582.4	
466.3	11434	
466.5	11235	
466.7	10718	
466.9	9452.1	
467.1	11314	
467.3	12129	
467.5	10752	
467.7	9569.5	
467.9	12393	
468.1	13287	
468.3	10203	
468.5	10742	
468.7	11284	
468.9	11265	
469.1	9784.5	
469.3	10691	
469.5	13236	
469.7	10886	
469.9	10210	
470.1	9641.8	
470.3	11277	
470.5	11257	
470.7	10840	
470.9	9642.5	
471.1	11141	
471.3	11417	
471.5	9586.5	
471.69	11511	
471.89	10964	
472.09	10422	
472.29	10286	
472.49	10593	
472.69	10816	
472.89	11611	
473.09	9450	
473.29	9405.6	
473.49	10944	
473.69	11011	
473.89	10542	
474.09	9708.7	
474.29	12341	
474.49	11886	
474.69	10552	
474.89	9826.2	
475.09	11065	
475.29	11056	
475.49	9215.9	
475.69	9553.8	
475.88	12503	
476.08	11331	
476.28	9146.9	
476.48	9584.5	
476.68	11764	
476.88	11630	
477.08	9514.2	
477.28	9925.1	
477.48	11163	
477.68	11755	
477.88	9338.1	
478.08	9645.3	
478.28	12170	
478.48	11259	
478.67	9710.8	
478.87	9172.9	
479.07	12046	
479.27	11361	
479.47	9950.4	
479.67	9938.8	
479.87	11871	
480.07	12356	
480.27	9387.9	
480.47	10878	
480.67	11391	
480.87	12164	
481.06	9601.6	
481.26	10370	
481.46	11449	
481.66	11448	
481.86	10130	
482.06	11150	
482.26	11314	
482.46	12338	
482.66	10078	
482.86	9764.7	
483.05	11791	
483.25	11053	
483.45	12620	
483.65	10189	
483.85	11330	
484.05	11569	
484.25	10658	
484.45	11256	
484.65	12505	
484.84	12662	
485.04	10215	
485.24	10238	
485.44	12858	
485.64	11237	
485.84	9663	
486.04	11094	
486.24	11682	
486.44	12069	
486.63	9653.4	
486.83	10529	
487.03	11789	
487.23	12015	
487.43	9837.1	
487.63	12137	
487.83	12048	
488.02	13180	
488.22	10833	
488.42	11609	
488.62	12906	
488.82	11918	
489.02	10522	
489.22	10815	
489.41	12754	
489.61	12588	
489.81	10236	
490.01	10289	
490.21	12747	
490.41	13256	
490.61	10213	
490.8	10302	
491	12133	
491.2	11415	
491.4	11049	
491.6	10234	
491.8	12344	
491.99	12480	
492.19	10270	
492.39	10728	
492.59	13044	
492.79	13220	
492.99	11613	
493.18	10772	
493.38	13195	
493.58	14203	
493.78	11559	
493.98	11148	
494.18	13136	
494.37	12761	
494.57	12116	
494.77	11869	
494.97	13596	
495.17	13923	
495.37	11586	
495.56	11981	
495.76	14111	
495.96	13791	
496.16	12692	
496.36	11725	
496.55	13956	
496.75	13529	
496.95	12277	
497.15	12019	
497.35	14055	
497.54	14117	
497.74	12020	
497.94	13787	
498.14	14857	
498.34	14698	
498.53	11738	
498.73	12667	
498.93	13777	
499.13	14340	
499.33	12478	
499.52	12951	
499.72	14321	
499.92	14539	
500.12	12187	
500.32	12550	
500.51	14361	
500.71	14446	
500.91	13338	
501.11	12816	
501.31	14499	
501.5	14881	
501.7	13495	
501.9	12441	
502.1	14151	
502.29	14446	
502.49	12972	
502.69	13159	
502.89	14267	
503.09	14285	
503.28	11726	
503.48	12039	
503.68	13474	
503.88	13566	
504.07	12927	
504.27	12271	
504.47	13874	
504.67	13981	
504.86	12797	
505.06	12402	
505.26	13429	
505.46	15268	
505.65	12220	
505.85	12626	
506.05	13278	
506.25	13945	
506.44	11535	
506.64	12483	
506.84	13319	
507.04	13981	
507.23	11662	
507.43	12251	
507.63	15043	
507.83	13304	
508.02	12076	
508.22	11852	
508.42	15357	
508.62	13187	
508.81	12008	
509.01	12904	
509.21	13128	
509.4	13568	
509.6	12530	
509.8	11811	
510	13439	
510.19	14962	
510.39	11779	
510.59	11847	
510.79	13280	
510.98	14621	
511.18	11853	
511.38	11966	
511.57	14042	
511.77	13951	
511.97	12698	
512.17	11714	
512.36	14115	
512.56	14048	
512.76	11884	
512.95	11585	
513.15	14390	
513.35	12962	
513.55	12892	
513.74	11934	
513.94	14343	
514.14	13736	
514.33	13023	
514.53	12743	
514.73	13646	
514.92	14041	
515.12	12476	
515.32	12308	
515.51	14183	
515.71	14790	
515.91	13930	
516.11	12329	
516.3	15829	
516.5	13799	
516.7	12655	
516.89	13372	
517.09	13891	
517.29	13768	
517.48	13361	
517.68	12538	
517.88	13751	
518.07	14449	
518.27	13010	
518.47	12131	
518.66	14838	
518.86	13719	
519.06	12005	
519.25	12501	
519.45	13908	
519.65	15299	
519.84	12972	
520.04	13622	
520.24	15560	
520.43	14347	
520.63	12591	
520.83	12426	
521.02	13686	
521.22	14328	
521.42	13036	
521.61	13699	
521.81	14124	
522.01	14278	
522.2	13159	
522.4	12926	
522.6	15119	
522.79	13828	
522.99	13080	
523.18	12679	
523.38	14924	
523.58	15033	
523.77	14769	
523.97	12743	
524.17	17035	
524.36	16085	
524.56	14246	
524.76	13908	
524.95	15420	
525.15	14917	
525.34	13871	
525.54	13788	
525.74	15650	
525.93	14771	
526.13	15124	
526.33	13972	
526.52	16166	
526.72	15730	
526.91	15242	
527.11	14659	
527.31	16502	
527.5	16728	
527.7	14646	
527.89	13661	
528.09	15343	
528.29	16208	
528.48	15038	
528.68	14804	
528.87	16513	
529.07	16301	
529.27	14457	
529.46	13800	
529.66	15611	
529.85	16072	
530.05	13539	
530.25	14319	
530.44	17395	
530.64	15845	
530.83	14507	
531.03	14820	
531.23	16703	
531.42	16630	
531.62	15843	
531.81	14948	
532.01	17019	
532.21	17500	
532.4	14939	
532.6	15295	
532.79	17947	
532.99	17263	
533.18	15432	
533.38	16316	
533.58	16852	
533.77	17660	
533.97	15503	
534.16	16274	
534.36	17851	
534.55	16985	
534.75	16346	
534.95	15495	
535.14	17702	
535.34	16782	
535.53	15153	
535.73	16971	
535.92	18117	
536.12	17037	
536.31	15236	
536.51	16566	
536.71	17314	
536.9	17039	
537.1	15511	
537.29	15890	
537.49	17873	
537.68	16956	
537.88	16227	
538.07	15319	
538.27	17385	
538.46	18372	
538.66	15309	
538.86	15702	
539.05	17239	
539.25	17664	
539.44	15903	
539.64	15382	
539.83	16984	
540.03	18056	
540.22	15332	
540.42	15298	
540.61	17148	
540.81	17351	
541	15718	
541.2	16524	
541.39	16543	
541.59	17181	
541.78	16126	
541.98	14904	
542.18	16203	
542.37	16152	
542.57	15196	
542.76	15989	
542.96	16199	
543.15	16724	
543.35	15154	
543.54	14698	
543.74	16951	
543.93	16670	
544.13	15165	
544.32	16279	
544.52	16894	
544.71	16169	
544.91	14279	
545.1	15472	
545.3	16218	
545.49	16841	
545.69	14274	
545.88	14798	
546.08	17836	
546.27	17288	
546.47	15357	
546.66	14521	
546.86	17038	
547.05	17618	
547.24	14864	
547.44	14794	
547.63	15919	
547.83	17083	
548.02	15106	
548.22	15114	
548.41	15716	
548.61	17027	
548.8	14493	
549	14538	
549.19	16202	
549.39	16698	
549.58	14049	
549.78	14696	
549.97	16628	
550.17	16075	
550.36	15537	
550.55	16496	
550.75	16200	
550.94	17111	
551.14	14360	
551.33	14681	
551.53	15602	
551.72	16537	
551.92	14805	
552.11	14568	
552.31	16482	
552.5	16639	
552.69	16143	
552.89	14094	
553.08	16438	
553.28	16225	
553.47	14598	
553.67	15661	
553.86	17150	
554.06	15479	
554.25	13632	
554.44	14425	
554.64	17812	
554.83	17234	
555.03	14323	
555.22	14584	
555.42	16556	
555.61	16277	
555.8	14450	
556	14719	
556.19	15610	
556.39	16726	
556.58	14459	
556.78	14592	
556.97	16329	
557.16	15964	
557.36	15793	
557.55	14146	
557.75	15063	
557.94	17124	
558.13	14065	
558.33	13932	
558.52	16847	
558.72	15522	
558.91	13949	
559.1	14164	
559.3	15265	
559.49	14895	
559.69	13623	
559.88	14519	
560.07	16018	
560.27	16460	
560.46	14690	
560.66	14873	
560.85	15831	
561.04	15021	
561.24	13959	
561.43	14152	
561.63	15324	
561.82	15671	
562.01	15569	
562.21	14666	
562.4	16171	
562.59	17249	
562.79	14515	
562.98	14229	
563.18	16130	
563.37	17659	
563.56	14937	
563.76	14119	
563.95	15632	
564.14	15541	
564.34	14662	
564.53	14300	
564.73	16294	
564.92	16804	
565.11	14783	
565.31	14260	
565.5	16894	
565.69	15797	
565.89	14370	
566.08	14751	
566.27	16666	
566.47	17215	
566.66	15289	
566.85	14147	
567.05	16393	
567.24	15872	
567.44	14267	
567.63	15804	
567.82	16492	
568.02	16432	
568.21	14414	
568.4	14873	
568.6	16459	
568.79	16394	
568.98	14330	
569.18	14627	
569.37	16247	
569.56	18285	
569.76	14678	
569.95	15769	
570.14	16541	
570.34	16502	
570.53	14213	
570.72	14237	
570.91	17199	
571.11	16127	
571.3	14713	
571.49	15690	
571.69	16449	
571.88	15852	
572.07	15327	
572.27	15290	
572.46	15984	
572.65	16893	
572.85	14733	
573.04	15190	
573.23	17417	
573.43	16697	
573.62	14762	
573.81	15449	
574	16741	
574.2	16632	
574.39	15116	
574.58	15384	
574.78	17721	
574.97	17075	
575.16	15617	
575.36	16088	
575.55	17417	
575.74	17670	
575.93	14767	
576.13	16098	
576.32	16707	
576.51	17490	
576.71	15251	
576.9	16748	
577.09	17775	
577.28	17298	
577.48	15937	
577.67	15008	
577.86	17130	
578.05	17500	
578.25	15781	
578.44	15804	
578.63	17074	
578.83	18535	
579.02	15095	
579.21	16791	
579.4	17441	
579.6	17193	
579.79	15844	
579.98	18243	
580.17	17910	
580.37	18060	
580.56	15411	
580.75	16362	
580.94	18516	
581.14	18397	
581.33	16834	
581.52	15752	
581.71	18099	
581.91	18454	
582.1	15579	
582.29	16154	
582.48	17658	
582.68	17677	
582.87	16654	
583.06	16324	
583.25	18047	
583.45	17846	
583.64	17038	
583.83	17786	
584.02	17499	
584.21	17976	
584.41	16838	
584.6	16257	
584.79	17802	
584.98	18623	
585.18	15797	
585.37	15689	
585.56	17279	
585.75	18043	
585.94	15729	
586.14	16500	
586.33	18314	
586.52	17502	
586.71	16058	
586.91	15844	
587.1	16675	
587.29	17684	
587.48	15487	
587.67	15410	
587.87	17286	
588.06	17214	
588.25	16417	
588.44	15518	
588.63	16335	
588.83	16761	
589.02	14410	
589.21	14197	
589.4	15388	
589.59	15239	
589.78	12800	
589.98	13121	
590.17	14560	
590.36	15240	
590.55	12471	
590.74	13129	
590.94	16531	
591.13	15193	
591.32	13292	
591.51	13005	
591.7	15791	
591.89	15210	
592.09	12951	
592.28	13463	
592.47	14470	
592.66	16463	
592.85	13185	
593.05	13509	
593.24	15268	
593.43	16156	
593.62	13734	
593.81	14115	
594	15208	
594.19	15539	
594.39	13414	
594.58	13196	
594.77	15562	
594.96	15976	
595.15	13073	
595.34	13855	
595.54	15574	
595.73	14702	
595.92	12841	
596.11	13725	
596.3	16064	
596.49	15001	
596.68	13593	
596.88	14116	
597.07	15875	
597.26	14749	
597.45	13154	
597.64	14399	
597.83	15027	
598.02	15679	
598.22	13355	
598.41	14129	
598.6	15386	
598.79	15044	
598.98	13515	
599.17	14427	
599.36	15594	
599.55	16842	
599.74	15534	
599.94	15421	
600.13	16152	
600.32	15180	
600.51	13366	
600.7	13639	
600.89	16927	
601.08	16995	
601.27	13425	
601.47	14415	
601.66	16211	
601.85	16834	
602.04	14194	
602.23	14331	
602.42	15343	
602.61	15965	
602.8	14047	
602.99	13762	
603.18	15744	
603.37	15986	
603.57	14502	
603.76	15098	
603.95	16764	
604.14	16338	
604.33	14036	
604.52	14515	
604.71	16060	
604.9	15713	
605.09	15014	
605.28	14678	
605.47	16724	
605.66	16348	
605.86	14549	
606.05	14162	
606.24	16477	
606.43	15039	
606.62	14262	
606.81	15089	
607	16503	
607.19	15890	
607.38	13724	
607.57	13870	
607.76	15450	
607.95	14840	
608.14	14361	
608.33	15014	
608.52	15600	
608.72	16368	
608.91	13620	
609.1	13462	
609.29	15639	
609.48	15076	
609.67	14422	
609.86	13519	
610.05	15087	
610.24	15413	
610.43	13444	
610.62	13050	
610.81	16506	
611	16453	
611.19	13546	
611.38	14272	
611.57	15732	
611.76	17101	
611.95	13390	
612.14	13109	
612.33	15563	
612.52	15122	
612.71	13839	
612.9	13054	
613.09	14678	
613.28	17126	
613.47	13506	
613.66	14574	
613.85	15825	
614.04	15248	
614.24	13730	
614.43	12914	
614.62	16001	
614.81	15812	
615	14262	
615.19	14257	
615.38	15120	
615.57	15566	
615.76	14180	
615.95	15186	
616.14	16051	
616.33	15717	
616.52	14539	
616.71	14842	
616.9	16034	
617.09	16045	
617.28	14024	
617.47	15391	
617.66	15254	
617.85	15423	
618.04	15154	
618.22	14585	
618.41	15802	
618.6	16792	
618.79	14459	
618.98	14435	
619.17	17143	
619.36	15530	
619.55	14626	
619.74	14650	
619.93	16544	
620.12	16054	
620.31	15216	
620.5	15541	
620.69	17148	
620.88	17736	
621.07	16269	
621.26	15370	
621.45	16911	
621.64	16932	
621.83	15444	
622.02	14556	
622.21	16836	
622.4	16746	
622.59	15996	
622.78	15793	
622.97	16398	
623.16	17304	
623.35	15409	
623.54	14667	
623.72	16554	
623.91	16796	
624.1	15682	
624.29	14414	
624.48	17719	
624.67	16896	
624.86	15624	
625.05	14662	
625.24	17900	
625.43	16361	
625.62	17348	
625.81	14922	
626	17286	
626.19	16651	
626.38	15724	
626.56	14979	
626.75	16199	
626.94	16994	
627.13	15488	
627.32	14042	
627.51	16793	
627.7	18067	
627.89	14203	
628.08	15504	
628.27	16094	
628.46	16363	
628.65	14600	
628.83	14331	
629.02	16879	
629.21	16086	
629.4	15218	
629.59	15502	
629.78	16176	
629.97	17028	
630.16	15555	
630.35	14859	
630.54	17690	
630.72	17361	
630.91	14696	
631.1	15539	
631.29	16817	
631.48	17063	
631.67	15620	
631.86	14959	
632.05	16528	
632.24	16642	
632.42	14689	
632.61	15389	
632.8	16623	
632.99	16221	
633.18	15482	
633.37	15656	
633.56	16861	
633.75	16689	
633.93	15328	
634.12	15205	
634.31	17722	
634.5	17311	
634.69	15067	
634.88	15449	
635.07	16754	
635.25	17244	
635.44	15973	
635.63	16244	
635.82	16526	
636.01	16004	
636.2	15806	
636.39	15631	
636.57	17600	
636.76	17286	
636.95	14956	
637.14	16374	
637.33	16995	
637.52	17862	
637.7	14617	
637.89	15593	
638.08	16664	
638.27	17808	
638.46	15582	
638.65	15957	
638.83	17746	
639.02	16240	
639.21	15431	
639.4	15885	
639.59	16660	
639.78	16239	
639.96	14513	
640.15	14824	
640.34	16394	
640.53	16601	
640.72	14309	
640.91	14803	
641.09	15751	
641.28	17112	
641.47	14526	
641.66	15444	
641.85	16450	
642.03	16749	
642.22	15197	
642.41	14494	
642.6	15837	
642.79	15107	
642.97	14132	
643.16	14885	
643.35	15587	
643.54	15358	
643.73	14040	
643.91	14615	
644.1	14905	
644.29	15632	
644.48	13564	
644.67	13637	
644.85	14721	
645.04	14981	
645.23	12807	
645.42	13203	
645.6	14292	
645.79	15368	
645.98	12821	
646.17	11881	
646.36	13682	
646.54	14227	
646.73	13330	
646.92	12139	
647.11	13603	
647.29	14768	
647.48	12231	
647.67	11930	
647.86	14989	
648.05	15216	
648.23	12652	
648.42	14103	
648.61	14668	
648.8	14572	
648.98	12554	
649.17	12935	
649.36	14097	
649.55	13644	
649.73	12439	
649.92	13150	
650.11	13852	
650.3	14163	
650.48	12516	
650.67	12243	
650.86	14428	
651.05	13388	
651.23	12504	
651.42	12510	
651.61	13959	
651.79	14010	
651.98	12752	
652.17	12394	
652.36	14328	
652.54	13282	
652.73	12202	
652.92	12057	
653.11	14059	
653.29	14227	
653.48	11161	
653.67	12211	
653.85	13710	
654.04	14538	
654.23	12140	
654.42	11499	
654.6	12611	
654.79	13345	
654.98	10858	
655.16	11478	
655.35	12468	
655.54	12363	
655.73	11324	
655.91	11219	
656.1	13800	
656.29	12803	
656.47	11095	
656.66	12783	
656.85	13030	
657.03	13180	
657.22	11608	
657.41	11884	
657.59	13325	
657.78	13108	
657.97	11458	
658.16	12217	
658.34	13902	
658.53	14357	
658.72	13012	
658.9	13720	
659.09	13491	
659.28	13641	
659.46	11982	
659.65	11955	
659.84	13419	
660.02	13956	
660.21	11956	
660.4	11847	
660.58	14240	
660.77	13644	
660.96	12486	
661.14	11483	
661.33	14642	
661.52	14574	
661.7	11385	
661.89	15014	
662.08	13207	
662.26	12901	
662.45	11649	
662.64	11752	
662.82	13895	
663.01	13093	
663.2	11848	
663.38	12567	
663.57	13575	
663.75	13639	
663.94	12110	
664.13	13332	
664.31	13055	
664.5	13799	
664.69	12357	
664.87	12934	
665.06	12901	
665.25	13659	
665.43	13024	
665.62	13136	
665.8	13829	
665.99	13196	
666.18	11968	
666.36	12196	
666.55	13719	
666.74	13837	
666.92	11644	
667.11	13224	
667.29	13260	
667.48	13846	
667.67	12879	
667.85	12032	
668.04	13229	
668.22	13177	
668.41	11935	
668.6	12123	
668.78	12940	
668.97	13261	
669.15	12340	
669.34	11235	
669.53	12895	
669.71	13371	
669.9	11527	
670.08	12046	
670.27	13005	
670.46	13509	
670.64	12366	
670.83	12624	
671.01	12840	
671.2	13467	
671.38	11501	
671.57	11437	
671.76	14132	
671.94	14668	
672.13	11306	
672.31	12328	
672.5	13751	
672.69	12958	
672.87	11561	
673.06	11966	
673.24	13566	
673.43	13011	
673.61	12267	
673.8	11806	
673.98	13590	
674.17	13734	
674.36	12460	
674.54	12278	
674.73	13364	
674.91	13594	
675.1	11981	
675.28	11647	
675.47	13248	
675.65	13797	
675.84	11942	
676.03	12200	
676.21	12933	
676.4	12613	
676.58	12615	
676.77	12453	
676.95	14497	
677.14	12960	
677.32	11460	
677.51	11314	
677.69	13742	
677.88	12510	
678.06	11357	
678.25	11519	
678.44	13321	
678.62	12859	
678.81	11125	
678.99	12240	
679.18	14067	
679.36	13686	
679.55	11863	
679.73	12488	
679.92	13467	
680.1	13073	
680.29	13162	
680.47	11715	
680.66	12924	
680.84	13628	
681.03	11049	
681.21	12240	
681.4	13011	
681.58	12871	
681.77	11475	
681.95	11486	
682.14	13717	
682.32	13949	
682.51	12359	
682.69	11128	
682.88	12792	
683.06	13291	
683.25	12025	
683.43	12377	
683.62	12856	
683.8	13275	
683.99	12110	
684.17	11243	
684.36	13331	
684.54	11871	
684.73	9852.1	
684.91	9982.5	
685.1	11968	
685.28	11251	
685.46	10622	
685.65	10739	
685.83	12355	
686.02	11726	
686.2	10190	
686.39	10391	
686.57	11488	
686.76	13100	
686.94	10320	
687.13	10557	
687.31	12375	
687.5	12075	
687.68	10030	
687.86	11308	
688.05	13829	
688.23	11576	
688.42	11443	
688.6	10770	
688.79	12068	
688.97	12024	
689.16	11125	
689.34	10029	
689.52	12788	
689.71	12910	
689.89	11260	
690.08	10427	
690.26	12005	
690.45	11965	
690.63	11191	
690.81	10532	
691	11585	
691.18	11652	
691.37	10589	
691.55	12617	
691.74	11460	
691.92	13583	
692.1	10657	
692.29	10179	
692.47	11845	
692.66	11126	
692.84	10398	
693.02	11079	
693.21	11558	
693.39	12026	
693.58	11275	
693.76	10736	
693.94	13498	
694.13	13455	
694.31	11118	
694.5	12271	
694.68	12262	
694.86	12755	
695.05	11581	
695.23	11502	
695.42	13116	
695.6	15279	
695.78	11951	
695.97	10944	
696.15	12795	
696.34	12227	
696.52	10502	
696.7	11424	
696.89	12499	
697.07	11854	
697.25	11184	
697.44	12741	
697.62	12282	
697.81	12676	
697.99	10675	
698.17	11312	
698.36	11525	
698.54	12288	
698.72	11242	
698.91	10137	
699.09	11839	
699.28	11736	
699.46	10871	
699.64	10578	
699.83	11674	
700.01	12877	
700.19	11626	
700.38	10133	
700.56	13112	
700.74	12214	
700.93	10492	
701.11	11452	
701.29	12652	
701.48	13810	
701.66	10905	
701.84	11069	
702.03	12185	
702.21	12987	
702.39	10378	
702.58	11058	
702.76	12631	
702.94	12768	
703.13	10383	
703.31	12850	
703.49	11895	
703.68	12874	
703.86	10703	
704.04	11703	
704.23	12466	
704.41	12959	
704.59	10872	
704.78	11935	
704.96	13722	
705.14	12991	
705.33	10669	
705.51	11516	
705.69	12234	
705.87	13176	
706.06	11690	
706.24	10587	
706.42	12606	
706.61	13000	
706.79	11690	
706.97	10659	
707.16	12023	
707.34	12639	
707.52	11703	
707.7	10838	
707.89	12253	
708.07	12014	
708.25	11699	
708.44	11772	
708.62	12138	
708.8	13284	
708.98	11977	
709.17	10935	
709.35	12540	
709.53	12450	
709.72	10488	
709.9	10687	
710.08	12647	
710.26	12683	
710.45	12003	
710.63	10748	
710.81	12375	
710.99	12278	
711.18	11273	
711.36	10729	
711.54	11972	
711.72	12542	
711.91	10563	
712.09	9938.1	
712.27	11714	
712.45	12392	
712.64	10499	
712.82	9513.5	
713	10696	
713.18	10738	
713.37	9018.6	
713.55	9989.3	
713.73	11106	
713.91	9426.8	
714.1	8714.8	
714.28	7977.5	
714.46	10168	
714.64	9256.8	
714.83	7169.3	
715.01	7856.7	
715.19	9046.6	
715.37	8435.6	
715.55	7462.1	
715.74	7789.8	
715.92	9829.6	
716.1	7747.5	
716.28	8721.6	
716.47	7806.2	
716.65	8434.2	
716.83	8713.4	
717.01	7662.1	
717.19	7759.1	
717.38	10983	
717.56	8585.1	
717.74	8419.2	
717.92	7568.6	
718.1	10131	
718.29	9486.9	
718.47	7564.5	
718.65	8344.8	
718.83	10509	
719.01	10297	
719.2	7576.1	
719.38	8664.3	
719.56	9975.7	
719.74	11400	
719.92	7897.7	
720.11	8871.8	
720.29	9626.8	
720.47	8634.2	
720.65	7163.1	
720.83	7940.7	
721.02	8779	
721.2	8497	
721.38	7985	
721.56	7116	
721.74	8044.4	
721.92	8212.4	
722.11	8447.9	
722.29	8127	
722.47	9415.2	
722.65	8628.1	
722.83	7130.3	
723.01	8126.3	
723.2	8733.2	
723.38	9056.1	
723.56	6584.2	
723.74	7730.4	
723.92	8143.4	
724.1	9349.7	
724.29	7058.7	
724.47	8208.3	
724.65	8345.5	
724.83	8127.7	
725.01	7072.3	
725.19	7943.4	
725.37	8270.4	
725.56	8374.1	
725.74	6858	
725.92	7096.9	
726.1	8231.5	
726.28	8504.5	
726.46	7411.6	
726.64	7226.6	
726.83	8378.9	
727.01	8720.9	
727.19	6862.7	
727.37	7641	
727.55	8593.3	
727.73	9054.1	
727.91	6864.1	
728.09	6713.9	
728.28	9277.3	
728.46	9948.3	
728.64	8084.7	
728.82	8023.3	
729	10678	
729.18	10000	
729.36	7505.1	
729.54	9654.1	
729.72	11223	
729.91	9499.8	
730.09	9536.7	
730.27	8371.4	
730.45	9575.6	
730.63	10144	
730.81	9136	
730.99	8127.7	
731.17	10738	
731.35	9223.4	
731.53	8625.4	
731.71	8189.1	
731.9	10277	
732.08	10464	
732.26	8464.3	
732.44	8056	
732.62	10464	
732.8	9984.5	
732.98	8772.8	
733.16	7836.2	
733.34	9951.1	
733.52	8769.4	
733.7	8442.4	
733.88	8671.1	
734.07	9929.2	
734.25	9643.2	
734.43	7914	
734.61	9500.5	
734.79	11222	
734.97	9539.4	
735.15	7999.4	
735.33	8369.4	
735.51	9936.1	
735.69	9652.8	
735.87	9670.5	
736.05	8684.8	
736.23	9846.6	
736.41	9576.3	
736.59	8527.1	
736.77	8658.1	
736.95	10388	
737.13	9805	
737.32	8310	
737.5	8533.2	
737.68	10929	
737.86	9701.9	
738.04	7968	
738.22	9878.7	
738.4	9302.6	
738.58	9762.7	
738.76	8704.5	
738.94	7611.6	
739.12	9649.3	
739.3	9513.5	
739.48	9291	
739.66	9157.2	
739.84	9938.1	
740.02	9934.7	
740.2	7857.4	
740.38	8138.6	
740.56	10329	
740.74	9106	
740.92	8843.1	
741.1	8698.4	
741.28	9648.7	
741.46	9531.2	
741.64	8269.7	
741.82	8729.8	
742	9624.1	
742.18	9691	
742.36	8510	
742.54	8024.6	
742.72	10243	
742.9	8921.6	
743.08	8841.8	
743.26	7634.1	
743.44	10338	
743.62	10226	
743.8	8955.8	
743.98	8099.7	
744.16	9972.2	
744.34	9624.1	
744.52	8817.9	
744.7	8769.4	
744.88	9972.9	
745.06	9502.6	
745.24	8761.9	
745.42	8869.1	
745.6	10015	
745.78	9777.7	
745.96	7445	
746.14	7859.4	
746.32	10774	
746.5	9880.8	
746.68	8486.8	
746.86	7803.4	
747.03	10394	
747.21	8672.5	
747.39	8300.4	
747.57	7784.3	
747.75	9553.8	
747.93	9870.5	
748.11	7784.3	
748.29	7742.7	
748.47	11146	
748.65	9221.3	
748.83	8533.9	
749.01	8303.1	
749.19	9779.1	
749.37	8946.2	
749.55	8133.8	
749.73	8249.9	
749.91	9338.7	
750.09	9159.9	
750.26	8221.2	
750.44	7621.2	
750.62	9478.7	
750.8	9417.9	
750.98	7487.4	
751.16	7733.1	
751.34	9471.9	
751.52	8859.5	
751.7	8596.7	
751.88	7460.8	
752.06	9945.6	
752.24	9758.6	
752.42	7428	
752.59	7777.5	
752.77	9317.6	
752.95	10666	
753.13	8429.4	
753.31	7911.3	
753.49	9009	
753.67	9447.3	
753.85	8185.7	
754.03	7790.5	
754.21	9596.1	
754.38	9926.5	
754.56	7642.3	
754.74	6589.7	
754.92	8508.6	
755.1	8944.2	
755.28	6008.1	
755.46	5731.6	
755.64	8813.1	
755.82	8572.8	
755.99	5175.2	
756.17	5221	
756.35	5613.5	
756.53	7130.3	
756.71	3919.1	
756.89	4795.7	
757.07	6787	
757.25	6007.4	
757.42	5701.5	
757.6	6782.2	
757.78	7444.4	
757.96	6492.1	
758.14	5671.5	
758.32	5167	
758.5	5890	
758.67	6622.4	
758.85	5251	
759.03	5416.9	
759.21	6714.6	
759.39	6239.5	
759.57	4858.5	
759.75	6134.3	
759.92	7546.1	
760.1	6898.2	
760.28	6655.2	
760.46	6944.7	
760.64	6881.9	
760.82	6656.6	
760.99	6819.7	
761.17	5960.3	
761.35	7989.8	
761.53	6980.8	
761.71	6296.1	
761.89	7032.7	
762.06	8102.4	
762.24	7679.9	
762.42	6610.8	
762.6	6486.6	
762.78	7851.9	
762.96	8463.6	
763.13	7176.8	
763.31	6967.2	
763.49	8688.2	
763.67	7929.1	
763.85	7862.2	
764.02	8382.3	
764.2	9089.6	
764.38	8305.9	
764.56	6772.6	
764.74	7640.3	
764.91	9209.7	
765.09	8073.8	
765.27	6463.4	
765.45	6318.7	
765.63	9211.1	
765.8	9041.1	
765.98	5947.3	
766.16	6389	
766.34	7544.7	
766.52	7332.4	
766.69	7174	
766.87	6063.4	
767.05	7936.6	
767.23	8770.1	
767.41	6455.9	
767.58	6635.4	
767.76	8365.3	
767.94	8435.6	
768.12	6348	
768.29	7177.4	
768.47	7937.9	
768.65	8551.6	
768.83	5970.5	
769	7126.2	
769.18	7378.8	
769.36	8044.4	
769.54	7068.9	
769.72	5880.4	
769.89	8390.5	
770.07	8391.2	
770.25	6150.1	
770.43	7472.4	
770.6	9039.1	
770.78	9434.3	
770.96	6308.4	
771.14	6874.3	
771.31	8078.6	
771.49	7404.8	
771.67	5412.8	
771.85	5697.4	
772.02	6587.6	
772.2	7255.3	
772.38	6349.4	
772.55	5831.9	
772.73	7561.1	
772.91	7299.6	
773.09	6074.3	
773.26	6169.8	
773.44	7402	
773.62	7094.8	
773.8	5646.9	
773.97	5304.2	
774.15	7477.8	
774.33	6954.2	
774.5	5406.6	
774.68	5767.1	
774.86	7499	
775.04	6961.7	
775.21	5451	
775.39	5366.4	
775.57	7160.4	
775.74	7578.8	
775.92	5225.7	
776.1	5131.5	
776.27	7110.5	
776.45	8387.1	
776.63	5246.9	
776.81	4857.1	
776.98	6655.2	
777.16	7789.8	
777.34	5298.1	
777.51	5339.7	
777.69	6555.5	
777.87	6415.6	
778.04	5375.9	
778.22	6013.5	
778.4	6338.5	
778.57	7086.7	
778.75	4622.9	
778.93	4881.7	
779.1	6129.6	
779.28	5954.8	
779.46	4528.7	
779.64	4976.6	
779.81	7053.9	
779.99	7942	
780.17	5778	
780.34	5926.8	
780.52	6425.8	
780.69	6690.7	
780.87	5304.2	
781.05	4825	
781.22	6475.7	
781.4	6532.3	
781.58	4875.5	
781.75	4070.7	
781.93	6392.4	
782.11	5798.5	
782.28	5646.2	
782.46	4810	
782.64	5587.5	
782.81	6591.7	
782.99	4856.4	
783.17	4810	
783.34	6432	
783.52	5605.3	
783.69	4973.2	
783.87	5776.6	
784.05	5685.2	
784.22	5659.9	
784.4	5608.7	
784.58	4956.8	
784.75	6539.2	
784.93	5670.8	
785.1	4679.6	
785.28	5224.4	
785.46	6240.2	
785.63	5584.8	
785.81	4542.4	
785.99	4436.6	
786.16	5779.4	
786.34	6145.3	
786.51	4471.4	
786.69	4878.3	
786.87	5315.2	
787.04	5861.3	
787.22	4276.8	
787.39	5232.6	
787.57	5539.8	
787.75	6612.9	
787.92	5419.6	
788.1	5370.5	
788.27	5548.6	
788.45	5297.4	
788.63	5076.9	
788.8	3749.1	
788.98	5960.3	
789.15	5220.3	
789.33	3878.9	
789.5	4565.6	
789.68	6427.9	
789.86	6513.2	
790.03	4881.7	
790.21	4285	
790.38	6347.3	
790.56	5603.2	
790.73	4233.8	
790.91	4205.8	
791.09	5381.4	
791.26	6192.4	
791.44	4375.8	
791.61	3790.8	
791.79	5377.3	
791.96	5477	
792.14	3920.5	
792.32	3526.6	
792.49	5387.5	
792.67	5571.8	
792.84	4066.6	
793.02	3764.8	
793.19	5827.8	
793.37	6620.4	
793.54	3531.4	
793.72	3846.8	
793.89	6722.8	
794.07	5399.8	
794.25	4472.8	
794.42	3569.6	
794.6	6361	
794.77	6038.8	
794.95	4650.9	
795.12	4176.5	
795.3	5324	
795.47	5945.3	
795.65	4567	
795.82	4363.5	
796	5109	
796.17	7054.6	
796.35	4197	
796.52	4977.9	
796.7	5871.5	
796.87	5908.4	
797.05	5086.5	
797.22	5049.6	
797.4	5880.4	
797.57	6896.9	
797.75	4336.9	
797.92	4122.6	
798.1	6220.4	
798.27	5286.5	
798.45	3497.9	
798.62	3783.3	
798.8	5545.9	
798.97	6065.4	
799.15	4537.6	
799.32	4359.4	
799.5	4812	
799.67	5648.3	
799.85	4672.1	
800.02	3430.3	
800.2	5242.1	
800.37	5550	
800.55	4849.6	
800.72	4055.7	
800.9	6018.3	
801.07	6516	
801.25	5368.4	
801.42	4426.3	
801.6	5998.5	
801.77	5771.9	
801.95	4104.1	
802.12	3999	
802.29	5793.7	
802.47	5692.7	
802.64	4369	
802.82	3364.1	
802.99	5182.7	
803.17	6240.8	
803.34	4270.7	
803.52	3866.6	
803.69	6909.8	
803.87	4924.7	
804.04	4209.9	
804.21	4334.9	
804.39	6301.6	
804.56	5388.2	
804.74	3614	
804.91	4414.1	
805.09	5136.3	
805.26	5262.6	
805.44	3708.9	
805.61	4048.8	
805.78	5857.2	
805.96	5900.9	
806.13	4410	
806.31	4665.3	
806.48	4676.2	
806.66	5275.6	
806.83	4335.5	
807	4302.1	
807.18	5158.8	
807.35	5456.5	
807.53	4154	
807.7	3377.8	
807.87	6313.2	
808.05	5197.7	
808.22	4657.1	
808.4	3418.7	
808.57	5172.5	
808.74	4841.4	
808.92	3876.1	
809.09	4855.1	
809.27	5033.2	
809.44	5712.5	
809.61	3400.3	
809.79	3773.7	
809.96	6351.4	
810.14	5910.4	
810.31	3316.3	
810.48	4018.1	
810.66	5214.8	
810.83	6057.2	
811.01	3837.9	
811.18	4269.3	
811.35	5902.2	
811.53	4628.4	
811.7	4670.7	
811.87	4356	
812.05	5152	
812.22	5033.2	
812.39	3786.7	
812.57	3627.6	
812.74	5178.6	
812.92	6858.6	
813.09	4050.9	
813.26	4403.8	
813.44	6538.5	
813.61	5053	
813.78	3375.1	
813.96	4541	
814.13	5176.6	
814.3	4838.7	
814.48	4836.6	
814.65	4100.7	
814.82	6414.9	
815	4988.9	
815.17	4166.3	
815.34	5071.5	
815.52	5112.4	
815.69	5076.9	
815.87	4138.3	
816.04	3570.3	
816.21	5211.4	
816.38	4524	
816.56	4006.5	
816.73	3760.1	
816.9	6479.8	
817.08	5939.1	
817.25	3775.1	
817.42	4720.6	
817.6	4704.2	
817.77	5145.2	
817.94	4258.4	
818.12	3667.2	
818.29	4874.2	
818.46	7567.9	
818.64	3919.8	
818.81	3638.6	
818.98	4874.8	
819.16	6935.1	
819.33	4445.5	
819.5	4171	
819.67	5543.9	
819.85	6189	
820.02	4073.4	
820.19	4313.7	
820.37	5369.1	
820.54	4988.2	
820.71	4252.3	
820.88	5190.9	
821.06	5408.7	
821.23	4851.6	
821.4	4258.4	
821.58	4182	
821.75	5811.5	
821.92	5290.6	
822.09	3352.5	
822.27	3512.3	
822.44	5199.8	
822.61	5051	
822.79	3416.7	
822.96	6472.9	
823.13	5604.6	
823.3	4874.8	
823.48	3944.4	
823.65	3569.6	
823.82	5843.5	
823.99	4680.3	
824.17	5014.8	
824.34	3636.5	
824.51	6673	
824.68	5213.4	
824.86	3790.8	
825.03	4185.4	
825.2	5139	
825.37	6217	
825.55	3729.4	
825.72	4177.2	
825.89	6806.1	
826.06	6275.7	
826.24	4068.6	
826.41	4047.5	
826.58	6247.7	
826.75	5457.8	
826.92	3198.2	
827.1	3527.3	
827.27	8463.6	
827.44	6789	
827.61	3780.6	
827.79	4610.7	
827.96	4881	
828.13	5214.8	
828.3	4057.7	
828.47	3403	
828.65	5318.6	
828.82	5326.1	
828.99	5139.7	
829.16	4559.5	
829.34	5791.7	
829.51	5492.7	
829.68	4115.1	
829.85	4315.8	
830.02	6012.8	
830.2	5824.4	
830.37	3232.4	
830.54	4995.7	
830.71	6485.2	
830.88	5159.5	
831.05	3308.8	
831.23	3809.2	
831.4	6282.5	
831.57	6994.5	
831.74	3810.6	
831.91	3407.1	
832.09	5418.9	
832.26	5727.5	
832.43	4015.4	
832.6	4483.7	
832.77	5403.2	
832.94	6115.9	
833.12	3196.2	
833.29	3942.3	
833.46	5048.9	
833.63	7286	
833.8	4302.1	
833.97	4037.9	
834.15	5824.4	
834.32	5532.9	
834.49	4172.4	
834.66	4234.5	
834.83	5945.9	
835	4940.4	
835.17	3809.2	
835.35	3829	
835.52	5666	
835.69	5606.7	
835.86	3997	
836.03	3351.8	
836.2	5679.7	
836.37	5351.3	
836.55	4009.9	
836.72	3781.9	
836.89	5295.4	
837.06	5816.2	
837.23	4002.4	
837.4	4460.5	
837.57	6550.1	
837.75	7234.8	
837.92	3612.6	
838.09	3887	
838.26	5293.3	
838.43	6008.1	
838.6	4212	
838.77	3713	
838.94	6767.2	
839.11	6569.9	
839.29	4027.7	
839.46	3155.2	
839.63	5721.3	
839.8	5455.1	
839.97	3913	
840.14	3852.2	
840.31	5493.3	
840.48	5773.9	
840.65	3280.8	
840.82	3847.5	
841	5690.6	
841.17	5678.3	
841.34	3549.8	
841.51	3593.5	
841.68	5683.8	
841.85	5403.9	
842.02	3663.8	
842.19	3064.4	
842.36	5505.6	
842.53	5477	
842.7	3527.3	
842.87	4335.5	
843.05	7173.4	
843.22	5399.8	
843.39	3375.7	
843.56	3745.1	
843.73	5203.9	
843.9	5819	
844.07	5788.9	
844.24	4801.1	
844.41	8384.4	
844.58	4943.1	
844.75	3465.2	
844.92	3747.1	
845.09	5688.6	
845.26	5723.4	
845.43	3496.6	
845.6	3707.5	
845.77	5727.5	
845.94	5468.8	
846.12	3927.3	
846.29	4126.7	
846.46	5999.9	
846.63	5655.1	
846.8	3499.3	
846.97	4171.7	
847.14	6174.6	
847.31	5672.2	
847.48	4020.2	
847.65	4397.7	
847.82	5988.9	
847.99	5921.4	
848.16	4734.9	
848.33	4352.6	
848.5	5200.5	
848.67	6182.8	
848.84	3556	
849.01	3689.8	
849.18	5134.9	
849.35	4795.7	
849.52	4382.7	
849.69	3414	
849.86	5898.8	
850.03	6151.4	
850.2	3546.4	
850.37	4252.3	
850.54	6049.7	
850.71	5407.3	
850.88	4252.3	
851.05	3550.5	
851.22	5636.7	
851.39	6238.1	
851.56	3362.1	
851.73	4008.6	
851.9	5043.5	
852.07	5902.9	
852.24	4005.1	
852.41	3519.1	
852.58	5558.2	
852.75	5106.3	
852.92	3927.3	
853.09	3439.9	
853.26	5319.9	
853.43	6120.7	
853.6	3508.9	
853.77	3054.9	
853.94	6272.2	
854.11	5672.9	
854.28	5227.8	
854.44	3857.7	
854.61	6696.2	
854.78	5786.2	
854.95	3588	
855.12	4423.6	
855.29	4622.9	
855.46	6426.5	
855.63	3553.9	
855.8	4848.2	
855.97	5225.1	
856.14	6059.9	
856.31	4973.2	
856.48	3883.6	
856.65	5314.5	
856.82	4971.8	
856.99	3423.5	
857.16	3777.8	
857.33	6887.3	
857.49	5388.9	
857.66	3808.5	
857.83	4128.7	
858	5305.6	
858.17	5529.5	
858.34	3322.5	
858.51	3560.7	
858.68	6386.9	
858.85	6414.2	
859.02	4067.3	
859.19	4335.5	
859.36	4994.3	
859.52	5026.4	
859.69	3590.8	
859.86	4085.7	
860.03	5089.2	
860.2	6272.2	
860.37	3231	
860.54	3556	
860.71	5914.5	
860.88	6363	
861.05	3904.8	
861.21	4427.7	
861.38	6412.2	
861.55	4850.3	
861.72	3310.2	
861.89	3913.7	
862.06	5997.1	
862.23	6464.8	
862.4	3407.8	
862.56	3624.2	
862.73	5858.6	
862.9	5507	
863.07	4109.6	
863.24	3190.1	
863.41	4908.3	
863.58	5050.3	
863.75	3629.7	
863.91	4054.3	
864.08	6355.5	
864.25	5892	
864.42	4407.2	
864.59	4973.8	
864.76	6617	
864.93	4984.8	
865.09	3416	
865.26	3764.8	
865.43	6164.4	
865.6	6591	
865.77	3088.3	
865.94	3500	
866.1	6250.4	
866.27	5986.9	
866.44	5257.8	
866.61	3303.4	
866.78	5369.8	
866.95	5823.1	
867.11	3418.1	
867.28	3113.6	
867.45	6042.2	
867.62	5150.6	
867.79	4135.5	
867.96	3495.9	
868.12	5044.8	
868.29	5973.9	
868.46	3523.9	
868.63	4686.4	
868.8	6142.5	
868.97	5902.2	
869.13	3678.2	
869.3	3734.1	
869.47	5841.5	
869.64	5992.4	
869.81	3604.4	
869.97	3507.5	
870.14	5679	
870.31	6343.9	
870.48	3400.3	
870.65	4468	
870.81	5352.7	
870.98	5309	
871.15	3999	
871.32	3657	
871.48	5868.8	
871.65	6387.6	
871.82	3454.2	
871.99	3872.7	
872.16	6791.1	
872.32	6230.6	
872.49	3556	
872.66	3614.7	
872.83	5920	
872.99	5200.5	
873.16	4039.3	
873.33	3493.8	
873.5	5534.3	
873.67	5606.7	
873.83	3685	
874	4629.8	
874.17	5698.1	
874.34	6752.2	
874.5	4511	
874.67	4323.3	
874.84	6386.9	
875.01	5008	
875.17	4979.3	
875.34	3480.9	
875.51	5619.6	
875.68	6753.5	
875.84	4235.9	
876.01	5162.2	
876.18	5887.9	
876.34	5844.2	
876.51	3518.4	
876.68	3445.4	
876.85	5373.9	
877.01	6151.4	
877.18	4982.7	
877.35	3479.5	
877.52	5506.3	
877.68	4939	
877.85	3463.1	
878.02	3488.4	
878.18	5507.7	
878.35	5238	
878.52	2867.8	
878.69	3930.7	
878.85	5932.3	
879.02	5864.7	
879.19	4934.9	
879.35	3736.9	
879.52	5896.8	
879.69	6068.1	
879.86	3020.1	
880.02	3912.3	
880.19	5533.6	
880.36	6662	
880.52	4050.9	
880.69	4203.8	
880.86	5977.3	
881.02	6008.7	
881.19	3861.8	
881.36	3806.5	
881.52	5887.9	
881.69	5183.4	
881.86	3776.5	
882.02	3764.2	
882.19	6124.8	
882.36	7238.9	
882.52	3608.5	
882.69	4904.2	
882.86	5618.3	
883.02	5573.9	
883.19	4298.7	
883.36	3992.2	
883.52	5993	
883.69	6806.8	
883.86	3553.9	
884.02	3236.5	
884.19	5896.1	
884.36	5473.5	
884.52	3982.6	
884.69	3734.1	
884.86	5296.7	
885.02	6520.7	
885.19	3875.4	
885.36	4035.2	
885.52	5517.2	
885.69	5694.7	
885.86	5089.9	
886.02	4468	
886.19	5900.2	
886.35	5345.9	
886.52	3886.4	
886.69	4914.4	
886.85	5020.9	
887.02	6367.1	
887.19	6367.1	
887.35	6367.1	
887.52	6367.1	
887.68	6367.1	
887.85	6367.1	
888.02	6367.1	
888.18	6367.1	
888.35	6367.1	
888.51	6367.1	
888.68	6367.1	
888.85	6367.1	
889.01	6367.1	
889.18	6367.1	
889.35	6367.1	
889.51	6367.1	
889.68	6367.1	
889.84	6367.1	
890.01	6367.1	
890.17	6367.1	
890.34	6367.1	
890.51	6367.1	
890.67	6367.1	
890.84	6367.1	
891	6367.1	
891.17	6367.1	
891.34	6367.1	
891.5	6367.1	
891.67	6367.1	
891.83	6367.1	
892	6367.1	
892.16	6367.1	
892.33	6367.1	
892.5	6367.1	
892.66	6367.1	
892.83	6367.1	
892.99	6367.1	
893.16	6367.1	
893.32	6367.1	
893.49	6367.1	
893.65	6367.1	
893.82	6367.1	
893.99	6367.1	
894.15	6367.1	
894.32	6367.1	
894.48	6367.1	
894.65	6367.1	
894.81	6367.1	
894.98	6367.1	
895.14	6367.1	
895.31	6367.1	
895.47	6367.1	
895.64	6367.1	
895.81	6367.1	
895.97	6367.1	
896.14	6367.1	
896.3	6367.1	
896.47	6367.1	
896.63	6367.1	
896.8	6367.1	
896.96	6367.1	
897.13	6367.1	
897.29	6367.1	
897.46	6367.1	
897.62	6367.1	
897.79	6367.1	
897.95	6367.1	
898.12	6367.1	
898.28	6367.1	
898.45	6367.1	
898.61	6367.1	
898.78	6367.1	
898.94	6367.1	
899.11	6367.1	
899.27	6367.1	
899.44	6367.1	
899.6	6367.1	
899.77	6367.1	
899.93	6367.1	
900.1	6367.1	
900.26	6367.1	
900.43	6367.1	
900.59	6367.1	
900.76	6367.1	
900.92	6367.1	
901.09	6367.1	
901.25	6367.1	
901.42	6367.1	
901.58	6367.1	
901.75	6367.1	
901.91	6367.1	
902.07	6367.1	
902.24	6367.1	
902.4	6367.1	
902.57	6367.1	
902.73	6367.1	
902.9	6367.1	
903.06	6367.1	
903.23	6367.1	
903.39	6367.1	
903.56	6367.1	
903.72	6367.1	
903.88	6367.1	
904.05	6367.1	
904.21	6367.1	
904.38	6367.1	
904.54	6367.1	
904.71	6367.1	
904.87	6367.1	
905.03	6367.1	
905.2	6367.1	
905.36	6367.1	
905.53	6367.1	
905.69	6367.1	
905.86	6367.1	
906.02	6367.1	
906.18	6367.1	
906.35	6367.1	
906.51	6367.1	
906.68	6367.1	
906.84	6367.1	
907.01	6367.1	
907.17	6367.1	
907.33	6367.1	
907.5	6367.1	
907.66	6367.1	
907.83	6367.1	
907.99	6367.1	
908.15	6367.1	
908.32	6367.1	
908.48	6367.1	
908.65	6367.1	
908.81	6367.1	
908.97	6367.1	
909.14	6367.1	
909.3	6367.1	
909.47	6367.1	
909.63	6367.1	
909.79	6367.1	
909.96	6367.1	
910.12	6367.1	
910.28	6367.1	
910.45	6367.1	
910.61	6367.1	
910.78	6367.1	
910.94	6367.1	
911.1	6367.1	
911.27	6367.1	
911.43	6367.1	
911.59	6367.1	
911.76	6367.1	
911.92	6367.1	
912.08	6367.1	
912.25	6367.1	
912.41	6367.1	
912.57	6367.1	
912.74	6367.1	
912.9	6367.1	
913.07	6367.1	
913.23	6367.1	
913.39	6367.1	
913.56	6367.1	
913.72	6367.1	
913.88	6367.1	
914.05	6367.1	
914.21	6367.1	
914.37	6367.1	
914.54	6367.1	
914.7	6367.1	
914.86	6367.1	
915.03	6367.1	
915.19	6367.1	
