Wavelength	Intensities	
nm	a.u.	
179.22	1917.1	
179.44	1922	
179.65	1912.1	
179.86	1931.9	
180.08	1944.2	
180.29	4934.9	
180.51	3604.4	
180.72	5756.2	
180.94	6786.3	
181.15	3292.5	
181.37	3231.7	
181.58	5554.1	
181.79	5879	
182.01	3459.7	
182.22	3704.8	
182.44	5840.8	
182.65	4895.3	
182.87	4661.9	
183.08	4082.3	
183.29	6168.5	
183.51	5059.8	
183.72	3728.7	
183.94	5541.8	
184.15	5446.9	
184.37	5591	
184.58	3265.8	
184.79	4580.6	
185.01	5109	
185.22	5840.1	
185.44	4832.5	
185.65	4025.6	
185.86	5375.9	
186.08	4945.8	
186.29	3220.8	
186.51	3480.2	
186.72	5096.7	
186.94	6075	
187.15	4005.1	
187.36	4154.6	
187.58	7906.5	
187.79	5606.7	
188.01	4334.9	
188.22	6736.5	
188.43	6787	
188.65	5810.8	
188.86	3415.3	
189.08	4132.1	
189.29	5261.2	
189.5	5311.1	
189.72	3888.4	
189.93	3906.2	
190.15	6088.6	
190.36	7329	
190.57	4274.1	
190.79	4139.6	
191	6208.1	
191.22	6137.1	
191.43	4221.5	
191.64	3437.2	
191.86	6363	
192.07	6123.4	
192.29	3627.6	
192.5	3857	
192.71	6102.3	
192.93	5212.1	
193.14	3788.1	
193.35	3889.1	
193.57	5248.3	
193.78	6150.1	
194	3059	
194.21	3713.6	
194.42	5013.4	
194.64	5474.2	
194.85	4158.1	
195.07	4861.2	
195.28	5605.3	
195.49	4769	
195.71	5124.7	
195.92	3531.4	
196.13	5699.5	
196.35	5881.1	
196.56	5464	
196.78	4162.2	
196.99	7215	
197.2	6764.4	
197.42	4719.2	
197.63	4218.8	
197.84	4904.9	
198.06	5711.8	
198.27	3808.5	
198.48	5207.3	
198.7	5231.2	
198.91	5358.2	
199.13	4149.2	
199.34	4218.1	
199.55	5979.4	
199.77	4761.5	
199.98	3735.5	
200.19	4209.3	
200.41	5328.1	
200.62	5141.8	
200.83	4397	
201.05	4698.7	
201.26	5412.1	
201.47	5156.1	
201.69	3749.1	
201.9	3537.5	
202.11	5496.7	
202.33	6563.7	
202.54	3945.8	
202.76	4407.2	
202.97	5637.4	
203.18	5610.8	
203.4	4359.4	
203.61	4332.1	
203.82	5566.4	
204.04	5182.7	
204.25	4243.4	
204.46	4128.7	
204.68	5455.8	
204.89	5767.1	
205.1	4117.1	
205.32	3512.3	
205.53	5987.6	
205.74	6062.7	
205.96	2996.2	
206.17	4310.3	
206.38	5924.1	
206.6	6040.8	
206.81	4786.1	
207.02	3918.4	
207.24	5790.3	
207.45	6139.8	
207.66	3941.7	
207.88	3390.8	
208.09	5698.8	
208.3	5587.5	
208.52	3637.2	
208.73	3942.3	
208.94	5568.4	
209.15	6238.8	
209.37	3970.3	
209.58	4209.9	
209.79	6072.9	
210.01	5348.6	
210.22	3207.1	
210.43	3314.3	
210.65	5517.9	
210.86	5976.7	
211.07	3987.4	
211.29	3678.8	
211.5	5885.9	
211.71	5440.1	
211.93	3711.6	
212.14	3619.4	
212.35	5446.2	
212.56	5779.4	
212.78	4166.3	
212.99	3439.9	
213.2	6492.7	
213.42	5229.1	
213.63	3719.8	
213.84	4020.8	
214.06	4846.9	
214.27	4999.1	
214.48	3995.6	
214.69	4218.8	
214.91	6187.6	
215.12	6281.8	
215.33	4329.4	
215.55	4752.7	
215.76	6802	
215.97	5919.3	
216.18	4099.4	
216.4	4044.1	
216.61	5247.6	
216.82	6090.7	
217.04	3708.2	
217.25	3831.1	
217.46	6176.7	
217.67	5941.8	
217.89	3297.2	
218.1	3355.9	
218.31	5601.9	
218.53	5728.9	
218.74	3829	
218.95	3740.3	
219.16	5474.2	
219.38	6517.3	
219.59	3736.2	
219.8	4425.7	
220.01	7167.9	
220.23	5507.7	
220.44	4946.5	
220.65	3613.3	
220.87	5579.3	
221.08	6139.1	
221.29	3390.1	
221.5	4526.7	
221.72	7602.7	
221.93	5264.6	
222.14	4241.3	
222.35	4948.6	
222.57	5650.3	
222.78	5929.6	
222.99	3986	
223.2	4323.3	
223.42	5887.2	
223.63	5997.8	
223.84	3063.1	
224.05	3046	
224.27	7112.6	
224.48	6600.6	
224.69	4977.9	
224.9	4235.9	
225.12	5735	
225.33	5554.1	
225.54	3346.4	
225.75	3719.1	
225.97	5052.3	
226.18	5333.6	
226.39	4072	
226.6	3741	
226.82	5272.8	
227.03	5096.7	
227.24	4160.8	
227.45	3448.1	
227.67	5896.1	
227.88	6477	
228.09	4648.9	
228.3	4767	
228.52	5945.3	
228.73	5480.4	
228.94	3867.2	
229.15	3467.2	
229.36	5461.9	
229.58	5382.1	
229.79	3919.1	
230	4570.4	
230.21	6625.9	
230.43	5642.2	
230.64	4153.3	
230.85	4321.2	
231.06	5969.8	
231.28	6016.2	
231.49	3424.9	
231.7	4106.9	
231.91	5827.8	
232.12	5584.8	
232.34	3487.7	
232.55	4078.9	
232.76	6219	
232.97	5726.1	
233.18	3639.9	
233.4	4109.6	
233.61	5811.5	
233.82	5287.2	
234.03	3840.6	
234.25	3771.7	
234.46	7746.8	
234.67	5593	
234.88	4301.4	
235.09	3721.2	
235.31	5803.9	
235.52	5429.8	
235.73	4173.8	
235.94	3515	
236.15	5287.2	
236.37	6760.3	
236.58	3678.8	
236.79	3995.6	
237	5788.2	
237.21	5036.6	
237.43	4317.8	
237.64	3420.1	
237.85	10118	
238.06	5069.4	
238.27	4385.4	
238.48	3500.7	
238.7	5901.6	
238.91	5405.3	
239.12	3988.8	
239.33	4035.2	
239.54	5113.8	
239.76	5414.8	
239.97	3973.7	
240.18	3981.3	
240.39	7023.9	
240.6	5795.8	
240.82	4141	
241.03	3397.6	
241.24	5514.5	
241.45	6403.3	
241.66	3620.1	
241.87	4318.5	
242.09	6268.8	
242.3	6692.1	
242.51	4414.7	
242.72	4006.5	
242.93	6038.8	
243.14	5458.5	
243.36	4633.9	
243.57	4995	
243.78	6393.8	
243.99	5930.2	
244.2	3996.3	
244.41	3700	
244.63	5038.7	
244.84	5813.5	
245.05	4343.1	
245.26	3995.6	
245.47	5868.1	
245.68	6077.7	
245.9	5397.8	
246.11	4222.2	
246.32	5358.2	
246.53	5717.9	
246.74	6466.1	
246.95	3394.8	
247.16	5008	
247.38	5517.2	
247.59	3284.9	
247.8	4011.3	
248.01	5123.3	
248.22	5421.7	
248.43	3646.1	
248.64	3947.1	
248.86	4885.1	
249.07	5244.2	
249.28	3543	
249.49	4162.2	
249.7	6082.5	
249.91	6294.8	
250.12	3309.5	
250.34	3370.3	
250.55	5678.3	
250.76	5514.5	
250.97	4159.4	
251.18	4193.6	
251.39	6232	
251.6	5737	
251.81	4352.6	
252.03	4230.4	
252.24	5170.4	
252.45	6113.2	
252.66	3499.3	
252.87	4470.7	
253.08	5533.6	
253.29	7319.4	
253.5	3487	
253.72	4906.9	
253.93	5385.5	
254.14	6535.8	
254.35	3825.6	
254.56	3903.4	
254.77	5791	
254.98	5100.1	
255.19	3746.4	
255.41	4915.1	
255.62	5574.6	
255.83	6217	
256.04	4302.8	
256.25	4193.6	
256.46	6611.5	
256.67	5182.7	
256.88	4225.6	
257.09	4667.3	
257.31	5167.7	
257.52	5236	
257.73	5206.6	
257.94	3738.9	
258.15	5356.1	
258.36	5577.3	
258.57	4810	
258.78	3013.9	
258.99	6023.1	
259.2	5358.2	
259.41	3868.6	
259.63	3936.9	
259.84	6383.5	
260.05	6916	
260.26	5117.9	
260.47	3733.4	
260.68	6199.2	
260.89	5466.7	
261.1	4619.5	
261.31	3645.4	
261.52	6111.1	
261.73	6513.9	
261.95	4931.5	
262.16	4368.3	
262.37	6295.5	
262.58	6411.5	
262.79	4978.6	
263	3898.6	
263.21	5612.8	
263.42	5044.1	
263.63	3927.3	
263.84	3919.1	
264.05	6152.8	
264.26	6541.9	
264.47	4835.9	
264.69	4181.3	
264.9	6209.4	
265.11	5758.2	
265.32	3685.7	
265.53	3812.6	
265.74	5656.5	
265.95	4918.5	
266.16	4092.5	
266.37	4558.8	
266.58	5688.6	
266.79	5323.4	
267	3779.9	
267.21	3540.9	
267.42	5079.6	
267.63	5514.5	
267.84	3952.6	
268.06	3484.3	
268.27	6001.9	
268.48	6276.3	
268.69	3856.3	
268.9	4619.5	
269.11	6264.1	
269.32	5002.5	
269.53	4001	
269.74	3649.5	
269.95	5934.3	
270.16	4867.3	
270.37	4009.2	
270.58	4642.7	
270.79	5327.4	
271	6044.9	
271.21	4342.4	
271.42	4075.5	
271.63	5640.1	
271.84	5166.3	
272.05	3200.3	
272.26	3611.3	
272.47	5557.5	
272.68	5707.7	
272.89	3822.2	
273.11	4530.1	
273.32	5414.1	
273.53	6518.7	
273.74	4360.8	
273.95	4199	
274.16	6247.7	
274.37	5599.1	
274.58	4401.8	
274.79	3523.2	
275	5648.3	
275.21	6214.9	
275.42	5294.7	
275.63	4534.9	
275.84	5774.6	
276.05	7270.3	
276.26	4276.2	
276.47	3925.3	
276.68	5360.2	
276.89	6630	
277.1	4565.6	
277.31	3529.3	
277.52	5819.6	
277.73	5995.1	
277.94	3454.2	
278.15	3846.8	
278.36	5689.9	
278.57	5156.8	
278.78	3839.3	
278.99	4350.6	
279.2	5148.6	
279.41	5077.6	
279.62	5038.7	
279.83	3560.1	
280.04	6767.9	
280.25	5005.9	
280.46	5068	
280.67	3984.7	
280.88	5132.2	
281.09	6196.5	
281.3	4273.4	
281.51	5403.9	
281.72	5261.9	
281.93	6137.8	
282.14	3700	
282.35	4072	
282.56	6045.6	
282.77	6070.2	
282.98	3887	
283.19	4777.2	
283.4	7486	
283.61	5460.6	
283.82	3421.5	
284.03	4999.8	
284.24	5653.1	
284.45	6187.6	
284.66	5017.5	
284.87	4784.1	
285.08	6107.7	
285.29	6303.6	
285.5	3399.6	
285.71	3941	
285.92	6163.7	
286.12	6902.3	
286.33	4962.9	
286.54	3878.9	
286.75	6032.6	
286.96	5421.7	
287.17	3573.7	
287.38	4878.3	
287.59	5139.7	
287.8	5070.8	
288.01	3949.8	
288.22	4532.2	
288.43	6090	
288.64	5031.2	
288.85	4678.2	
289.06	4437.3	
289.27	6020.3	
289.48	6530.3	
289.69	5007.3	
289.9	4537.6	
290.11	6208.1	
290.32	5252.4	
290.53	4763.6	
290.74	4379.9	
290.94	5987.6	
291.15	6059.3	
291.36	3736.2	
291.57	4541	
291.78	5253.7	
291.99	4945.2	
292.2	3626.3	
292.41	4361.5	
292.62	6116.6	
292.83	5900.2	
293.04	5418.9	
293.25	3688.4	
293.46	5343.8	
293.67	6150.7	
293.88	3763.5	
294.09	3596.2	
294.29	5073.5	
294.5	5692.7	
294.71	4052.9	
294.92	3876.8	
295.13	5317.9	
295.34	6729.6	
295.55	3403.7	
295.76	3676.1	
295.97	5953.4	
296.18	6728.3	
296.39	3584.6	
296.6	3771.7	
296.81	5633.3	
297.01	5923.4	
297.22	3920.5	
297.43	3757.3	
297.64	5115.8	
297.85	5195	
298.06	3108.8	
298.27	3383.9	
298.48	5569.8	
298.69	5278.3	
298.9	4080.2	
299.11	3683.6	
299.31	5061.2	
299.52	5048.2	
299.73	4412.7	
299.94	4267.3	
300.15	5586.2	
300.36	5169.8	
300.57	4331.5	
300.78	4301.4	
300.99	5398.4	
301.2	5634	
301.4	3706.8	
301.61	4203.1	
301.82	5928.2	
302.03	6001.2	
302.24	4599.1	
302.45	3579.2	
302.66	5907.7	
302.87	6433.4	
303.08	3777.1	
303.29	5171.1	
303.49	5247.6	
303.7	5625.8	
303.91	3321.1	
304.12	4909	
304.33	5020.9	
304.54	5695.4	
304.75	3809.2	
304.96	3578.5	
305.16	5844.9	
305.37	6628.6	
305.58	3280.8	
305.79	3414	
306	5896.1	
306.21	4894.6	
306.42	3771	
306.63	5815.5	
306.83	5393.7	
307.04	6210.1	
307.25	4154.6	
307.46	4139.6	
307.67	4778.6	
307.88	6013.5	
308.09	3616	
308.29	3909.6	
308.5	5662.6	
308.71	6092.7	
308.92	4067.3	
309.13	3607.8	
309.34	5490.6	
309.55	5479	
309.75	4701.5	
309.96	4319.8	
310.17	6035.4	
310.38	5227.8	
310.59	4536.3	
310.8	4242.7	
311.01	6696.9	
311.21	5392.3	
311.42	3596.9	
311.63	3730.7	
311.84	5232.6	
312.05	5663.3	
312.26	4177.2	
312.46	4586.1	
312.67	5339.7	
312.88	5107	
313.09	3644.7	
313.3	3525.2	
313.51	6406	
313.71	6760.3	
313.92	3618.8	
314.13	3801	
314.34	5669.5	
314.55	5434.6	
314.76	4666.6	
314.96	4131.4	
315.17	5577.3	
315.38	6118	
315.59	3624.2	
315.8	3461.7	
316.01	6512.5	
316.21	6468.2	
316.42	3521.1	
316.63	4047.5	
316.84	5412.1	
317.05	6338.5	
317.26	4385.4	
317.46	3852.9	
317.67	5435.3	
317.88	5898.8	
318.09	4631.8	
318.3	3405.1	
318.5	5214.8	
318.71	5885.2	
318.92	6012.8	
319.13	4323.3	
319.34	6055.2	
319.54	6199.9	
319.75	3412.6	
319.96	3177.8	
320.17	5967.1	
320.38	6166.4	
320.58	3304.7	
320.79	3980.6	
321	6122.1	
321.21	6316.6	
321.42	4027.7	
321.62	3349.1	
321.83	5172.5	
322.04	5533.6	
322.25	3837.9	
322.46	3620.8	
322.66	5693.4	
322.87	5834.7	
323.08	4517.8	
323.29	3552.5	
323.5	6636.1	
323.7	5099.4	
323.91	5010	
324.12	4474.1	
324.33	5600.5	
324.53	5858.6	
324.74	4320.5	
324.95	4565.6	
325.16	4958.1	
325.37	5371.8	
325.57	3656.3	
325.78	3699.3	
325.99	5573.2	
326.2	5021.6	
326.4	5330.9	
326.61	3398.9	
326.82	5489.9	
327.03	5714.5	
327.24	5201.2	
327.44	4975.2	
327.65	5814.9	
327.86	4735.6	
328.07	4358.8	
328.27	3495.9	
328.48	6264.7	
328.69	5124.7	
328.9	5304.9	
329.1	3941	
329.31	5468.1	
329.52	6457.2	
329.73	3634.5	
329.93	4157.4	
330.14	5576.6	
330.35	5764.3	
330.56	6114.6	
330.76	4521.2	
330.97	5319.9	
331.18	5816.2	
331.39	4094.6	
331.59	3284.9	
331.8	6182.1	
332.01	6359.6	
332.22	3741.6	
332.42	4297.3	
332.63	5682.4	
332.84	5246.9	
333.05	4054.3	
333.25	3791.5	
333.46	5351.3	
333.67	5552	
333.88	3814	
334.08	4289.8	
334.29	7442.3	
334.5	6245.6	
334.7	3537.5	
334.91	5271.5	
335.12	5038.7	
335.33	6026.5	
335.53	4054.3	
335.74	5989.6	
335.95	5318.6	
336.16	5180	
336.36	4059.1	
336.57	4701.5	
336.78	5037.3	
336.98	6145.3	
337.19	5039.4	
337.4	4037.9	
337.61	6685.3	
337.81	5072.1	
338.02	3747.1	
338.23	4859.8	
338.43	6380.8	
338.64	5165.7	
338.85	3641.3	
339.05	4810.7	
339.26	6432.7	
339.47	4999.1	
339.68	3657.7	
339.88	5451.7	
340.09	5852.4	
340.3	6086.6	
340.5	4349.9	
340.71	3283.6	
340.92	5027.1	
341.13	6308.4	
341.33	3522.5	
341.54	4299.4	
341.75	5824.4	
341.95	5451	
342.16	4089.1	
342.37	4436.6	
342.57	5128.8	
342.78	5537.7	
342.99	4599.1	
343.19	3297.2	
343.4	5994.4	
343.61	5823.7	
343.81	3852.2	
344.02	3592.8	
344.23	5954.1	
344.43	6499.6	
344.64	4538.3	
344.85	4491.9	
345.06	5821.7	
345.26	6159.6	
345.47	4158.7	
345.68	5035.3	
345.88	4890.5	
346.09	6044.2	
346.3	4311	
346.5	3230.3	
346.71	5645.6	
346.92	5206.6	
347.12	3371	
347.33	4207.9	
347.54	6168.5	
347.74	6596.5	
347.95	4236.6	
348.16	3159.3	
348.36	5342.5	
348.57	5043.5	
348.78	4193.6	
348.98	4534.9	
349.19	5474.2	
349.39	5023	
349.6	3392.1	
349.81	3760.8	
350.01	5748.6	
350.22	5286.5	
350.43	4071.4	
350.63	4943.1	
350.84	5609.4	
351.05	5317.9	
351.25	3774.4	
351.46	3373.7	
351.67	6196.5	
351.87	5202.5	
352.08	3925.3	
352.29	4495.3	
352.49	6118	
352.7	5741.1	
352.9	3620.8	
353.11	4493.9	
353.32	6817.7	
353.52	5357.5	
353.73	3534.1	
353.94	4560.1	
354.14	5901.6	
354.35	5750.7	
354.55	3654.9	
354.76	4052.9	
354.97	5817.6	
355.17	5575.3	
355.38	3480.9	
355.59	4790.2	
355.79	5229.1	
356	5722.7	
356.2	4044.1	
356.41	3510.9	
356.62	5000.5	
356.82	5479.7	
357.03	4278.2	
357.24	3902.7	
357.44	5311.7	
357.65	5376.6	
357.85	5241.4	
358.06	4055.7	
358.27	5021.6	
358.47	5268.7	
358.68	3414	
358.88	4341	
359.09	5829.9	
359.3	6253.1	
359.5	5055.8	
359.71	4507.6	
359.91	6690	
360.12	6051.7	
360.33	4334.9	
360.53	4876.9	
360.74	5278.3	
360.94	5337.7	
361.15	4534.9	
361.36	3799.7	
361.56	6077.7	
361.77	5558.2	
361.97	5074.9	
362.18	4048.8	
362.38	6148.7	
362.59	5244.8	
362.8	3694.5	
363	3564.8	
363.21	5004.6	
363.41	5673.6	
363.62	4262.5	
363.83	5401.2	
364.03	5723.4	
364.24	6780.1	
364.44	5343.2	
364.65	5295.4	
364.85	5513.1	
365.06	5419.6	
365.27	3899.3	
365.47	3970.3	
365.68	6534.4	
365.88	5545.9	
366.09	4357.4	
366.29	4022.9	
366.5	5853.1	
366.71	6253.1	
366.91	5444.2	
367.12	4506.2	
367.32	6936.5	
367.53	6169.8	
367.73	4498.7	
367.94	5511.8	
368.14	5999.9	
368.35	7043	
368.56	4489.8	
368.76	4237.9	
368.97	6195.1	
369.17	7951.6	
369.38	4007.2	
369.58	4276.8	
369.79	5236	
369.99	6565.8	
370.2	5302.9	
370.4	4384	
370.61	5898.8	
370.82	7158.3	
371.02	4321.2	
371.23	3615.3	
371.43	5166.3	
371.64	6485.2	
371.84	4354	
372.05	5631.9	
372.25	7965.9	
372.46	6314.6	
372.66	4296	
372.87	4329.4	
373.07	6324.1	
373.28	7989.8	
373.48	5431.9	
373.69	5132.9	
373.9	5819.6	
374.1	5840.1	
374.31	5446.2	
374.51	4896.7	
374.72	6703.7	
374.92	5571.2	
375.13	5597.1	
375.33	4691.2	
375.54	6309.8	
375.74	5729.5	
375.95	4821.6	
376.15	6110.5	
376.36	6297.5	
376.56	6141.9	
376.77	4920.6	
376.97	5459.9	
377.18	7411.6	
377.38	6481.1	
377.59	5749.3	
377.79	4487.1	
378	6279.1	
378.2	6746.7	
378.41	4508.9	
378.61	4412	
378.82	6797.2	
379.02	5830.6	
379.23	4628.4	
379.43	5898.8	
379.64	6913.9	
379.84	6432.7	
380.05	4491.2	
380.25	4434.5	
380.46	6595.1	
380.66	6141.2	
380.87	5905.7	
381.07	6319.3	
381.28	7204.1	
381.48	6587.6	
381.69	4534.2	
381.89	4608.6	
382.1	5430.5	
382.3	6768.5	
382.51	5645.6	
382.71	6705	
382.91	6568.5	
383.12	7043.6	
383.32	4880.3	
383.53	5114.5	
383.73	6342.6	
383.94	6109.1	
384.14	5042.8	
384.35	4158.1	
384.55	6128.2	
384.76	6593.1	
384.96	4902.2	
385.17	5258.5	
385.37	6519.4	
385.58	5767.8	
385.78	5234.6	
385.98	4134.2	
386.19	6036	
386.39	6440.2	
386.6	4661.9	
386.8	4966.3	
387.01	6585.6	
387.21	6560.3	
387.42	5313.8	
387.62	5967.1	
387.83	5908.4	
388.03	6657.9	
388.23	5071.5	
388.44	5928.2	
388.64	5700.2	
388.85	5780.1	
389.05	5484.5	
389.26	6071.5	
389.46	7662.8	
389.67	7159.7	
389.87	5440.1	
390.07	5523.4	
390.28	6361.7	
390.48	5834.7	
390.69	4719.2	
390.89	4993.6	
391.1	6063.4	
391.3	7026.6	
391.5	6247.7	
391.71	6853.2	
391.91	6733	
392.12	7790.5	
392.32	6230.6	
392.53	5509.7	
392.73	6158.2	
392.93	6397.2	
393.14	5104.2	
393.34	5890.6	
393.55	6894.1	
393.75	6367.8	
393.95	5094.7	
394.16	5059.8	
394.36	6127.5	
394.57	6792.4	
394.77	4634.6	
394.98	5088.5	
395.18	6085.2	
395.38	6254.5	
395.59	6010.8	
395.79	4998.4	
396	6395.8	
396.2	6855.2	
396.4	5913.9	
396.61	5836	
396.81	7092.1	
397.02	6352.8	
397.22	6198.5	
397.42	6266.1	
397.63	7045	
397.83	6328.9	
398.04	5055.8	
398.24	5640.8	
398.44	6882.5	
398.65	5982.8	
398.85	4984.1	
399.05	5120.6	
399.26	6412.9	
399.46	8200.1	
399.67	5592.3	
399.87	5235.3	
400.07	6761.7	
400.28	7251.9	
400.48	5403.9	
400.69	6508.4	
400.89	7494.9	
401.09	7941.3	
401.3	5324	
401.5	6485.2	
401.7	8182.3	
401.91	8401.5	
402.11	5603.9	
402.32	5782.8	
402.52	7339.9	
402.72	7284.6	
402.93	5945.9	
403.13	4726.7	
403.33	8103.1	
403.54	6739.9	
403.74	5650.3	
403.94	6582.9	
404.15	6858.6	
404.35	8137.9	
404.56	5461.9	
404.76	7518.8	
404.96	7411.6	
405.17	7269.6	
405.37	6909.2	
405.57	6030.6	
405.78	7505.8	
405.98	6842.9	
406.18	5608	
406.39	6561.7	
406.59	7380.9	
406.79	7154.9	
407	5342.5	
407.2	5635.3	
407.4	7607.5	
407.61	7867.6	
407.81	5657.2	
408.01	7974.8	
408.22	6750.1	
408.42	8962.6	
408.62	7109.2	
408.83	6512.5	
409.03	7483.3	
409.23	7496.9	
409.44	6651.8	
409.64	7021.1	
409.84	8678.6	
410.05	8595.3	
410.25	7079.8	
410.45	6754.2	
410.66	8182.3	
410.86	10824	
411.06	7350.2	
411.27	7219.8	
411.47	10746	
411.67	8483.4	
411.88	7443	
412.08	7914.7	
412.28	9199.5	
412.49	9751.1	
412.69	7281.2	
412.89	7462.1	
413.09	9652.8	
413.3	9482.8	
413.5	7562.5	
413.7	7182.9	
413.91	8680.7	
414.11	9701.2	
414.31	7475.1	
414.52	8032.1	
414.72	9334.6	
414.92	9326.4	
415.12	7438.2	
415.33	8067.6	
415.53	9745.6	
415.73	9953.8	
415.94	8457.4	
416.14	7862.2	
416.34	8721.6	
416.55	8510.7	
416.75	9195.4	
416.95	8659.5	
417.15	9906	
417.36	10567	
417.56	9592.7	
417.76	8576.9	
417.97	10356	
418.17	9994.8	
418.37	7886.7	
418.57	8198	
418.78	9695.1	
418.98	9243.2	
419.18	9122.3	
419.38	8955.8	
419.59	9440.5	
419.79	8994.7	
419.99	7950.9	
420.2	8434.9	
420.4	10051	
420.6	10186	
420.8	8084	
421.01	7713.3	
421.21	9837.1	
421.41	10051	
421.61	8421.9	
421.82	8005.5	
422.02	9334.6	
422.22	10241	
422.42	8961.2	
422.63	8384.4	
422.83	9533.3	
423.03	10685	
423.23	8390.5	
423.44	7387	
423.64	9506.7	
423.84	9122.3	
424.04	7885.4	
424.25	7493.5	
424.45	10341	
424.65	10342	
424.85	7274.4	
425.06	7893.6	
425.26	10286	
425.46	9199.5	
425.66	8410.3	
425.87	8060.1	
426.07	10065	
426.27	9932.6	
426.47	8192.6	
426.67	7515.4	
426.88	10314	
427.08	9872.6	
427.28	8496.3	
427.48	7446.4	
427.69	8599.4	
427.89	9400.9	
428.09	8527.1	
428.29	7503.1	
428.5	10172	
428.7	9650	
428.9	7488.7	
429.1	8071	
429.3	9587.9	
429.51	10046	
429.71	7840.3	
429.91	8690.2	
430.11	9927.2	
430.31	10339	
430.52	8103.1	
430.72	8503.8	
430.92	10593	
431.12	10064	
431.32	7946.8	
431.53	8345.5	
431.73	9049.3	
431.93	10773	
432.13	7868.3	
432.33	7843	
432.54	9570.2	
432.74	9949	
432.94	7817.1	
433.14	8781	
433.34	10152	
433.55	9708.7	
433.75	8805.6	
433.95	10793	
434.15	10040	
434.35	9716.9	
434.56	8100.4	
434.76	7723.6	
434.96	9967.5	
435.16	10491	
435.36	7974.8	
435.56	9299.8	
435.77	9817.3	
435.97	10045	
436.17	10064	
436.37	9383.1	
436.57	9813.9	
436.78	9824.8	
436.98	11069	
437.18	9871.2	
437.38	10634	
437.58	9923.8	
437.78	9972.9	
437.99	8514.1	
438.19	10408	
438.39	11261	
438.59	8525.7	
438.79	7974.8	
438.99	11305	
439.2	10039	
439.4	8234.9	
439.6	8279.3	
439.8	10538	
440	11704	
440.2	9407.7	
440.4	9692.4	
440.61	11143	
440.81	11764	
441.01	8755.7	
441.21	9852.1	
441.41	11742	
441.61	11129	
441.81	10095	
442.02	11247	
442.22	12243	
442.42	11305	
442.62	8909.3	
442.82	8916.2	
443.02	11814	
443.22	10904	
443.43	9576.3	
443.63	9062.9	
443.83	10656	
444.03	10765	
444.23	10498	
444.43	9957.9	
444.63	11083	
444.83	12378	
445.04	9247.3	
445.24	10509	
445.44	11258	
445.64	11570	
445.84	9900.6	
446.04	9988.6	
446.24	10606	
446.44	11688	
446.65	9007.6	
446.85	9521	
447.05	10876	
447.25	11605	
447.45	9590	
447.65	8875.9	
447.85	11000	
448.05	10520	
448.25	10142	
448.46	9832.3	
448.66	11157	
448.86	10713	
449.06	8886.8	
449.26	10197	
449.46	11521	
449.66	10385	
449.86	9759.3	
450.06	9606.3	
450.26	10677	
450.47	11402	
450.67	9923.8	
450.87	10337	
451.07	11381	
451.27	11413	
451.47	9151	
451.67	9929.2	
451.87	10953	
452.07	12012	
452.27	9574.9	
452.47	9494.4	
452.67	11196	
452.88	11921	
453.08	8736.6	
453.28	11037	
453.48	12712	
453.68	11191	
453.88	9648	
454.08	9767.4	
454.28	11912	
454.48	11431	
454.68	10587	
454.88	10993	
455.08	11814	
455.28	11967	
455.48	9409.1	
455.68	10292	
455.89	12728	
456.09	12401	
456.29	10079	
456.49	10313	
456.69	12710	
456.89	11784	
457.09	10828	
457.29	11461	
457.49	12335	
457.69	12693	
457.89	10931	
458.09	10270	
458.29	12231	
458.49	13130	
458.69	11422	
458.89	10886	
459.09	13413	
459.29	13585	
459.49	10895	
459.69	11761	
459.9	12893	
460.1	12631	
460.3	10778	
460.5	10596	
460.7	13130	
460.9	12768	
461.1	10419	
461.3	11945	
461.5	14005	
461.7	13584	
461.9	11373	
462.1	11557	
462.3	13214	
462.5	13801	
462.7	11540	
462.9	11661	
463.1	15081	
463.3	14773	
463.5	11882	
463.7	13162	
463.9	13686	
464.1	14023	
464.3	12495	
464.5	12488	
464.7	14487	
464.9	14424	
465.1	14064	
465.3	13009	
465.5	14973	
465.7	15075	
465.9	13400	
466.1	12901	
466.3	15104	
466.5	14614	
466.7	14573	
466.9	13102	
467.1	14855	
467.3	15854	
467.5	14454	
467.7	13213	
467.9	16151	
468.1	17196	
468.3	14003	
468.5	14639	
468.7	15001	
468.9	14870	
469.1	13650	
469.3	14554	
469.5	17350	
469.7	14734	
469.9	14037	
470.1	13523	
470.3	15024	
470.5	15205	
470.7	14784	
470.9	13537	
471.1	14980	
471.3	15123	
471.5	13335	
471.69	15338	
471.89	14676	
472.09	14149	
472.29	14071	
472.49	14207	
472.69	14459	
472.89	15237	
473.09	13190	
473.29	13101	
473.49	14577	
473.69	14571	
473.89	14298	
474.09	13366	
474.29	15945	
474.49	15586	
474.69	14190	
474.89	13523	
475.09	14655	
475.29	14686	
475.49	12706	
475.69	13108	
475.88	16197	
476.08	14861	
476.28	12771	
476.48	13082	
476.68	15284	
476.88	15124	
477.08	12880	
477.28	13506	
477.48	14516	
477.68	15186	
477.88	12880	
478.08	13151	
478.28	15658	
478.48	14667	
478.67	13185	
478.87	12422	
479.07	15675	
479.27	14846	
479.47	13321	
479.67	13452	
479.87	15324	
480.07	15950	
480.27	12800	
480.47	14349	
480.67	14870	
480.87	15541	
481.06	12908	
481.26	13805	
481.46	14897	
481.66	14769	
481.86	13478	
482.06	14605	
482.26	14516	
482.46	15619	
482.66	13372	
482.86	13052	
483.05	15106	
483.25	14345	
483.45	15995	
483.65	13592	
483.85	14730	
484.05	15017	
484.25	14020	
484.45	14724	
484.65	15871	
484.84	16187	
485.04	13579	
485.24	13560	
485.44	16331	
485.64	14638	
485.84	13166	
486.04	14586	
486.24	15124	
486.44	15637	
486.63	13100	
486.83	14204	
487.03	15311	
487.23	15640	
487.43	13289	
487.63	16152	
487.83	15700	
488.02	16823	
488.22	14721	
488.42	15358	
488.62	16634	
488.82	15727	
489.02	14134	
489.22	14524	
489.41	16476	
489.61	16180	
489.81	13966	
490.01	14140	
490.21	16539	
490.41	17165	
490.61	13855	
490.8	14172	
491	15993	
491.2	15132	
491.4	14717	
491.6	13760	
491.8	15895	
491.99	15968	
492.19	13747	
492.39	14055	
492.59	16732	
492.79	16798	
492.99	15233	
493.18	14341	
493.38	17026	
493.58	18020	
493.78	15476	
493.98	15201	
494.18	16968	
494.37	16693	
494.57	16206	
494.77	15941	
494.97	17604	
495.17	18041	
495.37	15683	
495.56	16055	
495.76	18364	
495.96	18000	
496.16	17117	
496.36	16053	
496.55	18306	
496.75	17927	
496.95	16451	
497.15	16323	
497.35	18215	
497.54	18444	
497.74	16184	
497.94	18067	
498.14	19228	
498.34	18992	
498.53	16184	
498.73	16866	
498.93	18019	
499.13	18631	
499.33	17025	
499.52	17402	
499.72	18696	
499.92	19024	
500.12	16645	
500.32	16922	
500.51	18885	
500.71	18970	
500.91	17840	
501.11	17499	
501.31	19103	
501.5	19275	
501.7	18076	
501.9	17038	
502.1	18643	
502.29	19047	
502.49	17509	
502.69	17666	
502.89	18766	
503.09	18897	
503.28	16229	
503.48	16346	
503.68	17823	
503.88	17845	
504.07	17290	
504.27	16561	
504.47	18184	
504.67	18107	
504.86	17250	
505.06	16660	
505.26	17585	
505.46	19493	
505.65	16456	
505.85	16526	
506.05	17401	
506.25	17889	
506.44	15363	
506.64	16281	
506.84	17019	
507.04	17959	
507.23	15470	
507.43	15993	
507.63	18826	
507.83	17045	
508.02	15874	
508.22	15427	
508.42	19027	
508.62	16708	
508.81	15921	
509.01	16213	
509.21	16536	
509.4	16791	
509.6	15724	
509.8	15295	
510	16784	
510.19	18599	
510.39	15291	
510.59	15410	
510.79	16754	
510.98	18421	
511.18	15394	
511.38	15689	
511.57	17544	
511.77	17548	
511.97	16272	
512.17	15065	
512.36	17686	
512.56	17539	
512.76	15319	
512.95	15064	
513.15	17853	
513.35	16484	
513.55	16365	
513.74	15411	
513.94	17929	
514.14	17106	
514.33	16602	
514.53	16386	
514.73	17228	
514.92	17527	
515.12	16042	
515.32	15803	
515.51	17747	
515.71	18314	
515.91	17631	
516.11	16006	
516.3	19849	
516.5	17393	
516.7	16443	
516.89	17178	
517.09	17508	
517.29	17531	
517.48	17045	
517.68	16208	
517.88	17277	
518.07	18039	
518.27	17011	
518.47	15929	
518.66	18674	
518.86	17178	
519.06	15638	
519.25	16199	
519.45	17592	
519.65	19231	
519.84	16899	
520.04	17589	
520.24	19557	
520.43	18051	
520.63	16292	
520.83	16047	
521.02	17197	
521.22	17943	
521.42	16599	
521.61	17211	
521.81	17372	
522.01	17678	
522.2	16591	
522.4	16338	
522.6	18408	
522.79	17193	
522.99	16638	
523.18	16180	
523.38	18405	
523.58	18618	
523.77	18463	
523.97	16333	
524.17	20590	
524.36	19855	
524.56	18086	
524.76	17709	
524.95	19134	
525.15	18598	
525.34	17600	
525.54	17708	
525.74	19497	
525.93	18462	
526.13	19087	
526.33	17825	
526.52	20038	
526.72	19502	
526.91	19230	
527.11	18460	
527.31	20302	
527.5	20758	
527.7	18421	
527.89	17643	
528.09	19171	
528.29	20117	
528.48	18880	
528.68	18417	
528.87	20282	
529.07	19964	
529.27	18387	
529.46	17666	
529.66	19639	
529.85	20091	
530.05	17460	
530.25	18404	
530.44	21163	
530.64	19609	
530.83	18161	
531.03	18594	
531.23	20283	
531.42	20291	
531.62	19485	
531.81	18561	
532.01	20792	
532.21	21345	
532.4	18729	
532.6	19235	
532.79	21875	
532.99	20977	
533.18	19219	
533.38	20228	
533.58	20745	
533.77	21504	
533.97	19436	
534.16	20378	
534.36	21764	
534.55	20943	
534.75	20333	
534.95	19543	
535.14	21700	
535.34	20755	
535.53	18884	
535.73	20995	
535.92	22285	
536.12	20814	
536.31	18847	
536.51	20346	
536.71	21093	
536.9	20747	
537.1	19211	
537.29	19382	
537.49	21648	
537.68	20610	
537.88	19870	
538.07	19142	
538.27	21057	
538.46	22227	
538.66	19012	
538.86	19538	
539.05	20917	
539.25	21488	
539.44	19813	
539.64	19275	
539.83	20883	
540.03	21936	
540.22	19183	
540.42	19112	
540.61	20897	
540.81	21045	
541	19454	
541.2	20271	
541.39	20239	
541.59	20717	
541.78	19977	
541.98	18640	
542.18	19722	
542.37	19620	
542.57	18959	
542.76	19753	
542.96	19535	
543.15	20218	
543.35	18617	
543.54	17937	
543.74	20339	
543.93	19987	
544.13	18265	
544.32	19357	
544.52	20012	
544.71	19250	
544.91	17292	
545.1	18619	
545.3	19241	
545.49	19947	
545.69	17230	
545.88	17730	
546.08	20820	
546.27	20450	
546.47	18374	
546.66	17641	
546.86	19971	
547.05	20684	
547.24	17791	
547.44	17815	
547.63	18822	
547.83	20129	
548.02	17982	
548.22	18110	
548.41	18549	
548.61	19845	
548.8	17466	
549	17322	
549.19	19191	
549.39	19668	
549.58	17031	
549.78	17589	
549.97	19576	
550.17	18935	
550.36	18303	
550.55	19504	
550.75	19012	
550.94	19940	
551.14	17226	
551.33	17508	
551.53	18251	
551.72	19361	
551.92	17531	
552.11	17303	
552.31	19389	
552.5	19433	
552.69	19142	
552.89	16811	
553.08	19370	
553.28	18966	
553.47	17309	
553.67	18581	
553.86	20019	
554.06	17991	
554.25	16308	
554.44	17064	
554.64	20487	
554.83	20026	
555.03	16945	
555.22	17286	
555.42	19297	
555.61	18970	
555.8	16910	
556	17371	
556.19	18198	
556.39	19366	
556.58	17138	
556.78	17264	
556.97	18867	
557.16	18768	
557.36	18376	
557.55	16678	
557.75	17595	
557.94	19676	
558.13	16781	
558.33	16608	
558.52	19307	
558.72	18212	
558.91	16488	
559.1	16784	
559.3	17819	
559.49	17491	
559.69	16174	
559.88	17240	
560.07	18550	
560.27	19013	
560.46	17216	
560.66	17287	
560.85	18179	
561.04	17367	
561.24	16244	
561.43	16382	
561.63	17484	
561.82	17820	
562.01	17823	
562.21	16879	
562.4	18347	
562.59	19519	
562.79	16689	
562.98	16363	
563.18	18344	
563.37	20007	
563.56	17283	
563.76	16476	
563.95	17918	
564.14	17833	
564.34	16649	
564.53	16506	
564.73	18415	
564.92	18948	
565.11	17067	
565.31	16374	
565.5	19031	
565.69	17935	
565.89	16620	
566.08	17003	
566.27	18846	
566.47	19549	
566.66	17449	
566.85	16146	
567.05	18516	
567.24	17849	
567.44	16498	
567.63	17920	
567.82	18601	
568.02	18410	
568.21	16522	
568.4	16800	
568.6	18239	
568.79	18346	
568.98	16214	
569.18	16472	
569.37	18343	
569.56	20304	
569.76	16627	
569.95	17636	
570.14	18322	
570.34	18264	
570.53	15756	
570.72	15899	
570.91	18669	
571.11	17681	
571.3	16200	
571.49	17113	
571.69	17603	
571.88	17271	
572.07	16877	
572.27	16840	
572.46	17279	
572.65	18404	
572.85	16081	
573.04	16449	
573.23	18834	
573.43	17945	
573.62	16021	
573.81	16670	
574	17985	
574.2	17935	
574.39	16561	
574.58	16696	
574.78	19178	
574.97	18327	
575.16	17173	
575.36	17298	
575.55	18782	
575.74	18823	
575.93	15980	
576.13	17449	
576.32	18009	
576.51	18661	
576.71	16518	
576.9	18118	
577.09	19051	
577.28	18438	
577.48	17174	
577.67	16093	
577.86	18161	
578.05	18649	
578.25	16805	
578.44	16933	
578.63	18381	
578.83	19632	
579.02	16188	
579.21	18009	
579.4	18570	
579.6	18430	
579.79	17123	
579.98	19556	
580.17	19144	
580.37	19339	
580.56	16737	
580.75	17724	
580.94	19852	
581.14	19677	
581.33	18148	
581.52	17062	
581.71	19467	
581.91	20000	
582.1	16891	
582.29	17615	
582.48	19192	
582.68	19149	
582.87	18062	
583.06	17635	
583.25	19581	
583.45	18853	
583.64	18596	
583.83	19344	
584.02	18907	
584.21	19551	
584.41	18656	
584.6	17966	
584.79	19272	
584.98	20237	
585.18	17218	
585.37	17258	
585.56	18590	
585.75	19642	
585.94	17318	
586.14	18017	
586.33	19908	
586.52	18987	
586.71	17518	
586.91	17212	
587.1	18053	
587.29	19118	
587.48	16805	
587.67	16567	
587.87	18594	
588.06	18366	
588.25	17700	
588.44	16770	
588.63	17736	
588.83	18000	
589.02	15572	
589.21	15038	
589.4	16192	
589.59	15919	
589.78	13493	
589.98	13568	
590.17	14866	
590.36	15388	
590.55	12461	
590.74	13170	
590.94	16442	
591.13	14808	
591.32	12914	
591.51	12413	
591.7	15427	
591.89	14998	
592.09	12680	
592.28	13229	
592.47	14186	
592.66	16175	
592.85	12865	
593.05	13156	
593.24	14968	
593.43	15884	
593.62	13466	
593.81	14016	
594	15215	
594.19	15649	
594.39	13397	
594.58	13253	
594.77	15540	
594.96	16094	
595.15	13145	
595.34	13894	
595.54	15380	
595.73	14474	
595.92	12498	
596.11	13695	
596.3	15918	
596.49	14674	
596.68	13500	
596.88	14093	
597.07	15954	
597.26	14699	
597.45	13196	
597.64	14495	
597.83	15162	
598.02	15846	
598.22	13317	
598.41	14244	
598.6	15714	
598.79	15068	
598.98	13553	
599.17	14584	
599.36	15721	
599.55	16962	
599.74	15907	
599.94	15889	
600.13	16455	
600.32	15264	
600.51	13600	
600.7	13775	
600.89	17292	
601.08	17379	
601.27	13803	
601.47	14838	
601.66	16588	
601.85	17476	
602.04	14634	
602.23	14859	
602.42	15781	
602.61	16563	
602.8	14662	
602.99	14241	
603.18	16314	
603.37	16550	
603.57	14993	
603.76	15703	
603.95	17297	
604.14	16926	
604.33	14709	
604.52	15018	
604.71	16753	
604.9	16280	
605.09	15566	
605.28	15440	
605.47	17392	
605.66	16947	
605.86	15199	
606.05	14721	
606.24	17293	
606.43	15777	
606.62	15003	
606.81	15838	
607	17170	
607.19	16412	
607.38	14489	
607.57	14622	
607.76	16098	
607.95	15625	
608.14	14882	
608.33	15734	
608.52	16053	
608.72	17083	
608.91	14167	
609.1	14136	
609.29	16216	
609.48	15539	
609.67	14959	
609.86	14147	
610.05	15628	
610.24	15954	
610.43	13810	
610.62	13565	
610.81	17126	
611	16882	
611.19	14119	
611.38	14882	
611.57	16368	
611.76	17707	
611.95	13724	
612.14	13560	
612.33	16050	
612.52	15451	
612.71	14494	
612.9	13546	
613.09	15147	
613.28	17672	
613.47	13950	
613.66	15123	
613.85	16234	
614.04	15687	
614.24	14166	
614.43	13260	
614.62	16270	
614.81	16188	
615	14717	
615.19	14894	
615.38	15435	
615.57	16056	
615.76	14560	
615.95	15705	
616.14	16414	
616.33	15920	
616.52	14859	
616.71	15298	
616.9	16393	
617.09	16309	
617.28	14219	
617.47	15644	
617.66	15549	
617.85	15577	
618.04	15555	
618.22	14804	
618.41	15988	
618.6	17023	
618.79	14891	
618.98	14661	
619.17	17378	
619.36	15669	
619.55	14900	
619.74	14836	
619.93	16569	
620.12	16167	
620.31	15453	
620.5	15727	
620.69	17283	
620.88	17813	
621.07	16418	
621.26	15547	
621.45	16987	
621.64	17077	
621.83	15588	
622.02	14597	
622.21	17146	
622.4	16793	
622.59	16165	
622.78	15989	
622.97	16520	
623.16	17359	
623.35	15421	
623.54	14613	
623.72	16468	
623.91	16642	
624.1	15752	
624.29	14433	
624.48	17680	
624.67	16926	
624.86	15648	
625.05	14607	
625.24	18000	
625.43	16104	
625.62	17423	
625.81	14792	
626	17137	
626.19	16338	
626.38	15654	
626.56	14642	
626.75	15863	
626.94	16655	
627.13	15036	
627.32	13618	
627.51	16225	
627.7	17774	
627.89	13631	
628.08	14922	
628.27	15284	
628.46	15466	
628.65	13898	
628.83	13502	
629.02	16067	
629.21	15573	
629.4	14479	
629.59	14657	
629.78	15561	
629.97	16560	
630.16	14829	
630.35	14229	
630.54	17116	
630.72	16690	
630.91	14225	
631.1	14887	
631.29	16238	
631.48	16321	
631.67	14987	
631.86	14265	
632.05	15705	
632.24	15950	
632.42	14001	
632.61	14706	
632.8	15957	
632.99	15600	
633.18	14842	
633.37	15149	
633.56	16283	
633.75	16118	
633.93	14863	
634.12	14607	
634.31	17028	
634.5	16840	
634.69	14620	
634.88	15017	
635.07	16221	
635.25	16685	
635.44	15441	
635.63	15873	
635.82	16021	
636.01	15470	
636.2	15454	
636.39	15076	
636.57	17314	
636.76	16784	
636.95	14444	
637.14	15832	
637.33	16531	
637.52	17505	
637.7	14138	
637.89	15406	
638.08	16035	
638.27	17557	
638.46	15173	
638.65	15518	
638.83	17544	
639.02	15740	
639.21	14993	
639.4	15634	
639.59	16351	
639.78	15786	
639.96	14169	
640.15	14294	
640.34	15886	
640.53	16198	
640.72	13771	
640.91	14225	
641.09	15262	
641.28	16642	
641.47	14127	
641.66	15025	
641.85	15907	
642.03	16152	
642.22	14674	
642.41	13987	
642.6	15249	
642.79	14662	
642.97	13762	
643.16	14546	
643.35	15124	
643.54	14676	
643.73	13459	
643.91	14254	
644.1	14250	
644.29	14991	
644.48	13159	
644.67	13099	
644.85	14188	
645.04	14362	
645.23	12049	
645.42	12374	
645.6	13499	
645.79	14527	
645.98	12050	
646.17	10821	
646.36	12755	
646.54	13217	
646.73	12370	
646.92	11091	
647.11	12674	
647.29	13811	
647.48	11205	
647.67	10836	
647.86	13921	
648.05	14154	
648.23	11477	
648.42	12953	
648.61	13531	
648.8	13406	
648.98	11350	
649.17	11830	
649.36	13099	
649.55	12560	
649.73	11568	
649.92	12307	
650.11	12904	
650.3	13220	
650.48	11540	
650.67	11407	
650.86	13467	
651.05	12323	
651.23	11471	
651.42	11465	
651.61	12843	
651.79	12906	
651.98	11719	
652.17	11390	
652.36	13446	
652.54	12487	
652.73	11395	
652.92	11271	
653.11	13362	
653.29	13401	
653.48	10438	
653.67	11633	
653.85	12931	
654.04	13973	
654.23	11462	
654.42	10932	
654.6	12037	
654.79	12661	
654.98	10211	
655.16	10750	
655.35	11560	
655.54	11503	
655.73	10367	
655.91	10252	
656.1	12972	
656.29	11638	
656.47	10040	
656.66	12012	
656.85	12136	
657.03	12336	
657.22	10932	
657.41	11075	
657.59	12544	
657.78	12359	
657.97	10699	
658.16	11539	
658.34	13226	
658.53	13807	
658.72	12401	
658.9	13045	
659.09	12789	
659.28	12836	
659.46	11318	
659.65	11381	
659.84	12660	
660.02	13340	
660.21	11148	
660.4	11223	
660.58	13809	
660.77	13076	
660.96	11954	
661.14	10880	
661.33	14254	
661.52	14055	
661.7	10942	
661.89	14824	
662.08	12699	
662.26	12224	
662.45	11075	
662.64	11163	
662.82	13276	
663.01	12496	
663.2	11267	
663.38	12108	
663.57	13136	
663.75	13038	
663.94	11605	
664.13	12755	
664.31	12478	
664.5	13280	
664.69	11626	
664.87	12397	
665.06	12307	
665.25	13016	
665.43	12687	
665.62	12627	
665.8	13355	
665.99	12611	
666.18	11514	
666.36	11612	
666.55	13205	
666.74	13259	
666.92	11156	
667.11	12714	
667.29	12593	
667.48	13201	
667.67	12340	
667.85	11523	
668.04	12656	
668.22	12745	
668.41	11465	
668.6	11652	
668.78	12362	
668.97	12591	
669.15	11739	
669.34	10701	
669.53	12356	
669.71	12757	
669.9	10838	
670.08	11571	
670.27	12380	
670.46	12951	
670.64	11698	
670.83	12067	
671.01	12174	
671.2	12885	
671.38	10962	
671.57	10798	
671.76	13531	
671.94	14231	
672.13	10770	
672.31	11792	
672.5	13078	
672.69	12273	
672.87	10927	
673.06	11302	
673.24	12946	
673.43	12392	
673.61	11594	
673.8	11228	
673.98	13002	
674.17	13330	
674.36	11854	
674.54	11639	
674.73	12618	
674.91	12977	
675.1	11381	
675.28	11014	
675.47	12539	
675.65	13052	
675.84	11204	
676.03	11504	
676.21	12252	
676.4	11769	
676.58	11842	
676.77	11661	
676.95	13823	
677.14	12140	
677.32	10847	
677.51	10609	
677.69	12945	
677.88	11899	
678.06	10639	
678.25	10717	
678.44	12514	
678.62	12113	
678.81	10329	
678.99	11443	
679.18	13315	
679.36	12921	
679.55	10959	
679.73	11605	
679.92	12799	
680.1	11986	
680.29	12285	
680.47	10948	
680.66	12039	
680.84	12890	
681.03	10273	
681.21	11316	
681.4	12093	
681.58	11847	
681.77	10652	
681.95	10488	
682.14	12916	
682.32	13157	
682.51	11498	
682.69	10189	
682.88	11774	
683.06	12332	
683.25	11101	
683.43	11537	
683.62	11904	
683.8	12398	
683.99	11269	
684.17	10451	
684.36	12702	
684.54	11059	
684.73	8970.8	
684.91	9052.7	
685.1	10909	
685.28	10134	
685.46	9326.4	
685.65	9366	
685.83	10860	
686.02	10323	
686.2	8731.9	
686.39	8791.9	
686.57	9934.7	
686.76	11841	
686.94	8854.7	
687.13	9062.9	
687.31	10910	
687.5	10430	
687.68	8473.1	
687.86	9884.2	
688.05	12125	
688.23	9910.8	
688.42	10015	
688.6	9183.1	
688.79	10569	
688.97	10518	
689.16	9631.6	
689.34	8428.8	
689.52	11252	
689.71	11409	
689.89	9693	
690.08	9037.7	
690.26	10516	
690.45	10338	
690.63	9779.1	
690.81	9000.8	
691	9920.4	
691.18	9924.5	
691.37	8906.6	
691.55	11230	
691.74	9744.9	
691.92	11867	
692.1	8837.7	
692.29	8171.4	
692.47	9989.3	
692.66	9297.1	
692.84	8567.3	
693.02	9288.9	
693.21	9656.9	
693.39	10162	
693.58	9387.2	
693.76	8969.4	
693.94	11606	
694.13	11600	
694.31	9136.7	
694.5	10447	
694.68	10492	
694.86	11002	
695.05	9731.3	
695.23	9891	
695.42	11489	
695.6	13859	
695.78	10395	
695.97	9372.9	
696.15	11204	
696.34	10466	
696.52	8798.8	
696.7	9685.5	
696.89	10757	
697.07	9987.9	
697.25	9381.1	
697.44	11049	
697.62	10367	
697.81	10749	
697.99	8807.6	
698.17	9344.2	
698.36	9630.2	
698.54	10329	
698.72	9204.3	
698.91	8214.4	
699.09	9880.8	
699.28	9738.1	
699.46	8882.7	
699.64	8756.4	
699.83	9634.3	
700.01	11101	
700.19	9583.1	
700.38	8107.9	
700.56	11276	
700.74	10067	
700.93	8690.2	
701.11	9584.5	
701.29	10841	
701.48	11986	
701.66	9058.8	
701.84	9140.1	
702.03	10397	
702.21	11157	
702.39	8607.6	
702.58	9091.6	
702.76	10711	
702.94	10865	
703.13	8456.7	
703.31	11071	
703.49	9998.2	
703.68	10956	
703.86	8684.1	
704.04	9781.1	
704.23	10509	
704.41	10938	
704.59	8856.1	
704.78	10088	
704.96	11729	
705.14	10999	
705.33	8682.7	
705.51	9572.9	
705.69	10386	
705.87	11288	
706.06	9899.2	
706.24	8723	
706.42	10756	
706.61	11086	
706.79	9906	
706.97	8817.9	
707.16	10191	
707.34	10850	
707.52	9801.6	
707.7	9036.3	
707.89	10466	
708.07	10095	
708.25	9778.4	
708.44	10136	
708.62	10351	
708.8	11501	
708.98	10320	
709.17	9104.6	
709.35	10711	
709.53	10603	
709.72	8845.9	
709.9	8920.3	
710.08	10882	
710.26	10966	
710.45	10432	
710.63	8981.7	
710.81	10473	
710.99	10539	
711.18	9449.3	
711.36	8960.5	
711.54	10160	
711.72	10763	
711.91	8865.7	
712.09	8236.9	
712.27	10073	
712.45	10701	
712.64	8822.6	
712.82	7662.8	
713	9017.9	
713.18	9108.7	
713.37	7389.8	
713.55	8670.4	
713.73	9511.4	
713.91	7907.2	
714.1	7210.2	
714.28	6498.2	
714.46	8625.4	
714.64	7570.7	
714.83	5532.9	
715.01	6302.3	
715.19	7505.1	
715.37	6817.7	
715.55	5868.1	
715.74	6158.9	
715.92	8384.4	
716.1	6290	
716.28	7260	
716.47	6350.1	
716.65	6881.2	
716.83	7103	
717.01	6191.7	
717.19	6177.4	
717.38	9446.6	
717.56	6862.1	
717.74	6649.1	
717.92	5797.1	
718.1	8393.9	
718.29	7582.9	
718.47	5681.1	
718.65	6474.3	
718.83	8551.6	
719.01	8523.6	
719.2	5805.3	
719.38	6943.3	
719.56	8348.2	
719.74	9891	
719.92	6335.1	
720.11	7391.8	
720.29	8173.4	
720.47	7099.6	
720.65	5672.9	
720.83	6436.1	
721.02	7272.3	
721.2	6993.1	
721.38	6390.3	
721.56	5625.8	
721.74	6498.9	
721.92	6714.6	
722.11	6918	
722.29	6559	
722.47	7941.3	
722.65	6999.3	
722.83	5565	
723.01	6537.8	
723.2	7193.1	
723.38	7548.1	
723.56	5008.6	
723.74	6173.9	
723.92	6582.9	
724.1	7895.6	
724.29	5528.2	
724.47	6765.1	
724.65	6673.6	
724.83	6645.7	
725.01	5448.3	
725.19	6504.3	
725.37	6746.7	
725.56	6812.2	
725.74	5373.2	
725.92	5618.3	
726.1	6692.1	
726.28	6916.7	
726.46	6146	
726.64	5793	
726.83	6907.8	
727.01	7178.8	
727.19	5249.6	
727.37	6165.8	
727.55	7143.3	
727.73	7722.2	
727.91	5276.3	
728.09	5200.5	
728.28	7748.1	
728.46	8396	
728.64	6553.5	
728.82	6516.6	
729	9131.2	
729.18	8383.7	
729.36	5855.1	
729.54	8426	
729.72	9609.1	
729.91	7873.8	
730.09	8146.8	
730.27	6917.4	
730.45	7911.3	
730.63	8680	
730.81	7586.4	
730.99	6642.9	
731.17	9229.5	
731.35	7626	
731.53	7102.4	
731.71	6729.6	
731.9	8933.9	
732.08	8981.7	
732.26	6875.7	
732.44	6501.6	
732.62	9090.9	
732.8	8475.2	
732.98	7259.4	
733.16	6234	
733.34	8456.7	
733.52	7117.4	
733.7	6821.1	
733.88	7234.1	
734.07	8315.4	
734.25	8171.4	
734.43	6326.9	
734.61	8068.3	
734.79	9737.4	
734.97	8077.9	
735.15	6591	
735.33	6918	
735.51	8436.9	
735.69	8029.4	
735.87	8271.1	
736.05	7215	
736.23	8323.6	
736.41	8158.4	
736.59	7047.7	
736.77	7253.2	
736.95	8963.3	
737.13	8337.3	
737.32	6783.6	
737.5	7060.7	
737.68	9450.7	
737.86	8199.4	
738.04	6611.5	
738.22	8600.1	
738.4	8013.7	
738.58	8369.4	
738.76	7301	
738.94	6144.6	
739.12	8217.8	
739.3	8134.5	
739.48	7988.4	
739.66	7774.1	
739.84	8558.5	
740.02	8590.5	
740.2	6408.8	
740.38	6754.2	
740.56	9047.2	
740.74	7706.5	
740.92	7481.2	
741.1	7370.6	
741.28	8391.9	
741.46	8165.3	
741.64	6941.9	
741.82	7526.3	
742	8374.1	
742.18	8285.4	
742.36	7262.8	
742.54	6694.8	
742.72	8927.1	
742.9	7580.9	
743.08	7578.2	
743.26	6343.2	
743.44	9117.6	
743.62	8966	
743.8	7698.3	
743.98	6738.5	
744.16	8661.5	
744.34	8388.5	
744.52	7638.2	
744.7	7585	
744.88	8809	
745.06	8258.1	
745.24	7576.1	
745.42	7693.5	
745.6	8750.3	
745.78	8533.2	
745.96	6280.4	
746.14	6644.3	
746.32	9594.1	
746.5	8798.1	
746.68	7258.7	
746.86	6579.4	
747.03	9254.8	
747.21	7352.2	
747.39	7141.9	
747.57	6607.4	
747.75	8367.3	
747.93	8768.7	
748.11	6595.1	
748.29	6599.2	
748.47	9944.9	
748.65	7970	
748.83	7358.4	
749.01	7107.8	
749.19	8525	
749.37	7713.3	
749.55	6904.4	
749.73	7041.6	
749.91	8179.6	
750.09	7859.4	
750.26	7067.5	
750.44	6391	
750.62	8157.1	
750.8	8150.2	
750.98	6329.6	
751.16	6623.8	
751.34	8221.9	
751.52	7481.9	
751.7	7427.3	
751.88	6230.6	
752.06	8712.7	
752.24	8503.8	
752.42	6124.8	
752.59	6481.8	
752.77	8045.8	
752.95	9442.5	
753.13	7336.5	
753.31	6606.7	
753.49	7750.2	
753.67	8226.7	
753.85	6887.3	
754.03	6422.4	
754.21	8450.6	
754.38	8817.2	
754.56	6510.5	
754.74	5459.2	
754.92	7475.1	
755.1	8028	
755.28	5152.7	
755.46	4961.5	
755.64	8273.1	
755.82	8150.9	
755.99	4729.4	
756.17	4764.9	
756.35	5287.2	
756.53	6921.5	
756.71	3519.1	
756.89	4543.8	
757.07	6504.3	
757.25	5516.5	
757.42	5204.6	
757.6	6241.5	
757.78	6738.5	
757.96	5653.8	
758.14	5027.8	
758.32	4393.6	
758.5	5200.5	
758.67	5954.1	
758.85	4749.9	
759.03	4794.3	
759.21	6163.7	
759.39	5564.3	
759.57	4268	
759.75	5519.3	
759.92	6906.4	
760.1	6119.3	
760.28	5953.4	
760.46	6255.9	
760.64	5981.4	
760.82	5806	
760.99	5964.4	
761.17	5102.2	
761.35	7047.1	
761.53	6071.5	
761.71	5386.8	
761.89	6223.8	
762.06	7099.6	
762.24	6707.8	
762.42	5632.6	
762.6	5416.9	
762.78	6802	
762.96	7499	
763.13	6150.1	
763.31	5984.8	
763.49	7793.9	
763.67	6780.8	
763.85	6862.7	
764.02	7483.3	
764.2	8102.4	
764.38	7222.5	
764.56	5820.3	
764.74	6704.4	
764.91	8279.9	
765.09	7002	
765.27	5507	
765.45	5272.8	
765.63	8276.5	
765.8	8082	
765.98	4999.1	
766.16	5397.8	
766.34	6544.6	
766.52	6406	
766.69	6352.8	
766.87	5094.7	
767.05	7070.3	
767.23	7728.4	
767.41	5457.2	
767.58	5718.6	
767.76	7524.9	
767.94	7620.5	
768.12	5481.7	
768.29	6346	
768.47	7015.7	
768.65	7913.4	
768.83	5094.7	
769	6324.8	
769.18	6567.2	
769.36	7292.1	
769.54	6120.7	
769.72	5054.4	
769.89	7490.1	
770.07	7660.8	
770.25	5420.3	
770.43	6806.8	
770.6	8301.1	
770.78	8755.7	
770.96	5606.7	
771.14	6274.3	
771.31	7402	
771.49	6688	
771.67	4688.5	
771.85	4953.4	
772.02	5869.5	
772.2	6627.9	
772.38	5693.4	
772.55	5190.2	
772.73	6880.5	
772.91	6612.9	
773.09	5521.3	
773.26	5636.7	
773.44	6776	
773.62	6469.5	
773.8	4999.8	
773.97	4635.9	
774.15	6875.7	
774.33	6438.1	
774.5	4846.9	
774.68	5195.7	
774.86	7047.7	
775.04	6439.5	
775.21	4894.6	
775.39	4916.5	
775.57	6625.2	
775.74	7137.9	
775.92	4681	
776.1	4605.9	
776.27	6573.3	
776.45	7961.1	
776.63	4890.5	
776.81	4384	
776.98	6222.4	
777.16	7393.8	
777.34	4904.2	
777.51	5255.8	
777.69	6176	
777.87	5997.1	
778.04	4991.6	
778.22	5662.6	
778.4	5973.9	
778.57	6572.6	
778.75	4178.5	
778.93	4427.7	
779.1	5700.9	
779.28	5620.3	
779.46	4188.1	
779.64	4678.2	
779.81	6787	
779.99	7716.1	
780.17	5427.1	
780.34	5617.6	
780.52	6129.6	
780.69	6324.8	
780.87	4894	
781.05	4552.6	
781.22	6161.7	
781.4	6243.6	
781.58	4574.5	
781.75	3725.9	
781.93	6072.9	
782.11	5563.6	
782.28	5565.7	
782.46	4577.2	
782.64	5354.8	
782.81	6328.9	
782.99	4635.9	
783.17	4583.4	
783.34	6180.1	
783.52	5372.5	
783.69	4792.2	
783.87	5627.1	
784.05	5469.4	
784.22	5425.8	
784.4	5617.6	
784.58	4820.2	
784.75	6424.5	
784.93	5469.4	
785.1	4444.8	
785.28	5113.1	
785.46	6034.7	
785.63	5468.1	
785.81	4408.6	
785.99	4268.6	
786.16	5606	
786.34	5993	
786.51	4326.7	
786.69	4704.2	
786.87	5175.2	
787.04	5726.1	
787.22	3729.4	
787.39	5182	
787.57	5393	
787.75	6621.1	
787.92	5308.3	
788.1	5302.2	
788.27	5446.2	
788.45	5231.2	
788.63	4937	
788.8	3599.6	
788.98	5926.1	
789.15	5091.9	
789.33	3793.5	
789.5	4493.2	
789.68	6369.2	
789.86	6439.5	
790.03	4893.3	
790.21	4231.1	
790.38	6285.2	
790.56	5498.8	
790.73	4046.8	
790.91	4085.7	
791.09	5314.5	
791.26	6149.4	
791.44	4337.6	
791.61	3747.8	
791.79	5350	
791.96	5398.4	
792.14	3867.2	
792.32	3443.3	
792.49	5280.3	
792.67	5461.2	
792.84	3930.7	
793.02	3759.4	
793.19	5737.7	
793.37	6568.5	
793.54	3522.5	
793.72	3837.2	
793.89	6789.7	
794.07	5311.1	
794.25	4520.5	
794.42	3516.4	
794.6	6417	
794.77	6015.6	
794.95	4773.8	
795.12	4119.1	
795.3	5297.4	
795.47	6011.5	
795.65	4597.7	
795.82	4341.7	
796	5133.6	
796.17	7093.5	
796.35	4167.6	
796.52	4963.6	
796.7	5794.4	
796.87	6012.2	
797.05	5220.3	
797.22	5165.7	
797.4	5922	
797.57	6969.2	
797.75	4340.3	
797.92	4078.2	
798.1	6279.8	
798.27	5311.1	
798.45	3501.3	
798.62	3788.7	
798.8	5597.8	
798.97	6171.2	
799.15	4601.8	
799.32	4386.1	
799.5	4799.8	
799.67	5681.7	
799.85	4777.2	
800.02	3384.6	
800.2	5231.2	
800.37	5560.9	
800.55	4899.4	
800.72	4084.3	
800.9	6008.1	
801.07	6567.8	
801.25	5454.4	
801.42	4445.5	
801.6	6146.6	
801.77	5844.9	
801.95	4017.4	
802.12	3979.2	
802.29	5778.7	
802.47	5730.2	
802.64	4433.9	
802.82	3350.5	
802.99	5174.5	
803.17	6266.1	
803.34	4323.3	
803.52	3887.7	
803.69	6922.8	
803.87	4970.4	
804.04	4267.3	
804.21	4397	
804.39	6378.1	
804.56	5446.2	
804.74	3601.7	
804.91	4534.9	
805.09	5206.6	
805.26	5302.2	
805.44	3674.1	
805.61	4053.6	
805.78	5861.3	
805.96	5926.1	
806.13	4414.1	
806.31	4822.3	
806.48	4719.2	
806.66	5299.5	
806.83	4325.3	
807	4341	
807.18	5182	
807.35	5556.8	
807.53	4267.3	
807.7	3440.6	
807.87	6526.2	
808.05	5231.2	
808.22	4719.2	
808.4	3426.9	
808.57	5260.5	
808.74	4824.3	
808.92	3908.2	
809.09	4970.4	
809.27	5044.8	
809.44	5803.9	
809.61	3435.8	
809.79	3837.9	
809.96	6353.5	
810.14	5991	
810.31	3349.8	
810.48	4140.3	
810.66	5326.8	
810.83	6140.5	
811.01	3855	
811.18	4733.5	
811.35	5967.1	
811.53	4655.7	
811.7	4789.5	
811.87	4446.1	
812.05	5261.2	
812.22	5120.6	
812.39	3719.1	
812.57	3665.9	
812.74	5232.6	
812.92	7002	
813.09	4070	
813.26	4543.8	
813.44	6690.7	
813.61	5122.7	
813.78	3411.9	
813.96	4640.7	
814.13	5197.7	
814.3	4802.5	
814.48	5005.2	
814.65	4113.7	
814.82	6554.9	
815	4950.6	
815.17	4249.5	
815.34	5171.1	
815.52	5129.5	
815.69	5117.9	
815.87	4194.2	
816.04	3650.8	
816.21	5270.1	
816.38	4603.8	
816.56	4085.7	
816.73	3833.8	
816.9	6664.1	
817.08	6029.9	
817.25	3851.5	
817.42	4865.3	
817.6	4731.5	
817.77	5234.6	
817.94	4336.2	
818.12	3765.5	
818.29	4913.1	
818.46	7914.7	
818.64	3960.1	
818.81	3701.4	
818.98	4840.7	
819.16	7218.4	
819.33	4618.9	
819.5	4259.1	
819.67	5642.8	
819.85	6290.7	
820.02	4130.8	
820.19	4487.8	
820.37	5470.8	
820.54	5000.5	
820.71	4346.5	
820.88	5377.3	
821.06	5524.7	
821.23	5052.3	
821.4	4371.7	
821.58	4242.7	
821.75	5967.8	
821.92	5384.8	
822.09	3468.6	
822.27	3805.1	
822.44	5262.6	
822.61	5122.7	
822.79	3463.1	
822.96	6761.7	
823.13	5776.6	
823.3	4936.3	
823.48	4002.4	
823.65	3657.7	
823.82	5917.3	
823.99	4729.4	
824.17	5147.9	
824.34	3682.2	
824.51	6959	
824.68	5343.8	
824.86	3811.3	
825.03	4346.5	
825.2	5156.8	
825.37	6340.5	
825.55	3820.8	
825.72	4233.8	
825.89	7001.3	
826.06	6427.9	
826.24	4128.7	
826.41	4218.8	
826.58	6363.7	
826.75	5548.6	
826.92	3237.8	
827.1	3599.6	
827.27	8780.3	
827.44	6977.4	
827.61	3903.4	
827.79	4763.6	
827.96	4863.9	
828.13	5393	
828.3	4086.4	
828.47	3442.6	
828.65	5465.3	
828.82	5406.6	
828.99	5339.7	
829.16	4693.3	
829.34	5823.7	
829.51	5635.3	
829.68	4257	
829.85	4485.1	
830.02	6128.9	
830.2	5895.4	
830.37	3229.6	
830.54	5169.8	
830.71	6734.4	
830.88	5230.5	
831.05	3353.9	
831.23	3858.4	
831.4	6386.2	
831.57	7171.3	
831.74	3941.7	
831.91	3487.7	
832.09	5425.1	
832.26	5896.8	
832.43	4111.6	
832.6	4596.3	
832.77	5451	
832.94	6333.7	
833.12	3180.5	
833.29	4040.6	
833.46	5528.2	
833.63	7509.2	
833.8	4537.6	
833.97	4140.3	
834.15	5927.5	
834.32	5591	
834.49	4260.5	
834.66	4373.1	
834.83	6057.9	
835	4896	
835.17	3917.8	
835.35	3942.3	
835.52	5723.4	
835.69	5607.3	
835.86	4187.4	
836.03	3420.1	
836.2	5758.2	
836.37	5402.5	
836.55	4095.3	
836.72	3836.5	
836.89	5351.3	
837.06	5848.3	
837.23	4162.8	
837.4	4631.8	
837.57	6716.7	
837.75	7477.1	
837.92	3743	
838.09	3977.2	
838.26	5423	
838.43	6168.5	
838.6	4326	
838.77	3842.7	
838.94	7107.8	
839.11	6709.1	
839.29	4085.7	
839.46	3189.4	
839.63	5829.9	
839.8	5543.2	
839.97	3973.7	
840.14	4011.3	
840.31	5585.5	
840.48	5798.5	
840.65	3267.9	
840.82	3854.3	
841	5840.8	
841.17	5758.2	
841.34	3720.5	
841.51	3681.6	
841.68	5724.1	
841.85	5509.7	
842.02	3771	
842.19	3102	
842.36	5572.5	
842.53	5615.5	
842.7	3607.8	
842.87	4523.3	
843.05	7431.4	
843.22	5546.6	
843.39	3451.5	
843.56	3743	
843.73	5239.4	
843.9	5883.1	
844.07	6004	
844.24	4984.8	
844.41	8707.3	
844.58	4971.1	
844.75	3503.4	
844.92	3781.9	
845.09	5884.5	
845.26	5786.2	
845.43	3598.3	
845.6	3808.5	
845.77	5836	
845.94	5550.7	
846.12	3972.4	
846.29	4293.2	
846.46	6073.6	
846.63	5865.4	
846.8	3643.3	
846.97	4341.7	
847.14	6334.4	
847.31	5740.5	
847.48	4057	
847.65	4539	
847.82	6104.3	
847.99	6105	
848.16	4915.1	
848.33	4496.7	
848.5	5332.2	
848.67	6367.1	
848.84	3577.8	
849.01	3779.2	
849.18	5252.4	
849.35	4857.8	
849.52	4552	
849.69	3526.6	
849.86	6023.8	
850.03	6298.9	
850.2	3607.8	
850.37	4473.4	
850.54	6187.6	
850.71	5483.8	
850.88	4305.5	
851.05	3585.3	
851.22	5722.7	
851.39	6363.7	
851.56	3434.4	
851.73	4199.7	
851.9	5063.9	
852.07	6068.1	
852.24	4021.5	
852.41	3606.5	
852.58	5668.8	
852.75	5160.2	
852.92	4060.4	
853.09	3534.1	
853.26	5358.2	
853.43	6264.7	
853.6	3549.8	
853.77	3099.9	
853.94	6414.2	
854.11	5071.5	
854.28	5327.4	
854.44	3923.2	
854.61	6847.7	
854.78	5939.8	
854.95	3600.3	
855.12	4616.1	
855.29	4652.3	
855.46	6518	
855.63	3663.1	
855.8	5070.8	
855.97	5337.7	
856.14	6180.1	
856.31	5108.3	
856.48	3965.6	
856.65	5311.1	
856.82	5059.8	
856.99	3455.6	
857.16	3908.2	
857.33	7203.4	
857.49	5468.8	
857.66	3898.6	
857.83	4272.1	
858	5389.6	
858.17	5601.9	
858.34	3422.2	
858.51	3624.2	
858.68	6586.3	
858.85	6625.2	
859.02	4207.2	
859.19	4521.9	
859.36	5080.3	
859.52	5158.2	
859.69	3629	
859.86	4307.6	
860.03	5155.4	
860.2	6369.9	
860.37	3285.6	
860.54	3618.1	
860.71	6046.3	
860.88	6499.6	
861.05	4103.4	
861.21	4549.2	
861.38	6567.2	
861.55	5003.2	
861.72	3310.2	
861.89	4018.1	
862.06	6141.2	
862.23	6675.7	
862.4	3515	
862.56	3736.9	
862.73	5982.8	
862.9	5552.7	
863.07	4271.4	
863.24	3229	
863.41	4998.4	
863.58	5102.9	
863.75	3709.6	
863.91	4190.1	
864.08	6399.2	
864.25	6070.2	
864.42	4526.7	
864.59	5110.4	
864.76	6838.2	
864.93	5074.9	
865.09	3525.2	
865.26	3915	
865.43	6337.8	
865.6	6780.1	
865.77	3127.2	
865.94	3601	
866.1	6415.6	
866.27	6164.4	
866.44	5507	
866.61	3426.9	
866.78	5464.7	
866.95	5922.7	
867.11	3434.4	
867.28	3195.5	
867.45	6150.7	
867.62	5125.4	
867.79	4197.7	
867.96	3580.5	
868.12	5096.7	
868.29	6005.3	
868.46	3583.3	
868.63	4872.1	
868.8	6297.5	
868.97	6006	
869.13	3779.9	
869.3	3735.5	
869.47	5960.3	
869.64	6155.5	
869.81	3651.5	
869.97	3622.2	
870.14	5785.5	
870.31	6542.6	
870.48	3529.3	
870.65	4523.3	
870.81	5404.6	
870.98	5362.9	
871.15	4124.6	
871.32	3736.9	
871.48	5940.5	
871.65	6535.8	
871.82	3577.8	
871.99	3981.9	
872.16	7008.8	
872.32	6410.1	
872.49	3617.4	
872.66	3719.8	
872.83	6107	
872.99	5259.2	
873.16	4138.3	
873.33	3554.6	
873.5	5698.1	
873.67	5685.8	
873.83	3758.7	
874	4919.2	
874.17	5836	
874.34	6954.9	
874.5	4689.8	
874.67	4551.3	
874.84	6537.1	
875.01	5096.7	
875.17	5160.9	
875.34	3596.9	
875.51	5730.2	
875.68	6941.9	
875.84	4372.4	
876.01	5400.5	
876.18	5995.8	
876.34	5943.9	
876.51	3618.1	
876.68	3519.8	
876.85	5447.6	
877.01	6301.6	
877.18	5166.3	
877.35	3598.3	
877.52	5580	
877.68	4999.8	
877.85	3523.9	
878.02	3562.1	
878.18	5611.4	
878.35	5243.5	
878.52	2899.2	
878.69	4040.6	
878.85	6082.5	
879.02	6007.4	
879.19	5137.7	
879.35	3909.6	
879.52	6034.7	
879.69	6240.8	
879.86	3115.6	
880.02	4056.3	
880.19	5569.8	
880.36	6782.9	
880.52	4201.7	
880.69	4293.9	
880.86	6130.9	
881.02	6204.7	
881.19	3895.9	
881.36	3919.1	
881.52	5902.9	
881.69	5317.2	
881.86	3962.1	
882.02	3790.1	
882.19	6303	
882.36	7346.1	
882.52	3716.4	
882.69	5142.4	
882.86	5767.1	
883.02	5648.3	
883.19	4371.7	
883.36	4126	
883.52	6102.9	
883.69	7076.4	
883.86	3667.9	
884.02	3225.6	
884.19	6039.5	
884.36	5580	
884.52	4092.5	
884.69	3783.3	
884.86	5279	
885.02	6733.7	
885.19	4027.7	
885.36	4160.8	
885.52	5653.8	
885.69	5795.8	
885.86	5256.5	
886.02	4704.9	
886.19	6091.3	
886.35	5542.5	
886.52	4035.2	
886.69	5147.9	
886.85	5147.9	
887.02	6487.3	
887.19	6487.3	
887.35	6487.3	
887.52	6487.3	
887.68	6487.3	
887.85	6487.3	
888.02	6487.3	
888.18	6487.3	
888.35	6487.3	
888.51	6487.3	
888.68	6487.3	
888.85	6487.3	
889.01	6487.3	
889.18	6487.3	
889.35	6487.3	
889.51	6487.3	
889.68	6487.3	
889.84	6487.3	
890.01	6487.3	
890.17	6487.3	
890.34	6487.3	
890.51	6487.3	
890.67	6487.3	
890.84	6487.3	
891	6487.3	
891.17	6487.3	
891.34	6487.3	
891.5	6487.3	
891.67	6487.3	
891.83	6487.3	
892	6487.3	
892.16	6487.3	
892.33	6487.3	
892.5	6487.3	
892.66	6487.3	
892.83	6487.3	
892.99	6487.3	
893.16	6487.3	
893.32	6487.3	
893.49	6487.3	
893.65	6487.3	
893.82	6487.3	
893.99	6487.3	
894.15	6487.3	
894.32	6487.3	
894.48	6487.3	
894.65	6487.3	
894.81	6487.3	
894.98	6487.3	
895.14	6487.3	
895.31	6487.3	
895.47	6487.3	
895.64	6487.3	
895.81	6487.3	
895.97	6487.3	
896.14	6487.3	
896.3	6487.3	
896.47	6487.3	
896.63	6487.3	
896.8	6487.3	
896.96	6487.3	
897.13	6487.3	
897.29	6487.3	
897.46	6487.3	
897.62	6487.3	
897.79	6487.3	
897.95	6487.3	
898.12	6487.3	
898.28	6487.3	
898.45	6487.3	
898.61	6487.3	
898.78	6487.3	
898.94	6487.3	
899.11	6487.3	
899.27	6487.3	
899.44	6487.3	
899.6	6487.3	
899.77	6487.3	
899.93	6487.3	
900.1	6487.3	
900.26	6487.3	
900.43	6487.3	
900.59	6487.3	
900.76	6487.3	
900.92	6487.3	
901.09	6487.3	
901.25	6487.3	
901.42	6487.3	
901.58	6487.3	
901.75	6487.3	
901.91	6487.3	
902.07	6487.3	
902.24	6487.3	
902.4	6487.3	
902.57	6487.3	
902.73	6487.3	
902.9	6487.3	
903.06	6487.3	
903.23	6487.3	
903.39	6487.3	
903.56	6487.3	
903.72	6487.3	
903.88	6487.3	
904.05	6487.3	
904.21	6487.3	
904.38	6487.3	
904.54	6487.3	
904.71	6487.3	
904.87	6487.3	
905.03	6487.3	
905.2	6487.3	
905.36	6487.3	
905.53	6487.3	
905.69	6487.3	
905.86	6487.3	
906.02	6487.3	
906.18	6487.3	
906.35	6487.3	
906.51	6487.3	
906.68	6487.3	
906.84	6487.3	
907.01	6487.3	
907.17	6487.3	
907.33	6487.3	
907.5	6487.3	
907.66	6487.3	
907.83	6487.3	
907.99	6487.3	
908.15	6487.3	
908.32	6487.3	
908.48	6487.3	
908.65	6487.3	
908.81	6487.3	
908.97	6487.3	
909.14	6487.3	
909.3	6487.3	
909.47	6487.3	
909.63	6487.3	
909.79	6487.3	
909.96	6487.3	
910.12	6487.3	
910.28	6487.3	
910.45	6487.3	
910.61	6487.3	
910.78	6487.3	
910.94	6487.3	
911.1	6487.3	
911.27	6487.3	
911.43	6487.3	
911.59	6487.3	
911.76	6487.3	
911.92	6487.3	
912.08	6487.3	
912.25	6487.3	
912.41	6487.3	
912.57	6487.3	
912.74	6487.3	
912.9	6487.3	
913.07	6487.3	
913.23	6487.3	
913.39	6487.3	
913.56	6487.3	
913.72	6487.3	
913.88	6487.3	
914.05	6487.3	
914.21	6487.3	
914.37	6487.3	
914.54	6487.3	
914.7	6487.3	
914.86	6487.3	
915.03	6487.3	
915.19	6487.3	
