Wavelength	Intensities	
nm	a.u.	
179.22	1698.3	
179.44	1694.7	
179.65	1701.9	
179.86	1687.5	
180.08	1686.8	
180.29	3864.5	
180.51	2938.8	
180.72	4882.4	
180.94	5493.3	
181.15	2670.6	
181.37	2594.1	
181.58	4712.4	
181.79	4934.2	
182.01	2745	
182.22	2966.1	
182.44	4897.4	
182.65	4216.8	
182.87	3543.7	
183.08	3154.6	
183.29	5099.4	
183.51	4347.2	
183.72	2897.2	
183.94	4043.4	
184.15	4718.5	
184.37	4587.4	
184.58	2671.9	
184.79	3364.8	
185.01	4416.1	
185.22	4947.2	
185.44	3557.3	
185.65	3077.4	
185.86	4683	
186.08	4330.8	
186.29	2581.1	
186.51	2732.7	
186.72	4414.1	
186.94	5034.6	
187.15	3136.8	
187.36	3177.8	
187.58	6216.3	
187.79	4674.1	
188.01	3203.7	
188.22	4846.9	
188.43	5488.6	
188.65	4889.2	
188.86	2782.5	
189.08	3169.6	
189.29	4495.3	
189.5	4473.4	
189.72	2927.9	
189.93	2976.4	
190.15	5026.4	
190.36	5783.5	
190.57	3198.9	
190.79	3103.4	
191	5097.4	
191.22	5060.5	
191.43	3204.4	
191.64	2790	
191.86	5232.6	
192.07	5027.8	
192.29	2835.1	
192.5	2895.1	
192.71	5083.7	
192.93	4484.4	
193.14	2919	
193.35	3022.1	
193.57	4484.4	
193.78	5016.8	
194	2414.6	
194.21	2876.7	
194.42	4321.2	
194.64	4620.2	
194.85	3117.7	
195.07	3616.7	
195.28	4613.4	
195.49	4179.9	
195.71	3810.6	
195.92	2784.6	
196.13	4799.8	
196.35	4910.3	
196.56	3966.9	
196.78	3246.7	
196.99	5794.4	
197.2	5412.1	
197.42	3491.8	
197.63	3155.2	
197.84	4223.6	
198.06	4810	
198.27	2970.2	
198.48	3774.4	
198.7	4432.5	
198.91	4687.1	
199.13	3166.8	
199.34	3169.6	
199.55	5033.2	
199.77	4078.9	
199.98	2809.8	
200.19	3131.3	
200.41	4587.4	
200.62	4380.6	
200.83	3293.8	
201.05	3513.6	
201.26	4624.3	
201.47	4432.5	
201.69	2919	
201.9	2792.1	
202.11	4661.9	
202.33	5330.9	
202.54	3008.5	
202.76	3373	
202.97	4706.2	
203.18	4780	
203.4	3308.8	
203.61	3321.8	
203.82	4676.9	
204.04	4418.2	
204.25	3208.5	
204.46	3147	
204.68	4640	
204.89	4795	
205.1	3084.9	
205.32	2755.2	
205.53	4898.1	
205.74	5016.2	
205.96	2437.1	
206.17	3248.8	
206.38	4872.1	
206.6	5053.7	
206.81	3578.5	
207.02	2966.1	
207.24	4868	
207.45	5104.2	
207.66	3059	
207.88	2717	
208.09	4806.6	
208.3	4654.4	
208.52	2859	
208.73	3132	
208.94	4714.4	
209.15	5145.9	
209.37	3028.9	
209.58	3176.4	
209.79	5000.5	
210.01	4555.4	
210.22	2554.5	
210.43	2609.8	
210.65	4611.3	
210.86	4866	
211.07	2988	
211.29	2854.9	
211.5	4844.1	
211.71	4594.3	
211.93	2843.9	
212.14	2865.8	
212.35	4598.4	
212.56	4750.6	
212.78	3224.9	
212.99	2705.4	
213.2	5319.9	
213.42	4535.6	
213.63	2906.8	
213.84	3115	
214.06	4246.1	
214.27	4307.6	
214.48	3044	
214.69	3221.5	
214.91	5148.6	
215.12	5129.5	
215.33	3224.9	
215.55	3478.1	
215.76	5541.1	
215.97	4812.7	
216.18	3136.1	
216.4	3157.3	
216.61	4404.5	
216.82	4973.8	
217.04	2894.5	
217.25	2977.7	
217.46	5133.6	
217.67	4939	
217.89	2616.6	
218.1	2654.2	
218.31	4726	
218.53	4827.1	
218.74	3014.6	
218.95	2921.8	
219.16	4562.2	
219.38	5284.4	
219.59	2910.8	
219.8	3388.7	
220.01	5702.9	
220.23	4656.4	
220.44	3649.5	
220.65	2835.8	
220.87	4751.3	
221.08	5086.5	
221.29	2736.1	
221.5	3418.1	
221.72	5916.6	
221.93	4465.3	
222.14	3215.3	
222.35	3690.4	
222.57	4655	
222.78	4974.5	
222.99	3120.4	
223.2	3257.6	
223.42	4894.6	
223.63	4982.7	
223.84	2450.7	
224.05	2430.9	
224.27	5617.6	
224.48	5284.4	
224.69	3729.4	
224.9	3258.3	
225.12	4812	
225.33	4630.5	
225.54	2628.9	
225.75	2907.4	
225.97	4360.1	
226.18	4607.9	
226.39	3080.8	
226.6	2893.1	
226.82	4468	
227.03	4377.2	
227.24	3199.6	
227.45	2721.1	
227.67	4927.4	
227.88	5238.7	
228.09	3533.4	
228.3	3556	
228.52	4886.5	
228.73	4582.7	
228.94	2991.4	
229.15	2781.1	
229.36	4605.2	
229.58	4580.6	
229.79	3018	
230	3419.4	
230.21	5418.2	
230.43	4725.3	
230.64	3138.2	
230.85	3222.1	
231.06	5032.5	
231.28	4995.7	
231.49	2672.6	
231.7	3167.5	
231.91	4933.6	
232.12	4668.7	
232.34	2795.5	
232.55	3066.5	
232.76	5087.2	
232.97	4724.7	
233.18	2905.4	
233.4	3216	
233.61	4780	
233.82	4439.3	
234.03	2998.9	
234.25	2961.4	
234.46	6116.6	
234.67	4672.8	
234.88	3211.9	
235.09	2904	
235.31	4816.1	
235.52	4553.3	
235.73	3126.6	
235.94	2734.7	
236.15	4459.1	
236.37	5432.6	
236.58	2876.7	
236.79	3082.9	
237	4866	
237.21	4265.9	
237.43	3255.6	
237.64	2650.8	
237.85	7458	
238.06	4355.3	
238.27	3231	
238.48	2773.6	
238.7	4924.7	
238.91	4588.1	
239.12	3073.3	
239.33	3125.2	
239.54	4386.7	
239.76	4530.8	
239.97	3037.1	
240.18	3050.8	
240.39	5531.6	
240.6	4813.4	
240.82	3263.8	
241.03	2671.9	
241.24	4623.6	
241.45	5199.8	
241.66	2865.8	
241.87	3263.8	
242.09	5226.4	
242.3	5384.1	
242.51	3308.8	
242.72	3060.3	
242.93	4936.3	
243.14	4592.9	
243.36	3555.3	
243.57	3749.1	
243.78	5248.9	
243.99	4907.6	
244.2	3112.9	
244.41	2818.7	
244.63	4328.7	
244.84	4776.5	
245.05	3317	
245.26	3051.5	
245.47	4867.3	
245.68	4973.2	
245.9	3882.9	
246.11	3211.9	
246.32	4459.8	
246.53	4826.4	
246.74	4774.5	
246.95	2620.7	
247.16	4423.6	
247.38	4655.7	
247.59	2696.5	
247.8	3067.9	
248.01	4354.7	
248.22	4626.4	
248.43	2872.6	
248.64	2986.6	
248.86	4270.7	
249.07	4502.1	
249.28	2790.7	
249.49	3150.5	
249.7	5009.3	
249.91	5045.5	
250.12	2632.3	
250.34	2708.8	
250.55	4767.7	
250.76	4738.3	
250.97	3166.2	
251.18	3193.5	
251.39	5056.4	
251.6	4773.1	
251.81	3192.8	
252.03	3199.6	
252.24	4454.3	
252.45	4928.1	
252.66	2712.9	
252.87	3337.5	
253.08	4683.7	
253.29	5808.7	
253.5	2796.2	
253.72	3657.7	
253.93	4616.1	
254.14	5369.8	
254.35	2963.4	
254.56	3066.5	
254.77	4785.4	
254.98	4387.4	
255.19	2966.8	
255.41	3653.6	
255.62	4789.5	
255.83	5043.5	
256.04	3304.7	
256.25	3112.9	
256.46	5474.2	
256.67	4437.9	
256.88	3175	
257.09	3496.6	
257.31	4326	
257.52	4362.9	
257.73	3855.6	
257.94	2964.8	
258.15	4579.3	
258.36	4653.7	
258.57	3547.8	
258.78	2440.5	
258.99	5021.6	
259.2	4485.7	
259.41	2928.6	
259.63	2994.8	
259.84	5236.7	
260.05	5513.1	
260.26	3631	
260.47	2867.2	
260.68	5031.9	
260.89	4506.2	
261.1	3531.4	
261.31	2863.7	
261.52	5094.7	
261.73	5302.9	
261.95	3710.2	
262.16	3269.9	
262.37	5081	
262.58	5220.3	
262.79	3640.6	
263	3021.4	
263.21	4679.6	
263.42	4257.7	
263.63	3218	
263.84	2985.3	
264.05	5006.6	
264.26	5226.4	
264.47	3577.1	
264.69	3164.8	
264.9	5215.5	
265.11	4748.6	
265.32	2885.6	
265.53	2860.3	
265.74	4741	
265.95	4190.1	
266.16	3108.1	
266.37	3348.4	
266.58	4719.2	
266.79	4513	
267	2975	
267.21	2776.4	
267.42	4345.8	
267.63	4622.3	
267.84	3077.4	
268.06	2711.5	
268.27	5045.5	
268.48	5151.3	
268.69	3022.1	
268.9	3472.7	
269.11	5117.2	
269.32	4246.8	
269.53	3048.7	
269.74	2869.2	
269.95	4832.5	
270.16	4222.9	
270.37	3066.5	
270.58	3532.7	
270.79	4545.8	
271	5023	
271.21	3225.6	
271.42	3155.9	
271.63	4786.8	
271.84	4280.3	
272.05	2561.3	
272.26	2809.8	
272.47	4666.6	
272.68	4818.9	
272.89	2983.9	
273.11	3346.4	
273.32	4476.2	
273.53	5231.2	
273.74	3241.3	
273.95	3156.6	
274.16	4948.6	
274.37	4650.3	
274.58	3340.2	
274.79	2754.5	
275	4781.3	
275.21	5036.6	
275.42	3982.6	
275.63	3347.7	
275.84	4872.1	
276.05	5836.7	
276.26	3155.9	
276.47	3059.7	
276.68	4584.7	
276.89	5375.2	
277.1	3365.5	
277.31	2762.7	
277.52	4806.6	
277.73	5094.7	
277.94	2737.5	
278.15	2998.9	
278.36	4777.9	
278.57	4454.3	
278.78	2981.2	
278.99	3270.6	
279.2	4493.2	
279.41	4347.8	
279.62	3788.1	
279.83	2769.5	
280.04	5513.1	
280.25	4332.1	
280.46	3743.7	
280.67	3142.3	
280.88	4379.2	
281.09	5088.5	
281.3	3233.7	
281.51	3964.2	
281.72	4485.1	
281.93	4986.8	
282.14	2945	
282.35	3117	
282.56	5054.4	
282.77	4961.5	
282.98	2993.4	
283.19	3517.7	
283.4	5939.8	
283.61	4614.8	
283.82	2824.1	
284.03	3732.1	
284.24	4791.6	
284.45	5063.3	
284.66	3740.3	
284.87	3531.4	
285.08	5126.7	
285.29	5133.6	
285.5	2702	
285.71	3021.4	
285.92	5086.5	
286.12	5485.1	
286.33	3635.1	
286.54	3042.6	
286.75	5029.8	
286.96	4603.8	
287.17	2813.2	
287.38	3580.5	
287.59	4453	
287.8	4462.5	
288.01	3078.1	
288.22	3363.4	
288.43	4888.5	
288.64	4253.6	
288.85	3473.4	
289.06	3328.6	
289.27	5002.5	
289.48	5222.3	
289.69	3745.7	
289.9	3405.1	
290.11	5128.1	
290.32	4479.6	
290.53	3539.6	
290.74	3229	
290.94	4995	
291.15	4987.5	
291.36	2968.9	
291.57	3371.6	
291.78	4512.4	
291.99	4241.3	
292.2	2835.1	
292.41	3274	
292.62	5077.6	
292.83	4833.2	
293.04	4018.1	
293.25	2870.6	
293.46	4573.1	
293.67	5050.3	
293.88	2884.9	
294.09	2794.8	
294.29	4413.4	
294.5	4741.7	
294.71	3123.8	
294.92	2974.3	
295.13	4553.3	
295.34	5530.2	
295.55	2682.8	
295.76	2610.5	
295.97	4955.4	
296.18	5449.6	
296.39	2788	
296.6	2826.9	
296.81	4713.7	
297.01	4917.2	
297.22	3048.1	
297.43	2984.6	
297.64	4520.5	
297.85	4329.4	
298.06	2487.6	
298.27	2676	
298.48	4653	
298.69	4402.5	
298.9	3128.6	
299.11	2880.1	
299.31	4360.1	
299.52	4319.8	
299.73	3360.7	
299.94	3232.4	
300.15	4683	
300.36	4380.6	
300.57	3244.7	
300.78	3170.9	
300.99	4504.2	
301.2	4706.9	
301.4	2907.4	
301.61	3126.6	
301.82	4922.6	
302.03	4906.3	
302.24	3448.1	
302.45	2828.2	
302.66	4864.6	
302.87	5083.1	
303.08	2939.5	
303.29	3734.8	
303.49	4480.3	
303.7	4616.8	
303.91	2707.4	
304.12	3643.3	
304.33	4297.3	
304.54	4742.4	
304.75	2961.4	
304.96	2848.7	
305.16	4904.9	
305.37	5384.1	
305.58	2658.3	
305.79	2674	
306	4878.9	
306.21	4242	
306.42	2877.4	
306.63	4220.9	
306.83	4516.5	
307.04	4962.9	
307.25	3158.7	
307.46	3142.9	
307.67	4146.5	
307.88	4919.2	
308.09	2942.2	
308.29	2941.6	
308.5	4691.2	
308.71	5020.9	
308.92	3105.4	
309.13	2854.2	
309.34	4653.7	
309.55	4595	
309.75	3566.2	
309.96	3276.1	
310.17	4977.9	
310.38	4375.1	
310.59	3315	
310.8	2736.8	
311.01	4577.2	
311.21	4570.4	
311.42	2871.3	
311.63	2874.7	
311.84	4490.5	
312.05	4690.5	
312.26	3226.2	
312.46	3453.6	
312.67	4518.5	
312.88	4302.8	
313.09	2833	
313.3	2764.1	
313.51	5186.8	
313.71	5467.4	
313.92	2809.1	
314.13	2982.5	
314.34	4801.1	
314.55	4599.1	
314.76	3548.4	
314.96	3053.5	
315.17	4794.3	
315.38	4842.8	
315.59	2864.4	
315.8	2732.7	
316.01	5184.1	
316.21	5277.6	
316.42	2818	
316.63	3064.4	
316.84	4570.4	
317.05	5098.1	
317.26	3257.6	
317.46	3006.4	
317.67	4587.4	
317.88	4952	
318.09	3498.6	
318.3	2693.1	
318.5	4485.7	
318.71	4777.2	
318.92	4306.9	
319.13	3302	
319.34	4993.6	
319.54	5127.4	
319.75	2683.5	
319.96	2568.8	
320.17	4878.9	
320.38	5047.6	
320.58	2632.3	
320.79	3075.4	
321	5030.5	
321.21	5141.8	
321.42	3110.9	
321.62	2674	
321.83	4402.5	
322.04	4666	
322.25	3010.5	
322.46	2837.1	
322.66	4732.9	
322.87	4842.8	
323.08	3361.4	
323.29	2756.6	
323.5	5421	
323.7	4326.7	
323.91	3710.2	
324.12	3358.7	
324.33	4745.1	
324.53	4903.5	
324.74	3290.4	
324.95	3315.7	
325.16	4234.5	
325.37	4524.6	
325.57	2809.1	
325.78	2889	
325.99	4772.4	
326.2	4248.2	
326.4	3903.4	
326.61	2695.1	
326.82	4631.8	
327.03	4747.9	
327.24	3909.6	
327.44	3657	
327.65	4914.4	
327.86	4028.4	
328.07	3249.4	
328.27	2764.1	
328.48	5177.3	
328.69	4350.6	
328.9	3840.6	
329.1	2985.9	
329.31	4636.6	
329.52	5203.2	
329.73	2887	
329.93	3089.7	
330.14	4703.5	
330.35	4730.8	
330.56	4398.4	
330.76	3360.7	
330.97	4538.3	
331.18	4726	
331.39	3065.1	
331.59	2620.7	
331.8	5035.3	
332.01	5123.3	
332.22	2928.6	
332.42	3198.9	
332.63	4802.5	
332.84	4394.9	
333.05	3146.4	
333.25	2885.6	
333.46	4444.1	
333.67	4613.4	
333.88	2958.6	
334.08	3235.8	
334.29	5888.6	
334.5	5052.3	
334.7	2766.8	
334.91	3825.6	
335.12	4319.8	
335.33	4891.9	
335.53	3132	
335.74	4346.5	
335.95	4569	
336.16	4358.1	
336.36	3079.5	
336.57	3481.5	
336.78	4250.2	
336.98	5010	
337.19	3752.6	
337.4	3013.2	
337.61	5431.9	
337.81	4306.9	
338.02	2957.3	
338.23	3614	
338.43	5215.5	
338.64	4392.2	
338.85	2879.4	
339.05	3653.6	
339.26	5243.5	
339.47	4222.9	
339.68	2833	
339.88	4000.4	
340.09	4881	
340.3	5028.4	
340.5	3263.1	
340.71	2613.2	
340.92	4318.5	
341.13	5126.1	
341.33	2720.4	
341.54	3296.5	
341.75	4858.5	
341.95	4530.1	
342.16	3173	
342.37	3322.5	
342.57	4382	
342.78	4595	
342.99	3452.2	
343.19	2642.6	
343.4	4928.1	
343.61	4813.4	
343.81	3052.8	
344.02	2755.2	
344.23	4948.6	
344.43	5145.2	
344.64	3424.9	
344.85	3363.4	
345.06	4792.9	
345.26	5055.8	
345.47	3237.2	
345.68	3693.2	
345.88	4247.5	
346.09	4957.4	
346.3	3308.2	
346.5	2555.2	
346.71	4575.2	
346.92	4379.9	
347.12	2747.7	
347.33	3182.5	
347.54	5043.5	
347.74	5286.5	
347.95	3162.7	
348.16	2514.9	
348.36	4508.9	
348.57	4354	
348.78	3243.3	
348.98	3424.9	
349.19	4529.4	
349.39	4231.1	
349.6	2682.2	
349.81	2919.7	
350.01	4878.3	
350.22	4386.7	
350.43	3192.8	
350.63	3629	
350.84	4687.1	
351.05	4412	
351.25	2835.8	
351.46	2667.1	
351.67	5016.2	
351.87	4366.3	
352.08	3001	
352.29	3359.4	
352.49	4956.1	
352.7	4939	
352.9	2738.1	
353.11	3357.3	
353.32	5400.5	
353.52	4487.1	
353.73	2734.7	
353.94	3380.5	
354.14	4828.4	
354.35	4567	
354.55	2851.5	
354.76	3106.8	
354.97	4844.8	
355.17	4620.9	
355.38	2735.4	
355.59	3568.9	
355.79	4403.8	
356	4590.2	
356.2	3091.8	
356.41	2740.9	
356.62	4267.3	
356.82	4481.6	
357.03	3315	
357.24	2966.8	
357.44	4383.3	
357.65	4438.6	
357.85	3803.8	
358.06	3095.2	
358.27	4148.5	
358.47	4311.7	
358.68	2652.1	
358.88	3273.3	
359.09	4760.8	
359.3	4941.1	
359.5	3728	
359.71	3317	
359.91	5233.2	
360.12	4784.1	
360.33	3251.5	
360.53	3564.8	
360.74	4362.9	
360.94	4399.7	
361.15	3340.9	
361.36	2857.6	
361.56	4956.8	
361.77	4559.5	
361.97	3675.4	
362.18	2994.8	
362.38	4949.9	
362.59	4218.1	
362.8	2821.4	
363	2706.7	
363.21	4098	
363.41	4632.5	
363.62	3201.7	
363.83	3777.8	
364.03	4682.3	
364.24	5222.3	
364.44	3949.8	
364.65	3920.5	
364.85	4511.7	
365.06	4313	
365.27	2902.7	
365.47	2963.4	
365.68	5128.8	
365.88	4495.3	
366.09	3142.3	
366.29	2959.3	
366.5	4540.3	
366.71	4865.3	
366.91	3820.1	
367.12	3301.3	
367.32	5390.9	
367.53	4855.7	
367.73	3334.8	
367.94	3933.5	
368.14	4857.8	
368.35	5307.7	
368.56	3282.9	
368.76	3080.1	
368.97	4919.2	
369.17	5961	
369.38	2937.5	
369.58	3108.1	
369.79	4140.3	
369.99	5130.2	
370.2	3827	
370.4	3130.7	
370.61	4624.3	
370.82	5525.4	
371.02	3065.8	
371.23	2630.3	
371.43	4210.6	
371.64	5093.3	
371.84	3136.1	
372.05	3842	
372.25	5870.2	
372.46	4743.8	
372.66	3074	
372.87	3103.4	
373.07	4851	
373.28	6034	
373.48	3772.4	
373.69	3523.9	
373.9	4518.5	
374.1	4562.9	
374.31	3672.7	
374.51	3340.9	
374.72	5070.8	
374.92	4281.6	
375.13	3804.4	
375.33	3254.2	
375.54	4744.5	
375.74	4408.6	
375.95	3349.1	
376.15	4120.5	
376.36	4857.1	
376.56	4666.6	
376.77	3272	
376.97	3632.4	
377.18	5501.5	
377.38	4844.1	
377.59	3748.5	
377.79	2957.3	
378	4648.9	
378.2	4896	
378.41	2993.4	
378.61	2931.3	
378.82	5012.7	
379.02	4429.1	
379.23	3153.9	
379.43	3846.8	
379.64	5118.6	
379.84	4766.3	
380.05	3001	
380.25	2939.5	
380.46	4845.5	
380.66	4580.6	
380.87	3925.3	
381.07	4136.2	
381.28	5262.6	
381.48	4848.9	
381.69	3025.5	
381.89	3052.8	
382.1	4149.2	
382.3	4874.8	
382.51	3697.3	
382.71	4379.2	
382.91	4809.3	
383.12	5158.2	
383.32	3312.2	
383.53	3424.2	
383.73	4768.4	
383.94	4681.7	
384.14	3484.3	
384.35	2810.5	
384.55	4544.4	
384.76	4833.9	
384.96	3335.5	
385.17	3502.7	
385.37	4853	
385.58	4279.6	
385.78	3533.4	
385.98	2779.1	
386.19	4524	
386.39	4818.9	
386.6	3095.8	
386.8	3268.6	
387.01	4862.6	
387.21	4902.2	
387.42	3523.9	
387.62	3913.7	
387.83	4427.7	
388.03	4678.9	
388.23	3321.1	
388.44	3854.3	
388.64	4220.2	
388.85	4220.2	
389.05	3526.6	
389.26	3893.2	
389.46	5681.7	
389.67	5184.1	
389.87	3558	
390.07	3496.6	
390.28	4554	
390.48	4328	
390.69	2990	
390.89	3204.4	
391.1	4473.4	
391.3	5060.5	
391.5	4020.2	
391.71	4420.9	
391.91	4870.8	
392.12	5455.1	
392.32	4085.7	
392.53	3592.1	
392.73	4468	
392.93	4596.3	
393.14	3345	
393.34	3828.3	
393.55	4990.9	
393.75	4607.2	
393.95	3292.5	
394.16	3280.2	
394.36	4451.6	
394.57	4906.9	
394.77	2988.7	
394.98	3205.1	
395.18	4348.5	
395.38	4522.6	
395.59	3829.7	
395.79	3056.9	
396	4535.6	
396.2	4837.3	
396.4	3670	
396.61	3561.4	
396.81	4890.5	
397.02	4379.2	
397.22	3808.5	
397.42	3812.6	
397.63	4973.8	
397.83	4349.2	
398.04	3062.4	
398.24	3365.5	
398.44	4792.9	
398.65	4028.4	
398.85	2944.3	
399.05	2993.4	
399.26	4429.8	
399.46	5522.7	
399.67	3332	
399.87	3074.7	
400.07	4661.2	
400.28	4845.5	
400.48	3160.7	
400.69	3859.7	
400.89	4926	
401.09	5300.1	
401.3	3028.9	
401.5	3828.3	
401.7	5397.8	
401.91	5528.8	
402.11	3396.9	
402.32	3467.9	
402.52	5057.8	
402.72	4887.1	
402.93	3676.8	
403.13	2824.8	
403.33	5517.9	
403.54	4672.1	
403.74	3450.1	
403.94	3959.4	
404.15	4731.5	
404.35	5540.4	
404.56	3278.1	
404.76	4497.3	
404.96	5027.1	
405.17	4838	
405.37	4078.9	
405.57	3594.9	
405.78	5002.5	
405.98	4657.1	
406.18	3295.2	
406.39	3828.3	
406.59	5057.1	
406.79	4678.9	
407	3113.6	
407.2	3196.9	
407.4	5234.6	
407.61	5118.6	
407.81	3241.3	
408.01	4427	
408.22	4168.3	
408.42	5552	
408.62	3935.5	
408.83	3525.9	
409.03	4666	
409.23	4590.2	
409.44	3560.1	
409.64	3682.9	
409.84	5293.3	
410.05	5192.3	
410.25	3620.1	
410.45	3460.4	
410.66	4839.4	
410.86	6591.7	
411.06	3737.5	
411.27	3580.5	
411.47	6300.2	
411.67	4924.7	
411.88	3768.9	
412.08	3888.4	
412.28	5339.1	
412.49	5659.2	
412.69	3633.8	
412.89	3615.3	
413.09	5535.7	
413.3	5441.5	
413.5	3723.2	
413.7	3421.5	
413.91	4987.5	
414.11	5573.2	
414.31	3598.3	
414.52	3789.4	
414.72	5304.2	
414.92	5215.5	
415.12	3540.9	
415.33	3939.6	
415.53	5507	
415.73	5619.6	
415.94	4111	
416.14	3667.9	
416.34	4844.8	
416.55	4656.4	
416.75	4560.8	
416.95	4191.5	
417.15	5546.6	
417.36	5978.7	
417.56	4706.9	
417.76	4041.3	
417.97	5642.8	
418.17	5500.2	
418.37	3779.2	
418.57	3784.6	
418.78	5458.5	
418.98	5210	
419.18	4417.5	
419.38	4391.5	
419.59	5191.6	
419.79	4920.6	
419.99	3689.1	
420.2	3988.1	
420.4	5593.7	
420.6	5617.6	
420.8	3637.9	
421.01	3592.1	
421.21	5424.4	
421.41	5504.9	
421.61	3895.9	
421.82	3801	
422.02	5218.2	
422.22	5735	
422.42	4285	
422.63	4105.5	
422.83	5143.1	
423.03	5993.7	
423.23	4092.5	
423.44	3335.5	
423.64	5119.9	
423.84	5007.3	
424.04	3721.8	
424.25	3468.6	
424.45	5852.4	
424.65	5816.2	
424.85	3355.3	
425.06	3749.8	
425.26	5990.3	
425.46	5089.2	
425.66	4093.9	
425.87	3895.2	
426.07	5718.6	
426.27	5524.7	
426.47	3962.8	
426.67	3533.4	
426.88	5992.4	
427.08	5537	
427.28	4160.8	
427.48	3467.9	
427.69	4854.4	
427.89	5296.7	
428.09	4073.4	
428.29	3532.7	
428.5	5651.7	
428.7	5418.2	
428.9	3371.6	
429.1	3814.7	
429.3	5327.4	
429.51	5552	
429.71	3738.9	
429.91	4264.6	
430.11	5596.4	
430.31	5698.8	
430.52	3851.5	
430.72	3984	
430.92	5923.4	
431.12	5554.1	
431.32	3646.7	
431.53	3978.5	
431.73	4883	
431.93	5948	
432.13	3616	
432.33	3511.6	
432.54	5186.1	
432.74	5362.3	
432.94	3426.3	
433.14	4195.6	
433.34	5654.4	
433.55	5166.3	
433.75	4093.9	
433.95	5219.6	
434.15	5417.6	
434.35	5152	
434.56	3573.7	
434.76	3207.1	
434.96	5341.1	
435.16	5521.3	
435.36	3465.2	
435.56	4252.9	
435.77	5113.1	
435.97	5255.8	
436.17	4659.8	
436.37	4259.1	
436.57	5081.7	
436.78	5040.7	
436.98	5378.6	
437.18	4667.3	
437.38	5461.9	
437.58	5154.1	
437.78	4726	
437.99	3824.9	
438.19	5650.3	
438.39	6141.2	
438.59	3867.9	
438.79	3397.6	
438.99	6068.8	
439.2	5205.3	
439.4	3462.4	
439.6	3404.4	
439.8	5321.3	
440	6124.1	
440.2	4206.5	
440.4	4233.8	
440.61	5709.1	
440.81	5988.9	
441.01	3608.5	
441.21	4181.3	
441.41	5937.1	
441.61	5733.6	
441.81	4405.2	
442.02	5055.8	
442.22	6268.8	
442.42	5753.4	
442.62	3624.2	
442.82	3687	
443.02	6037.4	
443.22	5380	
443.43	3966.9	
443.63	3693.2	
443.83	5232.6	
444.03	5195	
444.23	4467.3	
444.43	4173.1	
444.63	5484.5	
444.83	6256.5	
445.04	3757.3	
445.24	4561.5	
445.44	5814.2	
445.64	5797.8	
445.84	4276.8	
446.04	4322.6	
446.24	5358.9	
446.44	6053.8	
446.65	3781.2	
446.85	4047.5	
447.05	5420.3	
447.25	6081.1	
447.45	4080.9	
447.65	3633.1	
447.85	5662.6	
448.05	5272.8	
448.25	4367	
448.46	4143.7	
448.66	5548.6	
448.86	5319.9	
449.06	3549.1	
449.26	4332.1	
449.46	5810.1	
449.66	5172.5	
449.86	3986	
450.06	3905.5	
450.26	5200.5	
450.47	5658.5	
450.67	4192.9	
450.87	4384.7	
451.07	5900.9	
451.27	5536.3	
451.47	3703.4	
451.67	4268.6	
451.87	5341.8	
452.07	6178.7	
452.27	3941	
452.47	3901.4	
452.67	5650.3	
452.88	5900.9	
453.08	3460.4	
453.28	4744.5	
453.48	6389	
453.68	5507	
453.88	3791.5	
454.08	3990.8	
454.28	5773.2	
454.48	5582.1	
454.68	4284.4	
454.88	4637.3	
455.08	5969.1	
455.28	5672.2	
455.48	3736.9	
455.68	4213.4	
455.89	6278.4	
456.09	5895.4	
456.29	3998.3	
456.49	3997.6	
456.69	6085.2	
456.89	5552.7	
457.09	4336.9	
457.29	4612.7	
457.49	5830.6	
457.69	5857.9	
457.89	4257.7	
458.09	3719.8	
458.29	5655.8	
458.49	6091.3	
458.69	4414.7	
458.89	4064.5	
459.09	6262.7	
459.29	6415.6	
459.49	4179.9	
459.69	4756.7	
459.9	5995.8	
460.1	5614.2	
460.3	4105.5	
460.5	3918.4	
460.7	6025.1	
460.9	5738.4	
461.1	3717.1	
461.3	4519.2	
461.5	6440.2	
461.7	6072.9	
461.9	3923.2	
462.1	4308.2	
462.3	5773.2	
462.5	6116.6	
462.7	3980.6	
462.9	4042.7	
463.1	6916.7	
463.3	6623.8	
463.5	4248.9	
463.7	4818.2	
463.9	5860.6	
464.1	6138.4	
464.3	4349.2	
464.5	4447.5	
464.7	6393.8	
464.9	6038.1	
465.1	5278.3	
465.3	4669.4	
465.5	6572.6	
465.7	6634.1	
465.9	4879.6	
466.1	4721.3	
466.3	6395.1	
466.5	6271.6	
466.7	5312.4	
466.9	4495.3	
467.1	6327.5	
467.3	6918	
467.5	5241.4	
467.7	4546.5	
467.9	7120.8	
468.1	7593.9	
468.3	5007.3	
468.5	5356.8	
468.7	6138.4	
468.9	6186.9	
469.1	4737	
469.3	5202.5	
469.5	7628	
469.7	5896.1	
469.9	5139.7	
470.1	4552.6	
470.3	6320.7	
470.5	6187.6	
470.7	5481.7	
470.9	4630.5	
471.1	6079.7	
471.3	6466.1	
471.5	4446.8	
471.69	5860.6	
471.89	6078.4	
472.09	5672.9	
472.29	4970.4	
472.49	5333.6	
472.69	5863.3	
472.89	6412.9	
473.09	4472.1	
473.29	4638	
473.49	5999.9	
473.69	6025.1	
473.89	5210.7	
474.09	4597	
474.29	6974.7	
474.49	6670.9	
474.69	5144.5	
474.89	4760.8	
475.09	6077	
475.29	6024.4	
475.49	4354.7	
475.69	4562.2	
475.88	7246.4	
476.08	6459.3	
476.28	4347.8	
476.48	4624.3	
476.68	6694.1	
476.88	6540.5	
477.08	4586.1	
477.28	4703.5	
477.48	6286.6	
477.68	6589	
477.88	4384.7	
478.08	4616.1	
478.28	6858	
478.48	6297.5	
478.67	4706.9	
478.87	4304.8	
479.07	6683.9	
479.27	6310.5	
479.47	4859.8	
479.67	4803.2	
479.87	6599.9	
480.07	6933.7	
480.27	4280.3	
480.47	5402.5	
480.67	6369.2	
480.87	6799.3	
481.06	4579.3	
481.26	5042.1	
481.46	6382.8	
481.66	6269.5	
481.86	4851.6	
482.06	5436	
482.26	6102.9	
482.46	6814.3	
482.66	4750.6	
482.86	4511.7	
483.05	6494.8	
483.25	5874.3	
483.45	6518	
483.65	4780	
483.85	6035.4	
484.05	6268.1	
484.25	5145.9	
484.45	5328.1	
484.65	6788.3	
484.84	6850.5	
485.04	4797	
485.24	4757.4	
485.44	7126.2	
485.64	5929.6	
485.84	4276.8	
486.04	5170.4	
486.24	6199.2	
486.44	6425.2	
486.63	4262.5	
486.83	4853.7	
487.03	6130.3	
487.23	6254.5	
487.43	4395.6	
487.63	5945.9	
487.83	6320.7	
488.02	6862.1	
488.22	4973.8	
488.42	5380	
488.62	6890.7	
488.82	6118.6	
489.02	4715.8	
489.22	4831.2	
489.41	6793.8	
489.61	6521.4	
489.81	4541.7	
490.01	4548.5	
490.21	6703.7	
490.41	7263.5	
490.61	4578.6	
490.8	4672.8	
491	6410.1	
491.2	5999.9	
491.4	5057.1	
491.6	4425.7	
491.8	6513.9	
491.99	6442.2	
492.19	4357.4	
492.39	4541	
492.59	6751.5	
492.79	6834.8	
492.99	5238	
493.18	4516.5	
493.38	6908.5	
493.58	7262.1	
493.78	4952.7	
493.98	4712.4	
494.18	6568.5	
494.37	6117.3	
494.57	5191.6	
494.77	5099.4	
494.97	6733.7	
495.17	6879.8	
495.37	4842.8	
495.56	4986.8	
495.76	7042.3	
495.96	6773.3	
496.16	5705.6	
496.36	4928.1	
496.55	6995.2	
496.75	6593.8	
496.95	5145.2	
497.15	5183.4	
497.35	7012.9	
497.54	6857.3	
497.74	5021.6	
497.94	6140.5	
498.14	7380.9	
498.34	7217	
498.53	4770.4	
498.73	5296	
498.93	6462.7	
499.13	6930.3	
499.33	5195.7	
499.52	5454.4	
499.72	6994.5	
499.92	7056.6	
500.12	4883	
500.32	5220.3	
500.51	7071.6	
500.71	6903.7	
500.91	5703.6	
501.11	5451.7	
501.31	7013.6	
501.5	7311.9	
501.7	5984.2	
501.9	5238	
502.1	6870.9	
502.29	7202.7	
502.49	5472.9	
502.69	5796.4	
502.89	7155.6	
503.09	7135.1	
503.28	4905.6	
503.48	4946.5	
503.68	6660.7	
503.88	6552.1	
504.07	5670.8	
504.27	5252.4	
504.47	6909.8	
504.67	6935.8	
504.86	5515.2	
505.06	5378	
505.26	6710.5	
505.46	7740.6	
505.65	5246.9	
505.85	5502.9	
506.05	6696.2	
506.25	7036.1	
506.44	4881	
506.64	5533.6	
506.84	6558.3	
507.04	7139.9	
507.23	5079.6	
507.43	5433.9	
507.63	8039.6	
507.83	6659.3	
508.02	5429.8	
508.22	5175.9	
508.42	8163.2	
508.62	6525.5	
508.81	5341.8	
509.01	5739.1	
509.21	6577.4	
509.4	6729.6	
509.6	5554.1	
509.8	5074.9	
510	6724.8	
510.19	7606.8	
510.39	5006.6	
510.59	5098.8	
510.79	6632	
510.98	7520.1	
511.18	5197.7	
511.38	5247.6	
511.57	7298.3	
511.77	6889.4	
511.97	5829.2	
512.17	5037.3	
512.36	7230	
512.56	7114.6	
512.76	5113.8	
512.95	4877.6	
513.15	7411.6	
513.35	6326.9	
513.55	5696.1	
513.74	5083.7	
513.94	7271.7	
514.14	6873.7	
514.33	5756.2	
514.53	5541.8	
514.73	6841.6	
514.92	6899.6	
515.12	5247.6	
515.32	5085.1	
515.51	7000.6	
515.71	7264.8	
515.91	6403.3	
516.11	5100.1	
516.3	8101.1	
516.5	6756.9	
516.7	5622.4	
516.89	5986.2	
517.09	6834.8	
517.29	6940.6	
517.48	5840.8	
517.68	5290.6	
517.88	6604.7	
518.07	7192.5	
518.27	5786.9	
518.47	5063.3	
518.66	7477.8	
518.86	6618.4	
519.06	5006.6	
519.25	5369.1	
519.45	6850.5	
519.65	7802.8	
519.84	5827.8	
520.04	6268.1	
520.24	8228.1	
520.43	7322.9	
520.63	5614.2	
520.83	5461.2	
521.02	6863.4	
521.22	7290.8	
521.42	5828.5	
521.61	6167.1	
521.81	7044.3	
522.01	7223.2	
522.2	5785.5	
522.4	5565.7	
522.6	7486	
522.79	6563.7	
522.99	5709.1	
523.18	5210.7	
523.38	7324.2	
523.58	7321.5	
523.77	6530.3	
523.97	5197.1	
524.17	8471.1	
524.36	8071	
524.56	6181.5	
524.76	5999.2	
524.95	7360.4	
525.15	7215	
525.34	5857.9	
525.54	5912.5	
525.74	7699.7	
525.93	6980.8	
526.13	6738.5	
526.33	5784.8	
526.52	7997.3	
526.72	7583.6	
526.91	6840.9	
527.11	6240.8	
527.31	7937.9	
527.5	8219.9	
527.7	6240.8	
527.89	5592.3	
528.09	7260.7	
528.29	7718.8	
528.48	6559.6	
528.68	6279.8	
528.87	8004.1	
529.07	7965.9	
529.27	6333.7	
529.46	5990.3	
529.66	7783	
529.85	8088.1	
530.05	5932.3	
530.25	6421.7	
530.44	8800.8	
530.64	7731.8	
530.83	6233.3	
531.03	6336.4	
531.23	8202.1	
531.42	7964.6	
531.62	6824.5	
531.81	6296.8	
532.01	8277.2	
532.21	8487.5	
532.4	6192.4	
532.6	6489.3	
532.79	8880	
532.99	8322.9	
533.18	6575.3	
533.38	7239.6	
533.58	8129.8	
533.77	8424.7	
533.97	6601.3	
534.16	7196.6	
534.36	8838.4	
534.55	8049.9	
534.75	7292.1	
534.95	6587.6	
535.14	8794.7	
535.34	8120.2	
535.53	6479.8	
535.73	7771.4	
535.92	9219.3	
536.12	8202.8	
536.31	6711.9	
536.51	7426.6	
536.71	8617.2	
536.9	8199.4	
537.1	6626.5	
537.29	6834.1	
537.49	8798.8	
537.68	8116.1	
537.88	7016.3	
538.07	6503.7	
538.27	8239.7	
538.46	9032.9	
538.66	6477	
538.86	6737.8	
539.05	8485.4	
539.25	8751	
539.44	7024.5	
539.64	6741.2	
539.83	8365.3	
540.03	9030.9	
540.22	6634.1	
540.42	6751.5	
540.61	8518.2	
540.81	8553.7	
541	7021.1	
541.2	7427.3	
541.39	8259.5	
541.59	8432.9	
541.78	7238.2	
541.98	6639.5	
542.18	8028.7	
542.37	7978.9	
542.57	6892.1	
542.76	7337.9	
542.96	8160.5	
543.15	8512.7	
543.35	6964.5	
543.54	6492.7	
543.74	8574.8	
543.93	8287.4	
544.13	6878.4	
544.32	7636.9	
544.52	8697	
544.71	8019.2	
544.91	6266.1	
545.1	7225.2	
545.3	8118.1	
545.49	8558.5	
545.69	6198.5	
545.88	6749.4	
546.08	9245.9	
546.27	8819.9	
546.47	7058.7	
546.66	6586.3	
546.86	8652	
547.05	9073.2	
547.24	6757.6	
547.44	6606.1	
547.63	8018.5	
547.83	8712.1	
548.02	6881.9	
548.22	6973.3	
548.41	7854	
548.61	8813.8	
548.8	6457.2	
549	6577.4	
549.19	8397.4	
549.39	8651.3	
549.58	6304.3	
549.78	6772.6	
549.97	8557.8	
550.17	8140.7	
550.36	7302.4	
550.55	8100.4	
550.75	8216.5	
550.94	8913.4	
551.14	6467.5	
551.33	6763.8	
551.53	7836.9	
551.72	8431.5	
551.92	6725.5	
552.11	6673.6	
552.31	8557.8	
552.5	8444.5	
552.69	7774.1	
552.89	6408.1	
553.08	8366.6	
553.28	8158.4	
553.47	6640.2	
553.67	7465.5	
553.86	8897.7	
554.06	7673.1	
554.25	6109.8	
554.44	6501.6	
554.64	9458.9	
554.83	9069.1	
555.03	6447	
555.22	6671.6	
555.42	8714.8	
555.61	8422.6	
555.8	6660.7	
556	6770.6	
556.19	7810.3	
556.39	8659.5	
556.58	6557.6	
556.78	6572.6	
556.97	8404.2	
557.16	8101.1	
557.36	7427.3	
557.55	6368.5	
557.75	7597.3	
557.94	8848.6	
558.13	6454.5	
558.33	6200.6	
558.52	8725.7	
558.72	7892.2	
558.91	6360.3	
559.1	6546	
559.3	7705.1	
559.49	7458	
559.69	6026.5	
559.88	6750.1	
560.07	8281.3	
560.27	8587.1	
560.46	6813.6	
560.66	6929	
560.85	8078.6	
561.04	7514	
561.24	6298.9	
561.43	6367.1	
561.63	7669	
561.82	7930.4	
562.01	7187	
562.21	6552.1	
562.4	8275.8	
562.59	8876.6	
562.79	6510.5	
562.98	6313.2	
563.18	8154.3	
563.37	9091.6	
563.56	6737.1	
563.76	6272.9	
563.95	7849.2	
564.14	7753.6	
564.34	6597.9	
564.53	6273.6	
564.73	8204.2	
564.92	8330.5	
565.11	6623.8	
565.31	6205.3	
565.5	8560.5	
565.69	7805.5	
565.89	6319.3	
566.08	6531.7	
566.27	8549.6	
566.47	8742.1	
566.66	6948.8	
566.85	6073.6	
567.05	8225.3	
567.24	7776.1	
567.44	6264.1	
567.63	7247.8	
567.82	8393.9	
568.02	8035.5	
568.21	6263.4	
568.4	6584.2	
568.6	8080.6	
568.79	7957.7	
568.98	6252.4	
569.18	6282.5	
569.37	8002.8	
569.56	9412.5	
569.76	6520.7	
569.95	7265.5	
570.14	8279.9	
570.34	8164.6	
570.53	6259.3	
570.72	6194.4	
570.91	8721.6	
571.11	7978.9	
571.3	6488	
571.49	7197.9	
571.69	8083.3	
571.88	7717.4	
572.07	6803.4	
572.27	6802.7	
572.46	7692.9	
572.65	8382.3	
572.85	6350.8	
573.04	6559	
573.23	8516.8	
573.43	8043.1	
573.62	6252.4	
573.81	6592.4	
574	8142.7	
574.2	7877.2	
574.39	6307.1	
574.58	6455.2	
574.78	8620.6	
574.97	8105.9	
575.16	6705.7	
575.36	6877.8	
575.55	8432.2	
575.74	8535.9	
575.93	6131.6	
576.13	6805.4	
576.32	7924.3	
576.51	8376.9	
576.71	6497.5	
576.9	7331.7	
577.09	8639.7	
577.28	8217.8	
577.48	6736.5	
577.67	5980.1	
577.86	8077.9	
578.05	8219.2	
578.25	6532.3	
578.44	6539.8	
578.63	8013.7	
578.83	8933.2	
579.02	6124.8	
579.21	7221.1	
579.4	8137.9	
579.6	8032.8	
579.79	6632	
579.98	8091.5	
580.17	8429.4	
580.37	8479.3	
580.56	6224.5	
580.75	6755.6	
580.94	8671.1	
581.14	8736.6	
581.33	6967.9	
581.52	6331	
581.71	8223.3	
581.91	8837	
582.1	6154.8	
582.29	6489.3	
582.48	8094.9	
582.68	8023.9	
582.87	6905.8	
583.06	6638.1	
583.25	8353	
583.45	7836.9	
583.64	7111.2	
583.83	7397.9	
584.02	8056	
584.21	8321.6	
584.41	6877.8	
584.6	6541.9	
584.79	8050.6	
584.98	8534.6	
585.18	6171.9	
585.37	6077	
585.56	7800.7	
585.75	8316.8	
585.94	6346	
586.14	6734.4	
586.33	8774.9	
586.52	8042.4	
586.71	6661.4	
586.91	6498.2	
587.1	7635.5	
587.29	8343.4	
587.48	6376	
587.67	6382.8	
587.87	8202.1	
588.06	8240.3	
588.25	7200.7	
588.44	6737.8	
588.63	7919.5	
588.83	8331.1	
589.02	6320.7	
589.21	6350.1	
589.4	7864.2	
589.59	7830.1	
589.78	5776	
589.98	5941.8	
590.17	7402.7	
590.36	7874.4	
590.55	5483.1	
590.74	6072.9	
590.94	8691.6	
591.13	7638.2	
591.32	5929.6	
591.51	5523.4	
591.7	7857.4	
591.89	7555	
592.09	5669.5	
592.28	5955.5	
592.47	6949.4	
592.66	8497	
592.85	5601.9	
593.05	5752.1	
593.24	7531.1	
593.43	8092.2	
593.62	5867.4	
593.81	6161	
594	7655.3	
594.19	7681.9	
594.39	5754.8	
594.58	5741.1	
594.77	7804.1	
594.96	8090.8	
595.15	5679.7	
595.34	6148	
595.54	7783.6	
595.73	7126.2	
595.92	5319.9	
596.11	5991	
596.3	8073.1	
596.49	7212.9	
596.68	6001.9	
596.88	6204.7	
597.07	7821.2	
597.26	7126.9	
597.45	5497.4	
597.64	6376	
597.83	7230	
598.02	7653.9	
598.22	5632.6	
598.41	6095.4	
598.6	7608.2	
598.79	7090.8	
598.98	5621.7	
599.17	6284.5	
599.36	7553.6	
599.55	8295.6	
599.74	6987	
599.94	6774.7	
600.13	7847.1	
600.32	7092.1	
600.51	5425.1	
600.7	5565	
600.89	8301.8	
601.08	8376.9	
601.27	5367.7	
601.47	6033.3	
601.66	7808.2	
601.85	8260.1	
602.04	5919.3	
602.23	5902.2	
602.42	7221.8	
602.61	7687.4	
602.8	5809.4	
602.99	5617.6	
603.18	7404.1	
603.37	7512.6	
603.57	6072.2	
603.76	6387.6	
603.95	8109.3	
604.14	7692.2	
604.33	5739.1	
604.52	5863.3	
604.71	7491.5	
604.9	7195.9	
605.09	6320	
605.28	6092.7	
605.47	7989.1	
605.66	7534.5	
605.86	6093.4	
606.05	5658.5	
606.24	7916.8	
606.43	6854.6	
606.62	5947.3	
606.81	6339.1	
607	7829.4	
607.19	7365.9	
607.38	5498.1	
607.57	5625.1	
607.76	7154.2	
607.95	6829.3	
608.14	5979.4	
608.33	6311.8	
608.52	7138.5	
608.72	7790.5	
608.91	5402.5	
609.1	5311.1	
609.29	7239.6	
609.48	6852.5	
609.67	5962.3	
609.86	5371.1	
610.05	7030	
610.24	7161.7	
610.43	5302.9	
610.62	5087.8	
610.81	7986.4	
611	7775.5	
611.19	5338.4	
611.38	5915.9	
611.57	7367.9	
611.76	8094.9	
611.95	5271.5	
612.14	5161.6	
612.33	7227.3	
612.52	6913.9	
612.71	5604.6	
612.9	5021.6	
613.09	6628.6	
613.28	8269	
613.47	5514.5	
613.66	6050.4	
613.85	7261.4	
614.04	6959.7	
614.24	5436	
614.43	4903.5	
614.62	7457.3	
614.81	7301.7	
615	5764.3	
615.19	5817.6	
615.38	6889.4	
615.57	7084.6	
615.76	5674.2	
615.95	6357.6	
616.14	7448.5	
616.33	7202	
616.52	5927.5	
616.71	6091.3	
616.9	7411.6	
617.09	7218.4	
617.28	5583.4	
617.47	6274.3	
617.66	6837.5	
617.85	6724.8	
618.04	6055.2	
618.22	5670.8	
618.41	7015	
618.6	7658.7	
618.79	5642.8	
618.98	5475.6	
619.17	7779.6	
619.36	6560.3	
619.55	5615.5	
619.74	5602.6	
619.93	7342	
620.12	6959	
620.31	5969.8	
620.5	6118.6	
620.69	7633.5	
620.88	7957	
621.07	6470.9	
621.26	5883.1	
621.45	7474.4	
621.64	7400	
621.83	5973.2	
622.02	5404.6	
622.21	7533.1	
622.4	7307.2	
622.59	6357.6	
622.78	6217	
622.97	6994.5	
623.16	7692.9	
623.35	5945.9	
623.54	5348.6	
623.72	7263.5	
623.91	7312.6	
624.1	6148.7	
624.29	5227.8	
624.48	8007.6	
624.67	7576.1	
624.86	6137.8	
625.05	5355.4	
625.24	8187.1	
625.43	7084.6	
625.62	7268.2	
625.81	5658.5	
626	7657.4	
626.19	7257.3	
626.38	6130.9	
626.56	5668.8	
626.75	7054.6	
626.94	7665.5	
627.13	6111.8	
627.32	5285.1	
627.51	7666.9	
627.7	8360.5	
627.89	5365.7	
628.08	6073.6	
628.27	7079.1	
628.46	7249.8	
628.65	5551.4	
628.83	5303.6	
629.02	7632.8	
629.21	6994.5	
629.4	5837.4	
629.59	5967.1	
629.78	7057.3	
629.97	7648.5	
630.16	6000.5	
630.35	5664	
630.54	8053.3	
630.72	7759.8	
630.91	5608.7	
631.1	6004.6	
631.29	7414.3	
631.48	7445	
631.67	6154.8	
631.86	5682.4	
632.05	7222.5	
632.24	7247.8	
632.42	5515.2	
632.61	5883.1	
632.8	7266.2	
632.99	6956.9	
633.18	5939.8	
633.37	6069.5	
633.56	7413.6	
633.75	7319.4	
633.93	5927.5	
634.12	5679.7	
634.31	8104.5	
634.5	7749.5	
634.69	5743.9	
634.88	6058.6	
635.07	7254.6	
635.25	7655.3	
635.44	6339.8	
635.63	6367.8	
635.82	7197.9	
636.01	6722.8	
636.2	6320	
636.39	5947.3	
636.57	8002.1	
636.76	7695.6	
636.95	5577.3	
637.14	6460	
637.33	7523.6	
637.52	7999.4	
637.7	5422.3	
637.89	6145.3	
638.08	7179.5	
638.27	8168	
638.46	6141.9	
638.65	6434.7	
638.83	8142	
639.02	7050.5	
639.21	6062	
639.4	6311.2	
639.59	7393.2	
639.78	7107.1	
639.96	5532.2	
640.15	5511.8	
640.34	7244.3	
640.53	7256	
640.72	5366.4	
640.91	5537.7	
641.09	6774	
641.28	7755	
641.47	5510.4	
641.66	6150.7	
641.85	7322.9	
642.03	7463.5	
642.22	5872.2	
642.41	5554.8	
642.6	6874.3	
642.79	6447	
642.97	5457.8	
643.16	5870.8	
643.35	6745.3	
643.54	6658.6	
643.73	5331.5	
643.91	5788.9	
644.1	6525.5	
644.29	6998.6	
644.48	5427.8	
644.67	5439.4	
644.85	6740.5	
645.04	7019.1	
645.23	5094.7	
645.42	5390.3	
645.6	6686.6	
645.79	7507.2	
645.98	5261.2	
646.17	4620.9	
646.36	6468.9	
646.54	6778.1	
646.73	5810.1	
646.92	5000.5	
647.11	6541.9	
647.29	7256	
647.48	5063.9	
647.67	4852.3	
647.86	7436.9	
648.05	7408.2	
648.23	5208	
648.42	6079.7	
648.61	7007.5	
648.8	6798.6	
648.98	4976.6	
649.17	5173.2	
649.36	6479.8	
649.55	6198.5	
649.73	4977.9	
649.92	5468.1	
650.11	6417.7	
650.3	6677.7	
650.48	5055.8	
650.67	4853	
650.86	6907.1	
651.05	6051.1	
651.23	5034.6	
651.42	5104.9	
651.61	6462	
651.79	6449.1	
651.98	5063.9	
652.17	4868.7	
652.36	6716	
652.54	6079.1	
652.73	4930.8	
652.92	4825.7	
653.11	6791.7	
653.29	6782.9	
653.48	4530.1	
653.67	5135.6	
653.85	6610.2	
654.04	7227.3	
654.23	5300.8	
654.42	4945.2	
654.6	6265.4	
654.79	6697.5	
654.98	4544.4	
655.16	4863.9	
655.35	5924.8	
655.54	5849.7	
655.73	4625.7	
655.91	4490.5	
656.1	6612.9	
656.29	5810.1	
656.47	4253.6	
656.66	5427.1	
656.85	6113.9	
657.03	6082.5	
657.22	4643.4	
657.41	4692.6	
657.59	6057.2	
657.78	5984.2	
657.97	4398.4	
658.16	4825.7	
658.34	6612.2	
658.53	6861.4	
658.72	5479.7	
658.9	5851.7	
659.09	6300.9	
659.28	6254.5	
659.46	4714.4	
659.65	4628.4	
659.84	6016.2	
660.02	6443.6	
660.21	4687.1	
660.4	4520.5	
660.58	6655.9	
660.77	6221.7	
660.96	4979.3	
661.14	4347.8	
661.33	7085.3	
661.52	6945.3	
661.7	4317.8	
661.89	6669.6	
662.08	6001.2	
662.26	5609.4	
662.45	4495.3	
662.64	4631.1	
662.82	6455.9	
663.01	5892.7	
663.2	4601.1	
663.38	5010	
663.57	6310.5	
663.75	6217.6	
663.94	4771.8	
664.13	5642.2	
664.31	5941.2	
664.5	6414.9	
664.69	5060.5	
664.87	5233.2	
665.06	5711.8	
665.25	6206.7	
665.43	5511.8	
665.62	5473.5	
665.8	6430.6	
665.99	6021.7	
666.18	4758.1	
666.36	4840.7	
666.55	6407.4	
666.74	6300.9	
666.92	4547.2	
667.11	5588.9	
667.29	6068.1	
667.48	6408.1	
667.67	5345.2	
667.85	4668	
668.04	6033.3	
668.22	5963	
668.41	4801.1	
668.6	4992.3	
668.78	5849.7	
668.97	6027.9	
669.15	5021.6	
669.34	4228.4	
669.53	5874.3	
669.71	6057.2	
669.9	4430.4	
670.08	4854.4	
670.27	5816.2	
670.46	6303	
670.64	5064.6	
670.83	5215.5	
671.01	5733.6	
671.2	6142.5	
671.38	4460.5	
671.57	4393.6	
671.76	6621.1	
671.94	6911.2	
672.13	4293.2	
672.31	5127.4	
672.5	6355.5	
672.69	5814.2	
672.87	4496.7	
673.06	4637.3	
673.24	6260.6	
673.43	5836.7	
673.61	4975.9	
673.8	4663.9	
673.98	6291.4	
674.17	6374	
674.36	5035.3	
674.54	5028.4	
674.73	6092	
674.91	6458.6	
675.1	4707.6	
675.28	4420.2	
675.47	5997.8	
675.65	6361.7	
675.84	4646.2	
676.03	4766.3	
676.21	5899.5	
676.4	5472.2	
676.58	5288.5	
676.77	5061.2	
676.95	6928.3	
677.14	5776	
677.32	4401.1	
677.51	4293.9	
677.69	6402.6	
677.88	5659.2	
678.06	4399.7	
678.25	4450.2	
678.44	6054.5	
678.62	5779.4	
678.81	4237.2	
678.99	4897.4	
679.18	6595.8	
679.36	6273.6	
679.55	4627	
679.73	5042.8	
679.92	6242.9	
680.1	5837.4	
680.29	5440.1	
680.47	4598.4	
680.66	5844.9	
680.84	6366.5	
681.03	4185.4	
681.21	4940.4	
681.4	5887.2	
681.58	5723.4	
681.77	4535.6	
681.95	4422.2	
682.14	6408.8	
682.32	6690.7	
682.51	5221	
682.69	4334.9	
682.88	5829.9	
683.06	6167.1	
683.25	4908.3	
683.43	5232.6	
683.62	6111.1	
683.8	6258.6	
683.99	5392.3	
684.17	4868	
684.36	7006.8	
684.54	5970.5	
684.73	4384.7	
684.91	4438.6	
685.1	6224.5	
685.28	5869.5	
685.46	4874.2	
685.65	4894.6	
685.83	6457.9	
686.02	5996.5	
686.2	4508.3	
686.39	4627	
686.57	5831.2	
686.76	6827.9	
686.94	4510.3	
687.13	4642.1	
687.31	6244.9	
687.5	6057.9	
687.68	4233.2	
687.86	5099.4	
688.05	7212.9	
688.23	5651	
688.42	5118.6	
688.6	4628.4	
688.79	6049	
688.97	6015.6	
689.16	4967	
689.34	4174.4	
689.52	6485.9	
689.71	6728.3	
689.89	5203.9	
690.08	4768.4	
690.26	6309.1	
690.45	6176.7	
690.63	5382.1	
690.81	4853	
691	6303	
691.18	6021	
691.37	5030.5	
691.55	6530.3	
691.74	6084.5	
691.92	7515.4	
692.1	5015.5	
692.29	4641.4	
692.47	6325.5	
692.66	5852.4	
692.84	4773.8	
693.02	5177.9	
693.21	5876.3	
693.39	6304.3	
693.58	5339.7	
693.76	4890.5	
693.94	7167.2	
694.13	7046.4	
694.31	4960.9	
694.5	5737	
694.68	6202.6	
694.86	6632.7	
695.05	5263.3	
695.23	5349.3	
695.42	6892.1	
695.6	8372.8	
695.78	5801.9	
695.97	5208.7	
696.15	7001.3	
696.34	6485.9	
696.52	5054.4	
696.7	5670.8	
696.89	6793.8	
697.07	6410.1	
697.25	5618.9	
697.44	6616.3	
697.62	6880.5	
697.81	7034.8	
697.99	5444.9	
698.17	5784.8	
698.36	6488	
698.54	6974.7	
698.72	5752.7	
698.91	5060.5	
699.09	6698.9	
699.28	6534.4	
699.46	5696.1	
699.64	5416.9	
699.83	6598.6	
700.01	7354.9	
700.19	6053.1	
700.38	4940.4	
700.56	7421.2	
700.74	6743.3	
700.93	5309	
701.11	5881.1	
701.29	7137.2	
701.48	7884.7	
701.66	5440.8	
701.84	5633.3	
702.03	6931.7	
702.21	7465.5	
702.39	5280.3	
702.58	5788.9	
702.76	7359.7	
702.94	7406.1	
703.13	5333.6	
703.31	7057.3	
703.49	6892.1	
703.68	7585.7	
703.86	5585.5	
704.04	6214.9	
704.23	7281.2	
704.41	7630	
704.59	5767.1	
704.78	6498.9	
704.96	8437.6	
705.14	7598	
705.33	5637.4	
705.51	6167.1	
705.69	7143.3	
705.87	7897.7	
706.06	6410.8	
706.24	5598.5	
706.42	7478.5	
706.61	7689.4	
706.79	6511.2	
706.97	5657.9	
707.16	7211.6	
707.34	7553.6	
707.52	6357.6	
707.7	5925.5	
707.89	7184.3	
708.07	7045	
708.25	6507.8	
708.44	6569.2	
708.62	7236.2	
708.8	8098.4	
708.98	6761.7	
709.17	6053.8	
709.35	7617.1	
709.53	7609.6	
709.72	5800.5	
709.9	6008.1	
710.08	7874.4	
710.26	7842.4	
710.45	6982.2	
710.63	6038.8	
710.81	7617.1	
710.99	7585	
711.18	6524.8	
711.36	6155.5	
711.54	7458	
711.72	8022.6	
711.91	6234.7	
712.09	5875.6	
712.27	7567.2	
712.45	8050.6	
712.64	6416.3	
712.82	5730.9	
713	7275.1	
713.18	7197.2	
713.37	5717.2	
713.55	6664.8	
713.73	7863.5	
713.91	6888.7	
714.1	5894.1	
714.28	5607.3	
714.46	7572	
714.64	7009.5	
714.83	5139	
715.01	5569.8	
715.19	6849.8	
715.37	6298.9	
715.55	5266	
715.74	5461.2	
715.92	7406.1	
716.1	5930.2	
716.28	6249.7	
716.47	5518.6	
716.65	6566.5	
716.83	6558.3	
717.01	5420.3	
717.19	5471.5	
717.38	7997.3	
717.56	6353.5	
717.74	5629.2	
717.92	4995.7	
718.1	7152.9	
718.29	6729.6	
718.47	4793.6	
718.65	5304.9	
718.83	7327.6	
719.01	7276.4	
719.2	5005.2	
719.38	5791	
719.56	7134.4	
719.74	8292.9	
719.92	5507	
720.11	6255.9	
720.29	7247.1	
720.47	6628.6	
720.65	5184.8	
720.83	5681.1	
721.02	6785.6	
721.2	6540.5	
721.38	5672.9	
721.56	5073.5	
721.74	6136.4	
721.92	6281.1	
722.11	6005.3	
722.29	5784.1	
722.47	7172.7	
722.65	6591	
722.83	5121.3	
723.01	5780.7	
723.2	6657.3	
723.38	6936.5	
723.56	4814.8	
723.74	5549.3	
723.92	6331.6	
724.1	7131.7	
724.29	5176.6	
724.47	5893.4	
724.65	6466.1	
724.83	6274.3	
725.01	5109	
725.19	5633.3	
725.37	6316.6	
725.56	6293.4	
725.74	5018.9	
725.92	5130.8	
726.1	6402.6	
726.28	6595.8	
726.46	5401.2	
726.64	5253	
726.83	6621.8	
727.01	6696.2	
727.19	4986.1	
727.37	5573.9	
727.55	6707.1	
727.73	7002.7	
727.91	4981.3	
728.09	4790.2	
728.28	7039.6	
728.46	7193.8	
728.64	5604.6	
728.82	5553.4	
729	7745.4	
729.18	7326.9	
729.36	5148.6	
729.54	6677.7	
729.72	8065.6	
729.91	6817.7	
730.09	6507.1	
730.27	5660.6	
730.45	6950.8	
730.63	7283.9	
730.81	6142.5	
730.99	5498.1	
731.17	7825.3	
731.35	6718	
731.53	5869.5	
731.71	5602.6	
731.9	7547.4	
732.08	7578.2	
732.26	5693.4	
732.44	5559.6	
732.62	7612.3	
732.8	7260.7	
732.98	5937.7	
733.16	5319.3	
733.34	7290.8	
733.52	6296.8	
733.7	5593	
733.88	5784.8	
734.07	7052.5	
734.25	6959	
734.43	5248.3	
734.61	6282.5	
734.79	8054	
734.97	6818.4	
735.15	5289.2	
735.33	5640.8	
735.51	7024.5	
735.69	6809.5	
735.87	6738.5	
736.05	5738.4	
736.23	6965.8	
736.41	6768.5	
736.59	5580.7	
736.77	5687.9	
736.95	7277.1	
737.13	6827.2	
737.32	5314.5	
737.5	5541.1	
737.68	7700.4	
737.86	6746.7	
738.04	5193.6	
738.22	6412.9	
738.4	6609.5	
738.58	6862.1	
738.76	5544.5	
738.94	4860.5	
739.12	6776	
739.3	6600.6	
739.48	6041.5	
739.66	5783.5	
739.84	6843.6	
740.02	6798.6	
740.2	5008.6	
740.38	5098.8	
740.56	7042.3	
740.74	6207.4	
740.92	5626.5	
741.1	5420.3	
741.28	6679.8	
741.46	6513.2	
741.64	5194.3	
741.82	5569.8	
742	6625.9	
742.18	6522.8	
742.36	5317.9	
742.54	5072.8	
742.72	7045.7	
742.9	6128.9	
743.08	5547.3	
743.26	4721.9	
743.44	7070.3	
743.62	6983.6	
743.8	5707	
743.98	4954.7	
744.16	6726.2	
744.34	6519.4	
744.52	5527.5	
744.7	5472.9	
744.88	6796.5	
745.06	6474.3	
745.24	5500.8	
745.42	5586.9	
745.6	6886.6	
745.78	6745.3	
745.96	4668.7	
746.14	4855.7	
746.32	7296.2	
746.5	6713.2	
746.68	5214.8	
746.86	4824.3	
747.03	7023.2	
747.21	5843.5	
747.39	5214.8	
747.57	4823	
747.75	6411.5	
747.93	6695.5	
748.11	4778.6	
748.29	4689.8	
748.47	7557	
748.65	6224.5	
748.83	5319.9	
749.01	5096	
749.19	6565.8	
749.37	5956.2	
749.55	5009.3	
749.73	5017.5	
749.91	6360.3	
750.09	6200.6	
750.26	5059.8	
750.44	4562.2	
750.62	6336.4	
750.8	6274.3	
750.98	4590.9	
751.16	4726	
751.34	6363	
751.52	5910.4	
751.7	5354.1	
751.88	4478.2	
752.06	6666.1	
752.24	6414.9	
752.42	4397.7	
752.59	4765.6	
752.77	6283.9	
752.95	7073.7	
753.13	5248.3	
753.31	4821.6	
753.49	5972.6	
753.67	6301.6	
753.85	5005.9	
754.03	4689.2	
754.21	6485.2	
754.38	6660.7	
754.56	4640	
754.74	4020.8	
754.92	5801.9	
755.1	6206.7	
755.28	3979.2	
755.46	3865.9	
755.64	6669.6	
755.82	6650.4	
755.99	3831.1	
756.17	3878.9	
756.35	4690.5	
756.53	5724.1	
756.71	3018.7	
756.89	3670.6	
757.07	5382.7	
757.25	4765.6	
757.42	4037.2	
757.6	4682.3	
757.78	5623	
757.96	4858.5	
758.14	3898	
758.32	3624.2	
758.5	4529.4	
758.67	5130.8	
758.85	3805.1	
759.03	3878.2	
759.21	5292.6	
759.39	4884.4	
759.57	3467.9	
759.75	4276.2	
759.92	5760.9	
760.1	5366.4	
760.28	4547.9	
760.46	4732.9	
760.64	5122	
760.82	5018.2	
760.99	4524.6	
761.17	3977.8	
761.35	5743.9	
761.53	5012.7	
761.71	3994.2	
761.89	4558.1	
762.06	5767.1	
762.24	5388.2	
762.42	4175.8	
762.6	4024.3	
762.78	5369.8	
762.96	5808	
763.13	4489.8	
763.31	4165.6	
763.49	5939.8	
763.67	5358.2	
763.85	4816.1	
764.02	5169.1	
764.2	6253.8	
764.38	5511.1	
764.56	4145.8	
764.74	4712.4	
764.91	6242.2	
765.09	5390.9	
765.27	3967.6	
765.45	3760.1	
765.63	6313.2	
765.8	6117.3	
765.98	3641.3	
766.16	3801	
766.34	5132.9	
766.52	4932.2	
766.69	4458.4	
766.87	3673.4	
767.05	5416.9	
767.23	5938.4	
767.41	3885.7	
767.58	4043.4	
767.76	5767.1	
767.94	5833.3	
768.12	3913.7	
768.29	4386.1	
768.47	5357.5	
768.65	5847	
768.83	3614	
769	4417.5	
769.18	5019.6	
769.36	5489.9	
769.54	4366.3	
769.72	3634.5	
769.89	5788.2	
770.07	5724.1	
770.25	3851.5	
770.43	4764.9	
770.6	6305.7	
770.78	6571.2	
770.96	4000.4	
771.14	4367	
771.31	5645.6	
771.49	5087.2	
771.67	3335.5	
771.85	3506.1	
772.02	4630.5	
772.2	5138.4	
772.38	4007.9	
772.55	3678.2	
772.73	5397.1	
772.91	5113.1	
773.09	3870	
773.26	4020.8	
773.44	5268.7	
773.62	5115.1	
773.8	3599	
773.97	3425.6	
774.15	5332.9	
774.33	5033.2	
774.5	3473.4	
774.68	3693.9	
774.86	5408.7	
775.04	5093.3	
775.21	3530.7	
775.39	3480.9	
775.57	5255.1	
775.74	5394.3	
775.92	3355.3	
776.1	3221.5	
776.27	5177.3	
776.45	6044.9	
776.63	3510.9	
776.81	3166.2	
776.98	4954	
777.16	5622.4	
777.34	3552.5	
777.51	3757.3	
777.69	4913.8	
777.87	4751.3	
778.04	3616	
778.22	3981.3	
778.4	4788.8	
778.57	5260.5	
778.75	3047.4	
778.93	3311.6	
779.1	4659.8	
779.28	4477.5	
779.46	3046	
779.64	3293.8	
779.81	5318.6	
779.99	5913.9	
780.17	3978.5	
780.34	3951.2	
780.52	4912.4	
780.69	5017.5	
780.87	3657.7	
781.05	3324.5	
781.22	4983.4	
781.4	4948.6	
781.58	3436.5	
781.75	2805.7	
781.93	4969.1	
782.11	4479.6	
782.28	4003.8	
782.46	3350.5	
782.64	4416.1	
782.81	5172.5	
782.99	3469.9	
783.17	3337.5	
783.34	4958.1	
783.52	4513.7	
783.69	3494.5	
783.87	4079.6	
784.05	4599.7	
784.22	4503.5	
784.4	4088.4	
784.58	3600.3	
784.75	5255.1	
784.93	4584	
785.1	3336.1	
785.28	3710.9	
785.46	5009.3	
785.63	4369.7	
785.81	3310.2	
785.99	3182.5	
786.16	4655.7	
786.34	4825	
786.51	3251.5	
786.69	3551.9	
786.87	4272.1	
787.04	4653	
787.22	3172.3	
787.39	3773.7	
787.57	4517.8	
787.75	5255.1	
787.92	3936.9	
788.1	3911.6	
788.27	4395.6	
788.45	4304.8	
788.63	3689.1	
788.8	2730.6	
788.98	4876.9	
789.15	4190.1	
789.33	2833.7	
789.5	3272.7	
789.68	5130.2	
789.86	5198.4	
790.03	3627	
790.21	3200.3	
790.38	5177.9	
790.56	4517.8	
790.73	3118.4	
790.91	3111.5	
791.09	4455.7	
791.26	4926	
791.44	3347.1	
791.61	2929.3	
791.79	4412.7	
791.96	4450.2	
792.14	3003	
792.32	2677.4	
792.49	4449.6	
792.67	4565.6	
792.84	3050.8	
793.02	2840.5	
793.19	4807.9	
793.37	5261.2	
793.54	2669.2	
793.72	2966.1	
793.89	5259.9	
794.07	4388.1	
794.25	3263.1	
794.42	2758.6	
794.6	5200.5	
794.77	4916.5	
794.95	3574.4	
795.12	3060.3	
795.3	4392.2	
795.47	4821.6	
795.65	3437.2	
795.82	3306.8	
796	4296.6	
796.17	5515.9	
796.35	3194.1	
796.52	3706.8	
796.7	4823.6	
796.87	4862.6	
797.05	3203.7	
797.22	3746.4	
797.4	4862.6	
797.57	5588.2	
797.75	3286.3	
797.92	3104	
798.1	5076.9	
798.27	4334.2	
798.45	2781.8	
798.62	2877.4	
798.8	4625.7	
798.97	4986.8	
799.15	3426.3	
799.32	3377.1	
799.5	4094.6	
799.67	4662.5	
799.85	3527.3	
800.02	2709.5	
800.2	4414.1	
800.37	4500.1	
800.55	3618.8	
800.72	3108.1	
800.9	4991.6	
801.07	5233.9	
801.25	4067.9	
801.42	3451.5	
801.6	5005.2	
801.77	4679.6	
801.95	3151.1	
802.12	3027.6	
802.29	4760.2	
802.47	4713.1	
802.64	3377.8	
802.82	2673.3	
802.99	4414.1	
803.17	5018.9	
803.34	3229	
803.52	2988.7	
803.69	5464.7	
803.87	4117.1	
804.04	3269.9	
804.21	3347.7	
804.39	5145.9	
804.56	4544.4	
804.74	2886.3	
804.91	3392.1	
805.09	4393.6	
805.26	4435.2	
805.44	2887.6	
805.61	3129.3	
805.78	4833.2	
805.96	4866.7	
806.13	3389.4	
806.31	3592.8	
806.48	4040.6	
806.66	4437.3	
806.83	3319.1	
807	3263.8	
807.18	4394.3	
807.35	4618.9	
807.53	3095.2	
807.7	2727.2	
807.87	5227.8	
808.05	4353.3	
808.22	3501.3	
808.4	2723.1	
808.57	4328.7	
808.74	4140.3	
808.92	3073.3	
809.09	3731.4	
809.27	4367.6	
809.44	4757.4	
809.61	2736.8	
809.79	2956.6	
809.96	5326.1	
810.14	4865.3	
810.31	2697.9	
810.48	3157.3	
810.66	4463.9	
810.83	4931.5	
811.01	3037.8	
811.18	3295.2	
811.35	4926	
811.53	3937.6	
811.7	3631	
811.87	3368.2	
812.05	4468.7	
812.22	4307.6	
812.39	2947	
812.57	2908.8	
812.74	4403.1	
812.92	5528.2	
813.09	3204.4	
813.26	3351.8	
813.44	5342.5	
813.61	4286.4	
813.78	2658.3	
813.96	3453.6	
814.13	4387.4	
814.3	4228.4	
814.48	3741	
814.65	3138.2	
814.82	5161.6	
815	4208.6	
815.17	3218.7	
815.34	3831.1	
815.52	4305.5	
815.69	4308.9	
815.87	3149.8	
816.04	3151.1	
816.21	4397.7	
816.38	4015.4	
816.56	3082.9	
816.73	2943.6	
816.9	5358.9	
817.08	4928.1	
817.25	2992.1	
817.42	3573	
817.6	4069.3	
817.77	4386.7	
817.94	3244.7	
818.12	2903.3	
818.29	4185.4	
818.46	6049.7	
818.64	3069.9	
818.81	2865.1	
818.98	4190.8	
819.16	5653.1	
819.33	3382.6	
819.5	3203	
819.67	4601.1	
819.85	5094	
820.02	3206.4	
820.19	3343.7	
820.37	4573.8	
820.54	4264.6	
820.71	3278.1	
820.88	3951.9	
821.06	4491.9	
821.23	4172.4	
821.4	3286.3	
821.58	3269.9	
821.75	4880.3	
821.92	4530.8	
822.09	2712.9	
822.27	2817.3	
822.44	4410	
822.61	4367	
822.79	2765.4	
822.96	4961.5	
823.13	4644.1	
823.3	4130.8	
823.48	3056.3	
823.65	2788	
823.82	4920.6	
823.99	4102.8	
824.17	3817.4	
824.34	2813.2	
824.51	5564.3	
824.68	4407.2	
824.86	2913.6	
825.03	3259	
825.2	4411.3	
825.37	5089.2	
825.55	2961.4	
825.72	3175.7	
825.89	5541.1	
826.06	5169.8	
826.24	3134.1	
826.41	3125.9	
826.58	5132.2	
826.75	4590.9	
826.92	2626.2	
827.1	2833.7	
827.27	6733.7	
827.44	5416.9	
827.61	3009.8	
827.79	3566.9	
827.96	4264.6	
828.13	4399	
828.3	3146.4	
828.47	2682.8	
828.65	4671.4	
828.82	4608.6	
828.99	3898.6	
829.16	3444.7	
829.34	4919.9	
829.51	4797	
829.68	3235.8	
829.85	3267.9	
830.02	5099.4	
830.2	4851.6	
830.37	2562.7	
830.54	3750.5	
830.71	5370.5	
830.88	4408.6	
831.05	2564.7	
831.23	2933.4	
831.4	5325.4	
831.57	5672.9	
831.74	3019.4	
831.91	2717	
832.09	4747.9	
832.26	4862.6	
832.43	3027.6	
832.6	3364.8	
832.77	4617.5	
832.94	5137	
833.12	2513.5	
833.29	2977.7	
833.46	4674.8	
833.63	5845.6	
833.8	3317	
833.97	3079.5	
834.15	4969.1	
834.32	4776.5	
834.49	3229.6	
834.66	3211.9	
834.83	4996.4	
835	4251.6	
835.17	2991.4	
835.35	3010.5	
835.52	4863.9	
835.69	4700.1	
835.86	3135.4	
836.03	2639.1	
836.2	4868.7	
836.37	4573.1	
836.55	3033.7	
836.72	2882.9	
836.89	4552	
837.06	4919.9	
837.23	3141.6	
837.4	3378.5	
837.57	5464	
837.75	5849.7	
837.92	2870.6	
838.09	3013.2	
838.26	4636.6	
838.43	5046.9	
838.6	3211.2	
838.77	2839.8	
838.94	5591.6	
839.11	5512.4	
839.29	3067.9	
839.46	2497.2	
839.63	4932.2	
839.8	4620.2	
839.97	2992.1	
840.14	2968.9	
840.31	4764.3	
840.48	4881.7	
840.65	2585.2	
840.82	2968.9	
841	4876.9	
841.17	4740.4	
841.34	2734	
841.51	2840.5	
841.68	4811.4	
841.85	4595.6	
842.02	2921.1	
842.19	2431.6	
842.36	4727.4	
842.53	4682.3	
842.7	2754.5	
842.87	3233.7	
843.05	5881.8	
843.22	4561.5	
843.39	2637.1	
843.56	2852.1	
843.73	4532.2	
843.9	4943.1	
844.07	4229.1	
844.24	3568.9	
844.41	6593.1	
844.58	4327.4	
844.75	2710.1	
844.92	2882.2	
845.09	4826.4	
845.26	4836.6	
845.43	2798.2	
845.6	2926.5	
845.77	4868	
845.94	4683	
846.12	3053.5	
846.29	3133.4	
846.46	5033.9	
846.63	4861.2	
846.8	2794.1	
846.97	3216.7	
847.14	5160.9	
847.31	4789.5	
847.48	3047.4	
847.65	3323.9	
847.82	5055.1	
847.99	4973.2	
848.16	3611.3	
848.33	3374.4	
848.5	4532.2	
848.67	5154.1	
848.84	2733.4	
849.01	2835.8	
849.18	4464.6	
849.35	4229.7	
849.52	3316.3	
849.69	2706.7	
849.86	5072.1	
850.03	5141.1	
850.2	2721.8	
850.37	3230.3	
850.54	5118.6	
850.71	4622.9	
850.88	3279.5	
851.05	2743.6	
851.22	4752	
851.39	5169.1	
851.56	2651.4	
851.73	3147	
851.9	4377.9	
852.07	5025.7	
852.24	3054.9	
852.41	2697.2	
852.58	4773.8	
852.75	4367.6	
852.92	3015.3	
853.09	2688.3	
853.26	4502.8	
853.43	5128.8	
853.6	2779.8	
853.77	2407.7	
853.94	5235.3	
854.11	4295.3	
854.28	3895.9	
854.44	2963.4	
854.61	5483.8	
854.78	5035.3	
854.95	2707.4	
855.12	3330	
855.29	4017.4	
855.46	5236	
855.63	2783.9	
855.8	3594.9	
855.97	4474.1	
856.14	5095.3	
856.31	3801.7	
856.48	2970.2	
856.65	4559.5	
856.82	4259.8	
856.99	2704.7	
857.16	2955.2	
857.33	5616.2	
857.49	4586.1	
857.66	2912.2	
857.83	3145	
858	4579.9	
858.17	4758.1	
858.34	2648	
858.51	2765.4	
858.68	5309	
858.85	5324	
859.02	3136.1	
859.19	3297.9	
859.36	4398.4	
859.52	4362.9	
859.69	2723.1	
859.86	3231	
860.03	4365.6	
860.2	5208	
860.37	2537.4	
860.54	2744.3	
860.71	5003.2	
860.88	5227.1	
861.05	3067.2	
861.21	3403.7	
861.38	5200.5	
861.55	4176.5	
861.72	2579.8	
861.89	3007.1	
862.06	5007.3	
862.23	5309	
862.4	2658.3	
862.56	2856.9	
862.73	4935.6	
862.9	4627	
863.07	3201	
863.24	2508.8	
863.41	4326	
863.58	4356.7	
863.75	2828.9	
863.91	3175.7	
864.08	5151.3	
864.25	4971.8	
864.42	3326.6	
864.59	3726.6	
864.76	5435.3	
864.93	4322.6	
865.09	2628.9	
865.26	2929.3	
865.43	5173.2	
865.6	5427.1	
865.77	2464.4	
865.94	2686.3	
866.1	5149.3	
866.27	4895.3	
866.44	3901.4	
866.61	2625.5	
866.78	4584	
866.95	4884.4	
867.11	2681.5	
867.28	2483.5	
867.45	5122	
867.62	4289.8	
867.79	3110.9	
867.96	2740.9	
868.12	4305.5	
868.29	4966.3	
868.46	2738.1	
868.63	3575.8	
868.8	5068	
868.97	4929.5	
869.13	2850.8	
869.3	2824.8	
869.47	4773.8	
869.64	5053.7	
869.81	2729.3	
869.97	2737.5	
870.14	4794.3	
870.31	5248.9	
870.48	2698.5	
870.65	3391.4	
870.81	4588.8	
870.98	4612.7	
871.15	3096.5	
871.32	2814.6	
871.48	4845.5	
871.65	5335	
871.82	2717.7	
871.99	3029.6	
872.16	5630.5	
872.32	5121.3	
872.49	2828.9	
872.66	2749.7	
872.83	5030.5	
872.99	4493.9	
873.16	3080.1	
873.33	2704	
873.5	4689.8	
873.67	4742.4	
873.83	2854.9	
874	3482.2	
874.17	4846.9	
874.34	5530.2	
874.5	3415.3	
874.67	3302.7	
874.84	5163.6	
875.01	4215.4	
875.17	3715	
875.34	2714.2	
875.51	4832.5	
875.68	5649	
875.84	3251.5	
876.01	3852.9	
876.18	4932.2	
876.34	4878.3	
876.51	2759.3	
876.68	2695.8	
876.85	4552	
877.01	5151.3	
877.18	3775.8	
877.35	2706.7	
877.52	4801.1	
877.68	4290.5	
877.85	2735.4	
878.02	2713.6	
878.18	4539	
878.35	4487.1	
878.52	2312.2	
878.69	3011.2	
878.85	5109.7	
879.02	4909.7	
879.19	3739.6	
879.35	2962	
879.52	4937	
879.69	5054.4	
879.86	2421.4	
880.02	3050.1	
880.19	4644.8	
880.36	5473.5	
880.52	3079.5	
880.69	3160.7	
880.86	5014.1	
881.02	5051	
881.19	2990.7	
881.36	2930	
881.52	4941.1	
881.69	4430.4	
881.86	2899.2	
882.02	2881.5	
882.19	5187.5	
882.36	5892.7	
882.52	2803	
882.69	3686.3	
882.86	4730.8	
883.02	4790.2	
883.19	3280.8	
883.36	3071.3	
883.52	5001.8	
883.69	5550	
883.86	2736.8	
884.02	2522.4	
884.19	4983.4	
884.36	4685.1	
884.52	3046.7	
884.69	2911.5	
884.86	4529.4	
885.02	5393	
885.19	3024.8	
885.36	3172.3	
885.52	4606.6	
885.69	4814.1	
885.86	3825.6	
886.02	3386	
886.19	5001.1	
886.35	4498.7	
886.52	2989.4	
886.69	3725.3	
886.85	4374.5	
887.02	5167.7	
887.19	5167.7	
887.35	5167.7	
887.52	5167.7	
887.68	5167.7	
887.85	5167.7	
888.02	5167.7	
888.18	5167.7	
888.35	5167.7	
888.51	5167.7	
888.68	5167.7	
888.85	5167.7	
889.01	5167.7	
889.18	5167.7	
889.35	5167.7	
889.51	5167.7	
889.68	5167.7	
889.84	5167.7	
890.01	5167.7	
890.17	5167.7	
890.34	5167.7	
890.51	5167.7	
890.67	5167.7	
890.84	5167.7	
891	5167.7	
891.17	5167.7	
891.34	5167.7	
891.5	5167.7	
891.67	5167.7	
891.83	5167.7	
892	5167.7	
892.16	5167.7	
892.33	5167.7	
892.5	5167.7	
892.66	5167.7	
892.83	5167.7	
892.99	5167.7	
893.16	5167.7	
893.32	5167.7	
893.49	5167.7	
893.65	5167.7	
893.82	5167.7	
893.99	5167.7	
894.15	5167.7	
894.32	5167.7	
894.48	5167.7	
894.65	5167.7	
894.81	5167.7	
894.98	5167.7	
895.14	5167.7	
895.31	5167.7	
895.47	5167.7	
895.64	5167.7	
895.81	5167.7	
895.97	5167.7	
896.14	5167.7	
896.3	5167.7	
896.47	5167.7	
896.63	5167.7	
896.8	5167.7	
896.96	5167.7	
897.13	5167.7	
897.29	5167.7	
897.46	5167.7	
897.62	5167.7	
897.79	5167.7	
897.95	5167.7	
898.12	5167.7	
898.28	5167.7	
898.45	5167.7	
898.61	5167.7	
898.78	5167.7	
898.94	5167.7	
899.11	5167.7	
899.27	5167.7	
899.44	5167.7	
899.6	5167.7	
899.77	5167.7	
899.93	5167.7	
900.1	5167.7	
900.26	5167.7	
900.43	5167.7	
900.59	5167.7	
900.76	5167.7	
900.92	5167.7	
901.09	5167.7	
901.25	5167.7	
901.42	5167.7	
901.58	5167.7	
901.75	5167.7	
901.91	5167.7	
902.07	5167.7	
902.24	5167.7	
902.4	5167.7	
902.57	5167.7	
902.73	5167.7	
902.9	5167.7	
903.06	5167.7	
903.23	5167.7	
903.39	5167.7	
903.56	5167.7	
903.72	5167.7	
903.88	5167.7	
904.05	5167.7	
904.21	5167.7	
904.38	5167.7	
904.54	5167.7	
904.71	5167.7	
904.87	5167.7	
905.03	5167.7	
905.2	5167.7	
905.36	5167.7	
905.53	5167.7	
905.69	5167.7	
905.86	5167.7	
906.02	5167.7	
906.18	5167.7	
906.35	5167.7	
906.51	5167.7	
906.68	5167.7	
906.84	5167.7	
907.01	5167.7	
907.17	5167.7	
907.33	5167.7	
907.5	5167.7	
907.66	5167.7	
907.83	5167.7	
907.99	5167.7	
908.15	5167.7	
908.32	5167.7	
908.48	5167.7	
908.65	5167.7	
908.81	5167.7	
908.97	5167.7	
909.14	5167.7	
909.3	5167.7	
909.47	5167.7	
909.63	5167.7	
909.79	5167.7	
909.96	5167.7	
910.12	5167.7	
910.28	5167.7	
910.45	5167.7	
910.61	5167.7	
910.78	5167.7	
910.94	5167.7	
911.1	5167.7	
911.27	5167.7	
911.43	5167.7	
911.59	5167.7	
911.76	5167.7	
911.92	5167.7	
912.08	5167.7	
912.25	5167.7	
912.41	5167.7	
912.57	5167.7	
912.74	5167.7	
912.9	5167.7	
913.07	5167.7	
913.23	5167.7	
913.39	5167.7	
913.56	5167.7	
913.72	5167.7	
913.88	5167.7	
914.05	5167.7	
914.21	5167.7	
914.37	5167.7	
914.54	5167.7	
914.7	5167.7	
914.86	5167.7	
915.03	5167.7	
915.19	5167.7	
