Wavelength	Intensities	
nm	a.u.	
179.22	1937.2	
179.44	1927.5	
179.65	1946.9	
179.86	1908	
180.08	1969.5	
180.29	5002.5	
180.51	3596.2	
180.72	5709.7	
180.94	6742.6	
181.15	3319.1	
181.37	3173	
181.58	5572.5	
181.79	5868.8	
182.01	3424.2	
182.22	3687	
182.44	5805.3	
182.65	4882.4	
182.87	4633.9	
183.08	4040.6	
183.29	6156.9	
183.51	5053.7	
183.72	3688.4	
183.94	5432.6	
184.15	5371.8	
184.37	5526.8	
184.58	3248.8	
184.79	4499.4	
185.01	5100.8	
185.22	5899.5	
185.44	4811.4	
185.65	3992.2	
185.86	5351.3	
186.08	4931.5	
186.29	3227.6	
186.51	3463.8	
186.72	5075.5	
186.94	6021.7	
187.15	3969.6	
187.36	4134.2	
187.58	7873.8	
187.79	5568.4	
188.01	4252.9	
188.22	6679.8	
188.43	6723.5	
188.65	5844.9	
188.86	3413.3	
189.08	4125.3	
189.29	5218.9	
189.5	5302.2	
189.72	3830.4	
189.93	3826.3	
190.15	6047.7	
190.36	7202	
190.57	4158.1	
190.79	4049.5	
191	6144.6	
191.22	6027.2	
191.43	4231.1	
191.64	3416	
191.86	6367.8	
192.07	6122.7	
192.29	3592.8	
192.5	3828.3	
192.71	6037.4	
192.93	5164.3	
193.14	3719.1	
193.35	3859.7	
193.57	5262.6	
193.78	5975.3	
194	3016.7	
194.21	3756	
194.42	4998.4	
194.64	5513.1	
194.85	4045.4	
195.07	4754.7	
195.28	5491.3	
195.49	4745.8	
195.71	5068.7	
195.92	3538.2	
196.13	5669.5	
196.35	5788.2	
196.56	5431.9	
196.78	4067.3	
196.99	7100.3	
197.2	6709.1	
197.42	4672.8	
197.63	4126	
197.84	4922.6	
198.06	5682.4	
198.27	3817.4	
198.48	5108.3	
198.7	5162.2	
198.91	5359.5	
199.13	4136.9	
199.34	4128.7	
199.55	5872.2	
199.77	4795	
199.98	3605.8	
200.19	4233.2	
200.41	5324	
200.62	5045.5	
200.83	4336.9	
201.05	4588.1	
201.26	5331.5	
201.47	5086.5	
201.69	3673.4	
201.9	3525.9	
202.11	5418.9	
202.33	6500.3	
202.54	3924.6	
202.76	4326	
202.97	5596.4	
203.18	5641.5	
203.4	4256.4	
203.61	4181.3	
203.82	5513.8	
204.04	5118.6	
204.25	4217.5	
204.46	4128.7	
204.68	5488.6	
204.89	5720	
205.1	4009.2	
205.32	3429.7	
205.53	5930.2	
205.74	6014.9	
205.96	2995.5	
206.17	4261.1	
206.38	5871.5	
206.6	6021.7	
206.81	4758.1	
207.02	3840.6	
207.24	5788.2	
207.45	6152.1	
207.66	3936.2	
207.88	3358	
208.09	5671.5	
208.3	5471.5	
208.52	3594.9	
208.73	3889.8	
208.94	5440.8	
209.15	6201.9	
209.37	3902.7	
209.58	4167.6	
209.79	6039.5	
210.01	5294	
210.22	3175.7	
210.43	3283.6	
210.65	5477.6	
210.86	5931.6	
211.07	3975.1	
211.29	3590.8	
211.5	5876.3	
211.71	5415.5	
211.93	3558	
212.14	3616	
212.35	5399.1	
212.56	5686.5	
212.78	4182	
212.99	3420.1	
213.2	6526.2	
213.42	5194.3	
213.63	3738.9	
213.84	4030.4	
214.06	4859.1	
214.27	4958.8	
214.48	3922.5	
214.69	4177.9	
214.91	6164.4	
215.12	6251.1	
215.33	4227	
215.55	4719.2	
215.76	6795.2	
215.97	5907	
216.18	4142.4	
216.4	3968.3	
216.61	5114.5	
216.82	6054.5	
217.04	3666.5	
217.25	3808.5	
217.46	6147.3	
217.67	5849.7	
217.89	3265.8	
218.1	3348.4	
218.31	5505.6	
218.53	5660.6	
218.74	3814	
218.95	3767.6	
219.16	5393.7	
219.38	6453.1	
219.59	3678.2	
219.8	4395.6	
220.01	7122.2	
220.23	5552.7	
220.44	4915.1	
220.65	3609.2	
220.87	5547.9	
221.08	6109.8	
221.29	3396.2	
221.5	4474.8	
221.72	7623.9	
221.93	5210	
222.14	4158.7	
222.35	4913.1	
222.57	5516.5	
222.78	5800.5	
222.99	3928.7	
223.2	4226.3	
223.42	5808	
223.63	5924.8	
223.84	3045.3	
224.05	2979.8	
224.27	7010.9	
224.48	6488.6	
224.69	4912.4	
224.9	4213.4	
225.12	5746.6	
225.33	5464.7	
225.54	3366.2	
225.75	3691.8	
225.97	5029.1	
226.18	5340.4	
226.39	4055.7	
226.6	3727.3	
226.82	5223.7	
227.03	5109	
227.24	4171.7	
227.45	3372.3	
227.67	5859.2	
227.88	6501.6	
228.09	4662.5	
228.3	4655	
228.52	5943.9	
228.73	5418.2	
228.94	3828.3	
229.15	3389.4	
229.36	5369.8	
229.58	5300.1	
229.79	3889.1	
230	4562.9	
230.21	6528.2	
230.43	5588.2	
230.64	4106.2	
230.85	4339.6	
231.06	5877.7	
231.28	5909.1	
231.49	3461.1	
231.7	4063.2	
231.91	5753.4	
232.12	5545.2	
232.34	3510.2	
232.55	4020.8	
232.76	6176	
232.97	5712.5	
233.18	3639.9	
233.4	4111.6	
233.61	5685.8	
233.82	5265.3	
234.03	3777.1	
234.25	3734.1	
234.46	7704.5	
234.67	5531.6	
234.88	4205.2	
235.09	3688.4	
235.31	5768.4	
235.52	5340.4	
235.73	4124.6	
235.94	3462.4	
236.15	5213.4	
236.37	6679.8	
236.58	3629.7	
236.79	3964.9	
237	5799.8	
237.21	4942.4	
237.43	4205.2	
237.64	3345.7	
237.85	10149	
238.06	5041.4	
238.27	4360.1	
238.48	3465.8	
238.7	5857.2	
238.91	5322.7	
239.12	3941.7	
239.33	3966.9	
239.54	5242.8	
239.76	5380.7	
239.97	3946.4	
240.18	3977.8	
240.39	6843.6	
240.6	5826.5	
240.82	4098.7	
241.03	3377.1	
241.24	5541.1	
241.45	6451.1	
241.66	3610.6	
241.87	4289.1	
242.09	6253.1	
242.3	6641.6	
242.51	4312.3	
242.72	3981.9	
242.93	5993.7	
243.14	5390.3	
243.36	4604.5	
243.57	4960.9	
243.78	6395.8	
243.99	5776.6	
244.2	3971	
244.41	3644	
244.63	4995.7	
244.84	5810.8	
245.05	4254.3	
245.26	4012.7	
245.47	5803.9	
245.68	6061.3	
245.9	5355.4	
246.11	4158.7	
246.32	5299.5	
246.53	5727.5	
246.74	6470.2	
246.95	3293.8	
247.16	4971.8	
247.38	5440.1	
247.59	3316.3	
247.8	4037.9	
248.01	5214.1	
248.22	5410.1	
248.43	3590.1	
248.64	3871.3	
248.86	4838	
249.07	5265.3	
249.28	3472.7	
249.49	4074.1	
249.7	6034	
249.91	6230.6	
250.12	3335.5	
250.34	3351.8	
250.55	5659.2	
250.76	5513.8	
250.97	4107.5	
251.18	4142.4	
251.39	6236.1	
251.6	5666.7	
251.81	4219.5	
252.03	4183.3	
252.24	5223.7	
252.45	6085.9	
252.66	3463.1	
252.87	4410.6	
253.08	5559.6	
253.29	7274.4	
253.5	3437.2	
253.72	4905.6	
253.93	5276.9	
254.14	6542.6	
254.35	3752.6	
254.56	3908.9	
254.77	5748.6	
254.98	5071.5	
255.19	3720.5	
255.41	4806.6	
255.62	5564.3	
255.83	6195.1	
256.04	4259.1	
256.25	4174.4	
256.46	6613.6	
256.67	5188.2	
256.88	4113.7	
257.09	4577.2	
257.31	5156.8	
257.52	5146.5	
257.73	5175.9	
257.94	3773.7	
258.15	5313.1	
258.36	5481	
258.57	4748.6	
258.78	3005.1	
258.99	5952.1	
259.2	5269.4	
259.41	3812	
259.63	3898	
259.84	6402.6	
260.05	6875.7	
260.26	5063.3	
260.47	3710.9	
260.68	6098.9	
260.89	5354.1	
261.1	4610.7	
261.31	3618.1	
261.52	6077.7	
261.73	6451.1	
261.95	4947.2	
262.16	4294.6	
262.37	6241.5	
262.58	6341.2	
262.79	4887.8	
263	3863.8	
263.21	5409.4	
263.42	5016.2	
263.63	3915	
263.84	3832.4	
264.05	6020.3	
264.26	6458.6	
264.47	4775.9	
264.69	4091.8	
264.9	6213.5	
265.11	5730.9	
265.32	3657.7	
265.53	3827	
265.74	5622.4	
265.95	4882.4	
266.16	4039.3	
266.37	4471.4	
266.58	5618.3	
266.79	5284.4	
267	3741	
267.21	3438.5	
267.42	5046.2	
267.63	5418.2	
267.84	3972.4	
268.06	3396.9	
268.27	5922	
268.48	6175.3	
268.69	3822.9	
268.9	4626.4	
269.11	6151.4	
269.32	4925.4	
269.53	3997	
269.74	3663.1	
269.95	5780.7	
270.16	4846.9	
270.37	3967.6	
270.58	4617.5	
270.79	5302.2	
271	6035.4	
271.21	4291.9	
271.42	3971	
271.63	5619.6	
271.84	5084.4	
272.05	3116.3	
272.26	3509.5	
272.47	5544.5	
272.68	5731.6	
272.89	3811.3	
273.11	4465.3	
273.32	5310.4	
273.53	6447	
273.74	4304.1	
273.95	4199	
274.16	6117.3	
274.37	5591	
274.58	4303.5	
274.79	3472	
275	5644.9	
275.21	6202.6	
275.42	5227.8	
275.63	4508.9	
275.84	5767.8	
276.05	7256.6	
276.26	4171.7	
276.47	3934.1	
276.68	5341.1	
276.89	6573.3	
277.1	4547.2	
277.31	3513.6	
277.52	5842.2	
277.73	5872.2	
277.94	3458.3	
278.15	3846.1	
278.36	5687.2	
278.57	5164.3	
278.78	3746.4	
278.99	4328	
279.2	5123.3	
279.41	5051	
279.62	5046.9	
279.83	3556	
280.04	6773.3	
280.25	5025.7	
280.46	4988.2	
280.67	4055	
280.88	5070.1	
281.09	6185.5	
281.3	4220.9	
281.51	5257.1	
281.72	5120.6	
281.93	5969.8	
282.14	3701.4	
282.35	4033.8	
282.56	6010.1	
282.77	5977.3	
282.98	3817.4	
283.19	4719.9	
283.4	7397.3	
283.61	5464.7	
283.82	3422.2	
284.03	4960.9	
284.24	5658.5	
284.45	6217.6	
284.66	4982	
284.87	4763.6	
285.08	6066.8	
285.29	6313.9	
285.5	3373	
285.71	3895.9	
285.92	6122.7	
286.12	6913.3	
286.33	4870.1	
286.54	3867.9	
286.75	6040.1	
286.96	5375.2	
287.17	3566.9	
287.38	4857.1	
287.59	5089.2	
287.8	5081.7	
288.01	3902.7	
288.22	4513.7	
288.43	6038.8	
288.64	5051.7	
288.85	4607.2	
289.06	4414.7	
289.27	5912.5	
289.48	6445.6	
289.69	5036	
289.9	4450.9	
290.11	6153.5	
290.32	5174.5	
290.53	4637.3	
290.74	4307.6	
290.94	5937.7	
291.15	6023.8	
291.36	3708.9	
291.57	4496	
291.78	5205.3	
291.99	4934.9	
292.2	3573	
292.41	4341	
292.62	6076.3	
292.83	5863.3	
293.04	5356.1	
293.25	3596.9	
293.46	5276.3	
293.67	6109.8	
293.88	3722.5	
294.09	3595.6	
294.29	5009.3	
294.5	5635.3	
294.71	4035.2	
294.92	3850.2	
295.13	5318.6	
295.34	6681.8	
295.55	3303.4	
295.76	3477.5	
295.97	5964.4	
296.18	6712.6	
296.39	3531.4	
296.6	3758.7	
296.81	5597.1	
297.01	5961	
297.22	3881.6	
297.43	3689.1	
297.64	5166.3	
297.85	5130.8	
298.06	3068.5	
298.27	3393.5	
298.48	5565	
298.69	5210	
298.9	4001	
299.11	3665.9	
299.31	4979.3	
299.52	5016.2	
299.73	4338.3	
299.94	4240	
300.15	5473.5	
300.36	5065.3	
300.57	4285.7	
300.78	4234.5	
300.99	5395.7	
301.2	5610.8	
301.4	3677.5	
301.61	4029	
301.82	5807.4	
302.03	5956.9	
302.24	4560.8	
302.45	3511.6	
302.66	5827.8	
302.87	6346.7	
303.08	3699.3	
303.29	5137	
303.49	5260.5	
303.7	5560.2	
303.91	3314.3	
304.12	4900.1	
304.33	5027.1	
304.54	5673.6	
304.75	3775.1	
304.96	3604.4	
305.16	5857.2	
305.37	6625.9	
305.58	3227.6	
305.79	3405.1	
306	5827.2	
306.21	4904.9	
306.42	3785.3	
306.63	5726.1	
306.83	5366.4	
307.04	6141.9	
307.25	4132.8	
307.46	4060.4	
307.67	4730.1	
307.88	5961.6	
308.09	3681.6	
308.29	3796.9	
308.5	5554.8	
308.71	6151.4	
308.92	4028.4	
309.13	3640.6	
309.34	5444.2	
309.55	5398.4	
309.75	4634.6	
309.96	4246.8	
310.17	5935.7	
310.38	5257.1	
310.59	4492.6	
310.8	3516.4	
311.01	5312.4	
311.21	5334.3	
311.42	3571.7	
311.63	3727.3	
311.84	5221	
312.05	5721.3	
312.26	4164.9	
312.46	4550.6	
312.67	5294.7	
312.88	4993.6	
313.09	3573	
313.3	3516.4	
313.51	6354.8	
313.71	6686.6	
313.92	3615.3	
314.13	3794.9	
314.34	5654.4	
314.55	5366.4	
314.76	4590.2	
314.96	4035.9	
315.17	5599.1	
315.38	5984.8	
315.59	3609.2	
315.8	3450.1	
316.01	6455.9	
316.21	6432	
316.42	3443.3	
316.63	3971.7	
316.84	5319.3	
317.05	6269.5	
317.26	4263.9	
317.46	3852.2	
317.67	5394.3	
317.88	5915.2	
318.09	4637.3	
318.3	3312.9	
318.5	5262.6	
318.71	5894.1	
318.92	5875.6	
319.13	4235.9	
319.34	6008.7	
319.54	6155.5	
319.75	3358.7	
319.96	3190.1	
320.17	5883.1	
320.38	6146	
320.58	3301.3	
320.79	3975.1	
321	6111.1	
321.21	6275	
321.42	3986	
321.62	3278.8	
321.83	5063.9	
322.04	5534.3	
322.25	3771.7	
322.46	3620.8	
322.66	5617.6	
322.87	5809.4	
323.08	4502.8	
323.29	3618.1	
323.5	6657.3	
323.7	5040.7	
323.91	5010.7	
324.12	4416.8	
324.33	5555.5	
324.53	5822.4	
324.74	4315.8	
324.95	4509.6	
325.16	4903.5	
325.37	5328.1	
325.57	3639.2	
325.78	3691.1	
325.99	5559.6	
326.2	4973.2	
326.4	5122	
326.61	3324.5	
326.82	5417.6	
327.03	5638.7	
327.24	5139.7	
327.44	4890.5	
327.65	5806.7	
327.86	4677.6	
328.07	4268.6	
328.27	3509.5	
328.48	6182.8	
328.69	5117.2	
328.9	5259.9	
329.1	3892.5	
329.31	5434.6	
329.52	6386.9	
329.73	3611.9	
329.93	4092.5	
330.14	5538.4	
330.35	5786.2	
330.56	5945.3	
330.76	4460.5	
330.97	5276.9	
331.18	5751.4	
331.39	4023.6	
331.59	3232.4	
331.8	6127.5	
332.01	6275	
332.22	3735.5	
332.42	4289.1	
332.63	5634.6	
332.84	5212.8	
333.05	4072.7	
333.25	3682.2	
333.46	5317.9	
333.67	5500.2	
333.88	3745.7	
334.08	4216.8	
334.29	7415.7	
334.5	6246.3	
334.7	3516.4	
334.91	5223.7	
335.12	5023	
335.33	5961.6	
335.53	4025.6	
335.74	6006.7	
335.95	5301.5	
336.16	5158.2	
336.36	3971	
336.57	4653.7	
336.78	4993.6	
336.98	6141.2	
337.19	5023.7	
337.4	3964.2	
337.61	6631.3	
337.81	5048.9	
338.02	3654.3	
338.23	4864.6	
338.43	6270.2	
338.64	5134.9	
338.85	3631.7	
339.05	4748.6	
339.26	6397.2	
339.47	4938.3	
339.68	3634.5	
339.88	5434.6	
340.09	5752.1	
340.3	6015.6	
340.5	4229.1	
340.71	3243.3	
340.92	4975.2	
341.13	6237.4	
341.33	3514.3	
341.54	4313.7	
341.75	5755.5	
341.95	5394.3	
342.16	4052.2	
342.37	4475.5	
342.57	5124.7	
342.78	5498.8	
342.99	4575.2	
343.19	3282.9	
343.4	5937.7	
343.61	5809.4	
343.81	3835.8	
344.02	3549.1	
344.23	5953.4	
344.43	6391.7	
344.64	4517.1	
344.85	4429.8	
345.06	5840.1	
345.26	6101.6	
345.47	4182	
345.68	4949.3	
345.88	4896.7	
346.09	5984.8	
346.3	4314.4	
346.5	3252.2	
346.71	5553.4	
346.92	5200.5	
347.12	3280.2	
347.33	4207.9	
347.54	6092	
347.74	6549.4	
347.95	4199	
348.16	3095.2	
348.36	5362.9	
348.57	5029.8	
348.78	4157.4	
348.98	4419.5	
349.19	5459.2	
349.39	4941.7	
349.6	3317.7	
349.81	3710.2	
350.01	5788.9	
350.22	5266.7	
350.43	3979.2	
350.63	4829.8	
350.84	5531.6	
351.05	5316.5	
351.25	3667.2	
351.46	3319.1	
351.67	6143.2	
351.87	5210	
352.08	3906.8	
352.29	4485.7	
352.49	5946.6	
352.7	5670.8	
352.9	3615.3	
353.11	4432.5	
353.32	6732.4	
353.52	5306.3	
353.73	3488.4	
353.94	4450.9	
354.14	5830.6	
354.35	5684.5	
354.55	3612.6	
354.76	4044.7	
354.97	5827.8	
355.17	5571.2	
355.38	3399.6	
355.59	4807.3	
355.79	5152	
356	5601.2	
356.2	3951.9	
356.41	3480.9	
356.62	4913.1	
356.82	5436	
357.03	4326	
357.24	3880.9	
357.44	5260.5	
357.65	5378.6	
357.85	5209.3	
358.06	3987.4	
358.27	4909	
358.47	5158.8	
358.68	3371	
358.88	4260.5	
359.09	5769.8	
359.3	6130.9	
359.5	5001.8	
359.71	4420.2	
359.91	6672.3	
360.12	5907	
360.33	4228.4	
360.53	4700.8	
360.74	5203.2	
360.94	5286.5	
361.15	4489.1	
361.36	3659	
361.56	6021	
361.77	5475.6	
361.97	4946.5	
362.18	3906.8	
362.38	6069.5	
362.59	5075.5	
362.8	3593.5	
363	3491.8	
363.21	4918.5	
363.41	5715.9	
363.62	4179.2	
363.83	5279	
364.03	5617.6	
364.24	6612.9	
364.44	5270.8	
364.65	5238	
364.85	5358.9	
365.06	5279.7	
365.27	3819.5	
365.47	3804.4	
365.68	6411.5	
365.88	5340.4	
366.09	4268.6	
366.29	3859.7	
366.5	5602.6	
366.71	6111.8	
366.91	5239.4	
367.12	4391.5	
367.32	6723.5	
367.53	5954.1	
367.73	4343.1	
367.94	5339.7	
368.14	5892.7	
368.35	6877.1	
368.56	4259.1	
368.76	3592.8	
368.97	6029.2	
369.17	7857.4	
369.38	3831.1	
369.58	4034.5	
369.79	5025.7	
369.99	6425.2	
370.2	5165	
370.4	4160.8	
370.61	5739.1	
370.82	6956.3	
371.02	4018.8	
371.23	3370.3	
371.43	4954.7	
371.64	6369.2	
371.84	4022.2	
372.05	5326.8	
372.25	7722.2	
372.46	5999.2	
372.66	4115.1	
372.87	4074.1	
373.07	6008.1	
373.28	7690.8	
373.48	5143.1	
373.69	4872.1	
373.9	5483.8	
374.1	5580	
374.31	5082.4	
374.51	4552	
374.72	6427.2	
374.92	5207.3	
375.13	5255.8	
375.33	4418.8	
375.54	5999.2	
375.74	5373.9	
375.95	4388.1	
376.15	5799.8	
376.36	5939.1	
376.56	5726.8	
376.77	4532.2	
376.97	4951.3	
377.18	7004.1	
377.38	6057.2	
377.59	5315.8	
377.79	3994.9	
378	5768.4	
378.2	6266.8	
378.41	4070.7	
378.61	3979.9	
378.82	6301.6	
379.02	5403.9	
379.23	4198.3	
379.43	5323.4	
379.64	6355.5	
379.84	6062.7	
380.05	4080.9	
380.25	3997.6	
380.46	6112.5	
380.66	5694.7	
380.87	5429.8	
381.07	5853.1	
381.28	6734.4	
381.48	6069.5	
381.69	4050.2	
381.89	4102.8	
382.1	5020.3	
382.3	6240.2	
382.51	5187.5	
382.71	6171.9	
382.91	6137.8	
383.12	6604.7	
383.32	4418.2	
383.53	4685.1	
383.73	5883.8	
383.94	5774.6	
384.14	4587.4	
384.35	3759.4	
384.55	5642.8	
384.76	6141.9	
384.96	4476.2	
385.17	4794.3	
385.37	6117.3	
385.58	5380	
385.78	4839.4	
385.98	3664.5	
386.19	5636	
386.39	5986.9	
386.6	4208.6	
386.8	4545.1	
387.01	6109.8	
387.21	6137.1	
387.42	4923.3	
387.62	5529.5	
387.83	5446.2	
388.03	6149.4	
388.23	4588.1	
388.44	5328.8	
388.64	5071.5	
388.85	5240.1	
389.05	4865.3	
389.26	5546.6	
389.46	7198.6	
389.67	6585.6	
389.87	4859.1	
390.07	4932.9	
390.28	5787.6	
390.48	5335.6	
390.69	4085.7	
390.89	4384.7	
391.1	5518.6	
391.3	6442.2	
391.5	5623.7	
391.71	6264.7	
391.91	6225.8	
392.12	7261.4	
392.32	5680.4	
392.53	4941.7	
392.73	5612.8	
392.93	5819	
393.14	4584.7	
393.34	5335.6	
393.55	6160.3	
393.75	5780.1	
393.95	4567.7	
394.16	4508.9	
394.36	5570.5	
394.57	6231.3	
394.77	4042.7	
394.98	4468	
395.18	5433.9	
395.38	5637.4	
395.59	5385.5	
395.79	4285	
396	5633.3	
396.2	6178	
396.4	5168.4	
396.61	5059.2	
396.81	6394.4	
397.02	5576.6	
397.22	5394.3	
397.42	5460.6	
397.63	6359.6	
397.83	5499.5	
398.04	4278.2	
398.24	4799.1	
398.44	6059.3	
398.65	5181.4	
398.85	4154	
399.05	4228.4	
399.26	5527.5	
399.46	7324.2	
399.67	4617.5	
399.87	4388.1	
400.07	5924.8	
400.28	6226.5	
400.48	4470.7	
400.69	5590.3	
400.89	6500.9	
401.09	6929.6	
401.3	4274.1	
401.5	5496.7	
401.7	7178.8	
401.91	7357.7	
402.11	4694.6	
402.32	4916.5	
402.52	6432.7	
402.72	6406.7	
402.93	5127.4	
403.13	3972.4	
403.33	7277.8	
403.54	5990.3	
403.74	4796.3	
403.94	5739.1	
404.15	6012.8	
404.35	7225.9	
404.56	4676.9	
404.76	6563.1	
404.96	6464.1	
405.17	6277	
405.37	5866.7	
405.57	5102.9	
405.78	6495.5	
405.98	5900.2	
406.18	4599.1	
406.39	5587.5	
406.59	6468.9	
406.79	6129.6	
407	4455	
407.2	4696.7	
407.4	6589.7	
407.61	6772.6	
407.81	4573.8	
408.01	7036.1	
408.22	5570.5	
408.42	7649.8	
408.62	5657.2	
408.83	5157.5	
409.03	6183.5	
409.23	5957.5	
409.44	5248.3	
409.64	5569.1	
409.84	7104.4	
410.05	6989	
410.25	5384.1	
410.45	5141.8	
410.66	6458.6	
410.86	9060.9	
411.06	5621.7	
411.27	5473.5	
411.47	8729.8	
411.67	6713.2	
411.88	5694.7	
412.08	5928.2	
412.28	7353.6	
412.49	7847.1	
412.69	5437.4	
412.89	5532.9	
413.09	7671	
413.3	7491.5	
413.5	5524.1	
413.7	5124	
413.91	6717.3	
414.11	7665.5	
414.31	5317.2	
414.52	5863.3	
414.72	7307.2	
414.92	7184.3	
415.12	5434.6	
415.33	5903.6	
415.53	7654.6	
415.73	7845.8	
415.94	6293.4	
416.14	5694.7	
416.34	6546	
416.55	6270.9	
416.75	6950.8	
416.95	6360.3	
417.15	7593.9	
417.36	8419.2	
417.56	7225.9	
417.76	6188.3	
417.97	8067.6	
418.17	7673.1	
418.37	5709.1	
418.57	5894.7	
418.78	7378.8	
418.98	7109.9	
419.18	6739.2	
419.38	6692.8	
419.59	7238.2	
419.79	6765.1	
419.99	5748.6	
420.2	6066.1	
420.4	7733.1	
420.6	7875.8	
420.8	5597.1	
421.01	5444.2	
421.21	7428	
421.41	7670.3	
421.61	6040.8	
421.82	5677.7	
422.02	6956.3	
422.22	7937.2	
422.42	6557.6	
422.63	6167.1	
422.83	7131	
423.03	8389.2	
423.23	6183.5	
423.44	5172.5	
423.64	7141.3	
423.84	6901.7	
424.04	5678.3	
424.25	5245.5	
424.45	8193.2	
424.65	8062.9	
424.85	5106.3	
425.06	5752.7	
425.26	8142.7	
425.46	7009.5	
425.66	6223.1	
425.87	5829.2	
426.07	7860.1	
426.27	7740.6	
426.47	6004	
426.67	5319.3	
426.88	8292.2	
427.08	7650.5	
427.28	6375.3	
427.48	5296	
427.69	6537.1	
427.89	7208.2	
428.09	6191.7	
428.29	5362.9	
428.5	7928.4	
428.7	7477.8	
428.9	5250.3	
429.1	6013.5	
429.3	7306.5	
429.51	7878.5	
429.71	5627.1	
429.91	6403.3	
430.11	7631.4	
430.31	7970.7	
430.52	5923.4	
430.72	6271.6	
430.92	8277.9	
431.12	7767.3	
431.32	5681.1	
431.53	6083.8	
431.73	6641.6	
431.93	8418.5	
432.13	5508.4	
432.33	5477	
432.54	7122.8	
432.74	7535.8	
432.94	5348.6	
433.14	6350.1	
433.34	7640.3	
433.55	7212.3	
433.75	6329.6	
433.95	8282.7	
434.15	7469.6	
434.35	7160.4	
434.56	5584.1	
434.76	5073.5	
434.96	7456.7	
435.16	7753.6	
435.36	5418.2	
435.56	6634.1	
435.77	7070.3	
435.97	7293.5	
436.17	7326.3	
436.37	6554.2	
436.57	7141.9	
436.78	6920.8	
436.98	8363.2	
437.18	7103	
437.38	7786.4	
437.58	7302.4	
437.78	7281.2	
437.99	5850.4	
438.19	7830.1	
438.39	8705.2	
438.59	5892	
438.79	5429.8	
438.99	8567.3	
439.2	7442.3	
439.4	5503.6	
439.6	5555.5	
439.8	7733.8	
440	8856.8	
440.2	6554.9	
440.4	6691.4	
440.61	8041	
440.81	8652.7	
441.01	5716.6	
441.21	6634.1	
441.41	8485.4	
441.61	8126.3	
441.81	7017.7	
442.02	8082	
442.22	9052	
442.42	8211	
442.62	5864.7	
442.82	5873.6	
443.02	8585.8	
443.22	7714	
443.43	6282.5	
443.63	5836.7	
443.83	7435.5	
444.03	7578.2	
444.23	7097.6	
444.43	6713.9	
444.63	7854.6	
444.83	8917.5	
445.04	5935.7	
445.24	7298.3	
445.44	8159.1	
445.64	8321.6	
445.84	6697.5	
446.04	6815	
446.24	7564.5	
446.44	8553.7	
446.65	5984.2	
446.85	6332.3	
447.05	7892.2	
447.25	8544.1	
447.45	6394.4	
447.65	5821	
447.85	7854	
448.05	7488.1	
448.25	6964.5	
448.46	6748.1	
448.66	7916.8	
448.86	7503.8	
449.06	5644.2	
449.26	6869.6	
449.46	8316.1	
449.66	7230.7	
449.86	6416.3	
450.06	6403.3	
450.26	7481.9	
450.47	8092.2	
450.67	6574	
450.87	7032.7	
451.07	8112	
451.27	7991.2	
451.47	5903.6	
451.67	6571.9	
451.87	7595.2	
452.07	8798.8	
452.27	6175.3	
452.47	6205.3	
452.67	7941.3	
452.88	8669.7	
453.08	5521.3	
453.28	7701.7	
453.48	9239.8	
453.68	7982.3	
453.88	6171.9	
454.08	6454.5	
454.28	8377.6	
454.48	8023.9	
454.68	7034.1	
454.88	7572.7	
455.08	8441	
455.28	8260.1	
455.48	6061.3	
455.68	6764.4	
455.89	9026.8	
456.09	8589.2	
456.29	6458.6	
456.49	6518	
456.69	8979	
456.89	8136.6	
457.09	7059.3	
457.29	7518.8	
457.49	8473.1	
457.69	8681.3	
457.89	6909.2	
458.09	6253.1	
458.29	8204.8	
458.49	8875.9	
458.69	7277.8	
458.89	6738.5	
459.09	9232.2	
459.29	9407.7	
459.49	6888	
459.69	7744.1	
459.9	8839.7	
460.1	8355	
460.3	6792.4	
460.5	6589.7	
460.7	8812.4	
460.9	8567.3	
461.1	6201.9	
461.3	7643.7	
461.5	9463	
461.7	9046.6	
461.9	6729.6	
462.1	7274.4	
462.3	8584.4	
462.5	9220	
462.7	6844.3	
462.9	6937.8	
463.1	10320	
463.3	9991.4	
463.5	7154.2	
463.7	8215.8	
463.9	8873.8	
464.1	9283.4	
464.3	7278.5	
464.5	7625.3	
464.7	9573.6	
464.9	9251.4	
465.1	9039.1	
465.3	7866.2	
465.5	9929.9	
465.7	9940.8	
465.9	8366	
466.1	8009.6	
466.3	9768.1	
466.5	9503.3	
466.7	9013.1	
466.9	7808.2	
467.1	9541.5	
467.3	10587	
467.5	9024.7	
467.7	7763.2	
467.9	10834	
468.1	11762	
468.3	8605.6	
468.5	9138.7	
468.7	9520.3	
468.9	9458.2	
469.1	8137.9	
469.3	8890.9	
469.5	11601	
469.7	9129.8	
469.9	8578.9	
470.1	7921.5	
470.3	9590	
470.5	9540.8	
470.7	9249.3	
470.9	7838.9	
471.1	9443.2	
471.3	9787.9	
471.5	7735.9	
471.69	9664.4	
471.89	9186.5	
472.09	8701.8	
472.29	8571.4	
472.49	8950.3	
472.69	8918.2	
472.89	9833	
473.09	7680.6	
473.29	7832.8	
473.49	9134.6	
473.69	9271.2	
473.89	8868.4	
474.09	7877.2	
474.29	10615	
474.49	10250	
474.69	8837	
474.89	8056.7	
475.09	9314.8	
475.29	9284.1	
475.49	7453.9	
475.69	7708.6	
475.88	10990	
476.08	9557.9	
476.28	7415.7	
476.48	7910.6	
476.68	10076	
476.88	9891.7	
477.08	7811	
477.28	8183	
477.48	9323.7	
477.68	10079	
477.88	7561.1	
478.08	7900.4	
478.28	10421	
478.48	9520.3	
478.67	7945.4	
478.87	7334.5	
479.07	10356	
479.27	9674.6	
479.47	8256	
479.67	8262.2	
479.87	10083	
480.07	10630	
480.27	7393.8	
480.47	9106.6	
480.67	9677.3	
480.87	10404	
481.06	7717.4	
481.26	8628.1	
481.46	9648.7	
481.66	9600.9	
481.86	8189.8	
482.06	9271.8	
482.26	9321.7	
482.46	10553	
482.66	8163.2	
482.86	7756.3	
483.05	9701.9	
483.25	9189.2	
483.45	10763	
483.65	8180.3	
483.85	9322.4	
484.05	9697.1	
484.25	8752.3	
484.45	9228.1	
484.65	10608	
484.84	10659	
485.04	8252.6	
485.24	8125	
485.44	10794	
485.64	9125.7	
485.84	7466.9	
486.04	9004.9	
486.24	9585.2	
486.44	10032	
486.63	7494.9	
486.83	8348.9	
487.03	9466.4	
487.23	9755.2	
487.43	7559.1	
487.63	10169	
487.83	9833.7	
488.02	10836	
488.22	8665	
488.42	9407.7	
488.62	10747	
488.82	9583.1	
489.02	8308.6	
489.22	8447.2	
489.41	10636	
489.61	10286	
489.81	8114.7	
490.01	8000.7	
490.21	10458	
490.41	11119	
490.61	8001.4	
490.8	8086.7	
491	9913.5	
491.2	9197.4	
491.4	8846.5	
491.6	7919.5	
491.8	10140	
491.99	10269	
492.19	7901.7	
492.39	8282.7	
492.59	10680	
492.79	10824	
492.99	9233.6	
493.18	8198.7	
493.38	10799	
493.58	11660	
493.78	8935.3	
493.98	8620.6	
494.18	10594	
494.37	10064	
494.57	9355.1	
494.77	9293	
494.97	10942	
495.17	11197	
495.37	8790.6	
495.56	9206.3	
495.76	11370	
495.96	10880	
496.16	10131	
496.36	9037	
496.55	11186	
496.75	10716	
496.95	9441.1	
497.15	9199.5	
497.35	11197	
497.54	11289	
497.74	9131.2	
497.94	10858	
498.14	12026	
498.34	11866	
498.53	8819.2	
498.73	9699.9	
498.93	10598	
499.13	11361	
499.33	9526.5	
499.52	10091	
499.72	11235	
499.92	11597	
500.12	9136	
500.32	9442.5	
500.51	11593	
500.71	11316	
500.91	10269	
501.11	9891	
501.31	11434	
501.5	11933	
501.7	10583	
501.9	9504.6	
502.1	11163	
502.29	11542	
502.49	9906	
502.69	10391	
502.89	11523	
503.09	11403	
503.28	8923.7	
503.48	8983.8	
503.68	10578	
503.88	10606	
504.07	9991.4	
504.27	9448.6	
504.47	10930	
504.67	11054	
504.86	9904.7	
505.06	9487.6	
505.26	10514	
505.46	12430	
505.65	9343.5	
505.85	9666.4	
506.05	10441	
506.25	11021	
506.44	8712.1	
506.64	9782.5	
506.84	10400	
507.04	11194	
507.23	8950.3	
507.43	9466.4	
507.63	12362	
507.83	10656	
508.02	9413.8	
508.22	9099.8	
508.42	12592	
508.62	10411	
508.81	9577	
509.01	9889.6	
509.21	10183	
509.4	10578	
509.6	9574.3	
509.8	8968.1	
510	10538	
510.19	12104	
510.39	8883.4	
510.59	8829.5	
510.79	10294	
510.98	11777	
511.18	8926.4	
511.38	9211.1	
511.57	11140	
511.77	10966	
511.97	9719.7	
512.17	8788.5	
512.36	11284	
512.56	11215	
512.76	8863.6	
512.95	8709.3	
513.15	11368	
513.35	9968.1	
513.55	9919	
513.74	8975.6	
513.94	11359	
514.14	10652	
514.33	9957.9	
514.53	9791.3	
514.73	10678	
514.92	10892	
515.12	9282.8	
515.32	8981	
515.51	11002	
515.71	11601	
515.91	10852	
516.11	9133.3	
516.3	12858	
516.5	10689	
516.7	9642.5	
516.89	10344	
517.09	10743	
517.29	10718	
517.48	10038	
517.68	9383.8	
517.88	10449	
518.07	11187	
518.27	10010	
518.47	8921	
518.66	11736	
518.86	10439	
519.06	8875.2	
519.25	9299.8	
519.45	10611	
519.65	12213	
519.84	9835.7	
520.04	10663	
520.24	12534	
520.43	11292	
520.63	9543.5	
520.83	9306.7	
521.02	10464	
521.22	11286	
521.42	9947.7	
521.61	10498	
521.81	10757	
522.01	10946	
522.2	9948.3	
522.4	9607.7	
522.6	11654	
522.79	10376	
522.99	9781.8	
523.18	9080	
523.38	11232	
523.58	11342	
523.77	11157	
523.97	9322.4	
524.17	13347	
524.36	12537	
524.56	10675	
524.76	10294	
524.95	11538	
525.15	11175	
525.34	10067	
525.54	10108	
525.74	11873	
525.93	10858	
526.13	11337	
526.33	10109	
526.52	12247	
526.72	11708	
526.91	11398	
527.11	10768	
527.31	12454	
527.5	12876	
527.7	10579	
527.89	9640.5	
528.09	11297	
528.29	11952	
528.48	11123	
528.68	10537	
528.87	12304	
529.07	12214	
529.27	10339	
529.46	9865.7	
529.66	11734	
529.85	12183	
530.05	9755.2	
530.25	10569	
530.44	13366	
530.64	11953	
530.83	10403	
531.03	10723	
531.23	12440	
531.42	12284	
531.62	11531	
531.81	10556	
532.01	12587	
532.21	13115	
532.4	10357	
532.6	10800	
532.79	13594	
532.99	12689	
533.18	10820	
533.38	11905	
533.58	12320	
533.77	13140	
533.97	10855	
534.16	11730	
534.36	13201	
534.55	12314	
534.75	11952	
534.95	10877	
535.14	13220	
535.34	12207	
535.53	10489	
535.73	12585	
535.92	13590	
536.12	12396	
536.31	10615	
536.51	11996	
536.71	12646	
536.9	12265	
537.1	10849	
537.29	11025	
537.49	13201	
537.68	12305	
537.88	11538	
538.07	10590	
538.27	12501	
538.46	13647	
538.66	10409	
538.86	10940	
539.05	12402	
539.25	13009	
539.44	11236	
539.64	10848	
539.83	12312	
540.03	13448	
540.22	10630	
540.42	10767	
540.61	12688	
540.81	12697	
541	11212	
541.2	11964	
541.39	12125	
541.59	12311	
541.78	11531	
541.98	10466	
542.18	11609	
542.37	11514	
542.57	10927	
542.76	11499	
542.96	11652	
543.15	12410	
543.35	10879	
543.54	10228	
543.74	12688	
543.93	12246	
544.13	10815	
544.32	11906	
544.52	12543	
544.71	11657	
544.91	9806.4	
545.1	11161	
545.3	11615	
545.49	12494	
545.69	9781.1	
545.88	10493	
546.08	13457	
546.27	13050	
546.47	10960	
546.66	10206	
546.86	12738	
547.05	13248	
547.24	10477	
547.44	10374	
547.63	11527	
547.83	12738	
548.02	10786	
548.22	10815	
548.41	11218	
548.61	12688	
548.8	10125	
549	10105	
549.19	11997	
549.39	12383	
549.58	9727.9	
549.78	10408	
549.97	12391	
550.17	11929	
550.36	11326	
550.55	12385	
550.75	11840	
550.94	12891	
551.14	10070	
551.33	10555	
551.53	11258	
551.72	12351	
551.92	10596	
552.11	10301	
552.31	12207	
552.5	12409	
552.69	12150	
552.89	9947	
553.08	12211	
553.28	11936	
553.47	10389	
553.67	11652	
553.86	12970	
554.06	11230	
554.25	9457.5	
554.44	10084	
554.64	13702	
554.83	13097	
555.03	10094	
555.22	10606	
555.42	12391	
555.61	12129	
555.8	10269	
556	10518	
556.19	11191	
556.39	12530	
556.58	10249	
556.78	10321	
556.97	11977	
557.16	11812	
557.36	11686	
557.55	9972.2	
557.75	10997	
557.94	12805	
558.13	9916.3	
558.33	9841.9	
558.52	12618	
558.72	11443	
558.91	9830.9	
559.1	10160	
559.3	11097	
559.49	10707	
559.69	9460.3	
559.88	10497	
560.07	12032	
560.27	12332	
560.46	10613	
560.66	10782	
560.85	11794	
561.04	10778	
561.24	9807	
561.43	10031	
561.63	11129	
561.82	11450	
562.01	11460	
562.21	10338	
562.4	11940	
562.59	12992	
562.79	10270	
562.98	9917.6	
563.18	11898	
563.37	13408	
563.56	10785	
563.76	9791.3	
563.95	11186	
564.14	11268	
564.34	10307	
564.53	10048	
564.73	11874	
564.92	12385	
565.11	10373	
565.31	9817.3	
565.5	12498	
565.69	11417	
565.89	9989.3	
566.08	10394	
566.27	12280	
566.47	12841	
566.66	11002	
566.85	9596.1	
567.05	11972	
567.24	11331	
567.44	9837.1	
567.63	11466	
567.82	12147	
568.02	11914	
568.21	9919	
568.4	10341	
568.6	11777	
568.79	11873	
568.98	9841.2	
569.18	9982.5	
569.37	11729	
569.56	13968	
569.76	10253	
569.95	11234	
570.14	12150	
570.34	12006	
570.53	9675.3	
570.72	9671.2	
570.91	12533	
571.11	11512	
571.3	10083	
571.49	11207	
571.69	11628	
571.88	11176	
572.07	10817	
572.27	10731	
572.46	11189	
572.65	12405	
572.85	9937.4	
573.04	10387	
573.23	12638	
573.43	11807	
573.62	9790.7	
573.81	10589	
574	11883	
574.2	11715	
574.39	10258	
574.58	10387	
574.78	12843	
574.97	12105	
575.16	10760	
575.36	11026	
575.55	12400	
575.74	12676	
575.93	9837.8	
576.13	10925	
576.32	11787	
576.51	12423	
576.71	10286	
576.9	12339	
577.09	12704	
577.28	12282	
577.48	10959	
577.67	9895.8	
577.86	11985	
578.05	12224	
578.25	10598	
578.44	10602	
578.63	11989	
578.83	13328	
579.02	9902.6	
579.21	11604	
579.4	12349	
579.6	12028	
579.79	10769	
579.98	13115	
580.17	12768	
580.37	12879	
580.56	10238	
580.75	10950	
580.94	13273	
581.14	13239	
581.33	11640	
581.52	10503	
581.71	12762	
581.91	13392	
582.1	10165	
582.29	10814	
582.48	12394	
582.68	12430	
582.87	11324	
583.06	10898	
583.25	12691	
583.45	12205	
583.64	11739	
583.83	12490	
584.02	12306	
584.21	12669	
584.41	11761	
584.6	11045	
584.79	12490	
584.98	13370	
585.18	10318	
585.37	10390	
585.56	11962	
585.75	12805	
585.94	10572	
586.14	11388	
586.33	13373	
586.52	12411	
586.71	11080	
586.91	10754	
587.1	11675	
587.29	12701	
587.48	10545	
587.67	10488	
587.87	12391	
588.06	12532	
588.25	11692	
588.44	10888	
588.63	11817	
588.83	12380	
589.02	9938.1	
589.21	9816.6	
589.4	11186	
589.59	10959	
589.78	8776.9	
589.98	9103.9	
590.17	10430	
590.36	11019	
590.55	8449.2	
590.74	9316.2	
590.94	12473	
591.13	10856	
591.32	8948.9	
591.51	8506.6	
591.7	11385	
591.89	10851	
592.09	8591.9	
592.28	9158.5	
592.47	10021	
592.66	12071	
592.85	8710.7	
593.05	8989.2	
593.24	10789	
593.43	11635	
593.62	9169.4	
593.81	9699.2	
594	10878	
594.19	11120	
594.39	8958.5	
594.58	8928.5	
594.77	11178	
594.96	11817	
595.15	8806.3	
595.34	9562.6	
595.54	11334	
595.73	10377	
595.92	8343.4	
596.11	9480	
596.3	11832	
596.49	10445	
596.68	9219.3	
596.88	9853.5	
597.07	11505	
597.26	10370	
597.45	8760.5	
597.64	10148	
597.83	10639	
598.02	11323	
598.22	9053.4	
598.41	9665.7	
598.6	11098	
598.79	10553	
598.98	9067	
599.17	10165	
599.36	11162	
599.55	12455	
599.74	11280	
599.94	11111	
600.13	11830	
600.32	10664	
600.51	9017.9	
600.7	9131.9	
600.89	12563	
601.08	12680	
601.27	8918.9	
601.47	10050	
601.66	11887	
601.85	12619	
602.04	9740.1	
602.23	9897.8	
602.42	11066	
602.61	11641	
602.8	9648.7	
602.99	9476.6	
603.18	11274	
603.37	11673	
603.57	10133	
603.76	10748	
603.95	12467	
604.14	11898	
604.33	9598.8	
604.52	9970.9	
604.71	11602	
604.9	11275	
605.09	10585	
605.28	10376	
605.47	12243	
605.66	11979	
605.86	10269	
606.05	9652.8	
606.24	12270	
606.43	10806	
606.62	10013	
606.81	10765	
607	12124	
607.19	11368	
607.38	9385.8	
607.57	9663	
607.76	11097	
607.95	10585	
608.14	10071	
608.33	10629	
608.52	11089	
608.72	12004	
608.91	9238.4	
609.1	9285.5	
609.29	11250	
609.48	10770	
609.67	10207	
609.86	9209.7	
610.05	10798	
610.24	11178	
610.43	9120.3	
610.62	8738	
610.81	12328	
611	12153	
611.19	9231.6	
611.38	10015	
611.57	11471	
611.76	12839	
611.95	8996.7	
612.14	8829.5	
612.33	11393	
612.52	10839	
612.71	9656.9	
612.9	8755.7	
613.09	10384	
613.28	12848	
613.47	9226.8	
613.66	10357	
613.85	11426	
614.04	10925	
614.24	9455.5	
614.43	8699.1	
614.62	11513	
614.81	11568	
615	10038	
615.19	10120	
615.38	10835	
615.57	11262	
615.76	9846	
615.95	10929	
616.14	11643	
616.33	11255	
616.52	10165	
616.71	10575	
616.9	11716	
617.09	11460	
617.28	9583.1	
617.47	10987	
617.66	10726	
617.85	10800	
618.04	10749	
618.22	10099	
618.41	11233	
618.6	12168	
618.79	9998.9	
618.98	9734.7	
619.17	12497	
619.36	10722	
619.55	9901.9	
619.74	9815.2	
619.93	11825	
620.12	11291	
620.31	10541	
620.5	10791	
620.69	12492	
620.88	12957	
621.07	11569	
621.26	10507	
621.45	12066	
621.64	12058	
621.83	10631	
622.02	9830.2	
622.21	12127	
622.4	11805	
622.59	11196	
622.78	10845	
622.97	11480	
623.16	12580	
623.35	10505	
623.54	9678	
623.72	11683	
623.91	11921	
624.1	10847	
624.29	9465	
624.48	12861	
624.67	12189	
624.86	10659	
625.05	9687.6	
625.24	12992	
625.43	11335	
625.62	12572	
625.81	9762.7	
626	12451	
626.19	11699	
626.38	10655	
626.56	10024	
626.75	11271	
626.94	12045	
627.13	10544	
627.32	9166	
627.51	11954	
627.7	13495	
627.89	9226.1	
628.08	10518	
628.27	11092	
628.46	11372	
628.65	9600.9	
628.83	9224.1	
629.02	11908	
629.21	11131	
629.4	10227	
629.59	10373	
629.78	11204	
629.97	12045	
630.16	10473	
630.35	9953.8	
630.54	12570	
630.72	12361	
630.91	9875.3	
631.1	10491	
631.29	11727	
631.48	11949	
631.67	10619	
631.86	9981.8	
632.05	11383	
632.24	11498	
632.42	9643.9	
632.61	10261	
632.8	11587	
632.99	11161	
633.18	10368	
633.37	10703	
633.56	11906	
633.75	11775	
633.93	10402	
634.12	9998.2	
634.31	12691	
634.5	12432	
634.69	10120	
634.88	10480	
635.07	11732	
635.25	12284	
635.44	11045	
635.63	11316	
635.82	11644	
636.01	10930	
636.2	10999	
636.39	10481	
636.57	12759	
636.76	12338	
636.95	10001	
637.14	11374	
637.33	12028	
637.52	13048	
637.7	9652.8	
637.89	10763	
638.08	11540	
638.27	13082	
638.46	10811	
638.65	11156	
638.83	13076	
639.02	11403	
639.21	10678	
639.4	11197	
639.59	11764	
639.78	11518	
639.96	9904	
640.15	9884.9	
640.34	11707	
640.53	11942	
640.72	9585.9	
640.91	9862.3	
641.09	11056	
641.28	12437	
641.47	9929.9	
641.66	10927	
641.85	11808	
642.03	12005	
642.22	10482	
642.41	9923.8	
642.6	11086	
642.79	10457	
642.97	9608.4	
643.16	10460	
643.35	11019	
643.54	10760	
643.73	9480	
643.91	10409	
644.1	10490	
644.29	11135	
644.48	9441.1	
644.67	9329.9	
644.85	10533	
645.04	10895	
645.23	8777.6	
645.42	8999.5	
645.6	10205	
645.79	11389	
645.98	8870.4	
646.17	7841.7	
646.36	9729.2	
646.54	10328	
646.73	9516.9	
646.92	8317.5	
647.11	9885.5	
647.29	11023	
647.48	8340	
647.67	8079.2	
647.86	11277	
648.05	11356	
648.23	8813.8	
648.42	10232	
648.61	10828	
648.8	10519	
648.98	8488.8	
649.17	8926.4	
649.36	10062	
649.55	9570.8	
649.73	8486.1	
649.92	9392	
650.11	9995.5	
650.3	10415	
650.48	8632.9	
650.67	8581	
650.86	10615	
651.05	9542.9	
651.23	8767.4	
651.42	8624.7	
651.61	10025	
651.79	10070	
651.98	8862.9	
652.17	8594	
652.36	10613	
652.54	9610.4	
652.73	8461.5	
652.92	8230.1	
653.11	10440	
653.29	10517	
653.48	7642.3	
653.67	8680	
653.85	10073	
654.04	11148	
654.23	8677.2	
654.42	8288.1	
654.6	9434.3	
654.79	10178	
654.98	7782.3	
655.16	8251.3	
655.35	9161.2	
655.54	9123.7	
655.73	7944.8	
655.91	7852.6	
656.1	10376	
656.29	9183.1	
656.47	7475.8	
656.66	9316.9	
656.85	9544.2	
657.03	9604.3	
657.22	8099.7	
657.41	8279.3	
657.59	9721	
657.78	9585.2	
657.97	7845.1	
658.16	8674.5	
658.34	10443	
658.53	10918	
658.72	9637.1	
658.9	10167	
659.09	9886.9	
659.28	10008	
659.46	8446.5	
659.65	8359.1	
659.84	9739.5	
660.02	10313	
660.21	8234.2	
660.4	8244.4	
660.58	10798	
660.77	10048	
660.96	8890.9	
661.14	7917.4	
661.33	11388	
661.52	11230	
661.7	7876.5	
661.89	11718	
662.08	9642.5	
662.26	9243.8	
662.45	8170.7	
662.64	8257.4	
662.82	10408	
663.01	9587.9	
663.2	8187.1	
663.38	9127.8	
663.57	10289	
663.75	10225	
663.94	8738	
664.13	10020	
664.31	9645.3	
664.5	10460	
664.69	8810.4	
664.87	9540.8	
665.06	9344.2	
665.25	10215	
665.43	9695.8	
665.62	9831.6	
665.8	10445	
665.99	9822.7	
666.18	8621.3	
666.36	8677.2	
666.55	10431	
666.74	10391	
666.92	8192.6	
667.11	9968.1	
667.29	9833.7	
667.48	10465	
667.67	9551.7	
667.85	8630.1	
668.04	9892.4	
668.22	9873.3	
668.41	8636.3	
668.6	8861.6	
668.78	9655.5	
668.97	9871.2	
669.15	9057.5	
669.34	7956.4	
669.53	9657.5	
669.71	9970.2	
669.9	8173.4	
670.08	8779.6	
670.27	9699.9	
670.46	10266	
670.64	9050.7	
670.83	9286.2	
671.01	9452.1	
671.2	10173	
671.38	8227.4	
671.57	8144.8	
671.76	10744	
671.94	11407	
672.13	8096.3	
672.31	9198.8	
672.5	10376	
672.69	9374.9	
672.87	8331.8	
673.06	8557.1	
673.24	10154	
673.43	9662.3	
673.61	8945.5	
673.8	8586.5	
673.98	10389	
674.17	10559	
674.36	9079.3	
674.54	8944.8	
674.73	10008	
674.91	10285	
675.1	8730.5	
675.28	8349.6	
675.47	9916.9	
675.65	10504	
675.84	8557.8	
676.03	8880.7	
676.21	9688.9	
676.4	9134.6	
676.58	9301.9	
676.77	9059.5	
676.95	11185	
677.14	9581.8	
677.32	8240.3	
677.51	8069	
677.69	10398	
677.88	9250	
678.06	8041.7	
678.25	8138.6	
678.44	9968.1	
678.62	9608.4	
678.81	7834.2	
678.99	8907.3	
679.18	10725	
679.36	10318	
679.55	8400.8	
679.73	9095	
679.92	10187	
680.1	9696.4	
680.29	9780.4	
680.47	8588.5	
680.66	9534	
680.84	10438	
681.03	7770.7	
681.21	8759.2	
681.4	9528.5	
681.58	9460.3	
681.77	8144.1	
681.95	8169.3	
682.14	10411	
682.32	10835	
682.51	9050.7	
682.69	7845.8	
682.88	9469.1	
683.06	10175	
683.25	8703.9	
683.43	9217.2	
683.62	9564.7	
683.8	9982.5	
683.99	9127.8	
684.17	8260.1	
684.36	10643	
684.54	9088.9	
684.73	7209.5	
684.91	7420.5	
685.1	9256.1	
685.28	8611.7	
685.46	7784.3	
685.65	8007.6	
685.83	9450.7	
686.02	8832.2	
686.2	7284.6	
686.39	7463.5	
686.57	8505.2	
686.76	10142	
686.94	7331.7	
687.13	7617.1	
687.31	9444.5	
687.5	8921.6	
687.68	7001.3	
687.86	8393.9	
688.05	10776	
688.23	8456.7	
688.42	8450.6	
688.6	7600.7	
688.79	8946.9	
688.97	8946.9	
689.16	8019.2	
689.34	6862.7	
689.52	9702.6	
689.71	9841.9	
689.89	8269.7	
690.08	7548.8	
690.26	9157.8	
690.45	8970.8	
690.63	8342.1	
690.81	7585	
691	8633.6	
691.18	8633.6	
691.37	7701.7	
691.55	9917.6	
691.74	8537.3	
691.92	10701	
692.1	7675.8	
692.29	7010.9	
692.47	8918.9	
692.66	8215.8	
692.84	7360.4	
693.02	8032.8	
693.21	8307.9	
693.39	8904.6	
693.58	8114.7	
693.76	7577.5	
693.94	10314	
694.13	10200	
694.31	7754.3	
694.5	8850	
694.68	9028.1	
694.86	9443.2	
695.05	8198.7	
695.23	8549.6	
695.42	9863.7	
695.6	12209	
695.78	8850.6	
695.97	7755.7	
696.15	9691	
696.34	8974.9	
696.52	7475.1	
696.7	8256.7	
696.89	9314.8	
697.07	8699.8	
697.25	8105.9	
697.44	9751.1	
697.62	9110	
697.81	9542.2	
697.99	7719.5	
698.17	8155	
698.36	8348.2	
698.54	9147.6	
698.72	8049.9	
698.91	7047.1	
699.09	8791.2	
699.28	8633.6	
699.46	7684.7	
699.64	7573.4	
699.83	8564.6	
700.01	9857.6	
700.19	8410.3	
700.38	6974	
700.56	10017	
700.74	8835.6	
700.93	7419.8	
701.11	8150.2	
701.29	9481.4	
701.48	10623	
701.66	7563.8	
701.84	7741.3	
702.03	8959.9	
702.21	9763.3	
702.39	7186.3	
702.58	7853.3	
702.76	9401.5	
702.94	9552.4	
703.13	7207.5	
703.31	9749	
703.49	8669.7	
703.68	9704	
703.86	7402	
704.04	8387.8	
704.23	9211.1	
704.41	9616.6	
704.59	7582.9	
704.78	8832.9	
704.96	10435	
705.14	9694.4	
705.33	7381.6	
705.51	8245.1	
705.69	9099.8	
705.87	9979.8	
706.06	8559.1	
706.24	7348.1	
706.42	9471.9	
706.61	9768.8	
706.79	8620.6	
706.97	7450.5	
707.16	8879.3	
707.34	9523.1	
707.52	8468.4	
707.7	7642.3	
707.89	8939.4	
708.07	8677.9	
708.25	8486.8	
708.44	8706.6	
708.62	8932.6	
708.8	10176	
708.98	8771.5	
709.17	7605.5	
709.35	9385.8	
709.53	9411.8	
709.72	7443.7	
709.9	7555	
710.08	9601.6	
710.26	9605.7	
710.45	9082.1	
710.63	7707.9	
710.81	9308.7	
710.99	9214.5	
711.18	8215.8	
711.36	7638.2	
711.54	8904.6	
711.72	9710.1	
711.91	7725.6	
712.09	7053.2	
712.27	8895	
712.45	9565.4	
712.64	7789.8	
712.82	6651.8	
713	8148.2	
713.18	8171.4	
713.37	6600.6	
713.55	7761.8	
713.73	8931.2	
713.91	7292.8	
714.1	6724.8	
714.28	6015.6	
714.46	8241.7	
714.64	7316	
714.83	5277.6	
715.01	6105.7	
715.19	7284.6	
715.37	6622.4	
715.55	5728.9	
715.74	6079.7	
715.92	8187.8	
716.1	6123.4	
716.28	7183.6	
716.47	6154.8	
716.65	6795.8	
716.83	6936.5	
717.01	5972.6	
717.19	6180.1	
717.38	9184.5	
717.56	6715.3	
717.74	6485.2	
717.92	5549.3	
718.1	8094.3	
718.29	7328.3	
718.47	5257.8	
718.65	6068.1	
718.83	8210.3	
719.01	8069.7	
719.2	5368.4	
719.38	6440.2	
719.56	7832.8	
719.74	9454.8	
719.92	5995.1	
720.11	7035.5	
720.29	7649.8	
720.47	6772.6	
720.65	5312.4	
720.83	6192.4	
721.02	7057.3	
721.2	6714.6	
721.38	6176	
721.56	5394.3	
721.74	6289.3	
721.92	6444.3	
722.11	6726.2	
722.29	6412.9	
722.47	7750.9	
722.65	6862.7	
722.83	5383.4	
723.01	6382.8	
723.2	6979.5	
723.38	7288.7	
723.56	4820.9	
723.74	6032.6	
723.92	6432	
724.1	7658	
724.29	5375.9	
724.47	6602	
724.65	6528.9	
724.83	6447.7	
725.01	5268.1	
725.19	6167.8	
725.37	6557.6	
725.56	6641.6	
725.74	5110.4	
725.92	5477	
726.1	6462	
726.28	6819.1	
726.46	5845.6	
726.64	5533.6	
726.83	6742.6	
727.01	7047.1	
727.19	5088.5	
727.37	6048.3	
727.55	6892.8	
727.73	7423.9	
727.91	5107.6	
728.09	4973.8	
728.28	7486	
728.46	8192.6	
728.64	6257.2	
728.82	6287.9	
729	8742.1	
729.18	8019.2	
729.36	5456.5	
729.54	7993.2	
729.72	9224.1	
729.91	7449.8	
730.09	7547.4	
730.27	6337.1	
730.45	7381.6	
730.63	8013.7	
730.81	6937.8	
730.99	5976.7	
731.17	8561.9	
731.35	7105.1	
731.53	6613.6	
731.71	6103.6	
731.9	8338.6	
732.08	8462.2	
732.26	6372.6	
732.44	6083.8	
732.62	8544.8	
732.8	8006.9	
732.98	6853.2	
733.16	5836.7	
733.34	7989.1	
733.52	6693.4	
733.7	6331.6	
733.88	6709.8	
734.07	7817.1	
734.25	7563.1	
734.43	5801.9	
734.61	7515.4	
734.79	9210.4	
734.97	7552.9	
735.15	5978	
735.33	6367.1	
735.51	7900.4	
735.69	7504.4	
735.87	7567.2	
736.05	6650.4	
736.23	7777.5	
736.41	7574.1	
736.59	6466.8	
736.77	6610.2	
736.95	8299.7	
737.13	7702.4	
737.32	6102.9	
737.5	6444.3	
737.68	8842.4	
737.86	7585	
738.04	5935.7	
738.22	7843.7	
738.4	7416.4	
738.58	7674.4	
738.76	6662	
738.94	5479	
739.12	7538.6	
739.3	7344	
739.48	7257.3	
739.66	7082.6	
739.84	7799.3	
740.02	7838.3	
740.2	5670.1	
740.38	6033.3	
740.56	8198	
740.74	7060.7	
740.92	6668.2	
741.1	6685.3	
741.28	7587	
741.46	7489.4	
741.64	6227.9	
741.82	6851.8	
742	7711.3	
742.18	7577.5	
742.36	6422.4	
742.54	5992.4	
742.72	8288.1	
742.9	6950.8	
743.08	6898.9	
743.26	5635.3	
743.44	8427.4	
743.62	8181	
743.8	7066.9	
743.98	5993.7	
744.16	7958.4	
744.34	7626.6	
744.52	6976.1	
744.7	6862.7	
744.88	8163.9	
745.06	7596.6	
745.24	6868.2	
745.42	7012.2	
745.6	8058.1	
745.78	7875.1	
745.96	5662.6	
746.14	5930.9	
746.32	8889.5	
746.5	8080.6	
746.68	6569.9	
746.86	6033.3	
747.03	8624	
747.21	6864.1	
747.39	6584.2	
747.57	5969.1	
747.75	7670.3	
747.93	8069.7	
748.11	5902.2	
748.29	5889.3	
748.47	9324.4	
748.65	7332.4	
748.83	6752.2	
749.01	6484.6	
749.19	7888.8	
749.37	6967.2	
749.55	6290.7	
749.73	6348	
749.91	7527.7	
750.09	7222.5	
750.26	6378.7	
750.44	5815.5	
750.62	7498.3	
750.8	7441.6	
750.98	5614.2	
751.16	5964.4	
751.34	7574.8	
751.52	6906.4	
751.7	6769.2	
751.88	5599.8	
752.06	8131.1	
752.24	7828	
752.42	5560.9	
752.59	5961	
752.77	7450.5	
752.95	8817.9	
753.13	6780.8	
753.31	6030.6	
753.49	7154.2	
753.67	7561.1	
753.85	6335.7	
754.03	5873.6	
754.21	7805.5	
754.38	8219.9	
754.56	6030.6	
754.74	4909.7	
754.92	6901	
755.1	7583.6	
755.28	4742.4	
755.46	4683.7	
755.64	7901.7	
755.82	7999.4	
755.99	4580.6	
756.17	4730.1	
756.35	5152.7	
756.53	6795.8	
756.71	3456.3	
756.89	4390.2	
757.07	6356.2	
757.25	5487.9	
757.42	5128.8	
757.6	6077	
757.78	6571.9	
757.96	5528.2	
758.14	4841.4	
758.32	4307.6	
758.5	5059.8	
758.67	5894.1	
758.85	4577.9	
759.03	4746.5	
759.21	6015.6	
759.39	5560.9	
759.57	4184.7	
759.75	5440.1	
759.92	6789	
760.1	5982.8	
760.28	5823.1	
760.46	6150.1	
760.64	5909.1	
760.82	5698.8	
760.99	5832.6	
761.17	4943.1	
761.35	6920.1	
761.53	5890	
761.71	5181.4	
761.89	5907	
762.06	6920.1	
762.24	6361.7	
762.42	5338.4	
762.6	5135.6	
762.78	6435.4	
762.96	7190.4	
763.13	5848.3	
763.31	5494.7	
763.49	7387	
763.67	6455.9	
763.85	6467.5	
764.02	7027.3	
764.2	7768.6	
764.38	6847	
764.56	5380.7	
764.74	6268.8	
764.91	7848.5	
765.09	6663.4	
765.27	5071.5	
765.45	4944.5	
765.63	7839.6	
765.8	7723.6	
765.98	4620.9	
766.16	4986.8	
766.34	6167.8	
766.52	5982.8	
766.69	5902.9	
766.87	4807.9	
767.05	6576	
767.23	7325.6	
767.41	5117.9	
767.58	5335.6	
767.76	7171.3	
767.94	7228	
768.12	5141.1	
768.29	5902.2	
768.47	6658.6	
768.65	7388.4	
768.83	4721.9	
769	6012.2	
769.18	6172.6	
769.36	6896.9	
769.54	5757.5	
769.72	4752.7	
769.89	7184.3	
770.07	7296.9	
770.25	5110.4	
770.43	6427.2	
770.6	7993.2	
770.78	8419.2	
770.96	5263.3	
771.14	5933.6	
771.31	7015	
771.49	6366.5	
771.67	4380.6	
771.85	4638	
772.02	5593	
772.2	6333	
772.38	5401.2	
772.55	4902.8	
772.73	6624.5	
772.91	6380.8	
773.09	5172.5	
773.26	5270.8	
773.44	6479.1	
773.62	6217	
773.8	4630.5	
773.97	4351.9	
774.15	6614.3	
774.33	6205.3	
774.5	4620.9	
774.68	5013.4	
774.86	6793.8	
775.04	6224.5	
775.21	4644.8	
775.39	4655	
775.57	6472.3	
775.74	6925.5	
775.92	4455	
776.1	4344.4	
776.27	6404.7	
776.45	7759.1	
776.63	4579.9	
776.81	4142.4	
776.98	6008.7	
777.16	7182.9	
777.34	4796.3	
777.51	5102.9	
777.69	6022.4	
777.87	5763	
778.04	4705.5	
778.22	5439.4	
778.4	5750	
778.57	6434	
778.75	3980.6	
778.93	4302.8	
779.1	5524.7	
779.28	5344.5	
779.46	3962.1	
779.64	4458.4	
779.81	6636.8	
779.99	7539.3	
780.17	5328.1	
780.34	5460.6	
780.52	5988.9	
780.69	6164.4	
780.87	4818.2	
781.05	4337.6	
781.22	6006	
781.4	6074.3	
781.58	4462.5	
781.75	3594.2	
781.93	6045.6	
782.11	5398.4	
782.28	5419.6	
782.46	4426.3	
782.64	5236	
782.81	6124.8	
782.99	4478.9	
783.17	4448.2	
783.34	6078.4	
783.52	5334.3	
783.69	4667.3	
783.87	5535	
784.05	5260.5	
784.22	5343.2	
784.4	5498.1	
784.58	4764.3	
784.75	6287.9	
784.93	5357.5	
785.1	4415.4	
785.28	5036	
785.46	5977.3	
785.63	5329.5	
785.81	4305.5	
785.99	4171	
786.16	5521.3	
786.34	5873.6	
786.51	4209.9	
786.69	4687.1	
786.87	5059.8	
787.04	5601.2	
787.22	3628.3	
787.39	5061.2	
787.57	5282.4	
787.75	6446.3	
787.92	5186.1	
788.1	5154.1	
788.27	5371.8	
788.45	5097.4	
788.63	4917.2	
788.8	3539.6	
788.98	5735	
789.15	4986.8	
789.33	3717.7	
789.5	4405.9	
789.68	6319.3	
789.86	6397.9	
790.03	4777.9	
790.21	4221.5	
790.38	6181.5	
790.56	5448.3	
790.73	4033.1	
790.91	4111.6	
791.09	5244.2	
791.26	6049.7	
791.44	4233.2	
791.61	3691.8	
791.79	5230.5	
791.96	5382.1	
792.14	3787.4	
792.32	3397.6	
792.49	5319.9	
792.67	5373.2	
792.84	3848.1	
793.02	3698.6	
793.19	5703.6	
793.37	6438.8	
793.54	3476.1	
793.72	3728	
793.89	6629.3	
794.07	5236.7	
794.25	4397.7	
794.42	3429.7	
794.6	6318	
794.77	5929.6	
794.95	4693.3	
795.12	4088.4	
795.3	5202.5	
795.47	5908.4	
795.65	4491.2	
795.82	4386.1	
796	5027.1	
796.17	7088	
796.35	4165.6	
796.52	4887.8	
796.7	5745.2	
796.87	5871.5	
797.05	5144.5	
797.22	5038	
797.4	5752.1	
797.57	6854.6	
797.75	4272.7	
797.92	4037.9	
798.1	6079.7	
798.27	5244.8	
798.45	3437.2	
798.62	3744.4	
798.8	5500.2	
798.97	6066.1	
799.15	4515.1	
799.32	4298	
799.5	4837.3	
799.67	5538.4	
799.85	4721.3	
800.02	3418.1	
800.2	5191.6	
800.37	5520.6	
800.55	4744.5	
800.72	4002.4	
800.9	5970.5	
801.07	6496.2	
801.25	5402.5	
801.42	4429.8	
801.6	6067.4	
801.77	5785.5	
801.95	3998.3	
802.12	3924.6	
802.29	5739.1	
802.47	5710.4	
802.64	4336.9	
802.82	3279.5	
802.99	5147.2	
803.17	6194.4	
803.34	4304.1	
803.52	3877.5	
803.69	6864.8	
803.87	4933.6	
804.04	4197.7	
804.21	4353.3	
804.39	6368.5	
804.56	5390.9	
804.74	3579.2	
804.91	4407.2	
805.09	5227.1	
805.26	5334.3	
805.44	3648.8	
805.61	4024.3	
805.78	5853.8	
805.96	5852.4	
806.13	4345.8	
806.31	4751.3	
806.48	4698	
806.66	5255.1	
806.83	4369.7	
807	4236.6	
807.18	5124	
807.35	5567.7	
807.53	4171	
807.7	3385.3	
807.87	6417.7	
808.05	5173.9	
808.22	4713.1	
808.4	3391.4	
808.57	5180.7	
808.74	4772.4	
808.92	3891.1	
809.09	4911.7	
809.27	5010.7	
809.44	5702.9	
809.61	3426.9	
809.79	3803.8	
809.96	6321.4	
810.14	5977.3	
810.31	3351.8	
810.48	4093.2	
810.66	5335.6	
810.83	5993	
811.01	3869.3	
811.18	4670.7	
811.35	5894.1	
811.53	4620.2	
811.7	4746.5	
811.87	4389.5	
812.05	5207.3	
812.22	5077.6	
812.39	3721.8	
812.57	3659	
812.74	5186.8	
812.92	7034.8	
813.09	4074.1	
813.26	4448.9	
813.44	6653.2	
813.61	5118.6	
813.78	3405.8	
813.96	4586.1	
814.13	5176.6	
814.3	4859.1	
814.48	4993.6	
814.65	4102.8	
814.82	6510.5	
815	5015.5	
815.17	4201.7	
815.34	5169.1	
815.52	5132.9	
815.69	5145.9	
815.87	4171	
816.04	3625.6	
816.21	5204.6	
816.38	4574.5	
816.56	4033.1	
816.73	3774.4	
816.9	6590.4	
817.08	5973.2	
817.25	3777.1	
817.42	4790.2	
817.6	4707.6	
817.77	5196.4	
817.94	4304.1	
818.12	3711.6	
818.29	4958.1	
818.46	7812.3	
818.64	3899.3	
818.81	3699.3	
818.98	4858.5	
819.16	7099.6	
819.33	4509.6	
819.5	4186.7	
819.67	5597.1	
819.85	6226.5	
820.02	4095.3	
820.19	4339	
820.37	5407.3	
820.54	4988.9	
820.71	4244.8	
820.88	5284.4	
821.06	5439.4	
821.23	4945.2	
821.4	4315.8	
821.58	4226.3	
821.75	5948.7	
821.92	5293.3	
822.09	3433.8	
822.27	3738.2	
822.44	5205.9	
822.61	5038.7	
822.79	3407.8	
822.96	6705	
823.13	5695.4	
823.3	4893.3	
823.48	3994.9	
823.65	3607.2	
823.82	5880.4	
823.99	4742.4	
824.17	5053.7	
824.34	3674.1	
824.51	6855.9	
824.68	5233.9	
824.86	3818.1	
825.03	4251.6	
825.2	5189.6	
825.37	6371.2	
825.55	3719.8	
825.72	4200.4	
825.89	6924.9	
826.06	6410.8	
826.24	4126	
826.41	4083	
826.58	6336.4	
826.75	5501.5	
826.92	3253.5	
827.1	3618.1	
827.27	8707.3	
827.44	6912.6	
827.61	3868.6	
827.79	4801.1	
827.96	4895.3	
828.13	5362.3	
828.3	4013.3	
828.47	3370.3	
828.65	5410.7	
828.82	5371.8	
828.99	5326.1	
829.16	4638	
829.34	5795.8	
829.51	5604.6	
829.68	4204.5	
829.85	4378.6	
830.02	6113.9	
830.2	5842.9	
830.37	3267.2	
830.54	5061.2	
830.71	6689.3	
830.88	5168.4	
831.05	3315	
831.23	3809.9	
831.4	6343.9	
831.57	7148.8	
831.74	3937.6	
831.91	3418.7	
832.09	5352	
832.26	5799.2	
832.43	4108.9	
832.6	4558.1	
832.77	5371.8	
832.94	6251.8	
833.12	3191.4	
833.29	4009.9	
833.46	5601.9	
833.63	7464.2	
833.8	4396.3	
833.97	4065.2	
834.15	5831.2	
834.32	5614.8	
834.49	4280.9	
834.66	4363.5	
834.83	6091.3	
835	4894.6	
835.17	3904.8	
835.35	3930.7	
835.52	5687.2	
835.69	5599.8	
835.86	4128	
836.03	3400.3	
836.2	5738.4	
836.37	5337	
836.55	4067.3	
836.72	3793.5	
836.89	5387.5	
837.06	5810.1	
837.23	4205.2	
837.4	4614.8	
837.57	6675.7	
837.75	7385	
837.92	3692.5	
838.09	3947.8	
838.26	5324	
838.43	6160.3	
838.6	4207.9	
838.77	3806.5	
838.94	7100.3	
839.11	6716	
839.29	3988.8	
839.46	3174.4	
839.63	5762.3	
839.8	5567.1	
839.97	3964.9	
840.14	3948.5	
840.31	5589.6	
840.48	5797.8	
840.65	3243.3	
840.82	3818.8	
841	5847.6	
841.17	5795.1	
841.34	3632.4	
841.51	3691.8	
841.68	5743.9	
841.85	5444.9	
842.02	3789.4	
842.19	3123.8	
842.36	5528.2	
842.53	5509	
842.7	3642.7	
842.87	4468.7	
843.05	7281.9	
843.22	5436.7	
843.39	3391.4	
843.56	3676.1	
843.73	5175.9	
843.9	5844.9	
844.07	5863.3	
844.24	4954	
844.41	8649.9	
844.58	5004.6	
844.75	3509.5	
844.92	3682.2	
845.09	5797.8	
845.26	5733.6	
845.43	3572.3	
845.6	3757.3	
845.77	5793.7	
845.94	5528.8	
846.12	3969.6	
846.29	4213.4	
846.46	5997.8	
846.63	5816.2	
846.8	3622.9	
846.97	4263.2	
847.14	6251.1	
847.31	5754.1	
847.48	4061.8	
847.65	4420.9	
847.82	6099.5	
847.99	6034.7	
848.16	4827.1	
848.33	4443.4	
848.5	5294.7	
848.67	6319.3	
848.84	3552.5	
849.01	3781.2	
849.18	5193.6	
849.35	4906.3	
849.52	4478.9	
849.69	3560.7	
849.86	5956.9	
850.03	6217.6	
850.2	3558	
850.37	4444.8	
850.54	6182.8	
850.71	5443.5	
850.88	4369.7	
851.05	3571.7	
851.22	5698.1	
851.39	6382.2	
851.56	3403.7	
851.73	4164.2	
851.9	5028.4	
852.07	6066.8	
852.24	3915.7	
852.41	3624.2	
852.58	5591	
852.75	5136.3	
852.92	4123.9	
853.09	3461.1	
853.26	5367.7	
853.43	6258.6	
853.6	3548.4	
853.77	3048.1	
853.94	6352.1	
854.11	5104.2	
854.28	5324.7	
854.44	3882.9	
854.61	6816.3	
854.78	5844.9	
854.95	3575.1	
855.12	4555.4	
855.29	4655.7	
855.46	6648.4	
855.63	3546.4	
855.8	4971.1	
855.97	5319.3	
856.14	6114.6	
856.31	5102.2	
856.48	3906.2	
856.65	5264.6	
856.82	5042.1	
856.99	3468.6	
857.16	3906.8	
857.33	7126.9	
857.49	5454.4	
857.66	3906.2	
857.83	4179.2	
858	5313.8	
858.17	5566.4	
858.34	3403	
858.51	3620.8	
858.68	6552.8	
858.85	6612.2	
859.02	4132.8	
859.19	4474.8	
859.36	5078.3	
859.52	5116.5	
859.69	3588.7	
859.86	4231.8	
860.03	5123.3	
860.2	6368.5	
860.37	3184.6	
860.54	3644.7	
860.71	6070.9	
860.88	6460.7	
861.05	4035.9	
861.21	4516.5	
861.38	6407.4	
861.55	4943.8	
861.72	3271.3	
861.89	4031.1	
862.06	6094.1	
862.23	6696.9	
862.4	3497.9	
862.56	3749.1	
862.73	5893.4	
862.9	5537.7	
863.07	4246.1	
863.24	3246.7	
863.41	4963.6	
863.58	5075.5	
863.75	3648.8	
863.91	4148.5	
864.08	6395.8	
864.25	5945.3	
864.42	4502.8	
864.59	5055.1	
864.76	6812.2	
864.93	5069.4	
865.09	3500.7	
865.26	3838.6	
865.43	6267.5	
865.6	6688.7	
865.77	3110.2	
865.94	3521.8	
866.1	6341.9	
866.27	6090	
866.44	5481.7	
866.61	3360.7	
866.78	5502.9	
866.95	5885.9	
867.11	3459.7	
867.28	3215.3	
867.45	6189	
867.62	5112.4	
867.79	4146.5	
867.96	3525.9	
868.12	5090.6	
868.29	6101.6	
868.46	3115	
868.63	4787.5	
868.8	6271.6	
868.97	6049	
869.13	3741	
869.3	3723.2	
869.47	5834	
869.64	6135	
869.81	3581.2	
869.97	3646.1	
870.14	5813.5	
870.31	6462	
870.48	3502	
870.65	4569.7	
870.81	5369.8	
870.98	5293.3	
871.15	4088.4	
871.32	3811.3	
871.48	5900.2	
871.65	6515.3	
871.82	3506.1	
871.99	3945.8	
872.16	7062.8	
872.32	6285.9	
872.49	3599.6	
872.66	3627.6	
872.83	6060.6	
872.99	5269.4	
873.16	4108.9	
873.33	3497.9	
873.5	5636	
873.67	5671.5	
873.83	3772.4	
874	4868	
874.17	5836.7	
874.34	6874.3	
874.5	4613.4	
874.67	4520.5	
874.84	6494.8	
875.01	5009.3	
875.17	5097.4	
875.34	3569.6	
875.51	5650.3	
875.68	6924.9	
875.84	4366.3	
876.01	5315.2	
876.18	6035.4	
876.34	5879.7	
876.51	3583.9	
876.68	3469.9	
876.85	5481	
877.01	6233.3	
877.18	5158.8	
877.35	3577.8	
877.52	5527.5	
877.68	5005.9	
877.85	3488.4	
878.02	3540.3	
878.18	5567.1	
878.35	5203.2	
878.52	2865.8	
878.69	4052.2	
878.85	6010.1	
879.02	5936.4	
879.19	5133.6	
879.35	3851.5	
879.52	5948	
879.69	6232	
879.86	3080.1	
880.02	4022.9	
880.19	5547.9	
880.36	6772.6	
880.52	4160.1	
880.69	4293.9	
880.86	6063.4	
881.02	6146	
881.19	4008.6	
881.36	3934.1	
881.52	5986.9	
881.69	5248.3	
881.86	3842.7	
882.02	3792.8	
882.19	6257.9	
882.36	7436.2	
882.52	3599.6	
882.69	5089.9	
882.86	5774.6	
883.02	5642.2	
883.19	4386.7	
883.36	4089.8	
883.52	6139.1	
883.69	7066.9	
883.86	3627.6	
884.02	3205.8	
884.19	6049.7	
884.36	5583.4	
884.52	4113.7	
884.69	3771	
884.86	5242.1	
885.02	6644.3	
885.19	4052.2	
885.36	4145.1	
885.52	5584.1	
885.69	5711.8	
885.86	5229.8	
886.02	4599.7	
886.19	6068.8	
886.35	5504.9	
886.52	3926	
886.69	5081	
886.85	5111.7	
887.02	6453.8	
887.19	6453.8	
887.35	6453.8	
887.52	6453.8	
887.68	6453.8	
887.85	6453.8	
888.02	6453.8	
888.18	6453.8	
888.35	6453.8	
888.51	6453.8	
888.68	6453.8	
888.85	6453.8	
889.01	6453.8	
889.18	6453.8	
889.35	6453.8	
889.51	6453.8	
889.68	6453.8	
889.84	6453.8	
890.01	6453.8	
890.17	6453.8	
890.34	6453.8	
890.51	6453.8	
890.67	6453.8	
890.84	6453.8	
891	6453.8	
891.17	6453.8	
891.34	6453.8	
891.5	6453.8	
891.67	6453.8	
891.83	6453.8	
892	6453.8	
892.16	6453.8	
892.33	6453.8	
892.5	6453.8	
892.66	6453.8	
892.83	6453.8	
892.99	6453.8	
893.16	6453.8	
893.32	6453.8	
893.49	6453.8	
893.65	6453.8	
893.82	6453.8	
893.99	6453.8	
894.15	6453.8	
894.32	6453.8	
894.48	6453.8	
894.65	6453.8	
894.81	6453.8	
894.98	6453.8	
895.14	6453.8	
895.31	6453.8	
895.47	6453.8	
895.64	6453.8	
895.81	6453.8	
895.97	6453.8	
896.14	6453.8	
896.3	6453.8	
896.47	6453.8	
896.63	6453.8	
896.8	6453.8	
896.96	6453.8	
897.13	6453.8	
897.29	6453.8	
897.46	6453.8	
897.62	6453.8	
897.79	6453.8	
897.95	6453.8	
898.12	6453.8	
898.28	6453.8	
898.45	6453.8	
898.61	6453.8	
898.78	6453.8	
898.94	6453.8	
899.11	6453.8	
899.27	6453.8	
899.44	6453.8	
899.6	6453.8	
899.77	6453.8	
899.93	6453.8	
900.1	6453.8	
900.26	6453.8	
900.43	6453.8	
900.59	6453.8	
900.76	6453.8	
900.92	6453.8	
901.09	6453.8	
901.25	6453.8	
901.42	6453.8	
901.58	6453.8	
901.75	6453.8	
901.91	6453.8	
902.07	6453.8	
902.24	6453.8	
902.4	6453.8	
902.57	6453.8	
902.73	6453.8	
902.9	6453.8	
903.06	6453.8	
903.23	6453.8	
903.39	6453.8	
903.56	6453.8	
903.72	6453.8	
903.88	6453.8	
904.05	6453.8	
904.21	6453.8	
904.38	6453.8	
904.54	6453.8	
904.71	6453.8	
904.87	6453.8	
905.03	6453.8	
905.2	6453.8	
905.36	6453.8	
905.53	6453.8	
905.69	6453.8	
905.86	6453.8	
906.02	6453.8	
906.18	6453.8	
906.35	6453.8	
906.51	6453.8	
906.68	6453.8	
906.84	6453.8	
907.01	6453.8	
907.17	6453.8	
907.33	6453.8	
907.5	6453.8	
907.66	6453.8	
907.83	6453.8	
907.99	6453.8	
908.15	6453.8	
908.32	6453.8	
908.48	6453.8	
908.65	6453.8	
908.81	6453.8	
908.97	6453.8	
909.14	6453.8	
909.3	6453.8	
909.47	6453.8	
909.63	6453.8	
909.79	6453.8	
909.96	6453.8	
910.12	6453.8	
910.28	6453.8	
910.45	6453.8	
910.61	6453.8	
910.78	6453.8	
910.94	6453.8	
911.1	6453.8	
911.27	6453.8	
911.43	6453.8	
911.59	6453.8	
911.76	6453.8	
911.92	6453.8	
912.08	6453.8	
912.25	6453.8	
912.41	6453.8	
912.57	6453.8	
912.74	6453.8	
912.9	6453.8	
913.07	6453.8	
913.23	6453.8	
913.39	6453.8	
913.56	6453.8	
913.72	6453.8	
913.88	6453.8	
914.05	6453.8	
914.21	6453.8	
914.37	6453.8	
914.54	6453.8	
914.7	6453.8	
914.86	6453.8	
915.03	6453.8	
915.19	6453.8	
