Wavelength	Intensities	
nm	a.u.	
179.22	1742.7	
179.44	1743.8	
179.65	1741.5	
179.86	1746.2	
180.08	1715.5	
180.29	4178.5	
180.51	3121.1	
180.72	5138.4	
180.94	5840.1	
181.15	2867.2	
181.37	2793.4	
181.58	5010.7	
181.79	5195.7	
182.01	2977.7	
182.22	3134.1	
182.44	5217.5	
182.65	4472.1	
182.87	3855	
183.08	3413.3	
183.29	5466	
183.51	4601.1	
183.72	3173.7	
183.94	4418.8	
184.15	4861.9	
184.37	4796.3	
184.58	2798.2	
184.79	3700	
185.01	4575.8	
185.22	5223.7	
185.44	3900.7	
185.65	3380.5	
185.86	4848.9	
186.08	4474.1	
186.29	2712.9	
186.51	2915.6	
186.72	4625	
186.94	5301.5	
187.15	3400.3	
187.36	3453.6	
187.58	6746.7	
187.79	4999.1	
188.01	3582.6	
188.22	5369.8	
188.43	5797.8	
188.65	5175.9	
188.86	2947	
189.08	3427.6	
189.29	4659.1	
189.5	4709.6	
189.72	3211.9	
189.93	3287.7	
190.15	5328.1	
190.36	6243.6	
190.57	3386	
190.79	3404.4	
191	5375.2	
191.22	5393	
191.43	3516.4	
191.64	3018	
191.86	5608.7	
192.07	5382.1	
192.29	3044	
192.5	3228.3	
192.71	5406	
192.93	4685.8	
193.14	3196.9	
193.35	3284.3	
193.57	4722.6	
193.78	5361.6	
194	2661.7	
194.21	3155.9	
194.42	4552	
194.64	4890.5	
194.85	3495.2	
195.07	3990.8	
195.28	4929.5	
195.49	4359.4	
195.71	4109.6	
195.92	2952.5	
196.13	5091.3	
196.35	5110.4	
196.56	4371.7	
196.78	3440.6	
196.99	6214.2	
197.2	5840.1	
197.42	3846.8	
197.63	3488.4	
197.84	4476.2	
198.06	5085.1	
198.27	3188.7	
198.48	4173.1	
198.7	4701.5	
198.91	4836.6	
199.13	3470.6	
199.34	3445.4	
199.55	5285.8	
199.77	4290.5	
199.98	3082.2	
200.19	3502.7	
200.41	4882.4	
200.62	4590.2	
200.83	3648.8	
201.05	3810.6	
201.26	4904.2	
201.47	4615.4	
201.69	3084.2	
201.9	3044.6	
202.11	4863.2	
202.33	5692	
202.54	3333.4	
202.76	3659	
202.97	4969.7	
203.18	5004.6	
203.4	3598.3	
203.61	3530	
203.82	4977.9	
204.04	4640.7	
204.25	3534.1	
204.46	3396.2	
204.68	4889.2	
204.89	5133.6	
205.1	3351.8	
205.32	2991.4	
205.53	5158.2	
205.74	5309	
205.96	2599.6	
206.17	3574.4	
206.38	5182	
206.6	5307.7	
206.81	3960.8	
207.02	3229	
207.24	5061.9	
207.45	5384.1	
207.66	3332.7	
207.88	2875.3	
208.09	5015.5	
208.3	4927.4	
208.52	3070.6	
208.73	3362.8	
208.94	4945.2	
209.15	5455.1	
209.37	3349.8	
209.58	3701.4	
209.79	5302.2	
210.01	4739.7	
210.22	2754.5	
210.43	2871.9	
210.65	4876.2	
210.86	5265.3	
211.07	3265.8	
211.29	3080.1	
211.5	5100.8	
211.71	4875.5	
211.93	3090.4	
212.14	3074	
212.35	4844.1	
212.56	4973.8	
212.78	3465.8	
212.99	2917.7	
213.2	5656.5	
213.42	4733.5	
213.63	3166.8	
213.84	3352.5	
214.06	4450.2	
214.27	4481.6	
214.48	3297.9	
214.69	3558.7	
214.91	5423	
215.12	5497.4	
215.33	3563.5	
215.55	3848.1	
215.76	5918.6	
215.97	5177.3	
216.18	3397.6	
216.4	3334.1	
216.61	4571.1	
216.82	5291.3	
217.04	3093.1	
217.25	3203	
217.46	5401.2	
217.67	5173.9	
217.89	2808.4	
218.1	2885.6	
218.31	4962.2	
218.53	5092.6	
218.74	3245.3	
218.95	3100.6	
219.16	4878.3	
219.38	5649	
219.59	3170.9	
219.8	3637.2	
220.01	6084.5	
220.23	4937.7	
220.44	3981.9	
220.65	3048.7	
220.87	4926.7	
221.08	5393	
221.29	2890.4	
221.5	3743.7	
221.72	6492.1	
221.93	4677.6	
222.14	3510.2	
222.35	4080.9	
222.57	4990.2	
222.78	5243.5	
222.99	3341.6	
223.2	3547.1	
223.42	5119.2	
223.63	5235.3	
223.84	2624.8	
224.05	2661	
224.27	6055.8	
224.48	5593.7	
224.69	4076.8	
224.9	3459.7	
225.12	5071.5	
225.33	4842.1	
225.54	2828.2	
225.75	3154.6	
225.97	4524.6	
226.18	4808.6	
226.39	3358.7	
226.6	3140.2	
226.82	4700.8	
227.03	4582	
227.24	3410.6	
227.45	2998.2	
227.67	5223	
227.88	5588.9	
228.09	3878.2	
228.3	3841.3	
228.52	5197.1	
228.73	4841.4	
228.94	3220.1	
229.15	2923.8	
229.36	4878.3	
229.58	4788.2	
229.79	3266.5	
230	3766.2	
230.21	5744.6	
230.43	4926.7	
230.64	3478.1	
230.85	3584.6	
231.06	5257.1	
231.28	5229.1	
231.49	2888.3	
231.7	3370.3	
231.91	5203.2	
232.12	4891.9	
232.34	2978.4	
232.55	3361.4	
232.76	5348.6	
232.97	5003.9	
233.18	3130.7	
233.4	3444.7	
233.61	5096.7	
233.82	4838.7	
234.03	3283.6	
234.25	3213.9	
234.46	6535.1	
234.67	4907.6	
234.88	3545.7	
235.09	3149.8	
235.31	5113.1	
235.52	4832.5	
235.73	3435.1	
235.94	2945.7	
236.15	4725.3	
236.37	5827.8	
236.58	3078.8	
236.79	3308.2	
237	5193	
237.21	4456.4	
237.43	3555.3	
237.64	2869.9	
237.85	8250.6	
238.06	4536.9	
238.27	3551.9	
238.48	2956.6	
238.7	5173.2	
238.91	4764.9	
239.12	3291.1	
239.33	3375.1	
239.54	4556.7	
239.76	4859.8	
239.97	3297.2	
240.18	3316.3	
240.39	5876.3	
240.6	5074.9	
240.82	3484.3	
241.03	2918.4	
241.24	4878.9	
241.45	5578	
241.66	3138.2	
241.87	3594.2	
242.09	5517.2	
242.3	5805.3	
242.51	3627	
242.72	3336.1	
242.93	5274.2	
243.14	4861.2	
243.36	3790.1	
243.57	4098	
243.78	5552.7	
243.99	5180.7	
244.2	3351.8	
244.41	3087	
244.63	4552.6	
244.84	5091.3	
245.05	3580.5	
245.26	3327.9	
245.47	5141.8	
245.68	5288.5	
245.9	4333.5	
246.11	3500	
246.32	4747.2	
246.53	5134.9	
246.74	5326.1	
246.95	2899.9	
247.16	4584	
247.38	4908.3	
247.59	2829.6	
247.8	3398.3	
248.01	4586.1	
248.22	4904.2	
248.43	3095.8	
248.64	3267.2	
248.86	4469.4	
249.07	4693.9	
249.28	3019.4	
249.49	3478.8	
249.7	5354.1	
249.91	5385.5	
250.12	2818	
250.34	2936.8	
250.55	4995	
250.76	4883	
250.97	3442.6	
251.18	3479.5	
251.39	5424.4	
251.6	5020.3	
251.81	3541.6	
252.03	3516.4	
252.24	4719.9	
252.45	5256.5	
252.66	2967.5	
252.87	3658.4	
253.08	4937	
253.29	6209.4	
253.5	2966.8	
253.72	4015.4	
253.93	4815.5	
254.14	5763.7	
254.35	3165.5	
254.56	3278.1	
254.77	5137	
254.98	4599.1	
255.19	3201.7	
255.41	3984	
255.62	4971.1	
255.83	5362.9	
256.04	3579.2	
256.25	3528.7	
256.46	5876.3	
256.67	4641.4	
256.88	3424.9	
257.09	3803.8	
257.31	4647.5	
257.52	4615.4	
257.73	4237.9	
257.94	3191.4	
258.15	4787.5	
258.36	4883	
258.57	3893.2	
258.78	2630.3	
258.99	5257.8	
259.2	4730.8	
259.41	3252.9	
259.63	3302.7	
259.84	5584.8	
260.05	5889.3	
260.26	4117.8	
260.47	3159.3	
260.68	5365.7	
260.89	4823.6	
261.1	3826.3	
261.31	3046	
261.52	5411.4	
261.73	5715.2	
261.95	4046.8	
262.16	3594.9	
262.37	5463.3	
262.58	5537	
262.79	4037.2	
263	3240.6	
263.21	4920.6	
263.42	4758.8	
263.63	3332	
263.84	3223.5	
264.05	5331.5	
264.26	5597.1	
264.47	3961.5	
264.69	3529.3	
264.9	5487.2	
265.11	5053.7	
265.32	3134.8	
265.53	3109.5	
265.74	5010	
265.95	4444.8	
266.16	3371	
266.37	3770.3	
266.58	5024.3	
266.79	4736.3	
267	3203	
267.21	2940.2	
267.42	4568.3	
267.63	4892.6	
267.84	3331.4	
268.06	2867.8	
268.27	5293.3	
268.48	5397.8	
268.69	3296.5	
268.9	3819.5	
269.11	5467.4	
269.32	4480.3	
269.53	3315.7	
269.74	3110.9	
269.95	5087.8	
270.16	4391.5	
270.37	3386.7	
270.58	3807.9	
270.79	4793.6	
271	5322	
271.21	3535.5	
271.42	3420.8	
271.63	5090.6	
271.84	4575.8	
272.05	2745	
272.26	3063.1	
272.47	4902.8	
272.68	5066	
272.89	3184.6	
273.11	3639.2	
273.32	4698.7	
273.53	5656.5	
273.74	3600.3	
273.95	3493.2	
274.16	5289.2	
274.37	4870.8	
274.58	3649.5	
274.79	2948.4	
275	5025.7	
275.21	5416.9	
275.42	4311	
275.63	3735.5	
275.84	5143.8	
276.05	6279.1	
276.26	3532.7	
276.47	3283.6	
276.68	4818.2	
276.89	5715.2	
277.1	3719.1	
277.31	2945.7	
277.52	5105.6	
277.73	5369.1	
277.94	2896.5	
278.15	3201.7	
278.36	5130.2	
278.57	4642.1	
278.78	3241.9	
278.99	3571	
279.2	4646.8	
279.41	4573.8	
279.62	4162.8	
279.83	2978.4	
280.04	5891.3	
280.25	4612.7	
280.46	4132.8	
280.67	3370.3	
280.88	4614.8	
281.09	5472.2	
281.3	3484.3	
281.51	4401.8	
281.72	4665.3	
281.93	5296.7	
282.14	3155.9	
282.35	3406.5	
282.56	5327.4	
282.77	5311.1	
282.98	3261.7	
283.19	3919.1	
283.4	6361.7	
283.61	4846.9	
283.82	3006.4	
284.03	4025.6	
284.24	5086.5	
284.45	5410.7	
284.66	4140.3	
284.87	3915.7	
285.08	5352	
285.29	5484.5	
285.5	2914.9	
285.71	3304.1	
285.92	5414.8	
286.12	5939.1	
286.33	4078.2	
286.54	3319.8	
286.75	5262.6	
286.96	4802.5	
287.17	3054.2	
287.38	3937.6	
287.59	4648.9	
287.8	4649.6	
288.01	3274.7	
288.22	3702.7	
288.43	5260.5	
288.64	4435.9	
288.85	3876.1	
289.06	3674.7	
289.27	5272.2	
289.48	5629.9	
289.69	4119.1	
289.9	3777.1	
290.11	5439.4	
290.32	4673.5	
290.53	3864.5	
290.74	3617.4	
290.94	5238	
291.15	5315.8	
291.36	3162.1	
291.57	3684.3	
291.78	4745.1	
291.99	4403.1	
292.2	3118.4	
292.41	3611.3	
292.62	5367	
292.83	5143.1	
293.04	4364.2	
293.25	3090.4	
293.46	4771.1	
293.67	5338.4	
293.88	3123.8	
294.09	3049.4	
294.29	4571.1	
294.5	5023.7	
294.71	3338.2	
294.92	3236.5	
295.13	4797.7	
295.34	5792.3	
295.55	2874	
295.76	2796.8	
295.97	5240.8	
296.18	5819	
296.39	3033	
296.6	3104	
296.81	4986.8	
297.01	5294	
297.22	3277.4	
297.43	3165.5	
297.64	4698.7	
297.85	4586.8	
298.06	2661.7	
298.27	2882.2	
298.48	4911	
298.69	4658.4	
298.9	3364.1	
299.11	3114.3	
299.31	4558.8	
299.52	4545.1	
299.73	3674.1	
299.94	3497.9	
300.15	4904.9	
300.36	4613.4	
300.57	3535.5	
300.78	3532.7	
300.99	4812	
301.2	5012.7	
301.4	3172.3	
301.61	3330	
301.82	5160.9	
302.03	5231.2	
302.24	3790.1	
302.45	3014.6	
302.66	5147.9	
302.87	5466	
303.08	3169.6	
303.29	4183.3	
303.49	4741.7	
303.7	5005.9	
303.91	2861	
304.12	4054.3	
304.33	4504.2	
304.54	5059.8	
304.75	3152.5	
304.96	3002.3	
305.16	5156.1	
305.37	5760.9	
305.58	2794.1	
305.79	2824.8	
306	5126.1	
306.21	4413.4	
306.42	3207.1	
306.63	4674.8	
306.83	4745.8	
307.04	5324.7	
307.25	3414.6	
307.46	3424.2	
307.67	4332.8	
307.88	5263.3	
308.09	3136.1	
308.29	3267.9	
308.5	4977.2	
308.71	5335.6	
308.92	3398.9	
309.13	3084.9	
309.34	4782.7	
309.55	4827.1	
309.75	3870.7	
309.96	3571	
310.17	5263.3	
310.38	4685.8	
310.59	3715.7	
310.8	3000.3	
311.01	5513.1	
311.21	4812.7	
311.42	2996.9	
311.63	3125.9	
311.84	4695.3	
312.05	4937.7	
312.26	3509.5	
312.46	3840.6	
312.67	4759.5	
312.88	4488.5	
313.09	3040.6	
313.3	3022.8	
313.51	5531.6	
313.71	5820.3	
313.92	3076	
314.13	3245.3	
314.34	5041.4	
314.55	4838	
314.76	3813.3	
314.96	3444.7	
315.17	5084.4	
315.38	5259.2	
315.59	3123.2	
315.8	3000.3	
316.01	5524.7	
316.21	5638.1	
316.42	3004.4	
316.63	3328.6	
316.84	4807.3	
317.05	5421.7	
317.26	3573.7	
317.46	3252.2	
317.67	4863.9	
317.88	5255.1	
318.09	3825.6	
318.3	2893.1	
318.5	4752.7	
318.71	5141.8	
318.92	4794.3	
319.13	3571.7	
319.34	5307.7	
319.54	5444.9	
319.75	2887	
319.96	2749.7	
320.17	5192.3	
320.38	5383.4	
320.58	2860.3	
320.79	3340.9	
321	5417.6	
321.21	5421	
321.42	3351.2	
321.62	2842.6	
321.83	4655.7	
322.04	4932.2	
322.25	3216	
322.46	3087.7	
322.66	4997.7	
322.87	5204.6	
323.08	3715.7	
323.29	3013.2	
323.5	5741.1	
323.7	4583.4	
323.91	4082.3	
324.12	3654.3	
324.33	4973.2	
324.53	5185.5	
324.74	3546.4	
324.95	3689.8	
325.16	4449.6	
325.37	4747.9	
325.57	3057.6	
325.78	3203	
325.99	5057.8	
326.2	4486.4	
326.4	4388.1	
326.61	2836.4	
326.82	4874.8	
327.03	5031.9	
327.24	4240.7	
327.44	3952.6	
327.65	5162.2	
327.86	4291.9	
328.07	3579.2	
328.27	3021.4	
328.48	5464.7	
328.69	4564.9	
328.9	4300.1	
329.1	3249.4	
329.31	4864.6	
329.52	5543.2	
329.73	3099.9	
329.93	3405.1	
330.14	4937	
330.35	5114.5	
330.56	4874.8	
330.76	3760.8	
330.97	4786.8	
331.18	5040.7	
331.39	3467.9	
331.59	2821.4	
331.8	5378.6	
332.01	5472.9	
332.22	3168.2	
332.42	3527.3	
332.63	5005.9	
332.84	4607.2	
333.05	3420.1	
333.25	3094.5	
333.46	4741	
333.67	4868.7	
333.88	3274.7	
334.08	3484.3	
334.29	6337.8	
334.5	5410.7	
334.7	2990	
334.91	4202.4	
335.12	4531.5	
335.33	5223	
335.53	3358	
335.74	4818.9	
335.95	4752.7	
336.16	4573.8	
336.36	3382.6	
336.57	3848.1	
336.78	4474.1	
336.98	5356.1	
337.19	4136.2	
337.4	3282.2	
337.61	5849.7	
337.81	4559.5	
338.02	3120.4	
338.23	3950.5	
338.43	5524.7	
338.64	4655	
338.85	3063.8	
339.05	4049.5	
339.26	5607.3	
339.47	4476.9	
339.68	3091.1	
339.88	4392.9	
340.09	5096	
340.3	5276.9	
340.5	3519.8	
340.71	2796.8	
340.92	4518.5	
341.13	5507	
341.33	2979.8	
341.54	3589.4	
341.75	5101.5	
341.95	4745.8	
342.16	3402.4	
342.37	3669.3	
342.57	4580.6	
342.78	4887.1	
342.99	3743.7	
343.19	2813.9	
343.4	5224.4	
343.61	5083.1	
343.81	3286.3	
344.02	2992.1	
344.23	5248.3	
344.43	5574.6	
344.64	3775.8	
344.85	3669.3	
345.06	5170.4	
345.26	5457.2	
345.47	3502	
345.68	4115.7	
345.88	4386.1	
346.09	5322.7	
346.3	3607.8	
346.5	2719.7	
346.71	4904.2	
346.92	4670.1	
347.12	2852.8	
347.33	3416.7	
347.54	5326.1	
347.74	5611.4	
347.95	3482.9	
348.16	2645.3	
348.36	4783.4	
348.57	4602.5	
348.78	3502.7	
348.98	3710.2	
349.19	4863.9	
349.39	4459.1	
349.6	2906.8	
349.81	3168.2	
350.01	5163.6	
350.22	4646.2	
350.43	3403	
350.63	4070	
350.84	4906.3	
351.05	4688.5	
351.25	3091.1	
351.46	2826.9	
351.67	5337	
351.87	4638.6	
352.08	3288.4	
352.29	3724.6	
352.49	5240.1	
352.7	5358.2	
352.9	2912.2	
353.11	3684.3	
353.32	5724.8	
353.52	4800.4	
353.73	2992.1	
353.94	3717.7	
354.14	5130.8	
354.35	4930.8	
354.55	3080.8	
354.76	3368.2	
354.97	5114.5	
355.17	4930.1	
355.38	2950.4	
355.59	3919.8	
355.79	4618.9	
356	4948.6	
356.2	3257.6	
356.41	2977.1	
356.62	4434.5	
356.82	4758.8	
357.03	3594.2	
357.24	3274	
357.44	4621.6	
357.65	4741.7	
357.85	4169.7	
358.06	3369.6	
358.27	4386.1	
358.47	4567	
358.68	2880.8	
358.88	3525.9	
359.09	5047.6	
359.3	5375.9	
359.5	4119.8	
359.71	3639.9	
359.91	5722.7	
360.12	5132.9	
360.33	3592.1	
360.53	3956	
360.74	4572.4	
360.94	4661.2	
361.15	3728	
361.36	3058.3	
361.56	5270.1	
361.77	4768.4	
361.97	4038.6	
362.18	3315	
362.38	5281	
362.59	4463.2	
362.8	3107.5	
363	2899.9	
363.21	4365.6	
363.41	4920.6	
363.62	3459.7	
363.83	4182	
364.03	5019.6	
364.24	5659.2	
364.44	4361.5	
364.65	4336.9	
364.85	4734.9	
365.06	4545.1	
365.27	3149.8	
365.47	3231	
365.68	5517.9	
365.88	4766.3	
366.09	3551.9	
366.29	3236.5	
366.5	4917.9	
366.71	5230.5	
366.91	4271.4	
367.12	3654.9	
367.32	5763.7	
367.53	5100.8	
367.73	3592.1	
367.94	4358.8	
368.14	5141.1	
368.35	5825.8	
368.56	3519.8	
368.76	3046.7	
368.97	5268.7	
369.17	6503.7	
369.38	3188.7	
369.58	3375.1	
369.79	4470	
369.99	5511.1	
370.2	4220.9	
370.4	3474	
370.61	4945.8	
370.82	5954.8	
371.02	3408.5	
371.23	2869.9	
371.43	4375.1	
371.64	5440.8	
371.84	3393.5	
372.05	4306.2	
372.25	6393.8	
372.46	5120.6	
372.66	3396.2	
372.87	3390.8	
373.07	5217.5	
373.28	6544.6	
373.48	4158.1	
373.69	3955.3	
373.9	4825	
374.1	4866	
374.31	4055.7	
374.51	3752.6	
374.72	5436.7	
374.92	4604.5	
375.13	4264.6	
375.33	3648.1	
375.54	5057.1	
375.74	4691.9	
375.95	3758	
376.15	4601.8	
376.36	5190.9	
376.56	4982.7	
376.77	3718.4	
376.97	4073.4	
377.18	5952.1	
377.38	5229.1	
377.59	4237.2	
377.79	3362.1	
378	4980	
378.2	5312.4	
378.41	3314.3	
378.61	3252.2	
378.82	5402.5	
379.02	4739	
379.23	3454.9	
379.43	4349.2	
379.64	5504.9	
379.84	5122	
380.05	3283.6	
380.25	3270.6	
380.46	5244.8	
380.66	4930.8	
380.87	4366.3	
381.07	4715.8	
381.28	5715.2	
381.48	5290.6	
381.69	3363.4	
381.89	3407.1	
382.1	4437.9	
382.3	5360.2	
382.51	4269.3	
382.71	4896	
382.91	5185.5	
383.12	5634	
383.32	3648.1	
383.53	3818.1	
383.73	5141.1	
383.94	4953.4	
384.14	3827	
384.35	3110.2	
384.55	4859.8	
384.76	5218.9	
384.96	3646.1	
385.17	3915	
385.37	5276.3	
385.58	4659.8	
385.78	3943.7	
385.98	3111.5	
386.19	4862.6	
386.39	5190.9	
386.6	3420.8	
386.8	3650.8	
387.01	5258.5	
387.21	5341.1	
387.42	3949.8	
387.62	4354	
387.83	4799.1	
388.03	5145.9	
388.23	3704.1	
388.44	4268.6	
388.64	4470.7	
388.85	4518.5	
389.05	3914.4	
389.26	4345.1	
389.46	6104.3	
389.67	5614.2	
389.87	3928	
390.07	4018.1	
390.28	4990.9	
390.48	4636.6	
390.69	3304.7	
390.89	3600.3	
391.1	4820.9	
391.3	5519.3	
391.5	4557.4	
391.71	5062.6	
391.91	5349.3	
392.12	6007.4	
392.32	4551.3	
392.53	3948.5	
392.73	4868.7	
392.93	4971.1	
393.14	3750.5	
393.34	4315.8	
393.55	5359.5	
393.75	4995	
393.95	3687	
394.16	3682.2	
394.36	4805.9	
394.57	5333.6	
394.77	3327.9	
394.98	3633.8	
395.18	4747.2	
395.38	4841.4	
395.59	4311	
395.79	3467.2	
396	4863.9	
396.2	5198.4	
396.4	4187.4	
396.61	4065.2	
396.81	5356.8	
397.02	4775.9	
397.22	4318.5	
397.42	4398.4	
397.63	5382.7	
397.83	4774.5	
398.04	3439.2	
398.24	3872.7	
398.44	5218.2	
398.65	4815.5	
398.85	3314.3	
399.05	3414.6	
399.26	4796.3	
399.46	6066.1	
399.67	3700	
399.87	3536.2	
400.07	5046.9	
400.28	5307	
400.48	3590.8	
400.69	4371	
400.89	5490.6	
401.09	5826.5	
401.3	3468.6	
401.5	4334.2	
401.7	5927.5	
401.91	6203.3	
402.11	3784.6	
402.32	3943	
402.52	5507	
402.72	5476.3	
402.93	4159.4	
403.13	3295.9	
403.33	6126.2	
403.54	5085.8	
403.74	3938.2	
403.94	4645.5	
404.15	5156.8	
404.35	6092.7	
404.56	3755.3	
404.76	5190.9	
404.96	5509.7	
405.17	5309.7	
405.37	4601.1	
405.57	4048.2	
405.78	5510.4	
405.98	5156.8	
406.18	3715.7	
406.39	4424.3	
406.59	5543.2	
406.79	5214.8	
407	3570.3	
407.2	3700.7	
407.4	5600.5	
407.61	5632.6	
407.81	3676.1	
408.01	5489.9	
408.22	4615.4	
408.42	6169.8	
408.62	4448.2	
408.83	4011.3	
409.03	5087.2	
409.23	5057.1	
409.44	4066.6	
409.64	4250.9	
409.84	5915.9	
410.05	5819	
410.25	4184	
410.45	4017.4	
410.66	5421	
410.86	7284.6	
411.06	4377.2	
411.27	4209.3	
411.47	7143.3	
411.67	5569.8	
411.88	4369	
412.08	4549.9	
412.28	6055.8	
412.49	6505.7	
412.69	4228.4	
412.89	4274.1	
413.09	6327.5	
413.3	6163	
413.5	4386.7	
413.7	4038.6	
413.91	5653.1	
414.11	6254.5	
414.31	4179.9	
414.52	4509.6	
414.72	6029.2	
414.92	5962.3	
415.12	4208.6	
415.33	4621.6	
415.53	6279.8	
415.73	6399.9	
415.94	4909.7	
416.14	4467.3	
416.34	5467.4	
416.55	5304.9	
416.75	5436	
416.95	4942.4	
417.15	6343.9	
417.36	6801.3	
417.56	5606	
417.76	4838	
417.97	6522.1	
418.17	6261.3	
418.37	4539.7	
418.57	4558.1	
418.78	6176	
418.98	5885.9	
419.18	5180.7	
419.38	5214.1	
419.59	5905.7	
419.79	5657.2	
419.99	4450.2	
420.2	4706.9	
420.4	6313.2	
420.6	6433.4	
420.8	4436.6	
421.01	4302.1	
421.21	6221	
421.41	6307.1	
421.61	4707.6	
421.82	4473.4	
422.02	5833.3	
422.22	6583.5	
422.42	5058.5	
422.63	4911	
422.83	5967.1	
423.03	6802	
423.23	4887.8	
423.44	4057	
423.64	5947.3	
423.84	5784.1	
424.04	4496	
424.25	4212.7	
424.45	6699.6	
424.65	6679.1	
424.85	3973.1	
425.06	4554.7	
425.26	6780.8	
425.46	5924.1	
425.66	4846.9	
425.87	4637.3	
426.07	6503	
426.27	6355.5	
426.47	4757.4	
426.67	4272.7	
426.88	6812.9	
427.08	6390.3	
427.28	4925.4	
427.48	4232.5	
427.69	5548.6	
427.89	6000.5	
428.09	4945.2	
428.29	4242.7	
428.5	6495.5	
428.7	6152.8	
428.9	4131.4	
429.1	4532.2	
429.3	6113.9	
429.51	6389	
429.71	4414.7	
429.91	5036.6	
430.11	6373.3	
430.31	6565.8	
430.52	4638.6	
430.72	4812.7	
430.92	6848.4	
431.12	6368.5	
431.32	4387.4	
431.53	4777.9	
431.73	5530.9	
431.93	6785.6	
432.13	4354.7	
432.33	4229.7	
432.54	5887.9	
432.74	6123.4	
432.94	4167.6	
433.14	5062.6	
433.34	6470.9	
433.55	6026.5	
433.75	4992.3	
433.95	6345.3	
434.15	6282.5	
434.35	5980.8	
434.56	4324.6	
434.76	4002.4	
434.96	6168.5	
435.16	6414.9	
435.36	4242.7	
435.56	5196.4	
435.77	5900.9	
435.97	6040.8	
436.17	5692	
436.37	5129.5	
436.57	5905.7	
436.78	5832.6	
436.98	6568.5	
437.18	5612.1	
437.38	6391	
437.58	6093.4	
437.78	5687.9	
437.99	4736.3	
438.19	6500.3	
438.39	7153.6	
438.59	4669.4	
438.79	4267.3	
438.99	7047.7	
439.2	6025.1	
439.4	4261.8	
439.6	4160.8	
439.8	6239.5	
440	7109.2	
440.2	4947.9	
440.4	5098.1	
440.61	6582.9	
440.81	7055.9	
441.01	4425	
441.21	5059.2	
441.41	6963.8	
441.61	6661.4	
441.81	5426.4	
442.02	6163	
442.22	7350.8	
442.42	6739.9	
442.62	4532.8	
442.82	4657.1	
443.02	7025.2	
443.22	6321.4	
443.43	4902.2	
443.63	4538.3	
443.83	6229.9	
444.03	6152.1	
444.23	5490.6	
444.43	5202.5	
444.63	6420.4	
444.83	7408.9	
445.04	4685.8	
445.24	5706.3	
445.44	6733	
445.64	6842.3	
445.84	5289.9	
446.04	5345.9	
446.24	6319.3	
446.44	7018.4	
446.65	4672.8	
446.85	4979.3	
447.05	6405.4	
447.25	6943.3	
447.45	5058.5	
447.65	4549.9	
447.85	6516.6	
448.05	6183.5	
448.25	5395	
448.46	5283.8	
448.66	6463.4	
448.86	6293.4	
449.06	4459.1	
449.26	5367	
449.46	6797.9	
449.66	6036.7	
449.86	5026.4	
450.06	4954	
450.26	6136.4	
450.47	6690.7	
450.67	5201.8	
450.87	5454.4	
451.07	6810.2	
451.27	6545.3	
451.47	4666	
451.67	5128.1	
451.87	6281.1	
452.07	7272.3	
452.27	4892.6	
452.47	4840	
452.67	6636.1	
452.88	6882.5	
453.08	4379.2	
453.28	5889.3	
453.48	7521.5	
453.68	6506.4	
453.88	4764.3	
454.08	4977.9	
454.28	6900.3	
454.48	6610.8	
454.68	5330.9	
454.88	5762.3	
455.08	6955.6	
455.28	6684.6	
455.48	4691.9	
455.68	5177.3	
455.89	7270.3	
456.09	6992.4	
456.29	4965.6	
456.49	5058.5	
456.69	7229.3	
456.89	6610.8	
457.09	5428.5	
457.29	5714.5	
457.49	6863.4	
457.69	6966.5	
457.89	5282.4	
458.09	4861.2	
458.29	6781.5	
458.49	7352.2	
458.69	5705.6	
458.89	5200.5	
459.09	7511.3	
459.29	7651.2	
459.49	5289.9	
459.69	5971.2	
459.9	7264.1	
460.1	6770.6	
460.3	5233.9	
460.5	5107	
460.7	7141.3	
460.9	6826.6	
461.1	4863.2	
461.3	5821	
461.5	7658	
461.7	7375.4	
461.9	5119.9	
462.1	5443.5	
462.3	6969.9	
462.5	7462.1	
462.7	5226.4	
462.9	5358.2	
463.1	8269	
463.3	7993.9	
463.5	5442.1	
463.7	6167.1	
463.9	7146	
464.1	7490.1	
464.3	5595.1	
464.5	5824.4	
464.7	7722.9	
464.9	7379.5	
465.1	6876.4	
465.3	6121.4	
465.5	7940.7	
465.7	7905.8	
465.9	6315.3	
466.1	6090.7	
466.3	7775.5	
466.5	7737.2	
466.7	6866.2	
466.9	5965.1	
467.1	7750.2	
467.3	8369.4	
467.5	6823.8	
467.7	5950.7	
467.9	8548.2	
468.1	9277.3	
468.3	6516.6	
468.5	6845	
468.7	7660.8	
468.9	7684	
469.1	6182.1	
469.3	6698.2	
469.5	9285.5	
469.7	7381.6	
469.9	6522.1	
470.1	6032	
470.3	7819.1	
470.5	7740	
470.7	7096.2	
470.9	6081.8	
471.1	7671	
471.3	7912.7	
471.5	6086.6	
471.69	7503.8	
471.89	7491.5	
472.09	7121.5	
472.29	6628.6	
472.49	6873.7	
472.69	7294.9	
472.89	7866.2	
473.09	5915.2	
473.29	6062.7	
473.49	7508.5	
473.69	7453.9	
473.89	6771.3	
474.09	6124.1	
474.29	8507.9	
474.49	8298.4	
474.69	6797.2	
474.89	6234.7	
475.09	7604.1	
475.29	7559.1	
475.49	5812.1	
475.69	6022.4	
475.88	8840.4	
476.08	8001.4	
476.28	5776	
476.48	6066.8	
476.68	8245.1	
476.88	8055.3	
477.08	6080.4	
477.28	6184.2	
477.48	7682.6	
477.68	8149.6	
477.88	5868.8	
478.08	6068.1	
478.28	8428.1	
478.48	7759.1	
478.67	6253.1	
478.87	5649	
479.07	8281.3	
479.27	7879.9	
479.47	6306.4	
479.67	6278.4	
479.87	8140.7	
480.07	8615.8	
480.27	5776.6	
480.47	7013.6	
480.67	7821.9	
480.87	8412.4	
481.06	5983.5	
481.26	6746	
481.46	7907.2	
481.66	7772	
481.86	6464.1	
482.06	7187.7	
482.26	7648.5	
482.46	8346.8	
482.66	6418.3	
482.86	6005.3	
483.05	7989.1	
483.25	7407.5	
483.45	8251.9	
483.65	6346.7	
483.85	7600	
484.05	7778.2	
484.25	6690	
484.45	7090.1	
484.65	8535.9	
484.84	8592.6	
485.04	6299.6	
485.24	6294.1	
485.44	8804.2	
485.64	7405.5	
485.84	5778.7	
486.04	6896.9	
486.24	7699.7	
486.44	8017.8	
486.63	5707	
486.83	6458.6	
487.03	7662.8	
487.23	7803.4	
487.43	5952.8	
487.63	7721.5	
487.83	7946.8	
488.02	8700.5	
488.22	6632.7	
488.42	7169.9	
488.62	8619.9	
488.82	7697.6	
489.02	6382.2	
489.22	6365.8	
489.41	8469	
489.61	8303.1	
489.81	6197.8	
490.01	6321.4	
490.21	8466.3	
490.41	9026.1	
490.61	6268.8	
490.8	6365.8	
491	8227.4	
491.2	7679.9	
491.4	6819.1	
491.6	6167.8	
491.8	8191.9	
491.99	8215.8	
492.19	6002.6	
492.39	6214.2	
492.59	8464.3	
492.79	8565.3	
492.99	6908.5	
493.18	6227.9	
493.38	8561.9	
493.58	9137.4	
493.78	6818.4	
493.98	6432.7	
494.18	8366	
494.37	7916.8	
494.57	6986.3	
494.77	6950.1	
494.97	8492.9	
495.17	8780.3	
495.37	6605.4	
495.56	6901	
495.76	8973.5	
495.96	8770.1	
496.16	7712.7	
496.36	6837.5	
496.55	9001.5	
496.75	8584.4	
496.95	7215.7	
497.15	7036.1	
497.35	9005.6	
497.54	8965.3	
497.74	6983.6	
497.94	8247.2	
498.14	9484.8	
498.34	9309.4	
498.53	6632.7	
498.73	7352.2	
498.93	8356.4	
499.13	8901.8	
499.33	7203.4	
499.52	7654.6	
499.72	8985.1	
499.92	9170.8	
500.12	6999.3	
500.32	7203.4	
500.51	9153.7	
500.71	8973.5	
500.91	7888.1	
501.11	7529.7	
501.31	9209	
501.5	9535.3	
501.7	8106.5	
501.9	7316.7	
502.1	9075.9	
502.29	9283.4	
502.49	7681.9	
502.69	8061.5	
502.89	9189.9	
503.09	9232.9	
503.28	6949.4	
503.48	7012.2	
503.68	8616.5	
503.88	8611.7	
504.07	7843	
504.27	7313.3	
504.47	8925	
504.67	9030.9	
504.86	7660.1	
505.06	7446.4	
505.26	8669.7	
505.46	10054	
505.65	7378.1	
505.85	7612.3	
506.05	8674.5	
506.25	9080	
506.44	6879.1	
506.64	7593.9	
506.84	8587.1	
507.04	9229.5	
507.23	7010.2	
507.43	7487.4	
507.63	10090	
507.83	8647.9	
508.02	7418.4	
508.22	7073	
508.42	10390	
508.62	8584.4	
508.81	7590.5	
509.01	7798	
509.21	8499.8	
509.4	8702.5	
509.6	7510.6	
509.8	6978.8	
510	8613.1	
510.19	9749.7	
510.39	6936.5	
510.59	7142.6	
510.79	8520.9	
510.98	9697.8	
511.18	7142.6	
511.38	7206.8	
511.57	9239.1	
511.77	9034.3	
511.97	7829.4	
512.17	7055.3	
512.36	9295	
512.56	9072.5	
512.76	7027.9	
512.95	6776	
513.15	9344.9	
513.35	8190.5	
513.55	7658	
513.74	7036.8	
513.94	9301.9	
514.14	8823.3	
514.33	7881.3	
514.53	7570.7	
514.73	8811.7	
514.92	8981.7	
515.12	7157	
515.32	7047.1	
515.51	9042.5	
515.71	9298.5	
515.91	8366	
516.11	7043.6	
516.3	10374	
516.5	8712.7	
516.7	7653.9	
516.89	8058.1	
517.09	8903.9	
517.29	8770.8	
517.48	7865.6	
517.68	7360.4	
517.88	8669.7	
518.07	9145.5	
518.27	7801.4	
518.47	7092.8	
518.66	9634.3	
518.86	8574.2	
519.06	6885.3	
519.25	7237.5	
519.45	8742.1	
519.65	9970.9	
519.84	7794.6	
520.04	8403.5	
520.24	10288	
520.43	9368.1	
520.63	7686	
520.83	7465.5	
521.02	8757.1	
521.22	9258.2	
521.42	7853.3	
521.61	8251.9	
521.81	8889.5	
522.01	9084.8	
522.2	7762.5	
522.4	7478.5	
522.6	9463	
522.79	8432.2	
522.99	7671.7	
523.18	7120.8	
523.38	9318.9	
523.58	9188.6	
523.77	8617.9	
523.97	7070.3	
524.17	10747	
524.36	10032	
524.56	8294.3	
524.76	8039	
524.95	9387.9	
525.15	9087.5	
525.34	7927.7	
525.54	7931.8	
525.74	9745.6	
525.93	8968.1	
526.13	8996.7	
526.33	7945.4	
526.52	10125	
526.72	9608.4	
526.91	9056.1	
527.11	8434.2	
527.31	10118	
527.5	10442	
527.7	8401.5	
527.89	7592.5	
528.09	9301.9	
528.29	9765.4	
528.48	8629.5	
528.68	8400.1	
528.87	10114	
529.07	10176	
529.27	8490.2	
529.46	8035.5	
529.66	10009	
529.85	10258	
530.05	8049.9	
530.25	8704.5	
530.44	11157	
530.64	9977	
530.83	8357.1	
531.03	8577.6	
531.23	10311	
531.42	10099	
531.62	9097.1	
531.81	8357.8	
532.01	10417	
532.21	10718	
532.4	8343.4	
532.6	8732.5	
532.79	11127	
532.99	10471	
533.18	8754.4	
533.38	9534.7	
533.58	10238	
533.77	10866	
533.97	8862.2	
534.16	9422	
534.36	11129	
534.55	10355	
534.75	9555.1	
534.95	8893.6	
535.14	11027	
535.34	10333	
535.53	8746.2	
535.73	10332	
535.92	11650	
536.12	10495	
536.31	8831.5	
536.51	9814.5	
536.71	10830	
536.9	10504	
537.1	8958.5	
537.29	8996	
537.49	11219	
537.68	10322	
537.88	9372.2	
538.07	8619.2	
538.27	10595	
538.46	11403	
538.66	8589.9	
538.86	9022	
539.05	10637	
539.25	11017	
539.44	9256.1	
539.64	8967.4	
539.83	10625	
540.03	11373	
540.22	8867	
540.42	8938.7	
540.61	10761	
540.81	10936	
541	9239.1	
541.2	9828.2	
541.39	10387	
541.59	10626	
541.78	9624.8	
541.98	8856.1	
542.18	10102	
542.37	10053	
542.57	9145.5	
542.76	9574.3	
542.96	10196	
543.15	10739	
543.35	9187.9	
543.54	8641.7	
543.74	10815	
543.93	10641	
544.13	9109.4	
544.32	9949	
544.52	10839	
544.71	10150	
544.91	8217.1	
545.1	9312.1	
545.3	10168	
545.49	10637	
545.69	8309.3	
545.88	8759.8	
546.08	11538	
546.27	11117	
546.47	9211.8	
546.66	8566	
546.86	10863	
547.05	11349	
547.24	8867.7	
547.44	8574.8	
547.63	9988.6	
547.83	10898	
548.02	9014.5	
548.22	9207	
548.41	9842.5	
548.61	10937	
548.8	8597.4	
549	8583	
549.19	10470	
549.39	10804	
549.58	8375.5	
549.78	8806.9	
549.97	10662	
550.17	10230	
550.36	9523.1	
550.55	10390	
550.75	10279	
550.94	10935	
551.14	8483.4	
551.33	8820.6	
551.53	9790	
551.72	10495	
551.92	8737.3	
552.11	8598.7	
552.31	10546	
552.5	10522	
552.69	9961.3	
552.89	8362.5	
553.08	10570	
553.28	10329	
553.47	8720.9	
553.67	9594.1	
553.86	11034	
554.06	9687.6	
554.25	7968	
554.44	8361.2	
554.64	11510	
554.83	11153	
555.03	8454.7	
555.22	8755.7	
555.42	10722	
555.61	10375	
555.8	8572.1	
556	8791.2	
556.19	9690.3	
556.39	10639	
556.58	8580.3	
556.78	8645.8	
556.97	10343	
557.16	10155	
557.36	9596.8	
557.55	8355	
557.75	9432.9	
557.94	10961	
558.13	8369.4	
558.33	8214.4	
558.52	10787	
558.72	9847.3	
558.91	8378.9	
559.1	8482.7	
559.3	9574.3	
559.49	9458.9	
559.69	8030.8	
559.88	8762.6	
560.07	10305	
560.27	10649	
560.46	8905.9	
560.66	8923	
560.85	10142	
561.04	9390.6	
561.24	8238.3	
561.43	8344.1	
561.63	9667.8	
561.82	9854.1	
562.01	9412.5	
562.21	8600.1	
562.4	10213	
562.59	10907	
562.79	8507.9	
562.98	8215.1	
563.18	10198	
563.37	11281	
563.56	8944.8	
563.76	8197.3	
563.95	9793.4	
564.14	9696.4	
564.34	8621.3	
564.53	8297.7	
564.73	10224	
564.92	10506	
565.11	8611	
565.31	8241.7	
565.5	10610	
565.69	9798.2	
565.89	8499.1	
566.08	8623.3	
566.27	10565	
566.47	10877	
566.66	9103.9	
566.85	8107.9	
567.05	10379	
567.24	9913.5	
567.44	8374.1	
567.63	9515.5	
567.82	10494	
568.02	10273	
568.21	8514.8	
568.4	8696.4	
568.6	10183	
568.79	10139	
568.98	8260.1	
569.18	8312.7	
569.37	10180	
569.56	11800	
569.76	8689.5	
569.95	9453.4	
570.14	10591	
570.34	10359	
570.53	8368.7	
570.72	8320.2	
570.91	10919	
571.11	10260	
571.3	8746.2	
571.49	9514.2	
571.69	10342	
571.88	9951.1	
572.07	9243.2	
572.27	9177.6	
572.46	9938.1	
572.65	10669	
572.85	8546.2	
573.04	8819.9	
573.23	10901	
573.43	10327	
573.62	8432.2	
573.81	8869.1	
574	10442	
574.2	10163	
574.39	8761.2	
574.58	8798.1	
574.78	11107	
574.97	10458	
575.16	9129.2	
575.36	9307.3	
575.55	10795	
575.74	11035	
575.93	8474.5	
576.13	9359.9	
576.32	10417	
576.51	10899	
576.71	8806.3	
576.9	10064	
577.09	11077	
577.28	10776	
577.48	9091.6	
577.67	8411	
577.86	10452	
578.05	10662	
578.25	9054.8	
578.44	9002.9	
578.63	10509	
578.83	11532	
579.02	8556.4	
579.21	9706	
579.4	10658	
579.6	10557	
579.79	9064.3	
579.98	10851	
580.17	10935	
580.37	11174	
580.56	8717.5	
580.75	9306	
580.94	11387	
581.14	11272	
581.33	9567.4	
581.52	8803.5	
581.71	10899	
581.91	11434	
582.1	8649.9	
582.29	8999.5	
582.48	10682	
582.68	10553	
582.87	9430.2	
583.06	9084.8	
583.25	10821	
583.45	10409	
583.64	9691	
583.83	10215	
584.02	10582	
584.21	10907	
584.41	9613.2	
584.6	9138.7	
584.79	10656	
584.98	11169	
585.18	8761.9	
585.37	8643.8	
585.56	10322	
585.75	10965	
585.94	8880.7	
586.14	9445.2	
586.33	11303	
586.52	10675	
586.71	9324.4	
586.91	9070.5	
587.1	10122	
587.29	10989	
587.48	8887.5	
587.67	8882.7	
587.87	10778	
588.06	10806	
588.25	9925.1	
588.44	9405	
588.63	10385	
588.83	10939	
589.02	8923	
589.21	8746.2	
589.4	10340	
589.59	10152	
589.78	8110.6	
589.98	8421.9	
590.17	9742.9	
590.36	10373	
590.55	7716.7	
590.74	8433.5	
590.94	11163	
591.13	9970.9	
591.32	8145.5	
591.51	7763.2	
591.7	10213	
591.89	9914.9	
592.09	7811	
592.28	8250.6	
592.47	9302.6	
592.66	10922	
592.85	7879.9	
593.05	8112.7	
593.24	9841.2	
593.43	10457	
593.62	8236.9	
593.81	8483.4	
594	9858.2	
594.19	10019	
594.39	7991.9	
594.58	8009.6	
594.77	10161	
594.96	10568	
595.15	8025.3	
595.34	8518.2	
595.54	10058	
595.73	9368.8	
595.92	7441.6	
596.11	8344.1	
596.3	10502	
596.49	9409.1	
596.68	8305.9	
596.88	8493.6	
597.07	10254	
597.26	9283.4	
597.45	7666.9	
597.64	8795.3	
597.83	9495.7	
598.02	10002	
598.22	7838.9	
598.41	8372.1	
598.6	9873.3	
598.79	9392.7	
598.98	7865.6	
599.17	8649.9	
599.36	9882.8	
599.55	10740	
599.74	9476.6	
599.94	9255.5	
600.13	10340	
600.32	9304.6	
600.51	7637.6	
600.7	7681.2	
600.89	10724	
601.08	10866	
601.27	7544	
601.47	8306.6	
601.66	10133	
601.85	10617	
602.04	8057.4	
602.23	8330.5	
602.42	9419.3	
602.61	10024	
602.8	7970	
602.99	7879.9	
603.18	9622	
603.37	9790	
603.57	8240.3	
603.76	8717.5	
603.95	10398	
604.14	10025	
604.33	7901.7	
604.52	8082.7	
604.71	9849.4	
604.9	9574.3	
605.09	8535.3	
605.28	8446.5	
605.47	10360	
605.66	9951.8	
605.86	8387.8	
606.05	7980.3	
606.24	10324	
606.43	9085.5	
606.62	8055.3	
606.81	8837.7	
607	10159	
607.19	9612.5	
607.38	7611.6	
607.57	7885.4	
607.76	9365.4	
607.95	8959.2	
608.14	8287.4	
608.33	8633.6	
608.52	9417.9	
608.72	10127	
608.91	7623.2	
609.1	7531.7	
609.29	9456.8	
609.48	9066.4	
609.67	8320.2	
609.86	7552.9	
610.05	9163.3	
610.24	9468.4	
610.43	7474.4	
610.62	7143.3	
610.81	10272	
611	10076	
611.19	7502.4	
611.38	8142	
611.57	9686.2	
611.76	10603	
611.95	7320.8	
612.14	7203.4	
612.33	9396.1	
612.52	9049.3	
612.71	7714	
612.9	7244.3	
613.09	8789.9	
613.28	10650	
613.47	7647.8	
613.66	8333.2	
613.85	9526.5	
614.04	9136.7	
614.24	7659.4	
614.43	7027.9	
614.62	9610.4	
614.81	9586.5	
615	8099	
615.19	8051.9	
615.38	9069.1	
615.57	9457.5	
615.76	7970	
615.95	8778.3	
616.14	9757.2	
616.33	9417.9	
616.52	8254.7	
616.71	8385.7	
616.9	9658.9	
617.09	9594.1	
617.28	7762.5	
617.47	8671.1	
617.66	8923	
617.85	8936.7	
618.04	8480	
618.22	7978.9	
618.41	9233.6	
618.6	10037	
618.79	7969.3	
618.98	7737.9	
619.17	10206	
619.36	8865.7	
619.55	7918.8	
619.74	7936.6	
619.93	9703.3	
620.12	9241.8	
620.31	8514.1	
620.5	8507.3	
620.69	10235	
620.88	10555	
621.07	9227.5	
621.26	8294.3	
621.45	10002	
621.64	9916.9	
621.83	8507.3	
622.02	7851.2	
622.21	9987.9	
622.4	9727.2	
622.59	8946.2	
622.78	8799.4	
622.97	9510.8	
623.16	10339	
623.35	8544.8	
623.54	7738.6	
623.72	9650	
623.91	9776.3	
624.1	8678.6	
624.29	7707.2	
624.48	10711	
624.67	10092	
624.86	8624.7	
625.05	7898.3	
625.24	10832	
625.43	9508.7	
625.62	10023	
625.81	8114.7	
626	10318	
626.19	9708.1	
626.38	8667	
626.56	8168.7	
626.75	9521	
626.94	10298	
627.13	8688.2	
627.32	7717.4	
627.51	10264	
627.7	11129	
627.89	7851.9	
628.08	8716.8	
628.27	9594.1	
628.46	9783.8	
628.65	8011	
628.83	7732.4	
629.02	10159	
629.21	9482.1	
629.4	8495	
629.59	8499.1	
629.78	9549.7	
629.97	10289	
630.16	8606.9	
630.35	8127	
630.54	10656	
630.72	10374	
630.91	8119.5	
631.1	8607.6	
631.29	9997.5	
631.48	10107	
631.67	8670.4	
631.86	8224.6	
632.05	9677.3	
632.24	9777.7	
632.42	7909.9	
632.61	8441.7	
632.8	9810.5	
632.99	9467.1	
633.18	8525	
633.37	8760.5	
633.56	9912.2	
633.75	9889.6	
633.93	8403.5	
634.12	8267.6	
634.31	10690	
634.5	10241	
634.69	8274.5	
634.88	8603.5	
635.07	9856.9	
635.25	10276	
635.44	9052.7	
635.63	9187.9	
635.82	9720.3	
636.01	9271.2	
636.2	8837.7	
636.39	8534.6	
636.57	10541	
636.76	10270	
636.95	8031.5	
637.14	9123	
637.33	10146	
637.52	10686	
637.7	7858.7	
637.89	8660.2	
638.08	9791.3	
638.27	10829	
638.46	8711.4	
638.65	9058.8	
638.83	10871	
639.02	9555.8	
639.21	8666.3	
639.4	9140.1	
639.59	9898.5	
639.78	9613.2	
639.96	7985.7	
640.15	8084	
640.34	9809.1	
640.53	9906.7	
640.72	7803.4	
640.91	8039.6	
641.09	9322.4	
641.28	10314	
641.47	7951.6	
641.66	8695	
641.85	9844.6	
642.03	9993.4	
642.22	8506.6	
642.41	7977.5	
642.6	9432.9	
642.79	8880	
642.97	7881.3	
643.16	8583.7	
643.35	9297.8	
643.54	9124.4	
643.73	7841	
643.91	8477.9	
644.1	9037.7	
644.29	9543.5	
644.48	7842.4	
644.67	7834.2	
644.85	9221.3	
645.04	9434.3	
645.23	7491.5	
645.42	7783.6	
645.6	9088.9	
645.79	9927.2	
645.98	7612.3	
646.17	6875	
646.36	8726.4	
646.54	9142.8	
646.73	8148.9	
646.92	7302.4	
647.11	8899.1	
647.29	9783.8	
647.48	7359	
647.67	7103.7	
647.86	9846	
648.05	9873.9	
648.23	7547.4	
648.42	8497.7	
648.61	9325.8	
648.8	9200.8	
648.98	7307.2	
649.17	7458.7	
649.36	8761.2	
649.55	8454	
649.73	7279.8	
649.92	7933.1	
650.11	8736.6	
650.3	8941.4	
650.48	7356.3	
650.67	7284.6	
650.86	9223.4	
651.05	8313.4	
651.23	7337.9	
651.42	7360.4	
651.61	8714.8	
651.79	8799.4	
651.98	7406.1	
652.17	7122.8	
652.36	9091.6	
652.54	8364.6	
652.73	7174	
652.92	7062.8	
653.11	9039.7	
653.29	9176.9	
653.48	6599.2	
653.67	7359.7	
653.85	8800.8	
654.04	9711.5	
654.23	7608.2	
654.42	7275.1	
654.6	8443.1	
654.79	9045.9	
654.98	6745.3	
655.16	7114.6	
655.35	8030.1	
655.54	7936.6	
655.73	6653.2	
655.91	6565.1	
656.1	8712.1	
656.29	7869.7	
656.47	6229.9	
656.66	7534.5	
656.85	8034.9	
657.03	8183	
657.22	6679.8	
657.41	6789	
657.59	8290.2	
657.78	8094.9	
657.97	6521.4	
658.16	7105.1	
658.34	8806.3	
658.53	9130.5	
658.72	7815.7	
658.9	8215.1	
659.09	8469.7	
659.28	8527.7	
659.46	6866.8	
659.65	6907.1	
659.84	8202.8	
660.02	8749.6	
660.21	6933.1	
660.4	6705.7	
660.58	8968.7	
660.77	8507.3	
660.96	7279.2	
661.14	6455.2	
661.33	9372.9	
661.52	9369.5	
661.7	6498.2	
661.89	9321	
662.08	8198	
662.26	7779.6	
662.45	6632.7	
662.64	6806.1	
662.82	8788.5	
663.01	8047.8	
663.2	6838.9	
663.38	7247.8	
663.57	8644.5	
663.75	8513.4	
663.94	7055.9	
664.13	8045.8	
664.31	8179.6	
664.5	8585.1	
664.69	7303.7	
664.87	7677.8	
665.06	7976.8	
665.25	8501.8	
665.43	7771.4	
665.62	7918.1	
665.8	8689.5	
665.99	8241	
666.18	6984.9	
666.36	7088.7	
666.55	8672.5	
666.74	8611	
666.92	6761.7	
667.11	8064.9	
667.29	8284	
667.48	8688.8	
667.67	7656	
667.85	6787.7	
668.04	8187.8	
668.22	8225.3	
668.41	7028.6	
668.6	7200.7	
668.78	8052.6	
668.97	8181	
669.15	7310.6	
669.34	6464.8	
669.53	8090.2	
669.71	8262.2	
669.9	6606.1	
670.08	7138.5	
670.27	8078.6	
670.46	8449.2	
670.64	7312.6	
670.83	7488.7	
671.01	7869.7	
671.2	8425.3	
671.38	6737.1	
671.57	6589	
671.76	8969.4	
671.94	9404.3	
672.13	6587.6	
672.31	7354.9	
672.5	8690.9	
672.69	7996	
672.87	6647	
673.06	6879.8	
673.24	8510.7	
673.43	8142.7	
673.61	7239.6	
673.8	6872.3	
673.98	8590.5	
674.17	8642.4	
674.36	7335.8	
674.54	7256.6	
674.73	8389.8	
674.91	8669.7	
675.1	7062.8	
675.28	6712.6	
675.47	8222.6	
675.65	8711.4	
675.84	6893.5	
676.03	7118.1	
676.21	8180.3	
676.4	7660.8	
676.58	7555	
676.77	7385.7	
676.95	9261.6	
677.14	7974.1	
677.32	6645.7	
677.51	6531	
677.69	8696.4	
677.88	7834.2	
678.06	6587	
678.25	6664.1	
678.44	8317.5	
678.62	8040.3	
678.81	6392.4	
678.99	7187	
679.18	8990.6	
679.36	8611.7	
679.55	6907.8	
679.73	7361.1	
679.92	8533.9	
680.1	8070.4	
680.29	7869	
680.47	6879.8	
680.66	8015.7	
680.84	8683.4	
681.03	6352.8	
681.21	7175.4	
681.4	8052.6	
681.58	7996	
681.77	6728.3	
681.95	6611.5	
682.14	8822	
682.32	9087.5	
682.51	7402	
682.69	6466.1	
682.88	8077.9	
683.06	8439.7	
683.25	7112.6	
683.43	7503.1	
683.62	8198	
683.8	8575.5	
683.99	7635.5	
684.17	7069.6	
684.36	9274.6	
684.54	8200.7	
684.73	6391.7	
684.91	6515.3	
685.1	8484.1	
685.28	7926.3	
685.46	6976.1	
685.65	6993.1	
685.83	8454.7	
686.02	8014.4	
686.2	6420.4	
686.39	6500.3	
686.57	7602.7	
686.76	8853.4	
686.94	6427.2	
687.13	6547.4	
687.31	8168.7	
687.5	7912.7	
687.68	6145.3	
687.86	7135.8	
688.05	9354.4	
688.23	7537.2	
688.42	7140.6	
688.6	6554.9	
688.79	7898.3	
688.97	7972.1	
689.16	6908.5	
689.34	6133.7	
689.52	8578.9	
689.71	8778.3	
689.89	7252.5	
690.08	6717.3	
690.26	8247.2	
690.45	8128.4	
690.63	7303.7	
690.81	6812.9	
691	8090.8	
691.18	7998.7	
691.37	6987.7	
691.55	8667	
691.74	7961.1	
691.92	9609.1	
692.1	7017.7	
692.29	6556.2	
692.47	8084.7	
692.66	7559.7	
692.84	6614.3	
693.02	7034.1	
693.21	7671.7	
693.39	8088.1	
693.58	7160.4	
693.76	6644.3	
693.94	9042.5	
694.13	8951.7	
694.31	6672.3	
694.5	7667.6	
694.68	8032.1	
694.86	8439.7	
695.05	7111.9	
695.23	7462.1	
695.42	8736	
695.6	10505	
695.78	7720.8	
695.97	7011.6	
696.15	8817.2	
696.34	8364.6	
696.52	6720.8	
696.7	7488.7	
696.89	8652	
697.07	8107.2	
697.25	7271	
697.44	8506.6	
697.62	8587.1	
697.81	8858.1	
697.99	7161.1	
698.17	7402.7	
698.36	8032.8	
698.54	8645.8	
698.72	7453.9	
698.91	6512.5	
699.09	8230.8	
699.28	8053.3	
699.46	7124.9	
699.64	6948.8	
699.83	8069.7	
700.01	9026.1	
700.19	7649.2	
700.38	6376.7	
700.56	9028.1	
700.74	8167.3	
700.93	6668.9	
701.11	7410.2	
701.29	8594	
701.48	9525.1	
701.66	6935.8	
701.84	7046.4	
702.03	8323.6	
702.21	8965.3	
702.39	6641.6	
702.58	7117.4	
702.76	8673.8	
702.94	8788.5	
703.13	6659.3	
703.31	8671.8	
703.49	8196.7	
703.68	9345.6	
703.86	6726.2	
704.04	7598.6	
704.23	8550.3	
704.41	8914.1	
704.59	6901	
704.78	7863.5	
704.96	9493.7	
705.14	8880.7	
705.33	6709.1	
705.51	7411.6	
705.69	8441.7	
705.87	9087.5	
706.06	7618.4	
706.24	6775.4	
706.42	8669.7	
706.61	8895	
706.79	7712.7	
706.97	6780.1	
707.16	8310	
707.34	8729.8	
707.52	7585.7	
707.7	6989	
707.89	8291.5	
708.07	8089.5	
708.25	7709.9	
708.44	7677.8	
708.62	8229.4	
708.8	9178.3	
708.98	7794.6	
709.17	6974	
709.35	8597.4	
709.53	8647.2	
709.72	6726.2	
709.9	7092.8	
710.08	8749.6	
710.26	8828.1	
710.45	8054.7	
710.63	7076.4	
710.81	8495.7	
710.99	8529.8	
711.18	7423.2	
711.36	7004.7	
711.54	8333.9	
711.72	8924.4	
711.91	7086	
712.09	6670.2	
712.27	8494.3	
712.45	9223.4	
712.64	7212.9	
712.82	6378.7	
713	7901.7	
713.18	8056.7	
713.37	6468.2	
713.55	7402.7	
713.73	8637.6	
713.91	7592.5	
714.1	6685.3	
714.28	6227.9	
714.46	8273.8	
714.64	7521.5	
714.83	5679	
715.01	6231.3	
715.19	7479.2	
715.37	6913.3	
715.55	5877	
715.74	6066.8	
715.92	8051.9	
716.1	6373.3	
716.28	6909.8	
716.47	6127.5	
716.65	6951.5	
716.83	7056.6	
717.01	5938.4	
717.19	5980.8	
717.38	8644.5	
717.56	6742.6	
717.74	6110.5	
717.92	5390.3	
718.1	7687.4	
718.29	7088.7	
718.47	5188.9	
718.65	5677	
718.83	7733.8	
719.01	7662.8	
719.2	5240.1	
719.38	6111.8	
719.56	7564.5	
719.74	8782.4	
719.92	5853.1	
720.11	6668.2	
720.29	7580.9	
720.47	6886.6	
720.65	5504.9	
720.83	6066.1	
721.02	7093.5	
721.2	6810.9	
721.38	6016.9	
721.56	5380.7	
721.74	6456.6	
721.92	6479.1	
722.11	6371.2	
722.29	6108.4	
722.47	7457.3	
722.65	6806.8	
722.83	5435.3	
723.01	6051.1	
723.2	6855.2	
723.38	7079.8	
723.56	4947.9	
723.74	5867.4	
723.92	6526.2	
724.1	7380.9	
724.29	5270.8	
724.47	6208.8	
724.65	6591	
724.83	6399.9	
725.01	5178.6	
725.19	5840.8	
725.37	6404.7	
725.56	6488.6	
725.74	5090.6	
725.92	5256.5	
726.1	6414.9	
726.28	6696.2	
726.46	5560.2	
726.64	5365.7	
726.83	6669.6	
727.01	6806.8	
727.19	4992.9	
727.37	5698.1	
727.55	6730.3	
727.73	7202	
727.91	4966.3	
728.09	4808.6	
728.28	7205.4	
728.46	7423.2	
728.64	5761.6	
728.82	5636.7	
729	7998.7	
729.18	7406.1	
729.36	5063.3	
729.54	6827.9	
729.72	8229.4	
729.91	6921.5	
730.09	6703	
730.27	5632.6	
730.45	6905.1	
730.63	7268.9	
730.81	6104.3	
730.99	5375.9	
731.17	7793.9	
731.35	6660.7	
731.53	5807.4	
731.71	5515.9	
731.9	7461.4	
732.08	7528.3	
732.26	5713.8	
732.44	5383.4	
732.62	7624.6	
732.8	7213.6	
732.98	5939.1	
733.16	5227.1	
733.34	7215	
733.52	6178.7	
733.7	5545.2	
733.88	5825.1	
734.07	7015.7	
734.25	6828.6	
734.43	5145.2	
734.61	6369.9	
734.79	8030.8	
734.97	6677.7	
735.15	5236	
735.33	5528.2	
735.51	7000	
735.69	6696.2	
735.87	6305	
736.05	5591	
736.23	6857.3	
736.41	6535.8	
736.59	5429.2	
736.77	5636.7	
736.95	7210.2	
737.13	6758.3	
737.32	5164.3	
737.5	5287.9	
737.68	7593.9	
737.86	6535.8	
738.04	4932.2	
738.22	6453.1	
738.4	6346.7	
738.58	6703	
738.76	5466	
738.94	4644.8	
739.12	6492.1	
739.3	6375.3	
739.48	5907.7	
739.66	5738.4	
739.84	6676.4	
740.02	6599.2	
740.2	4610	
740.38	4943.8	
740.56	6951.5	
740.74	5961	
740.92	5496.7	
741.1	5374.6	
741.28	6429.9	
741.46	6300.9	
741.64	5066.7	
741.82	5502.9	
742	6526.2	
742.18	6351.4	
742.36	5168.4	
742.54	4893.3	
742.72	6892.8	
742.9	5823.1	
743.08	5468.8	
743.26	4536.9	
743.44	6968.6	
743.62	6826.6	
743.8	5508.4	
743.98	4755.4	
744.16	6584.2	
744.34	6374	
744.52	5478.3	
744.7	5446.2	
744.88	6749.4	
745.06	6321.4	
745.24	5522	
745.42	5502.9	
745.6	6739.2	
745.78	6554.2	
745.96	4521.2	
746.14	4730.1	
746.32	7348.1	
746.5	6693.4	
746.68	5147.2	
746.86	4743.8	
747.03	7020.4	
747.21	5724.8	
747.39	5130.8	
747.57	4705.5	
747.75	6296.1	
747.93	6680.5	
748.11	4686.4	
748.29	4620.9	
748.47	7614.3	
748.65	6011.5	
748.83	5205.9	
749.01	5096.7	
749.19	6491.4	
749.37	5727.5	
749.55	4900.1	
749.73	5001.1	
749.91	6208.1	
750.09	5967.1	
750.26	5040.1	
750.44	4500.1	
750.62	6178.7	
750.8	6132.3	
750.98	4359.4	
751.16	4676.9	
751.34	6270.2	
751.52	5743.9	
751.7	5309	
751.88	4345.1	
752.06	6569.2	
752.24	6395.8	
752.42	4227	
752.59	4609.3	
752.77	6051.7	
752.95	7131	
753.13	5241.4	
753.31	4668	
753.49	5837.4	
753.67	6154.1	
753.85	4891.9	
754.03	4530.1	
754.21	6405.4	
754.38	6677.7	
754.56	4631.1	
754.74	3830.4	
754.92	5704.3	
755.1	6277.7	
755.28	3854.3	
755.46	3861.1	
755.64	6848.4	
755.82	6838.2	
755.99	4005.8	
756.17	4012.7	
756.35	4777.9	
756.53	5985.5	
756.71	3134.8	
756.89	3835.2	
757.07	5640.1	
757.25	4975.2	
757.42	4302.1	
757.6	5018.9	
757.78	5758.9	
757.96	4995.7	
758.14	4114.4	
758.32	3695.9	
758.5	4631.1	
758.67	5313.8	
758.85	3941.7	
759.03	4007.9	
759.21	5454.4	
759.39	4999.8	
759.57	3613.3	
759.75	4455.7	
759.92	5930.9	
760.1	5490.6	
760.28	4846.2	
760.46	4984.1	
760.64	5216.9	
760.82	5111.7	
760.99	4517.1	
761.17	4025.6	
761.35	5900.2	
761.53	4990.9	
761.71	4170.3	
761.89	4743.8	
762.06	5806	
762.24	5464.7	
762.42	4311.7	
762.6	3992.9	
762.78	5472.2	
762.96	5919.3	
763.13	4569.7	
763.31	4287.8	
763.49	6011.5	
763.67	5399.8	
763.85	4925.4	
764.02	5411.4	
764.2	6317.3	
764.38	5590.3	
764.56	4166.3	
764.74	4851.6	
764.91	6308.4	
765.09	5412.8	
765.27	3910.3	
765.45	3779.9	
765.63	6420.4	
765.8	6256.5	
765.98	3560.1	
766.16	3830.4	
766.34	5091.3	
766.52	4844.8	
766.69	4622.9	
766.87	3650.2	
767.05	5379.3	
767.23	5993	
767.41	3956.7	
767.58	4117.1	
767.76	5855.8	
767.94	5851.7	
768.12	3992.2	
768.29	4489.8	
768.47	5429.8	
768.65	6035.4	
768.83	3629.7	
769	4504.2	
769.18	5109.7	
769.36	5630.5	
769.54	4457.7	
769.72	3624.9	
769.89	5892	
770.07	5981.4	
770.25	3965.6	
770.43	4919.9	
770.6	6499.6	
770.78	6764.4	
770.96	4037.9	
771.14	4580.6	
771.31	5791.7	
771.49	5226.4	
771.67	3435.1	
771.85	3560.7	
772.02	4645.5	
772.2	5231.9	
772.38	4150.5	
772.55	3794.2	
772.73	5531.6	
772.91	5246.9	
773.09	4065.9	
773.26	4144.4	
773.44	5450.3	
773.62	5183.4	
773.8	3653.6	
773.97	3491.8	
774.15	5495.4	
774.33	5186.1	
774.5	3611.3	
774.68	3879.5	
774.86	5581.4	
775.04	5119.9	
775.21	3612.6	
775.39	3620.1	
775.57	5414.1	
775.74	5705	
775.92	3510.9	
776.1	3385.3	
776.27	5331.5	
776.45	6322.1	
776.63	3573.7	
776.81	3220.1	
776.98	5091.9	
777.16	5926.8	
777.34	3784.6	
777.51	3995.6	
777.69	5100.1	
777.87	4923.3	
778.04	3756.7	
778.22	4219.5	
778.4	4911.7	
778.57	5421	
778.75	3156.6	
778.93	3411.9	
779.1	4756.7	
779.28	4609.3	
779.46	3185.3	
779.64	3571.7	
779.81	5595.1	
779.99	6251.8	
780.17	4222.9	
780.34	4270	
780.52	5176.6	
780.69	5240.8	
780.87	3853.6	
781.05	3473.4	
781.22	5169.1	
781.4	5205.9	
781.58	3602.4	
781.75	2938.8	
781.93	5158.8	
782.11	4625	
782.28	4312.3	
782.46	3573	
782.64	4562.2	
782.81	5285.1	
782.99	3667.9	
783.17	3595.6	
783.34	5240.1	
783.52	4616.1	
783.69	3772.4	
783.87	4421.6	
784.05	4659.8	
784.22	4607.9	
784.4	4420.9	
784.58	3814.7	
784.75	5456.5	
784.93	4715.8	
785.1	3564.8	
785.28	4048.2	
785.46	5269.4	
785.63	4655.7	
785.81	3539.6	
785.99	3401.7	
786.16	4862.6	
786.34	5090.6	
786.51	3463.1	
786.69	3867.9	
786.87	4402.5	
787.04	4845.5	
787.22	3366.2	
787.39	4089.8	
787.57	4676.2	
787.75	5573.2	
787.92	4265.2	
788.1	4164.9	
788.27	4675.5	
788.45	4495.3	
788.63	4038.6	
788.8	2969.6	
788.98	4977.9	
789.15	4367	
789.33	3058.3	
789.5	3536.2	
789.68	5379.3	
789.86	5486.5	
790.03	3883.6	
790.21	3461.7	
790.38	5461.9	
790.56	4797	
790.73	3308.2	
790.91	3398.3	
791.09	4633.9	
791.26	5242.8	
791.44	3608.5	
791.61	3102	
791.79	4650.9	
791.96	4693.3	
792.14	3132	
792.32	2850.1	
792.49	4684.4	
792.67	4718.5	
792.84	3267.2	
793.02	3078.1	
793.19	4986.8	
793.37	5648.3	
793.54	2854.9	
793.72	3155.2	
793.89	5639.4	
794.07	4630.5	
794.25	3582.6	
794.42	2927.9	
794.6	5488.6	
794.77	5124.7	
794.95	3862.5	
795.12	3368.2	
795.3	4651.6	
795.47	5097.4	
795.65	3677.5	
795.82	3504.8	
796	4483.7	
796.17	5986.2	
796.35	3407.8	
796.52	4046.1	
796.7	5126.1	
796.87	5173.9	
797.05	3461.7	
797.22	4197.7	
797.4	5175.9	
797.57	5952.8	
797.75	3577.1	
797.92	3333.4	
798.1	5405.3	
798.27	4511	
798.45	2933.4	
798.62	3123.2	
798.8	4913.1	
798.97	5305.6	
799.15	3785.3	
799.32	3568.9	
799.5	4304.1	
799.67	4900.1	
799.85	3852.2	
800.02	2833	
800.2	4603.8	
800.37	4827.7	
800.55	3949.2	
800.72	3341.6	
800.9	5249.6	
801.07	5592.3	
801.25	4437.9	
801.42	3651.5	
801.6	5341.8	
801.77	4974.5	
801.95	3430.3	
802.12	3302	
802.29	5063.9	
802.47	4992.9	
802.64	3663.8	
802.82	2826.2	
802.99	4611.3	
803.17	5354.1	
803.34	3498.6	
803.52	3255.6	
803.69	5967.1	
803.87	4410.6	
804.04	3586.7	
804.21	3594.9	
804.39	5515.2	
804.56	4770.4	
804.74	3113.6	
804.91	3678.8	
805.09	4620.9	
805.26	4716.5	
805.44	3097.9	
805.61	3399.6	
805.78	5117.9	
805.96	5162.2	
806.13	3615.3	
806.31	3928	
806.48	4190.1	
806.66	4646.2	
806.83	3693.2	
807	3552.5	
807.18	4586.8	
807.35	4885.8	
807.53	3558	
807.7	2901.3	
807.87	5556.8	
808.05	4628.4	
808.22	3893.9	
808.4	2909.5	
808.57	4638.6	
808.74	4363.5	
808.92	3264.5	
809.09	4114.4	
809.27	4553.3	
809.44	4942.4	
809.61	2953.9	
809.79	3207.1	
809.96	5642.2	
810.14	5175.2	
810.31	2870.6	
810.48	3479.5	
810.66	4732.9	
810.83	5267.4	
811.01	3312.9	
811.18	3627.6	
811.35	5214.1	
811.53	4149.2	
811.7	3894.6	
811.87	3678.2	
812.05	4670.7	
812.22	4554	
812.39	3234.4	
812.57	3083.6	
812.74	4663.2	
812.92	5936.4	
813.09	3472	
813.26	3736.2	
813.44	5746.6	
813.61	4571.1	
813.78	2906.8	
813.96	3754.6	
814.13	4676.2	
814.3	4416.1	
814.48	4066.6	
814.65	3417.4	
814.82	5558.2	
815	4422.2	
815.17	3532.1	
815.34	4276.2	
815.52	4557.4	
815.69	4522.6	
815.87	3500.7	
816.04	3433.1	
816.21	4610	
816.38	4156.7	
816.56	3431.7	
816.73	3169.6	
816.9	5723.4	
817.08	5203.9	
817.25	3201.7	
817.42	3962.1	
817.6	4261.8	
817.77	4601.8	
817.94	3599	
818.12	3135.4	
818.29	4355.3	
818.46	6533.7	
818.64	3284.9	
818.81	3044	
818.98	4323.9	
819.16	6114.6	
819.33	3784	
819.5	3579.8	
819.67	4881	
819.85	5459.9	
820.02	3493.8	
820.19	3665.9	
820.37	4764.3	
820.54	4536.9	
820.71	3590.8	
820.88	4344.4	
821.06	4817.5	
821.23	4413.4	
821.4	3569.6	
821.58	3527.3	
821.75	5215.5	
821.92	4756.7	
822.09	2942.2	
822.27	3039.2	
822.44	4667.3	
822.61	4531.5	
822.79	2942.9	
822.96	5433.3	
823.13	4973.2	
823.3	4399.7	
823.48	3400.3	
823.65	3019.4	
823.82	5196.4	
823.99	4285	
824.17	4228.4	
824.34	3102.7	
824.51	5935	
824.68	4646.8	
824.86	3229.6	
825.03	3580.5	
825.2	4675.5	
825.37	5459.2	
825.55	3186	
825.72	3482.2	
825.89	5982.8	
826.06	5526.1	
826.24	3443.3	
826.41	3402.4	
826.58	5558.2	
826.75	4880.3	
826.92	2724.5	
827.1	3059	
827.27	7349.5	
827.44	5933.6	
827.61	3239.9	
827.79	3845.4	
827.96	4430.4	
828.13	4625	
828.3	3419.4	
828.47	2969.6	
828.65	4922.6	
828.82	4853.7	
828.99	4286.4	
829.16	3781.2	
829.34	5183.4	
829.51	4999.1	
829.68	3489.1	
829.85	3591.5	
830.02	5467.4	
830.2	5172.5	
830.37	2750.4	
830.54	4238.6	
830.71	5844.2	
830.88	4627.7	
831.05	2819.4	
831.23	3229.6	
831.4	5629.2	
831.57	6128.2	
831.74	3262.4	
831.91	2880.8	
832.09	4886.5	
832.26	5138.4	
832.43	3328.6	
832.6	3756.7	
832.77	4909	
832.94	5552	
833.12	2747	
833.29	3317	
833.46	4967	
833.63	6350.1	
833.8	3599	
833.97	3345.7	
834.15	5204.6	
834.32	5010	
834.49	3511.6	
834.66	3586.7	
834.83	5310.4	
835	4463.2	
835.17	3256.3	
835.35	3235.8	
835.52	5128.1	
835.69	4991.6	
835.86	3476.1	
836.03	2851.5	
836.2	5158.2	
836.37	4825	
836.55	3361.4	
836.72	3195.5	
836.89	4837.3	
837.06	5266	
837.23	3411.9	
837.4	3719.1	
837.57	5831.9	
837.75	6332.3	
837.92	3134.8	
838.09	3289.7	
838.26	4786.1	
838.43	5325.4	
838.6	3437.9	
838.77	3148.4	
838.94	5989.6	
839.11	5795.8	
839.29	3379.1	
839.46	2685.6	
839.63	5138.4	
839.8	4885.8	
839.97	3251.5	
840.14	3219.4	
840.31	4988.9	
840.48	5126.7	
840.65	2791.4	
840.82	3220.8	
841	5118.6	
841.17	5053	
841.34	3032.4	
841.51	3100.6	
841.68	5119.9	
841.85	4902.2	
842.02	3125.9	
842.19	2695.1	
842.36	4917.9	
842.53	4964.3	
842.7	3001.6	
842.87	3659	
843.05	6314.6	
843.22	4859.8	
843.39	2896.5	
843.56	3157.3	
843.73	4715.8	
843.9	5202.5	
844.07	4792.2	
844.24	3958.7	
844.41	7129	
844.58	4487.8	
844.75	2878.8	
844.92	3150.5	
845.09	5124.7	
845.26	5165	
845.43	3007.8	
845.6	3195.5	
845.77	5134.9	
845.94	4901.5	
846.12	3312.2	
846.29	3525.2	
846.46	5336.3	
846.63	5057.8	
846.8	3024.2	
846.97	3551.2	
847.14	5489.2	
847.31	5076.2	
847.48	3280.8	
847.65	3665.9	
847.82	5363.6	
847.99	5306.3	
848.16	3926	
848.33	3646.7	
848.5	4743.1	
848.67	5522.7	
848.84	2998.9	
849.01	3080.8	
849.18	4688.5	
849.35	4418.8	
849.52	3667.2	
849.69	2935.4	
849.86	5324	
850.03	5487.9	
850.2	3002.3	
850.37	3609.9	
850.54	5323.4	
850.71	4818.2	
850.88	3516.4	
851.05	2917	
851.22	5038.7	
851.39	5558.9	
851.56	2846.7	
851.73	3401.7	
851.9	4554	
852.07	5307	
852.24	3359.4	
852.41	2990.7	
852.58	5056.4	
852.75	4615.4	
852.92	3353.2	
853.09	2962.7	
853.26	4794.3	
853.43	5513.8	
853.6	3012.6	
853.77	2585.2	
853.94	5550	
854.11	4555.4	
854.28	4323.3	
854.44	3213.3	
854.61	5913.9	
854.78	5365.7	
854.95	2973.7	
855.12	3690.4	
855.29	4233.2	
855.46	5644.9	
855.63	2992.1	
855.8	4041.3	
855.97	4797	
856.14	5427.8	
856.31	4111	
856.48	3280.8	
856.65	4814.1	
856.82	4511	
856.99	2908.8	
857.16	3247.4	
857.33	6141.2	
857.49	4838	
857.66	3233.7	
857.83	3457	
858	4852.3	
858.17	5025	
858.34	2815.3	
858.51	2994.1	
858.68	5689.3	
858.85	5633.3	
859.02	3448.8	
859.19	3659	
859.36	4573.1	
859.52	4548.5	
859.69	3046.7	
859.86	3487.7	
860.03	4617.5	
860.2	5519.3	
860.37	2725.8	
860.54	3104.7	
860.71	5296	
860.88	5599.8	
861.05	3241.9	
861.21	3763.5	
861.38	5554.1	
861.55	4422.2	
861.72	2800.3	
861.89	3363.4	
862.06	5326.8	
862.23	5732.3	
862.4	2928.6	
862.56	3120.4	
862.73	5180.7	
862.9	4942.4	
863.07	3444.7	
863.24	2731.3	
863.41	4489.1	
863.58	4584.7	
863.75	3080.8	
863.91	3450.1	
864.08	5485.8	
864.25	5240.8	
864.42	3676.8	
864.59	4124.6	
864.76	5835.3	
864.93	4548.5	
865.09	2917	
865.26	3193.5	
865.43	5498.8	
865.6	5808	
865.77	2669.2	
865.94	2994.8	
866.1	5492	
866.27	5307	
866.44	4392.9	
866.61	2818.7	
866.78	4878.3	
866.95	5205.9	
867.11	2904.7	
867.28	2689.7	
867.45	5389.6	
867.62	4536.9	
867.79	3426.3	
867.96	2994.1	
868.12	4533.5	
868.29	5327.4	
868.46	2957.3	
868.63	3919.8	
868.8	5458.5	
868.97	5206.6	
869.13	3136.1	
869.3	3110.2	
869.47	5150	
869.64	5333.6	
869.81	2977.7	
869.97	3010.5	
870.14	5083.1	
870.31	5618.3	
870.48	2884.9	
870.65	3726.6	
870.81	4844.8	
870.98	4870.8	
871.15	3352.5	
871.32	3085.6	
871.48	5170.4	
871.65	5688.6	
871.82	2985.3	
871.99	3302	
872.16	5992.4	
872.32	5529.5	
872.49	3044.6	
872.66	3035.1	
872.83	5309	
872.99	4668	
873.16	3445.4	
873.33	2960	
873.5	4905.6	
873.67	5033.9	
873.83	3151.1	
874	3917.1	
874.17	5118.6	
874.34	5958.2	
874.5	3775.8	
874.67	3700	
874.84	5612.8	
875.01	4449.6	
875.17	4143.7	
875.34	2998.9	
875.51	5061.2	
875.68	6007.4	
875.84	3558.7	
876.01	4231.8	
876.18	5284.4	
876.34	5229.1	
876.51	3001.6	
876.68	2943.6	
876.85	4828.4	
877.01	5533.6	
877.18	4184.7	
877.35	2964.1	
877.52	5057.1	
877.68	4483	
877.85	2997.5	
878.02	2911.5	
878.18	4861.9	
878.35	4747.2	
878.52	2439.1	
878.69	3314.3	
878.85	5355.4	
879.02	5227.8	
879.19	4184.7	
879.35	3239.2	
879.52	5285.1	
879.69	5372.5	
879.86	2665.1	
880.02	3300	
880.19	4870.1	
880.36	5936.4	
880.52	3441.3	
880.69	3528.7	
880.86	5320.6	
881.02	5357.5	
881.19	3222.8	
881.36	3202.3	
881.52	5253.7	
881.69	4648.9	
881.86	3181.9	
882.02	3095.8	
882.19	5464	
882.36	6333	
882.52	3044.6	
882.69	4116.4	
882.86	5081.7	
883.02	4992.9	
883.19	3614.7	
883.36	3395.5	
883.52	5358.9	
883.69	5978.7	
883.86	3037.8	
884.02	2803.7	
884.19	5270.1	
884.36	5027.8	
884.52	3331.4	
884.69	3202.3	
884.86	4765.6	
885.02	5777.3	
885.19	3403	
885.36	3366.9	
885.52	4951.3	
885.69	5073.5	
885.86	4240.7	
886.02	3786.7	
886.19	5311.7	
886.35	4808.6	
886.52	3285.6	
886.69	4096.6	
886.85	4544.4	
887.02	5614.8	
887.19	5614.8	
887.35	5614.8	
887.52	5614.8	
887.68	5614.8	
887.85	5614.8	
888.02	5614.8	
888.18	5614.8	
888.35	5614.8	
888.51	5614.8	
888.68	5614.8	
888.85	5614.8	
889.01	5614.8	
889.18	5614.8	
889.35	5614.8	
889.51	5614.8	
889.68	5614.8	
889.84	5614.8	
890.01	5614.8	
890.17	5614.8	
890.34	5614.8	
890.51	5614.8	
890.67	5614.8	
890.84	5614.8	
891	5614.8	
891.17	5614.8	
891.34	5614.8	
891.5	5614.8	
891.67	5614.8	
891.83	5614.8	
892	5614.8	
892.16	5614.8	
892.33	5614.8	
892.5	5614.8	
892.66	5614.8	
892.83	5614.8	
892.99	5614.8	
893.16	5614.8	
893.32	5614.8	
893.49	5614.8	
893.65	5614.8	
893.82	5614.8	
893.99	5614.8	
894.15	5614.8	
894.32	5614.8	
894.48	5614.8	
894.65	5614.8	
894.81	5614.8	
894.98	5614.8	
895.14	5614.8	
895.31	5614.8	
895.47	5614.8	
895.64	5614.8	
895.81	5614.8	
895.97	5614.8	
896.14	5614.8	
896.3	5614.8	
896.47	5614.8	
896.63	5614.8	
896.8	5614.8	
896.96	5614.8	
897.13	5614.8	
897.29	5614.8	
897.46	5614.8	
897.62	5614.8	
897.79	5614.8	
897.95	5614.8	
898.12	5614.8	
898.28	5614.8	
898.45	5614.8	
898.61	5614.8	
898.78	5614.8	
898.94	5614.8	
899.11	5614.8	
899.27	5614.8	
899.44	5614.8	
899.6	5614.8	
899.77	5614.8	
899.93	5614.8	
900.1	5614.8	
900.26	5614.8	
900.43	5614.8	
900.59	5614.8	
900.76	5614.8	
900.92	5614.8	
901.09	5614.8	
901.25	5614.8	
901.42	5614.8	
901.58	5614.8	
901.75	5614.8	
901.91	5614.8	
902.07	5614.8	
902.24	5614.8	
902.4	5614.8	
902.57	5614.8	
902.73	5614.8	
902.9	5614.8	
903.06	5614.8	
903.23	5614.8	
903.39	5614.8	
903.56	5614.8	
903.72	5614.8	
903.88	5614.8	
904.05	5614.8	
904.21	5614.8	
904.38	5614.8	
904.54	5614.8	
904.71	5614.8	
904.87	5614.8	
905.03	5614.8	
905.2	5614.8	
905.36	5614.8	
905.53	5614.8	
905.69	5614.8	
905.86	5614.8	
906.02	5614.8	
906.18	5614.8	
906.35	5614.8	
906.51	5614.8	
906.68	5614.8	
906.84	5614.8	
907.01	5614.8	
907.17	5614.8	
907.33	5614.8	
907.5	5614.8	
907.66	5614.8	
907.83	5614.8	
907.99	5614.8	
908.15	5614.8	
908.32	5614.8	
908.48	5614.8	
908.65	5614.8	
908.81	5614.8	
908.97	5614.8	
909.14	5614.8	
909.3	5614.8	
909.47	5614.8	
909.63	5614.8	
909.79	5614.8	
909.96	5614.8	
910.12	5614.8	
910.28	5614.8	
910.45	5614.8	
910.61	5614.8	
910.78	5614.8	
910.94	5614.8	
911.1	5614.8	
911.27	5614.8	
911.43	5614.8	
911.59	5614.8	
911.76	5614.8	
911.92	5614.8	
912.08	5614.8	
912.25	5614.8	
912.41	5614.8	
912.57	5614.8	
912.74	5614.8	
912.9	5614.8	
913.07	5614.8	
913.23	5614.8	
913.39	5614.8	
913.56	5614.8	
913.72	5614.8	
913.88	5614.8	
914.05	5614.8	
914.21	5614.8	
914.37	5614.8	
914.54	5614.8	
914.7	5614.8	
914.86	5614.8	
915.03	5614.8	
915.19	5614.8	
