Wavelength	Intensities	
nm	a.u.	
179.22	1936.2	
179.44	1928.8	
179.65	1943.5	
179.86	1914.2	
180.08	1953.1	
180.29	4999.8	
180.51	3623.5	
180.72	5705	
180.94	6697.5	
181.15	3298.6	
181.37	3239.9	
181.58	5613.5	
181.79	5894.1	
182.01	3432.4	
182.22	3704.8	
182.44	5880.4	
182.65	4917.2	
182.87	4636.6	
183.08	4056.3	
183.29	6143.2	
183.51	5042.8	
183.72	3803.1	
183.94	5512.4	
184.15	5457.8	
184.37	5533.6	
184.58	3247.4	
184.79	4594.3	
185.01	5003.2	
185.22	5945.3	
185.44	4801.1	
185.65	4017.4	
185.86	5382.1	
186.08	4992.9	
186.29	3185.3	
186.51	3420.1	
186.72	5128.8	
186.94	6094.1	
187.15	4007.9	
187.36	4127.3	
187.58	8013	
187.79	5578.7	
188.01	4309.6	
188.22	6713.2	
188.43	6781.5	
188.65	5870.8	
188.86	3448.8	
189.08	4102.1	
189.29	5283.8	
189.5	5331.5	
189.72	3816	
189.93	3953.9	
190.15	6068.8	
190.36	7323.5	
190.57	4275.5	
190.79	4116.4	
191	6184.9	
191.22	6066.8	
191.43	4207.2	
191.64	3383.9	
191.86	6346	
192.07	6182.1	
192.29	3659	
192.5	3806.5	
192.71	6093.4	
192.93	5188.2	
193.14	3801	
193.35	3932.8	
193.57	5276.9	
193.78	6106.4	
194	3074	
194.21	3733.4	
194.42	5015.5	
194.64	5516.5	
194.85	4133.5	
195.07	4885.1	
195.28	5536.3	
195.49	4759.5	
195.71	5169.1	
195.92	3565.5	
196.13	5715.9	
196.35	5842.9	
196.56	5468.1	
196.78	4181.3	
196.99	7236.8	
197.2	6713.2	
197.42	4675.5	
197.63	4179.9	
197.84	4901.5	
198.06	5696.1	
198.27	3743.7	
198.48	5193	
198.7	5252.4	
198.91	5356.1	
199.13	4084.3	
199.34	4198.3	
199.55	5951.4	
199.77	4764.3	
199.98	3657	
200.19	4228.4	
200.41	5452.4	
200.62	5136.3	
200.83	4373.1	
201.05	4691.2	
201.26	5423.7	
201.47	5143.1	
201.69	3682.9	
201.9	3563.5	
202.11	5500.8	
202.33	6559.6	
202.54	3958	
202.76	4395.6	
202.97	5659.2	
203.18	5578	
203.4	4295.3	
203.61	4181.3	
203.82	5568.4	
204.04	5176.6	
204.25	4308.2	
204.46	4118.5	
204.68	5526.8	
204.89	5747.3	
205.1	4032.5	
205.32	3538.9	
205.53	5935.7	
205.74	6136.4	
205.96	3007.8	
206.17	4278.2	
206.38	5917.9	
206.6	6052.4	
206.81	4848.2	
207.02	3871.3	
207.24	5785.5	
207.45	6249.7	
207.66	3962.1	
207.88	3369.6	
208.09	5650.3	
208.3	5550	
208.52	3609.2	
208.73	4036.5	
208.94	5540.4	
209.15	6296.8	
209.37	3995.6	
209.58	4181.3	
209.79	6096.8	
210.01	5304.2	
210.22	3140.9	
210.43	3302	
210.65	5550.7	
210.86	5967.1	
211.07	3973.1	
211.29	3661.8	
211.5	5851.7	
211.71	5433.9	
211.93	3596.2	
212.14	3597.6	
212.35	5367.7	
212.56	5708.4	
212.78	4165.6	
212.99	3457	
213.2	6466.8	
213.42	5210.7	
213.63	3771	
213.84	4012.7	
214.06	4863.9	
214.27	4922.6	
214.48	3964.2	
214.69	4207.9	
214.91	6239.5	
215.12	6289.3	
215.33	4333.5	
215.55	4807.3	
215.76	6819.7	
215.97	5859.9	
216.18	4078.2	
216.4	4042	
216.61	5186.1	
216.82	6016.2	
217.04	3614.7	
217.25	3875.4	
217.46	6204.7	
217.67	5949.3	
217.89	3287.7	
218.1	3367.5	
218.31	5583.4	
218.53	5689.3	
218.74	3807.9	
218.95	3708.9	
219.16	5474.9	
219.38	6507.1	
219.59	3740.3	
219.8	4448.2	
220.01	7193.8	
220.23	5552	
220.44	4863.9	
220.65	3622.2	
220.87	5581.4	
221.08	6097.5	
221.29	3376.4	
221.5	4564.9	
221.72	7606.2	
221.93	5213.4	
222.14	4257	
222.35	4973.8	
222.57	5531.6	
222.78	5911.8	
222.99	3993.5	
223.2	4298.7	
223.42	5856.5	
223.63	6023.8	
223.84	3028.9	
224.05	3005.7	
224.27	7075	
224.48	6407.4	
224.69	4933.6	
224.9	4208.6	
225.12	5726.8	
225.33	5465.3	
225.54	3330	
225.75	3754.6	
225.97	5063.3	
226.18	5339.7	
226.39	4021.5	
226.6	3737.5	
226.82	5199.8	
227.03	5143.8	
227.24	4179.9	
227.45	3463.1	
227.67	5902.2	
227.88	6483.9	
228.09	4661.9	
228.3	4673.5	
228.52	5944.6	
228.73	5446.2	
228.94	3902.7	
229.15	3427.6	
229.36	5356.8	
229.58	5323.4	
229.79	3969	
230	4605.2	
230.21	6596.5	
230.43	5591.6	
230.64	4190.1	
230.85	4362.2	
231.06	5897.5	
231.28	5933	
231.49	3461.1	
231.7	4136.2	
231.91	5825.1	
232.12	5536.3	
232.34	3510.2	
232.55	4042	
232.76	6177.4	
232.97	5668.8	
233.18	3662.5	
233.4	4139.6	
233.61	5708.4	
233.82	5354.8	
234.03	3850.2	
234.25	3761.4	
234.46	7661.5	
234.67	5597.1	
234.88	4309.6	
235.09	3697.3	
235.31	5900.9	
235.52	5388.9	
235.73	4130.1	
235.94	3470.6	
236.15	5229.1	
236.37	6795.2	
236.58	3659.7	
236.79	4045.4	
237	5882.4	
237.21	5037.3	
237.43	4231.1	
237.64	3354.6	
237.85	10036	
238.06	5074.2	
238.27	4410	
238.48	3476.8	
238.7	5876.3	
238.91	5360.9	
239.12	4024.3	
239.33	4050.9	
239.54	5119.2	
239.76	5397.8	
239.97	3956.7	
240.18	3997	
240.39	6992.4	
240.6	5784.1	
240.82	4105.5	
241.03	3418.1	
241.24	5509.7	
241.45	6408.1	
241.66	3586.7	
241.87	4334.2	
242.09	6316.6	
242.3	6614.9	
242.51	4343.1	
242.72	3999	
242.93	5966.4	
243.14	5427.1	
243.36	4622.9	
243.57	5053.7	
243.78	6429.9	
243.99	5907	
244.2	4065.2	
244.41	3633.1	
244.63	5008	
244.84	5877	
245.05	4330.8	
245.26	4012.7	
245.47	5758.9	
245.68	6061.3	
245.9	5342.5	
246.11	4189.5	
246.32	5318.6	
246.53	5780.7	
246.74	6495.5	
246.95	3376.4	
247.16	4973.2	
247.38	5479.7	
247.59	3301.3	
247.8	4038.6	
248.01	5175.2	
248.22	5457.2	
248.43	3656.3	
248.64	3930.1	
248.86	4880.3	
249.07	5284.4	
249.28	3505.4	
249.49	4148.5	
249.7	6089.3	
249.91	6263.4	
250.12	3329.3	
250.34	3373.7	
250.55	5644.9	
250.76	5510.4	
250.97	4121.9	
251.18	4195.6	
251.39	6255.2	
251.6	5732.9	
251.81	4293.9	
252.03	4179.9	
252.24	5217.5	
252.45	6066.1	
252.66	3506.1	
252.87	4435.9	
253.08	5583.4	
253.29	7377.5	
253.5	3490.4	
253.72	4915.8	
253.93	5343.2	
254.14	6593.8	
254.35	3824.2	
254.56	3859.7	
254.77	5829.9	
254.98	5095.3	
255.19	3766.2	
255.41	4896	
255.62	5628.5	
255.83	6152.1	
256.04	4292.5	
256.25	4225.6	
256.46	6840.2	
256.67	5161.6	
256.88	4126	
257.09	4614.8	
257.31	5183.4	
257.52	5244.8	
257.73	5210	
257.94	3779.9	
258.15	5369.8	
258.36	5542.5	
258.57	4814.8	
258.78	3059.7	
258.99	6016.9	
259.2	5335.6	
259.41	3865.2	
259.63	3962.1	
259.84	6404	
260.05	6879.8	
260.26	5063.3	
260.47	3706.8	
260.68	6155.5	
260.89	5431.2	
261.1	4588.8	
261.31	3599	
261.52	6180.1	
261.73	6482.5	
261.95	4970.4	
262.16	4300.1	
262.37	6210.8	
262.58	6343.2	
262.79	4951.3	
263	3928	
263.21	5544.5	
263.42	5030.5	
263.63	3941.7	
263.84	3875.4	
264.05	6163.7	
264.26	6505	
264.47	4819.6	
264.69	4332.8	
264.9	6188.3	
265.11	5797.1	
265.32	3717.7	
265.53	3814	
265.74	5611.4	
265.95	4898.1	
266.16	4111	
266.37	4582.7	
266.58	5658.5	
266.79	5319.3	
267	3778.5	
267.21	3493.2	
267.42	5027.8	
267.63	5515.9	
267.84	3971	
268.06	3429	
268.27	6016.2	
268.48	6311.2	
268.69	3893.9	
268.9	4659.1	
269.11	6283.2	
269.32	4997	
269.53	3996.3	
269.74	3728.7	
269.95	5879	
270.16	4862.6	
270.37	4044.7	
270.58	4678.2	
270.79	5343.8	
271	6100.2	
271.21	4326	
271.42	4050.9	
271.63	5689.3	
271.84	5167	
272.05	3186.6	
272.26	3613.3	
272.47	5535.7	
272.68	5735	
272.89	3824.2	
273.11	4453	
273.32	5362.3	
273.53	6541.2	
273.74	4377.9	
273.95	4289.8	
274.16	6153.5	
274.37	5620.3	
274.58	4408.6	
274.79	3493.2	
275	5652.4	
275.21	6272.9	
275.42	5235.3	
275.63	4591.5	
275.84	5774.6	
276.05	7276.4	
276.26	4157.4	
276.47	4014	
276.68	5383.4	
276.89	6545.3	
277.1	4515.1	
277.31	3579.2	
277.52	5808	
277.73	5916.6	
277.94	3484.3	
278.15	3932.1	
278.36	5761.6	
278.57	5153.4	
278.78	3855.6	
278.99	4367	
279.2	5111.7	
279.41	5093.3	
279.62	5104.9	
279.83	3537.5	
280.04	6743.3	
280.25	5010.7	
280.46	5044.8	
280.67	4026.3	
280.88	5124.7	
281.09	6227.9	
281.3	4237.2	
281.51	5369.8	
281.72	5268.7	
281.93	6072.9	
282.14	3726.6	
282.35	4050.9	
282.56	6064	
282.77	6039.5	
282.98	3877.5	
283.19	4788.8	
283.4	7511.3	
283.61	5452.4	
283.82	3600.3	
284.03	5016.2	
284.24	5605.3	
284.45	6220.4	
284.66	4990.9	
284.87	4851	
285.08	6150.1	
285.29	6264.7	
285.5	3340.2	
285.71	3919.1	
285.92	6184.2	
286.12	6870.3	
286.33	4974.5	
286.54	3906.8	
286.75	6064	
286.96	5369.1	
287.17	3566.2	
287.38	4883	
287.59	5111	
287.8	5010.7	
288.01	3978.5	
288.22	4605.9	
288.43	5908.4	
288.64	5096	
288.85	4702.1	
289.06	4452.3	
289.27	5988.9	
289.48	6520.7	
289.69	5010	
289.9	4473.4	
290.11	6280.4	
290.32	5216.9	
290.53	4758.1	
290.74	4381.3	
290.94	5989.6	
291.15	5976	
291.36	3801	
291.57	4522.6	
291.78	5252.4	
291.99	4962.2	
292.2	3572.3	
292.41	4347.2	
292.62	6100.9	
292.83	5934.3	
293.04	5403.9	
293.25	3654.9	
293.46	5344.5	
293.67	6135.7	
293.88	3776.5	
294.09	3599.6	
294.29	5046.2	
294.5	5665.4	
294.71	4007.2	
294.92	3867.2	
295.13	5307	
295.34	6723.5	
295.55	3355.3	
295.76	3440.6	
295.97	5926.1	
296.18	6754.2	
296.39	3571.7	
296.6	3816.7	
296.81	5656.5	
297.01	6028.5	
297.22	3928.7	
297.43	3762.8	
297.64	5091.3	
297.85	5177.3	
298.06	3103.4	
298.27	3424.2	
298.48	5614.8	
298.69	5182.7	
298.9	4044.1	
299.11	3704.1	
299.31	4983.4	
299.52	5019.6	
299.73	4349.9	
299.94	4259.8	
300.15	5528.2	
300.36	5111	
300.57	4310.3	
300.78	4289.1	
300.99	5403.9	
301.2	5627.8	
301.4	3654.9	
301.61	4113.7	
301.82	5916.6	
302.03	5946.6	
302.24	4566.3	
302.45	3601.7	
302.66	5883.1	
302.87	6296.1	
303.08	3760.1	
303.29	5113.8	
303.49	5293.3	
303.7	5568.4	
303.91	3304.1	
304.12	4834.6	
304.33	5042.8	
304.54	5726.1	
304.75	3852.2	
304.96	3596.9	
305.16	5872.2	
305.37	6682.5	
305.58	3263.8	
305.79	3386	
306	5896.1	
306.21	4977.2	
306.42	3642	
306.63	5829.9	
306.83	5366.4	
307.04	6195.8	
307.25	4134.2	
307.46	4098.7	
307.67	4735.6	
307.88	6044.9	
308.09	3674.7	
308.29	3824.2	
308.5	5616.2	
308.71	6099.5	
308.92	4073.4	
309.13	3592.8	
309.34	5358.2	
309.55	5474.9	
309.75	4659.8	
309.96	4343.1	
310.17	5997.1	
310.38	5192.3	
310.59	4567.7	
310.8	3489.1	
311.01	5322.7	
311.21	5360.2	
311.42	3576.4	
311.63	3728.7	
311.84	5287.9	
312.05	5707	
312.26	4199	
312.46	4590.9	
312.67	5332.9	
312.88	5100.1	
313.09	3716.4	
313.3	3572.3	
313.51	6375.3	
313.71	6777.4	
313.92	3657.7	
314.13	3784	
314.34	5741.8	
314.55	5494	
314.76	4697.4	
314.96	4090.5	
315.17	5583.4	
315.38	5984.8	
315.59	3644.7	
315.8	3479.5	
316.01	6492.1	
316.21	6470.2	
316.42	3491.8	
316.63	4018.8	
316.84	5339.1	
317.05	6255.9	
317.26	4344.4	
317.46	3837.9	
317.67	5490.6	
317.88	5935	
318.09	4706.2	
318.3	3383.2	
318.5	5213.4	
318.71	5880.4	
318.92	5958.9	
319.13	4221.5	
319.34	6083.8	
319.54	6224.5	
319.75	3438.5	
319.96	3260.4	
320.17	5949.3	
320.38	6125.5	
320.58	3325.2	
320.79	4009.9	
321	6141.9	
321.21	6208.8	
321.42	4057.7	
321.62	3299.3	
321.83	5068.7	
322.04	5543.2	
322.25	3850.2	
322.46	3655.6	
322.66	5654.4	
322.87	5832.6	
323.08	4477.5	
323.29	3586	
323.5	6657.3	
323.7	5081	
323.91	5027.1	
324.12	4469.4	
324.33	5578.7	
324.53	5853.8	
324.74	4257	
324.95	4486.4	
325.16	4937	
325.37	5404.6	
325.57	3668.6	
325.78	3660.4	
325.99	5612.8	
326.2	5010.7	
326.4	5200.5	
326.61	3345.7	
326.82	5535	
327.03	5631.9	
327.24	5195.7	
327.44	5023.7	
327.65	5809.4	
327.86	4668	
328.07	4239.3	
328.27	3532.1	
328.48	6232.7	
328.69	5121.3	
328.9	5347.2	
329.1	3882.3	
329.31	5389.6	
329.52	6446.3	
329.73	3601	
329.93	4102.1	
330.14	5524.1	
330.35	5791	
330.56	6028.5	
330.76	4521.2	
330.97	5337.7	
331.18	5758.2	
331.39	4084.3	
331.59	3272.7	
331.8	6162.3	
332.01	6281.1	
332.22	3771.7	
332.42	4358.8	
332.63	5694	
332.84	5195.7	
333.05	4110.3	
333.25	3717.1	
333.46	5392.3	
333.67	5567.7	
333.88	3801.7	
334.08	4231.8	
334.29	7460.8	
334.5	6247.7	
334.7	3522.5	
334.91	5298.1	
335.12	5119.9	
335.33	5955.5	
335.53	4071.4	
335.74	6124.1	
335.95	5276.9	
336.16	5195.7	
336.36	4155.3	
336.57	4670.7	
336.78	5010	
336.98	6149.4	
337.19	5023	
337.4	3984.7	
337.61	6726.2	
337.81	5075.5	
338.02	3736.9	
338.23	4849.6	
338.43	6343.9	
338.64	5135.6	
338.85	3614	
339.05	4889.2	
339.26	6474.3	
339.47	4982	
339.68	3714.3	
339.88	5476.3	
340.09	5855.8	
340.3	6079.7	
340.5	4276.8	
340.71	3271.3	
340.92	4980.7	
341.13	6303	
341.33	3583.9	
341.54	4318.5	
341.75	5691.3	
341.95	5402.5	
342.16	4108.9	
342.37	4465.3	
342.57	5141.1	
342.78	5558.2	
342.99	4633.9	
343.19	3291.1	
343.4	5943.9	
343.61	5822.4	
343.81	3960.8	
344.02	3570.3	
344.23	6020.3	
344.43	6423.1	
344.64	4560.1	
344.85	4461.2	
345.06	5906.3	
345.26	6194.4	
345.47	4234.5	
345.68	4990.2	
345.88	4891.2	
346.09	6041.5	
346.3	4355.3	
346.5	3231	
346.71	5551.4	
346.92	5267.4	
347.12	3322.5	
347.33	4221.5	
347.54	6057.9	
347.74	6600.6	
347.95	4278.9	
348.16	3104	
348.36	5410.7	
348.57	5186.1	
348.78	4227.7	
348.98	4521.2	
349.19	5442.1	
349.39	5005.9	
349.6	3349.1	
349.81	3734.1	
350.01	5867.4	
350.22	5270.8	
350.43	4016.1	
350.63	4954	
350.84	5627.1	
351.05	5352.7	
351.25	3783.3	
351.46	3321.8	
351.67	6182.8	
351.87	5233.9	
352.08	3935.5	
352.29	4519.2	
352.49	6061.3	
352.7	5779.4	
352.9	3618.8	
353.11	4517.1	
353.32	6771.3	
353.52	5382.1	
353.73	3528.7	
353.94	4607.9	
354.14	5886.5	
354.35	5798.5	
354.55	3650.8	
354.76	4108.2	
354.97	5878.4	
355.17	5682.4	
355.38	3482.2	
355.59	4923.3	
355.79	5300.8	
356	5775.3	
356.2	4122.6	
356.41	3565.5	
356.62	5049.6	
356.82	5601.2	
357.03	4425	
357.24	3910.3	
357.44	5336.3	
357.65	5485.1	
357.85	5374.6	
358.06	4241.3	
358.27	5088.5	
358.47	5334.3	
358.68	3502	
358.88	4476.9	
359.09	5945.9	
359.3	6440.9	
359.5	5214.8	
359.71	4655.7	
359.91	6973.3	
360.12	6262.7	
360.33	4525.3	
360.53	5011.4	
360.74	5393.7	
360.94	5503.6	
361.15	4765.6	
361.36	3945.1	
361.56	6353.5	
361.77	5687.9	
361.97	5353.4	
362.18	4217.5	
362.38	6384.2	
362.59	5322.7	
362.8	3889.1	
363	3717.1	
363.21	5227.8	
363.41	5909.1	
363.62	4548.5	
363.83	5675.6	
364.03	6020.3	
364.24	7120.1	
364.44	5748	
364.65	5629.9	
364.85	5799.2	
365.06	5357.5	
365.27	4227.7	
365.47	4207.9	
365.68	6860.7	
365.88	5814.2	
366.09	4627.7	
366.29	4337.6	
366.5	6155.5	
366.71	6589	
366.91	5778.7	
367.12	4872.1	
367.32	7204.1	
367.53	6472.9	
367.73	4824.3	
367.94	5881.8	
368.14	6430.6	
368.35	7441	
368.56	4923.3	
368.76	4165.6	
368.97	6581.5	
369.17	8324.3	
369.38	4268.6	
369.58	4595	
369.79	5550.7	
369.99	6941.9	
370.2	5679	
370.4	4730.8	
370.61	6353.5	
370.82	7484.6	
371.02	4619.5	
371.23	3877.5	
371.43	5416.2	
371.64	6905.8	
371.84	4709	
372.05	6040.8	
372.25	8382.3	
372.46	6733	
372.66	4866	
372.87	4771.1	
373.07	6811.5	
373.28	8480	
373.48	5956.2	
373.69	5638.1	
373.9	6335.7	
374.1	6361	
374.31	5942.5	
374.51	5440.1	
374.72	7258	
374.92	6074.3	
375.13	6196.5	
375.33	5305.6	
375.54	6974.7	
375.74	6266.8	
375.95	5472.2	
376.15	6791.1	
376.36	6894.8	
376.56	6814.3	
376.77	5606	
376.97	6098.2	
377.18	8221.2	
377.38	7228	
377.59	6649.8	
377.79	5224.4	
378	7050.5	
378.2	7660.1	
378.41	5356.8	
378.61	5240.1	
378.82	7592.5	
379.02	6693.4	
379.23	5591.6	
379.43	6753.5	
379.64	7602.7	
379.84	7406.1	
380.05	5328.8	
380.25	5252.4	
380.46	7354.3	
380.66	6888.7	
380.87	6695.5	
381.07	7076.4	
381.28	8040.3	
381.48	7402.7	
381.69	5381.4	
381.89	5410.7	
382.1	6191	
382.3	7574.8	
382.51	6596.5	
382.71	7475.1	
382.91	7350.8	
383.12	7927	
383.32	5701.5	
383.53	5900.9	
383.73	7120.8	
383.94	6914.6	
384.14	5812.8	
384.35	4843.4	
384.55	6756.2	
384.76	7410.9	
384.96	5599.1	
385.17	5956.9	
385.37	7281.9	
385.58	6453.8	
385.78	5946.6	
385.98	4721.9	
386.19	6647	
386.39	7123.5	
386.6	5404.6	
386.8	5653.8	
387.01	7271	
387.21	7304.4	
387.42	6096.1	
387.62	6800.6	
387.83	6593.1	
388.03	7288.7	
388.23	5798.5	
388.44	6705	
388.64	6342.6	
388.85	6488.6	
389.05	6298.2	
389.26	7029.3	
389.46	8587.1	
389.67	7991.9	
389.87	6285.9	
390.07	6391.7	
390.28	7217	
390.48	6700.3	
390.69	5462.6	
390.89	5810.1	
391.1	6933.7	
391.3	8027.4	
391.5	7103	
391.71	7731.1	
391.91	7626.6	
392.12	8788.5	
392.32	7168.6	
392.53	6431.3	
392.73	7073	
392.93	7266.9	
393.14	5978	
393.34	6812.9	
393.55	7728.4	
393.75	7178.1	
393.95	5888.6	
394.16	5827.2	
394.36	6862.1	
394.57	7574.1	
394.77	5390.3	
394.98	5862.7	
395.18	6961.7	
395.38	7038.9	
395.59	7038.9	
395.79	5857.2	
396	7148.1	
396.2	7778.2	
396.4	6946	
396.61	6801.3	
396.81	8142	
397.02	7372.7	
397.22	7333.1	
397.42	7380.9	
397.63	8164.6	
397.83	7412.3	
398.04	6000.5	
398.24	6756.9	
398.44	7920.9	
398.65	7043.6	
398.85	5968.5	
399.05	6179.4	
399.26	7435.5	
399.46	9341.5	
399.67	6561	
399.87	6288.6	
400.07	7927.7	
400.28	8399.4	
400.48	6485.2	
400.69	7734.5	
400.89	8667.7	
401.09	9172.2	
401.3	6547.4	
401.5	7765.2	
401.7	9588.6	
401.91	9805.7	
402.11	6962.4	
402.32	7046.4	
402.52	8776.9	
402.72	8621.3	
402.93	7325.6	
403.13	5868.1	
403.33	9400.2	
403.54	7729	
403.74	6764.4	
403.94	7534.5	
404.15	7787.1	
404.35	9171.5	
404.56	6416.3	
404.76	8333.9	
404.96	8357.1	
405.17	8170.7	
405.37	8143.4	
405.57	7131.7	
405.78	8771.5	
405.98	7980.3	
406.18	6762.4	
406.39	7746.1	
406.59	8630.8	
406.79	8218.5	
407	6517.3	
407.2	6500.9	
407.4	8628.8	
407.61	8899.1	
407.81	6673	
408.01	9031.5	
408.22	7774.8	
408.42	10077	
408.62	8206.9	
408.83	7754.3	
409.03	8872.5	
409.23	8726.4	
409.44	8110	
409.64	8558.5	
409.84	10257	
410.05	10210	
410.25	8622.6	
410.45	8355.7	
410.66	9973.6	
410.86	12558	
411.06	9131.9	
411.27	8849.3	
411.47	12506	
411.67	10305	
411.88	9146.9	
412.08	9729.9	
412.28	11059	
412.49	11764	
412.69	9326.4	
412.89	9424.8	
413.09	11526	
413.3	11425	
413.5	9671.2	
413.7	9179	
413.91	10664	
414.11	11746	
414.31	9469.8	
414.52	10052	
414.72	11337	
414.92	11402	
415.12	9448	
415.33	10067	
415.53	11781	
415.73	12050	
415.94	10467	
416.14	9880.8	
416.34	10743	
416.55	10484	
416.75	11177	
416.95	10748	
417.15	11958	
417.36	12484	
417.56	11502	
417.76	10572	
417.97	12413	
418.17	12136	
418.37	10107	
418.57	10342	
418.78	11743	
418.98	11458	
419.18	11243	
419.38	10991	
419.59	11528	
419.79	10999	
419.99	10003	
420.2	10371	
420.4	12024	
420.6	12069	
420.8	9862.3	
421.01	9727.9	
421.21	11961	
421.41	12088	
421.61	10292	
421.82	10005	
422.02	11363	
422.22	12156	
422.42	10914	
422.63	10241	
422.83	11475	
423.03	12721	
423.23	10273	
423.44	9234.3	
423.64	11462	
423.84	10914	
424.04	9716.9	
424.25	9320.3	
424.45	12247	
424.65	12119	
424.85	9023.4	
425.06	9775.6	
425.26	12175	
425.46	10629	
425.66	10144	
425.87	9808.4	
426.07	11809	
426.27	11594	
426.47	9966.8	
426.67	9118.2	
426.88	11990	
427.08	11448	
427.28	10254	
427.48	9153.7	
427.69	10200	
427.89	10978	
428.09	10180	
428.29	9144.9	
428.5	11742	
428.7	11142	
428.9	9140.8	
429.1	9726.5	
429.3	11153	
429.51	11717	
429.71	9293.7	
429.91	10329	
430.11	11637	
430.31	11882	
430.52	9791.3	
430.72	10344	
430.92	12262	
431.12	11690	
431.32	9655.5	
431.53	10006	
431.73	10683	
431.93	12426	
432.13	9357.9	
432.33	9366	
432.54	11043	
432.74	11606	
432.94	9385.2	
433.14	10423	
433.34	11619	
433.55	11346	
433.75	10457	
433.95	12568	
434.15	11614	
434.35	11452	
434.56	9583.8	
434.76	9342.8	
434.96	11751	
435.16	12153	
435.36	9538.8	
435.56	10976	
435.77	11456	
435.97	11646	
436.17	11794	
436.37	11064	
436.57	11540	
436.78	11566	
436.98	12710	
437.18	11521	
437.38	12494	
437.58	11615	
437.78	11642	
437.99	10214	
438.19	12033	
438.39	13573	
438.59	10030	
438.79	9271.8	
438.99	12676	
439.2	11585	
439.4	9469.1	
439.6	9439.1	
439.8	11946	
440	13011	
440.2	10877	
440.4	11016	
440.61	12501	
440.81	13259	
441.01	10159	
441.21	11399	
441.41	13444	
441.61	12784	
441.81	11646	
442.02	12895	
442.22	13790	
442.42	12945	
442.62	10553	
442.82	10413	
443.02	13336	
443.22	12486	
443.43	11098	
443.63	10628	
443.83	12024	
444.03	12183	
444.23	12074	
444.43	11673	
444.63	12694	
444.83	13965	
445.04	10895	
445.24	12319	
445.44	12922	
445.64	13136	
445.84	11335	
446.04	11597	
446.24	12067	
446.44	13248	
446.65	10458	
446.85	10993	
447.05	12172	
447.25	13034	
447.45	10837	
447.65	10193	
447.85	12218	
448.05	11708	
448.25	11446	
448.46	11240	
448.66	12322	
448.86	11865	
449.06	10176	
449.26	11251	
449.46	12778	
449.66	11617	
449.86	10986	
450.06	10912	
450.26	12045	
450.47	12658	
450.67	11064	
450.87	11589	
451.07	12667	
451.27	12622	
451.47	10384	
451.67	11252	
451.87	12366	
452.07	13322	
452.27	10823	
452.47	10714	
452.67	12400	
452.88	13177	
453.08	9866.4	
453.28	12183	
453.48	13948	
453.68	12278	
453.88	10741	
454.08	10952	
454.28	12964	
454.48	12547	
454.68	11539	
454.88	12075	
455.08	12961	
455.28	13160	
455.48	10573	
455.68	11426	
455.89	13767	
456.09	13463	
456.29	11159	
456.49	11490	
456.69	13827	
456.89	12844	
457.09	12055	
457.29	12461	
457.49	13416	
457.69	13814	
457.89	11959	
458.09	11206	
458.29	13299	
458.49	14296	
458.69	12533	
458.89	11892	
459.09	14593	
459.29	14700	
459.49	12065	
459.69	12931	
459.9	14031	
460.1	13672	
460.3	11768	
460.5	11678	
460.7	14115	
460.9	13724	
461.1	11359	
461.3	12923	
461.5	14900	
461.7	14506	
461.9	12232	
462.1	12539	
462.3	14156	
462.5	14786	
462.7	12376	
462.9	12596	
463.1	16066	
463.3	15850	
463.5	12833	
463.7	14162	
463.9	14644	
464.1	15089	
464.3	13387	
464.5	13350	
464.7	15498	
464.9	15434	
465.1	14991	
465.3	14054	
465.5	15887	
465.7	15905	
465.9	14481	
466.1	13837	
466.3	15935	
466.5	15472	
466.7	15445	
466.9	13831	
467.1	15757	
467.3	16722	
467.5	15373	
467.7	14024	
467.9	16833	
468.1	17970	
468.3	14839	
468.5	15524	
468.7	15866	
468.9	15862	
469.1	14624	
469.3	15375	
469.5	18053	
469.7	15722	
469.9	14841	
470.1	14452	
470.3	15890	
470.5	15942	
470.7	15744	
470.9	14215	
471.1	15725	
471.3	15737	
471.5	14128	
471.69	15998	
471.89	15289	
472.09	14827	
472.29	14953	
472.49	14990	
472.69	15142	
472.89	15993	
473.09	13922	
473.29	13722	
473.49	15052	
473.69	15231	
473.89	14772	
474.09	13949	
474.29	16441	
474.49	16204	
474.69	14782	
474.89	13979	
475.09	15234	
475.29	15254	
475.49	13166	
475.69	13769	
475.88	16620	
476.08	15265	
476.28	13220	
476.48	13545	
476.68	15720	
476.88	15516	
477.08	13366	
477.28	13667	
477.48	14794	
477.68	15416	
477.88	13104	
478.08	13359	
478.28	15985	
478.48	14958	
478.67	13594	
478.87	12582	
479.07	16036	
479.27	14977	
479.47	13621	
479.67	13702	
479.87	15580	
480.07	16084	
480.27	12907	
480.47	14454	
480.67	15038	
480.87	15808	
481.06	13116	
481.26	14111	
481.46	15056	
481.66	15024	
481.86	13802	
482.06	14833	
482.26	14787	
482.46	15614	
482.66	13504	
482.86	13116	
483.05	15132	
483.25	14453	
483.45	16097	
483.65	13568	
483.85	14741	
484.05	15029	
484.25	14019	
484.45	14738	
484.65	15849	
484.84	16333	
485.04	13564	
485.24	13628	
485.44	16280	
485.64	14468	
485.84	13030	
486.04	14539	
486.24	15057	
486.44	15460	
486.63	13047	
486.83	14051	
487.03	14979	
487.23	15488	
487.43	13087	
487.63	15887	
487.83	15478	
488.02	16548	
488.22	14517	
488.42	15177	
488.62	16369	
488.82	15189	
489.02	13883	
489.22	14226	
489.41	16355	
489.61	15971	
489.81	13800	
490.01	13773	
490.21	16301	
490.41	17089	
490.61	13885	
490.8	13860	
491	15746	
491.2	14874	
491.4	14363	
491.6	13527	
491.8	15537	
491.99	15666	
492.19	13151	
492.39	13637	
492.59	16212	
492.79	16258	
492.99	14684	
493.18	13672	
493.38	16391	
493.58	17400	
493.78	14653	
493.98	14249	
494.18	16264	
494.37	15776	
494.57	15227	
494.77	15119	
494.97	16841	
495.17	17209	
495.37	14829	
495.56	15289	
495.76	17629	
495.96	17158	
496.16	16276	
496.36	15302	
496.55	17528	
496.75	17053	
496.95	15644	
497.15	15700	
497.35	17428	
497.54	17642	
497.74	15379	
497.94	17165	
498.14	18325	
498.34	17973	
498.53	15066	
498.73	15986	
498.93	16940	
499.13	17594	
499.33	15806	
499.52	16304	
499.72	17844	
499.92	18002	
500.12	15674	
500.32	15986	
500.51	17879	
500.71	17869	
500.91	16809	
501.11	16348	
501.31	17991	
501.5	18248	
501.7	16909	
501.9	15846	
502.1	17614	
502.29	17918	
502.49	16470	
502.69	16769	
502.89	17731	
503.09	17812	
503.28	15122	
503.48	15264	
503.68	16495	
503.88	16802	
504.07	16167	
504.27	15505	
504.47	17164	
504.67	17124	
504.86	15902	
505.06	15448	
505.26	16610	
505.46	18400	
505.65	15429	
505.85	15500	
506.05	16187	
506.25	16729	
506.44	14321	
506.64	15175	
506.84	15969	
507.04	16953	
507.23	14511	
507.43	15015	
507.63	17988	
507.83	16086	
508.02	14863	
508.22	14476	
508.42	18175	
508.62	15699	
508.81	14580	
509.01	15176	
509.21	15312	
509.4	15740	
509.6	14761	
509.8	14078	
510	15675	
510.19	17285	
510.39	14027	
510.59	14037	
510.79	15558	
510.98	17135	
511.18	14260	
511.38	14446	
511.57	16440	
511.77	16399	
511.97	14984	
512.17	13907	
512.36	16393	
512.56	16279	
512.76	13952	
512.95	13642	
513.15	16352	
513.35	15021	
513.55	14865	
513.74	13982	
513.94	16310	
514.14	15711	
514.33	15143	
514.53	14909	
514.73	15696	
514.92	15917	
515.12	14254	
515.32	14020	
515.51	16053	
515.71	16589	
515.91	15862	
516.11	14190	
516.3	17944	
516.5	15631	
516.7	14700	
516.89	15443	
517.09	15675	
517.29	15696	
517.48	15014	
517.68	14371	
517.88	15478	
518.07	16209	
518.27	14969	
518.47	13856	
518.66	16752	
518.86	15261	
519.06	13592	
519.25	14209	
519.45	15539	
519.65	17204	
519.84	14897	
520.04	15785	
520.24	17476	
520.43	16217	
520.63	14444	
520.83	14228	
521.02	15206	
521.22	15921	
521.42	14646	
521.61	15213	
521.81	15332	
522.01	15698	
522.2	14418	
522.4	14106	
522.6	16163	
522.79	15002	
522.99	14459	
523.18	13721	
523.38	16046	
523.58	16214	
523.77	16012	
523.97	13895	
524.17	18239	
524.36	17172	
524.56	15664	
524.76	15128	
524.95	16455	
525.15	16165	
525.34	15058	
525.54	15137	
525.74	16903	
525.93	15982	
526.13	16505	
526.33	15233	
526.52	17400	
526.72	17006	
526.91	16558	
527.11	15825	
527.31	17466	
527.5	18002	
527.7	15687	
527.89	14841	
528.09	16514	
528.29	17122	
528.48	16072	
528.68	15778	
528.87	17394	
529.07	17488	
529.27	15625	
529.46	15117	
529.66	17067	
529.85	17557	
530.05	14976	
530.25	15820	
530.44	18579	
530.64	16886	
530.83	15420	
531.03	15687	
531.23	17406	
531.42	17305	
531.62	16492	
531.81	15557	
532.01	17627	
532.21	18379	
532.4	15631	
532.6	16081	
532.79	18817	
532.99	18045	
533.18	16152	
533.38	17321	
533.58	17698	
533.77	18428	
533.97	16355	
534.16	17220	
534.36	18791	
534.55	17748	
534.75	17346	
534.95	16357	
535.14	18740	
535.34	17690	
535.53	15892	
535.73	18091	
535.92	19159	
536.12	17810	
536.31	15973	
536.51	17405	
536.71	17940	
536.9	17594	
537.1	16036	
537.29	16198	
537.49	18315	
537.68	17451	
537.88	16643	
538.07	15672	
538.27	17795	
538.46	18908	
538.66	15645	
538.86	16226	
539.05	17701	
539.25	18116	
539.44	16513	
539.64	15791	
539.83	17533	
540.03	18540	
540.22	15808	
540.42	15905	
540.61	17655	
540.81	17856	
541	16326	
541.2	17035	
541.39	17065	
541.59	17357	
541.78	16594	
541.98	15474	
542.18	16580	
542.37	16541	
542.57	15771	
542.76	16445	
542.96	16447	
543.15	17260	
543.35	15651	
543.54	14917	
543.74	17316	
543.93	16903	
544.13	15377	
544.32	16465	
544.52	16933	
544.71	16212	
544.91	14245	
545.1	15690	
545.3	16115	
545.49	16979	
545.69	14134	
545.88	14861	
546.08	17839	
546.27	17348	
546.47	15427	
546.66	14561	
546.86	17028	
547.05	17641	
547.24	14809	
547.44	14803	
547.63	15717	
547.83	17000	
548.02	15023	
548.22	15180	
548.41	15567	
548.61	17045	
548.8	14314	
549	14201	
549.19	16077	
549.39	16475	
549.58	14020	
549.78	14565	
549.97	16498	
550.17	15982	
550.36	15250	
550.55	16476	
550.75	15878	
550.94	16840	
551.14	14052	
551.33	14230	
551.53	15040	
551.72	16183	
551.92	14313	
552.11	14145	
552.31	16206	
552.5	16133	
552.69	15882	
552.89	13698	
553.08	16126	
553.28	15628	
553.47	14010	
553.67	15230	
553.86	16607	
554.06	14814	
554.25	13068	
554.44	13724	
554.64	17284	
554.83	16914	
555.03	13739	
555.22	14071	
555.42	16228	
555.61	15740	
555.8	13887	
556	14013	
556.19	14857	
556.39	16051	
556.58	13856	
556.78	13749	
556.97	15496	
557.16	15229	
557.36	15063	
557.55	13469	
557.75	14265	
557.94	16410	
558.13	13515	
558.33	13230	
558.52	15971	
558.72	14991	
558.91	13247	
559.1	13502	
559.3	14440	
559.49	14116	
559.69	12796	
559.88	13771	
560.07	15242	
560.27	15543	
560.46	13941	
560.66	14067	
560.85	14984	
561.04	14003	
561.24	13127	
561.43	13058	
561.63	14394	
561.82	14480	
562.01	14494	
562.21	13498	
562.4	15036	
562.59	16148	
562.79	13267	
562.98	13007	
563.18	14974	
563.37	16777	
563.56	13807	
563.76	12859	
563.95	14390	
564.14	14425	
564.34	13403	
564.53	13099	
564.73	14814	
564.92	15326	
565.11	13412	
565.31	12848	
565.5	15517	
565.69	14537	
565.89	13012	
566.08	13421	
566.27	15395	
566.47	15913	
566.66	14024	
566.85	12573	
567.05	14995	
567.24	14413	
567.44	12902	
567.63	14380	
567.82	15119	
568.02	14960	
568.21	12921	
568.4	13332	
568.6	14775	
568.79	14657	
568.98	12650	
569.18	12917	
569.37	14719	
569.56	16836	
569.76	13235	
569.95	14281	
570.14	15030	
570.34	15089	
570.53	12714	
570.72	12595	
570.91	15416	
571.11	14431	
571.3	13021	
571.49	13988	
571.69	14521	
571.88	14115	
572.07	13663	
572.27	13564	
572.46	14002	
572.65	15150	
572.85	12761	
573.04	13080	
573.23	15394	
573.43	14534	
573.62	12568	
573.81	13268	
574	14631	
574.2	14521	
574.39	13095	
574.58	13187	
574.78	15771	
574.97	14881	
575.16	13581	
575.36	13855	
575.55	15275	
575.74	15481	
575.93	12664	
576.13	13993	
576.32	14661	
576.51	15190	
576.71	12994	
576.9	14544	
577.09	15515	
577.28	15163	
577.48	13636	
577.67	12568	
577.86	14668	
578.05	15063	
578.25	13257	
578.44	13330	
578.63	14576	
578.83	16031	
579.02	12577	
579.21	14219	
579.4	14986	
579.6	14603	
579.79	13389	
579.98	15760	
580.17	15389	
580.37	15347	
580.56	12912	
580.75	13711	
580.94	16018	
581.14	15730	
581.33	14175	
581.52	12981	
581.71	15293	
581.91	15858	
582.1	12661	
582.29	13381	
582.48	14917	
582.68	14882	
582.87	13961	
583.06	13544	
583.25	15233	
583.45	14521	
583.64	14381	
583.83	15042	
584.02	14644	
584.21	15188	
584.41	14127	
584.6	13442	
584.79	14848	
584.98	15851	
585.18	12785	
585.37	12859	
585.56	14377	
585.75	15152	
585.94	12996	
586.14	13733	
586.33	15723	
586.52	14760	
586.71	13347	
586.91	13125	
587.1	14016	
587.29	15101	
587.48	12714	
587.67	12778	
587.87	14691	
588.06	14836	
588.25	14028	
588.44	13174	
588.63	14171	
588.83	14684	
589.02	12418	
589.21	12192	
589.4	13588	
589.59	13338	
589.78	11134	
589.98	11147	
590.17	12560	
590.36	13159	
590.55	10256	
590.74	11023	
590.94	14207	
591.13	12845	
591.32	10650	
591.51	10181	
591.7	13028	
591.89	12710	
592.09	10403	
592.28	10906	
592.47	11801	
592.66	13737	
592.85	10380	
593.05	10661	
593.24	12542	
593.43	13235	
593.62	10800	
593.81	11374	
594	12657	
594.19	12872	
594.39	10644	
594.58	10692	
594.77	12923	
594.96	13536	
595.15	10550	
595.34	11258	
595.54	12949	
595.73	12009	
595.92	9839.8	
596.11	11024	
596.3	13419	
596.49	12057	
596.68	10781	
596.88	11322	
597.07	13047	
597.26	11780	
597.45	10350	
597.64	11720	
597.83	12149	
598.02	12795	
598.22	10450	
598.41	11134	
598.6	12564	
598.79	11982	
598.98	10505	
599.17	11590	
599.36	12678	
599.55	13895	
599.74	12757	
599.94	12515	
600.13	13405	
600.32	11907	
600.51	10399	
600.7	10436	
600.89	13895	
601.08	14003	
601.27	10292	
601.47	11319	
601.66	13235	
601.85	13885	
602.04	10985	
602.23	11112	
602.42	12185	
602.61	12983	
602.8	10925	
602.99	10655	
603.18	12500	
603.37	12782	
603.57	11322	
603.76	11947	
603.95	13531	
604.14	13145	
604.33	10860	
604.52	11138	
604.71	12708	
604.9	12490	
605.09	11718	
605.28	11606	
605.47	13472	
605.66	13042	
605.86	11437	
606.05	10816	
606.24	13360	
606.43	11856	
606.62	11136	
606.81	11929	
607	13138	
607.19	12513	
607.38	10359	
607.57	10703	
607.76	12167	
607.95	11611	
608.14	11002	
608.33	11701	
608.52	12080	
608.72	13009	
608.91	10255	
609.1	10219	
609.29	12242	
609.48	11673	
609.67	11178	
609.86	10255	
610.05	11743	
610.24	12095	
610.43	9914.2	
610.62	9622	
610.81	13267	
611	13097	
611.19	10084	
611.38	10888	
611.57	12338	
611.76	13723	
611.95	9789.3	
612.14	9676	
612.33	12093	
612.52	11598	
612.71	10320	
612.9	9515.5	
613.09	11178	
613.28	13641	
613.47	10073	
613.66	11040	
613.85	12232	
614.04	11600	
614.24	10105	
614.43	9269.8	
614.62	12357	
614.81	12101	
615	10744	
615.19	10867	
615.38	11446	
615.57	11828	
615.76	10566	
615.95	11546	
616.14	12288	
616.33	11957	
616.52	10871	
616.71	11188	
616.9	12168	
617.09	12019	
617.28	10185	
617.47	11463	
617.66	11340	
617.85	11441	
618.04	11263	
618.22	10603	
618.41	11702	
618.6	12667	
618.79	10510	
618.98	10187	
619.17	13157	
619.36	11260	
619.55	10381	
619.74	10437	
619.93	12140	
620.12	11639	
620.31	11102	
620.5	11209	
620.69	13293	
620.88	13361	
621.07	11965	
621.26	10849	
621.45	12483	
621.64	12598	
621.83	11015	
622.02	10114	
622.21	12505	
622.4	12293	
622.59	11647	
622.78	11286	
622.97	11867	
623.16	12964	
623.35	10948	
623.54	10088	
623.72	12075	
623.91	12203	
624.1	11279	
624.29	9802.3	
624.48	13270	
624.67	12465	
624.86	11112	
625.05	10087	
625.24	13383	
625.43	11641	
625.62	12768	
625.81	10230	
626	12702	
626.19	11988	
626.38	11094	
626.56	10365	
626.75	11642	
626.94	12550	
627.13	10989	
627.32	9625.5	
627.51	12213	
627.7	13705	
627.89	9590	
628.08	10829	
628.27	11413	
628.46	11610	
628.65	9892.4	
628.83	9604.3	
629.02	12153	
629.21	11433	
629.4	10335	
629.59	10593	
629.78	11360	
629.97	12425	
630.16	10731	
630.35	10106	
630.54	12807	
630.72	12594	
630.91	10014	
631.1	10730	
631.29	11998	
631.48	12119	
631.67	10750	
631.86	10066	
632.05	11583	
632.24	11583	
632.42	9708.7	
632.61	10422	
632.8	11663	
632.99	11272	
633.18	10415	
633.37	10894	
633.56	12045	
633.75	11813	
633.93	10426	
634.12	10050	
634.31	12771	
634.5	12427	
634.69	10194	
634.88	10735	
635.07	11770	
635.25	12425	
635.44	11064	
635.63	11379	
635.82	11457	
636.01	11030	
636.2	10909	
636.39	10630	
636.57	12619	
636.76	12367	
636.95	9896.5	
637.14	11497	
637.33	11861	
637.52	13033	
637.7	9620.7	
637.89	10593	
638.08	11546	
638.27	13028	
638.46	10826	
638.65	11133	
638.83	13020	
639.02	11289	
639.21	10611	
639.4	11161	
639.59	11693	
639.78	11298	
639.96	9758.6	
640.15	9794.1	
640.34	11619	
640.53	11744	
640.72	9379.7	
640.91	9671.9	
641.09	10925	
641.28	12377	
641.47	9762.7	
641.66	10648	
641.85	11619	
642.03	11850	
642.22	10318	
642.41	9749	
642.6	10955	
642.79	10331	
642.97	9431.6	
643.16	10320	
643.35	10927	
643.54	10682	
643.73	9221.3	
643.91	10204	
644.1	10354	
644.29	11052	
644.48	9328.5	
644.67	9314.8	
644.85	10583	
645.04	10879	
645.23	8741.4	
645.42	9054.8	
645.6	10169	
645.79	11380	
645.98	8819.9	
646.17	7737.2	
646.36	9783.1	
646.54	10385	
646.73	9526.5	
646.92	8280.6	
647.11	9824.8	
647.29	11009	
647.48	8335.9	
647.67	8067.6	
647.86	11155	
648.05	11242	
648.23	8634.2	
648.42	9927.2	
648.61	10568	
648.8	10217	
648.98	8227.4	
649.17	8619.9	
649.36	9803.6	
649.55	9300.5	
649.73	8281.3	
649.92	9111.4	
650.11	9770.9	
650.3	10129	
650.48	8451.3	
650.67	8203.5	
650.86	10391	
651.05	9093	
651.23	8415.1	
651.42	8327.7	
651.61	9726.5	
651.79	9857.6	
651.98	8617.2	
652.17	8140	
652.36	10151	
652.54	9221.3	
652.73	8225.3	
652.92	8048.5	
653.11	10211	
653.29	10241	
653.48	7383.6	
653.67	8420.6	
653.85	10026	
654.04	11119	
654.23	8656.1	
654.42	8071.7	
654.6	9364	
654.79	9952.4	
654.98	7460.1	
655.16	8041	
655.35	8780.3	
655.54	8776.2	
655.73	7455.3	
655.91	7421.2	
656.1	10001	
656.29	8657.4	
656.47	6957.6	
656.66	8890.2	
656.85	9029.5	
657.03	9116.2	
657.22	7645.8	
657.41	7798.7	
657.59	9299.1	
657.78	9027.4	
657.97	7459.4	
658.16	8204.2	
658.34	9871.9	
658.53	10385	
658.72	9078	
658.9	9750.4	
659.09	9292.3	
659.28	9563.3	
659.46	7972.1	
659.65	7924.3	
659.84	9193.3	
660.02	9759.9	
660.21	7819.1	
660.4	7647.1	
660.58	10249	
660.77	9587.9	
660.96	8378.9	
661.14	7308.5	
661.33	10720	
661.52	10769	
661.7	7233.4	
661.89	11224	
662.08	9143.5	
662.26	8649.3	
662.45	7600	
662.64	7769.3	
662.82	9807.7	
663.01	9005.6	
663.2	7795.3	
663.38	8495	
663.57	9768.1	
663.75	9475.3	
663.94	8001.4	
664.13	9357.9	
664.31	8966.7	
664.5	9736.7	
664.69	8449.2	
664.87	8859.5	
665.06	8754.4	
665.25	9524.4	
665.43	9106.6	
665.62	9174.2	
665.8	9947.7	
665.99	9063.6	
666.18	7912	
666.36	8082.6	
666.55	9820.7	
666.74	9753.8	
666.92	7537.2	
667.11	9222	
667.29	9150.3	
667.48	9731.9	
667.67	8936	
667.85	8029.4	
668.04	9140.8	
668.22	9189.9	
668.41	7832.1	
668.6	8003.5	
668.78	8870.4	
668.97	9086.8	
669.15	8429.4	
669.34	7226.6	
669.53	8916.9	
669.71	9155.8	
669.9	7443	
670.08	8103.1	
670.27	8841.1	
670.46	9534.7	
670.64	8360.5	
670.83	8604.2	
671.01	8781.7	
671.2	9451.4	
671.38	7382.2	
671.57	7340.6	
671.76	9960	
671.94	10647	
672.13	7362.4	
672.31	8467.7	
672.5	9539.4	
672.69	8862.9	
672.87	7417.7	
673.06	7767.9	
673.24	9400.9	
673.43	8895	
673.61	8228.7	
673.8	7743.4	
673.98	9486.9	
674.17	9725.8	
674.36	8358.4	
674.54	8198.7	
674.73	9263.6	
674.91	9544.9	
675.1	7911.3	
675.28	7465.5	
675.47	9071.8	
675.65	9637.1	
675.84	7672.4	
676.03	8106.5	
676.21	8748.9	
676.4	8359.8	
676.58	8537.3	
676.77	8298.4	
676.95	10280	
677.14	8669.7	
677.32	7311.2	
677.51	7107.1	
677.69	9618.6	
677.88	8259.5	
678.06	7165.2	
678.25	7305.1	
678.44	8948.9	
678.62	8713.4	
678.81	6974	
678.99	8040.3	
679.18	9846	
679.36	9427.5	
679.55	7582.3	
679.73	8321.6	
679.92	9306	
680.1	8680	
680.29	8900.5	
680.47	7535.2	
680.66	8544.1	
680.84	9545.6	
681.03	6886	
681.21	7997.3	
681.4	8691.6	
681.58	8501.1	
681.77	7309.2	
681.95	7232.1	
682.14	9563.3	
682.32	9841.2	
682.51	8242.4	
682.69	6973.3	
682.88	8442.4	
683.06	9233.6	
683.25	7817.1	
683.43	8338	
683.62	8830.2	
683.8	9266.4	
683.99	8387.1	
684.17	7656.7	
684.36	10078	
684.54	8576.2	
684.73	6628.6	
684.91	6802	
685.1	8806.9	
685.28	8156.4	
685.46	7272.3	
685.65	7282.6	
685.83	8864.3	
686.02	8220.5	
686.2	6591	
686.39	6772.6	
686.57	7933.1	
686.76	9552.4	
686.94	6659.3	
687.13	6806.8	
687.31	8711.4	
687.5	8122.9	
687.68	6320	
687.86	7704.5	
688.05	9970.2	
688.23	7661.5	
688.42	7740.6	
688.6	6868.9	
688.79	8198.7	
688.97	8228.1	
689.16	7203.4	
689.34	6158.2	
689.52	8991.3	
689.71	9188.6	
689.89	7599.3	
690.08	6769.9	
690.26	8413.1	
690.45	8259.5	
690.63	7734.5	
690.81	6895.5	
691	8093.6	
691.18	8044.4	
691.37	7064.8	
691.55	9256.1	
691.74	7935.2	
691.92	10034	
692.1	7043	
692.29	6335.7	
692.47	8173.4	
692.66	7303.7	
692.84	6649.1	
693.02	7269.6	
693.21	7571.3	
693.39	8077.9	
693.58	7276.4	
693.76	6674.3	
693.94	9430.2	
694.13	9186.5	
694.31	6721.4	
694.5	7879.9	
694.68	7993.9	
694.86	8304.5	
695.05	7154.9	
695.23	7646.4	
695.42	8838.4	
695.6	11373	
695.78	7865.6	
695.97	6883.9	
696.15	8905.9	
696.34	8215.8	
696.52	6654.5	
696.7	7479.2	
696.89	8585.1	
697.07	7882.6	
697.25	7320.1	
697.44	8989.9	
697.62	8410.3	
697.81	8775.5	
697.99	6920.8	
698.17	7524.2	
698.36	7688.1	
698.54	8435.6	
698.72	7240.9	
698.91	6239.5	
699.09	7925	
699.28	7867.6	
699.46	6989	
699.64	6844.3	
699.83	7632.8	
700.01	9114.1	
700.19	7649.8	
700.38	6006	
700.56	9093.7	
700.74	7851.9	
700.93	6457.2	
701.11	7356.3	
701.29	8540	
701.48	9654.8	
701.66	6741.9	
701.84	6859.3	
702.03	8066.9	
702.21	8845.2	
702.39	6311.2	
702.58	7025.2	
702.76	8514.8	
702.94	8615.1	
703.13	6299.6	
703.31	8953.7	
703.49	7756.3	
703.68	9346.9	
703.86	6519.4	
704.04	7640.3	
704.23	8338	
704.41	8796.7	
704.59	6683.2	
704.78	7940.7	
704.96	9542.9	
705.14	8770.8	
705.33	6447	
705.51	7404.8	
705.69	8176.9	
705.87	9081.4	
706.06	7646.4	
706.24	6380.1	
706.42	8521.6	
706.61	8802.2	
706.79	7753.6	
706.97	6434.7	
707.16	7939.3	
707.34	8553.7	
707.52	7688.1	
707.7	6684.6	
707.89	8124.3	
708.07	7821.2	
708.25	7690.8	
708.44	7801.4	
708.62	7969.3	
708.8	9202.9	
708.98	7890.1	
709.17	6782.9	
709.35	8466.3	
709.53	8387.8	
709.72	6487.3	
709.9	6612.2	
710.08	8819.9	
710.26	8791.9	
710.45	8193.2	
710.63	6821.8	
710.81	8393.3	
710.99	8419.9	
711.18	7387.7	
711.36	6881.9	
711.54	8168	
711.72	8844.5	
711.91	6890	
712.09	6314.6	
712.27	8215.1	
712.45	9408.4	
712.64	7152.2	
712.82	6053.1	
713	7565.9	
713.18	7703.8	
713.37	6146	
713.55	7407.5	
713.73	8502.5	
713.91	7009.5	
714.1	6434.7	
714.28	5760.9	
714.46	8069.7	
714.64	7137.2	
714.83	5039.4	
715.01	5994.4	
715.19	7122.8	
715.37	6490.7	
715.55	5539.1	
715.74	5906.3	
715.92	8044.4	
716.1	6006.7	
716.28	7002	
716.47	6019	
716.65	6642.2	
716.83	6817.7	
717.01	5828.5	
717.19	5898.1	
717.38	8968.7	
717.56	6415.6	
717.74	6139.8	
717.92	5216.2	
718.1	7803.4	
718.29	6871.6	
718.47	4947.9	
718.65	5613.5	
718.83	7768.6	
719.01	7718.8	
719.2	4895.3	
719.38	6098.9	
719.56	7501	
719.74	9133.3	
719.92	5612.8	
720.11	6804	
720.29	7439.6	
720.47	6495.5	
720.65	5061.2	
720.83	6057.9	
721.02	6815	
721.2	6485.9	
721.38	5933.6	
721.56	5183.4	
721.74	5995.1	
721.92	6225.1	
722.11	6518.7	
722.29	6125.5	
722.47	7518.8	
722.65	6669.6	
722.83	5154.1	
723.01	6299.6	
723.2	6774.7	
723.38	7001.3	
723.56	4631.8	
723.74	5902.9	
723.92	6283.2	
724.1	7507.2	
724.29	5158.2	
724.47	6401.3	
724.65	6277.7	
724.83	6217.6	
725.01	5047.6	
725.19	5986.9	
725.37	6260	
725.56	6411.5	
725.74	4896.7	
725.92	5270.1	
726.1	6237.4	
726.28	6572.6	
726.46	5717.9	
726.64	5357.5	
726.83	6527.6	
727.01	6875	
727.19	4885.1	
727.37	5788.2	
727.55	6658.6	
727.73	7238.2	
727.91	4892.6	
728.09	4724.7	
728.28	7286	
728.46	8000	
728.64	5979.4	
728.82	5902.2	
729	8441	
729.18	7712.7	
729.36	5104.9	
729.54	7578.8	
729.72	8769.4	
729.91	7011.6	
730.09	7234.8	
730.27	5990.3	
730.45	6924.2	
730.63	7684.7	
730.81	6526.9	
730.99	5563	
731.17	8230.8	
731.35	6701.6	
731.53	6131.6	
731.71	5758.9	
731.9	7851.9	
732.08	8062.2	
732.26	6028.5	
732.44	5651	
732.62	8127.7	
732.8	7568.6	
732.98	6331	
733.16	5343.2	
733.34	7563.8	
733.52	6290	
733.7	5937.1	
733.88	6244.3	
734.07	7382.2	
734.25	7106.5	
734.43	5361.6	
734.61	7051.8	
734.79	8806.3	
734.97	7094.2	
735.15	5556.1	
735.33	5911.8	
735.51	7382.9	
735.69	7067.5	
735.87	7271	
736.05	6141.2	
736.23	7238.2	
736.41	7043	
736.59	5971.9	
736.77	6016.2	
736.95	7727	
737.13	7196.6	
737.32	5607.3	
737.5	5870.8	
737.68	8342.7	
737.86	6969.9	
738.04	5397.1	
738.22	7413.6	
738.4	6823.8	
738.58	7119.4	
738.76	6089.3	
738.94	4963.6	
739.12	6956.3	
739.3	6759	
739.48	6707.1	
739.66	6419	
739.84	7228.6	
740.02	7165.8	
740.2	5052.3	
740.38	5521.3	
740.56	7667.6	
740.74	6424.5	
740.92	6228.6	
741.1	6058.6	
741.28	6914.6	
741.46	6901	
741.64	5666.7	
741.82	6139.8	
742	7032.7	
742.18	7009.5	
742.36	5845.6	
742.54	5360.2	
742.72	7612.3	
742.9	6311.2	
743.08	6326.9	
743.26	5037.3	
743.44	7808.9	
743.62	7688.1	
743.8	6350.1	
743.98	5444.9	
744.16	7390.4	
744.34	6982.2	
744.52	6361.7	
744.7	6226.5	
744.88	7516.7	
745.06	7077.1	
745.24	6406.7	
745.42	6477.7	
745.6	7593.2	
745.78	7296.2	
745.96	5049.6	
746.14	5311.1	
746.32	8354.3	
746.5	7621.2	
746.68	6055.8	
746.86	5444.2	
747.03	8029.4	
747.21	6167.1	
747.39	6014.9	
747.57	5460.6	
747.75	7126.9	
747.93	7628.7	
748.11	5490.6	
748.29	5333.6	
748.47	8802.9	
748.65	6741.9	
748.83	6122.7	
749.01	5874.9	
749.19	7338.6	
749.37	6426.5	
749.55	5719.3	
749.73	5825.1	
749.91	6858.6	
750.09	6631.3	
750.26	5881.8	
750.44	5231.2	
750.62	7005.4	
750.8	6926.2	
750.98	5038.7	
751.16	5406.6	
751.34	7021.1	
751.52	6287.3	
751.7	6243.6	
751.88	5091.3	
752.06	7544.7	
752.24	7306.5	
752.42	4980	
752.59	5360.2	
752.77	6885.3	
752.95	8316.8	
753.13	6124.1	
753.31	5456.5	
753.49	6617	
753.67	7049.1	
753.85	5806	
754.03	5325.4	
754.21	7324.2	
754.38	7652.6	
754.56	5478.3	
754.74	4395.6	
754.92	6430.6	
755.1	7178.8	
755.28	4407.9	
755.46	4443.4	
755.64	7839.6	
755.82	7920.2	
755.99	4575.2	
756.17	4786.1	
756.35	5213.4	
756.53	6941.2	
756.71	3436.5	
756.89	4434.5	
757.07	6400.6	
757.25	5459.2	
757.42	5042.8	
757.6	6021	
757.78	6470.2	
757.96	5507.7	
758.14	4779.3	
758.32	4276.8	
758.5	4971.1	
758.67	5852.4	
758.85	4585.4	
759.03	4752	
759.21	6068.8	
759.39	5437.4	
759.57	4128.7	
759.75	5395.7	
759.92	6794.5	
760.1	5964.4	
760.28	5769.8	
760.46	6019	
760.64	5738.4	
760.82	5492.7	
760.99	5588.9	
761.17	4714.4	
761.35	6669.6	
761.53	5587.5	
761.71	4863.2	
761.89	5618.3	
762.06	6535.8	
762.24	6038.8	
762.42	4986.1	
762.6	4772.4	
762.78	6011.5	
762.96	6761	
763.13	5441.5	
763.31	5124	
763.49	6957.6	
763.67	6011.5	
763.85	5994.4	
764.02	6653.2	
764.2	7203.4	
764.38	6335.7	
764.56	4996.4	
764.74	5863.3	
764.91	7432.1	
765.09	6172.6	
765.27	4667.3	
765.45	4407.2	
765.63	7314	
765.8	7187.7	
765.98	4130.1	
766.16	4459.8	
766.34	5721.3	
766.52	5489.2	
766.69	5487.9	
766.87	4349.9	
767.05	6122.1	
767.23	6997.2	
767.41	4602.5	
767.58	4920.6	
767.76	6751.5	
767.94	6836.1	
768.12	4703.5	
768.29	5574.6	
768.47	6187.6	
768.65	7014.3	
768.83	4300.7	
769	5526.8	
769.18	5700.2	
769.36	6482.5	
769.54	5558.9	
769.72	4318.5	
769.89	6733.7	
770.07	6936.5	
770.25	4633.2	
770.43	6013.5	
770.6	7575.4	
770.78	8116.1	
770.96	4797	
771.14	5597.8	
771.31	6638.1	
771.49	5966.4	
771.67	3945.8	
771.85	4240.7	
772.02	5189.6	
772.2	5925.5	
772.38	5022.3	
772.55	4496.7	
772.73	6184.2	
772.91	6015.6	
773.09	4906.3	
773.26	4940.4	
773.44	6274.3	
773.62	5879.7	
773.8	4307.6	
773.97	4061.1	
774.15	6251.8	
774.33	5851.7	
774.5	4252.9	
774.68	4618.2	
774.86	6340.5	
775.04	5833.3	
775.21	4271.4	
775.39	4386.7	
775.57	6231.3	
775.74	6595.1	
775.92	4148.5	
776.1	4047.5	
776.27	6106.4	
776.45	7393.8	
776.63	4354.7	
776.81	3815.4	
776.98	5694.7	
777.16	6921.5	
777.34	4518.5	
777.51	4413.4	
777.69	5728.9	
777.87	5469.4	
778.04	4483.7	
778.22	5195	
778.4	5511.8	
778.57	6143.9	
778.75	3719.1	
778.93	4027.7	
779.1	5313.1	
779.28	5141.8	
779.46	3723.2	
779.64	4261.8	
779.81	6333.7	
779.99	7267.6	
780.17	5109	
780.34	5277.6	
780.52	5814.2	
780.69	5973.2	
780.87	4671.4	
781.05	4126.7	
781.22	5846.3	
781.4	5904.3	
781.58	4269.3	
781.75	3379.8	
781.93	5831.9	
782.11	5225.1	
782.28	5214.8	
782.46	4214.7	
782.64	5027.8	
782.81	6106.4	
782.99	4365.6	
783.17	4280.3	
783.34	5942.5	
783.52	5141.8	
783.69	4533.5	
783.87	5448.3	
784.05	5209.3	
784.22	5229.1	
784.4	5375.2	
784.58	4595	
784.75	6168.5	
784.93	5268.7	
785.1	4323.9	
785.28	4960.9	
785.46	5926.8	
785.63	5174.5	
785.81	4182	
785.99	4083	
786.16	5369.8	
786.34	5838.1	
786.51	4147.1	
786.69	4532.2	
786.87	4968.4	
787.04	5550.7	
787.22	3933.5	
787.39	4899.4	
787.57	5214.1	
787.75	6391.7	
787.92	5190.2	
788.1	5124	
788.27	5207.3	
788.45	5034.6	
788.63	4826.4	
788.8	3427.6	
788.98	5698.1	
789.15	4909.7	
789.33	3592.8	
789.5	4250.2	
789.68	6169.8	
789.86	6268.8	
790.03	4702.1	
790.21	4140.3	
790.38	6109.1	
790.56	5317.2	
790.73	3994.9	
790.91	3995.6	
791.09	5188.2	
791.26	6029.2	
791.44	4199	
791.61	3629	
791.79	5158.2	
791.96	5281.7	
792.14	3754.6	
792.32	3334.8	
792.49	5226.4	
792.67	5274.2	
792.84	3843.4	
793.02	3587.4	
793.19	5677	
793.37	6462	
793.54	3282.9	
793.72	3747.8	
793.89	6594.5	
794.07	5220.3	
794.25	4330.1	
794.42	3383.2	
794.6	6336.4	
794.77	5930.9	
794.95	4615.4	
795.12	4018.1	
795.3	5158.8	
795.47	5855.8	
795.65	4464.6	
795.82	4245.4	
796	4995.7	
796.17	7116.7	
796.35	4141.7	
796.52	4874.2	
796.7	5787.6	
796.87	5851.7	
797.05	5080.3	
797.22	5046.2	
797.4	5900.2	
797.57	6931	
797.75	4270.7	
797.92	4016.7	
798.1	6125.5	
798.27	5140.4	
798.45	3399.6	
798.62	3682.2	
798.8	5508.4	
798.97	6011.5	
799.15	4507.6	
799.32	4280.3	
799.5	4730.8	
799.67	5556.8	
799.85	4663.2	
800.02	3345	
800.2	5192.3	
800.37	5439.4	
800.55	4905.6	
800.72	3999	
800.9	5951.4	
801.07	6450.4	
801.25	5416.2	
801.42	4448.2	
801.6	6046.3	
801.77	5696.8	
801.95	4142.4	
802.12	3935.5	
802.29	5698.8	
802.47	5701.5	
802.64	4410	
802.82	3246.7	
802.99	5146.5	
803.17	6247	
803.34	4291.9	
803.52	3840.6	
803.69	6964.5	
803.87	4895.3	
804.04	4211.3	
804.21	4319.8	
804.39	6334.4	
804.56	5373.9	
804.74	3545.7	
804.91	4454.3	
805.09	5195	
805.26	5360.9	
805.44	3673.4	
805.61	4021.5	
805.78	5857.2	
805.96	5859.9	
806.13	4424.3	
806.31	4774.5	
806.48	4638	
806.66	5318.6	
806.83	4411.3	
807	4319.8	
807.18	5145.2	
807.35	5603.2	
807.53	4276.8	
807.7	3382.6	
807.87	6446.3	
808.05	5196.4	
808.22	4700.8	
808.4	3375.7	
808.57	5188.2	
808.74	4799.1	
808.92	3861.1	
809.09	4999.1	
809.27	5030.5	
809.44	5741.8	
809.61	3427.6	
809.79	3830.4	
809.96	6378.1	
810.14	6003.3	
810.31	3340.9	
810.48	4115.7	
810.66	5332.2	
810.83	6108.4	
811.01	3934.1	
811.18	4386.7	
811.35	6040.8	
811.53	4578.6	
811.7	4793.6	
811.87	4445.5	
812.05	5235.3	
812.22	5139.7	
812.39	3747.8	
812.57	3648.8	
812.74	5154.1	
812.92	7008.1	
813.09	4105.5	
813.26	4515.8	
813.44	6720.8	
813.61	5129.5	
813.78	3422.8	
813.96	4671.4	
814.13	5216.9	
814.3	4846.2	
814.48	4949.9	
814.65	4126	
814.82	6516.6	
815	4997	
815.17	4257	
815.34	5158.8	
815.52	5095.3	
815.69	5112.4	
815.87	4245.4	
816.04	3633.1	
816.21	5251	
816.38	4611.3	
816.56	4022.2	
816.73	3753.2	
816.9	6605.4	
817.08	6018.3	
817.25	3799	
817.42	4882.4	
817.6	4709	
817.77	5227.8	
817.94	4289.1	
818.12	3734.1	
818.29	4946.5	
818.46	7800	
818.64	3859.1	
818.81	3663.1	
818.98	4857.8	
819.16	7176.8	
819.33	4536.9	
819.5	4201.1	
819.67	5615.5	
819.85	6301.6	
820.02	4120.5	
820.19	4388.1	
820.37	5449.6	
820.54	4981.3	
820.71	4312.3	
820.88	5395.7	
821.06	5469.4	
821.23	4943.1	
821.4	4355.3	
821.58	4302.1	
821.75	5984.8	
821.92	5330.2	
822.09	3452.2	
822.27	3545.7	
822.44	5239.4	
822.61	5187.5	
822.79	3422.2	
822.96	6771.3	
823.13	5728.2	
823.3	4900.1	
823.48	4013.3	
823.65	3615.3	
823.82	5896.8	
823.99	4717.2	
824.17	5065.3	
824.34	3674.7	
824.51	6946.7	
824.68	5329.5	
824.86	3878.9	
825.03	4374.5	
825.2	5220.3	
825.37	6358.3	
825.55	3823.6	
825.72	4259.1	
825.89	7040.2	
826.06	6476.4	
826.24	4134.2	
826.41	4153.3	
826.58	6447.7	
826.75	5520.6	
826.92	3296.5	
827.1	3618.1	
827.27	8805.6	
827.44	6954.2	
827.61	3867.2	
827.79	4818.2	
827.96	4909.7	
828.13	5258.5	
828.3	4024.9	
828.47	3419.4	
828.65	5375.9	
828.82	5373.9	
828.99	5343.2	
829.16	4625	
829.34	5874.9	
829.51	5586.2	
829.68	4321.9	
829.85	4501.4	
830.02	6118	
830.2	5864	
830.37	3225.6	
830.54	5217.5	
830.71	6696.9	
830.88	5203.2	
831.05	3366.2	
831.23	3839.9	
831.4	6384.9	
831.57	7265.5	
831.74	3895.2	
831.91	3428.3	
832.09	5401.9	
832.26	5863.3	
832.43	4092.5	
832.6	4642.1	
832.77	5485.1	
832.94	6267.5	
833.12	3238.5	
833.29	4052.9	
833.46	5575.3	
833.63	7474.4	
833.8	4432.5	
833.97	4115.1	
834.15	5887.2	
834.32	5593.7	
834.49	4256.4	
834.66	4354.7	
834.83	6052.4	
835	4902.8	
835.17	3885.7	
835.35	3928.7	
835.52	5760.3	
835.69	5713.2	
835.86	4133.5	
836.03	3433.1	
836.2	5797.1	
836.37	5385.5	
836.55	4074.1	
836.72	3812.6	
836.89	5352.7	
837.06	5959.6	
837.23	4132.1	
837.4	4594.3	
837.57	6724.8	
837.75	7513.3	
837.92	3745.7	
838.09	3927.3	
838.26	5379.3	
838.43	6206.7	
838.6	4316.4	
838.77	3773.7	
838.94	7038.2	
839.11	6741.2	
839.29	4067.3	
839.46	3180.5	
839.63	5773.2	
839.8	5568.4	
839.97	3976.5	
840.14	3988.1	
840.31	5594.4	
840.48	5848.3	
840.65	3267.2	
840.82	3844.7	
841	5834.7	
841.17	5775.3	
841.34	3702.7	
841.51	3659	
841.68	5683.1	
841.85	5487.2	
842.02	3758	
842.19	3127.9	
842.36	5539.1	
842.53	5577.3	
842.7	3624.2	
842.87	4515.8	
843.05	7365.2	
843.22	5452.4	
843.39	3411.2	
843.56	3724.6	
843.73	5214.1	
843.9	5911.8	
844.07	5927.5	
844.24	4934.9	
844.41	8665.6	
844.58	5007.3	
844.75	3519.8	
844.92	3783.3	
845.09	5806	
845.26	5795.1	
845.43	3564.1	
845.6	3786.7	
845.77	5804.6	
845.94	5550	
846.12	4009.2	
846.29	4317.1	
846.46	6065.4	
846.63	5822.4	
846.8	3675.4	
846.97	4327.4	
847.14	6308.4	
847.31	5781.4	
847.48	4067.3	
847.65	4548.5	
847.82	6113.2	
847.99	6070.2	
848.16	4881	
848.33	4496.7	
848.5	5320.6	
848.67	6399.9	
848.84	3589.4	
849.01	3784.6	
849.18	5221.6	
849.35	4857.8	
849.52	4530.8	
849.69	3495.2	
849.86	5995.8	
850.03	6336.4	
850.2	3655.6	
850.37	4491.9	
850.54	6246.3	
850.71	5480.4	
850.88	4421.6	
851.05	3579.8	
851.22	5736.4	
851.39	6413.6	
851.56	3416.7	
851.73	4179.9	
851.9	5090.6	
852.07	6081.1	
852.24	4060.4	
852.41	3635.1	
852.58	5621	
852.75	5143.1	
852.92	4016.7	
853.09	3540.9	
853.26	5412.1	
853.43	6296.8	
853.6	3567.6	
853.77	3084.9	
853.94	6408.1	
854.11	5770.5	
854.28	5450.3	
854.44	3971	
854.61	6913.9	
854.78	6136.4	
854.95	3637.9	
855.12	4567.7	
855.29	4649.6	
855.46	6425.8	
855.63	3605.1	
855.8	5013.4	
855.97	5375.9	
856.14	6122.1	
856.31	5221.6	
856.48	3947.8	
856.65	5343.2	
856.82	5022.3	
856.99	3443.3	
857.16	3901.4	
857.33	7092.1	
857.49	5460.6	
857.66	3892.5	
857.83	4188.8	
858	5381.4	
858.17	5696.8	
858.34	3423.5	
858.51	3574.4	
858.68	6514.6	
858.85	6635.4	
859.02	4187.4	
859.19	4565.6	
859.36	5056.4	
859.52	5147.9	
859.69	3590.8	
859.86	4296	
860.03	5255.8	
860.2	6473.6	
860.37	3254.9	
860.54	3652.2	
860.71	6025.8	
860.88	6531.7	
861.05	4119.1	
861.21	4541	
861.38	6535.8	
861.55	5000.5	
861.72	3282.9	
861.89	4058.4	
862.06	6152.8	
862.23	6632.7	
862.4	3476.8	
862.56	3794.9	
862.73	5935	
862.9	5586.9	
863.07	4216.1	
863.24	3277.4	
863.41	5035.3	
863.58	5108.3	
863.75	3677.5	
863.91	4243.4	
864.08	6472.3	
864.25	5986.9	
864.42	4575.8	
864.59	5102.9	
864.76	6795.2	
864.93	5123.3	
865.09	3525.9	
865.26	3859.1	
865.43	6311.8	
865.6	6763.1	
865.77	3135.4	
865.94	3600.3	
866.1	6342.6	
866.27	6107	
866.44	5460.6	
866.61	3391.4	
866.78	5480.4	
866.95	5903.6	
867.11	3481.5	
867.28	3155.2	
867.45	6168.5	
867.62	5156.1	
867.79	4283.7	
867.96	3819.5	
868.12	5122	
868.29	6098.9	
868.46	3594.2	
868.63	4879.6	
868.8	6279.1	
868.97	6073.6	
869.13	3797.6	
869.3	3721.8	
869.47	5933	
869.64	6220.4	
869.81	3646.7	
869.97	3650.2	
870.14	5805.3	
870.31	6563.1	
870.48	3500	
870.65	4559.5	
870.81	5396.4	
870.98	5350	
871.15	4098	
871.32	3763.5	
871.48	5929.6	
871.65	6500.9	
871.82	3581.9	
871.99	3946.4	
872.16	7099.6	
872.32	6500.9	
872.49	3590.1	
872.66	3682.9	
872.83	6083.1	
872.99	5287.9	
873.16	4170.3	
873.33	3575.1	
873.5	5619.6	
873.67	5647.6	
873.83	3788.1	
874	4885.8	
874.17	5802.6	
874.34	6978.1	
874.5	4719.2	
874.67	4553.3	
874.84	6504.3	
875.01	5049.6	
875.17	5125.4	
875.34	3614.7	
875.51	5721.3	
875.68	6963.1	
875.84	4392.2	
876.01	5388.2	
876.18	6026.5	
876.34	5944.6	
876.51	3637.9	
876.68	3464.5	
876.85	5464.7	
877.01	6293.4	
877.18	5224.4	
877.35	3629	
877.52	5607.3	
877.68	4984.1	
877.85	3525.9	
878.02	3538.9	
878.18	5568.4	
878.35	5294	
878.52	2884.9	
878.69	4087.1	
878.85	6051.1	
879.02	6029.9	
879.19	5167.7	
879.35	3906.2	
879.52	5970.5	
879.69	6300.2	
879.86	3117.7	
880.02	4042	
880.19	5566.4	
880.36	6852.5	
880.52	4159.4	
880.69	4334.9	
880.86	6135	
881.02	6162.3	
881.19	4005.8	
881.36	3938.9	
881.52	6022.4	
881.69	5255.1	
881.86	3843.4	
882.02	3797.6	
882.19	6275	
882.36	7381.6	
882.52	3674.7	
882.69	5066.7	
882.86	5767.8	
883.02	5673.6	
883.19	4389.5	
883.36	4156	
883.52	6062.7	
883.69	7088	
883.86	3641.3	
884.02	3310.9	
884.19	6090.7	
884.36	5564.3	
884.52	4077.5	
884.69	3810.6	
884.86	5331.5	
885.02	6713.9	
885.19	4009.2	
885.36	4197.7	
885.52	5604.6	
885.69	5748.6	
885.86	5263.3	
886.02	4627	
886.19	6085.9	
886.35	5538.4	
886.52	3997.6	
886.69	5094	
886.85	5145.9	
887.02	6468.9	
887.19	6468.9	
887.35	6468.9	
887.52	6468.9	
887.68	6468.9	
887.85	6468.9	
888.02	6468.9	
888.18	6468.9	
888.35	6468.9	
888.51	6468.9	
888.68	6468.9	
888.85	6468.9	
889.01	6468.9	
889.18	6468.9	
889.35	6468.9	
889.51	6468.9	
889.68	6468.9	
889.84	6468.9	
890.01	6468.9	
890.17	6468.9	
890.34	6468.9	
890.51	6468.9	
890.67	6468.9	
890.84	6468.9	
891	6468.9	
891.17	6468.9	
891.34	6468.9	
891.5	6468.9	
891.67	6468.9	
891.83	6468.9	
892	6468.9	
892.16	6468.9	
892.33	6468.9	
892.5	6468.9	
892.66	6468.9	
892.83	6468.9	
892.99	6468.9	
893.16	6468.9	
893.32	6468.9	
893.49	6468.9	
893.65	6468.9	
893.82	6468.9	
893.99	6468.9	
894.15	6468.9	
894.32	6468.9	
894.48	6468.9	
894.65	6468.9	
894.81	6468.9	
894.98	6468.9	
895.14	6468.9	
895.31	6468.9	
895.47	6468.9	
895.64	6468.9	
895.81	6468.9	
895.97	6468.9	
896.14	6468.9	
896.3	6468.9	
896.47	6468.9	
896.63	6468.9	
896.8	6468.9	
896.96	6468.9	
897.13	6468.9	
897.29	6468.9	
897.46	6468.9	
897.62	6468.9	
897.79	6468.9	
897.95	6468.9	
898.12	6468.9	
898.28	6468.9	
898.45	6468.9	
898.61	6468.9	
898.78	6468.9	
898.94	6468.9	
899.11	6468.9	
899.27	6468.9	
899.44	6468.9	
899.6	6468.9	
899.77	6468.9	
899.93	6468.9	
900.1	6468.9	
900.26	6468.9	
900.43	6468.9	
900.59	6468.9	
900.76	6468.9	
900.92	6468.9	
901.09	6468.9	
901.25	6468.9	
901.42	6468.9	
901.58	6468.9	
901.75	6468.9	
901.91	6468.9	
902.07	6468.9	
902.24	6468.9	
902.4	6468.9	
902.57	6468.9	
902.73	6468.9	
902.9	6468.9	
903.06	6468.9	
903.23	6468.9	
903.39	6468.9	
903.56	6468.9	
903.72	6468.9	
903.88	6468.9	
904.05	6468.9	
904.21	6468.9	
904.38	6468.9	
904.54	6468.9	
904.71	6468.9	
904.87	6468.9	
905.03	6468.9	
905.2	6468.9	
905.36	6468.9	
905.53	6468.9	
905.69	6468.9	
905.86	6468.9	
906.02	6468.9	
906.18	6468.9	
906.35	6468.9	
906.51	6468.9	
906.68	6468.9	
906.84	6468.9	
907.01	6468.9	
907.17	6468.9	
907.33	6468.9	
907.5	6468.9	
907.66	6468.9	
907.83	6468.9	
907.99	6468.9	
908.15	6468.9	
908.32	6468.9	
908.48	6468.9	
908.65	6468.9	
908.81	6468.9	
908.97	6468.9	
909.14	6468.9	
909.3	6468.9	
909.47	6468.9	
909.63	6468.9	
909.79	6468.9	
909.96	6468.9	
910.12	6468.9	
910.28	6468.9	
910.45	6468.9	
910.61	6468.9	
910.78	6468.9	
910.94	6468.9	
911.1	6468.9	
911.27	6468.9	
911.43	6468.9	
911.59	6468.9	
911.76	6468.9	
911.92	6468.9	
912.08	6468.9	
912.25	6468.9	
912.41	6468.9	
912.57	6468.9	
912.74	6468.9	
912.9	6468.9	
913.07	6468.9	
913.23	6468.9	
913.39	6468.9	
913.56	6468.9	
913.72	6468.9	
913.88	6468.9	
914.05	6468.9	
914.21	6468.9	
914.37	6468.9	
914.54	6468.9	
914.7	6468.9	
914.86	6468.9	
915.03	6468.9	
915.19	6468.9	
