Wavelength	Intensities	
nm	a.u.	
179.22	1940.3	
179.44	1937.7	
179.65	1942.8	
179.86	1932.6	
180.08	1967.4	
180.29	5024.3	
180.51	3521.8	
180.72	5745.2	
180.94	6724.2	
181.15	3280.8	
181.37	3261	
181.58	5618.3	
181.79	5907	
182.01	3413.3	
182.22	3721.2	
182.44	5874.9	
182.65	4908.3	
182.87	4676.2	
183.08	4089.8	
183.29	6210.8	
183.51	5029.1	
183.72	3779.9	
183.94	5569.8	
184.15	5524.1	
184.37	5537	
184.58	3332	
184.79	4521.2	
185.01	5120.6	
185.22	5943.9	
185.44	4854.4	
185.65	4055.7	
185.86	5385.5	
186.08	4987.5	
186.29	3211.2	
186.51	3497.2	
186.72	5087.2	
186.94	6044.9	
187.15	3968.3	
187.36	4137.6	
187.58	7878.5	
187.79	5651.7	
188.01	4315.8	
188.22	6842.9	
188.43	6782.2	
188.65	5804.6	
188.86	3407.8	
189.08	4132.1	
189.29	5257.1	
189.5	5375.2	
189.72	3812.6	
189.93	3923.9	
190.15	6077	
190.36	7353.6	
190.57	4200.4	
190.79	4138.3	
191	6187.6	
191.22	6134.3	
191.43	4183.3	
191.64	3435.8	
191.86	6388.3	
192.07	6102.9	
192.29	3646.7	
192.5	3861.1	
192.71	6104.3	
192.93	5195	
193.14	3766.9	
193.35	3897.3	
193.57	5289.2	
193.78	6072.2	
194	3103.4	
194.21	3748.5	
194.42	5001.1	
194.64	5550.7	
194.85	4146.5	
195.07	4860.5	
195.28	5597.1	
195.49	4738.3	
195.71	5117.2	
195.92	3549.8	
196.13	5689.3	
196.35	5792.3	
196.56	5451	
196.78	4149.9	
196.99	7172.7	
197.2	6794.5	
197.42	4767	
197.63	4223.6	
197.84	4894.6	
198.06	5674.9	
198.27	3834.5	
198.48	5142.4	
198.7	5283.8	
198.91	5357.5	
199.13	4161.5	
199.34	4157.4	
199.55	5940.5	
199.77	4771.1	
199.98	3596.2	
200.19	4186	
200.41	5340.4	
200.62	5061.2	
200.83	4297.3	
201.05	4709	
201.26	5449	
201.47	5150	
201.69	3733.4	
201.9	3569.6	
202.11	5509.7	
202.33	6577.4	
202.54	3968.3	
202.76	4434.5	
202.97	5597.1	
203.18	5674.9	
203.4	4290.5	
203.61	4296	
203.82	5615.5	
204.04	5119.2	
204.25	4232.5	
204.46	4114.4	
204.68	5529.5	
204.89	5774.6	
205.1	4136.9	
205.32	3543	
205.53	5958.9	
205.74	6020.3	
205.96	2991.4	
206.17	4290.5	
206.38	5896.1	
206.6	6070.9	
206.81	4756.1	
207.02	3914.4	
207.24	5808.7	
207.45	6266.1	
207.66	3915.7	
207.88	3386	
208.09	5736.4	
208.3	5505.6	
208.52	3673.4	
208.73	4113	
208.94	5480.4	
209.15	6242.2	
209.37	3938.9	
209.58	4199.7	
209.79	6064.7	
210.01	5337.7	
210.22	3175.7	
210.43	3259.7	
210.65	5529.5	
210.86	5944.6	
211.07	4013.3	
211.29	3644.7	
211.5	5882.4	
211.71	5478.3	
211.93	3622.2	
212.14	3645.4	
212.35	5442.1	
212.56	5692.7	
212.78	4218.8	
212.99	3461.1	
213.2	6508.4	
213.42	5233.2	
213.63	3756.7	
213.84	4078.9	
214.06	4861.9	
214.27	4977.2	
214.48	3975.1	
214.69	4241.3	
214.91	6217.6	
215.12	6323.4	
215.33	4237.2	
215.55	4764.3	
215.76	6771.9	
215.97	5910.4	
216.18	4158.7	
216.4	4033.8	
216.61	5182	
216.82	6042.2	
217.04	3601	
217.25	3811.3	
217.46	6232.7	
217.67	5950	
217.89	3248.1	
218.1	3348.4	
218.31	5585.5	
218.53	5726.1	
218.74	3843.4	
218.95	3723.2	
219.16	5456.5	
219.38	6470.2	
219.59	3746.4	
219.8	4419.5	
220.01	7148.1	
220.23	5553.4	
220.44	4915.8	
220.65	3635.1	
220.87	5571.8	
221.08	6173.3	
221.29	3342.3	
221.5	4577.2	
221.72	7576.8	
221.93	5215.5	
222.14	4240	
222.35	4976.6	
222.57	5542.5	
222.78	5907	
222.99	4008.6	
223.2	4276.2	
223.42	5833.3	
223.63	5958.2	
223.84	3063.8	
224.05	3026.2	
224.27	7092.8	
224.48	6440.2	
224.69	5036	
224.9	4202.4	
225.12	5714.5	
225.33	5504.3	
225.54	3324.5	
225.75	3758	
225.97	5120.6	
226.18	5383.4	
226.39	4050.2	
226.6	3695.2	
226.82	5264	
227.03	5148.6	
227.24	4188.1	
227.45	3454.9	
227.67	5904.3	
227.88	6505	
228.09	4609.3	
228.3	4730.1	
228.52	5956.9	
228.73	5449.6	
228.94	3868.6	
229.15	3457.7	
229.36	5438.7	
229.58	5357.5	
229.79	3866.6	
230	4617.5	
230.21	6584.2	
230.43	5662	
230.64	4162.8	
230.85	4329.4	
231.06	5981.4	
231.28	5948	
231.49	3431.7	
231.7	4057	
231.91	5874.3	
232.12	5561.6	
232.34	3549.1	
232.55	4063.9	
232.76	6232.7	
232.97	5672.2	
233.18	3685.7	
233.4	4087.7	
233.61	5784.1	
233.82	5248.3	
234.03	3847.5	
234.25	3788.7	
234.46	7682.6	
234.67	5547.3	
234.88	4246.1	
235.09	3720.5	
235.31	5837.4	
235.52	5402.5	
235.73	4143.7	
235.94	3500	
236.15	5263.3	
236.37	6761	
236.58	3666.5	
236.79	3943	
237	5836.7	
237.21	5016.8	
237.43	4337.6	
237.64	3377.8	
237.85	10182	
238.06	5079.6	
238.27	4373.8	
238.48	3455.6	
238.7	5873.6	
238.91	5351.3	
239.12	3977.8	
239.33	3979.2	
239.54	5059.2	
239.76	5455.8	
239.97	3978.5	
240.18	4016.7	
240.39	6974	
240.6	5781.4	
240.82	4104.8	
241.03	3377.1	
241.24	5498.8	
241.45	6395.8	
241.66	3649.5	
241.87	4345.1	
242.09	6257.2	
242.3	6750.8	
242.51	4388.1	
242.72	4069.3	
242.93	6028.5	
243.14	5449	
243.36	4618.9	
243.57	5020.9	
243.78	6395.8	
243.99	5965.7	
244.2	4045.4	
244.41	3650.2	
244.63	5079.6	
244.84	5842.2	
245.05	4222.9	
245.26	4030.4	
245.47	5776	
245.68	6065.4	
245.9	5340.4	
246.11	4205.2	
246.32	5388.9	
246.53	5769.8	
246.74	6530.3	
246.95	3376.4	
247.16	4984.8	
247.38	5517.2	
247.59	3358	
247.8	4030.4	
248.01	5225.1	
248.22	5427.1	
248.43	3626.3	
248.64	3923.2	
248.86	4902.2	
249.07	5248.3	
249.28	3540.3	
249.49	4070	
249.7	6135	
249.91	6323.4	
250.12	3339.6	
250.34	3369.6	
250.55	5613.5	
250.76	5511.8	
250.97	4092.5	
251.18	4197.7	
251.39	6292.7	
251.6	5672.2	
251.81	4251.6	
252.03	4262.5	
252.24	5283.8	
252.45	6002.6	
252.66	3479.5	
252.87	4468	
253.08	5516.5	
253.29	7301.7	
253.5	3520.5	
253.72	4925.4	
253.93	5318.6	
254.14	6578.8	
254.35	3831.1	
254.56	3879.5	
254.77	5783.5	
254.98	5135.6	
255.19	3720.5	
255.41	4855.1	
255.62	5629.2	
255.83	6220.4	
256.04	4349.9	
256.25	4170.3	
256.46	6775.4	
256.67	5179.3	
256.88	4160.1	
257.09	4594.3	
257.31	5189.6	
257.52	5128.1	
257.73	5227.8	
257.94	3783.3	
258.15	5355.4	
258.36	5518.6	
258.57	4833.9	
258.78	3037.8	
258.99	6027.9	
259.2	5373.2	
259.41	3781.2	
259.63	3991.5	
259.84	6429.3	
260.05	6952.2	
260.26	5096.7	
260.47	3752.6	
260.68	6080.4	
260.89	5388.9	
261.1	4640.7	
261.31	3682.9	
261.52	6115.2	
261.73	6521.4	
261.95	4908.3	
262.16	4291.2	
262.37	6245.6	
262.58	6308.4	
262.79	4962.9	
263	3923.9	
263.21	5529.5	
263.42	5014.1	
263.63	3928.7	
263.84	3832.4	
264.05	6111.1	
264.26	6505	
264.47	4784.1	
264.69	4343.1	
264.9	6249	
265.11	5743.9	
265.32	3635.1	
265.53	3774.4	
265.74	5644.9	
265.95	4907.6	
266.16	4073.4	
266.37	4534.9	
266.58	5623.7	
266.79	5365.7	
267	3794.2	
267.21	3504.1	
267.42	5030.5	
267.63	5573.2	
267.84	3960.1	
268.06	3404.4	
268.27	5952.8	
268.48	6266.1	
268.69	3920.5	
268.9	4666.6	
269.11	6282.5	
269.32	4988.2	
269.53	4006.5	
269.74	3706.1	
269.95	5821	
270.16	4842.1	
270.37	4020.2	
270.58	4655.7	
270.79	5342.5	
271	6007.4	
271.21	4283	
271.42	4091.8	
271.63	5672.2	
271.84	5132.2	
272.05	3184.6	
272.26	3641.3	
272.47	5553.4	
272.68	5752.7	
272.89	3842.7	
273.11	4524	
273.32	5292.6	
273.53	6507.8	
273.74	4330.1	
273.95	4210.6	
274.16	6176.7	
274.37	5642.2	
274.58	4446.8	
274.79	3512.3	
275	5677	
275.21	6270.9	
275.42	5277.6	
275.63	4529.4	
275.84	5767.8	
276.05	7342	
276.26	4222.2	
276.47	3976.5	
276.68	5368.4	
276.89	6569.2	
277.1	4529.4	
277.31	3534.1	
277.52	5827.2	
277.73	5973.9	
277.94	3448.8	
278.15	3896.6	
278.36	5722.7	
278.57	5179.3	
278.78	3803.8	
278.99	4348.5	
279.2	5177.9	
279.41	5137	
279.62	5042.8	
279.83	3560.7	
280.04	6798.6	
280.25	4998.4	
280.46	5067.4	
280.67	3964.2	
280.88	5143.8	
281.09	6210.1	
281.3	4239.3	
281.51	5367.7	
281.72	6023.8	
281.93	6112.5	
282.14	3713.6	
282.35	4007.2	
282.56	6017.6	
282.77	6023.1	
282.98	3872	
283.19	4788.2	
283.4	7439.6	
283.61	5449	
283.82	3502.7	
284.03	4973.2	
284.24	5705.6	
284.45	6252.4	
284.66	5011.4	
284.87	4806.6	
285.08	6121.4	
285.29	6258.6	
285.5	3378.5	
285.71	3868.6	
285.92	6250.4	
286.12	6892.8	
286.33	4903.5	
286.54	3885.7	
286.75	6088.6	
286.96	5343.2	
287.17	3540.9	
287.38	4902.8	
287.59	5148.6	
287.8	5111	
288.01	3953.9	
288.22	4508.9	
288.43	6067.4	
288.64	5046.2	
288.85	4696.7	
289.06	4437.9	
289.27	5961	
289.48	6512.5	
289.69	4982.7	
289.9	4455	
290.11	6223.1	
290.32	5174.5	
290.53	4767	
290.74	4351.3	
290.94	6029.9	
291.15	6005.3	
291.36	3825.6	
291.57	4522.6	
291.78	5274.9	
291.99	4949.3	
292.2	3623.5	
292.41	4335.5	
292.62	6080.4	
292.83	5930.2	
293.04	5399.8	
293.25	3643.3	
293.46	5308.3	
293.67	6153.5	
293.88	3790.1	
294.09	3612.6	
294.29	5054.4	
294.5	5683.8	
294.71	4061.8	
294.92	3870	
295.13	5287.9	
295.34	6654.5	
295.55	3411.9	
295.76	3484.3	
295.97	5922.7	
296.18	6808.8	
296.39	3584.6	
296.6	3784	
296.81	5659.2	
297.01	5986.2	
297.22	3889.1	
297.43	3710.2	
297.64	5130.8	
297.85	5085.8	
298.06	3120.4	
298.27	3400.3	
298.48	5543.9	
298.69	5254.4	
298.9	4045.4	
299.11	3676.1	
299.31	5031.2	
299.52	5035.3	
299.73	4359.4	
299.94	4280.3	
300.15	5544.5	
300.36	5126.1	
300.57	4325.3	
300.78	4293.9	
300.99	5365	
301.2	5617.6	
301.4	3687	
301.61	4075.5	
301.82	5861.3	
302.03	5967.1	
302.24	4599.1	
302.45	3546.4	
302.66	5850.4	
302.87	6348.7	
303.08	3741.6	
303.29	5154.7	
303.49	5209.3	
303.7	5575.3	
303.91	3356.6	
304.12	4922.6	
304.33	5085.8	
304.54	5693.4	
304.75	3776.5	
304.96	3583.3	
305.16	5894.1	
305.37	6664.8	
305.58	3238.5	
305.79	3408.5	
306	5853.8	
306.21	4940.4	
306.42	3721.8	
306.63	5792.3	
306.83	5375.2	
307.04	6162.3	
307.25	4188.8	
307.46	4132.1	
307.67	4712.4	
307.88	6021	
308.09	3684.3	
308.29	3886.4	
308.5	5616.9	
308.71	6158.9	
308.92	4042.7	
309.13	3669.3	
309.34	5360.9	
309.55	5466	
309.75	4713.1	
309.96	4338.3	
310.17	5963	
310.38	5198.4	
310.59	4513.7	
310.8	3508.9	
311.01	5384.8	
311.21	5398.4	
311.42	3510.9	
311.63	3657	
311.84	5236.7	
312.05	5646.2	
312.26	4184	
312.46	4556.7	
312.67	5409.4	
312.88	5061.2	
313.09	3628.3	
313.3	3548.4	
313.51	6356.2	
313.71	6714.6	
313.92	3635.8	
314.13	3768.3	
314.34	5753.4	
314.55	5414.8	
314.76	4664.6	
314.96	4073.4	
315.17	5680.4	
315.38	5984.8	
315.59	3664.5	
315.8	3496.6	
316.01	6488.6	
316.21	6520	
316.42	3493.2	
316.63	4033.8	
316.84	5367	
317.05	6281.1	
317.26	4342.4	
317.46	3847.5	
317.67	5448.3	
317.88	5987.6	
318.09	4649.6	
318.3	3362.1	
318.5	5214.1	
318.71	5909.8	
318.92	5926.1	
319.13	4307.6	
319.34	6047.7	
319.54	6156.9	
319.75	3387.3	
319.96	3233.1	
320.17	6002.6	
320.38	6186.2	
320.58	3276.1	
320.79	3988.8	
321	6143.9	
321.21	6167.8	
321.42	4018.1	
321.62	3275.4	
321.83	5163.6	
322.04	5560.9	
322.25	3865.9	
322.46	3668.6	
322.66	5687.2	
322.87	5840.1	
323.08	4450.9	
323.29	3583.3	
323.5	6638.8	
323.7	5103.5	
323.91	4995.7	
324.12	4421.6	
324.33	5587.5	
324.53	5940.5	
324.74	4275.5	
324.95	4493.9	
325.16	4874.2	
325.37	5373.9	
325.57	3661.1	
325.78	3674.1	
325.99	5582.8	
326.2	5042.1	
326.4	5210.7	
326.61	3357.3	
326.82	5442.1	
327.03	5632.6	
327.24	5223.7	
327.44	4984.8	
327.65	5765	
327.86	4728.8	
328.07	4283	
328.27	3466.5	
328.48	6234	
328.69	5061.9	
328.9	5266.7	
329.1	3953.9	
329.31	5402.5	
329.52	6410.8	
329.73	3637.2	
329.93	4087.1	
330.14	5481	
330.35	5763	
330.56	6029.2	
330.76	4474.8	
330.97	5356.1	
331.18	5727.5	
331.39	4100	
331.59	3315.7	
331.8	6155.5	
332.01	6236.7	
332.22	3769.6	
332.42	4306.9	
332.63	5640.8	
332.84	5190.2	
333.05	4092.5	
333.25	3670.6	
333.46	5320.6	
333.67	5573.2	
333.88	3803.1	
334.08	4240	
334.29	7393.8	
334.5	6257.2	
334.7	3551.9	
334.91	5191.6	
335.12	5060.5	
335.33	6027.2	
335.53	4027.7	
335.74	6040.1	
335.95	5298.1	
336.16	5182.7	
336.36	4096.6	
336.57	4668	
336.78	5029.8	
336.98	6182.1	
337.19	5003.9	
337.4	3989.4	
337.61	6657.9	
337.81	4951.3	
338.02	3700	
338.23	4788.8	
338.43	6353.5	
338.64	5139	
338.85	3662.5	
339.05	4834.6	
339.26	6436.1	
339.47	4989.5	
339.68	3637.9	
339.88	5552	
340.09	5827.8	
340.3	6047	
340.5	4276.2	
340.71	3290.4	
340.92	4980.7	
341.13	6284.5	
341.33	3495.2	
341.54	4337.6	
341.75	5750	
341.95	5412.1	
342.16	4095.3	
342.37	4515.1	
342.57	5076.9	
342.78	5510.4	
342.99	4557.4	
343.19	3247.4	
343.4	5982.8	
343.61	5766.4	
343.81	3885.7	
344.02	3575.8	
344.23	5907.7	
344.43	6402	
344.64	4556.7	
344.85	4432.5	
345.06	5781.4	
345.26	6165.1	
345.47	4235.9	
345.68	4997.7	
345.88	4842.8	
346.09	6005.3	
346.3	4305.5	
346.5	3225.6	
346.71	5565.7	
346.92	5241.4	
347.12	3324.5	
347.33	4255.7	
347.54	6118.6	
347.74	6579.4	
347.95	4207.9	
348.16	3068.5	
348.36	5304.2	
348.57	5143.8	
348.78	4171.7	
348.98	4558.8	
349.19	5517.2	
349.39	5009.3	
349.6	3350.5	
349.81	3680.2	
350.01	5759.6	
350.22	5190.2	
350.43	4050.9	
350.63	4885.1	
350.84	5571.8	
351.05	5289.9	
351.25	3719.1	
351.46	3284.3	
351.67	6189.6	
351.87	5227.1	
352.08	3971.7	
352.29	4506.2	
352.49	5973.2	
352.7	5696.1	
352.9	3551.2	
353.11	4446.1	
353.32	6741.9	
353.52	5337	
353.73	3449.5	
353.94	4414.7	
354.14	5851	
354.35	5623	
354.55	3536.2	
354.76	4085	
354.97	5793.7	
355.17	5578.7	
355.38	3390.8	
355.59	4727.4	
355.79	5188.9	
356	5627.1	
356.2	3994.2	
356.41	3467.9	
356.62	4898.1	
356.82	5400.5	
357.03	4277.5	
357.24	3848.1	
357.44	5257.8	
357.65	5316.5	
357.85	5088.5	
358.06	4031.1	
358.27	4918.5	
358.47	5101.5	
358.68	3277.4	
358.88	4262.5	
359.09	5728.9	
359.3	6165.8	
359.5	5030.5	
359.71	4391.5	
359.91	6607.4	
360.12	5871.5	
360.33	4192.9	
360.53	4668.7	
360.74	5128.8	
360.94	5259.2	
361.15	4498	
361.36	3584.6	
361.56	5996.5	
361.77	5386.2	
361.97	4979.3	
362.18	3870.7	
362.38	5971.9	
362.59	5010	
362.8	3542.3	
363	3396.2	
363.21	4827.1	
363.41	5530.2	
363.62	4067.3	
363.83	5131.5	
364.03	5555.5	
364.24	6585.6	
364.44	5250.3	
364.65	5107	
364.85	5299.5	
365.06	4922.6	
365.27	3694.5	
365.47	3757.3	
365.68	6347.3	
365.88	5281.7	
366.09	4162.8	
366.29	3822.2	
366.5	5599.1	
366.71	6091.3	
366.91	5165.7	
367.12	4287.8	
367.32	6660.7	
367.53	5855.8	
367.73	4186	
367.94	5285.8	
368.14	5827.8	
368.35	6828.6	
368.56	4241.3	
368.76	3555.3	
368.97	5959.6	
369.17	7693.5	
369.38	3723.2	
369.58	4012.7	
369.79	4882.4	
369.99	6326.9	
370.2	5019.6	
370.4	4040	
370.61	5636	
370.82	6806.1	
371.02	3965.6	
371.23	3235.1	
371.43	4737	
371.64	6138.4	
371.84	3940.3	
372.05	5213.4	
372.25	7616.4	
372.46	5875.6	
372.66	3990.8	
372.87	3904.1	
373.07	5963.7	
373.28	7596.6	
373.48	5010	
373.69	4721.9	
373.9	5348.6	
374.1	5408.7	
374.31	4973.2	
374.51	4407.9	
374.72	6266.1	
374.92	5022.3	
375.13	5055.8	
375.33	4214	
375.54	5786.9	
375.74	5141.1	
375.95	4291.9	
376.15	5654.4	
376.36	5707	
376.56	5593.7	
376.77	4318.5	
376.97	4816.8	
377.18	6850.5	
377.38	5849.7	
377.59	5162.2	
377.79	3795.6	
378	5602.6	
378.2	6062	
378.41	3852.2	
378.61	3743	
378.82	6131.6	
379.02	5142.4	
379.23	3961.5	
379.43	5254.4	
379.64	6139.1	
379.84	5827.8	
380.05	3848.8	
380.25	3801	
380.46	5928.2	
380.66	5440.8	
380.87	5251.7	
381.07	5672.2	
381.28	6581.5	
381.48	5912.5	
381.69	3831.7	
381.89	3912.3	
382.1	4805.9	
382.3	6114.6	
382.51	5061.9	
382.71	6049.7	
382.91	5945.3	
383.12	6494.1	
383.32	4304.8	
383.53	4514.4	
383.73	5770.5	
383.94	5531.6	
384.14	4382	
384.35	3544.4	
384.55	5537	
384.76	5917.9	
384.96	4286.4	
385.17	4642.7	
385.37	5917.9	
385.58	5205.3	
385.78	4630.5	
385.98	3416	
386.19	5391.6	
386.39	5784.1	
386.6	4052.9	
386.8	4271.4	
387.01	5868.8	
387.21	5980.1	
387.42	4800.4	
387.62	5317.2	
387.83	5157.5	
388.03	5924.1	
388.23	4293.2	
388.44	5172.5	
388.64	4831.8	
388.85	4949.9	
389.05	4640	
389.26	5293.3	
389.46	6919.4	
389.67	6283.9	
389.87	4569	
390.07	4717.2	
390.28	5510.4	
390.48	5048.2	
390.69	3861.1	
390.89	4130.8	
391.1	5261.2	
391.3	6307.1	
391.5	5421.7	
391.71	6063.4	
391.91	5936.4	
392.12	7070.3	
392.32	5561.6	
392.53	4651.6	
392.73	5292.6	
392.93	5540.4	
393.14	4259.8	
393.34	5113.1	
393.55	6027.2	
393.75	5558.9	
393.95	4379.2	
394.16	4261.1	
394.36	5279	
394.57	5982.8	
394.77	3747.1	
394.98	4186.7	
395.18	5214.8	
395.38	5289.2	
395.59	5117.9	
395.79	3983.3	
396	5292.6	
396.2	5894.7	
396.4	4900.1	
396.61	4797.7	
396.81	6049.7	
397.02	5227.8	
397.22	5131.5	
397.42	5110.4	
397.63	6044.9	
397.83	5176.6	
398.04	3922.5	
398.24	4431.1	
398.44	5797.8	
398.65	4764.9	
398.85	3731.4	
399.05	3796.3	
399.26	5040.1	
399.46	6956.3	
399.67	4224.3	
399.87	4026.3	
400.07	5522	
400.28	5932.3	
400.48	4072	
400.69	5190.2	
400.89	6102.3	
401.09	6562.4	
401.3	3871.3	
401.5	5111	
401.7	6733	
401.91	7103	
402.11	4248.2	
402.32	4532.2	
402.52	6085.9	
402.72	6109.1	
402.93	4720.6	
403.13	3565.5	
403.33	6942.6	
403.54	5582.8	
403.74	4543.8	
403.94	5452.4	
404.15	5642.2	
404.35	6907.8	
404.56	4267.3	
404.76	6172.6	
404.96	6081.8	
405.17	5899.5	
405.37	5170.4	
405.57	4747.9	
405.78	6155.5	
405.98	5601.9	
406.18	4207.2	
406.39	5208	
406.59	6124.8	
406.79	5765	
407	4081.6	
407.2	4207.2	
407.4	6095.4	
407.61	6387.6	
407.81	4083	
408.01	6230.6	
408.22	5005.9	
408.42	7072.3	
408.62	5204.6	
408.83	4584.7	
409.03	5655.8	
409.23	5373.9	
409.44	4696	
409.64	4934.9	
409.84	6477	
410.05	6337.1	
410.25	4659.8	
410.45	4559.5	
410.66	5775.3	
410.86	8426.7	
411.06	4978.6	
411.27	4753.3	
411.47	8122.2	
411.67	5967.1	
411.88	5070.1	
412.08	5302.2	
412.28	6581.5	
412.49	7219.1	
412.69	4743.8	
412.89	4764.9	
413.09	6908.5	
413.3	6825.9	
413.5	4844.8	
413.7	4423.6	
413.91	5997.1	
414.11	6918	
414.31	4668	
414.52	5133.6	
414.72	6554.2	
414.92	6475	
415.12	4653.7	
415.33	5188.2	
415.53	6866.8	
415.73	7055.9	
415.94	5610.8	
416.14	5012.7	
416.34	5805.3	
416.55	5633.3	
416.75	6217.6	
416.95	5596.4	
417.15	6795.8	
417.36	7578.2	
417.56	6419	
417.76	5416.9	
417.97	7217.7	
418.17	6886	
418.37	4939	
418.57	5114.5	
418.78	6566.5	
418.98	6321.4	
419.18	5978	
419.38	5927.5	
419.59	6316.6	
419.79	5943.2	
419.99	4916.5	
420.2	5331.5	
420.4	6925.5	
420.6	7109.9	
420.8	4773.1	
421.01	4679.6	
421.21	6631.3	
421.41	6935.1	
421.61	5329.5	
421.82	4959.5	
422.02	6135	
422.22	7204.1	
422.42	5769.8	
422.63	5464	
422.83	6365.8	
423.03	7561.1	
423.23	5476.3	
423.44	4416.8	
423.64	6425.2	
423.84	6189.6	
424.04	4917.2	
424.25	4536.9	
424.45	7456.7	
424.65	7346.7	
424.85	4332.1	
425.06	4898.7	
425.26	7392.5	
425.46	5862.7	
425.66	5526.1	
425.87	5079	
426.07	7125.6	
426.27	6988.4	
426.47	5322.7	
426.67	4642.1	
426.88	7466.9	
427.08	6965.8	
427.28	5532.2	
427.48	4552	
427.69	5784.8	
427.89	6337.8	
428.09	5517.9	
428.29	4580.6	
428.5	7216.4	
428.7	6716.7	
428.9	4472.1	
429.1	5105.6	
429.3	6580.1	
429.51	7091.4	
429.71	4857.8	
429.91	5666	
430.11	6904.4	
430.31	7142.6	
430.52	5161.6	
430.72	5394.3	
430.92	7571.3	
431.12	6978.8	
431.32	4783.4	
431.53	5333.6	
431.73	5797.1	
431.93	7582.3	
432.13	4703.5	
432.33	4590.2	
432.54	6326.2	
432.74	6722.8	
432.94	4493.2	
433.14	5667.4	
433.34	6801.3	
433.55	6285.2	
433.75	5528.8	
433.95	7424.6	
434.15	6670.2	
434.35	6318.7	
434.56	4728.8	
434.76	4126	
434.96	6634.1	
435.16	6866.2	
435.36	4551.3	
435.56	5713.2	
435.77	6227.2	
435.97	6440.9	
436.17	6477	
436.37	5726.8	
436.57	6230.6	
436.78	6094.8	
436.98	5629.9	
437.18	6349.4	
437.38	6911.2	
437.58	6457.2	
437.78	6412.2	
437.99	5015.5	
438.19	7022.5	
438.39	7765.2	
438.59	5072.8	
438.79	4410.6	
438.99	7623.2	
439.2	6432.7	
439.4	4635.2	
439.6	4538.3	
439.8	6775.4	
440	7968	
440.2	5678.3	
440.4	5793	
440.61	7143.3	
440.81	7686.7	
441.01	4709	
441.21	5664	
441.41	7523.6	
441.61	7185	
441.81	6011.5	
442.02	7088	
442.22	7999.4	
442.42	7260.7	
442.62	4932.2	
442.82	4918.5	
443.02	7487.4	
443.22	6591	
443.43	5281.7	
443.63	4823.6	
443.83	6417.7	
444.03	6516	
444.23	6133.7	
444.43	5679	
444.63	6733	
444.83	8019.2	
445.04	4919.9	
445.24	6343.9	
445.44	7178.8	
445.64	7288.7	
445.84	5783.5	
446.04	5769.8	
446.24	6544.6	
446.44	7609.6	
446.65	4979.3	
446.85	5358.9	
447.05	6706.4	
447.25	7565.9	
447.45	5517.2	
447.65	4825.7	
447.85	6858	
448.05	6597.9	
448.25	5912.5	
448.46	5745.2	
448.66	6834.1	
448.86	6529.6	
449.06	4643.4	
449.26	5898.1	
449.46	7271	
449.66	6217	
449.86	5363.6	
450.06	5406	
450.26	6420.4	
450.47	7111.9	
450.67	5658.5	
450.87	6028.5	
451.07	7129.7	
451.27	6951.5	
451.47	4938.3	
451.67	5564.3	
451.87	6548.7	
452.07	7837.6	
452.27	5142.4	
452.47	5167	
452.67	6961	
452.88	7550.9	
453.08	4461.8	
453.28	6666.1	
453.48	8144.1	
453.68	6845.7	
453.88	5087.8	
454.08	5367	
454.28	7225.9	
454.48	6907.8	
454.68	5881.1	
454.88	6474.3	
455.08	7390.4	
455.28	7084.6	
455.48	4944.5	
455.68	5638.1	
455.89	7888.8	
456.09	7476.5	
456.29	5269.4	
456.49	5322.7	
456.69	7773.4	
456.89	6932.4	
457.09	5929.6	
457.29	6236.7	
457.49	7275.1	
457.69	7464.8	
457.89	5671.5	
458.09	5022.3	
458.29	6966.5	
458.49	7795.9	
458.69	6144.6	
458.89	5475.6	
459.09	8102.4	
459.29	8139.3	
459.49	5692.7	
459.69	6543.3	
459.9	7538.6	
460.1	7036.8	
460.3	5522.7	
460.5	5233.9	
460.7	7551.5	
460.9	7197.9	
461.1	4956.1	
461.3	6285.9	
461.5	8224.6	
461.7	7886.7	
461.9	5306.3	
462.1	5930.2	
462.3	7176.1	
462.5	7858.1	
462.7	5448.3	
462.9	5578	
463.1	8910.7	
463.3	8582.4	
463.5	5761.6	
463.7	6687.3	
463.9	7436.9	
464.1	7818.5	
464.3	5782.8	
464.5	6107.7	
464.7	8054	
464.9	7593.2	
465.1	7496.9	
465.3	6445.6	
465.5	8487.5	
465.7	8424.7	
465.9	6688.7	
466.1	6586.3	
466.3	8301.8	
466.5	8043.1	
466.7	7466.2	
466.9	6295.5	
467.1	7935.9	
467.3	8922.3	
467.5	7393.2	
467.7	6212.9	
467.9	9125.7	
468.1	10096	
468.3	7038.9	
468.5	7464.2	
468.7	7949.5	
468.9	7972.1	
469.1	6490	
469.3	7245.7	
469.5	9968.1	
469.7	7476.5	
469.9	6995.9	
470.1	6237.4	
470.3	7967.3	
470.5	7996	
470.7	7563.8	
470.9	6267.5	
471.1	7732.4	
471.3	8236.2	
471.5	6176.7	
471.69	8183	
471.89	7526.3	
472.09	7102.4	
472.29	7005.4	
472.49	7431.4	
472.69	7312.6	
472.89	8210.3	
473.09	6086.6	
473.29	6285.2	
473.49	7561.8	
473.69	7737.9	
473.89	7240.3	
474.09	6378.1	
474.29	9045.2	
474.49	8749.6	
474.69	7253.9	
474.89	6658.6	
475.09	7833.5	
475.29	7735.9	
475.49	5961.6	
475.69	6242.9	
475.88	9415.9	
476.08	8032.8	
476.28	5890	
476.48	6453.8	
476.68	8557.1	
476.88	8455.4	
477.08	6265.4	
477.28	6556.2	
477.48	7851.2	
477.68	8653.4	
477.88	6096.8	
478.08	6338.5	
478.28	8890.2	
478.48	8007.6	
478.67	6516	
478.87	5913.2	
479.07	8744.1	
479.27	8145.5	
479.47	6746	
479.67	6593.8	
479.87	8591.2	
480.07	9123.7	
480.27	5920.7	
480.47	7606.2	
480.67	8146.8	
480.87	8858.8	
481.06	6217.6	
481.26	7131	
481.46	8046.5	
481.66	8011	
481.86	6695.5	
482.06	7804.1	
482.26	7790.5	
482.46	8911.4	
482.66	6584.2	
482.86	6287.3	
483.05	8157.7	
483.25	7563.1	
483.45	9220.6	
483.65	6689.3	
483.85	7759.1	
484.05	8057.4	
484.25	7034.8	
484.45	7692.2	
484.65	8969.4	
484.84	8963.3	
485.04	6609.5	
485.24	6569.9	
485.44	9283.4	
485.64	7502.4	
485.84	5810.1	
486.04	7262.8	
486.24	7968	
486.44	8254	
486.63	5780.7	
486.83	6644.3	
487.03	7746.8	
487.23	8007.6	
487.43	5893.4	
487.63	8492.9	
487.83	8078.6	
488.02	9088.9	
488.22	6968.6	
488.42	7615.7	
488.62	8901.2	
488.82	7873.8	
489.02	6548	
489.22	6613.6	
489.41	8867.7	
489.61	8485.4	
489.81	6352.8	
490.01	6325.5	
490.21	8743.5	
490.41	9438.4	
490.61	6056.5	
490.8	6434.7	
491	8154.3	
491.2	7456.7	
491.4	7040.2	
491.6	6158.2	
491.8	8272.4	
491.99	8425.3	
492.19	5972.6	
492.39	6330.3	
492.59	8787.8	
492.79	8817.2	
492.99	7289.4	
493.18	6350.1	
493.38	8929.8	
493.58	9679.4	
493.78	7079.8	
493.98	6606.1	
494.18	8647.9	
494.37	8067.6	
494.57	7323.5	
494.77	7176.8	
494.97	8852.7	
495.17	9108.7	
495.37	6797.2	
495.56	7140.6	
495.76	9343.5	
495.96	9004.2	
496.16	8054	
496.36	6893.5	
496.55	9165.3	
496.75	8651.3	
496.95	7366.5	
497.15	7247.1	
497.35	9041.8	
497.54	9165.3	
497.74	6996.5	
497.94	8759.2	
498.14	9841.2	
498.34	9620	
498.53	6688	
498.73	7533.1	
498.93	8498.4	
499.13	9118.9	
499.33	7342.7	
499.52	7975.5	
499.72	9030.9	
499.92	9368.8	
500.12	6995.9	
500.32	7343.3	
500.51	9293.7	
500.71	9202.9	
500.91	8190.5	
501.11	7669	
501.31	9290.3	
501.5	9721	
501.7	8344.1	
501.9	7357.7	
502.1	9130.5	
502.29	9440.5	
502.49	7828.7	
502.69	8441	
502.89	9392	
503.09	9296.4	
503.28	6842.9	
503.48	7002	
503.68	8546.2	
503.88	8626.7	
504.07	8059.4	
504.27	7481.2	
504.47	8890.9	
504.67	9214.5	
504.86	7970.7	
505.06	7600.7	
505.26	8570.1	
505.46	10660	
505.65	7468.9	
505.85	7707.2	
506.05	8605.6	
506.25	9141.4	
506.44	6799.3	
506.64	7802.8	
506.84	8556.4	
507.04	9625.5	
507.23	7127.6	
507.43	7717.4	
507.63	10598	
507.83	8999.5	
508.02	7626	
508.22	7060.7	
508.42	11010	
508.62	8587.1	
508.81	7655.3	
509.01	8227.4	
509.21	8438.3	
509.4	8802.2	
509.6	7815.7	
509.8	7140.6	
510	8781.7	
510.19	10421	
510.39	7202	
510.59	7333.1	
510.79	8565.3	
510.98	10083	
511.18	7299	
511.38	7475.8	
511.57	9427.5	
511.77	9364	
511.97	8198.7	
512.17	7081.2	
512.36	9525.1	
512.56	9514.9	
512.76	7207.5	
512.95	6948.8	
513.15	9621.4	
513.35	8189.1	
513.55	8158.4	
513.74	7312.6	
513.94	9728.5	
514.14	8941.4	
514.33	8350.3	
514.53	8114.1	
514.73	8985.1	
514.92	9098.4	
515.12	7534.5	
515.32	7415.7	
515.51	9276.6	
515.71	10005	
515.91	9207.7	
516.11	7350.8	
516.3	11144	
516.5	8898.4	
516.7	8112.7	
516.89	8710	
517.09	9071.1	
517.29	8958.5	
517.48	8352.3	
517.68	7739.3	
517.88	8854.1	
518.07	9453.4	
518.27	8297.7	
518.47	7343.3	
518.66	10183	
518.86	8781	
519.06	7206.8	
519.25	7718.8	
519.45	9157.8	
519.65	10692	
519.84	8469	
520.04	9251.4	
520.24	11110	
520.43	9884.2	
520.63	8215.1	
520.83	7862.2	
521.02	8980.3	
521.22	9745.6	
521.42	8515.5	
521.61	8999.5	
521.81	9380.4	
522.01	9651.4	
522.2	8393.3	
522.4	8088.1	
522.6	10157	
522.79	8905.3	
522.99	8224.6	
523.18	7623.2	
523.38	9867.8	
523.58	9986.6	
523.77	9837.8	
523.97	7691.5	
524.17	12028	
524.36	11201	
524.56	9341.5	
524.76	8857.5	
524.95	10086	
525.15	9797.5	
525.34	8652.7	
525.54	8749.6	
525.74	10512	
525.93	9559.2	
526.13	10081	
526.33	8817.2	
526.52	10985	
526.72	10459	
526.91	10202	
527.11	9409.1	
527.31	11183	
527.5	11606	
527.7	9312.8	
527.89	8360.5	
528.09	10082	
528.29	10791	
528.48	9864.4	
528.68	9602.2	
528.87	11196	
529.07	11244	
529.27	9570.8	
529.46	8897.7	
529.66	10858	
529.85	11411	
530.05	8721.6	
530.25	9620	
530.44	12364	
530.64	10878	
530.83	9382.4	
531.03	9639.8	
531.23	11422	
531.42	11338	
531.62	10492	
531.81	9719.7	
532.01	11650	
532.21	12220	
532.4	9535.3	
532.6	10005	
532.79	12715	
532.99	12011	
533.18	10114	
533.38	11166	
533.58	11531	
533.77	12315	
533.97	10214	
534.16	11077	
534.36	12680	
534.55	11634	
534.75	11329	
534.95	10318	
535.14	12491	
535.34	11707	
535.53	9949	
535.73	12137	
535.92	13184	
536.12	11903	
536.31	10108	
536.51	11387	
536.71	12283	
536.9	11818	
537.1	10358	
537.29	10596	
537.49	12726	
537.68	11842	
537.88	10920	
538.07	10101	
538.27	12127	
538.46	13278	
538.66	10128	
538.86	10706	
539.05	12207	
539.25	12759	
539.44	10875	
539.64	10514	
539.83	12053	
540.03	13123	
540.22	10430	
540.42	10518	
540.61	12311	
540.81	12485	
541	11039	
541.2	11749	
541.39	11893	
541.59	12269	
541.78	11451	
541.98	10495	
542.18	11603	
542.37	11494	
542.57	10833	
542.76	11516	
542.96	11597	
543.15	12467	
543.35	10800	
543.54	10140	
543.74	12728	
543.93	12232	
544.13	10719	
544.32	11990	
544.52	12590	
544.71	11757	
544.91	9815.2	
545.1	11230	
545.3	11808	
545.49	12485	
545.69	9832.3	
545.88	10460	
546.08	13545	
546.27	13056	
546.47	11112	
546.66	10287	
546.86	12825	
547.05	13532	
547.24	10555	
547.44	10423	
547.63	11637	
547.83	12934	
548.02	10872	
548.22	11068	
548.41	11444	
548.61	12856	
548.8	10399	
549	10353	
549.19	12102	
549.39	12476	
549.58	9962	
549.78	10652	
549.97	12687	
550.17	12037	
550.36	11431	
550.55	12684	
550.75	11946	
550.94	12955	
551.14	10125	
551.33	10729	
551.53	11455	
551.72	12465	
551.92	10686	
552.11	10503	
552.31	12443	
552.5	12379	
552.69	12261	
552.89	10022	
553.08	12459	
553.28	11896	
553.47	10469	
553.67	11675	
553.86	13076	
554.06	11231	
554.25	9617.3	
554.44	10195	
554.64	13964	
554.83	13420	
555.03	10284	
555.22	10485	
555.42	12609	
555.61	12240	
555.8	10443	
556	10692	
556.19	11413	
556.39	12642	
556.58	10465	
556.78	10396	
556.97	12183	
557.16	11733	
557.36	11740	
557.55	10092	
557.75	11072	
557.94	13097	
558.13	10154	
558.33	9888.3	
558.52	12706	
558.72	11505	
558.91	10039	
559.1	10237	
559.3	11256	
559.49	10930	
559.69	9546.3	
559.88	10615	
560.07	12212	
560.27	12514	
560.46	10771	
560.66	10788	
560.85	11770	
561.04	10927	
561.24	9906.7	
561.43	10128	
561.63	11244	
561.82	11436	
562.01	11512	
562.21	10416	
562.4	12050	
562.59	13017	
562.79	10198	
562.98	9962.7	
563.18	11880	
563.37	13368	
563.56	10828	
563.76	9845.3	
563.95	11420	
564.14	11293	
564.34	10245	
564.53	10003	
564.73	11871	
564.92	12339	
565.11	10545	
565.31	9659.6	
565.5	12488	
565.69	11463	
565.89	9987.3	
566.08	10320	
566.27	12397	
566.47	12783	
566.66	10931	
566.85	9599.5	
567.05	11860	
567.24	11334	
567.44	9910.8	
567.63	11276	
567.82	12102	
568.02	12018	
568.21	9879.4	
568.4	10338	
568.6	11757	
568.79	11762	
568.98	9669.1	
569.18	9971.6	
569.37	11680	
569.56	13910	
569.76	10301	
569.95	11338	
570.14	12070	
570.34	11921	
570.53	9731.3	
570.72	9746.3	
570.91	12623	
571.11	11646	
571.3	10185	
571.49	11118	
571.69	11667	
571.88	11231	
572.07	10752	
572.27	10661	
572.46	11236	
572.65	12230	
572.85	9951.1	
573.04	10258	
573.23	12505	
573.43	11729	
573.62	9606.3	
573.81	10352	
574	11638	
574.2	11561	
574.39	10054	
574.58	10214	
574.78	12698	
574.97	11911	
575.16	10673	
575.36	10881	
575.55	12297	
575.74	12430	
575.93	9653.4	
576.13	10856	
576.32	11522	
576.51	12154	
576.71	9984.5	
576.9	11658	
577.09	12556	
577.28	11997	
577.48	10645	
577.67	9485.5	
577.86	11592	
578.05	11953	
578.25	10183	
578.44	10275	
578.63	11708	
578.83	12877	
579.02	9477.3	
579.21	11237	
579.4	11910	
579.6	11558	
579.79	10390	
579.98	12607	
580.17	12261	
580.37	12311	
580.56	9681.4	
580.75	10522	
580.94	12756	
581.14	12583	
581.33	10989	
581.52	9791.3	
581.71	11987	
581.91	12731	
582.1	9455.5	
582.29	10043	
582.48	11559	
582.68	11579	
582.87	10677	
583.06	10251	
583.25	11966	
583.45	11353	
583.64	10877	
583.83	11765	
584.02	11290	
584.21	11824	
584.41	10843	
584.6	10048	
584.79	11598	
584.98	12473	
585.18	9527.8	
585.37	9575.6	
585.56	11077	
585.75	11983	
585.94	9743.6	
586.14	10397	
586.33	12562	
586.52	11419	
586.71	10241	
586.91	9834.3	
587.1	10753	
587.29	11907	
587.48	9762	
587.67	9674.6	
587.87	11772	
588.06	11768	
588.25	10985	
588.44	10228	
588.63	11420	
588.83	11920	
589.02	9583.1	
589.21	9473.9	
589.4	10910	
589.59	10753	
589.78	8619.9	
589.98	8914.1	
590.17	10291	
590.36	10985	
590.55	8112.7	
590.74	8984.4	
590.94	12267	
591.13	10675	
591.32	8804.9	
591.51	8327	
591.7	11237	
591.89	10768	
592.09	8452	
592.28	9030.2	
592.47	9935.4	
592.66	11908	
592.85	8519.5	
593.05	8618.5	
593.24	10430	
593.43	11328	
593.62	8807.6	
593.81	9237	
594	10500	
594.19	10701	
594.39	8628.1	
594.58	8583	
594.77	10886	
594.96	11512	
595.15	8493.6	
595.34	9238.4	
595.54	10914	
595.73	9879.4	
595.92	7836.9	
596.11	9142.1	
596.3	11322	
596.49	9966.1	
596.68	8848.6	
596.88	9280.7	
597.07	11011	
597.26	9756.5	
597.45	8367.3	
597.64	9536.7	
597.83	10087	
598.02	10699	
598.22	8419.2	
598.41	9029.5	
598.6	10525	
598.79	9885.5	
598.98	8442.4	
599.17	9497.1	
599.36	10531	
599.55	11770	
599.74	10555	
599.94	10309	
600.13	11122	
600.32	9826.8	
600.51	8116.8	
600.7	8304.5	
600.89	11701	
601.08	11753	
601.27	8050.6	
601.47	9047.2	
601.66	10843	
601.85	11646	
602.04	8713.4	
602.23	8888.9	
602.42	9962	
602.61	10637	
602.8	8495.7	
602.99	8497	
603.18	10369	
603.37	10600	
603.57	9015.8	
603.76	9777	
603.95	11296	
604.14	10774	
604.33	8411.7	
604.52	8787.2	
604.71	10563	
604.9	10133	
605.09	9467.1	
605.28	9305.3	
605.47	11110	
605.66	10746	
605.86	9052	
606.05	8374.8	
606.24	11073	
606.43	9543.5	
606.62	8748.2	
606.81	9613.2	
607	10883	
607.19	10171	
607.38	8131.1	
607.57	8409	
607.76	9860.3	
607.95	9415.2	
608.14	8779	
608.33	9430.9	
608.52	9859.6	
608.72	10830	
608.91	7996	
609.1	7920.9	
609.29	10019	
609.48	9448.6	
609.67	8922.3	
609.86	7943.4	
610.05	9515.5	
610.24	9863.7	
610.43	7707.9	
610.62	7468.3	
610.81	10966	
611	10874	
611.19	8008.2	
611.38	8769.4	
611.57	10057	
611.76	11603	
611.95	7599.3	
612.14	7462.1	
612.33	9914.9	
612.52	9420.7	
612.71	8220.5	
612.9	7374.1	
613.09	9027.4	
613.28	11507	
613.47	7912.7	
613.66	8976.2	
613.85	10099	
614.04	9499.8	
614.24	8008.2	
614.43	7119.4	
614.62	10120	
614.81	10050	
615	8573.5	
615.19	8696.4	
615.38	9328.5	
615.57	9710.1	
615.76	8350.9	
615.95	9426.1	
616.14	10079	
616.33	9845.3	
616.52	8744.1	
616.71	9028.8	
616.9	10106	
617.09	9954.5	
617.28	8043.7	
617.47	9348.3	
617.66	9062.9	
617.85	9177.6	
618.04	8963.3	
618.22	8448.6	
618.41	9507.4	
618.6	10468	
618.79	8416.5	
618.98	8003.5	
619.17	10783	
619.36	9120.3	
619.55	8258.1	
619.74	8305.2	
619.93	10150	
620.12	9465	
620.31	8815.1	
620.5	9067.7	
620.69	10729	
620.88	11088	
621.07	9786.6	
621.26	8785.1	
621.45	10212	
621.64	10245	
621.83	8880.7	
622.02	8039.6	
622.21	10283	
622.4	10060	
622.59	9493	
622.78	9224.7	
622.97	9529.2	
623.16	10746	
623.35	8759.2	
623.54	7794.6	
623.72	9833.7	
623.91	10016	
624.1	9057.5	
624.29	7707.2	
624.48	11041	
624.67	10387	
624.86	8935.3	
625.05	7952.3	
625.24	11293	
625.43	9537.4	
625.62	10697	
625.81	8191.2	
626	10702	
626.19	9909.4	
626.38	9028.8	
626.56	8353	
626.75	9829.6	
626.94	10565	
627.13	9003.6	
627.32	7763.8	
627.51	10354	
627.7	11843	
627.89	7770	
628.08	9010.4	
628.27	9588.6	
628.46	9710.8	
628.65	8159.8	
628.83	7778.9	
629.02	10378	
629.21	9637.1	
629.4	8645.2	
629.59	8769.4	
629.78	9520.3	
629.97	10527	
630.16	8800.1	
630.35	8264.2	
630.54	11062	
630.72	10690	
630.91	8266.3	
631.1	8895	
631.29	10237	
631.48	10396	
631.67	8913.4	
631.86	8392.6	
632.05	9680.1	
632.24	9798.8	
632.42	8045.1	
632.61	8708.6	
632.8	9835	
632.99	9529.2	
633.18	8683.4	
633.37	9078	
633.56	10136	
633.75	9892.4	
633.93	8553	
634.12	8223.3	
634.31	11041	
634.5	10636	
634.69	8255.4	
634.88	8763.9	
635.07	9912.9	
635.25	10582	
635.44	9280.7	
635.63	9570.8	
635.82	9649.3	
636.01	9249.3	
636.2	9210.4	
636.39	8722.3	
636.57	10899	
636.76	10569	
636.95	8056.7	
637.14	9564.7	
637.33	10107	
637.52	11165	
637.7	7849.9	
637.89	8833.6	
638.08	9669.1	
638.27	11249	
638.46	8862.9	
638.65	9251.4	
638.83	11221	
639.02	9544.2	
639.21	8718.2	
639.4	9239.1	
639.59	9890.3	
639.78	9518.3	
639.96	8013.7	
640.15	8014.4	
640.34	9835.7	
640.53	9991.4	
640.72	7584.3	
640.91	8008.9	
641.09	9167.4	
641.28	10621	
641.47	7880.6	
641.66	8872.5	
641.85	9812.5	
642.03	10104	
642.22	8595.3	
642.41	8041.7	
642.6	9151.7	
642.79	8612.4	
642.97	7787.7	
643.16	8625.4	
643.35	9105.3	
643.54	8967.4	
643.73	7650.5	
643.91	8562.6	
644.1	8813.1	
644.29	9403.6	
644.48	7730.4	
644.67	7723.6	
644.85	8968.1	
645.04	9313.5	
645.23	7224.6	
645.42	7508.5	
645.6	8688.8	
645.79	9990.7	
645.98	7516.7	
646.17	6500.9	
646.36	8394.6	
646.54	9065	
646.73	8288.8	
646.92	7037.5	
647.11	8609.7	
647.29	9762.7	
647.48	7120.8	
647.67	6768.5	
647.86	10007	
648.05	10047	
648.23	7492.2	
648.42	8840.4	
648.61	9344.9	
648.8	9000.8	
648.98	7031.4	
649.17	7441	
649.36	8492.9	
649.55	8016.4	
649.73	7074.4	
649.92	7916.1	
650.11	8421.9	
650.3	8821.3	
650.48	7154.9	
650.67	6819.1	
650.86	9089.6	
651.05	7959.8	
651.23	7171.3	
651.42	7090.1	
651.61	8412.4	
651.79	8669.1	
651.98	7305.1	
652.17	6965.1	
652.36	8950.3	
652.54	8017.8	
652.73	6911.2	
652.92	6752.2	
653.11	8969.4	
653.29	9035.6	
653.48	6150.7	
653.67	7187	
653.85	8682	
654.04	9850.7	
654.23	7380.9	
654.42	6861.4	
654.6	8188.5	
654.79	8763.3	
654.98	6285.9	
655.16	6888	
655.35	7627.3	
655.54	7602.7	
655.73	6337.8	
655.91	6263.4	
656.1	8889.5	
656.29	7603.4	
656.47	5910.4	
656.66	7765.2	
656.85	7929.1	
657.03	7914	
657.22	6447	
657.41	6638.1	
657.59	7998.7	
657.78	7798.7	
657.97	6100.9	
658.16	6974.7	
658.34	8677.2	
658.53	9135.3	
658.72	7780.9	
658.9	8467	
659.09	8097.7	
659.28	8236.9	
659.46	6709.8	
659.65	6518	
659.84	7912	
660.02	8394.6	
660.21	6390.3	
660.4	6386.9	
660.58	8931.9	
660.77	8237.6	
660.96	7096.2	
661.14	6053.1	
661.33	9313.5	
661.52	9256.8	
661.7	5878.4	
661.89	9921	
662.08	7806.9	
662.26	7346.7	
662.45	6234	
662.64	6472.3	
662.82	8447.2	
663.01	7581.6	
663.2	6393.8	
663.38	7134.4	
663.57	8367.3	
663.75	8235.6	
663.94	6716.7	
664.13	7980.3	
664.31	7651.9	
664.5	8413.7	
664.69	7032.7	
664.87	7600.7	
665.06	7391.8	
665.25	8122.9	
665.43	7802.8	
665.62	7864.2	
665.8	8593.3	
665.99	7920.2	
666.18	6588.3	
666.36	6815	
666.55	8461.5	
666.74	8447.2	
666.92	6217.6	
667.11	8015.1	
667.29	7763.2	
667.48	8407.6	
667.67	7617.1	
667.85	6753.5	
668.04	7854	
668.22	7791.8	
668.41	6655.2	
668.6	6737.8	
668.78	7619.8	
668.97	7920.9	
669.15	6989	
669.34	5885.2	
669.53	7704.5	
669.71	7980.9	
669.9	6106.4	
670.08	6728.3	
670.27	7610.9	
670.46	8208.3	
670.64	7050.5	
670.83	7406.8	
671.01	7475.1	
671.2	8093.6	
671.38	6271.6	
671.57	6161	
671.76	8751	
671.94	9348.3	
672.13	6162.3	
672.31	7217	
672.5	8355.7	
672.69	7535.2	
672.87	6217	
673.06	6530.3	
673.24	8180.3	
673.43	7621.9	
673.61	6980.2	
673.8	6582.9	
673.98	8362.5	
674.17	8582.4	
674.36	7150.1	
674.54	6974	
674.73	8099	
674.91	8327	
675.1	6690	
675.28	6401.3	
675.47	7825.3	
675.65	8467	
675.84	6576.7	
676.03	6848.4	
676.21	7629.4	
676.4	7144	
676.58	7445	
676.77	7141.9	
676.95	9129.2	
677.14	7632.1	
677.32	6286.6	
677.51	5995.1	
677.69	8391.2	
677.88	7179.5	
678.06	6146	
678.25	6245.6	
678.44	7870.3	
678.62	7664.2	
678.81	5909.8	
678.99	6936.5	
679.18	8717.5	
679.36	8391.9	
679.55	6559	
679.73	7139.9	
679.92	8236.9	
680.1	7696.3	
680.29	7784.3	
680.47	6487.3	
680.66	7630	
680.84	8544.8	
681.03	5840.1	
681.21	7072.3	
681.4	7736.5	
681.58	7507.9	
681.77	6335.7	
681.95	6264.7	
682.14	8526.4	
682.32	8968.7	
682.51	7191.1	
682.69	6040.1	
682.88	7580.2	
683.06	8268.3	
683.25	6950.8	
683.43	7384.3	
683.62	7912	
683.8	8359.1	
683.99	7458.7	
684.17	6796.5	
684.36	9229.5	
684.54	7817.1	
684.73	5923.4	
684.91	6173.3	
685.1	8148.2	
685.28	7508.5	
685.46	6790.4	
685.65	6866.2	
685.83	8480	
686.02	7894.9	
686.2	6290.7	
686.39	6417	
686.57	7730.4	
686.76	9281.4	
686.94	6323.4	
687.13	6550.8	
687.31	8395.3	
687.5	7872.4	
687.68	5933.6	
687.86	7377.5	
688.05	9716.2	
688.23	7374.7	
688.42	7404.1	
688.6	6478.4	
688.79	7925.6	
688.97	7873.8	
689.16	6963.1	
689.34	5877.7	
689.52	8750.3	
689.71	9018.6	
689.89	7336.5	
690.08	6597.9	
690.26	8327	
690.45	8146.1	
690.63	7657.4	
690.81	6869.6	
691	8060.8	
691.18	8066.9	
691.37	7064.8	
691.55	9432.9	
691.74	7957	
691.92	10236	
692.1	7077.8	
692.29	6592.4	
692.47	8344.8	
692.66	7536.5	
692.84	6842.3	
693.02	7518.1	
693.21	7797.3	
693.39	8376.2	
693.58	7636.9	
693.76	7148.1	
693.94	9738.1	
694.13	9612.5	
694.31	7101.7	
694.5	8251.9	
694.68	8409.6	
694.86	8783.7	
695.05	7604.1	
695.23	7675.8	
695.42	9267.1	
695.6	11848	
695.78	8434.2	
695.97	7423.9	
696.15	9425.4	
696.34	8834.3	
696.52	7160.4	
696.7	8116.1	
696.89	9286.2	
697.07	8627.4	
697.25	8103.1	
697.44	9922.4	
697.62	9352.4	
697.81	9675.3	
697.99	7982.3	
698.17	8519.5	
698.36	8676.6	
698.54	9428.8	
698.72	8302.5	
698.91	7314.7	
699.09	8998.8	
699.28	8970.8	
699.46	8048.5	
699.64	7968.6	
699.83	8884.1	
700.01	10372	
700.19	8818.6	
700.38	7253.2	
700.56	10424	
700.74	9256.8	
700.93	7895.6	
701.11	8679.3	
701.29	9826.8	
701.48	11081	
701.66	8186.4	
701.84	8275.8	
702.03	9680.1	
702.21	10380	
702.39	7838.3	
702.58	8569.4	
702.76	10070	
702.94	10393	
703.13	8089.5	
703.31	10610	
703.49	9512.1	
703.68	11117	
703.86	8268.3	
704.04	9319.6	
704.23	10135	
704.41	10657	
704.59	8504.5	
704.78	9867.8	
704.96	11332	
705.14	10780	
705.33	8411.7	
705.51	9252	
705.69	10202	
705.87	11043	
706.06	9636.4	
706.24	8501.8	
706.42	10557	
706.61	10998	
706.79	9633.6	
706.97	8558.5	
707.16	10117	
707.34	10727	
707.52	9838.4	
707.7	8950.3	
707.89	10408	
708.07	9938.8	
708.25	9942.9	
708.44	10142	
708.62	10346	
708.8	11528	
708.98	10314	
709.17	9114.1	
709.35	10804	
709.53	10882	
709.72	8933.9	
709.9	9017.9	
710.08	11098	
710.26	11265	
710.45	10576	
710.63	9208.4	
710.81	10914	
710.99	10873	
711.18	10079	
711.36	9453.4	
711.54	10773	
711.72	11501	
711.91	9469.8	
712.09	8904.6	
712.27	10764	
712.45	11602	
712.64	9741.5	
712.82	8723	
713	10158	
713.18	10327	
713.37	8761.2	
713.55	9987.3	
713.73	11133	
713.91	9605.7	
714.1	8852	
714.28	8307.9	
714.46	10469	
714.64	9506	
714.83	7441.6	
715.01	8159.1	
715.19	9291.6	
715.37	8699.1	
715.55	7726.3	
715.74	8117.5	
715.92	10206	
716.1	8202.1	
716.28	9273.2	
716.47	8170	
716.65	8862.9	
716.83	8979.7	
717.01	8006.2	
717.19	8125	
717.38	11254	
717.56	8679.3	
717.74	8449.9	
717.92	7565.2	
718.1	10110	
718.29	9450.7	
718.47	7350.8	
718.65	8236.2	
718.83	10457	
719.01	10372	
719.2	7550.9	
719.38	8851.3	
719.56	10086	
719.74	11816	
719.92	8272.4	
720.11	9377.6	
720.29	10072	
720.47	9185.1	
720.65	7565.2	
720.83	8529.1	
721.02	9258.9	
721.2	8950.3	
721.38	8512	
721.56	7614.3	
721.74	8456.1	
721.92	8690.9	
722.11	8942.1	
722.29	8645.2	
722.47	10084	
722.65	9065	
722.83	7705.8	
723.01	8660.9	
723.2	9224.1	
723.38	9562.6	
723.56	7122.2	
723.74	8381.7	
723.92	8673.8	
724.1	10041	
724.29	7620.5	
724.47	8884.1	
724.65	8772.8	
724.83	8762.6	
725.01	7451.2	
725.19	8378.9	
725.37	8771.5	
725.56	8979.7	
725.74	7324.2	
725.92	7665.5	
726.1	8799.4	
726.28	9123	
726.46	8148.2	
726.64	7826.7	
726.83	8948.3	
727.01	9325.8	
727.19	7404.1	
727.37	8314.8	
727.55	9233.6	
727.73	9722.4	
727.91	7416.4	
728.09	7217.7	
728.28	9852.8	
728.46	10469	
728.64	8441.7	
728.82	8472.4	
729	11042	
729.18	10364	
729.36	7815.7	
729.54	10334	
729.72	11594	
729.91	9747	
730.09	9992	
730.27	8660.9	
730.45	9684.2	
730.63	10439	
730.81	9314.8	
730.99	8490.9	
731.17	11017	
731.35	9512.8	
731.53	8915.5	
731.71	8456.1	
731.9	10669	
732.08	10877	
732.26	8734.6	
732.44	8374.1	
732.62	10821	
732.8	10292	
732.98	9112.8	
733.16	8142	
733.34	10319	
733.52	8955.1	
733.7	8579.6	
733.88	8987.9	
734.07	10113	
734.25	9806.4	
734.43	8000.7	
734.61	9756.5	
734.79	11475	
734.97	9749.7	
735.15	8171.4	
735.33	8561.2	
735.51	10028	
735.69	9640.5	
735.87	9713.5	
736.05	8725.7	
736.23	9856.9	
736.41	9678	
736.59	8557.8	
736.77	8586.5	
736.95	10450	
737.13	9767.4	
737.32	8189.8	
737.5	8511.4	
737.68	11037	
737.86	9598.8	
738.04	7926.3	
738.22	9942.2	
738.4	9314.2	
738.58	9619.3	
738.76	8555.7	
738.94	7468.9	
739.12	9463.7	
739.3	9382.4	
739.48	9340.1	
739.66	8968.7	
739.84	9753.1	
740.02	9780.4	
740.2	7511.3	
740.38	7930.4	
740.56	10150	
740.74	8872.5	
740.92	8669.1	
741.1	8535.3	
741.28	9442.5	
741.46	9291.6	
741.64	7948.2	
741.82	8538	
742	9436.4	
742.18	9309.4	
742.36	8284	
742.54	7722.2	
742.72	10000	
742.9	8641.7	
743.08	8681.3	
743.26	7294.2	
743.44	10109	
743.62	10044	
743.8	8757.1	
743.98	7649.8	
744.16	9694.4	
744.34	9202.9	
744.52	8566	
744.7	8456.7	
744.88	9757.9	
745.06	9205.6	
745.24	8614.4	
745.42	8656.8	
745.6	9774.3	
745.78	9437.7	
745.96	7215.7	
746.14	7506.5	
746.32	10531	
746.5	9627.5	
746.68	8071	
746.86	7365.2	
747.03	10234	
747.21	8152.3	
747.39	8032.1	
747.57	7412.3	
747.75	9153.1	
747.93	9537.4	
748.11	7382.2	
748.29	7278.5	
748.47	10799	
748.65	8740	
748.83	8194.6	
749.01	7925.6	
749.19	9233.6	
749.37	8456.7	
749.55	7684.7	
749.73	7771.4	
749.91	8922.3	
750.09	8619.9	
750.26	7763.2	
750.44	7119.4	
750.62	9013.1	
750.8	8901.8	
750.98	6979.5	
751.16	7285.3	
751.34	8970.1	
751.52	8234.2	
751.7	8109.3	
751.88	6901	
752.06	9519.6	
752.24	9234.3	
752.42	6826.6	
752.59	7257.3	
752.77	8726.4	
752.95	10183	
753.13	8079.9	
753.31	7351.5	
753.49	8502.5	
753.67	8915.5	
753.85	7611.6	
754.03	7180.2	
754.21	9067	
754.38	9364	
754.56	7125.6	
754.74	6122.1	
754.92	8043.7	
755.1	8729.1	
755.28	5938.4	
755.46	5683.8	
755.64	9086.8	
755.82	8995.4	
755.99	5546.6	
756.17	5481.7	
756.35	5982.8	
756.53	7573.4	
756.71	4035.2	
756.89	5085.8	
757.07	7146.7	
757.25	6173.9	
757.42	5821	
757.6	6886	
757.78	7504.4	
757.96	6486.6	
758.14	5843.5	
758.32	5314.5	
758.5	5982.1	
758.67	6813.6	
758.85	5485.8	
759.03	5627.8	
759.21	6967.2	
759.39	6320.7	
759.57	5113.8	
759.75	6342.6	
759.92	7643.7	
760.1	6951.5	
760.28	6765.8	
760.46	7114.6	
760.64	6813.6	
760.82	6568.5	
760.99	6771.9	
761.17	5947.3	
761.35	7774.1	
761.53	6723.5	
761.71	6095.4	
761.89	6922.8	
762.06	7841.7	
762.24	7248.4	
762.42	6310.5	
762.6	6038.8	
762.78	7384.3	
762.96	8078.6	
763.13	6767.9	
763.31	6438.8	
763.49	8272.4	
763.67	7348.8	
763.85	7322.9	
764.02	8004.8	
764.2	8525	
764.38	7640.3	
764.56	6214.9	
764.74	7254.6	
764.91	8692.9	
765.09	7486.7	
765.27	5884.5	
765.45	5673.6	
765.63	8611.7	
765.8	8505.2	
765.98	5319.9	
766.16	5693.4	
766.34	6872.3	
766.52	6713.9	
766.69	6703.7	
766.87	5528.2	
767.05	7264.1	
767.23	8161.2	
767.41	5741.1	
767.58	6021.7	
767.76	7758.4	
767.94	7920.2	
768.12	5849.7	
768.29	6597.9	
768.47	7335.8	
768.65	8053.3	
768.83	5251.7	
769	6596.5	
769.18	6624.5	
769.36	7462.8	
769.54	6558.3	
769.72	5322.7	
769.89	7699	
770.07	7930.4	
770.25	5651	
770.43	7021.1	
770.6	8476.5	
770.78	9005.6	
770.96	5815.5	
771.14	5658.5	
771.31	7531.7	
771.49	6767.2	
771.67	4817.5	
771.85	5161.6	
772.02	5963	
772.2	6815.6	
772.38	5857.2	
772.55	5283.1	
772.73	7034.1	
772.91	6757.6	
773.09	5636.7	
773.26	5790.3	
773.44	6913.9	
773.62	6617	
773.8	5074.2	
773.97	4832.5	
774.15	7055.3	
774.33	6559.6	
774.5	4897.4	
774.68	5289.2	
774.86	7180.2	
775.04	6574	
775.21	4970.4	
775.39	5010	
775.57	6791.1	
775.74	7314	
775.92	4844.1	
776.1	4723.3	
776.27	6741.2	
776.45	8078.6	
776.63	4910.3	
776.81	4403.8	
776.98	6287.3	
777.16	7489.4	
777.34	5061.9	
777.51	4982	
777.69	6324.1	
777.87	6020.3	
778.04	4995.7	
778.22	5723.4	
778.4	6022.4	
778.57	6770.6	
778.75	4180.6	
778.93	4552.6	
779.1	5748.6	
779.28	5607.3	
779.46	4188.1	
779.64	4824.3	
779.81	6862.1	
779.99	7832.1	
780.17	5569.8	
780.34	5743.9	
780.52	6218.3	
780.69	6371.9	
780.87	5025.7	
781.05	4589.5	
781.22	6258.6	
781.4	6374	
781.58	4764.9	
781.75	3832.4	
781.93	6166.4	
782.11	5603.9	
782.28	5606	
782.46	4640.7	
782.64	5425.8	
782.81	6472.9	
782.99	4757.4	
783.17	4689.2	
783.34	6327.5	
783.52	5393.7	
783.69	4934.9	
783.87	5720	
784.05	5395	
784.22	5495.4	
784.4	5752.7	
784.58	4973.2	
784.75	6523.5	
784.93	5554.8	
785.1	4588.8	
785.28	5238.7	
785.46	6262	
785.63	5487.2	
785.81	4525.3	
785.99	4355.3	
786.16	5645.6	
786.34	6103.6	
786.51	4382	
786.69	4839.4	
786.87	5226.4	
787.04	5777.3	
787.22	4209.9	
787.39	5261.9	
787.57	5386.2	
787.75	6668.9	
787.92	5418.9	
788.1	5401.9	
788.27	5485.1	
788.45	5264	
788.63	5001.8	
788.8	3655.6	
788.98	5965.7	
789.15	5134.3	
789.33	3818.8	
789.5	4534.9	
789.68	6436.8	
789.86	6525.5	
790.03	4954.7	
790.21	4319.8	
790.38	6481.1	
790.56	5547.9	
790.73	4115.7	
790.91	4186.7	
791.09	5455.8	
791.26	6271.6	
791.44	4427	
791.61	3824.9	
791.79	5396.4	
791.96	5473.5	
792.14	3961.5	
792.32	3472	
792.49	5365.7	
792.67	5503.6	
792.84	3997.6	
793.02	3768.3	
793.19	5944.6	
793.37	6662	
793.54	3495.2	
793.72	3823.6	
793.89	6813.6	
794.07	5347.2	
794.25	4586.8	
794.42	3553.9	
794.6	6503.7	
794.77	6140.5	
794.95	4777.9	
795.12	4241.3	
795.3	5341.8	
795.47	6054.5	
795.65	4643.4	
795.82	4468	
796	5156.8	
796.17	7191.8	
796.35	4278.2	
796.52	5001.8	
796.7	5844.9	
796.87	6013.5	
797.05	5272.8	
797.22	5214.1	
797.4	5966.4	
797.57	7095.5	
797.75	4438.6	
797.92	4200.4	
798.1	6279.8	
798.27	5311.7	
798.45	3537.5	
798.62	3859.1	
798.8	5592.3	
798.97	6197.2	
799.15	4668.7	
799.32	4444.1	
799.5	4883.7	
799.67	5739.1	
799.85	4766.3	
800.02	3447.4	
800.2	5271.5	
800.37	5612.1	
800.55	4937.7	
800.72	4198.3	
800.9	6152.1	
801.07	6650.4	
801.25	5548.6	
801.42	4497.3	
801.6	6225.8	
801.77	5872.9	
801.95	4215.4	
802.12	3990.1	
802.29	5790.3	
802.47	5751.4	
802.64	4463.9	
802.82	3362.1	
802.99	5201.8	
803.17	6328.9	
803.34	4382.7	
803.52	3932.8	
803.69	7018.4	
803.87	5017.5	
804.04	4312.3	
804.21	4419.5	
804.39	6466.1	
804.56	5508.4	
804.74	3716.4	
804.91	4534.9	
805.09	5281.7	
805.26	5384.8	
805.44	3779.9	
805.61	4166.3	
805.78	5967.1	
805.96	6052.4	
806.13	4512.4	
806.31	4885.8	
806.48	4790.9	
806.66	5356.8	
806.83	4486.4	
807	4388.1	
807.18	5229.8	
807.35	5618.9	
807.53	4141.7	
807.7	3462.4	
807.87	6541.9	
808.05	5294.7	
808.22	4855.7	
808.4	3494.5	
808.57	5296	
808.74	4922	
808.92	3994.9	
809.09	5071.5	
809.27	5085.1	
809.44	5808	
809.61	3512.9	
809.79	3977.8	
809.96	6464.1	
810.14	6090.7	
810.31	3361.4	
810.48	4147.8	
810.66	5352	
810.83	6178	
811.01	4031.8	
811.18	4471.4	
811.35	6022.4	
811.53	4721.9	
811.7	4827.1	
811.87	4456.4	
812.05	5298.1	
812.22	5162.9	
812.39	3796.3	
812.57	3707.5	
812.74	5298.8	
812.92	7049.1	
813.09	4133.5	
813.26	4579.9	
813.44	6774	
813.61	5226.4	
813.78	3456.3	
813.96	4698.7	
814.13	5285.8	
814.3	4900.1	
814.48	5069.4	
814.65	4130.8	
814.82	6574	
815	5064.6	
815.17	4283	
815.34	5283.1	
815.52	5214.8	
815.69	5160.2	
815.87	4226.3	
816.04	3656.3	
816.21	5285.1	
816.38	4600.4	
816.56	4125.3	
816.73	3857	
816.9	6620.4	
817.08	6130.3	
817.25	3807.2	
817.42	4912.4	
817.6	4788.2	
817.77	5253.7	
817.94	4413.4	
818.12	3725.3	
818.29	4949.3	
818.46	7880.6	
818.64	3994.2	
818.81	3754.6	
818.98	4895.3	
819.16	7240.3	
819.33	4599.7	
819.5	4273.4	
819.67	5637.4	
819.85	6396.5	
820.02	4196.3	
820.19	4442	
820.37	5501.5	
820.54	5018.9	
820.71	4396.3	
820.88	5450.3	
821.06	5574.6	
821.23	5018.9	
821.4	4384.7	
821.58	4360.1	
821.75	6097.5	
821.92	5408	
822.09	3493.8	
822.27	3788.1	
822.44	5255.1	
822.61	5125.4	
822.79	3504.1	
822.96	6845	
823.13	5800.5	
823.3	4999.1	
823.48	4062.5	
823.65	3687	
823.82	6034.7	
823.99	4740.4	
824.17	5152.7	
824.34	3715.7	
824.51	6964.5	
824.68	5339.7	
824.86	3967.6	
825.03	4304.8	
825.2	5281.7	
825.37	6413.6	
825.55	3841.3	
825.72	4306.9	
825.89	7087.3	
826.06	6533.7	
826.24	4102.1	
826.41	4224.3	
826.58	6421.7	
826.75	5602.6	
826.92	3241.9	
827.1	3674.1	
827.27	8821.3	
827.44	7029.3	
827.61	3966.9	
827.79	4848.9	
827.96	4944.5	
828.13	5423.7	
828.3	4093.9	
828.47	3516.4	
828.65	5479	
828.82	5440.1	
828.99	5371.1	
829.16	4704.9	
829.34	5877	
829.51	5717.9	
829.68	4315.1	
829.85	4459.1	
830.02	6221.7	
830.2	5893.4	
830.37	3275.4	
830.54	5218.9	
830.71	6741.9	
830.88	5241.4	
831.05	3346.4	
831.23	3917.1	
831.4	6481.8	
831.57	7283.9	
831.74	3976.5	
831.91	3503.4	
832.09	5537.7	
832.26	5907	
832.43	4141.7	
832.6	4643.4	
832.77	5509	
832.94	6303	
833.12	3272.7	
833.29	4111.6	
833.46	5652.4	
833.63	7527	
833.8	4514.4	
833.97	4182.6	
834.15	5885.2	
834.32	5668.8	
834.49	4257	
834.66	4401.1	
834.83	6174.6	
835	4957.4	
835.17	3962.1	
835.35	3992.2	
835.52	5780.7	
835.69	5718.6	
835.86	4195.6	
836.03	3464.5	
836.2	5829.2	
836.37	5431.2	
836.55	4056.3	
836.72	3845.4	
836.89	5421	
837.06	5890	
837.23	4181.3	
837.4	4597	
837.57	6760.3	
837.75	7531.7	
837.92	3738.2	
838.09	4027.7	
838.26	5395	
838.43	6200.6	
838.6	4397	
838.77	3858.4	
838.94	7120.1	
839.11	6796.5	
839.29	4074.1	
839.46	3249.4	
839.63	5803.3	
839.8	5592.3	
839.97	4008.6	
840.14	3997.6	
840.31	5629.2	
840.48	5859.2	
840.65	3282.2	
840.82	3947.1	
841	5857.2	
841.17	5848.3	
841.34	3663.8	
841.51	3696.6	
841.68	5742.5	
841.85	5538.4	
842.02	3833.8	
842.19	3084.9	
842.36	5588.9	
842.53	5568.4	
842.7	3669.3	
842.87	4506.9	
843.05	7466.9	
843.22	5495.4	
843.39	3411.2	
843.56	3754.6	
843.73	5299.5	
843.9	5907	
844.07	5991.7	
844.24	4997	
844.41	8705.2	
844.58	5068.7	
844.75	3517.7	
844.92	3922.5	
845.09	5856.5	
845.26	5830.6	
845.43	3614.7	
845.6	3885.7	
845.77	5864	
845.94	5593	
846.12	4044.1	
846.29	4308.9	
846.46	6005.3	
846.63	5821.7	
846.8	3661.1	
846.97	4305.5	
847.14	6373.3	
847.31	5736.4	
847.48	4128	
847.65	4543.1	
847.82	6208.8	
847.99	6153.5	
848.16	4898.1	
848.33	4521.9	
848.5	5417.6	
848.67	6415.6	
848.84	3614	
849.01	3809.2	
849.18	5254.4	
849.35	4876.9	
849.52	4639.3	
849.69	3535.5	
849.86	6058.6	
850.03	6340.5	
850.2	3642.7	
850.37	4485.7	
850.54	6277	
850.71	5458.5	
850.88	4346.5	
851.05	3604.4	
851.22	5727.5	
851.39	6388.3	
851.56	3427.6	
851.73	4177.2	
851.9	5096	
852.07	6093.4	
852.24	4065.2	
852.41	3611.3	
852.58	5685.2	
852.75	5174.5	
852.92	4058.4	
853.09	3549.1	
853.26	5377.3	
853.43	6293.4	
853.6	3588	
853.77	3113.6	
853.94	6437.4	
854.11	5791.7	
854.28	5453.1	
854.44	3962.1	
854.61	6869.6	
854.78	6166.4	
854.95	3623.5	
855.12	4623.6	
855.29	4671.4	
855.46	6496.2	
855.63	3580.5	
855.8	5083.7	
855.97	5326.1	
856.14	6148.7	
856.31	5151.3	
856.48	3977.8	
856.65	5373.2	
856.82	5076.9	
856.99	3485	
857.16	3927.3	
857.33	7099.6	
857.49	5511.1	
857.66	3953.9	
857.83	4237.9	
858	5432.6	
858.17	5739.8	
858.34	3444.7	
858.51	3672	
858.68	6599.9	
858.85	6633.4	
859.02	4201.1	
859.19	4498	
859.36	5113.8	
859.52	5149.3	
859.69	3625.6	
859.86	4276.2	
860.03	5159.5	
860.2	6462	
860.37	3310.9	
860.54	3630.4	
860.71	6122.7	
860.88	6582.2	
861.05	4107.5	
861.21	4608.6	
861.38	6653.2	
861.55	4947.9	
861.72	3335.5	
861.89	4085	
862.06	6107.7	
862.23	6703	
862.4	3576.4	
862.56	3820.1	
862.73	5928.9	
862.9	5638.7	
863.07	4280.9	
863.24	3797.6	
863.41	4978.6	
863.58	5113.8	
863.75	3697.3	
863.91	4177.2	
864.08	6527.6	
864.25	5952.8	
864.42	4589.5	
864.59	5081	
864.76	6864.8	
864.93	5125.4	
865.09	3548.4	
865.26	3818.1	
865.43	6338.5	
865.6	6827.2	
865.77	3140.2	
865.94	3583.3	
866.1	6378.1	
866.27	6097.5	
866.44	5550.7	
866.61	3395.5	
866.78	5515.9	
866.95	5994.4	
867.11	3528.7	
867.28	3202.3	
867.45	6176	
867.62	5140.4	
867.79	4175.8	
867.96	3640.6	
868.12	5116.5	
868.29	6166.4	
868.46	3594.2	
868.63	4861.2	
868.8	6367.1	
868.97	6059.3	
869.13	3751.9	
869.3	3821.5	
869.47	5905	
869.64	6222.4	
869.81	3670.6	
869.97	3607.8	
870.14	5813.5	
870.31	6582.2	
870.48	3556	
870.65	4620.9	
870.81	5418.2	
870.98	5409.4	
871.15	4118.5	
871.32	3816	
871.48	5923.4	
871.65	6593.1	
871.82	3650.8	
871.99	3983.3	
872.16	7114	
872.32	6485.2	
872.49	3692.5	
872.66	3687	
872.83	6042.9	
872.99	5374.6	
873.16	4178.5	
873.33	3557.3	
873.5	5674.9	
873.67	5728.2	
873.83	3803.1	
874	4872.8	
874.17	5848.3	
874.34	6965.1	
874.5	4702.8	
874.67	4562.9	
874.84	6511.2	
875.01	5171.8	
875.17	5119.9	
875.34	3588	
875.51	5758.9	
875.68	6955.6	
875.84	4407.9	
876.01	5334.3	
876.18	5981.4	
876.34	5973.2	
876.51	3666.5	
876.68	3553.2	
876.85	5472.9	
877.01	6332.3	
877.18	5201.2	
877.35	3586	
877.52	5618.9	
877.68	5006.6	
877.85	3528.7	
878.02	3540.9	
878.18	5619.6	
878.35	5296	
878.52	2893.8	
878.69	4103.4	
878.85	6100.2	
879.02	6090	
879.19	5215.5	
879.35	3939.6	
879.52	6021	
879.69	6284.5	
879.86	3079.5	
880.02	4059.8	
880.19	5529.5	
880.36	6890.7	
880.52	4128.7	
880.69	4265.2	
880.86	6158.2	
881.02	6224.5	
881.19	4024.3	
881.36	3954.6	
881.52	5961.6	
881.69	5302.2	
881.86	3901.4	
882.02	3841.3	
882.19	6303	
882.36	7429.3	
882.52	3690.4	
882.69	5145.2	
882.86	5734.3	
883.02	5690.6	
883.19	4414.7	
883.36	4209.3	
883.52	6146.6	
883.69	7004.1	
883.86	3725.3	
884.02	3294.5	
884.19	6068.1	
884.36	5584.1	
884.52	4091.8	
884.69	3854.3	
884.86	5315.8	
885.02	6720.8	
885.19	4115.1	
885.36	4280.3	
885.52	5618.9	
885.69	5832.6	
885.86	5384.8	
886.02	4713.1	
886.19	6090.7	
886.35	5412.8	
886.52	4029	
886.69	5094.7	
886.85	5116.5	
887.02	6507.1	
887.19	6507.1	
887.35	6507.1	
887.52	6507.1	
887.68	6507.1	
887.85	6507.1	
888.02	6507.1	
888.18	6507.1	
888.35	6507.1	
888.51	6507.1	
888.68	6507.1	
888.85	6507.1	
889.01	6507.1	
889.18	6507.1	
889.35	6507.1	
889.51	6507.1	
889.68	6507.1	
889.84	6507.1	
890.01	6507.1	
890.17	6507.1	
890.34	6507.1	
890.51	6507.1	
890.67	6507.1	
890.84	6507.1	
891	6507.1	
891.17	6507.1	
891.34	6507.1	
891.5	6507.1	
891.67	6507.1	
891.83	6507.1	
892	6507.1	
892.16	6507.1	
892.33	6507.1	
892.5	6507.1	
892.66	6507.1	
892.83	6507.1	
892.99	6507.1	
893.16	6507.1	
893.32	6507.1	
893.49	6507.1	
893.65	6507.1	
893.82	6507.1	
893.99	6507.1	
894.15	6507.1	
894.32	6507.1	
894.48	6507.1	
894.65	6507.1	
894.81	6507.1	
894.98	6507.1	
895.14	6507.1	
895.31	6507.1	
895.47	6507.1	
895.64	6507.1	
895.81	6507.1	
895.97	6507.1	
896.14	6507.1	
896.3	6507.1	
896.47	6507.1	
896.63	6507.1	
896.8	6507.1	
896.96	6507.1	
897.13	6507.1	
897.29	6507.1	
897.46	6507.1	
897.62	6507.1	
897.79	6507.1	
897.95	6507.1	
898.12	6507.1	
898.28	6507.1	
898.45	6507.1	
898.61	6507.1	
898.78	6507.1	
898.94	6507.1	
899.11	6507.1	
899.27	6507.1	
899.44	6507.1	
899.6	6507.1	
899.77	6507.1	
899.93	6507.1	
900.1	6507.1	
900.26	6507.1	
900.43	6507.1	
900.59	6507.1	
900.76	6507.1	
900.92	6507.1	
901.09	6507.1	
901.25	6507.1	
901.42	6507.1	
901.58	6507.1	
901.75	6507.1	
901.91	6507.1	
902.07	6507.1	
902.24	6507.1	
902.4	6507.1	
902.57	6507.1	
902.73	6507.1	
902.9	6507.1	
903.06	6507.1	
903.23	6507.1	
903.39	6507.1	
903.56	6507.1	
903.72	6507.1	
903.88	6507.1	
904.05	6507.1	
904.21	6507.1	
904.38	6507.1	
904.54	6507.1	
904.71	6507.1	
904.87	6507.1	
905.03	6507.1	
905.2	6507.1	
905.36	6507.1	
905.53	6507.1	
905.69	6507.1	
905.86	6507.1	
906.02	6507.1	
906.18	6507.1	
906.35	6507.1	
906.51	6507.1	
906.68	6507.1	
906.84	6507.1	
907.01	6507.1	
907.17	6507.1	
907.33	6507.1	
907.5	6507.1	
907.66	6507.1	
907.83	6507.1	
907.99	6507.1	
908.15	6507.1	
908.32	6507.1	
908.48	6507.1	
908.65	6507.1	
908.81	6507.1	
908.97	6507.1	
909.14	6507.1	
909.3	6507.1	
909.47	6507.1	
909.63	6507.1	
909.79	6507.1	
909.96	6507.1	
910.12	6507.1	
910.28	6507.1	
910.45	6507.1	
910.61	6507.1	
910.78	6507.1	
910.94	6507.1	
911.1	6507.1	
911.27	6507.1	
911.43	6507.1	
911.59	6507.1	
911.76	6507.1	
911.92	6507.1	
912.08	6507.1	
912.25	6507.1	
912.41	6507.1	
912.57	6507.1	
912.74	6507.1	
912.9	6507.1	
913.07	6507.1	
913.23	6507.1	
913.39	6507.1	
913.56	6507.1	
913.72	6507.1	
913.88	6507.1	
914.05	6507.1	
914.21	6507.1	
914.37	6507.1	
914.54	6507.1	
914.7	6507.1	
914.86	6507.1	
915.03	6507.1	
915.19	6507.1	
