Wavelength	Intensities	
nm	a.u.	
179.22	1846.1	
179.44	1847.6	
179.65	1844.5	
179.86	1850.7	
180.08	1876.6	
180.29	4826.4	
180.51	3499.3	
180.72	5585.5	
180.94	6526.2	
181.15	3233.1	
181.37	3156.6	
181.58	5422.3	
181.79	5669.5	
182.01	3358	
182.22	3621.5	
182.44	5728.9	
182.65	4768.4	
182.87	4491.2	
183.08	3973.7	
183.29	5978	
183.51	4947.9	
183.72	3536.2	
183.94	5261.9	
184.15	5302.2	
184.37	5337.7	
184.58	3137.5	
184.79	4263.2	
185.01	4941.7	
185.22	5744.6	
185.44	4487.1	
185.65	3873.4	
185.86	5261.2	
186.08	4868.7	
186.29	3026.2	
186.51	3335.5	
186.72	4992.3	
186.94	5821.7	
187.15	3831.1	
187.36	3928	
187.58	7678.5	
187.79	5418.2	
188.01	4123.9	
188.22	6464.1	
188.43	6518	
188.65	5670.1	
188.86	3325.2	
189.08	3944.4	
189.29	5164.3	
189.5	5150.6	
189.72	3682.2	
189.93	3759.4	
190.15	5907	
190.36	7045.7	
190.57	4001.7	
190.79	3874.1	
191	5950	
191.22	5950	
191.43	4056.3	
191.64	3295.9	
191.86	6191	
192.07	5930.9	
192.29	3534.8	
192.5	3714.3	
192.71	5903.6	
192.93	5051	
193.14	3617.4	
193.35	3807.2	
193.57	5157.5	
193.78	5925.5	
194	2954.5	
194.21	3559.4	
194.42	4846.9	
194.64	5381.4	
194.85	3905.5	
195.07	4567.7	
195.28	5481	
195.49	4643.4	
195.71	4859.1	
195.92	3410.6	
196.13	5562.3	
196.35	5677	
196.56	5143.8	
196.78	3945.8	
196.99	6993.8	
197.2	6542.6	
197.42	4499.4	
197.63	4035.2	
197.84	4804.5	
198.06	5558.9	
198.27	3650.8	
198.48	5007.3	
198.7	5122	
198.91	5235.3	
199.13	4011.3	
199.34	3955.3	
199.55	5740.5	
199.77	4683	
199.98	3522.5	
200.19	4007.9	
200.41	5215.5	
200.62	4968.4	
200.83	4198.3	
201.05	4485.1	
201.26	5268.1	
201.47	4977.2	
201.69	3569.6	
201.9	3362.8	
202.11	5345.9	
202.33	6364.4	
202.54	3734.8	
202.76	4240	
202.97	5429.8	
203.18	5449	
203.4	4175.1	
203.61	4040.6	
203.82	5428.5	
204.04	5023	
204.25	4048.2	
204.46	3951.2	
204.68	5382.1	
204.89	5621.7	
205.1	3945.8	
205.32	3384.6	
205.53	5711.8	
205.74	5864.7	
205.96	2858.3	
206.17	4074.1	
206.38	5720.7	
206.6	5874.9	
206.81	4619.5	
207.02	3718.4	
207.24	5561.6	
207.45	6018.3	
207.66	3857	
207.88	3290.4	
208.09	5588.2	
208.3	5299.5	
208.52	3489.7	
208.73	3819.5	
208.94	5322	
209.15	6044.2	
209.37	3873.4	
209.58	4011.3	
209.79	5867.4	
210.01	5186.1	
210.22	3062.4	
210.43	3204.4	
210.65	5335.6	
210.86	5841.5	
211.07	3846.8	
211.29	3434.4	
211.5	5743.9	
211.71	5282.4	
211.93	3512.3	
212.14	3488.4	
212.35	5247.6	
212.56	5544.5	
212.78	3992.2	
212.99	3309.5	
213.2	6324.1	
213.42	5150.6	
213.63	3653.6	
213.84	3830.4	
214.06	4737	
214.27	4844.1	
214.48	3759.4	
214.69	4098.7	
214.91	5981.4	
215.12	6053.1	
215.33	4105.5	
215.55	4500.1	
215.76	6589	
215.97	5793.7	
216.18	3911.6	
216.4	3794.2	
216.61	4982	
216.82	5836.7	
217.04	3530	
217.25	3661.1	
217.46	6020.3	
217.67	5773.2	
217.89	3173	
218.1	3208.5	
218.31	5468.8	
218.53	5509.7	
218.74	3714.3	
218.95	3553.9	
219.16	5249.6	
219.38	6208.1	
219.59	3612.6	
219.8	4345.8	
220.01	6938.5	
220.23	5402.5	
220.44	4671.4	
220.65	3474.7	
220.87	5451	
221.08	5921.4	
221.29	3237.8	
221.5	4330.8	
221.72	7307.8	
221.93	5111	
222.14	3981.3	
222.35	4764.9	
222.57	5398.4	
222.78	5710.4	
222.99	3857.7	
223.2	4151.2	
223.42	5640.8	
223.63	5819	
223.84	2940.9	
224.05	2882.9	
224.27	6844.3	
224.48	6239.5	
224.69	4763.6	
224.9	4010.6	
225.12	5532.2	
225.33	5324	
225.54	3199.6	
225.75	3604.4	
225.97	4924	
226.18	5221.6	
226.39	3883.6	
226.6	3583.9	
226.82	5135.6	
227.03	4939.7	
227.24	4016.7	
227.45	3310.2	
227.67	5724.8	
227.88	6236.1	
228.09	4404.5	
228.3	4516.5	
228.52	5787.6	
228.73	5345.2	
228.94	3717.7	
229.15	3322.5	
229.36	5283.8	
229.58	5162.9	
229.79	3734.1	
230	4341.7	
230.21	6352.1	
230.43	5479.7	
230.64	3957.4	
230.85	4060.4	
231.06	5753.4	
231.28	5774.6	
231.49	3285.6	
231.7	3878.9	
231.91	5686.5	
232.12	5333.6	
232.34	3408.5	
232.55	3829.7	
232.76	5969.8	
232.97	5522.7	
233.18	3496.6	
233.4	3965.6	
233.61	5584.8	
233.82	5117.2	
234.03	3665.2	
234.25	3621.5	
234.46	7390.4	
234.67	5411.4	
234.88	4055	
235.09	3575.1	
235.31	5651.7	
235.52	5229.1	
235.73	3959.4	
235.94	3349.1	
236.15	5081.7	
236.37	6552.1	
236.58	3466.5	
236.79	3887.7	
237	5709.7	
237.21	4877.6	
237.43	4145.8	
237.64	3252.2	
237.85	9680.1	
238.06	4919.2	
238.27	4186.7	
238.48	3331.4	
238.7	5713.2	
238.91	5138.4	
239.12	3837.2	
239.33	3854.3	
239.54	5115.1	
239.76	5313.1	
239.97	3806.5	
240.18	3770.3	
240.39	6691.4	
240.6	5664	
240.82	3950.5	
241.03	3263.8	
241.24	5352.7	
241.45	6221.7	
241.66	3493.8	
241.87	4129.4	
242.09	6120	
242.3	6439.5	
242.51	4157.4	
242.72	3830.4	
242.93	5866.7	
243.14	5326.8	
243.36	4416.8	
243.57	4775.2	
243.78	6125.5	
243.99	5685.2	
244.2	3868.6	
244.41	3457.7	
244.63	4910.3	
244.84	5668.1	
245.05	4115.1	
245.26	3827	
245.47	5634	
245.68	5895.4	
245.9	5119.2	
246.11	4054.3	
246.32	5205.9	
246.53	5607.3	
246.74	6157.6	
246.95	3234.4	
247.16	4848.2	
247.38	5306.3	
247.59	3169.6	
247.8	3934.1	
248.01	5066	
248.22	5269.4	
248.43	3501.3	
248.64	3695.9	
248.86	4766.3	
249.07	5117.2	
249.28	3361.4	
249.49	3948.5	
249.7	5864	
249.91	6012.2	
250.12	3213.9	
250.34	3267.2	
250.55	5441.5	
250.76	5301.5	
250.97	4005.8	
251.18	4012.7	
251.39	6075	
251.6	5494	
251.81	4095.3	
252.03	3996.3	
252.24	5106.3	
252.45	5896.1	
252.66	3312.9	
252.87	4169.7	
253.08	5395	
253.29	7023.9	
253.5	3348.4	
253.72	4652.3	
253.93	5197.7	
254.14	6402.6	
254.35	3697.3	
254.56	3765.5	
254.77	5583.4	
254.98	4941.1	
255.19	3624.9	
255.41	4622.3	
255.62	5445.5	
255.83	5977.3	
256.04	4094.6	
256.25	4057	
256.46	6603.3	
256.67	5018.9	
256.88	3919.1	
257.09	4412	
257.31	5040.7	
257.52	5064.6	
257.73	4978.6	
257.94	3597.6	
258.15	5187.5	
258.36	5373.9	
258.57	4614.8	
258.78	2891	
258.99	5868.1	
259.2	5242.8	
259.41	3706.1	
259.63	3741.6	
259.84	6155.5	
260.05	6589	
260.26	4795.7	
260.47	3592.1	
260.68	5947.3	
260.89	5186.1	
261.1	4401.8	
261.31	3504.8	
261.52	5924.1	
261.73	6302.3	
261.95	4741	
262.16	4175.1	
262.37	6096.8	
262.58	6118	
262.79	4747.2	
263	3733.4	
263.21	5326.1	
263.42	4897.4	
263.63	3733.4	
263.84	3725.9	
264.05	5924.8	
264.26	6241.5	
264.47	4566.3	
264.69	4124.6	
264.9	6078.4	
265.11	5554.1	
265.32	3558.7	
265.53	3635.1	
265.74	5472.2	
265.95	4802.5	
266.16	3943	
266.37	4363.5	
266.58	5496.1	
266.79	5149.3	
267	3607.8	
267.21	3411.2	
267.42	4963.6	
267.63	5358.2	
267.84	3770.3	
268.06	3237.2	
268.27	5823.7	
268.48	6049.7	
268.69	3691.1	
268.9	4410.6	
269.11	6074.3	
269.32	4849.6	
269.53	3822.9	
269.74	3540.3	
269.95	5676.3	
270.16	4745.8	
270.37	3820.8	
270.58	4414.1	
270.79	5176.6	
271	5904.3	
271.21	4092.5	
271.42	3861.1	
271.63	5563	
271.84	5068	
272.05	3099.9	
272.26	3394.8	
272.47	5347.9	
272.68	5575.3	
272.89	3696.6	
273.11	4255.7	
273.32	5152.7	
273.53	6326.9	
273.74	4128	
273.95	4036.5	
274.16	5969.1	
274.37	5425.1	
274.58	4217.5	
274.79	3330	
275	5501.5	
275.21	6066.8	
275.42	5083.7	
275.63	4347.2	
275.84	5627.8	
276.05	7073	
276.26	4028.4	
276.47	3740.3	
276.68	5196.4	
276.89	6341.9	
277.1	4349.2	
277.31	3369.6	
277.52	5657.2	
277.73	5743.2	
277.94	3367.5	
278.15	3664.5	
278.36	5487.2	
278.57	5007.3	
278.78	3682.9	
278.99	4195.6	
279.2	5005.2	
279.41	4913.1	
279.62	4830.5	
279.83	3433.8	
280.04	6591.7	
280.25	4910.3	
280.46	4839.4	
280.67	3828.3	
280.88	4982.7	
281.09	5998.5	
281.3	4022.9	
281.51	5107.6	
281.72	5062.6	
281.93	5886.5	
282.14	3524.6	
282.35	3863.8	
282.56	5870.2	
282.77	5799.8	
282.98	3764.2	
283.19	4473.4	
283.4	7124.2	
283.61	5317.2	
283.82	3316.3	
284.03	4757.4	
284.24	5481	
284.45	6038.1	
284.66	4697.4	
284.87	4606.6	
285.08	5905.7	
285.29	6108.4	
285.5	3257.6	
285.71	3761.4	
285.92	5963.7	
286.12	6607.4	
286.33	4719.2	
286.54	3747.1	
286.75	5856.5	
286.96	5203.9	
287.17	3412.6	
287.38	4643.4	
287.59	5031.2	
287.8	4954	
288.01	3756.7	
288.22	4382	
288.43	5886.5	
288.64	4857.8	
288.85	4489.8	
289.06	4248.2	
289.27	5786.9	
289.48	6217	
289.69	4747.9	
289.9	4299.4	
290.11	6027.2	
290.32	5083.7	
290.53	4562.2	
290.74	4184.7	
290.94	5801.9	
291.15	5892.7	
291.36	3637.2	
291.57	4296.6	
291.78	5142.4	
291.99	4777.2	
292.2	3437.2	
292.41	4186.7	
292.62	5923.4	
292.83	5695.4	
293.04	5137	
293.25	3453.6	
293.46	5139.7	
293.67	5954.8	
293.88	3583.9	
294.09	3465.8	
294.29	4926.7	
294.5	5499.5	
294.71	3892.5	
294.92	3667.9	
295.13	5137.7	
295.34	6436.8	
295.55	3222.1	
295.76	3532.1	
295.97	5817.6	
296.18	6481.8	
296.39	3420.8	
296.6	3584.6	
296.81	5436	
297.01	5786.2	
297.22	3768.9	
297.43	3582.6	
297.64	4997	
297.85	5027.1	
298.06	2970.2	
298.27	3254.2	
298.48	5420.3	
298.69	5077.6	
298.9	3866.6	
299.11	3505.4	
299.31	4868	
299.52	4899.4	
299.73	4220.9	
299.94	4110.3	
300.15	5328.8	
300.36	4985.4	
300.57	4111.6	
300.78	4056.3	
300.99	5240.8	
301.2	5511.1	
301.4	3575.1	
301.61	3919.1	
301.82	5677.7	
302.03	5760.9	
302.24	4459.1	
302.45	3384.6	
302.66	5640.8	
302.87	6119.3	
303.08	3579.2	
303.29	4958.1	
303.49	5120.6	
303.7	5358.9	
303.91	3213.9	
304.12	4698	
304.33	4876.9	
304.54	5462.6	
304.75	3611.3	
304.96	3432.4	
305.16	5686.5	
305.37	6433.4	
305.58	3140.9	
305.79	3277.4	
306	5621.7	
306.21	4842.1	
306.42	3624.2	
306.63	5490.6	
306.83	5231.9	
307.04	5934.3	
307.25	3992.9	
307.46	3942.3	
307.67	4620.2	
307.88	5808.7	
308.09	3507.5	
308.29	3687.7	
308.5	5440.8	
308.71	5956.2	
308.92	3872.7	
309.13	3458.3	
309.34	5309	
309.55	5249.6	
309.75	4485.7	
309.96	4095.3	
310.17	5844.2	
310.38	5057.1	
310.59	4317.1	
310.8	4057.7	
311.01	5572.5	
311.21	5257.1	
311.42	3401.7	
311.63	3535.5	
311.84	5163.6	
312.05	5509	
312.26	3973.1	
312.46	4384.7	
312.67	5226.4	
312.88	4941.1	
313.09	3477.5	
313.3	3394.8	
313.51	6131.6	
313.71	6513.9	
313.92	3504.1	
314.13	3672	
314.34	5539.8	
314.55	5334.3	
314.76	4434.5	
314.96	3887	
315.17	5492.7	
315.38	5893.4	
315.59	3492.5	
315.8	3376.4	
316.01	6224.5	
316.21	6331	
316.42	3320.4	
316.63	3837.2	
316.84	5260.5	
317.05	6063.4	
317.26	4179.9	
317.46	3680.2	
317.67	5341.1	
317.88	5743.2	
318.09	4461.8	
318.3	3211.2	
318.5	5116.5	
318.71	5653.1	
318.92	5651	
319.13	4119.8	
319.34	5850.4	
319.54	5978	
319.75	3280.2	
319.96	3046.7	
320.17	5756.2	
320.38	5920.7	
320.58	3224.9	
320.79	3851.5	
321	5968.5	
321.21	6149.4	
321.42	3819.5	
321.62	3203.7	
321.83	5036.6	
322.04	5405.3	
322.25	3671.3	
322.46	3456.3	
322.66	5481	
322.87	5636	
323.08	4364.9	
323.29	3409.2	
323.5	6436.1	
323.7	4980	
323.91	4784.7	
324.12	4242.7	
324.33	5483.1	
324.53	5672.2	
324.74	4135.5	
324.95	4276.2	
325.16	4756.7	
325.37	5157.5	
325.57	3530.7	
325.78	3508.9	
325.99	5436	
326.2	4872.1	
326.4	5070.1	
326.61	3249.4	
326.82	5344.5	
327.03	5498.8	
327.24	5031.9	
327.44	4722.6	
327.65	5651	
327.86	4582	
328.07	4104.8	
328.27	3348.4	
328.48	6066.1	
328.69	4947.2	
328.9	5027.1	
329.1	3732.8	
329.31	5279.7	
329.52	6167.8	
329.73	3478.1	
329.93	3914.4	
330.14	5295.4	
330.35	5608	
330.56	5665.4	
330.76	4321.9	
330.97	5153.4	
331.18	5545.2	
331.39	3872.7	
331.59	3179.1	
331.8	5982.8	
332.01	6105	
332.22	3586	
332.42	4135.5	
332.63	5573.2	
332.84	5107.6	
333.05	3899.3	
333.25	3535.5	
333.46	5143.1	
333.67	5352	
333.88	3700	
334.08	4052.9	
334.29	7173.4	
334.5	6072.9	
334.7	3398.9	
334.91	4969.1	
335.12	4954	
335.33	5806.7	
335.53	3903.4	
335.74	5759.6	
335.95	5211.4	
336.16	5025.7	
336.36	3885.7	
336.57	4442.7	
336.78	4887.1	
336.98	5909.8	
337.19	4807.9	
337.4	3834.5	
337.61	6482.5	
337.81	4894	
338.02	3557.3	
338.23	4596.3	
338.43	6088.6	
338.64	5069.4	
338.85	3453.6	
339.05	4556	
339.26	6219.7	
339.47	4837.3	
339.68	3495.9	
339.88	5199.1	
340.09	5653.8	
340.3	5822.4	
340.5	4141.7	
340.71	3106.1	
340.92	4837.3	
341.13	6120	
341.33	3459.7	
341.54	4184.7	
341.75	5616.9	
341.95	5245.5	
342.16	3958	
342.37	4291.2	
342.57	4929.5	
342.78	5367.7	
342.99	4392.2	
343.19	3135.4	
343.4	5737	
343.61	5566.4	
343.81	3747.8	
344.02	3489.1	
344.23	5801.2	
344.43	6202.6	
344.64	4365.6	
344.85	4216.8	
345.06	5654.4	
345.26	6017.6	
345.47	4022.2	
345.68	4718.5	
345.88	4726	
346.09	5892.7	
346.3	4151.9	
346.5	3078.8	
346.71	5304.9	
346.92	5076.2	
347.12	3174.4	
347.33	4029	
347.54	5916.6	
347.74	6312.5	
347.95	4063.9	
348.16	2954.5	
348.36	5199.1	
348.57	4855.1	
348.78	3999	
348.98	4308.2	
349.19	5343.2	
349.39	4861.9	
349.6	3179.8	
349.81	3583.3	
350.01	5590.3	
350.22	5102.2	
350.43	3845.4	
350.63	4690.5	
350.84	5418.2	
351.05	5212.8	
351.25	3545.7	
351.46	3175	
351.67	5922.7	
351.87	5006.6	
352.08	3803.8	
352.29	4323.3	
352.49	5788.9	
352.7	5927.5	
352.9	3377.8	
353.11	4263.2	
353.32	6486.6	
353.52	5204.6	
353.73	3369.6	
353.94	4298.7	
354.14	5661.3	
354.35	5473.5	
354.55	3454.9	
354.76	3880.2	
354.97	5645.6	
355.17	5422.3	
355.38	3248.8	
355.59	4594.3	
355.79	5100.1	
356	5433.3	
356.2	3827	
356.41	3334.1	
356.62	4782.7	
356.82	5276.9	
357.03	4074.8	
357.24	3684.3	
357.44	5098.1	
357.65	5162.9	
357.85	4937.7	
358.06	3914.4	
358.27	4781.3	
358.47	4969.7	
358.68	3195.5	
358.88	4080.9	
359.09	5567.7	
359.3	6022.4	
359.5	4733.5	
359.71	4204.5	
359.91	6443.6	
360.12	5674.9	
360.33	4059.8	
360.53	4558.1	
360.74	5010.7	
360.94	5076.2	
361.15	4238.6	
361.36	3491.1	
361.56	5737.7	
361.77	5252.4	
361.97	4631.1	
362.18	3777.8	
362.38	5850.4	
362.59	4919.2	
362.8	3409.2	
363	3233.7	
363.21	4674.8	
363.41	5334.3	
363.62	3956	
363.83	4891.2	
364.03	5428.5	
364.24	6442.2	
364.44	5064.6	
364.65	5057.1	
364.85	5235.3	
365.06	5073.5	
365.27	3623.5	
365.47	3611.3	
365.68	6162.3	
365.88	5149.3	
366.09	4022.9	
366.29	3665.2	
366.5	5433.9	
366.71	5908.4	
366.91	4921.3	
367.12	4197.7	
367.32	6423.8	
367.53	5663.3	
367.73	4083.6	
367.94	5060.5	
368.14	5644.9	
368.35	6576	
368.56	4068.6	
368.76	3392.8	
368.97	5795.1	
369.17	7482.6	
369.38	3585.3	
369.58	3870.7	
369.79	4780.6	
369.99	6141.2	
370.2	4847.5	
370.4	3955.3	
370.61	5427.8	
370.82	6586.3	
371.02	3802.4	
371.23	3145	
371.43	4675.5	
371.64	6015.6	
371.84	3814	
372.05	5000.5	
372.25	7307.8	
372.46	5773.2	
372.66	3848.8	
372.87	3723.9	
373.07	5774.6	
373.28	7380.2	
373.48	4800.4	
373.69	4555.4	
373.9	5265.3	
374.1	5180	
374.31	4700.1	
374.51	4291.9	
374.72	6035.4	
374.92	4949.3	
375.13	4863.9	
375.33	4087.1	
375.54	5642.8	
375.74	5078.3	
375.95	4134.8	
376.15	5437.4	
376.36	5617.6	
376.56	5470.8	
376.77	4198.3	
376.97	4702.8	
377.18	6666.8	
377.38	5739.1	
377.59	4993.6	
377.79	3703.4	
378	5502.9	
378.2	5938.4	
378.41	3691.8	
378.61	3613.3	
378.82	5967.8	
379.02	5116.5	
379.23	3881.6	
379.43	4969.1	
379.64	6027.2	
379.84	5654.4	
380.05	3745.1	
380.25	3649.5	
380.46	5726.1	
380.66	5361.6	
380.87	5033.9	
381.07	5363.6	
381.28	6410.8	
381.48	5719.3	
381.69	3753.2	
381.89	3801	
382.1	4743.1	
382.3	5943.9	
382.51	4849.6	
382.71	5726.1	
382.91	5792.3	
383.12	6255.9	
383.32	4102.1	
383.53	4351.3	
383.73	5635.3	
383.94	5446.2	
384.14	4284.4	
384.35	3427.6	
384.55	5347.9	
384.76	5831.9	
384.96	4110.3	
385.17	4416.8	
385.37	5742.5	
385.58	5032.5	
385.78	4460.5	
385.98	3304.7	
386.19	5265.3	
386.39	5638.1	
386.6	3899.3	
386.8	4148.5	
387.01	5783.5	
387.21	5773.2	
387.42	4549.2	
387.62	5126.1	
387.83	5087.2	
388.03	5713.2	
388.23	4164.2	
388.44	5016.8	
388.64	4816.8	
388.85	4913.1	
389.05	4535.6	
389.26	5089.2	
389.46	6696.2	
389.67	6108.4	
389.87	4453.6	
390.07	4503.5	
390.28	5403.2	
390.48	4986.1	
390.69	3700	
390.89	4003.1	
391.1	5188.2	
391.3	6045.6	
391.5	5225.1	
391.71	5833.3	
391.91	5795.8	
392.12	6811.5	
392.32	5265.3	
392.53	4520.5	
392.73	5243.5	
392.93	5386.8	
393.14	4178.5	
393.34	5020.3	
393.55	5907.7	
393.75	5367.7	
393.95	4198.3	
394.16	4162.2	
394.36	5106.3	
394.57	5859.2	
394.77	3703.4	
394.98	4041.3	
395.18	5115.1	
395.38	5342.5	
395.59	4951.3	
395.79	3852.2	
396	5186.1	
396.2	5696.1	
396.4	4689.8	
396.61	4627	
396.81	5878.4	
397.02	5153.4	
397.22	4868.7	
397.42	4974.5	
397.63	5934.3	
397.83	5015.5	
398.04	3837.2	
398.24	4338.3	
398.44	5612.8	
398.65	4643.4	
398.85	3605.8	
399.05	3770.3	
399.26	5016.2	
399.46	6780.8	
399.67	4152.6	
399.87	3820.8	
400.07	5394.3	
400.28	5723.4	
400.48	3948.5	
400.69	5009.3	
400.89	5937.7	
401.09	6299.6	
401.3	3754.6	
401.5	4971.1	
401.7	6598.6	
401.91	6889.4	
402.11	4143.7	
402.32	4364.9	
402.52	6001.2	
402.72	5924.1	
402.93	4582.7	
403.13	3479.5	
403.33	6763.1	
403.54	5511.1	
403.74	4332.8	
403.94	5224.4	
404.15	5584.1	
404.35	6649.8	
404.56	4089.8	
404.76	5928.2	
404.96	5976.7	
405.17	5696.8	
405.37	5079	
405.57	4521.9	
405.78	6049.7	
405.98	5480.4	
406.18	4080.2	
406.39	5005.9	
406.59	5971.2	
406.79	5629.2	
407	3897.3	
407.2	3975.1	
407.4	5969.8	
407.61	6232.7	
407.81	3994.2	
408.01	5984.2	
408.22	4857.1	
408.42	6925.5	
408.62	4992.3	
408.83	4474.8	
409.03	5490.6	
409.23	5268.1	
409.44	4514.4	
409.64	4791.6	
409.84	6382.8	
410.05	6272.9	
410.25	4607.9	
410.45	4394.9	
410.66	5716.6	
410.86	8180.3	
411.06	4784.7	
411.27	4662.5	
411.47	7855.3	
411.67	5827.2	
411.88	4908.3	
412.08	5115.8	
412.28	6536.4	
412.49	6948.1	
412.69	4646.8	
412.89	4562.2	
413.09	6761	
413.3	6610.2	
413.5	4689.2	
413.7	4242.7	
413.91	5941.8	
414.11	6736.5	
414.31	4506.9	
414.52	4964.3	
414.72	6427.9	
414.92	6352.8	
415.12	4554.7	
415.33	5066.7	
415.53	6651.1	
415.73	6864.8	
415.94	5408	
416.14	4825	
416.34	5644.2	
416.55	5406.6	
416.75	6014.2	
416.95	5441.5	
417.15	6621.1	
417.36	7382.2	
417.56	6183.5	
417.76	5209.3	
417.97	7030	
418.17	6689.3	
418.37	4814.8	
418.57	4840	
418.78	6434.7	
418.98	6141.2	
419.18	5736.4	
419.38	5693.4	
419.59	6225.1	
419.79	5882.4	
419.99	4746.5	
420.2	5108.3	
420.4	6745.3	
420.6	6821.1	
420.8	4719.9	
421.01	4543.1	
421.21	6483.9	
421.41	6754.2	
421.61	5117.2	
421.82	4715.8	
422.02	6023.8	
422.22	6904.4	
422.42	5652.4	
422.63	5184.8	
422.83	6194.4	
423.03	7340.6	
423.23	5271.5	
423.44	4189.5	
423.64	6251.1	
423.84	5965.7	
424.04	4716.5	
424.25	4328.7	
424.45	7109.9	
424.65	7120.8	
424.85	4140.3	
425.06	4772.4	
425.26	7085.3	
425.46	6137.1	
425.66	5258.5	
425.87	4902.2	
426.07	6935.8	
426.27	6729.6	
426.47	5048.2	
426.67	4480.3	
426.88	7261.4	
427.08	6673	
427.28	5210	
427.48	4367	
427.69	5607.3	
427.89	6257.2	
428.09	5246.9	
428.29	4402.5	
428.5	6983.6	
428.7	6453.8	
428.9	4315.1	
429.1	4931.5	
429.3	6371.9	
429.51	6738.5	
429.71	4653	
429.91	5360.9	
430.11	6682.5	
430.31	6933.1	
430.52	4928.8	
430.72	5119.2	
430.92	7208.8	
431.12	6762.4	
431.32	4595.6	
431.53	5024.3	
431.73	5571.8	
431.93	7319.4	
432.13	4504.2	
432.33	4298	
432.54	6064	
432.74	6456.6	
432.94	4318.5	
433.14	5436.7	
433.34	6677.1	
433.55	6041.5	
433.75	5231.9	
433.95	7048.4	
434.15	6382.8	
434.35	5976.7	
434.56	4455.7	
434.76	3928.7	
434.96	6323.4	
435.16	6570.6	
435.36	4306.9	
435.56	5503.6	
435.77	5944.6	
435.97	6154.8	
436.17	6081.8	
436.37	5347.9	
436.57	5941.2	
436.78	5810.8	
436.98	7182.2	
437.18	5976	
437.38	6589.7	
437.58	6189.6	
437.78	6059.3	
437.99	4817.5	
438.19	6721.4	
438.39	7515.4	
438.59	4747.9	
438.79	4278.9	
438.99	7391.1	
439.2	6142.5	
439.4	4336.2	
439.6	4311	
439.8	6472.3	
440	7575.4	
440.2	5367.7	
440.4	5447.6	
440.61	6873	
440.81	7404.1	
441.01	4459.1	
441.21	5371.8	
441.41	7126.2	
441.61	6780.8	
441.81	5696.1	
442.02	6728.9	
442.22	7684.7	
442.42	6903	
442.62	4476.2	
442.82	4570.4	
443.02	7167.2	
443.22	6312.5	
443.43	4954.7	
443.63	4502.1	
443.83	6144.6	
444.03	6107.7	
444.23	5714.5	
444.43	5251	
444.63	6418.3	
444.83	7639.6	
445.04	4596.3	
445.24	5847	
445.44	6818.4	
445.64	6847	
445.84	5431.9	
446.04	5384.8	
446.24	6108.4	
446.44	7150.8	
446.65	4678.2	
446.85	5077.6	
447.05	6340.5	
447.25	7155.6	
447.45	5126.1	
447.65	4549.2	
447.85	6567.2	
448.05	6164.4	
448.25	5502.9	
448.46	5332.2	
448.66	6506.4	
448.86	6178	
449.06	4318.5	
449.26	5545.9	
449.46	6850.5	
449.66	5869.5	
449.86	4970.4	
450.06	4947.9	
450.26	6118.6	
450.47	6686.6	
450.67	5305.6	
450.87	5596.4	
451.07	6713.2	
451.27	6567.2	
451.47	4558.8	
451.67	5066	
451.87	6164.4	
452.07	7344.7	
452.27	4752.7	
452.47	4816.8	
452.67	6498.9	
452.88	7125.6	
453.08	4169	
453.28	6199.9	
453.48	7681.2	
453.68	6448.4	
453.88	4618.2	
454.08	4973.8	
454.28	6840.2	
454.48	6424.5	
454.68	5481.7	
454.88	5939.1	
455.08	6994.5	
455.28	6610.2	
455.48	4517.8	
455.68	5172.5	
455.89	7349.5	
456.09	7031.4	
456.29	4932.2	
456.49	4866.7	
456.69	7296.9	
456.89	6477	
457.09	5446.2	
457.29	5696.1	
457.49	6780.1	
457.69	6924.9	
457.89	5205.9	
458.09	4545.1	
458.29	6527.6	
458.49	7340.6	
458.69	5595.7	
458.89	4977.2	
459.09	7437.5	
459.29	7597.3	
459.49	5104.2	
459.69	5811.5	
459.9	6972	
460.1	6477	
460.3	5029.1	
460.5	4804.5	
460.7	6974	
460.9	6689.3	
461.1	4476.2	
461.3	5707.7	
461.5	7591.1	
461.7	7208.8	
461.9	4868	
462.1	5355.4	
462.3	6705.7	
462.5	7264.1	
462.7	4897.4	
462.9	5002.5	
463.1	8344.8	
463.3	7882.6	
463.5	5145.2	
463.7	6008.7	
463.9	6852.5	
464.1	7128.3	
464.3	5242.8	
464.5	5504.3	
464.7	7440.3	
464.9	7102.4	
465.1	6906.4	
465.3	5836	
465.5	7854.6	
465.7	7750.2	
465.9	5993	
466.1	5880.4	
466.3	7479.9	
466.5	7372	
466.7	6665.5	
466.9	5642.2	
467.1	7268.2	
467.3	8228.7	
467.5	6672.3	
467.7	5522	
467.9	8454	
468.1	9309.4	
468.3	6429.3	
468.5	6710.5	
468.7	7265.5	
468.9	7271	
469.1	5755.5	
469.3	6477.7	
469.5	9176.9	
469.7	6749.4	
469.9	6233.3	
470.1	5497.4	
470.3	7197.9	
470.5	7264.8	
470.7	6864.1	
470.9	5627.1	
471.1	7034.8	
471.3	7485.3	
471.5	5443.5	
471.69	7347.4	
471.89	6857.3	
472.09	6425.8	
472.29	6294.8	
472.49	6726.9	
472.69	6632.7	
472.89	7546.1	
473.09	5294.7	
473.29	5587.5	
473.49	6826.6	
473.69	6964.5	
473.89	6486.6	
474.09	5649	
474.29	8319.5	
474.49	7902.4	
474.69	6479.1	
474.89	5801.9	
475.09	7094.2	
475.29	6994.5	
475.49	5210.7	
475.69	5441.5	
475.88	8633.6	
476.08	7265.5	
476.28	5150.6	
476.48	5695.4	
476.68	7784.3	
476.88	7637.6	
477.08	5483.1	
477.28	5760.9	
477.48	7108.5	
477.68	7841.7	
477.88	5341.8	
478.08	5632.6	
478.28	8071.7	
478.48	7269.6	
478.67	5689.9	
478.87	5085.1	
479.07	7921.5	
479.27	7396.6	
479.47	5948.7	
479.67	5848.3	
479.87	7640.3	
480.07	8239.7	
480.27	5137	
480.47	6756.9	
480.67	7396.6	
480.87	7917.4	
481.06	5463.3	
481.26	6249.7	
481.46	7271.7	
481.66	7251.2	
481.86	5867.4	
482.06	6987.7	
482.26	6987.7	
482.46	7940	
482.66	5810.1	
482.86	5339.1	
483.05	7360.4	
483.25	6853.9	
483.45	8262.9	
483.65	5824.4	
483.85	6930.3	
484.05	7228	
484.25	6280.4	
484.45	6721.4	
484.65	8196	
484.84	8048.5	
485.04	5695.4	
485.24	5714.5	
485.44	8355.7	
485.64	6765.1	
485.84	5005.2	
486.04	6415.6	
486.24	7094.2	
486.44	7505.8	
486.63	4982	
486.83	5761.6	
487.03	6963.1	
487.23	7137.9	
487.43	5101.5	
487.63	7507.9	
487.83	7204.8	
488.02	8293.6	
488.22	6054.5	
488.42	6649.1	
488.62	8134.5	
488.82	7008.8	
489.02	5786.9	
489.22	5701.5	
489.41	7959.1	
489.61	7578.2	
489.81	5492	
490.01	5441.5	
490.21	7771.4	
490.41	8475.2	
490.61	5432.6	
490.8	5465.3	
491	7300.3	
491.2	6684.6	
491.4	6180.1	
491.6	5302.2	
491.8	7377.5	
491.99	7574.1	
492.19	5139.7	
492.39	5594.4	
492.59	7971.4	
492.79	7965.2	
492.99	6455.9	
493.18	5441.5	
493.38	7974.1	
493.58	8700.5	
493.78	6122.1	
493.98	5866.1	
494.18	7608.9	
494.37	7154.2	
494.57	6355.5	
494.77	6289.3	
494.97	7823.9	
495.17	8090.8	
495.37	5819	
495.56	6115.9	
495.76	8273.1	
495.96	7884	
496.16	7007.5	
496.36	5805.3	
496.55	8103.1	
496.75	7594.6	
496.95	6256.5	
497.15	6102.9	
497.35	7995.3	
497.54	8069.7	
497.74	5852.4	
497.94	7575.4	
498.14	8711.4	
498.34	8540	
498.53	5631.2	
498.73	6423.8	
498.93	7302.4	
499.13	8058.8	
499.33	6226.5	
499.52	6767.2	
499.72	7851.2	
499.92	8223.3	
500.12	5854.5	
500.32	6203.3	
500.51	8227.4	
500.71	7951.6	
500.91	6858	
501.11	6552.8	
501.31	8191.2	
501.5	8519.5	
501.7	7161.7	
501.9	6210.8	
502.1	7907.9	
502.29	8268.3	
502.49	6631.3	
502.69	7135.1	
502.89	8082	
503.09	8105.9	
503.28	5698.1	
503.48	5853.1	
503.68	7370	
503.88	7403.4	
504.07	6804	
504.27	6191	
504.47	7752.2	
504.67	8039	
504.86	6670.9	
505.06	6402.6	
505.26	7467.6	
505.46	9250.7	
505.65	6294.1	
505.85	6502.3	
506.05	7445.7	
506.25	7802.8	
506.44	5656.5	
506.64	6595.1	
506.84	7318.1	
507.04	8188.5	
507.23	5892.7	
507.43	6378.7	
507.63	9284.1	
507.83	7593.9	
508.02	6348	
508.22	5956.9	
508.42	9535.3	
508.62	7393.2	
508.81	6576.7	
509.01	6855.2	
509.21	7281.9	
509.4	7522.2	
509.6	6533.7	
509.8	5859.2	
510	7520.1	
510.19	8914.1	
510.39	5847.6	
510.59	5914.5	
510.79	7288.7	
510.98	8655.4	
511.18	5878.4	
511.38	6031.3	
511.57	8066.9	
511.77	8027.4	
511.97	6725.5	
512.17	5782.8	
512.36	8078.6	
512.56	8112	
512.76	5844.9	
512.95	5576.6	
513.15	8246.5	
513.35	6860	
513.55	6655.9	
513.74	5863.3	
513.94	8256	
514.14	7510.6	
514.33	6842.9	
514.53	6627.9	
514.73	7484	
514.92	7727	
515.12	6059.3	
515.32	5850.4	
515.51	7789.8	
515.71	8300.4	
515.91	7579.5	
516.11	5903.6	
516.3	9454.8	
516.5	7382.9	
516.7	6460	
516.89	7052.5	
517.09	7484.6	
517.29	7391.8	
517.48	6853.9	
517.68	6205.3	
517.88	7216.4	
518.07	7884	
518.27	6652.5	
518.47	5720.7	
518.66	8434.2	
518.86	7058	
519.06	5527.5	
519.25	6079.1	
519.45	7419.1	
519.65	8856.8	
519.84	6621.1	
520.04	7310.6	
520.24	9200.2	
520.43	8092.9	
520.63	6269.5	
520.83	6048.3	
521.02	7272.3	
521.22	7905.8	
521.42	6666.1	
521.61	7165.2	
521.81	7502.4	
522.01	7752.9	
522.2	6553.5	
522.4	6298.9	
522.6	8162.5	
522.79	6984.3	
522.99	6427.2	
523.18	5653.1	
523.38	7918.8	
523.58	7838.3	
523.77	7587.7	
523.97	5642.2	
524.17	9676	
524.36	8895.7	
524.56	6939.2	
524.76	6631.3	
524.95	7869.7	
525.15	7458.7	
525.34	6382.2	
525.54	6380.1	
525.74	8187.8	
525.93	7209.5	
526.13	7580.9	
526.33	6274.3	
526.52	8480	
526.72	7958.4	
526.91	7435.5	
527.11	6792.4	
527.31	8475.9	
527.5	8885.5	
527.7	6647	
527.89	5666.7	
528.09	7458	
528.29	7961.1	
528.48	7146	
528.68	6705	
528.87	8398.7	
529.07	8469.7	
529.27	6640.9	
529.46	6040.1	
529.66	7860.8	
529.85	8430.8	
530.05	5917.9	
530.25	6748.1	
530.44	9374.2	
530.64	7968	
530.83	6296.1	
531.03	6640.2	
531.23	8377.6	
531.42	8289.5	
531.62	7477.8	
531.81	6510.5	
532.01	8525.7	
532.21	9007	
532.4	6356.2	
532.6	6651.1	
532.79	9469.1	
532.99	8489.5	
533.18	6674.3	
533.38	7697.6	
533.58	8091.5	
533.77	8714.1	
533.97	6553.5	
534.16	7331	
534.36	8990.6	
534.55	8074.5	
534.75	7488.1	
534.95	6608.8	
535.14	8716.2	
535.34	7976.2	
535.53	6229.2	
535.73	8228.7	
535.92	9396.1	
536.12	8150.9	
536.31	6399.9	
536.51	7740	
536.71	8638.3	
536.9	8064.9	
537.1	6633.4	
537.29	6697.5	
537.49	9017.2	
537.68	7961.8	
537.88	7082.6	
538.07	6327.5	
538.27	8273.8	
538.46	9253.4	
538.66	6291.4	
538.86	6676.4	
539.05	8271.1	
539.25	8624.7	
539.44	6849.8	
539.64	6518	
539.83	8138.6	
540.03	9143.5	
540.22	6388.3	
540.42	6578.8	
540.61	8340.7	
540.81	8381	
541	6957.6	
541.2	7617.8	
541.39	7963.9	
541.59	8321.6	
541.78	7361.8	
541.98	6411.5	
542.18	7546.8	
542.37	7618.4	
542.57	6830.7	
542.76	7254.6	
542.96	7737.2	
543.15	8316.8	
543.35	6957.6	
543.54	6198.5	
543.74	8659.5	
543.93	8183	
544.13	6891.4	
544.32	7959.8	
544.52	8531.8	
544.71	7777.5	
544.91	5957.5	
545.1	7212.9	
545.3	7835.5	
545.49	8542.1	
545.69	5862.7	
545.88	6472.3	
546.08	9417.2	
546.27	8984.4	
546.47	7077.1	
546.66	6324.8	
546.86	8678.6	
547.05	9405	
547.24	6578.1	
547.44	6365.8	
547.63	7639.6	
547.83	8850.6	
548.02	6837.5	
548.22	7006.1	
548.41	7466.2	
548.61	8871.8	
548.8	6279.1	
549	6305.7	
549.19	8078.6	
549.39	8497.7	
549.58	6094.1	
549.78	6650.4	
549.97	8524.3	
550.17	8062.2	
550.36	7538.6	
550.55	8494.3	
550.75	8032.1	
550.94	8996.7	
551.14	6308.4	
551.33	6776.7	
551.53	7447.8	
551.72	8376.2	
551.92	6706.4	
552.11	6453.1	
552.31	8428.8	
552.5	8567.3	
552.69	8224	
552.89	6128.9	
553.08	8425.3	
553.28	8155.7	
553.47	6503.7	
553.67	7681.9	
553.86	9071.8	
554.06	7438.9	
554.25	5740.5	
554.44	6310.5	
554.64	9891.7	
554.83	9387.2	
555.03	6249.7	
555.22	6710.5	
555.42	8641.7	
555.61	8385.1	
555.8	6560.3	
556	6831.3	
556.19	7550.9	
556.39	8774.2	
556.58	6607.4	
556.78	6540.5	
556.97	8282	
557.16	8051.9	
557.36	7774.8	
557.55	6233.3	
557.75	7267.6	
557.94	9050	
558.13	6367.1	
558.33	6021.7	
558.52	8755.7	
558.72	7706.5	
558.91	6195.8	
559.1	6399.2	
559.3	7312.6	
559.49	7116.7	
559.69	5746.6	
559.88	6745.3	
560.07	8307.9	
560.27	8609	
560.46	7020.4	
560.66	7125.6	
560.85	8039	
561.04	7189.7	
561.24	6091.3	
561.43	6363	
561.63	7481.9	
561.82	7723.6	
562.01	7692.9	
562.21	6734.4	
562.4	8173.4	
562.59	9215.2	
562.79	6541.9	
562.98	6191	
563.18	8190.5	
563.37	9643.9	
563.56	7058	
563.76	6143.2	
563.95	7636.9	
564.14	7518.1	
564.34	6445	
564.53	6257.2	
564.73	8142	
564.92	8388.5	
565.11	6589	
565.31	5984.2	
565.5	8690.2	
565.69	7625.3	
565.89	6173.9	
566.08	6436.1	
566.27	8518.9	
566.47	8929.1	
566.66	7103.7	
566.85	5730.2	
567.05	8084	
567.24	7429.3	
567.44	6087.9	
567.63	7527.7	
567.82	8339.3	
568.02	8077.2	
568.21	6167.8	
568.4	6541.2	
568.6	7950.9	
568.79	7962.5	
568.98	5998.5	
569.18	6110.5	
569.37	7880.6	
569.56	9802.9	
569.76	6417.7	
569.95	7400	
570.14	8325	
570.34	8214.4	
570.53	5891.3	
570.72	5930.9	
570.91	8734.6	
571.11	7869.7	
571.3	6384.2	
571.49	7363.8	
571.69	7847.1	
571.88	7416.4	
572.07	6957.6	
572.27	6952.2	
572.46	7408.2	
572.65	8581.7	
572.85	6191	
573.04	6522.8	
573.23	8637.6	
573.43	7970	
573.62	5902.2	
573.81	6645	
574	8003.5	
574.2	7727	
574.39	6249	
574.58	6376	
574.78	8784.4	
574.97	8026.7	
575.16	6765.1	
575.36	6943.3	
575.55	8387.1	
575.74	8626.7	
575.93	5820.3	
576.13	6901.7	
576.32	7727.7	
576.51	8307.9	
576.71	6220.4	
576.9	7634.1	
577.09	8737.3	
577.28	8283.4	
577.48	6785.6	
577.67	5756.2	
577.86	7901.1	
578.05	8190.5	
578.25	6447	
578.44	6539.8	
578.63	8013	
578.83	9137.4	
579.02	5972.6	
579.21	7380.2	
579.4	8155	
579.6	7869	
579.79	6681.2	
579.98	8811.7	
580.17	8580.3	
580.37	8621.9	
580.56	6112.5	
580.75	6890.7	
580.94	9080	
581.14	8927.8	
581.33	7293.5	
581.52	6240.2	
581.71	8466.3	
581.91	9095	
582.1	5908.4	
582.29	6528.2	
582.48	8065.6	
582.68	7959.1	
582.87	7066.2	
583.06	6584.9	
583.25	8389.2	
583.45	7748.1	
583.64	7210.9	
583.83	8031.5	
584.02	7887.4	
584.21	8300.4	
584.41	7278.5	
584.6	6546	
584.79	8026	
584.98	8749.6	
585.18	6075.6	
585.37	6080.4	
585.56	7622.5	
585.75	8426	
585.94	6193.7	
586.14	6858.6	
586.33	9013.8	
586.52	7971.4	
586.71	6790.4	
586.91	6464.8	
587.1	7395.2	
587.29	8436.3	
587.48	6418.3	
587.67	6288.6	
587.87	8318.8	
588.06	8282	
588.25	7526.3	
588.44	6843.6	
588.63	7873.8	
588.83	8413.7	
589.02	6221.7	
589.21	6125.5	
589.4	7589.1	
589.59	7430	
589.78	5302.9	
589.98	5625.1	
590.17	7117.4	
590.36	7712	
590.55	5072.8	
590.74	6072.2	
590.94	9116.9	
591.13	7660.8	
591.32	5839.4	
591.51	5442.8	
591.7	8176.9	
591.89	7576.8	
592.09	5513.8	
592.28	5943.9	
592.47	6860	
592.66	8714.8	
592.85	5437.4	
593.05	5691.3	
593.24	7476.5	
593.43	8342.7	
593.62	5720.7	
593.81	6205.3	
594	7513.3	
594.19	7728.4	
594.39	5647.6	
594.58	5625.1	
594.77	7827.3	
594.96	8425.3	
595.15	5513.1	
595.34	6199.2	
595.54	7840.3	
595.73	6984.3	
595.92	5025	
596.11	6194.4	
596.3	8404.9	
596.49	7055.3	
596.68	5966.4	
596.88	6436.1	
597.07	8209.6	
597.26	6944.7	
597.45	5428.5	
597.64	6701.6	
597.83	7159.7	
598.02	7848.5	
598.22	5603.9	
598.41	6220.4	
598.6	7666.9	
598.79	7202	
598.98	5655.1	
599.17	6513.9	
599.36	7637.6	
599.55	8842.4	
599.74	7659.4	
599.94	7365.9	
600.13	8209.6	
600.32	7204.8	
600.51	5395	
600.7	5560.9	
600.89	8916.9	
601.08	8900.5	
601.27	5352	
601.47	6412.2	
601.66	8213.7	
601.85	8800.1	
602.04	6032.6	
602.23	6347.3	
602.42	7253.9	
602.61	7954.3	
602.8	6065.4	
602.99	5814.2	
603.18	7743.4	
603.37	7930.4	
603.57	6472.9	
603.76	6956.9	
603.95	8680	
604.14	8148.2	
604.33	5864	
604.52	6242.9	
604.71	7914	
604.9	7438.9	
605.09	6722.1	
605.28	6668.9	
605.47	8504.5	
605.66	8189.8	
605.86	6464.1	
606.05	5888.6	
606.24	8457.4	
606.43	7024.5	
606.62	6242.9	
606.81	7016.3	
607	8289.5	
607.19	7544.7	
607.38	5717.2	
607.57	5913.9	
607.76	7376.1	
607.95	6925.5	
608.14	6324.8	
608.33	6805.4	
608.52	7481.2	
608.72	8259.5	
608.91	5583.4	
609.1	5466	
609.29	7499.7	
609.48	7035.5	
609.67	6500.3	
609.86	5593.7	
610.05	7104.4	
610.24	7490.8	
610.43	5386.8	
610.62	5109	
610.81	8571.4	
611	8290.2	
611.19	5525.4	
611.38	6301.6	
611.57	7785	
611.76	9080	
611.95	5412.8	
612.14	5205.3	
612.33	7582.3	
612.52	7083.2	
612.71	5872.2	
612.9	5087.2	
613.09	6791.1	
613.28	9062.9	
613.47	5578.7	
613.66	6572.6	
613.85	7716.1	
614.04	7249.8	
614.24	5728.2	
614.43	4958.1	
614.62	7808.9	
614.81	7748.1	
615	6318	
615.19	6275	
615.38	7032	
615.57	7473.7	
615.76	6105	
615.95	7014.3	
616.14	7905.8	
616.33	7464.8	
616.52	6458.6	
616.71	6681.8	
616.9	7795.3	
617.09	7641.7	
617.28	5797.8	
617.47	6984.9	
617.66	6892.1	
617.85	6888.7	
618.04	6759.7	
618.22	6156.9	
618.41	7201.3	
618.6	8122.2	
618.79	6092.7	
618.98	5728.9	
619.17	8359.1	
619.36	6763.1	
619.55	5842.2	
619.74	5952.1	
619.93	7727.7	
620.12	7119.4	
620.31	6528.9	
620.5	6662.7	
620.69	8215.8	
620.88	8647.9	
621.07	7242.3	
621.26	6294.1	
621.45	7803.4	
621.64	7817.1	
621.83	6494.1	
622.02	5593.7	
622.21	7899	
622.4	7612.3	
622.59	6944	
622.78	6677.7	
622.97	7146.7	
623.16	8260.1	
623.35	6339.8	
623.54	5510.4	
623.72	7440.3	
623.91	7542.7	
624.1	6580.8	
624.29	5293.3	
624.48	8594.6	
624.67	7810.3	
624.86	6479.8	
625.05	5502.9	
625.24	8711.4	
625.43	7120.1	
625.62	8064.2	
625.81	5704.3	
626	8170.7	
626.19	7344.7	
626.38	6468.2	
626.56	5814.2	
626.75	7197.2	
626.94	7888.8	
627.13	6436.8	
627.32	5128.8	
627.51	7794.6	
627.7	9102.5	
627.89	5325.4	
628.08	6476.4	
628.27	7096.2	
628.46	7306.5	
628.65	5629.2	
628.83	5311.1	
629.02	7889.5	
629.21	7141.9	
629.4	6044.2	
629.59	6288.6	
629.78	7172	
629.97	8104.5	
630.16	6334.4	
630.35	5831.2	
630.54	8519.5	
630.72	8249.9	
630.91	5789.6	
631.1	6332.3	
631.29	7707.2	
631.48	7773.4	
631.67	6388.3	
631.86	5896.8	
632.05	7282.6	
632.24	7340.6	
632.42	5534.3	
632.61	6161.7	
632.8	7406.1	
632.99	7023.2	
633.18	6159.6	
633.37	6522.8	
633.56	7687.4	
633.75	7496.2	
633.93	6146.6	
634.12	5875.6	
634.31	8465.6	
634.5	8110.6	
634.69	5841.5	
634.88	6489.3	
635.07	7526.3	
635.25	8051.9	
635.44	6824.5	
635.63	7045	
635.82	7319.4	
636.01	6873	
636.2	6860	
636.39	6331	
636.57	8509.3	
636.76	8157.7	
636.95	5773.9	
637.14	7126.9	
637.33	7815	
637.52	8699.1	
637.7	5588.2	
637.89	6477.7	
638.08	7385	
638.27	8862.9	
638.46	6561.7	
638.65	7040.2	
638.83	8766	
639.02	7218.4	
639.21	6504.3	
639.4	7006.1	
639.59	7715.4	
639.78	7229.3	
639.96	5776.6	
640.15	5722	
640.34	7617.1	
640.53	7804.8	
640.72	5474.9	
640.91	5807.4	
641.09	7086.7	
641.28	8371.4	
641.47	6124.1	
641.66	6670.9	
641.85	7731.1	
642.03	7996	
642.22	6518	
642.41	5931.6	
642.6	7124.9	
642.79	6578.1	
642.97	5692	
643.16	6425.2	
643.35	7144	
643.54	6853.9	
643.73	5534.3	
643.91	6389	
644.1	6758.3	
644.29	7413.6	
644.48	5761.6	
644.67	5706.3	
644.85	6936.5	
645.04	7271.7	
645.23	5193	
645.42	5484.5	
645.6	6796.5	
645.79	7941.3	
645.98	5507	
646.17	4592.2	
646.36	6498.2	
646.54	7131.7	
646.73	6366.5	
646.92	5160.9	
647.11	6779.5	
647.29	7840.3	
647.48	5231.2	
647.67	5059.8	
647.86	8105.9	
648.05	8145.5	
648.23	5610.1	
648.42	7001.3	
648.61	7518.8	
648.8	7309.2	
648.98	5270.1	
649.17	5644.2	
649.36	6754.2	
649.55	6328.2	
649.73	5315.2	
649.92	6019	
650.11	6701	
650.3	7036.8	
650.48	5449	
650.67	5100.1	
650.86	7322.2	
651.05	6258.6	
651.23	5400.5	
651.42	5406	
651.61	6787.7	
651.79	6924.9	
651.98	5623.7	
652.17	5186.8	
652.36	7277.1	
652.54	6315.9	
652.73	5259.2	
652.92	5180	
653.11	7236.2	
653.29	7381.6	
653.48	4635.9	
653.67	5599.1	
653.85	7073.7	
654.04	8105.9	
654.23	5714.5	
654.42	5272.2	
654.6	6594.5	
654.79	7298.3	
654.98	4788.2	
655.16	5330.2	
655.35	6214.2	
655.54	6246.3	
655.73	5009.3	
655.91	4926.7	
656.1	7399.3	
656.29	6236.1	
656.47	4556	
656.66	6205.3	
656.85	6469.5	
657.03	6498.2	
657.22	5055.1	
657.41	5121.3	
657.59	6614.3	
657.78	6349.4	
657.97	4769	
658.16	5501.5	
658.34	7279.8	
658.53	7599.3	
658.72	6318	
658.9	6898.2	
659.09	6570.6	
659.28	6756.9	
659.46	5179.3	
659.65	5151.3	
659.84	6504.3	
660.02	7031.4	
660.21	4984.8	
660.4	4972.5	
660.58	7365.9	
660.77	6820.4	
660.96	5611.4	
661.14	4591.5	
661.33	7970.7	
661.52	7775.5	
661.7	4612	
661.89	8365.3	
662.08	6369.2	
662.26	5990.3	
662.45	4914.4	
662.64	5059.2	
662.82	7096.2	
663.01	6346	
663.2	5119.2	
663.38	5816.9	
663.57	7079.1	
663.75	6818.4	
663.94	5390.3	
664.13	6599.2	
664.31	6379.4	
664.5	7149.5	
664.69	5548.6	
664.87	6237.4	
665.06	6158.2	
665.25	6901.7	
665.43	6328.2	
665.62	6442.9	
665.8	7218.4	
665.99	6605.4	
666.18	5330.9	
666.36	5490.6	
666.55	7161.7	
666.74	7096.2	
666.92	4988.2	
667.11	6655.9	
667.29	6570.6	
667.48	7112.6	
667.67	6234	
667.85	5444.9	
668.04	6621.8	
668.22	6607.4	
668.41	5444.2	
668.6	5567.7	
668.78	6314.6	
668.97	6554.9	
669.15	5794.4	
669.34	4710.3	
669.53	6337.1	
669.71	6740.5	
669.9	4929.5	
670.08	5625.1	
670.27	6394.4	
670.46	6933.7	
670.64	5806.7	
670.83	6001.2	
671.01	6229.2	
671.2	6804	
671.38	5006.6	
671.57	4910.3	
671.76	7509.2	
671.94	7983	
672.13	4874.8	
672.31	5922.7	
672.5	7068.2	
672.69	6325.5	
672.87	5013.4	
673.06	5329.5	
673.24	6893.5	
673.43	6397.2	
673.61	5721.3	
673.8	5329.5	
673.98	7125.6	
674.17	7293.5	
674.36	5909.1	
674.54	5673.6	
674.73	6849.1	
674.91	7102.4	
675.1	5433.9	
675.28	5059.8	
675.47	6653.2	
675.65	7089.4	
675.84	5279	
676.03	5601.9	
676.21	6395.8	
676.4	5966.4	
676.58	6039.5	
676.77	5732.9	
676.95	7840.3	
677.14	6320.7	
677.32	4967	
677.51	4763.6	
677.69	7116	
677.88	5999.2	
678.06	4860.5	
678.25	4943.8	
678.44	6686.6	
678.62	6306.4	
678.81	4726	
678.99	5709.1	
679.18	7432.8	
679.36	6972.7	
679.55	5203.9	
679.73	5851	
679.92	6933.1	
680.1	6371.2	
680.29	6455.9	
680.47	5301.5	
680.66	6281.1	
680.84	7185	
681.03	4519.9	
681.21	5674.2	
681.4	6321.4	
681.58	6223.1	
681.77	4960.9	
681.95	4907.6	
682.14	7247.8	
682.32	7491.5	
682.51	5969.1	
682.69	4693.3	
682.88	6236.1	
683.06	7002.7	
683.25	5599.1	
683.43	6047.7	
683.62	6554.9	
683.8	6890.7	
683.99	6094.1	
684.17	5316.5	
684.36	7684.7	
684.54	6315.9	
684.73	4473.4	
684.91	4700.1	
685.1	6764.4	
685.28	6182.8	
685.46	5365.7	
685.65	5504.3	
685.83	7083.2	
686.02	6425.2	
686.2	4914.4	
686.39	5115.8	
686.57	6067.4	
686.76	7657.4	
686.94	4871.4	
687.13	5078.3	
687.31	6917.4	
687.5	6422.4	
687.68	4519.9	
687.86	5803.9	
688.05	8160.5	
688.23	5871.5	
688.42	5782.8	
688.6	4918.5	
688.79	6260	
688.97	6305	
689.16	5347.2	
689.34	4287.8	
689.52	7053.9	
689.71	7212.9	
689.89	5579.3	
690.08	4860.5	
690.26	6483.2	
690.45	6349.4	
690.63	5748.6	
690.81	4997.7	
691	6221	
691.18	6144.6	
691.37	5139	
691.55	7365.2	
691.74	6146	
691.92	8193.9	
692.1	5171.1	
692.29	4628.4	
692.47	6415.6	
692.66	5752.7	
692.84	4909.7	
693.02	5511.8	
693.21	5806.7	
693.39	6336.4	
693.58	5510.4	
693.76	4971.8	
693.94	7517.4	
694.13	7331.7	
694.31	4869.4	
694.5	6007.4	
694.68	6158.9	
694.86	6455.2	
695.05	5216.9	
695.23	5333.6	
695.42	6849.1	
695.6	9093	
695.78	5878.4	
695.97	4875.5	
696.15	6855.2	
696.34	6245.6	
696.52	4685.8	
696.7	5586.2	
696.89	6602.7	
697.07	6059.9	
697.25	5340.4	
697.44	6979.5	
697.62	6498.2	
697.81	6919.4	
697.99	5184.8	
698.17	5569.8	
698.36	5913.2	
698.54	6591	
698.72	5423	
698.91	4447.5	
699.09	6132.3	
699.28	6004	
699.46	5130.2	
699.64	5048.2	
699.83	6029.2	
700.01	7331.7	
700.19	5807.4	
700.38	4253.6	
700.56	7320.1	
700.74	6175.3	
700.93	4659.8	
701.11	5526.1	
701.29	6761	
701.48	7722.9	
701.66	4811.4	
701.84	4888.5	
702.03	6238.8	
702.21	6900.3	
702.39	4486.4	
702.58	4994.3	
702.76	6590.4	
702.94	6746	
703.13	4433.9	
703.31	6972.7	
703.49	5921.4	
703.68	7049.8	
703.86	4649.6	
704.04	5668.1	
704.23	6429.9	
704.41	6895.5	
704.59	4825	
704.78	6083.1	
704.96	7615	
705.14	6948.8	
705.33	4581.3	
705.51	5516.5	
705.69	6291.4	
705.87	7073.7	
706.06	5748.6	
706.24	4590.2	
706.42	6638.8	
706.61	6874.3	
706.79	5790.3	
706.97	4609.3	
707.16	6059.9	
707.34	6659.3	
707.52	5713.2	
707.7	4866	
707.89	6198.5	
708.07	5917.3	
708.25	5806	
708.44	5868.8	
708.62	6165.8	
708.8	7285.3	
708.98	6016.2	
709.17	4961.5	
709.35	6580.1	
709.53	6584.9	
709.72	4676.2	
709.9	4763.6	
710.08	6799.9	
710.26	6898.2	
710.45	6337.1	
710.63	5178.6	
710.81	6520	
710.99	6573.3	
711.18	5660.6	
711.36	5162.2	
711.54	6262.7	
711.72	6995.2	
711.91	5126.7	
712.09	4633.2	
712.27	6479.8	
712.45	7150.1	
712.64	5423	
712.82	4437.3	
713	5915.9	
713.18	6164.4	
713.37	4425.7	
713.55	5771.9	
713.73	6877.1	
713.91	5540.4	
714.1	4863.2	
714.28	4351.3	
714.46	6568.5	
714.64	5803.3	
714.83	3927.3	
715.01	4775.9	
715.19	5988.9	
715.37	5413.5	
715.55	4508.9	
715.74	4803.2	
715.92	6932.4	
716.1	4959.5	
716.28	5885.9	
716.47	4932.9	
716.65	5673.6	
716.83	5788.2	
717.01	4807.3	
717.19	4876.2	
717.38	7835.5	
717.56	5530.9	
717.74	5134.3	
717.92	4250.9	
718.1	6770.6	
718.29	5995.8	
718.47	3889.8	
718.65	4554.7	
718.83	6631.3	
719.01	6538.5	
719.2	3705.5	
719.38	4800.4	
719.56	6107	
719.74	7649.2	
719.92	4284.4	
720.11	5360.2	
720.29	6175.3	
720.47	5290.6	
720.65	3919.8	
720.83	4855.1	
721.02	5726.1	
721.2	5477	
721.38	4890.5	
721.56	4184	
721.74	4992.3	
721.92	5170.4	
722.11	5451	
722.29	5087.2	
722.47	6434.7	
722.65	5641.5	
722.83	4169	
723.01	5142.4	
723.2	5781.4	
723.38	6014.9	
723.56	3651.5	
723.74	4790.2	
723.92	5244.2	
724.1	6371.9	
724.29	4128	
724.47	5279	
724.65	5339.7	
724.83	5288.5	
725.01	4046.8	
725.19	4968.4	
725.37	5253.7	
725.56	5397.1	
725.74	3882.3	
725.92	4156	
726.1	5283.8	
726.28	5515.9	
726.46	4561.5	
726.64	4304.1	
726.83	5536.3	
727.01	5785.5	
727.19	3872.7	
727.37	4766.3	
727.55	5609.4	
727.73	6163.7	
727.91	3891.1	
728.09	3717.7	
728.28	6227.2	
728.46	6890.7	
728.64	4945.2	
728.82	4793.6	
729	7331.7	
729.18	6561	
729.36	4024.3	
729.54	6393.8	
729.72	7574.1	
729.91	5909.8	
730.09	6014.2	
730.27	4676.2	
730.45	5720	
730.63	6397.9	
730.81	5330.2	
730.99	4349.2	
731.17	6959	
731.35	5483.8	
731.53	4859.1	
731.71	4480.3	
731.9	6618.4	
732.08	6842.3	
732.26	4711.7	
732.44	4386.1	
732.62	6919.4	
732.8	6358.9	
732.98	5231.2	
733.16	4257.7	
733.34	6314.6	
733.52	5198.4	
733.7	4741.7	
733.88	5045.5	
734.07	6275.7	
734.25	6019.7	
734.43	4245.4	
734.61	5862	
734.79	7461.4	
734.97	5905.7	
735.15	4385.4	
735.33	4693.3	
735.51	6268.8	
735.69	5885.2	
735.87	6412.9	
736.05	4997.7	
736.23	6111.8	
736.41	5858.6	
736.59	4882.4	
736.77	4939.7	
736.95	6570.6	
737.13	6064	
737.32	4532.8	
737.5	4701.5	
737.68	7158.3	
737.86	5974.6	
738.04	4317.1	
738.22	6191	
738.4	5752.1	
738.58	6075	
738.76	5018.9	
738.94	3913.7	
739.12	5899.5	
739.3	5775.3	
739.48	5575.9	
739.66	5317.9	
739.84	6139.1	
740.02	6110.5	
740.2	4049.5	
740.38	4373.1	
740.56	6528.9	
740.74	5431.2	
740.92	5054.4	
741.1	5021.6	
741.28	6047	
741.46	5891.3	
741.64	4648.9	
741.82	5186.1	
742	6100.2	
742.18	6012.2	
742.36	4858.5	
742.54	4411.3	
742.72	6586.3	
742.9	5301.5	
743.08	5240.8	
743.26	4037.9	
743.44	6837.5	
743.62	6671.6	
743.8	5433.9	
743.98	4483	
744.16	6370.5	
744.34	6091.3	
744.52	5352.7	
744.7	5275.6	
744.88	6528.9	
745.06	6088.6	
745.24	5404.6	
745.42	5498.8	
745.6	6634.7	
745.78	6425.8	
745.96	4229.1	
746.14	4566.3	
746.32	7423.9	
746.5	6675	
746.68	5165.7	
746.86	4594.3	
747.03	7046.4	
747.21	5442.8	
747.39	5109.7	
747.57	4599.7	
747.75	6345.3	
747.93	6708.5	
748.11	4583.4	
748.29	4556.7	
748.47	7847.8	
748.65	5973.2	
748.83	5321.3	
749.01	5027.8	
749.19	6481.8	
749.37	5642.8	
749.55	4902.8	
749.73	4945.2	
749.91	6168.5	
750.09	5962.3	
750.26	5073.5	
750.44	4422.2	
750.62	6306.4	
750.8	6210.1	
750.98	4363.5	
751.16	4711	
751.34	6294.1	
751.52	5606	
751.7	5487.9	
751.88	4313.7	
752.06	6748.7	
752.24	6571.2	
752.42	4336.2	
752.59	4673.5	
752.77	6148.7	
752.95	7468.9	
753.13	5403.2	
753.31	4767	
753.49	5895.4	
753.67	6352.8	
753.85	5089.2	
754.03	4630.5	
754.21	6642.9	
754.38	6931.7	
754.56	4878.9	
754.74	3830.4	
754.92	5852.4	
755.1	6610.8	
755.28	3800.3	
755.46	3845.4	
755.64	7234.8	
755.82	7366.5	
755.99	4119.8	
756.17	4285.7	
756.35	4807.9	
756.53	6413.6	
756.71	3125.9	
756.89	4092.5	
757.07	6042.9	
757.25	5109	
757.42	4696	
757.6	5597.8	
757.78	6079.1	
757.96	5053.7	
758.14	4336.2	
758.32	3865.9	
758.5	4596.3	
758.67	5438	
758.85	4152.6	
759.03	4352.6	
759.21	5722	
759.39	5076.9	
759.57	3738.9	
759.75	4831.8	
759.92	6349.4	
760.1	5563.6	
760.28	5289.2	
760.46	5538.4	
760.64	5308.3	
760.82	5086.5	
760.99	5118.6	
761.17	4341	
761.35	6178.7	
761.53	5203.9	
761.71	4453	
761.89	5185.5	
762.06	6102.9	
762.24	5616.9	
762.42	4577.2	
762.6	4262.5	
762.78	5612.8	
762.96	6317.3	
763.13	4990.2	
763.31	4634.6	
763.49	6450.4	
763.67	5657.2	
763.85	5508.4	
764.02	6036.7	
764.2	6832	
764.38	5913.9	
764.56	4469.4	
764.74	5422.3	
764.91	6965.1	
765.09	5790.3	
765.27	4223.6	
765.45	4011.3	
765.63	6903.7	
765.8	6816.3	
765.98	3743	
766.16	4090.5	
766.34	5332.9	
766.52	5057.1	
766.69	5102.2	
766.87	4000.4	
767.05	5802.6	
767.23	6657.9	
767.41	4275.5	
767.58	4530.1	
767.76	6359.6	
767.94	6475.7	
768.12	4311.7	
768.29	5194.3	
768.47	5868.1	
768.65	6558.3	
768.83	3940.3	
769	5122.7	
769.18	5414.1	
769.36	6149.4	
769.54	5128.8	
769.72	3968.3	
769.89	6408.1	
770.07	6576	
770.25	4348.5	
770.43	5672.2	
770.6	7183.6	
770.78	7607.5	
770.96	4583.4	
771.14	5193	
771.31	6326.2	
771.49	5660.6	
771.67	3676.8	
771.85	3970.3	
772.02	4904.2	
772.2	5692.7	
772.38	4754	
772.55	4194.9	
772.73	5950.7	
772.91	5748.6	
773.09	4613.4	
773.26	4722.6	
773.44	5872.9	
773.62	5664.7	
773.8	4130.1	
773.97	3864.5	
774.15	5963	
774.33	5552	
774.5	3992.9	
774.68	4392.2	
774.86	6202.6	
775.04	5629.2	
775.21	4069.3	
775.39	4111.6	
775.57	5848.3	
775.74	6336.4	
775.92	3888.4	
776.1	3777.1	
776.27	5881.1	
776.45	7187.7	
776.63	4051.6	
776.81	3547.1	
776.98	5548.6	
777.16	6556.2	
777.34	4171.7	
777.51	4174.4	
777.69	5459.9	
777.87	5276.9	
778.04	4233.2	
778.22	4862.6	
778.4	5289.2	
778.57	5987.6	
778.75	3469.9	
778.93	3799	
779.1	5091.3	
779.28	4889.9	
779.46	3528.7	
779.64	4048.2	
779.81	6112.5	
779.99	6997.9	
780.17	4830.5	
780.34	5005.9	
780.52	5498.8	
780.69	5725.4	
780.87	4330.1	
781.05	3883.6	
781.22	5595.7	
781.4	5666.7	
781.58	4042	
781.75	3211.9	
781.93	5698.8	
782.11	5005.2	
782.28	4859.8	
782.46	4042.7	
782.64	4862.6	
782.81	5866.1	
782.99	4132.8	
783.17	4087.7	
783.34	5705	
783.52	4900.1	
783.69	4252.3	
783.87	5126.7	
784.05	5087.8	
784.22	5016.2	
784.4	5084.4	
784.58	4356.7	
784.75	5913.2	
784.93	5053	
785.1	3964.9	
785.28	4637.3	
785.46	5627.8	
785.63	4993.6	
785.81	4044.7	
785.99	3871.3	
786.16	5171.8	
786.34	5564.3	
786.51	3900.7	
786.69	4285.7	
786.87	4764.3	
787.04	5270.8	
787.22	3773	
787.39	4749.9	
787.57	4986.8	
787.75	6179.4	
787.92	4825.7	
788.1	4784.1	
788.27	5043.5	
788.45	4786.1	
788.63	4628.4	
788.8	3222.1	
788.98	5508.4	
789.15	4694.6	
789.33	3345.7	
789.5	4051.6	
789.68	5997.1	
789.86	6062	
790.03	4511.7	
790.21	3877.5	
790.38	5885.2	
790.56	5157.5	
790.73	3739.6	
790.91	3835.2	
791.09	5051	
791.26	5786.9	
791.44	4024.9	
791.61	3459	
791.79	4995.7	
791.96	5081.7	
792.14	3543	
792.32	3129.3	
792.49	5010	
792.67	5171.1	
792.84	3622.2	
793.02	3439.9	
793.19	5477.6	
793.37	6208.8	
793.54	3162.1	
793.72	3474	
793.89	6285.2	
794.07	5058.5	
794.25	4122.6	
794.42	3220.8	
794.6	6134.3	
794.77	5698.1	
794.95	4487.8	
795.12	3869.3	
795.3	5005.2	
795.47	5625.1	
795.65	4221.5	
795.82	4073.4	
796	4816.1	
796.17	6765.8	
796.35	3921.2	
796.52	4659.1	
796.7	5585.5	
796.87	5659.2	
797.05	4847.5	
797.22	4773.1	
797.4	5580	
797.57	6658.6	
797.75	4064.5	
797.92	3839.9	
798.1	5943.9	
798.27	5027.8	
798.45	3226.9	
798.62	3525.9	
798.8	5284.4	
798.97	5782.8	
799.15	4273.4	
799.32	4065.9	
799.5	4543.1	
799.67	5340.4	
799.85	4369	
800.02	3196.2	
800.2	4941.1	
800.37	5281	
800.55	4584.7	
800.72	3808.5	
800.9	5766.4	
801.07	6249.7	
801.25	5163.6	
801.42	4175.8	
801.6	5855.8	
801.77	5503.6	
801.95	3881.6	
802.12	3644	
802.29	5525.4	
802.47	5459.9	
802.64	4140.3	
802.82	3115	
802.99	4999.1	
803.17	6003.3	
803.34	4060.4	
803.52	3649.5	
803.69	6649.1	
803.87	4754	
804.04	4019.5	
804.21	4091.2	
804.39	6124.8	
804.56	5200.5	
804.74	3411.9	
804.91	4302.1	
805.09	4977.9	
805.26	5122.7	
805.44	3462.4	
805.61	3821.5	
805.78	5631.9	
805.96	5644.2	
806.13	4218.8	
806.31	4552.6	
806.48	4561.5	
806.66	5048.9	
806.83	4230.4	
807	4069.3	
807.18	4962.9	
807.35	5392.3	
807.53	4043.4	
807.7	3261	
807.87	6131.6	
808.05	5031.9	
808.22	4519.2	
808.4	3201.7	
808.57	5075.5	
808.74	4643.4	
808.92	3728	
809.09	4788.8	
809.27	4898.1	
809.44	5590.3	
809.61	3295.9	
809.79	3731.4	
809.96	6104.3	
810.14	5773.2	
810.31	3194.1	
810.48	3940.3	
810.66	5050.3	
810.83	5885.2	
811.01	3745.1	
811.18	4166.9	
811.35	5793.7	
811.53	4470.7	
811.7	4582.7	
811.87	4257	
812.05	5040.1	
812.22	4967.7	
812.39	3594.9	
812.57	3448.8	
812.74	5020.9	
812.92	6776	
813.09	3943.7	
813.26	4246.8	
813.44	6417	
813.61	4986.1	
813.78	3293.8	
813.96	4422.9	
814.13	5054.4	
814.3	4706.9	
814.48	4763.6	
814.65	3934.1	
814.82	6326.2	
815	4792.9	
815.17	4054.3	
815.34	4899.4	
815.52	4917.2	
815.69	4984.1	
815.87	3980.6	
816.04	3480.2	
816.21	5024.3	
816.38	4468	
816.56	3844	
816.73	3563.5	
816.9	6352.8	
817.08	5786.2	
817.25	3656.3	
817.42	4629.1	
817.6	4627.7	
817.77	5071.5	
817.94	4149.2	
818.12	3594.9	
818.29	4788.2	
818.46	7520.8	
818.64	3757.3	
818.81	3497.2	
818.98	4687.1	
819.16	6889.4	
819.33	4388.8	
819.5	4028.4	
819.67	5414.1	
819.85	6038.1	
820.02	3936.2	
820.19	4184.7	
820.37	5242.8	
820.54	4801.1	
820.71	4091.2	
820.88	5101.5	
821.06	5307	
821.23	4820.9	
821.4	4128.7	
821.58	4063.9	
821.75	5739.1	
821.92	5192.3	
822.09	3264.5	
822.27	3386	
822.44	5072.8	
822.61	4910.3	
822.79	3278.1	
822.96	6401.3	
823.13	5490.6	
823.3	4748.6	
823.48	3885.7	
823.65	3476.1	
823.82	5788.9	
823.99	4629.1	
824.17	4871.4	
824.34	3538.2	
824.51	6662.7	
824.68	5117.2	
824.86	3641.3	
825.03	4087.7	
825.2	5050.3	
825.37	6146.6	
825.55	3601	
825.72	4116.4	
825.89	6718.7	
826.06	6270.2	
826.24	3923.2	
826.41	3970.3	
826.58	6109.1	
826.75	5319.9	
826.92	3084.2	
827.1	3465.8	
827.27	8370.7	
827.44	6701.6	
827.61	3779.9	
827.79	4533.5	
827.96	4790.9	
828.13	5129.5	
828.3	3977.2	
828.47	3265.8	
828.65	5248.3	
828.82	5233.2	
828.99	5086.5	
829.16	4491.2	
829.34	5637.4	
829.51	5409.4	
829.68	4034.5	
829.85	4223.6	
830.02	5939.8	
830.2	5636	
830.37	3072	
830.54	4871.4	
830.71	6494.1	
830.88	5062.6	
831.05	3225.6	
831.23	3690.4	
831.4	6201.9	
831.57	6927.6	
831.74	3775.1	
831.91	3258.3	
832.09	5289.2	
832.26	5659.2	
832.43	3858.4	
832.6	4388.8	
832.77	5306.3	
832.94	6126.2	
833.12	3039.2	
833.29	3831.7	
833.46	5395.7	
833.63	7149.5	
833.8	4232.5	
833.97	3932.1	
834.15	5687.2	
834.32	5498.1	
834.49	4085	
834.66	4169.7	
834.83	5909.1	
835	4815.5	
835.17	3727.3	
835.35	3786.7	
835.52	5618.9	
835.69	5468.1	
835.86	3981.3	
836.03	3213.3	
836.2	5653.1	
836.37	5204.6	
836.55	3930.7	
836.72	3705.5	
836.89	5208.7	
837.06	5670.8	
837.23	3936.9	
837.4	4393.6	
837.57	6522.8	
837.75	7174	
837.92	3530.7	
838.09	3816	
838.26	5186.8	
838.43	5956.2	
838.6	4132.8	
838.77	3714.3	
838.94	6834.8	
839.11	6451.1	
839.29	3910.9	
839.46	3011.9	
839.63	5646.2	
839.8	5328.8	
839.97	3771	
840.14	3742.3	
840.31	5402.5	
840.48	5705	
840.65	3121.1	
840.82	3682.9	
841	5624.4	
841.17	5607.3	
841.34	3493.8	
841.51	3572.3	
841.68	5582.1	
841.85	5319.9	
842.02	3619.4	
842.19	2971.6	
842.36	5430.5	
842.53	5381.4	
842.7	3477.5	
842.87	4252.9	
843.05	7108.5	
843.22	5280.3	
843.39	3332	
843.56	3574.4	
843.73	5087.2	
843.9	5727.5	
844.07	5667.4	
844.24	4711	
844.41	8282.7	
844.58	4885.1	
844.75	3397.6	
844.92	3658.4	
845.09	5631.2	
845.26	5625.1	
845.43	3414.6	
845.6	3659	
845.77	5646.2	
845.94	5349.3	
846.12	3830.4	
846.29	4077.5	
846.46	5886.5	
846.63	5619.6	
846.8	3462.4	
846.97	4065.9	
847.14	6103.6	
847.31	5533.6	
847.48	3938.9	
847.65	4309.6	
847.82	5948	
847.99	5907.7	
848.16	4659.8	
848.33	4319.2	
848.5	5210	
848.67	6122.1	
848.84	3467.9	
849.01	3635.8	
849.18	5050.3	
849.35	4736.3	
849.52	4384	
849.69	3352.5	
849.86	5875.6	
850.03	6053.1	
850.2	3477.5	
850.37	4233.8	
850.54	6016.2	
850.71	5304.2	
850.88	4098	
851.05	3356.6	
851.22	5529.5	
851.39	6172.6	
851.56	3226.9	
851.73	3965.6	
851.9	4923.3	
852.07	5918.6	
852.24	3837.2	
852.41	3455.6	
852.58	5528.2	
852.75	5013.4	
852.92	3871.3	
853.09	3345	
853.26	5194.3	
853.43	6117.3	
853.6	3437.9	
853.77	2908.1	
853.94	6226.5	
854.11	5537	
854.28	5065.3	
854.44	3751.2	
854.61	6618.4	
854.78	5725.4	
854.95	3410.6	
855.12	4290.5	
855.29	4560.8	
855.46	6198.5	
855.63	3454.2	
855.8	4787.5	
855.97	5171.1	
856.14	5973.2	
856.31	4958.8	
856.48	3753.9	
856.65	5148.6	
856.82	4889.2	
856.99	3359.4	
857.16	3730	
857.33	6870.3	
857.49	5285.1	
857.66	3754.6	
857.83	4029.7	
858	5298.8	
858.17	5404.6	
858.34	3229	
858.51	3400.3	
858.68	6305	
858.85	6404	
859.02	4018.8	
859.19	4285.7	
859.36	4872.8	
859.52	4972.5	
859.69	3444	
859.86	4074.8	
860.03	5029.1	
860.2	6235.4	
860.37	3134.1	
860.54	3489.7	
860.71	5829.2	
860.88	6292	
861.05	3888.4	
861.21	4291.9	
861.38	6339.1	
861.55	4860.5	
861.72	3149.8	
861.89	3858.4	
862.06	5974.6	
862.23	6432.7	
862.4	3332.7	
862.56	3592.1	
862.73	5668.1	
862.9	5406	
863.07	4108.9	
863.24	3115	
863.41	4869.4	
863.58	4929.5	
863.75	3525.9	
863.91	3971.7	
864.08	6223.8	
864.25	5758.9	
864.42	4313	
864.59	4858.5	
864.76	6574	
864.93	4971.1	
865.09	3384.6	
865.26	3695.9	
865.43	6090	
865.6	6538.5	
865.77	3000.3	
865.94	3388	
866.1	6161	
866.27	5913.9	
866.44	5183.4	
866.61	3271.3	
866.78	5322.7	
866.95	5799.2	
867.11	3374.4	
867.28	3044.6	
867.45	5971.2	
867.62	5078.3	
867.79	3988.1	
867.96	3476.1	
868.12	4891.2	
868.29	5899.5	
868.46	3435.1	
868.63	4608.6	
868.8	6025.1	
868.97	5815.5	
869.13	3629	
869.3	3579.8	
869.47	5752.1	
869.64	5947.3	
869.81	3479.5	
869.97	3522.5	
870.14	5631.2	
870.31	6300.9	
870.48	3400.3	
870.65	4351.3	
870.81	5289.2	
870.98	5218.2	
871.15	3891.8	
871.32	3579.2	
871.48	5697.4	
871.65	6381.5	
871.82	3389.4	
871.99	3743.7	
872.16	6792.4	
872.32	6171.2	
872.49	3483.6	
872.66	3483.6	
872.83	5772.5	
872.99	5124	
873.16	3920.5	
873.33	3414.6	
873.5	5497.4	
873.67	5511.8	
873.83	3614	
874	4653.7	
874.17	5593.7	
874.34	6683.9	
874.5	4479.6	
874.67	4289.1	
874.84	6262	
875.01	4932.9	
875.17	4903.5	
875.34	3422.2	
875.51	5545.2	
875.68	6664.1	
875.84	4160.1	
876.01	5040.7	
876.18	5801.2	
876.34	5803.3	
876.51	3486.3	
876.68	3373.7	
876.85	5285.8	
877.01	6143.9	
877.18	4939.7	
877.35	3431	
877.52	5446.2	
877.68	4815.5	
877.85	3353.9	
878.02	3408.5	
878.18	5449.6	
878.35	5098.1	
878.52	2772.9	
878.69	3874.8	
878.85	5837.4	
879.02	5812.1	
879.19	4897.4	
879.35	3738.2	
879.52	5809.4	
879.69	6029.9	
879.86	2954.5	
880.02	3882.3	
880.19	5346.6	
880.36	6537.8	
880.52	3942.3	
880.69	4095.9	
880.86	5902.2	
881.02	5981.4	
881.19	3786.7	
881.36	3753.9	
881.52	5815.5	
881.69	5172.5	
881.86	3707.5	
882.02	3633.1	
882.19	6068.1	
882.36	7159	
882.52	3506.8	
882.69	4870.8	
882.86	5589.6	
883.02	5545.2	
883.19	4186	
883.36	4002.4	
883.52	5912.5	
883.69	6778.8	
883.86	3508.2	
884.02	3128.6	
884.19	5903.6	
884.36	5419.6	
884.52	3881.6	
884.69	3712.3	
884.86	5167.7	
885.02	6477	
885.19	3891.1	
885.36	3992.9	
885.52	5436	
885.69	5573.2	
885.86	5022.3	
886.02	4420.9	
886.19	5937.1	
886.35	5319.9	
886.52	3857	
886.69	4876.2	
886.85	4990.9	
887.02	6227.9	
887.19	6227.9	
887.35	6227.9	
887.52	6227.9	
887.68	6227.9	
887.85	6227.9	
888.02	6227.9	
888.18	6227.9	
888.35	6227.9	
888.51	6227.9	
888.68	6227.9	
888.85	6227.9	
889.01	6227.9	
889.18	6227.9	
889.35	6227.9	
889.51	6227.9	
889.68	6227.9	
889.84	6227.9	
890.01	6227.9	
890.17	6227.9	
890.34	6227.9	
890.51	6227.9	
890.67	6227.9	
890.84	6227.9	
891	6227.9	
891.17	6227.9	
891.34	6227.9	
891.5	6227.9	
891.67	6227.9	
891.83	6227.9	
892	6227.9	
892.16	6227.9	
892.33	6227.9	
892.5	6227.9	
892.66	6227.9	
892.83	6227.9	
892.99	6227.9	
893.16	6227.9	
893.32	6227.9	
893.49	6227.9	
893.65	6227.9	
893.82	6227.9	
893.99	6227.9	
894.15	6227.9	
894.32	6227.9	
894.48	6227.9	
894.65	6227.9	
894.81	6227.9	
894.98	6227.9	
895.14	6227.9	
895.31	6227.9	
895.47	6227.9	
895.64	6227.9	
895.81	6227.9	
895.97	6227.9	
896.14	6227.9	
896.3	6227.9	
896.47	6227.9	
896.63	6227.9	
896.8	6227.9	
896.96	6227.9	
897.13	6227.9	
897.29	6227.9	
897.46	6227.9	
897.62	6227.9	
897.79	6227.9	
897.95	6227.9	
898.12	6227.9	
898.28	6227.9	
898.45	6227.9	
898.61	6227.9	
898.78	6227.9	
898.94	6227.9	
899.11	6227.9	
899.27	6227.9	
899.44	6227.9	
899.6	6227.9	
899.77	6227.9	
899.93	6227.9	
900.1	6227.9	
900.26	6227.9	
900.43	6227.9	
900.59	6227.9	
900.76	6227.9	
900.92	6227.9	
901.09	6227.9	
901.25	6227.9	
901.42	6227.9	
901.58	6227.9	
901.75	6227.9	
901.91	6227.9	
902.07	6227.9	
902.24	6227.9	
902.4	6227.9	
902.57	6227.9	
902.73	6227.9	
902.9	6227.9	
903.06	6227.9	
903.23	6227.9	
903.39	6227.9	
903.56	6227.9	
903.72	6227.9	
903.88	6227.9	
904.05	6227.9	
904.21	6227.9	
904.38	6227.9	
904.54	6227.9	
904.71	6227.9	
904.87	6227.9	
905.03	6227.9	
905.2	6227.9	
905.36	6227.9	
905.53	6227.9	
905.69	6227.9	
905.86	6227.9	
906.02	6227.9	
906.18	6227.9	
906.35	6227.9	
906.51	6227.9	
906.68	6227.9	
906.84	6227.9	
907.01	6227.9	
907.17	6227.9	
907.33	6227.9	
907.5	6227.9	
907.66	6227.9	
907.83	6227.9	
907.99	6227.9	
908.15	6227.9	
908.32	6227.9	
908.48	6227.9	
908.65	6227.9	
908.81	6227.9	
908.97	6227.9	
909.14	6227.9	
909.3	6227.9	
909.47	6227.9	
909.63	6227.9	
909.79	6227.9	
909.96	6227.9	
910.12	6227.9	
910.28	6227.9	
910.45	6227.9	
910.61	6227.9	
910.78	6227.9	
910.94	6227.9	
911.1	6227.9	
911.27	6227.9	
911.43	6227.9	
911.59	6227.9	
911.76	6227.9	
911.92	6227.9	
912.08	6227.9	
912.25	6227.9	
912.41	6227.9	
912.57	6227.9	
912.74	6227.9	
912.9	6227.9	
913.07	6227.9	
913.23	6227.9	
913.39	6227.9	
913.56	6227.9	
913.72	6227.9	
913.88	6227.9	
914.05	6227.9	
914.21	6227.9	
914.37	6227.9	
914.54	6227.9	
914.7	6227.9	
914.86	6227.9	
915.03	6227.9	
915.19	6227.9	
