Wavelength	Intensities	
nm	a.u.	
179.22	1669.4	
179.44	1665	
179.65	1673.9	
179.86	1656.1	
180.08	1660.2	
180.29	3855.6	
180.51	3006.4	
180.72	4816.8	
180.94	5437.4	
181.15	2664.4	
181.37	2651.4	
181.58	4721.3	
181.79	4922	
182.01	2722.4	
182.22	2861.7	
182.44	4898.1	
182.65	4241.3	
182.87	3493.8	
183.08	3129.3	
183.29	5160.2	
183.51	4313	
183.72	2846	
183.94	3997	
184.15	4687.8	
184.37	4564.2	
184.58	2603	
184.79	3355.3	
185.01	4384.7	
185.22	4902.2	
185.44	3519.1	
185.65	3040.6	
185.86	4648.2	
186.08	4264.6	
186.29	2586.6	
186.51	2721.8	
186.72	4393.6	
186.94	4975.9	
187.15	3099.3	
187.36	3161.4	
187.58	6152.8	
187.79	4707.6	
188.01	3229.6	
188.22	4782.7	
188.43	5484.5	
188.65	4891.2	
188.86	2746.3	
189.08	3157.3	
189.29	4469.4	
189.5	4445.5	
189.72	2933.4	
189.93	2933.4	
190.15	4973.8	
190.36	5715.9	
190.57	3202.3	
190.79	3065.1	
191	5054.4	
191.22	5069.4	
191.43	3237.2	
191.64	2737.5	
191.86	5195	
192.07	4968.4	
192.29	2821.4	
192.5	2905.4	
192.71	4991.6	
192.93	4413.4	
193.14	2915.6	
193.35	2963.4	
193.57	4460.5	
193.78	5003.9	
194	2429.6	
194.21	2878.8	
194.42	4342.4	
194.64	4631.8	
194.85	3110.2	
195.07	3619.4	
195.28	4581.3	
195.49	4144.4	
195.71	3819.5	
195.92	2734	
196.13	4762.2	
196.35	4810	
196.56	3960.8	
196.78	3153.9	
196.99	5813.5	
197.2	5398.4	
197.42	3504.1	
197.63	3189.4	
197.84	4276.2	
198.06	4808.6	
198.27	2923.8	
198.48	3699.3	
198.7	4430.4	
198.91	4645.5	
199.13	3176.4	
199.34	3140.2	
199.55	5038	
199.77	4017.4	
199.98	2843.3	
200.19	3180.5	
200.41	4571.1	
200.62	4319.2	
200.83	3293.8	
201.05	3507.5	
201.26	4629.1	
201.47	4392.2	
201.69	2813.9	
201.9	2794.1	
202.11	4588.8	
202.33	5361.6	
202.54	3008.5	
202.76	3292.5	
202.97	4638.6	
203.18	4743.1	
203.4	3289	
203.61	3318.4	
203.82	4646.2	
204.04	4420.9	
204.25	3218	
204.46	3125.9	
204.68	4619.5	
204.89	4799.1	
205.1	3082.2	
205.32	2755.2	
205.53	4872.8	
205.74	5001.8	
205.96	2411.1	
206.17	3209.8	
206.38	4820.2	
206.6	4988.2	
206.81	3555.3	
207.02	2966.8	
207.24	4818.2	
207.45	5098.1	
207.66	3012.6	
207.88	2706	
208.09	4732.9	
208.3	4611.3	
208.52	2800.3	
208.73	3098.6	
208.94	4603.8	
209.15	5149.3	
209.37	3030.3	
209.58	3142.9	
209.79	5015.5	
210.01	4518.5	
210.22	2506.7	
210.43	2623.4	
210.65	4559.5	
210.86	4860.5	
211.07	3018.7	
211.29	2822.1	
211.5	4876.2	
211.71	4552.6	
211.93	2843.9	
212.14	2836.4	
212.35	4571.7	
212.56	4672.1	
212.78	3220.1	
212.99	2684.9	
213.2	5253.7	
213.42	4487.8	
213.63	2856.9	
213.84	3044.6	
214.06	4183.3	
214.27	4289.1	
214.48	2998.2	
214.69	3205.8	
214.91	5137	
215.12	5081.7	
215.33	3241.3	
215.55	3408.5	
215.76	5460.6	
215.97	4855.7	
216.18	3118.4	
216.4	3089.7	
216.61	4379.9	
216.82	4961.5	
217.04	2851.5	
217.25	2925.9	
217.46	5001.1	
217.67	4885.1	
217.89	2621.4	
218.1	2696.5	
218.31	4672.1	
218.53	4799.8	
218.74	3008.5	
218.95	2853.5	
219.16	4595.6	
219.38	5242.1	
219.59	2863.7	
219.8	3369.6	
220.01	5652.4	
220.23	4673.5	
220.44	3612.6	
220.65	2766.8	
220.87	4660.5	
221.08	5102.2	
221.29	2665.1	
221.5	3396.2	
221.72	5939.1	
221.93	4405.2	
222.14	3167.5	
222.35	3687	
222.57	4599.7	
222.78	4954	
222.99	3067.9	
223.2	3215.3	
223.42	4805.9	
223.63	4879.6	
223.84	2408.4	
224.05	2480.1	
224.27	5608.7	
224.48	5208.7	
224.69	3693.9	
224.9	3182.5	
225.12	4759.5	
225.33	4594.3	
225.54	2611.8	
225.75	2884.2	
225.97	4274.1	
226.18	4570.4	
226.39	3033	
226.6	2894.5	
226.82	4484.4	
227.03	4326.7	
227.24	3113.6	
227.45	2727.2	
227.67	4887.1	
227.88	5225.1	
228.09	3568.9	
228.3	3502	
228.52	4871.4	
228.73	4556.7	
228.94	2934.1	
229.15	2710.1	
229.36	4618.2	
229.58	4532.2	
229.79	3038.5	
230	3359.4	
230.21	5448.3	
230.43	4678.9	
230.64	3099.3	
230.85	3248.1	
231.06	4961.5	
231.28	4943.8	
231.49	2682.8	
231.7	3078.1	
231.91	4943.1	
232.12	4603.8	
232.34	2796.8	
232.55	3024.2	
232.76	5018.9	
232.97	4721.3	
233.18	2816	
233.4	3128.6	
233.61	4742.4	
233.82	4492.6	
234.03	2966.1	
234.25	2958.6	
234.46	6064.7	
234.67	4672.8	
234.88	3244	
235.09	2889.7	
235.31	4769	
235.52	4496	
235.73	3138.2	
235.94	2733.4	
236.15	4430.4	
236.37	5406.6	
236.58	2821.4	
236.79	3056.9	
237	4828.4	
237.21	4244.1	
237.43	3223.5	
237.64	2669.2	
237.85	7440.3	
238.06	4304.8	
238.27	3207.8	
238.48	2707.4	
238.7	4877.6	
238.91	4521.9	
239.12	2975.7	
239.33	3066.5	
239.54	4344.4	
239.76	4572.4	
239.97	3041.2	
240.18	3109.5	
240.39	5464	
240.6	4779.3	
240.82	3191.4	
241.03	2721.1	
241.24	4597	
241.45	5224.4	
241.66	2833	
241.87	3267.2	
242.09	5180.7	
242.3	5384.1	
242.51	3260.4	
242.72	3018	
242.93	4857.8	
243.14	4607.2	
243.36	3448.8	
243.57	3647.4	
243.78	5166.3	
243.99	4862.6	
244.2	3019.4	
244.41	2805.7	
244.63	4293.9	
244.84	4830.5	
245.05	3284.3	
245.26	3053.5	
245.47	4840	
245.68	4901.5	
245.9	3831.1	
246.11	3188	
246.32	4463.2	
246.53	4811.4	
246.74	4720.6	
246.95	2600.2	
247.16	4373.8	
247.38	4606.6	
247.59	2662.4	
247.8	3079.5	
248.01	4332.1	
248.22	4578.6	
248.43	2809.8	
248.64	3011.2	
248.86	4248.9	
249.07	4467.3	
249.28	2770.2	
249.49	3117	
249.7	5001.1	
249.91	5075.5	
250.12	2661.7	
250.34	2637.1	
250.55	4726	
250.76	4622.3	
250.97	3168.2	
251.18	3169.6	
251.39	5060.5	
251.6	4765.6	
251.81	3180.5	
252.03	3156.6	
252.24	4429.1	
252.45	4956.8	
252.66	2713.6	
252.87	3330.7	
253.08	4587.4	
253.29	5674.9	
253.5	2717	
253.72	3673.4	
253.93	4547.2	
254.14	5259.9	
254.35	2932.7	
254.56	3037.8	
254.77	4773.1	
254.98	4291.2	
255.19	2914.9	
255.41	3577.8	
255.62	4712.4	
255.83	5081	
256.04	3254.9	
256.25	3194.8	
256.46	5498.8	
256.67	4377.2	
256.88	3129.3	
257.09	3467.2	
257.31	4308.9	
257.52	4351.3	
257.73	3852.9	
257.94	2954.5	
258.15	4568.3	
258.36	4588.1	
258.57	3548.4	
258.78	2396.8	
258.99	4956.8	
259.2	4515.1	
259.41	2912.2	
259.63	3054.2	
259.84	5230.5	
260.05	5459.9	
260.26	3647.4	
260.47	2893.1	
260.68	5025	
260.89	4545.1	
261.1	3456.3	
261.31	2852.1	
261.52	5043.5	
261.73	5254.4	
261.95	3710.2	
262.16	3260.4	
262.37	5087.2	
262.58	5153.4	
262.79	3719.1	
263	2994.1	
263.21	4653.7	
263.42	4193.6	
263.63	3199.6	
263.84	2948.4	
264.05	5005.9	
264.26	5178.6	
264.47	3564.1	
264.69	3130.7	
264.9	5193	
265.11	4751.3	
265.32	2839.2	
265.53	2874	
265.74	4688.5	
265.95	4171	
266.16	3107.5	
266.37	3407.1	
266.58	4715.8	
266.79	4437.3	
267	2919.7	
267.21	2732	
267.42	4319.8	
267.63	4601.1	
267.84	2983.2	
268.06	2710.1	
268.27	4968.4	
268.48	5111.7	
268.69	3013.9	
268.9	3375.1	
269.11	5100.8	
269.32	4193.6	
269.53	3004.4	
269.74	2865.8	
269.95	4797	
270.16	4213.4	
270.37	3065.8	
270.58	3434.4	
270.79	4513	
271	5018.2	
271.21	3219.4	
271.42	3057.6	
271.63	4771.8	
271.84	4306.2	
272.05	2486.9	
272.26	2772.9	
272.47	4599.7	
272.68	4752.7	
272.89	2991.4	
273.11	3336.8	
273.32	4435.2	
273.53	5227.8	
273.74	3218.7	
273.95	3189.4	
274.16	4977.9	
274.37	4607.2	
274.58	3282.2	
274.79	2761.3	
275	4839.4	
275.21	5016.2	
275.42	3862.5	
275.63	3338.9	
275.84	4883	
276.05	5865.4	
276.26	3166.2	
276.47	3076.7	
276.68	4536.9	
276.89	5298.1	
277.1	3401	
277.31	2684.9	
277.52	4783.4	
277.73	5057.8	
277.94	2695.8	
278.15	2980.5	
278.36	4801.8	
278.57	4424.3	
278.78	2962	
278.99	3250.1	
279.2	4457.1	
279.41	4362.2	
279.62	3732.8	
279.83	2708.8	
280.04	5479.7	
280.25	4359.4	
280.46	3745.7	
280.67	3092.4	
280.88	4407.9	
281.09	5085.1	
281.3	3181.2	
281.51	3942.3	
281.72	4444.1	
281.93	4915.1	
282.14	2882.2	
282.35	3125.9	
282.56	4979.3	
282.77	4941.7	
282.98	2950.4	
283.19	3513.6	
283.4	5901.6	
283.61	4586.1	
283.82	2778.4	
284.03	3665.9	
284.24	4770.4	
284.45	4969.7	
284.66	3731.4	
284.87	3493.8	
285.08	5042.1	
285.29	5098.8	
285.5	2687.6	
285.71	2981.8	
285.92	5042.8	
286.12	5508.4	
286.33	3682.9	
286.54	3008.5	
286.75	4961.5	
286.96	4522.6	
287.17	2808.4	
287.38	3550.5	
287.59	4460.5	
287.8	4411.3	
288.01	3007.8	
288.22	3418.7	
288.43	4778.6	
288.64	4248.9	
288.85	3549.8	
289.06	3320.4	
289.27	4946.5	
289.48	5226.4	
289.69	3700	
289.9	3409.9	
290.11	5143.1	
290.32	4429.8	
290.53	3513.6	
290.74	3283.6	
290.94	4890.5	
291.15	4997	
291.36	2899.9	
291.57	3325.2	
291.78	4502.1	
291.99	4170.3	
292.2	2845.3	
292.41	3258.3	
292.62	5014.8	
292.83	4826.4	
293.04	3887	
293.25	2896.5	
293.46	4494.6	
293.67	5024.3	
293.88	2875.3	
294.09	2818.7	
294.29	4375.1	
294.5	4740.4	
294.71	3081.5	
294.92	2887.6	
295.13	4521.2	
295.34	5403.2	
295.55	2631.6	
295.76	2673.3	
295.97	4891.2	
296.18	5384.1	
296.39	2744.3	
296.6	2875.3	
296.81	4694.6	
297.01	4871.4	
297.22	2989.4	
297.43	2899.9	
297.64	4444.8	
297.85	4357.4	
298.06	2488.3	
298.27	2585.2	
298.48	4605.2	
298.69	4403.8	
298.9	3146.4	
299.11	2871.9	
299.31	4321.9	
299.52	4341	
299.73	3319.1	
299.94	3241.3	
300.15	4663.2	
300.36	4374.5	
300.57	3246	
300.78	3190.7	
300.99	4504.8	
301.2	4713.7	
301.4	2927.9	
301.61	3020.1	
301.82	4888.5	
302.03	4922.6	
302.24	3443.3	
302.45	2804.4	
302.66	4847.5	
302.87	5053.7	
303.08	2890.4	
303.29	3831.7	
303.49	4500.1	
303.7	4606.6	
303.91	2676	
304.12	3632.4	
304.33	4274.8	
304.54	4788.8	
304.75	2964.1	
304.96	2834.4	
305.16	4807.9	
305.37	5352.7	
305.58	2590	
305.79	2678.1	
306	4855.1	
306.21	4229.1	
306.42	2906.8	
306.63	4144.4	
306.83	4495.3	
307.04	4952.7	
307.25	3123.2	
307.46	3175	
307.67	4101.4	
307.88	4880.3	
308.09	2923.1	
308.29	2902.7	
308.5	4679.6	
308.71	5011.4	
308.92	3104.7	
309.13	2812.5	
309.34	4648.9	
309.55	4615.4	
309.75	3545	
309.96	3280.8	
310.17	4923.3	
310.38	4401.8	
310.59	3338.2	
310.8	2705.4	
311.01	5324.7	
311.21	4588.1	
311.42	2819.4	
311.63	2860.3	
311.84	4526	
312.05	4694.6	
312.26	3189.4	
312.46	3485	
312.67	4464.6	
312.88	4261.1	
313.09	2772.9	
313.3	2741.5	
313.51	5234.6	
313.71	5429.8	
313.92	2831	
314.13	2927.9	
314.34	4802.5	
314.55	4617.5	
314.76	3476.8	
314.96	3115	
315.17	4784.1	
315.38	4812	
315.59	2813.9	
315.8	2713.6	
316.01	5143.8	
316.21	5218.9	
316.42	2785.2	
316.63	3118.4	
316.84	4506.9	
317.05	5048.9	
317.26	3262.4	
317.46	2975.7	
317.67	4648.2	
317.88	4889.9	
318.09	3450.8	
318.3	2637.8	
318.5	4500.1	
318.71	4820.2	
318.92	4244.1	
319.13	3257	
319.34	4967.7	
319.54	5044.1	
319.75	2630.3	
319.96	2555.9	
320.17	4838.7	
320.38	5029.1	
320.58	2645.3	
320.79	3065.1	
321	5069.4	
321.21	5127.4	
321.42	3117.7	
321.62	2672.6	
321.83	4373.8	
322.04	4630.5	
322.25	3008.5	
322.46	2833	
322.66	4696	
322.87	4891.2	
323.08	3362.1	
323.29	2745.6	
323.5	5389.6	
323.7	4303.5	
323.91	3655.6	
324.12	3349.8	
324.33	4777.2	
324.53	4841.4	
324.74	3213.3	
324.95	3345	
325.16	4302.8	
325.37	4503.5	
325.57	2824.8	
325.78	2871.9	
325.99	4745.1	
326.2	4285	
326.4	3760.8	
326.61	2644.6	
326.82	4616.1	
327.03	4696	
327.24	3817.4	
327.44	3577.8	
327.65	4867.3	
327.86	4049.5	
328.07	3199.6	
328.27	2705.4	
328.48	5134.3	
328.69	4304.8	
328.9	3823.6	
329.1	2917	
329.31	4536.9	
329.52	5161.6	
329.73	2852.8	
329.93	3093.8	
330.14	4713.1	
330.35	4747.2	
330.56	4411.3	
330.76	3379.1	
330.97	4468	
331.18	4672.8	
331.39	3122.5	
331.59	2606.4	
331.8	5068	
332.01	5117.9	
332.22	2939.5	
332.42	3140.9	
332.63	4738.3	
332.84	4321.2	
333.05	3129.3	
333.25	2855.6	
333.46	4422.9	
333.67	4575.8	
333.88	2942.9	
334.08	3174.4	
334.29	5748.6	
334.5	4988.9	
334.7	2770.2	
334.91	3818.1	
335.12	4302.1	
335.33	4818.9	
335.53	3090.4	
335.74	4313.7	
335.95	4512.4	
336.16	4277.5	
336.36	3064.4	
336.57	3462.4	
336.78	4315.8	
336.98	4956.8	
337.19	3697.9	
337.4	3016.7	
337.61	5404.6	
337.81	4285.7	
338.02	2895.8	
338.23	3514.3	
338.43	5149.3	
338.64	4397	
338.85	2854.9	
339.05	3596.2	
339.26	5213.4	
339.47	4250.2	
339.68	2863.7	
339.88	3986	
340.09	4872.1	
340.3	4933.6	
340.5	3301.3	
340.71	2603.7	
340.92	4346.5	
341.13	5081.7	
341.33	2721.1	
341.54	3178.4	
341.75	4795.7	
341.95	4489.8	
342.16	3122.5	
342.37	3363.4	
342.57	4341	
342.78	4534.9	
342.99	3465.8	
343.19	2569.5	
343.4	4903.5	
343.61	4810	
343.81	3024.8	
344.02	2776.4	
344.23	4885.1	
344.43	5202.5	
344.64	3390.1	
344.85	3355.3	
345.06	4824.3	
345.26	5031.2	
345.47	3232.4	
345.68	3659	
345.88	4240.7	
346.09	4924.7	
346.3	3254.2	
346.5	2516.3	
346.71	4586.8	
346.92	4455.7	
347.12	2717	
347.33	3155.9	
347.54	4996.4	
347.74	5208	
347.95	3216	
348.16	2499.9	
348.36	4484.4	
348.57	4288.4	
348.78	3262.4	
348.98	3347.1	
349.19	4562.2	
349.39	4192.9	
349.6	2673.3	
349.81	2877.4	
350.01	4869.4	
350.22	4370.4	
350.43	3139.5	
350.63	3676.1	
350.84	4632.5	
351.05	4419.5	
351.25	2806.4	
351.46	2651.4	
351.67	4945.8	
351.87	4345.1	
352.08	3003.7	
352.29	3369.6	
352.49	4894.6	
352.7	4693.3	
352.9	2741.5	
353.11	3300	
353.32	5365	
353.52	4473.4	
353.73	2781.1	
353.94	3344.3	
354.14	4867.3	
354.35	4543.8	
354.55	2816.6	
354.76	3037.1	
354.97	4777.9	
355.17	4575.8	
355.38	2775.7	
355.59	3549.1	
355.79	4371	
356	4569	
356.2	3051.5	
356.41	2737.5	
356.62	4194.9	
356.82	4529.4	
357.03	3267.9	
357.24	2996.2	
357.44	4361.5	
357.65	4422.2	
357.85	3777.1	
358.06	3143.6	
358.27	4196.3	
358.47	4260.5	
358.68	2658.3	
358.88	3223.5	
359.09	4751.3	
359.3	4902.2	
359.5	3699.3	
359.71	3278.1	
359.91	5244.8	
360.12	4735.6	
360.33	3242.6	
360.53	3539.6	
360.74	4346.5	
360.94	4413.4	
361.15	3379.1	
361.36	2839.2	
361.56	4950.6	
361.77	4513.7	
361.97	3700.7	
362.18	3008.5	
362.38	4928.1	
362.59	4294.6	
362.8	2794.1	
363	2734.7	
363.21	4083.6	
363.41	4610.7	
363.62	3082.2	
363.83	3779.9	
364.03	4717.8	
364.24	5236	
364.44	3956	
364.65	3863.2	
364.85	4467.3	
365.06	4289.1	
365.27	2941.6	
365.47	3006.4	
365.68	5115.1	
365.88	4486.4	
366.09	3222.1	
366.29	2940.9	
366.5	4595.6	
366.71	4894	
366.91	3857	
367.12	3309.5	
367.32	5330.9	
367.53	4797.7	
367.73	3338.9	
367.94	3957.4	
368.14	4873.5	
368.35	5281	
368.56	3244.7	
368.76	3068.5	
368.97	4931.5	
369.17	5996.5	
369.38	2892.4	
369.58	3137.5	
369.79	4159.4	
369.99	5193.6	
370.2	3830.4	
370.4	3175	
370.61	4650.9	
370.82	5553.4	
371.02	3166.8	
371.23	2711.5	
371.43	4229.7	
371.64	5112.4	
371.84	3132.7	
372.05	3921.9	
372.25	5865.4	
372.46	4786.8	
372.66	3095.8	
372.87	3089.7	
373.07	4842.8	
373.28	5973.9	
373.48	3796.9	
373.69	3592.8	
373.9	4552.6	
374.1	4532.2	
374.31	3800.3	
374.51	3379.8	
374.72	5113.8	
374.92	4336.2	
375.13	3876.1	
375.33	3310.9	
375.54	4767	
375.74	4498	
375.95	3419.4	
376.15	4220.9	
376.36	4878.3	
376.56	4753.3	
376.77	3393.5	
376.97	3637.2	
377.18	5629.2	
377.38	4857.8	
377.59	3880.2	
377.79	3140.9	
378	4726	
378.2	4962.2	
378.41	3104.7	
378.61	2993.4	
378.82	5094	
379.02	4462.5	
379.23	3215.3	
379.43	3913	
379.64	5197.1	
379.84	4844.1	
380.05	3044.6	
380.25	3024.8	
380.46	4895.3	
380.66	4610.7	
380.87	4012.7	
381.07	4240.7	
381.28	5306.3	
381.48	4927.4	
381.69	3051.5	
381.89	3153.9	
382.1	4239.3	
382.3	4955.4	
382.51	3863.8	
382.71	4407.2	
382.91	4781.3	
383.12	5208.7	
383.32	3335.5	
383.53	3498.6	
383.73	4844.8	
383.94	4689.2	
384.14	3524.6	
384.35	2856.2	
384.55	4599.7	
384.76	4872.1	
384.96	3356.6	
385.17	3529.3	
385.37	4885.8	
385.58	4425	
385.78	3532.1	
385.98	2890.4	
386.19	4599.1	
386.39	4857.8	
386.6	3203.7	
386.8	3350.5	
387.01	4901.5	
387.21	4934.2	
387.42	3637.2	
387.62	4003.1	
387.83	4481	
388.03	4767.7	
388.23	3371.6	
388.44	3930.1	
388.64	4305.5	
388.85	4299.4	
389.05	3617.4	
389.26	3985.3	
389.46	5732.9	
389.67	5254.4	
389.87	3629	
390.07	3666.5	
390.28	4641.4	
390.48	4349.9	
390.69	3037.8	
390.89	3281.5	
391.1	4514.4	
391.3	5107	
391.5	4207.9	
391.71	4524.6	
391.91	5009.3	
392.12	5595.7	
392.32	4173.1	
392.53	3540.3	
392.73	4683.7	
392.93	4666.6	
393.14	3432.4	
393.34	4145.1	
393.55	5025	
393.75	4666	
393.95	3447.4	
394.16	3337.5	
394.36	4597	
394.57	5020.3	
394.77	3020.1	
394.98	3306.1	
395.18	4531.5	
395.38	4562.2	
395.59	3941.7	
395.79	3196.2	
396	4648.9	
396.2	4942.4	
396.4	3728.7	
396.61	3758.7	
396.81	4988.2	
397.02	4523.3	
397.22	3953.3	
397.42	3991.5	
397.63	5064.6	
397.83	4505.5	
398.04	3191.4	
398.24	3520.5	
398.44	4818.2	
398.65	4237.2	
398.85	3121.8	
399.05	3123.2	
399.26	4498	
399.46	5679	
399.67	3409.9	
399.87	3287	
400.07	4746.5	
400.28	5008.6	
400.48	3211.2	
400.69	3945.1	
400.89	5082.4	
401.09	5461.9	
401.3	3173.7	
401.5	3949.2	
401.7	5537	
401.91	5786.9	
402.11	3487.7	
402.32	3609.9	
402.52	5176.6	
402.72	5132.9	
402.93	3840.6	
403.13	2999.6	
403.33	5739.8	
403.54	4777.9	
403.74	3560.1	
403.94	4171.7	
404.15	4916.5	
404.35	5686.5	
404.56	3442	
404.76	4655.7	
404.96	5122	
405.17	5001.8	
405.37	4224.3	
405.57	3753.2	
405.78	5116.5	
405.98	4773.8	
406.18	3416.7	
406.39	3985.3	
406.59	5174.5	
406.79	4833.2	
407	3246	
407.2	3364.8	
407.4	5466.7	
407.61	5264.6	
407.81	3366.2	
408.01	5005.9	
408.22	4420.9	
408.42	5771.2	
408.62	4099.4	
408.83	3698.6	
409.03	4817.5	
409.23	4764.3	
409.44	3761.4	
409.64	3929.4	
409.84	5522	
410.05	5424.4	
410.25	3882.9	
410.45	3743.7	
410.66	5146.5	
410.86	6823.1	
411.06	4033.1	
411.27	3865.2	
411.47	6714.6	
411.67	5261.9	
411.88	4089.1	
412.08	4232.5	
412.28	5664	
412.49	6011.5	
412.69	3939.6	
412.89	3932.8	
413.09	5962.3	
413.3	5777.3	
413.5	4031.8	
413.7	3728.7	
413.91	5283.1	
414.11	5868.8	
414.31	3892.5	
414.52	4206.5	
414.72	5646.2	
414.92	5601.9	
415.12	3923.9	
415.33	4255.7	
415.53	5769.8	
415.73	5897.5	
415.94	4453.6	
416.14	4056.3	
416.34	5227.8	
416.55	4995	
416.75	4882.4	
416.95	4474.1	
417.15	5852.4	
417.36	6365.8	
417.56	5081	
417.76	4403.1	
417.97	6026.5	
418.17	5881.8	
418.37	4177.2	
418.57	4198.3	
418.78	5818.3	
418.98	5541.1	
419.18	4861.2	
419.38	4741.7	
419.59	5533.6	
419.79	5292.6	
419.99	4067.9	
420.2	4304.1	
420.4	5957.5	
420.6	5953.4	
420.8	4052.2	
421.01	3951.2	
421.21	5786.2	
421.41	5859.2	
421.61	4285.7	
421.82	4044.1	
422.02	5488.6	
422.22	6120.7	
422.42	4607.9	
422.63	4405.2	
422.83	5455.1	
423.03	6338.5	
423.23	4393.6	
423.44	3680.2	
423.64	5483.1	
423.84	5302.2	
424.04	4031.8	
424.25	3816	
424.45	6218.3	
424.65	6071.5	
424.85	3686.3	
425.06	3999	
425.26	6308.4	
425.46	5504.3	
425.66	4392.9	
425.87	4186.7	
426.07	6016.2	
426.27	5892.7	
426.47	4244.1	
426.67	3820.8	
426.88	6230.6	
427.08	5900.9	
427.28	4493.2	
427.48	3789.4	
427.69	5115.8	
427.89	5567.7	
428.09	4336.9	
428.29	3803.8	
428.5	5983.5	
428.7	5742.5	
428.9	3789.4	
429.1	4169	
429.3	5656.5	
429.51	5905.7	
429.71	4024.3	
429.91	4541	
430.11	5905.7	
430.31	5990.3	
430.52	4235.9	
430.72	4314.4	
430.92	6280.4	
431.12	5847	
431.32	3975.8	
431.53	4291.9	
431.73	5104.9	
431.93	6278.4	
432.13	3960.8	
432.33	3824.2	
432.54	5497.4	
432.74	5695.4	
432.94	3804.4	
433.14	4512.4	
433.34	5994.4	
433.55	5574.6	
433.75	4547.2	
433.95	5651.7	
434.15	5778.7	
434.35	5527.5	
434.56	3928.7	
434.76	3566.2	
434.96	5709.1	
435.16	5891.3	
435.36	3779.2	
435.56	4713.1	
435.77	5489.2	
435.97	5575.3	
436.17	5085.1	
436.37	4638.6	
436.57	5448.3	
436.78	5384.1	
436.98	4517.8	
437.18	5061.9	
437.38	5835.3	
437.58	5581.4	
437.78	5098.8	
437.99	4175.1	
438.19	5968.5	
438.39	6526.2	
438.59	4182	
438.79	3741.6	
438.99	6435.4	
439.2	5513.8	
439.4	3747.8	
439.6	3762.1	
439.8	5716.6	
440	6481.8	
440.2	4516.5	
440.4	4565.6	
440.61	6085.9	
440.81	6375.3	
441.01	3978.5	
441.21	4598.4	
441.41	6326.2	
441.61	6061.3	
441.81	4835.3	
442.02	5485.8	
442.22	6727.6	
442.42	6163	
442.62	3990.1	
442.82	4129.4	
443.02	6395.1	
443.22	5757.5	
443.43	4437.3	
443.63	4025.6	
443.83	5641.5	
444.03	5592.3	
444.23	4848.9	
444.43	4532.2	
444.63	5946.6	
444.83	6690.7	
445.04	4252.3	
445.24	4982.7	
445.44	6137.1	
445.64	6115.2	
445.84	4687.1	
446.04	4786.1	
446.24	5725.4	
446.44	6447	
446.65	4072	
446.85	4421.6	
447.05	5935.7	
447.25	6403.3	
447.45	4573.8	
447.65	3984	
447.85	5976.7	
448.05	5584.1	
448.25	4725.3	
448.46	4536.3	
448.66	5971.9	
448.86	5685.8	
449.06	4019.5	
449.26	4762.9	
449.46	6192.4	
449.66	5571.2	
449.86	4376.5	
450.06	4346.5	
450.26	5638.7	
450.47	6077	
450.67	4587.4	
450.87	4789.5	
451.07	6240.8	
451.27	5946.6	
451.47	4106.2	
451.67	4747.2	
451.87	5728.2	
452.07	6489.3	
452.27	4265.9	
452.47	4256.4	
452.67	5967.1	
452.88	6193.7	
453.08	3839.9	
453.28	5160.9	
453.48	6802	
453.68	5926.8	
453.88	4203.1	
454.08	4336.9	
454.28	6252.4	
454.48	5954.8	
454.68	4767.7	
454.88	5089.9	
455.08	6387.6	
455.28	6061.3	
455.48	4144.4	
455.68	4579.3	
455.89	6625.9	
456.09	6307.1	
456.29	4405.2	
456.49	4453	
456.69	6521.4	
456.89	6016.2	
457.09	4815.5	
457.29	5023	
457.49	6281.8	
457.69	6348.7	
457.89	4702.1	
458.09	4306.2	
458.29	6147.3	
458.49	6561	
458.69	4932.2	
458.89	4558.1	
459.09	6743.3	
459.29	6778.1	
459.49	4568.3	
459.69	5175.2	
459.9	6500.3	
460.1	6113.2	
460.3	4493.9	
460.5	4375.1	
460.7	6479.8	
460.9	6139.8	
461.1	4142.4	
461.3	5109.7	
461.5	6911.9	
461.7	6580.1	
461.9	4500.8	
462.1	4801.8	
462.3	6337.8	
462.5	6592.4	
462.7	4647.5	
462.9	4635.2	
463.1	7353.6	
463.3	7117.4	
463.5	4771.1	
463.7	5425.8	
463.9	6461.3	
464.1	6683.9	
464.3	4848.9	
464.5	5003.9	
464.7	6844.3	
464.9	6638.1	
465.1	5849.7	
465.3	5294.7	
465.5	7099.6	
465.7	7093.5	
465.9	5438.7	
466.1	5309	
466.3	6966.5	
466.5	6903	
466.7	5937.7	
466.9	5128.1	
467.1	7000	
467.3	7402	
467.5	5871.5	
467.7	5112.4	
467.9	7643	
468.1	8263.6	
468.3	5620.3	
468.5	5869.5	
468.7	6733	
468.9	6795.2	
469.1	5341.1	
469.3	5731.6	
469.5	8232.2	
469.7	6584.9	
469.9	5785.5	
470.1	5167	
470.3	6972	
470.5	6930.3	
470.7	6144.6	
470.9	5268.7	
471.1	6730.3	
471.3	7063.4	
471.5	5114.5	
471.69	6363.7	
471.89	6769.2	
472.09	6328.9	
472.29	5603.9	
472.49	5922	
472.69	6407.4	
472.89	6986.3	
473.09	5078.3	
473.29	5184.8	
473.49	6586.3	
473.69	6607.4	
473.89	5707	
474.09	5221	
474.29	7621.9	
474.49	7214.3	
474.69	5724.1	
474.89	5358.2	
475.09	6679.1	
475.29	6683.9	
475.49	4956.8	
475.69	5126.1	
475.88	7767.9	
476.08	7096.9	
476.28	4879.6	
476.48	5089.2	
476.68	7314	
476.88	7077.8	
477.08	5107	
477.28	5261.2	
477.48	6749.4	
477.68	7152.2	
477.88	4990.9	
478.08	5143.8	
478.28	7514	
478.48	6849.8	
478.67	5315.2	
478.87	4835.3	
479.07	7271	
479.27	6909.2	
479.47	5343.2	
479.67	5377.3	
479.87	7185.6	
480.07	7470.3	
480.27	4918.5	
480.47	6022.4	
480.67	6845	
480.87	7334.5	
481.06	5133.6	
481.26	5714.5	
481.46	6898.9	
481.66	6792.4	
481.86	5426.4	
482.06	6079.1	
482.26	6748.1	
482.46	7197.9	
482.66	5301.5	
482.86	5027.8	
483.05	7140.6	
483.25	6433.4	
483.45	7031.4	
483.65	5350	
483.85	6567.2	
484.05	6811.5	
484.25	5651	
484.45	5933.6	
484.65	7428.7	
484.84	7455.3	
485.04	5309.7	
485.24	5288.5	
485.44	7709.9	
485.64	6508.4	
485.84	4852.3	
486.04	5744.6	
486.24	6740.5	
486.44	6959.7	
486.63	4875.5	
486.83	5472.9	
487.03	6774.7	
487.23	6862.7	
487.43	4954	
487.63	6488.6	
487.83	6948.1	
488.02	7396.6	
488.22	5576.6	
488.42	6027.2	
488.62	7546.8	
488.82	6694.1	
489.02	5350.7	
489.22	5360.2	
489.41	7403.4	
489.61	7176.1	
489.81	5188.9	
490.01	5176.6	
490.21	7379.5	
490.41	7879.9	
490.61	5186.8	
490.8	5287.9	
491	7052.5	
491.2	6657.3	
491.4	5695.4	
491.6	5138.4	
491.8	7098.9	
491.99	7089.4	
492.19	4979.3	
492.39	5179.3	
492.59	7267.6	
492.79	7417.7	
492.99	5754.8	
493.18	5172.5	
493.38	7520.1	
493.58	7996.6	
493.78	5653.1	
493.98	5321.3	
494.18	7235.5	
494.37	6831.3	
494.57	5875.6	
494.77	5711.1	
494.97	7447.1	
495.17	7576.1	
495.37	5476.3	
495.56	5758.2	
495.76	7760.4	
495.96	7471	
496.16	6395.1	
496.36	5699.5	
496.55	7746.8	
496.75	7236.2	
496.95	5879.7	
497.15	5773.2	
497.35	7757.7	
497.54	7624.6	
497.74	5724.8	
497.94	6864.1	
498.14	8125.7	
498.34	7940	
498.53	5504.9	
498.73	5993.7	
498.93	7210.2	
499.13	7569.3	
499.33	5902.9	
499.52	6206	
499.72	7719.5	
499.92	7820.5	
500.12	5662	
500.32	5870.2	
500.51	7767.9	
500.71	7625.3	
500.91	6399.2	
501.11	6157.6	
501.31	7810.3	
501.5	8049.9	
501.7	6657.9	
501.9	6004.6	
502.1	7649.2	
502.29	7931.1	
502.49	6211.5	
502.69	6527.6	
502.89	7774.1	
503.09	7777.5	
503.28	5522.7	
503.48	5608	
503.68	7304.4	
503.88	7230.7	
504.07	6310.5	
504.27	6008.1	
504.47	7472.4	
504.67	7559.1	
504.86	6220.4	
505.06	6069.5	
505.26	7363.8	
505.46	8507.9	
505.65	5902.2	
505.85	6059.3	
506.05	7351.5	
506.25	7653.9	
506.44	5552	
506.64	6086.6	
506.84	7164.5	
507.04	7720.8	
507.23	5705.6	
507.43	5964.4	
507.63	8552.3	
507.83	7231.4	
508.02	5982.8	
508.22	5686.5	
508.42	8692.3	
508.62	7101	
508.81	5866.7	
509.01	6309.8	
509.21	7065.5	
509.4	7299	
509.6	6057.2	
509.8	5636.7	
510	7294.2	
510.19	8073.8	
510.39	5535	
510.59	5623	
510.79	7149.5	
510.98	8159.8	
511.18	5750.7	
511.38	5773.2	
511.57	7716.7	
511.77	7506.5	
511.97	6227.2	
512.17	5575.9	
512.36	7780.2	
512.56	7570.7	
512.76	5599.1	
512.95	5397.8	
513.15	7894.9	
513.35	6783.6	
513.55	6195.1	
513.74	5619.6	
513.94	7821.2	
514.14	7342	
514.33	6319.3	
514.53	6029.2	
514.73	7385	
514.92	7366.5	
515.12	5672.9	
515.32	5606.7	
515.51	7509.2	
515.71	7736.5	
515.91	6821.1	
516.11	5669.5	
516.3	8670.4	
516.5	7221.8	
516.7	6086.6	
516.89	6491.4	
517.09	7378.1	
517.29	7348.8	
517.48	6197.2	
517.68	5907.7	
517.88	7094.8	
518.07	7662.8	
518.27	6216.3	
518.47	5547.3	
518.66	8060.8	
518.86	7098.3	
519.06	5469.4	
519.25	5775.3	
519.45	7264.1	
519.65	8210.3	
519.84	6285.2	
520.04	6709.8	
520.24	8520.2	
520.43	7701.7	
520.63	6049	
520.83	5943.2	
521.02	7268.9	
521.22	7657.4	
521.42	6177.4	
521.61	6548.7	
521.81	7374.7	
522.01	7550.2	
522.2	6096.8	
522.4	5948	
522.6	7912.7	
522.79	6956.9	
522.99	6021	
523.18	5489.2	
523.38	7693.5	
523.58	7647.8	
523.77	6874.3	
523.97	5536.3	
524.17	8873.8	
524.36	8411.7	
524.56	6526.9	
524.76	6268.1	
524.95	7626	
525.15	7522.9	
525.34	6175.3	
525.54	6251.8	
525.74	7952.9	
525.93	7252.5	
526.13	6972.7	
526.33	6087.2	
526.52	8292.2	
526.72	7846.5	
526.91	6983.6	
527.11	6524.8	
527.31	8200.7	
527.5	8553.7	
527.7	6445.6	
527.89	5784.1	
528.09	7647.8	
528.29	7972.7	
528.48	6779.5	
528.68	6505.7	
528.87	8270.4	
529.07	8219.2	
529.27	6513.9	
529.46	6182.8	
529.66	8041	
529.85	8274.5	
530.05	6141.9	
530.25	6556.9	
530.44	8952.4	
530.64	7886.7	
530.83	6281.1	
531.03	6544.6	
531.23	8271.7	
531.42	8041	
531.62	6950.8	
531.81	6491.4	
532.01	8370.7	
532.21	8540	
532.4	6272.9	
532.6	6518.7	
532.79	8908.7	
532.99	8414.4	
533.18	6639.5	
533.38	7245	
533.58	8140	
533.77	8667.7	
533.97	6679.8	
534.16	7184.3	
534.36	8854.7	
534.55	8073.8	
534.75	7268.9	
534.95	6673.6	
535.14	8778.3	
535.34	8103.8	
535.53	6448.4	
535.73	7726.3	
535.92	9090.3	
536.12	8206.9	
536.31	6515.3	
536.51	7324.2	
536.71	8474.5	
536.9	8166.6	
537.1	6622.4	
537.29	6682.5	
537.49	8720.3	
537.68	8087.4	
537.88	6978.8	
538.07	6329.6	
538.27	8295	
538.46	8927.1	
538.66	6272.2	
538.86	6657.3	
539.05	8370.7	
539.25	8529.8	
539.44	6887.3	
539.64	6617.7	
539.83	8167.3	
540.03	8894.3	
540.22	6500.3	
540.42	6619	
540.61	8408.3	
540.81	8474.5	
541	6933.7	
541.2	7320.1	
541.39	7999.4	
541.59	8237.6	
541.78	7094.8	
541.98	6500.9	
542.18	7838.9	
542.37	7772.7	
542.57	6750.1	
542.76	7109.9	
542.96	7895.6	
543.15	8305.9	
543.35	6847	
543.54	6287.9	
543.74	8412.4	
543.93	8150.9	
544.13	6677.7	
544.32	7413	
544.52	8447.9	
544.71	7845.1	
544.91	6054.5	
545.1	6825.9	
545.3	7950.2	
545.49	8233.5	
545.69	5963	
545.88	6423.8	
546.08	8978.3	
546.27	8576.9	
546.47	6716.7	
546.66	6218.3	
546.86	8489.5	
547.05	8735.3	
547.24	6528.2	
547.44	6338.5	
547.63	7750.9	
547.83	8399.4	
548.02	6613.6	
548.22	6767.2	
548.41	7530.4	
548.61	8551.6	
548.8	6240.2	
549	6222.4	
549.19	8049.9	
549.39	8391.9	
549.58	6028.5	
549.78	6466.8	
549.97	8330.5	
550.17	8013	
550.36	7019.8	
550.55	7642.3	
550.75	7929.7	
550.94	8510.7	
551.14	6236.7	
551.33	6378.1	
551.53	7406.8	
551.72	8123.6	
551.92	6401.3	
552.11	6334.4	
552.31	8279.9	
552.5	8220.5	
552.69	7515.4	
552.89	6041.5	
553.08	8137.9	
553.28	7856	
553.47	6424.5	
553.67	7032	
553.86	8584.4	
554.06	7399.3	
554.25	5777.3	
554.44	6096.1	
554.64	9068.4	
554.83	8739.4	
555.03	6163	
555.22	6451.1	
555.42	8340	
555.61	8089.5	
555.8	6307.7	
556	6464.1	
556.19	7578.8	
556.39	8288.1	
556.58	6256.5	
556.78	6289.3	
556.97	7970.7	
557.16	7769.3	
557.36	7090.8	
557.55	5967.8	
557.75	7266.9	
557.94	8511.4	
558.13	6171.9	
558.33	5970.5	
558.52	8244.4	
558.72	7501	
558.91	5995.1	
559.1	6181.5	
559.3	7403.4	
559.49	7228.6	
559.69	5687.9	
559.88	6399.2	
560.07	7945.4	
560.27	8284.7	
560.46	6554.2	
560.66	6643.6	
560.85	7768.6	
561.04	7237.5	
561.24	5913.2	
561.43	6158.2	
561.63	7335.8	
561.82	7629.4	
562.01	6903	
562.21	6313.9	
562.4	7937.9	
562.59	8433.5	
562.79	6142.5	
562.98	5917.3	
563.18	7849.2	
563.37	8748.9	
563.56	6473.6	
563.76	5991	
563.95	7508.5	
564.14	7490.1	
564.34	6216.3	
564.53	5982.1	
564.73	7811	
564.92	7931.8	
565.11	6313.9	
565.31	5856.5	
565.5	8261.5	
565.69	7446.4	
565.89	6090	
566.08	6217.6	
566.27	8069.7	
566.47	8325.7	
566.66	6731	
566.85	5763.7	
567.05	7901.1	
567.24	7559.7	
567.44	5933	
567.63	6833.4	
567.82	8101.8	
568.02	7791.2	
568.21	5906.3	
568.4	6225.1	
568.6	7829.4	
568.79	7723.6	
568.98	5928.9	
569.18	5990.3	
569.37	7737.2	
569.56	9068.4	
569.76	6249	
569.95	6826.6	
570.14	7969.3	
570.34	7808.2	
570.53	5893.4	
570.72	5817.6	
570.91	8271.1	
571.11	7704.5	
571.3	6195.8	
571.49	6829.3	
571.69	7756.3	
571.88	7380.9	
572.07	6528.2	
572.27	6566.5	
572.46	7326.3	
572.65	8058.8	
572.85	5982.1	
573.04	6290.7	
573.23	8202.8	
573.43	7731.1	
573.62	5904.3	
573.81	6294.8	
574	7753.6	
574.2	7561.8	
574.39	6110.5	
574.58	6237.4	
574.78	8297.7	
574.97	7860.1	
575.16	6449.7	
575.36	6522.1	
575.55	8065.6	
575.74	8286.1	
575.93	5810.8	
576.13	6593.1	
576.32	7639.6	
576.51	8062.2	
576.71	6248.4	
576.9	7050.5	
577.09	8340	
577.28	7976.8	
577.48	6542.6	
577.67	5769.8	
577.86	7806.9	
578.05	7917.4	
578.25	6323.4	
578.44	6222.4	
578.63	7819.8	
578.83	8672.5	
579.02	5920.7	
579.21	6843.6	
579.4	7976.8	
579.6	7784.3	
579.79	6330.3	
579.98	7875.1	
580.17	8127	
580.37	8284.7	
580.56	5984.8	
580.75	6402	
580.94	8398.7	
581.14	8425.3	
581.33	6771.3	
581.52	6102.3	
581.71	8034.9	
581.91	8561.2	
582.1	5936.4	
582.29	6200.6	
582.48	7804.8	
582.68	7792.5	
582.87	6574.7	
583.06	6370.5	
583.25	8124.3	
583.45	7656	
583.64	6832.7	
583.83	7269.6	
584.02	7858.7	
584.21	8122.9	
584.41	6791.1	
584.6	6319.3	
584.79	7862.2	
584.98	8348.9	
585.18	6037.4	
585.37	5935.7	
585.56	7615	
585.75	8127.7	
585.94	6158.2	
586.14	6601.3	
586.33	8592.6	
586.52	7843	
586.71	6459.3	
586.91	6349.4	
587.1	7448.5	
587.29	8192.6	
587.48	6180.8	
587.67	6163.7	
587.87	8023.3	
588.06	7987.8	
588.25	6994.5	
588.44	6539.2	
588.63	7748.1	
588.83	8131.1	
589.02	6160.3	
589.21	6084.5	
589.4	7665.5	
589.59	7508.5	
589.78	5485.1	
589.98	5660.6	
590.17	7188.4	
590.36	7482.6	
590.55	5203.2	
590.74	5698.1	
590.94	8276.5	
591.13	7305.1	
591.32	5568.4	
591.51	5213.4	
591.7	7634.1	
591.89	7250.5	
592.09	5353.4	
592.28	5689.9	
592.47	6701.6	
592.66	8088.1	
592.85	5345.9	
593.05	5542.5	
593.24	7325.6	
593.43	7856.7	
593.62	5571.2	
593.81	5918.6	
594	7325.6	
594.19	7445	
594.39	5472.9	
594.58	5421	
594.77	7507.9	
594.96	7834.2	
595.15	5533.6	
595.34	5896.8	
595.54	7419.8	
595.73	6780.8	
595.92	5043.5	
596.11	5724.1	
596.3	7848.5	
596.49	6909.8	
596.68	5618.3	
596.88	5858.6	
597.07	7558.4	
597.26	6804	
597.45	5292	
597.64	6134.3	
597.83	7096.9	
598.02	7388.4	
598.22	5353.4	
598.41	5877.7	
598.6	7337.2	
598.79	6922.8	
598.98	5456.5	
599.17	6139.1	
599.36	7346.7	
599.55	8041	
599.74	6815	
599.94	6643.6	
600.13	7689.4	
600.32	6891.4	
600.51	5218.9	
600.7	5242.8	
600.89	8075.1	
601.08	8133.2	
601.27	5182.7	
601.47	5823.1	
601.66	7673.1	
601.85	8041.7	
602.04	5700.9	
602.23	5843.5	
602.42	7068.9	
602.61	7415.7	
602.8	5567.7	
602.99	5395	
603.18	7268.2	
603.37	7345.4	
603.57	5869.5	
603.76	6236.1	
603.95	7843.7	
604.14	7543.4	
604.33	5519.3	
604.52	5713.8	
604.71	7507.9	
604.9	7109.9	
605.09	6125.5	
605.28	6039.5	
605.47	7780.9	
605.66	7451.2	
605.86	5871.5	
606.05	5524.7	
606.24	7789.8	
606.43	6765.1	
606.62	5765.7	
606.81	6251.8	
607	7679.9	
607.19	7115.3	
607.38	5319.9	
607.57	5423.7	
607.76	7010.9	
607.95	6568.5	
608.14	5810.8	
608.33	6189	
608.52	6965.1	
608.72	7694.2	
608.91	5241.4	
609.1	5156.8	
609.29	7000.6	
609.48	6647	
609.67	5979.4	
609.86	5238	
610.05	6821.8	
610.24	7009.5	
610.43	5175.2	
610.62	4868	
610.81	7835.5	
611	7636.2	
611.19	5249.6	
611.38	5720.7	
611.57	7196.6	
611.76	8075.1	
611.95	5106.3	
612.14	4964.3	
612.33	7040.9	
612.52	6771.3	
612.71	5392.3	
612.9	4934.9	
613.09	6507.8	
613.28	8101.1	
613.47	5315.2	
613.66	5922	
613.85	7146	
614.04	6781.5	
614.24	5317.2	
614.43	4792.9	
614.62	7238.9	
614.81	7150.1	
615	5612.1	
615.19	5574.6	
615.38	6784.2	
615.57	6984.9	
615.76	5599.1	
615.95	6275.7	
616.14	7272.3	
616.33	7025.2	
616.52	5771.2	
616.71	5929.6	
616.9	7172	
617.09	7091.4	
617.28	5320.6	
617.47	6154.1	
617.66	6670.9	
617.85	6614.3	
618.04	5930.2	
618.22	5567.1	
618.41	6951.5	
618.6	7485.3	
618.79	5503.6	
618.98	5339.1	
619.17	7763.2	
619.36	6494.1	
619.55	5544.5	
619.74	5552.7	
619.93	7162.4	
620.12	6797.2	
620.31	5892.7	
620.5	5973.9	
620.69	7673.7	
620.88	7888.8	
621.07	6367.1	
621.26	5817.6	
621.45	7341.3	
621.64	7313.3	
621.83	5893.4	
622.02	5281.7	
622.21	7435.5	
622.4	7217.7	
622.59	6218.3	
622.78	6137.1	
622.97	6975.4	
623.16	7626	
623.35	5872.9	
623.54	5246.2	
623.72	7060	
623.91	7219.1	
624.1	6008.1	
624.29	5161.6	
624.48	7957	
624.67	7404.8	
624.86	5933	
625.05	5317.2	
625.24	7968.6	
625.43	6902.3	
625.62	7034.1	
625.81	5475.6	
626	7583.6	
626.19	7080.5	
626.38	5969.1	
626.56	5583.4	
626.75	6965.1	
626.94	7492.8	
627.13	5956.2	
627.32	5084.4	
627.51	7503.1	
627.7	8191.2	
627.89	5233.9	
628.08	5945.9	
628.27	6730.3	
628.46	6997.9	
628.65	5397.1	
628.83	5100.8	
629.02	7367.2	
629.21	6816.3	
629.4	5614.2	
629.59	5786.9	
629.78	6865.5	
629.97	7513.3	
630.16	5807.4	
630.35	5419.6	
630.54	7875.1	
630.72	7552.9	
630.91	5413.5	
631.1	5780.1	
631.29	7163.1	
631.48	7256.6	
631.67	5935.7	
631.86	5509.7	
632.05	7003.4	
632.24	6976.7	
632.42	5258.5	
632.61	5649.7	
632.8	7073	
632.99	6698.2	
633.18	5731.6	
633.37	5973.9	
633.56	7258	
633.75	7150.1	
633.93	5692.7	
634.12	5558.9	
634.31	7861.5	
634.5	7468.3	
634.69	5489.9	
634.88	5859.9	
635.07	7066.9	
635.25	7492.8	
635.44	6137.8	
635.63	6255.9	
635.82	6916.7	
636.01	6520	
636.2	6092.7	
636.39	5784.1	
636.57	7788.4	
636.76	7395.9	
636.95	5421.7	
637.14	6330.3	
637.33	7286	
637.52	7832.8	
637.7	5263.3	
637.89	5939.8	
638.08	6974.7	
638.27	8003.5	
638.46	5938.4	
638.65	6211.5	
638.83	7922.2	
639.02	6849.8	
639.21	5827.2	
639.4	6180.1	
639.59	7179.5	
639.78	6947.4	
639.96	5328.8	
640.15	5366.4	
640.34	7138.5	
640.53	7158.3	
640.72	5208.7	
640.91	5399.8	
641.09	6686.6	
641.28	7588.4	
641.47	5438.7	
641.66	5998.5	
641.85	7112.6	
642.03	7326.3	
642.22	5767.8	
642.41	5497.4	
642.6	6696.2	
642.79	6309.8	
642.97	5301.5	
643.16	5723.4	
643.35	6722.1	
643.54	6614.3	
643.73	5222.3	
643.91	5722	
644.1	6563.1	
644.29	6929.6	
644.48	5319.3	
644.67	5341.8	
644.85	6550.1	
645.04	6863.4	
645.23	5038.7	
645.42	5235.3	
645.6	6539.8	
645.79	7279.8	
645.98	5151.3	
646.17	4505.5	
646.36	6352.1	
646.54	6625.9	
646.73	5655.8	
646.92	4902.2	
647.11	6381.5	
647.29	7055.9	
647.48	4890.5	
647.67	4717.8	
647.86	7225.2	
648.05	7227.3	
648.23	4978.6	
648.42	5971.9	
648.61	6912.6	
648.8	6658.6	
648.98	4785.4	
649.17	5092.6	
649.36	6358.9	
649.55	6102.9	
649.73	4878.9	
649.92	5393	
650.11	6214.2	
650.3	6497.5	
650.48	4938.3	
650.67	4810.7	
650.86	6726.9	
651.05	5921.4	
651.23	4949.9	
651.42	4818.2	
651.61	6346	
651.79	6306.4	
651.98	5028.4	
652.17	4806.6	
652.36	6675.7	
652.54	5962.3	
652.73	4828.4	
652.92	4765.6	
653.11	6677.7	
653.29	6683.9	
653.48	4365.6	
653.67	5033.9	
653.85	6456.6	
654.04	7152.2	
654.23	5137	
654.42	4803.2	
654.6	6186.2	
654.79	6641.6	
654.98	4454.3	
655.16	4894.6	
655.35	5884.5	
655.54	5752.7	
655.73	4526	
655.91	4438.6	
656.1	6526.2	
656.29	5761.6	
656.47	4194.2	
656.66	5375.9	
656.85	6010.8	
657.03	5963	
657.22	4508.3	
657.41	4562.9	
657.59	6102.3	
657.78	5943.2	
657.97	4412	
658.16	4866.7	
658.34	6540.5	
658.53	6858	
658.72	5500.2	
658.9	5788.9	
659.09	6229.9	
659.28	6213.5	
659.46	4632.5	
659.65	4676.2	
659.84	5975.3	
660.02	6400.6	
660.21	4726.7	
660.4	4532.8	
660.58	6669.6	
660.77	6202.6	
660.96	5044.8	
661.14	4296.6	
661.33	7091.4	
661.52	6939.9	
661.7	4240.7	
661.89	6616.3	
662.08	5971.2	
662.26	5651.7	
662.45	4435.2	
662.64	4557.4	
662.82	6452.5	
663.01	5895.4	
663.2	4545.8	
663.38	5063.3	
663.57	6370.5	
663.75	6300.9	
663.94	4847.5	
664.13	5673.6	
664.31	5959.6	
664.5	6434	
664.69	5152.7	
664.87	5317.9	
665.06	5803.3	
665.25	6258.6	
665.43	5485.8	
665.62	5495.4	
665.8	6406.7	
665.99	6044.2	
666.18	4807.3	
666.36	4853	
666.55	6466.8	
666.74	6438.8	
666.92	4532.8	
667.11	5657.2	
667.29	6108.4	
667.48	6440.2	
667.67	5431.9	
667.85	4634.6	
668.04	6052.4	
668.22	6027.9	
668.41	4810	
668.6	5025.7	
668.78	5817.6	
668.97	6023.1	
669.15	5056.4	
669.34	4330.8	
669.53	5900.9	
669.71	6137.8	
669.9	4496.7	
670.08	4924	
670.27	5784.8	
670.46	6283.9	
670.64	5065.3	
670.83	5214.8	
671.01	5800.5	
671.2	6177.4	
671.38	4550.6	
671.57	4453	
671.76	6697.5	
671.94	6982.9	
672.13	4382	
672.31	5176.6	
672.5	6405.4	
672.69	5876.3	
672.87	4515.8	
673.06	4775.9	
673.24	6296.8	
673.43	5937.1	
673.61	5040.1	
673.8	4647.5	
673.98	6274.3	
674.17	6405.4	
674.36	5106.3	
674.54	4991.6	
674.73	6134.3	
674.91	6432	
675.1	4822.3	
675.28	4462.5	
675.47	6015.6	
675.65	6399.2	
675.84	4697.4	
676.03	4878.3	
676.21	5954.1	
676.4	5473.5	
676.58	5259.9	
676.77	5043.5	
676.95	6982.9	
677.14	5897.5	
677.32	4462.5	
677.51	4353.3	
677.69	6450.4	
677.88	5698.1	
678.06	4483	
678.25	4543.1	
678.44	6075.6	
678.62	5900.9	
678.81	4278.9	
678.99	4904.9	
679.18	6603.3	
679.36	6293.4	
679.55	4653.7	
679.73	5083.7	
679.92	6291.4	
680.1	5924.1	
680.29	5451.7	
680.47	4683	
680.66	5868.1	
680.84	6426.5	
681.03	4160.1	
681.21	5055.8	
681.4	5876.3	
681.58	5816.2	
681.77	4584	
681.95	4488.5	
682.14	6525.5	
682.32	6707.8	
682.51	5164.3	
682.69	4299.4	
682.88	5853.8	
683.06	6190.3	
683.25	4943.8	
683.43	5244.8	
683.62	6058.6	
683.8	6287.9	
683.99	5296.7	
684.17	4817.5	
684.36	6802.7	
684.54	5990.3	
684.73	4285.7	
684.91	4354.7	
685.1	6180.8	
685.28	5704.3	
685.46	4795.7	
685.65	4746.5	
685.83	6208.1	
686.02	5818.3	
686.2	4311.7	
686.39	4405.2	
686.57	5691.3	
686.76	6569.2	
686.94	4373.8	
687.13	4460.5	
687.31	6060.6	
687.5	5905.7	
687.68	4125.3	
687.86	4844.8	
688.05	7032	
688.23	5497.4	
688.42	4918.5	
688.6	4369.7	
688.79	5701.5	
688.97	5814.2	
689.16	4692.6	
689.34	4007.2	
689.52	6287.9	
689.71	6437.4	
689.89	4939	
690.08	4425	
690.26	6016.9	
690.45	5894.1	
690.63	5009.3	
690.81	4530.8	
691	5893.4	
691.18	5726.1	
691.37	4632.5	
691.55	6075	
691.74	5696.8	
691.92	7088.7	
692.1	4540.3	
692.29	4310.3	
692.47	5875.6	
692.66	5401.2	
692.84	4351.9	
693.02	4790.2	
693.21	5497.4	
693.39	5899.5	
693.58	4851.6	
693.76	4372.4	
693.94	6633.4	
694.13	6433.4	
694.31	4436.6	
694.5	5147.9	
694.68	5732.3	
694.86	5991	
695.05	4672.8	
695.23	4812	
695.42	6233.3	
695.6	7730.4	
695.78	5161.6	
695.97	4577.2	
696.15	6336.4	
696.34	5810.8	
696.52	4411.3	
696.7	4949.9	
696.89	6133	
697.07	5675.6	
697.25	4809.3	
697.44	5773.9	
697.62	6128.9	
697.81	6293.4	
697.99	4681.7	
698.17	4915.8	
698.36	5722	
698.54	6145.3	
698.72	4863.2	
698.91	4259.8	
699.09	5799.8	
699.28	5711.1	
699.46	4662.5	
699.64	4487.1	
699.83	5738.4	
700.01	6389	
700.19	5134.9	
700.38	4065.2	
700.56	6472.3	
700.74	5754.1	
700.93	4318.5	
701.11	4883	
701.29	6155.5	
701.48	6869.6	
701.66	4464.6	
701.84	4584.7	
702.03	5937.1	
702.21	6435.4	
702.39	4236.6	
702.58	4601.1	
702.76	6229.9	
702.94	6203.3	
703.13	4263.2	
703.31	5948	
703.49	5782.8	
703.68	6783.6	
703.86	4422.2	
704.04	5039.4	
704.23	6139.8	
704.41	6378.1	
704.59	4545.8	
704.78	5286.5	
704.96	7196.6	
705.14	6290.7	
705.33	4345.8	
705.51	4896.7	
705.69	5913.2	
705.87	6568.5	
706.06	5124	
706.24	4338.3	
706.42	6236.7	
706.61	6380.1	
706.79	5192.3	
706.97	4345.1	
707.16	5879	
707.34	6285.9	
707.52	5113.8	
707.7	4521.2	
707.89	5898.8	
708.07	5675.6	
708.25	5169.1	
708.44	5405.3	
708.62	5828.5	
708.8	6593.1	
708.98	5317.9	
709.17	4590.9	
709.35	6117.3	
709.53	6203.3	
709.72	4398.4	
709.9	4504.2	
710.08	6423.8	
710.26	6363.7	
710.45	5556.1	
710.63	4680.3	
710.81	6074.3	
710.99	6141.2	
711.18	5141.1	
711.36	4686.4	
711.54	6010.8	
711.72	6549.4	
711.91	4801.1	
712.09	4429.8	
712.27	6128.2	
712.45	6803.4	
712.64	5003.9	
712.82	4278.2	
713	5778	
713.18	5896.8	
713.37	4336.9	
713.55	5090.6	
713.73	6459.3	
713.91	5539.1	
714.1	4602.5	
714.28	4203.8	
714.46	6244.3	
714.64	5637.4	
714.83	3908.9	
715.01	4300.1	
715.19	5716.6	
715.37	5236.7	
715.55	4101.4	
715.74	4330.1	
715.92	6222.4	
716.1	4810.7	
716.28	5123.3	
716.47	4345.8	
716.65	5424.4	
716.83	5440.8	
717.01	4311	
717.19	4284.4	
717.38	6799.3	
717.56	5190.9	
717.74	4466.6	
717.92	3852.2	
718.1	6018.3	
718.29	5520	
718.47	3657.7	
718.65	4063.2	
718.83	6063.4	
719.01	5957.5	
719.2	3599	
719.38	4450.2	
719.56	5812.1	
719.74	6851.1	
719.92	4128.7	
720.11	4863.2	
720.29	5920	
720.47	5265.3	
720.65	3805.8	
720.83	4455.7	
721.02	5518.6	
721.2	5322	
721.38	4429.8	
721.56	3862.5	
721.74	4898.1	
721.92	5076.9	
722.11	4771.1	
722.29	4506.2	
722.47	5954.1	
722.65	5340.4	
722.83	3933.5	
723.01	4562.9	
723.2	5420.3	
723.38	5610.8	
723.56	3569.6	
723.74	4341.7	
723.92	5070.1	
724.1	5833.3	
724.29	3859.1	
724.47	4629.8	
724.65	5215.5	
724.83	5038.7	
725.01	3824.2	
725.19	4349.2	
725.37	5098.1	
725.56	5043.5	
725.74	3738.2	
725.92	3895.2	
726.1	5087.8	
726.28	5310.4	
726.46	4156.7	
726.64	3969	
726.83	5378	
727.01	5522.7	
727.19	3667.9	
727.37	4319.8	
727.55	5470.8	
727.73	5720.7	
727.91	3723.9	
728.09	3586.7	
728.28	5734.3	
728.46	5975.3	
728.64	4318.5	
728.82	4265.9	
729	6500.3	
729.18	6051.7	
729.36	3819.5	
729.54	5345.2	
729.72	6703.7	
729.91	5496.1	
730.09	5154.1	
730.27	4254.3	
730.45	5407.3	
730.63	5902.2	
730.81	4668	
730.99	4036.5	
731.17	6331.6	
731.35	5313.8	
731.53	4423.6	
731.71	4117.8	
731.9	6097.5	
732.08	6098.2	
732.26	4348.5	
732.44	4053.6	
732.62	6240.2	
732.8	5868.8	
732.98	4668	
733.16	3922.5	
733.34	5912.5	
733.52	4978.6	
733.7	4247.5	
733.88	4473.4	
734.07	5737	
734.25	5595.7	
734.43	3893.9	
734.61	4939.7	
734.79	6643.6	
734.97	5505.6	
735.15	4001	
735.33	4270.7	
735.51	5841.5	
735.69	5518.6	
735.87	5009.3	
736.05	4397.7	
736.23	5681.1	
736.41	5431.2	
736.59	4266.6	
736.77	4351.9	
736.95	5904.3	
737.13	5505.6	
737.32	4043.4	
737.5	4153.3	
737.68	6393.1	
737.86	5457.8	
738.04	3910.9	
738.22	5204.6	
738.4	5303.6	
738.58	5606	
738.76	4259.8	
738.94	3549.1	
739.12	5456.5	
739.3	5380	
739.48	4724.7	
739.66	4543.1	
739.84	5622.4	
740.02	5519.3	
740.2	3667.2	
740.38	3915	
740.56	5777.3	
740.74	4948.6	
740.92	4342.4	
741.1	4269.3	
741.28	5457.8	
741.46	5243.5	
741.64	4024.9	
741.82	4456.4	
742	5472.9	
742.18	5407.3	
742.36	4211.3	
742.54	3855.6	
742.72	5965.1	
742.9	4943.8	
743.08	4401.8	
743.26	3576.4	
743.44	5961	
743.62	5819.6	
743.8	4536.3	
743.98	3903.4	
744.16	5707	
744.34	5400.5	
744.52	4441.4	
744.7	4445.5	
744.88	5720.7	
745.06	5395.7	
745.24	4483	
745.42	4568.3	
745.6	5847	
745.78	5716.6	
745.96	3691.8	
746.14	3830.4	
746.32	6352.1	
746.5	5661.3	
746.68	4212	
746.86	3870	
747.03	5942.5	
747.21	4910.3	
747.39	4242.7	
747.57	3816	
747.75	5471.5	
747.93	5681.7	
748.11	3808.5	
748.29	3732.1	
748.47	6585.6	
748.65	5291.3	
748.83	4349.9	
749.01	4113.7	
749.19	5654.4	
749.37	5003.9	
749.55	4055.7	
749.73	4100	
749.91	5418.2	
750.09	5201.2	
750.26	4103.4	
750.44	3645.4	
750.62	5384.1	
750.8	5296	
750.98	3620.1	
751.16	3838.6	
751.34	5492	
751.52	4986.8	
751.7	4438.6	
751.88	3562.8	
752.06	5773.2	
752.24	5567.1	
752.42	3533.4	
752.59	3855	
752.77	5296	
752.95	6130.3	
753.13	4298.7	
753.31	3864.5	
753.49	5109	
753.67	5429.8	
753.85	4080.2	
754.03	3786	
754.21	5627.8	
754.38	5862.7	
754.56	3852.9	
754.74	3241.9	
754.92	5028.4	
755.1	5496.1	
755.28	3183.9	
755.46	3226.9	
755.64	6029.9	
755.82	6144.6	
755.99	3446.7	
756.17	3493.2	
756.35	4405.2	
756.53	5428.5	
756.71	2661.7	
756.89	3334.8	
757.07	5063.3	
757.25	4418.2	
757.42	3696.6	
757.6	4277.5	
757.78	5183.4	
757.96	4497.3	
758.14	3444	
758.32	3164.8	
758.5	4167.6	
758.67	4752.7	
758.85	3296.5	
759.03	3429	
759.21	4903.5	
759.39	4486.4	
759.57	3051.5	
759.75	3863.2	
759.92	5353.4	
760.1	4919.9	
760.28	4072.7	
760.46	4280.3	
760.64	4691.9	
760.82	4578.6	
760.99	4007.2	
761.17	3472	
761.35	5317.2	
761.53	4511	
761.71	3538.9	
761.89	4005.8	
762.06	5180.7	
762.24	4827.7	
762.42	3582.6	
762.6	3444	
762.78	4838.7	
762.96	5236.7	
763.13	3867.9	
763.31	3643.3	
763.49	5231.9	
763.67	4738.3	
763.85	4200.4	
764.02	4584.7	
764.2	5597.1	
764.38	4935.6	
764.56	3549.1	
764.74	4168.3	
764.91	5598.5	
765.09	4855.7	
765.27	3409.9	
765.45	3167.5	
765.63	5735	
765.8	5509.7	
765.98	3061.7	
766.16	3240.6	
766.34	4562.2	
766.52	4376.5	
766.69	3852.2	
766.87	3095.2	
767.05	4873.5	
767.23	5406	
767.41	3311.6	
767.58	3530	
767.76	5229.1	
767.94	5302.9	
768.12	3424.9	
768.29	3887	
768.47	4846.2	
768.65	5410.7	
768.83	3122.5	
769	3869.3	
769.18	4630.5	
769.36	5024.3	
769.54	3964.2	
769.72	3134.8	
769.89	5341.8	
770.07	5311.1	
770.25	3450.1	
770.43	4300.1	
770.6	5868.8	
770.78	5995.8	
770.96	3563.5	
771.14	3927.3	
771.31	5264.6	
771.49	4720.6	
771.67	2977.1	
771.85	3136.1	
772.02	4259.1	
772.2	4766.3	
772.38	3632.4	
772.55	3305.4	
772.73	4971.1	
772.91	4741.7	
773.09	3541.6	
773.26	3587.4	
773.44	4934.2	
773.62	4739.7	
773.8	3252.2	
773.97	2985.3	
774.15	4980.7	
774.33	4744.5	
774.5	3098.6	
774.68	3396.2	
774.86	5086.5	
775.04	4701.5	
775.21	3211.2	
775.39	3175	
775.57	4936.3	
775.74	5181.4	
775.92	3056.3	
776.1	3030.3	
776.27	4853.7	
776.45	5729.5	
776.63	3176.4	
776.81	2893.8	
776.98	4662.5	
777.16	5313.1	
777.34	3228.3	
777.51	3483.6	
777.69	4632.5	
777.87	4460.5	
778.04	3434.4	
778.22	3665.9	
778.4	4496	
778.57	4938.3	
778.75	2872.6	
778.93	3024.2	
779.1	4410	
779.28	4248.2	
779.46	2800.9	
779.64	3125.9	
779.81	5089.2	
779.99	5619.6	
780.17	3681.6	
780.34	3820.8	
780.52	4690.5	
780.69	4797	
780.87	3378.5	
781.05	3089.7	
781.22	4788.2	
781.4	4768.4	
781.58	3156.6	
781.75	2640.5	
781.93	4780.6	
782.11	4273.4	
782.28	3758.7	
782.46	3164.8	
782.64	4247.5	
782.81	4898.1	
782.99	3248.1	
783.17	3153.2	
783.34	4799.8	
783.52	4377.2	
783.69	3325.9	
783.87	3936.2	
784.05	4398.4	
784.22	4307.6	
784.4	3888.4	
784.58	3379.8	
784.75	5046.9	
784.93	4486.4	
785.1	3222.1	
785.28	3554.6	
785.46	4851.6	
785.63	4240.7	
785.81	3187.3	
785.99	3024.2	
786.16	4517.1	
786.34	4701.5	
786.51	3062.4	
786.69	3413.3	
786.87	4175.1	
787.04	4486.4	
787.22	2986.6	
787.39	3646.1	
787.57	4374.5	
787.75	5064.6	
787.92	3850.9	
788.1	3691.1	
788.27	4351.3	
788.45	4136.9	
788.63	3609.2	
788.8	2650.1	
788.98	4649.6	
789.15	4044.1	
789.33	2727.9	
789.5	3153.2	
789.68	4937	
789.86	5029.8	
790.03	3512.3	
790.21	3070.6	
790.38	5023.7	
790.56	4463.9	
790.73	3001	
790.91	2996.2	
791.09	4324.6	
791.26	4814.1	
791.44	3239.2	
791.61	2770.2	
791.79	4356	
791.96	4333.5	
792.14	2902.7	
792.32	2580.4	
792.49	4334.2	
792.67	4399.7	
792.84	2908.1	
793.02	2760	
793.19	4661.9	
793.37	5136.3	
793.54	2591.4	
793.72	2800.9	
793.89	5175.9	
794.07	4321.2	
794.25	3310.9	
794.42	2632.3	
794.6	5071.5	
794.77	4735.6	
794.95	3408.5	
795.12	2997.5	
795.3	4358.1	
795.47	4733.5	
795.65	3311.6	
795.82	3162.7	
796	4205.2	
796.17	5466	
796.35	3103.4	
796.52	3614.7	
796.7	4727.4	
796.87	4794.3	
797.05	3132	
797.22	3686.3	
797.4	4823.6	
797.57	5434.6	
797.75	3223.5	
797.92	3077.4	
798.1	5039.4	
798.27	4227.7	
798.45	2698.5	
798.62	2800.9	
798.8	4553.3	
798.97	4882.4	
799.15	3368.9	
799.32	3238.5	
799.5	3979.9	
799.67	4556	
799.85	3448.1	
800.02	2606.4	
800.2	4290.5	
800.37	4512.4	
800.55	3523.9	
800.72	3001.6	
800.9	4874.2	
801.07	5160.2	
801.25	4008.6	
801.42	3304.1	
801.6	4906.3	
801.77	4571.1	
801.95	3134.8	
802.12	2953.2	
802.29	4703.5	
802.47	4609.3	
802.64	3302	
802.82	2635.7	
802.99	4279.6	
803.17	4941.7	
803.34	3251.5	
803.52	2926.5	
803.69	5402.5	
803.87	4123.2	
804.04	3233.1	
804.21	3250.1	
804.39	5115.1	
804.56	4401.8	
804.74	2779.1	
804.91	3297.9	
805.09	4296.6	
805.26	4394.9	
805.44	2796.2	
805.61	3058.3	
805.78	4814.1	
805.96	4793.6	
806.13	3310.2	
806.31	3489.1	
806.48	3993.5	
806.66	4292.5	
806.83	3315	
807	3211.2	
807.18	4354	
807.35	4610	
807.53	3109.5	
807.7	2663	
807.87	5109	
808.05	4354.7	
808.22	3496.6	
808.4	2680.1	
808.57	4236.6	
808.74	4074.8	
808.92	3005.1	
809.09	3713	
809.27	4302.1	
809.44	4654.4	
809.61	2665.1	
809.79	2886.3	
809.96	5175.9	
810.14	4809.3	
810.31	2675.3	
810.48	3103.4	
810.66	4373.1	
810.83	4898.7	
811.01	2977.1	
811.18	3351.2	
811.35	4855.1	
811.53	3876.8	
811.7	3491.1	
811.87	3316.3	
812.05	4428.4	
812.22	4328.7	
812.39	2911.5	
812.57	2818.7	
812.74	4403.1	
812.92	5487.9	
813.09	3122.5	
813.26	3336.1	
813.44	5292.6	
813.61	4238.6	
813.78	2648.7	
813.96	3429	
814.13	4442.7	
814.3	4163.5	
814.48	3695.2	
814.65	3092.4	
814.82	5030.5	
815	4145.8	
815.17	3153.2	
815.34	3815.4	
815.52	4298	
815.69	4285	
815.87	3095.8	
816.04	3085.6	
816.21	4290.5	
816.38	3999	
816.56	3098.6	
816.73	2874	
816.9	5312.4	
817.08	4844.1	
817.25	2928.6	
817.42	3528	
817.6	4024.3	
817.77	4286.4	
817.94	3224.9	
818.12	2835.1	
818.29	4193.6	
818.46	5928.2	
818.64	3001.6	
818.81	2785.2	
818.98	4156	
819.16	5578	
819.33	3377.1	
819.5	3165.5	
819.67	4637.3	
819.85	5065.3	
820.02	3166.2	
820.19	3226.9	
820.37	4503.5	
820.54	4233.2	
820.71	3205.1	
820.88	3891.8	
821.06	4442.7	
821.23	4190.1	
821.4	3234.4	
821.58	3191.4	
821.75	4813.4	
821.92	4408.6	
822.09	2683.5	
822.27	2852.1	
822.44	4370.4	
822.61	4247.5	
822.79	2644.6	
822.96	4812	
823.13	4603.8	
823.3	4081.6	
823.48	2998.9	
823.65	2813.2	
823.82	4831.2	
823.99	4067.3	
824.17	3784	
824.34	2835.1	
824.51	5489.2	
824.68	4384	
824.86	2940.9	
825.03	3239.9	
825.2	4392.2	
825.37	5085.1	
825.55	2940.9	
825.72	3120.4	
825.89	5404.6	
826.06	5111.7	
826.24	3079.5	
826.41	3092.4	
826.58	5153.4	
826.75	4578.6	
826.92	2596.1	
827.1	2759.3	
827.27	6673.6	
827.44	5449	
827.61	2969.6	
827.79	3504.1	
827.96	4228.4	
828.13	4309.6	
828.3	3108.8	
828.47	2678.7	
828.65	4674.1	
828.82	4517.1	
828.99	3812.6	
829.16	3338.2	
829.34	4874.2	
829.51	4721.9	
829.68	3131.3	
829.85	3216	
830.02	5135.6	
830.2	4830.5	
830.37	2530.6	
830.54	3700	
830.71	5374.6	
830.88	4410	
831.05	2491	
831.23	2906.1	
831.4	5296.7	
831.57	5610.8	
831.74	2897.9	
831.91	2653.5	
832.09	4709	
832.26	4836.6	
832.43	3036.5	
832.6	3415.3	
832.77	4626.4	
832.94	5081	
833.12	2467.1	
833.29	2984.6	
833.46	4265.9	
833.63	5791	
833.8	3262.4	
833.97	3023.5	
834.15	4919.2	
834.32	4753.3	
834.49	3091.8	
834.66	3180.5	
834.83	4984.8	
835	4213.4	
835.17	2893.8	
835.35	2947	
835.52	4785.4	
835.69	4710.3	
835.86	3081.5	
836.03	2592.7	
836.2	4834.6	
836.37	4573.1	
836.55	2967.5	
836.72	2875.3	
836.89	4549.9	
837.06	4937.7	
837.23	2969.6	
837.4	3325.2	
837.57	5457.2	
837.75	5855.8	
837.92	2822.1	
838.09	2935.4	
838.26	4511	
838.43	4967	
838.6	3179.1	
838.77	2895.1	
838.94	5582.1	
839.11	5445.5	
839.29	3053.5	
839.46	2447.3	
839.63	4921.3	
839.8	4635.2	
839.97	2918.4	
840.14	2898.6	
840.31	4733.5	
840.48	4790.9	
840.65	2513.5	
840.82	2896.5	
841	4835.9	
841.17	4728.8	
841.34	2752.5	
841.51	2811.9	
841.68	4769	
841.85	4626.4	
842.02	2818.7	
842.19	2435.7	
842.36	4737.6	
842.53	4657.8	
842.7	2734	
842.87	3270.6	
843.05	5770.5	
843.22	4587.4	
843.39	2610.5	
843.56	2853.5	
843.73	4509.6	
843.9	4853	
844.07	4154.6	
844.24	3517.7	
844.41	6464.8	
844.58	4302.1	
844.75	2684.9	
844.92	2865.8	
845.09	4820.2	
845.26	4793.6	
845.43	2694.4	
845.6	2897.9	
845.77	4841.4	
845.94	4638.6	
846.12	2993.4	
846.29	3192.8	
846.46	5024.3	
846.63	4801.1	
846.8	2721.8	
846.97	3104	
847.14	5127.4	
847.31	4790.9	
847.48	3024.2	
847.65	3280.8	
847.82	4965	
847.99	4933.6	
848.16	3515.7	
848.33	3289.7	
848.5	4459.1	
848.67	5163.6	
848.84	2702.6	
849.01	2850.1	
849.18	4399.7	
849.35	4192.9	
849.52	3274.7	
849.69	2702	
849.86	5010	
850.03	5109	
850.2	2715.6	
850.37	3226.9	
850.54	4982	
850.71	4581.3	
850.88	3241.9	
851.05	2720.4	
851.22	4686.4	
851.39	5179.3	
851.56	2575	
851.73	3093.8	
851.9	4292.5	
852.07	4953.4	
852.24	2968.9	
852.41	2665.8	
852.58	4748.6	
852.75	4371.7	
852.92	3063.1	
853.09	2699.2	
853.26	4460.5	
853.43	5042.8	
853.6	2724.5	
853.77	2344.9	
853.94	5196.4	
854.11	4289.8	
854.28	3872	
854.44	2914.9	
854.61	5455.1	
854.78	5020.9	
854.95	2712.2	
855.12	3280.8	
855.29	4027.7	
855.46	5268.7	
855.63	2734	
855.8	3614	
855.97	4445.5	
856.14	5128.8	
856.31	3684.3	
856.48	2977.1	
856.65	4546.5	
856.82	4234.5	
856.99	2631.6	
857.16	2877.4	
857.33	5598.5	
857.49	4573.1	
857.66	2822.8	
857.83	3080.1	
858	4545.8	
858.17	4782.7	
858.34	2543.6	
858.51	2720.4	
858.68	5308.3	
858.85	5272.8	
859.02	3075.4	
859.19	3254.2	
859.36	4332.1	
859.52	4305.5	
859.69	2728.6	
859.86	3149.8	
860.03	4339	
860.2	5228.5	
860.37	2540.2	
860.54	2721.8	
860.71	4926	
860.88	5242.8	
861.05	3001	
861.21	3366.9	
861.38	5214.8	
861.55	4160.1	
861.72	2577.7	
861.89	3013.2	
862.06	5046.9	
862.23	5233.9	
862.4	2662.4	
862.56	2846	
862.73	4852.3	
862.9	4625	
863.07	3089.7	
863.24	2501.3	
863.41	4272.7	
863.58	4318.5	
863.75	2758.6	
863.91	3099.9	
864.08	5083.7	
864.25	4922	
864.42	3289	
864.59	3638.6	
864.76	5428.5	
864.93	4304.8	
865.09	2682.8	
865.26	2881.5	
865.43	5115.1	
865.6	5433.9	
865.77	2430.9	
865.94	2754.5	
866.1	5141.1	
866.27	4860.5	
866.44	3903.4	
866.61	2619.4	
866.78	4542.4	
866.95	4873.5	
867.11	2633.7	
867.28	2480.1	
867.45	5056.4	
867.62	4293.2	
867.79	3028.9	
867.96	2746.3	
868.12	4274.1	
868.29	5001.1	
868.46	2723.8	
868.63	3521.1	
868.8	5003.9	
868.97	4837.3	
869.13	2878.1	
869.3	2796.2	
869.47	4824.3	
869.64	5060.5	
869.81	2730.6	
869.97	2733.4	
870.14	4749.2	
870.31	5205.3	
870.48	2663.7	
870.65	3344.3	
870.81	4577.2	
870.98	4587.4	
871.15	3007.8	
871.32	2768.2	
871.48	4809.3	
871.65	5313.8	
871.82	2655.5	
871.99	2953.9	
872.16	5550.7	
872.32	5175.2	
872.49	2757.9	
872.66	2787.3	
872.83	5014.8	
872.99	4432.5	
873.16	3034.4	
873.33	2737.5	
873.5	4696.7	
873.67	4756.7	
873.83	2863.1	
874	3582.6	
874.17	4796.3	
874.34	5425.1	
874.5	3421.5	
874.67	3300.6	
874.84	5174.5	
875.01	4216.8	
875.17	3755.3	
875.34	2712.9	
875.51	4702.8	
875.68	5601.9	
875.84	3224.9	
876.01	3796.9	
876.18	4908.3	
876.34	4889.9	
876.51	2711.5	
876.68	2697.2	
876.85	4531.5	
877.01	5132.9	
877.18	3737.5	
877.35	2686.9	
877.52	4770.4	
877.68	4289.8	
877.85	2714.2	
878.02	2672.6	
878.18	4570.4	
878.35	4437.9	
878.52	2244.6	
878.69	3174.4	
878.85	5076.2	
879.02	4881	
879.19	3779.9	
879.35	2859	
879.52	4950.6	
879.69	4987.5	
879.86	2462.3	
880.02	3049.4	
880.19	4624.3	
880.36	5469.4	
880.52	3036.5	
880.69	3177.1	
880.86	4954	
881.02	4969.1	
881.19	2966.8	
881.36	2934.7	
881.52	4917.2	
881.69	4411.3	
881.86	2926.5	
882.02	2852.8	
882.19	5077.6	
882.36	5755.5	
882.52	2768.2	
882.69	3737.5	
882.86	4740.4	
883.02	4765.6	
883.19	3259	
883.36	3054.2	
883.52	5014.1	
883.69	5555.5	
883.86	2682.2	
884.02	2534.7	
884.19	4952.7	
884.36	4700.1	
884.52	3056.3	
884.69	2859.6	
884.86	4491.9	
885.02	5304.2	
885.19	3008.5	
885.36	3064.4	
885.52	4619.5	
885.69	4805.9	
885.86	3750.5	
886.02	3421.5	
886.19	4947.9	
886.35	4502.8	
886.52	2951.8	
886.69	3672	
886.85	4326	
887.02	5214.1	
887.19	5214.1	
887.35	5214.1	
887.52	5214.1	
887.68	5214.1	
887.85	5214.1	
888.02	5214.1	
888.18	5214.1	
888.35	5214.1	
888.51	5214.1	
888.68	5214.1	
888.85	5214.1	
889.01	5214.1	
889.18	5214.1	
889.35	5214.1	
889.51	5214.1	
889.68	5214.1	
889.84	5214.1	
890.01	5214.1	
890.17	5214.1	
890.34	5214.1	
890.51	5214.1	
890.67	5214.1	
890.84	5214.1	
891	5214.1	
891.17	5214.1	
891.34	5214.1	
891.5	5214.1	
891.67	5214.1	
891.83	5214.1	
892	5214.1	
892.16	5214.1	
892.33	5214.1	
892.5	5214.1	
892.66	5214.1	
892.83	5214.1	
892.99	5214.1	
893.16	5214.1	
893.32	5214.1	
893.49	5214.1	
893.65	5214.1	
893.82	5214.1	
893.99	5214.1	
894.15	5214.1	
894.32	5214.1	
894.48	5214.1	
894.65	5214.1	
894.81	5214.1	
894.98	5214.1	
895.14	5214.1	
895.31	5214.1	
895.47	5214.1	
895.64	5214.1	
895.81	5214.1	
895.97	5214.1	
896.14	5214.1	
896.3	5214.1	
896.47	5214.1	
896.63	5214.1	
896.8	5214.1	
896.96	5214.1	
897.13	5214.1	
897.29	5214.1	
897.46	5214.1	
897.62	5214.1	
897.79	5214.1	
897.95	5214.1	
898.12	5214.1	
898.28	5214.1	
898.45	5214.1	
898.61	5214.1	
898.78	5214.1	
898.94	5214.1	
899.11	5214.1	
899.27	5214.1	
899.44	5214.1	
899.6	5214.1	
899.77	5214.1	
899.93	5214.1	
900.1	5214.1	
900.26	5214.1	
900.43	5214.1	
900.59	5214.1	
900.76	5214.1	
900.92	5214.1	
901.09	5214.1	
901.25	5214.1	
901.42	5214.1	
901.58	5214.1	
901.75	5214.1	
901.91	5214.1	
902.07	5214.1	
902.24	5214.1	
902.4	5214.1	
902.57	5214.1	
902.73	5214.1	
902.9	5214.1	
903.06	5214.1	
903.23	5214.1	
903.39	5214.1	
903.56	5214.1	
903.72	5214.1	
903.88	5214.1	
904.05	5214.1	
904.21	5214.1	
904.38	5214.1	
904.54	5214.1	
904.71	5214.1	
904.87	5214.1	
905.03	5214.1	
905.2	5214.1	
905.36	5214.1	
905.53	5214.1	
905.69	5214.1	
905.86	5214.1	
906.02	5214.1	
906.18	5214.1	
906.35	5214.1	
906.51	5214.1	
906.68	5214.1	
906.84	5214.1	
907.01	5214.1	
907.17	5214.1	
907.33	5214.1	
907.5	5214.1	
907.66	5214.1	
907.83	5214.1	
907.99	5214.1	
908.15	5214.1	
908.32	5214.1	
908.48	5214.1	
908.65	5214.1	
908.81	5214.1	
908.97	5214.1	
909.14	5214.1	
909.3	5214.1	
909.47	5214.1	
909.63	5214.1	
909.79	5214.1	
909.96	5214.1	
910.12	5214.1	
910.28	5214.1	
910.45	5214.1	
910.61	5214.1	
910.78	5214.1	
910.94	5214.1	
911.1	5214.1	
911.27	5214.1	
911.43	5214.1	
911.59	5214.1	
911.76	5214.1	
911.92	5214.1	
912.08	5214.1	
912.25	5214.1	
912.41	5214.1	
912.57	5214.1	
912.74	5214.1	
912.9	5214.1	
913.07	5214.1	
913.23	5214.1	
913.39	5214.1	
913.56	5214.1	
913.72	5214.1	
913.88	5214.1	
914.05	5214.1	
914.21	5214.1	
914.37	5214.1	
914.54	5214.1	
914.7	5214.1	
914.86	5214.1	
915.03	5214.1	
915.19	5214.1	
