Wavelength	Intensities	
nm	a.u.	
179.22	1919.1	
179.44	1917.9	
179.65	1920.3	
179.86	1915.5	
180.08	1948.3	
180.29	5038	
180.51	3581.9	
180.72	5750.7	
180.94	6748.7	
181.15	3340.9	
181.37	3293.1	
181.58	5582.1	
181.79	5887.9	
182.01	3450.1	
182.22	3713.7	
182.44	5842.2	
182.65	4845.5	
182.87	4627.7	
183.08	4055.7	
183.29	6201.2	
183.51	5082.4	
183.72	3782.6	
183.94	5486.5	
184.15	5438	
184.37	5564.3	
184.58	3297.2	
184.79	4560.1	
185.01	5110.4	
185.22	5803.3	
185.44	4802.5	
185.65	4005.1	
185.86	5404.6	
186.08	4989.5	
186.29	3162.7	
186.51	3435.1	
186.72	5149.3	
186.94	6096.8	
187.15	3992.9	
187.36	4098.7	
187.58	7961.8	
187.79	5593	
188.01	4313.7	
188.22	6723.5	
188.43	6778.1	
188.65	5886.5	
188.86	3407.8	
189.08	4108.2	
189.29	5287.2	
189.5	5285.1	
189.72	3781.9	
189.93	3939.6	
190.15	6096.8	
190.36	7266.2	
190.57	4227.7	
190.79	4108.2	
191	6204.7	
191.22	6083.1	
191.43	4182.6	
191.64	3435.1	
191.86	6390.3	
192.07	6133	
192.29	3592.1	
192.5	3842.7	
192.71	6044.2	
192.93	5214.1	
193.14	3852.2	
193.35	3898.6	
193.57	5203.2	
193.78	6126.8	
194	3065.8	
194.21	3751.9	
194.42	5034.6	
194.64	5578	
194.85	4097.3	
195.07	4823.6	
195.28	5558.2	
195.49	4780	
195.71	5112.4	
195.92	3626.3	
196.13	5681.1	
196.35	5879.7	
196.56	5468.1	
196.78	4097.3	
196.99	7271.7	
197.2	6739.2	
197.42	4718.5	
197.63	4229.1	
197.84	4912.4	
198.06	5685.8	
198.27	3818.1	
198.48	5157.5	
198.7	5279	
198.91	5371.1	
199.13	4224.3	
199.34	4199	
199.55	5943.2	
199.77	4757.4	
199.98	3687	
200.19	4194.9	
200.41	5244.8	
200.62	5060.5	
200.83	4363.5	
201.05	4678.2	
201.26	5390.9	
201.47	5139	
201.69	3702	
201.9	3540.3	
202.11	5446.9	
202.33	6563.7	
202.54	3946.4	
202.76	4356	
202.97	5584.1	
203.18	5621.7	
203.4	4422.2	
203.61	4201.1	
203.82	5583.4	
204.04	5184.8	
204.25	4237.2	
204.46	4105.5	
204.68	5494.7	
204.89	5750.7	
205.1	4139.6	
205.32	3534.1	
205.53	5986.2	
205.74	6055.8	
205.96	3028.3	
206.17	4251.6	
206.38	5864.7	
206.6	6034.7	
206.81	4737	
207.02	3865.2	
207.24	5704.3	
207.45	6171.2	
207.66	3924.6	
207.88	3418.1	
208.09	5697.4	
208.3	5539.8	
208.52	3663.8	
208.73	4022.9	
208.94	5498.1	
209.15	6298.9	
209.37	4001	
209.58	4143.7	
209.79	6022.4	
210.01	5332.9	
210.22	3168.2	
210.43	3338.2	
210.65	5532.2	
210.86	5988.9	
211.07	4037.2	
211.29	3635.8	
211.5	5858.6	
211.71	5435.3	
211.93	3609.2	
212.14	3622.2	
212.35	5480.4	
212.56	5670.8	
212.78	4209.3	
212.99	3489.1	
213.2	6528.2	
213.42	5218.9	
213.63	3783.3	
213.84	4061.8	
214.06	4911.7	
214.27	4978.6	
214.48	3945.8	
214.69	4203.8	
214.91	6184.9	
215.12	6320	
215.33	4311.7	
215.55	4762.9	
215.76	6862.1	
215.97	5920.7	
216.18	4179.2	
216.4	4070	
216.61	5178.6	
216.82	6058.6	
217.04	3652.2	
217.25	3801	
217.46	6247	
217.67	5912.5	
217.89	3292.5	
218.1	3383.2	
218.31	5606.7	
218.53	5711.8	
218.74	3788.1	
218.95	3731.4	
219.16	5397.1	
219.38	6500.9	
219.59	3743.7	
219.8	4543.1	
220.01	7126.2	
220.23	5584.8	
220.44	4944.5	
220.65	3591.5	
220.87	5565.7	
221.08	6210.8	
221.29	3337.5	
221.5	4538.3	
221.72	7675.8	
221.93	5205.3	
222.14	4259.8	
222.35	4922	
222.57	5551.4	
222.78	5948	
222.99	3997	
223.2	4278.2	
223.42	5879.7	
223.63	5985.5	
223.84	3028.9	
224.05	3044	
224.27	7126.2	
224.48	6474.3	
224.69	4949.9	
224.9	4169	
225.12	5649	
225.33	5474.2	
225.54	3397.6	
225.75	3704.8	
225.97	5058.5	
226.18	5389.6	
226.39	4040.6	
226.6	3708.2	
226.82	5287.9	
227.03	5132.2	
227.24	4209.9	
227.45	3424.9	
227.67	5883.8	
227.88	6525.5	
228.09	4735.6	
228.3	4687.1	
228.52	5971.2	
228.73	5424.4	
228.94	3917.8	
229.15	3455.6	
229.36	5423.7	
229.58	5373.9	
229.79	3912.3	
230	4586.8	
230.21	6623.1	
230.43	5639.4	
230.64	4159.4	
230.85	4345.8	
231.06	5972.6	
231.28	5987.6	
231.49	3461.1	
231.7	4097.3	
231.91	5765.7	
232.12	5533.6	
232.34	3557.3	
232.55	3982.6	
232.76	6221	
232.97	5685.8	
233.18	3670.6	
233.4	4209.3	
233.61	5777.3	
233.82	5216.9	
234.03	3855	
234.25	3801	
234.46	7677.2	
234.67	5444.9	
234.88	4248.9	
235.09	3671.3	
235.31	5900.9	
235.52	5412.8	
235.73	4129.4	
235.94	3510.2	
236.15	5224.4	
236.37	6707.8	
236.58	3672	
236.79	3994.2	
237	5853.1	
237.21	5027.8	
237.43	4319.8	
237.64	3364.8	
237.85	10141	
238.06	5071.5	
238.27	4433.9	
238.48	3471.3	
238.7	5850.4	
238.91	5351.3	
239.12	3975.8	
239.33	4013.3	
239.54	5103.5	
239.76	5437.4	
239.97	3921.2	
240.18	3963.5	
240.39	6987	
240.6	5799.8	
240.82	4158.1	
241.03	3436.5	
241.24	5496.7	
241.45	6351.4	
241.66	3631	
241.87	4332.1	
242.09	6205.3	
242.3	6690	
242.51	4400.4	
242.72	4085	
242.93	5959.6	
243.14	5477	
243.36	4656.4	
243.57	5012.1	
243.78	6430.6	
243.99	5814.9	
244.2	3992.9	
244.41	3652.9	
244.63	5100.1	
244.84	5880.4	
245.05	4286.4	
245.26	3962.8	
245.47	5818.3	
245.68	6125.5	
245.9	5345.9	
246.11	4209.9	
246.32	5391.6	
246.53	5727.5	
246.74	6500.9	
246.95	3362.8	
247.16	4984.8	
247.38	5526.8	
247.59	3330	
247.8	4032.5	
248.01	5150.6	
248.22	5446.9	
248.43	3614	
248.64	3902.7	
248.86	4864.6	
249.07	5346.6	
249.28	3559.4	
249.49	4091.2	
249.7	6105	
249.91	6206	
250.12	3302	
250.34	3368.2	
250.55	5603.9	
250.76	5541.1	
250.97	4162.2	
251.18	4182.6	
251.39	6245.6	
251.6	5768.4	
251.81	4316.4	
252.03	4269.3	
252.24	5214.8	
252.45	6041.5	
252.66	3507.5	
252.87	4449.6	
253.08	5543.9	
253.29	7416.4	
253.5	3495.2	
253.72	4892.6	
253.93	5351.3	
254.14	6568.5	
254.35	3831.7	
254.56	3971	
254.77	5828.5	
254.98	5114.5	
255.19	3752.6	
255.41	4889.2	
255.62	5580	
255.83	6174.6	
256.04	4295.3	
256.25	4196.3	
256.46	6817	
256.67	5216.2	
256.88	4125.3	
257.09	4711.7	
257.31	5169.8	
257.52	5207.3	
257.73	5238	
257.94	3769.6	
258.15	5317.2	
258.36	5515.2	
258.57	4827.7	
258.78	3013.2	
258.99	6079.7	
259.2	5328.8	
259.41	3836.5	
259.63	3917.1	
259.84	6343.9	
260.05	6938.5	
260.26	5091.3	
260.47	3709.6	
260.68	6109.8	
260.89	5445.5	
261.1	4631.1	
261.31	3670	
261.52	6120.7	
261.73	6489.3	
261.95	4949.9	
262.16	4347.2	
262.37	6292.7	
262.58	6343.2	
262.79	4947.2	
263	3900	
263.21	5453.1	
263.42	5061.2	
263.63	3967.6	
263.84	3889.1	
264.05	6158.9	
264.26	6546.7	
264.47	4807.3	
264.69	4317.1	
264.9	6271.6	
265.11	5731.6	
265.32	3733.4	
265.53	3837.2	
265.74	5616.9	
265.95	4983.4	
266.16	4070	
266.37	4592.9	
266.58	5659.2	
266.79	5326.8	
267	3824.2	
267.21	3541.6	
267.42	5113.8	
267.63	5496.1	
267.84	4055.7	
268.06	3429.7	
268.27	5983.5	
268.48	6292.7	
268.69	3969.6	
268.9	4670.1	
269.11	6249.7	
269.32	5033.9	
269.53	4037.9	
269.74	3685	
269.95	5940.5	
270.16	4870.8	
270.37	4057	
270.58	4643.4	
270.79	5347.2	
271	6087.9	
271.21	4360.1	
271.42	4057.7	
271.63	5687.9	
271.84	5143.8	
272.05	3201	
272.26	3612.6	
272.47	5548.6	
272.68	5772.5	
272.89	3870.7	
273.11	4530.8	
273.32	5330.9	
273.53	6531.7	
273.74	4418.2	
273.95	4179.9	
274.16	6150.1	
274.37	5610.1	
274.58	4341	
274.79	3514.3	
275	5758.9	
275.21	6270.9	
275.42	5302.9	
275.63	4553.3	
275.84	5773.2	
276.05	7323.5	
276.26	4192.2	
276.47	3955.3	
276.68	5345.2	
276.89	6559	
277.1	4558.1	
277.31	3528	
277.52	5866.1	
277.73	5993.7	
277.94	3472.7	
278.15	3861.1	
278.36	5762.3	
278.57	5183.4	
278.78	3870.7	
278.99	4328	
279.2	5109.7	
279.41	5090.6	
279.62	5109.7	
279.83	3569.6	
280.04	6774	
280.25	5023.7	
280.46	5093.3	
280.67	3972.4	
280.88	5123.3	
281.09	6193.7	
281.3	4191.5	
281.51	5359.5	
281.72	5255.8	
281.93	6042.2	
282.14	3747.1	
282.35	4093.2	
282.56	6040.8	
282.77	5986.2	
282.98	3886.4	
283.19	4740.4	
283.4	7480.5	
283.61	5470.8	
283.82	3549.1	
284.03	4999.1	
284.24	5714.5	
284.45	6223.8	
284.66	4999.1	
284.87	4825.7	
285.08	6143.9	
285.29	6344.6	
285.5	3433.8	
285.71	3921.9	
285.92	6232.7	
286.12	6922.8	
286.33	4924	
286.54	3855	
286.75	6101.6	
286.96	5400.5	
287.17	3611.3	
287.38	4860.5	
287.59	5205.3	
287.8	5100.1	
288.01	4021.5	
288.22	4539.7	
288.43	6140.5	
288.64	4980	
288.85	4676.9	
289.06	4466.6	
289.27	6024.4	
289.48	6576	
289.69	4970.4	
289.9	4508.3	
290.11	6219	
290.32	5175.9	
290.53	4801.8	
290.74	4358.1	
290.94	5933.6	
291.15	6142.5	
291.36	3796.9	
291.57	4485.1	
291.78	5264	
291.99	4952	
292.2	3567.6	
292.41	4400.4	
292.62	6123.4	
292.83	5911.8	
293.04	5392.3	
293.25	3649.5	
293.46	5355.4	
293.67	6199.2	
293.88	3762.1	
294.09	3611.9	
294.29	5048.2	
294.5	5638.1	
294.71	4006.5	
294.92	3831.1	
295.13	5287.2	
295.34	6702.3	
295.55	3411.2	
295.76	3492.5	
295.97	5978	
296.18	6761	
296.39	3523.9	
296.6	3756	
296.81	5661.3	
297.01	5975.3	
297.22	3951.2	
297.43	3775.1	
297.64	5147.9	
297.85	5155.4	
298.06	3157.3	
298.27	3361.4	
298.48	5664.7	
298.69	5256.5	
298.9	4101.4	
299.11	3710.2	
299.31	5025	
299.52	5059.8	
299.73	4388.1	
299.94	4294.6	
300.15	5494.7	
300.36	5113.1	
300.57	4374.5	
300.78	4233.2	
300.99	5442.1	
301.2	5743.9	
301.4	3738.2	
301.61	4103.4	
301.82	5838.8	
302.03	6036.7	
302.24	4582	
302.45	3571.7	
302.66	5894.7	
302.87	6284.5	
303.08	3803.8	
303.29	5202.5	
303.49	5257.8	
303.7	5585.5	
303.91	3324.5	
304.12	4953.4	
304.33	5109	
304.54	5674.9	
304.75	3811.3	
304.96	3629.7	
305.16	5888.6	
305.37	6694.8	
305.58	3246.7	
305.79	3443.3	
306	5934.3	
306.21	4941.7	
306.42	3818.8	
306.63	5707	
306.83	5445.5	
307.04	6239.5	
307.25	4153.3	
307.46	4158.1	
307.67	4738.3	
307.88	6036	
308.09	3743	
308.29	3907.5	
308.5	5666.7	
308.71	6182.1	
308.92	4092.5	
309.13	3620.8	
309.34	5358.2	
309.55	5466	
309.75	4670.7	
309.96	4304.8	
310.17	6009.4	
310.38	5192.3	
310.59	4566.3	
310.8	4227	
311.01	6696.9	
311.21	5455.1	
311.42	3568.2	
311.63	3663.1	
311.84	5294.7	
312.05	5719.3	
312.26	4208.6	
312.46	4616.1	
312.67	5356.8	
312.88	5105.6	
313.09	3699.3	
313.3	3549.1	
313.51	6387.6	
313.71	6752.8	
313.92	3622.2	
314.13	3827	
314.34	5748.6	
314.55	5422.3	
314.76	4693.9	
314.96	4024.3	
315.17	5681.7	
315.38	6011.5	
315.59	3629	
315.8	3461.7	
316.01	6442.9	
316.21	6498.9	
316.42	3545.7	
316.63	4055.7	
316.84	5351.3	
317.05	6280.4	
317.26	4335.5	
317.46	3845.4	
317.67	5515.9	
317.88	5997.1	
318.09	4691.9	
318.3	3388.7	
318.5	5211.4	
318.71	5896.8	
318.92	6036.7	
319.13	4273.4	
319.34	6050.4	
319.54	6281.8	
319.75	3409.2	
319.96	3269.9	
320.17	5943.9	
320.38	6186.2	
320.58	3377.1	
320.79	4009.2	
321	6115.9	
321.21	6242.9	
321.42	4037.9	
321.62	3334.8	
321.83	5160.2	
322.04	5618.9	
322.25	3883.6	
322.46	3679.5	
322.66	5648.3	
322.87	5812.8	
323.08	4578.6	
323.29	3599	
323.5	6666.1	
323.7	5079	
323.91	5001.1	
324.12	4454.3	
324.33	5620.3	
324.53	5893.4	
324.74	4290.5	
324.95	4508.9	
325.16	4903.5	
325.37	5417.6	
325.57	3670	
325.78	3736.9	
325.99	5656.5	
326.2	5031.2	
326.4	5178.6	
326.61	3416.7	
326.82	5453.1	
327.03	5620.3	
327.24	5206.6	
327.44	4996.4	
327.65	5777.3	
327.86	4712.4	
328.07	4326.7	
328.27	3561.4	
328.48	6270.9	
328.69	5156.1	
328.9	5277.6	
329.1	3801	
329.31	5449.6	
329.52	6451.8	
329.73	3624.9	
329.93	4163.5	
330.14	5582.1	
330.35	5868.8	
330.56	6058.6	
330.76	4558.1	
330.97	5359.5	
331.18	5819.6	
331.39	4098.7	
331.59	3323.9	
331.8	6158.2	
332.01	6310.5	
332.22	3738.9	
332.42	4344.4	
332.63	5659.2	
332.84	5211.4	
333.05	4102.1	
333.25	3736.2	
333.46	5338.4	
333.67	5584.8	
333.88	3872.7	
334.08	4300.1	
334.29	7484	
334.5	6289.3	
334.7	3579.2	
334.91	5201.8	
335.12	5068	
335.33	6026.5	
335.53	4018.8	
335.74	6090	
335.95	5341.8	
336.16	5203.2	
336.36	4029.7	
336.57	4715.8	
336.78	5039.4	
336.98	6161.7	
337.19	5060.5	
337.4	4033.8	
337.61	6735.1	
337.81	5035.3	
338.02	3766.2	
338.23	4820.2	
338.43	6374	
338.64	5220.3	
338.85	3703.4	
339.05	4825.7	
339.26	6408.1	
339.47	4978.6	
339.68	3637.9	
339.88	5488.6	
340.09	5836	
340.3	6035.4	
340.5	4272.7	
340.71	3245.3	
340.92	5027.1	
341.13	6393.1	
341.33	3595.6	
341.54	4388.8	
341.75	5832.6	
341.95	5408	
342.16	4126	
342.37	4513.7	
342.57	5142.4	
342.78	5515.9	
342.99	4574.5	
343.19	3289	
343.4	6008.7	
343.61	5814.9	
343.81	3926.6	
344.02	3603.7	
344.23	6009.4	
344.43	6503	
344.64	4614.8	
344.85	4493.9	
345.06	5865.4	
345.26	6287.9	
345.47	4255	
345.68	5020.3	
345.88	4924	
346.09	6072.2	
346.3	4339.6	
346.5	3246.7	
346.71	5575.9	
346.92	5264.6	
347.12	3374.4	
347.33	4263.2	
347.54	6146	
347.74	6627.9	
347.95	4311	
348.16	3179.1	
348.36	5390.9	
348.57	5161.6	
348.78	4191.5	
348.98	4590.2	
349.19	5531.6	
349.39	5029.1	
349.6	3382.6	
349.81	3778.5	
350.01	5896.8	
350.22	5365.7	
350.43	4085	
350.63	4911.7	
350.84	5662	
351.05	5446.9	
351.25	3781.2	
351.46	3403	
351.67	6150.1	
351.87	5335	
352.08	3960.8	
352.29	4552.6	
352.49	6113.9	
352.7	6115.2	
352.9	3651.5	
353.11	4521.9	
353.32	6798.6	
353.52	5450.3	
353.73	3616	
353.94	4594.3	
354.14	5935	
354.35	5756.8	
354.55	3779.2	
354.76	4157.4	
354.97	5913.2	
355.17	5707	
355.38	3540.9	
355.59	4887.8	
355.79	5365	
356	5799.2	
356.2	4175.1	
356.41	3667.9	
356.62	5087.8	
356.82	5615.5	
357.03	4461.2	
357.24	4085.7	
357.44	5386.2	
357.65	5552.7	
357.85	5473.5	
358.06	4274.8	
358.27	5163.6	
358.47	5446.2	
358.68	3641.3	
358.88	4557.4	
359.09	6027.9	
359.3	6442.2	
359.5	5268.1	
359.71	4733.5	
359.91	6979.5	
360.12	6287.9	
360.33	4483	
360.53	5066	
360.74	5572.5	
360.94	5573.2	
361.15	4842.8	
361.36	4003.1	
361.56	6411.5	
361.77	5812.8	
361.97	5397.8	
362.18	4257	
362.38	6470.9	
362.59	5539.8	
362.8	4072.7	
363	3847.5	
363.21	5327.4	
363.41	5995.8	
363.62	4612.7	
363.83	5761.6	
364.03	6096.1	
364.24	7208.8	
364.44	5844.2	
364.65	5813.5	
364.85	5925.5	
365.06	5554.8	
365.27	4322.6	
365.47	4395.6	
365.68	6925.5	
365.88	5919.3	
366.09	4729.4	
366.29	4479.6	
366.5	6267.5	
366.71	6762.4	
366.91	5842.2	
367.12	4967.7	
367.32	7294.9	
367.53	6591.7	
367.73	4980	
367.94	5944.6	
368.14	6595.8	
368.35	7537.2	
368.56	4922.6	
368.76	4379.2	
368.97	6673	
369.17	8527.7	
369.38	4409.3	
369.58	4723.3	
369.79	5741.1	
369.99	7062.1	
370.2	5754.8	
370.4	4889.9	
370.61	6410.1	
370.82	7582.3	
371.02	4701.5	
371.23	4097.3	
371.43	5661.3	
371.64	7092.8	
371.84	4917.9	
372.05	6208.8	
372.25	8492.9	
372.46	6910.5	
372.66	4967	
372.87	4969.1	
373.07	7031.4	
373.28	8678.6	
373.48	6067.4	
373.69	5831.9	
373.9	6525.5	
374.1	6548.7	
374.31	6206.7	
374.51	5580	
374.72	7497.6	
374.92	6285.2	
375.13	6356.9	
375.33	5565	
375.54	7200	
375.74	6585.6	
375.95	5733.6	
376.15	7034.8	
376.36	7248.4	
376.56	7083.9	
376.77	5866.7	
376.97	6330.3	
377.18	8522.3	
377.38	7490.8	
377.59	6800.6	
377.79	5532.2	
378	7359	
378.2	7837.6	
378.41	5650.3	
378.61	5595.7	
378.82	7864.2	
379.02	7191.1	
379.23	5930.2	
379.43	7066.2	
379.64	7989.1	
379.84	7711.3	
380.05	5689.9	
380.25	5619.6	
380.46	7733.8	
380.66	7286	
380.87	7048.4	
381.07	7449.8	
381.28	8398	
381.48	7794.6	
381.69	5689.9	
381.89	5746.6	
382.1	6549.4	
382.3	7892.9	
382.51	6728.3	
382.71	7798	
382.91	7613.7	
383.12	8211.7	
383.32	5969.1	
383.53	6199.9	
383.73	7430	
383.94	7257.3	
384.14	6100.2	
384.35	5156.8	
384.55	7131.7	
384.76	7635.5	
384.96	5942.5	
385.17	6210.8	
385.37	7488.1	
385.58	6761.7	
385.78	6226.5	
385.98	5012.1	
386.19	6963.1	
386.39	7386.3	
386.6	5641.5	
386.8	5967.8	
387.01	7570.7	
387.21	7585.7	
387.42	6354.8	
387.62	7068.9	
387.83	6895.5	
388.03	7649.2	
388.23	6165.1	
388.44	6960.4	
388.64	6662	
388.85	6977.4	
389.05	6604.7	
389.26	7266.9	
389.46	8909.3	
389.67	8336.6	
389.87	6656.6	
390.07	6726.2	
390.28	7589.1	
390.48	7076.4	
390.69	5993.7	
390.89	6188.3	
391.1	7329.7	
391.3	8258.1	
391.5	7447.1	
391.71	8103.8	
391.91	8047.8	
392.12	9185.8	
392.32	7621.9	
392.53	6640.2	
392.73	7385	
392.93	7656	
393.14	6376.7	
393.34	7323.5	
393.55	8058.1	
393.75	7443	
393.95	6225.1	
394.16	6081.1	
394.36	7191.8	
394.57	7807.5	
394.77	5785.5	
394.98	6118	
395.18	7334.5	
395.38	7493.5	
395.59	7317.4	
395.79	6227.2	
396	7666.9	
396.2	8178.2	
396.4	7305.1	
396.61	7318.1	
396.81	8509.3	
397.02	7861.5	
397.22	7765.2	
397.42	7748.8	
397.63	8687.5	
397.83	7879.9	
398.04	6508.4	
398.24	7255.3	
398.44	8353.7	
398.65	7558.4	
398.85	6443.6	
399.05	6661.4	
399.26	7960.5	
399.46	9848.7	
399.67	7161.7	
399.87	6913.9	
400.07	8430.8	
400.28	8928.5	
400.48	6990.4	
400.69	8349.6	
400.89	9299.1	
401.09	9669.8	
401.3	7122.2	
401.5	8289.5	
401.7	10129	
401.91	10430	
402.11	7545.4	
402.32	7742	
402.52	9394.7	
402.72	9174.2	
402.93	7907.2	
403.13	6510.5	
403.33	9840.5	
403.54	8187.1	
403.74	7178.8	
403.94	8073.8	
404.15	8256.7	
404.35	9514.2	
404.56	6838.2	
404.76	8791.9	
404.96	8880.7	
405.17	8561.2	
405.37	8070.4	
405.57	7716.1	
405.78	9177.6	
405.98	8517.5	
406.18	7289.4	
406.39	8346.8	
406.59	9145.5	
406.79	8654	
407	6916	
407.2	7101	
407.4	9118.9	
407.61	9326.4	
407.81	7182.9	
408.01	9462.3	
408.22	8305.9	
408.42	10594	
408.62	8860.2	
408.83	8430.1	
409.03	9585.2	
409.23	9524.4	
409.44	8911.4	
409.64	9327.1	
409.84	11110	
410.05	11081	
410.25	9409.7	
410.45	9124.4	
410.66	10961	
410.86	13371	
411.06	10181	
411.27	9798.2	
411.47	13562	
411.67	11317	
411.88	10238	
412.08	10828	
412.28	12172	
412.49	12729	
412.69	10327	
412.89	10512	
413.09	12581	
413.3	12654	
413.5	10648	
413.7	10232	
413.91	11681	
414.11	12709	
414.31	10567	
414.52	11260	
414.72	12469	
414.92	12652	
415.12	10531	
415.33	11326	
415.53	12990	
415.73	13205	
415.94	11607	
416.14	10988	
416.34	12060	
416.55	11750	
416.75	12329	
416.95	11919	
417.15	13219	
417.36	13773	
417.56	12837	
417.76	11889	
417.97	13749	
418.17	13467	
418.37	11424	
418.57	11561	
418.78	13162	
418.98	12765	
419.18	12527	
419.38	12319	
419.59	12822	
419.79	12191	
419.99	11278	
420.2	11657	
420.4	13267	
420.6	13299	
420.8	11271	
421.01	10929	
421.21	13190	
421.41	13248	
421.61	11591	
421.82	11202	
422.02	12679	
422.22	13536	
422.42	12226	
422.63	11329	
422.83	12826	
423.03	14046	
423.23	11592	
423.44	10659	
423.64	12770	
423.84	12148	
424.04	10968	
424.25	10525	
424.45	13467	
424.65	13325	
424.85	10267	
425.06	10953	
425.26	13455	
425.46	11787	
425.66	11313	
425.87	11047	
426.07	13007	
426.27	12858	
426.47	11165	
426.67	10324	
426.88	13210	
427.08	12746	
427.28	11518	
427.48	10234	
427.69	11477	
427.89	12185	
428.09	11419	
428.29	10394	
428.5	12993	
428.7	12473	
428.9	10351	
429.1	10830	
429.3	12392	
429.51	13031	
429.71	10548	
429.91	11588	
430.11	12835	
430.31	13305	
430.52	11112	
430.72	11586	
430.92	13644	
431.12	13042	
431.32	10955	
431.53	11095	
431.73	11975	
431.93	13670	
432.13	10679	
432.33	10799	
432.54	12469	
432.74	12909	
432.94	10826	
433.14	11878	
433.34	12936	
433.55	12876	
433.75	11847	
433.95	14089	
434.15	13013	
434.35	12869	
434.56	11026	
434.76	10872	
434.96	13166	
435.16	13681	
435.36	11097	
435.56	12556	
435.77	13011	
435.97	13194	
436.17	13502	
436.37	12523	
436.57	13171	
436.78	13132	
436.98	14128	
437.18	13178	
437.38	14179	
437.58	13304	
437.78	13239	
437.99	11701	
438.19	13619	
438.39	15174	
438.59	11463	
438.79	10813	
438.99	14134	
439.2	13046	
439.4	10959	
439.6	11041	
439.8	13381	
440	14662	
440.2	12368	
440.4	12583	
440.61	14158	
440.81	15012	
441.01	12007	
441.21	13153	
441.41	15222	
441.61	14531	
441.81	13606	
442.02	14696	
442.22	15500	
442.42	14773	
442.62	12392	
442.82	12237	
443.02	15260	
443.22	14377	
443.43	12944	
443.63	12512	
443.83	13857	
444.03	14136	
444.23	14151	
444.43	13349	
444.63	14719	
444.83	15797	
445.04	12873	
445.24	14184	
445.44	14835	
445.64	15098	
445.84	13222	
446.04	13355	
446.24	13833	
446.44	14967	
446.65	12237	
446.85	12923	
447.05	13888	
447.25	14867	
447.45	12802	
447.65	12064	
447.85	14046	
448.05	13520	
448.25	13399	
448.46	12965	
448.66	14259	
448.86	13719	
449.06	12023	
449.26	13261	
449.46	14674	
449.66	13519	
449.86	13005	
450.06	12809	
450.26	13832	
450.47	14693	
450.67	12854	
450.87	13461	
451.07	14567	
451.27	14576	
451.47	12271	
451.67	13213	
451.87	14312	
452.07	14952	
452.27	12816	
452.47	12576	
452.67	14270	
452.88	14939	
453.08	11864	
453.28	14272	
453.48	15844	
453.68	14205	
453.88	12732	
454.08	12955	
454.28	15084	
454.48	14552	
454.68	13573	
454.88	14038	
455.08	14971	
455.28	15224	
455.48	12448	
455.68	13596	
455.89	16004	
456.09	15635	
456.29	13275	
456.49	13720	
456.69	16105	
456.89	15101	
457.09	14222	
457.29	14756	
457.49	15788	
457.69	16109	
457.89	14470	
458.09	13512	
458.29	15735	
458.49	16580	
458.69	15032	
458.89	14354	
459.09	17144	
459.29	17075	
459.49	14403	
459.69	15421	
459.9	16226	
460.1	16365	
460.3	14235	
460.5	14037	
460.7	16545	
460.9	16299	
461.1	13907	
461.3	15550	
461.5	17583	
461.7	17103	
461.9	14940	
462.1	14985	
462.3	16853	
462.5	17437	
462.7	15077	
462.9	15346	
463.1	18619	
463.3	18677	
463.5	15649	
463.7	17019	
463.9	17602	
464.1	17952	
464.3	16488	
464.5	16333	
464.7	18340	
464.9	18464	
465.1	17984	
465.3	16963	
465.5	18914	
465.7	19081	
465.9	17603	
466.1	16802	
466.3	19125	
466.5	18347	
466.7	18674	
466.9	16942	
467.1	18814	
467.3	19917	
467.5	18710	
467.7	17358	
467.9	20101	
468.1	21184	
468.3	18054	
468.5	18694	
468.7	19344	
468.9	19123	
469.1	17944	
469.3	18702	
469.5	21620	
469.7	19024	
469.9	18119	
470.1	17759	
470.3	19355	
470.5	19402	
470.7	18994	
470.9	17694	
471.1	19209	
471.3	19088	
471.5	17668	
471.69	19552	
471.89	18710	
472.09	18180	
472.29	18464	
472.49	18049	
472.69	18518	
472.89	19378	
473.09	17263	
473.29	17121	
473.49	18652	
473.69	18457	
473.89	18189	
474.09	17196	
474.29	19750	
474.49	19381	
474.69	18065	
474.89	17352	
475.09	18656	
475.29	18593	
475.49	16520	
475.69	17027	
475.88	19916	
476.08	18669	
476.28	16546	
476.48	16822	
476.68	18910	
476.88	18665	
477.08	16367	
477.28	16859	
477.48	17980	
477.68	18527	
477.88	16258	
478.08	16644	
478.28	19218	
478.48	18141	
478.67	16854	
478.87	15837	
479.07	19056	
479.27	18183	
479.47	16817	
479.67	16998	
479.87	19019	
480.07	19424	
480.27	16277	
480.47	17828	
480.67	18241	
480.87	19185	
481.06	16417	
481.26	17528	
481.46	18240	
481.66	18393	
481.86	17004	
482.06	18032	
482.26	18035	
482.46	18834	
482.66	16793	
482.86	16449	
483.05	18478	
483.25	17760	
483.45	19310	
483.65	17054	
483.85	18091	
484.05	18489	
484.25	17322	
484.45	18286	
484.65	19482	
484.84	19624	
485.04	17038	
485.24	17051	
485.44	19805	
485.64	18101	
485.84	16637	
486.04	18133	
486.24	18742	
486.44	19013	
486.63	16678	
486.83	17771	
487.03	18912	
487.23	19178	
487.43	16848	
487.63	19744	
487.83	19222	
488.02	20317	
488.22	18356	
488.42	19168	
488.62	20112	
488.82	19189	
489.02	17705	
489.22	18186	
489.41	20037	
489.61	19976	
489.81	17555	
490.01	17694	
490.21	20088	
490.41	20824	
490.61	17664	
490.8	17684	
491	19785	
491.2	18645	
491.4	18215	
491.6	17290	
491.8	19295	
491.99	19378	
492.19	17066	
492.39	17415	
492.59	19896	
492.79	19889	
492.99	18585	
493.18	17657	
493.38	20215	
493.58	21483	
493.78	18695	
493.98	18198	
494.18	20383	
494.37	20169	
494.57	19611	
494.77	19486	
494.97	21296	
495.17	21962	
495.37	19326	
495.56	19613	
495.76	22074	
495.96	21743	
496.16	20890	
496.36	19917	
496.55	22087	
496.75	21822	
496.95	20278	
497.15	20213	
497.35	21995	
497.54	22247	
497.74	20039	
497.94	21991	
498.14	23018	
498.34	22715	
498.53	19762	
498.73	20713	
498.93	21825	
499.13	22444	
499.33	20908	
499.52	21006	
499.72	22780	
499.92	22689	
500.12	20454	
500.32	20854	
500.51	22870	
500.71	22953	
500.91	21632	
501.11	21184	
501.31	22869	
501.5	23214	
501.7	22022	
501.9	20943	
502.1	22516	
502.29	22818	
502.49	21588	
502.69	21573	
502.89	22705	
503.09	22725	
503.28	19972	
503.48	19962	
503.68	21474	
503.88	21596	
504.07	21043	
504.27	20296	
504.47	22027	
504.67	21760	
504.86	20824	
505.06	20336	
505.26	21314	
505.46	23122	
505.65	20111	
505.85	20127	
506.05	20852	
506.25	21302	
506.44	18867	
506.64	19662	
506.84	20420	
507.04	21404	
507.23	18971	
507.43	19496	
507.63	22311	
507.83	20634	
508.02	19242	
508.22	18890	
508.42	22605	
508.62	20046	
508.81	18834	
509.01	19623	
509.21	19786	
509.4	20084	
509.6	19306	
509.8	18495	
510	19854	
510.19	21809	
510.39	18474	
510.59	18697	
510.79	20153	
510.98	21794	
511.18	18771	
511.38	19080	
511.57	20812	
511.77	20835	
511.97	19405	
512.17	18311	
512.36	20958	
512.56	20616	
512.76	18597	
512.95	18164	
513.15	21022	
513.35	19602	
513.55	19411	
513.74	18563	
513.94	20901	
514.14	20372	
514.33	19624	
514.53	19486	
514.73	20314	
514.92	20521	
515.12	18997	
515.32	18801	
515.51	20677	
515.71	21331	
515.91	20776	
516.11	18983	
516.3	22725	
516.5	20487	
516.7	19497	
516.89	20291	
517.09	20641	
517.29	20646	
517.48	19843	
517.68	19146	
517.88	20360	
518.07	21048	
518.27	19753	
518.47	18742	
518.66	21557	
518.86	20142	
519.06	18535	
519.25	19028	
519.45	20491	
519.65	22061	
519.84	19663	
520.04	20551	
520.24	22472	
520.43	20943	
520.63	19243	
520.83	19045	
521.02	20095	
521.22	20806	
521.42	19336	
521.61	19980	
521.81	20166	
522.01	20494	
522.2	19275	
522.4	18981	
522.6	21154	
522.79	19997	
522.99	19168	
523.18	18843	
523.38	21200	
523.58	21341	
523.77	21267	
523.97	19241	
524.17	23474	
524.36	22686	
524.56	20999	
524.76	20644	
524.95	21896	
525.15	21422	
525.34	20471	
525.54	20583	
525.74	22618	
525.93	21702	
526.13	22152	
526.33	21105	
526.52	23152	
526.72	22833	
526.91	22234	
527.11	21591	
527.31	23208	
527.5	23991	
527.7	21545	
527.89	20650	
528.09	22314	
528.29	23274	
528.48	21967	
528.68	21566	
528.87	23414	
529.07	23220	
529.27	21478	
529.46	21177	
529.66	22950	
529.85	23605	
530.05	20846	
530.25	21771	
530.44	24713	
530.64	22830	
530.83	21393	
531.03	21607	
531.23	23520	
531.42	23241	
531.62	22580	
531.81	21644	
532.01	23928	
532.21	24385	
532.4	21895	
532.6	22609	
532.79	25197	
532.99	24651	
533.18	22866	
533.38	23822	
533.58	24156	
533.77	24974	
533.97	22954	
534.16	23784	
534.36	25336	
534.55	24516	
534.75	23940	
534.95	23156	
535.14	25462	
535.34	24507	
535.53	22670	
535.73	24930	
535.92	25923	
536.12	24419	
536.31	22487	
536.51	24053	
536.71	24634	
536.9	24201	
537.1	22612	
537.29	22939	
537.49	25023	
537.68	24124	
537.88	23231	
538.07	22374	
538.27	24477	
538.46	25720	
538.66	22577	
538.86	22922	
539.05	24513	
539.25	25120	
539.44	23485	
539.64	22643	
539.83	24323	
540.03	25437	
540.22	22605	
540.42	22357	
540.61	24167	
540.81	24494	
541	22816	
541.2	23761	
541.39	23746	
541.59	24199	
541.78	23333	
541.98	22005	
542.18	23237	
542.37	22983	
542.57	22112	
542.76	23057	
542.96	22917	
543.15	23711	
543.35	22038	
543.54	21396	
543.74	23752	
543.93	23227	
544.13	21575	
544.32	22726	
544.52	23066	
544.71	22351	
544.91	20478	
545.1	21897	
545.3	22527	
545.49	23150	
545.69	20346	
545.88	20967	
546.08	24053	
546.27	23418	
546.47	21543	
546.66	20680	
546.86	23324	
547.05	23797	
547.24	20906	
547.44	20759	
547.63	21816	
547.83	23352	
548.02	21233	
548.22	21438	
548.41	21700	
548.61	23009	
548.8	20520	
549	20276	
549.19	21921	
549.39	22619	
549.58	19961	
549.78	20635	
549.97	22463	
550.17	21897	
550.36	21295	
550.55	22431	
550.75	21840	
550.94	22887	
551.14	20128	
551.33	20304	
551.53	21190	
551.72	22320	
551.92	20280	
552.11	20085	
552.31	22175	
552.5	22214	
552.69	21778	
552.89	19603	
553.08	22139	
553.28	21618	
553.47	20236	
553.67	21286	
553.86	22482	
554.06	20874	
554.25	18940	
554.44	19708	
554.64	23244	
554.83	22713	
555.03	19745	
555.22	20040	
555.42	21840	
555.61	21646	
555.8	19534	
556	19956	
556.19	20662	
556.39	22039	
556.58	19937	
556.78	19486	
556.97	21353	
557.16	21211	
557.36	20951	
557.55	19473	
557.75	20208	
557.94	22285	
558.13	19329	
558.33	19197	
558.52	22020	
558.72	20901	
558.91	19144	
559.1	19298	
559.3	20466	
559.49	19990	
559.69	18598	
559.88	19529	
560.07	21183	
560.27	21369	
560.46	19828	
560.66	19806	
560.85	20785	
561.04	19731	
561.24	18848	
561.43	18890	
561.63	20064	
561.82	20308	
562.01	20263	
562.21	19247	
562.4	20646	
562.59	21926	
562.79	19105	
562.98	18821	
563.18	20762	
563.37	22373	
563.56	19615	
563.76	18834	
563.95	20306	
564.14	20375	
564.34	19261	
564.53	19039	
564.73	20788	
564.92	21437	
565.11	19580	
565.31	18888	
565.5	21603	
565.69	20433	
565.89	19056	
566.08	19363	
566.27	21446	
566.47	21944	
566.66	20035	
566.85	18769	
567.05	20984	
567.24	20341	
567.44	18981	
567.63	20351	
567.82	21218	
568.02	20858	
568.21	18918	
568.4	19465	
568.6	20802	
568.79	20889	
568.98	18767	
569.18	19069	
569.37	20949	
569.56	22892	
569.76	19282	
569.95	20390	
570.14	21029	
570.34	21085	
570.53	18520	
570.72	18547	
570.91	21363	
571.11	20323	
571.3	18929	
571.49	19942	
571.69	20390	
571.88	20000	
572.07	19578	
572.27	19379	
572.46	19903	
572.65	21044	
572.85	18722	
573.04	19222	
573.23	21405	
573.43	20626	
573.62	18592	
573.81	19397	
574	20695	
574.2	20673	
574.39	19229	
574.58	19392	
574.78	22004	
574.97	21093	
575.16	19925	
575.36	20157	
575.55	21596	
575.74	21584	
575.93	18890	
576.13	20338	
576.32	20902	
576.51	21678	
576.71	19424	
576.9	20881	
577.09	21880	
577.28	21424	
577.48	19937	
577.67	18811	
577.86	21119	
578.05	21581	
578.25	19669	
578.44	19719	
578.63	20992	
578.83	22547	
579.02	19068	
579.21	20641	
579.4	21398	
579.6	21193	
579.79	19833	
579.98	22225	
580.17	21831	
580.37	22046	
580.56	19170	
580.75	20254	
580.94	22468	
581.14	22228	
581.33	20858	
581.52	19682	
581.71	21878	
581.91	22611	
582.1	19473	
582.29	20044	
582.48	21536	
582.68	21583	
582.87	20557	
583.06	20072	
583.25	21912	
583.45	21926	
583.64	21021	
583.83	21863	
584.02	21265	
584.21	21960	
584.41	20850	
584.6	20228	
584.79	21815	
584.98	22784	
585.18	19653	
585.37	19550	
585.56	21042	
585.75	22151	
585.94	19603	
586.14	20474	
586.33	22309	
586.52	21446	
586.71	19955	
586.91	19631	
587.1	20392	
587.29	21536	
587.48	19066	
587.67	19114	
587.87	21094	
588.06	21074	
588.25	20175	
588.44	19439	
588.63	20168	
588.83	20605	
589.02	18193	
589.21	17751	
589.4	19079	
589.59	18823	
589.78	16245	
589.98	16448	
590.17	17390	
590.36	18048	
590.55	14987	
590.74	15558	
590.94	18834	
591.13	17235	
591.32	15204	
591.51	14768	
591.7	17654	
591.89	17304	
592.09	14995	
592.28	15541	
592.47	16354	
592.66	18603	
592.85	15119	
593.05	15348	
593.24	17162	
593.43	18219	
593.62	15537	
593.81	16329	
594	17451	
594.19	17669	
594.39	15670	
594.58	15681	
594.77	17812	
594.96	18426	
595.15	15487	
595.34	16126	
595.54	17572	
595.73	16688	
595.92	14721	
596.11	15810	
596.3	18071	
596.49	16696	
596.68	15520	
596.88	16253	
597.07	18041	
597.26	16737	
597.45	15245	
597.64	16636	
597.83	17081	
598.02	17989	
598.22	15476	
598.41	16077	
598.6	17667	
598.79	17150	
598.98	15513	
599.17	16493	
599.36	17679	
599.55	18901	
599.74	17783	
599.94	17602	
600.13	18495	
600.32	17181	
600.51	15421	
600.7	15765	
600.89	19083	
601.08	19243	
601.27	15509	
601.47	16591	
601.66	18432	
601.85	19278	
602.04	16408	
602.23	16685	
602.42	17628	
602.61	18254	
602.8	16213	
602.99	15941	
603.18	17918	
603.37	18397	
603.57	16717	
603.76	17146	
603.95	19080	
604.14	18715	
604.33	16331	
604.52	16751	
604.71	18473	
604.9	17933	
605.09	17232	
605.28	17185	
605.47	18868	
605.66	18579	
605.86	16882	
606.05	16248	
606.24	18778	
606.43	17247	
606.62	16597	
606.81	17463	
607	18761	
607.19	17994	
607.38	15862	
607.57	16173	
607.76	17771	
607.95	17032	
608.14	16496	
608.33	17211	
608.52	17590	
608.72	18600	
608.91	15694	
609.1	15569	
609.29	17739	
609.48	17086	
609.67	16409	
609.86	15532	
610.05	17043	
610.24	17438	
610.43	15335	
610.62	15023	
610.81	18589	
611	18510	
611.19	15536	
611.38	16242	
611.57	17686	
611.76	19060	
611.95	15219	
612.14	14915	
612.33	17477	
612.52	16916	
612.71	15780	
612.9	14830	
613.09	16524	
613.28	18977	
613.47	15382	
613.66	16305	
613.85	17371	
614.04	16994	
614.24	15399	
614.43	14683	
614.62	17652	
614.81	17491	
615	16005	
615.19	16052	
615.38	16720	
615.57	17270	
615.76	15963	
615.95	16923	
616.14	17635	
616.33	17358	
616.52	16236	
616.71	16511	
616.9	17630	
617.09	17474	
617.28	15493	
617.47	17091	
617.66	16642	
617.85	16778	
618.04	16836	
618.22	16031	
618.41	17301	
618.6	18328	
618.79	16180	
618.98	15967	
619.17	18607	
619.36	16928	
619.55	16145	
619.74	16141	
619.93	18001	
620.12	17428	
620.31	16804	
620.5	17082	
620.69	18716	
620.88	19117	
621.07	17674	
621.26	16769	
621.45	18328	
621.64	18384	
621.83	16912	
622.02	16008	
622.21	18280	
622.4	18234	
622.59	17552	
622.78	17177	
622.97	17636	
623.16	18840	
623.35	16774	
623.54	15967	
623.72	17834	
623.91	18183	
624.1	17176	
624.29	15667	
624.48	19217	
624.67	18242	
624.86	17025	
625.05	15923	
625.24	19271	
625.43	17562	
625.62	18877	
625.81	16127	
626	18439	
626.19	17886	
626.38	17034	
626.56	16201	
626.75	17505	
626.94	18475	
627.13	16667	
627.32	15352	
627.51	18045	
627.7	19339	
627.89	15012	
628.08	16559	
628.27	16804	
628.46	17212	
628.65	15358	
628.83	15173	
629.02	17722	
629.21	16993	
629.4	15976	
629.59	16200	
629.78	17090	
629.97	18099	
630.16	16350	
630.35	15716	
630.54	18527	
630.72	18058	
630.91	15768	
631.1	16356	
631.29	17724	
631.48	17918	
631.67	16404	
631.86	15832	
632.05	17350	
632.24	17419	
632.42	15375	
632.61	16106	
632.8	17312	
632.99	17033	
633.18	16219	
633.37	16427	
633.56	17643	
633.75	17559	
633.93	16313	
634.12	15836	
634.31	18621	
634.5	18336	
634.69	15970	
634.88	16309	
635.07	17517	
635.25	18136	
635.44	16860	
635.63	17148	
635.82	17294	
636.01	16754	
636.2	16735	
636.39	16266	
636.57	18432	
636.76	18015	
636.95	15636	
637.14	16992	
637.33	17689	
637.52	18669	
637.7	15387	
637.89	16437	
638.08	17345	
638.27	18800	
638.46	16391	
638.65	16777	
638.83	18469	
639.02	17043	
639.21	16182	
639.4	16655	
639.59	17522	
639.78	17008	
639.96	15305	
640.15	15409	
640.34	17073	
640.53	17354	
640.72	14939	
640.91	15285	
641.09	16387	
641.28	17734	
641.47	15197	
641.66	16136	
641.85	17030	
642.03	17301	
642.22	15752	
642.41	15078	
642.6	16378	
642.79	15740	
642.97	14639	
643.16	15450	
643.35	16238	
643.54	15940	
643.73	14445	
643.91	15345	
644.1	15392	
644.29	16250	
644.48	14259	
644.67	14293	
644.85	15403	
645.04	15655	
645.23	13745	
645.42	13735	
645.6	14840	
645.79	15961	
645.98	13250	
646.17	12262	
646.36	13913	
646.54	14603	
646.73	13676	
646.92	12369	
647.11	13937	
647.29	15047	
647.48	12405	
647.67	12034	
647.86	15177	
648.05	15470	
648.23	12714	
648.42	14121	
648.61	14708	
648.8	14464	
648.98	12418	
649.17	12871	
649.36	14106	
649.55	13614	
649.73	12525	
649.92	13409	
650.11	14013	
650.3	14414	
650.48	12673	
650.67	12290	
650.86	14562	
651.05	13423	
651.23	12532	
651.42	12370	
651.61	13835	
651.79	13922	
651.98	12757	
652.17	12306	
652.36	14304	
652.54	13414	
652.73	12304	
652.92	12147	
653.11	14402	
653.29	14369	
653.48	11437	
653.67	12541	
653.85	14018	
654.04	15017	
654.23	12509	
654.42	12003	
654.6	13080	
654.79	13699	
654.98	11123	
655.16	11761	
655.35	12375	
655.54	12329	
655.73	11147	
655.91	10938	
656.1	13617	
656.29	12454	
656.47	10639	
656.66	12568	
656.85	13013	
657.03	12908	
657.22	11455	
657.41	11602	
657.59	13188	
657.78	13165	
657.97	11413	
658.16	12288	
658.34	14048	
658.53	14455	
658.72	13212	
658.9	13790	
659.09	13489	
659.28	13652	
659.46	12078	
659.65	11857	
659.84	13321	
660.02	13822	
660.21	11797	
660.4	11865	
660.58	14414	
660.77	13766	
660.96	12540	
661.14	11512	
661.33	14913	
661.52	14756	
661.7	11458	
661.89	15455	
662.08	13250	
662.26	12735	
662.45	11673	
662.64	11878	
662.82	13926	
663.01	13058	
663.2	11835	
663.38	12572	
663.57	13738	
663.75	13676	
663.94	12166	
664.13	13534	
664.31	13170	
664.5	13899	
664.69	12214	
664.87	12873	
665.06	12898	
665.25	13770	
665.43	13258	
665.62	13235	
665.8	13949	
665.99	13227	
666.18	11938	
666.36	12271	
666.55	13802	
666.74	13878	
666.92	11636	
667.11	13254	
667.29	13224	
667.48	13844	
667.67	12733	
667.85	11845	
668.04	13197	
668.22	13237	
668.41	12020	
668.6	12194	
668.78	12869	
668.97	13181	
669.15	12375	
669.34	11241	
669.53	12922	
669.71	13388	
669.9	11367	
670.08	12104	
670.27	12850	
670.46	13409	
670.64	12375	
670.83	12600	
671.01	12719	
671.2	13293	
671.38	11524	
671.57	11377	
671.76	13979	
671.94	14711	
672.13	11314	
672.31	12372	
672.5	13551	
672.69	12837	
672.87	11315	
673.06	11794	
673.24	13411	
673.43	12942	
673.61	12145	
673.8	11753	
673.98	13516	
674.17	13700	
674.36	12391	
674.54	12162	
674.73	13231	
674.91	13517	
675.1	11949	
675.28	11328	
675.47	13000	
675.65	13536	
675.84	11747	
676.03	11982	
676.21	12792	
676.4	12200	
676.58	12570	
676.77	12208	
676.95	14343	
677.14	12643	
677.32	11202	
677.51	11096	
677.69	13414	
677.88	12374	
678.06	11217	
678.25	11284	
678.44	13071	
678.62	12763	
678.81	10832	
678.99	11987	
679.18	13695	
679.36	13349	
679.55	11452	
679.73	12239	
679.92	13245	
680.1	12623	
680.29	12785	
680.47	11366	
680.66	12510	
680.84	13444	
681.03	10673	
681.21	11908	
681.4	12643	
681.58	12486	
681.77	11256	
681.95	11057	
682.14	13334	
682.32	13710	
682.51	12151	
682.69	10778	
682.88	12321	
683.06	12953	
683.25	11721	
683.43	12042	
683.62	12686	
683.8	13028	
683.99	12083	
684.17	11365	
684.36	13761	
684.54	12063	
684.73	9934	
684.91	10006	
685.1	11938	
685.28	11137	
685.46	10163	
685.65	10187	
685.83	11886	
686.02	11021	
686.2	9567.4	
686.39	9749.7	
686.57	10850	
686.76	12620	
686.94	9689.6	
687.13	9936.1	
687.31	11811	
687.5	11406	
687.68	9405	
687.86	10825	
688.05	13062	
688.23	10866	
688.42	10867	
688.6	10148	
688.79	11504	
688.97	11324	
689.16	10477	
689.34	9262.3	
689.52	12177	
689.71	12398	
689.89	10741	
690.08	10008	
690.26	11596	
690.45	11398	
690.63	10707	
690.81	9962.7	
691	10952	
691.18	10907	
691.37	9839.1	
691.55	12111	
691.74	10707	
691.92	12867	
692.1	9779.1	
692.29	9058.2	
692.47	10949	
692.66	10229	
692.84	9479.4	
693.02	10031	
693.21	10494	
693.39	10976	
693.58	10312	
693.76	9704	
693.94	12575	
694.13	12376	
694.31	10042	
694.5	11175	
694.68	11286	
694.86	11814	
695.05	10670	
695.23	11082	
695.42	12336	
695.6	14840	
695.78	11372	
695.97	10411	
696.15	12213	
696.34	11492	
696.52	9883.5	
696.7	10682	
696.89	11715	
697.07	11058	
697.25	10402	
697.44	12108	
697.62	11445	
697.81	11861	
697.99	9941.5	
698.17	10527	
698.36	10675	
698.54	11458	
698.72	10253	
698.91	9228.1	
699.09	10987	
699.28	10764	
699.46	9922.4	
699.64	9723.8	
699.83	10735	
700.01	12000	
700.19	10652	
700.38	8976.9	
700.56	12181	
700.74	11019	
700.93	9600.2	
701.11	10524	
701.29	11732	
701.48	12856	
701.66	9891	
701.84	10103	
702.03	11398	
702.21	12135	
702.39	9650	
702.58	10297	
702.76	11823	
702.94	11990	
703.13	9525.8	
703.31	12228	
703.49	11087	
703.68	12252	
703.86	9772.2	
704.04	10832	
704.23	11613	
704.41	12005	
704.59	9856.2	
704.78	11146	
704.96	12767	
705.14	12116	
705.33	9779.7	
705.51	10570	
705.69	11593	
705.87	12293	
706.06	10923	
706.24	9771.5	
706.42	11885	
706.61	12290	
706.79	10971	
706.97	9837.1	
707.16	11243	
707.34	11938	
707.52	10934	
707.7	10120	
707.89	11537	
708.07	11160	
708.25	11002	
708.44	11213	
708.62	11301	
708.8	12533	
708.98	11256	
709.17	10160	
709.35	11841	
709.53	11785	
709.72	9903.3	
709.9	10300	
710.08	11964	
710.26	12069	
710.45	11468	
710.63	10098	
710.81	11643	
710.99	11597	
711.18	10599	
711.36	10111	
711.54	11207	
711.72	11943	
711.91	9917.6	
712.09	9337.4	
712.27	11136	
712.45	11738	
712.64	10028	
712.82	8746.2	
713	10262	
713.18	10346	
713.37	8619.2	
713.55	9729.2	
713.73	10899	
713.91	9124.4	
714.1	8355.7	
714.28	7594.6	
714.46	9770.2	
714.64	8700.5	
714.83	6534.4	
715.01	7352.2	
715.19	8284.7	
715.37	7690.8	
715.55	6690.7	
715.74	7015	
715.92	9221.3	
716.1	7091.4	
716.28	8161.2	
716.47	7078.5	
716.65	7727.7	
716.83	7840.3	
717.01	6924.9	
717.19	6954.2	
717.38	10037	
717.56	7600	
717.74	7305.1	
717.92	6478.4	
718.1	8989.9	
718.29	8325.7	
718.47	6373.3	
718.65	7137.2	
718.83	9374.9	
719.01	9425.4	
719.2	6608.8	
719.38	7858.7	
719.56	9260.9	
719.74	11013	
719.92	7329.7	
720.11	8361.9	
720.29	9168.1	
720.47	8048.5	
720.65	6569.2	
720.83	7444.4	
721.02	8069	
721.2	7750.9	
721.38	7116	
721.56	6396.5	
721.74	7232.7	
721.92	7337.9	
722.11	7653.3	
722.29	7403.4	
722.47	8648.6	
722.65	7807.5	
722.83	6366.5	
723.01	7354.9	
723.2	7899.7	
723.38	8151.6	
723.56	5847.6	
723.74	6906.4	
723.92	7310.6	
724.1	8597.4	
724.29	6330.3	
724.47	7546.8	
724.65	7436.9	
724.83	7367.2	
725.01	6153.5	
725.19	7133.1	
725.37	7475.1	
725.56	7555.6	
725.74	6134.3	
725.92	6307.7	
726.1	7485.3	
726.28	7731.1	
726.46	6777.4	
726.64	6479.1	
726.83	7578.8	
727.01	7909.9	
727.19	5939.8	
727.37	6866.8	
727.55	7797.3	
727.73	8419.9	
727.91	5948	
728.09	5806.7	
728.28	8460.2	
728.46	9084.8	
728.64	7041.6	
728.82	7145.4	
729	9797.5	
729.18	9021.3	
729.36	6528.9	
729.54	9009.7	
729.72	10394	
729.91	8486.8	
730.09	8835.6	
730.27	7563.1	
730.45	8518.2	
730.63	9280	
730.81	8288.1	
730.99	7232.1	
731.17	9910.1	
731.35	8477.2	
731.53	7829.4	
731.71	7345.4	
731.9	9614.5	
732.08	9759.3	
732.26	7628.7	
732.44	7296.9	
732.62	9733.3	
732.8	9187.2	
732.98	7923.6	
733.16	6921.5	
733.34	9135.3	
733.52	7836.2	
733.7	7517.4	
733.88	7899.7	
734.07	9032.2	
734.25	8800.8	
734.43	6958.3	
734.61	8661.5	
734.79	10479	
734.97	8789.9	
735.15	7235.5	
735.33	7529	
735.51	9013.8	
735.69	8689.5	
735.87	8843.8	
736.05	7834.2	
736.23	8937.3	
736.41	8712.7	
736.59	7627.3	
736.77	7805.5	
736.95	9442.5	
737.13	8881.4	
737.32	7377.5	
737.5	7654.6	
737.68	10093	
737.86	8737.3	
738.04	7073	
738.22	9144.2	
738.4	8508.6	
738.58	8789.9	
738.76	7854	
738.94	6668.2	
739.12	8684.8	
739.3	8568	
739.48	8493.6	
739.66	8273.8	
739.84	9001.5	
740.02	9097.8	
740.2	6832.7	
740.38	7190.4	
740.56	9536.7	
740.74	8234.2	
740.92	7996.6	
741.1	7783.6	
741.28	8765.3	
741.46	8598.7	
741.64	7277.1	
741.82	7924.3	
742	8762.6	
742.18	8802.2	
742.36	7607.5	
742.54	7098.9	
742.72	9345.6	
742.9	8021.2	
743.08	7955	
743.26	6662.7	
743.44	9527.8	
743.62	9293.7	
743.8	8034.9	
743.98	7016.3	
744.16	9007	
744.34	8661.5	
744.52	8021.9	
744.7	7813.7	
744.88	9162.6	
745.06	8545.5	
745.24	7954.3	
745.42	7962.5	
745.6	9094.3	
745.78	8789.9	
745.96	6567.8	
746.14	6937.8	
746.32	9925.1	
746.5	8966	
746.68	7533.1	
746.86	6829.3	
747.03	9465.7	
747.21	7626	
747.39	7482.6	
747.57	6863.4	
747.75	8606.2	
747.93	8996	
748.11	6851.8	
748.29	6714.6	
748.47	10316	
748.65	8171.4	
748.83	7654.6	
749.01	7261.4	
749.19	8713.4	
749.37	7853.3	
749.55	7081.9	
749.73	7223.2	
749.91	8342.1	
750.09	7979.6	
750.26	7238.9	
750.44	6533.7	
750.62	8333.9	
750.8	8355	
750.98	6367.1	
751.16	6823.1	
751.34	8408.3	
751.52	7590.5	
751.7	7611.6	
751.88	6328.9	
752.06	8877.3	
752.24	8628.8	
752.42	6229.2	
752.59	6699.6	
752.77	8239.7	
752.95	9609.1	
753.13	7355.6	
753.31	6772.6	
753.49	7830.7	
753.67	8346.2	
753.85	7014.3	
754.03	6578.8	
754.21	8553.7	
754.38	8784.4	
754.56	6615.6	
754.74	5469.4	
754.92	7487.4	
755.1	8203.5	
755.28	5280.3	
755.46	5172.5	
755.64	8445.8	
755.82	8490.9	
755.99	4963.6	
756.17	5008.6	
756.35	5483.8	
756.53	7110.5	
756.71	3670	
756.89	4666	
757.07	6645.7	
757.25	5614.8	
757.42	5368.4	
757.6	6437.4	
757.78	6857.3	
757.96	5810.8	
758.14	5225.1	
758.32	4683	
758.5	5353.4	
758.67	6200.6	
758.85	4906.3	
759.03	5054.4	
759.21	6366.5	
759.39	5789.6	
759.57	4446.8	
759.75	5710.4	
759.92	7058	
760.1	6278.4	
760.28	6125.5	
760.46	6464.8	
760.64	6239.5	
760.82	5970.5	
760.99	6119.3	
761.17	5280.3	
761.35	7200.7	
761.53	6147.3	
761.71	5483.8	
761.89	6276.3	
762.06	7266.2	
762.24	6712.6	
762.42	5743.9	
762.6	5485.8	
762.78	6878.4	
762.96	7518.1	
763.13	6169.8	
763.31	5887.9	
763.49	7819.8	
763.67	6847.7	
763.85	6893.5	
764.02	7470.3	
764.2	8135.2	
764.38	7202	
764.56	5772.5	
764.74	6685.3	
764.91	8214.4	
765.09	7042.3	
765.27	5573.9	
765.45	5195.7	
765.63	8243.1	
765.8	8115.4	
765.98	4924	
766.16	5354.1	
766.34	6536.4	
766.52	6236.7	
766.69	6326.9	
766.87	5126.7	
767.05	6916	
767.23	7830.7	
767.41	5437.4	
767.58	5662	
767.76	7488.7	
767.94	7600	
768.12	5481.7	
768.29	6363.7	
768.47	6964.5	
768.65	7763.2	
768.83	5067.4	
769	6257.9	
769.18	6371.9	
769.36	7142.6	
769.54	6256.5	
769.72	4988.2	
769.89	7350.2	
770.07	7533.1	
770.25	5350.7	
770.43	6722.8	
770.6	8201.4	
770.78	8613.8	
770.96	5483.1	
771.14	6198.5	
771.31	7237.5	
771.49	6561	
771.67	4542.4	
771.85	4848.9	
772.02	5802.6	
772.2	6527.6	
772.38	5616.2	
772.55	5070.8	
772.73	6825.2	
772.91	6532.3	
773.09	5446.2	
773.26	5516.5	
773.44	6619.7	
773.62	6417.7	
773.8	4883	
773.97	4616.8	
774.15	6694.1	
774.33	6275.7	
774.5	4745.1	
774.68	5100.8	
774.86	6847	
775.04	6393.1	
775.21	4761.5	
775.39	4786.1	
775.57	6606.1	
775.74	7111.2	
775.92	4625	
776.1	4498.7	
776.27	6555.5	
776.45	7916.1	
776.63	4725.3	
776.81	4231.8	
776.98	6159.6	
777.16	7312.6	
777.34	4910.3	
777.51	5233.9	
777.69	6133	
777.87	5856.5	
778.04	4801.1	
778.22	5556.1	
778.4	5883.1	
778.57	6621.8	
778.75	4035.9	
778.93	4449.6	
779.1	5681.7	
779.28	5539.8	
779.46	4093.2	
779.64	4600.4	
779.81	6749.4	
779.99	7606.2	
780.17	5463.3	
780.34	5591	
780.52	6078.4	
780.69	6300.9	
780.87	4883	
781.05	4373.8	
781.22	6109.1	
781.4	6235.4	
781.58	4573.1	
781.75	3629.7	
781.93	6111.8	
782.11	5479	
782.28	5457.2	
782.46	4541.7	
782.64	5354.1	
782.81	6184.9	
782.99	4540.3	
783.17	4545.1	
783.34	6097.5	
783.52	5289.9	
783.69	4725.3	
783.87	5634.6	
784.05	5447.6	
784.22	5413.5	
784.4	5534.3	
784.58	4797	
784.75	6343.2	
784.93	5373.9	
785.1	4426.3	
785.28	5044.1	
785.46	6120.7	
785.63	5377.3	
785.81	4410	
785.99	4248.2	
786.16	5513.8	
786.34	5969.1	
786.51	4291.9	
786.69	4709	
786.87	5093.3	
787.04	5666.7	
787.22	4111.6	
787.39	5110.4	
787.57	5292.6	
787.75	6542.6	
787.92	5326.8	
788.1	5248.3	
788.27	5377.3	
788.45	5162.9	
788.63	4970.4	
788.8	3603.7	
788.98	5879	
789.15	5068	
789.33	3652.2	
789.5	4434.5	
789.68	6336.4	
789.86	6532.3	
790.03	4851.6	
790.21	4241.3	
790.38	6345.3	
790.56	5451.7	
790.73	4050.9	
790.91	4127.3	
791.09	5314.5	
791.26	6130.9	
791.44	4346.5	
791.61	3724.6	
791.79	5281	
791.96	5407.3	
792.14	3917.8	
792.32	3468.6	
792.49	5319.3	
792.67	5424.4	
792.84	3927.3	
793.02	3720.5	
793.19	5815.5	
793.37	6578.1	
793.54	3437.9	
793.72	3815.4	
793.89	6707.1	
794.07	5298.1	
794.25	4349.9	
794.42	3511.6	
794.6	6406	
794.77	6040.1	
794.95	4749.9	
795.12	4085	
795.3	5286.5	
795.47	5973.9	
795.65	4543.8	
795.82	4396.3	
796	5073.5	
796.17	7122.8	
796.35	4226.3	
796.52	5022.3	
796.7	5859.2	
796.87	5985.5	
797.05	5193	
797.22	5064.6	
797.4	5883.8	
797.57	6973.3	
797.75	4279.6	
797.92	4046.8	
798.1	6254.5	
798.27	5241.4	
798.45	3482.9	
798.62	3745.7	
798.8	5541.1	
798.97	6082.5	
799.15	4630.5	
799.32	4379.9	
799.5	4763.6	
799.67	5682.4	
799.85	4739.7	
800.02	3402.4	
800.2	5171.8	
800.37	5601.2	
800.55	4937	
800.72	4072.7	
800.9	6085.9	
801.07	6626.5	
801.25	5606.7	
801.42	4433.2	
801.6	6143.2	
801.77	5816.2	
801.95	4146.5	
802.12	3970.3	
802.29	5809.4	
802.47	5799.8	
802.64	4438.6	
802.82	3378.5	
802.99	5184.8	
803.17	6249.7	
803.34	4356.7	
803.52	3893.9	
803.69	6987.7	
803.87	4980	
804.04	4288.4	
804.21	4369.7	
804.39	6382.8	
804.56	5451	
804.74	3619.4	
804.91	4478.9	
805.09	5187.5	
805.26	5318.6	
805.44	3685	
805.61	4136.2	
805.78	5909.1	
805.96	5971.9	
806.13	4435.2	
806.31	4747.9	
806.48	4713.7	
806.66	5272.8	
806.83	4439.3	
807	4333.5	
807.18	5160.9	
807.35	5603.9	
807.53	4282.3	
807.7	3412.6	
807.87	6500.3	
808.05	5218.2	
808.22	4817.5	
808.4	3431.7	
808.57	5294.7	
808.74	4846.9	
808.92	3920.5	
809.09	5013.4	
809.27	5090.6	
809.44	5791	
809.61	3485	
809.79	3811.3	
809.96	6462.7	
810.14	6027.2	
810.31	3368.2	
810.48	4124.6	
810.66	5333.6	
810.83	6139.8	
811.01	3915.7	
811.18	4397.7	
811.35	6042.2	
811.53	4623.6	
811.7	4765.6	
811.87	4459.8	
812.05	5197.7	
812.22	5152	
812.39	3806.5	
812.57	3697.3	
812.74	5259.2	
812.92	7036.1	
813.09	4144.4	
813.26	4489.1	
813.44	6713.9	
813.61	5096	
813.78	3435.1	
813.96	4633.9	
814.13	5236.7	
814.3	4881.7	
814.48	5019.6	
814.65	4171	
814.82	6508.4	
815	5021.6	
815.17	4280.3	
815.34	5268.1	
815.52	5100.1	
815.69	5159.5	
815.87	4214	
816.04	4196.3	
816.21	5257.1	
816.38	4569.7	
816.56	4040	
816.73	3742.3	
816.9	6645.7	
817.08	6068.1	
817.25	3879.5	
817.42	4855.7	
817.6	4755.4	
817.77	5300.1	
817.94	4313	
818.12	3744.4	
818.29	4965.6	
818.46	7849.9	
818.64	3923.2	
818.81	3741	
818.98	4838	
819.16	7165.2	
819.33	4616.1	
819.5	4258.4	
819.67	5692.7	
819.85	6356.9	
820.02	4145.1	
820.19	4404.5	
820.37	5495.4	
820.54	5010.7	
820.71	4339	
820.88	5343.2	
821.06	5476.3	
821.23	5003.2	
821.4	4363.5	
821.58	4327.4	
821.75	5997.8	
821.92	5408.7	
822.09	3427.6	
822.27	3524.6	
822.44	5229.1	
822.61	5094.7	
822.79	3459	
822.96	6703	
823.13	5767.1	
823.3	4945.2	
823.48	4087.1	
823.65	3630.4	
823.82	5939.8	
823.99	4760.8	
824.17	5154.7	
824.34	3715.7	
824.51	6885.3	
824.68	5304.9	
824.86	3863.8	
825.03	4331.5	
825.2	5294	
825.37	6394.4	
825.55	3795.6	
825.72	4275.5	
825.89	7031.4	
826.06	6516.6	
826.24	4162.2	
826.41	4143.7	
826.58	6372.6	
826.75	5570.5	
826.92	3265.1	
827.1	3629	
827.27	8742.8	
827.44	6946	
827.61	3986	
827.79	4879.6	
827.96	4943.8	
828.13	5296	
828.3	4098.7	
828.47	3451.5	
828.65	5444.2	
828.82	5362.3	
828.99	5401.2	
829.16	4633.9	
829.34	5839.4	
829.51	5622.4	
829.68	4287.8	
829.85	4483.7	
830.02	6116.6	
830.2	5901.6	
830.37	3300	
830.54	5130.2	
830.71	6709.8	
830.88	5152.7	
831.05	3363.4	
831.23	3876.1	
831.4	6434.7	
831.57	7249.1	
831.74	3919.1	
831.91	3482.9	
832.09	5487.2	
832.26	5817.6	
832.43	4125.3	
832.6	4616.1	
832.77	5421	
832.94	6307.1	
833.12	3247.4	
833.29	4009.9	
833.46	5076.2	
833.63	7488.1	
833.8	4453.6	
833.97	4081.6	
834.15	5881.1	
834.32	5550.7	
834.49	4221.5	
834.66	4435.9	
834.83	6139.8	
835	4896.7	
835.17	3914.4	
835.35	3932.1	
835.52	5755.5	
835.69	5614.8	
835.86	4164.9	
836.03	3449.5	
836.2	5801.2	
836.37	5468.8	
836.55	4052.9	
836.72	3835.2	
836.89	5414.8	
837.06	5966.4	
837.23	4196.3	
837.4	4573.1	
837.57	6709.1	
837.75	7450.5	
837.92	3713.6	
838.09	3991.5	
838.26	5403.9	
838.43	6128.9	
838.6	4372.4	
838.77	3880.9	
838.94	7123.5	
839.11	6677.7	
839.29	4106.2	
839.46	3269.9	
839.63	5795.8	
839.8	5618.3	
839.97	4022.2	
840.14	3982.6	
840.31	5599.8	
840.48	5932.3	
840.65	3293.8	
840.82	3937.6	
841	5829.9	
841.17	5748	
841.34	3705.5	
841.51	3725.9	
841.68	5763.7	
841.85	5548.6	
842.02	3844.7	
842.19	3124.5	
842.36	5535	
842.53	5560.9	
842.7	3407.8	
842.87	4558.1	
843.05	7451.9	
843.22	5471.5	
843.39	3424.9	
843.56	3713	
843.73	5270.1	
843.9	5917.3	
844.07	5885.9	
844.24	4959.5	
844.41	8711.4	
844.58	5019.6	
844.75	3600.3	
844.92	3897.3	
845.09	5905.7	
845.26	5791.7	
845.43	3616.7	
845.6	3791.5	
845.77	5799.2	
845.94	5557.5	
846.12	4002.4	
846.29	4244.8	
846.46	6027.9	
846.63	5808.7	
846.8	3593.5	
846.97	4344.4	
847.14	6311.8	
847.31	5782.8	
847.48	4112.3	
847.65	4515.8	
847.82	6098.2	
847.99	6080.4	
848.16	4891.9	
848.33	4509.6	
848.5	5319.9	
848.67	6350.8	
848.84	3608.5	
849.01	3809.2	
849.18	5210.7	
849.35	4896	
849.52	4589.5	
849.69	3605.1	
849.86	6055.2	
850.03	6236.7	
850.2	3659	
850.37	4489.1	
850.54	6221	
850.71	5459.9	
850.88	4362.9	
851.05	3554.6	
851.22	5718.6	
851.39	6377.4	
851.56	3415.3	
851.73	4151.2	
851.9	5081.7	
852.07	6023.8	
852.24	4110.3	
852.41	3620.1	
852.58	5661.3	
852.75	5148.6	
852.92	3997.6	
853.09	3526.6	
853.26	5413.5	
853.43	6279.8	
853.6	3637.9	
853.77	3080.1	
853.94	6411.5	
854.11	5763	
854.28	5455.8	
854.44	3944.4	
854.61	6745.3	
854.78	6192.4	
854.95	3581.2	
855.12	4578.6	
855.29	4672.8	
855.46	6642.9	
855.63	3583.3	
855.8	5027.8	
855.97	5410.7	
856.14	6121.4	
856.31	5203.9	
856.48	3896.6	
856.65	5303.6	
856.82	5059.8	
856.99	3487	
857.16	3885	
857.33	7205.4	
857.49	5504.9	
857.66	3931.4	
857.83	4218.1	
858	5380.7	
858.17	5674.9	
858.34	3446.7	
858.51	3609.9	
858.68	6570.6	
858.85	6543.9	
859.02	4192.2	
859.19	4437.9	
859.36	5076.9	
859.52	5134.9	
859.69	3637.9	
859.86	4302.8	
860.03	5182	
860.2	6413.6	
860.37	3305.4	
860.54	3624.2	
860.71	6056.5	
860.88	6507.1	
861.05	4038.6	
861.21	4536.9	
861.38	6574	
861.55	4975.2	
861.72	3277.4	
861.89	4067.9	
862.06	6143.9	
862.23	6726.2	
862.4	3531.4	
862.56	3768.9	
862.73	5885.2	
862.9	5569.1	
863.07	4246.1	
863.24	3288.4	
863.41	4983.4	
863.58	5068.7	
863.75	3684.3	
863.91	4229.7	
864.08	6508.4	
864.25	5945.9	
864.42	4588.1	
864.59	5131.5	
864.76	6873.7	
864.93	5145.2	
865.09	3521.1	
865.26	3837.2	
865.43	6303.6	
865.6	6781.5	
865.77	3142.3	
865.94	3575.1	
866.1	6365.1	
866.27	6152.8	
866.44	5461.2	
866.61	3411.9	
866.78	5439.4	
866.95	5966.4	
867.11	3487.7	
867.28	3193.5	
867.45	6139.8	
867.62	5221	
867.79	4390.8	
867.96	3627	
868.12	5107.6	
868.29	6086.6	
868.46	3121.1	
868.63	4892.6	
868.8	6359.6	
868.97	6021.7	
869.13	3767.6	
869.3	3758	
869.47	6010.1	
869.64	6199.9	
869.81	3701.4	
869.97	3700.7	
870.14	5827.2	
870.31	6569.9	
870.48	3505.4	
870.65	4618.2	
870.81	5429.8	
870.98	5424.4	
871.15	4075.5	
871.32	3745.7	
871.48	5920.7	
871.65	6522.1	
871.82	3627.6	
871.99	3922.5	
872.16	7043.6	
872.32	6410.1	
872.49	3621.5	
872.66	3635.1	
872.83	6041.5	
872.99	5330.2	
873.16	4190.8	
873.33	3521.1	
873.5	5635.3	
873.67	5726.8	
873.83	3818.1	
874	4900.1	
874.17	5771.9	
874.34	6929.6	
874.5	4656.4	
874.67	4549.9	
874.84	6534.4	
875.01	5042.1	
875.17	5171.8	
875.34	3637.2	
875.51	5720.7	
875.68	6922.8	
875.84	4356	
876.01	5409.4	
876.18	6109.1	
876.34	5924.8	
876.51	3612.6	
876.68	3550.5	
876.85	5481	
877.01	6336.4	
877.18	5167.7	
877.35	3538.2	
877.52	5588.9	
877.68	5000.5	
877.85	3449.5	
878.02	3565.5	
878.18	5674.2	
878.35	5274.9	
878.52	2879.4	
878.69	4098.7	
878.85	6001.9	
879.02	5969.8	
879.19	5113.1	
879.35	3894.6	
879.52	6021	
879.69	6259.3	
879.86	3149.8	
880.02	4071.4	
880.19	5601.2	
880.36	6853.2	
880.52	4187.4	
880.69	4300.7	
880.86	6170.5	
881.02	6203.3	
881.19	3929.4	
881.36	3953.3	
881.52	6009.4	
881.69	5266.7	
881.86	3913	
882.02	3838.6	
882.19	6268.8	
882.36	7471	
882.52	3693.2	
882.69	5108.3	
882.86	5791	
883.02	5671.5	
883.19	4475.5	
883.36	4169.7	
883.52	6135.7	
883.69	7105.1	
883.86	3694.5	
884.02	3248.8	
884.19	6070.2	
884.36	5609.4	
884.52	4099.4	
884.69	3822.9	
884.86	5273.5	
885.02	6679.1	
885.19	4024.3	
885.36	4242.7	
885.52	5603.2	
885.69	5801.9	
885.86	5274.2	
886.02	4668	
886.19	6036	
886.35	5401.2	
886.52	3984.7	
886.69	5081	
886.85	5130.2	
887.02	6470.9	
887.19	6470.9	
887.35	6470.9	
887.52	6470.9	
887.68	6470.9	
887.85	6470.9	
888.02	6470.9	
888.18	6470.9	
888.35	6470.9	
888.51	6470.9	
888.68	6470.9	
888.85	6470.9	
889.01	6470.9	
889.18	6470.9	
889.35	6470.9	
889.51	6470.9	
889.68	6470.9	
889.84	6470.9	
890.01	6470.9	
890.17	6470.9	
890.34	6470.9	
890.51	6470.9	
890.67	6470.9	
890.84	6470.9	
891	6470.9	
891.17	6470.9	
891.34	6470.9	
891.5	6470.9	
891.67	6470.9	
891.83	6470.9	
892	6470.9	
892.16	6470.9	
892.33	6470.9	
892.5	6470.9	
892.66	6470.9	
892.83	6470.9	
892.99	6470.9	
893.16	6470.9	
893.32	6470.9	
893.49	6470.9	
893.65	6470.9	
893.82	6470.9	
893.99	6470.9	
894.15	6470.9	
894.32	6470.9	
894.48	6470.9	
894.65	6470.9	
894.81	6470.9	
894.98	6470.9	
895.14	6470.9	
895.31	6470.9	
895.47	6470.9	
895.64	6470.9	
895.81	6470.9	
895.97	6470.9	
896.14	6470.9	
896.3	6470.9	
896.47	6470.9	
896.63	6470.9	
896.8	6470.9	
896.96	6470.9	
897.13	6470.9	
897.29	6470.9	
897.46	6470.9	
897.62	6470.9	
897.79	6470.9	
897.95	6470.9	
898.12	6470.9	
898.28	6470.9	
898.45	6470.9	
898.61	6470.9	
898.78	6470.9	
898.94	6470.9	
899.11	6470.9	
899.27	6470.9	
899.44	6470.9	
899.6	6470.9	
899.77	6470.9	
899.93	6470.9	
900.1	6470.9	
900.26	6470.9	
900.43	6470.9	
900.59	6470.9	
900.76	6470.9	
900.92	6470.9	
901.09	6470.9	
901.25	6470.9	
901.42	6470.9	
901.58	6470.9	
901.75	6470.9	
901.91	6470.9	
902.07	6470.9	
902.24	6470.9	
902.4	6470.9	
902.57	6470.9	
902.73	6470.9	
902.9	6470.9	
903.06	6470.9	
903.23	6470.9	
903.39	6470.9	
903.56	6470.9	
903.72	6470.9	
903.88	6470.9	
904.05	6470.9	
904.21	6470.9	
904.38	6470.9	
904.54	6470.9	
904.71	6470.9	
904.87	6470.9	
905.03	6470.9	
905.2	6470.9	
905.36	6470.9	
905.53	6470.9	
905.69	6470.9	
905.86	6470.9	
906.02	6470.9	
906.18	6470.9	
906.35	6470.9	
906.51	6470.9	
906.68	6470.9	
906.84	6470.9	
907.01	6470.9	
907.17	6470.9	
907.33	6470.9	
907.5	6470.9	
907.66	6470.9	
907.83	6470.9	
907.99	6470.9	
908.15	6470.9	
908.32	6470.9	
908.48	6470.9	
908.65	6470.9	
908.81	6470.9	
908.97	6470.9	
909.14	6470.9	
909.3	6470.9	
909.47	6470.9	
909.63	6470.9	
909.79	6470.9	
909.96	6470.9	
910.12	6470.9	
910.28	6470.9	
910.45	6470.9	
910.61	6470.9	
910.78	6470.9	
910.94	6470.9	
911.1	6470.9	
911.27	6470.9	
911.43	6470.9	
911.59	6470.9	
911.76	6470.9	
911.92	6470.9	
912.08	6470.9	
912.25	6470.9	
912.41	6470.9	
912.57	6470.9	
912.74	6470.9	
912.9	6470.9	
913.07	6470.9	
913.23	6470.9	
913.39	6470.9	
913.56	6470.9	
913.72	6470.9	
913.88	6470.9	
914.05	6470.9	
914.21	6470.9	
914.37	6470.9	
914.54	6470.9	
914.7	6470.9	
914.86	6470.9	
915.03	6470.9	
915.19	6470.9	
