Wavelength	Intensities	
nm	a.u.	
179.22	1728.7	
179.44	1732.2	
179.65	1725.1	
179.86	1739.4	
180.08	1733.9	
180.29	4034.5	
180.51	3080.8	
180.72	5044.8	
180.94	5636.7	
181.15	2762	
181.37	2745.6	
181.58	4842.1	
181.79	5025	
182.01	2878.8	
182.22	3040.6	
182.44	5097.4	
182.65	4369	
182.87	3744.4	
183.08	3309.5	
183.29	5258.5	
183.51	4406.5	
183.72	3037.1	
183.94	4273.4	
184.15	4762.2	
184.37	4726	
184.58	2731.3	
184.79	3496.6	
185.01	4536.3	
185.22	5084.4	
185.44	3753.2	
185.65	3180.5	
185.86	4795.7	
186.08	4393.6	
186.29	2628.2	
186.51	2820.1	
186.72	4460.5	
186.94	5184.1	
187.15	3263.1	
187.36	3266.5	
187.58	6492.7	
187.79	4879.6	
188.01	3418.1	
188.22	5070.8	
188.43	5703.6	
188.65	5022.3	
188.86	2828.2	
189.08	3319.8	
189.29	4643.4	
189.5	4556.7	
189.72	3030.3	
189.93	3123.2	
190.15	5207.3	
190.36	5999.9	
190.57	3367.5	
190.79	3233.1	
191	5235.3	
191.22	5175.9	
191.43	3349.8	
191.64	2886.3	
191.86	5423.7	
192.07	5200.5	
192.29	2921.1	
192.5	3040.6	
192.71	5243.5	
192.93	4633.9	
193.14	3026.2	
193.35	3126.6	
193.57	4519.2	
193.78	5231.2	
194	2556.5	
194.21	3013.2	
194.42	4448.2	
194.64	4796.3	
194.85	3251.5	
195.07	3807.9	
195.28	4794.3	
195.49	4251.6	
195.71	3951.9	
195.92	2848	
196.13	4958.1	
196.35	5033.2	
196.56	4228.4	
196.78	3285.6	
196.99	5974.6	
197.2	5620.3	
197.42	3702.7	
197.63	3382.6	
197.84	4382.7	
198.06	4977.2	
198.27	3065.8	
198.48	3898.6	
198.7	4577.9	
198.91	4780	
199.13	3300.6	
199.34	3352.5	
199.55	5200.5	
199.77	4174.4	
199.98	3013.9	
200.19	3352.5	
200.41	4688.5	
200.62	4486.4	
200.83	3471.3	
201.05	3671.3	
201.26	4715.1	
201.47	4534.2	
201.69	2970.2	
201.9	2909.5	
202.11	4810	
202.33	5438	
202.54	3206.4	
202.76	3508.9	
202.97	4806.6	
203.18	4857.8	
203.4	3424.9	
203.61	3463.1	
203.82	4827.7	
204.04	4506.9	
204.25	3295.2	
204.46	3278.1	
204.68	4783.4	
204.89	4972.5	
205.1	3240.6	
205.32	2861.7	
205.53	5085.1	
205.74	5233.9	
205.96	2504.7	
206.17	3380.5	
206.38	5054.4	
206.6	5177.3	
206.81	3784	
207.02	3156.6	
207.24	4949.3	
207.45	5238	
207.66	3178.4	
207.88	2790.7	
208.09	4908.3	
208.3	4767.7	
208.52	2985.9	
208.73	3253.5	
208.94	4701.5	
209.15	5298.8	
209.37	3193.5	
209.58	3615.3	
209.79	5221.6	
210.01	4592.9	
210.22	2627.5	
210.43	2786.6	
210.65	4745.1	
210.86	5096	
211.07	3177.1	
211.29	2947	
211.5	5005.2	
211.71	4733.5	
211.93	2908.8	
212.14	2964.8	
212.35	4719.2	
212.56	4860.5	
212.78	3325.2	
212.99	2802.3	
213.2	5418.2	
213.42	4614.8	
213.63	3026.2	
213.84	3138.9	
214.06	4323.9	
214.27	4394.3	
214.48	3205.8	
214.69	3349.8	
214.91	5304.9	
215.12	5324	
215.33	3321.8	
215.55	3667.9	
215.76	5748	
215.97	5012.7	
216.18	3226.2	
216.4	3246.7	
216.61	4516.5	
216.82	5175.9	
217.04	3011.9	
217.25	3099.9	
217.46	5231.2	
217.67	5058.5	
217.89	2709.5	
218.1	2798.9	
218.31	4863.2	
218.53	4930.8	
218.74	3130	
218.95	2953.9	
219.16	4700.8	
219.38	5458.5	
219.59	2966.1	
219.8	3513.6	
220.01	5840.8	
220.23	4784.7	
220.44	3738.9	
220.65	2925.9	
220.87	4851.6	
221.08	5231.2	
221.29	2738.8	
221.5	3543	
221.72	6169.2	
221.93	4547.2	
222.14	3354.6	
222.35	3913	
222.57	4734.9	
222.78	5089.2	
222.99	3188.7	
223.2	3382.6	
223.42	5058.5	
223.63	5053	
223.84	2523.1	
224.05	2531.3	
224.27	5793	
224.48	5475.6	
224.69	3912.3	
224.9	3379.1	
225.12	4928.1	
225.33	4726.7	
225.54	2719	
225.75	3012.6	
225.97	4405.9	
226.18	4703.5	
226.39	3188.7	
226.6	3017.3	
226.82	4611.3	
227.03	4427	
227.24	3302	
227.45	2819.4	
227.67	5122	
227.88	5414.8	
228.09	3707.5	
228.3	3652.2	
228.52	5082.4	
228.73	4734.2	
228.94	3094.5	
229.15	2814.6	
229.36	4731.5	
229.58	4697.4	
229.79	3129.3	
230	3656.3	
230.21	5631.2	
230.43	4839.4	
230.64	3356.6	
230.85	3336.8	
231.06	5159.5	
231.28	5077.6	
231.49	2867.8	
231.7	3304.7	
231.91	5076.2	
232.12	4748.6	
232.34	2926.5	
232.55	3228.3	
232.76	5226.4	
232.97	4906.9	
233.18	2936.1	
233.4	3349.8	
233.61	4927.4	
233.82	4590.2	
234.03	3124.5	
234.25	3065.8	
234.46	6329.6	
234.67	4778.6	
234.88	3376.4	
235.09	2988	
235.31	4894.6	
235.52	4674.8	
235.73	3289	
235.94	2836.4	
236.15	4573.1	
236.37	5603.2	
236.58	2934.1	
236.79	3177.8	
237	4993.6	
237.21	4396.3	
237.43	3418.1	
237.64	2745.6	
237.85	7932.5	
238.06	4453.6	
238.27	3356.6	
238.48	2902.7	
238.7	5043.5	
238.91	4696	
239.12	3242.6	
239.33	3298.6	
239.54	4505.5	
239.76	4659.1	
239.97	3158.7	
240.18	3209.2	
240.39	5669.5	
240.6	4906.9	
240.82	3368.2	
241.03	2768.2	
241.24	4762.2	
241.45	5377.3	
241.66	2945.7	
241.87	3371	
242.09	5324	
242.3	5610.1	
242.51	3500	
242.72	3191.4	
242.93	5023.7	
243.14	4732.2	
243.36	3702.7	
243.57	3878.2	
243.78	5437.4	
243.99	5051	
244.2	3190.1	
244.41	2959.3	
244.63	4367	
244.84	4947.9	
245.05	3373	
245.26	3202.3	
245.47	4996.4	
245.68	5120.6	
245.9	4111	
246.11	3317	
246.32	4653	
246.53	4928.8	
246.74	5008	
246.95	2743.6	
247.16	4424.3	
247.38	4782	
247.59	2728.6	
247.8	3241.9	
248.01	4493.2	
248.22	4737.6	
248.43	2942.9	
248.64	3136.1	
248.86	4347.8	
249.07	4566.3	
249.28	2887.6	
249.49	3238.5	
249.7	5201.8	
249.91	5255.1	
250.12	2727.2	
250.34	2759.3	
250.55	4867.3	
250.76	4787.5	
250.97	3322.5	
251.18	3301.3	
251.39	5210.7	
251.6	4924.7	
251.81	3371.6	
252.03	3260.4	
252.24	4598.4	
252.45	5120.6	
252.66	2813.9	
252.87	3477.5	
253.08	4811.4	
253.29	5982.1	
253.5	2906.8	
253.72	3788.1	
253.93	4700.8	
254.14	5500.2	
254.35	3098.6	
254.56	3111.5	
254.77	4917.9	
254.98	4519.9	
255.19	3065.1	
255.41	3811.3	
255.62	4904.2	
255.83	5234.6	
256.04	3377.1	
256.25	3334.1	
256.46	5661.3	
256.67	4571.1	
256.88	3334.1	
257.09	3638.6	
257.31	4482.3	
257.52	4519.9	
257.73	4090.5	
257.94	3067.9	
258.15	4655.7	
258.36	4749.9	
258.57	3775.8	
258.78	2493.7	
258.99	5171.1	
259.2	4624.3	
259.41	3064.4	
259.63	3190.7	
259.84	5446.9	
260.05	5700.2	
260.26	3852.2	
260.47	2998.9	
260.68	5195.7	
260.89	4670.7	
261.1	3680.9	
261.31	2944.3	
261.52	5278.3	
261.73	5477.6	
261.95	3848.8	
262.16	3418.1	
262.37	5270.1	
262.58	5350.7	
262.79	3893.9	
263	3121.8	
263.21	4815.5	
263.42	4689.8	
263.63	3399.6	
263.84	3127.9	
264.05	5107.6	
264.26	5414.1	
264.47	3749.1	
264.69	3304.7	
264.9	5342.5	
265.11	4909	
265.32	2930	
265.53	3045.3	
265.74	4815.5	
265.95	4280.3	
266.16	3174.4	
266.37	3500.7	
266.58	4883	
266.79	4528.1	
267	3055.6	
267.21	2871.3	
267.42	4455.7	
267.63	4755.4	
267.84	3201.7	
268.06	2792.1	
268.27	5115.8	
268.48	5256.5	
268.69	3196.9	
268.9	3615.3	
269.11	5292.6	
269.32	4332.1	
269.53	3195.5	
269.74	2981.8	
269.95	4943.1	
270.16	4299.4	
270.37	3246.7	
270.58	3694.5	
270.79	4644.8	
271	5161.6	
271.21	3406.5	
271.42	3256.3	
271.63	4932.2	
271.84	4407.2	
272.05	2670.6	
272.26	2938.2	
272.47	4752.7	
272.68	4883.7	
272.89	3082.9	
273.11	3487.7	
273.32	4575.8	
273.53	5474.2	
273.74	3453.6	
273.95	3340.9	
274.16	5108.3	
274.37	4728.8	
274.58	3464.5	
274.79	2860.3	
275	4905.6	
275.21	5214.8	
275.42	4095.3	
275.63	3553.2	
275.84	5010.7	
276.05	6059.9	
276.26	3304.7	
276.47	3115	
276.68	4728.8	
276.89	5513.1	
277.1	3541.6	
277.31	2810.5	
277.52	4906.9	
277.73	5172.5	
277.94	2796.2	
278.15	3093.8	
278.36	4971.8	
278.57	4504.2	
278.78	3092.4	
278.99	3435.8	
279.2	4565.6	
279.41	4457.7	
279.62	3956	
279.83	2935.4	
280.04	5695.4	
280.25	4455	
280.46	3940.3	
280.67	3173	
280.88	4524	
281.09	5261.2	
281.3	3377.1	
281.51	4175.1	
281.72	4557.4	
281.93	5079	
282.14	3045.3	
282.35	3254.2	
282.56	5158.8	
282.77	5158.2	
282.98	3130	
283.19	3709.6	
283.4	6105.7	
283.61	4764.3	
283.82	2880.8	
284.03	3900	
284.24	4926	
284.45	5162.2	
284.66	3975.1	
284.87	3749.1	
285.08	5205.9	
285.29	5311.7	
285.5	2781.1	
285.71	3207.1	
285.92	5228.5	
286.12	5689.9	
286.33	3891.1	
286.54	3188	
286.75	5134.9	
286.96	4693.9	
287.17	2925.9	
287.38	3747.8	
287.59	4543.8	
287.8	4516.5	
288.01	3146.4	
288.22	3515.7	
288.43	5062.6	
288.64	4320.5	
288.85	3702.7	
289.06	3534.8	
289.27	5154.1	
289.48	5434.6	
289.69	3936.2	
289.9	3507.5	
290.11	5334.3	
290.32	4563.6	
290.53	3665.2	
290.74	3430.3	
290.94	5091.9	
291.15	5098.1	
291.36	3024.2	
291.57	3499.3	
291.78	4605.9	
291.99	4296	
292.2	2974.3	
292.41	3435.1	
292.62	5229.8	
292.83	4977.9	
293.04	4177.2	
293.25	2969.6	
293.46	4654.4	
293.67	5162.9	
293.88	2985.9	
294.09	2981.8	
294.29	4495.3	
294.5	4916.5	
294.71	3245.3	
294.92	3110.2	
295.13	4603.2	
295.34	5664	
295.55	2772.3	
295.76	2712.9	
295.97	5069.4	
296.18	5615.5	
296.39	2878.1	
296.6	2971.6	
296.81	4829.8	
297.01	5092.6	
297.22	3123.8	
297.43	3031	
297.64	4584.7	
297.85	4442.7	
298.06	2580.4	
298.27	2764.1	
298.48	4783.4	
298.69	4564.2	
298.9	3317	
299.11	2975	
299.31	4434.5	
299.52	4463.9	
299.73	3460.4	
299.94	3399.6	
300.15	4787.5	
300.36	4523.3	
300.57	3388	
300.78	3406.5	
300.99	4659.8	
301.2	4860.5	
301.4	3053.5	
301.61	3256.3	
301.82	5082.4	
302.03	5134.9	
302.24	3562.1	
302.45	2940.2	
302.66	4985.4	
302.87	5311.1	
303.08	3055.6	
303.29	4002.4	
303.49	4627	
303.7	4786.1	
303.91	2792.7	
304.12	3841.3	
304.33	4360.1	
304.54	4947.9	
304.75	3054.9	
304.96	2962	
305.16	5020.3	
305.37	5528.2	
305.58	2748.4	
305.79	2757.2	
306	5070.1	
306.21	4295.3	
306.42	3036.5	
306.63	4440.7	
306.83	4650.3	
307.04	5134.3	
307.25	3327.9	
307.46	3263.8	
307.67	4244.8	
307.88	5006.6	
308.09	3067.9	
308.29	3060.3	
308.5	4834.6	
308.71	5177.9	
308.92	3250.8	
309.13	2947	
309.34	4756.1	
309.55	4775.9	
309.75	3706.8	
309.96	3424.2	
310.17	5104.9	
310.38	4567.7	
310.59	3516.4	
310.8	3417.4	
311.01	4768.4	
311.21	4685.8	
311.42	2916.3	
311.63	3031.7	
311.84	4617.5	
312.05	4902.2	
312.26	3362.1	
312.46	3620.1	
312.67	4615.4	
312.88	4412	
313.09	2928.6	
313.3	2931.3	
313.51	5350.7	
313.71	5615.5	
313.92	2979.1	
314.13	3053.5	
314.34	4930.8	
314.55	4765.6	
314.76	3674.1	
314.96	3273.3	
315.17	4917.9	
315.38	5102.9	
315.59	2966.8	
315.8	2878.8	
316.01	5392.3	
316.21	5500.8	
316.42	2891.7	
316.63	3248.8	
316.84	4685.8	
317.05	5258.5	
317.26	3411.9	
317.46	3123.8	
317.67	4710.3	
317.88	5070.8	
318.09	3700	
318.3	2781.8	
318.5	4656.4	
318.71	4992.9	
318.92	4548.5	
319.13	3485	
319.34	5171.1	
319.54	5210.7	
319.75	2769.5	
319.96	2678.1	
320.17	5034.6	
320.38	5182	
320.58	2691.7	
320.79	3215.3	
321	5170.4	
321.21	5290.6	
321.42	3240.6	
321.62	2721.8	
321.83	4517.1	
322.04	4798.4	
322.25	3138.2	
322.46	2981.8	
322.66	4883.7	
322.87	4996.4	
323.08	3481.5	
323.29	2923.8	
323.5	5560.9	
323.7	4388.8	
323.91	3885.7	
324.12	3504.1	
324.33	4865.3	
324.53	4944.5	
324.74	3396.9	
324.95	3509.5	
325.16	4346.5	
325.37	4671.4	
325.57	2953.2	
325.78	2969.6	
325.99	4853.7	
326.2	4384.7	
326.4	4033.1	
326.61	2788.7	
326.82	4703.5	
327.03	4910.3	
327.24	4042.7	
327.44	3779.2	
327.65	4972.5	
327.86	4199	
328.07	3424.9	
328.27	2883.5	
328.48	5266	
328.69	4411.3	
328.9	4085.7	
329.1	3136.1	
329.31	4707.6	
329.52	5363.6	
329.73	3018	
329.93	3251.5	
330.14	4809.3	
330.35	4895.3	
330.56	4621.6	
330.76	3538.9	
330.97	4652.3	
331.18	4874.2	
331.39	3225.6	
331.59	2665.8	
331.8	5184.8	
332.01	5287.9	
332.22	3048.7	
332.42	3408.5	
332.63	4878.9	
332.84	4477.5	
333.05	3289.7	
333.25	3056.9	
333.46	4577.2	
333.67	4756.7	
333.88	3121.8	
334.08	3308.8	
334.29	6191.7	
334.5	5229.8	
334.7	2834.4	
334.91	4039.3	
335.12	4472.8	
335.33	5022.3	
335.53	3216.7	
335.74	4472.8	
335.95	4705.5	
336.16	4437.3	
336.36	3315	
336.57	3636.5	
336.78	4442	
336.98	5184.1	
337.19	3954.6	
337.4	3201	
337.61	5711.1	
337.81	4455	
338.02	3024.8	
338.23	3766.9	
338.43	5353.4	
338.64	4491.2	
338.85	2957.9	
339.05	3835.2	
339.26	5451	
339.47	4372.4	
339.68	2975	
339.88	4223.6	
340.09	5039.4	
340.3	5109	
340.5	3415.3	
340.71	2689	
340.92	4399	
341.13	5242.1	
341.33	2832.3	
341.54	3377.1	
341.75	4987.5	
341.95	4648.2	
342.16	3311.6	
342.37	3506.8	
342.57	4431.8	
342.78	4738.3	
342.99	3578.5	
343.19	2751.1	
343.4	5027.1	
343.61	4941.1	
343.81	3143.6	
344.02	2895.8	
344.23	5099.4	
344.43	5322	
344.64	3578.5	
344.85	3518.4	
345.06	5014.1	
345.26	5193	
345.47	3439.2	
345.68	3895.9	
345.88	4365.6	
346.09	5171.8	
346.3	3485.6	
346.5	2689	
346.71	4737.6	
346.92	4583.4	
347.12	2826.2	
347.33	3312.2	
347.54	5209.3	
347.74	5467.4	
347.95	3332	
348.16	2551.1	
348.36	4635.2	
348.57	4446.8	
348.78	3397.6	
348.98	3547.1	
349.19	4744.5	
349.39	4313	
349.6	2793.4	
349.81	3011.2	
350.01	5031.2	
350.22	4543.8	
350.43	3244.7	
350.63	3806.5	
350.84	4771.1	
351.05	4532.2	
351.25	2970.9	
351.46	2756.6	
351.67	5203.9	
351.87	4513.7	
352.08	3160.7	
352.29	3571.7	
352.49	5103.5	
352.7	4862.6	
352.9	2883.5	
353.11	3492.5	
353.32	5502.2	
353.52	4609.3	
353.73	2852.1	
353.94	3573	
354.14	4989.5	
354.35	4833.2	
354.55	3010.5	
354.76	3229.6	
354.97	4981.3	
355.17	4731.5	
355.38	2827.6	
355.59	3720.5	
355.79	4529.4	
356	4758.8	
356.2	3205.1	
356.41	2904.7	
356.62	4280.9	
356.82	4726.7	
357.03	3437.2	
357.24	3065.1	
357.44	4498.7	
357.65	4605.9	
357.85	4141	
358.06	3295.9	
358.27	4291.9	
358.47	4405.9	
358.68	2796.8	
358.88	3415.3	
359.09	4913.8	
359.3	5190.9	
359.5	3905.5	
359.71	3477.5	
359.91	5500.2	
360.12	4963.6	
360.33	3422.8	
360.53	3809.2	
360.74	4516.5	
360.94	4559.5	
361.15	3519.8	
361.36	3037.1	
361.56	5129.5	
361.77	4717.8	
361.97	3947.8	
362.18	3163.4	
362.38	5174.5	
362.59	4388.1	
362.8	2953.2	
363	2846	
363.21	4211.3	
363.41	4783.4	
363.62	3331.4	
363.83	4052.2	
364.03	4891.2	
364.24	5481	
364.44	4246.1	
364.65	4196.3	
364.85	4638	
365.06	4428.4	
365.27	3102	
365.47	3104.7	
365.68	5373.9	
365.88	4638	
366.09	3347.7	
366.29	3108.1	
366.5	4838	
366.71	5109	
366.91	4054.3	
367.12	3498.6	
367.32	5629.9	
367.53	5023.7	
367.73	3522.5	
367.94	4167.6	
368.14	5045.5	
368.35	5615.5	
368.56	3446.7	
368.76	3044	
368.97	5154.7	
369.17	6246.3	
369.38	3061	
369.58	3254.9	
369.79	4353.3	
369.99	5414.8	
370.2	4058.4	
370.4	3330.7	
370.61	4873.5	
370.82	5808	
371.02	3267.2	
371.23	2758.6	
371.43	4370.4	
371.64	5371.1	
371.84	3308.2	
372.05	4138.9	
372.25	6177.4	
372.46	5009.3	
372.66	3323.9	
372.87	3256.3	
373.07	5113.1	
373.28	6320	
373.48	4012	
373.69	3732.8	
373.9	4704.2	
374.1	4774.5	
374.31	4003.8	
374.51	3651.5	
374.72	5324.7	
374.92	4497.3	
375.13	4072.7	
375.33	3554.6	
375.54	4999.1	
375.74	4590.2	
375.95	3537.5	
376.15	4438.6	
376.36	5063.3	
376.56	4926	
376.77	3590.8	
376.97	3934.8	
377.18	5870.8	
377.38	5095.3	
377.59	4149.2	
377.79	3223.5	
378	4954	
378.2	5182.7	
378.41	3291.1	
378.61	3188	
378.82	5278.3	
379.02	4724	
379.23	3414	
379.43	4173.1	
379.64	5446.9	
379.84	5059.8	
380.05	3334.1	
380.25	3205.1	
380.46	5175.2	
380.66	4883	
380.87	4248.2	
381.07	4555.4	
381.28	5550.7	
381.48	5111.7	
381.69	3304.7	
381.89	3373	
382.1	4413.4	
382.3	5186.1	
382.51	4127.3	
382.71	4744.5	
382.91	5193	
383.12	5582.1	
383.32	3537.5	
383.53	3717.1	
383.73	5012.1	
383.94	4919.9	
384.14	3731.4	
384.35	3018	
384.55	4797	
384.76	5089.2	
384.96	3670	
385.17	3790.8	
385.37	5218.9	
385.58	4607.9	
385.78	3814	
385.98	2980.5	
386.19	4818.2	
386.39	5024.3	
386.6	3411.9	
386.8	3545	
387.01	5107.6	
387.21	5230.5	
387.42	3863.2	
387.62	4301.4	
387.83	4721.9	
388.03	4984.1	
388.23	3670	
388.44	4220.9	
388.64	4403.8	
388.85	4504.2	
389.05	3824.9	
389.26	4233.2	
389.46	6024.4	
389.67	5517.9	
389.87	3908.9	
390.07	3875.4	
390.28	4857.8	
390.48	4579.9	
390.69	3303.4	
390.89	3571.7	
391.1	4797	
391.3	5408	
391.5	4369	
391.71	4801.8	
391.91	5278.3	
392.12	5879	
392.32	4468.7	
392.53	3852.9	
392.73	4795.7	
392.93	4917.2	
393.14	3695.2	
393.34	4201.7	
393.55	5223	
393.75	4900.1	
393.95	3650.2	
394.16	3585.3	
394.36	4773.1	
394.57	5264	
394.77	3254.2	
394.98	3551.2	
395.18	4677.6	
395.38	4880.3	
395.59	4223.6	
395.79	3437.2	
396	4836.6	
396.2	5234.6	
396.4	4014	
396.61	4002.4	
396.81	5269.4	
397.02	4777.2	
397.22	4239.3	
397.42	4249.5	
397.63	5363.6	
397.83	4682.3	
398.04	3458.3	
398.24	3824.9	
398.44	5188.9	
398.65	4468.7	
398.85	3368.2	
399.05	3422.2	
399.26	4807.9	
399.46	6026.5	
399.67	3623.5	
399.87	3505.4	
400.07	4997	
400.28	5246.2	
400.48	3539.6	
400.69	4366.3	
400.89	5786.2	
401.09	5861.3	
401.3	3527.3	
401.5	4270.7	
401.7	5976.7	
401.91	6146.6	
402.11	3870.7	
402.32	3905.5	
402.52	5481	
402.72	5387.5	
402.93	4114.4	
403.13	3254.9	
403.33	6051.7	
403.54	5040.7	
403.74	3840.6	
403.94	4485.1	
404.15	5150.6	
404.35	5972.6	
404.56	3662.5	
404.76	4986.8	
404.96	5454.4	
405.17	5222.3	
405.37	4328	
405.57	4062.5	
405.78	5468.8	
405.98	5074.2	
406.18	4258.4	
406.39	4366.3	
406.59	5470.8	
406.79	5143.1	
407	3545.7	
407.2	3610.6	
407.4	5559.6	
407.61	5582.8	
407.81	3643.3	
408.01	5283.8	
408.22	4689.2	
408.42	6183.5	
408.62	4429.1	
408.83	4055.7	
409.03	5274.2	
409.23	5125.4	
409.44	4098.7	
409.64	4380.6	
409.84	5911.8	
410.05	5827.8	
410.25	4212.7	
410.45	4085	
410.66	5540.4	
410.86	7357	
411.06	4422.9	
411.27	4325.3	
411.47	7158.3	
411.67	5656.5	
411.88	4515.8	
412.08	4716.5	
412.28	6126.8	
412.49	6508.4	
412.69	4354	
412.89	4329.4	
413.09	6356.2	
413.3	6227.2	
413.5	4482.3	
413.7	4169	
413.91	5761.6	
414.11	6322.8	
414.31	4332.8	
414.52	4698.7	
414.72	6133.7	
414.92	5969.8	
415.12	4390.8	
415.33	4752	
415.53	6355.5	
415.73	6484.6	
415.94	4988.2	
416.14	4504.8	
416.34	5681.7	
416.55	5442.8	
416.75	5363.6	
416.95	5070.1	
417.15	6466.1	
417.36	6851.8	
417.56	5715.9	
417.76	4920.6	
417.97	6638.8	
418.17	6475.7	
418.37	4684.4	
418.57	4705.5	
418.78	6339.8	
418.98	6059.9	
419.18	5289.2	
419.38	5286.5	
419.59	6020.3	
419.79	5788.9	
419.99	4618.2	
420.2	4882.4	
420.4	6436.8	
420.6	6523.5	
420.8	4558.8	
421.01	4367	
421.21	6309.8	
421.41	6445	
421.61	4840	
421.82	4637.3	
422.02	6000.5	
422.22	6657.9	
422.42	5213.4	
422.63	4982.7	
422.83	6080.4	
423.03	6950.1	
423.23	4961.5	
423.44	4254.3	
423.64	6087.9	
423.84	5827.8	
424.04	4557.4	
424.25	4352.6	
424.45	6782.9	
424.65	6647	
424.85	4156.7	
425.06	4618.2	
425.26	6808.1	
425.46	5984.8	
425.66	4929.5	
425.87	4723.3	
426.07	6570.6	
426.27	6344.6	
426.47	4785.4	
426.67	4369.7	
426.88	6860.7	
427.08	6415.6	
427.28	5043.5	
427.48	4330.8	
427.69	5627.1	
427.89	6078.4	
428.09	4914.4	
428.29	4327.4	
428.5	6507.1	
428.7	6285.9	
428.9	4242.7	
429.1	4607.2	
429.3	6273.6	
429.51	6455.9	
429.71	4539.7	
429.91	5102.2	
430.11	6490.7	
430.31	6529.6	
430.52	4677.6	
430.72	5001.1	
430.92	6819.7	
431.12	6457.2	
431.32	4426.3	
431.53	4804.5	
431.73	5692	
431.93	6901.7	
432.13	4429.8	
432.33	4367.6	
432.54	6049.7	
432.74	6233.3	
432.94	4266.6	
433.14	5124.7	
433.34	6539.8	
433.55	6129.6	
433.75	5123.3	
433.95	6369.9	
434.15	6337.1	
434.35	6091.3	
434.56	4526	
434.76	4226.3	
434.96	6309.1	
435.16	6568.5	
435.36	4357.4	
435.56	5207.3	
435.77	6137.8	
435.97	6208.8	
436.17	5872.9	
436.37	5205.3	
436.57	6068.8	
436.78	6049	
436.98	6566.5	
437.18	5705	
437.38	6598.6	
437.58	6136.4	
437.78	5750.7	
437.99	4768.4	
438.19	6598.6	
438.39	7620.5	
438.59	4740.4	
438.79	4397.7	
438.99	7082.6	
439.2	6189	
439.4	4371	
439.6	4410	
439.8	6377.4	
440	7212.9	
440.2	5156.1	
440.4	5296.7	
440.61	6774	
440.81	7077.8	
441.01	4665.3	
441.21	5320.6	
441.41	7067.5	
441.61	6814.3	
441.81	5565.7	
442.02	6251.1	
442.22	7496.2	
442.42	6884.6	
442.62	4779.3	
442.82	4732.9	
443.02	7179.5	
443.22	6457.9	
443.43	5040.1	
443.63	4777.9	
443.83	6397.2	
444.03	6314.6	
444.23	5651.7	
444.43	5380.7	
444.63	6641.6	
444.83	7505.8	
445.04	4951.3	
445.24	5814.9	
445.44	6937.8	
445.64	7005.4	
445.84	5457.8	
446.04	5453.7	
446.24	6406	
446.44	7104.4	
446.65	4816.1	
446.85	5085.8	
447.05	6509.1	
447.25	7099.6	
447.45	5197.1	
447.65	4771.8	
447.85	6651.1	
448.05	6253.1	
448.25	5442.1	
448.46	5357.5	
448.66	6660.7	
448.86	6361	
449.06	4649.6	
449.26	5411.4	
449.46	6942.6	
449.66	6257.2	
449.86	5199.1	
450.06	5111.7	
450.26	6455.2	
450.47	6875.7	
450.67	5365	
450.87	5577.3	
451.07	6991.8	
451.27	6653.2	
451.47	4827.7	
451.67	5270.1	
451.87	6504.3	
452.07	7322.2	
452.27	5023.7	
452.47	5018.9	
452.67	6757.6	
452.88	7098.3	
453.08	4586.8	
453.28	6010.1	
453.48	7658.7	
453.68	6655.2	
453.88	4978.6	
454.08	5150	
454.28	7062.1	
454.48	6710.5	
454.68	5548.6	
454.88	5896.1	
455.08	7161.7	
455.28	6845	
455.48	4924	
455.68	5370.5	
455.89	7486	
456.09	7189.7	
456.29	5221	
456.49	5274.9	
456.69	7410.2	
456.89	6741.9	
457.09	5643.5	
457.29	5872.9	
457.49	7142.6	
457.69	7238.2	
457.89	5591	
458.09	5034.6	
458.29	7033.4	
458.49	7605.5	
458.69	5790.3	
458.89	5413.5	
459.09	7743.4	
459.29	7755	
459.49	5526.1	
459.69	6134.3	
459.9	7367.2	
460.1	7109.9	
460.3	5470.8	
460.5	5184.1	
460.7	7372	
460.9	7063.4	
461.1	5032.5	
461.3	5986.9	
461.5	7866.9	
461.7	7603.4	
461.9	5422.3	
462.1	5705.6	
462.3	7230	
462.5	7602.7	
462.7	5506.3	
462.9	5561.6	
463.1	8438.3	
463.3	8217.1	
463.5	5718.6	
463.7	6449.1	
463.9	7441	
464.1	7817.1	
464.3	5896.8	
464.5	6139.1	
464.7	7970	
464.9	7734.5	
465.1	7042.3	
465.3	6276.3	
465.5	8241	
465.7	8277.9	
465.9	6599.9	
466.1	6358.3	
466.3	8131.8	
466.5	7948.2	
466.7	7162.4	
466.9	6307.1	
467.1	8059.4	
467.3	8687.5	
467.5	7129	
467.7	6293.4	
467.9	8881.4	
468.1	9530.6	
468.3	6799.9	
468.5	7185	
468.7	8026.7	
468.9	7932.5	
469.1	6544.6	
469.3	6964.5	
469.5	9553.1	
469.7	7744.1	
469.9	6894.1	
470.1	6341.2	
470.3	8147.5	
470.5	8114.1	
470.7	7290.8	
470.9	6450.4	
471.1	7899.7	
471.3	8168.7	
471.5	6296.1	
471.69	7710.6	
471.89	7899	
472.09	7357	
472.29	6806.8	
472.49	7087.3	
472.69	7628.7	
472.89	8153.6	
473.09	6211.5	
473.29	6262.7	
473.49	7716.7	
473.69	7677.8	
473.89	6963.8	
474.09	6383.5	
474.29	8802.9	
474.49	8417.8	
474.69	6948.8	
474.89	6569.2	
475.09	7815.7	
475.29	7833.5	
475.49	6109.1	
475.69	6247	
475.88	8969.4	
476.08	8109.3	
476.28	6061.3	
476.48	6230.6	
476.68	8475.9	
476.88	8173.4	
477.08	6216.3	
477.28	6398.5	
477.48	7909.3	
477.68	8374.8	
477.88	6127.5	
478.08	6227.9	
478.28	8597.4	
478.48	7934.5	
478.67	6386.9	
478.87	5923.4	
479.07	8501.1	
479.27	7989.1	
479.47	6475.7	
479.67	6527.6	
479.87	8303.8	
480.07	8671.8	
480.27	6033.3	
480.47	7196.6	
480.67	8069.7	
480.87	8679.3	
481.06	6252.4	
481.26	6950.8	
481.46	8112	
481.66	8004.1	
481.86	6582.2	
482.06	7357	
482.26	7843.7	
482.46	8533.2	
482.66	6503.7	
482.86	6141.2	
483.05	8256	
483.25	7704.5	
483.45	8419.2	
483.65	6493.4	
483.85	7773.4	
484.05	8034.9	
484.25	6870.9	
484.45	7286.7	
484.65	8626.7	
484.84	8713.4	
485.04	6509.1	
485.24	6549.4	
485.44	8960.5	
485.64	7715.4	
485.84	6047	
486.04	7045.7	
486.24	7957	
486.44	8243.1	
486.63	6055.8	
486.83	6786.3	
487.03	7949.5	
487.23	8099	
487.43	6186.9	
487.63	7820.5	
487.83	8195.3	
488.02	8752.3	
488.22	6892.1	
488.42	7315.3	
488.62	8730.5	
488.82	8018.5	
489.02	6673	
489.22	6646.3	
489.41	8763.9	
489.61	8454	
489.81	6603.3	
490.01	6481.8	
490.21	8786.5	
490.41	9280	
490.61	6561.7	
490.8	6577.4	
491	8416.5	
491.2	7894.2	
491.4	7036.1	
491.6	6377.4	
491.8	8346.2	
491.99	8357.1	
492.19	6186.9	
492.39	6423.8	
492.59	8633.6	
492.79	8715.5	
492.99	7109.2	
493.18	6486.6	
493.38	8844.5	
493.58	9446.6	
493.78	7081.2	
493.98	6726.9	
494.18	8656.8	
494.37	8277.2	
494.57	7321.5	
494.77	7189.1	
494.97	8951.7	
495.17	9066.4	
495.37	6948.8	
495.56	7218.4	
495.76	9244.5	
495.96	9062.9	
496.16	7998.7	
496.36	7104.4	
496.55	9360.6	
496.75	8834.9	
496.95	7443	
497.15	7378.1	
497.35	9219.3	
497.54	9097.1	
497.74	7340.6	
497.94	8649.9	
498.14	9757.2	
498.34	9531.9	
498.53	6972	
498.73	7670.3	
498.93	8747.6	
499.13	9187.2	
499.33	7559.1	
499.52	7800.7	
499.72	9374.2	
499.92	9446.6	
500.12	7214.3	
500.32	7482.6	
500.51	9602.9	
500.71	9277.3	
500.91	8163.2	
501.11	7875.1	
501.31	9439.1	
501.5	9763.3	
501.7	8348.2	
501.9	7576.8	
502.1	9357.2	
502.29	9563.3	
502.49	7940.7	
502.69	8290.2	
502.89	9470.5	
503.09	9568.8	
503.28	7169.3	
503.48	7238.9	
503.68	8843.8	
503.88	8907.3	
504.07	8000.7	
504.27	7613.7	
504.47	9145.5	
504.67	9266.4	
504.86	7954.3	
505.06	7703.1	
505.26	8985.1	
505.46	10178	
505.65	7679.9	
505.85	7771.4	
506.05	8849.3	
506.25	9257.5	
506.44	7043.6	
506.64	7669.6	
506.84	8744.1	
507.04	9413.8	
507.23	7211.6	
507.43	7649.2	
507.63	10171	
507.83	8849.3	
508.02	7600.7	
508.22	7258.7	
508.42	10446	
508.62	8702.5	
508.81	7427.3	
509.01	7819.1	
509.21	8566.7	
509.4	8856.8	
509.6	7557	
509.8	7231.4	
510	8834.3	
510.19	9828.9	
510.39	7142.6	
510.59	7226.6	
510.79	8713.4	
510.98	9742.9	
511.18	7402.7	
511.38	7408.2	
511.57	9350.3	
511.77	9165.3	
511.97	7887.4	
512.17	7210.2	
512.36	9396.8	
512.56	9180.4	
512.76	7167.9	
512.95	6984.3	
513.15	9437.7	
513.35	8304.5	
513.55	7836.9	
513.74	7207.5	
513.94	9354.4	
514.14	8830.2	
514.33	7988.4	
514.53	7692.9	
514.73	8991.9	
514.92	8961.9	
515.12	7302.4	
515.32	7154.9	
515.51	9156.5	
515.71	9509.4	
515.91	8572.8	
516.11	7258.7	
516.3	10374	
516.5	8893.6	
516.7	7787.1	
516.89	8172.8	
517.09	9069.1	
517.29	8946.9	
517.48	7969.3	
517.68	7512.6	
517.88	8686.8	
518.07	9228.1	
518.27	7838.9	
518.47	7144.7	
518.66	9694.4	
518.86	8665.6	
519.06	7034.8	
519.25	7391.1	
519.45	8977.6	
519.65	9973.6	
519.84	7804.8	
520.04	8555	
520.24	10329	
520.43	9336.7	
520.63	7626.6	
520.83	7461.4	
521.02	8822	
521.22	9294.4	
521.42	7793.2	
521.61	8262.9	
521.81	8901.2	
522.01	9159.9	
522.2	7774.8	
522.4	7538.6	
522.6	9486.2	
522.79	8491.6	
522.99	7654.6	
523.18	7169.3	
523.38	9405	
523.58	9371.5	
523.77	8624	
523.97	7326.3	
524.17	10731	
524.36	10071	
524.56	8378.9	
524.76	8066.9	
524.95	9445.9	
525.15	9242.5	
525.34	8007.6	
525.54	8022.6	
525.74	9868.5	
525.93	9127.1	
526.13	8884.8	
526.33	8030.8	
526.52	10116	
526.72	9787.2	
526.91	9041.8	
527.11	8425.3	
527.31	10152	
527.5	10572	
527.7	8421.9	
527.89	7702.4	
528.09	9519.6	
528.29	9936.1	
528.48	8751	
528.68	8507.3	
528.87	10241	
529.07	10199	
529.27	8627.4	
529.46	8212.4	
529.66	10039	
529.85	10421	
530.05	8037.6	
530.25	8586.5	
530.44	11129	
530.64	9893.7	
530.83	8396.7	
531.03	8548.2	
531.23	10316	
531.42	10150	
531.62	9088.2	
531.81	8604.9	
532.01	10507	
532.21	10792	
532.4	8384.4	
532.6	8713.4	
532.79	11171	
532.99	10643	
533.18	8852.7	
533.38	9595.4	
533.58	10385	
533.77	10804	
533.97	8949.6	
534.16	9464.3	
534.36	11028	
534.55	10423	
534.75	9680.7	
534.95	8989.9	
535.14	11233	
535.34	10417	
535.53	8686.1	
535.73	10256	
535.92	11498	
536.12	10539	
536.31	8811.7	
536.51	9691.7	
536.71	10819	
536.9	10454	
537.1	8893	
537.29	9076.6	
537.49	11191	
537.68	10423	
537.88	9354.4	
538.07	8644.5	
538.27	10654	
538.46	11387	
538.66	8753.7	
538.86	9081.4	
539.05	10690	
539.25	10993	
539.44	9440.5	
539.64	8969.4	
539.83	10606	
540.03	11306	
540.22	8864.3	
540.42	8899.1	
540.61	10712	
540.81	10746	
541	9296.4	
541.2	9738.8	
541.39	10297	
541.59	10657	
541.78	9612.5	
541.98	8786.5	
542.18	10225	
542.37	10139	
542.57	9125.1	
542.76	9461.6	
542.96	10122	
543.15	10576	
543.35	9084.1	
543.54	8568	
543.74	10737	
543.93	10459	
544.13	8991.3	
544.32	9743.6	
544.52	10625	
544.71	10118	
544.91	8319.5	
545.1	9230.2	
545.3	10081	
545.49	10606	
545.69	8314.1	
545.88	8701.1	
546.08	11301	
546.27	10996	
546.47	9161.9	
546.66	8634.2	
546.86	10780	
547.05	11190	
547.24	8639	
547.44	8666.3	
547.63	9979.8	
547.83	10818	
548.02	8860.2	
548.22	9034.3	
548.41	9878.7	
548.61	10720	
548.8	8480	
549	8406.9	
549.19	10398	
549.39	10597	
549.58	8285.4	
549.78	8766.7	
549.97	10654	
550.17	10134	
550.36	9383.1	
550.55	10025	
550.75	10110	
550.94	10800	
551.14	8361.2	
551.33	8609	
551.53	9679.4	
551.72	10419	
551.92	8696.4	
552.11	8566.7	
552.31	10353	
552.5	10262	
552.69	9719	
552.89	8206.2	
553.08	10462	
553.28	10099	
553.47	8472.4	
553.67	9314.8	
553.86	10849	
554.06	9475.3	
554.25	7855.3	
554.44	8263.6	
554.64	11372	
554.83	10961	
555.03	8320.2	
555.22	8540.7	
555.42	10425	
555.61	10280	
555.8	8429.4	
556	8638.3	
556.19	9652.1	
556.39	10507	
556.58	8449.9	
556.78	8392.6	
556.97	10164	
557.16	9894.4	
557.36	9349	
557.55	8216.5	
557.75	9424.8	
557.94	10796	
558.13	8244.4	
558.33	8066.9	
558.52	10584	
558.72	9719	
558.91	8159.1	
559.1	8265.6	
559.3	9445.2	
559.49	9249.3	
559.69	7821.2	
559.88	8500.4	
560.07	10142	
560.27	10447	
560.46	8688.8	
560.66	8755.7	
560.85	9915.6	
561.04	9262.3	
561.24	8135.9	
561.43	8113.4	
561.63	9478.7	
561.82	9651.4	
562.01	9124.4	
562.21	8342.1	
562.4	9973.6	
562.59	10746	
562.79	8340	
562.98	8084	
563.18	10027	
563.37	11016	
563.56	8665.6	
563.76	8069.7	
563.95	9584.5	
564.14	9648	
564.34	8384.4	
564.53	8132.5	
564.73	10036	
564.92	10212	
565.11	8495.7	
565.31	8022.6	
565.5	10448	
565.69	9654.8	
565.89	8267.6	
566.08	8413.7	
566.27	10387	
566.47	10647	
566.66	8902.5	
566.85	7920.2	
567.05	10124	
567.24	9602.9	
567.44	8199.4	
567.63	9140.1	
567.82	10281	
568.02	9842.5	
568.21	8226	
568.4	8406.9	
568.6	9927.2	
568.79	10013	
568.98	8070.4	
569.18	8150.9	
569.37	10011	
569.56	11568	
569.76	8490.2	
569.95	9260.9	
570.14	10256	
570.34	10215	
570.53	8112	
570.72	8166.6	
570.91	10609	
571.11	9962.7	
571.3	8522.3	
571.49	9140.8	
571.69	10028	
571.88	9625.5	
572.07	8850	
572.27	8786.5	
572.46	9666.4	
572.65	10277	
572.85	8248.5	
573.04	8535.3	
573.23	10582	
573.43	10052	
573.62	8159.8	
573.81	8613.8	
574	10200	
574.2	9987.9	
574.39	8394.6	
574.58	8560.5	
574.78	10828	
574.97	10214	
575.16	8839.7	
575.36	8995.4	
575.55	10644	
575.74	10697	
575.93	8189.8	
576.13	9138	
576.32	10176	
576.51	10429	
576.71	8632.2	
576.9	9584.5	
577.09	10835	
577.28	10501	
577.48	8860.9	
577.67	8161.2	
577.86	10201	
578.05	10404	
578.25	8636.3	
578.44	8688.2	
578.63	10309	
578.83	11215	
579.02	8187.1	
579.21	9298.5	
579.4	10395	
579.6	10215	
579.79	8760.5	
579.98	10428	
580.17	10669	
580.37	10749	
580.56	8454	
580.75	8976.9	
580.94	10918	
581.14	10985	
581.33	9362.6	
581.52	8464.9	
581.71	10530	
581.91	11189	
582.1	8445.1	
582.29	8844.5	
582.48	10275	
582.68	10287	
582.87	9104.6	
583.06	8914.8	
583.25	10653	
583.45	10116	
583.64	9336.7	
583.83	9861.7	
584.02	10297	
584.21	10593	
584.41	9265	
584.6	8824	
584.79	10425	
584.98	10897	
585.18	8471.1	
585.37	8418.5	
585.56	10126	
585.75	10540	
585.94	8533.2	
586.14	9022.7	
586.33	10966	
586.52	10238	
586.71	8914.1	
586.91	8719.6	
587.1	9800.9	
587.29	10612	
587.48	8546.2	
587.67	8484.7	
587.87	10485	
588.06	10336	
588.25	9438.4	
588.44	8940.7	
588.63	10142	
588.83	10561	
589.02	8482	
589.21	8327	
589.4	9891.7	
589.59	9758.6	
589.78	7694.9	
589.98	7927	
590.17	9440.5	
590.36	9737.4	
590.55	7273.7	
590.74	7773.4	
590.94	10595	
591.13	9539.4	
591.32	7686.7	
591.51	7399.3	
591.7	9759.3	
591.89	9545.6	
592.09	7359	
592.28	7849.9	
592.47	8912.1	
592.66	10329	
592.85	7548.8	
593.05	7673.7	
593.24	9428.2	
593.43	9968.8	
593.62	7706.5	
593.81	8043.1	
594	9420.7	
594.19	9548.3	
594.39	7693.5	
594.58	7518.1	
594.77	9761.3	
594.96	10051	
595.15	7562.5	
595.34	8028.7	
595.54	9609.8	
595.73	8933.2	
595.92	7040.2	
596.11	7841	
596.3	9911.5	
596.49	9089.6	
596.68	7721.5	
596.88	8069.7	
597.07	9693	
597.26	8907.3	
597.45	7376.8	
597.64	8239	
597.83	9133.3	
598.02	9593.4	
598.22	7434.8	
598.41	7881.3	
598.6	9423.4	
598.79	8931.9	
598.98	7443.7	
599.17	8092.2	
599.36	9427.5	
599.55	10221	
599.74	8921.6	
599.94	8805.6	
600.13	9797.5	
600.32	8934.6	
600.51	7222.5	
600.7	7301.7	
600.89	10244	
601.08	10260	
601.27	7131.7	
601.47	7831.4	
601.66	9782.5	
601.85	10142	
602.04	7685.3	
602.23	7743.4	
602.42	9015.2	
602.61	9379.7	
602.8	7504.4	
602.99	7350.2	
603.18	9269.1	
603.37	9260.2	
603.57	7871.7	
603.76	8191.2	
603.95	9871.2	
604.14	9485.5	
604.33	7430	
604.52	7682.6	
604.71	9482.1	
604.9	9067.7	
605.09	8180.3	
605.28	7985	
605.47	9808.4	
605.66	9519	
605.86	7948.2	
606.05	7456.7	
606.24	9857.6	
606.43	8677.9	
606.62	7696.3	
606.81	8219.9	
607	9720.3	
607.19	9131.2	
607.38	7228	
607.57	7423.2	
607.76	8908	
607.95	8602.2	
608.14	7773.4	
608.33	8142	
608.52	8953.7	
608.72	9540.1	
608.91	7159.7	
609.1	7058.7	
609.29	8974.2	
609.48	8619.2	
609.67	7793.2	
609.86	7204.8	
610.05	8751	
610.24	8966.7	
610.43	7064.8	
610.62	6731.7	
610.81	9761.3	
611	9613.8	
611.19	7148.1	
611.38	7593.9	
611.57	9231.6	
611.76	10036	
611.95	7016.3	
612.14	6818.4	
612.33	8996.7	
612.52	8563.2	
612.71	7340.6	
612.9	6702.3	
613.09	8383	
613.28	10036	
613.47	7190.4	
613.66	7821.2	
613.85	9129.2	
614.04	8637	
614.24	7150.1	
614.43	6624.5	
614.62	9245.9	
614.81	9072.5	
615	7591.8	
615.19	7569.3	
615.38	8583.7	
615.57	8923.7	
615.76	7451.2	
615.95	8186.4	
616.14	9201.5	
616.33	8850.6	
616.52	7695.6	
616.71	7811.6	
616.9	9114.8	
617.09	9049.3	
617.28	7254.6	
617.47	8118.1	
617.66	8538	
617.85	8564.6	
618.04	7977.5	
618.22	7576.8	
618.41	8789.9	
618.6	9454.8	
618.79	7481.9	
618.98	7272.3	
619.17	9769.5	
619.36	8398	
619.55	7422.5	
619.74	7396.6	
619.93	9206.3	
620.12	8802.9	
620.31	7880.6	
620.5	8086.7	
620.69	9641.8	
620.88	10014	
621.07	8508.6	
621.26	7770.7	
621.45	9310.7	
621.64	9380.4	
621.83	7945.4	
622.02	7339.9	
622.21	9354.4	
622.4	9297.1	
622.59	8325	
622.78	8125	
622.97	9007.6	
623.16	9665	
623.35	7947.5	
623.54	7259.4	
623.72	9076.6	
623.91	9151	
624.1	8207.6	
624.29	7180.9	
624.48	10093	
624.67	9470.5	
624.86	8011	
625.05	7337.9	
625.24	10121	
625.43	8995.4	
625.62	9270.5	
625.81	7439.6	
626	9569.5	
626.19	9193.3	
626.38	8099.7	
626.56	7559.1	
626.75	9010.4	
626.94	9664.4	
627.13	8079.9	
627.32	7096.9	
627.51	9586.5	
627.7	10408	
627.89	7126.2	
628.08	8082	
628.27	8819.9	
628.46	9075.9	
628.65	7501	
628.83	7197.9	
629.02	9540.1	
629.21	8905.3	
629.4	7756.3	
629.59	7753.6	
629.78	8884.8	
629.97	9578.3	
630.16	7989.8	
630.35	7552.9	
630.54	10023	
630.72	9763.3	
630.91	7591.8	
631.1	7843.7	
631.29	9234.3	
631.48	9352.4	
631.67	8076.5	
631.86	7481.9	
632.05	9076.6	
632.24	9239.1	
632.42	7356.3	
632.61	7787.7	
632.8	9105.3	
632.99	8897.1	
633.18	7836.2	
633.37	8017.1	
633.56	9308.7	
633.75	9228.1	
633.93	7845.1	
634.12	7604.8	
634.31	9979.1	
634.5	9589.3	
634.69	7508.5	
634.88	8013	
635.07	9163.3	
635.25	9544.2	
635.44	8267	
635.63	8392.6	
635.82	9054.8	
636.01	8551.6	
636.2	8211.7	
636.39	7854	
636.57	9828.9	
636.76	9448	
636.95	7405.5	
637.14	8363.2	
637.33	9327.1	
637.52	9884.9	
637.7	7268.9	
637.89	7979.6	
638.08	9076.6	
638.27	9996.1	
638.46	8000	
638.65	8281.3	
638.83	10158	
639.02	8824	
639.21	7901.7	
639.4	8212.4	
639.59	9221.3	
639.78	8852	
639.96	7222.5	
640.15	7369.3	
640.34	9121.7	
640.53	9161.2	
640.72	7114	
640.91	7296.9	
641.09	8605.6	
641.28	9632.3	
641.47	7354.3	
641.66	7946.8	
641.85	9097.1	
642.03	9289.6	
642.22	7749.5	
642.41	7311.2	
642.6	8661.5	
642.79	8159.1	
642.97	7217	
643.16	7681.2	
643.35	8594.6	
643.54	8406.9	
643.73	7030.7	
643.91	7640.3	
644.1	8288.8	
644.29	8860.9	
644.48	7121.5	
644.67	7073.7	
644.85	8492.2	
645.04	8759.8	
645.23	6824.5	
645.42	7071.6	
645.6	8311.3	
645.79	9132.6	
645.98	6959	
646.17	6251.1	
646.36	8045.8	
646.54	8482	
646.73	7401.4	
646.92	6520.7	
647.11	8129.1	
647.29	8884.1	
647.48	6619	
647.67	6401.3	
647.86	8938	
648.05	9030.2	
648.23	6786.3	
648.42	7793.2	
648.61	8602.2	
648.8	8420.6	
648.98	6371.2	
649.17	6679.1	
649.36	8004.8	
649.55	7742	
649.73	6500.3	
649.92	7132.4	
650.11	7927	
650.3	8254	
650.48	6562.4	
650.67	6441.5	
650.86	8461.5	
651.05	7481.9	
651.23	6548	
651.42	6553.5	
651.61	7962.5	
651.79	7974.8	
651.98	6669.6	
652.17	6408.8	
652.36	8273.8	
652.54	7520.8	
652.73	6496.8	
652.92	6270.9	
653.11	8279.9	
653.29	8335.2	
653.48	5890	
653.67	6589	
653.85	8006.2	
654.04	8881.4	
654.23	6734.4	
654.42	6420.4	
654.6	7650.5	
654.79	8071.7	
654.98	5995.1	
655.16	6391	
655.35	7315.3	
655.54	7226.6	
655.73	5852.4	
655.91	5735.7	
656.1	8053.3	
656.29	7158.3	
656.47	5550.7	
656.66	6787.7	
656.85	7464.2	
657.03	7473	
657.22	6049	
657.41	6072.2	
657.59	7567.2	
657.78	7435.5	
657.97	5807.4	
658.16	6354.2	
658.34	8031.5	
658.53	8351.6	
658.72	7018.4	
658.9	7345.4	
659.09	7685.3	
659.28	7729	
659.46	6220.4	
659.65	6083.8	
659.84	7468.3	
660.02	7942	
660.21	6194.4	
660.4	5965.1	
660.58	8134.5	
660.77	7688.1	
660.96	6514.6	
661.14	5818.3	
661.33	8649.3	
661.52	8578.9	
661.7	5722.7	
661.89	8322.3	
662.08	7433.4	
662.26	7084.6	
662.45	5885.9	
662.64	5994.4	
662.82	7993.9	
663.01	7324.9	
663.2	5926.1	
663.38	6550.1	
663.57	7791.8	
663.75	7711.3	
663.94	6226.5	
664.13	7183.6	
664.31	7355.6	
664.5	7893.6	
664.69	6326.2	
664.87	6771.3	
665.06	7189.7	
665.25	7721.5	
665.43	6992.4	
665.62	6976.7	
665.8	7952.3	
665.99	7419.8	
666.18	6204	
666.36	6320	
666.55	7895.6	
666.74	7818.5	
666.92	6006.7	
667.11	7107.8	
667.29	7499	
667.48	7903.1	
667.67	6857.3	
667.85	6004.6	
668.04	7351.5	
668.22	7363.8	
668.41	6215.6	
668.6	6451.8	
668.78	7286	
668.97	7409.6	
669.15	6486.6	
669.34	5592.3	
669.53	7245	
669.71	7555	
669.9	5800.5	
670.08	6344.6	
670.27	7202	
670.46	7681.9	
670.64	6348.7	
670.83	6564.4	
671.01	7136.5	
671.2	7604.1	
671.38	5894.7	
671.57	5748	
671.76	8041.7	
671.94	8465.6	
672.13	5728.9	
672.31	6520	
672.5	7819.8	
672.69	7217	
672.87	5821	
673.06	6025.1	
673.24	7623.9	
673.43	7303.1	
673.61	6345.3	
673.8	6023.1	
673.98	7727.7	
674.17	7846.5	
674.36	6482.5	
674.54	6399.2	
674.73	7513.3	
674.91	7903.1	
675.1	6145.3	
675.28	5883.8	
675.47	7433.4	
675.65	7783.6	
675.84	6001.2	
676.03	6342.6	
676.21	7243.7	
676.4	6869.6	
676.58	6646.3	
676.77	6520	
676.95	8427.4	
677.14	7251.9	
677.32	5820.3	
677.51	5691.3	
677.69	7787.1	
677.88	6943.3	
678.06	5770.5	
678.25	5821	
678.44	7357.7	
678.62	7236.8	
678.81	5616.2	
678.99	6217	
679.18	8007.6	
679.36	7688.8	
679.55	6057.2	
679.73	6468.2	
679.92	7646.4	
680.1	7226.6	
680.29	6958.3	
680.47	5978	
680.66	7207.5	
680.84	7819.1	
681.03	5557.5	
681.21	6399.2	
681.4	7251.2	
681.58	7158.3	
681.77	5871.5	
681.95	5776	
682.14	7890.1	
682.32	8059.4	
682.51	6522.8	
682.69	5609.4	
682.88	7180.2	
683.06	7542.7	
683.25	6253.1	
683.43	6655.9	
683.62	7437.5	
683.8	7696.9	
683.99	6651.8	
684.17	6143.2	
684.36	8329.1	
684.54	7336.5	
684.73	5554.1	
684.91	5710.4	
685.1	7533.8	
685.28	7028.6	
685.46	6034	
685.65	5988.3	
685.83	7512.6	
686.02	7056.6	
686.2	5604.6	
686.39	5673.6	
686.57	6888	
686.76	7949.5	
686.94	5572.5	
687.13	5748.6	
687.31	7407.5	
687.5	7182.2	
687.68	5307.7	
687.86	6156.9	
688.05	8445.8	
688.23	6761.7	
688.42	6244.9	
688.6	5732.3	
688.79	7116	
688.97	7068.9	
689.16	6176.7	
689.34	5351.3	
689.52	7674.4	
689.71	7899	
689.89	6284.5	
690.08	5784.8	
690.26	7350.8	
690.45	7292.8	
690.63	6492.7	
690.81	5949.3	
691	7318.8	
691.18	7218.4	
691.37	6072.9	
691.55	7636.9	
691.74	7036.8	
691.92	8560.5	
692.1	6029.9	
692.29	5664.7	
692.47	7310.6	
692.66	6749.4	
692.84	5765.7	
693.02	6169.8	
693.21	6880.5	
693.39	7286	
693.58	6300.2	
693.76	5758.9	
693.94	8170	
694.13	7964.6	
694.31	5933.6	
694.5	6634.1	
694.68	7191.8	
694.86	7552.2	
695.05	6213.5	
695.23	6292.7	
695.42	7821.9	
695.6	9472.5	
695.78	6647	
695.97	6051.7	
696.15	7978.9	
696.34	7375.4	
696.52	5928.9	
696.7	6590.4	
696.89	7637.6	
697.07	7187.7	
697.25	6423.8	
697.44	7485.3	
697.62	7674.4	
697.81	7879.2	
697.99	6253.8	
698.17	6545.3	
698.36	7128.3	
698.54	7638.9	
698.72	6417.7	
698.91	5753.4	
699.09	7402.7	
699.28	7142.6	
699.46	6185.5	
699.64	6073.6	
699.83	7204.8	
700.01	8084.7	
700.19	6737.8	
700.38	5521.3	
700.56	8058.1	
700.74	7373.4	
700.93	5864.7	
701.11	6488.6	
701.29	7785.7	
701.48	8497.7	
701.66	6083.1	
701.84	6149.4	
702.03	7473.7	
702.21	7943.4	
702.39	5846.3	
702.58	6270.9	
702.76	7921.5	
702.94	7974.8	
703.13	5847	
703.31	7677.2	
703.49	7336.5	
703.68	8489.5	
703.86	6025.8	
704.04	6689.3	
704.23	7811.6	
704.41	7968.6	
704.59	6111.1	
704.78	7019.8	
704.96	8886.1	
705.14	8023.3	
705.33	6002.6	
705.51	6572.6	
705.69	7587.7	
705.87	8187.8	
706.06	6794.5	
706.24	5952.1	
706.42	7843	
706.61	7983	
706.79	6908.5	
706.97	5961	
707.16	7442.3	
707.34	7922.2	
707.52	6828.6	
707.7	6186.2	
707.89	7529	
708.07	7311.9	
708.25	6774	
708.44	6989	
708.62	7412.3	
708.8	8350.3	
708.98	6956.9	
709.17	6229.9	
709.35	7763.8	
709.53	7793.2	
709.72	6020.3	
709.9	6257.9	
710.08	8077.2	
710.26	7991.2	
710.45	7158.3	
710.63	6231.3	
710.81	7683.3	
710.99	7703.8	
711.18	6723.5	
711.36	6311.2	
711.54	7563.8	
711.72	8092.9	
711.91	6295.5	
712.09	5903.6	
712.27	7690.1	
712.45	8137.9	
712.64	6432	
712.82	5728.2	
713	7272.3	
713.18	7302.4	
713.37	5784.1	
713.55	6750.8	
713.73	7930.4	
713.91	6898.9	
714.1	5988.3	
714.28	5535	
714.46	7457.3	
714.64	6871.6	
714.83	5000.5	
715.01	5606	
715.19	6864.8	
715.37	6266.1	
715.55	5239.4	
715.74	5276.3	
715.92	7464.2	
716.1	5801.2	
716.28	6304.3	
716.47	5489.9	
716.65	6478.4	
716.83	6446.3	
717.01	5386.2	
717.19	5363.6	
717.38	8092.2	
717.56	6227.9	
717.74	5573.9	
717.92	4954.7	
718.1	7188.4	
718.29	6534.4	
718.47	4758.8	
718.65	5196.4	
718.83	7236.8	
719.01	7102.4	
719.2	4758.8	
719.38	5679	
719.56	7032	
719.74	8227.4	
719.92	5434.6	
720.11	6027.2	
720.29	7083.9	
720.47	6379.4	
720.65	4949.9	
720.83	5529.5	
721.02	6616.3	
721.2	6348.7	
721.38	5481.7	
721.56	4956.8	
721.74	5948	
721.92	6042.2	
722.11	5851	
722.29	5637.4	
722.47	7039.6	
722.65	6339.8	
722.83	4943.8	
723.01	5530.2	
723.2	6381.5	
723.38	6661.4	
723.56	4541	
723.74	5378	
723.92	6177.4	
724.1	6907.8	
724.29	4886.5	
724.47	5741.8	
724.65	6167.1	
724.83	6086.6	
725.01	4812	
725.19	5387.5	
725.37	6085.9	
725.56	6096.1	
725.74	4674.1	
725.92	4885.1	
726.1	6082.5	
726.28	6203.3	
726.46	5170.4	
726.64	4975.9	
726.83	6298.9	
727.01	6409.5	
727.19	4687.8	
727.37	5313.1	
727.55	6383.5	
727.73	6741.9	
727.91	4698	
728.09	4506.2	
728.28	6739.2	
728.46	7024.5	
728.64	5331.5	
728.82	5280.3	
729	7485.3	
729.18	7073	
729.36	4787.5	
729.54	6436.8	
729.72	7783.6	
729.91	6567.8	
730.09	6283.9	
730.27	5336.3	
730.45	6498.9	
730.63	6942.6	
730.81	5782.1	
730.99	5119.9	
731.17	7427.3	
731.35	6288.6	
731.53	5566.4	
731.71	5261.9	
731.9	7138.5	
732.08	7333.8	
732.26	5398.4	
732.44	5110.4	
732.62	7322.2	
732.8	6850.5	
732.98	5614.8	
733.16	4984.8	
733.34	6924.2	
733.52	5972.6	
733.7	5221	
733.88	5465.3	
734.07	6779.5	
734.25	6567.8	
734.43	4857.8	
734.61	6008.7	
734.79	7727.7	
734.97	6509.8	
735.15	4955.4	
735.33	5238	
735.51	6751.5	
735.69	6541.2	
735.87	6057.2	
736.05	5412.1	
736.23	6569.2	
736.41	6380.8	
736.59	5247.6	
736.77	5287.2	
736.95	6937.2	
737.13	6503.7	
737.32	4947.9	
737.5	5200.5	
737.68	7357.7	
737.86	6356.2	
738.04	4868	
738.22	6165.1	
738.4	6238.1	
738.58	6467.5	
738.76	5279	
738.94	4467.3	
739.12	6307.1	
739.3	6292	
739.48	5722.7	
739.66	5460.6	
739.84	6483.2	
740.02	6450.4	
740.2	4584	
740.38	4816.8	
740.56	6757.6	
740.74	5836	
740.92	5238.7	
741.1	5177.9	
741.28	6290.7	
741.46	6114.6	
741.64	4907.6	
741.82	5335	
742	6320	
742.18	6238.1	
742.36	5031.9	
742.54	4718.5	
742.72	6764.4	
742.9	5714.5	
743.08	5235.3	
743.26	4457.1	
743.44	6834.1	
743.62	6710.5	
743.8	5416.9	
743.98	4648.9	
744.16	6489.3	
744.34	6210.1	
744.52	5308.3	
744.7	5242.1	
744.88	6597.9	
745.06	6105	
745.24	5352	
745.42	5442.8	
745.6	6647	
745.78	6457.2	
745.96	4369	
746.14	4649.6	
746.32	7150.1	
746.5	6518.7	
746.68	5022.3	
746.86	4574.5	
747.03	6873	
747.21	5552.7	
747.39	5023	
747.57	4603.8	
747.75	6197.8	
747.93	6443.6	
748.11	4504.8	
748.29	4505.5	
748.47	7481.2	
748.65	6025.8	
748.83	5091.9	
749.01	4909.7	
749.19	6410.8	
749.37	5698.8	
749.55	4791.6	
749.73	4887.1	
749.91	6169.2	
750.09	5851	
750.26	4876.2	
750.44	4366.3	
750.62	6109.1	
750.8	6072.2	
750.98	4349.9	
751.16	4521.9	
751.34	6186.2	
751.52	5677	
751.7	5103.5	
751.88	4353.3	
752.06	6483.9	
752.24	6265.4	
752.42	4259.8	
752.59	4514.4	
752.77	6015.6	
752.95	7007.5	
753.13	5046.9	
753.31	4568.3	
753.49	5784.1	
753.67	6105	
753.85	4817.5	
754.03	4449.6	
754.21	6341.9	
754.38	6559.6	
754.56	4428.4	
754.74	3781.2	
754.92	5698.8	
755.1	6125.5	
755.28	3768.9	
755.46	3760.8	
755.64	6655.9	
755.82	6682.5	
755.99	3803.1	
756.17	3874.1	
756.35	4667.3	
756.53	5838.8	
756.71	2966.1	
756.89	3670.6	
757.07	5436.7	
757.25	4799.1	
757.42	4085.7	
757.6	4818.2	
757.78	5558.9	
757.96	4878.3	
758.14	3966.9	
758.32	3564.1	
758.5	4496.7	
758.67	5196.4	
758.85	3768.9	
759.03	3867.9	
759.21	5317.9	
759.39	4843.4	
759.57	3474.7	
759.75	4401.8	
759.92	5840.8	
760.1	5310.4	
760.28	4618.9	
760.46	4804.5	
760.64	5066.7	
760.82	4934.9	
760.99	4526.7	
761.17	3907.5	
761.35	5782.8	
761.53	4963.6	
761.71	4035.2	
761.89	4560.8	
762.06	5670.1	
762.24	5270.8	
762.42	4164.2	
762.6	3960.1	
762.78	5280.3	
762.96	5821	
763.13	4387.4	
763.31	4181.3	
763.49	5910.4	
763.67	5252.4	
763.85	4759.5	
764.02	5210.7	
764.2	6184.9	
764.38	5454.4	
764.56	4071.4	
764.74	4678.2	
764.91	6135	
765.09	5321.3	
765.27	3848.1	
765.45	3658.4	
765.63	6298.9	
765.8	6047	
765.98	3482.2	
766.16	3730	
766.34	5002.5	
766.52	4844.1	
766.69	4403.1	
766.87	3539.6	
767.05	5327.4	
767.23	5903.6	
767.41	3790.1	
767.58	3981.3	
767.76	5755.5	
767.94	5799.8	
768.12	3812.6	
768.29	4392.9	
768.47	5332.2	
768.65	5870.8	
768.83	3566.9	
769	4407.2	
769.18	5003.2	
769.36	5474.2	
769.54	4350.6	
769.72	3545	
769.89	5692.7	
770.07	5760.3	
770.25	3799.7	
770.43	4778.6	
770.6	6320.7	
770.78	6584.2	
770.96	3936.9	
771.14	4458.4	
771.31	5655.1	
771.49	5120.6	
771.67	3306.1	
771.85	3491.1	
772.02	4568.3	
772.2	5135.6	
772.38	4048.8	
772.55	3620.8	
772.73	5309	
772.91	5126.1	
773.09	3899.3	
773.26	4045.4	
773.44	5331.5	
773.62	5053.7	
773.8	3570.3	
773.97	3381.9	
774.15	5348.6	
774.33	5062.6	
774.5	3470.6	
774.68	3710.2	
774.86	5423.7	
775.04	5063.9	
775.21	3539.6	
775.39	3468.6	
775.57	5294.7	
775.74	5516.5	
775.92	3360.7	
776.1	3274.7	
776.27	5213.4	
776.45	6102.3	
776.63	3491.1	
776.81	3152.5	
776.98	5008	
777.16	5747.3	
777.34	3532.1	
777.51	3818.1	
777.69	5022.3	
777.87	4737	
778.04	3670.6	
778.22	4063.9	
778.4	4783.4	
778.57	5213.4	
778.75	3059.7	
778.93	3287.7	
779.1	4664.6	
779.28	4500.8	
779.46	3025.5	
779.64	3366.9	
779.81	5354.1	
779.99	6051.7	
780.17	4030.4	
780.34	4149.9	
780.52	4989.5	
780.69	5036	
780.87	3731.4	
781.05	3354.6	
781.22	5008	
781.4	5074.2	
781.58	3382.6	
781.75	2823.5	
781.93	5005.9	
782.11	4495.3	
782.28	4102.8	
782.46	3467.2	
782.64	4410	
782.81	5162.2	
782.99	3594.2	
783.17	3489.7	
783.34	5035.3	
783.52	4485.1	
783.69	3618.1	
783.87	4242.7	
784.05	4496.7	
784.22	4504.8	
784.4	4188.1	
784.58	3655.6	
784.75	5346.6	
784.93	4648.9	
785.1	3403.7	
785.28	3881.6	
785.46	5075.5	
785.63	4511.7	
785.81	3370.3	
785.99	3244.7	
786.16	4706.2	
786.34	4961.5	
786.51	3314.3	
786.69	3545.7	
786.87	4333.5	
787.04	4733.5	
787.22	3210.5	
787.39	3904.1	
787.57	4522.6	
787.75	5317.2	
787.92	4043.4	
788.1	3930.1	
788.27	4531.5	
788.45	4306.2	
788.63	3755.3	
788.8	2803	
788.98	4982	
789.15	4244.8	
789.33	2921.8	
789.5	3420.8	
789.68	5195.7	
789.86	5292	
790.03	3693.9	
790.21	3257	
790.38	5254.4	
790.56	4605.2	
790.73	3175	
790.91	3194.8	
791.09	4551.3	
791.26	5117.9	
791.44	3390.8	
791.61	2994.8	
791.79	4528.1	
791.96	4607.9	
792.14	3056.3	
792.32	2727.9	
792.49	4512.4	
792.67	4608.6	
792.84	3125.2	
793.02	2913.6	
793.19	4900.1	
793.37	5372.5	
793.54	2746.3	
793.72	3040.6	
793.89	5413.5	
794.07	4517.1	
794.25	3399.6	
794.42	2792.7	
794.6	5305.6	
794.77	4965.6	
794.95	3628.3	
795.12	3198.2	
795.3	4496.7	
795.47	5010	
795.65	3556	
795.82	3400.3	
796	4379.9	
796.17	5754.1	
796.35	3290.4	
796.52	3857.7	
796.7	4937	
796.87	5012.7	
797.05	3308.2	
797.22	3928.7	
797.4	5014.1	
797.57	5694	
797.75	3413.3	
797.92	3207.1	
798.1	5231.9	
798.27	4397	
798.45	2828.2	
798.62	2987.3	
798.8	4759.5	
798.97	5108.3	
799.15	3598.3	
799.32	3409.2	
799.5	4181.3	
799.67	4758.8	
799.85	3674.7	
800.02	2766.8	
800.2	4468.7	
800.37	4664.6	
800.55	3747.8	
800.72	3196.2	
800.9	5048.2	
801.07	5347.9	
801.25	4237.9	
801.42	3459	
801.6	5100.8	
801.77	4782	
801.95	3229.6	
802.12	3140.9	
802.29	4936.3	
802.47	4802.5	
802.64	3466.5	
802.82	2763.4	
802.99	4480.3	
803.17	5162.9	
803.34	3408.5	
803.52	3089.7	
803.69	5638.7	
803.87	4278.9	
804.04	3391.4	
804.21	3471.3	
804.39	5292	
804.56	4653.7	
804.74	2916.3	
804.91	3501.3	
805.09	4457.1	
805.26	4506.2	
805.44	3020.1	
805.61	3210.5	
805.78	5001.1	
805.96	4999.8	
806.13	3466.5	
806.31	3712.3	
806.48	4123.2	
806.66	4500.8	
806.83	3518.4	
807	3407.1	
807.18	4487.8	
807.35	4732.2	
807.53	3395.5	
807.7	2839.2	
807.87	5345.2	
808.05	4480.3	
808.22	3705.5	
808.4	2798.9	
808.57	4483	
808.74	4184.7	
808.92	3162.7	
809.09	3878.2	
809.27	4488.5	
809.44	4855.1	
809.61	2828.9	
809.79	3084.2	
809.96	5425.1	
810.14	5020.9	
810.31	2718.3	
810.48	3319.8	
810.66	4575.2	
810.83	5102.9	
811.01	3138.9	
811.18	3379.1	
811.35	5045.5	
811.53	4066.6	
811.7	3807.9	
811.87	3466.5	
812.05	4614.1	
812.22	4478.9	
812.39	3062.4	
812.57	2997.5	
812.74	4532.2	
812.92	5726.8	
813.09	3306.1	
813.26	3566.2	
813.44	5573.9	
813.61	4394.3	
813.78	2811.2	
813.96	3625.6	
814.13	4457.1	
814.3	4250.9	
814.48	3914.4	
814.65	3291.8	
814.82	5381.4	
815	4300.7	
815.17	3367.5	
815.34	4010.6	
815.52	4463.9	
815.69	4407.2	
815.87	3276.1	
816.04	3247.4	
816.21	4474.1	
816.38	4100	
816.56	3261	
816.73	3041.9	
816.9	5558.9	
817.08	5008.6	
817.25	3091.1	
817.42	3704.1	
817.6	4180.6	
817.77	4465.9	
817.94	3376.4	
818.12	3031	
818.29	4304.8	
818.46	6280.4	
818.64	3230.3	
818.81	2986.6	
818.98	4308.9	
819.16	5907.7	
819.33	3569.6	
819.5	3401.7	
819.67	4803.9	
819.85	5280.3	
820.02	3293.1	
820.19	3498.6	
820.37	4672.1	
820.54	4439.3	
820.71	3423.5	
820.88	4197.7	
821.06	4622.9	
821.23	4306.9	
821.4	3429.7	
821.58	3388.7	
821.75	5071.5	
821.92	4616.8	
822.09	2824.8	
822.27	2874.7	
822.44	4489.1	
822.61	4453	
822.79	2822.1	
822.96	5115.1	
823.13	4786.1	
823.3	4234.5	
823.48	3195.5	
823.65	2934.7	
823.82	5094.7	
823.99	4169.7	
824.17	4031.1	
824.34	2942.9	
824.51	5741.1	
824.68	4535.6	
824.86	3091.8	
825.03	3353.9	
825.2	4478.9	
825.37	5308.3	
825.55	3037.1	
825.72	3312.2	
825.89	5773.9	
826.06	5313.1	
826.24	3266.5	
826.41	3325.2	
826.58	5326.1	
826.75	4747.9	
826.92	2695.8	
827.1	2922.5	
827.27	7048.4	
827.44	5687.2	
827.61	3146.4	
827.79	3752.6	
827.96	4366.3	
828.13	4496.7	
828.3	3275.4	
828.47	2800.9	
828.65	4740.4	
828.82	4678.9	
828.99	4089.1	
829.16	3615.3	
829.34	4980.7	
829.51	4859.1	
829.68	3348.4	
829.85	3452.9	
830.02	5307	
830.2	4985.4	
830.37	2669.9	
830.54	3909.6	
830.71	5616.9	
830.88	4498	
831.05	2672.6	
831.23	3075.4	
831.4	5502.2	
831.57	5879	
831.74	3145.7	
831.91	2770.2	
832.09	4795	
832.26	5004.6	
832.43	3203	
832.6	3553.9	
832.77	4719.9	
832.94	5370.5	
833.12	2646.7	
833.29	3162.1	
833.46	4442	
833.63	6114.6	
833.8	3438.5	
833.97	3190.1	
834.15	5055.1	
834.32	4894.6	
834.49	3381.2	
834.66	3365.5	
834.83	5117.2	
835	4321.9	
835.17	3119.7	
835.35	3076.7	
835.52	4955.4	
835.69	4848.2	
835.86	3238.5	
836.03	2704	
836.2	5016.8	
836.37	4698.7	
836.55	3180.5	
836.72	3020.8	
836.89	4637.3	
837.06	5098.1	
837.23	3252.2	
837.4	3512.3	
837.57	5666.7	
837.75	6122.1	
837.92	2927.9	
838.09	3192.8	
838.26	4637.3	
838.43	5180	
838.6	3349.1	
838.77	3032.4	
838.94	5768.4	
839.11	5654.4	
839.29	3241.3	
839.46	2577	
839.63	5020.3	
839.8	4766.3	
839.97	3182.5	
840.14	3074.7	
840.31	4889.2	
840.48	5025.7	
840.65	2671.2	
840.82	3057.6	
841	4992.3	
841.17	4878.3	
841.34	2875.3	
841.51	2995.5	
841.68	4939	
841.85	4717.2	
842.02	2945.7	
842.19	2567.5	
842.36	4775.2	
842.53	4857.1	
842.7	2904	
842.87	3454.2	
843.05	6113.9	
843.22	4728.1	
843.39	2818.7	
843.56	3067.2	
843.73	4635.2	
843.9	5112.4	
844.07	4534.9	
844.24	3775.8	
844.41	6895.5	
844.58	4424.3	
844.75	2785.2	
844.92	3027.6	
845.09	5013.4	
845.26	4967.7	
845.43	2852.1	
845.6	3025.5	
845.77	4988.9	
845.94	4767.7	
846.12	3152.5	
846.29	3361.4	
846.46	5238.7	
846.63	4958.1	
846.8	2874.7	
846.97	3420.1	
847.14	5337.7	
847.31	4939.7	
847.48	3157.3	
847.65	3498.6	
847.82	5151.3	
847.99	5165	
848.16	3699.3	
848.33	3489.1	
848.5	4590.2	
848.67	5320.6	
848.84	2811.9	
849.01	2960.7	
849.18	4575.2	
849.35	4250.2	
849.52	3512.3	
849.69	2818.7	
849.86	5164.3	
850.03	5208.7	
850.2	2885.6	
850.37	3424.2	
850.54	5221	
850.71	4700.1	
850.88	3370.3	
851.05	2831.7	
851.22	4883	
851.39	5334.3	
851.56	2711.5	
851.73	3235.1	
851.9	4463.2	
852.07	5126.7	
852.24	3127.2	
852.41	2806.4	
852.58	4939.7	
852.75	4517.1	
852.92	3143.6	
853.09	2809.1	
853.26	4607.2	
853.43	5330.9	
853.6	2896.5	
853.77	2454.1	
853.94	5385.5	
854.11	4446.8	
854.28	4050.2	
854.44	3087	
854.61	5692	
854.78	5203.9	
854.95	2860.3	
855.12	3506.8	
855.29	4129.4	
855.46	5561.6	
855.63	2911.5	
855.8	3834.5	
855.97	4563.6	
856.14	5278.3	
856.31	3950.5	
856.48	3063.8	
856.65	4661.9	
856.82	4407.2	
856.99	2746.3	
857.16	3027.6	
857.33	5886.5	
857.49	4722.6	
857.66	3059	
857.83	3247.4	
858	4730.8	
858.17	4903.5	
858.34	2774.3	
858.51	2889	
858.68	5416.9	
858.85	5499.5	
859.02	3301.3	
859.19	3528	
859.36	4440	
859.52	4356.7	
859.69	2885.6	
859.86	3330	
860.03	4500.1	
860.2	5431.2	
860.37	2641.2	
860.54	2828.9	
860.71	5139.7	
860.88	5457.2	
861.05	3194.1	
861.21	3540.9	
861.38	5487.2	
861.55	4342.4	
861.72	2633.7	
861.89	3184.6	
862.06	5168.4	
862.23	5556.1	
862.4	2785.2	
862.56	2997.5	
862.73	5008	
862.9	4764.9	
863.07	3269.2	
863.24	2619.4	
863.41	4394.3	
863.58	4413.4	
863.75	2919	
863.91	3282.9	
864.08	5350.7	
864.25	5083.7	
864.42	3523.2	
864.59	3964.9	
864.76	5668.8	
864.93	4417.5	
865.09	2831	
865.26	3026.2	
865.43	5386.8	
865.6	5554.1	
865.77	2540.2	
865.94	2829.6	
866.1	5328.1	
866.27	5066	
866.44	4154	
866.61	2762	
866.78	4739	
866.95	5048.2	
867.11	2795.5	
867.28	2560	
867.45	5283.1	
867.62	4462.5	
867.79	3340.2	
867.96	2865.1	
868.12	4430.4	
868.29	5096	
868.46	2837.1	
868.63	3715.7	
868.8	5281	
868.97	5100.8	
869.13	2976.4	
869.3	2997.5	
869.47	5025.7	
869.64	5188.9	
869.81	2921.8	
869.97	2904.7	
870.14	4927.4	
870.31	5464.7	
870.48	2808.4	
870.65	3573	
870.81	4672.1	
870.98	4764.3	
871.15	3222.1	
871.32	2935.4	
871.48	4992.9	
871.65	5506.3	
871.82	2817.3	
871.99	3137.5	
872.16	5769.8	
872.32	5285.8	
872.49	2921.1	
872.66	2873.3	
872.83	5126.1	
872.99	4615.4	
873.16	3229.6	
873.33	2856.2	
873.5	4842.1	
873.67	4878.3	
873.83	3003	
874	3752.6	
874.17	4971.8	
874.34	5638.1	
874.5	3646.1	
874.67	3456.3	
874.84	5403.9	
875.01	4292.5	
875.17	3900.7	
875.34	2853.5	
875.51	4947.2	
875.68	5779.4	
875.84	3422.2	
876.01	4022.2	
876.18	5084.4	
876.34	5023	
876.51	2886.3	
876.68	2859	
876.85	4645.5	
877.01	5341.8	
877.18	3987.4	
877.35	2790.7	
877.52	4903.5	
877.68	4410.6	
877.85	2828.9	
878.02	2778.4	
878.18	4715.8	
878.35	4597.7	
878.52	2364	
878.69	3117.7	
878.85	5204.6	
879.02	5038.7	
879.19	3992.9	
879.35	3080.1	
879.52	5048.9	
879.69	5183.4	
879.86	2540.8	
880.02	3170.3	
880.19	4840.7	
880.36	5659.2	
880.52	3285.6	
880.69	3327.3	
880.86	5199.1	
881.02	5213.4	
881.19	3140.2	
881.36	3056.9	
881.52	5106.3	
881.69	4577.2	
881.86	3085.6	
882.02	3044.6	
882.19	5283.1	
882.36	6059.3	
882.52	2927.9	
882.69	3968.3	
882.86	4948.6	
883.02	4878.3	
883.19	3368.2	
883.36	3218	
883.52	5173.9	
883.69	5787.6	
883.86	2927.9	
884.02	2613.9	
884.19	5136.3	
884.36	4861.2	
884.52	3235.8	
884.69	3046	
884.86	4558.1	
885.02	5601.9	
885.19	3121.1	
885.36	3282.2	
885.52	4732.9	
885.69	4935.6	
885.86	4010.6	
886.02	3594.9	
886.19	5145.9	
886.35	4647.5	
886.52	3145	
886.69	3898	
886.85	4420.9	
887.02	5339.7	
887.19	5339.7	
887.35	5339.7	
887.52	5339.7	
887.68	5339.7	
887.85	5339.7	
888.02	5339.7	
888.18	5339.7	
888.35	5339.7	
888.51	5339.7	
888.68	5339.7	
888.85	5339.7	
889.01	5339.7	
889.18	5339.7	
889.35	5339.7	
889.51	5339.7	
889.68	5339.7	
889.84	5339.7	
890.01	5339.7	
890.17	5339.7	
890.34	5339.7	
890.51	5339.7	
890.67	5339.7	
890.84	5339.7	
891	5339.7	
891.17	5339.7	
891.34	5339.7	
891.5	5339.7	
891.67	5339.7	
891.83	5339.7	
892	5339.7	
892.16	5339.7	
892.33	5339.7	
892.5	5339.7	
892.66	5339.7	
892.83	5339.7	
892.99	5339.7	
893.16	5339.7	
893.32	5339.7	
893.49	5339.7	
893.65	5339.7	
893.82	5339.7	
893.99	5339.7	
894.15	5339.7	
894.32	5339.7	
894.48	5339.7	
894.65	5339.7	
894.81	5339.7	
894.98	5339.7	
895.14	5339.7	
895.31	5339.7	
895.47	5339.7	
895.64	5339.7	
895.81	5339.7	
895.97	5339.7	
896.14	5339.7	
896.3	5339.7	
896.47	5339.7	
896.63	5339.7	
896.8	5339.7	
896.96	5339.7	
897.13	5339.7	
897.29	5339.7	
897.46	5339.7	
897.62	5339.7	
897.79	5339.7	
897.95	5339.7	
898.12	5339.7	
898.28	5339.7	
898.45	5339.7	
898.61	5339.7	
898.78	5339.7	
898.94	5339.7	
899.11	5339.7	
899.27	5339.7	
899.44	5339.7	
899.6	5339.7	
899.77	5339.7	
899.93	5339.7	
900.1	5339.7	
900.26	5339.7	
900.43	5339.7	
900.59	5339.7	
900.76	5339.7	
900.92	5339.7	
901.09	5339.7	
901.25	5339.7	
901.42	5339.7	
901.58	5339.7	
901.75	5339.7	
901.91	5339.7	
902.07	5339.7	
902.24	5339.7	
902.4	5339.7	
902.57	5339.7	
902.73	5339.7	
902.9	5339.7	
903.06	5339.7	
903.23	5339.7	
903.39	5339.7	
903.56	5339.7	
903.72	5339.7	
903.88	5339.7	
904.05	5339.7	
904.21	5339.7	
904.38	5339.7	
904.54	5339.7	
904.71	5339.7	
904.87	5339.7	
905.03	5339.7	
905.2	5339.7	
905.36	5339.7	
905.53	5339.7	
905.69	5339.7	
905.86	5339.7	
906.02	5339.7	
906.18	5339.7	
906.35	5339.7	
906.51	5339.7	
906.68	5339.7	
906.84	5339.7	
907.01	5339.7	
907.17	5339.7	
907.33	5339.7	
907.5	5339.7	
907.66	5339.7	
907.83	5339.7	
907.99	5339.7	
908.15	5339.7	
908.32	5339.7	
908.48	5339.7	
908.65	5339.7	
908.81	5339.7	
908.97	5339.7	
909.14	5339.7	
909.3	5339.7	
909.47	5339.7	
909.63	5339.7	
909.79	5339.7	
909.96	5339.7	
910.12	5339.7	
910.28	5339.7	
910.45	5339.7	
910.61	5339.7	
910.78	5339.7	
910.94	5339.7	
911.1	5339.7	
911.27	5339.7	
911.43	5339.7	
911.59	5339.7	
911.76	5339.7	
911.92	5339.7	
912.08	5339.7	
912.25	5339.7	
912.41	5339.7	
912.57	5339.7	
912.74	5339.7	
912.9	5339.7	
913.07	5339.7	
913.23	5339.7	
913.39	5339.7	
913.56	5339.7	
913.72	5339.7	
913.88	5339.7	
914.05	5339.7	
914.21	5339.7	
914.37	5339.7	
914.54	5339.7	
914.7	5339.7	
914.86	5339.7	
915.03	5339.7	
915.19	5339.7	
