Wavelength	Intensities	
nm	a.u.	
179.22	1938.9	
179.44	1933.6	
179.65	1944.2	
179.86	1923	
180.08	1946.9	
180.29	5027.1	
180.51	3592.8	
180.72	5684.5	
180.94	6685.9	
181.15	3280.8	
181.37	3252.2	
181.58	5596.4	
181.79	5936.4	
182.01	3431	
182.22	3696.6	
182.44	5895.4	
182.65	4849.6	
182.87	4622.9	
183.08	4073.4	
183.29	6158.9	
183.51	5023.7	
183.72	3696.6	
183.94	5360.2	
184.15	5452.4	
184.37	5513.8	
184.58	3248.1	
184.79	4513.7	
185.01	5061.2	
185.22	5838.1	
185.44	4764.9	
185.65	3924.6	
185.86	5346.6	
186.08	4953.4	
186.29	3186	
186.51	3406.5	
186.72	5108.3	
186.94	6011.5	
187.15	3944.4	
187.36	4116.4	
187.58	7844.4	
187.79	5530.2	
188.01	4273.4	
188.22	6717.3	
188.43	6713.2	
188.65	5760.3	
188.86	3362.1	
189.08	4063.9	
189.29	5275.6	
189.5	5312.4	
189.72	3725.9	
189.93	3882.3	
190.15	6050.4	
190.36	7232.1	
190.57	4159.4	
190.79	4050.9	
191	6137.1	
191.22	6061.3	
191.43	4217.5	
191.64	3439.2	
191.86	6204	
192.07	6030.6	
192.29	3592.1	
192.5	3812.6	
192.71	6094.8	
192.93	5184.8	
193.14	3746.4	
193.35	3844	
193.57	5225.1	
193.78	5998.5	
194	3028.9	
194.21	3704.1	
194.42	4980.7	
194.64	5483.1	
194.85	4116.4	
195.07	4807.9	
195.28	5513.8	
195.49	4730.1	
195.71	5129.5	
195.92	3500	
196.13	5683.8	
196.35	5861.3	
196.56	5465.3	
196.78	4097.3	
196.99	7125.6	
197.2	6746.7	
197.42	4692.6	
197.63	4151.9	
197.84	4920.6	
198.06	5711.8	
198.27	3801.7	
198.48	5070.8	
198.7	5198.4	
198.91	5348.6	
199.13	4102.1	
199.34	4190.1	
199.55	5895.4	
199.77	4773.8	
199.98	3591.5	
200.19	4168.3	
200.41	5324	
200.62	5075.5	
200.83	4313	
201.05	4722.6	
201.26	5374.6	
201.47	5066	
201.69	3646.1	
201.9	3515	
202.11	5408.7	
202.33	6509.1	
202.54	3956	
202.76	4530.1	
202.97	5593	
203.18	5599.1	
203.4	4294.6	
203.61	4175.1	
203.82	5504.3	
204.04	5092.6	
204.25	4169	
204.46	4082.3	
204.68	5490.6	
204.89	5745.9	
205.1	3969	
205.32	3460.4	
205.53	5906.3	
205.74	6048.3	
205.96	2962	
206.17	4302.8	
206.38	5849.7	
206.6	5997.1	
206.81	4725.3	
207.02	3842.7	
207.24	5732.3	
207.45	6169.2	
207.66	3961.5	
207.88	3343	
208.09	5658.5	
208.3	5455.8	
208.52	3606.5	
208.73	3885.7	
208.94	5456.5	
209.15	6237.4	
209.37	3951.9	
209.58	4154.6	
209.79	6079.7	
210.01	5307	
210.22	3113.6	
210.43	3257	
210.65	5505.6	
210.86	5979.4	
211.07	3969	
211.29	3588.7	
211.5	5851.7	
211.71	5465.3	
211.93	3592.1	
212.14	3601.7	
212.35	5375.9	
212.56	5604.6	
212.78	4138.3	
212.99	3422.2	
213.2	6506.4	
213.42	5258.5	
213.63	3718.4	
213.84	4033.8	
214.06	4866.7	
214.27	4969.1	
214.48	3919.1	
214.69	4207.9	
214.91	6143.9	
215.12	6294.8	
215.33	4304.8	
215.55	4726	
215.76	6766.5	
215.97	5858.6	
216.18	4098.7	
216.4	3952.6	
216.61	5208.7	
216.82	5984.8	
217.04	3625.6	
217.25	3714.3	
217.46	6156.9	
217.67	5852.4	
217.89	3237.2	
218.1	3347.7	
218.31	5597.1	
218.53	5610.8	
218.74	3812.6	
218.95	3661.1	
219.16	5402.5	
219.38	6398.5	
219.59	3610.6	
219.8	4477.5	
220.01	7124.9	
220.23	5544.5	
220.44	4963.6	
220.65	3581.2	
220.87	5531.6	
221.08	6122.7	
221.29	3349.1	
221.5	4575.8	
221.72	7557	
221.93	5109	
222.14	4232.5	
222.35	4933.6	
222.57	5526.8	
222.78	5907.7	
222.99	3861.1	
223.2	4213.4	
223.42	5806.7	
223.63	5924.1	
223.84	2996.9	
224.05	2984.6	
224.27	7053.9	
224.48	6517.3	
224.69	4897.4	
224.9	4156.7	
225.12	5670.1	
225.33	5492	
225.54	3283.6	
225.75	3706.8	
225.97	4999.8	
226.18	5320.6	
226.39	3951.9	
226.6	3765.5	
226.82	5240.8	
227.03	5040.7	
227.24	4145.8	
227.45	3434.4	
227.67	5862.7	
227.88	6522.8	
228.09	4601.8	
228.3	4661.9	
228.52	5907.7	
228.73	5432.6	
228.94	3842.7	
229.15	3433.8	
229.36	5414.8	
229.58	5286.5	
229.79	3946.4	
230	4485.1	
230.21	6554.2	
230.43	5544.5	
230.64	4151.2	
230.85	4320.5	
231.06	5877	
231.28	5955.5	
231.49	3392.8	
231.7	4020.8	
231.91	5784.1	
232.12	5481	
232.34	3435.8	
232.55	4025.6	
232.76	6094.1	
232.97	5633.3	
233.18	3624.9	
233.4	4085.7	
233.61	5727.5	
233.82	5225.7	
234.03	3789.4	
234.25	3701.4	
234.46	7651.9	
234.67	5532.9	
234.88	4240.7	
235.09	3697.9	
235.31	5803.3	
235.52	5408.7	
235.73	4111	
235.94	3463.1	
236.15	5228.5	
236.37	6674.3	
236.58	3642.7	
236.79	4037.9	
237	5801.9	
237.21	4949.9	
237.43	4246.8	
237.64	3346.4	
237.85	10006	
238.06	4998.4	
238.27	4359.4	
238.48	3450.8	
238.7	5827.2	
238.91	5396.4	
239.12	3939.6	
239.33	3964.2	
239.54	5070.8	
239.76	5409.4	
239.97	3911.6	
240.18	3946.4	
240.39	6881.2	
240.6	5781.4	
240.82	4103.4	
241.03	3372.3	
241.24	5479.7	
241.45	6335.1	
241.66	3605.8	
241.87	4265.9	
242.09	6186.2	
242.3	6638.1	
242.51	4290.5	
242.72	3965.6	
242.93	5915.9	
243.14	5435.3	
243.36	4605.2	
243.57	4957.4	
243.78	6399.9	
243.99	5890.6	
244.2	3962.1	
244.41	3635.1	
244.63	5037.3	
244.84	5773.2	
245.05	4300.1	
245.26	3935.5	
245.47	5778.7	
245.68	6107.7	
245.9	5319.3	
246.11	4162.2	
246.32	5304.9	
246.53	5764.3	
246.74	6471.6	
246.95	3315	
247.16	4969.7	
247.38	5440.1	
247.59	3299.3	
247.8	4045.4	
248.01	5111	
248.22	5427.1	
248.43	3595.6	
248.64	3897.3	
248.86	4866	
249.07	5216.2	
249.28	3437.2	
249.49	4125.3	
249.7	6046.3	
249.91	6302.3	
250.12	3291.1	
250.34	3389.4	
250.55	5569.1	
250.76	5502.9	
250.97	4110.3	
251.18	4162.2	
251.39	6255.2	
251.6	5708.4	
251.81	4221.5	
252.03	4164.9	
252.24	5203.2	
252.45	6028.5	
252.66	3437.2	
252.87	4487.8	
253.08	5512.4	
253.29	7272.3	
253.5	3463.8	
253.72	4819.6	
253.93	5265.3	
254.14	6518.7	
254.35	3769.6	
254.56	3897.3	
254.77	5747.3	
254.98	5080.3	
255.19	3725.9	
255.41	4855.7	
255.62	5562.3	
255.83	6180.1	
256.04	4257	
256.25	4176.5	
256.46	6586.3	
256.67	5067.4	
256.88	4063.9	
257.09	4659.8	
257.31	5174.5	
257.52	5238.7	
257.73	5202.5	
257.94	3706.8	
258.15	5324.7	
258.36	5537.7	
258.57	4739	
258.78	2991.4	
258.99	6037.4	
259.2	5289.9	
259.41	3840.6	
259.63	3935.5	
259.84	6381.5	
260.05	6832.7	
260.26	5017.5	
260.47	3618.8	
260.68	6101.6	
260.89	5381.4	
261.1	4608.6	
261.31	3595.6	
261.52	6056.5	
261.73	6496.2	
261.95	4919.9	
262.16	4371	
262.37	6163	
262.58	6340.5	
262.79	4852.3	
263	3873.4	
263.21	5553.4	
263.42	4970.4	
263.63	3904.8	
263.84	3862.5	
264.05	6063.4	
264.26	6441.5	
264.47	4818.2	
264.69	4123.2	
264.9	6130.9	
265.11	5738.4	
265.32	3690.4	
265.53	3774.4	
265.74	5614.8	
265.95	4871.4	
266.16	4050.9	
266.37	4497.3	
266.58	5548.6	
266.79	5328.8	
267	3747.8	
267.21	3458.3	
267.42	5018.9	
267.63	5425.8	
267.84	3980.6	
268.06	3435.8	
268.27	5933	
268.48	6221.7	
268.69	3872	
268.9	4583.4	
269.11	6188.3	
269.32	4908.3	
269.53	4009.2	
269.74	3706.1	
269.95	5857.2	
270.16	4821.6	
270.37	3934.1	
270.58	4631.1	
270.79	5324	
271	6033.3	
271.21	4270	
271.42	4028.4	
271.63	5677	
271.84	5184.1	
272.05	3132.7	
272.26	3639.2	
272.47	5494	
272.68	5672.9	
272.89	3793.5	
273.11	4414.7	
273.32	5304.2	
273.53	6449.7	
273.74	4267.3	
273.95	4188.8	
274.16	6213.5	
274.37	5523.4	
274.58	4351.3	
274.79	3418.1	
275	5604.6	
275.21	6201.2	
275.42	5252.4	
275.63	4457.1	
275.84	5754.1	
276.05	7316	
276.26	4169.7	
276.47	3972.4	
276.68	5350.7	
276.89	6564.4	
277.1	4517.1	
277.31	3451.5	
277.52	5786.9	
277.73	5873.6	
277.94	3384.6	
278.15	3788.7	
278.36	5688.6	
278.57	5151.3	
278.78	3824.9	
278.99	4208.6	
279.2	5100.8	
279.41	5068.7	
279.62	5104.2	
279.83	3500	
280.04	6813.6	
280.25	5011.4	
280.46	4992.9	
280.67	3945.8	
280.88	5132.2	
281.09	6137.1	
281.3	4209.9	
281.51	5304.9	
281.72	5248.3	
281.93	6064	
282.14	3685	
282.35	4022.9	
282.56	5937.1	
282.77	5945.3	
282.98	3780.6	
283.19	4729.4	
283.4	7430	
283.61	5434.6	
283.82	3413.3	
284.03	4952	
284.24	5590.3	
284.45	6131.6	
284.66	4940.4	
284.87	4755.4	
285.08	6124.8	
285.29	6244.3	
285.5	3384.6	
285.71	3925.3	
285.92	6199.9	
286.12	6906.4	
286.33	4935.6	
286.54	3851.5	
286.75	6039.5	
286.96	5410.7	
287.17	3536.2	
287.38	4796.3	
287.59	5109	
287.8	5033.2	
288.01	3926.6	
288.22	4532.8	
288.43	5992.4	
288.64	4989.5	
288.85	4674.1	
289.06	4401.8	
289.27	5997.8	
289.48	6510.5	
289.69	4939	
289.9	4578.6	
290.11	6156.2	
290.32	5203.9	
290.53	4760.2	
290.74	4328.7	
290.94	5920.7	
291.15	6057.2	
291.36	3748.5	
291.57	4493.9	
291.78	5276.3	
291.99	4964.3	
292.2	3549.1	
292.41	4362.9	
292.62	6015.6	
292.83	5827.8	
293.04	5328.1	
293.25	3571	
293.46	5295.4	
293.67	6146	
293.88	3754.6	
294.09	3599	
294.29	5091.3	
294.5	5618.9	
294.71	3960.1	
294.92	3850.9	
295.13	5283.8	
295.34	6700.3	
295.55	3309.5	
295.76	3401.7	
295.97	5887.9	
296.18	6683.2	
296.39	3525.9	
296.6	3759.4	
296.81	5549.3	
297.01	5911.8	
297.22	3920.5	
297.43	3683.6	
297.64	5105.6	
297.85	5061.2	
298.06	3059	
298.27	3321.1	
298.48	5639.4	
298.69	5191.6	
298.9	4024.9	
299.11	3642	
299.31	5022.3	
299.52	5053.7	
299.73	4361.5	
299.94	4212.7	
300.15	5431.2	
300.36	5121.3	
300.57	4188.8	
300.78	4264.6	
300.99	5442.1	
301.2	5652.4	
301.4	3707.5	
301.61	4054.3	
301.82	5834	
302.03	5937.7	
302.24	4565.6	
302.45	3507.5	
302.66	5782.8	
302.87	6329.6	
303.08	3755.3	
303.29	5126.7	
303.49	5250.3	
303.7	5522.7	
303.91	3308.2	
304.12	4876.9	
304.33	5005.2	
304.54	5544.5	
304.75	3807.2	
304.96	3487	
305.16	5838.1	
305.37	6577.4	
305.58	3237.2	
305.79	3401	
306	5838.1	
306.21	4919.2	
306.42	3679.5	
306.63	5770.5	
306.83	5345.2	
307.04	6158.9	
307.25	4106.2	
307.46	4095.9	
307.67	4701.5	
307.88	5993.7	
308.09	3644.7	
308.29	3771.7	
308.5	5608.7	
308.71	6156.2	
308.92	3972.4	
309.13	3551.2	
309.34	5451.7	
309.55	5427.8	
309.75	4631.8	
309.96	4205.2	
310.17	5947.3	
310.38	5156.8	
310.59	4521.9	
310.8	4215.4	
311.01	5317.2	
311.21	5416.9	
311.42	3496.6	
311.63	3717.1	
311.84	5268.7	
312.05	5678.3	
312.26	4166.3	
312.46	4561.5	
312.67	5328.8	
312.88	5032.5	
313.09	3581.2	
313.3	3519.8	
313.51	6261.3	
313.71	6756.2	
313.92	3584.6	
314.13	3760.1	
314.34	5633.3	
314.55	5445.5	
314.76	4638	
314.96	4067.3	
315.17	5570.5	
315.38	6054.5	
315.59	3616.7	
315.8	3458.3	
316.01	6489.3	
316.21	6451.8	
316.42	3403.7	
316.63	3958.7	
316.84	5387.5	
317.05	6229.9	
317.26	4314.4	
317.46	3797.6	
317.67	5373.2	
317.88	5902.2	
318.09	4643.4	
318.3	3343	
318.5	5222.3	
318.71	5829.2	
318.92	5899.5	
319.13	4205.2	
319.34	6051.1	
319.54	6128.2	
319.75	3354.6	
319.96	3141.6	
320.17	5892.7	
320.38	6066.8	
320.58	3304.1	
320.79	3932.8	
321	6130.3	
321.21	6329.6	
321.42	3990.1	
321.62	3289	
321.83	5082.4	
322.04	5486.5	
322.25	3789.4	
322.46	3585.3	
322.66	5582.8	
322.87	5772.5	
323.08	4524	
323.29	3563.5	
323.5	6561.7	
323.7	5043.5	
323.91	4972.5	
324.12	4455.7	
324.33	5591	
324.53	5844.2	
324.74	4254.3	
324.95	4470.7	
325.16	4885.1	
325.37	5296	
325.57	3620.1	
325.78	3700	
325.99	5565	
326.2	4956.8	
326.4	5108.3	
326.61	3322.5	
326.82	5445.5	
327.03	5632.6	
327.24	5223.7	
327.44	4894.6	
327.65	5747.3	
327.86	4633.2	
328.07	4231.8	
328.27	3515.7	
328.48	6187.6	
328.69	5075.5	
328.9	5199.8	
329.1	3891.8	
329.31	5378.6	
329.52	6351.4	
329.73	3592.1	
329.93	4140.3	
330.14	5468.8	
330.35	5779.4	
330.56	6042.9	
330.76	4490.5	
330.97	5282.4	
331.18	5717.2	
331.39	4076.8	
331.59	3251.5	
331.8	6095.4	
332.01	6182.1	
332.22	3677.5	
332.42	4289.1	
332.63	5654.4	
332.84	5202.5	
333.05	4035.9	
333.25	3691.1	
333.46	5300.1	
333.67	5445.5	
333.88	3731.4	
334.08	4171.7	
334.29	7400	
334.5	6188.3	
334.7	3506.1	
334.91	5167.7	
335.12	5071.5	
335.33	5986.2	
335.53	3938.2	
335.74	5972.6	
335.95	5279	
336.16	5089.2	
336.36	3977.2	
336.57	4696	
336.78	5021.6	
336.98	6112.5	
337.19	4921.3	
337.4	3881.6	
337.61	6683.2	
337.81	5036.6	
338.02	3703.4	
338.23	4812	
338.43	6337.8	
338.64	5161.6	
338.85	3614.7	
339.05	4791.6	
339.26	6413.6	
339.47	4900.1	
339.68	3627.6	
339.88	5408.7	
340.09	5788.9	
340.3	5999.9	
340.5	4255.7	
340.71	3205.1	
340.92	4970.4	
341.13	6354.8	
341.33	3525.9	
341.54	4309.6	
341.75	5749.3	
341.95	5375.9	
342.16	4041.3	
342.37	4411.3	
342.57	5033.9	
342.78	5473.5	
342.99	4530.8	
343.19	3246	
343.4	5881.8	
343.61	5769.8	
343.81	3850.9	
344.02	3544.4	
344.23	5928.2	
344.43	6400.6	
344.64	4527.4	
344.85	4350.6	
345.06	5801.9	
345.26	6096.8	
345.47	4183.3	
345.68	4982.7	
345.88	4861.9	
346.09	5989.6	
346.3	4317.1	
346.5	3188.7	
346.71	5425.8	
346.92	5171.8	
347.12	3318.4	
347.33	4187.4	
347.54	6104.3	
347.74	6467.5	
347.95	4182	
348.16	3074.7	
348.36	5309	
348.57	4980.7	
348.78	4102.8	
348.98	4425.7	
349.19	5543.9	
349.39	4924.7	
349.6	3277.4	
349.81	3650.8	
350.01	5823.7	
350.22	5208.7	
350.43	4003.8	
350.63	4831.8	
350.84	5572.5	
351.05	5257.8	
351.25	3649.5	
351.46	3294.5	
351.67	6138.4	
351.87	5186.8	
352.08	3846.1	
352.29	4450.2	
352.49	6016.2	
352.7	5617.6	
352.9	3518.4	
353.11	4403.8	
353.32	6711.9	
353.52	5324	
353.73	3472	
353.94	4418.8	
354.14	5808.7	
354.35	5622.4	
354.55	3593.5	
354.76	3984	
354.97	5748.6	
355.17	5537	
355.38	3355.9	
355.59	4700.1	
355.79	5131.5	
356	5545.9	
356.2	3981.3	
356.41	3393.5	
356.62	4859.1	
356.82	5396.4	
357.03	4203.1	
357.24	3829	
357.44	5180.7	
357.65	5271.5	
357.85	5131.5	
358.06	3995.6	
358.27	4872.1	
358.47	5101.5	
358.68	3293.1	
358.88	4230.4	
359.09	5705.6	
359.3	6125.5	
359.5	4959.5	
359.71	4331.5	
359.91	6518.7	
360.12	5933.6	
360.33	4132.8	
360.53	4682.3	
360.74	5106.3	
360.94	5184.1	
361.15	4434.5	
361.36	3586	
361.56	5975.3	
361.77	5291.3	
361.97	4911	
362.18	3828.3	
362.38	5920	
362.59	4970.4	
362.8	3461.7	
363	3375.7	
363.21	4729.4	
363.41	5460.6	
363.62	4002.4	
363.83	5162.9	
364.03	5571.2	
364.24	6587	
364.44	5179.3	
364.65	5130.2	
364.85	5306.3	
365.06	5127.4	
365.27	3710.9	
365.47	3677.5	
365.68	6285.2	
365.88	5229.1	
366.09	4107.5	
366.29	3749.8	
366.5	5494	
366.71	6019	
366.91	5091.3	
367.12	4253.6	
367.32	6576.7	
367.53	5900.9	
367.73	4177.2	
367.94	5208.7	
368.14	5709.7	
368.35	6688.7	
368.56	4163.5	
368.76	3514.3	
368.97	5859.2	
369.17	7620.5	
369.38	3653.6	
369.58	3953.9	
369.79	4848.9	
369.99	6218.3	
370.2	4976.6	
370.4	4009.2	
370.61	5562.3	
370.82	6828.6	
371.02	3888.4	
371.23	3191.4	
371.43	4728.8	
371.64	6206.7	
371.84	3891.8	
372.05	5221.6	
372.25	7529	
372.46	5893.4	
372.66	3853.6	
372.87	3883.6	
373.07	5952.1	
373.28	7586.4	
373.48	4990.9	
373.69	4633.9	
373.9	5314.5	
374.1	5393.7	
374.31	4889.2	
374.51	4351.3	
374.72	6196.5	
374.92	5033.2	
375.13	4998.4	
375.33	4234.5	
375.54	5659.2	
375.74	5149.3	
375.95	4174.4	
376.15	5556.8	
376.36	5698.8	
376.56	5498.8	
376.77	4357.4	
376.97	4760.8	
377.18	6808.8	
377.38	5745.9	
377.59	5165.7	
377.79	3728	
378	5566.4	
378.2	5950	
378.41	3803.1	
378.61	3663.1	
378.82	6038.8	
379.02	5107.6	
379.23	3939.6	
379.43	5126.7	
379.64	6141.9	
379.84	5705.6	
380.05	3788.1	
380.25	3676.1	
380.46	5791	
380.66	5420.3	
380.87	5154.7	
381.07	5588.2	
381.28	6481.1	
381.48	5832.6	
381.69	3794.2	
381.89	3837.9	
382.1	4764.9	
382.3	6003.3	
382.51	5013.4	
382.71	5986.2	
382.91	5888.6	
383.12	6394.4	
383.32	4189.5	
383.53	4409.3	
383.73	5677	
383.94	5482.4	
384.14	4296	
384.35	3450.8	
384.55	5355.4	
384.76	5846.3	
384.96	4145.1	
385.17	4535.6	
385.37	5845.6	
385.58	5096	
385.78	4541.7	
385.98	3356.6	
386.19	5285.1	
386.39	5858.6	
386.6	3990.1	
386.8	4233.8	
387.01	5858.6	
387.21	5866.1	
387.42	4681	
387.62	5266.7	
387.83	5128.1	
388.03	5900.9	
388.23	4262.5	
388.44	5109.7	
388.64	4760.2	
388.85	4921.3	
389.05	4597	
389.26	5216.9	
389.46	6857.3	
389.67	6300.2	
389.87	4538.3	
390.07	4691.9	
390.28	5438.7	
390.48	5063.3	
390.69	3812	
390.89	4055	
391.1	5197.7	
391.3	6169.2	
391.5	5302.2	
391.71	5961.6	
391.91	5882.4	
392.12	6913.3	
392.32	5338.4	
392.53	4706.9	
392.73	5273.5	
392.93	5451	
393.14	4187.4	
393.34	5068	
393.55	5870.2	
393.75	5485.8	
393.95	4310.3	
394.16	4161.5	
394.36	5166.3	
394.57	5973.2	
394.77	3689.8	
394.98	4182.6	
395.18	5162.9	
395.38	5317.2	
395.59	5048.9	
395.79	3892.5	
396	5241.4	
396.2	5852.4	
396.4	4819.6	
396.61	4687.1	
396.81	5994.4	
397.02	5223.7	
397.22	4952	
397.42	5069.4	
397.63	5900.9	
397.83	5066	
398.04	3840.6	
398.24	4331.5	
398.44	5706.3	
398.65	4703.5	
398.85	3717.1	
399.05	3814	
399.26	5040.7	
399.46	6788.3	
399.67	4185.4	
399.87	3878.9	
400.07	5416.9	
400.28	5758.9	
400.48	3958.7	
400.69	5046.2	
400.89	5999.9	
401.09	6420.4	
401.3	3809.9	
401.5	5054.4	
401.7	6711.9	
401.91	6995.2	
402.11	4187.4	
402.32	4481.6	
402.52	6057.9	
402.72	5924.1	
402.93	4679.6	
403.13	3469.3	
403.33	6784.2	
403.54	5446.2	
403.74	4403.1	
403.94	5329.5	
404.15	5575.3	
404.35	6718	
404.56	4179.9	
404.76	6139.8	
404.96	6062	
405.17	5834.7	
405.37	5453.7	
405.57	4633.9	
405.78	6027.9	
405.98	5461.9	
406.18	4118.5	
406.39	5089.9	
406.59	6028.5	
406.79	5630.5	
407	3969.6	
407.2	4240.7	
407.4	6004.6	
407.61	6358.9	
407.81	4035.9	
408.01	5959.6	
408.22	4969.1	
408.42	7133.8	
408.62	5166.3	
408.83	4575.2	
409.03	5541.1	
409.23	5328.8	
409.44	4599.1	
409.64	4863.2	
409.84	6485.9	
410.05	6301.6	
410.25	4656.4	
410.45	4450.2	
410.66	5679.7	
410.86	8292.9	
411.06	4842.1	
411.27	4715.1	
411.47	8023.9	
411.67	5881.8	
411.88	4934.2	
412.08	5239.4	
412.28	6546	
412.49	7043	
412.69	4662.5	
412.89	4642.1	
413.09	6860.7	
413.3	6658.6	
413.5	4754.7	
413.7	4294.6	
413.91	5931.6	
414.11	6878.4	
414.31	4556	
414.52	4991.6	
414.72	6439.5	
414.92	6320	
415.12	4588.1	
415.33	5130.2	
415.53	6692.8	
415.73	6911.9	
415.94	5413.5	
416.14	4848.9	
416.34	5663.3	
416.55	5338.4	
416.75	6131.6	
416.95	5438	
417.15	6736.5	
417.36	7453.9	
417.56	6210.1	
417.76	5294	
417.97	7161.7	
418.17	6727.6	
418.37	4812.7	
418.57	4853	
418.78	6488.6	
418.98	6240.2	
419.18	5870.2	
419.38	5751.4	
419.59	6276.3	
419.79	5851.7	
419.99	4821.6	
420.2	5197.7	
420.4	6781.5	
420.6	6926.2	
420.8	4725.3	
421.01	4494.6	
421.21	6582.9	
421.41	6791.7	
421.61	5183.4	
421.82	4778.6	
422.02	6070.9	
422.22	7057.3	
422.42	5599.8	
422.63	5362.9	
422.83	6210.1	
423.03	7424.6	
423.23	5242.1	
423.44	4191.5	
423.64	6305.7	
423.84	6066.8	
424.04	4677.6	
424.25	4386.1	
424.45	7279.2	
424.65	7239.6	
424.85	4136.2	
425.06	4784.1	
425.26	7178.8	
425.46	6011.5	
425.66	5351.3	
425.87	4949.9	
426.07	6966.5	
426.27	6821.1	
426.47	5159.5	
426.67	4450.9	
426.88	7359.7	
427.08	6735.1	
427.28	5374.6	
427.48	4435.2	
427.69	5608.7	
427.89	6350.1	
428.09	5378	
428.29	4481	
428.5	7023.9	
428.7	6596.5	
428.9	4278.9	
429.1	4938.3	
429.3	6434	
429.51	6917.4	
429.71	4685.8	
429.91	5489.9	
430.11	6701	
430.31	6959.7	
430.52	5027.8	
430.72	5257.1	
430.92	7356.3	
431.12	6744.6	
431.32	4685.1	
431.53	5077.6	
431.73	5580	
431.93	7427.3	
432.13	4618.2	
432.33	4414.1	
432.54	6146.6	
432.74	6481.8	
432.94	4285.7	
433.14	5470.8	
433.34	6703	
433.55	6075	
433.75	5418.2	
433.95	7183.6	
434.15	6416.3	
434.35	6126.8	
434.56	4539	
434.76	3981.9	
434.96	6423.1	
435.16	6599.2	
435.36	4400.4	
435.56	5560.2	
435.77	6035.4	
435.97	6195.1	
436.17	6300.2	
436.37	5467.4	
436.57	5996.5	
436.78	5916.6	
436.98	5419.6	
437.18	6040.8	
437.38	6585.6	
437.58	6234.7	
437.78	6294.8	
437.99	4811.4	
438.19	6750.1	
438.39	7530.4	
438.59	4797.7	
438.79	4220.9	
438.99	7501	
439.2	6194.4	
439.4	4422.9	
439.6	4341.7	
439.8	6482.5	
440	7617.8	
440.2	5384.8	
440.4	5532.2	
440.61	6939.9	
440.81	7509.2	
441.01	4528.1	
441.21	5477.6	
441.41	7269.6	
441.61	6930.3	
441.81	5649.7	
442.02	6883.9	
442.22	7812.3	
442.42	6959	
442.62	4578.6	
442.82	4613.4	
443.02	7242.3	
443.22	6340.5	
443.43	5057.1	
443.63	4667.3	
443.83	6176.7	
444.03	6290	
444.23	5806.7	
444.43	5427.8	
444.63	6496.2	
444.83	7807.5	
445.04	4537.6	
445.24	5958.9	
445.44	6903	
445.64	7034.1	
445.84	5477.6	
446.04	5511.8	
446.24	6219	
446.44	7316	
446.65	4792.9	
446.85	5142.4	
447.05	6764.4	
447.25	7182.2	
447.45	5181.4	
447.65	4549.9	
447.85	6619.7	
448.05	6251.8	
448.25	5662	
448.46	5474.2	
448.66	6542.6	
448.86	6290	
449.06	4406.5	
449.26	5692.7	
449.46	6962.4	
449.66	5934.3	
449.86	5045.5	
450.06	5107.6	
450.26	6152.8	
450.47	6794.5	
450.67	5378.6	
450.87	5694.7	
451.07	6817.7	
451.27	6605.4	
451.47	4670.1	
451.67	5246.9	
451.87	6254.5	
452.07	7535.2	
452.27	4892.6	
452.47	4818.9	
452.67	6595.8	
452.88	7245	
453.08	4257.7	
453.28	6253.8	
453.48	7799.3	
453.68	6550.1	
453.88	4795	
454.08	5025.7	
454.28	6886	
454.48	6524.1	
454.68	5584.8	
454.88	6140.5	
455.08	7010.2	
455.28	6785.6	
455.48	4698	
455.68	5309	
455.89	7580.9	
456.09	7205.4	
456.29	4996.4	
456.49	5001.1	
456.69	7362.4	
456.89	6589.7	
457.09	5568.4	
457.29	5892.7	
457.49	6893.5	
457.69	7073.7	
457.89	5316.5	
458.09	4698.7	
458.29	6543.9	
458.49	7394.5	
458.69	5720	
458.89	5061.9	
459.09	7581.6	
459.29	7767.3	
459.49	5180	
459.69	6089.3	
459.9	7231.4	
460.1	6617.7	
460.3	5141.1	
460.5	4947.2	
460.7	7133.1	
460.9	6797.2	
461.1	4511.7	
461.3	5906.3	
461.5	7739.3	
461.7	7377.5	
461.9	4939	
462.1	5455.1	
462.3	6796.5	
462.5	7408.9	
462.7	4992.3	
462.9	5132.9	
463.1	8530.5	
463.3	8080.6	
463.5	5296	
463.7	6263.4	
463.9	6967.2	
464.1	7303.7	
464.3	5292.6	
464.5	5612.8	
464.7	7615.7	
464.9	7235.5	
465.1	6959	
465.3	5922.7	
465.5	7937.9	
465.7	7930.4	
465.9	6220.4	
466.1	6036.7	
466.3	7638.9	
466.5	7574.1	
466.7	6904.4	
466.9	5790.3	
467.1	7524.2	
467.3	8434.9	
467.5	6754.9	
467.7	5632.6	
467.9	8645.2	
468.1	9604.3	
468.3	6476.4	
468.5	6913.3	
468.7	7397.3	
468.9	7363.8	
469.1	5926.8	
469.3	6629.3	
469.5	9427.5	
469.7	6961.7	
469.9	6498.9	
470.1	5571.8	
470.3	7360.4	
470.5	7346.1	
470.7	6917.4	
470.9	5797.1	
471.1	7123.5	
471.3	7618.4	
471.5	5511.1	
471.69	7582.3	
471.89	7077.8	
472.09	6572.6	
472.29	6457.9	
472.49	6774.7	
472.69	6695.5	
472.89	7720.8	
473.09	5461.2	
473.29	5715.9	
473.49	6952.2	
473.69	7073	
473.89	6656.6	
474.09	5765	
474.29	8445.8	
474.49	8125	
474.69	6604.7	
474.89	5927.5	
475.09	7186.3	
475.29	7071	
475.49	5356.1	
475.69	5578	
475.88	8860.9	
476.08	7452.6	
476.28	5285.8	
476.48	5783.5	
476.68	7946.8	
476.88	7828.7	
477.08	5682.4	
477.28	5960.3	
477.48	7249.1	
477.68	7894.2	
477.88	5453.1	
478.08	5792.3	
478.28	8299.1	
478.48	7421.8	
478.67	5902.9	
478.87	5275.6	
479.07	8120.2	
479.27	7584.3	
479.47	6067.4	
479.67	6095.4	
479.87	7854.6	
480.07	8420.6	
480.27	5350	
480.47	7077.1	
480.67	7603.4	
480.87	8173.4	
481.06	5631.2	
481.26	6409.5	
481.46	7506.5	
481.66	7382.2	
481.86	6045.6	
482.06	7211.6	
482.26	7202	
482.46	8441	
482.66	6031.3	
482.86	5537	
483.05	7472.4	
483.25	6915.3	
483.45	8602.2	
483.65	6049.7	
483.85	7091.4	
484.05	7455.3	
484.25	6437.4	
484.45	6993.1	
484.65	8348.2	
484.84	8284.7	
485.04	5982.1	
485.24	5892	
485.44	8645.8	
485.64	6819.1	
485.84	5186.1	
486.04	6623.8	
486.24	7244.3	
486.44	7675.1	
486.63	5048.2	
486.83	5956.9	
487.03	7086.7	
487.23	7303.7	
487.43	5241.4	
487.63	7695.6	
487.83	7345.4	
488.02	8492.9	
488.22	6207.4	
488.42	6803.4	
488.62	8275.2	
488.82	7157.7	
489.02	5875.6	
489.22	5860.6	
489.41	8114.1	
489.61	7739.3	
489.81	5573.2	
490.01	5681.1	
490.21	7989.8	
490.41	8709.3	
490.61	5553.4	
490.8	5659.2	
491	7463.5	
491.2	6780.8	
491.4	6324.8	
491.6	5378	
491.8	7500.3	
491.99	7795.9	
492.19	5324	
492.39	5695.4	
492.59	8121.6	
492.79	8178.2	
492.99	6543.9	
493.18	5605.3	
493.38	8168.7	
493.58	8928.5	
493.78	6321.4	
493.98	5911.8	
494.18	7873.8	
494.37	7256.6	
494.57	6565.8	
494.77	6353.5	
494.97	8046.5	
495.17	8201.4	
495.37	5930.9	
495.56	6230.6	
495.76	8453.3	
495.96	8015.1	
496.16	7208.2	
496.36	6054.5	
496.55	8232.2	
496.75	7736.5	
496.95	6436.8	
497.15	6269.5	
497.35	8209.6	
497.54	8211	
497.74	6075.6	
497.94	7813.7	
498.14	8969.4	
498.34	8714.1	
498.53	5808.7	
498.73	6723.5	
498.93	7606.2	
499.13	8191.2	
499.33	6346.7	
499.52	6934.4	
499.72	8107.2	
499.92	8564.6	
500.12	5966.4	
500.32	6322.8	
500.51	8439.7	
500.71	8161.8	
500.91	7200	
501.11	6726.9	
501.31	8284.7	
501.5	8787.2	
501.7	7322.2	
501.9	6346	
502.1	8082.7	
502.29	8438.3	
502.49	6728.3	
502.69	7373.4	
502.89	8246.5	
503.09	8250.6	
503.28	5829.2	
503.48	5911.1	
503.68	7447.8	
503.88	7528.3	
504.07	7028.6	
504.27	6449.1	
504.47	7905.8	
504.67	8078.6	
504.86	6891.4	
505.06	6546	
505.26	7559.1	
505.46	9542.2	
505.65	6493.4	
505.85	6686.6	
506.05	7540.6	
506.25	8011.7	
506.44	5840.8	
506.64	6787.7	
506.84	7452.6	
507.04	8436.9	
507.23	5941.2	
507.43	6597.9	
507.63	9555.1	
507.83	7765.9	
508.02	6599.2	
508.22	5645.6	
508.42	9822.7	
508.62	7534.5	
508.81	6867.5	
509.01	7098.9	
509.21	7448.5	
509.4	7720.8	
509.6	6774	
509.8	6062.7	
510	7687.4	
510.19	9163.3	
510.39	6040.1	
510.59	6081.8	
510.79	7486	
510.98	8910.7	
511.18	6083.1	
511.38	6208.8	
511.57	8269.7	
511.77	8173.4	
511.97	6957.6	
512.17	5897.5	
512.36	8338.6	
512.56	8292.2	
512.76	5935.7	
512.95	5738.4	
513.15	8464.3	
513.35	6962.4	
513.55	6941.9	
513.74	5995.1	
513.94	8324.3	
514.14	7733.1	
514.33	7032.7	
514.53	6883.9	
514.73	7562.5	
514.92	7889.5	
515.12	6240.2	
515.32	6036	
515.51	8013	
515.71	8597.4	
515.91	7795.3	
516.11	6074.3	
516.3	9898.5	
516.5	7499.7	
516.7	6716	
516.89	7253.9	
517.09	7635.5	
517.29	7580.9	
517.48	7013.6	
517.68	6398.5	
517.88	7395.9	
518.07	8103.1	
518.27	6810.2	
518.47	5847.6	
518.66	8699.8	
518.86	7172	
519.06	5696.1	
519.25	6221	
519.45	7584.3	
519.65	9086.8	
519.84	6826.6	
520.04	7494.2	
520.24	9413.8	
520.43	8222.6	
520.63	6503.7	
520.83	6300.2	
521.02	7438.9	
521.22	8166.6	
521.42	6808.8	
521.61	7458.7	
521.81	7619.8	
522.01	7828.7	
522.2	6733.7	
522.4	6519.4	
522.6	8362.5	
522.79	7133.1	
522.99	6551.5	
523.18	5793	
523.38	8086.7	
523.58	8070.4	
523.77	7847.8	
523.97	5763.7	
524.17	9977.7	
524.36	9121	
524.56	7101	
524.76	6782.9	
524.95	7979.6	
525.15	7690.1	
525.34	6554.2	
525.54	6492.7	
525.74	8368.7	
525.93	7275.8	
526.13	7686.7	
526.33	6370.5	
526.52	8675.9	
526.72	8123.6	
526.91	7789.1	
527.11	6941.9	
527.31	8742.8	
527.5	9176.3	
527.7	6825.9	
527.89	5823.7	
528.09	7540.6	
528.29	8164.6	
528.48	7356.3	
528.68	6894.8	
528.87	8522.3	
529.07	8638.3	
529.27	6722.1	
529.46	6102.3	
529.66	8023.9	
529.85	8535.9	
530.05	6048.3	
530.25	6916.7	
530.44	9609.1	
530.64	8090.8	
530.83	6514.6	
531.03	6773.3	
531.23	8463.6	
531.42	8441.7	
531.62	7591.1	
531.81	6692.1	
532.01	8655.4	
532.21	9125.1	
532.4	6397.9	
532.6	6708.5	
532.79	9695.1	
532.99	8645.8	
533.18	6838.9	
533.38	7874.4	
533.58	8189.8	
533.77	9007	
533.97	6742.6	
534.16	7562.5	
534.36	9146.2	
534.55	8248.5	
534.75	7684	
534.95	6775.4	
535.14	8923.7	
535.34	8142	
535.53	6417.7	
535.73	8555	
535.92	9510.8	
536.12	8378.2	
536.31	6429.3	
536.51	7742	
536.71	8729.1	
536.9	8161.2	
537.1	6668.2	
537.29	6862.7	
537.49	9202.9	
537.68	8153	
537.88	7280.5	
538.07	6445	
538.27	8290.9	
538.46	9475.3	
538.66	6288.6	
538.86	6690	
539.05	8370.7	
539.25	8787.8	
539.44	7128.3	
539.64	6705	
539.83	8211	
540.03	9225.4	
540.22	6519.4	
540.42	6642.2	
540.61	8505.2	
540.81	8622.6	
541	7272.3	
541.2	7787.7	
541.39	7958.4	
541.59	8379.6	
541.78	7419.8	
541.98	6580.8	
542.18	7743.4	
542.37	7671.7	
542.57	6952.9	
542.76	7479.2	
542.96	7703.8	
543.15	8548.9	
543.35	6969.9	
543.54	6391	
543.74	8808.3	
543.93	8381	
544.13	6991.8	
544.32	8158.4	
544.52	8711.4	
544.71	7916.1	
544.91	6025.8	
545.1	7464.2	
545.3	7937.9	
545.49	8691.6	
545.69	6075.6	
545.88	6680.5	
546.08	9581.1	
546.27	9263	
546.47	7213.6	
546.66	6450.4	
546.86	8914.1	
547.05	9521.7	
547.24	6660	
547.44	6497.5	
547.63	7759.8	
547.83	9007.6	
548.02	6969.2	
548.22	7203.4	
548.41	7612.3	
548.61	9044.5	
548.8	6483.9	
549	6374.6	
549.19	8279.3	
549.39	8535.9	
549.58	6112.5	
549.78	6858	
549.97	8733.2	
550.17	8173.4	
550.36	7722.9	
550.55	8706.6	
550.75	8211	
550.94	9158.5	
551.14	6362.4	
551.33	6875	
551.53	7432.1	
551.72	8499.1	
551.92	6899.6	
552.11	6565.8	
552.31	8588.5	
552.5	8688.8	
552.69	8430.8	
552.89	6195.8	
553.08	8542.1	
553.28	8318.8	
553.47	6614.3	
553.67	7821.2	
553.86	9311.4	
554.06	7490.1	
554.25	5773.9	
554.44	6471.6	
554.64	10094	
554.83	9566.1	
555.03	6345.3	
555.22	6793.1	
555.42	8746.2	
555.61	8487.5	
555.8	6630	
556	6935.8	
556.19	7516.7	
556.39	8936.7	
556.58	6634.1	
556.78	6587.6	
556.97	8373.5	
557.16	8043.1	
557.36	7997.3	
557.55	6304.3	
557.75	7387	
557.94	9154.4	
558.13	6462	
558.33	6144.6	
558.52	8964.6	
558.72	7765.2	
558.91	6328.9	
559.1	6475.7	
559.3	7412.3	
559.49	7181.5	
559.69	5787.6	
559.88	6911.2	
560.07	8382.3	
560.27	8790.6	
560.46	7071.6	
560.66	7157.7	
560.85	8084.7	
561.04	7273	
561.24	6290	
561.43	6402.6	
561.63	7499	
561.82	7877.9	
562.01	7822.6	
562.21	6789.7	
562.4	8316.1	
562.59	9310.7	
562.79	6604	
562.98	6201.9	
563.18	8209.6	
563.37	9734.7	
563.56	7055.9	
563.76	6128.2	
563.95	7576.1	
564.14	7581.6	
564.34	6534.4	
564.53	6335.7	
564.73	8233.5	
564.92	8606.2	
565.11	6666.8	
565.31	6109.8	
565.5	8731.9	
565.69	7705.1	
565.89	6182.1	
566.08	6536.4	
566.27	8615.8	
566.47	9019.9	
566.66	7233.4	
566.85	5819	
567.05	8163.2	
567.24	7574.8	
567.44	6126.2	
567.63	7648.5	
567.82	8473.8	
568.02	8132.5	
568.21	6211.5	
568.4	6645	
568.6	8036.9	
568.79	8004.1	
568.98	6061.3	
569.18	6106.4	
569.37	7922.2	
569.56	10124	
569.76	6560.3	
569.95	7514	
570.14	8349.6	
570.34	8265.6	
570.53	5997.1	
570.72	6006.7	
570.91	8791.9	
571.11	7910.6	
571.3	6451.1	
571.49	7507.2	
571.69	7960.5	
571.88	7482.6	
572.07	7031.4	
572.27	7068.2	
572.46	7479.2	
572.65	8629.5	
572.85	6220.4	
573.04	6655.9	
573.23	8861.6	
573.43	8004.1	
573.62	5938.4	
573.81	6681.2	
574	8122.2	
574.2	7827.3	
574.39	6346	
574.58	6491.4	
574.78	8815.8	
574.97	8113.4	
575.16	6837.5	
575.36	7114	
575.55	8438.3	
575.74	8709.3	
575.93	5968.5	
576.13	7023.2	
576.32	7897	
576.51	8381	
576.71	6423.8	
576.9	7784.3	
577.09	8809.7	
577.28	8282.7	
577.48	6879.8	
577.67	5822.4	
577.86	7955	
578.05	8297	
578.25	6544.6	
578.44	6625.9	
578.63	8021.9	
578.83	9226.8	
579.02	5930.9	
579.21	7510.6	
579.4	8206.2	
579.6	7894.9	
579.79	6741.2	
579.98	9092.3	
580.17	8606.2	
580.37	8604.2	
580.56	6105.7	
580.75	6952.2	
580.94	9221.3	
581.14	9121	
581.33	7305.8	
581.52	6298.9	
581.71	8547.5	
581.91	9097.1	
582.1	5902.2	
582.29	6612.9	
582.48	8168	
582.68	8026	
582.87	7163.8	
583.06	6619.7	
583.25	8461.5	
583.45	7740	
583.64	7320.8	
583.83	8153	
584.02	7821.2	
584.21	8335.2	
584.41	7318.1	
584.6	6576.7	
584.79	8026	
584.98	8873.8	
585.18	6061.3	
585.37	6079.7	
585.56	7606.2	
585.75	8430.8	
585.94	6349.4	
586.14	6967.9	
586.33	9108	
586.52	8029.4	
586.71	6801.3	
586.91	6533	
587.1	7482.6	
587.29	8567.3	
587.48	6539.2	
587.67	6382.8	
587.87	8351.6	
588.06	8486.1	
588.25	7712	
588.44	7001.3	
588.63	8046.5	
588.83	8616.5	
589.02	6391	
589.21	6227.2	
589.4	7773.4	
589.59	7543.4	
589.78	5551.4	
589.98	5849	
590.17	7327.6	
590.36	7940	
590.55	5269.4	
590.74	6228.6	
590.94	9409.7	
591.13	7871	
591.32	5922.7	
591.51	5496.1	
591.7	8329.1	
591.89	7842.4	
592.09	5660.6	
592.28	6113.9	
592.47	7009.5	
592.66	8922.3	
592.85	5501.5	
593.05	5862.7	
593.24	7656	
593.43	8403.5	
593.62	5950	
593.81	6526.9	
594	7608.2	
594.19	7959.1	
594.39	5803.3	
594.58	5743.2	
594.77	8039.6	
594.96	8588.5	
595.15	5647.6	
595.34	6326.2	
595.54	8041	
595.73	7084.6	
595.92	5129.5	
596.11	6307.7	
596.3	8632.2	
596.49	7241.6	
596.68	6071.5	
596.88	6543.3	
597.07	8326.4	
597.26	7049.1	
597.45	5564.3	
597.64	6847.7	
597.83	7284.6	
598.02	7934.5	
598.22	5666	
598.41	6324.8	
598.6	7709.9	
598.79	7227.3	
598.98	5752.1	
599.17	6662	
599.36	7806.2	
599.55	9106.6	
599.74	7830.1	
599.94	7596.6	
600.13	8309.3	
600.32	7147.4	
600.51	5426.4	
600.7	5654.4	
600.89	8996.7	
601.08	9050.7	
601.27	5356.1	
601.47	6449.7	
601.66	8258.1	
601.85	9022	
602.04	6054.5	
602.23	6402	
602.42	7270.3	
602.61	8001.4	
602.8	6097.5	
602.99	5781.4	
603.18	7673.1	
603.37	7959.8	
603.57	6550.8	
603.76	7012.2	
603.95	8703.9	
604.14	8230.1	
604.33	5825.8	
604.52	6221	
604.71	7859.4	
604.9	7501	
605.09	6842.3	
605.28	6604.7	
605.47	8563.2	
605.66	8204.8	
605.86	6492.7	
606.05	5907	
606.24	8489.5	
606.43	6953.5	
606.62	6199.2	
606.81	7077.8	
607	8334.6	
607.19	7577.5	
607.38	5614.2	
607.57	5898.1	
607.76	7413	
607.95	6864.1	
608.14	6332.3	
608.33	6895.5	
608.52	7425.9	
608.72	8227.4	
608.91	5581.4	
609.1	5484.5	
609.29	7558.4	
609.48	7039.6	
609.67	6552.8	
609.86	5560.9	
610.05	7149.5	
610.24	7501	
610.43	5387.5	
610.62	5109	
610.81	8676.6	
611	8340	
611.19	5567.1	
611.38	6318	
611.57	7775.5	
611.76	9204.9	
611.95	5335.6	
612.14	5236.7	
612.33	7582.9	
612.52	7046.4	
612.71	5915.9	
612.9	5081	
613.09	6679.8	
613.28	9146.9	
613.47	5606.7	
613.66	6620.4	
613.85	7703.1	
614.04	7128.3	
614.24	5674.2	
614.43	4895.3	
614.62	7832.8	
614.81	7795.9	
615	6321.4	
615.19	6402	
615.38	7073	
615.57	7451.9	
615.76	6168.5	
615.95	7217.7	
616.14	7874.4	
616.33	7473	
616.52	6471.6	
616.71	6813.6	
616.9	7901.1	
617.09	7644.4	
617.28	5752.7	
617.47	7094.2	
617.66	6879.8	
617.85	6893.5	
618.04	6780.8	
618.22	6138.4	
618.41	7261.4	
618.6	8131.1	
618.79	5999.9	
618.98	5670.1	
619.17	8479.3	
619.36	6769.9	
619.55	5850.4	
619.74	5898.8	
619.93	7666.9	
620.12	7091.4	
620.31	6512.5	
620.5	6625.9	
620.69	8314.1	
620.88	8704.5	
621.07	7421.8	
621.26	6337.8	
621.45	7845.1	
621.64	7830.1	
621.83	6477	
622.02	5550.7	
622.21	7852.6	
622.4	7641.7	
622.59	6987.7	
622.78	6776	
622.97	7145.4	
623.16	8242.4	
623.35	6322.1	
623.54	5479	
623.72	7482.6	
623.91	7613	
624.1	6606.7	
624.29	5202.5	
624.48	8716.2	
624.67	7831.4	
624.86	6451.1	
625.05	5506.3	
625.24	8804.2	
625.43	7126.2	
625.62	8407.6	
625.81	5714.5	
626	8201.4	
626.19	7466.2	
626.38	6600.6	
626.56	5933	
626.75	7212.9	
626.94	7959.8	
627.13	6565.1	
627.32	5214.1	
627.51	7868.3	
627.7	9353.1	
627.89	5326.8	
628.08	6520.7	
628.27	7061.4	
628.46	7332.4	
628.65	5644.2	
628.83	5361.6	
629.02	7907.9	
629.21	7114.6	
629.4	6079.7	
629.59	6334.4	
629.78	7039.6	
629.97	8129.1	
630.16	6377.4	
630.35	5806	
630.54	8501.1	
630.72	8317.5	
630.91	5780.1	
631.1	6384.9	
631.29	7748.8	
631.48	7897	
631.67	6470.9	
631.86	5946.6	
632.05	7282.6	
632.24	7361.8	
632.42	5584.1	
632.61	6214.2	
632.8	7472.4	
632.99	7079.8	
633.18	6135.7	
633.37	6616.3	
633.56	7658.7	
633.75	7531.7	
633.93	6260	
634.12	5878.4	
634.31	8514.1	
634.5	8213.7	
634.69	5829.9	
634.88	6384.2	
635.07	7475.1	
635.25	8081.3	
635.44	6879.1	
635.63	7029.3	
635.82	7324.9	
636.01	6828.6	
636.2	6853.9	
636.39	6308.4	
636.57	8527.7	
636.76	8271.7	
636.95	5724.1	
637.14	7243	
637.33	7797.3	
637.52	8783.1	
637.7	5538.4	
637.89	6460	
638.08	7367.2	
638.27	8948.3	
638.46	6529.6	
638.65	7029.3	
638.83	8948.9	
639.02	7161.7	
639.21	6546	
639.4	6986.3	
639.59	7735.9	
639.78	7197.2	
639.96	5819	
640.15	5805.3	
640.34	7605.5	
640.53	7748.1	
640.72	5500.8	
640.91	5883.1	
641.09	6935.8	
641.28	8436.9	
641.47	5779.4	
641.66	6681.2	
641.85	7715.4	
642.03	8006.9	
642.22	6470.2	
642.41	5966.4	
642.6	7098.3	
642.79	6502.3	
642.97	5726.8	
643.16	6456.6	
643.35	7081.2	
643.54	6902.3	
643.73	5598.5	
643.91	6462.7	
644.1	6748.7	
644.29	7402.7	
644.48	5713.8	
644.67	5708.4	
644.85	6965.8	
645.04	7297.6	
645.23	5319.3	
645.42	5515.2	
645.6	6855.2	
645.79	8019.8	
645.98	5630.5	
646.17	4651.6	
646.36	6599.9	
646.54	7140.6	
646.73	6532.3	
646.92	5209.3	
647.11	6868.9	
647.29	8017.8	
647.48	5307.7	
647.67	5111.7	
647.86	8273.8	
648.05	8237.6	
648.23	5782.1	
648.42	7124.2	
648.61	7614.3	
648.8	7281.2	
648.98	5315.2	
649.17	5720.7	
649.36	6862.1	
649.55	6373.3	
649.73	5408.7	
649.92	6201.2	
650.11	6711.2	
650.3	7153.6	
650.48	5514.5	
650.67	5328.1	
650.86	7446.4	
651.05	6240.8	
651.23	5508.4	
651.42	5489.2	
651.61	6848.4	
651.79	7025.2	
651.98	5767.8	
652.17	5294.7	
652.36	7393.2	
652.54	6381.5	
652.73	5425.1	
652.92	5181.4	
653.11	7424.6	
653.29	7453.9	
653.48	4584	
653.67	5699.5	
653.85	7147.4	
654.04	8151.6	
654.23	5836.7	
654.42	5395	
654.6	6633.4	
654.79	7337.9	
654.98	4862.6	
655.16	5490.6	
655.35	6289.3	
655.54	6253.1	
655.73	5052.3	
655.91	4988.9	
656.1	7565.9	
656.29	6275.7	
656.47	4433.2	
656.66	6280.4	
656.85	6521.4	
657.03	6553.5	
657.22	5089.2	
657.41	5246.2	
657.59	6626.5	
657.78	6352.8	
657.97	4754	
658.16	5552	
658.34	7277.1	
658.53	7727	
658.72	6337.8	
658.9	6892.1	
659.09	6664.8	
659.28	6709.1	
659.46	5200.5	
659.65	5158.2	
659.84	6509.1	
660.02	6964.5	
660.21	5053.7	
660.4	4992.9	
660.58	7500.3	
660.77	6795.2	
660.96	5640.8	
661.14	4639.3	
661.33	7993.9	
661.52	7841.7	
661.7	4530.8	
661.89	8524.3	
662.08	6388.3	
662.26	6016.2	
662.45	4904.2	
662.64	5025.7	
662.82	7123.5	
663.01	6321.4	
663.2	5102.2	
663.38	5857.9	
663.57	7090.1	
663.75	6935.8	
663.94	5408	
664.13	6794.5	
664.31	6347.3	
664.5	7137.2	
664.69	5651.7	
664.87	6250.4	
665.06	6093.4	
665.25	6965.1	
665.43	6460.7	
665.62	6510.5	
665.8	7202.7	
665.99	6524.8	
666.18	5393	
666.36	5479.7	
666.55	7185.6	
666.74	7061.4	
666.92	5020.3	
667.11	6737.8	
667.29	6527.6	
667.48	7271	
667.67	6280.4	
667.85	5401.9	
668.04	6641.6	
668.22	6668.2	
668.41	5479	
668.6	5674.2	
668.78	6313.9	
668.97	6561	
669.15	5853.8	
669.34	4704.2	
669.53	6374	
669.71	6780.1	
669.9	5009.3	
670.08	5634.6	
670.27	6328.9	
670.46	6984.9	
670.64	5808.7	
670.83	6148.7	
671.01	6207.4	
671.2	6918	
671.38	4980	
671.57	4885.1	
671.76	7530.4	
671.94	8226.7	
672.13	4800.4	
672.31	5979.4	
672.5	7047.7	
672.69	6314.6	
672.87	5091.3	
673.06	5351.3	
673.24	6941.9	
673.43	6439.5	
673.61	5862	
673.8	5354.1	
673.98	7217.7	
674.17	7372	
674.36	5931.6	
674.54	5817.6	
674.73	6904.4	
674.91	7071.6	
675.1	5442.8	
675.28	5090.6	
675.47	6570.6	
675.65	7182.9	
675.84	5354.1	
676.03	5601.2	
676.21	6411.5	
676.4	5873.6	
676.58	6161	
676.77	5864.7	
676.95	7915.4	
677.14	6358.3	
677.32	4977.2	
677.51	4788.2	
677.69	7154.9	
677.88	5996.5	
678.06	4854.4	
678.25	4943.8	
678.44	6662.7	
678.62	6361.7	
678.81	4709	
678.99	5681.1	
679.18	7466.2	
679.36	6980.8	
679.55	5330.9	
679.73	5954.1	
679.92	7032	
680.1	6416.3	
680.29	6518.7	
680.47	5251	
680.66	6348.7	
680.84	7161.7	
681.03	4604.5	
681.21	5704.3	
681.4	6220.4	
681.58	6251.1	
681.77	5000.5	
681.95	4959.5	
682.14	7260	
682.32	7640.3	
682.51	5976	
682.69	4756.1	
682.88	6270.9	
683.06	7004.1	
683.25	5694.7	
683.43	6126.2	
683.62	6593.1	
683.8	7077.8	
683.99	6189	
684.17	5414.1	
684.36	7847.8	
684.54	6408.1	
684.73	4569	
684.91	4838.7	
685.1	6828.6	
685.28	6239.5	
685.46	5461.2	
685.65	5631.9	
685.83	7188.4	
686.02	6492.1	
686.2	5029.1	
686.39	5135.6	
686.57	6160.3	
686.76	7845.1	
686.94	5064.6	
687.13	5124.7	
687.31	6995.9	
687.5	6499.6	
687.68	4515.8	
687.86	5901.6	
688.05	8264.9	
688.23	5925.5	
688.42	5950.7	
688.6	5006.6	
688.79	6333	
688.97	6321.4	
689.16	5461.9	
689.34	4338.3	
689.52	7154.9	
689.71	7343.3	
689.89	5726.1	
690.08	4964.3	
690.26	6561	
690.45	6483.2	
690.63	5903.6	
690.81	5047.6	
691	6261.3	
691.18	6286.6	
691.37	5380.7	
691.55	7598	
691.74	6188.3	
691.92	8419.9	
692.1	5324.7	
692.29	4717.2	
692.47	6465.4	
692.66	5760.9	
692.84	4998.4	
693.02	5570.5	
693.21	5871.5	
693.39	6427.9	
693.58	5671.5	
693.76	4996.4	
693.94	7677.8	
694.13	7416.4	
694.31	5000.5	
694.5	6166.4	
694.68	6223.8	
694.86	6525.5	
695.05	5381.4	
695.23	5709.1	
695.42	6898.9	
695.6	9407	
695.78	5974.6	
695.97	4982	
696.15	6914.6	
696.34	6289.3	
696.52	4777.2	
696.7	5609.4	
696.89	6696.9	
697.07	6128.2	
697.25	5636	
697.44	7243	
697.62	6638.1	
697.81	7109.9	
697.99	5221	
698.17	5749.3	
698.36	6063.4	
698.54	6694.8	
698.72	5595.1	
698.91	4627	
699.09	6295.5	
699.28	6202.6	
699.46	5276.9	
699.64	5158.2	
699.83	6063.4	
700.01	7509.2	
700.19	5988.3	
700.38	4311	
700.56	7429.3	
700.74	6190.3	
700.93	4752	
701.11	5614.2	
701.29	6836.8	
701.48	7818.5	
701.66	5014.8	
701.84	5010.7	
702.03	6326.9	
702.21	6978.8	
702.39	4538.3	
702.58	5134.9	
702.76	6752.8	
702.94	6888.7	
703.13	4597	
703.31	7109.2	
703.49	6034	
703.68	7303.7	
703.86	4790.9	
704.04	5800.5	
704.23	6511.2	
704.41	7000.6	
704.59	4943.8	
704.78	6321.4	
704.96	7666.2	
705.14	7075.7	
705.33	4682.3	
705.51	5605.3	
705.69	6465.4	
705.87	7287.4	
706.06	5900.2	
706.24	4632.5	
706.42	6715.3	
706.61	7036.8	
706.79	5960.3	
706.97	4756.7	
707.16	6150.7	
707.34	6776	
707.52	5830.6	
707.7	5016.2	
707.89	6284.5	
708.07	5967.8	
708.25	5902.9	
708.44	6040.8	
708.62	6292	
708.8	7451.2	
708.98	6164.4	
709.17	5069.4	
709.35	6709.1	
709.53	6727.6	
709.72	4780	
709.9	4943.1	
710.08	6925.5	
710.26	7053.2	
710.45	6509.8	
710.63	5057.1	
710.81	6652.5	
710.99	6668.9	
711.18	5713.2	
711.36	5233.9	
711.54	6462.7	
711.72	7207.5	
711.91	5367.7	
712.09	4731.5	
712.27	6584.9	
712.45	7597.3	
712.64	5696.8	
712.82	4525.3	
713	6036	
713.18	6189.6	
713.37	4696.7	
713.55	5922	
713.73	7166.5	
713.91	5682.4	
714.1	5171.1	
714.28	4591.5	
714.46	6825.9	
714.64	6010.8	
714.83	4104.1	
715.01	4997	
715.19	6171.9	
715.37	5569.1	
715.55	4675.5	
715.74	4995.7	
715.92	7153.6	
716.1	5139	
716.28	6206	
716.47	5205.9	
716.65	5811.5	
716.83	6004	
717.01	5005.2	
717.19	5123.3	
717.38	8190.5	
717.56	5618.9	
717.74	5380.7	
717.92	4408.6	
718.1	6924.9	
718.29	6124.1	
718.47	4033.1	
718.65	4719.9	
718.83	6819.1	
719.01	6661.4	
719.2	3788.7	
719.38	5021.6	
719.56	6300.2	
719.74	7966.6	
719.92	4495.3	
720.11	5669.5	
720.29	6401.3	
720.47	5480.4	
720.65	4078.9	
720.83	5029.8	
721.02	5905.7	
721.2	5681.7	
721.38	5144.5	
721.56	4323.9	
721.74	5175.9	
721.92	5366.4	
722.11	5646.9	
722.29	5292.6	
722.47	6690.7	
722.65	5828.5	
722.83	4345.1	
723.01	5397.8	
723.2	5944.6	
723.38	6184.9	
723.56	3746.4	
723.74	4988.9	
723.92	5378.6	
724.1	6597.2	
724.29	4333.5	
724.47	5569.8	
724.65	5365.7	
724.83	5335	
725.01	4175.8	
725.19	5125.4	
725.37	5518.6	
725.56	5537.7	
725.74	4134.8	
725.92	4329.4	
726.1	5335	
726.28	5695.4	
726.46	4767	
726.64	4509.6	
726.83	5714.5	
727.01	6059.3	
727.19	4049.5	
727.37	4898.7	
727.55	5750.7	
727.73	6408.8	
727.91	4029	
728.09	3821.5	
728.28	6414.2	
728.46	7160.4	
728.64	5088.5	
728.82	5060.5	
729	7576.1	
729.18	6657.9	
729.36	4157.4	
729.54	6673	
729.72	7808.2	
729.91	5945.3	
730.09	6133.7	
730.27	4885.1	
730.45	5878.4	
730.63	6589.7	
730.81	5547.3	
730.99	4473.4	
731.17	7013.6	
731.35	5516.5	
731.53	5094.7	
731.71	4642.1	
731.9	6889.4	
732.08	6969.9	
732.26	4904.2	
732.44	4533.5	
732.62	7098.9	
732.8	6536.4	
732.98	5363.6	
733.16	4396.3	
733.34	6507.1	
733.52	5295.4	
733.7	4923.3	
733.88	5273.5	
734.07	6382.2	
734.25	6056.5	
734.43	4359.4	
734.61	6081.8	
734.79	7651.9	
734.97	5967.8	
735.15	4487.8	
735.33	4883.7	
735.51	6343.2	
735.69	5984.2	
735.87	6339.8	
736.05	5114.5	
736.23	6238.1	
736.41	5941.2	
736.59	4916.5	
736.77	5001.1	
736.95	6703	
737.13	6121.4	
737.32	4533.5	
737.5	4765.6	
737.68	7300.3	
737.86	5969.1	
738.04	4345.1	
738.22	6347.3	
738.4	5811.5	
738.58	6139.8	
738.76	5079	
738.94	3945.1	
739.12	5919.3	
739.3	5808	
739.48	5728.2	
739.66	5440.1	
739.84	6201.9	
740.02	6257.9	
740.2	4079.6	
740.38	4472.8	
740.56	6674.3	
740.74	5395	
740.92	5081.7	
741.1	5105.6	
741.28	5992.4	
741.46	5895.4	
741.64	4705.5	
741.82	5280.3	
742	6049.7	
742.18	6070.2	
742.36	4900.8	
742.54	4457.1	
742.72	6675	
742.9	5418.2	
743.08	5362.9	
743.26	4035.9	
743.44	6944	
743.62	6750.8	
743.8	5465.3	
743.98	4459.1	
744.16	6449.1	
744.34	6121.4	
744.52	5446.9	
744.7	5355.4	
744.88	6597.9	
745.06	6091.3	
745.24	5493.3	
745.42	5603.9	
745.6	6667.5	
745.78	6422.4	
745.96	4252.9	
746.14	4589.5	
746.32	7440.3	
746.5	6711.9	
746.68	5163.6	
746.86	4612.7	
747.03	7238.2	
747.21	5378	
747.39	5189.6	
747.57	4642.7	
747.75	6309.1	
747.93	6773.3	
748.11	4665.3	
748.29	4534.9	
748.47	8000	
748.65	6010.1	
748.83	5390.9	
749.01	5090.6	
749.19	6567.2	
749.37	5684.5	
749.55	4929.5	
749.73	5125.4	
749.91	6186.9	
750.09	5926.1	
750.26	5106.3	
750.44	4457.1	
750.62	6250.4	
750.8	6165.8	
750.98	4297.3	
751.16	4693.9	
751.34	6281.8	
751.52	5601.2	
751.7	5551.4	
751.88	4313	
752.06	6772.6	
752.24	6626.5	
752.42	4235.9	
752.59	4636.6	
752.77	6144.6	
752.95	7538.6	
753.13	5484.5	
753.31	4806.6	
753.49	5866.7	
753.67	6316.6	
753.85	5077.6	
754.03	4624.3	
754.21	6676.4	
754.38	6984.9	
754.56	4902.8	
754.74	3878.2	
754.92	5834	
755.1	6734.4	
755.28	3891.8	
755.46	3920.5	
755.64	7424.6	
755.82	7542.7	
755.99	4259.8	
756.17	4438.6	
756.35	4924.7	
756.53	6595.1	
756.71	3190.7	
756.89	4187.4	
757.07	6157.6	
757.25	5135.6	
757.42	4771.8	
757.6	5677	
757.78	6181.5	
757.96	5148.6	
758.14	4495.3	
758.32	3952.6	
758.5	4650.3	
758.67	5597.8	
758.85	4357.4	
759.03	4356.7	
759.21	5739.8	
759.39	5176.6	
759.57	3851.5	
759.75	5083.7	
759.92	6494.8	
760.1	5666	
760.28	5436	
760.46	5646.2	
760.64	5403.9	
760.82	5157.5	
760.99	5233.2	
761.17	4355.3	
761.35	6319.3	
761.53	5218.9	
761.71	4508.3	
761.89	5282.4	
762.06	6142.5	
762.24	5659.9	
762.42	4561.5	
762.6	4381.3	
762.78	5632.6	
762.96	6447	
763.13	4947.9	
763.31	4662.5	
763.49	6593.8	
763.67	5598.5	
763.85	5528.8	
764.02	6221	
764.2	6771.3	
764.38	5962.3	
764.56	4562.9	
764.74	5480.4	
764.91	6933.7	
765.09	5807.4	
765.27	4187.4	
765.45	3988.1	
765.63	6963.8	
765.8	6868.2	
765.98	3715	
766.16	4081.6	
766.34	5362.9	
766.52	5125.4	
766.69	5139.7	
766.87	3936.9	
767.05	5807.4	
767.23	6542.6	
767.41	4230.4	
767.58	4530.1	
767.76	6343.2	
767.94	6470.9	
768.12	4357.4	
768.29	5159.5	
768.47	5885.9	
768.65	6617.7	
768.83	3967.6	
769	5214.1	
769.18	5421	
769.36	6218.3	
769.54	5012.7	
769.72	4044.1	
769.89	6423.8	
770.07	6657.9	
770.25	4424.3	
770.43	5689.3	
770.6	7315.3	
770.78	7759.1	
770.96	4564.2	
771.14	5253.7	
771.31	6332.3	
771.49	5636	
771.67	3711.6	
771.85	3984	
772.02	4833.2	
772.2	5657.9	
772.38	4723.3	
772.55	4250.9	
772.73	5965.7	
772.91	5720.7	
773.09	4631.8	
773.26	4791.6	
773.44	5935.7	
773.62	5629.9	
773.8	4107.5	
773.97	3821.5	
774.15	6032	
774.33	5618.3	
774.5	4032.5	
774.68	4383.3	
774.86	6209.4	
775.04	5625.1	
775.21	4075.5	
775.39	4108.9	
775.57	5924.8	
775.74	6382.8	
775.92	3962.1	
776.1	3800.3	
776.27	5922	
776.45	7249.1	
776.63	4077.5	
776.81	3590.8	
776.98	5521.3	
777.16	6695.5	
777.34	4244.1	
777.51	4629.1	
777.69	5524.7	
777.87	5221	
778.04	4312.3	
778.22	4950.6	
778.4	5345.9	
778.57	6014.9	
778.75	3543.7	
778.93	3837.2	
779.1	5098.8	
779.28	4982.7	
779.46	3530.7	
779.64	4076.8	
779.81	6185.5	
779.99	7141.9	
780.17	4951.3	
780.34	5092.6	
780.52	5569.8	
780.69	5836	
780.87	4437.9	
781.05	3971.7	
781.22	5719.3	
781.4	5754.8	
781.58	4097.3	
781.75	3229	
781.93	5598.5	
782.11	5069.4	
782.28	5102.2	
782.46	4095.3	
782.64	4922.6	
782.81	5933.6	
782.99	4236.6	
783.17	4134.8	
783.34	5776.6	
783.52	4905.6	
783.69	4414.7	
783.87	5240.1	
784.05	5093.3	
784.22	5125.4	
784.4	5198.4	
784.58	4528.7	
784.75	6029.2	
784.93	5056.4	
785.1	4114.4	
785.28	4798.4	
785.46	5780.7	
785.63	5085.8	
785.81	4066.6	
785.99	3969.6	
786.16	5259.2	
786.34	5686.5	
786.51	4010.6	
786.69	4375.8	
786.87	4822.3	
787.04	5361.6	
787.22	3398.3	
787.39	4904.2	
787.57	5000.5	
787.75	6274.3	
787.92	4993.6	
788.1	4921.3	
788.27	5122	
788.45	4816.8	
788.63	4620.9	
788.8	3345	
788.98	5469.4	
789.15	4809.3	
789.33	3500.7	
789.5	4175.1	
789.68	6092	
789.86	6201.2	
790.03	4657.8	
790.21	4001	
790.38	6077.7	
790.56	5234.6	
790.73	3835.2	
790.91	3909.6	
791.09	5144.5	
791.26	5917.3	
791.44	4091.2	
791.61	3457.7	
791.79	5016.8	
791.96	5214.8	
792.14	3680.2	
792.32	3248.8	
792.49	5094	
792.67	5216.2	
792.84	3713	
793.02	3545.7	
793.19	5557.5	
793.37	6376	
793.54	3310.2	
793.72	3601	
793.89	6521.4	
794.07	5119.2	
794.25	4262.5	
794.42	3340.9	
794.6	6219.7	
794.77	5865.4	
794.95	4534.9	
795.12	3999.7	
795.3	5115.1	
795.47	5863.3	
795.65	4407.2	
795.82	4183.3	
796	4932.2	
796.17	6984.9	
796.35	4024.3	
796.52	4818.9	
796.7	5666	
796.87	5816.2	
797.05	5023	
797.22	4917.2	
797.4	5727.5	
797.57	6813.6	
797.75	4201.1	
797.92	3880.2	
798.1	6076.3	
798.27	5119.2	
798.45	3370.3	
798.62	3583.9	
798.8	5475.6	
798.97	5947.3	
799.15	4472.1	
799.32	4218.8	
799.5	4651.6	
799.67	5504.9	
799.85	4536.9	
800.02	3258.3	
800.2	5073.5	
800.37	5414.8	
800.55	4705.5	
800.72	3926.6	
800.9	5930.2	
801.07	6472.3	
801.25	5335	
801.42	4304.1	
801.6	6004	
801.77	5679.7	
801.95	3875.4	
802.12	3824.2	
802.29	5589.6	
802.47	5646.9	
802.64	4262.5	
802.82	3184.6	
802.99	5025.7	
803.17	6199.9	
803.34	4237.2	
803.52	3790.8	
803.69	6866.2	
803.87	4859.1	
804.04	4146.5	
804.21	4339.6	
804.39	6260	
804.56	5330.2	
804.74	3491.8	
804.91	4343.7	
805.09	5115.8	
805.26	5202.5	
805.44	3667.2	
805.61	3914.4	
805.78	5788.2	
805.96	5952.8	
806.13	4395.6	
806.31	4737	
806.48	4590.9	
806.66	5218.2	
806.83	4294.6	
807	4253.6	
807.18	5097.4	
807.35	5519.3	
807.53	4279.6	
807.7	3349.1	
807.87	6336.4	
808.05	5129.5	
808.22	4691.2	
808.4	3334.8	
808.57	5130.8	
808.74	4780	
808.92	3867.2	
809.09	4932.9	
809.27	5047.6	
809.44	5715.9	
809.61	3389.4	
809.79	3771.7	
809.96	6313.9	
810.14	5924.1	
810.31	3301.3	
810.48	4053.6	
810.66	5210	
810.83	6042.9	
811.01	3889.8	
811.18	4577.2	
811.35	5983.5	
811.53	4607.2	
811.7	4703.5	
811.87	4477.5	
812.05	5132.2	
812.22	5059.2	
812.39	3681.6	
812.57	3637.9	
812.74	5156.8	
812.92	6992.4	
813.09	4001	
813.26	4513.7	
813.44	6645	
813.61	5083.1	
813.78	3348.4	
813.96	4555.4	
814.13	5216.2	
814.3	4778.6	
814.48	4942.4	
814.65	4081.6	
814.82	6488.6	
815	4936.3	
815.17	4168.3	
815.34	5119.2	
815.52	5063.3	
815.69	5088.5	
815.87	4137.6	
816.04	3597.6	
816.21	5174.5	
816.38	4554	
816.56	3982.6	
816.73	3707.5	
816.9	6532.3	
817.08	6004.6	
817.25	3781.9	
817.42	4812.7	
817.6	4682.3	
817.77	5253	
817.94	4289.1	
818.12	3760.8	
818.29	4838	
818.46	7753.6	
818.64	3932.8	
818.81	3634.5	
818.98	4769.7	
819.16	7075	
819.33	4484.4	
819.5	4140.3	
819.67	5554.8	
819.85	6260	
820.02	4117.8	
820.19	4432.5	
820.37	5401.9	
820.54	4986.1	
820.71	4248.9	
820.88	5263.3	
821.06	5389.6	
821.23	4910.3	
821.4	4272.1	
821.58	4219.5	
821.75	5924.1	
821.92	5300.1	
822.09	3443.3	
822.27	3493.2	
822.44	5199.8	
822.61	5071.5	
822.79	3404.4	
822.96	6648.4	
823.13	5675.6	
823.3	4849.6	
823.48	3975.8	
823.65	3652.2	
823.82	5859.9	
823.99	4709.6	
824.17	5100.1	
824.34	3564.8	
824.51	6892.8	
824.68	5256.5	
824.86	3799.7	
825.03	4328.7	
825.2	5114.5	
825.37	6302.3	
825.55	3784.6	
825.72	4134.2	
825.89	6941.9	
826.06	6351.4	
826.24	4077.5	
826.41	4155.3	
826.58	6292	
826.75	5496.1	
826.92	3202.3	
827.1	3626.3	
827.27	8673.8	
827.44	6898.2	
827.61	3898.6	
827.79	4752.7	
827.96	4855.1	
828.13	5244.8	
828.3	4091.8	
828.47	3422.8	
828.65	5401.9	
828.82	5377.3	
828.99	5329.5	
829.16	4597	
829.34	5840.8	
829.51	5520.6	
829.68	4171	
829.85	4356	
830.02	6090	
830.2	5755.5	
830.37	3259.7	
830.54	5160.9	
830.71	6627.9	
830.88	5129.5	
831.05	3254.9	
831.23	3831.7	
831.4	6305.7	
831.57	7151.5	
831.74	3900	
831.91	3389.4	
832.09	5373.2	
832.26	5778	
832.43	4048.2	
832.6	4612	
832.77	5408	
832.94	6220.4	
833.12	3184.6	
833.29	3931.4	
833.46	4951.3	
833.63	7481.9	
833.8	4420.9	
833.97	4050.9	
834.15	5826.5	
834.32	5555.5	
834.49	4242.7	
834.66	4345.1	
834.83	6065.4	
835	4875.5	
835.17	3890.5	
835.35	3912.3	
835.52	5713.8	
835.69	5593	
835.86	4121.2	
836.03	3388	
836.2	5722.7	
836.37	5317.2	
836.55	4016.1	
836.72	3812	
836.89	5322	
837.06	5786.9	
837.23	4177.9	
837.4	4527.4	
837.57	6670.2	
837.75	7376.1	
837.92	3674.7	
838.09	3910.3	
838.26	5305.6	
838.43	6070.9	
838.6	4263.9	
838.77	3803.1	
838.94	6983.6	
839.11	6638.1	
839.29	3972.4	
839.46	3150.5	
839.63	5784.8	
839.8	5484.5	
839.97	3953.9	
840.14	3924.6	
840.31	5537.7	
840.48	5791.7	
840.65	3232.4	
840.82	3839.9	
841	5765	
841.17	5831.2	
841.34	3646.1	
841.51	3668.6	
841.68	5693.4	
841.85	5412.8	
842.02	3700.7	
842.19	3054.2	
842.36	5545.2	
842.53	5507.7	
842.7	3624.9	
842.87	4442	
843.05	7334.5	
843.22	5477	
843.39	3355.9	
843.56	3693.9	
843.73	5202.5	
843.9	5869.5	
844.07	5967.1	
844.24	4923.3	
844.41	8643.1	
844.58	4958.1	
844.75	3504.1	
844.92	3754.6	
845.09	5801.2	
845.26	5737.7	
845.43	3596.9	
845.6	3757.3	
845.77	5836.7	
845.94	5476.3	
846.12	3975.8	
846.29	4227.7	
846.46	5958.2	
846.63	5797.1	
846.8	3578.5	
846.97	4280.3	
847.14	6336.4	
847.31	5729.5	
847.48	4049.5	
847.65	4501.4	
847.82	6029.9	
847.99	6049	
848.16	4840.7	
848.33	4461.8	
848.5	5319.3	
848.67	6289.3	
848.84	3633.1	
849.01	3775.8	
849.18	5130.2	
849.35	4798.4	
849.52	4528.1	
849.69	3495.2	
849.86	5960.3	
850.03	6304.3	
850.2	3593.5	
850.37	4421.6	
850.54	6138.4	
850.71	5450.3	
850.88	4323.9	
851.05	3536.2	
851.22	5716.6	
851.39	6279.1	
851.56	3373.7	
851.73	4243.4	
851.9	5090.6	
852.07	6004.6	
852.24	4024.3	
852.41	3579.2	
852.58	5698.8	
852.75	5125.4	
852.92	4018.1	
853.09	3491.1	
853.26	5304.9	
853.43	6286.6	
853.6	3583.3	
853.77	3040.6	
853.94	6376	
854.11	5049.6	
854.28	5311.1	
854.44	3899.3	
854.61	6812.9	
854.78	5876.3	
854.95	3582.6	
855.12	4477.5	
855.29	4631.1	
855.46	6353.5	
855.63	3550.5	
855.8	4960.2	
855.97	5308.3	
856.14	6111.8	
856.31	5121.3	
856.48	3955.3	
856.65	5332.2	
856.82	5047.6	
856.99	3392.1	
857.16	3868.6	
857.33	7037.5	
857.49	5386.8	
857.66	3818.8	
857.83	4192.2	
858	5367.7	
858.17	5575.9	
858.34	3346.4	
858.51	3629.7	
858.68	6545.3	
858.85	6588.3	
859.02	4192.9	
859.19	4426.3	
859.36	5016.2	
859.52	5140.4	
859.69	3564.8	
859.86	4244.1	
860.03	5162.2	
860.2	6345.3	
860.37	3203	
860.54	3618.8	
860.71	6042.2	
860.88	6444.3	
861.05	4039.3	
861.21	4504.8	
861.38	6451.8	
861.55	4960.2	
861.72	3210.5	
861.89	3966.9	
862.06	6149.4	
862.23	6653.9	
862.4	3474.7	
862.56	3729.4	
862.73	5873.6	
862.9	5500.8	
863.07	4251.6	
863.24	3211.9	
863.41	4883.7	
863.58	5057.8	
863.75	3674.1	
863.91	4176.5	
864.08	6425.2	
864.25	5955.5	
864.42	4487.1	
864.59	5064.6	
864.76	6704.4	
864.93	5029.1	
865.09	3487.7	
865.26	3803.1	
865.43	6304.3	
865.6	6713.9	
865.77	3055.6	
865.94	3556	
866.1	6367.8	
866.27	6153.5	
866.44	5380	
866.61	3369.6	
866.78	5504.9	
866.95	5896.8	
867.11	3386	
867.28	3126.6	
867.45	6064.7	
867.62	5126.7	
867.79	4191.5	
867.96	3567.6	
868.12	5044.8	
868.29	6089.3	
868.46	3065.1	
868.63	4754.7	
868.8	6215.6	
868.97	5995.1	
869.13	3765.5	
869.3	3733.4	
869.47	5870.2	
869.64	6035.4	
869.81	3648.8	
869.97	3620.8	
870.14	5756.2	
870.31	6470.9	
870.48	3540.3	
870.65	4575.2	
870.81	5421.7	
870.98	5287.9	
871.15	4109.6	
871.32	3697.3	
871.48	5926.1	
871.65	6591.7	
871.82	3530.7	
871.99	3943.7	
872.16	6940.6	
872.32	6346	
872.49	3580.5	
872.66	3639.2	
872.83	5980.1	
872.99	5277.6	
873.16	4130.8	
873.33	3575.1	
873.5	5625.1	
873.67	5644.2	
873.83	3766.9	
874	4801.1	
874.17	5787.6	
874.34	6910.5	
874.5	4681.7	
874.67	4474.1	
874.84	6489.3	
875.01	5075.5	
875.17	5135.6	
875.34	3574.4	
875.51	5660.6	
875.68	6935.1	
875.84	4315.8	
876.01	5319.9	
876.18	5978.7	
876.34	5937.1	
876.51	3609.9	
876.68	3563.5	
876.85	5436.7	
877.01	6302.3	
877.18	5177.9	
877.35	3536.2	
877.52	5541.8	
877.68	4977.9	
877.85	3531.4	
878.02	3489.1	
878.18	5550.7	
878.35	5265.3	
878.52	2837.8	
878.69	4031.8	
878.85	5966.4	
879.02	5991	
879.19	5093.3	
879.35	3841.3	
879.52	5902.9	
879.69	6223.1	
879.86	3003	
880.02	4045.4	
880.19	5511.8	
880.36	6720.1	
880.52	4115.7	
880.69	4280.3	
880.86	6131.6	
881.02	6132.3	
881.19	3915.7	
881.36	3913.7	
881.52	5947.3	
881.69	5264.6	
881.86	3889.1	
882.02	3766.2	
882.19	6285.2	
882.36	7378.1	
882.52	3628.3	
882.69	5110.4	
882.86	5726.8	
883.02	5668.8	
883.19	4344.4	
883.36	4132.1	
883.52	6156.2	
883.69	7005.4	
883.86	3674.7	
884.02	3225.6	
884.19	6059.3	
884.36	5542.5	
884.52	4075.5	
884.69	3786	
884.86	5268.7	
885.02	6651.8	
885.19	4041.3	
885.36	4150.6	
885.52	5618.3	
885.69	5713.2	
885.86	5240.1	
886.02	4643.4	
886.19	6055.2	
886.35	5468.8	
886.52	3962.8	
886.69	5066	
886.85	5100.1	
887.02	6440.2	
887.19	6440.2	
887.35	6440.2	
887.52	6440.2	
887.68	6440.2	
887.85	6440.2	
888.02	6440.2	
888.18	6440.2	
888.35	6440.2	
888.51	6440.2	
888.68	6440.2	
888.85	6440.2	
889.01	6440.2	
889.18	6440.2	
889.35	6440.2	
889.51	6440.2	
889.68	6440.2	
889.84	6440.2	
890.01	6440.2	
890.17	6440.2	
890.34	6440.2	
890.51	6440.2	
890.67	6440.2	
890.84	6440.2	
891	6440.2	
891.17	6440.2	
891.34	6440.2	
891.5	6440.2	
891.67	6440.2	
891.83	6440.2	
892	6440.2	
892.16	6440.2	
892.33	6440.2	
892.5	6440.2	
892.66	6440.2	
892.83	6440.2	
892.99	6440.2	
893.16	6440.2	
893.32	6440.2	
893.49	6440.2	
893.65	6440.2	
893.82	6440.2	
893.99	6440.2	
894.15	6440.2	
894.32	6440.2	
894.48	6440.2	
894.65	6440.2	
894.81	6440.2	
894.98	6440.2	
895.14	6440.2	
895.31	6440.2	
895.47	6440.2	
895.64	6440.2	
895.81	6440.2	
895.97	6440.2	
896.14	6440.2	
896.3	6440.2	
896.47	6440.2	
896.63	6440.2	
896.8	6440.2	
896.96	6440.2	
897.13	6440.2	
897.29	6440.2	
897.46	6440.2	
897.62	6440.2	
897.79	6440.2	
897.95	6440.2	
898.12	6440.2	
898.28	6440.2	
898.45	6440.2	
898.61	6440.2	
898.78	6440.2	
898.94	6440.2	
899.11	6440.2	
899.27	6440.2	
899.44	6440.2	
899.6	6440.2	
899.77	6440.2	
899.93	6440.2	
900.1	6440.2	
900.26	6440.2	
900.43	6440.2	
900.59	6440.2	
900.76	6440.2	
900.92	6440.2	
901.09	6440.2	
901.25	6440.2	
901.42	6440.2	
901.58	6440.2	
901.75	6440.2	
901.91	6440.2	
902.07	6440.2	
902.24	6440.2	
902.4	6440.2	
902.57	6440.2	
902.73	6440.2	
902.9	6440.2	
903.06	6440.2	
903.23	6440.2	
903.39	6440.2	
903.56	6440.2	
903.72	6440.2	
903.88	6440.2	
904.05	6440.2	
904.21	6440.2	
904.38	6440.2	
904.54	6440.2	
904.71	6440.2	
904.87	6440.2	
905.03	6440.2	
905.2	6440.2	
905.36	6440.2	
905.53	6440.2	
905.69	6440.2	
905.86	6440.2	
906.02	6440.2	
906.18	6440.2	
906.35	6440.2	
906.51	6440.2	
906.68	6440.2	
906.84	6440.2	
907.01	6440.2	
907.17	6440.2	
907.33	6440.2	
907.5	6440.2	
907.66	6440.2	
907.83	6440.2	
907.99	6440.2	
908.15	6440.2	
908.32	6440.2	
908.48	6440.2	
908.65	6440.2	
908.81	6440.2	
908.97	6440.2	
909.14	6440.2	
909.3	6440.2	
909.47	6440.2	
909.63	6440.2	
909.79	6440.2	
909.96	6440.2	
910.12	6440.2	
910.28	6440.2	
910.45	6440.2	
910.61	6440.2	
910.78	6440.2	
910.94	6440.2	
911.1	6440.2	
911.27	6440.2	
911.43	6440.2	
911.59	6440.2	
911.76	6440.2	
911.92	6440.2	
912.08	6440.2	
912.25	6440.2	
912.41	6440.2	
912.57	6440.2	
912.74	6440.2	
912.9	6440.2	
913.07	6440.2	
913.23	6440.2	
913.39	6440.2	
913.56	6440.2	
913.72	6440.2	
913.88	6440.2	
914.05	6440.2	
914.21	6440.2	
914.37	6440.2	
914.54	6440.2	
914.7	6440.2	
914.86	6440.2	
915.03	6440.2	
915.19	6440.2	
