Wavelength	Intensities	
nm	a.u.	
179.22	1654.6	
179.44	1668.8	
179.65	1640.4	
179.86	1697.1	
180.08	1663.6	
180.29	3803.8	
180.51	2932.7	
180.72	4913.1	
180.94	5407.3	
181.15	2596.8	
181.37	2657.6	
181.58	4737	
181.79	4896.7	
182.01	2697.9	
182.22	2863.7	
182.44	4890.5	
182.65	4248.9	
182.87	3497.2	
183.08	3132.7	
183.29	5178.6	
183.51	4293.9	
183.72	2870.6	
183.94	3941	
184.15	4590.9	
184.37	4535.6	
184.58	2606.4	
184.79	3334.8	
185.01	4367.6	
185.22	4919.2	
185.44	3475.4	
185.65	3065.1	
185.86	4647.5	
186.08	4267.3	
186.29	2538.1	
186.51	2781.1	
186.72	4347.2	
186.94	5014.8	
187.15	3059	
187.36	3121.8	
187.58	6152.8	
187.79	4648.9	
188.01	3224.9	
188.22	4794.3	
188.43	5509	
188.65	4880.3	
188.86	2702.6	
189.08	3153.9	
189.29	4489.8	
189.5	4465.9	
189.72	2876.7	
189.93	2955.9	
190.15	5012.7	
190.36	5745.9	
190.57	3163.4	
190.79	3054.9	
191	5036	
191.22	4999.8	
191.43	3189.4	
191.64	2802.3	
191.86	5203.2	
192.07	4954	
192.29	2846.7	
192.5	2902	
192.71	5018.9	
192.93	4478.9	
193.14	2893.1	
193.35	2946.3	
193.57	4472.1	
193.78	4989.5	
194	2413.2	
194.21	2874.7	
194.42	4272.1	
194.64	4642.1	
194.85	3096.5	
195.07	3558	
195.28	4588.1	
195.49	4122.6	
195.71	3683.6	
195.92	2722.4	
196.13	4816.8	
196.35	4781.3	
196.56	3914.4	
196.78	3090.4	
196.99	5718.6	
197.2	5362.3	
197.42	3490.4	
197.63	3151.1	
197.84	4252.3	
198.06	4730.1	
198.27	2915.6	
198.48	3713.7	
198.7	4453	
198.91	4654.4	
199.13	3142.3	
199.34	3127.9	
199.55	4994.3	
199.77	4065.2	
199.98	2878.1	
200.19	3166.2	
200.41	4610	
200.62	4344.4	
200.83	3254.2	
201.05	3472	
201.26	4581.3	
201.47	4383.3	
201.69	2788.7	
201.9	2787.3	
202.11	4676.9	
202.33	5230.5	
202.54	3009.8	
202.76	3258.3	
202.97	4639.3	
203.18	4727.4	
203.4	3215.3	
203.61	3225.6	
203.82	4670.1	
204.04	4354.7	
204.25	3174.4	
204.46	3097.2	
204.68	4604.5	
204.89	4753.3	
205.1	3112.9	
205.32	2712.2	
205.53	4827.1	
205.74	4978.6	
205.96	2383.2	
206.17	3168.2	
206.38	4850.3	
206.6	4911.7	
206.81	3538.2	
207.02	2940.2	
207.24	4775.9	
207.45	5036.6	
207.66	3028.9	
207.88	2650.8	
208.09	4742.4	
208.3	4544.4	
208.52	2818	
208.73	3018	
208.94	4637.3	
209.15	5050.3	
209.37	2972.3	
209.58	3083.6	
209.79	4975.2	
210.01	4427	
210.22	2564.1	
210.43	2636.4	
210.65	4672.1	
210.86	4906.9	
211.07	2994.1	
211.29	2801.6	
211.5	4818.9	
211.71	4556	
211.93	2841.9	
212.14	2791.4	
212.35	4600.4	
212.56	4661.2	
212.78	3114.3	
212.99	2607.7	
213.2	5260.5	
213.42	4465.3	
213.63	2858.3	
213.84	3025.5	
214.06	4198.3	
214.27	4205.8	
214.48	2983.9	
214.69	3222.1	
214.91	5051.7	
215.12	5081.7	
215.33	3177.1	
215.55	3461.1	
215.76	5395	
215.97	4838	
216.18	3069.9	
216.4	3111.5	
216.61	4334.2	
216.82	4906.9	
217.04	2861.7	
217.25	2905.4	
217.46	5070.8	
217.67	4855.1	
217.89	2556.5	
218.1	2628.9	
218.31	4639.3	
218.53	4681	
218.74	2953.9	
218.95	2855.6	
219.16	4596.3	
219.38	5305.6	
219.59	2880.1	
219.8	3334.1	
220.01	5599.8	
220.23	4645.5	
220.44	3580.5	
220.65	2758.6	
220.87	4668	
221.08	4980.7	
221.29	2714.2	
221.5	3396.2	
221.72	5903.6	
221.93	4384.7	
222.14	3126.6	
222.35	3611.9	
222.57	4627.7	
222.78	4893.3	
222.99	3036.5	
223.2	3229.6	
223.42	4831.8	
223.63	4897.4	
223.84	2423.4	
224.05	2465.8	
224.27	5508.4	
224.48	5192.3	
224.69	3659.7	
224.9	3198.9	
225.12	4711.7	
225.33	4570.4	
225.54	2621.4	
225.75	2857.6	
225.97	4343.1	
226.18	4565.6	
226.39	3022.8	
226.6	2847.4	
226.82	4459.8	
227.03	4307.6	
227.24	3148.4	
227.45	2645.3	
227.67	4943.1	
227.88	5226.4	
228.09	3515	
228.3	3452.2	
228.52	4864.6	
228.73	4577.2	
228.94	2941.6	
229.15	2643.9	
229.36	4595.6	
229.58	4562.9	
229.79	3028.9	
230	3377.8	
230.21	5375.2	
230.43	4619.5	
230.64	3085.6	
230.85	3200.3	
231.06	4938.3	
231.28	4941.1	
231.49	2671.2	
231.7	3098.6	
231.91	4885.8	
232.12	4623.6	
232.34	2788.7	
232.55	3017.3	
232.76	5076.9	
232.97	4713.7	
233.18	2820.1	
233.4	3153.9	
233.61	4752	
233.82	4448.9	
234.03	2930.6	
234.25	2874.7	
234.46	6055.2	
234.67	4616.1	
234.88	3207.1	
235.09	2863.1	
235.31	4722.6	
235.52	4554	
235.73	3098.6	
235.94	2706.7	
236.15	4345.8	
236.37	5343.2	
236.58	2782.5	
236.79	3046.7	
237	4859.1	
237.21	4201.1	
237.43	3250.1	
237.64	2613.9	
237.85	7382.9	
238.06	4318.5	
238.27	3220.1	
238.48	2749.7	
238.7	4835.9	
238.91	4483.7	
239.12	3008.5	
239.33	3123.8	
239.54	4462.5	
239.76	4494.6	
239.97	2968.9	
240.18	3060.3	
240.39	5457.2	
240.6	4705.5	
240.82	3156.6	
241.03	2652.8	
241.24	4654.4	
241.45	5150.6	
241.66	2781.1	
241.87	3297.9	
242.09	5129.5	
242.3	5356.1	
242.51	3289.7	
242.72	3039.9	
242.93	4910.3	
243.14	4595	
243.36	3439.2	
243.57	3687	
243.78	5236.7	
243.99	4846.9	
244.2	3016.7	
244.41	2809.8	
244.63	4302.1	
244.84	4774.5	
245.05	3229.6	
245.26	2991.4	
245.47	4857.1	
245.68	4971.8	
245.9	3853.6	
246.11	3166.8	
246.32	4401.8	
246.53	4816.8	
246.74	4710.3	
246.95	2636.4	
247.16	4306.9	
247.38	4630.5	
247.59	2620.7	
247.8	3042.6	
248.01	4298.7	
248.22	4569.7	
248.43	2819.4	
248.64	2978.4	
248.86	4282.3	
249.07	4453.6	
249.28	2779.8	
249.49	3145	
249.7	4957.4	
249.91	5025	
250.12	2611.2	
250.34	2639.1	
250.55	4745.1	
250.76	4616.1	
250.97	3145	
251.18	3183.9	
251.39	5033.9	
251.6	4691.9	
251.81	3188	
252.03	3148.4	
252.24	4407.9	
252.45	4881.7	
252.66	2718.3	
252.87	3257	
253.08	4624.3	
253.29	5677	
253.5	2691.7	
253.72	3611.9	
253.93	4496.7	
254.14	5277.6	
254.35	2849.4	
254.56	2942.9	
254.77	4743.1	
254.98	4323.9	
255.19	2904	
255.41	3560.7	
255.62	4754	
255.83	5011.4	
256.04	3233.1	
256.25	3095.2	
256.46	5446.2	
256.67	4384.7	
256.88	3101.3	
257.09	3392.8	
257.31	4308.2	
257.52	4311	
257.73	3814.7	
257.94	2868.5	
258.15	4567	
258.36	4560.1	
258.57	3554.6	
258.78	2377	
258.99	4995	
259.2	4464.6	
259.41	2923.8	
259.63	2996.9	
259.84	5185.5	
260.05	5412.1	
260.26	3651.5	
260.47	2859.6	
260.68	5022.3	
260.89	4489.8	
261.1	3421.5	
261.31	2855.6	
261.52	5104.2	
261.73	5233.9	
261.95	3664.5	
262.16	3194.8	
262.37	5124.7	
262.58	5135.6	
262.79	3627	
263	2911.5	
263.21	4671.4	
263.42	4195.6	
263.63	3205.1	
263.84	2930.6	
264.05	4939.7	
264.26	5218.9	
264.47	3528.7	
264.69	3159.3	
264.9	5206.6	
265.11	4673.5	
265.32	2794.1	
265.53	2856.9	
265.74	4644.1	
265.95	4202.4	
266.16	3067.2	
266.37	3364.1	
266.58	4750.6	
266.79	4457.7	
267	2844.6	
267.21	2718.3	
267.42	4296	
267.63	4593.6	
267.84	3013.9	
268.06	2675.3	
268.27	4951.3	
268.48	5083.1	
268.69	2970.9	
268.9	3458.3	
269.11	5072.1	
269.32	4156	
269.53	3016	
269.74	2871.3	
269.95	4730.8	
270.16	4202.4	
270.37	3069.9	
270.58	3462.4	
270.79	4564.2	
271	4937.7	
271.21	3172.3	
271.42	3082.9	
271.63	4782.7	
271.84	4302.8	
272.05	2575.7	
272.26	2789.3	
272.47	4650.3	
272.68	4762.9	
272.89	2942.2	
273.11	3281.5	
273.32	4427.7	
273.53	5160.9	
273.74	3240.6	
273.95	3103.4	
274.16	4913.1	
274.37	4559.5	
274.58	3344.3	
274.79	2727.2	
275	4713.1	
275.21	5020.3	
275.42	3838.6	
275.63	3334.8	
275.84	4844.8	
276.05	5770.5	
276.26	3173.7	
276.47	3003.7	
276.68	4548.5	
276.89	5297.4	
277.1	3389.4	
277.31	2674	
277.52	4823.6	
277.73	5056.4	
277.94	2637.8	
278.15	2915.6	
278.36	4769.7	
278.57	4411.3	
278.78	2940.9	
278.99	3312.2	
279.2	4407.2	
279.41	4291.9	
279.62	3751.2	
279.83	2757.9	
280.04	5446.2	
280.25	4298	
280.46	3692.5	
280.67	3034.4	
280.88	4386.1	
281.09	5096	
281.3	3209.2	
281.51	3870	
281.72	4419.5	
281.93	4919.9	
282.14	2864.4	
282.35	3145	
282.56	5023.7	
282.77	4907.6	
282.98	2965.5	
283.19	3557.3	
283.4	5847	
283.61	4582	
283.82	2755.9	
284.03	3635.8	
284.24	4741.7	
284.45	4967.7	
284.66	3729.4	
284.87	3502.7	
285.08	5035.3	
285.29	5132.9	
285.5	2667.8	
285.71	3020.1	
285.92	5057.1	
286.12	5541.1	
286.33	3632.4	
286.54	3007.8	
286.75	4968.4	
286.96	4483	
287.17	2824.1	
287.38	3528	
287.59	4422.2	
287.8	4405.2	
288.01	2965.5	
288.22	3332.7	
288.43	4792.9	
288.64	4217.5	
288.85	3531.4	
289.06	3323.9	
289.27	4912.4	
289.48	5188.2	
289.69	3775.1	
289.9	3340.9	
290.11	5075.5	
290.32	4442	
290.53	3423.5	
290.74	3217.4	
290.94	4894	
291.15	4972.5	
291.36	2839.8	
291.57	3320.4	
291.78	4457.7	
291.99	4194.9	
292.2	2809.8	
292.41	3252.2	
292.62	4943.8	
292.83	4805.9	
293.04	3948.5	
293.25	2843.9	
293.46	4478.9	
293.67	4983.4	
293.88	2869.9	
294.09	2828.9	
294.29	4358.8	
294.5	4730.8	
294.71	3062.4	
294.92	2887	
295.13	4499.4	
295.34	5444.9	
295.55	2643.2	
295.76	2560	
295.97	4875.5	
296.18	5346.6	
296.39	2735.4	
296.6	2866.5	
296.81	4593.6	
297.01	4922.6	
297.22	2999.6	
297.43	2843.3	
297.64	4472.1	
297.85	4344.4	
298.06	2473.3	
298.27	2660.3	
298.48	4588.8	
298.69	4409.3	
298.9	3114.3	
299.11	2844.6	
299.31	4334.2	
299.52	4315.1	
299.73	3274	
299.94	3231	
300.15	4622.9	
300.36	4371	
300.57	3171.6	
300.78	3195.5	
300.99	4485.7	
301.2	4653	
301.4	2919.7	
301.61	3107.5	
301.82	4840.7	
302.03	4846.9	
302.24	3377.8	
302.45	2789.3	
302.66	4829.1	
302.87	4995	
303.08	2880.1	
303.29	3787.4	
303.49	4498	
303.7	4526.7	
303.91	2661.7	
304.12	3666.5	
304.33	4216.1	
304.54	4701.5	
304.75	2868.5	
304.96	2789.3	
305.16	4894.6	
305.37	5317.9	
305.58	2547	
305.79	2657.6	
306	4812	
306.21	4183.3	
306.42	2882.9	
306.63	4170.3	
306.83	4539	
307.04	4876.2	
307.25	3197.6	
307.46	3072	
307.67	4108.2	
307.88	4886.5	
308.09	2914.3	
308.29	2915.6	
308.5	4620.2	
308.71	4973.2	
308.92	3055.6	
309.13	2774.3	
309.34	4588.1	
309.55	4543.8	
309.75	3432.4	
309.96	3180.5	
310.17	4887.1	
310.38	4351.3	
310.59	3317	
310.8	2732.7	
311.01	4554.7	
311.21	4555.4	
311.42	2837.1	
311.63	2865.1	
311.84	4473.4	
312.05	4658.4	
312.26	3165.5	
312.46	3480.9	
312.67	4497.3	
312.88	4244.8	
313.09	2781.8	
313.3	2728.6	
313.51	5180	
313.71	5402.5	
313.92	2826.2	
314.13	2935.4	
314.34	4825	
314.55	4586.8	
314.76	3408.5	
314.96	3085.6	
315.17	4766.3	
315.38	4793.6	
315.59	2831	
315.8	2706	
316.01	5119.2	
316.21	5216.2	
316.42	2753.8	
316.63	3033.7	
316.84	4518.5	
317.05	5045.5	
317.26	3228.3	
317.46	3013.9	
317.67	4562.9	
317.88	4888.5	
318.09	3465.2	
318.3	2682.2	
318.5	4477.5	
318.71	4783.4	
318.92	4238.6	
319.13	3289.7	
319.34	4968.4	
319.54	5110.4	
319.75	2606.4	
319.96	2570.9	
320.17	4847.5	
320.38	4977.2	
320.58	2596.1	
320.79	3050.8	
321	5010	
321.21	5031.2	
321.42	3097.9	
321.62	2579.1	
321.83	4354	
322.04	4606.6	
322.25	2947.7	
322.46	2819.4	
322.66	4719.9	
322.87	4865.3	
323.08	3305.4	
323.29	2768.9	
323.5	5328.8	
323.7	4293.2	
323.91	3667.9	
324.12	3318.4	
324.33	4700.8	
324.53	4838.7	
324.74	3202.3	
324.95	3360	
325.16	4243.4	
325.37	4466.6	
325.57	2722.4	
325.78	2805	
325.99	4724.7	
326.2	4257.7	
326.4	3917.8	
326.61	2672.6	
326.82	4544.4	
327.03	4634.6	
327.24	3855	
327.44	3585.3	
327.65	4847.5	
327.86	4007.9	
328.07	3253.5	
328.27	2792.1	
328.48	5128.8	
328.69	4283.7	
328.9	3821.5	
329.1	2916.3	
329.31	4538.3	
329.52	5111.7	
329.73	2848.7	
329.93	3110.2	
330.14	4642.1	
330.35	4816.1	
330.56	4353.3	
330.76	3405.1	
330.97	4524	
331.18	4719.9	
331.39	3119.1	
331.59	2607.7	
331.8	5042.8	
332.01	5069.4	
332.22	2889	
332.42	3257.6	
332.63	4685.8	
332.84	4358.1	
333.05	3117	
333.25	2881.5	
333.46	4367	
333.67	4580.6	
333.88	2943.6	
334.08	3183.2	
334.29	5920.7	
334.5	5033.9	
334.7	2783.2	
334.91	3739.6	
335.12	4302.8	
335.33	4838	
335.53	3039.2	
335.74	4313	
335.95	4556	
336.16	4289.1	
336.36	3089	
336.57	3418.7	
336.78	4214.7	
336.98	4967	
337.19	3670	
337.4	3037.1	
337.61	5398.4	
337.81	4265.9	
338.02	2909.5	
338.23	3519.1	
338.43	5168.4	
338.64	4401.8	
338.85	2878.8	
339.05	3598.3	
339.26	5242.1	
339.47	4216.8	
339.68	2833.7	
339.88	3934.8	
340.09	4778.6	
340.3	4891.9	
340.5	3222.8	
340.71	2560	
340.92	4274.1	
341.13	5051	
341.33	2722.4	
341.54	3180.5	
341.75	4773.8	
341.95	4498	
342.16	3150.5	
342.37	3360	
342.57	4360.1	
342.78	4540.3	
342.99	3377.8	
343.19	2617.3	
343.4	4931.5	
343.61	4790.2	
343.81	3022.1	
344.02	2694.4	
344.23	4846.2	
344.43	5111	
344.64	3392.8	
344.85	3315.7	
345.06	4827.7	
345.26	4959.5	
345.47	3190.1	
345.68	3670	
345.88	4231.1	
346.09	4909	
346.3	3239.2	
346.5	2523.8	
346.71	4522.6	
346.92	4407.2	
347.12	2669.9	
347.33	3196.2	
347.54	5009.3	
347.74	5311.1	
347.95	3200.3	
348.16	2491.7	
348.36	4474.1	
348.57	4370.4	
348.78	3250.1	
348.98	3388.7	
349.19	4586.1	
349.39	4191.5	
349.6	2685.6	
349.81	2865.8	
350.01	4857.8	
350.22	4401.8	
350.43	3105.4	
350.63	3581.9	
350.84	4627.7	
351.05	4391.5	
351.25	2827.6	
351.46	2632.3	
351.67	5032.5	
351.87	4364.2	
352.08	3034.4	
352.29	3337.5	
352.49	4886.5	
352.7	4682.3	
352.9	2804.4	
353.11	3360.7	
353.32	5397.1	
353.52	4508.9	
353.73	2770.9	
353.94	3364.1	
354.14	4835.3	
354.35	4603.2	
354.55	2878.1	
354.76	3061.7	
354.97	4801.8	
355.17	4635.2	
355.38	2753.8	
355.59	3590.8	
355.79	4345.1	
356	4584	
356.2	3104	
356.41	2760.7	
356.62	4225.6	
356.82	4601.8	
357.03	3342.3	
357.24	3000.3	
357.44	4414.7	
357.65	4463.9	
357.85	3861.1	
358.06	3209.2	
358.27	4235.2	
358.47	4329.4	
358.68	2734	
358.88	3250.8	
359.09	4803.2	
359.3	5032.5	
359.5	3760.8	
359.71	3482.2	
359.91	5331.5	
360.12	4860.5	
360.33	3307.5	
360.53	3649.5	
360.74	4452.3	
360.94	4468	
361.15	3448.8	
361.36	2924.5	
361.56	4990.9	
361.77	4622.9	
361.97	3788.7	
362.18	3089	
362.38	5073.5	
362.59	4345.1	
362.8	2981.8	
363	2798.2	
363.21	4238.6	
363.41	4732.2	
363.62	3284.9	
363.83	3931.4	
364.03	4867.3	
364.24	5364.3	
364.44	4033.8	
364.65	3992.9	
364.85	4655	
365.06	4389.5	
365.27	3011.9	
365.47	3089	
365.68	5285.1	
365.88	4625	
366.09	3340.9	
366.29	3061.7	
366.5	4752	
366.71	5031.2	
366.91	4002.4	
367.12	3465.2	
367.32	5465.3	
367.53	4942.4	
367.73	3432.4	
367.94	4138.9	
368.14	4939.7	
368.35	5438.7	
368.56	3417.4	
368.76	2958.6	
368.97	5102.9	
369.17	6113.9	
369.38	3032.4	
369.58	3205.1	
369.79	4333.5	
369.99	5233.2	
370.2	3966.9	
370.4	3358.7	
370.61	4779.3	
370.82	5714.5	
371.02	3249.4	
371.23	2779.1	
371.43	4343.7	
371.64	5240.8	
371.84	3332	
372.05	4100.7	
372.25	6096.8	
372.46	5040.1	
372.66	3268.6	
372.87	3287	
373.07	5076.2	
373.28	6215.6	
373.48	3966.9	
373.69	3773	
373.9	4747.9	
374.1	4756.7	
374.31	3924.6	
374.51	3596.2	
374.72	5257.8	
374.92	4513.7	
375.13	4111.6	
375.33	3521.8	
375.54	5081	
375.74	4682.3	
375.95	3617.4	
376.15	4454.3	
376.36	5082.4	
376.56	4909.7	
376.77	3637.9	
376.97	3920.5	
377.18	5884.5	
377.38	5139.7	
377.59	4153.3	
377.79	3288.4	
378	5018.9	
378.2	5247.6	
378.41	3353.2	
378.61	3284.3	
378.82	5322.7	
379.02	4756.1	
379.23	3398.9	
379.43	4231.8	
379.64	5476.3	
379.84	5076.2	
380.05	3348.4	
380.25	3267.9	
380.46	5182.7	
380.66	4845.5	
380.87	4257	
381.07	4520.5	
381.28	5607.3	
381.48	5190.9	
381.69	3347.7	
381.89	3322.5	
382.1	4427	
382.3	5284.4	
382.51	4113	
382.71	4709	
382.91	5118.6	
383.12	5478.3	
383.32	3610.6	
383.53	3665.9	
383.73	5092.6	
383.94	4953.4	
384.14	3715.7	
384.35	3048.7	
384.55	4810.7	
384.76	5124	
384.96	3621.5	
385.17	3768.3	
385.37	5203.9	
385.58	4559.5	
385.78	3784	
385.98	3052.2	
386.19	4808.6	
386.39	5106.3	
386.6	3412.6	
386.8	3634.5	
387.01	5076.9	
387.21	5192.3	
387.42	3848.1	
387.62	4246.8	
387.83	4741.7	
388.03	5034.6	
388.23	3633.8	
388.44	4218.1	
388.64	4597	
388.85	4549.9	
389.05	3933.5	
389.26	4300.7	
389.46	6051.1	
389.67	5588.9	
389.87	3972.4	
390.07	3916.4	
390.28	4935.6	
390.48	4603.8	
390.69	3380.5	
390.89	3604.4	
391.1	4792.2	
391.3	5427.8	
391.5	4436.6	
391.71	4777.9	
391.91	5270.8	
392.12	5859.9	
392.32	4463.9	
392.53	3915.7	
392.73	4835.9	
392.93	4952	
393.14	3635.1	
393.34	4151.9	
393.55	5235.3	
393.75	4872.8	
393.95	3650.8	
394.16	3596.9	
394.36	4831.8	
394.57	5286.5	
394.77	3288.4	
394.98	3574.4	
395.18	4762.9	
395.38	4861.9	
395.59	4299.4	
395.79	3522.5	
396	4954.7	
396.2	5326.8	
396.4	4209.9	
396.61	4027.7	
396.81	5320.6	
397.02	4868.7	
397.22	4245.4	
397.42	4379.2	
397.63	5477	
397.83	4821.6	
398.04	3536.8	
398.24	3823.6	
398.44	5231.2	
398.65	4514.4	
398.85	3396.2	
399.05	3447.4	
399.26	4827.7	
399.46	6017.6	
399.67	3835.8	
399.87	3609.9	
400.07	5121.3	
400.28	5315.8	
400.48	3676.8	
400.69	4378.6	
400.89	5483.1	
401.09	5857.9	
401.3	3564.8	
401.5	4339.6	
401.7	5959.6	
401.91	6106.4	
402.11	3960.8	
402.32	3895.2	
402.52	5557.5	
402.72	5426.4	
402.93	4103.4	
403.13	3261.7	
403.33	6021.7	
403.54	5051	
403.74	3781.9	
403.94	4411.3	
404.15	5128.1	
404.35	5925.5	
404.56	3742.3	
404.76	5008.6	
404.96	5510.4	
405.17	5306.3	
405.37	4572.4	
405.57	4156.7	
405.78	5562.3	
405.98	5169.1	
406.18	3774.4	
406.39	4349.2	
406.59	5448.3	
406.79	5195	
407	3523.2	
407.2	3609.9	
407.4	5719.3	
407.61	5610.1	
407.81	3725.9	
408.01	4940.4	
408.22	4754	
408.42	6216.3	
408.62	4592.9	
408.83	4223.6	
409.03	5466	
409.23	5269.4	
409.44	4221.5	
409.64	4387.4	
409.84	6044.9	
410.05	5992.4	
410.25	4387.4	
410.45	4248.9	
410.66	5665.4	
410.86	7367.9	
411.06	4635.9	
411.27	4475.5	
411.47	7283.9	
411.67	5778	
411.88	4670.1	
412.08	4811.4	
412.28	6244.9	
412.49	6589	
412.69	4515.8	
412.89	4496.7	
413.09	6462	
413.3	6326.9	
413.5	4686.4	
413.7	4348.5	
413.91	5880.4	
414.11	6430.6	
414.31	4495.3	
414.52	4786.8	
414.72	6258.6	
414.92	6189	
415.12	4441.4	
415.33	4877.6	
415.53	6462	
415.73	6638.8	
415.94	5062.6	
416.14	4715.1	
416.34	5864	
416.55	5604.6	
416.75	5515.2	
416.95	5122	
417.15	6600.6	
417.36	6930.3	
417.56	5732.3	
417.76	4998.4	
417.97	6741.2	
418.17	6546.7	
418.37	4813.4	
418.57	4818.9	
418.78	6526.2	
418.98	6165.8	
419.18	5343.2	
419.38	5253	
419.59	6118.6	
419.79	5783.5	
419.99	4703.5	
420.2	4926.7	
420.4	6513.2	
420.6	6609.5	
420.8	4607.2	
421.01	4601.8	
421.21	6486.6	
421.41	6425.2	
421.61	4876.9	
421.82	4654.4	
422.02	6124.8	
422.22	6701	
422.42	5177.3	
422.63	4942.4	
422.83	6034.7	
423.03	6919.4	
423.23	4949.3	
423.44	4236.6	
423.64	6064.7	
423.84	5827.8	
424.04	4676.2	
424.25	4301.4	
424.45	6727.6	
424.65	6682.5	
424.85	4211.3	
425.06	4545.8	
425.26	6821.1	
425.46	6008.7	
425.66	4978.6	
425.87	4650.3	
426.07	6500.9	
426.27	6334.4	
426.47	4801.8	
426.67	4288.4	
426.88	6778.8	
427.08	6387.6	
427.28	4960.2	
427.48	4269.3	
427.69	5598.5	
427.89	6068.8	
428.09	4885.1	
428.29	4293.2	
428.5	6483.2	
428.7	6210.1	
428.9	4212.7	
429.1	4622.9	
429.3	6217	
429.51	6400.6	
429.71	4494.6	
429.91	5089.9	
430.11	6441.5	
430.31	6546.7	
430.52	4764.3	
430.72	4935.6	
430.92	6754.9	
431.12	6384.2	
431.32	4500.8	
431.53	4780	
431.73	5619.6	
431.93	6759.7	
432.13	4417.5	
432.33	4301.4	
432.54	6020.3	
432.74	6139.8	
432.94	4292.5	
433.14	4999.8	
433.34	6466.8	
433.55	6141.2	
433.75	4966.3	
433.95	6234.7	
434.15	6328.2	
434.35	6056.5	
434.56	4423.6	
434.76	4075.5	
434.96	6219.7	
435.16	6397.9	
435.36	4354	
435.56	5183.4	
435.77	5976.7	
435.97	6139.8	
436.17	5674.9	
436.37	5169.1	
436.57	5921.4	
436.78	5977.3	
436.98	5583.4	
437.18	5531.6	
437.38	6496.8	
437.58	6042.2	
437.78	5592.3	
437.99	4612	
438.19	6458.6	
438.39	6972.7	
438.59	4575.8	
438.79	4160.1	
438.99	6849.1	
439.2	5982.8	
439.4	4263.9	
439.6	4307.6	
439.8	6281.1	
440	7081.2	
440.2	5095.3	
440.4	5207.3	
440.61	6694.1	
440.81	6939.2	
441.01	4558.1	
441.21	5206.6	
441.41	7002	
441.61	6662.7	
441.81	5390.3	
442.02	5986.9	
442.22	7245.7	
442.42	6673	
442.62	4595.6	
442.82	4604.5	
443.02	7025.2	
443.22	6384.9	
443.43	4898.1	
443.63	4516.5	
443.83	6178.7	
444.03	6210.1	
444.23	5451	
444.43	5215.5	
444.63	6490.7	
444.83	7323.5	
445.04	4746.5	
445.24	5527.5	
445.44	6697.5	
445.64	6682.5	
445.84	5274.9	
446.04	5167.7	
446.24	6118	
446.44	6815.6	
446.65	4456.4	
446.85	4861.2	
447.05	6344.6	
447.25	6860.7	
447.45	4992.9	
447.65	4470.7	
447.85	6504.3	
448.05	6106.4	
448.25	5177.9	
448.46	5119.9	
448.66	6402	
448.86	6139.8	
449.06	4470	
449.26	5220.3	
449.46	6697.5	
449.66	6032.6	
449.86	4934.9	
450.06	4874.8	
450.26	6130.3	
450.47	6535.8	
450.67	5073.5	
450.87	5269.4	
451.07	6790.4	
451.27	6448.4	
451.47	4571.1	
451.67	5144.5	
451.87	6227.9	
452.07	7015.7	
452.27	4791.6	
452.47	4716.5	
452.67	6313.9	
452.88	6735.1	
453.08	4315.8	
453.28	5634	
453.48	7226.6	
453.68	6330.3	
453.88	4709.6	
454.08	4767	
454.28	6733.7	
454.48	6411.5	
454.68	5255.8	
454.88	5520.6	
455.08	6841.6	
455.28	6531.7	
455.48	4562.9	
455.68	5066.7	
455.89	7108.5	
456.09	6817.7	
456.29	4855.7	
456.49	4922	
456.69	7048.4	
456.89	6360.3	
457.09	5319.9	
457.29	5524.7	
457.49	6741.9	
457.69	6819.1	
457.89	5203.9	
458.09	4646.8	
458.29	6640.9	
458.49	7103	
458.69	5442.8	
458.89	5049.6	
459.09	7299	
459.29	7352.9	
459.49	5082.4	
459.69	5595.7	
459.9	6860.7	
460.1	6582.2	
460.3	4960.9	
460.5	4868.7	
460.7	6855.9	
460.9	6679.8	
461.1	4602.5	
461.3	5510.4	
461.5	7478.5	
461.7	7032.7	
461.9	5017.5	
462.1	5217.5	
462.3	6769.2	
462.5	7179.5	
462.7	5033.2	
462.9	5072.1	
463.1	7964.6	
463.3	7679.9	
463.5	5263.3	
463.7	6006	
463.9	6987.7	
464.1	7195.9	
464.3	5426.4	
464.5	5500.2	
464.7	7436.9	
464.9	7056.6	
465.1	6429.3	
465.3	5752.1	
465.5	7579.5	
465.7	7642.3	
465.9	5924.8	
466.1	5776	
466.3	7448.5	
466.5	7392.5	
466.7	6456.6	
466.9	5595.1	
467.1	7432.8	
467.3	7985	
467.5	6346	
467.7	5563	
467.9	8184.4	
468.1	8770.8	
468.3	6219.7	
468.5	6439.5	
468.7	7255.3	
468.9	7223.9	
469.1	5795.8	
469.3	6215.6	
469.5	8629.5	
469.7	6954.9	
469.9	6129.6	
470.1	5612.1	
470.3	7358.4	
470.5	7361.8	
470.7	6421.7	
470.9	5728.2	
471.1	7152.2	
471.3	7378.1	
471.5	5528.8	
471.69	6843.6	
471.89	7094.8	
472.09	6666.1	
472.29	6066.8	
472.49	6242.2	
472.69	6840.9	
472.89	7346.1	
473.09	5388.9	
473.29	5533.6	
473.49	6952.2	
473.69	6933.1	
473.89	6083.1	
474.09	5560.2	
474.29	7916.8	
474.49	7655.3	
474.69	6097.5	
474.89	5655.1	
475.09	7019.1	
475.29	7012.9	
475.49	5319.9	
475.69	5427.1	
475.88	8187.1	
476.08	7320.8	
476.28	5248.9	
476.48	5421.7	
476.68	7619.8	
476.88	7344.7	
477.08	5425.1	
477.28	5566.4	
477.48	7124.2	
477.68	7456	
477.88	5351.3	
478.08	5582.8	
478.28	7770	
478.48	7136.5	
478.67	5457.2	
478.87	5143.8	
479.07	7601.4	
479.27	7161.1	
479.47	5672.9	
479.67	5621	
479.87	7468.3	
480.07	7704.5	
480.27	5175.9	
480.47	6230.6	
480.67	7193.1	
480.87	7572	
481.06	5364.3	
481.26	5948.7	
481.46	7153.6	
481.66	7022.5	
481.86	5571.2	
482.06	6410.8	
482.26	6972	
482.46	7654.6	
482.66	5563.6	
482.86	5288.5	
483.05	7298.3	
483.25	6730.3	
483.45	7281.2	
483.65	5638.1	
483.85	6811.5	
484.05	7058	
484.25	5978.7	
484.45	6227.2	
484.65	7582.9	
484.84	7694.9	
485.04	5510.4	
485.24	5566.4	
485.44	8014.4	
485.64	6658.6	
485.84	5096	
486.04	5945.3	
486.24	7029.3	
486.44	7295.5	
486.63	5040.7	
486.83	5653.8	
487.03	6920.1	
487.23	7120.8	
487.43	5188.9	
487.63	6669.6	
487.83	7206.1	
488.02	7638.9	
488.22	5773.9	
488.42	6172.6	
488.62	7689.4	
488.82	6896.9	
489.02	5563	
489.22	5607.3	
489.41	7645.1	
489.61	7406.1	
489.81	5366.4	
490.01	5400.5	
490.21	7540.6	
490.41	8095.6	
490.61	5406.6	
490.8	5457.2	
491	7237.5	
491.2	6781.5	
491.4	5837.4	
491.6	5227.1	
491.8	7193.8	
491.99	7208.2	
492.19	5124	
492.39	5408	
492.59	7557.7	
492.79	7723.6	
492.99	6032	
493.18	5430.5	
493.38	7684.7	
493.58	8155.7	
493.78	5943.2	
493.98	5675.6	
494.18	7494.2	
494.37	7100.3	
494.57	6078.4	
494.77	6020.3	
494.97	7637.6	
495.17	7789.1	
495.37	5812.1	
495.56	5958.2	
495.76	7922.2	
495.96	7681.9	
496.16	6595.1	
496.36	5860.6	
496.55	7909.9	
496.75	7464.8	
496.95	6077.7	
497.15	5965.7	
497.35	7858.1	
497.54	7759.1	
497.74	5967.8	
497.94	7111.2	
498.14	8338.6	
498.34	8108.6	
498.53	5743.9	
498.73	6156.9	
498.93	7350.8	
499.13	7779.6	
499.33	6135.7	
499.52	6414.2	
499.72	7905.8	
499.92	8026.7	
500.12	5816.9	
500.32	6023.8	
500.51	8000	
500.71	7780.9	
500.91	6483.9	
501.11	6255.2	
501.31	7851.9	
501.5	8184.4	
501.7	6726.2	
501.9	6113.2	
502.1	7701	
502.29	8071.7	
502.49	6291.4	
502.69	6589.7	
502.89	7857.4	
503.09	7795.9	
503.28	5589.6	
503.48	5680.4	
503.68	7323.5	
503.88	7314	
504.07	6357.6	
504.27	5944.6	
504.47	7658	
504.67	7640.3	
504.86	6361	
505.06	5978	
505.26	7342	
505.46	8544.1	
505.65	5966.4	
505.85	6055.8	
506.05	7279.8	
506.25	7595.2	
506.44	5522	
506.64	6115.9	
506.84	7259.4	
507.04	7760.4	
507.23	5651	
507.43	5979.4	
507.63	8561.2	
507.83	7262.1	
508.02	6006	
508.22	5681.1	
508.42	8611.7	
508.62	7122.8	
508.81	5828.5	
509.01	6210.8	
509.21	7109.2	
509.4	7336.5	
509.6	5973.2	
509.8	5534.3	
510	7277.1	
510.19	8096.3	
510.39	5574.6	
510.59	5645.6	
510.79	7079.8	
510.98	8010.3	
511.18	5756.2	
511.38	5724.1	
511.57	7718.8	
511.77	7401.4	
511.97	6146.6	
512.17	5484.5	
512.36	7714.7	
512.56	7517.4	
512.76	5561.6	
512.95	5349.3	
513.15	7769.3	
513.35	6739.9	
513.55	6139.1	
513.74	5582.1	
513.94	7729.7	
514.14	7197.9	
514.33	6182.1	
514.53	6058.6	
514.73	7249.8	
514.92	7286.7	
515.12	5636.7	
515.32	5488.6	
515.51	7368.6	
515.71	7552.2	
515.91	6758.3	
516.11	5496.7	
516.3	8562.6	
516.5	7143.3	
516.7	5899.5	
516.89	6260.6	
517.09	7093.5	
517.29	7225.2	
517.48	6006	
517.68	5668.1	
517.88	6884.6	
518.07	7414.3	
518.27	6037.4	
518.47	5335.6	
518.66	7827.3	
518.86	6926.2	
519.06	5282.4	
519.25	5564.3	
519.45	7049.1	
519.65	8107.2	
519.84	6049.7	
520.04	6461.3	
520.24	8396	
520.43	7490.1	
520.63	5834	
520.83	5614.8	
521.02	6934.4	
521.22	7394.5	
521.42	5959.6	
521.61	6307.1	
521.81	7183.6	
522.01	7397.9	
522.2	5902.2	
522.4	5737.7	
522.6	7628.7	
522.79	6703	
522.99	5744.6	
523.18	5223.7	
523.38	7410.9	
523.58	7374.1	
523.77	6624.5	
523.97	5349.3	
524.17	8643.8	
524.36	8107.9	
524.56	6266.1	
524.76	5924.1	
524.95	7350.8	
525.15	7109.9	
525.34	5758.9	
525.54	5848.3	
525.74	7628	
525.93	6914.6	
526.13	6619	
526.33	5877	
526.52	7864.9	
526.72	7507.2	
526.91	6678.4	
527.11	6180.1	
527.31	7867.6	
527.5	8078.6	
527.7	6162.3	
527.89	5462.6	
528.09	7218.4	
528.29	7457.3	
528.48	6435.4	
528.68	6158.2	
528.87	7815	
529.07	7787.1	
529.27	6042.9	
529.46	5773.2	
529.66	7644.4	
529.85	7859.4	
530.05	5651.7	
530.25	6146	
530.44	8469	
530.64	7404.1	
530.83	5866.7	
531.03	5965.1	
531.23	7929.1	
531.42	7695.6	
531.62	6567.8	
531.81	6079.1	
532.01	7987.1	
532.21	8172.8	
532.4	5800.5	
532.6	6100.9	
532.79	8642.4	
532.99	7888.1	
533.18	6161.7	
533.38	6842.3	
533.58	7634.1	
533.77	8002.1	
533.97	6135.7	
534.16	6735.8	
534.36	8336.6	
534.55	7589.1	
534.75	6810.9	
534.95	6143.9	
535.14	8229.4	
535.34	7548.8	
535.53	5877.7	
535.73	7111.9	
535.92	8605.6	
536.12	7625.3	
536.31	5956.2	
536.51	6789.7	
536.71	7997.3	
536.9	7619.8	
537.1	6085.2	
537.29	6285.2	
537.49	8241.7	
537.68	7520.8	
537.88	6425.8	
538.07	5872.2	
538.27	7808.9	
538.46	8374.1	
538.66	5836	
538.86	6146	
539.05	7791.8	
539.25	8049.2	
539.44	6365.1	
539.64	5935	
539.83	7581.6	
540.03	8288.1	
540.22	5873.6	
540.42	5964.4	
540.61	7793.9	
540.81	7871.7	
541	6296.8	
541.2	6701.6	
541.39	7473.7	
541.59	7662.1	
541.78	6580.8	
541.98	5969.1	
542.18	7285.3	
542.37	7185	
542.57	6203.3	
542.76	6502.3	
542.96	7249.8	
543.15	7684.7	
543.35	6170.5	
543.54	5648.3	
543.74	7712.7	
543.93	7617.1	
544.13	5952.1	
544.32	6883.2	
544.52	7838.3	
544.71	7270.3	
544.91	5455.8	
545.1	6356.9	
545.3	7383.6	
545.49	7725.6	
545.69	5497.4	
545.88	5846.3	
546.08	8417.2	
546.27	7986.4	
546.47	6214.2	
546.66	5721.3	
546.86	7847.1	
547.05	8281.3	
547.24	5825.8	
547.44	5735.7	
547.63	7200	
547.83	7867.6	
548.02	5989.6	
548.22	6116.6	
548.41	7014.3	
548.61	7819.8	
548.8	5765.7	
549	5672.9	
549.19	7509.9	
549.39	7676.5	
549.58	5489.2	
549.78	5911.8	
549.97	7653.3	
550.17	7294.9	
550.36	6473.6	
550.55	7110.5	
550.75	7350.2	
550.94	7952.9	
551.14	5575.3	
551.33	5875.6	
551.53	6933.1	
551.72	7535.8	
551.92	5855.8	
552.11	5681.1	
552.31	7643	
552.5	7570	
552.69	6843.6	
552.89	5445.5	
553.08	7562.5	
553.28	7281.9	
553.47	5793.7	
553.67	6490	
553.86	8007.6	
554.06	6832	
554.25	5171.1	
554.44	5554.8	
554.64	8533.9	
554.83	8181	
555.03	5515.9	
555.22	5852.4	
555.42	7763.8	
555.61	7460.8	
555.8	5714.5	
556	5821	
556.19	6895.5	
556.39	7730.4	
556.58	5674.9	
556.78	5702.2	
556.97	7482.6	
557.16	7126.9	
557.36	6580.1	
557.55	5447.6	
557.75	6704.4	
557.94	7897.7	
558.13	5516.5	
558.33	5289.2	
558.52	7771.4	
558.72	6877.1	
558.91	5360.9	
559.1	5475.6	
559.3	6784.9	
559.49	6599.9	
559.69	5175.9	
559.88	5820.3	
560.07	7395.9	
560.27	7660.1	
560.46	5872.9	
560.66	6002.6	
560.85	7228.6	
561.04	6580.8	
561.24	5326.1	
561.43	5514.5	
561.63	6766.5	
561.82	7035.5	
562.01	6318	
562.21	5709.1	
562.4	7320.8	
562.59	7935.9	
562.79	5612.1	
562.98	5352.7	
563.18	7232.1	
563.37	8187.1	
563.56	5945.9	
563.76	5352.7	
563.95	6899.6	
564.14	6829.3	
564.34	5636.7	
564.53	5373.2	
564.73	7225.9	
564.92	7373.4	
565.11	5703.6	
565.31	5261.9	
565.5	7640.3	
565.69	6842.3	
565.89	5532.2	
566.08	5544.5	
566.27	7537.9	
566.47	7755.7	
566.66	5971.9	
566.85	5131.5	
567.05	7286.7	
567.24	6916.7	
567.44	5369.8	
567.63	6202.6	
567.82	7472.4	
568.02	7061.4	
568.21	5283.8	
568.4	5594.4	
568.6	7086	
568.79	7145.4	
568.98	5268.7	
569.18	5270.8	
569.37	7193.1	
569.56	8482	
569.76	5560.9	
569.95	6249.7	
570.14	7413	
570.34	7180.9	
570.53	5253	
570.72	5203.2	
570.91	7704.5	
571.11	7060	
571.3	5564.3	
571.49	6238.8	
571.69	7075.7	
571.88	6771.9	
572.07	5911.1	
572.27	5867.4	
572.46	6679.8	
572.65	7399.3	
572.85	5376.6	
573.04	5649.7	
573.23	7669	
573.43	7234.1	
573.62	5274.9	
573.81	5670.1	
574	7219.8	
574.2	7007.5	
574.39	5466	
574.58	5621.7	
574.78	7709.9	
574.97	7146	
575.16	5799.8	
575.36	5797.8	
575.55	7463.5	
575.74	7595.9	
575.93	5165	
576.13	6006	
576.32	7080.5	
576.51	7395.2	
576.71	5494	
576.9	6452.5	
577.09	7690.1	
577.28	7379.5	
577.48	5788.9	
577.67	5128.1	
577.86	7092.1	
578.05	7255.3	
578.25	5614.8	
578.44	5642.8	
578.63	7206.1	
578.83	7954.3	
579.02	5250.3	
579.21	6164.4	
579.4	7326.9	
579.6	7029.3	
579.79	5646.2	
579.98	7098.3	
580.17	7453.2	
580.37	7582.9	
580.56	5286.5	
580.75	5896.8	
580.94	7742.7	
581.14	7856.7	
581.33	6170.5	
581.52	5461.2	
581.71	7412.3	
581.91	7828.7	
582.1	5236	
582.29	5605.3	
582.48	7199.3	
582.68	7212.3	
582.87	5945.9	
583.06	5687.9	
583.25	7499	
583.45	6950.8	
583.64	6145.3	
583.83	6533	
584.02	7209.5	
584.21	7396.6	
584.41	6052.4	
584.6	5589.6	
584.79	7205.4	
584.98	7686	
585.18	5328.8	
585.37	5303.6	
585.56	7017	
585.75	7413	
585.94	5414.1	
586.14	5840.1	
586.33	7861.5	
586.52	7064.8	
586.71	5745.2	
586.91	5619.6	
587.1	6726.9	
587.29	7465.5	
587.48	5578.7	
587.67	5403.2	
587.87	7356.3	
588.06	7296.9	
588.25	6371.2	
588.44	5862.7	
588.63	7144.7	
588.83	7460.8	
589.02	5528.2	
589.21	5375.9	
589.4	7005.4	
589.59	6782.9	
589.78	4908.3	
589.98	4969.1	
590.17	6564.4	
590.36	6879.8	
590.55	4571.7	
590.74	5223	
590.94	7738.6	
591.13	6847.7	
591.32	5100.1	
591.51	4752.7	
591.7	7092.8	
591.89	6818.4	
592.09	4853.7	
592.28	5138.4	
592.47	6211.5	
592.66	7620.5	
592.85	4859.8	
593.05	5004.6	
593.24	6670.9	
593.43	7271	
593.62	4973.2	
593.81	5333.6	
594	6740.5	
594.19	6845.7	
594.39	4997	
594.58	4972.5	
594.77	6937.2	
594.96	7331.7	
595.15	4921.3	
595.34	5296.7	
595.54	6850.5	
595.73	6275.7	
595.92	4446.8	
596.11	5225.7	
596.3	7270.3	
596.49	6381.5	
596.68	5105.6	
596.88	5374.6	
597.07	7128.3	
597.26	6286.6	
597.45	4797.7	
597.64	5583.4	
597.83	6492.7	
598.02	6815.6	
598.22	4764.9	
598.41	5283.1	
598.6	6737.8	
598.79	6382.8	
598.98	4882.4	
599.17	5481	
599.36	6779.5	
599.55	7509.2	
599.74	6270.9	
599.94	6004	
600.13	7140.6	
600.32	6380.8	
600.51	4734.9	
600.7	4831.8	
600.89	7607.5	
601.08	7593.2	
601.27	4640.7	
601.47	5229.8	
601.66	7054.6	
601.85	7475.8	
602.04	5124	
602.23	5252.4	
602.42	6432	
602.61	6933.7	
602.8	5046.2	
602.99	4870.8	
603.18	6668.2	
603.37	6789.7	
603.57	5322	
603.76	5690.6	
603.95	7365.9	
604.14	6971.3	
604.33	4971.8	
604.52	5132.9	
604.71	6877.1	
604.9	6472.9	
605.09	5554.1	
605.28	5470.1	
605.47	7191.8	
605.66	6890.7	
605.86	5357.5	
606.05	4923.3	
606.24	7186.3	
606.43	6133.7	
606.62	5188.2	
606.81	5623	
607	7107.8	
607.19	6505.7	
607.38	4696.7	
607.57	4855.7	
607.76	6380.8	
607.95	6036.7	
608.14	5160.2	
608.33	5583.4	
608.52	6406.7	
608.72	6982.2	
608.91	4687.1	
609.1	4575.8	
609.29	6525.5	
609.48	6099.5	
609.67	5337	
609.86	4720.6	
610.05	6217	
610.24	6461.3	
610.43	4579.3	
610.62	4334.2	
610.81	7256	
611	7107.8	
611.19	4703.5	
611.38	5169.1	
611.57	6653.9	
611.76	7487.4	
611.95	4578.6	
612.14	4429.1	
612.33	6490.7	
612.52	6225.8	
612.71	4895.3	
612.9	4402.5	
613.09	5941.8	
613.28	7524.2	
613.47	4793.6	
613.66	5337	
613.85	6577.4	
614.04	6227.9	
614.24	4732.9	
614.43	4209.3	
614.62	6726.2	
614.81	6597.9	
615	5104.9	
615.19	5151.3	
615.38	6178	
615.57	6557.6	
615.76	5023.7	
615.95	5708.4	
616.14	6774.7	
616.33	6453.1	
616.52	5255.8	
616.71	5318.6	
616.9	6698.2	
617.09	6463.4	
617.28	4809.3	
617.47	5606	
617.66	6113.9	
617.85	6090	
618.04	5354.1	
618.22	5076.2	
618.41	6290	
618.6	6866.8	
618.79	4952	
618.98	4736.3	
619.17	7122.8	
619.36	5905.7	
619.55	4876.9	
619.74	4913.1	
619.93	6634.1	
620.12	6183.5	
620.31	5261.2	
620.5	5287.2	
620.69	7021.8	
620.88	7180.2	
621.07	5824.4	
621.26	5152.7	
621.45	6742.6	
621.64	6711.2	
621.83	5306.3	
622.02	4625	
622.21	6794.5	
622.4	6552.1	
622.59	5606.7	
622.78	5504.3	
622.97	6326.9	
623.16	7013.6	
623.35	5259.2	
623.54	4633.2	
623.72	6490	
623.91	6504.3	
624.1	5352.7	
624.29	4502.1	
624.48	7253.9	
624.67	6782.9	
624.86	5318.6	
625.05	4615.4	
625.24	7337.2	
625.43	6273.6	
625.62	6477.7	
625.81	4772.4	
626	6895.5	
626.19	6469.5	
626.38	5280.3	
626.56	4904.9	
626.75	6240.2	
626.94	6796.5	
627.13	5386.8	
627.32	4461.8	
627.51	6767.9	
627.7	7519.5	
627.89	4586.1	
628.08	5346.6	
628.27	6240.8	
628.46	6281.1	
628.65	4731.5	
628.83	4445.5	
629.02	6743.3	
629.21	6212.2	
629.4	5081.7	
629.59	5190.2	
629.78	6196.5	
629.97	6907.8	
630.16	5193.6	
630.35	4849.6	
630.54	7234.1	
630.72	7030	
630.91	4889.9	
631.1	5156.1	
631.29	6688.7	
631.48	6591	
631.67	5287.2	
631.86	4940.4	
632.05	6425.8	
632.24	6413.6	
632.42	4683.7	
632.61	5093.3	
632.8	6382.2	
632.99	6124.8	
633.18	5095.3	
633.37	5371.8	
633.56	6635.4	
633.75	6505	
633.93	5156.1	
634.12	4924	
634.31	7207.5	
634.5	6890.7	
634.69	4831.8	
634.88	5297.4	
635.07	6499.6	
635.25	6880.5	
635.44	5545.2	
635.63	5649	
635.82	6389	
636.01	5874.3	
636.2	5522	
636.39	5167.7	
636.57	7212.9	
636.76	6845	
636.95	4821.6	
637.14	5720.7	
637.33	6709.1	
637.52	7246.4	
637.7	4590.2	
637.89	5347.9	
638.08	6454.5	
638.27	7372.7	
638.46	5330.2	
638.65	5556.1	
638.83	7389.1	
639.02	6239.5	
639.21	5302.2	
639.4	5683.1	
639.59	6660	
639.78	6325.5	
639.96	4743.8	
640.15	4876.2	
640.34	6532.3	
640.53	6539.8	
640.72	4682.3	
640.91	4792.2	
641.09	6118.6	
641.28	7032.7	
641.47	4829.1	
641.66	5453.7	
641.85	6574.7	
642.03	6731	
642.22	5159.5	
642.41	4885.1	
642.6	6141.2	
642.79	5798.5	
642.97	4782	
643.16	5201.2	
643.35	6141.9	
643.54	5958.9	
643.73	4668	
643.91	5175.9	
644.1	5956.2	
644.29	6384.2	
644.48	4708.3	
644.67	4752.7	
644.85	6010.1	
645.04	6374	
645.23	4448.2	
645.42	4706.2	
645.6	6066.8	
645.79	6894.8	
645.98	4638	
646.17	4029	
646.36	5823.1	
646.54	6197.8	
646.73	5162.9	
646.92	4412.7	
647.11	5917.9	
647.29	6617	
647.48	4344.4	
647.67	4318.5	
647.86	6847.7	
648.05	6752.2	
648.23	4674.1	
648.42	5515.9	
648.61	6481.1	
648.8	6275.7	
648.98	4463.9	
649.17	4644.1	
649.36	5943.2	
649.55	5584.8	
649.73	4455	
649.92	4920.6	
650.11	5771.2	
650.3	6098.9	
650.48	4535.6	
650.67	4413.4	
650.86	6320.7	
651.05	5493.3	
651.23	4407.9	
651.42	4404.5	
651.61	5937.7	
651.79	5896.1	
651.98	4610.7	
652.17	4312.3	
652.36	6222.4	
652.54	5513.1	
652.73	4430.4	
652.92	4266.6	
653.11	6229.2	
653.29	6289.3	
653.48	3944.4	
653.67	4600.4	
653.85	6053.1	
654.04	6775.4	
654.23	4737.6	
654.42	4450.9	
654.6	5753.4	
654.79	6164.4	
654.98	4074.1	
655.16	4438.6	
655.35	5478.3	
655.54	5293.3	
655.73	4118.5	
655.91	4018.8	
656.1	6121.4	
656.29	5362.3	
656.47	3812	
656.66	4960.2	
656.85	5603.9	
657.03	5596.4	
657.22	4180.6	
657.41	4169	
657.59	5621	
657.78	5488.6	
657.97	3934.8	
658.16	4429.8	
658.34	6178.7	
658.53	6425.2	
658.72	5091.9	
658.9	5414.1	
659.09	5761.6	
659.28	5828.5	
659.46	4267.3	
659.65	4257.7	
659.84	5562.3	
660.02	6075	
660.21	4270.7	
660.4	4066.6	
660.58	6216.3	
660.77	5819	
660.96	4552	
661.14	3875.4	
661.33	6610.8	
661.52	6511.9	
661.7	3894.6	
661.89	6266.8	
662.08	5609.4	
662.26	5184.1	
662.45	4070.7	
662.64	4154.6	
662.82	6084.5	
663.01	5474.2	
663.2	4155.3	
663.38	4702.8	
663.57	5985.5	
663.75	5850.4	
663.94	4373.8	
664.13	5146.5	
664.31	5585.5	
664.5	5993	
664.69	4691.9	
664.87	4884.4	
665.06	5429.2	
665.25	5876.3	
665.43	5066	
665.62	5059.8	
665.8	6039.5	
665.99	5670.8	
666.18	4364.9	
666.36	4401.1	
666.55	6120	
666.74	5984.2	
666.92	4154	
667.11	5171.8	
667.29	5631.9	
667.48	6013.5	
667.67	4970.4	
667.85	4272.1	
668.04	5539.8	
668.22	5531.6	
668.41	4472.1	
668.6	4599.7	
668.78	5470.1	
668.97	5599.8	
669.15	4669.4	
669.34	3935.5	
669.53	5506.3	
669.71	5734.3	
669.9	4028.4	
670.08	4489.1	
670.27	5416.2	
670.46	5923.4	
670.64	4701.5	
670.83	4872.8	
671.01	5352.7	
671.2	5798.5	
671.38	4126.7	
671.57	4044.1	
671.76	6304.3	
671.94	6640.9	
672.13	3970.3	
672.31	4686.4	
672.5	6025.8	
672.69	5506.3	
672.87	4082.3	
673.06	4354	
673.24	5872.2	
673.43	5587.5	
673.61	4620.9	
673.8	4308.2	
673.98	5949.3	
674.17	6037.4	
674.36	4727.4	
674.54	4653	
674.73	5722	
674.91	6090	
675.1	4443.4	
675.28	4139.6	
675.47	5646.2	
675.65	6062	
675.84	4306.9	
676.03	4526.7	
676.21	5526.1	
676.4	5115.8	
676.58	4825.7	
676.77	4700.8	
676.95	6589	
677.14	5468.8	
677.32	4039.3	
677.51	3999.7	
677.69	6059.9	
677.88	5315.8	
678.06	4043.4	
678.25	4033.8	
678.44	5623.7	
678.62	5449.6	
678.81	3923.2	
678.99	4520.5	
679.18	6268.8	
679.36	5917.3	
679.55	4300.1	
679.73	4655	
679.92	5862.7	
680.1	5495.4	
680.29	5117.2	
680.47	4265.9	
680.66	5515.9	
680.84	6061.3	
681.03	3872	
681.21	4551.3	
681.4	5483.8	
681.58	5388.2	
681.77	4080.9	
681.95	4067.3	
682.14	6077	
682.32	6242.2	
682.51	4756.1	
682.69	3905.5	
682.88	5451.7	
683.06	5808.7	
683.25	4526	
683.43	4799.8	
683.62	5711.1	
683.8	5942.5	
683.99	4899.4	
684.17	4360.8	
684.36	6523.5	
684.54	5549.3	
684.73	3930.1	
684.91	4032.5	
685.1	5816.2	
685.28	5362.3	
685.46	4384.7	
685.65	4478.2	
685.83	5968.5	
686.02	5541.1	
686.2	4083.6	
686.39	4178.5	
686.57	5309.7	
686.76	6286.6	
686.94	4122.6	
687.13	4207.2	
687.31	5776	
687.5	5567.1	
687.68	3721.8	
687.86	4526.7	
688.05	6779.5	
688.23	5095.3	
688.42	4643.4	
688.6	4031.8	
688.79	5439.4	
688.97	5422.3	
689.16	4380.6	
689.34	3619.4	
689.52	5904.3	
689.71	6084.5	
689.89	4557.4	
690.08	4091.8	
690.26	5685.2	
690.45	5449.6	
690.63	4715.1	
690.81	4160.8	
691	5542.5	
691.18	5397.1	
691.37	4321.9	
691.55	5705.6	
691.74	5379.3	
691.92	6771.3	
692.1	4307.6	
692.29	3880.2	
692.47	5495.4	
692.66	5013.4	
692.84	4092.5	
693.02	4374.5	
693.21	5091.9	
693.39	5516.5	
693.58	4504.2	
693.76	4050.9	
693.94	6275.7	
694.13	6106.4	
694.31	4037.2	
694.5	4779.3	
694.68	5337.7	
694.86	5612.1	
695.05	4286.4	
695.23	4587.4	
695.42	5784.8	
695.6	7344.7	
695.78	4679.6	
695.97	4123.2	
696.15	5920.7	
696.34	5407.3	
696.52	3969.6	
696.7	4513	
696.89	5666.7	
697.07	5251.7	
697.25	4433.9	
697.44	5457.8	
697.62	5690.6	
697.81	5814.2	
697.99	4289.1	
698.17	4515.1	
698.36	5335.6	
698.54	5683.8	
698.72	4461.8	
698.91	3807.9	
699.09	5384.1	
699.28	5270.1	
699.46	4219.5	
699.64	4103.4	
699.83	5247.6	
700.01	6025.8	
700.19	4676.2	
700.38	3581.2	
700.56	5984.8	
700.74	5335	
700.93	3841.3	
701.11	4405.9	
701.29	5651	
701.48	6418.3	
701.66	3995.6	
701.84	4027.7	
702.03	5420.3	
702.21	5890.6	
702.39	3778.5	
702.58	4158.1	
702.76	5705	
702.94	5776	
703.13	3736.2	
703.31	5398.4	
703.49	5264	
703.68	5983.5	
703.86	3880.2	
704.04	4545.8	
704.23	5596.4	
704.41	5825.1	
704.59	4056.3	
704.78	4768.4	
704.96	6701.6	
705.14	5778	
705.33	3825.6	
705.51	4362.9	
705.69	5356.1	
705.87	5991.7	
706.06	4502.1	
706.24	3784	
706.42	5678.3	
706.61	5751.4	
706.79	4550.6	
706.97	3738.2	
707.16	5266.7	
707.34	5670.8	
707.52	4534.9	
707.7	3964.2	
707.89	5260.5	
708.07	5138.4	
708.25	4500.1	
708.44	4956.1	
708.62	5205.3	
708.8	6066.8	
708.98	4737.6	
709.17	3965.6	
709.35	5539.8	
709.53	5584.8	
709.72	3755.3	
709.9	3898	
710.08	5753.4	
710.26	5802.6	
710.45	4945.2	
710.63	3953.3	
710.81	5515.9	
710.99	5545.9	
711.18	4468	
711.36	4106.9	
711.54	5341.8	
711.72	5888.6	
711.91	4168.3	
712.09	3779.2	
712.27	5515.2	
712.45	5928.9	
712.64	4330.8	
712.82	3601	
713	5184.8	
713.18	5338.4	
713.37	3786	
713.55	4599.1	
713.73	5875.6	
713.91	4970.4	
714.1	3977.8	
714.28	3696.6	
714.46	5651.7	
714.64	5131.5	
714.83	3330.7	
715.01	3872	
715.19	5261.2	
715.37	4710.3	
715.55	3695.2	
715.74	3820.1	
715.92	5794.4	
716.1	4423.6	
716.28	4700.8	
716.47	4016.1	
716.65	5019.6	
716.83	4972.5	
717.01	3849.5	
717.19	3897.3	
717.38	6381.5	
717.56	4726.7	
717.74	4029.7	
717.92	3481.5	
718.1	5556.8	
718.29	5012.7	
718.47	3164.8	
718.65	3606.5	
718.83	5550	
719.01	5477.6	
719.2	3124.5	
719.38	3803.1	
719.56	5250.3	
719.74	6267.5	
719.92	3646.1	
720.11	4252.3	
720.29	5312.4	
720.47	4779.3	
720.65	3311.6	
720.83	3881.6	
721.02	4954	
721.2	4885.1	
721.38	3944.4	
721.56	3369.6	
721.74	4443.4	
721.92	4576.5	
722.11	4227	
722.29	4059.8	
722.47	5496.1	
722.65	4919.9	
722.83	3450.8	
723.01	4036.5	
723.2	4934.9	
723.38	5126.1	
723.56	3077.4	
723.74	3843.4	
723.92	4586.8	
724.1	5396.4	
724.29	3355.9	
724.47	4161.5	
724.65	4711.7	
724.83	4503.5	
725.01	3309.5	
725.19	3865.9	
725.37	4635.2	
725.56	4638	
725.74	3281.5	
725.92	3367.5	
726.1	4612	
726.28	4775.2	
726.46	3625.6	
726.64	3423.5	
726.83	4850.3	
727.01	4898.7	
727.19	3230.3	
727.37	3721.2	
727.55	4971.8	
727.73	5242.8	
727.91	3198.9	
728.09	3084.2	
728.28	5260.5	
728.46	5363.6	
728.64	3794.9	
728.82	3730	
729	5950	
729.18	5539.1	
729.36	3179.8	
729.54	4815.5	
729.72	5998.5	
729.91	4950.6	
730.09	4562.9	
730.27	3673.4	
730.45	4849.6	
730.63	5256.5	
730.81	4063.2	
730.99	3455.6	
731.17	5677.7	
731.35	4659.8	
731.53	3763.5	
731.71	3535.5	
731.9	5517.2	
732.08	5558.2	
732.26	3766.2	
732.44	3463.8	
732.62	5573.2	
732.8	5203.9	
732.98	4005.8	
733.16	3367.5	
733.34	5319.9	
733.52	4354.7	
733.7	3715.7	
733.88	3858.4	
734.07	5116.5	
734.25	4983.4	
734.43	3291.1	
734.61	4427	
734.79	6051.1	
734.97	4880.3	
735.15	3411.9	
735.33	3601.7	
735.51	5159.5	
735.69	4917.9	
735.87	4359.4	
736.05	3796.9	
736.23	5047.6	
736.41	4814.8	
736.59	3673.4	
736.77	3801.7	
736.95	5377.3	
737.13	4911.7	
737.32	3446	
737.5	3574.4	
737.68	5826.5	
737.86	4855.1	
738.04	3330	
738.22	4553.3	
738.4	4793.6	
738.58	5010	
738.76	3723.2	
738.94	3065.1	
739.12	4917.2	
739.3	4840	
739.48	4190.8	
739.66	3943.7	
739.84	5050.3	
740.02	4977.2	
740.2	3117.7	
740.38	3344.3	
740.56	5226.4	
740.74	4422.9	
740.92	3861.8	
741.1	3715	
741.28	4920.6	
741.46	4756.7	
741.64	3488.4	
741.82	3936.9	
742	4976.6	
742.18	4859.1	
742.36	3637.2	
742.54	3398.9	
742.72	5400.5	
742.9	4442	
743.08	3850.2	
743.26	3063.8	
743.44	5384.1	
743.62	5376.6	
743.8	4048.2	
743.98	3383.2	
744.16	5130.2	
744.34	4945.2	
744.52	3906.8	
744.7	3904.8	
744.88	5268.7	
745.06	4904.9	
745.24	3983.3	
745.42	4065.9	
745.6	5408	
745.78	5269.4	
745.96	3272	
746.14	3452.9	
746.32	5897.5	
746.5	5264	
746.68	3775.1	
746.86	3384.6	
747.03	5483.8	
747.21	4440.7	
747.39	3793.5	
747.57	3387.3	
747.75	5026.4	
747.93	5290.6	
748.11	3379.1	
748.29	3345	
748.47	6126.2	
748.65	4872.1	
748.83	3894.6	
749.01	3733.4	
749.19	5214.1	
749.37	4581.3	
749.55	3675.4	
749.73	3709.6	
749.91	5040.7	
750.09	4886.5	
750.26	3742.3	
750.44	3330.7	
750.62	4997.7	
750.8	4967.7	
750.98	3213.3	
751.16	3434.4	
751.34	5072.1	
751.52	4560.8	
751.7	4035.9	
751.88	3247.4	
752.06	5434.6	
752.24	5189.6	
752.42	3175.7	
752.59	3450.8	
752.77	5008	
752.95	5804.6	
753.13	3988.8	
753.31	3540.3	
753.49	4769	
753.67	5106.3	
753.85	3784.6	
754.03	3461.7	
754.21	5330.2	
754.38	5489.2	
754.56	3470.6	
754.74	2939.5	
754.92	4722.6	
755.1	5215.5	
755.28	2980.5	
755.46	3013.2	
755.64	5851	
755.82	5861.3	
755.99	3287	
756.17	3295.9	
756.35	4186.7	
756.53	5282.4	
756.71	2580.4	
756.89	3218.7	
757.07	4926.7	
757.25	4317.8	
757.42	3539.6	
757.6	4130.8	
757.78	5014.8	
757.96	4279.6	
758.14	3336.8	
758.32	2976.4	
758.5	3947.8	
758.67	4640.7	
758.85	3224.9	
759.03	3297.9	
759.21	4763.6	
759.39	4327.4	
759.57	2923.1	
759.75	3701.4	
759.92	5251	
760.1	4732.9	
760.28	3887	
760.46	4071.4	
760.64	4537.6	
760.82	4355.3	
760.99	3782.6	
761.17	3269.2	
761.35	5085.8	
761.53	4301.4	
761.71	3403.7	
761.89	3819.5	
762.06	4936.3	
762.24	4612.7	
762.42	3411.9	
762.6	3267.9	
762.78	4581.3	
762.96	5033.9	
763.13	3656.3	
763.31	3383.9	
763.49	5162.2	
763.67	4627.7	
763.85	3999	
764.02	4391.5	
764.2	5390.3	
764.38	4698.7	
764.56	3334.8	
764.74	3915.7	
764.91	5383.4	
765.09	4560.8	
765.27	3188.7	
765.45	2945.7	
765.63	5461.9	
765.8	5329.5	
765.98	2820.1	
766.16	3035.1	
766.34	4350.6	
766.52	4156.7	
766.69	3706.8	
766.87	2900.6	
767.05	4652.3	
767.23	5208.7	
767.41	3196.9	
767.58	3358.7	
767.76	5100.8	
767.94	5113.8	
768.12	3263.1	
768.29	3710.9	
768.47	4685.8	
768.65	5218.2	
768.83	2920.4	
769	3727.3	
769.18	4407.2	
769.36	4845.5	
769.54	3767.6	
769.72	3013.2	
769.89	5183.4	
770.07	5123.3	
770.25	3293.1	
770.43	4139.6	
770.6	5674.9	
770.78	5913.2	
770.96	3340.2	
771.14	3818.8	
771.31	5086.5	
771.49	4584	
771.67	2807.1	
771.85	2939.5	
772.02	4105.5	
772.2	4556.7	
772.38	3487.7	
772.55	3084.9	
772.73	4803.2	
772.91	4636.6	
773.09	3368.9	
773.26	3493.2	
773.44	4801.8	
773.62	4607.2	
773.8	3096.5	
773.97	2921.8	
774.15	4823.6	
774.33	4620.2	
774.5	2996.9	
774.68	3216	
774.86	5003.9	
775.04	4591.5	
775.21	3106.8	
775.39	3037.8	
775.57	4776.5	
775.74	4989.5	
775.92	2925.2	
776.1	2820.7	
776.27	4739.7	
776.45	5597.1	
776.63	3074	
776.81	2775.7	
776.98	4545.1	
777.16	5288.5	
777.34	3166.8	
777.51	3369.6	
777.69	4511	
777.87	4354.7	
778.04	3262.4	
778.22	3592.1	
778.4	4431.8	
778.57	4878.9	
778.75	2699.9	
778.93	2880.1	
779.1	4329.4	
779.28	4115.1	
779.46	2708.8	
779.64	3010.5	
779.81	4991.6	
779.99	5534.3	
780.17	3552.5	
780.34	3677.5	
780.52	4610.7	
780.69	4685.8	
780.87	3287.7	
781.05	2962	
781.22	4699.4	
781.4	4634.6	
781.58	3083.6	
781.75	2468.5	
781.93	4691.9	
782.11	4190.8	
782.28	3642.7	
782.46	3089.7	
782.64	4131.4	
782.81	4811.4	
782.99	3157.3	
783.17	3065.1	
783.34	4697.4	
783.52	4299.4	
783.69	3232.4	
783.87	3794.2	
784.05	4301.4	
784.22	4241.3	
784.4	3788.1	
784.58	3366.9	
784.75	4954	
784.93	4326.7	
785.1	3094.5	
785.28	3550.5	
785.46	4784.7	
785.63	4233.8	
785.81	3118.4	
785.99	3028.3	
786.16	4424.3	
786.34	4605.2	
786.51	3056.3	
786.69	3315	
786.87	4064.5	
787.04	4403.1	
787.22	2899.9	
787.39	3593.5	
787.57	4317.8	
787.75	4994.3	
787.92	3683.6	
788.1	3639.9	
788.27	4242.7	
788.45	4007.2	
788.63	3444	
788.8	2540.2	
788.98	4593.6	
789.15	4009.9	
789.33	2699.2	
789.5	3065.1	
789.68	4923.3	
789.86	4984.1	
790.03	3414	
790.21	3063.8	
790.38	4993.6	
790.56	4387.4	
790.73	2977.1	
790.91	2893.8	
791.09	4298	
791.26	4782.7	
791.44	3132	
791.61	2740.2	
791.79	4325.3	
791.96	4280.3	
792.14	2819.4	
792.32	2489.6	
792.49	4289.8	
792.67	4362.2	
792.84	2915.6	
793.02	2729.3	
793.19	4713.7	
793.37	5061.9	
793.54	2489	
793.72	2762	
793.89	5072.1	
794.07	4226.3	
794.25	3192.1	
794.42	2567.5	
794.6	5033.2	
794.77	4733.5	
794.95	3416.7	
795.12	2936.8	
795.3	4324.6	
795.47	4692.6	
795.65	3300	
795.82	3136.1	
796	4130.8	
796.17	5496.1	
796.35	3062.4	
796.52	3624.9	
796.7	4702.8	
796.87	4730.8	
797.05	3011.2	
797.22	3639.9	
797.4	4758.8	
797.57	5370.5	
797.75	3190.1	
797.92	2986.6	
798.1	4941.7	
798.27	4178.5	
798.45	2624.8	
798.62	2779.1	
798.8	4516.5	
798.97	4807.3	
799.15	3351.2	
799.32	3172.3	
799.5	3971.7	
799.67	4478.2	
799.85	3443.3	
800.02	2578.4	
800.2	4264.6	
800.37	4400.4	
800.55	3453.6	
800.72	3015.3	
800.9	4790.2	
801.07	5005.9	
801.25	3939.6	
801.42	3271.3	
801.6	4851	
801.77	4504.8	
801.95	3066.5	
802.12	2906.1	
802.29	4671.4	
802.47	4597.7	
802.64	3301.3	
802.82	2567.5	
802.99	4287.1	
803.17	4889.2	
803.34	3161.4	
803.52	2863.7	
803.69	5367.7	
803.87	4090.5	
804.04	3081.5	
804.21	3213.9	
804.39	5086.5	
804.56	4385.4	
804.74	2738.1	
804.91	3254.9	
805.09	4284.4	
805.26	4289.1	
805.44	2796.8	
805.61	3050.1	
805.78	4810.7	
805.96	4727.4	
806.13	3301.3	
806.31	3446.7	
806.48	3964.9	
806.66	4334.2	
806.83	3277.4	
807	3166.2	
807.18	4349.9	
807.35	4526	
807.53	3056.9	
807.7	2594.8	
807.87	5086.5	
808.05	4319.2	
808.22	3375.1	
808.4	2616.6	
808.57	4242.7	
808.74	4069.3	
808.92	2975.7	
809.09	3636.5	
809.27	4323.9	
809.44	4645.5	
809.61	2645.3	
809.79	2880.1	
809.96	5249.6	
810.14	4794.3	
810.31	2654.9	
810.48	3086.3	
810.66	4378.6	
810.83	4800.4	
811.01	3011.9	
811.18	3261.7	
811.35	4825	
811.53	3786	
811.7	3506.8	
811.87	3272.7	
812.05	4387.4	
812.22	4283.7	
812.39	2841.9	
812.57	2862.4	
812.74	4394.9	
812.92	5428.5	
813.09	3108.1	
813.26	3249.4	
813.44	5183.4	
813.61	4175.8	
813.78	2622.1	
813.96	3376.4	
814.13	4364.2	
814.3	4146.5	
814.48	3657.7	
814.65	3050.8	
814.82	5104.2	
815	4101.4	
815.17	3185.3	
815.34	3767.6	
815.52	4252.3	
815.69	4234.5	
815.87	3081.5	
816.04	3067.9	
816.21	4322.6	
816.38	3942.3	
816.56	3076.7	
816.73	2886.3	
816.9	5266.7	
817.08	4794.3	
817.25	2914.3	
817.42	3492.5	
817.6	4020.2	
817.77	4343.7	
817.94	3212.6	
818.12	2855.6	
818.29	4143.7	
818.46	5858.6	
818.64	2962.7	
818.81	2812.5	
818.98	4136.2	
819.16	5522	
819.33	3369.6	
819.5	3127.9	
819.67	4606.6	
819.85	5014.8	
820.02	3084.9	
820.19	3297.2	
820.37	4537.6	
820.54	4204.5	
820.71	3177.8	
820.88	3822.9	
821.06	4447.5	
821.23	4113.7	
821.4	3197.6	
821.58	3175.7	
821.75	4830.5	
821.92	4403.8	
822.09	2638.5	
822.27	2697.9	
822.44	4326	
822.61	4256.4	
822.79	2641.9	
822.96	4781.3	
823.13	4584	
823.3	4048.2	
823.48	3077.4	
823.65	2710.8	
823.82	4850.3	
823.99	4029	
824.17	3762.1	
824.34	2785.9	
824.51	5455.1	
824.68	4348.5	
824.86	2897.2	
825.03	3198.2	
825.2	4382	
825.37	4999.8	
825.55	2843.3	
825.72	3092.4	
825.89	5402.5	
826.06	5057.8	
826.24	3089.7	
826.41	3073.3	
826.58	5122	
826.75	4434.5	
826.92	2568.8	
827.1	2779.8	
827.27	6596.5	
827.44	5399.1	
827.61	2934.7	
827.79	3505.4	
827.96	4186	
828.13	4350.6	
828.3	3082.2	
828.47	2599.6	
828.65	4601.1	
828.82	4471.4	
828.99	3796.9	
829.16	3308.2	
829.34	4855.7	
829.51	4685.8	
829.68	3145.7	
829.85	3225.6	
830.02	5111.7	
830.2	4807.3	
830.37	2506	
830.54	3633.8	
830.71	5351.3	
830.88	4330.1	
831.05	2481.5	
831.23	2882.9	
831.4	5246.2	
831.57	5591.6	
831.74	2927.9	
831.91	2633.7	
832.09	4678.2	
832.26	4808.6	
832.43	2985.9	
832.6	3326.6	
832.77	4566.3	
832.94	5117.2	
833.12	2452.1	
833.29	2940.2	
833.46	4300.7	
833.63	5813.5	
833.8	3222.8	
833.97	3014.6	
834.15	4863.2	
834.32	4653	
834.49	3175.7	
834.66	3193.5	
834.83	4888.5	
835	4222.2	
835.17	2908.8	
835.35	2850.1	
835.52	4784.7	
835.69	4629.1	
835.86	3072.6	
836.03	2544.3	
836.2	4805.9	
836.37	4548.5	
836.55	2954.5	
836.72	2837.8	
836.89	4526	
837.06	4965	
837.23	3102.7	
837.4	3289.7	
837.57	5425.8	
837.75	5774.6	
837.92	2769.5	
838.09	2951.1	
838.26	4500.8	
838.43	4953.4	
838.6	3090.4	
838.77	2833.7	
838.94	5541.8	
839.11	5444.9	
839.29	3041.9	
839.46	2460.3	
839.63	4937	
839.8	4583.4	
839.97	2940.9	
840.14	2913.6	
840.31	4674.1	
840.48	4802.5	
840.65	2482.1	
840.82	2865.1	
841	4788.2	
841.17	4674.1	
841.34	2711.5	
841.51	2787.3	
841.68	4790.9	
841.85	4506.2	
842.02	2786.6	
842.19	2400.2	
842.36	4646.2	
842.53	4668.7	
842.7	2731.3	
842.87	3189.4	
843.05	5831.9	
843.22	4543.8	
843.39	2521	
843.56	2808.4	
843.73	4466.6	
843.9	4870.1	
844.07	4149.9	
844.24	3461.7	
844.41	6445	
844.58	4279.6	
844.75	2648	
844.92	2822.1	
845.09	4747.9	
845.26	4790.2	
845.43	2691.7	
845.6	2846	
845.77	4843.4	
845.94	4559.5	
846.12	2954.5	
846.29	3119.1	
846.46	5014.8	
846.63	4786.8	
846.8	2720.4	
846.97	3172.3	
847.14	5061.2	
847.31	4792.9	
847.48	2978.4	
847.65	3295.9	
847.82	4961.5	
847.99	4878.9	
848.16	3513.6	
848.33	3253.5	
848.5	4453	
848.67	5072.1	
848.84	2695.8	
849.01	2772.9	
849.18	4458.4	
849.35	4149.2	
849.52	3282.2	
849.69	2618	
849.86	4973.8	
850.03	5039.4	
850.2	2717.7	
850.37	3217.4	
850.54	4979.3	
850.71	4530.8	
850.88	3179.1	
851.05	2658.9	
851.22	4728.1	
851.39	5111.7	
851.56	2577.7	
851.73	3052.2	
851.9	4274.8	
852.07	4924	
852.24	2917.7	
852.41	2663.7	
852.58	4745.1	
852.75	4347.8	
852.92	3013.2	
853.09	2628.9	
853.26	4449.6	
853.43	5010.7	
853.6	2696.5	
853.77	2370.9	
853.94	5190.9	
854.11	4277.5	
854.28	3837.2	
854.44	2906.8	
854.61	5446.9	
854.78	4965.6	
854.95	2668.5	
855.12	3269.9	
855.29	3979.9	
855.46	5218.9	
855.63	2738.8	
855.8	3581.2	
855.97	4482.3	
856.14	5006.6	
856.31	3712.3	
856.48	2937.5	
856.65	4541.7	
856.82	4226.3	
856.99	2589.3	
857.16	2902	
857.33	5617.6	
857.49	4529.4	
857.66	2893.1	
857.83	3080.1	
858	4577.9	
858.17	4706.9	
858.34	2551.8	
858.51	2751.1	
858.68	5235.3	
858.85	5236.7	
859.02	3094.5	
859.19	3189.4	
859.36	4364.9	
859.52	4306.9	
859.69	2719	
859.86	3096.5	
860.03	4369	
860.2	5137	
860.37	2482.1	
860.54	2723.1	
860.71	4918.5	
860.88	5169.8	
861.05	2985.9	
861.21	3352.5	
861.38	5147.9	
861.55	4120.5	
861.72	2542.9	
861.89	2934.7	
862.06	4944.5	
862.23	5258.5	
862.4	2633	
862.56	2850.8	
862.73	4790.2	
862.9	4588.1	
863.07	3046.7	
863.24	2523.8	
863.41	4225.6	
863.58	4316.4	
863.75	2740.2	
863.91	3110.2	
864.08	5105.6	
864.25	4898.7	
864.42	3294.5	
864.59	3601	
864.76	5408.7	
864.93	4259.8	
865.09	2628.9	
865.26	2906.8	
865.43	5096	
865.6	5416.9	
865.77	2407	
865.94	2695.1	
866.1	5131.5	
866.27	4839.4	
866.44	3867.2	
866.61	2606.4	
866.78	4583.4	
866.95	4897.4	
867.11	2685.6	
867.28	2463.7	
867.45	5081.7	
867.62	4305.5	
867.79	3020.1	
867.96	2668.5	
868.12	4244.1	
868.29	4923.3	
868.46	2723.1	
868.63	3497.9	
868.8	4984.8	
868.97	4887.8	
869.13	2826.2	
869.3	2835.8	
869.47	4844.8	
869.64	4985.4	
869.81	2727.9	
869.97	2673.3	
870.14	4719.9	
870.31	5210.7	
870.48	2628.2	
870.65	3289	
870.81	4595.6	
870.98	4584	
871.15	2967.5	
871.32	2811.9	
871.48	4784.1	
871.65	5271.5	
871.82	2672.6	
871.99	2927.9	
872.16	5601.2	
872.32	5129.5	
872.49	2768.2	
872.66	2693.8	
872.83	4942.4	
872.99	4396.3	
873.16	3008.5	
873.33	2701.3	
873.5	4653	
873.67	4719.9	
873.83	2871.3	
874	3469.9	
874.17	4757.4	
874.34	5429.2	
874.5	3365.5	
874.67	3246	
874.84	5137.7	
875.01	4212	
875.17	3682.9	
875.34	2714.2	
875.51	4717.8	
875.68	5555.5	
875.84	3230.3	
876.01	3760.1	
876.18	4800.4	
876.34	4873.5	
876.51	2704.7	
876.68	2676	
876.85	4516.5	
877.01	5121.3	
877.18	3715.7	
877.35	2708.8	
877.52	4738.3	
877.68	4293.2	
877.85	2676.7	
878.02	2616.6	
878.18	4496.7	
878.35	4425	
878.52	2236.4	
878.69	3145	
878.85	5036	
879.02	4869.4	
879.19	3669.3	
879.35	2869.9	
879.52	4909	
879.69	4955.4	
879.86	2441.2	
880.02	2947	
880.19	4652.3	
880.36	5431.9	
880.52	3035.1	
880.69	3132	
880.86	4929.5	
881.02	4960.2	
881.19	2956.6	
881.36	2889.7	
881.52	4892.6	
881.69	4363.5	
881.86	2864.4	
882.02	2885.6	
882.19	5057.8	
882.36	5814.2	
882.52	2811.2	
882.69	3611.3	
882.86	4731.5	
883.02	4749.2	
883.19	3156.6	
883.36	3002.3	
883.52	4937	
883.69	5548.6	
883.86	2733.4	
884.02	2456.9	
884.19	4902.8	
884.36	4677.6	
884.52	3039.2	
884.69	2917.7	
884.86	4491.2	
885.02	5285.8	
885.19	2952.5	
885.36	3054.9	
885.52	4558.8	
885.69	4840	
885.86	3710.2	
886.02	3382.6	
886.19	4934.9	
886.35	4485.1	
886.52	2991.4	
886.69	3646.1	
886.85	4346.5	
887.02	5149.3	
887.19	5149.3	
887.35	5149.3	
887.52	5149.3	
887.68	5149.3	
887.85	5149.3	
888.02	5149.3	
888.18	5149.3	
888.35	5149.3	
888.51	5149.3	
888.68	5149.3	
888.85	5149.3	
889.01	5149.3	
889.18	5149.3	
889.35	5149.3	
889.51	5149.3	
889.68	5149.3	
889.84	5149.3	
890.01	5149.3	
890.17	5149.3	
890.34	5149.3	
890.51	5149.3	
890.67	5149.3	
890.84	5149.3	
891	5149.3	
891.17	5149.3	
891.34	5149.3	
891.5	5149.3	
891.67	5149.3	
891.83	5149.3	
892	5149.3	
892.16	5149.3	
892.33	5149.3	
892.5	5149.3	
892.66	5149.3	
892.83	5149.3	
892.99	5149.3	
893.16	5149.3	
893.32	5149.3	
893.49	5149.3	
893.65	5149.3	
893.82	5149.3	
893.99	5149.3	
894.15	5149.3	
894.32	5149.3	
894.48	5149.3	
894.65	5149.3	
894.81	5149.3	
894.98	5149.3	
895.14	5149.3	
895.31	5149.3	
895.47	5149.3	
895.64	5149.3	
895.81	5149.3	
895.97	5149.3	
896.14	5149.3	
896.3	5149.3	
896.47	5149.3	
896.63	5149.3	
896.8	5149.3	
896.96	5149.3	
897.13	5149.3	
897.29	5149.3	
897.46	5149.3	
897.62	5149.3	
897.79	5149.3	
897.95	5149.3	
898.12	5149.3	
898.28	5149.3	
898.45	5149.3	
898.61	5149.3	
898.78	5149.3	
898.94	5149.3	
899.11	5149.3	
899.27	5149.3	
899.44	5149.3	
899.6	5149.3	
899.77	5149.3	
899.93	5149.3	
900.1	5149.3	
900.26	5149.3	
900.43	5149.3	
900.59	5149.3	
900.76	5149.3	
900.92	5149.3	
901.09	5149.3	
901.25	5149.3	
901.42	5149.3	
901.58	5149.3	
901.75	5149.3	
901.91	5149.3	
902.07	5149.3	
902.24	5149.3	
902.4	5149.3	
902.57	5149.3	
902.73	5149.3	
902.9	5149.3	
903.06	5149.3	
903.23	5149.3	
903.39	5149.3	
903.56	5149.3	
903.72	5149.3	
903.88	5149.3	
904.05	5149.3	
904.21	5149.3	
904.38	5149.3	
904.54	5149.3	
904.71	5149.3	
904.87	5149.3	
905.03	5149.3	
905.2	5149.3	
905.36	5149.3	
905.53	5149.3	
905.69	5149.3	
905.86	5149.3	
906.02	5149.3	
906.18	5149.3	
906.35	5149.3	
906.51	5149.3	
906.68	5149.3	
906.84	5149.3	
907.01	5149.3	
907.17	5149.3	
907.33	5149.3	
907.5	5149.3	
907.66	5149.3	
907.83	5149.3	
907.99	5149.3	
908.15	5149.3	
908.32	5149.3	
908.48	5149.3	
908.65	5149.3	
908.81	5149.3	
908.97	5149.3	
909.14	5149.3	
909.3	5149.3	
909.47	5149.3	
909.63	5149.3	
909.79	5149.3	
909.96	5149.3	
910.12	5149.3	
910.28	5149.3	
910.45	5149.3	
910.61	5149.3	
910.78	5149.3	
910.94	5149.3	
911.1	5149.3	
911.27	5149.3	
911.43	5149.3	
911.59	5149.3	
911.76	5149.3	
911.92	5149.3	
912.08	5149.3	
912.25	5149.3	
912.41	5149.3	
912.57	5149.3	
912.74	5149.3	
912.9	5149.3	
913.07	5149.3	
913.23	5149.3	
913.39	5149.3	
913.56	5149.3	
913.72	5149.3	
913.88	5149.3	
914.05	5149.3	
914.21	5149.3	
914.37	5149.3	
914.54	5149.3	
914.7	5149.3	
914.86	5149.3	
915.03	5149.3	
915.19	5149.3	
