Wavelength	Intensities	
nm	a.u.	
179.22	1862.6	
179.44	1869.1	
179.65	1856.1	
179.86	1882.1	
180.08	1863	
180.29	4677.6	
180.51	3371.6	
180.72	5477	
180.94	6411.5	
181.15	3149.1	
181.37	3068.5	
181.58	5355.4	
181.79	5677	
182.01	3224.9	
182.22	3478.8	
182.44	5622.4	
182.65	4724	
182.87	4363.5	
183.08	3771.7	
183.29	5888.6	
183.51	4854.4	
183.72	3494.5	
183.94	5100.1	
184.15	5324.7	
184.37	5253	
184.58	3108.8	
184.79	4245.4	
185.01	4901.5	
185.22	5562.3	
185.44	4494.6	
185.65	3766.2	
185.86	5182.7	
186.08	4728.8	
186.29	3018	
186.51	3205.1	
186.72	4940.4	
186.94	5724.1	
187.15	3749.8	
187.36	3878.9	
187.58	7470.3	
187.79	5348.6	
188.01	4003.1	
188.22	6186.2	
188.43	6419.7	
188.65	5576.6	
188.86	3251.5	
189.08	3923.9	
189.29	5085.1	
189.5	5085.8	
189.72	3525.9	
189.93	3678.2	
190.15	5787.6	
190.36	6823.1	
190.57	3983.3	
190.79	3827.7	
191	5854.5	
191.22	5807.4	
191.43	3949.2	
191.64	3278.1	
191.86	6109.8	
192.07	5853.1	
192.29	3377.1	
192.5	3546.4	
192.71	5790.3	
192.93	5000.5	
193.14	3557.3	
193.35	3680.2	
193.57	5036.6	
193.78	5821.7	
194	2808.4	
194.21	3559.4	
194.42	4872.8	
194.64	5301.5	
194.85	3842	
195.07	4537.6	
195.28	5331.5	
195.49	4596.3	
195.71	4700.1	
195.92	3375.1	
196.13	5470.8	
196.35	5575.3	
196.56	5076.2	
196.78	3841.3	
196.99	6761.7	
197.2	6427.9	
197.42	4380.6	
197.63	3872	
197.84	4692.6	
198.06	5457.8	
198.27	3566.2	
198.48	4785.4	
198.7	5023	
198.91	5162.9	
199.13	3930.1	
199.34	3866.6	
199.55	5653.8	
199.77	4553.3	
199.98	3441.3	
200.19	3932.8	
200.41	5066	
200.62	4850.3	
200.83	4070	
201.05	4300.1	
201.26	5152	
201.47	4994.3	
201.69	3493.8	
201.9	3345.7	
202.11	5244.8	
202.33	6228.6	
202.54	3728.7	
202.76	4078.9	
202.97	5352	
203.18	5390.3	
203.4	4085	
203.61	3969.6	
203.82	5321.3	
204.04	4949.3	
204.25	3902.7	
204.46	3847.5	
204.68	5230.5	
204.89	5539.1	
205.1	3822.9	
205.32	3268.6	
205.53	5654.4	
205.74	5841.5	
205.96	2814.6	
206.17	3981.3	
206.38	5608.7	
206.6	5773.9	
206.81	4491.2	
207.02	3682.9	
207.24	5516.5	
207.45	5879.7	
207.66	3715.7	
207.88	3177.1	
208.09	5444.9	
208.3	5282.4	
208.52	3414.6	
208.73	3756.7	
208.94	5261.2	
209.15	5943.2	
209.37	3741	
209.58	3942.3	
209.79	5765	
210.01	5070.1	
210.22	3019.4	
210.43	3116.3	
210.65	5268.7	
210.86	5705	
211.07	3742.3	
211.29	3429	
211.5	5608.7	
211.71	5225.7	
211.93	3389.4	
212.14	3384.6	
212.35	5145.9	
212.56	5410.1	
212.78	3951.2	
212.99	3256.3	
213.2	6134.3	
213.42	5032.5	
213.63	3498.6	
213.84	3827	
214.06	4676.9	
214.27	4774.5	
214.48	3691.8	
214.69	3909.6	
214.91	5883.1	
215.12	5937.1	
215.33	3975.1	
215.55	4356.7	
215.76	6496.8	
215.97	5651.7	
216.18	3852.2	
216.4	3739.6	
216.61	4939.7	
216.82	5745.9	
217.04	3420.1	
217.25	3567.6	
217.46	5930.2	
217.67	5635.3	
217.89	3094.5	
218.1	3143.6	
218.31	5366.4	
218.53	5490.6	
218.74	3594.9	
218.95	3448.8	
219.16	5212.1	
219.38	6146.6	
219.59	3491.1	
219.8	4226.3	
220.01	6779.5	
220.23	5308.3	
220.44	4537.6	
220.65	3362.8	
220.87	5312.4	
221.08	5894.1	
221.29	3184.6	
221.5	4261.1	
221.72	7102.4	
221.93	5014.8	
222.14	3910.3	
222.35	4563.6	
222.57	5293.3	
222.78	5601.9	
222.99	3759.4	
223.2	3987.4	
223.42	5540.4	
223.63	5610.8	
223.84	2908.8	
224.05	2863.7	
224.27	6642.2	
224.48	6082.5	
224.69	4640.7	
224.9	3914.4	
225.12	5438	
225.33	5267.4	
225.54	3142.3	
225.75	3515	
225.97	4915.8	
226.18	5109.7	
226.39	3758.7	
226.6	3509.5	
226.82	5050.3	
227.03	4937.7	
227.24	3878.9	
227.45	3252.2	
227.67	5608.7	
227.88	6195.1	
228.09	4358.1	
228.3	4349.9	
228.52	5685.2	
228.73	5217.5	
228.94	3672	
229.15	3218.7	
229.36	5255.8	
229.58	5102.2	
229.79	3680.9	
230	4248.9	
230.21	6264.1	
230.43	5344.5	
230.64	3830.4	
230.85	4083	
231.06	5680.4	
231.28	5676.3	
231.49	3262.4	
231.7	3845.4	
231.91	5541.8	
232.12	5247.6	
232.34	3319.8	
232.55	3775.8	
232.76	5885.2	
232.97	5459.2	
233.18	3494.5	
233.4	3899.3	
233.61	5487.9	
233.82	5062.6	
234.03	3592.1	
234.25	3549.8	
234.46	7262.8	
234.67	5324	
234.88	4009.2	
235.09	3462.4	
235.31	5551.4	
235.52	5195.7	
235.73	3928.7	
235.94	3248.8	
236.15	4990.2	
236.37	6339.1	
236.58	3480.9	
236.79	3794.2	
237	5649	
237.21	4841.4	
237.43	4057	
237.64	3147.7	
237.85	9483.5	
238.06	4900.1	
238.27	4102.8	
238.48	3319.1	
238.7	5648.3	
238.91	5145.9	
239.12	3672.7	
239.33	3766.2	
239.54	4920.6	
239.76	5185.5	
239.97	3710.9	
240.18	3731.4	
240.39	6580.1	
240.6	5618.9	
240.82	3878.2	
241.03	3168.2	
241.24	5335.6	
241.45	6092.7	
241.66	3421.5	
241.87	3980.6	
242.09	5978.7	
242.3	6326.2	
242.51	4045.4	
242.72	3743.7	
242.93	5689.3	
243.14	5177.9	
243.36	4291.2	
243.57	4706.2	
243.78	6106.4	
243.99	5631.9	
244.2	3786.7	
244.41	3377.8	
244.63	4840	
244.84	5486.5	
245.05	3984	
245.26	3737.5	
245.47	5519.3	
245.68	5851	
245.9	4992.3	
246.11	3967.6	
246.32	5147.9	
246.53	5450.3	
246.74	6000.5	
246.95	3140.9	
247.16	4773.8	
247.38	5331.5	
247.59	3184.6	
247.8	3753.9	
248.01	4967.7	
248.22	5219.6	
248.43	3397.6	
248.64	3656.3	
248.86	4713.1	
249.07	5059.2	
249.28	3313.6	
249.49	3846.1	
249.7	5818.3	
249.91	5916.6	
250.12	3138.9	
250.34	3246.7	
250.55	5365	
250.76	5282.4	
250.97	3855	
251.18	3984	
251.39	5954.8	
251.6	5446.9	
251.81	3978.5	
252.03	3918.4	
252.24	5036.6	
252.45	5822.4	
252.66	3272.7	
252.87	4146.5	
253.08	5282.4	
253.29	6858.6	
253.5	3241.3	
253.72	4513.7	
253.93	5171.8	
254.14	6199.9	
254.35	3536.2	
254.56	3665.2	
254.77	5529.5	
254.98	4909	
255.19	3566.2	
255.41	4528.7	
255.62	5378	
255.83	5911.1	
256.04	4016.7	
256.25	4014	
256.46	6449.7	
256.67	5005.9	
256.88	3842.7	
257.09	4263.2	
257.31	4901.5	
257.52	4992.3	
257.73	4853	
257.94	3548.4	
258.15	5181.4	
258.36	5236	
258.57	4442	
258.78	2856.2	
258.99	5758.2	
259.2	5073.5	
259.41	3639.9	
259.63	3682.2	
259.84	6110.5	
260.05	6455.9	
260.26	4696.7	
260.47	3507.5	
260.68	5830.6	
260.89	5162.2	
261.1	4304.8	
261.31	3439.9	
261.52	5829.9	
261.73	6201.2	
261.95	4597	
262.16	4020.8	
262.37	5950	
262.58	5995.1	
262.79	4605.9	
263	3670	
263.21	5289.9	
263.42	5180.7	
263.63	3695.2	
263.84	3627.6	
264.05	5795.8	
264.26	6144.6	
264.47	4464.6	
264.69	4003.8	
264.9	5919.3	
265.11	5451.7	
265.32	3478.1	
265.53	3590.8	
265.74	5422.3	
265.95	4696.7	
266.16	3816.7	
266.37	4192.2	
266.58	5374.6	
266.79	5118.6	
267	3544.4	
267.21	3277.4	
267.42	4892.6	
267.63	5242.1	
267.84	3744.4	
268.06	3203.7	
268.27	5684.5	
268.48	5941.2	
268.69	3686.3	
268.9	4375.8	
269.11	5970.5	
269.32	4782	
269.53	3794.2	
269.74	3499.3	
269.95	5624.4	
270.16	4699.4	
270.37	3808.5	
270.58	4312.3	
270.79	5070.1	
271	5727.5	
271.21	4000.4	
271.42	3771	
271.63	5493.3	
271.84	4909.7	
272.05	3016	
272.26	3339.6	
272.47	5281	
272.68	5515.2	
272.89	3622.2	
273.11	4156.7	
273.32	5104.9	
273.53	6195.8	
273.74	4033.1	
273.95	3917.8	
274.16	5863.3	
274.37	5345.9	
274.58	4136.9	
274.79	3298.6	
275	5358.2	
275.21	6003.3	
275.42	4917.2	
275.63	4208.6	
275.84	5534.3	
276.05	6917.4	
276.26	3969.6	
276.47	3667.2	
276.68	5128.1	
276.89	6241.5	
277.1	4279.6	
277.31	3325.2	
277.52	5532.2	
277.73	5694	
277.94	3246.7	
278.15	3600.3	
278.36	5532.2	
278.57	4962.2	
278.78	3637.9	
278.99	4044.7	
279.2	4957.4	
279.41	4878.3	
279.62	4679.6	
279.83	3383.9	
280.04	6466.1	
280.25	4838.7	
280.46	4684.4	
280.67	3738.2	
280.88	4972.5	
281.09	5891.3	
281.3	3971	
281.51	4913.1	
281.72	4946.5	
281.93	5799.8	
282.14	3512.3	
282.35	3752.6	
282.56	5712.5	
282.77	5721.3	
282.98	3677.5	
283.19	4381.3	
283.4	7027.3	
283.61	5240.8	
283.82	3368.2	
284.03	4706.2	
284.24	5400.5	
284.45	5926.8	
284.66	4642.1	
284.87	4420.9	
285.08	5849.7	
285.29	5996.5	
285.5	3193.5	
285.71	3668.6	
285.92	5849.7	
286.12	6464.1	
286.33	4625.7	
286.54	3618.1	
286.75	5711.1	
286.96	5153.4	
287.17	3405.1	
287.38	4519.2	
287.59	4984.1	
287.8	4892.6	
288.01	3704.1	
288.22	4193.6	
288.43	5739.8	
288.64	4834.6	
288.85	4415.4	
289.06	4138.3	
289.27	5705	
289.48	6144.6	
289.69	4655	
289.9	4226.3	
290.11	5935.7	
290.32	5018.2	
290.53	4405.2	
290.74	4054.3	
290.94	5713.8	
291.15	5720.7	
291.36	3578.5	
291.57	4165.6	
291.78	5040.7	
291.99	4732.2	
292.2	3375.1	
292.41	4043.4	
292.62	5778	
292.83	5585.5	
293.04	5052.3	
293.25	3411.9	
293.46	5174.5	
293.67	5847.6	
293.88	3522.5	
294.09	3358.7	
294.29	4861.9	
294.5	5440.1	
294.71	3804.4	
294.92	3620.8	
295.13	5056.4	
295.34	6309.8	
295.55	3158	
295.76	3280.8	
295.97	5642.2	
296.18	6440.2	
296.39	3358.7	
296.6	3477.5	
296.81	5423	
297.01	5726.1	
297.22	3719.1	
297.43	3513.6	
297.64	4971.1	
297.85	4912.4	
298.06	2990.7	
298.27	3170.9	
298.48	5341.8	
298.69	5010	
298.9	3806.5	
299.11	3453.6	
299.31	4817.5	
299.52	4869.4	
299.73	4077.5	
299.94	3999	
300.15	5321.3	
300.36	4951.3	
300.57	4056.3	
300.78	3999	
300.99	5193.6	
301.2	5438.7	
301.4	3520.5	
301.61	3801	
301.82	5578	
302.03	5705	
302.24	4345.8	
302.45	3359.4	
302.66	5605.3	
302.87	5936.4	
303.08	3530.7	
303.29	4814.1	
303.49	5070.1	
303.7	5317.9	
303.91	3159.3	
304.12	4558.8	
304.33	4857.8	
304.54	5476.3	
304.75	3584.6	
304.96	3431.7	
305.16	5579.3	
305.37	6294.8	
305.58	3087	
305.79	3168.2	
306	5601.9	
306.21	4727.4	
306.42	3463.1	
306.63	5352	
306.83	5173.9	
307.04	5862	
307.25	3851.5	
307.46	3861.1	
307.67	4586.8	
307.88	5794.4	
308.09	3452.9	
308.29	3619.4	
308.5	5359.5	
308.71	5878.4	
308.92	3785.3	
309.13	3410.6	
309.34	5179.3	
309.55	5182.7	
309.75	4322.6	
309.96	4031.8	
310.17	5674.2	
310.38	5005.2	
310.59	4191.5	
310.8	3289.7	
311.01	5095.3	
311.21	5128.1	
311.42	3373	
311.63	3468.6	
311.84	5029.8	
312.05	5406	
312.26	3941.7	
312.46	4311	
312.67	5150	
312.88	4846.9	
313.09	3380.5	
313.3	3352.5	
313.51	6048.3	
313.71	6335.7	
313.92	3375.1	
314.13	3553.2	
314.34	5485.1	
314.55	5200.5	
314.76	4354.7	
314.96	3813.3	
315.17	5412.1	
315.38	5600.5	
315.59	3433.1	
315.8	3231.7	
316.01	6107.7	
316.21	6124.8	
316.42	3297.9	
316.63	3818.8	
316.84	5173.9	
317.05	5954.1	
317.26	4034.5	
317.46	3675.4	
317.67	5221.6	
317.88	5634	
318.09	4250.9	
318.3	3161.4	
318.5	5050.3	
318.71	5600.5	
318.92	5517.9	
319.13	3956.7	
319.34	5754.8	
319.54	5844.2	
319.75	3142.9	
319.96	2990.7	
320.17	5634.6	
320.38	5881.1	
320.58	3166.8	
320.79	3739.6	
321	5785.5	
321.21	5900.2	
321.42	3786.7	
321.62	3106.1	
321.83	4900.1	
322.04	5375.2	
322.25	3568.2	
322.46	3442.6	
322.66	5399.8	
322.87	5452.4	
323.08	4190.1	
323.29	3388.7	
323.5	6310.5	
323.7	4909.7	
323.91	4653	
324.12	4193.6	
324.33	5337	
324.53	5612.8	
324.74	4016.1	
324.95	4194.9	
325.16	4705.5	
325.37	5172.5	
325.57	3435.1	
325.78	3538.2	
325.99	5358.2	
326.2	4797.7	
326.4	4799.8	
326.61	3175.7	
326.82	5292.6	
327.03	5412.1	
327.24	4845.5	
327.44	4528.7	
327.65	5628.5	
327.86	4542.4	
328.07	3989.4	
328.27	3302.7	
328.48	5912.5	
328.69	4898.1	
328.9	4933.6	
329.1	3646.1	
329.31	5151.3	
329.52	6109.8	
329.73	3463.1	
329.93	3887.7	
330.14	5294.7	
330.35	5535.7	
330.56	5527.5	
330.76	4199	
330.97	5168.4	
331.18	5504.3	
331.39	3775.8	
331.59	3093.8	
331.8	5864	
332.01	5989.6	
332.22	3496.6	
332.42	4080.2	
332.63	5463.3	
332.84	4994.3	
333.05	3829	
333.25	3510.9	
333.46	5111.7	
333.67	5294	
333.88	3598.3	
334.08	3999	
334.29	7005.4	
334.5	5922	
334.7	3338.9	
334.91	4824.3	
335.12	4850.3	
335.33	5644.2	
335.53	3801.7	
335.74	5549.3	
335.95	5118.6	
336.16	4898.7	
336.36	3798.3	
336.57	4397	
336.78	4873.5	
336.98	5880.4	
337.19	4683	
337.4	3689.1	
337.61	6376.7	
337.81	4894.6	
338.02	3512.9	
338.23	4442.7	
338.43	6049	
338.64	4958.8	
338.85	3508.9	
339.05	4502.1	
339.26	6156.9	
339.47	4762.2	
339.68	3429.7	
339.88	5020.3	
340.09	5554.8	
340.3	5752.1	
340.5	4065.9	
340.71	3081.5	
340.92	4868	
341.13	5986.9	
341.33	3368.9	
341.54	4070.7	
341.75	5500.2	
341.95	5181.4	
342.16	3906.2	
342.37	4162.2	
342.57	4943.1	
342.78	5282.4	
342.99	4262.5	
343.19	3115.6	
343.4	5724.1	
343.61	5576.6	
343.81	3648.1	
344.02	3387.3	
344.23	5722.7	
344.43	6058.6	
344.64	4307.6	
344.85	4205.8	
345.06	5564.3	
345.26	5917.3	
345.47	4019.5	
345.68	4670.1	
345.88	4711	
346.09	5836.7	
346.3	4113	
346.5	3076	
346.71	5335.6	
346.92	5032.5	
347.12	3170.3	
347.33	4007.9	
347.54	5842.2	
347.74	6266.1	
347.95	3958.7	
348.16	2966.1	
348.36	5142.4	
348.57	4919.9	
348.78	3935.5	
348.98	4194.9	
349.19	5272.2	
349.39	4799.1	
349.6	3246	
349.81	3526.6	
350.01	5601.2	
350.22	5063.3	
350.43	3855.6	
350.63	4615.4	
350.84	5410.1	
351.05	5145.9	
351.25	3556.6	
351.46	3193.5	
351.67	5848.3	
351.87	5130.8	
352.08	3818.8	
352.29	4216.8	
352.49	5869.5	
352.7	5561.6	
352.9	3512.9	
353.11	4252.9	
353.32	6447	
353.52	5226.4	
353.73	3435.1	
353.94	4377.9	
354.14	5761.6	
354.35	5528.2	
354.55	3585.3	
354.76	3962.8	
354.97	5696.1	
355.17	5496.7	
355.38	3374.4	
355.59	4669.4	
355.79	5208	
356	5608.7	
356.2	4000.4	
356.41	3528.7	
356.62	4921.3	
356.82	5438	
357.03	4311.7	
357.24	3876.1	
357.44	5270.1	
357.65	5363.6	
357.85	5049.6	
358.06	4087.1	
358.27	4956.8	
358.47	5228.5	
358.68	3437.9	
358.88	4248.9	
359.09	5793.7	
359.3	6152.1	
359.5	5051	
359.71	4513.7	
359.91	6608.1	
360.12	6012.8	
360.33	4321.2	
360.53	4806.6	
360.74	5349.3	
360.94	5448.3	
361.15	4561.5	
361.36	3801	
361.56	6138.4	
361.77	5636	
361.97	5068.7	
362.18	4085.7	
362.38	6199.2	
362.59	5256.5	
362.8	3831.1	
363	3677.5	
363.21	5138.4	
363.41	5789.6	
363.62	4376.5	
363.83	5402.5	
364.03	5884.5	
364.24	6823.8	
364.44	5423.7	
364.65	5365	
364.85	5598.5	
365.06	5311.1	
365.27	4083.6	
365.47	4050.2	
365.68	6703.7	
365.88	5611.4	
366.09	4450.9	
366.29	4167.6	
366.5	5993.7	
366.71	6429.3	
366.91	5466.7	
367.12	4654.4	
367.32	6899.6	
367.53	6227.2	
367.73	4661.2	
367.94	5542.5	
368.14	6185.5	
368.35	7076.4	
368.56	4633.2	
368.76	4356.7	
368.97	6343.9	
369.17	7864.2	
369.38	4111.6	
369.58	4332.1	
369.79	5337.7	
369.99	6563.7	
370.2	5382.1	
370.4	4496.7	
370.61	6092.7	
370.82	7239.6	
371.02	4422.9	
371.23	3723.9	
371.43	5286.5	
371.64	6637.5	
371.84	4547.9	
372.05	5747.3	
372.25	8017.8	
372.46	6510.5	
372.66	4608.6	
372.87	4529.4	
373.07	6558.3	
373.28	8005.5	
373.48	5552	
373.69	5309.7	
373.9	6076.3	
374.1	6055.2	
374.31	5668.1	
374.51	5200.5	
374.72	6930.3	
374.92	5876.3	
375.13	5942.5	
375.33	5116.5	
375.54	6688	
375.74	6077.7	
375.95	5053.7	
376.15	6368.5	
376.36	6720.8	
376.56	6581.5	
376.77	5313.1	
376.97	5698.1	
377.18	7740.6	
377.38	6920.1	
377.59	6163.7	
377.79	4971.8	
378	6733	
378.2	7166.5	
378.41	5046.2	
378.61	4868.7	
378.82	7250.5	
379.02	6389.7	
379.23	5168.4	
379.43	6309.8	
379.64	7382.9	
379.84	6960.4	
380.05	4974.5	
380.25	4911	
380.46	6977.4	
380.66	6532.3	
380.87	6226.5	
381.07	6584.2	
381.28	7621.2	
381.48	7045.7	
381.69	4984.8	
381.89	5016.2	
382.1	5945.3	
382.3	7064.1	
382.51	5994.4	
382.71	6918	
382.91	6965.1	
383.12	7376.8	
383.32	5242.1	
383.53	5439.4	
383.73	6741.2	
383.94	6542.6	
384.14	5361.6	
384.35	4482.3	
384.55	6464.1	
384.76	6818.4	
384.96	5249.6	
385.17	5474.9	
385.37	6853.9	
385.58	6154.1	
385.78	5569.1	
385.98	4426.3	
386.19	6315.9	
386.39	6805.4	
386.6	5047.6	
386.8	5309.7	
387.01	6846.4	
387.21	6916	
387.42	5716.6	
387.62	6305.7	
387.83	6281.8	
388.03	7000	
388.23	5497.4	
388.44	6310.5	
388.64	6137.8	
388.85	6382.8	
389.05	5997.8	
389.26	6556.9	
389.46	8215.8	
389.67	7705.1	
389.87	6087.9	
390.07	5988.3	
390.28	6827.2	
390.48	6423.1	
390.69	5272.8	
390.89	5453.7	
391.1	6602.7	
391.3	7531.1	
391.5	6670.9	
391.71	7191.8	
391.91	7344.7	
392.12	8285.4	
392.32	6699.6	
392.53	5930.2	
392.73	6670.9	
392.93	6801.3	
393.14	5581.4	
393.34	6320.7	
393.55	7312.6	
393.75	6748.1	
393.95	5460.6	
394.16	5442.8	
394.36	6636.1	
394.57	7221.1	
394.77	5076.2	
394.98	5522.7	
395.18	6767.9	
395.38	6780.8	
395.59	6617	
395.79	5595.7	
396	7009.5	
396.2	7505.1	
396.4	6509.1	
396.61	6444.3	
396.81	7656	
397.02	7034.8	
397.22	6729.6	
397.42	6782.9	
397.63	7710.6	
397.83	7126.2	
398.04	5691.3	
398.24	6335.1	
398.44	7495.6	
398.65	6702.3	
398.85	5603.9	
399.05	5701.5	
399.26	7177.4	
399.46	8763.3	
399.67	6169.8	
399.87	5953.4	
400.07	7593.2	
400.28	7891.5	
400.48	6120.7	
400.69	7240.9	
400.89	8230.8	
401.09	8658.8	
401.3	6093.4	
401.5	7178.1	
401.7	8920.3	
401.91	9131.2	
402.11	6460.7	
402.32	6518	
402.52	8120.9	
402.72	7927.7	
402.93	6637.5	
403.13	5397.8	
403.33	8571.4	
403.54	7099.6	
403.74	6023.1	
403.94	6838.9	
404.15	7256.6	
404.35	8480	
404.56	5986.2	
404.76	7830.7	
404.96	8050.6	
405.17	7725.6	
405.37	7464.8	
405.57	6769.2	
405.78	8216.5	
405.98	7560.4	
406.18	6317.3	
406.39	7076.4	
406.59	7958.4	
406.79	7561.8	
407	5823.7	
407.2	5996.5	
407.4	8001.4	
407.61	8338	
407.81	6303	
408.01	8501.1	
408.22	7473.7	
408.42	9587.9	
408.62	7900.4	
408.83	7500.3	
409.03	8548.9	
409.23	8513.4	
409.44	7624.6	
409.64	7988.4	
409.84	9654.8	
410.05	9687.6	
410.25	8122.9	
410.45	7798	
410.66	9410.4	
410.86	11678	
411.06	8634.2	
411.27	8421.9	
411.47	11820	
411.67	9717.6	
411.88	8623.3	
412.08	9121.7	
412.28	10430	
412.49	10941	
412.69	8686.1	
412.89	8799.4	
413.09	10739	
413.3	10763	
413.5	8834.3	
413.7	8546.2	
413.91	10005	
414.11	10849	
414.31	8805.6	
414.52	9321.7	
414.72	10623	
414.92	10605	
415.12	8817.9	
415.33	9477.3	
415.53	11121	
415.73	11293	
415.94	9651.4	
416.14	9199.5	
416.34	10124	
416.55	9753.1	
416.75	10372	
416.95	9766.1	
417.15	11215	
417.36	11725	
417.56	10738	
417.76	9852.8	
417.97	11655	
418.17	11450	
418.37	9456.2	
418.57	9571.5	
418.78	11153	
418.98	10740	
419.18	10432	
419.38	10141	
419.59	10725	
419.79	10122	
419.99	9207.7	
420.2	9702.6	
420.4	11290	
420.6	11459	
420.8	9268.4	
421.01	9187.9	
421.21	11279	
421.41	11355	
421.61	9633	
421.82	9321.7	
422.02	10707	
422.22	11553	
422.42	10047	
422.63	9485.5	
422.83	10725	
423.03	11959	
423.23	9682.8	
423.44	8685.4	
423.64	10755	
423.84	10273	
424.04	9105.3	
424.25	8703.9	
424.45	11387	
424.65	11346	
424.85	8509.3	
425.06	9156.5	
425.26	11513	
425.46	10031	
425.66	9496.4	
425.87	9232.2	
426.07	11187	
426.27	11089	
426.47	9189.2	
426.67	8551	
426.88	11266	
427.08	10873	
427.28	9673.9	
427.48	8501.1	
427.69	9778.4	
427.89	10475	
428.09	9587.2	
428.29	8629.5	
428.5	11147	
428.7	10663	
428.9	8662.9	
429.1	9136.7	
429.3	10652	
429.51	11301	
429.71	8898.4	
429.91	9943.6	
430.11	11139	
430.31	11547	
430.52	9409.1	
430.72	9889	
430.92	11733	
431.12	11188	
431.32	9183.1	
431.53	9398.1	
431.73	10217	
431.93	11852	
432.13	9060.9	
432.33	9127.1	
432.54	10655	
432.74	11202	
432.94	9174.2	
433.14	9978.4	
433.34	11370	
433.55	11155	
433.75	10068	
433.95	12032	
434.15	11221	
434.35	11073	
434.56	9382.4	
434.76	9118.9	
434.96	11254	
435.16	11802	
435.36	9417.9	
435.56	10630	
435.77	11199	
435.97	11415	
436.17	11353	
436.37	10694	
436.57	11204	
436.78	11363	
436.98	12170	
437.18	11120	
437.38	12121	
437.58	11308	
437.78	11129	
437.99	9745.6	
438.19	11639	
438.39	12357	
438.59	9594.1	
438.79	9099.1	
438.99	12163	
439.2	11060	
439.4	9228.1	
439.6	9355.1	
439.8	11871	
440	12910	
440.2	10966	
440.4	10883	
440.61	12573	
440.81	13205	
441.01	10242	
441.21	11151	
441.41	13101	
441.61	12436	
441.81	11508	
442.02	12571	
442.22	13423	
442.42	12631	
442.62	10275	
442.82	10189	
443.02	12996	
443.22	12330	
443.43	11070	
443.63	10532	
443.83	12057	
444.03	12168	
444.23	11888	
444.43	11361	
444.63	12648	
444.83	13696	
445.04	10847	
445.24	12002	
445.44	12764	
445.64	12768	
445.84	11021	
446.04	11157	
446.24	11847	
446.44	12968	
446.65	10131	
446.85	10864	
447.05	11636	
447.25	12903	
447.45	10738	
447.65	10262	
447.85	12277	
448.05	11706	
448.25	11271	
448.46	11120	
448.66	12353	
448.86	11945	
449.06	10295	
449.26	11333	
449.46	12824	
449.66	11801	
449.86	11194	
450.06	11054	
450.26	12108	
450.47	12715	
450.67	11138	
450.87	11579	
451.07	12785	
451.27	12706	
451.47	10567	
451.67	11427	
451.87	12440	
452.07	13246	
452.27	11065	
452.47	10944	
452.67	12440	
452.88	13132	
453.08	10072	
453.28	12269	
453.48	13943	
453.68	12434	
453.88	11060	
454.08	11093	
454.28	13182	
454.48	12882	
454.68	11789	
454.88	12296	
455.08	13328	
455.28	13433	
455.48	10864	
455.68	11861	
455.89	14125	
456.09	13720	
456.29	11530	
456.49	11717	
456.69	14148	
456.89	13208	
457.09	12313	
457.29	12966	
457.49	13812	
457.69	14178	
457.89	12688	
458.09	11878	
458.29	13941	
458.49	14561	
458.69	13034	
458.89	12450	
459.09	15063	
459.29	15005	
459.49	12349	
459.69	13386	
459.9	14313	
460.1	14164	
460.3	12169	
460.5	12127	
460.7	14552	
460.9	14236	
461.1	11943	
461.3	13562	
461.5	15513	
461.7	15115	
461.9	13054	
462.1	13108	
462.3	14889	
462.5	15376	
462.7	13091	
462.9	13320	
463.1	16526	
463.3	16400	
463.5	13518	
463.7	14974	
463.9	15504	
464.1	15851	
464.3	14247	
464.5	14372	
464.7	16310	
464.9	16305	
465.1	15719	
465.3	14844	
465.5	16514	
465.7	16741	
465.9	15203	
466.1	14569	
466.3	16804	
466.5	16250	
466.7	16105	
466.9	14795	
467.1	16679	
467.3	17460	
467.5	16118	
467.7	15087	
467.9	17791	
468.1	18662	
468.3	15750	
468.5	16388	
468.7	16961	
468.9	16504	
469.1	15512	
469.3	16413	
469.5	18903	
469.7	16722	
469.9	15716	
470.1	15520	
470.3	16898	
470.5	16969	
470.7	16358	
470.9	15182	
471.1	16713	
471.3	16669	
471.5	15077	
471.69	16809	
471.89	16309	
472.09	15967	
472.29	15840	
472.49	15689	
472.69	16332	
472.89	16767	
473.09	14898	
473.29	14735	
473.49	16258	
473.69	16237	
473.89	15617	
474.09	14840	
474.29	17450	
474.49	17033	
474.69	15621	
474.89	14917	
475.09	16375	
475.29	16427	
475.49	14382	
475.69	14791	
475.88	17456	
476.08	16455	
476.28	14272	
476.48	14581	
476.68	16596	
476.88	16391	
477.08	14220	
477.28	14899	
477.48	15948	
477.68	16560	
477.88	14414	
478.08	14603	
478.28	17215	
478.48	16139	
478.67	14819	
478.87	13986	
479.07	17135	
479.27	16222	
479.47	14730	
479.67	14919	
479.87	16686	
480.07	17324	
480.27	14230	
480.47	15835	
480.67	16322	
480.87	17385	
481.06	14561	
481.26	15444	
481.46	16499	
481.66	16284	
481.86	15091	
482.06	15915	
482.26	16044	
482.46	17053	
482.66	14893	
482.86	14641	
483.05	16648	
483.25	16027	
483.45	17514	
483.65	15294	
483.85	16518	
484.05	16752	
484.25	15710	
484.45	16398	
484.65	17453	
484.84	17905	
485.04	15391	
485.24	15282	
485.44	18061	
485.64	16395	
485.84	14814	
486.04	16356	
486.24	16908	
486.44	17292	
486.63	14848	
486.83	15954	
487.03	17045	
487.23	17474	
487.43	15123	
487.63	17443	
487.83	17544	
488.02	18183	
488.22	16557	
488.42	17128	
488.62	18241	
488.82	17400	
489.02	15997	
489.22	16331	
489.41	18165	
489.61	18135	
489.81	15789	
490.01	16040	
490.21	18281	
490.41	18946	
490.61	15829	
490.8	15982	
491	17797	
491.2	16789	
491.4	16309	
491.6	15341	
491.8	17318	
491.99	17540	
492.19	15254	
492.39	15720	
492.59	18314	
492.79	18477	
492.99	17078	
493.18	16339	
493.38	18815	
493.58	20150	
493.78	17365	
493.98	16890	
494.18	18962	
494.37	18578	
494.57	17965	
494.77	17783	
494.97	19604	
495.17	20043	
495.37	17806	
495.56	18183	
495.76	20436	
495.96	20207	
496.16	19225	
496.36	18345	
496.55	20220	
496.75	20013	
496.95	18587	
497.15	18423	
497.35	20037	
497.54	20363	
497.74	18265	
497.94	19869	
498.14	21059	
498.34	21063	
498.53	18339	
498.73	18834	
498.93	20089	
499.13	20700	
499.33	19003	
499.52	19268	
499.72	21029	
499.92	20946	
500.12	18940	
500.32	19270	
500.51	20986	
500.71	21127	
500.91	19783	
501.11	19312	
501.31	21141	
501.5	21444	
501.7	20065	
501.9	19190	
502.1	20691	
502.29	21163	
502.49	19710	
502.69	19718	
502.89	20839	
503.09	20960	
503.28	18109	
503.48	18280	
503.68	19639	
503.88	19837	
504.07	19171	
504.27	18451	
504.47	20262	
504.67	20213	
504.86	19123	
505.06	18669	
505.26	19706	
505.46	21293	
505.65	18236	
505.85	18460	
506.05	19318	
506.25	19738	
506.44	17368	
506.64	18245	
506.84	19232	
507.04	19948	
507.23	17650	
507.43	18135	
507.63	20973	
507.83	19364	
508.02	18107	
508.22	17791	
508.42	21289	
508.62	19131	
508.81	17658	
509.01	18706	
509.21	18830	
509.4	19173	
509.6	18297	
509.8	17759	
510	19283	
510.19	20809	
510.39	17611	
510.59	17806	
510.79	19187	
510.98	20757	
511.18	17822	
511.38	17978	
511.57	19829	
511.77	19702	
511.97	18372	
512.17	17336	
512.36	19936	
512.56	19610	
512.76	17438	
512.95	17239	
513.15	19796	
513.35	18701	
513.55	18430	
513.74	17748	
513.94	19875	
514.14	19340	
514.33	18689	
514.53	18486	
514.73	19274	
514.92	19519	
515.12	17896	
515.32	17779	
515.51	19854	
515.71	20217	
515.91	19633	
516.11	18045	
516.3	21701	
516.5	19437	
516.7	18460	
516.89	18945	
517.09	19387	
517.29	19452	
517.48	18810	
517.68	17880	
517.88	19325	
518.07	19876	
518.27	18647	
518.47	17692	
518.66	20269	
518.86	19153	
519.06	17604	
519.25	17890	
519.45	19497	
519.65	21244	
519.84	18682	
520.04	19292	
520.24	21237	
520.43	19886	
520.63	17925	
520.83	17767	
521.02	18834	
521.22	19398	
521.42	17940	
521.61	18654	
521.81	19063	
522.01	19351	
522.2	18286	
522.4	18037	
522.6	20181	
522.79	19093	
522.99	18436	
523.18	18003	
523.38	20497	
523.58	20605	
523.77	20323	
523.97	18533	
524.17	22702	
524.36	21962	
524.56	20091	
524.76	19624	
524.95	21359	
525.15	20708	
525.34	19655	
525.54	19839	
525.74	21599	
525.93	20975	
526.13	20942	
526.33	20033	
526.52	22297	
526.72	21678	
526.91	21422	
527.11	20661	
527.31	22534	
527.5	23003	
527.7	20747	
527.89	20035	
528.09	21803	
528.29	22759	
528.48	21493	
528.68	21075	
528.87	22771	
529.07	22272	
529.27	20619	
529.46	20255	
529.66	21932	
529.85	22544	
530.05	19990	
530.25	20615	
530.44	23495	
530.64	21790	
530.83	20349	
531.03	20900	
531.23	22621	
531.42	22559	
531.62	21839	
531.81	21297	
532.01	23551	
532.21	23891	
532.4	21605	
532.6	22195	
532.79	24545	
532.99	24089	
533.18	22231	
533.38	22965	
533.58	23661	
533.77	24307	
533.97	22371	
534.16	23204	
534.36	24850	
534.55	24010	
534.75	23213	
534.95	22482	
535.14	24751	
535.34	23778	
535.53	21865	
535.73	23699	
535.92	24877	
536.12	23543	
536.31	21883	
536.51	23035	
536.71	23854	
536.9	23456	
537.1	21913	
537.29	22426	
537.49	24402	
537.68	23601	
537.88	22789	
538.07	21967	
538.27	23971	
538.46	24849	
538.66	22005	
538.86	22503	
539.05	24157	
539.25	24455	
539.44	23020	
539.64	22163	
539.83	23568	
540.03	24636	
540.22	21965	
540.42	21700	
540.61	23421	
540.81	23924	
541	22078	
541.2	23177	
541.39	23172	
541.59	23692	
541.78	22745	
541.98	21566	
542.18	22717	
542.37	22727	
542.57	21784	
542.76	22503	
542.96	22427	
543.15	22938	
543.35	21359	
543.54	20817	
543.74	23077	
543.93	22829	
544.13	20979	
544.32	22345	
544.52	23033	
544.71	22225	
544.91	20330	
545.1	21662	
545.3	22455	
545.49	22990	
545.69	20240	
545.88	20860	
546.08	23987	
546.27	23171	
546.47	21420	
546.66	20596	
546.86	22990	
547.05	23481	
547.24	20751	
547.44	20857	
547.63	21897	
547.83	23002	
548.02	21103	
548.22	21131	
548.41	21610	
548.61	22960	
548.8	20287	
549	20310	
549.19	22068	
549.39	22667	
549.58	19975	
549.78	20470	
549.97	22479	
550.17	21908	
550.36	21014	
550.55	22158	
550.75	21700	
550.94	22571	
551.14	19979	
551.33	20043	
551.53	21266	
551.72	22203	
551.92	20350	
552.11	20117	
552.31	22028	
552.5	22117	
552.69	21612	
552.89	19712	
553.08	21855	
553.28	21534	
553.47	20046	
553.67	20893	
553.86	22345	
554.06	20823	
554.25	19022	
554.44	19691	
554.64	22958	
554.83	22681	
555.03	19641	
555.22	19973	
555.42	21865	
555.61	21528	
555.8	19564	
556	19729	
556.19	20732	
556.39	22045	
556.58	19754	
556.78	19643	
556.97	21347	
557.16	21115	
557.36	20882	
557.55	19609	
557.75	20481	
557.94	22357	
558.13	19390	
558.33	19248	
558.52	21894	
558.72	20641	
558.91	19084	
559.1	19325	
559.3	20484	
559.49	19947	
559.69	18797	
559.88	19557	
560.07	20998	
560.27	21605	
560.46	19834	
560.66	19874	
560.85	20900	
561.04	20005	
561.24	18994	
561.43	18942	
561.63	20343	
561.82	20583	
562.01	20378	
562.21	19506	
562.4	20940	
562.59	22201	
562.79	19492	
562.98	19152	
563.18	21231	
563.37	22634	
563.56	20038	
563.76	19287	
563.95	20811	
564.14	20806	
564.34	19613	
564.53	19441	
564.73	21361	
564.92	21780	
565.11	19942	
565.31	19328	
565.5	22093	
565.69	21078	
565.89	19652	
566.08	19893	
566.27	21869	
566.47	22396	
566.66	20695	
566.85	19445	
567.05	21557	
567.24	21059	
567.44	19736	
567.63	20945	
567.82	21883	
568.02	21595	
568.21	19634	
568.4	20106	
568.6	21564	
568.79	21625	
568.98	19605	
569.18	20190	
569.37	21885	
569.56	23862	
569.76	20427	
569.95	21304	
570.14	22124	
570.34	22216	
570.53	19764	
570.72	19953	
570.91	22554	
571.11	21669	
571.3	20423	
571.49	21227	
571.69	22007	
571.88	21317	
572.07	21022	
572.27	20949	
572.46	21379	
572.65	22470	
572.85	20074	
573.04	20639	
573.23	22899	
573.43	22188	
573.62	20374	
573.81	20993	
574	22631	
574.2	22460	
574.39	21044	
574.58	21110	
574.78	23742	
574.97	23010	
575.16	21651	
575.36	21964	
575.55	23510	
575.74	23552	
575.93	20719	
576.13	22208	
576.32	22689	
576.51	23427	
576.71	21286	
576.9	22642	
577.09	23556	
577.28	23105	
577.48	21663	
577.67	20864	
577.86	22821	
578.05	23388	
578.25	21526	
578.44	21538	
578.63	23137	
578.83	24427	
579.02	20992	
579.21	22707	
579.4	23227	
579.6	23124	
579.79	21739	
579.98	23790	
580.17	23728	
580.37	23847	
580.56	21134	
580.75	22102	
580.94	24096	
581.14	24146	
581.33	22580	
581.52	21669	
581.71	23844	
581.91	24574	
582.1	21433	
582.29	21846	
582.48	23339	
582.68	23578	
582.87	22302	
583.06	21886	
583.25	23799	
583.45	23074	
583.64	22713	
583.83	23591	
584.02	23326	
584.21	23952	
584.41	22545	
584.6	21960	
584.79	23649	
584.98	24370	
585.18	21415	
585.37	21305	
585.56	23104	
585.75	23922	
585.94	21428	
586.14	22251	
586.33	24073	
586.52	23069	
586.71	21775	
586.91	21629	
587.1	22365	
587.29	23245	
587.48	21026	
587.67	21255	
587.87	23038	
588.06	22895	
588.25	22202	
588.44	21618	
588.63	22496	
588.83	23049	
589.02	20611	
589.21	20289	
589.4	21602	
589.59	21478	
589.78	18886	
589.98	19063	
590.17	20054	
590.36	20626	
590.55	17785	
590.74	18329	
590.94	21775	
591.13	20330	
591.32	18639	
591.51	18262	
591.7	21121	
591.89	20725	
592.09	18597	
592.28	19198	
592.47	19934	
592.66	21915	
592.85	18640	
593.05	18807	
593.24	20461	
593.43	21371	
593.62	19010	
593.81	19471	
594	20747	
594.19	20961	
594.39	18816	
594.58	18725	
594.77	20983	
594.96	21409	
595.15	18585	
595.34	19273	
595.54	20525	
595.73	19760	
595.92	17645	
596.11	18948	
596.3	21189	
596.49	19916	
596.68	18469	
596.88	19094	
597.07	20867	
597.26	19775	
597.45	18177	
597.64	19351	
597.83	19987	
598.02	20472	
598.22	18275	
598.41	18855	
598.6	20227	
598.79	19613	
598.98	18239	
599.17	19209	
599.36	20224	
599.55	21300	
599.74	20156	
599.94	19965	
600.13	20678	
600.32	19510	
600.51	17928	
600.7	17935	
600.89	21239	
601.08	21271	
601.27	17697	
601.47	18847	
601.66	20520	
601.85	21140	
602.04	18393	
602.23	18572	
602.42	19534	
602.61	20135	
602.8	18166	
602.99	17832	
603.18	19746	
603.37	20207	
603.57	18596	
603.76	19042	
603.95	20824	
604.14	20403	
604.33	18337	
604.52	18499	
604.71	20280	
604.9	19820	
605.09	19122	
605.28	18725	
605.47	20767	
605.66	20266	
605.86	18653	
606.05	18104	
606.24	20535	
606.43	19140	
606.62	18320	
606.81	19002	
607	20197	
607.19	19736	
607.38	17630	
607.57	17871	
607.76	19315	
607.95	18880	
608.14	18394	
608.33	18748	
608.52	19252	
608.72	20270	
608.91	17437	
609.1	17276	
609.29	19228	
609.48	18807	
609.67	18100	
609.86	17417	
610.05	18888	
610.24	19112	
610.43	17114	
610.62	16780	
610.81	20173	
611	19983	
611.19	17265	
611.38	17932	
611.57	19415	
611.76	20826	
611.95	17072	
612.14	16780	
612.33	19349	
612.52	18849	
612.71	17509	
612.9	16775	
613.09	18385	
613.28	20615	
613.47	17214	
613.66	18129	
613.85	19420	
614.04	18839	
614.24	17453	
614.43	16482	
614.62	19393	
614.81	19298	
615	17874	
615.19	18061	
615.38	18741	
615.57	19234	
615.76	17835	
615.95	18708	
616.14	19537	
616.33	19180	
616.52	18062	
616.71	18359	
616.9	19495	
617.09	19493	
617.28	17561	
617.47	18774	
617.66	18753	
617.85	18961	
618.04	18781	
618.22	18262	
618.41	19492	
618.6	20479	
618.79	18250	
618.98	18147	
619.17	20754	
619.36	19083	
619.55	18218	
619.74	18184	
619.93	20288	
620.12	19729	
620.31	19075	
620.5	19295	
620.69	20876	
620.88	21379	
621.07	19849	
621.26	19098	
621.45	20654	
621.64	20656	
621.83	19144	
622.02	18352	
622.21	20717	
622.4	20575	
622.59	19843	
622.78	19563	
622.97	20203	
623.16	21244	
623.35	19252	
623.54	18327	
623.72	20550	
623.91	20578	
624.1	19500	
624.29	18363	
624.48	21652	
624.67	20753	
624.86	19531	
625.05	18538	
625.24	21809	
625.43	20129	
625.62	21047	
625.81	18914	
626	21192	
626.19	20806	
626.38	19815	
626.56	19011	
626.75	20492	
626.94	21338	
627.13	19596	
627.32	18363	
627.51	20949	
627.7	22154	
627.89	18396	
628.08	19569	
628.27	20013	
628.46	20368	
628.65	18818	
628.83	18430	
629.02	20867	
629.21	20203	
629.4	19135	
629.59	19302	
629.78	20279	
629.97	20975	
630.16	19460	
630.35	18859	
630.54	21602	
630.72	21201	
630.91	18852	
631.1	19417	
631.29	20613	
631.48	20857	
631.67	19372	
631.86	18832	
632.05	20487	
632.24	20482	
632.42	18392	
632.61	19084	
632.8	20264	
632.99	20082	
633.18	19241	
633.37	19430	
633.56	20556	
633.75	20465	
633.93	19082	
634.12	18772	
634.31	21453	
634.5	21214	
634.69	18901	
634.88	19202	
635.07	20312	
635.25	20986	
635.44	19499	
635.63	19844	
635.82	20089	
636.01	19605	
636.2	19295	
636.39	19024	
636.57	21168	
636.76	20763	
636.95	18392	
637.14	19833	
637.33	20560	
637.52	21503	
637.7	18124	
637.89	19275	
638.08	20034	
638.27	21388	
638.46	19008	
638.65	19299	
638.83	21132	
639.02	19500	
639.21	18748	
639.4	19082	
639.59	19929	
639.78	19452	
639.96	17734	
640.15	17879	
640.34	19577	
640.53	19690	
640.72	17479	
640.91	17792	
641.09	19035	
641.28	20349	
641.47	17875	
641.66	18626	
641.85	19607	
642.03	19754	
642.22	18256	
642.41	17645	
642.6	19072	
642.79	18218	
642.97	17241	
643.16	18071	
643.35	18713	
643.54	18506	
643.73	17214	
643.91	17802	
644.1	17984	
644.29	18728	
644.48	16847	
644.67	16901	
644.85	18064	
645.04	18315	
645.23	16139	
645.42	16559	
645.6	17652	
645.79	18726	
645.98	16141	
646.17	15211	
646.36	17015	
646.54	17453	
646.73	16447	
646.92	15277	
647.11	16827	
647.29	17847	
647.48	15421	
647.67	15020	
647.86	18139	
648.05	18353	
648.23	15570	
648.42	16871	
648.61	17491	
648.8	17240	
648.98	15136	
649.17	15498	
649.36	16839	
649.55	16499	
649.73	15344	
649.92	16085	
650.11	16877	
650.3	16941	
650.48	15244	
650.67	14915	
650.86	17072	
651.05	16000	
651.23	15003	
651.42	15126	
651.61	16401	
651.79	16499	
651.98	15309	
652.17	14858	
652.36	16754	
652.54	15952	
652.73	14821	
652.92	14578	
653.11	16602	
653.29	16722	
653.48	13917	
653.67	14853	
653.85	16184	
654.04	17117	
654.23	14567	
654.42	14035	
654.6	15180	
654.79	15609	
654.98	13125	
655.16	13524	
655.35	14301	
655.54	14448	
655.73	13127	
655.91	13143	
656.1	15737	
656.29	14776	
656.47	13048	
656.66	14784	
656.85	15358	
657.03	15443	
657.22	13809	
657.41	13994	
657.59	15286	
657.78	15269	
657.97	13623	
658.16	14330	
658.34	15956	
658.53	16457	
658.72	15105	
658.9	15487	
659.09	15500	
659.28	15599	
659.46	13992	
659.65	14011	
659.84	15287	
660.02	15890	
660.21	13809	
660.4	13801	
660.58	16139	
660.77	15578	
660.96	14471	
661.14	13434	
661.33	16653	
661.52	16520	
661.7	13421	
661.89	16888	
662.08	15053	
662.26	14664	
662.45	13467	
662.64	13535	
662.82	15711	
663.01	14915	
663.2	13605	
663.38	14375	
663.57	15427	
663.75	15480	
663.94	13889	
664.13	14975	
664.31	15001	
664.5	15616	
664.69	14011	
664.87	14607	
665.06	14754	
665.25	15423	
665.43	14787	
665.62	14943	
665.8	15609	
665.99	14829	
666.18	13695	
666.36	13892	
666.55	15584	
666.74	15454	
666.92	13292	
667.11	14926	
667.29	15116	
667.48	15397	
667.67	14605	
667.85	13608	
668.04	14960	
668.22	14953	
668.41	13788	
668.6	13839	
668.78	14622	
668.97	14882	
669.15	13934	
669.34	13016	
669.53	14799	
669.71	15040	
669.9	13063	
670.08	13803	
670.27	14692	
670.46	15184	
670.64	14072	
670.83	14222	
671.01	14579	
671.2	15090	
671.38	13283	
671.57	13080	
671.76	15669	
671.94	16242	
672.13	13078	
672.31	13995	
672.5	15401	
672.69	14624	
672.87	13232	
673.06	13517	
673.24	15079	
673.43	14650	
673.61	13870	
673.8	13473	
673.98	15182	
674.17	15473	
674.36	14046	
674.54	13914	
674.73	14969	
674.91	15204	
675.1	13600	
675.28	13134	
675.47	14771	
675.65	15382	
675.84	13398	
676.03	13909	
676.21	14513	
676.4	14225	
676.58	14206	
676.77	13902	
676.95	16015	
677.14	14513	
677.32	13037	
677.51	12845	
677.69	15243	
677.88	14173	
678.06	13035	
678.25	13102	
678.44	14910	
678.62	14444	
678.81	12764	
678.99	13769	
679.18	15621	
679.36	15246	
679.55	13439	
679.73	14055	
679.92	15137	
680.1	14594	
680.29	14635	
680.47	13403	
680.66	14440	
680.84	15292	
681.03	12562	
681.21	13545	
681.4	14572	
681.58	14353	
681.77	13018	
681.95	13046	
682.14	15223	
682.32	15508	
682.51	13911	
682.69	12588	
682.88	14203	
683.06	14681	
683.25	13535	
683.43	13978	
683.62	14582	
683.8	14988	
683.99	13949	
684.17	13166	
684.36	15455	
684.54	13923	
684.73	11786	
684.91	11783	
685.1	13637	
685.28	13041	
685.46	11902	
685.65	12167	
685.83	13743	
686.02	13349	
686.2	11852	
686.39	12020	
686.57	13258	
686.76	14909	
686.94	12121	
687.13	12312	
687.31	14050	
687.5	13610	
687.68	11753	
687.86	13012	
688.05	15315	
688.23	13201	
688.42	13184	
688.6	12372	
688.79	13744	
688.97	13717	
689.16	12835	
689.34	11773	
689.52	14505	
689.71	14829	
689.89	13166	
690.08	12334	
690.26	14117	
690.45	13871	
690.63	13074	
690.81	12551	
691	13706	
691.18	13671	
691.37	12506	
691.55	14542	
691.74	13396	
691.92	15348	
692.1	12427	
692.29	11858	
692.47	13684	
692.66	12933	
692.84	12245	
693.02	12745	
693.21	13396	
693.39	13669	
693.58	13007	
693.76	12533	
693.94	15000	
694.13	15021	
694.31	12659	
694.5	13657	
694.68	13887	
694.86	14258	
695.05	13063	
695.23	13121	
695.42	14723	
695.6	16918	
695.78	13506	
695.97	12555	
696.15	14592	
696.34	14004	
696.52	12436	
696.7	13075	
696.89	14151	
697.07	13495	
697.25	12813	
697.44	14410	
697.62	14057	
697.81	14347	
697.99	12485	
698.17	13007	
698.36	13236	
698.54	13991	
698.72	12817	
698.91	11865	
699.09	13463	
699.28	13428	
699.46	12326	
699.64	12297	
699.83	13333	
700.01	14400	
700.19	13064	
700.38	11577	
700.56	14602	
700.74	13505	
700.93	12019	
701.11	12936	
701.29	14125	
701.48	15137	
701.66	12342	
701.84	12336	
702.03	13708	
702.21	14477	
702.39	11852	
702.58	12471	
702.76	14186	
702.94	14317	
703.13	11771	
703.31	14179	
703.49	13422	
703.68	14384	
703.86	12080	
704.04	12977	
704.23	13766	
704.41	14212	
704.59	12239	
704.78	13319	
704.96	14922	
705.14	14159	
705.33	11953	
705.51	12710	
705.69	13676	
705.87	14374	
706.06	12839	
706.24	11918	
706.42	13919	
706.61	14172	
706.79	13038	
706.97	11776	
707.16	13229	
707.34	13914	
707.52	12710	
707.7	12055	
707.89	13507	
708.07	13154	
708.25	12697	
708.44	13343	
708.62	13137	
708.8	14205	
708.98	12970	
709.17	11961	
709.35	13611	
709.53	13628	
709.72	11594	
709.9	12030	
710.08	13700	
710.26	13831	
710.45	12968	
710.63	11863	
710.81	13420	
710.99	13381	
711.18	12435	
711.36	11785	
711.54	13047	
711.72	13675	
711.91	11788	
712.09	11048	
712.27	12995	
712.45	13434	
712.64	11667	
712.82	10725	
713	12121	
713.18	12260	
713.37	10535	
713.55	11662	
713.73	12744	
713.91	11145	
714.1	10352	
714.28	9613.8	
714.46	11671	
714.64	10740	
714.83	8666.3	
715.01	9349	
715.19	10471	
715.37	9988.6	
715.55	8875.9	
715.74	8999.5	
715.92	11222	
716.1	9237.7	
716.28	10122	
716.47	9060.9	
716.65	9766.8	
716.83	9961.3	
717.01	8845.9	
717.19	9002.2	
717.38	12138	
717.56	9718.3	
717.74	9229.5	
717.92	8578.3	
718.1	11084	
718.29	10515	
718.47	8572.1	
718.65	9269.8	
718.83	11398	
719.01	11452	
719.2	8720.9	
719.38	9853.5	
719.56	11082	
719.74	12621	
719.92	9261.6	
720.11	10144	
720.29	10855	
720.47	9950.4	
720.65	8431.5	
720.83	9203.6	
721.02	10030	
721.2	9726.5	
721.38	9023.4	
721.56	8341.4	
721.74	9220	
721.92	9282.8	
722.11	9494.4	
722.29	9201.5	
722.47	10557	
722.65	9740.8	
722.83	8265.6	
723.01	9136.7	
723.2	9836.4	
723.38	10202	
723.56	7807.5	
723.74	8883.4	
723.92	9305.3	
724.1	10513	
724.29	8209.6	
724.47	9301.2	
724.65	9353.1	
724.83	9247.9	
725.01	8036.9	
725.19	8892.3	
725.37	9308.7	
725.56	9416.6	
725.74	7861.5	
725.92	8213	
726.1	9206.3	
726.28	9503.3	
726.46	8564.6	
726.64	8202.1	
726.83	9450.7	
727.01	9663.7	
727.19	7888.8	
727.37	8691.6	
727.55	9587.2	
727.73	10139	
727.91	7758.4	
728.09	7683.3	
728.28	10178	
728.46	10664	
728.64	8860.2	
728.82	8949.6	
729	11319	
729.18	10667	
729.36	8187.8	
729.54	10411	
729.72	11748	
729.91	10140	
730.09	10189	
730.27	9007	
730.45	10008	
730.63	10727	
730.81	9749.7	
730.99	8740	
731.17	11208	
731.35	9913.5	
731.53	9241.1	
731.71	8750.3	
731.9	10902	
732.08	11088	
732.26	9123	
732.44	8652.7	
732.62	11050	
732.8	10649	
732.98	9379	
733.16	8426	
733.34	10501	
733.52	9274.6	
733.7	8820.6	
733.88	9128.5	
734.07	10306	
734.25	10122	
734.43	8322.3	
734.61	9933.3	
734.79	11662	
734.97	9994.8	
735.15	8353	
735.33	8779.6	
735.51	10264	
735.69	9940.8	
735.87	10015	
736.05	8904.6	
736.23	10086	
736.41	9887.6	
736.59	8863.6	
736.77	8840.4	
736.95	10555	
737.13	10075	
737.32	8439.7	
737.5	8739.4	
737.68	11144	
737.86	9856.9	
738.04	8213	
738.22	9922.4	
738.4	9543.5	
738.58	9871.9	
738.76	8841.1	
738.94	7813.7	
739.12	9688.9	
739.3	9665.7	
739.48	9357.9	
739.66	9123	
739.84	9956.5	
740.02	10015	
740.2	7937.9	
740.38	8294.3	
740.56	10287	
740.74	9239.1	
740.92	8944.2	
741.1	8675.2	
741.28	9682.1	
741.46	9477.3	
741.64	8264.2	
741.82	8696.4	
742	9667.1	
742.18	9670.5	
742.36	8452.6	
742.54	8018.5	
742.72	10217	
742.9	8884.1	
743.08	8799.4	
743.26	7586.4	
743.44	10265	
743.62	10122	
743.8	8911.4	
743.98	8007.6	
744.16	9762	
744.34	9479.4	
744.52	8753.7	
744.7	8654	
744.88	9906	
745.06	9309.4	
745.24	8616.5	
745.42	8664.3	
745.6	9871.9	
745.78	9608.4	
745.96	7319.4	
746.14	7759.8	
746.32	10482	
746.5	9763.3	
746.68	8271.1	
746.86	7661.5	
747.03	10096	
747.21	8428.8	
747.39	8172.8	
747.57	7615	
747.75	9312.1	
747.93	9688.9	
748.11	7507.9	
748.29	7597.3	
748.47	10864	
748.65	8983.8	
748.83	8348.9	
749.01	7894.2	
749.19	9433.6	
749.37	8643.1	
749.55	7898.3	
749.73	7986.4	
749.91	9119.6	
750.09	8775.5	
750.26	8059.4	
750.44	7416.4	
750.62	9129.2	
750.8	9031.5	
750.98	7238.2	
751.16	7482.6	
751.34	9087.5	
751.52	8510.7	
751.7	8380.3	
751.88	7169.3	
752.06	9549.7	
752.24	9388.6	
752.42	7128.3	
752.59	7447.1	
752.77	8911.4	
752.95	10191	
753.13	8121.6	
753.31	7616.4	
753.49	8621.9	
753.67	9095	
753.85	7779.6	
754.03	7299	
754.21	9222.7	
754.38	9564	
754.56	7296.9	
754.74	6327.5	
754.92	8252.6	
755.1	8887.5	
755.28	6189	
755.46	5923.4	
755.64	9048.6	
755.82	8830.8	
755.99	5489.2	
756.17	5454.4	
756.35	5894.1	
756.53	7346.7	
756.71	4040	
756.89	4988.9	
757.07	6930.3	
757.25	6134.3	
757.42	5760.3	
757.6	6702.3	
757.78	7418.4	
757.96	6564.4	
758.14	5812.1	
758.32	5299.5	
758.5	6051.7	
758.67	6817	
758.85	5489.2	
759.03	5628.5	
759.21	6976.7	
759.39	6368.5	
759.57	5113.1	
759.75	6180.1	
759.92	7661.5	
760.1	6928.3	
760.28	6636.1	
760.46	6978.1	
760.64	6864.8	
760.82	6666.1	
760.99	6741.2	
761.17	5941.2	
761.35	7875.8	
761.53	6830.7	
761.71	6113.9	
761.89	6866.8	
762.06	7847.1	
762.24	7399.3	
762.42	6294.8	
762.6	6070.9	
762.78	7333.1	
762.96	8118.8	
763.13	6838.9	
763.31	6482.5	
763.49	8336.6	
763.67	7418.4	
763.85	7341.3	
764.02	7817.8	
764.2	8527.1	
764.38	7770	
764.56	6337.1	
764.74	7130.3	
764.91	8657.4	
765.09	7557	
765.27	5964.4	
765.45	5715.2	
765.63	8636.3	
765.8	8475.9	
765.98	5409.4	
766.16	5816.9	
766.34	6963.8	
766.52	6728.9	
766.69	6704.4	
766.87	5554.8	
767.05	7423.2	
767.23	8037.6	
767.41	5840.1	
767.58	5977.3	
767.76	7761.1	
767.94	7950.9	
768.12	5856.5	
768.29	6540.5	
768.47	7257.3	
768.65	8004.1	
768.83	5375.2	
769	6533	
769.18	6731.7	
769.36	7503.8	
769.54	6461.3	
769.72	5353.4	
769.89	7656	
770.07	7788.4	
770.25	5636	
770.43	6889.4	
770.6	8351.6	
770.78	8802.2	
770.96	5728.2	
771.14	6243.6	
771.31	7448.5	
771.49	6808.1	
771.67	4826.4	
771.85	5100.1	
772.02	6070.9	
772.2	6725.5	
772.38	5821	
772.55	5242.1	
772.73	7019.1	
772.91	6766.5	
773.09	5587.5	
773.26	5651.7	
773.44	6882.5	
773.62	6498.2	
773.8	5089.2	
773.97	4788.8	
774.15	6847.7	
774.33	6524.8	
774.5	4914.4	
774.68	5257.1	
774.86	7033.4	
775.04	6424.5	
775.21	4967	
775.39	4869.4	
775.57	6686.6	
775.74	7041.6	
775.92	4719.9	
776.1	4579.9	
776.27	6587.6	
776.45	7793.2	
776.63	4847.5	
776.81	4393.6	
776.98	6204	
777.16	7240.3	
777.34	4921.3	
777.51	5153.4	
777.69	6202.6	
777.87	5945.9	
778.04	4863.9	
778.22	5489.9	
778.4	5928.2	
778.57	6562.4	
778.75	4156	
778.93	4469.4	
779.1	5687.9	
779.28	5565	
779.46	4102.8	
779.64	4604.5	
779.81	6630.6	
779.99	7454.6	
780.17	5322	
780.34	5525.4	
780.52	6047	
780.69	6274.3	
780.87	4882.4	
781.05	4407.9	
781.22	6127.5	
781.4	6178	
781.58	4502.8	
781.75	3700	
781.93	6094.8	
782.11	5575.3	
782.28	5414.1	
782.46	4435.2	
782.64	5292	
782.81	6232	
782.99	4502.8	
783.17	4455.7	
783.34	6009.4	
783.52	5352.7	
783.69	4654.4	
783.87	5407.3	
784.05	5322.7	
784.22	5374.6	
784.4	5409.4	
784.58	4674.1	
784.75	6320.7	
784.93	5396.4	
785.1	4360.8	
785.28	5030.5	
785.46	6061.3	
785.63	5281	
785.81	4283.7	
785.99	4141.7	
786.16	5511.8	
786.34	5889.3	
786.51	4189.5	
786.69	4552	
786.87	5045.5	
787.04	5550	
787.22	4009.2	
787.39	4920.6	
787.57	5280.3	
787.75	6350.1	
787.92	5156.8	
788.1	5056.4	
788.27	5304.9	
788.45	4982	
788.63	4722.6	
788.8	3465.8	
788.98	5765.7	
789.15	4958.8	
789.33	3669.3	
789.5	4338.3	
789.68	6167.1	
789.86	6252.4	
790.03	4681.7	
790.21	4089.1	
790.38	6103.6	
790.56	5348.6	
790.73	3909.6	
790.91	3930.1	
791.09	5214.8	
791.26	5943.2	
791.44	4179.2	
791.61	3644.7	
791.79	5166.3	
791.96	5294.7	
792.14	3700.7	
792.32	3293.1	
792.49	5198.4	
792.67	5259.9	
792.84	3833.1	
793.02	3593.5	
793.19	5580.7	
793.37	6354.8	
793.54	3332.7	
793.72	3643.3	
793.89	6419.7	
794.07	5138.4	
794.25	4283.7	
794.42	3361.4	
794.6	6128.2	
794.77	5819.6	
794.95	4485.7	
795.12	3969.6	
795.3	5145.2	
795.47	5739.1	
795.65	4304.8	
795.82	4107.5	
796	4943.8	
796.17	6849.8	
796.35	4084.3	
796.52	4791.6	
796.7	5610.1	
796.87	5756.2	
797.05	4924.7	
797.22	4846.9	
797.4	5685.2	
797.57	6624.5	
797.75	4104.1	
797.92	3922.5	
798.1	5948.7	
798.27	5039.4	
798.45	3347.1	
798.62	3583.9	
798.8	5411.4	
798.97	5840.1	
799.15	4398.4	
799.32	4124.6	
799.5	4696.7	
799.67	5427.8	
799.85	4489.8	
800.02	3257.6	
800.2	5029.1	
800.37	5434.6	
800.55	4579.9	
800.72	3921.9	
800.9	5838.8	
801.07	6279.8	
801.25	5144.5	
801.42	4280.3	
801.6	5890	
801.77	5569.8	
801.95	3973.1	
802.12	3762.1	
802.29	5566.4	
802.47	5546.6	
802.64	4191.5	
802.82	3201	
802.99	5072.8	
803.17	5968.5	
803.34	4110.3	
803.52	3683.6	
803.69	6611.5	
803.87	4807.3	
804.04	4040	
804.21	4193.6	
804.39	6077.7	
804.56	5203.2	
804.74	3490.4	
804.91	4231.8	
805.09	5026.4	
805.26	5169.8	
805.44	3504.1	
805.61	3839.9	
805.78	5717.2	
805.96	5748	
806.13	4226.3	
806.31	4516.5	
806.48	4613.4	
806.66	5102.2	
806.83	4150.5	
807	4140.3	
807.18	4967.7	
807.35	5324	
807.53	4019.5	
807.7	3300	
807.87	6146	
808.05	5046.9	
808.22	4479.6	
808.4	3269.9	
808.57	5043.5	
808.74	4681.7	
808.92	3743	
809.09	4696.7	
809.27	4882.4	
809.44	5533.6	
809.61	3250.8	
809.79	3660.4	
809.96	6131.6	
810.14	5710.4	
810.31	3192.1	
810.48	3916.4	
810.66	5098.8	
810.83	5894.7	
811.01	3743	
811.18	4139.6	
811.35	5750	
811.53	4471.4	
811.7	4456.4	
811.87	4148.5	
812.05	5025	
812.22	4965.6	
812.39	3629	
812.57	3485	
812.74	5042.8	
812.92	6651.8	
813.09	3898.6	
813.26	4311	
813.44	6411.5	
813.61	4930.1	
813.78	3274.7	
813.96	4367	
814.13	5047.6	
814.3	4744.5	
814.48	4700.1	
814.65	3912.3	
814.82	6240.2	
815	4721.3	
815.17	3988.8	
815.34	4872.8	
815.52	4921.3	
815.69	4950.6	
815.87	3984.7	
816.04	3406.5	
816.21	5047.6	
816.38	4445.5	
816.56	3827	
816.73	3581.9	
816.9	6246.3	
817.08	5816.2	
817.25	3621.5	
817.42	4562.9	
817.6	4584.7	
817.77	5045.5	
817.94	4120.5	
818.12	3582.6	
818.29	4805.2	
818.46	7403.4	
818.64	3777.1	
818.81	3493.8	
818.98	4693.9	
819.16	6787	
819.33	4280.9	
819.5	4032.5	
819.67	5424.4	
819.85	6038.8	
820.02	3934.8	
820.19	4237.9	
820.37	5197.7	
820.54	4855.1	
820.71	4098	
820.88	5003.9	
821.06	5294	
821.23	4806.6	
821.4	4098.7	
821.58	3981.9	
821.75	5722.7	
821.92	5129.5	
822.09	3220.1	
822.27	3525.9	
822.44	5027.8	
822.61	4895.3	
822.79	3305.4	
822.96	6253.8	
823.13	5516.5	
823.3	4722.6	
823.48	3777.1	
823.65	3403	
823.82	5664.7	
823.99	4570.4	
824.17	4801.1	
824.34	3497.9	
824.51	6617.7	
824.68	5125.4	
824.86	3616.7	
825.03	4072.7	
825.2	5035.3	
825.37	6113.9	
825.55	3574.4	
825.72	3997.6	
825.89	6636.1	
826.06	6123.4	
826.24	3887.7	
826.41	3917.8	
826.58	6057.2	
826.75	5301.5	
826.92	3107.5	
827.1	3448.1	
827.27	8197.3	
827.44	6629.3	
827.61	3644.7	
827.79	4515.1	
827.96	4788.2	
828.13	5171.1	
828.3	3889.1	
828.47	3244	
828.65	5247.6	
828.82	5156.8	
828.99	4943.1	
829.16	4379.2	
829.34	5616.2	
829.51	5385.5	
829.68	3998.3	
829.85	4167.6	
830.02	5905.7	
830.2	5586.9	
830.37	3108.1	
830.54	4791.6	
830.71	6397.2	
830.88	5012.1	
831.05	3158.7	
831.23	3590.8	
831.4	6107.7	
831.57	6819.1	
831.74	3703.4	
831.91	3273.3	
832.09	5251.7	
832.26	5592.3	
832.43	3822.2	
832.6	4345.1	
832.77	5252.4	
832.94	6020.3	
833.12	3130.7	
833.29	3762.1	
833.46	5241.4	
833.63	7065.5	
833.8	4130.1	
833.97	3839.9	
834.15	5626.5	
834.32	5429.2	
834.49	3979.2	
834.66	4045.4	
834.83	5854.5	
835	4794.3	
835.17	3649.5	
835.35	3703.4	
835.52	5530.9	
835.69	5415.5	
835.86	3921.2	
836.03	3276.8	
836.2	5576.6	
836.37	5239.4	
836.55	3833.8	
836.72	3628.3	
836.89	5125.4	
837.06	5693.4	
837.23	3903.4	
837.4	4221.5	
837.57	6422.4	
837.75	7093.5	
837.92	3551.9	
838.09	3731.4	
838.26	5178.6	
838.43	5859.2	
838.6	4034.5	
838.77	3604.4	
838.94	6677.1	
839.11	6388.3	
839.29	3831.1	
839.46	3048.7	
839.63	5598.5	
839.8	5357.5	
839.97	3713.7	
840.14	3728	
840.31	5388.9	
840.48	5620.3	
840.65	3084.2	
840.82	3729.4	
841	5602.6	
841.17	5535	
841.34	3471.3	
841.51	3491.8	
841.68	5502.9	
841.85	5281.7	
842.02	3550.5	
842.19	2948.4	
842.36	5352	
842.53	5298.8	
842.7	3422.2	
842.87	4218.8	
843.05	6950.8	
843.22	5288.5	
843.39	3235.8	
843.56	3535.5	
843.73	5063.9	
843.9	5727.5	
844.07	5533.6	
844.24	4616.1	
844.41	8162.5	
844.58	4868.7	
844.75	3247.4	
844.92	3553.9	
845.09	5614.2	
845.26	5554.1	
845.43	3362.1	
845.6	3635.8	
845.77	5535.7	
845.94	5287.9	
846.12	3799	
846.29	3935.5	
846.46	5741.1	
846.63	5578	
846.8	3375.1	
846.97	4055	
847.14	6042.9	
847.31	5504.3	
847.48	3824.2	
847.65	4233.8	
847.82	5806.7	
847.99	5799.8	
848.16	4551.3	
848.33	4137.6	
848.5	5188.9	
848.67	5960.3	
848.84	3371	
849.01	3521.1	
849.18	5033.2	
849.35	4713.7	
849.52	4265.9	
849.69	3309.5	
849.86	5756.8	
850.03	5977.3	
850.2	3401	
850.37	4121.2	
850.54	5892.7	
850.71	5227.1	
850.88	4059.8	
851.05	3277.4	
851.22	5515.9	
851.39	6157.6	
851.56	3244	
851.73	3861.1	
851.9	4833.2	
852.07	5756.8	
852.24	3768.3	
852.41	3411.2	
852.58	5386.8	
852.75	4982.7	
852.92	3820.1	
853.09	3332	
853.26	5195	
853.43	5981.4	
853.6	3413.3	
853.77	2921.8	
853.94	6065.4	
854.11	4907.6	
854.28	4992.9	
854.44	3635.1	
854.61	6539.8	
854.78	5877.7	
854.95	3323.2	
855.12	4205.8	
855.29	4534.9	
855.46	6243.6	
855.63	3338.2	
855.8	4694.6	
855.97	5110.4	
856.14	5891.3	
856.31	4735.6	
856.48	3695.2	
856.65	5130.8	
856.82	4874.2	
856.99	3259.7	
857.16	3713.7	
857.33	6705	
857.49	5201.8	
857.66	3603.1	
857.83	3917.8	
858	5181.4	
858.17	5413.5	
858.34	3223.5	
858.51	3387.3	
858.68	6204.7	
858.85	6240.2	
859.02	3915	
859.19	4115.1	
859.36	4852.3	
859.52	4922.6	
859.69	3396.2	
859.86	3941	
860.03	4949.9	
860.2	6074.3	
860.37	3106.8	
860.54	3431	
860.71	5761.6	
860.88	6132.3	
861.05	3744.4	
861.21	4300.1	
861.38	6167.1	
861.55	4759.5	
861.72	3108.8	
861.89	3759.4	
862.06	5810.8	
862.23	6339.1	
862.4	3280.2	
862.56	3487	
862.73	5666.7	
862.9	5356.1	
863.07	3964.2	
863.24	3107.5	
863.41	4800.4	
863.58	4857.1	
863.75	3435.1	
863.91	3872	
864.08	6120.7	
864.25	5689.9	
864.42	4266.6	
864.59	4667.3	
864.76	6411.5	
864.93	4918.5	
865.09	3312.2	
865.26	3577.8	
865.43	6066.8	
865.6	6440.9	
865.77	2938.8	
865.94	3327.9	
866.1	6097.5	
866.27	5834	
866.44	5097.4	
866.61	3178.4	
866.78	5243.5	
866.95	5687.9	
867.11	3282.2	
867.28	3017.3	
867.45	5900.9	
867.62	5000.5	
867.79	3876.8	
867.96	3349.8	
868.12	4848.2	
868.29	5853.1	
868.46	2893.8	
868.63	4528.7	
868.8	5948	
868.97	5791.7	
869.13	3562.1	
869.3	3502.7	
869.47	5642.2	
869.64	5816.9	
869.81	3358	
869.97	3364.1	
870.14	5562.3	
870.31	6269.5	
870.48	3284.9	
870.65	4237.2	
870.81	5219.6	
870.98	5191.6	
871.15	3875.4	
871.32	3488.4	
871.48	5653.8	
871.65	6225.1	
871.82	3371.6	
871.99	3728.7	
872.16	6645.7	
872.32	6051.7	
872.49	3409.2	
872.66	3377.1	
872.83	5697.4	
872.99	5050.3	
873.16	3885	
873.33	3339.6	
873.5	5362.3	
873.67	5426.4	
873.83	3538.2	
874	4549.2	
874.17	5541.8	
874.34	6517.3	
874.5	4373.8	
874.67	4192.9	
874.84	6175.3	
875.01	4820.9	
875.17	4752	
875.34	3411.2	
875.51	5466.7	
875.68	6524.8	
875.84	4067.3	
876.01	4940.4	
876.18	5736.4	
876.34	5664.7	
876.51	3381.2	
876.68	3302	
876.85	5188.2	
877.01	6012.8	
877.18	4872.1	
877.35	3316.3	
877.52	5415.5	
877.68	4796.3	
877.85	3303.4	
878.02	3307.5	
878.18	5300.1	
878.35	5074.2	
878.52	2712.9	
878.69	3732.8	
878.85	5812.1	
879.02	5654.4	
879.19	4760.8	
879.35	3596.9	
879.52	5717.2	
879.69	5879.7	
879.86	2895.1	
880.02	3801.7	
880.19	5294.7	
880.36	6510.5	
880.52	3878.2	
880.69	3956.7	
880.86	5833.3	
881.02	5853.8	
881.19	3711.6	
881.36	3718.4	
881.52	5641.5	
881.69	5059.8	
881.86	3678.2	
882.02	3583.9	
882.19	6014.9	
882.36	6924.9	
882.52	3430.3	
882.69	4740.4	
882.86	5517.2	
883.02	5414.1	
883.19	4115.7	
883.36	3869.3	
883.52	5852.4	
883.69	6596.5	
883.86	3412.6	
884.02	3047.4	
884.19	5786.2	
884.36	5328.8	
884.52	3745.7	
884.69	3587.4	
884.86	5079	
885.02	6355.5	
885.19	3709.6	
885.36	3898.6	
885.52	5356.8	
885.69	5546.6	
885.86	4875.5	
886.02	4319.2	
886.19	5776	
886.35	5277.6	
886.52	3718.4	
886.69	4710.3	
886.85	4949.3	
887.02	6066.8	
887.19	6066.8	
887.35	6066.8	
887.52	6066.8	
887.68	6066.8	
887.85	6066.8	
888.02	6066.8	
888.18	6066.8	
888.35	6066.8	
888.51	6066.8	
888.68	6066.8	
888.85	6066.8	
889.01	6066.8	
889.18	6066.8	
889.35	6066.8	
889.51	6066.8	
889.68	6066.8	
889.84	6066.8	
890.01	6066.8	
890.17	6066.8	
890.34	6066.8	
890.51	6066.8	
890.67	6066.8	
890.84	6066.8	
891	6066.8	
891.17	6066.8	
891.34	6066.8	
891.5	6066.8	
891.67	6066.8	
891.83	6066.8	
892	6066.8	
892.16	6066.8	
892.33	6066.8	
892.5	6066.8	
892.66	6066.8	
892.83	6066.8	
892.99	6066.8	
893.16	6066.8	
893.32	6066.8	
893.49	6066.8	
893.65	6066.8	
893.82	6066.8	
893.99	6066.8	
894.15	6066.8	
894.32	6066.8	
894.48	6066.8	
894.65	6066.8	
894.81	6066.8	
894.98	6066.8	
895.14	6066.8	
895.31	6066.8	
895.47	6066.8	
895.64	6066.8	
895.81	6066.8	
895.97	6066.8	
896.14	6066.8	
896.3	6066.8	
896.47	6066.8	
896.63	6066.8	
896.8	6066.8	
896.96	6066.8	
897.13	6066.8	
897.29	6066.8	
897.46	6066.8	
897.62	6066.8	
897.79	6066.8	
897.95	6066.8	
898.12	6066.8	
898.28	6066.8	
898.45	6066.8	
898.61	6066.8	
898.78	6066.8	
898.94	6066.8	
899.11	6066.8	
899.27	6066.8	
899.44	6066.8	
899.6	6066.8	
899.77	6066.8	
899.93	6066.8	
900.1	6066.8	
900.26	6066.8	
900.43	6066.8	
900.59	6066.8	
900.76	6066.8	
900.92	6066.8	
901.09	6066.8	
901.25	6066.8	
901.42	6066.8	
901.58	6066.8	
901.75	6066.8	
901.91	6066.8	
902.07	6066.8	
902.24	6066.8	
902.4	6066.8	
902.57	6066.8	
902.73	6066.8	
902.9	6066.8	
903.06	6066.8	
903.23	6066.8	
903.39	6066.8	
903.56	6066.8	
903.72	6066.8	
903.88	6066.8	
904.05	6066.8	
904.21	6066.8	
904.38	6066.8	
904.54	6066.8	
904.71	6066.8	
904.87	6066.8	
905.03	6066.8	
905.2	6066.8	
905.36	6066.8	
905.53	6066.8	
905.69	6066.8	
905.86	6066.8	
906.02	6066.8	
906.18	6066.8	
906.35	6066.8	
906.51	6066.8	
906.68	6066.8	
906.84	6066.8	
907.01	6066.8	
907.17	6066.8	
907.33	6066.8	
907.5	6066.8	
907.66	6066.8	
907.83	6066.8	
907.99	6066.8	
908.15	6066.8	
908.32	6066.8	
908.48	6066.8	
908.65	6066.8	
908.81	6066.8	
908.97	6066.8	
909.14	6066.8	
909.3	6066.8	
909.47	6066.8	
909.63	6066.8	
909.79	6066.8	
909.96	6066.8	
910.12	6066.8	
910.28	6066.8	
910.45	6066.8	
910.61	6066.8	
910.78	6066.8	
910.94	6066.8	
911.1	6066.8	
911.27	6066.8	
911.43	6066.8	
911.59	6066.8	
911.76	6066.8	
911.92	6066.8	
912.08	6066.8	
912.25	6066.8	
912.41	6066.8	
912.57	6066.8	
912.74	6066.8	
912.9	6066.8	
913.07	6066.8	
913.23	6066.8	
913.39	6066.8	
913.56	6066.8	
913.72	6066.8	
913.88	6066.8	
914.05	6066.8	
914.21	6066.8	
914.37	6066.8	
914.54	6066.8	
914.7	6066.8	
914.86	6066.8	
915.03	6066.8	
915.19	6066.8	
