Wavelength	Intensities	
nm	a.u.	
179.22	1942.8	
179.44	1938.1	
179.65	1947.6	
179.86	1928.5	
180.08	1944.2	
180.29	5049.6	
180.51	3558.7	
180.72	5825.8	
180.94	6824.5	
181.15	3306.1	
181.37	3243.3	
181.58	5596.4	
181.79	5949.3	
182.01	3394.2	
182.22	3725.3	
182.44	5859.9	
182.65	4894	
182.87	4729.4	
183.08	4130.8	
183.29	6180.8	
183.51	5079.6	
183.72	3713	
183.94	5580.7	
184.15	5520.6	
184.37	5536.3	
184.58	3264.5	
184.79	4468	
185.01	5063.9	
185.22	5855.1	
185.44	4797.7	
185.65	3991.5	
185.86	5365	
186.08	4975.2	
186.29	3198.9	
186.51	3441.3	
186.72	5105.6	
186.94	6051.1	
187.15	3932.1	
187.36	4095.9	
187.58	7936.6	
187.79	5618.3	
188.01	4402.5	
188.22	6714.6	
188.43	6787.7	
188.65	5855.1	
188.86	3438.5	
189.08	4183.3	
189.29	5330.2	
189.5	5384.1	
189.72	3840.6	
189.93	3930.1	
190.15	6130.9	
190.36	7351.5	
190.57	4208.6	
190.79	4047.5	
191	6184.9	
191.22	6112.5	
191.43	4214.7	
191.64	3377.8	
191.86	6402.6	
192.07	6109.8	
192.29	3603.7	
192.5	3867.9	
192.71	6109.1	
192.93	5212.1	
193.14	3777.1	
193.35	3900.7	
193.57	5297.4	
193.78	6111.1	
194	3045.3	
194.21	3762.8	
194.42	5042.1	
194.64	5549.3	
194.85	4102.1	
195.07	4883	
195.28	5586.9	
195.49	4792.9	
195.71	5123.3	
195.92	3514.3	
196.13	5722.7	
196.35	5814.2	
196.56	5530.2	
196.78	4093.2	
196.99	7191.8	
197.2	6703	
197.42	4726.7	
197.63	4201.1	
197.84	4915.1	
198.06	5740.5	
198.27	3794.2	
198.48	5205.3	
198.7	5253.7	
198.91	5429.2	
199.13	4123.9	
199.34	4201.7	
199.55	5933	
199.77	4812	
199.98	3659.7	
200.19	4210.6	
200.41	5311.7	
200.62	5122.7	
200.83	4346.5	
201.05	4686.4	
201.26	5388.2	
201.47	5130.8	
201.69	3691.8	
201.9	3530.7	
202.11	5416.9	
202.33	6571.2	
202.54	3965.6	
202.76	4366.3	
202.97	5655.1	
203.18	5630.5	
203.4	4399	
203.61	4199.7	
203.82	5614.2	
204.04	5145.2	
204.25	4231.1	
204.46	4144.4	
204.68	5547.3	
204.89	5757.5	
205.1	4054.3	
205.32	3489.7	
205.53	5905.7	
205.74	6085.9	
205.96	2984.6	
206.17	4249.5	
206.38	5944.6	
206.6	6058.6	
206.81	4771.8	
207.02	3908.9	
207.24	5754.8	
207.45	6244.9	
207.66	3984	
207.88	3385.3	
208.09	5715.2	
208.3	5526.1	
208.52	3620.8	
208.73	3972.4	
208.94	5498.8	
209.15	6236.1	
209.37	3903.4	
209.58	4138.9	
209.79	6077.7	
210.01	5304.2	
210.22	3165.5	
210.43	3414	
210.65	5555.5	
210.86	5944.6	
211.07	3979.2	
211.29	3587.4	
211.5	5867.4	
211.71	5417.6	
211.93	3610.6	
212.14	3663.8	
212.35	5414.1	
212.56	5743.9	
212.78	4212.7	
212.99	3461.1	
213.2	6507.1	
213.42	5224.4	
213.63	3738.9	
213.84	4050.2	
214.06	4909.7	
214.27	4931.5	
214.48	3946.4	
214.69	4216.8	
214.91	6141.9	
215.12	6309.8	
215.33	4315.8	
215.55	4743.1	
215.76	6868.2	
215.97	5887.2	
216.18	4047.5	
216.4	4024.9	
216.61	5152	
216.82	6014.2	
217.04	3646.1	
217.25	3855	
217.46	6191	
217.67	5897.5	
217.89	3253.5	
218.1	3374.4	
218.31	5591.6	
218.53	5681.1	
218.74	3846.1	
218.95	3759.4	
219.16	5410.7	
219.38	6460.7	
219.59	3758	
219.8	4453	
220.01	7202.7	
220.23	5530.2	
220.44	4896	
220.65	3622.9	
220.87	5576.6	
221.08	6132.3	
221.29	3368.9	
221.5	4605.9	
221.72	7631.4	
221.93	5242.8	
222.14	4207.9	
222.35	4964.3	
222.57	5616.2	
222.78	5863.3	
222.99	3977.2	
223.2	4375.1	
223.42	5832.6	
223.63	5989.6	
223.84	3043.3	
224.05	3012.6	
224.27	7074.4	
224.48	6554.2	
224.69	4935.6	
224.9	4237.2	
225.12	5694.7	
225.33	5469.4	
225.54	3332	
225.75	3752.6	
225.97	5027.8	
226.18	5328.8	
226.39	3974.4	
226.6	3711.6	
226.82	5293.3	
227.03	5130.8	
227.24	4128.7	
227.45	3472.7	
227.67	5886.5	
227.88	6519.4	
228.09	4738.3	
228.3	4710.3	
228.52	5926.1	
228.73	5481.7	
228.94	3926.6	
229.15	3433.1	
229.36	5340.4	
229.58	5354.8	
229.79	3913	
230	4567	
230.21	6595.8	
230.43	5575.3	
230.64	4135.5	
230.85	4354	
231.06	5891.3	
231.28	5929.6	
231.49	3464.5	
231.7	4024.9	
231.91	5860.6	
232.12	5546.6	
232.34	3496.6	
232.55	4104.8	
232.76	6120	
232.97	5724.8	
233.18	3654.3	
233.4	4111	
233.61	5736.4	
233.82	5229.8	
234.03	3866.6	
234.25	3771.7	
234.46	7762.5	
234.67	5547.3	
234.88	4294.6	
235.09	3667.2	
235.31	5851.7	
235.52	5374.6	
235.73	4156.7	
235.94	3446	
236.15	5190.2	
236.37	6729.6	
236.58	3677.5	
236.79	4010.6	
237	5821.7	
237.21	5035.3	
237.43	4265.9	
237.64	3386	
237.85	10150	
238.06	5049.6	
238.27	4412	
238.48	3442.6	
238.7	5894.1	
238.91	5385.5	
239.12	3946.4	
239.33	4044.7	
239.54	5107.6	
239.76	5487.2	
239.97	3976.5	
240.18	3955.3	
240.39	6899.6	
240.6	5808.7	
240.82	4148.5	
241.03	3337.5	
241.24	5474.9	
241.45	6430.6	
241.66	3621.5	
241.87	4321.9	
242.09	6251.1	
242.3	6703	
242.51	4304.1	
242.72	3994.9	
242.93	5997.1	
243.14	5474.2	
243.36	4648.2	
243.57	5016.8	
243.78	6434	
243.99	5788.2	
244.2	4025.6	
244.41	3664.5	
244.63	5044.8	
244.84	5872.9	
245.05	4252.3	
245.26	4072	
245.47	5815.5	
245.68	6148	
245.9	5396.4	
246.11	4166.9	
246.32	5366.4	
246.53	5839.4	
246.74	6497.5	
246.95	3315	
247.16	4974.5	
247.38	5505.6	
247.59	3364.8	
247.8	4010.6	
248.01	5214.1	
248.22	5408.7	
248.43	3644	
248.64	3887	
248.86	4858.5	
249.07	5276.9	
249.28	3546.4	
249.49	4052.9	
249.7	6085.9	
249.91	6267.5	
250.12	3349.1	
250.34	3350.5	
250.55	5667.4	
250.76	5528.2	
250.97	4151.9	
251.18	4221.5	
251.39	6236.1	
251.6	5749.3	
251.81	4291.9	
252.03	4237.2	
252.24	5251	
252.45	6105.7	
252.66	3438.5	
252.87	4514.4	
253.08	5517.9	
253.29	7372	
253.5	3508.2	
253.72	4910.3	
253.93	5356.8	
254.14	6633.4	
254.35	3795.6	
254.56	3887.7	
254.77	5818.3	
254.98	5074.9	
255.19	3735.5	
255.41	4880.3	
255.62	5596.4	
255.83	6204	
256.04	4296	
256.25	4274.8	
256.46	6614.9	
256.67	5169.8	
256.88	4087.7	
257.09	4674.8	
257.31	5225.1	
257.52	5180.7	
257.73	5207.3	
257.94	3808.5	
258.15	5395.7	
258.36	5472.9	
258.57	4861.2	
258.78	3063.8	
258.99	5942.5	
259.2	5376.6	
259.41	3839.9	
259.63	3951.9	
259.84	6403.3	
260.05	6839.5	
260.26	5026.4	
260.47	3686.3	
260.68	6196.5	
260.89	5487.2	
261.1	4676.2	
261.31	3575.8	
261.52	6176	
261.73	6483.2	
261.95	4952.7	
262.16	4362.9	
262.37	6280.4	
262.58	6388.3	
262.79	4960.9	
263	3903.4	
263.21	5567.1	
263.42	5055.8	
263.63	3950.5	
263.84	3845.4	
264.05	6128.9	
264.26	6498.9	
264.47	4771.8	
264.69	4164.9	
264.9	6216.3	
265.11	5796.4	
265.32	3654.9	
265.53	3790.8	
265.74	5672.9	
265.95	4939.7	
266.16	4070	
266.37	4524	
266.58	5640.1	
266.79	5325.4	
267	3758	
267.21	3451.5	
267.42	5142.4	
267.63	5504.3	
267.84	3969	
268.06	3459.7	
268.27	6010.8	
268.48	6318.7	
268.69	3912.3	
268.9	4653.7	
269.11	6242.9	
269.32	5026.4	
269.53	4024.3	
269.74	3689.8	
269.95	5916.6	
270.16	4879.6	
270.37	4033.8	
270.58	4645.5	
270.79	5347.2	
271	6100.2	
271.21	4263.9	
271.42	4029.7	
271.63	5656.5	
271.84	5167.7	
272.05	3213.9	
272.26	3596.2	
272.47	5587.5	
272.68	5706.3	
272.89	3792.8	
273.11	4491.2	
273.32	5366.4	
273.53	6552.8	
273.74	4394.9	
273.95	4218.8	
274.16	6210.8	
274.37	5598.5	
274.58	4347.2	
274.79	3480.2	
275	5689.3	
275.21	6247.7	
275.42	5346.6	
275.63	4549.9	
275.84	5774.6	
276.05	7347.4	
276.26	4225	
276.47	3957.4	
276.68	5406	
276.89	6539.8	
277.1	4493.9	
277.31	3505.4	
277.52	5816.9	
277.73	5943.2	
277.94	3508.2	
278.15	3864.5	
278.36	5773.2	
278.57	5146.5	
278.78	3859.1	
278.99	4390.2	
279.2	5154.7	
279.41	5041.4	
279.62	5051.7	
279.83	3563.5	
280.04	6843.6	
280.25	5001.1	
280.46	5046.9	
280.67	3975.8	
280.88	5088.5	
281.09	6266.8	
281.3	4276.8	
281.51	5357.5	
281.72	5242.1	
281.93	6154.8	
282.14	3702.7	
282.35	4025.6	
282.56	6040.1	
282.77	6032	
282.98	3893.9	
283.19	4770.4	
283.4	7502.4	
283.61	5461.2	
283.82	3445.4	
284.03	4985.4	
284.24	5619.6	
284.45	6232	
284.66	5027.1	
284.87	4832.5	
285.08	6130.3	
285.29	6322.1	
285.5	3376.4	
285.71	3911.6	
285.92	6197.8	
286.12	6867.5	
286.33	4975.9	
286.54	3874.1	
286.75	6013.5	
286.96	5406.6	
287.17	3551.2	
287.38	4876.2	
287.59	5161.6	
287.8	5051.7	
288.01	3963.5	
288.22	4562.9	
288.43	5656.5	
288.64	5055.1	
288.85	4700.1	
289.06	4410.6	
289.27	5986.9	
289.48	6589	
289.69	4984.8	
289.9	4466.6	
290.11	6195.8	
290.32	5255.8	
290.53	4771.1	
290.74	4392.9	
290.94	5989.6	
291.15	6038.1	
291.36	3794.9	
291.57	4554.7	
291.78	5228.5	
291.99	4970.4	
292.2	3559.4	
292.41	4306.2	
292.62	6153.5	
292.83	5892	
293.04	5464	
293.25	3665.2	
293.46	5319.3	
293.67	6117.3	
293.88	3753.9	
294.09	3626.3	
294.29	5025.7	
294.5	5659.9	
294.71	4027.7	
294.92	3835.2	
295.13	5290.6	
295.34	6642.9	
295.55	3349.8	
295.76	3603.7	
295.97	5991	
296.18	6815.6	
296.39	3546.4	
296.6	3740.3	
296.81	5653.1	
297.01	5913.2	
297.22	3867.9	
297.43	3779.9	
297.64	5180.7	
297.85	5152	
298.06	3075.4	
298.27	3379.1	
298.48	5571.2	
298.69	5221	
298.9	4076.1	
299.11	3680.2	
299.31	5048.9	
299.52	5009.3	
299.73	4379.2	
299.94	4270.7	
300.15	5547.3	
300.36	5102.9	
300.57	4298.7	
300.78	4246.1	
300.99	5410.7	
301.2	5635.3	
301.4	3741.6	
301.61	4104.1	
301.82	5848.3	
302.03	5983.5	
302.24	4630.5	
302.45	3557.3	
302.66	5890	
302.87	6316.6	
303.08	3769.6	
303.29	5164.3	
303.49	5274.2	
303.7	5585.5	
303.91	3294.5	
304.12	4883	
304.33	4986.1	
304.54	5656.5	
304.75	3809.9	
304.96	3561.4	
305.16	5867.4	
305.37	6696.9	
305.58	3222.8	
305.79	3383.2	
306	5898.8	
306.21	4957.4	
306.42	3801.7	
306.63	5836	
306.83	5380	
307.04	6148	
307.25	4192.2	
307.46	4084.3	
307.67	4723.3	
307.88	5993	
308.09	3681.6	
308.29	3878.9	
308.5	5628.5	
308.71	6134.3	
308.92	4061.8	
309.13	3652.2	
309.34	5445.5	
309.55	5457.8	
309.75	4667.3	
309.96	4321.2	
310.17	5975.3	
310.38	5194.3	
310.59	4601.8	
310.8	4246.1	
311.01	5339.1	
311.21	5376.6	
311.42	3597.6	
311.63	3700	
311.84	5278.3	
312.05	5710.4	
312.26	4177.2	
312.46	4576.5	
312.67	5351.3	
312.88	5064.6	
313.09	3610.6	
313.3	3530	
313.51	6333	
313.71	6795.8	
313.92	3586.7	
314.13	3850.2	
314.34	5698.1	
314.55	5336.3	
314.76	4713.7	
314.96	4095.3	
315.17	5642.8	
315.38	5990.3	
315.59	3640.6	
315.8	3448.8	
316.01	6445.6	
316.21	6503	
316.42	3475.4	
316.63	4036.5	
316.84	5385.5	
317.05	6337.1	
317.26	4326	
317.46	3835.2	
317.67	5427.1	
317.88	5993	
318.09	4710.3	
318.3	3388	
318.5	5188.2	
318.71	5867.4	
318.92	5963.7	
319.13	4264.6	
319.34	6085.9	
319.54	6215.6	
319.75	3370.3	
319.96	3198.2	
320.17	5949.3	
320.38	6168.5	
320.58	3292.5	
320.79	3965.6	
321	6180.8	
321.21	6303	
321.42	4040	
321.62	3332.7	
321.83	5089.2	
322.04	5510.4	
322.25	3795.6	
322.46	3654.3	
322.66	5616.9	
322.87	5772.5	
323.08	4526.7	
323.29	3553.2	
323.5	6717.3	
323.7	5021.6	
323.91	4960.2	
324.12	4505.5	
324.33	5599.1	
324.53	5880.4	
324.74	4313.7	
324.95	4493.2	
325.16	4911	
325.37	5326.8	
325.57	3648.8	
325.78	3699.3	
325.99	5624.4	
326.2	5010	
326.4	5364.3	
326.61	3364.8	
326.82	5470.8	
327.03	5616.9	
327.24	5198.4	
327.44	4962.9	
327.65	5840.8	
327.86	4693.3	
328.07	4344.4	
328.27	3504.1	
328.48	6251.8	
328.69	5097.4	
328.9	5371.1	
329.1	3959.4	
329.31	5421	
329.52	6374	
329.73	3601	
329.93	4039.3	
330.14	5541.8	
330.35	5738.4	
330.56	6035.4	
330.76	4496	
330.97	5362.3	
331.18	5752.1	
331.39	4058.4	
331.59	3296.5	
331.8	6184.9	
332.01	6305.7	
332.22	3790.8	
332.42	4276.8	
332.63	5674.9	
332.84	5212.1	
333.05	4047.5	
333.25	3655.6	
333.46	5336.3	
333.67	5546.6	
333.88	3783.3	
334.08	4250.2	
334.29	7532.4	
334.5	6236.1	
334.7	3513.6	
334.91	5292	
335.12	5066	
335.33	6036	
335.53	4021.5	
335.74	6018.3	
335.95	5276.3	
336.16	5141.8	
336.36	4099.4	
336.57	4678.9	
336.78	5057.8	
336.98	6161.7	
337.19	5065.3	
337.4	3969.6	
337.61	6680.5	
337.81	5076.2	
338.02	3710.2	
338.23	4838.7	
338.43	6376	
338.64	5141.8	
338.85	3685.7	
339.05	4816.1	
339.26	6434.7	
339.47	4969.7	
339.68	3646.7	
339.88	5516.5	
340.09	5778.7	
340.3	6067.4	
340.5	4256.4	
340.71	3234.4	
340.92	4962.2	
341.13	6343.9	
341.33	3536.8	
341.54	4319.8	
341.75	5797.8	
341.95	5425.8	
342.16	4108.2	
342.37	4495.3	
342.57	5116.5	
342.78	5496.7	
342.99	4584.7	
343.19	3237.8	
343.4	6006	
343.61	5831.9	
343.81	3919.1	
344.02	3583.9	
344.23	5967.1	
344.43	6383.5	
344.64	4500.8	
344.85	4442	
345.06	5840.8	
345.26	6221	
345.47	4203.1	
345.68	5031.2	
345.88	4830.5	
346.09	6104.3	
346.3	4278.9	
346.5	3190.1	
346.71	5539.8	
346.92	5259.2	
347.12	3309.5	
347.33	4268.6	
347.54	6087.9	
347.74	6565.8	
347.95	4158.1	
348.16	3074	
348.36	5371.1	
348.57	5053.7	
348.78	4173.1	
348.98	4543.8	
349.19	5521.3	
349.39	5020.9	
349.6	3308.2	
349.81	3678.8	
350.01	5707.7	
350.22	5220.3	
350.43	4016.1	
350.63	4941.1	
350.84	5555.5	
351.05	5315.8	
351.25	3722.5	
351.46	3269.2	
351.67	6177.4	
351.87	5222.3	
352.08	3927.3	
352.29	4403.8	
352.49	6010.1	
352.7	5699.5	
352.9	3534.8	
353.11	4462.5	
353.32	6670.9	
353.52	5273.5	
353.73	3478.1	
353.94	4530.1	
354.14	5817.6	
354.35	5696.8	
354.55	3553.9	
354.76	3965.6	
354.97	5771.9	
355.17	5620.3	
355.38	3357.3	
355.59	4734.9	
355.79	5184.1	
356	5593.7	
356.2	3977.8	
356.41	3465.2	
356.62	4861.9	
356.82	5422.3	
357.03	4272.7	
357.24	3848.1	
357.44	5156.1	
357.65	5294	
357.85	5147.9	
358.06	3999.7	
358.27	4872.1	
358.47	5137	
358.68	3325.2	
358.88	4233.8	
359.09	5707	
359.3	6161	
359.5	4992.9	
359.71	4354	
359.91	6609.5	
360.12	5946.6	
360.33	4199.7	
360.53	4711.7	
360.74	5137	
360.94	5175.2	
361.15	4426.3	
361.36	3573	
361.56	6012.8	
361.77	5365	
361.97	4934.2	
362.18	3862.5	
362.38	5961	
362.59	5017.5	
362.8	3533.4	
363	3301.3	
363.21	4769	
363.41	5460.6	
363.62	4106.2	
363.83	5173.9	
364.03	5498.1	
364.24	6593.1	
364.44	5204.6	
364.65	5156.8	
364.85	5287.2	
365.06	5171.1	
365.27	3683.6	
365.47	3736.2	
365.68	6350.1	
365.88	5192.3	
366.09	4099.4	
366.29	3760.1	
366.5	5543.9	
366.71	6046.3	
366.91	5132.9	
367.12	4289.8	
367.32	6584.2	
367.53	5834	
367.73	4209.9	
367.94	5278.3	
368.14	5811.5	
368.35	6827.9	
368.56	4127.3	
368.76	3895.2	
368.97	5859.9	
369.17	7669	
369.38	3639.2	
369.58	3949.8	
369.79	4880.3	
369.99	6261.3	
370.2	4986.1	
370.4	4035.2	
370.61	5581.4	
370.82	6808.8	
371.02	3902.7	
371.23	3200.3	
371.43	4749.2	
371.64	6227.2	
371.84	3938.9	
372.05	5281.7	
372.25	7587	
372.46	5903.6	
372.66	3940.3	
372.87	3885	
373.07	5890	
373.28	7555	
373.48	5029.8	
373.69	4653.7	
373.9	5363.6	
374.1	5347.9	
374.31	4849.6	
374.51	4431.8	
374.72	6181.5	
374.92	4984.8	
375.13	4994.3	
375.33	4169	
375.54	5717.9	
375.74	5109.7	
375.95	4240.7	
376.15	5532.9	
376.36	5720.7	
376.56	5552.7	
376.77	4270	
376.97	4817.5	
377.18	6813.6	
377.38	5745.9	
377.59	5142.4	
377.79	3649.5	
378	5584.8	
378.2	6037.4	
378.41	3753.2	
378.61	3693.2	
378.82	6006	
379.02	5089.2	
379.23	3926	
379.43	5118.6	
379.64	6038.8	
379.84	5742.5	
380.05	3758	
380.25	3696.6	
380.46	5761.6	
380.66	5380	
380.87	5177.9	
381.07	5593.7	
381.28	6463.4	
381.48	5840.8	
381.69	3792.8	
381.89	3861.1	
382.1	4688.5	
382.3	6019.7	
382.51	4984.8	
382.71	5914.5	
382.91	5872.9	
383.12	6434	
383.32	4199	
383.53	4354	
383.73	5679	
383.94	5474.2	
384.14	4304.1	
384.35	3472	
384.55	5411.4	
384.76	5913.9	
384.96	4199.7	
385.17	4578.6	
385.37	5855.1	
385.58	5104.9	
385.78	4575.2	
385.98	3357.3	
386.19	5332.9	
386.39	5713.2	
386.6	3962.8	
386.8	4220.9	
387.01	5868.1	
387.21	5860.6	
387.42	4662.5	
387.62	5221	
387.83	5104.2	
388.03	5771.9	
388.23	4191.5	
388.44	5024.3	
388.64	4705.5	
388.85	4823.6	
389.05	4577.2	
389.26	5205.9	
389.46	6880.5	
389.67	6210.8	
389.87	4554.7	
390.07	4557.4	
390.28	5414.8	
390.48	4976.6	
390.69	3712.3	
390.89	4064.5	
391.1	5137.7	
391.3	6118.6	
391.5	5308.3	
391.71	6004	
391.91	5819	
392.12	6901	
392.32	5415.5	
392.53	4714.4	
392.73	5175.9	
392.93	5462.6	
393.14	4190.8	
393.34	5063.9	
393.55	5973.9	
393.75	5435.3	
393.95	4259.8	
394.16	4204.5	
394.36	5134.3	
394.57	5895.4	
394.77	3669.3	
394.98	4132.8	
395.18	5077.6	
395.38	5155.4	
395.59	5031.9	
395.79	3926.6	
396	5190.2	
396.2	5660.6	
396.4	4726.7	
396.61	4606.6	
396.81	5940.5	
397.02	5087.8	
397.22	4917.9	
397.42	4978.6	
397.63	5883.1	
397.83	4999.8	
398.04	3749.1	
398.24	4323.3	
398.44	5630.5	
398.65	4651.6	
398.85	3574.4	
399.05	3718.4	
399.26	4944.5	
399.46	6706.4	
399.67	4112.3	
399.87	3851.5	
400.07	5321.3	
400.28	5739.1	
400.48	3940.3	
400.69	5036	
400.89	5937.7	
401.09	6377.4	
401.3	3710.9	
401.5	4915.8	
401.7	6603.3	
401.91	6832.7	
402.11	4094.6	
402.32	4399	
402.52	5930.2	
402.72	5872.2	
402.93	4618.9	
403.13	3463.8	
403.33	6739.9	
403.54	5512.4	
403.74	4355.3	
403.94	5285.1	
404.15	5586.9	
404.35	6721.4	
404.56	4130.1	
404.76	6125.5	
404.96	5900.2	
405.17	5735.7	
405.37	5406.6	
405.57	4545.1	
405.78	5939.1	
405.98	5423.7	
406.18	3971	
406.39	5110.4	
406.59	5916.6	
406.79	5618.9	
407	3919.8	
407.2	4091.8	
407.4	5960.3	
407.61	6171.2	
407.81	3980.6	
408.01	6406.7	
408.22	4855.7	
408.42	7094.8	
408.62	4992.9	
408.83	4440.7	
409.03	5367.7	
409.23	5221.6	
409.44	4436.6	
409.64	4739.7	
409.84	6244.3	
410.05	6098.9	
410.25	4539	
410.45	4266.6	
410.66	5529.5	
410.86	8212.4	
411.06	4590.2	
411.27	4495.3	
411.47	7736.5	
411.67	5660.6	
411.88	4784.7	
412.08	4943.1	
412.28	6376	
412.49	6898.2	
412.69	4356.7	
412.89	4392.9	
413.09	6648.4	
413.3	6418.3	
413.5	4502.1	
413.7	4071.4	
413.91	5688.6	
414.11	6614.3	
414.31	4201.1	
414.52	4661.2	
414.72	6225.1	
414.92	6072.2	
415.12	4259.8	
415.33	4826.4	
415.53	6462.7	
415.73	6692.1	
415.94	5251.7	
416.14	4605.2	
416.34	5362.3	
416.55	5163.6	
416.75	5838.8	
416.95	5180.7	
417.15	6442.2	
417.36	7263.5	
417.56	5988.9	
417.76	5040.1	
417.97	6817	
418.17	6443.6	
418.37	4547.9	
418.57	4655	
418.78	6146.6	
418.98	5927.5	
419.18	5475.6	
419.38	5497.4	
419.59	5872.2	
419.79	5538.4	
419.99	4448.9	
420.2	4952.7	
420.4	6485.2	
420.6	6706.4	
420.8	4388.8	
421.01	4229.1	
421.21	6167.1	
421.41	6529.6	
421.61	4797	
421.82	4498.7	
422.02	5705	
422.22	6823.8	
422.42	5350.7	
422.63	5033.9	
422.83	5888.6	
423.03	7143.3	
423.23	5033.2	
423.44	3928	
423.64	6001.9	
423.84	5798.5	
424.04	4365.6	
424.25	4124.6	
424.45	7038.2	
424.65	6955.6	
424.85	3900	
425.06	4500.1	
425.26	6948.8	
425.46	5839.4	
425.66	5005.9	
425.87	4702.8	
426.07	6728.3	
426.27	6565.1	
426.47	4844.8	
426.67	4119.8	
426.88	7075.7	
427.08	6512.5	
427.28	5056.4	
427.48	4141.7	
427.69	5343.2	
427.89	6008.7	
428.09	5112.4	
428.29	4206.5	
428.5	6820.4	
428.7	6229.2	
428.9	3991.5	
429.1	4738.3	
429.3	6128.9	
429.51	6611.5	
429.71	4379.9	
429.91	5200.5	
430.11	6377.4	
430.31	6628.6	
430.52	4661.9	
430.72	4930.1	
430.92	7091.4	
431.12	6461.3	
431.32	4316.4	
431.53	4767	
431.73	5321.3	
431.93	7093.5	
432.13	4174.4	
432.33	4045.4	
432.54	5780.7	
432.74	6173.3	
432.94	3919.8	
433.14	5115.1	
433.34	6350.1	
433.55	5745.9	
433.75	5027.8	
433.95	6816.3	
434.15	6129.6	
434.35	5696.1	
434.56	4207.9	
434.76	3597.6	
434.96	6007.4	
435.16	6287.3	
435.36	4006.5	
435.56	5201.2	
435.77	5631.2	
435.97	5791	
436.17	5854.5	
436.37	5054.4	
436.57	5583.4	
436.78	5399.1	
436.98	7075.7	
437.18	5654.4	
437.38	6294.1	
437.58	5799.8	
437.78	5890	
437.99	4458.4	
438.19	6412.2	
438.39	7897.7	
438.59	4394.9	
438.79	3921.9	
438.99	7091.4	
439.2	5821.7	
439.4	4075.5	
439.6	3915.7	
439.8	6133.7	
440	7323.5	
440.2	5019.6	
440.4	5149.3	
440.61	6470.2	
440.81	7045.7	
441.01	4057.7	
441.21	5008	
441.41	6789	
441.61	6430.6	
441.81	5344.5	
442.02	6440.9	
442.22	7438.9	
442.42	6566.5	
442.62	4121.9	
442.82	4170.3	
443.02	6793.8	
443.22	5885.2	
443.43	4547.9	
443.63	4145.1	
443.83	5666	
444.03	5769.8	
444.23	5348.6	
444.43	4922.6	
444.63	5900.9	
444.83	7293.5	
445.04	4111	
445.24	5587.5	
445.44	6399.9	
445.64	6589.7	
445.84	5091.9	
446.04	5066.7	
446.24	5828.5	
446.44	6896.2	
446.65	4289.1	
446.85	4564.9	
447.05	6314.6	
447.25	6815	
447.45	4733.5	
447.65	4091.8	
447.85	6068.1	
448.05	5795.8	
448.25	5188.9	
448.46	4971.1	
448.66	6126.8	
448.86	5859.2	
449.06	3878.2	
449.26	5216.2	
449.46	6470.2	
449.66	5453.1	
449.86	4624.3	
450.06	4647.5	
450.26	5665.4	
450.47	6217	
450.67	4941.7	
450.87	5214.8	
451.07	6386.2	
451.27	6128.2	
451.47	4164.9	
451.67	4644.8	
451.87	5751.4	
452.07	6995.9	
452.27	4355.3	
452.47	4386.7	
452.67	6155.5	
452.88	6765.8	
453.08	3721.2	
453.28	5859.2	
453.48	7299.6	
453.68	6054.5	
453.88	4182	
454.08	4532.2	
454.28	6438.8	
454.48	6037.4	
454.68	5048.9	
454.88	5623	
455.08	6500.9	
455.28	6166.4	
455.48	4092.5	
455.68	4721.9	
455.89	6944	
456.09	6588.3	
456.29	4407.2	
456.49	4419.5	
456.69	6759.7	
456.89	6021.7	
457.09	4982	
457.29	5293.3	
457.49	6360.3	
457.69	6440.2	
457.89	4649.6	
458.09	4120.5	
458.29	5955.5	
458.49	6763.1	
458.69	5105.6	
458.89	4464.6	
459.09	6948.8	
459.29	7083.9	
459.49	4565.6	
459.69	5455.8	
459.9	6564.4	
460.1	5906.3	
460.3	4530.8	
460.5	4300.7	
460.7	6391.7	
460.9	6134.3	
461.1	3822.9	
461.3	5163.6	
461.5	7058	
461.7	6669.6	
461.9	4210.6	
462.1	4758.1	
462.3	6052.4	
462.5	6855.9	
462.7	4246.1	
462.9	4292.5	
463.1	7781.6	
463.3	7380.2	
463.5	4586.8	
463.7	5425.1	
463.9	6134.3	
464.1	6586.3	
464.3	4515.8	
464.5	4814.1	
464.7	6816.3	
464.9	6369.9	
465.1	6210.8	
465.3	5238	
465.5	7146.7	
465.7	7058	
465.9	5468.1	
466.1	5242.1	
466.3	6866.8	
466.5	6769.2	
466.7	6006.7	
466.9	4982.7	
467.1	6531.7	
467.3	7550.2	
467.5	5959.6	
467.7	4739.7	
467.9	7808.2	
468.1	8682	
468.3	5653.1	
468.5	6050.4	
468.7	6525.5	
468.9	6439.5	
469.1	5046.9	
469.3	5786.9	
469.5	8520.9	
469.7	5950	
469.9	5606	
470.1	4724	
470.3	6520	
470.5	6541.9	
470.7	6090	
470.9	4962.2	
471.1	6233.3	
471.3	6849.1	
471.5	4668	
471.69	6731	
471.89	6144.6	
472.09	5758.9	
472.29	5576.6	
472.49	6073.6	
472.69	5838.1	
472.89	6819.7	
473.09	4588.8	
473.29	4912.4	
473.49	6062.7	
473.69	6328.9	
473.89	5915.2	
474.09	4975.2	
474.29	7673.7	
474.49	7273.7	
474.69	5818.3	
474.89	5145.9	
475.09	6294.1	
475.29	6296.8	
475.49	4508.9	
475.69	4746.5	
475.88	8062.2	
476.08	6647.7	
476.28	4420.9	
476.48	5051.7	
476.68	7152.9	
476.88	7049.8	
477.08	4771.1	
477.28	5134.3	
477.48	6378.7	
477.68	7183.6	
477.88	4657.8	
478.08	5018.2	
478.28	7416.4	
478.48	6606.7	
478.67	4922	
478.87	4495.3	
479.07	7192.5	
479.27	6674.3	
479.47	5332.9	
479.67	5195	
479.87	6978.1	
480.07	7714	
480.27	4441.4	
480.47	6270.9	
480.67	6738.5	
480.87	7332.4	
481.06	4805.9	
481.26	5688.6	
481.46	6615.6	
481.66	6597.9	
481.86	5190.9	
482.06	6423.8	
482.26	6367.8	
482.46	7407.5	
482.66	5210.7	
482.86	4737.6	
483.05	6620.4	
483.25	6092	
483.45	7752.2	
483.65	5162.9	
483.85	6277	
484.05	6532.3	
484.25	5619.6	
484.45	6027.2	
484.65	7554.3	
484.84	7414.3	
485.04	5055.8	
485.24	5041.4	
485.44	7755.7	
485.64	5869.5	
485.84	4209.9	
486.04	5704.3	
486.24	6313.9	
486.44	6767.2	
486.63	4158.7	
486.83	5003.2	
487.03	6153.5	
487.23	6329.6	
487.43	4261.1	
487.63	6797.2	
487.83	6451.1	
488.02	7567.2	
488.22	5343.2	
488.42	5854.5	
488.62	7371.3	
488.82	6258.6	
489.02	4926.7	
489.22	4878.9	
489.41	7202.7	
489.61	6810.9	
489.81	4655.7	
490.01	4717.8	
490.21	7010.2	
490.41	7753.6	
490.61	4575.2	
490.8	4781.3	
491	6518	
491.2	5844.9	
491.4	5432.6	
491.6	4549.9	
491.8	6595.1	
491.99	6827.2	
492.19	4395.6	
492.39	4788.8	
492.59	7165.8	
492.79	7162.4	
492.99	5642.8	
493.18	4601.1	
493.38	7232.7	
493.58	7856.7	
493.78	5315.8	
493.98	4863.9	
494.18	6890	
494.37	6230.6	
494.57	5424.4	
494.77	5302.9	
494.97	6853.2	
495.17	7152.9	
495.37	4834.6	
495.56	5107	
495.76	7364.5	
495.96	6903	
496.16	6047.7	
496.36	4849.6	
496.55	7073	
496.75	6573.3	
496.95	5348.6	
497.15	5193.6	
497.35	7127.6	
497.54	7030	
497.74	5008.6	
497.94	6831.3	
498.14	7789.1	
498.34	7561.8	
498.53	4630.5	
498.73	5526.1	
498.93	6279.8	
499.13	7038.9	
499.33	5190.2	
499.52	5808.7	
499.72	6867.5	
499.92	7387.7	
500.12	4820.2	
500.32	5060.5	
500.51	7178.8	
500.71	6926.9	
500.91	5963.7	
501.11	5538.4	
501.31	7092.1	
501.5	7542	
501.7	6212.9	
501.9	5079.6	
502.1	6898.9	
502.29	7231.4	
502.49	5583.4	
502.69	6178.7	
502.89	7112.6	
503.09	7126.9	
503.28	4686.4	
503.48	4829.1	
503.68	6315.3	
503.88	6380.8	
504.07	5909.8	
504.27	5315.2	
504.47	6811.5	
504.67	6939.9	
504.86	5829.2	
505.06	5473.5	
505.26	6521.4	
505.46	8428.1	
505.65	5345.9	
505.85	5640.1	
506.05	6437.4	
506.25	6969.9	
506.44	4686.4	
506.64	5773.2	
506.84	6414.9	
507.04	7432.1	
507.23	4997.7	
507.43	5571.2	
507.63	8543.4	
507.83	6724.8	
508.02	5562.3	
508.22	5229.1	
508.42	8804.9	
508.62	6465.4	
508.81	5541.1	
509.01	6027.2	
509.21	6304.3	
509.4	6576	
509.6	5640.1	
509.8	4987.5	
510	6589	
510.19	8206.9	
510.39	4982	
510.59	5037.3	
510.79	6413.6	
510.98	7846.5	
511.18	5039.4	
511.38	5223.7	
511.57	7247.8	
511.77	7094.2	
511.97	5959.6	
512.17	4859.1	
512.36	7219.1	
512.56	7234.8	
512.76	4986.1	
512.95	4695.3	
513.15	7335.1	
513.35	5837.4	
513.55	5819.6	
513.74	4926	
513.94	7262.1	
514.14	6572.6	
514.33	5894.7	
514.53	5657.9	
514.73	6587	
514.92	6764.4	
515.12	5105.6	
515.32	4879.6	
515.51	6827.2	
515.71	7488.1	
515.91	6719.4	
516.11	4949.3	
516.3	8698.4	
516.5	6428.6	
516.7	5596.4	
516.89	6224.5	
517.09	6581.5	
517.29	6500.9	
517.48	5842.9	
517.68	5268.7	
517.88	6305.7	
518.07	6922.8	
518.27	5814.2	
518.47	4744.5	
518.66	7520.8	
518.86	6044.9	
519.06	4582	
519.25	5033.9	
519.45	6460	
519.65	7979.6	
519.84	5754.8	
520.04	6462	
520.24	8418.5	
520.43	7191.1	
520.63	5524.1	
520.83	5212.8	
521.02	6331.6	
521.22	7113.3	
521.42	5838.1	
521.61	6373.3	
521.81	6595.8	
522.01	6931.7	
522.2	5588.2	
522.4	5414.8	
522.6	7213.6	
522.79	6031.3	
522.99	5424.4	
523.18	4665.3	
523.38	6907.8	
523.58	6907.1	
523.77	6702.3	
523.97	4524.6	
524.17	8832.2	
524.36	7897.7	
524.56	5968.5	
524.76	5535	
524.95	6767.2	
525.15	6462.7	
525.34	5343.2	
525.54	5267.4	
525.74	7013.6	
525.93	5998.5	
526.13	6512.5	
526.33	5225.7	
526.52	7432.8	
526.72	6848.4	
526.91	6464.8	
527.11	5725.4	
527.31	7382.9	
527.5	7942.7	
527.7	5524.1	
527.89	4524	
528.09	6209.4	
528.29	6730.3	
528.48	5940.5	
528.68	5663.3	
528.87	7196.6	
529.07	7239.6	
529.27	5481	
529.46	4952.7	
529.66	6874.3	
529.85	7352.9	
530.05	4799.8	
530.25	5639.4	
530.44	8296.3	
530.64	6784.2	
530.83	5244.8	
531.03	5517.9	
531.23	7141.3	
531.42	7108.5	
531.62	6208.8	
531.81	5332.2	
532.01	7290.1	
532.21	7673.1	
532.4	5020.9	
532.6	5426.4	
532.79	8115.4	
532.99	7191.1	
533.18	5423	
533.38	6451.1	
533.58	6651.8	
533.77	7638.9	
533.97	5331.5	
534.16	6175.3	
534.36	7714	
534.55	6743.3	
534.75	6311.8	
534.95	5371.8	
535.14	7481.2	
535.34	6678.4	
535.53	4973.8	
535.73	7163.8	
535.92	8183	
536.12	7003.4	
536.31	5177.9	
536.51	6487.3	
536.71	7323.5	
536.9	6822.5	
537.1	5392.3	
537.29	5435.3	
537.49	7791.2	
537.68	6694.1	
537.88	5855.1	
538.07	4999.8	
538.27	6874.3	
538.46	8002.1	
538.66	4880.3	
538.86	5317.2	
539.05	6930.3	
539.25	7456.7	
539.44	5663.3	
539.64	5229.1	
539.83	6847.7	
540.03	7867.6	
540.22	5162.9	
540.42	5414.8	
540.61	7179.5	
540.81	7211.6	
541	5859.9	
541.2	6469.5	
541.39	6656.6	
541.59	7076.4	
541.78	6046.3	
541.98	5188.9	
542.18	6359.6	
542.37	6370.5	
542.57	5688.6	
542.76	6210.8	
542.96	6436.1	
543.15	7224.6	
543.35	5691.3	
543.54	5000.5	
543.74	7678.5	
543.93	7096.9	
544.13	5801.9	
544.32	6883.9	
544.52	7548.1	
544.71	6670.9	
544.91	4831.8	
545.1	6230.6	
545.3	6667.5	
545.49	7457.3	
545.69	4795	
545.88	5484.5	
546.08	8295.6	
546.27	8028	
546.47	6026.5	
546.66	5183.4	
546.86	7662.8	
547.05	8298.4	
547.24	5524.1	
547.44	5341.1	
547.63	6566.5	
547.83	7813	
548.02	5763.7	
548.22	5986.2	
548.41	6399.9	
548.61	7839.6	
548.8	5280.3	
549	5278.3	
549.19	7074.4	
549.39	7425.3	
549.58	4980.7	
549.78	5566.4	
549.97	7481.2	
550.17	6975.4	
550.36	6559	
550.55	7659.4	
550.75	7041.6	
550.94	7985	
551.14	5224.4	
551.33	5674.9	
551.53	6285.2	
551.72	7459.4	
551.92	5780.1	
552.11	5468.1	
552.31	7447.8	
552.5	7400	
552.69	7296.9	
552.89	5100.1	
553.08	7420.5	
553.28	7176.8	
553.47	5494	
553.67	6722.1	
553.86	8211.7	
554.06	6383.5	
554.25	4700.8	
554.44	5238.7	
554.64	8935.3	
554.83	8394.6	
555.03	5295.4	
555.22	5696.8	
555.42	7688.8	
555.61	7395.9	
555.8	5540.4	
556	5834.7	
556.19	6419	
556.39	7793.9	
556.58	5563	
556.78	5582.8	
556.97	7200	
557.16	6930.3	
557.36	6897.6	
557.55	5154.1	
557.75	6174.6	
557.94	8036.2	
558.13	5259.9	
558.33	5098.1	
558.52	7820.5	
558.72	6707.1	
558.91	5164.3	
559.1	5443.5	
559.3	6405.4	
559.49	6173.3	
559.69	4696	
559.88	5891.3	
560.07	7273.7	
560.27	7632.8	
560.46	5975.3	
560.66	6212.2	
560.85	7077.1	
561.04	6236.7	
561.24	5141.8	
561.43	5519.3	
561.63	6528.2	
561.82	6761	
562.01	6749.4	
562.21	5704.3	
562.4	7324.2	
562.59	8219.9	
562.79	5539.1	
562.98	5183.4	
563.18	7142.6	
563.37	8704.5	
563.56	6113.9	
563.76	5051.7	
563.95	6549.4	
564.14	6540.5	
564.34	5470.8	
564.53	5218.2	
564.73	7155.6	
564.92	7505.1	
565.11	5575.3	
565.31	5051.7	
565.5	7731.8	
565.69	6579.4	
565.89	5247.6	
566.08	5505.6	
566.27	7585.7	
566.47	7983.7	
566.66	6195.8	
566.85	4743.1	
567.05	7092.8	
567.24	6495.5	
567.44	5152	
567.63	6661.4	
567.82	7392.5	
568.02	7161.1	
568.21	5184.8	
568.4	5564.3	
568.6	6890.7	
568.79	6932.4	
568.98	4867.3	
569.18	5070.8	
569.37	6861.4	
569.56	8945.5	
569.76	5414.1	
569.95	6405.4	
570.14	7321.5	
570.34	7231.4	
570.53	4957.4	
570.72	4847.5	
570.91	7764.5	
571.11	6821.8	
571.3	5502.9	
571.49	6398.5	
571.69	6905.8	
571.88	6479.8	
572.07	5983.5	
572.27	6102.9	
572.46	6506.4	
572.65	7486	
572.85	5155.4	
573.04	5554.1	
573.23	7741.3	
573.43	6963.8	
573.62	4839.4	
573.81	5536.3	
574	6919.4	
574.2	6763.8	
574.39	5257.8	
574.58	5455.8	
574.78	7823.2	
574.97	6983.6	
575.16	5799.8	
575.36	5997.8	
575.55	7324.2	
575.74	7519.5	
575.93	4800.4	
576.13	5973.2	
576.32	6778.1	
576.51	7355.6	
576.71	5300.8	
576.9	6684.6	
577.09	7718.1	
577.28	7206.1	
577.48	5852.4	
577.67	4633.9	
577.86	6797.9	
578.05	7132.4	
578.25	5292	
578.44	5530.2	
578.63	6988.4	
578.83	8157.7	
579.02	4768.4	
579.21	6395.8	
579.4	7144.7	
579.6	6874.3	
579.79	5664.7	
579.98	7955.7	
580.17	7578.2	
580.37	7513.3	
580.56	5080.3	
580.75	5803.3	
580.94	7973.4	
581.14	7926.3	
581.33	6343.2	
581.52	5124.7	
581.71	7322.9	
581.91	8093.6	
582.1	4753.3	
582.29	5557.5	
582.48	6961.7	
582.68	6933.1	
582.87	5953.4	
583.06	5626.5	
583.25	7281.2	
583.45	7174	
583.64	6236.7	
583.83	6994.5	
584.02	6740.5	
584.21	7253.2	
584.41	6198.5	
584.6	5562.3	
584.79	6915.3	
584.98	7858.1	
585.18	4881	
585.37	4980	
585.56	6488	
585.75	7362.4	
585.94	5278.3	
586.14	5965.7	
586.33	8070.4	
586.52	6922.8	
586.71	5756.2	
586.91	5446.9	
587.1	6461.3	
587.29	7567.2	
587.48	5534.3	
587.67	5334.3	
587.87	7364.5	
588.06	7538.6	
588.25	6771.9	
588.44	6082.5	
588.63	7088.7	
588.83	7653.3	
589.02	5393	
589.21	5384.8	
589.4	6920.1	
589.59	6726.2	
589.78	4706.2	
589.98	5084.4	
590.17	6457.9	
590.36	7051.8	
590.55	4505.5	
590.74	5420.3	
590.94	8594	
591.13	7087.3	
591.32	5141.8	
591.51	4714.4	
591.7	7509.2	
591.89	6921.5	
592.09	4739	
592.28	5213.4	
592.47	6147.3	
592.66	8098.4	
592.85	4749.9	
593.05	4995.7	
593.24	6811.5	
593.43	7558.4	
593.62	4971.1	
593.81	5608	
594	6749.4	
594.19	7030	
594.39	4942.4	
594.58	4851.6	
594.77	7176.8	
594.96	7834.8	
595.15	4857.8	
595.34	5557.5	
595.54	7290.8	
595.73	6236.1	
595.92	4203.1	
596.11	5535.7	
596.3	7800	
596.49	6343.9	
596.68	5205.3	
596.88	5826.5	
597.07	7447.8	
597.26	6205.3	
597.45	4759.5	
597.64	5989.6	
597.83	6472.9	
598.02	7172.7	
598.22	4845.5	
598.41	5544.5	
598.6	6865.5	
598.79	6356.9	
598.98	4909.7	
599.17	5847.6	
599.36	6915.3	
599.55	8232.2	
599.74	7062.1	
599.94	6810.2	
600.13	7584.3	
600.32	6295.5	
600.51	4605.2	
600.7	4752.7	
600.89	8255.4	
601.08	8317.5	
601.27	4747.2	
601.47	5662.6	
601.66	7524.9	
601.85	8251.9	
602.04	5277.6	
602.23	5626.5	
602.42	6460	
602.61	7204.8	
602.8	5234.6	
602.99	5055.8	
603.18	6887.3	
603.37	7154.9	
603.57	5724.1	
603.76	6235.4	
603.95	7970	
604.14	7479.2	
604.33	5061.2	
604.52	5449.6	
604.71	7091.4	
604.9	6682.5	
605.09	6075.6	
605.28	5949.3	
605.47	7708.6	
605.66	7357	
605.86	5708.4	
606.05	5135.6	
606.24	7797.3	
606.43	6232	
606.62	5503.6	
606.81	6263.4	
607	7619.8	
607.19	6866.8	
607.38	4950.6	
607.57	5088.5	
607.76	6669.6	
607.95	6091.3	
608.14	5603.9	
608.33	6272.2	
608.52	6673.6	
608.72	7511.9	
608.91	4835.3	
609.1	4709	
609.29	6847	
609.48	6287.3	
609.67	5808	
609.86	4800.4	
610.05	6442.9	
610.24	6795.8	
610.43	4697.4	
610.62	4247.5	
610.81	7992.5	
611	7694.2	
611.19	4805.2	
611.38	5644.9	
611.57	7129.7	
611.76	8445.1	
611.95	4596.3	
612.14	4486.4	
612.33	6903.7	
612.52	6348	
612.71	5227.1	
612.9	4289.1	
613.09	5952.1	
613.28	8403.5	
613.47	4911	
613.66	5870.8	
613.85	7034.1	
614.04	6539.8	
614.24	5087.8	
614.43	4227.7	
614.62	7186.3	
614.81	7060.7	
615	5629.2	
615.19	5601.9	
615.38	6382.8	
615.57	6652.5	
615.76	5444.9	
615.95	6453.1	
616.14	7200	
616.33	6864.1	
616.52	5768.4	
616.71	6137.1	
616.9	7186.3	
617.09	6943.3	
617.28	5048.9	
617.47	6376	
617.66	6172.6	
617.85	6165.8	
618.04	5997.8	
618.22	5451	
618.41	6470.9	
618.6	7398.6	
618.79	5356.8	
618.98	5014.1	
619.17	7762.5	
619.36	5986.2	
619.55	5078.3	
619.74	5157.5	
619.93	6965.8	
620.12	6315.3	
620.31	5780.1	
620.5	5900.9	
620.69	7520.1	
620.88	7835.5	
621.07	6713.2	
621.26	5633.3	
621.45	7038.9	
621.64	7144.7	
621.83	5747.3	
622.02	4802.5	
622.21	7123.5	
622.4	6879.1	
622.59	6306.4	
622.78	6023.8	
622.97	6515.3	
623.16	7515.4	
623.35	5570.5	
623.54	4697.4	
623.72	6674.3	
623.91	6822.5	
624.1	5905	
624.29	4421.6	
624.48	7970	
624.67	7127.6	
624.86	5729.5	
625.05	4687.8	
625.24	8034.2	
625.43	6369.2	
625.62	7456	
625.81	4993.6	
626	7454.6	
626.19	6614.3	
626.38	5803.3	
626.56	5141.8	
626.75	6434	
626.94	7359.7	
627.13	5791	
627.32	4430.4	
627.51	7227.3	
627.7	8744.8	
627.89	4620.2	
628.08	5827.2	
628.27	6293.4	
628.46	6571.2	
628.65	4938.3	
628.83	4528.7	
629.02	7109.9	
629.21	6397.9	
629.4	5350.7	
629.59	5556.1	
629.78	6264.7	
629.97	7460.1	
630.16	5578.7	
630.35	5049.6	
630.54	7760.4	
630.72	7531.1	
630.91	5113.1	
631.1	5672.9	
631.29	7002	
631.48	7127.6	
631.67	5760.3	
631.86	5205.3	
632.05	6481.1	
632.24	6653.2	
632.42	4789.5	
632.61	5452.4	
632.8	6660.7	
632.99	6316.6	
633.18	5462.6	
633.37	5914.5	
633.56	6984.3	
633.75	6763.1	
633.93	5500.2	
634.12	5095.3	
634.31	7868.3	
634.5	7331	
634.69	5172.5	
634.88	5726.8	
635.07	6696.2	
635.25	7351.5	
635.44	6189.6	
635.63	6394.4	
635.82	6651.1	
636.01	6131.6	
636.2	6097.5	
636.39	5610.1	
636.57	7787.1	
636.76	7509.9	
636.95	4989.5	
637.14	6526.2	
637.33	7103.7	
637.52	8078.6	
637.7	4840	
637.89	5840.8	
638.08	6625.9	
638.27	8292.9	
638.46	5924.1	
638.65	6352.1	
638.83	8262.2	
639.02	6506.4	
639.21	5824.4	
639.4	6319.3	
639.59	7118.7	
639.78	6557.6	
639.96	5171.1	
640.15	5219.6	
640.34	6862.1	
640.53	7099.6	
640.72	4833.2	
640.91	5242.8	
641.09	6365.1	
641.28	7806.2	
641.47	5233.2	
641.66	6051.1	
641.85	7046.4	
642.03	7441	
642.22	5865.4	
642.41	5328.1	
642.6	6455.2	
642.79	5911.8	
642.97	5076.2	
643.16	5869.5	
643.35	6461.3	
643.54	6353.5	
643.73	5065.3	
643.91	5866.7	
644.1	6179.4	
644.29	6830.7	
644.48	5156.8	
644.67	5199.1	
644.85	6458.6	
645.04	6769.2	
645.23	4750.6	
645.42	5072.8	
645.6	6338.5	
645.79	7615.7	
645.98	5128.8	
646.17	4091.8	
646.36	6113.2	
646.54	6769.2	
646.73	6088.6	
646.92	4799.8	
647.11	6386.2	
647.29	7494.9	
647.48	4850.3	
647.67	4615.4	
647.86	7729.7	
648.05	7742	
648.23	5181.4	
648.42	6554.9	
648.61	7122.2	
648.8	6773.3	
648.98	4853.7	
649.17	5182	
649.36	6355.5	
649.55	5825.1	
649.73	4916.5	
649.92	5680.4	
650.11	6264.1	
650.3	6629.3	
650.48	5056.4	
650.67	4741	
650.86	7036.1	
651.05	5772.5	
651.23	5035.3	
651.42	4996.4	
651.61	6339.1	
651.79	6536.4	
651.98	5173.9	
652.17	4859.1	
652.36	6855.9	
652.54	5924.8	
652.73	4887.1	
652.92	4720.6	
653.11	6981.5	
653.29	7040.2	
653.48	4160.8	
653.67	5226.4	
653.85	6774.7	
654.04	7845.1	
654.23	5531.6	
654.42	5055.1	
654.6	6320	
654.79	6999.3	
654.98	4511	
655.16	5117.9	
655.35	5894.7	
655.54	5870.8	
655.73	4569	
655.91	4568.3	
656.1	7147.4	
656.29	5782.1	
656.47	4143.7	
656.66	5945.9	
656.85	6085.9	
657.03	6133	
657.22	4668	
657.41	4736.3	
657.59	6170.5	
657.78	5954.8	
657.97	4384	
658.16	5094.7	
658.34	6859.3	
658.53	7231.4	
658.72	6068.1	
658.9	6580.8	
659.09	6243.6	
659.28	6395.8	
659.46	4825	
659.65	4765.6	
659.84	6071.5	
660.02	6640.2	
660.21	4616.1	
660.4	4631.8	
660.58	7103.7	
660.77	6448.4	
660.96	5259.2	
661.14	4285	
661.33	7623.2	
661.52	7499.7	
661.7	4197	
661.89	8199.4	
662.08	6053.1	
662.26	5609.4	
662.45	4548.5	
662.64	4693.3	
662.82	6774.7	
663.01	5913.9	
663.2	4642.7	
663.38	5507.7	
663.57	6729.6	
663.75	6626.5	
663.94	4989.5	
664.13	6438.8	
664.31	5987.6	
664.5	6767.9	
664.69	5218.9	
664.87	5929.6	
665.06	5779.4	
665.25	6543.3	
665.43	6206.7	
665.62	6175.3	
665.8	6932.4	
665.99	6189	
666.18	5103.5	
666.36	5162.9	
666.55	6902.3	
666.74	6820.4	
666.92	4675.5	
667.11	6395.8	
667.29	6138.4	
667.48	6886	
667.67	6040.8	
667.85	5048.9	
668.04	6261.3	
668.22	6255.2	
668.41	5091.9	
668.6	5298.8	
668.78	5976	
668.97	6307.7	
669.15	5564.3	
669.34	4425.7	
669.53	6053.1	
669.71	6460.7	
669.9	4613.4	
670.08	5358.9	
670.27	6084.5	
670.46	6707.1	
670.64	5535.7	
670.83	5780.1	
671.01	5924.8	
671.2	6613.6	
671.38	4700.1	
671.57	4624.3	
671.76	7137.9	
671.94	7848.5	
672.13	4536.9	
672.31	5642.8	
672.5	6748.7	
672.69	6029.2	
672.87	4634.6	
673.06	5022.3	
673.24	6618.4	
673.43	6185.5	
673.61	5450.3	
673.8	5006.6	
673.98	6860	
674.17	7086	
674.36	5666.7	
674.54	5507	
674.73	6619	
674.91	6880.5	
675.1	5130.8	
675.28	4773.1	
675.47	6366.5	
675.65	6950.1	
675.84	4986.1	
676.03	5378.6	
676.21	6149.4	
676.4	5614.8	
676.58	5933	
676.77	5658.5	
676.95	7732.4	
677.14	6109.1	
677.32	4725.3	
677.51	4459.1	
677.69	6897.6	
677.88	5721.3	
678.06	4558.8	
678.25	4614.1	
678.44	6393.1	
678.62	6094.8	
678.81	4348.5	
678.99	5424.4	
679.18	7228.6	
679.36	6703.7	
679.55	5020.3	
679.73	5668.8	
679.92	6820.4	
680.1	6098.9	
680.29	6311.8	
680.47	4973.2	
680.66	6075	
680.84	6968.6	
681.03	4250.9	
681.21	5433.9	
681.4	6108.4	
681.58	5922	
681.77	4721.3	
681.95	4705.5	
682.14	7044.3	
682.32	7402.7	
682.51	5678.3	
682.69	4386.1	
682.88	6029.2	
683.06	6756.9	
683.25	5351.3	
683.43	5887.2	
683.62	6298.2	
683.8	6794.5	
683.99	5924.8	
684.17	5253	
684.36	7666.9	
684.54	6292.7	
684.73	4412.7	
684.91	4706.2	
685.1	6646.3	
685.28	6090	
685.46	5276.9	
685.65	5454.4	
685.83	6881.2	
686.02	6197.2	
686.2	4678.2	
686.39	4787.5	
686.57	6081.1	
686.76	7583.6	
686.94	4675.5	
687.13	4872.8	
687.31	6731	
687.5	6217	
687.68	4281.6	
687.86	5642.8	
688.05	7843	
688.23	5634.6	
688.42	5598.5	
688.6	4771.1	
688.79	6019.7	
688.97	6024.4	
689.16	5177.9	
689.34	4018.8	
689.52	6835.4	
689.71	7095.5	
689.89	5449	
690.08	4706.2	
690.26	6457.9	
690.45	6262.7	
690.63	5651.7	
690.81	4856.4	
691	6055.2	
691.18	6041.5	
691.37	5050.3	
691.55	7395.2	
691.74	5997.1	
691.92	8164.6	
692.1	5022.3	
692.29	4456.4	
692.47	6224.5	
692.66	5412.1	
692.84	4661.9	
693.02	5335	
693.21	5588.2	
693.39	6138.4	
693.58	5401.2	
693.76	4810.7	
693.94	7452.6	
694.13	7151.5	
694.31	4597	
694.5	5835.3	
694.68	5976.7	
694.86	6245.6	
695.05	5076.2	
695.23	5212.8	
695.42	6652.5	
695.6	9038.4	
695.78	5739.8	
695.97	4819.6	
696.15	6677.1	
696.34	6021.7	
696.52	4549.9	
696.7	5444.2	
696.89	6452.5	
697.07	5844.2	
697.25	5341.8	
697.44	7061.4	
697.62	6400.6	
697.81	6817	
697.99	4973.8	
698.17	5524.7	
698.36	5685.8	
698.54	6414.9	
698.72	5380	
698.91	4304.8	
699.09	5991	
699.28	5879	
699.46	4956.1	
699.64	4840.7	
699.83	5730.2	
700.01	7141.9	
700.19	5702.2	
700.38	3994.9	
700.56	7175.4	
700.74	5868.8	
700.93	4457.1	
701.11	5319.3	
701.29	6557.6	
701.48	7621.2	
701.66	4702.8	
701.84	4728.8	
702.03	5993.7	
702.21	6719.4	
702.39	4219.5	
702.58	4842.1	
702.76	6434	
702.94	6641.6	
703.13	4235.9	
703.31	6858.6	
703.49	5705	
703.68	7026.6	
703.86	4373.1	
704.04	5523.4	
704.23	6189	
704.41	6660	
704.59	4638	
704.78	6001.9	
704.96	7469.6	
705.14	6698.9	
705.33	4373.8	
705.51	5247.6	
705.69	6085.9	
705.87	7009.5	
706.06	5552.7	
706.24	4318.5	
706.42	6435.4	
706.61	6691.4	
706.79	5673.6	
706.97	4393.6	
707.16	5881.1	
707.34	6513.2	
707.52	5614.2	
707.7	4578.6	
707.89	6076.3	
708.07	5702.9	
708.25	5526.8	
708.44	5700.9	
708.62	5986.9	
708.8	7182.9	
708.98	5833.3	
709.17	4703.5	
709.35	6428.6	
709.53	6364.4	
709.72	4465.3	
709.9	4616.8	
710.08	6579.4	
710.26	6688.7	
710.45	6234.7	
710.63	4771.8	
710.81	6322.1	
710.99	6346.7	
711.18	5431.9	
711.36	4876.9	
711.54	6171.9	
711.72	6936.5	
711.91	5044.8	
712.09	4382.7	
712.27	6321.4	
712.45	7079.8	
712.64	5368.4	
712.82	4272.7	
713	5826.5	
713.18	5915.2	
713.37	4412.7	
713.55	5801.2	
713.73	6946.7	
713.91	5532.2	
714.1	4922.6	
714.28	4403.1	
714.46	6750.1	
714.64	5877.7	
714.83	3856.3	
715.01	4830.5	
715.19	6042.9	
715.37	5521.3	
715.55	4508.9	
715.74	4853	
715.92	7062.1	
716.1	4925.4	
716.28	6038.8	
716.47	4975.9	
716.65	5674.9	
716.83	5727.5	
717.01	4885.8	
717.19	4958.8	
717.38	7981.6	
717.56	5386.2	
717.74	5087.2	
717.92	4151.2	
718.1	6728.9	
718.29	5831.9	
718.47	3704.8	
718.65	4472.8	
718.83	6529.6	
719.01	6275	
719.2	3494.5	
719.38	4695.3	
719.56	6093.4	
719.74	7755	
719.92	4240.7	
720.11	5470.1	
720.29	6236.7	
720.47	5251.7	
720.65	3885.7	
720.83	4858.5	
721.02	5709.7	
721.2	5423.7	
721.38	4961.5	
721.56	4116.4	
721.74	5009.3	
721.92	5160.2	
722.11	5436.7	
722.29	5157.5	
722.47	6545.3	
722.65	5552	
722.83	4143	
723.01	5238	
723.2	5676.3	
723.38	5969.8	
723.56	3543.7	
723.74	4782	
723.92	5173.9	
724.1	6412.2	
724.29	4085.7	
724.47	5328.1	
724.65	5214.1	
724.83	5158.8	
725.01	3933.5	
725.19	4938.3	
725.37	5230.5	
725.56	5357.5	
725.74	3794.9	
725.92	4037.2	
726.1	5147.2	
726.28	5425.8	
726.46	4532.2	
726.64	4261.1	
726.83	5469.4	
727.01	5732.3	
727.19	3765.5	
727.37	4750.6	
727.55	5576.6	
727.73	6098.2	
727.91	3786.7	
728.09	3642	
728.28	6165.1	
728.46	6761.7	
728.64	4827.1	
728.82	4720.6	
729	7256.6	
729.18	6470.2	
729.36	3852.9	
729.54	6511.2	
729.72	7616.4	
729.91	5672.9	
730.09	5886.5	
730.27	4581.3	
730.45	5546.6	
730.63	6234	
730.81	5250.3	
730.99	4117.8	
731.17	6780.1	
731.35	5259.2	
731.53	4704.9	
731.71	4308.9	
731.9	6538.5	
732.08	6722.1	
732.26	4620.2	
732.44	4269.3	
732.62	6818.4	
732.8	6225.1	
732.98	5018.2	
733.16	4059.8	
733.34	6182.1	
733.52	4916.5	
733.7	4624.3	
733.88	4911.7	
734.07	6029.2	
734.25	5804.6	
734.43	3906.8	
734.61	5827.8	
734.79	7462.8	
734.97	5649	
735.15	4174.4	
735.33	4539.7	
735.51	6053.1	
735.69	5648.3	
735.87	5812.8	
736.05	4806.6	
736.23	5892	
736.41	5663.3	
736.59	4561.5	
736.77	4710.3	
736.95	6386.9	
737.13	5711.1	
737.32	4227.7	
737.5	4497.3	
737.68	6903	
737.86	5629.9	
738.04	3980.6	
738.22	6029.9	
738.4	5435.3	
738.58	5791.7	
738.76	4756.1	
738.94	3607.8	
739.12	5568.4	
739.3	5449.6	
739.48	5439.4	
739.66	5123.3	
739.84	5920.7	
740.02	5889.3	
740.2	3684.3	
740.38	4063.9	
740.56	6256.5	
740.74	5079	
740.92	4785.4	
741.1	4775.9	
741.28	5693.4	
741.46	5512.4	
741.64	4351.9	
741.82	4947.9	
742	5775.3	
742.18	5718.6	
742.36	4566.3	
742.54	4115.1	
742.72	6322.1	
742.9	5022.3	
743.08	5044.8	
743.26	3676.1	
743.44	6575.3	
743.62	6403.3	
743.8	5190.9	
743.98	4195.6	
744.16	6096.1	
744.34	5787.6	
744.52	5119.9	
744.7	5020.3	
744.88	6276.3	
745.06	5776.6	
745.24	5159.5	
745.42	5272.2	
745.6	6347.3	
745.78	6165.8	
745.96	3908.2	
746.14	4367	
746.32	7250.5	
746.5	6476.4	
746.68	4896	
746.86	4308.9	
747.03	6922.8	
747.21	5149.3	
747.39	4962.2	
747.57	4377.2	
747.75	6096.8	
747.93	6497.5	
748.11	4336.9	
748.29	4264.6	
748.47	7705.8	
748.65	5745.2	
748.83	5070.1	
749.01	4756.7	
749.19	6253.8	
749.37	5331.5	
749.55	4689.2	
749.73	4730.8	
749.91	5896.1	
750.09	5612.1	
750.26	4754	
750.44	4184	
750.62	5919.3	
750.8	5896.1	
750.98	3996.3	
751.16	4444.8	
751.34	6010.8	
751.52	5283.8	
751.7	5256.5	
751.88	3994.2	
752.06	6541.9	
752.24	6296.1	
752.42	3979.2	
752.59	4340.3	
752.77	5906.3	
752.95	7219.1	
753.13	5103.5	
753.31	4485.1	
753.49	5548.6	
753.67	6085.9	
753.85	4801.1	
754.03	4407.2	
754.21	6369.2	
754.38	6730.3	
754.56	4629.1	
754.74	3554.6	
754.92	5587.5	
755.1	6438.8	
755.28	3724.6	
755.46	3756.7	
755.64	7325.6	
755.82	7485.3	
755.99	4203.1	
756.17	4354	
756.35	4930.1	
756.53	6650.4	
756.71	3160	
756.89	4214.7	
757.07	6141.2	
757.25	5173.9	
757.42	4748.6	
757.6	5673.6	
757.78	6122.7	
757.96	5040.1	
758.14	4358.1	
758.32	3838.6	
758.5	4577.2	
758.67	5452.4	
758.85	4172.4	
759.03	4308.2	
759.21	5699.5	
759.39	5134.9	
759.57	3759.4	
759.75	5029.8	
759.92	6349.4	
760.1	5546.6	
760.28	5386.8	
760.46	5626.5	
760.64	5278.3	
760.82	4995	
760.99	5173.9	
761.17	4161.5	
761.35	6116.6	
761.53	5085.8	
761.71	4369	
761.89	5139	
762.06	5991.7	
762.24	5484.5	
762.42	4410	
762.6	4130.1	
762.78	5418.2	
762.96	6220.4	
763.13	4801.1	
763.31	4475.5	
763.49	6328.2	
763.67	5377.3	
763.85	5344.5	
764.02	6005.3	
764.2	6627.2	
764.38	5690.6	
764.56	4341	
764.74	5308.3	
764.91	6783.6	
765.09	5612.1	
765.27	3950.5	
765.45	3789.4	
765.63	6779.5	
765.8	6638.8	
765.98	3516.4	
766.16	3785.3	
766.34	5121.3	
766.52	4856.4	
766.69	4930.8	
766.87	3723.2	
767.05	5620.3	
767.23	6443.6	
767.41	4098.7	
767.58	4379.9	
767.76	6193.1	
767.94	6247.7	
768.12	4133.5	
768.29	4996.4	
768.47	5668.1	
768.65	6418.3	
768.83	3794.2	
769	5033.9	
769.18	5212.1	
769.36	5996.5	
769.54	4859.8	
769.72	3799	
769.89	6249	
770.07	6466.1	
770.25	4205.2	
770.43	5589.6	
770.6	7177.4	
770.78	7596.6	
770.96	4446.8	
771.14	5101.5	
771.31	6232.7	
771.49	5473.5	
771.67	3539.6	
771.85	3846.8	
772.02	4683.7	
772.2	5515.9	
772.38	4597	
772.55	4111.6	
772.73	5840.1	
772.91	5623.7	
773.09	4522.6	
773.26	4644.8	
773.44	5859.9	
773.62	5515.2	
773.8	4016.1	
773.97	3681.6	
774.15	5887.2	
774.33	5422.3	
774.5	3888.4	
774.68	4322.6	
774.86	6139.1	
775.04	5570.5	
775.21	4000.4	
775.39	4003.8	
775.57	5857.9	
775.74	6286.6	
775.92	3872.7	
776.1	3719.1	
776.27	5819	
776.45	7166.5	
776.63	3953.3	
776.81	3504.8	
776.98	5414.8	
777.16	6651.1	
777.34	4215.4	
777.51	4501.4	
777.69	5461.2	
777.87	5257.8	
778.04	4199	
778.22	4932.9	
778.4	5261.2	
778.57	6014.2	
778.75	3426.3	
778.93	3743	
779.1	5042.8	
779.28	4902.2	
779.46	3511.6	
779.64	4052.9	
779.81	6141.9	
779.99	7086	
780.17	4942.4	
780.34	5082.4	
780.52	5529.5	
780.69	5771.2	
780.87	4399.7	
781.05	3927.3	
781.22	5595.7	
781.4	5687.2	
781.58	4040	
781.75	3151.8	
781.93	5709.1	
782.11	5027.8	
782.28	4989.5	
782.46	4055	
782.64	4885.1	
782.81	5888.6	
782.99	4197	
783.17	4188.1	
783.34	5726.1	
783.52	4902.2	
783.69	4424.3	
783.87	5238.7	
784.05	5036	
784.22	5055.8	
784.4	5259.2	
784.58	4505.5	
784.75	6076.3	
784.93	5081.7	
785.1	4056.3	
785.28	4790.2	
785.46	5778.7	
785.63	5067.4	
785.81	4106.2	
785.99	3935.5	
786.16	5137.7	
786.34	5676.3	
786.51	4036.5	
786.69	4437.3	
786.87	4803.9	
787.04	5366.4	
787.22	3463.1	
787.39	4835.3	
787.57	5014.1	
787.75	6262	
787.92	5057.1	
788.1	5004.6	
788.27	5070.8	
788.45	4809.3	
788.63	4688.5	
788.8	3249.4	
788.98	5423.7	
789.15	4805.9	
789.33	3417.4	
789.5	4169.7	
789.68	6101.6	
789.86	6236.1	
790.03	4405.9	
790.21	3999	
790.38	6042.9	
790.56	5223.7	
790.73	3883.6	
790.91	3938.2	
791.09	5125.4	
791.26	5922	
791.44	4199.7	
791.61	3498.6	
791.79	5122.7	
791.96	5237.3	
792.14	3630.4	
792.32	3194.8	
792.49	5084.4	
792.67	5186.1	
792.84	3716.4	
793.02	3480.2	
793.19	5534.3	
793.37	6353.5	
793.54	3296.5	
793.72	3661.8	
793.89	6561	
794.07	5161.6	
794.25	4302.8	
794.42	3319.1	
794.6	6296.1	
794.77	5850.4	
794.95	4569	
795.12	4001	
795.3	5128.8	
795.47	5717.9	
795.65	4407.2	
795.82	4240.7	
796	4919.2	
796.17	7037.5	
796.35	4052.2	
796.52	4770.4	
796.7	5712.5	
796.87	5811.5	
797.05	5115.8	
797.22	5020.3	
797.4	5773.9	
797.57	6853.9	
797.75	4207.2	
797.92	3921.9	
798.1	6126.8	
798.27	5140.4	
798.45	3325.9	
798.62	3663.8	
798.8	5515.9	
798.97	6004.6	
799.15	4423.6	
799.32	4246.1	
799.5	4681.7	
799.67	5487.9	
799.85	4626.4	
800.02	3270.6	
800.2	5078.3	
800.37	5451.7	
800.55	4779.3	
800.72	3953.3	
800.9	5895.4	
801.07	6425.2	
801.25	5382.1	
801.42	4414.7	
801.6	5984.2	
801.77	5771.9	
801.95	3889.1	
802.12	3837.2	
802.29	5698.1	
802.47	5596.4	
802.64	4331.5	
802.82	3241.3	
802.99	5070.1	
803.17	6191.7	
803.34	4232.5	
803.52	3798.3	
803.69	6933.1	
803.87	4855.1	
804.04	4191.5	
804.21	4350.6	
804.39	6322.1	
804.56	5332.9	
804.74	3583.9	
804.91	4405.9	
805.09	5123.3	
805.26	5180.7	
805.44	3611.9	
805.61	3989.4	
805.78	5858.6	
805.96	5911.8	
806.13	4426.3	
806.31	4723.3	
806.48	4640	
806.66	5233.9	
806.83	4289.8	
807	4304.1	
807.18	5089.2	
807.35	5532.2	
807.53	4212.7	
807.7	3424.9	
807.87	6367.8	
808.05	5182	
808.22	4761.5	
808.4	3337.5	
808.57	5180	
808.74	4819.6	
808.92	3941	
809.09	4959.5	
809.27	4985.4	
809.44	5756.2	
809.61	3424.9	
809.79	3802.4	
809.96	6368.5	
810.14	5971.9	
810.31	3297.2	
810.48	4014	
810.66	5295.4	
810.83	6169.8	
811.01	3880.2	
811.18	4588.1	
811.35	5969.8	
811.53	4603.2	
811.7	4711	
811.87	4388.1	
812.05	5153.4	
812.22	5107.6	
812.39	3732.8	
812.57	3684.3	
812.74	5205.9	
812.92	7006.8	
813.09	4101.4	
813.26	4510.3	
813.44	6722.1	
813.61	5053	
813.78	3403.7	
813.96	4670.7	
814.13	5184.8	
814.3	4799.1	
814.48	5016.2	
814.65	4092.5	
814.82	6615.6	
815	4968.4	
815.17	4225	
815.34	5229.1	
815.52	5119.9	
815.69	5079.6	
815.87	4174.4	
816.04	3618.8	
816.21	5216.9	
816.38	4489.1	
816.56	4035.2	
816.73	3804.4	
816.9	6653.2	
817.08	6065.4	
817.25	3826.3	
817.42	4842.8	
817.6	4719.9	
817.77	5280.3	
817.94	4351.9	
818.12	3733.4	
818.29	4898.1	
818.46	7860.8	
818.64	3930.7	
818.81	3673.4	
818.98	4807.9	
819.16	7092.8	
819.33	4558.1	
819.5	4235.2	
819.67	5594.4	
819.85	6294.8	
820.02	4104.8	
820.19	4460.5	
820.37	5401.9	
820.54	4945.2	
820.71	4330.1	
820.88	5350.7	
821.06	5423	
821.23	4952	
821.4	4319.8	
821.58	4263.9	
821.75	6032	
821.92	5354.1	
822.09	3421.5	
822.27	3577.8	
822.44	5162.9	
822.61	5121.3	
822.79	3437.9	
822.96	6776.7	
823.13	5806.7	
823.3	4913.1	
823.48	3987.4	
823.65	3582.6	
823.82	5899.5	
823.99	4680.3	
824.17	5125.4	
824.34	3618.8	
824.51	6897.6	
824.68	5310.4	
824.86	3820.8	
825.03	4284.4	
825.2	5158.8	
825.37	6419	
825.55	3820.8	
825.72	4235.9	
825.89	6982.2	
826.06	6474.3	
826.24	4146.5	
826.41	4173.8	
826.58	6398.5	
826.75	5545.9	
826.92	3183.9	
827.1	3608.5	
827.27	8790.6	
827.44	6926.2	
827.61	3943.7	
827.79	4837.3	
827.96	4909.7	
828.13	5322.7	
828.3	4123.9	
828.47	3451.5	
828.65	5372.5	
828.82	5369.1	
828.99	5330.9	
829.16	4679.6	
829.34	5849.7	
829.51	5653.1	
829.68	4269.3	
829.85	4523.3	
830.02	6059.3	
830.2	5897.5	
830.37	3241.3	
830.54	5190.9	
830.71	6677.7	
830.88	5190.2	
831.05	3349.1	
831.23	3822.9	
831.4	6335.1	
831.57	7295.5	
831.74	3961.5	
831.91	3408.5	
832.09	5409.4	
832.26	5818.3	
832.43	4056.3	
832.6	4654.4	
832.77	5472.9	
832.94	6293.4	
833.12	3164.1	
833.29	4040.6	
833.46	5008.6	
833.63	7406.8	
833.8	4424.3	
833.97	4091.2	
834.15	5877	
834.32	5593.7	
834.49	4265.2	
834.66	4349.2	
834.83	6130.3	
835	4949.3	
835.17	3906.2	
835.35	3918.4	
835.52	5752.1	
835.69	5557.5	
835.86	4175.1	
836.03	3386.7	
836.2	5801.2	
836.37	5358.9	
836.55	4106.2	
836.72	3829	
836.89	5324	
837.06	5844.2	
837.23	4263.9	
837.4	4546.5	
837.57	6667.5	
837.75	7509.9	
837.92	3669.3	
838.09	3929.4	
838.26	5365.7	
838.43	6194.4	
838.6	4373.8	
838.77	3794.9	
838.94	7068.9	
839.11	6778.8	
839.29	4027	
839.46	3211.9	
839.63	5859.9	
839.8	5555.5	
839.97	3984	
840.14	4001.7	
840.31	5537.7	
840.48	5772.5	
840.65	3261.7	
840.82	3880.9	
841	5844.9	
841.17	5853.8	
841.34	3648.1	
841.51	3683.6	
841.68	5711.1	
841.85	5526.1	
842.02	3783.3	
842.19	3084.2	
842.36	5526.1	
842.53	5558.2	
842.7	3618.8	
842.87	4476.2	
843.05	7358.4	
843.22	5502.2	
843.39	3412.6	
843.56	3758	
843.73	5212.8	
843.9	5890	
844.07	5969.8	
844.24	4964.3	
844.41	8727.1	
844.58	5045.5	
844.75	3491.1	
844.92	3782.6	
845.09	5864.7	
845.26	5791	
845.43	3631	
845.6	3847.5	
845.77	5823.7	
845.94	5526.8	
846.12	4046.1	
846.29	4245.4	
846.46	6067.4	
846.63	5817.6	
846.8	3650.2	
846.97	4272.1	
847.14	6268.8	
847.31	5765.7	
847.48	4061.8	
847.65	4524.6	
847.82	6094.8	
847.99	6128.9	
848.16	4915.1	
848.33	4554.7	
848.5	5358.9	
848.67	6385.6	
848.84	3584.6	
849.01	3800.3	
849.18	5184.1	
849.35	4841.4	
849.52	4604.5	
849.69	3551.9	
849.86	6018.3	
850.03	6252.4	
850.2	3667.9	
850.37	4463.2	
850.54	6208.8	
850.71	5488.6	
850.88	4319.2	
851.05	3541.6	
851.22	5775.3	
851.39	6408.1	
851.56	3424.2	
851.73	4143.7	
851.9	5055.1	
852.07	6033.3	
852.24	4026.3	
852.41	3578.5	
852.58	5655.8	
852.75	5190.9	
852.92	4040.6	
853.09	3536.2	
853.26	5425.1	
853.43	6314.6	
853.6	3568.9	
853.77	3069.2	
853.94	6398.5	
854.11	5081	
854.28	5379.3	
854.44	3877.5	
854.61	6909.2	
854.78	5894.1	
854.95	3576.4	
855.12	4530.8	
855.29	4695.3	
855.46	6383.5	
855.63	3595.6	
855.8	5043.5	
855.97	5360.9	
856.14	6202.6	
856.31	5119.9	
856.48	3940.3	
856.65	5311.7	
856.82	5086.5	
856.99	3487.7	
857.16	3911.6	
857.33	7133.1	
857.49	5458.5	
857.66	3928	
857.83	4217.5	
858	5370.5	
858.17	5592.3	
858.34	3453.6	
858.51	3642.7	
858.68	6664.8	
858.85	6645	
859.02	4179.2	
859.19	4505.5	
859.36	5037.3	
859.52	5145.9	
859.69	3670.6	
859.86	4311.7	
860.03	5128.1	
860.2	6445.6	
860.37	3249.4	
860.54	3640.6	
860.71	6029.2	
860.88	6442.9	
861.05	4083.6	
861.21	4617.5	
861.38	6550.1	
861.55	4939	
861.72	3241.9	
861.89	4027.7	
862.06	6184.2	
862.23	6697.5	
862.4	3523.2	
862.56	3781.2	
862.73	5944.6	
862.9	5556.8	
863.07	4259.8	
863.24	3196.2	
863.41	4952.7	
863.58	5083.7	
863.75	3702.7	
863.91	4171	
864.08	6507.8	
864.25	5982.1	
864.42	4573.1	
864.59	5104.2	
864.76	6826.6	
864.93	5100.8	
865.09	3551.9	
865.26	3849.5	
865.43	6335	
865.6	6837.5	
865.77	3149.8	
865.94	3594.2	
866.1	6348	
866.27	6144.6	
866.44	5492	
866.61	3403	
866.78	5468.8	
866.95	5910.4	
867.11	3504.1	
867.28	3136.8	
867.45	6196.5	
867.62	5156.1	
867.79	4206.5	
867.96	3615.3	
868.12	5055.1	
868.29	6137.1	
868.46	3631	
868.63	4891.9	
868.8	6257.2	
868.97	6012.8	
869.13	3812	
869.3	3731.4	
869.47	5982.8	
869.64	6150.1	
869.81	3637.2	
869.97	3605.1	
870.14	5862.7	
870.31	6556.9	
870.48	3561.4	
870.65	4584	
870.81	5439.4	
870.98	5386.8	
871.15	4094.6	
871.32	3774.4	
871.48	5906.3	
871.65	6629.3	
871.82	3592.1	
871.99	4031.1	
872.16	6994.5	
872.32	6342.6	
872.49	3636.5	
872.66	3676.8	
872.83	6024.4	
872.99	5315.2	
873.16	4114.4	
873.33	3608.5	
873.5	5641.5	
873.67	5681.1	
873.83	3799.7	
874	4924.7	
874.17	5806	
874.34	6987	
874.5	4700.1	
874.67	4524.6	
874.84	6509.1	
875.01	5083.1	
875.17	5169.1	
875.34	3642	
875.51	5709.1	
875.68	6948.8	
875.84	4383.3	
876.01	5358.9	
876.18	6005.3	
876.34	5905	
876.51	3617.4	
876.68	3529.3	
876.85	5521.3	
877.01	6327.5	
877.18	5230.5	
877.35	3606.5	
877.52	5578	
877.68	4984.1	
877.85	3485.6	
878.02	3553.2	
878.18	5595.1	
878.35	5322.7	
878.52	2848	
878.69	4079.6	
878.85	6074.3	
879.02	5999.2	
879.19	5140.4	
879.35	3897.3	
879.52	5963.7	
879.69	6264.7	
879.86	3083.6	
880.02	4053.6	
880.19	5554.1	
880.36	6798.6	
880.52	4145.1	
880.69	4286.4	
880.86	6111.1	
881.02	6211.5	
881.19	4022.9	
881.36	3951.2	
881.52	6019	
881.69	5266.7	
881.86	3941.7	
882.02	3840.6	
882.19	6345.3	
882.36	7461.4	
882.52	3653.6	
882.69	5129.5	
882.86	5829.9	
883.02	5715.2	
883.19	4479.6	
883.36	4218.8	
883.52	6163.7	
883.69	7067.5	
883.86	3650.8	
884.02	3272.7	
884.19	6128.2	
884.36	5649	
884.52	4166.3	
884.69	3894.6	
884.86	5319.3	
885.02	6758.3	
885.19	4096.6	
885.36	4145.1	
885.52	5591.6	
885.69	5767.1	
885.86	5200.5	
886.02	4669.4	
886.19	6037.4	
886.35	5496.7	
886.52	4032.5	
886.69	5106.3	
886.85	5165.7	
887.02	6475.7	
887.19	6475.7	
887.35	6475.7	
887.52	6475.7	
887.68	6475.7	
887.85	6475.7	
888.02	6475.7	
888.18	6475.7	
888.35	6475.7	
888.51	6475.7	
888.68	6475.7	
888.85	6475.7	
889.01	6475.7	
889.18	6475.7	
889.35	6475.7	
889.51	6475.7	
889.68	6475.7	
889.84	6475.7	
890.01	6475.7	
890.17	6475.7	
890.34	6475.7	
890.51	6475.7	
890.67	6475.7	
890.84	6475.7	
891	6475.7	
891.17	6475.7	
891.34	6475.7	
891.5	6475.7	
891.67	6475.7	
891.83	6475.7	
892	6475.7	
892.16	6475.7	
892.33	6475.7	
892.5	6475.7	
892.66	6475.7	
892.83	6475.7	
892.99	6475.7	
893.16	6475.7	
893.32	6475.7	
893.49	6475.7	
893.65	6475.7	
893.82	6475.7	
893.99	6475.7	
894.15	6475.7	
894.32	6475.7	
894.48	6475.7	
894.65	6475.7	
894.81	6475.7	
894.98	6475.7	
895.14	6475.7	
895.31	6475.7	
895.47	6475.7	
895.64	6475.7	
895.81	6475.7	
895.97	6475.7	
896.14	6475.7	
896.3	6475.7	
896.47	6475.7	
896.63	6475.7	
896.8	6475.7	
896.96	6475.7	
897.13	6475.7	
897.29	6475.7	
897.46	6475.7	
897.62	6475.7	
897.79	6475.7	
897.95	6475.7	
898.12	6475.7	
898.28	6475.7	
898.45	6475.7	
898.61	6475.7	
898.78	6475.7	
898.94	6475.7	
899.11	6475.7	
899.27	6475.7	
899.44	6475.7	
899.6	6475.7	
899.77	6475.7	
899.93	6475.7	
900.1	6475.7	
900.26	6475.7	
900.43	6475.7	
900.59	6475.7	
900.76	6475.7	
900.92	6475.7	
901.09	6475.7	
901.25	6475.7	
901.42	6475.7	
901.58	6475.7	
901.75	6475.7	
901.91	6475.7	
902.07	6475.7	
902.24	6475.7	
902.4	6475.7	
902.57	6475.7	
902.73	6475.7	
902.9	6475.7	
903.06	6475.7	
903.23	6475.7	
903.39	6475.7	
903.56	6475.7	
903.72	6475.7	
903.88	6475.7	
904.05	6475.7	
904.21	6475.7	
904.38	6475.7	
904.54	6475.7	
904.71	6475.7	
904.87	6475.7	
905.03	6475.7	
905.2	6475.7	
905.36	6475.7	
905.53	6475.7	
905.69	6475.7	
905.86	6475.7	
906.02	6475.7	
906.18	6475.7	
906.35	6475.7	
906.51	6475.7	
906.68	6475.7	
906.84	6475.7	
907.01	6475.7	
907.17	6475.7	
907.33	6475.7	
907.5	6475.7	
907.66	6475.7	
907.83	6475.7	
907.99	6475.7	
908.15	6475.7	
908.32	6475.7	
908.48	6475.7	
908.65	6475.7	
908.81	6475.7	
908.97	6475.7	
909.14	6475.7	
909.3	6475.7	
909.47	6475.7	
909.63	6475.7	
909.79	6475.7	
909.96	6475.7	
910.12	6475.7	
910.28	6475.7	
910.45	6475.7	
910.61	6475.7	
910.78	6475.7	
910.94	6475.7	
911.1	6475.7	
911.27	6475.7	
911.43	6475.7	
911.59	6475.7	
911.76	6475.7	
911.92	6475.7	
912.08	6475.7	
912.25	6475.7	
912.41	6475.7	
912.57	6475.7	
912.74	6475.7	
912.9	6475.7	
913.07	6475.7	
913.23	6475.7	
913.39	6475.7	
913.56	6475.7	
913.72	6475.7	
913.88	6475.7	
914.05	6475.7	
914.21	6475.7	
914.37	6475.7	
914.54	6475.7	
914.7	6475.7	
914.86	6475.7	
915.03	6475.7	
915.19	6475.7	
