Wavelength	Intensities	
nm	a.u.	
179.22	1912.3	
179.44	1911.8	
179.65	1912.8	
179.86	1910.8	
180.08	1873.9	
180.29	5006.6	
180.51	3542.3	
180.72	5662.6	
180.94	6641.6	
181.15	3293.8	
181.37	3237.8	
181.58	5497.4	
181.79	5829.9	
182.01	3398.3	
182.22	3652.9	
182.44	5756.2	
182.65	4853	
182.87	4610	
183.08	4007.2	
183.29	6067.4	
183.51	5005.2	
183.72	3672	
183.94	5325.4	
184.15	5372.5	
184.37	5466	
184.58	3198.9	
184.79	4458.4	
185.01	5014.8	
185.22	5763.7	
185.44	4659.8	
185.65	3962.8	
185.86	5332.9	
186.08	4887.1	
186.29	3156.6	
186.51	3333.4	
186.72	4999.8	
186.94	5985.5	
187.15	3891.8	
187.36	4011.3	
187.58	7793.2	
187.79	5494	
188.01	4238.6	
188.22	6631.3	
188.43	6636.1	
188.65	5793.7	
188.86	3347.7	
189.08	4042	
189.29	5243.5	
189.5	5233.9	
189.72	3735.5	
189.93	3870	
190.15	6031.3	
190.36	7173.4	
190.57	4113.7	
190.79	3964.2	
191	6069.5	
191.22	5999.9	
191.43	4108.9	
191.64	3368.9	
191.86	6292	
192.07	5926.1	
192.29	3547.8	
192.5	3807.2	
192.71	5986.2	
192.93	5205.9	
193.14	3753.2	
193.35	3813.3	
193.57	5188.2	
193.78	6034	
194	2955.9	
194.21	3674.1	
194.42	4999.8	
194.64	5428.5	
194.85	4095.9	
195.07	4816.1	
195.28	5487.9	
195.49	4711	
195.71	5023.7	
195.92	3521.8	
196.13	5646.9	
196.35	5782.8	
196.56	5312.4	
196.78	4099.4	
196.99	7060	
197.2	6651.8	
197.42	4601.8	
197.63	4058.4	
197.84	4862.6	
198.06	5629.2	
198.27	3771	
198.48	4934.2	
198.7	5193	
198.91	5328.8	
199.13	4058.4	
199.34	4077.5	
199.55	5791.7	
199.77	4702.8	
199.98	3580.5	
200.19	4130.1	
200.41	5317.2	
200.62	5046.2	
200.83	4216.8	
201.05	4610.7	
201.26	5307	
201.47	5095.3	
201.69	3620.8	
201.9	3446.7	
202.11	5401.9	
202.33	6504.3	
202.54	3880.9	
202.76	4343.7	
202.97	5500.2	
203.18	5573.9	
203.4	4273.4	
203.61	4164.9	
203.82	5513.1	
204.04	5091.3	
204.25	4128.7	
204.46	3984	
204.68	5386.2	
204.89	5687.2	
205.1	4023.6	
205.32	3510.9	
205.53	5872.2	
205.74	5984.2	
205.96	2921.1	
206.17	4189.5	
206.38	5836	
206.6	5974.6	
206.81	4739.7	
207.02	3815.4	
207.24	5659.9	
207.45	6102.3	
207.66	3959.4	
207.88	3337.5	
208.09	5647.6	
208.3	5389.6	
208.52	3581.2	
208.73	3885	
208.94	5437.4	
209.15	6126.2	
209.37	3915	
209.58	4101.4	
209.79	5933	
210.01	5281.7	
210.22	3142.9	
210.43	3256.3	
210.65	5410.1	
210.86	5881.8	
211.07	3924.6	
211.29	3549.8	
211.5	5759.6	
211.71	5372.5	
211.93	3569.6	
212.14	3568.9	
212.35	5428.5	
212.56	5588.2	
212.78	4104.1	
212.99	3448.8	
213.2	6367.8	
213.42	5243.5	
213.63	3635.8	
213.84	4016.7	
214.06	4814.8	
214.27	4865.3	
214.48	3871.3	
214.69	4147.1	
214.91	6148.7	
215.12	6164.4	
215.33	4207.2	
215.55	4645.5	
215.76	6702.3	
215.97	5829.2	
216.18	3986	
216.4	3863.8	
216.61	5138.4	
216.82	5896.1	
217.04	3629.7	
217.25	3743	
217.46	6112.5	
217.67	5825.8	
217.89	3207.8	
218.1	3346.4	
218.31	5552	
218.53	5558.9	
218.74	3835.2	
218.95	3605.8	
219.16	5396.4	
219.38	6416.3	
219.59	3639.9	
219.8	4412	
220.01	7117.4	
220.23	5498.1	
220.44	4884.4	
220.65	3565.5	
220.87	5467.4	
221.08	6043.6	
221.29	3351.8	
221.5	4487.8	
221.72	7490.8	
221.93	5180	
222.14	4184.7	
222.35	4843.4	
222.57	5417.6	
222.78	5861.3	
222.99	3855	
223.2	4198.3	
223.42	5754.1	
223.63	5915.2	
223.84	2968.9	
224.05	3025.5	
224.27	6956.9	
224.48	6343.9	
224.69	4840.7	
224.9	4087.7	
225.12	5626.5	
225.33	5396.4	
225.54	3282.9	
225.75	3670	
225.97	5000.5	
226.18	5281	
226.39	3957.4	
226.6	3674.7	
226.82	5163.6	
227.03	5060.5	
227.24	4128	
227.45	3398.9	
227.67	5839.4	
227.88	6348	
228.09	4575.8	
228.3	4601.8	
228.52	5861.3	
228.73	5417.6	
228.94	3774.4	
229.15	3352.5	
229.36	5352	
229.58	5255.1	
229.79	3827.7	
230	4506.2	
230.21	6478.4	
230.43	5552.7	
230.64	4094.6	
230.85	4251.6	
231.06	5930.9	
231.28	5918.6	
231.49	3338.2	
231.7	3954.6	
231.91	5774.6	
232.12	5425.1	
232.34	3467.9	
232.55	3979.9	
232.76	6118	
232.97	5659.2	
233.18	3601.7	
233.4	4031.1	
233.61	5689.9	
233.82	5204.6	
234.03	3766.9	
234.25	3732.8	
234.46	7606.8	
234.67	5539.1	
234.88	4200.4	
235.09	3631	
235.31	5776	
235.52	5290.6	
235.73	4106.2	
235.94	3387.3	
236.15	5119.2	
236.37	6590.4	
236.58	3575.8	
236.79	3971	
237	5738.4	
237.21	4951.3	
237.43	4218.1	
237.64	3295.2	
237.85	10002	
238.06	5011.4	
238.27	4257	
238.48	3444.7	
238.7	5823.1	
238.91	5346.6	
239.12	3915	
239.33	3990.8	
239.54	5054.4	
239.76	5355.4	
239.97	3904.1	
240.18	3932.8	
240.39	6827.9	
240.6	5773.9	
240.82	4031.8	
241.03	3358	
241.24	5431.2	
241.45	6279.8	
241.66	3568.2	
241.87	4257	
242.09	6157.6	
242.3	6515.3	
242.51	4227.7	
242.72	3985.3	
242.93	5970.5	
243.14	5388.2	
243.36	4492.6	
243.57	4922.6	
243.78	6317.3	
243.99	5799.8	
244.2	3920.5	
244.41	3560.1	
244.63	5010.7	
244.84	5735.7	
245.05	4203.1	
245.26	3986	
245.47	5735.7	
245.68	5995.1	
245.9	5231.9	
246.11	4111	
246.32	5277.6	
246.53	5698.8	
246.74	6404.7	
246.95	3315	
247.16	4924	
247.38	5468.8	
247.59	3206.4	
247.8	3929.4	
248.01	5160.9	
248.22	5384.8	
248.43	3534.8	
248.64	3856.3	
248.86	4831.2	
249.07	5180.7	
249.28	3431.7	
249.49	4041.3	
249.7	5935.7	
249.91	6152.1	
250.12	3264.5	
250.34	3291.8	
250.55	5593	
250.76	5474.9	
250.97	4076.8	
251.18	4129.4	
251.39	6188.3	
251.6	5617.6	
251.81	4148.5	
252.03	4129.4	
252.24	5188.9	
252.45	6008.7	
252.66	3443.3	
252.87	4397	
253.08	5413.5	
253.29	7216.4	
253.5	3409.9	
253.72	4811.4	
253.93	5314.5	
254.14	6524.8	
254.35	3719.1	
254.56	3885	
254.77	5732.3	
254.98	5066.7	
255.19	3663.8	
255.41	4742.4	
255.62	5550	
255.83	6103.6	
256.04	4210.6	
256.25	4162.8	
256.46	6583.5	
256.67	5085.8	
256.88	4059.8	
257.09	4518.5	
257.31	5104.9	
257.52	5105.6	
257.73	5104.9	
257.94	3742.3	
258.15	5280.3	
258.36	5446.9	
258.57	4733.5	
258.78	2968.9	
258.99	5867.4	
259.2	5284.4	
259.41	3768.3	
259.63	3831.7	
259.84	6347.3	
260.05	6717.3	
260.26	4908.3	
260.47	3643.3	
260.68	6083.8	
260.89	5359.5	
261.1	4513	
261.31	3579.8	
261.52	6035.4	
261.73	6408.1	
261.95	4855.1	
262.16	4263.9	
262.37	6140.5	
262.58	6255.2	
262.79	4805.9	
263	3780.6	
263.21	5530.9	
263.42	4954	
263.63	3830.4	
263.84	3816.7	
264.05	5962.3	
264.26	6377.4	
264.47	4687.8	
264.69	4231.8	
264.9	6154.1	
265.11	5655.1	
265.32	3634.5	
265.53	3686.3	
265.74	5578	
265.95	4884.4	
266.16	3982.6	
266.37	4446.1	
266.58	5572.5	
266.79	5245.5	
267	3673.4	
267.21	3428.3	
267.42	5054.4	
267.63	5482.4	
267.84	3935.5	
268.06	3387.3	
268.27	5939.1	
268.48	6201.9	
268.69	3822.9	
268.9	4568.3	
269.11	6198.5	
269.32	4916.5	
269.53	3876.8	
269.74	3635.1	
269.95	5792.3	
270.16	4818.9	
270.37	3905.5	
270.58	4543.8	
270.79	5248.9	
271	5968.5	
271.21	4234.5	
271.42	3993.5	
271.63	5576.6	
271.84	5084.4	
272.05	3142.3	
272.26	3566.9	
272.47	5476.3	
272.68	5634	
272.89	3719.8	
273.11	4364.9	
273.32	5279	
273.53	6405.4	
273.74	4258.4	
273.95	4135.5	
274.16	6133.7	
274.37	5475.6	
274.58	4339	
274.79	3467.9	
275	5614.2	
275.21	6185.5	
275.42	5117.9	
275.63	4416.1	
275.84	5707	
276.05	7217.7	
276.26	4118.5	
276.47	3878.9	
276.68	5287.2	
276.89	6412.9	
277.1	4498	
277.31	3449.5	
277.52	5735.7	
277.73	5910.4	
277.94	3409.2	
278.15	3821.5	
278.36	5678.3	
278.57	5108.3	
278.78	3752.6	
278.99	4246.1	
279.2	5098.1	
279.41	5014.1	
279.62	5003.9	
279.83	3487.7	
280.04	6697.5	
280.25	4956.1	
280.46	4899.4	
280.67	3885	
280.88	5069.4	
281.09	6098.2	
281.3	4118.5	
281.51	5244.8	
281.72	5909.1	
281.93	5948	
282.14	3697.9	
282.35	3966.9	
282.56	5993.7	
282.77	5944.6	
282.98	3832.4	
283.19	4674.1	
283.4	7297.6	
283.61	5382.1	
283.82	3392.8	
284.03	4901.5	
284.24	5547.9	
284.45	6125.5	
284.66	4950.6	
284.87	4641.4	
285.08	6087.9	
285.29	6278.4	
285.5	3329.3	
285.71	3831.1	
285.92	6079.7	
286.12	6769.9	
286.33	4854.4	
286.54	3837.2	
286.75	5926.1	
286.96	5369.1	
287.17	3458.3	
287.38	4790.9	
287.59	5050.3	
287.8	4996.4	
288.01	3859.1	
288.22	4461.8	
288.43	5970.5	
288.64	4950.6	
288.85	4608.6	
289.06	4347.2	
289.27	5905.7	
289.48	6389	
289.69	4900.8	
289.9	4391.5	
290.11	6128.2	
290.32	5167	
290.53	4644.1	
290.74	4261.1	
290.94	5944.6	
291.15	5896.1	
291.36	3753.9	
291.57	4431.8	
291.78	5184.8	
291.99	4879.6	
292.2	3571.7	
292.41	4298.7	
292.62	5988.3	
292.83	5786.2	
293.04	5353.4	
293.25	3556	
293.46	5192.3	
293.67	6028.5	
293.88	3692.5	
294.09	3532.1	
294.29	4982	
294.5	5621	
294.71	3930.7	
294.92	3811.3	
295.13	5227.1	
295.34	6587.6	
295.55	3310.9	
295.76	3353.9	
295.97	5810.8	
296.18	6619	
296.39	3519.1	
296.6	3732.1	
296.81	5547.3	
297.01	5898.1	
297.22	3900	
297.43	3689.1	
297.64	5067.4	
297.85	5122	
298.06	3065.1	
298.27	3287.7	
298.48	5504.3	
298.69	5190.2	
298.9	4022.2	
299.11	3631.7	
299.31	4973.2	
299.52	5029.8	
299.73	4257.7	
299.94	4175.1	
300.15	5505.6	
300.36	5081.7	
300.57	4154.6	
300.78	4186	
300.99	5384.1	
301.2	5587.5	
301.4	3629.7	
301.61	4004.5	
301.82	5791.7	
302.03	5874.9	
302.24	4494.6	
302.45	3506.8	
302.66	5771.9	
302.87	6212.9	
303.08	3672.7	
303.29	5031.9	
303.49	5212.1	
303.7	5479	
303.91	3292.5	
304.12	4831.2	
304.33	4961.5	
304.54	5581.4	
304.75	3757.3	
304.96	3484.3	
305.16	5786.2	
305.37	6580.1	
305.58	3207.8	
305.79	3350.5	
306	5775.3	
306.21	4917.9	
306.42	3667.9	
306.63	5684.5	
306.83	5356.8	
307.04	6089.3	
307.25	4079.6	
307.46	4090.5	
307.67	4674.8	
307.88	5957.5	
308.09	3559.4	
308.29	3733.4	
308.5	5549.3	
308.71	6053.1	
308.92	3958.7	
309.13	3561.4	
309.34	5407.3	
309.55	5399.1	
309.75	4554	
309.96	4178.5	
310.17	5900.9	
310.38	5159.5	
310.59	4429.1	
310.8	3444	
311.01	5285.8	
311.21	5344.5	
311.42	3518.4	
311.63	3616	
311.84	5200.5	
312.05	5666.7	
312.26	4126	
312.46	4488.5	
312.67	5317.2	
312.88	4989.5	
313.09	3553.2	
313.3	3522.5	
313.51	6251.1	
313.71	6616.3	
313.92	3551.2	
314.13	3752.6	
314.34	5605.3	
314.55	5327.4	
314.76	4560.8	
314.96	4051.6	
315.17	5535	
315.38	5874.3	
315.59	3555.3	
315.8	3388	
316.01	6360.3	
316.21	6386.2	
316.42	3404.4	
316.63	3905.5	
316.84	5354.8	
317.05	6160.3	
317.26	4187.4	
317.46	3738.2	
317.67	5369.1	
317.88	5864	
318.09	4530.8	
318.3	3350.5	
318.5	5166.3	
318.71	5821	
318.92	5786.9	
319.13	4197.7	
319.34	6018.3	
319.54	6057.2	
319.75	3327.9	
319.96	3157.3	
320.17	5890.6	
320.38	6037.4	
320.58	3224.2	
320.79	3913	
321	6034.7	
321.21	6237.4	
321.42	3912.3	
321.62	3292.5	
321.83	5074.9	
322.04	5515.2	
322.25	3764.2	
322.46	3559.4	
322.66	5614.2	
322.87	5742.5	
323.08	4433.9	
323.29	3499.3	
323.5	6522.8	
323.7	4973.2	
323.91	4939	
324.12	4310.3	
324.33	5517.2	
324.53	5782.1	
324.74	4157.4	
324.95	4415.4	
325.16	4874.8	
325.37	5293.3	
325.57	3569.6	
325.78	3622.9	
325.99	5547.9	
326.2	4999.8	
326.4	5229.8	
326.61	3297.9	
326.82	5433.3	
327.03	5587.5	
327.24	5081	
327.44	4791.6	
327.65	5715.9	
327.86	4640.7	
328.07	4209.9	
328.27	3436.5	
328.48	6146	
328.69	5075.5	
328.9	5183.4	
329.1	3867.9	
329.31	5324	
329.52	6282.5	
329.73	3584.6	
329.93	3988.1	
330.14	5471.5	
330.35	5731.6	
330.56	6001.2	
330.76	4476.2	
330.97	5326.1	
331.18	5812.8	
331.39	3989.4	
331.59	3233.1	
331.8	6065.4	
332.01	6207.4	
332.22	3688.4	
332.42	4257	
332.63	5597.8	
332.84	5246.2	
333.05	4026.3	
333.25	3700	
333.46	5235.3	
333.67	5457.8	
333.88	3775.8	
334.08	4191.5	
334.29	7334.5	
334.5	6185.5	
334.7	3497.2	
334.91	5141.8	
335.12	5013.4	
335.33	5909.8	
335.53	3956	
335.74	5877.7	
335.95	5261.9	
336.16	5040.7	
336.36	3916.4	
336.57	4575.2	
336.78	4990.2	
336.98	6120	
337.19	4962.2	
337.4	3950.5	
337.61	6621.8	
337.81	4975.9	
338.02	3676.8	
338.23	4674.8	
338.43	6274.3	
338.64	5119.2	
338.85	3673.4	
339.05	4709	
339.26	6302.3	
339.47	4922	
339.68	3622.9	
339.88	5359.5	
340.09	5638.1	
340.3	5948.7	
340.5	4188.1	
340.71	3234.4	
340.92	4982	
341.13	6219	
341.33	3485	
341.54	4243.4	
341.75	5733.6	
341.95	5353.4	
342.16	4079.6	
342.37	4420.9	
342.57	5005.2	
342.78	5387.5	
342.99	4465.9	
343.19	3235.1	
343.4	5832.6	
343.61	5731.6	
343.81	3824.2	
344.02	3545.7	
344.23	5928.9	
344.43	6336.4	
344.64	4457.1	
344.85	4390.8	
345.06	5745.9	
345.26	6118.6	
345.47	4132.1	
345.68	4890.5	
345.88	4808.6	
346.09	5965.1	
346.3	4246.1	
346.5	3241.9	
346.71	5425.8	
346.92	5137.7	
347.12	3288.4	
347.33	4158.1	
347.54	6064	
347.74	6411.5	
347.95	4113	
348.16	3063.1	
348.36	5312.4	
348.57	4911	
348.78	4055	
348.98	4408.6	
349.19	5409.4	
349.39	4938.3	
349.6	3316.3	
349.81	3621.5	
350.01	5649	
350.22	5176.6	
350.43	3981.9	
350.63	4751.3	
350.84	5580	
351.05	5248.9	
351.25	3611.3	
351.46	3269.2	
351.67	6040.8	
351.87	5161.6	
352.08	3830.4	
352.29	4392.2	
352.49	5907	
352.7	6062	
352.9	3476.1	
353.11	4308.9	
353.32	6638.1	
353.52	5274.9	
353.73	3481.5	
353.94	4403.8	
354.14	5765.7	
354.35	5640.1	
354.55	3519.8	
354.76	3961.5	
354.97	5687.9	
355.17	5518.6	
355.38	3368.9	
355.59	4717.8	
355.79	5137.7	
356	5602.6	
356.2	3917.8	
356.41	3467.2	
356.62	4874.2	
356.82	5414.8	
357.03	4208.6	
357.24	3798.3	
357.44	5177.3	
357.65	5347.9	
357.85	5104.9	
358.06	4032.5	
358.27	4898.1	
358.47	5118.6	
358.68	3257	
358.88	4221.5	
359.09	5709.7	
359.3	6016.2	
359.5	4870.8	
359.71	4335.5	
359.91	6559.6	
360.12	5864.7	
360.33	4175.1	
360.53	4653	
360.74	5109.7	
360.94	5192.3	
361.15	4414.1	
361.36	3611.3	
361.56	5963.7	
361.77	5335.6	
361.97	4954	
362.18	3834.5	
362.38	5965.1	
362.59	5001.1	
362.8	3519.1	
363	3360.7	
363.21	4786.1	
363.41	5525.4	
363.62	4053.6	
363.83	5148.6	
364.03	5611.4	
364.24	6526.2	
364.44	5200.5	
364.65	5236	
364.85	5324	
365.06	5194.3	
365.27	3721.8	
365.47	3728.7	
365.68	6326.9	
365.88	5308.3	
366.09	4147.8	
366.29	3792.2	
366.5	5512.4	
366.71	6065.4	
366.91	5081.7	
367.12	4309.6	
367.32	6611.5	
367.53	5841.5	
367.73	4222.9	
367.94	5204.6	
368.14	5788.9	
368.35	6730.3	
368.56	4284.4	
368.76	3571	
368.97	5935.7	
369.17	7663.5	
369.38	3680.9	
369.58	3993.5	
369.79	4915.1	
369.99	6264.1	
370.2	5006.6	
370.4	4094.6	
370.61	5635.3	
370.82	6847	
371.02	3955.3	
371.23	3228.3	
371.43	4834.6	
371.64	6159.6	
371.84	3945.1	
372.05	5273.5	
372.25	7520.1	
372.46	5854.5	
372.66	3967.6	
372.87	3925.3	
373.07	5920	
373.28	7553.6	
373.48	5058.5	
373.69	4711	
373.9	5383.4	
374.1	5399.8	
374.31	4945.8	
374.51	4427	
374.72	6240.8	
374.92	5068.7	
375.13	5031.2	
375.33	4226.3	
375.54	5806	
375.74	5228.5	
375.95	4364.9	
376.15	5640.1	
376.36	5733.6	
376.56	5641.5	
376.77	4375.1	
376.97	4775.2	
377.18	6859.3	
377.38	5852.4	
377.59	5173.9	
377.79	3800.3	
378	5614.8	
378.2	6126.2	
378.41	3928	
378.61	3822.9	
378.82	6119.3	
379.02	5224.4	
379.23	4081.6	
379.43	5218.2	
379.64	6219.7	
379.84	5826.5	
380.05	3908.9	
380.25	3800.3	
380.46	5911.8	
380.66	5515.9	
380.87	5245.5	
381.07	5612.8	
381.28	6613.6	
381.48	5963.7	
381.69	3939.6	
381.89	4014.7	
382.1	4882.4	
382.3	6062.7	
382.51	5076.9	
382.71	5984.8	
382.91	5979.4	
383.12	6500.3	
383.32	4296.6	
383.53	4502.1	
383.73	5738.4	
383.94	5569.1	
384.14	4445.5	
384.35	3559.4	
384.55	5539.1	
384.76	5989.6	
384.96	4307.6	
385.17	4617.5	
385.37	5885.2	
385.58	5227.1	
385.78	4713.7	
385.98	3473.4	
386.19	5418.2	
386.39	5801.2	
386.6	4034.5	
386.8	4341.7	
387.01	5892	
387.21	5996.5	
387.42	4762.2	
387.62	5258.5	
387.83	5276.3	
388.03	5879	
388.23	4291.2	
388.44	5162.2	
388.64	4938.3	
388.85	4999.8	
389.05	4659.8	
389.26	5259.9	
389.46	6946	
389.67	6322.8	
389.87	4592.9	
390.07	4739.7	
390.28	5563.6	
390.48	5119.2	
390.69	3881.6	
390.89	4169	
391.1	5319.3	
391.3	6238.8	
391.5	5418.9	
391.71	6077.7	
391.91	5948	
392.12	7022.5	
392.32	5479.7	
392.53	4702.8	
392.73	5375.2	
392.93	5586.2	
393.14	4310.3	
393.34	5131.5	
393.55	6124.8	
393.75	5543.9	
393.95	4416.8	
394.16	4394.3	
394.36	5300.1	
394.57	6038.8	
394.77	3777.8	
394.98	4235.2	
395.18	5238	
395.38	5445.5	
395.59	5140.4	
395.79	4048.8	
396	5360.9	
396.2	5836.7	
396.4	4924	
396.61	4810.7	
396.81	6071.5	
397.02	5337.7	
397.22	5142.4	
397.42	5221.6	
397.63	6040.1	
397.83	5240.8	
398.04	3998.3	
398.24	4513.7	
398.44	5838.1	
398.65	4853	
398.85	3779.2	
399.05	3932.8	
399.26	5128.1	
399.46	6871.6	
399.67	4287.8	
399.87	4051.6	
400.07	5575.3	
400.28	5868.8	
400.48	4157.4	
400.69	5201.8	
400.89	6165.1	
401.09	6596.5	
401.3	3944.4	
401.5	5129.5	
401.7	6820.4	
401.91	7088	
402.11	4337.6	
402.32	4607.2	
402.52	6119.3	
402.72	6112.5	
402.93	4865.3	
403.13	3663.8	
403.33	7019.1	
403.54	5707.7	
403.74	4543.1	
403.94	5448.3	
404.15	5773.2	
404.35	6869.6	
404.56	4290.5	
404.76	6173.9	
404.96	6090.7	
405.17	5954.8	
405.37	5255.1	
405.57	4735.6	
405.78	6133	
405.98	5576.6	
406.18	4257	
406.39	5197.1	
406.59	6207.4	
406.79	5750.7	
407	4124.6	
407.2	4254.3	
407.4	6210.8	
407.61	6394.4	
407.81	4212	
408.01	6154.1	
408.22	5070.8	
408.42	7209.5	
408.62	5193.6	
408.83	4691.2	
409.03	5593.7	
409.23	5470.1	
409.44	4769.7	
409.64	4999.8	
409.84	6590.4	
410.05	6438.8	
410.25	4785.4	
410.45	4608.6	
410.66	5848.3	
410.86	8462.2	
411.06	4958.8	
411.27	4885.1	
411.47	8209.6	
411.67	6043.6	
411.88	5134.9	
412.08	5393.7	
412.28	6679.1	
412.49	7296.9	
412.69	4845.5	
412.89	4894.6	
413.09	7071.6	
413.3	6880.5	
413.5	4891.9	
413.7	4513.7	
413.91	6130.9	
414.11	7047.1	
414.31	4711.7	
414.52	5128.1	
414.72	6685.9	
414.92	6508.4	
415.12	4687.8	
415.33	5263.3	
415.53	6959	
415.73	7174.7	
415.94	5610.8	
416.14	5070.8	
416.34	5865.4	
416.55	5591	
416.75	6326.9	
416.95	5748	
417.15	6896.9	
417.36	7673.7	
417.56	6395.8	
417.76	5373.9	
417.97	7241.6	
418.17	6973.3	
418.37	5033.9	
418.57	5168.4	
418.78	6735.1	
418.98	6396.5	
419.18	5980.1	
419.38	5923.4	
419.59	6526.2	
419.79	6094.8	
419.99	5007.3	
420.2	5392.3	
420.4	6907.8	
420.6	7163.1	
420.8	4908.3	
421.01	4786.8	
421.21	6715.3	
421.41	6967.9	
421.61	5304.9	
421.82	4988.9	
422.02	6244.3	
422.22	7193.8	
422.42	5884.5	
422.63	5485.8	
422.83	6360.3	
423.03	7564.5	
423.23	5515.2	
423.44	4464.6	
423.64	6479.1	
423.84	6176	
424.04	4919.2	
424.25	4527.4	
424.45	7417.1	
424.65	7367.9	
424.85	4345.1	
425.06	4973.2	
425.26	7368.6	
425.46	6359.6	
425.66	5478.3	
425.87	5128.1	
426.07	7144.7	
426.27	7009.5	
426.47	5357.5	
426.67	4661.2	
426.88	7481.2	
427.08	7002	
427.28	5531.6	
427.48	4614.1	
427.69	5788.9	
427.89	6507.8	
428.09	5493.3	
428.29	4691.2	
428.5	7217	
428.7	6704.4	
428.9	4522.6	
429.1	5085.1	
429.3	6580.8	
429.51	7047.7	
429.71	4804.5	
429.91	5608	
430.11	6842.3	
430.31	7445.7	
430.52	5044.8	
430.72	5466	
430.92	7529.7	
431.12	6920.8	
431.32	4786.1	
431.53	5255.1	
431.73	5826.5	
431.93	7499.7	
432.13	4713.1	
432.33	4605.2	
432.54	6285.9	
432.74	6675.7	
432.94	4489.1	
433.14	5675.6	
433.34	6782.9	
433.55	6301.6	
433.75	5490.6	
433.95	7264.8	
434.15	6635.4	
434.35	6230.6	
434.56	4668	
434.76	4195.6	
434.96	6548	
435.16	6786.3	
435.36	4552.6	
435.56	5683.8	
435.77	6208.1	
435.97	6451.1	
436.17	6356.9	
436.37	5576.6	
436.57	6199.2	
436.78	6011.5	
436.98	7440.3	
437.18	6203.3	
437.38	6833.4	
437.58	6380.8	
437.78	6352.8	
437.99	4990.9	
438.19	6911.2	
438.39	8486.8	
438.59	4900.8	
438.79	4483	
438.99	7595.2	
439.2	6324.8	
439.4	4556.7	
439.6	4491.9	
439.8	6637.5	
440	7716.7	
440.2	5528.8	
440.4	5653.1	
440.61	6952.9	
440.81	7580.9	
441.01	4605.9	
441.21	5588.9	
441.41	7354.9	
441.61	7095.5	
441.81	5907.7	
442.02	6935.8	
442.22	7958.4	
442.42	7185.6	
442.62	4656.4	
442.82	4858.5	
443.02	7382.9	
443.22	6449.7	
443.43	5214.1	
443.63	4685.8	
443.83	6302.3	
444.03	6347.3	
444.23	5932.3	
444.43	5574.6	
444.63	6629.3	
444.83	7886.7	
445.04	4803.9	
445.24	6193.7	
445.44	7049.1	
445.64	7148.1	
445.84	5699.5	
446.04	5637.4	
446.24	6431.3	
446.44	7477.1	
446.65	4857.8	
446.85	5277.6	
447.05	6500.3	
447.25	7332.4	
447.45	5419.6	
447.65	4622.9	
447.85	6713.2	
448.05	6336.4	
448.25	5705.6	
448.46	5586.9	
448.66	6711.9	
448.86	6370.5	
449.06	4467.3	
449.26	5711.8	
449.46	7040.2	
449.66	6032.6	
449.86	5162.2	
450.06	5234.6	
450.26	6320.7	
450.47	6821.8	
450.67	5475.6	
450.87	5882.4	
451.07	6931	
451.27	6725.5	
451.47	4754.7	
451.67	5277.6	
451.87	6393.1	
452.07	7578.8	
452.27	4945.8	
452.47	4945.2	
452.67	6692.1	
452.88	7324.2	
453.08	4317.8	
453.28	6475	
453.48	7806.2	
453.68	6582.9	
453.88	4821.6	
454.08	5164.3	
454.28	6968.6	
454.48	6671.6	
454.68	5629.9	
454.88	6183.5	
455.08	7114	
455.28	6808.1	
455.48	4752.7	
455.68	5319.3	
455.89	7555	
456.09	7281.2	
456.29	5047.6	
456.49	5119.2	
456.69	7402.7	
456.89	6693.4	
457.09	5614.8	
457.29	5982.1	
457.49	7001.3	
457.69	7088	
457.89	5411.4	
458.09	4849.6	
458.29	6749.4	
458.49	7443.7	
458.69	5844.9	
458.89	5197.7	
459.09	7687.4	
459.29	7834.8	
459.49	5296.7	
459.69	6148.7	
459.9	7329	
460.1	6704.4	
460.3	5249.6	
460.5	5033.9	
460.7	7225.2	
460.9	6852.5	
461.1	4612	
461.3	5984.2	
461.5	7778.9	
461.7	7395.2	
461.9	5039.4	
462.1	5520.6	
462.3	6821.8	
462.5	7445	
462.7	5111	
462.9	5185.5	
463.1	8527.1	
463.3	8155	
463.5	5331.5	
463.7	6266.8	
463.9	7017	
464.1	7472.4	
464.3	5393	
464.5	5689.9	
464.7	7619.1	
464.9	7261.4	
465.1	7109.9	
465.3	5998.5	
465.5	8021.2	
465.7	7970	
465.9	6249	
466.1	6156.9	
466.3	7717.4	
466.5	7639.6	
466.7	6938.5	
466.9	5881.8	
467.1	7522.9	
467.3	8505.2	
467.5	6896.2	
467.7	5739.1	
467.9	8677.9	
468.1	9664.4	
468.3	6627.9	
468.5	7040.2	
468.7	7487.4	
468.9	7452.6	
469.1	6026.5	
469.3	6726.9	
469.5	9497.1	
469.7	6972	
469.9	6465.4	
470.1	5778.7	
470.3	7438.2	
470.5	7561.8	
470.7	7083.9	
470.9	5917.3	
471.1	7259.4	
471.3	7795.9	
471.5	5649	
471.69	7774.8	
471.89	7169.3	
472.09	6693.4	
472.29	6522.1	
472.49	6966.5	
472.69	6819.1	
472.89	7767.3	
473.09	5549.3	
473.29	5854.5	
473.49	7099.6	
473.69	7307.2	
473.89	6794.5	
474.09	5920	
474.29	8495	
474.49	8194.6	
474.69	6727.6	
474.89	6091.3	
475.09	7237.5	
475.29	7208.8	
475.49	5470.1	
475.69	5740.5	
475.88	8973.5	
476.08	7613	
476.28	5358.2	
476.48	5930.2	
476.68	8067.6	
476.88	7778.9	
477.08	5735	
477.28	6006.7	
477.48	7336.5	
477.68	8034.9	
477.88	5510.4	
478.08	5874.9	
478.28	8247.2	
478.48	7485.3	
478.67	5932.3	
478.87	5368.4	
479.07	8126.3	
479.27	7576.8	
479.47	6166.4	
479.67	6094.1	
479.87	7985.7	
480.07	8486.8	
480.27	5279.7	
480.47	7000	
480.67	7583.6	
480.87	8249.9	
481.06	5636.7	
481.26	6466.1	
481.46	7525.6	
481.66	7406.1	
481.86	6075	
482.06	7181.5	
482.26	7204.8	
482.46	8368	
482.66	6017.6	
482.86	5651.7	
483.05	7567.9	
483.25	6916	
483.45	8578.3	
483.65	6031.3	
483.85	7110.5	
484.05	7449.1	
484.25	6498.2	
484.45	6954.2	
484.65	8332.5	
484.84	8363.9	
485.04	5944.6	
485.24	5899.5	
485.44	8572.8	
485.64	6879.1	
485.84	5134.3	
486.04	6708.5	
486.24	7309.9	
486.44	7649.2	
486.63	5170.4	
486.83	5874.3	
487.03	7040.9	
487.23	7350.8	
487.43	5259.9	
487.63	7757.7	
487.83	7383.6	
488.02	8482.7	
488.22	6264.1	
488.42	6879.1	
488.62	8299.1	
488.82	7221.8	
489.02	5965.1	
489.22	5897.5	
489.41	8160.5	
489.61	7806.9	
489.81	5633.3	
490.01	5681.7	
490.21	8107.2	
490.41	8718.2	
490.61	5614.2	
490.8	5752.7	
491	7609.6	
491.2	6932.4	
491.4	6429.3	
491.6	5567.7	
491.8	7660.8	
491.99	7696.9	
492.19	5339.7	
492.39	5783.5	
492.59	8075.1	
492.79	8103.1	
492.99	6486.6	
493.18	5645.6	
493.38	8085.4	
493.58	8920.3	
493.78	6265.4	
493.98	5917.9	
494.18	7845.1	
494.37	7384.3	
494.57	6465.4	
494.77	6418.3	
494.97	8024.6	
495.17	8307.2	
495.37	5906.3	
495.56	6253.8	
495.76	8413.7	
495.96	8062.9	
496.16	7209.5	
496.36	6095.4	
496.55	8299.1	
496.75	7769.3	
496.95	6502.3	
497.15	6318.7	
497.35	8243.1	
497.54	8215.1	
497.74	6102.3	
497.94	7935.2	
498.14	8938.7	
498.34	8751	
498.53	5726.8	
498.73	6621.8	
498.93	7573.4	
499.13	8084.7	
499.33	6352.8	
499.52	6813.6	
499.72	8101.1	
499.92	8552.3	
500.12	6107.7	
500.32	6364.4	
500.51	8396	
500.71	8162.5	
500.91	7119.4	
501.11	6797.2	
501.31	8329.1	
501.5	8744.8	
501.7	7394.5	
501.9	6399.9	
502.1	8120.2	
502.29	8491.6	
502.49	6905.1	
502.69	7355.6	
502.89	8373.5	
503.09	8396.7	
503.28	6021	
503.48	6012.8	
503.68	7643.7	
503.88	7624.6	
504.07	7010.9	
504.27	6498.9	
504.47	7967.3	
504.67	8178.9	
504.86	6944.7	
505.06	6710.5	
505.26	7674.4	
505.46	9641.2	
505.65	6533.7	
505.85	6867.5	
506.05	7650.5	
506.25	8183.7	
506.44	5853.1	
506.64	6823.1	
506.84	7544.7	
507.04	8559.8	
507.23	6098.9	
507.43	6655.9	
507.63	9586.5	
507.83	7799.3	
508.02	6634.7	
508.22	6305.7	
508.42	9766.1	
508.62	7597.3	
508.81	6842.9	
509.01	7086	
509.21	7390.4	
509.4	7660.8	
509.6	6662	
509.8	6012.8	
510	7556.3	
510.19	9055.4	
510.39	5961.6	
510.59	6148	
510.79	7415	
510.98	8785.8	
511.18	6153.5	
511.38	6238.1	
511.57	8359.8	
511.77	8183	
511.97	6991.1	
512.17	5923.4	
512.36	8367.3	
512.56	8295.6	
512.76	5947.3	
512.95	5776	
513.15	8406.9	
513.35	6980.8	
513.55	6808.8	
513.74	6092.7	
513.94	8376.9	
514.14	7712	
514.33	6990.4	
514.53	6735.8	
514.73	7696.3	
514.92	7921.5	
515.12	6197.8	
515.32	5991	
515.51	7928.4	
515.71	8551.6	
515.91	7726.3	
516.11	6083.8	
516.3	9805.7	
516.5	7544	
516.7	6771.9	
516.89	7315.3	
517.09	7802.8	
517.29	7714	
517.48	6942.6	
517.68	6372.6	
517.88	7433.4	
518.07	8110.6	
518.27	6917.4	
518.47	5971.2	
518.66	8679.3	
518.86	7281.9	
519.06	5784.1	
519.25	6180.1	
519.45	7595.9	
519.65	9073.2	
519.84	6919.4	
520.04	7539.3	
520.24	9537.4	
520.43	8422.6	
520.63	6649.1	
520.83	6377.4	
521.02	7582.9	
521.22	8212.4	
521.42	6908.5	
521.61	7502.4	
521.81	7747.5	
522.01	7979.6	
522.2	6746.7	
522.4	6471.6	
522.6	8330.5	
522.79	7210.2	
522.99	6571.9	
523.18	5787.6	
523.38	8065.6	
523.58	8069.7	
523.77	7811	
523.97	5747.3	
524.17	9851.4	
524.36	9087.5	
524.56	7109.9	
524.76	6819.1	
524.95	8044.4	
525.15	7731.1	
525.34	6483.9	
525.54	6509.1	
525.74	8436.9	
525.93	7329.7	
526.13	7854	
526.33	6566.5	
526.52	8779	
526.72	8131.8	
526.91	7795.9	
527.11	7020.4	
527.31	8764.6	
527.5	9108	
527.7	6918.7	
527.89	5829.2	
528.09	7533.1	
528.29	8120.9	
528.48	7260	
528.68	6879.8	
528.87	8518.9	
529.07	8645.8	
529.27	6877.1	
529.46	6345.3	
529.66	8301.1	
529.85	8744.1	
530.05	6167.8	
530.25	7065.5	
530.44	9712.8	
530.64	8136.6	
530.83	6563.1	
531.03	6776.7	
531.23	8500.4	
531.42	8460.2	
531.62	7507.9	
531.81	6742.6	
532.01	8700.5	
532.21	9105.3	
532.4	6358.9	
532.6	6870.9	
532.79	9402.2	
532.99	8697	
533.18	6847	
533.38	7899.7	
533.58	8256	
533.77	9045.2	
533.97	6801.3	
534.16	7571.3	
534.36	9179.7	
534.55	8269.7	
534.75	7839.6	
534.95	6797.2	
535.14	9034.3	
535.34	8263.6	
535.53	6582.9	
535.73	8599.4	
535.92	9709.4	
536.12	8502.5	
536.31	6657.9	
536.51	7944.8	
536.71	8765.3	
536.9	8314.8	
537.1	6763.8	
537.29	6992.4	
537.49	9260.2	
537.68	8118.1	
537.88	7219.8	
538.07	6445.6	
538.27	8396	
538.46	9497.8	
538.66	6462	
538.86	6823.8	
539.05	8453.3	
539.25	8997.4	
539.44	7172.7	
539.64	6824.5	
539.83	8396	
540.03	9424.8	
540.22	6778.1	
540.42	6883.2	
540.61	8646.5	
540.81	8843.1	
541	7244.3	
541.2	7959.1	
541.39	8128.4	
541.59	8578.3	
541.78	7535.8	
541.98	6660.7	
542.18	7787.1	
542.37	7812.3	
542.57	7118.7	
542.76	7604.8	
542.96	7905.2	
543.15	8720.9	
543.35	7174.7	
543.54	6474.3	
543.74	8925.7	
543.93	8483.4	
544.13	7057.3	
544.32	8234.2	
544.52	8878.6	
544.71	7955.7	
544.91	6095.4	
545.1	7374.7	
545.3	8010.3	
545.49	8723.7	
545.69	6071.5	
545.88	6708.5	
546.08	9723.1	
546.27	9239.1	
546.47	7276.4	
546.66	6536.4	
546.86	9012.4	
547.05	9572.9	
547.24	6748.1	
547.44	6573.3	
547.63	7823.2	
547.83	9078	
548.02	6989.7	
548.22	7294.2	
548.41	7683.3	
548.61	9088.9	
548.8	6639.5	
549	6536.4	
549.19	8456.1	
549.39	8687.5	
549.58	6262	
549.78	6849.1	
549.97	8749.6	
550.17	8318.2	
550.36	7771.4	
550.55	8797.4	
550.75	8263.6	
550.94	9211.1	
551.14	6517.3	
551.33	6952.2	
551.53	7563.8	
551.72	8605.6	
551.92	6954.9	
552.11	6707.1	
552.31	8684.8	
552.5	8598.1	
552.69	8468.4	
552.89	6308.4	
553.08	8671.1	
553.28	8364.6	
553.47	6727.6	
553.67	7908.6	
553.86	9415.9	
554.06	7628.7	
554.25	5963	
554.44	6604.7	
554.64	10106	
554.83	9675.3	
555.03	6449.1	
555.22	6901.7	
555.42	8857.5	
555.61	8561.9	
555.8	6797.2	
556	7114.6	
556.19	7695.6	
556.39	9019.9	
556.58	6775.4	
556.78	6755.6	
556.97	8426	
557.16	8174.1	
557.36	8053.3	
557.55	6352.8	
557.75	7461.4	
557.94	9325.1	
558.13	6465.4	
558.33	6266.1	
558.52	9065.7	
558.72	7940.7	
558.91	6406.7	
559.1	6610.8	
559.3	7696.3	
559.49	7436.9	
559.69	5953.4	
559.88	6971.3	
560.07	8452.6	
560.27	8869.1	
560.46	7297.6	
560.66	7378.1	
560.85	8277.9	
561.04	7516.7	
561.24	6328.9	
561.43	6640.2	
561.63	7656.7	
561.82	8010.3	
562.01	7847.8	
562.21	6875.7	
562.4	8477.2	
562.59	9365.4	
562.79	6782.2	
562.98	6331.6	
563.18	8346.2	
563.37	9856.9	
563.56	7197.2	
563.76	6197.8	
563.95	7753.6	
564.14	7731.8	
564.34	6692.8	
564.53	6440.9	
564.73	8324.3	
564.92	8669.7	
565.11	6905.1	
565.31	6240.8	
565.5	8896.4	
565.69	7800.7	
565.89	6370.5	
566.08	6707.1	
566.27	8754.4	
566.47	9127.8	
566.66	7282.6	
566.85	5954.1	
567.05	8404.9	
567.24	7681.9	
567.44	6288.6	
567.63	7783.6	
567.82	8622.6	
568.02	8331.8	
568.21	6259.3	
568.4	6853.9	
568.6	8181	
568.79	8226	
568.98	6134.3	
569.18	6295.5	
569.37	8116.8	
569.56	10150	
569.76	6700.3	
569.95	7633.5	
570.14	8572.1	
570.34	8453.3	
570.53	6108.4	
570.72	6162.3	
570.91	8905.9	
571.11	8043.7	
571.3	6587.6	
571.49	7561.1	
571.69	8023.3	
571.88	7619.8	
572.07	7109.9	
572.27	7056.6	
572.46	7612.3	
572.65	8613.1	
572.85	6326.2	
573.04	6676.4	
573.23	8873.2	
573.43	8094.9	
573.62	6083.1	
573.81	6793.1	
574	8067.6	
574.2	7970	
574.39	6399.2	
574.58	6570.6	
574.78	8948.3	
574.97	8178.9	
575.16	6921.5	
575.36	7200.7	
575.55	8507.9	
575.74	8732.5	
575.93	6034	
576.13	7169.9	
576.32	7912.7	
576.51	8518.2	
576.71	6365.1	
576.9	7767.3	
577.09	8876.6	
577.28	8368	
577.48	6972.7	
577.67	5930.2	
577.86	8019.2	
578.05	8323.6	
578.25	6559.6	
578.44	6684.6	
578.63	8142	
578.83	9312.1	
579.02	5990.3	
579.21	7557.7	
579.4	8317.5	
579.6	8069	
579.79	6842.9	
579.98	9147.6	
580.17	8742.1	
580.37	8788.5	
580.56	6285.2	
580.75	7129.7	
580.94	9265.7	
581.14	9082.7	
581.33	7494.2	
581.52	6383.5	
581.71	8538	
581.91	9265	
582.1	6094.1	
582.29	6741.9	
582.48	8256.7	
582.68	8122.2	
582.87	7237.5	
583.06	6837.5	
583.25	8533.9	
583.45	7919.5	
583.64	7647.1	
583.83	8253.3	
584.02	8103.1	
584.21	8619.9	
584.41	7583.6	
584.6	6805.4	
584.79	8297.7	
584.98	9168.8	
585.18	6253.8	
585.37	6369.9	
585.56	7829.4	
585.75	8643.8	
585.94	6519.4	
586.14	7216.4	
586.33	9397.4	
586.52	8273.1	
586.71	7048.4	
586.91	6799.3	
587.1	7754.3	
587.29	9175.6	
587.48	6795.8	
587.67	6531	
587.87	8628.8	
588.06	8731.9	
588.25	7903.8	
588.44	7232.1	
588.63	8296.3	
588.83	8872.5	
589.02	6674.3	
589.21	6522.8	
589.4	8128.4	
589.59	7852.6	
589.78	5816.9	
589.98	6097.5	
590.17	7474.4	
590.36	8042.4	
590.55	5416.2	
590.74	6270.9	
590.94	9418.6	
591.13	7905.8	
591.32	5885.9	
591.51	5375.2	
591.7	8267	
591.89	7658.7	
592.09	5520	
592.28	6013.5	
592.47	6903	
592.66	8890.2	
592.85	5592.3	
593.05	5771.2	
593.24	7572	
593.43	8346.2	
593.62	5908.4	
593.81	6387.6	
594	7639.6	
594.19	7937.2	
594.39	5827.2	
594.58	5765.7	
594.77	8043.7	
594.96	8723	
595.15	5839.4	
595.34	6491.4	
595.54	8163.2	
595.73	7200.7	
595.92	5257.8	
596.11	6360.3	
596.3	8601.5	
596.49	7320.1	
596.68	6072.2	
596.88	6499.6	
597.07	8339.3	
597.26	7090.8	
597.45	5659.9	
597.64	6885.3	
597.83	7403.4	
598.02	8001.4	
598.22	5713.2	
598.41	6509.8	
598.6	7823.2	
598.79	7264.1	
598.98	5834	
599.17	6711.2	
599.36	7894.2	
599.55	9143.5	
599.74	7964.6	
599.94	7677.2	
600.13	8459.5	
600.32	7339.2	
600.51	5582.8	
600.7	5796.4	
600.89	9180.4	
601.08	9163.3	
601.27	5592.3	
601.47	6626.5	
601.66	8468.4	
601.85	9202.2	
602.04	6285.9	
602.23	6609.5	
602.42	7477.1	
602.61	8238.3	
602.8	6226.5	
602.99	6060.6	
603.18	7913.4	
603.37	8127.7	
603.57	6656.6	
603.76	7243	
603.95	8956.4	
604.14	8423.3	
604.33	6154.1	
604.52	6486.6	
604.71	8110.6	
604.9	7707.2	
605.09	7116	
605.28	6976.1	
605.47	8759.2	
605.66	8463.6	
605.86	6781.5	
606.05	6122.1	
606.24	8824.7	
606.43	7345.4	
606.62	6551.5	
606.81	7262.8	
607	8639.7	
607.19	7838.3	
607.38	5943.2	
607.57	6169.8	
607.76	7730.4	
607.95	7142.6	
608.14	6574.7	
608.33	7190.4	
608.52	7742	
608.72	8626	
608.91	5872.9	
609.1	5764.3	
609.29	7804.1	
609.48	7366.5	
609.67	6718	
609.86	5840.1	
610.05	7353.6	
610.24	7774.8	
610.43	5737	
610.62	5312.4	
610.81	8997.4	
611	8712.7	
611.19	5914.5	
611.38	6602.7	
611.57	8115.4	
611.76	9409.7	
611.95	5633.3	
612.14	5474.2	
612.33	7780.2	
612.52	7418.4	
612.71	6182.8	
612.9	5367.7	
613.09	6939.9	
613.28	9385.2	
613.47	5884.5	
613.66	6900.3	
613.85	8041.7	
614.04	7508.5	
614.24	5988.9	
614.43	5275.6	
614.62	8172.1	
614.81	8068.3	
615	6603.3	
615.19	6672.3	
615.38	7375.4	
615.57	7767.9	
615.76	6507.8	
615.95	7496.9	
616.14	8251.9	
616.33	7893.6	
616.52	6838.9	
616.71	7071	
616.9	8093.6	
617.09	7955	
617.28	6060.6	
617.47	7400	
617.66	7220.5	
617.85	7215.7	
618.04	7019.1	
618.22	6468.9	
618.41	7544.7	
618.6	8411	
618.79	6309.1	
618.98	6066.8	
619.17	8770.8	
619.36	7060.7	
619.55	6231.3	
619.74	6234.7	
619.93	7954.3	
620.12	7438.2	
620.31	6811.5	
620.5	6996.5	
620.69	8987.2	
620.88	9009.7	
621.07	7725.6	
621.26	6699.6	
621.45	8185.7	
621.64	8245.8	
621.83	6796.5	
622.02	5915.9	
622.21	8234.2	
622.4	7922.9	
622.59	7209.5	
622.78	7088	
622.97	7572.7	
623.16	8597.4	
623.35	6734.4	
623.54	5782.1	
623.72	7741.3	
623.91	8038.3	
624.1	6929.6	
624.29	5619.6	
624.48	9014.5	
624.67	8228.7	
624.86	6895.5	
625.05	5789.6	
625.24	9079.3	
625.43	7486	
625.62	8636.3	
625.81	6079.1	
626	8555	
626.19	7787.7	
626.38	6926.9	
626.56	6239.5	
626.75	7613.7	
626.94	8391.9	
627.13	6840.2	
627.32	5560.2	
627.51	8229.4	
627.7	9583.1	
627.89	5670.1	
628.08	6877.1	
628.27	7364.5	
628.46	7540.6	
628.65	5895.4	
628.83	5555.5	
629.02	8089.5	
629.21	7385	
629.4	6340.5	
629.59	6589	
629.78	7298.3	
629.97	8351.6	
630.16	6625.2	
630.35	5997.1	
630.54	8790.6	
630.72	8464.9	
630.91	6046.3	
631.1	6720.1	
631.29	7920.9	
631.48	8133.8	
631.67	6821.1	
631.86	6212.9	
632.05	7494.9	
632.24	7587.7	
632.42	5825.1	
632.61	6490.7	
632.8	7744.1	
632.99	7406.8	
633.18	6399.2	
633.37	6993.8	
633.56	8043.7	
633.75	7780.9	
633.93	6442.9	
634.12	6139.8	
634.31	8856.8	
634.5	8418.5	
634.69	6206.7	
634.88	6740.5	
635.07	7788.4	
635.25	8397.4	
635.44	7176.8	
635.63	7311.2	
635.82	7647.1	
636.01	7174.7	
636.2	7153.6	
636.39	6595.1	
636.57	8795.3	
636.76	8444.5	
636.95	6056.5	
637.14	7480.5	
637.33	8138.6	
637.52	9019.9	
637.7	5828.5	
637.89	6895.5	
638.08	7692.9	
638.27	9210.4	
638.46	6949.4	
638.65	7434.8	
638.83	9231.6	
639.02	7520.8	
639.21	6789.7	
639.4	7328.3	
639.59	8054.7	
639.78	7648.5	
639.96	6117.3	
640.15	6186.2	
640.34	7892.2	
640.53	8101.8	
640.72	5834	
640.91	6143.2	
641.09	7359	
641.28	8770.8	
641.47	6116.6	
641.66	7021.1	
641.85	8011	
642.03	8344.8	
642.22	6894.8	
642.41	6300.2	
642.6	7490.1	
642.79	6853.9	
642.97	6055.8	
643.16	6782.2	
643.35	7504.4	
643.54	7280.5	
643.73	5999.9	
643.91	6855.9	
644.1	7189.7	
644.29	7689.4	
644.48	6061.3	
644.67	6058.6	
644.85	7374.1	
645.04	7638.2	
645.23	5584.8	
645.42	5955.5	
645.6	7146.7	
645.79	8404.2	
645.98	5899.5	
646.17	4946.5	
646.36	6803.4	
646.54	7510.6	
646.73	6702.3	
646.92	5386.8	
647.11	7103.7	
647.29	8228.1	
647.48	5571.2	
647.67	5367	
647.86	8388.5	
648.05	8431.5	
648.23	5870.8	
648.42	7230	
648.61	7720.2	
648.8	7486.7	
648.98	5524.1	
649.17	5926.1	
649.36	7034.8	
649.55	6501.6	
649.73	5645.6	
649.92	6369.2	
650.11	7006.1	
650.3	7481.9	
650.48	5820.3	
650.67	5576.6	
650.86	7689.4	
651.05	6609.5	
651.23	5772.5	
651.42	5664	
651.61	7055.9	
651.79	7161.7	
651.98	5851	
652.17	5565.7	
652.36	7617.1	
652.54	6650.4	
652.73	5558.2	
652.92	5489.9	
653.11	7699	
653.29	7753.6	
653.48	4900.8	
653.67	5961.6	
653.85	7429.3	
654.04	8539.3	
654.23	6155.5	
654.42	5667.4	
654.6	6926.2	
654.79	7605.5	
654.98	5203.9	
655.16	5771.9	
655.35	6604.7	
655.54	6438.8	
655.73	5273.5	
655.91	5210.7	
656.1	7729.7	
656.29	6445	
656.47	4713.1	
656.66	6584.2	
656.85	6748.7	
657.03	6814.3	
657.22	5290.6	
657.41	5410.7	
657.59	6927.6	
657.78	6666.1	
657.97	4974.5	
658.16	5821	
658.34	7578.8	
658.53	7929.1	
658.72	6674.3	
658.9	7293.5	
659.09	7023.9	
659.28	7163.1	
659.46	5554.1	
659.65	5518.6	
659.84	6784.9	
660.02	7415.7	
660.21	5412.8	
660.4	5333.6	
660.58	7843	
660.77	7154.2	
660.96	6029.2	
661.14	5024.3	
661.33	8411	
661.52	8240.3	
661.7	5006.6	
661.89	8877.3	
662.08	6855.9	
662.26	6408.1	
662.45	5276.9	
662.64	5446.9	
662.82	7511.3	
663.01	6711.2	
663.2	5474.2	
663.38	6135.7	
663.57	7388.4	
663.75	7352.9	
663.94	5793	
664.13	7159	
664.31	6749.4	
664.5	7471	
664.69	5952.1	
664.87	6634.1	
665.06	6565.1	
665.25	7351.5	
665.43	6810.9	
665.62	6964.5	
665.8	7716.1	
665.99	6974	
666.18	5838.1	
666.36	5941.8	
666.55	7611.6	
666.74	7478.5	
666.92	5407.3	
667.11	7051.2	
667.29	6926.2	
667.48	7575.4	
667.67	6698.9	
667.85	5824.4	
668.04	7014.3	
668.22	7032	
668.41	5797.1	
668.6	6061.3	
668.78	6793.1	
668.97	7021.8	
669.15	6240.8	
669.34	5162.9	
669.53	6782.9	
669.71	7175.4	
669.9	5342.5	
670.08	5991.7	
670.27	6775.4	
670.46	7387.7	
670.64	6237.4	
670.83	6491.4	
671.01	6692.8	
671.2	7350.8	
671.38	5451.7	
671.57	5317.2	
671.76	7916.1	
671.94	8596	
672.13	5304.9	
672.31	6477.7	
672.5	7548.8	
672.69	6817	
672.87	5414.8	
673.06	5825.8	
673.24	7347.4	
673.43	6752.8	
673.61	6251.1	
673.8	5764.3	
673.98	7559.7	
674.17	7717.4	
674.36	6393.8	
674.54	6167.1	
674.73	7371.3	
674.91	7527	
675.1	5840.1	
675.28	5528.2	
675.47	7099.6	
675.65	7608.9	
675.84	5739.1	
676.03	6111.1	
676.21	6802.7	
676.4	6367.1	
676.58	6617.7	
676.77	6339.1	
676.95	8318.2	
677.14	6780.8	
677.32	5463.3	
677.51	5183.4	
677.69	7591.1	
677.88	6423.8	
678.06	5270.8	
678.25	5361.6	
678.44	7098.3	
678.62	6767.9	
678.81	5077.6	
678.99	6146	
679.18	7905.2	
679.36	7485.3	
679.55	5700.9	
679.73	6357.6	
679.92	7401.4	
680.1	6859.3	
680.29	6961.7	
680.47	5704.3	
680.66	6696.9	
680.84	7637.6	
681.03	4917.9	
681.21	6117.3	
681.4	6796.5	
681.58	6745.3	
681.77	5456.5	
681.95	5338.4	
682.14	7701.7	
682.32	8026.7	
682.51	6325.5	
682.69	5087.8	
682.88	6681.8	
683.06	7456.7	
683.25	6042.9	
683.43	6506.4	
683.62	6978.1	
683.8	7451.2	
683.99	6614.3	
684.17	5949.3	
684.36	8264.2	
684.54	6910.5	
684.73	5021.6	
684.91	5238.7	
685.1	7279.8	
685.28	6689.3	
685.46	5769.1	
685.65	5810.8	
685.83	7303.1	
686.02	6684.6	
686.2	5149.3	
686.39	5312.4	
686.57	6302.3	
686.76	7991.2	
686.94	5215.5	
687.13	5358.2	
687.31	7247.8	
687.5	6683.2	
687.68	4805.9	
687.86	6073.6	
688.05	8284	
688.23	6197.8	
688.42	6097.5	
688.6	5331.5	
688.79	6597.9	
688.97	6625.2	
689.16	5707.7	
689.34	4635.9	
689.52	7389.8	
689.71	7587.7	
689.89	6023.8	
690.08	5237.3	
690.26	6915.3	
690.45	6792.4	
690.63	6165.1	
690.81	5376.6	
691	6614.9	
691.18	6533.7	
691.37	5494	
691.55	7748.8	
691.74	6540.5	
691.92	8497.7	
692.1	5506.3	
692.29	4885.1	
692.47	6692.1	
692.66	5895.4	
692.84	5083.1	
693.02	5847.6	
693.21	6057.9	
693.39	6677.1	
693.58	5782.1	
693.76	5230.5	
693.94	7838.3	
694.13	7607.5	
694.31	5166.3	
694.5	6364.4	
694.68	6402	
694.86	6773.3	
695.05	5552	
695.23	6066.1	
695.42	7249.1	
695.6	9641.8	
695.78	6281.1	
695.97	5351.3	
696.15	7305.1	
696.34	6700.3	
696.52	5168.4	
696.7	6006	
696.89	7055.3	
697.07	6332.3	
697.25	5927.5	
697.44	7426.6	
697.62	6934.4	
697.81	7275.1	
697.99	5455.1	
698.17	5916.6	
698.36	6326.9	
698.54	6957.6	
698.72	5827.2	
698.91	4787.5	
699.09	6467.5	
699.28	6407.4	
699.46	5467.4	
699.64	5393.7	
699.83	6264.7	
700.01	7658	
700.19	6208.1	
700.38	4529.4	
700.56	7539.9	
700.74	6423.1	
700.93	4959.5	
701.11	5840.1	
701.29	7002	
701.48	8088.1	
701.66	5253	
701.84	5280.3	
702.03	6592.4	
702.21	7247.8	
702.39	4827.1	
702.58	5403.9	
702.76	6977.4	
702.94	7100.3	
703.13	4820.9	
703.31	7329.7	
703.49	6247	
703.68	7678.5	
703.86	4984.8	
704.04	5967.8	
704.23	6825.2	
704.41	7225.2	
704.59	5206.6	
704.78	6490	
704.96	7906.5	
705.14	7331	
705.33	4943.1	
705.51	5825.1	
705.69	6651.8	
705.87	7553.6	
706.06	6149.4	
706.24	4962.9	
706.42	6890.7	
706.61	7228	
706.79	6168.5	
706.97	4939	
707.16	6392.4	
707.34	7083.2	
707.52	6128.9	
707.7	5188.2	
707.89	6657.9	
708.07	6318	
708.25	6098.9	
708.44	6172.6	
708.62	6518	
708.8	7623.9	
708.98	6430.6	
709.17	5279.7	
709.35	6927.6	
709.53	6997.2	
709.72	5043.5	
709.9	5201.8	
710.08	7165.2	
710.26	7215.7	
710.45	6733.7	
710.63	5302.2	
710.81	6848.4	
710.99	6897.6	
711.18	5961	
711.36	5507	
711.54	6665.5	
711.72	7448.5	
711.91	5614.2	
712.09	4950.6	
712.27	6881.9	
712.45	7550.9	
712.64	5835.3	
712.82	4706.2	
713	6221.7	
713.18	6451.1	
713.37	4919.2	
713.55	6169.8	
713.73	7370.6	
713.91	5872.9	
714.1	5308.3	
714.28	4758.8	
714.46	7018.4	
714.64	6163.7	
714.83	4129.4	
715.01	5037.3	
715.19	6215.6	
715.37	5573.2	
715.55	4704.9	
715.74	5089.9	
715.92	7234.1	
716.1	5113.8	
716.28	6133	
716.47	5278.3	
716.65	5785.5	
716.83	5973.9	
717.01	5051.7	
717.19	5105.6	
717.38	8110	
717.56	5587.5	
717.74	5287.2	
717.92	4367.6	
718.1	6812.9	
718.29	5992.4	
718.47	3956.7	
718.65	4739	
718.83	6655.2	
719.01	6678.4	
719.2	3836.5	
719.38	5012.7	
719.56	6378.7	
719.74	8045.8	
719.92	4609.3	
720.11	5687.9	
720.29	6476.4	
720.47	5543.9	
720.65	4206.5	
720.83	5168.4	
721.02	5869.5	
721.2	5679.7	
721.38	5134.3	
721.56	4308.9	
721.74	5170.4	
721.92	5362.9	
722.11	5605.3	
722.29	5296	
722.47	6677.7	
722.65	5737	
722.83	4377.9	
723.01	5379.3	
723.2	5887.2	
723.38	6234	
723.56	3739.6	
723.74	4960.9	
723.92	5382.1	
724.1	6610.2	
724.29	4241.3	
724.47	5563	
724.65	5454.4	
724.83	5332.2	
725.01	4173.1	
725.19	5146.5	
725.37	5470.1	
725.56	5538.4	
725.74	4070.7	
725.92	4307.6	
726.1	5380.7	
726.28	5650.3	
726.46	4773.8	
726.64	4441.4	
726.83	5619.6	
727.01	5990.3	
727.19	4024.9	
727.37	4878.9	
727.55	5784.1	
727.73	6311.8	
727.91	3982.6	
728.09	3824.2	
728.28	6322.1	
728.46	6972.7	
728.64	4910.3	
728.82	4955.4	
729	7478.5	
729.18	6623.8	
729.36	4105.5	
729.54	6552.1	
729.72	7759.1	
729.91	6001.9	
730.09	6161.7	
730.27	4786.8	
730.45	5902.9	
730.63	6554.2	
730.81	5473.5	
730.99	4553.3	
731.17	7008.8	
731.35	5578	
731.53	5058.5	
731.71	4647.5	
731.9	6746.7	
732.08	7022.5	
732.26	4893.3	
732.44	4543.8	
732.62	7025.2	
732.8	6545.3	
732.98	5317.9	
733.16	4309.6	
733.34	6495.5	
733.52	5239.4	
733.7	4853.7	
733.88	5072.1	
734.07	6355.5	
734.25	6065.4	
734.43	4330.1	
734.61	5935.7	
734.79	7511.9	
734.97	5978.7	
735.15	4496	
735.33	4873.5	
735.51	6358.9	
735.69	5977.3	
735.87	6032.6	
736.05	5076.9	
736.23	6182.1	
736.41	5947.3	
736.59	4820.9	
736.77	5026.4	
736.95	6615.6	
737.13	5991	
737.32	4534.2	
737.5	4768.4	
737.68	7199.3	
737.86	5965.7	
738.04	4306.2	
738.22	6273.6	
738.4	5718.6	
738.58	6105	
738.76	5054.4	
738.94	3948.5	
739.12	5872.9	
739.3	5807.4	
739.48	5629.2	
739.66	5326.1	
739.84	6154.1	
740.02	6204.7	
740.2	4014.7	
740.38	4377.2	
740.56	6566.5	
740.74	5369.1	
740.92	5092.6	
741.1	5012.7	
741.28	5999.9	
741.46	5844.2	
741.64	4620.9	
741.82	5190.9	
742	6005.3	
742.18	5995.8	
742.36	4872.1	
742.54	4378.6	
742.72	6580.1	
742.9	5340.4	
743.08	5283.1	
743.26	4030.4	
743.44	6899.6	
743.62	6659.3	
743.8	5428.5	
743.98	4439.3	
744.16	6347.3	
744.34	6023.1	
744.52	5332.9	
744.7	5262.6	
744.88	6453.8	
745.06	6038.1	
745.24	5406.6	
745.42	5500.2	
745.6	6584.2	
745.78	6395.8	
745.96	4125.3	
746.14	4455.7	
746.32	7424.6	
746.5	6655.2	
746.68	5054.4	
746.86	4526.7	
747.03	7178.1	
747.21	5309	
747.39	5099.4	
747.57	4596.3	
747.75	6196.5	
747.93	6645	
748.11	4581.3	
748.29	4416.1	
748.47	7856.7	
748.65	5915.2	
748.83	5342.5	
749.01	4920.6	
749.19	6464.8	
749.37	5561.6	
749.55	4844.1	
749.73	4962.9	
749.91	6040.1	
750.09	5755.5	
750.26	4999.1	
750.44	4380.6	
750.62	6087.2	
750.8	6094.8	
750.98	4182	
751.16	4541	
751.34	6172.6	
751.52	5477.6	
751.7	5341.1	
751.88	4190.1	
752.06	6685.9	
752.24	6406.7	
752.42	4095.9	
752.59	4470.7	
752.77	6018.3	
752.95	7349.5	
753.13	5311.7	
753.31	4678.2	
753.49	5737	
753.67	6208.1	
753.85	4968.4	
754.03	4534.2	
754.21	6485.9	
754.38	6876.4	
754.56	4757.4	
754.74	3778.5	
754.92	5766.4	
755.1	6537.8	
755.28	3792.8	
755.46	3850.9	
755.64	7352.9	
755.82	7489.4	
755.99	4192.2	
756.17	4328	
756.35	4882.4	
756.53	6569.2	
756.71	3184.6	
756.89	4174.4	
757.07	6133	
757.25	5143.1	
757.42	4719.2	
757.6	5627.1	
757.78	6108.4	
757.96	5063.3	
758.14	4407.2	
758.32	3803.8	
758.5	4603.8	
758.67	5464	
758.85	4152.6	
759.03	4337.6	
759.21	5710.4	
759.39	5120.6	
759.57	3719.8	
759.75	4925.4	
759.92	6328.2	
760.1	5519.3	
760.28	5319.9	
760.46	5563	
760.64	5349.3	
760.82	5049.6	
760.99	5103.5	
761.17	4248.9	
761.35	6171.9	
761.53	5130.8	
761.71	4282.3	
761.89	5044.1	
762.06	6059.3	
762.24	5500.2	
762.42	4436.6	
762.6	4177.2	
762.78	5470.1	
762.96	6211.5	
763.13	4825	
763.31	4474.1	
763.49	6381.5	
763.67	5464	
763.85	5390.9	
764.02	5958.9	
764.2	6612.9	
764.38	5735.7	
764.56	4373.8	
764.74	5250.3	
764.91	6836.8	
765.09	5565	
765.27	4005.8	
765.45	3825.6	
765.63	6821.1	
765.8	6688	
765.98	3605.8	
766.16	3945.8	
766.34	5139	
766.52	4965	
766.69	4922	
766.87	3732.1	
767.05	5620.3	
767.23	6488	
767.41	4156	
767.58	4444.1	
767.76	6212.9	
767.94	6294.8	
768.12	4270	
768.29	5024.3	
768.47	5729.5	
768.65	6402	
768.83	3913.7	
769	5106.3	
769.18	5223	
769.36	6018.3	
769.54	4858.5	
769.72	3882.3	
769.89	6298.2	
770.07	6503	
770.25	4260.5	
770.43	5579.3	
770.6	7068.9	
770.78	7488.1	
770.96	4450.2	
771.14	5122.7	
771.31	6261.3	
771.49	5511.1	
771.67	3563.5	
771.85	3804.4	
772.02	4794.3	
772.2	5608	
772.38	4550.6	
772.55	4102.8	
772.73	5791.7	
772.91	5630.5	
773.09	4437.9	
773.26	4623.6	
773.44	5808.7	
773.62	5492	
773.8	3983.3	
773.97	3710.2	
774.15	5862	
774.33	5497.4	
774.5	3864.5	
774.68	4328	
774.86	6129.6	
775.04	5502.9	
775.21	3977.2	
775.39	3960.8	
775.57	5847	
775.74	6223.8	
775.92	3877.5	
776.1	3753.2	
776.27	5791.7	
776.45	7144.7	
776.63	4008.6	
776.81	3517.7	
776.98	5422.3	
777.16	6548.7	
777.34	4135.5	
777.51	4097.3	
777.69	5387.5	
777.87	5188.9	
778.04	4201.1	
778.22	4842.1	
778.4	5253.7	
778.57	5947.3	
778.75	3435.1	
778.93	3785.3	
779.1	5003.2	
779.28	4918.5	
779.46	3489.1	
779.64	4009.2	
779.81	6105.7	
779.99	7004.7	
780.17	4840	
780.34	5064.6	
780.52	5540.4	
780.69	5741.1	
780.87	4353.3	
781.05	3857	
781.22	5552	
781.4	5615.5	
781.58	4059.8	
781.75	3165.5	
781.93	5612.8	
782.11	5010	
782.28	4923.3	
782.46	4020.2	
782.64	4865.3	
782.81	5827.2	
782.99	4096.6	
783.17	4089.1	
783.34	5706.3	
783.52	4886.5	
783.69	4369.7	
783.87	5200.5	
784.05	5020.3	
784.22	5044.1	
784.4	5180.7	
784.58	4397.7	
784.75	6032.6	
784.93	5061.2	
785.1	4108.9	
785.28	4766.3	
785.46	5692	
785.63	5043.5	
785.81	3979.9	
785.99	3819.5	
786.16	5215.5	
786.34	5685.8	
786.51	3885	
786.69	4349.9	
786.87	4788.2	
787.04	5383.4	
787.22	3787.4	
787.39	4824.3	
787.57	4967	
787.75	6162.3	
787.92	4889.9	
788.1	4934.9	
788.27	5069.4	
788.45	4810	
788.63	4605.2	
788.8	3252.2	
788.98	5449.6	
789.15	4719.2	
789.33	3429.7	
789.5	4104.8	
789.68	6023.8	
789.86	6122.1	
790.03	4588.8	
790.21	3949.8	
790.38	5989.6	
790.56	5199.1	
790.73	3827	
790.91	3865.2	
791.09	5090.6	
791.26	5851.7	
791.44	4068.6	
791.61	3506.1	
791.79	5049.6	
791.96	5147.2	
792.14	3644	
792.32	3175	
792.49	5079.6	
792.67	5186.1	
792.84	3736.9	
793.02	3493.8	
793.19	5544.5	
793.37	6368.5	
793.54	3198.9	
793.72	3581.2	
793.89	6470.9	
794.07	5128.1	
794.25	4210.6	
794.42	3267.9	
794.6	6221	
794.77	5823.7	
794.95	4528.1	
795.12	3942.3	
795.3	5029.8	
795.47	5707.7	
795.65	4334.2	
795.82	4160.1	
796	4904.2	
796.17	6931.7	
796.35	4032.5	
796.52	4770.4	
796.7	5617.6	
796.87	5752.1	
797.05	5036.6	
797.22	4913.8	
797.4	5715.9	
797.57	6736.5	
797.75	4144.4	
797.92	3899.3	
798.1	6109.1	
798.27	5087.2	
798.45	3301.3	
798.62	3644	
798.8	5406.6	
798.97	5955.5	
799.15	4377.9	
799.32	4149.9	
799.5	4620.2	
799.67	5488.6	
799.85	4579.9	
800.02	3278.1	
800.2	5048.9	
800.37	5393	
800.55	4689.2	
800.72	3921.2	
800.9	5922.7	
801.07	6330.3	
801.25	5300.1	
801.42	4314.4	
801.6	5963.7	
801.77	5621	
801.95	3796.3	
802.12	3828.3	
802.29	5603.2	
802.47	5602.6	
802.64	4248.9	
802.82	3190.1	
802.99	5029.8	
803.17	6106.4	
803.34	4107.5	
803.52	3773	
803.69	6731.7	
803.87	4818.2	
804.04	4091.2	
804.21	4264.6	
804.39	6256.5	
804.56	5294	
804.74	3545	
804.91	4400.4	
805.09	5072.8	
805.26	5207.3	
805.44	3543.7	
805.61	3940.3	
805.78	5799.2	
805.96	5859.2	
806.13	4343.7	
806.31	4632.5	
806.48	4670.1	
806.66	5156.1	
806.83	4293.2	
807	4212	
807.18	5070.8	
807.35	5509.7	
807.53	4207.2	
807.7	3343	
807.87	6328.2	
808.05	5148.6	
808.22	4600.4	
808.4	3347.7	
808.57	5129.5	
808.74	4801.8	
808.92	3800.3	
809.09	4902.8	
809.27	4975.2	
809.44	5711.8	
809.61	3389.4	
809.79	3781.9	
809.96	6317.3	
810.14	5893.4	
810.31	3278.1	
810.48	4054.3	
810.66	5231.9	
810.83	5971.2	
811.01	3848.1	
811.18	4290.5	
811.35	5874.9	
811.53	4588.1	
811.7	4691.2	
811.87	4317.1	
812.05	5132.2	
812.22	5074.2	
812.39	3672.7	
812.57	3590.1	
812.74	5149.3	
812.92	6912.6	
813.09	4083.6	
813.26	4397.7	
813.44	6533	
813.61	5040.7	
813.78	3356.6	
813.96	4547.9	
814.13	5208.7	
814.3	4780	
814.48	4938.3	
814.65	4113.7	
814.82	6412.9	
815	4930.1	
815.17	4138.3	
815.34	5058.5	
815.52	5036	
815.69	5088.5	
815.87	4145.8	
816.04	3543	
816.21	5124	
816.38	4500.8	
816.56	3960.1	
816.73	3677.5	
816.9	6548	
817.08	5933	
817.25	3762.8	
817.42	4753.3	
817.6	4649.6	
817.77	5180.7	
817.94	4280.9	
818.12	3687	
818.29	4879.6	
818.46	7671.7	
818.64	3880.2	
818.81	3663.8	
818.98	4780.6	
819.16	7004.7	
819.33	4530.1	
819.5	4179.2	
819.67	5537	
819.85	6214.9	
820.02	4087.7	
820.19	4350.6	
820.37	5339.1	
820.54	4954	
820.71	4242	
820.88	5279.7	
821.06	5420.3	
821.23	4884.4	
821.4	4274.8	
821.58	4174.4	
821.75	5883.8	
821.92	5327.4	
822.09	3377.1	
822.27	3480.2	
822.44	5150	
822.61	5055.8	
822.79	3376.4	
822.96	6640.9	
823.13	5629.2	
823.3	4860.5	
823.48	3971	
823.65	3620.1	
823.82	5838.1	
823.99	4668	
824.17	5009.3	
824.34	3573.7	
824.51	6806.1	
824.68	5217.5	
824.86	3795.6	
825.03	4240.7	
825.2	5094.7	
825.37	6256.5	
825.55	3752.6	
825.72	4156	
825.89	6951.5	
826.06	6374	
826.24	4061.1	
826.41	4096.6	
826.58	6268.1	
826.75	5479.7	
826.92	3190.7	
827.1	3575.1	
827.27	8571.4	
827.44	6820.4	
827.61	3862.5	
827.79	4694.6	
827.96	4878.9	
828.13	5287.2	
828.3	3975.1	
828.47	3345	
828.65	5375.9	
828.82	5327.4	
828.99	5272.8	
829.16	4558.8	
829.34	5812.8	
829.51	5560.9	
829.68	4177.9	
829.85	4432.5	
830.02	6034.7	
830.2	5793.7	
830.37	3200.3	
830.54	5041.4	
830.71	6579.4	
830.88	5111	
831.05	3284.9	
831.23	3786.7	
831.4	6297.5	
831.57	7136.5	
831.74	3855.6	
831.91	3448.1	
832.09	5399.1	
832.26	5771.9	
832.43	3988.8	
832.6	4539.7	
832.77	5416.2	
832.94	6169.8	
833.12	3110.9	
833.29	3985.3	
833.46	4992.9	
833.63	7382.2	
833.8	4381.3	
833.97	4007.9	
834.15	5847	
834.32	5558.9	
834.49	4175.8	
834.66	4257	
834.83	6024.4	
835	4863.2	
835.17	3865.2	
835.35	3850.2	
835.52	5760.9	
835.69	5603.9	
835.86	4088.4	
836.03	3362.8	
836.2	5726.8	
836.37	5352	
836.55	4046.8	
836.72	3768.3	
836.89	5352.7	
837.06	5791	
837.23	4093.2	
837.4	4489.8	
837.57	6647.7	
837.75	7376.1	
837.92	3649.5	
838.09	3950.5	
838.26	5258.5	
838.43	6036.7	
838.6	4181.3	
838.77	3790.8	
838.94	6924.9	
839.11	6627.9	
839.29	3963.5	
839.46	3137.5	
839.63	5716.6	
839.8	5502.2	
839.97	3889.1	
840.14	3880.2	
840.31	5506.3	
840.48	5834	
840.65	3226.2	
840.82	3839.3	
841	5773.9	
841.17	5754.8	
841.34	3627.6	
841.51	3652.2	
841.68	5705.6	
841.85	5434.6	
842.02	3759.4	
842.19	3059	
842.36	5468.1	
842.53	5472.2	
842.7	3586.7	
842.87	4422.9	
843.05	7322.9	
843.22	5421.7	
843.39	3399.6	
843.56	3636.5	
843.73	5171.8	
843.9	5816.9	
844.07	5767.1	
844.24	4813.4	
844.41	8582.4	
844.58	5008.6	
844.75	3411.9	
844.92	3817.4	
845.09	5796.4	
845.26	5731.6	
845.43	3568.2	
845.6	3730.7	
845.77	5726.8	
845.94	5494	
846.12	4013.3	
846.29	4147.8	
846.46	5975.3	
846.63	5739.1	
846.8	3597.6	
846.97	4283.7	
847.14	6263.4	
847.31	5735.7	
847.48	4049.5	
847.65	4422.9	
847.82	6071.5	
847.99	5977.3	
848.16	4792.9	
848.33	4433.9	
848.5	5315.2	
848.67	6255.2	
848.84	3493.2	
849.01	3758.7	
849.18	5115.8	
849.35	4825	
849.52	4461.8	
849.69	3533.4	
849.86	5908.4	
850.03	6208.1	
850.2	3624.9	
850.37	4422.2	
850.54	6107	
850.71	5431.2	
850.88	4308.2	
851.05	3575.1	
851.22	5635.3	
851.39	6322.8	
851.56	3377.1	
851.73	4120.5	
851.9	5043.5	
852.07	5956.2	
852.24	3969.6	
852.41	3502	
852.58	5578.7	
852.75	5107.6	
852.92	4024.9	
853.09	3439.9	
853.26	5331.5	
853.43	6223.8	
853.6	3547.8	
853.77	3031.7	
853.94	6310.5	
854.11	5705.6	
854.28	5335.6	
854.44	3851.5	
854.61	6825.9	
854.78	5835.3	
854.95	3530	
855.12	4503.5	
855.29	4578.6	
855.46	6434.7	
855.63	3573.7	
855.8	4968.4	
855.97	5302.9	
856.14	6095.4	
856.31	5084.4	
856.48	3789.4	
856.65	5284.4	
856.82	4997	
856.99	3372.3	
857.16	3849.5	
857.33	6999.3	
857.49	5410.1	
857.66	3855	
857.83	4120.5	
858	5352	
858.17	5595.7	
858.34	3327.9	
858.51	3605.1	
858.68	6519.4	
858.85	6505	
859.02	4140.3	
859.19	4488.5	
859.36	4991.6	
859.52	5099.4	
859.69	3607.8	
859.86	4169	
860.03	5136.3	
860.2	6350.8	
860.37	3232.4	
860.54	3603.7	
860.71	5939.8	
860.88	6429.9	
861.05	4007.9	
861.21	4502.8	
861.38	6455.2	
861.55	4930.8	
861.72	3279.5	
861.89	3960.1	
862.06	6062.7	
862.23	6572.6	
862.4	3457.7	
862.56	3695.2	
862.73	5836	
862.9	5553.4	
863.07	4160.1	
863.24	3252.2	
863.41	4939.7	
863.58	5045.5	
863.75	3635.8	
863.91	4119.8	
864.08	6413.6	
864.25	5952.1	
864.42	4545.1	
864.59	4970.4	
864.76	6753.5	
864.93	5055.8	
865.09	3489.1	
865.26	3812	
865.43	6269.5	
865.6	6660	
865.77	3123.8	
865.94	3528.7	
866.1	6323.4	
866.27	6076.3	
866.44	5453.7	
866.61	3321.8	
866.78	5455.1	
866.95	5883.8	
867.11	3446	
867.28	3127.2	
867.45	6116.6	
867.62	5106.3	
867.79	4216.8	
867.96	3568.9	
868.12	5010.7	
868.29	6018.3	
868.46	3107.5	
868.63	4745.1	
868.8	6193.7	
868.97	6006.7	
869.13	3725.9	
869.3	3759.4	
869.47	5907	
869.64	6109.1	
869.81	3573	
869.97	3540.9	
870.14	5726.1	
870.31	6440.9	
870.48	3469.3	
870.65	4485.7	
870.81	5357.5	
870.98	5330.9	
871.15	4051.6	
871.32	3699.3	
871.48	5869.5	
871.65	6511.9	
871.82	3474.7	
871.99	3966.2	
872.16	7009.5	
872.32	6289.3	
872.49	3602.4	
872.66	3627	
872.83	6031.3	
872.99	5253	
873.16	4063.9	
873.33	3553.2	
873.5	5593	
873.67	5621.7	
873.83	3779.2	
874	4781.3	
874.17	5772.5	
874.34	6878.4	
874.5	4584	
874.67	4431.8	
874.84	6373.3	
875.01	5023.7	
875.17	5033.9	
875.34	3569.6	
875.51	5617.6	
875.68	6865.5	
875.84	4299.4	
876.01	5196.4	
876.18	5917.3	
876.34	5859.9	
876.51	3590.1	
876.68	3452.9	
876.85	5433.9	
877.01	6240.2	
877.18	5112.4	
877.35	3526.6	
877.52	5511.1	
877.68	4967	
877.85	3447.4	
878.02	3527.3	
878.18	5553.4	
878.35	5236.7	
878.52	2871.9	
878.69	3987.4	
878.85	5986.9	
879.02	5948	
879.19	5091.3	
879.35	3812	
879.52	5943.9	
879.69	6146	
879.86	3087	
880.02	3987.4	
880.19	5511.8	
880.36	6638.1	
880.52	4157.4	
880.69	4280.9	
880.86	6066.1	
881.02	6107.7	
881.19	3884.3	
881.36	3913	
881.52	5940.5	
881.69	5288.5	
881.86	3847.5	
882.02	3742.3	
882.19	6193.7	
882.36	7290.8	
882.52	3672.7	
882.69	5009.3	
882.86	5740.5	
883.02	5631.2	
883.19	4330.8	
883.36	4093.2	
883.52	6094.1	
883.69	6911.2	
883.86	3630.4	
884.02	3220.8	
884.19	6066.8	
884.36	5548.6	
884.52	4057	
884.69	3812.6	
884.86	5285.1	
885.02	6612.2	
885.19	4028.4	
885.36	4140.3	
885.52	5553.4	
885.69	5705	
885.86	5117.9	
886.02	4575.8	
886.19	5960.3	
886.35	5424.4	
886.52	3951.2	
886.69	5028.4	
886.85	5096.7	
887.02	6441.5	
887.19	6441.5	
887.35	6441.5	
887.52	6441.5	
887.68	6441.5	
887.85	6441.5	
888.02	6441.5	
888.18	6441.5	
888.35	6441.5	
888.51	6441.5	
888.68	6441.5	
888.85	6441.5	
889.01	6441.5	
889.18	6441.5	
889.35	6441.5	
889.51	6441.5	
889.68	6441.5	
889.84	6441.5	
890.01	6441.5	
890.17	6441.5	
890.34	6441.5	
890.51	6441.5	
890.67	6441.5	
890.84	6441.5	
891	6441.5	
891.17	6441.5	
891.34	6441.5	
891.5	6441.5	
891.67	6441.5	
891.83	6441.5	
892	6441.5	
892.16	6441.5	
892.33	6441.5	
892.5	6441.5	
892.66	6441.5	
892.83	6441.5	
892.99	6441.5	
893.16	6441.5	
893.32	6441.5	
893.49	6441.5	
893.65	6441.5	
893.82	6441.5	
893.99	6441.5	
894.15	6441.5	
894.32	6441.5	
894.48	6441.5	
894.65	6441.5	
894.81	6441.5	
894.98	6441.5	
895.14	6441.5	
895.31	6441.5	
895.47	6441.5	
895.64	6441.5	
895.81	6441.5	
895.97	6441.5	
896.14	6441.5	
896.3	6441.5	
896.47	6441.5	
896.63	6441.5	
896.8	6441.5	
896.96	6441.5	
897.13	6441.5	
897.29	6441.5	
897.46	6441.5	
897.62	6441.5	
897.79	6441.5	
897.95	6441.5	
898.12	6441.5	
898.28	6441.5	
898.45	6441.5	
898.61	6441.5	
898.78	6441.5	
898.94	6441.5	
899.11	6441.5	
899.27	6441.5	
899.44	6441.5	
899.6	6441.5	
899.77	6441.5	
899.93	6441.5	
900.1	6441.5	
900.26	6441.5	
900.43	6441.5	
900.59	6441.5	
900.76	6441.5	
900.92	6441.5	
901.09	6441.5	
901.25	6441.5	
901.42	6441.5	
901.58	6441.5	
901.75	6441.5	
901.91	6441.5	
902.07	6441.5	
902.24	6441.5	
902.4	6441.5	
902.57	6441.5	
902.73	6441.5	
902.9	6441.5	
903.06	6441.5	
903.23	6441.5	
903.39	6441.5	
903.56	6441.5	
903.72	6441.5	
903.88	6441.5	
904.05	6441.5	
904.21	6441.5	
904.38	6441.5	
904.54	6441.5	
904.71	6441.5	
904.87	6441.5	
905.03	6441.5	
905.2	6441.5	
905.36	6441.5	
905.53	6441.5	
905.69	6441.5	
905.86	6441.5	
906.02	6441.5	
906.18	6441.5	
906.35	6441.5	
906.51	6441.5	
906.68	6441.5	
906.84	6441.5	
907.01	6441.5	
907.17	6441.5	
907.33	6441.5	
907.5	6441.5	
907.66	6441.5	
907.83	6441.5	
907.99	6441.5	
908.15	6441.5	
908.32	6441.5	
908.48	6441.5	
908.65	6441.5	
908.81	6441.5	
908.97	6441.5	
909.14	6441.5	
909.3	6441.5	
909.47	6441.5	
909.63	6441.5	
909.79	6441.5	
909.96	6441.5	
910.12	6441.5	
910.28	6441.5	
910.45	6441.5	
910.61	6441.5	
910.78	6441.5	
910.94	6441.5	
911.1	6441.5	
911.27	6441.5	
911.43	6441.5	
911.59	6441.5	
911.76	6441.5	
911.92	6441.5	
912.08	6441.5	
912.25	6441.5	
912.41	6441.5	
912.57	6441.5	
912.74	6441.5	
912.9	6441.5	
913.07	6441.5	
913.23	6441.5	
913.39	6441.5	
913.56	6441.5	
913.72	6441.5	
913.88	6441.5	
914.05	6441.5	
914.21	6441.5	
914.37	6441.5	
914.54	6441.5	
914.7	6441.5	
914.86	6441.5	
915.03	6441.5	
915.19	6441.5	
