Wavelength	Intensities	
nm	a.u.	
179.22	1939.1	
179.44	1925.8	
179.65	1952.4	
179.86	1899.1	
180.08	1912.8	
180.29	5079.6	
180.51	3637.9	
180.72	5717.2	
180.94	6797.2	
181.15	3353.2	
181.37	3244	
181.58	5629.2	
181.79	5946.6	
182.01	3456.3	
182.22	3693.2	
182.44	5900.2	
182.65	4941.7	
182.87	4664.6	
183.08	4093.2	
183.29	6222.4	
183.51	5083.7	
183.72	3794.2	
183.94	5589.6	
184.15	5474.9	
184.37	5565	
184.58	3318.4	
184.79	4576.5	
185.01	5098.8	
185.22	5878.4	
185.44	4930.8	
185.65	4068.6	
185.86	5397.8	
186.08	4995.7	
186.29	3180.5	
186.51	3485	
186.72	5118.6	
186.94	6085.2	
187.15	4045.4	
187.36	4218.8	
187.58	7946.1	
187.79	5670.1	
188.01	4410.6	
188.22	6807.4	
188.43	6849.8	
188.65	5913.9	
188.86	3444.7	
189.08	4142.4	
189.29	5336.3	
189.5	5344.5	
189.72	3835.2	
189.93	3997.6	
190.15	6124.1	
190.36	7316.7	
190.57	4261.1	
190.79	4131.4	
191	6240.2	
191.22	6173.3	
191.43	4212	
191.64	3454.9	
191.86	6495.5	
192.07	6209.4	
192.29	3633.8	
192.5	3929.4	
192.71	6205.3	
192.93	5267.4	
193.14	3805.1	
193.35	3969	
193.57	5289.2	
193.78	6109.1	
194	3113.6	
194.21	3796.3	
194.42	5031.9	
194.64	5578.7	
194.85	4140.3	
195.07	4926.7	
195.28	5670.8	
195.49	4752	
195.71	5212.8	
195.92	3648.1	
196.13	5715.9	
196.35	5834.7	
196.56	5558.9	
196.78	4163.5	
196.99	7250.5	
197.2	6774	
197.42	4820.2	
197.63	4222.9	
197.84	4910.3	
198.06	5792.3	
198.27	3887	
198.48	5244.8	
198.7	5278.3	
198.91	5455.1	
199.13	4209.3	
199.34	4262.5	
199.55	5991	
199.77	4847.5	
199.98	3696.6	
200.19	4255	
200.41	5374.6	
200.62	5117.2	
200.83	4431.8	
201.05	4685.1	
201.26	5434.6	
201.47	5153.4	
201.69	3650.8	
201.9	3625.6	
202.11	5523.4	
202.33	6623.1	
202.54	4026.3	
202.76	4507.6	
202.97	5692	
203.18	5674.9	
203.4	4442	
203.61	4253.6	
203.82	5640.1	
204.04	5180	
204.25	4261.8	
204.46	4195.6	
204.68	5567.1	
204.89	5846.3	
205.1	4106.2	
205.32	3554.6	
205.53	5988.3	
205.74	6141.9	
205.96	3018.7	
206.17	4351.9	
206.38	5951.4	
206.6	6110.5	
206.81	4839.4	
207.02	3900.7	
207.24	5788.2	
207.45	6321.4	
207.66	4001	
207.88	3403.7	
208.09	5797.8	
208.3	5536.3	
208.52	3657	
208.73	4059.8	
208.94	5545.2	
209.15	6326.2	
209.37	4004.5	
209.58	4173.8	
209.79	6128.2	
210.01	5343.2	
210.22	3211.2	
210.43	3338.9	
210.65	5555.5	
210.86	5968.5	
211.07	4046.8	
211.29	3677.5	
211.5	5937.7	
211.71	5457.8	
211.93	3669.3	
212.14	3652.9	
212.35	5459.2	
212.56	5698.1	
212.78	4235.2	
212.99	3524.6	
213.2	6545.3	
213.42	5343.8	
213.63	3831.7	
213.84	4101.4	
214.06	4902.8	
214.27	5008	
214.48	4004.5	
214.69	4315.8	
214.91	6187.6	
215.12	6322.1	
215.33	4326.7	
215.55	4812	
215.76	6847.7	
215.97	5909.8	
216.18	4145.1	
216.4	4070	
216.61	5218.2	
216.82	6059.9	
217.04	3719.8	
217.25	3885	
217.46	6258.6	
217.67	6041.5	
217.89	3276.1	
218.1	3454.2	
218.31	5619.6	
218.53	5731.6	
218.74	3891.8	
218.95	3755.3	
219.16	5526.1	
219.38	6505.7	
219.59	3777.8	
219.8	4554	
220.01	7298.3	
220.23	5612.8	
220.44	4946.5	
220.65	3670	
220.87	5613.5	
221.08	6180.1	
221.29	3495.2	
221.5	4556	
221.72	7651.9	
221.93	5236.7	
222.14	4297.3	
222.35	5025	
222.57	5567.7	
222.78	5941.2	
222.99	3999.7	
223.2	4354	
223.42	5912.5	
223.63	6072.9	
223.84	3111.5	
224.05	3069.9	
224.27	7205.4	
224.48	6524.8	
224.69	5051	
224.9	4227	
225.12	5727.5	
225.33	5512.4	
225.54	3368.9	
225.75	3827	
225.97	5087.8	
226.18	5446.9	
226.39	4033.8	
226.6	3796.3	
226.82	5309	
227.03	5179.3	
227.24	4250.9	
227.45	3475.4	
227.67	5927.5	
227.88	6599.2	
228.09	4809.3	
228.3	4740.4	
228.52	5967.8	
228.73	5501.5	
228.94	3965.6	
229.15	3475.4	
229.36	5485.8	
229.58	5312.4	
229.79	3956	
230	4677.6	
230.21	6584.2	
230.43	5680.4	
230.64	4173.1	
230.85	4389.5	
231.06	5992.4	
231.28	6086.6	
231.49	3509.5	
231.7	4096.6	
231.91	5938.4	
232.12	5658.5	
232.34	3560.7	
232.55	4098.7	
232.76	6217.6	
232.97	5726.8	
233.18	3665.2	
233.4	4140.3	
233.61	5854.5	
233.82	5288.5	
234.03	3906.2	
234.25	3807.9	
234.46	7808.9	
234.67	5575.3	
234.88	4318.5	
235.09	3705.5	
235.31	5900.9	
235.52	5414.8	
235.73	4220.9	
235.94	3533.4	
236.15	5247.6	
236.37	6807.4	
236.58	3667.2	
236.79	4064.5	
237	5889.3	
237.21	5066	
237.43	4352.6	
237.64	3366.9	
237.85	10258	
238.06	5106.3	
238.27	4447.5	
238.48	3517.7	
238.7	5885.9	
238.91	5451	
239.12	3985.3	
239.33	4048.8	
239.54	5240.1	
239.76	5526.8	
239.97	3986	
240.18	4009.9	
240.39	7025.2	
240.6	5881.8	
240.82	4174.4	
241.03	3431.7	
241.24	5565	
241.45	6497.5	
241.66	3662.5	
241.87	4386.7	
242.09	6288.6	
242.3	6653.2	
242.51	4431.8	
242.72	4038.6	
242.93	6083.1	
243.14	5568.4	
243.36	4695.3	
243.57	5057.8	
243.78	6474.3	
243.99	5937.7	
244.2	4081.6	
244.41	3697.9	
244.63	5128.8	
244.84	5874.3	
245.05	4287.1	
245.26	4093.2	
245.47	5785.5	
245.68	6146.6	
245.9	5464	
246.11	4238.6	
246.32	5403.9	
246.53	5842.9	
246.74	6628.6	
246.95	3392.1	
247.16	4968.4	
247.38	5570.5	
247.59	3361.4	
247.8	4136.9	
248.01	5283.1	
248.22	5535.7	
248.43	3715.7	
248.64	3907.5	
248.86	4928.1	
249.07	5326.1	
249.28	3556.6	
249.49	4204.5	
249.7	6181.5	
249.91	6301.6	
250.12	3374.4	
250.34	3418.7	
250.55	5658.5	
250.76	5543.9	
250.97	4196.3	
251.18	4280.9	
251.39	6294.1	
251.6	5788.9	
251.81	4271.4	
252.03	4235.9	
252.24	5285.8	
252.45	6150.7	
252.66	3522.5	
252.87	4518.5	
253.08	5560.2	
253.29	7463.5	
253.5	3546.4	
253.72	4982.7	
253.93	5403.9	
254.14	6697.5	
254.35	3857.7	
254.56	3969.6	
254.77	5775.3	
254.98	5106.3	
255.19	3789.4	
255.41	4939	
255.62	5634.6	
255.83	6279.8	
256.04	4413.4	
256.25	4265.9	
256.46	6872.3	
256.67	5228.5	
256.88	4189.5	
257.09	4631.1	
257.31	5261.2	
257.52	5237.3	
257.73	5250.3	
257.94	3821.5	
258.15	5445.5	
258.36	5591	
258.57	4909.7	
258.78	3035.8	
258.99	6154.8	
259.2	5407.3	
259.41	3907.5	
259.63	4006.5	
259.84	6390.3	
260.05	7014.3	
260.26	5094.7	
260.47	3759.4	
260.68	6191	
260.89	5452.4	
261.1	4702.8	
261.31	3708.2	
261.52	6135	
261.73	6626.5	
261.95	5028.4	
262.16	4404.5	
262.37	6308.4	
262.58	6429.3	
262.79	4979.3	
263	3929.4	
263.21	5553.4	
263.42	5091.3	
263.63	3995.6	
263.84	3911.6	
264.05	6189.6	
264.26	6581.5	
264.47	4828.4	
264.69	4411.3	
264.9	6318.7	
265.11	5812.1	
265.32	3743	
265.53	3855.6	
265.74	5767.8	
265.95	4940.4	
266.16	4120.5	
266.37	4605.2	
266.58	5724.8	
266.79	5412.1	
267	3876.8	
267.21	3543	
267.42	5154.7	
267.63	5525.4	
267.84	4052.9	
268.06	3427.6	
268.27	5982.1	
268.48	6298.2	
268.69	3957.4	
268.9	4728.8	
269.11	6299.6	
269.32	5041.4	
269.53	4053.6	
269.74	3789.4	
269.95	5941.8	
270.16	4851.6	
270.37	4083.6	
270.58	4746.5	
270.79	5365.7	
271	6114.6	
271.21	4311.7	
271.42	4125.3	
271.63	5752.7	
271.84	5171.1	
272.05	3229	
272.26	3656.3	
272.47	5565	
272.68	5816.9	
272.89	3863.8	
273.11	4535.6	
273.32	5389.6	
273.53	6576	
273.74	4392.9	
273.95	4250.9	
274.16	6318	
274.37	5710.4	
274.58	4412.7	
274.79	3562.8	
275	5698.8	
275.21	6331.6	
275.42	5359.5	
275.63	4626.4	
275.84	5835.3	
276.05	7414.3	
276.26	4302.1	
276.47	3985.3	
276.68	5393	
276.89	6599.2	
277.1	4585.4	
277.31	3577.8	
277.52	5855.8	
277.73	5995.8	
277.94	3536.2	
278.15	3934.8	
278.36	5760.3	
278.57	5177.3	
278.78	3886.4	
278.99	4456.4	
279.2	5201.8	
279.41	5105.6	
279.62	5138.4	
279.83	3573	
280.04	6850.5	
280.25	5036	
280.46	5156.1	
280.67	4072.7	
280.88	5139	
281.09	6287.9	
281.3	4273.4	
281.51	5443.5	
281.72	5279.7	
281.93	6127.5	
282.14	3791.5	
282.35	4128.7	
282.56	6083.1	
282.77	6051.1	
282.98	3964.9	
283.19	4801.8	
283.4	7549.5	
283.61	5504.3	
283.82	3647.4	
284.03	5098.8	
284.24	5723.4	
284.45	6311.8	
284.66	5025.7	
284.87	4792.9	
285.08	6208.1	
285.29	6303.6	
285.5	3429.7	
285.71	4011.3	
285.92	6242.9	
286.12	6983.6	
286.33	4952	
286.54	3913.7	
286.75	6032	
286.96	5492.7	
287.17	3609.9	
287.38	4972.5	
287.59	5201.2	
287.8	5122	
288.01	4038.6	
288.22	4631.8	
288.43	6170.5	
288.64	5053.7	
288.85	4699.4	
289.06	4468	
289.27	6032	
289.48	6575.3	
289.69	5045.5	
289.9	4584.7	
290.11	6272.9	
290.32	5276.9	
290.53	4765.6	
290.74	4441.4	
290.94	6089.3	
291.15	6233.3	
291.36	3868.6	
291.57	4580.6	
291.78	5281.7	
291.99	4982	
292.2	3618.1	
292.41	4397.7	
292.62	6137.1	
292.83	5890.6	
293.04	5484.5	
293.25	3700.7	
293.46	5350	
293.67	6257.9	
293.88	3810.6	
294.09	3599	
294.29	5074.9	
294.5	5698.8	
294.71	4122.6	
294.92	3915	
295.13	5334.3	
295.34	6776	
295.55	3450.1	
295.76	3529.3	
295.97	6023.1	
296.18	6922.1	
296.39	3590.1	
296.6	3868.6	
296.81	5670.8	
297.01	6029.9	
297.22	3956	
297.43	3764.8	
297.64	5147.9	
297.85	5229.1	
298.06	3174.4	
298.27	3404.4	
298.48	5541.8	
298.69	5266.7	
298.9	4142.4	
299.11	3717.7	
299.31	5105.6	
299.52	5120.6	
299.73	4455.7	
299.94	4300.1	
300.15	5607.3	
300.36	5175.9	
300.57	4376.5	
300.78	4292.5	
300.99	5430.5	
301.2	5699.5	
301.4	3771.7	
301.61	4136.2	
301.82	5950	
302.03	5956.9	
302.24	4620.2	
302.45	3676.8	
302.66	5856.5	
302.87	6447.7	
303.08	3812	
303.29	5243.5	
303.49	5303.6	
303.7	5703.6	
303.91	3359.4	
304.12	4983.4	
304.33	5044.1	
304.54	5769.8	
304.75	3859.7	
304.96	3591.5	
305.16	5963.7	
305.37	6720.1	
305.58	3283.6	
305.79	3525.9	
306	5935	
306.21	4990.2	
306.42	3815.4	
306.63	5837.4	
306.83	5463.3	
307.04	6242.9	
307.25	4235.2	
307.46	4206.5	
307.67	4756.1	
307.88	6076.3	
308.09	3731.4	
308.29	3905.5	
308.5	5642.2	
308.71	6238.8	
308.92	4111.6	
309.13	3633.1	
309.34	5397.1	
309.55	5530.2	
309.75	4744.5	
309.96	4362.9	
310.17	5969.1	
310.38	5281.7	
310.59	4604.5	
310.8	3603.1	
311.01	6447.7	
311.21	5401.9	
311.42	3615.3	
311.63	3773.7	
311.84	5342.5	
312.05	5681.1	
312.26	4231.8	
312.46	4702.8	
312.67	5451.7	
312.88	5103.5	
313.09	3680.2	
313.3	3620.1	
313.51	6443.6	
313.71	6816.3	
313.92	3653.6	
314.13	3909.6	
314.34	5840.8	
314.55	5511.8	
314.76	4772.4	
314.96	4143.7	
315.17	5652.4	
315.38	5982.8	
315.59	3700.7	
315.8	3505.4	
316.01	6501.6	
316.21	6547.4	
316.42	3521.8	
316.63	4067.9	
316.84	5502.2	
317.05	6355.5	
317.26	4367.6	
317.46	3920.5	
317.67	5551.4	
317.88	5984.2	
318.09	4698.7	
318.3	3414	
318.5	5251.7	
318.71	5952.8	
318.92	6078.4	
319.13	4321.9	
319.34	6127.5	
319.54	6328.9	
319.75	3432.4	
319.96	3297.2	
320.17	5997.8	
320.38	6180.8	
320.58	3317.7	
320.79	4061.1	
321	6240.2	
321.21	6272.9	
321.42	4110.3	
321.62	3321.1	
321.83	5223	
322.04	5582.1	
322.25	3874.1	
322.46	3730.7	
322.66	5700.9	
322.87	5853.8	
323.08	4556	
323.29	3601.7	
323.5	6743.3	
323.7	5130.2	
323.91	5070.1	
324.12	4533.5	
324.33	5663.3	
324.53	5954.8	
324.74	4341.7	
324.95	4609.3	
325.16	4960.9	
325.37	5390.3	
325.57	3672	
325.78	3740.3	
325.99	5657.2	
326.2	5051	
326.4	5311.1	
326.61	3388	
326.82	5532.2	
327.03	5715.9	
327.24	5277.6	
327.44	5042.8	
327.65	5851.7	
327.86	4700.8	
328.07	4394.3	
328.27	3579.2	
328.48	6238.8	
328.69	5163.6	
328.9	5323.4	
329.1	4014	
329.31	5458.5	
329.52	6434.7	
329.73	3707.5	
329.93	4215.4	
330.14	5543.2	
330.35	5861.3	
330.56	6169.8	
330.76	4627.7	
330.97	5397.1	
331.18	5783.5	
331.39	4191.5	
331.59	3346.4	
331.8	6206	
332.01	6346.7	
332.22	3850.2	
332.42	4401.8	
332.63	5689.3	
332.84	5266.7	
333.05	4165.6	
333.25	3825.6	
333.46	5319.3	
333.67	5634	
333.88	3891.1	
334.08	4301.4	
334.29	7654.6	
334.5	6346.7	
334.7	3566.9	
334.91	5296.7	
335.12	5116.5	
335.33	6023.8	
335.53	4138.9	
335.74	6151.4	
335.95	5329.5	
336.16	5190.9	
336.36	4126	
336.57	4778.6	
336.78	5111.7	
336.98	6236.1	
337.19	5005.9	
337.4	4066.6	
337.61	6810.2	
337.81	5084.4	
338.02	3822.2	
338.23	4888.5	
338.43	6384.2	
338.64	5238	
338.85	3716.4	
339.05	4932.2	
339.26	6494.1	
339.47	4984.8	
339.68	3721.8	
339.88	5552.7	
340.09	5896.8	
340.3	6107.7	
340.5	4376.5	
340.71	3304.1	
340.92	5081.7	
341.13	6367.8	
341.33	3599	
341.54	4380.6	
341.75	5854.5	
341.95	5511.1	
342.16	4202.4	
342.37	4517.1	
342.57	5124.7	
342.78	5573.2	
342.99	4705.5	
343.19	3343	
343.4	6009.4	
343.61	5917.3	
343.81	3966.2	
344.02	3646.7	
344.23	6040.1	
344.43	6534.4	
344.64	4564.2	
344.85	4539.7	
345.06	5848.3	
345.26	6319.3	
345.47	4321.9	
345.68	5090.6	
345.88	4980.7	
346.09	6154.8	
346.3	4407.2	
346.5	3294.5	
346.71	5575.3	
346.92	5281	
347.12	3362.1	
347.33	4319.2	
347.54	6151.4	
347.74	6645	
347.95	4272.7	
348.16	3188.7	
348.36	5408.7	
348.57	5181.4	
348.78	4240	
348.98	4636.6	
349.19	5571.2	
349.39	5046.9	
349.6	3402.4	
349.81	3804.4	
350.01	5857.2	
350.22	5317.9	
350.43	4087.1	
350.63	5026.4	
350.84	5694.7	
351.05	5428.5	
351.25	3760.1	
351.46	3396.2	
351.67	6266.8	
351.87	5284.4	
352.08	4017.4	
352.29	4632.5	
352.49	6110.5	
352.7	5775.3	
352.9	3686.3	
353.11	4556.7	
353.32	6916.7	
353.52	5403.2	
353.73	3622.2	
353.94	4632.5	
354.14	5979.4	
354.35	5801.9	
354.55	3742.3	
354.76	4191.5	
354.97	5903.6	
355.17	5694.7	
355.38	3489.7	
355.59	4926	
355.79	5293.3	
356	5837.4	
356.2	4144.4	
356.41	3605.8	
356.62	5104.2	
356.82	5618.3	
357.03	4477.5	
357.24	4024.9	
357.44	5414.1	
357.65	5544.5	
357.85	5424.4	
358.06	4261.8	
358.27	5074.9	
358.47	5429.8	
358.68	3521.8	
358.88	4500.1	
359.09	5932.3	
359.3	6380.8	
359.5	5229.8	
359.71	4656.4	
359.91	6963.1	
360.12	6225.1	
360.33	4486.4	
360.53	5012.1	
360.74	5413.5	
360.94	5526.8	
361.15	4721.3	
361.36	3910.3	
361.56	6262.7	
361.77	5696.8	
361.97	5355.4	
362.18	4186	
362.38	6335.7	
362.59	5319.3	
362.8	3928.7	
363	3678.2	
363.21	5129.5	
363.41	5829.9	
363.62	4496.7	
363.83	5532.9	
364.03	5909.1	
364.24	7008.8	
364.44	5620.3	
364.65	5595.7	
364.85	5684.5	
365.06	5274.2	
365.27	4169	
365.47	4037.9	
365.68	6827.9	
365.88	5655.1	
366.09	4557.4	
366.29	4166.9	
366.5	5980.1	
366.71	6432	
366.91	5609.4	
367.12	4750.6	
367.32	7116	
367.53	6339.8	
367.73	4672.1	
367.94	5681.1	
368.14	6289.3	
368.35	7308.5	
368.56	4657.1	
368.76	3979.2	
368.97	6324.8	
369.17	8246.5	
369.38	4184.7	
369.58	4392.2	
369.79	5423.7	
369.99	6782.9	
370.2	5496.1	
370.4	4501.4	
370.61	6042.9	
370.82	7382.2	
371.02	4418.8	
371.23	3748.5	
371.43	5245.5	
371.64	6699.6	
371.84	4508.3	
372.05	5781.4	
372.25	8195.3	
372.46	6516.6	
372.66	4532.2	
372.87	4514.4	
373.07	6611.5	
373.28	8202.8	
373.48	5618.9	
373.69	5395.7	
373.9	5989.6	
374.1	6070.2	
374.31	5659.2	
374.51	5184.1	
374.72	6969.9	
374.92	5693.4	
375.13	5861.3	
375.33	4977.9	
375.54	6599.9	
375.74	5967.8	
375.95	5075.5	
376.15	6462.7	
376.36	6597.9	
376.56	6436.1	
376.77	5208	
376.97	5703.6	
377.18	7722.2	
377.38	6748.7	
377.59	6135	
377.79	4784.7	
378	6608.8	
378.2	7035.5	
378.41	4818.2	
378.61	4782	
378.82	7032.7	
379.02	6192.4	
379.23	5005.2	
379.43	6208.1	
379.64	7131.7	
379.84	6881.2	
380.05	4837.3	
380.25	4697.4	
380.46	6922.8	
380.66	6488.6	
380.87	6253.8	
381.07	6642.2	
381.28	7639.6	
381.48	6943.3	
381.69	4878.3	
381.89	4945.8	
382.1	5751.4	
382.3	7083.2	
382.51	6027.2	
382.71	7028.6	
382.91	6908.5	
383.12	7466.2	
383.32	5240.1	
383.53	5492	
383.73	6788.3	
383.94	6529.6	
384.14	5300.8	
384.35	4449.6	
384.55	6457.2	
384.76	6879.1	
384.96	5287.9	
385.17	5552	
385.37	6830	
385.58	6067.4	
385.78	5660.6	
385.98	4333.5	
386.19	6304.3	
386.39	6667.5	
386.6	4990.2	
386.8	5056.4	
387.01	6958.3	
387.21	6974.7	
387.42	5700.9	
387.62	6414.9	
387.83	6193.1	
388.03	7000	
388.23	5347.2	
388.44	6327.5	
388.64	5900.2	
388.85	6141.2	
389.05	5766.4	
389.26	6582.2	
389.46	8149.6	
389.67	7569.3	
389.87	5835.3	
390.07	5960.3	
390.28	6770.6	
390.48	6352.1	
390.69	5161.6	
390.89	5477	
391.1	6462	
391.3	7533.1	
391.5	6750.1	
391.71	7363.1	
391.91	7286	
392.12	8402.1	
392.32	6864.1	
392.53	5936.4	
392.73	6608.1	
392.93	6835.4	
393.14	5641.5	
393.34	6417	
393.55	7295.5	
393.75	6726.9	
393.95	5492	
394.16	5536.3	
394.36	6524.8	
394.57	7176.1	
394.77	5039.4	
394.98	5460.6	
395.18	6481.1	
395.38	6836.8	
395.59	6584.9	
395.79	5506.3	
396	6769.9	
396.2	7279.8	
396.4	6448.4	
396.61	6407.4	
396.81	7610.3	
397.02	6872.3	
397.22	6696.9	
397.42	6761.7	
397.63	7639.6	
397.83	6841.6	
398.04	5489.2	
398.24	6183.5	
398.44	7414.3	
398.65	6520.7	
398.85	5468.1	
399.05	5687.2	
399.26	6958.3	
399.46	8809.7	
399.67	6207.4	
399.87	5852.4	
400.07	7348.1	
400.28	7796.6	
400.48	5965.7	
400.69	7185.6	
400.89	8685.4	
401.09	8495.7	
401.3	5930.2	
401.5	7097.6	
401.7	8959.2	
401.91	9222.7	
402.11	6374	
402.32	6598.6	
402.52	8270.4	
402.72	7993.9	
402.93	6810.9	
403.13	5385.5	
403.33	8914.1	
403.54	7339.9	
403.74	6268.1	
403.94	7144	
404.15	7344.7	
404.35	8638.3	
404.56	6008.1	
404.76	7970	
404.96	7952.3	
405.17	7676.5	
405.37	7361.8	
405.57	6710.5	
405.78	8118.1	
405.98	7556.3	
406.18	6285.9	
406.39	7242.3	
406.59	8103.8	
406.79	7674.4	
407	6001.2	
407.2	6069.5	
407.4	8172.1	
407.61	8343.4	
407.81	6232	
408.01	8036.9	
408.22	7180.2	
408.42	9562.6	
408.62	7655.3	
408.83	7222.5	
409.03	8282	
409.23	8190.5	
409.44	7567.9	
409.64	7899.7	
409.84	9583.8	
410.05	9506.7	
410.25	7922.2	
410.45	7615	
410.66	9303.2	
410.86	11767	
411.06	8387.8	
411.27	8166.6	
411.47	11848	
411.67	9605	
411.88	8523.6	
412.08	9069.8	
412.28	10421	
412.49	10921	
412.69	8637.6	
412.89	8685.4	
413.09	10806	
413.3	10787	
413.5	8875.9	
413.7	8397.4	
413.91	9888.3	
414.11	10988	
414.31	8668.4	
414.52	9359.2	
414.72	10576	
414.92	10675	
415.12	8791.9	
415.33	9437	
415.53	11215	
415.73	11399	
415.94	9846	
416.14	9321	
416.34	10122	
416.55	9764.7	
416.75	10530	
416.95	9975	
417.15	11394	
417.36	11875	
417.56	11086	
417.76	9985.2	
417.97	11912	
418.17	11604	
418.37	9581.8	
418.57	9728.5	
418.78	11258	
418.98	10938	
419.18	10658	
419.38	10504	
419.59	11096	
419.79	10484	
419.99	9544.2	
420.2	9897.8	
420.4	11547	
420.6	11694	
420.8	9534.7	
421.01	9346.2	
421.21	11580	
421.41	11848	
421.61	9955.9	
421.82	9594.7	
422.02	10996	
422.22	11932	
422.42	10572	
422.63	9900.6	
422.83	11042	
423.03	12391	
423.23	9987.9	
423.44	9044.5	
423.64	11143	
423.84	10771	
424.04	9452.1	
424.25	9093.7	
424.45	11987	
424.65	11879	
424.85	8819.9	
425.06	9503.3	
425.26	12008	
425.46	10470	
425.66	9944.9	
425.87	9639.8	
426.07	11738	
426.27	11636	
426.47	9845.3	
426.67	9086.2	
426.88	12007	
427.08	11513	
427.28	10144	
427.48	9018.6	
427.69	10219	
427.89	11081	
428.09	10106	
428.29	9139.4	
428.5	11877	
428.7	11323	
428.9	9158.5	
429.1	9600.9	
429.3	11154	
429.51	11879	
429.71	9369.5	
429.91	10454	
430.11	11649	
430.31	12142	
430.52	9960	
430.72	10444	
430.92	12446	
431.12	11890	
431.32	9813.2	
431.53	10086	
431.73	10793	
431.93	12495	
432.13	9593.4	
432.33	9607.7	
432.54	11274	
432.74	11813	
432.94	9624.8	
433.14	10741	
433.34	11947	
433.55	11655	
433.75	10702	
433.95	12938	
434.15	11940	
434.35	11736	
434.56	10050	
434.76	9733.3	
434.96	12120	
435.16	12522	
435.36	10018	
435.56	11480	
435.77	11940	
435.97	12134	
436.17	12226	
436.37	11542	
436.57	11985	
436.78	12086	
436.98	13192	
437.18	12068	
437.38	13074	
437.58	12249	
437.78	12209	
437.99	10559	
438.19	12602	
438.39	13396	
438.59	10522	
438.79	9841.2	
438.99	13143	
439.2	12032	
439.4	9934.7	
439.6	10095	
439.8	12515	
440	13728	
440.2	11549	
440.4	11732	
440.61	13289	
440.81	13956	
441.01	11047	
441.21	12192	
441.41	14179	
441.61	13508	
441.81	12691	
442.02	13801	
442.22	14476	
442.42	13768	
442.62	11432	
442.82	11243	
443.02	14143	
443.22	13295	
443.43	12070	
443.63	11535	
443.83	13016	
444.03	13159	
444.23	13233	
444.43	12556	
444.63	13755	
444.83	15042	
445.04	12011	
445.24	13297	
445.44	14031	
445.64	14253	
445.84	12476	
446.04	12605	
446.24	13184	
446.44	14373	
446.65	11431	
446.85	12105	
447.05	12924	
447.25	14163	
447.45	11980	
447.65	11443	
447.85	13420	
448.05	12853	
448.25	12770	
448.46	12478	
448.66	13553	
448.86	13205	
449.06	11504	
449.26	12696	
449.46	14116	
449.66	13059	
449.86	12346	
450.06	12365	
450.26	13377	
450.47	14045	
450.67	12523	
450.87	13035	
451.07	14203	
451.27	14125	
451.47	11895	
451.67	12776	
451.87	13804	
452.07	14695	
452.27	12449	
452.47	12373	
452.67	13932	
452.88	14663	
453.08	11440	
453.28	13923	
453.48	15517	
453.68	13696	
453.88	12428	
454.08	12547	
454.28	14744	
454.48	14278	
454.68	13405	
454.88	13772	
455.08	14674	
455.28	15050	
455.48	12176	
455.68	13354	
455.89	15752	
456.09	15418	
456.29	12939	
456.49	13309	
456.69	15645	
456.89	14784	
457.09	14059	
457.29	14676	
457.49	15421	
457.69	15846	
457.89	14265	
458.09	13427	
458.29	15541	
458.49	16406	
458.69	14774	
458.89	14259	
459.09	16995	
459.29	16875	
459.49	14095	
459.69	15252	
459.9	16322	
460.1	16162	
460.3	13997	
460.5	14135	
460.7	16503	
460.9	16219	
461.1	13863	
461.3	15230	
461.5	17441	
461.7	17101	
461.9	14848	
462.1	15018	
462.3	16759	
462.5	17391	
462.7	14929	
462.9	15498	
463.1	18720	
463.3	18639	
463.5	15513	
463.7	17296	
463.9	17598	
464.1	18040	
464.3	16481	
464.5	16340	
464.7	18562	
464.9	18647	
465.1	18312	
465.3	17273	
465.5	18984	
465.7	19232	
465.9	17690	
466.1	16991	
466.3	19478	
466.5	18661	
466.7	18789	
466.9	17230	
467.1	19026	
467.3	20049	
467.5	19013	
467.7	17623	
467.9	20476	
468.1	21608	
468.3	18327	
468.5	19275	
468.7	19405	
468.9	19463	
469.1	18405	
469.3	19023	
469.5	21964	
469.7	19424	
469.9	18469	
470.1	18114	
470.3	19800	
470.5	19699	
470.7	19501	
470.9	18209	
471.1	19867	
471.3	19495	
471.5	18066	
471.69	20045	
471.89	19247	
472.09	18740	
472.29	18968	
472.49	18677	
472.69	19174	
472.89	19888	
473.09	17972	
473.29	17494	
473.49	19194	
473.69	19112	
473.89	18783	
474.09	18044	
474.29	20484	
474.49	20076	
474.69	18916	
474.89	17998	
475.09	19188	
475.29	19239	
475.49	17324	
475.69	17845	
475.88	20754	
476.08	19483	
476.28	17356	
476.48	17580	
476.68	19775	
476.88	19509	
477.08	17292	
477.28	17899	
477.48	18757	
477.68	19422	
477.88	17385	
478.08	17601	
478.28	20275	
478.48	19187	
478.67	17815	
478.87	16845	
479.07	20276	
479.27	19231	
479.47	17975	
479.67	18120	
479.87	19825	
480.07	20743	
480.27	17236	
480.47	18968	
480.67	19484	
480.87	20525	
481.06	17650	
481.26	18790	
481.46	19678	
481.66	19510	
481.86	18443	
482.06	19344	
482.26	19330	
482.46	20317	
482.66	18228	
482.86	17921	
483.05	19949	
483.25	19277	
483.45	20829	
483.65	18420	
483.85	19575	
484.05	20012	
484.25	18917	
484.45	19841	
484.65	20762	
484.84	21366	
485.04	18736	
485.24	18585	
485.44	21352	
485.64	19734	
485.84	18297	
486.04	19691	
486.24	20104	
486.44	20673	
486.63	18251	
486.83	19308	
487.03	20659	
487.23	20955	
487.43	18425	
487.63	21288	
487.83	20778	
488.02	21995	
488.22	20198	
488.42	20723	
488.62	21859	
488.82	20869	
489.02	19475	
489.22	19962	
489.41	21749	
489.61	21861	
489.81	19452	
490.01	19591	
490.21	22143	
490.41	22774	
490.61	19573	
490.8	19651	
491	21617	
491.2	20616	
491.4	20061	
491.6	19241	
491.8	21111	
491.99	21091	
492.19	18872	
492.39	19106	
492.59	21822	
492.79	21911	
492.99	20472	
493.18	19663	
493.38	22158	
493.58	23550	
493.78	21102	
493.98	20557	
494.18	22608	
494.37	22410	
494.57	21945	
494.77	21755	
494.97	23638	
495.17	24080	
495.37	21716	
495.56	22106	
495.76	24572	
495.96	24299	
496.16	23502	
496.36	22658	
496.55	24676	
496.75	24442	
496.95	22857	
497.15	22805	
497.35	24674	
497.54	24890	
497.74	22566	
497.94	24351	
498.14	25677	
498.34	25628	
498.53	22585	
498.73	23499	
498.93	24517	
499.13	25154	
499.33	23664	
499.52	24066	
499.72	25573	
499.92	25523	
500.12	23459	
500.32	23842	
500.51	25849	
500.71	25860	
500.91	24821	
501.11	24258	
501.31	25978	
501.5	26188	
501.7	25144	
501.9	23989	
502.1	25688	
502.29	25991	
502.49	24647	
502.69	24750	
502.89	25672	
503.09	25877	
503.28	22974	
503.48	23225	
503.68	24473	
503.88	24899	
504.07	24124	
504.27	23359	
504.47	25098	
504.67	24888	
504.86	24029	
505.06	23541	
505.26	24276	
505.46	26411	
505.65	23384	
505.85	23455	
506.05	24061	
506.25	24476	
506.44	22064	
506.64	22999	
506.84	23864	
507.04	24655	
507.23	22197	
507.43	22885	
507.63	25778	
507.83	23965	
508.02	22736	
508.22	22445	
508.42	26077	
508.62	23966	
508.81	22870	
509.01	23383	
509.21	23356	
509.4	23835	
509.6	22635	
509.8	22349	
510	23710	
510.19	25524	
510.39	22184	
510.59	22620	
510.79	23891	
510.98	25546	
511.18	22604	
511.38	23020	
511.57	24605	
511.77	24907	
511.97	23285	
512.17	22133	
512.36	24721	
512.56	24405	
512.76	22145	
512.95	21878	
513.15	24636	
513.35	23246	
513.55	23374	
513.74	22261	
513.94	24737	
514.14	23967	
514.33	23414	
514.53	23173	
514.73	23999	
514.92	24408	
515.12	22715	
515.32	22763	
515.51	24541	
515.71	25031	
515.91	24550	
516.11	22891	
516.3	26642	
516.5	24263	
516.7	23226	
516.89	23997	
517.09	24369	
517.29	24485	
517.48	23664	
517.68	23006	
517.88	24105	
518.07	24765	
518.27	23696	
518.47	22386	
518.66	25318	
518.86	23856	
519.06	22332	
519.25	22958	
519.45	24472	
519.65	26221	
519.84	23545	
520.04	24681	
520.24	26560	
520.43	24961	
520.63	23044	
520.83	22987	
521.02	23923	
521.22	24567	
521.42	23044	
521.61	23718	
521.81	23984	
522.01	24230	
522.2	23176	
522.4	22513	
522.6	24866	
522.79	23791	
522.99	23163	
523.18	22983	
523.38	25387	
523.58	25366	
523.77	25436	
523.97	23405	
524.17	27890	
524.36	26902	
524.56	25417	
524.76	24982	
524.95	26533	
525.15	26043	
525.34	25099	
525.54	25387	
525.74	27203	
525.93	26257	
526.13	27005	
526.33	25815	
526.52	27938	
526.72	27553	
526.91	27305	
527.11	26384	
527.31	28062	
527.5	28770	
527.7	26545	
527.89	25746	
528.09	27302	
528.29	28454	
528.48	27116	
528.68	26723	
528.87	28251	
529.07	28279	
529.27	26630	
529.46	26237	
529.66	28077	
529.85	28734	
530.05	26021	
530.25	26955	
530.44	29894	
530.64	27834	
530.83	26441	
531.03	26876	
531.23	28543	
531.42	28416	
531.62	27834	
531.81	26778	
532.01	29085	
532.21	30098	
532.4	27320	
532.6	28183	
532.79	30751	
532.99	30191	
533.18	28283	
533.38	29267	
533.58	30087	
533.77	30734	
533.97	28783	
534.16	29515	
534.36	31193	
534.55	30339	
534.75	29816	
534.95	28898	
535.14	31425	
535.34	30248	
535.53	28458	
535.73	30493	
535.92	31865	
536.12	30208	
536.31	28448	
536.51	29597	
536.71	30353	
536.9	29923	
537.1	28326	
537.29	28624	
537.49	30752	
537.68	29969	
537.88	29369	
538.07	28371	
538.27	30507	
538.46	31489	
538.66	28382	
538.86	28959	
539.05	30378	
539.25	30954	
539.44	29698	
539.64	28725	
539.83	30208	
540.03	31483	
540.22	28590	
540.42	28411	
540.61	29877	
540.81	30478	
541	28442	
541.2	29653	
541.39	29465	
541.59	30150	
541.78	29312	
541.98	27977	
542.18	29192	
542.37	29188	
542.57	28163	
542.76	29241	
542.96	28560	
543.15	29661	
543.35	27935	
543.54	27297	
543.74	29371	
543.93	29142	
544.13	27437	
544.32	28491	
544.52	28965	
544.71	28209	
544.91	26447	
545.1	27575	
545.3	28300	
545.49	29235	
545.69	26401	
545.88	26734	
546.08	30137	
546.27	29473	
546.47	27301	
546.66	26707	
546.86	28969	
547.05	29717	
547.24	26858	
547.44	26959	
547.63	27727	
547.83	29249	
548.02	27026	
548.22	27241	
548.41	27564	
548.61	28971	
548.8	26423	
549	26261	
549.19	27982	
549.39	28653	
549.58	25863	
549.78	26588	
549.97	28524	
550.17	27626	
550.36	26970	
550.55	28303	
550.75	27542	
550.94	28400	
551.14	25778	
551.33	26064	
551.53	26903	
551.72	28030	
551.92	26146	
552.11	25907	
552.31	27704	
552.5	28054	
552.69	27480	
552.89	25370	
553.08	27766	
553.28	27305	
553.47	25771	
553.67	26887	
553.86	28078	
554.06	26249	
554.25	24617	
554.44	25451	
554.64	28805	
554.83	28491	
555.03	25337	
555.22	25682	
555.42	27531	
555.61	27117	
555.8	25163	
556	25554	
556.19	26272	
556.39	27542	
556.58	25158	
556.78	25086	
556.97	27083	
557.16	26725	
557.36	26566	
557.55	24962	
557.75	25840	
557.94	28060	
558.13	24843	
558.33	24905	
558.52	27657	
558.72	26379	
558.91	24761	
559.1	24942	
559.3	25864	
559.49	25494	
559.69	24225	
559.88	25210	
560.07	26683	
560.27	27168	
560.46	25285	
560.66	25393	
560.85	26510	
561.04	25334	
561.24	24490	
561.43	24334	
561.63	25750	
561.82	25802	
562.01	25983	
562.21	24844	
562.4	26429	
562.59	27785	
562.79	24728	
562.98	24610	
563.18	26734	
563.37	28291	
563.56	25396	
563.76	25034	
563.95	26218	
564.14	26154	
564.34	25281	
564.53	24759	
564.73	26740	
564.92	27415	
565.11	25500	
565.31	24978	
565.5	27567	
565.69	26523	
565.89	25204	
566.08	25765	
566.27	27514	
566.47	28252	
566.66	26238	
566.85	24937	
567.05	27187	
567.24	26596	
567.44	25177	
567.63	26650	
567.82	27438	
568.02	27299	
568.21	25200	
568.4	25738	
568.6	27384	
568.79	27293	
568.98	25142	
569.18	25658	
569.37	27518	
569.56	29487	
569.76	26148	
569.95	27283	
570.14	27975	
570.34	28119	
570.53	25619	
570.72	25680	
570.91	28520	
571.11	27525	
571.3	26064	
571.49	27109	
571.69	27613	
571.88	27039	
572.07	26921	
572.27	26652	
572.46	27138	
572.65	28300	
572.85	25976	
573.04	26466	
573.23	28839	
573.43	27919	
573.62	26072	
573.81	26704	
574	28282	
574.2	28220	
574.39	26910	
574.58	26820	
574.78	29841	
574.97	28910	
575.16	27789	
575.36	27936	
575.55	29544	
575.74	29600	
575.93	26821	
576.13	28381	
576.32	28682	
576.51	29625	
576.71	27375	
576.9	29023	
577.09	30074	
577.28	29272	
577.48	27760	
577.67	26785	
577.86	29055	
578.05	29579	
578.25	27727	
578.44	27779	
578.63	29089	
578.83	30538	
579.02	26986	
579.21	28924	
579.4	29481	
579.6	29362	
579.79	28058	
579.98	30489	
580.17	29954	
580.37	30118	
580.56	27216	
580.75	28267	
580.94	30522	
581.14	30350	
581.33	28915	
581.52	27583	
581.71	30208	
581.91	30636	
582.1	27592	
582.29	28075	
582.48	29668	
582.68	29769	
582.87	28474	
583.06	28263	
583.25	29933	
583.45	29700	
583.64	29141	
583.83	29851	
584.02	29442	
584.21	30145	
584.41	28809	
584.6	28417	
584.79	29768	
584.98	30873	
585.18	27638	
585.37	27821	
585.56	29184	
585.75	30374	
585.94	27702	
586.14	28723	
586.33	30404	
586.52	29523	
586.71	28093	
586.91	27874	
587.1	28394	
587.29	29609	
587.48	27179	
587.67	27244	
587.87	29063	
588.06	29168	
588.25	28575	
588.44	27596	
588.63	28469	
588.83	29190	
589.02	26684	
589.21	26243	
589.4	27621	
589.59	27760	
589.78	24840	
589.98	24765	
590.17	26090	
590.36	26619	
590.55	23335	
590.74	23735	
590.94	27279	
591.13	25609	
591.32	23709	
591.51	23220	
591.7	26297	
591.89	25857	
592.09	23714	
592.28	24300	
592.47	25179	
592.66	27422	
592.85	23938	
593.05	24031	
593.24	25783	
593.43	26900	
593.62	24358	
593.81	24879	
594	26115	
594.19	26131	
594.39	24081	
594.58	24075	
594.77	26224	
594.96	26792	
595.15	23834	
595.34	24586	
595.54	26156	
595.73	25080	
595.92	22937	
596.11	24077	
596.3	26232	
596.49	24917	
596.68	23586	
596.88	24309	
597.07	26054	
597.26	24720	
597.45	23246	
597.64	24702	
597.83	25075	
598.02	25931	
598.22	23393	
598.41	24051	
598.6	25445	
598.79	24792	
598.98	23344	
599.17	24359	
599.36	25286	
599.55	26548	
599.74	25497	
599.94	25211	
600.13	25780	
600.32	24550	
600.51	22843	
600.7	23076	
600.89	26383	
601.08	26586	
601.27	22778	
601.47	24036	
601.66	25658	
601.85	26404	
602.04	23502	
602.23	23671	
602.42	24539	
602.61	25243	
602.8	23235	
602.99	22839	
603.18	24744	
603.37	25164	
603.57	23438	
603.76	24081	
603.95	25684	
604.14	25385	
604.33	23033	
604.52	23596	
604.71	25139	
604.9	24703	
605.09	23883	
605.28	23940	
605.47	25804	
605.66	25419	
605.86	23630	
606.05	23080	
606.24	25550	
606.43	24054	
606.62	23272	
606.81	24128	
607	25385	
607.19	24635	
607.38	22455	
607.57	22930	
607.76	24397	
607.95	23776	
608.14	23186	
608.33	23880	
608.52	24303	
608.72	25275	
608.91	22313	
609.1	22278	
609.29	24376	
609.48	23715	
609.67	22970	
609.86	21934	
610.05	23720	
610.24	23987	
610.43	21987	
610.62	21381	
610.81	25075	
611	24909	
611.19	21915	
611.38	22700	
611.57	24126	
611.76	25690	
611.95	21801	
612.14	21465	
612.33	23988	
612.52	23413	
612.71	22392	
612.9	21447	
613.09	22988	
613.28	25487	
613.47	21826	
613.66	22901	
613.85	24108	
614.04	23627	
614.24	22121	
614.43	21093	
614.62	24329	
614.81	24085	
615	22480	
615.19	22987	
615.38	23425	
615.57	24004	
615.76	22484	
615.95	23756	
616.14	24494	
616.33	23872	
616.52	22950	
616.71	23225	
616.9	24248	
617.09	24404	
617.28	22320	
617.47	23754	
617.66	23507	
617.85	23640	
618.04	23593	
618.22	22916	
618.41	24158	
618.6	25536	
618.79	22955	
618.98	23012	
619.17	25718	
619.36	24060	
619.55	23208	
619.74	23462	
619.93	25296	
620.12	24764	
620.31	24151	
620.5	24436	
620.69	26568	
620.88	26717	
621.07	25120	
621.26	24361	
621.45	25889	
621.64	25880	
621.83	24458	
622.02	23656	
622.21	25839	
622.4	25839	
622.59	25166	
622.78	24932	
622.97	25282	
623.16	26559	
623.35	24539	
623.54	23561	
623.72	25677	
623.91	25972	
624.1	24860	
624.29	23616	
624.48	27109	
624.67	26048	
624.86	24915	
625.05	23762	
625.24	27242	
625.43	25428	
625.62	26769	
625.81	24195	
626	26480	
626.19	25847	
626.38	25041	
626.56	24371	
626.75	25709	
626.94	26622	
627.13	24986	
627.32	23509	
627.51	26327	
627.7	27761	
627.89	23397	
628.08	25110	
628.27	25390	
628.46	25505	
628.65	23671	
628.83	23496	
629.02	26096	
629.21	25425	
629.4	24279	
629.59	24595	
629.78	25397	
629.97	26292	
630.16	24842	
630.35	24196	
630.54	26828	
630.72	26495	
630.91	24049	
631.1	24510	
631.29	26034	
631.48	26000	
631.67	24772	
631.86	23810	
632.05	25400	
632.24	25520	
632.42	23452	
632.61	24151	
632.8	25425	
632.99	25299	
633.18	24404	
633.37	24838	
633.56	25736	
633.75	25658	
633.93	24266	
634.12	24100	
634.31	26473	
634.5	26409	
634.69	23964	
634.88	24270	
635.07	25503	
635.25	25964	
635.44	24743	
635.63	25012	
635.82	25146	
636.01	24571	
636.2	24567	
636.39	24122	
636.57	26464	
636.76	25850	
636.95	23545	
637.14	24924	
637.33	25557	
637.52	26697	
637.7	23253	
637.89	24029	
638.08	25365	
638.27	26701	
638.46	24420	
638.65	24544	
638.83	26439	
639.02	24683	
639.21	23877	
639.4	24518	
639.59	25029	
639.78	24722	
639.96	22881	
640.15	22855	
640.34	24853	
640.53	24793	
640.72	22462	
640.91	22704	
641.09	23909	
641.28	25279	
641.47	22468	
641.66	23619	
641.85	24684	
642.03	24714	
642.22	23246	
642.41	22588	
642.6	23862	
642.79	23097	
642.97	21992	
643.16	23034	
643.35	23597	
643.54	23378	
643.73	21949	
643.91	22918	
644.1	22726	
644.29	23713	
644.48	21664	
644.67	21680	
644.85	22901	
645.04	23023	
645.23	20684	
645.42	21203	
645.6	22280	
645.79	23376	
645.98	20714	
646.17	19482	
646.36	21402	
646.54	21989	
646.73	20942	
646.92	19912	
647.11	21311	
647.29	22372	
647.48	19868	
647.67	19508	
647.86	22485	
648.05	22885	
648.23	19949	
648.42	21328	
648.61	22032	
648.8	21710	
648.98	19540	
649.17	19779	
649.36	20979	
649.55	20454	
649.73	19551	
649.92	20409	
650.11	21033	
650.3	21544	
650.48	19577	
650.67	19450	
650.86	21429	
651.05	20239	
651.23	19516	
651.42	19318	
651.61	20704	
651.79	20864	
651.98	19613	
652.17	19045	
652.36	20969	
652.54	19966	
652.73	19067	
652.92	18709	
653.11	21018	
653.29	21042	
653.48	18073	
653.67	19077	
653.85	20586	
654.04	21442	
654.23	18869	
654.42	18327	
654.6	19288	
654.79	19934	
654.98	17195	
655.16	17596	
655.35	18209	
655.54	18217	
655.73	16827	
655.91	16652	
656.1	19445	
656.29	18261	
656.47	16553	
656.66	18292	
656.85	18841	
657.03	18954	
657.22	17658	
657.41	17763	
657.59	19198	
657.78	19189	
657.97	17349	
658.16	18451	
658.34	20044	
658.53	20580	
658.72	19145	
658.9	19785	
659.09	19481	
659.28	19579	
659.46	18028	
659.65	17969	
659.84	19215	
660.02	19893	
660.21	17685	
660.4	17734	
660.58	20346	
660.77	19626	
660.96	18551	
661.14	17443	
661.33	20904	
661.52	20669	
661.7	17407	
661.89	21319	
662.08	19168	
662.26	18645	
662.45	17519	
662.64	17475	
662.82	19611	
663.01	18912	
663.2	17594	
663.38	18514	
663.57	19346	
663.75	19442	
663.94	17940	
664.13	19171	
664.31	18823	
664.5	19499	
664.69	17953	
664.87	18852	
665.06	18631	
665.25	19280	
665.43	19009	
665.62	18997	
665.8	19617	
665.99	18825	
666.18	17699	
666.36	17795	
666.55	19580	
666.74	19585	
666.92	17374	
667.11	18860	
667.29	18753	
667.48	19338	
667.67	18540	
667.85	17516	
668.04	18845	
668.22	18983	
668.41	17578	
668.6	17787	
668.78	18688	
668.97	18751	
669.15	17786	
669.34	16715	
669.53	18621	
669.71	18998	
669.9	17010	
670.08	17707	
670.27	18531	
670.46	19064	
670.64	17872	
670.83	18299	
671.01	18230	
671.2	18939	
671.38	16989	
671.57	16817	
671.76	19570	
671.94	20327	
672.13	16916	
672.31	17942	
672.5	19208	
672.69	18478	
672.87	17111	
673.06	17439	
673.24	19129	
673.43	18509	
673.61	17680	
673.8	17267	
673.98	19125	
674.17	19336	
674.36	17899	
674.54	17823	
674.73	18815	
674.91	19016	
675.1	17526	
675.28	16944	
675.47	18660	
675.65	19286	
675.84	17217	
676.03	17728	
676.21	18271	
676.4	17859	
676.58	18058	
676.77	17908	
676.95	19795	
677.14	18155	
677.32	16849	
677.51	16763	
677.69	19028	
677.88	17915	
678.06	16692	
678.25	16752	
678.44	18628	
678.62	18266	
678.81	16461	
678.99	17588	
679.18	19304	
679.36	18994	
679.55	17238	
679.73	17740	
679.92	18855	
680.1	18245	
680.29	18534	
680.47	17066	
680.66	18039	
680.84	18938	
681.03	16357	
681.21	17463	
681.4	18283	
681.58	18083	
681.77	16901	
681.95	16622	
682.14	19031	
682.32	19421	
682.51	17724	
682.69	16290	
682.88	18064	
683.06	18431	
683.25	17256	
683.43	17574	
683.62	18256	
683.8	18616	
683.99	17735	
684.17	16887	
684.36	19302	
684.54	17666	
684.73	15388	
684.91	15597	
685.1	17344	
685.28	16570	
685.46	15524	
685.65	15599	
685.83	17066	
686.02	16327	
686.2	14890	
686.39	15124	
686.57	16448	
686.76	18082	
686.94	15276	
687.13	15486	
687.31	17202	
687.5	16933	
687.68	14844	
687.86	16350	
688.05	18826	
688.23	16346	
688.42	16449	
688.6	15687	
688.79	16995	
688.97	16860	
689.16	16277	
689.34	15029	
689.52	17933	
689.71	18062	
689.89	16589	
690.08	15940	
690.26	17468	
690.45	17350	
690.63	16617	
690.81	16109	
691	16989	
691.18	17089	
691.37	15922	
691.55	18291	
691.74	16812	
691.92	18908	
692.1	15769	
692.29	15175	
692.47	17004	
692.66	16154	
692.84	15455	
693.02	15997	
693.21	16595	
693.39	16881	
693.58	16371	
693.76	15844	
693.94	18531	
694.13	18451	
694.31	16010	
694.5	17202	
694.68	17182	
694.86	17671	
695.05	16685	
695.23	16614	
695.42	18314	
695.6	20921	
695.78	17376	
695.97	16240	
696.15	18324	
696.34	17683	
696.52	15996	
696.7	16746	
696.89	17843	
697.07	17056	
697.25	16481	
697.44	18034	
697.62	17589	
697.81	17893	
697.99	15982	
698.17	16476	
698.36	16623	
698.54	17439	
698.72	16387	
698.91	15183	
699.09	16950	
699.28	16802	
699.46	15804	
699.64	15679	
699.83	16625	
700.01	17818	
700.19	16540	
700.38	14891	
700.56	17942	
700.74	16901	
700.93	15258	
701.11	16291	
701.29	17473	
701.48	18830	
701.66	15804	
701.84	15863	
702.03	17112	
702.21	17905	
702.39	15168	
702.58	15968	
702.76	17613	
702.94	17904	
703.13	15322	
703.31	18042	
703.49	16806	
703.68	17752	
703.86	15378	
704.04	16570	
704.23	17231	
704.41	17582	
704.59	15415	
704.78	16668	
704.96	18451	
705.14	17656	
705.33	15382	
705.51	16009	
705.69	17045	
705.87	17841	
706.06	16474	
706.24	15195	
706.42	17310	
706.61	17745	
706.79	16332	
706.97	15132	
707.16	16535	
707.34	17243	
707.52	16137	
707.7	15333	
707.89	16887	
708.07	16405	
708.25	16215	
708.44	16464	
708.62	16524	
708.8	17673	
708.98	16390	
709.17	15377	
709.35	17070	
709.53	16920	
709.72	14887	
709.9	15037	
710.08	16968	
710.26	17148	
710.45	16363	
710.63	15011	
710.81	16662	
710.99	16583	
711.18	15655	
711.36	14959	
711.54	16152	
711.72	16840	
711.91	14903	
712.09	14131	
712.27	16034	
712.45	17045	
712.64	14667	
712.82	13676	
713	15025	
713.18	15033	
713.37	13472	
713.55	14698	
713.73	15797	
713.91	13867	
714.1	13096	
714.28	12409	
714.46	14351	
714.64	13219	
714.83	10947	
715.01	11596	
715.19	12721	
715.37	11935	
715.55	10810	
715.74	11196	
715.92	13439	
716.1	11200	
716.28	12118	
716.47	11029	
716.65	11649	
716.83	11847	
717.01	10739	
717.19	10890	
717.38	14100	
717.56	11463	
717.74	11250	
717.92	10348	
718.1	13016	
718.29	12213	
718.47	10250	
718.65	11120	
718.83	13493	
719.01	13537	
719.2	10789	
719.38	11935	
719.56	13317	
719.74	15022	
719.92	11356	
720.11	12502	
720.29	13075	
720.47	11973	
720.65	10406	
720.83	11070	
721.02	11895	
721.2	11551	
721.38	10936	
721.56	10021	
721.74	10839	
721.92	11004	
722.11	11264	
722.29	10982	
722.47	12300	
722.65	11385	
722.83	9860.3	
723.01	10856	
723.2	11546	
723.38	11824	
723.56	9327.8	
723.74	10559	
723.92	10939	
724.1	12237	
724.29	9908.8	
724.47	11002	
724.65	10961	
724.83	10856	
725.01	9615.9	
725.19	10547	
725.37	10778	
725.56	10920	
725.74	9397.4	
725.92	9753.1	
726.1	10757	
726.28	10933	
726.46	10047	
726.64	9734.7	
726.83	10917	
727.01	11219	
727.19	9266.4	
727.37	10178	
727.55	11034	
727.73	11641	
727.91	9258.9	
728.09	9054.1	
728.28	11584	
728.46	12256	
728.64	10299	
728.82	10273	
729	12976	
729.18	12220	
729.36	9581.8	
729.54	12172	
729.72	13549	
729.91	11726	
730.09	11789	
730.27	10565	
730.45	11602	
730.63	12305	
730.81	11178	
730.99	10370	
731.17	12934	
731.35	11279	
731.53	10729	
731.71	10416	
731.9	12332	
732.08	12684	
732.26	10432	
732.44	10167	
732.62	12598	
732.8	12142	
732.98	10890	
733.16	9830.9	
733.34	11851	
733.52	10667	
733.7	10262	
733.88	10598	
734.07	11706	
734.25	11499	
734.43	9664.4	
734.61	11317	
734.79	13095	
734.97	11270	
735.15	9622	
735.33	10118	
735.51	11448	
735.69	11168	
735.87	11362	
736.05	10180	
736.23	11355	
736.41	11143	
736.59	10060	
736.77	10150	
736.95	11780	
737.13	11160	
737.32	9538.1	
737.5	9886.2	
737.68	12369	
737.86	10953	
738.04	9323	
738.22	11275	
738.4	10589	
738.58	11004	
738.76	9931.3	
738.94	8853.4	
739.12	10729	
739.3	10611	
739.48	10497	
739.66	10309	
739.84	11074	
740.02	11144	
740.2	8886.8	
740.38	9204.3	
740.56	11518	
740.74	10098	
740.92	9891	
741.1	9714.9	
741.28	10618	
741.46	10479	
741.64	9297.8	
741.82	9733.3	
742	10665	
742.18	10612	
742.36	9349.7	
742.54	8939.4	
742.72	11193	
742.9	9697.8	
743.08	9679.4	
743.26	8367.3	
743.44	11385	
743.62	11132	
743.8	9790	
743.98	8742.8	
744.16	10746	
744.34	10346	
744.52	9658.2	
744.7	9512.1	
744.88	10754	
745.06	10092	
745.24	9557.2	
745.42	9591.3	
745.6	10753	
745.78	10368	
745.96	8118.1	
746.14	8458.1	
746.32	11437	
746.5	10648	
746.68	9080.7	
746.86	8356.4	
747.03	10966	
747.21	9043.8	
747.39	8862.2	
747.57	8261.5	
747.75	9984.5	
747.93	10390	
748.11	8280.6	
748.29	8180.3	
748.47	11763	
748.65	9665	
748.83	9093.7	
749.01	8742.8	
749.19	10286	
749.37	9252	
749.55	8571.4	
749.73	8653.4	
749.91	9693.7	
750.09	9402.2	
750.26	8604.2	
750.44	8089.5	
750.62	9817.3	
750.8	9721	
750.98	7777.5	
751.16	8042.4	
751.34	9801.6	
751.52	9056.8	
751.7	8997.4	
751.88	7711.3	
752.06	10261	
752.24	10045	
752.42	7591.8	
752.59	7971.4	
752.77	9605.7	
752.95	11010	
753.13	8925.7	
753.31	8061.5	
753.49	9146.9	
753.67	9666.4	
753.85	8470.4	
754.03	7906.5	
754.21	9768.1	
754.38	10204	
754.56	7845.1	
754.74	6716	
754.92	8719.6	
755.1	9359.9	
755.28	6453.8	
755.46	6247.7	
755.64	9506	
755.82	9469.8	
755.99	5875.6	
756.17	5825.1	
756.35	6180.1	
756.53	7939.3	
756.71	4333.5	
756.89	5362.9	
757.07	7391.8	
757.25	6492.1	
757.42	6189	
757.6	7329.7	
757.78	7923.6	
757.96	6849.1	
758.14	6187.6	
758.32	5655.1	
758.5	6346	
758.67	7304.4	
758.85	5905	
759.03	5977.3	
759.21	7369.3	
759.39	6718.7	
759.57	5429.8	
759.75	6748.7	
759.92	7945.4	
760.1	7329.7	
760.28	7258	
760.46	7522.9	
760.64	7303.7	
760.82	6963.1	
760.99	7204.8	
761.17	6355.5	
761.35	8348.2	
761.53	7205.4	
761.71	6574.7	
761.89	7401.4	
762.06	8280.6	
762.24	7807.5	
762.42	6724.2	
762.6	6590.4	
762.78	7916.8	
762.96	8561.9	
763.13	7289.4	
763.31	6971.3	
763.49	8802.2	
763.67	7870.3	
763.85	7862.8	
764.02	8452	
764.2	9063.6	
764.38	8148.2	
764.56	6709.1	
764.74	7697.6	
764.91	9217.2	
765.09	7936.6	
765.27	6356.9	
765.45	6150.1	
765.63	9122.3	
765.8	8992.6	
765.98	5769.1	
766.16	6127.5	
766.34	7421.8	
766.52	7018.4	
766.69	7126.2	
766.87	5894.1	
767.05	7697.6	
767.23	8526.4	
767.41	6221	
767.58	6382.2	
767.76	8265.6	
767.94	8341.4	
768.12	6226.5	
768.29	7030	
768.47	7630	
768.65	8420.6	
768.83	5753.4	
769	6969.2	
769.18	7094.8	
769.36	7918.1	
769.54	6929.6	
769.72	5675.6	
769.89	8157.1	
770.07	8310	
770.25	5956.9	
770.43	7404.8	
770.6	8888.2	
770.78	9364.7	
770.96	6132.3	
771.14	6823.1	
771.31	7906.5	
771.49	7162.4	
771.67	5124.7	
771.85	5446.2	
772.02	6298.2	
772.2	7166.5	
772.38	6222.4	
772.55	5621	
772.73	7445.7	
772.91	7098.9	
773.09	6034	
773.26	6156.9	
773.44	7219.8	
773.62	6839.5	
773.8	5361.6	
773.97	5062.6	
774.15	7348.8	
774.33	6841.6	
774.5	5317.2	
774.68	5598.5	
774.86	7316	
775.04	6890.7	
775.21	5306.3	
775.39	5284.4	
775.57	7110.5	
775.74	7548.1	
775.92	5098.8	
776.1	5018.9	
776.27	7049.8	
776.45	8372.8	
776.63	5171.1	
776.81	4621.6	
776.98	6550.1	
777.16	7830.7	
777.34	5260.5	
777.51	5676.3	
777.69	6524.1	
777.87	6202.6	
778.04	5233.2	
778.22	6030.6	
778.4	6290	
778.57	6982.9	
778.75	4465.3	
778.93	4703.5	
779.1	6027.2	
779.28	5850.4	
779.46	4444.1	
779.64	4997	
779.81	7109.2	
779.99	8057.4	
780.17	5737.7	
780.34	5983.5	
780.52	6429.9	
780.69	6707.1	
780.87	5188.2	
781.05	4800.4	
781.22	6442.9	
781.4	6515.3	
781.58	4848.2	
781.75	3932.1	
781.93	6404	
782.11	5844.2	
782.28	5841.5	
782.46	4791.6	
782.64	5558.9	
782.81	6550.8	
782.99	4844.1	
783.17	4872.1	
783.34	6486.6	
783.52	5627.1	
783.69	5094.7	
783.87	5954.8	
784.05	5672.9	
784.22	5671.5	
784.4	5877.7	
784.58	5086.5	
784.75	6698.9	
784.93	5666	
785.1	4751.3	
785.28	5406.6	
785.46	6397.9	
785.63	5674.2	
785.81	4637.3	
785.99	4472.1	
786.16	5763	
786.34	6219	
786.51	4549.2	
786.69	5041.4	
786.87	5320.6	
787.04	5873.6	
787.22	4351.3	
787.39	5461.2	
787.57	5563.6	
787.75	6822.5	
787.92	5555.5	
788.1	5516.5	
788.27	5637.4	
788.45	5369.1	
788.63	5180	
788.8	3749.8	
788.98	6143.2	
789.15	5229.8	
789.33	3880.2	
789.5	4583.4	
789.68	6543.9	
789.86	6698.2	
790.03	5146.5	
790.21	4431.1	
790.38	6513.2	
790.56	5669.5	
790.73	4274.8	
790.91	4265.2	
791.09	5543.2	
791.26	6358.9	
791.44	4554.7	
791.61	3882.9	
791.79	5462.6	
791.96	5586.9	
792.14	4055.7	
792.32	3528.7	
792.49	5539.1	
792.67	5634	
792.84	4109.6	
793.02	3876.8	
793.19	5999.9	
793.37	6767.2	
793.54	3611.3	
793.72	3993.5	
793.89	6937.2	
794.07	5511.8	
794.25	4631.8	
794.42	3720.5	
794.6	6652.5	
794.77	6236.1	
794.95	4970.4	
795.12	4320.5	
795.3	5403.2	
795.47	6164.4	
795.65	4720.6	
795.82	4569	
796	5210.7	
796.17	7403.4	
796.35	4369	
796.52	5153.4	
796.7	6021	
796.87	6088.6	
797.05	5395	
797.22	5313.1	
797.4	6020.3	
797.57	7154.9	
797.75	4496	
797.92	4204.5	
798.1	6393.1	
798.27	5419.6	
798.45	3659	
798.62	3889.1	
798.8	5756.2	
798.97	6346	
799.15	4777.2	
799.32	4508.3	
799.5	4891.2	
799.67	5786.9	
799.85	4889.9	
800.02	3491.1	
800.2	5310.4	
800.37	5774.6	
800.55	5023.7	
800.72	4228.4	
800.9	6240.8	
801.07	6782.9	
801.25	5649	
801.42	4603.2	
801.6	6266.8	
801.77	5965.7	
801.95	4339	
802.12	4135.5	
802.29	5940.5	
802.47	5936.4	
802.64	4520.5	
802.82	3482.2	
802.99	5314.5	
803.17	6445.6	
803.34	4435.9	
803.52	4040.6	
803.69	7131	
803.87	5074.2	
804.04	4422.2	
804.21	4539	
804.39	6491.4	
804.56	5517.9	
804.74	3792.2	
804.91	4656.4	
805.09	5370.5	
805.26	5475.6	
805.44	3838.6	
805.61	4188.1	
805.78	6075	
805.96	6067.4	
806.13	4606.6	
806.31	4977.9	
806.48	4793.6	
806.66	5406.6	
806.83	4570.4	
807	4496.7	
807.18	5285.1	
807.35	5740.5	
807.53	4455	
807.7	3547.8	
807.87	6608.8	
808.05	5329.5	
808.22	4903.5	
808.4	3545.7	
808.57	5369.8	
808.74	4950.6	
808.92	3991.5	
809.09	5160.9	
809.27	5139	
809.44	5844.2	
809.61	3568.9	
809.79	3926	
809.96	6594.5	
810.14	6131.6	
810.31	3435.8	
810.48	4237.2	
810.66	5468.1	
810.83	6290	
811.01	4018.1	
811.18	4455.7	
811.35	6115.2	
811.53	4702.8	
811.7	4922	
811.87	4574.5	
812.05	5312.4	
812.22	5236	
812.39	3964.2	
812.57	3771	
812.74	5319.3	
812.92	7124.2	
813.09	4202.4	
813.26	4668.7	
813.44	6851.8	
813.61	5246.2	
813.78	3491.1	
813.96	4773.1	
814.13	5287.9	
814.3	4921.3	
814.48	5227.8	
814.65	4242.7	
814.82	6691.4	
815	5130.8	
815.17	4365.6	
815.34	5349.3	
815.52	5231.9	
815.69	5237.3	
815.87	4356.7	
816.04	4274.8	
816.21	5310.4	
816.38	4614.8	
816.56	4182	
816.73	3888.4	
816.9	6756.9	
817.08	6124.1	
817.25	3895.2	
817.42	4973.2	
817.6	4834.6	
817.77	5362.9	
817.94	4471.4	
818.12	3904.8	
818.29	5012.7	
818.46	7961.1	
818.64	4060.4	
818.81	3791.5	
818.98	4898.7	
819.16	7336.5	
819.33	4743.8	
819.5	4351.3	
819.67	5690.6	
819.85	6448.4	
820.02	4231.8	
820.19	4523.3	
820.37	5570.5	
820.54	5079	
820.71	4438.6	
820.88	5496.1	
821.06	5548.6	
821.23	5110.4	
821.4	4514.4	
821.58	4376.5	
821.75	6130.9	
821.92	5416.9	
822.09	3502	
822.27	3672	
822.44	5335	
822.61	5219.6	
822.79	3592.8	
822.96	6916	
823.13	5862.7	
823.3	4980.7	
823.48	4120.5	
823.65	3665.9	
823.82	6079.1	
823.99	4831.8	
824.17	5271.5	
824.34	3758	
824.51	6990.4	
824.68	5364.3	
824.86	3884.3	
825.03	4442	
825.2	5293.3	
825.37	6503.7	
825.55	3874.1	
825.72	4377.2	
825.89	7133.8	
826.06	6557.6	
826.24	4268	
826.41	4276.2	
826.58	6423.8	
826.75	5702.2	
826.92	3358	
827.1	3696.6	
827.27	8991.9	
827.44	7093.5	
827.61	4005.8	
827.79	4865.3	
827.96	4996.4	
828.13	5466	
828.3	4222.2	
828.47	3553.9	
828.65	5490.6	
828.82	5424.4	
828.99	5425.8	
829.16	4761.5	
829.34	5969.1	
829.51	5773.2	
829.68	4360.8	
829.85	4584	
830.02	6232	
830.2	5972.6	
830.37	3337.5	
830.54	5298.1	
830.71	6806.8	
830.88	5279.7	
831.05	3422.2	
831.23	3976.5	
831.4	6438.1	
831.57	7320.8	
831.74	4047.5	
831.91	3560.7	
832.09	5477	
832.26	5944.6	
832.43	4134.8	
832.6	4682.3	
832.77	5532.9	
832.94	6373.3	
833.12	3295.9	
833.29	4106.9	
833.46	5134.3	
833.63	7542	
833.8	4574.5	
833.97	4245.4	
834.15	5965.7	
834.32	5710.4	
834.49	4352.6	
834.66	4459.8	
834.83	6185.5	
835	4972.5	
835.17	4029	
835.35	4018.1	
835.52	5862.7	
835.69	5715.9	
835.86	4257	
836.03	3501.3	
836.2	5853.1	
836.37	5539.8	
836.55	4207.9	
836.72	3895.2	
836.89	5393	
837.06	5976	
837.23	4286.4	
837.4	4661.2	
837.57	6843.6	
837.75	7574.8	
837.92	3816.7	
838.09	4085.7	
838.26	5446.9	
838.43	6182.1	
838.6	4399.7	
838.77	3930.1	
838.94	7227.3	
839.11	6780.8	
839.29	4171.7	
839.46	3293.1	
839.63	5851	
839.8	5589.6	
839.97	4088.4	
840.14	4044.1	
840.31	5649.7	
840.48	5947.3	
840.65	3328.6	
840.82	3945.8	
841	5930.9	
841.17	5911.8	
841.34	3715.7	
841.51	3796.9	
841.68	5796.4	
841.85	5564.3	
842.02	3819.5	
842.19	3200.3	
842.36	5634	
842.53	5631.9	
842.7	3758	
842.87	4622.9	
843.05	7395.2	
843.22	5571.8	
843.39	3563.5	
843.56	3824.9	
843.73	5301.5	
843.9	5951.4	
844.07	6118.6	
844.24	5027.8	
844.41	8803.5	
844.58	5059.8	
844.75	3565.5	
844.92	3854.3	
845.09	5948	
845.26	5858.6	
845.43	3721.2	
845.6	3956.7	
845.77	5904.3	
845.94	5618.3	
846.12	4115.1	
846.29	4375.8	
846.46	6138.4	
846.63	5924.8	
846.8	3708.9	
846.97	4453	
847.14	6398.5	
847.31	5862.7	
847.48	4202.4	
847.65	4594.3	
847.82	6137.8	
847.99	6256.5	
848.16	5002.5	
848.33	4569	
848.5	5441.5	
848.67	6408.8	
848.84	3678.8	
849.01	3863.2	
849.18	5228.5	
849.35	4903.5	
849.52	4657.1	
849.69	3577.8	
849.86	6084.5	
850.03	6278.4	
850.2	3729.4	
850.37	4610.7	
850.54	6324.1	
850.71	5545.2	
850.88	4427	
851.05	3607.2	
851.22	5795.8	
851.39	6503	
851.56	3462.4	
851.73	4323.9	
851.9	5085.8	
852.07	6118	
852.24	4031.8	
852.41	3684.3	
852.58	5708.4	
852.75	5213.4	
852.92	4113	
853.09	3596.9	
853.26	5499.5	
853.43	6349.4	
853.6	3667.2	
853.77	3142.9	
853.94	6514.6	
854.11	5849	
854.28	5504.9	
854.44	4021.5	
854.61	6813.6	
854.78	6244.3	
854.95	3609.9	
855.12	4648.9	
855.29	4702.1	
855.46	6513.9	
855.63	3628.3	
855.8	5123.3	
855.97	5436	
856.14	6250.4	
856.31	5212.1	
856.48	4023.6	
856.65	5440.1	
856.82	5126.7	
856.99	3485.6	
857.16	3954.6	
857.33	7257.3	
857.49	5522	
857.66	3928	
857.83	4278.2	
858	5479.7	
858.17	5743.9	
858.34	3454.2	
858.51	3655.6	
858.68	6652.5	
858.85	6743.3	
859.02	4238.6	
859.19	4528.1	
859.36	5141.1	
859.52	5193	
859.69	3649.5	
859.86	4362.2	
860.03	5234.6	
860.2	6479.8	
860.37	3334.1	
860.54	3734.1	
860.71	6081.8	
860.88	6543.3	
861.05	4124.6	
861.21	4686.4	
861.38	6599.2	
861.55	5050.3	
861.72	3325.9	
861.89	4090.5	
862.06	6161	
862.23	6753.5	
862.4	3580.5	
862.56	3809.2	
862.73	6008.1	
862.9	5644.9	
863.07	4381.3	
863.24	3319.8	
863.41	5008	
863.58	5160.2	
863.75	3791.5	
863.91	4296.6	
864.08	6561.7	
864.25	6058.6	
864.42	4601.8	
864.59	5161.6	
864.76	6901.7	
864.93	5141.1	
865.09	3573.7	
865.26	3890.5	
865.43	6348	
865.6	6836.1	
865.77	3178.4	
865.94	3644	
866.1	6440.2	
866.27	6225.8	
866.44	5582.1	
866.61	3461.7	
866.78	5494.7	
866.95	6035.4	
867.11	3551.2	
867.28	3271.3	
867.45	6180.8	
867.62	5199.1	
867.79	4288.4	
867.96	3649.5	
868.12	5189.6	
868.29	6177.4	
868.46	3648.1	
868.63	4904.9	
868.8	6315.3	
868.97	6058.6	
869.13	3837.9	
869.3	3824.9	
869.47	5967.8	
869.64	6275	
869.81	3707.5	
869.97	3718.4	
870.14	5887.2	
870.31	6627.9	
870.48	3543.7	
870.65	4646.2	
870.81	5476.3	
870.98	5412.1	
871.15	4207.9	
871.32	3865.2	
871.48	5949.3	
871.65	6585.6	
871.82	3617.4	
871.99	4001.7	
872.16	7148.8	
872.32	6429.9	
872.49	3723.9	
872.66	3720.5	
872.83	6185.5	
872.99	5378.6	
873.16	4219.5	
873.33	3642	
873.5	5720	
873.67	5677.7	
873.83	3818.1	
874	4987.5	
874.17	5894.7	
874.34	7080.5	
874.5	4762.2	
874.67	4520.5	
874.84	6548	
875.01	5094	
875.17	5171.1	
875.34	3657	
875.51	5787.6	
875.68	6997.2	
875.84	4425.7	
876.01	5465.3	
876.18	6096.8	
876.34	6063.4	
876.51	3686.3	
876.68	3626.3	
876.85	5514.5	
877.01	6358.9	
877.18	5210.7	
877.35	3683.6	
877.52	5612.8	
877.68	5038.7	
877.85	3505.4	
878.02	3583.3	
878.18	5602.6	
878.35	5302.9	
878.52	2889.7	
878.69	4065.2	
878.85	6100.9	
879.02	6083.1	
879.19	5237.3	
879.35	3941	
879.52	6019	
879.69	6279.1	
879.86	3162.7	
880.02	4104.8	
880.19	5602.6	
880.36	6894.1	
880.52	4183.3	
880.69	4357.4	
880.86	6219	
881.02	6236.7	
881.19	4035.9	
881.36	3962.8	
881.52	6109.1	
881.69	5284.4	
881.86	3960.8	
882.02	3863.8	
882.19	6355.5	
882.36	7488.7	
882.52	3762.8	
882.69	5185.5	
882.86	5864.7	
883.02	5717.9	
883.19	4458.4	
883.36	4207.9	
883.52	6199.2	
883.69	7083.9	
883.86	3715	
884.02	3323.2	
884.19	6110.5	
884.36	5659.2	
884.52	4100	
884.69	3897.3	
884.86	5374.6	
885.02	6781.5	
885.19	4106.2	
885.36	4184.7	
885.52	5694.7	
885.69	5783.5	
885.86	5328.1	
886.02	4705.5	
886.19	6137.8	
886.35	5550.7	
886.52	4095.3	
886.69	5100.8	
886.85	5197.7	
887.02	6539.2	
887.19	6539.2	
887.35	6539.2	
887.52	6539.2	
887.68	6539.2	
887.85	6539.2	
888.02	6539.2	
888.18	6539.2	
888.35	6539.2	
888.51	6539.2	
888.68	6539.2	
888.85	6539.2	
889.01	6539.2	
889.18	6539.2	
889.35	6539.2	
889.51	6539.2	
889.68	6539.2	
889.84	6539.2	
890.01	6539.2	
890.17	6539.2	
890.34	6539.2	
890.51	6539.2	
890.67	6539.2	
890.84	6539.2	
891	6539.2	
891.17	6539.2	
891.34	6539.2	
891.5	6539.2	
891.67	6539.2	
891.83	6539.2	
892	6539.2	
892.16	6539.2	
892.33	6539.2	
892.5	6539.2	
892.66	6539.2	
892.83	6539.2	
892.99	6539.2	
893.16	6539.2	
893.32	6539.2	
893.49	6539.2	
893.65	6539.2	
893.82	6539.2	
893.99	6539.2	
894.15	6539.2	
894.32	6539.2	
894.48	6539.2	
894.65	6539.2	
894.81	6539.2	
894.98	6539.2	
895.14	6539.2	
895.31	6539.2	
895.47	6539.2	
895.64	6539.2	
895.81	6539.2	
895.97	6539.2	
896.14	6539.2	
896.3	6539.2	
896.47	6539.2	
896.63	6539.2	
896.8	6539.2	
896.96	6539.2	
897.13	6539.2	
897.29	6539.2	
897.46	6539.2	
897.62	6539.2	
897.79	6539.2	
897.95	6539.2	
898.12	6539.2	
898.28	6539.2	
898.45	6539.2	
898.61	6539.2	
898.78	6539.2	
898.94	6539.2	
899.11	6539.2	
899.27	6539.2	
899.44	6539.2	
899.6	6539.2	
899.77	6539.2	
899.93	6539.2	
900.1	6539.2	
900.26	6539.2	
900.43	6539.2	
900.59	6539.2	
900.76	6539.2	
900.92	6539.2	
901.09	6539.2	
901.25	6539.2	
901.42	6539.2	
901.58	6539.2	
901.75	6539.2	
901.91	6539.2	
902.07	6539.2	
902.24	6539.2	
902.4	6539.2	
902.57	6539.2	
902.73	6539.2	
902.9	6539.2	
903.06	6539.2	
903.23	6539.2	
903.39	6539.2	
903.56	6539.2	
903.72	6539.2	
903.88	6539.2	
904.05	6539.2	
904.21	6539.2	
904.38	6539.2	
904.54	6539.2	
904.71	6539.2	
904.87	6539.2	
905.03	6539.2	
905.2	6539.2	
905.36	6539.2	
905.53	6539.2	
905.69	6539.2	
905.86	6539.2	
906.02	6539.2	
906.18	6539.2	
906.35	6539.2	
906.51	6539.2	
906.68	6539.2	
906.84	6539.2	
907.01	6539.2	
907.17	6539.2	
907.33	6539.2	
907.5	6539.2	
907.66	6539.2	
907.83	6539.2	
907.99	6539.2	
908.15	6539.2	
908.32	6539.2	
908.48	6539.2	
908.65	6539.2	
908.81	6539.2	
908.97	6539.2	
909.14	6539.2	
909.3	6539.2	
909.47	6539.2	
909.63	6539.2	
909.79	6539.2	
909.96	6539.2	
910.12	6539.2	
910.28	6539.2	
910.45	6539.2	
910.61	6539.2	
910.78	6539.2	
910.94	6539.2	
911.1	6539.2	
911.27	6539.2	
911.43	6539.2	
911.59	6539.2	
911.76	6539.2	
911.92	6539.2	
912.08	6539.2	
912.25	6539.2	
912.41	6539.2	
912.57	6539.2	
912.74	6539.2	
912.9	6539.2	
913.07	6539.2	
913.23	6539.2	
913.39	6539.2	
913.56	6539.2	
913.72	6539.2	
913.88	6539.2	
914.05	6539.2	
914.21	6539.2	
914.37	6539.2	
914.54	6539.2	
914.7	6539.2	
914.86	6539.2	
915.03	6539.2	
915.19	6539.2	
