Wavelength	Intensities	
nm	a.u.	
179.22	1942.2	
179.44	1938.1	
179.65	1946.3	
179.86	1929.9	
180.08	1933.3	
180.29	5053.7	
180.51	3574.4	
180.72	5753.4	
180.94	6720.8	
181.15	3320.4	
181.37	3233.1	
181.58	5605.3	
181.79	5913.2	
182.01	3433.8	
182.22	3708.2	
182.44	5855.1	
182.65	4882.4	
182.87	4689.8	
183.08	4097.3	
183.29	6172.6	
183.51	5048.9	
183.72	3780.6	
183.94	5560.9	
184.15	5504.3	
184.37	5592.3	
184.58	3300	
184.79	4635.9	
185.01	5025	
185.22	5891.3	
185.44	4843.4	
185.65	4044.1	
185.86	5354.8	
186.08	4982	
186.29	3168.9	
186.51	3446.7	
186.72	5170.4	
186.94	6089.3	
187.15	3992.9	
187.36	4137.6	
187.58	7831.4	
187.79	5612.8	
188.01	4323.9	
188.22	6747.4	
188.43	6782.9	
188.65	5827.2	
188.86	3414.6	
189.08	4124.6	
189.29	5296	
189.5	5372.5	
189.72	3816	
189.93	3900.7	
190.15	6124.8	
190.36	7267.6	
190.57	4289.1	
190.79	4100.7	
191	6128.9	
191.22	6152.1	
191.43	4220.2	
191.64	3438.5	
191.86	6348	
192.07	6114.6	
192.29	3639.9	
192.5	3833.8	
192.71	6071.5	
192.93	5268.7	
193.14	3777.8	
193.35	3849.5	
193.57	5259.2	
193.78	6040.8	
194	3037.8	
194.21	3784.6	
194.42	5066.7	
194.64	5566.4	
194.85	4147.8	
195.07	4853	
195.28	5561.6	
195.49	4745.8	
195.71	5111	
195.92	3581.2	
196.13	5736.4	
196.35	5827.2	
196.56	5463.3	
196.78	4151.2	
196.99	7202.7	
197.2	6688.7	
197.42	4754	
197.63	4182	
197.84	4920.6	
198.06	5700.9	
198.27	3846.8	
198.48	5249.6	
198.7	5272.8	
198.91	5393.7	
199.13	4213.4	
199.34	4130.8	
199.55	5935.7	
199.77	4741.7	
199.98	3701.4	
200.19	4191.5	
200.41	5357.5	
200.62	5109	
200.83	4354.7	
201.05	4724.7	
201.26	5423.7	
201.47	5108.3	
201.69	3707.5	
201.9	3536.8	
202.11	5468.8	
202.33	6564.4	
202.54	3949.8	
202.76	4469.4	
202.97	5599.1	
203.18	5560.2	
203.4	4357.4	
203.61	4244.1	
203.82	5546.6	
204.04	5150.6	
204.25	4221.5	
204.46	4158.1	
204.68	5542.5	
204.89	5793	
205.1	4040.6	
205.32	3487.7	
205.53	5947.3	
205.74	6102.3	
205.96	2960.7	
206.17	4293.2	
206.38	5929.6	
206.6	6029.2	
206.81	4747.9	
207.02	3908.9	
207.24	5815.5	
207.45	6199.2	
207.66	3951.9	
207.88	3397.6	
208.09	5743.2	
208.3	5516.5	
208.52	3651.5	
208.73	4044.7	
208.94	5530.9	
209.15	6285.9	
209.37	4010.6	
209.58	4195.6	
209.79	6071.5	
210.01	5267.4	
210.22	3173.7	
210.43	3291.1	
210.65	5489.2	
210.86	5972.6	
211.07	3960.8	
211.29	3602.4	
211.5	5870.2	
211.71	5410.7	
211.93	3593.5	
212.14	3611.3	
212.35	5488.6	
212.56	5709.1	
212.78	4227.7	
212.99	3420.1	
213.2	6462.7	
213.42	5221	
213.63	3745.7	
213.84	4080.9	
214.06	4915.8	
214.27	5023	
214.48	3946.4	
214.69	4267.3	
214.91	6242.9	
215.12	6283.2	
215.33	4364.9	
215.55	4714.4	
215.76	6800.6	
215.97	5926.1	
216.18	4126.7	
216.4	4086.4	
216.61	5199.8	
216.82	6036	
217.04	3692.5	
217.25	3826.3	
217.46	6244.9	
217.67	5938.4	
217.89	3282.9	
218.1	3398.3	
218.31	5596.4	
218.53	5714.5	
218.74	3846.8	
218.95	3723.9	
219.16	5464	
219.38	6472.3	
219.59	3791.5	
219.8	4437.9	
220.01	7198.6	
220.23	5514.5	
220.44	4901.5	
220.65	3661.1	
220.87	5577.3	
221.08	6161.7	
221.29	3395.5	
221.5	4528.1	
221.72	7586.4	
221.93	5193.6	
222.14	4248.9	
222.35	4902.2	
222.57	5522.7	
222.78	5884.5	
222.99	4003.8	
223.2	4350.6	
223.42	5835.3	
223.63	5937.1	
223.84	3075.4	
224.05	3064.4	
224.27	7068.9	
224.48	6475.7	
224.69	4984.8	
224.9	4190.8	
225.12	5747.3	
225.33	5450.3	
225.54	3332.7	
225.75	3742.3	
225.97	5067.4	
226.18	5365	
226.39	4053.6	
226.6	3777.8	
226.82	5242.8	
227.03	5082.4	
227.24	4264.6	
227.45	3438.5	
227.67	5868.8	
227.88	6574	
228.09	4664.6	
228.3	4710.3	
228.52	5959.6	
228.73	5561.6	
228.94	3878.9	
229.15	3449.5	
229.36	5401.2	
229.58	5339.1	
229.79	3908.9	
230	4546.5	
230.21	6587	
230.43	5582.1	
230.64	4177.9	
230.85	4394.3	
231.06	5875.6	
231.28	5961.6	
231.49	3415.3	
231.7	4123.2	
231.91	5904.3	
232.12	5566.4	
232.34	3479.5	
232.55	4103.4	
232.76	6185.5	
232.97	5669.5	
233.18	3647.4	
233.4	4123.2	
233.61	5806	
233.82	5240.8	
234.03	3832.4	
234.25	3762.1	
234.46	7696.9	
234.67	5551.4	
234.88	4219.5	
235.09	3685	
235.31	5816.2	
235.52	5356.1	
235.73	4096.6	
235.94	3459	
236.15	5229.1	
236.37	6698.9	
236.58	3673.4	
236.79	4035.9	
237	5876.3	
237.21	5008	
237.43	4313	
237.64	3390.8	
237.85	10127	
238.06	5079.6	
238.27	4355.3	
238.48	3473.4	
238.7	5859.9	
238.91	5339.1	
239.12	3966.9	
239.33	4020.2	
239.54	5048.2	
239.76	5435.3	
239.97	4003.1	
240.18	3960.8	
240.39	6897.6	
240.6	5767.8	
240.82	4113	
241.03	3430.3	
241.24	5509.7	
241.45	6416.3	
241.66	3686.3	
241.87	4286.4	
242.09	6257.2	
242.3	6662.7	
242.51	4407.2	
242.72	4056.3	
242.93	5960.3	
243.14	5453.7	
243.36	4644.1	
243.57	5063.9	
243.78	6418.3	
243.99	5896.1	
244.2	3999.7	
244.41	3581.2	
244.63	5059.8	
244.84	5889.3	
245.05	4265.2	
245.26	4060.4	
245.47	5795.8	
245.68	6093.4	
245.9	5358.2	
246.11	4232.5	
246.32	5337.7	
246.53	5780.7	
246.74	6538.5	
246.95	3360	
247.16	4997.7	
247.38	5502.2	
247.59	3362.8	
247.8	4067.9	
248.01	5227.8	
248.22	5489.2	
248.43	3679.5	
248.64	3887.7	
248.86	4846.2	
249.07	5268.1	
249.28	3469.3	
249.49	4085	
249.7	6124.1	
249.91	6201.2	
250.12	3334.8	
250.34	3396.9	
250.55	5586.2	
250.76	5532.2	
250.97	4196.3	
251.18	4223.6	
251.39	6286.6	
251.6	5773.9	
251.81	4248.2	
252.03	4263.9	
252.24	5197.1	
252.45	6053.8	
252.66	3491.8	
252.87	4485.1	
253.08	5560.9	
253.29	7289.4	
253.5	3499.3	
253.72	4866.7	
253.93	5350.7	
254.14	6594.5	
254.35	3817.4	
254.56	3943	
254.77	5800.5	
254.98	5110.4	
255.19	3711.6	
255.41	4876.2	
255.62	5641.5	
255.83	6210.1	
256.04	4301.4	
256.25	4222.2	
256.46	6844.3	
256.67	5231.2	
256.88	4117.8	
257.09	4678.2	
257.31	5165	
257.52	5171.8	
257.73	5210	
257.94	3732.1	
258.15	5312.4	
258.36	5565	
258.57	4838.7	
258.78	2967.5	
258.99	6023.8	
259.2	5329.5	
259.41	3760.1	
259.63	3911.6	
259.84	6415.6	
260.05	6933.7	
260.26	5068.7	
260.47	3702	
260.68	6148	
260.89	5444.2	
261.1	4572.4	
261.31	3644	
261.52	6116.6	
261.73	6505.7	
261.95	4949.3	
262.16	4355.3	
262.37	6223.1	
262.58	6357.6	
262.79	4873.5	
263	3945.8	
263.21	5510.4	
263.42	5001.1	
263.63	3984.7	
263.84	3794.2	
264.05	6038.8	
264.26	6546	
264.47	4773.8	
264.69	4314.4	
264.9	6253.1	
265.11	5782.8	
265.32	3776.5	
265.53	3832.4	
265.74	5649.7	
265.95	4901.5	
266.16	4102.1	
266.37	4514.4	
266.58	5663.3	
266.79	5362.3	
267	3848.8	
267.21	3554.6	
267.42	5044.1	
267.63	5515.2	
267.84	3964.9	
268.06	3442.6	
268.27	5945.9	
268.48	6250.4	
268.69	3923.2	
268.9	4661.9	
269.11	6187.6	
269.32	4961.5	
269.53	3974.4	
269.74	3738.2	
269.95	5874.3	
270.16	4871.4	
270.37	4029	
270.58	4606.6	
270.79	5365	
271	6096.1	
271.21	4272.7	
271.42	4052.2	
271.63	5666	
271.84	5145.9	
272.05	3239.9	
272.26	3632.4	
272.47	5541.8	
272.68	5683.1	
272.89	3845.4	
273.11	4449.6	
273.32	5311.7	
273.53	6522.8	
273.74	4321.9	
273.95	4208.6	
274.16	6196.5	
274.37	5535.7	
274.58	4382	
274.79	3551.9	
275	5689.3	
275.21	6270.2	
275.42	5313.1	
275.63	4599.1	
275.84	5796.4	
276.05	7294.9	
276.26	4237.2	
276.47	3928.7	
276.68	5379.3	
276.89	6581.5	
277.1	4558.8	
277.31	3523.2	
277.52	5820.3	
277.73	5971.9	
277.94	3488.4	
278.15	3889.1	
278.36	5759.6	
278.57	5179.3	
278.78	3825.6	
278.99	4406.5	
279.2	5139.7	
279.41	5093.3	
279.62	5072.1	
279.83	3544.4	
280.04	6739.9	
280.25	5010	
280.46	5064.6	
280.67	4057.7	
280.88	5132.9	
281.09	6201.2	
281.3	4216.8	
281.51	5431.9	
281.72	6023.8	
281.93	6126.8	
282.14	3776.5	
282.35	4051.6	
282.56	6013.5	
282.77	6011.5	
282.98	3867.9	
283.19	4787.5	
283.4	7467.6	
283.61	5468.1	
283.82	3569.6	
284.03	4988.9	
284.24	5662.6	
284.45	6212.9	
284.66	5001.8	
284.87	4758.1	
285.08	6154.1	
285.29	6295.5	
285.5	3406.5	
285.71	3934.8	
285.92	6220.4	
286.12	6868.2	
286.33	4997	
286.54	3900.7	
286.75	6038.1	
286.96	5334.3	
287.17	3464.5	
287.38	4878.3	
287.59	5125.4	
287.8	4997.7	
288.01	4012	
288.22	4573.1	
288.43	6104.3	
288.64	5079.6	
288.85	4659.1	
289.06	4450.9	
289.27	6008.1	
289.48	6570.6	
289.69	4949.9	
289.9	4491.9	
290.11	6252.4	
290.32	5234.6	
290.53	4733.5	
290.74	4389.5	
290.94	5999.2	
291.15	6187.6	
291.36	3811.3	
291.57	4524.6	
291.78	5278.3	
291.99	4945.2	
292.2	3631.7	
292.41	4403.8	
292.62	6102.9	
292.83	5894.7	
293.04	5369.1	
293.25	3627.6	
293.46	5319.3	
293.67	6078.4	
293.88	3764.2	
294.09	3613.3	
294.29	5050.3	
294.5	5705	
294.71	4042	
294.92	3856.3	
295.13	5336.3	
295.34	6731.7	
295.55	3386.7	
295.76	3474	
295.97	5958.2	
296.18	6811.5	
296.39	3551.2	
296.6	3783.3	
296.81	5649	
297.01	5945.9	
297.22	3900.7	
297.43	3743.7	
297.64	5125.4	
297.85	5121.3	
298.06	3070.6	
298.27	3336.8	
298.48	5614.8	
298.69	5223	
298.9	4074.8	
299.11	3745.1	
299.31	5007.3	
299.52	5030.5	
299.73	4422.2	
299.94	4280.9	
300.15	5496.1	
300.36	5141.1	
300.57	4305.5	
300.78	4274.1	
300.99	5388.2	
301.2	5677.7	
301.4	3650.2	
301.61	4087.7	
301.82	5859.9	
302.03	5963.7	
302.24	4625.7	
302.45	3568.2	
302.66	5809.4	
302.87	6330.3	
303.08	3712.3	
303.29	5170.4	
303.49	5297.4	
303.7	5549.3	
303.91	3379.8	
304.12	4911.7	
304.33	5051	
304.54	5622.4	
304.75	3789.4	
304.96	3583.3	
305.16	5894.1	
305.37	6718	
305.58	3264.5	
305.79	3411.9	
306	5847.6	
306.21	4944.5	
306.42	3792.8	
306.63	5790.3	
306.83	5397.1	
307.04	6157.6	
307.25	4137.6	
307.46	4102.1	
307.67	4742.4	
307.88	6014.9	
308.09	3672	
308.29	3895.2	
308.5	5644.9	
308.71	6189.6	
308.92	3984.7	
309.13	3690.4	
309.34	5393	
309.55	5494	
309.75	4663.9	
309.96	4370.4	
310.17	5980.1	
310.38	5220.3	
310.59	4511.7	
310.8	3446	
311.01	5369.8	
311.21	5402.5	
311.42	3577.8	
311.63	3659.7	
311.84	5223.7	
312.05	5711.8	
312.26	4163.5	
312.46	4604.5	
312.67	5393	
312.88	5051.7	
313.09	3631.7	
313.3	3535.5	
313.51	6351.4	
313.71	6801.3	
313.92	3612.6	
314.13	3855	
314.34	5745.9	
314.55	5466	
314.76	4726.7	
314.96	4067.3	
315.17	5634.6	
315.38	5957.5	
315.59	3651.5	
315.8	3445.4	
316.01	6468.2	
316.21	6504.3	
316.42	3495.2	
316.63	4078.9	
316.84	5344.5	
317.05	6276.3	
317.26	4283	
317.46	3852.9	
317.67	5431.9	
317.88	5942.5	
318.09	4663.2	
318.3	3358	
318.5	5227.8	
318.71	5874.3	
318.92	5882.4	
319.13	4304.8	
319.34	6086.6	
319.54	6160.3	
319.75	3382.6	
319.96	3216.7	
320.17	5952.1	
320.38	6169.8	
320.58	3282.9	
320.79	3989.4	
321	6173.9	
321.21	6203.3	
321.42	4041.3	
321.62	3352.5	
321.83	5142.4	
322.04	5515.9	
322.25	3876.8	
322.46	3693.2	
322.66	5702.9	
322.87	5795.8	
323.08	4528.1	
323.29	3570.3	
323.5	6681.8	
323.7	5079.6	
323.91	5014.1	
324.12	4517.8	
324.33	5595.1	
324.53	5873.6	
324.74	4288.4	
324.95	4498	
325.16	4883.7	
325.37	5343.2	
325.57	3675.4	
325.78	3708.2	
325.99	5621.7	
326.2	5042.1	
326.4	5362.9	
326.61	3370.3	
326.82	5480.4	
327.03	5638.1	
327.24	5197.1	
327.44	5008	
327.65	5762.3	
327.86	4698	
328.07	4282.3	
328.27	3513.6	
328.48	6219	
328.69	5130.8	
328.9	5274.2	
329.1	3961.5	
329.31	5408	
329.52	6430.6	
329.73	3553.2	
329.93	4180.6	
330.14	5553.4	
330.35	5810.8	
330.56	6122.1	
330.76	4502.8	
330.97	5384.1	
331.18	5788.9	
331.39	4093.2	
331.59	3290.4	
331.8	6187.6	
332.01	6251.8	
332.22	3737.5	
332.42	4341.7	
332.63	5667.4	
332.84	5287.9	
333.05	4119.8	
333.25	3738.2	
333.46	5343.8	
333.67	5595.7	
333.88	3830.4	
334.08	4263.9	
334.29	7429.3	
334.5	6255.9	
334.7	3601	
334.91	5241.4	
335.12	5055.8	
335.33	6035.4	
335.53	4014	
335.74	6091.3	
335.95	5294.7	
336.16	5099.4	
336.36	4063.2	
336.57	4700.1	
336.78	5072.8	
336.98	6196.5	
337.19	5082.4	
337.4	4003.1	
337.61	6710.5	
337.81	5066.7	
338.02	3710.9	
338.23	4878.3	
338.43	6348	
338.64	5203.9	
338.85	3697.9	
339.05	4828.4	
339.26	6473.6	
339.47	4962.2	
339.68	3678.2	
339.88	5480.4	
340.09	5728.9	
340.3	6051.1	
340.5	4309.6	
340.71	3239.9	
340.92	5020.9	
341.13	6345.3	
341.33	3523.2	
341.54	4349.9	
341.75	5843.5	
341.95	5384.1	
342.16	4136.2	
342.37	4523.3	
342.57	5125.4	
342.78	5500.8	
342.99	4556.7	
343.19	3246	
343.4	5969.8	
343.61	5848.3	
343.81	3899.3	
344.02	3552.5	
344.23	6007.4	
344.43	6359.6	
344.64	4500.8	
344.85	4496	
345.06	5849.7	
345.26	6173.3	
345.47	4233.2	
345.68	4951.3	
345.88	4872.1	
346.09	6036	
346.3	4340.3	
346.5	3312.9	
346.71	5537	
346.92	5216.9	
347.12	3310.9	
347.33	4259.8	
347.54	6184.9	
347.74	6617.7	
347.95	4219.5	
348.16	3127.9	
348.36	5333.6	
348.57	5116.5	
348.78	4139.6	
348.98	4504.2	
349.19	5525.4	
349.39	4969.7	
349.6	3310.2	
349.81	3742.3	
350.01	5782.1	
350.22	5248.9	
350.43	4021.5	
350.63	4945.8	
350.84	5634	
351.05	5325.4	
351.25	3680.9	
351.46	3340.9	
351.67	6171.9	
351.87	5218.2	
352.08	3920.5	
352.29	4489.8	
352.49	6071.5	
352.7	5748.6	
352.9	3613.3	
353.11	4462.5	
353.32	6764.4	
353.52	5401.2	
353.73	3490.4	
353.94	4574.5	
354.14	5887.9	
354.35	5724.8	
354.55	3715	
354.76	4024.3	
354.97	5825.1	
355.17	5625.8	
355.38	3413.3	
355.59	4846.2	
355.79	5206.6	
356	5693.4	
356.2	4067.9	
356.41	3526.6	
356.62	4956.1	
356.82	5461.9	
357.03	4325.3	
357.24	3900.7	
357.44	5309.7	
357.65	5362.3	
357.85	5270.1	
358.06	4117.1	
358.27	4960.2	
358.47	5237.3	
358.68	3386	
358.88	4323.3	
359.09	5838.8	
359.3	6247	
359.5	5091.3	
359.71	4491.9	
359.91	6724.8	
360.12	6006	
360.33	4351.9	
360.53	4805.9	
360.74	5312.4	
360.94	5319.3	
361.15	4528.1	
361.36	3720.5	
361.56	6115.9	
361.77	5560.2	
361.97	5083.1	
362.18	4003.8	
362.38	6113.9	
362.59	5179.3	
362.8	3680.2	
363	3542.3	
363.21	4944.5	
363.41	5658.5	
363.62	4245.4	
363.83	5335.6	
364.03	5756.8	
364.24	6784.9	
364.44	5388.2	
364.65	5482.4	
364.85	5545.2	
365.06	5100.1	
365.27	3864.5	
365.47	3897.3	
365.68	6488.6	
365.88	5446.2	
366.09	4256.4	
366.29	3962.1	
366.5	5782.1	
366.71	6211.5	
366.91	5390.3	
367.12	4478.2	
367.32	6830	
367.53	6102.3	
367.73	4437.9	
367.94	5472.9	
368.14	5972.6	
368.35	6980.8	
368.56	4526.7	
368.76	3756	
368.97	6109.8	
369.17	7912.7	
369.38	3859.1	
369.58	4192.9	
369.79	5155.4	
369.99	6490	
370.2	5200.5	
370.4	4303.5	
370.61	5801.2	
370.82	7066.9	
371.02	4161.5	
371.23	3510.9	
371.43	5059.8	
371.64	6471.6	
371.84	4224.3	
372.05	5459.2	
372.25	7848.5	
372.46	6219	
372.66	4237.2	
372.87	4173.1	
373.07	6218.3	
373.28	7901.1	
373.48	5359.5	
373.69	5047.6	
373.9	5605.3	
374.1	5736.4	
374.31	5317.2	
374.51	4762.9	
374.72	6559.6	
374.92	5367	
375.13	5430.5	
375.33	4619.5	
375.54	6111.1	
375.74	5618.9	
375.95	4635.2	
376.15	5996.5	
376.36	6155.5	
376.56	5950	
376.77	4744.5	
376.97	5225.7	
377.18	7234.1	
377.38	6289.3	
377.59	5532.2	
377.79	4233.2	
378	6005.3	
378.2	6516.6	
378.41	4311.7	
378.61	4277.5	
378.82	6567.8	
379.02	5607.3	
379.23	4375.8	
379.43	5615.5	
379.64	6604	
379.84	6289.3	
380.05	4313	
380.25	4172.4	
380.46	6313.9	
380.66	5909.8	
380.87	5705.6	
381.07	6036.7	
381.28	6938.5	
381.48	6333.7	
381.69	4328.7	
381.89	4273.4	
382.1	5242.1	
382.3	6450.4	
382.51	5453.1	
382.71	6381.5	
382.91	6343.2	
383.12	6917.4	
383.32	4675.5	
383.53	4965	
383.73	6219.7	
383.94	6026.5	
384.14	4815.5	
384.35	3957.4	
384.55	5905	
384.76	6333.7	
384.96	4681.7	
385.17	4965.6	
385.37	6251.1	
385.58	5547.9	
385.78	5008	
385.98	3874.8	
386.19	5786.9	
386.39	6208.8	
386.6	4437.9	
386.8	4712.4	
387.01	6382.2	
387.21	6427.9	
387.42	5110.4	
387.62	5718.6	
387.83	5631.9	
388.03	6356.2	
388.23	4777.2	
388.44	5638.7	
388.64	5328.1	
388.85	5464.7	
389.05	5222.3	
389.26	5810.1	
389.46	7499	
389.67	6757.6	
389.87	5125.4	
390.07	5188.9	
390.28	6048.3	
390.48	5539.1	
390.69	4369.7	
390.89	4683.7	
391.1	5780.7	
391.3	6825.9	
391.5	5905.7	
391.71	6544.6	
391.91	6530.3	
392.12	7578.8	
392.32	6040.1	
392.53	5182	
392.73	5803.9	
392.93	6094.8	
393.14	4799.8	
393.34	5629.2	
393.55	6583.5	
393.75	5993.7	
393.95	4823.6	
394.16	4771.8	
394.36	5803.3	
394.57	6540.5	
394.77	4300.1	
394.98	4766.3	
395.18	5810.1	
395.38	6045.6	
395.59	5661.3	
395.79	4584.7	
396	5877.7	
396.2	6438.8	
396.4	5451.7	
396.61	5414.1	
396.81	6610.8	
397.02	5958.9	
397.22	5692	
397.42	5841.5	
397.63	6652.5	
397.83	5896.1	
398.04	4584.7	
398.24	5192.3	
398.44	6464.8	
398.65	5531.6	
398.85	4483	
399.05	4553.3	
399.26	5823.1	
399.46	7677.2	
399.67	5027.1	
399.87	4679.6	
400.07	6228.6	
400.28	6620.4	
400.48	4845.5	
400.69	5920	
400.89	6935.8	
401.09	7296.2	
401.3	4692.6	
401.5	5946.6	
401.7	7681.9	
401.91	7997.3	
402.11	5085.1	
402.32	5306.3	
402.52	6926.2	
402.72	6809.5	
402.93	5502.2	
403.13	4341.7	
403.33	7654.6	
403.54	6317.3	
403.74	5120.6	
403.94	6135	
404.15	6423.8	
404.35	7626	
404.56	4984.1	
404.76	6898.9	
404.96	6888.7	
405.17	6642.9	
405.37	6130.3	
405.57	5580	
405.78	6946	
405.98	6303	
406.18	5048.9	
406.39	5959.6	
406.59	6899.6	
406.79	6482.5	
407	4816.8	
407.2	4857.8	
407.4	6942.6	
407.61	7148.1	
407.81	4973.8	
408.01	7215	
408.22	5948.7	
408.42	8048.5	
408.62	6152.8	
408.83	5613.5	
409.03	6678.4	
409.23	6540.5	
409.44	5768.4	
409.64	6119.3	
409.84	7626.6	
410.05	7656	
410.25	5862	
410.45	5724.8	
410.66	7111.9	
410.86	9747	
411.06	6208.8	
411.27	6128.9	
411.47	9518.3	
411.67	7309.9	
411.88	6321.4	
412.08	6705	
412.28	8071	
412.49	8550.3	
412.69	6100.2	
412.89	6294.1	
413.09	8359.8	
413.3	8205.5	
413.5	6405.4	
413.7	5885.9	
413.91	7515.4	
414.11	8370.7	
414.31	6152.8	
414.52	6600.6	
414.72	7973.4	
414.92	7928.4	
415.12	6142.5	
415.33	6748.7	
415.53	8381	
415.73	8624	
415.94	7068.9	
416.14	6518.7	
416.34	7413	
416.55	7153.6	
416.75	7851.2	
416.95	7214.3	
417.15	8430.1	
417.36	9226.1	
417.56	8074.5	
417.76	7034.1	
417.97	8876.6	
418.17	8551.6	
418.37	6670.2	
418.57	6658.6	
418.78	8247.9	
418.98	7892.9	
419.18	7624.6	
419.38	7546.1	
419.59	8054.7	
419.79	7618.4	
419.99	6437.4	
420.2	7000.6	
420.4	8566	
420.6	8771.5	
420.8	6416.3	
421.01	6347.3	
421.21	8330.5	
421.41	8559.1	
421.61	6864.8	
421.82	6591	
422.02	7855.3	
422.22	8774.2	
422.42	7497.6	
422.63	6978.8	
422.83	7874.4	
423.03	9187.2	
423.23	7040.9	
423.44	5939.1	
423.64	8044.4	
423.84	7756.3	
424.04	6379.4	
424.25	6029.2	
424.45	8962.6	
424.65	8887.5	
424.85	5830.6	
425.06	6443.6	
425.26	8898.4	
425.46	7418.4	
425.66	6993.1	
425.87	6615.6	
426.07	8697.7	
426.27	8573.5	
426.47	6765.1	
426.67	6081.1	
426.88	9000.8	
427.08	8366	
427.28	7021.8	
427.48	5964.4	
427.69	7247.1	
427.89	8030.1	
428.09	7020.4	
428.29	6044.9	
428.5	8704.5	
428.7	8142	
428.9	5958.2	
429.1	6619	
429.3	8090.8	
429.51	8630.8	
429.71	6333	
429.91	7235.5	
430.11	8480	
430.31	8762.6	
430.52	6767.2	
430.72	7041.6	
430.92	9159.2	
431.12	8497.7	
431.32	6338.5	
431.53	6712.6	
431.73	7418.4	
431.93	9239.8	
432.13	6264.1	
432.33	6129.6	
432.54	7884.7	
432.74	8340	
432.94	6123.4	
433.14	7189.1	
433.34	8480	
433.55	8054	
433.75	7103	
433.95	9110	
434.15	8241	
434.35	8003.5	
434.56	6392.4	
434.76	5898.1	
434.96	8287.4	
435.16	8643.1	
435.36	6315.9	
435.56	7524.9	
435.77	7928.4	
435.97	8189.8	
436.17	8368	
436.37	7527.7	
436.57	7923.6	
436.78	7946.8	
436.98	9270.5	
437.18	8101.8	
437.38	8768	
437.58	8210.3	
437.78	8234.2	
437.99	6736.5	
438.19	8637	
438.39	9503.3	
438.59	6692.8	
438.79	6113.2	
438.99	9254.8	
439.2	8170	
439.4	6266.1	
439.6	6264.7	
439.8	8502.5	
440	9602.2	
440.2	7488.1	
440.4	7582.9	
440.61	9032.2	
440.81	9592	
441.01	6666.8	
441.21	7606.8	
441.41	9443.9	
441.61	9067	
441.81	7879.2	
442.02	9065.7	
442.22	9975.7	
442.42	9161.9	
442.62	6864.8	
442.82	6745.3	
443.02	9531.2	
443.22	8613.1	
443.43	7319.4	
443.63	6810.9	
443.83	8402.1	
444.03	8512.7	
444.23	8163.9	
444.43	7689.4	
444.63	8832.2	
444.83	10027	
445.04	7015.7	
445.24	8366	
445.44	9082.7	
445.64	9271.8	
445.84	7653.9	
446.04	7721.5	
446.24	8406.9	
446.44	9458.2	
446.65	6818.4	
446.85	7341.3	
447.05	8474.5	
447.25	9482.8	
447.45	7320.1	
447.65	6769.9	
447.85	8761.9	
448.05	8371.4	
448.25	7856	
448.46	7626.6	
448.66	8761.9	
448.86	8446.5	
449.06	6593.1	
449.26	7767.9	
449.46	9145.5	
449.66	8155	
449.86	7358.4	
450.06	7363.1	
450.26	8421.2	
450.47	9107.3	
450.67	7578.2	
450.87	7974.8	
451.07	9041.8	
451.27	8890.2	
451.47	6894.8	
451.67	7587	
451.87	8585.8	
452.07	9776.3	
452.27	7140.6	
452.47	7174	
452.67	8799.4	
452.88	9600.9	
453.08	6411.5	
453.28	8619.2	
453.48	10137	
453.68	8845.2	
453.88	7053.2	
454.08	7383.6	
454.28	9258.9	
454.48	8955.8	
454.68	7960.5	
454.88	8480.6	
455.08	9377.6	
455.28	9299.8	
455.48	6905.8	
455.68	7709.9	
455.89	10041	
456.09	9659.6	
456.29	7441.6	
456.49	7461.4	
456.69	9907.4	
456.89	9023.4	
457.09	8018.5	
457.29	8518.2	
457.49	9454.1	
457.69	9733.3	
457.89	8045.1	
458.09	7391.8	
458.29	9300.5	
458.49	10001	
458.69	8443.1	
458.89	7815	
459.09	10442	
459.29	10525	
459.49	8010.3	
459.69	8844.5	
459.9	9857.6	
460.1	9456.8	
460.3	7729	
460.5	7638.9	
460.7	9914.2	
460.9	9599.5	
461.1	7357.7	
461.3	8710.7	
461.5	10683	
461.7	10354	
461.9	7812.3	
462.1	8314.1	
462.3	9693.7	
462.5	10401	
462.7	7948.8	
462.9	8169.3	
463.1	11454	
463.3	11364	
463.5	8268.3	
463.7	9387.9	
463.9	10118	
464.1	10515	
464.3	8628.8	
464.5	8798.8	
464.7	10856	
464.9	10517	
465.1	10264	
465.3	9230.2	
465.5	11211	
465.7	11150	
465.9	9571.5	
466.1	9241.8	
466.3	11128	
466.5	10740	
466.7	10408	
466.9	9158.5	
467.1	10710	
467.3	11843	
467.5	10372	
467.7	9110.7	
467.9	12171	
468.1	13087	
468.3	9932.6	
468.5	10497	
468.7	10870	
468.9	10828	
469.1	9480	
469.3	10297	
469.5	13091	
469.7	10568	
469.9	9960	
470.1	9235.7	
470.3	10893	
470.5	10946	
470.7	10614	
470.9	9281.4	
471.1	10702	
471.3	10993	
471.5	9087.5	
471.69	11171	
471.89	10482	
472.09	10095	
472.29	9927.2	
472.49	10329	
472.69	10273	
472.89	11098	
473.09	9025.4	
473.29	9090.9	
473.49	10363	
473.69	10636	
473.89	10066	
474.09	9314.2	
474.29	11887	
474.49	11583	
474.69	10156	
474.89	9361.3	
475.09	10555	
475.29	10682	
475.49	8856.1	
475.69	9104.6	
475.88	12130	
476.08	10912	
476.28	8749.6	
476.48	9211.8	
476.68	11352	
476.88	11122	
477.08	8902.5	
477.28	9338.1	
477.48	10447	
477.68	11266	
477.88	8837.7	
478.08	9071.1	
478.28	11697	
478.48	10642	
478.67	9112.8	
478.87	8535.9	
479.07	11420	
479.27	10786	
479.47	9337.4	
479.67	9437	
479.87	11251	
480.07	11881	
480.27	8714.1	
480.47	10316	
480.67	10821	
480.87	11637	
481.06	8944.2	
481.26	9854.8	
481.46	10881	
481.66	10757	
481.86	9405.6	
482.06	10643	
482.26	10484	
482.46	11650	
482.66	9374.9	
482.86	9022	
483.05	11064	
483.25	10207	
483.45	12125	
483.65	9533.3	
483.85	10630	
484.05	10867	
484.25	9887.6	
484.45	10506	
484.65	11798	
484.84	11922	
485.04	9339.4	
485.24	9385.8	
485.44	12037	
485.64	10357	
485.84	8701.8	
486.04	10235	
486.24	10832	
486.44	11179	
486.63	8751.7	
486.83	9592.7	
487.03	10663	
487.23	11068	
487.43	8890.9	
487.63	11333	
487.83	11147	
488.02	12026	
488.22	10022	
488.42	10705	
488.62	11972	
488.82	10830	
489.02	9504.6	
489.22	9762.7	
489.41	11873	
489.61	11438	
489.81	9288.9	
490.01	9418.6	
490.21	11777	
490.41	12469	
490.61	9141.4	
490.8	9545.6	
491	11286	
491.2	10564	
491.4	10089	
491.6	9194	
491.8	11219	
491.99	11490	
492.19	9011.7	
492.39	9414.5	
492.59	11857	
492.79	11823	
492.99	10324	
493.18	9497.8	
493.38	12088	
493.58	12980	
493.78	10389	
493.98	9845.3	
494.18	11792	
494.37	11335	
494.57	10637	
494.77	10634	
494.97	12183	
495.17	12579	
495.37	10266	
495.56	10476	
495.76	12856	
495.96	12450	
496.16	11557	
496.36	10507	
496.55	12602	
496.75	12212	
496.95	10955	
497.15	10599	
497.35	12613	
497.54	12666	
497.74	10488	
497.94	12504	
498.14	13452	
498.34	13210	
498.53	10325	
498.73	11159	
498.93	12111	
499.13	12661	
499.33	10969	
499.52	11540	
499.72	12662	
499.92	13039	
500.12	10642	
500.32	10953	
500.51	13055	
500.71	12779	
500.91	11871	
501.11	11272	
501.31	13012	
501.5	13377	
501.7	11964	
501.9	10974	
502.1	12736	
502.29	13028	
502.49	11440	
502.69	11832	
502.89	12875	
503.09	12839	
503.28	10272	
503.48	10428	
503.68	11953	
503.88	12174	
504.07	11516	
504.27	10927	
504.47	12377	
504.67	12553	
504.86	11369	
505.06	11049	
505.26	11990	
505.46	13960	
505.65	10849	
505.85	11090	
506.05	11885	
506.25	12408	
506.44	9996.1	
506.64	10901	
506.84	11789	
507.04	12840	
507.23	10260	
507.43	10919	
507.63	13840	
507.83	11966	
508.02	10901	
508.22	10434	
508.42	14156	
508.62	11725	
508.81	10613	
509.01	11385	
509.21	11616	
509.4	11986	
509.6	10899	
509.8	10319	
510	11921	
510.19	13440	
510.39	10214	
510.59	10417	
510.79	11690	
510.98	13203	
511.18	10380	
511.38	10555	
511.57	12460	
511.77	12364	
511.97	11253	
512.17	9998.2	
512.36	12553	
512.56	12535	
512.76	10292	
512.95	9883.5	
513.15	12581	
513.35	11312	
513.55	11087	
513.74	10238	
513.94	12639	
514.14	11960	
514.33	11273	
514.53	10941	
514.73	11897	
514.92	12194	
515.12	10515	
515.32	10263	
515.51	12267	
515.71	12930	
515.91	12071	
516.11	10383	
516.3	14060	
516.5	11792	
516.7	10934	
516.89	11575	
517.09	11988	
517.29	11854	
517.48	11292	
517.68	10679	
517.88	11829	
518.07	12478	
518.27	11218	
518.47	10228	
518.66	13077	
518.86	11551	
519.06	9986.6	
519.25	10494	
519.45	11946	
519.65	13510	
519.84	11181	
520.04	11913	
520.24	13934	
520.43	12536	
520.63	10767	
520.83	10606	
521.02	11780	
521.22	12357	
521.42	11071	
521.61	11707	
521.81	11900	
522.01	12157	
522.2	10927	
522.4	10621	
522.6	12743	
522.79	11439	
522.99	10872	
523.18	10251	
523.38	12552	
523.58	12560	
523.77	12465	
523.97	10342	
524.17	14678	
524.36	13824	
524.56	11891	
524.76	11492	
524.95	12771	
525.15	12359	
525.34	11328	
525.54	11374	
525.74	13197	
525.93	12166	
526.13	12719	
526.33	11469	
526.52	13693	
526.72	13065	
526.91	12822	
527.11	11874	
527.31	13753	
527.5	14222	
527.7	11964	
527.89	10807	
528.09	12734	
528.29	13346	
528.48	12415	
528.68	12063	
528.87	13708	
529.07	13742	
529.27	11986	
529.46	11401	
529.66	13256	
529.85	13815	
530.05	11262	
530.25	12062	
530.44	14827	
530.64	13322	
530.83	11760	
531.03	12052	
531.23	13664	
531.42	13630	
531.62	12973	
531.81	11908	
532.01	14024	
532.21	14532	
532.4	11849	
532.6	12237	
532.79	15154	
532.99	14349	
533.18	12332	
533.38	13440	
533.58	13781	
533.77	14634	
533.97	12437	
534.16	13200	
534.36	14965	
534.55	13966	
534.75	13543	
534.95	12493	
535.14	14775	
535.34	13923	
535.53	12032	
535.73	14262	
535.92	15317	
536.12	13965	
536.31	12267	
536.51	13495	
536.71	14255	
536.9	13782	
537.1	12377	
537.29	12405	
537.49	14802	
537.68	13766	
537.88	12933	
538.07	11994	
538.27	13997	
538.46	15229	
538.66	12060	
538.86	12548	
539.05	14190	
539.25	14565	
539.44	12809	
539.64	12424	
539.83	13848	
540.03	15088	
540.22	12129	
540.42	12347	
540.61	14205	
540.81	14265	
541	12736	
541.2	13495	
541.39	13696	
541.59	14105	
541.78	13174	
541.98	12020	
542.18	13204	
542.37	13152	
542.57	12430	
542.76	13012	
542.96	13159	
543.15	14037	
543.35	12314	
543.54	11715	
543.74	14127	
543.93	13778	
544.13	12244	
544.32	13546	
544.52	14011	
544.71	13155	
544.91	11301	
545.1	12689	
545.3	13160	
545.49	13951	
545.69	11191	
545.88	11903	
546.08	14885	
546.27	14506	
546.47	12492	
546.66	11634	
546.86	14104	
547.05	14740	
547.24	11823	
547.44	11897	
547.63	12852	
547.83	14126	
548.02	12272	
548.22	12366	
548.41	12732	
548.61	14133	
548.8	11526	
549	11545	
549.19	13213	
549.39	13723	
549.58	11186	
549.78	11830	
549.97	13670	
550.17	13323	
550.36	12650	
550.55	13812	
550.75	13230	
550.94	14192	
551.14	11339	
551.33	11733	
551.53	12534	
551.72	13628	
551.92	11929	
552.11	11542	
552.31	13584	
552.5	13639	
552.69	13323	
552.89	11105	
553.08	13523	
553.28	13112	
553.47	11594	
553.67	12783	
553.86	14245	
554.06	12319	
554.25	10649	
554.44	11367	
554.64	14959	
554.83	14389	
555.03	11292	
555.22	11652	
555.42	13670	
555.61	13256	
555.8	11477	
556	11764	
556.19	12359	
556.39	13609	
556.58	11482	
556.78	11519	
556.97	13177	
557.16	12876	
557.36	12705	
557.55	11056	
557.75	12044	
557.94	14003	
558.13	11187	
558.33	10903	
558.52	13822	
558.72	12532	
558.91	11053	
559.1	11182	
559.3	12210	
559.49	11938	
559.69	10456	
559.88	11549	
560.07	13056	
560.27	13511	
560.46	11729	
560.66	11951	
560.85	12734	
561.04	11924	
561.24	10927	
561.43	11114	
561.63	12170	
561.82	12588	
562.01	12494	
562.21	11398	
562.4	12890	
562.59	14034	
562.79	11191	
562.98	10933	
563.18	12855	
563.37	14335	
563.56	11834	
563.76	10998	
563.95	12308	
564.14	12355	
564.34	11247	
564.53	11125	
564.73	12998	
564.92	13327	
565.11	11548	
565.31	10920	
565.5	13641	
565.69	12572	
565.89	11004	
566.08	11439	
566.27	13358	
566.47	14012	
566.66	12084	
566.85	10675	
567.05	12999	
567.24	12390	
567.44	11021	
567.63	12495	
567.82	13299	
568.02	13017	
568.21	11027	
568.4	11515	
568.6	12883	
568.79	13007	
568.98	10907	
569.18	11056	
569.37	12937	
569.56	15120	
569.76	11482	
569.95	12544	
570.14	13395	
570.34	13364	
570.53	11075	
570.72	10849	
570.91	13829	
571.11	12891	
571.3	11443	
571.49	12450	
571.69	12983	
571.88	12480	
572.07	12088	
572.27	12058	
572.46	12429	
572.65	13549	
572.85	11238	
573.04	11697	
573.23	13870	
573.43	13097	
573.62	11006	
573.81	11701	
574	13134	
574.2	12982	
574.39	11505	
574.58	11648	
574.78	14134	
574.97	13272	
575.16	12076	
575.36	12261	
575.55	13771	
575.74	13942	
575.93	11170	
576.13	12420	
576.32	13112	
576.51	13788	
576.71	11572	
576.9	13143	
577.09	14050	
577.28	13500	
577.48	12176	
577.67	11117	
577.86	13118	
578.05	13520	
578.25	11740	
578.44	11832	
578.63	13333	
578.83	14601	
579.02	11204	
579.21	12828	
579.4	13491	
579.6	13255	
579.79	11998	
579.98	14345	
580.17	14009	
580.37	13961	
580.56	11398	
580.75	12294	
580.94	14491	
581.14	14371	
581.33	12681	
581.52	11482	
581.71	13782	
581.91	14558	
582.1	11293	
582.29	11804	
582.48	13437	
582.68	13353	
582.87	12461	
583.06	12121	
583.25	13768	
583.45	13585	
583.64	12626	
583.83	13470	
584.02	13209	
584.21	13717	
584.41	12741	
584.6	12016	
584.79	13462	
584.98	14310	
585.18	11385	
585.37	11510	
585.56	12833	
585.75	13842	
585.94	11663	
586.14	12271	
586.33	14337	
586.52	13414	
586.71	12113	
586.91	11759	
587.1	12591	
587.29	13676	
587.48	11626	
587.67	11394	
587.87	13483	
588.06	13545	
588.25	12959	
588.44	11983	
588.63	13019	
588.83	13745	
589.02	11249	
589.21	11206	
589.4	12567	
589.59	12485	
589.78	10215	
589.98	10577	
590.17	11868	
590.36	12549	
590.55	9639.8	
590.74	10454	
590.94	13721	
591.13	12235	
591.32	10314	
591.51	9753.8	
591.7	12796	
591.89	12238	
592.09	9947	
592.28	10504	
592.47	11421	
592.66	13442	
592.85	10103	
593.05	10243	
593.24	11981	
593.43	12914	
593.62	10398	
593.81	10924	
594	12144	
594.19	12402	
594.39	10235	
594.58	10127	
594.77	12434	
594.96	13065	
595.15	9981.1	
595.34	10674	
595.54	12344	
595.73	11476	
595.92	9465	
596.11	10545	
596.3	12917	
596.49	11586	
596.68	10290	
596.88	10868	
597.07	12700	
597.26	11260	
597.45	9734.7	
597.64	11051	
597.83	11512	
598.02	12304	
598.22	9870.5	
598.41	10593	
598.6	12050	
598.79	11490	
598.98	9911.5	
599.17	11008	
599.36	12000	
599.55	13318	
599.74	12164	
599.94	11827	
600.13	12561	
600.32	11409	
600.51	9644.6	
600.7	9889.6	
600.89	13304	
601.08	13280	
601.27	9600.2	
601.47	10677	
601.66	12485	
601.85	13305	
602.04	10325	
602.23	10567	
602.42	11454	
602.61	12265	
602.8	10154	
602.99	10004	
603.18	11899	
603.37	12193	
603.57	10715	
603.76	11122	
603.95	12853	
604.14	12440	
604.33	10043	
604.52	10553	
604.71	12151	
604.9	11616	
605.09	11076	
605.28	10955	
605.47	12696	
605.66	12395	
605.86	10740	
606.05	9998.9	
606.24	12649	
606.43	11219	
606.62	10299	
606.81	11123	
607	12471	
607.19	11750	
607.38	9744.9	
607.57	10163	
607.76	11495	
607.95	11081	
608.14	10383	
608.33	11133	
608.52	11508	
608.72	12447	
608.91	9592	
609.1	9519	
609.29	11628	
609.48	11117	
609.67	10562	
609.86	9518.3	
610.05	11157	
610.24	11624	
610.43	9373.6	
610.62	8950.3	
610.81	12677	
611	12510	
611.19	9575.6	
611.38	10314	
611.57	11723	
611.76	13182	
611.95	9286.9	
612.14	9075.2	
612.33	11534	
612.52	11097	
612.71	9863	
612.9	8971.5	
613.09	10643	
613.28	13171	
613.47	9498.5	
613.66	10620	
613.85	11699	
614.04	11158	
614.24	9710.8	
614.43	8862.9	
614.62	11772	
614.81	11695	
615	10291	
615.19	10314	
615.38	10959	
615.57	11525	
615.76	10053	
615.95	11103	
616.14	11930	
616.33	11452	
616.52	10383	
616.71	10728	
616.9	11832	
617.09	11735	
617.28	9835	
617.47	11185	
617.66	10920	
617.85	10951	
618.04	10886	
618.22	10214	
618.41	11289	
618.6	12333	
618.79	10254	
618.98	9917.6	
619.17	12614	
619.36	10910	
619.55	9947.7	
619.74	9951.1	
619.93	11984	
620.12	11452	
620.31	10742	
620.5	10976	
620.69	12997	
620.88	12951	
621.07	11682	
621.26	10704	
621.45	12214	
621.64	12168	
621.83	10804	
622.02	9971.6	
622.21	12263	
622.4	11981	
622.59	11421	
622.78	11144	
622.97	11540	
623.16	12624	
623.35	10821	
623.54	9775	
623.72	11800	
623.91	12056	
624.1	11068	
624.29	9572.2	
624.48	13076	
624.67	12308	
624.86	10876	
625.05	9912.9	
625.24	13277	
625.43	11528	
625.62	12779	
625.81	10127	
626	12616	
626.19	11916	
626.38	11043	
626.56	10357	
626.75	11645	
626.94	12499	
627.13	10981	
627.32	9592.7	
627.51	12288	
627.7	13738	
627.89	9749.7	
628.08	10912	
628.27	11624	
628.46	11823	
628.65	9918.3	
628.83	9657.5	
629.02	12246	
629.21	11592	
629.4	10453	
629.59	10639	
629.78	11407	
629.97	12529	
630.16	10703	
630.35	10159	
630.54	12931	
630.72	12588	
630.91	10177	
631.1	10645	
631.29	12007	
631.48	12313	
631.67	10782	
631.86	10216	
632.05	11718	
632.24	11644	
632.42	9945.6	
632.61	10590	
632.8	11700	
632.99	11475	
633.18	10512	
633.37	10978	
633.56	12012	
633.75	11843	
633.93	10474	
634.12	10218	
634.31	12866	
634.5	12539	
634.69	10234	
634.88	10690	
635.07	11759	
635.25	12424	
635.44	11088	
635.63	11419	
635.82	11525	
636.01	11028	
636.2	11122	
636.39	10602	
636.57	12786	
636.76	12479	
636.95	9901.2	
637.14	11357	
637.33	12078	
637.52	13018	
637.7	9736	
637.89	10711	
638.08	11647	
638.27	13175	
638.46	10752	
638.65	11211	
638.83	13073	
639.02	11292	
639.21	10603	
639.4	11228	
639.59	11822	
639.78	11368	
639.96	9824.1	
640.15	9820	
640.34	11689	
640.53	11841	
640.72	9480.7	
640.91	9794.8	
641.09	11019	
641.28	12398	
641.47	9794.1	
641.66	10711	
641.85	11723	
642.03	11970	
642.22	10499	
642.41	9894.4	
642.6	11158	
642.79	10464	
642.97	9549.7	
643.16	10452	
643.35	11053	
643.54	10817	
643.73	9537.4	
643.91	10358	
644.1	10582	
644.29	11280	
644.48	9531.9	
644.67	9506.7	
644.85	10745	
645.04	11036	
645.23	8975.6	
645.42	9334	
645.6	10434	
645.79	11755	
645.98	9234.3	
646.17	8147.5	
646.36	10036	
646.54	10686	
646.73	9932	
646.92	8582.4	
647.11	10181	
647.29	11295	
647.48	8790.6	
647.67	8463.6	
647.86	11613	
648.05	11544	
648.23	9006.3	
648.42	10352	
648.61	10978	
648.8	10640	
648.98	8629.5	
649.17	9045.2	
649.36	10172	
649.55	9711.5	
649.73	8661.5	
649.92	9555.8	
650.11	10126	
650.3	10479	
650.48	8804.2	
650.67	8550.3	
650.86	10744	
651.05	9614.5	
651.23	8870.4	
651.42	8690.2	
651.61	10142	
651.79	10182	
651.98	8874.5	
652.17	8529.1	
652.36	10473	
652.54	9601.6	
652.73	8489.5	
652.92	8278.6	
653.11	10481	
653.29	10617	
653.48	7749.5	
653.67	8818.6	
653.85	10214	
654.04	11402	
654.23	8910.7	
654.42	8454	
654.6	9594.7	
654.79	10288	
654.98	7804.8	
655.16	8349.6	
655.35	9121.7	
655.54	9034.3	
655.73	7860.1	
655.91	7739.3	
656.1	10362	
656.29	9123.7	
656.47	7279.8	
656.66	9237.7	
656.85	9431.6	
657.03	9394.7	
657.22	7977.5	
657.41	8146.8	
657.59	9581.1	
657.78	9348.3	
657.97	7694.9	
658.16	8548.9	
658.34	10316	
658.53	10796	
658.72	9405.6	
658.9	9989.3	
659.09	9708.1	
659.28	9778.4	
659.46	8235.6	
659.65	8170	
659.84	9527.8	
660.02	10022	
660.21	8058.1	
660.4	7988.4	
660.58	10481	
660.77	9938.1	
660.96	8659.5	
661.14	7664.2	
661.33	11110	
661.52	10983	
661.7	7518.1	
661.89	11557	
662.08	9441.8	
662.26	9077.3	
662.45	7884	
662.64	7977.5	
662.82	10130	
663.01	9291.6	
663.2	7976.2	
663.38	8894.3	
663.57	9912.2	
663.75	9902.6	
663.94	8279.9	
664.13	9632.3	
664.31	9379.7	
664.5	10158	
664.69	8751.7	
664.87	9136	
665.06	9026.8	
665.25	9914.9	
665.43	9410.4	
665.62	9514.2	
665.8	10213	
665.99	9508.7	
666.18	8336.6	
666.36	8381	
666.55	10150	
666.74	10131	
666.92	7848.5	
667.11	9552.4	
667.29	9422	
667.48	10087	
667.67	9136	
667.85	8305.9	
668.04	9462.3	
668.22	9499.8	
668.41	8300.4	
668.6	8557.1	
668.78	9218.6	
668.97	9449.3	
669.15	8700.5	
669.34	7632.8	
669.53	9307.3	
669.71	9620	
669.9	7765.2	
670.08	8533.2	
670.27	9203.6	
670.46	9859.6	
670.64	8687.5	
670.83	8927.1	
671.01	9072.5	
671.2	9781.1	
671.38	7836.9	
671.57	7786.4	
671.76	10448	
671.94	11021	
672.13	7721.5	
672.31	8854.1	
672.5	9900.6	
672.69	9286.2	
672.87	7748.1	
673.06	8183.7	
673.24	9762.7	
673.43	9244.5	
673.61	8670.4	
673.8	8164.6	
673.98	9975	
674.17	10155	
674.36	8722.3	
674.54	8571.4	
674.73	9678.7	
674.91	9962	
675.1	8312.7	
675.28	7938.6	
675.47	9458.9	
675.65	10038	
675.84	8165.3	
676.03	8563.2	
676.21	9172.9	
676.4	8722.3	
676.58	9004.2	
676.77	8787.8	
676.95	10847	
677.14	9194	
677.32	7777.5	
677.51	7595.9	
677.69	9972.9	
677.88	8850	
678.06	7656.7	
678.25	7835.5	
678.44	9554.5	
678.62	9168.8	
678.81	7458.7	
678.99	8503.8	
679.18	10394	
679.36	9841.2	
679.55	8051.9	
679.73	8793.3	
679.92	9802.3	
680.1	9221.3	
680.29	9374.9	
680.47	8170.7	
680.66	9133.9	
680.84	10006	
681.03	7390.4	
681.21	8531.8	
681.4	9215.2	
681.58	9008.3	
681.77	7905.8	
681.95	7675.1	
682.14	9925.8	
682.32	10404	
682.51	8791.2	
682.69	7481.9	
682.88	9096.4	
683.06	9787.9	
683.25	8435.6	
683.43	8833.6	
683.62	9344.2	
683.8	9781.1	
683.99	8910.7	
684.17	8234.2	
684.36	10556	
684.54	9111.4	
684.73	7235.5	
684.91	7464.2	
685.1	9357.9	
685.28	8715.5	
685.46	7928.4	
685.65	8024.6	
685.83	9557.2	
686.02	8834.9	
686.2	7335.1	
686.39	7551.5	
686.57	8533.2	
686.76	10279	
686.94	7375.4	
687.13	7622.5	
687.31	9421.3	
687.5	8999.5	
687.68	7010.9	
687.86	8477.9	
688.05	10707	
688.23	8351.6	
688.42	8602.2	
688.6	7639.6	
688.79	8955.8	
688.97	8918.2	
689.16	8002.1	
689.34	6941.2	
689.52	9683.5	
689.71	9970.9	
689.89	8330.5	
690.08	7509.9	
690.26	9338.1	
690.45	9122.3	
690.63	8548.9	
690.81	7713.3	
691	8895	
691.18	8813.1	
691.37	7892.2	
691.55	10146	
691.74	8727.1	
691.92	10938	
692.1	7846.5	
692.29	7204.1	
692.47	9031.5	
692.66	8283.4	
692.84	7425.3	
693.02	8077.2	
693.21	8480.6	
693.39	8974.2	
693.58	8200.1	
693.76	7696.9	
693.94	10295	
694.13	10053	
694.31	7649.8	
694.5	8875.9	
694.68	8974.9	
694.86	9351	
695.05	8097.7	
695.23	8239	
695.42	9721	
695.6	12200	
695.78	8813.1	
695.97	7792.5	
696.15	9802.9	
696.34	9050.7	
696.52	7532.4	
696.7	8361.9	
696.89	9488.2	
697.07	8845.9	
697.25	8322.9	
697.44	9986.6	
697.62	9395.4	
697.81	9805	
697.99	7845.1	
698.17	8450.6	
698.36	8594	
698.54	9448	
698.72	8306.6	
698.91	7151.5	
699.09	9011.7	
699.28	8845.9	
699.46	7890.8	
699.64	7731.1	
699.83	8706.6	
700.01	9990	
700.19	8697.7	
700.38	6961	
700.56	10099	
700.74	8943.5	
700.93	7432.1	
701.11	8347.5	
701.29	9511.4	
701.48	10638	
701.66	7701	
701.84	7729.7	
702.03	9090.3	
702.21	9849.4	
702.39	7251.2	
702.58	8002.1	
702.76	9537.4	
702.94	9675.3	
703.13	7356.3	
703.31	9901.2	
703.49	8905.9	
703.68	10057	
703.86	7531.7	
704.04	8645.2	
704.23	9383.1	
704.41	9752.4	
704.59	7628.7	
704.78	9004.9	
704.96	10531	
705.14	9889.6	
705.33	7499	
705.51	8338.6	
705.69	9149.6	
705.87	10144	
706.06	8712.7	
706.24	7426.6	
706.42	9601.6	
706.61	9831.6	
706.79	8760.5	
706.97	7523.6	
707.16	8944.2	
707.34	9579.7	
707.52	8703.9	
707.7	7735.2	
707.89	9030.9	
708.07	8800.8	
708.25	8580.3	
708.44	8787.2	
708.62	9063.6	
708.8	10236	
708.98	8937.3	
709.17	7830.1	
709.35	9562	
709.53	9409.1	
709.72	7532.4	
709.9	7681.9	
710.08	9627.5	
710.26	9671.9	
710.45	9215.9	
710.63	7835.5	
710.81	9341.5	
710.99	9353.8	
711.18	8445.8	
711.36	7933.1	
711.54	9115.5	
711.72	9920.4	
711.91	7949.5	
712.09	7320.8	
712.27	9249.3	
712.45	9891	
712.64	8283.4	
712.82	7039.6	
713	8538.7	
713.18	8800.8	
713.37	7149.5	
713.55	8385.7	
713.73	9556.5	
713.91	7959.8	
714.1	7282.6	
714.28	6774.7	
714.46	8888.2	
714.64	8025.3	
714.83	6019.7	
715.01	6847	
715.19	7883.3	
715.37	7402.7	
715.55	6447.7	
715.74	6787.7	
715.92	8893	
716.1	6782.2	
716.28	7935.9	
716.47	6845.7	
716.65	7465.5	
716.83	7684	
717.01	6598.6	
717.19	6803.4	
717.38	9793.4	
717.56	7357.7	
717.74	7009.5	
717.92	6110.5	
718.1	8665.6	
718.29	7856	
718.47	5834.7	
718.65	6675.7	
718.83	8667.7	
719.01	8715.5	
719.2	5793.7	
719.38	7098.9	
719.56	8319.5	
719.74	10046	
719.92	6556.9	
720.11	7664.2	
720.29	8459.5	
720.47	7352.9	
720.65	5962.3	
720.83	6840.9	
721.02	7712	
721.2	7318.1	
721.38	6852.5	
721.56	6070.9	
721.74	6923.5	
721.92	7030.7	
722.11	7357.7	
722.29	7044.3	
722.47	8447.9	
722.65	7505.8	
722.83	6077	
723.01	7027.3	
723.2	7624.6	
723.38	7899	
723.56	5449.6	
723.74	6737.1	
723.92	7118.7	
724.1	8432.9	
724.29	6013.5	
724.47	7183.6	
724.65	7148.8	
724.83	7016.3	
725.01	5857.2	
725.19	6807.4	
725.37	7067.5	
725.56	7261.4	
725.74	5753.4	
725.92	6022.4	
726.1	7012.9	
726.28	7387	
726.46	6454.5	
726.64	6171.9	
726.83	7374.7	
727.01	7659.4	
727.19	5677.7	
727.37	6599.2	
727.55	7509.9	
727.73	8014.4	
727.91	5699.5	
728.09	5514.5	
728.28	8111.3	
728.46	8769.4	
728.64	6831.3	
728.82	6738.5	
729	9323.7	
729.18	8540.7	
729.36	5958.9	
729.54	8469.7	
729.72	9704.6	
729.91	7853.3	
730.09	8018.5	
730.27	6763.8	
730.45	7744.1	
730.63	8496.3	
730.81	7476.5	
730.99	6422.4	
731.17	9039.7	
731.35	7527.7	
731.53	7084.6	
731.71	6535.1	
731.9	8775.5	
732.08	9022.7	
732.26	6778.8	
732.44	6428.6	
732.62	8896.4	
732.8	8434.9	
732.98	7250.5	
733.16	6186.2	
733.34	8335.9	
733.52	7055.3	
733.7	6713.2	
733.88	7094.2	
734.07	8232.2	
734.25	7934.5	
734.43	6236.7	
734.61	7893.6	
734.79	9585.9	
734.97	7836.9	
735.15	6412.9	
735.33	6707.8	
735.51	8274.5	
735.69	7800.7	
735.87	7972.7	
736.05	6960.4	
736.23	7966.6	
736.41	7780.2	
736.59	6701	
736.77	6822.5	
736.95	8624	
737.13	7942	
737.32	6400.6	
737.5	6648.4	
737.68	9067	
737.86	7757.7	
738.04	6194.4	
738.22	8191.9	
738.4	7561.1	
738.58	7847.8	
738.76	6860.7	
738.94	5790.3	
739.12	7739.3	
739.3	7536.5	
739.48	7479.2	
739.66	7258	
739.84	8022.6	
740.02	8021.2	
740.2	5842.2	
740.38	6168.5	
740.56	8439	
740.74	7178.8	
740.92	6872.3	
741.1	6860	
741.28	7777.5	
741.46	7671	
741.64	6383.5	
741.82	6982.9	
742	7755.7	
742.18	7757.7	
742.36	6646.3	
742.54	6206.7	
742.72	8307.2	
742.9	7027.9	
743.08	7062.8	
743.26	5723.4	
743.44	8647.9	
743.62	8456.1	
743.8	7074.4	
743.98	6081.1	
744.16	8038.3	
744.34	7742	
744.52	7078.5	
744.7	6931.7	
744.88	8232.2	
745.06	7607.5	
745.24	7018.4	
745.42	7102.4	
745.6	8165.9	
745.78	7933.1	
745.96	5773.2	
746.14	6029.9	
746.32	9043.8	
746.5	8178.9	
746.68	6630	
746.86	6058.6	
747.03	8706.6	
747.21	6829.3	
747.39	6647.7	
747.57	6110.5	
747.75	7711.3	
747.93	8134.5	
748.11	6057.2	
748.29	5984.8	
748.47	9502.6	
748.65	7408.2	
748.83	6840.2	
749.01	6571.9	
749.19	7958.4	
749.37	7054.6	
749.55	6402.6	
749.73	6416.3	
749.91	7548.8	
750.09	7224.6	
750.26	6514.6	
750.44	5848.3	
750.62	7594.6	
750.8	7636.2	
750.98	5722.7	
751.16	6070.9	
751.34	7656	
751.52	6965.1	
751.7	6893.5	
751.88	5722	
752.06	8146.1	
752.24	7968	
752.42	5535.7	
752.59	6008.7	
752.77	7516	
752.95	8811.7	
753.13	6789.7	
753.31	6206	
753.49	7228.6	
753.67	7665.5	
753.85	6344.6	
754.03	6008.1	
754.21	7879.9	
754.38	8260.1	
754.56	6102.3	
754.74	5022.3	
754.92	6989	
755.1	7784.3	
755.28	4938.3	
755.46	4818.2	
755.64	8246.5	
755.82	8297	
755.99	4924	
756.17	4943.8	
756.35	5431.9	
756.53	7130.3	
756.71	3682.2	
756.89	4732.9	
757.07	6624.5	
757.25	5720.7	
757.42	5349.3	
757.6	6345.3	
757.78	6907.1	
757.96	5878.4	
758.14	5137.7	
758.32	4588.8	
758.5	5345.9	
758.67	6257.2	
758.85	4913.1	
759.03	5030.5	
759.21	6417	
759.39	5842.9	
759.57	4487.1	
759.75	5693.4	
759.92	6993.1	
760.1	6329.6	
760.28	6129.6	
760.46	6499.6	
760.64	6120.7	
760.82	5911.1	
760.99	6068.1	
761.17	5136.3	
761.35	7042.3	
761.53	6030.6	
761.71	5294	
761.89	6130.9	
762.06	7071	
762.24	6463.4	
762.42	5467.4	
762.6	5262.6	
762.78	6552.1	
762.96	7176.8	
763.13	5832.6	
763.31	5621.7	
763.49	7417.1	
763.67	6446.3	
763.85	6432	
764.02	7070.3	
764.2	7821.9	
764.38	6850.5	
764.56	5399.1	
764.74	6438.8	
764.91	7810.3	
765.09	6682.5	
765.27	5105.6	
765.45	4871.4	
765.63	7866.9	
765.8	7679.2	
765.98	4547.9	
766.16	4974.5	
766.34	6107.7	
766.52	5937.1	
766.69	5972.6	
766.87	4743.8	
767.05	6527.6	
767.23	7352.2	
767.41	5100.1	
767.58	5379.3	
767.76	7125.6	
767.94	7247.1	
768.12	5133.6	
768.29	5980.1	
768.47	6614.9	
768.65	7423.2	
768.83	4687.8	
769	5924.8	
769.18	6062.7	
769.36	6858	
769.54	5874.3	
769.72	4661.2	
769.89	7140.6	
770.07	7335.8	
770.25	5079.6	
770.43	6442.9	
770.6	7981.6	
770.78	8378.2	
770.96	5155.4	
771.14	5862.7	
771.31	6994.5	
771.49	6292.7	
771.67	4263.2	
771.85	4599.1	
772.02	5494	
772.2	6277.7	
772.38	5412.8	
772.55	4812.7	
772.73	6508.4	
772.91	6327.5	
773.09	5215.5	
773.26	5259.2	
773.44	6457.9	
773.62	6049.7	
773.8	4642.1	
773.97	4337.6	
774.15	6526.2	
774.33	6110.5	
774.5	4541	
774.68	4889.2	
774.86	6711.9	
775.04	6090	
775.21	4556	
775.39	4607.2	
775.57	6358.3	
775.74	6862.1	
775.92	4365.6	
776.1	4259.1	
776.27	6309.8	
776.45	7765.9	
776.63	4511	
776.81	4005.1	
776.98	5935	
777.16	7116.7	
777.34	4765.6	
777.51	4610.7	
777.69	5925.5	
777.87	5701.5	
778.04	4726	
778.22	5386.8	
778.4	5704.3	
778.57	6423.1	
778.75	3886.4	
778.93	4201.7	
779.1	5498.1	
779.28	5330.2	
779.46	3971	
779.64	4405.9	
779.81	6499.6	
779.99	7500.3	
780.17	5267.4	
780.34	5459.9	
780.52	5898.2	
780.69	6189	
780.87	4803.2	
781.05	4203.1	
781.22	5946.6	
781.4	6102.3	
781.58	4450.2	
781.75	3545.7	
781.93	6059.3	
782.11	5400.5	
782.28	5378.6	
782.46	4405.2	
782.64	5155.4	
782.81	6252.4	
782.99	4504.8	
783.17	4416.8	
783.34	6102.9	
783.52	5229.1	
783.69	4693.9	
783.87	5523.4	
784.05	5319.3	
784.22	5304.9	
784.4	5464.7	
784.58	4686.4	
784.75	6313.9	
784.93	5345.2	
785.1	4384	
785.28	5093.3	
785.46	6066.8	
785.63	5297.4	
785.81	4348.5	
785.99	4235.9	
786.16	5462.6	
786.34	5943.2	
786.51	4154.6	
786.69	4626.4	
786.87	5106.3	
787.04	5593.7	
787.22	4004.5	
787.39	5080.3	
787.57	5275.6	
787.75	6488.6	
787.92	5259.2	
788.1	5206.6	
788.27	5313.1	
788.45	5058.5	
788.63	4861.2	
788.8	3515.7	
788.98	5821	
789.15	5022.3	
789.33	3614	
789.5	4358.8	
789.68	6337.1	
789.86	6389	
790.03	4824.3	
790.21	4187.4	
790.38	6174.6	
790.56	5362.3	
790.73	4044.7	
790.91	4106.2	
791.09	5269.4	
791.26	6110.5	
791.44	4316.4	
791.61	3766.2	
791.79	5240.1	
791.96	5332.9	
792.14	3815.4	
792.32	3343.7	
792.49	5240.8	
792.67	5358.9	
792.84	3960.1	
793.02	3688.4	
793.19	5737	
793.37	6520.7	
793.54	3363.4	
793.72	3764.8	
793.89	6668.2	
794.07	5276.9	
794.25	4434.5	
794.42	3485.6	
794.6	6440.9	
794.77	6019	
794.95	4706.2	
795.12	4098.7	
795.3	5234.6	
795.47	5882.4	
795.65	4457.1	
795.82	4315.8	
796	5063.9	
796.17	7133.8	
796.35	4144.4	
796.52	4881	
796.7	5799.8	
796.87	5900.9	
797.05	5213.4	
797.22	5093.3	
797.4	5872.2	
797.57	7017.7	
797.75	4278.2	
797.92	4016.1	
798.1	6216.3	
798.27	5233.9	
798.45	3493.2	
798.62	3728	
798.8	5554.8	
798.97	6120	
799.15	4569	
799.32	4308.2	
799.5	4762.9	
799.67	5603.9	
799.85	4724.7	
800.02	3411.2	
800.2	5207.3	
800.37	5561.6	
800.55	4900.1	
800.72	4036.5	
800.9	6036	
801.07	6525.5	
801.25	5484.5	
801.42	4481	
801.6	6125.5	
801.77	5808.7	
801.95	4095.3	
802.12	3972.4	
802.29	5671.5	
802.47	5812.1	
802.64	4437.9	
802.82	3352.5	
802.99	5081.7	
803.17	6322.1	
803.34	4332.8	
803.52	3897.3	
803.69	6948.1	
803.87	4898.1	
804.04	4289.1	
804.21	4428.4	
804.39	6355.5	
804.56	5431.2	
804.74	3601	
804.91	4519.9	
805.09	5220.3	
805.26	5292.6	
805.44	3676.1	
805.61	4102.1	
805.78	5868.1	
805.96	5891.3	
806.13	4445.5	
806.31	4811.4	
806.48	4751.3	
806.66	5302.2	
806.83	4395.6	
807	4371	
807.18	5180	
807.35	5625.1	
807.53	4005.1	
807.7	3433.1	
807.87	6500.9	
808.05	5238	
808.22	4805.9	
808.4	3419.4	
808.57	5232.6	
808.74	4823	
808.92	3873.4	
809.09	5055.1	
809.27	5087.2	
809.44	5821	
809.61	3491.8	
809.79	3830.4	
809.96	6405.4	
810.14	6071.5	
810.31	3386	
810.48	4091.8	
810.66	5386.2	
810.83	6118.6	
811.01	3929.4	
811.18	4405.2	
811.35	5984.8	
811.53	4679.6	
811.7	4747.9	
811.87	4388.8	
812.05	5201.8	
812.22	5127.4	
812.39	3792.2	
812.57	3736.9	
812.74	5225.7	
812.92	7047.7	
813.09	4139.6	
813.26	4464.6	
813.44	6668.9	
813.61	5155.4	
813.78	3422.2	
813.96	4615.4	
814.13	5212.8	
814.3	4889.2	
814.48	5038.7	
814.65	4100	
814.82	6533.7	
815	5018.9	
815.17	4225.6	
815.34	5237.3	
815.52	5160.2	
815.69	5191.6	
815.87	4220.2	
816.04	3644.7	
816.21	5246.9	
816.38	4590.9	
816.56	4114.4	
816.73	3862.5	
816.9	6621.1	
817.08	5986.2	
817.25	3838.6	
817.42	4908.3	
817.6	4750.6	
817.77	5229.8	
817.94	4340.3	
818.12	3760.1	
818.29	5005.9	
818.46	7881.3	
818.64	4009.9	
818.81	3712.3	
818.98	4827.1	
819.16	7160.4	
819.33	4599.7	
819.5	4228.4	
819.67	5649	
819.85	6357.6	
820.02	4140.3	
820.19	4428.4	
820.37	5478.3	
820.54	5029.8	
820.71	4351.3	
820.88	5352	
821.06	5493.3	
821.23	4952	
821.4	4338.3	
821.58	4300.7	
821.75	6011.5	
821.92	5375.9	
822.09	3469.3	
822.27	3551.2	
822.44	5221.6	
822.61	5116.5	
822.79	3512.3	
822.96	6783.6	
823.13	5743.9	
823.3	4971.8	
823.48	4009.2	
823.65	3626.3	
823.82	5922	
823.99	4773.8	
824.17	5125.4	
824.34	3644.7	
824.51	6895.5	
824.68	5319.9	
824.86	3839.9	
825.03	4345.8	
825.2	5215.5	
825.37	6362.4	
825.55	3800.3	
825.72	4256.4	
825.89	7006.1	
826.06	6487.3	
826.24	4129.4	
826.41	4145.1	
826.58	6395.1	
826.75	5545.2	
826.92	3261	
827.1	3623.5	
827.27	8766.7	
827.44	6962.4	
827.61	3940.3	
827.79	4784.1	
827.96	4939.7	
828.13	5330.9	
828.3	4138.9	
828.47	3459.7	
828.65	5387.5	
828.82	5363.6	
828.99	5401.2	
829.16	4730.8	
829.34	5902.2	
829.51	5610.8	
829.68	4314.4	
829.85	4484.4	
830.02	6159.6	
830.2	5849	
830.37	3289	
830.54	5216.9	
830.71	6725.5	
830.88	5231.9	
831.05	3362.8	
831.23	3924.6	
831.4	6390.3	
831.57	7258.7	
831.74	3960.1	
831.91	3472	
832.09	5472.2	
832.26	5905	
832.43	4164.9	
832.6	4622.3	
832.77	5476.3	
832.94	6346.7	
833.12	3254.9	
833.29	4006.5	
833.46	5099.4	
833.63	7515.4	
833.8	4436.6	
833.97	4131.4	
834.15	5956.9	
834.32	5585.5	
834.49	4338.3	
834.66	4423.6	
834.83	6166.4	
835	4917.2	
835.17	3889.1	
835.35	3930.7	
835.52	5769.1	
835.69	5640.1	
835.86	4206.5	
836.03	3387.3	
836.2	5779.4	
836.37	5408.7	
836.55	4097.3	
836.72	3814.7	
836.89	5347.9	
837.06	5913.2	
837.23	4186	
837.4	4564.9	
837.57	6756.2	
837.75	7468.3	
837.92	3795.6	
838.09	3997	
838.26	5403.2	
838.43	6213.5	
838.6	4325.3	
838.77	3833.8	
838.94	7093.5	
839.11	6707.1	
839.29	4072.7	
839.46	3188	
839.63	5814.2	
839.8	5582.1	
839.97	3968.3	
840.14	4055.7	
840.31	5576.6	
840.48	5857.9	
840.65	3254.9	
840.82	3931.4	
841	5896.8	
841.17	5829.2	
841.34	3660.4	
841.51	3715.7	
841.68	5780.7	
841.85	5517.9	
842.02	3802.4	
842.19	3157.3	
842.36	5611.4	
842.53	5543.9	
842.7	3654.9	
842.87	4569.7	
843.05	7445.7	
843.22	5501.5	
843.39	3406.5	
843.56	3683.6	
843.73	5203.2	
843.9	5863.3	
844.07	5997.8	
844.24	5014.8	
844.41	8776.9	
844.58	5002.5	
844.75	3549.8	
844.92	3814	
845.09	5810.8	
845.26	5831.2	
845.43	3674.1	
845.6	3851.5	
845.77	5819	
845.94	5569.8	
846.12	4035.2	
846.29	4305.5	
846.46	6036.7	
846.63	5832.6	
846.8	3663.1	
846.97	4326	
847.14	6346.7	
847.31	5837.4	
847.48	4108.9	
847.65	4561.5	
847.82	6159.6	
847.99	6069.5	
848.16	4906.3	
848.33	4528.7	
848.5	5399.1	
848.67	6306.4	
848.84	3634.5	
849.01	3805.8	
849.18	5204.6	
849.35	4861.2	
849.52	4564.9	
849.69	3566.9	
849.86	6015.6	
850.03	6309.8	
850.2	3663.8	
850.37	4485.1	
850.54	6284.5	
850.71	5433.3	
850.88	4369	
851.05	3564.8	
851.22	5735	
851.39	6358.9	
851.56	3410.6	
851.73	4148.5	
851.9	5084.4	
852.07	6071.5	
852.24	4005.8	
852.41	3594.9	
852.58	5685.2	
852.75	5219.6	
852.92	4080.9	
853.09	3544.4	
853.26	5392.3	
853.43	6353.5	
853.6	3621.5	
853.77	3061.7	
853.94	6385.6	
854.11	5755.5	
854.28	5465.3	
854.44	3876.8	
854.61	6874.3	
854.78	6162.3	
854.95	3614.7	
855.12	4552	
855.29	4673.5	
855.46	6615.6	
855.63	3635.1	
855.8	5036.6	
855.97	5347.9	
856.14	6142.5	
856.31	5190.2	
856.48	3973.7	
856.65	5360.2	
856.82	5063.9	
856.99	3488.4	
857.16	3842	
857.33	7163.8	
857.49	5468.8	
857.66	3904.8	
857.83	4233.8	
858	5422.3	
858.17	5635.3	
858.34	3431.7	
858.51	3631.7	
858.68	6590.4	
858.85	6591.7	
859.02	4198.3	
859.19	4539	
859.36	5048.2	
859.52	5124	
859.69	3650.8	
859.86	4300.7	
860.03	5142.4	
860.2	6343.9	
860.37	3247.4	
860.54	3662.5	
860.71	6019.7	
860.88	6502.3	
861.05	4104.8	
861.21	4588.8	
861.38	6524.1	
861.55	5031.2	
861.72	3284.9	
861.89	4093.2	
862.06	6217.6	
862.23	6679.8	
862.4	3508.9	
862.56	3827	
862.73	5928.9	
862.9	5617.6	
863.07	4290.5	
863.24	3254.2	
863.41	4977.9	
863.58	5127.4	
863.75	3654.3	
863.91	4214.7	
864.08	6567.8	
864.25	6010.1	
864.42	4608.6	
864.59	5137	
864.76	6774	
864.93	5080.3	
865.09	3494.5	
865.26	3902.1	
865.43	6346	
865.6	6767.2	
865.77	3142.9	
865.94	3650.8	
866.1	6429.3	
866.27	6118	
866.44	5523.4	
866.61	3420.1	
866.78	5538.4	
866.95	5993	
867.11	3501.3	
867.28	3205.8	
867.45	6159.6	
867.62	5132.9	
867.79	4255	
867.96	3586	
868.12	5135.6	
868.29	6091.3	
868.46	3545	
868.63	4873.5	
868.8	6266.8	
868.97	6056.5	
869.13	3777.8	
869.3	3798.3	
869.47	5905.7	
869.64	6165.1	
869.81	3633.8	
869.97	3648.1	
870.14	5857.9	
870.31	6617	
870.48	3497.9	
870.65	4528.7	
870.81	5445.5	
870.98	5433.3	
871.15	4133.5	
871.32	3711.6	
871.48	5945.3	
871.65	6523.5	
871.82	3579.2	
871.99	3975.1	
872.16	7059.3	
872.32	6524.1	
872.49	3633.8	
872.66	3659	
872.83	6057.2	
872.99	5327.4	
873.16	4256.4	
873.33	3567.6	
873.5	5618.9	
873.67	5705.6	
873.83	3842.7	
874	4872.1	
874.17	5863.3	
874.34	7056.6	
874.5	4702.8	
874.67	4552.6	
874.84	6522.1	
875.01	5096	
875.17	5156.8	
875.34	3614.7	
875.51	5791	
875.68	6933.7	
875.84	4373.1	
876.01	5352.7	
876.18	6047	
876.34	5949.3	
876.51	3680.2	
876.68	3555.3	
876.85	5515.9	
877.01	6315.9	
877.18	5171.1	
877.35	3619.4	
877.52	5563	
877.68	5012.7	
877.85	3502.7	
878.02	3581.9	
878.18	5613.5	
878.35	5266.7	
878.52	2834.4	
878.69	4088.4	
878.85	6015.6	
879.02	6059.9	
879.19	5187.5	
879.35	3901.4	
879.52	6032	
879.69	6279.8	
879.86	3136.1	
880.02	4101.4	
880.19	5516.5	
880.36	6863.4	
880.52	4131.4	
880.69	4262.5	
880.86	6146	
881.02	6173.3	
881.19	3979.2	
881.36	3941.7	
881.52	6014.2	
881.69	5339.1	
881.86	3892.5	
882.02	3843.4	
882.19	6273.6	
882.36	7466.2	
882.52	3665.9	
882.69	5128.8	
882.86	5830.6	
883.02	5660.6	
883.19	4442	
883.36	4095.9	
883.52	6169.2	
883.69	7033.4	
883.86	3618.8	
884.02	3252.9	
884.19	6070.9	
884.36	5593.7	
884.52	4082.3	
884.69	3923.2	
884.86	5334.3	
885.02	6745.3	
885.19	4059.1	
885.36	4211.3	
885.52	5596.4	
885.69	5730.9	
885.86	5282.4	
886.02	4699.4	
886.19	6052.4	
886.35	5527.5	
886.52	4038.6	
886.69	5141.1	
886.85	5184.8	
887.02	6475.7	
887.19	6475.7	
887.35	6475.7	
887.52	6475.7	
887.68	6475.7	
887.85	6475.7	
888.02	6475.7	
888.18	6475.7	
888.35	6475.7	
888.51	6475.7	
888.68	6475.7	
888.85	6475.7	
889.01	6475.7	
889.18	6475.7	
889.35	6475.7	
889.51	6475.7	
889.68	6475.7	
889.84	6475.7	
890.01	6475.7	
890.17	6475.7	
890.34	6475.7	
890.51	6475.7	
890.67	6475.7	
890.84	6475.7	
891	6475.7	
891.17	6475.7	
891.34	6475.7	
891.5	6475.7	
891.67	6475.7	
891.83	6475.7	
892	6475.7	
892.16	6475.7	
892.33	6475.7	
892.5	6475.7	
892.66	6475.7	
892.83	6475.7	
892.99	6475.7	
893.16	6475.7	
893.32	6475.7	
893.49	6475.7	
893.65	6475.7	
893.82	6475.7	
893.99	6475.7	
894.15	6475.7	
894.32	6475.7	
894.48	6475.7	
894.65	6475.7	
894.81	6475.7	
894.98	6475.7	
895.14	6475.7	
895.31	6475.7	
895.47	6475.7	
895.64	6475.7	
895.81	6475.7	
895.97	6475.7	
896.14	6475.7	
896.3	6475.7	
896.47	6475.7	
896.63	6475.7	
896.8	6475.7	
896.96	6475.7	
897.13	6475.7	
897.29	6475.7	
897.46	6475.7	
897.62	6475.7	
897.79	6475.7	
897.95	6475.7	
898.12	6475.7	
898.28	6475.7	
898.45	6475.7	
898.61	6475.7	
898.78	6475.7	
898.94	6475.7	
899.11	6475.7	
899.27	6475.7	
899.44	6475.7	
899.6	6475.7	
899.77	6475.7	
899.93	6475.7	
900.1	6475.7	
900.26	6475.7	
900.43	6475.7	
900.59	6475.7	
900.76	6475.7	
900.92	6475.7	
901.09	6475.7	
901.25	6475.7	
901.42	6475.7	
901.58	6475.7	
901.75	6475.7	
901.91	6475.7	
902.07	6475.7	
902.24	6475.7	
902.4	6475.7	
902.57	6475.7	
902.73	6475.7	
902.9	6475.7	
903.06	6475.7	
903.23	6475.7	
903.39	6475.7	
903.56	6475.7	
903.72	6475.7	
903.88	6475.7	
904.05	6475.7	
904.21	6475.7	
904.38	6475.7	
904.54	6475.7	
904.71	6475.7	
904.87	6475.7	
905.03	6475.7	
905.2	6475.7	
905.36	6475.7	
905.53	6475.7	
905.69	6475.7	
905.86	6475.7	
906.02	6475.7	
906.18	6475.7	
906.35	6475.7	
906.51	6475.7	
906.68	6475.7	
906.84	6475.7	
907.01	6475.7	
907.17	6475.7	
907.33	6475.7	
907.5	6475.7	
907.66	6475.7	
907.83	6475.7	
907.99	6475.7	
908.15	6475.7	
908.32	6475.7	
908.48	6475.7	
908.65	6475.7	
908.81	6475.7	
908.97	6475.7	
909.14	6475.7	
909.3	6475.7	
909.47	6475.7	
909.63	6475.7	
909.79	6475.7	
909.96	6475.7	
910.12	6475.7	
910.28	6475.7	
910.45	6475.7	
910.61	6475.7	
910.78	6475.7	
910.94	6475.7	
911.1	6475.7	
911.27	6475.7	
911.43	6475.7	
911.59	6475.7	
911.76	6475.7	
911.92	6475.7	
912.08	6475.7	
912.25	6475.7	
912.41	6475.7	
912.57	6475.7	
912.74	6475.7	
912.9	6475.7	
913.07	6475.7	
913.23	6475.7	
913.39	6475.7	
913.56	6475.7	
913.72	6475.7	
913.88	6475.7	
914.05	6475.7	
914.21	6475.7	
914.37	6475.7	
914.54	6475.7	
914.7	6475.7	
914.86	6475.7	
915.03	6475.7	
915.19	6475.7	
