Wavelength	Intensities	
nm	a.u.	
179.22	1756.1	
179.44	1758.5	
179.65	1753.7	
179.86	1763.3	
180.08	1771.5	
180.29	4273.4	
180.51	3165.5	
180.72	5196.4	
180.94	5962.3	
181.15	2925.9	
181.37	2919	
181.58	5004.6	
181.79	5298.1	
182.01	3026.9	
182.22	3237.2	
182.44	5272.2	
182.65	4529.4	
182.87	3941.7	
183.08	3508.2	
183.29	5473.5	
183.51	4594.3	
183.72	3168.2	
183.94	4580.6	
184.15	4961.5	
184.37	4918.5	
184.58	2837.8	
184.79	3844.7	
185.01	4652.3	
185.22	5238.7	
185.44	4052.2	
185.65	3393.5	
185.86	4889.2	
186.08	4526	
186.29	2794.8	
186.51	2996.9	
186.72	4643.4	
186.94	5377.3	
187.15	3463.8	
187.36	3485	
187.58	6875	
187.79	5042.1	
188.01	3614.7	
188.22	5572.5	
188.43	6005.3	
188.65	5273.5	
188.86	2913.6	
189.08	3517.7	
189.29	4755.4	
189.5	4782	
189.72	3256.3	
189.93	3267.9	
190.15	5433.3	
190.36	6321.4	
190.57	3588	
190.79	3436.5	
191	5479.7	
191.22	5464	
191.43	3557.3	
191.64	3021.4	
191.86	5646.9	
192.07	5438	
192.29	3084.2	
192.5	3198.9	
192.71	5402.5	
192.93	4725.3	
193.14	3220.1	
193.35	3351.8	
193.57	4749.2	
193.78	5450.3	
194	2650.8	
194.21	3262.4	
194.42	4581.3	
194.64	4960.2	
194.85	3444.7	
195.07	4101.4	
195.28	4996.4	
195.49	4362.2	
195.71	4227	
195.92	3074.7	
196.13	5138.4	
196.35	5179.3	
196.56	4577.9	
196.78	3528.7	
196.99	6303.6	
197.2	5873.6	
197.42	3930.7	
197.63	3586.7	
197.84	4514.4	
198.06	5094.7	
198.27	3294.5	
198.48	4261.8	
198.7	4764.9	
198.91	4965	
199.13	3544.4	
199.34	3551.2	
199.55	5379.3	
199.77	4324.6	
199.98	3137.5	
200.19	3554.6	
200.41	4891.9	
200.62	4610	
200.83	3648.8	
201.05	3897.3	
201.26	4926	
201.47	4681	
201.69	3172.3	
201.9	3115	
202.11	4924	
202.33	5780.7	
202.54	3364.1	
202.76	3708.2	
202.97	4984.8	
203.18	5072.8	
203.4	3681.6	
203.61	3622.2	
203.82	4979.3	
204.04	4688.5	
204.25	3622.2	
204.46	3474.7	
204.68	4963.6	
204.89	5153.4	
205.1	3501.3	
205.32	3020.8	
205.53	5276.9	
205.74	5419.6	
205.96	2608.4	
206.17	3616.7	
206.38	5221.6	
206.6	5310.4	
206.81	4057	
207.02	3312.9	
207.24	5158.8	
207.45	5509.7	
207.66	3407.8	
207.88	2917	
208.09	5120.6	
208.3	5050.3	
208.52	3145.7	
208.73	3427.6	
208.94	4976.6	
209.15	5554.8	
209.37	3409.9	
209.58	3827.7	
209.79	5404.6	
210.01	4791.6	
210.22	2778.4	
210.43	2896.5	
210.65	4942.4	
210.86	5297.4	
211.07	3350.5	
211.29	3156.6	
211.5	5259.2	
211.71	4837.3	
211.93	3119.1	
212.14	3105.4	
212.35	4885.1	
212.56	5040.1	
212.78	3553.9	
212.99	2935.4	
213.2	5734.3	
213.42	4757.4	
213.63	3213.3	
213.84	3388	
214.06	4444.8	
214.27	4504.8	
214.48	3404.4	
214.69	3634.5	
214.91	5461.2	
215.12	5502.2	
215.33	3614.7	
215.55	3887	
215.76	5986.2	
215.97	5225.7	
216.18	3469.9	
216.4	3433.1	
216.61	4664.6	
216.82	5376.6	
217.04	3156.6	
217.25	3259	
217.46	5462.6	
217.67	5274.9	
217.89	2828.2	
218.1	2970.2	
218.31	5021.6	
218.53	5100.8	
218.74	3300.6	
218.95	3181.2	
219.16	4936.3	
219.38	5720	
219.59	3164.1	
219.8	3711.6	
220.01	6184.2	
220.23	4983.4	
220.44	4149.2	
220.65	3065.8	
220.87	5079.6	
221.08	5470.8	
221.29	2938.2	
221.5	3824.9	
221.72	6552.8	
221.93	4661.9	
222.14	3502	
222.35	4215.4	
222.57	4974.5	
222.78	5316.5	
222.99	3407.8	
223.2	3622.2	
223.42	5201.8	
223.63	5296	
223.84	2662.4	
224.05	2639.8	
224.27	6141.9	
224.48	5687.2	
224.69	4160.1	
224.9	3564.1	
225.12	5098.8	
225.33	4951.3	
225.54	2947.7	
225.75	3193.5	
225.97	4646.2	
226.18	4903.5	
226.39	3388.7	
226.6	3202.3	
226.82	4803.9	
227.03	4575.8	
227.24	3545	
227.45	2977.7	
227.67	5281.7	
227.88	5664.7	
228.09	3905.5	
228.3	3951.2	
228.52	5303.6	
228.73	4888.5	
228.94	3303.4	
229.15	3004.4	
229.36	4938.3	
229.58	4857.1	
229.79	3363.4	
230	3835.8	
230.21	5803.3	
230.43	4982.7	
230.64	3493.8	
230.85	3632.4	
231.06	5378.6	
231.28	5335	
231.49	2927.2	
231.7	3467.2	
231.91	5223	
232.12	4969.1	
232.34	3067.9	
232.55	3428.3	
232.76	5505.6	
232.97	5071.5	
233.18	3103.4	
233.4	3573.7	
233.61	5147.2	
233.82	4720.6	
234.03	3310.9	
234.25	3259.7	
234.46	6681.8	
234.67	4984.8	
234.88	3659	
235.09	3165.5	
235.31	5143.1	
235.52	4833.2	
235.73	3487	
235.94	3006.4	
236.15	4721.9	
236.37	5943.2	
236.58	3147.7	
236.79	3396.9	
237	5167	
237.21	4513.7	
237.43	3629.7	
237.64	2847.4	
237.85	8441.7	
238.06	4622.9	
238.27	3660.4	
238.48	3066.5	
238.7	5273.5	
238.91	4853	
239.12	3411.9	
239.33	3401	
239.54	4640.7	
239.76	4820.2	
239.97	3328.6	
240.18	3379.8	
240.39	6015.6	
240.6	5148.6	
240.82	3503.4	
241.03	2899.9	
241.24	4924.7	
241.45	5691.3	
241.66	3114.3	
241.87	3673.4	
242.09	5589.6	
242.3	5919.3	
242.51	3719.1	
242.72	3428.3	
242.93	5292	
243.14	4915.8	
243.36	3887	
243.57	4201.1	
243.78	5610.8	
243.99	5249.6	
244.2	3344.3	
244.41	3134.8	
244.63	4597	
244.84	5193.6	
245.05	3649.5	
245.26	3424.9	
245.47	5203.2	
245.68	5358.2	
245.9	4449.6	
246.11	3519.8	
246.32	4768.4	
246.53	5154.7	
246.74	5343.2	
246.95	2957.3	
247.16	4569.7	
247.38	4970.4	
247.59	2902	
247.8	3450.1	
248.01	4620.9	
248.22	4873.5	
248.43	3172.3	
248.64	3351.2	
248.86	4495.3	
249.07	4777.2	
249.28	3074	
249.49	3478.8	
249.7	5408	
249.91	5520.6	
250.12	2935.4	
250.34	2921.8	
250.55	5054.4	
250.76	4922.6	
250.97	3516.4	
251.18	3576.4	
251.39	5486.5	
251.6	5119.9	
251.81	3590.8	
252.03	3592.1	
252.24	4753.3	
252.45	5380	
252.66	3013.9	
252.87	3741.6	
253.08	4935.6	
253.29	6293.4	
253.5	3044	
253.72	4142.4	
253.93	4805.9	
254.14	5821.7	
254.35	3242.6	
254.56	3337.5	
254.77	5139	
254.98	4668	
255.19	3201.7	
255.41	4019.5	
255.62	5096	
255.83	5487.9	
256.04	3650.8	
256.25	3536.2	
256.46	5951.4	
256.67	4697.4	
256.88	3527.3	
257.09	3863.2	
257.31	4596.3	
257.52	4666	
257.73	4362.9	
257.94	3252.2	
258.15	4838.7	
258.36	4947.9	
258.57	4034.5	
258.78	2625.5	
258.99	5390.9	
259.2	4775.9	
259.41	3246	
259.63	3355.9	
259.84	5621.7	
260.05	6011.5	
260.26	4209.9	
260.47	3201	
260.68	5443.5	
260.89	4902.8	
261.1	3891.8	
261.31	3124.5	
261.52	5543.9	
261.73	5771.2	
261.95	4182.6	
262.16	3620.8	
262.37	5494	
262.58	5594.4	
262.79	4147.8	
263	3285.6	
263.21	4990.2	
263.42	4825.7	
263.63	3371	
263.84	3278.1	
264.05	5374.6	
264.26	5743.2	
264.47	3983.3	
264.69	3636.5	
264.9	5568.4	
265.11	5090.6	
265.32	3171.6	
265.53	3251.5	
265.74	5124	
265.95	4431.1	
266.16	3440.6	
266.37	3781.9	
266.58	5038	
266.79	4780.6	
267	3198.9	
267.21	3063.1	
267.42	4634.6	
267.63	4989.5	
267.84	3388	
268.06	2985.3	
268.27	5368.4	
268.48	5489.2	
268.69	3304.7	
268.9	3844.7	
269.11	5530.9	
269.32	4478.2	
269.53	3413.3	
269.74	3185.3	
269.95	5179.3	
270.16	4447.5	
270.37	3431.7	
270.58	3940.3	
270.79	4842.8	
271	5388.2	
271.21	3592.1	
271.42	3508.9	
271.63	5078.3	
271.84	4575.2	
272.05	2803	
272.26	3116.3	
272.47	4960.9	
272.68	5097.4	
272.89	3344.3	
273.11	3726.6	
273.32	4758.1	
273.53	5682.4	
273.74	3687	
273.95	3551.9	
274.16	5390.9	
274.37	5008	
274.58	3718.4	
274.79	2990.7	
275	5089.2	
275.21	5467.4	
275.42	4403.8	
275.63	3768.9	
275.84	5221.6	
276.05	6368.5	
276.26	3530	
276.47	3356.6	
276.68	4859.1	
276.89	5795.1	
277.1	3822.9	
277.31	3033.7	
277.52	5161.6	
277.73	5390.3	
277.94	2996.2	
278.15	3267.2	
278.36	5141.1	
278.57	4695.3	
278.78	3303.4	
278.99	3641.3	
279.2	4671.4	
279.41	4597	
279.62	4257.7	
279.83	3063.8	
280.04	5925.5	
280.25	4666.6	
280.46	4226.3	
280.67	3391.4	
280.88	4679.6	
281.09	5489.2	
281.3	3543	
281.51	4448.2	
281.72	4734.9	
281.93	5397.1	
282.14	3160.7	
282.35	3442	
282.56	5414.1	
282.77	5259.9	
282.98	3349.8	
283.19	4054.3	
283.4	6522.1	
283.61	4889.2	
283.82	3089	
284.03	4209.9	
284.24	5087.2	
284.45	5467.4	
284.66	4194.9	
284.87	4023.6	
285.08	5436	
285.29	5517.2	
285.5	2951.1	
285.71	3362.8	
285.92	5434.6	
286.12	6005.3	
286.33	4116.4	
286.54	3410.6	
286.75	5343.2	
286.96	4859.1	
287.17	3121.1	
287.38	4040	
287.59	4702.8	
287.8	4664.6	
288.01	3327.9	
288.22	3812	
288.43	5312.4	
288.64	4541.7	
288.85	3885	
289.06	3758	
289.27	5326.1	
289.48	5670.1	
289.69	4188.8	
289.9	3782.6	
290.11	5508.4	
290.32	4773.8	
290.53	3961.5	
290.74	3676.1	
290.94	5313.8	
291.15	5361.6	
291.36	3173	
291.57	3767.6	
291.78	4784.1	
291.99	4483	
292.2	3135.4	
292.41	3685.7	
292.62	5388.9	
292.83	5251	
293.04	4444.1	
293.25	3175	
293.46	4795.7	
293.67	5416.9	
293.88	3205.8	
294.09	3099.9	
294.29	4584	
294.5	5085.8	
294.71	3450.1	
294.92	3317.7	
295.13	4805.9	
295.34	5938.4	
295.55	2934.7	
295.76	2884.2	
295.97	5345.9	
296.18	5871.5	
296.39	3045.3	
296.6	3219.4	
296.81	4985.4	
297.01	5275.6	
297.22	3364.8	
297.43	3178.4	
297.64	4728.1	
297.85	4622.9	
298.06	2690.3	
298.27	2901.3	
298.48	4969.1	
298.69	4704.9	
298.9	3508.9	
299.11	3157.3	
299.31	4521.9	
299.52	4601.8	
299.73	3743	
299.94	3642	
300.15	4998.4	
300.36	4672.8	
300.57	3608.5	
300.78	3617.4	
300.99	4870.8	
301.2	5038.7	
301.4	3196.2	
301.61	3483.6	
301.82	5240.1	
302.03	5280.3	
302.24	3805.1	
302.45	3068.5	
302.66	5233.2	
302.87	5525.4	
303.08	3238.5	
303.29	4227	
303.49	4806.6	
303.7	4988.2	
303.91	2922.5	
304.12	4112.3	
304.33	4564.9	
304.54	5074.2	
304.75	3240.6	
304.96	3183.9	
305.16	5266	
305.37	5756.2	
305.58	2831	
305.79	2897.2	
306	5223	
306.21	4475.5	
306.42	3261	
306.63	4810	
306.83	4805.9	
307.04	5369.8	
307.25	3537.5	
307.46	3538.2	
307.67	4334.9	
307.88	5343.8	
308.09	3186.6	
308.29	3277.4	
308.5	5026.4	
308.71	5464.7	
308.92	3455.6	
309.13	3125.2	
309.34	4883	
309.55	4855.1	
309.75	3997.6	
309.96	3695.2	
310.17	5275.6	
310.38	4712.4	
310.59	3775.1	
310.8	3105.4	
311.01	5833.3	
311.21	4872.8	
311.42	3082.2	
311.63	3168.2	
311.84	4785.4	
312.05	5045.5	
312.26	3538.9	
312.46	3868.6	
312.67	4842.8	
312.88	4572.4	
313.09	3112.2	
313.3	3003	
313.51	5623	
313.71	5911.1	
313.92	3130.7	
314.13	3290.4	
314.34	5169.8	
314.55	4863.9	
314.76	3941	
314.96	3443.3	
315.17	5048.9	
315.38	5268.7	
315.59	3167.5	
315.8	2981.8	
316.01	5666.7	
316.21	5687.9	
316.42	3013.2	
316.63	3461.7	
316.84	4881	
317.05	5479	
317.26	3672	
317.46	3289.7	
317.67	4938.3	
317.88	5239.4	
318.09	3904.1	
318.3	2893.1	
318.5	4773.1	
318.71	5143.8	
318.92	4910.3	
319.13	3588	
319.34	5399.8	
319.54	5522.7	
319.75	2947	
319.96	2772.3	
320.17	5257.8	
320.38	5445.5	
320.58	2836.4	
320.79	3373	
321	5464.7	
321.21	5551.4	
321.42	3445.4	
321.62	2872.6	
321.83	4659.1	
322.04	4992.3	
322.25	3285.6	
322.46	3108.1	
322.66	5042.8	
322.87	5221.6	
323.08	3773	
323.29	3059.7	
323.5	5846.3	
323.7	4632.5	
323.91	4184	
324.12	3745.7	
324.33	5066	
324.53	5210	
324.74	3605.8	
324.95	3778.5	
325.16	4466.6	
325.37	4824.3	
325.57	3106.1	
325.78	3173	
325.99	5093.3	
326.2	4529.4	
326.4	4326	
326.61	2861.7	
326.82	4906.3	
327.03	5044.1	
327.24	4337.6	
327.44	4056.3	
327.65	5213.4	
327.86	4252.3	
328.07	3655.6	
328.27	3035.1	
328.48	5539.8	
328.69	4609.3	
328.9	4326.7	
329.1	3279.5	
329.31	4891.2	
329.52	5649.7	
329.73	3137.5	
329.93	3448.8	
330.14	4976.6	
330.35	5150.6	
330.56	4956.8	
330.76	3760.8	
330.97	4838.7	
331.18	5177.3	
331.39	3458.3	
331.59	2780.5	
331.8	5460.6	
332.01	5547.9	
332.22	3233.1	
332.42	3660.4	
332.63	5089.2	
332.84	4678.9	
333.05	3460.4	
333.25	3194.1	
333.46	4783.4	
333.67	4956.1	
333.88	3250.8	
334.08	3482.9	
334.29	6393.8	
334.5	5500.8	
334.7	3047.4	
334.91	4300.7	
335.12	4642.1	
335.33	5256.5	
335.53	3420.8	
335.74	4998.4	
335.95	4851	
336.16	4618.9	
336.36	3449.5	
336.57	3924.6	
336.78	4577.2	
336.98	5482.4	
337.19	4171	
337.4	3406.5	
337.61	5885.2	
337.81	4551.3	
338.02	3188	
338.23	4024.3	
338.43	5608.7	
338.64	4646.2	
338.85	3186	
339.05	4023.6	
339.26	5722	
339.47	4493.9	
339.68	3167.5	
339.88	4471.4	
340.09	5189.6	
340.3	5365	
340.5	3635.1	
340.71	2824.8	
340.92	4554	
341.13	5495.4	
341.33	3067.9	
341.54	3646.1	
341.75	5202.5	
341.95	4846.2	
342.16	3484.3	
342.37	3728	
342.57	4584	
342.78	4920.6	
342.99	3850.2	
343.19	2841.2	
343.4	5362.9	
343.61	5189.6	
343.81	3344.3	
344.02	3084.2	
344.23	5283.1	
344.43	5652.4	
344.64	3861.8	
344.85	3775.1	
345.06	5186.8	
345.26	5504.9	
345.47	3608.5	
345.68	4157.4	
345.88	4475.5	
346.09	5354.1	
346.3	3659	
346.5	2840.5	
346.71	4944.5	
346.92	4760.8	
347.12	2938.2	
347.33	3555.3	
347.54	5377.3	
347.74	5793.7	
347.95	3544.4	
348.16	2727.9	
348.36	4780	
348.57	4640.7	
348.78	3579.8	
348.98	3772.4	
349.19	4876.9	
349.39	4463.9	
349.6	2955.9	
349.81	3161.4	
350.01	5190.9	
350.22	4703.5	
350.43	3462.4	
350.63	4044.7	
350.84	5031.2	
351.05	4775.9	
351.25	3156.6	
351.46	2835.1	
351.67	5371.8	
351.87	4648.9	
352.08	3325.2	
352.29	3741	
352.49	5326.1	
352.7	5117.9	
352.9	3061.7	
353.11	3748.5	
353.32	5935	
353.52	4784.7	
353.73	3078.1	
353.94	3800.3	
354.14	5193.6	
354.35	4960.9	
354.55	3097.2	
354.76	3469.3	
354.97	5163.6	
355.17	4947.2	
355.38	2960	
355.59	4033.1	
355.79	4668	
356	4941.1	
356.2	3422.2	
356.41	2998.2	
356.62	4510.3	
356.82	4852.3	
357.03	3661.1	
357.24	3276.7	
357.44	4696.7	
357.65	4775.2	
357.85	4336.9	
358.06	3454.2	
358.27	4461.8	
358.47	4604.5	
358.68	2953.2	
358.88	3635.1	
359.09	5131.5	
359.3	5389.6	
359.5	4190.8	
359.71	3764.8	
359.91	5822.4	
360.12	5183.4	
360.33	3662.5	
360.53	4039.3	
360.74	4681.7	
360.94	4792.2	
361.15	3816.7	
361.36	3145	
361.56	5360.9	
361.77	4877.6	
361.97	4159.4	
362.18	3373.7	
362.38	5339.7	
362.59	4542.4	
362.8	3143.6	
363	2953.9	
363.21	4365.6	
363.41	4975.2	
363.62	3539.6	
363.83	4259.1	
364.03	5089.9	
364.24	5823.7	
364.44	4466.6	
364.65	4441.4	
364.85	4780	
365.06	4556	
365.27	3259	
365.47	3317.7	
365.68	5722	
365.88	4767.7	
366.09	3591.5	
366.29	3304.1	
366.5	4977.9	
366.71	5373.2	
366.91	4377.9	
367.12	3721.8	
367.32	5869.5	
367.53	5207.3	
367.73	3711.6	
367.94	4435.9	
368.14	5186.8	
368.35	5881.1	
368.56	3695.9	
368.76	3129.3	
368.97	5271.5	
369.17	6646.3	
369.38	3224.2	
369.58	3445.4	
369.79	4483	
369.99	5584.8	
370.2	4316.4	
370.4	3502.7	
370.61	5033.2	
370.82	6058.6	
371.02	3484.3	
371.23	2906.1	
371.43	4450.2	
371.64	5521.3	
371.84	3476.1	
372.05	4459.8	
372.25	6556.9	
372.46	5281.7	
372.66	3424.2	
372.87	3401	
373.07	5236.7	
373.28	6624.5	
373.48	4259.8	
373.69	4052.9	
373.9	4902.8	
374.1	4881.7	
374.31	4176.5	
374.51	3799.7	
374.72	5546.6	
374.92	4589.5	
375.13	4320.5	
375.33	3728.7	
375.54	5145.9	
375.74	4692.6	
375.95	3739.6	
376.15	4716.5	
376.36	5269.4	
376.56	5076.9	
376.77	3764.8	
376.97	4134.8	
377.18	6109.1	
377.38	5288.5	
377.59	4407.2	
377.79	3330	
378	5057.1	
378.2	5427.8	
378.41	3422.8	
378.61	3298.6	
378.82	5520	
379.02	4746.5	
379.23	3533.4	
379.43	4498	
379.64	5636.7	
379.84	5167.7	
380.05	3400.3	
380.25	3289.7	
380.46	5259.9	
380.66	5046.2	
380.87	4448.9	
381.07	4758.1	
381.28	5789.6	
381.48	5319.3	
381.69	3455.6	
381.89	3474.7	
382.1	4437.3	
382.3	5454.4	
382.51	4285	
382.71	5113.1	
382.91	5336.3	
383.12	5698.8	
383.32	3713.6	
383.53	3870	
383.73	5200.5	
383.94	5048.9	
384.14	3964.2	
384.35	3162.1	
384.55	4910.3	
384.76	5256.5	
384.96	3779.2	
385.17	3998.3	
385.37	5292	
385.58	4657.8	
385.78	3932.8	
385.98	3050.1	
386.19	4899.4	
386.39	5212.1	
386.6	3518.4	
386.8	3718.4	
387.01	5328.8	
387.21	5358.9	
387.42	4083.6	
387.62	4550.6	
387.83	4732.9	
388.03	5229.8	
388.23	3751.9	
388.44	4394.3	
388.64	4533.5	
388.85	4587.4	
389.05	3986.7	
389.26	4451.6	
389.46	6207.4	
389.67	5591	
389.87	3966.9	
390.07	3988.1	
390.28	4951.3	
390.48	4670.1	
390.69	3347.7	
390.89	3607.2	
391.1	4839.4	
391.3	5534.3	
391.5	4547.9	
391.71	5052.3	
391.91	5351.3	
392.12	6164.4	
392.32	4671.4	
392.53	3992.9	
392.73	4900.1	
392.93	4989.5	
393.14	3773.7	
393.34	4441.4	
393.55	5351.3	
393.75	5019.6	
393.95	3756.7	
394.16	3720.5	
394.36	4845.5	
394.57	5359.5	
394.77	3319.1	
394.98	3636.5	
395.18	4791.6	
395.38	4840	
395.59	4388.1	
395.79	3435.1	
396	4922	
396.2	5287.2	
396.4	4169	
396.61	4108.9	
396.81	5354.8	
397.02	4801.8	
397.22	4318.5	
397.42	4384.7	
397.63	5415.5	
397.83	4745.1	
398.04	3474	
398.24	3766.9	
398.44	5213.4	
398.65	4403.1	
398.85	3284.9	
399.05	3413.3	
399.26	4754.7	
399.46	6148	
399.67	3703.4	
399.87	3463.8	
400.07	4958.1	
400.28	5298.1	
400.48	3568.2	
400.69	4399.7	
400.89	5470.1	
401.09	5856.5	
401.3	3437.2	
401.5	4339	
401.7	6055.2	
401.91	6146.6	
402.11	3843.4	
402.32	3938.2	
402.52	5478.3	
402.72	5450.3	
402.93	4107.5	
403.13	3154.6	
403.33	6109.8	
403.54	5057.1	
403.74	3851.5	
403.94	4607.9	
404.15	5138.4	
404.35	6056.5	
404.56	3664.5	
404.76	5132.2	
404.96	5490.6	
405.17	5252.4	
405.37	4933.6	
405.57	4037.2	
405.78	5438.7	
405.98	5086.5	
406.18	3667.9	
406.39	4392.9	
406.59	5517.2	
406.79	5188.9	
407	3478.8	
407.2	3594.2	
407.4	5558.9	
407.61	5598.5	
407.81	3574.4	
408.01	5309	
408.22	4518.5	
408.42	6188.3	
408.62	4457.1	
408.83	3993.5	
409.03	5044.8	
409.23	4945.8	
409.44	4043.4	
409.64	4336.9	
409.84	5810.1	
410.05	5671.5	
410.25	4104.1	
410.45	3904.8	
410.66	5255.1	
410.86	7304.4	
411.06	4220.2	
411.27	4136.2	
411.47	7105.8	
411.67	5378	
411.88	4313.7	
412.08	4437.9	
412.28	5952.8	
412.49	6318	
412.69	4102.1	
412.89	4165.6	
413.09	6103.6	
413.3	6012.8	
413.5	4210.6	
413.7	3823.6	
413.91	5459.2	
414.11	6135	
414.31	3986.7	
414.52	4388.8	
414.72	5874.3	
414.92	5767.8	
415.12	4030.4	
415.33	4418.2	
415.53	6077	
415.73	6219.7	
415.94	4782.7	
416.14	4306.9	
416.34	5251.7	
416.55	5067.4	
416.75	5323.4	
416.95	4738.3	
417.15	6151.4	
417.36	6618.4	
417.56	5410.7	
417.76	4634.6	
417.97	6316.6	
418.17	6023.1	
418.37	4317.8	
418.57	4334.2	
418.78	5926.1	
418.98	5672.9	
419.18	5000.5	
419.38	4988.2	
419.59	5645.6	
419.79	5358.9	
419.99	4228.4	
420.2	4500.1	
420.4	6171.9	
420.6	6191	
420.8	4117.8	
421.01	4007.9	
421.21	5896.8	
421.41	6077	
421.61	4446.1	
421.82	4218.8	
422.02	5537.7	
422.22	6372.6	
422.42	4789.5	
422.63	4644.1	
422.83	5692.7	
423.03	6589.7	
423.23	4620.2	
423.44	3832.4	
423.64	5640.1	
423.84	5503.6	
424.04	4191.5	
424.25	3870	
424.45	6464.8	
424.65	6408.8	
424.85	3781.9	
425.06	4197.7	
425.26	6473.6	
425.46	5568.4	
425.66	4616.8	
425.87	4345.8	
426.07	6280.4	
426.27	6090.7	
426.47	4503.5	
426.67	3925.3	
426.88	6552.1	
427.08	6042.2	
427.28	4693.9	
427.48	3935.5	
427.69	5158.8	
427.89	5730.2	
428.09	4599.1	
428.29	3951.9	
428.5	6223.1	
428.7	5963	
428.9	3797.6	
429.1	4242	
429.3	5784.8	
429.51	6085.9	
429.71	4106.2	
429.91	4774.5	
430.11	6083.1	
430.31	6236.7	
430.52	4378.6	
430.72	4551.3	
430.92	6536.4	
431.12	6011.5	
431.32	4038.6	
431.53	4407.9	
431.73	5128.8	
431.93	6570.6	
432.13	3928	
432.33	3846.1	
432.54	5535.7	
432.74	5791	
432.94	3779.9	
433.14	4709	
433.34	6108.4	
433.55	5580.7	
433.75	4603.8	
433.95	6027.9	
434.15	5773.2	
434.35	5546.6	
434.56	3949.8	
434.76	3543.7	
434.96	5774.6	
435.16	5973.9	
435.36	3869.3	
435.56	4737	
435.77	5484.5	
435.97	5627.8	
436.17	5330.2	
436.37	4684.4	
436.57	5399.8	
436.78	5407.3	
436.98	4675.5	
437.18	5224.4	
437.38	5948.7	
437.58	5614.8	
437.78	5309	
437.99	4188.1	
438.19	6049.7	
438.39	6688.7	
438.59	4215.4	
438.79	3771	
438.99	6557.6	
439.2	5640.8	
439.4	3855.6	
439.6	3772.4	
439.8	5835.3	
440	6763.8	
440.2	4630.5	
440.4	4670.1	
440.61	6158.9	
440.81	6554.9	
441.01	3933.5	
441.21	4711.7	
441.41	6459.3	
441.61	6178	
441.81	4907.6	
442.02	5696.1	
442.22	6872.3	
442.42	6258.6	
442.62	4020.2	
442.82	4088.4	
443.02	6492.1	
443.22	5713.2	
443.43	4405.2	
443.63	3895.9	
443.83	5616.2	
444.03	5600.5	
444.23	4985.4	
444.43	4654.4	
444.63	5864	
444.83	6852.5	
445.04	4076.8	
445.24	5170.4	
445.44	6183.5	
445.64	6171.2	
445.84	4814.8	
446.04	4733.5	
446.24	5653.8	
446.44	6524.8	
446.65	4156.7	
446.85	4392.2	
447.05	5730.2	
447.25	6460	
447.45	4486.4	
447.65	3962.1	
447.85	5951.4	
448.05	5657.9	
448.25	4747.9	
448.46	4589.5	
448.66	5969.8	
448.86	5617.6	
449.06	3799	
449.26	4807.3	
449.46	6107	
449.66	5412.8	
449.86	4380.6	
450.06	4387.4	
450.26	5584.1	
450.47	6042.2	
450.67	4582	
450.87	4855.1	
451.07	6174.6	
451.27	5896.1	
451.47	4006.5	
451.67	4418.8	
451.87	5668.1	
452.07	6634.1	
452.27	4168.3	
452.47	4190.1	
452.67	5966.4	
452.88	6292.7	
453.08	3708.2	
453.28	5306.3	
453.48	6890.7	
453.68	5861.3	
453.88	4105.5	
454.08	4305.5	
454.28	6150.1	
454.48	5923.4	
454.68	4653.7	
454.88	5099.4	
455.08	6352.8	
455.28	6029.9	
455.48	3995.6	
455.68	4482.3	
455.89	6677.1	
456.09	6255.9	
456.29	4243.4	
456.49	4251.6	
456.69	6433.4	
456.89	5776	
457.09	4639.3	
457.29	4956.1	
457.49	6090	
457.69	6159.6	
457.89	4484.4	
458.09	4013.3	
458.29	5786.9	
458.49	6485.9	
458.69	4829.8	
458.89	4354	
459.09	6651.8	
459.29	6764.4	
459.49	4469.4	
459.69	5132.2	
459.9	6334.4	
460.1	5905	
460.3	4392.2	
460.5	4225	
460.7	6305	
460.9	6014.2	
461.1	3922.5	
461.3	4920.6	
461.5	6789	
461.7	6436.8	
461.9	4197.7	
462.1	4564.9	
462.3	6047.7	
462.5	6462.7	
462.7	4270.7	
462.9	4349.2	
463.1	7317.4	
463.3	7028.6	
463.5	4487.8	
463.7	5187.5	
463.9	6137.8	
464.1	6414.9	
464.3	4504.8	
464.5	4745.1	
464.7	6627.9	
464.9	6273.6	
465.1	5881.1	
465.3	4995	
465.5	6873	
465.7	6836.8	
465.9	5233.2	
466.1	5105.6	
466.3	6659.3	
466.5	6560.3	
466.7	5660.6	
466.9	4855.1	
467.1	6576	
467.3	7223.9	
467.5	5651	
467.7	4745.1	
467.9	7384.3	
468.1	8165.3	
468.3	5393	
468.5	5694.7	
468.7	6446.3	
468.9	6444.3	
469.1	5027.8	
469.3	5509	
469.5	8067.6	
469.7	6139.1	
469.9	5350.7	
470.1	4756.7	
470.3	6538.5	
470.5	6527.6	
470.7	5848.3	
470.9	4870.8	
471.1	6266.1	
471.3	6738.5	
471.5	4702.1	
471.69	6251.1	
471.89	6260	
472.09	5811.5	
472.29	5322.7	
472.49	5655.1	
472.69	5999.9	
472.89	6677.7	
473.09	4638.6	
473.29	4818.9	
473.49	6155.5	
473.69	6236.7	
473.89	5558.2	
474.09	4953.4	
474.29	7322.2	
474.49	7025.9	
474.69	5517.9	
474.89	4965.6	
475.09	6305	
475.29	6268.1	
475.49	4558.1	
475.69	4737.6	
475.88	7669	
476.08	6643.6	
476.28	4431.1	
476.48	4807.3	
476.68	7005.4	
476.88	6789.7	
477.08	4773.1	
477.28	4941.1	
477.48	6386.9	
477.68	6966.5	
477.88	4534.9	
478.08	4815.5	
478.28	7172.7	
478.48	6460	
478.67	4939	
478.87	4398.4	
479.07	7033.4	
479.27	6591	
479.47	5102.9	
479.67	5062.6	
479.87	6884.6	
480.07	7290.8	
480.27	4471.4	
480.47	5788.9	
480.67	6546.7	
480.87	7108.5	
481.06	4679.6	
481.26	5417.6	
481.46	6573.3	
481.66	6389.7	
481.86	5062.6	
482.06	5925.5	
482.26	6228.6	
482.46	7052.5	
482.66	5017.5	
482.86	4655.7	
483.05	6619.7	
483.25	6017.6	
483.45	7033.4	
483.65	4966.3	
483.85	6155.5	
484.05	6468.2	
484.25	5304.2	
484.45	5692.7	
484.65	7099.6	
484.84	7151.5	
485.04	4912.4	
485.24	4876.9	
485.44	7413	
485.64	5958.9	
485.84	4328.7	
486.04	5455.8	
486.24	6298.2	
486.44	6543.9	
486.63	4301.4	
486.83	4990.2	
487.03	6193.7	
487.23	6371.2	
487.43	4398.4	
487.63	6255.2	
487.83	6414.2	
488.02	7200	
488.22	5061.9	
488.42	5562.3	
488.62	7094.8	
488.82	6187.6	
489.02	4874.8	
489.22	4861.9	
489.41	7007.5	
489.61	6766.5	
489.81	4660.5	
490.01	4669.4	
490.21	6959.7	
490.41	7506.5	
490.61	4622.9	
490.8	4756.1	
491	6521.4	
491.2	6074.3	
491.4	5265.3	
491.6	4565.6	
491.8	6571.9	
491.99	6636.1	
492.19	4449.6	
492.39	4784.1	
492.59	6883.9	
492.79	7027.9	
492.99	5337.7	
493.18	4636.6	
493.38	6987.7	
493.58	7595.2	
493.78	5136.3	
493.98	4892.6	
494.18	6724.2	
494.37	6199.2	
494.57	5319.3	
494.77	5167	
494.97	6890.7	
495.17	7070.3	
495.37	4860.5	
495.56	5148.6	
495.76	7152.2	
495.96	6916	
496.16	5937.1	
496.36	4960.9	
496.55	7098.9	
496.75	6673	
496.95	5309.7	
497.15	5216.9	
497.35	7141.9	
497.54	6968.6	
497.74	5061.9	
497.94	6217	
498.14	7599.3	
498.34	7330.4	
498.53	4756.1	
498.73	5418.9	
498.93	6406.7	
499.13	6980.2	
499.33	5212.8	
499.52	5639.4	
499.72	6907.1	
499.92	7187	
500.12	4902.8	
500.32	5186.8	
500.51	7173.4	
500.71	6928.3	
500.91	5758.2	
501.11	5569.8	
501.31	7109.2	
501.5	7473	
501.7	6043.6	
501.9	5195	
502.1	6903.7	
502.29	7245	
502.49	5528.8	
502.69	5959.6	
502.89	7146	
503.09	7152.2	
503.28	4847.5	
503.48	4941.7	
503.68	6591	
503.88	6585.6	
504.07	5670.8	
504.27	5352	
504.47	6839.5	
504.67	6997.2	
504.86	5674.2	
505.06	5374.6	
505.26	6683.9	
505.46	8041.7	
505.65	5354.1	
505.85	5511.8	
506.05	6611.5	
506.25	7093.5	
506.44	4817.5	
506.64	5632.6	
506.84	6531	
507.04	7283.3	
507.23	4999.1	
507.43	5431.9	
507.63	8161.8	
507.83	6695.5	
508.02	5479	
508.22	5137.7	
508.42	8353	
508.62	6476.4	
508.81	5398.4	
509.01	5823.1	
509.21	6452.5	
509.4	6654.5	
509.6	5567.7	
509.8	4996.4	
510	6632.7	
510.19	7715.4	
510.39	4952	
510.59	4988.9	
510.79	6445.6	
510.98	7585.7	
511.18	5112.4	
511.38	5184.1	
511.57	7229.3	
511.77	6961.7	
511.97	5767.8	
512.17	5032.5	
512.36	7126.9	
512.56	7143.3	
512.76	4915.8	
512.95	4717.8	
513.15	7343.3	
513.35	6058.6	
513.55	5705	
513.74	4966.3	
513.94	7190.4	
514.14	6584.9	
514.33	5781.4	
514.53	5505.6	
514.73	6673	
514.92	6784.9	
515.12	5060.5	
515.32	4973.8	
515.51	6922.1	
515.71	7264.8	
515.91	6420.4	
516.11	4920.6	
516.3	8137.9	
516.5	6553.5	
516.7	5487.9	
516.89	6024.4	
517.09	6657.9	
517.29	6531.7	
517.48	5705	
517.68	5170.4	
517.88	6415.6	
518.07	6953.5	
518.27	5602.6	
518.47	4886.5	
518.66	7361.8	
518.86	6272.2	
519.06	4681	
519.25	5075.5	
519.45	6550.1	
519.65	7691.5	
519.84	5613.5	
520.04	6206	
520.24	8084.7	
520.43	7101.7	
520.63	5416.2	
520.83	5207.3	
521.02	6521.4	
521.22	6999.3	
521.42	5608.7	
521.61	6077	
521.81	6669.6	
522.01	6836.1	
522.2	5431.9	
522.4	5361.6	
522.6	7174	
522.79	6068.1	
522.99	5336.3	
523.18	4792.9	
523.38	6898.9	
523.58	6772.6	
523.77	6257.2	
523.97	4643.4	
524.17	8310.7	
524.36	7764.5	
524.56	5755.5	
524.76	5517.9	
524.95	6795.2	
525.15	6628.6	
525.34	5324.7	
525.54	5368.4	
525.74	7123.5	
525.93	6309.1	
526.13	6356.2	
526.33	5302.2	
526.52	7488.7	
526.72	6998.6	
526.91	6295.5	
527.11	5668.8	
527.31	7397.9	
527.5	7710.6	
527.7	5644.2	
527.89	4830.5	
528.09	6485.2	
528.29	6940.6	
528.48	5881.8	
528.68	5669.5	
528.87	7280.5	
529.07	7333.1	
529.27	5651.7	
529.46	5227.1	
529.66	7050.5	
529.85	7385	
530.05	5119.9	
530.25	5727.5	
530.44	8254	
530.64	6946.7	
530.83	5489.2	
531.03	5604.6	
531.23	7300.3	
531.42	7150.1	
531.62	6130.3	
531.81	5464.7	
532.01	7423.2	
532.21	7688.8	
532.4	5199.1	
532.6	5500.2	
532.79	8087.4	
532.99	7376.1	
533.18	5597.1	
533.38	6492.1	
533.58	7010.2	
533.77	7612.3	
533.97	5535.7	
534.16	6218.3	
534.36	7890.1	
534.55	6983.6	
534.75	6365.1	
534.95	5573.2	
535.14	7695.6	
535.34	7043	
535.53	5384.1	
535.73	6959.7	
535.92	8172.1	
536.12	7249.8	
536.31	5472.2	
536.51	6459.3	
536.71	7487.4	
536.9	7137.2	
537.1	5638.1	
537.29	5666	
537.49	7835.5	
537.68	7000	
537.88	6006.7	
538.07	5343.8	
538.27	7186.3	
538.46	8068.3	
538.66	5244.8	
538.86	5630.5	
539.05	7273.7	
539.25	7619.8	
539.44	5900.9	
539.64	5569.8	
539.83	7260.7	
540.03	7978.9	
540.22	5492.7	
540.42	5604.6	
540.61	7473	
540.81	7404.1	
541	5941.8	
541.2	6442.2	
541.39	6962.4	
541.59	7268.9	
541.78	6204.7	
541.98	5527.5	
542.18	6782.2	
542.37	6767.2	
542.57	5803.9	
542.76	6186.9	
542.96	6850.5	
543.15	7430.7	
543.35	5829.9	
543.54	5337	
543.74	7630	
543.93	7362.4	
544.13	5902.9	
544.32	6752.8	
544.52	7587.7	
544.71	6945.3	
544.91	5072.1	
545.1	6081.8	
545.3	6868.9	
545.49	7551.5	
545.69	5130.2	
545.88	5636	
546.08	8262.2	
546.27	7847.8	
546.47	6023.8	
546.66	5444.9	
546.86	7685.3	
547.05	8155	
547.24	5611.4	
547.44	5470.1	
547.63	6802	
547.83	7748.1	
548.02	5804.6	
548.22	5972.6	
548.41	6699.6	
548.61	7838.3	
548.8	5515.9	
549	5388.9	
549.19	7343.3	
549.39	7619.1	
549.58	5278.3	
549.78	5692.7	
549.97	7542.7	
550.17	7181.5	
550.36	6442.9	
550.55	7198.6	
550.75	7142.6	
550.94	7940.7	
551.14	5430.5	
551.33	5692.7	
551.53	6654.5	
551.72	7441.6	
551.92	5728.2	
552.11	5483.1	
552.31	7510.6	
552.5	7514.7	
552.69	6961	
552.89	5183.4	
553.08	7479.9	
553.28	7230	
553.47	5627.1	
553.67	6539.8	
553.86	7934.5	
554.06	6539.2	
554.25	4997	
554.44	5409.4	
554.64	8609.7	
554.83	8234.2	
555.03	5398.4	
555.22	5696.8	
555.42	7677.2	
555.61	7364.5	
555.8	5560.2	
556	5784.1	
556.19	6733.7	
556.39	7709.9	
556.58	5599.1	
556.78	5611.4	
556.97	7339.9	
557.16	7043	
557.36	6536.4	
557.55	5287.9	
557.75	6477	
557.94	8000.7	
558.13	5401.2	
558.33	5182.7	
558.52	7787.1	
558.72	6804.7	
558.91	5356.1	
559.1	5452.4	
559.3	6598.6	
559.49	6431.3	
559.69	4924	
559.88	5739.1	
560.07	7270.3	
560.27	7630	
560.46	5943.9	
560.66	6101.6	
560.85	7136.5	
561.04	6485.2	
561.24	5280.3	
561.43	5507	
561.63	6644.3	
561.82	6961.7	
562.01	6468.9	
562.21	5698.1	
562.4	7323.5	
562.59	7983	
562.79	5518.6	
562.98	5275.6	
563.18	7193.8	
563.37	8402.1	
563.56	5956.9	
563.76	5219.6	
563.95	6775.4	
564.14	6717.3	
564.34	5512.4	
564.53	5313.1	
564.73	7195.2	
564.92	7391.8	
565.11	5677.7	
565.31	5126.7	
565.5	7703.8	
565.69	6777.4	
565.89	5440.8	
566.08	5565	
566.27	7593.9	
566.47	7914	
566.66	6072.9	
566.85	4977.9	
567.05	7197.9	
567.24	6735.8	
567.44	5300.1	
567.63	6376	
567.82	7454.6	
568.02	7154.2	
568.21	5259.2	
568.4	5595.7	
568.6	7058.7	
568.79	7028.6	
568.98	5104.9	
569.18	5229.8	
569.37	7072.3	
569.56	8706.6	
569.76	5584.1	
569.95	6310.5	
570.14	7407.5	
570.34	7159	
570.53	5221	
570.72	5163.6	
570.91	7742.7	
571.11	7021.8	
571.3	5610.8	
571.49	6377.4	
571.69	7129	
571.88	6723.5	
572.07	5995.1	
572.27	5967.1	
572.46	6722.1	
572.65	7537.9	
572.85	5350	
573.04	5629.2	
573.23	7655.3	
573.43	7064.1	
573.62	5224.4	
573.81	5685.8	
574	7142.6	
574.2	6944	
574.39	5483.1	
574.58	5574.6	
574.78	7723.6	
574.97	7165.2	
575.16	5816.2	
575.36	6012.2	
575.55	7484.6	
575.74	7596.6	
575.93	5135.6	
576.13	5980.1	
576.32	6997.9	
576.51	7499.7	
576.71	5432.6	
576.9	6573.3	
577.09	7783	
577.28	7326.9	
577.48	5865.4	
577.67	5027.8	
577.86	7095.5	
578.05	7301.7	
578.25	5559.6	
578.44	5647.6	
578.63	7210.2	
578.83	8165.3	
579.02	5169.8	
579.21	6384.9	
579.4	7267.6	
579.6	7019.8	
579.79	5731.6	
579.98	7536.5	
580.17	7568.6	
580.37	7693.5	
580.56	5313.1	
580.75	5889.3	
580.94	7944.1	
581.14	7886	
581.33	6263.4	
581.52	5371.1	
581.71	7511.3	
581.91	8045.1	
582.1	5111	
582.29	5585.5	
582.48	7098.3	
582.68	7191.1	
582.87	5973.9	
583.06	5701.5	
583.25	7397.3	
583.45	6860.7	
583.64	6293.4	
583.83	6776	
584.02	7117.4	
584.21	7468.9	
584.41	6282.5	
584.6	5677	
584.79	7101.7	
584.98	7730.4	
585.18	5236	
585.37	5221.6	
585.56	6876.4	
585.75	7465.5	
585.94	5489.9	
586.14	5988.9	
586.33	7984.3	
586.52	7133.1	
586.71	5873.6	
586.91	5643.5	
587.1	6668.2	
587.29	7565.9	
587.48	5595.1	
587.67	5476.3	
587.87	7427.3	
588.06	7447.8	
588.25	6572.6	
588.44	6017.6	
588.63	7183.6	
588.83	7562.5	
589.02	5634	
589.21	5540.4	
589.4	7125.6	
589.59	7026.6	
589.78	5066	
589.98	5287.9	
590.17	6718.7	
590.36	7155.6	
590.55	4739.7	
590.74	5501.5	
590.94	8170	
591.13	7047.1	
591.32	5218.2	
591.51	4840.7	
591.7	7341.3	
591.89	6896.9	
592.09	4810	
592.28	5335	
592.47	6303.6	
592.66	7897.7	
592.85	4845.5	
593.05	5083.1	
593.24	6860	
593.43	7558.4	
593.62	5150.6	
593.81	5537.7	
594	6919.4	
594.19	7068.9	
594.39	5035.3	
594.58	5044.1	
594.77	7185.6	
594.96	7685.3	
595.15	5016.8	
595.34	5535.7	
595.54	7157	
595.73	6475	
595.92	4535.6	
596.11	5465.3	
596.3	7613.7	
596.49	6516.6	
596.68	5317.9	
596.88	5584.1	
597.07	7356.3	
597.26	6359.6	
597.45	4884.4	
597.64	5969.8	
597.83	6602	
598.02	7064.8	
598.22	5002.5	
598.41	5517.2	
598.6	6975.4	
598.79	6489.3	
598.98	4988.2	
599.17	5781.4	
599.36	6965.1	
599.55	7879.9	
599.74	6640.9	
599.94	6492.7	
600.13	7391.1	
600.32	6455.9	
600.51	4801.8	
600.7	4913.1	
600.89	7961.8	
601.08	7933.8	
601.27	4797	
601.47	5530.2	
601.66	7281.9	
601.85	7823.2	
602.04	5278.3	
602.23	5504.3	
602.42	6579.4	
602.61	7100.3	
602.8	5155.4	
602.99	5061.2	
603.18	6829.3	
603.37	7053.2	
603.57	5534.3	
603.76	5995.1	
603.95	7739.3	
604.14	7331.7	
604.33	5091.3	
604.52	5410.7	
604.71	6966.5	
604.9	6701.6	
605.09	5928.9	
605.28	5733.6	
605.47	7464.2	
605.66	7166.5	
605.86	5616.9	
606.05	5090.6	
606.24	7495.6	
606.43	6300.9	
606.62	5425.1	
606.81	5959.6	
607	7342.7	
607.19	6763.8	
607.38	4900.8	
607.57	5081.7	
607.76	6610.8	
607.95	6235.4	
608.14	5511.8	
608.33	5982.8	
608.52	6642.2	
608.72	7417.1	
608.91	4881.7	
609.1	4803.2	
609.29	6711.2	
609.48	6349.4	
609.67	5606.7	
609.86	4837.3	
610.05	6497.5	
610.24	6654.5	
610.43	4747.2	
610.62	4382.7	
610.81	7628.7	
611	7333.1	
611.19	4819.6	
611.38	5455.1	
611.57	6961.7	
611.76	7991.2	
611.95	4709	
612.14	4571.7	
612.33	6782.9	
612.52	6457.9	
612.71	5112.4	
612.9	4468.7	
613.09	6102.3	
613.28	8016.4	
613.47	5041.4	
613.66	5706.3	
613.85	6852.5	
614.04	6457.9	
614.24	4989.5	
614.43	4332.8	
614.62	7004.7	
614.81	6988.4	
615	5421	
615.19	5384.1	
615.38	6410.1	
615.57	6651.8	
615.76	5359.5	
615.95	6059.9	
616.14	7000.6	
616.33	6772.6	
616.52	5531.6	
616.71	5741.8	
616.9	6949.4	
617.09	6780.8	
617.28	5059.8	
617.47	5975.3	
617.66	6173.3	
617.85	6211.5	
618.04	5694	
618.22	5277.6	
618.41	6453.8	
618.6	7221.8	
618.79	5208.7	
618.98	4943.1	
619.17	7451.2	
619.36	6024.4	
619.55	5133.6	
619.74	5128.8	
619.93	6781.5	
620.12	6367.8	
620.31	5530.9	
620.5	5666	
620.69	7569.3	
620.88	7666.2	
621.07	6275.7	
621.26	5446.2	
621.45	6995.9	
621.64	6937.2	
621.83	5549.3	
622.02	4887.8	
622.21	7052.5	
622.4	6918	
622.59	5971.2	
622.78	5812.1	
622.97	6528.9	
623.16	7368.6	
623.35	5503.6	
623.54	4820.2	
623.72	6679.8	
623.91	6733.7	
624.1	5694.7	
624.29	4605.2	
624.48	7580.9	
624.67	7033.4	
624.86	5621	
625.05	4833.2	
625.24	7782.3	
625.43	6450.4	
625.62	6999.3	
625.81	4998.4	
626	7266.9	
626.19	6662.7	
626.38	5585.5	
626.56	5199.1	
626.75	6569.9	
626.94	7122.8	
627.13	5689.9	
627.32	4673.5	
627.51	7143.3	
627.7	8071.7	
627.89	4790.9	
628.08	5698.1	
628.27	6518.7	
628.46	6684.6	
628.65	4965.6	
628.83	4672.8	
629.02	7068.2	
629.21	6423.1	
629.4	5322	
629.59	5527.5	
629.78	6447	
629.97	7203.4	
630.16	5519.3	
630.35	5091.3	
630.54	7656	
630.72	7311.2	
630.91	5133.6	
631.1	5524.7	
631.29	6827.9	
631.48	7014.3	
631.67	5655.1	
631.86	5157.5	
632.05	6617	
632.24	6677.1	
632.42	4855.7	
632.61	5393	
632.8	6629.3	
632.99	6361.7	
633.18	5369.8	
633.37	5768.4	
633.56	6877.1	
633.75	6778.1	
633.93	5433.3	
634.12	5124.7	
634.31	7589.8	
634.5	7292.1	
634.69	5113.8	
634.88	5626.5	
635.07	6662	
635.25	7185	
635.44	5864.7	
635.63	6034.7	
635.82	6583.5	
636.01	6184.9	
636.2	5881.1	
636.39	5483.8	
636.57	7528.3	
636.76	7243	
636.95	5033.9	
637.14	6075.6	
637.33	7083.9	
637.52	7652.6	
637.7	4853.7	
637.89	5672.9	
638.08	6648.4	
638.27	7789.1	
638.46	5705	
638.65	6004.6	
638.83	7823.2	
639.02	6606.7	
639.21	5627.1	
639.4	6019.7	
639.59	6891.4	
639.78	6584.2	
639.96	4981.3	
640.15	5122	
640.34	6864.8	
640.53	6887.3	
640.72	4900.1	
640.91	5178.6	
641.09	6387.6	
641.28	7449.1	
641.47	5112.4	
641.66	5752.1	
641.85	6872.3	
642.03	7047.1	
642.22	5543.2	
642.41	5223	
642.6	6474.3	
642.79	5935.7	
642.97	5025	
643.16	5585.5	
643.35	6378.7	
643.54	6240.2	
643.73	4975.2	
643.91	5691.3	
644.1	6229.9	
644.29	6702.3	
644.48	5066	
644.67	5145.9	
644.85	6318	
645.04	6686.6	
645.23	4775.9	
645.42	4999.8	
645.6	6327.5	
645.79	7227.3	
645.98	5027.1	
646.17	4216.1	
646.36	6100.9	
646.54	6612.2	
646.73	5724.1	
646.92	4701.5	
647.11	6330.3	
647.29	7184.3	
647.48	4831.2	
647.67	4592.9	
647.86	7388.4	
648.05	7363.8	
648.23	5044.1	
648.42	6073.6	
648.61	6780.1	
648.8	6559	
648.98	4787.5	
649.17	4977.2	
649.36	6266.1	
649.55	5824.4	
649.73	4828.4	
649.92	5372.5	
650.11	6152.8	
650.3	6469.5	
650.48	4902.8	
650.67	4859.8	
650.86	6729.6	
651.05	5778	
651.23	4835.3	
651.42	4801.1	
651.61	6300.2	
651.79	6324.8	
651.98	5037.3	
652.17	4729.4	
652.36	6648.4	
652.54	5873.6	
652.73	4756.1	
652.92	4632.5	
653.11	6675	
653.29	6687.3	
653.48	4214	
653.67	4999.1	
653.85	6463.4	
654.04	7359	
654.23	5184.8	
654.42	4830.5	
654.6	6174.6	
654.79	6670.2	
654.98	4530.1	
655.16	4934.2	
655.35	5886.5	
655.54	5702.9	
655.73	4540.3	
655.91	4367.6	
656.1	6574	
656.29	5646.2	
656.47	4032.5	
656.66	5439.4	
656.85	5939.1	
657.03	5946.6	
657.22	4408.6	
657.41	4549.2	
657.59	6074.3	
657.78	5855.1	
657.97	4255.7	
658.16	4803.9	
658.34	6591	
658.53	6944	
658.72	5606.7	
658.9	5992.4	
659.09	6171.2	
659.28	6133	
659.46	4638.6	
659.65	4596.3	
659.84	5935.7	
660.02	6427.9	
660.21	4481.6	
660.4	4469.4	
660.58	6694.1	
660.77	6195.8	
660.96	4993.6	
661.14	4221.5	
661.33	7168.6	
661.52	7012.2	
661.7	4111.6	
661.89	7057.3	
662.08	5915.2	
662.26	5543.2	
662.45	4410.6	
662.64	4565.6	
662.82	6534.4	
663.01	5782.8	
663.2	4496.7	
663.38	5122.7	
663.57	6352.8	
663.75	6318	
663.94	4803.2	
664.13	5876.3	
664.31	5866.7	
664.5	6482.5	
664.69	5045.5	
664.87	5382.7	
665.06	5698.1	
665.25	6263.4	
665.43	5613.5	
665.62	5660.6	
665.8	6488.6	
665.99	5968.5	
666.18	4761.5	
666.36	4844.1	
666.55	6507.8	
666.74	6438.1	
666.92	4495.3	
667.11	5840.1	
667.29	6005.3	
667.48	6549.4	
667.67	5482.4	
667.85	4616.8	
668.04	6081.8	
668.22	6001.2	
668.41	4869.4	
668.6	4999.8	
668.78	5883.1	
668.97	6028.5	
669.15	5115.1	
669.34	4265.2	
669.53	5856.5	
669.71	6115.9	
669.9	4435.2	
670.08	4963.6	
670.27	5795.1	
670.46	6378.1	
670.64	5158.8	
670.83	5352	
671.01	5726.8	
671.2	6252.4	
671.38	4466.6	
671.57	4422.9	
671.76	6784.2	
671.94	7259.4	
672.13	4313	
672.31	5204.6	
672.5	6455.2	
672.69	5885.2	
672.87	4451.6	
673.06	4698	
673.24	6375.3	
673.43	5911.1	
673.61	5115.8	
673.8	4730.1	
673.98	6439.5	
674.17	6499.6	
674.36	5268.1	
674.54	5116.5	
674.73	6265.4	
674.91	6456.6	
675.1	4778.6	
675.28	4513	
675.47	6045.6	
675.65	6519.4	
675.84	4666	
676.03	5002.5	
676.21	5876.3	
676.4	5468.8	
676.58	5381.4	
676.77	5151.3	
676.95	7073	
677.14	5887.9	
677.32	4491.9	
677.51	4332.1	
677.69	6510.5	
677.88	5646.2	
678.06	4366.3	
678.25	4515.1	
678.44	6017.6	
678.62	5829.9	
678.81	4298	
678.99	5023.7	
679.18	6679.8	
679.36	6308.4	
679.55	4646.8	
679.73	5218.2	
679.92	6294.1	
680.1	5916.6	
680.29	5682.4	
680.47	4703.5	
680.66	5859.9	
680.84	6450.4	
681.03	4079.6	
681.21	5109.7	
681.4	5870.2	
681.58	5792.3	
681.77	4504.8	
681.95	4474.1	
682.14	6621.8	
682.32	6800.6	
682.51	5201.8	
682.69	4263.2	
682.88	5811.5	
683.06	6317.3	
683.25	4956.1	
683.43	5374.6	
683.62	6111.8	
683.8	6421.7	
683.99	5480.4	
684.17	4878.9	
684.36	7136.5	
684.54	6105.7	
684.73	4290.5	
684.91	4483	
685.1	6365.8	
685.28	5907	
685.46	4990.2	
685.65	4961.5	
685.83	6511.2	
686.02	5995.8	
686.2	4453	
686.39	4612.7	
686.57	5633.3	
686.76	6949.4	
686.94	4430.4	
687.13	4612.7	
687.31	6341.2	
687.5	5998.5	
687.68	4138.3	
687.86	5183.4	
688.05	7392.5	
688.23	5528.2	
688.42	5229.8	
688.6	4533.5	
688.79	5912.5	
688.97	5890.6	
689.16	4857.1	
689.34	3974.4	
689.52	6382.2	
689.71	6696.9	
689.89	5063.9	
690.08	4545.8	
690.26	6165.1	
690.45	5945.9	
690.63	5241.4	
690.81	4672.1	
691	5945.3	
691.18	5831.9	
691.37	4818.2	
691.55	6537.8	
691.74	5735.7	
691.92	7475.1	
692.1	4825	
692.29	4296	
692.47	5958.9	
692.66	5425.1	
692.84	4456.4	
693.02	4917.2	
693.21	5479.7	
693.39	5856.5	
693.58	5064.6	
693.76	4489.8	
693.94	6849.1	
694.13	6671.6	
694.31	4444.8	
694.5	5295.4	
694.68	5670.8	
694.86	6016.2	
695.05	4743.1	
695.23	4813.4	
695.42	6352.1	
695.6	8168	
695.78	5298.8	
695.97	4517.8	
696.15	6426.5	
696.34	5909.8	
696.52	4375.8	
696.7	5083.1	
696.89	6188.3	
697.07	5760.9	
697.25	5003.9	
697.44	6210.8	
697.62	6145.3	
697.81	6405.4	
697.99	4733.5	
698.17	5129.5	
698.36	5697.4	
698.54	6172.6	
698.72	5106.3	
698.91	4236.6	
699.09	5926.1	
699.28	5725.4	
699.46	4738.3	
699.64	4661.9	
699.83	5759.6	
700.01	6652.5	
700.19	5337	
700.38	3939.6	
700.56	6623.1	
700.74	5791.7	
700.93	4311.7	
701.11	4988.9	
701.29	6266.8	
701.48	7027.9	
701.66	4421.6	
701.84	4496.7	
702.03	5887.2	
702.21	6418.3	
702.39	4199	
702.58	4685.1	
702.76	6198.5	
702.94	6320.7	
703.13	4182.6	
703.31	6149.4	
703.49	5634.6	
703.68	6466.8	
703.86	4342.4	
704.04	5059.8	
704.23	6083.8	
704.41	6339.8	
704.59	4500.1	
704.78	5481	
704.96	7067.5	
705.14	6413.6	
705.33	4302.8	
705.51	4866.7	
705.69	5943.2	
705.87	6545.3	
706.06	5072.1	
706.24	4269.3	
706.42	6228.6	
706.61	6381.5	
706.79	5169.1	
706.97	4235.2	
707.16	5727.5	
707.34	6180.1	
707.52	5158.8	
707.7	4457.7	
707.89	5786.2	
708.07	5578	
708.25	5180	
708.44	5281	
708.62	5741.1	
708.8	6669.6	
708.98	5364.3	
709.17	4509.6	
709.35	6105	
709.53	6116.6	
709.72	4277.5	
709.9	4641.4	
710.08	6343.2	
710.26	6414.2	
710.45	5623.7	
710.63	4501.4	
710.81	6038.1	
710.99	6081.1	
711.18	5053.7	
711.36	4633.9	
711.54	5904.3	
711.72	6526.2	
711.91	4782	
712.09	4313	
712.27	6093.4	
712.45	6588.3	
712.64	4985.4	
712.82	4141.7	
713	5666	
713.18	5855.8	
713.37	4244.8	
713.55	5325.4	
713.73	6597.9	
713.91	5450.3	
714.1	4686.4	
714.28	4267.3	
714.46	6348	
714.64	5684.5	
714.83	3751.9	
715.01	4466.6	
715.19	5771.9	
715.37	5206.6	
715.55	4188.8	
715.74	4405.9	
715.92	6485.9	
716.1	4767	
716.28	5347.9	
716.47	4527.4	
716.65	5480.4	
716.83	5520.6	
717.01	4444.8	
717.19	4461.8	
717.38	7206.1	
717.56	5212.8	
717.74	4613.4	
717.92	3852.9	
718.1	6118.6	
718.29	5487.9	
718.47	3596.9	
718.65	4093.2	
718.83	6100.9	
719.01	5986.9	
719.2	3469.9	
719.38	4361.5	
719.56	5752.1	
719.74	7055.3	
719.92	4046.1	
720.11	4955.4	
720.29	5894.7	
720.47	5150.6	
720.65	3714.3	
720.83	4444.8	
721.02	5487.2	
721.2	5264.6	
721.38	4533.5	
721.56	3889.8	
721.74	4875.5	
721.92	4924.7	
722.11	4915.1	
722.29	4689.2	
722.47	6048.3	
722.65	5345.9	
722.83	3880.9	
723.01	4640	
723.2	5373.9	
723.38	5639.4	
723.56	3419.4	
723.74	4375.8	
723.92	5039.4	
724.1	5928.9	
724.29	3778.5	
724.47	4800.4	
724.65	5098.1	
724.83	4941.1	
725.01	3743	
725.19	4432.5	
725.37	5080.3	
725.56	5029.1	
725.74	3616.7	
725.92	3763.5	
726.1	4988.2	
726.28	5276.3	
726.46	4194.2	
726.64	3900	
726.83	5270.8	
727.01	5415.5	
727.19	3570.3	
727.37	4285.7	
727.55	5344.5	
727.73	5737	
727.91	3573	
728.09	3433.1	
728.28	5750.7	
728.46	6023.8	
728.64	4302.8	
728.82	4280.9	
729	6522.8	
729.18	5980.8	
729.36	3605.1	
729.54	5543.2	
729.72	6782.9	
729.91	5373.2	
730.09	5199.1	
730.27	4143.7	
730.45	5266.7	
730.63	5773.9	
730.81	4595.6	
730.99	3793.5	
731.17	6262.7	
731.35	5011.4	
731.53	4234.5	
731.71	3941.7	
731.9	5999.2	
732.08	6125.5	
732.26	4162.8	
732.44	3929.4	
732.62	6201.2	
732.8	5806.7	
732.98	4562.2	
733.16	3699.3	
733.34	5836	
733.52	4730.8	
733.7	4191.5	
733.88	4342.4	
734.07	5608.7	
734.25	5358.2	
734.43	3652.2	
734.61	4992.9	
734.79	6617	
734.97	5308.3	
735.15	3793.5	
735.33	4079.6	
735.51	5646.2	
735.69	5251.7	
735.87	4944.5	
736.05	4289.1	
736.23	5443.5	
736.41	5231.9	
736.59	4100.7	
736.77	4176.5	
736.95	5790.3	
737.13	5354.8	
737.32	3764.2	
737.5	3974.4	
737.68	6223.1	
737.86	5190.9	
738.04	3633.8	
738.22	5245.5	
738.4	5159.5	
738.58	5384.1	
738.76	4201.1	
738.94	3351.2	
739.12	5233.9	
739.3	5116.5	
739.48	4596.3	
739.66	4383.3	
739.84	5374.6	
740.02	5319.9	
740.2	3370.3	
740.38	3672.7	
740.56	5647.6	
740.74	4719.2	
740.92	4179.2	
741.1	4106.9	
741.28	5242.1	
741.46	5061.9	
741.64	3829	
741.82	4285.7	
742	5279.7	
742.18	5162.2	
742.36	4037.2	
742.54	3661.8	
742.72	5784.1	
742.9	4618.9	
743.08	4297.3	
743.26	3300.6	
743.44	5872.2	
743.62	5718.6	
743.8	4442.7	
743.98	3667.9	
744.16	5526.8	
744.34	5268.1	
744.52	4332.1	
744.7	4309.6	
744.88	5629.9	
745.06	5240.1	
745.24	4440.7	
745.42	4488.5	
745.6	5705	
745.78	5601.9	
745.96	3491.8	
746.14	3688.4	
746.32	6395.8	
746.5	5679.7	
746.68	4219.5	
746.86	3727.3	
747.03	6022.4	
747.21	4671.4	
747.39	4225.6	
747.57	3726.6	
747.75	5332.9	
747.93	5704.3	
748.11	3691.8	
748.29	3669.3	
748.47	6688	
748.65	5152.7	
748.83	4355.3	
749.01	4090.5	
749.19	5492.7	
749.37	4840	
749.55	4032.5	
749.73	4037.9	
749.91	5300.1	
750.09	5055.8	
750.26	4049.5	
750.44	3532.7	
750.62	5281	
750.8	5230.5	
750.98	3465.2	
751.16	3733.4	
751.34	5376.6	
751.52	4788.2	
751.7	4391.5	
751.88	3394.2	
752.06	5730.2	
752.24	5496.1	
752.42	3420.8	
752.59	3719.8	
752.77	5258.5	
752.95	6223.8	
753.13	4347.8	
753.31	3818.8	
753.49	5025.7	
753.67	5389.6	
753.85	4068.6	
754.03	3706.8	
754.21	5599.8	
754.38	5885.2	
754.56	3913.7	
754.74	3095.2	
754.92	4995	
755.1	5588.9	
755.28	3165.5	
755.46	3271.3	
755.64	6395.8	
755.82	6486.6	
755.99	3569.6	
756.17	3725.9	
756.35	4477.5	
756.53	5771.2	
756.71	2828.2	
756.89	3510.9	
757.07	5412.8	
757.25	4657.8	
757.42	4063.2	
757.6	4688.5	
757.78	5414.8	
757.96	4585.4	
758.14	3675.4	
758.32	3294.5	
758.5	4180.6	
758.67	4938.3	
758.85	3599.6	
759.03	3704.1	
759.21	5003.9	
759.39	4553.3	
759.57	3201	
759.75	4167.6	
759.92	5636	
760.1	5072.8	
760.28	4386.7	
760.46	4652.3	
760.64	4767	
760.82	4571.1	
760.99	4085.7	
761.17	3615.3	
761.35	5465.3	
761.53	4530.1	
761.71	3670	
761.89	4272.7	
762.06	5339.7	
762.24	4889.9	
762.42	3699.3	
762.6	3499.3	
762.78	4842.8	
762.96	5419.6	
763.13	3984	
763.31	3721.8	
763.49	5488.6	
763.67	4783.4	
763.85	4412.7	
764.02	4845.5	
764.2	5761.6	
764.38	4991.6	
764.56	3599	
764.74	4356.7	
764.91	5814.9	
765.09	4892.6	
765.27	3311.6	
765.45	3154.6	
765.63	5881.8	
765.8	5728.9	
765.98	3026.2	
766.16	3289	
766.34	4581.3	
766.52	4388.8	
766.69	4113	
766.87	3148.4	
767.05	4950.6	
767.23	5550.7	
767.41	3429	
767.58	3670	
767.76	5421	
767.94	5476.3	
768.12	3539.6	
768.29	4157.4	
768.47	4970.4	
768.65	5619.6	
768.83	3153.9	
769	4198.3	
769.18	4632.5	
769.36	5229.8	
769.54	4170.3	
769.72	3254.9	
769.89	5523.4	
770.07	5571.2	
770.25	3548.4	
770.43	4617.5	
770.6	6167.1	
770.78	6434.7	
770.96	3700.7	
771.14	4246.8	
771.31	5484.5	
771.49	4895.3	
771.67	3035.8	
771.85	3250.8	
772.02	4241.3	
772.2	4959.5	
772.38	3858.4	
772.55	3431.7	
772.73	5137.7	
772.91	5036	
773.09	3734.8	
773.26	3824.9	
773.44	5188.9	
773.62	4921.3	
773.8	3326.6	
773.97	3162.7	
774.15	5159.5	
774.33	4880.3	
774.5	3295.9	
774.68	3559.4	
774.86	5255.8	
775.04	4907.6	
775.21	3355.9	
775.39	3330.7	
775.57	5168.4	
775.74	5477.6	
775.92	3232.4	
776.1	3179.1	
776.27	5126.7	
776.45	6153.5	
776.63	3375.1	
776.81	3009.1	
776.98	4819.6	
777.16	5691.3	
777.34	3543.7	
777.51	3820.8	
777.69	4834.6	
777.87	4623.6	
778.04	3579.8	
778.22	4027.7	
778.4	4708.3	
778.57	5276.3	
778.75	2978.4	
778.93	3206.4	
779.1	4536.9	
779.28	4425	
779.46	3003.7	
779.64	3385.3	
779.81	5384.8	
779.99	6049	
780.17	4035.9	
780.34	4161.5	
780.52	4934.9	
780.69	5082.4	
780.87	3697.3	
781.05	3293.8	
781.22	4971.8	
781.4	5016.8	
781.58	3442.6	
781.75	2681.5	
781.93	5059.2	
782.11	4518.5	
782.28	4201.7	
782.46	3464.5	
782.64	4371	
782.81	5159.5	
782.99	3515	
783.17	3476.1	
783.34	5084.4	
783.52	4490.5	
783.69	3629	
783.87	4357.4	
784.05	4575.2	
784.22	4535.6	
784.4	4269.3	
784.58	3766.2	
784.75	5293.3	
784.93	4581.3	
785.1	3521.1	
785.28	3941.7	
785.46	5086.5	
785.63	4528.7	
785.81	3424.2	
785.99	3315.7	
786.16	4747.9	
786.34	5101.5	
786.51	3355.3	
786.69	3689.1	
786.87	4323.9	
787.04	4797.7	
787.22	3238.5	
787.39	4029.7	
787.57	4554	
787.75	5500.2	
787.92	4233.8	
788.1	4160.8	
788.27	4579.9	
788.45	4330.8	
788.63	3879.5	
788.8	2863.1	
788.98	5010.7	
789.15	4283	
789.33	2988.7	
789.5	3477.5	
789.68	5358.9	
789.86	5421.7	
790.03	3863.2	
790.21	3383.2	
790.38	5422.3	
790.56	4700.1	
790.73	3280.2	
790.91	3276.1	
791.09	4597.7	
791.26	5225.7	
791.44	3532.7	
791.61	3011.9	
791.79	4595	
791.96	4653	
792.14	3174.4	
792.32	2781.1	
792.49	4572.4	
792.67	4704.9	
792.84	3211.2	
793.02	3026.2	
793.19	4969.7	
793.37	5567.7	
793.54	2787.3	
793.72	3095.8	
793.89	5634.6	
794.07	4598.4	
794.25	3478.1	
794.42	2859.6	
794.6	5435.3	
794.77	5151.3	
794.95	3848.8	
795.12	3360	
795.3	4553.3	
795.47	5115.8	
795.65	3702.7	
795.82	3537.5	
796	4425.7	
796.17	6029.2	
796.35	3458.3	
796.52	4009.9	
796.7	5122.7	
796.87	5175.9	
797.05	3408.5	
797.22	4207.9	
797.4	5113.8	
797.57	5993	
797.75	3577.1	
797.92	3349.8	
798.1	5355.4	
798.27	4542.4	
798.45	2906.1	
798.62	3079.5	
798.8	4905.6	
798.97	5270.1	
799.15	3738.2	
799.32	3622.2	
799.5	4259.1	
799.67	4863.9	
799.85	3855	
800.02	2824.1	
800.2	4514.4	
800.37	4832.5	
800.55	3919.1	
800.72	3332.7	
800.9	5237.3	
801.07	5582.1	
801.25	4459.1	
801.42	3644	
801.6	5257.1	
801.77	4955.4	
801.95	3387.3	
802.12	3272.7	
802.29	5055.1	
802.47	4973.2	
802.64	3663.1	
802.82	2775	
802.99	4562.2	
803.17	5347.9	
803.34	3487.7	
803.52	3234.4	
803.69	5934.3	
803.87	4287.1	
804.04	3528.7	
804.21	3631.7	
804.39	5563.6	
804.56	4724	
804.74	3029.6	
804.91	3687	
805.09	4571.1	
805.26	4664.6	
805.44	3100.6	
805.61	3430.3	
805.78	5190.9	
805.96	5212.8	
806.13	3685.7	
806.31	4014.7	
806.48	4212	
806.66	4674.1	
806.83	3695.9	
807	3609.2	
807.18	4556	
807.35	4972.5	
807.53	3627	
807.7	2932	
807.87	5541.1	
808.05	4642.7	
808.22	3900	
808.4	2955.2	
808.57	4625.7	
808.74	4317.1	
808.92	3366.9	
809.09	4130.1	
809.27	4586.1	
809.44	5061.2	
809.61	2926.5	
809.79	3259	
809.96	5663.3	
810.14	5275.6	
810.31	2853.5	
810.48	3495.9	
810.66	4734.9	
810.83	5296	
811.01	3326.6	
811.18	3618.8	
811.35	5272.8	
811.53	4144.4	
811.7	3985.3	
811.87	3734.1	
812.05	4683.7	
812.22	4574.5	
812.39	3178.4	
812.57	3127.9	
812.74	4735.6	
812.92	6037.4	
813.09	3465.2	
813.26	3784	
813.44	5803.3	
813.61	4570.4	
813.78	2959.3	
813.96	3841.3	
814.13	4619.5	
814.3	4427.7	
814.48	4153.3	
814.65	3433.8	
814.82	5602.6	
815	4442	
815.17	3533.4	
815.34	4282.3	
815.52	4592.9	
815.69	4555.4	
815.87	3485	
816.04	3437.2	
816.21	4638.6	
816.38	4147.1	
816.56	3382.6	
816.73	3216	
816.9	5827.2	
817.08	5237.3	
817.25	3303.4	
817.42	4027.7	
817.6	4246.1	
817.77	4629.8	
817.94	3632.4	
818.12	3185.3	
818.29	4445.5	
818.46	6627.2	
818.64	3361.4	
818.81	3099.9	
818.98	4421.6	
819.16	6144.6	
819.33	3801	
819.5	3582.6	
819.67	4986.1	
819.85	5545.9	
820.02	3527.3	
820.19	3670	
820.37	4871.4	
820.54	4492.6	
820.71	3624.9	
820.88	4375.1	
821.06	4801.8	
821.23	4485.7	
821.4	3676.1	
821.58	3540.3	
821.75	5254.4	
821.92	4779.3	
822.09	2929.3	
822.27	3183.2	
822.44	4629.1	
822.61	4541.7	
822.79	2992.8	
822.96	5489.9	
823.13	5022.3	
823.3	4370.4	
823.48	3411.2	
823.65	3070.6	
823.82	5285.8	
823.99	4310.3	
824.17	4279.6	
824.34	3134.8	
824.51	5953.4	
824.68	4758.8	
824.86	3274	
825.03	3588.7	
825.2	4611.3	
825.37	5591.6	
825.55	3231.7	
825.72	3551.2	
825.89	5995.8	
826.06	5616.2	
826.24	3477.5	
826.41	3566.9	
826.58	5578.7	
826.75	4883	
826.92	2789.3	
827.1	3106.1	
827.27	7417.1	
827.44	5989.6	
827.61	3318.4	
827.79	3908.9	
827.96	4416.1	
828.13	4685.1	
828.3	3488.4	
828.47	2977.7	
828.65	4954.7	
828.82	4827.7	
828.99	4336.2	
829.16	3849.5	
829.34	5240.1	
829.51	5020.9	
829.68	3543	
829.85	3639.9	
830.02	5466.7	
830.2	5194.3	
830.37	2846.7	
830.54	4224.3	
830.71	5887.9	
830.88	4692.6	
831.05	2843.9	
831.23	3239.9	
831.4	5670.1	
831.57	6260	
831.74	3338.2	
831.91	2895.8	
832.09	4915.1	
832.26	5253	
832.43	3378.5	
832.6	3816	
832.77	4906.3	
832.94	5496.7	
833.12	2769.5	
833.29	3340.2	
833.46	4560.8	
833.63	6417.7	
833.8	3705.5	
833.97	3394.8	
834.15	5238	
834.32	5044.1	
834.49	3537.5	
834.66	3645.4	
834.83	5353.4	
835	4471.4	
835.17	3291.1	
835.35	3248.1	
835.52	5148.6	
835.69	4998.4	
835.86	3487	
836.03	2864.4	
836.2	5180	
836.37	4827.7	
836.55	3392.8	
836.72	3182.5	
836.89	4831.8	
837.06	5273.5	
837.23	3515	
837.4	3737.5	
837.57	5872.9	
837.75	6391.7	
837.92	3127.9	
838.09	3310.9	
838.26	4790.2	
838.43	5425.1	
838.6	3558	
838.77	3248.1	
838.94	6145.3	
839.11	5853.1	
839.29	3423.5	
839.46	2710.1	
839.63	5276.3	
839.8	4976.6	
839.97	3282.2	
840.14	3282.9	
840.31	5030.5	
840.48	5259.2	
840.65	2816	
840.82	3276.7	
841	5179.3	
841.17	5039.4	
841.34	3067.9	
841.51	3065.1	
841.68	5104.2	
841.85	4910.3	
842.02	3200.3	
842.19	2652.8	
842.36	4996.4	
842.53	4996.4	
842.7	3058.3	
842.87	3753.2	
843.05	6351.4	
843.22	4922.6	
843.39	2930	
843.56	3107.5	
843.73	4762.2	
843.9	5272.2	
844.07	4880.3	
844.24	4041.3	
844.41	7320.1	
844.58	4538.3	
844.75	2918.4	
844.92	3183.2	
845.09	5168.4	
845.26	5197.1	
845.43	3047.4	
845.6	3175.7	
845.77	5218.9	
845.94	4919.2	
846.12	3341.6	
846.29	3552.5	
846.46	5432.6	
846.63	5177.3	
846.8	3074	
846.97	3587.4	
847.14	5604.6	
847.31	5143.1	
847.48	3402.4	
847.65	3716.4	
847.82	5399.8	
847.99	5338.4	
848.16	4042	
848.33	3710.2	
848.5	4833.9	
848.67	5631.9	
848.84	3042.6	
849.01	3190.7	
849.18	4736.3	
849.35	4473.4	
849.52	3753.2	
849.69	2960	
849.86	5351.3	
850.03	5541.8	
850.2	3059	
850.37	3719.8	
850.54	5448.3	
850.71	4941.1	
850.88	3626.3	
851.05	2952.5	
851.22	5094.7	
851.39	5691.3	
851.56	2869.9	
851.73	3429	
851.9	4558.8	
852.07	5360.2	
852.24	3334.1	
852.41	2973	
852.58	5111	
852.75	4651.6	
852.92	3432.4	
853.09	2979.8	
853.26	4758.8	
853.43	5485.1	
853.6	3056.9	
853.77	2591.4	
853.94	5634	
854.11	5096	
854.28	4419.5	
854.44	3235.8	
854.61	6043.6	
854.78	5475.6	
854.95	3036.5	
855.12	3777.8	
855.29	4248.2	
855.46	5715.2	
855.63	3041.2	
855.8	4100	
855.97	4771.8	
856.14	5467.4	
856.31	4252.9	
856.48	3274	
856.65	4805.2	
856.82	4498	
856.99	2942.9	
857.16	3271.3	
857.33	6162.3	
857.49	4873.5	
857.66	3269.9	
857.83	3495.2	
858	4929.5	
858.17	5049.6	
858.34	2887.6	
858.51	3108.1	
858.68	5709.7	
858.85	5738.4	
859.02	3517.7	
859.19	3680.9	
859.36	4550.6	
859.52	4610.7	
859.69	3078.1	
859.86	3552.5	
860.03	4591.5	
860.2	5653.8	
860.37	2744.3	
860.54	3095.2	
860.71	5357.5	
860.88	5692.7	
861.05	3435.8	
861.21	3789.4	
861.38	5737.7	
861.55	4470.7	
861.72	2794.1	
861.89	3416.7	
862.06	5444.2	
862.23	5750	
862.4	2979.1	
862.56	3120.4	
862.73	5256.5	
862.9	4948.6	
863.07	3543.7	
863.24	2764.8	
863.41	4541.7	
863.58	4609.3	
863.75	3081.5	
863.91	3556.6	
864.08	5520.6	
864.25	5268.7	
864.42	3750.5	
864.59	4173.8	
864.76	5874.9	
864.93	4548.5	
865.09	3056.9	
865.26	3246	
865.43	5549.3	
865.6	5874.3	
865.77	2726.5	
865.94	3016	
866.1	5605.3	
866.27	5343.2	
866.44	4463.2	
866.61	2934.1	
866.78	4964.3	
866.95	5294.7	
867.11	2999.6	
867.28	2712.9	
867.45	5543.9	
867.62	4673.5	
867.79	3485.6	
867.96	3005.7	
868.12	4558.1	
868.29	5357.5	
868.46	2667.1	
868.63	4001	
868.8	5522	
868.97	5323.4	
869.13	3218	
869.3	3203	
869.47	5248.9	
869.64	5406.6	
869.81	3013.2	
869.97	3020.8	
870.14	5164.3	
870.31	5660.6	
870.48	2944.3	
870.65	3848.1	
870.81	4830.5	
870.98	4937	
871.15	3485	
871.32	3143.6	
871.48	5232.6	
871.65	5715.9	
871.82	3048.1	
871.99	3285.6	
872.16	6110.5	
872.32	5573.2	
872.49	3088.3	
872.66	3142.3	
872.83	5330.2	
872.99	4737	
873.16	3481.5	
873.33	3024.2	
873.5	5002.5	
873.67	5075.5	
873.83	3176.4	
874	4018.1	
874.17	5169.8	
874.34	5986.9	
874.5	3925.3	
874.67	3734.8	
874.84	5629.9	
875.01	4498	
875.17	4186	
875.34	3069.9	
875.51	5122.7	
875.68	6076.3	
875.84	3638.6	
876.01	4349.9	
876.18	5305.6	
876.34	5309.7	
876.51	3053.5	
876.68	3028.3	
876.85	4866	
877.01	5642.2	
877.18	4304.8	
877.35	2998.2	
877.52	5042.1	
877.68	4514.4	
877.85	2975	
878.02	2979.1	
878.18	4935.6	
878.35	4807.3	
878.52	2451.4	
878.69	3396.9	
878.85	5388.2	
879.02	5272.2	
879.19	4224.3	
879.35	3303.4	
879.52	5270.8	
879.69	5457.8	
879.86	2646.7	
880.02	3434.4	
880.19	4978.6	
880.36	5981.4	
880.52	3478.8	
880.69	3507.5	
880.86	5380	
881.02	5378.6	
881.19	3363.4	
881.36	3276.8	
881.52	5312.4	
881.69	4697.4	
881.86	3274	
882.02	3216	
882.19	5547.3	
882.36	6450.4	
882.52	3107.5	
882.69	4247.5	
882.86	5126.1	
883.02	5077.6	
883.19	3651.5	
883.36	3443.3	
883.52	5393	
883.69	6118.6	
883.86	3106.8	
884.02	2803	
884.19	5358.2	
884.36	5051.7	
884.52	3420.8	
884.69	3239.9	
884.86	4820.2	
885.02	5794.4	
885.19	3404.4	
885.36	3468.6	
885.52	5010.7	
885.69	5180	
885.86	4332.8	
886.02	3818.8	
886.19	5392.3	
886.35	4825	
886.52	3348.4	
886.69	4223.6	
886.85	4618.9	
887.02	5636.7	
887.19	5636.7	
887.35	5636.7	
887.52	5636.7	
887.68	5636.7	
887.85	5636.7	
888.02	5636.7	
888.18	5636.7	
888.35	5636.7	
888.51	5636.7	
888.68	5636.7	
888.85	5636.7	
889.01	5636.7	
889.18	5636.7	
889.35	5636.7	
889.51	5636.7	
889.68	5636.7	
889.84	5636.7	
890.01	5636.7	
890.17	5636.7	
890.34	5636.7	
890.51	5636.7	
890.67	5636.7	
890.84	5636.7	
891	5636.7	
891.17	5636.7	
891.34	5636.7	
891.5	5636.7	
891.67	5636.7	
891.83	5636.7	
892	5636.7	
892.16	5636.7	
892.33	5636.7	
892.5	5636.7	
892.66	5636.7	
892.83	5636.7	
892.99	5636.7	
893.16	5636.7	
893.32	5636.7	
893.49	5636.7	
893.65	5636.7	
893.82	5636.7	
893.99	5636.7	
894.15	5636.7	
894.32	5636.7	
894.48	5636.7	
894.65	5636.7	
894.81	5636.7	
894.98	5636.7	
895.14	5636.7	
895.31	5636.7	
895.47	5636.7	
895.64	5636.7	
895.81	5636.7	
895.97	5636.7	
896.14	5636.7	
896.3	5636.7	
896.47	5636.7	
896.63	5636.7	
896.8	5636.7	
896.96	5636.7	
897.13	5636.7	
897.29	5636.7	
897.46	5636.7	
897.62	5636.7	
897.79	5636.7	
897.95	5636.7	
898.12	5636.7	
898.28	5636.7	
898.45	5636.7	
898.61	5636.7	
898.78	5636.7	
898.94	5636.7	
899.11	5636.7	
899.27	5636.7	
899.44	5636.7	
899.6	5636.7	
899.77	5636.7	
899.93	5636.7	
900.1	5636.7	
900.26	5636.7	
900.43	5636.7	
900.59	5636.7	
900.76	5636.7	
900.92	5636.7	
901.09	5636.7	
901.25	5636.7	
901.42	5636.7	
901.58	5636.7	
901.75	5636.7	
901.91	5636.7	
902.07	5636.7	
902.24	5636.7	
902.4	5636.7	
902.57	5636.7	
902.73	5636.7	
902.9	5636.7	
903.06	5636.7	
903.23	5636.7	
903.39	5636.7	
903.56	5636.7	
903.72	5636.7	
903.88	5636.7	
904.05	5636.7	
904.21	5636.7	
904.38	5636.7	
904.54	5636.7	
904.71	5636.7	
904.87	5636.7	
905.03	5636.7	
905.2	5636.7	
905.36	5636.7	
905.53	5636.7	
905.69	5636.7	
905.86	5636.7	
906.02	5636.7	
906.18	5636.7	
906.35	5636.7	
906.51	5636.7	
906.68	5636.7	
906.84	5636.7	
907.01	5636.7	
907.17	5636.7	
907.33	5636.7	
907.5	5636.7	
907.66	5636.7	
907.83	5636.7	
907.99	5636.7	
908.15	5636.7	
908.32	5636.7	
908.48	5636.7	
908.65	5636.7	
908.81	5636.7	
908.97	5636.7	
909.14	5636.7	
909.3	5636.7	
909.47	5636.7	
909.63	5636.7	
909.79	5636.7	
909.96	5636.7	
910.12	5636.7	
910.28	5636.7	
910.45	5636.7	
910.61	5636.7	
910.78	5636.7	
910.94	5636.7	
911.1	5636.7	
911.27	5636.7	
911.43	5636.7	
911.59	5636.7	
911.76	5636.7	
911.92	5636.7	
912.08	5636.7	
912.25	5636.7	
912.41	5636.7	
912.57	5636.7	
912.74	5636.7	
912.9	5636.7	
913.07	5636.7	
913.23	5636.7	
913.39	5636.7	
913.56	5636.7	
913.72	5636.7	
913.88	5636.7	
914.05	5636.7	
914.21	5636.7	
914.37	5636.7	
914.54	5636.7	
914.7	5636.7	
914.86	5636.7	
915.03	5636.7	
915.19	5636.7	
