Wavelength	Intensities	
nm	a.u.	
179.22	1886.5	
179.44	1891	
179.65	1882.1	
179.86	1899.8	
180.08	1903.9	
180.29	4970.4	
180.51	3532.1	
180.72	5597.8	
180.94	6565.1	
181.15	3264.5	
181.37	3107.5	
181.58	5497.4	
181.79	5839.4	
182.01	3373.7	
182.22	3645.4	
182.44	5782.8	
182.65	4819.6	
182.87	4571.7	
183.08	4052.9	
183.29	6046.3	
183.51	5029.8	
183.72	3676.1	
183.94	5414.1	
184.15	5382.1	
184.37	5397.8	
184.58	3215.3	
184.79	4407.9	
185.01	4956.8	
185.22	5810.1	
185.44	4687.8	
185.65	3940.3	
185.86	5266.7	
186.08	4873.5	
186.29	3114.3	
186.51	3383.2	
186.72	5024.3	
186.94	5910.4	
187.15	3936.2	
187.36	4083.6	
187.58	7778.9	
187.79	5483.8	
188.01	4268	
188.22	6644.3	
188.43	6665.5	
188.65	5782.8	
188.86	3348.4	
189.08	4022.2	
189.29	5182.7	
189.5	5194.3	
189.72	3728.7	
189.93	3839.9	
190.15	5971.9	
190.36	7145.4	
190.57	4160.8	
190.79	3988.1	
191	6050.4	
191.22	5966.4	
191.43	4145.8	
191.64	3383.9	
191.86	6270.2	
192.07	6043.6	
192.29	3540.3	
192.5	3720.5	
192.71	6021	
192.93	5202.5	
193.14	3692.5	
193.35	3771.7	
193.57	5186.8	
193.78	5934.3	
194	3011.9	
194.21	3642.7	
194.42	4941.1	
194.64	5444.2	
194.85	4036.5	
195.07	4732.2	
195.28	5431.2	
195.49	4661.2	
195.71	4965	
195.92	3467.9	
196.13	5618.3	
196.35	5722	
196.56	5324.7	
196.78	4070	
196.99	7090.1	
197.2	6654.5	
197.42	4569	
197.63	4164.9	
197.84	4856.4	
198.06	5629.9	
198.27	3723.2	
198.48	4982	
198.7	5195.7	
198.91	5296.7	
199.13	4007.9	
199.34	4016.7	
199.55	5880.4	
199.77	4747.2	
199.98	3617.4	
200.19	4087.1	
200.41	5330.2	
200.62	4985.4	
200.83	4282.3	
201.05	4542.4	
201.26	5356.1	
201.47	5107.6	
201.69	3625.6	
201.9	3410.6	
202.11	5373.2	
202.33	6365.8	
202.54	3864.5	
202.76	4314.4	
202.97	5513.8	
203.18	5578.7	
203.4	4299.4	
203.61	4100	
203.82	5489.9	
204.04	5053	
204.25	4098.7	
204.46	4009.9	
204.68	5451.7	
204.89	5657.2	
205.1	3916.4	
205.32	3425.6	
205.53	5825.8	
205.74	5930.2	
205.96	2955.9	
206.17	4145.8	
206.38	5784.1	
206.6	5945.9	
206.81	4674.1	
207.02	3813.3	
207.24	5701.5	
207.45	6067.4	
207.66	3814	
207.88	3325.9	
208.09	5653.8	
208.3	5396.4	
208.52	3528	
208.73	3845.4	
208.94	5428.5	
209.15	6161	
209.37	3910.3	
209.58	4112.3	
209.79	5920.7	
210.01	5240.1	
210.22	3139.5	
210.43	3291.1	
210.65	5399.8	
210.86	5916.6	
211.07	3887.7	
211.29	3502.7	
211.5	5741.1	
211.71	5363.6	
211.93	3529.3	
212.14	3551.2	
212.35	5362.9	
212.56	5616.2	
212.78	4089.1	
212.99	3351.2	
213.2	6394.4	
213.42	5163.6	
213.63	3603.7	
213.84	3966.9	
214.06	4782	
214.27	4872.1	
214.48	3857	
214.69	4138.3	
214.91	6104.3	
215.12	6217.6	
215.33	4149.2	
215.55	4654.4	
215.76	6705	
215.97	5780.7	
216.18	4008.6	
216.4	3910.9	
216.61	5054.4	
216.82	5896.8	
217.04	3592.8	
217.25	3756	
217.46	6134.3	
217.67	5853.8	
217.89	3194.1	
218.1	3338.2	
218.31	5524.7	
218.53	5583.4	
218.74	3765.5	
218.95	3635.8	
219.16	5420.3	
219.38	6361	
219.59	3695.2	
219.8	4391.5	
220.01	7022.5	
220.23	5432.6	
220.44	4788.8	
220.65	3526.6	
220.87	5505.6	
221.08	6031.3	
221.29	3311.6	
221.5	4399	
221.72	7471.7	
221.93	5091.3	
222.14	4136.9	
222.35	4803.2	
222.57	5477.6	
222.78	5802.6	
222.99	3907.5	
223.2	4256.4	
223.42	5685.8	
223.63	5931.6	
223.84	2984.6	
224.05	2925.2	
224.27	6996.5	
224.48	6320	
224.69	4844.8	
224.9	4067.9	
225.12	5631.9	
225.33	5375.2	
225.54	3279.5	
225.75	3627.6	
225.97	4965.6	
226.18	5246.9	
226.39	3939.6	
226.6	3651.5	
226.82	5182.7	
227.03	5014.8	
227.24	4097.3	
227.45	3345.7	
227.67	5764.3	
227.88	6390.3	
228.09	4521.2	
228.3	4623.6	
228.52	5853.1	
228.73	5416.2	
228.94	3820.8	
229.15	3374.4	
229.36	5343.8	
229.58	5237.3	
229.79	3850.9	
230	4439.3	
230.21	6498.9	
230.43	5504.3	
230.64	4057	
230.85	4262.5	
231.06	5838.8	
231.28	5829.9	
231.49	3323.9	
231.7	3951.9	
231.91	5728.2	
232.12	5445.5	
232.34	3444.7	
232.55	3981.3	
232.76	6041.5	
232.97	5590.3	
233.18	3577.1	
233.4	4010.6	
233.61	5692.7	
233.82	5154.7	
234.03	3760.1	
234.25	3724.6	
234.46	7540.6	
234.67	5492.7	
234.88	4143.7	
235.09	3630.4	
235.31	5732.9	
235.52	5296	
235.73	3992.9	
235.94	3403.7	
236.15	5171.1	
236.37	6594.5	
236.58	3549.1	
236.79	3915.7	
237	5755.5	
237.21	4932.9	
237.43	4231.8	
237.64	3239.9	
237.85	9939.5	
238.06	4990.9	
238.27	4222.9	
238.48	3388.7	
238.7	5737	
238.91	5277.6	
239.12	3812	
239.33	3889.1	
239.54	4998.4	
239.76	5312.4	
239.97	3869.3	
240.18	3897.3	
240.39	6802	
240.6	5714.5	
240.82	4018.8	
241.03	3312.9	
241.24	5418.9	
241.45	6257.2	
241.66	3582.6	
241.87	4284.4	
242.09	6189.6	
242.3	6537.8	
242.51	4219.5	
242.72	3895.9	
242.93	5904.3	
243.14	5344.5	
243.36	4542.4	
243.57	4861.2	
243.78	6277	
243.99	5795.8	
244.2	3953.9	
244.41	3555.3	
244.63	4959.5	
244.84	5760.9	
245.05	4175.8	
245.26	3910.3	
245.47	5717.2	
245.68	5992.4	
245.9	5202.5	
246.11	4103.4	
246.32	5270.8	
246.53	5637.4	
246.74	6285.2	
246.95	3270.6	
247.16	4865.3	
247.38	5423	
247.59	3291.8	
247.8	3938.9	
248.01	5075.5	
248.22	5367	
248.43	3548.4	
248.64	3814.7	
248.86	4814.1	
249.07	5194.3	
249.28	3466.5	
249.49	4029.7	
249.7	5976.7	
249.91	6050.4	
250.12	3233.1	
250.34	3302.7	
250.55	5505.6	
250.76	5398.4	
250.97	4001.7	
251.18	4164.9	
251.39	6153.5	
251.6	5608	
251.81	4176.5	
252.03	4141.7	
252.24	5165.7	
252.45	5937.1	
252.66	3362.8	
252.87	4361.5	
253.08	5486.5	
253.29	7215.7	
253.5	3412.6	
253.72	4741	
253.93	5258.5	
254.14	6494.8	
254.35	3738.2	
254.56	3813.3	
254.77	5651	
254.98	5033.2	
255.19	3676.8	
255.41	4743.8	
255.62	5530.9	
255.83	6052.4	
256.04	4202.4	
256.25	4128	
256.46	6695.5	
256.67	5135.6	
256.88	4041.3	
257.09	4425.7	
257.31	5067.4	
257.52	5165.7	
257.73	5111.7	
257.94	3734.8	
258.15	5264	
258.36	5408.7	
258.57	4711.7	
258.78	3020.8	
258.99	5948.7	
259.2	5293.3	
259.41	3672	
259.63	3788.7	
259.84	6341.9	
260.05	6777.4	
260.26	4932.2	
260.47	3634.5	
260.68	6046.3	
260.89	5350	
261.1	4509.6	
261.31	3617.4	
261.52	6049.7	
261.73	6408.8	
261.95	4814.1	
262.16	4222.9	
262.37	6156.2	
262.58	6248.4	
262.79	4806.6	
263	3751.9	
263.21	5438.7	
263.42	4962.2	
263.63	3789.4	
263.84	3762.8	
264.05	5964.4	
264.26	6407.4	
264.47	4668	
264.69	4212	
264.9	6078.4	
265.11	5629.2	
265.32	3575.1	
265.53	3708.2	
265.74	5558.2	
265.95	4843.4	
266.16	3977.8	
266.37	4405.2	
266.58	5558.9	
266.79	5218.9	
267	3713	
267.21	3407.8	
267.42	5003.2	
267.63	5438	
267.84	3916.4	
268.06	3374.4	
268.27	5867.4	
268.48	6180.1	
268.69	3786	
268.9	4535.6	
269.11	6173.9	
269.32	4914.4	
269.53	3888.4	
269.74	3566.9	
269.95	5779.4	
270.16	4790.2	
270.37	3892.5	
270.58	4530.1	
270.79	5243.5	
271	5940.5	
271.21	4190.1	
271.42	3915	
271.63	5565	
271.84	5095.3	
272.05	3067.2	
272.26	3523.9	
272.47	5451.7	
272.68	5700.2	
272.89	3747.1	
273.11	4351.3	
273.32	5240.8	
273.53	6395.1	
273.74	4295.3	
273.95	4112.3	
274.16	6091.3	
274.37	5504.3	
274.58	4346.5	
274.79	3441.3	
275	5610.8	
275.21	6135	
275.42	5143.8	
275.63	4435.2	
275.84	5694.7	
276.05	7200.7	
276.26	4145.1	
276.47	3849.5	
276.68	5236	
276.89	6489.3	
277.1	4432.5	
277.31	3390.8	
277.52	5751.4	
277.73	5876.3	
277.94	3385.3	
278.15	3724.6	
278.36	5599.8	
278.57	5062.6	
278.78	3776.5	
278.99	4154.6	
279.2	5061.2	
279.41	5036.6	
279.62	4904.2	
279.83	3476.1	
280.04	6728.9	
280.25	4919.2	
280.46	4943.1	
280.67	3893.9	
280.88	5042.8	
281.09	6105.7	
281.3	4135.5	
281.51	5212.8	
281.72	5142.4	
281.93	5983.5	
282.14	3657	
282.35	3901.4	
282.56	5921.4	
282.77	5923.4	
282.98	3753.9	
283.19	4648.2	
283.4	7247.8	
283.61	5350.7	
283.82	3377.8	
284.03	4891.9	
284.24	5550.7	
284.45	6083.1	
284.66	4823	
284.87	4655	
285.08	5989.6	
285.29	6212.2	
285.5	3317	
285.71	3812.6	
285.92	6134.3	
286.12	6731	
286.33	4769.7	
286.54	3761.4	
286.75	5915.2	
286.96	5355.4	
287.17	3432.4	
287.38	4735.6	
287.59	5074.2	
287.8	5011.4	
288.01	3845.4	
288.22	4399	
288.43	5972.6	
288.64	4973.2	
288.85	4531.5	
289.06	4312.3	
289.27	5846.3	
289.48	6376.7	
289.69	4908.3	
289.9	4328	
290.11	6043.6	
290.32	5137.7	
290.53	4632.5	
290.74	4265.9	
290.94	5885.9	
291.15	5952.1	
291.36	3723.2	
291.57	4389.5	
291.78	5132.2	
291.99	4866.7	
292.2	3512.9	
292.41	4255.7	
292.62	5944.6	
292.83	5766.4	
293.04	5298.1	
293.25	3523.2	
293.46	5199.8	
293.67	6077.7	
293.88	3629.7	
294.09	3511.6	
294.29	5025.7	
294.5	5569.8	
294.71	3921.9	
294.92	3763.5	
295.13	5195	
295.34	6566.5	
295.55	3350.5	
295.76	3389.4	
295.97	5890	
296.18	6606.1	
296.39	3478.8	
296.6	3667.9	
296.81	5616.9	
297.01	5852.4	
297.22	3846.8	
297.43	3601	
297.64	4997.7	
297.85	5089.9	
298.06	3055.6	
298.27	3281.5	
298.48	5503.6	
298.69	5098.8	
298.9	4025.6	
299.11	3579.2	
299.31	4952	
299.52	5023	
299.73	4267.3	
299.94	4168.3	
300.15	5413.5	
300.36	5051.7	
300.57	4175.1	
300.78	4225.6	
300.99	5330.2	
301.2	5580	
301.4	3601	
301.61	4002.4	
301.82	5774.6	
302.03	5914.5	
302.24	4453.6	
302.45	3508.9	
302.66	5773.2	
302.87	6243.6	
303.08	3680.2	
303.29	4982	
303.49	5189.6	
303.7	5509	
303.91	3193.5	
304.12	4861.9	
304.33	4970.4	
304.54	5530.2	
304.75	3708.2	
304.96	3537.5	
305.16	5748.6	
305.37	6587.6	
305.58	3179.1	
305.79	3335.5	
306	5755.5	
306.21	4831.2	
306.42	3706.1	
306.63	5670.1	
306.83	5294	
307.04	6084.5	
307.25	4004.5	
307.46	4033.8	
307.67	4660.5	
307.88	5943.9	
308.09	3626.3	
308.29	3775.8	
308.5	5541.1	
308.71	6045.6	
308.92	3899.3	
309.13	3515	
309.34	5316.5	
309.55	5386.8	
309.75	4575.8	
309.96	4219.5	
310.17	5847.6	
310.38	5180	
310.59	4485.1	
310.8	4104.1	
311.01	6128.2	
311.21	5270.1	
311.42	3478.1	
311.63	3575.8	
311.84	5233.9	
312.05	5632.6	
312.26	4159.4	
312.46	4464.6	
312.67	5239.4	
312.88	5008	
313.09	3547.8	
313.3	3485.6	
313.51	6244.9	
313.71	6553.5	
313.92	3493.2	
314.13	3766.9	
314.34	5642.2	
314.55	5413.5	
314.76	4558.1	
314.96	3963.5	
315.17	5524.7	
315.38	5917.3	
315.59	3533.4	
315.8	3367.5	
316.01	6334.4	
316.21	6350.1	
316.42	3422.8	
316.63	3872	
316.84	5344.5	
317.05	6171.2	
317.26	4240	
317.46	3677.5	
317.67	5427.8	
317.88	5823.7	
318.09	4489.8	
318.3	3307.5	
318.5	5135.6	
318.71	5738.4	
318.92	5757.5	
319.13	4199	
319.34	5998.5	
319.54	6090	
319.75	3306.8	
319.96	3133.4	
320.17	5853.1	
320.38	6010.1	
320.58	3264.5	
320.79	3895.2	
321	6062	
321.21	6243.6	
321.42	3971.7	
321.62	3261.7	
321.83	5034.6	
322.04	5455.8	
322.25	3760.1	
322.46	3491.1	
322.66	5558.2	
322.87	5734.3	
323.08	4399.7	
323.29	3506.1	
323.5	6457.9	
323.7	5008	
323.91	4894	
324.12	4409.3	
324.33	5532.2	
324.53	5788.2	
324.74	4173.8	
324.95	4429.8	
325.16	4825.7	
325.37	5238.7	
325.57	3525.2	
325.78	3651.5	
325.99	5436	
326.2	4900.8	
326.4	5195.7	
326.61	3241.9	
326.82	5391.6	
327.03	5540.4	
327.24	5048.9	
327.44	4851.6	
327.65	5704.3	
327.86	4596.3	
328.07	4188.8	
328.27	3396.9	
328.48	6141.9	
328.69	5012.7	
328.9	5109.7	
329.1	3775.1	
329.31	5350	
329.52	6283.2	
329.73	3579.8	
329.93	4011.3	
330.14	5451	
330.35	5719.3	
330.56	5883.8	
330.76	4450.2	
330.97	5317.2	
331.18	5666	
331.39	3948.5	
331.59	3207.1	
331.8	6084.5	
332.01	6235.4	
332.22	3660.4	
332.42	4259.8	
332.63	5565.7	
332.84	5154.1	
333.05	3990.8	
333.25	3618.8	
333.46	5179.3	
333.67	5410.7	
333.88	3687.7	
334.08	4113	
334.29	7281.9	
334.5	6136.4	
334.7	3480.2	
334.91	5140.4	
335.12	4984.1	
335.33	5896.8	
335.53	3921.2	
335.74	5874.3	
335.95	5201.2	
336.16	5066.7	
336.36	3876.1	
336.57	4579.9	
336.78	4933.6	
336.98	6025.8	
337.19	4835.9	
337.4	3867.2	
337.61	6555.5	
337.81	4975.2	
338.02	3662.5	
338.23	4683.7	
338.43	6225.8	
338.64	5093.3	
338.85	3567.6	
339.05	4722.6	
339.26	6320.7	
339.47	4907.6	
339.68	3575.1	
339.88	5321.3	
340.09	5686.5	
340.3	5888.6	
340.5	4220.9	
340.71	3211.2	
340.92	4937.7	
341.13	6146	
341.33	3426.9	
341.54	4204.5	
341.75	5692	
341.95	5332.9	
342.16	4057.7	
342.37	4306.9	
342.57	5016.8	
342.78	5392.3	
342.99	4481.6	
343.19	3204.4	
343.4	5860.6	
343.61	5688.6	
343.81	3794.9	
344.02	3522.5	
344.23	5866.1	
344.43	6277.7	
344.64	4457.1	
344.85	4403.1	
345.06	5700.9	
345.26	6081.8	
345.47	4130.8	
345.68	4858.5	
345.88	4806.6	
346.09	5971.9	
346.3	4213.4	
346.5	3208.5	
346.71	5471.5	
346.92	5092.6	
347.12	3239.2	
347.33	4135.5	
347.54	5960.3	
347.74	6472.3	
347.95	4074.8	
348.16	2984.6	
348.36	5236.7	
348.57	4947.9	
348.78	4095.9	
348.98	4390.8	
349.19	5367.7	
349.39	4935.6	
349.6	3276.8	
349.81	3635.1	
350.01	5687.9	
350.22	5182	
350.43	3918.4	
350.63	4780.6	
350.84	5522	
351.05	5248.3	
351.25	3577.8	
351.46	3202.3	
351.67	5995.1	
351.87	5186.8	
352.08	3820.1	
352.29	4383.3	
352.49	5836.7	
352.7	5617.6	
352.9	3474.7	
353.11	4359.4	
353.32	6535.8	
353.52	5259.9	
353.73	3396.2	
353.94	4390.2	
354.14	5724.8	
354.35	5590.3	
354.55	3530.7	
354.76	3951.9	
354.97	5670.8	
355.17	5437.4	
355.38	3280.8	
355.59	4688.5	
355.79	5114.5	
356	5567.7	
356.2	3919.8	
356.41	3362.8	
356.62	4861.9	
356.82	5302.2	
357.03	4199	
357.24	3786.7	
357.44	5085.8	
357.65	5245.5	
357.85	4985.4	
358.06	3959.4	
358.27	4876.2	
358.47	5117.9	
358.68	3269.9	
358.88	4173.8	
359.09	5638.1	
359.3	6055.8	
359.5	4900.1	
359.71	4243.4	
359.91	6502.3	
360.12	5803.9	
360.33	4149.2	
360.53	4569	
360.74	5091.3	
360.94	5145.9	
361.15	4363.5	
361.36	3550.5	
361.56	5883.8	
361.77	5266.7	
361.97	4885.8	
362.18	3764.8	
362.38	5921.4	
362.59	4961.5	
362.8	3458.3	
363	3263.8	
363.21	4702.1	
363.41	5365.7	
363.62	4003.1	
363.83	5097.4	
364.03	5536.3	
364.24	6434.7	
364.44	5115.1	
364.65	5125.4	
364.85	5174.5	
365.06	5153.4	
365.27	3650.2	
365.47	3695.9	
365.68	6227.9	
365.88	5141.8	
366.09	4009.9	
366.29	3751.2	
366.5	5500.8	
366.71	5889.3	
366.91	5072.1	
367.12	4256.4	
367.32	6509.1	
367.53	5782.8	
367.73	4139.6	
367.94	5140.4	
368.14	5727.5	
368.35	6713.9	
368.56	4190.1	
368.76	3876.1	
368.97	5835.3	
369.17	7583.6	
369.38	3596.2	
369.58	3853.6	
369.79	4870.1	
369.99	6214.2	
370.2	4937	
370.4	4029	
370.61	5556.1	
370.82	6752.2	
371.02	3934.1	
371.23	3256.3	
371.43	4749.9	
371.64	6142.5	
371.84	3923.9	
372.05	5203.9	
372.25	7495.6	
372.46	5842.9	
372.66	3857	
372.87	3899.3	
373.07	5819	
373.28	7498.3	
373.48	4856.4	
373.69	4666	
373.9	5315.8	
374.1	5324.7	
374.31	4852.3	
374.51	4370.4	
374.72	6148.7	
374.92	4980	
375.13	4951.3	
375.33	4159.4	
375.54	5717.9	
375.74	5141.1	
375.95	4270.7	
376.15	5460.6	
376.36	5632.6	
376.56	5517.2	
376.77	4271.4	
376.97	4737.6	
377.18	6704.4	
377.38	5697.4	
377.59	5032.5	
377.79	3718.4	
378	5516.5	
378.2	5990.3	
378.41	3741	
378.61	3689.8	
378.82	6006	
379.02	5071.5	
379.23	3929.4	
379.43	5093.3	
379.64	6036	
379.84	5682.4	
380.05	3770.3	
380.25	3684.3	
380.46	5831.2	
380.66	5418.9	
380.87	5060.5	
381.07	5505.6	
381.28	6398.5	
381.48	5825.1	
381.69	3807.9	
381.89	3835.8	
382.1	4773.1	
382.3	5988.9	
382.51	4919.2	
382.71	5832.6	
382.91	5820.3	
383.12	6413.6	
383.32	4106.9	
383.53	4377.2	
383.73	5673.6	
383.94	5489.9	
384.14	4265.2	
384.35	3417.4	
384.55	5371.8	
384.76	5808	
384.96	4143	
385.17	4480.3	
385.37	5803.3	
385.58	5102.9	
385.78	4486.4	
385.98	3394.2	
386.19	5315.8	
386.39	5674.2	
386.6	3920.5	
386.8	4197.7	
387.01	5827.8	
387.21	5878.4	
387.42	4599.7	
387.62	5162.9	
387.83	5130.2	
388.03	5789.6	
388.23	4178.5	
388.44	5018.9	
388.64	4789.5	
388.85	4932.2	
389.05	4502.1	
389.26	5145.2	
389.46	6750.1	
389.67	6223.8	
389.87	4503.5	
390.07	4584.7	
390.28	5408	
390.48	5033.2	
390.69	3732.1	
390.89	4040	
391.1	5195.7	
391.3	6135	
391.5	5368.4	
391.71	5898.1	
391.91	5793	
392.12	6821.8	
392.32	5369.1	
392.53	4542.4	
392.73	5193	
392.93	5454.4	
393.14	4218.8	
393.34	4997	
393.55	5778	
393.75	5402.5	
393.95	4219.5	
394.16	4137.6	
394.36	5172.5	
394.57	5896.8	
394.77	3689.1	
394.98	4152.6	
395.18	5151.3	
395.38	5336.3	
395.59	5020.9	
395.79	3895.2	
396	5256.5	
396.2	5669.5	
396.4	4741.7	
396.61	4683	
396.81	5940.5	
397.02	5176.6	
397.22	5026.4	
397.42	4969.7	
397.63	5841.5	
397.83	5089.9	
398.04	3820.1	
398.24	4377.9	
398.44	5642.8	
398.65	4693.9	
398.85	3697.3	
399.05	3835.8	
399.26	5035.3	
399.46	6814.3	
399.67	4223.6	
399.87	3885.7	
400.07	5456.5	
400.28	5841.5	
400.48	4017.4	
400.69	5033.2	
400.89	5969.1	
401.09	6467.5	
401.3	3814.7	
401.5	4975.9	
401.7	6637.5	
401.91	6879.8	
402.11	4138.3	
402.32	4412.7	
402.52	5965.1	
402.72	5863.3	
402.93	4576.5	
403.13	3504.8	
403.33	6748.1	
403.54	5512.4	
403.74	4369.7	
403.94	5316.5	
404.15	5547.9	
404.35	6783.6	
404.56	4175.1	
404.76	6038.1	
404.96	5975.3	
405.17	5774.6	
405.37	5364.3	
405.57	4633.9	
405.78	5986.2	
405.98	5530.2	
406.18	4058.4	
406.39	5088.5	
406.59	5989.6	
406.79	5638.1	
407	3958	
407.2	4069.3	
407.4	6050.4	
407.61	6340.5	
407.81	4031.8	
408.01	6227.9	
408.22	4966.3	
408.42	7132.4	
408.62	5049.6	
408.83	4534.9	
409.03	5545.9	
409.23	5343.2	
409.44	4566.3	
409.64	4821.6	
409.84	6437.4	
410.05	6216.3	
410.25	4615.4	
410.45	4422.9	
410.66	5745.2	
410.86	8248.5	
411.06	4739.7	
411.27	4657.1	
411.47	7918.8	
411.67	5894.7	
411.88	4850.3	
412.08	5109	
412.28	6464.8	
412.49	7033.4	
412.69	4603.2	
412.89	4594.3	
413.09	6765.8	
413.3	6617.7	
413.5	4657.8	
413.7	4217.5	
413.91	5831.9	
414.11	6726.9	
414.31	4537.6	
414.52	4836.6	
414.72	6357.6	
414.92	6233.3	
415.12	4412.7	
415.33	4999.8	
415.53	6576	
415.73	6863.4	
415.94	5328.1	
416.14	4713.1	
416.34	5583.4	
416.55	5402.5	
416.75	6001.2	
416.95	5393.7	
417.15	6654.5	
417.36	7360.4	
417.56	6107.7	
417.76	5169.8	
417.97	6960.4	
418.17	6583.5	
418.37	4714.4	
418.57	4791.6	
418.78	6341.2	
418.98	6057.2	
419.18	5590.3	
419.38	5582.8	
419.59	6161	
419.79	5807.4	
419.99	4647.5	
420.2	5042.8	
420.4	6635.4	
420.6	6830	
420.8	4557.4	
421.01	4467.3	
421.21	6386.9	
421.41	6647.7	
421.61	4971.1	
421.82	4704.2	
422.02	5902.9	
422.22	6965.8	
422.42	5516.5	
422.63	5201.8	
422.83	6040.1	
423.03	7264.8	
423.23	5119.2	
423.44	4090.5	
423.64	6199.9	
423.84	5963.7	
424.04	4545.1	
424.25	4227	
424.45	7105.1	
424.65	7130.3	
424.85	4066.6	
425.06	4640	
425.26	7057.3	
425.46	6029.9	
425.66	5147.2	
425.87	4814.8	
426.07	6806.8	
426.27	6708.5	
426.47	4983.4	
426.67	4247.5	
426.88	7155.6	
427.08	6573.3	
427.28	5111	
427.48	4333.5	
427.69	5550.7	
427.89	6163.7	
428.09	5184.1	
428.29	4372.4	
428.5	6916	
428.7	6330.3	
428.9	4222.2	
429.1	4850.3	
429.3	6312.5	
429.51	6739.9	
429.71	4578.6	
429.91	5312.4	
430.11	6474.3	
430.31	6769.9	
430.52	4788.2	
430.72	5071.5	
430.92	7114.6	
431.12	6618.4	
431.32	4497.3	
431.53	4937.7	
431.73	5487.2	
431.93	7183.6	
432.13	4319.2	
432.33	4294.6	
432.54	5971.2	
432.74	6341.9	
432.94	4181.3	
433.14	5225.1	
433.34	6472.3	
433.55	5926.1	
433.75	5155.4	
433.95	6860.7	
434.15	6240.2	
434.35	5856.5	
434.56	4396.3	
434.76	3827	
434.96	6195.1	
435.16	6427.9	
435.36	4257.7	
435.56	5304.9	
435.77	5809.4	
435.97	5973.2	
436.17	6004	
436.37	5205.9	
436.57	5783.5	
436.78	5659.2	
436.98	5876.3	
437.18	5715.2	
437.38	6380.1	
437.58	5928.2	
437.78	6044.9	
437.99	4587.4	
438.19	6541.2	
438.39	7305.1	
438.59	4564.9	
438.79	4154.6	
438.99	7175.4	
439.2	6054.5	
439.4	4313	
439.6	4154.6	
439.8	6362.4	
440	7452.6	
440.2	5184.8	
440.4	5284.4	
440.61	6662	
440.81	7199.3	
441.01	4275.5	
441.21	5119.2	
441.41	6922.8	
441.61	6614.3	
441.81	5399.1	
442.02	6523.5	
442.22	7535.2	
442.42	6753.5	
442.62	4328.7	
442.82	4406.5	
443.02	7015	
443.22	6029.9	
443.43	4805.9	
443.63	4335.5	
443.83	5939.1	
444.03	5917.3	
444.23	5537.7	
444.43	5098.1	
444.63	6148.7	
444.83	7462.8	
445.04	4362.9	
445.24	5666	
445.44	6595.1	
445.64	6722.8	
445.84	5222.3	
446.04	5273.5	
446.24	5996.5	
446.44	6988.4	
446.65	4378.6	
446.85	4755.4	
447.05	6206	
447.25	6926.2	
447.45	4889.9	
447.65	4286.4	
447.85	6296.8	
448.05	5915.2	
448.25	5270.1	
448.46	5141.8	
448.66	6343.2	
448.86	6023.1	
449.06	4140.3	
449.26	5397.1	
449.46	6657.9	
449.66	5732.3	
449.86	4765.6	
450.06	4743.8	
450.26	5841.5	
450.47	6445.6	
450.67	5048.9	
450.87	5436.7	
451.07	6521.4	
451.27	6333.7	
451.47	4357.4	
451.67	4913.8	
451.87	5922	
452.07	7193.8	
452.27	4559.5	
452.47	4500.8	
452.67	6313.2	
452.88	6862.7	
453.08	3878.9	
453.28	5941.8	
453.48	7434.1	
453.68	6285.9	
453.88	4461.2	
454.08	4725.3	
454.28	6600.6	
454.48	6197.2	
454.68	5249.6	
454.88	5717.2	
455.08	6703.7	
455.28	6361.7	
455.48	4289.1	
455.68	4866	
455.89	7062.1	
456.09	6759	
456.29	4635.2	
456.49	4619.5	
456.69	6944	
456.89	6255.9	
457.09	5150.6	
457.29	5478.3	
457.49	6494.8	
457.69	6703	
457.89	4891.9	
458.09	4315.8	
458.29	6279.8	
458.49	6944	
458.69	5276.9	
458.89	4663.2	
459.09	7096.9	
459.29	7243.7	
459.49	4805.9	
459.69	5646.2	
459.9	6700.3	
460.1	6175.3	
460.3	4767.7	
460.5	4455.7	
460.7	6725.5	
460.9	6434.7	
461.1	4145.1	
461.3	5438.7	
461.5	7225.9	
461.7	6914.6	
461.9	4416.8	
462.1	4986.1	
462.3	6333	
462.5	6988.4	
462.7	4529.4	
462.9	4590.2	
463.1	7969.3	
463.3	7480.5	
463.5	4783.4	
463.7	5679.7	
463.9	6432	
464.1	6762.4	
464.3	4754	
464.5	5045.5	
464.7	7075	
464.9	6656.6	
465.1	6448.4	
465.3	5470.8	
465.5	7352.9	
465.7	7339.9	
465.9	5603.2	
466.1	5489.9	
466.3	7120.1	
466.5	6960.4	
466.7	6285.9	
466.9	5177.9	
467.1	6893.5	
467.3	7813.7	
467.5	6244.3	
467.7	5086.5	
467.9	8012.3	
468.1	8918.2	
468.3	5910.4	
468.5	6278.4	
468.7	6731.7	
468.9	6810.9	
469.1	5357.5	
469.3	6001.2	
469.5	8741.4	
469.7	6223.8	
469.9	5788.9	
470.1	5033.9	
470.3	6666.8	
470.5	6757.6	
470.7	6243.6	
470.9	5130.8	
471.1	6525.5	
471.3	7107.8	
471.5	4898.7	
471.69	6947.4	
471.89	6391	
472.09	5934.3	
472.29	5820.3	
472.49	6254.5	
472.69	6102.9	
472.89	7044.3	
473.09	4857.8	
473.29	5018.2	
473.49	6322.1	
473.69	6504.3	
473.89	6058.6	
474.09	5193.6	
474.29	7797.3	
474.49	7508.5	
474.69	5991	
474.89	5362.3	
475.09	6542.6	
475.29	6440.2	
475.49	4762.2	
475.69	4899.4	
475.88	8211	
476.08	6789	
476.28	4625.7	
476.48	5214.8	
476.68	7348.8	
476.88	7191.1	
477.08	5051	
477.28	5382.1	
477.48	6706.4	
477.68	7434.1	
477.88	4841.4	
478.08	5181.4	
478.28	7645.1	
478.48	6802	
478.67	5214.1	
478.87	4719.2	
479.07	7456	
479.27	6941.2	
479.47	5441.5	
479.67	5462.6	
479.87	7253.2	
480.07	7753.6	
480.27	4646.2	
480.47	6400.6	
480.67	6922.1	
480.87	7513.3	
481.06	4945.2	
481.26	5777.3	
481.46	6830.7	
481.66	6804.7	
481.86	5384.8	
482.06	6486.6	
482.26	6548.7	
482.46	7653.9	
482.66	5382.1	
482.86	4908.3	
483.05	6862.1	
483.25	6279.1	
483.45	7887.4	
483.65	5327.4	
483.85	6455.9	
484.05	6776	
484.25	5868.8	
484.45	6155.5	
484.65	7634.1	
484.84	7548.8	
485.04	5208	
485.24	5256.5	
485.44	7879.2	
485.64	6155.5	
485.84	4472.1	
486.04	5917.9	
486.24	6488	
486.44	6997.2	
486.63	4391.5	
486.83	5283.1	
487.03	6361	
487.23	6600.6	
487.43	4459.1	
487.63	6898.9	
487.83	6616.3	
488.02	7705.8	
488.22	5490.6	
488.42	6027.9	
488.62	7628	
488.82	6412.2	
489.02	5158.2	
489.22	5145.9	
489.41	7346.7	
489.61	6953.5	
489.81	4827.7	
490.01	4823.6	
490.21	7211.6	
490.41	7885.4	
490.61	4743.1	
490.8	4856.4	
491	6651.8	
491.2	6080.4	
491.4	5565	
491.6	4700.8	
491.8	6701.6	
491.99	7024.5	
492.19	4573.1	
492.39	4909.7	
492.59	7370	
492.79	7360.4	
492.99	5722.7	
493.18	4768.4	
493.38	7442.3	
493.58	8079.9	
493.78	5560.9	
493.98	5113.1	
494.18	7010.2	
494.37	6457.9	
494.57	5635.3	
494.77	5540.4	
494.97	7104.4	
495.17	7425.9	
495.37	4988.9	
495.56	5401.9	
495.76	7535.2	
495.96	7160.4	
496.16	6252.4	
496.36	5106.3	
496.55	7345.4	
496.75	6784.9	
496.95	5550.7	
497.15	5300.8	
497.35	7270.3	
497.54	7238.9	
497.74	5184.8	
497.94	6868.2	
498.14	7870.3	
498.34	7727	
498.53	4858.5	
498.73	5683.1	
498.93	6556.2	
499.13	7165.8	
499.33	5401.9	
499.52	6027.2	
499.72	7103	
499.92	7504.4	
500.12	5092.6	
500.32	5283.8	
500.51	7395.9	
500.71	7126.9	
500.91	6139.8	
501.11	5764.3	
501.31	7300.3	
501.5	7692.2	
501.7	6361	
501.9	5348.6	
502.1	7094.2	
502.29	7309.2	
502.49	5767.1	
502.69	6292.7	
502.89	7252.5	
503.09	7300.3	
503.28	4847.5	
503.48	5010.7	
503.68	6485.2	
503.88	6614.3	
504.07	5988.9	
504.27	5464.7	
504.47	6979.5	
504.67	7122.8	
504.86	5920.7	
505.06	5674.2	
505.26	6669.6	
505.46	8567.3	
505.65	5484.5	
505.85	5785.5	
506.05	6642.2	
506.25	7106.5	
506.44	4939	
506.64	5941.8	
506.84	6572.6	
507.04	7511.9	
507.23	5114.5	
507.43	5751.4	
507.63	8677.2	
507.83	6872.3	
508.02	5674.9	
508.22	5286.5	
508.42	8817.9	
508.62	6566.5	
508.81	5923.4	
509.01	6177.4	
509.21	6534.4	
509.4	6783.6	
509.6	5836.7	
509.8	5154.7	
510	6757.6	
510.19	8275.2	
510.39	5135.6	
510.59	5096.7	
510.79	6479.8	
510.98	7980.9	
511.18	5136.3	
511.38	5375.2	
511.57	7290.1	
511.77	7221.1	
511.97	6060.6	
512.17	5036	
512.36	7353.6	
512.56	7375.4	
512.76	5068	
512.95	4841.4	
513.15	7519.5	
513.35	6095.4	
513.55	5963.7	
513.74	5112.4	
513.94	7497.6	
514.14	6745.3	
514.33	5994.4	
514.53	5816.2	
514.73	6728.9	
514.92	6924.9	
515.12	5261.9	
515.32	5024.3	
515.51	6989.7	
515.71	7551.5	
515.91	6911.2	
516.11	5125.4	
516.3	8717.5	
516.5	6592.4	
516.7	5665.4	
516.89	6208.1	
517.09	6688.7	
517.29	6584.9	
517.48	6155.5	
517.68	5298.8	
517.88	6437.4	
518.07	6993.8	
518.27	5897.5	
518.47	4842.8	
518.66	7673.1	
518.86	6208.8	
519.06	4723.3	
519.25	5196.4	
519.45	6574.7	
519.65	8043.7	
519.84	5750	
520.04	6481.8	
520.24	8434.9	
520.43	7178.8	
520.63	5509	
520.83	5294	
521.02	6429.3	
521.22	7163.1	
521.42	5859.9	
521.61	6401.3	
521.81	6710.5	
522.01	6856.6	
522.2	5688.6	
522.4	5522.7	
522.6	7381.6	
522.79	6181.5	
522.99	5506.3	
523.18	4882.4	
523.38	7081.2	
523.58	7029.3	
523.77	6754.2	
523.97	4685.1	
524.17	8843.8	
524.36	8011.7	
524.56	5991.7	
524.76	5691.3	
524.95	6853.9	
525.15	6569.9	
525.34	5408.7	
525.54	5417.6	
525.74	7176.8	
525.93	6138.4	
526.13	6563.7	
526.33	5324.7	
526.52	7500.3	
526.72	6962.4	
526.91	6507.8	
527.11	5739.1	
527.31	7555	
527.5	7908.6	
527.7	5612.8	
527.89	4633.2	
528.09	6340.5	
528.29	6933.1	
528.48	6115.9	
528.68	5694	
528.87	7276.4	
529.07	7431.4	
529.27	5536.3	
529.46	5055.1	
529.66	6860	
529.85	7284.6	
530.05	4835.3	
530.25	5744.6	
530.44	8337.3	
530.64	6965.8	
530.83	5338.4	
531.03	5569.1	
531.23	7279.2	
531.42	7228	
531.62	6322.1	
531.81	5500.2	
532.01	7354.9	
532.21	7785.7	
532.4	5182.7	
532.6	5526.1	
532.79	8374.1	
532.99	7335.8	
533.18	5585.5	
533.38	6551.5	
533.58	6834.8	
533.77	7638.9	
533.97	5339.7	
534.16	6184.2	
534.36	7731.8	
534.55	6797.2	
534.75	6380.1	
534.95	5439.4	
535.14	7591.8	
535.34	6798.6	
535.53	5124.7	
535.73	7146.7	
535.92	8281.3	
536.12	7103	
536.31	5263.3	
536.51	6507.1	
536.71	7318.8	
536.9	6949.4	
537.1	5424.4	
537.29	5565.7	
537.49	7759.8	
537.68	6778.8	
537.88	5894.1	
538.07	5152	
538.27	6984.9	
538.46	8114.7	
538.66	5026.4	
538.86	5405.3	
539.05	7012.9	
539.25	7474.4	
539.44	5658.5	
539.64	5368.4	
539.83	6873.7	
540.03	7901.1	
540.22	5208	
540.42	5378.6	
540.61	7187	
540.81	7285.3	
541	5831.9	
541.2	6557.6	
541.39	6694.8	
541.59	7048.4	
541.78	6066.8	
541.98	5227.8	
542.18	6395.8	
542.37	6369.9	
542.57	5677.7	
542.76	6130.9	
542.96	6505.7	
543.15	7264.8	
543.35	5709.1	
543.54	5098.8	
543.74	7664.9	
543.93	7163.8	
544.13	5854.5	
544.32	6830.7	
544.52	7484.6	
544.71	6608.8	
544.91	4874.2	
545.1	6214.2	
545.3	6714.6	
545.49	7447.8	
545.69	4812.7	
545.88	5431.9	
546.08	8340.7	
546.27	7995.3	
546.47	6026.5	
546.66	5255.1	
546.86	7643	
547.05	8243.1	
547.24	5496.1	
547.44	5296	
547.63	6597.2	
547.83	7774.1	
548.02	5629.9	
548.22	5889.3	
548.41	6457.2	
548.61	7783.6	
548.8	5261.9	
549	5184.1	
549.19	7150.1	
549.39	7283.9	
549.58	5005.9	
549.78	5599.1	
549.97	7498.3	
550.17	7025.9	
550.36	6479.8	
550.55	7432.8	
550.75	7009.5	
550.94	7931.8	
551.14	5247.6	
551.33	5701.5	
551.53	6324.1	
551.72	7313.3	
551.92	5752.1	
552.11	5433.9	
552.31	7384.3	
552.5	7439.6	
552.69	7293.5	
552.89	5104.9	
553.08	7359	
553.28	7109.9	
553.47	5496.1	
553.67	6606.1	
553.86	8111.3	
554.06	6360.3	
554.25	4686.4	
554.44	5274.9	
554.64	8757.8	
554.83	8342.1	
555.03	5250.3	
555.22	5585.5	
555.42	7585	
555.61	7314.7	
555.8	5459.2	
556	5803.3	
556.19	6447	
556.39	7664.9	
556.58	5484.5	
556.78	5510.4	
556.97	7224.6	
557.16	6917.4	
557.36	6752.8	
557.55	5046.2	
557.75	6227.2	
557.94	7912.7	
558.13	5341.8	
558.33	4987.5	
558.52	7742	
558.72	6690.7	
558.91	5134.3	
559.1	5380	
559.3	6326.9	
559.49	6110.5	
559.69	4694.6	
559.88	5809.4	
560.07	7215	
560.27	7693.5	
560.46	5926.1	
560.66	6096.8	
560.85	7004.7	
561.04	6204	
561.24	5093.3	
561.43	5380	
561.63	6462	
561.82	6751.5	
562.01	6654.5	
562.21	5754.8	
562.4	7239.6	
562.59	8147.5	
562.79	5522	
562.98	5122.7	
563.18	7121.5	
563.37	8563.9	
563.56	5967.1	
563.76	5020.9	
563.95	6563.1	
564.14	6467.5	
564.34	5402.5	
564.53	5182.7	
564.73	7086	
564.92	7424.6	
565.11	5495.4	
565.31	4970.4	
565.5	7675.1	
565.69	6498.9	
565.89	5182.7	
566.08	5441.5	
566.27	7449.1	
566.47	7851.9	
566.66	6003.3	
566.85	4664.6	
567.05	7113.3	
567.24	6440.2	
567.44	5031.9	
567.63	6423.8	
567.82	7385.7	
568.02	7028.6	
568.21	5130.8	
568.4	5440.1	
568.6	6845	
568.79	6983.6	
568.98	4851	
569.18	5052.3	
569.37	6845.7	
569.56	8908.7	
569.76	5388.2	
569.95	6338.5	
570.14	7223.9	
570.34	7016.3	
570.53	4851.6	
570.72	4846.2	
570.91	7659.4	
571.11	6746.7	
571.3	5320.6	
571.49	6365.8	
571.69	6812.2	
571.88	6401.3	
572.07	5912.5	
572.27	5939.8	
572.46	6391	
572.65	7499	
572.85	5091.3	
573.04	5434.6	
573.23	7610.3	
573.43	6907.1	
573.62	4893.3	
573.81	5509.7	
574	6823.8	
574.2	6671.6	
574.39	5127.4	
574.58	5264.6	
574.78	7640.3	
574.97	6901.7	
575.16	5649	
575.36	5869.5	
575.55	7247.1	
575.74	7510.6	
575.93	4698.7	
576.13	5803.9	
576.32	6658.6	
576.51	7241.6	
576.71	5190.9	
576.9	6476.4	
577.09	7603.4	
577.28	7079.8	
577.48	5707	
577.67	4629.1	
577.86	6774.7	
578.05	7037.5	
578.25	5284.4	
578.44	5410.1	
578.63	6821.8	
578.83	8033.5	
579.02	4663.2	
579.21	6281.1	
579.4	7012.9	
579.6	6686.6	
579.79	5499.5	
579.98	7677.2	
580.17	7435.5	
580.37	7447.8	
580.56	4945.2	
580.75	5666.7	
580.94	7917.4	
581.14	7749.5	
581.33	6145.3	
581.52	5120.6	
581.71	7169.3	
581.91	7925	
582.1	4650.3	
582.29	5306.3	
582.48	6886.6	
582.68	6739.9	
582.87	5905.7	
583.06	5418.9	
583.25	7149.5	
583.45	6831.3	
583.64	6111.8	
583.83	6823.1	
584.02	6670.9	
584.21	7098.9	
584.41	6014.9	
584.6	5341.1	
584.79	6797.2	
584.98	7608.2	
585.18	4815.5	
585.37	4785.4	
585.56	6333.7	
585.75	7172	
585.94	5092.6	
586.14	5703.6	
586.33	7877.9	
586.52	6851.1	
586.71	5644.9	
586.91	5357.5	
587.1	6326.2	
587.29	7272.3	
587.48	5316.5	
587.67	5092.6	
587.87	7218.4	
588.06	7331.7	
588.25	6601.3	
588.44	5782.8	
588.63	6927.6	
588.83	7480.5	
589.02	5274.9	
589.21	5190.9	
589.4	6676.4	
589.59	6512.5	
589.78	4551.3	
589.98	4869.4	
590.17	6299.6	
590.36	6930.3	
590.55	4310.3	
590.74	5240.8	
590.94	8426	
591.13	6925.5	
591.32	5021.6	
591.51	4558.1	
591.7	7290.8	
591.89	6679.8	
592.09	4630.5	
592.28	5096.7	
592.47	6021	
592.66	7900.4	
592.85	4595	
593.05	4879.6	
593.24	6617	
593.43	7379.5	
593.62	4846.2	
593.81	5339.1	
594	6613.6	
594.19	6886.6	
594.39	4835.3	
594.58	4700.8	
594.77	6995.9	
594.96	7533.1	
595.15	4645.5	
595.34	5375.2	
595.54	7093.5	
595.73	6133.7	
595.92	4126	
596.11	5256.5	
596.3	7636.2	
596.49	6201.9	
596.68	5055.8	
596.88	5573.9	
597.07	7285.3	
597.26	6055.8	
597.45	4627	
597.64	5856.5	
597.83	6324.8	
598.02	6931.7	
598.22	4719.9	
598.41	5420.3	
598.6	6728.3	
598.79	6249	
598.98	4725.3	
599.17	5702.2	
599.36	6769.9	
599.55	8059.4	
599.74	6866.2	
599.94	6588.3	
600.13	7300.3	
600.32	6130.3	
600.51	4478.9	
600.7	4645.5	
600.89	8050.6	
601.08	8075.8	
601.27	4431.1	
601.47	5445.5	
601.66	7328.3	
601.85	7877.9	
602.04	5094	
602.23	5320.6	
602.42	6326.9	
602.61	6938.5	
602.8	5044.1	
602.99	4843.4	
603.18	6718.7	
603.37	6993.8	
603.57	5535.7	
603.76	6084.5	
603.95	7802.1	
604.14	7222.5	
604.33	4889.9	
604.52	5196.4	
604.71	6834.1	
604.9	6472.3	
605.09	5885.2	
605.28	5672.2	
605.47	7494.2	
605.66	7207.5	
605.86	5495.4	
606.05	4890.5	
606.24	7409.6	
606.43	6079.7	
606.62	5231.9	
606.81	5998.5	
607	7357.7	
607.19	6662	
607.38	4681.7	
607.57	4973.8	
607.76	6408.1	
607.95	5941.2	
608.14	5359.5	
608.33	6038.1	
608.52	6521.4	
608.72	7368.6	
608.91	4604.5	
609.1	4579.9	
609.29	6565.8	
609.48	6072.9	
609.67	5640.8	
609.86	4601.8	
610.05	6182.8	
610.24	6497.5	
610.43	4472.1	
610.62	4156.7	
610.81	7795.3	
611	7464.2	
611.19	4610	
611.38	5378	
611.57	6769.9	
611.76	8204.2	
611.95	4382	
612.14	4321.9	
612.33	6630.6	
612.52	6111.8	
612.71	4977.2	
612.9	4115.1	
613.09	5760.9	
613.28	8104.5	
613.47	4653	
613.66	5688.6	
613.85	6759	
614.04	6309.8	
614.24	4789.5	
614.43	4036.5	
614.62	6879.8	
614.81	6817	
615	5383.4	
615.19	5330.2	
615.38	6162.3	
615.57	6489.3	
615.76	5251	
615.95	6113.9	
616.14	6958.3	
616.33	6577.4	
616.52	5532.2	
616.71	5769.1	
616.9	6835.4	
617.09	6713.9	
617.28	4861.9	
617.47	6118	
617.66	5912.5	
617.85	5929.6	
618.04	5735	
618.22	5183.4	
618.41	6191	
618.6	7238.9	
618.79	5063.9	
618.98	4677.6	
619.17	7391.1	
619.36	5799.8	
619.55	4881.7	
619.74	4952.7	
619.93	6696.9	
620.12	6096.1	
620.31	5478.3	
620.5	5550	
620.69	7264.1	
620.88	7653.9	
621.07	6369.9	
621.26	5248.9	
621.45	6793.1	
621.64	6866.2	
621.83	5469.4	
622.02	4487.8	
622.21	6840.2	
622.4	6588.3	
622.59	5964.4	
622.78	5689.9	
622.97	6158.2	
623.16	7188.4	
623.35	5286.5	
623.54	4509.6	
623.72	6419.7	
623.91	6560.3	
624.1	5561.6	
624.29	4161.5	
624.48	7634.1	
624.67	6855.9	
624.86	5495.4	
625.05	4543.8	
625.24	7789.8	
625.43	6115.9	
625.62	7272.3	
625.81	4673.5	
626	7133.8	
626.19	6372.6	
626.38	5483.1	
626.56	4904.2	
626.75	6162.3	
626.94	6933.7	
627.13	5552.7	
627.32	4154.6	
627.51	6915.3	
627.7	8312	
627.89	4305.5	
628.08	5490.6	
628.27	6010.8	
628.46	6294.1	
628.65	4646.8	
628.83	4212	
629.02	6915.3	
629.21	6203.3	
629.4	5110.4	
629.59	5265.3	
629.78	6060.6	
629.97	7085.3	
630.16	5319.9	
630.35	4796.3	
630.54	7547.4	
630.72	7197.9	
630.91	4733.5	
631.1	5390.3	
631.29	6705	
631.48	6853.2	
631.67	5465.3	
631.86	4917.2	
632.05	6231.3	
632.24	6339.1	
632.42	4562.9	
632.61	5221	
632.8	6453.1	
632.99	6077	
633.18	5201.2	
633.37	5579.3	
633.56	6653.2	
633.75	6457.9	
633.93	5160.2	
634.12	4788.2	
634.31	7477.1	
634.5	7081.2	
634.69	4971.1	
634.88	5404.6	
635.07	6430.6	
635.25	7061.4	
635.44	5833.3	
635.63	6004.6	
635.82	6278.4	
636.01	5799.2	
636.2	5746.6	
636.39	5259.2	
636.57	7410.9	
636.76	7208.2	
636.95	4629.8	
637.14	6152.1	
637.33	6752.8	
637.52	7758.4	
637.7	4455.7	
637.89	5418.9	
638.08	6361	
638.27	7890.1	
638.46	5560.2	
638.65	5948	
638.83	7853.3	
639.02	6133	
639.21	5435.3	
639.4	5965.1	
639.59	6709.8	
639.78	6248.4	
639.96	4795.7	
640.15	4823.6	
640.34	6561	
640.53	6802	
640.72	4526.7	
640.91	4857.8	
641.09	6062.7	
641.28	7428.7	
641.47	4943.8	
641.66	5778.7	
641.85	6780.1	
642.03	7135.1	
642.22	5523.4	
642.41	4979.3	
642.6	6119.3	
642.79	5582.8	
642.97	4789.5	
643.16	5527.5	
643.35	6134.3	
643.54	5975.3	
643.73	4693.3	
643.91	5573.2	
644.1	5844.2	
644.29	6451.8	
644.48	4842.8	
644.67	4883	
644.85	6070.2	
645.04	6473.6	
645.23	4465.3	
645.42	4763.6	
645.6	5988.3	
645.79	7233.4	
645.98	4775.9	
646.17	3844	
646.36	5767.1	
646.54	6453.8	
646.73	5760.3	
646.92	4448.2	
647.11	6068.8	
647.29	7244.3	
647.48	4552	
647.67	4322.6	
647.86	7486	
648.05	7409.6	
648.23	4859.1	
648.42	6206	
648.61	6828.6	
648.8	6472.9	
648.98	4540.3	
649.17	4919.9	
649.36	6068.1	
649.55	5516.5	
649.73	4625.7	
649.92	5390.3	
650.11	5964.4	
650.3	6326.9	
650.48	4786.1	
650.67	4510.3	
650.86	6665.5	
651.05	5571.8	
651.23	4764.3	
651.42	4655	
651.61	6076.3	
651.79	6225.8	
651.98	4935.6	
652.17	4517.8	
652.36	6592.4	
652.54	5655.1	
652.73	4573.8	
652.92	4347.2	
653.11	6642.2	
653.29	6679.8	
653.48	3889.8	
653.67	4859.8	
653.85	6408.1	
654.04	7380.2	
654.23	5185.5	
654.42	4638	
654.6	5971.9	
654.79	6689.3	
654.98	4216.1	
655.16	4837.3	
655.35	5671.5	
655.54	5650.3	
655.73	4330.8	
655.91	4294.6	
656.1	6814.3	
656.29	5586.2	
656.47	3860.4	
656.66	5610.1	
656.85	5840.8	
657.03	5866.7	
657.22	4384.7	
657.41	4459.1	
657.59	5940.5	
657.78	5660.6	
657.97	3987.4	
658.16	4790.2	
658.34	6636.8	
658.53	6945.3	
658.72	5670.8	
658.9	6281.1	
659.09	5926.8	
659.28	6070.2	
659.46	4508.3	
659.65	4451.6	
659.84	5807.4	
660.02	6295.5	
660.21	4422.2	
660.4	4319.2	
660.58	6758.3	
660.77	6058.6	
660.96	4953.4	
661.14	3953.3	
661.33	7222.5	
661.52	7133.8	
661.7	3876.8	
661.89	7725.6	
662.08	5745.2	
662.26	5319.9	
662.45	4211.3	
662.64	4376.5	
662.82	6415.6	
663.01	5577.3	
663.2	4390.2	
663.38	5160.2	
663.57	6307.1	
663.75	6251.8	
663.94	4653.7	
664.13	6107.7	
664.31	5696.1	
664.5	6504.3	
664.69	4961.5	
664.87	5569.1	
665.06	5429.8	
665.25	6208.1	
665.43	5774.6	
665.62	5760.9	
665.8	6651.1	
665.99	5907	
666.18	4726.7	
666.36	4854.4	
666.55	6488.6	
666.74	6448.4	
666.92	4365.6	
667.11	6072.9	
667.29	5864.7	
667.48	6516.6	
667.67	5616.9	
667.85	4713.7	
668.04	5941.2	
668.22	5890	
668.41	4859.1	
668.6	4962.2	
668.78	5734.3	
668.97	5935	
669.15	5178.6	
669.34	4126.7	
669.53	5726.8	
669.71	6066.8	
669.9	4305.5	
670.08	4939.7	
670.27	5698.8	
670.46	6354.8	
670.64	5227.8	
670.83	5429.2	
671.01	5637.4	
671.2	6255.2	
671.38	4339.6	
671.57	4244.1	
671.76	6975.4	
671.94	7561.1	
672.13	4223.6	
672.31	5326.8	
672.5	6414.2	
672.69	5684.5	
672.87	4367.6	
673.06	4674.8	
673.24	6266.1	
673.43	5763	
673.61	5147.9	
673.8	4663.2	
673.98	6531	
674.17	6594.5	
674.36	5282.4	
674.54	5113.1	
674.73	6229.9	
674.91	6534.4	
675.1	4739	
675.28	4435.2	
675.47	6016.9	
675.65	6559	
675.84	4667.3	
676.03	4983.4	
676.21	5757.5	
676.4	5264	
676.58	5561.6	
676.77	5201.8	
676.95	7286	
677.14	5705.6	
677.32	4353.3	
677.51	4102.1	
677.69	6492.1	
677.88	5419.6	
678.06	4155.3	
678.25	4326	
678.44	6031.3	
678.62	5716.6	
678.81	4080.9	
678.99	5044.8	
679.18	6861.4	
679.36	6417.7	
679.55	4612	
679.73	5248.9	
679.92	6331.6	
680.1	5713.2	
680.29	5842.9	
680.47	4626.4	
680.66	5659.2	
680.84	6575.3	
681.03	3873.4	
681.21	5129.5	
681.4	5757.5	
681.58	5614.8	
681.77	4362.2	
681.95	4319.2	
682.14	6536.4	
682.32	6990.4	
682.51	5280.3	
682.69	4102.8	
682.88	5664	
683.06	6436.1	
683.25	5026.4	
683.43	5436	
683.62	5924.8	
683.8	6468.9	
683.99	5575.9	
684.17	4826.4	
684.36	7250.5	
684.54	5889.3	
684.73	4133.5	
684.91	4353.3	
685.1	6308.4	
685.28	5755.5	
685.46	4962.2	
685.65	5053	
685.83	6581.5	
686.02	5956.2	
686.2	4457.1	
686.39	4579.3	
686.57	5531.6	
686.76	7197.9	
686.94	4407.2	
687.13	4552.6	
687.31	6438.8	
687.5	5894.7	
687.68	3981.3	
687.86	5259.2	
688.05	7443	
688.23	5352	
688.42	5338.4	
688.6	4431.1	
688.79	5800.5	
688.97	5794.4	
689.16	4884.4	
689.34	3775.8	
689.52	6421.7	
689.71	6786.3	
689.89	5113.1	
690.08	4373.8	
690.26	5962.3	
690.45	5871.5	
690.63	5375.9	
690.81	4495.3	
691	5724.1	
691.18	5707.7	
691.37	4776.5	
691.55	7023.2	
691.74	5674.9	
691.92	7787.7	
692.1	4707.6	
692.29	4192.9	
692.47	5979.4	
692.66	5196.4	
692.84	4367.6	
693.02	5039.4	
693.21	5308.3	
693.39	5909.1	
693.58	5006.6	
693.76	4454.3	
693.94	7021.8	
694.13	6791.7	
694.31	4297.3	
694.5	5459.2	
694.68	5598.5	
694.86	5866.1	
695.05	4777.2	
695.23	5101.5	
695.42	6279.1	
695.6	8738	
695.78	5382.1	
695.97	4397	
696.15	6323.4	
696.34	5744.6	
696.52	4157.4	
696.7	4912.4	
696.89	6103.6	
697.07	5504.3	
697.25	4946.5	
697.44	6612.2	
697.62	6027.9	
697.81	6483.9	
697.99	4643.4	
698.17	5109	
698.36	5403.2	
698.54	6126.2	
698.72	4969.7	
698.91	4029.7	
699.09	5698.8	
699.28	5528.2	
699.46	4635.2	
699.64	4511	
699.83	5492	
700.01	6824.5	
700.19	5373.2	
700.38	3701.4	
700.56	6775.4	
700.74	5631.9	
700.93	4164.2	
701.11	4965	
701.29	6143.2	
701.48	7170.6	
701.66	4318.5	
701.84	4328	
702.03	5672.2	
702.21	6343.2	
702.39	3850.2	
702.58	4485.1	
702.76	6135.7	
702.94	6173.3	
703.13	3892.5	
703.31	6502.3	
703.49	5365	
703.68	6922.8	
703.86	4074.1	
704.04	5141.1	
704.23	5963	
704.41	6301.6	
704.59	4298.7	
704.78	5638.7	
704.96	7063.4	
705.14	6320	
705.33	4020.2	
705.51	4945.8	
705.69	5749.3	
705.87	6668.2	
706.06	5180.7	
706.24	3943	
706.42	6021.7	
706.61	6318.7	
706.79	5308.3	
706.97	4020.8	
707.16	5498.1	
707.34	6121.4	
707.52	5197.1	
707.7	4305.5	
707.89	5698.8	
708.07	5358.2	
708.25	5203.2	
708.44	5251	
708.62	5542.5	
708.8	6762.4	
708.98	5483.1	
709.17	4311	
709.35	6075	
709.53	6043.6	
709.72	4088.4	
709.9	4203.8	
710.08	6232.7	
710.26	6323.4	
710.45	5795.8	
710.63	4454.3	
710.81	5972.6	
710.99	6010.1	
711.18	4984.1	
711.36	4595.6	
711.54	5781.4	
711.72	6548.7	
711.91	4638	
712.09	4038.6	
712.27	6014.9	
712.45	6674.3	
712.64	4986.8	
712.82	3920.5	
713	5492.7	
713.18	5655.1	
713.37	4141.7	
713.55	5378.6	
713.73	6634.1	
713.91	5238	
714.1	4657.8	
714.28	4127.3	
714.46	6367.8	
714.64	5602.6	
714.83	3656.3	
715.01	4564.9	
715.19	5829.2	
715.37	5131.5	
715.55	4262.5	
715.74	4603.2	
715.92	6775.4	
716.1	4730.8	
716.28	5821	
716.47	4795	
716.65	5447.6	
716.83	5566.4	
717.01	4658.4	
717.19	4773.1	
717.38	7660.1	
717.56	5233.2	
717.74	4965.6	
717.92	3971	
718.1	6446.3	
718.29	5642.8	
718.47	3554.6	
718.65	4241.3	
718.83	6250.4	
719.01	6154.1	
719.2	3335.5	
719.38	4455	
719.56	5866.1	
719.74	7346.1	
719.92	3995.6	
720.11	5141.1	
720.29	5881.1	
720.47	5087.8	
720.65	3620.1	
720.83	4543.8	
721.02	5464.7	
721.2	5235.3	
721.38	4680.3	
721.56	3904.8	
721.74	4800.4	
721.92	4943.8	
722.11	5270.1	
722.29	4857.1	
722.47	6290.7	
722.65	5448.3	
722.83	3955.3	
723.01	4942.4	
723.2	5551.4	
723.38	5784.8	
723.56	3347.7	
723.74	4584.7	
723.92	4988.2	
724.1	6221.7	
724.29	3895.2	
724.47	5080.3	
724.65	5091.3	
724.83	5016.2	
725.01	3784.6	
725.19	4725.3	
725.37	5116.5	
725.56	5149.3	
725.74	3637.9	
725.92	3899.3	
726.1	4971.1	
726.28	5287.9	
726.46	4380.6	
726.64	4069.3	
726.83	5258.5	
727.01	5588.9	
727.19	3586.7	
727.37	4534.9	
727.55	5350.7	
727.73	5943.2	
727.91	3577.1	
728.09	3440.6	
728.28	5942.5	
728.46	6640.2	
728.64	4653	
728.82	4623.6	
729	7083.9	
729.18	6276.3	
729.36	3756.7	
729.54	6170.5	
729.72	7258.7	
729.91	5530.2	
730.09	5642.8	
730.27	4338.3	
730.45	5352	
730.63	6087.9	
730.81	4934.9	
730.99	3953.3	
731.17	6505	
731.35	5110.4	
731.53	4528.1	
731.71	4097.3	
731.9	6217	
732.08	6472.3	
732.26	4411.3	
732.44	4052.2	
732.62	6511.2	
732.8	5943.2	
732.98	4831.2	
733.16	3877.5	
733.34	6004.6	
733.52	4786.1	
733.7	4416.1	
733.88	4719.2	
734.07	5902.2	
734.25	5586.9	
734.43	3800.3	
734.61	5444.9	
734.79	7135.8	
734.97	5457.2	
735.15	3975.8	
735.33	4295.3	
735.51	5868.8	
735.69	5513.1	
735.87	5488.6	
736.05	4564.2	
736.23	5680.4	
736.41	5464	
736.59	4375.1	
736.77	4490.5	
736.95	6148.7	
737.13	5593.7	
737.32	4034.5	
737.5	4262.5	
737.68	6733.7	
737.86	5430.5	
738.04	3794.2	
738.22	5818.3	
738.4	5352.7	
738.58	5594.4	
738.76	4543.1	
738.94	3384.6	
739.12	5429.2	
739.3	5248.9	
739.48	5111.7	
739.66	4898.7	
739.84	5710.4	
740.02	5634.6	
740.2	3509.5	
740.38	3956	
740.56	6047	
740.74	4933.6	
740.92	4614.8	
741.1	4571.7	
741.28	5524.7	
741.46	5311.1	
741.64	4184	
741.82	4637.3	
742	5525.4	
742.18	5530.9	
742.36	4414.7	
742.54	3899.3	
742.72	6153.5	
742.9	4856.4	
743.08	4838	
743.26	3562.1	
743.44	6408.1	
743.62	6223.8	
743.8	4949.9	
743.98	4012	
744.16	5937.7	
744.34	5633.3	
744.52	4888.5	
744.7	4808.6	
744.88	6098.2	
745.06	5608	
745.24	4947.9	
745.42	5040.7	
745.6	6171.9	
745.78	5961	
745.96	3730	
746.14	4085.7	
746.32	7064.1	
746.5	6220.4	
746.68	4764.9	
746.86	4185.4	
747.03	6720.8	
747.21	4892.6	
747.39	4704.2	
747.57	4182.6	
747.75	5845.6	
747.93	6273.6	
748.11	4091.8	
748.29	4118.5	
748.47	7461.4	
748.65	5563.6	
748.83	4897.4	
749.01	4630.5	
749.19	6041.5	
749.37	5268.1	
749.55	4504.8	
749.73	4558.1	
749.91	5677.7	
750.09	5457.8	
750.26	4604.5	
750.44	4016.1	
750.62	5807.4	
750.8	5694.7	
750.98	3882.3	
751.16	4268	
751.34	5859.9	
751.52	5178.6	
751.7	5065.3	
751.88	3814.7	
752.06	6315.3	
752.24	6159.6	
752.42	3777.8	
752.59	4224.3	
752.77	5777.3	
752.95	7008.8	
753.13	4952	
753.31	4279.6	
753.49	5372.5	
753.67	5922.7	
753.85	4660.5	
754.03	4219.5	
754.21	6199.9	
754.38	6574	
754.56	4445.5	
754.74	3480.9	
754.92	5433.9	
755.1	6328.2	
755.28	3569.6	
755.46	3613.3	
755.64	7147.4	
755.82	7243	
755.99	4085	
756.17	4253.6	
756.35	4802.5	
756.53	6426.5	
756.71	3076.7	
756.89	4095.3	
757.07	6053.8	
757.25	5078.3	
757.42	4599.7	
757.6	5517.2	
757.78	5973.9	
757.96	4894	
758.14	4240.7	
758.32	3678.2	
758.5	4487.1	
758.67	5374.6	
758.85	4095.9	
759.03	4217.5	
759.21	5577.3	
759.39	4976.6	
759.57	3645.4	
759.75	4904.2	
759.92	6206	
760.1	5421.7	
760.28	5170.4	
760.46	5400.5	
760.64	5193	
760.82	4879.6	
760.99	5021.6	
761.17	4059.1	
761.35	6047.7	
761.53	4929.5	
761.71	4234.5	
761.89	4984.8	
762.06	5867.4	
762.24	5345.9	
762.42	4267.3	
762.6	4044.7	
762.78	5332.9	
762.96	6029.2	
763.13	4625	
763.31	4368.3	
763.49	6256.5	
763.67	5223	
763.85	5231.2	
764.02	5767.1	
764.2	6432.7	
764.38	5527.5	
764.56	4220.9	
764.74	5117.2	
764.91	6606.1	
765.09	5479.7	
765.27	3804.4	
765.45	3626.3	
765.63	6597.2	
765.8	6490	
765.98	3377.1	
766.16	3842	
766.34	5006.6	
766.52	4793.6	
766.69	4711	
766.87	3584.6	
767.05	5439.4	
767.23	6180.1	
767.41	3887.7	
767.58	4225.6	
767.76	6113.2	
767.94	6190.3	
768.12	4033.1	
768.29	4892.6	
768.47	5536.3	
768.65	6326.2	
768.83	3717.1	
769	4876.2	
769.18	5107	
769.36	5933	
769.54	4926	
769.72	3807.9	
769.89	6172.6	
770.07	6305.7	
770.25	4104.8	
770.43	5427.1	
770.6	6966.5	
770.78	7453.2	
770.96	4330.1	
771.14	5004.6	
771.31	6094.8	
771.49	5408	
771.67	3460.4	
771.85	3753.2	
772.02	4671.4	
772.2	5442.1	
772.38	4462.5	
772.55	3943.7	
772.73	5744.6	
772.91	5522	
773.09	4362.9	
773.26	4475.5	
773.44	5686.5	
773.62	5453.7	
773.8	3906.2	
773.97	3590.1	
774.15	5842.9	
774.33	5481	
774.5	3805.1	
774.68	4207.2	
774.86	5952.8	
775.04	5433.9	
775.21	3871.3	
775.39	3959.4	
775.57	5741.1	
775.74	6223.1	
775.92	3746.4	
776.1	3651.5	
776.27	5779.4	
776.45	7045	
776.63	3908.9	
776.81	3368.9	
776.98	5341.8	
777.16	6562.4	
777.34	4071.4	
777.51	4082.3	
777.69	5237.3	
777.87	5069.4	
778.04	4126.7	
778.22	4812.7	
778.4	5166.3	
778.57	5817.6	
778.75	3434.4	
778.93	3662.5	
779.1	4949.3	
779.28	4803.2	
779.46	3482.2	
779.64	3869.3	
779.81	6013.5	
779.99	6913.3	
780.17	4708.3	
780.34	4934.9	
780.52	5414.8	
780.69	5704.3	
780.87	4280.9	
781.05	3803.1	
781.22	5499.5	
781.4	5595.1	
781.58	4007.2	
781.75	3084.2	
781.93	5596.4	
782.11	4903.5	
782.28	4816.8	
782.46	3955.3	
782.64	4745.1	
782.81	5868.1	
782.99	4023.6	
783.17	4046.8	
783.34	5644.2	
783.52	4838.7	
783.69	4263.9	
783.87	5117.9	
784.05	5025.7	
784.22	4922	
784.4	5084.4	
784.58	4349.9	
784.75	5960.3	
784.93	5010	
785.1	4003.8	
785.28	4700.8	
785.46	5676.3	
785.63	4960.2	
785.81	3967.6	
785.99	3848.1	
786.16	5121.3	
786.34	5581.4	
786.51	3890.5	
786.69	4284.4	
786.87	4754	
787.04	5279	
787.22	3748.5	
787.39	4720.6	
787.57	4943.8	
787.75	6115.2	
787.92	4924.7	
788.1	4855.7	
788.27	4995	
788.45	4755.4	
788.63	4563.6	
788.8	3251.5	
788.98	5459.2	
789.15	4684.4	
789.33	3345.7	
789.5	4034.5	
789.68	5998.5	
789.86	6087.2	
790.03	4500.8	
790.21	3863.8	
790.38	5948.7	
790.56	5162.9	
790.73	3769.6	
790.91	3840.6	
791.09	5022.3	
791.26	5776.6	
791.44	4048.2	
791.61	3461.7	
791.79	5003.9	
791.96	5087.8	
792.14	3571.7	
792.32	3147	
792.49	5034.6	
792.67	5098.8	
792.84	3718.4	
793.02	3474	
793.19	5683.8	
793.37	6229.9	
793.54	3132.7	
793.72	3528.7	
793.89	6377.4	
794.07	5061.2	
794.25	4253.6	
794.42	3237.2	
794.6	6139.1	
794.77	5761.6	
794.95	4399	
795.12	3848.8	
795.3	5028.4	
795.47	5757.5	
795.65	4272.1	
795.82	4020.2	
796	4817.5	
796.17	6827.9	
796.35	3997	
796.52	4691.9	
796.7	5605.3	
796.87	5719.3	
797.05	4928.8	
797.22	4824.3	
797.4	5668.1	
797.57	6750.8	
797.75	4132.1	
797.92	3884.3	
798.1	5987.6	
798.27	5010	
798.45	3276.8	
798.62	3545.7	
798.8	5343.8	
798.97	5874.9	
799.15	4333.5	
799.32	4140.3	
799.5	4563.6	
799.67	5402.5	
799.85	4425	
800.02	3214.6	
800.2	5001.8	
800.37	5394.3	
800.55	4605.9	
800.72	3814.7	
800.9	5825.1	
801.07	6296.8	
801.25	5244.8	
801.42	4304.8	
801.6	5816.2	
801.77	5567.1	
801.95	3947.8	
802.12	3747.1	
802.29	5579.3	
802.47	5488.6	
802.64	4237.9	
802.82	3188.7	
802.99	4926.7	
803.17	6082.5	
803.34	4151.9	
803.52	3687	
803.69	6714.6	
803.87	4821.6	
804.04	4070	
804.21	4192.2	
804.39	6160.3	
804.56	5213.4	
804.74	3475.4	
804.91	4248.2	
805.09	5055.8	
805.26	5190.2	
805.44	3528.7	
805.61	3889.1	
805.78	5694	
805.96	5765	
806.13	4329.4	
806.31	4601.8	
806.48	4563.6	
806.66	5135.6	
806.83	4234.5	
807	4138.3	
807.18	4986.8	
807.35	5456.5	
807.53	4133.5	
807.7	3297.2	
807.87	6239.5	
808.05	5082.4	
808.22	4601.1	
808.4	3315.7	
808.57	5099.4	
808.74	4714.4	
808.92	3839.9	
809.09	4866.7	
809.27	4947.9	
809.44	5595.1	
809.61	3330	
809.79	3731.4	
809.96	6307.1	
810.14	5900.9	
810.31	3196.9	
810.48	3965.6	
810.66	5251	
810.83	5941.2	
811.01	3745.1	
811.18	4291.2	
811.35	5825.1	
811.53	4489.1	
811.7	4609.3	
811.87	4300.7	
812.05	5021.6	
812.22	5014.1	
812.39	3650.8	
812.57	3560.1	
812.74	5143.8	
812.92	6862.7	
813.09	4001	
813.26	4396.3	
813.44	6577.4	
813.61	5012.7	
813.78	3336.8	
813.96	4481	
814.13	5051	
814.3	4754	
814.48	4855.1	
814.65	3968.3	
814.82	6358.9	
815	4892.6	
815.17	4057	
815.34	5020.9	
815.52	5014.1	
815.69	5001.1	
815.87	4040.6	
816.04	3517.7	
816.21	5149.3	
816.38	4432.5	
816.56	3943.7	
816.73	3654.3	
816.9	6468.9	
817.08	5890.6	
817.25	3676.8	
817.42	4683.7	
817.6	4638	
817.77	5190.2	
817.94	4214	
818.12	3643.3	
818.29	4842.1	
818.46	7696.9	
818.64	3791.5	
818.81	3589.4	
818.98	4737	
819.16	6999.3	
819.33	4410	
819.5	4133.5	
819.67	5561.6	
819.85	6148	
820.02	4027	
820.19	4276.8	
820.37	5313.8	
820.54	4883	
820.71	4113.7	
820.88	5162.2	
821.06	5310.4	
821.23	4840.7	
821.4	4197.7	
821.58	4162.8	
821.75	5769.8	
821.92	5261.2	
822.09	3353.9	
822.27	3711.6	
822.44	5160.2	
822.61	4961.5	
822.79	3405.1	
822.96	6543.3	
823.13	5613.5	
823.3	4800.4	
823.48	3905.5	
823.65	3532.7	
823.82	5752.7	
823.99	4687.8	
824.17	4990.2	
824.34	3592.1	
824.51	6804.7	
824.68	5165	
824.86	3725.3	
825.03	4108.2	
825.2	5095.3	
825.37	6200.6	
825.55	3647.4	
825.72	4141.7	
825.89	6892.1	
826.06	6385.6	
826.24	4035.9	
826.41	4092.5	
826.58	6206.7	
826.75	5458.5	
826.92	3173	
827.1	3517	
827.27	8614.4	
827.44	6776.7	
827.61	3826.3	
827.79	4655	
827.96	4852.3	
828.13	5218.2	
828.3	3987.4	
828.47	3338.2	
828.65	5316.5	
828.82	5295.4	
828.99	5188.2	
829.16	4548.5	
829.34	5726.8	
829.51	5496.1	
829.68	4146.5	
829.85	4325.3	
830.02	6001.2	
830.2	5785.5	
830.37	3211.2	
830.54	5008	
830.71	6581.5	
830.88	5107	
831.05	3220.1	
831.23	3769.6	
831.4	6234.7	
831.57	7010.9	
831.74	3839.9	
831.91	3332	
832.09	5339.7	
832.26	5715.2	
832.43	3998.3	
832.6	4468.7	
832.77	5287.2	
832.94	6162.3	
833.12	3119.1	
833.29	3932.8	
833.46	4943.1	
833.63	7246.4	
833.8	4334.2	
833.97	3937.6	
834.15	5780.7	
834.32	5470.1	
834.49	4138.3	
834.66	4255	
834.83	6024.4	
835	4835.3	
835.17	3810.6	
835.35	3831.7	
835.52	5636	
835.69	5499.5	
835.86	4083.6	
836.03	3292.5	
836.2	5673.6	
836.37	5319.9	
836.55	3957.4	
836.72	3796.9	
836.89	5244.2	
837.06	5648.3	
837.23	4076.1	
837.4	4393.6	
837.57	6611.5	
837.75	7309.2	
837.92	3634.5	
838.09	3902.7	
838.26	5291.3	
838.43	6016.9	
838.6	4191.5	
838.77	3700.7	
838.94	6982.2	
839.11	6649.8	
839.29	3962.1	
839.46	3106.8	
839.63	5639.4	
839.8	5486.5	
839.97	3904.1	
840.14	3839.9	
840.31	5459.9	
840.48	5727.5	
840.65	3193.5	
840.82	3779.2	
841	5750.7	
841.17	5696.8	
841.34	3547.8	
841.51	3557.3	
841.68	5665.4	
841.85	5394.3	
842.02	3702.7	
842.19	3029.6	
842.36	5445.5	
842.53	5488.6	
842.7	3533.4	
842.87	4380.6	
843.05	7266.2	
843.22	5386.2	
843.39	3319.1	
843.56	3627.6	
843.73	5148.6	
843.9	5819.6	
844.07	5718.6	
844.24	4779.3	
844.41	8517.5	
844.58	4955.4	
844.75	3442.6	
844.92	3764.8	
845.09	5745.2	
845.26	5724.8	
845.43	3516.4	
845.6	3728.7	
845.77	5729.5	
845.94	5459.2	
846.12	3892.5	
846.29	4100	
846.46	5886.5	
846.63	5723.4	
846.8	3510.9	
846.97	4244.1	
847.14	6155.5	
847.31	5644.2	
847.48	3934.8	
847.65	4336.2	
847.82	6040.8	
847.99	5945.9	
848.16	4709	
848.33	4401.1	
848.5	5274.9	
848.67	6227.9	
848.84	3506.8	
849.01	3713.6	
849.18	5104.2	
849.35	4823.6	
849.52	4489.8	
849.69	3476.1	
849.86	5979.4	
850.03	6113.2	
850.2	3571	
850.37	4407.2	
850.54	6176	
850.71	5349.3	
850.88	4246.8	
851.05	3411.2	
851.22	5650.3	
851.39	6345.3	
851.56	3285.6	
851.73	4039.3	
851.9	4997	
852.07	5927.5	
852.24	3958	
852.41	3492.5	
852.58	5547.3	
852.75	5046.9	
852.92	3986	
853.09	3420.1	
853.26	5280.3	
853.43	6236.1	
853.6	3485.6	
853.77	3068.5	
853.94	6281.1	
854.11	5659.2	
854.28	5281	
854.44	3799.7	
854.61	6748.1	
854.78	5798.5	
854.95	3432.4	
855.12	4418.8	
855.29	4599.7	
855.46	6320	
855.63	3469.3	
855.8	4926.7	
855.97	5311.7	
856.14	6096.8	
856.31	5044.8	
856.48	3840.6	
856.65	5268.7	
856.82	4958.1	
856.99	3371	
857.16	3875.4	
857.33	6918	
857.49	5350.7	
857.66	3806.5	
857.83	4083	
858	5348.6	
858.17	5530.9	
858.34	3309.5	
858.51	3520.5	
858.68	6452.5	
858.85	6481.1	
859.02	4074.1	
859.19	4373.8	
859.36	4992.3	
859.52	4993.6	
859.69	3543.7	
859.86	4162.2	
860.03	5112.4	
860.2	6352.8	
860.37	3192.8	
860.54	3530	
860.71	5972.6	
860.88	6294.1	
861.05	3944.4	
861.21	4446.8	
861.38	6417.7	
861.55	4909	
861.72	3195.5	
861.89	3926.6	
862.06	6017.6	
862.23	6514.6	
862.4	3481.5	
862.56	3686.3	
862.73	5868.8	
862.9	5483.8	
863.07	4172.4	
863.24	3164.1	
863.41	4885.1	
863.58	5062.6	
863.75	3596.2	
863.91	4123.2	
864.08	6352.1	
864.25	5871.5	
864.42	4474.8	
864.59	4959.5	
864.76	6716.7	
864.93	5018.9	
865.09	3414	
865.26	3714.3	
865.43	6229.9	
865.6	6649.1	
865.77	3066.5	
865.94	3469.9	
866.1	6335.7	
866.27	6021.7	
866.44	5338.4	
866.61	3356.6	
866.78	5445.5	
866.95	5872.9	
867.11	3375.1	
867.28	3104	
867.45	6075.6	
867.62	5113.1	
867.79	4078.9	
867.96	3496.6	
868.12	5002.5	
868.29	6016.9	
868.46	3508.9	
868.63	4680.3	
868.8	6166.4	
868.97	5940.5	
869.13	3667.9	
869.3	3688.4	
869.47	5851	
869.64	6000.5	
869.81	3499.3	
869.97	3552.5	
870.14	5681.7	
870.31	6419	
870.48	3363.4	
870.65	4409.3	
870.81	5354.1	
870.98	5304.9	
871.15	4016.7	
871.32	3654.9	
871.48	5753.4	
871.65	6492.1	
871.82	3547.1	
871.99	3919.1	
872.16	6914.6	
872.32	6235.4	
872.49	3541.6	
872.66	3506.1	
872.83	5934.3	
872.99	5188.2	
873.16	4090.5	
873.33	3491.1	
873.5	5558.2	
873.67	5520.6	
873.83	3703.4	
874	4745.8	
874.17	5649.7	
874.34	6877.8	
874.5	4621.6	
874.67	4439.3	
874.84	6452.5	
875.01	4956.8	
875.17	5003.9	
875.34	3485	
875.51	5608	
875.68	6830	
875.84	4212	
876.01	5266.7	
876.18	5882.4	
876.34	5883.8	
876.51	3556.6	
876.68	3447.4	
876.85	5468.1	
877.01	6190.3	
877.18	5095.3	
877.35	3510.2	
877.52	5474.2	
877.68	4900.8	
877.85	3409.9	
878.02	3410.6	
878.18	5519.3	
878.35	5168.4	
878.52	2805.7	
878.69	3948.5	
878.85	5958.9	
879.02	5896.8	
879.19	5014.8	
879.35	3809.2	
879.52	5864.7	
879.69	6128.2	
879.86	3001.6	
880.02	3969.6	
880.19	5541.8	
880.36	6708.5	
880.52	4091.2	
880.69	4188.8	
880.86	6036.7	
881.02	6107.7	
881.19	3877.5	
881.36	3790.1	
881.52	5827.2	
881.69	5193	
881.86	3730.7	
882.02	3749.1	
882.19	6182.8	
882.36	7273.7	
882.52	3630.4	
882.69	4994.3	
882.86	5689.3	
883.02	5616.9	
883.19	4326	
883.36	4071.4	
883.52	6053.8	
883.69	6885.3	
883.86	3551.2	
884.02	3139.5	
884.19	6028.5	
884.36	5504.9	
884.52	3958.7	
884.69	3764.8	
884.86	5244.8	
885.02	6571.2	
885.19	3956.7	
885.36	3967.6	
885.52	5518.6	
885.69	5726.8	
885.86	5146.5	
886.02	4532.8	
886.19	5973.2	
886.35	5426.4	
886.52	3898	
886.69	4964.3	
886.85	5038.7	
887.02	6341.9	
887.19	6341.9	
887.35	6341.9	
887.52	6341.9	
887.68	6341.9	
887.85	6341.9	
888.02	6341.9	
888.18	6341.9	
888.35	6341.9	
888.51	6341.9	
888.68	6341.9	
888.85	6341.9	
889.01	6341.9	
889.18	6341.9	
889.35	6341.9	
889.51	6341.9	
889.68	6341.9	
889.84	6341.9	
890.01	6341.9	
890.17	6341.9	
890.34	6341.9	
890.51	6341.9	
890.67	6341.9	
890.84	6341.9	
891	6341.9	
891.17	6341.9	
891.34	6341.9	
891.5	6341.9	
891.67	6341.9	
891.83	6341.9	
892	6341.9	
892.16	6341.9	
892.33	6341.9	
892.5	6341.9	
892.66	6341.9	
892.83	6341.9	
892.99	6341.9	
893.16	6341.9	
893.32	6341.9	
893.49	6341.9	
893.65	6341.9	
893.82	6341.9	
893.99	6341.9	
894.15	6341.9	
894.32	6341.9	
894.48	6341.9	
894.65	6341.9	
894.81	6341.9	
894.98	6341.9	
895.14	6341.9	
895.31	6341.9	
895.47	6341.9	
895.64	6341.9	
895.81	6341.9	
895.97	6341.9	
896.14	6341.9	
896.3	6341.9	
896.47	6341.9	
896.63	6341.9	
896.8	6341.9	
896.96	6341.9	
897.13	6341.9	
897.29	6341.9	
897.46	6341.9	
897.62	6341.9	
897.79	6341.9	
897.95	6341.9	
898.12	6341.9	
898.28	6341.9	
898.45	6341.9	
898.61	6341.9	
898.78	6341.9	
898.94	6341.9	
899.11	6341.9	
899.27	6341.9	
899.44	6341.9	
899.6	6341.9	
899.77	6341.9	
899.93	6341.9	
900.1	6341.9	
900.26	6341.9	
900.43	6341.9	
900.59	6341.9	
900.76	6341.9	
900.92	6341.9	
901.09	6341.9	
901.25	6341.9	
901.42	6341.9	
901.58	6341.9	
901.75	6341.9	
901.91	6341.9	
902.07	6341.9	
902.24	6341.9	
902.4	6341.9	
902.57	6341.9	
902.73	6341.9	
902.9	6341.9	
903.06	6341.9	
903.23	6341.9	
903.39	6341.9	
903.56	6341.9	
903.72	6341.9	
903.88	6341.9	
904.05	6341.9	
904.21	6341.9	
904.38	6341.9	
904.54	6341.9	
904.71	6341.9	
904.87	6341.9	
905.03	6341.9	
905.2	6341.9	
905.36	6341.9	
905.53	6341.9	
905.69	6341.9	
905.86	6341.9	
906.02	6341.9	
906.18	6341.9	
906.35	6341.9	
906.51	6341.9	
906.68	6341.9	
906.84	6341.9	
907.01	6341.9	
907.17	6341.9	
907.33	6341.9	
907.5	6341.9	
907.66	6341.9	
907.83	6341.9	
907.99	6341.9	
908.15	6341.9	
908.32	6341.9	
908.48	6341.9	
908.65	6341.9	
908.81	6341.9	
908.97	6341.9	
909.14	6341.9	
909.3	6341.9	
909.47	6341.9	
909.63	6341.9	
909.79	6341.9	
909.96	6341.9	
910.12	6341.9	
910.28	6341.9	
910.45	6341.9	
910.61	6341.9	
910.78	6341.9	
910.94	6341.9	
911.1	6341.9	
911.27	6341.9	
911.43	6341.9	
911.59	6341.9	
911.76	6341.9	
911.92	6341.9	
912.08	6341.9	
912.25	6341.9	
912.41	6341.9	
912.57	6341.9	
912.74	6341.9	
912.9	6341.9	
913.07	6341.9	
913.23	6341.9	
913.39	6341.9	
913.56	6341.9	
913.72	6341.9	
913.88	6341.9	
914.05	6341.9	
914.21	6341.9	
914.37	6341.9	
914.54	6341.9	
914.7	6341.9	
914.86	6341.9	
915.03	6341.9	
915.19	6341.9	
