Wavelength	Intensities	
nm	a.u.	
179.22	1777.1	
179.44	1773.2	
179.65	1781.1	
179.86	1765.3	
180.08	1759.2	
180.29	4195.6	
180.51	3173	
180.72	5132.9	
180.94	5848.3	
181.15	2906.1	
181.37	2908.1	
181.58	4968.4	
181.79	5229.1	
182.01	2981.2	
182.22	3154.6	
182.44	5237.3	
182.65	4429.8	
182.87	3917.8	
183.08	3462.4	
183.29	5496.7	
183.51	4578.6	
183.72	3148.4	
183.94	4518.5	
184.15	4895.3	
184.37	4872.1	
184.58	2816	
184.79	3779.2	
185.01	4648.2	
185.22	5206.6	
185.44	3889.8	
185.65	3387.3	
185.86	4839.4	
186.08	4523.3	
186.29	2717.7	
186.51	2946.3	
186.72	4654.4	
186.94	5420.3	
187.15	3412.6	
187.36	3422.2	
187.58	6776.7	
187.79	4998.4	
188.01	3562.8	
188.22	5468.1	
188.43	5961.6	
188.65	5180.7	
188.86	2973.7	
189.08	3459	
189.29	4689.8	
189.5	4760.2	
189.72	3217.4	
189.93	3314.3	
190.15	5418.2	
190.36	6307.7	
190.57	3423.5	
190.79	3429	
191	5359.5	
191.22	5419.6	
191.43	3578.5	
191.64	3010.5	
191.86	5596.4	
192.07	5364.3	
192.29	3082.9	
192.5	3205.8	
192.71	5349.3	
192.93	4685.1	
193.14	3258.3	
193.35	3288.4	
193.57	4734.9	
193.78	5488.6	
194	2635.7	
194.21	3136.8	
194.42	4598.4	
194.64	4922	
194.85	3485.6	
195.07	4031.8	
195.28	4887.1	
195.49	4317.8	
195.71	4171	
195.92	3024.8	
196.13	5134.3	
196.35	5125.4	
196.56	4502.1	
196.78	3486.3	
196.99	6209.4	
197.2	5806.7	
197.42	3910.9	
197.63	3500.7	
197.84	4474.8	
198.06	5041.4	
198.27	3272.7	
198.48	4181.3	
198.7	4727.4	
198.91	4893.3	
199.13	3533.4	
199.34	3491.8	
199.55	5272.2	
199.77	4292.5	
199.98	3123.2	
200.19	3505.4	
200.41	4869.4	
200.62	4575.8	
200.83	3629	
201.05	3833.1	
201.26	4846.2	
201.47	4642.1	
201.69	3082.2	
201.9	3033	
202.11	4896.7	
202.33	5685.8	
202.54	3312.9	
202.76	3677.5	
202.97	4974.5	
203.18	5011.4	
203.4	3596.9	
203.61	3637.2	
203.82	4982.7	
204.04	4644.8	
204.25	3554.6	
204.46	3485.6	
204.68	4928.1	
204.89	5115.1	
205.1	3402.4	
205.32	3009.1	
205.53	5218.9	
205.74	5326.8	
205.96	2588.6	
206.17	3540.9	
206.38	5255.1	
206.6	5296.7	
206.81	3973.7	
207.02	3265.8	
207.24	5142.4	
207.45	5453.1	
207.66	3386	
207.88	2891.7	
208.09	5062.6	
208.3	4966.3	
208.52	3024.8	
208.73	3426.3	
208.94	4876.2	
209.15	5479	
209.37	3332.7	
209.58	3764.8	
209.79	5366.4	
210.01	4748.6	
210.22	2749.7	
210.43	2835.1	
210.65	4942.4	
210.86	5193.6	
211.07	3322.5	
211.29	3044.6	
211.5	5184.8	
211.71	4882.4	
211.93	3115	
212.14	3138.2	
212.35	4896	
212.56	5039.4	
212.78	3476.8	
212.99	2950.4	
213.2	5729.5	
213.42	4769	
213.63	3150.5	
213.84	3403.7	
214.06	4427.7	
214.27	4498	
214.48	3363.4	
214.69	3564.8	
214.91	5462.6	
215.12	5569.1	
215.33	3557.3	
215.55	3846.8	
215.76	5879.7	
215.97	5232.6	
216.18	3432.4	
216.4	3392.1	
216.61	4598.4	
216.82	5285.1	
217.04	3115	
217.25	3217.4	
217.46	5424.4	
217.67	5173.9	
217.89	2789.3	
218.1	2890.4	
218.31	4961.5	
218.53	5030.5	
218.74	3259	
218.95	3134.8	
219.16	4881	
219.38	5640.8	
219.59	3139.5	
219.8	3704.1	
220.01	6193.7	
220.23	4907.6	
220.44	4012.7	
220.65	3047.4	
220.87	5023.7	
221.08	5420.3	
221.29	2860.3	
221.5	3762.8	
221.72	6428.6	
221.93	4617.5	
222.14	3541.6	
222.35	4082.3	
222.57	4928.8	
222.78	5283.8	
222.99	3362.1	
223.2	3549.8	
223.42	5176.6	
223.63	5236	
223.84	2644.6	
224.05	2647.3	
224.27	6125.5	
224.48	5620.3	
224.69	4131.4	
224.9	3450.1	
225.12	5068	
225.33	4836.6	
225.54	2857.6	
225.75	3110.2	
225.97	4573.1	
226.18	4882.4	
226.39	3424.9	
226.6	3182.5	
226.82	4756.1	
227.03	4642.7	
227.24	3526.6	
227.45	2947.7	
227.67	5259.9	
227.88	5648.3	
228.09	3938.9	
228.3	3840.6	
228.52	5192.3	
228.73	4837.3	
228.94	3282.2	
229.15	2968.9	
229.36	4863.2	
229.58	4809.3	
229.79	3336.8	
230	3789.4	
230.21	5759.6	
230.43	4978.6	
230.64	3437.2	
230.85	3583.9	
231.06	5290.6	
231.28	5212.8	
231.49	2937.5	
231.7	3409.9	
231.91	5195	
232.12	4951.3	
232.34	3038.5	
232.55	3387.3	
232.76	5430.5	
232.97	5053.7	
233.18	3142.3	
233.4	3528	
233.61	5066	
233.82	4696	
234.03	3217.4	
234.25	3255.6	
234.46	6638.1	
234.67	4894	
234.88	3607.2	
235.09	3142.3	
235.31	5098.1	
235.52	4845.5	
235.73	3445.4	
235.94	2988.7	
236.15	4682.3	
236.37	5847.6	
236.58	3127.2	
236.79	3306.8	
237	5168.4	
237.21	4484.4	
237.43	3605.8	
237.64	2837.8	
237.85	8382.3	
238.06	4568.3	
238.27	3659.7	
238.48	2936.8	
238.7	5223.7	
238.91	4802.5	
239.12	3353.9	
239.33	3461.7	
239.54	4588.8	
239.76	4885.8	
239.97	3299.3	
240.18	3312.9	
240.39	5988.3	
240.6	5102.2	
240.82	3502	
241.03	2934.7	
241.24	4914.4	
241.45	5646.2	
241.66	3063.8	
241.87	3632.4	
242.09	5545.9	
242.3	5815.5	
242.51	3681.6	
242.72	3330.7	
242.93	5266	
243.14	4900.8	
243.36	3853.6	
243.57	4086.4	
243.78	5621.7	
243.99	5223	
244.2	3398.9	
244.41	3054.2	
244.63	4509.6	
244.84	5174.5	
245.05	3560.7	
245.26	3371	
245.47	5220.3	
245.68	5320.6	
245.9	4364.9	
246.11	3500.7	
246.32	4728.1	
246.53	5078.3	
246.74	5302.9	
246.95	2903.3	
247.16	4576.5	
247.38	4951.3	
247.59	2865.1	
247.8	3409.2	
248.01	4592.9	
248.22	4865.3	
248.43	3049.4	
248.64	3289	
248.86	4442	
249.07	4698	
249.28	3015.3	
249.49	3469.3	
249.7	5353.4	
249.91	5432.6	
250.12	2856.9	
250.34	2936.8	
250.55	5064.6	
250.76	4945.2	
250.97	3457	
251.18	3484.3	
251.39	5444.2	
251.6	5016.2	
251.81	3522.5	
252.03	3566.2	
252.24	4756.1	
252.45	5332.2	
252.66	2932.7	
252.87	3696.6	
253.08	4957.4	
253.29	6227.9	
253.5	2979.8	
253.72	4042.7	
253.93	4822.3	
254.14	5725.4	
254.35	3238.5	
254.56	3281.5	
254.77	5086.5	
254.98	4624.3	
255.19	3184.6	
255.41	3972.4	
255.62	5008.6	
255.83	5411.4	
256.04	3591.5	
256.25	3498.6	
256.46	5895.4	
256.67	4676.2	
256.88	3450.8	
257.09	3752.6	
257.31	4612	
257.52	4685.1	
257.73	4316.4	
257.94	3252.9	
258.15	4785.4	
258.36	4928.8	
258.57	3958	
258.78	2608.4	
258.99	5250.3	
259.2	4769	
259.41	3184.6	
259.63	3325.2	
259.84	5611.4	
260.05	5858.6	
260.26	4126.7	
260.47	3126.6	
260.68	5395.7	
260.89	4870.8	
261.1	3766.2	
261.31	3067.9	
261.52	5513.1	
261.73	5734.3	
261.95	4099.4	
262.16	3614	
262.37	5453.1	
262.58	5562.3	
262.79	4074.8	
263	3196.9	
263.21	4920.6	
263.42	4788.8	
263.63	3340.2	
263.84	3269.9	
264.05	5312.4	
264.26	5651.7	
264.47	3963.5	
264.69	3603.7	
264.9	5479	
265.11	5098.1	
265.32	3082.9	
265.53	3212.6	
265.74	5041.4	
265.95	4425.7	
266.16	3414.6	
266.37	3758.7	
266.58	4982	
266.79	4728.1	
267	3211.9	
267.21	2975	
267.42	4545.8	
267.63	4861.9	
267.84	3336.1	
268.06	2939.5	
268.27	5227.1	
268.48	5518.6	
268.69	3301.3	
268.9	3846.8	
269.11	5472.2	
269.32	4472.8	
269.53	3317.7	
269.74	3119.7	
269.95	5181.4	
270.16	4406.5	
270.37	3383.9	
270.58	3879.5	
270.79	4770.4	
271	5305.6	
271.21	3549.8	
271.42	3412.6	
271.63	5072.1	
271.84	4588.8	
272.05	2720.4	
272.26	3011.2	
272.47	4903.5	
272.68	5070.8	
272.89	3293.8	
273.11	3684.3	
273.32	4717.2	
273.53	5669.5	
273.74	3642.7	
273.95	3553.2	
274.16	5339.1	
274.37	4900.1	
274.58	3732.8	
274.79	3024.8	
275	5086.5	
275.21	5402.5	
275.42	4357.4	
275.63	3775.1	
275.84	5130.8	
276.05	6347.3	
276.26	3523.2	
276.47	3282.9	
276.68	4851.6	
276.89	5802.6	
277.1	3766.9	
277.31	2977.7	
277.52	5100.1	
277.73	5337	
277.94	2971.6	
278.15	3263.1	
278.36	5087.8	
278.57	4660.5	
278.78	3255.6	
278.99	3645.4	
279.2	4672.1	
279.41	4642.1	
279.62	4204.5	
279.83	2981.8	
280.04	5902.9	
280.25	4602.5	
280.46	4197.7	
280.67	3362.8	
280.88	4635.2	
281.09	5484.5	
281.3	3590.8	
281.51	4428.4	
281.72	4719.9	
281.93	5306.3	
282.14	3192.8	
282.35	3467.2	
282.56	5373.9	
282.77	5249.6	
282.98	3216.7	
283.19	3960.1	
283.4	6342.6	
283.61	4827.7	
283.82	3035.1	
284.03	4090.5	
284.24	5036.6	
284.45	5423.7	
284.66	4164.9	
284.87	3948.5	
285.08	5361.6	
285.29	5526.1	
285.5	2906.8	
285.71	3288.4	
285.92	5430.5	
286.12	5937.7	
286.33	4035.9	
286.54	3321.8	
286.75	5315.8	
286.96	4839.4	
287.17	3076	
287.38	3917.8	
287.59	4726	
287.8	4670.1	
288.01	3311.6	
288.22	3740.3	
288.43	5260.5	
288.64	4461.2	
288.85	3859.7	
289.06	3700.7	
289.27	5317.2	
289.48	5637.4	
289.69	4136.2	
289.9	3805.8	
290.11	5455.1	
290.32	4706.2	
290.53	3889.8	
290.74	3571	
290.94	5281	
291.15	5348.6	
291.36	3149.1	
291.57	3768.3	
291.78	4788.8	
291.99	4442	
292.2	3069.2	
292.41	3623.5	
292.62	5388.9	
292.83	5128.1	
293.04	4434.5	
293.25	3123.2	
293.46	4763.6	
293.67	5390.9	
293.88	3190.7	
294.09	3098.6	
294.29	4590.2	
294.5	5002.5	
294.71	3405.8	
294.92	3255.6	
295.13	4786.1	
295.34	5868.8	
295.55	2908.8	
295.76	2869.9	
295.97	5246.9	
296.18	5838.1	
296.39	3030.3	
296.6	3188.7	
296.81	4997.7	
297.01	5335	
297.22	3282.2	
297.43	3189.4	
297.64	4677.6	
297.85	4607.9	
298.06	2674	
298.27	2852.1	
298.48	4941.1	
298.69	4692.6	
298.9	3459.7	
299.11	3147	
299.31	4551.3	
299.52	4577.9	
299.73	3624.9	
299.94	3553.2	
300.15	4914.4	
300.36	4674.8	
300.57	3594.2	
300.78	3562.8	
300.99	4829.8	
301.2	4993.6	
301.4	3209.2	
301.61	3416.7	
301.82	5232.6	
302.03	5285.1	
302.24	3827.7	
302.45	3039.9	
302.66	5173.2	
302.87	5487.2	
303.08	3151.1	
303.29	4269.3	
303.49	4791.6	
303.7	4998.4	
303.91	2820.7	
304.12	4033.8	
304.33	4491.2	
304.54	4935.6	
304.75	3213.3	
304.96	3056.9	
305.16	5238	
305.37	5782.8	
305.58	2771.6	
305.79	2884.2	
306	5171.8	
306.21	4437.3	
306.42	3142.3	
306.63	4681	
306.83	4823.6	
307.04	5383.4	
307.25	3502.7	
307.46	3504.8	
307.67	4302.8	
307.88	5247.6	
308.09	3175.7	
308.29	3202.3	
308.5	4969.7	
308.71	5410.7	
308.92	3390.8	
309.13	3067.2	
309.34	4870.8	
309.55	4868.7	
309.75	3892.5	
309.96	3607.8	
310.17	5261.2	
310.38	4648.9	
310.59	3715	
310.8	3012.6	
311.01	5730.9	
311.21	4872.1	
311.42	3009.1	
311.63	3139.5	
311.84	4734.9	
312.05	5006.6	
312.26	3588	
312.46	3762.8	
312.67	4823.6	
312.88	4487.8	
313.09	3120.4	
313.3	3011.2	
313.51	5558.9	
313.71	5937.1	
313.92	3099.9	
314.13	3252.2	
314.34	5117.9	
314.55	4878.9	
314.76	3848.1	
314.96	3459	
315.17	5018.9	
315.38	5289.2	
315.59	3092.4	
315.8	2949.8	
316.01	5515.2	
316.21	5656.5	
316.42	2974.3	
316.63	3383.9	
316.84	4824.3	
317.05	5502.2	
317.26	3571	
317.46	3247.4	
317.67	4881	
317.88	5239.4	
318.09	3811.3	
318.3	2886.3	
318.5	4723.3	
318.71	5128.1	
318.92	4782.7	
319.13	3544.4	
319.34	5304.9	
319.54	5445.5	
319.75	2930.6	
319.96	2753.2	
320.17	5161.6	
320.38	5371.1	
320.58	2832.3	
320.79	3353.2	
321	5441.5	
321.21	5440.8	
321.42	3442	
321.62	2884.9	
321.83	4650.3	
322.04	4991.6	
322.25	3268.6	
322.46	3092.4	
322.66	5057.8	
322.87	5228.5	
323.08	3764.8	
323.29	2985.9	
323.5	5840.1	
323.7	4581.3	
323.91	4072	
324.12	3614	
324.33	5053.7	
324.53	5194.3	
324.74	3641.3	
324.95	3701.4	
325.16	4442	
325.37	4798.4	
325.57	3087	
325.78	3199.6	
325.99	4986.1	
326.2	4509.6	
326.4	4377.2	
326.61	2863.7	
326.82	4876.2	
327.03	5060.5	
327.24	4247.5	
327.44	4054.3	
327.65	5155.4	
327.86	4235.2	
328.07	3527.3	
328.27	2977.1	
328.48	5544.5	
328.69	4567	
328.9	4261.1	
329.1	3259.7	
329.31	4879.6	
329.52	5567.7	
329.73	3151.1	
329.93	3381.2	
330.14	4958.1	
330.35	5119.9	
330.56	4975.9	
330.76	3708.9	
330.97	4809.3	
331.18	5013.4	
331.39	3440.6	
331.59	2801.6	
331.8	5357.5	
332.01	5502.9	
332.22	3192.1	
332.42	3597.6	
332.63	5016.8	
332.84	4655.7	
333.05	3473.4	
333.25	3134.8	
333.46	4741	
333.67	4934.9	
333.88	3246	
334.08	3530	
334.29	6380.8	
334.5	5416.9	
334.7	2992.1	
334.91	4270.7	
335.12	4550.6	
335.33	5222.3	
335.53	3434.4	
335.74	4887.8	
335.95	4783.4	
336.16	4531.5	
336.36	3366.9	
336.57	3882.9	
336.78	4520.5	
336.98	5434.6	
337.19	4119.8	
337.4	3393.5	
337.61	5886.5	
337.81	4552	
338.02	3203.7	
338.23	3992.9	
338.43	5514.5	
338.64	4644.8	
338.85	3084.2	
339.05	3990.1	
339.26	5590.3	
339.47	4463.9	
339.68	3110.9	
339.88	4490.5	
340.09	5210	
340.3	5335.6	
340.5	3615.3	
340.71	2790	
340.92	4485.7	
341.13	5462.6	
341.33	2976.4	
341.54	3653.6	
341.75	5099.4	
341.95	4779.3	
342.16	3440.6	
342.37	3705.5	
342.57	4517.1	
342.78	4821.6	
342.99	3803.1	
343.19	2841.9	
343.4	5248.3	
343.61	5089.9	
343.81	3282.9	
344.02	2984.6	
344.23	5295.4	
344.43	5551.4	
344.64	3807.2	
344.85	3683.6	
345.06	5206.6	
345.26	5356.8	
345.47	3556.6	
345.68	4105.5	
345.88	4429.1	
346.09	5319.3	
346.3	3620.1	
346.5	2768.9	
346.71	4935.6	
346.92	4661.2	
347.12	2950.4	
347.33	3538.2	
347.54	5384.8	
347.74	5656.5	
347.95	3504.8	
348.16	2730.6	
348.36	4782	
348.57	4581.3	
348.78	3554.6	
348.98	3724.6	
349.19	4898.7	
349.39	4472.1	
349.6	2929.3	
349.81	3115	
350.01	5150	
350.22	4687.1	
350.43	3425.6	
350.63	4092.5	
350.84	4937	
351.05	4756.1	
351.25	3080.8	
351.46	2835.8	
351.67	5395	
351.87	4657.8	
352.08	3318.4	
352.29	3762.8	
352.49	5283.8	
352.7	5010	
352.9	3048.7	
353.11	3694.5	
353.32	5734.3	
353.52	4743.1	
353.73	3022.1	
353.94	3788.1	
354.14	5113.8	
354.35	4971.8	
354.55	3084.2	
354.76	3375.7	
354.97	5108.3	
355.17	4951.3	
355.38	2944.3	
355.59	3918.4	
355.79	4631.8	
356	4963.6	
356.2	3391.4	
356.41	2979.1	
356.62	4444.8	
356.82	4862.6	
357.03	3622.9	
357.24	3278.8	
357.44	4653	
357.65	4748.6	
357.85	4188.8	
358.06	3429	
358.27	4394.9	
358.47	4543.8	
358.68	2867.2	
358.88	3638.6	
359.09	5074.2	
359.3	5359.5	
359.5	4117.8	
359.71	3708.9	
359.91	5750	
360.12	5153.4	
360.33	3554.6	
360.53	3935.5	
360.74	4657.8	
360.94	4725.3	
361.15	3765.5	
361.36	3140.9	
361.56	5294	
361.77	4878.9	
361.97	4148.5	
362.18	3293.8	
362.38	5321.3	
362.59	4526.7	
362.8	3046.7	
363	2967.5	
363.21	4355.3	
363.41	4900.8	
363.62	3477.5	
363.83	4277.5	
364.03	5027.8	
364.24	5718.6	
364.44	4444.8	
364.65	4390.8	
364.85	4765.6	
365.06	4532.8	
365.27	3218	
365.47	3267.9	
365.68	5564.3	
365.88	4820.9	
366.09	3502	
366.29	3211.9	
366.5	4925.4	
366.71	5282.4	
366.91	4337.6	
367.12	3624.2	
367.32	5822.4	
367.53	5208	
367.73	3642.7	
367.94	4384.7	
368.14	5175.2	
368.35	5809.4	
368.56	3547.1	
368.76	3127.9	
368.97	5268.7	
369.17	6567.2	
369.38	3158.7	
369.58	3406.5	
369.79	4450.2	
369.99	5548.6	
370.2	4204.5	
370.4	3497.9	
370.61	4975.9	
370.82	5980.8	
371.02	3449.5	
371.23	2914.3	
371.43	4401.1	
371.64	5562.3	
371.84	3445.4	
372.05	4396.3	
372.25	6454.5	
372.46	5176.6	
372.66	3364.8	
372.87	3394.8	
373.07	5240.1	
373.28	6552.1	
373.48	4186	
373.69	3950.5	
373.9	4830.5	
374.1	4876.2	
374.31	4178.5	
374.51	3750.5	
374.72	5502.2	
374.92	4639.3	
375.13	4250.2	
375.33	3639.9	
375.54	5163.6	
375.74	4760.8	
375.95	3666.5	
376.15	4687.8	
376.36	5178.6	
376.56	5057.8	
376.77	3691.1	
376.97	4034.5	
377.18	5990.3	
377.38	5191.6	
377.59	4308.2	
377.79	3345	
378	5081	
378.2	5369.1	
378.41	3416.7	
378.61	3377.1	
378.82	5409.4	
379.02	4769	
379.23	3534.8	
379.43	4420.9	
379.64	5499.5	
379.84	5196.4	
380.05	3425.6	
380.25	3315.7	
380.46	5255.8	
380.66	4967.7	
380.87	4422.2	
381.07	4751.3	
381.28	5756.8	
381.48	5231.9	
381.69	3392.1	
381.89	3472	
382.1	4515.8	
382.3	5382.1	
382.51	4271.4	
382.71	5074.2	
382.91	5227.8	
383.12	5709.1	
383.32	3697.3	
383.53	3787.4	
383.73	5187.5	
383.94	5025	
384.14	3878.9	
384.35	3176.4	
384.55	4934.9	
384.76	5266	
384.96	3713	
385.17	3951.2	
385.37	5356.1	
385.58	4684.4	
385.78	3989.4	
385.98	3095.2	
386.19	4868.7	
386.39	5221.6	
386.6	3521.1	
386.8	3711.6	
387.01	5285.8	
387.21	5313.8	
387.42	3990.8	
387.62	4439.3	
387.83	4844.8	
388.03	5199.1	
388.23	3708.9	
388.44	4394.9	
388.64	4477.5	
388.85	4623.6	
389.05	3945.1	
389.26	4463.2	
389.46	5974.6	
389.67	5649.7	
389.87	3946.4	
390.07	4007.9	
390.28	4975.2	
390.48	4658.4	
390.69	3384.6	
390.89	3645.4	
391.1	4840.7	
391.3	5581.4	
391.5	4609.3	
391.71	5004.6	
391.91	5371.1	
392.12	6058.6	
392.32	4644.8	
392.53	4089.8	
392.73	4917.2	
392.93	4982.7	
393.14	3724.6	
393.34	4690.5	
393.55	5472.2	
393.75	4933.6	
393.95	3766.9	
394.16	3628.3	
394.36	4824.3	
394.57	5351.3	
394.77	3337.5	
394.98	3603.7	
395.18	4791.6	
395.38	4801.8	
395.59	4399.7	
395.79	3512.9	
396	4934.9	
396.2	5277.6	
396.4	4190.1	
396.61	4124.6	
396.81	5406.6	
397.02	4801.1	
397.22	4418.2	
397.42	4423.6	
397.63	5479.7	
397.83	4807.9	
398.04	3519.1	
398.24	3875.4	
398.44	5190.2	
398.65	4414.7	
398.85	3333.4	
399.05	3426.3	
399.26	4815.5	
399.46	6154.1	
399.67	3741.6	
399.87	3571	
400.07	5051	
400.28	5280.3	
400.48	3583.9	
400.69	4490.5	
400.89	5412.1	
401.09	5812.8	
401.3	3532.7	
401.5	4425.7	
401.7	6024.4	
401.91	6216.3	
402.11	3871.3	
402.32	3998.3	
402.52	5502.9	
402.72	5476.3	
402.93	4145.8	
403.13	3239.9	
403.33	6156.9	
403.54	5191.6	
403.74	3945.1	
403.94	4584.7	
404.15	5197.7	
404.35	6059.3	
404.56	3702	
404.76	5148.6	
404.96	5480.4	
405.17	5329.5	
405.37	4659.1	
405.57	4127.3	
405.78	5490.6	
405.98	5114.5	
406.18	3779.9	
406.39	4468	
406.59	5582.1	
406.79	5254.4	
407	3580.5	
407.2	3693.2	
407.4	5614.2	
407.61	5713.2	
407.81	3644.7	
408.01	5534.3	
408.22	4679.6	
408.42	6204.7	
408.62	4470.7	
408.83	4032.5	
409.03	5141.8	
409.23	5033.2	
409.44	4096.6	
409.64	4303.5	
409.84	5894.7	
410.05	5833.3	
410.25	4293.2	
410.45	4071.4	
410.66	5443.5	
410.86	7408.9	
411.06	4398.4	
411.27	4266.6	
411.47	7213.6	
411.67	5608	
411.88	4472.1	
412.08	4609.3	
412.28	6040.8	
412.49	6479.1	
412.69	4248.2	
412.89	4291.9	
413.09	6334.4	
413.3	6211.5	
413.5	4427	
413.7	4034.5	
413.91	5656.5	
414.11	6326.2	
414.31	4186	
414.52	4516.5	
414.72	6125.5	
414.92	5967.1	
415.12	4263.9	
415.33	4689.2	
415.53	6261.3	
415.73	6450.4	
415.94	4889.2	
416.14	4496.7	
416.34	5542.5	
416.55	5311.7	
416.75	5405.3	
416.95	4977.9	
417.15	6294.8	
417.36	6817	
417.56	5601.2	
417.76	4809.3	
417.97	6593.1	
418.17	6286.6	
418.37	4506.9	
418.57	4578.6	
418.78	6154.8	
418.98	5953.4	
419.18	5249.6	
419.38	5215.5	
419.59	5944.6	
419.79	5627.1	
419.99	4497.3	
420.2	4734.9	
420.4	6370.5	
420.6	6457.9	
420.8	4425.7	
421.01	4308.9	
421.21	6231.3	
421.41	6285.2	
421.61	4724.7	
421.82	4496	
422.02	5819.6	
422.22	6616.3	
422.42	5027.8	
422.63	4892.6	
422.83	5909.1	
423.03	6905.8	
423.23	4849.6	
423.44	4029.7	
423.64	5995.1	
423.84	5767.1	
424.04	4386.7	
424.25	4188.8	
424.45	6724.2	
424.65	6673	
424.85	3997.6	
425.06	4455.7	
425.26	6744	
425.46	5854.5	
425.66	4856.4	
425.87	4634.6	
426.07	6475.7	
426.27	6391	
426.47	4736.3	
426.67	4228.4	
426.88	6795.8	
427.08	6320	
427.28	4977.2	
427.48	4177.2	
427.69	5494	
427.89	5992.4	
428.09	4872.8	
428.29	4236.6	
428.5	6447	
428.7	6104.3	
428.9	4156	
429.1	4532.2	
429.3	6126.8	
429.51	6356.2	
429.71	4362.9	
429.91	5012.7	
430.11	6380.1	
430.31	6576.7	
430.52	4607.9	
430.72	4820.2	
430.92	6832	
431.12	6311.2	
431.32	4343.7	
431.53	4716.5	
431.73	5525.4	
431.93	6885.3	
432.13	4311.7	
432.33	4212	
432.54	5946.6	
432.74	6154.8	
432.94	4165.6	
433.14	4984.8	
433.34	6399.2	
433.55	6021.7	
433.75	4920.6	
433.95	6378.1	
434.15	6240.8	
434.35	5986.2	
434.56	4367.6	
434.76	3994.9	
434.96	6128.2	
435.16	6380.1	
435.36	4179.9	
435.56	5085.1	
435.77	5830.6	
435.97	6023.1	
436.17	5725.4	
436.37	5067.4	
436.57	5905.7	
436.78	5812.1	
436.98	5031.9	
437.18	5558.2	
437.38	6397.9	
437.58	6023.8	
437.78	5749.3	
437.99	4598.4	
438.19	6416.3	
438.39	7169.9	
438.59	4568.3	
438.79	4181.3	
438.99	6897.6	
439.2	6004	
439.4	4188.8	
439.6	4264.6	
439.8	6177.4	
440	7100.3	
440.2	5001.1	
440.4	5121.3	
440.61	6586.3	
440.81	6980.8	
441.01	4450.2	
441.21	5257.1	
441.41	6965.1	
441.61	6554.2	
441.81	5420.3	
442.02	6217	
442.22	7431.4	
442.42	6775.4	
442.62	4496	
442.82	4530.8	
443.02	6936.5	
443.22	6249	
443.43	4815.5	
443.63	4507.6	
443.83	6129.6	
444.03	6130.3	
444.23	5474.9	
444.43	5180	
444.63	6376	
444.83	7314.7	
445.04	4655	
445.24	5638.1	
445.44	6697.5	
445.64	6733	
445.84	5296.7	
446.04	5285.8	
446.24	6127.5	
446.44	7021.1	
446.65	4564.2	
446.85	4900.8	
447.05	6195.8	
447.25	6948.8	
447.45	4997.7	
447.65	4468	
447.85	6466.8	
448.05	6105	
448.25	5314.5	
448.46	5136.3	
448.66	6402	
448.86	6182.1	
449.06	4442	
449.26	5333.6	
449.46	6773.3	
449.66	5953.4	
449.86	4927.4	
450.06	4906.3	
450.26	6111.1	
450.47	6575.3	
450.67	5113.8	
450.87	5371.8	
451.07	6701	
451.27	6447.7	
451.47	4601.1	
451.67	5014.8	
451.87	6189	
452.07	7139.9	
452.27	4796.3	
452.47	4713.7	
452.67	6531	
452.88	6852.5	
453.08	4294.6	
453.28	5871.5	
453.48	7483.3	
453.68	6434.7	
453.88	4678.9	
454.08	4859.8	
454.28	6735.1	
454.48	6473.6	
454.68	5257.1	
454.88	5716.6	
455.08	6868.2	
455.28	6664.1	
455.48	4599.7	
455.68	5051.7	
455.89	7231.4	
456.09	6926.9	
456.29	4926	
456.49	4969.7	
456.69	7144.7	
456.89	6468.9	
457.09	5336.3	
457.29	5616.2	
457.49	6827.9	
457.69	6867.5	
457.89	5219.6	
458.09	4733.5	
458.29	6621.1	
458.49	7262.1	
458.69	5551.4	
458.89	5070.1	
459.09	7341.3	
459.29	7555.6	
459.49	5198.4	
459.69	5827.8	
459.9	7065.5	
460.1	6637.5	
460.3	5146.5	
460.5	4880.3	
460.7	7086.7	
460.9	6745.3	
461.1	4619.5	
461.3	5684.5	
461.5	7563.8	
461.7	7258.7	
461.9	5049.6	
462.1	5369.1	
462.3	6881.2	
462.5	7240.3	
462.7	5102.9	
462.9	5203.2	
463.1	8137.9	
463.3	7845.8	
463.5	5289.2	
463.7	6145.3	
463.9	7017.7	
464.1	7400	
464.3	5508.4	
464.5	5660.6	
464.7	7522.2	
464.9	7275.1	
465.1	6746.7	
465.3	5959.6	
465.5	7849.9	
465.7	7857.4	
465.9	6167.1	
466.1	6004.6	
466.3	7626	
466.5	7559.1	
466.7	6666.1	
466.9	5860.6	
467.1	7548.1	
467.3	8224	
467.5	6648.4	
467.7	5814.9	
467.9	8410.3	
468.1	9091.6	
468.3	6365.1	
468.5	6744.6	
468.7	7542.7	
468.9	7472.4	
469.1	6094.1	
469.3	6704.4	
469.5	9114.1	
469.7	7255.3	
469.9	6418.3	
470.1	5874.9	
470.3	7608.9	
470.5	7647.1	
470.7	6881.2	
470.9	5940.5	
471.1	7408.2	
471.3	7780.9	
471.5	5784.8	
471.69	7304.4	
471.89	7374.7	
472.09	6905.8	
472.29	6382.8	
472.49	6834.8	
472.69	7090.8	
472.89	7696.3	
473.09	5795.8	
473.29	5913.2	
473.49	7279.2	
473.69	7286	
473.89	6582.9	
474.09	5933.6	
474.29	8403.5	
474.49	8028	
474.69	6651.1	
474.89	6118.6	
475.09	7430.7	
475.29	7348.8	
475.49	5703.6	
475.69	5810.1	
475.88	8731.2	
476.08	7765.9	
476.28	5599.1	
476.48	5976.7	
476.68	7961.1	
476.88	7836.2	
477.08	5876.3	
477.28	6072.9	
477.48	7492.2	
477.68	7964.6	
477.88	5650.3	
478.08	5919.3	
478.28	8213.7	
478.48	7640.3	
478.67	6012.2	
478.87	5522	
479.07	8053.3	
479.27	7683.3	
479.47	6161.7	
479.67	6197.2	
479.87	8026	
480.07	8411.7	
480.27	5670.1	
480.47	6849.1	
480.67	7670.3	
480.87	8199.4	
481.06	5745.2	
481.26	6565.1	
481.46	7675.8	
481.66	7577.5	
481.86	6206	
482.06	7115.3	
482.26	7365.9	
482.46	8204.2	
482.66	6180.1	
482.86	5828.5	
483.05	7819.1	
483.25	7223.9	
483.45	8092.2	
483.65	6122.7	
483.85	7336.5	
484.05	7619.1	
484.25	6467.5	
484.45	6889.4	
484.65	8268.3	
484.84	8260.8	
485.04	6202.6	
485.24	6071.5	
485.44	8631.5	
485.64	7236.8	
485.84	5573.2	
486.04	6665.5	
486.24	7511.3	
486.44	7825.3	
486.63	5657.9	
486.83	6229.2	
487.03	7532.4	
487.23	7670.3	
487.43	5662	
487.63	7598	
487.83	7685.3	
488.02	8529.8	
488.22	6481.1	
488.42	6997.2	
488.62	8287.4	
488.82	7521.5	
489.02	6191.7	
489.22	6184.9	
489.41	8305.9	
489.61	8041.7	
489.81	5964.4	
490.01	5980.1	
490.21	8307.9	
490.41	8850.6	
490.61	6034.7	
490.8	6038.1	
491	7860.1	
491.2	7387	
491.4	6623.8	
491.6	5929.6	
491.8	7943.4	
491.99	7974.1	
492.19	5741.1	
492.39	6002.6	
492.59	8243.1	
492.79	8262.2	
492.99	6619	
493.18	5966.4	
493.38	8433.5	
493.58	9082.7	
493.78	6561.7	
493.98	6346.7	
494.18	8153	
494.37	7677.8	
494.57	6795.8	
494.77	6679.1	
494.97	8414.4	
495.17	8549.6	
495.37	6404	
495.56	6717.3	
495.76	8782.4	
495.96	8531.2	
496.16	7438.2	
496.36	6569.2	
496.55	8711.4	
496.75	8282	
496.95	6905.1	
497.15	6832.7	
497.35	8665.6	
497.54	8710	
497.74	6597.2	
497.94	8073.1	
498.14	9302.6	
498.34	9015.8	
498.53	6463.4	
498.73	7070.3	
498.93	8148.2	
499.13	8613.1	
499.33	6969.2	
499.52	7277.1	
499.72	8748.2	
499.92	8808.3	
500.12	6666.1	
500.32	6874.3	
500.51	8896.4	
500.71	8791.2	
500.91	7538.6	
501.11	7223.2	
501.31	8852	
501.5	9249.3	
501.7	7789.8	
501.9	6941.2	
502.1	8656.1	
502.29	8988.5	
502.49	7342	
502.69	7732.4	
502.89	8936.7	
503.09	8873.2	
503.28	6529.6	
503.48	6617.7	
503.68	8318.8	
503.88	8210.3	
504.07	7442.3	
504.27	7034.1	
504.47	8630.1	
504.67	8712.1	
504.86	7359	
505.06	7155.6	
505.26	8409	
505.46	9783.8	
505.65	7028.6	
505.85	7253.9	
506.05	8368	
506.25	8686.8	
506.44	6484.6	
506.64	7256	
506.84	8210.3	
507.04	8825.4	
507.23	6634.1	
507.43	7035.5	
507.63	9762	
507.83	8338.6	
508.02	7094.2	
508.22	6806.1	
508.42	10046	
508.62	8229.4	
508.81	6987.7	
509.01	7443	
509.21	8125.7	
509.4	8302.5	
509.6	7125.6	
509.8	6624.5	
510	8239	
510.19	9348.3	
510.39	6648.4	
510.59	6711.9	
510.79	8181	
510.98	9269.8	
511.18	6795.2	
511.38	6886.6	
511.57	8966	
511.77	8714.8	
511.97	7450.5	
512.17	6700.3	
512.36	8786.5	
512.56	8766.7	
512.76	6713.2	
512.95	6502.3	
513.15	9017.9	
513.35	7796.6	
513.55	7345.4	
513.74	6631.3	
513.94	8898.4	
514.14	8346.8	
514.33	7430	
514.53	7256.6	
514.73	8355	
514.92	8497.7	
515.12	6741.9	
515.32	6642.2	
515.51	8551	
515.71	8976.2	
515.91	8135.2	
516.11	6698.2	
516.3	9957.9	
516.5	8232.2	
516.7	7201.3	
516.89	7583.6	
517.09	8346.8	
517.29	8361.9	
517.48	7508.5	
517.68	6956.3	
517.88	8138.6	
518.07	8703.2	
518.27	7428	
518.47	6508.4	
518.66	9121	
518.86	8011	
519.06	6426.5	
519.25	6781.5	
519.45	8208.9	
519.65	9477.3	
519.84	7380.2	
520.04	7967.3	
520.24	9837.1	
520.43	8755.7	
520.63	7153.6	
520.83	6933.7	
521.02	8265.6	
521.22	8780.3	
521.42	7233.4	
521.61	7731.1	
521.81	8261.5	
522.01	8551.6	
522.2	7308.5	
522.4	6966.5	
522.6	8842.4	
522.79	7875.1	
522.99	6991.1	
523.18	6470.2	
523.38	8699.1	
523.58	8658.1	
523.77	8030.1	
523.97	6591.7	
524.17	10112	
524.36	9515.5	
524.56	7619.1	
524.76	7385	
524.95	8817.9	
525.15	8480.6	
525.34	7218.4	
525.54	7306.5	
525.74	9150.3	
525.93	8412.4	
526.13	8276.5	
526.33	7311.9	
526.52	9439.8	
526.72	8997.4	
526.91	8314.1	
527.11	7705.1	
527.31	9398.1	
527.5	9772.2	
527.7	7588.4	
527.89	6799.3	
528.09	8580.3	
528.29	9050.7	
528.48	7962.5	
528.68	7663.5	
528.87	9399.5	
529.07	9396.8	
529.27	7695.6	
529.46	7305.1	
529.66	9104.6	
529.85	9579.7	
530.05	7149.5	
530.25	7763.8	
530.44	10259	
530.64	9018.6	
530.83	7393.8	
531.03	7623.9	
531.23	9437	
531.42	9167.4	
531.62	8219.2	
531.81	7548.8	
532.01	9554.5	
532.21	9861	
532.4	7374.1	
532.6	7697.6	
532.79	10355	
532.99	9593.4	
533.18	7922.2	
533.38	8596.7	
533.58	9267.7	
533.77	9839.8	
533.97	7896.3	
534.16	8438.3	
534.36	10198	
534.55	9329.9	
534.75	8629.5	
534.95	7945.4	
535.14	10099	
535.34	9336.7	
535.53	7698.3	
535.73	9220.6	
535.92	10535	
536.12	9444.5	
536.31	7776.1	
536.51	8729.1	
536.71	9805	
536.9	9351.7	
537.1	7685.3	
537.29	7898.3	
537.49	10136	
537.68	9302.6	
537.88	8331.1	
538.07	7694.2	
538.27	9509.4	
538.46	10353	
538.66	7556.3	
538.86	7883.3	
539.05	9589.3	
539.25	10037	
539.44	8158.4	
539.64	7800.7	
539.83	9400.9	
540.03	10266	
540.22	7727	
540.42	7815.7	
540.61	9645.9	
540.81	9686.9	
541	8163.9	
541.2	8702.5	
541.39	9245.2	
541.59	9516.9	
541.78	8421.2	
541.98	7666.2	
542.18	8979.7	
542.37	9013.8	
542.57	8090.8	
542.76	8477.2	
542.96	9075.9	
543.15	9555.8	
543.35	8027.4	
543.54	7436.9	
543.74	9921	
543.93	9422.7	
544.13	7987.1	
544.32	8764.6	
544.52	9682.8	
544.71	9056.1	
544.91	7165.2	
545.1	8172.8	
545.3	9101.2	
545.49	9508	
545.69	7129	
545.88	7705.8	
546.08	10350	
546.27	9957.9	
546.47	8074.5	
546.66	7465.5	
546.86	9710.8	
547.05	10191	
547.24	7663.5	
547.44	7556.3	
547.63	8961.9	
547.83	9765.4	
548.02	7907.9	
548.22	8035.5	
548.41	8776.9	
548.61	9854.8	
548.8	7483.3	
549	7433.4	
549.19	9327.1	
549.39	9663	
549.58	7235.5	
549.78	7671.7	
549.97	9661.6	
550.17	9131.9	
550.36	8372.8	
550.55	9060.9	
550.75	9215.2	
550.94	9869.8	
551.14	7343.3	
551.33	7742.7	
551.53	8608.3	
551.72	9465.7	
551.92	7710.6	
552.11	7529	
552.31	9505.3	
552.5	9518.3	
552.69	8861.6	
552.89	7257.3	
553.08	9448.6	
553.28	9211.8	
553.47	7477.1	
553.67	8494.3	
553.86	9964.1	
554.06	8488.8	
554.25	6873	
554.44	7346.7	
554.64	10499	
554.83	10090	
555.03	7344.7	
555.22	7579.5	
555.42	9533.3	
555.61	9247.3	
555.8	7488.7	
556	7690.1	
556.19	8592.6	
556.39	9574.3	
556.58	7475.1	
556.78	7563.1	
556.97	9257.5	
557.16	9002.9	
557.36	8441	
557.55	7206.8	
557.75	8352.3	
557.94	9897.2	
558.13	7314	
558.33	7122.8	
558.52	9656.9	
558.72	8799.4	
558.91	7184.3	
559.1	7410.9	
559.3	8500.4	
559.49	8249.2	
559.69	6888.7	
559.88	7559.1	
560.07	9241.8	
560.27	9553.8	
560.46	7690.8	
560.66	7852.6	
560.85	8975.6	
561.04	8378.9	
561.24	7132.4	
561.43	7193.1	
561.63	8533.2	
561.82	8815.8	
562.01	8200.1	
562.21	7546.1	
562.4	9084.1	
562.59	9780.4	
562.79	7420.5	
562.98	7150.8	
563.18	9009	
563.37	10245	
563.56	7836.9	
563.76	7035.5	
563.95	8646.5	
564.14	8659.5	
564.34	7496.9	
564.53	7109.9	
564.73	9116.9	
564.92	9283.4	
565.11	7510.6	
565.31	7057.3	
565.5	9473.2	
565.69	8671.8	
565.89	7323.5	
566.08	7460.1	
566.27	9411.8	
566.47	9650	
566.66	7977.5	
566.85	6970.6	
567.05	9212.4	
567.24	8738	
567.44	7249.1	
567.63	8302.5	
567.82	9395.4	
568.02	9057.5	
568.21	7220.5	
568.4	7565.2	
568.6	9032.2	
568.79	9017.2	
568.98	7195.2	
569.18	7222.5	
569.37	8985.8	
569.56	10632	
569.76	7579.5	
569.95	8329.1	
570.14	9425.4	
570.34	9218.6	
570.53	7140.6	
570.72	7153.6	
570.91	9771.5	
571.11	9022.7	
571.3	7691.5	
571.49	8385.7	
571.69	9090.3	
571.88	8689.5	
572.07	7983	
572.27	8090.2	
572.46	8684.1	
572.65	9506.7	
572.85	7428	
573.04	7600.7	
573.23	9734	
573.43	9121.7	
573.62	7215.7	
573.81	7748.8	
574	9200.2	
574.2	9013.1	
574.39	7556.3	
574.58	7695.6	
574.78	9870.5	
574.97	9368.1	
575.16	8013	
575.36	8113.4	
575.55	9687.6	
575.74	9819.3	
575.93	7260.7	
576.13	8155	
576.32	9156.5	
576.51	9663.7	
576.71	7672.4	
576.9	8783.1	
577.09	10025	
577.28	9501.2	
577.48	7982.3	
577.67	7214.3	
577.86	9225.4	
578.05	9467.1	
578.25	7787.1	
578.44	7855.3	
578.63	9436.4	
578.83	10334	
579.02	7283.9	
579.21	8514.1	
579.4	9450	
579.6	9299.8	
579.79	7940.7	
579.98	9649.3	
580.17	9852.8	
580.37	9886.2	
580.56	7378.8	
580.75	8228.1	
580.94	10118	
581.14	10104	
581.33	8430.1	
581.52	7566.6	
581.71	9704	
581.91	10207	
582.1	7507.9	
582.29	7823.2	
582.48	9374.2	
582.68	9271.8	
582.87	8155	
583.06	8029.4	
583.25	9680.7	
583.45	9469.8	
583.64	8472.4	
583.83	9077.3	
584.02	9381.7	
584.21	9635.7	
584.41	8463.6	
584.6	7897	
584.79	9499.8	
584.98	10055	
585.18	7531.7	
585.37	7472.4	
585.56	9058.2	
585.75	9736	
585.94	7672.4	
586.14	8275.8	
586.33	10151	
586.52	9345.6	
586.71	8027.4	
586.91	7808.2	
587.1	8906.6	
587.29	9737.4	
587.48	7790.5	
587.67	7677.2	
587.87	9684.8	
588.06	9506.7	
588.25	8723	
588.44	8129.1	
588.63	9253.4	
588.83	9790.7	
589.02	7708.6	
589.21	7623.9	
589.4	9159.9	
589.59	9028.1	
589.78	6907.8	
589.98	7094.2	
590.17	8654	
590.36	9082.7	
590.55	6649.1	
590.74	7291.5	
590.94	10012	
591.13	8789.2	
591.32	7014.3	
591.51	6659.3	
591.7	9163.3	
591.89	8740	
592.09	6763.8	
592.28	7196.6	
592.47	8227.4	
592.66	9833.7	
592.85	6790.4	
593.05	6933.7	
593.24	8658.8	
593.43	9393.3	
593.62	7056.6	
593.81	7434.8	
594	8703.9	
594.19	8968.7	
594.39	7056.6	
594.58	6809.5	
594.77	8982.4	
594.96	9533.3	
595.15	6959	
595.34	7441	
595.54	9004.2	
595.73	8336.6	
595.92	6464.8	
596.11	7314.7	
596.3	9405.6	
596.49	8415.8	
596.68	7048.4	
596.88	7429.3	
597.07	9178.3	
597.26	8217.8	
597.45	6688	
597.64	7696.3	
597.83	8445.1	
598.02	8910.7	
598.22	6761	
598.41	7324.2	
598.6	8747.6	
598.79	8278.6	
598.98	6750.8	
599.17	7559.7	
599.36	8845.9	
599.55	9610.4	
599.74	8422.6	
599.94	8218.5	
600.13	9189.9	
600.32	8253.3	
600.51	6602	
600.7	6733.7	
600.89	9682.8	
601.08	9719.7	
601.27	6519.4	
601.47	7243	
601.66	9114.8	
601.85	9543.5	
602.04	7065.5	
602.23	7100.3	
602.42	8325	
602.61	8772.8	
602.8	6928.3	
602.99	6827.2	
603.18	8656.8	
603.37	8853.4	
603.57	7294.2	
603.76	7735.9	
603.95	9382.4	
604.14	8896.4	
604.33	6859.3	
604.52	7107.1	
604.71	8742.1	
604.9	8370.7	
605.09	7633.5	
605.28	7356.3	
605.47	9263	
605.66	8834.9	
605.86	7230	
606.05	6900.3	
606.24	9323.7	
606.43	8021.2	
606.62	7108.5	
606.81	7604.1	
607	9114.8	
607.19	8540	
607.38	6602	
607.57	6787	
607.76	8334.6	
607.95	7913.4	
608.14	7195.2	
608.33	7615.7	
608.52	8290.2	
608.72	9032.9	
608.91	6503	
609.1	6404	
609.29	8353	
609.48	8000.7	
609.67	7307.8	
609.86	6538.5	
610.05	8138.6	
610.24	8316.1	
610.43	6479.8	
610.62	6059.9	
610.81	9288.2	
611	9172.2	
611.19	6449.1	
611.38	7054.6	
611.57	8605.6	
611.76	9662.3	
611.95	6321.4	
612.14	6244.9	
612.33	8363.9	
612.52	8028.7	
612.71	6778.1	
612.9	6077.7	
613.09	7702.4	
613.28	9615.2	
613.47	6694.1	
613.66	7305.1	
613.85	8604.9	
614.04	8021.2	
614.24	6653.2	
614.43	5954.8	
614.62	8600.8	
614.81	8573.5	
615	7037.5	
615.19	7034.8	
615.38	8039.6	
615.57	8329.1	
615.76	6992.4	
615.95	7658.7	
616.14	8737.3	
616.33	8319.5	
616.52	7165.8	
616.71	7296.9	
616.9	8576.9	
617.09	8500.4	
617.28	6655.9	
617.47	7614.3	
617.66	7901.1	
617.85	7872.4	
618.04	7350.2	
618.22	6926.2	
618.41	8209.6	
618.6	8956.4	
618.79	6991.8	
618.98	6725.5	
619.17	9173.5	
619.36	7786.4	
619.55	6870.3	
619.74	6892.8	
619.93	8638.3	
620.12	8182.3	
620.31	7301.7	
620.5	7434.8	
620.69	9355.8	
620.88	9432.9	
621.07	8016.4	
621.26	7314	
621.45	8835.6	
621.64	8819.2	
621.83	7401.4	
622.02	6723.5	
622.21	8891.6	
622.4	8667.7	
622.59	7793.2	
622.78	7584.3	
622.97	8354.3	
623.16	9112.8	
623.35	7312.6	
623.54	6611.5	
623.72	8551.6	
623.91	8597.4	
624.1	7542	
624.29	6543.3	
624.48	9585.9	
624.67	8964.6	
624.86	7493.5	
625.05	6669.6	
625.24	9562	
625.43	8382.3	
625.62	8850	
625.81	6888	
626	9144.2	
626.19	8663.6	
626.38	7485.3	
626.56	6991.1	
626.75	8454.7	
626.94	9131.2	
627.13	7599.3	
627.32	6513.2	
627.51	8941.4	
627.7	10009	
627.89	6670.2	
628.08	7501.7	
628.27	8237.6	
628.46	8500.4	
628.65	6840.9	
628.83	6550.1	
629.02	8988.5	
629.21	8308.6	
629.4	7204.8	
629.59	7354.3	
629.78	8352.3	
629.97	9125.1	
630.16	7424.6	
630.35	6982.9	
630.54	9421.3	
630.72	9189.9	
630.91	6976.7	
631.1	7342	
631.29	8712.7	
631.48	8819.2	
631.67	7418.4	
631.86	6943.3	
632.05	8423.3	
632.24	8381	
632.42	6684.6	
632.61	7220.5	
632.8	8480	
632.99	8170.7	
633.18	7188.4	
633.37	7543.4	
633.56	8800.1	
633.75	8626.7	
633.93	7245	
634.12	6992.4	
634.31	9499.8	
634.5	9078	
634.69	7094.2	
634.88	7514.7	
635.07	8548.9	
635.25	9007	
635.44	7661.5	
635.63	7943.4	
635.82	8382.3	
636.01	8015.7	
636.2	7609.6	
636.39	7311.2	
636.57	9329.2	
636.76	9116.2	
636.95	6890	
637.14	7908.6	
637.33	8833.6	
637.52	9468.4	
637.7	6648.4	
637.89	7472.4	
638.08	8501.8	
638.27	9626.1	
638.46	7425.9	
638.65	7794.6	
638.83	9674.6	
639.02	8222.6	
639.21	7346.7	
639.4	7817.1	
639.59	8724.3	
639.78	8372.8	
639.96	6818.4	
640.15	6853.2	
640.34	8633.6	
640.53	8578.3	
640.72	6595.8	
640.91	6809.5	
641.09	8093.6	
641.28	9111.4	
641.47	6769.9	
641.66	7471	
641.85	8612.4	
642.03	8846.5	
642.22	7278.5	
642.41	6827.9	
642.6	8070.4	
642.79	7587	
642.97	6662	
643.16	7223.9	
643.35	8128.4	
643.54	7934.5	
643.73	6576	
643.91	7281.9	
644.1	7793.2	
644.29	8316.8	
644.48	6683.9	
644.67	6712.6	
644.85	7974.8	
645.04	8271.1	
645.23	6305.7	
645.42	6644.3	
645.6	7871	
645.79	8865	
645.98	6477.7	
646.17	5679.7	
646.36	7587	
646.54	8122.9	
646.73	7111.2	
646.92	6124.8	
647.11	7698.3	
647.29	8609.7	
647.48	6241.5	
647.67	6006.7	
647.86	8800.8	
648.05	8782.4	
648.23	6383.5	
648.42	7489.4	
648.61	8238.3	
648.8	8003.5	
648.98	6100.9	
649.17	6462.7	
649.36	7623.2	
649.55	7254.6	
649.73	6197.2	
649.92	6795.2	
650.11	7606.2	
650.3	7940.7	
650.48	6285.2	
650.67	6022.4	
650.86	7993.2	
651.05	7200	
651.23	6245.6	
651.42	6149.4	
651.61	7606.2	
651.79	7621.2	
651.98	6464.1	
652.17	6058.6	
652.36	8045.8	
652.54	7227.3	
652.73	6011.5	
652.92	5909.1	
653.11	7955.7	
653.29	8063.5	
653.48	5539.8	
653.67	6306.4	
653.85	7834.8	
654.04	8641.7	
654.23	6507.8	
654.42	6108.4	
654.6	7370.6	
654.79	7993.2	
654.98	5778.7	
655.16	6051.1	
655.35	7044.3	
655.54	6956.3	
655.73	5758.2	
655.91	5547.3	
656.1	7771.4	
656.29	6817	
656.47	5274.2	
656.66	6718	
656.85	7126.9	
657.03	7114	
657.22	5698.1	
657.41	5840.8	
657.59	7248.4	
657.78	7087.3	
657.97	5486.5	
658.16	6132.3	
658.34	7798	
658.53	8163.9	
658.72	6771.3	
658.9	7169.3	
659.09	7376.8	
659.28	7441.6	
659.46	5831.2	
659.65	5737.7	
659.84	7178.1	
660.02	7649.2	
660.21	5778.7	
660.4	5665.4	
660.58	7901.1	
660.77	7380.9	
660.96	6280.4	
661.14	5494	
661.33	8324.3	
661.52	8221.9	
661.7	5382.1	
661.89	8245.1	
662.08	7107.8	
662.26	6809.5	
662.45	5646.9	
662.64	5716.6	
662.82	7741.3	
663.01	7035.5	
663.2	5710.4	
663.38	6342.6	
663.57	7605.5	
663.75	7492.2	
663.94	6032	
664.13	7027.9	
664.31	7029.3	
664.5	7664.2	
664.69	6324.8	
664.87	6623.8	
665.06	6880.5	
665.25	7564.5	
665.43	6754.2	
665.62	6853.2	
665.8	7664.9	
665.99	7160.4	
666.18	5949.3	
666.36	6032.6	
666.55	7728.4	
666.74	7563.8	
666.92	5692.7	
667.11	6906.4	
667.29	7254.6	
667.48	7698.3	
667.67	6622.4	
667.85	5845.6	
668.04	7245	
668.22	7200	
668.41	6021.7	
668.6	6284.5	
668.78	6950.1	
668.97	7240.9	
669.15	6258.6	
669.34	5408.7	
669.53	6943.3	
669.71	7393.2	
669.9	5521.3	
670.08	6109.8	
670.27	6987	
670.46	7482.6	
670.64	6277.7	
670.83	6457.9	
671.01	6891.4	
671.2	7349.5	
671.38	5665.4	
671.57	5569.1	
671.76	7914	
671.94	8396.7	
672.13	5480.4	
672.31	6330.3	
672.5	7656.7	
672.69	6969.2	
672.87	5657.2	
673.06	5905	
673.24	7522.9	
673.43	7061.4	
673.61	6127.5	
673.8	5875.6	
673.98	7575.4	
674.17	7677.2	
674.36	6338.5	
674.54	6219	
674.73	7351.5	
674.91	7585.7	
675.1	6004.6	
675.28	5606	
675.47	7246.4	
675.65	7675.1	
675.84	5868.1	
676.03	6070.2	
676.21	7050.5	
676.4	6623.8	
676.58	6464.8	
676.77	6367.8	
676.95	8292.9	
677.14	6943.3	
677.32	5606.7	
677.51	5494.7	
677.69	7681.9	
677.88	6720.8	
678.06	5451.7	
678.25	5640.8	
678.44	7195.9	
678.62	7005.4	
678.81	5339.1	
678.99	6150.1	
679.18	7929.1	
679.36	7550.2	
679.55	5841.5	
679.73	6293.4	
679.92	7509.2	
680.1	7042.3	
680.29	6843.6	
680.47	5816.2	
680.66	6999.3	
680.84	7577.5	
681.03	5297.4	
681.21	6127.5	
681.4	6954.2	
681.58	6921.5	
681.77	5609.4	
681.95	5565.7	
682.14	7597.3	
682.32	7935.2	
682.51	6313.2	
682.69	5373.2	
682.88	6926.9	
683.06	7362.4	
683.25	6096.8	
683.43	6472.3	
683.62	7187.7	
683.8	7531.7	
683.99	6472.3	
684.17	6016.2	
684.36	8170	
684.54	7099.6	
684.73	5334.3	
684.91	5445.5	
685.1	7333.8	
685.28	6845	
685.46	5898.1	
685.65	5901.6	
685.83	7435.5	
686.02	6909.8	
686.2	5449.6	
686.39	5530.2	
686.57	6525.5	
686.76	7904.5	
686.94	5356.1	
687.13	5522	
687.31	7322.9	
687.5	6972	
687.68	5079.6	
687.86	6166.4	
688.05	8295	
688.23	6504.3	
688.42	6113.2	
688.6	5422.3	
688.79	6824.5	
688.97	6877.8	
689.16	5819.6	
689.34	4999.1	
689.52	7463.5	
689.71	7690.8	
689.89	6018.3	
690.08	5477	
690.26	7124.2	
690.45	6972.7	
690.63	6204.7	
690.81	5673.6	
691	6908.5	
691.18	6850.5	
691.37	5773.2	
691.55	7541.3	
691.74	6733	
691.92	8415.8	
692.1	5707.7	
692.29	5373.9	
692.47	6957.6	
692.66	6418.3	
692.84	5450.3	
693.02	5789.6	
693.21	6458.6	
693.39	6965.8	
693.58	5933.6	
693.76	5460.6	
693.94	7826.7	
694.13	7593.9	
694.31	5456.5	
694.5	6287.3	
694.68	6752.8	
694.86	7033.4	
695.05	5825.8	
695.23	6078.4	
695.42	7339.9	
695.6	9156.5	
695.78	6260	
695.97	5539.1	
696.15	7432.1	
696.34	6894.8	
696.52	5379.3	
696.7	6024.4	
696.89	7202.7	
697.07	6658.6	
697.25	5892	
697.44	7120.1	
697.62	7187.7	
697.81	7379.5	
697.99	5753.4	
698.17	6074.3	
698.36	6660.7	
698.54	7162.4	
698.72	5915.9	
698.91	5149.3	
699.09	6793.1	
699.28	6723.5	
699.46	5657.9	
699.64	5606.7	
699.83	6653.9	
700.01	7565.9	
700.19	6234	
700.38	4939	
700.56	7605.5	
700.74	6700.3	
700.93	5223.7	
701.11	5920.7	
701.29	7177.4	
701.48	7987.8	
701.66	5399.1	
701.84	5477.6	
702.03	6791.1	
702.21	7393.2	
702.39	5127.4	
702.58	5627.8	
702.76	7191.8	
702.94	7165.2	
703.13	5110.4	
703.31	6991.8	
703.49	6643.6	
703.68	7291.5	
703.86	5244.2	
704.04	5991.7	
704.23	7009.5	
704.41	7368.6	
704.59	5405.3	
704.78	6242.9	
704.96	7925	
705.14	7299	
705.33	5216.9	
705.51	5875.6	
705.69	6819.1	
705.87	7470.3	
706.06	6069.5	
706.24	5156.1	
706.42	7055.3	
706.61	7255.3	
706.79	6098.9	
706.97	5131.5	
707.16	6520	
707.34	7087.3	
707.52	5991	
707.7	5352.7	
707.89	6660	
708.07	6444.3	
708.25	6042.2	
708.44	6116.6	
708.62	6667.5	
708.8	7537.9	
708.98	6141.9	
709.17	5324.7	
709.35	6864.1	
709.53	7046.4	
709.72	5023	
709.9	5547.9	
710.08	7147.4	
710.26	7170.6	
710.45	6460	
710.63	5313.8	
710.81	6881.2	
710.99	6929	
711.18	5815.5	
711.36	5501.5	
711.54	6737.1	
711.72	7322.2	
711.91	5459.9	
712.09	5009.3	
712.27	6875	
712.45	7367.2	
712.64	5709.1	
712.82	4837.3	
713	6404.7	
713.18	6495.5	
713.37	4993.6	
713.55	6015.6	
713.73	7155.6	
713.91	6090.7	
714.1	5225.7	
714.28	4807.3	
714.46	6874.3	
714.64	6180.1	
714.83	4356	
715.01	5049.6	
715.19	6320.7	
715.37	5693.4	
715.55	4730.1	
715.74	4887.8	
715.92	6963.1	
716.1	5264	
716.28	5810.8	
716.47	5048.9	
716.65	5916.6	
716.83	5925.5	
717.01	4883	
717.19	4909.7	
717.38	7650.5	
717.56	5651.7	
717.74	5103.5	
717.92	4364.9	
718.1	6670.9	
718.29	5972.6	
718.47	3979.9	
718.65	4599.1	
718.83	6625.2	
719.01	6468.9	
719.2	3997.6	
719.38	4848.2	
719.56	6285.2	
719.74	7568.6	
719.92	4595	
720.11	5380	
720.29	6367.1	
720.47	5605.3	
720.65	4244.1	
720.83	4958.1	
721.02	5904.3	
721.2	5705.6	
721.38	4947.2	
721.56	4293.2	
721.74	5312.4	
721.92	5390.3	
722.11	5261.2	
722.29	5022.3	
722.47	6426.5	
722.65	5756.2	
722.83	4326.7	
723.01	5036	
723.2	5808	
723.38	6064.7	
723.56	3878.2	
723.74	4797	
723.92	5425.8	
724.1	6298.2	
724.29	4169	
724.47	5117.2	
724.65	5525.4	
724.83	5394.3	
725.01	4190.1	
725.19	4822.3	
725.37	5412.1	
725.56	5481	
725.74	4027.7	
725.92	4199.7	
726.1	5336.3	
726.28	5610.1	
726.46	4569	
726.64	4316.4	
726.83	5574.6	
727.01	5813.5	
727.19	4029	
727.37	4594.3	
727.55	5702.2	
727.73	6111.8	
727.91	3908.9	
728.09	3829	
728.28	6163.7	
728.46	6395.8	
728.64	4756.1	
728.82	4646.2	
729	6929.6	
729.18	6425.2	
729.36	3994.9	
729.54	5983.5	
729.72	7126.9	
729.91	5714.5	
730.09	5606.7	
730.27	4563.6	
730.45	5687.9	
730.63	6201.9	
730.81	5019.6	
730.99	4280.3	
731.17	6696.9	
731.35	5496.7	
731.53	4666.6	
731.71	4390.8	
731.9	6412.2	
732.08	6560.3	
732.26	4600.4	
732.44	4270.7	
732.62	6597.9	
732.8	6154.1	
732.98	4924.7	
733.16	4238.6	
733.34	6185.5	
733.52	5145.9	
733.7	4502.1	
733.88	4709.6	
734.07	6029.2	
734.25	5816.2	
734.43	4148.5	
734.61	5332.2	
734.79	7046.4	
734.97	5687.9	
735.15	4197.7	
735.33	4464.6	
735.51	6011.5	
735.69	5667.4	
735.87	5354.8	
736.05	4657.1	
736.23	5906.3	
736.41	5600.5	
736.59	4480.3	
736.77	4535.6	
736.95	6185.5	
737.13	5727.5	
737.32	4206.5	
737.5	4401.8	
737.68	6649.8	
737.86	5633.3	
738.04	4056.3	
738.22	5544.5	
738.4	5546.6	
738.58	5767.1	
738.76	4547.9	
738.94	3738.2	
739.12	5588.2	
739.3	5516.5	
739.48	5110.4	
739.66	4783.4	
739.84	5759.6	
740.02	5698.8	
740.2	3805.1	
740.38	4036.5	
740.56	6052.4	
740.74	5078.3	
740.92	4564.9	
741.1	4518.5	
741.28	5630.5	
741.46	5472.2	
741.64	4200.4	
741.82	4678.2	
742	5621.7	
742.18	5624.4	
742.36	4396.3	
742.54	4052.2	
742.72	6128.9	
742.9	5107	
743.08	4705.5	
743.26	3761.4	
743.44	6258.6	
743.62	6102.9	
743.8	4817.5	
743.98	4048.2	
744.16	5890	
744.34	5587.5	
744.52	4767	
744.7	4726.7	
744.88	5961	
745.06	5540.4	
745.24	4717.2	
745.42	4844.1	
745.6	6004	
745.78	5887.2	
745.96	3870.7	
746.14	4065.2	
746.32	6647.7	
746.5	6003.3	
746.68	4516.5	
746.86	4100	
747.03	6328.2	
747.21	5067.4	
747.39	4526.7	
747.57	4078.2	
747.75	5748	
747.93	6016.2	
748.11	4040	
748.29	3997	
748.47	6978.1	
748.65	5525.4	
748.83	4659.1	
749.01	4392.9	
749.19	5935	
749.37	5192.3	
749.55	4308.9	
749.73	4450.9	
749.91	5655.8	
750.09	5437.4	
750.26	4455	
750.44	3940.3	
750.62	5617.6	
750.8	5574.6	
750.98	3840.6	
751.16	4014	
751.34	5718.6	
751.52	5130.2	
751.7	4718.5	
751.88	3784	
752.06	6057.9	
752.24	5921.4	
752.42	3717.1	
752.59	4063.2	
752.77	5637.4	
752.95	6596.5	
753.13	4657.8	
753.31	4147.1	
753.49	5352.7	
753.67	5706.3	
753.85	4410	
754.03	4031.8	
754.21	5986.2	
754.38	6165.1	
754.56	4159.4	
754.74	3463.1	
754.92	5343.8	
755.1	5823.7	
755.28	3501.3	
755.46	3505.4	
755.64	6587	
755.82	6596.5	
755.99	3799.7	
756.17	3799.7	
756.35	4574.5	
756.53	5851.7	
756.71	2881.5	
756.89	3694.5	
757.07	5436	
757.25	4746.5	
757.42	4078.9	
757.6	4845.5	
757.78	5526.8	
757.96	4752.7	
758.14	3838.6	
758.32	3535.5	
758.5	4386.7	
758.67	5073.5	
758.85	3756	
759.03	3816	
759.21	5299.5	
759.39	4740.4	
759.57	3423.5	
759.75	4326.7	
759.92	5612.1	
760.1	5223	
760.28	4584	
760.46	4745.8	
760.64	4984.8	
760.82	4805.9	
760.99	4218.1	
761.17	3781.2	
761.35	5620.3	
761.53	4851	
761.71	3891.1	
761.89	4435.9	
762.06	5508.4	
762.24	5142.4	
762.42	3998.3	
762.6	3773.7	
762.78	5099.4	
762.96	5637.4	
763.13	4182.6	
763.31	3971	
763.49	5742.5	
763.67	5045.5	
763.85	4616.1	
764.02	5131.5	
764.2	5974.6	
764.38	5269.4	
764.56	3844	
764.74	4613.4	
764.91	6003.3	
765.09	5113.8	
765.27	3588	
765.45	3461.1	
765.63	6128.9	
765.8	5907.7	
765.98	3322.5	
766.16	3506.8	
766.34	4774.5	
766.52	4616.8	
766.69	4270.7	
766.87	3369.6	
767.05	5147.9	
767.23	5812.1	
767.41	3710.9	
767.58	3861.1	
767.76	5608	
767.94	5601.2	
768.12	3704.1	
768.29	4289.8	
768.47	5151.3	
768.65	5778.7	
768.83	3431.7	
769	4327.4	
769.18	4806.6	
769.36	5358.2	
769.54	4285.7	
769.72	3467.2	
769.89	5674.2	
770.07	5691.3	
770.25	3685.7	
770.43	4757.4	
770.6	6331.6	
770.78	6631.3	
770.96	3898.6	
771.14	4347.8	
771.31	5621.7	
771.49	5056.4	
771.67	3212.6	
771.85	3398.3	
772.02	4446.1	
772.2	5007.3	
772.38	3985.3	
772.55	3556.6	
772.73	5345.9	
772.91	5069.4	
773.09	3905.5	
773.26	3960.1	
773.44	5255.8	
773.62	4980	
773.8	3495.2	
773.97	3293.8	
774.15	5285.1	
774.33	4997.7	
774.5	3478.8	
774.68	3751.2	
774.86	5447.6	
775.04	4949.3	
775.21	3467.2	
775.39	3517.7	
775.57	5257.1	
775.74	5521.3	
775.92	3337.5	
776.1	3229.6	
776.27	5182	
776.45	6156.9	
776.63	3467.2	
776.81	3103.4	
776.98	4965.6	
777.16	5754.8	
777.34	3601.7	
777.51	3864.5	
777.69	4915.1	
777.87	4713.1	
778.04	3660.4	
778.22	4100	
778.4	4782	
778.57	5332.2	
778.75	3036.5	
778.93	3257.6	
779.1	4635.2	
779.28	4510.3	
779.46	3036.5	
779.64	3448.1	
779.81	5466.7	
779.99	6119.3	
780.17	4037.2	
780.34	4197	
780.52	5002.5	
780.69	5090.6	
780.87	3701.4	
781.05	3355.3	
781.22	5037.3	
781.4	5108.3	
781.58	3493.2	
781.75	2810.5	
781.93	5111.7	
782.11	4536.3	
782.28	4276.8	
782.46	3457	
782.64	4459.1	
782.81	5212.8	
782.99	3605.1	
783.17	3545.7	
783.34	5115.1	
783.52	4489.1	
783.69	3678.8	
783.87	4318.5	
784.05	4612.7	
784.22	4566.3	
784.4	4333.5	
784.58	3723.2	
784.75	5362.9	
784.93	4627.7	
785.1	3489.1	
785.28	3949.2	
785.46	5115.1	
785.63	4574.5	
785.81	3512.9	
785.99	3336.1	
786.16	4780	
786.34	4981.3	
786.51	3369.6	
786.69	3702	
786.87	4369.7	
787.04	4816.1	
787.22	3233.1	
787.39	4033.1	
787.57	4665.3	
787.75	5420.3	
787.92	4159.4	
788.1	4136.9	
788.27	4595.6	
788.45	4403.8	
788.63	3912.3	
788.8	2829.6	
788.98	4992.3	
789.15	4270.7	
789.33	3033.7	
789.5	3462.4	
789.68	5360.9	
789.86	5461.2	
790.03	3837.9	
790.21	3407.8	
790.38	5393	
790.56	4675.5	
790.73	3262.4	
790.91	3326.6	
791.09	4627.7	
791.26	5181.4	
791.44	3556	
791.61	3001	
791.79	4574.5	
791.96	4620.9	
792.14	3143.6	
792.32	2798.2	
792.49	4595	
792.67	4696	
792.84	3218	
793.02	3032.4	
793.19	4952	
793.37	5575.3	
793.54	2820.7	
793.72	3106.1	
793.89	5573.2	
794.07	4590.2	
794.25	3543.7	
794.42	2827.6	
794.6	5453.1	
794.77	5182	
794.95	3818.8	
795.12	3336.8	
795.3	4619.5	
795.47	5104.2	
795.65	3667.9	
795.82	3521.1	
796	4461.8	
796.17	5989.6	
796.35	3418.1	
796.52	3990.8	
796.7	5093.3	
796.87	5118.6	
797.05	3396.9	
797.22	4156.7	
797.4	5070.8	
797.57	5853.8	
797.75	3561.4	
797.92	3354.6	
798.1	5363.6	
798.27	4492.6	
798.45	2910.2	
798.62	3067.9	
798.8	4893.3	
798.97	5262.6	
799.15	3752.6	
799.32	3529.3	
799.5	4274.8	
799.67	4868.7	
799.85	3799	
800.02	2859.6	
800.2	4554	
800.37	4769	
800.55	3931.4	
800.72	3327.9	
800.9	5250.3	
801.07	5566.4	
801.25	4369	
801.42	3674.1	
801.6	5260.5	
801.77	4969.1	
801.95	3397.6	
802.12	3277.4	
802.29	5019.6	
802.47	4976.6	
802.64	3667.2	
802.82	2761.3	
802.99	4584.7	
803.17	5367.7	
803.34	3585.3	
803.52	3237.2	
803.69	5927.5	
803.87	4321.2	
804.04	3514.3	
804.21	3605.1	
804.39	5482.4	
804.56	4721.9	
804.74	3038.5	
804.91	3661.8	
805.09	4553.3	
805.26	4667.3	
805.44	3029.6	
805.61	3379.1	
805.78	5204.6	
805.96	5071.5	
806.13	3609.2	
806.31	3945.1	
806.48	4201.7	
806.66	4700.1	
806.83	3659.7	
807	3563.5	
807.18	4646.8	
807.35	4904.9	
807.53	3593.5	
807.7	2958.6	
807.87	5545.9	
808.05	4629.1	
808.22	3908.9	
808.4	2877.4	
808.57	4592.9	
808.74	4325.3	
808.92	3324.5	
809.09	4138.3	
809.27	4543.1	
809.44	5036	
809.61	2924.5	
809.79	3209.8	
809.96	5593	
810.14	5145.2	
810.31	2833	
810.48	3456.3	
810.66	4635.9	
810.83	5242.1	
811.01	3267.2	
811.18	3621.5	
811.35	5258.5	
811.53	4171	
811.7	3975.1	
811.87	3667.2	
812.05	4607.9	
812.22	4583.4	
812.39	3215.3	
812.57	3070.6	
812.74	4668.7	
812.92	5988.9	
813.09	3492.5	
813.26	3745.7	
813.44	5765	
813.61	4539	
813.78	2886.3	
813.96	3811.3	
814.13	4622.3	
814.3	4386.1	
814.48	4045.4	
814.65	3382.6	
814.82	5616.2	
815	4375.8	
815.17	3484.3	
815.34	4338.3	
815.52	4574.5	
815.69	4506.9	
815.87	3476.1	
816.04	3452.9	
816.21	4670.7	
816.38	4173.1	
816.56	3392.1	
816.73	3149.8	
816.9	5805.3	
817.08	5203.2	
817.25	3201.7	
817.42	3949.2	
817.6	4264.6	
817.77	4644.8	
817.94	3618.8	
818.12	3114.3	
818.29	4452.3	
818.46	6518	
818.64	3323.2	
818.81	3084.2	
818.98	4377.9	
819.16	6118	
819.33	3748.5	
819.5	3508.9	
819.67	4933.6	
819.85	5445.5	
820.02	3418.7	
820.19	3650.2	
820.37	4818.2	
820.54	4539	
820.71	3564.1	
820.88	4448.2	
821.06	4838.7	
821.23	4422.2	
821.4	3654.9	
821.58	3554.6	
821.75	5220.3	
821.92	4719.2	
822.09	2932	
822.27	3048.1	
822.44	4631.8	
822.61	4546.5	
822.79	2923.8	
822.96	5422.3	
823.13	5005.2	
823.3	4359.4	
823.48	3369.6	
823.65	3052.2	
823.82	5210.7	
823.99	4272.7	
824.17	4186	
824.34	3071.3	
824.51	5926.8	
824.68	4711	
824.86	3289	
825.03	3600.3	
825.2	4605.2	
825.37	5522	
825.55	3166.2	
825.72	3499.3	
825.89	5954.8	
826.06	5551.4	
826.24	3465.8	
826.41	3431	
826.58	5593.7	
826.75	4837.3	
826.92	2799.6	
827.1	3039.2	
827.27	7389.8	
827.44	5882.4	
827.61	3292.5	
827.79	3926.6	
827.96	4427	
828.13	4629.8	
828.3	3429.7	
828.47	2953.2	
828.65	4890.5	
828.82	4799.1	
828.99	4310.3	
829.16	3795.6	
829.34	5133.6	
829.51	4981.3	
829.68	3499.3	
829.85	3637.2	
830.02	5468.1	
830.2	5186.8	
830.37	2768.9	
830.54	4136.9	
830.71	5756.2	
830.88	4611.3	
831.05	2788	
831.23	3151.8	
831.4	5657.2	
831.57	6142.5	
831.74	3275.4	
831.91	2937.5	
832.09	4945.2	
832.26	5134.9	
832.43	3311.6	
832.6	3753.2	
832.77	4928.8	
832.94	5532.9	
833.12	2717	
833.29	3292.5	
833.46	4974.5	
833.63	6377.4	
833.8	3671.3	
833.97	3369.6	
834.15	5203.9	
834.32	5007.3	
834.49	3491.1	
834.66	3581.9	
834.83	5371.1	
835	4446.1	
835.17	3301.3	
835.35	3272.7	
835.52	5135.6	
835.69	4986.8	
835.86	3411.9	
836.03	2872.6	
836.2	5167.7	
836.37	4856.4	
836.55	3355.9	
836.72	3164.1	
836.89	4840.7	
837.06	5263.3	
837.23	3461.1	
837.4	3700	
837.57	5843.5	
837.75	6429.9	
837.92	3059	
838.09	3276.1	
838.26	4795.7	
838.43	5359.5	
838.6	3517.7	
838.77	3169.6	
838.94	6025.1	
839.11	5879.7	
839.29	3435.1	
839.46	2706	
839.63	5194.3	
839.8	4949.9	
839.97	3306.1	
840.14	3287.7	
840.31	5022.3	
840.48	5236	
840.65	2774.3	
840.82	3209.8	
841	5176.6	
841.17	5022.3	
841.34	3043.3	
841.51	3089.7	
841.68	5136.3	
841.85	4934.9	
842.02	3106.8	
842.19	2655.5	
842.36	5005.2	
842.53	4961.5	
842.7	3049.4	
842.87	3689.8	
843.05	6309.1	
843.22	4870.1	
843.39	2910.2	
843.56	3112.2	
843.73	4760.8	
843.9	5285.8	
844.07	4815.5	
844.24	3953.9	
844.41	7243	
844.58	4595.6	
844.75	2939.5	
844.92	3170.3	
845.09	5119.9	
845.26	5107.6	
845.43	3003	
845.6	3203.7	
845.77	5141.8	
845.94	4935.6	
846.12	3290.4	
846.29	3489.1	
846.46	5337	
846.63	5188.9	
846.8	2989.4	
846.97	3544.4	
847.14	5508.4	
847.31	5135.6	
847.48	3374.4	
847.65	3689.1	
847.82	5392.3	
847.99	5259.9	
848.16	3968.3	
848.33	3644.7	
848.5	4717.2	
848.67	5534.3	
848.84	2982.5	
849.01	3123.2	
849.18	4666.6	
849.35	4430.4	
849.52	3787.4	
849.69	2960.7	
849.86	5363.6	
850.03	5435.3	
850.2	3055.6	
850.37	3652.2	
850.54	5370.5	
850.71	4884.4	
850.88	3588.7	
851.05	2981.2	
851.22	5064.6	
851.39	5572.5	
851.56	2893.1	
851.73	3404.4	
851.9	4549.2	
852.07	5343.8	
852.24	3405.1	
852.41	2990	
852.58	5070.8	
852.75	4605.9	
852.92	3398.3	
853.09	2979.8	
853.26	4782	
853.43	5422.3	
853.6	3049.4	
853.77	2579.1	
853.94	5560.2	
854.11	4534.2	
854.28	4382.7	
854.44	3304.7	
854.61	5907.7	
854.78	5422.3	
854.95	2993.4	
855.12	3715	
855.29	4183.3	
855.46	5651.7	
855.63	3055.6	
855.8	4070	
855.97	4754	
856.14	5461.9	
856.31	4242.7	
856.48	3216.7	
856.65	4835.3	
856.82	4536.3	
856.99	2907.4	
857.16	3246	
857.33	6132.3	
857.49	4872.1	
857.66	3209.8	
857.83	3510.2	
858	4857.1	
858.17	5025	
858.34	2863.7	
858.51	3013.9	
858.68	5650.3	
858.85	5739.1	
859.02	3422.8	
859.19	3515.7	
859.36	4582	
859.52	4622.3	
859.69	2959.3	
859.86	3471.3	
860.03	4621.6	
860.2	5586.2	
860.37	2770.9	
860.54	3014.6	
860.71	5287.9	
860.88	5679	
861.05	3409.2	
861.21	3781.2	
861.38	5600.5	
861.55	4414.7	
861.72	2766.1	
861.89	3290.4	
862.06	5313.8	
862.23	5724.8	
862.4	2940.2	
862.56	3106.1	
862.73	5205.9	
862.9	4939	
863.07	3442.6	
863.24	2706	
863.41	4472.8	
863.58	4595	
863.75	3067.2	
863.91	3506.1	
864.08	5539.8	
864.25	5257.1	
864.42	3762.8	
864.59	4123.2	
864.76	5844.2	
864.93	4585.4	
865.09	2909.5	
865.26	3235.1	
865.43	5552	
865.6	5879	
865.77	2668.5	
865.94	2925.9	
866.1	5561.6	
866.27	5304.2	
866.44	4448.2	
866.61	2880.1	
866.78	4843.4	
866.95	5298.8	
867.11	2927.2	
867.28	2727.9	
867.45	5389.6	
867.62	4698.7	
867.79	3474.7	
867.96	3009.1	
868.12	4508.3	
868.29	5343.8	
868.46	3017.3	
868.63	3977.2	
868.8	5451.7	
868.97	5290.6	
869.13	3101.3	
869.3	3117	
869.47	5167	
869.64	5403.2	
869.81	2970.2	
869.97	2977.1	
870.14	5124.7	
870.31	5652.4	
870.48	2939.5	
870.65	3745.7	
870.81	4861.9	
870.98	4870.1	
871.15	3369.6	
871.32	3222.1	
871.48	5160.2	
871.65	5622.4	
871.82	2990.7	
871.99	3284.9	
872.16	6042.2	
872.32	5486.5	
872.49	3058.3	
872.66	3029.6	
872.83	5281	
872.99	4670.1	
873.16	3422.8	
873.33	2953.2	
873.5	4937.7	
873.67	5025.7	
873.83	3164.8	
874	3978.5	
874.17	5115.1	
874.34	5945.9	
874.5	3851.5	
874.67	3670.6	
874.84	5583.4	
875.01	4440	
875.17	4126	
875.34	2976.4	
875.51	5064.6	
875.68	6077	
875.84	3614.7	
876.01	4300.7	
876.18	5246.9	
876.34	5261.2	
876.51	2985.9	
876.68	2939.5	
876.85	4803.9	
877.01	5534.3	
877.18	4197.7	
877.35	2919.7	
877.52	5073.5	
877.68	4477.5	
877.85	2955.9	
878.02	3007.1	
878.18	4908.3	
878.35	4718.5	
878.52	2481.5	
878.69	3378.5	
878.85	5388.2	
879.02	5262.6	
879.19	4225	
879.35	3245.3	
879.52	5279	
879.69	5436	
879.86	2656.9	
880.02	3340.9	
880.19	4971.8	
880.36	5918.6	
880.52	3476.1	
880.69	3571	
880.86	5373.9	
881.02	5407.3	
881.19	3326.6	
881.36	3242.6	
881.52	5277.6	
881.69	4711.7	
881.86	3276.8	
882.02	3175	
882.19	5493.3	
882.36	6237.4	
882.52	3063.1	
882.69	4128	
882.86	5033.2	
883.02	5076.9	
883.19	3625.6	
883.36	3394.8	
883.52	5362.3	
883.69	6040.1	
883.86	3043.3	
884.02	2732.7	
884.19	5298.8	
884.36	5023	
884.52	3412.6	
884.69	3271.3	
884.86	4791.6	
885.02	5786.2	
885.19	3332	
885.36	3426.9	
885.52	4954	
885.69	5173.9	
885.86	4244.1	
886.02	3792.2	
886.19	5297.4	
886.35	4722.6	
886.52	3381.2	
886.69	4167.6	
886.85	4579.3	
887.02	5625.1	
887.19	5625.1	
887.35	5625.1	
887.52	5625.1	
887.68	5625.1	
887.85	5625.1	
888.02	5625.1	
888.18	5625.1	
888.35	5625.1	
888.51	5625.1	
888.68	5625.1	
888.85	5625.1	
889.01	5625.1	
889.18	5625.1	
889.35	5625.1	
889.51	5625.1	
889.68	5625.1	
889.84	5625.1	
890.01	5625.1	
890.17	5625.1	
890.34	5625.1	
890.51	5625.1	
890.67	5625.1	
890.84	5625.1	
891	5625.1	
891.17	5625.1	
891.34	5625.1	
891.5	5625.1	
891.67	5625.1	
891.83	5625.1	
892	5625.1	
892.16	5625.1	
892.33	5625.1	
892.5	5625.1	
892.66	5625.1	
892.83	5625.1	
892.99	5625.1	
893.16	5625.1	
893.32	5625.1	
893.49	5625.1	
893.65	5625.1	
893.82	5625.1	
893.99	5625.1	
894.15	5625.1	
894.32	5625.1	
894.48	5625.1	
894.65	5625.1	
894.81	5625.1	
894.98	5625.1	
895.14	5625.1	
895.31	5625.1	
895.47	5625.1	
895.64	5625.1	
895.81	5625.1	
895.97	5625.1	
896.14	5625.1	
896.3	5625.1	
896.47	5625.1	
896.63	5625.1	
896.8	5625.1	
896.96	5625.1	
897.13	5625.1	
897.29	5625.1	
897.46	5625.1	
897.62	5625.1	
897.79	5625.1	
897.95	5625.1	
898.12	5625.1	
898.28	5625.1	
898.45	5625.1	
898.61	5625.1	
898.78	5625.1	
898.94	5625.1	
899.11	5625.1	
899.27	5625.1	
899.44	5625.1	
899.6	5625.1	
899.77	5625.1	
899.93	5625.1	
900.1	5625.1	
900.26	5625.1	
900.43	5625.1	
900.59	5625.1	
900.76	5625.1	
900.92	5625.1	
901.09	5625.1	
901.25	5625.1	
901.42	5625.1	
901.58	5625.1	
901.75	5625.1	
901.91	5625.1	
902.07	5625.1	
902.24	5625.1	
902.4	5625.1	
902.57	5625.1	
902.73	5625.1	
902.9	5625.1	
903.06	5625.1	
903.23	5625.1	
903.39	5625.1	
903.56	5625.1	
903.72	5625.1	
903.88	5625.1	
904.05	5625.1	
904.21	5625.1	
904.38	5625.1	
904.54	5625.1	
904.71	5625.1	
904.87	5625.1	
905.03	5625.1	
905.2	5625.1	
905.36	5625.1	
905.53	5625.1	
905.69	5625.1	
905.86	5625.1	
906.02	5625.1	
906.18	5625.1	
906.35	5625.1	
906.51	5625.1	
906.68	5625.1	
906.84	5625.1	
907.01	5625.1	
907.17	5625.1	
907.33	5625.1	
907.5	5625.1	
907.66	5625.1	
907.83	5625.1	
907.99	5625.1	
908.15	5625.1	
908.32	5625.1	
908.48	5625.1	
908.65	5625.1	
908.81	5625.1	
908.97	5625.1	
909.14	5625.1	
909.3	5625.1	
909.47	5625.1	
909.63	5625.1	
909.79	5625.1	
909.96	5625.1	
910.12	5625.1	
910.28	5625.1	
910.45	5625.1	
910.61	5625.1	
910.78	5625.1	
910.94	5625.1	
911.1	5625.1	
911.27	5625.1	
911.43	5625.1	
911.59	5625.1	
911.76	5625.1	
911.92	5625.1	
912.08	5625.1	
912.25	5625.1	
912.41	5625.1	
912.57	5625.1	
912.74	5625.1	
912.9	5625.1	
913.07	5625.1	
913.23	5625.1	
913.39	5625.1	
913.56	5625.1	
913.72	5625.1	
913.88	5625.1	
914.05	5625.1	
914.21	5625.1	
914.37	5625.1	
914.54	5625.1	
914.7	5625.1	
914.86	5625.1	
915.03	5625.1	
915.19	5625.1	
