Wavelength	Intensities	
nm	a.u.	
179.22	1686.3	
179.44	1674.2	
179.65	1698.4	
179.86	1650	
180.08	1686.2	
180.29	3921.9	
180.51	3011.2	
180.72	4941.1	
180.94	5500.2	
181.15	2745	
181.37	2697.9	
181.58	4809.3	
181.79	4997.7	
182.01	2792.7	
182.22	2983.2	
182.44	5026.4	
182.65	4323.9	
182.87	3626.3	
183.08	3211.2	
183.29	5255.1	
183.51	4372.4	
183.72	2955.2	
183.94	4151.2	
184.15	4756.1	
184.37	4670.1	
184.58	2637.1	
184.79	3450.8	
185.01	4454.3	
185.22	5027.1	
185.44	3658.4	
185.65	3108.8	
185.86	4734.2	
186.08	4337.6	
186.29	2586.6	
186.51	2788	
186.72	4458.4	
186.94	5074.2	
187.15	3166.8	
187.36	3276.8	
187.58	6336.4	
187.79	4812	
188.01	3300.6	
188.22	4981.3	
188.43	5553.4	
188.65	4964.3	
188.86	2834.4	
189.08	3275.4	
189.29	4577.9	
189.5	4515.1	
189.72	2958.6	
189.93	3035.8	
190.15	5071.5	
190.36	5888.6	
190.57	3333.4	
190.79	3170.9	
191	5149.3	
191.22	5126.1	
191.43	3284.9	
191.64	2816	
191.86	5302.9	
192.07	5150.6	
192.29	2924.5	
192.5	2958.6	
192.71	5113.8	
192.93	4545.8	
193.14	2922.5	
193.35	3077.4	
193.57	4508.3	
193.78	5184.1	
194	2471.9	
194.21	2930.6	
194.42	4401.8	
194.64	4689.8	
194.85	3273.3	
195.07	3721.2	
195.28	4640	
195.49	4223.6	
195.71	3838.6	
195.92	2846.7	
196.13	4896	
196.35	4902.8	
196.56	4149.9	
196.78	3188.7	
196.99	5887.9	
197.2	5464	
197.42	3568.2	
197.63	3301.3	
197.84	4351.9	
198.06	4887.1	
198.27	3001	
198.48	3981.3	
198.7	4571.7	
198.91	4718.5	
199.13	3304.1	
199.34	3209.2	
199.55	5059.8	
199.77	4071.4	
199.98	2905.4	
200.19	3276.1	
200.41	4666.6	
200.62	4382.7	
200.83	3325.2	
201.05	3605.1	
201.26	4677.6	
201.47	4457.1	
201.69	2950.4	
201.9	2842.6	
202.11	4721.3	
202.33	5452.4	
202.54	3126.6	
202.76	3430.3	
202.97	4810.7	
203.18	4794.3	
203.4	3320.4	
203.61	3360.7	
203.82	4775.2	
204.04	4483.7	
204.25	3272.7	
204.46	3173	
204.68	4750.6	
204.89	4857.8	
205.1	3201.7	
205.32	2782.5	
205.53	4997.7	
205.74	5092.6	
205.96	2441.9	
206.17	3283.6	
206.38	4891.2	
206.6	5110.4	
206.81	3700	
207.02	3061.7	
207.24	4872.8	
207.45	5167	
207.66	3099.9	
207.88	2776.4	
208.09	4898.7	
208.3	4735.6	
208.52	2917.7	
208.73	3113.6	
208.94	4683	
209.15	5240.8	
209.37	3070.6	
209.58	3243.3	
209.79	5102.9	
210.01	4547.9	
210.22	2607.7	
210.43	2708.1	
210.65	4644.1	
210.86	5005.9	
211.07	3127.9	
211.29	2847.4	
211.5	4943.1	
211.71	4640.7	
211.93	2923.8	
212.14	2891.7	
212.35	4713.7	
212.56	4773.8	
212.78	3306.8	
212.99	2796.8	
213.2	5403.9	
213.42	4571.1	
213.63	2979.1	
213.84	3147.7	
214.06	4299.4	
214.27	4326.7	
214.48	3098.6	
214.69	3261.7	
214.91	5161.6	
215.12	5225.7	
215.33	3325.9	
215.55	3533.4	
215.76	5578	
215.97	4934.9	
216.18	3152.5	
216.4	3174.4	
216.61	4454.3	
216.82	5037.3	
217.04	2914.3	
217.25	3003.7	
217.46	5189.6	
217.67	5020.3	
217.89	2620	
218.1	2734	
218.31	4737.6	
218.53	4859.8	
218.74	3052.2	
218.95	2974.3	
219.16	4725.3	
219.38	5350	
219.59	2958.6	
219.8	3408.5	
220.01	5811.5	
220.23	4721.9	
220.44	3713.6	
220.65	2856.9	
220.87	4828.4	
221.08	5169.8	
221.29	2759.3	
221.5	3479.5	
221.72	6053.1	
221.93	4434.5	
222.14	3258.3	
222.35	3766.2	
222.57	4740.4	
222.78	4991.6	
222.99	3247.4	
223.2	3336.8	
223.42	4954	
223.63	5007.3	
223.84	2484.2	
224.05	2499.9	
224.27	5664.7	
224.48	5412.8	
224.69	3786.7	
224.9	3245.3	
225.12	4881	
225.33	4689.2	
225.54	2719.7	
225.75	2973.7	
225.97	4386.1	
226.18	4661.9	
226.39	3134.8	
226.6	2916.3	
226.82	4535.6	
227.03	4395.6	
227.24	3261.7	
227.45	2772.3	
227.67	5014.1	
227.88	5324.7	
228.09	3624.2	
228.3	3562.1	
228.52	5006.6	
228.73	4652.3	
228.94	3016	
229.15	2775.7	
229.36	4631.1	
229.58	4656.4	
229.79	3069.2	
230	3508.9	
230.21	5486.5	
230.43	4709.6	
230.64	3181.2	
230.85	3341.6	
231.06	5047.6	
231.28	4971.1	
231.49	2746.3	
231.7	3203.7	
231.91	4967.7	
232.12	4711.7	
232.34	2805	
232.55	3127.9	
232.76	5115.8	
232.97	4875.5	
233.18	2927.9	
233.4	3231.7	
233.61	4794.3	
233.82	4481	
234.03	3039.9	
234.25	2967.5	
234.46	6145.3	
234.67	4724.7	
234.88	3314.3	
235.09	2957.9	
235.31	4827.7	
235.52	4567	
235.73	3214.6	
235.94	2740.9	
236.15	4495.3	
236.37	5537	
236.58	2927.2	
236.79	3149.8	
237	4901.5	
237.21	4306.2	
237.43	3388	
237.64	2713.6	
237.85	7665.5	
238.06	4399	
238.27	3359.4	
238.48	2800.9	
238.7	4982.7	
238.91	4605.2	
239.12	3114.3	
239.33	3185.3	
239.54	4423.6	
239.76	4648.9	
239.97	3069.9	
240.18	3186	
240.39	5570.5	
240.6	4857.1	
240.82	3280.8	
241.03	2770.9	
241.24	4679.6	
241.45	5292.6	
241.66	2887	
241.87	3386.7	
242.09	5215.5	
242.3	5456.5	
242.51	3357.3	
242.72	3093.8	
242.93	4996.4	
243.14	4661.2	
243.36	3551.2	
243.57	3801.7	
243.78	5283.8	
243.99	4979.3	
244.2	3113.6	
244.41	2887	
244.63	4343.7	
244.84	4924	
245.05	3318.4	
245.26	3124.5	
245.47	4958.1	
245.68	4993.6	
245.9	3979.2	
246.11	3293.8	
246.32	4541	
246.53	4877.6	
246.74	4848.9	
246.95	2735.4	
247.16	4448.2	
247.38	4720.6	
247.59	2693.1	
247.8	3165.5	
248.01	4444.1	
248.22	4667.3	
248.43	2859	
248.64	3074.7	
248.86	4284.4	
249.07	4522.6	
249.28	2887.6	
249.49	3220.1	
249.7	5134.9	
249.91	5145.2	
250.12	2684.2	
250.34	2747	
250.55	4774.5	
250.76	4655.7	
250.97	3202.3	
251.18	3224.9	
251.39	5202.5	
251.6	4827.1	
251.81	3283.6	
252.03	3216.7	
252.24	4567	
252.45	5088.5	
252.66	2821.4	
252.87	3406.5	
253.08	4701.5	
253.29	5798.5	
253.5	2808.4	
253.72	3824.9	
253.93	4619.5	
254.14	5441.5	
254.35	2963.4	
254.56	3048.1	
254.77	4842.1	
254.98	4437.9	
255.19	3047.4	
255.41	3654.9	
255.62	4804.5	
255.83	5117.2	
256.04	3345	
256.25	3183.2	
256.46	5553.4	
256.67	4472.8	
256.88	3215.3	
257.09	3538.9	
257.31	4410.6	
257.52	4470.7	
257.73	3908.2	
257.94	2998.2	
258.15	4660.5	
258.36	4708.3	
258.57	3698.6	
258.78	2451.4	
258.99	5096.7	
259.2	4577.2	
259.41	2980.5	
259.63	3079.5	
259.84	5326.1	
260.05	5546.6	
260.26	3777.1	
260.47	2983.9	
260.68	5105.6	
260.89	4648.9	
261.1	3512.9	
261.31	2910.2	
261.52	5153.4	
261.73	5402.5	
261.95	3771.7	
262.16	3349.8	
262.37	5185.5	
262.58	5347.9	
262.79	3801.7	
263	3067.2	
263.21	4689.2	
263.42	4265.9	
263.63	3296.5	
263.84	2989.4	
264.05	5096	
264.26	5359.5	
264.47	3680.2	
264.69	3239.2	
264.9	5287.9	
265.11	4802.5	
265.32	2957.3	
265.53	2964.1	
265.74	4791.6	
265.95	4255.7	
266.16	3154.6	
266.37	3443.3	
266.58	4783.4	
266.79	4571.7	
267	3053.5	
267.21	2829.6	
267.42	4341	
267.63	4708.3	
267.84	3157.3	
268.06	2732.7	
268.27	4990.2	
268.48	5241.4	
268.69	3115.6	
268.9	3586.7	
269.11	5246.2	
269.32	4291.9	
269.53	3153.2	
269.74	2992.1	
269.95	4851	
270.16	4235.9	
270.37	3126.6	
270.58	3557.3	
270.79	4597	
271	5098.8	
271.21	3306.1	
271.42	3218	
271.63	4895.3	
271.84	4374.5	
272.05	2553.8	
272.26	2887	
272.47	4749.9	
272.68	4838.7	
272.89	3035.1	
273.11	3354.6	
273.32	4554.7	
273.53	5328.1	
273.74	3301.3	
273.95	3250.8	
274.16	5066.7	
274.37	4713.1	
274.58	3460.4	
274.79	2823.5	
275	4891.2	
275.21	5130.8	
275.42	4000.4	
275.63	3434.4	
275.84	4925.4	
276.05	5938.4	
276.26	3305.4	
276.47	3104.7	
276.68	4676.2	
276.89	5406.6	
277.1	3488.4	
277.31	2809.8	
277.52	4823	
277.73	5122.7	
277.94	2788	
278.15	3030.3	
278.36	4889.9	
278.57	4457.1	
278.78	3046	
278.99	3349.1	
279.2	4531.5	
279.41	4452.3	
279.62	3927.3	
279.83	2831.7	
280.04	5591.6	
280.25	4428.4	
280.46	3761.4	
280.67	3151.1	
280.88	4481.6	
281.09	5227.8	
281.3	3237.2	
281.51	4052.9	
281.72	4472.1	
281.93	5052.3	
282.14	2960	
282.35	3207.8	
282.56	5115.1	
282.77	5011.4	
282.98	3093.8	
283.19	3658.4	
283.4	6044.9	
283.61	4680.3	
283.82	2930.6	
284.03	3777.8	
284.24	4829.1	
284.45	5177.3	
284.66	3890.5	
284.87	3618.1	
285.08	5127.4	
285.29	5238	
285.5	2777.7	
285.71	3073.3	
285.92	5130.2	
286.12	5612.1	
286.33	3803.8	
286.54	3112.9	
286.75	5041.4	
286.96	4635.9	
287.17	2913.6	
287.38	3688.4	
287.59	4476.2	
287.8	4490.5	
288.01	3123.8	
288.22	3478.8	
288.43	4984.1	
288.64	4326	
288.85	3588.7	
289.06	3420.1	
289.27	5039.4	
289.48	5305.6	
289.69	3822.2	
289.9	3522.5	
290.11	5193.6	
290.32	4532.8	
290.53	3640.6	
290.74	3344.3	
290.94	4994.3	
291.15	5048.9	
291.36	2976.4	
291.57	3470.6	
291.78	4562.9	
291.99	4291.9	
292.2	2875.3	
292.41	3396.2	
292.62	5072.8	
292.83	4909.7	
293.04	4033.8	
293.25	2955.9	
293.46	4616.1	
293.67	5170.4	
293.88	2951.8	
294.09	2863.7	
294.29	4401.1	
294.5	4833.2	
294.71	3174.4	
294.92	2984.6	
295.13	4601.8	
295.34	5510.4	
295.55	2719	
295.76	2686.9	
295.97	4980	
296.18	5520.6	
296.39	2786.6	
296.6	2973	
296.81	4763.6	
297.01	5042.8	
297.22	3062.4	
297.43	3006.4	
297.64	4597	
297.85	4440	
298.06	2540.8	
298.27	2715.6	
298.48	4705.5	
298.69	4504.8	
298.9	3188	
299.11	2994.1	
299.31	4356.7	
299.52	4392.2	
299.73	3384.6	
299.94	3349.8	
300.15	4755.4	
300.36	4471.4	
300.57	3351.2	
300.78	3365.5	
300.99	4543.8	
301.2	4773.8	
301.4	3019.4	
301.61	3130.7	
301.82	4991.6	
302.03	4953.4	
302.24	3530.7	
302.45	2850.1	
302.66	4907.6	
302.87	5158.8	
303.08	2953.2	
303.29	3876.8	
303.49	4601.1	
303.7	4644.8	
303.91	2672.6	
304.12	3735.5	
304.33	4311.7	
304.54	4795	
304.75	2938.8	
304.96	2880.8	
305.16	4944.5	
305.37	5381.4	
305.58	2692.4	
305.79	2755.9	
306	4977.9	
306.21	4209.3	
306.42	3007.1	
306.63	4339.6	
306.83	4653	
307.04	5056.4	
307.25	3239.9	
307.46	3162.7	
307.67	4151.9	
307.88	4958.1	
308.09	3019.4	
308.29	3039.2	
308.5	4751.3	
308.71	5121.3	
308.92	3112.9	
309.13	2837.8	
309.34	4664.6	
309.55	4658.4	
309.75	3648.8	
309.96	3351.2	
310.17	5029.1	
310.38	4479.6	
310.59	3433.1	
310.8	2841.2	
311.01	4602.5	
311.21	4653.7	
311.42	2857.6	
311.63	2958.6	
311.84	4573.1	
312.05	4754	
312.26	3270.6	
312.46	3547.1	
312.67	4573.8	
312.88	4366.3	
313.09	2885.6	
313.3	2856.2	
313.51	5301.5	
313.71	5535	
313.92	2910.2	
314.13	2953.2	
314.34	4859.1	
314.55	4652.3	
314.76	3588.7	
314.96	3184.6	
315.17	4855.1	
315.38	4868.7	
315.59	2932	
315.8	2774.3	
316.01	5247.6	
316.21	5406.6	
316.42	2852.1	
316.63	3167.5	
316.84	4621.6	
317.05	5151.3	
317.26	3386	
317.46	2998.2	
317.67	4707.6	
317.88	4978.6	
318.09	3593.5	
318.3	2755.2	
318.5	4517.8	
318.71	4928.1	
318.92	4431.8	
319.13	3348.4	
319.34	5042.1	
319.54	5146.5	
319.75	2693.1	
319.96	2613.2	
320.17	4977.9	
320.38	5099.4	
320.58	2639.8	
320.79	3076.7	
321	5115.1	
321.21	5242.8	
321.42	3141.6	
321.62	2597.5	
321.83	4459.1	
322.04	4696.7	
322.25	3080.1	
322.46	2889	
322.66	4758.8	
322.87	4965.6	
323.08	3530.7	
323.29	2847.4	
323.5	5560.9	
323.7	4362.2	
323.91	3812	
324.12	3472.7	
324.33	4834.6	
324.53	4960.2	
324.74	3326.6	
324.95	3460.4	
325.16	4325.3	
325.37	4595.6	
325.57	2894.5	
325.78	2958.6	
325.99	4797	
326.2	4361.5	
326.4	3860.4	
326.61	2754.5	
326.82	4635.2	
327.03	4756.1	
327.24	3946.4	
327.44	3753.9	
327.65	4911.7	
327.86	4091.8	
328.07	3316.3	
328.27	2833.7	
328.48	5195	
328.69	4403.1	
328.9	3977.8	
329.1	2998.2	
329.31	4683.7	
329.52	5270.8	
329.73	2940.9	
329.93	3192.1	
330.14	4774.5	
330.35	4838	
330.56	4487.1	
330.76	3451.5	
330.97	4544.4	
331.18	4867.3	
331.39	3203	
331.59	2654.2	
331.8	5124.7	
332.01	5228.5	
332.22	2998.9	
332.42	3293.8	
332.63	4831.2	
332.84	4404.5	
333.05	3225.6	
333.25	2925.9	
333.46	4515.1	
333.67	4695.3	
333.88	3052.2	
334.08	3283.6	
334.29	6036.7	
334.5	5072.1	
334.7	2857.6	
334.91	3945.1	
335.12	4328	
335.33	5002.5	
335.53	3209.2	
335.74	4437.3	
335.95	4613.4	
336.16	4410.6	
336.36	3241.3	
336.57	3589.4	
336.78	4360.8	
336.98	5130.8	
337.19	3824.9	
337.4	3105.4	
337.61	5571.2	
337.81	4358.8	
338.02	3009.1	
338.23	3690.4	
338.43	5212.8	
338.64	4495.3	
338.85	2887	
339.05	3675.4	
339.26	5360.2	
339.47	4300.7	
339.68	2876	
339.88	4045.4	
340.09	4935.6	
340.3	5045.5	
340.5	3340.2	
340.71	2646	
340.92	4394.9	
341.13	5202.5	
341.33	2764.8	
341.54	3345.7	
341.75	4884.4	
341.95	4520.5	
342.16	3263.1	
342.37	3405.8	
342.57	4382.7	
342.78	4646.2	
342.99	3507.5	
343.19	2665.8	
343.4	5042.8	
343.61	4880.3	
343.81	3074.7	
344.02	2790	
344.23	4999.8	
344.43	5204.6	
344.64	3533.4	
344.85	3405.1	
345.06	4951.3	
345.26	5091.3	
345.47	3343.7	
345.68	3790.8	
345.88	4274.1	
346.09	4992.3	
346.3	3335.5	
346.5	2627.5	
346.71	4648.2	
346.92	4523.3	
347.12	2739.5	
347.33	3287	
347.54	5070.8	
347.74	5360.2	
347.95	3272.7	
348.16	2592.7	
348.36	4543.8	
348.57	4354.7	
348.78	3323.9	
348.98	3458.3	
349.19	4700.1	
349.39	4298.7	
349.6	2723.8	
349.81	2964.8	
350.01	4932.2	
350.22	4535.6	
350.43	3220.8	
350.63	3706.8	
350.84	4719.9	
351.05	4512.4	
351.25	2939.5	
351.46	2725.2	
351.67	5053.7	
351.87	4413.4	
352.08	3104.7	
352.29	3495.2	
352.49	5004.6	
352.7	5060.5	
352.9	2839.2	
353.11	3450.8	
353.32	5496.7	
353.52	4577.9	
353.73	2856.9	
353.94	3490.4	
354.14	4904.2	
354.35	4697.4	
354.55	2965.5	
354.76	3218.7	
354.97	4917.9	
355.17	4668.7	
355.38	2856.9	
355.59	3664.5	
355.79	4497.3	
356	4673.5	
356.2	3218	
356.41	2822.1	
356.62	4346.5	
356.82	4661.9	
357.03	3347.1	
357.24	3048.1	
357.44	4515.1	
357.65	4564.9	
357.85	3904.1	
358.06	3176.4	
358.27	4292.5	
358.47	4468.7	
358.68	2783.2	
358.88	3331.4	
359.09	4877.6	
359.3	5090.6	
359.5	3792.8	
359.71	3424.9	
359.91	5446.9	
360.12	4916.5	
360.33	3409.9	
360.53	3725.9	
360.74	4462.5	
360.94	4551.3	
361.15	3511.6	
361.36	3026.9	
361.56	5069.4	
361.77	4675.5	
361.97	3824.9	
362.18	3136.1	
362.38	5104.9	
362.59	4424.3	
362.8	2954.5	
363	2836.4	
363.21	4235.2	
363.41	4700.8	
363.62	3341.6	
363.83	3910.3	
364.03	4894	
364.24	5443.5	
364.44	4111	
364.65	4070.7	
364.85	4630.5	
365.06	4451.6	
365.27	3120.4	
365.47	3081.5	
365.68	5379.3	
365.88	4654.4	
366.09	3375.7	
366.29	3132.7	
366.5	4786.1	
366.71	5158.2	
366.91	4095.3	
367.12	3500.7	
367.32	5610.8	
367.53	5014.1	
367.73	3537.5	
367.94	4214	
368.14	5089.2	
368.35	5561.6	
368.56	3419.4	
368.76	3005.7	
368.97	5131.5	
369.17	6193.1	
369.38	3101.3	
369.58	3303.4	
369.79	4356	
369.99	5356.8	
370.2	4018.1	
370.4	3343.7	
370.61	4891.9	
370.82	5765.7	
371.02	3320.4	
371.23	2846	
371.43	4444.8	
371.64	5345.2	
371.84	3381.2	
372.05	4141	
372.25	6148	
372.46	5043.5	
372.66	3312.9	
372.87	3351.2	
373.07	5078.3	
373.28	6285.2	
373.48	3974.4	
373.69	3829	
373.9	4775.2	
374.1	4806.6	
374.31	4007.9	
374.51	3665.9	
374.72	5343.2	
374.92	4620.2	
375.13	4171	
375.33	3554.6	
375.54	5059.2	
375.74	4721.9	
375.95	3655.6	
376.15	4517.1	
376.36	5132.2	
376.56	5010.7	
376.77	3725.3	
376.97	4020.8	
377.18	5954.1	
377.38	5192.3	
377.59	4144.4	
377.79	3352.5	
378	5051.7	
378.2	5317.9	
378.41	3419.4	
378.61	3332.7	
378.82	5412.8	
379.02	4827.7	
379.23	3481.5	
379.43	4288.4	
379.64	5467.4	
379.84	5183.4	
380.05	3453.6	
380.25	3265.8	
380.46	5269.4	
380.66	4948.6	
380.87	4375.8	
381.07	4597.7	
381.28	5724.8	
381.48	5210	
381.69	3360	
381.89	3460.4	
382.1	4518.5	
382.3	5304.9	
382.51	4179.9	
382.71	4856.4	
382.91	5225.1	
383.12	5584.8	
383.32	3662.5	
383.53	3774.4	
383.73	5076.9	
383.94	5039.4	
384.14	3792.2	
384.35	3192.8	
384.55	4870.8	
384.76	5184.8	
384.96	3624.9	
385.17	3896.6	
385.37	5248.9	
385.58	4677.6	
385.78	3860.4	
385.98	3078.1	
386.19	4866.7	
386.39	5197.1	
386.6	3454.9	
386.8	3699.3	
387.01	5258.5	
387.21	5301.5	
387.42	3942.3	
387.62	4278.2	
387.83	4803.2	
388.03	5129.5	
388.23	3741	
388.44	4295.3	
388.64	4536.9	
388.85	4630.5	
389.05	3955.3	
389.26	4305.5	
389.46	6107.7	
389.67	5621.7	
389.87	3976.5	
390.07	4025.6	
390.28	5031.9	
390.48	4667.3	
390.69	3446.7	
390.89	3661.8	
391.1	4887.8	
391.3	5533.6	
391.5	4588.8	
391.71	4939	
391.91	5334.3	
392.12	6004	
392.32	4592.9	
392.53	3958	
392.73	4964.3	
392.93	5020.9	
393.14	3778.5	
393.34	4272.7	
393.55	5362.3	
393.75	5038	
393.95	3750.5	
394.16	3691.1	
394.36	4895.3	
394.57	5326.1	
394.77	3386	
394.98	3731.4	
395.18	4886.5	
395.38	4936.3	
395.59	4342.4	
395.79	3593.5	
396	5012.1	
396.2	5322.7	
396.4	4246.8	
396.61	4200.4	
396.81	5462.6	
397.02	4919.9	
397.22	4397.7	
397.42	4455	
397.63	5578.7	
397.83	4868.7	
398.04	3604.4	
398.24	4016.1	
398.44	5360.2	
398.65	4605.9	
398.85	3561.4	
399.05	3603.1	
399.26	5008	
399.46	6115.2	
399.67	3915.7	
399.87	3751.9	
400.07	5239.4	
400.28	5482.4	
400.48	3760.8	
400.69	4545.8	
400.89	5647.6	
401.09	5984.2	
401.3	3779.9	
401.5	4514.4	
401.7	6090.7	
401.91	6303	
402.11	4047.5	
402.32	4151.2	
402.52	5732.3	
402.72	5602.6	
402.93	4258.4	
403.13	3480.9	
403.33	6204	
403.54	5169.8	
403.74	4025.6	
403.94	4613.4	
404.15	5304.9	
404.35	6127.5	
404.56	3897.3	
404.76	5199.8	
404.96	5710.4	
405.17	5558.9	
405.37	4786.1	
405.57	4289.8	
405.78	5728.9	
405.98	5270.8	
406.18	4465.9	
406.39	4560.1	
406.59	5683.1	
406.79	5322.7	
407	3740.3	
407.2	3823.6	
407.4	6001.2	
407.61	5908.4	
407.81	3893.2	
408.01	5256.5	
408.22	4982	
408.42	6482.5	
408.62	4765.6	
408.83	4437.9	
409.03	5582.1	
409.23	5498.1	
409.44	4500.1	
409.64	4612	
409.84	6319.3	
410.05	6274.3	
410.25	4635.9	
410.45	4409.3	
410.66	5980.8	
410.86	7719.5	
411.06	4842.1	
411.27	4697.4	
411.47	7551.5	
411.67	6067.4	
411.88	4937.7	
412.08	5134.9	
412.28	6524.1	
412.49	6916	
412.69	4861.2	
412.89	4833.2	
413.09	6739.9	
413.3	6714.6	
413.5	4990.9	
413.7	4633.9	
413.91	6227.2	
414.11	6783.6	
414.31	4829.1	
414.52	5195	
414.72	6631.3	
414.92	6525.5	
415.12	4814.1	
415.33	5169.1	
415.53	6802	
415.73	6967.9	
415.94	5480.4	
416.14	5036	
416.34	6146	
416.55	5874.3	
416.75	5981.4	
416.95	5482.4	
417.15	6858.6	
417.36	7363.8	
417.56	6199.2	
417.76	5433.3	
417.97	7125.6	
418.17	6965.1	
418.37	5205.9	
418.57	5217.5	
418.78	6858.6	
418.98	6582.2	
419.18	5771.2	
419.38	5701.5	
419.59	6434.7	
419.79	6213.5	
419.99	5055.1	
420.2	5406	
420.4	7030.7	
420.6	7000.6	
420.8	5070.1	
421.01	4995	
421.21	6884.6	
421.41	6892.8	
421.61	5264	
421.82	5139	
422.02	6487.3	
422.22	7187.7	
422.42	5773.2	
422.63	5417.6	
422.83	6482.5	
423.03	7446.4	
423.23	5470.1	
423.44	4691.9	
423.64	6608.1	
423.84	6356.2	
424.04	5106.3	
424.25	4795	
424.45	7229.3	
424.65	7133.8	
424.85	4708.3	
425.06	5044.8	
425.26	7308.5	
425.46	6449.7	
425.66	5426.4	
425.87	5202.5	
426.07	7021.1	
426.27	6864.1	
426.47	5260.5	
426.67	4790.2	
426.88	7219.1	
427.08	6832.7	
427.28	5531.6	
427.48	4769	
427.69	6137.1	
427.89	6561.7	
428.09	5370.5	
428.29	4740.4	
428.5	6980.2	
428.7	6710.5	
428.9	4740.4	
429.1	5100.1	
429.3	6714.6	
429.51	6933.7	
429.71	4977.9	
429.91	5594.4	
430.11	6988.4	
430.31	7088.7	
430.52	5261.9	
430.72	5449	
430.92	7249.8	
431.12	6991.1	
431.32	4959.5	
431.53	5228.5	
431.73	6219.7	
431.93	7336.5	
432.13	4932.9	
432.33	4844.8	
432.54	6602.7	
432.74	6760.3	
432.94	4968.4	
433.14	5643.5	
433.34	7101.7	
433.55	6645.7	
433.75	5610.1	
433.95	6829.3	
434.15	6875.7	
434.35	6607.4	
434.56	5077.6	
434.76	4699.4	
434.96	6888	
435.16	7062.1	
435.36	5077.6	
435.56	5860.6	
435.77	6667.5	
435.97	6855.9	
436.17	6391.7	
436.37	5854.5	
436.57	6675.7	
436.78	6691.4	
436.98	5790.3	
437.18	6204	
437.38	7165.2	
437.58	6823.8	
437.78	6256.5	
437.99	5328.1	
438.19	7132.4	
438.39	8154.3	
438.59	5324	
438.79	4848.2	
438.99	7567.2	
439.2	6672.3	
439.4	4891.2	
439.6	4992.9	
439.8	6950.1	
440	7778.9	
440.2	5869.5	
440.4	5827.2	
440.61	7443	
440.81	7722.9	
441.01	5346.6	
441.21	6009.4	
441.41	7726.3	
441.61	7399.3	
441.81	6225.8	
442.02	6898.2	
442.22	8081.3	
442.42	7591.1	
442.62	5426.4	
442.82	5435.3	
443.02	7907.2	
443.22	7202	
443.43	5816.2	
443.63	5382.7	
443.83	7049.8	
444.03	7034.8	
444.23	6392.4	
444.43	6033.3	
444.63	7394.5	
444.83	8124.3	
445.04	5591.6	
445.24	6483.9	
445.44	7606.2	
445.64	7584.3	
445.84	6046.3	
446.04	6044.9	
446.24	7025.9	
446.44	7734.5	
446.65	5470.1	
446.85	5834.7	
447.05	7221.8	
447.25	7723.6	
447.45	5883.1	
447.65	5442.8	
447.85	7297.6	
448.05	6980.8	
448.25	6106.4	
448.46	5950.7	
448.66	7372.7	
448.86	7071	
449.06	5397.1	
449.26	6115.9	
449.46	7575.4	
449.66	6873.7	
449.86	5867.4	
450.06	5741.8	
450.26	7055.3	
450.47	7503.8	
450.67	5993.7	
450.87	6260.6	
451.07	7628.7	
451.27	7408.2	
451.47	5651.7	
451.67	6242.2	
451.87	7229.3	
452.07	7957	
452.27	5755.5	
452.47	5712.5	
452.67	7535.2	
452.88	7754.3	
453.08	5225.7	
453.28	6709.1	
453.48	8352.3	
453.68	7342	
453.88	5795.1	
454.08	5778	
454.28	7722.2	
454.48	7444.4	
454.68	6286.6	
454.88	6554.9	
455.08	7811.6	
455.28	7620.5	
455.48	5614.2	
455.68	6075.6	
455.89	8337.3	
456.09	7886.7	
456.29	5944.6	
456.49	6025.1	
456.69	8239.7	
456.89	7527.7	
457.09	6460	
457.29	6753.5	
457.49	7904.5	
457.69	7998.7	
457.89	6352.1	
458.09	5911.8	
458.29	7838.9	
458.49	8302.5	
458.69	6675.7	
458.89	6250.4	
459.09	8464.3	
459.29	8599.4	
459.49	6341.9	
459.69	6929.6	
459.9	8158.4	
460.1	7879.9	
460.3	6251.1	
460.5	6120	
460.7	8205.5	
460.9	7839.6	
461.1	5955.5	
461.3	6831.3	
461.5	8738	
461.7	8499.1	
461.9	6378.1	
462.1	6620.4	
462.3	8126.3	
462.5	8533.9	
462.7	6432.7	
462.9	6558.3	
463.1	9239.8	
463.3	9075.2	
463.5	6660.7	
463.7	7473.7	
463.9	8402.1	
464.1	8693.6	
464.3	6892.8	
464.5	7045	
464.7	8923	
464.9	8778.3	
465.1	8032.8	
465.3	7320.1	
465.5	9215.2	
465.7	9204.3	
465.9	7534.5	
466.1	7285.3	
466.3	9168.8	
466.5	8962.6	
466.7	8203.5	
466.9	7378.8	
467.1	9129.2	
467.3	9719.7	
467.5	8226	
467.7	7336.5	
467.9	9918.3	
468.1	10602	
468.3	7866.2	
468.5	8267.6	
468.7	9046.6	
468.9	9081.4	
469.1	7700.4	
469.3	8160.5	
469.5	10645	
469.7	8883.4	
469.9	7955	
470.1	7482.6	
470.3	9295	
470.5	9351	
470.7	8428.1	
470.9	7638.2	
471.1	9101.9	
471.3	9275.3	
471.5	7531.7	
471.69	8775.5	
471.89	8956.4	
472.09	8543.4	
472.29	7957	
472.49	8144.8	
472.69	8828.8	
472.89	9284.8	
473.09	7335.8	
473.29	7360.4	
473.49	8893	
473.69	8824	
473.89	7962.5	
474.09	7507.9	
474.29	9903.3	
474.49	9538.1	
474.69	8023.3	
474.89	7603.4	
475.09	9017.2	
475.29	8912.8	
475.49	7209.5	
475.69	7370.6	
475.88	10051	
476.08	9317.6	
476.28	7114.6	
476.48	7353.6	
476.68	9589.3	
476.88	9235	
477.08	7310.6	
477.28	7578.2	
477.48	8950.3	
477.68	9347.6	
477.88	7093.5	
478.08	7385	
478.28	9677.3	
478.48	8989.9	
478.67	7414.3	
478.87	6835.4	
479.07	9559.2	
479.27	9125.7	
479.47	7602.7	
479.67	7613	
479.87	9473.2	
480.07	9763.3	
480.27	7137.2	
480.47	8185.7	
480.67	9030.9	
480.87	9592.7	
481.06	7285.3	
481.26	7940.7	
481.46	9109.4	
481.66	9039.1	
481.86	7598.6	
482.06	8299.7	
482.26	8833.6	
482.46	9506	
482.66	7506.5	
482.86	7290.8	
483.05	9344.9	
483.25	8714.8	
483.45	9345.6	
483.65	7657.4	
483.85	8928.5	
484.05	9120.3	
484.25	7982.3	
484.45	8301.8	
484.65	9679.4	
484.84	9895.8	
485.04	7666.2	
485.24	7603.4	
485.44	10096	
485.64	8928.5	
485.84	7289.4	
486.04	8112.7	
486.24	9199.5	
486.44	9400.9	
486.63	7220.5	
486.83	7826	
487.03	9131.2	
487.23	9406.3	
487.43	7306.5	
487.63	8879.3	
487.83	9357.9	
488.02	10068	
488.22	8139.3	
488.42	8549.6	
488.62	10051	
488.82	9252.7	
489.02	7856	
489.22	7939.3	
489.41	9992.7	
489.61	9828.9	
489.81	7772.7	
490.01	7758.4	
490.21	9960	
490.41	10487	
490.61	7888.1	
490.8	7856	
491	9631.6	
491.2	9116.2	
491.4	8221.2	
491.6	7677.2	
491.8	9611.8	
491.99	9669.8	
492.19	7548.1	
492.39	7795.3	
492.59	10004	
492.79	10040	
492.99	8480.6	
493.18	7757.7	
493.38	10104	
493.58	10852	
493.78	8406.2	
493.98	8070.4	
494.18	10028	
494.37	9710.1	
494.57	8712.1	
494.77	8612.4	
494.97	10363	
495.17	10594	
495.37	8426	
495.56	8700.5	
495.76	10830	
495.96	10543	
496.16	9487.6	
496.36	8684.8	
496.55	10710	
496.75	10281	
496.95	8856.8	
497.15	8804.9	
497.35	10696	
497.54	10735	
497.74	8772.1	
497.94	9846.6	
498.14	11200	
498.34	11109	
498.53	8572.1	
498.73	9147.6	
498.93	10321	
499.13	10686	
499.33	9171.5	
499.52	9476	
499.72	10963	
499.92	11033	
500.12	8871.8	
500.32	8992.6	
500.51	11096	
500.71	10752	
500.91	9632.3	
501.11	9400.9	
501.31	11023	
501.5	11281	
501.7	9934.7	
501.9	9062.9	
502.1	10814	
502.29	11123	
502.49	9513.5	
502.69	9699.9	
502.89	11002	
503.09	11004	
503.28	8615.1	
503.48	8748.9	
503.68	10445	
503.88	10413	
504.07	9431.6	
504.27	9084.8	
504.47	10739	
504.67	10893	
504.86	9396.8	
505.06	9170.8	
505.26	10580	
505.46	11603	
505.65	8955.1	
505.85	9210.4	
506.05	10344	
506.25	10799	
506.44	8539.3	
506.64	9062.3	
506.84	10241	
507.04	10708	
507.23	8640.4	
507.43	9017.9	
507.63	11630	
507.83	10354	
508.02	9047.2	
508.22	8782.4	
508.42	11836	
508.62	10137	
508.81	8845.2	
509.01	9340.1	
509.21	10091	
509.4	10350	
509.6	9129.8	
509.8	8654	
510	10229	
510.19	11366	
510.39	8464.9	
510.59	8613.1	
510.79	10173	
510.98	11172	
511.18	8775.5	
511.38	8807.6	
511.57	10869	
511.77	10608	
511.97	9155.8	
512.17	8524.3	
512.36	10727	
512.56	10633	
512.76	8475.9	
512.95	8411.7	
513.15	10892	
513.35	9798.8	
513.55	9224.7	
513.74	8570.1	
513.94	10786	
514.14	10252	
514.33	9286.2	
514.53	9200.8	
514.73	10320	
514.92	10460	
515.12	8660.9	
515.32	8611.7	
515.51	10456	
515.71	10793	
515.91	9800.9	
516.11	8567.3	
516.3	11712	
516.5	10292	
516.7	9009.7	
516.89	9436.4	
517.09	10344	
517.29	10337	
517.48	9307.3	
517.68	8784.4	
517.88	10189	
518.07	10555	
518.27	9185.1	
518.47	8551.6	
518.66	10995	
518.86	10024	
519.06	8395.3	
519.25	8678.6	
519.45	10260	
519.65	11458	
519.84	9166	
520.04	9768.1	
520.24	11695	
520.43	10600	
520.63	8929.8	
520.83	8699.8	
521.02	10214	
521.22	10528	
521.42	9013.1	
521.61	9422.7	
521.81	10221	
522.01	10413	
522.2	8984.4	
522.4	8733.2	
522.6	10777	
522.79	9805	
522.99	8882.7	
523.18	8446.5	
523.38	10489	
523.58	10663	
523.77	9889.6	
523.97	8558.5	
524.17	11951	
524.36	11398	
524.56	9628.9	
524.76	9343.5	
524.95	10731	
525.15	10573	
525.34	9303.9	
525.54	9312.1	
525.74	11208	
525.93	10422	
526.13	10223	
526.33	9328.5	
526.52	11441	
526.72	11090	
526.91	10413	
527.11	9859.6	
527.31	11471	
527.5	11822	
527.7	9827.5	
527.89	9021.3	
528.09	10844	
528.29	11139	
528.48	10095	
528.68	9669.1	
528.87	11441	
529.07	11461	
529.27	9757.9	
529.46	9519.6	
529.66	11319	
529.85	11589	
530.05	9362.6	
530.25	9916.3	
530.44	12328	
530.64	11163	
530.83	9605.7	
531.03	9846.6	
531.23	11692	
531.42	11438	
531.62	10303	
531.81	9751.1	
532.01	11777	
532.21	12029	
532.4	9743.6	
532.6	10084	
532.79	12455	
532.99	12052	
533.18	10163	
533.38	10891	
533.58	11856	
533.77	12308	
533.97	10305	
534.16	10887	
534.36	12552	
534.55	11820	
534.75	11071	
534.95	10307	
535.14	12578	
535.34	11953	
535.53	10136	
535.73	11568	
535.92	12858	
536.12	11838	
536.31	10252	
536.51	11090	
536.71	12229	
536.9	11900	
537.1	10310	
537.29	10373	
537.49	12407	
537.68	11729	
537.88	10754	
538.07	9987.3	
538.27	11960	
538.46	12729	
538.66	10050	
538.86	10391	
539.05	12100	
539.25	12347	
539.44	10819	
539.64	10380	
539.83	11899	
540.03	12692	
540.22	10247	
540.42	10189	
540.61	12057	
540.81	12204	
541	10561	
541.2	11079	
541.39	11685	
541.59	11918	
541.78	10862	
541.98	10067	
542.18	11417	
542.37	11398	
542.57	10374	
542.76	10888	
542.96	11404	
543.15	11877	
543.35	10376	
543.54	9792	
543.74	11964	
543.93	11761	
544.13	10198	
544.32	10960	
544.52	11943	
544.71	11338	
544.91	9503.9	
545.1	10434	
545.3	11338	
545.49	11803	
545.69	9484.1	
545.88	10008	
546.08	12536	
546.27	12134	
546.47	10252	
546.66	9684.8	
546.86	11840	
547.05	12237	
547.24	9899.2	
547.44	9721.7	
547.63	11114	
547.83	11908	
548.02	10015	
548.22	10113	
548.41	10985	
548.61	11944	
548.8	9742.2	
549	9668.5	
549.19	11536	
549.39	11731	
549.58	9476	
549.78	9858.9	
549.97	11679	
550.17	11270	
550.36	10465	
550.55	11175	
550.75	11254	
550.94	11915	
551.14	9617.3	
551.33	9785.9	
551.53	10743	
551.72	11600	
551.92	9797.5	
552.11	9673.2	
552.31	11549	
552.5	11529	
552.69	10886	
552.89	9370.8	
553.08	11587	
553.28	11277	
553.47	9611.1	
553.67	10465	
553.86	11976	
554.06	10741	
554.25	9011.7	
554.44	9384.5	
554.64	12527	
554.83	12085	
555.03	9359.9	
555.22	9639.1	
555.42	11579	
555.61	11406	
555.8	9414.5	
556	9675.3	
556.19	10730	
556.39	11499	
556.58	9528.5	
556.78	9577.7	
556.97	11246	
557.16	11069	
557.36	10267	
557.55	9308	
557.75	10431	
557.94	11860	
558.13	9332.6	
558.33	9127.1	
558.52	11633	
558.72	10712	
558.91	9193.3	
559.1	9353.8	
559.3	10594	
559.49	10294	
559.69	8945.5	
559.88	9587.2	
560.07	11049	
560.27	11505	
560.46	9758.6	
560.66	9871.9	
560.85	11017	
561.04	10357	
561.24	9118.9	
561.43	9306	
561.63	10616	
561.82	10730	
562.01	10180	
562.21	9424.1	
562.4	11124	
562.59	11813	
562.79	9392	
562.98	9101.2	
563.18	11118	
563.37	12037	
563.56	9734	
563.76	9249.3	
563.95	10701	
564.14	10660	
564.34	9452.7	
564.53	9276.6	
564.73	11130	
564.92	11361	
565.11	9523.7	
565.31	9062.3	
565.5	11489	
565.69	10675	
565.89	9370.1	
566.08	9456.8	
566.27	11388	
566.47	11623	
566.66	9930.6	
566.85	9028.8	
567.05	11279	
567.24	10774	
567.44	9303.2	
567.63	10277	
567.82	11370	
568.02	11219	
568.21	9293.7	
568.4	9596.1	
568.6	11166	
568.79	11067	
568.98	9303.9	
569.18	9400.2	
569.37	11275	
569.56	12600	
569.76	9770.9	
569.95	10357	
570.14	11467	
570.34	11412	
570.53	9352.4	
570.72	9378.3	
570.91	11886	
571.11	11308	
571.3	9783.1	
571.49	10408	
571.69	11302	
571.88	10963	
572.07	10104	
572.27	10131	
572.46	10966	
572.65	11658	
572.85	9775.6	
573.04	9854.8	
573.23	11928	
573.43	11466	
573.62	9574.3	
573.81	9984.5	
574	11537	
574.2	11374	
574.39	9864.4	
574.58	9973.6	
574.78	12179	
574.97	11604	
575.16	10236	
575.36	10372	
575.55	11975	
575.74	12087	
575.93	9622.7	
576.13	10511	
576.32	11607	
576.51	11946	
576.71	10092	
576.9	11079	
577.09	12284	
577.28	11840	
577.48	10421	
577.67	9782.5	
577.86	11716	
578.05	11944	
578.25	10112	
578.44	10187	
578.63	11665	
578.83	12562	
579.02	9858.2	
579.21	10830	
579.4	11807	
579.6	11622	
579.79	10229	
579.98	11718	
580.17	12002	
580.37	12170	
580.56	9822.7	
580.75	10348	
580.94	12443	
581.14	12398	
581.33	10861	
581.52	9999.5	
581.71	12028	
581.91	12492	
582.1	9802.3	
582.29	10288	
582.48	11775	
582.68	11860	
582.87	10632	
583.06	10350	
583.25	12279	
583.45	11937	
583.64	10938	
583.83	11409	
584.02	11783	
584.21	12181	
584.41	10823	
584.6	10359	
584.79	11923	
584.98	12503	
585.18	9973.6	
585.37	10015	
585.56	11680	
585.75	12218	
585.94	10110	
586.14	10687	
586.33	12537	
586.52	11708	
586.71	10450	
586.91	10134	
587.1	11213	
587.29	12088	
587.48	10063	
587.67	10024	
587.87	11895	
588.06	11918	
588.25	10924	
588.44	10383	
588.63	11605	
588.83	11949	
589.02	10006	
589.21	9822.1	
589.4	11366	
589.59	11287	
589.78	9295.7	
589.98	9372.9	
590.17	10877	
590.36	11181	
590.55	8729.1	
590.74	9239.8	
590.94	11967	
591.13	10963	
591.32	9027.4	
591.51	8717.5	
591.7	11046	
591.89	10804	
592.09	8832.2	
592.28	9183.8	
592.47	10301	
592.66	11793	
592.85	8804.2	
593.05	9048.6	
593.24	10769	
593.43	11482	
593.62	9138.7	
593.81	9480.7	
594	10845	
594.19	11043	
594.39	9084.1	
594.58	8936	
594.77	11080	
594.96	11363	
595.15	9053.4	
595.34	9364	
595.54	11000	
595.73	10253	
595.92	8495	
596.11	9235	
596.3	11224	
596.49	10295	
596.68	9002.9	
596.88	9224.1	
597.07	11052	
597.26	10155	
597.45	8599.4	
597.64	9493	
597.83	10443	
598.02	10763	
598.22	8634.9	
598.41	9201.5	
598.6	10694	
598.79	10297	
598.98	8764.6	
599.17	9443.2	
599.36	10716	
599.55	11488	
599.74	10135	
599.94	10028	
600.13	11047	
600.32	10183	
600.51	8525	
600.7	8559.8	
600.89	11407	
601.08	11542	
601.27	8428.1	
601.47	9109.4	
601.66	10901	
601.85	11423	
602.04	9020.6	
602.23	8901.2	
602.42	10224	
602.61	10606	
602.8	8772.8	
602.99	8548.9	
603.18	10457	
603.37	10590	
603.57	9093	
603.76	9433.6	
603.95	11105	
604.14	10725	
604.33	8725	
604.52	8922.3	
604.71	10656	
604.9	10253	
605.09	9278	
605.28	9218.6	
605.47	11053	
605.66	10702	
605.86	9069.8	
606.05	8658.1	
606.24	10951	
606.43	9835	
606.62	8882	
606.81	9420	
607	10781	
607.19	10288	
607.38	8354.3	
607.57	8506.6	
607.76	10013	
607.95	9657.5	
608.14	8883.4	
608.33	9194.7	
608.52	10099	
608.72	10697	
608.91	8241	
609.1	8220.5	
609.29	10144	
609.48	9741.5	
609.67	8918.9	
609.86	8209.6	
610.05	9914.9	
610.24	10146	
610.43	8180.3	
610.62	8023.3	
610.81	10918	
611	10761	
611.19	8326.4	
611.38	8798.1	
611.57	10454	
611.76	11205	
611.95	8115.4	
612.14	8008.2	
612.33	10222	
612.52	9910.1	
612.71	8641.7	
612.9	7932.5	
613.09	9526.5	
613.28	11249	
613.47	8355.7	
613.66	8931.9	
613.85	10230	
614.04	9809.1	
614.24	8274.5	
614.43	7763.8	
614.62	10259	
614.81	10189	
615	8625.4	
615.19	8620.6	
615.38	9654.8	
615.57	9891	
615.76	8469	
615.95	9221.3	
616.14	10370	
616.33	10096	
616.52	8763.9	
616.71	8999.5	
616.9	10237	
617.09	10170	
617.28	8353.7	
617.47	9229.5	
617.66	9712.8	
617.85	9625.5	
618.04	9015.8	
618.22	8667	
618.41	9895.1	
618.6	10639	
618.79	8651.3	
618.98	8486.8	
619.17	10995	
619.36	9560.6	
619.55	8554.4	
619.74	8662.2	
619.93	10367	
620.12	9940.8	
620.31	9125.1	
620.5	9269.1	
620.69	10816	
620.88	11280	
621.07	9749	
621.26	9083.4	
621.45	10720	
621.64	10722	
621.83	9216.5	
622.02	8622.6	
622.21	10778	
622.4	10653	
622.59	9540.1	
622.78	9412.5	
622.97	10235	
623.16	10955	
623.35	9382.4	
623.54	8601.5	
623.72	10457	
623.91	10553	
624.1	9360.6	
624.29	8471.8	
624.48	11425	
624.67	10759	
624.86	9324.4	
625.05	8688.2	
625.24	11539	
625.43	10312	
625.62	10587	
625.81	8828.8	
626	10958	
626.19	10480	
626.38	9330.5	
626.56	8939.4	
626.75	10417	
626.94	11052	
627.13	9391.3	
627.32	8540.7	
627.51	10910	
627.7	11745	
627.89	8564.6	
628.08	9426.1	
628.27	10314	
628.46	10455	
628.65	8684.8	
628.83	8420.6	
629.02	10803	
629.21	10213	
629.4	9103.9	
629.59	9274.6	
629.78	10251	
629.97	10894	
630.16	9229.5	
630.35	8811	
630.54	11267	
630.72	10968	
630.91	8776.9	
631.1	9188.6	
631.29	10599	
631.48	10712	
631.67	9324.4	
631.86	8845.9	
632.05	10445	
632.24	10445	
632.42	8618.5	
632.61	9098.4	
632.8	10401	
632.99	10155	
633.18	9106	
633.37	9373.6	
633.56	10608	
633.75	10578	
633.93	9044.5	
634.12	8877.3	
634.31	11278	
634.5	10996	
634.69	8878.6	
634.88	9177.6	
635.07	10372	
635.25	10813	
635.44	9422.7	
635.63	9508	
635.82	10294	
636.01	9859.6	
636.2	9420.7	
636.39	9114.1	
636.57	11182	
636.76	10768	
636.95	8639	
637.14	9642.5	
637.33	10713	
637.52	11220	
637.7	8488.8	
637.89	9284.1	
638.08	10409	
638.27	11242	
638.46	9372.9	
638.65	9583.8	
638.83	11324	
639.02	10239	
639.21	9303.9	
639.4	9551	
639.59	10581	
639.78	10231	
639.96	8680	
640.15	8628.1	
640.34	10468	
640.53	10461	
640.72	8478.6	
640.91	8663.6	
641.09	9897.2	
641.28	10877	
641.47	8573.5	
641.66	9183.1	
641.85	10428	
642.03	10664	
642.22	9119.6	
642.41	8695.7	
642.6	10008	
642.79	9573.6	
642.97	8601.5	
643.16	9064.3	
643.35	10063	
643.54	9818.6	
643.73	8407.6	
643.91	8953	
644.1	9720.3	
644.29	10183	
644.48	8376.9	
644.67	8484.1	
644.85	9804.3	
645.04	10088	
645.23	8049.2	
645.42	8342.1	
645.6	9703.3	
645.79	10445	
645.98	8182.3	
646.17	7542.7	
646.36	9344.2	
646.54	9673.9	
646.73	8710.7	
646.92	7961.8	
647.11	9464.3	
647.29	10107	
647.48	7920.9	
647.67	7608.2	
647.86	10305	
648.05	10316	
648.23	7955.7	
648.42	8884.8	
648.61	9794.8	
648.8	9680.7	
648.98	7767.9	
649.17	8040.3	
649.36	9327.8	
649.55	8969.4	
649.73	7770	
649.92	8372.1	
650.11	9189.9	
650.3	9555.1	
650.48	7841	
650.67	7801.4	
650.86	9626.8	
651.05	8847.9	
651.23	7791.2	
651.42	7831.4	
651.61	9246.6	
651.79	9236.3	
651.98	7952.3	
652.17	7652.6	
652.36	9499.2	
652.54	8876.6	
652.73	7645.1	
652.92	7574.8	
653.11	9543.5	
653.29	9547.6	
653.48	7220.5	
653.67	7816.4	
653.85	9187.9	
654.04	9996.1	
654.23	7918.8	
654.42	7624.6	
654.6	8897.1	
654.79	9307.3	
654.98	7058.7	
655.16	7572.7	
655.35	8480	
655.54	8270.4	
655.73	6949.4	
655.91	6949.4	
656.1	9041.1	
656.29	8246.5	
656.47	6656.6	
656.66	7811	
656.85	8542.8	
657.03	8534.6	
657.22	7116	
657.41	7190.4	
657.59	8655.4	
657.78	8634.2	
657.97	6974	
658.16	7513.3	
658.34	9203.6	
658.53	9535.3	
658.72	8122.2	
658.9	8487.5	
659.09	8923.7	
659.28	8887.5	
659.46	7368.6	
659.65	7213.6	
659.84	8600.8	
660.02	9112.1	
660.21	7358.4	
660.4	7133.8	
660.58	9406.3	
660.77	8850.6	
660.96	7690.1	
661.14	6924.9	
661.33	9723.1	
661.52	9631.6	
661.7	6883.9	
661.89	9437	
662.08	8458.1	
662.26	8288.1	
662.45	7041.6	
662.64	7162.4	
662.82	9191.3	
663.01	8476.5	
663.2	7159.7	
663.38	7681.2	
663.57	8977.6	
663.75	8862.2	
663.94	7333.8	
664.13	8256	
664.31	8615.8	
664.5	9062.3	
664.69	7697.6	
664.87	7976.2	
665.06	8417.8	
665.25	8974.2	
665.43	8133.2	
665.62	8131.8	
665.8	9061.6	
665.99	8605.6	
666.18	7388.4	
666.36	7384.3	
666.55	9024.7	
666.74	8938	
666.92	7011.6	
667.11	8178.2	
667.29	8587.1	
667.48	8957.1	
667.67	7880.6	
667.85	7160.4	
668.04	8555.7	
668.22	8461.5	
668.41	7339.2	
668.6	7423.2	
668.78	8338	
668.97	8547.5	
669.15	7469.6	
669.34	6795.8	
669.53	8404.2	
669.71	8641.1	
669.9	6896.2	
670.08	7363.1	
670.27	8304.5	
670.46	8821.3	
670.64	7497.6	
670.83	7730.4	
671.01	8148.9	
671.2	8617.2	
671.38	7045.7	
671.57	6832.7	
671.76	9153.1	
671.94	9544.2	
672.13	6842.9	
672.31	7546.1	
672.5	8886.8	
672.69	8330.5	
672.87	7025.2	
673.06	7222.5	
673.24	8805.6	
673.43	8445.1	
673.61	7478.5	
673.8	7161.7	
673.98	8755.7	
674.17	8911.4	
674.36	7548.1	
674.54	7431.4	
674.73	8599.4	
674.91	8856.8	
675.1	7268.2	
675.28	6858	
675.47	8487.5	
675.65	8884.8	
675.84	7139.9	
676.03	7342.7	
676.21	8388.5	
676.4	8044.4	
676.58	7661.5	
676.77	7604.8	
676.95	9460.3	
677.14	8367.3	
677.32	6901.7	
677.51	6769.2	
677.69	8994	
677.88	8142	
678.06	6879.8	
678.25	6920.1	
678.44	8572.1	
678.62	8404.2	
678.81	6773.3	
678.99	7509.9	
679.18	9202.9	
679.36	8841.8	
679.55	7167.9	
679.73	7608.9	
679.92	8829.5	
680.1	8426.7	
680.29	8083.3	
680.47	7130.3	
680.66	8432.2	
680.84	9026.8	
681.03	6787	
681.21	7495.6	
681.4	8449.2	
681.58	8327	
681.77	6988.4	
681.95	6916	
682.14	9002.2	
682.32	9179	
682.51	7576.1	
682.69	6737.8	
682.88	8261.5	
683.06	8654.7	
683.25	7406.8	
683.43	7701.7	
683.62	8591.9	
683.8	8794.7	
683.99	7759.1	
684.17	7253.9	
684.36	9395.4	
684.54	8361.9	
684.73	6605.4	
684.91	6688	
685.1	8491.6	
685.28	8025.3	
685.46	7015.7	
685.65	7000	
685.83	8507.9	
686.02	8008.9	
686.2	6468.2	
686.39	6608.1	
686.57	7654.6	
686.76	8839	
686.94	6511.9	
687.13	6623.1	
687.31	8303.8	
687.5	8094.9	
687.68	6208.8	
687.86	7061.4	
688.05	9290.3	
688.23	7681.9	
688.42	7157.7	
688.6	6659.3	
688.79	8060.8	
688.97	8078.6	
689.16	6944.7	
689.34	6154.1	
689.52	8481.3	
689.71	8742.1	
689.89	7223.2	
690.08	6696.9	
690.26	8321.6	
690.45	8131.8	
690.63	7330.4	
690.81	6868.9	
691	8168	
691.18	8089.5	
691.37	6931.7	
691.55	8400.1	
691.74	7952.3	
691.92	9456.8	
692.1	6938.5	
692.29	6594.5	
692.47	8112.7	
692.66	7604.1	
692.84	6594.5	
693.02	6991.1	
693.21	7766.6	
693.39	8121.6	
693.58	7162.4	
693.76	6624.5	
693.94	8876.6	
694.13	8860.9	
694.31	6735.8	
694.5	7585	
694.68	8047.8	
694.86	8387.8	
695.05	7042.3	
695.23	7103	
695.42	8608.3	
695.6	10223	
695.78	7548.1	
695.97	6916.7	
696.15	8722.3	
696.34	8323.6	
696.52	6729.6	
696.7	7316.7	
696.89	8535.3	
697.07	8043.7	
697.25	7231.4	
697.44	8199.4	
697.62	8415.1	
697.81	8528.4	
697.99	6895.5	
698.17	7289.4	
698.36	7909.9	
698.54	8359.8	
698.72	7131	
698.91	6343.2	
699.09	8030.1	
699.28	7849.9	
699.46	6793.1	
699.64	6698.9	
699.83	7877.2	
700.01	8587.8	
700.19	7266.9	
700.38	6128.9	
700.56	8563.9	
700.74	7943.4	
700.93	6462	
701.11	6978.1	
701.29	8307.9	
701.48	9018.6	
701.66	6539.8	
701.84	6675	
702.03	8021.9	
702.21	8563.2	
702.39	6356.2	
702.58	6621.1	
702.76	8367.3	
702.94	8260.1	
703.13	6292	
703.31	8089.5	
703.49	7786.4	
703.68	8929.1	
703.86	6332.3	
704.04	7131.7	
704.23	8185	
704.41	8335.2	
704.59	6520	
704.78	7308.5	
704.96	9223.4	
705.14	8313.4	
705.33	6331	
705.51	6901	
705.69	7913.4	
705.87	8620.6	
706.06	7107.1	
706.24	6212.2	
706.42	8196.7	
706.61	8401.5	
706.79	7096.2	
706.97	6262	
707.16	7783.6	
707.34	8137.9	
707.52	6948.1	
707.7	6358.3	
707.89	7696.3	
708.07	7496.2	
708.25	6970.6	
708.44	7345.4	
708.62	7683.3	
708.8	8510	
708.98	7236.2	
709.17	6420.4	
709.35	7875.8	
709.53	7941.3	
709.72	6135	
709.9	6201.9	
710.08	8131.1	
710.26	8171.4	
710.45	7314.7	
710.63	6284.5	
710.81	7886.7	
710.99	7780.9	
711.18	6683.9	
711.36	6286.6	
711.54	7652.6	
711.72	8165.3	
711.91	6402.6	
712.09	5942.5	
712.27	7729	
712.45	8358.4	
712.64	6436.1	
712.82	5754.8	
713	7217	
713.18	7320.1	
713.37	5726.1	
713.55	6595.8	
713.73	7924.3	
713.91	6888.7	
714.1	5937.1	
714.28	5576.6	
714.46	7576.1	
714.64	6933.7	
714.83	5016.2	
715.01	5455.1	
715.19	6776.7	
715.37	6271.6	
715.55	5210	
715.74	5307.7	
715.92	7225.9	
716.1	5819.6	
716.28	6062.7	
716.47	5429.2	
716.65	6322.1	
716.83	6390.3	
717.01	5278.3	
717.19	5274.2	
717.38	7805.5	
717.56	6130.9	
717.74	5470.8	
717.92	4839.4	
718.1	6989.7	
718.29	6361.7	
718.47	4518.5	
718.65	5020.3	
718.83	6975.4	
719.01	6858.6	
719.2	4535.6	
719.38	5318.6	
719.56	6667.5	
719.74	7891.5	
719.92	5060.5	
720.11	5818.3	
720.29	6857.3	
720.47	6107.7	
720.65	4660.5	
720.83	5264.6	
721.02	6285.9	
721.2	6142.5	
721.38	5289.2	
721.56	4720.6	
721.74	5670.1	
721.92	5841.5	
722.11	5460.6	
722.29	5380	
722.47	6664.8	
722.65	6022.4	
722.83	4672.1	
723.01	5258.5	
723.2	6133.7	
723.38	6391	
723.56	4233.8	
723.74	5073.5	
723.92	5805.3	
724.1	6550.8	
724.29	4536.3	
724.47	5395	
724.65	5906.3	
724.83	5648.3	
725.01	4554.7	
725.19	5081.7	
725.37	5716.6	
725.56	5713.2	
725.74	4359.4	
725.92	4521.2	
726.1	5685.2	
726.28	5926.1	
726.46	4812.7	
726.64	4543.8	
726.83	5903.6	
727.01	6029.9	
727.19	4270	
727.37	4837.3	
727.55	6032.6	
727.73	6365.8	
727.91	4258.4	
728.09	4152.6	
728.28	6331.6	
728.46	6509.1	
728.64	4912.4	
728.82	4874.2	
729	7014.3	
729.18	6623.1	
729.36	4222.9	
729.54	5900.2	
729.72	7194.5	
729.91	6042.9	
730.09	5681.1	
730.27	4748.6	
730.45	5957.5	
730.63	6365.1	
730.81	5188.9	
730.99	4495.3	
731.17	6844.3	
731.35	5756.2	
731.53	4899.4	
731.71	4615.4	
731.9	6554.9	
732.08	6679.8	
732.26	4837.3	
732.44	4575.8	
732.62	6691.4	
732.8	6301.6	
732.98	5018.9	
733.16	4322.6	
733.34	6225.1	
733.52	5339.7	
733.7	4644.1	
733.88	4821.6	
734.07	6126.8	
734.25	5904.3	
734.43	4292.5	
734.61	5371.1	
734.79	7004.1	
734.97	5888.6	
735.15	4365.6	
735.33	4543.8	
735.51	6088.6	
735.69	5840.8	
735.87	5328.8	
736.05	4701.5	
736.23	6021	
736.41	5679.7	
736.59	4591.5	
736.77	4642.7	
736.95	6272.9	
737.13	5788.2	
737.32	4304.8	
737.5	4407.9	
737.68	6638.8	
737.86	5727.5	
738.04	4154.6	
738.22	5504.3	
738.4	5568.4	
738.58	5865.4	
738.76	4592.9	
738.94	3809.2	
739.12	5731.6	
739.3	5535	
739.48	5059.8	
739.66	4829.8	
739.84	5816.2	
740.02	5801.9	
740.2	3838.6	
740.38	4056.3	
740.56	6038.1	
740.74	5218.2	
740.92	4640	
741.1	4500.8	
741.28	5625.8	
741.46	5496.7	
741.64	4231.8	
741.82	4553.3	
742	5649.7	
742.18	5602.6	
742.36	4375.8	
742.54	4130.8	
742.72	6090.7	
742.9	5122	
743.08	4584	
743.26	3768.9	
743.44	6102.9	
743.62	6064	
743.8	4731.5	
743.98	4037.2	
744.16	5902.2	
744.34	5557.5	
744.52	4677.6	
744.7	4570.4	
744.88	5982.1	
745.06	5559.6	
745.24	4661.2	
745.42	4764.9	
745.6	6004.6	
745.78	5884.5	
745.96	3879.5	
746.14	4045.4	
746.32	6558.3	
746.5	5986.2	
746.68	4412.7	
746.86	4038.6	
747.03	6176	
747.21	5115.1	
747.39	4403.1	
747.57	4049.5	
747.75	5646.9	
747.93	5870.8	
748.11	4038.6	
748.29	3955.3	
748.47	6823.1	
748.65	5406	
748.83	4501.4	
749.01	4268	
749.19	5773.2	
749.37	5096	
749.55	4152.6	
749.73	4320.5	
749.91	5573.9	
750.09	5352.7	
750.26	4278.2	
750.44	3851.5	
750.62	5530.2	
750.8	5494.7	
750.98	3789.4	
751.16	4053.6	
751.34	5616.2	
751.52	5003.9	
751.7	4553.3	
751.88	3722.5	
752.06	5903.6	
752.24	5720	
752.42	3690.4	
752.59	3935.5	
752.77	5504.3	
752.95	6344.6	
753.13	4485.1	
753.31	4042	
753.49	5266.7	
753.67	5494	
753.85	4239.3	
754.03	3976.5	
754.21	5761.6	
754.38	6017.6	
754.56	3981.3	
754.74	3295.2	
754.92	5181.4	
755.1	5580.7	
755.28	3351.8	
755.46	3321.8	
755.64	6253.1	
755.82	6280.4	
755.99	3466.5	
756.17	3588.7	
756.35	4453.6	
756.53	5604.6	
756.71	2729.3	
756.89	3487	
757.07	5228.5	
757.25	4607.2	
757.42	3828.3	
757.6	4496	
757.78	5332.9	
757.96	4539	
758.14	3607.8	
758.32	3241.3	
758.5	4274.1	
758.67	4878.9	
758.85	3535.5	
759.03	3591.5	
759.21	5016.8	
759.39	4591.5	
759.57	3181.2	
759.75	3993.5	
759.92	5519.3	
760.1	5057.8	
760.28	4286.4	
760.46	4481	
760.64	4808.6	
760.82	4691.9	
760.99	4185.4	
761.17	3521.1	
761.35	5436	
761.53	4627.7	
761.71	3663.8	
761.89	4173.8	
762.06	5322	
762.24	4943.1	
762.42	3751.9	
762.6	3627	
762.78	4915.8	
762.96	5496.7	
763.13	4019.5	
763.31	3761.4	
763.49	5453.1	
763.67	4967.7	
763.85	4346.5	
764.02	4775.9	
764.2	5783.5	
764.38	5090.6	
764.56	3701.4	
764.74	4379.9	
764.91	5797.8	
765.09	4914.4	
765.27	3520.5	
765.45	3222.1	
765.63	5839.4	
765.8	5703.6	
765.98	3136.1	
766.16	3340.2	
766.34	4682.3	
766.52	4460.5	
766.69	4077.5	
766.87	3241.3	
767.05	5010.7	
767.23	5506.3	
767.41	3482.2	
767.58	3661.1	
767.76	5382.7	
767.94	5423	
768.12	3574.4	
768.29	4058.4	
768.47	4988.9	
768.65	5535	
768.83	3250.8	
769	4083	
769.18	4743.1	
769.36	5250.3	
769.54	4099.4	
769.72	3262.4	
769.89	5510.4	
770.07	5511.8	
770.25	3595.6	
770.43	4467.3	
770.6	6034.7	
770.78	6228.6	
770.96	3732.8	
771.14	3715	
771.31	5376.6	
771.49	4898.1	
771.67	3081.5	
771.85	3230.3	
772.02	4341	
772.2	4852.3	
772.38	3737.5	
772.55	3364.8	
772.73	5143.8	
772.91	4880.3	
773.09	3685.7	
773.26	3796.3	
773.44	5050.3	
773.62	4863.9	
773.8	3334.1	
773.97	3140.2	
774.15	5044.8	
774.33	4912.4	
774.5	3251.5	
774.68	3556	
774.86	5254.4	
775.04	4858.5	
775.21	3313.6	
775.39	3243.3	
775.57	5088.5	
775.74	5298.8	
775.92	3169.6	
776.1	3059	
776.27	4991.6	
776.45	5839.4	
776.63	3326.6	
776.81	3002.3	
776.98	4784.1	
777.16	5563.6	
777.34	3371	
777.51	3654.3	
777.69	4738.3	
777.87	4569.7	
778.04	3497.9	
778.22	3843.4	
778.4	4607.2	
778.57	5124.7	
778.75	2867.2	
778.93	3086.3	
779.1	4478.2	
779.28	4373.8	
779.46	2919	
779.64	3252.9	
779.81	5216.2	
779.99	5792.3	
780.17	3809.9	
780.34	3908.2	
780.52	4841.4	
780.69	4914.4	
780.87	3403.7	
781.05	3157.3	
781.22	4879.6	
781.4	4925.4	
781.58	3307.5	
781.75	2710.8	
781.93	4931.5	
782.11	4377.2	
782.28	3964.9	
782.46	3330	
782.64	4328	
782.81	4960.2	
782.99	3363.4	
783.17	3324.5	
783.34	4886.5	
783.52	4372.4	
783.69	3415.3	
783.87	4044.7	
784.05	4515.1	
784.22	4416.1	
784.4	4052.2	
784.58	3513.6	
784.75	5161.6	
784.93	4558.8	
785.1	3294.5	
785.28	3723.2	
785.46	4939.7	
785.63	4328	
785.81	3303.4	
785.99	3161.4	
786.16	4607.9	
786.34	4803.2	
786.51	3138.9	
786.69	3500	
786.87	4212	
787.04	4579.9	
787.22	3097.9	
787.39	3750.5	
787.57	4444.8	
787.75	5219.6	
787.92	3962.8	
788.1	3835.8	
788.27	4431.1	
788.45	4179.2	
788.63	3656.3	
788.8	2734.7	
788.98	4768.4	
789.15	4111.6	
789.33	2864.4	
789.5	3243.3	
789.68	5119.9	
789.86	5186.8	
790.03	3523.9	
790.21	3128.6	
790.38	5102.9	
790.56	4562.9	
790.73	3116.3	
790.91	3114.3	
791.09	4425	
791.26	4974.5	
791.44	3306.1	
791.61	2859.6	
791.79	4457.1	
791.96	4456.4	
792.14	2966.1	
792.32	2691.7	
792.49	4392.2	
792.67	4503.5	
792.84	3012.6	
793.02	2897.2	
793.19	4989.5	
793.37	5204.6	
793.54	2674	
793.72	2899.9	
793.89	5272.2	
794.07	4414.7	
794.25	3254.9	
794.42	2702.6	
794.6	5137	
794.77	4908.3	
794.95	3546.4	
795.12	3137.5	
795.3	4474.1	
795.47	4882.4	
795.65	3442	
795.82	3242.6	
796	4301.4	
796.17	5578	
796.35	3184.6	
796.52	3756.7	
796.7	4859.8	
796.87	4863.2	
797.05	3196.2	
797.22	3838.6	
797.4	4863.2	
797.57	5511.1	
797.75	3349.8	
797.92	3137.5	
798.1	5089.9	
798.27	4292.5	
798.45	2749.1	
798.62	2891.7	
798.8	4647.5	
798.97	5006.6	
799.15	3480.9	
799.32	3321.1	
799.5	4143	
799.67	4666.6	
799.85	3549.1	
800.02	2686.9	
800.2	4440	
800.37	4605.2	
800.55	3656.3	
800.72	3168.9	
800.9	4984.8	
801.07	5209.3	
801.25	4113	
801.42	3420.8	
801.6	4988.9	
801.77	4670.7	
801.95	3202.3	
802.12	3088.3	
802.29	4748.6	
802.47	4752.7	
802.64	3388.7	
802.82	2671.9	
802.99	4410.6	
803.17	5035.3	
803.34	3259.7	
803.52	3006.4	
803.69	5612.1	
803.87	4184	
804.04	3249.4	
804.21	3337.5	
804.39	5225.7	
804.56	4493.2	
804.74	2872.6	
804.91	3407.8	
805.09	4385.4	
805.26	4464.6	
805.44	2917	
805.61	3169.6	
805.78	4979.3	
805.96	4903.5	
806.13	3369.6	
806.31	3624.2	
806.48	4060.4	
806.66	4454.3	
806.83	3440.6	
807	3310.2	
807.18	4352.6	
807.35	4672.8	
807.53	3264.5	
807.7	2737.5	
807.87	5256.5	
808.05	4461.2	
808.22	3513.6	
808.4	2703.3	
808.57	4373.1	
808.74	4147.1	
808.92	3067.2	
809.09	3831.1	
809.27	4403.1	
809.44	4772.4	
809.61	2674.6	
809.79	3025.5	
809.96	5335.6	
810.14	4950.6	
810.31	2697.9	
810.48	3209.8	
810.66	4441.4	
810.83	4928.1	
811.01	3117.7	
811.18	3394.2	
811.35	4968.4	
811.53	3943.7	
811.7	3669.3	
811.87	3418.7	
812.05	4487.1	
812.22	4360.8	
812.39	2988.7	
812.57	2877.4	
812.74	4469.4	
812.92	5602.6	
813.09	3254.2	
813.26	3421.5	
813.44	5372.5	
813.61	4274.8	
813.78	2723.8	
813.96	3509.5	
814.13	4458.4	
814.3	4230.4	
814.48	3879.5	
814.65	3160.7	
814.82	5199.8	
815	4208.6	
815.17	3282.2	
815.34	3891.1	
815.52	4342.4	
815.69	4332.8	
815.87	3161.4	
816.04	3218	
816.21	4362.2	
816.38	4036.5	
816.56	3246	
816.73	2907.4	
816.9	5446.2	
817.08	4940.4	
817.25	2990	
817.42	3550.5	
817.6	4100.7	
817.77	4442	
817.94	3329.3	
818.12	2920.4	
818.29	4212.7	
818.46	6117.3	
818.64	3099.9	
818.81	2918.4	
818.98	4223.6	
819.16	5728.2	
819.33	3512.3	
819.5	3245.3	
819.67	4757.4	
819.85	5139	
820.02	3224.9	
820.19	3356.6	
820.37	4607.2	
820.54	4303.5	
820.71	3310.2	
820.88	4027	
821.06	4568.3	
821.23	4209.3	
821.4	3291.1	
821.58	3340.2	
821.75	4947.9	
821.92	4523.3	
822.09	2753.8	
822.27	2847.4	
822.44	4462.5	
822.61	4321.2	
822.79	2764.8	
822.96	4941.1	
823.13	4705.5	
823.3	4178.5	
823.48	3171.6	
823.65	2837.1	
823.82	4975.9	
823.99	4116.4	
824.17	3861.1	
824.34	2856.2	
824.51	5587.5	
824.68	4451.6	
824.86	3030.3	
825.03	3252.9	
825.2	4439.3	
825.37	5185.5	
825.55	2987.3	
825.72	3242.6	
825.89	5513.1	
826.06	5298.1	
826.24	3175	
826.41	3225.6	
826.58	5279	
826.75	4650.3	
826.92	2683.5	
827.1	2846.7	
827.27	6836.1	
827.44	5461.2	
827.61	3048.7	
827.79	3599.6	
827.96	4268.6	
828.13	4414.1	
828.3	3223.5	
828.47	2699.9	
828.65	4701.5	
828.82	4602.5	
828.99	3938.9	
829.16	3493.2	
829.34	4977.9	
829.51	4761.5	
829.68	3237.8	
829.85	3379.1	
830.02	5197.7	
830.2	4952.7	
830.37	2623.4	
830.54	3818.1	
830.71	5486.5	
830.88	4437.9	
831.05	2611.8	
831.23	2975.7	
831.4	5398.4	
831.57	5820.3	
831.74	3031.7	
831.91	2729.3	
832.09	4719.2	
832.26	4986.8	
832.43	3119.1	
832.6	3503.4	
832.77	4667.3	
832.94	5238.7	
833.12	2535.4	
833.29	3097.2	
833.46	4386.7	
833.63	5929.6	
833.8	3357.3	
833.97	3069.9	
834.15	4971.1	
834.32	4774.5	
834.49	3225.6	
834.66	3343	
834.83	5052.3	
835	4244.8	
835.17	3002.3	
835.35	2972.3	
835.52	4855.1	
835.69	4764.3	
835.86	3167.5	
836.03	2659.6	
836.2	4939	
836.37	4603.8	
836.55	3056.3	
836.72	2892.4	
836.89	4620.2	
837.06	4999.8	
837.23	3201	
837.4	3393.5	
837.57	5552.7	
837.75	5977.3	
837.92	2843.9	
838.09	3043.3	
838.26	4579.3	
838.43	5069.4	
838.6	3267.9	
838.77	2977.7	
838.94	5636.7	
839.11	5501.5	
839.29	3148.4	
839.46	2494.4	
839.63	4988.9	
839.8	4674.1	
839.97	3102.7	
840.14	3017.3	
840.31	4794.3	
840.48	4932.2	
840.65	2609.1	
840.82	2973.7	
841	4881	
841.17	4846.9	
841.34	2817.3	
841.51	2908.1	
841.68	4866	
841.85	4700.1	
842.02	2934.7	
842.19	2471.2	
842.36	4748.6	
842.53	4720.6	
842.7	2824.1	
842.87	3300.6	
843.05	6008.7	
843.22	4643.4	
843.39	2653.5	
843.56	2912.9	
843.73	4548.5	
843.9	4983.4	
844.07	4357.4	
844.24	3663.1	
844.41	6666.8	
844.58	4332.8	
844.75	2755.9	
844.92	2967.5	
845.09	4860.5	
845.26	4888.5	
845.43	2773.6	
845.6	2981.8	
845.77	4904.9	
845.94	4701.5	
846.12	3148.4	
846.29	3276.1	
846.46	5120.6	
846.63	4833.2	
846.8	2809.8	
846.97	3254.9	
847.14	5201.2	
847.31	4857.1	
847.48	3095.2	
847.65	3420.1	
847.82	5040.1	
847.99	5074.2	
848.16	3626.3	
848.33	3374.4	
848.5	4532.2	
848.67	5244.2	
848.84	2768.2	
849.01	2933.4	
849.18	4526	
849.35	4239.3	
849.52	3422.8	
849.69	2803.7	
849.86	5071.5	
850.03	5184.1	
850.2	2782.5	
850.37	3362.1	
850.54	5132.9	
850.71	4718.5	
850.88	3368.9	
851.05	2760	
851.22	4790.2	
851.39	5348.6	
851.56	2627.5	
851.73	3142.3	
851.9	4367.6	
852.07	5096	
852.24	3134.1	
852.41	2757.9	
852.58	4810	
852.75	4437.9	
852.92	3132	
853.09	2685.6	
853.26	4525.3	
853.43	5136.3	
853.6	2803	
853.77	2411.8	
853.94	5330.2	
854.11	4354.7	
854.28	4044.1	
854.44	3001	
854.61	5554.8	
854.78	5111.7	
854.95	2796.8	
855.12	3359.4	
855.29	4110.3	
855.46	5328.1	
855.63	2792.7	
855.8	3755.3	
855.97	4554	
856.14	5138.4	
856.31	3809.9	
856.48	2985.9	
856.65	4573.1	
856.82	4291.2	
856.99	2725.8	
857.16	3038.5	
857.33	5746.6	
857.49	4631.1	
857.66	2988	
857.83	3197.6	
858	4615.4	
858.17	4775.2	
858.34	2701.3	
858.51	2809.8	
858.68	5367.7	
858.85	5374.6	
859.02	3174.4	
859.19	3343.7	
859.36	4407.9	
859.52	4408.6	
859.69	2796.2	
859.86	3289.7	
860.03	4453.6	
860.2	5319.9	
860.37	2562.7	
860.54	2858.3	
860.71	5060.5	
860.88	5357.5	
861.05	3038.5	
861.21	3496.6	
861.38	5297.4	
861.55	4270.7	
861.72	2568.8	
861.89	3046.7	
862.06	5087.2	
862.23	5406.6	
862.4	2686.3	
862.56	2856.2	
862.73	4987.5	
862.9	4745.8	
863.07	3224.9	
863.24	2601.6	
863.41	4309.6	
863.58	4360.8	
863.75	2839.2	
863.91	3221.5	
864.08	5256.5	
864.25	5045.5	
864.42	3438.5	
864.59	3833.1	
864.76	5486.5	
864.93	4429.8	
865.09	2778.4	
865.26	2940.2	
865.43	5216.2	
865.6	5488.6	
865.77	2455.5	
865.94	2769.5	
866.1	5132.2	
866.27	4913.8	
866.44	4059.8	
866.61	2717	
866.78	4703.5	
866.95	4959.5	
867.11	2783.2	
867.28	2557.2	
867.45	5184.1	
867.62	4382.7	
867.79	3164.1	
867.96	2758.6	
868.12	4320.5	
868.29	5072.1	
868.46	2754.5	
868.63	3620.8	
868.8	5139.7	
868.97	5006.6	
869.13	2912.9	
869.3	2914.9	
869.47	4939	
869.64	5081	
869.81	2800.9	
869.97	2795.5	
870.14	4861.9	
870.31	5319.3	
870.48	2691	
870.65	3406.5	
870.81	4609.3	
870.98	4654.4	
871.15	3186.6	
871.32	2959.3	
871.48	4984.8	
871.65	5372.5	
871.82	2809.8	
871.99	3109.5	
872.16	5632.6	
872.32	5196.4	
872.49	2874	
872.66	2836.4	
872.83	5038.7	
872.99	4521.9	
873.16	3177.1	
873.33	2803	
873.5	4746.5	
873.67	4819.6	
873.83	2918.4	
874	3610.6	
874.17	4874.8	
874.34	5538.4	
874.5	3481.5	
874.67	3395.5	
874.84	5272.8	
875.01	4241.3	
875.17	3753.9	
875.34	2781.1	
875.51	4815.5	
875.68	5788.9	
875.84	3336.1	
876.01	3978.5	
876.18	5001.8	
876.34	4962.9	
876.51	2803	
876.68	2697.2	
876.85	4590.9	
877.01	5270.1	
877.18	3875.4	
877.35	2770.9	
877.52	4829.1	
877.68	4361.5	
877.85	2742.9	
878.02	2736.8	
878.18	4612.7	
878.35	4508.9	
878.52	2288.9	
878.69	3078.8	
878.85	5096	
879.02	4990.9	
879.19	3854.3	
879.35	3015.3	
879.52	5028.4	
879.69	5135.6	
879.86	2481.5	
880.02	3086.3	
880.19	4711.7	
880.36	5565.7	
880.52	3145	
880.69	3233.1	
880.86	5119.9	
881.02	5081.7	
881.19	3030.3	
881.36	2923.1	
881.52	4980	
881.69	4511	
881.86	2930	
882.02	2914.3	
882.19	5225.1	
882.36	5935.7	
882.52	2848	
882.69	3836.5	
882.86	4863.2	
883.02	4833.2	
883.19	3280.8	
883.36	3124.5	
883.52	5061.9	
883.69	5669.5	
883.86	2863.1	
884.02	2557.2	
884.19	5039.4	
884.36	4750.6	
884.52	3150.5	
884.69	3011.9	
884.86	4579.9	
885.02	5457.8	
885.19	3075.4	
885.36	3218	
885.52	4709.6	
885.69	4806.6	
885.86	3923.2	
886.02	3490.4	
886.19	5038	
886.35	4571.1	
886.52	3079.5	
886.69	3768.3	
886.85	4367	
887.02	5227.1	
887.19	5227.1	
887.35	5227.1	
887.52	5227.1	
887.68	5227.1	
887.85	5227.1	
888.02	5227.1	
888.18	5227.1	
888.35	5227.1	
888.51	5227.1	
888.68	5227.1	
888.85	5227.1	
889.01	5227.1	
889.18	5227.1	
889.35	5227.1	
889.51	5227.1	
889.68	5227.1	
889.84	5227.1	
890.01	5227.1	
890.17	5227.1	
890.34	5227.1	
890.51	5227.1	
890.67	5227.1	
890.84	5227.1	
891	5227.1	
891.17	5227.1	
891.34	5227.1	
891.5	5227.1	
891.67	5227.1	
891.83	5227.1	
892	5227.1	
892.16	5227.1	
892.33	5227.1	
892.5	5227.1	
892.66	5227.1	
892.83	5227.1	
892.99	5227.1	
893.16	5227.1	
893.32	5227.1	
893.49	5227.1	
893.65	5227.1	
893.82	5227.1	
893.99	5227.1	
894.15	5227.1	
894.32	5227.1	
894.48	5227.1	
894.65	5227.1	
894.81	5227.1	
894.98	5227.1	
895.14	5227.1	
895.31	5227.1	
895.47	5227.1	
895.64	5227.1	
895.81	5227.1	
895.97	5227.1	
896.14	5227.1	
896.3	5227.1	
896.47	5227.1	
896.63	5227.1	
896.8	5227.1	
896.96	5227.1	
897.13	5227.1	
897.29	5227.1	
897.46	5227.1	
897.62	5227.1	
897.79	5227.1	
897.95	5227.1	
898.12	5227.1	
898.28	5227.1	
898.45	5227.1	
898.61	5227.1	
898.78	5227.1	
898.94	5227.1	
899.11	5227.1	
899.27	5227.1	
899.44	5227.1	
899.6	5227.1	
899.77	5227.1	
899.93	5227.1	
900.1	5227.1	
900.26	5227.1	
900.43	5227.1	
900.59	5227.1	
900.76	5227.1	
900.92	5227.1	
901.09	5227.1	
901.25	5227.1	
901.42	5227.1	
901.58	5227.1	
901.75	5227.1	
901.91	5227.1	
902.07	5227.1	
902.24	5227.1	
902.4	5227.1	
902.57	5227.1	
902.73	5227.1	
902.9	5227.1	
903.06	5227.1	
903.23	5227.1	
903.39	5227.1	
903.56	5227.1	
903.72	5227.1	
903.88	5227.1	
904.05	5227.1	
904.21	5227.1	
904.38	5227.1	
904.54	5227.1	
904.71	5227.1	
904.87	5227.1	
905.03	5227.1	
905.2	5227.1	
905.36	5227.1	
905.53	5227.1	
905.69	5227.1	
905.86	5227.1	
906.02	5227.1	
906.18	5227.1	
906.35	5227.1	
906.51	5227.1	
906.68	5227.1	
906.84	5227.1	
907.01	5227.1	
907.17	5227.1	
907.33	5227.1	
907.5	5227.1	
907.66	5227.1	
907.83	5227.1	
907.99	5227.1	
908.15	5227.1	
908.32	5227.1	
908.48	5227.1	
908.65	5227.1	
908.81	5227.1	
908.97	5227.1	
909.14	5227.1	
909.3	5227.1	
909.47	5227.1	
909.63	5227.1	
909.79	5227.1	
909.96	5227.1	
910.12	5227.1	
910.28	5227.1	
910.45	5227.1	
910.61	5227.1	
910.78	5227.1	
910.94	5227.1	
911.1	5227.1	
911.27	5227.1	
911.43	5227.1	
911.59	5227.1	
911.76	5227.1	
911.92	5227.1	
912.08	5227.1	
912.25	5227.1	
912.41	5227.1	
912.57	5227.1	
912.74	5227.1	
912.9	5227.1	
913.07	5227.1	
913.23	5227.1	
913.39	5227.1	
913.56	5227.1	
913.72	5227.1	
913.88	5227.1	
914.05	5227.1	
914.21	5227.1	
914.37	5227.1	
914.54	5227.1	
914.7	5227.1	
914.86	5227.1	
915.03	5227.1	
915.19	5227.1	
