Wavelength	Intensities	
nm	a.u.	
179.22	1725.1	
179.44	1731.2	
179.65	1718.9	
179.86	1743.5	
180.08	1742.1	
180.29	4130.1	
180.51	3035.8	
180.72	5100.1	
180.94	5799.8	
181.15	2854.2	
181.37	2777	
181.58	4924.7	
181.79	5102.2	
182.01	2932	
182.22	3069.9	
182.44	5170.4	
182.65	4433.2	
182.87	3871.3	
183.08	3409.2	
183.29	5424.4	
183.51	4481.6	
183.72	3050.1	
183.94	4347.2	
184.15	4841.4	
184.37	4777.9	
184.58	2766.1	
184.79	3630.4	
185.01	4616.8	
185.22	5128.8	
185.44	3823.6	
185.65	3284.3	
185.86	4859.1	
186.08	4439.3	
186.29	2705.4	
186.51	2889.7	
186.72	4541.7	
186.94	5259.2	
187.15	3317	
187.36	3336.8	
187.58	6639.5	
187.79	4931.5	
188.01	3495.2	
188.22	5339.7	
188.43	5830.6	
188.65	5159.5	
188.86	2904	
189.08	3380.5	
189.29	4660.5	
189.5	4616.1	
189.72	3108.1	
189.93	3241.9	
190.15	5282.4	
190.36	6083.1	
190.57	3440.6	
190.79	3274	
191	5259.9	
191.22	5292	
191.43	3446	
191.64	2908.8	
191.86	5501.5	
192.07	5309	
192.29	3001.6	
192.5	3119.1	
192.71	5304.9	
192.93	4661.2	
193.14	3132	
193.35	3216	
193.57	4624.3	
193.78	5343.8	
194	2580.4	
194.21	3102.7	
194.42	4459.1	
194.64	4851.6	
194.85	3325.9	
195.07	3955.3	
195.28	4878.3	
195.49	4278.9	
195.71	4132.8	
195.92	2921.1	
196.13	4940.4	
196.35	5033.2	
196.56	4332.1	
196.78	3402.4	
196.99	6092.7	
197.2	5646.9	
197.42	3818.1	
197.63	3425.6	
197.84	4429.1	
198.06	4973.2	
198.27	3147	
198.48	4095.3	
198.7	4675.5	
198.91	4881.7	
199.13	3420.8	
199.34	3393.5	
199.55	5193	
199.77	4229.1	
199.98	3026.9	
200.19	3450.1	
200.41	4739.7	
200.62	4550.6	
200.83	3545	
201.05	3801	
201.26	4792.9	
201.47	4606.6	
201.69	3056.9	
201.9	2941.6	
202.11	4844.1	
202.33	5598.5	
202.54	3220.8	
202.76	3560.7	
202.97	4922.6	
203.18	5035.3	
203.4	3556	
203.61	3540.3	
203.82	4902.2	
204.04	4601.8	
204.25	3448.1	
204.46	3391.4	
204.68	4831.2	
204.89	5063.9	
205.1	3344.3	
205.32	2953.9	
205.53	5150	
205.74	5273.5	
205.96	2593.4	
206.17	3500	
206.38	5111	
206.6	5281	
206.81	3911.6	
207.02	3201	
207.24	5024.3	
207.45	5348.6	
207.66	3273.3	
207.88	2889.7	
208.09	4976.6	
208.3	4818.2	
208.52	3038.5	
208.73	3297.2	
208.94	4840.7	
209.15	5435.3	
209.37	3251.5	
209.58	3642.7	
209.79	5257.1	
210.01	4696.7	
210.22	2723.1	
210.43	2781.8	
210.65	4821.6	
210.86	5109.7	
211.07	3207.1	
211.29	3017.3	
211.5	5084.4	
211.71	4796.3	
211.93	3033.7	
212.14	3002.3	
212.35	4798.4	
212.56	4919.9	
212.78	3440.6	
212.99	2888.3	
213.2	5527.5	
213.42	4691.9	
213.63	3138.2	
213.84	3279.5	
214.06	4373.1	
214.27	4420.9	
214.48	3268.6	
214.69	3457.7	
214.91	5403.2	
215.12	5378.6	
215.33	3506.8	
215.55	3745.1	
215.76	5790.3	
215.97	5119.9	
216.18	3345.7	
216.4	3329.3	
216.61	4610	
216.82	5228.5	
217.04	3067.9	
217.25	3150.5	
217.46	5337.7	
217.67	5196.4	
217.89	2762.7	
218.1	2875.3	
218.31	4881	
218.53	4984.1	
218.74	3224.2	
218.95	3032.4	
219.16	4799.1	
219.38	5565	
219.59	3085.6	
219.8	3610.6	
220.01	6004.6	
220.23	4845.5	
220.44	3956	
220.65	3024.2	
220.87	4926.7	
221.08	5276.9	
221.29	2840.5	
221.5	3657	
221.72	6296.8	
221.93	4640	
222.14	3424.2	
222.35	3979.9	
222.57	4790.9	
222.78	5180	
222.99	3306.8	
223.2	3493.2	
223.42	5126.1	
223.63	5167	
223.84	2591.4	
224.05	2577.7	
224.27	6024.4	
224.48	5485.8	
224.69	4024.3	
224.9	3411.2	
225.12	5040.7	
225.33	4811.4	
225.54	2831	
225.75	3045.3	
225.97	4535.6	
226.18	4773.8	
226.39	3345	
226.6	3117.7	
226.82	4647.5	
227.03	4502.8	
227.24	3444	
227.45	2865.8	
227.67	5158.8	
227.88	5510.4	
228.09	3749.1	
228.3	3761.4	
228.52	5210.7	
228.73	4774.5	
228.94	3188	
229.15	2887.6	
229.36	4767.7	
229.58	4775.2	
229.79	3225.6	
230	3644	
230.21	5706.3	
230.43	4867.3	
230.64	3392.8	
230.85	3538.2	
231.06	5219.6	
231.28	5210.7	
231.49	2853.5	
231.7	3316.3	
231.91	5131.5	
232.12	4859.8	
232.34	2962	
232.55	3354.6	
232.76	5323.4	
232.97	4873.5	
233.18	3035.8	
233.4	3415.3	
233.61	5026.4	
233.82	4698	
234.03	3182.5	
234.25	3104.7	
234.46	6472.9	
234.67	4808.6	
234.88	3472.7	
235.09	3123.8	
235.31	5007.3	
235.52	4756.1	
235.73	3371.6	
235.94	2881.5	
236.15	4653	
236.37	5722	
236.58	2992.8	
236.79	3253.5	
237	5100.1	
237.21	4443.4	
237.43	3515	
237.64	2833	
237.85	8110.6	
238.06	4480.3	
238.27	3489.7	
238.48	2909.5	
238.7	5111	
238.91	4742.4	
239.12	3212.6	
239.33	3366.9	
239.54	4536.9	
239.76	4777.9	
239.97	3269.9	
240.18	3293.1	
240.39	5804.6	
240.6	4954	
240.82	3426.3	
241.03	2870.6	
241.24	4799.1	
241.45	5524.1	
241.66	3021.4	
241.87	3549.8	
242.09	5382.7	
242.3	5633.3	
242.51	3536.8	
242.72	3288.4	
242.93	5212.8	
243.14	4844.8	
243.36	3775.1	
243.57	4050.9	
243.78	5513.8	
243.99	5076.2	
244.2	3189.4	
244.41	2998.9	
244.63	4521.2	
244.84	5109	
245.05	3472.7	
245.26	3249.4	
245.47	5103.5	
245.68	5236	
245.9	4289.8	
246.11	3439.2	
246.32	4704.2	
246.53	4989.5	
246.74	5145.2	
246.95	2827.6	
247.16	4536.9	
247.38	4844.1	
247.59	2825.5	
247.8	3324.5	
248.01	4529.4	
248.22	4805.2	
248.43	3087.7	
248.64	3222.8	
248.86	4405.9	
249.07	4730.8	
249.28	2939.5	
249.49	3375.7	
249.7	5287.2	
249.91	5342.5	
250.12	2794.1	
250.34	2874.7	
250.55	4925.4	
250.76	4814.8	
250.97	3427.6	
251.18	3420.8	
251.39	5403.9	
251.6	4962.9	
251.81	3448.1	
252.03	3496.6	
252.24	4674.8	
252.45	5253.7	
252.66	2898.6	
252.87	3592.1	
253.08	4890.5	
253.29	6082.5	
253.5	2925.2	
253.72	3995.6	
253.93	4771.8	
254.14	5656.5	
254.35	3166.8	
254.56	3209.2	
254.77	4967	
254.98	4509.6	
255.19	3112.2	
255.41	3872	
255.62	4986.1	
255.83	5321.3	
256.04	3520.5	
256.25	3381.9	
256.46	5819	
256.67	4584	
256.88	3380.5	
257.09	3737.5	
257.31	4536.3	
257.52	4577.2	
257.73	4231.8	
257.94	3126.6	
258.15	4775.2	
258.36	4790.2	
258.57	3876.1	
258.78	2570.9	
258.99	5253	
259.2	4676.2	
259.41	3181.9	
259.63	3253.5	
259.84	5533.6	
260.05	5782.1	
260.26	4017.4	
260.47	3070.6	
260.68	5323.4	
260.89	4788.2	
261.1	3729.4	
261.31	3067.9	
261.52	5345.2	
261.73	5624.4	
261.95	3956	
262.16	3473.4	
262.37	5342.5	
262.58	5460.6	
262.79	3928.7	
263	3243.3	
263.21	4902.8	
263.42	4724	
263.63	3463.1	
263.84	3175	
264.05	5363.6	
264.26	5542.5	
264.47	3872	
264.69	3521.1	
264.9	5462.6	
265.11	4940.4	
265.32	3061	
265.53	3113.6	
265.74	4932.2	
265.95	4324.6	
266.16	3317.7	
266.37	3611.9	
266.58	4980.7	
266.79	4681	
267	3126.6	
267.21	2897.2	
267.42	4546.5	
267.63	4847.5	
267.84	3274.7	
268.06	2848.7	
268.27	5208	
268.48	5436.7	
268.69	3214.6	
268.9	3725.3	
269.11	5405.3	
269.32	4373.8	
269.53	3261	
269.74	3061.7	
269.95	5064.6	
270.16	4375.8	
270.37	3352.5	
270.58	3710.9	
270.79	4738.3	
271	5222.3	
271.21	3425.6	
271.42	3333.4	
271.63	4979.3	
271.84	4496	
272.05	2695.1	
272.26	2978.4	
272.47	4823	
272.68	4964.3	
272.89	3237.2	
273.11	3607.2	
273.32	4663.2	
273.53	5509	
273.74	3509.5	
273.95	3469.3	
274.16	5274.9	
274.37	4879.6	
274.58	3679.5	
274.79	2929.3	
275	4978.6	
275.21	5329.5	
275.42	4188.8	
275.63	3662.5	
275.84	5061.2	
276.05	6235.4	
276.26	3469.9	
276.47	3220.8	
276.68	4736.3	
276.89	5643.5	
277.1	3663.1	
277.31	2933.4	
277.52	5059.2	
277.73	5268.1	
277.94	2897.9	
278.15	3123.8	
278.36	5059.2	
278.57	4580.6	
278.78	3197.6	
278.99	3537.5	
279.2	4616.1	
279.41	4567.7	
279.62	4115.1	
279.83	2970.2	
280.04	5807.4	
280.25	4502.8	
280.46	4036.5	
280.67	3302	
280.88	4555.4	
281.09	5331.5	
281.3	3448.8	
281.51	4270	
281.72	4631.8	
281.93	5221.6	
282.14	3090.4	
282.35	3334.1	
282.56	5258.5	
282.77	5214.1	
282.98	3223.5	
283.19	3874.1	
283.4	6227.2	
283.61	4805.9	
283.82	2998.2	
284.03	3999	
284.24	4975.2	
284.45	5355.4	
284.66	4072.7	
284.87	3815.4	
285.08	5295.4	
285.29	5461.9	
285.5	2869.9	
285.71	3257.6	
285.92	5322.7	
286.12	5788.9	
286.33	3975.1	
286.54	3257.6	
286.75	5219.6	
286.96	4797	
287.17	3011.9	
287.38	3848.1	
287.59	4632.5	
287.8	4567.7	
288.01	3235.1	
288.22	3599	
288.43	5213.4	
288.64	4448.2	
288.85	3796.9	
289.06	3639.2	
289.27	5175.9	
289.48	5511.1	
289.69	4059.1	
289.9	3725.9	
290.11	5322	
290.32	4618.9	
290.53	3827	
290.74	3522.5	
290.94	5173.9	
291.15	5225.7	
291.36	3064.4	
291.57	3614.7	
291.78	4685.8	
291.99	4416.1	
292.2	2983.9	
292.41	3495.2	
292.62	5332.2	
292.83	5124	
293.04	4263.2	
293.25	3067.2	
293.46	4735.6	
293.67	5305.6	
293.88	3050.8	
294.09	2975	
294.29	4541.7	
294.5	4964.3	
294.71	3286.3	
294.92	3150.5	
295.13	4700.8	
295.34	5781.4	
295.55	2863.7	
295.76	2779.1	
295.97	5188.2	
296.18	5743.9	
296.39	2930	
296.6	3086.3	
296.81	4953.4	
297.01	5203.9	
297.22	3191.4	
297.43	3147.7	
297.64	4604.5	
297.85	4552.6	
298.06	2660.3	
298.27	2857.6	
298.48	4830.5	
298.69	4612	
298.9	3431.7	
299.11	3107.5	
299.31	4465.3	
299.52	4464.6	
299.73	3640.6	
299.94	3452.2	
300.15	4852.3	
300.36	4543.1	
300.57	3486.3	
300.78	3460.4	
300.99	4730.8	
301.2	4920.6	
301.4	3101.3	
301.61	3336.1	
301.82	5125.4	
302.03	5169.1	
302.24	3728.7	
302.45	2973	
302.66	5141.8	
302.87	5397.8	
303.08	3118.4	
303.29	4150.6	
303.49	4691.2	
303.7	4809.3	
303.91	2860.3	
304.12	3951.2	
304.33	4455.7	
304.54	4927.4	
304.75	3113.6	
304.96	2998.9	
305.16	5087.8	
305.37	5661.3	
305.58	2725.8	
305.79	2794.8	
306	5101.5	
306.21	4346.5	
306.42	3115	
306.63	4545.1	
306.83	4715.8	
307.04	5204.6	
307.25	3433.1	
307.46	3374.4	
307.67	4293.9	
307.88	5159.5	
308.09	3037.8	
308.29	3190.7	
308.5	4902.8	
308.71	5281	
308.92	3336.1	
309.13	2998.9	
309.34	4776.5	
309.55	4801.8	
309.75	3831.1	
309.96	3500	
310.17	5174.5	
310.38	4622.3	
310.59	3645.4	
310.8	2954.5	
311.01	4725.3	
311.21	4807.3	
311.42	3004.4	
311.63	3058.3	
311.84	4673.5	
312.05	4896	
312.26	3457.7	
312.46	3743	
312.67	4737.6	
312.88	4483	
313.09	3018.7	
313.3	2918.4	
313.51	5431.9	
313.71	5743.9	
313.92	3018	
314.13	3145.7	
314.34	5034.6	
314.55	4829.1	
314.76	3814	
314.96	3327.3	
315.17	5001.1	
315.38	5050.3	
315.59	3041.2	
315.8	2897.2	
316.01	5475.6	
316.21	5559.6	
316.42	2954.5	
316.63	3299.3	
316.84	4740.4	
317.05	5369.8	
317.26	3508.2	
317.46	3177.8	
317.67	4782.7	
317.88	5159.5	
318.09	3795.6	
318.3	2821.4	
318.5	4644.8	
318.71	5032.5	
318.92	4655	
319.13	3474.7	
319.34	5191.6	
319.54	5308.3	
319.75	2864.4	
319.96	2693.1	
320.17	5129.5	
320.38	5307.7	
320.58	2779.8	
320.79	3271.3	
321	5299.5	
321.21	5362.9	
321.42	3285.6	
321.62	2826.2	
321.83	4547.9	
322.04	4889.2	
322.25	3238.5	
322.46	3003	
322.66	4926.7	
322.87	5078.3	
323.08	3680.2	
323.29	2971.6	
323.5	5691.3	
323.7	4489.8	
323.91	3981.3	
324.12	3594.2	
324.33	4910.3	
324.53	5154.1	
324.74	3466.5	
324.95	3644	
325.16	4427	
325.37	4724	
325.57	2983.2	
325.78	3079.5	
325.99	4966.3	
326.2	4484.4	
326.4	4130.1	
326.61	2822.8	
326.82	4829.8	
327.03	4871.4	
327.24	4151.9	
327.44	3904.8	
327.65	5078.3	
327.86	4241.3	
328.07	3491.1	
328.27	2902	
328.48	5446.2	
328.69	4504.2	
328.9	4188.8	
329.1	3167.5	
329.31	4765.6	
329.52	5499.5	
329.73	3009.8	
329.93	3338.2	
330.14	4884.4	
330.35	5001.8	
330.56	4719.9	
330.76	3598.3	
330.97	4710.3	
331.18	4945.8	
331.39	3338.2	
331.59	2740.2	
331.8	5323.4	
332.01	5403.2	
332.22	3095.2	
332.42	3461.7	
332.63	4945.2	
332.84	4556	
333.05	3347.7	
333.25	3065.8	
333.46	4610	
333.67	4870.8	
333.88	3165.5	
334.08	3468.6	
334.29	6270.2	
334.5	5316.5	
334.7	2942.2	
334.91	4156	
335.12	4487.1	
335.33	5164.3	
335.53	3312.9	
335.74	4702.8	
335.95	4726.7	
336.16	4520.5	
336.36	3298.6	
336.57	3777.1	
336.78	4508.9	
336.98	5275.6	
337.19	4009.2	
337.4	3257	
337.61	5754.1	
337.81	4476.9	
338.02	3147	
338.23	3870.7	
338.43	5444.2	
338.64	4584	
338.85	3055.6	
339.05	3910.9	
339.26	5535.7	
339.47	4444.8	
339.68	3051.5	
339.88	4314.4	
340.09	5076.9	
340.3	5260.5	
340.5	3453.6	
340.71	2707.4	
340.92	4462.5	
341.13	5376.6	
341.33	2925.2	
341.54	3465.8	
341.75	5042.1	
341.95	4728.1	
342.16	3335.5	
342.37	3629.7	
342.57	4513	
342.78	4756.7	
342.99	3726.6	
343.19	2796.2	
343.4	5171.1	
343.61	5046.2	
343.81	3235.8	
344.02	2955.2	
344.23	5177.3	
344.43	5472.9	
344.64	3724.6	
344.85	3601.7	
345.06	5047.6	
345.26	5324.7	
345.47	3467.2	
345.68	3951.9	
345.88	4359.4	
346.09	5246.2	
346.3	3533.4	
346.5	2721.8	
346.71	4776.5	
346.92	4607.2	
347.12	2875.3	
347.33	3436.5	
347.54	5250.3	
347.74	5539.1	
347.95	3426.9	
348.16	2663.7	
348.36	4687.8	
348.57	4530.8	
348.78	3418.7	
348.98	3621.5	
349.19	4781.3	
349.39	4382.7	
349.6	2909.5	
349.81	3076	
350.01	5107.6	
350.22	4635.9	
350.43	3353.9	
350.63	3965.6	
350.84	4878.3	
351.05	4656.4	
351.25	3045.3	
351.46	2783.9	
351.67	5223	
351.87	4561.5	
352.08	3200.3	
352.29	3631	
352.49	5176.6	
352.7	5248.9	
352.9	2921.1	
353.11	3639.2	
353.32	5652.4	
353.52	4730.1	
353.73	2882.2	
353.94	3648.1	
354.14	5048.2	
354.35	4898.1	
354.55	3046.7	
354.76	3261	
354.97	5048.2	
355.17	4764.9	
355.38	2878.8	
355.59	3828.3	
355.79	4584.7	
356	4832.5	
356.2	3311.6	
356.41	2924.5	
356.62	4447.5	
356.82	4730.1	
357.03	3523.9	
357.24	3135.4	
357.44	4578.6	
357.65	4672.1	
357.85	4136.9	
358.06	3320.4	
358.27	4325.3	
358.47	4486.4	
358.68	2859.6	
358.88	3498.6	
359.09	4964.3	
359.3	5287.9	
359.5	4014.7	
359.71	3532.1	
359.91	5611.4	
360.12	5023.7	
360.33	3472	
360.53	3814.7	
360.74	4534.2	
360.94	4593.6	
361.15	3657.7	
361.36	3054.2	
361.56	5180	
361.77	4733.5	
361.97	3923.9	
362.18	3186	
362.38	5201.2	
362.59	4438.6	
362.8	2979.8	
363	2837.1	
363.21	4287.8	
363.41	4806.6	
363.62	3348.4	
363.83	4061.8	
364.03	4904.2	
364.24	5537	
364.44	4217.5	
364.65	4151.9	
364.85	4699.4	
365.06	4426.3	
365.27	3088.3	
365.47	3145	
365.68	5459.9	
365.88	4668.7	
366.09	3388.7	
366.29	3106.1	
366.5	4811.4	
366.71	5205.3	
366.91	4088.4	
367.12	3560.1	
367.32	5642.8	
367.53	5068	
367.73	3555.3	
367.94	4276.2	
368.14	5081	
368.35	5689.9	
368.56	3501.3	
368.76	3251.5	
368.97	5149.3	
369.17	6335.1	
369.38	3049.4	
369.58	3229.6	
369.79	4318.5	
369.99	5480.4	
370.2	4126	
370.4	3366.9	
370.61	4862.6	
370.82	5866.1	
371.02	3304.1	
371.23	2768.9	
371.43	4334.9	
371.64	5401.2	
371.84	3315.7	
372.05	4184.7	
372.25	6255.2	
372.46	5099.4	
372.66	3288.4	
372.87	3315.7	
373.07	5094	
373.28	6405.4	
373.48	4111.6	
373.69	3768.3	
373.9	4693.3	
374.1	4730.1	
374.31	3982.6	
374.51	3629.7	
374.72	5311.1	
374.92	4504.8	
375.13	4128	
375.33	3506.1	
375.54	5010.7	
375.74	4629.1	
375.95	3558	
376.15	4484.4	
376.36	5019.6	
376.56	4937	
376.77	3599	
376.97	3929.4	
377.18	5911.1	
377.38	5080.3	
377.59	4141	
377.79	3143.6	
378	4952	
378.2	5180	
378.41	3224.2	
378.61	3161.4	
378.82	5237.3	
379.02	4668	
379.23	3383.9	
379.43	4196.3	
379.64	5380	
379.84	5051.7	
380.05	3220.1	
380.25	3155.9	
380.46	5131.5	
380.66	4801.1	
380.87	4252.3	
381.07	4568.3	
381.28	5582.1	
381.48	5077.6	
381.69	3230.3	
381.89	3300.6	
382.1	4330.1	
382.3	5165	
382.51	4057.7	
382.71	4754.7	
382.91	5101.5	
383.12	5505.6	
383.32	3551.9	
383.53	3719.1	
383.73	4984.8	
383.94	4883	
384.14	3687.7	
384.35	3024.2	
384.55	4791.6	
384.76	5054.4	
384.96	3566.9	
385.17	3728.7	
385.37	5149.3	
385.58	4504.8	
385.78	3728	
385.98	2962.7	
386.19	4790.2	
386.39	4997	
386.6	3378.5	
386.8	3520.5	
387.01	5084.4	
387.21	5175.2	
387.42	3835.2	
387.62	4273.4	
387.83	4566.3	
388.03	5036	
388.23	3631	
388.44	4161.5	
388.64	4432.5	
388.85	4405.9	
389.05	3786	
389.26	4209.3	
389.46	5961	
389.67	5488.6	
389.87	3781.2	
390.07	3817.4	
390.28	4776.5	
390.48	4540.3	
390.69	3207.8	
390.89	3475.4	
391.1	4711	
391.3	5316.5	
391.5	4373.8	
391.71	4805.2	
391.91	5168.4	
392.12	5847.6	
392.32	4429.1	
392.53	3805.8	
392.73	4726	
392.93	4832.5	
393.14	3564.1	
393.34	4164.9	
393.55	5184.8	
393.75	4814.1	
393.95	3646.1	
394.16	3530.7	
394.36	4655	
394.57	5171.8	
394.77	3134.1	
394.98	3441.3	
395.18	4601.8	
395.38	4773.8	
395.59	4113	
395.79	3277.4	
396	4735.6	
396.2	5044.1	
396.4	3994.9	
396.61	3859.1	
396.81	5184.8	
397.02	4631.1	
397.22	4175.8	
397.42	4161.5	
397.63	5215.5	
397.83	4628.4	
398.04	3339.6	
398.24	3649.5	
398.44	5057.8	
398.65	4249.5	
398.85	3190.7	
399.05	3228.3	
399.26	4585.4	
399.46	5859.9	
399.67	3525.2	
399.87	3336.8	
400.07	4891.2	
400.28	5134.9	
400.48	3360.7	
400.69	4212.7	
400.89	5265.3	
401.09	5612.8	
401.3	3257	
401.5	4166.3	
401.7	5763	
401.91	5988.3	
402.11	3634.5	
402.32	3766.2	
402.52	5335.6	
402.72	5257.1	
402.93	3972.4	
403.13	3074.7	
403.33	5925.5	
403.54	4915.8	
403.74	3731.4	
403.94	4382.7	
404.15	4968.4	
404.35	5882.4	
404.56	3497.9	
404.76	4937.7	
404.96	5242.8	
405.17	5126.1	
405.37	4228.4	
405.57	3908.2	
405.78	5320.6	
405.98	4922	
406.18	3470.6	
406.39	4181.3	
406.59	5306.3	
406.79	4909.7	
407	3354.6	
407.2	3428.3	
407.4	5366.4	
407.61	5429.8	
407.81	3461.1	
408.01	4867.3	
408.22	4392.9	
408.42	5883.1	
408.62	4225	
408.83	3783.3	
409.03	4991.6	
409.23	4790.9	
409.44	3807.2	
409.64	4005.1	
409.84	5620.3	
410.05	5539.8	
410.25	3955.3	
410.45	3759.4	
410.66	5145.2	
410.86	6984.9	
411.06	4098.7	
411.27	3971	
411.47	6887.3	
411.67	5240.8	
411.88	4173.1	
412.08	4272.1	
412.28	5720	
412.49	6129.6	
412.69	3966.2	
412.89	3971	
413.09	6027.9	
413.3	5947.3	
413.5	4015.4	
413.7	3738.9	
413.91	5279	
414.11	5814.9	
414.31	3916.4	
414.52	4130.8	
414.72	5712.5	
414.92	5599.8	
415.12	3891.1	
415.33	4290.5	
415.53	5936.4	
415.73	6075	
415.94	4515.8	
416.14	4108.2	
416.34	5134.3	
416.55	4922.6	
416.75	4984.1	
416.95	4622.9	
417.15	5898.2	
417.36	6436.1	
417.56	5115.1	
417.76	4405.2	
417.97	6154.8	
418.17	5853.8	
418.37	4134.8	
418.57	4134.8	
418.78	5796.4	
418.98	5556.1	
419.18	4855.7	
419.38	4807.9	
419.59	5561.6	
419.79	5236	
419.99	4041.3	
420.2	4410.6	
420.4	5918.6	
420.6	5947.3	
420.8	3982.6	
421.01	3881.6	
421.21	5768.4	
421.41	5894.7	
421.61	4289.1	
421.82	4051.6	
422.02	5448.3	
422.22	6179.4	
422.42	4682.3	
422.63	4477.5	
422.83	5535.7	
423.03	6479.1	
423.23	4487.1	
423.44	3718.4	
423.64	5479.7	
423.84	5315.8	
424.04	4066.6	
424.25	3761.4	
424.45	6270.2	
424.65	6229.2	
424.85	3667.9	
425.06	4070	
425.26	6342.6	
425.46	5507.7	
425.66	4455.7	
425.87	4249.5	
426.07	6088.6	
426.27	5969.8	
426.47	4337.6	
426.67	3781.2	
426.88	6425.8	
427.08	5879.7	
427.28	4462.5	
427.48	3843.4	
427.69	5105.6	
427.89	5517.9	
428.09	4390.2	
428.29	3796.9	
428.5	6038.1	
428.7	5738.4	
428.9	3722.5	
429.1	4175.8	
429.3	5685.8	
429.51	5898.1	
429.71	3993.5	
429.91	4586.8	
430.11	5941.2	
430.31	6060.6	
430.52	4196.3	
430.72	4425	
430.92	6270.9	
431.12	5876.3	
431.32	3932.1	
431.53	4263.2	
431.73	5044.8	
431.93	6404	
432.13	3859.7	
432.33	3765.5	
432.54	5552	
432.74	5659.2	
432.94	3721.2	
433.14	4547.2	
433.34	5936.4	
433.55	5510.4	
433.75	4528.1	
433.95	5793.7	
434.15	5745.9	
434.35	5423	
434.56	3873.4	
434.76	3501.3	
434.96	5598.5	
435.16	5837.4	
435.36	3777.8	
435.56	4587.4	
435.77	5405.3	
435.97	5481.7	
436.17	5180.7	
436.37	4524	
436.57	5351.3	
436.78	5348.6	
436.98	5961.6	
437.18	5085.1	
437.38	5838.8	
437.58	5481	
437.78	5132.2	
437.99	4070.7	
438.19	5963	
438.39	6547.4	
438.59	4093.9	
438.79	3673.4	
438.99	6488	
439.2	5533.6	
439.4	3709.6	
439.6	3663.1	
439.8	5685.8	
440	6523.5	
440.2	4438.6	
440.4	4599.1	
440.61	6064.7	
440.81	6438.8	
441.01	3877.5	
441.21	4661.2	
441.41	6309.8	
441.61	6037.4	
441.81	4761.5	
442.02	5602.6	
442.22	6737.8	
442.42	6120.7	
442.62	3967.6	
442.82	4053.6	
443.02	6392.4	
443.22	5656.5	
443.43	4317.8	
443.63	3882.9	
443.83	5537	
444.03	5532.9	
444.23	4876.2	
444.43	4498	
444.63	5773.2	
444.83	6700.3	
445.04	4075.5	
445.24	5018.2	
445.44	6149.4	
445.64	6184.2	
445.84	4660.5	
446.04	4657.8	
446.24	5595.1	
446.44	6430.6	
446.65	4029	
446.85	4285	
447.05	5702.9	
447.25	6355.5	
447.45	4468.7	
447.65	3903.4	
447.85	5910.4	
448.05	5490.6	
448.25	4706.9	
448.46	4523.3	
448.66	5882.4	
448.86	5580.7	
449.06	3803.1	
449.26	4691.9	
449.46	6109.8	
449.66	5424.4	
449.86	4308.9	
450.06	4348.5	
450.26	5536.3	
450.47	6020.3	
450.67	4547.9	
450.87	4756.7	
451.07	6105	
451.27	5875.6	
451.47	4073.4	
451.67	4414.7	
451.87	5651.7	
452.07	6511.9	
452.27	4197	
452.47	4147.8	
452.67	5887.2	
452.88	6173.3	
453.08	3729.4	
453.28	5151.3	
453.48	6769.9	
453.68	5811.5	
453.88	4101.4	
454.08	4210.6	
454.28	6118	
454.48	5767.8	
454.68	4658.4	
454.88	5011.4	
455.08	6193.7	
455.28	5935	
455.48	4021.5	
455.68	4451.6	
455.89	6617	
456.09	6276.3	
456.29	4192.9	
456.49	4287.8	
456.69	6465.4	
456.89	5791	
457.09	4682.3	
457.29	4901.5	
457.49	6020.3	
457.69	6113.9	
457.89	4489.1	
458.09	4005.8	
458.29	5935	
458.49	6461.3	
458.69	4875.5	
458.89	4366.3	
459.09	6589.7	
459.29	6681.2	
459.49	4454.3	
459.69	4988.2	
459.9	6333	
460.1	5880.4	
460.3	4412	
460.5	4236.6	
460.7	6315.9	
460.9	5966.4	
461.1	3889.8	
461.3	4831.2	
461.5	6701	
461.7	6437.4	
461.9	4193.6	
462.1	4597.7	
462.3	6070.9	
462.5	6425.8	
462.7	4248.9	
462.9	4347.2	
463.1	7219.1	
463.3	6903.7	
463.5	4448.9	
463.7	5210.7	
463.9	6146	
464.1	6444.3	
464.3	4556	
464.5	4801.1	
464.7	6677.7	
464.9	6303	
465.1	5706.3	
465.3	4958.1	
465.5	6922.1	
465.7	6885.3	
465.9	5154.7	
466.1	5011.4	
466.3	6697.5	
466.5	6602.7	
466.7	5760.3	
466.9	4799.8	
467.1	6609.5	
467.3	7258.7	
467.5	5621.7	
467.7	4768.4	
467.9	7503.1	
468.1	8088.8	
468.3	5449	
468.5	5713.2	
468.7	6449.7	
468.9	6494.1	
469.1	5033.2	
469.3	5577.3	
469.5	8021.2	
469.7	6165.1	
469.9	5437.4	
470.1	4839.4	
470.3	6614.9	
470.5	6504.3	
470.7	5870.2	
470.9	4900.8	
471.1	6413.6	
471.3	6733	
471.5	4747.9	
471.69	6326.9	
471.89	6370.5	
472.09	5896.1	
472.29	5388.2	
472.49	5714.5	
472.69	6105	
472.89	6788.3	
473.09	4774.5	
473.29	4870.8	
473.49	6264.7	
473.69	6328.2	
473.89	5559.6	
474.09	4997.7	
474.29	7363.8	
474.49	7065.5	
474.69	5569.1	
474.89	5055.1	
475.09	6381.5	
475.29	6344.6	
475.49	4654.4	
475.69	4754	
475.88	7594.6	
476.08	6724.8	
476.28	4589.5	
476.48	4878.3	
476.68	7058.7	
476.88	6806.1	
477.08	4889.2	
477.28	5047.6	
477.48	6513.2	
477.68	6993.8	
477.88	4657.8	
478.08	4938.3	
478.28	7160.4	
478.48	6543.3	
478.67	4998.4	
478.87	4523.3	
479.07	7057.3	
479.27	6615.6	
479.47	5117.2	
479.67	5167	
479.87	6894.1	
480.07	7298.3	
480.27	4537.6	
480.47	5789.6	
480.67	6665.5	
480.87	7118.1	
481.06	4808.6	
481.26	5488.6	
481.46	6621.1	
481.66	6468.2	
481.86	5126.7	
482.06	5913.2	
482.26	6361	
482.46	7221.8	
482.66	5095.3	
482.86	4826.4	
483.05	6668.9	
483.25	6141.2	
483.45	6999.3	
483.65	5051.7	
483.85	6309.1	
484.05	6537.8	
484.25	5477.6	
484.45	5702.9	
484.65	7113.3	
484.84	7182.9	
485.04	5018.9	
485.24	5042.1	
485.44	7387.7	
485.64	6142.5	
485.84	4483.7	
486.04	5574.6	
486.24	6511.2	
486.44	6634.1	
486.63	4444.1	
486.83	5047.6	
487.03	6369.9	
487.23	6457.2	
487.43	4531.5	
487.63	6272.9	
487.83	6525.5	
488.02	7196.6	
488.22	5208	
488.42	5662	
488.62	7190.4	
488.82	6300.2	
489.02	5010	
489.22	4966.3	
489.41	7084.6	
489.61	6791.7	
489.81	4805.9	
490.01	4849.6	
490.21	7023.9	
490.41	7617.1	
490.61	4832.5	
490.8	4861.2	
491	6713.2	
491.2	6170.5	
491.4	5371.8	
491.6	4704.2	
491.8	6710.5	
491.99	6716	
492.19	4577.9	
492.39	4801.8	
492.59	7025.2	
492.79	7098.3	
492.99	5449.6	
493.18	4724	
493.38	7116.7	
493.58	7653.9	
493.78	5302.2	
493.98	4966.3	
494.18	6852.5	
494.37	6476.4	
494.57	5455.8	
494.77	5343.2	
494.97	7046.4	
495.17	7169.9	
495.37	4969.7	
495.56	5242.8	
495.76	7313.3	
495.96	7042.3	
496.16	6014.9	
496.36	5205.3	
496.55	7220.5	
496.75	6825.9	
496.95	5495.4	
497.15	5348.6	
497.35	7228	
497.54	7139.9	
497.74	5231.9	
497.94	6702.3	
498.14	7716.1	
498.34	7518.8	
498.53	4944.5	
498.73	5629.2	
498.93	6613.6	
499.13	7175.4	
499.33	5424.4	
499.52	5801.2	
499.72	7208.8	
499.92	7368.6	
500.12	5128.8	
500.32	5400.5	
500.51	7363.8	
500.71	7136.5	
500.91	5970.5	
501.11	5666.7	
501.31	7322.2	
501.5	7620.5	
501.7	6299.6	
501.9	5422.3	
502.1	7172.7	
502.29	7431.4	
502.49	5801.9	
502.69	6126.2	
502.89	7352.2	
503.09	7334.5	
503.28	5049.6	
503.48	5238.7	
503.68	6821.8	
503.88	6784.9	
504.07	5883.8	
504.27	5522	
504.47	7023.9	
504.67	7189.7	
504.86	5817.6	
505.06	5556.8	
505.26	6935.8	
505.46	8181	
505.65	5583.4	
505.85	5801.2	
506.05	6866.8	
506.25	7268.2	
506.44	5056.4	
506.64	5774.6	
506.84	6728.9	
507.04	7476.5	
507.23	5276.9	
507.43	5662.6	
507.63	8324.3	
507.83	6820.4	
508.02	5656.5	
508.22	5307	
508.42	8499.8	
508.62	6774.7	
508.81	5776.6	
509.01	5975.3	
509.21	6690	
509.4	6969.9	
509.6	5694	
509.8	5214.1	
510	6916	
510.19	7883.3	
510.39	5219.6	
510.59	5337	
510.79	6731.7	
510.98	7797.3	
511.18	5401.9	
511.38	5367	
511.57	7453.9	
511.77	7161.7	
511.97	5954.1	
512.17	5300.1	
512.36	7397.3	
512.56	7294.2	
512.76	5219.6	
512.95	5011.4	
513.15	7539.9	
513.35	6390.3	
513.55	5868.8	
513.74	5248.3	
513.94	7425.9	
514.14	6934.4	
514.33	5924.8	
514.53	5739.8	
514.73	7003.4	
514.92	7013.6	
515.12	5365.7	
515.32	5221	
515.51	7090.1	
515.71	7453.9	
515.91	6679.8	
516.11	5251	
516.3	8460.8	
516.5	6812.2	
516.7	5746.6	
516.89	6166.4	
517.09	6960.4	
517.29	6898.2	
517.48	5849.7	
517.68	5504.9	
517.88	6742.6	
518.07	7258	
518.27	5981.4	
518.47	5110.4	
518.66	7673.7	
518.86	6546.7	
519.06	5117.2	
519.25	5395.7	
519.45	6834.8	
519.65	7977.5	
519.84	5928.2	
520.04	6460.7	
520.24	8389.8	
520.43	7433.4	
520.63	5840.8	
520.83	5493.3	
521.02	6942.6	
521.22	7362.4	
521.42	5952.1	
521.61	6244.9	
521.81	6954.2	
522.01	7135.1	
522.2	5793.7	
522.4	5565	
522.6	7576.1	
522.79	6524.1	
522.99	5695.4	
523.18	5144.5	
523.38	7307.8	
523.58	7245	
523.77	6522.1	
523.97	5083.1	
524.17	8658.1	
524.36	8073.8	
524.56	6181.5	
524.76	5992.4	
524.95	7224.6	
525.15	7036.8	
525.34	5760.9	
525.54	5811.5	
525.74	7675.8	
525.93	6877.1	
526.13	6677.1	
526.33	5817.6	
526.52	7897.7	
526.72	7457.3	
526.91	6706.4	
527.11	6109.8	
527.31	7860.1	
527.5	8156.4	
527.7	6124.1	
527.89	5404.6	
528.09	7099.6	
528.29	7417.7	
528.48	6438.8	
528.68	6070.9	
528.87	7813.7	
529.07	7908.6	
529.27	6135.7	
529.46	5806	
529.66	7585	
529.85	7936.6	
530.05	5671.5	
530.25	6309.8	
530.44	8796.7	
530.64	7577.5	
530.83	6015.6	
531.03	6124.8	
531.23	7970	
531.42	7805.5	
531.62	6774.7	
531.81	6090	
532.01	8008.9	
532.21	8295.6	
532.4	5894.1	
532.6	6195.1	
532.79	8715.5	
532.99	8062.2	
533.18	6276.3	
533.38	7162.4	
533.58	7763.2	
533.77	8234.9	
533.97	6287.9	
534.16	6912.6	
534.36	8569.4	
534.55	7769.3	
534.75	7033.4	
534.95	6391	
535.14	8461.5	
535.34	7745.4	
535.53	6163	
535.73	7651.9	
535.92	8852	
536.12	8010.3	
536.31	6253.8	
536.51	7140.6	
536.71	8230.8	
536.9	7823.9	
537.1	6331.6	
537.29	6442.9	
537.49	8563.2	
537.68	7737.9	
537.88	6765.1	
538.07	6098.9	
538.27	8016.4	
538.46	8811	
538.66	6051.1	
538.86	6460.7	
539.05	8118.1	
539.25	8400.8	
539.44	6630	
539.64	6331.6	
539.83	7923.6	
540.03	8776.2	
540.22	6290	
540.42	6376	
540.61	8202.1	
540.81	8288.1	
541	6728.9	
541.2	7289.4	
541.39	7806.9	
541.59	8063.5	
541.78	7021.1	
541.98	6328.2	
542.18	7595.9	
542.37	7587	
542.57	6625.2	
542.76	6953.5	
542.96	7700.4	
543.15	8200.1	
543.35	6690	
543.54	6094.1	
543.74	8361.2	
543.93	8081.3	
544.13	6675	
544.32	7491.5	
544.52	8402.8	
544.71	7692.9	
544.91	5911.8	
545.1	6846.4	
545.3	7760.4	
545.49	8120.2	
545.69	5881.1	
545.88	6395.1	
546.08	8991.3	
546.27	8608.3	
546.47	6774.7	
546.66	6234	
546.86	8414.4	
547.05	8880	
547.24	6405.4	
547.44	6277.7	
547.63	7648.5	
547.83	8444.5	
548.02	6570.6	
548.22	6723.5	
548.41	7423.2	
548.61	8533.9	
548.8	6168.5	
549	6275	
549.19	8101.8	
549.39	8262.9	
549.58	5991.7	
549.78	6455.2	
549.97	8359.8	
550.17	7943.4	
550.36	7081.2	
550.55	7864.9	
550.75	7859.4	
550.94	8503.2	
551.14	6217	
551.33	6446.3	
551.53	7391.8	
551.72	8115.4	
551.92	6488.6	
552.11	6277.7	
552.31	8200.1	
552.5	8196	
552.69	7609.6	
552.89	6053.1	
553.08	8147.5	
553.28	7920.2	
553.47	6358.3	
553.67	7251.9	
553.86	8703.9	
554.06	7354.9	
554.25	5750	
554.44	6134.3	
554.64	9197.4	
554.83	8869.8	
555.03	6169.2	
555.22	6406	
555.42	8363.9	
555.61	8179.6	
555.8	6294.8	
556	6555.5	
556.19	7413	
556.39	8375.5	
556.58	6247	
556.78	6385.6	
556.97	8047.8	
557.16	7739.3	
557.36	7165.8	
557.55	6025.8	
557.75	7178.1	
557.94	8652	
558.13	6138.4	
558.33	5994.4	
558.52	8479.3	
558.72	7602.1	
558.91	6034.7	
559.1	6200.6	
559.3	7399.3	
559.49	7232.7	
559.69	5679	
559.88	6449.1	
560.07	7961.1	
560.27	8269.7	
560.46	6684.6	
560.66	6753.5	
560.85	7846.5	
561.04	7196.6	
561.24	6047.7	
561.43	6058.6	
561.63	7306.5	
561.82	7560.4	
562.01	7065.5	
562.21	6305	
562.4	7947.5	
562.59	8553.7	
562.79	6193.1	
562.98	5961.6	
563.18	7894.2	
563.37	8917.5	
563.56	6599.2	
563.76	5951.4	
563.95	7465.5	
564.14	7467.6	
564.34	6229.9	
564.53	6078.4	
564.73	7943.4	
564.92	8018.5	
565.11	6362.4	
565.31	5834	
565.5	8404.2	
565.69	7417.7	
565.89	6094.1	
566.08	6294.8	
566.27	8093.6	
566.47	8548.2	
566.66	6776	
566.85	5704.3	
567.05	7937.9	
567.24	7490.1	
567.44	5968.5	
567.63	7002	
567.82	8138.6	
568.02	7837.6	
568.21	6055.2	
568.4	6346	
568.6	7747.5	
568.79	7754.3	
568.98	5912.5	
569.18	6012.2	
569.37	7735.2	
569.56	9235	
569.76	6182.1	
569.95	7011.6	
570.14	8115.4	
570.34	7925	
570.53	5884.5	
570.72	5856.5	
570.91	8417.8	
571.11	7740	
571.3	6232.7	
571.49	6937.8	
571.69	7804.8	
571.88	7397.9	
572.07	6620.4	
572.27	6636.8	
572.46	7326.9	
572.65	8144.1	
572.85	6076.3	
573.04	6274.3	
573.23	8368	
573.43	7826.7	
573.62	5794.4	
573.81	6326.9	
574	7811.6	
574.2	7688.8	
574.39	6118.6	
574.58	6266.1	
574.78	8495.7	
574.97	7886	
575.16	6564.4	
575.36	6632.7	
575.55	8206.9	
575.74	8318.2	
575.93	5759.6	
576.13	6616.3	
576.32	7699	
576.51	8155	
576.71	6209.4	
576.9	7703.1	
577.09	8468.4	
577.28	8021.9	
577.48	6452.5	
577.67	5760.9	
577.86	7782.3	
578.05	7973.4	
578.25	6173.9	
578.44	6434	
578.63	7813	
578.83	8692.9	
579.02	5816.2	
579.21	7030	
579.4	7985.7	
579.6	7775.5	
579.79	6455.9	
579.98	8088.8	
580.17	8287.4	
580.37	8283.4	
580.56	5956.9	
580.75	6508.4	
580.94	8481.3	
581.14	8511.4	
581.33	6874.3	
581.52	6085.9	
581.71	8140	
581.91	8580.3	
582.1	5827.8	
582.29	6294.8	
582.48	7882.6	
582.68	7834.2	
582.87	6736.5	
583.06	6421.7	
583.25	8166.6	
583.45	7753.6	
583.64	6872.3	
583.83	7353.6	
584.02	7759.8	
584.21	8107.2	
584.41	6903	
584.6	6236.7	
584.79	7811	
584.98	8388.5	
585.18	5919.3	
585.37	5965.1	
585.56	7473	
585.75	8019.8	
585.94	6062	
586.14	6666.8	
586.33	8503.8	
586.52	7768.6	
586.71	6428.6	
586.91	6283.2	
587.1	7283.3	
587.29	8196.7	
587.48	6224.5	
587.67	6092.7	
587.87	8146.1	
588.06	8000	
588.25	7238.9	
588.44	6618.4	
588.63	7767.3	
588.83	8264.2	
589.02	6303.6	
589.21	6107	
589.4	7730.4	
589.59	7601.4	
589.78	5539.1	
589.98	5778.7	
590.17	7288.7	
590.36	7650.5	
590.55	5251.7	
590.74	6003.3	
590.94	8593.3	
591.13	7516.7	
591.32	5692.7	
591.51	5448.3	
591.7	7866.9	
591.89	7454.6	
592.09	5449.6	
592.28	5799.2	
592.47	6861.4	
592.66	8361.2	
592.85	5479	
593.05	5601.2	
593.24	7404.8	
593.43	8067.6	
593.62	5681.1	
593.81	6089.3	
594	7369.3	
594.19	7645.1	
594.39	5520	
594.58	5571.8	
594.77	7651.2	
594.96	8094.3	
595.15	5614.8	
595.34	6071.5	
595.54	7671	
595.73	6979.5	
595.92	5066.7	
596.11	6040.1	
596.3	8017.8	
596.49	6991.1	
596.68	5726.1	
596.88	6139.8	
597.07	7794.6	
597.26	6944	
597.45	5384.8	
597.64	6324.8	
597.83	7076.4	
598.02	7610.3	
598.22	5483.8	
598.41	6010.8	
598.6	7461.4	
598.79	7014.3	
598.98	5530.2	
599.17	6260	
599.36	7430.7	
599.55	8362.5	
599.74	7069.6	
599.94	6873	
600.13	7871.7	
600.32	6948.1	
600.51	5284.4	
600.7	5401.9	
600.89	8308.6	
601.08	8366.6	
601.27	5176.6	
601.47	5958.2	
601.66	7729.7	
601.85	8284.7	
602.04	5782.1	
602.23	5960.3	
602.42	7075	
602.61	7539.9	
602.8	5715.9	
602.99	5451.7	
603.18	7281.2	
603.37	7431.4	
603.57	6007.4	
603.76	6415.6	
603.95	8069	
604.14	7718.8	
604.33	5581.4	
604.52	5798.5	
604.71	7516.7	
604.9	7103.7	
605.09	6318.7	
605.28	6218.3	
605.47	7970.7	
605.66	7675.8	
605.86	6111.8	
606.05	5587.5	
606.24	7922.9	
606.43	6762.4	
606.62	5793.7	
606.81	6374.6	
607	7801.4	
607.19	7339.9	
607.38	5320.6	
607.57	5556.8	
607.76	6986.3	
607.95	6599.9	
608.14	5915.9	
608.33	6332.3	
608.52	7088.7	
608.72	7766.6	
608.91	5304.9	
609.1	5273.5	
609.29	7176.8	
609.48	6784.9	
609.67	6092.7	
609.86	5295.4	
610.05	6885.3	
610.24	7111.2	
610.43	5155.4	
610.62	4917.2	
610.81	8060.8	
611	7850.5	
611.19	5296	
611.38	5834	
611.57	7370.6	
611.76	8354.3	
611.95	5111	
612.14	5034.6	
612.33	7145.4	
612.52	6769.2	
612.71	5578	
612.9	4896	
613.09	6542.6	
613.28	8345.5	
613.47	5488.6	
613.66	6023.8	
613.85	7334.5	
614.04	6804.7	
614.24	5341.8	
614.43	4732.2	
614.62	7327.6	
614.81	7286.7	
615	5784.1	
615.19	5784.1	
615.38	6742.6	
615.57	7090.1	
615.76	5637.4	
615.95	6474.3	
616.14	7438.2	
616.33	7083.2	
616.52	5969.1	
616.71	6089.3	
616.9	7315.3	
617.09	7185.6	
617.28	5498.8	
617.47	6354.8	
617.66	6647.7	
617.85	6619	
618.04	6076.3	
618.22	5624.4	
618.41	6864.8	
618.6	7612.3	
618.79	5573.2	
618.98	5388.9	
619.17	7802.8	
619.36	6535.8	
619.55	5497.4	
619.74	5498.8	
619.93	7343.3	
620.12	6827.9	
620.31	6036	
620.5	6042.2	
620.69	7618.4	
620.88	8058.8	
621.07	6612.2	
621.26	5838.8	
621.45	7357.7	
621.64	7438.2	
621.83	5931.6	
622.02	5319.3	
622.21	7505.8	
622.4	7224.6	
622.59	6356.2	
622.78	6210.8	
622.97	6971.3	
623.16	7789.8	
623.35	5995.8	
623.54	5232.6	
623.72	7143.3	
623.91	7225.2	
624.1	6184.2	
624.29	5152.7	
624.48	8052.6	
624.67	7514.7	
624.86	6081.8	
625.05	5313.1	
625.24	8100.4	
625.43	6940.6	
625.62	7311.2	
625.81	5466	
626	7804.1	
626.19	7125.6	
626.38	6055.8	
626.56	5655.1	
626.75	6972	
626.94	7540.6	
627.13	6122.1	
627.32	5123.3	
627.51	7522.9	
627.7	8497	
627.89	5192.3	
628.08	6040.8	
628.27	6909.8	
628.46	7133.8	
628.65	5503.6	
628.83	5207.3	
629.02	7473.7	
629.21	6944.7	
629.4	5749.3	
629.59	5971.2	
629.78	6901.7	
629.97	7706.5	
630.16	5960.3	
630.35	5543.9	
630.54	8046.5	
630.72	7780.9	
630.91	5603.9	
631.1	6025.8	
631.29	7329.7	
631.48	7378.8	
631.67	6040.1	
631.86	5671.5	
632.05	7062.1	
632.24	7153.6	
632.42	5294	
632.61	5779.4	
632.8	7183.6	
632.99	6843.6	
633.18	5827.2	
633.37	6129.6	
633.56	7411.6	
633.75	7266.9	
633.93	5821.7	
634.12	5656.5	
634.31	8010.3	
634.5	7692.2	
634.69	5639.4	
634.88	6017.6	
635.07	7169.9	
635.25	7563.8	
635.44	6350.1	
635.63	6452.5	
635.82	7140.6	
636.01	6570.6	
636.2	6266.1	
636.39	5892.7	
636.57	8015.7	
636.76	7633.5	
636.95	5477.6	
637.14	6570.6	
637.33	7412.3	
637.52	8111.3	
637.7	5265.3	
637.89	6169.2	
638.08	7130.3	
638.27	8248.5	
638.46	6111.1	
638.65	6429.9	
638.83	8194.6	
639.02	6937.8	
639.21	6128.2	
639.4	6349.4	
639.59	7277.8	
639.78	6961	
639.96	5408.7	
640.15	5582.1	
640.34	7211.6	
640.53	7270.3	
640.72	5302.9	
640.91	5459.9	
641.09	6750.8	
641.28	7748.8	
641.47	5492	
641.66	6161.7	
641.85	7314	
642.03	7514	
642.22	5967.1	
642.41	5627.1	
642.6	6876.4	
642.79	6462.7	
642.97	5494.7	
643.16	5935.7	
643.35	6813.6	
643.54	6689.3	
643.73	5383.4	
643.91	5939.1	
644.1	6593.1	
644.29	7066.9	
644.48	5480.4	
644.67	5439.4	
644.85	6719.4	
645.04	7003.4	
645.23	5179.3	
645.42	5395	
645.6	6685.3	
645.79	7537.2	
645.98	5336.3	
646.17	4664.6	
646.36	6453.8	
646.54	6905.1	
646.73	5961.6	
646.92	5025.7	
647.11	6559	
647.29	7384.3	
647.48	5087.2	
647.67	4866	
647.86	7578.2	
648.05	7602.1	
648.23	5357.5	
648.42	6350.1	
648.61	7105.1	
648.8	6898.9	
648.98	4977.2	
649.17	5266.7	
649.36	6528.9	
649.55	6173.9	
649.73	5062.6	
649.92	5656.5	
650.11	6479.1	
650.3	6768.5	
650.48	5186.1	
650.67	5113.1	
650.86	7043.6	
651.05	6137.1	
651.23	5114.5	
651.42	5058.5	
651.61	6561	
651.79	6578.1	
651.98	5245.5	
652.17	4945.2	
652.36	6916	
652.54	6133.7	
652.73	5021.6	
652.92	4955.4	
653.11	6916.7	
653.29	6951.5	
653.48	4465.9	
653.67	5229.8	
653.85	6705	
654.04	7555	
654.23	5430.5	
654.42	5049.6	
654.6	6421.7	
654.79	6898.9	
654.98	4702.8	
655.16	5116.5	
655.35	6081.1	
655.54	5941.2	
655.73	4748.6	
655.91	4607.2	
656.1	6825.9	
656.29	5849	
656.47	4262.5	
656.66	5605.3	
656.85	6155.5	
657.03	6139.1	
657.22	4731.5	
657.41	4709	
657.59	6274.3	
657.78	6131.6	
657.97	4436.6	
658.16	5069.4	
658.34	6756.2	
658.53	7122.8	
658.72	5743.9	
658.9	6136.4	
659.09	6351.4	
659.28	6407.4	
659.46	4877.6	
659.65	4762.9	
659.84	6190.3	
660.02	6601.3	
660.21	4887.8	
660.4	4664.6	
660.58	6938.5	
660.77	6412.2	
660.96	5201.2	
661.14	4414.7	
661.33	7325.6	
661.52	7232.1	
661.7	4412.7	
661.89	7105.1	
662.08	6099.5	
662.26	5720	
662.45	4674.1	
662.64	4699.4	
662.82	6666.1	
663.01	6056.5	
663.2	4791.6	
663.38	5370.5	
663.57	6606.7	
663.75	6497.5	
663.94	5009.3	
664.13	5991.7	
664.31	6101.6	
664.5	6609.5	
664.69	5236.7	
664.87	5584.1	
665.06	5891.3	
665.25	6489.3	
665.43	5755.5	
665.62	5731.6	
665.8	6737.1	
665.99	6109.8	
666.18	4958.1	
666.36	4968.4	
666.55	6659.3	
666.74	6548.7	
666.92	4702.1	
667.11	5894.7	
667.29	6222.4	
667.48	6605.4	
667.67	5665.4	
667.85	4858.5	
668.04	6197.8	
668.22	6164.4	
668.41	5028.4	
668.6	5206.6	
668.78	6019	
668.97	6210.8	
669.15	5319.9	
669.34	4448.9	
669.53	6033.3	
669.71	6279.8	
669.9	4616.8	
670.08	5075.5	
670.27	5984.2	
670.46	6486.6	
670.64	5322	
670.83	5427.8	
671.01	5877.7	
671.2	6445.6	
671.38	4717.2	
671.57	4529.4	
671.76	6860.7	
671.94	7312.6	
672.13	4516.5	
672.31	5481.7	
672.5	6654.5	
672.69	5974.6	
672.87	4657.8	
673.06	4901.5	
673.24	6412.2	
673.43	6124.8	
673.61	5266.7	
673.8	4868	
673.98	6574	
674.17	6701.6	
674.36	5369.8	
674.54	5163.6	
674.73	6337.1	
674.91	6576	
675.1	5005.9	
675.28	4577.2	
675.47	6255.9	
675.65	6606.7	
675.84	4827.7	
676.03	5117.9	
676.21	6005.3	
676.4	5707	
676.58	5530.2	
676.77	5379.3	
676.95	7177.4	
677.14	5982.1	
677.32	4644.1	
677.51	4449.6	
677.69	6626.5	
677.88	5827.8	
678.06	4531.5	
678.25	4707.6	
678.44	6210.1	
678.62	6038.1	
678.81	4425	
678.99	5167.7	
679.18	6870.9	
679.36	6516.6	
679.55	4810	
679.73	5335	
679.92	6485.9	
680.1	6054.5	
680.29	5841.5	
680.47	4885.8	
680.66	6017.6	
680.84	6733	
681.03	4330.8	
681.21	5154.1	
681.4	6028.5	
681.58	5931.6	
681.77	4672.1	
681.95	4615.4	
682.14	6758.3	
682.32	6934.4	
682.51	5341.8	
682.69	4491.2	
682.88	6020.3	
683.06	6490.7	
683.25	5142.4	
683.43	5513.8	
683.62	6284.5	
683.8	6492.7	
683.99	5627.1	
684.17	5100.8	
684.36	7275.8	
684.54	6249.7	
684.73	4510.3	
684.91	4655.7	
685.1	6546	
685.28	6006.7	
685.46	5160.9	
685.65	5126.7	
685.83	6574.7	
686.02	6123.4	
686.2	4652.3	
686.39	4747.2	
686.57	5803.9	
686.76	6997.2	
686.94	4638	
687.13	4756.1	
687.31	6539.2	
687.5	6169.2	
687.68	4342.4	
687.86	5324.7	
688.05	7533.8	
688.23	5760.3	
688.42	5304.2	
688.6	4700.8	
688.79	6087.9	
688.97	6095.4	
689.16	5081.7	
689.34	4201.7	
689.52	6645.7	
689.71	6885.3	
689.89	5319.3	
690.08	4689.8	
690.26	6357.6	
690.45	6208.8	
690.63	5514.5	
690.81	4866	
691	6259.3	
691.18	6105	
691.37	5077.6	
691.55	6765.1	
691.74	6072.9	
691.92	7708.6	
692.1	5023	
692.29	4582	
692.47	6328.2	
692.66	5772.5	
692.84	4772.4	
693.02	5185.5	
693.21	5856.5	
693.39	6279.8	
693.58	5302.9	
693.76	4848.9	
693.94	7131.7	
694.13	7037.5	
694.31	4844.8	
694.5	5627.8	
694.68	6062	
694.86	6428.6	
695.05	5099.4	
695.23	5237.3	
695.42	6737.8	
695.6	8463.6	
695.78	5660.6	
695.97	4942.4	
696.15	6851.1	
696.34	6303.6	
696.52	4884.4	
696.7	5489.9	
696.89	6613.6	
697.07	6159.6	
697.25	5469.4	
697.44	6486.6	
697.62	6586.3	
697.81	6888.7	
697.99	5167	
698.17	5546.6	
698.36	6049	
698.54	6682.5	
698.72	5492.7	
698.91	4706.9	
699.09	6340.5	
699.28	6268.1	
699.46	5214.8	
699.64	5081	
699.83	6206	
700.01	7078.5	
700.19	5806.7	
700.38	4543.1	
700.56	7137.9	
700.74	6348	
700.93	4874.8	
701.11	5492	
701.29	6746.7	
701.48	7572.7	
701.66	4984.1	
701.84	5079.6	
702.03	6500.3	
702.21	7060	
702.39	4814.8	
702.58	5199.8	
702.76	6794.5	
702.94	6853.9	
703.13	4773.8	
703.31	6617	
703.49	6345.3	
703.68	7384.3	
703.86	4952	
704.04	5707.7	
704.23	6716.7	
704.41	6941.9	
704.59	5101.5	
704.78	6050.4	
704.96	7735.2	
705.14	7002.7	
705.33	4999.1	
705.51	5551.4	
705.69	6591	
705.87	7266.9	
706.06	5812.8	
706.24	4891.9	
706.42	6878.4	
706.61	7064.1	
706.79	5828.5	
706.97	4963.6	
707.16	6486.6	
707.34	6931.7	
707.52	5751.4	
707.7	5154.1	
707.89	6476.4	
708.07	6324.8	
708.25	5861.3	
708.44	6265.4	
708.62	6427.9	
708.8	7396.6	
708.98	6057.9	
709.17	5279.7	
709.35	6831.3	
709.53	6850.5	
709.72	5054.4	
709.9	5373.9	
710.08	7112.6	
710.26	7127.6	
710.45	6336.4	
710.63	5271.5	
710.81	6844.3	
710.99	6805.4	
711.18	5730.2	
711.36	5504.9	
711.54	6720.1	
711.72	7243	
711.91	5509.7	
712.09	5018.2	
712.27	6745.3	
712.45	7292.1	
712.64	5653.8	
712.82	4814.8	
713	6391	
713.18	6513.2	
713.37	4962.2	
713.55	5958.9	
713.73	7169.3	
713.91	6163	
714.1	5307.7	
714.28	4885.1	
714.46	6917.4	
714.64	6277	
714.83	4384	
715.01	4978.6	
715.19	6318.7	
715.37	5763	
715.55	4782	
715.74	4932.2	
715.92	6902.3	
716.1	5310.4	
716.28	5793.7	
716.47	5137.7	
716.65	5972.6	
716.83	6023.8	
717.01	4924	
717.19	4928.8	
717.38	7640.3	
717.56	5799.8	
717.74	5152	
717.92	4437.3	
718.1	6741.2	
718.29	6072.9	
718.47	4140.3	
718.65	4733.5	
718.83	6591.7	
719.01	6598.6	
719.2	4155.3	
719.38	4985.4	
719.56	6386.2	
719.74	7555.6	
719.92	4799.8	
720.11	5522.7	
720.29	6473.6	
720.47	5815.5	
720.65	4408.6	
720.83	5079.6	
721.02	6115.2	
721.2	5872.9	
721.38	5033.2	
721.56	4446.1	
721.74	5429.2	
721.92	5599.1	
722.11	5427.1	
722.29	5126.1	
722.47	6580.1	
722.65	5907.7	
722.83	4462.5	
723.01	5115.8	
723.2	5961.6	
723.38	6219.7	
723.56	4100.7	
723.74	4975.2	
723.92	5623.7	
724.1	6446.3	
724.29	4447.5	
724.47	5288.5	
724.65	5715.2	
724.83	5559.6	
725.01	4401.1	
725.19	5035.3	
725.37	5655.1	
725.56	5580	
725.74	4195.6	
725.92	4400.4	
726.1	5599.1	
726.28	5908.4	
726.46	4767	
726.64	4557.4	
726.83	5819	
727.01	6024.4	
727.19	4201.7	
727.37	4842.1	
727.55	5948	
727.73	6296.1	
727.91	4159.4	
728.09	4061.8	
728.28	6299.6	
728.46	6634.1	
728.64	4941.7	
728.82	4840.7	
729	7116	
729.18	6569.2	
729.36	4285.7	
729.54	6060.6	
729.72	7398.6	
729.91	6039.5	
730.09	5726.1	
730.27	4838	
730.45	5978.7	
730.63	6481.1	
730.81	5296.7	
730.99	4489.1	
731.17	6915.3	
731.35	5833.3	
731.53	4889.9	
731.71	4667.3	
731.9	6634.7	
732.08	6716.7	
732.26	4919.9	
732.44	4573.1	
732.62	6754.9	
732.8	6442.2	
732.98	5107.6	
733.16	4442	
733.34	6457.9	
733.52	5383.4	
733.7	4796.3	
733.88	4911	
734.07	6266.1	
734.25	6090	
734.43	4303.5	
734.61	5614.2	
734.79	7247.8	
734.97	6015.6	
735.15	4485.7	
735.33	4710.3	
735.51	6225.8	
735.69	5999.9	
735.87	5557.5	
736.05	4872.1	
736.23	6032.6	
736.41	5832.6	
736.59	4698	
736.77	4797	
736.95	6396.5	
737.13	6012.8	
737.32	4451.6	
737.5	4623.6	
737.68	6847.7	
737.86	5806	
738.04	4254.3	
738.22	5744.6	
738.4	5753.4	
738.58	5988.3	
738.76	4727.4	
738.94	3947.1	
739.12	5797.8	
739.3	5749.3	
739.48	5251.7	
739.66	4988.2	
739.84	6058.6	
740.02	5917.9	
740.2	4038.6	
740.38	4323.9	
740.56	6260.6	
740.74	5412.8	
740.92	4792.2	
741.1	4713.7	
741.28	5817.6	
741.46	5664.7	
741.64	4438.6	
741.82	4865.3	
742	5902.9	
742.18	5824.4	
742.36	4558.1	
742.54	4313.7	
742.72	6311.2	
742.9	5274.2	
743.08	4866	
743.26	3891.8	
743.44	6375.3	
743.62	6284.5	
743.8	4954	
743.98	4214	
744.16	5983.5	
744.34	5782.8	
744.52	4832.5	
744.7	4833.2	
744.88	6144.6	
745.06	5798.5	
745.24	4863.9	
745.42	5033.2	
745.6	6152.1	
745.78	6073.6	
745.96	3961.5	
746.14	4214	
746.32	6752.2	
746.5	6111.1	
746.68	4655	
746.86	4183.3	
747.03	6410.8	
747.21	5215.5	
747.39	4617.5	
747.57	4252.3	
747.75	5844.9	
747.93	6195.8	
748.11	4209.3	
748.29	4170.3	
748.47	7110.5	
748.65	5605.3	
748.83	4764.9	
749.01	4483.7	
749.19	5975.3	
749.37	5272.8	
749.55	4390.8	
749.73	4552.6	
749.91	5745.9	
750.09	5504.3	
750.26	4449.6	
750.44	4068.6	
750.62	5737.7	
750.8	5664.7	
750.98	3962.1	
751.16	4273.4	
751.34	5853.8	
751.52	5276.9	
751.7	4814.8	
751.88	3891.1	
752.06	6170.5	
752.24	5922	
752.42	3908.2	
752.59	4173.1	
752.77	5677.7	
752.95	6629.3	
753.13	4777.2	
753.31	4263.2	
753.49	5459.9	
753.67	5737.7	
753.85	4468.7	
754.03	4087.1	
754.21	5986.2	
754.38	6205.3	
754.56	4210.6	
754.74	3516.4	
754.92	5422.3	
755.1	5848.3	
755.28	3549.1	
755.46	3567.6	
755.64	6472.3	
755.82	6645	
755.99	3751.9	
756.17	3835.8	
756.35	4578.6	
756.53	5785.5	
756.71	2990.7	
756.89	3639.2	
757.07	5453.7	
757.25	4810	
757.42	4077.5	
757.6	4739	
757.78	5518.6	
757.96	4740.4	
758.14	3828.3	
758.32	3462.4	
758.5	4442.7	
758.67	5069.4	
758.85	3691.8	
759.03	3809.2	
759.21	5217.5	
759.39	4807.3	
759.57	3417.4	
759.75	4306.2	
759.92	5778	
760.1	5293.3	
760.28	4487.1	
760.46	4785.4	
760.64	5008.6	
760.82	4788.8	
760.99	4229.7	
761.17	3750.5	
761.35	5626.5	
761.53	4794.3	
761.71	3834.5	
761.89	4410.6	
762.06	5523.4	
762.24	5141.1	
762.42	3964.2	
762.6	3787.4	
762.78	5085.1	
762.96	5614.2	
763.13	4190.8	
763.31	3940.3	
763.49	5685.2	
763.67	5083.7	
763.85	4635.9	
764.02	5050.3	
764.2	5947.3	
764.38	5281.7	
764.56	3859.1	
764.74	4482.3	
764.91	6027.9	
765.09	5100.8	
765.27	3713.7	
765.45	3431	
765.63	6124.1	
765.8	5872.9	
765.98	3321.1	
766.16	3507.5	
766.34	4847.5	
766.52	4641.4	
766.69	4280.3	
766.87	3422.2	
767.05	5143.8	
767.23	5730.2	
767.41	3668.6	
767.58	3880.9	
767.76	5575.3	
767.94	5661.3	
768.12	3704.8	
768.29	4252.3	
768.47	5180	
768.65	5739.8	
768.83	3421.5	
769	4318.5	
769.18	4870.1	
769.36	5362.3	
769.54	4283	
769.72	3512.9	
769.89	5675.6	
770.07	5681.7	
770.25	3734.1	
770.43	4702.1	
770.6	6312.5	
770.78	6490	
770.96	3848.1	
771.14	4321.2	
771.31	5606	
771.49	5067.4	
771.67	3248.1	
771.85	3368.9	
772.02	4516.5	
772.2	5024.3	
772.38	3893.2	
772.55	3571	
772.73	5253	
772.91	5072.1	
773.09	3864.5	
773.26	3919.8	
773.44	5236	
773.62	4984.1	
773.8	3530	
773.97	3329.3	
774.15	5278.3	
774.33	5014.1	
774.5	3405.1	
774.68	3747.8	
774.86	5356.1	
775.04	5001.1	
775.21	3506.8	
775.39	3442.6	
775.57	5173.9	
775.74	5451	
775.92	3257	
776.1	3245.3	
776.27	5150.6	
776.45	6138.4	
776.63	3460.4	
776.81	3147	
776.98	4918.5	
777.16	5728.2	
777.34	3631.7	
777.51	3797.6	
777.69	4878.3	
777.87	4714.4	
778.04	3629.7	
778.22	4097.3	
778.4	4750.6	
778.57	5251	
778.75	3016.7	
778.93	3297.2	
779.1	4633.9	
779.28	4468.7	
779.46	2999.6	
779.64	3436.5	
779.81	5372.5	
779.99	6057.9	
780.17	4017.4	
780.34	4131.4	
780.52	4974.5	
780.69	5074.9	
780.87	3703.4	
781.05	3312.9	
781.22	5028.4	
781.4	5046.9	
781.58	3448.1	
781.75	2785.2	
781.93	5039.4	
782.11	4556.7	
782.28	4147.8	
782.46	3452.9	
782.64	4463.9	
782.81	5199.8	
782.99	3556	
783.17	3452.2	
783.34	5046.9	
783.52	4506.2	
783.69	3620.8	
783.87	4282.3	
784.05	4640.7	
784.22	4543.8	
784.4	4233.2	
784.58	3804.4	
784.75	5348.6	
784.93	4681	
785.1	3485.6	
785.28	3937.6	
785.46	5058.5	
785.63	4521.9	
785.81	3418.7	
785.99	3330	
786.16	4743.8	
786.34	4980.7	
786.51	3310.9	
786.69	3614	
786.87	4303.5	
787.04	4783.4	
787.22	3288.4	
787.39	3966.9	
787.57	4597	
787.75	5354.1	
787.92	4074.8	
788.1	4059.8	
788.27	4545.8	
788.45	4323.9	
788.63	3961.5	
788.8	2838.5	
788.98	5010.7	
789.15	4282.3	
789.33	2983.2	
789.5	3465.2	
789.68	5276.9	
789.86	5382.1	
790.03	3760.8	
790.21	3354.6	
790.38	5309.7	
790.56	4663.9	
790.73	3224.2	
790.91	3237.2	
791.09	4620.2	
791.26	5157.5	
791.44	3510.9	
791.61	3020.1	
791.79	4545.8	
791.96	4592.2	
792.14	3079.5	
792.32	2769.5	
792.49	4583.4	
792.67	4656.4	
792.84	3218.7	
793.02	3020.1	
793.19	4900.8	
793.37	5408	
793.54	2755.2	
793.72	3027.6	
793.89	5547.9	
794.07	4532.8	
794.25	3440.6	
794.42	2860.3	
794.6	5395	
794.77	5040.7	
794.95	3728.7	
795.12	3300	
795.3	4625	
795.47	5024.3	
795.65	3639.2	
795.82	3538.2	
796	4445.5	
796.17	5907	
796.35	3415.3	
796.52	3955.3	
796.7	4992.9	
796.87	5018.2	
797.05	3347.7	
797.22	3981.3	
797.4	5099.4	
797.57	5838.1	
797.75	3512.3	
797.92	3347.7	
798.1	5304.2	
798.27	4397	
798.45	2875.3	
798.62	3074	
798.8	4800.4	
798.97	5188.2	
799.15	3618.1	
799.32	3492.5	
799.5	4235.2	
799.67	4842.8	
799.85	3790.8	
800.02	2822.8	
800.2	4577.9	
800.37	4744.5	
800.55	3882.3	
800.72	3228.3	
800.9	5153.4	
801.07	5468.8	
801.25	4346.5	
801.42	3596.9	
801.6	5215.5	
801.77	4891.9	
801.95	3375.1	
802.12	3188.7	
802.29	4954	
802.47	4878.9	
802.64	3606.5	
802.82	2821.4	
802.99	4524.6	
803.17	5266	
803.34	3523.9	
803.52	3179.8	
803.69	5820.3	
803.87	4347.8	
804.04	3484.3	
804.21	3560.1	
804.39	5451.7	
804.56	4645.5	
804.74	2966.8	
804.91	3559.4	
805.09	4569	
805.26	4614.8	
805.44	3069.2	
805.61	3340.2	
805.78	5104.2	
805.96	5073.5	
806.13	3560.1	
806.31	3826.3	
806.48	4182.6	
806.66	4592.2	
806.83	3560.1	
807	3450.8	
807.18	4592.9	
807.35	4852.3	
807.53	3441.3	
807.7	2856.2	
807.87	5399.8	
808.05	4639.3	
808.22	3793.5	
808.4	2843.3	
808.57	4535.6	
808.74	4259.8	
808.92	3226.9	
809.09	4014	
809.27	4530.1	
809.44	4986.1	
809.61	2856.9	
809.79	3150.5	
809.96	5535.7	
810.14	5089.2	
810.31	2811.9	
810.48	3397.6	
810.66	4612	
810.83	5200.5	
811.01	3218.7	
811.18	3536.8	
811.35	5143.1	
811.53	4080.2	
811.7	3812	
811.87	3605.8	
812.05	4649.6	
812.22	4549.2	
812.39	3063.1	
812.57	3072.6	
812.74	4581.3	
812.92	5916.6	
813.09	3382.6	
813.26	3590.8	
813.44	5688.6	
813.61	4484.4	
813.78	2820.1	
813.96	3717.7	
814.13	4581.3	
814.3	4352.6	
814.48	3988.8	
814.65	3370.3	
814.82	5487.2	
815	4323.3	
815.17	3453.6	
815.34	4157.4	
815.52	4493.9	
815.69	4539	
815.87	3396.9	
816.04	3365.5	
816.21	4554.7	
816.38	4072.7	
816.56	3326.6	
816.73	3069.9	
816.9	5655.8	
817.08	5132.9	
817.25	3139.5	
817.42	3781.9	
817.6	4244.8	
817.77	4524	
817.94	3544.4	
818.12	3061	
818.29	4379.2	
818.46	6395.1	
818.64	3258.3	
818.81	3032.4	
818.98	4397	
819.16	5963.7	
819.33	3667.9	
819.5	3437.2	
819.67	4873.5	
819.85	5421.7	
820.02	3405.1	
820.19	3521.1	
820.37	4707.6	
820.54	4444.8	
820.71	3493.2	
820.88	4248.2	
821.06	4740.4	
821.23	4394.9	
821.4	3463.1	
821.58	3463.8	
821.75	5113.1	
821.92	4646.2	
822.09	2871.3	
822.27	2962.7	
822.44	4597.7	
822.61	4481.6	
822.79	2938.8	
822.96	5344.5	
823.13	4885.1	
823.3	4327.4	
823.48	3297.9	
823.65	2994.8	
823.82	5176.6	
823.99	4167.6	
824.17	4119.8	
824.34	3012.6	
824.51	5856.5	
824.68	4608.6	
824.86	3172.3	
825.03	3470.6	
825.2	4539	
825.37	5388.9	
825.55	3164.8	
825.72	3390.1	
825.89	5827.8	
826.06	5433.9	
826.24	3384.6	
826.41	3351.8	
826.58	5475.6	
826.75	4813.4	
826.92	2777	
827.1	3018.7	
827.27	7202.7	
827.44	5761.6	
827.61	3263.8	
827.79	3807.2	
827.96	4407.2	
828.13	4524	
828.3	3373.7	
828.47	2882.9	
828.65	4833.9	
828.82	4782	
828.99	4239.3	
829.16	3731.4	
829.34	5102.9	
829.51	4986.8	
829.68	3444	
829.85	3562.8	
830.02	5421.7	
830.2	5122.7	
830.37	2745.6	
830.54	4064.5	
830.71	5759.6	
830.88	4550.6	
831.05	2766.8	
831.23	3119.1	
831.4	5575.3	
831.57	6060.6	
831.74	3205.8	
831.91	2801.6	
832.09	4840	
832.26	5150	
832.43	3306.1	
832.6	3678.8	
832.77	4750.6	
832.94	5376.6	
833.12	2708.8	
833.29	3232.4	
833.46	4891.9	
833.63	6234	
833.8	3585.3	
833.97	3321.8	
834.15	5126.7	
834.32	4963.6	
834.49	3435.1	
834.66	3502	
834.83	5252.4	
835	4374.5	
835.17	3175	
835.35	3161.4	
835.52	4995	
835.69	4941.1	
835.86	3345.7	
836.03	2809.1	
836.2	5115.8	
836.37	4758.8	
836.55	3288.4	
836.72	3050.1	
836.89	4706.9	
837.06	5175.2	
837.23	3388	
837.4	3626.3	
837.57	5732.9	
837.75	6242.9	
837.92	3041.2	
838.09	3186	
838.26	4784.7	
838.43	5287.2	
838.6	3465.8	
838.77	3102.7	
838.94	5929.6	
839.11	5766.4	
839.29	3318.4	
839.46	2660.3	
839.63	5145.9	
839.8	4878.9	
839.97	3218	
840.14	3153.9	
840.31	4890.5	
840.48	5064.6	
840.65	2739.5	
840.82	3175	
841	5136.3	
841.17	4990.9	
841.34	2959.3	
841.51	3030.3	
841.68	5002.5	
841.85	4800.4	
842.02	3125.9	
842.19	2626.2	
842.36	4902.8	
842.53	4900.8	
842.7	3018.7	
842.87	3563.5	
843.05	6245.6	
843.22	4811.4	
843.39	2851.5	
843.56	3045.3	
843.73	4666.6	
843.9	5159.5	
844.07	4694.6	
844.24	3899.3	
844.41	7038.9	
844.58	4483	
844.75	2876.7	
844.92	3138.9	
845.09	5066	
845.26	5056.4	
845.43	2945	
845.6	3121.1	
845.77	5061.2	
845.94	4861.2	
846.12	3279.5	
846.29	3442	
846.46	5237.3	
846.63	5042.1	
846.8	3016.7	
846.97	3435.8	
847.14	5438.7	
847.31	5041.4	
847.48	3284.3	
847.65	3595.6	
847.82	5278.3	
847.99	5233.9	
848.16	3863.2	
848.33	3569.6	
848.5	4713.1	
848.67	5459.9	
848.84	2973.7	
849.01	3064.4	
849.18	4687.1	
849.35	4411.3	
849.52	3607.8	
849.69	2925.9	
849.86	5210	
850.03	5373.2	
850.2	2957.9	
850.37	3562.8	
850.54	5354.8	
850.71	4835.3	
850.88	3483.6	
851.05	2927.2	
851.22	4965.6	
851.39	5451	
851.56	2783.2	
851.73	3327.9	
851.9	4474.1	
852.07	5292.6	
852.24	3248.8	
852.41	2936.8	
852.58	4969.7	
852.75	4590.2	
852.92	3276.8	
853.09	2903.3	
853.26	4717.8	
853.43	5505.6	
853.6	2954.5	
853.77	2558.6	
853.94	5556.8	
854.11	4462.5	
854.28	4272.1	
854.44	3241.3	
854.61	5810.1	
854.78	5242.8	
854.95	2894.5	
855.12	3646.1	
855.29	4211.3	
855.46	5517.2	
855.63	2955.9	
855.8	3994.2	
855.97	4677.6	
856.14	5357.5	
856.31	4064.5	
856.48	3134.8	
856.65	4770.4	
856.82	4487.8	
856.99	2802.3	
857.16	3157.3	
857.33	6089.3	
857.49	4764.3	
857.66	3146.4	
857.83	3389.4	
858	4782	
858.17	4947.9	
858.34	2785.9	
858.51	2915.6	
858.68	5622.4	
858.85	5559.6	
859.02	3404.4	
859.19	3586	
859.36	4500.1	
859.52	4509.6	
859.69	2964.1	
859.86	3386.7	
860.03	4557.4	
860.2	5462.6	
860.37	2729.9	
860.54	2944.3	
860.71	5275.6	
860.88	5552	
861.05	3224.2	
861.21	3657	
861.38	5570.5	
861.55	4434.5	
861.72	2736.8	
861.89	3233.1	
862.06	5262.6	
862.23	5604.6	
862.4	2855.6	
862.56	3071.3	
862.73	5129.5	
862.9	4864.6	
863.07	3413.3	
863.24	2712.9	
863.41	4430.4	
863.58	4489.8	
863.75	3019.4	
863.91	3379.8	
864.08	5465.3	
864.25	5162.9	
864.42	3635.8	
864.59	4040.6	
864.76	5754.1	
864.93	4485.7	
865.09	2883.5	
865.26	3124.5	
865.43	5464	
865.6	5708.4	
865.77	2631	
865.94	2889	
866.1	5420.3	
866.27	5197.7	
866.44	4302.8	
866.61	2784.6	
866.78	4821.6	
866.95	5115.8	
867.11	2872.6	
867.28	2644.6	
867.45	5311.7	
867.62	4584	
867.79	3315	
867.96	2910.8	
868.12	4517.8	
868.29	5231.9	
868.46	2927.9	
868.63	3855	
868.8	5345.9	
868.97	5173.2	
869.13	3065.1	
869.3	3065.1	
869.47	5083.7	
869.64	5287.9	
869.81	2947	
869.97	2920.4	
870.14	5003.2	
870.31	5520.6	
870.48	2873.3	
870.65	3629.7	
870.81	4773.1	
870.98	4828.4	
871.15	3293.1	
871.32	3056.9	
871.48	5133.6	
871.65	5614.2	
871.82	2940.9	
871.99	3267.2	
872.16	5917.3	
872.32	5444.2	
872.49	2966.1	
872.66	2951.8	
872.83	5239.4	
872.99	4664.6	
873.16	3289	
873.33	2860.3	
873.5	4864.6	
873.67	4953.4	
873.83	3082.9	
874	3808.5	
874.17	5057.8	
874.34	5802.6	
874.5	3739.6	
874.67	3615.3	
874.84	5539.1	
875.01	4414.1	
875.17	4024.3	
875.34	2930	
875.51	4977.9	
875.68	5870.8	
875.84	3517	
876.01	4173.8	
876.18	5184.1	
876.34	5154.1	
876.51	2937.5	
876.68	2882.2	
876.85	4776.5	
877.01	5388.2	
877.18	4047.5	
877.35	2904	
877.52	4939	
877.68	4483	
877.85	2877.4	
878.02	2887	
878.18	4833.9	
878.35	4703.5	
878.52	2407	
878.69	3282.9	
878.85	5274.2	
879.02	5124	
879.19	4102.1	
879.35	3116.3	
879.52	5209.3	
879.69	5280.3	
879.86	2619.4	
880.02	3239.2	
880.19	4872.8	
880.36	5814.2	
880.52	3342.3	
880.69	3487	
880.86	5277.6	
881.02	5344.5	
881.19	3196.2	
881.36	3137.5	
881.52	5171.1	
881.69	4614.8	
881.86	3153.2	
882.02	3104	
882.19	5386.8	
882.36	6243.6	
882.52	2960	
882.69	4089.8	
882.86	5071.5	
883.02	4984.1	
883.19	3528	
883.36	3276.8	
883.52	5289.9	
883.69	5915.9	
883.86	2946.3	
884.02	2684.9	
884.19	5288.5	
884.36	4926	
884.52	3291.1	
884.69	3176.4	
884.86	4666.6	
885.02	5670.1	
885.19	3241.9	
885.36	3381.2	
885.52	4866	
885.69	4988.9	
885.86	4208.6	
886.02	3735.5	
886.19	5248.3	
886.35	4724	
886.52	3190.1	
886.69	3997.6	
886.85	4583.4	
887.02	5535.7	
887.19	5535.7	
887.35	5535.7	
887.52	5535.7	
887.68	5535.7	
887.85	5535.7	
888.02	5535.7	
888.18	5535.7	
888.35	5535.7	
888.51	5535.7	
888.68	5535.7	
888.85	5535.7	
889.01	5535.7	
889.18	5535.7	
889.35	5535.7	
889.51	5535.7	
889.68	5535.7	
889.84	5535.7	
890.01	5535.7	
890.17	5535.7	
890.34	5535.7	
890.51	5535.7	
890.67	5535.7	
890.84	5535.7	
891	5535.7	
891.17	5535.7	
891.34	5535.7	
891.5	5535.7	
891.67	5535.7	
891.83	5535.7	
892	5535.7	
892.16	5535.7	
892.33	5535.7	
892.5	5535.7	
892.66	5535.7	
892.83	5535.7	
892.99	5535.7	
893.16	5535.7	
893.32	5535.7	
893.49	5535.7	
893.65	5535.7	
893.82	5535.7	
893.99	5535.7	
894.15	5535.7	
894.32	5535.7	
894.48	5535.7	
894.65	5535.7	
894.81	5535.7	
894.98	5535.7	
895.14	5535.7	
895.31	5535.7	
895.47	5535.7	
895.64	5535.7	
895.81	5535.7	
895.97	5535.7	
896.14	5535.7	
896.3	5535.7	
896.47	5535.7	
896.63	5535.7	
896.8	5535.7	
896.96	5535.7	
897.13	5535.7	
897.29	5535.7	
897.46	5535.7	
897.62	5535.7	
897.79	5535.7	
897.95	5535.7	
898.12	5535.7	
898.28	5535.7	
898.45	5535.7	
898.61	5535.7	
898.78	5535.7	
898.94	5535.7	
899.11	5535.7	
899.27	5535.7	
899.44	5535.7	
899.6	5535.7	
899.77	5535.7	
899.93	5535.7	
900.1	5535.7	
900.26	5535.7	
900.43	5535.7	
900.59	5535.7	
900.76	5535.7	
900.92	5535.7	
901.09	5535.7	
901.25	5535.7	
901.42	5535.7	
901.58	5535.7	
901.75	5535.7	
901.91	5535.7	
902.07	5535.7	
902.24	5535.7	
902.4	5535.7	
902.57	5535.7	
902.73	5535.7	
902.9	5535.7	
903.06	5535.7	
903.23	5535.7	
903.39	5535.7	
903.56	5535.7	
903.72	5535.7	
903.88	5535.7	
904.05	5535.7	
904.21	5535.7	
904.38	5535.7	
904.54	5535.7	
904.71	5535.7	
904.87	5535.7	
905.03	5535.7	
905.2	5535.7	
905.36	5535.7	
905.53	5535.7	
905.69	5535.7	
905.86	5535.7	
906.02	5535.7	
906.18	5535.7	
906.35	5535.7	
906.51	5535.7	
906.68	5535.7	
906.84	5535.7	
907.01	5535.7	
907.17	5535.7	
907.33	5535.7	
907.5	5535.7	
907.66	5535.7	
907.83	5535.7	
907.99	5535.7	
908.15	5535.7	
908.32	5535.7	
908.48	5535.7	
908.65	5535.7	
908.81	5535.7	
908.97	5535.7	
909.14	5535.7	
909.3	5535.7	
909.47	5535.7	
909.63	5535.7	
909.79	5535.7	
909.96	5535.7	
910.12	5535.7	
910.28	5535.7	
910.45	5535.7	
910.61	5535.7	
910.78	5535.7	
910.94	5535.7	
911.1	5535.7	
911.27	5535.7	
911.43	5535.7	
911.59	5535.7	
911.76	5535.7	
911.92	5535.7	
912.08	5535.7	
912.25	5535.7	
912.41	5535.7	
912.57	5535.7	
912.74	5535.7	
912.9	5535.7	
913.07	5535.7	
913.23	5535.7	
913.39	5535.7	
913.56	5535.7	
913.72	5535.7	
913.88	5535.7	
914.05	5535.7	
914.21	5535.7	
914.37	5535.7	
914.54	5535.7	
914.7	5535.7	
914.86	5535.7	
915.03	5535.7	
915.19	5535.7	
