Wavelength	Intensities	
nm	a.u.	
179.22	1688.7	
179.44	1689.9	
179.65	1687.5	
179.86	1692.3	
180.08	1662.3	
180.29	3852.2	
180.51	2969.6	
180.72	4961.5	
180.94	5510.4	
181.15	2682.2	
181.37	2667.1	
181.58	4743.8	
181.79	4975.2	
182.01	2811.9	
182.22	2923.1	
182.44	4959.5	
182.65	4261.1	
182.87	3587.4	
183.08	3218.7	
183.29	5233.2	
183.51	4410.6	
183.72	2938.2	
183.94	4055	
184.15	4655	
184.37	4608.6	
184.58	2598.9	
184.79	3437.9	
185.01	4433.2	
185.22	5018.9	
185.44	3534.8	
185.65	3102	
185.86	4676.2	
186.08	4292.5	
186.29	2568.2	
186.51	2731.3	
186.72	4447.5	
186.94	5046.2	
187.15	3132.7	
187.36	3207.1	
187.58	6212.2	
187.79	4735.6	
188.01	3275.4	
188.22	4908.3	
188.43	5578	
188.65	4917.9	
188.86	2783.2	
189.08	3250.8	
189.29	4517.8	
189.5	4517.1	
189.72	2972.3	
189.93	2968.9	
190.15	5085.1	
190.36	5827.8	
190.57	3286.3	
190.79	3122.5	
191	5051.7	
191.22	5085.1	
191.43	3268.6	
191.64	2774.3	
191.86	5313.8	
192.07	5040.1	
192.29	2870.6	
192.5	2938.2	
192.71	5085.8	
192.93	4481	
193.14	3028.9	
193.35	3044.6	
193.57	4546.5	
193.78	5066.7	
194	2469.2	
194.21	2962	
194.42	4347.8	
194.64	4677.6	
194.85	3161.4	
195.07	3656.3	
195.28	4672.1	
195.49	4181.3	
195.71	3826.3	
195.92	2802.3	
196.13	4801.8	
196.35	4858.5	
196.56	4043.4	
196.78	3247.4	
196.99	5874.9	
197.2	5455.8	
197.42	3599.6	
197.63	3266.5	
197.84	4276.8	
198.06	4838	
198.27	2994.1	
198.48	3777.8	
198.7	4481	
198.91	4683	
199.13	3250.1	
199.34	3211.2	
199.55	5049.6	
199.77	4058.4	
199.98	2911.5	
200.19	3268.6	
200.41	4655.7	
200.62	4406.5	
200.83	3297.9	
201.05	3543	
201.26	4647.5	
201.47	4414.1	
201.69	2897.2	
201.9	2871.3	
202.11	4673.5	
202.33	5347.9	
202.54	3104	
202.76	3360.7	
202.97	4733.5	
203.18	4782	
203.4	3320.4	
203.61	3385.3	
203.82	4731.5	
204.04	4450.2	
204.25	3215.3	
204.46	3164.1	
204.68	4682.3	
204.89	4873.5	
205.1	3145.7	
205.32	2823.5	
205.53	4967	
205.74	5075.5	
205.96	2471.9	
206.17	3289	
206.38	4938.3	
206.6	5046.9	
206.81	3629	
207.02	3013.9	
207.24	4860.5	
207.45	5208	
207.66	3061	
207.88	2681.5	
208.09	4769.7	
208.3	4663.2	
208.52	2863.1	
208.73	3138.9	
208.94	4662.5	
209.15	5195	
209.37	3069.9	
209.58	3225.6	
209.79	5046.2	
210.01	4547.9	
210.22	2542.9	
210.43	2673.3	
210.65	4656.4	
210.86	4954.7	
211.07	3122.5	
211.29	2851.5	
211.5	4853.7	
211.71	4623.6	
211.93	2865.8	
212.14	2904.7	
212.35	4668	
212.56	4717.2	
212.78	3235.1	
212.99	2749.7	
213.2	5356.8	
213.42	4545.8	
213.63	2927.2	
213.84	3112.2	
214.06	4265.2	
214.27	4354	
214.48	3115	
214.69	3252.2	
214.91	5184.8	
215.12	5161.6	
215.33	3306.8	
215.55	3521.8	
215.76	5545.9	
215.97	4803.2	
216.18	3135.4	
216.4	3168.2	
216.61	4446.1	
216.82	5039.4	
217.04	2923.1	
217.25	2966.1	
217.46	5122	
217.67	4947.9	
217.89	2627.5	
218.1	2717	
218.31	4687.8	
218.53	4832.5	
218.74	3067.9	
218.95	2949.8	
219.16	4607.9	
219.38	5344.5	
219.59	2975.7	
219.8	3403	
220.01	5746.6	
220.23	4696.7	
220.44	3741.6	
220.65	2818.7	
220.87	4740.4	
221.08	5193	
221.29	2753.2	
221.5	3493.8	
221.72	6027.9	
221.93	4465.3	
222.14	3209.2	
222.35	3760.8	
222.57	4670.7	
222.78	5017.5	
222.99	3155.2	
223.2	3294.5	
223.42	4887.8	
223.63	4947.9	
223.84	2477.4	
224.05	2465.1	
224.27	5625.1	
224.48	5296.7	
224.69	3745.1	
224.9	3216.7	
225.12	4839.4	
225.33	4638.6	
225.54	2639.1	
225.75	2922.5	
225.97	4339	
226.18	4608.6	
226.39	3098.6	
226.6	2902.7	
226.82	4517.1	
227.03	4408.6	
227.24	3195.5	
227.45	2753.2	
227.67	5006.6	
227.88	5234.6	
228.09	3577.8	
228.3	3541.6	
228.52	4940.4	
228.73	4613.4	
228.94	2975	
229.15	2766.8	
229.36	4713.1	
229.58	4635.2	
229.79	3049.4	
230	3469.3	
230.21	5464.7	
230.43	4756.7	
230.64	3188	
230.85	3282.9	
231.06	5022.3	
231.28	4969.1	
231.49	2726.5	
231.7	3218	
231.91	4927.4	
232.12	4706.2	
232.34	2852.1	
232.55	3149.8	
232.76	5112.4	
232.97	4753.3	
233.18	2883.5	
233.4	3188	
233.61	4895.3	
233.82	4567.7	
234.03	3002.3	
234.25	3034.4	
234.46	6177.4	
234.67	4706.2	
234.88	3287.7	
235.09	2975.7	
235.31	4775.2	
235.52	4565.6	
235.73	3188.7	
235.94	2772.9	
236.15	4443.4	
236.37	5492.7	
236.58	2906.8	
236.79	3136.8	
237	4892.6	
237.21	4308.2	
237.43	3304.7	
237.64	2665.1	
237.85	7649.8	
238.06	4361.5	
238.27	3306.8	
238.48	2740.2	
238.7	4945.8	
238.91	4511.7	
239.12	3080.1	
239.33	3152.5	
239.54	4437.3	
239.76	4601.1	
239.97	3087	
240.18	3148.4	
240.39	5541.8	
240.6	4858.5	
240.82	3242.6	
241.03	2708.1	
241.24	4620.2	
241.45	5261.2	
241.66	2899.2	
241.87	3340.2	
242.09	5229.1	
242.3	5410.1	
242.51	3382.6	
242.72	3095.2	
242.93	5014.8	
243.14	4622.9	
243.36	3569.6	
243.57	3788.1	
243.78	5300.1	
243.99	4935.6	
244.2	3078.8	
244.41	2826.9	
244.63	4331.5	
244.84	4855.7	
245.05	3282.9	
245.26	3118.4	
245.47	4891.2	
245.68	4981.3	
245.9	3960.8	
246.11	3286.3	
246.32	4505.5	
246.53	4865.3	
246.74	4807.9	
246.95	2710.8	
247.16	4412	
247.38	4724.7	
247.59	2678.1	
247.8	3095.2	
248.01	4373.8	
248.22	4684.4	
248.43	2904	
248.64	3071.3	
248.86	4274.1	
249.07	4519.9	
249.28	2839.2	
249.49	3188.7	
249.7	5076.9	
249.91	5081	
250.12	2663.7	
250.34	2740.9	
250.55	4812	
250.76	4650.9	
250.97	3205.1	
251.18	3215.3	
251.39	5130.8	
251.6	4792.2	
251.81	3240.6	
252.03	3261	
252.24	4507.6	
252.45	4979.3	
252.66	2783.2	
252.87	3386	
253.08	4684.4	
253.29	5770.5	
253.5	2808.4	
253.72	3724.6	
253.93	4605.2	
254.14	5421.7	
254.35	2997.5	
254.56	3024.8	
254.77	4819.6	
254.98	4429.8	
255.19	3014.6	
255.41	3667.9	
255.62	4804.5	
255.83	5138.4	
256.04	3251.5	
256.25	3226.9	
256.46	5564.3	
256.67	4446.8	
256.88	3173	
257.09	3521.1	
257.31	4366.3	
257.52	4459.1	
257.73	3936.9	
257.94	2945	
258.15	4586.8	
258.36	4613.4	
258.57	3595.6	
258.78	2430.3	
258.99	5059.2	
259.2	4541.7	
259.41	2983.9	
259.63	3117.7	
259.84	5243.5	
260.05	5578	
260.26	3708.2	
260.47	2883.5	
260.68	5079	
260.89	4562.2	
261.1	3525.9	
261.31	2846.7	
261.52	5152.7	
261.73	5417.6	
261.95	3704.1	
262.16	3322.5	
262.37	5137	
262.58	5275.6	
262.79	3766.2	
263	3040.6	
263.21	4677.6	
263.42	4277.5	
263.63	3290.4	
263.84	2957.3	
264.05	5029.8	
264.26	5323.4	
264.47	3622.9	
264.69	3183.2	
264.9	5223.7	
265.11	4800.4	
265.32	2926.5	
265.53	3007.8	
265.74	4747.9	
265.95	4244.1	
266.16	3205.8	
266.37	3392.1	
266.58	4799.1	
266.79	4501.4	
267	2966.1	
267.21	2776.4	
267.42	4344.4	
267.63	4654.4	
267.84	3095.8	
268.06	2719.7	
268.27	5013.4	
268.48	5126.1	
268.69	3058.3	
268.9	3556.6	
269.11	5223	
269.32	4239.3	
269.53	3103.4	
269.74	2883.5	
269.95	4861.2	
270.16	4257	
270.37	3136.1	
270.58	3556	
270.79	4598.4	
271	5017.5	
271.21	3273.3	
271.42	3153.2	
271.63	4806.6	
271.84	4307.6	
272.05	2578.4	
272.26	2888.3	
272.47	4755.4	
272.68	4783.4	
272.89	3040.6	
273.11	3363.4	
273.32	4541	
273.53	5340.4	
273.74	3278.8	
273.95	3175.7	
274.16	4999.1	
274.37	4668.7	
274.58	3407.1	
274.79	2796.8	
275	4795.7	
275.21	5122.7	
275.42	3988.1	
275.63	3383.9	
275.84	4884.4	
276.05	5933	
276.26	3252.9	
276.47	3072.6	
276.68	4646.8	
276.89	5371.1	
277.1	3490.4	
277.31	2750.4	
277.52	4845.5	
277.73	5099.4	
277.94	2714.9	
278.15	3004.4	
278.36	4877.6	
278.57	4458.4	
278.78	3028.3	
278.99	3325.2	
279.2	4504.8	
279.41	4388.8	
279.62	3848.1	
279.83	2800.3	
280.04	5518.6	
280.25	4387.4	
280.46	3827.7	
280.67	3146.4	
280.88	4416.8	
281.09	5153.4	
281.3	3251.5	
281.51	3909.6	
281.72	4473.4	
281.93	5055.8	
282.14	2943.6	
282.35	3131.3	
282.56	5075.5	
282.77	4997	
282.98	3013.9	
283.19	3586.7	
283.4	5950.7	
283.61	4629.8	
283.82	2833	
284.03	3779.2	
284.24	4827.7	
284.45	5091.9	
284.66	3790.1	
284.87	3547.1	
285.08	5068.7	
285.29	5231.2	
285.5	2760	
285.71	3090.4	
285.92	5091.3	
286.12	5567.7	
286.33	3827.7	
286.54	3108.8	
286.75	4986.8	
286.96	4540.3	
287.17	2835.1	
287.38	3606.5	
287.59	4524.6	
287.8	4442.7	
288.01	3028.3	
288.22	3402.4	
288.43	4935.6	
288.64	4299.4	
288.85	3599.6	
289.06	3419.4	
289.27	5008	
289.48	5306.3	
289.69	3796.9	
289.9	3453.6	
290.11	5223	
290.32	4474.8	
290.53	3608.5	
290.74	3318.4	
290.94	4982	
291.15	5111.7	
291.36	2932.7	
291.57	3414	
291.78	4578.6	
291.99	4175.1	
292.2	2839.8	
292.41	3316.3	
292.62	5090.6	
292.83	4870.1	
293.04	4041.3	
293.25	2927.2	
293.46	4572.4	
293.67	5070.8	
293.88	2897.9	
294.09	2847.4	
294.29	4421.6	
294.5	4805.9	
294.71	3135.4	
294.92	2992.8	
295.13	4562.2	
295.34	5528.8	
295.55	2735.4	
295.76	2675.3	
295.97	4923.3	
296.18	5471.5	
296.39	2770.9	
296.6	2953.9	
296.81	4721.3	
297.01	4987.5	
297.22	3048.7	
297.43	2974.3	
297.64	4499.4	
297.85	4340.3	
298.06	2539.5	
298.27	2708.1	
298.48	4607.2	
298.69	4470.7	
298.9	3183.2	
299.11	2897.9	
299.31	4376.5	
299.52	4367.6	
299.73	3359.4	
299.94	3302	
300.15	4715.1	
300.36	4421.6	
300.57	3276.1	
300.78	3207.1	
300.99	4568.3	
301.2	4703.5	
301.4	2938.8	
301.61	3122.5	
301.82	4878.3	
302.03	4965	
302.24	3502.7	
302.45	2842.6	
302.66	4846.9	
302.87	5124.7	
303.08	2945	
303.29	3863.2	
303.49	4573.8	
303.7	4702.1	
303.91	2714.2	
304.12	3684.3	
304.33	4306.9	
304.54	4804.5	
304.75	2932	
304.96	2889	
305.16	4912.4	
305.37	5428.5	
305.58	2673.3	
305.79	2724.5	
306	4942.4	
306.21	4278.2	
306.42	2994.8	
306.63	4272.7	
306.83	4550.6	
307.04	4969.1	
307.25	3231.7	
307.46	3146.4	
307.67	4136.9	
307.88	4892.6	
308.09	2950.4	
308.29	2998.2	
308.5	4735.6	
308.71	5074.9	
308.92	3074.7	
309.13	2824.1	
309.34	4639.3	
309.55	4612.7	
309.75	3629	
309.96	3287	
310.17	4969.7	
310.38	4474.8	
310.59	3425.6	
310.8	2826.9	
311.01	4559.5	
311.21	4614.8	
311.42	2874	
311.63	2924.5	
311.84	4491.9	
312.05	4687.8	
312.26	3287.7	
312.46	3495.9	
312.67	4647.5	
312.88	4341	
313.09	2909.5	
313.3	2798.9	
313.51	5283.1	
313.71	5463.3	
313.92	2859	
314.13	2963.4	
314.34	4799.8	
314.55	4648.9	
314.76	3529.3	
314.96	3100.6	
315.17	4860.5	
315.38	4870.1	
315.59	2897.2	
315.8	2764.8	
316.01	5261.9	
316.21	5280.3	
316.42	2801.6	
316.63	3128.6	
316.84	4592.2	
317.05	5141.8	
317.26	3334.1	
317.46	3069.2	
317.67	4676.2	
317.88	4960.2	
318.09	3574.4	
318.3	2651.4	
318.5	4477.5	
318.71	4862.6	
318.92	4382.7	
319.13	3281.5	
319.34	5074.9	
319.54	5166.3	
319.75	2712.9	
319.96	2585.2	
320.17	4888.5	
320.38	5080.3	
320.58	2654.9	
320.79	3084.9	
321	5068.7	
321.21	5182.7	
321.42	3167.5	
321.62	2668.5	
321.83	4454.3	
322.04	4700.1	
322.25	3099.3	
322.46	2841.2	
322.66	4717.8	
322.87	4910.3	
323.08	3521.8	
323.29	2819.4	
323.5	5449.6	
323.7	4342.4	
323.91	3724.6	
324.12	3373	
324.33	4807.9	
324.53	4934.9	
324.74	3331.4	
324.95	3433.1	
325.16	4349.2	
325.37	4540.3	
325.57	2811.2	
325.78	2939.5	
325.99	4816.8	
326.2	4319.2	
326.4	3961.5	
326.61	2683.5	
326.82	4640.7	
327.03	4781.3	
327.24	3921.2	
327.44	3637.2	
327.65	4917.9	
327.86	4063.2	
328.07	3338.9	
328.27	2777	
328.48	5214.8	
328.69	4311.7	
328.9	3921.9	
329.1	2976.4	
329.31	4623.6	
329.52	5218.2	
329.73	2962	
329.93	3168.2	
330.14	4758.8	
330.35	4835.3	
330.56	4418.8	
330.76	3431.7	
330.97	4554	
331.18	4788.2	
331.39	3142.9	
331.59	2613.2	
331.8	5109	
332.01	5154.1	
332.22	2965.5	
332.42	3246	
332.63	4809.3	
332.84	4433.2	
333.05	3158	
333.25	2933.4	
333.46	4511.7	
333.67	4681.7	
333.88	3002.3	
334.08	3221.5	
334.29	5915.2	
334.5	5104.2	
334.7	2794.1	
334.91	3855	
335.12	4325.3	
335.33	4901.5	
335.53	3198.2	
335.74	4464.6	
335.95	4577.2	
336.16	4360.1	
336.36	3113.6	
336.57	3553.2	
336.78	4289.1	
336.98	5076.9	
337.19	3760.8	
337.4	3099.3	
337.61	5555.5	
337.81	4354.7	
338.02	2925.9	
338.23	3627	
338.43	5252.4	
338.64	4448.2	
338.85	2919	
339.05	3693.2	
339.26	5346.6	
339.47	4278.2	
339.68	2853.5	
339.88	4055.7	
340.09	4912.4	
340.3	5068.7	
340.5	3256.3	
340.71	2625.5	
340.92	4328	
341.13	5179.3	
341.33	2784.6	
341.54	3282.2	
341.75	4906.9	
341.95	4577.9	
342.16	3195.5	
342.37	3411.2	
342.57	4344.4	
342.78	4645.5	
342.99	3402.4	
343.19	2644.6	
343.4	5006.6	
343.61	4845.5	
343.81	3097.2	
344.02	2793.4	
344.23	5014.1	
344.43	5260.5	
344.64	3450.8	
344.85	3446	
345.06	4889.9	
345.26	5055.1	
345.47	3269.9	
345.68	3735.5	
345.88	4318.5	
346.09	5018.2	
346.3	3334.1	
346.5	2521.7	
346.71	4611.3	
346.92	4449.6	
347.12	2730.6	
347.33	3286.3	
347.54	5046.9	
347.74	5317.9	
347.95	3238.5	
348.16	2498.5	
348.36	4525.3	
348.57	4356	
348.78	3308.8	
348.98	3431	
349.19	4616.8	
349.39	4244.1	
349.6	2723.8	
349.81	2908.1	
350.01	4938.3	
350.22	4425	
350.43	3170.3	
350.63	3696.6	
350.84	4653	
351.05	4450.2	
351.25	2863.7	
351.46	2650.1	
351.67	5003.2	
351.87	4444.1	
352.08	3031.7	
352.29	3400.3	
352.49	4958.8	
352.7	5016.2	
352.9	2794.1	
353.11	3437.2	
353.32	5485.8	
353.52	4520.5	
353.73	2843.3	
353.94	3504.1	
354.14	4811.4	
354.35	4663.9	
354.55	2871.3	
354.76	3133.4	
354.97	4820.2	
355.17	4610	
355.38	2757.2	
355.59	3644.7	
355.79	4420.2	
356	4668	
356.2	3098.6	
356.41	2801.6	
356.62	4262.5	
356.82	4603.8	
357.03	3322.5	
357.24	3009.8	
357.44	4409.3	
357.65	4536.3	
357.85	3850.9	
358.06	3138.9	
358.27	4183.3	
358.47	4350.6	
358.68	2659.6	
358.88	3269.2	
359.09	4823.6	
359.3	5018.9	
359.5	3764.2	
359.71	3422.8	
359.91	5343.8	
360.12	4810.7	
360.33	3263.8	
360.53	3600.3	
360.74	4426.3	
360.94	4448.9	
361.15	3431	
361.36	2918.4	
361.56	4975.9	
361.77	4616.8	
361.97	3730.7	
362.18	3067.9	
362.38	4969.7	
362.59	4321.9	
362.8	2838.5	
363	2775.7	
363.21	4101.4	
363.41	4642.7	
363.62	3209.8	
363.83	3855.6	
364.03	4702.8	
364.24	5322	
364.44	4037.2	
364.65	3964.9	
364.85	4514.4	
365.06	4289.1	
365.27	2974.3	
365.47	3034.4	
365.68	5228.5	
365.88	4520.5	
366.09	3257.6	
366.29	2995.5	
366.5	4661.2	
366.71	5019.6	
366.91	3893.9	
367.12	3341.6	
367.32	5410.7	
367.53	4931.5	
367.73	3328.6	
367.94	4046.8	
368.14	4872.1	
368.35	5390.3	
368.56	3342.3	
368.76	3200.3	
368.97	5030.5	
369.17	6069.5	
369.38	2988	
369.58	3172.3	
369.79	4216.8	
369.99	5191.6	
370.2	3872	
370.4	3237.8	
370.61	4735.6	
370.82	5629.2	
371.02	3157.3	
371.23	2687.6	
371.43	4239.3	
371.64	5182	
371.84	3159.3	
372.05	3980.6	
372.25	5965.7	
372.46	4894.6	
372.66	3106.1	
372.87	3143.6	
373.07	4967.7	
373.28	6102.3	
373.48	3844	
373.69	3611.9	
373.9	4652.3	
374.1	4673.5	
374.31	3802.4	
374.51	3402.4	
374.72	5148.6	
374.92	4397	
375.13	3919.8	
375.33	3329.3	
375.54	4826.4	
375.74	4481.6	
375.95	3451.5	
376.15	4252.3	
376.36	4896	
376.56	4767	
376.77	3420.8	
376.97	3687.7	
377.18	5691.3	
377.38	4945.2	
377.59	3926.6	
377.79	3086.3	
378	4775.2	
378.2	5041.4	
378.41	3163.4	
378.61	3046	
378.82	5132.2	
379.02	4531.5	
379.23	3218	
379.43	3975.8	
379.64	5303.6	
379.84	4866	
380.05	3105.4	
380.25	3052.2	
380.46	5008.6	
380.66	4690.5	
380.87	4073.4	
381.07	4354	
381.28	5451	
381.48	4973.8	
381.69	3156.6	
381.89	3170.3	
382.1	4204.5	
382.3	5053.7	
382.51	3943	
382.71	4556.7	
382.91	4977.2	
383.12	5333.6	
383.32	3419.4	
383.53	3595.6	
383.73	4861.2	
383.94	4763.6	
384.14	3564.1	
384.35	2906.8	
384.55	4645.5	
384.76	4934.2	
384.96	3426.3	
385.17	3594.9	
385.37	5005.9	
385.58	4397	
385.78	3607.2	
385.98	2864.4	
386.19	4571.1	
386.39	4898.1	
386.6	3252.2	
386.8	3375.1	
387.01	4889.2	
387.21	5014.8	
387.42	3738.9	
387.62	4040	
387.83	4524	
388.03	4851	
388.23	3500	
388.44	3947.8	
388.64	4339	
388.85	4347.8	
389.05	3618.8	
389.26	4075.5	
389.46	5769.8	
389.67	5296.7	
389.87	3659	
390.07	3761.4	
390.28	4691.9	
390.48	4478.2	
390.69	3106.8	
390.89	3331.4	
391.1	4562.2	
391.3	5212.8	
391.5	4214	
391.71	4599.7	
391.91	5060.5	
392.12	5677.7	
392.32	4236.6	
392.53	3646.7	
392.73	4634.6	
392.93	4704.2	
393.14	3490.4	
393.34	3984	
393.55	5165.7	
393.75	4683	
393.95	3433.8	
394.16	3437.2	
394.36	4584	
394.57	5086.5	
394.77	3049.4	
394.98	3341.6	
395.18	4501.4	
395.38	4588.8	
395.59	3988.8	
395.79	3297.9	
396	4622.9	
396.2	4960.9	
396.4	3885	
396.61	3773.7	
396.81	5083.1	
397.02	4564.9	
397.22	4003.1	
397.42	4057.7	
397.63	5146.5	
397.83	4530.8	
398.04	3205.1	
398.24	3550.5	
398.44	4932.2	
398.65	4176.5	
398.85	3093.1	
399.05	3124.5	
399.26	4470	
399.46	5733.6	
399.67	3489.7	
399.87	3274	
400.07	4823.6	
400.28	4991.6	
400.48	3309.5	
400.69	4085	
400.89	5163.6	
401.09	5524.7	
401.3	3308.2	
401.5	4089.8	
401.7	5662	
401.91	5864	
402.11	3524.6	
402.32	3680.2	
402.52	5231.9	
402.72	5167	
402.93	3877.5	
403.13	3064.4	
403.33	5806.7	
403.54	4801.8	
403.74	3609.2	
403.94	4236.6	
404.15	4902.8	
404.35	5731.6	
404.56	3482.9	
404.76	4728.8	
404.96	5215.5	
405.17	5047.6	
405.37	4379.9	
405.57	3792.8	
405.78	5245.5	
405.98	4917.9	
406.18	3489.1	
406.39	4132.1	
406.59	5274.2	
406.79	4870.8	
407	3319.8	
407.2	3368.9	
407.4	5496.1	
407.61	5350	
407.81	3418.1	
408.01	4658.4	
408.22	4436.6	
408.42	5857.9	
408.62	4135.5	
408.83	3758	
409.03	4924.7	
409.23	4870.8	
409.44	3835.2	
409.64	4007.9	
409.84	5600.5	
410.05	5507.7	
410.25	3952.6	
410.45	3697.9	
410.66	5222.3	
410.86	6899.6	
411.06	4113	
411.27	4065.9	
411.47	6823.8	
411.67	5300.1	
411.88	4230.4	
412.08	4310.3	
412.28	5763.7	
412.49	6098.2	
412.69	4043.4	
412.89	4026.3	
413.09	6009.4	
413.3	5905	
413.5	4104.8	
413.7	3822.9	
413.91	5381.4	
414.11	6042.2	
414.31	3987.4	
414.52	4255	
414.72	5717.9	
414.92	5643.5	
415.12	3998.3	
415.33	4365.6	
415.53	5970.5	
415.73	6121.4	
415.94	4588.1	
416.14	4155.3	
416.34	5313.8	
416.55	5027.8	
416.75	5074.2	
416.95	4644.1	
417.15	6040.1	
417.36	6384.2	
417.56	5199.1	
417.76	4526.7	
417.97	6180.1	
418.17	5993.7	
418.37	4334.2	
418.57	4332.8	
418.78	5941.2	
418.98	5608.7	
419.18	4905.6	
419.38	4889.9	
419.59	5670.8	
419.79	5393	
419.99	4219.5	
420.2	4443.4	
420.4	6064.7	
420.6	6073.6	
420.8	4147.1	
421.01	4037.2	
421.21	5882.4	
421.41	5978.7	
421.61	4457.7	
421.82	4255.7	
422.02	5623	
422.22	6204	
422.42	4815.5	
422.63	4571.1	
422.83	5670.1	
423.03	6537.8	
423.23	4578.6	
423.44	3850.2	
423.64	5659.2	
423.84	5435.3	
424.04	4242	
424.25	3908.9	
424.45	6337.1	
424.65	6278.4	
424.85	3784.6	
425.06	4216.1	
425.26	6435.4	
425.46	5588.2	
425.66	4592.2	
425.87	4378.6	
426.07	6138.4	
426.27	6033.3	
426.47	4429.1	
426.67	4045.4	
426.88	6447	
427.08	5995.1	
427.28	4641.4	
427.48	3938.9	
427.69	5313.1	
427.89	5780.1	
428.09	4593.6	
428.29	3951.9	
428.5	6139.8	
428.7	5832.6	
428.9	3916.4	
429.1	4252.9	
429.3	5840.8	
429.51	6030.6	
429.71	4127.3	
429.91	4689.2	
430.11	6109.1	
430.31	6184.9	
430.52	4341.7	
430.72	4552	
430.92	6507.8	
431.12	6072.2	
431.32	4063.2	
431.53	4429.8	
431.73	5372.5	
431.93	6504.3	
432.13	4042	
432.33	3951.2	
432.54	5710.4	
432.74	5801.2	
432.94	3910.3	
433.14	4741.7	
433.34	6139.8	
433.55	5731.6	
433.75	4664.6	
433.95	5894.7	
434.15	5977.3	
434.35	5707	
434.56	4184.7	
434.76	3709.6	
434.96	5901.6	
435.16	6019.7	
435.36	4100	
435.56	4803.9	
435.77	5640.1	
435.97	5796.4	
436.17	5328.8	
436.37	4797	
436.57	5602.6	
436.78	5564.3	
436.98	6048.3	
437.18	5207.3	
437.38	6160.3	
437.58	5751.4	
437.78	5344.5	
437.99	4354	
438.19	6195.1	
438.39	6752.2	
438.59	4317.1	
438.79	3928	
438.99	6639.5	
439.2	5728.9	
439.4	3994.2	
439.6	3953.9	
439.8	5920	
440	6759.7	
440.2	4737	
440.4	4840.7	
440.61	6275.7	
440.81	6621.8	
441.01	4250.9	
441.21	4786.1	
441.41	6623.1	
441.61	6322.8	
441.81	5088.5	
442.02	5771.2	
442.22	6961	
442.42	6451.1	
442.62	4269.3	
442.82	4328	
443.02	6701.6	
443.22	6033.3	
443.43	4602.5	
443.63	4258.4	
443.83	5829.2	
444.03	5840.8	
444.23	5163.6	
444.43	4903.5	
444.63	6205.3	
444.83	6993.1	
445.04	4453.6	
445.24	5315.8	
445.44	6445	
445.64	6447	
445.84	4969.1	
446.04	4928.8	
446.24	5937.7	
446.44	6630	
446.65	4402.5	
446.85	4640.7	
447.05	6054.5	
447.25	6642.9	
447.45	4750.6	
447.65	4215.4	
447.85	6194.4	
448.05	5881.1	
448.25	5043.5	
448.46	4888.5	
448.66	6139.1	
448.86	5954.8	
449.06	4235.9	
449.26	4937.7	
449.46	6414.2	
449.66	5724.8	
449.86	4741	
450.06	4635.2	
450.26	5858.6	
450.47	6384.9	
450.67	4869.4	
450.87	5161.6	
451.07	6510.5	
451.27	6165.1	
451.47	4442.7	
451.67	5005.9	
451.87	5996.5	
452.07	6879.1	
452.27	4536.9	
452.47	4492.6	
452.67	6308.4	
452.88	6600.6	
453.08	4158.7	
453.28	5472.2	
453.48	7089.4	
453.68	6207.4	
453.88	4457.1	
454.08	4637.3	
454.28	6489.3	
454.48	6287.3	
454.68	4987.5	
454.88	5373.9	
455.08	6622.4	
455.28	6298.2	
455.48	4463.9	
455.68	4868.7	
455.89	6982.2	
456.09	6662.7	
456.29	4730.1	
456.49	4748.6	
456.69	6875	
456.89	6296.1	
457.09	5076.9	
457.29	5392.3	
457.49	6551.5	
457.69	6568.5	
457.89	5048.2	
458.09	4554.7	
458.29	6462	
458.49	6941.9	
458.69	5319.3	
458.89	4846.2	
459.09	7240.9	
459.29	7186.3	
459.49	4984.8	
459.69	5575.9	
459.9	6726.2	
460.1	6428.6	
460.3	4928.8	
460.5	4649.6	
460.7	6827.2	
460.9	6559	
461.1	4491.2	
461.3	5395	
461.5	7216.4	
461.7	7037.5	
461.9	4808.6	
462.1	5129.5	
462.3	6701.6	
462.5	7109.2	
462.7	4871.4	
462.9	4957.4	
463.1	7853.3	
463.3	7526.3	
463.5	5146.5	
463.7	5836.7	
463.9	6842.3	
464.1	7098.3	
464.3	5340.4	
464.5	5423.7	
464.7	7271.7	
464.9	7068.9	
465.1	6307.1	
465.3	5681.7	
465.5	7519.5	
465.7	7526.3	
465.9	5878.4	
466.1	5702.9	
466.3	7398.6	
466.5	7353.6	
466.7	6386.9	
466.9	5532.2	
467.1	7459.4	
467.3	7975.5	
467.5	6369.2	
467.7	5563.6	
467.9	8161.2	
468.1	8761.2	
468.3	6134.3	
468.5	6382.2	
468.7	7266.9	
468.9	7249.1	
469.1	5865.4	
469.3	6305	
469.5	8794.7	
469.7	7038.9	
469.9	6166.4	
470.1	5659.2	
470.3	7448.5	
470.5	7342	
470.7	6501.6	
470.9	5765.7	
471.1	7145.4	
471.3	7550.2	
471.5	5584.8	
471.69	6843.6	
471.89	7150.8	
472.09	6701.6	
472.29	6194.4	
472.49	6421.1	
472.69	6948.8	
472.89	7483.3	
473.09	5586.2	
473.29	5714.5	
473.49	7095.5	
473.69	7122.8	
473.89	6292	
474.09	5821.7	
474.29	8033.5	
474.49	7714.7	
474.69	6199.9	
474.89	5816.2	
475.09	7197.9	
475.29	7094.8	
475.49	5365.7	
475.69	5609.4	
475.88	8212.4	
476.08	7445	
476.28	5330.2	
476.48	5754.1	
476.68	7735.9	
476.88	7537.9	
477.08	5649	
477.28	5794.4	
477.48	7204.1	
477.68	7638.2	
477.88	5461.9	
478.08	5663.3	
478.28	7918.1	
478.48	7217.7	
478.67	5790.3	
478.87	5261.9	
479.07	7789.1	
479.27	7282.6	
479.47	5909.1	
479.67	5876.3	
479.87	7660.8	
480.07	7966.6	
480.27	5384.8	
480.47	6472.3	
480.67	7372	
480.87	7855.3	
481.06	5682.4	
481.26	6215.6	
481.46	7396.6	
481.66	7280.5	
481.86	5882.4	
482.06	6617.7	
482.26	7243	
482.46	7883.3	
482.66	5862	
482.86	5487.9	
483.05	7609.6	
483.25	6977.4	
483.45	7621.9	
483.65	5860.6	
483.85	7096.2	
484.05	7278.5	
484.25	6191.7	
484.45	6457.9	
484.65	7929.1	
484.84	7973.4	
485.04	5841.5	
485.24	5851	
485.44	8224.6	
485.64	6965.1	
485.84	5329.5	
486.04	6296.1	
486.24	7308.5	
486.44	7519.5	
486.63	5330.2	
486.83	5955.5	
487.03	7289.4	
487.23	7402	
487.43	5429.8	
487.63	7071.6	
487.83	7434.1	
488.02	8116.1	
488.22	6043.6	
488.42	6621.8	
488.62	8137.3	
488.82	7249.8	
489.02	5942.5	
489.22	5960.3	
489.41	7956.4	
489.61	7778.2	
489.81	5778.7	
490.01	5741.8	
490.21	7978.2	
490.41	8456.1	
490.61	5722.7	
490.8	5825.8	
491	7720.8	
491.2	7098.9	
491.4	6262.7	
491.6	5634.6	
491.8	7627.3	
491.99	7595.9	
492.19	5513.1	
492.39	5722	
492.59	7940.7	
492.79	7950.9	
492.99	6401.3	
493.18	5663.3	
493.38	8023.9	
493.58	8606.2	
493.78	6177.4	
493.98	5933	
494.18	7860.8	
494.37	7502.4	
494.57	6520.7	
494.77	6350.1	
494.97	8054.7	
495.17	8290.9	
495.37	6120	
495.56	6453.1	
495.76	8448.6	
495.96	8255.4	
496.16	7060.7	
496.36	6319.3	
496.55	8378.2	
496.75	7920.9	
496.95	6582.2	
497.15	6498.2	
497.35	8436.9	
497.54	8269	
497.74	6434.7	
497.94	7595.9	
498.14	8808.3	
498.34	8647.2	
498.53	6185.5	
498.73	6707.1	
498.93	7823.2	
499.13	8347.5	
499.33	6662.7	
499.52	6938.5	
499.72	8384.4	
499.92	8524.3	
500.12	6436.1	
500.32	6664.8	
500.51	8598.7	
500.71	8349.6	
500.91	7195.2	
501.11	6964.5	
501.31	8594	
501.5	8867	
501.7	7456	
501.9	6731.7	
502.1	8353.7	
502.29	8651.3	
502.49	6997.2	
502.69	7392.5	
502.89	8509.3	
503.09	8581.7	
503.28	6419.7	
503.48	6408.8	
503.68	8166.6	
503.88	7957	
504.07	7113.3	
504.27	6741.9	
504.47	8331.8	
504.67	8404.2	
504.86	7045	
505.06	6789.7	
505.26	8130.4	
505.46	9174.9	
505.65	6745.3	
505.85	7002	
506.05	8045.1	
506.25	8396	
506.44	6234	
506.64	6819.1	
506.84	7925.6	
507.04	8564.6	
507.23	6425.2	
507.43	6768.5	
507.63	9357.2	
507.83	8062.9	
508.02	6780.8	
508.22	6453.8	
508.42	9549	
508.62	7927.7	
508.81	6650.4	
509.01	7026.6	
509.21	7836.9	
509.4	8139.3	
509.6	6890	
509.8	6380.8	
510	8062.2	
510.19	9038.4	
510.39	6295.5	
510.59	6435.4	
510.79	7964.6	
510.98	8947.6	
511.18	6513.9	
511.38	6590.4	
511.57	8564.6	
511.77	8332.5	
511.97	7068.9	
512.17	6426.5	
512.36	8521.6	
512.56	8387.8	
512.76	6395.1	
512.95	6140.5	
513.15	8693.6	
513.35	7506.5	
513.55	6974.7	
513.74	6408.1	
513.94	8557.8	
514.14	8090.2	
514.33	7064.8	
514.53	6854.6	
514.73	8213.7	
514.92	8290.9	
515.12	6528.9	
515.32	6448.4	
515.51	8279.9	
515.71	8676.6	
515.91	7641.7	
516.11	6491.4	
516.3	9515.5	
516.5	8037.6	
516.7	6887.3	
516.89	7322.9	
517.09	8228.7	
517.29	8135.9	
517.48	7076.4	
517.68	6718.7	
517.88	7978.2	
518.07	8479.3	
518.27	7093.5	
518.47	6381.5	
518.66	8886.8	
518.86	7925.6	
519.06	6287.3	
519.25	6597.2	
519.45	8129.1	
519.65	9158.5	
519.84	7061.4	
520.04	7591.1	
520.24	9594.1	
520.43	8642.4	
520.63	6935.1	
520.83	6756.9	
521.02	8117.5	
521.22	8541.4	
521.42	7091.4	
521.61	7518.1	
521.81	8227.4	
522.01	8423.3	
522.2	7008.8	
522.4	6805.4	
522.6	8774.9	
522.79	7815	
522.99	6939.9	
523.18	6432	
523.38	8645.8	
523.58	8549.6	
523.77	7805.5	
523.97	6567.8	
524.17	10006	
524.36	9454.1	
524.56	7585.7	
524.76	7265.5	
524.95	8748.2	
525.15	8405.5	
525.34	7240.9	
525.54	7197.9	
525.74	9037	
525.93	8356.4	
526.13	8151.6	
526.33	7181.5	
526.52	9408.4	
526.72	9030.9	
526.91	8137.9	
527.11	7534.5	
527.31	9436.4	
527.5	9663.7	
527.7	7663.5	
527.89	6963.1	
528.09	8643.1	
528.29	9022	
528.48	7968.6	
528.68	7643	
528.87	9408.4	
529.07	9466.4	
529.27	7599.3	
529.46	7410.9	
529.66	9268.4	
529.85	9549	
530.05	7405.5	
530.25	7772	
530.44	10234	
530.64	9111.4	
530.83	7581.6	
531.03	7666.2	
531.23	9624.1	
531.42	9388.6	
531.62	8244.4	
531.81	7659.4	
532.01	9686.2	
532.21	9910.8	
532.4	7626.6	
532.6	7957	
532.79	10363	
532.99	9753.1	
533.18	8041.7	
533.38	8766.7	
533.58	9620.7	
533.77	10008	
533.97	8041	
534.16	8647.9	
534.36	10310	
534.55	9512.1	
534.75	8797.4	
534.95	8093.6	
535.14	10344	
535.34	9661	
535.53	7937.9	
535.73	9338.1	
535.92	10747	
536.12	9727.9	
536.31	8049.2	
536.51	8866.3	
536.71	10028	
536.9	9555.1	
537.1	8054.7	
537.29	8279.3	
537.49	10204	
537.68	9634.3	
537.88	8512	
538.07	7888.8	
538.27	9790.7	
538.46	10497	
538.66	7946.8	
538.86	8189.8	
539.05	9983.8	
539.25	10121	
539.44	8625.4	
539.64	8140.7	
539.83	9747	
540.03	10460	
540.22	8092.2	
540.42	8157.1	
540.61	9953.1	
540.81	9961.3	
541	8414.4	
541.2	8841.8	
541.39	9585.9	
541.59	9856.9	
541.78	8770.1	
541.98	7978.2	
542.18	9450.7	
542.37	9250.7	
542.57	8150.9	
542.76	8667	
542.96	9493	
543.15	9771.5	
543.35	8331.8	
543.54	7834.8	
543.74	9859.6	
543.93	9785.2	
544.13	8199.4	
544.32	8985.1	
544.52	10029	
544.71	9379	
544.91	7562.5	
545.1	8423.3	
545.3	9346.2	
545.49	9859.6	
545.69	7582.9	
545.88	8034.9	
546.08	10557	
546.27	10210	
546.47	8344.1	
546.66	7823.2	
546.86	9990	
547.05	10433	
547.24	7903.1	
547.44	7938.6	
547.63	9283.4	
547.83	10006	
548.02	8223.3	
548.22	8292.9	
548.41	9138	
548.61	10041	
548.8	7683.3	
549	7854	
549.19	9654.8	
549.39	9852.1	
549.58	7593.9	
549.78	7922.2	
549.97	9916.9	
550.17	9493.7	
550.36	8576.2	
550.55	9286.2	
550.75	9448.6	
550.94	10022	
551.14	7769.3	
551.33	7929.7	
551.53	8951	
551.72	9747.6	
551.92	7942.7	
552.11	7822.6	
552.31	9767.4	
552.5	9757.2	
552.69	8953.7	
552.89	7470.3	
553.08	9688.9	
553.28	9500.5	
553.47	7859.4	
553.67	8569.4	
553.86	10026	
554.06	8890.2	
554.25	7309.2	
554.44	7662.1	
554.64	10556	
554.83	10320	
555.03	7623.9	
555.22	7861.5	
555.42	9820	
555.61	9669.8	
555.8	7731.1	
556	7924.3	
556.19	8982.4	
556.39	9828.9	
556.58	7722.2	
556.78	7816.4	
556.97	9490.3	
557.16	9327.8	
557.36	8656.1	
557.55	7479.2	
557.75	8662.9	
557.94	10044	
558.13	7463.5	
558.33	7480.5	
558.52	9957.2	
558.72	8983.8	
558.91	7534.5	
559.1	7604.1	
559.3	8869.8	
559.49	8723	
559.69	7226.6	
559.88	7732.4	
560.07	9422	
560.27	9770.2	
560.46	8009.6	
560.66	8096.3	
560.85	9320.3	
561.04	8610.3	
561.24	7469.6	
561.43	7506.5	
561.63	8824	
561.82	9078	
562.01	8394.6	
562.21	7669	
562.4	9341.5	
562.59	10008	
562.79	7608.9	
562.98	7411.6	
563.18	9329.2	
563.37	10298	
563.56	7876.5	
563.76	7417.1	
563.95	8940.1	
564.14	8913.4	
564.34	7729.7	
564.53	7497.6	
564.73	9344.9	
564.92	9581.8	
565.11	7884	
565.31	7318.1	
565.5	9854.1	
565.69	8857.5	
565.89	7571.3	
566.08	7734.5	
566.27	9667.8	
566.47	9926.5	
566.66	8193.2	
566.85	7196.6	
567.05	9377	
567.24	8967.4	
567.44	7449.1	
567.63	8433.5	
567.82	9613.2	
568.02	9367.4	
568.21	7460.1	
568.4	7628	
568.6	9250	
568.79	9161.9	
568.98	7414.3	
569.18	7524.9	
569.37	9188.6	
569.56	10720	
569.76	7797.3	
569.95	8389.2	
570.14	9443.9	
570.34	9422	
570.53	7453.9	
570.72	7367.2	
570.91	9873.9	
571.11	9304.6	
571.3	7806.9	
571.49	8447.2	
571.69	9357.2	
571.88	8882	
572.07	8152.3	
572.27	8097	
572.46	8858.1	
572.65	9624.8	
572.85	7583.6	
573.04	7877.2	
573.23	9822.1	
573.43	9325.8	
573.62	7406.1	
573.81	7820.5	
574	9408.4	
574.2	9196.7	
574.39	7640.3	
574.58	7757.7	
574.78	9920.4	
574.97	9380.4	
575.16	8088.1	
575.36	8109.3	
575.55	9870.5	
575.74	9820	
575.93	7402.7	
576.13	8127	
576.32	9345.6	
576.51	9661	
576.71	7832.1	
576.9	8708	
577.09	10011	
577.28	9611.1	
577.48	8115.4	
577.67	7414.3	
577.86	9334.6	
578.05	9653.4	
578.25	7797.3	
578.44	7962.5	
578.63	9325.1	
578.83	10202	
579.02	7566.6	
579.21	8542.8	
579.4	9452.1	
579.6	9413.8	
579.79	7936.6	
579.98	9499.2	
580.17	9727.9	
580.37	9887.6	
580.56	7597.3	
580.75	8034.2	
580.94	10103	
581.14	10078	
581.33	8500.4	
581.52	7696.9	
581.71	9617.3	
581.91	10302	
582.1	7459.4	
582.29	7873.8	
582.48	9393.3	
582.68	9413.8	
582.87	8132.5	
583.06	7871	
583.25	9643.9	
583.45	9566.7	
583.64	8372.1	
583.83	8882.7	
584.02	9357.2	
584.21	9734	
584.41	8346.2	
584.6	7915.4	
584.79	9541.5	
584.98	9858.2	
585.18	7533.8	
585.37	7580.9	
585.56	9282.1	
585.75	9768.8	
585.94	7651.9	
586.14	8209.6	
586.33	10106	
586.52	9402.9	
586.71	8099.7	
586.91	7859.4	
587.1	8908	
587.29	9672.6	
587.48	7700.4	
587.67	7641.7	
587.87	9495.1	
588.06	9539.4	
588.25	8544.1	
588.44	7975.5	
588.63	9166.7	
588.83	9704.6	
589.02	7733.8	
589.21	7599.3	
589.4	9172.2	
589.59	9078	
589.78	6929	
589.98	7152.2	
590.17	8652	
590.36	8944.2	
590.55	6630	
590.74	7171.3	
590.94	9815.9	
591.13	8733.9	
591.32	7036.8	
591.51	6612.9	
591.7	8981	
591.89	8754.4	
592.09	6698.2	
592.28	7108.5	
592.47	8178.2	
592.66	9592	
592.85	6849.8	
593.05	6913.3	
593.24	8643.1	
593.43	9245.2	
593.62	6969.2	
593.81	7294.2	
594	8755.1	
594.19	8843.8	
594.39	6891.4	
594.58	6867.5	
594.77	8933.9	
594.96	9235	
595.15	6911.9	
595.34	7274.4	
595.54	8851.3	
595.73	8213.7	
595.92	6410.8	
596.11	7072.3	
596.3	9179	
596.49	8287.4	
596.68	6932.4	
596.88	7326.9	
597.07	8940.7	
597.26	8169.3	
597.45	6664.8	
597.64	7439.6	
597.83	8388.5	
598.02	8792.6	
598.22	6748.7	
598.41	7140.6	
598.6	8664.3	
598.79	8176.2	
598.98	6720.1	
599.17	7404.8	
599.36	8720.9	
599.55	9382.4	
599.74	8098.4	
599.94	7982.3	
600.13	8986.5	
600.32	8153.6	
600.51	6457.2	
600.7	6613.6	
600.89	9428.2	
601.08	9562.6	
601.27	6434.7	
601.47	7073.7	
601.66	8919.6	
601.85	9343.5	
602.04	6988.4	
602.23	6948.8	
602.42	8243.8	
602.61	8673.8	
602.8	6862.1	
602.99	6643.6	
603.18	8497	
603.37	8589.2	
603.57	7141.3	
603.76	7567.2	
603.95	9204.3	
604.14	8835.6	
604.33	6675	
604.52	6916	
604.71	8627.4	
604.9	8301.8	
605.09	7346.1	
605.28	7251.2	
605.47	9055.4	
605.66	8753	
605.86	7062.8	
606.05	6741.2	
606.24	9143.5	
606.43	7948.8	
606.62	7012.9	
606.81	7476.5	
607	8824.7	
607.19	8373.5	
607.38	6514.6	
607.57	6618.4	
607.76	8245.8	
607.95	7786.4	
608.14	7068.9	
608.33	7361.1	
608.52	8158.4	
608.72	8892.3	
608.91	6477	
609.1	6307.7	
609.29	8401.5	
609.48	7875.1	
609.67	7067.5	
609.86	6470.2	
610.05	8060.8	
610.24	8157.7	
610.43	6298.9	
610.62	6133	
610.81	9021.3	
611	8890.2	
611.19	6335.7	
611.38	6967.9	
611.57	8434.9	
611.76	9247.3	
611.95	6236.7	
612.14	6127.5	
612.33	8226	
612.52	7952.3	
612.71	6660.7	
612.9	6018.3	
613.09	7671.7	
613.28	9267.7	
613.47	6494.8	
613.66	7038.2	
613.85	8318.8	
614.04	7904.5	
614.24	6503	
614.43	5884.5	
614.62	8415.1	
614.81	8295.6	
615	6803.4	
615.19	6773.3	
615.38	7859.4	
615.57	8196.7	
615.76	6725.5	
615.95	7449.1	
616.14	8534.6	
616.33	8224.6	
616.52	6951.5	
616.71	7152.9	
616.9	8340.7	
617.09	8183.7	
617.28	6510.5	
617.47	7326.9	
617.66	7701.7	
617.85	7835.5	
618.04	7043.6	
618.22	6733	
618.41	8088.1	
618.6	8721.6	
618.79	6681.8	
618.98	6464.8	
619.17	8973.5	
619.36	7644.4	
619.55	6670.2	
619.74	6754.2	
619.93	8429.4	
620.12	7908.6	
620.31	7069.6	
620.5	7159.7	
620.69	8738.7	
620.88	9217.9	
621.07	7647.1	
621.26	7104.4	
621.45	8621.3	
621.64	8542.1	
621.83	7147.4	
622.02	6505.7	
622.21	8606.2	
622.4	8470.4	
622.59	7522.9	
622.78	7292.8	
622.97	8197.3	
623.16	8849.3	
623.35	7094.2	
623.54	6458.6	
623.72	8313.4	
623.91	8381	
624.1	7281.9	
624.29	6356.9	
624.48	9150.3	
624.67	8710	
624.86	7114.6	
625.05	6537.1	
625.24	9284.1	
625.43	8215.1	
625.62	8383.7	
625.81	6696.2	
626	8920.3	
626.19	8365.3	
626.38	7182.9	
626.56	6801.3	
626.75	8234.2	
626.94	8822.6	
627.13	7202	
627.32	6386.2	
627.51	8733.2	
627.7	9546.3	
627.89	6433.4	
628.08	7238.9	
628.27	8102.4	
628.46	8247.9	
628.65	6531	
628.83	6425.2	
629.02	8614.4	
629.21	8029.4	
629.4	6993.8	
629.59	7066.2	
629.78	8060.1	
629.97	8771.5	
630.16	7085.3	
630.35	6753.5	
630.54	9204.3	
630.72	8932.6	
630.91	6794.5	
631.1	7105.1	
631.29	8530.5	
631.48	8628.1	
631.67	7257.3	
631.86	6844.3	
632.05	8316.1	
632.24	8255.4	
632.42	6581.5	
632.61	6894.8	
632.8	8340	
632.99	8023.3	
633.18	6956.9	
633.37	7229.3	
633.56	8462.9	
633.75	8468.4	
633.93	7025.9	
634.12	6849.8	
634.31	9113.5	
634.5	8843.1	
634.69	6841.6	
634.88	7168.6	
635.07	8389.8	
635.25	8792.6	
635.44	7457.3	
635.63	7490.1	
635.82	8319.5	
636.01	7765.2	
636.2	7371.3	
636.39	7151.5	
636.57	9056.1	
636.76	8723.7	
636.95	6665.5	
637.14	7508.5	
637.33	8630.1	
637.52	9140.8	
637.7	6562.4	
637.89	7275.8	
638.08	8291.5	
638.27	9308.7	
638.46	7230	
638.65	7539.9	
638.83	9240.4	
639.02	8187.1	
639.21	7095.5	
639.4	7423.2	
639.59	8422.6	
639.78	8181.6	
639.96	6589.7	
640.15	6626.5	
640.34	8387.8	
640.53	8297	
640.72	6390.3	
640.91	6546.7	
641.09	7907.2	
641.28	8839.7	
641.47	6651.8	
641.66	7161.7	
641.85	8350.9	
642.03	8501.8	
642.22	6959	
642.41	6631.3	
642.6	7926.3	
642.79	7459.4	
642.97	6451.1	
643.16	6944	
643.35	7824.6	
643.54	7742.7	
643.73	6405.4	
643.91	6993.8	
644.1	7615	
644.29	8075.8	
644.48	6445.6	
644.67	6454.5	
644.85	7728.4	
645.04	8003.5	
645.23	6113.2	
645.42	6335	
645.6	7569.3	
645.79	8392.6	
645.98	6235.4	
646.17	5594.4	
646.36	7458	
646.54	7675.8	
646.73	6702.3	
646.92	5983.5	
647.11	7542	
647.29	8171.4	
647.48	5941.2	
647.67	5808	
647.86	8371.4	
648.05	8337.3	
648.23	6150.1	
648.42	6993.8	
648.61	7896.3	
648.8	7712	
648.98	5881.1	
649.17	6146.6	
649.36	7376.1	
649.55	7103.7	
649.73	5890	
649.92	6417.7	
650.11	7309.9	
650.3	7573.4	
650.48	5990.3	
650.67	5758.2	
650.86	7716.7	
651.05	6919.4	
651.23	5875.6	
651.42	5881.1	
651.61	7340.6	
651.79	7324.9	
651.98	6081.1	
652.17	5767.8	
652.36	7689.4	
652.54	6946.7	
652.73	5782.1	
652.92	5644.2	
653.11	7653.9	
653.29	7718.1	
653.48	5330.9	
653.67	5933.6	
653.85	7443	
654.04	8265.6	
654.23	6156.2	
654.42	5810.1	
654.6	7083.2	
654.79	7548.1	
654.98	5393.7	
655.16	5779.4	
655.35	6794.5	
655.54	6588.3	
655.73	5360.9	
655.91	5252.4	
656.1	7440.3	
656.29	6536.4	
656.47	4971.8	
656.66	6217	
656.85	6857.3	
657.03	6806.1	
657.22	5431.9	
657.41	5494.7	
657.59	6924.2	
657.78	6873.7	
657.97	5261.9	
658.16	5769.8	
658.34	7437.5	
658.53	7718.1	
658.72	6410.8	
658.9	6774	
659.09	7107.8	
659.28	7064.8	
659.46	5466.7	
659.65	5478.3	
659.84	6868.2	
660.02	7382.9	
660.21	5552	
660.4	5412.1	
660.58	7619.8	
660.77	7079.8	
660.96	5836.7	
661.14	5135.6	
661.33	7988.4	
661.52	7845.8	
661.7	5172.5	
661.89	7565.9	
662.08	6767.9	
662.26	6470.9	
662.45	5362.3	
662.64	5443.5	
662.82	7365.2	
663.01	6653.9	
663.2	5486.5	
663.38	5988.9	
663.57	7279.2	
663.75	7086	
663.94	5651.7	
664.13	6550.8	
664.31	6802	
664.5	7281.2	
664.69	5854.5	
664.87	6148.7	
665.06	6597.9	
665.25	7109.2	
665.43	6358.9	
665.62	6308.4	
665.8	7325.6	
665.99	6812.2	
666.18	5640.8	
666.36	5641.5	
666.55	7301.7	
666.74	7268.2	
666.92	5315.8	
667.11	6533	
667.29	6858	
667.48	7238.2	
667.67	6047.7	
667.85	5446.2	
668.04	6802.7	
668.22	6748.7	
668.41	5618.3	
668.6	5845.6	
668.78	6677.1	
668.97	6877.1	
669.15	5859.9	
669.34	5089.2	
669.53	6698.9	
669.71	6931	
669.9	5272.8	
670.08	5720	
670.27	6614.9	
670.46	7165.8	
670.64	5924.8	
670.83	6021	
671.01	6440.9	
671.2	7026.6	
671.38	5302.9	
671.57	5193	
671.76	7508.5	
671.94	7837.6	
672.13	5265.3	
672.31	5950.7	
672.5	7174.7	
672.69	6675.7	
672.87	5300.8	
673.06	5470.8	
673.24	7075	
673.43	6653.9	
673.61	5764.3	
673.8	5431.9	
673.98	7109.2	
674.17	7221.8	
674.36	5885.9	
674.54	5763	
674.73	6928.3	
674.91	7187	
675.1	5563	
675.28	5250.3	
675.47	6799.9	
675.65	7171.3	
675.84	5470.8	
676.03	5668.8	
676.21	6718.7	
676.4	6250.4	
676.58	6015.6	
676.77	5801.2	
676.95	7739.3	
677.14	6567.2	
677.32	5212.1	
677.51	5170.4	
677.69	7221.1	
677.88	6466.1	
678.06	5212.1	
678.25	5236	
678.44	6845.7	
678.62	6605.4	
678.81	5010.7	
678.99	5671.5	
679.18	7370	
679.36	7034.8	
679.55	5455.1	
679.73	5866.7	
679.92	7009.5	
680.1	6600.6	
680.29	6328.9	
680.47	5417.6	
680.66	6707.1	
680.84	7197.9	
681.03	4956.8	
681.21	5700.2	
681.4	6663.4	
681.58	6532.3	
681.77	5340.4	
681.95	5241.4	
682.14	7286.7	
682.32	7490.8	
682.51	5884.5	
682.69	5076.2	
682.88	6612.9	
683.06	6949.4	
683.25	5683.8	
683.43	5962.3	
683.62	6881.9	
683.8	7127.6	
683.99	6134.3	
684.17	5575.9	
684.36	7719.5	
684.54	6716.7	
684.73	5018.9	
684.91	5141.1	
685.1	6931	
685.28	6480.5	
685.46	5553.4	
685.65	5532.2	
685.83	6995.9	
686.02	6531	
686.2	5098.1	
686.39	5193	
686.57	6407.4	
686.76	7438.2	
686.94	5081.7	
687.13	5226.4	
687.31	6938.5	
687.5	6633.4	
687.68	4835.3	
687.86	5624.4	
688.05	7909.3	
688.23	6310.5	
688.42	5805.3	
688.6	5269.4	
688.79	6606.1	
688.97	6597.2	
689.16	5537	
689.34	4825	
689.52	7189.7	
689.71	7433.4	
689.89	5792.3	
690.08	5322.7	
690.26	6939.2	
690.45	6705	
690.63	5981.4	
690.81	5574.6	
691	6883.2	
691.18	6705.7	
691.37	5597.1	
691.55	7101	
691.74	6642.2	
691.92	8103.1	
692.1	5602.6	
692.29	5216.2	
692.47	6856.6	
692.66	6348	
692.84	5431.9	
693.02	5768.4	
693.21	6497.5	
693.39	6849.8	
693.58	5876.3	
693.76	5424.4	
693.94	7669.6	
694.13	7596.6	
694.31	5471.5	
694.5	6239.5	
694.68	6789.7	
694.86	7074.4	
695.05	5853.8	
695.23	5849.7	
695.42	7453.2	
695.6	8974.2	
695.78	6329.6	
695.97	5659.2	
696.15	7571.3	
696.34	7049.8	
696.52	5541.1	
696.7	6170.5	
696.89	7324.9	
697.07	6873.7	
697.25	6029.9	
697.44	7094.8	
697.62	7359	
697.81	7518.8	
697.99	5927.5	
698.17	6167.1	
698.36	6931.7	
698.54	7376.8	
698.72	6165.1	
698.91	5420.3	
699.09	7083.9	
699.28	6942.6	
699.46	5971.2	
699.64	5743.9	
699.83	6961.7	
700.01	7793.2	
700.19	6462	
700.38	5285.8	
700.56	7748.8	
700.74	7019.1	
700.93	5606	
701.11	6226.5	
701.29	7522.9	
701.48	8285.4	
701.66	5808.7	
701.84	5913.9	
702.03	7378.8	
702.21	7845.8	
702.39	5545.2	
702.58	6079.7	
702.76	7678.5	
702.94	7673.7	
703.13	5612.1	
703.31	7372	
703.49	7266.2	
703.68	8286.1	
703.86	5845.6	
704.04	6556.9	
704.23	7602.7	
704.41	7848.5	
704.59	6018.3	
704.78	6716	
704.96	8838.4	
705.14	7826	
705.33	5918.6	
705.51	6383.5	
705.69	7425.3	
705.87	8093.6	
706.06	6584.2	
706.24	5837.4	
706.42	7701	
706.61	7919.5	
706.79	6742.6	
706.97	5867.4	
707.16	7346.7	
707.34	7772	
707.52	6528.9	
707.7	6099.5	
707.89	7416.4	
708.07	7223.2	
708.25	6765.8	
708.44	6847	
708.62	7380.2	
708.8	8252.6	
708.98	6863.4	
709.17	6180.1	
709.35	7694.2	
709.53	7817.1	
709.72	6027.9	
709.9	5974.6	
710.08	8002.1	
710.26	8008.9	
710.45	7146.7	
710.63	6287.3	
710.81	7708.6	
710.99	7755.7	
711.18	6693.4	
711.36	6280.4	
711.54	7597.3	
711.72	8149.6	
711.91	6375.3	
712.09	5913.9	
712.27	7704.5	
712.45	8077.2	
712.64	6431.3	
712.82	5762.3	
713	7312.6	
713.18	7390.4	
713.37	5823.1	
713.55	6614.3	
713.73	8019.2	
713.91	6968.6	
714.1	6108.4	
714.28	5617.6	
714.46	7574.8	
714.64	6943.3	
714.83	5096.7	
715.01	5596.4	
715.19	6946	
715.37	6296.8	
715.55	5240.1	
715.74	5474.2	
715.92	7423.2	
716.1	5980.8	
716.28	6212.2	
716.47	5477	
716.65	6575.3	
716.83	6514.6	
717.01	5446.2	
717.19	5399.1	
717.38	8022.6	
717.56	6281.8	
717.74	5638.7	
717.92	5066.7	
718.1	7135.8	
718.29	6565.8	
718.47	4797.7	
718.65	5305.6	
718.83	7312.6	
719.01	7247.8	
719.2	4848.2	
719.38	5667.4	
719.56	7027.9	
719.74	8185.7	
719.92	5525.4	
720.11	6268.1	
720.29	7145.4	
720.47	6538.5	
720.65	5152.7	
720.83	5646.9	
721.02	6679.1	
721.2	6445	
721.38	5572.5	
721.56	5042.8	
721.74	6056.5	
721.92	6146.6	
722.11	5931.6	
722.29	5730.9	
722.47	7081.9	
722.65	6496.2	
722.83	5056.4	
723.01	5649	
723.2	6547.4	
723.38	6737.1	
723.56	4682.3	
723.74	5485.1	
723.92	6210.8	
724.1	7063.4	
724.29	4958.1	
724.47	5802.6	
724.65	6326.9	
724.83	6191.7	
725.01	5005.9	
725.19	5449	
725.37	6296.8	
725.56	6169.2	
725.74	4797	
725.92	5001.1	
726.1	6208.1	
726.28	6449.1	
726.46	5375.2	
726.64	5102.9	
726.83	6484.6	
727.01	6541.9	
727.19	4865.3	
727.37	5376.6	
727.55	6507.1	
727.73	6901	
727.91	4813.4	
728.09	4649.6	
728.28	6943.3	
728.46	7049.1	
728.64	5464	
728.82	5399.8	
729	7718.1	
729.18	7202	
729.36	4929.5	
729.54	6496.2	
729.72	8001.4	
729.91	6692.8	
730.09	6367.1	
730.27	5515.2	
730.45	6685.3	
730.63	7165.2	
730.81	5958.2	
730.99	5297.4	
731.17	7534.5	
731.35	6556.2	
731.53	5590.3	
731.71	5356.1	
731.9	7347.4	
732.08	7399.3	
732.26	5467.4	
732.44	5266	
732.62	7425.9	
732.8	7027.3	
732.98	5821.7	
733.16	5152.7	
733.34	7064.1	
733.52	6139.1	
733.7	5414.8	
733.88	5609.4	
734.07	6943.3	
734.25	6776	
734.43	5080.3	
734.61	6129.6	
734.79	7834.2	
734.97	6719.4	
735.15	5171.1	
735.33	5367	
735.51	6879.8	
735.69	6610.2	
735.87	6047	
736.05	5516.5	
736.23	6789	
736.41	6504.3	
736.59	5372.5	
736.77	5511.8	
736.95	7055.3	
737.13	6626.5	
737.32	5115.8	
737.5	5225.7	
737.68	7480.5	
737.86	6542.6	
738.04	4964.3	
738.22	6272.9	
738.4	6403.3	
738.58	6628.6	
738.76	5370.5	
738.94	4699.4	
739.12	6427.2	
739.3	6374	
739.48	5803.9	
739.66	5573.9	
739.84	6637.5	
740.02	6621.1	
740.2	4762.9	
740.38	5014.1	
740.56	6929	
740.74	6015.6	
740.92	5386.8	
741.1	5350	
741.28	6422.4	
741.46	6270.9	
741.64	5065.3	
741.82	5397.8	
742	6494.8	
742.18	6382.8	
742.36	5182	
742.54	4924.7	
742.72	6841.6	
742.9	5869.5	
743.08	5380	
743.26	4555.4	
743.44	6880.5	
743.62	6709.8	
743.8	5504.3	
743.98	4820.9	
744.16	6567.8	
744.34	6318	
744.52	5339.1	
744.7	5331.5	
744.88	6682.5	
745.06	6267.5	
745.24	5345.9	
745.42	5511.8	
745.6	6689.3	
745.78	6572.6	
745.96	4539	
746.14	4726	
746.32	7180.2	
746.5	6602	
746.68	5083.1	
746.86	4682.3	
747.03	6813.6	
747.21	5719.3	
747.39	5058.5	
747.57	4677.6	
747.75	6244.3	
747.93	6529.6	
748.11	4638.6	
748.29	4552.6	
748.47	7458.7	
748.65	6067.4	
748.83	5131.5	
749.01	5033.9	
749.19	6426.5	
749.37	5718.6	
749.55	4928.8	
749.73	4855.7	
749.91	6243.6	
750.09	5948	
750.26	4832.5	
750.44	4549.9	
750.62	6143.9	
750.8	6096.8	
750.98	4380.6	
751.16	4648.2	
751.34	6264.7	
751.52	5711.8	
751.7	5145.9	
751.88	4323.9	
752.06	6558.3	
752.24	6307.7	
752.42	4268.6	
752.59	4577.9	
752.77	6156.2	
752.95	6955.6	
753.13	5042.1	
753.31	4681.7	
753.49	5849.7	
753.67	6055.2	
753.85	4882.4	
754.03	4469.4	
754.21	6386.2	
754.38	6503	
754.56	4574.5	
754.74	3898	
754.92	5687.9	
755.1	6105.7	
755.28	3851.5	
755.46	3747.8	
755.64	6593.8	
755.82	6559.6	
755.99	3827	
756.17	3765.5	
756.35	4678.2	
756.53	5707	
756.71	2976.4	
756.89	3648.8	
757.07	5388.9	
757.25	4797.7	
757.42	3988.8	
757.6	4656.4	
757.78	5507	
757.96	4866.7	
758.14	3869.3	
758.32	3560.1	
758.5	4495.3	
758.67	5115.8	
758.85	3718.4	
759.03	3871.3	
759.21	5270.1	
759.39	4861.2	
759.57	3404.4	
759.75	4216.8	
759.92	5776	
760.1	5328.8	
760.28	4476.2	
760.46	4678.9	
760.64	5097.4	
760.82	4919.2	
760.99	4444.1	
761.17	3872	
761.35	5696.1	
761.53	4952	
761.71	4004.5	
761.89	4465.9	
762.06	5690.6	
762.24	5287.9	
762.42	4145.1	
762.6	3895.2	
762.78	5315.8	
762.96	5759.6	
763.13	4444.8	
763.31	4143.7	
763.49	5787.6	
763.67	5328.1	
763.85	4751.3	
764.02	5134.9	
764.2	6129.6	
764.38	5419.6	
764.56	4005.8	
764.74	4652.3	
764.91	6083.8	
765.09	5297.4	
765.27	3832.4	
765.45	3699.3	
765.63	6212.9	
765.8	5917.9	
765.98	3512.3	
766.16	3738.2	
766.34	4995	
766.52	4781.3	
766.69	4375.1	
766.87	3577.1	
767.05	5401.2	
767.23	5814.2	
767.41	3772.4	
767.58	3945.8	
767.76	5674.9	
767.94	5720.7	
768.12	3874.8	
768.29	4316.4	
768.47	5287.9	
768.65	5829.9	
768.83	3553.2	
769	4351.9	
769.18	5023.7	
769.36	5469.4	
769.54	4322.6	
769.72	3547.1	
769.89	5752.1	
770.07	5699.5	
770.25	3861.1	
770.43	4726	
770.6	6285.2	
770.78	6466.1	
770.96	3893.2	
771.14	4303.5	
771.31	5612.8	
771.49	5104.2	
771.67	3322.5	
771.85	3448.1	
772.02	4582.7	
772.2	5125.4	
772.38	4001.7	
772.55	3591.5	
772.73	5346.6	
772.91	5102.9	
773.09	3889.8	
773.26	4024.3	
773.44	5255.1	
773.62	4993.6	
773.8	3573	
773.97	3334.1	
774.15	5279	
774.33	4997	
774.5	3414.6	
774.68	3675.4	
774.86	5384.1	
775.04	5028.4	
775.21	3551.2	
775.39	3487.7	
775.57	5243.5	
775.74	5394.3	
775.92	3364.8	
776.1	3216.7	
776.27	5137	
776.45	6069.5	
776.63	3476.1	
776.81	3145.7	
776.98	4945.2	
777.16	5670.8	
777.34	3543	
777.51	3751.9	
777.69	4941.1	
777.87	4723.3	
778.04	3588.7	
778.22	3990.1	
778.4	4751.3	
778.57	5156.1	
778.75	3064.4	
778.93	3246.7	
779.1	4639.3	
779.28	4432.5	
779.46	3024.2	
779.64	3369.6	
779.81	5358.9	
779.99	5937.1	
780.17	3966.2	
780.34	3999	
780.52	4940.4	
780.69	5015.5	
780.87	3618.8	
781.05	3298.6	
781.22	5026.4	
781.4	5063.3	
781.58	3429	
781.75	2800.9	
781.93	4996.4	
782.11	4472.1	
782.28	4047.5	
782.46	3345.7	
782.64	4390.2	
782.81	5052.3	
782.99	3424.2	
783.17	3311.6	
783.34	4968.4	
783.52	4511.7	
783.69	3521.1	
783.87	4114.4	
784.05	4531.5	
784.22	4519.9	
784.4	4099.4	
784.58	3637.9	
784.75	5208	
784.93	4650.3	
785.1	3322.5	
785.28	3796.9	
785.46	4978.6	
785.63	4478.9	
785.81	3353.9	
785.99	3163.4	
786.16	4678.2	
786.34	4928.1	
786.51	3288.4	
786.69	3587.4	
786.87	4294.6	
787.04	4702.1	
787.22	3168.2	
787.39	3760.8	
787.57	4528.1	
787.75	5291.3	
787.92	3978.5	
788.1	3899.3	
788.27	4472.1	
788.45	4280.9	
788.63	3676.8	
788.8	2749.1	
788.98	4861.2	
789.15	4182.6	
789.33	2911.5	
789.5	3282.9	
789.68	5169.8	
789.86	5231.9	
790.03	3595.6	
790.21	3221.5	
790.38	5182.7	
790.56	4608.6	
790.73	3132	
790.91	3096.5	
791.09	4520.5	
791.26	5033.9	
791.44	3345.7	
791.61	2909.5	
791.79	4455.7	
791.96	4477.5	
792.14	2990	
792.32	2683.5	
792.49	4409.3	
792.67	4552.6	
792.84	3038.5	
793.02	2899.9	
793.19	4826.4	
793.37	5320.6	
793.54	2681.5	
793.72	3024.8	
793.89	5330.2	
794.07	4448.2	
794.25	3253.5	
794.42	2730.6	
794.6	5250.3	
794.77	4911.7	
794.95	3581.2	
795.12	3180.5	
795.3	4411.3	
795.47	4887.1	
795.65	3455.6	
795.82	3290.4	
796	4330.1	
796.17	5669.5	
796.35	3209.2	
796.52	3764.8	
796.7	4891.2	
796.87	4874.2	
797.05	3194.1	
797.22	3831.7	
797.4	4930.1	
797.57	5595.1	
797.75	3331.4	
797.92	3145.7	
798.1	5108.3	
798.27	4298.7	
798.45	2773.6	
798.62	2928.6	
798.8	4687.8	
798.97	5023.7	
799.15	3485	
799.32	3337.5	
799.5	4106.2	
799.67	4687.1	
799.85	3546.4	
800.02	2753.2	
800.2	4456.4	
800.37	4637.3	
800.55	3649.5	
800.72	3129.3	
800.9	4995	
801.07	5265.3	
801.25	4132.1	
801.42	3460.4	
801.6	5009.3	
801.77	4678.9	
801.95	3272.7	
802.12	3065.8	
802.29	4791.6	
802.47	4747.2	
802.64	3383.9	
802.82	2708.1	
802.99	4402.5	
803.17	5060.5	
803.34	3298.6	
803.52	2962	
803.69	5595.7	
803.87	4171.7	
804.04	3280.2	
804.21	3356.6	
804.39	5254.4	
804.56	4528.1	
804.74	2871.9	
804.91	3429.7	
805.09	4392.9	
805.26	4446.1	
805.44	2902	
805.61	3206.4	
805.78	4935.6	
805.96	4861.2	
806.13	3375.1	
806.31	3614	
806.48	4025.6	
806.66	4433.9	
806.83	3427.6	
807	3310.9	
807.18	4435.9	
807.35	4698	
807.53	3293.1	
807.7	2753.8	
807.87	5224.4	
808.05	4420.9	
808.22	3547.1	
808.4	2755.9	
808.57	4358.8	
808.74	4141	
808.92	3089.7	
809.09	3774.4	
809.27	4425.7	
809.44	4741	
809.61	2738.1	
809.79	2993.4	
809.96	5327.4	
810.14	4879.6	
810.31	2657.6	
810.48	3242.6	
810.66	4452.3	
810.83	4935.6	
811.01	3127.2	
811.18	3327.9	
811.35	4939	
811.53	3963.5	
811.7	3592.8	
811.87	3411.2	
812.05	4547.9	
812.22	4386.7	
812.39	2944.3	
812.57	2909.5	
812.74	4459.1	
812.92	5611.4	
813.09	3257.6	
813.26	3422.2	
813.44	5387.5	
813.61	4352.6	
813.78	2733.4	
813.96	3508.9	
814.13	4465.3	
814.3	4170.3	
814.48	3760.8	
814.65	3154.6	
814.82	5179.3	
815	4250.2	
815.17	3220.1	
815.34	3904.8	
815.52	4366.3	
815.69	4311	
815.87	3216	
816.04	3166.8	
816.21	4424.3	
816.38	4050.2	
816.56	3179.8	
816.73	2964.1	
816.9	5476.3	
817.08	4912.4	
817.25	2957.9	
817.42	3678.8	
817.6	4117.1	
817.77	4374.5	
817.94	3296.5	
818.12	2919.7	
818.29	4298.7	
818.46	6081.1	
818.64	3106.8	
818.81	2867.8	
818.98	4225.6	
819.16	5730.9	
819.33	3460.4	
819.5	3291.1	
819.67	4664.6	
819.85	5160.2	
820.02	3282.2	
820.19	3358.7	
820.37	4579.3	
820.54	4315.8	
820.71	3297.2	
820.88	3936.9	
821.06	4629.1	
821.23	4234.5	
821.4	3327.9	
821.58	3308.2	
821.75	4911	
821.92	4543.8	
822.09	2773.6	
822.27	2838.5	
822.44	4407.2	
822.61	4345.1	
822.79	2749.1	
822.96	4907.6	
823.13	4712.4	
823.3	4139.6	
823.48	3143.6	
823.65	2811.9	
823.82	4945.2	
823.99	4107.5	
824.17	3900	
824.34	2871.9	
824.51	5571.8	
824.68	4449.6	
824.86	2998.2	
825.03	3306.8	
825.2	4479.6	
825.37	5156.8	
825.55	3013.9	
825.72	3283.6	
825.89	5607.3	
826.06	5191.6	
826.24	3186.6	
826.41	3216.7	
826.58	5213.4	
826.75	4574.5	
826.92	2671.9	
827.1	2857.6	
827.27	6748.7	
827.44	5543.9	
827.61	3034.4	
827.79	3633.1	
827.96	4308.9	
828.13	4429.8	
828.3	3173.7	
828.47	2716.3	
828.65	4711.7	
828.82	4579.9	
828.99	3892.5	
829.16	3439.2	
829.34	4957.4	
829.51	4779.3	
829.68	3267.2	
829.85	3323.9	
830.02	5247.6	
830.2	4932.9	
830.37	2589.3	
830.54	3777.1	
830.71	5462.6	
830.88	4408.6	
831.05	2615.9	
831.23	2948.4	
831.4	5367.7	
831.57	5696.8	
831.74	2983.9	
831.91	2697.2	
832.09	4715.1	
832.26	4945.2	
832.43	3130.7	
832.6	3499.3	
832.77	4607.9	
832.94	5201.2	
833.12	2560	
833.29	3081.5	
833.46	4556	
833.63	5933.6	
833.8	3352.5	
833.97	3079.5	
834.15	4969.1	
834.32	4778.6	
834.49	3228.3	
834.66	3297.2	
834.83	5005.2	
835	4237.9	
835.17	3045.3	
835.35	2973.7	
835.52	4913.8	
835.69	4769	
835.86	3108.1	
836.03	2654.9	
836.2	4947.2	
836.37	4629.8	
836.55	3039.9	
836.72	2937.5	
836.89	4642.7	
837.06	4988.2	
837.23	3160.7	
837.4	3324.5	
837.57	5544.5	
837.75	5941.8	
837.92	2851.5	
838.09	3005.1	
838.26	4611.3	
838.43	5059.8	
838.6	3254.9	
838.77	2933.4	
838.94	5726.8	
839.11	5565	
839.29	3168.9	
839.46	2508.1	
839.63	4970.4	
839.8	4659.1	
839.97	3027.6	
840.14	2982.5	
840.31	4740.4	
840.48	4898.1	
840.65	2555.9	
840.82	2981.8	
841	4835.3	
841.17	4786.1	
841.34	2775	
841.51	2887.6	
841.68	4846.2	
841.85	4717.2	
842.02	2914.3	
842.19	2448	
842.36	4775.9	
842.53	4758.1	
842.7	2814.6	
842.87	3296.5	
843.05	5969.8	
843.22	4612.7	
843.39	2676	
843.56	2904	
843.73	4536.9	
843.9	4976.6	
844.07	4316.4	
844.24	3613.3	
844.41	6648.4	
844.58	4302.8	
844.75	2712.9	
844.92	2971.6	
845.09	4877.6	
845.26	4883.7	
845.43	2804.4	
845.6	2987.3	
845.77	4896	
845.94	4646.8	
846.12	3062.4	
846.29	3237.8	
846.46	5096	
846.63	4871.4	
846.8	2802.3	
846.97	3267.9	
847.14	5220.3	
847.31	4821.6	
847.48	3105.4	
847.65	3374.4	
847.82	5089.9	
847.99	5018.9	
848.16	3597.6	
848.33	3365.5	
848.5	4525.3	
848.67	5260.5	
848.84	2730.6	
849.01	2940.2	
849.18	4505.5	
849.35	4215.4	
849.52	3413.3	
849.69	2704.7	
849.86	5063.9	
850.03	5072.1	
850.2	2808.4	
850.37	3308.8	
850.54	5116.5	
850.71	4598.4	
850.88	3288.4	
851.05	2781.1	
851.22	4833.9	
851.39	5235.3	
851.56	2631.6	
851.73	3112.2	
851.9	4341	
852.07	5070.1	
852.24	3049.4	
852.41	2811.2	
852.58	4825.7	
852.75	4418.8	
852.92	3063.1	
853.09	2700.6	
853.26	4530.1	
853.43	5135.6	
853.6	2815.3	
853.77	2409.1	
853.94	5281.7	
854.11	4317.8	
854.28	3930.7	
854.44	2953.9	
854.61	5556.1	
854.78	5076.2	
854.95	2739.5	
855.12	3407.8	
855.29	4062.5	
855.46	5429.2	
855.63	2768.9	
855.8	3685	
855.97	4457.1	
856.14	5102.9	
856.31	3731.4	
856.48	3002.3	
856.65	4589.5	
856.82	4335.5	
856.99	2691.7	
857.16	2990	
857.33	5752.1	
857.49	4666	
857.66	2992.1	
857.83	3138.9	
858	4664.6	
858.17	4773.8	
858.34	2639.8	
858.51	2854.2	
858.68	5369.1	
858.85	5319.9	
859.02	3144.3	
859.19	3347.1	
859.36	4352.6	
859.52	4345.8	
859.69	2792.1	
859.86	3218	
860.03	4444.8	
860.2	5306.3	
860.37	2591.4	
860.54	2832.3	
860.71	5004.6	
860.88	5296	
861.05	3063.8	
861.21	3469.9	
861.38	5287.9	
861.55	4184.7	
861.72	2560.6	
861.89	3026.2	
862.06	5094	
862.23	5415.5	
862.4	2666.5	
862.56	2865.1	
862.73	4917.2	
862.9	4655.7	
863.07	3138.9	
863.24	2585.2	
863.41	4339	
863.58	4401.8	
863.75	2867.2	
863.91	3159.3	
864.08	5214.8	
864.25	4923.3	
864.42	3420.8	
864.59	3818.1	
864.76	5472.2	
864.93	4375.1	
865.09	2738.1	
865.26	2933.4	
865.43	5235.3	
865.6	5529.5	
865.77	2487.6	
865.94	2734	
866.1	5215.5	
866.27	4915.8	
866.44	4007.2	
866.61	2653.5	
866.78	4638.6	
866.95	4925.4	
867.11	2710.8	
867.28	2515.6	
867.45	5152.7	
867.62	4358.8	
867.79	3154.6	
867.96	2757.2	
868.12	4315.1	
868.29	5000.5	
868.46	2781.1	
868.63	3627	
868.8	5142.4	
868.97	5009.3	
869.13	2907.4	
869.3	2920.4	
869.47	4887.8	
869.64	5028.4	
869.81	2762.7	
869.97	2832.3	
870.14	4851.6	
870.31	5311.1	
870.48	2684.2	
870.65	3406.5	
870.81	4614.8	
870.98	4646.2	
871.15	3130.7	
871.32	2903.3	
871.48	4908.3	
871.65	5332.9	
871.82	2714.9	
871.99	3024.8	
872.16	5637.4	
872.32	5199.8	
872.49	2846	
872.66	2785.2	
872.83	5010.7	
872.99	4453.6	
873.16	3115	
873.33	2733.4	
873.5	4704.2	
873.67	4763.6	
873.83	2945	
874	3644	
874.17	4915.1	
874.34	5537	
874.5	3551.2	
874.67	3351.2	
874.84	5279	
875.01	4244.8	
875.17	3770.3	
875.34	2736.8	
875.51	4803.9	
875.68	5649	
875.84	3315	
876.01	3794.9	
876.18	4981.3	
876.34	4942.4	
876.51	2764.1	
876.68	2702.6	
876.85	4616.8	
877.01	5205.3	
877.18	3807.9	
877.35	2717.7	
877.52	4811.4	
877.68	4350.6	
877.85	2696.5	
878.02	2756.6	
878.18	4655.7	
878.35	4506.9	
878.52	2250	
878.69	3048.7	
878.85	5141.8	
879.02	4928.8	
879.19	3815.4	
879.35	2904.7	
879.52	4976.6	
879.69	5061.2	
879.86	2475.3	
880.02	3058.3	
880.19	4681	
880.36	5569.8	
880.52	3130.7	
880.69	3257.6	
880.86	5084.4	
881.02	5111	
881.19	3038.5	
881.36	3009.8	
881.52	4950.6	
881.69	4420.2	
881.86	2996.2	
882.02	2883.5	
882.19	5150.6	
882.36	5850.4	
882.52	2816.6	
882.69	3796.9	
882.86	4806.6	
883.02	4752.7	
883.19	3244.7	
883.36	3129.3	
883.52	4994.3	
883.69	5634.6	
883.86	2798.9	
884.02	2538.1	
884.19	5002.5	
884.36	4681.7	
884.52	3133.4	
884.69	2964.8	
884.86	4565.6	
885.02	5406.6	
885.19	3038.5	
885.36	3161.4	
885.52	4624.3	
885.69	4901.5	
885.86	3874.1	
886.02	3493.8	
886.19	5061.2	
886.35	4587.4	
886.52	3082.2	
886.69	3758	
886.85	4399.7	
887.02	5254.4	
887.19	5254.4	
887.35	5254.4	
887.52	5254.4	
887.68	5254.4	
887.85	5254.4	
888.02	5254.4	
888.18	5254.4	
888.35	5254.4	
888.51	5254.4	
888.68	5254.4	
888.85	5254.4	
889.01	5254.4	
889.18	5254.4	
889.35	5254.4	
889.51	5254.4	
889.68	5254.4	
889.84	5254.4	
890.01	5254.4	
890.17	5254.4	
890.34	5254.4	
890.51	5254.4	
890.67	5254.4	
890.84	5254.4	
891	5254.4	
891.17	5254.4	
891.34	5254.4	
891.5	5254.4	
891.67	5254.4	
891.83	5254.4	
892	5254.4	
892.16	5254.4	
892.33	5254.4	
892.5	5254.4	
892.66	5254.4	
892.83	5254.4	
892.99	5254.4	
893.16	5254.4	
893.32	5254.4	
893.49	5254.4	
893.65	5254.4	
893.82	5254.4	
893.99	5254.4	
894.15	5254.4	
894.32	5254.4	
894.48	5254.4	
894.65	5254.4	
894.81	5254.4	
894.98	5254.4	
895.14	5254.4	
895.31	5254.4	
895.47	5254.4	
895.64	5254.4	
895.81	5254.4	
895.97	5254.4	
896.14	5254.4	
896.3	5254.4	
896.47	5254.4	
896.63	5254.4	
896.8	5254.4	
896.96	5254.4	
897.13	5254.4	
897.29	5254.4	
897.46	5254.4	
897.62	5254.4	
897.79	5254.4	
897.95	5254.4	
898.12	5254.4	
898.28	5254.4	
898.45	5254.4	
898.61	5254.4	
898.78	5254.4	
898.94	5254.4	
899.11	5254.4	
899.27	5254.4	
899.44	5254.4	
899.6	5254.4	
899.77	5254.4	
899.93	5254.4	
900.1	5254.4	
900.26	5254.4	
900.43	5254.4	
900.59	5254.4	
900.76	5254.4	
900.92	5254.4	
901.09	5254.4	
901.25	5254.4	
901.42	5254.4	
901.58	5254.4	
901.75	5254.4	
901.91	5254.4	
902.07	5254.4	
902.24	5254.4	
902.4	5254.4	
902.57	5254.4	
902.73	5254.4	
902.9	5254.4	
903.06	5254.4	
903.23	5254.4	
903.39	5254.4	
903.56	5254.4	
903.72	5254.4	
903.88	5254.4	
904.05	5254.4	
904.21	5254.4	
904.38	5254.4	
904.54	5254.4	
904.71	5254.4	
904.87	5254.4	
905.03	5254.4	
905.2	5254.4	
905.36	5254.4	
905.53	5254.4	
905.69	5254.4	
905.86	5254.4	
906.02	5254.4	
906.18	5254.4	
906.35	5254.4	
906.51	5254.4	
906.68	5254.4	
906.84	5254.4	
907.01	5254.4	
907.17	5254.4	
907.33	5254.4	
907.5	5254.4	
907.66	5254.4	
907.83	5254.4	
907.99	5254.4	
908.15	5254.4	
908.32	5254.4	
908.48	5254.4	
908.65	5254.4	
908.81	5254.4	
908.97	5254.4	
909.14	5254.4	
909.3	5254.4	
909.47	5254.4	
909.63	5254.4	
909.79	5254.4	
909.96	5254.4	
910.12	5254.4	
910.28	5254.4	
910.45	5254.4	
910.61	5254.4	
910.78	5254.4	
910.94	5254.4	
911.1	5254.4	
911.27	5254.4	
911.43	5254.4	
911.59	5254.4	
911.76	5254.4	
911.92	5254.4	
912.08	5254.4	
912.25	5254.4	
912.41	5254.4	
912.57	5254.4	
912.74	5254.4	
912.9	5254.4	
913.07	5254.4	
913.23	5254.4	
913.39	5254.4	
913.56	5254.4	
913.72	5254.4	
913.88	5254.4	
914.05	5254.4	
914.21	5254.4	
914.37	5254.4	
914.54	5254.4	
914.7	5254.4	
914.86	5254.4	
915.03	5254.4	
915.19	5254.4	
