Wavelength	Intensities	
nm	a.u.	
179.22	1951.2	
179.44	1938.4	
179.65	1964	
179.86	1912.8	
180.08	1922.4	
180.29	5055.8	
180.51	3580.5	
180.72	5712.5	
180.94	6799.9	
181.15	3306.1	
181.37	3220.8	
181.58	5593.7	
181.79	5985.5	
182.01	3452.2	
182.22	3741.6	
182.44	5905	
182.65	4898.7	
182.87	4697.4	
183.08	4078.2	
183.29	6189.6	
183.51	5027.1	
183.72	3697.3	
183.94	5489.2	
184.15	5511.8	
184.37	5535.7	
184.58	3293.8	
184.79	4568.3	
185.01	5061.9	
185.22	5898.1	
185.44	4857.8	
185.65	4076.8	
185.86	5380.7	
186.08	4964.3	
186.29	3209.8	
186.51	3461.1	
186.72	5105.6	
186.94	6104.3	
187.15	3985.3	
187.36	4192.9	
187.58	7912.7	
187.79	5595.7	
188.01	4311	
188.22	6826.6	
188.43	6762.4	
188.65	5896.1	
188.86	3355.3	
189.08	4136.9	
189.29	5285.8	
189.5	5364.3	
189.72	3835.2	
189.93	3884.3	
190.15	6092.7	
190.36	7399.3	
190.57	4230.4	
190.79	4075.5	
191	6189.6	
191.22	6182.8	
191.43	4311.7	
191.64	3416.7	
191.86	6429.3	
192.07	6200.6	
192.29	3653.6	
192.5	3856.3	
192.71	6079.1	
192.93	5225.1	
193.14	3775.8	
193.35	3874.1	
193.57	5270.8	
193.78	6105.7	
194	3042.6	
194.21	3727.3	
194.42	5044.8	
194.64	5553.4	
194.85	4163.5	
195.07	4873.5	
195.28	5585.5	
195.49	4759.5	
195.71	5190.9	
195.92	3599.6	
196.13	5732.3	
196.35	5848.3	
196.56	5536.3	
196.78	4154.6	
196.99	7211.6	
197.2	6763.1	
197.42	4696.7	
197.63	4220.2	
197.84	4933.6	
198.06	5708.4	
198.27	3796.3	
198.48	5147.9	
198.7	5251	
198.91	5383.4	
199.13	4170.3	
199.34	4173.1	
199.55	5895.4	
199.77	4799.1	
199.98	3680.9	
200.19	4227	
200.41	5406.6	
200.62	5031.2	
200.83	4396.3	
201.05	4683.7	
201.26	5413.5	
201.47	5155.4	
201.69	3738.2	
201.9	3566.2	
202.11	5483.1	
202.33	6585.6	
202.54	3941	
202.76	4394.9	
202.97	5669.5	
203.18	5550	
203.4	4390.8	
203.61	4283	
203.82	5563	
204.04	5134.9	
204.25	4278.2	
204.46	4096.6	
204.68	5561.6	
204.89	5773.9	
205.1	4098	
205.32	3556.6	
205.53	5939.8	
205.74	6004.6	
205.96	2925.2	
206.17	4329.4	
206.38	5884.5	
206.6	6109.1	
206.81	4864.6	
207.02	3895.2	
207.24	5762.3	
207.45	6227.9	
207.66	3927.3	
207.88	3381.2	
208.09	5720	
208.3	5530.9	
208.52	3592.8	
208.73	3964.9	
208.94	5545.2	
209.15	6249.7	
209.37	3994.9	
209.58	4191.5	
209.79	6095.4	
210.01	5279.7	
210.22	3090.4	
210.43	3448.1	
210.65	5541.8	
210.86	6014.9	
211.07	3994.9	
211.29	3656.3	
211.5	5921.4	
211.71	5464.7	
211.93	3667.9	
212.14	3629.7	
212.35	5436	
212.56	5713.8	
212.78	4245.4	
212.99	3506.1	
213.2	6524.1	
213.42	5208	
213.63	3758.7	
213.84	4093.9	
214.06	4834.6	
214.27	4977.9	
214.48	4005.1	
214.69	4246.8	
214.91	6209.4	
215.12	6283.9	
215.33	4276.2	
215.55	4774.5	
215.76	6839.5	
215.97	5965.7	
216.18	4084.3	
216.4	3998.3	
216.61	5143.8	
216.82	6074.3	
217.04	3655.6	
217.25	3841.3	
217.46	6182.8	
217.67	5892.7	
217.89	3294.5	
218.1	3401.7	
218.31	5677.7	
218.53	5733.6	
218.74	3822.2	
218.95	3657	
219.16	5444.2	
219.38	6441.5	
219.59	3711.6	
219.8	4522.6	
220.01	7236.8	
220.23	5560.9	
220.44	4872.8	
220.65	3648.1	
220.87	5586.2	
221.08	6193.7	
221.29	3394.2	
221.5	4545.1	
221.72	7680.6	
221.93	5211.4	
222.14	4225	
222.35	4987.5	
222.57	5643.5	
222.78	5909.8	
222.99	3933.5	
223.2	4280.9	
223.42	5894.7	
223.63	5996.5	
223.84	3048.7	
224.05	3048.1	
224.27	7061.4	
224.48	6555.5	
224.69	5003.2	
224.9	4205.2	
225.12	5739.1	
225.33	5498.8	
225.54	3375.7	
225.75	3719.8	
225.97	5033.2	
226.18	5433.3	
226.39	4040.6	
226.6	3820.1	
226.82	5210	
227.03	5089.2	
227.24	4218.8	
227.45	3489.1	
227.67	5902.2	
227.88	6556.2	
228.09	4644.1	
228.3	4707.6	
228.52	5982.1	
228.73	5486.5	
228.94	3859.1	
229.15	3452.9	
229.36	5471.5	
229.58	5327.4	
229.79	3891.1	
230	4627.7	
230.21	6593.1	
230.43	5617.6	
230.64	4121.2	
230.85	4390.8	
231.06	6040.8	
231.28	6026.5	
231.49	3427.6	
231.7	4074.8	
231.91	5850.4	
232.12	5584.8	
232.34	3529.3	
232.55	4076.8	
232.76	6214.2	
232.97	5716.6	
233.18	3675.4	
233.4	4128	
233.61	5801.9	
233.82	5236.7	
234.03	3865.2	
234.25	3821.5	
234.46	7716.7	
234.67	5532.9	
234.88	4270.7	
235.09	3677.5	
235.31	5831.9	
235.52	5411.4	
235.73	4139.6	
235.94	3441.3	
236.15	5197.7	
236.37	6759	
236.58	3644	
236.79	4031.1	
237	5848.3	
237.21	5022.3	
237.43	4281.6	
237.64	3379.1	
237.85	10217	
238.06	5040.1	
238.27	4382	
238.48	3456.3	
238.7	5881.1	
238.91	5402.5	
239.12	4000.4	
239.33	4108.9	
239.54	5089.2	
239.76	5447.6	
239.97	3902.1	
240.18	3985.3	
240.39	7000.6	
240.6	5784.1	
240.82	4117.8	
241.03	3424.9	
241.24	5470.1	
241.45	6434.7	
241.66	3642	
241.87	4314.4	
242.09	6304.3	
242.3	6692.1	
242.51	4407.2	
242.72	4017.4	
242.93	6010.8	
243.14	5432.6	
243.36	4662.5	
243.57	5054.4	
243.78	6446.3	
243.99	5716.6	
244.2	4036.5	
244.41	3713.7	
244.63	5014.1	
244.84	5867.4	
245.05	4235.9	
245.26	4038.6	
245.47	5810.1	
245.68	6100.2	
245.9	5379.3	
246.11	4223.6	
246.32	5362.9	
246.53	5748.6	
246.74	6581.5	
246.95	3308.2	
247.16	5036.6	
247.38	5555.5	
247.59	3361.4	
247.8	4041.3	
248.01	5162.2	
248.22	5413.5	
248.43	3620.8	
248.64	3933.5	
248.86	4825.7	
249.07	5209.3	
249.28	3469.3	
249.49	4105.5	
249.7	6096.1	
249.91	6277	
250.12	3272	
250.34	3327.3	
250.55	5685.2	
250.76	5491.3	
250.97	4151.2	
251.18	4201.1	
251.39	6255.9	
251.6	5717.2	
251.81	4272.7	
252.03	4188.8	
252.24	5299.5	
252.45	6098.9	
252.66	3416.7	
252.87	4384	
253.08	5555.5	
253.29	7354.9	
253.5	3440.6	
253.72	4852.3	
253.93	5378	
254.14	6617	
254.35	3788.7	
254.56	3872.7	
254.77	5751.4	
254.98	5091.3	
255.19	3786	
255.41	4863.9	
255.62	5620.3	
255.83	6235.4	
256.04	4346.5	
256.25	4239.3	
256.46	6597.9	
256.67	5174.5	
256.88	4154	
257.09	4641.4	
257.31	5188.2	
257.52	5203.2	
257.73	5201.2	
257.94	3801	
258.15	5343.2	
258.36	5516.5	
258.57	4840	
258.78	3016	
258.99	6061.3	
259.2	5399.8	
259.41	3837.9	
259.63	3926.6	
259.84	6426.5	
260.05	6956.3	
260.26	5122	
260.47	3749.8	
260.68	6156.2	
260.89	5403.2	
261.1	4592.9	
261.31	3651.5	
261.52	6165.8	
261.73	6481.8	
261.95	4943.1	
262.16	4347.8	
262.37	6258.6	
262.58	6328.2	
262.79	4988.2	
263	3908.9	
263.21	5612.1	
263.42	4985.4	
263.63	3920.5	
263.84	3907.5	
264.05	6161.7	
264.26	6521.4	
264.47	4792.9	
264.69	4155.3	
264.9	6204.7	
265.11	5761.6	
265.32	3697.9	
265.53	3789.4	
265.74	5652.4	
265.95	4915.8	
266.16	4115.1	
266.37	4544.4	
266.58	5662	
266.79	5324	
267	3751.9	
267.21	3545.7	
267.42	5103.5	
267.63	5577.3	
267.84	4020.2	
268.06	3448.1	
268.27	5980.8	
268.48	6300.9	
268.69	3910.3	
268.9	4672.1	
269.11	6240.8	
269.32	4978.6	
269.53	3994.2	
269.74	3693.2	
269.95	5921.4	
270.16	4835.9	
270.37	4053.6	
270.58	4651.6	
270.79	5366.4	
271	6098.9	
271.21	4365.6	
271.42	4024.9	
271.63	5657.2	
271.84	5248.3	
272.05	3175	
272.26	3571	
272.47	5560.2	
272.68	5823.7	
272.89	3809.9	
273.11	4478.2	
273.32	5337.7	
273.53	6535.1	
273.74	4410.6	
273.95	4281.6	
274.16	6224.5	
274.37	5634.6	
274.58	4410	
274.79	3459	
275	5626.5	
275.21	6201.2	
275.42	5193	
275.63	4532.2	
275.84	5819.6	
276.05	7398.6	
276.26	4242	
276.47	3968.3	
276.68	5364.3	
276.89	6611.5	
277.1	4603.8	
277.31	3511.6	
277.52	5789.6	
277.73	5982.1	
277.94	3460.4	
278.15	3866.6	
278.36	5706.3	
278.57	5134.9	
278.78	3839.3	
278.99	4320.5	
279.2	5136.3	
279.41	5095.3	
279.62	5109	
279.83	3520.5	
280.04	6864.8	
280.25	5029.8	
280.46	5018.2	
280.67	4026.3	
280.88	5105.6	
281.09	6252.4	
281.3	4278.2	
281.51	5370.5	
281.72	5240.1	
281.93	6072.2	
282.14	3743	
282.35	3986.7	
282.56	6018.3	
282.77	6060.6	
282.98	3895.2	
283.19	4761.5	
283.4	7450.5	
283.61	5483.8	
283.82	3485.6	
284.03	4971.8	
284.24	5634.6	
284.45	6238.8	
284.66	4984.1	
284.87	4783.4	
285.08	6147.3	
285.29	6300.9	
285.5	3392.1	
285.71	3961.5	
285.92	6265.4	
286.12	6905.1	
286.33	4967.7	
286.54	3894.6	
286.75	6045.6	
286.96	5419.6	
287.17	3560.1	
287.38	4913.1	
287.59	5169.1	
287.8	5056.4	
288.01	3876.8	
288.22	4531.5	
288.43	6098.2	
288.64	5098.1	
288.85	4640.7	
289.06	4448.9	
289.27	6003.3	
289.48	6478.4	
289.69	4977.9	
289.9	4493.9	
290.11	6257.9	
290.32	5225.7	
290.53	4805.2	
290.74	4362.2	
290.94	6019.7	
291.15	6072.9	
291.36	3756	
291.57	4506.2	
291.78	5297.4	
291.99	4854.4	
292.2	3548.4	
292.41	4405.2	
292.62	6105.7	
292.83	5851.7	
293.04	5465.3	
293.25	3618.8	
293.46	5323.4	
293.67	6163.7	
293.88	3761.4	
294.09	3648.8	
294.29	5060.5	
294.5	5687.9	
294.71	4041.3	
294.92	3805.1	
295.13	5316.5	
295.34	6722.1	
295.55	3363.4	
295.76	3450.1	
295.97	5953.4	
296.18	6795.2	
296.39	3528.7	
296.6	3771.7	
296.81	5616.9	
297.01	5992.4	
297.22	3909.6	
297.43	3723.2	
297.64	5199.1	
297.85	5156.8	
298.06	3069.9	
298.27	3338.9	
298.48	5619.6	
298.69	5229.8	
298.9	4079.6	
299.11	3660.4	
299.31	5001.8	
299.52	5052.3	
299.73	4394.9	
299.94	4252.3	
300.15	5492	
300.36	5147.2	
300.57	4317.8	
300.78	4287.8	
300.99	5420.3	
301.2	5664	
301.4	3707.5	
301.61	4085	
301.82	5855.1	
302.03	6006.7	
302.24	4627.7	
302.45	3573.7	
302.66	5841.5	
302.87	6380.1	
303.08	3792.8	
303.29	5106.3	
303.49	5313.8	
303.7	5536.3	
303.91	3368.2	
304.12	4914.4	
304.33	4993.6	
304.54	5658.5	
304.75	3751.9	
304.96	3551.2	
305.16	5926.1	
305.37	6630.6	
305.58	3254.2	
305.79	3417.4	
306	5859.2	
306.21	4932.2	
306.42	3673.4	
306.63	5750.7	
306.83	5379.3	
307.04	6189	
307.25	4171.7	
307.46	4162.2	
307.67	4723.3	
307.88	6002.6	
308.09	3666.5	
308.29	3917.8	
308.5	5638.1	
308.71	6159.6	
308.92	4039.3	
309.13	3612.6	
309.34	5427.8	
309.55	5504.9	
309.75	4691.9	
309.96	4371	
310.17	5940.5	
310.38	5243.5	
310.59	4549.2	
310.8	4232.5	
311.01	5332.9	
311.21	5416.9	
311.42	3562.1	
311.63	3680.9	
311.84	5309	
312.05	5704.3	
312.26	4231.1	
312.46	4605.9	
312.67	5330.2	
312.88	5029.1	
313.09	3665.2	
313.3	3525.9	
313.51	6379.4	
313.71	6766.5	
313.92	3625.6	
314.13	3881.6	
314.34	5650.3	
314.55	5425.8	
314.76	4680.3	
314.96	4099.4	
315.17	5597.1	
315.38	5950	
315.59	3629	
315.8	3487	
316.01	6500.9	
316.21	6485.2	
316.42	3465.2	
316.63	4075.5	
316.84	5423.7	
317.05	6315.3	
317.26	4256.4	
317.46	3811.3	
317.67	5525.4	
317.88	5961	
318.09	4661.2	
318.3	3321.1	
318.5	5245.5	
318.71	5875.6	
318.92	5966.4	
319.13	4242.7	
319.34	6094.8	
319.54	6214.9	
319.75	3362.1	
319.96	3213.3	
320.17	5922	
320.38	6122.1	
320.58	3283.6	
320.79	4001	
321	6158.2	
321.21	6325.5	
321.42	4014.7	
321.62	3270.6	
321.83	5153.4	
322.04	5580	
322.25	3839.3	
322.46	3661.8	
322.66	5661.3	
322.87	5815.5	
323.08	4515.8	
323.29	3580.5	
323.5	6635.4	
323.7	5072.8	
323.91	4956.1	
324.12	4481	
324.33	5607.3	
324.53	5939.8	
324.74	4325.3	
324.95	4582.7	
325.16	4876.9	
325.37	5317.9	
325.57	3637.2	
325.78	3676.8	
325.99	5561.6	
326.2	5058.5	
326.4	5333.6	
326.61	3363.4	
326.82	5494.7	
327.03	5650.3	
327.24	5236.7	
327.44	5003.2	
327.65	5774.6	
327.86	4660.5	
328.07	4264.6	
328.27	3485.6	
328.48	6223.8	
328.69	5085.8	
328.9	5234.6	
329.1	3911.6	
329.31	5431.9	
329.52	6485.2	
329.73	3624.9	
329.93	4112.3	
330.14	5540.4	
330.35	5877.7	
330.56	6027.9	
330.76	4502.8	
330.97	5404.6	
331.18	5786.2	
331.39	4024.3	
331.59	3267.9	
331.8	6135	
332.01	6317.3	
332.22	3801	
332.42	4313.7	
332.63	5666.7	
332.84	5300.8	
333.05	4070	
333.25	3700.7	
333.46	5288.5	
333.67	5608	
333.88	3827.7	
334.08	4261.1	
334.29	7408.9	
334.5	6255.9	
334.7	3525.2	
334.91	5246.2	
335.12	5095.3	
335.33	6011.5	
335.53	4037.2	
335.74	6016.2	
335.95	5253	
336.16	5170.4	
336.36	4108.9	
336.57	4627	
336.78	5005.2	
336.98	6143.9	
337.19	4956.1	
337.4	3958	
337.61	6784.2	
337.81	5052.3	
338.02	3732.1	
338.23	4876.9	
338.43	6344.6	
338.64	5134.3	
338.85	3660.4	
339.05	4872.8	
339.26	6386.9	
339.47	4938.3	
339.68	3638.6	
339.88	5445.5	
340.09	5776	
340.3	6018.3	
340.5	4246.1	
340.71	3264.5	
340.92	5005.9	
341.13	6371.2	
341.33	3549.8	
341.54	4347.8	
341.75	5818.3	
341.95	5476.3	
342.16	4047.5	
342.37	4451.6	
342.57	5120.6	
342.78	5530.9	
342.99	4614.1	
343.19	3239.2	
343.4	5945.9	
343.61	5819.6	
343.81	3935.5	
344.02	3563.5	
344.23	5979.4	
344.43	6440.9	
344.64	4541.7	
344.85	4423.6	
345.06	5892.7	
345.26	6170.5	
345.47	4224.3	
345.68	5040.1	
345.88	4824.3	
346.09	6034	
346.3	4362.2	
346.5	3302.7	
346.71	5489.2	
346.92	5241.4	
347.12	3286.3	
347.33	4197	
347.54	6148.7	
347.74	6541.2	
347.95	4182	
348.16	3104	
348.36	5333.6	
348.57	5006.6	
348.78	4102.1	
348.98	4496.7	
349.19	5496.7	
349.39	4969.7	
349.6	3336.8	
349.81	3728	
350.01	5825.1	
350.22	5240.8	
350.43	4005.1	
350.63	4855.7	
350.84	5564.3	
351.05	5307.7	
351.25	3620.1	
351.46	3286.3	
351.67	6161	
351.87	5202.5	
352.08	3947.8	
352.29	4426.3	
352.49	5982.8	
352.7	5721.3	
352.9	3540.3	
353.11	4446.1	
353.32	6736.5	
353.52	5319.9	
353.73	3465.2	
353.94	4500.1	
354.14	5787.6	
354.35	5670.8	
354.55	3623.5	
354.76	4016.7	
354.97	5825.1	
355.17	5574.6	
355.38	3327.3	
355.59	4771.8	
355.79	5119.2	
356	5640.1	
356.2	4030.4	
356.41	3463.1	
356.62	4854.4	
356.82	5397.8	
357.03	4246.8	
357.24	3809.9	
357.44	5186.1	
357.65	5309.7	
357.85	5218.9	
358.06	4020.2	
358.27	4929.5	
358.47	5108.3	
358.68	3295.2	
358.88	4242	
359.09	5687.9	
359.3	6134.3	
359.5	4962.2	
359.71	4343.1	
359.91	6621.8	
360.12	5966.4	
360.33	4199	
360.53	4743.8	
360.74	5121.3	
360.94	5170.4	
361.15	4440.7	
361.36	3619.4	
361.56	5910.4	
361.77	5393	
361.97	4904.9	
362.18	3870.7	
362.38	5991.7	
362.59	5025	
362.8	3508.2	
363	3335.5	
363.21	4776.5	
363.41	5506.3	
363.62	4062.5	
363.83	5197.1	
364.03	5575.9	
364.24	6636.8	
364.44	5213.4	
364.65	5274.2	
364.85	5298.1	
365.06	5214.8	
365.27	3717.7	
365.47	3749.8	
365.68	6324.1	
365.88	5267.4	
366.09	4117.1	
366.29	3758.7	
366.5	5518.6	
366.71	6016.2	
366.91	5119.9	
367.12	4285.7	
367.32	6595.1	
367.53	5862.7	
367.73	4145.1	
367.94	5294	
368.14	5780.7	
368.35	6769.2	
368.56	4178.5	
368.76	3845.4	
368.97	5881.8	
369.17	7734.5	
369.38	3607.8	
369.58	3998.3	
369.79	4917.2	
369.99	6307.1	
370.2	5014.8	
370.4	4051.6	
370.61	5571.8	
370.82	6767.2	
371.02	3874.1	
371.23	3209.8	
371.43	4777.9	
371.64	6147.3	
371.84	3923.9	
372.05	5184.8	
372.25	7568.6	
372.46	5937.7	
372.66	3940.3	
372.87	3835.8	
373.07	5886.5	
373.28	7595.2	
373.48	4979.3	
373.69	4683.7	
373.9	5309	
374.1	5328.1	
374.31	4945.2	
374.51	4412	
374.72	6221	
374.92	4963.6	
375.13	5021.6	
375.33	4186.7	
375.54	5689.3	
375.74	5162.9	
375.95	4205.2	
376.15	5573.2	
376.36	5729.5	
376.56	5543.9	
376.77	4258.4	
376.97	4753.3	
377.18	6752.8	
377.38	5700.9	
377.59	5158.2	
377.79	3733.4	
378	5539.1	
378.2	6044.2	
378.41	3779.9	
378.61	3692.5	
378.82	6025.8	
379.02	5057.8	
379.23	3985.3	
379.43	5097.4	
379.64	6081.1	
379.84	5657.2	
380.05	3758.7	
380.25	3735.5	
380.46	5847.6	
380.66	5453.1	
380.87	5270.1	
381.07	5556.1	
381.28	6575.3	
381.48	5809.4	
381.69	3803.8	
381.89	3865.9	
382.1	4747.2	
382.3	6022.4	
382.51	5020.3	
382.71	5913.2	
382.91	5847.6	
383.12	6503	
383.32	4151.2	
383.53	4470	
383.73	5705.6	
383.94	5468.1	
384.14	4324.6	
384.35	3444.7	
384.55	5433.9	
384.76	5944.6	
384.96	4179.9	
385.17	4539	
385.37	5825.1	
385.58	5128.1	
385.78	4576.5	
385.98	3381.9	
386.19	5345.2	
386.39	5725.4	
386.6	3917.8	
386.8	4239.3	
387.01	5829.9	
387.21	5860.6	
387.42	4661.2	
387.62	5221	
387.83	5122	
388.03	5841.5	
388.23	4240	
388.44	5063.9	
388.64	4749.2	
388.85	4905.6	
389.05	4582.7	
389.26	5210.7	
389.46	6836.8	
389.67	6217.6	
389.87	4549.2	
390.07	4575.2	
390.28	5458.5	
390.48	5018.2	
390.69	3775.8	
390.89	4085.7	
391.1	5195.7	
391.3	6154.8	
391.5	5304.9	
391.71	5997.1	
391.91	5827.8	
392.12	6931.7	
392.32	5359.5	
392.53	4560.8	
392.73	5206.6	
392.93	5418.9	
393.14	4225.6	
393.34	5026.4	
393.55	5939.1	
393.75	5500.8	
393.95	4259.8	
394.16	4216.8	
394.36	5188.9	
394.57	5967.8	
394.77	3662.5	
394.98	4158.1	
395.18	5079	
395.38	5140.4	
395.59	5103.5	
395.79	3863.2	
396	5201.8	
396.2	5691.3	
396.4	4822.3	
396.61	4595	
396.81	5983.5	
397.02	5148.6	
397.22	4994.3	
397.42	5025	
397.63	5900.9	
397.83	5029.1	
398.04	3799.7	
398.24	4344.4	
398.44	5687.2	
398.65	4665.3	
398.85	3611.3	
399.05	3781.2	
399.26	4969.7	
399.46	6774	
399.67	4119.1	
399.87	3843.4	
400.07	5384.1	
400.28	5801.9	
400.48	3891.1	
400.69	4997	
400.89	5943.2	
401.09	6403.3	
401.3	3764.2	
401.5	4958.8	
401.7	6651.8	
401.91	6905.8	
402.11	4199	
402.32	4474.1	
402.52	5995.8	
402.72	5964.4	
402.93	4671.4	
403.13	3437.9	
403.33	6819.1	
403.54	5541.1	
403.74	4343.1	
403.94	5300.1	
404.15	5590.3	
404.35	6757.6	
404.56	4033.8	
404.76	6011.5	
404.96	5972.6	
405.17	5803.9	
405.37	5430.5	
405.57	4555.4	
405.78	5974.6	
405.98	5427.8	
406.18	4082.3	
406.39	5038	
406.59	6002.6	
406.79	5593	
407	3889.1	
407.2	4089.8	
407.4	5997.1	
407.61	6151.4	
407.81	3975.1	
408.01	6115.2	
408.22	4883	
408.42	7014.3	
408.62	5027.8	
408.83	4354.7	
409.03	5373.2	
409.23	5236.7	
409.44	4444.8	
409.64	4771.8	
409.84	6300.2	
410.05	6044.9	
410.25	4586.1	
410.45	4291.9	
410.66	5561.6	
410.86	8261.5	
411.06	4632.5	
411.27	4513.7	
411.47	7937.2	
411.67	5698.1	
411.88	4828.4	
412.08	5021.6	
412.28	6352.1	
412.49	6881.9	
412.69	4416.1	
412.89	4447.5	
413.09	6715.3	
413.3	6490	
413.5	4502.1	
413.7	4118.5	
413.91	5787.6	
414.11	6617.7	
414.31	4303.5	
414.52	4757.4	
414.72	6318	
414.92	6163	
415.12	4346.5	
415.33	4861.2	
415.53	6545.3	
415.73	6760.3	
415.94	5252.4	
416.14	4661.2	
416.34	5514.5	
416.55	5235.3	
416.75	5971.9	
416.95	5317.9	
417.15	6485.9	
417.36	7322.9	
417.56	6076.3	
417.76	5045.5	
417.97	6925.5	
418.17	6523.5	
418.37	4633.2	
418.57	4711	
418.78	6279.8	
418.98	5990.3	
419.18	5657.9	
419.38	5554.1	
419.59	6007.4	
419.79	5647.6	
419.99	4554	
420.2	4971.8	
420.4	6524.8	
420.6	6728.9	
420.8	4450.9	
421.01	4373.8	
421.21	6280.4	
421.41	6492.1	
421.61	4877.6	
421.82	4600.4	
422.02	5782.8	
422.22	6821.1	
422.42	5349.3	
422.63	5109.7	
422.83	6012.8	
423.03	7182.9	
423.23	5119.9	
423.44	3999	
423.64	6012.8	
423.84	5811.5	
424.04	4511.7	
424.25	4144.4	
424.45	7046.4	
424.65	7002.7	
424.85	3938.2	
425.06	4586.8	
425.26	7013.6	
425.46	5917.3	
425.66	5074.2	
425.87	4770.4	
426.07	6791.1	
426.27	6579.4	
426.47	4857.8	
426.67	4280.3	
426.88	7133.8	
427.08	6523.5	
427.28	5133.6	
427.48	4218.8	
427.69	5414.1	
427.89	6094.8	
428.09	5147.2	
428.29	4246.8	
428.5	6854.6	
428.7	6357.6	
428.9	4083.6	
429.1	4815.5	
429.3	6221	
429.51	6610.2	
429.71	4485.1	
429.91	5251	
430.11	6442.2	
430.31	6683.9	
430.52	4707.6	
430.72	5040.7	
430.92	7077.8	
431.12	6501.6	
431.32	4399	
431.53	4849.6	
431.73	5383.4	
431.93	7260	
432.13	4326.7	
432.33	4083	
432.54	5825.1	
432.74	6207.4	
432.94	4031.8	
433.14	5208.7	
433.34	6346	
433.55	5798.5	
433.75	5068	
433.95	6873	
434.15	6208.1	
434.35	5807.4	
434.56	4327.4	
434.76	3679.5	
434.96	6105	
435.16	6275	
435.36	4074.8	
435.56	5185.5	
435.77	5717.9	
435.97	5935	
436.17	5969.8	
436.37	5222.3	
436.57	5694	
436.78	5569.1	
436.98	5810.1	
437.18	5792.3	
437.38	6324.8	
437.58	5976.7	
437.78	5964.4	
437.99	4531.5	
438.19	6521.4	
438.39	8069.7	
438.59	4500.1	
438.79	3994.2	
438.99	7133.8	
439.2	5885.2	
439.4	4143	
439.6	4003.1	
439.8	6276.3	
440	7301.7	
440.2	5104.2	
440.4	5182.7	
440.61	6561.7	
440.81	7094.2	
441.01	4101.4	
441.21	5098.1	
441.41	6900.3	
441.61	6560.3	
441.81	5345.2	
442.02	6483.2	
442.22	7409.6	
442.42	6676.4	
442.62	4182.6	
442.82	4336.2	
443.02	6898.2	
443.22	6023.8	
443.43	4683.7	
443.63	4201.1	
443.83	5776	
444.03	5896.1	
444.23	5393.7	
444.43	5071.5	
444.63	6094.1	
444.83	7484	
445.04	4263.2	
445.24	5687.9	
445.44	6564.4	
445.64	6688.7	
445.84	5229.1	
446.04	5145.9	
446.24	5907	
446.44	6967.9	
446.65	4386.7	
446.85	4728.8	
447.05	6364.4	
447.25	6898.9	
447.45	4859.1	
447.65	4190.8	
447.85	6222.4	
448.05	5969.8	
448.25	5248.3	
448.46	5018.9	
448.66	6325.5	
448.86	5957.5	
449.06	4039.3	
449.26	5279	
449.46	6650.4	
449.66	5598.5	
449.86	4741.7	
450.06	4747.2	
450.26	5806	
450.47	6440.2	
450.67	5003.9	
450.87	5366.4	
451.07	6508.4	
451.27	6223.8	
451.47	4270	
451.67	4906.3	
451.87	5857.2	
452.07	7192.5	
452.27	4491.9	
452.47	4500.8	
452.67	6289.3	
452.88	6873	
453.08	3830.4	
453.28	5964.4	
453.48	7439.6	
453.68	6122.7	
453.88	4386.7	
454.08	4622.3	
454.28	6505.7	
454.48	6153.5	
454.68	5107.6	
454.88	5737	
455.08	6636.8	
455.28	6265.4	
455.48	4272.1	
455.68	4829.8	
455.89	7135.8	
456.09	6748.7	
456.29	4543.1	
456.49	4502.8	
456.69	6890	
456.89	6156.9	
457.09	5037.3	
457.29	5412.1	
457.49	6430.6	
457.69	6619	
457.89	4797.7	
458.09	4215.4	
458.29	6110.5	
458.49	6877.1	
458.69	5222.3	
458.89	4588.1	
459.09	7068.9	
459.29	7283.3	
459.49	4794.3	
459.69	5590.3	
459.9	6732.4	
460.1	6135	
460.3	4675.5	
460.5	4459.1	
460.7	6533	
460.9	6268.8	
461.1	3991.5	
461.3	5369.8	
461.5	7214.3	
461.7	6771.9	
461.9	4369	
462.1	4917.9	
462.3	6257.9	
462.5	6997.9	
462.7	4478.2	
462.9	4465.9	
463.1	7840.3	
463.3	7443	
463.5	4707.6	
463.7	5576.6	
463.9	6269.5	
464.1	6745.3	
464.3	4711.7	
464.5	5019.6	
464.7	6983.6	
464.9	6577.4	
465.1	6391.7	
465.3	5279	
465.5	7353.6	
465.7	7234.8	
465.9	5510.4	
466.1	5490.6	
466.3	7003.4	
466.5	6907.1	
466.7	6289.3	
466.9	5105.6	
467.1	6774	
467.3	7787.7	
467.5	6218.3	
467.7	4949.9	
467.9	7963.2	
468.1	8921.6	
468.3	5879	
468.5	6220.4	
468.7	6670.2	
468.9	6723.5	
469.1	5234.6	
469.3	5976.7	
469.5	8727.8	
469.7	6243.6	
469.9	5857.2	
470.1	5005.2	
470.3	6705	
470.5	6673.6	
470.7	6346.7	
470.9	5010.7	
471.1	6478.4	
471.3	7023.2	
471.5	4853	
471.69	6916.7	
471.89	6361	
472.09	5893.4	
472.29	5797.8	
472.49	6184.2	
472.69	6079.7	
472.89	7095.5	
473.09	4774.5	
473.29	5057.1	
473.49	6271.6	
473.69	6537.8	
473.89	6012.2	
474.09	5175.9	
474.29	7834.2	
474.49	7521.5	
474.69	6029.9	
474.89	5321.3	
475.09	6535.1	
475.29	6445.6	
475.49	4756.1	
475.69	4984.8	
475.88	8217.8	
476.08	6817.7	
476.28	4616.1	
476.48	5255.8	
476.68	7375.4	
476.88	7178.1	
477.08	5027.1	
477.28	5320.6	
477.48	6712.6	
477.68	7461.4	
477.88	4815.5	
478.08	5202.5	
478.28	7664.2	
478.48	6778.1	
478.67	5267.4	
478.87	4704.9	
479.07	7466.9	
479.27	6940.6	
479.47	5486.5	
479.67	5441.5	
479.87	7294.9	
480.07	7903.8	
480.27	4601.1	
480.47	6416.3	
480.67	6943.3	
480.87	7548.8	
481.06	5011.4	
481.26	5939.8	
481.46	6831.3	
481.66	6746	
481.86	5444.9	
482.06	6599.9	
482.26	6607.4	
482.46	7464.8	
482.66	5406.6	
482.86	4954.7	
483.05	6861.4	
483.25	6298.9	
483.45	7913.4	
483.65	5386.8	
483.85	6503.7	
484.05	6805.4	
484.25	5860.6	
484.45	6254.5	
484.65	7696.9	
484.84	7662.8	
485.04	5253	
485.24	5206.6	
485.44	7950.2	
485.64	6165.8	
485.84	4414.1	
486.04	5922.7	
486.24	6498.9	
486.44	6966.5	
486.63	4404.5	
486.83	5220.3	
487.03	6351.4	
487.23	6620.4	
487.43	4560.1	
487.63	7059.3	
487.83	6670.9	
488.02	7697.6	
488.22	5469.4	
488.42	6168.5	
488.62	7630	
488.82	6486.6	
489.02	5188.9	
489.22	5156.1	
489.41	7459.4	
489.61	6984.9	
489.81	4844.8	
490.01	4925.4	
490.21	7353.6	
490.41	8020.5	
490.61	4816.8	
490.8	5014.1	
491	6737.1	
491.2	6093.4	
491.4	5694	
491.6	4752.7	
491.8	6836.1	
491.99	7031.4	
492.19	4579.3	
492.39	5036	
492.59	7406.8	
492.79	7498.3	
492.99	5818.3	
493.18	4905.6	
493.38	7447.1	
493.58	8134.5	
493.78	5677.7	
493.98	5194.3	
494.18	7029.3	
494.37	6464.1	
494.57	5801.9	
494.77	5619.6	
494.97	7184.3	
495.17	7466.9	
495.37	5036	
495.56	5378.6	
495.76	7633.5	
495.96	7208.2	
496.16	6376	
496.36	5183.4	
496.55	7359.7	
496.75	6899.6	
496.95	5578	
497.15	5460.6	
497.35	7342	
497.54	7352.9	
497.74	5246.9	
497.94	6959	
498.14	8059.4	
498.34	7879.9	
498.53	4905.6	
498.73	5771.2	
498.93	6612.9	
499.13	7311.2	
499.33	5425.1	
499.52	5991.7	
499.72	7191.8	
499.92	7585.7	
500.12	5126.7	
500.32	5395.7	
500.51	7561.8	
500.71	7227.3	
500.91	6193.7	
501.11	5882.4	
501.31	7439.6	
501.5	7854	
501.7	6488.6	
501.9	5494.7	
502.1	7266.9	
502.29	7591.1	
502.49	5926.1	
502.69	6435.4	
502.89	7350.2	
503.09	7495.6	
503.28	4993.6	
503.48	5129.5	
503.68	6626.5	
503.88	6680.5	
504.07	6135	
504.27	5630.5	
504.47	7150.1	
504.67	7266.2	
504.86	6140.5	
505.06	5771.9	
505.26	6839.5	
505.46	8713.4	
505.65	5610.1	
505.85	5908.4	
506.05	6821.1	
506.25	7350.8	
506.44	4978.6	
506.64	6110.5	
506.84	6759	
507.04	7730.4	
507.23	5275.6	
507.43	5900.2	
507.63	8830.2	
507.83	7053.9	
508.02	5833.3	
508.22	5474.9	
508.42	9074.5	
508.62	6803.4	
508.81	5814.2	
509.01	6290	
509.21	6726.2	
509.4	6949.4	
509.6	6002.6	
509.8	5285.8	
510	6935.1	
510.19	8477.2	
510.39	5281.7	
510.59	5371.8	
510.79	6633.4	
510.98	8157.1	
511.18	5423	
511.38	5489.9	
511.57	7590.5	
511.77	7436.2	
511.97	6270.9	
512.17	5205.9	
512.36	7532.4	
512.56	7614.3	
512.76	5257.8	
512.95	5063.3	
513.15	7649.8	
513.35	6225.8	
513.55	6208.1	
513.74	5259.2	
513.94	7662.1	
514.14	6926.9	
514.33	6277	
514.53	6036.7	
514.73	6926.2	
514.92	7148.8	
515.12	5436.7	
515.32	5271.5	
515.51	7192.5	
515.71	7772.7	
515.91	6981.5	
516.11	5376.6	
516.3	9073.9	
516.5	6833.4	
516.7	5878.4	
516.89	6520.7	
517.09	6993.1	
517.29	6804.7	
517.48	6230.6	
517.68	5565.7	
517.88	6631.3	
518.07	7312.6	
518.27	6160.3	
518.47	5124	
518.66	7873.8	
518.86	6465.4	
519.06	4982.7	
519.25	5466.7	
519.45	6765.8	
519.65	8371.4	
519.84	6085.2	
520.04	6781.5	
520.24	8811.7	
520.43	7544	
520.63	5816.9	
520.83	5481	
521.02	6670.2	
521.22	7397.9	
521.42	6197.8	
521.61	6683.9	
521.81	6978.8	
522.01	7199.3	
522.2	5974.6	
522.4	5821	
522.6	7591.1	
522.79	6437.4	
522.99	5815.5	
523.18	5024.3	
523.38	7349.5	
523.58	7318.8	
523.77	7165.2	
523.97	4976.6	
524.17	9178.3	
524.36	8308.6	
524.56	6349.4	
524.76	6047.7	
524.95	7206.8	
525.15	6802.7	
525.34	5711.1	
525.54	5694	
525.74	7579.5	
525.93	6476.4	
526.13	6922.8	
526.33	5662.6	
526.52	7886.7	
526.72	7318.8	
526.91	6937.8	
527.11	6102.3	
527.31	7911.3	
527.5	8277.9	
527.7	6005.3	
527.89	4904.9	
528.09	6668.2	
528.29	7212.3	
528.48	6380.1	
528.68	6055.2	
528.87	7715.4	
529.07	7762.5	
529.27	5949.3	
529.46	5441.5	
529.66	7269.6	
529.85	7712.7	
530.05	5208.7	
530.25	6082.5	
530.44	8762.6	
530.64	7273.7	
530.83	5760.9	
531.03	5960.3	
531.23	7746.1	
531.42	7582.9	
531.62	6737.1	
531.81	5805.3	
532.01	7696.9	
532.21	8283.4	
532.4	5448.3	
532.6	5894.1	
532.79	8527.1	
532.99	7701.7	
533.18	5935.7	
533.38	7021.8	
533.58	7121.5	
533.77	8065.6	
533.97	5752.1	
534.16	6696.9	
534.36	8243.8	
534.55	7198.6	
534.75	6920.1	
534.95	5836.7	
535.14	8047.8	
535.34	7223.2	
535.53	5547.3	
535.73	7590.5	
535.92	8550.3	
536.12	7537.9	
536.31	5709.1	
536.51	6935.8	
536.71	7793.9	
536.9	7387.7	
537.1	5863.3	
537.29	5996.5	
537.49	8273.1	
537.68	7195.9	
537.88	6339.8	
538.07	5506.3	
538.27	7417.7	
538.46	8542.8	
538.66	5418.9	
538.86	5844.2	
539.05	7458.7	
539.25	7965.9	
539.44	6125.5	
539.64	5836.7	
539.83	7291.5	
540.03	8349.6	
540.22	5636	
540.42	5790.3	
540.61	7659.4	
540.81	7775.5	
541	6371.2	
541.2	7032	
541.39	7174.7	
541.59	7612.3	
541.78	6569.2	
541.98	5723.4	
542.18	6814.3	
542.37	6843.6	
542.57	6133.7	
542.76	6671.6	
542.96	6876.4	
543.15	7787.7	
543.35	6158.9	
543.54	5564.3	
543.74	8027.4	
543.93	7567.2	
544.13	6265.4	
544.32	7416.4	
544.52	8065.6	
544.71	7129	
544.91	5303.6	
545.1	6708.5	
545.3	7190.4	
545.49	7879.9	
545.69	5208.7	
545.88	5923.4	
546.08	8880	
546.27	8566	
546.47	6488.6	
546.66	5691.3	
546.86	8156.4	
547.05	8854.1	
547.24	5945.9	
547.44	5735.7	
547.63	7030.7	
547.83	8262.2	
548.02	6221	
548.22	6442.9	
548.41	6857.3	
548.61	8242.4	
548.8	5727.5	
549	5685.8	
549.19	7584.3	
549.39	7866.9	
549.58	5474.9	
549.78	6107	
549.97	7941.3	
550.17	7449.8	
550.36	6965.1	
550.55	8077.9	
550.75	7468.3	
550.94	8481.3	
551.14	5713.2	
551.33	6190.3	
551.53	6810.9	
551.72	7925.6	
551.92	6228.6	
552.11	5872.2	
552.31	7869.7	
552.5	7894.2	
552.69	7759.1	
552.89	5572.5	
553.08	7848.5	
553.28	7579.5	
553.47	6001.9	
553.67	7207.5	
553.86	8633.6	
554.06	6810.2	
554.25	5173.2	
554.44	5773.9	
554.64	9407.7	
554.83	8809.7	
555.03	5726.1	
555.22	6169.2	
555.42	8090.8	
555.61	7807.5	
555.8	5926.1	
556	6301.6	
556.19	6895.5	
556.39	8315.4	
556.58	6026.5	
556.78	6066.8	
556.97	7712	
557.16	7411.6	
557.36	7303.1	
557.55	5628.5	
557.75	6626.5	
557.94	8538	
558.13	5741.1	
558.33	5520	
558.52	8385.7	
558.72	7178.1	
558.91	5674.2	
559.1	5890	
559.3	6871.6	
559.49	6673.6	
559.69	5171.1	
559.88	6369.2	
560.07	7746.8	
560.27	8120.9	
560.46	6454.5	
560.66	6644.3	
560.85	7576.1	
561.04	6662.7	
561.24	5596.4	
561.43	5847.6	
561.63	6991.1	
561.82	7314	
562.01	7188.4	
562.21	6203.3	
562.4	7811.6	
562.59	8763.3	
562.79	6032	
562.98	5646.2	
563.18	7616.4	
563.37	9195.4	
563.56	6534.4	
563.76	5510.4	
563.95	7071	
564.14	6902.3	
564.34	5971.2	
564.53	5793.7	
564.73	7581.6	
564.92	7946.1	
565.11	6087.2	
565.31	5453.7	
565.5	8214.4	
565.69	7060	
565.89	5702.9	
566.08	5971.2	
566.27	8110	
566.47	8469.7	
566.66	6582.9	
566.85	5285.1	
567.05	7613.7	
567.24	6903.7	
567.44	5537	
567.63	7095.5	
567.82	7879.9	
568.02	7591.1	
568.21	5600.5	
568.4	6041.5	
568.6	7397.3	
568.79	7600.7	
568.98	5388.2	
569.18	5580	
569.37	7305.8	
569.56	9467.1	
569.76	5909.1	
569.95	6920.1	
570.14	7769.3	
570.34	7705.1	
570.53	5515.2	
570.72	5440.8	
570.91	8284.7	
571.11	7363.8	
571.3	6040.1	
571.49	6979.5	
571.69	7345.4	
571.88	6954.9	
572.07	6497.5	
572.27	6519.4	
572.46	6898.2	
572.65	8077.9	
572.85	5614.8	
573.04	6101.6	
573.23	8210.3	
573.43	7585	
573.62	5421.7	
573.81	6119.3	
574	7485.3	
574.2	7243	
574.39	5814.2	
574.58	6015.6	
574.78	8367.3	
574.97	7603.4	
575.16	6281.8	
575.36	6554.2	
575.55	7894.2	
575.74	8114.1	
575.93	5425.8	
576.13	6532.3	
576.32	7285.3	
576.51	7942.7	
576.71	5813.5	
576.9	7220.5	
577.09	8289.5	
577.28	7713.3	
577.48	6402	
577.67	5324.7	
577.86	7357.7	
578.05	7692.2	
578.25	6016.9	
578.44	6106.4	
578.63	7478.5	
578.83	8697	
579.02	5322	
579.21	6966.5	
579.4	7691.5	
579.6	7298.3	
579.79	6225.8	
579.98	8473.8	
580.17	8131.1	
580.37	8129.1	
580.56	5620.3	
580.75	6429.9	
580.94	8602.8	
581.14	8493.6	
581.33	6849.8	
581.52	5747.3	
581.71	7903.1	
581.91	8739.4	
582.1	5318.6	
582.29	6057.9	
582.48	7428	
582.68	7436.2	
582.87	6586.3	
583.06	6212.2	
583.25	7830.1	
583.45	7307.8	
583.64	6817.7	
583.83	7630	
584.02	7335.8	
584.21	7851.9	
584.41	6850.5	
584.6	6108.4	
584.79	7610.9	
584.98	8366.6	
585.18	5525.4	
585.37	5490.6	
585.56	7067.5	
585.75	7912	
585.94	5765	
586.14	6492.1	
586.33	8593.3	
586.52	7593.9	
586.71	6445	
586.91	6100.9	
587.1	6961	
587.29	8122.2	
587.48	6027.2	
587.67	5847	
587.87	7881.3	
588.06	8001.4	
588.25	7311.2	
588.44	6522.1	
588.63	7630	
588.83	8211	
589.02	5925.5	
589.21	5825.1	
589.4	7361.8	
589.59	7143.3	
589.78	5113.1	
589.98	5386.8	
590.17	6961	
590.36	7505.1	
590.55	4903.5	
590.74	5910.4	
590.94	9054.8	
591.13	7587.7	
591.32	5572.5	
591.51	5208.7	
591.7	8049.2	
591.89	7431.4	
592.09	5233.9	
592.28	5754.8	
592.47	6607.4	
592.66	8559.1	
592.85	5198.4	
593.05	5491.3	
593.24	7295.5	
593.43	8034.9	
593.62	5524.1	
593.81	6075.6	
594	7249.8	
594.19	7524.9	
594.39	5436	
594.58	5348.6	
594.77	7599.3	
594.96	8333.2	
595.15	5410.1	
595.34	6146	
595.54	7731.8	
595.73	6794.5	
595.92	4732.2	
596.11	6049.7	
596.3	8368	
596.49	6892.8	
596.68	5658.5	
596.88	6246.3	
597.07	8077.2	
597.26	6698.2	
597.45	5242.1	
597.64	6457.9	
597.83	6984.9	
598.02	7673.1	
598.22	5399.1	
598.41	6158.9	
598.6	7408.2	
598.79	6868.9	
598.98	5394.3	
599.17	6449.7	
599.36	7430	
599.55	8779.6	
599.74	7604.8	
599.94	7320.8	
600.13	8094.9	
600.32	6832.7	
600.51	5137	
600.7	5309	
600.89	8752.3	
601.08	8783.1	
601.27	5030.5	
601.47	6130.3	
601.66	7993.2	
601.85	8740	
602.04	5777.3	
602.23	6010.8	
602.42	7010.2	
602.61	7679.2	
602.8	5699.5	
602.99	5573.2	
603.18	7410.9	
603.37	7741.3	
603.57	6168.5	
603.76	6821.8	
603.95	8490.9	
604.14	7998.7	
604.33	5606	
604.52	6004	
604.71	7592.5	
604.9	7200.7	
605.09	6561	
605.28	6399.9	
605.47	8215.1	
605.66	7942	
605.86	6178	
606.05	5551.4	
606.24	8286.8	
606.43	6688	
606.62	5864	
606.81	6756.9	
607	8049.9	
607.19	7284.6	
607.38	5356.8	
607.57	5625.8	
607.76	7184.3	
607.95	6621.1	
608.14	6099.5	
608.33	6713.9	
608.52	7168.6	
608.72	8048.5	
608.91	5304.2	
609.1	5240.1	
609.29	7236.2	
609.48	6734.4	
609.67	6343.9	
609.86	5274.2	
610.05	6905.8	
610.24	7262.8	
610.43	5130.2	
610.62	4839.4	
610.81	8441.7	
611	8238.3	
611.19	5259.2	
611.38	6075.6	
611.57	7613	
611.76	8970.8	
611.95	5106.3	
612.14	4934.9	
612.33	7315.3	
612.52	6877.8	
612.71	5723.4	
612.9	4821.6	
613.09	6444.3	
613.28	8927.8	
613.47	5368.4	
613.66	6430.6	
613.85	7477.8	
614.04	7050.5	
614.24	5510.4	
614.43	4700.1	
614.62	7674.4	
614.81	7536.5	
615	6079.1	
615.19	6148.7	
615.38	6844.3	
615.57	7186.3	
615.76	5903.6	
615.95	6985.6	
616.14	7605.5	
616.33	7326.3	
616.52	6286.6	
616.71	6677.7	
616.9	7598	
617.09	7472.4	
617.28	5565.7	
617.47	6993.1	
617.66	6721.4	
617.85	6712.6	
618.04	6516	
618.22	6014.9	
618.41	6940.6	
618.6	8011.7	
618.79	5875.6	
618.98	5491.3	
619.17	8241	
619.36	6537.8	
619.55	5640.1	
619.74	5702.9	
619.93	7440.3	
620.12	6836.1	
620.31	6315.9	
620.5	6433.4	
620.69	8092.9	
620.88	8503.2	
621.07	7219.1	
621.26	6126.8	
621.45	7654.6	
621.64	7600.7	
621.83	6249	
622.02	5345.2	
622.21	7660.1	
622.4	7449.1	
622.59	6837.5	
622.78	6596.5	
622.97	7008.8	
623.16	8101.8	
623.35	6106.4	
623.54	5348.6	
623.72	7250.5	
623.91	7473.7	
624.1	6468.9	
624.29	5089.2	
624.48	8585.1	
624.67	7756.3	
624.86	6464.8	
625.05	5352	
625.24	8661.5	
625.43	6916.7	
625.62	8122.9	
625.81	5532.9	
626	7940.7	
626.19	7238.2	
626.38	6317.3	
626.56	5719.3	
626.75	7053.2	
626.94	7815.7	
627.13	6327.5	
627.32	5042.8	
627.51	7742.7	
627.7	9344.9	
627.89	5203.2	
628.08	6369.9	
628.27	6927.6	
628.46	7113.3	
628.65	5540.4	
628.83	5099.4	
629.02	7778.2	
629.21	6933.7	
629.4	5881.8	
629.59	6172.6	
629.78	6938.5	
629.97	8001.4	
630.16	6255.2	
630.35	5664	
630.54	8381	
630.72	8157.1	
630.91	5634.6	
631.1	6322.8	
631.29	7542	
631.48	7739.3	
631.67	6389	
631.86	5818.3	
632.05	7092.1	
632.24	7221.8	
632.42	5453.1	
632.61	6023.8	
632.8	7327.6	
632.99	6905.1	
633.18	6045.6	
633.37	6496.8	
633.56	7540.6	
633.75	7366.5	
633.93	6025.8	
634.12	5711.1	
634.31	8417.2	
634.5	8032.8	
634.69	5717.9	
634.88	6339.1	
635.07	7325.6	
635.25	7946.1	
635.44	6821.8	
635.63	6978.1	
635.82	7159	
636.01	6719.4	
636.2	6715.3	
636.39	6247	
636.57	8418.5	
636.76	8135.9	
636.95	5587.5	
637.14	7111.9	
637.33	7692.2	
637.52	8793.3	
637.7	5412.8	
637.89	6359.6	
638.08	7255.3	
638.27	8856.8	
638.46	6522.8	
638.65	6977.4	
638.83	8862.9	
639.02	7104.4	
639.21	6428.6	
639.4	6903	
639.59	7655.3	
639.78	7138.5	
639.96	5687.2	
640.15	5675.6	
640.34	7520.1	
640.53	7654.6	
640.72	5390.9	
640.91	5769.1	
641.09	6933.1	
641.28	8377.6	
641.47	5754.1	
641.66	6604.7	
641.85	7626.6	
642.03	7960.5	
642.22	6439.5	
642.41	5894.7	
642.6	7043	
642.79	6401.3	
642.97	5666	
643.16	6403.3	
643.35	7062.8	
643.54	6787.7	
643.73	5562.3	
643.91	6437.4	
644.1	6712.6	
644.29	7318.1	
644.48	5671.5	
644.67	5667.4	
644.85	6897.6	
645.04	7223.2	
645.23	5268.7	
645.42	5470.8	
645.6	6752.8	
645.79	8100.4	
645.98	5618.3	
646.17	4519.9	
646.36	6572.6	
646.54	7256.6	
646.73	6511.9	
646.92	5244.2	
647.11	6799.3	
647.29	7941.3	
647.48	5301.5	
647.67	5096	
647.86	8350.9	
648.05	8268.3	
648.23	5698.1	
648.42	7081.2	
648.61	7591.8	
648.8	7275.1	
648.98	5358.2	
649.17	5679	
649.36	6817	
649.55	6348.7	
649.73	5354.1	
649.92	6161.7	
650.11	6774	
650.3	7060.7	
650.48	5479	
650.67	5187.5	
650.86	7391.1	
651.05	6262.7	
651.23	5455.8	
651.42	5483.8	
651.61	6856.6	
651.79	7029.3	
651.98	5707.7	
652.17	5361.6	
652.36	7358.4	
652.54	6433.4	
652.73	5342.5	
652.92	5177.3	
653.11	7397.3	
653.29	7421.2	
653.48	4585.4	
653.67	5676.3	
653.85	7139.9	
654.04	8313.4	
654.23	5924.8	
654.42	5388.9	
654.6	6627.9	
654.79	7351.5	
654.98	4955.4	
655.16	5589.6	
655.35	6327.5	
655.54	6275.7	
655.73	5082.4	
655.91	5006.6	
656.1	7581.6	
656.29	6294.1	
656.47	4570.4	
656.66	6405.4	
656.85	6565.1	
657.03	6629.3	
657.22	5082.4	
657.41	5162.9	
657.59	6654.5	
657.78	6394.4	
657.97	4728.8	
658.16	5528.8	
658.34	7348.8	
658.53	7750.2	
658.72	6500.3	
658.9	7051.8	
659.09	6631.3	
659.28	6829.3	
659.46	5207.3	
659.65	5209.3	
659.84	6539.8	
660.02	7032	
660.21	5061.9	
660.4	5014.8	
660.58	7561.1	
660.77	6963.1	
660.96	5649.7	
661.14	4614.1	
661.33	8043.1	
661.52	7891.5	
661.7	4689.2	
661.89	8561.9	
662.08	6440.9	
662.26	6079.1	
662.45	4965	
662.64	5046.9	
662.82	7193.1	
663.01	6283.2	
663.2	5115.1	
663.38	5886.5	
663.57	7073	
663.75	6913.3	
663.94	5446.9	
664.13	6836.8	
664.31	6438.8	
664.5	7202.7	
664.69	5603.2	
664.87	6373.3	
665.06	6189.6	
665.25	7068.9	
665.43	6542.6	
665.62	6686.6	
665.8	7387	
665.99	6636.1	
666.18	5476.3	
666.36	5601.2	
666.55	7280.5	
666.74	7165.8	
666.92	5063.3	
667.11	6914.6	
667.29	6582.2	
667.48	7307.2	
667.67	6404	
667.85	5509.7	
668.04	6683.2	
668.22	6673.6	
668.41	5531.6	
668.6	5612.1	
668.78	6518	
668.97	6627.9	
669.15	5939.1	
669.34	4787.5	
669.53	6425.2	
669.71	6783.6	
669.9	5102.2	
670.08	5735.7	
670.27	6398.5	
670.46	7152.2	
670.64	5956.2	
670.83	6216.3	
671.01	6295.5	
671.2	7020.4	
671.38	5135.6	
671.57	5001.1	
671.76	7718.1	
671.94	8340	
672.13	4988.9	
672.31	6139.1	
672.5	7224.6	
672.69	6476.4	
672.87	5158.2	
673.06	5372.5	
673.24	7062.1	
673.43	6462.7	
673.61	5950.7	
673.8	5361.6	
673.98	7291.5	
674.17	7494.2	
674.36	6066.8	
674.54	5868.1	
674.73	6941.2	
674.91	7239.6	
675.1	5578.7	
675.28	5212.8	
675.47	6760.3	
675.65	7344	
675.84	5468.1	
676.03	5806.7	
676.21	6549.4	
676.4	6038.1	
676.58	6330.3	
676.77	6018.3	
676.95	8045.1	
677.14	6470.9	
677.32	5099.4	
677.51	4846.9	
677.69	7305.1	
677.88	6062.7	
678.06	4937	
678.25	5061.9	
678.44	6759.7	
678.62	6498.2	
678.81	4836.6	
678.99	5872.2	
679.18	7646.4	
679.36	7192.5	
679.55	5416.9	
679.73	6103.6	
679.92	7133.8	
680.1	6487.3	
680.29	6726.2	
680.47	5451	
680.66	6483.9	
680.84	7335.1	
681.03	4665.3	
681.21	5812.1	
681.4	6488	
681.58	6429.3	
681.77	5194.3	
681.95	5139.7	
682.14	7386.3	
682.32	7725.6	
682.51	6122.1	
682.69	4902.8	
682.88	6392.4	
683.06	7159.7	
683.25	5765.7	
683.43	6232.7	
683.62	6699.6	
683.8	7133.8	
683.99	6321.4	
684.17	5587.5	
684.36	7958.4	
684.54	6567.8	
684.73	4631.1	
684.91	4952	
685.1	6955.6	
685.28	6326.9	
685.46	5537	
685.65	5798.5	
685.83	7294.9	
686.02	6624.5	
686.2	5130.2	
686.39	5220.3	
686.57	6482.5	
686.76	7980.9	
686.94	5064.6	
687.13	5236.7	
687.31	7094.2	
687.5	6654.5	
687.68	4644.1	
687.86	6075.6	
688.05	8307.2	
688.23	6047	
688.42	6051.1	
688.6	5130.2	
688.79	6479.1	
688.97	6488.6	
689.16	5583.4	
689.34	4487.1	
689.52	7307.8	
689.71	7535.2	
689.89	5875.6	
690.08	5098.8	
690.26	6735.8	
690.45	6632.7	
690.63	6029.9	
690.81	5226.4	
691	6370.5	
691.18	6346	
691.37	5396.4	
691.55	7842.4	
691.74	6338.5	
691.92	8516.8	
692.1	5479.7	
692.29	4818.2	
692.47	6651.8	
692.66	5893.4	
692.84	5076.2	
693.02	5791	
693.21	6040.8	
693.39	6558.3	
693.58	5830.6	
693.76	5249.6	
693.94	7838.9	
694.13	7646.4	
694.31	5190.2	
694.5	6258.6	
694.68	6382.8	
694.86	6651.1	
695.05	5463.3	
695.23	5618.9	
695.42	7058	
695.6	9487.6	
695.78	6071.5	
695.97	5175.9	
696.15	7071	
696.34	6498.2	
696.52	4870.1	
696.7	5912.5	
696.89	6842.3	
697.07	6236.7	
697.25	5657.2	
697.44	7369.3	
697.62	6817	
697.81	7237.5	
697.99	5399.1	
698.17	5892.7	
698.36	6124.8	
698.54	6909.8	
698.72	5774.6	
698.91	4668	
699.09	6416.3	
699.28	6338.5	
699.46	5436	
699.64	5287.2	
699.83	6237.4	
700.01	7593.2	
700.19	5977.3	
700.38	4450.9	
700.56	7534.5	
700.74	6358.3	
700.93	4914.4	
701.11	5730.2	
701.29	6956.9	
701.48	8047.2	
701.66	5130.2	
701.84	5152	
702.03	6428.6	
702.21	7135.8	
702.39	4636.6	
702.58	5257.8	
702.76	6832	
702.94	6945.3	
703.13	4644.1	
703.31	7228	
703.49	6094.1	
703.68	7165.8	
703.86	4801.8	
704.04	5905.7	
704.23	6635.4	
704.41	7178.1	
704.59	5051.7	
704.78	6380.8	
704.96	7804.8	
705.14	7126.9	
705.33	4844.8	
705.51	5743.2	
705.69	6574	
705.87	7422.5	
706.06	6025.8	
706.24	4799.1	
706.42	6809.5	
706.61	7105.1	
706.79	6084.5	
706.97	4848.2	
707.16	6243.6	
707.34	6945.3	
707.52	5968.5	
707.7	5057.8	
707.89	6475.7	
708.07	6109.8	
708.25	6053.8	
708.44	6075.6	
708.62	6377.4	
708.8	7518.8	
708.98	6270.9	
709.17	5182.7	
709.35	6745.3	
709.53	6783.6	
709.72	4793.6	
709.9	4992.9	
710.08	7008.8	
710.26	7049.8	
710.45	6604.7	
710.63	5107	
710.81	6647.7	
710.99	6751.5	
711.18	5843.5	
711.36	5306.3	
711.54	6432	
711.72	7235.5	
711.91	5423	
712.09	4743.1	
712.27	6672.3	
712.45	7435.5	
712.64	5743.9	
712.82	4571.7	
713	6075	
713.18	6328.2	
713.37	4692.6	
713.55	6002.6	
713.73	7240.3	
713.91	5775.3	
714.1	5166.3	
714.28	4607.2	
714.46	6877.1	
714.64	6081.1	
714.83	4111.6	
715.01	4979.3	
715.19	6285.9	
715.37	5639.4	
715.55	4670.1	
715.74	5038	
715.92	7252.5	
716.1	5096.7	
716.28	6248.4	
716.47	5283.8	
716.65	5862	
716.83	6077	
717.01	5116.5	
717.19	5205.9	
717.38	8292.2	
717.56	5696.1	
717.74	5380	
717.92	4422.2	
718.1	7011.6	
718.29	6137.1	
718.47	4069.3	
718.65	4743.1	
718.83	6769.9	
719.01	6704.4	
719.2	3895.2	
719.38	5060.5	
719.56	6399.2	
719.74	8038.3	
719.92	4473.4	
720.11	5640.1	
720.29	6391.7	
720.47	5429.2	
720.65	4140.3	
720.83	5072.8	
721.02	5966.4	
721.2	5672.2	
721.38	5156.1	
721.56	4339.6	
721.74	5182	
721.92	5416.9	
722.11	5717.9	
722.29	5316.5	
722.47	6698.2	
722.65	5838.1	
722.83	4407.2	
723.01	5386.2	
723.2	5961.6	
723.38	6224.5	
723.56	3758.7	
723.74	5025	
723.92	5424.4	
724.1	6597.9	
724.29	4327.4	
724.47	5560.2	
724.65	5446.9	
724.83	5450.3	
725.01	4210.6	
725.19	5229.8	
725.37	5507	
725.56	5621	
725.74	4087.7	
725.92	4334.9	
726.1	5383.4	
726.28	5760.9	
726.46	4902.8	
726.64	4549.9	
726.83	5695.4	
727.01	6045.6	
727.19	4027	
727.37	4977.2	
727.55	5783.5	
727.73	6399.9	
727.91	4001	
728.09	3891.1	
728.28	6457.2	
728.46	7077.8	
728.64	5083.7	
728.82	5006.6	
729	7645.1	
729.18	6797.9	
729.36	4205.8	
729.54	6684.6	
729.72	7858.1	
729.91	5982.8	
730.09	6201.9	
730.27	4932.2	
730.45	5905	
730.63	6595.1	
730.81	5515.9	
730.99	4490.5	
731.17	7146.7	
731.35	5578.7	
731.53	5085.8	
731.71	4622.9	
731.9	6795.8	
732.08	7051.2	
732.26	4922.6	
732.44	4567.7	
732.62	7079.8	
732.8	6527.6	
732.98	5421	
733.16	4345.8	
733.34	6568.5	
733.52	5328.1	
733.7	4949.9	
733.88	5249.6	
734.07	6399.2	
734.25	6139.1	
734.43	4318.5	
734.61	6130.3	
734.79	7752.9	
734.97	5990.3	
735.15	4553.3	
735.33	4896	
735.51	6398.5	
735.69	6006.7	
735.87	6170.5	
736.05	5132.9	
736.23	6217.6	
736.41	6012.2	
736.59	4963.6	
736.77	5113.1	
736.95	6835.4	
737.13	6112.5	
737.32	4579.9	
737.5	4826.4	
737.68	7380.9	
737.86	6042.9	
738.04	4386.1	
738.22	6497.5	
738.4	5823.7	
738.58	6124.8	
738.76	5124.7	
738.94	3962.8	
739.12	6024.4	
739.3	5831.2	
739.48	5783.5	
739.66	5506.3	
739.84	6289.3	
740.02	6264.7	
740.2	4046.1	
740.38	4504.8	
740.56	6640.2	
740.74	5480.4	
740.92	5197.7	
741.1	5081.7	
741.28	6071.5	
741.46	5903.6	
741.64	4679.6	
741.82	5253	
742	6113.9	
742.18	6064	
742.36	4956.1	
742.54	4547.2	
742.72	6734.4	
742.9	5423	
743.08	5427.8	
743.26	4099.4	
743.44	7011.6	
743.62	6825.9	
743.8	5606	
743.98	4592.9	
744.16	6571.9	
744.34	6188.3	
744.52	5434.6	
744.7	5438.7	
744.88	6650.4	
745.06	6125.5	
745.24	5514.5	
745.42	5686.5	
745.6	6821.8	
745.78	6421.7	
745.96	4276.2	
746.14	4634.6	
746.32	7596.6	
746.5	6834.1	
746.68	5281.7	
746.86	4715.8	
747.03	7302.4	
747.21	5454.4	
747.39	5245.5	
747.57	4712.4	
747.75	6368.5	
747.93	6842.3	
748.11	4647.5	
748.29	4543.1	
748.47	8104.5	
748.65	6070.2	
748.83	5487.9	
749.01	5220.3	
749.19	6572.6	
749.37	5793	
749.55	5036.6	
749.73	5176.6	
749.91	6324.8	
750.09	5971.2	
750.26	5215.5	
750.44	4513	
750.62	6327.5	
750.8	6267.5	
750.98	4371.7	
751.16	4725.3	
751.34	6406	
751.52	5635.3	
751.7	5571.8	
751.88	4416.1	
752.06	6959.7	
752.24	6690	
752.42	4315.8	
752.59	4732.9	
752.77	6256.5	
752.95	7591.1	
753.13	5509	
753.31	4872.1	
753.49	5920	
753.67	6447.7	
753.85	5135.6	
754.03	4711	
754.21	6759	
754.38	7204.8	
754.56	4950.6	
754.74	3933.5	
754.92	5943.9	
755.1	6737.1	
755.28	3984.7	
755.46	3917.1	
755.64	7441.6	
755.82	7554.3	
755.99	4287.1	
756.17	4424.3	
756.35	4925.4	
756.53	6668.9	
756.71	3224.2	
756.89	4224.3	
757.07	6221.7	
757.25	5246.9	
757.42	4872.8	
757.6	5810.8	
757.78	6305.7	
757.96	5188.9	
758.14	4565.6	
758.32	3952.6	
758.5	4692.6	
758.67	5638.1	
758.85	4332.1	
759.03	4436.6	
759.21	5808	
759.39	5195.7	
759.57	3877.5	
759.75	5152	
759.92	6503	
760.1	5692.7	
760.28	5523.4	
760.46	5792.3	
760.64	5438.7	
760.82	5196.4	
760.99	5358.2	
761.17	4417.5	
761.35	6372.6	
761.53	5289.2	
761.71	4619.5	
761.89	5387.5	
762.06	6294.8	
762.24	5717.9	
762.42	4635.9	
762.6	4426.3	
762.78	5745.2	
762.96	6470.2	
763.13	5117.9	
763.31	4709	
763.49	6690	
763.67	5747.3	
763.85	5649.7	
764.02	6337.8	
764.2	6914.6	
764.38	6059.9	
764.56	4637.3	
764.74	5640.8	
764.91	7044.3	
765.09	5879	
765.27	4349.2	
765.45	4136.2	
765.63	7071.6	
765.8	6960.4	
765.98	3799	
766.16	4208.6	
766.34	5405.3	
766.52	5201.2	
766.69	5304.9	
766.87	4016.1	
767.05	5853.8	
767.23	6719.4	
767.41	4354	
767.58	4678.9	
767.76	6491.4	
767.94	6562.4	
768.12	4476.9	
768.29	5301.5	
768.47	5938.4	
768.65	6755.6	
768.83	4084.3	
769	5356.1	
769.18	5488.6	
769.36	6227.9	
769.54	5089.2	
769.72	4128	
769.89	6528.9	
770.07	6711.9	
770.25	4453.6	
770.43	5825.1	
770.6	7445.7	
770.78	7843	
770.96	4685.1	
771.14	5360.9	
771.31	6478.4	
771.49	5725.4	
771.67	3794.2	
771.85	4108.9	
772.02	4991.6	
772.2	5752.1	
772.38	4852.3	
772.55	4371.7	
772.73	6096.1	
772.91	5789.6	
773.09	4754.7	
773.26	4848.2	
773.44	6096.1	
773.62	5739.1	
773.8	4243.4	
773.97	3953.9	
774.15	6108.4	
774.33	5610.1	
774.5	4101.4	
774.68	4474.1	
774.86	6326.9	
775.04	5766.4	
775.21	4167.6	
775.39	4183.3	
775.57	6001.2	
775.74	6488.6	
775.92	3971.7	
776.1	3904.1	
776.27	5986.9	
776.45	7372	
776.63	4127.3	
776.81	3687.7	
776.98	5693.4	
777.16	6837.5	
777.34	4336.2	
777.51	4643.4	
777.69	5588.2	
777.87	5368.4	
778.04	4422.2	
778.22	5089.2	
778.4	5440.1	
778.57	6146	
778.75	3547.8	
778.93	3912.3	
779.1	5145.2	
779.28	5031.9	
779.46	3562.8	
779.64	4175.1	
779.81	6291.4	
779.99	7239.6	
780.17	5025.7	
780.34	5209.3	
780.52	5638.7	
780.69	5878.4	
780.87	4554.7	
781.05	4058.4	
781.22	5695.4	
781.4	5872.2	
781.58	4171	
781.75	3274	
781.93	5791	
782.11	5149.3	
782.28	5195	
782.46	4221.5	
782.64	4975.2	
782.81	5891.3	
782.99	4220.9	
783.17	4233.8	
783.34	5826.5	
783.52	4995.7	
783.69	4420.2	
783.87	5373.9	
784.05	5131.5	
784.22	5165	
784.4	5352	
784.58	4544.4	
784.75	6120.7	
784.93	5167.7	
785.1	4235.9	
785.28	4890.5	
785.46	5837.4	
785.63	5157.5	
785.81	4162.8	
785.99	4031.1	
786.16	5303.6	
786.34	5743.2	
786.51	4055.7	
786.69	4457.7	
786.87	4840	
787.04	5481.7	
787.22	3447.4	
787.39	4932.9	
787.57	5074.9	
787.75	6402	
787.92	5154.7	
788.1	5039.4	
788.27	5131.5	
788.45	4887.8	
788.63	4757.4	
788.8	3300	
788.98	5674.2	
789.15	4820.2	
789.33	3482.2	
789.5	4220.2	
789.68	6161	
789.86	6233.3	
790.03	4414.1	
790.21	4040	
790.38	6057.9	
790.56	5272.8	
790.73	3910.9	
790.91	3977.2	
791.09	5109	
791.26	5941.8	
791.44	4181.3	
791.61	3579.8	
791.79	5167.7	
791.96	5248.3	
792.14	3663.1	
792.32	3251.5	
792.49	5093.3	
792.67	5298.1	
792.84	3801.7	
793.02	3567.6	
793.19	5626.5	
793.37	6441.5	
793.54	3331.4	
793.72	3658.4	
793.89	6571.9	
794.07	5177.3	
794.25	4348.5	
794.42	3343.7	
794.6	6298.9	
794.77	5922	
794.95	4620.2	
795.12	4012.7	
795.3	5180.7	
795.47	5794.4	
795.65	4416.8	
795.82	4251.6	
796	4954	
796.17	6991.8	
796.35	4065.9	
796.52	4851.6	
796.7	5712.5	
796.87	5911.1	
797.05	5091.9	
797.22	5021.6	
797.4	5780.7	
797.57	6907.8	
797.75	4242.7	
797.92	3992.2	
798.1	6141.2	
798.27	5137.7	
798.45	3380.5	
798.62	3707.5	
798.8	5513.8	
798.97	6025.1	
799.15	4506.9	
799.32	4195.6	
799.5	4697.4	
799.67	5597.1	
799.85	4612.7	
800.02	3217.4	
800.2	5091.3	
800.37	5519.3	
800.55	4786.8	
800.72	3987.4	
800.9	5958.2	
801.07	6472.3	
801.25	5407.3	
801.42	4335.5	
801.6	6034	
801.77	5784.1	
801.95	3881.6	
802.12	3897.3	
802.29	5719.3	
802.47	5708.4	
802.64	4379.9	
802.82	3205.8	
802.99	5042.1	
803.17	6162.3	
803.34	4235.2	
803.52	3773.7	
803.69	6941.9	
803.87	4897.4	
804.04	4182	
804.21	4367.6	
804.39	6289.3	
804.56	5401.2	
804.74	3538.9	
804.91	4386.1	
805.09	5104.9	
805.26	5175.9	
805.44	3644	
805.61	4040	
805.78	5848.3	
805.96	5923.4	
806.13	4442	
806.31	4740.4	
806.48	4686.4	
806.66	5289.2	
806.83	4340.3	
807	4343.1	
807.18	5126.1	
807.35	5532.9	
807.53	4265.2	
807.7	3358	
807.87	6382.2	
808.05	5202.5	
808.22	4701.5	
808.4	3395.5	
808.57	5218.9	
808.74	4777.2	
808.92	3882.9	
809.09	4910.3	
809.27	5014.1	
809.44	5685.8	
809.61	3488.4	
809.79	3850.9	
809.96	6399.2	
810.14	5981.4	
810.31	3267.9	
810.48	4116.4	
810.66	5290.6	
810.83	6091.3	
811.01	3951.2	
811.18	4718.5	
811.35	5967.1	
811.53	4580.6	
811.7	4764.3	
811.87	4389.5	
812.05	5141.1	
812.22	5106.3	
812.39	3771.7	
812.57	3678.2	
812.74	5152.7	
812.92	7023.9	
813.09	4098	
813.26	4500.8	
813.44	6732.4	
813.61	5143.8	
813.78	3423.5	
813.96	4605.2	
814.13	5186.1	
814.3	4828.4	
814.48	5001.8	
814.65	4078.9	
814.82	6552.1	
815	5001.8	
815.17	4215.4	
815.34	5173.9	
815.52	5100.1	
815.69	5152	
815.87	4188.1	
816.04	3588	
816.21	5251	
816.38	4556.7	
816.56	4022.2	
816.73	3753.2	
816.9	6627.2	
817.08	6022.4	
817.25	3802.4	
817.42	4881	
817.6	4696.7	
817.77	5248.9	
817.94	4362.9	
818.12	3766.9	
818.29	4909.7	
818.46	7860.8	
818.64	3932.1	
818.81	3662.5	
818.98	4829.1	
819.16	7126.2	
819.33	4532.8	
819.5	4177.2	
819.67	5561.6	
819.85	6243.6	
820.02	4134.2	
820.19	4401.8	
820.37	5413.5	
820.54	4969.7	
820.71	4338.3	
820.88	5343.2	
821.06	5446.9	
821.23	4967	
821.4	4410.6	
821.58	4308.2	
821.75	5954.8	
821.92	5353.4	
822.09	3413.3	
822.27	3567.6	
822.44	5269.4	
822.61	5112.4	
822.79	3485	
822.96	6793.8	
823.13	5745.9	
823.3	4886.5	
823.48	4037.9	
823.65	3608.5	
823.82	5972.6	
823.99	4732.9	
824.17	5102.9	
824.34	3695.9	
824.51	6953.5	
824.68	5215.5	
824.86	3862.5	
825.03	4337.6	
825.2	5089.2	
825.37	6358.3	
825.55	3806.5	
825.72	4252.3	
825.89	7077.1	
826.06	6500.9	
826.24	4139.6	
826.41	4120.5	
826.58	6389.7	
826.75	5532.2	
826.92	3220.8	
827.1	3563.5	
827.27	8815.1	
827.44	6980.8	
827.61	3965.6	
827.79	4699.4	
827.96	4901.5	
828.13	5311.1	
828.3	4059.1	
828.47	3452.9	
828.65	5408.7	
828.82	5406.6	
828.99	5352	
829.16	4652.3	
829.34	5866.1	
829.51	5634	
829.68	4227	
829.85	4438.6	
830.02	6130.3	
830.2	5851	
830.37	3273.3	
830.54	5124	
830.71	6686.6	
830.88	5241.4	
831.05	3369.6	
831.23	3880.9	
831.4	6356.2	
831.57	7272.3	
831.74	3936.9	
831.91	3488.4	
832.09	5455.1	
832.26	5826.5	
832.43	4037.9	
832.6	4642.1	
832.77	5459.2	
832.94	6234	
833.12	3202.3	
833.29	4025.6	
833.46	5659.9	
833.63	7462.8	
833.8	4462.5	
833.97	4082.3	
834.15	5877.7	
834.32	5606	
834.49	4250.9	
834.66	4336.2	
834.83	6132.3	
835	4899.4	
835.17	3958	
835.35	3914.4	
835.52	5707	
835.69	5585.5	
835.86	4113.7	
836.03	3370.3	
836.2	5697.4	
836.37	5361.6	
836.55	4062.5	
836.72	3794.2	
836.89	5364.3	
837.06	5863.3	
837.23	4172.4	
837.4	4586.8	
837.57	6690	
837.75	7420.5	
837.92	3741	
838.09	4007.9	
838.26	5335	
838.43	6227.2	
838.6	4341.7	
838.77	3788.1	
838.94	7118.7	
839.11	6736.5	
839.29	4090.5	
839.46	3240.6	
839.63	5784.1	
839.8	5567.7	
839.97	3979.9	
840.14	3926	
840.31	5623.7	
840.48	5841.5	
840.65	3233.7	
840.82	3816.7	
841	5868.8	
841.17	5771.2	
841.34	3643.3	
841.51	3671.3	
841.68	5745.2	
841.85	5507	
842.02	3824.9	
842.19	3089.7	
842.36	5604.6	
842.53	5578.7	
842.7	3618.8	
842.87	4519.9	
843.05	7418.4	
843.22	5471.5	
843.39	3414.6	
843.56	3736.9	
843.73	5195	
843.9	5895.4	
844.07	5991.7	
844.24	5042.8	
844.41	8772.1	
844.58	5027.1	
844.75	3465.8	
844.92	3730	
845.09	5840.8	
845.26	5814.9	
845.43	3666.5	
845.6	3820.8	
845.77	5812.1	
845.94	5466.7	
846.12	4052.2	
846.29	4264.6	
846.46	6013.5	
846.63	5840.8	
846.8	3625.6	
846.97	4280.3	
847.14	6296.8	
847.31	5806.7	
847.48	4077.5	
847.65	4505.5	
847.82	6088.6	
847.99	6091.3	
848.16	4840	
848.33	4525.3	
848.5	5341.8	
848.67	6296.8	
848.84	3621.5	
849.01	3816	
849.18	5187.5	
849.35	4860.5	
849.52	4526.7	
849.69	3549.1	
849.86	6038.1	
850.03	6266.8	
850.2	3585.3	
850.37	4465.3	
850.54	6228.6	
850.71	5496.7	
850.88	4362.2	
851.05	3639.9	
851.22	5753.4	
851.39	6311.2	
851.56	3410.6	
851.73	4199	
851.9	5061.9	
852.07	6022.4	
852.24	3971.7	
852.41	3588	
852.58	5614.8	
852.75	5156.1	
852.92	4119.1	
853.09	3504.8	
853.26	5401.9	
853.43	6378.1	
853.6	3556	
853.77	3125.9	
853.94	6445	
854.11	5098.8	
854.28	5371.1	
854.44	3923.9	
854.61	6878.4	
854.78	5910.4	
854.95	3608.5	
855.12	4576.5	
855.29	4607.9	
855.46	6471.6	
855.63	3553.2	
855.8	5034.6	
855.97	5317.2	
856.14	6192.4	
856.31	5173.2	
856.48	3915.7	
856.65	5319.3	
856.82	5020.9	
856.99	3507.5	
857.16	3923.9	
857.33	7157	
857.49	5426.4	
857.66	3895.9	
857.83	4186	
858	5385.5	
858.17	5565.7	
858.34	3456.3	
858.51	3609.9	
858.68	6593.8	
858.85	6603.3	
859.02	4270	
859.19	4507.6	
859.36	5034.6	
859.52	5103.5	
859.69	3690.4	
859.86	4330.1	
860.03	5129.5	
860.2	6379.4	
860.37	3237.2	
860.54	3622.9	
860.71	6041.5	
860.88	6538.5	
861.05	4069.3	
861.21	4580.6	
861.38	6579.4	
861.55	4962.2	
861.72	3259.7	
861.89	4088.4	
862.06	6098.9	
862.23	6626.5	
862.4	3506.8	
862.56	3788.1	
862.73	5939.1	
862.9	5616.9	
863.07	4305.5	
863.24	3277.4	
863.41	4962.2	
863.58	5057.8	
863.75	3727.3	
863.91	4193.6	
864.08	6477	
864.25	6007.4	
864.42	4604.5	
864.59	5123.3	
864.76	6771.9	
864.93	5063.3	
865.09	3485	
865.26	3887.7	
865.43	6300.9	
865.6	6802.7	
865.77	3162.7	
865.94	3577.8	
866.1	6422.4	
866.27	6153.5	
866.44	5520.6	
866.61	3397.6	
866.78	5470.8	
866.95	5972.6	
867.11	3490.4	
867.28	3216.7	
867.45	6148	
867.62	5167	
867.79	4205.2	
867.96	3627.6	
868.12	5046.2	
868.29	6212.9	
868.46	3633.1	
868.63	4898.7	
868.8	6312.5	
868.97	6001.2	
869.13	3762.8	
869.3	3726.6	
869.47	5927.5	
869.64	6205.3	
869.81	3645.4	
869.97	3642	
870.14	5823.7	
870.31	6543.3	
870.48	3525.9	
870.65	4549.9	
870.81	5380	
870.98	5395	
871.15	4173.8	
871.32	3734.1	
871.48	5933.6	
871.65	6565.8	
871.82	3591.5	
871.99	3969.6	
872.16	7055.9	
872.32	6378.1	
872.49	3633.1	
872.66	3637.9	
872.83	6082.5	
872.99	5313.1	
873.16	4184.7	
873.33	3594.9	
873.5	5661.3	
873.67	5626.5	
873.83	3803.8	
874	4855.1	
874.17	5842.2	
874.34	7032.7	
874.5	4754.7	
874.67	4563.6	
874.84	6512.5	
875.01	5098.1	
875.17	5130.2	
875.34	3612.6	
875.51	5758.2	
875.68	6929.6	
875.84	4373.1	
876.01	5396.4	
876.18	6020.3	
876.34	5935	
876.51	3637.2	
876.68	3527.3	
876.85	5486.5	
877.01	6303	
877.18	5179.3	
877.35	3650.2	
877.52	5573.9	
877.68	4943.1	
877.85	3497.9	
878.02	3554.6	
878.18	5638.7	
878.35	5326.8	
878.52	2877.4	
878.69	4040	
878.85	6081.1	
879.02	5996.5	
879.19	5212.1	
879.35	3993.5	
879.52	6029.9	
879.69	6253.1	
879.86	3086.3	
880.02	4074.1	
880.19	5581.4	
880.36	6778.8	
880.52	4134.8	
880.69	4328	
880.86	6146.6	
881.02	6258.6	
881.19	3985.3	
881.36	3939.6	
881.52	5988.3	
881.69	5294.7	
881.86	3907.5	
882.02	3820.1	
882.19	6342.6	
882.36	7490.1	
882.52	3687.7	
882.69	5154.7	
882.86	5777.3	
883.02	5668.8	
883.19	4457.7	
883.36	4154	
883.52	6134.3	
883.69	7052.5	
883.86	3659.7	
884.02	3265.1	
884.19	6169.8	
884.36	5627.1	
884.52	4132.1	
884.69	3796.3	
884.86	5350	
885.02	6746	
885.19	4023.6	
885.36	4150.6	
885.52	5603.2	
885.69	5776	
885.86	5298.1	
886.02	4646.2	
886.19	6048.3	
886.35	5553.4	
886.52	4046.1	
886.69	5159.5	
886.85	5152.7	
887.02	6479.1	
887.19	6479.1	
887.35	6479.1	
887.52	6479.1	
887.68	6479.1	
887.85	6479.1	
888.02	6479.1	
888.18	6479.1	
888.35	6479.1	
888.51	6479.1	
888.68	6479.1	
888.85	6479.1	
889.01	6479.1	
889.18	6479.1	
889.35	6479.1	
889.51	6479.1	
889.68	6479.1	
889.84	6479.1	
890.01	6479.1	
890.17	6479.1	
890.34	6479.1	
890.51	6479.1	
890.67	6479.1	
890.84	6479.1	
891	6479.1	
891.17	6479.1	
891.34	6479.1	
891.5	6479.1	
891.67	6479.1	
891.83	6479.1	
892	6479.1	
892.16	6479.1	
892.33	6479.1	
892.5	6479.1	
892.66	6479.1	
892.83	6479.1	
892.99	6479.1	
893.16	6479.1	
893.32	6479.1	
893.49	6479.1	
893.65	6479.1	
893.82	6479.1	
893.99	6479.1	
894.15	6479.1	
894.32	6479.1	
894.48	6479.1	
894.65	6479.1	
894.81	6479.1	
894.98	6479.1	
895.14	6479.1	
895.31	6479.1	
895.47	6479.1	
895.64	6479.1	
895.81	6479.1	
895.97	6479.1	
896.14	6479.1	
896.3	6479.1	
896.47	6479.1	
896.63	6479.1	
896.8	6479.1	
896.96	6479.1	
897.13	6479.1	
897.29	6479.1	
897.46	6479.1	
897.62	6479.1	
897.79	6479.1	
897.95	6479.1	
898.12	6479.1	
898.28	6479.1	
898.45	6479.1	
898.61	6479.1	
898.78	6479.1	
898.94	6479.1	
899.11	6479.1	
899.27	6479.1	
899.44	6479.1	
899.6	6479.1	
899.77	6479.1	
899.93	6479.1	
900.1	6479.1	
900.26	6479.1	
900.43	6479.1	
900.59	6479.1	
900.76	6479.1	
900.92	6479.1	
901.09	6479.1	
901.25	6479.1	
901.42	6479.1	
901.58	6479.1	
901.75	6479.1	
901.91	6479.1	
902.07	6479.1	
902.24	6479.1	
902.4	6479.1	
902.57	6479.1	
902.73	6479.1	
902.9	6479.1	
903.06	6479.1	
903.23	6479.1	
903.39	6479.1	
903.56	6479.1	
903.72	6479.1	
903.88	6479.1	
904.05	6479.1	
904.21	6479.1	
904.38	6479.1	
904.54	6479.1	
904.71	6479.1	
904.87	6479.1	
905.03	6479.1	
905.2	6479.1	
905.36	6479.1	
905.53	6479.1	
905.69	6479.1	
905.86	6479.1	
906.02	6479.1	
906.18	6479.1	
906.35	6479.1	
906.51	6479.1	
906.68	6479.1	
906.84	6479.1	
907.01	6479.1	
907.17	6479.1	
907.33	6479.1	
907.5	6479.1	
907.66	6479.1	
907.83	6479.1	
907.99	6479.1	
908.15	6479.1	
908.32	6479.1	
908.48	6479.1	
908.65	6479.1	
908.81	6479.1	
908.97	6479.1	
909.14	6479.1	
909.3	6479.1	
909.47	6479.1	
909.63	6479.1	
909.79	6479.1	
909.96	6479.1	
910.12	6479.1	
910.28	6479.1	
910.45	6479.1	
910.61	6479.1	
910.78	6479.1	
910.94	6479.1	
911.1	6479.1	
911.27	6479.1	
911.43	6479.1	
911.59	6479.1	
911.76	6479.1	
911.92	6479.1	
912.08	6479.1	
912.25	6479.1	
912.41	6479.1	
912.57	6479.1	
912.74	6479.1	
912.9	6479.1	
913.07	6479.1	
913.23	6479.1	
913.39	6479.1	
913.56	6479.1	
913.72	6479.1	
913.88	6479.1	
914.05	6479.1	
914.21	6479.1	
914.37	6479.1	
914.54	6479.1	
914.7	6479.1	
914.86	6479.1	
915.03	6479.1	
915.19	6479.1	
