Wavelength	Intensities	
nm	a.u.	
179.22	1943.9	
179.44	1929.2	
179.65	1958.5	
179.86	1899.8	
180.08	1933.3	
180.29	4874.8	
180.51	3482.9	
180.72	5650.3	
180.94	6661.4	
181.15	3283.6	
181.37	3223.5	
181.58	5517.2	
181.79	5831.2	
182.01	3334.1	
182.22	3624.9	
182.44	5786.9	
182.65	4773.1	
182.87	4545.1	
183.08	3961.5	
183.29	6066.1	
183.51	4956.8	
183.72	3647.4	
183.94	5350	
184.15	5373.2	
184.37	5468.8	
184.58	3201	
184.79	4448.9	
185.01	4980	
185.22	5776	
185.44	4678.9	
185.65	3964.9	
185.86	5248.3	
186.08	4887.8	
186.29	3112.9	
186.51	3360.7	
186.72	5012.7	
186.94	5915.9	
187.15	3881.6	
187.36	3991.5	
187.58	7726.3	
187.79	5524.1	
188.01	4201.1	
188.22	6614.9	
188.43	6661.4	
188.65	5776.6	
188.86	3340.9	
189.08	4023.6	
189.29	5221.6	
189.5	5205.3	
189.72	3801	
189.93	3775.1	
190.15	5942.5	
190.36	7177.4	
190.57	4055.7	
190.79	3995.6	
191	6043.6	
191.22	5987.6	
191.43	4133.5	
191.64	3349.1	
191.86	6230.6	
192.07	6009.4	
192.29	3530.7	
192.5	3693.9	
192.71	5973.9	
192.93	5074.2	
193.14	3674.7	
193.35	3784	
193.57	5180	
193.78	5920	
194	2979.8	
194.21	3687	
194.42	4990.2	
194.64	5400.5	
194.85	3999.7	
195.07	4741.7	
195.28	5446.9	
195.49	4738.3	
195.71	4980	
195.92	3460.4	
196.13	5632.6	
196.35	5738.4	
196.56	5285.8	
196.78	4018.8	
196.99	7057.3	
197.2	6628.6	
197.42	4534.2	
197.63	4108.9	
197.84	4861.9	
198.06	5611.4	
198.27	3759.4	
198.48	5044.1	
198.7	5154.1	
198.91	5326.8	
199.13	4082.3	
199.34	4072	
199.55	5792.3	
199.77	4696	
199.98	3596.2	
200.19	4129.4	
200.41	5299.5	
200.62	5020.3	
200.83	4238.6	
201.05	4522.6	
201.26	5276.3	
201.47	5059.2	
201.69	3633.8	
201.9	3466.5	
202.11	5365	
202.33	6391	
202.54	3843.4	
202.76	4354.7	
202.97	5563	
203.18	5534.3	
203.4	4255.7	
203.61	4168.3	
203.82	5495.4	
204.04	5076.9	
204.25	4087.7	
204.46	4048.2	
204.68	5282.4	
204.89	5641.5	
205.1	3992.9	
205.32	3456.3	
205.53	5822.4	
205.74	5984.2	
205.96	2923.8	
206.17	4179.9	
206.38	5784.8	
206.6	5900.2	
206.81	4670.7	
207.02	3828.3	
207.24	5670.1	
207.45	6036.7	
207.66	3881.6	
207.88	3281.5	
208.09	5575.9	
208.3	5418.2	
208.52	3543.7	
208.73	3854.3	
208.94	5404.6	
209.15	6153.5	
209.37	3865.9	
209.58	4074.8	
209.79	5933	
210.01	5247.6	
210.22	3061.7	
210.43	3230.3	
210.65	5446.2	
210.86	5834	
211.07	3812	
211.29	3488.4	
211.5	5782.1	
211.71	5332.2	
211.93	3539.6	
212.14	3510.2	
212.35	5298.1	
212.56	5556.8	
212.78	4100	
212.99	3376.4	
213.2	6352.8	
213.42	5127.4	
213.63	3679.5	
213.84	3880.9	
214.06	4760.2	
214.27	4895.3	
214.48	3819.5	
214.69	4108.9	
214.91	6068.1	
215.12	6236.7	
215.33	4174.4	
215.55	4615.4	
215.76	6660.7	
215.97	5807.4	
216.18	4003.8	
216.4	3904.1	
216.61	5144.5	
216.82	5966.4	
217.04	3590.1	
217.25	3692.5	
217.46	6097.5	
217.67	5838.1	
217.89	3189.4	
218.1	3300.6	
218.31	5522.7	
218.53	5560.2	
218.74	3762.1	
218.95	3589.4	
219.16	5330.9	
219.38	6365.8	
219.59	3600.3	
219.8	4345.1	
220.01	7019.1	
220.23	5433.9	
220.44	4734.9	
220.65	3553.2	
220.87	5504.3	
221.08	6027.2	
221.29	3269.9	
221.5	4369.7	
221.72	7490.1	
221.93	5117.2	
222.14	4074.1	
222.35	4788.2	
222.57	5410.7	
222.78	5759.6	
222.99	3853.6	
223.2	4173.1	
223.42	5696.8	
223.63	5864	
223.84	2941.6	
224.05	2971.6	
224.27	6950.8	
224.48	6331	
224.69	4781.3	
224.9	4056.3	
225.12	5637.4	
225.33	5375.2	
225.54	3261	
225.75	3622.9	
225.97	5008.6	
226.18	5270.8	
226.39	3882.9	
226.6	3624.9	
226.82	5183.4	
227.03	4977.9	
227.24	4146.5	
227.45	3349.1	
227.67	5769.1	
227.88	6341.9	
228.09	4528.7	
228.3	4579.9	
228.52	5852.4	
228.73	5364.3	
228.94	3771.7	
229.15	3376.4	
229.36	5320.6	
229.58	5240.1	
229.79	3846.8	
230	4469.4	
230.21	6463.4	
230.43	5498.1	
230.64	4020.2	
230.85	4235.9	
231.06	5810.8	
231.28	5869.5	
231.49	3394.8	
231.7	3936.9	
231.91	5745.9	
232.12	5452.4	
232.34	3443.3	
232.55	3939.6	
232.76	6107	
232.97	5618.9	
233.18	3532.7	
233.4	4003.8	
233.61	5708.4	
233.82	5165	
234.03	3723.2	
234.25	3689.8	
234.46	7576.8	
234.67	5465.3	
234.88	4160.1	
235.09	3588.7	
235.31	5750.7	
235.52	5293.3	
235.73	4058.4	
235.94	3422.8	
236.15	5210.7	
236.37	6541.9	
236.58	3560.1	
236.79	3895.2	
237	5715.2	
237.21	4897.4	
237.43	4243.4	
237.64	3276.8	
237.85	9821.4	
238.06	4995.7	
238.27	4256.4	
238.48	3390.8	
238.7	5723.4	
238.91	5249.6	
239.12	3900	
239.33	3959.4	
239.54	5208.7	
239.76	5343.2	
239.97	3791.5	
240.18	3867.9	
240.39	6811.5	
240.6	5722	
240.82	3984	
241.03	3340.9	
241.24	5386.2	
241.45	6311.8	
241.66	3530.7	
241.87	4234.5	
242.09	6158.9	
242.3	6539.2	
242.51	4243.4	
242.72	3887.7	
242.93	5926.8	
243.14	5341.8	
243.36	4502.8	
243.57	4836.6	
243.78	6330.3	
243.99	5646.2	
244.2	3923.2	
244.41	3536.8	
244.63	4969.1	
244.84	5771.9	
245.05	4214	
245.26	3896.6	
245.47	5662.6	
245.68	5978.7	
245.9	5197.1	
246.11	4040.6	
246.32	5261.2	
246.53	5635.3	
246.74	6348.7	
246.95	3278.1	
247.16	4887.8	
247.38	5352.7	
247.59	3252.2	
247.8	3920.5	
248.01	5076.9	
248.22	5302.9	
248.43	3545	
248.64	3852.2	
248.86	4778.6	
249.07	5174.5	
249.28	3427.6	
249.49	3975.1	
249.7	5997.8	
249.91	6117.3	
250.12	3222.8	
250.34	3315	
250.55	5539.8	
250.76	5510.4	
250.97	4031.1	
251.18	4020.2	
251.39	6047	
251.6	5578	
251.81	4164.9	
252.03	4160.1	
252.24	5128.8	
252.45	5895.4	
252.66	3366.9	
252.87	4340.3	
253.08	5407.3	
253.29	7178.8	
253.5	3424.2	
253.72	4730.1	
253.93	5253.7	
254.14	6474.3	
254.35	3748.5	
254.56	3821.5	
254.77	5661.3	
254.98	4970.4	
255.19	3668.6	
255.41	4751.3	
255.62	5532.9	
255.83	6105.7	
256.04	4186	
256.25	4085.7	
256.46	6676.4	
256.67	5132.2	
256.88	3977.8	
257.09	4412	
257.31	5089.2	
257.52	5115.1	
257.73	5033.2	
257.94	3663.1	
258.15	5290.6	
258.36	5423.7	
258.57	4661.2	
258.78	2963.4	
258.99	5870.2	
259.2	5304.9	
259.41	3724.6	
259.63	3826.3	
259.84	6333.7	
260.05	6759	
260.26	4886.5	
260.47	3625.6	
260.68	5997.1	
260.89	5309.7	
261.1	4473.4	
261.31	3530.7	
261.52	5958.9	
261.73	6373.3	
261.95	4805.2	
262.16	4240	
262.37	6154.8	
262.58	6182.8	
262.79	4793.6	
263	3792.8	
263.21	5424.4	
263.42	4958.1	
263.63	3790.8	
263.84	3803.8	
264.05	6009.4	
264.26	6361.7	
264.47	4649.6	
264.69	4257	
264.9	6143.2	
265.11	5618.9	
265.32	3594.2	
265.53	3676.1	
265.74	5512.4	
265.95	4830.5	
266.16	3964.2	
266.37	4373.8	
266.58	5509	
266.79	5230.5	
267	3651.5	
267.21	3424.2	
267.42	4946.5	
267.63	5430.5	
267.84	3910.3	
268.06	3338.2	
268.27	5879.7	
268.48	6154.1	
268.69	3805.8	
268.9	4513	
269.11	6160.3	
269.32	4894.6	
269.53	3926.6	
269.74	3628.3	
269.95	5755.5	
270.16	4784.1	
270.37	3916.4	
270.58	4516.5	
270.79	5300.1	
271	5948	
271.21	4197.7	
271.42	3906.8	
271.63	5578	
271.84	5014.1	
272.05	3145	
272.26	3528.7	
272.47	5398.4	
272.68	5608.7	
272.89	3704.8	
273.11	4375.8	
273.32	5257.8	
273.53	6378.7	
273.74	4185.4	
273.95	4112.3	
274.16	6056.5	
274.37	5483.1	
274.58	4296.6	
274.79	3408.5	
275	5504.3	
275.21	6105.7	
275.42	5145.2	
275.63	4404.5	
275.84	5651.7	
276.05	7169.9	
276.26	4144.4	
276.47	3827.7	
276.68	5281	
276.89	6438.8	
277.1	4465.9	
277.31	3445.4	
277.52	5743.9	
277.73	5799.2	
277.94	3340.9	
278.15	3764.2	
278.36	5617.6	
278.57	5061.2	
278.78	3745.7	
278.99	4202.4	
279.2	5044.1	
279.41	5032.5	
279.62	4963.6	
279.83	3517	
280.04	6651.8	
280.25	4939.7	
280.46	4851	
280.67	3880.9	
280.88	5036	
281.09	6089.3	
281.3	4145.1	
281.51	5186.8	
281.72	5103.5	
281.93	5977.3	
282.14	3734.8	
282.35	3923.2	
282.56	5928.9	
282.77	5983.5	
282.98	3728.7	
283.19	4596.3	
283.4	7268.9	
283.61	5383.4	
283.82	3385.3	
284.03	4842.8	
284.24	5522.7	
284.45	6090	
284.66	4877.6	
284.87	4629.8	
285.08	6047	
285.29	6192.4	
285.5	3319.8	
285.71	3811.3	
285.92	6049.7	
286.12	6720.1	
286.33	4811.4	
286.54	3763.5	
286.75	5947.3	
286.96	5349.3	
287.17	3476.8	
287.38	4764.9	
287.59	5055.8	
287.8	4899.4	
288.01	3838.6	
288.22	4479.6	
288.43	5923.4	
288.64	4935.6	
288.85	4517.1	
289.06	4347.8	
289.27	5894.7	
289.48	6315.3	
289.69	4932.2	
289.9	4342.4	
290.11	6053.1	
290.32	5089.2	
290.53	4653	
290.74	4272.7	
290.94	5885.9	
291.15	5904.3	
291.36	3667.9	
291.57	4366.3	
291.78	5190.9	
291.99	4869.4	
292.2	3478.8	
292.41	4237.2	
292.62	5983.5	
292.83	5776	
293.04	5253.7	
293.25	3518.4	
293.46	5172.5	
293.67	6052.4	
293.88	3707.5	
294.09	3499.3	
294.29	4943.1	
294.5	5543.2	
294.71	3873.4	
294.92	3790.8	
295.13	5206.6	
295.34	6535.8	
295.55	3269.9	
295.76	3358	
295.97	5831.2	
296.18	6675.7	
296.39	3450.8	
296.6	3708.2	
296.81	5512.4	
297.01	5806	
297.22	3799.7	
297.43	3592.8	
297.64	5101.5	
297.85	5069.4	
298.06	3039.2	
298.27	3250.1	
298.48	5463.3	
298.69	5212.1	
298.9	3931.4	
299.11	3544.4	
299.31	4984.8	
299.52	4943.1	
299.73	4273.4	
299.94	4108.9	
300.15	5401.2	
300.36	5079.6	
300.57	4155.3	
300.78	4194.9	
300.99	5339.7	
301.2	5580.7	
301.4	3646.7	
301.61	3969	
301.82	5782.8	
302.03	5823.7	
302.24	4477.5	
302.45	3456.3	
302.66	5723.4	
302.87	6232	
303.08	3708.9	
303.29	5051	
303.49	5143.1	
303.7	5476.3	
303.91	3256.3	
304.12	4737	
304.33	4945.8	
304.54	5554.1	
304.75	3732.8	
304.96	3518.4	
305.16	5778	
305.37	6508.4	
305.58	3187.3	
305.79	3349.8	
306	5751.4	
306.21	4846.2	
306.42	3637.9	
306.63	5588.9	
306.83	5289.9	
307.04	6015.6	
307.25	4021.5	
307.46	4002.4	
307.67	4657.8	
307.88	5934.3	
308.09	3633.1	
308.29	3748.5	
308.5	5524.1	
308.71	6016.2	
308.92	3926	
309.13	3554.6	
309.34	5354.8	
309.55	5369.8	
309.75	4568.3	
309.96	4207.9	
310.17	5808.7	
310.38	5135.6	
310.59	4406.5	
310.8	4142.4	
311.01	5228.5	
311.21	5294	
311.42	3487	
311.63	3593.5	
311.84	5201.2	
312.05	5595.1	
312.26	4076.8	
312.46	4481	
312.67	5277.6	
312.88	4941.7	
313.09	3574.4	
313.3	3444	
313.51	6269.5	
313.71	6658.6	
313.92	3484.3	
314.13	3738.9	
314.34	5533.6	
314.55	5287.9	
314.76	4579.3	
314.96	3973.1	
315.17	5468.1	
315.38	5833.3	
315.59	3608.5	
315.8	3374.4	
316.01	6334.4	
316.21	6374	
316.42	3472.7	
316.63	4003.1	
316.84	5318.6	
317.05	6197.2	
317.26	4181.3	
317.46	3751.9	
317.67	5385.5	
317.88	5859.2	
318.09	4478.2	
318.3	3296.5	
318.5	5187.5	
318.71	5752.1	
318.92	5704.3	
319.13	4181.3	
319.34	5979.4	
319.54	6047	
319.75	3239.2	
319.96	3138.9	
320.17	5744.6	
320.38	6057.2	
320.58	3195.5	
320.79	3926	
321	6034.7	
321.21	6177.4	
321.42	3860.4	
321.62	3232.4	
321.83	5038.7	
322.04	5456.5	
322.25	3800.3	
322.46	3594.9	
322.66	5553.4	
322.87	5729.5	
323.08	4394.9	
323.29	3506.8	
323.5	6487.3	
323.7	4999.8	
323.91	4850.3	
324.12	4345.8	
324.33	5517.9	
324.53	5842.9	
324.74	4222.9	
324.95	4401.8	
325.16	4779.3	
325.37	5249.6	
325.57	3494.5	
325.78	3584.6	
325.99	5521.3	
326.2	4909.7	
326.4	5207.3	
326.61	3294.5	
326.82	5380	
327.03	5510.4	
327.24	4996.4	
327.44	4816.1	
327.65	5674.9	
327.86	4573.8	
328.07	4206.5	
328.27	3360.7	
328.48	6142.5	
328.69	4971.8	
328.9	5107.6	
329.1	3812	
329.31	5299.5	
329.52	6242.9	
329.73	3521.1	
329.93	4055.7	
330.14	5493.3	
330.35	5655.8	
330.56	5929.6	
330.76	4422.2	
330.97	5238	
331.18	5655.1	
331.39	3927.3	
331.59	3194.1	
331.8	6010.1	
332.01	6141.2	
332.22	3654.3	
332.42	4195.6	
332.63	5559.6	
332.84	5128.1	
333.05	3979.9	
333.25	3604.4	
333.46	5197.1	
333.67	5459.9	
333.88	3715	
334.08	4124.6	
334.29	7311.2	
334.5	6134.3	
334.7	3421.5	
334.91	5046.2	
335.12	4958.1	
335.33	5864	
335.53	3915	
335.74	5864	
335.95	5186.1	
336.16	5039.4	
336.36	3922.5	
336.57	4529.4	
336.78	5018.9	
336.98	6022.4	
337.19	4807.9	
337.4	3859.1	
337.61	6522.8	
337.81	4993.6	
338.02	3590.1	
338.23	4709	
338.43	6196.5	
338.64	5127.4	
338.85	3603.7	
339.05	4699.4	
339.26	6286.6	
339.47	4852.3	
339.68	3583.9	
339.88	5287.9	
340.09	5728.2	
340.3	5915.9	
340.5	4146.5	
340.71	3215.3	
340.92	4911	
341.13	6205.3	
341.33	3422.8	
341.54	4228.4	
341.75	5707.7	
341.95	5296	
342.16	4018.8	
342.37	4375.1	
342.57	5061.9	
342.78	5399.1	
342.99	4491.9	
343.19	3216	
343.4	5788.9	
343.61	5698.1	
343.81	3777.1	
344.02	3465.2	
344.23	5823.1	
344.43	6279.1	
344.64	4376.5	
344.85	4259.8	
345.06	5698.8	
345.26	6044.2	
345.47	4145.1	
345.68	4838	
345.88	4831.8	
346.09	5882.4	
346.3	4217.5	
346.5	3138.9	
346.71	5453.7	
346.92	5143.1	
347.12	3224.2	
347.33	4168.3	
347.54	6047.7	
347.74	6374	
347.95	4100.7	
348.16	3060.3	
348.36	5270.8	
348.57	4965	
348.78	4115.1	
348.98	4370.4	
349.19	5450.3	
349.39	4922	
349.6	3247.4	
349.81	3642.7	
350.01	5699.5	
350.22	5127.4	
350.43	3950.5	
350.63	4700.8	
350.84	5459.9	
351.05	5219.6	
351.25	3567.6	
351.46	3214.6	
351.67	6036.7	
351.87	5120.6	
352.08	3891.8	
352.29	4370.4	
352.49	5881.1	
352.7	5584.1	
352.9	3464.5	
353.11	4384	
353.32	6597.9	
353.52	5231.2	
353.73	3369.6	
353.94	4369	
354.14	5812.1	
354.35	5584.1	
354.55	3474	
354.76	3975.8	
354.97	5635.3	
355.17	5488.6	
355.38	3327.3	
355.59	4655.7	
355.79	5076.2	
356	5573.9	
356.2	3882.3	
356.41	3357.3	
356.62	4866	
356.82	5313.8	
357.03	4152.6	
357.24	3758.7	
357.44	5098.1	
357.65	5214.1	
357.85	5020.9	
358.06	3908.9	
358.27	4856.4	
358.47	5083.1	
358.68	3209.2	
358.88	4117.1	
359.09	5630.5	
359.3	6012.2	
359.5	4857.1	
359.71	4345.8	
359.91	6516.6	
360.12	5806	
360.33	4123.9	
360.53	4612	
360.74	5087.2	
360.94	5170.4	
361.15	4293.2	
361.36	3545	
361.56	5896.8	
361.77	5281	
361.97	4819.6	
362.18	3794.9	
362.38	5885.9	
362.59	4965.6	
362.8	3369.6	
363	3271.3	
363.21	4715.1	
363.41	5548.6	
363.62	4016.7	
363.83	5055.8	
364.03	5469.4	
364.24	6481.1	
364.44	5188.2	
364.65	5096	
364.85	5260.5	
365.06	5096	
365.27	3680.2	
365.47	3672	
365.68	6217.6	
365.88	5195	
366.09	4043.4	
366.29	3728.7	
366.5	5466	
366.71	5914.5	
366.91	5051	
367.12	4186	
367.32	6526.9	
367.53	5768.4	
367.73	4123.9	
367.94	5101.5	
368.14	5687.2	
368.35	6627.9	
368.56	4112.3	
368.76	3907.5	
368.97	5819	
369.17	7561.1	
369.38	3564.8	
369.58	3863.8	
369.79	4868	
369.99	6143.2	
370.2	4936.3	
370.4	3980.6	
370.61	5511.1	
370.82	6702.3	
371.02	3876.1	
371.23	3121.8	
371.43	4742.4	
371.64	6079.7	
371.84	3871.3	
372.05	5109.7	
372.25	7444.4	
372.46	5807.4	
372.66	3868.6	
372.87	3805.1	
373.07	5852.4	
373.28	7520.8	
373.48	4889.2	
373.69	4601.8	
373.9	5287.2	
374.1	5298.1	
374.31	4816.8	
374.51	4332.1	
374.72	6173.9	
374.92	4923.3	
375.13	5011.4	
375.33	4217.5	
375.54	5658.5	
375.74	5114.5	
375.95	4203.8	
376.15	5469.4	
376.36	5727.5	
376.56	5498.1	
376.77	4269.3	
376.97	4771.8	
377.18	6749.4	
377.38	5718.6	
377.59	5043.5	
377.79	3691.8	
378	5526.1	
378.2	6040.1	
378.41	3831.1	
378.61	3637.9	
378.82	6055.2	
379.02	5061.9	
379.23	3941.7	
379.43	5102.2	
379.64	6104.3	
379.84	5721.3	
380.05	3756	
380.25	3673.4	
380.46	5754.1	
380.66	5343.2	
380.87	5087.8	
381.07	5519.3	
381.28	6382.2	
381.48	5804.6	
381.69	3780.6	
381.89	3865.2	
382.1	4799.1	
382.3	6033.3	
382.51	5005.9	
382.71	5815.5	
382.91	5801.9	
383.12	6389	
383.32	4182	
383.53	4456.4	
383.73	5683.8	
383.94	5502.2	
384.14	4293.2	
384.35	3411.2	
384.55	5389.6	
384.76	5857.2	
384.96	4211.3	
385.17	4499.4	
385.37	5863.3	
385.58	5115.8	
385.78	4522.6	
385.98	3373.7	
386.19	5383.4	
386.39	5707	
386.6	3926	
386.8	4186	
387.01	5810.8	
387.21	5884.5	
387.42	4571.1	
387.62	5165.7	
387.83	5119.2	
388.03	5828.5	
388.23	4195.6	
388.44	5074.9	
388.64	4758.1	
388.85	4856.4	
389.05	4556.7	
389.26	5204.6	
389.46	6819.7	
389.67	6191	
389.87	4582	
390.07	4631.1	
390.28	5408	
390.48	5042.8	
390.69	3771	
390.89	4072	
391.1	5180	
391.3	6092.7	
391.5	5323.4	
391.71	5875.6	
391.91	5795.1	
392.12	6893.5	
392.32	5348.6	
392.53	4558.8	
392.73	5244.8	
392.93	5408	
393.14	4211.3	
393.34	4947.9	
393.55	5814.9	
393.75	5451	
393.95	4229.1	
394.16	4140.3	
394.36	5204.6	
394.57	5887.2	
394.77	3636.5	
394.98	4128.7	
395.18	5126.1	
395.38	5246.9	
395.59	4990.9	
395.79	3885.7	
396	5266.7	
396.2	5767.8	
396.4	4889.9	
396.61	4655	
396.81	5986.2	
397.02	5147.2	
397.22	4985.4	
397.42	5023.7	
397.63	5867.4	
397.83	5051	
398.04	3781.9	
398.24	4336.2	
398.44	5612.1	
398.65	4659.8	
398.85	3648.8	
399.05	3794.2	
399.26	5053.7	
399.46	6827.9	
399.67	4146.5	
399.87	3825.6	
400.07	5364.3	
400.28	5772.5	
400.48	3939.6	
400.69	5023.7	
400.89	6032	
401.09	6453.8	
401.3	3819.5	
401.5	4984.1	
401.7	6669.6	
401.91	6913.9	
402.11	4185.4	
402.32	4405.2	
402.52	5953.4	
402.72	5921.4	
402.93	4635.2	
403.13	3472	
403.33	6704.4	
403.54	5541.1	
403.74	4367.6	
403.94	5279	
404.15	5589.6	
404.35	6688	
404.56	4140.3	
404.76	5983.5	
404.96	5986.2	
405.17	5800.5	
405.37	5408.7	
405.57	4586.1	
405.78	5991.7	
405.98	5503.6	
406.18	4154.6	
406.39	5082.4	
406.59	6017.6	
406.79	5666	
407	3949.8	
407.2	4061.8	
407.4	6018.3	
407.61	6191.7	
407.81	3978.5	
408.01	6417.7	
408.22	4962.9	
408.42	7025.2	
408.62	5080.3	
408.83	4533.5	
409.03	5494	
409.23	5257.1	
409.44	4541.7	
409.64	4754	
409.84	6387.6	
410.05	6268.1	
410.25	4587.4	
410.45	4446.1	
410.66	5587.5	
410.86	8215.8	
411.06	4700.1	
411.27	4666.6	
411.47	7965.2	
411.67	5818.3	
411.88	4949.3	
412.08	5104.2	
412.28	6519.4	
412.49	7016.3	
412.69	4582.7	
412.89	4584	
413.09	6846.4	
413.3	6666.1	
413.5	4657.1	
413.7	4267.3	
413.91	5868.8	
414.11	6731	
414.31	4453	
414.52	4934.9	
414.72	6374.6	
414.92	6316.6	
415.12	4494.6	
415.33	5051	
415.53	6733	
415.73	6786.3	
415.94	5453.7	
416.14	4789.5	
416.34	5664.7	
416.55	5446.2	
416.75	6021.7	
416.95	5395.7	
417.15	6616.3	
417.36	7463.5	
417.56	6197.8	
417.76	5203.2	
417.97	7078.5	
418.17	6677.7	
418.37	4771.8	
418.57	4825.7	
418.78	6445	
418.98	6113.2	
419.18	5809.4	
419.38	5707.7	
419.59	6164.4	
419.79	5782.8	
419.99	4720.6	
420.2	5117.2	
420.4	6685.3	
420.6	6845	
420.8	4573.1	
421.01	4455	
421.21	6481.8	
421.41	6699.6	
421.61	5094.7	
421.82	4701.5	
422.02	5967.8	
422.22	6988.4	
422.42	5541.1	
422.63	5206.6	
422.83	6190.3	
423.03	7354.9	
423.23	5230.5	
423.44	4184.7	
423.64	6225.8	
423.84	5960.3	
424.04	4650.3	
424.25	4316.4	
424.45	7221.8	
424.65	7137.9	
424.85	4080.9	
425.06	4670.7	
425.26	7073.7	
425.46	6082.5	
425.66	5205.9	
425.87	4868	
426.07	6864.1	
426.27	6744.6	
426.47	5065.3	
426.67	4392.9	
426.88	7313.3	
427.08	6671.6	
427.28	5253.7	
427.48	4288.4	
427.69	5507.7	
427.89	6271.6	
428.09	5271.5	
428.29	4383.3	
428.5	7002	
428.7	6438.1	
428.9	4252.9	
429.1	4876.9	
429.3	6438.8	
429.51	6762.4	
429.71	4564.2	
429.91	5382.7	
430.11	6591.7	
430.31	6860	
430.52	4891.9	
430.72	5109	
430.92	7237.5	
431.12	6681.8	
431.32	4519.2	
431.53	4961.5	
431.73	5547.9	
431.93	7316.7	
432.13	4463.9	
432.33	4261.1	
432.54	6063.4	
432.74	6448.4	
432.94	4192.2	
433.14	5325.4	
433.34	6518.7	
433.55	6020.3	
433.75	5297.4	
433.95	7019.8	
434.15	6346	
434.35	6003.3	
434.56	4421.6	
434.76	3897.3	
434.96	6242.2	
435.16	6602	
435.36	4263.2	
435.56	5429.2	
435.77	5943.9	
435.97	6040.1	
436.17	6092	
436.37	5280.3	
436.57	5859.9	
436.78	5756.2	
436.98	7173.4	
437.18	5946.6	
437.38	6585.6	
437.58	6167.1	
437.78	6103.6	
437.99	4747.2	
438.19	6649.1	
438.39	7394.5	
438.59	4679.6	
438.79	4095.3	
438.99	7331	
439.2	6099.5	
439.4	4294.6	
439.6	4196.3	
439.8	6398.5	
440	7506.5	
440.2	5298.8	
440.4	5415.5	
440.61	6740.5	
440.81	7367.2	
441.01	4378.6	
441.21	5322.7	
441.41	7128.3	
441.61	6786.3	
441.81	5607.3	
442.02	6698.2	
442.22	7723.6	
442.42	6833.4	
442.62	4375.8	
442.82	4576.5	
443.02	7137.2	
443.22	6225.1	
443.43	4911	
443.63	4430.4	
443.83	5994.4	
444.03	6021.7	
444.23	5767.1	
444.43	5345.9	
444.63	6290.7	
444.83	7606.8	
445.04	4440	
445.24	5852.4	
445.44	6818.4	
445.64	6853.9	
445.84	5379.3	
446.04	5402.5	
446.24	6120	
446.44	7197.9	
446.65	4532.8	
446.85	4941.7	
447.05	6509.8	
447.25	7136.5	
447.45	5077.6	
447.65	4384	
447.85	6374	
448.05	6057.2	
448.25	5552	
448.46	5223	
448.66	6493.4	
448.86	6166.4	
449.06	4235.9	
449.26	5469.4	
449.46	6823.1	
449.66	5849	
449.86	4895.3	
450.06	4878.9	
450.26	5957.5	
450.47	6623.1	
450.67	5269.4	
450.87	5457.2	
451.07	6625.9	
451.27	6492.7	
451.47	4490.5	
451.67	5018.9	
451.87	6019	
452.07	7271.7	
452.27	4656.4	
452.47	4714.4	
452.67	6352.8	
452.88	7097.6	
453.08	4048.8	
453.28	6143.9	
453.48	7635.5	
453.68	6389.7	
453.88	4562.9	
454.08	4861.9	
454.28	6655.2	
454.48	6378.1	
454.68	5418.2	
454.88	5939.8	
455.08	6821.1	
455.28	6571.2	
455.48	4449.6	
455.68	5014.1	
455.89	7323.5	
456.09	6950.8	
456.29	4786.1	
456.49	4808.6	
456.69	7187.7	
456.89	6423.1	
457.09	5373.2	
457.29	5694.7	
457.49	6699.6	
457.69	6798.6	
457.89	5058.5	
458.09	4449.6	
458.29	6431.3	
458.49	7192.5	
458.69	5449.6	
458.89	4896.7	
459.09	7335.1	
459.29	7493.5	
459.49	5119.9	
459.69	5819	
459.9	6957.6	
460.1	6349.4	
460.3	4896.7	
460.5	4649.6	
460.7	6818.4	
460.9	6618.4	
461.1	4308.2	
461.3	5602.6	
461.5	7483.3	
461.7	7135.8	
461.9	4720.6	
462.1	5180.7	
462.3	6525.5	
462.5	7155.6	
462.7	4776.5	
462.9	4842.1	
463.1	8222.6	
463.3	7821.9	
463.5	5030.5	
463.7	5928.9	
463.9	6675	
464.1	7066.9	
464.3	5020.3	
464.5	5309	
464.7	7307.2	
464.9	6872.3	
465.1	6739.9	
465.3	5601.9	
465.5	7650.5	
465.7	7574.8	
465.9	5941.8	
466.1	5857.2	
466.3	7400.7	
466.5	7251.2	
466.7	6559	
466.9	5473.5	
467.1	7105.8	
467.3	8077.9	
467.5	6447.7	
467.7	5332.2	
467.9	8229.4	
468.1	9181	
468.3	6171.2	
468.5	6574	
468.7	7088	
468.9	7068.9	
469.1	5608.7	
469.3	6309.1	
469.5	9030.2	
469.7	6477.7	
469.9	6186.9	
470.1	5337	
470.3	6952.2	
470.5	7043	
470.7	6627.9	
470.9	5487.2	
471.1	6830.7	
471.3	7369.3	
471.5	5209.3	
471.69	7230.7	
471.89	6689.3	
472.09	6204.7	
472.29	6055.8	
472.49	6537.1	
472.69	6439.5	
472.89	7337.2	
473.09	5148.6	
473.29	5436.7	
473.49	6563.7	
473.69	6913.3	
473.89	6302.3	
474.09	5483.8	
474.29	8178.2	
474.49	7882.6	
474.69	6229.9	
474.89	5599.1	
475.09	6847.7	
475.29	6761.7	
475.49	5098.8	
475.69	5304.9	
475.88	8539.3	
476.08	7163.8	
476.28	4985.4	
476.48	5537	
476.68	7590.5	
476.88	7501.7	
477.08	5367	
477.28	5634.6	
477.48	6978.1	
477.68	7705.1	
477.88	5146.5	
478.08	5477	
478.28	7926.3	
478.48	7090.8	
478.67	5522	
478.87	5000.5	
479.07	7714.7	
479.27	7193.8	
479.47	5812.1	
479.67	5698.8	
479.87	7527	
480.07	8074.5	
480.27	4964.3	
480.47	6614.9	
480.67	7256	
480.87	7855.3	
481.06	5227.1	
481.26	6127.5	
481.46	7123.5	
481.66	6997.2	
481.86	5702.2	
482.06	6813.6	
482.26	6865.5	
482.46	7753.6	
482.66	5696.1	
482.86	5294	
483.05	7174	
483.25	6509.1	
483.45	8169.3	
483.65	5678.3	
483.85	6830.7	
484.05	7057.3	
484.25	6121.4	
484.45	6494.1	
484.65	7947.5	
484.84	7901.1	
485.04	5536.3	
485.24	5574.6	
485.44	8209.6	
485.64	6524.1	
485.84	4782.7	
486.04	6279.1	
486.24	6888	
486.44	7341.3	
486.63	4751.3	
486.83	5525.4	
487.03	6707.1	
487.23	6923.5	
487.43	4848.2	
487.63	7358.4	
487.83	7030.7	
488.02	8074.5	
488.22	5841.5	
488.42	6460.7	
488.62	7891.5	
488.82	6773.3	
489.02	5514.5	
489.22	5560.2	
489.41	7748.1	
489.61	7361.1	
489.81	5163.6	
490.01	5156.8	
490.21	7598.6	
490.41	8286.1	
490.61	5113.8	
490.8	5250.3	
491	7040.2	
491.2	6391	
491.4	5995.8	
491.6	5064.6	
491.8	7107.8	
491.99	7414.3	
492.19	4958.8	
492.39	5362.9	
492.59	7680.6	
492.79	7755	
492.99	6190.3	
493.18	5218.9	
493.38	7787.7	
493.58	8596	
493.78	5917.3	
493.98	5567.1	
494.18	7497.6	
494.37	6807.4	
494.57	6149.4	
494.77	5952.8	
494.97	7616.4	
495.17	7780.9	
495.37	5473.5	
495.56	5905.7	
495.76	7981.6	
495.96	7619.8	
496.16	6711.2	
496.36	5575.9	
496.55	7714	
496.75	7253.9	
496.95	5975.3	
497.15	5776.6	
497.35	7782.3	
497.54	7707.9	
497.74	5610.8	
497.94	7139.2	
498.14	8366.6	
498.34	8218.5	
498.53	5364.3	
498.73	6118	
498.93	7146.7	
499.13	7623.2	
499.33	5945.3	
499.52	6454.5	
499.72	7615.7	
499.92	7962.5	
500.12	5522.7	
500.32	5882.4	
500.51	7920.2	
500.71	7617.8	
500.91	6623.8	
501.11	6230.6	
501.31	7821.2	
501.5	8271.7	
501.7	6832.7	
501.9	5821.7	
502.1	7589.1	
502.29	7887.4	
502.49	6305	
502.69	6891.4	
502.89	7841	
503.09	7863.5	
503.28	5347.2	
503.48	5531.6	
503.68	6967.2	
503.88	7034.8	
504.07	6455.2	
504.27	5926.1	
504.47	7485.3	
504.67	7632.1	
504.86	6357.6	
505.06	6098.9	
505.26	7167.9	
505.46	8970.1	
505.65	6039.5	
505.85	6232.7	
506.05	7046.4	
506.25	7554.3	
506.44	5386.2	
506.64	6336.4	
506.84	7060	
507.04	7973.4	
507.23	5492.7	
507.43	6188.3	
507.63	8959.9	
507.83	7255.3	
508.02	6157.6	
508.22	5728.9	
508.42	9209	
508.62	7036.8	
508.81	6074.3	
509.01	6569.2	
509.21	6866.2	
509.4	7148.8	
509.6	6201.9	
509.8	5532.2	
510	7203.4	
510.19	8647.9	
510.39	5582.1	
510.59	5561.6	
510.79	6945.3	
510.98	8410.3	
511.18	5693.4	
511.38	5717.2	
511.57	7779.6	
511.77	7598.6	
511.97	6421.7	
512.17	5474.2	
512.36	7871.7	
512.56	7752.2	
512.76	5460.6	
512.95	5284.4	
513.15	7990.5	
513.35	6580.8	
513.55	6479.1	
513.74	5583.4	
513.94	7905.2	
514.14	7132.4	
514.33	6565.1	
514.53	6257.2	
514.73	7196.6	
514.92	7417.1	
515.12	5682.4	
515.32	5560.2	
515.51	7456	
515.71	8001.4	
515.91	7131	
516.11	5571.8	
516.3	9187.9	
516.5	6989.7	
516.7	6155.5	
516.89	6789.7	
517.09	7279.2	
517.29	7049.8	
517.48	6487.3	
517.68	5819.6	
517.88	6917.4	
518.07	7574.8	
518.27	6374	
518.47	5344.5	
518.66	8158.4	
518.86	6713.9	
519.06	5254.4	
519.25	5728.9	
519.45	7133.1	
519.65	8559.1	
519.84	6305	
520.04	6951.5	
520.24	8887.5	
520.43	7662.1	
520.63	6056.5	
520.83	5794.4	
521.02	6902.3	
521.22	7597.3	
521.42	6360.3	
521.61	6850.5	
521.81	7174	
522.01	7425.3	
522.2	6254.5	
522.4	6051.7	
522.6	7922.2	
522.79	6671.6	
522.99	6030.6	
523.18	5328.1	
523.38	7598	
523.58	7527.7	
523.77	7282.6	
523.97	5233.2	
524.17	9422.7	
524.36	8605.6	
524.56	6634.1	
524.76	6191	
524.95	7462.8	
525.15	7114.6	
525.34	5947.3	
525.54	5951.4	
525.74	7851.2	
525.93	6739.2	
526.13	7108.5	
526.33	5902.9	
526.52	8146.8	
526.72	7552.2	
526.91	7256.6	
527.11	6335.7	
527.31	8204.8	
527.5	8506.6	
527.7	6354.2	
527.89	5298.8	
528.09	7021.1	
528.29	7497.6	
528.48	6664.1	
528.68	6343.9	
528.87	7903.1	
529.07	7972.1	
529.27	6286.6	
529.46	5650.3	
529.66	7555.6	
529.85	8016.4	
530.05	5470.8	
530.25	6372.6	
530.44	8961.9	
530.64	7482.6	
530.83	5895.4	
531.03	6171.2	
531.23	7975.5	
531.42	7964.6	
531.62	7103.7	
531.81	6159.6	
532.01	8049.9	
532.21	8518.2	
532.4	5844.9	
532.6	6204	
532.79	8946.9	
532.99	8036.2	
533.18	6203.3	
533.38	7290.8	
533.58	7509.2	
533.77	8471.1	
533.97	6129.6	
534.16	6915.3	
534.36	8585.1	
534.55	7503.8	
534.75	7162.4	
534.95	6227.2	
535.14	8357.1	
535.34	7546.1	
535.53	5784.8	
535.73	7866.9	
535.92	8896.4	
536.12	7798.7	
536.31	6016.2	
536.51	7253.2	
536.71	8006.2	
536.9	7663.5	
537.1	6126.2	
537.29	6324.8	
537.49	8504.5	
537.68	7542	
537.88	6617	
538.07	5917.3	
538.27	7763.2	
538.46	8796.7	
538.66	5750.7	
538.86	6193.1	
539.05	7783	
539.25	8195.3	
539.44	6438.8	
539.64	6068.1	
539.83	7624.6	
540.03	8677.9	
540.22	5957.5	
540.42	6152.8	
540.61	7965.9	
540.81	8067.6	
541	6586.3	
541.2	7238.9	
541.39	7476.5	
541.59	7813.7	
541.78	6886	
541.98	5981.4	
542.18	6992.4	
542.37	7103.7	
542.57	6402	
542.76	6885.3	
542.96	7144.7	
543.15	7946.8	
543.35	6436.1	
543.54	5765	
543.74	8262.9	
543.93	7718.8	
544.13	6500.3	
544.32	7531.7	
544.52	8185	
544.71	7285.3	
544.91	5484.5	
545.1	6870.9	
545.3	7439.6	
545.49	8090.8	
545.69	5473.5	
545.88	6129.6	
546.08	9023.4	
546.27	8634.2	
546.47	6633.4	
546.66	5941.8	
546.86	8301.1	
547.05	9031.5	
547.24	6192.4	
547.44	5966.4	
547.63	7225.9	
547.83	8418.5	
548.02	6371.2	
548.22	6647.7	
548.41	7009.5	
548.61	8430.1	
548.8	5940.5	
549	5845.6	
549.19	7791.2	
549.39	8088.8	
549.58	5679	
549.78	6234.7	
549.97	8095.6	
550.17	7636.9	
550.36	7193.1	
550.55	8192.6	
550.75	7675.8	
550.94	8620.6	
551.14	5920	
551.33	6419.7	
551.53	6984.3	
551.72	8004.1	
551.92	6337.1	
552.11	6065.4	
552.31	8062.9	
552.5	8153.6	
552.69	7945.4	
552.89	5758.2	
553.08	8034.2	
553.28	7787.1	
553.47	6197.8	
553.67	7332.4	
553.86	8746.9	
554.06	7028.6	
554.25	5369.1	
554.44	5958.2	
554.64	9555.8	
554.83	8994	
555.03	5860.6	
555.22	6229.2	
555.42	8270.4	
555.61	7972.7	
555.8	6088.6	
556	6470.9	
556.19	7107.1	
556.39	8400.8	
556.58	6061.3	
556.78	6133	
556.97	7888.8	
557.16	7581.6	
557.36	7477.8	
557.55	5819	
557.75	6893.5	
557.94	8590.5	
558.13	5892	
558.33	5627.8	
558.52	8400.1	
558.72	7305.1	
558.91	5768.4	
559.1	6055.8	
559.3	7040.2	
559.49	6697.5	
559.69	5310.4	
559.88	6378.1	
560.07	7847.1	
560.27	8258.1	
560.46	6597.9	
560.66	6795.8	
560.85	7673.1	
561.04	6886	
561.24	5715.9	
561.43	6047	
561.63	7087.3	
561.82	7370.6	
562.01	7292.1	
562.21	6338.5	
562.4	7929.1	
562.59	8764.6	
562.79	6224.5	
562.98	5811.5	
563.18	7743.4	
563.37	9227.5	
563.56	6655.2	
563.76	5599.8	
563.95	7208.8	
564.14	7119.4	
564.34	6100.9	
564.53	5869.5	
564.73	7776.8	
564.92	8053.3	
565.11	6242.9	
565.31	5580.7	
565.5	8275.2	
565.69	7268.9	
565.89	5780.1	
566.08	6053.8	
566.27	8163.2	
566.47	8537.3	
566.66	6705	
566.85	5416.9	
567.05	7699	
567.24	7064.1	
567.44	5696.1	
567.63	7107.1	
567.82	7942.7	
568.02	7634.8	
568.21	5683.8	
568.4	6126.2	
568.6	7492.2	
568.79	7511.9	
568.98	5459.2	
569.18	5732.3	
569.37	7425.9	
569.56	9487.6	
569.76	5941.8	
569.95	6949.4	
570.14	7840.3	
570.34	7699.7	
570.53	5477.6	
570.72	5431.2	
570.91	8256.7	
571.11	7324.9	
571.3	6015.6	
571.49	6864.8	
571.69	7404.1	
571.88	7006.1	
572.07	6494.1	
572.27	6542.6	
572.46	6991.8	
572.65	8063.5	
572.85	5796.4	
573.04	6078.4	
573.23	8176.9	
573.43	7484.6	
573.62	5468.8	
573.81	6085.2	
574	7524.2	
574.2	7365.2	
574.39	5814.9	
574.58	5973.2	
574.78	8281.3	
574.97	7563.8	
575.16	6320	
575.36	6458.6	
575.55	7946.1	
575.74	8141.4	
575.93	5416.9	
576.13	6448.4	
576.32	7358.4	
576.51	7901.7	
576.71	5838.8	
576.9	7182.9	
577.09	8228.1	
577.28	7761.8	
577.48	6324.8	
577.67	5319.3	
577.86	7398.6	
578.05	7656	
578.25	5930.9	
578.44	6056.5	
578.63	7497.6	
578.83	8642.4	
579.02	5306.3	
579.21	6951.5	
579.4	7705.8	
579.6	7332.4	
579.79	6169.8	
579.98	8382.3	
580.17	8027.4	
580.37	8173.4	
580.56	5640.1	
580.75	6346	
580.94	8587.8	
581.14	8452	
581.33	6848.4	
581.52	5728.2	
581.71	7852.6	
581.91	8595.3	
582.1	5393	
582.29	6138.4	
582.48	7616.4	
582.68	7514	
582.87	6508.4	
583.06	6059.3	
583.25	7920.9	
583.45	7201.3	
583.64	6894.1	
583.83	7665.5	
584.02	7412.3	
584.21	7857.4	
584.41	6834.1	
584.6	6057.9	
584.79	7546.8	
584.98	8305.9	
585.18	5525.4	
585.37	5536.3	
585.56	7135.1	
585.75	7857.4	
585.94	5828.5	
586.14	6556.9	
586.33	8514.1	
586.52	7516.7	
586.71	6339.8	
586.91	6032.6	
587.1	7027.3	
587.29	7879.9	
587.48	5896.1	
587.67	5773.9	
587.87	7869.7	
588.06	7890.8	
588.25	7105.8	
588.44	6386.2	
588.63	7461.4	
588.83	7978.2	
589.02	5730.2	
589.21	5612.1	
589.4	7185.6	
589.59	6989.7	
589.78	4927.4	
589.98	5280.3	
590.17	6717.3	
590.36	7298.3	
590.55	4702.1	
590.74	5616.9	
590.94	8787.2	
591.13	7305.1	
591.32	5333.6	
591.51	4916.5	
591.7	7705.1	
591.89	7221.1	
592.09	5018.2	
592.28	5492.7	
592.47	6432	
592.66	8314.1	
592.85	5016.8	
593.05	5222.3	
593.24	7078.5	
593.43	7886.7	
593.62	5251	
593.81	5853.1	
594	7111.2	
594.19	7354.9	
594.39	5269.4	
594.58	5200.5	
594.77	7436.9	
594.96	8043.7	
595.15	5033.9	
595.34	5799.2	
595.54	7534.5	
595.73	6598.6	
595.92	4597	
596.11	5773.9	
596.3	8019.2	
596.49	6697.5	
596.68	5567.1	
596.88	6028.5	
597.07	7783.6	
597.26	6522.8	
597.45	5109	
597.64	6333	
597.83	6776	
598.02	7484	
598.22	5190.9	
598.41	5863.3	
598.6	7247.1	
598.79	6703.7	
598.98	5240.1	
599.17	6164.4	
599.36	7277.1	
599.55	8569.4	
599.74	7492.8	
599.94	7041.6	
600.13	7938.6	
600.32	6694.8	
600.51	4997	
600.7	5200.5	
600.89	8540.7	
601.08	8562.6	
601.27	4968.4	
601.47	6006	
601.66	7909.3	
601.85	8490.2	
602.04	5693.4	
602.23	5978.7	
602.42	6838.2	
602.61	7557	
602.8	5682.4	
602.99	5396.4	
603.18	7241.6	
603.37	7503.1	
603.57	6120.7	
603.76	6639.5	
603.95	8359.8	
604.14	7888.1	
604.33	5474.2	
604.52	5894.7	
604.71	7492.2	
604.9	7109.9	
605.09	6453.8	
605.28	6234.7	
605.47	8048.5	
605.66	7801.4	
605.86	6122.7	
606.05	5502.9	
606.24	8041.7	
606.43	6556.2	
606.62	5828.5	
606.81	6693.4	
607	7987.8	
607.19	7188.4	
607.38	5259.9	
607.57	5606	
607.76	7121.5	
607.95	6453.8	
608.14	5963.7	
608.33	6549.4	
608.52	7051.2	
608.72	7903.8	
608.91	5203.2	
609.1	5138.4	
609.29	7212.9	
609.48	6634.1	
609.67	6167.1	
609.86	5158.2	
610.05	6737.1	
610.24	7140.6	
610.43	5071.5	
610.62	4657.8	
610.81	8354.3	
611	7963.2	
611.19	5262.6	
611.38	5978	
611.57	7419.1	
611.76	8768.7	
611.95	4952.7	
612.14	4815.5	
612.33	7176.8	
612.52	6735.1	
612.71	5511.1	
612.9	4681.7	
613.09	6328.2	
613.28	8685.4	
613.47	5240.1	
613.66	6252.4	
613.85	7365.2	
614.04	6825.2	
614.24	5366.4	
614.43	4588.1	
614.62	7480.5	
614.81	7442.3	
615	5940.5	
615.19	5902.9	
615.38	6677.1	
615.57	7034.1	
615.76	5734.3	
615.95	6761	
616.14	7505.8	
616.33	7083.9	
616.52	6068.8	
616.71	6406	
616.9	7422.5	
617.09	7236.8	
617.28	5465.3	
617.47	6725.5	
617.66	6483.9	
617.85	6571.2	
618.04	6335.7	
618.22	5788.2	
618.41	6810.2	
618.6	7761.8	
618.79	5636	
618.98	5354.1	
619.17	8046.5	
619.36	6379.4	
619.55	5560.9	
619.74	5572.5	
619.93	7329.7	
620.12	6745.3	
620.31	6003.3	
620.5	6156.2	
620.69	8218.5	
620.88	8237.6	
621.07	6908.5	
621.26	5956.9	
621.45	7443.7	
621.64	7510.6	
621.83	6044.2	
622.02	5212.8	
622.21	7444.4	
622.4	7217	
622.59	6543.3	
622.78	6314.6	
622.97	6773.3	
623.16	7770.7	
623.35	5931.6	
623.54	5055.1	
623.72	7025.2	
623.91	7210.9	
624.1	6171.2	
624.29	4832.5	
624.48	8241	
624.67	7400.7	
624.86	6049	
625.05	5105.6	
625.24	8346.8	
625.43	6645	
625.62	7740	
625.81	5264	
626	7740	
626.19	6956.9	
626.38	6141.2	
626.56	5493.3	
626.75	6739.2	
626.94	7521.5	
627.13	6042.9	
627.32	4726	
627.51	7442.3	
627.7	8911.4	
627.89	4904.2	
628.08	6007.4	
628.27	6577.4	
628.46	6827.9	
628.65	5211.4	
628.83	4844.8	
629.02	7441.6	
629.21	6616.3	
629.4	5674.9	
629.59	5868.1	
629.78	6623.8	
629.97	7694.9	
630.16	5920	
630.35	5331.5	
630.54	8085.4	
630.72	7692.2	
630.91	5362.9	
631.1	5959.6	
631.29	7193.8	
631.48	7342	
631.67	6044.2	
631.86	5462.6	
632.05	6812.2	
632.24	6916	
632.42	5097.4	
632.61	5708.4	
632.8	7040.2	
632.99	6599.2	
633.18	5711.8	
633.37	6189.6	
633.56	7253.2	
633.75	7068.2	
633.93	5765	
634.12	5373.9	
634.31	8091.5	
634.5	7688.1	
634.69	5520	
634.88	5985.5	
635.07	6994.5	
635.25	7720.8	
635.44	6423.8	
635.63	6620.4	
635.82	6840.2	
636.01	6391	
636.2	6357.6	
636.39	5847	
636.57	8078.6	
636.76	7816.4	
636.95	5328.1	
637.14	6760.3	
637.33	7434.1	
637.52	8305.2	
637.7	5122.7	
637.89	6071.5	
638.08	6921.5	
638.27	8462.9	
638.46	6143.9	
638.65	6592.4	
638.83	8433.5	
639.02	6782.2	
639.21	6100.9	
639.4	6621.8	
639.59	7365.2	
639.78	6944	
639.96	5345.9	
640.15	5442.1	
640.34	7154.2	
640.53	7378.8	
640.72	5077.6	
640.91	5429.8	
641.09	6600.6	
641.28	8020.5	
641.47	5524.7	
641.66	6267.5	
641.85	7303.7	
642.03	7646.4	
642.22	6081.1	
642.41	5523.4	
642.6	6756.9	
642.79	6156.2	
642.97	5307	
643.16	6044.9	
643.35	6617.7	
643.54	6527.6	
643.73	5261.2	
643.91	6115.2	
644.1	6315.9	
644.29	6961.7	
644.48	5315.2	
644.67	5259.2	
644.85	6593.1	
645.04	6797.2	
645.23	4887.8	
645.42	5218.2	
645.6	6433.4	
645.79	7650.5	
645.98	5281	
646.17	4250.9	
646.36	6132.3	
646.54	6881.9	
646.73	6129.6	
646.92	4836.6	
647.11	6453.8	
647.29	7565.9	
647.48	4900.1	
647.67	4732.9	
647.86	7778.2	
648.05	7792.5	
648.23	5313.8	
648.42	6657.9	
648.61	7168.6	
648.8	7008.1	
648.98	5015.5	
649.17	5288.5	
649.36	6502.3	
649.55	5952.8	
649.73	5004.6	
649.92	5718.6	
650.11	6430.6	
650.3	6715.3	
650.48	5219.6	
650.67	4844.1	
650.86	7018.4	
651.05	5890	
651.23	5128.8	
651.42	5087.8	
651.61	6512.5	
651.79	6691.4	
651.98	5300.8	
652.17	4903.5	
652.36	6963.8	
652.54	6019.7	
652.73	4967	
652.92	4738.3	
653.11	6970.6	
653.29	7103.7	
653.48	4201.7	
653.67	5283.1	
653.85	6710.5	
654.04	7676.5	
654.23	5464	
654.42	5083.1	
654.6	6325.5	
654.79	6966.5	
654.98	4571.1	
655.16	5160.2	
655.35	5967.1	
655.54	5935	
655.73	4741.7	
655.91	4602.5	
656.1	7153.6	
656.29	5930.2	
656.47	4201.7	
656.66	6008.1	
656.85	6135	
657.03	6275.7	
657.22	4780	
657.41	4816.1	
657.59	6270.2	
657.78	6075.6	
657.97	4375.1	
658.16	5156.1	
658.34	6976.1	
658.53	7345.4	
658.72	6052.4	
658.9	6621.8	
659.09	6318.7	
659.28	6444.3	
659.46	4864.6	
659.65	4911.7	
659.84	6197.2	
660.02	6728.9	
660.21	4701.5	
660.4	4647.5	
660.58	7168.6	
660.77	6567.8	
660.96	5287.2	
661.14	4339	
661.33	7684.7	
661.52	7529	
661.7	4282.3	
661.89	8150.2	
662.08	6096.1	
662.26	5713.8	
662.45	4630.5	
662.64	4772.4	
662.82	6863.4	
663.01	6047.7	
663.2	4779.3	
663.38	5515.2	
663.57	6767.2	
663.75	6619	
663.94	5107.6	
664.13	6469.5	
664.31	6109.8	
664.5	6879.8	
664.69	5523.4	
664.87	5907.7	
665.06	5815.5	
665.25	6583.5	
665.43	6126.8	
665.62	6240.8	
665.8	6996.5	
665.99	6212.2	
666.18	5086.5	
666.36	5141.8	
666.55	6929.6	
666.74	6855.2	
666.92	4692.6	
667.11	6479.8	
667.29	6197.2	
667.48	6868.2	
667.67	5985.5	
667.85	5143.8	
668.04	6334.4	
668.22	6289.3	
668.41	5212.8	
668.6	5342.5	
668.78	6062.7	
668.97	6320.7	
669.15	5548.6	
669.34	4453	
669.53	6126.8	
669.71	6431.3	
669.9	4666.6	
670.08	5311.1	
670.27	6091.3	
670.46	6698.2	
670.64	5617.6	
670.83	5821	
671.01	5982.1	
671.2	6617	
671.38	4735.6	
671.57	4726	
671.76	7264.8	
671.94	7848.5	
672.13	4588.8	
672.31	5742.5	
672.5	6765.1	
672.69	6084.5	
672.87	4775.2	
673.06	5023	
673.24	6658.6	
673.43	6177.4	
673.61	5517.9	
673.8	4924.7	
673.98	6894.8	
674.17	7030.7	
674.36	5580.7	
674.54	5471.5	
674.73	6636.1	
674.91	6817	
675.1	5218.9	
675.28	4808.6	
675.47	6391	
675.65	6914.6	
675.84	5011.4	
676.03	5390.9	
676.21	6108.4	
676.4	5629.2	
676.58	5881.8	
676.77	5561.6	
676.95	7605.5	
677.14	6077.7	
677.32	4706.9	
677.51	4506.9	
677.69	6879.1	
677.88	5663.3	
678.06	4495.3	
678.25	4673.5	
678.44	6434.7	
678.62	6109.1	
678.81	4387.4	
678.99	5369.1	
679.18	7193.1	
679.36	6670.9	
679.55	5013.4	
679.73	5603.2	
679.92	6691.4	
680.1	6136.4	
680.29	6285.2	
680.47	4933.6	
680.66	6015.6	
680.84	6935.8	
681.03	4278.2	
681.21	5476.3	
681.4	6118	
681.58	5928.9	
681.77	4776.5	
681.95	4616.8	
682.14	6972	
682.32	7287.4	
682.51	5664	
682.69	4500.1	
682.88	6036	
683.06	6768.5	
683.25	5294	
683.43	5917.3	
683.62	6305.7	
683.8	6657.9	
683.99	5788.2	
684.17	5070.8	
684.36	7502.4	
684.54	6119.3	
684.73	4227.7	
684.91	4541.7	
685.1	6490	
685.28	5973.2	
685.46	5175.9	
685.65	5298.1	
685.83	6844.3	
686.02	6261.3	
686.2	4778.6	
686.39	4796.3	
686.57	5816.9	
686.76	7529.7	
686.94	4668	
687.13	4801.1	
687.31	6698.2	
687.5	6226.5	
687.68	4166.3	
687.86	5543.2	
688.05	7825.3	
688.23	5607.3	
688.42	5599.1	
688.6	4693.9	
688.79	6027.9	
688.97	6038.8	
689.16	5157.5	
689.34	3977.8	
689.52	6741.2	
689.71	7027.9	
689.89	5330.9	
690.08	4666.6	
690.26	6230.6	
690.45	6117.3	
690.63	5602.6	
690.81	4706.9	
691	5946.6	
691.18	5948.7	
691.37	4934.2	
691.55	7261.4	
691.74	5916.6	
691.92	8010.3	
692.1	4962.9	
692.29	4433.2	
692.47	6132.3	
692.66	5425.1	
692.84	4540.3	
693.02	5210	
693.21	5549.3	
693.39	6102.9	
693.58	5332.9	
693.76	4726	
693.94	7316.7	
694.13	7053.9	
694.31	4648.9	
694.5	5760.3	
694.68	5937.7	
694.86	6204.7	
695.05	4976.6	
695.23	5456.5	
695.42	6580.8	
695.6	8924.4	
695.78	5634.6	
695.97	4660.5	
696.15	6619	
696.34	5968.5	
696.52	4423.6	
696.7	5273.5	
696.89	6361.7	
697.07	5747.3	
697.25	5216.9	
697.44	6789	
697.62	6321.4	
697.81	6673.6	
697.99	4942.4	
698.17	5435.3	
698.36	5621	
698.54	6411.5	
698.72	5277.6	
698.91	4240	
699.09	5880.4	
699.28	5847	
699.46	4914.4	
699.64	4805.9	
699.83	5796.4	
700.01	7144.7	
700.19	5672.9	
700.38	4000.4	
700.56	7051.2	
700.74	5885.9	
700.93	4429.1	
701.11	5267.4	
701.29	6407.4	
701.48	7556.3	
701.66	4607.2	
701.84	4685.8	
702.03	5947.3	
702.21	6660.7	
702.39	4209.9	
702.58	4765.6	
702.76	6382.2	
702.94	6460.7	
703.13	4196.3	
703.31	6701.6	
703.49	5618.9	
703.68	6997.2	
703.86	4443.4	
704.04	5384.8	
704.23	6193.7	
704.41	6672.3	
704.59	4552.6	
704.78	5898.8	
704.96	7331.7	
705.14	6698.2	
705.33	4351.9	
705.51	5220.3	
705.69	6067.4	
705.87	6939.2	
706.06	5492.7	
706.24	4272.7	
706.42	6380.1	
706.61	6668.2	
706.79	5582.1	
706.97	4346.5	
707.16	5783.5	
707.34	6454.5	
707.52	5466	
707.7	4624.3	
707.89	6044.2	
708.07	5676.3	
708.25	5528.2	
708.44	5560.2	
708.62	5894.1	
708.8	7068.9	
708.98	5829.2	
709.17	4691.2	
709.35	6370.5	
709.53	6431.3	
709.72	4355.3	
709.9	4564.9	
710.08	6576	
710.26	6637.5	
710.45	6095.4	
710.63	4835.9	
710.81	6247	
710.99	6315.9	
711.18	5359.5	
711.36	4872.1	
711.54	6119.3	
711.72	6907.1	
711.91	4965	
712.09	4395.6	
712.27	6270.9	
712.45	6954.9	
712.64	5277.6	
712.82	4164.9	
713	5661.3	
713.18	5936.4	
713.37	4325.3	
713.55	5541.1	
713.73	6767.2	
713.91	5311.1	
714.1	4776.5	
714.28	4172.4	
714.46	6435.4	
714.64	5692	
714.83	3785.3	
715.01	4637.3	
715.19	5878.4	
715.37	5315.2	
715.55	4364.9	
715.74	4693.9	
715.92	6826.6	
716.1	4782	
716.28	5805.3	
716.47	4918.5	
716.65	5546.6	
716.83	5656.5	
717.01	4735.6	
717.19	4912.4	
717.38	7751.6	
717.56	5352.7	
717.74	5043.5	
717.92	4138.3	
718.1	6676.4	
718.29	5793	
718.47	3747.1	
718.65	4410.6	
718.83	6412.9	
719.01	6356.2	
719.2	3514.3	
719.38	4664.6	
719.56	5971.9	
719.74	7604.1	
719.92	4177.9	
720.11	5360.2	
720.29	6072.2	
720.47	5122.7	
720.65	3776.5	
720.83	4674.1	
721.02	5592.3	
721.2	5367	
721.38	4790.9	
721.56	4067.9	
721.74	4895.3	
721.92	5173.2	
722.11	5337	
722.29	5005.2	
722.47	6393.8	
722.65	5528.8	
722.83	4061.8	
723.01	5144.5	
723.2	5618.9	
723.38	5848.3	
723.56	3502	
723.74	4704.9	
723.92	5113.8	
724.1	6322.8	
724.29	4014	
724.47	5323.4	
724.65	5180.7	
724.83	5089.9	
725.01	3910.3	
725.19	4859.1	
725.37	5242.8	
725.56	5287.2	
725.74	3814.7	
725.92	4044.7	
726.1	5108.3	
726.28	5431.9	
726.46	4446.1	
726.64	4199	
726.83	5386.8	
727.01	5732.3	
727.19	3745.1	
727.37	4698	
727.55	5556.8	
727.73	6064.7	
727.91	3757.3	
728.09	3544.4	
728.28	6112.5	
728.46	6860.7	
728.64	4807.9	
728.82	4765.6	
729	7243.7	
729.18	6493.4	
729.36	3861.1	
729.54	6233.3	
729.72	7462.1	
729.91	5708.4	
730.09	5896.8	
730.27	4571.7	
730.45	5606.7	
730.63	6266.1	
730.81	5245.5	
730.99	4222.2	
731.17	6789.7	
731.35	5350.7	
731.53	4843.4	
731.71	4358.1	
731.9	6508.4	
732.08	6735.8	
732.26	4650.3	
732.44	4255.7	
732.62	6803.4	
732.8	6217.6	
732.98	5085.1	
733.16	4093.2	
733.34	6275.7	
733.52	5059.8	
733.7	4658.4	
733.88	4914.4	
734.07	6153.5	
734.25	5876.3	
734.43	4062.5	
734.61	5782.1	
734.79	7386.3	
734.97	5778.7	
735.15	4250.2	
735.33	4591.5	
735.51	6126.2	
735.69	5789.6	
735.87	5823.7	
736.05	5036.6	
736.23	5963.7	
736.41	5767.1	
736.59	4697.4	
736.77	4806.6	
736.95	6472.9	
737.13	5840.8	
737.32	4407.2	
737.5	4545.1	
737.68	7021.8	
737.86	5754.1	
738.04	4121.2	
738.22	6161.7	
738.4	5558.2	
738.58	5913.2	
738.76	4904.9	
738.94	3754.6	
739.12	5741.1	
739.3	5584.1	
739.48	5543.9	
739.66	5197.1	
739.84	6045.6	
740.02	6011.5	
740.2	3809.9	
740.38	4267.3	
740.56	6444.3	
740.74	5248.3	
740.92	4948.6	
741.1	4868.7	
741.28	5835.3	
741.46	5732.3	
741.64	4537.6	
741.82	5081	
742	5880.4	
742.18	5833.3	
742.36	4771.1	
742.54	4290.5	
742.72	6466.1	
742.9	5165.7	
743.08	5170.4	
743.26	3911.6	
743.44	6728.9	
743.62	6569.9	
743.8	5335.6	
743.98	4424.3	
744.16	6283.9	
744.34	5935.7	
744.52	5236.7	
744.7	5193	
744.88	6354.8	
745.06	5927.5	
745.24	5328.1	
745.42	5408.7	
745.6	6523.5	
745.78	6213.5	
745.96	4067.9	
746.14	4472.1	
746.32	7376.8	
746.5	6655.2	
746.68	5107.6	
746.86	4410.6	
747.03	7038.9	
747.21	5265.3	
747.39	5038	
747.57	4532.2	
747.75	6136.4	
747.93	6565.8	
748.11	4463.9	
748.29	4376.5	
748.47	7800.7	
748.65	5921.4	
748.83	5289.9	
749.01	4918.5	
749.19	6389.7	
749.37	5513.1	
749.55	4838	
749.73	4899.4	
749.91	6088.6	
750.09	5743.2	
750.26	4981.3	
750.44	4343.7	
750.62	6137.1	
750.8	6062.7	
750.98	4208.6	
751.16	4591.5	
751.34	6167.1	
751.52	5477	
751.7	5433.9	
751.88	4143.7	
752.06	6639.5	
752.24	6463.4	
752.42	4188.8	
752.59	4539	
752.77	6021	
752.95	7363.8	
753.13	5316.5	
753.31	4681.7	
753.49	5795.1	
753.67	6251.8	
753.85	4980.7	
754.03	4501.4	
754.21	6533.7	
754.38	6903.7	
754.56	4770.4	
754.74	3726.6	
754.92	5691.3	
755.1	6490	
755.28	3770.3	
755.46	3850.9	
755.64	7263.5	
755.82	7383.6	
755.99	4136.9	
756.17	4209.3	
756.35	4796.3	
756.53	6567.2	
756.71	3112.2	
756.89	4138.9	
757.07	6060.6	
757.25	5058.5	
757.42	4658.4	
757.6	5614.8	
757.78	6094.1	
757.96	5071.5	
758.14	4317.1	
758.32	3818.8	
758.5	4546.5	
758.67	5454.4	
758.85	4087.1	
759.03	4274.8	
759.21	5673.6	
759.39	5034.6	
759.57	3706.1	
759.75	4837.3	
759.92	6305	
760.1	5531.6	
760.28	5321.3	
760.46	5472.2	
760.64	5250.3	
760.82	4984.1	
760.99	5118.6	
761.17	4237.2	
761.35	6183.5	
761.53	5173.2	
761.71	4390.2	
761.89	5052.3	
762.06	6042.9	
762.24	5466	
762.42	4503.5	
762.6	4229.7	
762.78	5570.5	
762.96	6273.6	
763.13	4894	
763.31	4527.4	
763.49	6445.6	
763.67	5535	
763.85	5471.5	
764.02	6150.7	
764.2	6690	
764.38	5852.4	
764.56	4447.5	
764.74	5367	
764.91	6831.3	
765.09	5677	
765.27	4150.6	
765.45	3992.9	
765.63	6840.9	
765.8	6701	
765.98	3672.7	
766.16	4009.9	
766.34	5282.4	
766.52	5057.1	
766.69	5005.2	
766.87	3882.3	
767.05	5701.5	
767.23	6571.9	
767.41	4241.3	
767.58	4506.9	
767.76	6305.7	
767.94	6435.4	
768.12	4236.6	
768.29	5120.6	
768.47	5754.8	
768.65	6516.6	
768.83	3922.5	
769	5098.1	
769.18	5304.9	
769.36	6149.4	
769.54	5150.6	
769.72	3934.1	
769.89	6399.9	
770.07	6485.2	
770.25	4363.5	
770.43	5660.6	
770.6	7258	
770.78	7656.7	
770.96	4541	
771.14	4337.6	
771.31	6208.8	
771.49	5572.5	
771.67	3635.8	
771.85	3921.9	
772.02	4839.4	
772.2	5642.8	
772.38	4750.6	
772.55	4135.5	
772.73	5899.5	
772.91	5636.7	
773.09	4533.5	
773.26	4631.1	
773.44	5869.5	
773.62	5575.9	
773.8	4090.5	
773.97	3813.3	
774.15	5884.5	
774.33	5517.2	
774.5	3941	
774.68	4375.8	
774.86	6174.6	
775.04	5576.6	
775.21	4052.9	
775.39	4093.9	
775.57	5829.9	
775.74	6365.1	
775.92	3874.1	
776.1	3805.1	
776.27	5836	
776.45	7116	
776.63	4010.6	
776.81	3554.6	
776.98	5444.2	
777.16	6649.8	
777.34	4198.3	
777.51	4136.2	
777.69	5386.8	
777.87	5246.9	
778.04	4249.5	
778.22	4877.6	
778.4	5258.5	
778.57	6051.1	
778.75	3490.4	
778.93	3763.5	
779.1	5023	
779.28	4912.4	
779.46	3423.5	
779.64	4050.2	
779.81	6135.7	
779.99	7066.2	
780.17	4820.2	
780.34	5013.4	
780.52	5486.5	
780.69	5727.5	
780.87	4362.2	
781.05	3910.3	
781.22	5567.7	
781.4	5671.5	
781.58	4016.7	
781.75	3185.3	
781.93	5631.9	
782.11	5046.9	
782.28	4971.8	
782.46	4002.4	
782.64	4912.4	
782.81	5855.8	
782.99	4147.1	
783.17	4111	
783.34	5780.7	
783.52	4906.3	
783.69	4415.4	
783.87	5136.3	
784.05	4943.8	
784.22	5040.1	
784.4	5143.8	
784.58	4382	
784.75	5980.1	
784.93	5044.8	
785.1	3994.2	
785.28	4729.4	
785.46	5683.8	
785.63	5012.1	
785.81	4002.4	
785.99	3840.6	
786.16	5147.9	
786.34	5554.1	
786.51	3956.7	
786.69	4287.8	
786.87	4773.8	
787.04	5307.7	
787.22	3796.3	
787.39	4812	
787.57	5014.8	
787.75	6186.9	
787.92	4889.9	
788.1	4898.1	
788.27	5041.4	
788.45	4823	
788.63	4594.3	
788.8	3308.8	
788.98	5431.2	
789.15	4754	
789.33	3434.4	
789.5	4120.5	
789.68	5999.9	
789.86	6120	
790.03	4513	
790.21	3935.5	
790.38	5948	
790.56	5193.6	
790.73	3809.2	
790.91	3852.9	
791.09	4997.7	
791.26	5805.3	
791.44	3999.7	
791.61	3448.1	
791.79	4997.7	
791.96	5143.1	
792.14	3603.1	
792.32	3130	
792.49	4975.2	
792.67	5128.1	
792.84	3615.3	
793.02	3443.3	
793.19	5945.3	
793.37	6288.6	
793.54	3168.2	
793.72	3558	
793.89	6402	
794.07	5109	
794.25	4199	
794.42	3241.3	
794.6	6188.3	
794.77	5741.1	
794.95	4457.7	
795.12	3834.5	
795.3	5012.1	
795.47	5691.3	
795.65	4334.2	
795.82	4096.6	
796	4807.3	
796.17	6820.4	
796.35	3949.2	
796.52	4731.5	
796.7	5578.7	
796.87	5664	
797.05	4896	
797.22	4824.3	
797.4	5662	
797.57	6728.9	
797.75	4082.3	
797.92	3860.4	
798.1	6008.1	
798.27	4980	
798.45	3245.3	
798.62	3571	
798.8	5336.3	
798.97	5876.3	
799.15	4300.1	
799.32	4073.4	
799.5	4606.6	
799.67	5444.9	
799.85	4485.1	
800.02	3201	
800.2	4974.5	
800.37	5394.3	
800.55	4629.8	
800.72	3812	
800.9	5816.2	
801.07	6274.3	
801.25	5257.1	
801.42	4268.6	
801.6	5903.6	
801.77	5595.7	
801.95	3925.3	
802.12	3776.5	
802.29	5594.4	
802.47	5537.7	
802.64	4227.7	
802.82	3153.2	
802.99	4958.8	
803.17	6032	
803.34	4079.6	
803.52	3741.6	
803.69	6690	
803.87	4735.6	
804.04	4085.7	
804.21	4173.8	
804.39	6136.4	
804.56	5261.2	
804.74	3432.4	
804.91	4299.4	
805.09	5033.2	
805.26	5141.8	
805.44	3506.8	
805.61	3936.9	
805.78	5669.5	
805.96	5814.2	
806.13	4256.4	
806.31	4582	
806.48	4551.3	
806.66	5089.2	
806.83	4225	
807	4147.1	
807.18	4979.3	
807.35	5506.3	
807.53	4064.5	
807.7	3320.4	
807.87	6274.3	
808.05	5076.2	
808.22	4591.5	
808.4	3286.3	
808.57	5098.8	
808.74	4743.1	
808.92	3772.4	
809.09	4832.5	
809.27	4947.2	
809.44	5601.9	
809.61	3355.3	
809.79	3716.4	
809.96	6257.2	
810.14	5871.5	
810.31	3242.6	
810.48	4010.6	
810.66	5233.2	
810.83	5906.3	
811.01	3765.5	
811.18	4235.9	
811.35	5857.9	
811.53	4515.8	
811.7	4628.4	
811.87	4322.6	
812.05	5051	
812.22	5038.7	
812.39	3601.7	
812.57	3531.4	
812.74	5145.9	
812.92	6800.6	
813.09	3988.8	
813.26	4328.7	
813.44	6533.7	
813.61	5066.7	
813.78	3291.1	
813.96	4457.7	
814.13	5116.5	
814.3	4697.4	
814.48	4854.4	
814.65	3971	
814.82	6380.1	
815	4888.5	
815.17	4030.4	
815.34	5043.5	
815.52	5017.5	
815.69	4978.6	
815.87	4085.7	
816.04	3553.2	
816.21	5105.6	
816.38	4431.1	
816.56	3942.3	
816.73	3611.9	
816.9	6491.4	
817.08	5859.2	
817.25	3736.9	
817.42	4694.6	
817.6	4618.2	
817.77	5152.7	
817.94	4211.3	
818.12	3650.2	
818.29	4850.3	
818.46	7677.2	
818.64	3801.7	
818.81	3590.1	
818.98	4715.1	
819.16	7040.2	
819.33	4435.9	
819.5	4116.4	
819.67	5494	
819.85	6162.3	
820.02	4040.6	
820.19	4305.5	
820.37	5320.6	
820.54	4880.3	
820.71	4146.5	
820.88	5169.1	
821.06	5333.6	
821.23	4847.5	
821.4	4157.4	
821.58	4145.1	
821.75	5850.4	
821.92	5225.1	
822.09	3306.1	
822.27	3431.7	
822.44	5031.2	
822.61	5008.6	
822.79	3387.3	
822.96	6522.1	
823.13	5550	
823.3	4810	
823.48	3932.1	
823.65	3489.1	
823.82	5812.1	
823.99	4678.2	
824.17	4949.9	
824.34	3594.2	
824.51	6770.6	
824.68	5171.8	
824.86	3716.4	
825.03	4177.9	
825.2	5015.5	
825.37	6209.4	
825.55	3654.3	
825.72	4054.3	
825.89	6819.1	
826.06	6343.2	
826.24	4023.6	
826.41	4035.9	
826.58	6259.3	
826.75	5399.8	
826.92	3157.3	
827.1	3476.8	
827.27	8604.2	
827.44	6789.7	
827.61	3824.9	
827.79	4615.4	
827.96	4808.6	
828.13	5185.5	
828.3	3973.1	
828.47	3303.4	
828.65	5355.4	
828.82	5255.8	
828.99	5176.6	
829.16	4527.4	
829.34	5696.1	
829.51	5514.5	
829.68	4076.1	
829.85	4296.6	
830.02	6008.7	
830.2	5767.1	
830.37	3117.7	
830.54	5002.5	
830.71	6601.3	
830.88	5051.7	
831.05	3248.1	
831.23	3743	
831.4	6274.3	
831.57	7071	
831.74	3786	
831.91	3387.3	
832.09	5347.2	
832.26	5710.4	
832.43	3893.9	
832.6	4418.8	
832.77	5335.6	
832.94	6128.9	
833.12	3119.1	
833.29	3868.6	
833.46	5556.8	
833.63	7296.2	
833.8	4355.3	
833.97	4017.4	
834.15	5735	
834.32	5525.4	
834.49	4168.3	
834.66	4203.1	
834.83	6011.5	
835	4791.6	
835.17	3758	
835.35	3863.8	
835.52	5618.9	
835.69	5543.9	
835.86	4033.8	
836.03	3275.4	
836.2	5638.7	
836.37	5274.9	
836.55	3973.7	
836.72	3652.2	
836.89	5256.5	
837.06	5730.2	
837.23	3982.6	
837.4	4433.9	
837.57	6572.6	
837.75	7296.2	
837.92	3567.6	
838.09	3873.4	
838.26	5270.8	
838.43	6019	
838.6	4129.4	
838.77	3710.2	
838.94	6951.5	
839.11	6610.8	
839.29	3940.3	
839.46	3069.2	
839.63	5670.8	
839.8	5388.9	
839.97	3808.5	
840.14	3844	
840.31	5486.5	
840.48	5664.7	
840.65	3198.9	
840.82	3713	
841	5715.9	
841.17	5618.9	
841.34	3506.1	
841.51	3573.7	
841.68	5581.4	
841.85	5407.3	
842.02	3676.1	
842.19	3044.6	
842.36	5408.7	
842.53	5433.3	
842.7	3534.1	
842.87	4345.1	
843.05	7176.8	
843.22	5397.1	
843.39	3323.2	
843.56	3615.3	
843.73	5167	
843.9	5795.1	
844.07	5806	
844.24	4844.1	
844.41	8474.5	
844.58	4978.6	
844.75	3396.2	
844.92	3734.8	
845.09	5759.6	
845.26	5666	
845.43	3465.2	
845.6	3679.5	
845.77	5756.2	
845.94	5434.6	
846.12	3878.9	
846.29	4116.4	
846.46	5941.8	
846.63	5737	
846.8	3487	
846.97	4227	
847.14	6214.9	
847.31	5685.2	
847.48	4040	
847.65	4399.7	
847.82	6027.9	
847.99	5952.8	
848.16	4710.3	
848.33	4367.6	
848.5	5215.5	
848.67	6232.7	
848.84	3454.2	
849.01	3644.7	
849.18	5104.2	
849.35	4789.5	
849.52	4408.6	
849.69	3386	
849.86	5859.9	
850.03	6143.2	
850.2	3485.6	
850.37	4358.1	
850.54	6080.4	
850.71	5330.9	
850.88	4224.3	
851.05	3459.7	
851.22	5621.7	
851.39	6334.4	
851.56	3351.8	
851.73	4065.2	
851.9	5027.1	
852.07	5951.4	
852.24	3856.3	
852.41	3457	
852.58	5519.3	
852.75	5086.5	
852.92	3957.4	
853.09	3446.7	
853.26	5253	
853.43	6179.4	
853.6	3497.9	
853.77	3054.2	
853.94	6303	
854.11	5637.4	
854.28	5229.1	
854.44	3805.8	
854.61	6708.5	
854.78	5756.8	
854.95	3497.9	
855.12	4435.9	
855.29	4559.5	
855.46	6349.4	
855.63	3478.8	
855.8	4882.4	
855.97	5223.7	
856.14	6096.1	
856.31	5040.7	
856.48	3805.1	
856.65	5188.2	
856.82	4992.9	
856.99	3405.8	
857.16	3819.5	
857.33	6944	
857.49	5300.1	
857.66	3801.7	
857.83	4093.9	
858	5296.7	
858.17	5515.9	
858.34	3334.8	
858.51	3517	
858.68	6465.4	
858.85	6500.3	
859.02	4124.6	
859.19	4318.5	
859.36	4957.4	
859.52	5054.4	
859.69	3546.4	
859.86	4130.8	
860.03	5046.9	
860.2	6320.7	
860.37	3191.4	
860.54	3549.8	
860.71	5949.3	
860.88	6407.4	
861.05	3974.4	
861.21	4405.2	
861.38	6380.8	
861.55	4881.7	
861.72	3237.8	
861.89	3913.7	
862.06	5991.7	
862.23	6589	
862.4	3444	
862.56	3644	
862.73	5855.8	
862.9	5472.9	
863.07	4157.4	
863.24	3201	
863.41	4872.1	
863.58	5046.9	
863.75	3597.6	
863.91	4052.2	
864.08	6342.6	
864.25	5862.7	
864.42	4464.6	
864.59	4973.8	
864.76	6625.2	
864.93	5005.2	
865.09	3472	
865.26	3765.5	
865.43	6208.1	
865.6	6641.6	
865.77	3026.9	
865.94	3502.7	
866.1	6339.1	
866.27	6009.4	
866.44	5409.4	
866.61	3272.7	
866.78	5412.8	
866.95	5804.6	
867.11	3414.6	
867.28	3149.8	
867.45	6034.7	
867.62	4988.2	
867.79	4077.5	
867.96	3474.7	
868.12	4993.6	
868.29	6012.8	
868.46	3495.9	
868.63	4728.1	
868.8	6224.5	
868.97	5907.7	
869.13	3687	
869.3	3648.1	
869.47	5787.6	
869.64	6046.3	
869.81	3513.6	
869.97	3502	
870.14	5711.1	
870.31	6378.1	
870.48	3371	
870.65	4446.8	
870.81	5322	
870.98	5254.4	
871.15	3999.7	
871.32	3647.4	
871.48	5843.5	
871.65	6466.8	
871.82	3500.7	
871.99	3887	
872.16	6889.4	
872.32	6227.9	
872.49	3527.3	
872.66	3550.5	
872.83	5943.2	
872.99	5213.4	
873.16	4042.7	
873.33	3477.5	
873.5	5558.9	
873.67	5580.7	
873.83	3637.2	
874	4675.5	
874.17	5712.5	
874.34	6795.2	
874.5	4596.3	
874.67	4371.7	
874.84	6443.6	
875.01	4934.2	
875.17	5025.7	
875.34	3510.2	
875.51	5610.8	
875.68	6778.1	
875.84	4255	
876.01	5160.2	
876.18	5904.3	
876.34	5856.5	
876.51	3489.7	
876.68	3420.8	
876.85	5376.6	
877.01	6169.2	
877.18	5079	
877.35	3496.6	
877.52	5504.9	
877.68	4935.6	
877.85	3414	
878.02	3491.1	
878.18	5436	
878.35	5173.9	
878.52	2789.3	
878.69	3972.4	
878.85	5920.7	
879.02	5859.2	
879.19	4967.7	
879.35	3837.9	
879.52	5877.7	
879.69	6131.6	
879.86	3003.7	
880.02	3966.2	
880.19	5423	
880.36	6659.3	
880.52	4060.4	
880.69	4187.4	
880.86	6023.1	
881.02	6060.6	
881.19	3854.3	
881.36	3821.5	
881.52	5903.6	
881.69	5179.3	
881.86	3816.7	
882.02	3693.2	
882.19	6161.7	
882.36	7230	
882.52	3580.5	
882.69	4916.5	
882.86	5687.9	
883.02	5554.1	
883.19	4274.8	
883.36	4073.4	
883.52	5995.1	
883.69	6873	
883.86	3562.1	
884.02	3186.6	
884.19	5968.5	
884.36	5517.9	
884.52	3982.6	
884.69	3731.4	
884.86	5281.7	
885.02	6509.8	
885.19	3938.9	
885.36	4031.1	
885.52	5457.2	
885.69	5637.4	
885.86	5086.5	
886.02	4481.6	
886.19	5954.8	
886.35	5429.8	
886.52	3848.8	
886.69	4974.5	
886.85	5046.2	
887.02	6379.4	
887.19	6379.4	
887.35	6379.4	
887.52	6379.4	
887.68	6379.4	
887.85	6379.4	
888.02	6379.4	
888.18	6379.4	
888.35	6379.4	
888.51	6379.4	
888.68	6379.4	
888.85	6379.4	
889.01	6379.4	
889.18	6379.4	
889.35	6379.4	
889.51	6379.4	
889.68	6379.4	
889.84	6379.4	
890.01	6379.4	
890.17	6379.4	
890.34	6379.4	
890.51	6379.4	
890.67	6379.4	
890.84	6379.4	
891	6379.4	
891.17	6379.4	
891.34	6379.4	
891.5	6379.4	
891.67	6379.4	
891.83	6379.4	
892	6379.4	
892.16	6379.4	
892.33	6379.4	
892.5	6379.4	
892.66	6379.4	
892.83	6379.4	
892.99	6379.4	
893.16	6379.4	
893.32	6379.4	
893.49	6379.4	
893.65	6379.4	
893.82	6379.4	
893.99	6379.4	
894.15	6379.4	
894.32	6379.4	
894.48	6379.4	
894.65	6379.4	
894.81	6379.4	
894.98	6379.4	
895.14	6379.4	
895.31	6379.4	
895.47	6379.4	
895.64	6379.4	
895.81	6379.4	
895.97	6379.4	
896.14	6379.4	
896.3	6379.4	
896.47	6379.4	
896.63	6379.4	
896.8	6379.4	
896.96	6379.4	
897.13	6379.4	
897.29	6379.4	
897.46	6379.4	
897.62	6379.4	
897.79	6379.4	
897.95	6379.4	
898.12	6379.4	
898.28	6379.4	
898.45	6379.4	
898.61	6379.4	
898.78	6379.4	
898.94	6379.4	
899.11	6379.4	
899.27	6379.4	
899.44	6379.4	
899.6	6379.4	
899.77	6379.4	
899.93	6379.4	
900.1	6379.4	
900.26	6379.4	
900.43	6379.4	
900.59	6379.4	
900.76	6379.4	
900.92	6379.4	
901.09	6379.4	
901.25	6379.4	
901.42	6379.4	
901.58	6379.4	
901.75	6379.4	
901.91	6379.4	
902.07	6379.4	
902.24	6379.4	
902.4	6379.4	
902.57	6379.4	
902.73	6379.4	
902.9	6379.4	
903.06	6379.4	
903.23	6379.4	
903.39	6379.4	
903.56	6379.4	
903.72	6379.4	
903.88	6379.4	
904.05	6379.4	
904.21	6379.4	
904.38	6379.4	
904.54	6379.4	
904.71	6379.4	
904.87	6379.4	
905.03	6379.4	
905.2	6379.4	
905.36	6379.4	
905.53	6379.4	
905.69	6379.4	
905.86	6379.4	
906.02	6379.4	
906.18	6379.4	
906.35	6379.4	
906.51	6379.4	
906.68	6379.4	
906.84	6379.4	
907.01	6379.4	
907.17	6379.4	
907.33	6379.4	
907.5	6379.4	
907.66	6379.4	
907.83	6379.4	
907.99	6379.4	
908.15	6379.4	
908.32	6379.4	
908.48	6379.4	
908.65	6379.4	
908.81	6379.4	
908.97	6379.4	
909.14	6379.4	
909.3	6379.4	
909.47	6379.4	
909.63	6379.4	
909.79	6379.4	
909.96	6379.4	
910.12	6379.4	
910.28	6379.4	
910.45	6379.4	
910.61	6379.4	
910.78	6379.4	
910.94	6379.4	
911.1	6379.4	
911.27	6379.4	
911.43	6379.4	
911.59	6379.4	
911.76	6379.4	
911.92	6379.4	
912.08	6379.4	
912.25	6379.4	
912.41	6379.4	
912.57	6379.4	
912.74	6379.4	
912.9	6379.4	
913.07	6379.4	
913.23	6379.4	
913.39	6379.4	
913.56	6379.4	
913.72	6379.4	
913.88	6379.4	
914.05	6379.4	
914.21	6379.4	
914.37	6379.4	
914.54	6379.4	
914.7	6379.4	
914.86	6379.4	
915.03	6379.4	
915.19	6379.4	
