Wavelength	Intensities	
nm	a.u.	
179.22	1866.2	
179.44	1870.1	
179.65	1862.3	
179.86	1878	
180.08	1910.8	
180.29	4726.7	
180.51	3431	
180.72	5545.9	
180.94	6511.2	
181.15	3239.2	
181.37	3141.6	
181.58	5446.9	
181.79	5703.6	
182.01	3318.4	
182.22	3535.5	
182.44	5723.4	
182.65	4799.1	
182.87	4415.4	
183.08	3934.1	
183.29	5935	
183.51	4990.2	
183.72	3561.4	
183.94	5259.2	
184.15	5339.7	
184.37	5322.7	
184.58	3162.7	
184.79	4336.9	
185.01	4974.5	
185.22	5739.1	
185.44	4592.9	
185.65	3842.7	
185.86	5272.2	
186.08	4844.8	
186.29	3110.2	
186.51	3345	
186.72	4992.9	
186.94	5912.5	
187.15	3858.4	
187.36	3963.5	
187.58	7626	
187.79	5414.8	
188.01	4159.4	
188.22	6479.8	
188.43	6486.6	
188.65	5701.5	
188.86	3335.5	
189.08	4001	
189.29	5203.9	
189.5	5158.8	
189.72	3708.9	
189.93	3735.5	
190.15	5934.3	
190.36	7063.4	
190.57	4069.3	
190.79	3908.9	
191	6001.2	
191.22	5932.3	
191.43	4059.8	
191.64	3330.7	
191.86	6141.9	
192.07	5903.6	
192.29	3460.4	
192.5	3657.7	
192.71	5920	
192.93	5079.6	
193.14	3575.8	
193.35	3747.8	
193.57	5134.3	
193.78	5946.6	
194	2906.1	
194.21	3599	
194.42	4939.7	
194.64	5400.5	
194.85	3953.9	
195.07	4687.8	
195.28	5393	
195.49	4681.7	
195.71	4934.9	
195.92	3401	
196.13	5569.1	
196.35	5652.4	
196.56	5180	
196.78	3962.8	
196.99	6897.6	
197.2	6501.6	
197.42	4518.5	
197.63	4025.6	
197.84	4803.9	
198.06	5557.5	
198.27	3723.2	
198.48	4853.7	
198.7	5113.8	
198.91	5260.5	
199.13	3990.1	
199.34	3921.9	
199.55	5777.3	
199.77	4670.7	
199.98	3494.5	
200.19	4085	
200.41	5289.2	
200.62	4947.2	
200.83	4155.3	
201.05	4405.2	
201.26	5246.2	
201.47	4997.7	
201.69	3528.7	
201.9	3413.3	
202.11	5395	
202.33	6322.1	
202.54	3741	
202.76	4227.7	
202.97	5429.2	
203.18	5528.8	
203.4	4173.1	
203.61	4111	
203.82	5416.9	
204.04	5001.1	
204.25	4035.2	
204.46	3996.3	
204.68	5351.3	
204.89	5599.1	
205.1	3889.8	
205.32	3405.1	
205.53	5761.6	
205.74	5929.6	
205.96	2934.7	
206.17	4112.3	
206.38	5741.1	
206.6	5904.3	
206.81	4550.6	
207.02	3727.3	
207.24	5621.7	
207.45	6016.2	
207.66	3815.4	
207.88	3231	
208.09	5543.2	
208.3	5248.3	
208.52	3509.5	
208.73	3773	
208.94	5399.8	
209.15	6075	
209.37	3815.4	
209.58	3951.9	
209.79	5816.9	
210.01	5170.4	
210.22	3080.8	
210.43	3238.5	
210.65	5422.3	
210.86	5771.9	
211.07	3812	
211.29	3512.3	
211.5	5694.7	
211.71	5300.8	
211.93	3493.8	
212.14	3482.2	
212.35	5311.1	
212.56	5540.4	
212.78	3999	
212.99	3331.4	
213.2	6291.4	
213.42	5159.5	
213.63	3614.7	
213.84	3915	
214.06	4835.3	
214.27	4835.9	
214.48	3762.8	
214.69	4037.9	
214.91	6032.6	
215.12	6038.8	
215.33	4142.4	
215.55	4510.3	
215.76	6580.8	
215.97	5771.9	
216.18	3982.6	
216.4	3830.4	
216.61	5044.8	
216.82	5814.9	
217.04	3520.5	
217.25	3657.7	
217.46	6004	
217.67	5772.5	
217.89	3201	
218.1	3257.6	
218.31	5464	
218.53	5563	
218.74	3654.3	
218.95	3562.8	
219.16	5354.1	
219.38	6242.2	
219.59	3554.6	
219.8	4285.7	
220.01	6849.8	
220.23	5384.8	
220.44	4663.2	
220.65	3519.8	
220.87	5450.3	
221.08	6000.5	
221.29	3301.3	
221.5	4353.3	
221.72	7275.8	
221.93	5080.3	
222.14	3992.2	
222.35	4783.4	
222.57	5389.6	
222.78	5671.5	
222.99	3826.3	
223.2	4165.6	
223.42	5660.6	
223.63	5808.7	
223.84	2982.5	
224.05	2900.6	
224.27	6785.6	
224.48	6242.9	
224.69	4706.9	
224.9	4050.9	
225.12	5558.9	
225.33	5332.9	
225.54	3243.3	
225.75	3562.1	
225.97	4917.9	
226.18	5217.5	
226.39	3827	
226.6	3607.2	
226.82	5152.7	
227.03	4979.3	
227.24	4029.7	
227.45	3307.5	
227.67	5723.4	
227.88	6303	
228.09	4493.2	
228.3	4465.9	
228.52	5791.7	
228.73	5345.9	
228.94	3736.2	
229.15	3342.3	
229.36	5264	
229.58	5156.8	
229.79	3808.5	
230	4369.7	
230.21	6381.5	
230.43	5448.3	
230.64	4012.7	
230.85	4141	
231.06	5821	
231.28	5808	
231.49	3325.9	
231.7	3887.7	
231.91	5689.3	
232.12	5412.8	
232.34	3403	
232.55	3893.2	
232.76	5905	
232.97	5592.3	
233.18	3463.1	
233.4	3932.1	
233.61	5585.5	
233.82	5087.2	
234.03	3687	
234.25	3642.7	
234.46	7374.7	
234.67	5429.2	
234.88	4111	
235.09	3599.6	
235.31	5616.2	
235.52	5250.3	
235.73	3960.8	
235.94	3362.1	
236.15	5087.8	
236.37	6485.2	
236.58	3547.1	
236.79	3857	
237	5678.3	
237.21	4849.6	
237.43	4137.6	
237.64	3281.5	
237.85	9737.4	
238.06	4949.9	
238.27	4201.1	
238.48	3381.2	
238.7	5674.9	
238.91	5254.4	
239.12	3861.1	
239.33	3917.1	
239.54	4948.6	
239.76	5309	
239.97	3786.7	
240.18	3831.7	
240.39	6701.6	
240.6	5624.4	
240.82	3988.8	
241.03	3302.7	
241.24	5363.6	
241.45	6220.4	
241.66	3506.8	
241.87	4117.8	
242.09	6099.5	
242.3	6474.3	
242.51	4145.1	
242.72	3807.9	
242.93	5887.9	
243.14	5257.8	
243.36	4396.3	
243.57	4784.1	
243.78	6191.7	
243.99	5638.1	
244.2	3937.6	
244.41	3531.4	
244.63	4915.1	
244.84	5682.4	
245.05	4072	
245.26	3898	
245.47	5661.3	
245.68	5909.8	
245.9	5137	
246.11	4042	
246.32	5235.3	
246.53	5658.5	
246.74	6184.2	
246.95	3233.7	
247.16	4900.1	
247.38	5365	
247.59	3226.9	
247.8	3835.8	
248.01	5042.1	
248.22	5313.1	
248.43	3486.3	
248.64	3765.5	
248.86	4726	
249.07	5154.1	
249.28	3379.1	
249.49	3907.5	
249.7	5874.9	
249.91	6056.5	
250.12	3207.1	
250.34	3246	
250.55	5464	
250.76	5400.5	
250.97	4005.8	
251.18	4074.8	
251.39	6033.3	
251.6	5560.9	
251.81	4052.2	
252.03	4016.7	
252.24	5112.4	
252.45	5848.3	
252.66	3309.5	
252.87	4199	
253.08	5386.2	
253.29	7077.1	
253.5	3353.2	
253.72	4721.9	
253.93	5175.9	
254.14	6333.7	
254.35	3663.8	
254.56	3769.6	
254.77	5569.8	
254.98	4979.3	
255.19	3596.2	
255.41	4665.3	
255.62	5477	
255.83	5994.4	
256.04	4134.8	
256.25	4014.7	
256.46	6519.4	
256.67	5012.1	
256.88	4016.1	
257.09	4360.1	
257.31	5038.7	
257.52	5072.8	
257.73	4970.4	
257.94	3653.6	
258.15	5199.8	
258.36	5371.8	
258.57	4543.1	
258.78	2958.6	
258.99	5890.6	
259.2	5257.1	
259.41	3683.6	
259.63	3824.9	
259.84	6163	
260.05	6608.1	
260.26	4814.1	
260.47	3538.2	
260.68	5857.2	
260.89	5298.1	
261.1	4437.3	
261.31	3519.8	
261.52	6008.7	
261.73	6247.7	
261.95	4725.3	
262.16	4138.3	
262.37	6075	
262.58	6176	
262.79	4679.6	
263	3742.3	
263.21	5382.7	
263.42	4913.8	
263.63	3756	
263.84	3722.5	
264.05	5979.4	
264.26	6268.1	
264.47	4577.9	
264.69	4111.6	
264.9	6034.7	
265.11	5623.7	
265.32	3564.8	
265.53	3650.2	
265.74	5496.1	
265.95	4808.6	
266.16	3917.1	
266.37	4385.4	
266.58	5494.7	
266.79	5199.8	
267	3603.7	
267.21	3387.3	
267.42	4926.7	
267.63	5309	
267.84	3830.4	
268.06	3278.8	
268.27	5794.4	
268.48	6110.5	
268.69	3732.8	
268.9	4419.5	
269.11	6075.6	
269.32	4846.2	
269.53	3866.6	
269.74	3521.1	
269.95	5735.7	
270.16	4709	
270.37	3874.1	
270.58	4406.5	
270.79	5154.7	
271	5885.9	
271.21	4094.6	
271.42	3900.7	
271.63	5443.5	
271.84	5037.3	
272.05	3122.5	
272.26	3489.1	
272.47	5355.4	
272.68	5574.6	
272.89	3657	
273.11	4287.8	
273.32	5170.4	
273.53	6279.8	
273.74	4181.3	
273.95	4050.9	
274.16	5965.1	
274.37	5449	
274.58	4196.3	
274.79	3353.9	
275	5526.8	
275.21	6031.3	
275.42	5052.3	
275.63	4368.3	
275.84	5613.5	
276.05	7060	
276.26	4036.5	
276.47	3765.5	
276.68	5254.4	
276.89	6391.7	
277.1	4379.9	
277.31	3381.9	
277.52	5612.8	
277.73	5792.3	
277.94	3369.6	
278.15	3726.6	
278.36	5571.8	
278.57	5083.1	
278.78	3681.6	
278.99	4138.3	
279.2	5018.2	
279.41	4974.5	
279.62	4827.1	
279.83	3414	
280.04	6523.5	
280.25	4924	
280.46	4812.7	
280.67	3915.7	
280.88	4997.7	
281.09	6033.3	
281.3	4035.2	
281.51	5102.2	
281.72	5886.5	
281.93	5895.4	
282.14	3592.8	
282.35	3845.4	
282.56	5765.7	
282.77	5859.9	
282.98	3681.6	
283.19	4474.1	
283.4	7143.3	
283.61	5348.6	
283.82	3302.7	
284.03	4790.2	
284.24	5539.8	
284.45	6015.6	
284.66	4709	
284.87	4551.3	
285.08	5950.7	
285.29	6066.8	
285.5	3300	
285.71	3742.3	
285.92	5977.3	
286.12	6651.8	
286.33	4734.9	
286.54	3720.5	
286.75	5826.5	
286.96	5274.9	
287.17	3432.4	
287.38	4713.7	
287.59	5012.7	
287.8	4951.3	
288.01	3767.6	
288.22	4360.1	
288.43	5862	
288.64	4902.2	
288.85	4460.5	
289.06	4293.2	
289.27	6021.7	
289.48	6339.1	
289.69	4713.7	
289.9	4288.4	
290.11	5995.8	
290.32	5088.5	
290.53	4489.1	
290.74	4203.8	
290.94	5815.5	
291.15	5895.4	
291.36	3673.4	
291.57	4319.2	
291.78	5140.4	
291.99	4810.7	
292.2	3479.5	
292.41	4205.2	
292.62	5981.4	
292.83	5717.2	
293.04	5173.2	
293.25	3545	
293.46	5165	
293.67	5948.7	
293.88	3603.7	
294.09	3437.2	
294.29	4962.9	
294.5	5542.5	
294.71	3901.4	
294.92	3715	
295.13	5212.8	
295.34	6479.1	
295.55	3265.8	
295.76	3399.6	
295.97	5774.6	
296.18	6557.6	
296.39	3422.2	
296.6	3614	
296.81	5515.2	
297.01	5829.2	
297.22	3746.4	
297.43	3601.7	
297.64	5055.8	
297.85	5002.5	
298.06	2964.8	
298.27	3253.5	
298.48	5455.8	
298.69	5108.3	
298.9	3910.9	
299.11	3579.2	
299.31	4922	
299.52	4977.9	
299.73	4219.5	
299.94	4115.7	
300.15	5425.8	
300.36	4992.3	
300.57	4100.7	
300.78	4139.6	
300.99	5265.3	
301.2	5453.1	
301.4	3562.1	
301.61	3940.3	
301.82	5729.5	
302.03	5844.9	
302.24	4360.1	
302.45	3474.7	
302.66	5680.4	
302.87	6150.1	
303.08	3614	
303.29	4963.6	
303.49	5209.3	
303.7	5414.1	
303.91	3248.1	
304.12	4678.9	
304.33	4887.8	
304.54	5496.1	
304.75	3616.7	
304.96	3489.7	
305.16	5698.8	
305.37	6386.2	
305.58	3134.8	
305.79	3334.8	
306	5700.2	
306.21	4803.9	
306.42	3637.2	
306.63	5517.9	
306.83	5280.3	
307.04	5971.9	
307.25	3949.8	
307.46	3997	
307.67	4662.5	
307.88	5870.2	
308.09	3562.1	
308.29	3714.3	
308.5	5504.3	
308.71	6008.1	
308.92	3829	
309.13	3489.1	
309.34	5341.1	
309.55	5385.5	
309.75	4508.3	
309.96	4133.5	
310.17	5879.7	
310.38	5091.3	
310.59	4296	
310.8	4098	
311.01	5169.8	
311.21	5298.8	
311.42	3435.1	
311.63	3566.9	
311.84	5139.7	
312.05	5503.6	
312.26	4074.1	
312.46	4388.8	
312.67	5270.1	
312.88	4977.2	
313.09	3514.3	
313.3	3429	
313.51	6201.2	
313.71	6529.6	
313.92	3498.6	
314.13	3721.8	
314.34	5584.1	
314.55	5268.1	
314.76	4429.8	
314.96	3865.9	
315.17	5453.1	
315.38	5791	
315.59	3535.5	
315.8	3420.8	
316.01	6193.1	
316.21	6261.3	
316.42	3401.7	
316.63	3868.6	
316.84	5313.8	
317.05	6079.1	
317.26	4163.5	
317.46	3642.7	
317.67	5258.5	
317.88	5782.8	
318.09	4442	
318.3	3289.7	
318.5	5151.3	
318.71	5695.4	
318.92	5649	
319.13	4094.6	
319.34	5899.5	
319.54	6036.7	
319.75	3308.2	
319.96	3115.6	
320.17	5803.3	
320.38	5940.5	
320.58	3199.6	
320.79	3853.6	
321	5986.2	
321.21	6119.3	
321.42	3863.8	
321.62	3207.8	
321.83	4990.9	
322.04	5443.5	
322.25	3710.9	
322.46	3531.4	
322.66	5500.2	
322.87	5623	
323.08	4350.6	
323.29	3403	
323.5	6391	
323.7	4997.7	
323.91	4775.9	
324.12	4263.9	
324.33	5398.4	
324.53	5684.5	
324.74	4132.8	
324.95	4308.2	
325.16	4812	
325.37	5236.7	
325.57	3564.1	
325.78	3532.7	
325.99	5436.7	
326.2	4906.3	
326.4	5031.2	
326.61	3230.3	
326.82	5348.6	
327.03	5511.8	
327.24	4992.3	
327.44	4780	
327.65	5638.1	
327.86	4599.7	
328.07	4182.6	
328.27	3411.9	
328.48	6100.2	
328.69	4982.7	
328.9	5056.4	
329.1	3723.2	
329.31	5259.9	
329.52	6199.2	
329.73	3491.8	
329.93	3923.9	
330.14	5420.3	
330.35	5597.8	
330.56	5742.5	
330.76	4410	
330.97	5244.8	
331.18	5579.3	
331.39	3936.9	
331.59	3162.7	
331.8	5976	
332.01	6118.6	
332.22	3673.4	
332.42	4128.7	
332.63	5450.3	
332.84	5127.4	
333.05	3932.1	
333.25	3604.4	
333.46	5151.3	
333.67	5433.9	
333.88	3699.3	
334.08	4024.9	
334.29	7546.1	
334.5	6012.8	
334.7	3462.4	
334.91	4973.2	
335.12	4949.3	
335.33	5783.5	
335.53	3919.8	
335.74	5707.7	
335.95	5171.1	
336.16	5003.2	
336.36	3941	
336.57	4483.7	
336.78	4937	
336.98	6022.4	
337.19	4801.1	
337.4	3844	
337.61	6523.5	
337.81	4889.9	
338.02	3521.8	
338.23	4610.7	
338.43	6204.7	
338.64	5040.1	
338.85	3501.3	
339.05	4650.3	
339.26	6208.8	
339.47	4846.9	
339.68	3554.6	
339.88	5205.9	
340.09	5645.6	
340.3	5848.3	
340.5	4169	
340.71	3181.9	
340.92	4945.8	
341.13	6126.2	
341.33	3426.3	
341.54	4138.9	
341.75	5647.6	
341.95	5304.2	
342.16	3979.2	
342.37	4306.2	
342.57	4988.2	
342.78	5343.2	
342.99	4363.5	
343.19	3189.4	
343.4	5797.8	
343.61	5671.5	
343.81	3763.5	
344.02	3457	
344.23	5864	
344.43	6209.4	
344.64	4339	
344.85	4291.2	
345.06	5679	
345.26	5984.8	
345.47	4047.5	
345.68	4750.6	
345.88	4824.3	
346.09	5865.4	
346.3	4209.9	
346.5	3229	
346.71	5413.5	
346.92	5133.6	
347.12	3200.3	
347.33	4018.1	
347.54	5972.6	
347.74	6341.2	
347.95	4037.9	
348.16	3025.5	
348.36	5198.4	
348.57	4889.9	
348.78	4032.5	
348.98	4318.5	
349.19	5413.5	
349.39	4847.5	
349.6	3216	
349.81	3607.2	
350.01	5596.4	
350.22	5085.1	
350.43	3943	
350.63	4707.6	
350.84	5502.9	
351.05	5218.2	
351.25	3540.3	
351.46	3301.3	
351.67	5953.4	
351.87	5088.5	
352.08	3829	
352.29	4285.7	
352.49	5922	
352.7	6006	
352.9	3464.5	
353.11	4267.3	
353.32	6567.8	
353.52	5184.8	
353.73	3392.1	
353.94	4394.3	
354.14	5756.2	
354.35	5510.4	
354.55	3590.1	
354.76	3966.2	
354.97	5662.6	
355.17	5517.9	
355.38	3282.2	
355.59	4639.3	
355.79	5107.6	
356	5538.4	
356.2	3900.7	
356.41	3457.7	
356.62	4846.2	
356.82	5387.5	
357.03	4219.5	
357.24	3773.7	
357.44	5191.6	
357.65	5263.3	
357.85	5025.7	
358.06	3945.1	
358.27	4911	
358.47	5115.8	
358.68	3299.3	
358.88	4200.4	
359.09	5689.9	
359.3	6029.9	
359.5	4815.5	
359.71	4310.3	
359.91	6488	
360.12	5808	
360.33	4123.9	
360.53	4611.3	
360.74	5166.3	
360.94	5215.5	
361.15	4411.3	
361.36	3650.2	
361.56	5930.9	
361.77	5364.3	
361.97	4897.4	
362.18	3837.2	
362.38	5915.2	
362.59	4997.7	
362.8	3556.6	
363	3398.9	
363.21	4829.1	
363.41	5547.3	
363.62	4048.8	
363.83	5087.8	
364.03	5557.5	
364.24	6575.3	
364.44	5137.7	
364.65	5162.2	
364.85	5322	
365.06	5266	
365.27	3721.2	
365.47	3762.1	
365.68	6343.9	
365.88	5333.6	
366.09	4182.6	
366.29	3837.2	
366.5	5639.4	
366.71	6006	
366.91	5134.9	
367.12	4289.8	
367.32	6553.5	
367.53	5866.1	
367.73	4332.1	
367.94	5235.3	
368.14	5804.6	
368.35	6742.6	
368.56	4184	
368.76	4035.2	
368.97	5947.3	
369.17	7639.6	
369.38	3749.8	
369.58	4014.7	
369.79	5012.7	
369.99	6314.6	
370.2	5003.2	
370.4	4141.7	
370.61	5653.1	
370.82	6806.8	
371.02	4001	
371.23	3379.1	
371.43	4926.7	
371.64	6213.5	
371.84	4095.3	
372.05	5210.7	
372.25	7492.2	
372.46	5995.8	
372.66	4035.2	
372.87	3994.9	
373.07	5990.3	
373.28	7547.4	
373.48	5057.1	
373.69	4727.4	
373.9	5486.5	
374.1	5524.1	
374.31	4992.3	
374.51	4557.4	
374.72	6376	
374.92	5209.3	
375.13	5162.9	
375.33	4347.8	
375.54	5905	
375.74	5330.9	
375.95	4412	
376.15	5588.2	
376.36	5950	
376.56	5777.3	
376.77	4528.1	
376.97	4945.8	
377.18	6981.5	
377.38	5955.5	
377.59	5299.5	
377.79	4006.5	
378	5778	
378.2	6220.4	
378.41	4087.1	
378.61	3975.1	
378.82	6244.9	
379.02	5438	
379.23	4275.5	
379.43	5329.5	
379.64	6421.7	
379.84	6081.8	
380.05	4081.6	
380.25	3981.3	
380.46	6063.4	
380.66	5687.2	
380.87	5384.8	
381.07	5702.9	
381.28	6688.7	
381.48	6070.2	
381.69	4033.1	
381.89	4105.5	
382.1	5072.8	
382.3	6229.9	
382.51	5156.1	
382.71	6070.2	
382.91	6126.2	
383.12	6611.5	
383.32	4495.3	
383.53	4638.6	
383.73	5861.3	
383.94	5734.3	
384.14	4565.6	
384.35	3768.9	
384.55	5676.3	
384.76	6134.3	
384.96	4458.4	
385.17	4708.3	
385.37	6042.2	
385.58	5402.5	
385.78	4684.4	
385.98	3699.3	
386.19	5531.6	
386.39	5965.1	
386.6	4203.1	
386.8	4459.8	
387.01	6118	
387.21	6032	
387.42	4844.8	
387.62	5425.1	
387.83	5408	
388.03	6092	
388.23	4552.6	
388.44	5239.4	
388.64	5091.3	
388.85	5272.2	
389.05	4827.7	
389.26	5454.4	
389.46	7068.2	
389.67	6449.1	
389.87	4881.7	
390.07	4902.8	
390.28	5808.7	
390.48	5356.8	
390.69	4111	
390.89	4334.9	
391.1	5502.9	
391.3	6432	
391.5	5520.6	
391.71	6214.9	
391.91	6118.6	
392.12	7127.6	
392.32	5631.2	
392.53	4809.3	
392.73	5535.7	
392.93	5800.5	
393.14	4512.4	
393.34	5350	
393.55	6178	
393.75	5737.7	
393.95	4597.7	
394.16	4486.4	
394.36	5590.3	
394.57	6198.5	
394.77	4099.4	
394.98	4466.6	
395.18	5478.3	
395.38	5668.1	
395.59	5335	
395.79	4242.7	
396	5634	
396.2	6110.5	
396.4	5107.6	
396.61	5031.9	
396.81	6343.2	
397.02	5612.8	
397.22	5305.6	
397.42	5415.5	
397.63	6308.4	
397.83	5590.3	
398.04	4261.8	
398.24	4734.9	
398.44	6022.4	
398.65	5176.6	
398.85	4102.8	
399.05	4244.8	
399.26	5555.5	
399.46	7215.7	
399.67	4629.8	
399.87	4362.2	
400.07	5917.9	
400.28	6367.8	
400.48	4445.5	
400.69	5517.9	
400.89	6418.3	
401.09	6885.3	
401.3	4290.5	
401.5	5477.6	
401.7	7045.7	
401.91	7291.5	
402.11	4674.1	
402.32	4860.5	
402.52	6418.3	
402.72	6403.3	
402.93	5007.3	
403.13	4007.2	
403.33	7181.5	
403.54	5974.6	
403.74	4827.7	
403.94	5715.2	
404.15	6027.2	
404.35	7152.2	
404.56	4657.8	
404.76	6343.2	
404.96	6451.8	
405.17	6260.6	
405.37	6063.4	
405.57	5096.7	
405.78	6527.6	
405.98	5935.7	
406.18	4620.9	
406.39	5439.4	
406.59	6485.9	
406.79	6149.4	
407	4490.5	
407.2	4517.8	
407.4	6614.3	
407.61	6744.6	
407.81	4589.5	
408.01	6796.5	
408.22	5552	
408.42	7464.8	
408.62	5707.7	
408.83	5096	
409.03	6085.9	
409.23	5962.3	
409.44	5255.8	
409.64	5523.4	
409.84	7109.9	
410.05	6957.6	
410.25	5439.4	
410.45	5124	
410.66	6488	
410.86	8937.3	
411.06	5607.3	
411.27	5466	
411.47	8720.9	
411.67	6737.1	
411.88	5743.9	
412.08	5979.4	
412.28	7376.8	
412.49	7946.8	
412.69	5457.2	
412.89	5517.2	
413.09	7663.5	
413.3	7473.7	
413.5	5642.2	
413.7	5242.8	
413.91	6901.7	
414.11	7647.8	
414.31	5523.4	
414.52	5899.5	
414.72	7365.9	
414.92	7250.5	
415.12	5456.5	
415.33	6047	
415.53	7628.7	
415.73	7854.6	
415.94	6277	
416.14	5846.3	
416.34	6719.4	
416.55	6439.5	
416.75	6946	
416.95	6322.1	
417.15	7656.7	
417.36	8357.8	
417.56	7186.3	
417.76	6264.7	
417.97	8078.6	
418.17	7702.4	
418.37	5764.3	
418.57	5892	
418.78	7430	
418.98	7185.6	
419.18	6834.8	
419.38	6607.4	
419.59	7247.8	
419.79	6904.4	
419.99	5831.9	
420.2	6229.9	
420.4	7720.8	
420.6	7875.8	
420.8	5666.7	
421.01	5460.6	
421.21	7547.4	
421.41	7709.2	
421.61	6132.3	
421.82	5774.6	
422.02	7021.8	
422.22	7993.2	
422.42	6581.5	
422.63	6186.2	
422.83	7264.1	
423.03	8361.9	
423.23	6267.5	
423.44	5223.7	
423.64	7314	
423.84	6943.3	
424.04	5685.2	
424.25	5410.7	
424.45	8122.2	
424.65	8049.2	
424.85	5208	
425.06	5694	
425.26	8095.6	
425.46	7145.4	
425.66	6189.6	
425.87	5927.5	
426.07	7875.1	
426.27	7780.2	
426.47	6081.1	
426.67	5443.5	
426.88	8180.3	
427.08	7782.3	
427.28	6268.8	
427.48	5339.1	
427.69	6582.9	
427.89	7242.3	
428.09	6133.7	
428.29	5371.1	
428.5	7922.9	
428.7	7509.2	
428.9	5302.9	
429.1	5937.1	
429.3	7333.8	
429.51	7837.6	
429.71	5649.7	
429.91	6434	
430.11	7631.4	
430.31	7930.4	
430.52	5888.6	
430.72	6146.6	
430.92	8238.3	
431.12	7723.6	
431.32	5607.3	
431.53	6032	
431.73	6610.2	
431.93	8370	
432.13	5564.3	
432.33	5442.1	
432.54	7096.9	
432.74	7503.1	
432.94	5422.3	
433.14	6384.2	
433.34	7578.2	
433.55	7222.5	
433.75	6322.1	
433.95	8129.1	
434.15	7499.7	
434.35	7187	
434.56	5552	
434.76	5041.4	
434.96	7486	
435.16	7769.3	
435.36	5425.1	
435.56	6582.9	
435.77	7131	
435.97	7363.1	
436.17	7405.5	
436.37	6542.6	
436.57	7099.6	
436.78	7105.8	
436.98	7876.5	
437.18	7116.7	
437.38	7818.5	
437.58	7342.7	
437.78	7321.5	
437.99	5842.9	
438.19	7808.2	
438.39	9332.6	
438.59	5978	
438.79	5413.5	
438.99	8605.6	
439.2	7393.8	
439.4	5590.3	
439.6	5552.7	
439.8	7662.8	
440	8693.6	
440.2	6531.7	
440.4	6617.7	
440.61	7991.9	
440.81	8529.1	
441.01	5709.1	
441.21	6593.8	
441.41	8465.6	
441.61	8162.5	
441.81	6891.4	
442.02	8031.5	
442.22	8983.8	
442.42	8213.7	
442.62	5927.5	
442.82	5960.3	
443.02	8529.8	
443.22	7662.1	
443.43	6350.1	
443.63	5905	
443.83	7437.5	
444.03	7491.5	
444.23	7140.6	
444.43	6672.3	
444.63	7857.4	
444.83	8994.7	
445.04	5965.7	
445.24	7325.6	
445.44	8084	
445.64	8234.2	
445.84	6765.1	
446.04	6691.4	
446.24	7497.6	
446.44	8623.3	
446.65	5966.4	
446.85	6450.4	
447.05	7572.7	
447.25	8464.9	
447.45	6524.1	
447.65	5880.4	
447.85	7868.3	
448.05	7608.2	
448.25	6931	
448.46	6666.1	
448.66	7902.4	
448.86	7588.4	
449.06	5707	
449.26	6884.6	
449.46	8318.2	
449.66	7256.6	
449.86	6404	
450.06	6430.6	
450.26	7507.2	
450.47	8058.1	
450.67	6644.3	
450.87	6994.5	
451.07	8202.1	
451.27	7984.3	
451.47	5991.7	
451.67	6614.3	
451.87	7608.2	
452.07	8701.1	
452.27	6238.1	
452.47	6186.9	
452.67	7991.2	
452.88	8587.8	
453.08	5589.6	
453.28	7664.9	
453.48	9225.4	
453.68	7916.8	
453.88	6241.5	
454.08	6449.7	
454.28	8427.4	
454.48	8006.9	
454.68	6969.2	
454.88	7470.3	
455.08	8411.7	
455.28	8208.9	
455.48	5941.2	
455.68	6756.2	
455.89	8952.4	
456.09	8591.9	
456.29	6462.7	
456.49	6546.7	
456.69	8923.7	
456.89	8324.3	
457.09	7039.6	
457.29	7406.8	
457.49	8513.4	
457.69	8624.7	
457.89	6890.7	
458.09	6325.5	
458.29	8221.9	
458.49	8928.5	
458.69	7273	
458.89	6886	
459.09	9217.2	
459.29	9368.1	
459.49	6832.7	
459.69	7688.1	
459.9	8771.5	
460.1	8359.1	
460.3	6737.1	
460.5	6613.6	
460.7	8810.4	
460.9	8516.8	
461.1	6294.8	
461.3	7589.8	
461.5	9424.1	
461.7	9112.1	
461.9	6757.6	
462.1	7168.6	
462.3	8622.6	
462.5	9205.6	
462.7	6832	
462.9	6994.5	
463.1	10236	
463.3	9902.6	
463.5	7097.6	
463.7	8077.2	
463.9	8871.1	
464.1	9215.2	
464.3	7369.3	
464.5	7519.5	
464.7	9478.7	
464.9	9278	
465.1	8842.4	
465.3	7921.5	
465.5	9944.3	
465.7	9820	
465.9	8187.8	
466.1	8017.8	
466.3	9781.1	
466.5	9570.8	
466.7	9046.6	
466.9	7800	
467.1	9529.9	
467.3	10484	
467.5	8896.4	
467.7	7746.8	
467.9	10647	
468.1	11599	
468.3	8591.9	
468.5	9000.1	
468.7	9498.5	
468.9	9473.2	
469.1	8184.4	
469.3	8766	
469.5	11486	
469.7	9149	
469.9	8398.7	
470.1	7855.3	
470.3	9464.3	
470.5	9541.5	
470.7	9116.2	
470.9	7931.1	
471.1	9370.1	
471.3	9725.8	
471.5	7700.4	
471.69	9770.9	
471.89	9239.1	
472.09	8772.8	
472.29	8575.5	
472.49	8986.5	
472.69	8909.3	
472.89	9782.5	
473.09	7700.4	
473.29	7814.4	
473.49	9075.9	
473.69	9259.5	
473.89	8779	
474.09	7941.3	
474.29	10453	
474.49	10082	
474.69	8667	
474.89	8098.4	
475.09	9239.1	
475.29	9293	
475.49	7469.6	
475.69	7706.5	
475.88	10937	
476.08	9611.8	
476.28	7502.4	
476.48	7901.7	
476.68	10037	
476.88	9879.4	
477.08	7752.2	
477.28	8131.1	
477.48	9400.2	
477.68	10077	
477.88	7533.1	
478.08	7806.9	
478.28	10327	
478.48	9426.8	
478.67	7930.4	
478.87	7367.2	
479.07	10279	
479.27	9613.8	
479.47	8226.7	
479.67	8132.5	
479.87	10021	
480.07	10520	
480.27	7460.1	
480.47	9086.8	
480.67	9645.9	
480.87	10342	
481.06	7739.3	
481.26	8670.4	
481.46	9530.6	
481.66	9607	
481.86	8219.9	
482.06	9237	
482.26	9357.9	
482.46	10202	
482.66	8113.4	
482.86	7710.6	
483.05	9710.1	
483.25	9206.3	
483.45	10598	
483.65	8215.1	
483.85	9341.5	
484.05	9714.9	
484.25	8566.7	
484.45	9130.5	
484.65	10576	
484.84	10508	
485.04	8160.5	
485.24	8226	
485.44	10765	
485.64	9157.2	
485.84	7466.2	
486.04	8864.3	
486.24	9603.6	
486.44	9904	
486.63	7473	
486.83	8376.9	
487.03	9310.7	
487.23	9790.7	
487.43	7608.2	
487.63	10021	
487.83	9760.6	
488.02	10741	
488.22	8682.7	
488.42	9275.9	
488.62	10596	
488.82	9574.9	
489.02	8312	
489.22	8395.3	
489.41	10551	
489.61	10228	
489.81	8040.3	
490.01	8068.3	
490.21	10535	
490.41	11051	
490.61	8064.9	
490.8	8002.8	
491	9957.2	
491.2	9276.6	
491.4	8802.9	
491.6	8017.1	
491.8	10004	
491.99	10138	
492.19	7897	
492.39	8293.6	
492.59	10590	
492.79	10647	
492.99	9154.4	
493.18	8161.8	
493.38	10841	
493.58	11566	
493.78	9022.7	
493.98	8570.1	
494.18	10557	
494.37	10051	
494.57	9237	
494.77	9152.4	
494.97	10836	
495.17	11111	
495.37	8671.1	
495.56	9209	
495.76	11327	
495.96	10965	
496.16	9908.8	
496.36	8972.8	
496.55	11259	
496.75	10662	
496.95	9325.8	
497.15	9206.3	
497.35	11239	
497.54	11166	
497.74	9059.5	
497.94	10922	
498.14	11808	
498.34	11661	
498.53	8913.4	
498.73	9611.1	
498.93	10596	
499.13	11168	
499.33	9531.9	
499.52	9995.5	
499.72	11348	
499.92	11500	
500.12	9175.6	
500.32	9477.3	
500.51	11447	
500.71	11345	
500.91	10203	
501.11	9856.2	
501.31	11375	
501.5	11783	
501.7	10535	
501.9	9465.7	
502.1	11189	
502.29	11544	
502.49	9901.2	
502.69	10254	
502.89	11425	
503.09	11437	
503.28	8852	
503.48	9043.1	
503.68	10502	
503.88	10690	
504.07	10007	
504.27	9466.4	
504.47	10957	
504.67	11097	
504.86	9821.4	
505.06	9658.2	
505.26	10592	
505.46	12402	
505.65	9486.9	
505.85	9651.4	
506.05	10505	
506.25	11009	
506.44	8697	
506.64	9748.3	
506.84	10440	
507.04	11217	
507.23	8912.1	
507.43	9476.6	
507.63	12300	
507.83	10605	
508.02	9428.2	
508.22	9024.7	
508.42	12582	
508.62	10380	
508.81	9355.8	
509.01	9891	
509.21	10220	
509.4	10644	
509.6	9475.3	
509.8	8903.9	
510	10563	
510.19	12000	
510.39	8926.4	
510.59	9038.4	
510.79	10343	
510.98	11710	
511.18	9011.7	
511.38	9216.5	
511.57	11185	
511.77	11090	
511.97	9726.5	
512.17	8823.3	
512.36	11257	
512.56	11179	
512.76	8959.9	
512.95	8662.9	
513.15	11346	
513.35	9942.2	
513.55	9872.6	
513.74	9051.3	
513.94	11366	
514.14	10711	
514.33	9964.1	
514.53	9666.4	
514.73	10656	
514.92	10967	
515.12	9196.1	
515.32	9108	
515.51	11043	
515.71	11649	
515.91	10811	
516.11	9166.7	
516.3	12715	
516.5	10610	
516.7	9766.8	
516.89	10282	
517.09	10813	
517.29	10722	
517.48	9977.7	
517.68	9451.4	
517.88	10589	
518.07	11209	
518.27	10092	
518.47	9060.2	
518.66	11805	
518.86	10358	
519.06	8842.4	
519.25	9275.9	
519.45	10698	
519.65	12285	
519.84	9812.5	
520.04	10651	
520.24	12536	
520.43	11307	
520.63	9534.7	
520.83	9383.8	
521.02	10602	
521.22	11317	
521.42	9893.7	
521.61	10608	
521.81	10855	
522.01	11009	
522.2	9848	
522.4	9645.3	
522.6	11530	
522.79	10508	
522.99	9816.6	
523.18	9101.9	
523.38	11396	
523.58	11421	
523.77	11094	
523.97	9263	
524.17	13417	
524.36	12450	
524.56	10622	
524.76	10371	
524.95	11593	
525.15	11241	
525.34	10078	
525.54	10252	
525.74	11953	
525.93	10951	
526.13	11318	
526.33	10096	
526.52	12382	
526.72	11847	
526.91	11411	
527.11	10675	
527.31	12495	
527.5	12873	
527.7	10648	
527.89	9695.1	
528.09	11338	
528.29	12067	
528.48	11103	
528.68	10724	
528.87	12465	
529.07	12346	
529.27	10603	
529.46	10041	
529.66	11948	
529.85	12407	
530.05	9880.1	
530.25	10728	
530.44	13371	
530.64	11920	
530.83	10406	
531.03	10774	
531.23	12425	
531.42	12458	
531.62	11553	
531.81	10768	
532.01	12688	
532.21	13211	
532.4	10530	
532.6	10862	
532.79	13637	
532.99	12861	
533.18	11062	
533.38	11987	
533.58	12441	
533.77	13179	
533.97	10993	
534.16	11828	
534.36	13479	
534.55	12482	
534.75	11952	
534.95	11098	
535.14	13296	
535.34	12402	
535.53	10659	
535.73	12701	
535.92	13911	
536.12	12600	
536.31	10842	
536.51	12237	
536.71	12983	
536.9	12469	
537.1	10891	
537.29	11176	
537.49	13316	
537.68	12450	
537.88	11568	
538.07	10823	
538.27	12792	
538.46	13603	
538.66	10763	
538.86	11189	
539.05	12684	
539.25	13157	
539.44	11445	
539.64	11003	
539.83	12559	
540.03	13596	
540.22	10877	
540.42	10948	
540.61	12800	
540.81	12906	
541	11325	
541.2	12007	
541.39	12214	
541.59	12628	
541.78	11660	
541.98	10716	
542.18	11912	
542.37	11946	
542.57	10937	
542.76	11628	
542.96	11898	
543.15	12600	
543.35	11012	
543.54	10425	
543.74	12882	
543.93	12497	
544.13	10974	
544.32	12140	
544.52	12755	
544.71	11903	
544.91	10123	
545.1	11229	
545.3	11936	
545.49	12758	
545.69	10043	
545.88	10725	
546.08	13594	
546.27	13061	
546.47	11070	
546.66	10494	
546.86	12843	
547.05	13555	
547.24	10630	
547.44	10607	
547.63	11740	
547.83	12900	
548.02	10806	
548.22	11054	
548.41	11585	
548.61	12807	
548.8	10454	
549	10445	
549.19	12254	
549.39	12440	
549.58	9981.1	
549.78	10607	
549.97	12596	
550.17	12054	
550.36	11525	
550.55	12573	
550.75	12024	
550.94	13100	
551.14	10343	
551.33	10589	
551.53	11508	
551.72	12468	
551.92	10765	
552.11	10500	
552.31	12482	
552.5	12589	
552.69	12120	
552.89	10170	
553.08	12505	
553.28	12152	
553.47	10499	
553.67	11693	
553.86	13143	
554.06	11445	
554.25	9713.5	
554.44	10249	
554.64	13700	
554.83	13377	
555.03	10282	
555.22	10649	
555.42	12652	
555.61	12422	
555.8	10364	
556	10777	
556.19	11518	
556.39	12689	
556.58	10454	
556.78	10458	
556.97	12220	
557.16	12136	
557.36	11807	
557.55	10217	
557.75	11149	
557.94	13008	
558.13	10234	
558.33	10036	
558.52	12775	
558.72	11659	
558.91	10137	
559.1	10394	
559.3	11424	
559.49	11024	
559.69	9706	
559.88	10721	
560.07	12150	
560.27	12572	
560.46	10892	
560.66	11002	
560.85	11915	
561.04	11002	
561.24	10094	
561.43	10241	
561.63	11383	
561.82	11682	
562.01	11458	
562.21	10514	
562.4	12086	
562.59	13332	
562.79	10435	
562.98	10133	
563.18	12127	
563.37	13473	
563.56	11032	
563.76	10113	
563.95	11637	
564.14	11588	
564.34	10428	
564.53	10235	
564.73	12093	
564.92	12575	
565.11	10633	
565.31	10091	
565.5	12755	
565.69	11685	
565.89	10375	
566.08	10596	
566.27	12596	
566.47	12975	
566.66	11209	
566.85	9929.9	
567.05	12235	
567.24	11667	
567.44	10264	
567.63	11549	
567.82	12534	
568.02	12351	
568.21	10256	
568.4	10695	
568.6	12078	
568.79	12047	
568.98	10090	
569.18	10243	
569.37	12002	
569.56	13998	
569.76	10639	
569.95	11592	
570.14	12450	
570.34	12303	
570.53	10019	
570.72	10129	
570.91	12920	
571.11	11945	
571.3	10523	
571.49	11361	
571.69	12007	
571.88	11662	
572.07	11026	
572.27	11070	
572.46	11536	
572.65	12657	
572.85	10431	
573.04	10821	
573.23	12967	
573.43	12127	
573.62	10235	
573.81	10960	
574	12319	
574.2	12174	
574.39	10615	
574.58	10845	
574.78	13269	
574.97	12446	
575.16	11124	
575.36	11366	
575.55	12874	
575.74	12969	
575.93	10236	
576.13	11499	
576.32	12301	
576.51	12812	
576.71	10699	
576.9	12221	
577.09	13159	
577.28	12725	
577.48	11419	
577.67	10273	
577.86	12461	
578.05	12732	
578.25	11006	
578.44	11073	
578.63	12434	
578.83	13757	
579.02	10329	
579.21	12071	
579.4	12818	
579.6	12426	
579.79	11208	
579.98	13469	
580.17	13097	
580.37	13353	
580.56	10641	
580.75	11450	
580.94	13760	
581.14	13672	
581.33	11998	
581.52	10870	
581.71	13167	
581.91	13614	
582.1	10704	
582.29	11226	
582.48	12823	
582.68	12735	
582.87	11734	
583.06	11395	
583.25	13057	
583.45	13039	
583.64	12070	
583.83	12826	
584.02	12631	
584.21	13198	
584.41	12028	
584.6	11363	
584.79	12909	
584.98	13648	
585.18	10836	
585.37	10894	
585.56	12389	
585.75	13285	
585.94	11095	
586.14	11617	
586.33	13745	
586.52	12732	
586.71	11481	
586.91	11097	
587.1	12064	
587.29	13102	
587.48	10894	
587.67	10953	
587.87	12738	
588.06	12899	
588.25	12195	
588.44	11263	
588.63	12222	
588.83	12807	
589.02	10550	
589.21	10356	
589.4	11767	
589.59	11526	
589.78	9364.7	
589.98	9601.6	
590.17	10995	
590.36	11643	
590.55	8898.4	
590.74	9568.8	
590.94	12831	
591.13	11394	
591.32	9500.5	
591.51	9093	
591.7	11735	
591.89	11467	
592.09	9228.1	
592.28	9656.2	
592.47	10645	
592.66	12562	
592.85	9192.6	
593.05	9534.7	
593.24	11275	
593.43	12228	
593.62	9587.2	
593.81	10178	
594	11430	
594.19	11645	
594.39	9482.8	
594.58	9484.8	
594.77	11650	
594.96	12294	
595.15	9361.3	
595.34	10085	
595.54	11628	
595.73	10877	
595.92	8833.6	
596.11	9899.2	
596.3	12231	
596.49	10933	
596.68	9784.5	
596.88	10241	
597.07	12031	
597.26	10797	
597.45	9252.7	
597.64	10580	
597.83	11084	
598.02	11783	
598.22	9441.8	
598.41	10226	
598.6	11623	
598.79	11014	
598.98	9562	
599.17	10472	
599.36	11628	
599.55	12723	
599.74	11671	
599.94	11458	
600.13	12222	
600.32	11004	
600.51	9368.1	
600.7	9549	
600.89	12821	
601.08	12992	
601.27	9340.1	
601.47	10451	
601.66	12252	
601.85	12843	
602.04	10075	
602.23	10318	
602.42	11353	
602.61	11973	
602.8	10034	
602.99	9783.8	
603.18	11778	
603.37	12057	
603.57	10430	
603.76	10995	
603.95	12770	
604.14	12213	
604.33	9938.1	
604.52	10380	
604.71	11971	
604.9	11561	
605.09	10847	
605.28	10699	
605.47	12589	
605.66	12261	
605.86	10490	
606.05	9970.9	
606.24	12589	
606.43	11013	
606.62	10310	
606.81	11126	
607	12366	
607.19	11755	
607.38	9593.4	
607.57	9927.2	
607.76	11506	
607.95	11024	
608.14	10460	
608.33	10976	
608.52	11432	
608.72	12406	
608.91	9630.9	
609.1	9562.6	
609.29	11627	
609.48	11060	
609.67	10488	
609.86	9532.6	
610.05	11228	
610.24	11446	
610.43	9546.3	
610.62	9076.6	
610.81	12575	
611	12450	
611.19	9638.4	
611.38	10289	
611.57	11810	
611.76	13191	
611.95	9422	
612.14	9242.5	
612.33	11644	
612.52	11202	
612.71	9951.1	
612.9	9189.9	
613.09	10820	
613.28	13237	
613.47	9627.5	
613.66	10589	
613.85	11869	
614.04	11417	
614.24	9706	
614.43	9026.8	
614.62	12031	
614.81	11855	
615	10352	
615.19	10321	
615.38	11207	
615.57	11538	
615.76	10204	
615.95	11157	
616.14	12022	
616.33	11533	
616.52	10619	
616.71	10796	
616.9	12009	
617.09	11867	
617.28	10015	
617.47	11277	
617.66	11173	
617.85	11205	
618.04	11014	
618.22	10404	
618.41	11599	
618.6	12485	
618.79	10423	
618.98	10103	
619.17	12913	
619.36	11168	
619.55	10331	
619.74	10188	
619.93	12200	
620.12	11611	
620.31	10986	
620.5	11153	
620.69	12875	
620.88	13224	
621.07	11765	
621.26	10912	
621.45	12373	
621.64	12438	
621.83	10951	
622.02	10193	
622.21	12426	
622.4	12218	
622.59	11531	
622.78	11288	
622.97	11880	
623.16	12921	
623.35	10922	
623.54	10090	
623.72	12100	
623.91	12284	
624.1	11284	
624.29	9886.2	
624.48	13261	
624.67	12518	
624.86	11132	
625.05	10202	
625.24	13420	
625.43	11895	
625.62	12792	
625.81	10411	
626	12895	
626.19	12126	
626.38	11282	
626.56	10621	
626.75	11903	
626.94	12669	
627.13	11101	
627.32	9819.3	
627.51	12528	
627.7	13656	
627.89	9994.1	
628.08	11079	
628.27	11627	
628.46	11895	
628.65	10143	
628.83	9943.6	
629.02	12450	
629.21	11741	
629.4	10589	
629.59	10873	
629.78	11607	
629.97	12661	
630.16	11019	
630.35	10493	
630.54	13173	
630.72	12772	
630.91	10393	
631.1	10886	
631.29	12342	
631.48	12420	
631.67	11021	
631.86	10551	
632.05	11987	
632.24	12098	
632.42	10180	
632.61	10818	
632.8	12100	
632.99	11721	
633.18	10888	
633.37	11253	
633.56	12340	
633.75	12249	
633.93	10821	
634.12	10556	
634.31	13162	
634.5	12916	
634.69	10615	
634.88	11054	
635.07	12093	
635.25	12737	
635.44	11498	
635.63	11671	
635.82	12024	
636.01	11619	
636.2	11419	
636.39	10990	
636.57	13118	
636.76	12818	
636.95	10452	
637.14	11767	
637.33	12414	
637.52	13364	
637.7	10266	
637.89	11174	
638.08	12034	
638.27	13356	
638.46	11256	
638.65	11582	
638.83	13395	
639.02	11751	
639.21	10968	
639.4	11617	
639.59	12314	
639.78	11795	
639.96	10218	
640.15	10345	
640.34	12187	
640.53	12163	
640.72	10090	
640.91	10316	
641.09	11565	
641.28	12924	
641.47	10257	
641.66	11123	
641.85	12185	
642.03	12387	
642.22	10849	
642.41	10361	
642.6	11639	
642.79	11019	
642.97	10114	
643.16	10842	
643.35	11580	
643.54	11266	
643.73	9983.2	
643.91	10654	
644.1	10971	
644.29	11742	
644.48	9802.3	
644.67	9913.5	
644.85	11032	
645.04	11362	
645.23	9230.9	
645.42	9495.7	
645.6	10713	
645.79	11821	
645.98	9377	
646.17	8458.1	
646.36	10274	
646.54	10869	
646.73	9970.9	
646.92	8852	
647.11	10327	
647.29	11478	
647.48	8873.8	
647.67	8555	
647.86	11699	
648.05	11786	
648.23	9307.3	
648.42	10590	
648.61	11157	
648.8	10975	
648.98	8986.5	
649.17	9263	
649.36	10496	
649.55	10090	
649.73	8966	
649.92	9727.9	
650.11	10406	
650.3	10757	
650.48	9136	
650.67	8882	
650.86	11094	
651.05	9981.1	
651.23	9121.7	
651.42	9133.3	
651.61	10454	
651.79	10494	
651.98	9301.9	
652.17	8929.1	
652.36	10850	
652.54	9971.6	
652.73	8977.6	
652.92	8698.4	
653.11	10903	
653.29	10913	
653.48	8174.8	
653.67	9121.7	
653.85	10479	
654.04	11534	
654.23	9113.5	
654.42	8525.7	
654.6	9980.4	
654.79	10628	
654.98	8080.6	
655.16	8618.5	
655.35	9542.2	
655.54	9426.1	
655.73	8191.2	
655.91	8196	
656.1	10654	
656.29	9603.6	
656.47	7887.4	
656.66	9559.9	
656.85	9995.5	
657.03	9895.1	
657.22	8411	
657.41	8551.6	
657.59	10148	
657.78	9919.7	
657.97	8232.2	
658.16	9002.2	
658.34	10759	
658.53	11297	
658.72	9921.7	
658.9	10409	
659.09	10333	
659.28	10486	
659.46	8839	
659.65	8791.9	
659.84	10016	
660.02	10621	
660.21	8620.6	
660.4	8596.7	
660.58	11068	
660.77	10486	
660.96	9293	
661.14	8292.2	
661.33	11596	
661.52	11444	
661.7	8168	
661.89	11849	
662.08	10050	
662.26	9564.7	
662.45	8411.7	
662.64	8609	
662.82	10776	
663.01	10018	
663.2	8602.2	
663.38	9390.6	
663.57	10600	
663.75	10548	
663.94	8968.7	
664.13	10132	
664.31	10020	
664.5	10733	
664.69	9340.1	
664.87	9805.7	
665.06	9850.7	
665.25	10471	
665.43	9960.6	
665.62	10047	
665.8	10864	
665.99	10202	
666.18	8946.2	
666.36	9080	
666.55	10788	
666.74	10684	
666.92	8572.1	
667.11	10159	
667.29	10184	
667.48	10720	
667.67	9756.5	
667.85	8979.7	
668.04	10122	
668.22	10217	
668.41	8994.7	
668.6	9125.7	
668.78	9981.1	
668.97	10163	
669.15	9323	
669.34	8254.7	
669.53	10013	
669.71	10222	
669.9	8438.3	
670.08	9207.7	
670.27	10034	
670.46	10514	
670.64	9355.8	
670.83	9547.6	
671.01	9765.4	
671.2	10402	
671.38	8584.4	
671.57	8453.3	
671.76	11116	
671.94	11658	
672.13	8432.2	
672.31	9452.1	
672.5	10706	
672.69	9920.4	
672.87	8621.3	
673.06	8857.5	
673.24	10587	
673.43	10050	
673.61	9312.1	
673.8	8908	
673.98	10687	
674.17	10774	
674.36	9501.9	
674.54	9247.3	
674.73	10331	
674.91	10674	
675.1	9043.8	
675.28	8677.2	
675.47	10217	
675.65	10705	
675.84	8836.3	
676.03	9195.4	
676.21	10055	
676.4	9618.6	
676.58	9663	
676.77	9572.2	
676.95	11469	
677.14	9955.2	
677.32	8579.6	
677.51	8340	
677.69	10744	
677.88	9657.5	
678.06	8407.6	
678.25	8527.7	
678.44	10301	
678.62	9968.1	
678.81	8179.6	
678.99	9225.4	
679.18	10957	
679.36	10635	
679.55	8802.9	
679.73	9501.2	
679.92	10541	
680.1	9961.3	
680.29	10229	
680.47	8764.6	
680.66	9892.4	
680.84	10875	
681.03	8167.3	
681.21	9105.3	
681.4	9990	
681.58	9809.1	
681.77	8551.6	
681.95	8591.2	
682.14	10725	
682.32	11151	
682.51	9555.8	
682.69	8255.4	
682.88	9846	
683.06	10482	
683.25	9147.6	
683.43	9619.3	
683.62	10060	
683.8	10326	
683.99	9568.1	
684.17	8689.5	
684.36	11018	
684.54	9571.5	
684.73	7671.7	
684.91	7898.3	
685.1	9741.5	
685.28	9182.4	
685.46	8330.5	
685.65	8445.1	
685.83	9932	
686.02	9239.8	
686.2	7740	
686.39	7959.8	
686.57	8847.2	
686.76	10723	
686.94	7821.9	
687.13	8036.9	
687.31	9826.8	
687.5	9359.2	
687.68	7529.7	
687.86	8863.6	
688.05	11187	
688.23	8965.3	
688.42	8863.6	
688.6	8107.9	
688.79	9364	
688.97	9409.1	
689.16	8530.5	
689.34	7413	
689.52	10204	
689.71	10392	
689.89	8692.3	
690.08	8006.2	
690.26	9622	
690.45	9525.1	
690.63	8786.5	
690.81	8132.5	
691	9161.2	
691.18	9238.4	
691.37	8127.7	
691.55	10366	
691.74	9107.3	
691.92	11116	
692.1	8141.4	
692.29	7634.1	
692.47	9430.2	
692.66	8701.8	
692.84	7875.8	
693.02	8469.7	
693.21	8960.5	
693.39	9445.2	
693.58	8679.3	
693.76	8142.7	
693.94	10766	
694.13	10609	
694.31	8165.3	
694.5	9266.4	
694.68	9583.8	
694.86	9878.7	
695.05	8682	
695.23	8701.8	
695.42	10269	
695.6	12587	
695.78	9278	
695.97	8354.3	
696.15	10197	
696.34	9581.8	
696.52	8026.7	
696.7	8794.7	
696.89	9764	
697.07	9298.5	
697.25	8577.6	
697.44	10214	
697.62	9781.1	
697.81	9994.1	
697.99	8334.6	
698.17	8781.7	
698.36	9087.5	
698.54	9685.5	
698.72	8637	
698.91	7573.4	
699.09	9315.5	
699.28	9203.6	
699.46	8291.5	
699.64	8207.6	
699.83	9206.3	
700.01	10383	
700.19	8938.7	
700.38	7492.2	
700.56	10419	
700.74	9322.4	
700.93	7894.9	
701.11	8817.2	
701.29	9927.2	
701.48	11051	
701.66	8205.5	
701.84	8314.1	
702.03	9462.3	
702.21	10314	
702.39	7763.8	
702.58	8520.9	
702.76	9929.2	
702.94	10150	
703.13	7774.8	
703.31	10249	
703.49	9351	
703.68	10290	
703.86	8036.2	
704.04	9070.5	
704.23	9818	
704.41	10264	
704.59	8232.8	
704.78	9340.8	
704.96	10864	
705.14	10322	
705.33	7944.8	
705.51	8811.7	
705.69	9631.6	
705.87	10532	
706.06	9150.3	
706.24	7943.4	
706.42	9998.9	
706.61	10333	
706.79	9118.2	
706.97	7976.2	
707.16	9481.4	
707.34	10058	
707.52	9041.1	
707.7	8359.8	
707.89	9566.1	
708.07	9258.2	
708.25	9126.4	
708.44	9303.9	
708.62	9555.1	
708.8	10636	
708.98	9375.6	
709.17	8281.3	
709.35	9943.6	
709.53	9971.6	
709.72	8064.9	
709.9	8117.5	
710.08	10200	
710.26	10210	
710.45	9554.5	
710.63	8272.4	
710.81	9854.1	
710.99	9792.7	
711.18	8831.5	
711.36	8271.1	
711.54	9528.5	
711.72	10161	
711.91	8381	
712.09	7754.3	
712.27	9527.8	
712.45	10129	
712.64	8372.1	
712.82	7335.8	
713	8803.5	
713.18	8877.9	
713.37	7258	
713.55	8349.6	
713.73	9550.4	
713.91	7933.8	
714.1	7262.1	
714.28	6537.8	
714.46	8806.3	
714.64	7869.7	
714.83	5860.6	
715.01	6649.8	
715.19	7772.7	
715.37	7162.4	
715.55	6204	
715.74	6497.5	
715.92	8657.4	
716.1	6678.4	
716.28	7591.8	
716.47	6606.7	
716.65	7314.7	
716.83	7395.9	
717.01	6434	
717.19	6593.8	
717.38	9605	
717.56	7180.2	
717.74	6802	
717.92	6042.9	
718.1	8569.4	
718.29	7824.6	
718.47	5787.6	
718.65	6580.1	
718.83	8604.2	
719.01	8613.8	
719.2	5833.3	
719.38	6994.5	
719.56	8312	
719.74	9890.3	
719.92	6552.1	
720.11	7449.1	
720.29	8229.4	
720.47	7344	
720.65	5857.2	
720.83	6707.8	
721.02	7559.1	
721.2	7344	
721.38	6635.4	
721.56	5828.5	
721.74	6708.5	
721.92	6979.5	
722.11	7033.4	
722.29	6854.6	
722.47	8138.6	
722.65	7394.5	
722.83	5886.5	
723.01	6769.2	
723.2	7451.9	
723.38	7698.3	
723.56	5333.6	
723.74	6533.7	
723.92	6945.3	
724.1	8229.4	
724.29	5807.4	
724.47	7012.2	
724.65	7049.8	
724.83	6970.6	
725.01	5746.6	
725.19	6630.6	
725.37	6975.4	
725.56	7085.3	
725.74	5585.5	
725.92	5820.3	
726.1	6941.9	
726.28	7231.4	
726.46	6255.2	
726.64	6075.6	
726.83	7246.4	
727.01	7457.3	
727.19	5619.6	
727.37	6419	
727.55	7379.5	
727.73	7838.3	
727.91	5519.3	
728.09	5438.7	
728.28	7950.9	
728.46	8602.2	
728.64	6648.4	
728.82	6630.6	
729	9214.5	
729.18	8395.3	
729.36	6006.7	
729.54	8264.9	
729.72	9639.8	
729.91	7812.3	
730.09	8018.5	
730.27	6767.2	
730.45	7899	
730.63	8527.7	
730.81	7425.9	
730.99	6511.2	
731.17	9039.7	
731.35	7600	
731.53	7001.3	
731.71	6548	
731.9	8694.3	
732.08	8982.4	
732.26	6787.7	
732.44	6500.9	
732.62	8886.8	
732.8	8415.1	
732.98	7225.9	
733.16	6286.6	
733.34	8354.3	
733.52	7214.3	
733.7	6739.9	
733.88	7055.9	
734.07	8288.8	
734.25	7935.9	
734.43	6260	
734.61	7847.1	
734.79	9515.5	
734.97	7977.5	
735.15	6513.9	
735.33	6784.9	
735.51	8268.3	
735.69	7927	
735.87	7874.4	
736.05	7045	
736.23	8182.3	
736.41	8020.5	
736.59	6879.1	
736.77	6939.2	
736.95	8673.8	
737.13	8081.3	
737.32	6584.9	
737.5	6740.5	
737.68	9172.2	
737.86	7933.1	
738.04	6364.4	
738.22	8136.6	
738.4	7656.7	
738.58	8060.1	
738.76	6956.9	
738.94	5911.8	
739.12	7930.4	
739.3	7750.2	
739.48	7648.5	
739.66	7314	
739.84	8206.2	
740.02	8201.4	
740.2	6031.3	
740.38	6412.9	
740.56	8501.1	
740.74	7423.2	
740.92	7019.8	
741.1	6913.3	
741.28	7993.2	
741.46	7802.8	
741.64	6653.2	
741.82	7109.2	
742	8030.1	
742.18	7903.1	
742.36	6847	
742.54	6354.2	
742.72	8553.7	
742.9	7281.9	
743.08	7169.9	
743.26	6003.3	
743.44	8642.4	
743.62	8505.9	
743.8	7333.1	
743.98	6330.3	
744.16	8284.7	
744.34	7984.3	
744.52	7131.7	
744.7	7063.4	
744.88	8331.8	
745.06	7912	
745.24	7094.2	
745.42	7284.6	
745.6	8394.6	
745.78	8128.4	
745.96	6040.8	
746.14	6290	
746.32	9093.7	
746.5	8329.1	
746.68	6717.3	
746.86	6229.2	
747.03	8798.1	
747.21	7017	
747.39	6776	
747.57	6206	
747.75	7881.9	
747.93	8349.6	
748.11	6240.2	
748.29	6131.6	
748.47	9449.3	
748.65	7602.7	
748.83	6954.9	
749.01	6707.1	
749.19	8052.6	
749.37	7313.3	
749.55	6455.2	
749.73	6475.7	
749.91	7754.3	
750.09	7565.9	
750.26	6632.7	
750.44	5980.1	
750.62	7796.6	
750.8	7772.7	
750.98	5842.9	
751.16	6253.1	
751.34	7796.6	
751.52	7135.8	
751.7	7017	
751.88	5814.9	
752.06	8266.3	
752.24	8066.9	
752.42	5853.1	
752.59	6111.1	
752.77	7552.9	
752.95	8988.5	
753.13	6857.3	
753.31	6316.6	
753.49	7365.2	
753.67	7780.9	
753.85	6552.8	
754.03	6070.2	
754.21	7976.2	
754.38	8391.2	
754.56	6142.5	
754.74	5196.4	
754.92	7083.2	
755.1	7775.5	
755.28	4945.8	
755.46	4801.8	
755.64	8053.3	
755.82	8010.3	
755.99	4729.4	
756.17	4788.8	
756.35	5250.3	
756.53	6796.5	
756.71	3531.4	
756.89	4451.6	
757.07	6438.8	
757.25	5569.1	
757.42	5180	
757.6	6105.7	
757.78	6703.7	
757.96	5728.2	
758.14	4976.6	
758.32	4483	
758.5	5287.2	
758.67	6035.4	
758.85	4683	
759.03	4828.4	
759.21	6195.1	
759.39	5622.4	
759.57	4289.8	
759.75	5490.6	
759.92	6937.8	
760.1	6199.2	
760.28	5935.7	
760.46	6135	
760.64	6036.7	
760.82	5884.5	
760.99	5926.1	
761.17	5087.8	
761.35	6925.5	
761.53	6064	
761.71	5216.2	
761.89	5991	
762.06	7003.4	
762.24	6481.1	
762.42	5454.4	
762.6	5229.8	
762.78	6565.1	
762.96	7233.4	
763.13	5930.2	
763.31	5555.5	
763.49	7460.1	
763.67	6582.9	
763.85	6530.3	
764.02	6978.1	
764.2	7651.2	
764.38	6918	
764.56	5472.9	
764.74	6299.6	
764.91	7834.8	
765.09	6752.8	
765.27	5249.6	
765.45	4999.8	
765.63	7871.7	
765.8	7682.6	
765.98	4694.6	
766.16	5029.8	
766.34	6335.7	
766.52	6127.5	
766.69	6011.5	
766.87	4870.8	
767.05	6688	
767.23	7334.5	
767.41	5124.7	
767.58	5414.1	
767.76	7202	
767.94	7306.5	
768.12	5198.4	
768.29	5987.6	
768.47	6696.2	
768.65	7436.9	
768.83	4823.6	
769	5945.3	
769.18	6188.3	
769.36	6941.2	
769.54	5874.3	
769.72	4831.2	
769.89	7058.7	
770.07	7273	
770.25	5082.4	
770.43	6339.8	
770.6	7906.5	
770.78	8361.2	
770.96	5276.3	
771.14	5848.3	
771.31	6951.5	
771.49	6317.3	
771.67	4455.7	
771.85	4671.4	
772.02	5671.5	
772.2	6354.2	
772.38	5362.9	
772.55	4813.4	
772.73	6636.8	
772.91	6414.2	
773.09	5271.5	
773.26	5285.8	
773.44	6535.8	
773.62	6275.7	
773.8	4710.3	
773.97	4414.7	
774.15	6531	
774.33	6201.2	
774.5	4597	
774.68	4944.5	
774.86	6664.1	
775.04	6136.4	
775.21	4577.2	
775.39	4621.6	
775.57	6422.4	
775.74	6854.6	
775.92	4435.9	
776.1	4327.4	
776.27	6280.4	
776.45	7567.9	
776.63	4599.7	
776.81	4144.4	
776.98	5968.5	
777.16	7033.4	
777.34	4674.1	
777.51	4682.3	
777.69	5950.7	
777.87	5730.2	
778.04	4733.5	
778.22	5276.9	
778.4	5745.9	
778.57	6402.6	
778.75	3968.3	
778.93	4278.2	
779.1	5517.2	
779.28	5394.3	
779.46	3949.2	
779.64	4434.5	
779.81	6513.9	
779.99	7365.2	
780.17	5241.4	
780.34	5360.2	
780.52	6006.7	
780.69	6169.2	
780.87	4738.3	
781.05	4239.3	
781.22	5967.1	
781.4	6088.6	
781.58	4429.1	
781.75	3633.8	
781.93	6025.1	
782.11	5324	
782.28	5131.5	
782.46	4320.5	
782.64	5216.2	
782.81	6150.7	
782.99	4457.7	
783.17	4421.6	
783.34	6010.8	
783.52	5235.3	
783.69	4545.8	
783.87	5414.1	
784.05	5342.5	
784.22	5337	
784.4	5371.1	
784.58	4703.5	
784.75	6231.3	
784.93	5362.9	
785.1	4235.2	
785.28	4941.7	
785.46	5903.6	
785.63	5243.5	
785.81	4264.6	
785.99	4101.4	
786.16	5470.8	
786.34	5835.3	
786.51	4141.7	
786.69	4545.8	
786.87	5065.3	
787.04	5533.6	
787.22	4009.9	
787.39	4945.2	
787.57	5250.3	
787.75	6340.5	
787.92	5165.7	
788.1	5097.4	
788.27	5225.7	
788.45	5058.5	
788.63	4769	
788.8	3465.8	
788.98	5621.7	
789.15	4947.9	
789.33	3680.9	
789.5	4311.7	
789.68	6182.1	
789.86	6284.5	
790.03	4704.2	
790.21	4093.9	
790.38	6135	
790.56	5429.2	
790.73	3939.6	
790.91	4010.6	
791.09	5229.8	
791.26	5984.2	
791.44	4172.4	
791.61	3676.8	
791.79	5192.3	
791.96	5285.1	
792.14	3767.6	
792.32	3396.2	
792.49	5233.9	
792.67	5316.5	
792.84	3891.1	
793.02	3616.7	
793.19	5707	
793.37	6428.6	
793.54	3327.3	
793.72	3736.2	
793.89	6504.3	
794.07	5206.6	
794.25	4406.5	
794.42	3437.9	
794.6	6278.4	
794.77	5904.3	
794.95	4618.9	
795.12	4022.9	
795.3	5179.3	
795.47	5867.4	
795.65	4447.5	
795.82	4218.1	
796	5023	
796.17	6908.5	
796.35	4074.8	
796.52	4833.9	
796.7	5646.2	
796.87	5822.4	
797.05	5057.1	
797.22	4913.8	
797.4	5761.6	
797.57	6753.5	
797.75	4275.5	
797.92	3914.4	
798.1	6077	
798.27	5121.3	
798.45	3423.5	
798.62	3689.1	
798.8	5480.4	
798.97	5927.5	
799.15	4468.7	
799.32	4246.1	
799.5	4788.8	
799.67	5499.5	
799.85	4538.3	
800.02	3337.5	
800.2	5126.7	
800.37	5521.3	
800.55	4706.9	
800.72	3909.6	
800.9	5890.6	
801.07	6356.2	
801.25	5266	
801.42	4351.3	
801.6	5916.6	
801.77	5675.6	
801.95	4095.3	
802.12	3800.3	
802.29	5690.6	
802.47	5635.3	
802.64	4308.9	
802.82	3306.8	
802.99	5099.4	
803.17	6144.6	
803.34	4194.9	
803.52	3753.2	
803.69	6735.1	
803.87	4891.2	
804.04	4125.3	
804.21	4283	
804.39	6171.9	
804.56	5302.2	
804.74	3549.8	
804.91	4344.4	
805.09	5122	
805.26	5220.3	
805.44	3610.6	
805.61	3984	
805.78	5755.5	
805.96	5862	
806.13	4369	
806.31	4644.1	
806.48	4622.3	
806.66	5158.8	
806.83	4270	
807	4187.4	
807.18	5067.4	
807.35	5472.9	
807.53	4183.3	
807.7	3404.4	
807.87	6289.3	
808.05	5186.8	
808.22	4565.6	
808.4	3359.4	
808.57	5120.6	
808.74	4789.5	
808.92	3795.6	
809.09	4823.6	
809.27	5018.2	
809.44	5646.2	
809.61	3347.1	
809.79	3748.5	
809.96	6203.3	
810.14	5862	
810.31	3288.4	
810.48	4037.2	
810.66	5197.7	
810.83	5958.9	
811.01	3840.6	
811.18	4225.6	
811.35	5864.7	
811.53	4552.6	
811.7	4595.6	
811.87	4291.2	
812.05	5147.9	
812.22	4992.9	
812.39	3702	
812.57	3566.9	
812.74	5150.6	
812.92	6793.1	
813.09	4037.2	
813.26	4431.8	
813.44	6576.7	
813.61	5046.2	
813.78	3319.8	
813.96	4462.5	
814.13	5171.8	
814.3	4799.1	
814.48	4811.4	
814.65	4018.1	
814.82	6330.3	
815	4854.4	
815.17	4121.9	
815.34	5016.2	
815.52	5023	
815.69	5048.9	
815.87	4076.8	
816.04	3499.3	
816.21	5155.4	
816.38	4564.2	
816.56	3990.1	
816.73	3668.6	
816.9	6462	
817.08	5872.2	
817.25	3772.4	
817.42	4715.8	
817.6	4663.2	
817.77	5182	
817.94	4267.3	
818.12	3623.5	
818.29	4876.2	
818.46	7593.9	
818.64	3875.4	
818.81	3601	
818.98	4780	
819.16	6970.6	
819.33	4476.9	
819.5	4222.2	
819.67	5530.9	
819.85	6059.9	
820.02	4024.9	
820.19	4305.5	
820.37	5350.7	
820.54	4895.3	
820.71	4190.8	
820.88	5193.6	
821.06	5339.1	
821.23	4915.1	
821.4	4199	
821.58	4149.9	
821.75	5771.2	
821.92	5252.4	
822.09	3305.4	
822.27	3497.2	
822.44	5108.3	
822.61	5070.8	
822.79	3377.1	
822.96	6481.1	
823.13	5590.3	
823.3	4858.5	
823.48	3843.4	
823.65	3551.9	
823.82	5808	
823.99	4663.2	
824.17	4918.5	
824.34	3563.5	
824.51	6750.8	
824.68	5212.1	
824.86	3750.5	
825.03	4164.2	
825.2	5145.9	
825.37	6220.4	
825.55	3710.9	
825.72	4120.5	
825.89	6769.2	
826.06	6314.6	
826.24	4037.9	
826.41	4052.9	
826.58	6203.3	
826.75	5461.9	
826.92	3244	
827.1	3521.8	
827.27	8447.2	
827.44	6705	
827.61	3814.7	
827.79	4597	
827.96	4847.5	
828.13	5257.1	
828.3	3999	
828.47	3387.3	
828.65	5349.3	
828.82	5328.1	
828.99	5084.4	
829.16	4533.5	
829.34	5776.6	
829.51	5515.2	
829.68	4152.6	
829.85	4333.5	
830.02	6044.9	
830.2	5785.5	
830.37	3246.7	
830.54	4992.3	
830.71	6513.9	
830.88	5068.7	
831.05	3237.2	
831.23	3755.3	
831.4	6219.7	
831.57	6995.2	
831.74	3870	
831.91	3360.7	
832.09	5334.3	
832.26	5685.2	
832.43	3964.9	
832.6	4466.6	
832.77	5378	
832.94	6099.5	
833.12	3159.3	
833.29	3930.7	
833.46	4941.7	
833.63	7242.3	
833.8	4336.9	
833.97	3926.6	
834.15	5754.1	
834.32	5466.7	
834.49	4181.3	
834.66	4193.6	
834.83	5952.1	
835	4868	
835.17	3861.1	
835.35	3865.9	
835.52	5614.2	
835.69	5490.6	
835.86	3987.4	
836.03	3355.3	
836.2	5674.2	
836.37	5357.5	
836.55	3968.3	
836.72	3746.4	
836.89	5255.1	
837.06	5736.4	
837.23	4064.5	
837.4	4459.8	
837.57	6565.1	
837.75	7233.4	
837.92	3646.1	
838.09	3876.1	
838.26	5259.2	
838.43	6006.7	
838.6	4119.8	
838.77	3705.5	
838.94	6727.6	
839.11	6557.6	
839.29	3966.9	
839.46	3172.3	
839.63	5677	
839.8	5494	
839.97	3863.2	
840.14	3786.7	
840.31	5502.2	
840.48	5758.9	
840.65	3201.7	
840.82	3810.6	
841	5701.5	
841.17	5641.5	
841.34	3545.7	
841.51	3557.3	
841.68	5616.9	
841.85	5418.2	
842.02	3679.5	
842.19	3026.2	
842.36	5475.6	
842.53	5457.2	
842.7	3519.1	
842.87	4361.5	
843.05	7204.8	
843.22	5399.8	
843.39	3361.4	
843.56	3717.7	
843.73	5191.6	
843.9	5791	
844.07	5702.2	
844.24	4748.6	
844.41	8381	
844.58	4956.8	
844.75	3465.8	
844.92	3741	
845.09	5728.9	
845.26	5674.2	
845.43	3501.3	
845.6	3756	
845.77	5720.7	
845.94	5454.4	
846.12	3941.7	
846.29	4052.2	
846.46	5952.8	
846.63	5692.7	
846.8	3553.9	
846.97	4194.2	
847.14	6184.9	
847.31	5665.4	
847.48	3919.1	
847.65	4358.1	
847.82	5923.4	
847.99	5894.1	
848.16	4731.5	
848.33	4351.9	
848.5	5295.4	
848.67	6158.9	
848.84	3480.2	
849.01	3717.1	
849.18	5134.9	
849.35	4809.3	
849.52	4399.7	
849.69	3465.8	
849.86	5887.2	
850.03	6113.9	
850.2	3528	
850.37	4311	
850.54	6064	
850.71	5345.2	
850.88	4208.6	
851.05	3478.1	
851.22	5629.2	
851.39	6238.1	
851.56	3308.2	
851.73	4115.1	
851.9	4980.7	
852.07	5939.1	
852.24	3882.9	
852.41	3527.3	
852.58	5555.5	
852.75	5073.5	
852.92	3914.4	
853.09	3411.9	
853.26	5324.7	
853.43	6130.3	
853.6	3556	
853.77	3003	
853.94	6214.2	
854.11	5643.5	
854.28	5194.3	
854.44	3792.8	
854.61	6623.1	
854.78	5798.5	
854.95	3491.8	
855.12	4444.1	
855.29	4616.8	
855.46	6363	
855.63	3491.1	
855.8	4851.6	
855.97	5293.3	
856.14	6040.1	
856.31	4955.4	
856.48	3799.7	
856.65	5271.5	
856.82	4958.8	
856.99	3392.8	
857.16	3766.2	
857.33	6943.3	
857.49	5382.7	
857.66	3775.8	
857.83	4086.4	
858	5322	
858.17	5507.7	
858.34	3319.8	
858.51	3561.4	
858.68	6322.8	
858.85	6459.3	
859.02	4067.3	
859.19	4351.9	
859.36	4981.3	
859.52	5007.3	
859.69	3459	
859.86	4149.2	
860.03	5105.6	
860.2	6248.4	
860.37	3163.4	
860.54	3540.3	
860.71	5934.3	
860.88	6325.5	
861.05	3946.4	
861.21	4406.5	
861.38	6361	
861.55	4914.4	
861.72	3235.1	
861.89	3868.6	
862.06	5976	
862.23	6492.1	
862.4	3420.1	
862.56	3631.7	
862.73	5768.4	
862.9	5523.4	
863.07	4151.9	
863.24	3226.2	
863.41	4917.2	
863.58	5057.1	
863.75	3595.6	
863.91	4098.7	
864.08	6312.5	
864.25	5928.9	
864.42	4317.8	
864.59	4887.1	
864.76	6623.1	
864.93	5003.2	
865.09	3480.2	
865.26	3793.5	
865.43	6210.1	
865.6	6593.8	
865.77	3080.1	
865.94	3456.3	
866.1	6204.7	
866.27	6014.2	
866.44	5251	
866.61	3325.2	
866.78	5374.6	
866.95	5860.6	
867.11	3366.9	
867.28	3132	
867.45	5988.9	
867.62	5155.4	
867.79	4117.1	
867.96	3442.6	
868.12	5024.3	
868.29	5972.6	
868.46	3541.6	
868.63	4666.6	
868.8	6203.3	
868.97	5871.5	
869.13	3700.7	
869.3	3613.3	
869.47	5765.7	
869.64	6027.2	
869.81	3531.4	
869.97	3579.2	
870.14	5706.3	
870.31	6322.1	
870.48	3390.8	
870.65	4360.1	
870.81	5352.7	
870.98	5274.9	
871.15	3973.7	
871.32	3618.1	
871.48	5809.4	
871.65	6433.4	
871.82	3457.7	
871.99	3821.5	
872.16	6841.6	
872.32	6209.4	
872.49	3569.6	
872.66	3506.8	
872.83	5916.6	
872.99	5249.6	
873.16	4042	
873.33	3491.8	
873.5	5532.2	
873.67	5550	
873.83	3691.8	
874	4678.2	
874.17	5652.4	
874.34	6748.1	
874.5	4489.8	
874.67	4362.9	
874.84	6290	
875.01	4967.7	
875.17	4998.4	
875.34	3474	
875.51	5580	
875.68	6764.4	
875.84	4212	
876.01	5079.6	
876.18	5847.6	
876.34	5797.1	
876.51	3488.4	
876.68	3409.2	
876.85	5384.8	
877.01	6148	
877.18	4971.1	
877.35	3476.1	
877.52	5515.2	
877.68	4898.1	
877.85	3418.7	
878.02	3415.3	
878.18	5456.5	
878.35	5137	
878.52	2813.2	
878.69	3992.2	
878.85	5892.7	
879.02	5900.9	
879.19	4911	
879.35	3828.3	
879.52	5836.7	
879.69	6095.4	
879.86	3046	
880.02	3928.7	
880.19	5458.5	
880.36	6681.8	
880.52	4014.7	
880.69	4139.6	
880.86	5893.4	
881.02	6051.7	
881.19	3816.7	
881.36	3801.7	
881.52	5867.4	
881.69	5243.5	
881.86	3783.3	
882.02	3678.2	
882.19	6150.7	
882.36	7204.8	
882.52	3532.1	
882.69	4954	
882.86	5731.6	
883.02	5564.3	
883.19	4325.3	
883.36	4003.8	
883.52	5994.4	
883.69	6832.7	
883.86	3571	
884.02	3193.5	
884.19	5987.6	
884.36	5512.4	
884.52	3990.8	
884.69	3713.6	
884.86	5202.5	
885.02	6478.4	
885.19	3964.2	
885.36	4025.6	
885.52	5502.9	
885.69	5642.2	
885.86	5035.3	
886.02	4493.2	
886.19	5964.4	
886.35	5397.1	
886.52	3883.6	
886.69	4876.2	
886.85	4988.9	
887.02	6264.1	
887.19	6264.1	
887.35	6264.1	
887.52	6264.1	
887.68	6264.1	
887.85	6264.1	
888.02	6264.1	
888.18	6264.1	
888.35	6264.1	
888.51	6264.1	
888.68	6264.1	
888.85	6264.1	
889.01	6264.1	
889.18	6264.1	
889.35	6264.1	
889.51	6264.1	
889.68	6264.1	
889.84	6264.1	
890.01	6264.1	
890.17	6264.1	
890.34	6264.1	
890.51	6264.1	
890.67	6264.1	
890.84	6264.1	
891	6264.1	
891.17	6264.1	
891.34	6264.1	
891.5	6264.1	
891.67	6264.1	
891.83	6264.1	
892	6264.1	
892.16	6264.1	
892.33	6264.1	
892.5	6264.1	
892.66	6264.1	
892.83	6264.1	
892.99	6264.1	
893.16	6264.1	
893.32	6264.1	
893.49	6264.1	
893.65	6264.1	
893.82	6264.1	
893.99	6264.1	
894.15	6264.1	
894.32	6264.1	
894.48	6264.1	
894.65	6264.1	
894.81	6264.1	
894.98	6264.1	
895.14	6264.1	
895.31	6264.1	
895.47	6264.1	
895.64	6264.1	
895.81	6264.1	
895.97	6264.1	
896.14	6264.1	
896.3	6264.1	
896.47	6264.1	
896.63	6264.1	
896.8	6264.1	
896.96	6264.1	
897.13	6264.1	
897.29	6264.1	
897.46	6264.1	
897.62	6264.1	
897.79	6264.1	
897.95	6264.1	
898.12	6264.1	
898.28	6264.1	
898.45	6264.1	
898.61	6264.1	
898.78	6264.1	
898.94	6264.1	
899.11	6264.1	
899.27	6264.1	
899.44	6264.1	
899.6	6264.1	
899.77	6264.1	
899.93	6264.1	
900.1	6264.1	
900.26	6264.1	
900.43	6264.1	
900.59	6264.1	
900.76	6264.1	
900.92	6264.1	
901.09	6264.1	
901.25	6264.1	
901.42	6264.1	
901.58	6264.1	
901.75	6264.1	
901.91	6264.1	
902.07	6264.1	
902.24	6264.1	
902.4	6264.1	
902.57	6264.1	
902.73	6264.1	
902.9	6264.1	
903.06	6264.1	
903.23	6264.1	
903.39	6264.1	
903.56	6264.1	
903.72	6264.1	
903.88	6264.1	
904.05	6264.1	
904.21	6264.1	
904.38	6264.1	
904.54	6264.1	
904.71	6264.1	
904.87	6264.1	
905.03	6264.1	
905.2	6264.1	
905.36	6264.1	
905.53	6264.1	
905.69	6264.1	
905.86	6264.1	
906.02	6264.1	
906.18	6264.1	
906.35	6264.1	
906.51	6264.1	
906.68	6264.1	
906.84	6264.1	
907.01	6264.1	
907.17	6264.1	
907.33	6264.1	
907.5	6264.1	
907.66	6264.1	
907.83	6264.1	
907.99	6264.1	
908.15	6264.1	
908.32	6264.1	
908.48	6264.1	
908.65	6264.1	
908.81	6264.1	
908.97	6264.1	
909.14	6264.1	
909.3	6264.1	
909.47	6264.1	
909.63	6264.1	
909.79	6264.1	
909.96	6264.1	
910.12	6264.1	
910.28	6264.1	
910.45	6264.1	
910.61	6264.1	
910.78	6264.1	
910.94	6264.1	
911.1	6264.1	
911.27	6264.1	
911.43	6264.1	
911.59	6264.1	
911.76	6264.1	
911.92	6264.1	
912.08	6264.1	
912.25	6264.1	
912.41	6264.1	
912.57	6264.1	
912.74	6264.1	
912.9	6264.1	
913.07	6264.1	
913.23	6264.1	
913.39	6264.1	
913.56	6264.1	
913.72	6264.1	
913.88	6264.1	
914.05	6264.1	
914.21	6264.1	
914.37	6264.1	
914.54	6264.1	
914.7	6264.1	
914.86	6264.1	
915.03	6264.1	
915.19	6264.1	
