Wavelength	Intensities	
nm	a.u.	
179.22	1887.5	
179.44	1895.7	
179.65	1879.4	
179.86	1912.1	
180.08	1896.4	
180.29	4941.1	
180.51	3530.7	
180.72	5662.6	
180.94	6687.3	
181.15	3241.3	
181.37	3204.4	
181.58	5499.5	
181.79	5814.2	
182.01	3454.9	
182.22	3623.5	
182.44	5812.8	
182.65	4864.6	
182.87	4570.4	
183.08	3990.8	
183.29	6085.9	
183.51	4998.4	
183.72	3696.6	
183.94	5375.2	
184.15	5418.9	
184.37	5388.2	
184.58	3179.1	
184.79	4503.5	
185.01	5051	
185.22	5785.5	
185.44	4765.6	
185.65	3968.3	
185.86	5362.3	
186.08	4922	
186.29	3142.3	
186.51	3407.8	
186.72	5076.9	
186.94	5970.5	
187.15	3921.9	
187.36	4053.6	
187.58	7808.9	
187.79	5507	
188.01	4217.5	
188.22	6571.2	
188.43	6655.2	
188.65	5808.7	
188.86	3362.8	
189.08	4034.5	
189.29	5268.7	
189.5	5254.4	
189.72	3719.8	
189.93	3815.4	
190.15	5984.2	
190.36	7175.4	
190.57	4082.3	
190.79	4025.6	
191	6057.2	
191.22	6030.6	
191.43	4186	
191.64	3375.1	
191.86	6270.2	
192.07	6005.3	
192.29	3571.7	
192.5	3806.5	
192.71	6061.3	
192.93	5166.3	
193.14	3734.8	
193.35	3816.7	
193.57	5208	
193.78	5929.6	
194	2975	
194.21	3695.2	
194.42	4961.5	
194.64	5461.2	
194.85	4012.7	
195.07	4810	
195.28	5511.8	
195.49	4690.5	
195.71	4969.1	
195.92	3478.8	
196.13	5679	
196.35	5713.8	
196.56	5371.8	
196.78	4046.8	
196.99	7109.2	
197.2	6655.2	
197.42	4598.4	
197.63	4141	
197.84	4846.2	
198.06	5646.2	
198.27	3727.3	
198.48	5011.4	
198.7	5217.5	
198.91	5367	
199.13	4051.6	
199.34	4119.1	
199.55	5859.9	
199.77	4752.7	
199.98	3592.8	
200.19	4147.1	
200.41	5310.4	
200.62	5097.4	
200.83	4252.3	
201.05	4545.1	
201.26	5318.6	
201.47	5103.5	
201.69	3624.2	
201.9	3502	
202.11	5342.5	
202.33	6453.1	
202.54	3900.7	
202.76	4282.3	
202.97	5542.5	
203.18	5541.1	
203.4	4273.4	
203.61	4124.6	
203.82	5471.5	
204.04	5104.9	
204.25	4126	
204.46	4045.4	
204.68	5414.1	
204.89	5703.6	
205.1	3993.5	
205.32	3394.2	
205.53	5814.2	
205.74	6008.1	
205.96	2975	
206.17	4196.3	
206.38	5774.6	
206.6	5929.6	
206.81	4642.1	
207.02	3775.8	
207.24	5688.6	
207.45	6136.4	
207.66	3826.3	
207.88	3333.4	
208.09	5578	
208.3	5491.3	
208.52	3576.4	
208.73	3883.6	
208.94	5452.4	
209.15	6191	
209.37	3920.5	
209.58	4116.4	
209.79	5930.9	
210.01	5214.1	
210.22	3123.8	
210.43	3237.2	
210.65	5433.3	
210.86	5848.3	
211.07	3933.5	
211.29	3569.6	
211.5	5801.2	
211.71	5354.8	
211.93	3510.2	
212.14	3573.7	
212.35	5346.6	
212.56	5656.5	
212.78	4043.4	
212.99	3363.4	
213.2	6404.7	
213.42	5203.2	
213.63	3703.4	
213.84	3975.1	
214.06	4784.1	
214.27	4955.4	
214.48	3932.1	
214.69	4250.9	
214.91	6146	
215.12	6209.4	
215.33	4192.2	
215.55	4587.4	
215.76	6718.7	
215.97	5773.2	
216.18	4037.2	
216.4	3977.2	
216.61	5144.5	
216.82	5915.2	
217.04	3588.7	
217.25	3721.2	
217.46	6135.7	
217.67	5865.4	
217.89	3158.7	
218.1	3320.4	
218.31	5562.3	
218.53	5590.3	
218.74	3736.9	
218.95	3669.3	
219.16	5402.5	
219.38	6365.1	
219.59	3666.5	
219.8	4420.2	
220.01	7038.9	
220.23	5455.1	
220.44	4850.3	
220.65	3533.4	
220.87	5524.7	
221.08	6081.1	
221.29	3271.3	
221.5	4430.4	
221.72	7397.9	
221.93	5154.7	
222.14	4199	
222.35	4827.1	
222.57	5456.5	
222.78	5811.5	
222.99	3855	
223.2	4250.2	
223.42	5773.9	
223.63	5863.3	
223.84	3011.2	
224.05	3035.1	
224.27	7030	
224.48	6341.2	
224.69	4924	
224.9	4109.6	
225.12	5595.1	
225.33	5375.2	
225.54	3293.8	
225.75	3603.7	
225.97	4990.2	
226.18	5284.4	
226.39	3964.2	
226.6	3633.8	
226.82	5194.3	
227.03	5027.1	
227.24	4071.4	
227.45	3401.7	
227.67	5797.8	
227.88	6390.3	
228.09	4541	
228.3	4634.6	
228.52	5881.8	
228.73	5404.6	
228.94	3844	
229.15	3394.2	
229.36	5347.9	
229.58	5192.3	
229.79	3831.1	
230	4446.1	
230.21	6451.1	
230.43	5489.9	
230.64	4050.9	
230.85	4289.1	
231.06	5814.2	
231.28	5870.8	
231.49	3414	
231.7	3971	
231.91	5764.3	
232.12	5472.9	
232.34	3461.1	
232.55	3949.2	
232.76	6092.7	
232.97	5671.5	
233.18	3572.3	
233.4	4076.8	
233.61	5673.6	
233.82	5170.4	
234.03	3699.3	
234.25	3672.7	
234.46	7596.6	
234.67	5539.1	
234.88	4221.5	
235.09	3599	
235.31	5842.2	
235.52	5291.3	
235.73	4077.5	
235.94	3438.5	
236.15	5182.7	
236.37	6670.2	
236.58	3545	
236.79	3953.9	
237	5720	
237.21	4916.5	
237.43	4216.1	
237.64	3390.1	
237.85	9907.4	
238.06	5004.6	
238.27	4289.8	
238.48	3439.2	
238.7	5807.4	
238.91	5315.8	
239.12	3863.8	
239.33	4007.9	
239.54	5060.5	
239.76	5337.7	
239.97	3836.5	
240.18	3904.8	
240.39	6884.6	
240.6	5698.1	
240.82	4055.7	
241.03	3359.4	
241.24	5460.6	
241.45	6307.7	
241.66	3588.7	
241.87	4205.8	
242.09	6214.2	
242.3	6573.3	
242.51	4271.4	
242.72	3861.1	
242.93	5977.3	
243.14	5403.9	
243.36	4559.5	
243.57	4918.5	
243.78	6299.6	
243.99	5842.9	
244.2	3989.4	
244.41	3592.1	
244.63	4988.2	
244.84	5738.4	
245.05	4231.1	
245.26	3895.2	
245.47	5717.2	
245.68	6002.6	
245.9	5244.2	
246.11	4144.4	
246.32	5286.5	
246.53	5674.9	
246.74	6394.4	
246.95	3291.8	
247.16	4922	
247.38	5391.6	
247.59	3267.2	
247.8	3944.4	
248.01	5130.2	
248.22	5347.2	
248.43	3550.5	
248.64	3799	
248.86	4810	
249.07	5180.7	
249.28	3409.2	
249.49	4022.9	
249.7	6012.2	
249.91	6171.2	
250.12	3289	
250.34	3302.7	
250.55	5560.2	
250.76	5483.1	
250.97	4028.4	
251.18	4131.4	
251.39	6165.1	
251.6	5616.9	
251.81	4203.1	
252.03	4115.7	
252.24	5124	
252.45	5933.6	
252.66	3430.3	
252.87	4357.4	
253.08	5478.3	
253.29	7223.9	
253.5	3423.5	
253.72	4780.6	
253.93	5302.2	
254.14	6476.4	
254.35	3752.6	
254.56	3835.8	
254.77	5708.4	
254.98	5020.3	
255.19	3645.4	
255.41	4757.4	
255.62	5502.2	
255.83	6126.2	
256.04	4254.3	
256.25	4079.6	
256.46	6541.2	
256.67	5130.8	
256.88	4067.9	
257.09	4554	
257.31	5119.9	
257.52	5125.4	
257.73	5137.7	
257.94	3667.9	
258.15	5302.9	
258.36	5477.6	
258.57	4758.8	
258.78	2953.9	
258.99	5914.5	
259.2	5281	
259.41	3747.1	
259.63	3807.2	
259.84	6319.3	
260.05	6773.3	
260.26	4951.3	
260.47	3642	
260.68	5975.3	
260.89	5369.8	
261.1	4466.6	
261.31	3567.6	
261.52	6030.6	
261.73	6444.3	
261.95	4800.4	
262.16	4231.8	
262.37	6171.9	
262.58	6299.6	
262.79	4866	
263	3777.8	
263.21	5504.3	
263.42	4999.1	
263.63	3842.7	
263.84	3815.4	
264.05	6049.7	
264.26	6378.1	
264.47	4735.6	
264.69	4246.8	
264.9	6179.4	
265.11	5636	
265.32	3595.6	
265.53	3704.8	
265.74	5586.9	
265.95	4861.9	
266.16	4022.2	
266.37	4404.5	
266.58	5595.1	
266.79	5269.4	
267	3667.2	
267.21	3401	
267.42	5038.7	
267.63	5451.7	
267.84	3942.3	
268.06	3386.7	
268.27	5859.9	
268.48	6178.7	
268.69	3827	
268.9	4526.7	
269.11	6205.3	
269.32	4915.1	
269.53	3951.9	
269.74	3610.6	
269.95	5848.3	
270.16	4778.6	
270.37	3900	
270.58	4599.7	
270.79	5273.5	
271	5984.8	
271.21	4192.2	
271.42	3921.9	
271.63	5571.2	
271.84	5053.7	
272.05	3133.4	
272.26	3564.1	
272.47	5452.4	
272.68	5625.1	
272.89	3763.5	
273.11	4386.7	
273.32	5280.3	
273.53	6432	
273.74	4278.9	
273.95	4119.8	
274.16	6146	
274.37	5509	
274.58	4285.7	
274.79	3382.6	
275	5570.5	
275.21	6138.4	
275.42	5122.7	
275.63	4435.9	
275.84	5705.6	
276.05	7296.2	
276.26	4172.4	
276.47	3865.9	
276.68	5285.1	
276.89	6494.8	
277.1	4424.3	
277.31	3456.3	
277.52	5744.6	
277.73	5913.2	
277.94	3345.7	
278.15	3835.2	
278.36	5640.8	
278.57	5061.9	
278.78	3732.1	
278.99	4240.7	
279.2	5109.7	
279.41	5068	
279.62	4931.5	
279.83	3492.5	
280.04	6714.6	
280.25	4946.5	
280.46	4927.4	
280.67	3903.4	
280.88	5049.6	
281.09	6124.8	
281.3	4174.4	
281.51	5246.9	
281.72	5189.6	
281.93	5929.6	
282.14	3676.8	
282.35	3957.4	
282.56	5926.8	
282.77	5898.8	
282.98	3814.7	
283.19	4669.4	
283.4	7322.2	
283.61	5427.8	
283.82	3381.2	
284.03	4861.9	
284.24	5526.8	
284.45	6111.1	
284.66	4936.3	
284.87	4696	
285.08	6046.3	
285.29	6196.5	
285.5	3351.8	
285.71	3826.3	
285.92	6058.6	
286.12	6724.8	
286.33	4933.6	
286.54	3847.5	
286.75	5988.9	
286.96	5285.1	
287.17	3510.9	
287.38	4782	
287.59	5070.8	
287.8	5009.3	
288.01	3870.7	
288.22	4437.3	
288.43	5965.1	
288.64	4979.3	
288.85	4498	
289.06	4308.2	
289.27	5857.2	
289.48	6384.9	
289.69	4959.5	
289.9	4414.7	
290.11	6079.7	
290.32	5141.8	
290.53	4674.8	
290.74	4254.3	
290.94	5913.2	
291.15	5985.5	
291.36	3680.2	
291.57	4438.6	
291.78	5232.6	
291.99	4861.2	
292.2	3583.9	
292.41	4291.9	
292.62	6024.4	
292.83	5838.1	
293.04	5317.9	
293.25	3543.7	
293.46	5214.8	
293.67	6061.3	
293.88	3706.8	
294.09	3551.9	
294.29	4993.6	
294.5	5674.2	
294.71	3999.7	
294.92	3766.9	
295.13	5252.4	
295.34	6564.4	
295.55	3331.4	
295.76	3373.7	
295.97	5898.8	
296.18	6648.4	
296.39	3508.9	
296.6	3693.2	
296.81	5519.3	
297.01	5952.1	
297.22	3876.8	
297.43	3660.4	
297.64	5053	
297.85	5109	
298.06	3022.8	
298.27	3338.9	
298.48	5552	
298.69	5103.5	
298.9	3951.2	
299.11	3676.8	
299.31	4913.8	
299.52	4938.3	
299.73	4261.8	
299.94	4188.1	
300.15	5443.5	
300.36	5057.1	
300.57	4203.8	
300.78	4180.6	
300.99	5320.6	
301.2	5581.4	
301.4	3628.3	
301.61	3999.7	
301.82	5833.3	
302.03	5881.8	
302.24	4450.2	
302.45	3510.9	
302.66	5769.8	
302.87	6224.5	
303.08	3741	
303.29	5038.7	
303.49	5214.1	
303.7	5472.2	
303.91	3264.5	
304.12	4734.9	
304.33	4929.5	
304.54	5584.8	
304.75	3719.1	
304.96	3553.9	
305.16	5806	
305.37	6556.9	
305.58	3167.5	
305.79	3338.9	
306	5761.6	
306.21	4868	
306.42	3723.9	
306.63	5603.9	
306.83	5315.8	
307.04	6062	
307.25	4047.5	
307.46	4016.1	
307.67	4649.6	
307.88	5907	
308.09	3610.6	
308.29	3779.2	
308.5	5557.5	
308.71	6064	
308.92	3947.8	
309.13	3566.2	
309.34	5420.3	
309.55	5400.5	
309.75	4557.4	
309.96	4171	
310.17	5905	
310.38	5123.3	
310.59	4387.4	
310.8	3907.5	
311.01	5277.6	
311.21	5368.4	
311.42	3454.2	
311.63	3633.1	
311.84	5177.3	
312.05	5618.3	
312.26	4083.6	
312.46	4470	
312.67	5284.4	
312.88	4967	
313.09	3525.9	
313.3	3487.7	
313.51	6228.6	
313.71	6647.7	
313.92	3519.1	
314.13	3707.5	
314.34	5633.3	
314.55	5287.9	
314.76	4556	
314.96	3961.5	
315.17	5549.3	
315.38	5895.4	
315.59	3589.4	
315.8	3418.7	
316.01	6311.2	
316.21	6410.8	
316.42	3416.7	
316.63	3973.1	
316.84	5302.9	
317.05	6237.4	
317.26	4182	
317.46	3773	
317.67	5451.7	
317.88	5868.8	
318.09	4528.1	
318.3	3285.6	
318.5	5216.9	
318.71	5805.3	
318.92	5814.2	
319.13	4235.2	
319.34	5951.4	
319.54	6103.6	
319.75	3340.9	
319.96	3148.4	
320.17	5877	
320.38	6107	
320.58	3263.8	
320.79	3912.3	
321	6072.9	
321.21	6224.5	
321.42	3904.1	
321.62	3214.6	
321.83	5022.3	
322.04	5436	
322.25	3766.9	
322.46	3591.5	
322.66	5617.6	
322.87	5715.2	
323.08	4419.5	
323.29	3541.6	
323.5	6498.9	
323.7	4996.4	
323.91	4919.2	
324.12	4364.9	
324.33	5526.8	
324.53	5829.2	
324.74	4246.1	
324.95	4453	
325.16	4836.6	
325.37	5265.3	
325.57	3589.4	
325.78	3664.5	
325.99	5534.3	
326.2	4956.1	
326.4	5230.5	
326.61	3291.1	
326.82	5367.7	
327.03	5577.3	
327.24	5026.4	
327.44	4898.7	
327.65	5705	
327.86	4600.4	
328.07	4251.6	
328.27	3359.4	
328.48	6159.6	
328.69	5056.4	
328.9	5137.7	
329.1	3845.4	
329.31	5370.5	
329.52	6318	
329.73	3568.9	
329.93	4097.3	
330.14	5438.7	
330.35	5723.4	
330.56	5905.7	
330.76	4402.5	
330.97	5283.8	
331.18	5726.8	
331.39	3995.6	
331.59	3245.3	
331.8	6065.4	
332.01	6262	
332.22	3670	
332.42	4272.1	
332.63	5535.7	
332.84	5181.4	
333.05	4028.4	
333.25	3667.2	
333.46	5224.4	
333.67	5436	
333.88	3682.9	
334.08	4135.5	
334.29	7236.2	
334.5	6090	
334.7	3489.1	
334.91	5138.4	
335.12	5038.7	
335.33	5853.8	
335.53	3959.4	
335.74	5967.1	
335.95	5229.8	
336.16	5066.7	
336.36	4009.9	
336.57	4575.2	
336.78	5001.8	
336.98	6098.2	
337.19	4873.5	
337.4	3886.4	
337.61	6569.9	
337.81	4993.6	
338.02	3614	
338.23	4782	
338.43	6229.9	
338.64	5102.2	
338.85	3604.4	
339.05	4717.8	
339.26	6351.4	
339.47	4909.7	
339.68	3569.6	
339.88	5372.5	
340.09	5718.6	
340.3	5962.3	
340.5	4214	
340.71	3158	
340.92	4900.1	
341.13	6199.2	
341.33	3538.2	
341.54	4190.8	
341.75	5660.6	
341.95	5311.1	
342.16	4031.8	
342.37	4318.5	
342.57	4970.4	
342.78	5448.3	
342.99	4550.6	
343.19	3193.5	
343.4	5829.9	
343.61	5719.3	
343.81	3838.6	
344.02	3489.7	
344.23	5901.6	
344.43	6320.7	
344.64	4391.5	
344.85	4315.8	
345.06	5781.4	
345.26	6113.2	
345.47	4142.4	
345.68	4919.2	
345.88	4844.8	
346.09	5973.2	
346.3	4235.2	
346.5	3209.8	
346.71	5446.2	
346.92	5134.9	
347.12	3250.1	
347.33	4101.4	
347.54	6083.8	
347.74	6458.6	
347.95	4145.8	
348.16	3067.2	
348.36	5212.8	
348.57	4973.2	
348.78	4108.2	
348.98	4420.2	
349.19	5430.5	
349.39	4879.6	
349.6	3314.3	
349.81	3617.4	
350.01	5700.2	
350.22	5162.2	
350.43	3959.4	
350.63	4782.7	
350.84	5505.6	
351.05	5247.6	
351.25	3631.7	
351.46	3242.6	
351.67	6083.8	
351.87	5197.1	
352.08	3814.7	
352.29	4371	
352.49	5891.3	
352.7	5582.8	
352.9	3491.1	
353.11	4398.4	
353.32	6647.7	
353.52	5255.1	
353.73	3453.6	
353.94	4406.5	
354.14	5788.2	
354.35	5567.1	
354.55	3499.3	
354.76	4022.9	
354.97	5802.6	
355.17	5500.8	
355.38	3309.5	
355.59	4706.9	
355.79	5150	
356	5627.1	
356.2	3906.2	
356.41	3447.4	
356.62	4848.2	
356.82	5365.7	
357.03	4159.4	
357.24	3751.2	
357.44	5137.7	
357.65	5272.8	
357.85	5063.3	
358.06	3951.9	
358.27	4903.5	
358.47	5105.6	
358.68	3261.7	
358.88	4162.8	
359.09	5664.7	
359.3	6082.5	
359.5	4848.2	
359.71	4299.4	
359.91	6527.6	
360.12	5837.4	
360.33	4152.6	
360.53	4666	
360.74	5165.7	
360.94	5200.5	
361.15	4412	
361.36	3625.6	
361.56	5934.3	
361.77	5328.8	
361.97	4937	
362.18	3837.9	
362.38	5942.5	
362.59	5006.6	
362.8	3478.8	
363	3351.2	
363.21	4818.9	
363.41	5393	
363.62	3962.8	
363.83	5134.3	
364.03	5530.2	
364.24	6537.8	
364.44	5128.1	
364.65	5163.6	
364.85	5251	
365.06	5175.2	
365.27	3659.7	
365.47	3731.4	
365.68	6285.2	
365.88	5236.7	
366.09	4083.6	
366.29	3756.7	
366.5	5556.1	
366.71	5958.2	
366.91	5114.5	
367.12	4198.3	
367.32	6531.7	
367.53	5739.1	
367.73	4106.9	
367.94	5182	
368.14	5718.6	
368.35	6679.1	
368.56	4157.4	
368.76	3900.7	
368.97	5862.7	
369.17	7563.1	
369.38	3653.6	
369.58	3925.3	
369.79	4865.3	
369.99	6298.9	
370.2	4987.5	
370.4	4040	
370.61	5535	
370.82	6794.5	
371.02	3873.4	
371.23	3264.5	
371.43	4829.8	
371.64	6095.4	
371.84	3902.7	
372.05	5223	
372.25	7466.2	
372.46	5844.9	
372.66	3908.9	
372.87	3881.6	
373.07	5886.5	
373.28	7503.1	
373.48	4939	
373.69	4678.2	
373.9	5345.9	
374.1	5411.4	
374.31	4888.5	
374.51	4410	
374.72	6176	
374.92	5059.8	
375.13	5037.3	
375.33	4235.9	
375.54	5748	
375.74	5185.5	
375.95	4263.2	
376.15	5517.9	
376.36	5745.2	
376.56	5569.8	
376.77	4322.6	
376.97	4750.6	
377.18	6790.4	
377.38	5789.6	
377.59	5113.1	
377.79	3803.1	
378	5636.7	
378.2	6072.9	
378.41	3885.7	
378.61	3737.5	
378.82	6105.7	
379.02	5143.8	
379.23	3999	
379.43	5156.8	
379.64	6145.3	
379.84	5754.1	
380.05	3850.2	
380.25	3826.3	
380.46	5847.6	
380.66	5431.9	
380.87	5171.1	
381.07	5541.1	
381.28	6490.7	
381.48	5902.2	
381.69	3887.7	
381.89	3890.5	
382.1	4878.9	
382.3	6002.6	
382.51	5037.3	
382.71	5989.6	
382.91	5870.8	
383.12	6386.2	
383.32	4285.7	
383.53	4465.3	
383.73	5745.2	
383.94	5532.9	
384.14	4382.7	
384.35	3552.5	
384.55	5436	
384.76	5915.9	
384.96	4287.1	
385.17	4586.1	
385.37	5913.9	
385.58	5181.4	
385.78	4619.5	
385.98	3493.2	
386.19	5418.2	
386.39	5714.5	
386.6	4010.6	
386.8	4278.9	
387.01	5880.4	
387.21	5967.1	
387.42	4685.1	
387.62	5284.4	
387.83	5204.6	
388.03	5893.4	
388.23	4317.8	
388.44	5152.7	
388.64	4842.1	
388.85	5038	
389.05	4599.1	
389.26	5248.9	
389.46	6873	
389.67	6266.8	
389.87	4601.8	
390.07	4664.6	
390.28	5523.4	
390.48	5142.4	
390.69	3848.8	
390.89	4161.5	
391.1	5311.1	
391.3	6241.5	
391.5	5421	
391.71	6049	
391.91	5903.6	
392.12	6984.3	
392.32	5410.1	
392.53	4616.8	
392.73	5320.6	
392.93	5499.5	
393.14	4329.4	
393.34	5076.9	
393.55	6044.9	
393.75	5510.4	
393.95	4331.5	
394.16	4299.4	
394.36	5316.5	
394.57	5995.8	
394.77	3833.1	
394.98	4270.7	
395.18	5214.8	
395.38	5442.8	
395.59	5031.2	
395.79	4080.2	
396	5372.5	
396.2	5889.3	
396.4	4854.4	
396.61	4798.4	
396.81	6056.5	
397.02	5328.1	
397.22	5051.7	
397.42	5205.3	
397.63	5949.3	
397.83	5253	
398.04	3936.9	
398.24	4483	
398.44	5810.1	
398.65	4834.6	
398.85	3784	
399.05	3954.6	
399.26	5246.9	
399.46	6886.6	
399.67	4343.7	
399.87	4053.6	
400.07	5551.4	
400.28	5921.4	
400.48	4093.9	
400.69	5113.1	
400.89	6193.7	
401.09	6528.2	
401.3	4009.9	
401.5	5151.3	
401.7	6763.1	
401.91	7111.9	
402.11	4356.7	
402.32	4590.9	
402.52	6184.9	
402.72	6075.6	
402.93	4816.1	
403.13	3605.1	
403.33	6822.5	
403.54	5628.5	
403.74	4472.8	
403.94	5380	
404.15	5696.8	
404.35	6849.1	
404.56	4276.8	
404.76	6163	
404.96	6187.6	
405.17	5963.7	
405.37	5595.1	
405.57	4704.9	
405.78	6139.8	
405.98	5640.1	
406.18	4259.8	
406.39	5184.1	
406.59	6204	
406.79	5797.8	
407	4106.9	
407.2	4252.3	
407.4	6165.1	
407.61	6357.6	
407.81	4200.4	
408.01	6004	
408.22	5146.5	
408.42	7213.6	
408.62	5241.4	
408.83	4713.7	
409.03	5782.1	
409.23	5513.1	
409.44	4895.3	
409.64	5106.3	
409.84	6672.3	
410.05	6498.2	
410.25	4934.9	
410.45	4646.8	
410.66	5968.5	
410.86	8436.3	
411.06	5075.5	
411.27	4914.4	
411.47	8320.2	
411.67	6159.6	
411.88	5205.9	
412.08	5420.3	
412.28	6714.6	
412.49	7279.2	
412.69	4937	
412.89	4962.9	
413.09	7073	
413.3	6954.9	
413.5	4986.8	
413.7	4587.4	
413.91	6175.3	
414.11	7195.9	
414.31	4803.9	
414.52	5214.1	
414.72	6801.3	
414.92	6601.3	
415.12	4872.1	
415.33	5408.7	
415.53	7043.6	
415.73	7249.1	
415.94	5735.7	
416.14	5092.6	
416.34	5994.4	
416.55	5678.3	
416.75	6324.8	
416.95	5828.5	
417.15	7061.4	
417.36	7834.8	
417.56	6559	
417.76	5569.8	
417.97	7392.5	
418.17	6988.4	
418.37	5182	
418.57	5220.3	
418.78	6798.6	
418.98	6444.3	
419.18	6078.4	
419.38	6030.6	
419.59	6569.9	
419.79	6196.5	
419.99	5124.7	
420.2	5509	
420.4	7031.4	
420.6	7273	
420.8	5067.4	
421.01	4902.8	
421.21	6832.7	
421.41	7071.6	
421.61	5422.3	
421.82	5086.5	
422.02	6374	
422.22	7372	
422.42	5896.1	
422.63	5618.9	
422.83	6580.1	
423.03	7683.3	
423.23	5629.2	
423.44	4561.5	
423.64	6637.5	
423.84	6365.8	
424.04	5059.2	
424.25	4781.3	
424.45	7589.1	
424.65	7496.9	
424.85	4497.3	
425.06	5093.3	
425.26	7488.1	
425.46	6472.3	
425.66	5511.8	
425.87	5376.6	
426.07	7293.5	
426.27	7118.7	
426.47	5429.8	
426.67	4792.2	
426.88	7636.9	
427.08	7060.7	
427.28	5668.8	
427.48	4746.5	
427.69	6014.2	
427.89	6698.9	
428.09	5647.6	
428.29	4820.2	
428.5	7378.1	
428.7	6898.2	
428.9	4663.2	
429.1	5311.1	
429.3	6727.6	
429.51	7192.5	
429.71	5044.1	
429.91	5839.4	
430.11	7134.4	
430.31	7711.3	
430.52	5279	
430.72	5678.3	
430.92	7699	
431.12	7023.2	
431.32	4996.4	
431.53	5464.7	
431.73	6059.3	
431.93	7814.4	
432.13	4919.9	
432.33	4848.9	
432.54	6465.4	
432.74	6968.6	
432.94	4754.7	
433.14	5769.8	
433.34	7103.7	
433.55	6555.5	
433.75	5801.2	
433.95	7548.8	
434.15	6816.3	
434.35	6577.4	
434.56	5003.2	
434.76	4474.1	
434.96	6824.5	
435.16	7061.4	
435.36	4828.4	
435.56	5934.3	
435.77	6490.7	
435.97	6671.6	
436.17	6757.6	
436.37	5873.6	
436.57	6500.3	
436.78	6337.1	
436.98	7795.3	
437.18	6574	
437.38	7140.6	
437.58	6688.7	
437.78	6636.1	
437.99	5244.2	
438.19	7195.9	
438.39	8701.8	
438.59	5205.3	
438.79	4753.3	
438.99	7918.8	
439.2	6730.3	
439.4	4912.4	
439.6	4852.3	
439.8	7068.2	
440	8153.6	
440.2	5850.4	
440.4	6074.3	
440.61	7408.9	
440.81	8030.1	
441.01	5100.8	
441.21	5960.3	
441.41	7793.9	
441.61	7408.2	
441.81	6247.7	
442.02	7277.8	
442.22	8319.5	
442.42	7496.9	
442.62	5159.5	
442.82	5275.6	
443.02	7815.7	
443.22	7019.8	
443.43	5602.6	
443.63	5150.6	
443.83	6699.6	
444.03	6774	
444.23	6421.7	
444.43	5924.1	
444.63	7030.7	
444.83	8413.1	
445.04	5253	
445.24	6599.9	
445.44	7481.9	
445.64	7517.4	
445.84	6126.8	
446.04	6158.9	
446.24	6831.3	
446.44	7871	
446.65	5257.1	
446.85	5637.4	
447.05	6967.9	
447.25	7809.6	
447.45	5723.4	
447.65	5147.9	
447.85	7165.8	
448.05	6842.3	
448.25	6240.2	
448.46	6046.3	
448.66	7142.6	
448.86	6934.4	
449.06	5031.9	
449.26	6165.1	
449.46	7545.4	
449.66	6587	
449.86	5784.1	
450.06	5712.5	
450.26	6793.1	
450.47	7421.2	
450.67	6014.2	
450.87	6376	
451.07	7432.1	
451.27	7301.7	
451.47	5272.2	
451.67	5828.5	
451.87	6873.7	
452.07	8096.3	
452.27	5526.1	
452.47	5468.8	
452.67	7073	
452.88	7822.6	
453.08	4831.2	
453.28	6933.1	
453.48	8514.8	
453.68	7189.7	
453.88	5451	
454.08	5691.3	
454.28	7647.8	
454.48	7218.4	
454.68	6285.2	
454.88	6793.1	
455.08	7800	
455.28	7469.6	
455.48	5302.2	
455.68	5909.8	
455.89	8283.4	
456.09	7909.9	
456.29	5752.7	
456.49	5757.5	
456.69	8139.3	
456.89	7396.6	
457.09	6336.4	
457.29	6716	
457.49	7719.5	
457.69	7926.3	
457.89	6094.1	
458.09	5482.4	
458.29	7519.5	
458.49	8160.5	
458.69	6537.1	
458.89	6029.9	
459.09	8432.2	
459.29	8648.6	
459.49	6027.9	
459.69	6905.8	
459.9	8104.5	
460.1	7451.9	
460.3	5970.5	
460.5	5731.6	
460.7	7959.1	
460.9	7694.2	
461.1	5381.4	
461.3	6774	
461.5	8665	
461.7	8288.1	
461.9	5943.9	
462.1	6379.4	
462.3	7738.6	
462.5	8400.1	
462.7	5991.7	
462.9	6135	
463.1	9428.8	
463.3	9096.4	
463.5	6262.7	
463.7	7260.7	
463.9	7963.2	
464.1	8334.6	
464.3	6433.4	
464.5	6701	
464.7	8564.6	
464.9	8250.6	
465.1	8060.8	
465.3	7054.6	
465.5	9013.1	
465.7	8982.4	
465.9	7324.2	
466.1	7126.9	
466.3	8805.6	
466.5	8641.7	
466.7	8039.6	
466.9	6887.3	
467.1	8603.5	
467.3	9605.7	
467.5	8097.7	
467.7	6808.8	
467.9	9848.7	
468.1	10658	
468.3	7582.3	
468.5	8027.4	
468.7	8610.3	
468.9	8558.5	
469.1	7104.4	
469.3	7828.7	
469.5	10611	
469.7	8168	
469.9	7630.7	
470.1	6842.9	
470.3	8588.5	
470.5	8580.3	
470.7	8124.3	
470.9	6860	
471.1	8327.7	
471.3	8912.1	
471.5	6780.8	
471.69	8877.9	
471.89	8233.5	
472.09	7750.2	
472.29	7604.1	
472.49	8017.1	
472.69	7983	
472.89	8877.3	
473.09	6771.9	
473.29	6952.2	
473.49	8146.8	
473.69	8436.9	
473.89	7791.2	
474.09	6990.4	
474.29	9729.9	
474.49	9359.2	
474.69	7821.9	
474.89	7234.8	
475.09	8380.3	
475.29	8333.9	
475.49	6537.8	
475.69	6851.8	
475.88	10028	
476.08	8578.9	
476.28	6533	
476.48	6960.4	
476.68	9256.1	
476.88	8971.5	
477.08	6812.9	
477.28	7212.9	
477.48	8451.3	
477.68	9182.4	
477.88	6716.7	
478.08	7060.7	
478.28	9526.5	
478.48	8616.5	
478.67	7134.4	
478.87	6496.2	
479.07	9415.9	
479.27	8802.9	
479.47	7288.7	
479.67	7266.9	
479.87	9200.2	
480.07	9764	
480.27	6518.7	
480.47	8262.2	
480.67	8793.3	
480.87	9549.7	
481.06	6842.3	
481.26	7770.7	
481.46	8678.6	
481.66	8688.8	
481.86	7403.4	
482.06	8507.3	
482.26	8585.1	
482.46	9642.5	
482.66	7395.9	
482.86	6904.4	
483.05	8912.1	
483.25	8264.2	
483.45	9897.8	
483.65	7372	
483.85	8620.6	
484.05	8809	
484.25	7773.4	
484.45	8310.7	
484.65	9711.5	
484.84	9702.6	
485.04	7268.2	
485.24	7276.4	
485.44	10053	
485.64	8324.3	
485.84	6606.7	
486.04	8148.2	
486.24	8650.6	
486.44	9146.9	
486.63	6570.6	
486.83	7381.6	
487.03	8599.4	
487.23	8880	
487.43	6730.3	
487.63	9140.8	
487.83	8828.1	
488.02	9964.1	
488.22	7832.8	
488.42	8443.1	
488.62	9784.5	
488.82	8704.5	
489.02	7452.6	
489.22	7486.7	
489.41	9702.6	
489.61	9312.8	
489.81	7098.9	
490.01	7226.6	
490.21	9581.8	
490.41	10213	
490.61	7120.8	
490.8	7247.1	
491	9067	
491.2	8331.1	
491.4	7847.8	
491.6	6971.3	
491.8	9112.1	
491.99	9241.8	
492.19	6931.7	
492.39	7373.4	
492.59	9824.8	
492.79	9959.3	
492.99	8315.4	
493.18	7347.4	
493.38	9893.1	
493.58	10744	
493.78	8070.4	
493.98	7713.3	
494.18	9658.9	
494.37	9167.4	
494.57	8402.8	
494.77	8168.7	
494.97	9909.4	
495.17	10165	
495.37	7773.4	
495.56	8127.7	
495.76	10352	
495.96	10023	
496.16	9037	
496.36	7952.3	
496.55	10212	
496.75	9704.6	
496.95	8464.9	
497.15	8269	
497.35	10195	
497.54	10162	
497.74	8077.9	
497.94	9736.7	
498.14	10923	
498.34	10780	
498.53	7845.8	
498.73	8711.4	
498.93	9741.5	
499.13	10340	
499.33	8552.3	
499.52	9092.3	
499.72	10219	
499.92	10576	
500.12	8215.1	
500.32	8430.8	
500.51	10516	
500.71	10301	
500.91	9270.5	
501.11	8852	
501.31	10389	
501.5	10834	
501.7	9516.2	
501.9	8562.6	
502.1	10163	
502.29	10540	
502.49	8976.2	
502.69	9382.4	
502.89	10439	
503.09	10398	
503.28	7937.2	
503.48	8062.2	
503.68	9639.8	
503.88	9710.8	
504.07	9050	
504.27	8533.9	
504.47	10036	
504.67	10150	
504.86	8955.8	
505.06	8701.8	
505.26	9661	
505.46	11536	
505.65	8547.5	
505.85	8773.5	
506.05	9630.2	
506.25	10117	
506.44	7834.2	
506.64	8811.7	
506.84	9493.7	
507.04	10544	
507.23	8094.3	
507.43	8581.7	
507.63	11598	
507.83	9762.7	
508.02	8600.1	
508.22	8208.9	
508.42	11861	
508.62	9615.2	
508.81	8510.7	
509.01	9184.5	
509.21	9411.1	
509.4	9723.8	
509.6	8721.6	
509.8	8203.5	
510	9820.7	
510.19	11260	
510.39	8154.3	
510.59	8266.3	
510.79	9621.4	
510.98	11133	
511.18	8184.4	
511.38	8295	
511.57	10395	
511.77	10290	
511.97	9058.2	
512.17	8003.5	
512.36	10376	
512.56	10411	
512.76	8175.5	
512.95	7897	
513.15	10565	
513.35	9238.4	
513.55	9163.3	
513.74	8275.2	
513.94	10640	
514.14	9879.4	
514.33	9069.1	
514.53	8929.8	
514.73	9850	
514.92	10180	
515.12	8430.8	
515.32	8374.1	
515.51	10235	
515.71	10892	
515.91	10083	
516.11	8365.3	
516.3	12153	
516.5	9911.5	
516.7	9001.5	
516.89	9582.4	
517.09	10016	
517.29	9845.3	
517.48	9327.1	
517.68	8637.6	
517.88	9715.6	
518.07	10324	
518.27	9242.5	
518.47	8233.5	
518.66	11014	
518.86	9566.7	
519.06	8039	
519.25	8542.1	
519.45	9980.4	
519.65	11561	
519.84	9106.6	
520.04	9814.5	
520.24	11711	
520.43	10459	
520.63	8932.6	
520.83	8562.6	
521.02	9775.6	
521.22	10494	
521.42	9170.1	
521.61	9853.5	
521.81	10056	
522.01	10322	
522.2	9156.5	
522.4	9000.1	
522.6	10803	
522.79	9730.6	
522.99	9124.4	
523.18	8452	
523.38	10749	
523.58	10771	
523.77	10501	
523.97	8409.6	
524.17	12691	
524.36	11740	
524.56	9916.3	
524.76	9525.8	
524.95	10783	
525.15	10402	
525.34	9300.5	
525.54	9360.6	
525.74	11148	
525.93	10164	
526.13	10542	
526.33	9383.1	
526.52	11505	
526.72	11032	
526.91	10692	
527.11	10040	
527.31	11662	
527.5	12156	
527.7	9919.7	
527.89	8867	
528.09	10576	
528.29	11375	
528.48	10414	
528.68	9893.7	
528.87	11693	
529.07	11693	
529.27	9858.9	
529.46	9301.2	
529.66	11146	
529.85	11522	
530.05	9071.1	
530.25	9930.6	
530.44	12674	
530.64	11088	
530.83	9682.1	
531.03	10043	
531.23	11735	
531.42	11611	
531.62	10832	
531.81	10087	
532.01	12032	
532.21	12521	
532.4	9860.3	
532.6	10227	
532.79	12821	
532.99	12019	
533.18	10249	
533.38	11331	
533.58	11638	
533.77	12473	
533.97	10304	
534.16	11006	
534.36	12706	
534.55	11757	
534.75	11239	
534.95	10388	
535.14	12517	
535.34	11718	
535.53	10064	
535.73	11943	
535.92	13003	
536.12	11824	
536.31	10049	
536.51	11363	
536.71	12021	
536.9	11753	
537.1	10241	
537.29	10507	
537.49	12732	
537.68	11745	
537.88	10926	
538.07	10062	
538.27	11974	
538.46	13069	
538.66	10032	
538.86	10453	
539.05	11987	
539.25	12368	
539.44	10694	
539.64	10261	
539.83	11738	
540.03	12864	
540.22	10096	
540.42	10244	
540.61	12064	
540.81	12153	
541	10747	
541.2	11422	
541.39	11596	
541.59	12013	
541.78	11073	
541.98	9947	
542.18	11183	
542.37	11080	
542.57	10539	
542.76	11086	
542.96	11229	
543.15	12055	
543.35	10405	
543.54	9679.4	
543.74	12233	
543.93	11859	
544.13	10355	
544.32	11582	
544.52	12214	
544.71	11337	
544.91	9514.9	
545.1	10828	
545.3	11454	
545.49	12035	
545.69	9522.4	
545.88	10062	
546.08	13068	
546.27	12571	
546.47	10667	
546.66	9864.4	
546.86	12365	
547.05	13009	
547.24	10129	
547.44	9981.8	
547.63	11151	
547.83	12410	
548.02	10390	
548.22	10509	
548.41	10996	
548.61	12438	
548.8	9869.2	
549	9824.8	
549.19	11625	
549.39	12011	
549.58	9544.9	
549.78	10198	
549.97	11993	
550.17	11628	
550.36	11021	
550.55	12080	
550.75	11620	
550.94	12497	
551.14	9714.9	
551.33	10123	
551.53	10887	
551.72	11996	
551.92	10163	
552.11	10006	
552.31	11996	
552.5	11929	
552.69	11725	
552.89	9531.2	
553.08	11960	
553.28	11650	
553.47	9975.7	
553.67	11167	
553.86	12601	
554.06	10805	
554.25	9118.2	
554.44	9778.4	
554.64	13340	
554.83	12803	
555.03	9820.7	
555.22	10143	
555.42	12125	
555.61	11845	
555.8	9900.6	
556	10250	
556.19	10943	
556.39	12233	
556.58	9988.6	
556.78	9923.1	
556.97	11824	
557.16	11355	
557.36	11482	
557.55	9655.5	
557.75	10686	
557.94	12519	
558.13	9717.6	
558.33	9534.7	
558.52	12245	
558.72	11083	
558.91	9641.2	
559.1	9837.1	
559.3	10916	
559.49	10531	
559.69	9138	
559.88	10175	
560.07	11710	
560.27	12076	
560.46	10394	
560.66	10634	
560.85	11447	
561.04	10622	
561.24	9597.5	
561.43	9676.7	
561.63	10854	
561.82	11252	
562.01	11034	
562.21	10076	
562.4	11701	
562.59	12701	
562.79	9999.5	
562.98	9734.7	
563.18	11644	
563.37	13121	
563.56	10520	
563.76	9506	
563.95	11169	
564.14	11056	
564.34	9900.6	
564.53	9759.9	
564.73	11699	
564.92	12076	
565.11	10227	
565.31	9485.5	
565.5	12248	
565.69	11151	
565.89	9783.1	
566.08	10172	
566.27	12127	
566.47	12667	
566.66	10806	
566.85	9388.6	
567.05	11720	
567.24	11096	
567.44	9719	
567.63	11182	
567.82	12005	
568.02	11713	
568.21	9813.9	
568.4	10176	
568.6	11703	
568.79	11699	
568.98	9671.9	
569.18	9772.9	
569.37	11581	
569.56	13687	
569.76	10096	
569.95	11134	
570.14	12064	
570.34	11845	
570.53	9701.9	
570.72	9650.7	
570.91	12395	
571.11	11578	
571.3	10050	
571.49	11106	
571.69	11643	
571.88	11241	
572.07	10791	
572.27	10689	
572.46	11251	
572.65	12304	
572.85	9994.8	
573.04	10340	
573.23	12718	
573.43	11931	
573.62	9738.8	
573.81	10525	
574	11938	
574.2	11787	
574.39	10277	
574.58	10415	
574.78	12878	
574.97	12078	
575.16	10810	
575.36	10910	
575.55	12525	
575.74	12503	
575.93	9802.9	
576.13	11066	
576.32	11925	
576.51	12362	
576.71	10305	
576.9	11738	
577.09	12842	
577.28	12236	
577.48	10859	
577.67	9856.9	
577.86	11884	
578.05	12273	
578.25	10535	
578.44	10613	
578.63	12100	
578.83	13317	
579.02	9977	
579.21	11558	
579.4	12319	
579.6	11948	
579.79	10769	
579.98	13033	
580.17	12682	
580.37	12788	
580.56	10285	
580.75	11062	
580.94	13319	
581.14	13136	
581.33	11541	
581.52	10383	
581.71	12611	
581.91	13385	
582.1	10083	
582.29	10780	
582.48	12327	
582.68	12293	
582.87	11323	
583.06	10896	
583.25	12650	
583.45	12076	
583.64	11629	
583.83	12363	
584.02	12198	
584.21	12715	
584.41	11568	
584.6	10883	
584.79	12451	
584.98	13212	
585.18	10390	
585.37	10413	
585.56	11934	
585.75	12691	
585.94	10505	
586.14	11226	
586.33	13201	
586.52	12294	
586.71	10977	
586.91	10748	
587.1	11551	
587.29	12609	
587.48	10546	
587.67	10473	
587.87	12429	
588.06	12635	
588.25	11703	
588.44	10927	
588.63	11994	
588.83	12471	
589.02	10118	
589.21	9970.9	
589.4	11347	
589.59	11159	
589.78	8914.1	
589.98	9167.4	
590.17	10757	
590.36	11282	
590.55	8589.2	
590.74	9480	
590.94	12701	
591.13	11301	
591.32	9344.9	
591.51	9003.6	
591.7	11751	
591.89	11284	
592.09	9166	
592.28	9611.1	
592.47	10573	
592.66	12500	
592.85	9003.6	
593.05	9371.5	
593.24	11183	
593.43	12088	
593.62	9541.5	
593.81	10010	
594	11181	
594.19	11517	
594.39	9325.8	
594.58	9335.3	
594.77	11526	
594.96	12162	
595.15	9142.1	
595.34	9866.4	
595.54	11505	
595.73	10639	
595.92	8627.4	
596.11	9744.9	
596.3	12125	
596.49	10710	
596.68	9627.5	
596.88	10120	
597.07	11904	
597.26	10612	
597.45	9015.2	
597.64	10294	
597.83	10888	
598.02	11531	
598.22	9189.2	
598.41	9972.9	
598.6	11319	
598.79	10707	
598.98	9187.2	
599.17	10256	
599.36	11327	
599.55	12625	
599.74	11430	
599.94	11298	
600.13	11992	
600.32	10811	
600.51	9082.7	
600.7	9255.5	
600.89	12575	
601.08	12633	
601.27	9068.4	
601.47	10043	
601.66	11955	
601.85	12581	
602.04	9778.4	
602.23	10044	
602.42	10931	
602.61	11637	
602.8	9812.5	
602.99	9310.1	
603.18	11424	
603.37	11650	
603.57	10157	
603.76	10699	
603.95	12424	
604.14	12041	
604.33	9619.3	
604.52	9928.6	
604.71	11590	
604.9	11173	
605.09	10526	
605.28	10315	
605.47	12162	
605.66	11841	
605.86	10225	
606.05	9553.1	
606.24	12154	
606.43	10707	
606.62	9938.8	
606.81	10753	
607	12037	
607.19	11365	
607.38	9336.7	
607.57	9611.8	
607.76	11082	
607.95	10583	
608.14	9977.7	
608.33	10542	
608.52	10989	
608.72	12075	
608.91	9213.8	
609.1	9061.6	
609.29	11171	
609.48	10733	
609.67	10210	
609.86	9121	
610.05	10824	
610.24	11171	
610.43	9042.5	
610.62	8766	
610.81	12286	
611	12075	
611.19	9225.4	
611.38	9919	
611.57	11441	
611.76	12770	
611.95	8957.1	
612.14	8867.7	
612.33	11323	
612.52	10783	
612.71	9544.9	
612.9	8767.4	
613.09	10301	
613.28	12843	
613.47	9212.4	
613.66	10272	
613.85	11527	
614.04	10907	
614.24	9361.9	
614.43	8566.7	
614.62	11554	
614.81	11473	
615	10016	
615.19	10010	
615.38	10787	
615.57	11247	
615.76	9741.5	
615.95	10796	
616.14	11623	
616.33	11241	
616.52	10178	
616.71	10554	
616.9	11533	
617.09	11397	
617.28	9559.2	
617.47	10858	
617.66	10735	
617.85	10828	
618.04	10676	
618.22	10047	
618.41	11241	
618.6	12111	
618.79	10023	
618.98	9747	
619.17	12551	
619.36	10810	
619.55	9868.5	
619.74	9925.1	
619.93	11783	
620.12	11204	
620.31	10621	
620.5	10844	
620.69	12475	
620.88	12895	
621.07	11456	
621.26	10568	
621.45	12008	
621.64	12041	
621.83	10714	
622.02	9859.6	
622.21	12233	
622.4	11936	
622.59	11183	
622.78	10993	
622.97	11488	
623.16	12631	
623.35	10446	
623.54	9707.4	
623.72	11709	
623.91	11901	
624.1	10814	
624.29	9517.6	
624.48	13026	
624.67	12158	
624.86	10828	
625.05	9801.6	
625.24	13136	
625.43	11387	
625.62	12579	
625.81	10031	
626	12577	
626.19	11783	
626.38	11049	
626.56	10252	
626.75	11521	
626.94	12390	
627.13	10733	
627.32	9383.8	
627.51	12184	
627.7	13491	
627.89	9488.9	
628.08	10815	
628.27	11361	
628.46	11619	
628.65	9873.3	
628.83	9554.5	
629.02	12108	
629.21	11400	
629.4	10417	
629.59	10624	
629.78	11355	
629.97	12458	
630.16	10692	
630.35	10224	
630.54	12886	
630.72	12549	
630.91	10155	
631.1	10681	
631.29	12008	
631.48	12267	
631.67	10866	
631.86	10269	
632.05	11679	
632.24	11792	
632.42	9869.8	
632.61	10606	
632.8	11785	
632.99	11460	
633.18	10633	
633.37	11027	
633.56	12086	
633.75	11797	
633.93	10563	
634.12	10244	
634.31	12988	
634.5	12515	
634.69	10348	
634.88	10755	
635.07	11910	
635.25	12482	
635.44	11267	
635.63	11469	
635.82	11742	
636.01	11320	
636.2	11144	
636.39	10778	
636.57	12831	
636.76	12634	
636.95	10145	
637.14	11573	
637.33	12293	
637.52	13211	
637.7	9918.3	
637.89	10877	
638.08	11755	
638.27	13190	
638.46	10929	
638.65	11249	
638.83	13199	
639.02	11622	
639.21	10812	
639.4	11327	
639.59	11936	
639.78	11640	
639.96	9936.1	
640.15	10062	
640.34	11853	
640.53	11921	
640.72	9643.2	
640.91	10032	
641.09	11206	
641.28	12593	
641.47	10058	
641.66	10882	
641.85	11866	
642.03	12202	
642.22	10637	
642.41	10167	
642.6	11229	
642.79	10578	
642.97	9744.2	
643.16	10512	
643.35	11235	
643.54	11025	
643.73	9606.3	
643.91	10535	
644.1	10791	
644.29	11381	
644.48	9513.5	
644.67	9571.5	
644.85	10824	
645.04	11130	
645.23	9093	
645.42	9402.2	
645.6	10467	
645.79	11779	
645.98	9338.1	
646.17	8233.5	
646.36	10214	
646.54	10810	
646.73	9916.3	
646.92	8720.9	
647.11	10253	
647.29	11308	
647.48	8766.7	
647.67	8432.2	
647.86	11615	
648.05	11770	
648.23	9234.3	
648.42	10488	
648.61	11135	
648.8	10910	
648.98	8884.1	
649.17	9349.7	
649.36	10471	
649.55	9921.7	
649.73	8812.4	
649.92	9669.8	
650.11	10300	
650.3	10605	
650.48	8890.2	
650.67	8753.7	
650.86	10794	
651.05	9712.8	
651.23	8957.8	
651.42	8882	
651.61	10346	
651.79	10385	
651.98	9114.1	
652.17	8712.1	
652.36	10712	
652.54	9786.6	
652.73	8686.8	
652.92	8550.3	
653.11	10677	
653.29	10727	
653.48	7809.6	
653.67	8910	
653.85	10279	
654.04	11382	
654.23	8974.9	
654.42	8409.6	
654.6	9640.5	
654.79	10337	
654.98	7783.6	
655.16	8340	
655.35	9283.4	
655.54	9353.8	
655.73	8036.2	
655.91	8017.1	
656.1	10569	
656.29	9375.6	
656.47	7746.8	
656.66	9489.6	
656.85	9824.1	
657.03	9875.3	
657.22	8265.6	
657.41	8402.1	
657.59	9892.4	
657.78	9673.9	
657.97	8099.7	
658.16	8756.4	
658.34	10476	
658.53	11005	
658.72	9629.5	
658.9	10304	
659.09	10049	
659.28	10112	
659.46	8495.7	
659.65	8469	
659.84	9846	
660.02	10363	
660.21	8342.1	
660.4	8271.7	
660.58	10809	
660.77	10090	
660.96	8881.4	
661.14	7920.2	
661.33	11198	
661.52	11185	
661.7	7757	
661.89	11814	
662.08	9704.6	
662.26	9310.7	
662.45	8082	
662.64	8331.8	
662.82	10417	
663.01	9589.3	
663.2	8367.3	
663.38	9063.6	
663.57	10303	
663.75	10216	
663.94	8600.1	
664.13	9922.4	
664.31	9573.6	
664.5	10323	
664.69	8953	
664.87	9450	
665.06	9496.4	
665.25	10176	
665.43	9715.6	
665.62	9817.3	
665.8	10515	
665.99	9749.7	
666.18	8588.5	
666.36	8788.5	
666.55	10389	
666.74	10390	
666.92	8240.3	
667.11	9938.1	
667.29	9791.3	
667.48	10451	
667.67	9461.6	
667.85	8625.4	
668.04	9837.8	
668.22	9848.7	
668.41	8561.2	
668.6	8805.6	
668.78	9683.5	
668.97	9739.5	
669.15	9017.2	
669.34	7948.2	
669.53	9521.7	
669.71	9940.8	
669.9	8114.1	
670.08	8908.7	
670.27	9604.3	
670.46	10176	
670.64	9031.5	
670.83	9297.8	
671.01	9437.7	
671.2	10123	
671.38	8195.3	
671.57	8196.7	
671.76	10727	
671.94	11398	
672.13	8070.4	
672.31	9158.5	
672.5	10367	
672.69	9622.7	
672.87	8185.7	
673.06	8551	
673.24	10105	
673.43	9701.2	
673.61	9043.8	
673.8	8568.7	
673.98	10365	
674.17	10578	
674.36	9142.8	
674.54	8951.7	
674.73	10075	
674.91	10324	
675.1	8693.6	
675.28	8234.2	
675.47	9884.2	
675.65	10431	
675.84	8417.2	
676.03	8829.5	
676.21	9694.4	
676.4	9102.5	
676.58	9282.1	
676.77	9088.9	
676.95	11125	
677.14	9637.7	
677.32	8260.8	
677.51	7991.2	
677.69	10424	
677.88	9282.1	
678.06	8123.6	
678.25	8191.9	
678.44	9837.8	
678.62	9598.8	
678.81	7881.3	
678.99	8916.2	
679.18	10688	
679.36	10392	
679.55	8538.7	
679.73	9202.9	
679.92	10236	
680.1	9629.5	
680.29	9843.9	
680.47	8464.9	
680.66	9557.2	
680.84	10505	
681.03	7819.1	
681.21	8905.3	
681.4	9667.1	
681.58	9509.4	
681.77	8239	
681.95	8191.2	
682.14	10512	
682.32	10829	
682.51	9142.1	
682.69	7857.4	
682.88	9496.4	
683.06	10073	
683.25	8916.2	
683.43	9279.3	
683.62	9802.3	
683.8	10051	
683.99	9199.5	
684.17	8376.9	
684.36	10748	
684.54	9181.7	
684.73	7182.2	
684.91	7449.8	
685.1	9286.9	
685.28	8786.5	
685.46	8026.7	
685.65	8063.5	
685.83	9830.2	
686.02	9196.7	
686.2	7611.6	
686.39	7799.3	
686.57	8889.5	
686.76	10586	
686.94	7679.2	
687.13	7881.3	
687.31	9808.4	
687.5	9293.7	
687.68	7329.7	
687.86	8665	
688.05	11197	
688.23	8787.8	
688.42	8742.1	
688.6	7973.4	
688.79	9404.3	
688.97	9377.6	
689.16	8418.5	
689.34	7317.4	
689.52	10138	
689.71	10290	
689.89	8661.5	
690.08	7871	
690.26	9586.5	
690.45	9384.5	
690.63	8794	
690.81	7944.1	
691	9187.9	
691.18	9084.8	
691.37	8061.5	
691.55	10246	
691.74	8981.7	
691.92	11237	
692.1	8073.1	
692.29	7580.9	
692.47	9243.2	
692.66	8688.8	
692.84	7808.9	
693.02	8504.5	
693.21	8855.4	
693.39	9293.7	
693.58	8677.2	
693.76	8097.7	
693.94	10772	
694.13	10603	
694.31	8186.4	
694.5	9344.2	
694.68	9500.5	
694.86	9774.3	
695.05	8675.9	
695.23	8977.6	
695.42	10234	
695.6	12504	
695.78	9060.2	
695.97	8123.6	
696.15	10143	
696.34	9426.8	
696.52	7839.6	
696.7	8627.4	
696.89	9752.4	
697.07	9157.2	
697.25	8585.1	
697.44	10139	
697.62	9723.8	
697.81	10033	
697.99	8201.4	
698.17	8833.6	
698.36	8970.8	
698.54	9698.5	
698.72	8551.6	
698.91	7595.2	
699.09	9287.5	
699.28	9190.6	
699.46	8270.4	
699.64	8131.8	
699.83	9101.2	
700.01	10455	
700.19	9007.6	
700.38	7366.5	
700.56	10456	
700.74	9364	
700.93	7973.4	
701.11	8694.3	
701.29	10053	
701.48	11070	
701.66	8106.5	
701.84	8174.8	
702.03	9550.4	
702.21	10229	
702.39	7679.9	
702.58	8329.1	
702.76	9893.1	
702.94	10075	
703.13	7646.4	
703.31	10165	
703.49	9203.6	
703.68	10386	
703.86	7950.2	
704.04	9007.6	
704.23	9787.9	
704.41	10138	
704.59	8091.5	
704.78	9285.5	
704.96	10927	
705.14	10189	
705.33	7980.3	
705.51	8787.2	
705.69	9686.2	
705.87	10442	
706.06	8996.7	
706.24	7892.2	
706.42	9915.6	
706.61	10350	
706.79	8972.2	
706.97	7907.9	
707.16	9423.4	
707.34	10009	
707.52	9035.6	
707.7	8181	
707.89	9596.1	
708.07	9301.2	
708.25	9039.1	
708.44	9159.2	
708.62	9445.2	
708.8	10583	
708.98	9226.1	
709.17	8260.8	
709.35	9899.9	
709.53	9866.4	
709.72	7862.8	
709.9	7973.4	
710.08	10045	
710.26	10109	
710.45	9499.2	
710.63	8249.2	
710.81	9652.1	
710.99	9710.8	
711.18	8738.7	
711.36	8257.4	
711.54	9450.7	
711.72	10166	
711.91	8187.8	
712.09	7552.2	
712.27	9463	
712.45	10078	
712.64	8384.4	
712.82	7205.4	
713	8645.2	
713.18	8880	
713.37	7167.9	
713.55	8288.1	
713.73	9396.1	
713.91	7751.6	
714.1	7064.1	
714.28	6451.1	
714.46	8686.1	
714.64	7843.7	
714.83	5763	
715.01	6606.1	
715.19	7832.8	
715.37	7144	
715.55	6299.6	
715.74	6524.8	
715.92	8827.4	
716.1	6591	
716.28	7744.7	
716.47	6679.1	
716.65	7404.1	
716.83	7524.9	
717.01	6520.7	
717.19	6693.4	
717.38	9759.3	
717.56	7408.9	
717.74	7134.4	
717.92	6274.3	
718.1	8810.4	
718.29	8009.6	
718.47	6099.5	
718.65	6778.8	
718.83	8886.1	
719.01	8745.5	
719.2	5961.6	
719.38	7157	
719.56	8362.5	
719.74	9934	
719.92	6512.5	
720.11	7527.7	
720.29	8225.3	
720.47	7273.7	
720.65	5825.1	
720.83	6654.5	
721.02	7531.1	
721.2	7266.9	
721.38	6715.3	
721.56	5939.1	
721.74	6776.7	
721.92	7045	
722.11	7243	
722.29	6920.1	
722.47	8243.1	
722.65	7405.5	
722.83	5988.3	
723.01	6965.8	
723.2	7449.8	
723.38	7755.7	
723.56	5341.8	
723.74	6614.9	
723.92	6989	
724.1	8189.1	
724.29	5945.3	
724.47	7045	
724.65	7060	
724.83	6975.4	
725.01	5826.5	
725.19	6831.3	
725.37	7089.4	
725.56	7152.9	
725.74	5715.2	
725.92	5935	
726.1	6972.7	
726.28	7314	
726.46	6333.7	
726.64	6062	
726.83	7305.8	
727.01	7617.8	
727.19	5571.8	
727.37	6497.5	
727.55	7376.8	
727.73	7984.3	
727.91	5634	
728.09	5559.6	
728.28	8086.7	
728.46	8782.4	
728.64	6841.6	
728.82	6817.7	
729	9390.6	
729.18	8671.1	
729.36	6060.6	
729.54	8456.7	
729.72	9798.2	
729.91	7983.7	
730.09	8106.5	
730.27	6839.5	
730.45	7919.5	
730.63	8613.1	
730.81	7555.6	
730.99	6550.8	
731.17	9166	
731.35	7673.1	
731.53	7138.5	
731.71	6665.5	
731.9	8918.2	
732.08	9076.6	
732.26	6925.5	
732.44	6508.4	
732.62	9087.5	
732.8	8505.9	
732.98	7376.8	
733.16	6341.9	
733.34	8510	
733.52	7382.9	
733.7	6880.5	
733.88	7257.3	
734.07	8359.1	
734.25	8191.2	
734.43	6415.6	
734.61	8074.5	
734.79	9699.2	
734.97	8073.1	
735.15	6532.3	
735.33	6870.3	
735.51	8359.1	
735.69	8118.8	
735.87	8137.9	
736.05	7107.8	
736.23	8244.4	
736.41	8005.5	
736.59	6989	
736.77	7147.4	
736.95	8828.1	
737.13	8195.3	
737.32	6690.7	
737.5	6937.2	
737.68	9299.1	
737.86	8060.8	
738.04	6470.9	
738.22	8480.6	
738.4	7879.2	
738.58	8120.9	
738.76	7107.8	
738.94	6008.7	
739.12	8039.6	
739.3	7997.3	
739.48	7841.7	
739.66	7529.7	
739.84	8426.7	
740.02	8307.2	
740.2	6212.9	
740.38	6566.5	
740.56	8697.7	
740.74	7655.3	
740.92	7181.5	
741.1	7148.1	
741.28	8098.4	
741.46	7985.7	
741.64	6789.7	
741.82	7276.4	
742	8198	
742.18	8069	
742.36	7041.6	
742.54	6554.9	
742.72	8761.2	
742.9	7447.1	
743.08	7437.5	
743.26	6113.2	
743.44	8987.9	
743.62	8738.7	
743.8	7533.8	
743.98	6561.7	
744.16	8458.1	
744.34	8135.9	
744.52	7413	
744.7	7316	
744.88	8579.6	
745.06	8039.6	
745.24	7476.5	
745.42	7539.9	
745.6	8633.6	
745.78	8348.9	
745.96	6159.6	
746.14	6485.2	
746.32	9369.5	
746.5	8643.1	
746.68	7067.5	
746.86	6503	
747.03	9116.9	
747.21	7329.7	
747.39	7036.8	
747.57	6458.6	
747.75	8213	
747.93	8627.4	
748.11	6460	
748.29	6396.5	
748.47	9850.7	
748.65	7922.9	
748.83	7401.4	
749.01	6959	
749.19	8426	
749.37	7567.9	
749.55	6827.2	
749.73	6933.7	
749.91	8060.1	
750.09	7791.2	
750.26	7038.2	
750.44	6397.9	
750.62	8155	
750.8	7991.9	
750.98	6230.6	
751.16	6567.2	
751.34	8116.1	
751.52	7503.1	
751.7	7428.7	
751.88	6201.9	
752.06	8682	
752.24	8494.3	
752.42	6179.4	
752.59	6493.4	
752.77	8065.6	
752.95	9420	
753.13	7257.3	
753.31	6701	
753.49	7768.6	
753.67	8239	
753.85	6953.5	
754.03	6410.1	
754.21	8388.5	
754.38	8758.5	
754.56	6550.1	
754.74	5488.6	
754.92	7444.4	
755.1	8148.2	
755.28	5189.6	
755.46	4997	
755.64	8245.1	
755.82	8204.8	
755.99	4750.6	
756.17	4799.8	
756.35	5262.6	
756.53	6955.6	
756.71	3545	
756.89	4570.4	
757.07	6560.3	
757.25	5672.2	
757.42	5280.3	
757.6	6365.1	
757.78	6974.7	
757.96	6020.3	
758.14	5171.8	
758.32	4647.5	
758.5	5381.4	
758.67	6189.6	
758.85	4830.5	
759.03	5028.4	
759.21	6309.8	
759.39	5762.3	
759.57	4474.1	
759.75	5758.2	
759.92	7031.4	
760.1	6293.4	
760.28	6242.9	
760.46	6578.1	
760.64	6331.6	
760.82	5962.3	
760.99	6206.7	
761.17	5341.1	
761.35	7256.6	
761.53	6234.7	
761.71	5629.9	
761.89	6365.8	
762.06	7312.6	
762.24	6843.6	
762.42	5860.6	
762.6	5639.4	
762.78	6887.3	
762.96	7663.5	
763.13	6341.9	
763.31	6006	
763.49	7980.9	
763.67	6985.6	
763.85	7000.6	
764.02	7554.3	
764.2	8219.2	
764.38	7380.9	
764.56	5915.2	
764.74	6847.7	
764.91	8328.4	
765.09	7167.9	
765.27	5560.2	
765.45	5355.4	
765.63	8369.4	
765.8	8229.4	
765.98	5060.5	
766.16	5470.1	
766.34	6647	
766.52	6354.2	
766.69	6464.8	
766.87	5261.2	
767.05	7059.3	
767.23	7860.8	
767.41	5622.4	
767.58	5759.6	
767.76	7612.3	
767.94	7765.2	
768.12	5583.4	
768.29	6330.3	
768.47	7062.8	
768.65	7822.6	
768.83	5164.3	
769	6449.7	
769.18	6548	
769.36	7337.9	
769.54	6191	
769.72	5182	
769.89	7588.4	
770.07	7673.1	
770.25	5440.8	
770.43	6859.3	
770.6	8357.8	
770.78	8762.6	
770.96	5606	
771.14	6319.3	
771.31	7406.1	
771.49	6716	
771.67	4696.7	
771.85	4969.1	
772.02	5884.5	
772.2	6712.6	
772.38	5557.5	
772.55	5142.4	
772.73	6926.2	
772.91	6701	
773.09	5522	
773.26	5550.7	
773.44	6852.5	
773.62	6510.5	
773.8	5042.8	
773.97	4692.6	
774.15	6911.2	
774.33	6446.3	
774.5	4876.2	
774.68	5248.3	
774.86	7059.3	
775.04	6511.2	
775.21	4943.8	
775.39	4870.8	
775.57	6649.8	
775.74	7165.8	
775.92	4677.6	
776.1	4560.8	
776.27	6580.8	
776.45	7989.8	
776.63	4830.5	
776.81	4348.5	
776.98	6212.9	
777.16	7354.3	
777.34	4928.8	
777.51	5289.2	
777.69	6149.4	
777.87	5934.3	
778.04	4944.5	
778.22	5588.9	
778.4	5988.3	
778.57	6688.7	
778.75	4111	
778.93	4450.9	
779.1	5685.8	
779.28	5582.8	
779.46	4147.8	
779.64	4640.7	
779.81	6731	
779.99	7593.2	
780.17	5467.4	
780.34	5629.9	
780.52	6163	
780.69	6334.4	
780.87	4851.6	
781.05	4479.6	
781.22	6193.7	
781.4	6268.1	
781.58	4616.1	
781.75	3713	
781.93	6145.3	
782.11	5575.3	
782.28	5474.9	
782.46	4524	
782.64	5334.3	
782.81	6322.1	
782.99	4622.9	
783.17	4535.6	
783.34	6226.5	
783.52	5366.4	
783.69	4795.7	
783.87	5654.4	
784.05	5415.5	
784.22	5465.3	
784.4	5595.1	
784.58	4827.7	
784.75	6386.9	
784.93	5424.4	
785.1	4464.6	
785.28	5076.9	
785.46	6050.4	
785.63	5382.1	
785.81	4405.2	
785.99	4230.4	
786.16	5473.5	
786.34	5892	
786.51	4219.5	
786.69	4676.9	
786.87	5061.2	
787.04	5630.5	
787.22	4091.8	
787.39	5159.5	
787.57	5306.3	
787.75	6531	
787.92	5276.3	
788.1	5200.5	
788.27	5335	
788.45	5148.6	
788.63	4921.3	
788.8	3528	
788.98	5722.7	
789.15	5080.3	
789.33	3686.3	
789.5	4307.6	
789.68	6315.9	
789.86	6466.8	
790.03	4798.4	
790.21	4214.7	
790.38	6221	
790.56	5439.4	
790.73	4035.9	
790.91	4065.2	
791.09	5322	
791.26	6146	
791.44	4287.8	
791.61	3754.6	
791.79	5257.8	
791.96	5380	
792.14	3871.3	
792.32	3411.2	
792.49	5323.4	
792.67	5401.2	
792.84	3846.8	
793.02	3596.2	
793.19	5750.7	
793.37	6505	
793.54	3448.1	
793.72	3817.4	
793.89	6644.3	
794.07	5303.6	
794.25	4435.9	
794.42	3438.5	
794.6	6372.6	
794.77	5926.1	
794.95	4671.4	
795.12	4117.8	
795.3	5233.2	
795.47	5905.7	
795.65	4511.7	
795.82	4272.7	
796	5068	
796.17	7055.9	
796.35	4157.4	
796.52	4872.8	
796.7	5783.5	
796.87	5881.8	
797.05	5119.9	
797.22	5031.2	
797.4	5831.2	
797.57	6882.5	
797.75	4287.8	
797.92	4029.7	
798.1	6139.8	
798.27	5199.1	
798.45	3420.1	
798.62	3707.5	
798.8	5465.3	
798.97	6059.9	
799.15	4542.4	
799.32	4390.2	
799.5	4782	
799.67	5588.2	
799.85	4661.2	
800.02	3397.6	
800.2	5128.1	
800.37	5532.9	
800.55	4803.9	
800.72	3975.8	
800.9	5906.3	
801.07	6459.3	
801.25	5418.9	
801.42	4386.7	
801.6	6076.3	
801.77	5722	
801.95	3868.6	
802.12	3875.4	
802.29	5675.6	
802.47	5682.4	
802.64	4328.7	
802.82	3291.8	
802.99	5131.5	
803.17	6163	
803.34	4252.9	
803.52	3840.6	
803.69	6905.8	
803.87	4956.8	
804.04	4184	
804.21	4403.1	
804.39	6311.8	
804.56	5377.3	
804.74	3554.6	
804.91	4397.7	
805.09	5140.4	
805.26	5253.7	
805.44	3660.4	
805.61	4072.7	
805.78	5829.2	
805.96	5889.3	
806.13	4393.6	
806.31	4770.4	
806.48	4680.3	
806.66	5268.7	
806.83	4373.1	
807	4302.1	
807.18	5104.9	
807.35	5575.3	
807.53	4201.7	
807.7	3357.3	
807.87	6386.2	
808.05	5205.3	
808.22	4670.1	
808.4	3386.7	
808.57	5205.3	
808.74	4805.2	
808.92	3809.2	
809.09	4939.7	
809.27	4998.4	
809.44	5722	
809.61	3432.4	
809.79	3796.9	
809.96	6323.4	
810.14	5982.1	
810.31	3302	
810.48	4090.5	
810.66	5229.1	
810.83	5987.6	
811.01	3876.1	
811.18	4691.2	
811.35	5935	
811.53	4605.9	
811.7	4664.6	
811.87	4386.7	
812.05	5210.7	
812.22	5066.7	
812.39	3818.1	
812.57	3630.4	
812.74	5203.9	
812.92	6974.7	
813.09	4055	
813.26	4500.1	
813.44	6668.2	
813.61	5102.2	
813.78	3410.6	
813.96	4588.1	
814.13	5175.9	
814.3	4860.5	
814.48	4965.6	
814.65	4115.7	
814.82	6472.3	
815	4953.4	
815.17	4147.8	
815.34	5101.5	
815.52	5048.9	
815.69	5119.2	
815.87	4164.2	
816.04	3588.7	
816.21	5177.9	
816.38	4523.3	
816.56	3991.5	
816.73	3756	
816.9	6533.7	
817.08	6007.4	
817.25	3731.4	
817.42	4736.3	
817.6	4727.4	
817.77	5139.7	
817.94	4311	
818.12	3756	
818.29	4930.1	
818.46	7833.5	
818.64	3905.5	
818.81	3645.4	
818.98	4750.6	
819.16	7080.5	
819.33	4541	
819.5	4198.3	
819.67	5597.1	
819.85	6217	
820.02	4132.1	
820.19	4326.7	
820.37	5423	
820.54	4949.9	
820.71	4218.1	
820.88	5284.4	
821.06	5431.9	
821.23	4943.8	
821.4	4272.1	
821.58	4229.1	
821.75	5973.9	
821.92	5300.8	
822.09	3375.1	
822.27	3454.9	
822.44	5188.2	
822.61	5068.7	
822.79	3461.7	
822.96	6601.3	
823.13	5658.5	
823.3	4911.7	
823.48	4045.4	
823.65	3603.7	
823.82	5855.1	
823.99	4738.3	
824.17	5081	
824.34	3601	
824.51	6867.5	
824.68	5305.6	
824.86	3774.4	
825.03	4274.1	
825.2	5203.9	
825.37	6294.8	
825.55	3773.7	
825.72	4176.5	
825.89	6922.8	
826.06	6333	
826.24	4057.7	
826.41	4093.9	
826.58	6329.6	
826.75	5485.1	
826.92	3234.4	
827.1	3564.8	
827.27	8656.1	
827.44	6800.6	
827.61	3877.5	
827.79	4656.4	
827.96	4848.9	
828.13	5228.5	
828.3	4015.4	
828.47	3398.9	
828.65	5324	
828.82	5289.9	
828.99	5241.4	
829.16	4548.5	
829.34	5786.9	
829.51	5578	
829.68	4206.5	
829.85	4371	
830.02	6058.6	
830.2	5843.5	
830.37	3211.9	
830.54	5059.2	
830.71	6563.1	
830.88	5164.3	
831.05	3284.3	
831.23	3832.4	
831.4	6361	
831.57	7167.2	
831.74	3846.8	
831.91	3433.8	
832.09	5378	
832.26	5789.6	
832.43	4029.7	
832.6	4593.6	
832.77	5384.8	
832.94	6265.4	
833.12	3211.9	
833.29	3989.4	
833.46	4985.4	
833.63	7356.3	
833.8	4487.8	
833.97	4028.4	
834.15	5835.3	
834.32	5555.5	
834.49	4173.8	
834.66	4283.7	
834.83	6019.7	
835	4856.4	
835.17	3856.3	
835.35	3877.5	
835.52	5689.9	
835.69	5582.1	
835.86	4074.1	
836.03	3410.6	
836.2	5743.2	
836.37	5345.9	
836.55	4051.6	
836.72	3807.9	
836.89	5300.1	
837.06	5785.5	
837.23	4129.4	
837.4	4469.4	
837.57	6688.7	
837.75	7370	
837.92	3660.4	
838.09	3939.6	
838.26	5263.3	
838.43	6075.6	
838.6	4270	
838.77	3753.2	
838.94	6979.5	
839.11	6667.5	
839.29	4019.5	
839.46	3137.5	
839.63	5752.7	
839.8	5455.8	
839.97	3887.7	
840.14	3893.9	
840.31	5502.9	
840.48	5745.9	
840.65	3210.5	
840.82	3828.3	
841	5770.5	
841.17	5784.8	
841.34	3588	
841.51	3644.7	
841.68	5676.3	
841.85	5440.1	
842.02	3725.9	
842.19	3059	
842.36	5508.4	
842.53	5490.6	
842.7	3595.6	
842.87	4454.3	
843.05	7328.3	
843.22	5441.5	
843.39	3429.7	
843.56	3657	
843.73	5216.9	
843.9	5834.7	
844.07	5896.1	
844.24	4859.8	
844.41	8584.4	
844.58	4987.5	
844.75	3478.8	
844.92	3791.5	
845.09	5709.7	
845.26	5787.6	
845.43	3550.5	
845.6	3732.1	
845.77	5783.5	
845.94	5502.9	
846.12	3975.1	
846.29	4214	
846.46	5978.7	
846.63	5720	
846.8	3590.8	
846.97	4286.4	
847.14	6256.5	
847.31	5706.3	
847.48	4024.9	
847.65	4470.7	
847.82	6027.9	
847.99	5986.2	
848.16	4834.6	
848.33	4486.4	
848.5	5324.7	
848.67	6274.3	
848.84	3550.5	
849.01	3769.6	
849.18	5189.6	
849.35	4849.6	
849.52	4473.4	
849.69	3505.4	
849.86	5989.6	
850.03	6201.9	
850.2	3557.3	
850.37	4376.5	
850.54	6158.2	
850.71	5410.7	
850.88	4298	
851.05	3522.5	
851.22	5692	
851.39	6356.2	
851.56	3375.1	
851.73	4180.6	
851.9	5005.2	
852.07	6007.4	
852.24	3983.3	
852.41	3564.1	
852.58	5581.4	
852.75	5115.1	
852.92	4032.5	
853.09	3483.6	
853.26	5386.2	
853.43	6214.9	
853.6	3540.9	
853.77	3054.9	
853.94	6340.5	
854.11	5066.7	
854.28	5272.8	
854.44	3861.8	
854.61	6774	
854.78	5793	
854.95	3565.5	
855.12	4467.3	
855.29	4594.3	
855.46	6528.9	
855.63	3561.4	
855.8	4997	
855.97	5332.9	
856.14	6095.4	
856.31	5033.2	
856.48	3904.1	
856.65	5242.1	
856.82	4966.3	
856.99	3411.2	
857.16	3824.9	
857.33	7038.9	
857.49	5433.9	
857.66	3824.9	
857.83	4189.5	
858	5381.4	
858.17	5552.7	
858.34	3369.6	
858.51	3581.9	
858.68	6509.1	
858.85	6526.9	
859.02	4112.3	
859.19	4424.3	
859.36	5022.3	
859.52	5123.3	
859.69	3577.8	
859.86	4186	
860.03	5123.3	
860.2	6343.2	
860.37	3208.5	
860.54	3536.8	
860.71	5991	
860.88	6405.4	
861.05	3992.2	
861.21	4480.3	
861.38	6436.8	
861.55	4891.9	
861.72	3229.6	
861.89	3990.1	
862.06	6069.5	
862.23	6619.7	
862.4	3471.3	
862.56	3682.2	
862.73	5890.6	
862.9	5533.6	
863.07	4167.6	
863.24	3228.3	
863.41	4906.3	
863.58	5103.5	
863.75	3613.3	
863.91	4070.7	
864.08	6384.9	
864.25	5952.8	
864.42	4461.8	
864.59	5043.5	
864.76	6696.9	
864.93	5034.6	
865.09	3487	
865.26	3797.6	
865.43	6213.5	
865.6	6640.9	
865.77	3128.6	
865.94	3442.6	
866.1	6367.8	
866.27	5982.1	
866.44	5312.4	
866.61	3349.8	
866.78	5487.2	
866.95	5922	
867.11	3438.5	
867.28	3205.8	
867.45	6074.3	
867.62	5060.5	
867.79	4111.6	
867.96	3552.5	
868.12	5043.5	
868.29	6059.3	
868.46	3098.6	
868.63	4835.3	
868.8	6186.2	
868.97	5931.6	
869.13	3746.4	
869.3	3664.5	
869.47	5917.9	
869.64	6027.2	
869.81	3599.6	
869.97	3563.5	
870.14	5776.6	
870.31	6494.8	
870.48	3482.9	
870.65	4491.9	
870.81	5364.3	
870.98	5314.5	
871.15	4049.5	
871.32	3712.3	
871.48	5881.1	
871.65	6442.9	
871.82	3538.9	
871.99	3899.3	
872.16	6967.2	
872.32	6284.5	
872.49	3577.1	
872.66	3579.8	
872.83	5988.9	
872.99	5189.6	
873.16	4108.2	
873.33	3510.9	
873.5	5570.5	
873.67	5657.9	
873.83	3730	
874	4791.6	
874.17	5675.6	
874.34	6871.6	
874.5	4577.9	
874.67	4474.1	
874.84	6445.6	
875.01	5022.3	
875.17	5021.6	
875.34	3568.9	
875.51	5659.9	
875.68	6795.8	
875.84	4245.4	
876.01	5197.7	
876.18	5971.9	
876.34	5884.5	
876.51	3635.1	
876.68	3492.5	
876.85	5345.2	
877.01	6284.5	
877.18	5096.7	
877.35	3534.1	
877.52	5533.6	
877.68	4942.4	
877.85	3411.9	
878.02	3478.1	
878.18	5505.6	
878.35	5226.4	
878.52	2876	
878.69	4022.2	
878.85	5990.3	
879.02	5935	
879.19	5006.6	
879.35	3825.6	
879.52	5884.5	
879.69	6130.3	
879.86	3044	
880.02	3964.2	
880.19	5510.4	
880.36	6678.4	
880.52	4080.9	
880.69	4205.2	
880.86	6030.6	
881.02	6109.1	
881.19	3920.5	
881.36	3820.8	
881.52	5929.6	
881.69	5214.1	
881.86	3839.9	
882.02	3745.7	
882.19	6218.3	
882.36	7326.9	
882.52	3624.2	
882.69	4995	
882.86	5711.1	
883.02	5581.4	
883.19	4322.6	
883.36	4121.9	
883.52	6032.6	
883.69	6893.5	
883.86	3667.9	
884.02	3196.2	
884.19	6029.2	
884.36	5500.2	
884.52	4061.8	
884.69	3753.9	
884.86	5255.8	
885.02	6569.2	
885.19	4005.1	
885.36	4119.1	
885.52	5544.5	
885.69	5732.9	
885.86	5167.7	
886.02	4576.5	
886.19	5990.3	
886.35	5333.6	
886.52	3941	
886.69	5023.7	
886.85	5056.4	
887.02	6371.9	
887.19	6371.9	
887.35	6371.9	
887.52	6371.9	
887.68	6371.9	
887.85	6371.9	
888.02	6371.9	
888.18	6371.9	
888.35	6371.9	
888.51	6371.9	
888.68	6371.9	
888.85	6371.9	
889.01	6371.9	
889.18	6371.9	
889.35	6371.9	
889.51	6371.9	
889.68	6371.9	
889.84	6371.9	
890.01	6371.9	
890.17	6371.9	
890.34	6371.9	
890.51	6371.9	
890.67	6371.9	
890.84	6371.9	
891	6371.9	
891.17	6371.9	
891.34	6371.9	
891.5	6371.9	
891.67	6371.9	
891.83	6371.9	
892	6371.9	
892.16	6371.9	
892.33	6371.9	
892.5	6371.9	
892.66	6371.9	
892.83	6371.9	
892.99	6371.9	
893.16	6371.9	
893.32	6371.9	
893.49	6371.9	
893.65	6371.9	
893.82	6371.9	
893.99	6371.9	
894.15	6371.9	
894.32	6371.9	
894.48	6371.9	
894.65	6371.9	
894.81	6371.9	
894.98	6371.9	
895.14	6371.9	
895.31	6371.9	
895.47	6371.9	
895.64	6371.9	
895.81	6371.9	
895.97	6371.9	
896.14	6371.9	
896.3	6371.9	
896.47	6371.9	
896.63	6371.9	
896.8	6371.9	
896.96	6371.9	
897.13	6371.9	
897.29	6371.9	
897.46	6371.9	
897.62	6371.9	
897.79	6371.9	
897.95	6371.9	
898.12	6371.9	
898.28	6371.9	
898.45	6371.9	
898.61	6371.9	
898.78	6371.9	
898.94	6371.9	
899.11	6371.9	
899.27	6371.9	
899.44	6371.9	
899.6	6371.9	
899.77	6371.9	
899.93	6371.9	
900.1	6371.9	
900.26	6371.9	
900.43	6371.9	
900.59	6371.9	
900.76	6371.9	
900.92	6371.9	
901.09	6371.9	
901.25	6371.9	
901.42	6371.9	
901.58	6371.9	
901.75	6371.9	
901.91	6371.9	
902.07	6371.9	
902.24	6371.9	
902.4	6371.9	
902.57	6371.9	
902.73	6371.9	
902.9	6371.9	
903.06	6371.9	
903.23	6371.9	
903.39	6371.9	
903.56	6371.9	
903.72	6371.9	
903.88	6371.9	
904.05	6371.9	
904.21	6371.9	
904.38	6371.9	
904.54	6371.9	
904.71	6371.9	
904.87	6371.9	
905.03	6371.9	
905.2	6371.9	
905.36	6371.9	
905.53	6371.9	
905.69	6371.9	
905.86	6371.9	
906.02	6371.9	
906.18	6371.9	
906.35	6371.9	
906.51	6371.9	
906.68	6371.9	
906.84	6371.9	
907.01	6371.9	
907.17	6371.9	
907.33	6371.9	
907.5	6371.9	
907.66	6371.9	
907.83	6371.9	
907.99	6371.9	
908.15	6371.9	
908.32	6371.9	
908.48	6371.9	
908.65	6371.9	
908.81	6371.9	
908.97	6371.9	
909.14	6371.9	
909.3	6371.9	
909.47	6371.9	
909.63	6371.9	
909.79	6371.9	
909.96	6371.9	
910.12	6371.9	
910.28	6371.9	
910.45	6371.9	
910.61	6371.9	
910.78	6371.9	
910.94	6371.9	
911.1	6371.9	
911.27	6371.9	
911.43	6371.9	
911.59	6371.9	
911.76	6371.9	
911.92	6371.9	
912.08	6371.9	
912.25	6371.9	
912.41	6371.9	
912.57	6371.9	
912.74	6371.9	
912.9	6371.9	
913.07	6371.9	
913.23	6371.9	
913.39	6371.9	
913.56	6371.9	
913.72	6371.9	
913.88	6371.9	
914.05	6371.9	
914.21	6371.9	
914.37	6371.9	
914.54	6371.9	
914.7	6371.9	
914.86	6371.9	
915.03	6371.9	
915.19	6371.9	
