Wavelength	Intensities	
nm	a.u.	
179.22	1635.8	
179.44	1639.4	
179.65	1632.2	
179.86	1646.6	
180.08	1615.2	
180.29	3673.4	
180.51	2898.6	
180.72	4843.4	
180.94	5336.3	
181.15	2600.9	
181.37	2570.9	
181.58	4619.5	
181.79	4804.5	
182.01	2650.8	
182.22	2820.1	
182.44	4827.1	
182.65	4208.6	
182.87	3366.9	
183.08	3084.9	
183.29	5048.9	
183.51	4313.7	
183.72	2804.4	
183.94	3844.7	
184.15	4477.5	
184.37	4463.2	
184.58	2536.8	
184.79	3235.8	
185.01	4333.5	
185.22	4846.9	
185.44	3410.6	
185.65	2971.6	
185.86	4566.3	
186.08	4252.3	
186.29	2497.2	
186.51	2609.1	
186.72	4336.2	
186.94	4852.3	
187.15	2985.3	
187.36	3050.1	
187.58	5978.7	
187.79	4596.3	
188.01	3143.6	
188.22	4652.3	
188.43	5337	
188.65	4743.8	
188.86	2662.4	
189.08	3104.7	
189.29	4403.1	
189.5	4383.3	
189.72	2876.7	
189.93	2863.1	
190.15	4984.1	
190.36	5624.4	
190.57	3072	
190.79	2954.5	
191	4911	
191.22	4894	
191.43	3086.3	
191.64	2677.4	
191.86	5079	
192.07	4950.6	
192.29	2721.1	
192.5	2820.1	
192.71	4947.2	
192.93	4425.7	
193.14	2815.3	
193.35	2936.8	
193.57	4326	
193.78	4905.6	
194	2332	
194.21	2806.4	
194.42	4237.2	
194.64	4536.9	
194.85	2986.6	
195.07	3417.4	
195.28	4513	
195.49	4099.4	
195.71	3641.3	
195.92	2657.6	
196.13	4696	
196.35	4704.9	
196.56	3848.1	
196.78	3057.6	
196.99	5584.1	
197.2	5240.1	
197.42	3393.5	
197.63	3054.2	
197.84	4179.2	
198.06	4707.6	
198.27	2845.3	
198.48	3622.2	
198.7	4388.8	
198.91	4502.8	
199.13	3104	
199.34	3019.4	
199.55	4941.1	
199.77	4013.3	
199.98	2812.5	
200.19	3092.4	
200.41	4545.1	
200.62	4272.1	
200.83	3196.2	
201.05	3367.5	
201.26	4596.3	
201.47	4291.9	
201.69	2745	
201.9	2760.7	
202.11	4579.9	
202.33	5165	
202.54	2919	
202.76	3194.1	
202.97	4525.3	
203.18	4658.4	
203.4	3149.8	
203.61	3282.9	
203.82	4599.1	
204.04	4310.3	
204.25	3049.4	
204.46	3007.1	
204.68	4503.5	
204.89	4665.3	
205.1	3020.8	
205.32	2727.2	
205.53	4783.4	
205.74	4928.1	
205.96	2344.9	
206.17	3044.6	
206.38	4756.7	
206.6	4900.8	
206.81	3457	
207.02	2933.4	
207.24	4704.2	
207.45	4951.3	
207.66	2937.5	
207.88	2646.7	
208.09	4696	
208.3	4547.2	
208.52	2759.3	
208.73	2996.9	
208.94	4558.8	
209.15	5027.8	
209.37	2921.8	
209.58	3037.8	
209.79	4923.3	
210.01	4467.3	
210.22	2487.6	
210.43	2565.4	
210.65	4543.1	
210.86	4784.1	
211.07	2934.7	
211.29	2732.7	
211.5	4771.1	
211.71	4489.8	
211.93	2757.9	
212.14	2745.6	
212.35	4478.9	
212.56	4603.8	
212.78	3070.6	
212.99	2595.5	
213.2	5167	
213.42	4435.2	
213.63	2876	
213.84	2951.1	
214.06	4152.6	
214.27	4168.3	
214.48	2854.9	
214.69	3121.8	
214.91	4980	
215.12	4992.9	
215.33	3091.8	
215.55	3421.5	
215.76	5395.7	
215.97	4774.5	
216.18	3011.9	
216.4	3002.3	
216.61	4232.5	
216.82	4801.1	
217.04	2820.1	
217.25	2867.2	
217.46	4898.7	
217.67	4770.4	
217.89	2538.1	
218.1	2635.1	
218.31	4590.9	
218.53	4649.6	
218.74	2981.2	
218.95	2754.5	
219.16	4513	
219.38	5119.9	
219.59	2823.5	
219.8	3263.8	
220.01	5508.4	
220.23	4545.1	
220.44	3442.6	
220.65	2727.9	
220.87	4603.8	
221.08	4971.1	
221.29	2641.9	
221.5	3236.5	
221.72	5746.6	
221.93	4304.8	
222.14	3054.2	
222.35	3519.8	
222.57	4575.8	
222.78	4874.2	
222.99	3013.9	
223.2	3095.8	
223.42	4726	
223.63	4789.5	
223.84	2408.4	
224.05	2352.4	
224.27	5438	
224.48	5059.8	
224.69	3577.8	
224.9	3076	
225.12	4672.8	
225.33	4503.5	
225.54	2581.8	
225.75	2761.3	
225.97	4275.5	
226.18	4489.1	
226.39	2976.4	
226.6	2828.2	
226.82	4392.9	
227.03	4231.8	
227.24	3059.7	
227.45	2615.3	
227.67	4838.7	
227.88	5099.4	
228.09	3428.3	
228.3	3309.5	
228.52	4803.9	
228.73	4575.8	
228.94	2890.4	
229.15	2650.1	
229.36	4544.4	
229.58	4478.9	
229.79	2940.2	
230	3336.1	
230.21	5264	
230.43	4560.8	
230.64	2994.1	
230.85	3084.9	
231.06	4869.4	
231.28	4870.1	
231.49	2625.5	
231.7	3037.8	
231.91	4742.4	
232.12	4551.3	
232.34	2692.4	
232.55	2919.7	
232.76	4953.4	
232.97	4599.7	
233.18	2776.4	
233.4	3030.3	
233.61	4665.3	
233.82	4390.8	
234.03	2880.8	
234.25	2834.4	
234.46	5893.4	
234.67	4553.3	
234.88	3125.2	
235.09	2799.6	
235.31	4647.5	
235.52	4446.8	
235.73	3024.8	
235.94	2626.9	
236.15	4375.1	
236.37	5347.2	
236.58	2758.6	
236.79	2950.4	
237	4762.2	
237.21	4169.7	
237.43	3105.4	
237.64	2590.7	
237.85	7155.6	
238.06	4249.5	
238.27	3126.6	
238.48	2591.4	
238.7	4755.4	
238.91	4441.4	
239.12	2918.4	
239.33	3045.3	
239.54	4274.8	
239.76	4458.4	
239.97	2950.4	
240.18	2968.2	
240.39	5312.4	
240.6	4696.7	
240.82	3080.1	
241.03	2639.1	
241.24	4498.7	
241.45	5036	
241.66	2792.1	
241.87	3194.8	
242.09	5010.7	
242.3	5238.7	
242.51	3188	
242.72	2935.4	
242.93	4836.6	
243.14	4472.1	
243.36	3353.2	
243.57	3510.9	
243.78	5080.3	
243.99	4790.2	
244.2	2966.1	
244.41	2732.7	
244.63	4250.2	
244.84	4670.7	
245.05	3150.5	
245.26	2967.5	
245.47	4752.7	
245.68	4855.7	
245.9	3754.6	
246.11	3072.6	
246.32	4384	
246.53	4712.4	
246.74	4556	
246.95	2565.4	
247.16	4256.4	
247.38	4518.5	
247.59	2572.2	
247.8	2919.7	
248.01	4249.5	
248.22	4539	
248.43	2764.1	
248.64	2949.8	
248.86	4190.8	
249.07	4371	
249.28	2711.5	
249.49	3044	
249.7	4913.8	
249.91	4925.4	
250.12	2581.1	
250.34	2611.8	
250.55	4577.9	
250.76	4524	
250.97	3080.8	
251.18	3119.7	
251.39	4934.9	
251.6	4672.1	
251.81	3075.4	
252.03	3086.3	
252.24	4422.2	
252.45	4822.3	
252.66	2648	
252.87	3229.6	
253.08	4561.5	
253.29	5694	
253.5	2711.5	
253.72	3543	
253.93	4525.3	
254.14	5210	
254.35	2883.5	
254.56	2949.8	
254.77	4660.5	
254.98	4256.4	
255.19	2851.5	
255.41	3464.5	
255.62	4715.1	
255.83	4922	
256.04	3168.9	
256.25	3097.2	
256.46	5304.2	
256.67	4349.2	
256.88	2996.2	
257.09	3301.3	
257.31	4237.2	
257.52	4287.8	
257.73	3723.2	
257.94	2826.9	
258.15	4480.3	
258.36	4543.1	
258.57	3393.5	
258.78	2357.9	
258.99	4862.6	
259.2	4407.9	
259.41	2832.3	
259.63	2910.8	
259.84	5097.4	
260.05	5256.5	
260.26	3510.9	
260.47	2766.1	
260.68	4939	
260.89	4466.6	
261.1	3403.7	
261.31	2760	
261.52	4999.1	
261.73	5177.9	
261.95	3538.9	
262.16	3130	
262.37	4987.5	
262.58	5038.7	
262.79	3534.1	
263	2867.8	
263.21	4543.8	
263.42	4138.9	
263.63	3110.9	
263.84	2912.9	
264.05	4841.4	
264.26	5096	
264.47	3414.6	
264.69	3119.7	
264.9	5040.1	
265.11	4628.4	
265.32	2786.6	
265.53	2779.8	
265.74	4582.7	
265.95	4093.9	
266.16	3036.5	
266.37	3223.5	
266.58	4590.2	
266.79	4433.9	
267	2889.7	
267.21	2675.3	
267.42	4220.2	
267.63	4496	
267.84	2914.3	
268.06	2634.4	
268.27	4843.4	
268.48	4975.2	
268.69	2907.4	
268.9	3293.8	
269.11	5003.9	
269.32	4150.6	
269.53	2924.5	
269.74	2822.1	
269.95	4661.2	
270.16	4130.8	
270.37	2973.7	
270.58	3341.6	
270.79	4462.5	
271	4931.5	
271.21	3123.8	
271.42	2984.6	
271.63	4674.1	
271.84	4223.6	
272.05	2468.5	
272.26	2674.6	
272.47	4530.1	
272.68	4617.5	
272.89	2940.9	
273.11	3181.9	
273.32	4390.8	
273.53	5065.3	
273.74	3174.4	
273.95	3028.3	
274.16	4869.4	
274.37	4531.5	
274.58	3258.3	
274.79	2656.9	
275	4644.8	
275.21	4918.5	
275.42	3775.8	
275.63	3308.8	
275.84	4772.4	
276.05	5651	
276.26	3102	
276.47	2937.5	
276.68	4509.6	
276.89	5199.8	
277.1	3285.6	
277.31	2618.7	
277.52	4662.5	
277.73	4946.5	
277.94	2555.9	
278.15	2846	
278.36	4683	
278.57	4359.4	
278.78	2862.4	
278.99	3136.1	
279.2	4364.2	
279.41	4274.1	
279.62	3644	
279.83	2704	
280.04	5409.4	
280.25	4241.3	
280.46	3619.4	
280.67	2971.6	
280.88	4345.8	
281.09	4965.6	
281.3	3108.8	
281.51	3817.4	
281.72	4347.2	
281.93	4844.8	
282.14	2853.5	
282.35	2994.8	
282.56	4909.7	
282.77	4848.9	
282.98	2874.7	
283.19	3398.3	
283.4	5713.2	
283.61	4483	
283.82	2727.9	
284.03	3538.2	
284.24	4707.6	
284.45	4901.5	
284.66	3587.4	
284.87	3393.5	
285.08	4896	
285.29	4984.1	
285.5	2621.4	
285.71	2914.3	
285.92	4956.8	
286.12	5385.5	
286.33	3586.7	
286.54	2893.8	
286.75	4812.7	
286.96	4408.6	
287.17	2726.5	
287.38	3426.9	
287.59	4362.2	
287.8	4357.4	
288.01	2916.3	
288.22	3223.5	
288.43	4773.1	
288.64	4140.3	
288.85	3337.5	
289.06	3203	
289.27	4822.3	
289.48	4999.1	
289.69	3618.8	
289.9	3280.8	
290.11	5006.6	
290.32	4388.1	
290.53	3373.7	
290.74	3140.2	
290.94	4811.4	
291.15	4830.5	
291.36	2884.2	
291.57	3224.9	
291.78	4407.2	
291.99	4166.3	
292.2	2750.4	
292.41	3129.3	
292.62	4906.9	
292.83	4782.7	
293.04	3829	
293.25	2817.3	
293.46	4431.1	
293.67	4868.7	
293.88	2768.9	
294.09	2773.6	
294.29	4295.3	
294.5	4638.6	
294.71	2985.3	
294.92	2840.5	
295.13	4444.8	
295.34	5328.1	
295.55	2610.5	
295.76	2491	
295.97	4801.8	
296.18	5289.2	
296.39	2680.8	
296.6	2785.9	
296.81	4554.7	
297.01	4838	
297.22	2923.8	
297.43	2848.7	
297.64	4448.9	
297.85	4250.9	
298.06	2402.9	
298.27	2623.4	
298.48	4501.4	
298.69	4367	
298.9	3010.5	
299.11	2783.2	
299.31	4239.3	
299.52	4265.2	
299.73	3229	
299.94	3160.7	
300.15	4595	
300.36	4336.2	
300.57	3134.1	
300.78	3081.5	
300.99	4407.2	
301.2	4556.7	
301.4	2856.9	
301.61	2981.2	
301.82	4732.2	
302.03	4820.2	
302.24	3269.9	
302.45	2693.1	
302.66	4753.3	
302.87	4971.8	
303.08	2824.8	
303.29	3661.1	
303.49	4427	
303.7	4454.3	
303.91	2584.5	
304.12	3512.9	
304.33	4171.7	
304.54	4626.4	
304.75	2852.1	
304.96	2712.9	
305.16	4747.2	
305.37	5210	
305.58	2552.5	
305.79	2620	
306	4767	
306.21	4154	
306.42	2832.3	
306.63	4068.6	
306.83	4422.9	
307.04	4796.3	
307.25	2985.3	
307.46	2998.9	
307.67	4060.4	
307.88	4739.7	
308.09	2844.6	
308.29	2824.8	
308.5	4589.5	
308.71	4939	
308.92	2970.2	
309.13	2743.6	
309.34	4554	
309.55	4498	
309.75	3367.5	
309.96	3179.8	
310.17	4844.1	
310.38	4287.8	
310.59	3261.7	
310.8	3097.9	
311.01	5168.4	
311.21	4504.8	
311.42	2761.3	
311.63	2814.6	
311.84	4416.8	
312.05	4596.3	
312.26	3091.1	
312.46	3297.9	
312.67	4442.7	
312.88	4253.6	
313.09	2747.7	
313.3	2687.6	
313.51	5056.4	
313.71	5266.7	
313.92	2756.6	
314.13	2793.4	
314.34	4693.9	
314.55	4540.3	
314.76	3332	
314.96	2941.6	
315.17	4724.7	
315.38	4689.2	
315.59	2778.4	
315.8	2690.3	
316.01	5025.7	
316.21	5171.1	
316.42	2622.1	
316.63	3026.9	
316.84	4504.2	
317.05	4890.5	
317.26	3178.4	
317.46	2874	
317.67	4534.9	
317.88	4846.2	
318.09	3282.2	
318.3	2620	
318.5	4463.9	
318.71	4714.4	
318.92	4148.5	
319.13	3135.4	
319.34	4863.2	
319.54	4904.2	
319.75	2551.1	
319.96	2456.9	
320.17	4687.1	
320.38	4885.1	
320.58	2547.7	
320.79	2941.6	
321	4997.7	
321.21	4989.5	
321.42	3036.5	
321.62	2566.1	
321.83	4337.6	
322.04	4504.2	
322.25	2912.2	
322.46	2749.1	
322.66	4623.6	
322.87	4758.8	
323.08	3258.3	
323.29	2666.5	
323.5	5283.8	
323.7	4242	
323.91	3568.2	
324.12	3241.9	
324.33	4659.1	
324.53	4760.8	
324.74	3112.2	
324.95	3287.7	
325.16	4211.3	
325.37	4421.6	
325.57	2734.7	
325.78	2811.9	
325.99	4686.4	
326.2	4175.8	
326.4	3784.6	
326.61	2583.9	
326.82	4488.5	
327.03	4597	
327.24	3679.5	
327.44	3506.8	
327.65	4778.6	
327.86	4018.1	
328.07	3132.7	
328.27	2642.6	
328.48	5045.5	
328.69	4227	
328.9	3701.4	
329.1	2885.6	
329.31	4540.3	
329.52	5012.1	
329.73	2798.9	
329.93	2966.8	
330.14	4588.1	
330.35	4710.3	
330.56	4169.7	
330.76	3318.4	
330.97	4417.5	
331.18	4628.4	
331.39	3067.9	
331.59	2571.6	
331.8	4900.1	
332.01	5082.4	
332.22	2798.2	
332.42	3095.2	
332.63	4629.1	
332.84	4298	
333.05	3016.7	
333.25	2830.3	
333.46	4351.3	
333.67	4564.9	
333.88	2865.1	
334.08	3089.7	
334.29	5687.9	
334.5	4915.1	
334.7	2686.9	
334.91	3623.5	
335.12	4234.5	
335.33	4808.6	
335.53	3037.1	
335.74	4130.8	
335.95	4442.7	
336.16	4255	
336.36	2995.5	
336.57	3371.6	
336.78	4209.9	
336.98	4896.7	
337.19	3622.2	
337.4	2942.2	
337.61	5350	
337.81	4199	
338.02	2817.3	
338.23	3417.4	
338.43	5082.4	
338.64	4285	
338.85	2751.8	
339.05	3519.8	
339.26	5144.5	
339.47	4148.5	
339.68	2753.2	
339.88	3812	
340.09	4782.7	
340.3	4833.2	
340.5	3170.9	
340.71	2496.5	
340.92	4273.4	
341.13	4964.3	
341.33	2640.5	
341.54	3163.4	
341.75	4692.6	
341.95	4394.9	
342.16	3007.1	
342.37	3277.4	
342.57	4274.1	
342.78	4462.5	
342.99	3305.4	
343.19	2513.5	
343.4	4844.8	
343.61	4678.9	
343.81	2930	
344.02	2658.9	
344.23	4788.8	
344.43	5012.7	
344.64	3325.2	
344.85	3230.3	
345.06	4717.2	
345.26	4855.7	
345.47	3160.7	
345.68	3586	
345.88	4165.6	
346.09	4876.2	
346.3	3121.1	
346.5	2463.7	
346.71	4504.2	
346.92	4377.2	
347.12	2589.3	
347.33	3062.4	
347.54	4884.4	
347.74	5144.5	
347.95	3064.4	
348.16	2376.3	
348.36	4397	
348.57	4255.7	
348.78	3099.9	
348.98	3278.1	
349.19	4521.9	
349.39	4160.8	
349.6	2598.2	
349.81	2796.8	
350.01	4747.2	
350.22	4287.1	
350.43	3054.2	
350.63	3489.7	
350.84	4502.1	
351.05	4302.8	
351.25	2740.9	
351.46	2586.6	
351.67	4869.4	
351.87	4259.1	
352.08	2897.9	
352.29	3239.9	
352.49	4799.1	
352.7	4614.8	
352.9	2631.6	
353.11	3223.5	
353.32	5206.6	
353.52	4357.4	
353.73	2710.8	
353.94	3321.1	
354.14	4691.9	
354.35	4502.1	
354.55	2755.9	
354.76	2992.8	
354.97	4674.1	
355.17	4455	
355.38	2661	
355.59	3407.8	
355.79	4309.6	
356	4467.3	
356.2	2957.3	
356.41	2692.4	
356.62	4170.3	
356.82	4412	
357.03	3197.6	
357.24	2892.4	
357.44	4312.3	
357.65	4364.9	
357.85	3622.2	
358.06	2984.6	
358.27	4045.4	
358.47	4218.8	
358.68	2588.6	
358.88	3157.3	
359.09	4596.3	
359.3	4817.5	
359.5	3573.7	
359.71	3210.5	
359.91	5053.7	
360.12	4682.3	
360.33	3144.3	
360.53	3497.9	
360.74	4283.7	
360.94	4328.7	
361.15	3312.2	
361.36	2703.3	
361.56	4865.3	
361.77	4426.3	
361.97	3562.8	
362.18	2867.8	
362.38	4803.2	
362.59	4145.8	
362.8	2677.4	
363	2592.7	
363.21	4029.7	
363.41	4473.4	
363.62	3018.7	
363.83	3583.3	
364.03	4636.6	
364.24	5069.4	
364.44	3808.5	
364.65	3650.8	
364.85	4364.9	
365.06	4199	
365.27	2773.6	
365.47	2882.2	
365.68	5009.3	
365.88	4384.7	
366.09	3067.2	
366.29	2842.6	
366.5	4500.8	
366.71	4747.2	
366.91	3667.2	
367.12	3178.4	
367.32	5246.2	
367.53	4672.1	
367.73	3195.5	
367.94	3850.9	
368.14	4709	
368.35	5148.6	
368.56	3140.2	
368.76	2938.8	
368.97	4785.4	
369.17	5759.6	
369.38	2790.7	
369.58	3026.2	
369.79	4065.9	
369.99	4998.4	
370.2	3686.3	
370.4	3016	
370.61	4528.7	
370.82	5384.8	
371.02	3042.6	
371.23	2536.8	
371.43	4113.7	
371.64	4995.7	
371.84	3019.4	
372.05	3745.1	
372.25	5668.8	
372.46	4618.9	
372.66	2988.7	
372.87	2927.9	
373.07	4719.2	
373.28	5729.5	
373.48	3590.1	
373.69	3394.8	
373.9	4427.7	
374.1	4429.1	
374.31	3595.6	
374.51	3194.1	
374.72	4944.5	
374.92	4194.9	
375.13	3613.3	
375.33	3077.4	
375.54	4573.8	
375.74	4233.2	
375.95	3192.8	
376.15	3984	
376.36	4689.8	
376.56	4586.8	
376.77	3201.7	
376.97	3418.1	
377.18	5362.3	
377.38	4678.2	
377.59	3652.2	
377.79	2890.4	
378	4548.5	
378.2	4677.6	
378.41	2904	
378.61	2807.8	
378.82	4891.2	
379.02	4276.8	
379.23	3003	
379.43	3651.5	
379.64	5104.9	
379.84	4637.3	
380.05	2886.3	
380.25	2808.4	
380.46	4739.7	
380.66	4435.2	
380.87	3744.4	
381.07	3932.1	
381.28	5152	
381.48	4737	
381.69	2884.9	
381.89	2966.1	
382.1	4063.2	
382.3	4763.6	
382.51	3592.1	
382.71	4203.1	
382.91	4633.2	
383.12	5044.1	
383.32	3156.6	
383.53	3300.6	
383.73	4625.7	
383.94	4517.8	
384.14	3357.3	
384.35	2714.9	
384.55	4386.7	
384.76	4660.5	
384.96	3179.8	
385.17	3346.4	
385.37	4755.4	
385.58	4152.6	
385.78	3382.6	
385.98	2662.4	
386.19	4398.4	
386.39	4713.1	
386.6	3034.4	
386.8	3167.5	
387.01	4670.7	
387.21	4775.9	
387.42	3412.6	
387.62	3829.7	
387.83	4334.9	
388.03	4490.5	
388.23	3262.4	
388.44	3616	
388.64	4080.9	
388.85	4050.2	
389.05	3327.3	
389.26	3723.9	
389.46	5488.6	
389.67	5018.9	
389.87	3401	
390.07	3386	
390.28	4407.2	
390.48	4211.3	
390.69	2883.5	
390.89	3088.3	
391.1	4356.7	
391.3	4914.4	
391.5	3818.8	
391.71	4193.6	
391.91	4754	
392.12	5290.6	
392.32	3913.7	
392.53	3398.9	
392.73	4427	
392.93	4465.3	
393.14	3195.5	
393.34	3689.8	
393.55	4744.5	
393.75	4399.7	
393.95	3183.2	
394.16	3155.9	
394.36	4332.1	
394.57	4774.5	
394.77	2824.8	
394.98	3058.3	
395.18	4276.2	
395.38	4346.5	
395.59	3652.2	
395.79	2988	
396	4382.7	
396.2	4694.6	
396.4	3452.9	
396.61	3481.5	
396.81	4735.6	
397.02	4263.2	
397.22	3595.6	
397.42	3725.3	
397.63	4755.4	
397.83	4287.1	
398.04	2977.7	
398.24	3211.2	
398.44	4588.8	
398.65	3905.5	
398.85	2797.5	
399.05	2883.5	
399.26	4285	
399.46	5272.2	
399.67	3192.8	
399.87	2953.9	
400.07	4466.6	
400.28	4674.1	
400.48	2940.2	
400.69	3632.4	
400.89	4772.4	
401.09	5168.4	
401.3	2945	
401.5	3655.6	
401.7	5240.1	
401.91	5402.5	
402.11	3236.5	
402.32	3336.8	
402.52	4889.2	
402.72	4818.2	
402.93	3444.7	
403.13	2779.1	
403.33	5400.5	
403.54	4499.4	
403.74	3274	
403.94	3837.9	
404.15	4642.1	
404.35	5349.3	
404.56	3146.4	
404.76	4261.8	
404.96	4879.6	
405.17	4645.5	
405.37	3609.9	
405.57	3408.5	
405.78	4859.8	
405.98	4502.8	
406.18	3112.2	
406.39	3663.1	
406.59	4841.4	
406.79	4487.8	
407	2988.7	
407.2	3024.8	
407.4	5057.8	
407.61	4964.3	
407.81	3001	
408.01	4132.8	
408.22	4013.3	
408.42	5373.9	
408.62	3706.1	
408.83	3347.1	
409.03	4495.3	
409.23	4429.1	
409.44	3332	
409.64	3494.5	
409.84	5052.3	
410.05	5005.9	
410.25	3456.3	
410.45	3293.8	
410.66	4680.3	
410.86	6227.9	
411.06	3559.4	
411.27	3428.3	
411.47	6031.3	
411.67	4711	
411.88	3571.7	
412.08	3633.1	
412.28	5062.6	
412.49	5431.2	
412.69	3381.2	
412.89	3398.3	
413.09	5388.2	
413.3	5248.9	
413.5	3398.9	
413.7	3205.1	
413.91	4794.3	
414.11	5297.4	
414.31	3356.6	
414.52	3589.4	
414.72	5109.7	
414.92	4960.9	
415.12	3411.9	
415.33	3688.4	
415.53	5239.4	
415.73	5336.3	
415.94	3872.7	
416.14	3495.9	
416.34	4673.5	
416.55	4459.8	
416.75	4279.6	
416.95	3878.9	
417.15	5325.4	
417.36	5711.8	
417.56	4407.2	
417.76	3744.4	
417.97	5449	
418.17	5195.7	
418.37	3587.4	
418.57	3485.6	
418.78	5221	
418.98	4981.3	
419.18	4100.7	
419.38	4089.8	
419.59	4905.6	
419.79	4730.1	
419.99	3467.9	
420.2	3683.6	
420.4	5328.8	
420.6	5345.9	
420.8	3417.4	
421.01	3298.6	
421.21	5150	
421.41	5213.4	
421.61	3672.7	
421.82	3523.2	
422.02	4891.2	
422.22	5518.6	
422.42	3990.8	
422.63	3833.8	
422.83	4874.2	
423.03	5688.6	
423.23	3754.6	
423.44	3087.7	
423.64	4936.3	
423.84	4760.8	
424.04	3532.1	
424.25	3196.9	
424.45	5585.5	
424.65	5555.5	
424.85	3110.2	
425.06	3472	
425.26	5745.9	
425.46	4891.2	
425.66	3751.9	
425.87	3582.6	
426.07	5313.8	
426.27	5231.9	
426.47	3687.7	
426.67	3263.1	
426.88	5656.5	
427.08	5276.9	
427.28	3891.8	
427.48	3192.8	
427.69	4655.7	
427.89	4969.7	
428.09	3779.2	
428.29	3231.7	
428.5	5350.7	
428.7	5091.9	
428.9	3161.4	
429.1	3538.2	
429.3	5137.7	
429.51	5245.5	
429.71	3457	
429.91	3981.3	
430.11	5285.1	
430.31	5540.4	
430.52	3571.7	
430.72	3680.9	
430.92	5679	
431.12	5195	
431.32	3276.1	
431.53	3696.6	
431.73	4549.9	
431.93	5558.2	
432.13	3255.6	
432.33	3199.6	
432.54	4877.6	
432.74	5004.6	
432.94	3144.3	
433.14	3888.4	
433.34	5360.2	
433.55	4904.2	
433.75	3760.1	
433.95	4887.8	
434.15	5119.9	
434.35	4803.9	
434.56	3292.5	
434.76	2911.5	
434.96	5018.2	
435.16	5175.9	
435.36	3247.4	
435.56	3997	
435.77	4771.1	
435.97	4924.7	
436.17	4292.5	
436.37	3901.4	
436.57	4727.4	
436.78	4689.2	
436.98	5074.9	
437.18	4296.6	
437.38	5088.5	
437.58	4862.6	
437.78	4341.7	
437.99	3441.3	
438.19	5191.6	
438.39	5799.8	
438.59	3502.7	
438.79	3136.8	
438.99	5690.6	
439.2	4900.1	
439.4	3155.2	
439.6	3124.5	
439.8	4979.3	
440	5764.3	
440.2	3821.5	
440.4	3832.4	
440.61	5380.7	
440.81	5621	
441.01	3250.1	
441.21	3754.6	
441.41	5608.7	
441.61	5287.9	
441.81	4088.4	
442.02	4612.7	
442.22	5891.3	
442.42	5418.2	
442.62	3280.2	
442.82	3416.7	
443.02	5667.4	
443.22	4972.5	
443.43	3513.6	
443.63	3242.6	
443.83	4904.9	
444.03	4868.7	
444.23	3990.8	
444.43	3815.4	
444.63	5184.8	
444.83	5857.2	
445.04	3359.4	
445.24	4170.3	
445.44	5350.7	
445.64	5339.1	
445.84	3951.9	
446.04	3859.1	
446.24	4959.5	
446.44	5563	
446.65	3360.7	
446.85	3607.2	
447.05	5051.7	
447.25	5524.7	
447.45	3753.2	
447.65	3298.6	
447.85	5182	
448.05	4922	
448.25	3911.6	
448.46	3799.7	
448.66	5168.4	
448.86	4893.3	
449.06	3209.2	
449.26	3940.3	
449.46	5378	
449.66	4806.6	
449.86	3654.3	
450.06	3582.6	
450.26	4802.5	
450.47	5246.9	
450.67	3790.1	
450.87	3997.6	
451.07	5481	
451.27	5104.9	
451.47	3307.5	
451.67	3930.1	
451.87	4991.6	
452.07	5747.3	
452.27	3416	
452.47	3400.3	
452.67	5236.7	
452.88	5378.6	
453.08	3106.1	
453.28	4343.7	
453.48	5920	
453.68	5070.8	
453.88	3377.8	
454.08	3521.8	
454.28	5349.3	
454.48	5143.8	
454.68	3907.5	
454.88	4175.1	
455.08	5455.8	
455.28	5161.6	
455.48	3308.8	
455.68	3757.3	
455.89	5786.2	
456.09	5481	
456.29	3553.2	
456.49	3532.1	
456.69	5646.2	
456.89	4973.2	
457.09	3795.6	
457.29	4095.3	
457.49	5321.3	
457.69	5371.8	
457.89	3720.5	
458.09	3287.7	
458.29	5154.1	
458.49	5662	
458.69	3981.9	
458.89	3527.3	
459.09	5729.5	
459.29	5782.1	
459.49	3652.2	
459.69	4169	
459.9	5405.3	
460.1	5085.1	
460.3	3600.3	
460.5	3439.2	
460.7	5455.1	
460.9	5100.8	
461.1	3213.9	
461.3	4001	
461.5	5866.1	
461.7	5635.3	
461.9	3412.6	
462.1	3701.4	
462.3	5223	
462.5	5595.1	
462.7	3484.3	
462.9	3503.4	
463.1	6287.9	
463.3	5990.3	
463.5	3678.8	
463.7	4156.7	
463.9	5400.5	
464.1	5569.8	
464.3	3667.9	
464.5	3893.2	
464.7	5688.6	
464.9	5367	
465.1	4653.7	
465.3	4074.1	
465.5	5907	
465.7	5924.8	
465.9	4223.6	
466.1	4059.1	
466.3	5672.9	
466.5	5694.7	
466.7	4648.9	
466.9	3920.5	
467.1	5735.7	
467.3	6156.9	
467.5	4539.7	
467.7	3855	
467.9	6341.2	
468.1	6903	
468.3	4392.9	
468.5	4592.2	
468.7	5583.4	
468.9	5478.3	
469.1	4048.2	
469.3	4434.5	
469.5	6819.7	
469.7	5269.4	
469.9	4384.7	
470.1	3873.4	
470.3	5595.7	
470.5	5608.7	
470.7	4676.2	
470.9	3970.3	
471.1	5496.7	
471.3	5823.1	
471.5	3866.6	
471.69	5026.4	
471.89	5499.5	
472.09	5043.5	
472.29	4259.8	
472.49	4632.5	
472.69	5162.9	
472.89	5677	
473.09	3822.2	
473.29	3921.2	
473.49	5373.2	
473.69	5365	
473.89	4506.2	
474.09	3985.3	
474.29	6219.7	
474.49	6021.7	
474.69	4420.9	
474.89	4123.9	
475.09	5485.8	
475.29	5453.7	
475.49	3722.5	
475.69	3919.1	
475.88	6522.1	
476.08	5780.1	
476.28	3667.9	
476.48	3944.4	
476.68	6047	
476.88	5839.4	
477.08	4012.7	
477.28	4059.8	
477.48	5663.3	
477.68	5906.3	
477.88	3695.2	
478.08	4003.8	
478.28	6161.7	
478.48	5622.4	
478.67	3932.1	
478.87	3579.8	
479.07	5943.2	
479.27	5675.6	
479.47	4175.1	
479.67	4163.5	
479.87	5963.7	
480.07	6205.3	
480.27	3673.4	
480.47	4730.8	
480.67	5670.1	
480.87	6091.3	
481.06	3844	
481.26	4464.6	
481.46	5709.7	
481.66	5544.5	
481.86	4169	
482.06	4769	
482.26	5487.9	
482.46	6031.3	
482.66	4072.7	
482.86	3773	
483.05	5820.3	
483.25	5327.4	
483.45	5765	
483.65	4111	
483.85	5390.9	
484.05	5568.4	
484.25	4404.5	
484.45	4609.3	
484.65	6089.3	
484.84	6032.6	
485.04	4059.1	
485.24	4024.9	
485.44	6333.7	
485.64	5210	
485.84	3531.4	
486.04	4435.9	
486.24	5530.9	
486.44	5622.4	
486.63	3519.1	
486.83	4173.1	
487.03	5445.5	
487.23	5479	
487.43	3617.4	
487.63	5062.6	
487.83	5539.1	
488.02	5975.3	
488.22	4165.6	
488.42	4501.4	
488.62	6210.8	
488.82	5367.7	
489.02	4015.4	
489.22	3962.8	
489.41	5997.1	
489.61	5816.9	
489.81	3796.3	
490.01	3852.2	
490.21	6019	
490.41	6447	
490.61	3869.3	
490.8	3895.9	
491	5633.3	
491.2	5278.3	
491.4	4296	
491.6	3702.7	
491.8	5730.2	
491.99	5696.8	
492.19	3643.3	
492.39	3833.1	
492.59	5866.1	
492.79	6072.9	
492.99	4359.4	
493.18	3799.7	
493.38	6108.4	
493.58	6457.9	
493.78	4207.2	
493.98	3905.5	
494.18	5842.9	
494.37	5446.2	
494.57	4332.1	
494.77	4226.3	
494.97	5859.2	
495.17	6037.4	
495.37	3919.8	
495.56	4117.8	
495.76	6188.3	
495.96	5952.1	
496.16	4846.2	
496.36	4044.1	
496.55	6124.8	
496.75	5752.1	
496.95	4283	
497.15	4211.3	
497.35	6055.8	
497.54	5967.8	
497.74	4089.1	
497.94	5285.8	
498.14	6462.7	
498.34	6223.8	
498.53	3850.2	
498.73	4339.6	
498.93	5572.5	
499.13	5995.8	
499.33	4259.8	
499.52	4549.9	
499.72	6009.4	
499.92	6097.5	
500.12	4023.6	
500.32	4261.8	
500.51	6088.6	
500.71	5901.6	
500.91	4743.1	
501.11	4451.6	
501.31	6075.6	
501.5	6425.8	
501.7	4930.8	
501.9	4266.6	
502.1	5979.4	
502.29	6311.2	
502.49	4537.6	
502.69	4884.4	
502.89	6122.1	
503.09	6100.9	
503.28	3906.2	
503.48	4018.1	
503.68	5720	
503.88	5578	
504.07	4692.6	
504.27	4336.2	
504.47	5898.2	
504.67	5978.7	
504.86	4597	
505.06	4403.8	
505.26	5791	
505.46	6791.1	
505.65	4313.7	
505.85	4622.9	
506.05	5735	
506.25	6123.4	
506.44	3955.3	
506.64	4586.8	
506.84	5651	
507.04	6212.2	
507.23	4151.2	
507.43	4457.1	
507.63	6931	
507.83	5702.9	
508.02	4480.3	
508.22	4176.5	
508.42	7161.7	
508.62	5687.2	
508.81	4536.9	
509.01	4693.9	
509.21	5636	
509.4	5838.8	
509.6	4443.4	
509.8	4076.8	
510	5823.7	
510.19	6561	
510.39	4039.3	
510.59	4166.3	
510.79	5728.9	
510.98	6429.9	
511.18	4240	
511.38	4218.8	
511.57	6242.9	
511.77	5930.2	
511.97	4693.9	
512.17	4128.7	
512.36	6144.6	
512.56	6059.9	
512.76	4062.5	
512.95	3917.1	
513.15	6361	
513.35	5281	
513.55	4593.6	
513.74	4090.5	
513.94	6182.8	
514.14	5748	
514.33	4739	
514.53	4558.1	
514.73	5848.3	
514.92	5814.2	
515.12	4169	
515.32	4068.6	
515.51	5954.1	
515.71	6167.8	
515.91	5216.9	
516.11	4061.8	
516.3	6997.2	
516.5	5680.4	
516.7	4481.6	
516.89	4849.6	
517.09	5745.9	
517.29	5740.5	
517.48	4683	
517.68	4304.8	
517.88	5492	
518.07	5976.7	
518.27	4681	
518.47	3910.9	
518.66	6402.6	
518.86	5558.2	
519.06	3879.5	
519.25	4192.2	
519.45	5724.8	
519.65	6634.7	
519.84	4556.7	
520.04	5016.2	
520.24	6910.5	
520.43	6051.7	
520.63	4440.7	
520.83	4269.3	
521.02	5716.6	
521.22	6141.9	
521.42	4604.5	
521.61	4903.5	
521.81	5828.5	
522.01	5969.8	
522.2	4541	
522.4	4413.4	
522.6	6216.3	
522.79	5289.9	
522.99	4358.8	
523.18	3931.4	
523.38	5980.8	
523.58	5994.4	
523.77	5038.7	
523.97	3907.5	
524.17	7118.7	
524.36	6518	
524.56	4882.4	
524.76	4517.1	
524.95	5965.1	
525.15	5745.2	
525.34	4298	
525.54	4403.8	
525.74	6115.2	
525.93	5507.7	
526.13	5141.8	
526.33	4349.9	
526.52	6374.6	
526.72	6023.8	
526.91	5161.6	
527.11	4659.1	
527.31	6272.9	
527.5	6552.1	
527.7	4624.3	
527.89	3956	
528.09	5717.2	
528.29	6006	
528.48	4904.9	
528.68	4573.1	
528.87	6283.9	
529.07	6371.2	
529.27	4606.6	
529.46	4231.8	
529.66	6125.5	
529.85	6319.3	
530.05	4149.9	
530.25	4689.2	
530.44	6921.5	
530.64	5945.3	
530.83	4394.3	
531.03	4509.6	
531.23	6402	
531.42	6146.6	
531.62	4978.6	
531.81	4543.1	
532.01	6393.8	
532.21	6512.5	
532.4	4279.6	
532.6	4579.9	
532.79	6944	
532.99	6321.4	
533.18	4623.6	
533.38	5137.7	
533.58	6114.6	
533.77	6508.4	
533.97	4512.4	
534.16	5042.1	
534.36	6772.6	
534.55	6068.8	
534.75	5161.6	
534.95	4569.7	
535.14	6565.1	
535.34	5967.8	
535.53	4417.5	
535.73	5612.1	
535.92	6933.7	
536.12	6082.5	
536.31	4489.1	
536.51	5190.9	
536.71	6431.3	
536.9	6105.7	
537.1	4519.2	
537.29	4604.5	
537.49	6707.1	
537.68	6006.7	
537.88	4896.7	
538.07	4294.6	
538.27	6213.5	
538.46	6787	
538.66	4266.6	
538.86	4599.7	
539.05	6266.1	
539.25	6452.5	
539.44	4752	
539.64	4571.1	
539.83	6133	
540.03	6774.7	
540.22	4409.3	
540.42	4507.6	
540.61	6300.9	
540.81	6355.5	
541	4799.1	
541.2	5231.2	
541.39	6016.2	
541.59	6183.5	
541.78	5128.1	
541.98	4468.7	
542.18	5814.9	
542.37	5806.7	
542.57	4752	
542.76	5050.3	
542.96	5941.2	
543.15	6294.1	
543.35	4799.1	
543.54	4365.6	
543.74	6404.7	
543.93	6232	
544.13	4717.8	
544.32	5489.2	
544.52	6548.7	
544.71	6012.2	
544.91	4210.6	
545.1	4999.8	
545.3	5995.1	
545.49	6248.4	
545.69	4164.2	
545.88	4578.6	
546.08	7020.4	
546.27	6707.8	
546.47	4842.8	
546.66	4429.8	
546.86	6557.6	
547.05	6853.9	
547.24	4650.3	
547.44	4525.3	
547.63	5941.2	
547.83	6575.3	
548.02	4724	
548.22	4873.5	
548.41	5786.9	
548.61	6637.5	
548.8	4460.5	
549	4407.2	
549.19	6249.7	
549.39	6468.9	
549.58	4289.1	
549.78	4590.9	
549.97	6519.4	
550.17	6102.3	
550.36	5203.9	
550.55	5844.2	
550.75	6156.9	
550.94	6727.6	
551.14	4427	
551.33	4713.7	
551.53	5659.9	
551.72	6251.8	
551.92	4719.9	
552.11	4540.3	
552.31	6491.4	
552.5	6328.9	
552.69	5674.2	
552.89	4286.4	
553.08	6376.7	
553.28	6225.1	
553.47	4576.5	
553.67	5286.5	
553.86	6834.8	
554.06	5669.5	
554.25	4050.9	
554.44	4514.4	
554.64	7322.9	
554.83	6898.2	
555.03	4365.6	
555.22	4681	
555.42	6528.9	
555.61	6361	
555.8	4582.7	
556	4684.4	
556.19	5834.7	
556.39	6504.3	
556.58	4595.6	
556.78	4633.9	
556.97	6286.6	
557.16	6056.5	
557.36	5371.1	
557.55	4270.7	
557.75	5630.5	
557.94	6876.4	
558.13	4379.2	
558.33	4251.6	
558.52	6639.5	
558.72	5814.2	
558.91	4371.7	
559.1	4502.1	
559.3	5711.8	
559.49	5588.9	
559.69	4253.6	
559.88	4729.4	
560.07	6259.3	
560.27	6519.4	
560.46	4835.3	
560.66	4954	
560.85	6195.8	
561.04	5614.2	
561.24	4323.9	
561.43	4420.9	
561.63	5787.6	
561.82	5972.6	
562.01	5222.3	
562.21	4724.7	
562.4	6209.4	
562.59	6797.9	
562.79	4559.5	
562.98	4295.3	
563.18	6211.5	
563.37	7079.1	
563.56	4816.1	
563.76	4297.3	
563.95	5833.3	
564.14	5812.8	
564.34	4595	
564.53	4300.1	
564.73	6236.7	
564.92	6310.5	
565.11	4576.5	
565.31	4191.5	
565.5	6627.2	
565.69	5784.1	
565.89	4444.8	
566.08	4564.9	
566.27	6417	
566.47	6660.7	
566.66	5040.7	
566.85	4138.3	
567.05	6265.4	
567.24	5857.9	
567.44	4269.3	
567.63	5198.4	
567.82	6412.9	
568.02	6059.9	
568.21	4354	
568.4	4605.2	
568.6	6094.8	
568.79	5978.7	
568.98	4261.8	
569.18	4257.7	
569.37	6085.9	
569.56	7368.6	
569.76	4553.3	
569.95	5209.3	
570.14	6354.8	
570.34	6191.7	
570.53	4272.7	
570.72	4234.5	
570.91	6649.8	
571.11	6047.7	
571.3	4629.8	
571.49	5191.6	
571.69	6171.2	
571.88	5745.9	
572.07	4834.6	
572.27	4855.7	
572.46	5689.9	
572.65	6498.2	
572.85	4427	
573.04	4533.5	
573.23	6638.1	
573.43	6153.5	
573.62	4301.4	
573.81	4647.5	
574	6247	
574.2	5963	
574.39	4489.1	
574.58	4601.8	
574.78	6724.2	
574.97	6169.2	
575.16	4739	
575.36	4872.8	
575.55	6432	
575.74	6562.4	
575.93	4165.6	
576.13	4880.3	
576.32	6034.7	
576.51	6433.4	
576.71	4550.6	
576.9	5332.9	
577.09	6637.5	
577.28	6254.5	
577.48	4816.8	
577.67	4188.8	
577.86	6059.3	
578.05	6277.7	
578.25	4614.1	
578.44	4604.5	
578.63	6152.1	
578.83	6960.4	
579.02	4261.8	
579.21	5244.2	
579.4	6248.4	
579.6	6045.6	
579.79	4718.5	
579.98	6038.1	
580.17	6530.3	
580.37	6582.9	
580.56	4320.5	
580.75	4823.6	
580.94	6709.8	
581.14	6758.3	
581.33	5087.8	
581.52	4498	
581.71	6430.6	
581.91	6836.8	
582.1	4296.6	
582.29	4696	
582.48	6195.1	
582.68	6155.5	
582.87	4924.7	
583.06	4711	
583.25	6449.1	
583.45	6229.9	
583.64	5041.4	
583.83	5507.7	
584.02	6159.6	
584.21	6411.5	
584.41	5086.5	
584.6	4666.6	
584.79	6287.9	
584.98	6593.8	
585.18	4369	
585.37	4312.3	
585.56	5952.8	
585.75	6440.9	
585.94	4514.4	
586.14	4835.3	
586.33	6883.9	
586.52	6159.6	
586.71	4801.1	
586.91	4596.3	
587.1	5788.2	
587.29	6479.8	
587.48	4618.9	
587.67	4499.4	
587.87	6457.9	
588.06	6353.5	
588.25	5406	
588.44	4938.3	
588.63	6176.7	
588.83	6509.8	
589.02	4658.4	
589.21	4535.6	
589.4	6166.4	
589.59	6096.1	
589.78	4112.3	
589.98	4325.3	
590.17	5831.2	
590.36	6119.3	
590.55	3923.9	
590.74	4513.7	
590.94	7048.4	
591.13	6105.7	
591.32	4343.7	
591.51	4047.5	
591.7	6327.5	
591.89	6092.7	
592.09	4148.5	
592.28	4423.6	
592.47	5552.7	
592.66	6826.6	
592.85	4096.6	
593.05	4276.8	
593.24	6017.6	
593.43	6563.7	
593.62	4338.3	
593.81	4592.9	
594	6068.8	
594.19	6163	
594.39	4266.6	
594.58	4142.4	
594.77	6163.7	
594.96	6575.3	
595.15	4249.5	
595.34	4587.4	
595.54	6207.4	
595.73	5662	
595.92	3845.4	
596.11	4481.6	
596.3	6546.7	
596.49	5765	
596.68	4448.2	
596.88	4660.5	
597.07	6269.5	
597.26	5584.1	
597.45	4083	
597.64	4897.4	
597.83	5768.4	
598.02	6234	
598.22	4078.9	
598.41	4600.4	
598.6	6143.2	
598.79	5715.9	
598.98	4167.6	
599.17	4758.8	
599.36	6055.2	
599.55	6784.2	
599.74	5383.4	
599.94	5295.4	
600.13	6408.1	
600.32	5666.7	
600.51	4016.1	
600.7	4162.8	
600.89	6739.2	
601.08	6929	
601.27	4012	
601.47	4547.9	
601.66	6277.7	
601.85	6707.8	
602.04	4369	
602.23	4498	
602.42	5752.1	
602.61	6102.9	
602.8	4306.9	
602.99	4193.6	
603.18	5960.3	
603.37	6087.9	
603.57	4568.3	
603.76	4999.1	
603.95	6621.8	
604.14	6190.3	
604.33	4283.7	
604.52	4473.4	
604.71	6120.7	
604.9	5786.2	
605.09	4879.6	
605.28	4687.8	
605.47	6528.9	
605.66	6207.4	
605.86	4600.4	
606.05	4303.5	
606.24	6485.2	
606.43	5457.8	
606.62	4465.3	
606.81	4972.5	
607	6389	
607.19	5856.5	
607.38	4022.9	
607.57	4192.2	
607.76	5771.2	
607.95	5374.6	
608.14	4546.5	
608.33	4906.3	
608.52	5780.7	
608.72	6268.8	
608.91	4001.7	
609.1	3958.7	
609.29	5865.4	
609.48	5509.7	
609.67	4599.7	
609.86	4063.9	
610.05	5653.8	
610.24	5816.2	
610.43	3982.6	
610.62	3661.8	
610.81	6578.1	
611	6389	
611.19	4034.5	
611.38	4515.1	
611.57	6085.2	
611.76	6818.4	
611.95	3896.6	
612.14	3889.1	
612.33	5801.2	
612.52	5637.4	
612.71	4268	
612.9	3794.2	
613.09	5268.1	
613.28	6861.4	
613.47	4133.5	
613.66	4696.7	
613.85	6001.2	
614.04	5616.2	
614.24	4146.5	
614.43	3599	
614.62	6072.2	
614.81	6006	
615	4516.5	
615.19	4467.3	
615.38	5619.6	
615.57	5853.1	
615.76	4368.3	
615.95	5018.2	
616.14	6067.4	
616.33	5903.6	
616.52	4655.7	
616.71	4662.5	
616.9	6038.1	
617.09	6029.2	
617.28	4246.8	
617.47	4935.6	
617.66	5507.7	
617.85	5470.1	
618.04	4708.3	
618.22	4405.9	
618.41	5723.4	
618.6	6283.9	
618.79	4371.7	
618.98	4156	
619.17	6402	
619.36	5353.4	
619.55	4326.7	
619.74	4304.1	
619.93	5999.9	
620.12	5573.2	
620.31	4622.9	
620.5	4700.8	
620.69	6509.8	
620.88	6643.6	
621.07	5149.3	
621.26	4485.1	
621.45	6089.3	
621.64	5984.2	
621.83	4638.6	
622.02	4085	
622.21	6206	
622.4	5991.7	
622.59	4958.1	
622.78	4872.8	
622.97	5788.2	
623.16	6374	
623.35	4584.7	
623.54	4093.2	
623.72	5803.9	
623.91	5905	
624.1	4788.2	
624.29	3914.4	
624.48	6583.5	
624.67	6166.4	
624.86	4663.9	
625.05	4096.6	
625.24	6745.3	
625.43	5659.9	
625.62	5717.9	
625.81	4217.5	
626	6351.4	
626.19	5852.4	
626.38	4676.9	
626.56	4336.2	
626.75	5686.5	
626.94	6172.6	
627.13	4687.1	
627.32	3926.6	
627.51	6227.2	
627.7	6874.3	
627.89	3985.3	
628.08	4748.6	
628.27	5597.1	
628.46	5799.2	
628.65	4229.1	
628.83	3904.1	
629.02	6204.7	
629.21	5616.2	
629.4	4418.2	
629.59	4604.5	
629.78	5579.3	
629.97	6257.9	
630.16	4617.5	
630.35	4258.4	
630.54	6715.3	
630.72	6444.3	
630.91	4251.6	
631.1	4644.1	
631.29	5994.4	
631.48	6017.6	
631.67	4693.3	
631.86	4358.8	
632.05	5844.9	
632.24	5849	
632.42	4098	
632.61	4513.7	
632.8	5899.5	
632.99	5567.1	
633.18	4521.9	
633.37	4709.6	
633.56	6081.1	
633.75	6027.2	
633.93	4515.8	
634.12	4412.7	
634.31	6673	
634.5	6298.9	
634.69	4360.8	
634.88	4765.6	
635.07	6006	
635.25	6284.5	
635.44	4962.2	
635.63	5066.7	
635.82	5778.7	
636.01	5367	
636.2	4931.5	
636.39	4558.8	
636.57	6611.5	
636.76	6281.8	
636.95	4302.8	
637.14	5182	
637.33	6152.8	
637.52	6559.6	
637.7	4125.3	
637.89	4820.9	
638.08	5868.8	
638.27	6778.8	
638.46	4719.2	
638.65	5009.3	
638.83	6770.6	
639.02	5748.6	
639.21	4720.6	
639.4	5014.1	
639.59	6038.8	
639.78	5823.1	
639.96	4269.3	
640.15	4284.4	
640.34	6025.8	
640.53	6012.2	
640.72	4136.9	
640.91	4253.6	
641.09	5627.8	
641.28	6435.4	
641.47	4300.7	
641.66	4829.8	
641.85	5995.1	
642.03	6217	
642.22	4700.1	
642.41	4425	
642.6	5679.7	
642.79	5294.7	
642.97	4291.2	
643.16	4666	
643.35	5643.5	
643.54	5581.4	
643.73	4248.9	
643.91	4674.8	
644.1	5505.6	
644.29	5882.4	
644.48	4284.4	
644.67	4308.2	
644.85	5520	
645.04	5870.2	
645.23	4063.9	
645.42	4325.3	
645.6	5613.5	
645.79	6370.5	
645.98	4149.2	
646.17	3585.3	
646.36	5513.8	
646.54	5771.9	
646.73	4834.6	
646.92	4036.5	
647.11	5562.3	
647.29	6187.6	
647.48	4074.8	
647.67	3925.3	
647.86	6438.1	
648.05	6285.2	
648.23	4197	
648.42	5056.4	
648.61	6040.1	
648.8	5742.5	
648.98	4053.6	
649.17	4162.8	
649.36	5516.5	
649.55	5182	
649.73	4093.2	
649.92	4530.8	
650.11	5404.6	
650.3	5729.5	
650.48	4196.3	
650.67	4052.2	
650.86	5879	
651.05	5140.4	
651.23	4113	
651.42	4078.2	
651.61	5536.3	
651.79	5493.3	
651.98	4265.2	
652.17	4000.4	
652.36	5838.1	
652.54	5152	
652.73	4016.1	
652.92	4015.4	
653.11	5865.4	
653.29	5841.5	
653.48	3575.1	
653.67	4248.9	
653.85	5680.4	
654.04	6354.8	
654.23	4336.9	
654.42	4100.7	
654.6	5400.5	
654.79	5816.2	
654.98	3776.5	
655.16	4149.2	
655.35	5194.3	
655.54	5029.8	
655.73	3845.4	
655.91	3800.3	
656.1	5744.6	
656.29	5044.8	
656.47	3472	
656.66	4622.9	
656.85	5302.2	
657.03	5310.4	
657.22	3856.3	
657.41	3902.7	
657.59	5287.9	
657.78	5203.9	
657.97	3616	
658.16	4019.5	
658.34	5751.4	
658.53	6053.1	
658.72	4633.2	
658.9	4960.2	
659.09	5489.9	
659.28	5478.3	
659.46	3896.6	
659.65	3861.8	
659.84	5239.4	
660.02	5692	
660.21	3876.1	
660.4	3771	
660.58	5912.5	
660.77	5438.7	
660.96	4214.7	
661.14	3552.5	
661.33	6220.4	
661.52	6161.7	
661.7	3566.9	
661.89	5754.1	
662.08	5211.4	
662.26	4855.1	
662.45	3776.5	
662.64	3878.9	
662.82	5758.2	
663.01	5150.6	
663.2	3825.6	
663.38	4295.3	
663.57	5588.2	
663.75	5549.3	
663.94	4067.3	
664.13	4825	
664.31	5227.1	
664.5	5636.7	
664.69	4222.2	
664.87	4471.4	
665.06	5090.6	
665.25	5538.4	
665.43	4724	
665.62	4726.7	
665.8	5711.8	
665.99	5313.8	
666.18	4034.5	
666.36	4053.6	
666.55	5724.8	
666.74	5629.9	
666.92	3873.4	
667.11	4863.2	
667.29	5403.9	
667.48	5646.2	
667.67	4566.3	
667.85	3978.5	
668.04	5284.4	
668.22	5253.7	
668.41	4124.6	
668.6	4314.4	
668.78	5149.3	
668.97	5392.3	
669.15	4302.1	
669.34	3691.8	
669.53	5224.4	
669.71	5352.7	
669.9	3764.2	
670.08	4203.8	
670.27	5109.7	
670.46	5563	
670.64	4319.2	
670.83	4474.8	
671.01	5018.2	
671.2	5452.4	
671.38	3831.1	
671.57	3787.4	
671.76	5955.5	
671.94	6219	
672.13	3689.8	
672.31	4458.4	
672.5	5717.9	
672.69	5196.4	
672.87	3839.9	
673.06	4005.8	
673.24	5567.1	
673.43	5268.7	
673.61	4317.1	
673.8	4032.5	
673.98	5653.1	
674.17	5710.4	
674.36	4405.2	
674.54	4284.4	
674.73	5369.8	
674.91	5727.5	
675.1	4013.3	
675.28	3844	
675.47	5380	
675.65	5664	
675.84	4140.3	
676.03	4192.2	
676.21	5291.3	
676.4	4833.2	
676.58	4538.3	
676.77	4286.4	
676.95	6225.1	
677.14	5217.5	
677.32	3799.7	
677.51	3665.9	
677.69	5734.3	
677.88	5057.8	
678.06	3803.8	
678.25	3880.9	
678.44	5408	
678.62	5160.9	
678.81	3659.7	
678.99	4190.1	
679.18	5961	
679.36	5649.7	
679.55	3937.6	
679.73	4273.4	
679.92	5674.2	
680.1	5232.6	
680.29	4817.5	
680.47	3975.8	
680.66	5195.7	
680.84	5681.1	
681.03	3510.2	
681.21	4319.8	
681.4	5218.2	
681.58	5173.9	
681.77	3824.9	
681.95	3775.1	
682.14	5793.7	
682.32	6014.2	
682.51	4463.9	
682.69	3631	
682.88	5219.6	
683.06	5549.3	
683.25	4277.5	
683.43	4559.5	
683.62	5472.9	
683.8	5585.5	
683.99	4614.8	
684.17	4155.3	
684.36	6156.2	
684.54	5298.8	
684.73	3695.2	
684.91	3831.1	
685.1	5546.6	
685.28	5137.7	
685.46	4121.2	
685.65	4203.1	
685.83	5671.5	
686.02	5317.2	
686.2	3855.6	
686.39	3878.9	
686.57	5130.8	
686.76	6008.7	
686.94	3805.8	
687.13	3915	
687.31	5576.6	
687.5	5287.9	
687.68	3596.9	
687.86	4294.6	
688.05	6459.3	
688.23	4941.7	
688.42	4442	
688.6	3771	
688.79	5294.7	
688.97	5209.3	
689.16	4194.2	
689.34	3430.3	
689.52	5656.5	
689.71	5849	
689.89	4290.5	
690.08	3857.7	
690.26	5417.6	
690.45	5186.8	
690.63	4385.4	
690.81	3930.7	
691	5411.4	
691.18	5124.7	
691.37	4037.2	
691.55	5524.7	
691.74	5163.6	
691.92	6521.4	
692.1	4034.5	
692.29	3762.8	
692.47	5318.6	
692.66	4861.9	
692.84	3822.2	
693.02	4191.5	
693.21	4902.2	
693.39	5313.8	
693.58	4184.7	
693.76	3842	
693.94	5971.2	
694.13	5892	
694.31	3859.1	
694.5	4504.2	
694.68	5132.9	
694.86	5386.8	
695.05	4044.7	
695.23	4141.7	
695.42	5621.7	
695.6	6989	
695.78	4354.7	
695.97	3920.5	
696.15	5623	
696.34	5248.3	
696.52	3732.8	
696.7	4265.2	
696.89	5489.2	
697.07	5094.7	
697.25	4223.6	
697.44	5098.8	
697.62	5421	
697.81	5601.9	
697.99	4033.1	
698.17	4362.9	
698.36	5121.3	
698.54	5587.5	
698.72	4216.8	
698.91	3584.6	
699.09	5222.3	
699.28	5083.7	
699.46	4044.1	
699.64	3936.9	
699.83	5132.9	
700.01	5750.7	
700.19	4483	
700.38	3385.3	
700.56	5823.1	
700.74	5120.6	
700.93	3680.9	
701.11	4238.6	
701.29	5537	
701.48	6130.9	
701.66	3737.5	
701.84	3824.2	
702.03	5252.4	
702.21	5664.7	
702.39	3545.7	
702.58	3917.8	
702.76	5500.8	
702.94	5541.1	
703.13	3558	
703.31	5091.9	
703.49	5098.1	
703.68	5587.5	
703.86	3679.5	
704.04	4321.2	
704.23	5407.3	
704.41	5625.1	
704.59	3790.8	
704.78	4553.3	
704.96	6407.4	
705.14	5588.2	
705.33	3661.1	
705.51	4167.6	
705.69	5150.6	
705.87	5759.6	
706.06	4337.6	
706.24	3568.2	
706.42	5427.8	
706.61	5575.3	
706.79	4334.9	
706.97	3558.7	
707.16	5113.1	
707.34	5513.1	
707.52	4355.3	
707.7	3750.5	
707.89	5033.2	
708.07	4937	
708.25	4270	
708.44	4387.4	
708.62	5061.9	
708.8	5835.3	
708.98	4541	
709.17	3834.5	
709.35	5359.5	
709.53	5373.2	
709.72	3601	
709.9	3689.1	
710.08	5600.5	
710.26	5576.6	
710.45	4751.3	
710.63	3848.1	
710.81	5280.3	
710.99	5356.8	
711.18	4249.5	
711.36	3889.1	
711.54	5272.8	
711.72	5703.6	
711.91	3932.1	
712.09	3657.7	
712.27	5404.6	
712.45	5706.3	
712.64	4191.5	
712.82	3521.8	
713	5040.1	
713.18	5156.1	
713.37	3631	
713.55	4350.6	
713.73	5715.9	
713.91	4836.6	
714.1	3824.9	
714.28	3570.3	
714.46	5554.8	
714.64	4987.5	
714.83	3289.7	
715.01	3719.1	
715.19	5141.1	
715.37	4688.5	
715.55	3541.6	
715.74	3685.7	
715.92	5641.5	
716.1	4343.7	
716.28	4574.5	
716.47	3862.5	
716.65	4970.4	
716.83	4832.5	
717.01	3765.5	
717.19	3734.1	
717.38	6198.5	
717.56	4688.5	
717.74	3924.6	
717.92	3382.6	
718.1	5453.7	
718.29	4905.6	
718.47	3089	
718.65	3487	
718.83	5350.7	
719.01	5279.7	
719.2	2947	
719.38	3723.9	
719.56	5075.5	
719.74	6092.7	
719.92	3512.9	
720.11	4188.8	
720.29	5191.6	
720.47	4621.6	
720.65	3201.7	
720.83	3700	
721.02	4900.8	
721.2	4731.5	
721.38	3847.5	
721.56	3300	
721.74	4347.8	
721.92	4465.3	
722.11	4181.3	
722.29	3939.6	
722.47	5321.3	
722.65	4805.2	
722.83	3353.9	
723.01	3889.8	
723.2	4832.5	
723.38	5066.7	
723.56	2929.3	
723.74	3730	
723.92	4504.2	
724.1	5196.4	
724.29	3293.8	
724.47	4037.2	
724.65	4636.6	
724.83	4446.1	
725.01	3226.9	
725.19	3747.1	
725.37	4551.3	
725.56	4501.4	
725.74	3166.8	
725.92	3312.9	
726.1	4491.9	
726.28	4780.6	
726.46	3542.3	
726.64	3383.9	
726.83	4789.5	
727.01	4829.1	
727.19	3152.5	
727.37	3725.3	
727.55	4795	
727.73	5133.6	
727.91	3117.7	
728.09	3023.5	
728.28	5226.4	
728.46	5250.3	
728.64	3690.4	
728.82	3622.2	
729	5810.8	
729.18	5351.3	
729.36	3083.6	
729.54	4638.6	
729.72	5940.5	
729.91	4832.5	
730.09	4436.6	
730.27	3532.1	
730.45	4792.2	
730.63	5169.8	
730.81	3890.5	
730.99	3264.5	
731.17	5572.5	
731.35	4560.1	
731.53	3610.6	
731.71	3425.6	
731.9	5340.4	
732.08	5400.5	
732.26	3655.6	
732.44	3350.5	
732.62	5387.5	
732.8	5148.6	
732.98	3882.3	
733.16	3240.6	
733.34	5216.2	
733.52	4294.6	
733.7	3620.1	
733.88	3713.7	
734.07	4984.8	
734.25	4889.9	
734.43	3213.9	
734.61	4169.7	
734.79	5830.6	
734.97	4827.7	
735.15	3342.3	
735.33	3515.7	
735.51	5109	
735.69	4773.1	
735.87	4199	
736.05	3595.6	
736.23	4934.2	
736.41	4685.1	
736.59	3542.3	
736.77	3631	
736.95	5194.3	
737.13	4776.5	
737.32	3381.9	
737.5	3411.2	
737.68	5596.4	
737.86	4773.1	
738.04	3179.8	
738.22	4367.6	
738.4	4673.5	
738.58	4849.6	
738.76	3599	
738.94	2975	
739.12	4775.2	
739.3	4671.4	
739.48	3982.6	
739.66	3786.7	
739.84	4919.9	
740.02	4863.9	
740.2	3021.4	
740.38	3234.4	
740.56	5120.6	
740.74	4281.6	
740.92	3711.6	
741.1	3560.7	
741.28	4838.7	
741.46	4654.4	
741.64	3381.9	
741.82	3765.5	
742	4833.2	
742.18	4772.4	
742.36	3536.8	
742.54	3263.1	
742.72	5234.6	
742.9	4324.6	
743.08	3702.7	
743.26	2951.1	
743.44	5307	
743.62	5226.4	
743.8	3877.5	
743.98	3265.8	
744.16	5056.4	
744.34	4745.1	
744.52	3777.8	
744.7	3700.7	
744.88	5153.4	
745.06	4786.8	
745.24	3846.8	
745.42	3891.1	
745.6	5208	
745.78	5055.8	
745.96	3136.8	
746.14	3330	
746.32	5646.9	
746.5	5157.5	
746.68	3609.2	
746.86	3284.3	
747.03	5362.9	
747.21	4402.5	
747.39	3633.8	
747.57	3260.4	
747.75	4924	
747.93	5151.3	
748.11	3239.2	
748.29	3200.3	
748.47	5986.2	
748.65	4700.1	
748.83	3796.9	
749.01	3563.5	
749.19	5059.2	
749.37	4483.7	
749.55	3609.2	
749.73	3549.8	
749.91	4917.9	
750.09	4761.5	
750.26	3527.3	
750.44	3193.5	
750.62	4883	
750.8	4798.4	
750.98	3141.6	
751.16	3364.8	
751.34	4951.3	
751.52	4516.5	
751.7	3861.1	
751.88	3160.7	
752.06	5301.5	
752.24	5013.4	
752.42	3076	
752.59	3347.1	
752.77	4857.1	
752.95	5656.5	
753.13	3788.1	
753.31	3383.9	
753.49	4639.3	
753.67	4895.3	
753.85	3604.4	
754.03	3278.8	
754.21	5145.2	
754.38	5380	
754.56	3407.8	
754.74	2816	
754.92	4627	
755.1	5090.6	
755.28	2854.9	
755.46	2932.7	
755.64	5713.2	
755.82	5793.7	
755.99	3198.9	
756.17	3289	
756.35	4081.6	
756.53	5151.3	
756.71	2489.6	
756.89	3108.1	
757.07	4798.4	
757.25	4313	
757.42	3418.7	
757.6	4010.6	
757.78	4909.7	
757.96	4252.3	
758.14	3244	
758.32	2912.9	
758.5	3918.4	
758.67	4464.6	
758.85	3130	
759.03	3101.3	
759.21	4663.2	
759.39	4277.5	
759.57	2805.7	
759.75	3550.5	
759.92	5144.5	
760.1	4678.2	
760.28	3800.3	
760.46	3930.1	
760.64	4458.4	
760.82	4313.7	
760.99	3707.5	
761.17	3157.3	
761.35	4986.1	
761.53	4272.7	
761.71	3302.7	
761.89	3690.4	
762.06	4855.1	
762.24	4489.1	
762.42	3271.3	
762.6	3063.8	
762.78	4507.6	
762.96	4924	
763.13	3532.1	
763.31	3230.3	
763.49	4971.1	
763.67	4450.2	
763.85	3839.9	
764.02	4234.5	
764.2	5218.9	
764.38	4586.8	
764.56	3244.7	
764.74	3732.8	
764.91	5295.4	
765.09	4531.5	
765.27	3082.2	
765.45	2854.2	
765.63	5390.3	
765.8	5187.5	
765.98	2749.1	
766.16	2932	
766.34	4255.7	
766.52	4087.1	
766.69	3508.9	
766.87	2851.5	
767.05	4584	
767.23	5042.8	
767.41	3065.8	
767.58	3272	
767.76	4932.2	
767.94	4981.3	
768.12	3106.8	
768.29	3601.7	
768.47	4588.1	
768.65	5126.7	
768.83	2828.9	
769	3599	
769.18	4328	
769.36	4769	
769.54	3678.2	
769.72	2887.6	
769.89	5093.3	
770.07	5016.2	
770.25	3199.6	
770.43	3961.5	
770.6	5513.1	
770.78	5722.7	
770.96	3284.9	
771.14	3597.6	
771.31	5002.5	
771.49	4505.5	
771.67	2738.1	
771.85	2886.3	
772.02	3995.6	
772.2	4464.6	
772.38	3467.9	
772.55	2998.2	
772.73	4764.3	
772.91	4543.1	
773.09	3286.3	
773.26	3392.1	
773.44	4763.6	
773.62	4532.2	
773.8	2992.8	
773.97	2798.9	
774.15	4687.8	
774.33	4518.5	
774.5	2925.9	
774.68	3151.8	
774.86	4675.5	
775.04	4556	
775.21	3007.8	
775.39	2922.5	
775.57	4696	
775.74	4903.5	
775.92	2845.3	
776.1	2772.9	
776.27	4672.8	
776.45	5474.9	
776.63	2950.4	
776.81	2673.3	
776.98	4475.5	
777.16	5180.7	
777.34	3017.3	
777.51	3223.5	
777.69	4470	
777.87	4274.8	
778.04	3134.1	
778.22	3467.9	
778.4	4332.1	
778.57	4794.3	
778.75	2653.5	
778.93	2832.3	
779.1	4256.4	
779.28	4076.8	
779.46	2689	
779.64	2902.7	
779.81	4875.5	
779.99	5447.6	
780.17	3449.5	
780.34	3537.5	
780.52	4540.3	
780.69	4625	
780.87	3149.1	
781.05	2885.6	
781.22	4587.4	
781.4	4611.3	
781.58	3020.8	
781.75	2458.2	
781.93	4654.4	
782.11	4093.9	
782.28	3601	
782.46	3001.6	
782.64	4070.7	
782.81	4730.8	
782.99	3084.9	
783.17	3056.9	
783.34	4605.2	
783.52	4243.4	
783.69	3107.5	
783.87	3675.4	
784.05	4272.1	
784.22	4192.2	
784.4	3717.7	
784.58	3274	
784.75	4920.6	
784.93	4302.8	
785.1	3006.4	
785.28	3384.6	
785.46	4722.6	
785.63	4159.4	
785.81	3048.1	
785.99	2890.4	
786.16	4360.8	
786.34	4536.3	
786.51	2928.6	
786.69	3267.2	
786.87	3996.3	
787.04	4315.8	
787.22	2843.3	
787.39	3442.6	
787.57	4153.3	
787.75	4913.1	
787.92	3648.8	
788.1	3504.1	
788.27	4206.5	
788.45	4002.4	
788.63	3377.1	
788.8	2467.8	
788.98	4526	
789.15	3915	
789.33	2553.1	
789.5	2962	
789.68	4824.3	
789.86	4849.6	
790.03	3280.8	
790.21	2932	
790.38	4934.9	
790.56	4317.1	
790.73	2884.2	
790.91	2871.3	
791.09	4253.6	
791.26	4674.8	
791.44	3050.1	
791.61	2649.4	
791.79	4257	
791.96	4176.5	
792.14	2773.6	
792.32	2484.2	
792.49	4225	
792.67	4261.1	
792.84	2833.7	
793.02	2686.3	
793.19	4615.4	
793.37	4950.6	
793.54	2520.4	
793.72	2684.9	
793.89	4961.5	
794.07	4175.1	
794.25	3147.7	
794.42	2566.8	
794.6	4889.9	
794.77	4658.4	
794.95	3287.7	
795.12	2897.2	
795.3	4265.2	
795.47	4585.4	
795.65	3151.8	
795.82	3077.4	
796	4076.8	
796.17	5317.2	
796.35	2998.2	
796.52	3456.3	
796.7	4592.9	
796.87	4638.6	
797.05	2966.8	
797.22	3502.7	
797.4	4649.6	
797.57	5289.9	
797.75	3101.3	
797.92	2914.9	
798.1	4865.3	
798.27	4099.4	
798.45	2567.5	
798.62	2676	
798.8	4467.3	
798.97	4754.7	
799.15	3164.1	
799.32	3089	
799.5	3961.5	
799.67	4414.7	
799.85	3335.5	
800.02	2527.2	
800.2	4217.5	
800.37	4380.6	
800.55	3397.6	
800.72	2891	
800.9	4749.2	
801.07	4988.2	
801.25	3812	
801.42	3200.3	
801.6	4803.9	
801.77	4434.5	
801.95	2973.7	
802.12	2846.7	
802.29	4594.3	
802.47	4465.9	
802.64	3193.5	
802.82	2506	
802.99	4232.5	
803.17	4791.6	
803.34	3055.6	
803.52	2817.3	
803.69	5241.4	
803.87	4016.1	
804.04	3080.1	
804.21	3128.6	
804.39	4935.6	
804.56	4326	
804.74	2629.6	
804.91	3161.4	
805.09	4209.3	
805.26	4265.2	
805.44	2695.8	
805.61	2965.5	
805.78	4691.9	
805.96	4704.9	
806.13	3099.3	
806.31	3381.2	
806.48	3926	
806.66	4254.3	
806.83	3193.5	
807	3136.8	
807.18	4211.3	
807.35	4513	
807.53	2946.3	
807.7	2581.1	
807.87	5005.9	
808.05	4222.9	
808.22	3353.2	
808.4	2569.5	
808.57	4161.5	
808.74	4007.2	
808.92	2855.6	
809.09	3530	
809.27	4263.2	
809.44	4562.2	
809.61	2581.8	
809.79	2828.9	
809.96	5110.4	
810.14	4678.2	
810.31	2550.4	
810.48	3003.7	
810.66	4305.5	
810.83	4698	
811.01	2895.1	
811.18	3140.2	
811.35	4727.4	
811.53	3790.1	
811.7	3390.8	
811.87	3136.1	
812.05	4302.8	
812.22	4143	
812.39	2861	
812.57	2750.4	
812.74	4312.3	
812.92	5376.6	
813.09	3043.3	
813.26	3250.8	
813.44	5123.3	
813.61	4128.7	
813.78	2595.5	
813.96	3219.4	
814.13	4269.3	
814.3	4102.1	
814.48	3557.3	
814.65	2970.2	
814.82	4990.2	
815	4026.3	
815.17	3052.2	
815.34	3622.2	
815.52	4149.9	
815.69	4205.2	
815.87	3004.4	
816.04	2999.6	
816.21	4222.9	
816.38	3888.4	
816.56	3006.4	
816.73	2753.2	
816.9	5229.8	
817.08	4722.6	
817.25	2857.6	
817.42	3414.6	
817.6	3979.9	
817.77	4179.2	
817.94	3136.1	
818.12	2756.6	
818.29	4082.3	
818.46	5745.2	
818.64	2957.3	
818.81	2722.4	
818.98	4047.5	
819.16	5421.7	
819.33	3237.8	
819.5	3112.9	
819.67	4435.9	
819.85	4893.3	
820.02	3037.1	
820.19	3139.5	
820.37	4437.3	
820.54	4184	
820.71	3064.4	
820.88	3749.1	
821.06	4429.8	
821.23	4107.5	
821.4	3162.7	
821.58	3104.7	
821.75	4702.8	
821.92	4372.4	
822.09	2605.7	
822.27	2694.4	
822.44	4303.5	
822.61	4184	
822.79	2590	
822.96	4661.2	
823.13	4489.1	
823.3	4012.7	
823.48	2900.6	
823.65	2678.7	
823.82	4731.5	
823.99	3979.9	
824.17	3648.8	
824.34	2727.9	
824.51	5345.9	
824.68	4252.9	
824.86	2835.8	
825.03	3107.5	
825.2	4272.1	
825.37	4917.2	
825.55	2807.1	
825.72	3031.7	
825.89	5346.6	
826.06	4987.5	
826.24	2934.1	
826.41	2983.2	
826.58	5076.2	
826.75	4457.1	
826.92	2506.7	
827.1	2727.2	
827.27	6466.8	
827.44	5262.6	
827.61	2895.8	
827.79	3318.4	
827.96	4108.9	
828.13	4222.9	
828.3	2995.5	
828.47	2587.9	
828.65	4514.4	
828.82	4468.7	
828.99	3635.1	
829.16	3247.4	
829.34	4743.1	
829.51	4657.1	
829.68	3018.7	
829.85	3063.1	
830.02	5041.4	
830.2	4803.9	
830.37	2441.2	
830.54	3580.5	
830.71	5253.7	
830.88	4324.6	
831.05	2426.2	
831.23	2760.7	
831.4	5126.7	
831.57	5524.1	
831.74	2889	
831.91	2562.7	
832.09	4612	
832.26	4752.7	
832.43	2895.8	
832.6	3244.7	
832.77	4510.3	
832.94	5020.9	
833.12	2398.2	
833.29	2906.1	
833.46	4221.5	
833.63	5681.1	
833.8	3162.7	
833.97	2891	
834.15	4816.1	
834.32	4651.6	
834.49	3022.1	
834.66	3074.7	
834.83	4823	
835	4179.2	
835.17	2860.3	
835.35	2798.9	
835.52	4708.3	
835.69	4567	
835.86	3007.1	
836.03	2443.9	
836.2	4715.8	
836.37	4487.1	
836.55	2869.9	
836.72	2741.5	
836.89	4453	
837.06	4810.7	
837.23	2987.3	
837.4	3203	
837.57	5258.5	
837.75	5688.6	
837.92	2711.5	
838.09	2905.4	
838.26	4431.1	
838.43	4856.4	
838.6	3028.9	
838.77	2759.3	
838.94	5390.9	
839.11	5352.7	
839.29	2968.2	
839.46	2379.1	
839.63	4768.4	
839.8	4525.3	
839.97	2861	
840.14	2801.6	
840.31	4636.6	
840.48	4761.5	
840.65	2441.9	
840.82	2815.3	
841	4680.3	
841.17	4618.2	
841.34	2641.9	
841.51	2682.2	
841.68	4735.6	
841.85	4476.2	
842.02	2776.4	
842.19	2362.7	
842.36	4618.2	
842.53	4567	
842.7	2685.6	
842.87	3082.2	
843.05	5678.3	
843.22	4504.8	
843.39	2509.4	
843.56	2689.7	
843.73	4406.5	
843.9	4827.7	
844.07	4098.7	
844.24	3431.7	
844.41	6285.9	
844.58	4184.7	
844.75	2545.6	
844.92	2753.8	
845.09	4668	
845.26	4652.3	
845.43	2620.7	
845.6	2734	
845.77	4746.5	
845.94	4500.8	
846.12	2896.5	
846.29	3020.8	
846.46	4951.3	
846.63	4678.2	
846.8	2633	
846.97	3064.4	
847.14	4967.7	
847.31	4690.5	
847.48	2959.3	
847.65	3192.8	
847.82	4876.2	
847.99	4842.8	
848.16	3439.9	
848.33	3155.9	
848.5	4397.7	
848.67	5020.3	
848.84	2627.5	
849.01	2761.3	
849.18	4371.7	
849.35	4128.7	
849.52	3191.4	
849.69	2579.1	
849.86	4884.4	
850.03	4953.4	
850.2	2646.7	
850.37	3125.9	
850.54	4924.7	
850.71	4466.6	
850.88	3089.7	
851.05	2575	
851.22	4577.2	
851.39	5072.1	
851.56	2460.3	
851.73	2964.1	
851.9	4234.5	
852.07	4863.9	
852.24	2942.9	
852.41	2626.2	
852.58	4729.4	
852.75	4255.7	
852.92	2950.4	
853.09	2587.9	
853.26	4319.8	
853.43	4947.2	
853.6	2605.7	
853.77	2317.6	
853.94	5110.4	
854.11	4228.4	
854.28	3672.7	
854.44	2832.3	
854.61	5324.7	
854.78	4875.5	
854.95	2595.5	
855.12	3210.5	
855.29	3964.9	
855.46	5176.6	
855.63	2611.2	
855.8	3497.2	
855.97	4392.9	
856.14	4908.3	
856.31	3575.1	
856.48	2843.3	
856.65	4480.3	
856.82	4130.8	
856.99	2589.3	
857.16	2753.8	
857.33	5444.9	
857.49	4523.3	
857.66	2832.3	
857.83	2962	
858	4465.9	
858.17	4600.4	
858.34	2538.8	
858.51	2680.1	
858.68	5125.4	
858.85	5108.3	
859.02	3007.8	
859.19	3153.2	
859.36	4248.9	
859.52	4190.8	
859.69	2643.9	
859.86	2997.5	
860.03	4262.5	
860.2	5071.5	
860.37	2421.4	
860.54	2673.3	
860.71	4829.1	
860.88	5053.7	
861.05	2888.3	
861.21	3280.8	
861.38	5102.9	
861.55	4128	
861.72	2442.5	
861.89	2887	
862.06	4911.7	
862.23	5193.6	
862.4	2580.4	
862.56	2672.6	
862.73	4766.3	
862.9	4508.3	
863.07	3005.7	
863.24	2465.8	
863.41	4190.8	
863.58	4248.2	
863.75	2676.7	
863.91	3049.4	
864.08	4975.9	
864.25	4774.5	
864.42	3175.7	
864.59	3542.3	
864.76	5265.3	
864.93	4229.1	
865.09	2557.2	
865.26	2780.5	
865.43	4978.6	
865.6	5255.8	
865.77	2359.9	
865.94	2595.5	
866.1	4961.5	
866.27	4761.5	
866.44	3760.1	
866.61	2564.1	
866.78	4483.7	
866.95	4750.6	
867.11	2590	
867.28	2363.4	
867.45	5031.9	
867.62	4217.5	
867.79	2956.6	
867.96	2631	
868.12	4172.4	
868.29	4816.8	
868.46	2646	
868.63	3406.5	
868.8	4977.9	
868.97	4824.3	
869.13	2738.1	
869.3	2759.3	
869.47	4731.5	
869.64	4915.8	
869.81	2618	
869.97	2631	
870.14	4621.6	
870.31	5085.8	
870.48	2586.6	
870.65	3229.6	
870.81	4501.4	
870.98	4481	
871.15	2951.1	
871.32	2727.2	
871.48	4772.4	
871.65	5098.8	
871.82	2631	
871.99	2870.6	
872.16	5418.9	
872.32	5010	
872.49	2685.6	
872.66	2677.4	
872.83	4867.3	
872.99	4341	
873.16	2966.8	
873.33	2597.5	
873.5	4582	
873.67	4634.6	
873.83	2771.6	
874	3407.8	
874.17	4676.2	
874.34	5287.9	
874.5	3338.9	
874.67	3153.9	
874.84	5012.7	
875.01	4104.8	
875.17	3553.9	
875.34	2615.3	
875.51	4627	
875.68	5424.4	
875.84	3084.2	
876.01	3592.1	
876.18	4853.7	
876.34	4774.5	
876.51	2650.1	
876.68	2652.1	
876.85	4414.7	
877.01	4965.6	
877.18	3635.8	
877.35	2650.1	
877.52	4689.8	
877.68	4203.8	
877.85	2683.5	
878.02	2620	
878.18	4410.6	
878.35	4311	
878.52	2187.9	
878.69	3033	
878.85	4942.4	
879.02	4803.2	
879.19	3608.5	
879.35	2797.5	
879.52	4830.5	
879.69	4835.3	
879.86	2374.3	
880.02	2877.4	
880.19	4571.1	
880.36	5296.7	
880.52	2891.7	
880.69	3056.3	
880.86	4918.5	
881.02	4881.7	
881.19	2876	
881.36	2843.3	
881.52	4809.3	
881.69	4358.1	
881.86	2870.6	
882.02	2760	
882.19	4976.6	
882.36	5670.1	
882.52	2683.5	
882.69	3568.9	
882.86	4674.1	
883.02	4639.3	
883.19	3118.4	
883.36	2912.2	
883.52	4859.8	
883.69	5494.7	
883.86	2717	
884.02	2432.3	
884.19	4827.1	
884.36	4599.1	
884.52	2875.3	
884.69	2776.4	
884.86	4418.2	
885.02	5175.2	
885.19	2901.3	
885.36	2960	
885.52	4509.6	
885.69	4681.7	
885.86	3627.6	
886.02	3293.1	
886.19	4857.1	
886.35	4426.3	
886.52	2866.5	
886.69	3554.6	
886.85	4252.9	
887.02	5038.7	
887.19	5038.7	
887.35	5038.7	
887.52	5038.7	
887.68	5038.7	
887.85	5038.7	
888.02	5038.7	
888.18	5038.7	
888.35	5038.7	
888.51	5038.7	
888.68	5038.7	
888.85	5038.7	
889.01	5038.7	
889.18	5038.7	
889.35	5038.7	
889.51	5038.7	
889.68	5038.7	
889.84	5038.7	
890.01	5038.7	
890.17	5038.7	
890.34	5038.7	
890.51	5038.7	
890.67	5038.7	
890.84	5038.7	
891	5038.7	
891.17	5038.7	
891.34	5038.7	
891.5	5038.7	
891.67	5038.7	
891.83	5038.7	
892	5038.7	
892.16	5038.7	
892.33	5038.7	
892.5	5038.7	
892.66	5038.7	
892.83	5038.7	
892.99	5038.7	
893.16	5038.7	
893.32	5038.7	
893.49	5038.7	
893.65	5038.7	
893.82	5038.7	
893.99	5038.7	
894.15	5038.7	
894.32	5038.7	
894.48	5038.7	
894.65	5038.7	
894.81	5038.7	
894.98	5038.7	
895.14	5038.7	
895.31	5038.7	
895.47	5038.7	
895.64	5038.7	
895.81	5038.7	
895.97	5038.7	
896.14	5038.7	
896.3	5038.7	
896.47	5038.7	
896.63	5038.7	
896.8	5038.7	
896.96	5038.7	
897.13	5038.7	
897.29	5038.7	
897.46	5038.7	
897.62	5038.7	
897.79	5038.7	
897.95	5038.7	
898.12	5038.7	
898.28	5038.7	
898.45	5038.7	
898.61	5038.7	
898.78	5038.7	
898.94	5038.7	
899.11	5038.7	
899.27	5038.7	
899.44	5038.7	
899.6	5038.7	
899.77	5038.7	
899.93	5038.7	
900.1	5038.7	
900.26	5038.7	
900.43	5038.7	
900.59	5038.7	
900.76	5038.7	
900.92	5038.7	
901.09	5038.7	
901.25	5038.7	
901.42	5038.7	
901.58	5038.7	
901.75	5038.7	
901.91	5038.7	
902.07	5038.7	
902.24	5038.7	
902.4	5038.7	
902.57	5038.7	
902.73	5038.7	
902.9	5038.7	
903.06	5038.7	
903.23	5038.7	
903.39	5038.7	
903.56	5038.7	
903.72	5038.7	
903.88	5038.7	
904.05	5038.7	
904.21	5038.7	
904.38	5038.7	
904.54	5038.7	
904.71	5038.7	
904.87	5038.7	
905.03	5038.7	
905.2	5038.7	
905.36	5038.7	
905.53	5038.7	
905.69	5038.7	
905.86	5038.7	
906.02	5038.7	
906.18	5038.7	
906.35	5038.7	
906.51	5038.7	
906.68	5038.7	
906.84	5038.7	
907.01	5038.7	
907.17	5038.7	
907.33	5038.7	
907.5	5038.7	
907.66	5038.7	
907.83	5038.7	
907.99	5038.7	
908.15	5038.7	
908.32	5038.7	
908.48	5038.7	
908.65	5038.7	
908.81	5038.7	
908.97	5038.7	
909.14	5038.7	
909.3	5038.7	
909.47	5038.7	
909.63	5038.7	
909.79	5038.7	
909.96	5038.7	
910.12	5038.7	
910.28	5038.7	
910.45	5038.7	
910.61	5038.7	
910.78	5038.7	
910.94	5038.7	
911.1	5038.7	
911.27	5038.7	
911.43	5038.7	
911.59	5038.7	
911.76	5038.7	
911.92	5038.7	
912.08	5038.7	
912.25	5038.7	
912.41	5038.7	
912.57	5038.7	
912.74	5038.7	
912.9	5038.7	
913.07	5038.7	
913.23	5038.7	
913.39	5038.7	
913.56	5038.7	
913.72	5038.7	
913.88	5038.7	
914.05	5038.7	
914.21	5038.7	
914.37	5038.7	
914.54	5038.7	
914.7	5038.7	
914.86	5038.7	
915.03	5038.7	
915.19	5038.7	
