Wavelength	Intensities	
nm	a.u.	
179.22	1913.7	
179.44	1924.7	
179.65	1902.6	
179.86	1946.9	
180.08	1926.5	
180.29	4935.6	
180.51	3494.5	
180.72	5612.8	
180.94	6569.9	
181.15	3190.7	
181.37	3158	
181.58	5512.4	
181.79	5791.7	
182.01	3352.5	
182.22	3620.1	
182.44	5737	
182.65	4857.1	
182.87	4522.6	
183.08	3982.6	
183.29	5999.2	
183.51	4998.4	
183.72	3659.7	
183.94	5386.8	
184.15	5385.5	
184.37	5334.3	
184.58	3207.8	
184.79	4356	
185.01	5045.5	
185.22	5741.8	
185.44	4637.3	
185.65	3938.2	
185.86	5280.3	
186.08	4872.8	
186.29	3112.2	
186.51	3362.8	
186.72	5044.1	
186.94	5931.6	
187.15	3850.2	
187.36	4084.3	
187.58	7761.8	
187.79	5466	
188.01	4212.7	
188.22	6608.8	
188.43	6606.7	
188.65	5769.1	
188.86	3286.3	
189.08	4018.1	
189.29	5214.8	
189.5	5223	
189.72	3691.8	
189.93	3790.1	
190.15	5941.8	
190.36	7122.8	
190.57	4136.2	
190.79	4007.2	
191	6097.5	
191.22	5985.5	
191.43	4086.4	
191.64	3385.3	
191.86	6145.3	
192.07	5970.5	
192.29	3461.7	
192.5	3767.6	
192.71	5989.6	
192.93	5111	
193.14	3649.5	
193.35	3761.4	
193.57	5139.7	
193.78	5954.8	
194	3017.3	
194.21	3656.3	
194.42	4935.6	
194.64	5470.1	
194.85	4030.4	
195.07	4689.8	
195.28	5433.9	
195.49	4702.1	
195.71	4966.3	
195.92	3480.2	
196.13	5587.5	
196.35	5711.8	
196.56	5324	
196.78	3981.3	
196.99	6998.6	
197.2	6565.8	
197.42	4607.9	
197.63	4051.6	
197.84	4836.6	
198.06	5580.7	
198.27	3708.2	
198.48	4990.2	
198.7	5184.1	
198.91	5322	
199.13	4008.6	
199.34	4061.8	
199.55	5857.2	
199.77	4677.6	
199.98	3589.4	
200.19	4075.5	
200.41	5353.4	
200.62	5013.4	
200.83	4212.7	
201.05	4533.5	
201.26	5304.2	
201.47	5019.6	
201.69	3599	
201.9	3395.5	
202.11	5379.3	
202.33	6412.9	
202.54	3849.5	
202.76	4272.7	
202.97	5515.2	
203.18	5559.6	
203.4	4248.9	
203.61	4145.8	
203.82	5452.4	
204.04	5045.5	
204.25	4100.7	
204.46	3953.9	
204.68	5410.7	
204.89	5666.7	
205.1	3935.5	
205.32	3429	
205.53	5852.4	
205.74	5952.8	
205.96	2878.1	
206.17	4136.9	
206.38	5758.2	
206.6	5965.7	
206.81	4647.5	
207.02	3811.3	
207.24	5619.6	
207.45	6021.7	
207.66	3827	
207.88	3293.8	
208.09	5608.7	
208.3	5415.5	
208.52	3533.4	
208.73	3837.2	
208.94	5394.3	
209.15	6100.9	
209.37	3862.5	
209.58	4053.6	
209.79	5950.7	
210.01	5201.8	
210.22	3097.2	
210.43	3276.8	
210.65	5384.1	
210.86	5849	
211.07	3881.6	
211.29	3500.7	
211.5	5740.5	
211.71	5304.9	
211.93	3513.6	
212.14	3524.6	
212.35	5332.9	
212.56	5574.6	
212.78	4094.6	
212.99	3359.4	
213.2	6438.1	
213.42	5199.8	
213.63	3720.5	
213.84	3952.6	
214.06	4746.5	
214.27	4878.3	
214.48	3856.3	
214.69	4083.6	
214.91	6133	
215.12	6119.3	
215.33	4169.7	
215.55	4620.2	
215.76	6662	
215.97	5798.5	
216.18	3991.5	
216.4	3942.3	
216.61	5098.8	
216.82	5868.8	
217.04	3622.9	
217.25	3672	
217.46	6064	
217.67	5789.6	
217.89	3169.6	
218.1	3248.1	
218.31	5429.8	
218.53	5588.9	
218.74	3735.5	
218.95	3633.1	
219.16	5362.9	
219.38	6333	
219.59	3654.3	
219.8	4345.1	
220.01	6980.8	
220.23	5420.3	
220.44	4758.1	
220.65	3529.3	
220.87	5517.2	
221.08	6055.2	
221.29	3279.5	
221.5	4454.3	
221.72	7417.1	
221.93	5119.9	
222.14	4129.4	
222.35	4775.9	
222.57	5332.9	
222.78	5793.7	
222.99	3824.9	
223.2	4214	
223.42	5738.4	
223.63	5890.6	
223.84	2986.6	
224.05	2934.7	
224.27	6890.7	
224.48	6307.7	
224.69	4780	
224.9	4033.1	
225.12	5614.2	
225.33	5412.8	
225.54	3220.1	
225.75	3642	
225.97	4963.6	
226.18	5227.8	
226.39	3904.8	
226.6	3599.6	
226.82	5152	
227.03	4981.3	
227.24	4055.7	
227.45	3302.7	
227.67	5779.4	
227.88	6337.1	
228.09	4526	
228.3	4553.3	
228.52	5823.7	
228.73	5403.9	
228.94	3776.5	
229.15	3345	
229.36	5272.2	
229.58	5253.7	
229.79	3774.4	
230	4432.5	
230.21	6441.5	
230.43	5446.2	
230.64	4003.1	
230.85	4196.3	
231.06	5814.9	
231.28	5819.6	
231.49	3319.8	
231.7	3974.4	
231.91	5698.8	
232.12	5409.4	
232.34	3480.2	
232.55	3957.4	
232.76	6060.6	
232.97	5659.9	
233.18	3520.5	
233.4	3998.3	
233.61	5597.1	
233.82	5170.4	
234.03	3745.1	
234.25	3619.4	
234.46	7531.7	
234.67	5417.6	
234.88	4193.6	
235.09	3611.9	
235.31	5733.6	
235.52	5317.2	
235.73	4059.8	
235.94	3395.5	
236.15	5147.9	
236.37	6595.1	
236.58	3521.1	
236.79	3858.4	
237	5750.7	
237.21	4951.3	
237.43	4188.1	
237.64	3305.4	
237.85	9794.1	
238.06	4956.8	
238.27	4287.1	
238.48	3411.9	
238.7	5741.1	
238.91	5294	
239.12	3919.8	
239.33	3915.7	
239.54	4947.2	
239.76	5361.6	
239.97	3766.9	
240.18	3951.9	
240.39	6720.1	
240.6	5685.8	
240.82	3968.3	
241.03	3300	
241.24	5422.3	
241.45	6271.6	
241.66	3530	
241.87	4159.4	
242.09	6107.7	
242.3	6510.5	
242.51	4243.4	
242.72	3846.8	
242.93	5879	
243.14	5322	
243.36	4510.3	
243.57	4851	
243.78	6287.9	
243.99	5808	
244.2	3958	
244.41	3484.3	
244.63	4916.5	
244.84	5717.2	
245.05	4179.9	
245.26	3896.6	
245.47	5670.8	
245.68	5954.1	
245.9	5177.3	
246.11	4103.4	
246.32	5236.7	
246.53	5647.6	
246.74	6335	
246.95	3265.8	
247.16	4966.3	
247.38	5435.3	
247.59	3193.5	
247.8	3939.6	
248.01	5115.1	
248.22	5307	
248.43	3553.9	
248.64	3842	
248.86	4784.1	
249.07	5206.6	
249.28	3437.9	
249.49	4012.7	
249.7	5984.2	
249.91	6101.6	
250.12	3272	
250.34	3340.2	
250.55	5545.9	
250.76	5372.5	
250.97	3997	
251.18	4050.9	
251.39	6081.8	
251.6	5602.6	
251.81	4116.4	
252.03	4087.1	
252.24	5177.9	
252.45	5881.1	
252.66	3390.8	
252.87	4321.2	
253.08	5448.3	
253.29	7136.5	
253.5	3377.1	
253.72	4709.6	
253.93	5264.6	
254.14	6406.7	
254.35	3689.1	
254.56	3837.2	
254.77	5691.3	
254.98	5033.9	
255.19	3660.4	
255.41	4660.5	
255.62	5470.8	
255.83	6056.5	
256.04	4173.1	
256.25	4064.5	
256.46	6690	
256.67	5092.6	
256.88	3994.2	
257.09	4512.4	
257.31	5033.9	
257.52	5152	
257.73	5022.3	
257.94	3657	
258.15	5301.5	
258.36	5425.8	
258.57	4672.1	
258.78	2936.8	
258.99	5885.9	
259.2	5260.5	
259.41	3684.3	
259.63	3826.3	
259.84	6237.4	
260.05	6660.7	
260.26	4915.1	
260.47	3644	
260.68	5955.5	
260.89	5337.7	
261.1	4492.6	
261.31	3547.1	
261.52	6016.9	
261.73	6343.2	
261.95	4797.7	
262.16	4195.6	
262.37	6181.5	
262.58	6242.9	
262.79	4747.2	
263	3738.9	
263.21	5492	
263.42	4971.1	
263.63	3815.4	
263.84	3730.7	
264.05	6016.2	
264.26	6322.8	
264.47	4652.3	
264.69	4175.1	
264.9	6108.4	
265.11	5659.2	
265.32	3517.7	
265.53	3728	
265.74	5549.3	
265.95	4815.5	
266.16	3952.6	
266.37	4384.7	
266.58	5556.8	
266.79	5185.5	
267	3687	
267.21	3455.6	
267.42	4964.3	
267.63	5392.3	
267.84	3898	
268.06	3310.2	
268.27	5812.1	
268.48	6099.5	
268.69	3829	
268.9	4487.1	
269.11	6138.4	
269.32	4883.7	
269.53	3934.1	
269.74	3635.1	
269.95	5773.2	
270.16	4771.8	
270.37	3877.5	
270.58	4511.7	
270.79	5221.6	
271	5934.3	
271.21	4200.4	
271.42	3946.4	
271.63	5592.3	
271.84	5010.7	
272.05	3162.1	
272.26	3540.3	
272.47	5455.8	
272.68	5640.1	
272.89	3748.5	
273.11	4276.8	
273.32	5237.3	
273.53	6447	
273.74	4203.8	
273.95	4074.8	
274.16	6021.7	
274.37	5480.4	
274.58	4267.3	
274.79	3434.4	
275	5541.8	
275.21	6098.2	
275.42	5106.3	
275.63	4464.6	
275.84	5599.1	
276.05	7126.2	
276.26	4077.5	
276.47	3820.1	
276.68	5247.6	
276.89	6419	
277.1	4397	
277.31	3410.6	
277.52	5635.3	
277.73	5887.2	
277.94	3386	
278.15	3751.9	
278.36	5701.5	
278.57	5040.7	
278.78	3799	
278.99	4196.3	
279.2	5086.5	
279.41	4977.9	
279.62	4917.9	
279.83	3439.9	
280.04	6666.1	
280.25	4920.6	
280.46	4916.5	
280.67	3850.2	
280.88	4993.6	
281.09	6088.6	
281.3	4147.8	
281.51	5216.9	
281.72	5151.3	
281.93	5924.8	
282.14	3659.7	
282.35	3948.5	
282.56	5883.8	
282.77	5879	
282.98	3786.7	
283.19	4651.6	
283.4	7291.5	
283.61	5384.8	
283.82	3374.4	
284.03	4867.3	
284.24	5582.8	
284.45	6031.3	
284.66	4876.2	
284.87	4649.6	
285.08	5992.4	
285.29	6146.6	
285.5	3342.3	
285.71	3825.6	
285.92	6092	
286.12	6746	
286.33	4766.3	
286.54	3826.3	
286.75	5961	
286.96	5279.7	
287.17	3481.5	
287.38	4696	
287.59	5010.7	
287.8	4902.2	
288.01	3848.1	
288.22	4402.5	
288.43	5900.9	
288.64	5004.6	
288.85	4530.1	
289.06	4342.4	
289.27	5900.2	
289.48	6369.2	
289.69	4870.1	
289.9	4414.7	
290.11	6055.8	
290.32	5127.4	
290.53	4629.8	
290.74	4152.6	
290.94	5854.5	
291.15	5911.1	
291.36	3701.4	
291.57	4371	
291.78	5209.3	
291.99	4832.5	
292.2	3468.6	
292.41	4195.6	
292.62	6007.4	
292.83	5772.5	
293.04	5214.8	
293.25	3546.4	
293.46	5221	
293.67	6047	
293.88	3665.9	
294.09	3519.8	
294.29	5005.2	
294.5	5541.1	
294.71	3945.8	
294.92	3687	
295.13	5210.7	
295.34	6473.6	
295.55	3283.6	
295.76	3155.2	
295.97	5870.8	
296.18	6617	
296.39	3449.5	
296.6	3638.6	
296.81	5567.7	
297.01	5866.7	
297.22	3787.4	
297.43	3678.8	
297.64	5059.8	
297.85	5072.8	
298.06	3026.2	
298.27	3298.6	
298.48	5429.2	
298.69	5162.9	
298.9	3894.6	
299.11	3599	
299.31	4933.6	
299.52	4945.8	
299.73	4218.8	
299.94	4150.5	
300.15	5436	
300.36	5050.3	
300.57	4154.6	
300.78	4151.9	
300.99	5312.4	
301.2	5512.4	
301.4	3641.3	
301.61	3955.3	
301.82	5794.4	
302.03	5853.1	
302.24	4456.4	
302.45	3463.1	
302.66	5730.9	
302.87	6165.8	
303.08	3636.5	
303.29	5049.6	
303.49	5119.2	
303.7	5444.2	
303.91	3237.8	
304.12	4767.7	
304.33	4923.3	
304.54	5544.5	
304.75	3650.2	
304.96	3475.4	
305.16	5739.8	
305.37	6585.6	
305.58	3148.4	
305.79	3312.9	
306	5747.3	
306.21	4826.4	
306.42	3656.3	
306.63	5608.7	
306.83	5254.4	
307.04	6053.8	
307.25	4015.4	
307.46	4048.2	
307.67	4625	
307.88	5885.2	
308.09	3585.3	
308.29	3724.6	
308.5	5533.6	
308.71	6036.7	
308.92	3921.2	
309.13	3482.9	
309.34	5348.6	
309.55	5315.2	
309.75	4593.6	
309.96	4166.3	
310.17	5893.4	
310.38	5128.1	
310.59	4402.5	
310.8	3461.1	
311.01	6406.7	
311.21	5277.6	
311.42	3464.5	
311.63	3568.9	
311.84	5126.7	
312.05	5550	
312.26	4062.5	
312.46	4435.2	
312.67	5258.5	
312.88	4969.7	
313.09	3537.5	
313.3	3407.1	
313.51	6260.6	
313.71	6622.4	
313.92	3488.4	
314.13	3730	
314.34	5591.6	
314.55	5318.6	
314.76	4599.1	
314.96	3969	
315.17	5526.8	
315.38	5829.2	
315.59	3498.6	
315.8	3381.9	
316.01	6300.2	
316.21	6347.3	
316.42	3376.4	
316.63	3873.4	
316.84	5347.2	
317.05	6126.8	
317.26	4213.4	
317.46	3749.1	
317.67	5390.3	
317.88	5832.6	
318.09	4498	
318.3	3267.2	
318.5	5128.1	
318.71	5722.7	
318.92	5728.2	
319.13	4199	
319.34	5920	
319.54	6112.5	
319.75	3287.7	
319.96	3153.2	
320.17	5838.8	
320.38	6047	
320.58	3184.6	
320.79	3872	
321	6045.6	
321.21	6154.1	
321.42	3933.5	
321.62	3233.7	
321.83	5071.5	
322.04	5438.7	
322.25	3686.3	
322.46	3575.8	
322.66	5578.7	
322.87	5742.5	
323.08	4368.3	
323.29	3512.3	
323.5	6496.2	
323.7	4990.2	
323.91	4808.6	
324.12	4328	
324.33	5459.9	
324.53	5713.8	
324.74	4192.9	
324.95	4347.8	
325.16	4829.1	
325.37	5220.3	
325.57	3548.4	
325.78	3579.2	
325.99	5484.5	
326.2	4931.5	
326.4	5165	
326.61	3297.9	
326.82	5365	
327.03	5540.4	
327.24	5027.8	
327.44	4758.8	
327.65	5678.3	
327.86	4558.1	
328.07	4232.5	
328.27	3380.5	
328.48	6167.8	
328.69	4984.8	
328.9	5079	
329.1	3774.4	
329.31	5313.8	
329.52	6316.6	
329.73	3529.3	
329.93	4050.2	
330.14	5418.9	
330.35	5624.4	
330.56	5859.2	
330.76	4458.4	
330.97	5280.3	
331.18	5638.1	
331.39	3953.9	
331.59	3128.6	
331.8	6055.2	
332.01	6139.8	
332.22	3649.5	
332.42	4228.4	
332.63	5532.2	
332.84	5151.3	
333.05	4005.8	
333.25	3593.5	
333.46	5236	
333.67	5416.9	
333.88	3704.8	
334.08	4158.7	
334.29	7277.1	
334.5	6098.2	
334.7	3459.7	
334.91	5111.7	
335.12	4980.7	
335.33	5891.3	
335.53	3923.2	
335.74	5842.2	
335.95	5247.6	
336.16	5055.8	
336.36	4012.7	
336.57	4513	
336.78	4936.3	
336.98	5995.8	
337.19	4932.2	
337.4	3829.7	
337.61	6552.8	
337.81	4939	
338.02	3609.2	
338.23	4704.9	
338.43	6173.9	
338.64	5054.4	
338.85	3564.1	
339.05	4691.2	
339.26	6238.1	
339.47	4866.7	
339.68	3549.1	
339.88	5240.1	
340.09	5682.4	
340.3	5877.7	
340.5	4188.8	
340.71	3182.5	
340.92	4881	
341.13	6203.3	
341.33	3437.9	
341.54	4188.8	
341.75	5694	
341.95	5306.3	
342.16	4015.4	
342.37	4349.9	
342.57	5020.3	
342.78	5380	
342.99	4437.3	
343.19	3188	
343.4	5816.9	
343.61	5720.7	
343.81	3786.7	
344.02	3483.6	
344.23	5824.4	
344.43	6230.6	
344.64	4464.6	
344.85	4310.3	
345.06	5711.8	
345.26	6003.3	
345.47	4160.1	
345.68	4814.8	
345.88	4787.5	
346.09	5846.3	
346.3	4179.9	
346.5	3137.5	
346.71	5433.9	
346.92	5147.9	
347.12	3242.6	
347.33	4137.6	
347.54	5953.4	
347.74	6445	
347.95	4103.4	
348.16	3041.2	
348.36	5247.6	
348.57	4935.6	
348.78	4048.2	
348.98	4399	
349.19	5401.2	
349.39	4965.6	
349.6	3252.2	
349.81	3624.9	
350.01	5689.9	
350.22	5162.9	
350.43	3940.3	
350.63	4695.3	
350.84	5425.1	
351.05	5242.1	
351.25	3578.5	
351.46	3242.6	
351.67	6038.1	
351.87	5096.7	
352.08	3822.9	
352.29	4330.8	
352.49	5883.1	
352.7	5981.4	
352.9	3463.1	
353.11	4280.9	
353.32	6557.6	
353.52	5219.6	
353.73	3376.4	
353.94	4370.4	
354.14	5723.4	
354.35	5548.6	
354.55	3510.9	
354.76	3951.9	
354.97	5675.6	
355.17	5425.8	
355.38	3354.6	
355.59	4639.3	
355.79	5089.9	
356	5512.4	
356.2	3885	
356.41	3377.8	
356.62	4852.3	
356.82	5336.3	
357.03	4169	
357.24	3750.5	
357.44	5124.7	
357.65	5219.6	
357.85	5061.9	
358.06	3941	
358.27	4878.9	
358.47	5156.1	
358.68	3260.4	
358.88	4132.8	
359.09	5698.1	
359.3	6054.5	
359.5	4823	
359.71	4259.8	
359.91	6496.8	
360.12	5864.7	
360.33	4136.2	
360.53	4641.4	
360.74	5116.5	
360.94	5172.5	
361.15	4345.1	
361.36	3525.9	
361.56	5842.9	
361.77	5377.3	
361.97	4822.3	
362.18	3813.3	
362.38	5946.6	
362.59	4999.1	
362.8	3491.1	
363	3364.8	
363.21	4759.5	
363.41	5479	
363.62	4031.8	
363.83	5044.1	
364.03	5507	
364.24	6582.9	
364.44	5148.6	
364.65	5169.8	
364.85	5268.7	
365.06	5165.7	
365.27	3679.5	
365.47	3744.4	
365.68	6242.2	
365.88	5284.4	
366.09	4087.7	
366.29	3788.7	
366.5	5576.6	
366.71	6062.7	
366.91	5064.6	
367.12	4291.9	
367.32	6532.3	
367.53	5802.6	
367.73	4160.1	
367.94	5202.5	
368.14	5749.3	
368.35	6705	
368.56	4219.5	
368.76	3785.3	
368.97	5862	
369.17	7658.7	
369.38	3704.8	
369.58	3959.4	
369.79	4904.2	
369.99	6266.1	
370.2	4939.7	
370.4	4094.6	
370.61	5634.6	
370.82	6830	
371.02	3921.2	
371.23	3346.4	
371.43	4820.9	
371.64	6201.2	
371.84	4009.2	
372.05	5195.7	
372.25	7524.9	
372.46	5937.7	
372.66	4005.8	
372.87	3928.7	
373.07	5905	
373.28	7556.3	
373.48	4965	
373.69	4713.1	
373.9	5444.9	
374.1	5433.3	
374.31	4918.5	
374.51	4445.5	
374.72	6283.9	
374.92	5154.7	
375.13	5158.8	
375.33	4283.7	
375.54	5870.2	
375.74	5315.2	
375.95	4336.9	
376.15	5631.9	
376.36	5883.1	
376.56	5683.8	
376.77	4392.9	
376.97	4915.8	
377.18	6962.4	
377.38	5939.8	
377.59	5216.2	
377.79	3943.7	
378	5726.8	
378.2	6152.1	
378.41	3992.2	
378.61	3880.2	
378.82	6196.5	
379.02	5292	
379.23	4146.5	
379.43	5223	
379.64	6321.4	
379.84	5921.4	
380.05	3947.8	
380.25	3941	
380.46	6029.2	
380.66	5629.2	
380.87	5312.4	
381.07	5683.8	
381.28	6621.1	
381.48	5987.6	
381.69	4016.7	
381.89	4015.4	
382.1	4980	
382.3	6176.7	
382.51	5194.3	
382.71	6088.6	
382.91	6021	
383.12	6627.9	
383.32	4394.3	
383.53	4612	
383.73	5876.3	
383.94	5725.4	
384.14	4483	
384.35	3611.9	
384.55	5592.3	
384.76	5999.2	
384.96	4367.6	
385.17	4671.4	
385.37	5984.2	
385.58	5254.4	
385.78	4683	
385.98	3595.6	
386.19	5555.5	
386.39	5853.1	
386.6	4198.3	
386.8	4444.1	
387.01	6066.8	
387.21	6068.8	
387.42	4862.6	
387.62	5400.5	
387.83	5358.9	
388.03	6018.3	
388.23	4472.1	
388.44	5277.6	
388.64	5036	
388.85	5212.8	
389.05	4790.2	
389.26	5436	
389.46	7031.4	
389.67	6522.8	
389.87	4847.5	
390.07	4842.8	
390.28	5723.4	
390.48	5308.3	
390.69	4108.2	
390.89	4371	
391.1	5451.7	
391.3	6456.6	
391.5	5643.5	
391.71	6214.9	
391.91	6143.2	
392.12	7158.3	
392.32	5633.3	
392.53	4838	
392.73	5455.8	
392.93	5756.8	
393.14	4481.6	
393.34	5609.4	
393.55	6219.7	
393.75	5641.5	
393.95	4503.5	
394.16	4502.1	
394.36	5487.2	
394.57	6145.3	
394.77	4035.9	
394.98	4442	
395.18	5496.1	
395.38	5626.5	
395.59	5360.9	
395.79	4268.6	
396	5603.9	
396.2	6107.7	
396.4	5129.5	
396.61	5102.2	
396.81	6315.9	
397.02	5614.8	
397.22	5436.7	
397.42	5445.5	
397.63	6247	
397.83	5531.6	
398.04	4276.8	
398.24	4764.9	
398.44	6100.9	
398.65	5144.5	
398.85	4129.4	
399.05	4255	
399.26	5517.9	
399.46	7299.6	
399.67	4610.7	
399.87	4380.6	
400.07	5909.1	
400.28	6227.2	
400.48	4496	
400.69	5548.6	
400.89	6553.5	
401.09	6933.1	
401.3	4393.6	
401.5	5470.8	
401.7	7238.9	
401.91	7451.9	
402.11	4672.1	
402.32	4891.2	
402.52	6481.1	
402.72	6390.3	
402.93	5079.6	
403.13	3888.4	
403.33	7200.7	
403.54	5861.3	
403.74	4812	
403.94	5700.9	
404.15	5991	
404.35	7231.4	
404.56	4683.7	
404.76	6488.6	
404.96	6542.6	
405.17	6277.7	
405.37	6255.9	
405.57	5085.1	
405.78	6579.4	
405.98	5918.6	
406.18	4614.1	
406.39	5500.2	
406.59	6552.1	
406.79	6028.5	
407	4448.9	
407.2	4666.6	
407.4	6572.6	
407.61	6847	
407.81	4663.2	
408.01	6836.8	
408.22	5558.9	
408.42	7713.3	
408.62	5864.7	
408.83	5252.4	
409.03	6392.4	
409.23	6163	
409.44	5412.8	
409.64	5670.1	
409.84	7249.8	
410.05	7163.1	
410.25	5459.9	
410.45	5287.9	
410.66	6641.6	
410.86	9168.1	
411.06	5743.9	
411.27	5666	
411.47	8931.2	
411.67	6913.9	
411.88	5856.5	
412.08	6132.3	
412.28	7530.4	
412.49	8045.8	
412.69	5708.4	
412.89	5720	
413.09	7887.4	
413.3	7710.6	
413.5	5769.8	
413.7	5393	
413.91	7064.1	
414.11	7841	
414.31	5715.2	
414.52	6092	
414.72	7467.6	
414.92	7471.7	
415.12	5674.9	
415.33	6238.1	
415.53	7886.7	
415.73	8026	
415.94	6597.9	
416.14	6027.9	
416.34	6889.4	
416.55	6692.1	
416.75	7264.1	
416.95	6696.2	
417.15	7922.9	
417.36	8675.9	
417.56	7531.7	
417.76	6566.5	
417.97	8345.5	
418.17	8058.8	
418.37	6126.8	
418.57	6126.8	
418.78	7770.7	
418.98	7406.8	
419.18	7045.7	
419.38	6976.1	
419.59	7478.5	
419.79	7111.2	
419.99	6066.8	
420.2	6535.8	
420.4	8077.2	
420.6	8254.7	
420.8	5908.4	
421.01	5856.5	
421.21	7911.3	
421.41	8101.8	
421.61	6422.4	
421.82	6048.3	
422.02	7353.6	
422.22	8247.2	
422.42	6916.7	
422.63	6482.5	
422.83	7473.7	
423.03	8718.9	
423.23	6550.1	
423.44	5481.7	
423.64	7552.2	
423.84	7269.6	
424.04	6013.5	
424.25	5646.9	
424.45	8441	
424.65	8430.8	
424.85	5430.5	
425.06	6049	
425.26	8507.9	
425.46	7407.5	
425.66	6427.9	
425.87	6208.8	
426.07	8169.3	
426.27	8045.8	
426.47	6430.6	
426.67	5722.7	
426.88	8492.9	
427.08	7993.9	
427.28	6604.7	
427.48	5671.5	
427.69	6799.3	
427.89	7598	
428.09	6596.5	
428.29	5737.7	
428.5	8271.7	
428.7	7778.9	
428.9	5607.3	
429.1	6240.2	
429.3	7783.6	
429.51	8170.7	
429.71	5979.4	
429.91	6872.3	
430.11	7928.4	
430.31	8275.8	
430.52	6270.2	
430.72	6571.2	
430.92	8708	
431.12	8110	
431.32	5937.1	
431.53	6364.4	
431.73	7005.4	
431.93	8697	
432.13	5898.1	
432.33	5786.9	
432.54	7496.9	
432.74	7873.1	
432.94	5769.8	
433.14	6887.3	
433.34	8118.1	
433.55	7661.5	
433.75	6827.2	
433.95	8571.4	
434.15	7959.8	
434.35	7574.1	
434.56	5905.7	
434.76	5584.8	
434.96	7923.6	
435.16	8192.6	
435.36	5888.6	
435.56	7103	
435.77	7614.3	
435.97	7775.5	
436.17	7792.5	
436.37	7048.4	
436.57	7565.2	
436.78	7462.8	
436.98	6972.7	
437.18	7595.2	
437.38	8385.1	
437.58	7713.3	
437.78	7740.6	
437.99	6299.6	
438.19	8126.3	
438.39	9043.1	
438.59	6277.7	
438.79	5781.4	
438.99	9086.2	
439.2	7892.2	
439.4	6085.9	
439.6	6013.5	
439.8	8315.4	
440	9344.2	
440.2	7194.5	
440.4	7362.4	
440.61	8650.6	
440.81	9292.3	
441.01	6437.4	
441.21	7261.4	
441.41	9072.5	
441.61	8603.5	
441.81	7517.4	
442.02	8574.8	
442.22	9602.9	
442.42	8884.1	
442.62	6468.9	
442.82	6477	
443.02	9154.4	
443.22	8357.1	
443.43	6995.2	
443.63	6561	
443.83	8034.2	
444.03	8210.3	
444.23	7878.5	
444.43	7288	
444.63	8489.5	
444.83	9658.2	
445.04	6604	
445.24	7950.9	
445.44	8835.6	
445.64	8886.8	
445.84	7392.5	
446.04	7426.6	
446.24	8092.2	
446.44	9211.1	
446.65	6470.9	
446.85	6993.8	
447.05	8533.2	
447.25	9085.5	
447.45	7015	
447.65	6417	
447.85	8521.6	
448.05	8133.2	
448.25	7577.5	
448.46	7329	
448.66	8568	
448.86	8159.8	
449.06	6382.8	
449.26	7615.7	
449.46	8979.7	
449.66	7976.2	
449.86	7107.8	
450.06	7120.1	
450.26	8141.4	
450.47	8839	
450.67	7320.8	
450.87	7645.8	
451.07	8879.3	
451.27	8691.6	
451.47	6655.9	
451.67	7277.8	
451.87	8332.5	
452.07	9411.8	
452.27	6931.7	
452.47	6935.8	
452.67	8600.8	
452.88	9269.1	
453.08	6153.5	
453.28	8291.5	
453.48	9879.4	
453.68	8509.3	
453.88	6921.5	
454.08	7103.7	
454.28	9029.5	
454.48	8732.5	
454.68	7715.4	
454.88	8195.3	
455.08	9144.2	
455.28	9030.2	
455.48	6739.9	
455.68	7513.3	
455.89	9791.3	
456.09	9484.1	
456.29	7245	
456.49	7313.3	
456.69	9674.6	
456.89	8895.7	
457.09	8002.8	
457.29	8318.2	
457.49	9301.9	
457.69	9402.9	
457.89	7852.6	
458.09	7180.9	
458.29	9101.9	
458.49	9853.5	
458.69	8267	
458.89	7590.5	
459.09	10094	
459.29	10242	
459.49	7703.1	
459.69	8559.8	
459.9	9706.7	
460.1	9283.4	
460.3	7623.9	
460.5	7395.2	
460.7	9661.6	
460.9	9428.2	
461.1	7176.1	
461.3	8545.5	
461.5	10520	
461.7	10049	
461.9	7636.9	
462.1	8213	
462.3	9635	
462.5	10195	
462.7	7794.6	
462.9	7976.2	
463.1	11340	
463.3	11041	
463.5	8147.5	
463.7	9208.4	
463.9	9949.7	
464.1	10359	
464.3	8484.1	
464.5	8562.6	
464.7	10727	
464.9	10391	
465.1	10036	
465.3	9101.9	
465.5	10990	
465.7	11086	
465.9	9361.3	
466.1	9037	
466.3	10876	
466.5	10686	
466.7	10194	
466.9	8981.7	
467.1	10691	
467.3	11635	
467.5	10197	
467.7	9084.1	
467.9	11882	
468.1	12897	
468.3	9736	
468.5	10327	
468.7	10759	
468.9	10727	
469.1	9443.9	
469.3	10139	
469.5	12799	
469.7	10350	
469.9	9755.2	
470.1	9144.2	
470.3	10809	
470.5	10799	
470.7	10377	
470.9	9209.7	
471.1	10595	
471.3	10884	
471.5	8996.7	
471.69	10989	
471.89	10417	
472.09	9874.6	
472.29	9831.6	
472.49	9985.2	
472.69	10132	
472.89	11060	
473.09	8933.2	
473.29	8975.6	
473.49	10292	
473.69	10430	
473.89	9940.8	
474.09	9069.8	
474.29	11707	
474.49	11409	
474.69	10039	
474.89	9245.2	
475.09	10461	
475.29	10516	
475.49	8605.6	
475.69	8977.6	
475.88	12069	
476.08	10714	
476.28	8603.5	
476.48	8997.4	
476.68	11121	
476.88	10925	
477.08	8870.4	
477.28	9238.4	
477.48	10474	
477.68	11280	
477.88	8644.5	
478.08	9036.3	
478.28	11555	
478.48	10560	
478.67	9162.6	
478.87	8502.5	
479.07	11428	
479.27	10753	
479.47	9280.7	
479.67	9348.3	
479.87	11264	
480.07	11767	
480.27	8579.6	
480.47	10262	
480.67	10815	
480.87	11570	
481.06	8910	
481.26	9728.5	
481.46	10867	
481.66	10703	
481.86	9396.1	
482.06	10380	
482.26	10570	
482.46	11497	
482.66	9430.9	
482.86	9022.7	
483.05	10917	
483.25	10362	
483.45	11771	
483.65	9394.7	
483.85	10574	
484.05	10931	
484.25	9858.9	
484.45	10529	
484.65	11764	
484.84	11757	
485.04	9349	
485.24	9411.1	
485.44	12076	
485.64	10363	
485.84	8796	
486.04	10261	
486.24	10744	
486.44	11168	
486.63	8719.6	
486.83	9665.7	
487.03	10778	
487.23	11082	
487.43	8857.5	
487.63	11346	
487.83	11139	
488.02	12250	
488.22	9932	
488.42	10673	
488.62	11964	
488.82	10912	
489.02	9614.5	
489.22	9798.8	
489.41	11960	
489.61	11574	
489.81	9456.2	
490.01	9460.3	
490.21	11728	
490.41	12436	
490.61	9338.7	
490.8	9409.7	
491	11271	
491.2	10545	
491.4	10013	
491.6	9142.1	
491.8	11274	
491.99	11457	
492.19	9019.9	
492.39	9535.3	
492.59	11968	
492.79	12009	
492.99	10579	
493.18	9638.4	
493.38	12041	
493.58	13084	
493.78	10383	
493.98	9964.7	
494.18	11987	
494.37	11512	
494.57	10767	
494.77	10681	
494.97	12357	
495.17	12673	
495.37	10307	
495.56	10677	
495.76	12920	
495.96	12485	
496.16	11631	
496.36	10507	
496.55	12709	
496.75	12349	
496.95	11017	
497.15	10848	
497.35	12756	
497.54	12803	
497.74	10684	
497.94	12418	
498.14	13553	
498.34	13323	
498.53	10477	
498.73	11308	
498.93	12180	
499.13	12894	
499.33	11071	
499.52	11635	
499.72	13060	
499.92	13093	
500.12	10922	
500.32	11131	
500.51	13106	
500.71	13003	
500.91	11927	
501.11	11544	
501.31	13141	
501.5	13568	
501.7	12186	
501.9	11082	
502.1	12821	
502.29	13211	
502.49	11650	
502.69	11959	
502.89	13048	
503.09	13068	
503.28	10512	
503.48	10664	
503.68	12170	
503.88	12299	
504.07	11592	
504.27	11080	
504.47	12536	
504.67	12628	
504.86	11493	
505.06	11090	
505.26	12239	
505.46	13963	
505.65	10911	
505.85	11161	
506.05	12047	
506.25	12560	
506.44	10148	
506.64	11196	
506.84	11981	
507.04	12799	
507.23	10404	
507.43	10926	
507.63	13971	
507.83	12162	
508.02	10953	
508.22	10589	
508.42	14127	
508.62	11884	
508.81	10745	
509.01	11461	
509.21	11752	
509.4	12070	
509.6	11144	
509.8	10514	
510	12136	
510.19	13687	
510.39	10423	
510.59	10472	
510.79	11871	
510.98	13277	
511.18	10600	
511.38	10787	
511.57	12716	
511.77	12592	
511.97	11230	
512.17	10251	
512.36	12870	
512.56	12612	
512.76	10334	
512.95	10213	
513.15	12869	
513.35	11437	
513.55	11393	
513.74	10352	
513.94	12850	
514.14	12197	
514.33	11458	
514.53	11252	
514.73	12114	
514.92	12336	
515.12	10670	
515.32	10530	
515.51	12424	
515.71	13016	
515.91	12328	
516.11	10680	
516.3	14167	
516.5	12112	
516.7	11138	
516.89	11774	
517.09	12284	
517.29	12114	
517.48	11674	
517.68	10810	
517.88	11918	
518.07	12579	
518.27	11437	
518.47	10430	
518.66	13149	
518.86	11800	
519.06	10221	
519.25	10802	
519.45	12155	
519.65	13654	
519.84	11465	
520.04	12138	
520.24	13945	
520.43	12680	
520.63	10942	
520.83	10776	
521.02	11948	
521.22	12652	
521.42	11289	
521.61	11939	
521.81	12155	
522.01	12300	
522.2	11291	
522.4	11041	
522.6	12977	
522.79	11866	
522.99	11230	
523.18	10474	
523.38	12837	
523.58	12936	
523.77	12647	
523.97	10712	
524.17	14930	
524.36	14012	
524.56	12210	
524.76	11885	
524.95	13124	
525.15	12764	
525.34	11592	
525.54	11641	
525.74	13657	
525.93	12539	
526.13	12837	
526.33	11633	
526.52	13946	
526.72	13411	
526.91	13060	
527.11	12316	
527.31	14059	
527.5	14468	
527.7	12384	
527.89	11303	
528.09	13020	
528.29	13835	
528.48	12794	
528.68	12367	
528.87	13971	
529.07	14057	
529.27	12144	
529.46	11552	
529.66	13429	
529.85	13799	
530.05	11389	
530.25	12146	
530.44	15012	
530.64	13513	
530.83	11921	
531.03	12295	
531.23	14029	
531.42	13986	
531.62	13224	
531.81	12226	
532.01	14435	
532.21	14976	
532.4	12232	
532.6	12625	
532.79	15328	
532.99	14592	
533.18	12706	
533.38	13738	
533.58	14220	
533.77	14924	
533.97	12733	
534.16	13672	
534.36	15216	
534.55	14238	
534.75	14040	
534.95	12874	
535.14	15157	
535.34	14188	
535.53	12342	
535.73	14357	
535.92	15643	
536.12	14295	
536.31	12529	
536.51	13705	
536.71	14564	
536.9	14193	
537.1	12734	
537.29	12916	
537.49	15186	
537.68	14076	
537.88	13220	
538.07	12504	
538.27	14413	
538.46	15616	
538.66	12399	
538.86	12824	
539.05	14405	
539.25	14828	
539.44	13193	
539.64	12685	
539.83	14213	
540.03	15341	
540.22	12514	
540.42	12611	
540.61	14440	
540.81	14618	
541	13039	
541.2	13691	
541.39	13931	
541.59	14411	
541.78	13447	
541.98	12300	
542.18	13545	
542.37	13562	
542.57	12665	
542.76	13268	
542.96	13455	
543.15	14190	
543.35	12674	
543.54	11999	
543.74	14326	
543.93	13936	
544.13	12502	
544.32	13555	
544.52	14251	
544.71	13384	
544.91	11586	
545.1	12834	
545.3	13617	
545.49	14194	
545.69	11545	
545.88	12089	
546.08	15132	
546.27	14729	
546.47	12649	
546.66	11993	
546.86	14316	
547.05	15025	
547.24	12243	
547.44	12023	
547.63	13298	
547.83	14334	
548.02	12419	
548.22	12508	
548.41	13046	
548.61	14463	
548.8	11927	
549	11870	
549.19	13592	
549.39	13917	
549.58	11411	
549.78	11993	
549.97	14013	
550.17	13416	
550.36	12985	
550.55	13887	
550.75	13383	
550.94	14379	
551.14	11700	
551.33	12054	
551.53	12779	
551.72	13872	
551.92	12080	
552.11	11857	
552.31	13861	
552.5	13817	
552.69	13465	
552.89	11429	
553.08	13693	
553.28	13351	
553.47	11752	
553.67	12896	
553.86	14293	
554.06	12779	
554.25	10964	
554.44	11503	
554.64	15021	
554.83	14631	
555.03	11521	
555.22	11794	
555.42	13869	
555.61	13570	
555.8	11668	
556	12002	
556.19	12708	
556.39	13878	
556.58	11649	
556.78	11725	
556.97	13452	
557.16	13257	
557.36	13002	
557.55	11317	
557.75	12328	
557.94	14153	
558.13	11382	
558.33	11169	
558.52	14003	
558.72	12655	
558.91	11290	
559.1	11495	
559.3	12520	
559.49	12097	
559.69	10849	
559.88	11823	
560.07	13325	
560.27	13738	
560.46	11962	
560.66	12050	
560.85	12972	
561.04	12174	
561.24	11125	
561.43	11271	
561.63	12398	
561.82	12791	
562.01	12647	
562.21	11638	
562.4	13231	
562.59	14274	
562.79	11514	
562.98	11285	
563.18	13139	
563.37	14729	
563.56	12165	
563.76	11153	
563.95	12691	
564.14	12710	
564.34	11726	
564.53	11269	
564.73	13201	
564.92	13657	
565.11	11723	
565.31	11126	
565.5	13861	
565.69	12846	
565.89	11454	
566.08	11668	
566.27	13659	
566.47	14376	
566.66	12226	
566.85	10892	
567.05	13332	
567.24	12699	
567.44	11354	
567.63	12781	
567.82	13596	
568.02	13186	
568.21	11301	
568.4	11811	
568.6	13225	
568.79	13207	
568.98	11234	
569.18	11449	
569.37	13204	
569.56	15237	
569.76	11843	
569.95	12666	
570.14	13554	
570.34	13497	
570.53	11157	
570.72	11107	
570.91	14025	
571.11	13147	
571.3	11616	
571.49	12650	
571.69	13082	
571.88	12789	
572.07	12334	
572.27	12130	
572.46	12751	
572.65	13843	
572.85	11532	
573.04	11811	
573.23	14060	
573.43	13179	
573.62	11303	
573.81	12150	
574	13519	
574.2	13254	
574.39	11865	
574.58	11924	
574.78	14536	
574.97	13721	
575.16	12383	
575.36	12508	
575.55	14220	
575.74	14131	
575.93	11475	
576.13	12639	
576.32	13450	
576.51	14003	
576.71	11965	
576.9	13292	
577.09	14345	
577.28	13773	
577.48	12458	
577.67	11369	
577.86	13620	
578.05	13896	
578.25	12173	
578.44	12082	
578.63	13622	
578.83	14828	
579.02	11359	
579.21	13015	
579.4	13826	
579.6	13588	
579.79	12301	
579.98	14535	
580.17	14332	
580.37	14304	
580.56	11801	
580.75	12542	
580.94	14872	
581.14	14640	
581.33	13156	
581.52	12028	
581.71	14276	
581.91	14923	
582.1	11746	
582.29	12304	
582.48	13805	
582.68	13831	
582.87	12722	
583.06	12401	
583.25	14248	
583.45	14086	
583.64	13248	
583.83	13910	
584.02	13687	
584.21	14214	
584.41	13046	
584.6	12503	
584.79	13897	
584.98	14719	
585.18	11837	
585.37	11784	
585.56	13450	
585.75	14261	
585.94	12011	
586.14	12689	
586.33	14680	
586.52	13732	
586.71	12390	
586.91	12112	
587.1	12961	
587.29	14032	
587.48	11882	
587.67	11818	
587.87	13885	
588.06	13816	
588.25	13042	
588.44	12174	
588.63	13309	
588.83	13775	
589.02	11560	
589.21	11340	
589.4	12639	
589.59	12519	
589.78	10228	
589.98	10472	
590.17	12013	
590.36	12551	
590.55	9775	
590.74	10584	
590.94	13761	
591.13	12398	
591.32	10470	
591.51	9996.1	
591.7	12955	
591.89	12391	
592.09	10185	
592.28	10598	
592.47	11534	
592.66	13578	
592.85	10187	
593.05	10514	
593.24	12241	
593.43	13007	
593.62	10568	
593.81	11094	
594	12360	
594.19	12501	
594.39	10411	
594.58	10270	
594.77	12635	
594.96	13205	
595.15	10246	
595.34	10911	
595.54	12631	
595.73	11540	
595.92	9684.8	
596.11	10832	
596.3	13003	
596.49	11754	
596.68	10620	
596.88	11060	
597.07	12841	
597.26	11641	
597.45	10095	
597.64	11344	
597.83	11938	
598.02	12591	
598.22	10200	
598.41	10875	
598.6	12320	
598.79	11839	
598.98	10332	
599.17	11208	
599.36	12285	
599.55	13555	
599.74	12319	
599.94	12137	
600.13	12823	
600.32	11704	
600.51	10045	
600.7	10224	
600.89	13480	
601.08	13523	
601.27	9997.5	
601.47	11001	
601.66	12812	
601.85	13510	
602.04	10710	
602.23	10816	
602.42	11884	
602.61	12424	
602.8	10527	
602.99	10272	
603.18	12230	
603.37	12451	
603.57	10969	
603.76	11403	
603.95	13291	
604.14	12734	
604.33	10471	
604.52	10766	
604.71	12382	
604.9	12031	
605.09	11456	
605.28	11181	
605.47	12981	
605.66	12710	
605.86	11038	
606.05	10443	
606.24	13026	
606.43	11635	
606.62	10783	
606.81	11518	
607	12891	
607.19	12065	
607.38	10047	
607.57	10406	
607.76	11854	
607.95	11457	
608.14	10797	
608.33	11387	
608.52	11923	
608.72	12827	
608.91	9966.8	
609.1	9855.5	
609.29	11912	
609.48	11465	
609.67	10895	
609.86	9901.9	
610.05	11473	
610.24	11952	
610.43	9819.3	
610.62	9525.8	
610.81	12980	
611	12733	
611.19	9947	
611.38	10706	
611.57	12234	
611.76	13601	
611.95	9692.4	
612.14	9523.1	
612.33	11983	
612.52	11505	
612.71	10282	
612.9	9538.1	
613.09	11088	
613.28	13514	
613.47	9884.2	
613.66	10993	
613.85	12108	
614.04	11559	
614.24	10056	
614.43	9325.1	
614.62	12270	
614.81	12108	
615	10630	
615.19	10677	
615.38	11377	
615.57	11880	
615.76	10452	
615.95	11535	
616.14	12220	
616.33	11914	
616.52	10765	
616.71	11146	
616.9	12225	
617.09	12098	
617.28	10221	
617.47	11490	
617.66	11447	
617.85	11423	
618.04	11308	
618.22	10682	
618.41	11830	
618.6	12850	
618.79	10584	
618.98	10331	
619.17	13033	
619.36	11470	
619.55	10629	
619.74	10595	
619.93	12459	
620.12	11873	
620.31	11203	
620.5	11402	
620.69	13128	
620.88	13381	
621.07	12186	
621.26	11163	
621.45	12651	
621.64	12618	
621.83	11111	
622.02	10403	
622.21	12633	
622.4	12501	
622.59	11839	
622.78	11516	
622.97	12105	
623.16	13193	
623.35	11210	
623.54	10259	
623.72	12331	
623.91	12430	
624.1	11501	
624.29	9992	
624.48	13507	
624.67	12678	
624.86	11440	
625.05	10374	
625.24	13609	
625.43	12050	
625.62	13168	
625.81	10645	
626	12960	
626.19	12438	
626.38	11469	
626.56	10707	
626.75	12103	
626.94	12897	
627.13	11282	
627.32	10044	
627.51	12770	
627.7	14033	
627.89	9910.8	
628.08	11329	
628.27	11848	
628.46	12117	
628.65	10358	
628.83	10094	
629.02	12658	
629.21	11950	
629.4	10826	
629.59	11089	
629.78	11930	
629.97	12891	
630.16	11140	
630.35	10645	
630.54	13413	
630.72	13054	
630.91	10599	
631.1	11262	
631.29	12557	
631.48	12714	
631.67	11247	
631.86	10753	
632.05	12063	
632.24	12237	
632.42	10386	
632.61	10856	
632.8	12220	
632.99	11916	
633.18	11056	
633.37	11404	
633.56	12506	
633.75	12363	
633.93	11013	
634.12	10769	
634.31	13357	
634.5	13044	
634.69	10798	
634.88	11228	
635.07	12392	
635.25	12863	
635.44	11588	
635.63	11813	
635.82	12074	
636.01	11697	
636.2	11607	
636.39	11169	
636.57	13300	
636.76	12992	
636.95	10576	
637.14	11915	
637.33	12563	
637.52	13446	
637.7	10209	
637.89	11189	
638.08	12111	
638.27	13626	
638.46	11275	
638.65	11688	
638.83	13532	
639.02	11832	
639.21	11174	
639.4	11703	
639.59	12326	
639.78	11864	
639.96	10285	
640.15	10262	
640.34	12090	
640.53	12217	
640.72	9933.3	
640.91	10292	
641.09	11516	
641.28	12969	
641.47	10292	
641.66	11170	
641.85	12277	
642.03	12379	
642.22	10902	
642.41	10475	
642.6	11540	
642.79	10974	
642.97	10131	
643.16	10755	
643.35	11547	
643.54	11363	
643.73	9897.8	
643.91	10796	
644.1	10972	
644.29	11695	
644.48	9921.7	
644.67	9934	
644.85	11206	
645.04	11307	
645.23	9303.9	
645.42	9581.8	
645.6	10877	
645.79	12052	
645.98	9567.4	
646.17	8471.8	
646.36	10433	
646.54	11024	
646.73	10119	
646.92	8897.7	
647.11	10583	
647.29	11631	
647.48	9013.8	
647.67	8858.8	
647.86	11876	
648.05	11966	
648.23	9420	
648.42	10740	
648.61	11348	
648.8	11022	
648.98	9005.6	
649.17	9442.5	
649.36	10593	
649.55	10157	
649.73	8974.2	
649.92	9872.6	
650.11	10406	
650.3	10830	
650.48	9127.8	
650.67	8902.5	
650.86	11071	
651.05	9925.1	
651.23	9135.3	
651.42	9056.1	
651.61	10503	
651.79	10700	
651.98	9300.5	
652.17	8912.8	
652.36	10989	
652.54	9927.9	
652.73	8928.5	
652.92	8725.7	
653.11	10915	
653.29	10905	
653.48	8088.8	
653.67	9090.9	
653.85	10598	
654.04	11602	
654.23	9163.3	
654.42	8584.4	
654.6	9839.1	
654.79	10623	
654.98	8078.6	
655.16	8592.6	
655.35	9373.6	
655.54	9458.2	
655.73	8162.5	
655.91	8049.2	
656.1	10664	
656.29	9503.9	
656.47	7762.5	
656.66	9610.4	
656.85	9848.7	
657.03	9890.3	
657.22	8416.5	
657.41	8563.2	
657.59	9924.5	
657.78	9853.5	
657.97	8091.5	
658.16	8937.3	
658.34	10733	
658.53	11116	
658.72	9734	
658.9	10454	
659.09	10151	
659.28	10224	
659.46	8631.5	
659.65	8567.3	
659.84	9854.8	
660.02	10352	
660.21	8513.4	
660.4	8434.9	
660.58	10907	
660.77	10232	
660.96	9052	
661.14	8032.8	
661.33	11422	
661.52	11274	
661.7	7967.3	
661.89	11718	
662.08	9784.5	
662.26	9417.2	
662.45	8259.5	
662.64	8403.5	
662.82	10433	
663.01	9699.2	
663.2	8417.8	
663.38	9213.8	
663.57	10350	
663.75	10248	
663.94	8757.1	
664.13	10025	
664.31	9704	
664.5	10475	
664.69	9084.1	
664.87	9476.6	
665.06	9578.3	
665.25	10269	
665.43	9710.8	
665.62	9807	
665.8	10661	
665.99	9833	
666.18	8609.7	
666.36	8817.2	
666.55	10518	
666.74	10444	
666.92	8159.8	
667.11	9920.4	
667.29	9697.1	
667.48	10443	
667.67	9580.4	
667.85	8701.8	
668.04	9890.3	
668.22	9882.8	
668.41	8718.2	
668.6	8830.8	
668.78	9721.7	
668.97	9850	
669.15	9063.6	
669.34	7991.9	
669.53	9563.3	
669.71	10009	
669.9	8148.2	
670.08	8872.5	
670.27	9694.4	
670.46	10115	
670.64	8957.8	
670.83	9225.4	
671.01	9415.2	
671.2	10136	
671.38	8216.5	
671.57	8060.1	
671.76	10735	
671.94	11320	
672.13	8010.3	
672.31	9172.9	
672.5	10361	
672.69	9684.8	
672.87	8268.3	
673.06	8578.3	
673.24	10277	
673.43	9695.1	
673.61	8987.2	
673.8	8555.7	
673.98	10210	
674.17	10408	
674.36	9084.8	
674.54	8956.4	
674.73	10062	
674.91	10240	
675.1	8743.5	
675.28	8269.7	
675.47	9878	
675.65	10406	
675.84	8514.1	
676.03	8907.3	
676.21	9602.9	
676.4	9197.4	
676.58	9328.5	
676.77	9056.8	
676.95	11211	
677.14	9542.9	
677.32	8174.8	
677.51	7974.1	
677.69	10354	
677.88	9221.3	
678.06	7971.4	
678.25	8072.4	
678.44	9910.1	
678.62	9580.4	
678.81	7824.6	
678.99	8848.6	
679.18	10655	
679.36	10212	
679.55	8485.4	
679.73	9136	
679.92	10167	
680.1	9614.5	
680.29	9734	
680.47	8366	
680.66	9515.5	
680.84	10383	
681.03	7783	
681.21	8912.8	
681.4	9551.7	
681.58	9415.9	
681.77	8080.6	
681.95	8127.7	
682.14	10393	
682.32	10790	
682.51	9045.2	
682.69	7816.4	
682.88	9368.8	
683.06	10034	
683.25	8601.5	
683.43	9175.6	
683.62	9617.9	
683.8	10058	
683.99	9188.6	
684.17	8416.5	
684.36	10730	
684.54	9369.5	
684.73	7302.4	
684.91	7472.4	
685.1	9400.9	
685.28	8822	
685.46	7906.5	
685.65	7989.1	
685.83	9652.1	
686.02	9055.4	
686.2	7514	
686.39	7735.9	
686.57	8649.3	
686.76	10409	
686.94	7675.1	
687.13	7871	
687.31	9654.1	
687.5	9151	
687.68	7193.1	
687.86	8509.3	
688.05	10931	
688.23	8710.7	
688.42	8596.7	
688.6	7832.1	
688.79	9168.1	
688.97	9086.8	
689.16	8193.9	
689.34	7140.6	
689.52	9848	
689.71	10132	
689.89	8568	
690.08	7722.9	
690.26	9353.8	
690.45	9192	
690.63	8602.2	
690.81	7845.1	
691	9037.7	
691.18	9007.6	
691.37	7893.6	
691.55	10178	
691.74	8906.6	
691.92	11082	
692.1	7931.1	
692.29	7356.3	
692.47	9170.8	
692.66	8496.3	
692.84	7671.7	
693.02	8281.3	
693.21	8621.9	
693.39	9164.7	
693.58	8366.6	
693.76	7867.6	
693.94	10541	
694.13	10326	
694.31	7935.2	
694.5	9009	
694.68	9212.4	
694.86	9506.7	
695.05	8286.8	
695.23	8364.6	
695.42	9885.5	
695.6	12323	
695.78	8944.8	
695.97	7904.5	
696.15	9923.8	
696.34	9303.9	
696.52	7676.5	
696.7	8426	
696.89	9549	
697.07	8968.1	
697.25	8337.3	
697.44	10007	
697.62	9484.1	
697.81	9828.9	
697.99	7999.4	
698.17	8553.7	
698.36	8776.2	
698.54	9471.2	
698.72	8370	
698.91	7202.7	
699.09	9075.2	
699.28	8938	
699.46	7992.5	
699.64	7907.9	
699.83	8857.5	
700.01	10105	
700.19	8780.3	
700.38	7054.6	
700.56	10189	
700.74	9080	
700.93	7673.7	
701.11	8463.6	
701.29	9703.3	
701.48	10752	
701.66	7853.3	
701.84	7952.9	
702.03	9200.8	
702.21	9918.3	
702.39	7342.7	
702.58	8003.5	
702.76	9561.3	
702.94	9702.6	
703.13	7391.8	
703.31	9930.6	
703.49	8933.9	
703.68	9942.9	
703.86	7609.6	
704.04	8644.5	
704.23	9473.2	
704.41	9897.8	
704.59	7838.9	
704.78	9042.5	
704.96	10571	
705.14	9950.4	
705.33	7680.6	
705.51	8374.8	
705.69	9245.9	
705.87	10117	
706.06	8802.9	
706.24	7542.7	
706.42	9625.5	
706.61	9811.8	
706.79	8784.4	
706.97	7581.6	
707.16	9064.3	
707.34	9637.1	
707.52	8561.9	
707.7	7808.2	
707.89	9245.9	
708.07	8871.8	
708.25	8635.6	
708.44	8809	
708.62	9151	
708.8	10348	
708.98	8957.1	
709.17	7959.8	
709.35	9460.3	
709.53	9510.8	
709.72	7638.9	
709.9	7740.6	
710.08	9717.6	
710.26	9799.5	
710.45	9156.5	
710.63	7955	
710.81	9351.7	
710.99	9424.1	
711.18	8469.7	
711.36	7840.3	
711.54	9167.4	
711.72	9907.4	
711.91	7967.3	
712.09	7288.7	
712.27	9213.1	
712.45	9809.1	
712.64	7925.6	
712.82	6889.4	
713	8425.3	
713.18	8633.6	
713.37	7000	
713.55	8135.9	
713.73	9184.5	
713.91	7668.3	
714.1	7070.3	
714.28	6464.1	
714.46	8665	
714.64	7726.3	
714.83	5694.7	
715.01	6513.2	
715.19	7679.2	
715.37	7080.5	
715.55	6143.9	
715.74	6475.7	
715.92	8609.7	
716.1	6563.1	
716.28	7502.4	
716.47	6561	
716.65	7312.6	
716.83	7442.3	
717.01	6405.4	
717.19	6475	
717.38	9533.3	
717.56	7157	
717.74	6898.9	
717.92	6012.2	
718.1	8477.9	
718.29	7755	
718.47	5722	
718.65	6479.8	
718.83	8520.9	
719.01	8435.6	
719.2	5760.3	
719.38	6836.1	
719.56	8165.3	
719.74	9759.3	
719.92	6264.1	
720.11	7325.6	
720.29	8017.8	
720.47	7141.9	
720.65	5718.6	
720.83	6597.2	
721.02	7374.7	
721.2	7185	
721.38	6593.8	
721.56	5796.4	
721.74	6587	
721.92	6787.7	
722.11	7133.1	
722.29	6775.4	
722.47	8078.6	
722.65	7284.6	
722.83	5829.2	
723.01	6787	
723.2	7406.8	
723.38	7671.7	
723.56	5177.3	
723.74	6425.8	
723.92	6827.2	
724.1	7993.9	
724.29	5736.4	
724.47	6881.2	
724.65	6878.4	
724.83	6895.5	
725.01	5541.8	
725.19	6564.4	
725.37	6868.2	
725.56	6959.7	
725.74	5459.2	
725.92	5769.8	
726.1	6809.5	
726.28	7182.2	
726.46	6154.1	
726.64	5876.3	
726.83	7111.9	
727.01	7447.8	
727.19	5401.2	
727.37	6260.6	
727.55	7226.6	
727.73	7822.6	
727.91	5411.4	
728.09	5292.6	
728.28	7841	
728.46	8469.7	
728.64	6569.9	
728.82	6535.8	
729	9022	
729.18	8291.5	
729.36	5817.6	
729.54	8131.8	
729.72	9469.1	
729.91	7716.7	
730.09	7849.2	
730.27	6539.8	
730.45	7634.8	
730.63	8317.5	
730.81	7148.1	
730.99	6255.9	
731.17	8773.5	
731.35	7281.9	
731.53	6799.9	
731.71	6321.4	
731.9	8456.7	
732.08	8721.6	
732.26	6537.8	
732.44	6314.6	
732.62	8767.4	
732.8	8272.4	
732.98	6947.4	
733.16	6057.9	
733.34	8161.2	
733.52	6968.6	
733.7	6526.9	
733.88	6824.5	
734.07	8062.9	
734.25	7830.1	
734.43	6025.1	
734.61	7683.3	
734.79	9367.4	
734.97	7681.9	
735.15	6122.7	
735.33	6522.8	
735.51	8065.6	
735.69	7690.8	
735.87	7849.2	
736.05	6847	
736.23	7892.2	
736.41	7666.2	
736.59	6574.7	
736.77	6734.4	
736.95	8372.1	
737.13	7729	
737.32	6277.7	
737.5	6473.6	
737.68	8931.9	
737.86	7711.3	
738.04	5971.2	
738.22	7993.2	
738.4	7481.2	
738.58	7858.1	
738.76	6676.4	
738.94	5671.5	
739.12	7585	
739.3	7562.5	
739.48	7385	
739.66	7099.6	
739.84	7952.3	
740.02	7963.9	
740.2	5771.2	
740.38	6105.7	
740.56	8324.3	
740.74	7114.6	
740.92	6832	
741.1	6766.5	
741.28	7734.5	
741.46	7490.8	
741.64	6285.2	
741.82	6803.4	
742	7747.5	
742.18	7653.9	
742.36	6563.7	
742.54	6106.4	
742.72	8323.6	
742.9	6984.3	
743.08	6894.1	
743.26	5650.3	
743.44	8490.9	
743.62	8274.5	
743.8	7030.7	
743.98	6143.2	
744.16	8025.3	
744.34	7681.2	
744.52	6943.3	
744.7	6864.8	
744.88	8201.4	
745.06	7595.2	
745.24	6875	
745.42	7079.1	
745.6	8195.3	
745.78	7859.4	
745.96	5674.9	
746.14	5997.8	
746.32	8882	
746.5	8100.4	
746.68	6645	
746.86	6057.2	
747.03	8630.1	
747.21	6755.6	
747.39	6543.3	
747.57	5999.9	
747.75	7726.3	
747.93	8092.9	
748.11	6066.1	
748.29	5917.9	
748.47	9501.9	
748.65	7386.3	
748.83	6733.7	
749.01	6570.6	
749.19	7980.3	
749.37	7147.4	
749.55	6328.9	
749.73	6378.1	
749.91	7582.3	
750.09	7286	
750.26	6511.9	
750.44	5752.7	
750.62	7604.8	
750.8	7551.5	
750.98	5784.1	
751.16	6115.9	
751.34	7708.6	
751.52	7006.1	
751.7	6858	
751.88	5732.3	
752.06	8088.1	
752.24	7970.7	
752.42	5612.1	
752.59	6006.7	
752.77	7594.6	
752.95	8824.7	
753.13	6817.7	
753.31	6069.5	
753.49	7215	
753.67	7632.8	
753.85	6381.5	
754.03	5950.7	
754.21	7869	
754.38	8274.5	
754.56	6055.2	
754.74	4954	
754.92	6976.7	
755.1	7724.9	
755.28	4849.6	
755.46	4776.5	
755.64	8039.6	
755.82	8114.7	
755.99	4655.7	
756.17	4660.5	
756.35	5226.4	
756.53	6833.4	
756.71	3495.2	
756.89	4434.5	
757.07	6386.2	
757.25	5535	
757.42	5217.5	
757.6	6126.2	
757.78	6776	
757.96	5664	
758.14	4989.5	
758.32	4457.1	
758.5	5143.8	
758.67	6029.9	
758.85	4696.7	
759.03	4833.9	
759.21	6242.9	
759.39	5567.1	
759.57	4277.5	
759.75	5446.9	
759.92	6913.3	
760.1	6121.4	
760.28	6025.1	
760.46	6228.6	
760.64	6059.3	
760.82	5823.7	
760.99	5953.4	
761.17	5088.5	
761.35	6979.5	
761.53	5980.1	
761.71	5253	
761.89	6032.6	
762.06	7013.6	
762.24	6504.3	
762.42	5457.2	
762.6	5218.2	
762.78	6562.4	
762.96	7309.2	
763.13	5934.3	
763.31	5534.3	
763.49	7550.9	
763.67	6599.9	
763.85	6464.8	
764.02	7071	
764.2	7767.9	
764.38	6866.8	
764.56	5464	
764.74	6376.7	
764.91	7873.8	
765.09	6653.2	
765.27	5158.8	
765.45	4933.6	
765.63	7867.6	
765.8	7727	
765.98	4683.7	
766.16	5025	
766.34	6195.1	
766.52	5955.5	
766.69	5967.8	
766.87	4751.3	
767.05	6560.3	
767.23	7436.9	
767.41	5203.9	
767.58	5365	
767.76	7151.5	
767.94	7287.4	
768.12	5182.7	
768.29	6019	
768.47	6690	
768.65	7385	
768.83	4769.7	
769	6009.4	
769.18	6160.3	
769.36	6849.8	
769.54	5965.7	
769.72	4758.1	
769.89	7148.8	
770.07	7287.4	
770.25	5068	
770.43	6447.7	
770.6	7915.4	
770.78	8397.4	
770.96	5251	
771.14	6012.8	
771.31	7081.9	
771.49	6423.8	
771.67	4407.2	
771.85	4658.4	
772.02	5453.1	
772.2	6305.7	
772.38	5323.4	
772.55	4983.4	
772.73	6584.2	
772.91	6391.7	
773.09	5296	
773.26	5270.8	
773.44	6537.1	
773.62	6167.8	
773.8	4649.6	
773.97	4422.9	
774.15	6660.7	
774.33	6193.1	
774.5	4577.2	
774.68	4952.7	
774.86	6730.3	
775.04	6223.8	
775.21	4578.6	
775.39	4640.7	
775.57	6387.6	
775.74	6868.2	
775.92	4453	
776.1	4303.5	
776.27	6366.5	
776.45	7690.1	
776.63	4583.4	
776.81	4145.8	
776.98	5933.6	
777.16	7130.3	
777.34	4717.8	
777.51	4642.7	
777.69	5914.5	
777.87	5764.3	
778.04	4694.6	
778.22	5329.5	
778.4	5705	
778.57	6416.3	
778.75	3958	
778.93	4240	
779.1	5458.5	
779.28	5358.9	
779.46	3859.7	
779.64	4419.5	
779.81	6503.7	
779.99	7390.4	
780.17	5231.9	
780.34	5366.4	
780.52	5937.1	
780.69	6166.4	
780.87	4776.5	
781.05	4244.8	
781.22	6006.7	
781.4	6063.4	
781.58	4468.7	
781.75	3493.8	
781.93	5997.1	
782.11	5358.2	
782.28	5291.3	
782.46	4353.3	
782.64	5161.6	
782.81	6171.2	
782.99	4453	
783.17	4378.6	
783.34	6023.1	
783.52	5233.9	
783.69	4640.7	
783.87	5470.1	
784.05	5352	
784.22	5350.7	
784.4	5403.2	
784.58	4682.3	
784.75	6200.6	
784.93	5331.5	
785.1	4317.8	
785.28	4949.3	
785.46	5864	
785.63	5294.7	
785.81	4197.7	
785.99	4069.3	
786.16	5502.2	
786.34	5797.1	
786.51	4195.6	
786.69	4554	
786.87	5002.5	
787.04	5551.4	
787.22	4053.6	
787.39	5033.9	
787.57	5233.2	
787.75	6464.1	
787.92	5137	
788.1	5165.7	
788.27	5276.3	
788.45	5038	
788.63	4797	
788.8	3552.5	
788.98	5632.6	
789.15	4932.9	
789.33	3599	
789.5	4308.2	
789.68	6241.5	
789.86	6313.9	
790.03	4732.9	
790.21	4127.3	
790.38	6164.4	
790.56	5330.2	
790.73	3962.1	
790.91	3957.4	
791.09	5211.4	
791.26	5993	
791.44	4194.9	
791.61	3613.3	
791.79	5225.1	
791.96	5292.6	
792.14	3718.4	
792.32	3385.3	
792.49	5162.2	
792.67	5311.1	
792.84	3805.8	
793.02	3597.6	
793.19	5675.6	
793.37	6400.6	
793.54	3358.7	
793.72	3687.7	
793.89	6561	
794.07	5214.1	
794.25	4318.5	
794.42	3380.5	
794.6	6277.7	
794.77	5885.2	
794.95	4605.2	
795.12	4004.5	
795.3	5129.5	
795.47	5849	
795.65	4338.3	
795.82	4274.1	
796	4994.3	
796.17	6989	
796.35	4117.1	
796.52	4866.7	
796.7	5736.4	
796.87	5816.9	
797.05	5027.8	
797.22	5014.1	
797.4	5728.2	
797.57	6872.3	
797.75	4222.9	
797.92	4040	
798.1	6090	
798.27	5119.9	
798.45	3422.8	
798.62	3632.4	
798.8	5413.5	
798.97	5999.9	
799.15	4421.6	
799.32	4227.7	
799.5	4730.8	
799.67	5541.1	
799.85	4588.8	
800.02	3301.3	
800.2	5080.3	
800.37	5427.1	
800.55	4686.4	
800.72	3930.1	
800.9	5945.9	
801.07	6393.8	
801.25	5350	
801.42	4315.8	
801.6	5974.6	
801.77	5710.4	
801.95	4011.3	
802.12	3850.2	
802.29	5705.6	
802.47	5604.6	
802.64	4347.8	
802.82	3259.7	
802.99	5038.7	
803.17	6123.4	
803.34	4151.9	
803.52	3804.4	
803.69	6772.6	
803.87	4857.8	
804.04	4137.6	
804.21	4260.5	
804.39	6171.2	
804.56	5297.4	
804.74	3564.8	
804.91	4343.1	
805.09	5084.4	
805.26	5244.8	
805.44	3587.4	
805.61	3992.2	
805.78	5793.7	
805.96	5764.3	
806.13	4386.1	
806.31	4655.7	
806.48	4631.1	
806.66	5187.5	
806.83	4317.1	
807	4227.7	
807.18	5016.8	
807.35	5449.6	
807.53	4141	
807.7	3361.4	
807.87	6304.3	
808.05	5156.1	
808.22	4638.6	
808.4	3336.8	
808.57	5106.3	
808.74	4780.6	
808.92	3814	
809.09	4868.7	
809.27	5005.2	
809.44	5682.4	
809.61	3381.9	
809.79	3728.7	
809.96	6208.8	
810.14	5894.7	
810.31	3263.8	
810.48	4037.9	
810.66	5170.4	
810.83	6004	
811.01	3829.7	
811.18	4267.3	
811.35	5872.9	
811.53	4593.6	
811.7	4681.7	
811.87	4296	
812.05	5099.4	
812.22	4949.9	
812.39	3680.2	
812.57	3615.3	
812.74	5152	
812.92	6821.1	
813.09	4050.9	
813.26	4375.1	
813.44	6533.7	
813.61	5076.9	
813.78	3338.2	
813.96	4515.1	
814.13	5130.2	
814.3	4787.5	
814.48	4868	
814.65	4029.7	
814.82	6434.7	
815	4895.3	
815.17	4095.3	
815.34	5033.9	
815.52	5027.1	
815.69	5061.2	
815.87	4076.1	
816.04	3514.3	
816.21	5195.7	
816.38	4536.9	
816.56	3964.2	
816.73	3637.9	
816.9	6492.7	
817.08	5877	
817.25	3718.4	
817.42	4713.7	
817.6	4679.6	
817.77	5167.7	
817.94	4209.9	
818.12	3674.1	
818.29	4831.2	
818.46	7707.2	
818.64	3846.8	
818.81	3607.8	
818.98	4788.8	
819.16	7043.6	
819.33	4477.5	
819.5	4144.4	
819.67	5504.3	
819.85	6161	
820.02	4092.5	
820.19	4288.4	
820.37	5359.5	
820.54	4900.8	
820.71	4226.3	
820.88	5179.3	
821.06	5352	
821.23	4902.2	
821.4	4266.6	
821.58	4138.3	
821.75	5849.7	
821.92	5285.1	
822.09	3349.8	
822.27	3464.5	
822.44	5102.2	
822.61	5029.1	
822.79	3393.5	
822.96	6498.9	
823.13	5627.1	
823.3	4835.9	
823.48	3881.6	
823.65	3548.4	
823.82	5901.6	
823.99	4700.8	
824.17	4994.3	
824.34	3539.6	
824.51	6752.8	
824.68	5163.6	
824.86	3730.7	
825.03	4144.4	
825.2	5083.7	
825.37	6239.5	
825.55	3678.8	
825.72	4182.6	
825.89	6812.9	
826.06	6309.8	
826.24	4113	
826.41	4050.2	
826.58	6220.4	
826.75	5421	
826.92	3150.5	
827.1	3513.6	
827.27	8553	
827.44	6800.6	
827.61	3872.7	
827.79	4676.2	
827.96	4818.9	
828.13	5221.6	
828.3	3976.5	
828.47	3346.4	
828.65	5329.5	
828.82	5296	
828.99	5193.6	
829.16	4504.2	
829.34	5747.3	
829.51	5500.8	
829.68	4080.2	
829.85	4252.9	
830.02	6045.6	
830.2	5735.7	
830.37	3166.8	
830.54	4984.8	
830.71	6539.2	
830.88	5093.3	
831.05	3278.1	
831.23	3756.7	
831.4	6332.3	
831.57	7042.3	
831.74	3891.1	
831.91	3378.5	
832.09	5292	
832.26	5716.6	
832.43	3964.2	
832.6	4489.1	
832.77	5376.6	
832.94	6092.7	
833.12	3125.2	
833.29	3884.3	
833.46	5188.9	
833.63	7333.1	
833.8	4296	
833.97	3993.5	
834.15	5743.2	
834.32	5487.9	
834.49	4101.4	
834.66	4220.2	
834.83	5932.3	
835	4838.7	
835.17	3848.1	
835.35	3841.3	
835.52	5598.5	
835.69	5516.5	
835.86	4024.3	
836.03	3322.5	
836.2	5688.6	
836.37	5313.8	
836.55	3958	
836.72	3724.6	
836.89	5304.9	
837.06	5789.6	
837.23	4007.9	
837.4	4390.8	
837.57	6673.6	
837.75	7262.1	
837.92	3622.9	
838.09	3855.6	
838.26	5259.9	
838.43	5990.3	
838.6	4162.2	
838.77	3727.3	
838.94	6930.3	
839.11	6593.1	
839.29	3966.2	
839.46	3087.7	
839.63	5707	
839.8	5427.8	
839.97	3870.7	
840.14	3834.5	
840.31	5437.4	
840.48	5757.5	
840.65	3183.2	
840.82	3737.5	
841	5721.3	
841.17	5702.2	
841.34	3592.8	
841.51	3566.9	
841.68	5558.9	
841.85	5485.8	
842.02	3723.2	
842.19	3016	
842.36	5431.2	
842.53	5470.1	
842.7	3521.1	
842.87	4344.4	
843.05	7207.5	
843.22	5412.1	
843.39	3401	
843.56	3611.9	
843.73	5208.7	
843.9	5778	
844.07	5709.7	
844.24	4838	
844.41	8458.8	
844.58	4945.2	
844.75	3424.9	
844.92	3741	
845.09	5726.1	
845.26	5738.4	
845.43	3517.7	
845.6	3753.2	
845.77	5703.6	
845.94	5494.7	
846.12	3927.3	
846.29	4156	
846.46	5846.3	
846.63	5728.9	
846.8	3531.4	
846.97	4186.7	
847.14	6133.7	
847.31	5638.1	
847.48	3984	
847.65	4392.9	
847.82	6016.2	
847.99	6003.3	
848.16	4712.4	
848.33	4348.5	
848.5	5303.6	
848.67	6260.6	
848.84	3469.3	
849.01	3667.2	
849.18	5135.6	
849.35	4784.1	
849.52	4426.3	
849.69	3453.6	
849.86	5904.3	
850.03	6159.6	
850.2	3549.1	
850.37	4326	
850.54	6066.8	
850.71	5345.9	
850.88	4309.6	
851.05	3489.1	
851.22	5580.7	
851.39	6285.9	
851.56	3305.4	
851.73	4017.4	
851.9	5031.2	
852.07	5892.7	
852.24	3906.2	
852.41	3510.9	
852.58	5595.7	
852.75	5085.1	
852.92	3917.8	
853.09	3449.5	
853.26	5313.8	
853.43	6154.8	
853.6	3460.4	
853.77	3006.4	
853.94	6240.2	
854.11	5654.4	
854.28	5251.7	
854.44	3814.7	
854.61	6707.8	
854.78	5778	
854.95	3538.2	
855.12	4372.4	
855.29	4600.4	
855.46	6424.5	
855.63	3449.5	
855.8	4915.8	
855.97	5264.6	
856.14	6006	
856.31	4954.7	
856.48	3852.2	
856.65	5229.8	
856.82	4942.4	
856.99	3375.7	
857.16	3765.5	
857.33	6978.1	
857.49	5343.2	
857.66	3850.2	
857.83	4106.2	
858	5375.2	
858.17	5503.6	
858.34	3377.8	
858.51	3507.5	
858.68	6445	
858.85	6445	
859.02	4071.4	
859.19	4338.3	
859.36	4999.1	
859.52	5046.9	
859.69	3546.4	
859.86	4171.7	
860.03	5030.5	
860.2	6326.9	
860.37	3173.7	
860.54	3551.2	
860.71	5997.1	
860.88	6378.1	
861.05	3941	
861.21	4429.8	
861.38	6397.9	
861.55	4847.5	
861.72	3223.5	
861.89	3894.6	
862.06	5996.5	
862.23	6548	
862.4	3413.3	
862.56	3653.6	
862.73	5862.7	
862.9	5514.5	
863.07	4135.5	
863.24	3181.9	
863.41	4894	
863.58	5067.4	
863.75	3625.6	
863.91	4027	
864.08	6363.7	
864.25	5913.9	
864.42	4416.1	
864.59	5024.3	
864.76	6668.9	
864.93	5031.9	
865.09	3426.3	
865.26	3779.9	
865.43	6207.4	
865.6	6624.5	
865.77	3054.2	
865.94	3507.5	
866.1	6267.5	
866.27	5941.2	
866.44	5299.5	
866.61	3292.5	
866.78	5423.7	
866.95	5879.7	
867.11	3369.6	
867.28	3097.2	
867.45	6060.6	
867.62	5023.7	
867.79	4060.4	
867.96	3506.8	
868.12	4999.8	
868.29	6012.8	
868.46	3515.7	
868.63	4696	
868.8	6193.7	
868.97	5944.6	
869.13	3705.5	
869.3	3704.8	
869.47	5892	
869.64	6066.1	
869.81	3513.6	
869.97	3537.5	
870.14	5733.6	
870.31	6452.5	
870.48	3401.7	
870.65	4403.8	
870.81	5359.5	
870.98	5298.1	
871.15	4043.4	
871.32	3666.5	
871.48	5773.9	
871.65	6470.9	
871.82	3489.1	
871.99	3826.3	
872.16	6817.7	
872.32	6204	
872.49	3550.5	
872.66	3568.2	
872.83	6008.1	
872.99	5218.2	
873.16	4056.3	
873.33	3433.1	
873.5	5630.5	
873.67	5588.9	
873.83	3715	
874	4705.5	
874.17	5634.6	
874.34	6827.9	
874.5	4578.6	
874.67	4410.6	
874.84	6317.3	
875.01	4994.3	
875.17	5000.5	
875.34	3477.5	
875.51	5600.5	
875.68	6832	
875.84	4234.5	
876.01	5202.5	
876.18	5883.1	
876.34	5813.5	
876.51	3472.7	
876.68	3439.9	
876.85	5402.5	
877.01	6206.7	
877.18	5081	
877.35	3474.7	
877.52	5466.7	
877.68	4884.4	
877.85	3416	
878.02	3495.2	
878.18	5505.6	
878.35	5188.2	
878.52	2799.6	
878.69	3962.8	
878.85	5947.3	
879.02	5847.6	
879.19	5016.2	
879.35	3816	
879.52	5810.8	
879.69	6126.8	
879.86	3045.3	
880.02	3939.6	
880.19	5460.6	
880.36	6675.7	
880.52	4063.2	
880.69	4155.3	
880.86	5991	
881.02	6065.4	
881.19	3886.4	
881.36	3810.6	
881.52	5827.2	
881.69	5201.8	
881.86	3773	
882.02	3712.3	
882.19	6162.3	
882.36	7202.7	
882.52	3596.9	
882.69	4942.4	
882.86	5636	
883.02	5598.5	
883.19	4287.8	
883.36	4065.2	
883.52	6032.6	
883.69	6876.4	
883.86	3571.7	
884.02	3173	
884.19	5970.5	
884.36	5524.7	
884.52	3952.6	
884.69	3742.3	
884.86	5178.6	
885.02	6557.6	
885.19	3934.8	
885.36	4058.4	
885.52	5495.4	
885.69	5678.3	
885.86	5076.9	
886.02	4612.7	
886.19	5908.4	
886.35	5416.2	
886.52	3956.7	
886.69	4925.4	
886.85	5031.2	
887.02	6305.7	
887.19	6305.7	
887.35	6305.7	
887.52	6305.7	
887.68	6305.7	
887.85	6305.7	
888.02	6305.7	
888.18	6305.7	
888.35	6305.7	
888.51	6305.7	
888.68	6305.7	
888.85	6305.7	
889.01	6305.7	
889.18	6305.7	
889.35	6305.7	
889.51	6305.7	
889.68	6305.7	
889.84	6305.7	
890.01	6305.7	
890.17	6305.7	
890.34	6305.7	
890.51	6305.7	
890.67	6305.7	
890.84	6305.7	
891	6305.7	
891.17	6305.7	
891.34	6305.7	
891.5	6305.7	
891.67	6305.7	
891.83	6305.7	
892	6305.7	
892.16	6305.7	
892.33	6305.7	
892.5	6305.7	
892.66	6305.7	
892.83	6305.7	
892.99	6305.7	
893.16	6305.7	
893.32	6305.7	
893.49	6305.7	
893.65	6305.7	
893.82	6305.7	
893.99	6305.7	
894.15	6305.7	
894.32	6305.7	
894.48	6305.7	
894.65	6305.7	
894.81	6305.7	
894.98	6305.7	
895.14	6305.7	
895.31	6305.7	
895.47	6305.7	
895.64	6305.7	
895.81	6305.7	
895.97	6305.7	
896.14	6305.7	
896.3	6305.7	
896.47	6305.7	
896.63	6305.7	
896.8	6305.7	
896.96	6305.7	
897.13	6305.7	
897.29	6305.7	
897.46	6305.7	
897.62	6305.7	
897.79	6305.7	
897.95	6305.7	
898.12	6305.7	
898.28	6305.7	
898.45	6305.7	
898.61	6305.7	
898.78	6305.7	
898.94	6305.7	
899.11	6305.7	
899.27	6305.7	
899.44	6305.7	
899.6	6305.7	
899.77	6305.7	
899.93	6305.7	
900.1	6305.7	
900.26	6305.7	
900.43	6305.7	
900.59	6305.7	
900.76	6305.7	
900.92	6305.7	
901.09	6305.7	
901.25	6305.7	
901.42	6305.7	
901.58	6305.7	
901.75	6305.7	
901.91	6305.7	
902.07	6305.7	
902.24	6305.7	
902.4	6305.7	
902.57	6305.7	
902.73	6305.7	
902.9	6305.7	
903.06	6305.7	
903.23	6305.7	
903.39	6305.7	
903.56	6305.7	
903.72	6305.7	
903.88	6305.7	
904.05	6305.7	
904.21	6305.7	
904.38	6305.7	
904.54	6305.7	
904.71	6305.7	
904.87	6305.7	
905.03	6305.7	
905.2	6305.7	
905.36	6305.7	
905.53	6305.7	
905.69	6305.7	
905.86	6305.7	
906.02	6305.7	
906.18	6305.7	
906.35	6305.7	
906.51	6305.7	
906.68	6305.7	
906.84	6305.7	
907.01	6305.7	
907.17	6305.7	
907.33	6305.7	
907.5	6305.7	
907.66	6305.7	
907.83	6305.7	
907.99	6305.7	
908.15	6305.7	
908.32	6305.7	
908.48	6305.7	
908.65	6305.7	
908.81	6305.7	
908.97	6305.7	
909.14	6305.7	
909.3	6305.7	
909.47	6305.7	
909.63	6305.7	
909.79	6305.7	
909.96	6305.7	
910.12	6305.7	
910.28	6305.7	
910.45	6305.7	
910.61	6305.7	
910.78	6305.7	
910.94	6305.7	
911.1	6305.7	
911.27	6305.7	
911.43	6305.7	
911.59	6305.7	
911.76	6305.7	
911.92	6305.7	
912.08	6305.7	
912.25	6305.7	
912.41	6305.7	
912.57	6305.7	
912.74	6305.7	
912.9	6305.7	
913.07	6305.7	
913.23	6305.7	
913.39	6305.7	
913.56	6305.7	
913.72	6305.7	
913.88	6305.7	
914.05	6305.7	
914.21	6305.7	
914.37	6305.7	
914.54	6305.7	
914.7	6305.7	
914.86	6305.7	
915.03	6305.7	
915.19	6305.7	
