Wavelength	Intensities	
nm	a.u.	
179.22	1913.3	
179.44	1914.5	
179.65	1912.1	
179.86	1916.9	
180.08	1909.4	
180.29	4971.1	
180.51	3534.1	
180.72	5683.8	
180.94	6677.7	
181.15	3248.8	
181.37	3158.7	
181.58	5492.7	
181.79	5812.8	
182.01	3401.7	
182.22	3687	
182.44	5771.9	
182.65	4858.5	
182.87	4588.1	
183.08	3994.9	
183.29	6053.8	
183.51	4985.4	
183.72	3676.8	
183.94	5375.2	
184.15	5382.7	
184.37	5396.4	
184.58	3281.5	
184.79	4454.3	
185.01	5067.4	
185.22	5802.6	
185.44	4754.7	
185.65	3908.2	
185.86	5311.1	
186.08	4909.7	
186.29	3091.8	
186.51	3357.3	
186.72	5102.9	
186.94	5935.7	
187.15	3952.6	
187.36	4046.8	
187.58	7819.8	
187.79	5552	
188.01	4267.3	
188.22	6577.4	
188.43	6681.8	
188.65	5758.9	
188.86	3368.9	
189.08	4028.4	
189.29	5243.5	
189.5	5291.3	
189.72	3762.8	
189.93	3848.1	
190.15	6010.8	
190.36	7210.2	
190.57	4149.2	
190.79	4012	
191	6040.1	
191.22	6044.2	
191.43	4141.7	
191.64	3405.8	
191.86	6289.3	
192.07	5978	
192.29	3539.6	
192.5	3788.1	
192.71	6040.8	
192.93	5156.1	
193.14	3703.4	
193.35	3833.1	
193.57	5185.5	
193.78	5988.3	
194	3044.6	
194.21	3728.7	
194.42	4989.5	
194.64	5436.7	
194.85	4048.2	
195.07	4769	
195.28	5537.7	
195.49	4714.4	
195.71	4990.9	
195.92	3482.9	
196.13	5659.2	
196.35	5741.1	
196.56	5397.8	
196.78	4068.6	
196.99	7075	
197.2	6612.9	
197.42	4638.6	
197.63	4055.7	
197.84	4850.3	
198.06	5644.9	
198.27	3772.4	
198.48	5082.4	
198.7	5233.2	
198.91	5341.1	
199.13	4147.8	
199.34	4111.6	
199.55	5838.1	
199.77	4718.5	
199.98	3598.3	
200.19	4164.2	
200.41	5236	
200.62	5044.8	
200.83	4231.1	
201.05	4569	
201.26	5341.8	
201.47	5046.9	
201.69	3645.4	
201.9	3450.1	
202.11	5418.2	
202.33	6483.9	
202.54	3865.9	
202.76	4286.4	
202.97	5548.6	
203.18	5550	
203.4	4247.5	
203.61	4186.7	
203.82	5473.5	
204.04	5121.3	
204.25	4094.6	
204.46	4042.7	
204.68	5448.3	
204.89	5672.2	
205.1	3963.5	
205.32	3449.5	
205.53	5898.8	
205.74	5958.2	
205.96	2930	
206.17	4139.6	
206.38	5776	
206.6	5987.6	
206.81	4660.5	
207.02	3830.4	
207.24	5636	
207.45	6088.6	
207.66	3902.1	
207.88	3290.4	
208.09	5589.6	
208.3	5420.3	
208.52	3545	
208.73	3874.8	
208.94	5483.8	
209.15	6195.1	
209.37	3865.9	
209.58	4099.4	
209.79	5943.9	
210.01	5227.8	
210.22	3106.1	
210.43	3298.6	
210.65	5381.4	
210.86	5874.3	
211.07	3918.4	
211.29	3545.7	
211.5	5808	
211.71	5350	
211.93	3613.3	
212.14	3578.5	
212.35	5341.8	
212.56	5655.1	
212.78	4131.4	
212.99	3352.5	
213.2	6401.3	
213.42	5227.1	
213.63	3707.5	
213.84	3960.8	
214.06	4810.7	
214.27	4913.8	
214.48	3876.1	
214.69	4134.8	
214.91	6134.3	
215.12	6204.7	
215.33	4205.2	
215.55	4617.5	
215.76	6649.8	
215.97	5811.5	
216.18	4013.3	
216.4	3887.7	
216.61	5137.7	
216.82	5932.3	
217.04	3538.2	
217.25	3717.7	
217.46	6087.2	
217.67	5863.3	
217.89	3234.4	
218.1	3318.4	
218.31	5567.7	
218.53	5608	
218.74	3751.9	
218.95	3640.6	
219.16	5349.3	
219.38	6336.4	
219.59	3627	
219.8	4373.1	
220.01	7041.6	
220.23	5478.3	
220.44	4809.3	
220.65	3558.7	
220.87	5495.4	
221.08	6111.1	
221.29	3299.3	
221.5	4422.2	
221.72	7523.6	
221.93	5137.7	
222.14	4165.6	
222.35	4847.5	
222.57	5527.5	
222.78	5823.7	
222.99	3892.5	
223.2	4240.7	
223.42	5702.9	
223.63	5868.1	
223.84	2997.5	
224.05	2983.2	
224.27	7010.2	
224.48	6389.7	
224.69	4816.1	
224.9	4131.4	
225.12	5626.5	
225.33	5434.6	
225.54	3248.8	
225.75	3624.9	
225.97	5012.7	
226.18	5335.6	
226.39	3956.7	
226.6	3726.6	
226.82	5180.7	
227.03	5077.6	
227.24	4115.7	
227.45	3422.2	
227.67	5812.1	
227.88	6408.8	
228.09	4571.1	
228.3	4579.9	
228.52	5883.1	
228.73	5337.7	
228.94	3839.9	
229.15	3336.1	
229.36	5298.1	
229.58	5298.8	
229.79	3842.7	
230	4490.5	
230.21	6492.7	
230.43	5528.2	
230.64	4097.3	
230.85	4194.2	
231.06	5930.2	
231.28	5864	
231.49	3361.4	
231.7	4038.6	
231.91	5783.5	
232.12	5490.6	
232.34	3474	
232.55	3951.9	
232.76	6096.8	
232.97	5658.5	
233.18	3600.3	
233.4	4040	
233.61	5677	
233.82	5175.9	
234.03	3752.6	
234.25	3681.6	
234.46	7587	
234.67	5494	
234.88	4227.7	
235.09	3631	
235.31	5813.5	
235.52	5296.7	
235.73	4090.5	
235.94	3380.5	
236.15	5186.1	
236.37	6597.2	
236.58	3575.8	
236.79	3923.2	
237	5780.1	
237.21	4983.4	
237.43	4188.8	
237.64	3289.7	
237.85	9909.4	
238.06	5038.7	
238.27	4372.4	
238.48	3419.4	
238.7	5824.4	
238.91	5332.9	
239.12	3887.7	
239.33	4030.4	
239.54	4996.4	
239.76	5374.6	
239.97	3893.2	
240.18	3858.4	
240.39	6865.5	
240.6	5747.3	
240.82	4104.1	
241.03	3337.5	
241.24	5427.8	
241.45	6294.8	
241.66	3547.1	
241.87	4220.9	
242.09	6156.2	
242.3	6642.2	
242.51	4319.8	
242.72	3888.4	
242.93	5983.5	
243.14	5380	
243.36	4558.8	
243.57	4938.3	
243.78	6307.7	
243.99	5836	
244.2	3992.9	
244.41	3622.2	
244.63	4964.3	
244.84	5772.5	
245.05	4301.4	
245.26	3969.6	
245.47	5717.9	
245.68	6044.2	
245.9	5271.5	
246.11	4115.1	
246.32	5309.7	
246.53	5673.6	
246.74	6407.4	
246.95	3278.8	
247.16	4951.3	
247.38	5389.6	
247.59	3246	
247.8	3916.4	
248.01	5111.7	
248.22	5377.3	
248.43	3532.7	
248.64	3845.4	
248.86	4805.2	
249.07	5182	
249.28	3471.3	
249.49	4016.7	
249.7	6024.4	
249.91	6196.5	
250.12	3287	
250.34	3320.4	
250.55	5564.3	
250.76	5406	
250.97	4046.1	
251.18	4083	
251.39	6154.8	
251.6	5635.3	
251.81	4067.9	
252.03	4128	
252.24	5136.3	
252.45	5977.3	
252.66	3402.4	
252.87	4367.6	
253.08	5498.8	
253.29	7209.5	
253.5	3454.2	
253.72	4747.9	
253.93	5289.2	
254.14	6505	
254.35	3691.8	
254.56	3837.2	
254.77	5717.2	
254.98	5053	
255.19	3657	
255.41	4749.9	
255.62	5600.5	
255.83	6059.9	
256.04	4218.8	
256.25	4119.1	
256.46	6536.4	
256.67	5156.8	
256.88	4032.5	
257.09	4549.2	
257.31	5115.1	
257.52	5141.1	
257.73	5143.1	
257.94	3746.4	
258.15	5367.7	
258.36	5452.4	
258.57	4676.9	
258.78	2941.6	
258.99	5952.8	
259.2	5298.1	
259.41	3751.9	
259.63	3837.9	
259.84	6235.4	
260.05	6791.1	
260.26	4983.4	
260.47	3585.3	
260.68	6001.9	
260.89	5294	
261.1	4565.6	
261.31	3567.6	
261.52	6014.9	
261.73	6466.8	
261.95	4878.9	
262.16	4220.2	
262.37	6148	
262.58	6278.4	
262.79	4827.7	
263	3756.7	
263.21	5420.3	
263.42	4991.6	
263.63	3902.7	
263.84	3805.8	
264.05	6055.8	
264.26	6383.5	
264.47	4689.2	
264.69	4245.4	
264.9	6195.8	
265.11	5696.8	
265.32	3664.5	
265.53	3765.5	
265.74	5593	
265.95	4879.6	
266.16	3988.8	
266.37	4432.5	
266.58	5526.8	
266.79	5302.2	
267	3660.4	
267.21	3393.5	
267.42	5029.1	
267.63	5418.9	
267.84	3928.7	
268.06	3313.6	
268.27	5894.7	
268.48	6227.2	
268.69	3842.7	
268.9	4551.3	
269.11	6105.7	
269.32	4957.4	
269.53	3974.4	
269.74	3609.2	
269.95	5789.6	
270.16	4844.8	
270.37	3965.6	
270.58	4537.6	
270.79	5298.1	
271	6006	
271.21	4222.2	
271.42	3975.8	
271.63	5631.2	
271.84	5089.2	
272.05	3119.7	
272.26	3568.2	
272.47	5479	
272.68	5708.4	
272.89	3814.7	
273.11	4385.4	
273.32	5294.7	
273.53	6447	
273.74	4311.7	
273.95	4179.2	
274.16	6148.7	
274.37	5487.2	
274.58	4311.7	
274.79	3448.1	
275	5584.8	
275.21	6119.3	
275.42	5161.6	
275.63	4477.5	
275.84	5705	
276.05	7240.3	
276.26	4154	
276.47	3857	
276.68	5270.1	
276.89	6466.8	
277.1	4489.1	
277.31	3467.9	
277.52	5700.9	
277.73	5869.5	
277.94	3380.5	
278.15	3766.9	
278.36	5678.3	
278.57	5102.9	
278.78	3779.9	
278.99	4273.4	
279.2	5054.4	
279.41	5005.9	
279.62	4976.6	
279.83	3479.5	
280.04	6713.2	
280.25	4982	
280.46	4953.4	
280.67	3921.9	
280.88	5027.1	
281.09	6158.2	
281.3	4136.9	
281.51	5218.9	
281.72	5948.7	
281.93	6020.3	
282.14	3668.6	
282.35	3960.8	
282.56	6005.3	
282.77	5950	
282.98	3793.5	
283.19	4710.3	
283.4	7316.7	
283.61	5380	
283.82	3411.9	
284.03	4870.1	
284.24	5539.8	
284.45	6043.6	
284.66	4894.6	
284.87	4651.6	
285.08	6026.5	
285.29	6201.9	
285.5	3323.9	
285.71	3899.3	
285.92	6075	
286.12	6791.1	
286.33	4863.9	
286.54	3842	
286.75	5972.6	
286.96	5337.7	
287.17	3462.4	
287.38	4769.7	
287.59	5057.8	
287.8	4963.6	
288.01	3843.4	
288.22	4472.8	
288.43	6013.5	
288.64	4967.7	
288.85	4541.7	
289.06	4388.1	
289.27	5916.6	
289.48	6399.9	
289.69	4928.8	
289.9	4407.2	
290.11	6146	
290.32	5125.4	
290.53	4650.3	
290.74	4217.5	
290.94	5864	
291.15	5939.8	
291.36	3729.4	
291.57	4433.2	
291.78	5180.7	
291.99	4804.5	
292.2	3538.2	
292.41	4285	
292.62	6085.9	
292.83	5780.7	
293.04	5288.5	
293.25	3556	
293.46	5253	
293.67	6083.8	
293.88	3691.8	
294.09	3556.6	
294.29	5006.6	
294.5	5531.6	
294.71	3962.1	
294.92	3744.4	
295.13	5251	
295.34	6550.8	
295.55	3293.1	
295.76	3423.5	
295.97	5895.4	
296.18	6658.6	
296.39	3475.4	
296.6	3692.5	
296.81	5580	
297.01	5878.4	
297.22	3841.3	
297.43	3674.7	
297.64	5032.5	
297.85	5065.3	
298.06	3050.8	
298.27	3335.5	
298.48	5569.1	
298.69	5194.3	
298.9	4006.5	
299.11	3594.9	
299.31	4977.2	
299.52	4988.2	
299.73	4300.1	
299.94	4177.2	
300.15	5470.8	
300.36	5083.1	
300.57	4203.1	
300.78	4204.5	
300.99	5320.6	
301.2	5559.6	
301.4	3619.4	
301.61	3965.6	
301.82	5778.7	
302.03	5906.3	
302.24	4517.1	
302.45	3489.1	
302.66	5801.2	
302.87	6238.1	
303.08	3742.3	
303.29	5079.6	
303.49	5221	
303.7	5461.2	
303.91	3233.1	
304.12	4861.2	
304.33	5071.5	
304.54	5591	
304.75	3766.9	
304.96	3529.3	
305.16	5788.2	
305.37	6549.4	
305.58	3196.2	
305.79	3361.4	
306	5828.5	
306.21	4894.6	
306.42	3678.2	
306.63	5593	
306.83	5285.8	
307.04	6032.6	
307.25	4048.8	
307.46	4035.9	
307.67	4693.9	
307.88	5927.5	
308.09	3620.1	
308.29	3771	
308.5	5511.1	
308.71	6092.7	
308.92	3982.6	
309.13	3532.7	
309.34	5367.7	
309.55	5369.1	
309.75	4581.3	
309.96	4248.9	
310.17	5911.8	
310.38	5180.7	
310.59	4450.9	
310.8	3467.9	
311.01	6572.6	
311.21	5312.4	
311.42	3482.2	
311.63	3600.3	
311.84	5231.2	
312.05	5602.6	
312.26	4070.7	
312.46	4494.6	
312.67	5314.5	
312.88	5011.4	
313.09	3543	
313.3	3446	
313.51	6257.2	
313.71	6581.5	
313.92	3506.8	
314.13	3710.2	
314.34	5624.4	
314.55	5363.6	
314.76	4629.1	
314.96	3930.7	
315.17	5485.8	
315.38	5801.2	
315.59	3576.4	
315.8	3420.1	
316.01	6382.8	
316.21	6363.7	
316.42	3394.8	
316.63	4002.4	
316.84	5328.1	
317.05	6204	
317.26	4245.4	
317.46	3763.5	
317.67	5390.9	
317.88	5890.6	
318.09	4514.4	
318.3	3368.9	
318.5	5204.6	
318.71	5797.8	
318.92	5763	
319.13	4238.6	
319.34	5920	
319.54	6098.9	
319.75	3350.5	
319.96	3168.2	
320.17	5917.9	
320.38	6025.1	
320.58	3218	
320.79	3942.3	
321	6016.2	
321.21	6186.2	
321.42	3939.6	
321.62	3274	
321.83	5035.3	
322.04	5489.9	
322.25	3768.9	
322.46	3583.9	
322.66	5594.4	
322.87	5694.7	
323.08	4408.6	
323.29	3500	
323.5	6534.4	
323.7	5010	
323.91	4875.5	
324.12	4407.9	
324.33	5583.4	
324.53	5844.2	
324.74	4235.9	
324.95	4418.8	
325.16	4842.1	
325.37	5275.6	
325.57	3575.1	
325.78	3624.2	
325.99	5571.2	
326.2	4990.2	
326.4	5240.1	
326.61	3280.8	
326.82	5386.8	
327.03	5537	
327.24	5084.4	
327.44	4870.8	
327.65	5733.6	
327.86	4650.9	
328.07	4232.5	
328.27	3411.9	
328.48	6094.8	
328.69	5006.6	
328.9	5129.5	
329.1	3841.3	
329.31	5327.4	
329.52	6342.6	
329.73	3570.3	
329.93	4039.3	
330.14	5483.8	
330.35	5753.4	
330.56	5900.2	
330.76	4422.2	
330.97	5264	
331.18	5686.5	
331.39	4035.2	
331.59	3204.4	
331.8	6086.6	
332.01	6254.5	
332.22	3659	
332.42	4214	
332.63	5606	
332.84	5122.7	
333.05	4013.3	
333.25	3646.1	
333.46	5223.7	
333.67	5449	
333.88	3736.2	
334.08	4158.1	
334.29	7329	
334.5	6192.4	
334.7	3495.9	
334.91	5085.8	
335.12	5048.9	
335.33	5908.4	
335.53	3875.4	
335.74	5900.9	
335.95	5263.3	
336.16	5087.8	
336.36	3975.1	
336.57	4565.6	
336.78	4982.7	
336.98	6081.1	
337.19	4957.4	
337.4	3914.4	
337.61	6621.1	
337.81	4933.6	
338.02	3652.2	
338.23	4727.4	
338.43	6260.6	
338.64	5167.7	
338.85	3611.9	
339.05	4726	
339.26	6325.5	
339.47	4900.8	
339.68	3642	
339.88	5396.4	
340.09	5737.7	
340.3	5968.5	
340.5	4212.7	
340.71	3210.5	
340.92	4898.7	
341.13	6234	
341.33	3521.8	
341.54	4238.6	
341.75	5678.3	
341.95	5337	
342.16	4059.8	
342.37	4384	
342.57	5059.8	
342.78	5418.9	
342.99	4525.3	
343.19	3181.2	
343.4	5862.7	
343.61	5718.6	
343.81	3802.4	
344.02	3472	
344.23	5900.9	
344.43	6325.5	
344.64	4450.9	
344.85	4378.6	
345.06	5744.6	
345.26	6070.9	
345.47	4110.3	
345.68	4888.5	
345.88	4851.6	
346.09	5937.1	
346.3	4197	
346.5	3150.5	
346.71	5489.9	
346.92	5228.5	
347.12	3314.3	
347.33	4141.7	
347.54	6036.7	
347.74	6528.9	
347.95	4123.9	
348.16	3049.4	
348.36	5362.3	
348.57	4957.4	
348.78	4111.6	
348.98	4409.3	
349.19	5388.9	
349.39	4892.6	
349.6	3293.8	
349.81	3612.6	
350.01	5631.9	
350.22	5137.7	
350.43	3898.6	
350.63	4803.2	
350.84	5511.8	
351.05	5266	
351.25	3609.9	
351.46	3271.3	
351.67	6065.4	
351.87	5132.9	
352.08	3870.7	
352.29	4420.9	
352.49	5943.2	
352.7	5638.7	
352.9	3489.7	
353.11	4380.6	
353.32	6662	
353.52	5289.2	
353.73	3429.7	
353.94	4435.9	
354.14	5735.7	
354.35	5586.9	
354.55	3571.7	
354.76	4009.2	
354.97	5698.1	
355.17	5498.8	
355.38	3349.1	
355.59	4726	
355.79	5111.7	
356	5582.8	
356.2	3907.5	
356.41	3383.9	
356.62	4861.9	
356.82	5304.9	
357.03	4237.9	
357.24	3764.2	
357.44	5152	
357.65	5284.4	
357.85	5114.5	
358.06	3960.8	
358.27	4911.7	
358.47	5129.5	
358.68	3307.5	
358.88	4164.2	
359.09	5719.3	
359.3	6148.7	
359.5	4909.7	
359.71	4278.2	
359.91	6500.3	
360.12	5939.8	
360.33	4161.5	
360.53	4726.7	
360.74	5137	
360.94	5175.2	
361.15	4420.9	
361.36	3609.9	
361.56	6010.8	
361.77	5367	
361.97	4911.7	
362.18	3863.8	
362.38	5939.1	
362.59	5026.4	
362.8	3514.3	
363	3347.7	
363.21	4802.5	
363.41	5526.1	
363.62	4067.3	
363.83	5132.2	
364.03	5513.1	
364.24	6541.9	
364.44	5180.7	
364.65	5001.1	
364.85	5284.4	
365.06	5182	
365.27	3706.1	
365.47	3699.3	
365.68	6338.5	
365.88	5255.1	
366.09	4138.3	
366.29	3781.9	
366.5	5603.2	
366.71	6026.5	
366.91	5098.1	
367.12	4327.4	
367.32	6509.1	
367.53	5816.2	
367.73	4211.3	
367.94	5154.7	
368.14	5744.6	
368.35	6711.9	
368.56	4255	
368.76	3540.9	
368.97	5900.9	
369.17	7671	
369.38	3706.1	
369.58	3948.5	
369.79	4881	
369.99	6285.2	
370.2	5013.4	
370.4	4054.3	
370.61	5630.5	
370.82	6784.2	
371.02	3982.6	
371.23	3261	
371.43	4758.1	
371.64	6136.4	
371.84	3969.6	
372.05	5179.3	
372.25	7550.2	
372.46	5907.7	
372.66	3977.2	
372.87	3878.2	
373.07	6030.6	
373.28	7634.8	
373.48	5001.1	
373.69	4635.9	
373.9	5397.8	
374.1	5423.7	
374.31	4877.6	
374.51	4498	
374.72	6229.2	
374.92	5056.4	
375.13	5074.9	
375.33	4323.9	
375.54	5810.1	
375.74	5208.7	
375.95	4358.8	
376.15	5618.9	
376.36	5760.9	
376.56	5563	
376.77	4373.8	
376.97	4857.8	
377.18	6854.6	
377.38	5834.7	
377.59	5208	
377.79	3797.6	
378	5693.4	
378.2	6134.3	
378.41	3943	
378.61	3810.6	
378.82	6127.5	
379.02	5216.9	
379.23	4039.3	
379.43	5274.2	
379.64	6216.3	
379.84	5900.2	
380.05	3853.6	
380.25	3865.2	
380.46	5941.2	
380.66	5475.6	
380.87	5291.3	
381.07	5621.7	
381.28	6573.3	
381.48	5910.4	
381.69	3958	
381.89	3982.6	
382.1	4900.8	
382.3	6119.3	
382.51	5078.3	
382.71	5973.2	
382.91	5982.1	
383.12	6496.8	
383.32	4253.6	
383.53	4556.7	
383.73	5807.4	
383.94	5636	
384.14	4491.2	
384.35	3542.3	
384.55	5500.2	
384.76	5952.1	
384.96	4286.4	
385.17	4641.4	
385.37	5979.4	
385.58	5248.3	
385.78	4663.2	
385.98	3456.3	
386.19	5477.6	
386.39	5804.6	
386.6	4074.8	
386.8	4360.1	
387.01	5963	
387.21	5978.7	
387.42	4724.7	
387.62	5313.1	
387.83	5197.7	
388.03	6004	
388.23	4375.1	
388.44	5154.7	
388.64	5036	
388.85	4987.5	
389.05	4635.2	
389.26	5330.9	
389.46	6925.5	
389.67	6353.5	
389.87	4631.8	
390.07	4711	
390.28	5628.5	
390.48	5126.1	
390.69	3863.2	
390.89	4205.8	
391.1	5379.3	
391.3	6270.9	
391.5	5440.1	
391.71	6069.5	
391.91	6032	
392.12	7079.1	
392.32	5466.7	
392.53	4650.9	
392.73	5354.8	
392.93	5588.2	
393.14	4343.1	
393.34	5177.9	
393.55	6159.6	
393.75	5547.3	
393.95	4373.1	
394.16	4361.5	
394.36	5296.7	
394.57	6025.8	
394.77	3826.3	
394.98	4272.1	
395.18	5208.7	
395.38	5505.6	
395.59	5219.6	
395.79	4048.2	
396	5378.6	
396.2	5863.3	
396.4	4976.6	
396.61	4749.9	
396.81	6083.1	
397.02	5302.2	
397.22	5127.4	
397.42	5185.5	
397.63	6039.5	
397.83	5236.7	
398.04	3980.6	
398.24	4532.2	
398.44	5806.7	
398.65	4878.9	
398.85	3896.6	
399.05	3968.3	
399.26	5182.7	
399.46	7002.7	
399.67	4374.5	
399.87	4123.2	
400.07	5543.9	
400.28	5988.9	
400.48	4127.3	
400.69	5182	
400.89	6158.2	
401.09	6595.8	
401.3	4034.5	
401.5	5180.7	
401.7	6903	
401.91	7165.2	
402.11	4394.3	
402.32	4614.1	
402.52	6200.6	
402.72	6063.4	
402.93	4843.4	
403.13	3712.3	
403.33	7005.4	
403.54	5720	
403.74	4532.8	
403.94	5433.9	
404.15	5727.5	
404.35	6918	
404.56	4315.8	
404.76	6102.9	
404.96	6126.2	
405.17	5933	
405.37	5720	
405.57	4773.8	
405.78	6087.9	
405.98	5617.6	
406.18	4248.2	
406.39	5205.3	
406.59	6173.3	
406.79	5819	
407	4145.8	
407.2	4254.3	
407.4	6227.9	
407.61	6382.2	
407.81	4166.3	
408.01	6474.3	
408.22	5114.5	
408.42	7234.8	
408.62	5242.8	
408.83	4661.9	
409.03	5699.5	
409.23	5538.4	
409.44	4790.9	
409.64	5154.7	
409.84	6627.9	
410.05	6469.5	
410.25	4865.3	
410.45	4615.4	
410.66	5925.5	
410.86	8501.8	
411.06	5067.4	
411.27	4962.9	
411.47	8184.4	
411.67	6059.9	
411.88	5143.8	
412.08	5437.4	
412.28	6758.3	
412.49	7255.3	
412.69	4823	
412.89	4872.1	
413.09	7149.5	
413.3	6924.9	
413.5	5029.1	
413.7	4552	
413.91	6159.6	
414.11	7099.6	
414.31	4811.4	
414.52	5256.5	
414.72	6787	
414.92	6570.6	
415.12	4762.2	
415.33	5344.5	
415.53	6955.6	
415.73	7232.7	
415.94	5689.9	
416.14	5199.8	
416.34	5939.8	
416.55	5697.4	
416.75	6309.1	
416.95	5748.6	
417.15	6958.3	
417.36	7736.5	
417.56	6533.7	
417.76	5511.1	
417.97	7309.9	
418.17	6964.5	
418.37	5134.9	
418.57	5171.1	
418.78	6785.6	
418.98	6464.8	
419.18	6095.4	
419.38	6030.6	
419.59	6547.4	
419.79	6153.5	
419.99	5015.5	
420.2	5435.3	
420.4	7016.3	
420.6	7212.9	
420.8	4911	
421.01	4853	
421.21	6757.6	
421.41	6989	
421.61	5388.9	
421.82	5041.4	
422.02	6269.5	
422.22	7301	
422.42	5774.6	
422.63	5539.8	
422.83	6482.5	
423.03	7634.8	
423.23	5553.4	
423.44	4486.4	
423.64	6478.4	
423.84	6281.8	
424.04	4991.6	
424.25	4610	
424.45	7472.4	
424.65	7448.5	
424.85	4410	
425.06	4993.6	
425.26	7386.3	
425.46	6410.1	
425.66	5487.2	
425.87	5245.5	
426.07	7141.9	
426.27	7072.3	
426.47	5268.1	
426.67	4675.5	
426.88	7533.1	
427.08	6985.6	
427.28	5504.3	
427.48	4571.7	
427.69	5870.2	
427.89	6496.2	
428.09	5584.8	
428.29	4675.5	
428.5	7277.1	
428.7	6744.6	
428.9	4564.9	
429.1	5145.2	
429.3	6609.5	
429.51	7062.1	
429.71	4872.1	
429.91	5670.1	
430.11	6895.5	
430.31	7121.5	
430.52	5197.7	
430.72	5440.1	
430.92	7555.6	
431.12	6873.7	
431.32	4828.4	
431.53	5311.7	
431.73	5871.5	
431.93	7602.1	
432.13	4737.6	
432.33	4576.5	
432.54	6264.7	
432.74	6636.8	
432.94	4512.4	
433.14	5672.9	
433.34	6798.6	
433.55	6278.4	
433.75	5535.7	
433.95	7354.9	
434.15	6614.3	
434.35	6367.1	
434.56	4760.8	
434.76	4216.8	
434.96	6567.2	
435.16	6839.5	
435.36	4621.6	
435.56	5763.7	
435.77	6208.8	
435.97	6359.6	
436.17	6475	
436.37	5694	
436.57	6268.1	
436.78	6079.1	
436.98	7195.9	
437.18	6285.2	
437.38	6855.9	
437.58	6469.5	
437.78	6469.5	
437.99	5038	
438.19	6972.7	
438.39	8475.2	
438.59	5030.5	
438.79	4545.1	
438.99	7610.9	
439.2	6421.1	
439.4	4577.2	
439.6	4519.2	
439.8	6682.5	
440	7750.9	
440.2	5500.2	
440.4	5694	
440.61	7090.1	
440.81	7681.2	
441.01	4752	
441.21	5591.6	
441.41	7456.7	
441.61	7142.6	
441.81	5917.9	
442.02	7050.5	
442.22	8060.8	
442.42	7277.8	
442.62	4800.4	
442.82	4803.9	
443.02	7434.8	
443.22	6539.2	
443.43	5267.4	
443.63	4771.8	
443.83	6304.3	
444.03	6509.8	
444.23	5995.1	
444.43	5633.3	
444.63	6740.5	
444.83	8011.7	
445.04	4871.4	
445.24	6141.9	
445.44	7195.2	
445.64	7159.7	
445.84	5748.6	
446.04	5771.9	
446.24	6477.7	
446.44	7568.6	
446.65	4980.7	
446.85	5299.5	
447.05	6613.6	
447.25	7424.6	
447.45	5295.4	
447.65	4751.3	
447.85	6771.3	
448.05	6462	
448.25	5772.5	
448.46	5604.6	
448.66	6808.8	
448.86	6466.1	
449.06	4579.3	
449.26	5767.8	
449.46	7114.6	
449.66	6126.2	
449.86	5292	
450.06	5198.4	
450.26	6303.6	
450.47	6991.1	
450.67	5625.1	
450.87	5932.3	
451.07	6965.8	
451.27	6821.8	
451.47	4823	
451.67	5459.2	
451.87	6438.1	
452.07	7582.9	
452.27	5071.5	
452.47	5046.2	
452.67	6814.3	
452.88	7426.6	
453.08	4411.3	
453.28	6432.7	
453.48	7968.6	
453.68	6743.3	
453.88	4928.1	
454.08	5191.6	
454.28	7069.6	
454.48	6717.3	
454.68	5706.3	
454.88	6210.1	
455.08	7188.4	
455.28	6915.3	
455.48	4810	
455.68	5433.9	
455.89	7681.9	
456.09	7311.2	
456.29	5097.4	
456.49	5147.9	
456.69	7478.5	
456.89	6758.3	
457.09	5667.4	
457.29	6027.9	
457.49	7081.9	
457.69	7137.9	
457.89	5425.8	
458.09	4900.8	
458.29	6842.9	
458.49	7574.1	
458.69	5920	
458.89	5239.4	
459.09	7759.1	
459.29	7957.7	
459.49	5470.8	
459.69	6311.2	
459.9	7365.9	
460.1	6837.5	
460.3	5261.2	
460.5	5188.9	
460.7	7283.9	
460.9	7066.2	
461.1	4676.9	
461.3	6067.4	
461.5	7892.2	
461.7	7494.2	
461.9	5104.2	
462.1	5566.4	
462.3	6930.3	
462.5	7593.9	
462.7	5190.2	
462.9	5225.7	
463.1	8677.9	
463.3	8133.8	
463.5	5438.7	
463.7	6382.2	
463.9	7109.9	
464.1	7593.9	
464.3	5515.9	
464.5	5788.2	
464.7	7875.1	
464.9	7433.4	
465.1	7193.1	
465.3	6152.1	
465.5	8132.5	
465.7	8105.2	
465.9	6339.1	
466.1	6279.1	
466.3	7896.3	
466.5	7728.4	
466.7	7064.1	
466.9	5952.8	
467.1	7554.3	
467.3	8561.9	
467.5	6961.7	
467.7	5860.6	
467.9	8811	
468.1	9724.4	
468.3	6678.4	
468.5	7049.8	
468.7	7617.8	
468.9	7572.7	
469.1	6043.6	
469.3	6793.1	
469.5	9604.3	
469.7	7085.3	
469.9	6595.8	
470.1	5923.4	
470.3	7573.4	
470.5	7669.6	
470.7	7217.7	
470.9	6014.2	
471.1	7392.5	
471.3	7879.2	
471.5	5765	
471.69	7822.6	
471.89	7221.1	
472.09	6782.2	
472.29	6645.7	
472.49	7105.8	
472.69	6991.1	
472.89	7873.1	
473.09	5720.7	
473.29	5838.1	
473.49	7180.9	
473.69	7356.3	
473.89	6866.8	
474.09	6078.4	
474.29	8693.6	
474.49	8230.1	
474.69	6769.9	
474.89	6201.9	
475.09	7329	
475.29	7266.9	
475.49	5554.1	
475.69	5799.8	
475.88	9050.7	
476.08	7685.3	
476.28	5466.7	
476.48	6001.2	
476.68	8178.9	
476.88	7991.9	
477.08	5885.2	
477.28	6132.3	
477.48	7442.3	
477.68	8071	
477.88	5581.4	
478.08	5917.9	
478.28	8489.5	
478.48	7643	
478.67	5980.1	
478.87	5451.7	
479.07	8190.5	
479.27	7567.9	
479.47	6279.8	
479.67	6222.4	
479.87	8051.2	
480.07	8617.9	
480.27	5436.7	
480.47	7183.6	
480.67	7706.5	
480.87	8260.8	
481.06	5745.9	
481.26	6546.7	
481.46	7643	
481.66	7649.8	
481.86	6277.7	
482.06	7316	
482.26	7320.1	
482.46	8213	
482.66	6100.9	
482.86	5769.1	
483.05	7661.5	
483.25	7030	
483.45	8564.6	
483.65	6103.6	
483.85	7185.6	
484.05	7572.7	
484.25	6507.8	
484.45	7094.2	
484.65	8474.5	
484.84	8400.1	
485.04	6073.6	
485.24	5957.5	
485.44	8700.5	
485.64	6972	
485.84	5256.5	
486.04	6797.2	
486.24	7335.1	
486.44	7746.1	
486.63	5317.9	
486.83	6023.8	
487.03	7211.6	
487.23	7420.5	
487.43	5367	
487.63	7720.2	
487.83	7503.8	
488.02	8649.3	
488.22	6317.3	
488.42	6990.4	
488.62	8456.7	
488.82	7232.7	
489.02	5969.1	
489.22	6010.8	
489.41	8188.5	
489.61	7875.8	
489.81	5788.9	
490.01	5789.6	
490.21	8175.5	
490.41	8879.3	
490.61	5720.7	
490.8	5818.3	
491	7705.1	
491.2	7012.9	
491.4	6592.4	
491.6	5601.2	
491.8	7691.5	
491.99	7912.7	
492.19	5433.3	
492.39	5855.1	
492.59	8204.8	
492.79	8159.8	
492.99	6567.2	
493.18	5682.4	
493.38	8239	
493.58	8938	
493.78	6423.1	
493.98	6028.5	
494.18	7980.3	
494.37	7277.1	
494.57	6574	
494.77	6516	
494.97	8060.1	
495.17	8363.2	
495.37	5963.7	
495.56	6346.7	
495.76	8526.4	
495.96	8176.2	
496.16	7236.2	
496.36	6192.4	
496.55	8413.7	
496.75	7946.1	
496.95	6619.7	
497.15	6487.3	
497.35	8324.3	
497.54	8385.1	
497.74	6280.4	
497.94	8025.3	
498.14	9104.6	
498.34	8862.2	
498.53	5866.7	
498.73	6753.5	
498.93	7656	
499.13	8260.1	
499.33	6495.5	
499.52	6956.3	
499.72	8217.8	
499.92	8564.6	
500.12	6167.8	
500.32	6425.2	
500.51	8576.2	
500.71	8353	
500.91	7371.3	
501.11	6919.4	
501.31	8427.4	
501.5	8989.2	
501.7	7524.2	
501.9	6515.3	
502.1	8238.3	
502.29	8526.4	
502.49	7019.8	
502.69	7501	
502.89	8559.1	
503.09	8483.4	
503.28	6034	
503.48	6074.3	
503.68	7681.2	
503.88	7731.8	
504.07	7088	
504.27	6618.4	
504.47	8025.3	
504.67	8215.8	
504.86	7112.6	
505.06	6701	
505.26	7864.2	
505.46	9721.7	
505.65	6614.9	
505.85	6870.3	
506.05	7746.1	
506.25	8198	
506.44	5971.9	
506.64	6980.2	
506.84	7609.6	
507.04	8619.9	
507.23	6180.8	
507.43	6708.5	
507.63	9645.9	
507.83	7886.7	
508.02	6722.8	
508.22	6328.2	
508.42	9923.1	
508.62	7654.6	
508.81	6599.9	
509.01	7128.3	
509.21	7478.5	
509.4	7671.7	
509.6	6747.4	
509.8	6039.5	
510	7690.8	
510.19	9215.9	
510.39	6069.5	
510.59	6170.5	
510.79	7552.2	
510.98	8942.1	
511.18	6210.1	
511.38	6356.9	
511.57	8350.3	
511.77	8219.2	
511.97	7088	
512.17	6010.8	
512.36	8345.5	
512.56	8353.7	
512.76	6094.1	
512.95	5890.6	
513.15	8510	
513.35	7025.9	
513.55	6997.9	
513.74	6085.9	
513.94	8456.1	
514.14	7732.4	
514.33	7078.5	
514.53	6842.9	
514.73	7811	
514.92	7978.9	
515.12	6309.1	
515.32	6143.9	
515.51	8062.2	
515.71	8587.8	
515.91	7847.1	
516.11	6231.3	
516.3	9881.4	
516.5	7613	
516.7	6740.5	
516.89	7364.5	
517.09	7881.3	
517.29	7729.7	
517.48	7216.4	
517.68	6537.1	
517.88	7572.7	
518.07	8215.8	
518.27	7039.6	
518.47	6040.1	
518.66	8751	
518.86	7334.5	
519.06	5826.5	
519.25	6349.4	
519.45	7687.4	
519.65	9156.5	
519.84	6956.3	
520.04	7626	
520.24	9655.5	
520.43	8356.4	
520.63	6719.4	
520.83	6520	
521.02	7711.3	
521.22	8316.8	
521.42	7072.3	
521.61	7587.7	
521.81	7823.2	
522.01	7968	
522.2	6760.3	
522.4	6672.3	
522.6	8467.7	
522.79	7255.3	
522.99	6535.1	
523.18	5850.4	
523.38	8164.6	
523.58	8145.5	
523.77	7856.7	
523.97	5858.6	
524.17	10006	
524.36	9329.2	
524.56	7252.5	
524.76	6825.2	
524.95	8071	
525.15	7707.2	
525.34	6575.3	
525.54	6584.2	
525.74	8496.3	
525.93	7354.3	
526.13	7914	
526.33	6666.1	
526.52	8766.7	
526.72	8295.6	
526.91	7930.4	
527.11	7070.3	
527.31	8780.3	
527.5	9203.6	
527.7	6898.2	
527.89	6022.4	
528.09	7658	
528.29	8210.3	
528.48	7309.2	
528.68	6963.1	
528.87	8667.7	
529.07	8724.3	
529.27	6913.3	
529.46	6410.1	
529.66	8249.9	
529.85	8818.6	
530.05	6330.3	
530.25	7169.3	
530.44	9751.7	
530.64	8267.6	
530.83	6647	
531.03	6903.7	
531.23	8688.8	
531.42	8466.3	
531.62	7641.7	
531.81	6782.9	
532.01	8733.2	
532.21	9118.9	
532.4	6412.2	
532.6	6894.8	
532.79	9701.2	
532.99	8714.1	
533.18	6918.7	
533.38	8006.2	
533.58	8288.1	
533.77	9088.9	
533.97	6892.8	
534.16	7667.6	
534.36	9281.4	
534.55	8251.3	
534.75	7800	
534.95	6945.3	
535.14	9148.3	
535.34	8366.6	
535.53	6600.6	
535.73	8737.3	
535.92	9658.2	
536.12	8489.5	
536.31	6767.2	
536.51	7915.4	
536.71	8839.7	
536.9	8351.6	
537.1	6919.4	
537.29	6955.6	
537.49	9229.5	
537.68	8203.5	
537.88	7345.4	
538.07	6553.5	
538.27	8464.3	
538.46	9574.3	
538.66	6399.9	
538.86	6857.3	
539.05	8542.8	
539.25	8898.4	
539.44	7189.1	
539.64	6843.6	
539.83	8450.6	
540.03	9502.6	
540.22	6767.2	
540.42	6940.6	
540.61	8716.8	
540.81	8746.2	
541	7271.7	
541.2	7959.1	
541.39	8160.5	
541.59	8606.9	
541.78	7715.4	
541.98	6761.7	
542.18	7808.9	
542.37	7877.9	
542.57	7159.7	
542.76	7707.9	
542.96	7991.2	
543.15	8830.8	
543.35	7176.8	
543.54	6504.3	
543.74	8985.8	
543.93	8565.3	
544.13	7205.4	
544.32	8279.3	
544.52	8771.5	
544.71	8001.4	
544.91	6217.6	
545.1	7469.6	
545.3	8064.2	
545.49	8738.7	
545.69	6164.4	
545.88	6894.1	
546.08	9721	
546.27	9257.5	
546.47	7268.2	
546.66	6616.3	
546.86	9059.5	
547.05	9566.1	
547.24	6830	
547.44	6732.4	
547.63	7934.5	
547.83	9110	
548.02	7043.6	
548.22	7189.7	
548.41	7772.7	
548.61	9146.9	
548.8	6599.9	
549	6516	
549.19	8359.1	
549.39	8716.8	
549.58	6333.7	
549.78	6935.1	
549.97	8824.7	
550.17	8399.4	
550.36	7843	
550.55	8831.5	
550.75	8305.9	
550.94	9214.5	
551.14	6569.9	
551.33	6959.7	
551.53	7636.9	
551.72	8662.9	
551.92	6986.3	
552.11	6698.2	
552.31	8663.6	
552.5	8739.4	
552.69	8425.3	
552.89	6432	
553.08	8624	
553.28	8370	
553.47	6759	
553.67	8035.5	
553.86	9376.3	
554.06	7656	
554.25	6021.7	
554.44	6535.1	
554.64	10180	
554.83	9672.6	
555.03	6539.8	
555.22	6991.8	
555.42	8924.4	
555.61	8674.5	
555.8	6791.1	
556	7023.2	
556.19	7727.7	
556.39	9015.2	
556.58	6784.2	
556.78	6782.2	
556.97	8585.1	
557.16	8174.8	
557.36	8142.7	
557.55	6354.2	
557.75	7547.4	
557.94	9336	
558.13	6523.5	
558.33	6277.7	
558.52	9078.6	
558.72	7971.4	
558.91	6508.4	
559.1	6668.9	
559.3	7649.8	
559.49	7388.4	
559.69	5938.4	
559.88	7033.4	
560.07	8558.5	
560.27	8959.9	
560.46	7167.9	
560.66	7412.3	
560.85	8252.6	
561.04	7434.8	
561.24	6424.5	
561.43	6692.1	
561.63	7659.4	
561.82	7999.4	
562.01	7872.4	
562.21	6873	
562.4	8518.2	
562.59	9482.1	
562.79	6711.9	
562.98	6290.7	
563.18	8348.2	
563.37	9864.4	
563.56	7282.6	
563.76	6238.8	
563.95	7826	
564.14	7671	
564.34	6638.1	
564.53	6447	
564.73	8292.2	
564.92	8714.8	
565.11	6830.7	
565.31	6174.6	
565.5	8905.3	
565.69	7820.5	
565.89	6494.8	
566.08	6709.1	
566.27	8736.6	
566.47	9182.4	
566.66	7382.2	
566.85	5958.2	
567.05	8364.6	
567.24	7706.5	
567.44	6444.3	
567.63	7749.5	
567.82	8648.6	
568.02	8303.1	
568.21	6311.8	
568.4	6716.7	
568.6	8130.4	
568.79	8133.2	
568.98	6166.4	
569.18	6317.3	
569.37	8110.6	
569.56	10230	
569.76	6589.7	
569.95	7643.7	
570.14	8540	
570.34	8394.6	
570.53	6146	
570.72	6176	
570.91	8998.8	
571.11	8001.4	
571.3	6618.4	
571.49	7518.8	
571.69	8006.9	
571.88	7583.6	
572.07	7080.5	
572.27	7131.7	
572.46	7532.4	
572.65	8610.3	
572.85	6294.1	
573.04	6692.1	
573.23	8829.5	
573.43	8127.7	
573.62	6025.8	
573.81	6740.5	
574	8045.8	
574.2	7907.2	
574.39	6402	
574.58	6620.4	
574.78	9015.2	
574.97	8223.3	
575.16	6882.5	
575.36	7114.6	
575.55	8511.4	
575.74	8856.1	
575.93	6014.9	
576.13	7105.1	
576.32	7897	
576.51	8570.7	
576.71	6439.5	
576.9	7796.6	
577.09	8972.8	
577.28	8359.1	
577.48	6961.7	
577.67	5902.9	
577.86	8023.9	
578.05	8234.2	
578.25	6584.2	
578.44	6709.1	
578.63	8095.6	
578.83	9361.9	
579.02	5963.7	
579.21	7593.2	
579.4	8318.2	
579.6	8010.3	
579.79	6829.3	
579.98	9054.1	
580.17	8743.5	
580.37	8783.7	
580.56	6206.7	
580.75	6941.2	
580.94	9293	
581.14	9035	
581.33	7450.5	
581.52	6405.4	
581.71	8662.9	
581.91	9258.9	
582.1	6101.6	
582.29	6751.5	
582.48	8263.6	
582.68	8181	
582.87	7221.1	
583.06	6789.7	
583.25	8517.5	
583.45	8407.6	
583.64	7604.1	
583.83	8286.8	
584.02	8055.3	
584.21	8548.2	
584.41	7505.8	
584.6	6808.1	
584.79	8273.1	
584.98	9065.7	
585.18	6286.6	
585.37	6270.9	
585.56	7853.3	
585.75	8613.8	
585.94	6543.9	
586.14	7236.2	
586.33	9295.7	
586.52	8285.4	
586.71	7024.5	
586.91	6746	
587.1	7727.7	
587.29	8802.9	
587.48	6742.6	
587.67	6577.4	
587.87	8618.5	
588.06	8689.5	
588.25	7988.4	
588.44	7234.8	
588.63	8252.6	
588.83	8811	
589.02	6629.3	
589.21	6466.1	
589.4	8048.5	
589.59	7879.2	
589.78	5734.3	
589.98	6008.1	
590.17	7439.6	
590.36	8023.9	
590.55	5339.7	
590.74	6204	
590.94	9318.3	
591.13	7828.7	
591.32	5855.1	
591.51	5350.7	
591.7	8204.8	
591.89	7588.4	
592.09	5476.3	
592.28	6045.6	
592.47	6956.3	
592.66	8897.1	
592.85	5599.1	
593.05	5825.8	
593.24	7615.7	
593.43	8374.8	
593.62	5776	
593.81	6365.1	
594	7599.3	
594.19	7856.7	
594.39	5754.1	
594.58	5784.8	
594.77	8049.2	
594.96	8643.1	
595.15	5740.5	
595.34	6396.5	
595.54	8090.2	
595.73	7087.3	
595.92	5138.4	
596.11	6287.3	
596.3	8480	
596.49	7202.7	
596.68	5995.1	
596.88	6533	
597.07	8267	
597.26	7051.2	
597.45	5622.4	
597.64	6873	
597.83	7309.9	
598.02	8007.6	
598.22	5728.2	
598.41	6370.5	
598.6	7795.3	
598.79	7285.3	
598.98	5758.9	
599.17	6824.5	
599.36	7846.5	
599.55	9103.2	
599.74	7935.9	
599.94	7719.5	
600.13	8500.4	
600.32	7194.5	
600.51	5555.5	
600.7	5660.6	
600.89	9114.1	
601.08	9193.3	
601.27	5498.1	
601.47	6525.5	
601.66	8434.2	
601.85	9077.3	
602.04	6184.2	
602.23	6684.6	
602.42	7513.3	
602.61	8228.1	
602.8	6256.5	
602.99	6034.7	
603.18	7853.3	
603.37	8162.5	
603.57	6656.6	
603.76	7203.4	
603.95	8937.3	
604.14	8473.1	
604.33	6112.5	
604.52	6415.6	
604.71	8120.2	
604.9	7693.5	
605.09	7114	
605.28	6896.2	
605.47	8703.2	
605.66	8464.3	
605.86	6756.9	
606.05	6189	
606.24	8794.7	
606.43	7301.7	
606.62	6412.9	
606.81	7315.3	
607	8686.1	
607.19	7940.7	
607.38	5919.3	
607.57	6134.3	
607.76	7670.3	
607.95	7159.7	
608.14	6617	
608.33	7120.8	
608.52	7628.7	
608.72	8587.1	
608.91	5760.9	
609.1	5683.1	
609.29	7806.2	
609.48	7305.1	
609.67	6749.4	
609.86	5876.3	
610.05	7458.7	
610.24	7748.8	
610.43	5596.4	
610.62	5350.7	
610.81	8940.1	
611	8711.4	
611.19	5808.7	
611.38	6588.3	
611.57	8051.2	
611.76	9479.4	
611.95	5588.2	
612.14	5519.3	
612.33	7836.2	
612.52	7341.3	
612.71	6136.4	
612.9	5384.1	
613.09	6926.2	
613.28	9302.6	
613.47	5911.8	
613.66	6924.9	
613.85	7876.5	
614.04	7434.8	
614.24	5946.6	
614.43	5146.5	
614.62	8135.2	
614.81	8039.6	
615	6607.4	
615.19	6492.1	
615.38	7300.3	
615.57	7653.3	
615.76	6455.2	
615.95	7348.8	
616.14	8140	
616.33	7862.2	
616.52	6724.8	
616.71	7131.7	
616.9	8142	
617.09	7994.6	
617.28	6013.5	
617.47	7406.1	
617.66	7131	
617.85	7209.5	
618.04	6990.4	
618.22	6459.3	
618.41	7504.4	
618.6	8455.4	
618.79	6329.6	
618.98	6008.1	
619.17	8769.4	
619.36	7049.1	
619.55	6150.7	
619.74	6148.7	
619.93	7939.3	
620.12	7380.2	
620.31	6735.1	
620.5	6927.6	
620.69	8602.8	
620.88	8918.2	
621.07	7649.8	
621.26	6673	
621.45	8197.3	
621.64	8200.7	
621.83	6737.1	
622.02	5897.5	
622.21	8267	
622.4	7948.8	
622.59	7331	
622.78	6973.3	
622.97	7494.9	
623.16	8489.5	
623.35	6650.4	
623.54	5810.8	
623.72	7818.5	
623.91	8053.3	
624.1	6944.7	
624.29	5575.9	
624.48	8991.3	
624.67	8148.9	
624.86	6787	
625.05	5815.5	
625.24	9059.5	
625.43	7359	
625.62	8527.7	
625.81	6058.6	
626	8495.7	
626.19	7673.7	
626.38	6847.7	
626.56	6215.6	
626.75	7522.9	
626.94	8052.6	
627.13	6873.7	
627.32	5494.7	
627.51	8135.9	
627.7	9663	
627.89	5479	
628.08	6704.4	
628.27	7274.4	
628.46	7476.5	
628.65	5834.7	
628.83	5451	
629.02	8099	
629.21	7285.3	
629.4	6326.9	
629.59	6478.4	
629.78	7276.4	
629.97	8324.3	
630.16	6634.1	
630.35	5995.8	
630.54	8712.1	
630.72	8457.4	
630.91	5993.7	
631.1	6623.1	
631.29	7917.4	
631.48	8151.6	
631.67	6679.8	
631.86	6133.7	
632.05	7481.9	
632.24	7603.4	
632.42	5800.5	
632.61	6382.8	
632.8	7673.1	
632.99	7262.1	
633.18	6412.9	
633.37	6889.4	
633.56	7906.5	
633.75	7758.4	
633.93	6414.2	
634.12	6124.8	
634.31	8697.7	
634.5	8417.2	
634.69	6135.7	
634.88	6687.3	
635.07	7739.3	
635.25	8301.1	
635.44	7036.1	
635.63	7329	
635.82	7613.7	
636.01	7107.8	
636.2	6992.4	
636.39	6589	
636.57	8811	
636.76	8483.4	
636.95	5960.3	
637.14	7457.3	
637.33	8111.3	
637.52	8991.9	
637.7	5664	
637.89	6778.8	
638.08	7662.1	
638.27	9183.8	
638.46	6789	
638.65	7345.4	
638.83	9191.3	
639.02	7533.8	
639.21	6799.3	
639.4	7318.1	
639.59	8040.3	
639.78	7555.6	
639.96	6066.8	
640.15	6105	
640.34	7833.5	
640.53	8126.3	
640.72	5816.9	
640.91	6175.3	
641.09	7271.7	
641.28	8602.2	
641.47	6145.3	
641.66	7008.1	
641.85	7977.5	
642.03	8340.7	
642.22	6746.7	
642.41	6293.4	
642.6	7446.4	
642.79	6754.2	
642.97	5956.2	
643.16	6768.5	
643.35	7354.3	
643.54	7192.5	
643.73	5853.8	
643.91	6761	
644.1	6983.6	
644.29	7613	
644.48	6034	
644.67	6029.2	
644.85	7296.2	
645.04	7613.7	
645.23	5608	
645.42	5865.4	
645.6	7112.6	
645.79	8326.4	
645.98	5847	
646.17	4928.1	
646.36	6863.4	
646.54	7499.7	
646.73	6713.2	
646.92	5383.4	
647.11	6955.6	
647.29	8116.1	
647.48	5479.7	
647.67	5224.4	
647.86	8286.1	
648.05	8273.8	
648.23	5821.7	
648.42	7157	
648.61	7706.5	
648.8	7401.4	
648.98	5480.4	
649.17	5749.3	
649.36	7020.4	
649.55	6502.3	
649.73	5576.6	
649.92	6336.4	
650.11	6969.9	
650.3	7294.9	
650.48	5792.3	
650.67	5558.9	
650.86	7621.2	
651.05	6427.9	
651.23	5614.8	
651.42	5554.1	
651.61	6960.4	
651.79	7098.3	
651.98	5810.8	
652.17	5496.1	
652.36	7614.3	
652.54	6609.5	
652.73	5543.9	
652.92	5355.4	
653.11	7600.7	
653.29	7651.2	
653.48	4864.6	
653.67	5927.5	
653.85	7322.9	
654.04	8446.5	
654.23	6070.9	
654.42	5643.5	
654.6	6922.1	
654.79	7588.4	
654.98	5085.8	
655.16	5744.6	
655.35	6472.9	
655.54	6463.4	
655.73	5218.2	
655.91	5074.9	
656.1	7695.6	
656.29	6381.5	
656.47	4654.4	
656.66	6440.2	
656.85	6704.4	
657.03	6743.3	
657.22	5297.4	
657.41	5306.3	
657.59	6828.6	
657.78	6636.1	
657.97	4962.2	
658.16	5765.7	
658.34	7531.1	
658.53	7892.2	
658.72	6687.3	
658.9	7184.3	
659.09	6855.9	
659.28	7067.5	
659.46	5492.7	
659.65	5475.6	
659.84	6782.2	
660.02	7320.1	
660.21	5335.6	
660.4	5248.9	
660.58	7856	
660.77	7140.6	
660.96	6017.6	
661.14	4975.2	
661.33	8265.6	
661.52	8246.5	
661.7	4990.2	
661.89	8762.6	
662.08	6713.9	
662.26	6363.7	
662.45	5220.3	
662.64	5427.1	
662.82	7527	
663.01	6634.7	
663.2	5365.7	
663.38	6183.5	
663.57	7417.1	
663.75	7322.2	
663.94	5717.2	
664.13	7009.5	
664.31	6739.9	
664.5	7481.2	
664.69	6191.7	
664.87	6575.3	
665.06	6488.6	
665.25	7217	
665.43	6831.3	
665.62	6954.2	
665.8	7583.6	
665.99	6934.4	
666.18	5712.5	
666.36	5886.5	
666.55	7503.1	
666.74	7430	
666.92	5343.8	
667.11	7089.4	
667.29	6820.4	
667.48	7535.2	
667.67	6652.5	
667.85	5779.4	
668.04	6987.7	
668.22	6983.6	
668.41	5821	
668.6	6021.7	
668.78	6757.6	
668.97	6980.8	
669.15	6187.6	
669.34	5081.7	
669.53	6799.3	
669.71	7051.2	
669.9	5275.6	
670.08	6002.6	
670.27	6782.9	
670.46	7312.6	
670.64	6261.3	
670.83	6492.1	
671.01	6587.6	
671.2	7267.6	
671.38	5404.6	
671.57	5289.2	
671.76	7958.4	
671.94	8504.5	
672.13	5255.1	
672.31	6369.9	
672.5	7424.6	
672.69	6826.6	
672.87	5397.8	
673.06	5765	
673.24	7305.8	
673.43	6840.2	
673.61	6179.4	
673.8	5752.7	
673.98	7520.1	
674.17	7640.3	
674.36	6283.9	
674.54	6204.7	
674.73	7195.2	
674.91	7505.1	
675.1	5770.5	
675.28	5494	
675.47	7021.1	
675.65	7556.3	
675.84	5696.1	
676.03	6032.6	
676.21	6794.5	
676.4	6309.1	
676.58	6485.2	
676.77	6324.8	
676.95	8314.8	
677.14	6673.6	
677.32	5351.3	
677.51	5113.1	
677.69	7507.9	
677.88	6335	
678.06	5269.4	
678.25	5352	
678.44	7029.3	
678.62	6643.6	
678.81	5114.5	
678.99	6025.1	
679.18	7924.3	
679.36	7451.2	
679.55	5575.3	
679.73	6237.4	
679.92	7397.9	
680.1	6765.1	
680.29	6938.5	
680.47	5616.9	
680.66	6761	
680.84	7587.7	
681.03	4905.6	
681.21	6191.7	
681.4	6745.3	
681.58	6608.8	
681.77	5326.1	
681.95	5250.3	
682.14	7672.4	
682.32	7938.6	
682.51	6312.5	
682.69	5111.7	
682.88	6620.4	
683.06	7338.6	
683.25	5952.8	
683.43	6410.8	
683.62	6929.6	
683.8	7343.3	
683.99	6598.6	
684.17	5790.3	
684.36	8211	
684.54	6858	
684.73	5008.6	
684.91	5225.7	
685.1	7202	
685.28	6560.3	
685.46	5818.3	
685.65	5778.7	
685.83	7207.5	
686.02	6627.2	
686.2	5100.1	
686.39	5186.8	
686.57	6232	
686.76	7954.3	
686.94	5096	
687.13	5265.3	
687.31	7137.2	
687.5	6604	
687.68	4744.5	
687.86	6105	
688.05	8357.1	
688.23	6102.3	
688.42	6077	
688.6	5207.3	
688.79	6543.3	
688.97	6472.9	
689.16	5574.6	
689.34	4522.6	
689.52	7305.8	
689.71	7549.5	
689.89	5844.9	
690.08	5198.4	
690.26	6847.7	
690.45	6688	
690.63	6133.7	
690.81	5327.4	
691	6470.9	
691.18	6412.9	
691.37	5493.3	
691.55	7710.6	
691.74	6309.1	
691.92	8500.4	
692.1	5444.9	
692.29	4791.6	
692.47	6552.8	
692.66	5824.4	
692.84	5003.2	
693.02	5734.3	
693.21	5997.8	
693.39	6556.9	
693.58	5773.9	
693.76	5179.3	
693.94	7785.7	
694.13	7524.2	
694.31	5059.8	
694.5	6245.6	
694.68	6382.2	
694.86	6663.4	
695.05	5513.1	
695.23	6012.8	
695.42	7135.1	
695.6	9606.3	
695.78	6211.5	
695.97	5267.4	
696.15	7217	
696.34	6582.2	
696.52	5064.6	
696.7	5825.1	
696.89	6920.1	
697.07	6328.9	
697.25	5752.1	
697.44	7346.1	
697.62	6838.2	
697.81	7256.6	
697.99	5388.2	
698.17	5902.2	
698.36	6223.1	
698.54	6800.6	
698.72	5724.1	
698.91	4722.6	
699.09	6416.3	
699.28	6290.7	
699.46	5382.1	
699.64	5289.9	
699.83	6232.7	
700.01	7580.9	
700.19	6072.2	
700.38	4448.9	
700.56	7503.1	
700.74	6328.2	
700.93	4868.7	
701.11	5734.3	
701.29	6943.3	
701.48	7988.4	
701.66	5095.3	
701.84	5203.9	
702.03	6537.1	
702.21	7174	
702.39	4713.1	
702.58	5386.2	
702.76	6951.5	
702.94	7048.4	
703.13	4734.9	
703.31	7277.1	
703.49	6109.1	
703.68	7763.2	
703.86	4886.5	
704.04	5906.3	
704.23	6718	
704.41	7113.3	
704.59	5092.6	
704.78	6356.2	
704.96	7814.4	
705.14	7176.8	
705.33	4870.1	
705.51	5759.6	
705.69	6604.7	
705.87	7446.4	
706.06	6006	
706.24	4826.4	
706.42	6934.4	
706.61	7062.1	
706.79	6018.3	
706.97	4894	
707.16	6257.9	
707.34	7012.9	
707.52	6026.5	
707.7	5109.7	
707.89	6472.3	
708.07	6168.5	
708.25	5990.3	
708.44	6189	
708.62	6414.2	
708.8	7611.6	
708.98	6334.4	
709.17	5109	
709.35	6866.8	
709.53	6909.8	
709.72	4894	
709.9	5149.3	
710.08	7092.1	
710.26	7186.3	
710.45	6672.3	
710.63	5296.7	
710.81	6749.4	
710.99	6756.9	
711.18	5901.6	
711.36	5388.2	
711.54	6556.9	
711.72	7302.4	
711.91	5453.1	
712.09	4863.9	
712.27	6741.2	
712.45	7729.7	
712.64	5762.3	
712.82	4632.5	
713	6156.9	
713.18	6315.3	
713.37	4767	
713.55	6047	
713.73	7266.2	
713.91	5825.8	
714.1	5221.6	
714.28	4709	
714.46	6945.3	
714.64	6090.7	
714.83	4089.8	
715.01	5040.1	
715.19	6158.2	
715.37	5573.9	
715.55	4655	
715.74	4974.5	
715.92	7114.6	
716.1	5111.7	
716.28	6110.5	
716.47	5141.8	
716.65	5796.4	
716.83	5964.4	
717.01	4947.9	
717.19	5008.6	
717.38	7996.6	
717.56	5528.8	
717.74	5227.1	
717.92	4262.5	
718.1	6850.5	
718.29	5958.9	
718.47	3953.9	
718.65	4628.4	
718.83	6629.3	
719.01	6600.6	
719.2	3764.8	
719.38	4896	
719.56	6304.3	
719.74	7957	
719.92	4554.7	
720.11	5675.6	
720.29	6431.3	
720.47	5412.8	
720.65	4054.3	
720.83	5051.7	
721.02	5885.9	
721.2	5588.2	
721.38	5070.8	
721.56	4234.5	
721.74	5071.5	
721.92	5290.6	
722.11	5523.4	
722.29	5271.5	
722.47	6555.5	
722.65	5776.6	
722.83	4315.1	
723.01	5289.2	
723.2	5864.7	
723.38	6118	
723.56	3669.3	
723.74	4915.8	
723.92	5283.1	
724.1	6562.4	
724.29	4225	
724.47	5493.3	
724.65	5399.1	
724.83	5319.3	
725.01	4111	
725.19	5036.6	
725.37	5386.8	
725.56	5417.6	
725.74	3979.9	
725.92	4184	
726.1	5305.6	
726.28	5661.3	
726.46	4732.9	
726.64	4351.3	
726.83	5597.1	
727.01	5895.4	
727.19	3962.1	
727.37	4850.3	
727.55	5728.9	
727.73	6255.2	
727.91	3962.8	
728.09	3723.2	
728.28	6336.4	
728.46	6951.5	
728.64	4940.4	
728.82	4864.6	
729	7392.5	
729.18	6653.9	
729.36	4085.7	
729.54	6468.9	
729.72	7678.5	
729.91	5836	
730.09	6036	
730.27	4738.3	
730.45	5703.6	
730.63	6439.5	
730.81	5427.8	
730.99	4373.8	
731.17	6969.9	
731.35	5567.1	
731.53	4987.5	
731.71	4531.5	
731.9	6740.5	
732.08	6941.2	
732.26	4792.2	
732.44	4503.5	
732.62	6912.6	
732.8	6440.9	
732.98	5241.4	
733.16	4274.8	
733.34	6440.2	
733.52	5169.8	
733.7	4859.1	
733.88	5056.4	
734.07	6284.5	
734.25	5967.8	
734.43	4141	
734.61	5833.3	
734.79	7588.4	
734.97	5836.7	
735.15	4398.4	
735.33	4712.4	
735.51	6309.8	
735.69	5916.6	
735.87	5913.9	
736.05	5002.5	
736.23	6035.4	
736.41	5853.1	
736.59	4731.5	
736.77	4946.5	
736.95	6521.4	
737.13	5952.1	
737.32	4510.3	
737.5	4680.3	
737.68	7163.8	
737.86	5859.2	
738.04	4238.6	
738.22	6234.7	
738.4	5715.2	
738.58	5963.7	
738.76	4977.2	
738.94	3820.8	
739.12	5747.3	
739.3	5666.7	
739.48	5612.1	
739.66	5300.8	
739.84	6086.6	
740.02	6029.9	
740.2	3903.4	
740.38	4330.8	
740.56	6500.3	
740.74	5321.3	
740.92	5085.1	
741.1	4977.2	
741.28	5864	
741.46	5785.5	
741.64	4547.2	
741.82	5095.3	
742	6000.5	
742.18	5905	
742.36	4756.7	
742.54	4346.5	
742.72	6537.8	
742.9	5209.3	
743.08	5177.9	
743.26	3936.2	
743.44	6780.8	
743.62	6571.2	
743.8	5363.6	
743.98	4352.6	
744.16	6270.2	
744.34	5976.7	
744.52	5268.1	
744.7	5209.3	
744.88	6464.8	
745.06	5931.6	
745.24	5301.5	
745.42	5383.4	
745.6	6541.2	
745.78	6257.9	
745.96	4136.2	
746.14	4472.1	
746.32	7335.8	
746.5	6615.6	
746.68	5040.1	
746.86	4423.6	
747.03	6973.3	
747.21	5279	
747.39	5083.1	
747.57	4501.4	
747.75	6134.3	
747.93	6534.4	
748.11	4492.6	
748.29	4399.7	
748.47	7776.8	
748.65	5873.6	
748.83	5248.3	
749.01	4907.6	
749.19	6313.2	
749.37	5485.8	
749.55	4825.7	
749.73	4952	
749.91	5948	
750.09	5685.8	
750.26	4894	
750.44	4348.5	
750.62	6053.8	
750.8	6002.6	
750.98	4156	
751.16	4599.7	
751.34	6005.3	
751.52	5386.2	
751.7	5328.1	
751.88	4117.8	
752.06	6574.7	
752.24	6433.4	
752.42	4094.6	
752.59	4444.1	
752.77	6005.3	
752.95	7299	
753.13	5190.2	
753.31	4602.5	
753.49	5627.8	
753.67	6145.3	
753.85	4859.8	
754.03	4414.1	
754.21	6411.5	
754.38	6739.2	
754.56	4680.3	
754.74	3638.6	
754.92	5618.9	
755.1	6423.1	
755.28	3734.1	
755.46	3819.5	
755.64	7301	
755.82	7398.6	
755.99	4200.4	
756.17	4321.2	
756.35	4848.9	
756.53	6588.3	
756.71	3244	
756.89	4136.9	
757.07	6113.9	
757.25	5120.6	
757.42	4693.3	
757.6	5605.3	
757.78	6051.7	
757.96	5053.7	
758.14	4367.6	
758.32	3826.3	
758.5	4587.4	
758.67	5387.5	
758.85	4147.1	
759.03	4325.3	
759.21	5653.1	
759.39	5062.6	
759.57	3688.4	
759.75	4952.7	
759.92	6350.8	
760.1	5466.7	
760.28	5284.4	
760.46	5547.9	
760.64	5323.4	
760.82	4974.5	
760.99	5109.7	
761.17	4207.9	
761.35	6092	
761.53	5076.9	
761.71	4332.1	
761.89	5090.6	
762.06	5965.7	
762.24	5461.2	
762.42	4349.2	
762.6	4205.2	
762.78	5447.6	
762.96	6113.2	
763.13	4713.7	
763.31	4440	
763.49	6282.5	
763.67	5434.6	
763.85	5268.1	
764.02	5912.5	
764.2	6610.8	
764.38	5721.3	
764.56	4355.3	
764.74	5264.6	
764.91	6751.5	
765.09	5541.8	
765.27	4012	
765.45	3846.8	
765.63	6741.9	
765.8	6539.8	
765.98	3487	
766.16	3904.8	
766.34	5137	
766.52	4895.3	
766.69	4872.1	
766.87	3717.7	
767.05	5575.3	
767.23	6354.8	
767.41	4110.3	
767.58	4333.5	
767.76	6179.4	
767.94	6295.5	
768.12	4169	
768.29	4958.8	
768.47	5670.1	
768.65	6445.6	
768.83	3812.6	
769	4999.8	
769.18	5212.8	
769.36	5977.3	
769.54	4694.6	
769.72	3899.3	
769.89	6300.2	
770.07	6412.9	
770.25	4225	
770.43	5541.8	
770.6	7009.5	
770.78	7444.4	
770.96	4386.1	
771.14	5094	
771.31	6197.2	
771.49	5496.1	
771.67	3525.9	
771.85	3841.3	
772.02	4747.9	
772.2	5544.5	
772.38	4573.8	
772.55	4102.1	
772.73	5771.9	
772.91	5550.7	
773.09	4493.9	
773.26	4571.1	
773.44	5778	
773.62	5489.2	
773.8	3934.8	
773.97	3658.4	
774.15	5937.7	
774.33	5459.9	
774.5	3856.3	
774.68	4285.7	
774.86	6053.8	
775.04	5489.2	
775.21	4015.4	
775.39	3973.7	
775.57	5798.5	
775.74	6254.5	
775.92	3759.4	
776.1	3699.3	
776.27	5810.1	
776.45	7060	
776.63	3949.8	
776.81	3517.7	
776.98	5373.9	
777.16	6579.4	
777.34	4095.3	
777.51	4449.6	
777.69	5418.2	
777.87	5173.9	
778.04	4185.4	
778.22	4855.7	
778.4	5228.5	
778.57	5842.2	
778.75	3373.7	
778.93	3703.4	
779.1	5018.2	
779.28	4850.3	
779.46	3474.7	
779.64	3975.1	
779.81	6057.2	
779.99	7017	
780.17	4798.4	
780.34	4967	
780.52	5506.3	
780.69	5761.6	
780.87	4360.8	
781.05	3791.5	
781.22	5603.9	
781.4	5735.7	
781.58	4025.6	
781.75	3125.9	
781.93	5618.3	
782.11	5048.9	
782.28	5027.8	
782.46	3958	
782.64	4849.6	
782.81	5859.2	
782.99	4104.1	
783.17	4051.6	
783.34	5674.9	
783.52	4896.7	
783.69	4331.5	
783.87	5195	
784.05	4976.6	
784.22	5013.4	
784.4	5158.8	
784.58	4449.6	
784.75	5954.8	
784.93	5019.6	
785.1	3988.8	
785.28	4647.5	
785.46	5749.3	
785.63	4996.4	
785.81	4050.2	
785.99	3833.8	
786.16	5203.2	
786.34	5613.5	
786.51	3938.9	
786.69	4324.6	
786.87	4747.2	
787.04	5331.5	
787.22	3758	
787.39	4831.2	
787.57	5014.8	
787.75	6233.3	
787.92	4958.1	
788.1	4840.7	
788.27	5113.8	
788.45	4789.5	
788.63	4629.8	
788.8	3272.7	
788.98	5580	
789.15	4719.9	
789.33	3362.1	
789.5	4079.6	
789.68	5934.3	
789.86	6120	
790.03	4603.2	
790.21	3903.4	
790.38	6038.1	
790.56	5172.5	
790.73	3799.7	
790.91	3849.5	
791.09	5040.1	
791.26	5864.7	
791.44	4036.5	
791.61	3497.2	
791.79	5098.1	
791.96	5129.5	
792.14	3588.7	
792.32	3181.2	
792.49	5098.8	
792.67	5179.3	
792.84	3659	
793.02	3487	
793.19	5573.2	
793.37	6277	
793.54	3170.3	
793.72	3542.3	
793.89	6451.8	
794.07	5128.8	
794.25	4233.8	
794.42	3250.1	
794.6	6197.8	
794.77	5797.1	
794.95	4476.9	
795.12	3889.1	
795.3	5079	
795.47	5725.4	
795.65	4328	
795.82	4123.2	
796	4862.6	
796.17	6862.7	
796.35	3979.2	
796.52	4741	
796.7	5636	
796.87	5722	
797.05	4922	
797.22	4934.2	
797.4	5614.2	
797.57	6707.1	
797.75	4107.5	
797.92	3870.7	
798.1	6047.7	
798.27	5064.6	
798.45	3262.4	
798.62	3557.3	
798.8	5411.4	
798.97	5935.7	
799.15	4332.1	
799.32	4173.8	
799.5	4653.7	
799.67	5503.6	
799.85	4526.7	
800.02	3272	
800.2	5033.2	
800.37	5435.3	
800.55	4726	
800.72	3903.4	
800.9	5873.6	
801.07	6370.5	
801.25	5303.6	
801.42	4321.2	
801.6	5969.1	
801.77	5702.2	
801.95	3848.8	
802.12	3816.7	
802.29	5647.6	
802.47	5600.5	
802.64	4268.6	
802.82	3217.4	
802.99	5018.9	
803.17	6087.9	
803.34	4154.6	
803.52	3757.3	
803.69	6825.9	
803.87	4808.6	
804.04	4127.3	
804.21	4217.5	
804.39	6201.9	
804.56	5251.7	
804.74	3457	
804.91	4276.2	
805.09	5084.4	
805.26	5206.6	
805.44	3581.9	
805.61	3913.7	
805.78	5740.5	
805.96	5828.5	
806.13	4340.3	
806.31	4633.9	
806.48	4577.2	
806.66	5201.8	
806.83	4294.6	
807	4222.9	
807.18	5009.3	
807.35	5426.4	
807.53	4192.9	
807.7	3336.8	
807.87	6334.4	
808.05	5079	
808.22	4653	
808.4	3308.2	
808.57	5112.4	
808.74	4706.2	
808.92	3803.1	
809.09	4887.8	
809.27	5025.7	
809.44	5640.8	
809.61	3375.1	
809.79	3799.7	
809.96	6269.5	
810.14	5921.4	
810.31	3241.9	
810.48	4011.3	
810.66	5224.4	
810.83	5990.3	
811.01	3800.3	
811.18	4557.4	
811.35	5884.5	
811.53	4619.5	
811.7	4670.7	
811.87	4363.5	
812.05	5102.2	
812.22	5065.3	
812.39	3667.9	
812.57	3586.7	
812.74	5166.3	
812.92	6890.7	
813.09	4069.3	
813.26	4433.2	
813.44	6598.6	
813.61	5090.6	
813.78	3332	
813.96	4528.7	
814.13	5168.4	
814.3	4829.1	
814.48	4868.7	
814.65	4048.2	
814.82	6411.5	
815	4924	
815.17	4129.4	
815.34	5037.3	
815.52	5015.5	
815.69	5061.9	
815.87	4108.2	
816.04	3532.1	
816.21	5158.8	
816.38	4474.1	
816.56	3968.3	
816.73	3712.3	
816.9	6507.1	
817.08	5896.1	
817.25	3712.3	
817.42	4707.6	
817.6	4736.3	
817.77	5215.5	
817.94	4220.2	
818.12	3691.1	
818.29	4893.3	
818.46	7699	
818.64	3863.8	
818.81	3606.5	
818.98	4755.4	
819.16	7068.9	
819.33	4467.3	
819.5	4182.6	
819.67	5558.2	
819.85	6187.6	
820.02	4068.6	
820.19	4364.9	
820.37	5332.9	
820.54	4931.5	
820.71	4201.1	
820.88	5218.9	
821.06	5348.6	
821.23	4869.4	
821.4	4257	
821.58	4240.7	
821.75	5900.2	
821.92	5277.6	
822.09	3381.9	
822.27	3456.3	
822.44	5114.5	
822.61	5089.2	
822.79	3429	
822.96	6610.8	
823.13	5616.9	
823.3	4834.6	
823.48	3953.9	
823.65	3523.2	
823.82	5868.8	
823.99	4663.2	
824.17	4977.9	
824.34	3581.9	
824.51	6794.5	
824.68	5218.9	
824.86	3769.6	
825.03	4262.5	
825.2	5114.5	
825.37	6240.2	
825.55	3699.3	
825.72	4166.9	
825.89	6929.6	
826.06	6409.5	
826.24	4037.9	
826.41	4093.9	
826.58	6268.1	
826.75	5451.7	
826.92	3199.6	
827.1	3528	
827.27	8624	
827.44	6913.3	
827.61	3794.9	
827.79	4703.5	
827.96	4878.9	
828.13	5274.2	
828.3	3969.6	
828.47	3382.6	
828.65	5371.1	
828.82	5309.7	
828.99	5203.2	
829.16	4569.7	
829.34	5755.5	
829.51	5492.7	
829.68	4138.9	
829.85	4324.6	
830.02	5980.1	
830.2	5758.2	
830.37	3171.6	
830.54	5034.6	
830.71	6576	
830.88	5096.7	
831.05	3234.4	
831.23	3809.9	
831.4	6333	
831.57	7064.1	
831.74	3831.7	
831.91	3431	
832.09	5320.6	
832.26	5693.4	
832.43	4014.7	
832.6	4457.1	
832.77	5375.2	
832.94	6183.5	
833.12	3125.2	
833.29	3932.1	
833.46	5554.1	
833.63	7307.8	
833.8	4373.1	
833.97	4065.9	
834.15	5808	
834.32	5559.6	
834.49	4146.5	
834.66	4256.4	
834.83	6016.9	
835	4881	
835.17	3825.6	
835.35	3880.9	
835.52	5647.6	
835.69	5547.9	
835.86	4083.6	
836.03	3366.9	
836.2	5758.9	
836.37	5371.8	
836.55	3997.6	
836.72	3742.3	
836.89	5337	
837.06	5749.3	
837.23	4063.9	
837.4	4506.2	
837.57	6552.1	
837.75	7291.5	
837.92	3689.8	
838.09	3897.3	
838.26	5279.7	
838.43	6064.7	
838.6	4203.8	
838.77	3745.7	
838.94	6942.6	
839.11	6643.6	
839.29	3983.3	
839.46	3149.1	
839.63	5715.9	
839.8	5412.8	
839.97	3850.9	
840.14	3851.5	
840.31	5492	
840.48	5698.8	
840.65	3257	
840.82	3794.2	
841	5732.3	
841.17	5682.4	
841.34	3600.3	
841.51	3593.5	
841.68	5666	
841.85	5402.5	
842.02	3711.6	
842.19	3057.6	
842.36	5512.4	
842.53	5495.4	
842.7	3562.1	
842.87	4400.4	
843.05	7264.1	
843.22	5381.4	
843.39	3369.6	
843.56	3610.6	
843.73	5205.3	
843.9	5735	
844.07	5754.8	
844.24	4807.3	
844.41	8568.7	
844.58	4957.4	
844.75	3489.1	
844.92	3768.3	
845.09	5755.5	
845.26	5694.7	
845.43	3514.3	
845.6	3763.5	
845.77	5726.8	
845.94	5446.9	
846.12	3971	
846.29	4153.3	
846.46	5993.7	
846.63	5734.3	
846.8	3601.7	
846.97	4259.1	
847.14	6178	
847.31	5695.4	
847.48	3997	
847.65	4418.2	
847.82	6033.3	
847.99	5976.7	
848.16	4783.4	
848.33	4392.2	
848.5	5271.5	
848.67	6255.9	
848.84	3590.1	
849.01	3708.2	
849.18	5144.5	
849.35	4751.3	
849.52	4454.3	
849.69	3479.5	
849.86	5935	
850.03	6208.1	
850.2	3571.7	
850.37	4389.5	
850.54	6066.8	
850.71	5447.6	
850.88	4214	
851.05	3503.4	
851.22	5623.7	
851.39	6353.5	
851.56	3371	
851.73	4177.9	
851.9	4975.9	
852.07	6008.1	
852.24	3928.7	
852.41	3498.6	
852.58	5559.6	
852.75	5070.8	
852.92	4000.4	
853.09	3508.2	
853.26	5356.1	
853.43	6199.2	
853.6	3498.6	
853.77	3037.8	
853.94	6297.5	
854.11	5016.2	
854.28	5362.3	
854.44	3800.3	
854.61	6726.2	
854.78	5861.3	
854.95	3477.5	
855.12	4459.1	
855.29	4601.1	
855.46	6382.2	
855.63	3543	
855.8	4945.2	
855.97	5341.8	
856.14	6070.9	
856.31	5066	
856.48	3922.5	
856.65	5259.9	
856.82	4948.6	
856.99	3359.4	
857.16	3872	
857.33	7041.6	
857.49	5345.2	
857.66	3847.5	
857.83	4128.7	
858	5345.2	
858.17	5565.7	
858.34	3385.3	
858.51	3533.4	
858.68	6477	
858.85	6476.4	
859.02	4129.4	
859.19	4360.1	
859.36	4993.6	
859.52	5051.7	
859.69	3556.6	
859.86	4235.2	
860.03	5135.6	
860.2	6294.8	
860.37	3245.3	
860.54	3590.8	
860.71	5935.7	
860.88	6453.1	
861.05	3990.8	
861.21	4454.3	
861.38	6518.7	
861.55	4898.1	
861.72	3187.3	
861.89	3945.1	
862.06	6008.1	
862.23	6619.7	
862.4	3460.4	
862.56	3701.4	
862.73	5903.6	
862.9	5532.2	
863.07	4164.2	
863.24	3179.1	
863.41	4950.6	
863.58	5087.2	
863.75	3660.4	
863.91	4068.6	
864.08	6421.1	
864.25	5923.4	
864.42	4486.4	
864.59	4956.1	
864.76	6728.3	
864.93	5065.3	
865.09	3460.4	
865.26	3773	
865.43	6214.9	
865.6	6697.5	
865.77	3084.2	
865.94	3574.4	
866.1	6361.7	
866.27	6050.4	
866.44	5353.4	
866.61	3355.9	
866.78	5380	
866.95	5906.3	
867.11	3353.2	
867.28	3154.6	
867.45	6082.5	
867.62	5079.6	
867.79	4099.4	
867.96	3525.2	
868.12	5085.8	
868.29	6035.4	
868.46	3031.7	
868.63	4775.2	
868.8	6217	
868.97	5969.8	
869.13	3739.6	
869.3	3663.1	
869.47	5878.4	
869.64	6066.1	
869.81	3603.7	
869.97	3543	
870.14	5778.7	
870.31	6489.3	
870.48	3464.5	
870.65	4438.6	
870.81	5369.8	
870.98	5318.6	
871.15	4023.6	
871.32	3745.1	
871.48	5827.2	
871.65	6507.8	
871.82	3538.9	
871.99	3920.5	
872.16	6989	
872.32	6336.4	
872.49	3565.5	
872.66	3622.9	
872.83	6036	
872.99	5203.9	
873.16	4044.1	
873.33	3511.6	
873.5	5576.6	
873.67	5571.2	
873.83	3723.9	
874	4836.6	
874.17	5763	
874.34	6877.8	
874.5	4592.9	
874.67	4414.7	
874.84	6447.7	
875.01	4989.5	
875.17	5079.6	
875.34	3528	
875.51	5692.7	
875.68	6762.4	
875.84	4295.3	
876.01	5241.4	
876.18	5909.1	
876.34	5877	
876.51	3568.2	
876.68	3472	
876.85	5439.4	
877.01	6234.7	
877.18	5053	
877.35	3483.6	
877.52	5537	
877.68	4905.6	
877.85	3431.7	
878.02	3465.2	
878.18	5550	
878.35	5242.1	
878.52	2833.7	
878.69	3974.4	
878.85	6010.8	
879.02	5890.6	
879.19	5058.5	
879.35	3835.2	
879.52	5911.1	
879.69	6211.5	
879.86	3042.6	
880.02	3924.6	
880.19	5455.1	
880.36	6675.7	
880.52	4086.4	
880.69	4222.2	
880.86	6087.2	
881.02	6090.7	
881.19	3923.9	
881.36	3900.7	
881.52	5862.7	
881.69	5259.2	
881.86	3862.5	
882.02	3757.3	
882.19	6172.6	
882.36	7208.2	
882.52	3631.7	
882.69	5020.3	
882.86	5743.9	
883.02	5623.7	
883.19	4354.7	
883.36	4037.2	
883.52	6057.9	
883.69	6904.4	
883.86	3575.1	
884.02	3147.7	
884.19	6013.5	
884.36	5535	
884.52	4042.7	
884.69	3697.3	
884.86	5271.5	
885.02	6672.3	
885.19	4005.8	
885.36	4113.7	
885.52	5550.7	
885.69	5707.7	
885.86	5150.6	
886.02	4573.8	
886.19	5965.7	
886.35	5429.8	
886.52	4007.9	
886.69	5005.9	
886.85	5113.8	
887.02	6344.6	
887.19	6344.6	
887.35	6344.6	
887.52	6344.6	
887.68	6344.6	
887.85	6344.6	
888.02	6344.6	
888.18	6344.6	
888.35	6344.6	
888.51	6344.6	
888.68	6344.6	
888.85	6344.6	
889.01	6344.6	
889.18	6344.6	
889.35	6344.6	
889.51	6344.6	
889.68	6344.6	
889.84	6344.6	
890.01	6344.6	
890.17	6344.6	
890.34	6344.6	
890.51	6344.6	
890.67	6344.6	
890.84	6344.6	
891	6344.6	
891.17	6344.6	
891.34	6344.6	
891.5	6344.6	
891.67	6344.6	
891.83	6344.6	
892	6344.6	
892.16	6344.6	
892.33	6344.6	
892.5	6344.6	
892.66	6344.6	
892.83	6344.6	
892.99	6344.6	
893.16	6344.6	
893.32	6344.6	
893.49	6344.6	
893.65	6344.6	
893.82	6344.6	
893.99	6344.6	
894.15	6344.6	
894.32	6344.6	
894.48	6344.6	
894.65	6344.6	
894.81	6344.6	
894.98	6344.6	
895.14	6344.6	
895.31	6344.6	
895.47	6344.6	
895.64	6344.6	
895.81	6344.6	
895.97	6344.6	
896.14	6344.6	
896.3	6344.6	
896.47	6344.6	
896.63	6344.6	
896.8	6344.6	
896.96	6344.6	
897.13	6344.6	
897.29	6344.6	
897.46	6344.6	
897.62	6344.6	
897.79	6344.6	
897.95	6344.6	
898.12	6344.6	
898.28	6344.6	
898.45	6344.6	
898.61	6344.6	
898.78	6344.6	
898.94	6344.6	
899.11	6344.6	
899.27	6344.6	
899.44	6344.6	
899.6	6344.6	
899.77	6344.6	
899.93	6344.6	
900.1	6344.6	
900.26	6344.6	
900.43	6344.6	
900.59	6344.6	
900.76	6344.6	
900.92	6344.6	
901.09	6344.6	
901.25	6344.6	
901.42	6344.6	
901.58	6344.6	
901.75	6344.6	
901.91	6344.6	
902.07	6344.6	
902.24	6344.6	
902.4	6344.6	
902.57	6344.6	
902.73	6344.6	
902.9	6344.6	
903.06	6344.6	
903.23	6344.6	
903.39	6344.6	
903.56	6344.6	
903.72	6344.6	
903.88	6344.6	
904.05	6344.6	
904.21	6344.6	
904.38	6344.6	
904.54	6344.6	
904.71	6344.6	
904.87	6344.6	
905.03	6344.6	
905.2	6344.6	
905.36	6344.6	
905.53	6344.6	
905.69	6344.6	
905.86	6344.6	
906.02	6344.6	
906.18	6344.6	
906.35	6344.6	
906.51	6344.6	
906.68	6344.6	
906.84	6344.6	
907.01	6344.6	
907.17	6344.6	
907.33	6344.6	
907.5	6344.6	
907.66	6344.6	
907.83	6344.6	
907.99	6344.6	
908.15	6344.6	
908.32	6344.6	
908.48	6344.6	
908.65	6344.6	
908.81	6344.6	
908.97	6344.6	
909.14	6344.6	
909.3	6344.6	
909.47	6344.6	
909.63	6344.6	
909.79	6344.6	
909.96	6344.6	
910.12	6344.6	
910.28	6344.6	
910.45	6344.6	
910.61	6344.6	
910.78	6344.6	
910.94	6344.6	
911.1	6344.6	
911.27	6344.6	
911.43	6344.6	
911.59	6344.6	
911.76	6344.6	
911.92	6344.6	
912.08	6344.6	
912.25	6344.6	
912.41	6344.6	
912.57	6344.6	
912.74	6344.6	
912.9	6344.6	
913.07	6344.6	
913.23	6344.6	
913.39	6344.6	
913.56	6344.6	
913.72	6344.6	
913.88	6344.6	
914.05	6344.6	
914.21	6344.6	
914.37	6344.6	
914.54	6344.6	
914.7	6344.6	
914.86	6344.6	
915.03	6344.6	
915.19	6344.6	
