Wavelength	Intensities	
nm	a.u.	
179.22	1772.5	
179.44	1777	
179.65	1768.1	
179.86	1785.8	
180.08	1822	
180.29	4341.7	
180.51	3155.9	
180.72	5247.6	
180.94	5924.8	
181.15	2914.9	
181.37	2890.4	
181.58	5089.2	
181.79	5323.4	
182.01	3089.7	
182.22	3231.7	
182.44	5311.7	
182.65	4511	
182.87	4013.3	
183.08	3506.8	
183.29	5588.2	
183.51	4641.4	
183.72	3231.7	
183.94	4513.7	
184.15	5040.7	
184.37	4972.5	
184.58	2912.2	
184.79	3792.2	
185.01	4678.2	
185.22	5315.2	
185.44	4123.2	
185.65	3508.2	
185.86	4975.9	
186.08	4571.7	
186.29	2843.3	
186.51	3009.8	
186.72	4709.6	
186.94	5401.2	
187.15	3428.3	
187.36	3525.2	
187.58	6851.1	
187.79	5047.6	
188.01	3654.9	
188.22	5617.6	
188.43	6049.7	
188.65	5307	
188.86	2964.1	
189.08	3574.4	
189.29	4780	
189.5	4786.8	
189.72	3288.4	
189.93	3360.7	
190.15	5466.7	
190.36	6447.7	
190.57	3622.2	
190.79	3522.5	
191	5605.3	
191.22	5449.6	
191.43	3581.2	
191.64	3046	
191.86	5704.3	
192.07	5471.5	
192.29	3144.3	
192.5	3321.8	
192.71	5519.3	
192.93	4785.4	
193.14	3244.7	
193.35	3323.2	
193.57	4792.2	
193.78	5479	
194	2693.1	
194.21	3233.7	
194.42	4579.3	
194.64	5008.6	
194.85	3507.5	
195.07	4127.3	
195.28	5026.4	
195.49	4446.8	
195.71	4340.3	
195.92	3089	
196.13	5196.4	
196.35	5255.8	
196.56	4528.7	
196.78	3489.1	
196.99	6343.2	
197.2	5910.4	
197.42	3969	
197.63	3586.7	
197.84	4504.2	
198.06	5144.5	
198.27	3310.2	
198.48	4317.8	
198.7	4795	
198.91	4921.3	
199.13	3568.9	
199.34	3505.4	
199.55	5367	
199.77	4359.4	
199.98	3171.6	
200.19	3633.1	
200.41	4943.8	
200.62	4634.6	
200.83	3747.8	
201.05	3963.5	
201.26	4913.1	
201.47	4663.2	
201.69	3194.1	
201.9	3063.8	
202.11	4962.9	
202.33	5741.8	
202.54	3401	
202.76	3752.6	
202.97	5051	
203.18	5083.7	
203.4	3797.6	
203.61	3709.6	
203.82	5038.7	
204.04	4716.5	
204.25	3598.3	
204.46	3525.2	
204.68	5049.6	
204.89	5167.7	
205.1	3489.1	
205.32	3092.4	
205.53	5311.7	
205.74	5449.6	
205.96	2642.6	
206.17	3639.2	
206.38	5287.9	
206.6	5440.1	
206.81	4024.3	
207.02	3336.8	
207.24	5229.8	
207.45	5573.9	
207.66	3409.2	
207.88	2982.5	
208.09	5142.4	
208.3	4959.5	
208.52	3179.1	
208.73	3470.6	
208.94	5017.5	
209.15	5564.3	
209.37	3391.4	
209.58	3863.8	
209.79	5425.8	
210.01	4867.3	
210.22	2763.4	
210.43	2883.5	
210.65	4999.1	
210.86	5352	
211.07	3442	
211.29	3166.8	
211.5	5270.1	
211.71	4986.8	
211.93	3157.3	
212.14	3147	
212.35	4971.1	
212.56	5096.7	
212.78	3579.8	
212.99	2985.9	
213.2	5789.6	
213.42	4828.4	
213.63	3256.3	
213.84	3429	
214.06	4523.3	
214.27	4592.2	
214.48	3382.6	
214.69	3645.4	
214.91	5560.9	
215.12	5584.8	
215.33	3625.6	
215.55	3969.6	
215.76	6024.4	
215.97	5244.8	
216.18	3519.8	
216.4	3461.1	
216.61	4703.5	
216.82	5421	
217.04	3198.2	
217.25	3322.5	
217.46	5537	
217.67	5285.1	
217.89	2867.2	
218.1	2937.5	
218.31	5026.4	
218.53	5183.4	
218.74	3332.7	
218.95	3216.7	
219.16	4905.6	
219.38	5810.1	
219.59	3222.1	
219.8	3794.2	
220.01	6265.4	
220.23	4989.5	
220.44	4119.1	
220.65	3149.8	
220.87	5051	
221.08	5520	
221.29	2979.1	
221.5	3891.8	
221.72	6618.4	
221.93	4753.3	
222.14	3583.3	
222.35	4215.4	
222.57	5038	
222.78	5328.8	
222.99	3465.8	
223.2	3703.4	
223.42	5246.2	
223.63	5343.2	
223.84	2686.9	
224.05	2682.8	
224.27	6177.4	
224.48	5736.4	
224.69	4180.6	
224.9	3540.3	
225.12	5184.1	
225.33	4962.9	
225.54	2923.1	
225.75	3214.6	
225.97	4640	
226.18	4913.8	
226.39	3429.7	
226.6	3203.7	
226.82	4765.6	
227.03	4631.1	
227.24	3573	
227.45	2996.2	
227.67	5353.4	
227.88	5717.9	
228.09	4002.4	
228.3	3903.4	
228.52	5303.6	
228.73	4980.7	
228.94	3347.7	
229.15	3026.9	
229.36	4981.3	
229.58	4930.8	
229.79	3336.1	
230	3946.4	
230.21	5881.8	
230.43	5040.7	
230.64	3551.2	
230.85	3678.8	
231.06	5385.5	
231.28	5363.6	
231.49	2953.9	
231.7	3483.6	
231.91	5248.3	
232.12	5005.9	
232.34	3091.1	
232.55	3481.5	
232.76	5470.8	
232.97	5134.9	
233.18	3161.4	
233.4	3573.7	
233.61	5193.6	
233.82	4748.6	
234.03	3334.8	
234.25	3250.8	
234.46	6680.5	
234.67	4992.3	
234.88	3659	
235.09	3197.6	
235.31	5231.2	
235.52	4937	
235.73	3552.5	
235.94	3055.6	
236.15	4767	
236.37	5889.3	
236.58	3161.4	
236.79	3448.8	
237	5268.7	
237.21	4580.6	
237.43	3691.1	
237.64	2893.8	
237.85	8586.5	
238.06	4614.8	
238.27	3758.7	
238.48	3007.8	
238.7	5315.2	
238.91	4853	
239.12	3392.1	
239.33	3479.5	
239.54	4683.7	
239.76	4958.8	
239.97	3427.6	
240.18	3450.8	
240.39	6062.7	
240.6	5233.2	
240.82	3570.3	
241.03	2990.7	
241.24	4992.3	
241.45	5683.8	
241.66	3147.7	
241.87	3676.1	
242.09	5565.7	
242.3	5933.6	
242.51	3770.3	
242.72	3450.1	
242.93	5345.2	
243.14	4911.7	
243.36	3964.2	
243.57	4241.3	
243.78	5705	
243.99	5261.2	
244.2	3404.4	
244.41	3140.2	
244.63	4631.1	
244.84	5244.8	
245.05	3654.3	
245.26	3441.3	
245.47	5221.6	
245.68	5428.5	
245.9	4480.3	
246.11	3614	
246.32	4784.1	
246.53	5156.1	
246.74	5466.7	
246.95	2953.2	
247.16	4628.4	
247.38	4975.2	
247.59	2966.1	
247.8	3474	
248.01	4644.1	
248.22	4949.9	
248.43	3192.1	
248.64	3394.8	
248.86	4467.3	
249.07	4814.8	
249.28	3011.2	
249.49	3514.3	
249.7	5407.3	
249.91	5537.7	
250.12	2885.6	
250.34	2942.9	
250.55	5117.9	
250.76	5026.4	
250.97	3540.9	
251.18	3580.5	
251.39	5554.1	
251.6	5175.9	
251.81	3618.8	
252.03	3584.6	
252.24	4772.4	
252.45	5423	
252.66	2989.4	
252.87	3807.9	
253.08	4987.5	
253.29	6333	
253.5	3013.9	
253.72	4173.1	
253.93	4865.3	
254.14	5812.1	
254.35	3256.3	
254.56	3331.4	
254.77	5226.4	
254.98	4670.1	
255.19	3253.5	
255.41	4128	
255.62	5129.5	
255.83	5547.3	
256.04	3629	
256.25	3534.1	
256.46	6068.1	
256.67	4700.1	
256.88	3521.1	
257.09	3894.6	
257.31	4734.9	
257.52	4689.2	
257.73	4425.7	
257.94	3253.5	
258.15	4899.4	
258.36	5016.2	
258.57	4080.2	
258.78	2661.7	
258.99	5423	
259.2	4831.8	
259.41	3264.5	
259.63	3378.5	
259.84	5681.1	
260.05	5997.8	
260.26	4276.8	
260.47	3229	
260.68	5563	
260.89	4912.4	
261.1	3900.7	
261.31	3175	
261.52	5507.7	
261.73	5816.9	
261.95	4196.3	
262.16	3702.7	
262.37	5528.8	
262.58	5667.4	
262.79	4153.3	
263	3342.3	
263.21	5087.8	
263.42	4845.5	
263.63	3416.7	
263.84	3420.8	
264.05	5439.4	
264.26	5732.3	
264.47	4089.8	
264.69	3636.5	
264.9	5657.9	
265.11	5152.7	
265.32	3183.9	
265.53	3309.5	
265.74	5120.6	
265.95	4469.4	
266.16	3530.7	
266.37	3870.7	
266.58	5065.3	
266.79	4786.8	
267	3261.7	
267.21	3022.8	
267.42	4655.7	
267.63	4973.8	
267.84	3424.2	
268.06	2913.6	
268.27	5368.4	
268.48	5532.2	
268.69	3345	
268.9	3967.6	
269.11	5590.3	
269.32	4517.8	
269.53	3446	
269.74	3186	
269.95	5198.4	
270.16	4456.4	
270.37	3442.6	
270.58	3938.9	
270.79	4833.9	
271	5419.6	
271.21	3654.9	
271.42	3460.4	
271.63	5124.7	
271.84	4647.5	
272.05	2790.7	
272.26	3122.5	
272.47	4938.3	
272.68	5191.6	
272.89	3289	
273.11	3811.3	
273.32	4735.6	
273.53	5776	
273.74	3676.1	
273.95	3637.9	
274.16	5405.3	
274.37	5023.7	
274.58	3820.1	
274.79	3022.1	
275	5156.8	
275.21	5482.4	
275.42	4500.1	
275.63	3849.5	
275.84	5195	
276.05	6450.4	
276.26	3611.3	
276.47	3462.4	
276.68	4892.6	
276.89	5813.5	
277.1	3865.2	
277.31	3044	
277.52	5160.2	
277.73	5400.5	
277.94	3038.5	
278.15	3345	
278.36	5193.6	
278.57	4612.7	
278.78	3297.9	
278.99	3688.4	
279.2	4722.6	
279.41	4586.8	
279.62	4365.6	
279.83	3089	
280.04	6051.7	
280.25	4635.9	
280.46	4248.9	
280.67	3430.3	
280.88	4715.1	
281.09	5543.9	
281.3	3685.7	
281.51	4468	
281.72	4752.7	
281.93	5390.9	
282.14	3276.8	
282.35	3499.3	
282.56	5450.3	
282.77	5319.3	
282.98	3351.8	
283.19	4024.3	
283.4	6516.6	
283.61	4965	
283.82	3067.9	
284.03	4246.8	
284.24	5164.3	
284.45	5520.6	
284.66	4269.3	
284.87	4002.4	
285.08	5473.5	
285.29	5606	
285.5	2981.2	
285.71	3335.5	
285.92	5461.2	
286.12	6048.3	
286.33	4169.7	
286.54	3344.3	
286.75	5375.9	
286.96	4866	
287.17	3134.1	
287.38	4066.6	
287.59	4749.9	
287.8	4660.5	
288.01	3403	
288.22	3822.9	
288.43	5365	
288.64	4592.9	
288.85	3986.7	
289.06	3849.5	
289.27	5378.6	
289.48	5730.2	
289.69	4302.8	
289.9	3810.6	
290.11	5555.5	
290.32	4763.6	
290.53	3988.8	
290.74	3749.8	
290.94	5366.4	
291.15	5390.3	
291.36	3267.2	
291.57	3848.1	
291.78	4841.4	
291.99	4487.1	
292.2	3192.8	
292.41	3781.9	
292.62	5472.2	
292.83	5229.1	
293.04	4548.5	
293.25	3143.6	
293.46	4801.1	
293.67	5442.8	
293.88	3269.9	
294.09	3112.9	
294.29	4643.4	
294.5	5177.9	
294.71	3507.5	
294.92	3332.7	
295.13	4848.2	
295.34	5936.4	
295.55	2953.2	
295.76	2912.2	
295.97	5357.5	
296.18	5917.9	
296.39	3048.1	
296.6	3261	
296.81	5066.7	
297.01	5380.7	
297.22	3340.9	
297.43	3273.3	
297.64	4702.8	
297.85	4674.8	
298.06	2686.3	
298.27	2925.2	
298.48	5013.4	
298.69	4747.9	
298.9	3500.7	
299.11	3233.1	
299.31	4648.9	
299.52	4590.2	
299.73	3801.7	
299.94	3633.1	
300.15	5044.8	
300.36	4751.3	
300.57	3645.4	
300.78	3659.7	
300.99	4885.8	
301.2	5104.2	
301.4	3250.1	
301.61	3450.1	
301.82	5307.7	
302.03	5346.6	
302.24	3868.6	
302.45	3080.8	
302.66	5270.8	
302.87	5541.8	
303.08	3283.6	
303.29	4360.8	
303.49	4799.1	
303.7	4966.3	
303.91	2919.7	
304.12	4201.1	
304.33	4573.1	
304.54	5124.7	
304.75	3265.8	
304.96	3121.1	
305.16	5256.5	
305.37	5881.1	
305.58	2891	
305.79	2971.6	
306	5253.7	
306.21	4502.8	
306.42	3282.2	
306.63	4797.7	
306.83	4839.4	
307.04	5423.7	
307.25	3543.7	
307.46	3572.3	
307.67	4332.8	
307.88	5343.8	
308.09	3253.5	
308.29	3304.1	
308.5	5088.5	
308.71	5483.8	
308.92	3413.3	
309.13	3147.7	
309.34	4911	
309.55	4889.9	
309.75	3998.3	
309.96	3648.1	
310.17	5355.4	
310.38	4775.2	
310.59	3822.9	
310.8	3108.1	
311.01	5864	
311.21	4878.3	
311.42	3112.2	
311.63	3231.7	
311.84	4788.8	
312.05	5111	
312.26	3656.3	
312.46	3875.4	
312.67	4891.2	
312.88	4622.9	
313.09	3132	
313.3	3110.9	
313.51	5649	
313.71	5943.9	
313.92	3172.3	
314.13	3272.7	
314.34	5179.3	
314.55	4903.5	
314.76	4001.7	
314.96	3546.4	
315.17	5132.9	
315.38	5280.3	
315.59	3196.2	
315.8	3024.2	
316.01	5679.7	
316.21	5853.8	
316.42	3063.8	
316.63	3475.4	
316.84	4900.1	
317.05	5569.8	
317.26	3635.8	
317.46	3385.3	
317.67	4956.8	
317.88	5257.8	
318.09	3930.7	
318.3	3023.5	
318.5	4775.9	
318.71	5200.5	
318.92	4926	
319.13	3672	
319.34	5386.2	
319.54	5516.5	
319.75	2936.8	
319.96	2833.7	
320.17	5295.4	
320.38	5468.1	
320.58	2879.4	
320.79	3445.4	
321	5433.9	
321.21	5649	
321.42	3469.3	
321.62	2861	
321.83	4679.6	
322.04	5019.6	
322.25	3362.8	
322.46	3160	
322.66	5045.5	
322.87	5296	
323.08	3837.9	
323.29	3100.6	
323.5	5892	
323.7	4589.5	
323.91	4227.7	
324.12	3771.7	
324.33	5108.3	
324.53	5285.8	
324.74	3677.5	
324.95	3828.3	
325.16	4519.9	
325.37	4844.8	
325.57	3147.7	
325.78	3201.7	
325.99	5096.7	
326.2	4579.3	
326.4	4492.6	
326.61	2917	
326.82	4937	
327.03	5109	
327.24	4358.8	
327.44	4100.7	
327.65	5266.7	
327.86	4317.1	
328.07	3635.8	
328.27	3057.6	
328.48	5613.5	
328.69	4635.2	
328.9	4460.5	
329.1	3321.8	
329.31	4917.9	
329.52	5612.1	
329.73	3173	
329.93	3493.2	
330.14	5036	
330.35	5165.7	
330.56	5053.7	
330.76	3814.7	
330.97	4856.4	
331.18	5126.1	
331.39	3476.8	
331.59	2880.8	
331.8	5454.4	
332.01	5594.4	
332.22	3242.6	
332.42	3675.4	
332.63	5115.8	
332.84	4755.4	
333.05	3519.8	
333.25	3207.8	
333.46	4761.5	
333.67	5024.3	
333.88	3325.9	
334.08	3614.7	
334.29	6604.7	
334.5	5486.5	
334.7	3074	
334.91	4354.7	
335.12	4583.4	
335.33	5326.1	
335.53	3473.4	
335.74	5001.8	
335.95	4829.1	
336.16	4620.2	
336.36	3485	
336.57	4005.8	
336.78	4589.5	
336.98	5476.3	
337.19	4219.5	
337.4	3431.7	
337.61	6032	
337.81	4579.3	
338.02	3235.1	
338.23	4124.6	
338.43	5662	
338.64	4761.5	
338.85	3215.3	
339.05	4069.3	
339.26	5670.8	
339.47	4521.2	
339.68	3186	
339.88	4597	
340.09	5193	
340.3	5391.6	
340.5	3697.9	
340.71	2869.2	
340.92	4549.2	
341.13	5569.1	
341.33	3073.3	
341.54	3695.9	
341.75	5147.9	
341.95	4872.1	
342.16	3519.1	
342.37	3793.5	
342.57	4676.2	
342.78	4971.1	
342.99	3888.4	
343.19	2912.9	
343.4	5324	
343.61	5229.8	
343.81	3359.4	
344.02	3123.2	
344.23	5320.6	
344.43	5746.6	
344.64	3816.7	
344.85	3819.5	
345.06	5208.7	
345.26	5517.2	
345.47	3638.6	
345.68	4226.3	
345.88	4481	
346.09	5392.3	
346.3	3715.7	
346.5	2841.9	
346.71	4941.7	
346.92	4728.1	
347.12	2902	
347.33	3614.7	
347.54	5480.4	
347.74	5783.5	
347.95	3586	
348.16	2736.1	
348.36	4823	
348.57	4642.1	
348.78	3628.3	
348.98	3783.3	
349.19	4896.7	
349.39	4531.5	
349.6	2963.4	
349.81	3207.8	
350.01	5231.9	
350.22	4760.8	
350.43	3488.4	
350.63	4147.8	
350.84	5004.6	
351.05	4778.6	
351.25	3183.2	
351.46	2895.8	
351.67	5433.3	
351.87	4685.8	
352.08	3409.2	
352.29	3872.7	
352.49	5347.9	
352.7	5491.3	
352.9	3162.7	
353.11	3759.4	
353.32	5892.7	
353.52	4816.8	
353.73	3106.8	
353.94	3846.1	
354.14	5246.9	
354.35	5058.5	
354.55	3202.3	
354.76	3457	
354.97	5183.4	
355.17	4985.4	
355.38	3044.6	
355.59	3985.3	
355.79	4730.8	
356	5057.1	
356.2	3455.6	
356.41	3035.1	
356.62	4468.7	
356.82	4911.7	
357.03	3728.7	
357.24	3330.7	
357.44	4735.6	
357.65	4854.4	
357.85	4418.2	
358.06	3501.3	
358.27	4559.5	
358.47	4737	
358.68	2958.6	
358.88	3735.5	
359.09	5141.1	
359.3	5522.7	
359.5	4284.4	
359.71	3844	
359.91	5839.4	
360.12	5309	
360.33	3725.9	
360.53	4125.3	
360.74	4781.3	
360.94	4786.1	
361.15	3865.2	
361.36	3295.2	
361.56	5466	
361.77	4949.3	
361.97	4252.3	
362.18	3448.8	
362.38	5451.7	
362.59	4645.5	
362.8	3222.8	
363	3130	
363.21	4511.7	
363.41	5130.8	
363.62	3672.7	
363.83	4457.1	
364.03	5229.1	
364.24	5920	
364.44	4597.7	
364.65	4644.8	
364.85	4985.4	
365.06	4708.3	
365.27	3362.8	
365.47	3375.7	
365.68	5807.4	
365.88	4942.4	
366.09	3714.3	
366.29	3446	
366.5	5139.7	
366.71	5530.2	
366.91	4521.2	
367.12	3832.4	
367.32	6000.5	
367.53	5409.4	
367.73	3825.6	
367.94	4642.1	
368.14	5461.2	
368.35	6111.8	
368.56	3744.4	
368.76	3332.7	
368.97	5495.4	
369.17	6858	
369.38	3360.7	
369.58	3620.1	
369.79	4673.5	
369.99	5793.7	
370.2	4437.9	
370.4	3726.6	
370.61	5218.9	
370.82	6229.9	
371.02	3627.6	
371.23	3115.6	
371.43	4617.5	
371.64	5727.5	
371.84	3677.5	
372.05	4639.3	
372.25	6750.1	
372.46	5514.5	
372.66	3687	
372.87	3628.3	
373.07	5561.6	
373.28	6907.1	
373.48	4444.8	
373.69	4241.3	
373.9	5102.2	
374.1	5134.3	
374.31	4506.2	
374.51	4060.4	
374.72	5843.5	
374.92	4902.8	
375.13	4618.2	
375.33	3976.5	
375.54	5442.8	
375.74	5001.8	
375.95	4060.4	
376.15	5088.5	
376.36	5513.1	
376.56	5396.4	
376.77	4110.3	
376.97	4492.6	
377.18	6382.8	
377.38	5564.3	
377.59	4737.6	
377.79	3756	
378	5454.4	
378.2	5764.3	
378.41	3758.7	
378.61	3687.7	
378.82	5873.6	
379.02	5151.3	
379.23	3903.4	
379.43	4826.4	
379.64	5975.3	
379.84	5616.2	
380.05	3803.1	
380.25	3746.4	
380.46	5718.6	
380.66	5325.4	
380.87	4922.6	
381.07	5214.1	
381.28	6229.9	
381.48	5653.1	
381.69	3792.2	
381.89	3814	
382.1	4833.9	
382.3	5820.3	
382.51	4726.7	
382.71	5434.6	
382.91	5635.3	
383.12	6048.3	
383.32	4134.2	
383.53	4238.6	
383.73	5528.2	
383.94	5421	
384.14	4199	
384.35	3465.2	
384.55	5260.5	
384.76	5688.6	
384.96	4040	
385.17	4243.4	
385.37	5668.1	
385.58	4998.4	
385.78	4257	
385.98	3402.4	
386.19	5195	
386.39	5481.7	
386.6	3927.3	
386.8	4117.8	
387.01	5649	
387.21	5664	
387.42	4356.7	
387.62	4885.8	
387.83	5016.2	
388.03	5509.7	
388.23	4084.3	
388.44	4715.8	
388.64	4818.2	
388.85	4975.9	
389.05	4379.2	
389.26	4958.1	
389.46	6580.8	
389.67	6040.1	
389.87	4425	
390.07	4470.7	
390.28	5300.8	
390.48	5014.8	
390.69	3751.2	
390.89	4012.7	
391.1	5221	
391.3	5957.5	
391.5	5023	
391.71	5498.8	
391.91	5743.9	
392.12	6515.3	
392.32	5083.1	
392.53	4423.6	
392.73	5225.7	
392.93	5449.6	
393.14	4122.6	
393.34	4777.9	
393.55	5711.1	
393.75	5356.8	
393.95	4095.9	
394.16	4016.7	
394.36	5176.6	
394.57	5756.8	
394.77	3607.8	
394.98	4019.5	
395.18	5152.7	
395.38	5331.5	
395.59	4779.3	
395.79	3912.3	
396	5264	
396.2	5730.2	
396.4	4612.7	
396.61	4612.7	
396.81	5902.9	
397.02	5195	
397.22	4868.7	
397.42	4857.1	
397.63	5900.2	
397.83	5253	
398.04	3969.6	
398.24	4349.9	
398.44	5711.8	
398.65	4892.6	
398.85	3820.1	
399.05	3881.6	
399.26	5270.8	
399.46	6635.4	
399.67	4263.9	
399.87	4057.7	
400.07	5528.8	
400.28	5846.3	
400.48	4179.2	
400.69	5013.4	
400.89	6050.4	
401.09	6428.6	
401.3	4046.1	
401.5	5020.3	
401.7	6634.1	
401.91	6821.8	
402.11	4389.5	
402.32	4552.6	
402.52	6143.2	
402.72	6068.8	
402.93	4744.5	
403.13	3764.2	
403.33	6698.9	
403.54	5518.6	
403.74	4399	
403.94	5151.3	
404.15	5604.6	
404.35	6532.3	
404.56	4147.8	
404.76	5694.7	
404.96	5973.9	
405.17	5776.6	
405.37	5382.1	
405.57	4605.9	
405.78	6078.4	
405.98	5594.4	
406.18	4241.3	
406.39	4957.4	
406.59	5976	
406.79	5628.5	
407	4016.1	
407.2	4154.6	
407.4	6029.2	
407.61	6178	
407.81	4091.2	
408.01	5646.2	
408.22	5162.9	
408.42	6780.8	
408.62	5094	
408.83	4657.8	
409.03	5765.7	
409.23	5688.6	
409.44	4776.5	
409.64	4980.7	
409.84	6679.1	
410.05	6541.2	
410.25	4976.6	
410.45	4774.5	
410.66	6208.8	
410.86	8267.6	
411.06	5142.4	
411.27	5043.5	
411.47	8090.2	
411.67	6313.2	
411.88	5276.9	
412.08	5459.9	
412.28	6866.2	
412.49	7275.8	
412.69	5051.7	
412.89	5117.2	
413.09	7172.7	
413.3	7037.5	
413.5	5255.8	
413.7	4943.8	
413.91	6425.2	
414.11	7144	
414.31	5117.2	
414.52	5472.2	
414.72	6907.1	
414.92	6835.4	
415.12	5160.2	
415.33	5577.3	
415.53	7144	
415.73	7283.9	
415.94	5795.8	
416.14	5325.4	
416.34	6436.8	
416.55	6140.5	
416.75	6315.9	
416.95	5853.1	
417.15	7253.9	
417.36	7751.6	
417.56	6498.2	
417.76	5715.9	
417.97	7488.7	
418.17	7257.3	
418.37	5461.9	
418.57	5452.4	
418.78	7107.8	
418.98	6824.5	
419.18	6269.5	
419.38	6098.2	
419.59	6808.1	
419.79	6492.7	
419.99	5309.7	
420.2	5623	
420.4	7197.2	
420.6	7270.3	
420.8	5270.1	
421.01	5094.7	
421.21	7084.6	
421.41	7251.9	
421.61	5541.1	
421.82	5287.9	
422.02	6622.4	
422.22	7485.3	
422.42	5991.7	
422.63	5639.4	
422.83	6748.1	
423.03	7775.5	
423.23	5711.1	
423.44	4798.4	
423.64	6776.7	
423.84	6521.4	
424.04	5160.2	
424.25	4912.4	
424.45	7432.8	
424.65	7427.3	
424.85	4759.5	
425.06	5163.6	
425.26	7511.9	
425.46	6591	
425.66	5589.6	
425.87	5332.2	
426.07	7274.4	
426.27	7137.2	
426.47	5382.7	
426.67	4876.9	
426.88	7484.6	
427.08	7008.8	
427.28	5636	
427.48	4850.3	
427.69	6152.1	
427.89	6715.3	
428.09	5554.8	
428.29	4813.4	
428.5	7139.9	
428.7	6806.8	
428.9	4807.9	
429.1	5186.1	
429.3	6716	
429.51	7053.9	
429.71	5075.5	
429.91	5782.1	
430.11	7066.9	
430.31	7272.3	
430.52	5347.2	
430.72	5509.7	
430.92	7539.3	
431.12	7031.4	
431.32	4984.1	
431.53	5310.4	
431.73	6159.6	
431.93	7511.9	
432.13	4900.8	
432.33	4764.3	
432.54	6534.4	
432.74	6757.6	
432.94	4790.9	
433.14	5668.1	
433.34	7025.9	
433.55	6659.3	
433.75	5581.4	
433.95	7100.3	
434.15	6884.6	
434.35	6581.5	
434.56	4978.6	
434.76	4557.4	
434.96	6720.1	
435.16	7016.3	
435.36	4876.9	
435.56	5836	
435.77	6539.8	
435.97	6651.8	
436.17	6421.7	
436.37	5754.8	
436.57	6475	
436.78	6410.8	
436.98	5733.6	
437.18	6267.5	
437.38	7055.3	
437.58	6724.2	
437.78	6421.7	
437.99	5313.1	
438.19	7115.3	
438.39	7747.5	
438.59	5222.3	
438.79	4749.2	
438.99	7527.7	
439.2	6553.5	
439.4	4767.7	
439.6	4766.3	
439.8	6816.3	
440	7759.8	
440.2	5675.6	
440.4	5701.5	
440.61	7306.5	
440.81	7690.8	
441.01	5021.6	
441.21	5763	
441.41	7621.9	
441.61	7295.5	
441.81	6069.5	
442.02	6856.6	
442.22	8038.3	
442.42	7411.6	
442.62	5169.8	
442.82	5111.7	
443.02	7714	
443.22	6879.8	
443.43	5520	
443.63	5094	
443.83	6749.4	
444.03	6691.4	
444.23	6161.7	
444.43	5824.4	
444.63	6994.5	
444.83	8061.5	
445.04	5255.1	
445.24	6357.6	
445.44	7267.6	
445.64	7397.3	
445.84	5943.9	
446.04	5886.5	
446.24	6769.9	
446.44	7653.9	
446.65	5145.9	
446.85	5520.6	
447.05	6805.4	
447.25	7568.6	
447.45	5637.4	
447.65	5098.1	
447.85	6975.4	
448.05	6654.5	
448.25	5810.8	
448.46	5710.4	
448.66	6989.7	
448.86	6707.1	
449.06	4902.2	
449.26	5823.7	
449.46	7208.8	
449.66	6511.9	
449.86	5534.3	
450.06	5444.2	
450.26	6621.8	
450.47	7161.7	
450.67	5785.5	
450.87	5948	
451.07	7212.3	
451.27	7061.4	
451.47	5101.5	
451.67	5595.7	
451.87	6756.9	
452.07	7706.5	
452.27	5357.5	
452.47	5285.1	
452.67	6959.7	
452.88	7406.1	
453.08	4694.6	
453.28	6395.1	
453.48	8002.1	
453.68	6908.5	
453.88	5193	
454.08	5341.8	
454.28	7305.8	
454.48	6938.5	
454.68	5887.9	
454.88	6206.7	
455.08	7311.9	
455.28	7131.7	
455.48	5064.6	
455.68	5623	
455.89	7793.9	
456.09	7458	
456.29	5429.2	
456.49	5454.4	
456.69	7631.4	
456.89	7041.6	
457.09	5862.7	
457.29	6225.8	
457.49	7379.5	
457.69	7406.8	
457.89	5754.8	
458.09	5221.6	
458.29	7072.3	
458.49	7718.1	
458.69	6004.6	
458.89	5644.9	
459.09	7944.8	
459.29	8001.4	
459.49	5665.4	
459.69	6382.2	
459.9	7479.9	
460.1	7152.9	
460.3	5570.5	
460.5	5358.9	
460.7	7493.5	
460.9	7245	
461.1	5136.3	
461.3	6166.4	
461.5	8083.3	
461.7	7722.2	
461.9	5568.4	
462.1	5874.3	
462.3	7352.2	
462.5	7822.6	
462.7	5608	
462.9	5700.9	
463.1	8620.6	
463.3	8367.3	
463.5	5862	
463.7	6617.7	
463.9	7488.7	
464.1	7851.2	
464.3	5983.5	
464.5	6154.1	
464.7	8079.2	
464.9	7816.4	
465.1	7215	
465.3	6424.5	
465.5	8297.7	
465.7	8322.9	
465.9	6623.1	
466.1	6470.2	
466.3	8202.8	
466.5	7985	
466.7	7280.5	
466.9	6260.6	
467.1	8112	
467.3	8717.5	
467.5	7178.8	
467.7	6292.7	
467.9	8960.5	
468.1	9669.1	
468.3	6896.9	
468.5	7265.5	
468.7	8030.1	
468.9	7917.4	
469.1	6483.9	
469.3	7057.3	
469.5	9645.3	
469.7	7664.2	
469.9	6899.6	
470.1	6343.9	
470.3	8077.2	
470.5	8031.5	
470.7	7339.2	
470.9	6404	
471.1	7828	
471.3	8190.5	
471.5	6250.4	
471.69	7865.6	
471.89	7780.9	
472.09	7337.9	
472.29	6840.2	
472.49	7106.5	
472.69	7505.8	
472.89	8190.5	
473.09	6142.5	
473.29	6252.4	
473.49	7669	
473.69	7745.4	
473.89	7015.7	
474.09	6326.2	
474.29	8819.9	
474.49	8493.6	
474.69	6923.5	
474.89	6434	
475.09	7784.3	
475.29	7735.9	
475.49	6092.7	
475.69	6165.8	
475.88	9055.4	
476.08	8200.7	
476.28	5935	
476.48	6220.4	
476.68	8365.3	
476.88	8181	
477.08	6159.6	
477.28	6374.6	
477.48	7804.1	
477.68	8233.5	
477.88	5870.8	
478.08	6328.9	
478.28	8568	
478.48	7840.3	
478.67	6377.4	
478.87	5789.6	
479.07	8403.5	
479.27	7935.9	
479.47	6448.4	
479.67	6490	
479.87	8155	
480.07	8709.3	
480.27	5843.5	
480.47	7185.6	
480.67	7938.6	
480.87	8509.3	
481.06	6107	
481.26	6811.5	
481.46	7885.4	
481.66	7888.1	
481.86	6457.2	
482.06	7365.2	
482.26	7662.8	
482.46	8559.8	
482.66	6447.7	
482.86	6015.6	
483.05	7975.5	
483.25	7462.1	
483.45	8500.4	
483.65	6356.2	
483.85	7503.1	
484.05	7836.9	
484.25	6720.1	
484.45	7067.5	
484.65	8565.3	
484.84	8548.2	
485.04	6260	
485.24	6229.2	
485.44	8780.3	
485.64	7466.2	
485.84	5743.9	
486.04	6836.1	
486.24	7714	
486.44	8035.5	
486.63	5672.9	
486.83	6489.3	
487.03	7640.3	
487.23	7763.8	
487.43	5786.2	
487.63	7750.2	
487.83	7912.7	
488.02	8665	
488.22	6636.8	
488.42	7090.1	
488.62	8581.7	
488.82	7576.1	
489.02	6335.7	
489.22	6361	
489.41	8366.6	
489.61	8155	
489.81	6006	
490.01	6094.8	
490.21	8387.8	
490.41	8983.1	
490.61	6134.3	
490.8	6218.3	
491	7916.8	
491.2	7428	
491.4	6632.7	
491.6	5796.4	
491.8	7899.7	
491.99	7964.6	
492.19	5831.9	
492.39	6038.1	
492.59	8369.4	
492.79	8356.4	
492.99	6703.7	
493.18	6016.9	
493.38	8432.2	
493.58	9133.3	
493.78	6590.4	
493.98	6229.2	
494.18	8170.7	
494.37	7777.5	
494.57	6896.2	
494.77	6680.5	
494.97	8445.1	
495.17	8563.9	
495.37	6367.8	
495.56	6668.2	
495.76	8819.2	
495.96	8492.2	
496.16	7435.5	
496.36	6612.2	
496.55	8670.4	
496.75	8285.4	
496.95	6909.8	
497.15	6771.9	
497.35	8652.7	
497.54	8587.1	
497.74	6670.2	
497.94	8075.1	
498.14	9223.4	
498.34	9056.1	
498.53	6374	
498.73	7105.8	
498.93	8102.4	
499.13	8516.1	
499.33	6797.9	
499.52	7240.9	
499.72	8596.7	
499.92	8903.2	
500.12	6560.3	
500.32	6831.3	
500.51	8783.7	
500.71	8634.9	
500.91	7486	
501.11	7234.1	
501.31	8777.6	
501.5	9069.8	
501.7	7647.8	
501.9	6855.9	
502.1	8598.7	
502.29	8908	
502.49	7250.5	
502.69	7627.3	
502.89	8759.8	
503.09	8748.9	
503.28	6492.1	
503.48	6515.3	
503.68	8136.6	
503.88	8112	
504.07	7261.4	
504.27	6830	
504.47	8462.9	
504.67	8454.7	
504.86	7342.7	
505.06	6944	
505.26	8213.7	
505.46	9589.3	
505.65	6938.5	
505.85	7037.5	
506.05	8056	
506.25	8547.5	
506.44	6374	
506.64	7007.5	
506.84	7978.9	
507.04	8701.8	
507.23	6462	
507.43	6893.5	
507.63	9627.5	
507.83	8141.4	
508.02	6916	
508.22	6557.6	
508.42	9898.5	
508.62	7922.2	
508.81	7073.7	
509.01	7311.9	
509.21	7916.8	
509.4	8107.9	
509.6	6943.3	
509.8	6376	
510	8082	
510.19	9272.5	
510.39	6391	
510.59	6446.3	
510.79	7965.9	
510.98	9101.2	
511.18	6535.1	
511.38	6609.5	
511.57	8638.3	
511.77	8375.5	
511.97	7168.6	
512.17	6402.6	
512.36	8640.4	
512.56	8415.8	
512.76	6266.1	
512.95	6195.8	
513.15	8718.2	
513.35	7417.1	
513.55	7080.5	
513.74	6382.2	
513.94	8593.3	
514.14	8028.7	
514.33	7174.7	
514.53	6895.5	
514.73	8109.3	
514.92	8157.1	
515.12	6470.2	
515.32	6307.7	
515.51	8225.3	
515.71	8652	
515.91	7875.8	
516.11	6305.7	
516.3	9566.1	
516.5	7905.2	
516.7	6823.8	
516.89	7350.8	
517.09	8048.5	
517.29	7906.5	
517.48	7034.8	
517.68	6613.6	
517.88	7759.1	
518.07	8281.3	
518.27	7060	
518.47	6164.4	
518.66	8852.7	
518.86	7597.3	
519.06	6105.7	
519.25	6393.1	
519.45	7930.4	
519.65	9129.2	
519.84	6990.4	
520.04	7591.1	
520.24	9517.6	
520.43	8378.9	
520.63	6817.7	
520.83	6502.3	
521.02	7733.1	
521.22	8328.4	
521.42	6862.1	
521.61	7401.4	
521.81	7957.7	
522.01	8219.2	
522.2	6801.3	
522.4	6603.3	
522.6	8515.5	
522.79	7504.4	
522.99	6669.6	
523.18	6045.6	
523.38	8200.1	
523.58	8245.8	
523.77	7716.7	
523.97	6081.8	
524.17	9854.1	
524.36	9132.6	
524.56	7217	
524.76	6868.2	
524.95	8256.7	
525.15	7915.4	
525.34	6796.5	
525.54	6746	
525.74	8613.8	
525.93	7612.3	
526.13	7673.7	
526.33	6778.8	
526.52	8892.3	
526.72	8366	
526.91	7688.8	
527.11	7167.9	
527.31	8825.4	
527.5	9184.5	
527.7	7000.6	
527.89	6207.4	
528.09	8046.5	
528.29	8368.7	
528.48	7366.5	
528.68	7086.7	
528.87	8797.4	
529.07	8745.5	
529.27	7052.5	
529.46	6665.5	
529.66	8443.8	
529.85	8898.4	
530.05	6584.9	
530.25	7165.2	
530.44	9646.6	
530.64	8355	
530.83	6790.4	
531.03	6968.6	
531.23	8752.3	
531.42	8597.4	
531.62	7625.3	
531.81	6910.5	
532.01	8879.3	
532.21	9180.4	
532.4	6732.4	
532.6	7127.6	
532.79	9506	
532.99	8828.1	
533.18	7217.7	
533.38	7962.5	
533.58	8581	
533.77	9123.7	
533.97	7049.1	
534.16	7718.8	
534.36	9415.2	
534.55	8536.6	
534.75	7832.1	
534.95	7107.8	
535.14	9280	
535.34	8499.1	
535.53	6847.7	
535.73	8415.8	
535.92	9747	
536.12	8617.2	
536.31	6900.3	
536.51	7876.5	
536.71	8944.2	
536.9	8634.9	
537.1	7071.6	
537.29	7203.4	
537.49	9323	
537.68	8423.3	
537.88	7414.3	
538.07	6716.7	
538.27	8654.7	
538.46	9475.3	
538.66	6707.1	
538.86	7067.5	
539.05	8733.2	
539.25	9114.8	
539.44	7322.2	
539.64	6997.9	
539.83	8532.5	
540.03	9431.6	
540.22	6952.2	
540.42	7060.7	
540.61	8793.3	
540.81	8888.9	
541	7403.4	
541.2	7933.8	
541.39	8381	
541.59	8700.5	
541.78	7591.8	
541.98	6929.6	
542.18	8136.6	
542.37	8096.3	
542.57	7143.3	
542.76	7577.5	
542.96	8159.1	
543.15	8750.3	
543.35	7258.7	
543.54	6616.3	
543.74	8976.2	
543.93	8667.7	
544.13	7195.9	
544.32	8135.9	
544.52	8830.2	
544.71	8200.7	
544.91	6407.4	
545.1	7505.8	
545.3	8279.9	
545.49	8762.6	
545.69	6337.1	
545.88	6882.5	
546.08	9505.3	
546.27	9127.8	
546.47	7252.5	
546.66	6592.4	
546.86	8967.4	
547.05	9452.1	
547.24	6894.8	
547.44	6705	
547.63	7987.8	
547.83	9005.6	
548.02	7066.2	
548.22	7230.7	
548.41	7917.4	
548.61	9024	
548.8	6705	
549	6688	
549.19	8510	
549.39	8736.6	
549.58	6406.7	
549.78	6834.1	
549.97	8798.1	
550.17	8320.2	
550.36	7632.8	
550.55	8512	
550.75	8304.5	
550.94	9114.1	
551.14	6593.8	
551.33	6886.6	
551.53	7716.1	
551.72	8632.9	
551.92	6847.7	
552.11	6717.3	
552.31	8629.5	
552.5	8516.8	
552.69	8145.5	
552.89	6311.2	
553.08	8591.9	
553.28	8345.5	
553.47	6728.3	
553.67	7653.3	
553.86	9201.5	
554.06	7642.3	
554.25	6008.1	
554.44	6445.6	
554.64	9753.1	
554.83	9267.1	
555.03	6356.2	
555.22	6728.9	
555.42	8697	
555.61	8418.5	
555.8	6697.5	
556	6862.7	
556.19	7673.1	
556.39	8830.2	
556.58	6600.6	
556.78	6735.8	
556.97	8301.1	
557.16	8125.7	
557.36	7675.8	
557.55	6330.3	
557.75	7513.3	
557.94	8920.3	
558.13	6483.2	
558.33	6199.9	
558.52	8843.8	
558.72	7844.4	
558.91	6322.1	
559.1	6431.3	
559.3	7666.9	
559.49	7410.2	
559.69	5908.4	
559.88	6721.4	
560.07	8236.2	
560.27	8658.8	
560.46	6937.8	
560.66	7038.9	
560.85	8182.3	
561.04	7429.3	
561.24	6339.8	
561.43	6481.8	
561.63	7649.2	
561.82	7841.7	
562.01	7396.6	
562.21	6748.1	
562.4	8263.6	
562.59	9013.8	
562.79	6608.8	
562.98	6279.1	
563.18	8111.3	
563.37	9439.1	
563.56	6947.4	
563.76	6153.5	
563.95	7727	
564.14	7670.3	
564.34	6501.6	
564.53	6296.1	
564.73	8243.8	
564.92	8383	
565.11	6635.4	
565.31	6110.5	
565.5	8714.8	
565.69	7684	
565.89	6356.9	
566.08	6557.6	
566.27	8559.1	
566.47	8872.5	
566.66	7068.2	
566.85	5971.9	
567.05	8183	
567.24	7712	
567.44	6282.5	
567.63	7331	
567.82	8380.3	
568.02	8114.7	
568.21	6238.1	
568.4	6562.4	
568.6	8039.6	
568.79	8091.5	
568.98	6085.2	
569.18	6234.7	
569.37	8049.9	
569.56	9705.3	
569.76	6660.7	
569.95	7349.5	
570.14	8370	
570.34	8251.9	
570.53	6183.5	
570.72	6025.8	
570.91	8753.7	
571.11	7969.3	
571.3	6514.6	
571.49	7316.7	
571.69	8054	
571.88	7677.2	
572.07	6972	
572.27	6964.5	
572.46	7717.4	
572.65	8548.2	
572.85	6348.7	
573.04	6629.3	
573.23	8721.6	
573.43	8093.6	
573.62	6132.3	
573.81	6722.8	
574	8198.7	
574.2	7960.5	
574.39	6429.9	
574.58	6582.9	
574.78	8879.3	
574.97	8108.6	
575.16	6828.6	
575.36	7024.5	
575.55	8538.7	
575.74	8617.9	
575.93	6197.2	
576.13	6973.3	
576.32	8054.7	
576.51	8475.9	
576.71	6533.7	
576.9	7609.6	
577.09	8860.9	
577.28	8378.9	
577.48	6797.2	
577.67	6060.6	
577.86	8080.6	
578.05	8354.3	
578.25	6650.4	
578.44	6719.4	
578.63	8199.4	
578.83	9142.8	
579.02	6097.5	
579.21	7380.2	
579.4	8345.5	
579.6	8072.4	
579.79	6761	
579.98	8557.1	
580.17	8570.7	
580.37	8683.4	
580.56	6266.1	
580.75	6976.7	
580.94	8998.1	
581.14	8936	
581.33	7303.1	
581.52	6389.7	
581.71	8397.4	
581.91	9024.7	
582.1	6122.1	
582.29	6569.2	
582.48	8107.2	
582.68	8077.9	
582.87	7003.4	
583.06	6750.1	
583.25	8494.3	
583.45	8306.6	
583.64	7258.7	
583.83	7899.7	
584.02	8093.6	
584.21	8421.2	
584.41	7228	
584.6	6655.2	
584.79	8168.7	
584.98	8746.9	
585.18	6240.8	
585.37	6257.9	
585.56	7821.9	
585.75	8482.7	
585.94	6417	
586.14	6993.8	
586.33	8919.6	
586.52	8106.5	
586.71	6799.9	
586.91	6563.7	
587.1	7630.7	
587.29	8503.8	
587.48	6612.9	
587.67	6386.9	
587.87	8317.5	
588.06	8344.1	
588.25	7546.8	
588.44	6952.2	
588.63	8142	
588.83	8565.3	
589.02	6530.3	
589.21	6442.9	
589.4	7998.7	
589.59	7909.3	
589.78	5852.4	
589.98	6054.5	
590.17	7546.8	
590.36	8033.5	
590.55	5582.1	
590.74	6224.5	
590.94	9158.5	
591.13	7895.6	
591.32	6042.9	
591.51	5631.2	
591.7	8195.3	
591.89	7877.9	
592.09	5674.2	
592.28	6179.4	
592.47	7132.4	
592.66	8765.3	
592.85	5749.3	
593.05	5954.1	
593.24	7684.7	
593.43	8370.7	
593.62	5976	
593.81	6356.2	
594	7733.1	
594.19	7972.7	
594.39	5910.4	
594.58	5842.2	
594.77	7972.1	
594.96	8391.2	
595.15	5821	
595.34	6356.2	
595.54	7934.5	
595.73	7233.4	
595.92	5343.2	
596.11	6305	
596.3	8466.3	
596.49	7354.3	
596.68	6068.1	
596.88	6445.6	
597.07	8148.9	
597.26	7118.1	
597.45	5577.3	
597.64	6565.1	
597.83	7405.5	
598.02	7934.5	
598.22	5703.6	
598.41	6369.2	
598.6	7789.8	
598.79	7185	
598.98	5746.6	
599.17	6567.2	
599.36	7760.4	
599.55	8644.5	
599.74	7517.4	
599.94	7219.8	
600.13	8281.3	
600.32	7210.9	
600.51	5569.8	
600.7	5612.1	
600.89	8684.1	
601.08	8688.8	
601.27	5419.6	
601.47	6219	
601.66	7976.8	
601.85	8587.8	
602.04	6005.3	
602.23	6216.3	
602.42	7194.5	
602.61	7696.9	
602.8	5898.8	
602.99	5738.4	
603.18	7578.2	
603.37	7695.6	
603.57	6255.9	
603.76	6733	
603.95	8363.9	
604.14	7889.5	
604.33	5830.6	
604.52	6053.8	
604.71	7705.1	
604.9	7336.5	
605.09	6791.1	
605.28	6344.6	
605.47	8239	
605.66	7897	
605.86	6255.9	
606.05	5796.4	
606.24	8210.3	
606.43	6946.7	
606.62	6068.8	
606.81	6696.2	
607	8105.9	
607.19	7413	
607.38	5526.8	
607.57	5757.5	
607.76	7330.4	
607.95	6811.5	
608.14	6107.7	
608.33	6621.1	
608.52	7252.5	
608.72	7963.2	
608.91	5533.6	
609.1	5406.6	
609.29	7494.2	
609.48	6933.7	
609.67	6266.1	
609.86	5420.3	
610.05	7077.8	
610.24	7333.1	
610.43	5350.7	
610.62	5081.7	
610.81	8350.9	
611	8077.9	
611.19	5454.4	
611.38	6091.3	
611.57	7590.5	
611.76	8632.9	
611.95	5229.1	
612.14	5165.7	
612.33	7379.5	
612.52	6993.1	
612.71	5662.6	
612.9	5037.3	
613.09	6632.7	
613.28	8706.6	
613.47	5611.4	
613.66	6311.8	
613.85	7527	
614.04	7013.6	
614.24	5593.7	
614.43	4913.1	
614.62	7530.4	
614.81	7488.1	
615	6004	
615.19	6041.5	
615.38	6909.2	
615.57	7307.2	
615.76	5888.6	
615.95	6654.5	
616.14	7637.6	
616.33	7323.5	
616.52	6142.5	
616.71	6341.9	
616.9	7622.5	
617.09	7354.9	
617.28	5672.2	
617.47	6578.8	
617.66	6850.5	
617.85	6789.7	
618.04	6401.3	
618.22	5827.8	
618.41	7094.8	
618.6	7839.6	
618.79	5869.5	
618.98	5642.8	
619.17	8141.4	
619.36	6640.2	
619.55	5751.4	
619.74	5786.2	
619.93	7561.8	
620.12	6974.7	
620.31	6209.4	
620.5	6322.1	
620.69	7949.5	
620.88	8241.7	
621.07	6830.7	
621.26	6084.5	
621.45	7687.4	
621.64	7653.3	
621.83	6218.3	
622.02	5586.2	
622.21	7700.4	
622.4	7443.7	
622.59	6666.8	
622.78	6419	
622.97	7223.2	
623.16	8058.8	
623.35	6115.9	
623.54	5402.5	
623.72	7364.5	
623.91	7438.2	
624.1	6383.5	
624.29	5262.6	
624.48	8359.1	
624.67	7709.2	
624.86	6250.4	
625.05	5481	
625.24	8456.1	
625.43	7100.3	
625.62	7709.9	
625.81	5692	
626	7997.3	
626.19	7296.2	
626.38	6303	
626.56	5804.6	
626.75	7223.9	
626.94	7748.8	
627.13	6298.9	
627.32	5237.3	
627.51	7711.3	
627.7	8770.8	
627.89	5429.8	
628.08	6330.3	
628.27	7133.1	
628.46	7292.8	
628.65	5620.3	
628.83	5311.7	
629.02	7761.8	
629.21	7148.1	
629.4	5979.4	
629.59	6153.5	
629.78	7090.1	
629.97	7905.2	
630.16	6235.4	
630.35	5812.1	
630.54	8288.8	
630.72	8034.2	
630.91	5809.4	
631.1	6311.2	
631.29	7492.8	
631.48	7637.6	
631.67	6288.6	
631.86	5818.3	
632.05	7279.2	
632.24	7313.3	
632.42	5508.4	
632.61	6004	
632.8	7310.6	
632.99	6995.9	
633.18	6087.9	
633.37	6330.3	
633.56	7559.7	
633.75	7496.2	
633.93	6044.2	
634.12	5769.1	
634.31	8278.6	
634.5	7850.5	
634.69	5849	
634.88	6310.5	
635.07	7408.2	
635.25	7870.3	
635.44	6561	
635.63	6746.7	
635.82	7232.7	
636.01	6786.3	
636.2	6487.3	
636.39	6106.4	
636.57	8146.8	
636.76	7756.3	
636.95	5655.1	
637.14	6773.3	
637.33	7641.7	
637.52	8341.4	
637.7	5488.6	
637.89	6292	
638.08	7283.3	
638.27	8451.3	
638.46	6346	
638.65	6638.1	
638.83	8493.6	
639.02	7122.8	
639.21	6230.6	
639.4	6767.2	
639.59	7582.9	
639.78	7057.3	
639.96	5649	
640.15	5756.2	
640.34	7443.7	
640.53	7524.9	
640.72	5451	
640.91	5651	
641.09	6951.5	
641.28	7959.1	
641.47	5665.4	
641.66	6369.2	
641.85	7430.7	
642.03	7680.6	
642.22	6186.9	
642.41	5780.1	
642.6	6996.5	
642.79	6510.5	
642.97	5572.5	
643.16	6152.1	
643.35	6977.4	
643.54	6853.9	
643.73	5629.9	
643.91	6191	
644.1	6769.2	
644.29	7253.9	
644.48	5634.6	
644.67	5599.1	
644.85	6900.3	
645.04	7219.1	
645.23	5248.3	
645.42	5595.1	
645.6	6895.5	
645.79	7807.5	
645.98	5485.1	
646.17	4780.6	
646.36	6680.5	
646.54	7089.4	
646.73	6202.6	
646.92	5213.4	
647.11	6801.3	
647.29	7686	
647.48	5306.3	
647.67	5075.5	
647.86	7958.4	
648.05	7805.5	
648.23	5535	
648.42	6660	
648.61	7421.8	
648.8	7146.7	
648.98	5189.6	
649.17	5510.4	
649.36	6758.3	
649.55	6361	
649.73	5326.1	
649.92	5853.8	
650.11	6677.7	
650.3	6991.1	
650.48	5393.7	
650.67	5097.4	
650.86	7186.3	
651.05	6209.4	
651.23	5289.9	
651.42	5309	
651.61	6727.6	
651.79	6746.7	
651.98	5520.6	
652.17	5115.1	
652.36	7093.5	
652.54	6289.3	
652.73	5225.7	
652.92	5109	
653.11	7135.1	
653.29	7191.1	
653.48	4598.4	
653.67	5442.1	
653.85	6941.9	
654.04	7851.2	
654.23	5667.4	
654.42	5274.2	
654.6	6591	
654.79	7103.7	
654.98	4877.6	
655.16	5326.1	
655.35	6316.6	
655.54	6148	
655.73	4851.6	
655.91	4799.8	
656.1	7017.7	
656.29	6040.1	
656.47	4437.9	
656.66	5898.8	
656.85	6413.6	
657.03	6331	
657.22	4942.4	
657.41	4921.3	
657.59	6493.4	
657.78	6180.8	
657.97	4625	
658.16	5218.2	
658.34	6952.9	
658.53	7346.1	
658.72	6007.4	
658.9	6442.9	
659.09	6556.9	
659.28	6588.3	
659.46	5033.2	
659.65	4935.6	
659.84	6359.6	
660.02	6795.2	
660.21	4961.5	
660.4	4833.2	
660.58	7060.7	
660.77	6569.2	
660.96	5339.7	
661.14	4592.9	
661.33	7548.1	
661.52	7365.9	
661.7	4544.4	
661.89	7572.7	
662.08	6256.5	
662.26	5954.8	
662.45	4780	
662.64	4911.7	
662.82	6907.1	
663.01	6171.9	
663.2	4922	
663.38	5535	
663.57	6830.7	
663.75	6591	
663.94	5210.7	
664.13	6217.6	
664.31	6236.7	
664.5	6810.9	
664.69	5442.1	
664.87	5834.7	
665.06	6037.4	
665.25	6642.9	
665.43	6027.9	
665.62	6082.5	
665.8	6961	
665.99	6346.7	
666.18	5152.7	
666.36	5239.4	
666.55	6933.7	
666.74	6850.5	
666.92	4861.2	
667.11	6197.2	
667.29	6438.8	
667.48	6937.8	
667.67	5918.6	
667.85	5076.9	
668.04	6383.5	
668.22	6345.3	
668.41	5198.4	
668.6	5370.5	
668.78	6208.1	
668.97	6408.8	
669.15	5431.9	
669.34	4648.2	
669.53	6270.9	
669.71	6466.8	
669.9	4786.8	
670.08	5311.7	
670.27	6150.7	
670.46	6743.3	
670.64	5519.3	
670.83	5706.3	
671.01	6107.7	
671.2	6580.8	
671.38	4832.5	
671.57	4805.2	
671.76	7169.3	
671.94	7549.5	
672.13	4705.5	
672.31	5666	
672.5	6771.3	
672.69	6191	
672.87	4788.2	
673.06	5154.7	
673.24	6647	
673.43	6279.1	
673.61	5441.5	
673.8	5085.1	
673.98	6814.3	
674.17	6863.4	
674.36	5530.2	
674.54	5408	
674.73	6558.3	
674.91	6820.4	
675.1	5202.5	
675.28	4894	
675.47	6421.7	
675.65	6888	
675.84	5122	
676.03	5345.2	
676.21	6205.3	
676.4	5808.7	
676.58	5799.2	
676.77	5573.2	
676.95	7470.3	
677.14	6146.6	
677.32	4829.8	
677.51	4699.4	
677.69	6896.2	
677.88	5941.2	
678.06	4690.5	
678.25	4798.4	
678.44	6391	
678.62	6196.5	
678.81	4547.2	
678.99	5343.2	
679.18	7110.5	
679.36	6723.5	
679.55	4969.1	
679.73	5561.6	
679.92	6623.8	
680.1	6250.4	
680.29	6085.9	
680.47	5040.1	
680.66	6083.8	
680.84	6829.3	
681.03	4477.5	
681.21	5414.1	
681.4	6130.9	
681.58	6141.9	
681.77	4842.8	
681.95	4747.9	
682.14	6917.4	
682.32	7137.2	
682.51	5558.2	
682.69	4590.2	
682.88	6101.6	
683.06	6697.5	
683.25	5337	
683.43	5656.5	
683.62	6414.2	
683.8	6804	
683.99	5776.6	
684.17	5233.2	
684.36	7438.9	
684.54	6362.4	
684.73	4592.9	
684.91	4732.2	
685.1	6652.5	
685.28	6146	
685.46	5261.9	
685.65	5290.6	
685.83	6782.9	
686.02	6296.1	
686.2	4773.1	
686.39	4986.1	
686.57	6094.1	
686.76	7296.2	
686.94	4778.6	
687.13	4857.1	
687.31	6640.2	
687.5	6247	
687.68	4372.4	
687.86	5427.8	
688.05	7703.8	
688.23	5819	
688.42	5548.6	
688.6	4797.7	
688.79	6145.3	
688.97	6166.4	
689.16	5188.9	
689.34	4284.4	
689.52	6753.5	
689.71	6881.2	
689.89	5427.8	
690.08	4817.5	
690.26	6483.9	
690.45	6266.8	
690.63	5563	
690.81	4932.2	
691	6204.7	
691.18	6180.1	
691.37	5046.2	
691.55	6934.4	
691.74	6102.3	
691.92	7836.2	
692.1	5101.5	
692.29	4649.6	
692.47	6285.9	
692.66	5709.1	
692.84	4759.5	
693.02	5142.4	
693.21	5745.2	
693.39	6229.2	
693.58	5236.7	
693.76	4762.2	
693.94	7189.7	
694.13	6995.2	
694.31	4800.4	
694.5	5616.9	
694.68	5964.4	
694.86	6346.7	
695.05	5046.2	
695.23	5144.5	
695.42	6675	
695.6	8557.8	
695.78	5575.3	
695.97	4814.8	
696.15	6630	
696.34	6158.2	
696.52	4633.2	
696.7	5402.5	
696.89	6493.4	
697.07	5923.4	
697.25	5279	
697.44	6481.1	
697.62	6458.6	
697.81	6744	
697.99	4973.8	
698.17	5408.7	
698.36	5952.8	
698.54	6458.6	
698.72	5281	
698.91	4435.2	
699.09	6130.3	
699.28	5973.2	
699.46	5012.7	
699.64	4869.4	
699.83	5908.4	
700.01	6941.9	
700.19	5649.7	
700.38	4260.5	
700.56	6931.7	
700.74	6023.8	
700.93	4590.2	
701.11	5227.8	
701.29	6524.1	
701.48	7400.7	
701.66	4706.9	
701.84	4827.1	
702.03	6109.1	
702.21	6650.4	
702.39	4415.4	
702.58	4956.1	
702.76	6419.7	
702.94	6521.4	
703.13	4379.9	
703.31	6384.9	
703.49	5897.5	
703.68	6675	
703.86	4534.2	
704.04	5433.9	
704.23	6232.7	
704.41	6578.1	
704.59	4673.5	
704.78	5734.3	
704.96	7280.5	
705.14	6541.2	
705.33	4491.2	
705.51	5159.5	
705.69	6066.8	
705.87	6770.6	
706.06	5398.4	
706.24	4436.6	
706.42	6410.1	
706.61	6576.7	
706.79	5444.9	
706.97	4475.5	
707.16	5967.1	
707.34	6399.2	
707.52	5394.3	
707.7	4652.3	
707.89	6014.9	
708.07	5718.6	
708.25	5380.7	
708.44	5412.8	
708.62	5971.2	
708.8	6825.2	
708.98	5507.7	
709.17	4745.8	
709.35	6281.1	
709.53	6277	
709.72	4425.7	
709.9	4856.4	
710.08	6614.3	
710.26	6525.5	
710.45	5807.4	
710.63	4738.3	
710.81	6225.1	
710.99	6239.5	
711.18	5251	
711.36	4823	
711.54	6094.8	
711.72	6731	
711.91	4854.4	
712.09	4420.9	
712.27	6212.9	
712.45	7074.4	
712.64	5115.8	
712.82	4257.7	
713	5786.9	
713.18	5926.1	
713.37	4360.8	
713.55	5425.1	
713.73	6722.8	
713.91	5524.7	
714.1	4793.6	
714.28	4377.2	
714.46	6429.3	
714.64	5731.6	
714.83	3935.5	
715.01	4577.2	
715.19	5888.6	
715.37	5344.5	
715.55	4313.7	
715.74	4556.7	
715.92	6665.5	
716.1	4907.6	
716.28	5556.1	
716.47	4707.6	
716.65	5575.3	
716.83	5651	
717.01	4544.4	
717.19	4585.4	
717.38	7393.2	
717.56	5340.4	
717.74	4806.6	
717.92	4080.9	
718.1	6332.3	
718.29	5719.3	
718.47	3713	
718.65	4240.7	
718.83	6198.5	
719.01	6143.2	
719.2	3550.5	
719.38	4576.5	
719.56	5877	
719.74	7151.5	
719.92	4214.7	
720.11	5068	
720.29	5965.1	
720.47	5257.8	
720.65	3814.7	
720.83	4614.8	
721.02	5626.5	
721.2	5378.6	
721.38	4566.3	
721.56	4007.2	
721.74	4986.1	
721.92	5073.5	
722.11	5030.5	
722.29	4809.3	
722.47	6134.3	
722.65	5450.3	
722.83	3981.9	
723.01	4696	
723.2	5533.6	
723.38	5734.3	
723.56	3495.9	
723.74	4503.5	
723.92	5150	
724.1	6111.1	
724.29	3918.4	
724.47	4887.1	
724.65	5212.1	
724.83	5106.3	
725.01	3817.4	
725.19	4569	
725.37	5128.8	
725.56	5184.1	
725.74	3741	
725.92	3949.2	
726.1	5058.5	
726.28	5338.4	
726.46	4268.6	
726.64	4014	
726.83	5329.5	
727.01	5552.7	
727.19	3697.9	
727.37	4350.6	
727.55	5451.7	
727.73	5820.3	
727.91	3667.9	
728.09	3550.5	
728.28	5873.6	
728.46	6159.6	
728.64	4406.5	
728.82	4382	
729	6750.1	
729.18	6102.9	
729.36	3680.9	
729.54	5666	
729.72	6972	
729.91	5425.8	
730.09	5353.4	
730.27	4271.4	
730.45	5361.6	
730.63	5910.4	
730.81	4698	
730.99	3921.2	
731.17	6362.4	
731.35	5141.8	
731.53	4464.6	
731.71	4062.5	
731.9	6152.8	
732.08	6308.4	
732.26	4330.8	
732.44	3986.7	
732.62	6292.7	
732.8	5847	
732.98	4632.5	
733.16	3848.8	
733.34	5912.5	
733.52	4842.8	
733.7	4212	
733.88	4479.6	
734.07	5737.7	
734.25	5575.9	
734.43	3800.3	
734.61	5117.9	
734.79	6771.9	
734.97	5457.8	
735.15	3945.8	
735.33	4218.8	
735.51	5757.5	
735.69	5427.1	
735.87	5249.6	
736.05	4375.8	
736.23	5590.3	
736.41	5339.7	
736.59	4252.3	
736.77	4258.4	
736.95	5923.4	
737.13	5481	
737.32	3934.8	
737.5	4181.3	
737.68	6371.9	
737.86	5370.5	
738.04	3791.5	
738.22	5380.7	
738.4	5250.3	
738.58	5482.4	
738.76	4250.9	
738.94	3411.9	
739.12	5300.1	
739.3	5253.7	
739.48	4844.8	
739.66	4500.1	
739.84	5513.8	
740.02	5502.9	
740.2	3514.3	
740.38	3758.7	
740.56	5799.2	
740.74	4854.4	
740.92	4356	
741.1	4249.5	
741.28	5401.9	
741.46	5201.2	
741.64	3983.3	
741.82	4364.9	
742	5386.8	
742.18	5393.7	
742.36	4198.3	
742.54	3824.9	
742.72	5928.9	
742.9	4777.9	
743.08	4420.9	
743.26	3461.1	
743.44	6003.3	
743.62	5922	
743.8	4617.5	
743.98	3766.2	
744.16	5655.8	
744.34	5390.3	
744.52	4532.2	
744.7	4478.2	
744.88	5821.7	
745.06	5373.9	
745.24	4556	
745.42	4654.4	
745.6	5842.2	
745.78	5627.8	
745.96	3595.6	
746.14	3899.3	
746.32	6517.3	
746.5	5872.9	
746.68	4271.4	
746.86	3865.9	
747.03	6178.7	
747.21	4871.4	
747.39	4344.4	
747.57	3805.8	
747.75	5524.1	
747.93	5857.9	
748.11	3888.4	
748.29	3812.6	
748.47	6936.5	
748.65	5296	
748.83	4538.3	
749.01	4302.1	
749.19	5702.9	
749.37	4988.2	
749.55	4151.9	
749.73	4244.8	
749.91	5485.1	
750.09	5240.1	
750.26	4273.4	
750.44	3776.5	
750.62	5487.9	
750.8	5425.1	
750.98	3618.1	
751.16	3926	
751.34	5525.4	
751.52	4952	
751.7	4572.4	
751.88	3566.9	
752.06	5925.5	
752.24	5692.7	
752.42	3534.8	
752.59	3895.9	
752.77	5375.9	
752.95	6484.6	
753.13	4607.9	
753.31	3977.8	
753.49	5180.7	
753.67	5547.9	
753.85	4287.8	
754.03	3882.3	
754.21	5819.6	
754.38	6104.3	
754.56	4056.3	
754.74	3237.8	
754.92	5160.9	
755.1	5757.5	
755.28	3312.2	
755.46	3403	
755.64	6529.6	
755.82	6678.4	
755.99	3707.5	
756.17	3837.9	
756.35	4582	
756.53	5891.3	
756.71	2913.6	
756.89	3679.5	
757.07	5542.5	
757.25	4792.2	
757.42	4179.9	
757.6	4863.9	
757.78	5526.1	
757.96	4672.8	
758.14	3829.7	
758.32	3462.4	
758.5	4315.1	
758.67	5051	
758.85	3670	
759.03	3779.9	
759.21	5233.9	
759.39	4729.4	
759.57	3353.9	
759.75	4323.3	
759.92	5791.7	
760.1	5161.6	
760.28	4642.1	
760.46	4773.1	
760.64	4920.6	
760.82	4709.6	
760.99	4445.5	
761.17	3696.6	
761.35	5593.7	
761.53	4727.4	
761.71	3816.7	
761.89	4498.7	
762.06	5468.1	
762.24	5002.5	
762.42	3945.1	
762.6	3646.7	
762.78	5007.3	
762.96	5528.2	
763.13	4127.3	
763.31	3948.5	
763.49	5707	
763.67	4952	
763.85	4638	
764.02	5072.1	
764.2	5959.6	
764.38	5173.2	
764.56	3814	
764.74	4584.7	
764.91	6042.9	
765.09	4998.4	
765.27	3528.7	
765.45	3386	
765.63	6113.9	
765.8	5891.3	
765.98	3166.8	
766.16	3482.9	
766.34	4724.7	
766.52	4529.4	
766.69	4220.2	
766.87	3317.7	
767.05	5128.8	
767.23	5762.3	
767.41	3580.5	
767.58	3861.1	
767.76	5554.1	
767.94	5679	
768.12	3647.4	
768.29	4218.1	
768.47	5199.1	
768.65	5797.1	
768.83	3368.9	
769	4334.9	
769.18	4806.6	
769.36	5384.8	
769.54	4310.3	
769.72	3404.4	
769.89	5676.3	
770.07	5693.4	
770.25	3728	
770.43	4794.3	
770.6	6345.3	
770.78	6595.8	
770.96	3857.7	
771.14	4399	
771.31	5601.2	
771.49	4988.9	
771.67	3190.7	
771.85	3364.8	
772.02	4399.7	
772.2	5083.1	
772.38	3944.4	
772.55	3569.6	
772.73	5326.8	
772.91	5091.9	
773.09	3956.7	
773.26	3974.4	
773.44	5266	
773.62	4997	
773.8	3507.5	
773.97	3261	
774.15	5302.9	
774.33	5005.9	
774.5	3361.4	
774.68	3719.1	
774.86	5375.2	
775.04	4997	
775.21	3432.4	
775.39	3463.1	
775.57	5249.6	
775.74	5535	
775.92	3364.8	
776.1	3216	
776.27	5230.5	
776.45	6214.2	
776.63	3492.5	
776.81	3103.4	
776.98	4972.5	
777.16	5885.9	
777.34	3594.9	
777.51	3875.4	
777.69	4883.7	
777.87	4714.4	
778.04	3635.8	
778.22	4188.1	
778.4	4748.6	
778.57	5380	
778.75	3043.3	
778.93	3310.2	
779.1	4625.7	
779.28	4470	
779.46	3025.5	
779.64	3448.1	
779.81	5478.3	
779.99	6224.5	
780.17	4115.1	
780.34	4247.5	
780.52	5017.5	
780.69	5201.2	
780.87	3773	
781.05	3372.3	
781.22	5054.4	
781.4	5116.5	
781.58	3599.6	
781.75	2790.7	
781.93	5147.2	
782.11	4567.7	
782.28	4309.6	
782.46	3525.2	
782.64	4477.5	
782.81	5235.3	
782.99	3659	
783.17	3545.7	
783.34	5167	
783.52	4549.2	
783.69	3736.2	
783.87	4422.9	
784.05	4672.1	
784.22	4693.9	
784.4	4407.9	
784.58	3832.4	
784.75	5457.8	
784.93	4693.9	
785.1	3575.1	
785.28	4032.5	
785.46	5195.7	
785.63	4601.1	
785.81	3536.2	
785.99	3381.2	
786.16	4806.6	
786.34	5019.6	
786.51	3358	
786.69	3766.9	
786.87	4437.9	
787.04	4891.2	
787.22	3315	
787.39	4154.6	
787.57	4590.2	
787.75	5557.5	
787.92	4365.6	
788.1	4246.8	
788.27	4647.5	
788.45	4417.5	
788.63	3983.3	
788.8	2861.7	
788.98	4943.1	
789.15	4361.5	
789.33	2996.2	
789.5	3573.7	
789.68	5418.2	
789.86	5520	
790.03	3929.4	
790.21	3465.2	
790.38	5447.6	
790.56	4738.3	
790.73	3351.8	
790.91	3315.7	
791.09	4619.5	
791.26	5273.5	
791.44	3573	
791.61	3113.6	
791.79	4617.5	
791.96	4651.6	
792.14	3141.6	
792.32	2788.7	
792.49	4631.1	
792.67	4734.2	
792.84	3224.9	
793.02	3079.5	
793.19	5218.2	
793.37	5701.5	
793.54	2820.7	
793.72	3142.3	
793.89	5670.1	
794.07	4642.1	
794.25	3566.9	
794.42	2924.5	
794.6	5487.2	
794.77	5227.1	
794.95	3893.2	
795.12	3396.2	
795.3	4678.9	
795.47	5183.4	
795.65	3748.5	
795.82	3574.4	
796	4459.8	
796.17	6075.6	
796.35	3493.8	
796.52	4126	
796.7	5079	
796.87	5192.3	
797.05	3512.9	
797.22	4273.4	
797.4	5189.6	
797.57	5973.9	
797.75	3629	
797.92	3382.6	
798.1	5483.8	
798.27	4575.2	
798.45	2922.5	
798.62	3181.2	
798.8	4865.3	
798.97	5326.1	
799.15	3827.7	
799.32	3617.4	
799.5	4274.1	
799.67	4981.3	
799.85	3928	
800.02	2876	
800.2	4588.8	
800.37	4906.9	
800.55	4074.1	
800.72	3411.2	
800.9	5319.9	
801.07	5663.3	
801.25	4565.6	
801.42	3691.1	
801.6	5361.6	
801.77	5043.5	
801.95	3427.6	
802.12	3306.1	
802.29	5107	
802.47	5055.8	
802.64	3729.4	
802.82	2869.2	
802.99	4591.5	
803.17	5458.5	
803.34	3616	
803.52	3305.4	
803.69	6068.1	
803.87	4401.8	
804.04	3575.8	
804.21	3695.2	
804.39	5584.8	
804.56	4842.8	
804.74	3130.7	
804.91	3732.1	
805.09	4652.3	
805.26	4750.6	
805.44	3179.8	
805.61	3402.4	
805.78	5266.7	
805.96	5250.3	
806.13	3833.1	
806.31	4009.9	
806.48	4236.6	
806.66	4760.8	
806.83	3721.8	
807	3691.1	
807.18	4664.6	
807.35	5034.6	
807.53	3648.1	
807.7	2950.4	
807.87	5628.5	
808.05	4675.5	
808.22	3952.6	
808.4	2946.3	
808.57	4653	
808.74	4395.6	
808.92	3357.3	
809.09	4224.3	
809.27	4621.6	
809.44	5081	
809.61	2955.9	
809.79	3301.3	
809.96	5742.5	
810.14	5369.8	
810.31	2897.9	
810.48	3559.4	
810.66	4731.5	
810.83	5377.3	
811.01	3353.2	
811.18	3710.2	
811.35	5332.9	
811.53	4236.6	
811.7	4035.9	
811.87	3802.4	
812.05	4720.6	
812.22	4640.7	
812.39	3279.5	
812.57	3166.8	
812.74	4740.4	
812.92	6064.7	
813.09	3544.4	
813.26	3792.2	
813.44	5876.3	
813.61	4603.8	
813.78	2974.3	
813.96	3883.6	
814.13	4747.9	
814.3	4436.6	
814.48	4216.8	
814.65	3543.7	
814.82	5874.9	
815	4477.5	
815.17	3575.1	
815.34	4374.5	
815.52	4607.2	
815.69	4582.7	
815.87	3589.4	
816.04	3552.5	
816.21	4677.6	
816.38	4164.2	
816.56	3442.6	
816.73	3226.9	
816.9	5894.1	
817.08	5307.7	
817.25	3269.9	
817.42	4080.2	
817.6	4339	
817.77	4660.5	
817.94	3668.6	
818.12	3237.2	
818.29	4468	
818.46	6717.3	
818.64	3381.2	
818.81	3120.4	
818.98	4414.1	
819.16	6223.8	
819.33	3909.6	
819.5	3599.6	
819.67	4959.5	
819.85	5595.7	
820.02	3565.5	
820.19	3741.6	
820.37	4875.5	
820.54	4588.1	
820.71	3678.8	
820.88	4478.2	
821.06	4868.7	
821.23	4502.8	
821.4	3695.9	
821.58	3663.8	
821.75	5293.3	
821.92	4795.7	
822.09	2960	
822.27	3250.1	
822.44	4694.6	
822.61	4625.7	
822.79	3041.2	
822.96	5606.7	
823.13	5139.7	
823.3	4445.5	
823.48	3435.8	
823.65	3117	
823.82	5278.3	
823.99	4272.7	
824.17	4329.4	
824.34	3201.7	
824.51	6103.6	
824.68	4706.2	
824.86	3321.1	
825.03	3710.9	
825.2	4754.7	
825.37	5591.6	
825.55	3249.4	
825.72	3547.1	
825.89	6127.5	
826.06	5665.4	
826.24	3576.4	
826.41	3528.7	
826.58	5617.6	
826.75	4936.3	
826.92	2865.8	
827.1	3119.7	
827.27	7466.9	
827.44	6011.5	
827.61	3325.2	
827.79	4047.5	
827.96	4526	
828.13	4747.9	
828.3	3491.1	
828.47	2974.3	
828.65	4906.9	
828.82	4844.1	
828.99	4450.2	
829.16	3859.7	
829.34	5214.1	
829.51	5066	
829.68	3560.1	
829.85	3725.3	
830.02	5483.8	
830.2	5251	
830.37	2786.6	
830.54	4348.5	
830.71	5946.6	
830.88	4670.7	
831.05	2860.3	
831.23	3254.2	
831.4	5679.7	
831.57	6284.5	
831.74	3386	
831.91	2945	
832.09	4980.7	
832.26	5254.4	
832.43	3414.6	
832.6	3852.9	
832.77	4967	
832.94	5636	
833.12	2764.8	
833.29	3383.9	
833.46	4615.4	
833.63	6451.1	
833.8	3748.5	
833.97	3508.2	
834.15	5291.3	
834.32	5072.8	
834.49	3584.6	
834.66	3685	
834.83	5410.7	
835	4538.3	
835.17	3340.9	
835.35	3368.2	
835.52	5149.3	
835.69	5074.2	
835.86	3466.5	
836.03	2914.3	
836.2	5244.8	
836.37	4830.5	
836.55	3444	
836.72	3248.8	
836.89	4876.9	
837.06	5346.6	
837.23	3545	
837.4	3871.3	
837.57	6009.4	
837.75	6539.2	
837.92	3136.1	
838.09	3374.4	
838.26	4858.5	
838.43	5475.6	
838.6	3630.4	
838.77	3241.9	
838.94	6195.8	
839.11	5971.2	
839.29	3446.7	
839.46	2802.3	
839.63	5289.2	
839.8	5006.6	
839.97	3381.9	
840.14	3340.9	
840.31	5100.1	
840.48	5306.3	
840.65	2844.6	
840.82	3293.8	
841	5210	
841.17	5199.8	
841.34	3068.5	
841.51	3145.7	
841.68	5182.7	
841.85	4950.6	
842.02	3276.1	
842.19	2677.4	
842.36	5024.3	
842.53	5007.3	
842.7	3123.2	
842.87	3727.3	
843.05	6439.5	
843.22	4955.4	
843.39	2969.6	
843.56	3173	
843.73	4796.3	
843.9	5345.9	
844.07	4926.7	
844.24	4074.1	
844.41	7406.8	
844.58	4650.9	
844.75	3005.7	
844.92	3237.2	
845.09	5272.8	
845.26	5223	
845.43	3041.9	
845.6	3260.4	
845.77	5244.8	
845.94	5002.5	
846.12	3403.7	
846.29	3608.5	
846.46	5453.7	
846.63	5216.2	
846.8	3068.5	
846.97	3607.8	
847.14	5651	
847.31	5180	
847.48	3415.3	
847.65	3835.8	
847.82	5461.2	
847.99	5415.5	
848.16	4118.5	
848.33	3816.7	
848.5	4842.8	
848.67	5605.3	
848.84	3067.9	
849.01	3228.3	
849.18	4782.7	
849.35	4504.2	
849.52	3871.3	
849.69	3021.4	
849.86	5406.6	
850.03	5522.7	
850.2	3114.3	
850.37	3716.4	
850.54	5514.5	
850.71	4930.8	
850.88	3766.2	
851.05	3057.6	
851.22	5084.4	
851.39	5606.7	
851.56	2925.9	
851.73	3527.3	
851.9	4620.9	
852.07	5431.9	
852.24	3459.7	
852.41	3087	
852.58	5115.8	
852.75	4676.2	
852.92	3437.9	
853.09	2999.6	
853.26	4842.8	
853.43	5616.9	
853.6	3082.2	
853.77	2610.5	
853.94	5690.6	
854.11	5197.7	
854.28	4439.3	
854.44	3351.8	
854.61	6080.4	
854.78	5504.9	
854.95	3048.7	
855.12	3852.2	
855.29	4236.6	
855.46	5872.9	
855.63	3062.4	
855.8	4214	
855.97	4835.9	
856.14	5545.9	
856.31	4328	
856.48	3343.7	
856.65	4830.5	
856.82	4597.7	
856.99	2995.5	
857.16	3320.4	
857.33	6317.3	
857.49	4909	
857.66	3291.8	
857.83	3524.6	
858	4903.5	
858.17	5111.7	
858.34	2889.7	
858.51	3052.8	
858.68	5767.8	
858.85	5796.4	
859.02	3530	
859.19	3764.2	
859.36	4609.3	
859.52	4645.5	
859.69	3046.7	
859.86	3603.1	
860.03	4716.5	
860.2	5670.8	
860.37	2782.5	
860.54	3106.1	
860.71	5439.4	
860.88	5739.8	
861.05	3433.8	
861.21	3897.3	
861.38	5722	
861.55	4512.4	
861.72	2784.6	
861.89	3419.4	
862.06	5460.6	
862.23	5849.7	
862.4	2968.9	
862.56	3184.6	
862.73	5282.4	
862.9	5042.8	
863.07	3578.5	
863.24	2828.9	
863.41	4514.4	
863.58	4640	
863.75	3166.8	
863.91	3508.2	
864.08	5702.9	
864.25	5343.8	
864.42	3824.9	
864.59	4300.1	
864.76	6019	
864.93	4651.6	
865.09	2967.5	
865.26	3255.6	
865.43	5628.5	
865.6	5975.3	
865.77	2697.2	
865.94	3052.2	
866.1	5621.7	
866.27	5408.7	
866.44	4577.2	
866.61	2901.3	
866.78	4925.4	
866.95	5334.3	
867.11	3026.9	
867.28	2741.5	
867.45	5550.7	
867.62	4723.3	
867.79	3549.1	
867.96	3075.4	
868.12	4547.9	
868.29	5425.8	
868.46	2728.6	
868.63	4042.7	
868.8	5558.9	
868.97	5367.7	
869.13	3224.9	
869.3	3234.4	
869.47	5250.3	
869.64	5455.8	
869.81	3103.4	
869.97	3112.9	
870.14	5134.9	
870.31	5752.1	
870.48	3053.5	
870.65	3922.5	
870.81	4906.3	
870.98	4952	
871.15	3464.5	
871.32	3209.8	
871.48	5259.9	
871.65	5810.1	
871.82	3044	
871.99	3369.6	
872.16	6169.2	
872.32	5576.6	
872.49	3093.8	
872.66	3136.1	
872.83	5385.5	
872.99	4752	
873.16	3568.2	
873.33	3048.1	
873.5	5049.6	
873.67	5139	
873.83	3218	
874	4098.7	
874.17	5195	
874.34	6109.8	
874.5	3934.8	
874.67	3781.2	
874.84	5698.8	
875.01	4593.6	
875.17	4283.7	
875.34	3042.6	
875.51	5097.4	
875.68	6123.4	
875.84	3732.8	
876.01	4455	
876.18	5322.7	
876.34	5335	
876.51	3112.9	
876.68	3065.1	
876.85	4920.6	
877.01	5582.8	
877.18	4377.9	
877.35	3078.1	
877.52	5143.1	
877.68	4600.4	
877.85	3018	
878.02	3033.7	
878.18	5013.4	
878.35	4838.7	
878.52	2478	
878.69	3403	
878.85	5465.3	
879.02	5358.9	
879.19	4328.7	
879.35	3304.7	
879.52	5377.3	
879.69	5552	
879.86	2693.8	
880.02	3496.6	
880.19	5029.8	
880.36	6040.8	
880.52	3480.2	
880.69	3624.2	
880.86	5457.8	
881.02	5484.5	
881.19	3373.7	
881.36	3278.8	
881.52	5376.6	
881.69	4756.7	
881.86	3312.2	
882.02	3264.5	
882.19	5588.9	
882.36	6393.8	
882.52	3167.5	
882.69	4300.1	
882.86	5128.1	
883.02	5143.8	
883.19	3716.4	
883.36	3501.3	
883.52	5406	
883.69	6147.3	
883.86	3123.8	
884.02	2856.2	
884.19	5433.9	
884.36	5026.4	
884.52	3489.1	
884.69	3282.2	
884.86	4792.2	
885.02	5936.4	
885.19	3441.3	
885.36	3538.9	
885.52	5023	
885.69	5173.2	
885.86	4378.6	
886.02	3949.8	
886.19	5447.6	
886.35	4935.6	
886.52	3388.7	
886.69	4258.4	
886.85	4663.2	
887.02	5729.5	
887.19	5729.5	
887.35	5729.5	
887.52	5729.5	
887.68	5729.5	
887.85	5729.5	
888.02	5729.5	
888.18	5729.5	
888.35	5729.5	
888.51	5729.5	
888.68	5729.5	
888.85	5729.5	
889.01	5729.5	
889.18	5729.5	
889.35	5729.5	
889.51	5729.5	
889.68	5729.5	
889.84	5729.5	
890.01	5729.5	
890.17	5729.5	
890.34	5729.5	
890.51	5729.5	
890.67	5729.5	
890.84	5729.5	
891	5729.5	
891.17	5729.5	
891.34	5729.5	
891.5	5729.5	
891.67	5729.5	
891.83	5729.5	
892	5729.5	
892.16	5729.5	
892.33	5729.5	
892.5	5729.5	
892.66	5729.5	
892.83	5729.5	
892.99	5729.5	
893.16	5729.5	
893.32	5729.5	
893.49	5729.5	
893.65	5729.5	
893.82	5729.5	
893.99	5729.5	
894.15	5729.5	
894.32	5729.5	
894.48	5729.5	
894.65	5729.5	
894.81	5729.5	
894.98	5729.5	
895.14	5729.5	
895.31	5729.5	
895.47	5729.5	
895.64	5729.5	
895.81	5729.5	
895.97	5729.5	
896.14	5729.5	
896.3	5729.5	
896.47	5729.5	
896.63	5729.5	
896.8	5729.5	
896.96	5729.5	
897.13	5729.5	
897.29	5729.5	
897.46	5729.5	
897.62	5729.5	
897.79	5729.5	
897.95	5729.5	
898.12	5729.5	
898.28	5729.5	
898.45	5729.5	
898.61	5729.5	
898.78	5729.5	
898.94	5729.5	
899.11	5729.5	
899.27	5729.5	
899.44	5729.5	
899.6	5729.5	
899.77	5729.5	
899.93	5729.5	
900.1	5729.5	
900.26	5729.5	
900.43	5729.5	
900.59	5729.5	
900.76	5729.5	
900.92	5729.5	
901.09	5729.5	
901.25	5729.5	
901.42	5729.5	
901.58	5729.5	
901.75	5729.5	
901.91	5729.5	
902.07	5729.5	
902.24	5729.5	
902.4	5729.5	
902.57	5729.5	
902.73	5729.5	
902.9	5729.5	
903.06	5729.5	
903.23	5729.5	
903.39	5729.5	
903.56	5729.5	
903.72	5729.5	
903.88	5729.5	
904.05	5729.5	
904.21	5729.5	
904.38	5729.5	
904.54	5729.5	
904.71	5729.5	
904.87	5729.5	
905.03	5729.5	
905.2	5729.5	
905.36	5729.5	
905.53	5729.5	
905.69	5729.5	
905.86	5729.5	
906.02	5729.5	
906.18	5729.5	
906.35	5729.5	
906.51	5729.5	
906.68	5729.5	
906.84	5729.5	
907.01	5729.5	
907.17	5729.5	
907.33	5729.5	
907.5	5729.5	
907.66	5729.5	
907.83	5729.5	
907.99	5729.5	
908.15	5729.5	
908.32	5729.5	
908.48	5729.5	
908.65	5729.5	
908.81	5729.5	
908.97	5729.5	
909.14	5729.5	
909.3	5729.5	
909.47	5729.5	
909.63	5729.5	
909.79	5729.5	
909.96	5729.5	
910.12	5729.5	
910.28	5729.5	
910.45	5729.5	
910.61	5729.5	
910.78	5729.5	
910.94	5729.5	
911.1	5729.5	
911.27	5729.5	
911.43	5729.5	
911.59	5729.5	
911.76	5729.5	
911.92	5729.5	
912.08	5729.5	
912.25	5729.5	
912.41	5729.5	
912.57	5729.5	
912.74	5729.5	
912.9	5729.5	
913.07	5729.5	
913.23	5729.5	
913.39	5729.5	
913.56	5729.5	
913.72	5729.5	
913.88	5729.5	
914.05	5729.5	
914.21	5729.5	
914.37	5729.5	
914.54	5729.5	
914.7	5729.5	
914.86	5729.5	
915.03	5729.5	
915.19	5729.5	
