Wavelength	Intensities	
nm	a.u.	
179.22	1705.4	
179.44	1695.4	
179.65	1715.5	
179.86	1675.2	
180.08	1751.7	
180.29	4060.4	
180.51	3112.9	
180.72	5000.5	
180.94	5648.3	
181.15	2731.3	
181.37	2700.6	
181.58	4827.7	
181.79	5083.7	
182.01	2857.6	
182.22	3098.6	
182.44	5077.6	
182.65	4415.4	
182.87	3747.8	
183.08	3285.6	
183.29	5332.9	
183.51	4426.3	
183.72	2998.9	
183.94	4260.5	
184.15	4743.1	
184.37	4724	
184.58	2760	
184.79	3557.3	
185.01	4500.1	
185.22	5111.7	
185.44	3730	
185.65	3186.6	
185.86	4770.4	
186.08	4366.3	
186.29	2682.2	
186.51	2893.8	
186.72	4457.1	
186.94	5165.7	
187.15	3265.8	
187.36	3331.4	
187.58	6531	
187.79	4896	
188.01	3349.1	
188.22	5115.1	
188.43	5680.4	
188.65	5058.5	
188.86	2846.7	
189.08	3342.3	
189.29	4659.8	
189.5	4549.2	
189.72	3049.4	
189.93	3121.1	
190.15	5210	
190.36	5999.2	
190.57	3349.1	
190.79	3241.3	
191	5233.2	
191.22	5203.9	
191.43	3377.1	
191.64	2875.3	
191.86	5347.9	
192.07	5199.8	
192.29	2984.6	
192.5	3099.9	
192.71	5246.9	
192.93	4583.4	
193.14	3053.5	
193.35	3147	
193.57	4597.7	
193.78	5247.6	
194	2541.5	
194.21	3035.1	
194.42	4459.1	
194.64	4831.8	
194.85	3265.8	
195.07	3864.5	
195.28	4689.8	
195.49	4257	
195.71	4007.2	
195.92	2899.2	
196.13	4978.6	
196.35	4983.4	
196.56	4234.5	
196.78	3352.5	
196.99	6038.8	
197.2	5614.8	
197.42	3735.5	
197.63	3334.1	
197.84	4390.8	
198.06	4951.3	
198.27	3113.6	
198.48	4021.5	
198.7	4578.6	
198.91	4780	
199.13	3324.5	
199.34	3286.3	
199.55	5202.5	
199.77	4188.1	
199.98	3019.4	
200.19	3376.4	
200.41	4736.3	
200.62	4453	
200.83	3424.2	
201.05	3726.6	
201.26	4728.1	
201.47	4511.7	
201.69	3035.8	
201.9	2922.5	
202.11	4804.5	
202.33	5497.4	
202.54	3159.3	
202.76	3472	
202.97	4864.6	
203.18	4885.8	
203.4	3412.6	
203.61	3431.7	
203.82	4801.1	
204.04	4548.5	
204.25	3344.3	
204.46	3291.8	
204.68	4786.1	
204.89	4943.8	
205.1	3242.6	
205.32	2888.3	
205.53	5048.9	
205.74	5205.9	
205.96	2539.5	
206.17	3366.2	
206.38	5005.9	
206.6	5154.1	
206.81	3839.9	
207.02	3115	
207.24	4939.7	
207.45	5236	
207.66	3245.3	
207.88	2792.1	
208.09	4922.6	
208.3	4776.5	
208.52	2925.9	
208.73	3256.3	
208.94	4797	
209.15	5263.3	
209.37	3183.9	
209.58	3597.6	
209.79	5165	
210.01	4627.7	
210.22	2703.3	
210.43	2768.9	
210.65	4785.4	
210.86	5036.6	
211.07	3194.1	
211.29	2940.2	
211.5	5009.3	
211.71	4707.6	
211.93	2938.2	
212.14	2969.6	
212.35	4702.1	
212.56	4830.5	
212.78	3321.8	
212.99	2852.1	
213.2	5446.9	
213.42	4610	
213.63	3054.2	
213.84	3270.6	
214.06	4302.8	
214.27	4380.6	
214.48	3166.8	
214.69	3401	
214.91	5294.7	
215.12	5317.9	
215.33	3392.1	
215.55	3637.9	
215.76	5641.5	
215.97	5023.7	
216.18	3279.5	
216.4	3270.6	
216.61	4545.8	
216.82	5119.9	
217.04	2960.7	
217.25	3093.8	
217.46	5246.2	
217.67	5074.2	
217.89	2708.1	
218.1	2793.4	
218.31	4833.2	
218.53	4982	
218.74	3160.7	
218.95	3033	
219.16	4749.2	
219.38	5471.5	
219.59	3020.8	
219.8	3586.7	
220.01	5946.6	
220.23	4751.3	
220.44	3788.7	
220.65	2925.2	
220.87	4852.3	
221.08	5264.6	
221.29	2762.7	
221.5	3604.4	
221.72	6244.9	
221.93	4532.8	
222.14	3371.6	
222.35	3883.6	
222.57	4796.3	
222.78	5063.9	
222.99	3237.2	
223.2	3388.7	
223.42	5023.7	
223.63	5117.2	
223.84	2486.2	
224.05	2517	
224.27	5827.8	
224.48	5354.1	
224.69	3901.4	
224.9	3356.6	
225.12	4930.1	
225.33	4717.2	
225.54	2749.7	
225.75	3016.7	
225.97	4466.6	
226.18	4732.9	
226.39	3166.8	
226.6	3028.3	
226.82	4606.6	
227.03	4434.5	
227.24	3344.3	
227.45	2831.7	
227.67	5060.5	
227.88	5442.1	
228.09	3706.8	
228.3	3689.1	
228.52	5063.3	
228.73	4723.3	
228.94	3120.4	
229.15	2828.9	
229.36	4738.3	
229.58	4695.3	
229.79	3181.9	
230	3579.2	
230.21	5592.3	
230.43	4814.8	
230.64	3271.3	
230.85	3424.2	
231.06	5112.4	
231.28	5115.1	
231.49	2811.2	
231.7	3256.3	
231.91	5041.4	
232.12	4755.4	
232.34	2918.4	
232.55	3241.3	
232.76	5283.1	
232.97	4910.3	
233.18	2933.4	
233.4	3296.5	
233.61	4909	
233.82	4573.8	
234.03	3133.4	
234.25	3072.6	
234.46	6389.7	
234.67	4814.8	
234.88	3423.5	
235.09	3017.3	
235.31	4928.1	
235.52	4730.1	
235.73	3257	
235.94	2833	
236.15	4587.4	
236.37	5573.9	
236.58	2988	
236.79	3229	
237	5001.8	
237.21	4407.2	
237.43	3389.4	
237.64	2753.2	
237.85	7883.3	
238.06	4476.9	
238.27	3448.1	
238.48	2914.3	
238.7	5025	
238.91	4702.8	
239.12	3192.1	
239.33	3272.7	
239.54	4652.3	
239.76	4675.5	
239.97	3261.7	
240.18	3198.9	
240.39	5749.3	
240.6	4919.9	
240.82	3336.8	
241.03	2846.7	
241.24	4758.8	
241.45	5365.7	
241.66	2927.2	
241.87	3528.7	
242.09	5446.9	
242.3	5537.7	
242.51	3422.8	
242.72	3220.1	
242.93	5139	
243.14	4773.1	
243.36	3654.9	
243.57	3911.6	
243.78	5441.5	
243.99	4974.5	
244.2	3214.6	
244.41	2919	
244.63	4467.3	
244.84	4926	
245.05	3433.1	
245.26	3178.4	
245.47	5046.9	
245.68	5159.5	
245.9	4147.1	
246.11	3379.8	
246.32	4599.7	
246.53	4962.9	
246.74	4984.8	
246.95	2747	
247.16	4450.9	
247.38	4824.3	
247.59	2727.2	
247.8	3224.9	
248.01	4453.6	
248.22	4752	
248.43	2945	
248.64	3140.2	
248.86	4362.9	
249.07	4595	
249.28	2897.2	
249.49	3290.4	
249.7	5163.6	
249.91	5225.1	
250.12	2727.9	
250.34	2775.7	
250.55	4863.2	
250.76	4782.7	
250.97	3332	
251.18	3305.4	
251.39	5230.5	
251.6	4876.2	
251.81	3364.1	
252.03	3351.8	
252.24	4655.7	
252.45	5101.5	
252.66	2863.7	
252.87	3465.2	
253.08	4762.2	
253.29	6004.6	
253.5	2831.7	
253.72	3882.3	
253.93	4686.4	
254.14	5511.8	
254.35	3072.6	
254.56	3155.9	
254.77	4902.2	
254.98	4424.3	
255.19	3084.2	
255.41	3846.1	
255.62	4918.5	
255.83	5197.1	
256.04	3427.6	
256.25	3287	
256.46	5750	
256.67	4547.9	
256.88	3330.7	
257.09	3682.9	
257.31	4446.1	
257.52	4519.2	
257.73	4070	
257.94	3083.6	
258.15	4762.9	
258.36	4782.7	
258.57	3770.3	
258.78	2507.4	
258.99	5147.9	
259.2	4704.2	
259.41	3090.4	
259.63	3175	
259.84	5425.1	
260.05	5666	
260.26	3955.3	
260.47	3028.3	
260.68	5242.8	
260.89	4678.2	
261.1	3664.5	
261.31	2969.6	
261.52	5282.4	
261.73	5451.7	
261.95	3871.3	
262.16	3447.4	
262.37	5212.8	
262.58	5347.9	
262.79	3900	
263	3078.1	
263.21	4781.3	
263.42	4618.9	
263.63	3377.1	
263.84	3128.6	
264.05	5197.7	
264.26	5454.4	
264.47	3773	
264.69	3342.3	
264.9	5379.3	
265.11	5092.6	
265.32	3010.5	
265.53	3056.9	
265.74	4930.8	
265.95	4310.3	
266.16	3231.7	
266.37	3537.5	
266.58	4813.4	
266.79	4605.9	
267	3093.8	
267.21	2893.8	
267.42	4444.1	
267.63	4795.7	
267.84	3218	
268.06	2772.3	
268.27	5206.6	
268.48	5296	
268.69	3158.7	
268.9	3652.2	
269.11	5312.4	
269.32	4326.7	
269.53	3160.7	
269.74	2976.4	
269.95	4986.1	
270.16	4321.2	
270.37	3235.8	
270.58	3648.1	
270.79	4660.5	
271	5148.6	
271.21	3388	
271.42	3278.8	
271.63	4920.6	
271.84	4477.5	
272.05	2653.5	
272.26	2887.6	
272.47	4767.7	
272.68	4920.6	
272.89	3131.3	
273.11	3465.2	
273.32	4586.1	
273.53	5436.7	
273.74	3444.7	
273.95	3344.3	
274.16	5132.2	
274.37	4773.8	
274.58	3518.4	
274.79	2908.8	
275	4919.2	
275.21	5237.3	
275.42	4092.5	
275.63	3577.1	
275.84	4976.6	
276.05	6047	
276.26	3383.2	
276.47	3149.1	
276.68	4733.5	
276.89	5542.5	
277.1	3593.5	
277.31	2847.4	
277.52	4957.4	
277.73	5182	
277.94	2806.4	
278.15	3083.6	
278.36	5009.3	
278.57	4545.8	
278.78	3051.5	
278.99	3439.2	
279.2	4537.6	
279.41	4487.8	
279.62	3934.8	
279.83	2888.3	
280.04	5713.2	
280.25	4408.6	
280.46	3887	
280.67	3246	
280.88	4509.6	
281.09	5264.6	
281.3	3318.4	
281.51	4132.1	
281.72	4567.7	
281.93	5151.3	
282.14	3038.5	
282.35	3306.8	
282.56	5182.7	
282.77	5111	
282.98	3121.1	
283.19	3801.7	
283.4	6169.2	
283.61	4683	
283.82	2919.7	
284.03	3921.9	
284.24	4900.8	
284.45	5208	
284.66	3915.7	
284.87	3728.7	
285.08	5230.5	
285.29	5266.7	
285.5	2852.8	
285.71	3189.4	
285.92	5207.3	
286.12	5760.9	
286.33	3923.9	
286.54	3207.1	
286.75	5112.4	
286.96	4700.8	
287.17	2940.2	
287.38	3796.9	
287.59	4579.9	
287.8	4455.7	
288.01	3215.3	
288.22	3536.8	
288.43	5077.6	
288.64	4380.6	
288.85	3722.5	
289.06	3515.7	
289.27	5127.4	
289.48	5444.9	
289.69	3928	
289.9	3569.6	
290.11	5293.3	
290.32	4607.9	
290.53	3756	
290.74	3428.3	
290.94	5126.1	
291.15	5080.3	
291.36	3089.7	
291.57	3553.9	
291.78	4619.5	
291.99	4308.2	
292.2	2958.6	
292.41	3426.9	
292.62	5224.4	
292.83	4992.3	
293.04	4224.3	
293.25	2974.3	
293.46	4640	
293.67	5226.4	
293.88	3001.6	
294.09	2968.9	
294.29	4465.9	
294.5	4895.3	
294.71	3249.4	
294.92	3064.4	
295.13	4618.9	
295.34	5624.4	
295.55	2769.5	
295.76	2687.6	
295.97	5072.1	
296.18	5652.4	
296.39	2879.4	
296.6	3110.9	
296.81	4792.9	
297.01	5085.1	
297.22	3117.7	
297.43	3034.4	
297.64	4573.1	
297.85	4504.2	
298.06	2589.3	
298.27	2760.7	
298.48	4800.4	
298.69	4573.1	
298.9	3300.6	
299.11	3041.9	
299.31	4442	
299.52	4482.3	
299.73	3472	
299.94	3410.6	
300.15	4805.9	
300.36	4535.6	
300.57	3367.5	
300.78	3442.6	
300.99	4659.1	
301.2	4801.8	
301.4	3065.1	
301.61	3306.8	
301.82	5046.2	
302.03	5097.4	
302.24	3664.5	
302.45	2863.7	
302.66	4994.3	
302.87	5223	
303.08	3032.4	
303.29	4016.7	
303.49	4638.6	
303.7	4756.1	
303.91	2707.4	
304.12	3850.2	
304.33	4354.7	
304.54	4892.6	
304.75	3059.7	
304.96	2932.7	
305.16	5010	
305.37	5612.1	
305.58	2714.9	
305.79	2777	
306	5003.9	
306.21	4342.4	
306.42	3017.3	
306.63	4437.3	
306.83	4671.4	
307.04	5127.4	
307.25	3289	
307.46	3277.4	
307.67	4225.6	
307.88	5064.6	
308.09	3037.8	
308.29	3085.6	
308.5	4866	
308.71	5188.9	
308.92	3221.5	
309.13	2992.1	
309.34	4733.5	
309.55	4722.6	
309.75	3761.4	
309.96	3469.3	
310.17	5087.2	
310.38	4517.1	
310.59	3556.6	
310.8	3388	
311.01	5569.1	
311.21	4723.3	
311.42	2914.3	
311.63	2962	
311.84	4631.1	
312.05	4804.5	
312.26	3389.4	
312.46	3609.2	
312.67	4666	
312.88	4446.8	
313.09	2977.1	
313.3	2904.7	
313.51	5339.7	
313.71	5662.6	
313.92	2955.2	
314.13	3115.6	
314.34	4938.3	
314.55	4765.6	
314.76	3623.5	
314.96	3251.5	
315.17	4930.1	
315.38	5070.1	
315.59	3009.1	
315.8	2864.4	
316.01	5382.7	
316.21	5485.8	
316.42	2887.6	
316.63	3209.2	
316.84	4655.7	
317.05	5244.8	
317.26	3438.5	
317.46	3123.2	
317.67	4709	
317.88	5092.6	
318.09	3685.7	
318.3	2766.8	
318.5	4580.6	
318.71	5004.6	
318.92	4551.3	
319.13	3434.4	
319.34	5108.3	
319.54	5258.5	
319.75	2785.2	
319.96	2672.6	
320.17	5058.5	
320.38	5181.4	
320.58	2663.7	
320.79	3220.8	
321	5241.4	
321.21	5331.5	
321.42	3286.3	
321.62	2773.6	
321.83	4491.9	
322.04	4803.9	
322.25	3160.7	
322.46	2950.4	
322.66	4885.8	
322.87	5053.7	
323.08	3544.4	
323.29	2867.2	
323.5	5578.7	
323.7	4435.2	
323.91	3895.9	
324.12	3492.5	
324.33	4875.5	
324.53	5026.4	
324.74	3408.5	
324.95	3623.5	
325.16	4349.9	
325.37	4655.7	
325.57	2955.2	
325.78	2964.1	
325.99	4856.4	
326.2	4369.7	
326.4	4023.6	
326.61	2770.2	
326.82	4761.5	
327.03	4860.5	
327.24	4074.1	
327.44	3764.8	
327.65	5041.4	
327.86	4123.2	
328.07	3402.4	
328.27	2806.4	
328.48	5288.5	
328.69	4428.4	
328.9	4070.7	
329.1	3092.4	
329.31	4750.6	
329.52	5371.1	
329.73	2976.4	
329.93	3259	
330.14	4856.4	
330.35	4913.1	
330.56	4674.8	
330.76	3591.5	
330.97	4645.5	
331.18	4823	
331.39	3284.9	
331.59	2699.2	
331.8	5242.1	
332.01	5326.8	
332.22	3037.8	
332.42	3371	
332.63	4866.7	
332.84	4506.9	
333.05	3274.7	
333.25	2994.8	
333.46	4617.5	
333.67	4764.9	
333.88	3136.1	
334.08	3382.6	
334.29	6114.6	
334.5	5229.8	
334.7	2897.9	
334.91	4059.1	
335.12	4415.4	
335.33	5049.6	
335.53	3243.3	
335.74	4588.8	
335.95	4612	
336.16	4440.7	
336.36	3263.8	
336.57	3708.9	
336.78	4453.6	
336.98	5199.1	
337.19	3971.7	
337.4	3202.3	
337.61	5630.5	
337.81	4429.1	
338.02	3035.8	
338.23	3801.7	
338.43	5319.3	
338.64	4508.9	
338.85	3017.3	
339.05	3744.4	
339.26	5450.3	
339.47	4364.2	
339.68	2910.8	
339.88	4233.8	
340.09	4999.8	
340.3	5084.4	
340.5	3383.2	
340.71	2693.1	
340.92	4393.6	
341.13	5308.3	
341.33	2851.5	
341.54	3412.6	
341.75	4956.1	
341.95	4622.9	
342.16	3300	
342.37	3527.3	
342.57	4418.8	
342.78	4719.2	
342.99	3646.1	
343.19	2734.7	
343.4	5106.3	
343.61	4924.7	
343.81	3203	
344.02	2907.4	
344.23	5135.6	
344.43	5331.5	
344.64	3644	
344.85	3499.3	
345.06	5021.6	
345.26	5232.6	
345.47	3404.4	
345.68	3914.4	
345.88	4327.4	
346.09	5075.5	
346.3	3498.6	
346.5	2684.2	
346.71	4729.4	
346.92	4569	
347.12	2745	
347.33	3381.9	
347.54	5166.3	
347.74	5494	
347.95	3301.3	
348.16	2613.9	
348.36	4609.3	
348.57	4444.1	
348.78	3408.5	
348.98	3564.1	
349.19	4687.8	
349.39	4344.4	
349.6	2770.2	
349.81	3007.1	
350.01	4999.8	
350.22	4529.4	
350.43	3310.9	
350.63	3823.6	
350.84	4745.8	
351.05	4532.8	
351.25	2966.1	
351.46	2784.6	
351.67	5157.5	
351.87	4530.1	
352.08	3146.4	
352.29	3534.8	
352.49	5100.1	
352.7	5129.5	
352.9	2901.3	
353.11	3495.9	
353.32	5535	
353.52	4632.5	
353.73	2887.6	
353.94	3547.8	
354.14	4934.9	
354.35	4806.6	
354.55	2949.8	
354.76	3209.8	
354.97	4954	
355.17	4742.4	
355.38	2812.5	
355.59	3727.3	
355.79	4491.2	
356	4769.7	
356.2	3240.6	
356.41	2866.5	
356.62	4369	
356.82	4652.3	
357.03	3446	
357.24	3067.2	
357.44	4440.7	
357.65	4545.1	
357.85	4018.8	
358.06	3249.4	
358.27	4306.2	
358.47	4440.7	
358.68	2818	
358.88	3424.9	
359.09	4942.4	
359.3	5145.9	
359.5	3915	
359.71	3502	
359.91	5472.2	
360.12	4909	
360.33	3383.9	
360.53	3752.6	
360.74	4504.8	
360.94	4557.4	
361.15	3540.3	
361.36	2969.6	
361.56	5083.7	
361.77	4700.1	
361.97	3867.2	
362.18	3104	
362.38	5096	
362.59	4387.4	
362.8	2921.1	
363	2789.3	
363.21	4237.2	
363.41	4695.3	
363.62	3305.4	
363.83	3971	
364.03	4853.7	
364.24	5485.8	
364.44	4094.6	
364.65	4104.8	
364.85	4668.7	
365.06	4354.7	
365.27	3025.5	
365.47	3024.8	
365.68	5337.7	
365.88	4562.2	
366.09	3366.9	
366.29	3072.6	
366.5	4743.1	
366.71	5081	
366.91	4031.8	
367.12	3500	
367.32	5575.9	
367.53	4911	
367.73	3455.6	
367.94	4169	
368.14	4957.4	
368.35	5561.6	
368.56	3416.7	
368.76	2953.9	
368.97	5062.6	
369.17	6277	
369.38	3011.2	
369.58	3177.1	
369.79	4326	
369.99	5317.2	
370.2	4037.2	
370.4	3278.8	
370.61	4801.8	
370.82	5766.4	
371.02	3257	
371.23	2691	
371.43	4281.6	
371.64	5298.8	
371.84	3291.8	
372.05	4149.9	
372.25	6180.1	
372.46	4962.2	
372.66	3244	
372.87	3165.5	
373.07	5005.2	
373.28	6230.6	
373.48	3961.5	
373.69	3715.7	
373.9	4668.7	
374.1	4690.5	
374.31	3873.4	
374.51	3553.2	
374.72	5266.7	
374.92	4420.2	
375.13	4009.9	
375.33	3446.7	
375.54	4846.9	
375.74	4539	
375.95	3481.5	
376.15	4356	
376.36	4958.1	
376.56	4814.8	
376.77	3553.2	
376.97	3824.9	
377.18	5737	
377.38	4967.7	
377.59	4048.2	
377.79	3132.7	
378	4796.3	
378.2	5096.7	
378.41	3153.2	
378.61	3098.6	
378.82	5246.9	
379.02	4540.3	
379.23	3314.3	
379.43	4037.2	
379.64	5292	
379.84	4891.2	
380.05	3130	
380.25	3120.4	
380.46	5003.9	
380.66	4752.7	
380.87	4145.1	
381.07	4412	
381.28	5486.5	
381.48	5038.7	
381.69	3158	
381.89	3201	
382.1	4281.6	
382.3	5090.6	
382.51	4049.5	
382.71	4642.1	
382.91	5027.8	
383.12	5388.9	
383.32	3401.7	
383.53	3603.1	
383.73	4911	
383.94	4824.3	
384.14	3620.8	
384.35	2898.6	
384.55	4723.3	
384.76	5010.7	
384.96	3482.2	
385.17	3719.1	
385.37	5096	
385.58	4489.1	
385.78	3678.8	
385.98	2899.2	
386.19	4667.3	
386.39	4980.7	
386.6	3249.4	
386.8	3478.8	
387.01	5018.9	
387.21	5046.2	
387.42	3781.2	
387.62	4136.9	
387.83	4606.6	
388.03	4876.9	
388.23	3511.6	
388.44	4017.4	
388.64	4270	
388.85	4348.5	
389.05	3666.5	
389.26	4103.4	
389.46	5854.5	
389.67	5315.8	
389.87	3762.1	
390.07	3784	
390.28	4711	
390.48	4371	
390.69	3139.5	
390.89	3373	
391.1	4601.8	
391.3	5253.7	
391.5	4186.7	
391.71	4658.4	
391.91	5108.3	
392.12	5694.7	
392.32	4296.6	
392.53	3718.4	
392.73	4715.1	
392.93	4788.8	
393.14	3492.5	
393.34	4000.4	
393.55	5117.2	
393.75	4739	
393.95	3528	
394.16	3477.5	
394.36	4616.1	
394.57	5102.2	
394.77	3088.3	
394.98	3345	
395.18	4538.3	
395.38	4674.1	
395.59	4038.6	
395.79	3244.7	
396	4652.3	
396.2	5010.7	
396.4	3874.1	
396.61	3819.5	
396.81	5160.9	
397.02	4530.1	
397.22	4061.8	
397.42	4061.8	
397.63	5095.3	
397.83	4544.4	
398.04	3201.7	
398.24	3545.7	
398.44	4962.9	
398.65	4183.3	
398.85	3063.1	
399.05	3153.9	
399.26	4515.8	
399.46	5803.3	
399.67	3452.2	
399.87	3248.1	
400.07	4787.5	
400.28	5026.4	
400.48	3291.8	
400.69	4087.7	
400.89	5145.9	
401.09	5514.5	
401.3	3225.6	
401.5	4022.9	
401.7	5614.2	
401.91	5887.2	
402.11	3594.2	
402.32	3704.1	
402.52	5294	
402.72	5156.8	
402.93	3861.8	
403.13	3034.4	
403.33	5851.7	
403.54	4842.8	
403.74	3691.1	
403.94	4260.5	
404.15	4905.6	
404.35	5754.8	
404.56	3424.9	
404.76	4756.7	
404.96	5214.8	
405.17	5051.7	
405.37	4054.3	
405.57	3749.8	
405.78	5172.5	
405.98	4857.1	
406.18	3450.8	
406.39	4116.4	
406.59	5194.3	
406.79	4923.3	
407	3282.2	
407.2	3300.6	
407.4	5283.1	
407.61	5325.4	
407.81	3357.3	
408.01	4967.7	
408.22	4343.1	
408.42	5792.3	
408.62	4095.9	
408.83	3695.9	
409.03	4820.2	
409.23	4742.4	
409.44	3741	
409.64	3843.4	
409.84	5508.4	
410.05	5430.5	
410.25	3874.1	
410.45	3643.3	
410.66	5029.1	
410.86	6836.8	
411.06	3958	
411.27	3891.8	
411.47	6640.2	
411.67	5132.2	
411.88	4007.2	
412.08	4200.4	
412.28	5599.1	
412.49	5991	
412.69	3834.5	
412.89	3848.8	
413.09	5771.2	
413.3	5731.6	
413.5	3878.9	
413.7	3667.9	
413.91	5251	
414.11	5829.9	
414.31	3796.9	
414.52	4040	
414.72	5613.5	
414.92	5510.4	
415.12	3797.6	
415.33	4180.6	
415.53	5781.4	
415.73	5904.3	
415.94	4384.7	
416.14	3973.1	
416.34	5028.4	
416.55	4863.2	
416.75	4906.3	
416.95	4404.5	
417.15	5776	
417.36	6324.8	
417.56	5037.3	
417.76	4258.4	
417.97	6019.7	
418.17	5793.7	
418.37	4073.4	
418.57	4012	
418.78	5720.7	
418.98	5439.4	
419.18	4700.1	
419.38	4648.9	
419.59	5397.8	
419.79	5097.4	
419.99	3927.3	
420.2	4244.1	
420.4	5783.5	
420.6	5887.9	
420.8	3932.1	
421.01	3833.8	
421.21	5601.2	
421.41	5777.3	
421.61	4154	
421.82	3937.6	
422.02	5382.7	
422.22	6043.6	
422.42	4576.5	
422.63	4391.5	
422.83	5394.3	
423.03	6292.7	
423.23	4385.4	
423.44	3536.2	
423.64	5423.7	
423.84	5240.1	
424.04	3868.6	
424.25	3676.8	
424.45	6124.8	
424.65	6081.1	
424.85	3548.4	
425.06	3944.4	
425.26	6212.2	
425.46	5345.2	
425.66	4326	
425.87	4119.1	
426.07	5986.2	
426.27	5784.8	
426.47	4207.9	
426.67	3702	
426.88	6191	
427.08	5807.4	
427.28	4287.8	
427.48	3713.6	
427.69	5022.3	
427.89	5451	
428.09	4318.5	
428.29	3657	
428.5	5901.6	
428.7	5640.8	
428.9	3607.2	
429.1	3953.9	
429.3	5660.6	
429.51	5809.4	
429.71	3938.9	
429.91	4501.4	
430.11	5770.5	
430.31	5961	
430.52	4077.5	
430.72	4242.7	
430.92	6223.8	
431.12	5731.6	
431.32	3815.4	
431.53	4149.9	
431.73	5020.3	
431.93	6222.4	
432.13	3825.6	
432.33	3678.2	
432.54	5373.2	
432.74	5584.1	
432.94	3599.6	
433.14	4441.4	
433.34	5823.1	
433.55	5356.8	
433.75	4325.3	
433.95	5603.9	
434.15	5691.3	
434.35	5315.2	
434.56	3785.3	
434.76	3404.4	
434.96	5517.9	
435.16	5776	
435.36	3690.4	
435.56	4487.1	
435.77	5255.1	
435.97	5410.7	
436.17	5022.3	
436.37	4461.2	
436.57	5292.6	
436.78	5199.1	
436.98	5435.3	
437.18	4930.8	
437.38	5698.1	
437.58	5375.9	
437.78	5000.5	
437.99	4022.9	
438.19	5851.7	
438.39	6411.5	
438.59	3969.6	
438.79	3583.3	
438.99	6305.7	
439.2	5416.9	
439.4	3688.4	
439.6	3562.8	
439.8	5629.9	
440	6412.9	
440.2	4458.4	
440.4	4459.8	
440.61	5996.5	
440.81	6240.8	
441.01	3830.4	
441.21	4420.9	
441.41	6248.4	
441.61	5953.4	
441.81	4705.5	
442.02	5358.2	
442.22	6610.2	
442.42	6082.5	
442.62	3886.4	
442.82	3911.6	
443.02	6298.2	
443.22	5599.1	
443.43	4136.9	
443.63	3822.9	
443.83	5443.5	
444.03	5421	
444.23	4663.9	
444.43	4405.9	
444.63	5717.2	
444.83	6573.3	
445.04	3935.5	
445.24	4840.7	
445.44	6023.1	
445.64	6051.7	
445.84	4548.5	
446.04	4554.7	
446.24	5499.5	
446.44	6333	
446.65	3943	
446.85	4234.5	
447.05	5784.8	
447.25	6258.6	
447.45	4312.3	
447.65	3802.4	
447.85	5813.5	
448.05	5399.8	
448.25	4584.7	
448.46	4431.8	
448.66	5746.6	
448.86	5524.7	
449.06	3705.5	
449.26	4626.4	
449.46	5924.1	
449.66	5370.5	
449.86	4285	
450.06	4171.7	
450.26	5467.4	
450.47	5829.2	
450.67	4471.4	
450.87	4607.9	
451.07	6104.3	
451.27	5772.5	
451.47	3909.6	
451.67	4280.3	
451.87	5554.8	
452.07	6411.5	
452.27	4102.8	
452.47	4071.4	
452.67	5752.1	
452.88	6108.4	
453.08	3642.7	
453.28	5061.2	
453.48	6610.2	
453.68	5692	
453.88	3930.7	
454.08	4161.5	
454.28	5956.9	
454.48	5750	
454.68	4508.3	
454.88	4973.2	
455.08	6163.7	
455.28	5879	
455.48	3923.9	
455.68	4386.1	
455.89	6389	
456.09	6172.6	
456.29	4123.9	
456.49	4172.4	
456.69	6357.6	
456.89	5730.2	
457.09	4534.2	
457.29	4769.7	
457.49	6010.1	
457.69	6048.3	
457.89	4407.9	
458.09	3906.2	
458.29	5812.8	
458.49	6403.3	
458.69	4751.3	
458.89	4249.5	
459.09	6497.5	
459.29	6522.8	
459.49	4333.5	
459.69	4959.5	
459.9	6181.5	
460.1	5822.4	
460.3	4289.1	
460.5	4048.2	
460.7	6161	
460.9	5917.3	
461.1	3792.8	
461.3	4698.7	
461.5	6652.5	
461.7	6374.6	
461.9	4130.1	
462.1	4496	
462.3	5961.6	
462.5	6365.1	
462.7	4230.4	
462.9	4241.3	
463.1	7045	
463.3	6883.2	
463.5	4410.6	
463.7	5087.8	
463.9	6082.5	
464.1	6378.7	
464.3	4445.5	
464.5	4639.3	
464.7	6481.8	
464.9	6200.6	
465.1	5625.8	
465.3	4963.6	
465.5	6739.2	
465.7	6785.6	
465.9	5090.6	
466.1	4912.4	
466.3	6564.4	
466.5	6597.9	
466.7	5526.1	
466.9	4743.1	
467.1	6536.4	
467.3	7159	
467.5	5522	
467.7	4694.6	
467.9	7385.7	
468.1	7946.8	
468.3	5270.1	
468.5	5584.8	
468.7	6425.2	
468.9	6382.8	
469.1	4927.4	
469.3	5472.2	
469.5	7862.2	
469.7	6015.6	
469.9	5309	
470.1	4789.5	
470.3	6505	
470.5	6532.3	
470.7	5714.5	
470.9	4860.5	
471.1	6247.7	
471.3	6637.5	
471.5	4676.2	
471.69	6094.8	
471.89	6287.9	
472.09	5834	
472.29	5205.9	
472.49	5601.2	
472.69	6035.4	
472.89	6627.9	
473.09	4579.3	
473.29	4749.2	
473.49	6208.1	
473.69	6251.8	
473.89	5446.2	
474.09	4806.6	
474.29	7331.7	
474.49	7008.8	
474.69	5421.7	
474.89	4956.1	
475.09	6352.1	
475.29	6312.5	
475.49	4545.1	
475.69	4734.2	
475.88	7523.6	
476.08	6615.6	
476.28	4480.3	
476.48	4830.5	
476.68	6892.1	
476.88	6672.3	
477.08	4865.3	
477.28	4946.5	
477.48	6373.3	
477.68	6771.3	
477.88	4567	
478.08	4862.6	
478.28	7029.3	
478.48	6431.3	
478.67	4934.9	
478.87	4454.3	
479.07	6928.3	
479.27	6512.5	
479.47	5042.1	
479.67	5065.3	
479.87	6823.1	
480.07	7189.7	
480.27	4469.4	
480.47	5712.5	
480.67	6510.5	
480.87	7027.9	
481.06	4693.3	
481.26	5382.7	
481.46	6526.2	
481.66	6436.8	
481.86	5045.5	
482.06	5726.8	
482.26	6393.8	
482.46	6976.7	
482.66	4997.7	
482.86	4717.8	
483.05	6679.8	
483.25	6059.3	
483.45	6785.6	
483.65	4902.2	
483.85	6195.1	
484.05	6471.6	
484.25	5274.2	
484.45	5591.6	
484.65	7068.9	
484.84	7093.5	
485.04	4896	
485.24	4930.8	
485.44	7346.7	
485.64	6048.3	
485.84	4374.5	
486.04	5333.6	
486.24	6325.5	
486.44	6567.2	
486.63	4392.9	
486.83	5020.9	
487.03	6198.5	
487.23	6371.9	
487.43	4477.5	
487.63	6169.2	
487.83	6442.2	
488.02	7067.5	
488.22	5077.6	
488.42	5561.6	
488.62	7037.5	
488.82	6235.4	
489.02	4896.7	
489.22	4898.1	
489.41	6995.2	
489.61	6696.9	
489.81	4700.8	
490.01	4787.5	
490.21	6929.6	
490.41	7496.9	
490.61	4737	
490.8	4814.1	
491	6541.2	
491.2	6163	
491.4	5343.8	
491.6	4622.3	
491.8	6636.8	
491.99	6592.4	
492.19	4512.4	
492.39	4767.7	
492.59	6865.5	
492.79	7013.6	
492.99	5363.6	
493.18	4687.1	
493.38	7077.1	
493.58	7453.2	
493.78	5219.6	
493.98	4859.1	
494.18	6690	
494.37	6321.4	
494.57	5319.9	
494.77	5276.9	
494.97	6905.8	
495.17	7037.5	
495.37	4962.9	
495.56	5187.5	
495.76	7210.9	
495.96	6941.9	
496.16	5881.8	
496.36	5084.4	
496.55	7157.7	
496.75	6790.4	
496.95	5458.5	
497.15	5270.1	
497.35	7177.4	
497.54	7098.9	
497.74	5130.8	
497.94	6564.4	
498.14	7602.1	
498.34	7348.1	
498.53	4861.9	
498.73	5455.1	
498.93	6539.2	
499.13	7062.1	
499.33	5410.7	
499.52	5615.5	
499.72	7144.7	
499.92	7225.9	
500.12	5102.9	
500.32	5294	
500.51	7262.8	
500.71	7070.3	
500.91	5894.7	
501.11	5642.8	
501.31	7262.8	
501.5	7600	
501.7	6094.1	
501.9	5436.7	
502.1	7110.5	
502.29	7403.4	
502.49	5662.6	
502.69	6041.5	
502.89	7279.2	
503.09	7240.3	
503.28	5005.9	
503.48	5103.5	
503.68	6791.7	
503.88	6685.3	
504.07	5735	
504.27	5398.4	
504.47	6992.4	
504.67	7045	
504.86	5758.2	
505.06	5607.3	
505.26	6871.6	
505.46	8030.1	
505.65	5455.1	
505.85	5713.2	
506.05	6825.2	
506.25	7231.4	
506.44	5011.4	
506.64	5742.5	
506.84	6657.3	
507.04	7338.6	
507.23	5192.3	
507.43	5555.5	
507.63	8084	
507.83	6729.6	
508.02	5611.4	
508.22	5292	
508.42	8402.8	
508.62	6699.6	
508.81	5424.4	
509.01	5868.8	
509.21	6583.5	
509.4	6868.9	
509.6	5679.7	
509.8	5172.5	
510	6806.1	
510.19	7772.7	
510.39	5192.3	
510.59	5158.2	
510.79	6680.5	
510.98	7656	
511.18	5316.5	
511.38	5349.3	
511.57	7392.5	
511.77	7092.1	
511.97	5867.4	
512.17	5147.2	
512.36	7296.9	
512.56	7224.6	
512.76	5130.2	
512.95	4943.1	
513.15	7488.1	
513.35	6326.9	
513.55	5760.3	
513.74	5117.9	
513.94	7286.7	
514.14	6806.8	
514.33	5912.5	
514.53	5655.1	
514.73	6890.7	
514.92	6955.6	
515.12	5244.2	
515.32	5132.9	
515.51	6993.8	
515.71	7317.4	
515.91	6427.9	
516.11	5193.6	
516.3	8283.4	
516.5	6757.6	
516.7	5618.9	
516.89	5986.9	
517.09	6797.2	
517.29	6824.5	
517.48	5958.2	
517.68	5347.2	
517.88	6689.3	
518.07	7167.2	
518.27	5798.5	
518.47	5039.4	
518.66	7591.1	
518.86	6561	
519.06	4965.6	
519.25	5297.4	
519.45	6718.7	
519.65	7818.5	
519.84	5814.9	
520.04	6287.3	
520.24	8154.3	
520.43	7265.5	
520.63	5627.1	
520.83	5379.3	
521.02	6717.3	
521.22	7254.6	
521.42	5779.4	
521.61	6255.9	
521.81	6907.1	
522.01	7030	
522.2	5712.5	
522.4	5553.4	
522.6	7316	
522.79	6417	
522.99	5459.9	
523.18	5033.9	
523.38	7202	
523.58	7107.1	
523.77	6417	
523.97	5051	
524.17	8504.5	
524.36	7907.9	
524.56	6163	
524.76	5792.3	
524.95	7094.2	
525.15	6878.4	
525.34	5619.6	
525.54	5665.4	
525.74	7473	
525.93	6695.5	
526.13	6548.7	
526.33	5711.1	
526.52	7829.4	
526.72	7345.4	
526.91	6588.3	
527.11	5933.6	
527.31	7740	
527.5	7980.9	
527.7	5944.6	
527.89	5248.3	
528.09	6998.6	
528.29	7336.5	
528.48	6287.3	
528.68	6021.7	
528.87	7639.6	
529.07	7694.2	
529.27	6017.6	
529.46	5670.8	
529.66	7550.9	
529.85	7851.9	
530.05	5547.3	
530.25	6113.2	
530.44	8533.2	
530.64	7344	
530.83	5842.9	
531.03	5972.6	
531.23	7851.2	
531.42	7610.3	
531.62	6533.7	
531.81	6009.4	
532.01	7881.3	
532.21	8120.2	
532.4	5782.1	
532.6	5992.4	
532.79	8617.2	
532.99	7783	
533.18	6139.1	
533.38	6847.7	
533.58	7591.1	
533.77	8119.5	
533.97	6139.1	
534.16	6681.2	
534.36	8331.8	
534.55	7518.1	
534.75	6819.1	
534.95	6245.6	
535.14	8270.4	
535.34	7659.4	
535.53	5868.1	
535.73	7413	
535.92	8675.2	
536.12	7778.2	
536.31	6048.3	
536.51	6881.2	
536.71	8095.6	
536.9	7749.5	
537.1	6150.1	
537.29	6306.4	
537.49	8314.1	
537.68	7614.3	
537.88	6604.7	
538.07	5836.7	
538.27	7878.5	
538.46	8641.1	
538.66	5836	
538.86	6197.2	
539.05	7959.8	
539.25	8191.9	
539.44	6526.9	
539.64	6101.6	
539.83	7833.5	
540.03	8525.7	
540.22	6103.6	
540.42	6137.8	
540.61	8092.9	
540.81	8138.6	
541	6516	
541.2	6983.6	
541.39	7617.8	
541.59	7915.4	
541.78	6810.9	
541.98	6143.2	
542.18	7368.6	
542.37	7448.5	
542.57	6333	
542.76	6752.2	
542.96	7509.9	
543.15	8072.4	
543.35	6410.8	
543.54	5921.4	
543.74	8129.1	
543.93	7828	
544.13	6441.5	
544.32	7260	
544.52	8154.3	
544.71	7479.2	
544.91	5788.9	
545.1	6668.9	
545.3	7670.3	
545.49	7966.6	
545.69	5628.5	
545.88	6116.6	
546.08	8803.5	
546.27	8446.5	
546.47	6518.7	
546.66	5925.5	
546.86	8198.7	
547.05	8653.4	
547.24	6189	
547.44	6113.2	
547.63	7485.3	
547.83	8215.1	
548.02	6339.8	
548.22	6460.7	
548.41	7231.4	
548.61	8320.9	
548.8	6027.2	
549	5956.9	
549.19	7860.1	
549.39	8027.4	
549.58	5760.3	
549.78	6226.5	
549.97	8173.4	
550.17	7643	
550.36	6883.2	
550.55	7635.5	
550.75	7722.9	
550.94	8405.5	
551.14	6014.2	
551.33	6284.5	
551.53	7265.5	
551.72	7920.2	
551.92	6244.9	
552.11	6094.1	
552.31	8025.3	
552.5	7999.4	
552.69	7318.8	
552.89	5872.9	
553.08	7997.3	
553.28	7774.1	
553.47	6090.7	
553.67	6896.9	
553.86	8452	
554.06	7107.1	
554.25	5626.5	
554.44	5950	
554.64	8974.9	
554.83	8563.2	
555.03	5897.5	
555.22	6249.7	
555.42	8212.4	
555.61	7937.2	
555.8	6099.5	
556	6288.6	
556.19	7360.4	
556.39	8209.6	
556.58	6014.9	
556.78	6112.5	
556.97	7803.4	
557.16	7553.6	
557.36	7062.1	
557.55	5803.3	
557.75	7059.3	
557.94	8412.4	
558.13	5952.8	
558.33	5739.8	
558.52	8245.8	
558.72	7258	
558.91	5873.6	
559.1	6055.8	
559.3	7194.5	
559.49	6970.6	
559.69	5529.5	
559.88	6305	
560.07	7843.7	
560.27	8055.3	
560.46	6364.4	
560.66	6567.2	
560.85	7644.4	
561.04	7058	
561.24	5819	
561.43	5957.5	
561.63	7191.1	
561.82	7449.1	
562.01	6862.1	
562.21	6135	
562.4	7670.3	
562.59	8486.1	
562.79	6033.3	
562.98	5777.3	
563.18	7630	
563.37	8804.2	
563.56	6412.9	
563.76	5685.2	
563.95	7268.9	
564.14	7258	
564.34	6079.1	
564.53	5829.9	
564.73	7782.3	
564.92	7884.7	
565.11	6148.7	
565.31	5668.1	
565.5	8069	
565.69	7180.2	
565.89	5844.2	
566.08	6010.8	
566.27	7963.9	
566.47	8316.1	
566.66	6563.7	
566.85	5535	
567.05	7774.1	
567.24	7390.4	
567.44	5803.3	
567.63	6821.8	
567.82	7909.3	
568.02	7661.5	
568.21	5853.1	
568.4	6072.2	
568.6	7630.7	
568.79	7588.4	
568.98	5720.7	
569.18	5750	
569.37	7572	
569.56	9137.4	
569.76	6089.3	
569.95	6767.9	
570.14	7931.8	
570.34	7774.1	
570.53	5806	
570.72	5728.2	
570.91	8211.7	
571.11	7576.1	
571.3	6118.6	
571.49	6701	
571.69	7605.5	
571.88	7225.2	
572.07	6434	
572.27	6395.8	
572.46	7173.4	
572.65	8015.7	
572.85	5859.2	
573.04	6126.2	
573.23	8200.1	
573.43	7615.7	
573.62	5734.3	
573.81	6105	
574	7737.2	
574.2	7441.6	
574.39	5916.6	
574.58	6030.6	
574.78	8182.3	
574.97	7675.1	
575.16	6368.5	
575.36	6395.1	
575.55	8033.5	
575.74	8044.4	
575.93	5713.8	
576.13	6485.9	
576.32	7565.9	
576.51	7979.6	
576.71	6003.3	
576.9	7436.2	
577.09	8290.9	
577.28	7802.8	
577.48	6317.3	
577.67	5632.6	
577.86	7516.7	
578.05	7779.6	
578.25	6102.9	
578.44	6136.4	
578.63	7679.9	
578.83	8540	
579.02	5737.7	
579.21	6808.1	
579.4	7830.7	
579.6	7576.8	
579.79	6265.4	
579.98	7877.2	
580.17	8075.1	
580.37	8228.7	
580.56	5858.6	
580.75	6354.8	
580.94	8378.9	
581.14	8445.1	
581.33	6615.6	
581.52	5962.3	
581.71	7854	
581.91	8359.8	
582.1	5702.9	
582.29	6032.6	
582.48	7734.5	
582.68	7557	
582.87	6489.3	
583.06	6192.4	
583.25	7946.8	
583.45	7468.9	
583.64	6647.7	
583.83	7136.5	
584.02	7634.1	
584.21	7946.8	
584.41	6744	
584.6	6103.6	
584.79	7667.6	
584.98	8228.1	
585.18	5703.6	
585.37	5763.7	
585.56	7416.4	
585.75	7897.7	
585.94	5903.6	
586.14	6449.1	
586.33	8408.3	
586.52	7639.6	
586.71	6315.3	
586.91	6133.7	
587.1	7245	
587.29	8017.8	
587.48	6066.8	
587.67	5975.3	
587.87	7905.8	
588.06	7849.9	
588.25	6986.3	
588.44	6435.4	
588.63	7644.4	
588.83	8064.2	
589.02	6066.8	
589.21	5925.5	
589.4	7548.1	
589.59	7507.2	
589.78	5434.6	
589.98	5640.8	
590.17	7195.9	
590.36	7400	
590.55	5165	
590.74	5791.7	
590.94	8429.4	
591.13	7370.6	
591.32	5651.7	
591.51	5227.1	
591.7	7686	
591.89	7281.9	
592.09	5333.6	
592.28	5646.2	
592.47	6698.9	
592.66	8271.1	
592.85	5335	
593.05	5481	
593.24	7236.2	
593.43	7892.2	
593.62	5663.3	
593.81	5878.4	
594	7287.4	
594.19	7458	
594.39	5493.3	
594.58	5469.4	
594.77	7566.6	
594.96	7903.1	
595.15	5504.3	
595.34	5938.4	
595.54	7503.8	
595.73	6832.7	
595.92	4976.6	
596.11	5865.4	
596.3	7882.6	
596.49	6894.8	
596.68	5590.3	
596.88	5920	
597.07	7587.7	
597.26	6777.4	
597.45	5313.8	
597.64	6128.2	
597.83	6980.8	
598.02	7434.1	
598.22	5364.3	
598.41	5788.2	
598.6	7382.2	
598.79	6888.7	
598.98	5360.2	
599.17	6037.4	
599.36	7311.2	
599.55	8114.1	
599.74	6837.5	
599.94	6670.9	
600.13	7645.8	
600.32	6853.9	
600.51	5085.1	
600.7	5281.7	
600.89	8226	
601.08	8214.4	
601.27	5116.5	
601.47	5856.5	
601.66	7591.8	
601.85	8083.3	
602.04	5597.1	
602.23	5764.3	
602.42	6979.5	
602.61	7436.9	
602.8	5507	
602.99	5387.5	
603.18	7119.4	
603.37	7398.6	
603.57	5803.3	
603.76	6207.4	
603.95	7838.9	
604.14	7531.7	
604.33	5446.9	
604.52	5668.1	
604.71	7305.8	
604.9	6990.4	
605.09	6122.1	
605.28	5939.8	
605.47	7791.8	
605.66	7471.7	
605.86	5854.5	
606.05	5459.2	
606.24	7792.5	
606.43	6624.5	
606.62	5692.7	
606.81	6262.7	
607	7615.7	
607.19	7103.7	
607.38	5257.8	
607.57	5423	
607.76	6917.4	
607.95	6489.3	
608.14	5773.2	
608.33	6163	
608.52	6852.5	
608.72	7563.1	
608.91	5212.8	
609.1	5110.4	
609.29	7073.7	
609.48	6635.4	
609.67	5839.4	
609.86	5188.2	
610.05	6815	
610.24	7000.6	
610.43	5051.7	
610.62	4782	
610.81	7856	
611	7624.6	
611.19	5244.8	
611.38	5709.7	
611.57	7212.9	
611.76	8120.9	
611.95	5046.2	
612.14	4935.6	
612.33	7036.1	
612.52	6713.9	
612.71	5358.9	
612.9	4837.3	
613.09	6374.6	
613.28	8205.5	
613.47	5347.2	
613.66	5860.6	
613.85	7123.5	
614.04	6731	
614.24	5238	
614.43	4681	
614.62	7224.6	
614.81	7172	
615	5635.3	
615.19	5560.9	
615.38	6711.9	
615.57	6947.4	
615.76	5557.5	
615.95	6264.1	
616.14	7266.2	
616.33	6984.9	
616.52	5778	
616.71	5915.2	
616.9	7128.3	
617.09	7055.9	
617.28	5327.4	
617.47	6148.7	
617.66	6579.4	
617.85	6524.8	
618.04	5978	
618.22	5489.9	
618.41	6804.7	
618.6	7451.9	
618.79	5472.9	
618.98	5314.5	
619.17	7706.5	
619.36	6438.8	
619.55	5310.4	
619.74	5464	
619.93	7136.5	
620.12	6660	
620.31	5817.6	
620.5	5940.5	
620.69	7460.8	
620.88	7877.9	
621.07	6455.2	
621.26	5760.3	
621.45	7332.4	
621.64	7284.6	
621.83	5746.6	
622.02	5147.2	
622.21	7245	
622.4	7120.8	
622.59	6120.7	
622.78	6053.8	
622.97	6831.3	
623.16	7552.2	
623.35	5801.9	
623.54	5099.4	
623.72	7033.4	
623.91	7125.6	
624.1	5988.9	
624.29	4996.4	
624.48	7942.7	
624.67	7326.9	
624.86	5950.7	
625.05	5190.9	
625.24	8068.3	
625.43	6769.9	
625.62	7168.6	
625.81	5361.6	
626	7524.2	
626.19	7048.4	
626.38	5946.6	
626.56	5542.5	
626.75	6871.6	
626.94	7345.4	
627.13	5959.6	
627.32	5023.7	
627.51	7398.6	
627.7	8235.6	
627.89	5079.6	
628.08	5950.7	
628.27	6807.4	
628.46	6981.5	
628.65	5358.9	
628.83	5107.6	
629.02	7419.1	
629.21	6719.4	
629.4	5682.4	
629.59	5843.5	
629.78	6784.9	
629.97	7492.2	
630.16	5789.6	
630.35	5488.6	
630.54	7880.6	
630.72	7650.5	
630.91	5402.5	
631.1	5760.3	
631.29	7232.1	
631.48	7164.5	
631.67	5965.1	
631.86	5517.9	
632.05	7012.9	
632.24	6890	
632.42	5175.9	
632.61	5745.2	
632.8	7083.9	
632.99	6701.6	
633.18	5711.8	
633.37	6020.3	
633.56	7187.7	
633.75	7122.2	
633.93	5693.4	
634.12	5514.5	
634.31	7838.9	
634.5	7484	
634.69	5476.3	
634.88	5937.7	
635.07	7115.3	
635.25	7523.6	
635.44	6053.8	
635.63	6234.7	
635.82	6950.8	
636.01	6513.9	
636.2	6083.8	
636.39	5776	
636.57	7857.4	
636.76	7473.7	
636.95	5367.7	
637.14	6336.4	
637.33	7364.5	
637.52	7996.6	
637.7	5180	
637.89	6007.4	
638.08	6975.4	
638.27	8069.7	
638.46	6008.7	
638.65	6346	
638.83	8125	
639.02	6866.2	
639.21	5855.8	
639.4	6264.7	
639.59	7267.6	
639.78	6953.5	
639.96	5350	
640.15	5427.1	
640.34	7136.5	
640.53	7185	
640.72	5188.2	
640.91	5401.2	
641.09	6619	
641.28	7645.8	
641.47	5350	
641.66	6044.2	
641.85	7165.2	
642.03	7333.1	
642.22	5800.5	
642.41	5460.6	
642.6	6791.1	
642.79	6322.1	
642.97	5351.3	
643.16	5758.9	
643.35	6820.4	
643.54	6570.6	
643.73	5266.7	
643.91	5754.1	
644.1	6459.3	
644.29	6964.5	
644.48	5289.9	
644.67	5283.1	
644.85	6529.6	
645.04	6901	
645.23	5083.1	
645.42	5252.4	
645.6	6570.6	
645.79	7387.7	
645.98	5203.9	
646.17	4522.6	
646.36	6401.3	
646.54	6853.9	
646.73	5872.2	
646.92	4882.4	
647.11	6496.2	
647.29	7301	
647.48	4911	
647.67	4794.3	
647.86	7462.1	
648.05	7335.1	
648.23	5141.8	
648.42	6135.7	
648.61	7072.3	
648.8	6764.4	
648.98	4915.8	
649.17	5154.1	
649.36	6386.2	
649.55	6106.4	
649.73	5029.8	
649.92	5540.4	
650.11	6384.9	
650.3	6577.4	
650.48	5062.6	
650.67	4812.7	
650.86	6826.6	
651.05	5962.3	
651.23	4992.9	
651.42	4992.3	
651.61	6389	
651.79	6348	
651.98	5120.6	
652.17	4872.8	
652.36	6754.2	
652.54	6029.2	
652.73	4927.4	
652.92	4728.8	
653.11	6774	
653.29	6842.9	
653.48	4398.4	
653.67	5178.6	
653.85	6574	
654.04	7339.9	
654.23	5298.8	
654.42	5029.1	
654.6	6223.8	
654.79	6765.1	
654.98	4609.3	
655.16	5044.1	
655.35	5967.1	
655.54	5776.6	
655.73	4608.6	
655.91	4531.5	
656.1	6710.5	
656.29	5780.1	
656.47	4176.5	
656.66	5498.8	
656.85	6055.8	
657.03	6079.1	
657.22	4644.1	
657.41	4703.5	
657.59	6180.1	
657.78	5969.8	
657.97	4426.3	
658.16	4950.6	
658.34	6688.7	
658.53	6911.2	
658.72	5591	
658.9	5930.9	
659.09	6327.5	
659.28	6292	
659.46	4800.4	
659.65	4632.5	
659.84	6033.3	
660.02	6484.6	
660.21	4799.1	
660.4	4599.1	
660.58	6735.8	
660.77	6259.3	
660.96	5070.1	
661.14	4309.6	
661.33	7181.5	
661.52	6989.7	
661.7	4283.7	
661.89	6950.1	
662.08	6029.9	
662.26	5613.5	
662.45	4528.1	
662.64	4667.3	
662.82	6498.2	
663.01	5921.4	
663.2	4618.9	
663.38	5104.9	
663.57	6434.7	
663.75	6352.1	
663.94	4816.1	
664.13	5771.2	
664.31	6093.4	
664.5	6497.5	
664.69	5051.7	
664.87	5328.8	
665.06	5835.3	
665.25	6379.4	
665.43	5624.4	
665.62	5621.7	
665.8	6567.2	
665.99	6088.6	
666.18	4865.3	
666.36	4884.4	
666.55	6604.7	
666.74	6489.3	
666.92	4591.5	
667.11	5794.4	
667.29	6130.9	
667.48	6471.6	
667.67	5414.8	
667.85	4700.1	
668.04	6068.8	
668.22	6005.3	
668.41	4865.3	
668.6	5040.1	
668.78	5882.4	
668.97	6038.1	
669.15	5156.8	
669.34	4339.6	
669.53	5877.7	
669.71	6228.6	
669.9	4517.8	
670.08	4958.1	
670.27	5859.9	
670.46	6354.8	
670.64	5158.8	
670.83	5320.6	
671.01	5742.5	
671.2	6313.9	
671.38	4537.6	
671.57	4476.2	
671.76	6802	
671.94	7187	
672.13	4429.8	
672.31	5223	
672.5	6424.5	
672.69	5881.1	
672.87	4515.1	
673.06	4792.2	
673.24	6320	
673.43	5945.3	
673.61	5067.4	
673.8	4748.6	
673.98	6374.6	
674.17	6556.2	
674.36	5193.6	
674.54	5102.2	
674.73	6266.1	
674.91	6524.8	
675.1	4817.5	
675.28	4462.5	
675.47	6103.6	
675.65	6487.3	
675.84	4843.4	
676.03	5071.5	
676.21	5901.6	
676.4	5588.2	
676.58	5357.5	
676.77	5196.4	
676.95	7047.1	
677.14	6001.2	
677.32	4488.5	
677.51	4411.3	
677.69	6518	
677.88	5713.2	
678.06	4498.7	
678.25	4599.1	
678.44	6065.4	
678.62	5904.3	
678.81	4359.4	
678.99	5041.4	
679.18	6701.6	
679.36	6385.6	
679.55	4698.7	
679.73	5098.8	
679.92	6358.9	
680.1	5917.9	
680.29	5573.9	
680.47	4757.4	
680.66	5941.8	
680.84	6549.4	
681.03	4289.8	
681.21	5054.4	
681.4	5930.2	
681.58	5829.2	
681.77	4625.7	
681.95	4500.1	
682.14	6601.3	
682.32	6765.1	
682.51	5231.9	
682.69	4329.4	
682.88	5911.1	
683.06	6288.6	
683.25	5018.2	
683.43	5322.7	
683.62	6139.8	
683.8	6425.8	
683.99	5442.1	
684.17	4940.4	
684.36	7009.5	
684.54	6061.3	
684.73	4392.2	
684.91	4516.5	
685.1	6380.8	
685.28	5881.8	
685.46	4926	
685.65	4986.1	
685.83	6501.6	
686.02	5965.1	
686.2	4521.9	
686.39	4622.9	
686.57	5735.7	
686.76	6867.5	
686.94	4547.9	
687.13	4622.3	
687.31	6352.8	
687.5	6049	
687.68	4165.6	
687.86	5086.5	
688.05	7295.5	
688.23	5624.4	
688.42	5156.1	
688.6	4619.5	
688.79	5883.8	
688.97	5935	
689.16	4844.8	
689.34	4038.6	
689.52	6454.5	
689.71	6700.3	
689.89	5122	
690.08	4640.7	
690.26	6172.6	
690.45	6048.3	
690.63	5298.1	
690.81	4840	
691	6122.1	
691.18	5920.7	
691.37	4901.5	
691.55	6513.9	
691.74	5977.3	
691.92	7423.2	
692.1	4896.7	
692.29	4471.4	
692.47	6098.9	
692.66	5635.3	
692.84	4575.2	
693.02	5003.9	
693.21	5658.5	
693.39	6055.2	
693.58	5042.1	
693.76	4609.3	
693.94	6926.9	
694.13	6834.8	
694.31	4698.7	
694.5	5459.9	
694.68	5908.4	
694.86	6266.1	
695.05	4928.8	
695.23	4995.7	
695.42	6489.3	
695.6	8136.6	
695.78	5452.4	
695.97	4792.2	
696.15	6573.3	
696.34	6105.7	
696.52	4622.9	
696.7	5319.3	
696.89	6439.5	
697.07	5918.6	
697.25	5201.2	
697.44	6225.1	
697.62	6465.4	
697.81	6633.4	
697.99	4970.4	
698.17	5354.8	
698.36	6019	
698.54	6470.2	
698.72	5316.5	
698.91	4526.7	
699.09	6169.8	
699.28	6064	
699.46	5120.6	
699.64	4909	
699.83	6070.2	
700.01	6931.7	
700.19	5535	
700.38	4350.6	
700.56	6849.8	
700.74	6169.8	
700.93	4623.6	
701.11	5304.2	
701.29	6549.4	
701.48	7283.3	
701.66	4789.5	
701.84	4851.6	
702.03	6243.6	
702.21	6772.6	
702.39	4608.6	
702.58	5013.4	
702.76	6646.3	
702.94	6675	
703.13	4606.6	
703.31	6395.8	
703.49	6133.7	
703.68	7232.1	
703.86	4767.7	
704.04	5515.2	
704.23	6503	
704.41	6756.2	
704.59	4947.2	
704.78	5810.8	
704.96	7628.7	
705.14	6701.6	
705.33	4788.2	
705.51	5345.9	
705.69	6346.7	
705.87	6984.3	
706.06	5530.9	
706.24	4732.2	
706.42	6601.3	
706.61	6901.7	
706.79	5586.9	
706.97	4735.6	
707.16	6274.3	
707.34	6611.5	
707.52	5584.1	
707.7	4928.8	
707.89	6326.2	
708.07	6059.3	
708.25	5659.2	
708.44	5917.3	
708.62	6279.1	
708.8	7062.1	
708.98	5737.7	
709.17	5063.9	
709.35	6593.1	
709.53	6570.6	
709.72	4750.6	
709.9	5111.7	
710.08	6835.4	
710.26	6666.8	
710.45	6054.5	
710.63	4960.2	
710.81	6599.2	
710.99	6483.9	
711.18	5530.2	
711.36	5165	
711.54	6449.1	
711.72	7009.5	
711.91	5220.3	
712.09	4837.3	
712.27	6570.6	
712.45	7012.2	
712.64	5460.6	
712.82	4696	
713	6176.7	
713.18	6348.7	
713.37	4732.9	
713.55	5838.1	
713.73	6948.1	
713.91	5946.6	
714.1	5066	
714.28	4747.2	
714.46	6662	
714.64	6007.4	
714.83	4248.9	
715.01	4810	
715.19	6096.8	
715.37	5571.8	
715.55	4493.2	
715.74	4627	
715.92	6726.9	
716.1	5177.3	
716.28	5588.9	
716.47	4803.9	
716.65	5785.5	
716.83	5748	
717.01	4740.4	
717.19	4743.1	
717.38	7334.5	
717.56	5492	
717.74	4853.7	
717.92	4242	
718.1	6526.9	
718.29	5757.5	
718.47	3945.8	
718.65	4513	
718.83	6416.3	
719.01	6352.1	
719.2	3961.5	
719.38	4848.9	
719.56	6154.1	
719.74	7341.3	
719.92	4534.2	
720.11	5289.9	
720.29	6354.8	
720.47	5675.6	
720.65	4141	
720.83	4855.1	
721.02	5875.6	
721.2	5690.6	
721.38	4861.2	
721.56	4216.8	
721.74	5261.2	
721.92	5391.6	
722.11	5053	
722.29	4917.2	
722.47	6265.4	
722.65	5719.3	
722.83	4242.7	
723.01	4865.3	
723.2	5758.9	
723.38	6040.1	
723.56	3879.5	
723.74	4709	
723.92	5380	
724.1	6249.7	
724.29	4164.2	
724.47	4990.9	
724.65	5470.1	
724.83	5332.2	
725.01	4185.4	
725.19	4727.4	
725.37	5393.7	
725.56	5375.9	
725.74	4031.8	
725.92	4228.4	
726.1	5477	
726.28	5663.3	
726.46	4523.3	
726.64	4267.3	
726.83	5682.4	
727.01	5769.1	
727.19	3991.5	
727.37	4648.2	
727.55	5714.5	
727.73	6089.3	
727.91	3972.4	
728.09	3880.9	
728.28	6137.8	
728.46	6371.2	
728.64	4590.2	
728.82	4653	
729	6864.8	
729.18	6280.4	
729.36	3998.3	
729.54	5776.6	
729.72	7097.6	
729.91	5744.6	
730.09	5590.3	
730.27	4392.9	
730.45	5789.6	
730.63	6177.4	
730.81	4993.6	
730.99	4267.3	
731.17	6591.7	
731.35	5597.1	
731.53	4635.2	
731.71	4386.7	
731.9	6365.8	
732.08	6495.5	
732.26	4629.1	
732.44	4343.7	
732.62	6531	
732.8	6132.3	
732.98	4911.7	
733.16	4184	
733.34	6167.1	
733.52	5239.4	
733.7	4544.4	
733.88	4715.1	
734.07	6025.8	
734.25	5787.6	
734.43	4175.8	
734.61	5268.1	
734.79	6946	
734.97	5763.7	
735.15	4230.4	
735.33	4468	
735.51	6027.9	
735.69	5745.2	
735.87	5571.8	
736.05	4549.9	
736.23	5860.6	
736.41	5583.4	
736.59	4456.4	
736.77	4562.9	
736.95	6225.1	
737.13	5606.7	
737.32	4245.4	
737.5	4315.8	
737.68	6598.6	
737.86	5608	
738.04	4123.2	
738.22	5432.6	
738.4	5513.1	
738.58	5836	
738.76	4538.3	
738.94	3756	
739.12	5593	
739.3	5488.6	
739.48	4934.2	
739.66	4699.4	
739.84	5799.8	
740.02	5724.8	
740.2	3860.4	
740.38	4092.5	
740.56	5991.7	
740.74	5158.8	
740.92	4530.1	
741.1	4429.1	
741.28	5617.6	
741.46	5432.6	
741.64	4212.7	
741.82	4610.7	
742	5586.2	
742.18	5547.9	
742.36	4332.1	
742.54	4137.6	
742.72	6116.6	
742.9	5098.8	
743.08	4586.1	
743.26	3679.5	
743.44	6121.4	
743.62	6012.8	
743.8	4741	
743.98	4024.3	
744.16	5831.9	
744.34	5559.6	
744.52	4658.4	
744.7	4668.7	
744.88	5922	
745.06	5560.9	
745.24	4666	
745.42	4782.7	
745.6	6023.8	
745.78	5877	
745.96	3811.3	
746.14	3982.6	
746.32	6534.4	
746.5	5890.6	
746.68	4388.8	
746.86	3993.5	
747.03	6284.5	
747.21	5060.5	
747.39	4407.2	
747.57	4021.5	
747.75	5619.6	
747.93	5910.4	
748.11	4001.7	
748.29	3953.9	
748.47	6841.6	
748.65	5422.3	
748.83	4483.7	
749.01	4345.1	
749.19	5854.5	
749.37	5161.6	
749.55	4292.5	
749.73	4291.9	
749.91	5562.3	
750.09	5384.1	
750.26	4286.4	
750.44	3839.9	
750.62	5569.8	
750.8	5530.2	
750.98	3712.3	
751.16	4034.5	
751.34	5616.2	
751.52	5134.9	
751.7	4614.8	
751.88	3698.6	
752.06	6013.5	
752.24	5794.4	
752.42	3704.8	
752.59	4005.8	
752.77	5543.2	
752.95	6376.7	
753.13	4526.7	
753.31	4076.8	
753.49	5226.4	
753.67	5533.6	
753.85	4315.8	
754.03	3949.8	
754.21	5827.2	
754.38	6031.3	
754.56	4084.3	
754.74	3390.1	
754.92	5235.3	
755.1	5706.3	
755.28	3404.4	
755.46	3402.4	
755.64	6319.3	
755.82	6395.1	
755.99	3625.6	
756.17	3650.8	
756.35	4524.6	
756.53	5687.9	
756.71	2824.8	
756.89	3558.7	
757.07	5289.2	
757.25	4590.9	
757.42	3915.7	
757.6	4569	
757.78	5416.2	
757.96	4624.3	
758.14	3685.7	
758.32	3327.3	
758.5	4359.4	
758.67	4996.4	
758.85	3587.4	
759.03	3627.6	
759.21	5104.2	
759.39	4663.9	
759.57	3280.2	
759.75	4073.4	
759.92	5578.7	
760.1	5109.7	
760.28	4380.6	
760.46	4640.7	
760.64	4876.2	
760.82	4738.3	
760.99	4238.6	
761.17	3609.9	
761.35	5481.7	
761.53	4663.2	
761.71	3784	
761.89	4263.9	
762.06	5341.8	
762.24	5003.2	
762.42	3743	
762.6	3616	
762.78	4987.5	
762.96	5556.8	
763.13	4106.9	
763.31	3804.4	
763.49	5535.7	
763.67	4938.3	
763.85	4501.4	
764.02	4829.8	
764.2	5853.8	
764.38	5096	
764.56	3715	
764.74	4405.9	
764.91	5817.6	
765.09	4995	
765.27	3564.8	
765.45	3365.5	
765.63	5964.4	
765.8	5730.9	
765.98	3192.1	
766.16	3388	
766.34	4689.8	
766.52	4602.5	
766.69	4097.3	
766.87	3326.6	
767.05	5033.2	
767.23	5600.5	
767.41	3530.7	
767.58	3708.2	
767.76	5475.6	
767.94	5532.9	
768.12	3608.5	
768.29	4126.7	
768.47	5018.2	
768.65	5612.1	
768.83	3297.9	
769	4100	
769.18	4724.7	
769.36	5238	
769.54	4126.7	
769.72	3354.6	
769.89	5535.7	
770.07	5518.6	
770.25	3630.4	
770.43	4578.6	
770.6	6075	
770.78	6352.1	
770.96	3721.8	
771.14	4199	
771.31	5429.8	
771.49	4936.3	
771.67	3155.2	
771.85	3302	
772.02	4386.7	
772.2	4965	
772.38	3804.4	
772.55	3437.9	
772.73	5182	
772.91	5014.1	
773.09	3747.1	
773.26	3800.3	
773.44	5096.7	
773.62	4842.1	
773.8	3342.3	
773.97	3182.5	
774.15	5120.6	
774.33	4939.7	
774.5	3347.1	
774.68	3603.1	
774.86	5343.8	
775.04	4861.2	
775.21	3303.4	
775.39	3357.3	
775.57	5121.3	
775.74	5370.5	
775.92	3220.8	
776.1	3162.1	
776.27	5003.9	
776.45	6001.9	
776.63	3365.5	
776.81	3067.9	
776.98	4831.8	
777.16	5603.9	
777.34	3466.5	
777.51	3695.9	
777.69	4870.8	
777.87	4611.3	
778.04	3557.3	
778.22	3953.3	
778.4	4664.6	
778.57	5155.4	
778.75	2949.8	
778.93	3149.1	
779.1	4590.9	
779.28	4420.2	
779.46	3038.5	
779.64	3305.4	
779.81	5225.7	
779.99	5943.9	
780.17	3899.3	
780.34	4025.6	
780.52	4890.5	
780.69	4958.8	
780.87	3613.3	
781.05	3272	
781.22	4999.8	
781.4	4962.9	
781.58	3366.9	
781.75	2714.9	
781.93	4964.3	
782.11	4399.7	
782.28	4074.1	
782.46	3287.7	
782.64	4358.8	
782.81	5098.8	
782.99	3448.8	
783.17	3377.1	
783.34	4958.1	
783.52	4426.3	
783.69	3519.8	
783.87	4177.9	
784.05	4515.8	
784.22	4473.4	
784.4	4166.3	
784.58	3654.3	
784.75	5243.5	
784.93	4545.8	
785.1	3394.8	
785.28	3850.9	
785.46	5024.3	
785.63	4437.9	
785.81	3377.8	
785.99	3179.1	
786.16	4633.2	
786.34	4920.6	
786.51	3280.2	
786.69	3603.7	
786.87	4264.6	
787.04	4642.7	
787.22	3152.5	
787.39	3855	
787.57	4532.8	
787.75	5292.6	
787.92	4051.6	
788.1	3900.7	
788.27	4485.1	
788.45	4306.2	
788.63	3721.8	
788.8	2728.6	
788.98	4952	
789.15	4173.1	
789.33	2888.3	
789.5	3334.8	
789.68	5190.9	
789.86	5267.4	
790.03	3657	
790.21	3283.6	
790.38	5170.4	
790.56	4558.1	
790.73	3129.3	
790.91	3118.4	
791.09	4533.5	
791.26	5059.2	
791.44	3349.8	
791.61	2915.6	
791.79	4477.5	
791.96	4517.8	
792.14	3045.3	
792.32	2741.5	
792.49	4505.5	
792.67	4599.7	
792.84	3121.8	
793.02	2938.2	
793.19	4823	
793.37	5369.8	
793.54	2751.1	
793.72	3024.2	
793.89	5431.9	
794.07	4491.9	
794.25	3347.7	
794.42	2783.2	
794.6	5330.9	
794.77	4999.8	
794.95	3569.6	
795.12	3174.4	
795.3	4516.5	
795.47	4943.1	
795.65	3514.3	
795.82	3362.8	
796	4364.9	
796.17	5741.8	
796.35	3251.5	
796.52	3805.1	
796.7	4920.6	
796.87	5039.4	
797.05	3235.8	
797.22	3895.9	
797.4	4969.7	
797.57	5683.8	
797.75	3419.4	
797.92	3253.5	
798.1	5210	
798.27	4436.6	
798.45	2878.8	
798.62	3026.9	
798.8	4743.1	
798.97	5096.7	
799.15	3560.7	
799.32	3369.6	
799.5	4140.3	
799.67	4718.5	
799.85	3639.2	
800.02	2774.3	
800.2	4451.6	
800.37	4634.6	
800.55	3806.5	
800.72	3242.6	
800.9	5081.7	
801.07	5446.2	
801.25	4214.7	
801.42	3487.7	
801.6	5151.3	
801.77	4752.7	
801.95	3302.7	
802.12	3121.8	
802.29	4902.8	
802.47	4797	
802.64	3495.9	
802.82	2775.7	
802.99	4528.7	
803.17	5111	
803.34	3398.3	
803.52	3092.4	
803.69	5715.9	
803.87	4261.8	
804.04	3381.9	
804.21	3454.2	
804.39	5367.7	
804.56	4628.4	
804.74	2964.1	
804.91	3482.2	
805.09	4513	
805.26	4543.8	
805.44	2986.6	
805.61	3235.8	
805.78	4955.4	
805.96	4990.9	
806.13	3471.3	
806.31	3698.6	
806.48	4117.1	
806.66	4508.9	
806.83	3512.9	
807	3397.6	
807.18	4446.1	
807.35	4689.8	
807.53	3381.2	
807.7	2804.4	
807.87	5353.4	
808.05	4485.1	
808.22	3735.5	
808.4	2796.8	
808.57	4406.5	
808.74	4212.7	
808.92	3138.2	
809.09	3894.6	
809.27	4459.1	
809.44	4820.9	
809.61	2830.3	
809.79	3092.4	
809.96	5444.2	
810.14	5004.6	
810.31	2760.7	
810.48	3334.1	
810.66	4582.7	
810.83	5084.4	
811.01	3190.7	
811.18	3456.3	
811.35	5089.2	
811.53	4041.3	
811.7	3765.5	
811.87	3467.9	
812.05	4530.8	
812.22	4390.2	
812.39	3054.9	
812.57	2978.4	
812.74	4559.5	
812.92	5782.1	
813.09	3328.6	
813.26	3543	
813.44	5548.6	
813.61	4389.5	
813.78	2812.5	
813.96	3684.3	
814.13	4560.1	
814.3	4300.7	
814.48	3902.1	
814.65	3304.7	
814.82	5406	
815	4273.4	
815.17	3398.3	
815.34	4056.3	
815.52	4386.7	
815.69	4402.5	
815.87	3308.2	
816.04	3284.9	
816.21	4476.9	
816.38	4094.6	
816.56	3310.2	
816.73	3056.3	
816.9	5545.2	
817.08	5099.4	
817.25	3091.8	
817.42	3771.7	
817.6	4160.8	
817.77	4441.4	
817.94	3427.6	
818.12	3007.1	
818.29	4283.7	
818.46	6286.6	
818.64	3224.9	
818.81	2997.5	
818.98	4263.2	
819.16	5853.8	
819.33	3612.6	
819.5	3429	
819.67	4794.3	
819.85	5232.6	
820.02	3306.8	
820.19	3461.1	
820.37	4644.8	
820.54	4435.2	
820.71	3386.7	
820.88	4135.5	
821.06	4668	
821.23	4293.2	
821.4	3403.7	
821.58	3427.6	
821.75	5066.7	
821.92	4611.3	
822.09	2780.5	
822.27	2994.1	
822.44	4499.4	
822.61	4452.3	
822.79	2848.7	
822.96	5190.9	
823.13	4771.1	
823.3	4263.9	
823.48	3211.9	
823.65	2927.9	
823.82	5087.2	
823.99	4126.7	
824.17	4064.5	
824.34	2934.7	
824.51	5777.3	
824.68	4524	
824.86	3090.4	
825.03	3415.3	
825.2	4441.4	
825.37	5281	
825.55	3125.9	
825.72	3386.7	
825.89	5698.8	
826.06	5345.9	
826.24	3340.2	
826.41	3308.2	
826.58	5371.1	
826.75	4709	
826.92	2697.9	
827.1	2950.4	
827.27	7038.9	
827.44	5642.8	
827.61	3126.6	
827.79	3707.5	
827.96	4360.8	
828.13	4534.9	
828.3	3289	
828.47	2792.1	
828.65	4720.6	
828.82	4646.8	
828.99	4061.1	
829.16	3578.5	
829.34	5005.2	
829.51	4857.1	
829.68	3297.2	
829.85	3405.8	
830.02	5339.1	
830.2	4988.9	
830.37	2677.4	
830.54	3947.8	
830.71	5642.2	
830.88	4506.2	
831.05	2657.6	
831.23	3054.2	
831.4	5365.7	
831.57	5931.6	
831.74	3195.5	
831.91	2762	
832.09	4767	
832.26	5038.7	
832.43	3228.3	
832.6	3611.3	
832.77	4723.3	
832.94	5289.9	
833.12	2595.5	
833.29	3172.3	
833.46	4832.5	
833.63	6075	
833.8	3488.4	
833.97	3231	
834.15	5077.6	
834.32	4860.5	
834.49	3351.8	
834.66	3414.6	
834.83	5145.9	
835	4328.7	
835.17	3114.3	
835.35	3146.4	
835.52	4996.4	
835.69	4858.5	
835.86	3311.6	
836.03	2729.3	
836.2	4992.3	
836.37	4671.4	
836.55	3200.3	
836.72	3043.3	
836.89	4688.5	
837.06	5073.5	
837.23	3255.6	
837.4	3537.5	
837.57	5651.7	
837.75	6077.7	
837.92	2942.9	
838.09	3173.7	
838.26	4678.9	
838.43	5231.9	
838.6	3348.4	
838.77	2992.8	
838.94	5786.2	
839.11	5618.9	
839.29	3230.3	
839.46	2627.5	
839.63	5067.4	
839.8	4768.4	
839.97	3159.3	
840.14	3052.2	
840.31	4820.9	
840.48	5057.8	
840.65	2700.6	
840.82	3040.6	
841	4995	
841.17	4870.8	
841.34	2869.2	
841.51	2955.9	
841.68	5016.8	
841.85	4730.8	
842.02	3001.6	
842.19	2523.1	
842.36	4797	
842.53	4799.1	
842.7	2930	
842.87	3460.4	
843.05	6126.2	
843.22	4727.4	
843.39	2766.1	
843.56	2973	
843.73	4629.1	
843.9	5107.6	
844.07	4497.3	
844.24	3799.7	
844.41	6901.7	
844.58	4439.3	
844.75	2803	
844.92	3080.1	
845.09	5020.9	
845.26	4980	
845.43	2848	
845.6	3016.7	
845.77	5007.3	
845.94	4760.2	
846.12	3127.9	
846.29	3300	
846.46	5216.2	
846.63	4932.9	
846.8	2882.2	
846.97	3327.9	
847.14	5286.5	
847.31	4970.4	
847.48	3250.1	
847.65	3532.7	
847.82	5228.5	
847.99	5162.2	
848.16	3797.6	
848.33	3502	
848.5	4590.9	
848.67	5352	
848.84	2846	
849.01	3015.3	
849.18	4556	
849.35	4323.9	
849.52	3534.8	
849.69	2781.8	
849.86	5191.6	
850.03	5255.1	
850.2	2905.4	
850.37	3517.7	
850.54	5236	
850.71	4719.9	
850.88	3444.7	
851.05	2777	
851.22	4929.5	
851.39	5409.4	
851.56	2698.5	
851.73	3231.7	
851.9	4405.9	
852.07	5150	
852.24	3129.3	
852.41	2871.9	
852.58	4943.8	
852.75	4481	
852.92	3189.4	
853.09	2828.9	
853.26	4655.7	
853.43	5307.7	
853.6	2890.4	
853.77	2470.5	
853.94	5416.2	
854.11	4465.3	
854.28	4118.5	
854.44	3048.1	
854.61	5720.7	
854.78	5212.1	
854.95	2833.7	
855.12	3573	
855.29	4132.8	
855.46	5440.1	
855.63	2852.1	
855.8	3839.3	
855.97	4581.3	
856.14	5247.6	
856.31	3999	
856.48	3067.9	
856.65	4693.3	
856.82	4419.5	
856.99	2741.5	
857.16	3061.7	
857.33	5843.5	
857.49	4720.6	
857.66	3087.7	
857.83	3287	
858	4717.8	
858.17	4863.2	
858.34	2669.9	
858.51	2889	
858.68	5490.6	
858.85	5479.7	
859.02	3254.2	
859.19	3465.8	
859.36	4474.1	
859.52	4433.9	
859.69	2901.3	
859.86	3358	
860.03	4483.7	
860.2	5374.6	
860.37	2678.1	
860.54	2902.7	
860.71	5156.8	
860.88	5414.8	
861.05	3170.3	
861.21	3575.1	
861.38	5479.7	
861.55	4355.3	
861.72	2661	
861.89	3177.1	
862.06	5150	
862.23	5511.8	
862.4	2773.6	
862.56	2956.6	
862.73	5063.3	
862.9	4814.1	
863.07	3282.2	
863.24	2655.5	
863.41	4378.6	
863.58	4502.8	
863.75	2898.6	
863.91	3286.3	
864.08	5358.9	
864.25	5083.7	
864.42	3510.2	
864.59	3927.3	
864.76	5664	
864.93	4394.3	
865.09	2806.4	
865.26	3052.2	
865.43	5354.8	
865.6	5591.6	
865.77	2582.5	
865.94	2808.4	
866.1	5351.3	
866.27	5100.1	
866.44	4217.5	
866.61	2739.5	
866.78	4725.3	
866.95	5087.2	
867.11	2810.5	
867.28	2586.6	
867.45	5308.3	
867.62	4519.2	
867.79	3259	
867.96	2856.2	
868.12	4400.4	
868.29	5151.3	
868.46	2872.6	
868.63	3695.2	
868.8	5269.4	
868.97	5136.3	
869.13	2988	
869.3	2945	
869.47	4989.5	
869.64	5184.8	
869.81	2877.4	
869.97	2872.6	
870.14	4929.5	
870.31	5442.1	
870.48	2818.7	
870.65	3524.6	
870.81	4704.9	
870.98	4717.8	
871.15	3198.2	
871.32	2950.4	
871.48	4941.7	
871.65	5505.6	
871.82	2774.3	
871.99	3122.5	
872.16	5797.8	
872.32	5271.5	
872.49	2975.7	
872.66	2916.3	
872.83	5077.6	
872.99	4584.7	
873.16	3282.9	
873.33	2851.5	
873.5	4853	
873.67	4895.3	
873.83	2993.4	
874	3712.3	
874.17	4928.1	
874.34	5673.6	
874.5	3588.7	
874.67	3515.7	
874.84	5450.3	
875.01	4332.1	
875.17	3900.7	
875.34	2889.7	
875.51	4909	
875.68	5824.4	
875.84	3428.3	
876.01	4013.3	
876.18	5136.3	
876.34	5031.2	
876.51	2856.9	
876.68	2872.6	
876.85	4651.6	
877.01	5341.8	
877.18	3976.5	
877.35	2863.7	
877.52	4876.9	
877.68	4420.9	
877.85	2830.3	
878.02	2854.2	
878.18	4721.3	
878.35	4544.4	
878.52	2321.7	
878.69	3173	
878.85	5212.1	
879.02	5091.3	
879.19	3984.7	
879.35	3091.1	
879.52	5132.9	
879.69	5227.1	
879.86	2517	
880.02	3194.1	
880.19	4776.5	
880.36	5687.9	
880.52	3296.5	
880.69	3380.5	
880.86	5150	
881.02	5199.8	
881.19	3153.9	
881.36	3056.9	
881.52	5066	
881.69	4552.6	
881.86	3067.9	
882.02	2984.6	
882.19	5307.7	
882.36	6095.4	
882.52	3009.8	
882.69	3970.3	
882.86	4945.2	
883.02	4906.3	
883.19	3434.4	
883.36	3235.1	
883.52	5203.2	
883.69	5830.6	
883.86	2910.8	
884.02	2650.8	
884.19	5119.9	
884.36	4843.4	
884.52	3234.4	
884.69	3045.3	
884.86	4665.3	
885.02	5557.5	
885.19	3138.2	
885.36	3271.3	
885.52	4820.2	
885.69	4939.7	
885.86	4071.4	
886.02	3592.1	
886.19	5175.2	
886.35	4597	
886.52	3192.8	
886.69	3931.4	
886.85	4463.9	
887.02	5460.6	
887.19	5460.6	
887.35	5460.6	
887.52	5460.6	
887.68	5460.6	
887.85	5460.6	
888.02	5460.6	
888.18	5460.6	
888.35	5460.6	
888.51	5460.6	
888.68	5460.6	
888.85	5460.6	
889.01	5460.6	
889.18	5460.6	
889.35	5460.6	
889.51	5460.6	
889.68	5460.6	
889.84	5460.6	
890.01	5460.6	
890.17	5460.6	
890.34	5460.6	
890.51	5460.6	
890.67	5460.6	
890.84	5460.6	
891	5460.6	
891.17	5460.6	
891.34	5460.6	
891.5	5460.6	
891.67	5460.6	
891.83	5460.6	
892	5460.6	
892.16	5460.6	
892.33	5460.6	
892.5	5460.6	
892.66	5460.6	
892.83	5460.6	
892.99	5460.6	
893.16	5460.6	
893.32	5460.6	
893.49	5460.6	
893.65	5460.6	
893.82	5460.6	
893.99	5460.6	
894.15	5460.6	
894.32	5460.6	
894.48	5460.6	
894.65	5460.6	
894.81	5460.6	
894.98	5460.6	
895.14	5460.6	
895.31	5460.6	
895.47	5460.6	
895.64	5460.6	
895.81	5460.6	
895.97	5460.6	
896.14	5460.6	
896.3	5460.6	
896.47	5460.6	
896.63	5460.6	
896.8	5460.6	
896.96	5460.6	
897.13	5460.6	
897.29	5460.6	
897.46	5460.6	
897.62	5460.6	
897.79	5460.6	
897.95	5460.6	
898.12	5460.6	
898.28	5460.6	
898.45	5460.6	
898.61	5460.6	
898.78	5460.6	
898.94	5460.6	
899.11	5460.6	
899.27	5460.6	
899.44	5460.6	
899.6	5460.6	
899.77	5460.6	
899.93	5460.6	
900.1	5460.6	
900.26	5460.6	
900.43	5460.6	
900.59	5460.6	
900.76	5460.6	
900.92	5460.6	
901.09	5460.6	
901.25	5460.6	
901.42	5460.6	
901.58	5460.6	
901.75	5460.6	
901.91	5460.6	
902.07	5460.6	
902.24	5460.6	
902.4	5460.6	
902.57	5460.6	
902.73	5460.6	
902.9	5460.6	
903.06	5460.6	
903.23	5460.6	
903.39	5460.6	
903.56	5460.6	
903.72	5460.6	
903.88	5460.6	
904.05	5460.6	
904.21	5460.6	
904.38	5460.6	
904.54	5460.6	
904.71	5460.6	
904.87	5460.6	
905.03	5460.6	
905.2	5460.6	
905.36	5460.6	
905.53	5460.6	
905.69	5460.6	
905.86	5460.6	
906.02	5460.6	
906.18	5460.6	
906.35	5460.6	
906.51	5460.6	
906.68	5460.6	
906.84	5460.6	
907.01	5460.6	
907.17	5460.6	
907.33	5460.6	
907.5	5460.6	
907.66	5460.6	
907.83	5460.6	
907.99	5460.6	
908.15	5460.6	
908.32	5460.6	
908.48	5460.6	
908.65	5460.6	
908.81	5460.6	
908.97	5460.6	
909.14	5460.6	
909.3	5460.6	
909.47	5460.6	
909.63	5460.6	
909.79	5460.6	
909.96	5460.6	
910.12	5460.6	
910.28	5460.6	
910.45	5460.6	
910.61	5460.6	
910.78	5460.6	
910.94	5460.6	
911.1	5460.6	
911.27	5460.6	
911.43	5460.6	
911.59	5460.6	
911.76	5460.6	
911.92	5460.6	
912.08	5460.6	
912.25	5460.6	
912.41	5460.6	
912.57	5460.6	
912.74	5460.6	
912.9	5460.6	
913.07	5460.6	
913.23	5460.6	
913.39	5460.6	
913.56	5460.6	
913.72	5460.6	
913.88	5460.6	
914.05	5460.6	
914.21	5460.6	
914.37	5460.6	
914.54	5460.6	
914.7	5460.6	
914.86	5460.6	
915.03	5460.6	
915.19	5460.6	
