Wavelength	Intensities	
nm	a.u.	
179.22	1874.6	
179.44	1876.6	
179.65	1872.5	
179.86	1880.7	
180.08	1856.8	
180.29	4754.7	
180.51	3398.3	
180.72	5565.7	
180.94	6400.6	
181.15	3099.9	
181.37	3085.6	
181.58	5340.4	
181.79	5586.2	
182.01	3259	
182.22	3506.1	
182.44	5635.3	
182.65	4724.7	
182.87	4401.8	
183.08	3905.5	
183.29	5885.2	
183.51	4903.5	
183.72	3515	
183.94	5114.5	
184.15	5258.5	
184.37	5272.8	
184.58	3072	
184.79	4232.5	
185.01	4881	
185.22	5602.6	
185.44	4440.7	
185.65	3793.5	
185.86	5233.9	
186.08	4763.6	
186.29	3006.4	
186.51	3244.7	
186.72	4948.6	
186.94	5847.6	
187.15	3775.1	
187.36	3850.9	
187.58	7509.9	
187.79	5326.1	
188.01	4025.6	
188.22	6165.1	
188.43	6430.6	
188.65	5539.8	
188.86	3225.6	
189.08	3867.2	
189.29	5104.2	
189.5	5058.5	
189.72	3616.7	
189.93	3672	
190.15	5801.9	
190.36	6909.8	
190.57	3882.3	
190.79	3781.2	
191	5927.5	
191.22	5819	
191.43	3938.2	
191.64	3198.2	
191.86	6031.3	
192.07	5902.2	
192.29	3414	
192.5	3618.8	
192.71	5811.5	
192.93	5037.3	
193.14	3558.7	
193.35	3629.7	
193.57	5023	
193.78	5805.3	
194	2897.2	
194.21	3495.2	
194.42	4871.4	
194.64	5246.9	
194.85	3880.9	
195.07	4577.9	
195.28	5325.4	
195.49	4595.6	
195.71	4765.6	
195.92	3322.5	
196.13	5541.1	
196.35	5575.3	
196.56	5091.9	
196.78	3859.7	
196.99	6819.7	
197.2	6394.4	
197.42	4413.4	
197.63	3945.8	
197.84	4725.3	
198.06	5485.8	
198.27	3603.1	
198.48	4753.3	
198.7	5046.2	
198.91	5167	
199.13	3863.2	
199.34	3895.2	
199.55	5737	
199.77	4589.5	
199.98	3432.4	
200.19	3970.3	
200.41	5174.5	
200.62	4917.9	
200.83	4014	
201.05	4320.5	
201.26	5180.7	
201.47	4973.2	
201.69	3448.8	
201.9	3349.1	
202.11	5238.7	
202.33	6224.5	
202.54	3708.2	
202.76	4071.4	
202.97	5367	
203.18	5423.7	
203.4	4084.3	
203.61	3898.6	
203.82	5342.5	
204.04	4962.2	
204.25	3949.8	
204.46	3846.8	
204.68	5303.6	
204.89	5514.5	
205.1	3841.3	
205.32	3254.2	
205.53	5705	
205.74	5780.1	
205.96	2820.1	
206.17	3960.8	
206.38	5568.4	
206.6	5781.4	
206.81	4470	
207.02	3628.3	
207.24	5498.1	
207.45	5913.9	
207.66	3670	
207.88	3222.1	
208.09	5486.5	
208.3	5246.9	
208.52	3396.2	
208.73	3781.9	
208.94	5264	
209.15	5935.7	
209.37	3688.4	
209.58	3843.4	
209.79	5737.7	
210.01	5119.9	
210.22	3009.1	
210.43	3140.2	
210.65	5283.8	
210.86	5668.1	
211.07	3751.2	
211.29	3401	
211.5	5629.9	
211.71	5206.6	
211.93	3415.3	
212.14	3383.2	
212.35	5233.9	
212.56	5355.4	
212.78	3938.2	
212.99	3171.6	
213.2	6122.1	
213.42	5079.6	
213.63	3517.7	
213.84	3765.5	
214.06	4698	
214.27	4805.2	
214.48	3743	
214.69	3941	
214.91	5916.6	
215.12	5948.7	
215.33	4012.7	
215.55	4395.6	
215.76	6482.5	
215.97	5632.6	
216.18	3833.8	
216.4	3731.4	
216.61	4980.7	
216.82	5743.2	
217.04	3407.1	
217.25	3570.3	
217.46	5912.5	
217.67	5655.1	
217.89	3090.4	
218.1	3221.5	
218.31	5365	
218.53	5440.1	
218.74	3590.8	
218.95	3528	
219.16	5225.1	
219.38	6160.3	
219.59	3549.8	
219.8	4176.5	
220.01	6755.6	
220.23	5285.8	
220.44	4537.6	
220.65	3433.8	
220.87	5308.3	
221.08	5884.5	
221.29	3242.6	
221.5	4212	
221.72	7177.4	
221.93	4950.6	
222.14	3935.5	
222.35	4624.3	
222.57	5272.8	
222.78	5615.5	
222.99	3725.3	
223.2	4000.4	
223.42	5525.4	
223.63	5731.6	
223.84	2926.5	
224.05	2879.4	
224.27	6744.6	
224.48	6154.8	
224.69	4589.5	
224.9	3932.8	
225.12	5474.9	
225.33	5201.2	
225.54	3151.1	
225.75	3495.2	
225.97	4852.3	
226.18	5139	
226.39	3754.6	
226.6	3474	
226.82	5051.7	
227.03	4896.7	
227.24	3928	
227.45	3235.1	
227.67	5637.4	
227.88	6180.1	
228.09	4385.4	
228.3	4361.5	
228.52	5628.5	
228.73	5233.2	
228.94	3610.6	
229.15	3277.4	
229.36	5214.8	
229.58	5141.8	
229.79	3697.9	
230	4250.2	
230.21	6261.3	
230.43	5378.6	
230.64	3870	
230.85	4051.6	
231.06	5720	
231.28	5606.7	
231.49	3261	
231.7	3827	
231.91	5584.8	
232.12	5273.5	
232.34	3284.3	
232.55	3822.2	
232.76	5905	
232.97	5423.7	
233.18	3469.9	
233.4	3848.8	
233.61	5496.1	
233.82	5010.7	
234.03	3613.3	
234.25	3550.5	
234.46	7271	
234.67	5334.3	
234.88	3973.1	
235.09	3486.3	
235.31	5583.4	
235.52	5124	
235.73	3902.1	
235.94	3254.9	
236.15	5012.7	
236.37	6355.5	
236.58	3417.4	
236.79	3744.4	
237	5608	
237.21	4756.1	
237.43	4035.9	
237.64	3170.3	
237.85	9448.6	
238.06	4853	
238.27	4078.2	
238.48	3308.8	
238.7	5570.5	
238.91	5172.5	
239.12	3704.1	
239.33	3794.2	
239.54	4919.9	
239.76	5187.5	
239.97	3701.4	
240.18	3726.6	
240.39	6552.1	
240.6	5528.2	
240.82	3847.5	
241.03	3151.1	
241.24	5311.7	
241.45	6127.5	
241.66	3372.3	
241.87	4048.8	
242.09	5976	
242.3	6302.3	
242.51	4024.9	
242.72	3703.4	
242.93	5741.8	
243.14	5215.5	
243.36	4303.5	
243.57	4713.7	
243.78	6139.8	
243.99	5659.2	
244.2	3769.6	
244.41	3390.8	
244.63	4820.2	
244.84	5636	
245.05	3981.3	
245.26	3747.8	
245.47	5611.4	
245.68	5787.6	
245.9	4963.6	
246.11	3931.4	
246.32	5133.6	
246.53	5543.2	
246.74	6053.1	
246.95	3132	
247.16	4814.1	
247.38	5233.2	
247.59	3146.4	
247.8	3817.4	
248.01	4974.5	
248.22	5252.4	
248.43	3383.9	
248.64	3670	
248.86	4724.7	
249.07	5026.4	
249.28	3287.7	
249.49	3812	
249.7	5778.7	
249.91	5959.6	
250.12	3105.4	
250.34	3191.4	
250.55	5394.3	
250.76	5326.1	
250.97	3865.2	
251.18	3966.2	
251.39	5909.8	
251.6	5435.3	
251.81	3953.3	
252.03	3971.7	
252.24	5016.8	
252.45	5785.5	
252.66	3248.1	
252.87	4136.2	
253.08	5302.9	
253.29	6845.7	
253.5	3306.1	
253.72	4505.5	
253.93	5143.8	
254.14	6303	
254.35	3558.7	
254.56	3708.2	
254.77	5513.1	
254.98	4894	
255.19	3521.8	
255.41	4535.6	
255.62	5455.1	
255.83	5860.6	
256.04	4026.3	
256.25	3861.8	
256.46	6493.4	
256.67	5016.2	
256.88	3835.8	
257.09	4274.1	
257.31	4930.1	
257.52	4974.5	
257.73	4842.8	
257.94	3481.5	
258.15	5104.2	
258.36	5279.7	
258.57	4419.5	
258.78	2863.1	
258.99	5741.8	
259.2	5130.2	
259.41	3523.9	
259.63	3689.1	
259.84	6062	
260.05	6510.5	
260.26	4659.8	
260.47	3467.2	
260.68	5837.4	
260.89	5216.2	
261.1	4327.4	
261.31	3409.9	
261.52	5857.2	
261.73	6189.6	
261.95	4627.7	
262.16	4056.3	
262.37	5910.4	
262.58	6083.8	
262.79	4592.2	
263	3665.2	
263.21	5351.3	
263.42	5215.5	
263.63	3700	
263.84	3595.6	
264.05	5831.2	
264.26	6167.8	
264.47	4519.9	
264.69	4014	
264.9	5932.3	
265.11	5473.5	
265.32	3424.9	
265.53	3560.7	
265.74	5411.4	
265.95	4709.6	
266.16	3820.8	
266.37	4218.8	
266.58	5403.9	
266.79	5129.5	
267	3534.1	
267.21	3297.2	
267.42	4850.3	
267.63	5296	
267.84	3717.7	
268.06	3222.1	
268.27	5687.2	
268.48	5967.1	
268.69	3603.7	
268.9	4315.8	
269.11	6032.6	
269.32	4795.7	
269.53	3744.4	
269.74	3489.7	
269.95	5576.6	
270.16	4662.5	
270.37	3795.6	
270.58	4311	
270.79	5084.4	
271	5757.5	
271.21	4058.4	
271.42	3788.1	
271.63	5421	
271.84	4948.6	
272.05	3002.3	
272.26	3388.7	
272.47	5326.1	
272.68	5454.4	
272.89	3635.8	
273.11	4130.1	
273.32	5053.7	
273.53	6173.3	
273.74	4055	
273.95	3907.5	
274.16	5864	
274.37	5343.2	
274.58	4148.5	
274.79	3259	
275	5416.9	
275.21	5934.3	
275.42	4910.3	
275.63	4261.8	
275.84	5549.3	
276.05	6956.3	
276.26	3909.6	
276.47	3707.5	
276.68	5102.9	
276.89	6255.9	
277.1	4165.6	
277.31	3304.1	
277.52	5490.6	
277.73	5683.8	
277.94	3254.9	
278.15	3599	
278.36	5522.7	
278.57	4962.9	
278.78	3605.1	
278.99	4037.2	
279.2	4952	
279.41	4937.7	
279.62	4732.2	
279.83	3334.8	
280.04	6434.7	
280.25	4866.7	
280.46	4674.8	
280.67	3727.3	
280.88	4904.9	
281.09	5883.1	
281.3	3916.4	
281.51	4954.7	
281.72	5036	
281.93	5756.2	
282.14	3490.4	
282.35	3775.1	
282.56	5747.3	
282.77	5670.1	
282.98	3656.3	
283.19	4384.7	
283.4	6967.2	
283.61	5212.1	
283.82	3302.7	
284.03	4669.4	
284.24	5375.9	
284.45	5911.8	
284.66	4655	
284.87	4504.8	
285.08	5808	
285.29	6029.9	
285.5	3166.2	
285.71	3707.5	
285.92	5894.1	
286.12	6526.2	
286.33	4630.5	
286.54	3661.1	
286.75	5743.2	
286.96	5175.9	
287.17	3361.4	
287.38	4528.1	
287.59	4977.2	
287.8	4857.1	
288.01	3637.9	
288.22	4209.3	
288.43	5816.9	
288.64	4784.1	
288.85	4340.3	
289.06	4160.1	
289.27	5710.4	
289.48	6103.6	
289.69	4599.1	
289.9	4251.6	
290.11	5939.1	
290.32	5028.4	
290.53	4422.9	
290.74	4036.5	
290.94	5676.3	
291.15	5777.3	
291.36	3596.9	
291.57	4210.6	
291.78	5025.7	
291.99	4734.9	
292.2	3422.2	
292.41	4076.1	
292.62	5861.3	
292.83	5604.6	
293.04	5038.7	
293.25	3392.1	
293.46	5063.3	
293.67	5849	
293.88	3509.5	
294.09	3401.7	
294.29	4887.1	
294.5	5444.2	
294.71	3857.7	
294.92	3633.8	
295.13	5074.9	
295.34	6318	
295.55	3162.7	
295.76	3278.8	
295.97	5711.1	
296.18	6403.3	
296.39	3337.5	
296.6	3549.1	
296.81	5414.8	
297.01	5711.8	
297.22	3712.3	
297.43	3497.2	
297.64	5010	
297.85	4924	
298.06	2957.9	
298.27	3183.2	
298.48	5326.1	
298.69	4977.2	
298.9	3818.8	
299.11	3421.5	
299.31	4839.4	
299.52	4832.5	
299.73	4131.4	
299.94	4035.2	
300.15	5287.9	
300.36	4909	
300.57	4016.1	
300.78	3986	
300.99	5179.3	
301.2	5399.8	
301.4	3514.3	
301.61	3826.3	
301.82	5636.7	
302.03	5743.9	
302.24	4262.5	
302.45	3348.4	
302.66	5567.7	
302.87	5986.2	
303.08	3563.5	
303.29	4850.3	
303.49	5053.7	
303.7	5344.5	
303.91	3140.9	
304.12	4554.7	
304.33	4789.5	
304.54	5401.9	
304.75	3552.5	
304.96	3318.4	
305.16	5596.4	
305.37	6335	
305.58	3043.3	
305.79	3201.7	
306	5533.6	
306.21	4687.8	
306.42	3512.3	
306.63	5390.3	
306.83	5153.4	
307.04	5791.7	
307.25	3918.4	
307.46	3842.7	
307.67	4584.7	
307.88	5709.1	
308.09	3472.7	
308.29	3646.7	
308.5	5418.2	
308.71	5917.9	
308.92	3867.9	
309.13	3359.4	
309.34	5131.5	
309.55	5237.3	
309.75	4281.6	
309.96	3992.9	
310.17	5655.8	
310.38	5009.3	
310.59	4249.5	
310.8	3286.3	
311.01	5140.4	
311.21	5185.5	
311.42	3368.2	
311.63	3445.4	
311.84	5051.7	
312.05	5404.6	
312.26	3900	
312.46	4307.6	
312.67	5134.9	
312.88	4804.5	
313.09	3391.4	
313.3	3319.1	
313.51	6028.5	
313.71	6415.6	
313.92	3409.2	
314.13	3591.5	
314.34	5440.8	
314.55	5255.1	
314.76	4437.9	
314.96	3822.2	
315.17	5393	
315.38	5615.5	
315.59	3476.1	
315.8	3210.5	
316.01	6122.7	
316.21	6128.2	
316.42	3310.9	
316.63	3775.8	
316.84	5162.2	
317.05	5924.1	
317.26	4031.8	
317.46	3593.5	
317.67	5237.3	
317.88	5668.1	
318.09	4296.6	
318.3	3176.4	
318.5	5038.7	
318.71	5600.5	
318.92	5472.9	
319.13	4022.2	
319.34	5786.9	
319.54	5977.3	
319.75	3215.3	
319.96	3044.6	
320.17	5636.7	
320.38	5827.8	
320.58	3147.7	
320.79	3665.2	
321	5838.8	
321.21	5902.9	
321.42	3747.8	
321.62	3110.9	
321.83	4892.6	
322.04	5309.7	
322.25	3659	
322.46	3426.9	
322.66	5412.1	
322.87	5564.3	
323.08	4207.9	
323.29	3323.2	
323.5	6307.7	
323.7	4927.4	
323.91	4640.7	
324.12	4154.6	
324.33	5402.5	
324.53	5601.9	
324.74	3984.7	
324.95	4242	
325.16	4667.3	
325.37	5118.6	
325.57	3428.3	
325.78	3463.8	
325.99	5396.4	
326.2	4799.8	
326.4	4986.8	
326.61	3149.1	
326.82	5265.3	
327.03	5412.1	
327.24	4814.8	
327.44	4493.9	
327.65	5509.7	
327.86	4562.2	
328.07	4022.2	
328.27	3272	
328.48	6009.4	
328.69	4885.1	
328.9	4959.5	
329.1	3652.9	
329.31	5203.2	
329.52	6032	
329.73	3437.9	
329.93	3865.9	
330.14	5319.3	
330.35	5541.8	
330.56	5571.8	
330.76	4207.9	
330.97	5145.9	
331.18	5429.8	
331.39	3834.5	
331.59	3026.2	
331.8	5819	
332.01	5957.5	
332.22	3556	
332.42	3990.1	
332.63	5431.9	
332.84	4997	
333.05	3821.5	
333.25	3516.4	
333.46	5098.1	
333.67	5296.7	
333.88	3528.7	
334.08	3994.2	
334.29	6980.2	
334.5	5896.8	
334.7	3336.1	
334.91	4857.1	
335.12	4875.5	
335.33	5697.4	
335.53	3821.5	
335.74	5582.8	
335.95	5100.8	
336.16	4910.3	
336.36	3782.6	
336.57	4357.4	
336.78	4824.3	
336.98	5855.1	
337.19	4719.9	
337.4	3740.3	
337.61	6348.7	
337.81	4851	
338.02	3474	
338.23	4531.5	
338.43	6024.4	
338.64	4934.9	
338.85	3489.1	
339.05	4515.8	
339.26	6081.1	
339.47	4738.3	
339.68	3423.5	
339.88	5029.1	
340.09	5590.3	
340.3	5756.8	
340.5	4044.1	
340.71	3059.7	
340.92	4821.6	
341.13	6019	
341.33	3347.7	
341.54	4027.7	
341.75	5521.3	
341.95	5174.5	
342.16	3854.3	
342.37	4164.9	
342.57	4878.3	
342.78	5255.1	
342.99	4304.1	
343.19	3091.8	
343.4	5710.4	
343.61	5587.5	
343.81	3644.7	
344.02	3362.1	
344.23	5754.1	
344.43	6077	
344.64	4242.7	
344.85	4143	
345.06	5687.9	
345.26	5894.7	
345.47	3999.7	
345.68	4629.8	
345.88	4755.4	
346.09	5765	
346.3	4056.3	
346.5	3047.4	
346.71	5341.8	
346.92	4971.1	
347.12	3174.4	
347.33	3930.7	
347.54	5844.2	
347.74	6176.7	
347.95	3960.8	
348.16	2970.9	
348.36	5113.1	
348.57	4943.8	
348.78	3934.8	
348.98	4261.1	
349.19	5275.6	
349.39	4756.1	
349.6	3183.2	
349.81	3495.2	
350.01	5594.4	
350.22	5015.5	
350.43	3782.6	
350.63	4627.7	
350.84	5381.4	
351.05	5089.9	
351.25	3476.1	
351.46	3153.2	
351.67	5822.4	
351.87	5079.6	
352.08	3703.4	
352.29	4235.9	
352.49	5790.3	
352.7	5503.6	
352.9	3419.4	
353.11	4205.2	
353.32	6465.4	
353.52	5177.9	
353.73	3351.2	
353.94	4250.9	
354.14	5648.3	
354.35	5444.9	
354.55	3430.3	
354.76	3831.7	
354.97	5575.3	
355.17	5401.9	
355.38	3238.5	
355.59	4536.3	
355.79	5062.6	
356	5479.7	
356.2	3828.3	
356.41	3324.5	
356.62	4810.7	
356.82	5271.5	
357.03	4124.6	
357.24	3723.9	
357.44	5105.6	
357.65	5177.3	
357.85	4956.8	
358.06	3864.5	
358.27	4865.3	
358.47	5070.1	
358.68	3274	
358.88	4166.3	
359.09	5722.7	
359.3	5988.9	
359.5	4777.2	
359.71	4306.2	
359.91	6471.6	
360.12	5818.3	
360.33	4201.1	
360.53	4665.3	
360.74	5182.7	
360.94	5176.6	
361.15	4338.3	
361.36	3588	
361.56	5925.5	
361.77	5391.6	
361.97	4873.5	
362.18	3813.3	
362.38	5953.4	
362.59	5018.9	
362.8	3545.7	
363	3451.5	
363.21	4842.8	
363.41	5542.5	
363.62	4081.6	
363.83	5156.1	
364.03	5572.5	
364.24	6574.7	
364.44	5163.6	
364.65	5093.3	
364.85	5377.3	
365.06	5035.3	
365.27	3799.7	
365.47	3797.6	
365.68	6421.7	
365.88	5378.6	
366.09	4200.4	
366.29	3842.7	
366.5	5691.3	
366.71	6020.3	
366.91	5135.6	
367.12	4356.7	
367.32	6635.4	
367.53	5935	
367.73	4351.9	
367.94	5217.5	
368.14	5885.2	
368.35	6736.5	
368.56	4328.7	
368.76	4114.4	
368.97	5915.9	
369.17	7484.6	
369.38	3766.9	
369.58	4087.7	
369.79	5052.3	
369.99	6273.6	
370.2	5016.8	
370.4	4160.8	
370.61	5674.9	
370.82	6816.3	
371.02	4063.2	
371.23	3341.6	
371.43	5008.6	
371.64	6245.6	
371.84	4126	
372.05	5242.8	
372.25	7539.9	
372.46	6047.7	
372.66	4089.1	
372.87	4101.4	
373.07	6091.3	
373.28	7634.1	
373.48	5100.8	
373.69	4823	
373.9	5561.6	
374.1	5628.5	
374.31	5123.3	
374.51	4678.2	
374.72	6423.1	
374.92	5317.2	
375.13	5257.1	
375.33	4503.5	
375.54	5997.1	
375.74	5468.8	
375.95	4595.6	
376.15	5700.9	
376.36	6094.8	
376.56	5928.9	
376.77	4622.3	
376.97	5099.4	
377.18	7144	
377.38	6194.4	
377.59	5479	
377.79	4248.2	
378	6047	
378.2	6384.9	
378.41	4289.8	
378.61	4205.2	
378.82	6510.5	
379.02	5618.3	
379.23	4494.6	
379.43	5536.3	
379.64	6490	
379.84	6202.6	
380.05	4240	
380.25	4237.9	
380.46	6298.2	
380.66	5883.1	
380.87	5560.9	
381.07	5907	
381.28	6873	
381.48	6236.1	
381.69	4286.4	
381.89	4315.8	
382.1	5241.4	
382.3	6445	
382.51	5344.5	
382.71	6241.5	
382.91	6251.8	
383.12	6761	
383.32	4642.1	
383.53	4868.7	
383.73	6088.6	
383.94	5856.5	
384.14	4694.6	
384.35	3900.7	
384.55	5791.7	
384.76	6232	
384.96	4584	
385.17	4913.8	
385.37	6223.1	
385.58	5505.6	
385.78	4919.2	
385.98	3843.4	
386.19	5754.8	
386.39	6081.8	
386.6	4406.5	
386.8	4546.5	
387.01	6201.2	
387.21	6269.5	
387.42	5043.5	
387.62	5541.8	
387.83	5580.7	
388.03	6177.4	
388.23	4706.2	
388.44	5459.2	
388.64	5287.2	
388.85	5454.4	
389.05	5037.3	
389.26	5635.3	
389.46	7363.8	
389.67	6683.9	
389.87	5085.1	
390.07	5088.5	
390.28	5957.5	
390.48	5457.2	
390.69	4293.2	
390.89	4638.6	
391.1	5754.8	
391.3	6682.5	
391.5	5748.6	
391.71	6361	
391.91	6388.3	
392.12	7391.8	
392.32	5784.1	
392.53	5025.7	
392.73	5791	
392.93	6004.6	
393.14	4669.4	
393.34	5419.6	
393.55	6275.7	
393.75	5941.2	
393.95	4689.2	
394.16	4616.1	
394.36	5697.4	
394.57	6309.8	
394.77	4229.7	
394.98	4614.1	
395.18	5669.5	
395.38	5823.7	
395.59	5553.4	
395.79	4584.7	
396	5875.6	
396.2	6277.7	
396.4	5344.5	
396.61	5305.6	
396.81	6565.1	
397.02	5866.7	
397.22	5611.4	
397.42	5597.1	
397.63	6552.1	
397.83	5795.8	
398.04	4446.1	
398.24	5127.4	
398.44	6296.8	
398.65	5461.2	
398.85	4374.5	
399.05	4428.4	
399.26	5822.4	
399.46	7481.2	
399.67	4954.7	
399.87	4668.7	
400.07	6180.8	
400.28	6495.5	
400.48	4749.2	
400.69	5766.4	
400.89	6741.2	
401.09	7129	
401.3	4594.3	
401.5	5733.6	
401.7	7544	
401.91	7718.1	
402.11	5009.3	
402.32	5261.9	
402.52	6739.2	
402.72	6651.8	
402.93	5411.4	
403.13	4151.9	
403.33	7355.6	
403.54	6032	
403.74	5005.2	
403.94	5832.6	
404.15	6193.7	
404.35	7341.3	
404.56	4863.9	
404.76	6649.1	
404.96	6776	
405.17	6468.2	
405.37	6272.2	
405.57	5343.8	
405.78	6754.9	
405.98	6167.8	
406.18	4835.9	
406.39	5659.9	
406.59	6654.5	
406.79	6225.8	
407	4546.5	
407.2	4660.5	
407.4	6734.4	
407.61	6926.2	
407.81	4853.7	
408.01	6690.7	
408.22	5785.5	
408.42	7817.1	
408.62	5973.2	
408.83	5436	
409.03	6536.4	
409.23	6297.5	
409.44	5586.2	
409.64	5872.9	
409.84	7377.5	
410.05	7401.4	
410.25	5659.2	
410.45	5472.9	
410.66	6928.3	
410.86	9313.5	
411.06	6032.6	
411.27	5872.2	
411.47	9130.5	
411.67	7187.7	
411.88	6164.4	
412.08	6428.6	
412.28	7799.3	
412.49	8275.2	
412.69	5995.8	
412.89	6051.1	
413.09	8122.2	
413.3	7956.4	
413.5	6078.4	
413.7	5694	
413.91	7295.5	
414.11	8211.7	
414.31	5936.4	
414.52	6466.1	
414.72	7809.6	
414.92	7770.7	
415.12	5977.3	
415.33	6520.7	
415.53	8172.1	
415.73	8352.3	
415.94	6828.6	
416.14	6247.7	
416.34	7162.4	
416.55	6802	
416.75	7438.2	
416.95	6937.8	
417.15	8226	
417.36	8868.4	
417.56	7701.7	
417.76	6716	
417.97	8601.5	
418.17	8283.4	
418.37	6333	
418.57	6416.3	
418.78	8041.7	
418.98	7634.8	
419.18	7135.1	
419.38	7126.2	
419.59	7699.7	
419.79	7287.4	
419.99	6232.7	
420.2	6662	
420.4	8237.6	
420.6	8350.9	
420.8	6225.1	
421.01	5974.6	
421.21	8026	
421.41	8165.9	
421.61	6528.9	
421.82	6246.3	
422.02	7484	
422.22	8409.6	
422.42	7062.8	
422.63	6558.3	
422.83	7535.8	
423.03	8775.5	
423.23	6624.5	
423.44	5717.2	
423.64	7694.9	
423.84	7369.3	
424.04	6126.2	
424.25	5779.4	
424.45	8492.9	
424.65	8469.7	
424.85	5535	
425.06	6093.4	
425.26	8468.4	
425.46	7053.2	
425.66	6518.7	
425.87	6260.6	
426.07	8234.2	
426.27	8072.4	
426.47	6405.4	
426.67	5709.1	
426.88	8476.5	
427.08	8042.4	
427.28	6561	
427.48	5643.5	
427.69	6838.2	
427.89	7529.7	
428.09	6551.5	
428.29	5740.5	
428.5	8134.5	
428.7	7599.3	
428.9	5555.5	
429.1	6059.9	
429.3	7661.5	
429.51	8102.4	
429.71	5883.8	
429.91	6670.9	
430.11	7985	
430.31	8549.6	
430.52	6225.1	
430.72	6577.4	
430.92	8535.9	
431.12	7952.3	
431.32	5858.6	
431.53	6255.9	
431.73	6900.3	
431.93	8588.5	
432.13	5827.2	
432.33	5687.2	
432.54	7380.9	
432.74	7749.5	
432.94	5699.5	
433.14	6574.7	
433.34	7964.6	
433.55	7454.6	
433.75	6597.2	
433.95	8318.2	
434.15	7737.9	
434.35	7438.2	
434.56	5827.8	
434.76	5423	
434.96	7759.8	
435.16	8045.8	
435.36	5750.7	
435.56	6791.1	
435.77	7422.5	
435.97	7673.7	
436.17	7542.7	
436.37	6882.5	
436.57	7444.4	
436.78	7391.8	
436.98	8467	
437.18	7354.9	
437.38	8150.2	
437.58	7603.4	
437.78	7496.2	
437.99	6135	
438.19	8036.9	
438.39	8753.7	
438.59	6032.6	
438.79	5529.5	
438.99	8683.4	
439.2	7545.4	
439.4	5713.8	
439.6	5724.1	
439.8	7902.4	
440	8912.8	
440.2	6748.7	
440.4	6824.5	
440.61	8219.9	
440.81	8763.9	
441.01	5921.4	
441.21	6824.5	
441.41	8627.4	
441.61	8248.5	
441.81	7090.1	
442.02	8032.1	
442.22	9164	
442.42	8366	
442.62	6072.2	
442.82	6068.1	
443.02	8796.7	
443.22	7870.3	
443.43	6486.6	
443.63	6089.3	
443.83	7629.4	
444.03	7691.5	
444.23	7309.2	
444.43	6892.1	
444.63	7955	
444.83	9147.6	
445.04	6173.3	
445.24	7452.6	
445.44	8279.3	
445.64	8270.4	
445.84	6894.8	
446.04	6905.1	
446.24	7630.7	
446.44	8630.1	
446.65	6146.6	
446.85	6512.5	
447.05	7790.5	
447.25	8613.8	
447.45	6535.1	
447.65	5862.7	
447.85	7974.8	
448.05	7560.4	
448.25	6909.2	
448.46	6711.2	
448.66	7950.2	
448.86	7585.7	
449.06	5739.1	
449.26	6879.1	
449.46	8238.3	
449.66	7445	
449.86	6458.6	
450.06	6328.9	
450.26	7473	
450.47	8115.4	
450.67	6668.2	
450.87	7041.6	
451.07	8127.7	
451.27	7909.9	
451.47	6030.6	
451.67	6612.2	
451.87	7709.2	
452.07	8773.5	
452.27	6276.3	
452.47	6209.4	
452.67	7910.6	
452.88	8382.3	
453.08	5561.6	
453.28	7598.6	
453.48	9107.3	
453.68	7837.6	
453.88	6113.2	
454.08	6287.3	
454.28	8247.9	
454.48	7913.4	
454.68	6905.1	
454.88	7330.4	
455.08	8264.9	
455.28	8175.5	
455.48	5909.1	
455.68	6520	
455.89	8843.1	
456.09	8451.3	
456.29	6359.6	
456.49	6406	
456.69	8682.7	
456.89	7873.1	
457.09	6943.3	
457.29	7236.8	
457.49	8352.3	
457.69	8437.6	
457.89	6813.6	
458.09	6124.1	
458.29	8024.6	
458.49	8819.9	
458.69	7086.7	
458.89	6591	
459.09	9039.1	
459.29	9168.1	
459.49	6608.1	
459.69	7566.6	
459.9	8639.7	
460.1	8147.5	
460.3	6581.5	
460.5	6347.3	
460.7	8602.8	
460.9	8404.2	
461.1	6048.3	
461.3	7342.7	
461.5	9212.4	
461.7	8860.9	
461.9	6537.1	
462.1	6920.8	
462.3	8312	
462.5	8912.8	
462.7	6524.8	
462.9	6657.9	
463.1	9985.2	
463.3	9712.2	
463.5	6935.1	
463.7	7795.9	
463.9	8563.9	
464.1	8982.4	
464.3	7083.2	
464.5	7236.2	
464.7	9251.4	
464.9	8914.8	
465.1	8464.9	
465.3	7602.1	
465.5	9497.8	
465.7	9563.3	
465.9	7824.6	
466.1	7601.4	
466.3	9367.4	
466.5	9080.7	
466.7	8565.3	
466.9	7535.2	
467.1	9159.9	
467.3	9992.7	
467.5	8434.2	
467.7	7363.1	
467.9	10327	
468.1	11139	
468.3	8158.4	
468.5	8555	
468.7	9136	
468.9	9058.8	
469.1	7631.4	
469.3	8346.2	
469.5	10995	
469.7	8681.3	
469.9	8137.9	
470.1	7438.9	
470.3	9152.4	
470.5	9186.5	
470.7	8669.7	
470.9	7434.1	
471.1	8930.5	
471.3	9309.4	
471.5	7324.2	
471.69	9197.4	
471.89	8730.5	
472.09	8340	
472.29	8150.2	
472.49	8381	
472.69	8531.8	
472.89	9338.1	
473.09	7137.9	
473.29	7230.7	
473.49	8656.1	
473.69	8759.2	
473.89	8240.3	
474.09	7411.6	
474.29	10015	
474.49	9598.1	
474.69	8222.6	
474.89	7499.7	
475.09	8724.3	
475.29	8735.3	
475.49	6989	
475.69	7249.8	
475.88	10283	
476.08	8995.4	
476.28	6817.7	
476.48	7279.8	
476.68	9472.5	
476.88	9214.5	
477.08	7116	
477.28	7489.4	
477.48	8813.1	
477.68	9422	
477.88	7016.3	
478.08	7273.7	
478.28	9746.3	
478.48	8908.7	
478.67	7304.4	
478.87	6704.4	
479.07	9473.9	
479.27	8969.4	
479.47	7389.8	
479.67	7429.3	
479.87	9305.3	
480.07	9899.9	
480.27	6841.6	
480.47	8293.6	
480.67	8980.3	
480.87	9544.2	
481.06	7044.3	
481.26	7828.7	
481.46	8898.4	
481.66	8785.1	
481.86	7437.5	
482.06	8473.1	
482.26	8616.5	
482.46	9533.3	
482.66	7389.8	
482.86	6931.7	
483.05	9000.1	
483.25	8413.7	
483.45	9809.1	
483.65	7406.8	
483.85	8607.6	
484.05	8839	
484.25	7784.3	
484.45	8264.9	
484.65	9656.2	
484.84	9714.2	
485.04	7410.9	
485.24	7309.9	
485.44	9970.9	
485.64	8310	
485.84	6660.7	
486.04	8080.6	
486.24	8701.1	
486.44	9036.3	
486.63	6548	
486.83	7437.5	
487.03	8616.5	
487.23	8749.6	
487.43	6659.3	
487.63	9031.5	
487.83	8840.4	
488.02	9810.5	
488.22	7724.9	
488.42	8286.1	
488.62	9712.2	
488.82	8624	
489.02	7352.2	
489.22	7322.9	
489.41	9617.3	
489.61	9291	
489.81	7119.4	
490.01	7101	
490.21	9497.1	
490.41	10027	
490.61	7134.4	
490.8	7240.9	
491	8993.3	
491.2	8340.7	
491.4	7811	
491.6	6917.4	
491.8	8995.4	
491.99	9135.3	
492.19	6744.6	
492.39	7127.6	
492.59	9647.3	
492.79	9638.4	
492.99	8028	
493.18	7066.2	
493.38	9648	
493.58	10308	
493.78	7774.8	
493.98	7277.1	
494.18	9326.4	
494.37	8681.3	
494.57	7985	
494.77	7878.5	
494.97	9544.9	
495.17	9875.3	
495.37	7562.5	
495.56	7908.6	
495.76	10079	
495.96	9602.2	
496.16	8717.5	
496.36	7604.1	
496.55	9764	
496.75	9355.8	
496.95	8035.5	
497.15	7940	
497.35	9770.2	
497.54	9756.5	
497.74	7774.1	
497.94	9288.2	
498.14	10497	
498.34	10292	
498.53	7438.9	
498.73	8249.2	
498.93	9157.2	
499.13	9661.6	
499.33	8021.2	
499.52	8620.6	
499.72	9624.1	
499.92	9964.7	
500.12	7645.1	
500.32	7951.6	
500.51	9996.1	
500.71	9739.5	
500.91	8733.9	
501.11	8317.5	
501.31	9957.9	
501.5	10300	
501.7	9013.8	
501.9	7961.8	
502.1	9739.5	
502.29	10022	
502.49	8496.3	
502.69	8859.5	
502.89	9964.1	
503.09	9931.3	
503.28	7406.1	
503.48	7519.5	
503.68	9129.8	
503.88	9233.6	
504.07	8560.5	
504.27	8068.3	
504.47	9562.6	
504.67	9703.3	
504.86	8361.2	
505.06	8118.8	
505.26	9217.9	
505.46	10966	
505.65	7909.9	
505.85	8203.5	
506.05	9051.3	
506.25	9605.7	
506.44	7387.7	
506.64	8138.6	
506.84	9053.4	
507.04	9968.8	
507.23	7488.7	
507.43	7989.1	
507.63	10862	
507.83	9245.9	
508.02	8007.6	
508.22	7614.3	
508.42	11119	
508.62	8876.6	
508.81	7877.9	
509.01	8344.8	
509.21	8770.8	
509.4	9075.2	
509.6	8051.9	
509.8	7472.4	
510	9012.4	
510.19	10454	
510.39	7404.8	
510.59	7429.3	
510.79	8797.4	
510.98	10170	
511.18	7477.8	
511.38	7636.2	
511.57	9619.3	
511.77	9462.3	
511.97	8218.5	
512.17	7191.8	
512.36	9598.1	
512.56	9617.3	
512.76	7352.2	
512.95	7147.4	
513.15	9668.5	
513.35	8355	
513.55	8199.4	
513.74	7291.5	
513.94	9602.2	
514.14	8972.8	
514.33	8245.8	
514.53	7976.8	
514.73	8962.6	
514.92	9133.3	
515.12	7508.5	
515.32	7264.1	
515.51	9273.2	
515.71	9804.3	
515.91	8988.5	
516.11	7362.4	
516.3	10903	
516.5	8841.8	
516.7	7884	
516.89	8424	
517.09	8850.6	
517.29	8798.8	
517.48	8114.1	
517.68	7590.5	
517.88	8648.6	
518.07	9349	
518.27	8064.2	
518.47	7053.2	
518.66	9904.7	
518.86	8494.3	
519.06	6962.4	
519.25	7317.4	
519.45	8890.2	
519.65	10267	
519.84	8001.4	
520.04	8591.9	
520.24	10566	
520.43	9416.6	
520.63	7701.7	
520.83	7387	
521.02	8631.5	
521.22	9299.1	
521.42	8023.3	
521.61	8487.5	
521.81	8910	
522.01	9037	
522.2	7800	
522.4	7618.4	
522.6	9550.4	
522.79	8305.9	
522.99	7615	
523.18	6944.7	
523.38	9211.8	
523.58	9198.1	
523.77	8939.4	
523.97	6944.7	
524.17	11001	
524.36	10228	
524.56	8301.8	
524.76	7843.7	
524.95	9205.6	
525.15	8886.8	
525.34	7658.7	
525.54	7774.1	
525.74	9598.1	
525.93	8598.1	
526.13	8794	
526.33	7723.6	
526.52	9929.9	
526.72	9356.5	
526.91	8930.5	
527.11	8202.1	
527.31	9942.9	
527.5	10397	
527.7	8183.7	
527.89	7207.5	
528.09	8796	
528.29	9399.5	
528.48	8464.3	
528.68	8058.8	
528.87	9753.8	
529.07	9806.4	
529.27	7960.5	
529.46	7632.1	
529.66	9506	
529.85	9932	
530.05	7487.4	
530.25	8236.9	
530.44	10833	
530.64	9434.3	
530.83	7837.6	
531.03	8138.6	
531.23	9976.3	
531.42	9716.2	
531.62	8785.1	
531.81	8103.8	
532.01	10012	
532.21	10314	
532.4	7759.1	
532.6	8103.1	
532.79	10837	
532.99	10015	
533.18	8146.8	
533.38	9065.7	
533.58	9539.4	
533.77	10245	
533.97	8041	
534.16	8887.5	
534.36	10582	
534.55	9568.8	
534.75	9172.2	
534.95	8168	
535.14	10365	
535.34	9591.3	
535.53	7890.8	
535.73	9775.6	
535.92	10873	
536.12	9839.8	
536.31	8071	
536.51	9168.8	
536.71	10098	
536.9	9642.5	
537.1	8169.3	
537.29	8301.8	
537.49	10456	
537.68	9544.9	
537.88	8570.7	
538.07	7770.7	
538.27	9704.6	
538.46	10779	
538.66	7729	
538.86	8109.3	
539.05	9754.5	
539.25	10137	
539.44	8428.8	
539.64	8017.8	
539.83	9587.9	
540.03	10544	
540.22	7933.8	
540.42	8040.3	
540.61	9946.3	
540.81	10016	
541	8576.2	
541.2	9176.9	
541.39	9341.5	
541.59	9762.7	
541.78	8778.3	
541.98	7914	
542.18	9011.1	
542.37	9019.3	
542.57	8292.2	
542.76	8740	
542.96	9075.2	
543.15	9881.4	
543.35	8297	
543.54	7707.9	
543.74	10053	
543.93	9682.1	
544.13	8217.1	
544.32	9299.8	
544.52	9941.5	
544.71	9152.4	
544.91	7339.9	
545.1	8537.3	
545.3	9172.2	
545.49	9873.3	
545.69	7227.3	
545.88	7826	
546.08	10688	
546.27	10393	
546.47	8363.2	
546.66	7546.8	
546.86	10036	
547.05	10618	
547.24	7862.8	
547.44	7750.9	
547.63	9055.4	
547.83	10057	
548.02	8064.2	
548.22	8341.4	
548.41	8837.7	
548.61	10129	
548.8	7591.1	
549	7600	
549.19	9499.8	
549.39	9868.5	
549.58	7345.4	
549.78	7943.4	
549.97	9762	
550.17	9260.9	
550.36	8600.8	
550.55	9667.1	
550.75	9306.7	
550.94	10178	
551.14	7544	
551.33	8084.7	
551.53	8707.3	
551.72	9636.4	
551.92	7938.6	
552.11	7646.4	
552.31	9547.6	
552.5	9670.5	
552.69	9311.4	
552.89	7298.3	
553.08	9607.7	
553.28	9301.9	
553.47	7679.2	
553.67	8873.2	
553.86	10201	
554.06	8604.2	
554.25	6825.2	
554.44	7397.9	
554.64	10925	
554.83	10397	
555.03	7433.4	
555.22	7835.5	
555.42	9747.6	
555.61	9486.2	
555.8	7599.3	
556	7837.6	
556.19	8638.3	
556.39	9911.5	
556.58	7664.2	
556.78	7554.3	
556.97	9338.7	
557.16	8899.8	
557.36	8811	
557.55	7305.8	
557.75	8312.7	
557.94	10088	
558.13	7452.6	
558.33	7128.3	
558.52	9791.3	
558.72	8800.8	
558.91	7212.3	
559.1	7528.3	
559.3	8486.8	
559.49	8234.9	
559.69	6802	
559.88	7765.9	
560.07	9389.9	
560.27	9624.8	
560.46	7954.3	
560.66	8065.6	
560.85	9091.6	
561.04	8251.9	
561.24	7118.7	
561.43	7403.4	
561.63	8529.1	
561.82	8753.7	
562.01	8575.5	
562.21	7656.7	
562.4	9261.6	
562.59	10170	
562.79	7521.5	
562.98	7218.4	
563.18	9082.1	
563.37	10568	
563.56	7960.5	
563.76	7055.9	
563.95	8582.4	
564.14	8565.3	
564.34	7418.4	
564.53	7223.2	
564.73	9174.9	
564.92	9476	
565.11	7649.8	
565.31	6896.2	
565.5	9684.2	
565.69	8612.4	
565.89	7144	
566.08	7422.5	
566.27	9494.4	
566.47	9961.3	
566.66	8128.4	
566.85	6843.6	
567.05	9098.4	
567.24	8469	
567.44	7176.8	
567.63	8548.9	
567.82	9413.8	
568.02	9126.4	
568.21	7182.2	
568.4	7471	
568.6	8993.3	
568.79	9095	
568.98	7083.2	
569.18	7156.3	
569.37	8984.4	
569.56	10886	
569.76	7392.5	
569.95	8410.3	
570.14	9373.6	
570.34	9195.4	
570.53	6941.9	
570.72	6963.1	
570.91	9824.8	
571.11	8926.4	
571.3	7447.8	
571.49	8322.3	
571.69	8899.1	
571.88	8573.5	
572.07	8032.8	
572.27	7847.8	
572.46	8479.3	
572.65	9498.5	
572.85	7274.4	
573.04	7545.4	
573.23	9747.6	
573.43	9000.1	
573.62	7056.6	
573.81	7675.1	
574	9104.6	
574.2	8852	
574.39	7346.7	
574.58	7491.5	
574.78	9897.2	
574.97	9108.7	
575.16	7834.8	
575.36	8073.1	
575.55	9574.9	
575.74	9719	
575.93	7017	
576.13	8079.2	
576.32	8961.2	
576.51	9472.5	
576.71	7426.6	
576.9	8746.2	
577.09	9873.3	
577.28	9344.9	
577.48	7837.6	
577.67	6950.8	
577.86	8992.6	
578.05	9325.1	
578.25	7570.7	
578.44	7691.5	
578.63	9127.1	
578.83	10274	
579.02	6960.4	
579.21	8451.3	
579.4	9396.1	
579.6	8980.3	
579.79	7671.7	
579.98	9863.7	
580.17	9592.7	
580.37	9695.8	
580.56	7187	
580.75	7968.6	
580.94	10081	
581.14	10019	
581.33	8402.8	
581.52	7311.9	
581.71	9415.2	
581.91	10158	
582.1	6879.1	
582.29	7643.7	
582.48	9133.9	
582.68	9090.3	
582.87	8056.7	
583.06	7714	
583.25	9418.6	
583.45	9270.5	
583.64	8340.7	
583.83	9084.1	
584.02	8974.9	
584.21	9463.7	
584.41	8341.4	
584.6	7633.5	
584.79	9094.3	
584.98	9848.7	
585.18	7154.2	
585.37	7137.9	
585.56	8709.3	
585.75	9508.7	
585.94	7360.4	
586.14	7979.6	
586.33	10113	
586.52	9015.2	
586.71	7762.5	
586.91	7585	
587.1	8489.5	
587.29	9635	
587.48	7521.5	
587.67	7432.1	
587.87	9439.1	
588.06	9450.7	
588.25	8723	
588.44	7978.9	
588.63	9097.1	
588.83	9637.7	
589.02	7408.2	
589.21	7314	
589.4	8815.8	
589.59	8674.5	
589.78	6612.9	
589.98	6916.7	
590.17	8355.7	
590.36	8817.2	
590.55	6317.3	
590.74	7098.3	
590.94	10237	
591.13	8886.1	
591.32	6854.6	
591.51	6373.3	
591.7	9289.6	
591.89	8656.8	
592.09	6443.6	
592.28	6928.3	
592.47	7905.8	
592.66	9675.3	
592.85	6485.9	
593.05	6701.6	
593.24	8417.2	
593.43	9279.3	
593.62	6777.4	
593.81	7345.4	
594	8572.1	
594.19	8807.6	
594.39	6693.4	
594.58	6631.3	
594.77	8924.4	
594.96	9321	
595.15	6569.2	
595.34	7296.9	
595.54	8936.7	
595.73	8041	
595.92	6070.9	
596.11	7217	
596.3	9385.8	
596.49	8134.5	
596.68	6939.2	
596.88	7457.3	
597.07	9105.3	
597.26	7879.2	
597.45	6382.8	
597.64	7636.2	
597.83	8141.4	
598.02	8754.4	
598.22	6503	
598.41	7154.9	
598.6	8622.6	
598.79	8023.9	
598.98	6595.1	
599.17	7464.8	
599.36	8630.8	
599.55	9739.5	
599.74	8493.6	
599.94	8281.3	
600.13	9118.2	
600.32	7906.5	
600.51	6269.5	
600.7	6368.5	
600.89	9697.8	
601.08	9815.2	
601.27	6159.6	
601.47	7127.6	
601.66	9085.5	
601.85	9650.7	
602.04	6845.7	
602.23	7168.6	
602.42	8147.5	
602.61	8724.3	
602.8	6787.7	
602.99	6542.6	
603.18	8357.8	
603.37	8605.6	
603.57	7202	
603.76	7686	
603.95	9299.8	
604.14	8923	
604.33	6554.2	
604.52	6954.9	
604.71	8501.1	
604.9	8279.3	
605.09	7832.8	
605.28	7331	
605.47	9091.6	
605.66	8791.2	
605.86	7210.9	
606.05	6706.4	
606.24	9257.5	
606.43	7749.5	
606.62	6965.8	
606.81	7626	
607	9062.3	
607.19	8271.7	
607.38	6417.7	
607.57	6592.4	
607.76	8154.3	
607.95	7574.1	
608.14	6978.8	
608.33	7612.3	
608.52	8101.8	
608.72	8919.6	
608.91	6272.9	
609.1	6232	
609.29	8287.4	
609.48	7710.6	
609.67	7136.5	
609.86	6199.9	
610.05	7835.5	
610.24	8153	
610.43	6130.9	
610.62	5743.9	
610.81	9273.2	
611	8987.9	
611.19	6253.1	
611.38	6954.9	
611.57	8381	
611.76	9632.3	
611.95	5931.6	
612.14	5899.5	
612.33	8265.6	
612.52	7824.6	
612.71	6539.2	
612.9	5758.9	
613.09	7396.6	
613.28	9557.2	
613.47	6335.7	
613.66	7200	
613.85	8413.1	
614.04	7793.2	
614.24	6331.6	
614.43	5593	
614.62	8398.7	
614.81	8436.3	
615	6810.9	
615.19	6905.1	
615.38	7780.2	
615.57	8094.9	
615.76	6626.5	
615.95	7661.5	
616.14	8425.3	
616.33	8131.1	
616.52	6980.2	
616.71	7224.6	
616.9	8363.2	
617.09	8184.4	
617.28	6390.3	
617.47	7572	
617.66	7520.1	
617.85	7506.5	
618.04	7288.7	
618.22	6725.5	
618.41	7854.6	
618.6	8686.8	
618.79	6655.2	
618.98	6305.7	
619.17	8985.8	
619.36	7327.6	
619.55	6404.7	
619.74	6520.7	
619.93	8281.3	
620.12	7714	
620.31	7067.5	
620.5	7205.4	
620.69	8891.6	
620.88	9166.7	
621.07	7840.3	
621.26	6909.8	
621.45	8401.5	
621.64	8449.9	
621.83	6989.7	
622.02	6173.3	
622.21	8484.1	
622.4	8227.4	
622.59	7546.1	
622.78	7326.3	
622.97	7867.6	
623.16	8841.8	
623.35	6881.2	
623.54	6143.2	
623.72	8050.6	
623.91	8271.1	
624.1	7213.6	
624.29	5939.8	
624.48	9154.4	
624.67	8516.1	
624.86	7106.5	
625.05	6179.4	
625.24	9325.8	
625.43	7755.7	
625.62	8681.3	
625.81	6355.5	
626	8856.1	
626.19	8098.4	
626.38	7169.9	
626.56	6563.7	
626.75	7932.5	
626.94	8643.1	
627.13	7173.4	
627.32	5916.6	
627.51	8580.3	
627.7	9818	
627.89	6066.1	
628.08	7189.1	
628.27	7814.4	
628.46	8096.3	
628.65	6397.2	
628.83	6094.1	
629.02	8567.3	
629.21	7858.1	
629.4	6806.8	
629.59	6957.6	
629.78	7798	
629.97	8748.9	
630.16	6982.2	
630.35	6568.5	
630.54	9138	
630.72	8845.9	
630.91	6403.3	
631.1	7099.6	
631.29	8298.4	
631.48	8563.9	
631.67	7108.5	
631.86	6576.7	
632.05	8006.2	
632.24	8091.5	
632.42	6265.4	
632.61	6782.9	
632.8	8146.8	
632.99	7748.1	
633.18	6903	
633.37	7260	
633.56	8320.9	
633.75	8241.7	
633.93	6849.1	
634.12	6585.6	
634.31	9129.2	
634.5	8704.5	
634.69	6623.8	
634.88	7133.1	
635.07	8156.4	
635.25	8761.2	
635.44	7473.7	
635.63	7687.4	
635.82	8042.4	
636.01	7445	
636.2	7350.8	
636.39	6938.5	
636.57	9045.2	
636.76	8817.9	
636.95	6408.8	
637.14	7716.1	
637.33	8443.8	
637.52	9296.4	
637.7	6186.9	
637.89	7050.5	
638.08	7997.3	
638.27	9392.7	
638.46	7208.8	
638.65	7634.1	
638.83	9470.5	
639.02	7873.8	
639.21	7185.6	
639.4	7563.1	
639.59	8354.3	
639.78	8012.3	
639.96	6404.7	
640.15	6494.8	
640.34	8243.8	
640.53	8330.5	
640.72	6143.2	
640.91	6488	
641.09	7652.6	
641.28	8910	
641.47	6483.9	
641.66	7354.9	
641.85	8295	
642.03	8566.7	
642.22	7092.8	
642.41	6511.2	
642.6	7849.2	
642.79	7146.7	
642.97	6308.4	
643.16	7156.3	
643.35	7764.5	
643.54	7544	
643.73	6297.5	
643.91	7034.8	
644.1	7465.5	
644.29	8048.5	
644.48	6342.6	
644.67	6373.3	
644.85	7664.9	
645.04	7935.9	
645.23	5969.8	
645.42	6248.4	
645.6	7544.7	
645.79	8654	
645.98	6290.7	
646.17	5271.5	
646.36	7207.5	
646.54	7903.8	
646.73	7034.1	
646.92	5925.5	
647.11	7490.8	
647.29	8468.4	
647.48	6021.7	
647.67	5734.3	
647.86	8791.9	
648.05	8758.5	
648.23	6256.5	
648.42	7534.5	
648.61	8155	
648.8	7801.4	
648.98	5863.3	
649.17	6228.6	
649.36	7399.3	
649.55	6934.4	
649.73	5951.4	
649.92	6686.6	
650.11	7311.9	
650.3	7671	
650.48	6029.2	
650.67	5819	
650.86	7909.3	
651.05	6818.4	
651.23	6053.8	
651.42	6004.6	
651.61	7431.4	
651.79	7463.5	
651.98	6125.5	
652.17	5811.5	
652.36	7875.1	
652.54	6900.3	
652.73	5908.4	
652.92	5614.2	
653.11	7850.5	
653.29	7888.8	
653.48	5177.9	
653.67	6160.3	
653.85	7617.1	
654.04	8675.2	
654.23	6393.8	
654.42	5912.5	
654.6	7211.6	
654.79	7865.6	
654.98	5401.9	
655.16	5941.2	
655.35	6784.2	
655.54	6747.4	
655.73	5517.2	
655.91	5401.9	
656.1	7914	
656.29	6613.6	
656.47	4993.6	
656.66	6597.2	
656.85	6884.6	
657.03	6878.4	
657.22	5421.7	
657.41	5597.1	
657.59	7008.8	
657.78	6829.3	
657.97	5124.7	
658.16	5916.6	
658.34	7702.4	
658.53	8114.1	
658.72	6769.2	
658.9	7302.4	
659.09	7161.1	
659.28	7240.9	
659.46	5631.2	
659.65	5501.5	
659.84	6885.3	
660.02	7438.9	
660.21	5461.2	
660.4	5401.9	
660.58	7848.5	
660.77	7281.2	
660.96	6024.4	
661.14	5113.1	
661.33	8301.1	
661.52	8189.8	
661.7	5032.5	
661.89	8627.4	
662.08	6850.5	
662.26	6439.5	
662.45	5366.4	
662.64	5506.3	
662.82	7467.6	
663.01	6704.4	
663.2	5490.6	
663.38	6257.9	
663.57	7369.3	
663.75	7294.2	
663.94	5784.8	
664.13	6952.2	
664.31	6782.9	
664.5	7479.2	
664.69	5945.9	
664.87	6580.8	
665.06	6467.5	
665.25	7294.9	
665.43	6783.6	
665.62	6765.1	
665.8	7591.1	
665.99	6911.2	
666.18	5788.2	
666.36	5849	
666.55	7673.1	
666.74	7516	
666.92	5401.9	
667.11	7032	
667.29	6955.6	
667.48	7529	
667.67	6608.1	
667.85	5651.7	
668.04	7020.4	
668.22	6905.8	
668.41	5825.8	
668.6	5958.2	
668.78	6724.8	
668.97	6965.1	
669.15	6117.3	
669.34	5135.6	
669.53	6792.4	
669.71	7160.4	
669.9	5334.3	
670.08	5994.4	
670.27	6788.3	
670.46	7341.3	
670.64	6153.5	
670.83	6412.2	
671.01	6655.9	
671.2	7335.8	
671.38	5439.4	
671.57	5317.2	
671.76	7861.5	
671.94	8355	
672.13	5234.6	
672.31	6228.6	
672.5	7464.2	
672.69	6718.7	
672.87	5377.3	
673.06	5681.1	
673.24	7296.9	
673.43	6783.6	
673.61	6087.9	
673.8	5624.4	
673.98	7523.6	
674.17	7648.5	
674.36	6292.7	
674.54	6093.4	
674.73	7241.6	
674.91	7453.9	
675.1	5804.6	
675.28	5464.7	
675.47	7027.3	
675.65	7527.7	
675.84	5666.7	
676.03	6003.3	
676.21	6791.7	
676.4	6250.4	
676.58	6466.8	
676.77	6093.4	
676.95	8210.3	
677.14	6695.5	
677.32	5350.7	
677.51	5124.7	
677.69	7501	
677.88	6306.4	
678.06	5287.2	
678.25	5378.6	
678.44	6999.3	
678.62	6673.6	
678.81	4999.1	
678.99	5995.8	
679.18	7744.7	
679.36	7367.2	
679.55	5603.2	
679.73	6266.8	
679.92	7226.6	
680.1	6683.9	
680.29	6801.3	
680.47	5601.9	
680.66	6720.8	
680.84	7464.2	
681.03	4890.5	
681.21	5991	
681.4	6712.6	
681.58	6565.1	
681.77	5391.6	
681.95	5322.7	
682.14	7529.7	
682.32	7847.8	
682.51	6236.1	
682.69	5122.7	
682.88	6664.8	
683.06	7260	
683.25	5855.8	
683.43	6358.9	
683.62	6882.5	
683.8	7379.5	
683.99	6448.4	
684.17	5820.3	
684.36	8191.2	
684.54	6829.3	
684.73	5018.2	
684.91	5259.9	
685.1	7219.1	
685.28	6698.2	
685.46	5814.2	
685.65	5900.2	
685.83	7554.3	
686.02	6799.9	
686.2	5368.4	
686.39	5427.1	
686.57	6535.1	
686.76	7993.2	
686.94	5229.1	
687.13	5395	
687.31	7158.3	
687.5	6718.7	
687.68	4883	
687.86	6070.9	
688.05	8439.7	
688.23	6198.5	
688.42	6110.5	
688.6	5220.3	
688.79	6619	
688.97	6668.2	
689.16	5714.5	
689.34	4630.5	
689.52	7455.3	
689.71	7591.8	
689.89	5978.7	
690.08	5302.9	
690.26	6882.5	
690.45	6791.7	
690.63	6112.5	
690.81	5373.9	
691	6632	
691.18	6542.6	
691.37	5581.4	
691.55	7792.5	
691.74	6492.1	
691.92	8518.9	
692.1	5559.6	
692.29	4983.4	
692.47	6751.5	
692.66	6098.2	
692.84	5169.1	
693.02	5784.1	
693.21	6201.9	
693.39	6666.1	
693.58	5765.7	
693.76	5218.2	
693.94	7780.9	
694.13	7621.2	
694.31	5154.1	
694.5	6313.9	
694.68	6493.4	
694.86	6770.6	
695.05	5605.3	
695.23	5664	
695.42	7109.2	
695.6	9370.1	
695.78	6139.8	
695.97	5275.6	
696.15	7229.3	
696.34	6496.2	
696.52	4982.7	
696.7	5870.2	
696.89	6978.1	
697.07	6361	
697.25	5788.9	
697.44	7234.1	
697.62	6880.5	
697.81	7268.9	
697.99	5521.3	
698.17	5853.1	
698.36	6247.7	
698.54	6950.8	
698.72	5791.7	
698.91	4790.9	
699.09	6528.9	
699.28	6419	
699.46	5431.9	
699.64	5307.7	
699.83	6245.6	
700.01	7605.5	
700.19	6090	
700.38	4547.2	
700.56	7502.4	
700.74	6402	
700.93	4942.4	
701.11	5728.2	
701.29	6957.6	
701.48	7921.5	
701.66	5137	
701.84	5134.3	
702.03	6513.9	
702.21	7110.5	
702.39	4696	
702.58	5210	
702.76	6886.6	
702.94	6918.7	
703.13	4744.5	
703.31	7101	
703.49	6098.9	
703.68	7118.7	
703.86	4893.3	
704.04	5844.9	
704.23	6684.6	
704.41	6969.9	
704.59	5046.9	
704.78	6150.1	
704.96	7771.4	
705.14	7061.4	
705.33	4842.1	
705.51	5672.9	
705.69	6496.2	
705.87	7327.6	
706.06	5890	
706.24	4689.8	
706.42	6645	
706.61	7023.2	
706.79	5920.7	
706.97	4785.4	
707.16	6178.7	
707.34	6842.9	
707.52	5838.1	
707.7	4975.2	
707.89	6355.5	
708.07	6012.8	
708.25	5802.6	
708.44	5896.8	
708.62	6240.8	
708.8	7382.9	
708.98	6051.1	
709.17	4987.5	
709.35	6675.7	
709.53	6763.8	
709.72	4674.8	
709.9	5183.4	
710.08	6954.9	
710.26	6892.8	
710.45	6284.5	
710.63	5023	
710.81	6619	
710.99	6662.7	
711.18	5643.5	
711.36	5152.7	
711.54	6396.5	
711.72	7153.6	
711.91	5220.3	
712.09	4672.1	
712.27	6565.8	
712.45	7137.9	
712.64	5418.9	
712.82	4500.8	
713	6045.6	
713.18	6149.4	
713.37	4674.1	
713.55	5866.7	
713.73	7078.5	
713.91	5658.5	
714.1	5078.3	
714.28	4560.8	
714.46	6847.7	
714.64	6077.7	
714.83	4117.8	
715.01	4868.7	
715.19	6089.3	
715.37	5590.3	
715.55	4603.2	
715.74	4879.6	
715.92	6998.6	
716.1	5069.4	
716.28	6000.5	
716.47	5102.9	
716.65	5773.2	
716.83	5863.3	
717.01	4952.7	
717.19	4989.5	
717.38	7819.8	
717.56	5448.3	
717.74	5158.8	
717.92	4238.6	
718.1	6673	
718.29	5907.7	
718.47	3842	
718.65	4526.7	
718.83	6485.9	
719.01	6365.1	
719.2	3720.5	
719.38	4749.2	
719.56	6173.9	
719.74	7641	
719.92	4373.1	
720.11	5488.6	
720.29	6168.5	
720.47	5373.9	
720.65	3972.4	
720.83	4843.4	
721.02	5777.3	
721.2	5525.4	
721.38	4946.5	
721.56	4179.2	
721.74	5013.4	
721.92	5192.3	
722.11	5335	
722.29	5137.7	
722.47	6482.5	
722.65	5655.8	
722.83	4188.1	
723.01	5104.9	
723.2	5726.8	
723.38	5956.2	
723.56	3644.7	
723.74	4825	
723.92	5228.5	
724.1	6422.4	
724.29	4117.8	
724.47	5283.1	
724.65	5243.5	
724.83	5216.9	
725.01	4040	
725.19	4904.9	
725.37	5278.3	
725.56	5339.7	
725.74	3816	
725.92	4088.4	
726.1	5152	
726.28	5509.7	
726.46	4553.3	
726.64	4284.4	
726.83	5488.6	
727.01	5773.9	
727.19	3827.7	
727.37	4682.3	
727.55	5522.7	
727.73	6093.4	
727.91	3811.3	
728.09	3637.9	
728.28	6124.1	
728.46	6627.9	
728.64	4767.7	
728.82	4644.1	
729	7109.9	
729.18	6426.5	
729.36	3879.5	
729.54	6133.7	
729.72	7389.8	
729.91	5659.9	
730.09	5765	
730.27	4533.5	
730.45	5538.4	
730.63	6150.7	
730.81	5134.3	
730.99	4144.4	
731.17	6737.1	
731.35	5274.2	
731.53	4668.7	
731.71	4243.4	
731.9	6445.6	
732.08	6609.5	
732.26	4549.9	
732.44	4279.6	
732.62	6623.1	
732.8	6124.8	
732.98	4956.1	
733.16	3989.4	
733.34	6113.9	
733.52	4947.2	
733.7	4521.2	
733.88	4787.5	
734.07	6028.5	
734.25	5732.9	
734.43	3965.6	
734.61	5517.2	
734.79	7175.4	
734.97	5676.3	
735.15	4079.6	
735.33	4459.1	
735.51	5953.4	
735.69	5683.1	
735.87	5563.6	
736.05	4699.4	
736.23	5807.4	
736.41	5609.4	
736.59	4511	
736.77	4617.5	
736.95	6182.1	
737.13	5649	
737.32	4187.4	
737.5	4375.1	
737.68	6769.2	
737.86	5515.9	
738.04	3928.7	
738.22	5793	
738.4	5418.9	
738.58	5739.1	
738.76	4616.8	
738.94	3520.5	
739.12	5513.1	
739.3	5428.5	
739.48	5137.7	
739.66	4924.7	
739.84	5771.2	
740.02	5756.2	
740.2	3670	
740.38	4096.6	
740.56	6100.2	
740.74	5025	
740.92	4685.1	
741.1	4610	
741.28	5554.1	
741.46	5433.9	
741.64	4264.6	
741.82	4760.2	
742	5621	
742.18	5593.7	
742.36	4534.9	
742.54	4056.3	
742.72	6197.8	
742.9	4968.4	
743.08	4819.6	
743.26	3639.9	
743.44	6390.3	
743.62	6281.8	
743.8	5032.5	
743.98	4027	
744.16	5993	
744.34	5683.1	
744.52	4901.5	
744.7	4848.9	
744.88	6116.6	
745.06	5643.5	
745.24	4965	
745.42	5044.1	
745.6	6226.5	
745.78	6030.6	
745.96	3799.7	
746.14	4133.5	
746.32	6923.5	
746.5	6261.3	
746.68	4681	
746.86	4216.1	
747.03	6678.4	
747.21	5012.7	
747.39	4709.6	
747.57	4200.4	
747.75	5848.3	
747.93	6277.7	
748.11	4150.6	
748.29	4134.2	
748.47	7393.2	
748.65	5633.3	
748.83	4967	
749.01	4520.5	
749.19	6065.4	
749.37	5220.3	
749.55	4470	
749.73	4588.1	
749.91	5766.4	
750.09	5409.4	
750.26	4675.5	
750.44	4018.8	
750.62	5795.1	
750.8	5735.7	
750.98	3882.3	
751.16	4220.9	
751.34	5787.6	
751.52	5159.5	
751.7	4959.5	
751.88	3923.9	
752.06	6266.1	
752.24	6100.9	
752.42	3836.5	
752.59	4194.2	
752.77	5653.1	
752.95	7012.2	
753.13	4900.1	
753.31	4291.9	
753.49	5365.7	
753.67	5872.2	
753.85	4653.7	
754.03	4201.7	
754.21	6176	
754.38	6512.5	
754.56	4358.8	
754.74	3507.5	
754.92	5447.6	
755.1	6208.1	
755.28	3607.2	
755.46	3610.6	
755.64	6866.8	
755.82	7064.1	
755.99	3997.6	
756.17	4110.3	
756.35	4766.3	
756.53	6298.9	
756.71	3011.9	
756.89	3966.2	
757.07	5847	
757.25	4936.3	
757.42	4434.5	
757.6	5280.3	
757.78	5892.7	
757.96	4855.7	
758.14	4140.3	
758.32	3622.2	
758.5	4449.6	
758.67	5274.2	
758.85	3960.8	
759.03	4117.8	
759.21	5503.6	
759.39	4908.3	
759.57	3604.4	
759.75	4735.6	
759.92	6154.8	
760.1	5426.4	
760.28	5075.5	
760.46	5245.5	
760.64	5195.7	
760.82	4863.9	
760.99	4833.2	
761.17	4005.8	
761.35	5930.9	
761.53	4894	
761.71	4119.8	
761.89	4749.9	
762.06	5767.8	
762.24	5350	
762.42	4235.2	
762.6	3961.5	
762.78	5283.8	
762.96	5953.4	
763.13	4590.2	
763.31	4229.1	
763.49	6081.8	
763.67	5147.2	
763.85	5044.8	
764.02	5616.9	
764.2	6262.7	
764.38	5544.5	
764.56	4072	
764.74	4966.3	
764.91	6440.9	
765.09	5381.4	
765.27	3891.8	
765.45	3613.3	
765.63	6520.7	
765.8	6365.1	
765.98	3355.3	
766.16	3732.1	
766.34	4940.4	
766.52	4695.3	
766.69	4604.5	
766.87	3547.1	
767.05	5374.6	
767.23	6095.4	
767.41	3916.4	
767.58	4112.3	
767.76	5956.2	
767.94	6030.6	
768.12	3969	
768.29	4662.5	
768.47	5502.2	
768.65	6168.5	
768.83	3610.6	
769	4782	
769.18	5000.5	
769.36	5732.3	
769.54	4726.7	
769.72	3657	
769.89	5992.4	
770.07	6163.7	
770.25	3912.3	
770.43	5269.4	
770.6	6796.5	
770.78	7189.1	
770.96	4237.9	
771.14	4801.1	
771.31	5931.6	
771.49	5272.8	
771.67	3379.8	
771.85	3669.3	
772.02	4538.3	
772.2	5346.6	
772.38	4356.7	
772.55	3868.6	
772.73	5568.4	
772.91	5413.5	
773.09	4243.4	
773.26	4330.1	
773.44	5550	
773.62	5200.5	
773.8	3758	
773.97	3523.2	
774.15	5699.5	
774.33	5255.1	
774.5	3661.8	
774.68	4065.2	
774.86	5848.3	
775.04	5326.8	
775.21	3745.1	
775.39	3793.5	
775.57	5589.6	
775.74	5968.5	
775.92	3627	
776.1	3512.9	
776.27	5542.5	
776.45	6724.8	
776.63	3729.4	
776.81	3279.5	
776.98	5210.7	
777.16	6350.1	
777.34	3915.7	
777.51	4287.8	
777.69	5208.7	
777.87	4977.9	
778.04	3993.5	
778.22	4563.6	
778.4	4986.1	
778.57	5720.7	
778.75	3282.9	
778.93	3561.4	
779.1	4870.8	
779.28	4788.2	
779.46	3293.1	
779.64	3801	
779.81	5847	
779.99	6720.1	
780.17	4553.3	
780.34	4704.9	
780.52	5345.9	
780.69	5472.9	
780.87	4037.2	
781.05	3673.4	
781.22	5344.5	
781.4	5487.9	
781.58	3863.8	
781.75	2978.4	
781.93	5423	
782.11	4840	
782.28	4747.9	
782.46	3822.2	
782.64	4666	
782.81	5584.1	
782.99	3926.6	
783.17	3799	
783.34	5524.7	
783.52	4722.6	
783.69	4093.9	
783.87	4873.5	
784.05	4896	
784.22	4818.2	
784.4	4844.8	
784.58	4130.1	
784.75	5782.1	
784.93	4907.6	
785.1	3814	
785.28	4435.2	
785.46	5584.1	
785.63	4865.3	
785.81	3828.3	
785.99	3688.4	
786.16	5031.9	
786.34	5413.5	
786.51	3727.3	
786.69	4049.5	
786.87	4605.2	
787.04	5159.5	
787.22	3580.5	
787.39	4543.8	
787.57	4829.8	
787.75	5922.7	
787.92	4773.8	
788.1	4636.6	
788.27	4956.8	
788.45	4628.4	
788.63	4354.7	
788.8	3113.6	
788.98	5311.1	
789.15	4543.1	
789.33	3190.1	
789.5	3835.8	
789.68	5765	
789.86	5853.8	
790.03	4330.1	
790.21	3730	
790.38	5782.8	
790.56	4961.5	
790.73	3641.3	
790.91	3694.5	
791.09	4877.6	
791.26	5569.1	
791.44	3914.4	
791.61	3319.8	
791.79	4862.6	
791.96	4962.9	
792.14	3431.7	
792.32	3037.1	
792.49	4863.9	
792.67	4973.2	
792.84	3488.4	
793.02	3332	
793.19	5324.7	
793.37	6004.6	
793.54	3054.9	
793.72	3392.1	
793.89	6191	
794.07	4851	
794.25	4050.2	
794.42	3107.5	
794.6	5952.1	
794.77	5510.4	
794.95	4269.3	
795.12	3676.1	
795.3	4939	
795.47	5506.3	
795.65	4160.1	
795.82	3880.9	
796	4719.2	
796.17	6556.9	
796.35	3838.6	
796.52	4444.8	
796.7	5443.5	
796.87	5507.7	
797.05	4650.3	
797.22	4655	
797.4	5434.6	
797.57	6473.6	
797.75	3921.9	
797.92	3685.7	
798.1	5763	
798.27	4831.2	
798.45	3188	
798.62	3416	
798.8	5179.3	
798.97	5698.1	
799.15	4128.7	
799.32	3924.6	
799.5	4484.4	
799.67	5266.7	
799.85	4257	
800.02	3080.8	
800.2	4866	
800.37	5158.8	
800.55	4450.9	
800.72	3703.4	
800.9	5664	
801.07	6027.9	
801.25	4975.9	
801.42	4052.2	
801.6	5747.3	
801.77	5407.3	
801.95	3809.2	
802.12	3568.9	
802.29	5443.5	
802.47	5383.4	
802.64	4029	
802.82	3068.5	
802.99	4910.3	
803.17	5799.2	
803.34	3944.4	
803.52	3532.1	
803.69	6445.6	
803.87	4688.5	
804.04	3945.8	
804.21	4040	
804.39	5983.5	
804.56	5042.1	
804.74	3308.8	
804.91	4091.8	
805.09	4878.9	
805.26	4989.5	
805.44	3366.9	
805.61	3747.1	
805.78	5543.9	
805.96	5602.6	
806.13	4104.8	
806.31	4354	
806.48	4464.6	
806.66	5021.6	
806.83	4080.2	
807	3990.8	
807.18	4898.1	
807.35	5309.7	
807.53	3943	
807.7	3217.4	
807.87	6049.7	
808.05	4965.6	
808.22	4405.2	
808.4	3176.4	
808.57	4920.6	
808.74	4543.1	
808.92	3626.3	
809.09	4640.7	
809.27	4783.4	
809.44	5447.6	
809.61	3183.2	
809.79	3603.7	
809.96	6135	
810.14	5683.8	
810.31	3134.8	
810.48	3822.9	
810.66	5065.3	
810.83	5790.3	
811.01	3624.9	
811.18	4056.3	
811.35	5657.9	
811.53	4354.7	
811.7	4436.6	
811.87	4120.5	
812.05	4990.2	
812.22	4865.3	
812.39	3596.2	
812.57	3397.6	
812.74	4961.5	
812.92	6621.8	
813.09	3833.1	
813.26	4147.8	
813.44	6352.1	
813.61	4885.8	
813.78	3166.2	
813.96	4297.3	
814.13	4926	
814.3	4639.3	
814.48	4638.6	
814.65	3837.2	
814.82	6147.3	
815	4769.7	
815.17	3885.7	
815.34	4829.8	
815.52	4821.6	
815.69	4901.5	
815.87	3904.1	
816.04	3373.7	
816.21	4988.9	
816.38	4374.5	
816.56	3831.7	
816.73	3547.8	
816.9	6260.6	
817.08	5716.6	
817.25	3559.4	
817.42	4512.4	
817.6	4551.3	
817.77	4964.3	
817.94	4035.9	
818.12	3487.7	
818.29	4717.2	
818.46	7350.2	
818.64	3654.3	
818.81	3463.1	
818.98	4645.5	
819.16	6717.3	
819.33	4146.5	
819.5	3921.2	
819.67	5345.9	
819.85	5907	
820.02	3885.7	
820.19	4055.7	
820.37	5107.6	
820.54	4739	
820.71	3938.2	
820.88	4969.7	
821.06	5175.9	
821.23	4762.9	
821.4	4026.3	
821.58	3975.8	
821.75	5634	
821.92	5032.5	
822.09	3201.7	
822.27	3330.7	
822.44	5001.8	
822.61	4861.9	
822.79	3216	
822.96	6216.3	
823.13	5481	
823.3	4653	
823.48	3716.4	
823.65	3340.2	
823.82	5632.6	
823.99	4510.3	
824.17	4760.2	
824.34	3451.5	
824.51	6456.6	
824.68	4977.9	
824.86	3579.8	
825.03	3986.7	
825.2	4988.9	
825.37	5922	
825.55	3566.9	
825.72	3864.5	
825.89	6591	
826.06	6113.2	
826.24	3903.4	
826.41	3921.2	
826.58	5993	
826.75	5189.6	
826.92	3031	
827.1	3432.4	
827.27	8242.4	
827.44	6555.5	
827.61	3642.7	
827.79	4429.1	
827.96	4739	
828.13	5062.6	
828.3	3812	
828.47	3242.6	
828.65	5145.9	
828.82	5121.3	
828.99	4919.2	
829.16	4335.5	
829.34	5584.1	
829.51	5380.7	
829.68	3908.2	
829.85	4047.5	
830.02	5904.3	
830.2	5563	
830.37	3043.3	
830.54	4749.2	
830.71	6346	
830.88	4951.3	
831.05	3133.4	
831.23	3573.7	
831.4	6030.6	
831.57	6761	
831.74	3665.2	
831.91	3235.1	
832.09	5174.5	
832.26	5532.2	
832.43	3825.6	
832.6	4235.9	
832.77	5173.2	
832.94	5962.3	
833.12	3051.5	
833.29	3707.5	
833.46	4827.1	
833.63	7013.6	
833.8	4074.1	
833.97	3860.4	
834.15	5620.3	
834.32	5359.5	
834.49	3930.1	
834.66	3991.5	
834.83	5735.7	
835	4683.7	
835.17	3600.3	
835.35	3708.2	
835.52	5477	
835.69	5350	
835.86	3877.5	
836.03	3192.8	
836.2	5575.9	
836.37	5171.1	
836.55	3780.6	
836.72	3594.2	
836.89	5157.5	
837.06	5653.1	
837.23	3899.3	
837.4	4146.5	
837.57	6341.2	
837.75	6979.5	
837.92	3474	
838.09	3634.5	
838.26	5106.3	
838.43	5846.3	
838.6	3996.3	
838.77	3537.5	
838.94	6636.8	
839.11	6382.8	
839.29	3815.4	
839.46	3019.4	
839.63	5516.5	
839.8	5266	
839.97	3691.8	
840.14	3673.4	
840.31	5363.6	
840.48	5572.5	
840.65	3089	
840.82	3770.3	
841	5532.2	
841.17	5483.1	
841.34	3342.3	
841.51	3449.5	
841.68	5494.7	
841.85	5167	
842.02	3533.4	
842.19	2904.7	
842.36	5306.3	
842.53	5334.3	
842.7	3396.2	
842.87	4163.5	
843.05	6970.6	
843.22	5258.5	
843.39	3221.5	
843.56	3489.1	
843.73	5021.6	
843.9	5638.7	
844.07	5505.6	
844.24	4561.5	
844.41	8091.5	
844.58	4815.5	
844.75	3273.3	
844.92	3611.9	
845.09	5543.9	
845.26	5556.8	
845.43	3347.1	
845.6	3544.4	
845.77	5565	
845.94	5272.2	
846.12	3669.3	
846.29	3987.4	
846.46	5776.6	
846.63	5544.5	
846.8	3373	
846.97	3979.2	
847.14	6044.2	
847.31	5477.6	
847.48	3853.6	
847.65	4237.2	
847.82	5793	
847.99	5748	
848.16	4485.7	
848.33	4136.9	
848.5	5121.3	
848.67	6021.7	
848.84	3328.6	
849.01	3490.4	
849.18	4965	
849.35	4627	
849.52	4254.3	
849.69	3324.5	
849.86	5730.2	
850.03	5935.7	
850.2	3347.1	
850.37	4089.8	
850.54	5806	
850.71	5179.3	
850.88	4009.9	
851.05	3312.2	
851.22	5479	
851.39	6031.3	
851.56	3225.6	
851.73	3900.7	
851.9	4894	
852.07	5756.8	
852.24	3784	
852.41	3345	
852.58	5443.5	
852.75	4930.8	
852.92	3820.1	
853.09	3285.6	
853.26	5126.7	
853.43	6006.7	
853.6	3364.8	
853.77	2871.9	
853.94	6095.4	
854.11	4813.4	
854.28	5050.3	
854.44	3618.1	
854.61	6517.3	
854.78	5887.9	
854.95	3327.9	
855.12	4184.7	
855.29	4480.3	
855.46	6233.3	
855.63	3344.3	
855.8	4724	
855.97	5052.3	
856.14	5876.3	
856.31	4743.8	
856.48	3714.3	
856.65	5104.9	
856.82	4809.3	
856.99	3152.5	
857.16	3603.7	
857.33	6727.6	
857.49	5212.1	
857.66	3599.6	
857.83	3923.9	
858	5188.9	
858.17	5438.7	
858.34	3159.3	
858.51	3345.7	
858.68	6161	
858.85	6255.9	
859.02	3885.7	
859.19	4163.5	
859.36	4869.4	
859.52	4940.4	
859.69	3388	
859.86	3917.1	
860.03	4930.8	
860.2	6061.3	
860.37	3056.3	
860.54	3388	
860.71	5759.6	
860.88	6154.8	
861.05	3818.8	
861.21	4232.5	
861.38	6203.3	
861.55	4719.9	
861.72	3053.5	
861.89	3784.6	
862.06	5828.5	
862.23	6244.9	
862.4	3275.4	
862.56	3506.8	
862.73	5701.5	
862.9	5336.3	
863.07	3986	
863.24	3027.6	
863.41	4777.9	
863.58	4924.7	
863.75	3418.7	
863.91	3886.4	
864.08	6122.7	
864.25	5706.3	
864.42	4225.6	
864.59	4726	
864.76	6393.1	
864.93	4907.6	
865.09	3305.4	
865.26	3633.8	
865.43	6037.4	
865.6	6369.2	
865.77	2934.7	
865.94	3312.9	
866.1	6049.7	
866.27	5715.2	
866.44	5049.6	
866.61	3163.4	
866.78	5242.8	
866.95	5654.4	
867.11	3224.9	
867.28	2994.1	
867.45	5872.9	
867.62	4900.1	
867.79	3821.5	
867.96	3293.8	
868.12	4879.6	
868.29	5769.8	
868.46	2935.4	
868.63	4539	
868.8	5992.4	
868.97	5695.4	
869.13	3516.4	
869.3	3454.9	
869.47	5638.7	
869.64	5884.5	
869.81	3364.1	
869.97	3357.3	
870.14	5531.6	
870.31	6154.1	
870.48	3220.8	
870.65	4255.7	
870.81	5147.2	
870.98	5236	
871.15	3787.4	
871.32	3505.4	
871.48	5649	
871.65	6158.2	
871.82	3295.9	
871.99	3702	
872.16	6623.8	
872.32	6100.2	
872.49	3419.4	
872.66	3375.7	
872.83	5720	
872.99	5038.7	
873.16	3866.6	
873.33	3327.9	
873.5	5403.2	
873.67	5409.4	
873.83	3541.6	
874	4566.3	
874.17	5489.9	
874.34	6611.5	
874.5	4320.5	
874.67	4187.4	
874.84	6214.9	
875.01	4839.4	
875.17	4754.7	
875.34	3334.8	
875.51	5389.6	
875.68	6566.5	
875.84	4103.4	
876.01	4891.2	
876.18	5764.3	
876.34	5696.8	
876.51	3403.7	
876.68	3271.3	
876.85	5223	
877.01	6057.9	
877.18	4784.1	
877.35	3337.5	
877.52	5347.9	
877.68	4762.9	
877.85	3227.6	
878.02	3319.1	
878.18	5296.7	
878.35	5085.8	
878.52	2683.5	
878.69	3743	
878.85	5797.8	
879.02	5711.8	
879.19	4756.7	
879.35	3659	
879.52	5664	
879.69	5900.9	
879.86	2905.4	
880.02	3741.6	
880.19	5278.3	
880.36	6458.6	
880.52	3908.9	
880.69	3978.5	
880.86	5835.3	
881.02	5943.9	
881.19	3718.4	
881.36	3661.8	
881.52	5729.5	
881.69	5063.3	
881.86	3637.2	
882.02	3537.5	
882.19	5966.4	
882.36	6962.4	
882.52	3425.6	
882.69	4756.7	
882.86	5537	
883.02	5418.9	
883.19	4074.1	
883.36	3867.9	
883.52	5819	
883.69	6571.9	
883.86	3381.2	
884.02	3050.1	
884.19	5709.7	
884.36	5368.4	
884.52	3820.8	
884.69	3562.1	
884.86	5099.4	
885.02	6373.3	
885.19	3754.6	
885.36	3881.6	
885.52	5345.2	
885.69	5494.7	
885.86	4854.4	
886.02	4276.8	
886.19	5748.6	
886.35	5253.7	
886.52	3694.5	
886.69	4743.8	
886.85	4889.9	
887.02	6087.9	
887.19	6087.9	
887.35	6087.9	
887.52	6087.9	
887.68	6087.9	
887.85	6087.9	
888.02	6087.9	
888.18	6087.9	
888.35	6087.9	
888.51	6087.9	
888.68	6087.9	
888.85	6087.9	
889.01	6087.9	
889.18	6087.9	
889.35	6087.9	
889.51	6087.9	
889.68	6087.9	
889.84	6087.9	
890.01	6087.9	
890.17	6087.9	
890.34	6087.9	
890.51	6087.9	
890.67	6087.9	
890.84	6087.9	
891	6087.9	
891.17	6087.9	
891.34	6087.9	
891.5	6087.9	
891.67	6087.9	
891.83	6087.9	
892	6087.9	
892.16	6087.9	
892.33	6087.9	
892.5	6087.9	
892.66	6087.9	
892.83	6087.9	
892.99	6087.9	
893.16	6087.9	
893.32	6087.9	
893.49	6087.9	
893.65	6087.9	
893.82	6087.9	
893.99	6087.9	
894.15	6087.9	
894.32	6087.9	
894.48	6087.9	
894.65	6087.9	
894.81	6087.9	
894.98	6087.9	
895.14	6087.9	
895.31	6087.9	
895.47	6087.9	
895.64	6087.9	
895.81	6087.9	
895.97	6087.9	
896.14	6087.9	
896.3	6087.9	
896.47	6087.9	
896.63	6087.9	
896.8	6087.9	
896.96	6087.9	
897.13	6087.9	
897.29	6087.9	
897.46	6087.9	
897.62	6087.9	
897.79	6087.9	
897.95	6087.9	
898.12	6087.9	
898.28	6087.9	
898.45	6087.9	
898.61	6087.9	
898.78	6087.9	
898.94	6087.9	
899.11	6087.9	
899.27	6087.9	
899.44	6087.9	
899.6	6087.9	
899.77	6087.9	
899.93	6087.9	
900.1	6087.9	
900.26	6087.9	
900.43	6087.9	
900.59	6087.9	
900.76	6087.9	
900.92	6087.9	
901.09	6087.9	
901.25	6087.9	
901.42	6087.9	
901.58	6087.9	
901.75	6087.9	
901.91	6087.9	
902.07	6087.9	
902.24	6087.9	
902.4	6087.9	
902.57	6087.9	
902.73	6087.9	
902.9	6087.9	
903.06	6087.9	
903.23	6087.9	
903.39	6087.9	
903.56	6087.9	
903.72	6087.9	
903.88	6087.9	
904.05	6087.9	
904.21	6087.9	
904.38	6087.9	
904.54	6087.9	
904.71	6087.9	
904.87	6087.9	
905.03	6087.9	
905.2	6087.9	
905.36	6087.9	
905.53	6087.9	
905.69	6087.9	
905.86	6087.9	
906.02	6087.9	
906.18	6087.9	
906.35	6087.9	
906.51	6087.9	
906.68	6087.9	
906.84	6087.9	
907.01	6087.9	
907.17	6087.9	
907.33	6087.9	
907.5	6087.9	
907.66	6087.9	
907.83	6087.9	
907.99	6087.9	
908.15	6087.9	
908.32	6087.9	
908.48	6087.9	
908.65	6087.9	
908.81	6087.9	
908.97	6087.9	
909.14	6087.9	
909.3	6087.9	
909.47	6087.9	
909.63	6087.9	
909.79	6087.9	
909.96	6087.9	
910.12	6087.9	
910.28	6087.9	
910.45	6087.9	
910.61	6087.9	
910.78	6087.9	
910.94	6087.9	
911.1	6087.9	
911.27	6087.9	
911.43	6087.9	
911.59	6087.9	
911.76	6087.9	
911.92	6087.9	
912.08	6087.9	
912.25	6087.9	
912.41	6087.9	
912.57	6087.9	
912.74	6087.9	
912.9	6087.9	
913.07	6087.9	
913.23	6087.9	
913.39	6087.9	
913.56	6087.9	
913.72	6087.9	
913.88	6087.9	
914.05	6087.9	
914.21	6087.9	
914.37	6087.9	
914.54	6087.9	
914.7	6087.9	
914.86	6087.9	
915.03	6087.9	
915.19	6087.9	
