Wavelength	Intensities	
nm	a.u.	
179.22	1913.1	
179.44	1915.5	
179.65	1910.8	
179.86	1920.3	
180.08	1886.2	
180.29	5031.9	
180.51	3566.9	
180.72	5724.1	
180.94	6658.6	
181.15	3337.5	
181.37	3259	
181.58	5522	
181.79	5962.3	
182.01	3405.1	
182.22	3670	
182.44	5826.5	
182.65	4851	
182.87	4631.1	
183.08	4063.9	
183.29	6140.5	
183.51	5052.3	
183.72	3719.1	
183.94	5420.3	
184.15	5446.9	
184.37	5513.8	
184.58	3213.9	
184.79	4500.8	
185.01	5017.5	
185.22	5800.5	
185.44	4784.1	
185.65	3995.6	
185.86	5336.3	
186.08	4936.3	
186.29	3168.2	
186.51	3423.5	
186.72	5118.6	
186.94	5987.6	
187.15	4000.4	
187.36	4056.3	
187.58	7912	
187.79	5589.6	
188.01	4290.5	
188.22	6688	
188.43	6738.5	
188.65	5806	
188.86	3386	
189.08	4044.1	
189.29	5240.8	
189.5	5259.9	
189.72	3821.5	
189.93	3872	
190.15	5976	
190.36	7164.5	
190.57	4225	
190.79	4022.9	
191	6096.8	
191.22	6082.5	
191.43	4189.5	
191.64	3358	
191.86	6336.4	
192.07	6082.5	
192.29	3592.8	
192.5	3773	
192.71	6001.9	
192.93	5186.1	
193.14	3794.2	
193.35	3812	
193.57	5210.7	
193.78	6119.3	
194	3039.2	
194.21	3678.2	
194.42	4934.9	
194.64	5507	
194.85	4066.6	
195.07	4766.3	
195.28	5537	
195.49	4732.2	
195.71	5039.4	
195.92	3466.5	
196.13	5625.1	
196.35	5750.7	
196.56	5313.1	
196.78	4098	
196.99	7134.4	
197.2	6740.5	
197.42	4657.8	
197.63	4169	
197.84	4893.3	
198.06	5664	
198.27	3741.6	
198.48	5038.7	
198.7	5190.9	
198.91	5319.3	
199.13	4165.6	
199.34	4104.1	
199.55	5862	
199.77	4774.5	
199.98	3629	
200.19	4194.9	
200.41	5253	
200.62	5038.7	
200.83	4301.4	
201.05	4616.1	
201.26	5311.1	
201.47	5051	
201.69	3660.4	
201.9	3494.5	
202.11	5459.2	
202.33	6500.9	
202.54	3928	
202.76	4307.6	
202.97	5575.9	
203.18	5537.7	
203.4	4289.8	
203.61	4222.2	
203.82	5541.1	
204.04	5144.5	
204.25	4184	
204.46	4033.1	
204.68	5467.4	
204.89	5689.9	
205.1	4012	
205.32	3484.3	
205.53	5890	
205.74	6028.5	
205.96	2967.5	
206.17	4266.6	
206.38	5829.2	
206.6	5987.6	
206.81	4646.2	
207.02	3871.3	
207.24	5706.3	
207.45	6173.9	
207.66	3956.7	
207.88	3349.1	
208.09	5659.2	
208.3	5470.1	
208.52	3614	
208.73	3908.9	
208.94	5463.3	
209.15	6208.1	
209.37	3869.3	
209.58	4057	
209.79	5980.1	
210.01	5257.1	
210.22	3107.5	
210.43	3261.7	
210.65	5474.9	
210.86	5926.8	
211.07	3958.7	
211.29	3585.3	
211.5	5887.9	
211.71	5421.7	
211.93	3603.7	
212.14	3547.8	
212.35	5416.2	
212.56	5644.2	
212.78	4141.7	
212.99	3412.6	
213.2	6492.1	
213.42	5190.9	
213.63	3762.8	
213.84	3981.3	
214.06	4860.5	
214.27	4948.6	
214.48	3926	
214.69	4129.4	
214.91	6143.9	
215.12	6272.2	
215.33	4252.9	
215.55	4708.3	
215.76	6836.1	
215.97	5837.4	
216.18	4089.8	
216.4	3988.1	
216.61	5126.1	
216.82	5966.4	
217.04	3675.4	
217.25	3749.8	
217.46	6038.8	
217.67	5871.5	
217.89	3219.4	
218.1	3323.2	
218.31	5516.5	
218.53	5649.7	
218.74	3842	
218.95	3682.9	
219.16	5400.5	
219.38	6414.9	
219.59	3729.4	
219.8	4394.3	
220.01	7067.5	
220.23	5535.7	
220.44	4917.9	
220.65	3568.2	
220.87	5493.3	
221.08	6134.3	
221.29	3324.5	
221.5	4475.5	
221.72	7464.2	
221.93	5160.2	
222.14	4156.7	
222.35	4831.2	
222.57	5487.2	
222.78	5757.5	
222.99	3911.6	
223.2	4287.8	
223.42	5788.9	
223.63	5935	
223.84	3022.8	
224.05	3028.3	
224.27	7037.5	
224.48	6565.1	
224.69	4887.8	
224.9	4153.3	
225.12	5724.1	
225.33	5446.9	
225.54	3287.7	
225.75	3731.4	
225.97	5023	
226.18	5304.2	
226.39	3994.9	
226.6	3674.7	
226.82	5195.7	
227.03	5078.3	
227.24	4096.6	
227.45	3420.8	
227.67	5808	
227.88	6526.2	
228.09	4629.1	
228.3	4711	
228.52	5872.9	
228.73	5429.8	
228.94	3870.7	
229.15	3410.6	
229.36	5358.9	
229.58	5264	
229.79	3815.4	
230	4543.8	
230.21	6466.8	
230.43	5597.8	
230.64	4057	
230.85	4302.8	
231.06	5878.4	
231.28	5933	
231.49	3374.4	
231.7	3919.1	
231.91	5773.2	
232.12	5544.5	
232.34	3475.4	
232.55	3949.2	
232.76	6103.6	
232.97	5669.5	
233.18	3625.6	
233.4	4083.6	
233.61	5692	
233.82	5313.8	
234.03	3785.3	
234.25	3677.5	
234.46	7677.2	
234.67	5544.5	
234.88	4259.8	
235.09	3670	
235.31	5856.5	
235.52	5405.3	
235.73	4136.9	
235.94	3487.7	
236.15	5151.3	
236.37	6723.5	
236.58	3657	
236.79	3962.1	
237	5809.4	
237.21	4960.9	
237.43	4233.2	
237.64	3386.7	
237.85	10053	
238.06	5028.4	
238.27	4369.7	
238.48	3399.6	
238.7	5798.5	
238.91	5236.7	
239.12	3973.7	
239.33	3947.8	
239.54	5033.2	
239.76	5403.2	
239.97	3938.2	
240.18	3902.7	
240.39	6869.6	
240.6	5704.3	
240.82	4122.6	
241.03	3388.7	
241.24	5500.8	
241.45	6331	
241.66	3606.5	
241.87	4272.1	
242.09	6213.5	
242.3	6576.7	
242.51	4294.6	
242.72	3975.8	
242.93	5915.2	
243.14	5390.9	
243.36	4630.5	
243.57	4988.2	
243.78	6449.7	
243.99	5865.4	
244.2	3979.9	
244.41	3610.6	
244.63	5004.6	
244.84	5782.8	
245.05	4261.1	
245.26	3955.3	
245.47	5793	
245.68	6047.7	
245.9	5401.9	
246.11	4154	
246.32	5326.8	
246.53	5767.1	
246.74	6468.9	
246.95	3308.8	
247.16	4956.1	
247.38	5440.8	
247.59	3300	
247.8	3953.9	
248.01	5229.1	
248.22	5414.8	
248.43	3654.3	
248.64	3862.5	
248.86	4823	
249.07	5156.8	
249.28	3470.6	
249.49	4102.1	
249.7	6034	
249.91	6189	
250.12	3276.1	
250.34	3350.5	
250.55	5595.1	
250.76	5465.3	
250.97	4044.1	
251.18	4100.7	
251.39	6146.6	
251.6	5684.5	
251.81	4149.9	
252.03	4140.3	
252.24	5179.3	
252.45	6012.8	
252.66	3398.9	
252.87	4407.2	
253.08	5472.9	
253.29	7213.6	
253.5	3459.7	
253.72	4823.6	
253.93	5317.9	
254.14	6475.7	
254.35	3750.5	
254.56	3883.6	
254.77	5755.5	
254.98	5061.9	
255.19	3737.5	
255.41	4783.4	
255.62	5573.9	
255.83	6175.3	
256.04	4215.4	
256.25	4244.1	
256.46	6512.5	
256.67	5135.6	
256.88	4118.5	
257.09	4541	
257.31	5197.1	
257.52	5162.2	
257.73	5139.7	
257.94	3767.6	
258.15	5269.4	
258.36	5492.7	
258.57	4773.1	
258.78	2989.4	
258.99	5978	
259.2	5270.1	
259.41	3767.6	
259.63	3887.7	
259.84	6364.4	
260.05	6769.9	
260.26	5029.8	
260.47	3654.9	
260.68	6081.8	
260.89	5362.9	
261.1	4574.5	
261.31	3549.8	
261.52	6075.6	
261.73	6419	
261.95	4888.5	
262.16	4334.2	
262.37	6216.3	
262.58	6300.9	
262.79	4897.4	
263	3831.1	
263.21	5563	
263.42	5017.5	
263.63	3941.7	
263.84	3762.1	
264.05	6062	
264.26	6425.8	
264.47	4731.5	
264.69	4119.1	
264.9	6193.1	
265.11	5700.9	
265.32	3649.5	
265.53	3789.4	
265.74	5626.5	
265.95	4923.3	
266.16	4026.3	
266.37	4485.7	
266.58	5582.1	
266.79	5280.3	
267	3696.6	
267.21	3441.3	
267.42	5012.1	
267.63	5442.8	
267.84	3984	
268.06	3396.9	
268.27	5899.5	
268.48	6277.7	
268.69	3865.9	
268.9	4614.8	
269.11	6266.8	
269.32	4940.4	
269.53	3945.8	
269.74	3671.3	
269.95	5836.7	
270.16	4796.3	
270.37	3967.6	
270.58	4611.3	
270.79	5259.2	
271	6032.6	
271.21	4267.3	
271.42	3975.8	
271.63	5575.9	
271.84	5119.2	
272.05	3127.2	
272.26	3561.4	
272.47	5474.9	
272.68	5734.3	
272.89	3753.9	
273.11	4390.2	
273.32	5308.3	
273.53	6424.5	
273.74	4265.2	
273.95	4238.6	
274.16	6142.5	
274.37	5511.1	
274.58	4288.4	
274.79	3448.1	
275	5640.1	
275.21	6191	
275.42	5203.2	
275.63	4507.6	
275.84	5695.4	
276.05	7275.8	
276.26	4177.9	
276.47	3896.6	
276.68	5298.1	
276.89	6537.1	
277.1	4489.1	
277.31	3480.9	
277.52	5745.9	
277.73	5887.9	
277.94	3431.7	
278.15	3801.7	
278.36	5771.2	
278.57	5122	
278.78	3788.1	
278.99	4315.8	
279.2	5077.6	
279.41	5057.8	
279.62	4944.5	
279.83	3510.2	
280.04	6736.5	
280.25	5031.2	
280.46	4956.8	
280.67	3977.8	
280.88	5100.8	
281.09	6199.2	
281.3	4137.6	
281.51	5349.3	
281.72	5161.6	
281.93	6031.3	
282.14	3708.9	
282.35	4027	
282.56	5947.3	
282.77	5971.2	
282.98	3817.4	
283.19	4693.9	
283.4	7324.9	
283.61	5414.1	
283.82	3407.8	
284.03	4929.5	
284.24	5599.8	
284.45	6126.8	
284.66	4949.9	
284.87	4734.2	
285.08	6095.4	
285.29	6197.2	
285.5	3332.7	
285.71	3869.3	
285.92	6090.7	
286.12	6802	
286.33	4910.3	
286.54	3861.8	
286.75	6000.5	
286.96	5323.4	
287.17	3573	
287.38	4836.6	
287.59	5101.5	
287.8	5063.9	
288.01	3848.8	
288.22	4427	
288.43	6132.3	
288.64	4990.9	
288.85	4597	
289.06	4375.8	
289.27	5999.9	
289.48	6406	
289.69	4899.4	
289.9	4419.5	
290.11	6167.8	
290.32	5136.3	
290.53	4710.3	
290.74	4300.1	
290.94	5993	
291.15	6005.3	
291.36	3724.6	
291.57	4377.9	
291.78	5194.3	
291.99	4921.3	
292.2	3556	
292.41	4358.8	
292.62	6036	
292.83	5815.5	
293.04	5397.1	
293.25	3579.2	
293.46	5200.5	
293.67	6135	
293.88	3699.3	
294.09	3601.7	
294.29	4997.7	
294.5	5637.4	
294.71	3955.3	
294.92	3790.8	
295.13	5251.7	
295.34	6577.4	
295.55	3333.4	
295.76	3431.7	
295.97	5893.4	
296.18	6715.3	
296.39	3529.3	
296.6	3732.8	
296.81	5562.3	
297.01	5928.9	
297.22	3889.8	
297.43	3654.9	
297.64	5107.6	
297.85	5095.3	
298.06	3073.3	
298.27	3343	
298.48	5565.7	
298.69	5182	
298.9	4040	
299.11	3660.4	
299.31	5000.5	
299.52	5025	
299.73	4283	
299.94	4218.1	
300.15	5497.4	
300.36	5102.9	
300.57	4241.3	
300.78	4245.4	
300.99	5359.5	
301.2	5609.4	
301.4	3658.4	
301.61	4012	
301.82	5870.2	
302.03	5930.2	
302.24	4534.9	
302.45	3530.7	
302.66	5739.8	
302.87	6336.4	
303.08	3721.2	
303.29	5075.5	
303.49	5231.2	
303.7	5530.9	
303.91	3289	
304.12	4812	
304.33	4987.5	
304.54	5628.5	
304.75	3800.3	
304.96	3560.7	
305.16	5846.3	
305.37	6561	
305.58	3187.3	
305.79	3383.9	
306	5757.5	
306.21	4915.1	
306.42	3717.7	
306.63	5765	
306.83	5347.9	
307.04	6098.9	
307.25	4115.1	
307.46	4060.4	
307.67	4664.6	
307.88	6004.6	
308.09	3651.5	
308.29	3788.7	
308.5	5574.6	
308.71	6134.3	
308.92	3918.4	
309.13	3593.5	
309.34	5400.5	
309.55	5401.2	
309.75	4670.7	
309.96	4237.9	
310.17	5917.3	
310.38	5134.3	
310.59	4496.7	
310.8	3519.1	
311.01	6146.6	
311.21	5368.4	
311.42	3542.3	
311.63	3719.1	
311.84	5184.8	
312.05	5571.8	
312.26	4135.5	
312.46	4547.9	
312.67	5312.4	
312.88	5040.7	
313.09	3586.7	
313.3	3493.8	
313.51	6365.8	
313.71	6672.3	
313.92	3518.4	
314.13	3831.1	
314.34	5646.9	
314.55	5410.1	
314.76	4620.9	
314.96	4041.3	
315.17	5547.3	
315.38	5950	
315.59	3657	
315.8	3411.9	
316.01	6408.1	
316.21	6441.5	
316.42	3490.4	
316.63	3983.3	
316.84	5290.6	
317.05	6242.9	
317.26	4213.4	
317.46	3741.6	
317.67	5367.7	
317.88	5838.1	
318.09	4605.2	
318.3	3336.8	
318.5	5228.5	
318.71	5795.1	
318.92	5823.1	
319.13	4218.1	
319.34	6039.5	
319.54	6173.9	
319.75	3377.1	
319.96	3198.2	
320.17	5907	
320.38	6049	
320.58	3254.2	
320.79	3914.4	
321	6124.1	
321.21	6211.5	
321.42	3992.9	
321.62	3318.4	
321.83	5100.8	
322.04	5487.9	
322.25	3822.9	
322.46	3569.6	
322.66	5601.2	
322.87	5808	
323.08	4427.7	
323.29	3547.1	
323.5	6596.5	
323.7	5030.5	
323.91	4910.3	
324.12	4402.5	
324.33	5521.3	
324.53	5813.5	
324.74	4252.9	
324.95	4464.6	
325.16	4840.7	
325.37	5296.7	
325.57	3624.9	
325.78	3710.9	
325.99	5550	
326.2	5025	
326.4	5357.5	
326.61	3317.7	
326.82	5487.2	
327.03	5589.6	
327.24	5147.2	
327.44	4922	
327.65	5759.6	
327.86	4619.5	
328.07	4276.8	
328.27	3486.3	
328.48	6223.8	
328.69	5011.4	
328.9	5236	
329.1	3867.9	
329.31	5396.4	
329.52	6335	
329.73	3607.8	
329.93	4042.7	
330.14	5496.7	
330.35	5830.6	
330.56	5970.5	
330.76	4479.6	
330.97	5350.7	
331.18	5667.4	
331.39	4008.6	
331.59	3211.9	
331.8	6085.2	
332.01	6208.8	
332.22	3677.5	
332.42	4210.6	
332.63	5599.1	
332.84	5241.4	
333.05	4084.3	
333.25	3612.6	
333.46	5253.7	
333.67	5561.6	
333.88	3767.6	
334.08	4196.3	
334.29	7307.2	
334.5	6223.8	
334.7	3504.8	
334.91	5130.8	
335.12	5054.4	
335.33	5970.5	
335.53	4012.7	
335.74	5941.8	
335.95	5202.5	
336.16	5082.4	
336.36	3994.9	
336.57	4643.4	
336.78	4999.1	
336.98	6107	
337.19	4911.7	
337.4	3900.7	
337.61	6612.9	
337.81	5019.6	
338.02	3653.6	
338.23	4762.9	
338.43	6242.9	
338.64	5144.5	
338.85	3603.1	
339.05	4752	
339.26	6378.7	
339.47	4930.8	
339.68	3593.5	
339.88	5363.6	
340.09	5710.4	
340.3	5979.4	
340.5	4201.1	
340.71	3229	
340.92	4939	
341.13	6223.8	
341.33	3515	
341.54	4327.4	
341.75	5722	
341.95	5309	
342.16	4077.5	
342.37	4386.1	
342.57	5057.8	
342.78	5478.3	
342.99	4501.4	
343.19	3242.6	
343.4	5964.4	
343.61	5756.8	
343.81	3862.5	
344.02	3553.9	
344.23	5936.4	
344.43	6422.4	
344.64	4485.7	
344.85	4360.1	
345.06	5780.1	
345.26	6177.4	
345.47	4207.2	
345.68	4911	
345.88	4771.1	
346.09	5993.7	
346.3	4237.2	
346.5	3216.7	
346.71	5469.4	
346.92	5208.7	
347.12	3284.3	
347.33	4209.3	
347.54	6091.3	
347.74	6485.9	
347.95	4190.1	
348.16	3083.6	
348.36	5220.3	
348.57	4988.9	
348.78	4042	
348.98	4442	
349.19	5437.4	
349.39	4983.4	
349.6	3387.3	
349.81	3634.5	
350.01	5721.3	
350.22	5200.5	
350.43	3972.4	
350.63	4833.9	
350.84	5539.8	
351.05	5298.8	
351.25	3681.6	
351.46	3252.2	
351.67	6064	
351.87	5173.9	
352.08	3865.9	
352.29	4386.7	
352.49	5988.3	
352.7	5673.6	
352.9	3488.4	
353.11	4444.1	
353.32	6670.2	
353.52	5280.3	
353.73	3459	
353.94	4451.6	
354.14	5788.9	
354.35	5670.1	
354.55	3582.6	
354.76	3976.5	
354.97	5704.3	
355.17	5524.1	
355.38	3370.3	
355.59	4728.8	
355.79	5159.5	
356	5627.1	
356.2	3958	
356.41	3398.3	
356.62	4850.3	
356.82	5401.9	
357.03	4260.5	
357.24	3828.3	
357.44	5201.8	
357.65	5238.7	
357.85	5149.3	
358.06	3999	
358.27	4913.1	
358.47	5134.9	
358.68	3300.6	
358.88	4244.1	
359.09	5653.8	
359.3	6125.5	
359.5	4881.7	
359.71	4369	
359.91	6617.7	
360.12	5892.7	
360.33	4200.4	
360.53	4620.2	
360.74	5139.7	
360.94	5275.6	
361.15	4388.1	
361.36	3574.4	
361.56	5965.7	
361.77	5412.1	
361.97	4844.8	
362.18	3904.1	
362.38	6024.4	
362.59	5005.9	
362.8	3482.9	
363	3371	
363.21	4781.3	
363.41	5474.2	
363.62	4091.2	
363.83	5130.8	
364.03	5606	
364.24	6571.2	
364.44	5225.1	
364.65	5074.2	
364.85	5315.8	
365.06	5188.9	
365.27	3707.5	
365.47	3759.4	
365.68	6344.6	
365.88	5226.4	
366.09	4080.2	
366.29	3805.8	
366.5	5557.5	
366.71	5978.7	
366.91	5090.6	
367.12	4285	
367.32	6631.3	
367.53	5864	
367.73	4239.3	
367.94	5228.5	
368.14	5777.3	
368.35	6718.7	
368.56	4214	
368.76	3974.4	
368.97	5911.1	
369.17	7608.9	
369.38	3712.3	
369.58	4055.7	
369.79	4960.2	
369.99	6283.2	
370.2	5049.6	
370.4	4092.5	
370.61	5682.4	
370.82	6827.9	
371.02	4020.8	
371.23	3317	
371.43	4878.3	
371.64	6161.7	
371.84	3973.1	
372.05	5231.2	
372.25	7583.6	
372.46	5915.2	
372.66	4024.9	
372.87	4003.1	
373.07	5942.5	
373.28	7670.3	
373.48	5057.1	
373.69	4713.1	
373.9	5436	
374.1	5433.9	
374.31	4984.1	
374.51	4524	
374.72	6279.1	
374.92	5117.2	
375.13	5125.4	
375.33	4263.9	
375.54	5842.9	
375.74	5276.3	
375.95	4385.4	
376.15	5611.4	
376.36	5802.6	
376.56	5665.4	
376.77	4394.3	
376.97	4881	
377.18	6947.4	
377.38	5896.1	
377.59	5143.8	
377.79	3893.9	
378	5668.1	
378.2	6163	
378.41	3934.1	
378.61	3918.4	
378.82	6212.2	
379.02	5300.1	
379.23	4132.8	
379.43	5294.7	
379.64	6230.6	
379.84	5888.6	
380.05	3913	
380.25	3889.8	
380.46	6014.9	
380.66	5570.5	
380.87	5249.6	
381.07	5722.7	
381.28	6617	
381.48	5951.4	
381.69	3943	
381.89	3982.6	
382.1	4942.4	
382.3	6133.7	
382.51	5169.8	
382.71	6033.3	
382.91	5945.3	
383.12	6543.3	
383.32	4323.9	
383.53	4569.7	
383.73	5834	
383.94	5624.4	
384.14	4435.9	
384.35	3604.4	
384.55	5579.3	
384.76	5956.2	
384.96	4384	
385.17	4644.8	
385.37	5915.9	
385.58	5226.4	
385.78	4717.8	
385.98	3588.7	
386.19	5437.4	
386.39	5894.7	
386.6	4093.2	
386.8	4380.6	
387.01	5925.5	
387.21	5995.8	
387.42	4814.8	
387.62	5414.1	
387.83	5251.7	
388.03	5978	
388.23	4384.7	
388.44	5262.6	
388.64	4927.4	
388.85	5171.1	
389.05	4747.2	
389.26	5405.3	
389.46	6991.8	
389.67	6464.1	
389.87	4706.9	
390.07	4812	
390.28	5617.6	
390.48	5204.6	
390.69	3969	
390.89	4256.4	
391.1	5403.9	
391.3	6344.6	
391.5	5478.3	
391.71	6075.6	
391.91	6008.1	
392.12	7150.1	
392.32	5599.8	
392.53	4788.8	
392.73	5488.6	
392.93	5640.1	
393.14	4347.8	
393.34	5230.5	
393.55	6179.4	
393.75	5584.8	
393.95	4429.8	
394.16	4339.6	
394.36	5365	
394.57	6109.1	
394.77	3870.7	
394.98	4412.7	
395.18	5302.2	
395.38	5593	
395.59	5180	
395.79	4130.8	
396	5492	
396.2	5989.6	
396.4	4990.2	
396.61	4950.6	
396.81	6163.7	
397.02	5446.9	
397.22	5192.3	
397.42	5270.1	
397.63	6159.6	
397.83	5319.9	
398.04	4098.7	
398.24	4567.7	
398.44	5896.1	
398.65	5001.1	
398.85	3915.7	
399.05	4168.3	
399.26	5298.8	
399.46	7064.8	
399.67	4459.1	
399.87	4198.3	
400.07	5757.5	
400.28	6057.9	
400.48	4235.9	
400.69	5386.2	
400.89	6292.7	
401.09	6736.5	
401.3	4138.9	
401.5	5269.4	
401.7	6977.4	
401.91	7184.3	
402.11	4493.2	
402.32	4736.3	
402.52	6277.7	
402.72	6270.2	
402.93	4927.4	
403.13	3745.1	
403.33	7020.4	
403.54	5783.5	
403.74	4634.6	
403.94	5564.3	
404.15	5829.2	
404.35	7040.9	
404.56	4392.2	
404.76	6250.4	
404.96	6266.1	
405.17	6049	
405.37	5712.5	
405.57	4878.9	
405.78	6246.3	
405.98	5760.9	
406.18	4468.7	
406.39	5332.9	
406.59	6311.2	
406.79	5907.7	
407	4223.6	
407.2	4462.5	
407.4	6346	
407.61	6569.2	
407.81	4335.5	
408.01	6298.9	
408.22	5271.5	
408.42	7364.5	
408.62	5468.8	
408.83	4881.7	
409.03	5890.6	
409.23	5714.5	
409.44	4981.3	
409.64	5303.6	
409.84	6787	
410.05	6723.5	
410.25	5092.6	
410.45	4792.2	
410.66	6135	
410.86	8692.3	
411.06	5225.1	
411.27	5137.7	
411.47	8361.9	
411.67	6328.2	
411.88	5401.9	
412.08	5608	
412.28	7000	
412.49	7486.7	
412.69	5135.6	
412.89	5171.1	
413.09	7279.2	
413.3	7149.5	
413.5	5208	
413.7	4744.5	
413.91	6389	
414.11	7244.3	
414.31	4984.8	
414.52	5432.6	
414.72	6924.9	
414.92	6759	
415.12	5044.1	
415.33	5556.8	
415.53	7223.2	
415.73	7415.7	
415.94	5885.9	
416.14	5368.4	
416.34	6201.2	
416.55	5902.2	
416.75	6620.4	
416.95	5987.6	
417.15	7195.2	
417.36	7962.5	
417.56	6756.9	
417.76	5810.1	
417.97	7595.2	
418.17	7359	
418.37	5360.2	
418.57	5423.7	
418.78	6999.3	
418.98	6709.1	
419.18	6230.6	
419.38	6243.6	
419.59	6739.9	
419.79	6384.9	
419.99	5311.1	
420.2	5743.2	
420.4	7234.1	
420.6	7411.6	
420.8	5188.2	
421.01	5079	
421.21	7036.1	
421.41	7288	
421.61	5616.2	
421.82	5236.7	
422.02	6580.8	
422.22	7590.5	
422.42	6178	
422.63	5819	
422.83	6810.2	
423.03	7916.1	
423.23	5808	
423.44	4724.7	
423.64	6824.5	
423.84	6538.5	
424.04	5212.1	
424.25	4914.4	
424.45	7809.6	
424.65	7690.8	
424.85	4685.1	
425.06	5393	
425.26	7664.9	
425.46	6619	
425.66	5739.1	
425.87	5460.6	
426.07	7428	
426.27	7322.9	
426.47	5623.7	
426.67	4973.8	
426.88	7781.6	
427.08	7266.9	
427.28	5839.4	
427.48	4924	
427.69	6159.6	
427.89	6778.1	
428.09	5887.2	
428.29	4950.6	
428.5	7560.4	
428.7	7067.5	
428.9	4820.9	
429.1	5461.9	
429.3	6911.2	
429.51	7368.6	
429.71	5233.2	
429.91	5996.5	
430.11	7218.4	
430.31	7468.3	
430.52	5444.9	
430.72	5778.7	
430.92	7823.2	
431.12	7323.5	
431.32	5177.3	
431.53	5578	
431.73	6224.5	
431.93	7922.2	
432.13	5047.6	
432.33	4945.2	
432.54	6631.3	
432.74	7062.8	
432.94	4874.2	
433.14	5999.9	
433.34	7239.6	
433.55	6695.5	
433.75	5887.2	
433.95	7754.3	
434.15	7017.7	
434.35	6675	
434.56	5079.6	
434.76	4622.9	
434.96	7008.1	
435.16	7187	
435.36	4982.7	
435.56	6126.8	
435.77	6538.5	
435.97	6741.2	
436.17	6830.7	
436.37	6024.4	
436.57	6599.9	
436.78	6407.4	
436.98	5952.1	
437.18	6686.6	
437.38	7284.6	
437.58	6842.9	
437.78	6763.8	
437.99	5439.4	
438.19	7408.9	
438.39	8879.3	
438.59	5370.5	
438.79	4840.7	
438.99	8002.1	
439.2	6816.3	
439.4	5007.3	
439.6	4911.7	
439.8	7211.6	
440	8316.1	
440.2	6019.7	
440.4	6165.8	
440.61	7538.6	
440.81	8167.3	
441.01	5189.6	
441.21	6032	
441.41	7877.9	
441.61	7497.6	
441.81	6371.2	
442.02	7531.7	
442.22	8537.3	
442.42	7654.6	
442.62	5344.5	
442.82	5320.6	
443.02	8012.3	
443.22	7025.2	
443.43	5764.3	
443.63	5212.1	
443.83	6830.7	
444.03	7049.8	
444.23	6524.1	
444.43	6141.2	
444.63	7197.9	
444.83	8448.6	
445.04	5427.1	
445.24	6720.8	
445.44	7577.5	
445.64	7683.3	
445.84	6202.6	
446.04	6172.6	
446.24	6888	
446.44	8017.8	
446.65	5382.7	
446.85	5772.5	
447.05	7344.7	
447.25	7864.2	
447.45	5899.5	
447.65	5242.1	
447.85	7255.3	
448.05	6918.7	
448.25	6327.5	
448.46	6103.6	
448.66	7287.4	
448.86	6916	
449.06	5104.2	
449.26	6307.7	
449.46	7690.1	
449.66	6623.1	
449.86	5791	
450.06	5724.8	
450.26	6845.7	
450.47	7479.2	
450.67	6004.6	
450.87	6400.6	
451.07	7531.1	
451.27	7395.2	
451.47	5313.8	
451.67	5967.8	
451.87	6952.2	
452.07	8245.1	
452.27	5545.9	
452.47	5573.9	
452.67	7215.7	
452.88	7975.5	
453.08	4932.2	
453.28	7066.2	
453.48	8497	
453.68	7212.3	
453.88	5518.6	
454.08	5720.7	
454.28	7647.8	
454.48	7301.7	
454.68	6288.6	
454.88	6854.6	
455.08	7765.2	
455.28	7518.1	
455.48	5380	
455.68	5991.7	
455.89	8307.9	
456.09	7885.4	
456.29	5773.9	
456.49	5791	
456.69	8155.7	
456.89	7380.2	
457.09	6357.6	
457.29	6687.3	
457.49	7759.1	
457.69	7897.7	
457.89	6077.7	
458.09	5526.1	
458.29	7482.6	
458.49	8166.6	
458.69	6595.8	
458.89	5892.7	
459.09	8470.4	
459.29	8534.6	
459.49	6077.7	
459.69	6912.6	
459.9	7961.1	
460.1	7445	
460.3	5915.2	
460.5	5706.3	
460.7	8000	
460.9	7717.4	
461.1	5384.8	
461.3	6774.7	
461.5	8639.7	
461.7	8327	
461.9	5917.9	
462.1	6395.8	
462.3	7699.7	
462.5	8322.3	
462.7	5948.7	
462.9	6030.6	
463.1	9387.9	
463.3	9009.7	
463.5	6193.7	
463.7	7275.1	
463.9	7920.2	
464.1	8231.5	
464.3	6391.7	
464.5	6638.1	
464.7	8662.2	
464.9	8292.9	
465.1	7976.8	
465.3	6965.8	
465.5	8935.3	
465.7	8931.2	
465.9	7241.6	
466.1	7091.4	
466.3	8734.6	
466.5	8600.1	
466.7	7908.6	
466.9	6836.8	
467.1	8489.5	
467.3	9518.3	
467.5	7948.8	
467.7	6730.3	
467.9	9749.7	
468.1	10670	
468.3	7641.7	
468.5	8030.8	
468.7	8571.4	
468.9	8443.1	
469.1	7021.1	
469.3	7780.2	
469.5	10548	
469.7	8019.8	
469.9	7545.4	
470.1	6758.3	
470.3	8523	
470.5	8553	
470.7	8048.5	
470.9	6867.5	
471.1	8295	
471.3	8794	
471.5	6675.7	
471.69	8746.2	
471.89	8217.1	
472.09	7664.9	
472.29	7576.8	
472.49	7864.2	
472.69	7962.5	
472.89	8786.5	
473.09	6592.4	
473.29	6754.2	
473.49	8037.6	
473.69	8256	
473.89	7761.1	
474.09	6910.5	
474.29	9545.6	
474.49	9272.5	
474.69	7690.8	
474.89	7038.9	
475.09	8268.3	
475.29	8187.8	
475.49	6518	
475.69	6675.7	
475.88	9886.2	
476.08	8607.6	
476.28	6415.6	
476.48	6899.6	
476.68	9069.1	
476.88	8869.8	
477.08	6694.1	
477.28	7083.9	
477.48	8292.9	
477.68	8991.3	
477.88	6410.8	
478.08	6869.6	
478.28	9360.6	
478.48	8480	
478.67	6905.1	
478.87	6329.6	
479.07	9084.1	
479.27	8500.4	
479.47	7129.7	
479.67	7130.3	
479.87	8869.1	
480.07	9519	
480.27	6390.3	
480.47	8133.8	
480.67	8585.8	
480.87	9222.7	
481.06	6654.5	
481.26	7503.1	
481.46	8536.6	
481.66	8510.7	
481.86	7181.5	
482.06	8252.6	
482.26	8254	
482.46	9289.6	
482.66	7129	
482.86	6668.9	
483.05	8545.5	
483.25	8014.4	
483.45	9695.1	
483.65	7122.8	
483.85	8234.2	
484.05	8538.7	
484.25	7575.4	
484.45	8069	
484.65	9394.7	
484.84	9406.3	
485.04	7021.8	
485.24	7011.6	
485.44	9696.4	
485.64	7888.1	
485.84	6282.5	
486.04	7780.9	
486.24	8366.6	
486.44	8789.9	
486.63	6197.2	
486.83	7055.3	
487.03	8292.9	
487.23	8506.6	
487.43	6434.7	
487.63	8933.2	
487.83	8548.9	
488.02	9641.8	
488.22	7376.1	
488.42	8052.6	
488.62	9482.1	
488.82	8371.4	
489.02	7077.8	
489.22	7050.5	
489.41	9323	
489.61	8925.7	
489.81	6733	
490.01	6859.3	
490.21	9290.3	
490.41	9905.3	
490.61	6736.5	
490.8	6891.4	
491	8724.3	
491.2	7993.9	
491.4	7613	
491.6	6638.8	
491.8	8701.1	
491.99	8893	
492.19	6449.7	
492.39	6907.8	
492.59	9351	
492.79	9448.6	
492.99	7785	
493.18	6844.3	
493.38	9398.1	
493.58	10161	
493.78	7604.8	
493.98	7231.4	
494.18	9164	
494.37	8660.2	
494.57	7850.5	
494.77	7737.2	
494.97	9277.3	
495.17	9624.8	
495.37	7342.7	
495.56	7574.8	
495.76	9869.2	
495.96	9404.3	
496.16	8563.2	
496.36	7533.8	
496.55	9647.3	
496.75	9211.1	
496.95	7957	
497.15	7696.9	
497.35	9666.4	
497.54	9550.4	
497.74	7502.4	
497.94	9353.1	
498.14	10389	
498.34	10135	
498.53	7245	
498.73	8228.1	
498.93	8985.1	
499.13	9622.7	
499.33	7944.8	
499.52	8404.9	
499.72	9710.1	
499.92	10008	
500.12	7529	
500.32	7793.2	
500.51	10013	
500.71	9692.4	
500.91	8622.6	
501.11	8221.2	
501.31	9793.4	
501.5	10284	
501.7	8926.4	
501.9	7837.6	
502.1	9663.7	
502.29	9920.4	
502.49	8398.7	
502.69	8877.9	
502.89	9807.7	
503.09	9828.9	
503.28	7323.5	
503.48	7549.5	
503.68	8913.4	
503.88	8959.2	
504.07	8502.5	
504.27	7918.8	
504.47	9339.4	
504.67	9633	
504.86	8377.6	
505.06	8012.3	
505.26	9131.9	
505.46	11030	
505.65	7845.1	
505.85	8179.6	
506.05	8933.2	
506.25	9557.9	
506.44	7201.3	
506.64	8165.9	
506.84	8994	
507.04	9806.4	
507.23	7416.4	
507.43	8038.3	
507.63	10932	
507.83	9121.7	
508.02	8013.7	
508.22	7631.4	
508.42	11185	
508.62	8850	
508.81	7887.4	
509.01	8382.3	
509.21	8730.5	
509.4	9024.7	
509.6	8041.7	
509.8	7346.1	
510	9024	
510.19	10521	
510.39	7458.7	
510.59	7510.6	
510.79	8850.6	
510.98	10296	
511.18	7630.7	
511.38	7701.7	
511.57	9716.2	
511.77	9734.7	
511.97	8381.7	
512.17	7366.5	
512.36	9693	
512.56	9627.5	
512.76	7468.3	
512.95	7205.4	
513.15	9893.7	
513.35	8469.7	
513.55	8312.7	
513.74	7518.1	
513.94	9909.4	
514.14	9112.8	
514.33	8477.2	
514.53	8204.8	
514.73	9173.5	
514.92	9467.8	
515.12	7869	
515.32	7466.9	
515.51	9579.7	
515.71	10012	
515.91	9310.1	
516.11	7634.1	
516.3	11379	
516.5	9141.4	
516.7	8320.9	
516.89	8838.4	
517.09	9233.6	
517.29	9169.4	
517.48	8587.8	
517.68	7987.1	
517.88	8981	
518.07	9602.9	
518.27	8611	
518.47	7463.5	
518.66	10253	
518.86	8861.6	
519.06	7314	
519.25	7795.9	
519.45	9224.1	
519.65	10780	
519.84	8421.2	
520.04	9294.4	
520.24	11170	
520.43	9929.2	
520.63	8135.9	
520.83	7926.3	
521.02	9065.7	
521.22	9759.9	
521.42	8482.7	
521.61	9007	
521.81	9412.5	
522.01	9579.7	
522.2	8424.7	
522.4	8119.5	
522.6	10103	
522.79	8923	
522.99	8265.6	
523.18	7639.6	
523.38	9905.3	
523.58	9914.9	
523.77	9613.2	
523.97	7617.1	
524.17	11835	
524.36	10952	
524.56	9057.5	
524.76	8699.8	
524.95	9945.6	
525.15	9547.6	
525.34	8478.6	
525.54	8564.6	
525.74	10226	
525.93	9327.8	
526.13	9736.7	
526.33	8485.4	
526.52	10824	
526.72	10172	
526.91	9743.6	
527.11	9026.1	
527.31	10912	
527.5	11351	
527.7	9010.4	
527.89	7992.5	
528.09	9731.9	
528.29	10335	
528.48	9447.3	
528.68	9050	
528.87	10651	
529.07	10718	
529.27	8916.9	
529.46	8405.5	
529.66	10262	
529.85	10732	
530.05	8233.5	
530.25	8991.9	
530.44	11826	
530.64	10372	
530.83	8789.9	
531.03	9002.2	
531.23	10840	
531.42	10745	
531.62	9919	
531.81	9030.2	
532.01	11024	
532.21	11524	
532.4	8716.2	
532.6	9269.1	
532.79	12178	
532.99	11138	
533.18	9306.7	
533.38	10318	
533.58	10686	
533.77	11517	
533.97	9249.3	
534.16	10064	
534.36	11783	
534.55	10654	
534.75	10254	
534.95	9308.7	
535.14	11525	
535.34	10746	
535.53	8901.2	
535.73	10904	
535.92	12168	
536.12	10946	
536.31	9086.2	
536.51	10372	
536.71	11291	
536.9	10753	
537.1	9159.9	
537.29	9415.9	
537.49	11662	
537.68	10740	
537.88	9891	
538.07	9042.5	
538.27	11032	
538.46	12076	
538.66	8880.7	
538.86	9414.5	
539.05	10972	
539.25	11452	
539.44	9703.3	
539.64	9295.7	
539.83	10822	
540.03	11852	
540.22	9071.1	
540.42	9239.1	
540.61	11105	
540.81	11161	
541	9807	
541.2	10436	
541.39	10531	
541.59	11015	
541.78	10116	
541.98	9105.3	
542.18	10318	
542.37	10260	
542.57	9471.2	
542.76	9974.3	
542.96	10311	
543.15	11101	
543.35	9500.5	
543.54	8813.1	
543.74	11348	
543.93	10841	
544.13	9361.9	
544.32	10574	
544.52	11069	
544.71	10307	
544.91	8471.8	
545.1	9764	
545.3	10505	
545.49	11077	
545.69	8495.7	
545.88	9040.4	
546.08	12089	
546.27	11660	
546.47	9683.5	
546.66	8843.1	
546.86	11360	
547.05	11949	
547.24	9142.1	
547.44	8913.4	
547.63	10189	
547.83	11524	
548.02	9267.7	
548.22	9580.4	
548.41	9957.2	
548.61	11408	
548.8	8813.8	
549	8839	
549.19	10651	
549.39	10981	
549.58	8481.3	
549.78	9111.4	
549.97	11083	
550.17	10549	
550.36	9937.4	
550.55	11158	
550.75	10479	
550.94	11465	
551.14	8742.8	
551.33	9171.5	
551.53	9884.9	
551.72	10918	
551.92	9340.1	
552.11	8880.7	
552.31	10880	
552.5	11058	
552.69	10695	
552.89	8588.5	
553.08	10912	
553.28	10575	
553.47	9071.1	
553.67	10226	
553.86	11667	
554.06	9906	
554.25	8108.6	
554.44	8738.7	
554.64	12297	
554.83	11860	
555.03	8659.5	
555.22	9099.1	
555.42	11103	
555.61	10846	
555.8	9000.1	
556	9221.3	
556.19	9989.3	
556.39	11213	
556.58	8994	
556.78	8929.8	
556.97	10664	
557.16	10403	
557.36	10253	
557.55	8602.8	
557.75	9594.1	
557.94	11611	
558.13	8726.4	
558.33	8446.5	
558.52	11303	
558.72	10123	
558.91	8618.5	
559.1	8813.8	
559.3	9831.6	
559.49	9581.8	
559.69	8013.7	
559.88	9169.4	
560.07	10559	
560.27	11021	
560.46	9263	
560.66	9565.4	
560.85	10406	
561.04	9566.1	
561.24	8561.9	
561.43	8636.3	
561.63	9796.8	
561.82	10168	
562.01	10035	
562.21	9022.7	
562.4	10570	
562.59	11627	
562.79	8811	
562.98	8519.5	
563.18	10498	
563.37	12028	
563.56	9405.6	
563.76	8396.7	
563.95	9930.6	
564.14	9809.8	
564.34	8832.2	
564.53	8576.2	
564.73	10467	
564.92	10995	
565.11	9026.8	
565.31	8371.4	
565.5	11047	
565.69	9995.5	
565.89	8606.9	
566.08	8871.1	
566.27	10953	
566.47	11415	
566.66	9411.8	
566.85	8187.1	
567.05	10454	
567.24	9867.1	
567.44	8507.9	
567.63	9953.8	
567.82	10757	
568.02	10499	
568.21	8514.1	
568.4	8938	
568.6	10317	
568.79	10342	
568.98	8238.3	
569.18	8404.9	
569.37	10287	
569.56	12396	
569.76	8759.8	
569.95	9787.9	
570.14	10559	
570.34	10512	
570.53	8267.6	
570.72	8129.1	
570.91	11093	
571.11	10124	
571.3	8680	
571.49	9570.8	
571.69	10100	
571.88	9753.8	
572.07	9211.8	
572.27	9288.9	
572.46	9699.2	
572.65	10812	
572.85	8363.9	
573.04	8791.2	
573.23	11037	
573.43	10236	
573.62	8144.1	
573.81	8957.8	
574	10346	
574.2	10138	
574.39	8606.2	
574.58	8770.8	
574.78	11176	
574.97	10477	
575.16	9110.7	
575.36	9297.1	
575.55	10633	
575.74	10903	
575.93	8236.9	
576.13	9409.7	
576.32	10146	
576.51	10773	
576.71	8538.7	
576.9	9926.5	
577.09	11045	
577.28	10604	
577.48	9114.1	
577.67	8058.8	
577.86	10238	
578.05	10545	
578.25	8731.2	
578.44	8939.4	
578.63	10344	
578.83	11719	
579.02	8148.9	
579.21	9783.1	
579.4	10516	
579.6	10241	
579.79	8989.9	
579.98	11178	
580.17	10878	
580.37	11050	
580.56	8433.5	
580.75	9219.3	
580.94	11451	
581.14	11282	
581.33	9615.9	
581.52	8534.6	
581.71	10804	
581.91	11534	
582.1	8328.4	
582.29	8979.7	
582.48	10406	
582.68	10426	
582.87	9525.8	
583.06	9029.5	
583.25	10814	
583.45	10768	
583.64	9798.2	
583.83	10589	
584.02	10372	
584.21	10846	
584.41	9685.5	
584.6	8953.7	
584.79	10421	
584.98	11238	
585.18	8447.9	
585.37	8383.7	
585.56	10009	
585.75	10921	
585.94	8682.7	
586.14	9397.4	
586.33	11413	
586.52	10355	
586.71	9134.6	
586.91	8896.4	
587.1	9709.4	
587.29	10843	
587.48	8609	
587.67	8570.1	
587.87	10520	
588.06	10708	
588.25	9916.3	
588.44	9179	
588.63	10151	
588.83	10770	
589.02	8332.5	
589.21	8148.2	
589.4	9697.8	
589.59	9489.6	
589.78	7398.6	
589.98	7623.9	
590.17	9046.6	
590.36	9638.4	
590.55	6886.6	
590.74	7865.6	
590.94	10978	
591.13	9539.4	
591.32	7572	
591.51	7093.5	
591.7	10004	
591.89	9451.4	
592.09	7243.7	
592.28	7718.1	
592.47	8691.6	
592.66	10656	
592.85	7232.1	
593.05	7495.6	
593.24	9283.4	
593.43	10162	
593.62	7610.3	
593.81	8097.7	
594	9451.4	
594.19	9667.8	
594.39	7547.4	
594.58	7479.2	
594.77	9764	
594.96	10346	
595.15	7396.6	
595.34	8105.9	
595.54	9835.7	
595.73	8806.3	
595.92	6820.4	
596.11	7956.4	
596.3	10236	
596.49	8904.6	
596.68	7707.2	
596.88	8191.9	
597.07	10031	
597.26	8739.4	
597.45	7245.7	
597.64	8661.5	
597.83	9028.1	
598.02	9815.2	
598.22	7409.6	
598.41	8144.1	
598.6	9536	
598.79	8929.1	
598.98	7456	
599.17	8462.9	
599.36	9565.4	
599.55	10845	
599.74	9698.5	
599.94	9379.7	
600.13	10199	
600.32	8974.9	
600.51	7195.2	
600.7	7475.8	
600.89	10890	
601.08	10968	
601.27	7261.4	
601.47	8251.9	
601.66	10200	
601.85	10857	
602.04	8010.3	
602.23	8320.9	
602.42	9123.7	
602.61	9794.8	
602.8	7965.2	
602.99	7673.1	
603.18	9575.6	
603.37	9777	
603.57	8386.4	
603.76	8934.6	
603.95	10559	
604.14	10152	
604.33	7869	
604.52	8187.1	
604.71	9835	
604.9	9406.3	
605.09	8789.9	
605.28	8529.8	
605.47	10520	
605.66	10180	
605.86	8405.5	
606.05	7840.3	
606.24	10449	
606.43	8955.8	
606.62	8230.8	
606.81	8983.8	
607	10265	
607.19	9585.2	
607.38	7529	
607.57	7914	
607.76	9269.1	
607.95	8813.1	
608.14	8299.7	
608.33	8888.9	
608.52	9301.2	
608.72	10252	
608.91	7446.4	
609.1	7296.9	
609.29	9421.3	
609.48	8897.7	
609.67	8400.1	
609.86	7369.3	
610.05	8963.3	
610.24	9389.3	
610.43	7318.1	
610.62	6910.5	
610.81	10490	
611	10318	
611.19	7389.8	
611.38	8207.6	
611.57	9699.2	
611.76	10953	
611.95	7207.5	
612.14	7023.2	
612.33	9517.6	
612.52	8979	
612.71	7748.1	
612.9	6920.1	
613.09	8493.6	
613.28	10935	
613.47	7466.2	
613.66	8404.9	
613.85	9658.9	
614.04	9126.4	
614.24	7570	
614.43	6750.8	
614.62	9697.8	
614.81	9668.5	
615	8142.7	
615.19	8213	
615.38	8967.4	
615.57	9402.2	
615.76	8023.9	
615.95	9126.4	
616.14	9744.9	
616.33	9346.9	
616.52	8357.8	
616.71	8653.4	
616.9	9669.8	
617.09	9602.2	
617.28	7666.9	
617.47	9011.1	
617.66	8791.2	
617.85	8774.9	
618.04	8701.8	
618.22	8102.4	
618.41	9116.9	
618.6	10118	
618.79	8069.7	
618.98	7701	
619.17	10476	
619.36	8685.4	
619.55	7804.8	
619.74	7935.2	
619.93	9783.1	
620.12	9089.6	
620.31	8490.2	
620.5	8643.8	
620.69	10277	
620.88	10764	
621.07	9374.9	
621.26	8353.7	
621.45	9940.2	
621.64	9877.4	
621.83	8470.4	
622.02	7656.7	
622.21	9904.7	
622.4	9671.9	
622.59	9086.2	
622.78	8846.5	
622.97	9250	
623.16	10389	
623.35	8428.8	
623.54	7562.5	
623.72	9497.1	
623.91	9587.2	
624.1	8690.9	
624.29	7367.9	
624.48	10895	
624.67	9929.2	
624.86	8550.3	
625.05	7668.3	
625.24	10872	
625.43	9254.1	
625.62	10347	
625.81	7825.3	
626	10258	
626.19	9524.4	
626.38	8563.2	
626.56	7987.8	
626.75	9254.1	
626.94	10116	
627.13	8512	
627.32	7279.2	
627.51	9855.5	
627.7	11411	
627.89	7245.7	
628.08	8533.2	
628.27	9072.5	
628.46	9219.3	
628.65	7522.9	
628.83	7303.7	
629.02	9854.8	
629.21	9063.6	
629.4	8069	
629.59	8301.8	
629.78	9075.9	
629.97	10150	
630.16	8361.2	
630.35	7828.7	
630.54	10665	
630.72	10234	
630.91	7793.2	
631.1	8368	
631.29	9718.3	
631.48	9856.2	
631.67	8480	
631.86	7874.4	
632.05	9307.3	
632.24	9360.6	
632.42	7552.2	
632.61	8240.3	
632.8	9507.4	
632.99	9129.2	
633.18	8320.9	
633.37	8687.5	
633.56	9716.2	
633.75	9545.6	
633.93	8189.8	
634.12	7967.3	
634.31	10488	
634.5	10225	
634.69	8052.6	
634.88	8421.2	
635.07	9520.3	
635.25	10088	
635.44	8948.3	
635.63	9175.6	
635.82	9420.7	
636.01	8959.9	
636.2	8826.1	
636.39	8301.8	
636.57	10595	
636.76	10228	
636.95	7731.1	
637.14	9263.6	
637.33	9907.4	
637.52	10879	
637.7	7459.4	
637.89	8477.2	
638.08	9374.2	
638.27	10781	
638.46	8655.4	
638.65	9011.1	
638.83	10873	
639.02	9222	
639.21	8509.3	
639.4	9028.8	
639.59	9764	
639.78	9205.6	
639.96	7778.9	
640.15	7724.9	
640.34	9526.5	
640.53	9732.6	
640.72	7400	
640.91	7863.5	
641.09	8998.8	
641.28	10411	
641.47	7713.3	
641.66	8593.3	
641.85	9662.3	
642.03	9940.8	
642.22	8388.5	
642.41	7826.7	
642.6	9030.2	
642.79	8400.8	
642.97	7600.7	
643.16	8315.4	
643.35	8959.2	
643.54	8785.1	
643.73	7452.6	
643.91	8328.4	
644.1	8439	
644.29	9239.8	
644.48	7442.3	
644.67	7422.5	
644.85	8727.1	
645.04	8966.7	
645.23	6978.8	
645.42	7273.7	
645.6	8456.1	
645.79	9680.7	
645.98	7235.5	
646.17	6152.8	
646.36	8114.1	
646.54	8824	
646.73	7957	
646.92	6666.1	
647.11	8292.2	
647.29	9495.7	
647.48	6802.7	
647.67	6559.6	
647.86	9615.2	
648.05	9721	
648.23	7181.5	
648.42	8531.2	
648.61	9060.2	
648.8	8766.7	
648.98	6781.5	
649.17	7131	
649.36	8431.5	
649.55	7811.6	
649.73	6777.4	
649.92	7699	
650.11	8340	
650.3	8583	
650.48	7049.8	
650.67	6784.9	
650.86	8858.1	
651.05	7774.1	
651.23	6967.2	
651.42	6882.5	
651.61	8248.5	
651.79	8518.9	
651.98	7150.8	
652.17	6818.4	
652.36	8822.6	
652.54	7897.7	
652.73	6866.8	
652.92	6564.4	
653.11	8783.1	
653.29	8845.2	
653.48	6049.7	
653.67	7094.2	
653.85	8697	
654.04	9691	
654.23	7281.2	
654.42	6752.2	
654.6	7963.9	
654.79	8680	
654.98	6235.4	
655.16	6861.4	
655.35	7648.5	
655.54	7497.6	
655.73	6276.3	
655.91	6315.3	
656.1	8766.7	
656.29	7551.5	
656.47	5897.5	
656.66	7672.4	
656.85	7863.5	
657.03	7969.3	
657.22	6451.1	
657.41	6514.6	
657.59	8036.2	
657.78	7850.5	
657.97	6216.3	
658.16	6995.2	
658.34	8765.3	
658.53	9169.4	
658.72	7914.7	
658.9	8380.3	
659.09	8089.5	
659.28	8222.6	
659.46	6634.1	
659.65	6641.6	
659.84	7936.6	
660.02	8509.3	
660.21	6480.5	
660.4	6535.8	
660.58	9047.2	
660.77	8279.9	
660.96	7198.6	
661.14	6103.6	
661.33	9495.7	
661.52	9356.5	
661.7	5991.7	
661.89	9932.6	
662.08	7921.5	
662.26	7428	
662.45	6450.4	
662.64	6577.4	
662.82	8625.4	
663.01	7781.6	
663.2	6511.9	
663.38	7266.9	
663.57	8553.7	
663.75	8372.1	
663.94	6784.9	
664.13	8286.8	
664.31	7840.3	
664.5	8673.1	
664.69	6961.7	
664.87	7775.5	
665.06	7615	
665.25	8443.8	
665.43	7965.9	
665.62	7925	
665.8	8739.4	
665.99	7914.7	
666.18	6879.8	
666.36	6914.6	
666.55	8606.2	
666.74	8567.3	
666.92	6352.8	
667.11	8181	
667.29	7912.7	
667.48	8686.1	
667.67	7692.9	
667.85	6862.1	
668.04	7978.2	
668.22	8030.8	
668.41	6906.4	
668.6	7034.1	
668.78	7826	
668.97	8122.2	
669.15	7311.9	
669.34	6150.7	
669.53	7869.7	
669.71	8072.4	
669.9	6308.4	
670.08	7064.1	
670.27	7766.6	
670.46	8473.8	
670.64	7280.5	
670.83	7529.7	
671.01	7677.2	
671.2	8338.6	
671.38	6402	
671.57	6360.3	
671.76	9060.9	
671.94	9594.7	
672.13	6350.8	
672.31	7404.1	
672.5	8511.4	
672.69	7861.5	
672.87	6524.1	
673.06	6715.3	
673.24	8322.9	
673.43	7888.1	
673.61	7205.4	
673.8	6726.9	
673.98	8402.1	
674.17	8758.5	
674.36	7303.7	
674.54	7179.5	
674.73	8240.3	
674.91	8554.4	
675.1	6936.5	
675.28	6504.3	
675.47	8179.6	
675.65	8658.8	
675.84	6791.7	
676.03	7084.6	
676.21	7841.7	
676.4	7318.1	
676.58	7606.8	
676.77	7252.5	
676.95	9369.5	
677.14	7811.6	
677.32	6384.2	
677.51	6219	
677.69	8645.2	
677.88	7441	
678.06	6292	
678.25	6401.3	
678.44	8166.6	
678.62	7839.6	
678.81	6048.3	
678.99	7208.2	
679.18	8961.9	
679.36	8536.6	
679.55	6697.5	
679.73	7342	
679.92	8501.1	
680.1	7870.3	
680.29	8056	
680.47	6708.5	
680.66	7809.6	
680.84	8585.1	
681.03	6060.6	
681.21	7200	
681.4	7836.9	
681.58	7688.1	
681.77	6475.7	
681.95	6464.1	
682.14	8774.9	
682.32	9099.8	
682.51	7341.3	
682.69	6182.8	
682.88	7687.4	
683.06	8477.9	
683.25	7067.5	
683.43	7606.8	
683.62	8032.1	
683.8	8482.7	
683.99	7632.8	
684.17	6759	
684.36	9306.7	
684.54	7800	
684.73	5842.2	
684.91	6043.6	
685.1	8039	
685.28	7407.5	
685.46	6602.7	
685.65	6655.2	
685.83	8160.5	
686.02	7649.2	
686.2	6056.5	
686.39	6254.5	
686.57	7278.5	
686.76	8970.1	
686.94	6172.6	
687.13	6386.9	
687.31	8150.2	
687.5	7656	
687.68	5831.2	
687.86	7071	
688.05	9523.1	
688.23	7169.9	
688.42	7202	
688.6	6280.4	
688.79	7669.6	
688.97	7675.8	
689.16	6853.2	
689.34	5732.9	
689.52	8405.5	
689.71	8663.6	
689.89	7079.1	
690.08	6324.1	
690.26	7978.9	
690.45	7837.6	
690.63	7166.5	
690.81	6459.3	
691	7604.1	
691.18	7585.7	
691.37	6507.8	
691.55	8869.1	
691.74	7470.3	
691.92	9671.9	
692.1	6651.8	
692.29	6015.6	
692.47	7778.9	
692.66	7117.4	
692.84	6244.9	
693.02	7075	
693.21	7284.6	
693.39	7830.7	
693.58	7010.9	
693.76	6511.9	
693.94	9164	
694.13	8985.8	
694.31	6484.6	
694.5	7741.3	
694.68	7851.9	
694.86	8196	
695.05	7028.6	
695.23	7059.3	
695.42	8606.9	
695.6	11011	
695.78	7572.7	
695.97	6555.5	
696.15	8672.5	
696.34	7976.2	
696.52	6466.1	
696.7	7276.4	
696.89	8397.4	
697.07	7760.4	
697.25	7139.2	
697.44	8783.7	
697.62	8257.4	
697.81	8675.9	
697.99	6793.1	
698.17	7313.3	
698.36	7624.6	
698.54	8380.3	
698.72	7158.3	
698.91	6186.2	
699.09	7939.3	
699.28	7808.9	
699.46	6894.8	
699.64	6803.4	
699.83	7724.3	
700.01	9130.5	
700.19	7638.9	
700.38	6090.7	
700.56	9156.5	
700.74	7993.9	
700.93	6530.3	
701.11	7552.2	
701.29	8657.4	
701.48	9761.3	
701.66	6836.8	
701.84	6934.4	
702.03	8269.7	
702.21	8845.2	
702.39	6479.8	
702.58	7133.8	
702.76	8634.9	
702.94	8826.7	
703.13	6505.7	
703.31	9043.1	
703.49	7929.7	
703.68	9447.3	
703.86	6634.1	
704.04	7742.7	
704.23	8546.9	
704.41	8933.2	
704.59	6855.2	
704.78	8138.6	
704.96	9770.2	
705.14	9106.6	
705.33	6735.8	
705.51	7629.4	
705.69	8436.9	
705.87	9382.4	
706.06	7902.4	
706.24	6715.3	
706.42	8924.4	
706.61	9148.3	
706.79	7922.9	
706.97	6793.8	
707.16	8241	
707.34	8933.9	
707.52	8053.3	
707.7	7157	
707.89	8454.7	
708.07	8157.1	
708.25	8034.9	
708.44	8200.7	
708.62	8463.6	
708.8	9641.2	
708.98	8361.2	
709.17	7245	
709.35	8897.1	
709.53	8907.3	
709.72	6973.3	
709.9	7133.8	
710.08	9161.9	
710.26	9223.4	
710.45	8578.3	
710.63	7221.8	
710.81	8733.2	
710.99	8837.7	
711.18	7912.7	
711.36	7387.7	
711.54	8478.6	
711.72	9321	
711.91	7323.5	
712.09	6743.3	
712.27	8671.1	
712.45	9245.2	
712.64	7494.9	
712.82	6561.7	
713	8011.7	
713.18	8077.9	
713.37	6452.5	
713.55	7706.5	
713.73	8697.7	
713.91	7232.7	
714.1	6459.3	
714.28	5964.4	
714.46	8143.4	
714.64	7285.3	
714.83	5240.1	
715.01	6136.4	
715.19	7262.1	
715.37	6584.9	
715.55	5750.7	
715.74	6069.5	
715.92	8235.6	
716.1	6132.3	
716.28	7264.1	
716.47	6221.7	
716.65	6821.1	
716.83	7051.8	
717.01	6056.5	
717.19	6128.2	
717.38	9261.6	
717.56	6644.3	
717.74	6509.8	
717.92	5595.7	
718.1	8178.9	
718.29	7447.1	
718.47	5423.7	
718.65	6171.9	
718.83	8266.3	
719.01	8221.9	
719.2	5487.9	
719.38	6675	
719.56	7928.4	
719.74	9475.3	
719.92	6019.7	
720.11	7108.5	
720.29	7836.9	
720.47	6819.7	
720.65	5414.1	
720.83	6294.8	
721.02	7122.2	
721.2	6887.3	
721.38	6311.8	
721.56	5535	
721.74	6377.4	
721.92	6605.4	
722.11	6801.3	
722.29	6636.8	
722.47	7869.7	
722.65	7027.3	
722.83	5581.4	
723.01	6595.1	
723.2	7100.3	
723.38	7521.5	
723.56	4976.6	
723.74	6225.1	
723.92	6547.4	
724.1	7742	
724.29	5494	
724.47	6815	
724.65	6726.9	
724.83	6673.6	
725.01	5404.6	
725.19	6409.5	
725.37	6752.2	
725.56	6810.2	
725.74	5347.2	
725.92	5599.8	
726.1	6664.8	
726.28	6900.3	
726.46	6052.4	
726.64	5677.7	
726.83	6916.7	
727.01	7331	
727.19	5286.5	
727.37	6134.3	
727.55	7167.9	
727.73	7640.3	
727.91	5314.5	
728.09	5186.1	
728.28	7731.8	
728.46	8383	
728.64	6488.6	
728.82	6478.4	
729	9067	
729.18	8257.4	
729.36	5722	
729.54	8150.9	
729.72	9543.5	
729.91	7724.9	
730.09	7840.3	
730.27	6685.9	
730.45	7688.8	
730.63	8472.4	
730.81	7287.4	
730.99	6388.3	
731.17	9045.9	
731.35	7382.2	
731.53	6883.9	
731.71	6444.3	
731.9	8587.1	
732.08	8790.6	
732.26	6696.2	
732.44	6393.1	
732.62	8893.6	
732.8	8326.4	
732.98	7141.9	
733.16	6100.2	
733.34	8289.5	
733.52	7049.1	
733.7	6673	
733.88	6988.4	
734.07	8175.5	
734.25	7924.3	
734.43	6168.5	
734.61	7809.6	
734.79	9580.4	
734.97	7862.2	
735.15	6363	
735.33	6707.1	
735.51	8234.2	
735.69	7821.2	
735.87	7910.6	
736.05	7021.8	
736.23	8082	
736.41	7916.8	
736.59	6815	
736.77	7027.3	
736.95	8611	
737.13	8073.1	
737.32	6577.4	
737.5	6791.7	
737.68	9190.6	
737.86	8048.5	
738.04	6255.2	
738.22	8307.2	
738.4	7728.4	
738.58	8039	
738.76	7055.3	
738.94	5930.9	
739.12	7937.9	
739.3	7806.9	
739.48	7743.4	
739.66	7471	
739.84	8242.4	
740.02	8272.4	
740.2	6082.5	
740.38	6497.5	
740.56	8582.4	
740.74	7511.3	
740.92	7200.7	
741.1	7018.4	
741.28	8079.9	
741.46	7963.2	
741.64	6660.7	
741.82	7231.4	
742	8089.5	
742.18	7982.3	
742.36	6859.3	
742.54	6424.5	
742.72	8695	
742.9	7308.5	
743.08	7282.6	
743.26	6027.9	
743.44	8843.1	
743.62	8664.3	
743.8	7391.1	
743.98	6450.4	
744.16	8368	
744.34	7970	
744.52	7241.6	
744.7	7270.3	
744.88	8499.1	
745.06	8000.7	
745.24	7351.5	
745.42	7479.2	
745.6	8581	
745.78	8198.7	
745.96	6014.2	
746.14	6488.6	
746.32	9447.3	
746.5	8476.5	
746.68	7021.1	
746.86	6407.4	
747.03	9045.9	
747.21	7202.7	
747.39	6909.2	
747.57	6414.9	
747.75	8073.1	
747.93	8535.3	
748.11	6363	
748.29	6319.3	
748.47	9807	
748.65	7805.5	
748.83	7221.8	
749.01	6931.7	
749.19	8263.6	
749.37	7487.4	
749.55	6816.3	
749.73	6876.4	
749.91	7935.2	
750.09	7658.7	
750.26	6884.6	
750.44	6246.3	
750.62	8021.2	
750.8	7965.9	
750.98	6043.6	
751.16	6435.4	
751.34	8062.2	
751.52	7395.9	
751.7	7251.9	
751.88	6085.9	
752.06	8642.4	
752.24	8360.5	
752.42	6008.7	
752.59	6322.8	
752.77	7874.4	
752.95	9237	
753.13	7160.4	
753.31	6433.4	
753.49	7567.9	
753.67	8087.4	
753.85	6767.9	
754.03	6304.3	
754.21	8311.3	
754.38	8661.5	
754.56	6382.2	
754.74	5354.8	
754.92	7354.9	
755.1	8049.9	
755.28	5179.3	
755.46	4915.1	
755.64	8218.5	
755.82	8201.4	
755.99	4758.8	
756.17	4780	
756.35	5255.8	
756.53	6924.9	
756.71	3480.9	
756.89	4483.7	
757.07	6496.8	
757.25	5560.9	
757.42	5239.4	
757.6	6251.8	
757.78	6896.2	
757.96	5774.6	
758.14	5055.8	
758.32	4509.6	
758.5	5203.2	
758.67	6139.8	
758.85	4840	
759.03	4924.7	
759.21	6277	
759.39	5629.9	
759.57	4319.2	
759.75	5522	
759.92	7032.7	
760.1	6297.5	
760.28	6013.5	
760.46	6335.1	
760.64	6116.6	
760.82	5894.7	
760.99	6051.7	
761.17	5175.9	
761.35	7205.4	
761.53	6104.3	
761.71	5481	
761.89	6217	
762.06	7223.2	
762.24	6748.7	
762.42	5719.3	
762.6	5454.4	
762.78	6846.4	
762.96	7474.4	
763.13	6260	
763.31	5980.1	
763.49	7779.6	
763.67	6901.7	
763.85	6853.2	
764.02	7465.5	
764.2	8092.9	
764.38	7257.3	
764.56	5781.4	
764.74	6805.4	
764.91	8231.5	
765.09	7058	
765.27	5498.1	
765.45	5296.7	
765.63	8286.1	
765.8	8127.7	
765.98	5018.2	
766.16	5367	
766.34	6582.2	
766.52	6294.1	
766.69	6326.2	
766.87	5169.1	
767.05	7023.9	
767.23	7761.8	
767.41	5498.8	
767.58	5780.1	
767.76	7496.9	
767.94	7616.4	
768.12	5552.7	
768.29	6350.8	
768.47	6927.6	
768.65	7767.3	
768.83	5079	
769	6331.6	
769.18	6466.8	
769.36	7221.1	
769.54	6140.5	
769.72	5137	
769.89	7514	
770.07	7649.8	
770.25	5442.1	
770.43	6716.7	
770.6	8234.2	
770.78	8731.2	
770.96	5591	
771.14	6268.1	
771.31	7404.8	
771.49	6667.5	
771.67	4697.4	
771.85	4912.4	
772.02	5812.1	
772.2	6654.5	
772.38	5638.7	
772.55	5188.9	
772.73	6851.8	
772.91	6637.5	
773.09	5475.6	
773.26	5580.7	
773.44	6860.7	
773.62	6425.2	
773.8	4951.3	
773.97	4702.8	
774.15	6814.3	
774.33	6370.5	
774.5	4897.4	
774.68	5171.8	
774.86	6957.6	
775.04	6385.6	
775.21	4872.1	
775.39	4809.3	
775.57	6690	
775.74	7095.5	
775.92	4595.6	
776.1	4571.1	
776.27	6543.3	
776.45	7929.7	
776.63	4820.9	
776.81	4268.6	
776.98	6150.7	
777.16	7354.3	
777.34	4926.7	
777.51	5255.1	
777.69	6131.6	
777.87	5930.9	
778.04	4951.3	
778.22	5666	
778.4	5875.6	
778.57	6599.9	
778.75	4108.9	
778.93	4328.7	
779.1	5664.7	
779.28	5514.5	
779.46	4121.2	
779.64	4646.8	
779.81	6747.4	
779.99	7639.6	
780.17	5455.8	
780.34	5639.4	
780.52	6094.1	
780.69	6388.3	
780.87	4797	
781.05	4436.6	
781.22	6141.2	
781.4	6227.9	
781.58	4575.8	
781.75	3685.7	
781.93	6027.9	
782.11	5584.8	
782.28	5423.7	
782.46	4536.3	
782.64	5337	
782.81	6290	
782.99	4595	
783.17	4583.4	
783.34	6227.9	
783.52	5341.1	
783.69	4747.9	
783.87	5677.7	
784.05	5421.7	
784.22	5425.8	
784.4	5616.9	
784.58	4818.9	
784.75	6410.1	
784.93	5456.5	
785.1	4485.1	
785.28	5130.2	
785.46	6048.3	
785.63	5401.9	
785.81	4372.4	
785.99	4256.4	
786.16	5528.2	
786.34	6004	
786.51	4276.2	
786.69	4719.2	
786.87	5106.3	
787.04	5638.7	
787.22	3723.2	
787.39	5188.9	
787.57	5302.2	
787.75	6513.9	
787.92	5231.9	
788.1	5255.8	
788.27	5397.8	
788.45	5117.9	
788.63	4939.7	
788.8	3568.9	
788.98	5894.1	
789.15	5020.9	
789.33	3692.5	
789.5	4482.3	
789.68	6380.1	
789.86	6425.8	
790.03	4928.1	
790.21	4164.9	
790.38	6290.7	
790.56	5382.7	
790.73	4048.8	
790.91	4070.7	
791.09	5245.5	
791.26	6117.3	
791.44	4337.6	
791.61	3736.9	
791.79	5241.4	
791.96	5379.3	
792.14	3804.4	
792.32	3353.9	
792.49	5354.1	
792.67	5410.1	
792.84	3921.9	
793.02	3688.4	
793.19	5702.9	
793.37	6548.7	
793.54	3457.7	
793.72	3870	
793.89	6653.9	
794.07	5321.3	
794.25	4405.9	
794.42	3506.8	
794.6	6350.8	
794.77	5980.8	
794.95	4730.8	
795.12	4125.3	
795.3	5224.4	
795.47	5949.3	
795.65	4495.3	
795.82	4347.8	
796	5091.3	
796.17	7120.8	
796.35	4156.7	
796.52	4898.7	
796.7	5746.6	
796.87	5888.6	
797.05	5152.7	
797.22	5104.2	
797.4	5886.5	
797.57	6917.4	
797.75	4322.6	
797.92	4117.8	
798.1	6232.7	
798.27	5170.4	
798.45	3391.4	
798.62	3784	
798.8	5565.7	
798.97	6075.6	
799.15	4579.3	
799.32	4304.8	
799.5	4719.2	
799.67	5611.4	
799.85	4617.5	
800.02	3390.8	
800.2	5153.4	
800.37	5517.2	
800.55	4869.4	
800.72	4006.5	
800.9	5969.1	
801.07	6518	
801.25	5421.7	
801.42	4422.2	
801.6	6085.9	
801.77	5770.5	
801.95	3945.8	
802.12	3956.7	
802.29	5748	
802.47	5698.1	
802.64	4354	
802.82	3265.8	
802.99	5158.2	
803.17	6199.9	
803.34	4258.4	
803.52	3784.6	
803.69	6931	
803.87	4953.4	
804.04	4216.1	
804.21	4323.9	
804.39	6355.5	
804.56	5353.4	
804.74	3598.3	
804.91	4459.8	
805.09	5117.2	
805.26	5327.4	
805.44	3700	
805.61	4063.2	
805.78	5814.9	
805.96	5930.2	
806.13	4410.6	
806.31	4696	
806.48	4697.4	
806.66	5284.4	
806.83	4347.2	
807	4276.2	
807.18	5082.4	
807.35	5556.8	
807.53	4220.2	
807.7	3335.5	
807.87	6421.1	
808.05	5225.1	
808.22	4696	
808.4	3380.5	
808.57	5189.6	
808.74	4803.2	
808.92	3859.1	
809.09	4959.5	
809.27	4971.1	
809.44	5738.4	
809.61	3414	
809.79	3809.2	
809.96	6393.8	
810.14	5993	
810.31	3309.5	
810.48	4112.3	
810.66	5213.4	
810.83	6049.7	
811.01	3877.5	
811.18	4659.1	
811.35	5980.1	
811.53	4600.4	
811.7	4732.2	
811.87	4412	
812.05	5150	
812.22	5074.9	
812.39	3710.9	
812.57	3641.3	
812.74	5144.5	
812.92	6937.8	
813.09	4010.6	
813.26	4456.4	
813.44	6701	
813.61	5091.3	
813.78	3381.9	
813.96	4597.7	
814.13	5190.9	
814.3	4814.1	
814.48	4969.1	
814.65	4122.6	
814.82	6443.6	
815	4997.7	
815.17	4181.3	
815.34	5139.7	
815.52	5033.2	
815.69	5096.7	
815.87	4141	
816.04	3604.4	
816.21	5220.3	
816.38	4547.2	
816.56	4050.9	
816.73	3777.8	
816.9	6586.3	
817.08	6032.6	
817.25	3743.7	
817.42	4760.8	
817.6	4748.6	
817.77	5226.4	
817.94	4216.1	
818.12	3703.4	
818.29	4900.1	
818.46	7746.8	
818.64	3912.3	
818.81	3699.3	
818.98	4845.5	
819.16	7115.3	
819.33	4585.4	
819.5	4237.9	
819.67	5633.3	
819.85	6271.6	
820.02	4127.3	
820.19	4354	
820.37	5443.5	
820.54	4900.8	
820.71	4197	
820.88	5272.8	
821.06	5449.6	
821.23	4943.8	
821.4	4209.9	
821.58	4285	
821.75	5911.1	
821.92	5341.8	
822.09	3485.6	
822.27	3689.8	
822.44	5174.5	
822.61	5093.3	
822.79	3459	
822.96	6667.5	
823.13	5716.6	
823.3	4906.9	
823.48	4005.8	
823.65	3564.8	
823.82	5885.2	
823.99	4644.8	
824.17	5107	
824.34	3635.1	
824.51	6931.7	
824.68	5234.6	
824.86	3760.8	
825.03	4281.6	
825.2	5218.9	
825.37	6326.2	
825.55	3733.4	
825.72	4241.3	
825.89	6929.6	
826.06	6353.5	
826.24	4153.3	
826.41	4144.4	
826.58	6381.5	
826.75	5571.8	
826.92	3187.3	
827.1	3601	
827.27	8706.6	
827.44	6905.8	
827.61	3850.2	
827.79	4681.7	
827.96	4911	
828.13	5316.5	
828.3	4036.5	
828.47	3367.5	
828.65	5347.9	
828.82	5360.2	
828.99	5332.2	
829.16	4663.9	
829.34	5831.9	
829.51	5556.1	
829.68	4248.2	
829.85	4388.8	
830.02	6061.3	
830.2	5876.3	
830.37	3220.8	
830.54	5099.4	
830.71	6646.3	
830.88	5109.7	
831.05	3295.2	
831.23	3818.8	
831.4	6353.5	
831.57	7157.7	
831.74	3926	
831.91	3457	
832.09	5435.3	
832.26	5763.7	
832.43	4095.3	
832.6	4566.3	
832.77	5451	
832.94	6240.8	
833.12	3207.1	
833.29	4000.4	
833.46	5611.4	
833.63	7403.4	
833.8	4455.7	
833.97	4093.9	
834.15	5797.1	
834.32	5552.7	
834.49	4199.7	
834.66	4319.8	
834.83	6077.7	
835	4893.3	
835.17	3892.5	
835.35	3958.7	
835.52	5709.7	
835.69	5597.8	
835.86	4111	
836.03	3411.2	
836.2	5763.7	
836.37	5354.1	
836.55	4052.2	
836.72	3778.5	
836.89	5324	
837.06	5789.6	
837.23	4169.7	
837.4	4567	
837.57	6655.9	
837.75	7385	
837.92	3708.9	
838.09	3908.2	
838.26	5364.3	
838.43	6109.8	
838.6	4270	
838.77	3801.7	
838.94	6991.1	
839.11	6677.7	
839.29	4031.1	
839.46	3158.7	
839.63	5756.2	
839.8	5477.6	
839.97	3968.3	
840.14	3906.8	
840.31	5509.7	
840.48	5794.4	
840.65	3269.9	
840.82	3827	
841	5780.1	
841.17	5751.4	
841.34	3663.1	
841.51	3637.9	
841.68	5687.9	
841.85	5484.5	
842.02	3735.5	
842.19	3022.1	
842.36	5554.1	
842.53	5468.1	
842.7	3646.7	
842.87	4485.1	
843.05	7338.6	
843.22	5428.5	
843.39	3449.5	
843.56	3738.9	
843.73	5217.5	
843.9	5853.8	
844.07	5882.4	
844.24	4898.7	
844.41	8563.2	
844.58	5018.2	
844.75	3477.5	
844.92	3773	
845.09	5768.4	
845.26	5780.7	
845.43	3657	
845.6	3793.5	
845.77	5844.9	
845.94	5532.2	
846.12	3969.6	
846.29	4221.5	
846.46	5991	
846.63	5763	
846.8	3670.6	
846.97	4296.6	
847.14	6245.6	
847.31	5683.8	
847.48	4047.5	
847.65	4486.4	
847.82	6113.9	
847.99	6053.8	
848.16	4821.6	
848.33	4450.2	
848.5	5265.3	
848.67	6310.5	
848.84	3591.5	
849.01	3737.5	
849.18	5115.1	
849.35	4777.9	
849.52	4513.7	
849.69	3530	
849.86	5986.2	
850.03	6236.7	
850.2	3590.8	
850.37	4370.4	
850.54	6137.1	
850.71	5452.4	
850.88	4311	
851.05	3508.9	
851.22	5723.4	
851.39	6354.2	
851.56	3406.5	
851.73	4113.7	
851.9	5042.8	
852.07	6065.4	
852.24	3969	
852.41	3531.4	
852.58	5618.9	
852.75	5134.9	
852.92	4018.8	
853.09	3489.1	
853.26	5323.4	
853.43	6261.3	
853.6	3511.6	
853.77	3013.9	
853.94	6348.7	
854.11	5051.7	
854.28	5347.9	
854.44	3900	
854.61	6814.3	
854.78	5847	
854.95	3528.7	
855.12	4519.9	
855.29	4625.7	
855.46	6455.2	
855.63	3566.2	
855.8	4973.2	
855.97	5309	
856.14	6196.5	
856.31	5033.2	
856.48	3911.6	
856.65	5276.3	
856.82	5003.9	
856.99	3437.9	
857.16	3841.3	
857.33	7124.9	
857.49	5407.3	
857.66	3862.5	
857.83	4187.4	
858	5369.1	
858.17	5567.1	
858.34	3331.4	
858.51	3560.1	
858.68	6516.6	
858.85	6511.2	
859.02	4115.7	
859.19	4447.5	
859.36	5042.1	
859.52	5098.1	
859.69	3636.5	
859.86	4193.6	
860.03	5086.5	
860.2	6367.1	
860.37	3233.7	
860.54	3579.8	
860.71	6040.8	
860.88	6410.1	
861.05	4065.9	
861.21	4526.7	
861.38	6504.3	
861.55	4947.9	
861.72	3217.4	
861.89	3974.4	
862.06	6077.7	
862.23	6582.9	
862.4	3454.2	
862.56	3723.9	
862.73	5951.4	
862.9	5558.9	
863.07	4249.5	
863.24	3291.8	
863.41	4927.4	
863.58	5026.4	
863.75	3627	
863.91	4140.3	
864.08	6383.5	
864.25	5952.8	
864.42	4559.5	
864.59	5027.1	
864.76	6735.1	
864.93	5058.5	
865.09	3450.1	
865.26	3790.1	
865.43	6258.6	
865.6	6705	
865.77	3104	
865.94	3557.3	
866.1	6363	
866.27	6092.7	
866.44	5471.5	
866.61	3382.6	
866.78	5508.4	
866.95	5878.4	
867.11	3504.8	
867.28	3176.4	
867.45	6109.1	
867.62	5173.2	
867.79	4226.3	
867.96	3519.8	
868.12	4989.5	
868.29	6104.3	
868.46	3102.7	
868.63	4794.3	
868.8	6268.1	
868.97	6046.3	
869.13	3681.6	
869.3	3682.2	
869.47	5889.3	
869.64	6102.3	
869.81	3646.1	
869.97	3630.4	
870.14	5797.1	
870.31	6492.7	
870.48	3476.1	
870.65	4542.4	
870.81	5390.3	
870.98	5371.1	
871.15	4004.5	
871.32	3708.9	
871.48	5897.5	
871.65	6533.7	
871.82	3530.7	
871.99	3944.4	
872.16	7058	
872.32	6334.4	
872.49	3590.8	
872.66	3603.7	
872.83	6032.6	
872.99	5285.1	
873.16	4145.8	
873.33	3551.2	
873.5	5567.7	
873.67	5689.9	
873.83	3784	
874	4824.3	
874.17	5799.8	
874.34	6922.8	
874.5	4603.8	
874.67	4423.6	
874.84	6508.4	
875.01	5046.2	
875.17	5036	
875.34	3525.9	
875.51	5685.2	
875.68	6844.3	
875.84	4338.3	
876.01	5343.8	
876.18	5987.6	
876.34	5935	
876.51	3588.7	
876.68	3463.1	
876.85	5404.6	
877.01	6287.3	
877.18	5160.9	
877.35	3560.1	
877.52	5545.9	
877.68	4950.6	
877.85	3525.9	
878.02	3497.2	
878.18	5545.9	
878.35	5266.7	
878.52	2836.4	
878.69	4017.4	
878.85	6027.9	
879.02	5969.1	
879.19	5153.4	
879.35	3839.3	
879.52	5969.8	
879.69	6175.3	
879.86	3036.5	
880.02	3964.9	
880.19	5476.3	
880.36	6746	
880.52	4107.5	
880.69	4233.2	
880.86	6047.7	
881.02	6167.8	
881.19	3949.2	
881.36	3877.5	
881.52	5898.1	
881.69	5286.5	
881.86	3849.5	
882.02	3786	
882.19	6247	
882.36	7323.5	
882.52	3690.4	
882.69	5104.2	
882.86	5722	
883.02	5610.1	
883.19	4374.5	
883.36	4090.5	
883.52	6062	
883.69	6938.5	
883.86	3585.3	
884.02	3183.9	
884.19	6042.9	
884.36	5620.3	
884.52	4055.7	
884.69	3794.9	
884.86	5285.1	
885.02	6630	
885.19	3989.4	
885.36	4145.8	
885.52	5557.5	
885.69	5700.2	
885.86	5182.7	
886.02	4561.5	
886.19	6024.4	
886.35	5504.9	
886.52	3974.4	
886.69	5094	
886.85	5090.6	
887.02	6408.1	
887.19	6408.1	
887.35	6408.1	
887.52	6408.1	
887.68	6408.1	
887.85	6408.1	
888.02	6408.1	
888.18	6408.1	
888.35	6408.1	
888.51	6408.1	
888.68	6408.1	
888.85	6408.1	
889.01	6408.1	
889.18	6408.1	
889.35	6408.1	
889.51	6408.1	
889.68	6408.1	
889.84	6408.1	
890.01	6408.1	
890.17	6408.1	
890.34	6408.1	
890.51	6408.1	
890.67	6408.1	
890.84	6408.1	
891	6408.1	
891.17	6408.1	
891.34	6408.1	
891.5	6408.1	
891.67	6408.1	
891.83	6408.1	
892	6408.1	
892.16	6408.1	
892.33	6408.1	
892.5	6408.1	
892.66	6408.1	
892.83	6408.1	
892.99	6408.1	
893.16	6408.1	
893.32	6408.1	
893.49	6408.1	
893.65	6408.1	
893.82	6408.1	
893.99	6408.1	
894.15	6408.1	
894.32	6408.1	
894.48	6408.1	
894.65	6408.1	
894.81	6408.1	
894.98	6408.1	
895.14	6408.1	
895.31	6408.1	
895.47	6408.1	
895.64	6408.1	
895.81	6408.1	
895.97	6408.1	
896.14	6408.1	
896.3	6408.1	
896.47	6408.1	
896.63	6408.1	
896.8	6408.1	
896.96	6408.1	
897.13	6408.1	
897.29	6408.1	
897.46	6408.1	
897.62	6408.1	
897.79	6408.1	
897.95	6408.1	
898.12	6408.1	
898.28	6408.1	
898.45	6408.1	
898.61	6408.1	
898.78	6408.1	
898.94	6408.1	
899.11	6408.1	
899.27	6408.1	
899.44	6408.1	
899.6	6408.1	
899.77	6408.1	
899.93	6408.1	
900.1	6408.1	
900.26	6408.1	
900.43	6408.1	
900.59	6408.1	
900.76	6408.1	
900.92	6408.1	
901.09	6408.1	
901.25	6408.1	
901.42	6408.1	
901.58	6408.1	
901.75	6408.1	
901.91	6408.1	
902.07	6408.1	
902.24	6408.1	
902.4	6408.1	
902.57	6408.1	
902.73	6408.1	
902.9	6408.1	
903.06	6408.1	
903.23	6408.1	
903.39	6408.1	
903.56	6408.1	
903.72	6408.1	
903.88	6408.1	
904.05	6408.1	
904.21	6408.1	
904.38	6408.1	
904.54	6408.1	
904.71	6408.1	
904.87	6408.1	
905.03	6408.1	
905.2	6408.1	
905.36	6408.1	
905.53	6408.1	
905.69	6408.1	
905.86	6408.1	
906.02	6408.1	
906.18	6408.1	
906.35	6408.1	
906.51	6408.1	
906.68	6408.1	
906.84	6408.1	
907.01	6408.1	
907.17	6408.1	
907.33	6408.1	
907.5	6408.1	
907.66	6408.1	
907.83	6408.1	
907.99	6408.1	
908.15	6408.1	
908.32	6408.1	
908.48	6408.1	
908.65	6408.1	
908.81	6408.1	
908.97	6408.1	
909.14	6408.1	
909.3	6408.1	
909.47	6408.1	
909.63	6408.1	
909.79	6408.1	
909.96	6408.1	
910.12	6408.1	
910.28	6408.1	
910.45	6408.1	
910.61	6408.1	
910.78	6408.1	
910.94	6408.1	
911.1	6408.1	
911.27	6408.1	
911.43	6408.1	
911.59	6408.1	
911.76	6408.1	
911.92	6408.1	
912.08	6408.1	
912.25	6408.1	
912.41	6408.1	
912.57	6408.1	
912.74	6408.1	
912.9	6408.1	
913.07	6408.1	
913.23	6408.1	
913.39	6408.1	
913.56	6408.1	
913.72	6408.1	
913.88	6408.1	
914.05	6408.1	
914.21	6408.1	
914.37	6408.1	
914.54	6408.1	
914.7	6408.1	
914.86	6408.1	
915.03	6408.1	
915.19	6408.1	
