Wavelength	Intensities	
nm	a.u.	
179.22	1945.6	
179.44	1949	
179.65	1942.2	
179.86	1955.8	
180.08	1925.1	
180.29	5024.3	
180.51	3575.1	
180.72	5748.6	
180.94	6698.9	
181.15	3293.1	
181.37	3196.2	
181.58	5525.4	
181.79	5897.5	
182.01	3439.2	
182.22	3680.9	
182.44	5883.8	
182.65	4846.9	
182.87	4687.8	
183.08	4154.6	
183.29	6175.3	
183.51	5055.8	
183.72	3796.9	
183.94	5510.4	
184.15	5451	
184.37	5492	
184.58	3300.6	
184.79	4609.3	
185.01	5096	
185.22	5867.4	
185.44	4823	
185.65	3938.9	
185.86	5395.7	
186.08	4966.3	
186.29	3160.7	
186.51	3432.4	
186.72	5070.8	
186.94	5984.2	
187.15	3938.2	
187.36	4143.7	
187.58	7918.1	
187.79	5634.6	
188.01	4272.1	
188.22	6733.7	
188.43	6780.8	
188.65	5859.9	
188.86	3448.1	
189.08	4137.6	
189.29	5332.2	
189.5	5321.3	
189.72	3848.1	
189.93	3891.8	
190.15	6035.4	
190.36	7326.9	
190.57	4222.2	
190.79	4088.4	
191	6189.6	
191.22	6040.1	
191.43	4201.7	
191.64	3437.2	
191.86	6416.3	
192.07	6105.7	
192.29	3605.1	
192.5	3833.8	
192.71	6096.1	
192.93	5202.5	
193.14	3787.4	
193.35	3795.6	
193.57	5289.2	
193.78	6146	
194	3046.7	
194.21	3773.7	
194.42	4975.9	
194.64	5480.4	
194.85	4117.1	
195.07	4863.2	
195.28	5546.6	
195.49	4754	
195.71	5074.2	
195.92	3559.4	
196.13	5719.3	
196.35	5839.4	
196.56	5481	
196.78	4107.5	
196.99	7191.8	
197.2	6692.8	
197.42	4709	
197.63	4212	
197.84	4950.6	
198.06	5695.4	
198.27	3809.2	
198.48	5122	
198.7	5223	
198.91	5388.9	
199.13	4134.8	
199.34	4209.3	
199.55	5956.2	
199.77	4754.7	
199.98	3614	
200.19	4222.9	
200.41	5314.5	
200.62	5107.6	
200.83	4385.4	
201.05	4632.5	
201.26	5408	
201.47	5128.1	
201.69	3659	
201.9	3528.7	
202.11	5422.3	
202.33	6505	
202.54	3910.3	
202.76	4372.4	
202.97	5592.3	
203.18	5613.5	
203.4	4332.8	
203.61	4201.1	
203.82	5558.2	
204.04	5165.7	
204.25	4238.6	
204.46	4102.8	
204.68	5487.9	
204.89	5806.7	
205.1	4086.4	
205.32	3437.2	
205.53	5908.4	
205.74	5975.3	
205.96	2994.8	
206.17	4295.3	
206.38	5834.7	
206.6	6086.6	
206.81	4828.4	
207.02	3923.2	
207.24	5791	
207.45	6163	
207.66	3925.3	
207.88	3362.1	
208.09	5713.8	
208.3	5500.2	
208.52	3648.1	
208.73	4027	
208.94	5511.1	
209.15	6238.1	
209.37	3983.3	
209.58	4214.7	
209.79	6025.1	
210.01	5346.6	
210.22	3151.8	
210.43	3301.3	
210.65	5516.5	
210.86	5978.7	
211.07	4037.2	
211.29	3675.4	
211.5	5864.7	
211.71	5449.6	
211.93	3608.5	
212.14	3642.7	
212.35	5362.9	
212.56	5742.5	
212.78	4192.9	
212.99	3420.8	
213.2	6500.3	
213.42	5271.5	
213.63	3745.7	
213.84	4033.1	
214.06	4890.5	
214.27	4958.1	
214.48	3942.3	
214.69	4207.2	
214.91	6228.6	
215.12	6328.2	
215.33	4266.6	
215.55	4814.8	
215.76	6797.9	
215.97	5898.2	
216.18	4108.9	
216.4	4035.9	
216.61	5137	
216.82	6007.4	
217.04	3638.6	
217.25	3829	
217.46	6211.5	
217.67	5913.9	
217.89	3213.9	
218.1	3360	
218.31	5578	
218.53	5720.7	
218.74	3786.7	
218.95	3738.2	
219.16	5473.5	
219.38	6398.5	
219.59	3726.6	
219.8	4440.7	
220.01	7193.1	
220.23	5540.4	
220.44	4909.7	
220.65	3607.2	
220.87	5594.4	
221.08	6133.7	
221.29	3351.2	
221.5	4544.4	
221.72	7660.8	
221.93	5203.9	
222.14	4289.8	
222.35	4982.7	
222.57	5586.2	
222.78	5803.9	
222.99	3986	
223.2	4261.1	
223.42	5850.4	
223.63	5957.5	
223.84	3008.5	
224.05	3070.6	
224.27	7081.9	
224.48	6496.2	
224.69	4965.6	
224.9	4155.3	
225.12	5712.5	
225.33	5477.6	
225.54	3295.9	
225.75	3713.6	
225.97	5014.1	
226.18	5300.1	
226.39	3960.8	
226.6	3768.3	
226.82	5224.4	
227.03	5107.6	
227.24	4138.3	
227.45	3413.3	
227.67	5909.1	
227.88	6462.7	
228.09	4678.9	
228.3	4693.3	
228.52	5945.9	
228.73	5437.4	
228.94	3875.4	
229.15	3456.3	
229.36	5417.6	
229.58	5319.3	
229.79	3925.3	
230	4565.6	
230.21	6476.4	
230.43	5618.3	
230.64	4093.2	
230.85	4364.2	
231.06	6029.2	
231.28	5963	
231.49	3377.1	
231.7	4096.6	
231.91	5822.4	
232.12	5534.3	
232.34	3521.1	
232.55	4089.8	
232.76	6096.8	
232.97	5666	
233.18	3652.9	
233.4	4104.1	
233.61	5752.7	
233.82	5223.7	
234.03	3820.8	
234.25	3798.3	
234.46	7701.7	
234.67	5456.5	
234.88	4268.6	
235.09	3706.1	
235.31	5874.9	
235.52	5406	
235.73	4151.2	
235.94	3499.3	
236.15	5201.2	
236.37	6710.5	
236.58	3672	
236.79	3991.5	
237	5860.6	
237.21	4991.6	
237.43	4306.2	
237.64	3345	
237.85	10125	
238.06	5047.6	
238.27	4386.7	
238.48	3503.4	
238.7	5888.6	
238.91	5332.9	
239.12	3962.1	
239.33	3977.8	
239.54	5264.6	
239.76	5412.8	
239.97	3953.9	
240.18	4046.8	
240.39	6941.2	
240.6	5785.5	
240.82	4100	
241.03	3368.2	
241.24	5489.9	
241.45	6437.4	
241.66	3644.7	
241.87	4304.8	
242.09	6304.3	
242.3	6679.1	
242.51	4375.1	
242.72	4034.5	
242.93	5976	
243.14	5483.8	
243.36	4671.4	
243.57	5011.4	
243.78	6435.4	
243.99	5770.5	
244.2	4003.8	
244.41	3610.6	
244.63	5066.7	
244.84	5914.5	
245.05	4302.1	
245.26	3970.3	
245.47	5792.3	
245.68	6049	
245.9	5390.3	
246.11	4136.9	
246.32	5386.8	
246.53	5801.2	
246.74	6532.3	
246.95	3308.8	
247.16	4954	
247.38	5517.9	
247.59	3297.9	
247.8	4046.1	
248.01	5205.9	
248.22	5455.8	
248.43	3641.3	
248.64	3852.2	
248.86	4851	
249.07	5207.3	
249.28	3452.9	
249.49	4091.2	
249.7	6071.5	
249.91	6261.3	
250.12	3323.9	
250.34	3355.9	
250.55	5595.7	
250.76	5466	
250.97	4128.7	
251.18	4117.1	
251.39	6234	
251.6	5713.8	
251.81	4236.6	
252.03	4282.3	
252.24	5229.8	
252.45	6111.1	
252.66	3465.2	
252.87	4442.7	
253.08	5591	
253.29	7302.4	
253.5	3440.6	
253.72	4875.5	
253.93	5332.2	
254.14	6599.2	
254.35	3793.5	
254.56	3904.1	
254.77	5749.3	
254.98	5167	
255.19	3738.2	
255.41	4877.6	
255.62	5583.4	
255.83	6207.4	
256.04	4285.7	
256.25	4207.9	
256.46	6784.9	
256.67	5151.3	
256.88	4085.7	
257.09	4626.4	
257.31	5193.6	
257.52	5198.4	
257.73	5201.2	
257.94	3784.6	
258.15	5322.7	
258.36	5549.3	
258.57	4797.7	
258.78	2994.8	
258.99	6075	
259.2	5344.5	
259.41	3835.8	
259.63	3953.9	
259.84	6421.1	
260.05	6833.4	
260.26	5067.4	
260.47	3691.1	
260.68	6120	
260.89	5416.9	
261.1	4661.2	
261.31	3594.9	
261.52	6063.4	
261.73	6452.5	
261.95	4934.9	
262.16	4319.2	
262.37	6259.3	
262.58	6324.1	
262.79	4967	
263	3849.5	
263.21	5526.8	
263.42	5081.7	
263.63	3941.7	
263.84	3864.5	
264.05	6100.2	
264.26	6537.1	
264.47	5043.5	
264.69	4324.6	
264.9	6212.9	
265.11	5727.5	
265.32	3666.5	
265.53	3796.3	
265.74	5605.3	
265.95	4923.3	
266.16	4085	
266.37	4524	
266.58	5699.5	
266.79	5380.7	
267	3803.8	
267.21	3543.7	
267.42	5058.5	
267.63	5460.6	
267.84	3971	
268.06	3416.7	
268.27	6010.1	
268.48	6306.4	
268.69	3859.1	
268.9	4633.2	
269.11	6232	
269.32	4984.1	
269.53	4005.8	
269.74	3698.6	
269.95	5831.9	
270.16	4853.7	
270.37	4005.1	
270.58	4605.2	
270.79	5337.7	
271	6113.9	
271.21	4323.9	
271.42	4048.8	
271.63	5653.1	
271.84	5145.9	
272.05	3161.4	
272.26	3588	
272.47	5545.2	
272.68	5756.2	
272.89	3813.3	
273.11	4481.6	
273.32	5345.9	
273.53	6462	
273.74	4274.1	
273.95	4198.3	
274.16	6237.4	
274.37	5588.2	
274.58	4386.1	
274.79	3468.6	
275	5696.8	
275.21	6226.5	
275.42	5294.7	
275.63	4530.8	
275.84	5736.4	
276.05	7258	
276.26	4220.9	
276.47	3966.9	
276.68	5313.1	
276.89	6584.9	
277.1	4545.1	
277.31	3518.4	
277.52	5781.4	
277.73	5988.9	
277.94	3437.2	
278.15	3872	
278.36	5745.2	
278.57	5140.4	
278.78	3821.5	
278.99	4304.8	
279.2	5124	
279.41	5076.9	
279.62	5035.3	
279.83	3573.7	
280.04	6741.9	
280.25	5000.5	
280.46	5063.3	
280.67	3986	
280.88	5099.4	
281.09	6204	
281.3	4151.2	
281.51	5362.9	
281.72	5232.6	
281.93	6048.3	
282.14	3724.6	
282.35	4005.8	
282.56	6052.4	
282.77	5961.6	
282.98	3877.5	
283.19	4791.6	
283.4	7468.3	
283.61	5446.2	
283.82	3538.9	
284.03	4997	
284.24	5603.2	
284.45	6193.1	
284.66	4991.6	
284.87	4822.3	
285.08	6128.9	
285.29	6280.4	
285.5	3355.3	
285.71	3919.8	
285.92	6219	
286.12	6862.1	
286.33	4990.2	
286.54	3889.1	
286.75	6043.6	
286.96	5356.1	
287.17	3538.9	
287.38	4882.4	
287.59	5126.1	
287.8	5008.6	
288.01	3939.6	
288.22	4545.8	
288.43	6068.8	
288.64	5064.6	
288.85	4627.7	
289.06	4439.3	
289.27	5970.5	
289.48	6510.5	
289.69	5000.5	
289.9	4552.6	
290.11	6178	
290.32	5208	
290.53	4703.5	
290.74	4367	
290.94	5976	
291.15	6028.5	
291.36	3792.8	
291.57	4524.6	
291.78	5252.4	
291.99	4916.5	
292.2	3526.6	
292.41	4387.4	
292.62	6124.1	
292.83	5888.6	
293.04	5358.2	
293.25	3617.4	
293.46	5345.9	
293.67	6087.9	
293.88	3721.8	
294.09	3615.3	
294.29	5013.4	
294.5	5665.4	
294.71	4072.7	
294.92	3820.8	
295.13	5259.2	
295.34	6688	
295.55	3388.7	
295.76	3445.4	
295.97	5974.6	
296.18	6788.3	
296.39	3493.2	
296.6	3788.1	
296.81	5650.3	
297.01	5942.5	
297.22	3928.7	
297.43	3796.9	
297.64	5118.6	
297.85	5129.5	
298.06	3106.1	
298.27	3366.9	
298.48	5603.2	
298.69	5268.7	
298.9	4059.1	
299.11	3705.5	
299.31	5028.4	
299.52	5025.7	
299.73	4379.9	
299.94	4271.4	
300.15	5544.5	
300.36	5132.9	
300.57	4341	
300.78	4256.4	
300.99	5381.4	
301.2	5677.7	
301.4	3742.3	
301.61	4087.1	
301.82	5880.4	
302.03	5961.6	
302.24	4534.9	
302.45	3557.3	
302.66	5829.9	
302.87	6335	
303.08	3734.8	
303.29	5139.7	
303.49	5270.8	
303.7	5570.5	
303.91	3332.7	
304.12	4879.6	
304.33	4985.4	
304.54	5650.3	
304.75	3820.8	
304.96	3607.2	
305.16	5841.5	
305.37	6679.8	
305.58	3233.1	
305.79	3390.8	
306	5885.2	
306.21	4950.6	
306.42	3716.4	
306.63	5764.3	
306.83	5315.2	
307.04	6222.4	
307.25	4144.4	
307.46	4196.3	
307.67	4706.9	
307.88	6050.4	
308.09	3632.4	
308.29	3859.1	
308.5	5629.9	
308.71	6161	
308.92	4050.2	
309.13	3571.7	
309.34	5343.8	
309.55	5495.4	
309.75	4696.7	
309.96	4225	
310.17	5921.4	
310.38	5274.2	
310.59	4577.2	
310.8	3511.6	
311.01	5345.9	
311.21	5375.2	
311.42	3561.4	
311.63	3677.5	
311.84	5281.7	
312.05	5667.4	
312.26	4190.8	
312.46	4595.6	
312.67	5395	
312.88	5109	
313.09	3659.7	
313.3	3577.8	
313.51	6339.1	
313.71	6674.3	
313.92	3614.7	
314.13	3845.4	
314.34	5788.2	
314.55	5461.2	
314.76	4743.1	
314.96	4065.2	
315.17	5581.4	
315.38	6000.5	
315.59	3652.2	
315.8	3458.3	
316.01	6436.1	
316.21	6491.4	
316.42	3437.2	
316.63	3965.6	
316.84	5446.2	
317.05	6296.1	
317.26	4280.9	
317.46	3816	
317.67	5470.1	
317.88	5978	
318.09	4627	
318.3	3379.8	
318.5	5192.3	
318.71	5818.3	
318.92	5932.3	
319.13	4237.2	
319.34	6082.5	
319.54	6216.3	
319.75	3386	
319.96	3217.4	
320.17	5901.6	
320.38	6077	
320.58	3272	
320.79	3976.5	
321	6050.4	
321.21	6200.6	
321.42	4014.7	
321.62	3335.5	
321.83	5098.8	
322.04	5522.7	
322.25	3867.9	
322.46	3704.1	
322.66	5656.5	
322.87	5773.9	
323.08	4532.8	
323.29	3580.5	
323.5	6635.4	
323.7	5069.4	
323.91	4947.9	
324.12	4454.3	
324.33	5563.6	
324.53	5917.9	
324.74	4263.2	
324.95	4498	
325.16	4909.7	
325.37	5398.4	
325.57	3616.7	
325.78	3700.7	
325.99	5580.7	
326.2	5038.7	
326.4	5175.9	
326.61	3381.9	
326.82	5461.2	
327.03	5639.4	
327.24	5160.9	
327.44	4969.7	
327.65	5787.6	
327.86	4657.1	
328.07	4310.3	
328.27	3476.1	
328.48	6254.5	
328.69	5109.7	
328.9	5232.6	
329.1	3901.4	
329.31	5310.4	
329.52	6395.8	
329.73	3614	
329.93	4121.2	
330.14	5562.3	
330.35	5788.9	
330.56	6030.6	
330.76	4533.5	
330.97	5386.2	
331.18	5774.6	
331.39	4086.4	
331.59	3286.3	
331.8	6092	
332.01	6260	
332.22	3769.6	
332.42	4252.9	
332.63	5638.1	
332.84	5268.7	
333.05	4078.2	
333.25	3680.2	
333.46	5362.9	
333.67	5531.6	
333.88	3795.6	
334.08	4245.4	
334.29	7440.3	
334.5	6218.3	
334.7	3569.6	
334.91	5221	
335.12	5055.1	
335.33	5952.1	
335.53	4024.9	
335.74	5951.4	
335.95	5290.6	
336.16	5150	
336.36	3992.9	
336.57	4656.4	
336.78	5060.5	
336.98	6153.5	
337.19	5016.8	
337.4	4016.1	
337.61	6727.6	
337.81	5036.6	
338.02	3693.9	
338.23	4823	
338.43	6366.5	
338.64	5137	
338.85	3631.7	
339.05	4837.3	
339.26	6429.9	
339.47	4962.2	
339.68	3647.4	
339.88	5466	
340.09	5771.2	
340.3	6064.7	
340.5	4272.1	
340.71	3292.5	
340.92	5012.1	
341.13	6330.3	
341.33	3545.7	
341.54	4274.1	
341.75	5756.2	
341.95	5389.6	
342.16	4079.6	
342.37	4483.7	
342.57	5090.6	
342.78	5478.3	
342.99	4573.1	
343.19	3231	
343.4	5972.6	
343.61	5763	
343.81	3910.3	
344.02	3538.2	
344.23	5973.9	
344.43	6460	
344.64	4470.7	
344.85	4422.9	
345.06	5799.2	
345.26	6222.4	
345.47	4212	
345.68	4980.7	
345.88	4830.5	
346.09	6019.7	
346.3	4386.1	
346.5	3221.5	
346.71	5556.8	
346.92	5195	
347.12	3333.4	
347.33	4250.2	
347.54	6060.6	
347.74	6526.9	
347.95	4209.3	
348.16	3067.9	
348.36	5382.7	
348.57	5160.9	
348.78	4177.2	
348.98	4474.8	
349.19	5470.8	
349.39	5010	
349.6	3315	
349.81	3663.1	
350.01	5801.2	
350.22	5240.8	
350.43	4058.4	
350.63	4874.8	
350.84	5554.1	
351.05	5367	
351.25	3686.3	
351.46	3338.2	
351.67	6065.4	
351.87	5227.8	
352.08	3948.5	
352.29	4498	
352.49	6076.3	
352.7	6109.1	
352.9	3536.8	
353.11	4516.5	
353.32	6804.7	
353.52	5350	
353.73	3454.2	
353.94	4500.8	
354.14	5851	
354.35	5689.9	
354.55	3685	
354.76	4083	
354.97	5840.1	
355.17	5616.9	
355.38	3422.2	
355.59	4813.4	
355.79	5240.8	
356	5688.6	
356.2	4037.2	
356.41	3523.9	
356.62	4930.1	
356.82	5474.9	
357.03	4271.4	
357.24	3883.6	
357.44	5231.9	
357.65	5439.4	
357.85	5283.1	
358.06	4078.2	
358.27	4999.1	
358.47	5220.3	
358.68	3379.1	
358.88	4265.9	
359.09	5812.1	
359.3	6212.2	
359.5	5057.8	
359.71	4489.1	
359.91	6724.8	
360.12	6029.2	
360.33	4251.6	
360.53	4824.3	
360.74	5264	
360.94	5297.4	
361.15	4515.1	
361.36	3694.5	
361.56	6067.4	
361.77	5459.9	
361.97	5057.1	
362.18	3974.4	
362.38	6066.1	
362.59	5120.6	
362.8	3644.7	
363	3429	
363.21	4903.5	
363.41	5612.1	
363.62	4154.6	
363.83	5296.7	
364.03	5642.2	
364.24	6646.3	
364.44	5304.9	
364.65	5232.6	
364.85	5439.4	
365.06	5087.8	
365.27	3804.4	
365.47	3818.8	
365.68	6453.1	
365.88	5428.5	
366.09	4280.3	
366.29	3930.1	
366.5	5709.1	
366.71	6211.5	
366.91	5236	
367.12	4446.1	
367.32	6780.1	
367.53	5969.8	
367.73	4306.2	
367.94	5315.8	
368.14	5870.8	
368.35	6864.8	
368.56	4358.8	
368.76	3652.9	
368.97	6012.8	
369.17	7840.3	
369.38	3825.6	
369.58	4131.4	
369.79	5048.2	
369.99	6364.4	
370.2	5148.6	
370.4	4185.4	
370.61	5659.2	
370.82	6982.2	
371.02	4077.5	
371.23	3420.1	
371.43	4969.7	
371.64	6298.2	
371.84	4124.6	
372.05	5513.1	
372.25	7768.6	
372.46	6029.2	
372.66	4138.9	
372.87	4044.7	
373.07	6095.4	
373.28	7746.1	
373.48	5178.6	
373.69	4876.9	
373.9	5550.7	
374.1	5660.6	
374.31	5119.2	
374.51	4600.4	
374.72	6459.3	
374.92	5273.5	
375.13	5269.4	
375.33	4418.2	
375.54	5928.2	
375.74	5467.4	
375.95	4465.3	
376.15	5753.4	
376.36	6011.5	
376.56	5802.6	
376.77	4614.1	
376.97	5079.6	
377.18	7092.8	
377.38	6086.6	
377.59	5407.3	
377.79	4048.8	
378	5863.3	
378.2	6394.4	
378.41	4148.5	
378.61	4042	
378.82	6369.2	
379.02	5416.2	
379.23	4358.8	
379.43	5436.7	
379.64	6372.6	
379.84	6047.7	
380.05	4078.9	
380.25	4020.8	
380.46	6158.2	
380.66	5728.9	
380.87	5455.8	
381.07	5927.5	
381.28	6832.7	
381.48	6163.7	
381.69	4158.1	
381.89	4244.1	
382.1	5085.8	
382.3	6287.3	
382.51	5284.4	
382.71	6219	
382.91	6150.1	
383.12	6698.2	
383.32	4468	
383.53	4722.6	
383.73	5986.9	
383.94	5805.3	
384.14	4633.2	
384.35	3764.2	
384.55	5673.6	
384.76	6150.7	
384.96	4519.9	
385.17	4866	
385.37	6143.2	
385.58	5373.9	
385.78	4824.3	
385.98	3642	
386.19	5608.7	
386.39	6075	
386.6	4252.3	
386.8	4476.2	
387.01	6157.6	
387.21	6185.5	
387.42	4957.4	
387.62	5543.2	
387.83	5430.5	
388.03	6122.1	
388.23	4532.2	
388.44	5397.8	
388.64	5099.4	
388.85	5271.5	
389.05	4940.4	
389.26	5588.9	
389.46	7241.6	
389.67	6499.6	
389.87	4875.5	
390.07	4984.1	
390.28	5753.4	
390.48	5326.1	
390.69	4101.4	
390.89	4474.8	
391.1	5554.1	
391.3	6490	
391.5	5655.1	
391.71	6358.3	
391.91	6161	
392.12	7326.3	
392.32	5772.5	
392.53	4962.2	
392.73	5582.8	
392.93	5906.3	
393.14	4593.6	
393.34	5461.2	
393.55	6316.6	
393.75	5777.3	
393.95	4556.7	
394.16	4543.8	
394.36	5515.2	
394.57	6264.7	
394.77	4066.6	
394.98	4509.6	
395.18	5507	
395.38	5629.9	
395.59	5383.4	
395.79	4294.6	
396	5692.7	
396.2	6143.9	
396.4	5180.7	
396.61	5098.1	
396.81	6359.6	
397.02	5563	
397.22	5414.1	
397.42	5466.7	
397.63	6333	
397.83	5528.8	
398.04	4315.1	
398.24	4800.4	
398.44	6119.3	
398.65	5155.4	
398.85	4082.3	
399.05	4242	
399.26	5494	
399.46	7293.5	
399.67	4605.2	
399.87	4381.3	
400.07	5888.6	
400.28	6242.9	
400.48	4450.2	
400.69	5559.6	
400.89	6539.8	
401.09	6892.1	
401.3	4310.3	
401.5	5468.1	
401.7	7150.1	
401.91	7445	
402.11	4689.2	
402.32	4949.3	
402.52	6519.4	
402.72	6420.4	
402.93	5109.7	
403.13	3879.5	
403.33	7154.2	
403.54	5862.7	
403.74	4745.1	
403.94	5642.2	
404.15	5898.1	
404.35	7179.5	
404.56	4625.7	
404.76	6516.6	
404.96	6496.2	
405.17	6214.2	
405.37	5919.3	
405.57	5079	
405.78	6508.4	
405.98	5914.5	
406.18	4549.2	
406.39	5474.2	
406.59	6471.6	
406.79	6028.5	
407	4306.2	
407.2	4505.5	
407.4	6484.6	
407.61	6731	
407.81	4498.7	
408.01	6728.9	
408.22	5423.7	
408.42	7520.8	
408.62	5640.8	
408.83	5117.9	
409.03	6122.7	
409.23	5876.3	
409.44	5150	
409.64	5476.3	
409.84	7067.5	
410.05	6917.4	
410.25	5297.4	
410.45	5081	
410.66	6375.3	
410.86	8973.5	
411.06	5470.1	
411.27	5361.6	
411.47	8711.4	
411.67	6522.1	
411.88	5666.7	
412.08	5862.7	
412.28	7195.9	
412.49	7819.1	
412.69	5296	
412.89	5365.7	
413.09	7568.6	
413.3	7370.6	
413.5	5494	
413.7	4997.7	
413.91	6622.4	
414.11	7567.2	
414.31	5304.9	
414.52	5762.3	
414.72	7214.3	
414.92	7104.4	
415.12	5251	
415.33	5796.4	
415.53	7492.2	
415.73	7734.5	
415.94	6184.9	
416.14	5563	
416.34	6415.6	
416.55	6190.3	
416.75	6888.7	
416.95	6250.4	
417.15	7458	
417.36	8206.9	
417.56	6985.6	
417.76	6019.7	
417.97	7884	
418.17	7554.3	
418.37	5568.4	
418.57	5711.8	
418.78	7243	
418.98	6861.4	
419.18	6623.1	
419.38	6445	
419.59	6926.2	
419.79	6559	
419.99	5518.6	
420.2	5953.4	
420.4	7437.5	
420.6	7713.3	
420.8	5407.3	
421.01	5344.5	
421.21	7304.4	
421.41	7535.2	
421.61	5937.1	
421.82	5548.6	
422.02	6805.4	
422.22	7744.1	
422.42	6392.4	
422.63	6021.7	
422.83	6910.5	
423.03	8215.8	
423.23	6030.6	
423.44	4942.4	
423.64	6979.5	
423.84	6789	
424.04	5393.7	
424.25	5110.4	
424.45	7969.3	
424.65	7952.3	
424.85	4883	
425.06	5419.6	
425.26	7862.2	
425.46	6450.4	
425.66	6005.3	
425.87	5674.2	
426.07	7651.9	
426.27	7549.5	
426.47	5810.1	
426.67	5147.9	
426.88	7988.4	
427.08	7429.3	
427.28	6023.1	
427.48	5116.5	
427.69	6328.2	
427.89	6967.2	
428.09	6036.7	
428.29	5154.1	
428.5	7696.9	
428.7	7273	
428.9	4962.2	
429.1	5497.4	
429.3	7142.6	
429.51	7639.6	
429.71	5399.8	
429.91	6237.4	
430.11	7464.2	
430.31	8000	
430.52	5700.9	
430.72	5978.7	
430.92	8027.4	
431.12	7542	
431.32	5301.5	
431.53	5799.2	
431.73	6291.4	
431.93	8210.3	
432.13	5260.5	
432.33	5131.5	
432.54	6815	
432.74	7255.3	
432.94	5046.9	
433.14	6210.1	
433.34	7368.6	
433.55	6881.9	
433.75	6100.9	
433.95	7907.9	
434.15	7198.6	
434.35	6881.2	
434.56	5277.6	
434.76	4764.9	
434.96	7046.4	
435.16	7500.3	
435.36	5111.7	
435.56	6294.1	
435.77	6740.5	
435.97	6974	
436.17	7031.4	
436.37	6244.3	
436.57	6797.2	
436.78	6638.8	
436.98	6854.6	
437.18	6843.6	
437.38	7523.6	
437.58	6991.1	
437.78	6982.2	
437.99	5561.6	
438.19	7555	
438.39	8305.9	
438.59	5474.9	
438.79	4952	
438.99	8150.2	
439.2	6944	
439.4	5154.1	
439.6	5072.1	
439.8	7311.9	
440	8501.8	
440.2	6176.7	
440.4	6401.3	
440.61	7709.9	
440.81	8344.8	
441.01	5282.4	
441.21	6324.8	
441.41	8092.2	
441.61	7731.1	
441.81	6591.7	
442.02	7681.9	
442.22	8633.6	
442.42	7802.1	
442.62	5374.6	
442.82	5446.9	
443.02	8109.3	
443.22	7226.6	
443.43	5922	
443.63	5430.5	
443.83	7041.6	
444.03	7038.9	
444.23	6689.3	
444.43	6292	
444.63	7325.6	
444.83	8569.4	
445.04	5444.2	
445.24	6869.6	
445.44	7722.9	
445.64	7826	
445.84	6393.1	
446.04	6298.2	
446.24	7005.4	
446.44	8121.6	
446.65	5521.3	
446.85	5905	
447.05	7173.4	
447.25	8026.7	
447.45	6016.9	
447.65	5322.7	
447.85	7407.5	
448.05	6984.3	
448.25	6441.5	
448.46	6181.5	
448.66	7406.8	
448.86	7095.5	
449.06	5135.6	
449.26	6497.5	
449.46	7811.6	
449.66	6793.8	
449.86	5870.2	
450.06	5912.5	
450.26	6924.2	
450.47	7583.6	
450.67	6222.4	
450.87	6511.9	
451.07	7617.1	
451.27	7363.1	
451.47	5447.6	
451.67	6012.2	
451.87	7067.5	
452.07	8290.9	
452.27	5751.4	
452.47	5622.4	
452.67	7400.7	
452.88	7993.9	
453.08	4969.7	
453.28	7135.8	
453.48	8662.9	
453.68	7322.9	
453.88	5552.7	
454.08	5824.4	
454.28	7772.7	
454.48	7408.9	
454.68	6472.9	
454.88	6976.7	
455.08	7903.1	
455.28	7661.5	
455.48	5408	
455.68	6096.1	
455.89	8307.9	
456.09	8067.6	
456.29	5836	
456.49	5882.4	
456.69	8200.7	
456.89	7408.2	
457.09	6395.1	
457.29	6869.6	
457.49	7872.4	
457.69	7995.3	
457.89	6175.3	
458.09	5557.5	
458.29	7496.2	
458.49	8322.3	
458.69	6638.8	
458.89	6098.9	
459.09	8589.9	
459.29	8665.6	
459.49	6178	
459.69	6997.2	
459.9	8090.2	
460.1	7560.4	
460.3	5942.5	
460.5	5814.9	
460.7	8020.5	
460.9	7789.8	
461.1	5471.5	
461.3	6872.3	
461.5	8712.7	
461.7	8255.4	
461.9	5850.4	
462.1	6340.5	
462.3	7806.2	
462.5	8405.5	
462.7	5981.4	
462.9	6064.7	
463.1	9552.4	
463.3	9073.9	
463.5	6228.6	
463.7	7225.2	
463.9	8013.7	
464.1	8356.4	
464.3	6358.9	
464.5	6704.4	
464.7	8606.2	
464.9	8314.8	
465.1	8064.2	
465.3	6975.4	
465.5	9013.1	
465.7	9035	
465.9	7265.5	
466.1	7129.7	
466.3	8791.9	
466.5	8572.1	
466.7	8035.5	
466.9	6830	
467.1	8525	
467.3	9491	
467.5	7966.6	
467.7	6772.6	
467.9	9742.9	
468.1	10634	
468.3	7681.9	
468.5	7959.8	
468.7	8430.8	
468.9	8538	
469.1	7177.4	
469.3	7797.3	
469.5	10620	
469.7	8031.5	
469.9	7520.1	
470.1	6825.2	
470.3	8501.8	
470.5	8525	
470.7	8094.9	
470.9	6875	
471.1	8260.8	
471.3	8692.3	
471.5	6572.6	
471.69	8616.5	
471.89	8088.1	
472.09	7643.7	
472.29	7513.3	
472.49	7901.1	
472.69	7840.3	
472.89	8640.4	
473.09	6521.4	
473.29	6731.7	
473.49	8005.5	
473.69	8244.4	
473.89	7761.1	
474.09	6860	
474.29	9549.7	
474.49	9197.4	
474.69	7675.1	
474.89	7105.8	
475.09	8196	
475.29	8160.5	
475.49	6499.6	
475.69	6694.8	
475.88	9921.7	
476.08	8507.9	
476.28	6303	
476.48	6835.4	
476.68	8917.5	
476.88	8865	
477.08	6707.1	
477.28	7033.4	
477.48	8244.4	
477.68	9011.1	
477.88	6476.4	
478.08	6746	
478.28	9420	
478.48	8530.5	
478.67	6860	
478.87	6288.6	
479.07	9124.4	
479.27	8583.7	
479.47	7045	
479.67	7141.3	
479.87	8886.8	
480.07	9465.7	
480.27	6325.5	
480.47	8017.1	
480.67	8564.6	
480.87	9205.6	
481.06	6578.8	
481.26	7456	
481.46	8475.2	
481.66	8447.2	
481.86	7063.4	
482.06	8226.7	
482.26	8245.1	
482.46	9163.3	
482.66	7141.9	
482.86	6547.4	
483.05	8517.5	
483.25	8028.7	
483.45	9518.3	
483.65	7034.1	
483.85	8211	
484.05	8467	
484.25	7514.7	
484.45	8000.7	
484.65	9445.2	
484.84	9385.2	
485.04	6961.7	
485.24	7019.8	
485.44	9623.4	
485.64	7939.3	
485.84	6200.6	
486.04	7668.3	
486.24	8246.5	
486.44	8738	
486.63	6135.7	
486.83	6978.1	
487.03	8188.5	
487.23	8409.6	
487.43	6294.1	
487.63	8848.6	
487.83	8498.4	
488.02	9484.8	
488.22	7350.2	
488.42	8011.7	
488.62	9344.9	
488.82	8193.2	
489.02	6913.9	
489.22	7010.2	
489.41	9185.1	
489.61	8824.7	
489.81	6764.4	
490.01	6752.8	
490.21	9143.5	
490.41	9842.5	
490.61	6635.4	
490.8	6766.5	
491	8531.2	
491.2	7834.8	
491.4	7367.9	
491.6	6392.4	
491.8	8469	
491.99	8774.9	
492.19	6357.6	
492.39	6818.4	
492.59	9211.8	
492.79	9306	
492.99	7789.1	
493.18	6719.4	
493.38	9353.1	
493.58	10105	
493.78	7548.8	
493.98	7038.2	
494.18	9005.6	
494.37	8374.1	
494.57	7682.6	
494.77	7653.9	
494.97	9142.1	
495.17	9499.8	
495.37	7184.3	
495.56	7530.4	
495.76	9684.2	
495.96	9243.2	
496.16	8387.8	
496.36	7251.2	
496.55	9443.9	
496.75	9040.4	
496.95	7632.1	
497.15	7480.5	
497.35	9474.6	
497.54	9359.2	
497.74	7315.3	
497.94	8994	
498.14	10198	
498.34	10027	
498.53	7053.9	
498.73	7894.9	
498.93	8794	
499.13	9406.3	
499.33	7615.7	
499.52	8271.1	
499.72	9349	
499.92	9719	
500.12	7325.6	
500.32	7656	
500.51	9697.1	
500.71	9407	
500.91	8462.2	
501.11	8009.6	
501.31	9657.5	
501.5	10050	
501.7	8684.1	
501.9	7681.2	
502.1	9399.5	
502.29	9759.3	
502.49	8033.5	
502.69	8569.4	
502.89	9557.9	
503.09	9510.8	
503.28	7019.1	
503.48	7163.8	
503.68	8697.7	
503.88	8878.6	
504.07	8360.5	
504.27	7721.5	
504.47	9161.9	
504.67	9286.9	
504.86	8175.5	
505.06	7804.1	
505.26	8809	
505.46	10721	
505.65	7666.9	
505.85	7860.1	
506.05	8729.1	
506.25	9228.1	
506.44	6984.9	
506.64	8019.2	
506.84	8705.9	
507.04	9703.3	
507.23	7196.6	
507.43	7799.3	
507.63	10828	
507.83	8880.7	
508.02	7724.3	
508.22	7501	
508.42	11021	
508.62	8651.3	
508.81	7647.1	
509.01	8327.7	
509.21	8560.5	
509.4	8844.5	
509.6	7946.8	
509.8	7216.4	
510	8784.4	
510.19	10386	
510.39	7174.7	
510.59	7264.1	
510.79	8660.9	
510.98	10174	
511.18	7333.1	
511.38	7417.7	
511.57	9544.9	
511.77	9372.2	
511.97	8056.7	
512.17	7040.2	
512.36	9493	
512.56	9469.1	
512.76	7224.6	
512.95	6903	
513.15	9643.2	
513.35	8194.6	
513.55	8113.4	
513.74	7172	
513.94	9562	
514.14	8881.4	
514.33	8161.2	
514.53	7914.7	
514.73	8802.9	
514.92	9094.3	
515.12	7364.5	
515.32	7182.9	
515.51	9037.7	
515.71	9699.9	
515.91	9056.1	
516.11	7294.2	
516.3	10951	
516.5	8635.6	
516.7	7804.1	
516.89	8458.1	
517.09	8731.2	
517.29	8748.9	
517.48	8153	
517.68	7515.4	
517.88	8551.6	
518.07	9206.3	
518.27	8044.4	
518.47	6991.1	
518.66	9923.8	
518.86	8243.8	
519.06	6868.2	
519.25	7370.6	
519.45	8797.4	
519.65	10358	
519.84	8068.3	
520.04	8769.4	
520.24	10687	
520.43	9340.8	
520.63	7615	
520.83	7350.8	
521.02	8505.2	
521.22	9216.5	
521.42	8054	
521.61	8519.5	
521.81	8867.7	
522.01	9114.8	
522.2	7828	
522.4	7592.5	
522.6	9527.2	
522.79	8320.9	
522.99	7625.3	
523.18	6993.1	
523.38	9260.2	
523.58	9225.4	
523.77	9159.9	
523.97	6976.7	
524.17	11207	
524.36	10317	
524.56	8463.6	
524.76	8069.7	
524.95	9217.9	
525.15	8867	
525.34	7799.3	
525.54	7854	
525.74	9694.4	
525.93	8540.7	
526.13	9050	
526.33	7714.7	
526.52	9997.5	
526.72	9505.3	
526.91	9134.6	
527.11	8278.6	
527.31	10042	
527.5	10598	
527.7	8165.3	
527.89	7253.2	
528.09	8933.2	
528.29	9593.4	
528.48	8692.3	
528.68	8296.3	
528.87	9806.4	
529.07	9878	
529.27	8173.4	
529.46	7528.3	
529.66	9412.5	
529.85	9896.5	
530.05	7363.8	
530.25	8202.1	
530.44	10830	
530.64	9428.8	
530.83	7846.5	
531.03	8140.7	
531.23	9812.5	
531.42	9870.5	
531.62	8978.3	
531.81	8084.7	
532.01	10027	
532.21	10649	
532.4	7885.4	
532.6	8348.2	
532.79	10982	
532.99	10129	
533.18	8262.9	
533.38	9351.7	
533.58	9557.2	
533.77	10465	
533.97	8202.1	
534.16	9062.3	
534.36	10695	
534.55	9678	
534.75	9321	
534.95	8301.8	
535.14	10537	
535.34	9702.6	
535.53	7892.2	
535.73	10002	
535.92	11024	
536.12	9921	
536.31	8047.8	
536.51	9353.8	
536.71	10122	
536.9	9757.2	
537.1	8251.3	
537.29	8456.7	
537.49	10675	
537.68	9636.4	
537.88	8789.9	
538.07	7904.5	
538.27	9876.7	
538.46	10988	
538.66	7841	
538.86	8326.4	
539.05	9934.7	
539.25	10376	
539.44	8492.2	
539.64	8178.9	
539.83	9774.3	
540.03	10765	
540.22	8032.8	
540.42	8140.7	
540.61	9885.5	
540.81	10138	
541	8767.4	
541.2	9303.9	
541.39	9519	
541.59	9921.7	
541.78	8910.7	
541.98	7966.6	
542.18	9096.4	
542.37	9130.5	
542.57	8479.3	
542.76	8969.4	
542.96	9138.7	
543.15	9960.6	
543.35	8421.2	
543.54	7724.3	
543.74	10298	
543.93	9792	
544.13	8353.7	
544.32	9598.1	
544.52	10200	
544.71	9263	
544.91	7468.9	
545.1	8783.1	
545.3	9289.6	
545.49	10140	
545.69	7431.4	
545.88	8040.3	
546.08	11028	
546.27	10639	
546.47	8548.9	
546.66	7819.1	
546.86	10332	
547.05	10991	
547.24	8058.8	
547.44	7965.2	
547.63	9126.4	
547.83	10481	
548.02	8278.6	
548.22	8500.4	
548.41	8988.5	
548.61	10426	
548.8	7864.2	
549	7753.6	
549.19	9557.2	
549.39	9977	
549.58	7539.3	
549.78	8136.6	
549.97	10070	
550.17	9510.8	
550.36	9131.9	
550.55	10124	
550.75	9512.8	
550.94	10547	
551.14	7684.7	
551.33	8148.9	
551.53	8860.2	
551.72	9916.3	
551.92	8318.8	
552.11	7986.4	
552.31	9918.3	
552.5	9828.2	
552.69	9732.6	
552.89	7572	
553.08	9801.6	
553.28	9591.3	
553.47	7997.3	
553.67	9138.7	
553.86	10540	
554.06	8850	
554.25	7090.1	
554.44	7780.9	
554.64	11405	
554.83	10789	
555.03	7584.3	
555.22	8172.1	
555.42	9987.9	
555.61	9720.3	
555.8	7836.2	
556	8161.8	
556.19	8793.3	
556.39	10260	
556.58	7974.1	
556.78	7858.7	
556.97	9636.4	
557.16	9456.2	
557.36	9238.4	
557.55	7484.6	
557.75	8626	
557.94	10430	
558.13	7669	
558.33	7397.3	
558.52	10170	
558.72	9092.3	
558.91	7460.1	
559.1	7753.6	
559.3	8627.4	
559.49	8363.9	
559.69	6965.1	
559.88	8134.5	
560.07	9645.3	
560.27	10004	
560.46	8336.6	
560.66	8460.8	
560.85	9409.7	
561.04	8510	
561.24	7445.7	
561.43	7663.5	
561.63	8830.2	
561.82	9093	
562.01	8966	
562.21	8044.4	
562.4	9562	
562.59	10567	
562.79	7776.1	
562.98	7495.6	
563.18	9440.5	
563.37	11002	
563.56	8433.5	
563.76	7336.5	
563.95	9006.3	
564.14	8780.3	
564.34	7701	
564.53	7587.7	
564.73	9467.8	
564.92	9838.4	
565.11	7961.1	
565.31	7331.7	
565.5	9980.4	
565.69	8978.3	
565.89	7617.8	
566.08	7816.4	
566.27	9976.3	
566.47	10420	
566.66	8523.6	
566.85	7212.9	
567.05	9460.9	
567.24	8815.8	
567.44	7540.6	
567.63	8916.9	
567.82	9665.7	
568.02	9501.2	
568.21	7477.8	
568.4	7951.6	
568.6	9388.6	
568.79	9430.9	
568.98	7320.1	
569.18	7505.8	
569.37	9368.1	
569.56	11487	
569.76	7852.6	
569.95	8831.5	
570.14	9658.2	
570.34	9673.2	
570.53	7284.6	
570.72	7397.3	
570.91	10234	
571.11	9226.8	
571.3	7854	
571.49	8813.1	
571.69	9398.1	
571.88	8821.3	
572.07	8358.4	
572.27	8359.1	
572.46	8858.8	
572.65	9901.2	
572.85	7573.4	
573.04	7920.2	
573.23	10123	
573.43	9339.4	
573.62	7296.2	
573.81	8116.1	
574	9433.6	
574.2	9211.8	
574.39	7700.4	
574.58	7959.1	
574.78	10327	
574.97	9608.4	
575.16	8356.4	
575.36	8329.1	
575.55	9873.9	
575.74	10098	
575.93	7337.2	
576.13	8457.4	
576.32	9209.7	
576.51	9861.7	
576.71	7824.6	
576.9	9204.9	
577.09	10202	
577.28	9703.3	
577.48	8332.5	
577.67	7262.8	
577.86	9367.4	
578.05	9630.9	
578.25	7887.4	
578.44	7974.8	
578.63	9488.2	
578.83	10776	
579.02	7225.9	
579.21	9006.3	
579.4	9624.1	
579.6	9267.1	
579.79	8118.1	
579.98	10428	
580.17	10080	
580.37	10084	
580.56	7555.6	
580.75	8344.1	
580.94	10607	
581.14	10473	
581.33	8856.1	
581.52	7684	
581.71	9846	
581.91	10626	
582.1	7346.7	
582.29	7974.8	
582.48	9473.2	
582.68	9415.9	
582.87	8605.6	
583.06	8112	
583.25	9843.2	
583.45	9675.3	
583.64	8868.4	
583.83	9629.5	
584.02	9328.5	
584.21	9736.7	
584.41	8872.5	
584.6	8028.7	
584.79	9448.6	
584.98	10437	
585.18	7448.5	
585.37	7429.3	
585.56	8998.8	
585.75	9881.4	
585.94	7647.1	
586.14	8467.7	
586.33	10492	
586.52	9432.9	
586.71	8230.1	
586.91	7929.7	
587.1	8820.6	
587.29	9891.7	
587.48	7846.5	
587.67	7700.4	
587.87	9665.7	
588.06	9853.5	
588.25	9174.9	
588.44	8408.3	
588.63	9420.7	
588.83	9947	
589.02	7731.8	
589.21	7567.9	
589.4	8984.4	
589.59	8854.7	
589.78	6731.7	
589.98	7086.7	
590.17	8514.8	
590.36	9084.8	
590.55	6369.9	
590.74	7320.1	
590.94	10587	
591.13	9052	
591.32	7164.5	
591.51	6726.2	
591.7	9561.3	
591.89	9006.3	
592.09	6756.9	
592.28	7299.6	
592.47	8209.6	
592.66	10177	
592.85	6821.1	
593.05	7010.2	
593.24	8779	
593.43	9596.1	
593.62	7003.4	
593.81	7656.7	
594	8948.3	
594.19	9000.1	
594.39	7067.5	
594.58	6928.3	
594.77	9192	
594.96	9842.5	
595.15	6796.5	
595.34	7518.8	
595.54	9206.3	
595.73	8222.6	
595.92	6232	
596.11	7370.6	
596.3	9820	
596.49	8314.8	
596.68	7275.8	
596.88	7668.3	
597.07	9551	
597.26	8207.6	
597.45	6739.9	
597.64	8000.7	
597.83	8445.8	
598.02	9153.1	
598.22	6877.8	
598.41	7557	
598.6	8871.1	
598.79	8288.8	
598.98	6782.2	
599.17	7825.3	
599.36	8927.8	
599.55	10178	
599.74	9115.5	
599.94	8718.9	
600.13	9597.5	
600.32	8267	
600.51	6526.9	
600.7	6711.9	
600.89	10183	
601.08	10230	
601.27	6531.7	
601.47	7553.6	
601.66	9435.7	
601.85	10151	
602.04	7275.1	
602.23	7613	
602.42	8443.8	
602.61	9045.2	
602.8	7126.9	
602.99	6896.2	
603.18	8827.4	
603.37	9053.4	
603.57	7650.5	
603.76	8187.8	
603.95	9863	
604.14	9378.3	
604.33	6989.7	
604.52	7296.9	
604.71	8965.3	
604.9	8678.6	
605.09	7934.5	
605.28	7781.6	
605.47	9572.9	
605.66	9327.8	
605.86	7632.1	
606.05	6879.1	
606.24	9611.8	
606.43	8133.8	
606.62	7301	
606.81	8141.4	
607	9455.5	
607.19	8730.5	
607.38	6737.8	
607.57	6989.7	
607.76	8520.9	
607.95	7985	
608.14	7391.8	
608.33	8006.9	
608.52	8471.8	
608.72	9341.5	
608.91	6586.3	
609.1	6518.7	
609.29	8501.8	
609.48	8037.6	
609.67	7590.5	
609.86	6550.8	
610.05	8114.7	
610.24	8529.8	
610.43	6533.7	
610.62	6009.4	
610.81	9761.3	
611	9433.6	
611.19	6568.5	
611.38	7411.6	
611.57	8878.6	
611.76	10251	
611.95	6320.7	
612.14	6208.8	
612.33	8602.8	
612.52	8056	
612.71	6984.3	
612.9	6065.4	
613.09	7657.4	
613.28	10140	
613.47	6655.9	
613.66	7542	
613.85	8771.5	
614.04	8221.2	
614.24	6696.9	
614.43	5917.9	
614.62	8881.4	
614.81	8758.5	
615	7449.8	
615.19	7339.2	
615.38	8071	
615.57	8454	
615.76	7161.7	
615.95	8132.5	
616.14	8968.7	
616.33	8510	
616.52	7421.2	
616.71	7743.4	
616.9	8865	
617.09	8651.3	
617.28	6824.5	
617.47	8387.1	
617.66	7944.1	
617.85	7974.1	
618.04	7785	
618.22	7259.4	
618.41	8245.1	
618.6	9174.9	
618.79	7105.1	
618.98	6732.4	
619.17	9538.8	
619.36	7845.8	
619.55	6919.4	
619.74	6984.9	
619.93	8858.8	
620.12	8153	
620.31	7623.2	
620.5	7760.4	
620.69	9407.7	
620.88	9794.1	
621.07	8476.5	
621.26	7365.2	
621.45	9032.9	
621.64	8894.3	
621.83	7529.7	
622.02	6672.3	
622.21	9050	
622.4	8692.3	
622.59	8092.9	
622.78	7860.1	
622.97	8428.8	
623.16	9370.8	
623.35	7381.6	
623.54	6641.6	
623.72	8567.3	
623.91	8746.9	
624.1	7779.6	
624.29	6354.2	
624.48	9878	
624.67	8979.7	
624.86	7744.7	
625.05	6646.3	
625.24	10034	
625.43	8254	
625.62	9500.5	
625.81	6890.7	
626	9421.3	
626.19	8571.4	
626.38	7748.1	
626.56	7041.6	
626.75	8385.7	
626.94	9228.1	
627.13	7675.8	
627.32	6288.6	
627.51	9110	
627.7	10435	
627.89	6495.5	
628.08	7660.1	
628.27	8120.2	
628.46	8377.6	
628.65	6879.8	
628.83	6405.4	
629.02	9041.1	
629.21	8411	
629.4	7208.2	
629.59	7511.3	
629.78	8157.7	
629.97	9311.4	
630.16	7520.8	
630.35	6936.5	
630.54	9699.9	
630.72	9389.9	
630.91	6843.6	
631.1	7496.2	
631.29	8895	
631.48	9067.7	
631.67	7598.6	
631.86	7096.2	
632.05	8425.3	
632.24	8536.6	
632.42	6716.7	
632.61	7374.7	
632.8	8625.4	
632.99	8159.1	
633.18	7395.9	
633.37	7846.5	
633.56	8842.4	
633.75	8727.1	
633.93	7364.5	
634.12	6979.5	
634.31	9631.6	
634.5	9302.6	
634.69	6978.1	
634.88	7656	
635.07	8578.3	
635.25	9333.3	
635.44	8030.1	
635.63	8147.5	
635.82	8444.5	
636.01	8002.1	
636.2	7872.4	
636.39	7411.6	
636.57	9584.5	
636.76	9292.3	
636.95	6819.1	
637.14	8315.4	
637.33	8902.5	
637.52	9840.5	
637.7	6621.8	
637.89	7522.2	
638.08	8391.2	
638.27	10060	
638.46	7783.6	
638.65	8107.2	
638.83	10017	
639.02	8196.7	
639.21	7588.4	
639.4	8108.6	
639.59	8846.5	
639.78	8417.2	
639.96	6833.4	
640.15	6802	
640.34	8608.3	
640.53	8800.1	
640.72	6556.2	
640.91	6907.8	
641.09	8034.2	
641.28	9467.1	
641.47	6869.6	
641.66	7742.7	
641.85	8761.9	
642.03	9040.4	
642.22	7488.7	
642.41	6992.4	
642.6	8166.6	
642.79	7537.9	
642.97	6649.1	
643.16	7407.5	
643.35	8132.5	
643.54	7890.1	
643.73	6604	
643.91	7417.7	
644.1	7744.7	
644.29	8361.2	
644.48	6791.7	
644.67	6789	
644.85	7965.2	
645.04	8238.3	
645.23	6252.4	
645.42	6569.2	
645.6	7724.9	
645.79	9032.2	
645.98	6523.5	
646.17	5555.5	
646.36	7541.3	
646.54	8152.3	
646.73	7374.7	
646.92	6143.9	
647.11	7759.8	
647.29	8816.5	
647.48	6231.3	
647.67	5936.4	
647.86	9149.6	
648.05	9209.7	
648.23	6601.3	
648.42	7935.9	
648.61	8551	
648.8	8147.5	
648.98	6201.9	
649.17	6546.7	
649.36	7677.2	
649.55	7228	
649.73	6223.8	
649.92	7113.3	
650.11	7698.3	
650.3	7951.6	
650.48	6363.7	
650.67	6110.5	
650.86	8250.6	
651.05	7147.4	
651.23	6358.9	
651.42	6296.8	
651.61	7613.7	
651.79	7909.9	
651.98	6540.5	
652.17	6100.2	
652.36	8168.7	
652.54	7245	
652.73	6152.1	
652.92	6026.5	
653.11	8180.3	
653.29	8267.6	
653.48	5348.6	
653.67	6397.9	
653.85	7940	
654.04	9072.5	
654.23	6571.9	
654.42	6116.6	
654.6	7443	
654.79	8069.7	
654.98	5601.2	
655.16	6125.5	
655.35	7107.1	
655.54	6945.3	
655.73	5770.5	
655.91	5705	
656.1	8236.9	
656.29	7014.3	
656.47	5335	
656.66	7137.2	
656.85	7247.8	
657.03	7330.4	
657.22	5782.1	
657.41	5898.8	
657.59	7393.8	
657.78	7159	
657.97	5518.6	
658.16	6270.2	
658.34	8069	
658.53	8447.9	
658.72	7220.5	
658.9	7722.9	
659.09	7370	
659.28	7520.8	
659.46	5969.8	
659.65	5974.6	
659.84	7269.6	
660.02	7793.2	
660.21	5749.3	
660.4	5786.2	
660.58	8270.4	
660.77	7631.4	
660.96	6323.4	
661.14	5380.7	
661.33	8816.5	
661.52	8611.7	
661.7	5337	
661.89	9271.8	
662.08	7111.9	
662.26	6709.8	
662.45	5647.6	
662.64	5784.8	
662.82	7905.2	
663.01	7055.9	
663.2	5867.4	
663.38	6622.4	
663.57	7764.5	
663.75	7627.3	
663.94	6162.3	
664.13	7480.5	
664.31	7069.6	
664.5	7866.2	
664.69	6418.3	
664.87	6948.1	
665.06	6828.6	
665.25	7631.4	
665.43	7230	
665.62	7333.1	
665.8	8035.5	
665.99	7305.1	
666.18	6160.3	
666.36	6242.2	
666.55	7943.4	
666.74	7808.2	
666.92	5670.8	
667.11	7419.1	
667.29	7300.3	
667.48	7868.3	
667.67	7060.7	
667.85	6008.7	
668.04	7303.7	
668.22	7339.9	
668.41	6163.7	
668.6	6324.8	
668.78	7073.7	
668.97	7342.7	
669.15	6546	
669.34	5464	
669.53	7049.8	
669.71	7488.1	
669.9	5659.2	
670.08	6337.8	
670.27	7123.5	
670.46	7693.5	
670.64	6550.8	
670.83	6868.2	
671.01	6967.2	
671.2	7690.1	
671.38	5740.5	
671.57	5636	
671.76	8334.6	
671.94	8944.2	
672.13	5545.2	
672.31	6737.8	
672.5	7880.6	
672.69	7087.3	
672.87	5786.9	
673.06	6027.9	
673.24	7628	
673.43	7151.5	
673.61	6571.2	
673.8	6098.2	
673.98	7827.3	
674.17	8006.9	
674.36	6642.9	
674.54	6452.5	
674.73	7661.5	
674.91	7841	
675.1	6220.4	
675.28	5896.1	
675.47	7376.1	
675.65	7880.6	
675.84	5960.3	
676.03	6382.2	
676.21	7169.3	
676.4	6625.2	
676.58	6861.4	
676.77	6576	
676.95	8575.5	
677.14	7092.1	
677.32	5715.2	
677.51	5482.4	
677.69	7856.7	
677.88	6666.1	
678.06	5615.5	
678.25	5697.4	
678.44	7421.2	
678.62	7075	
678.81	5358.9	
678.99	6412.9	
679.18	8278.6	
679.36	7801.4	
679.55	5972.6	
679.73	6666.1	
679.92	7672.4	
680.1	7144.7	
680.29	7364.5	
680.47	5995.1	
680.66	7034.1	
680.84	7976.2	
681.03	5253.7	
681.21	6381.5	
681.4	7163.1	
681.58	6991.8	
681.77	5702.2	
681.95	5622.4	
682.14	7957	
682.32	8309.3	
682.51	6607.4	
682.69	5469.4	
682.88	7003.4	
683.06	7663.5	
683.25	6358.3	
683.43	6845	
683.62	7378.8	
683.8	7712	
683.99	6876.4	
684.17	6165.1	
684.36	8649.9	
684.54	7233.4	
684.73	5253	
684.91	5458.5	
685.1	7501.7	
685.28	6862.7	
685.46	6113.9	
685.65	6206.7	
685.83	7890.1	
686.02	7121.5	
686.2	5659.9	
686.39	5759.6	
686.57	7004.7	
686.76	8562.6	
686.94	5692.7	
687.13	5779.4	
687.31	7645.8	
687.5	7073	
687.68	5225.7	
687.86	6713.9	
688.05	8766.7	
688.23	6657.3	
688.42	6657.3	
688.6	5738.4	
688.79	7003.4	
688.97	7019.1	
689.16	6144.6	
689.34	5052.3	
689.52	7827.3	
689.71	7991.9	
689.89	6430.6	
690.08	5700.9	
690.26	7253.9	
690.45	7121.5	
690.63	6591.7	
690.81	5766.4	
691	7023.9	
691.18	7006.1	
691.37	6063.4	
691.55	8337.3	
691.74	6865.5	
691.92	9102.5	
692.1	5968.5	
692.29	5395.7	
692.47	7151.5	
692.66	6439.5	
692.84	5583.4	
693.02	6236.1	
693.21	6494.8	
693.39	7082.6	
693.58	6358.9	
693.76	5715.9	
693.94	8442.4	
694.13	8154.3	
694.31	5705.6	
694.5	6903.7	
694.68	7005.4	
694.86	7292.1	
695.05	6070.2	
695.23	6530.3	
695.42	7758.4	
695.6	10139	
695.78	6765.1	
695.97	5759.6	
696.15	7731.8	
696.34	7056.6	
696.52	5502.9	
696.7	6439.5	
696.89	7496.9	
697.07	6862.1	
697.25	6297.5	
697.44	7931.1	
697.62	7385	
697.81	7886	
697.99	6006	
698.17	6535.1	
698.36	6725.5	
698.54	7417.1	
698.72	6389	
698.91	5329.5	
699.09	7068.9	
699.28	6884.6	
699.46	6019.7	
699.64	5885.2	
699.83	6843.6	
700.01	8179.6	
700.19	6626.5	
700.38	5089.9	
700.56	8179.6	
700.74	6948.1	
700.93	5540.4	
701.11	6389	
701.29	7557.7	
701.48	8692.9	
701.66	5695.4	
701.84	5777.3	
702.03	7083.2	
702.21	7791.8	
702.39	5309.7	
702.58	5977.3	
702.76	7489.4	
702.94	7655.3	
703.13	5297.4	
703.31	7941.3	
703.49	6755.6	
703.68	7892.9	
703.86	5528.2	
704.04	6600.6	
704.23	7286	
704.41	7722.2	
704.59	5731.6	
704.78	7086.7	
704.96	8524.3	
705.14	7836.9	
705.33	5504.9	
705.51	6410.8	
705.69	7237.5	
705.87	8078.6	
706.06	6698.2	
706.24	5429.8	
706.42	7443	
706.61	7732.4	
706.79	6678.4	
706.97	5446.2	
707.16	6948.8	
707.34	7589.8	
707.52	6605.4	
707.7	5737	
707.89	7237.5	
708.07	6812.2	
708.25	6688	
708.44	6812.2	
708.62	7080.5	
708.8	8277.2	
708.98	7010.2	
709.17	5771.9	
709.35	7494.2	
709.53	7455.3	
709.72	5545.9	
709.9	6051.7	
710.08	7748.8	
710.26	7826.7	
710.45	7256.6	
710.63	5890.6	
710.81	7419.1	
710.99	7413.6	
711.18	6595.1	
711.36	6094.1	
711.54	7226.6	
711.72	8029.4	
711.91	6039.5	
712.09	5498.1	
712.27	7365.2	
712.45	8013.7	
712.64	6378.7	
712.82	5235.3	
713	6807.4	
713.18	6903.7	
713.37	5412.1	
713.55	6765.8	
713.73	7817.1	
713.91	6301.6	
714.1	5749.3	
714.28	5137.7	
714.46	7430.7	
714.64	6595.8	
714.83	4547.2	
715.01	5513.8	
715.19	6677.1	
715.37	6189	
715.55	5175.9	
715.74	5643.5	
715.92	7729	
716.1	5654.4	
716.28	6765.1	
716.47	5668.1	
716.65	6342.6	
716.83	6472.9	
717.01	5542.5	
717.19	5724.1	
717.38	8745.5	
717.56	6186.2	
717.74	5900.9	
717.92	4997	
718.1	7473.7	
718.29	6735.8	
718.47	4670.1	
718.65	5409.4	
718.83	7465.5	
719.01	7313.3	
719.2	4501.4	
719.38	5694	
719.56	6980.2	
719.74	8633.6	
719.92	5154.1	
720.11	6253.8	
720.29	7001.3	
720.47	5945.3	
720.65	4706.9	
720.83	5513.8	
721.02	6461.3	
721.2	6210.1	
721.38	5648.3	
721.56	4928.1	
721.74	5720	
721.92	5909.8	
722.11	6285.9	
722.29	5857.9	
722.47	7258	
722.65	6378.1	
722.83	4948.6	
723.01	5954.1	
723.2	6457.2	
723.38	6762.4	
723.56	4328	
723.74	5543.9	
723.92	5943.9	
724.1	7204.1	
724.29	4863.9	
724.47	6109.8	
724.65	6043.6	
724.83	5879.7	
725.01	4756.1	
725.19	5706.3	
725.37	6030.6	
725.56	6167.1	
725.74	4561.5	
725.92	4898.7	
726.1	5905.7	
726.28	6279.1	
726.46	5376.6	
726.64	5129.5	
726.83	6283.9	
727.01	6622.4	
727.19	4693.9	
727.37	5481.7	
727.55	6341.2	
727.73	6975.4	
727.91	4644.8	
728.09	4464.6	
728.28	6944	
728.46	7693.5	
728.64	5677.7	
728.82	5652.4	
729	8125	
729.18	7320.1	
729.36	4860.5	
729.54	7344	
729.72	8519.6	
729.91	6635.4	
730.09	6924.9	
730.27	5601.2	
730.45	6578.1	
730.63	7266.9	
730.81	6208.1	
730.99	5152.7	
731.17	7782.3	
731.35	6206	
731.53	5793.7	
731.71	5274.9	
731.9	7434.8	
732.08	7731.8	
732.26	5599.1	
732.44	5216.9	
732.62	7744.7	
732.8	7172	
732.98	6072.9	
733.16	4965	
733.34	7152.9	
733.52	5889.3	
733.7	5595.7	
733.88	5918.6	
734.07	7055.3	
734.25	6788.3	
734.43	5005.2	
734.61	6824.5	
734.79	8402.8	
734.97	6660	
735.15	5127.4	
735.33	5527.5	
735.51	7071	
735.69	6727.6	
735.87	6934.4	
736.05	5727.5	
736.23	6956.3	
736.41	6698.9	
736.59	5592.3	
736.77	5745.2	
736.95	7344.7	
737.13	6756.2	
737.32	5271.5	
737.5	5450.3	
737.68	8047.8	
737.86	6684.6	
738.04	5042.8	
738.22	7021.1	
738.4	6520.7	
738.58	6787.7	
738.76	5757.5	
738.94	4591.5	
739.12	6655.9	
739.3	6511.9	
739.48	6458.6	
739.66	6124.1	
739.84	6939.9	
740.02	6921.5	
740.2	4792.9	
740.38	5115.1	
740.56	7318.1	
740.74	6128.2	
740.92	5930.2	
741.1	5787.6	
741.28	6675.7	
741.46	6557.6	
741.64	5369.1	
741.82	5911.1	
742	6779.5	
742.18	6745.3	
742.36	5653.8	
742.54	5232.6	
742.72	7337.9	
742.9	6023.1	
743.08	6073.6	
743.26	4752.7	
743.44	7631.4	
743.62	7464.8	
743.8	6159.6	
743.98	5190.2	
744.16	7158.3	
744.34	6787.7	
744.52	6110.5	
744.7	6001.9	
744.88	7318.8	
745.06	6821.1	
745.24	6168.5	
745.42	6318.7	
745.6	7357	
745.78	7092.1	
745.96	4906.9	
746.14	5216.9	
746.32	8194.6	
746.5	7417.1	
746.68	5889.3	
746.86	5302.9	
747.03	7868.3	
747.21	5997.8	
747.39	5855.1	
747.57	5274.9	
747.75	7004.7	
747.93	7423.2	
748.11	5302.2	
748.29	5168.4	
748.47	8689.5	
748.65	6673	
748.83	6015.6	
749.01	5783.5	
749.19	7180.9	
749.37	6376.7	
749.55	5638.7	
749.73	5739.1	
749.91	6821.8	
750.09	6552.1	
750.26	5753.4	
750.44	5132.9	
750.62	6926.9	
750.8	6873	
750.98	4986.8	
751.16	5331.5	
751.34	6946.7	
751.52	6228.6	
751.7	6156.2	
751.88	4991.6	
752.06	7507.9	
752.24	7215	
752.42	4900.8	
752.59	5304.9	
752.77	6845	
752.95	8193.2	
753.13	6058.6	
753.31	5472.2	
753.49	6548	
753.67	7034.1	
753.85	5760.9	
754.03	5310.4	
754.21	7287.4	
754.38	7664.9	
754.56	5446.2	
754.74	4434.5	
754.92	6455.9	
755.1	7252.5	
755.28	4495.3	
755.46	4465.9	
755.64	7879.9	
755.82	7922.9	
755.99	4614.8	
756.17	4676.9	
756.35	5132.9	
756.53	6849.1	
756.71	3435.1	
756.89	4455	
757.07	6455.9	
757.25	5464.7	
757.42	5098.8	
757.6	6112.5	
757.78	6657.3	
757.96	5550	
758.14	4787.5	
758.32	4336.2	
758.5	5027.8	
758.67	6028.5	
758.85	4571.1	
759.03	4788.8	
759.21	6173.3	
759.39	5581.4	
759.57	4229.1	
759.75	5466	
759.92	6828.6	
760.1	6027.2	
760.28	5875.6	
760.46	6113.9	
760.64	5877.7	
760.82	5583.4	
760.99	5687.2	
761.17	4803.2	
761.35	6728.3	
761.53	5725.4	
761.71	4983.4	
761.89	5765.7	
762.06	6690	
762.24	6133.7	
762.42	5107.6	
762.6	4870.1	
762.78	6180.8	
762.96	6881.9	
763.13	5558.2	
763.31	5241.4	
763.49	7088	
763.67	6152.8	
763.85	6122.1	
764.02	6726.2	
764.2	7357	
764.38	6404.7	
764.56	4988.9	
764.74	6023.1	
764.91	7487.4	
765.09	6247	
765.27	4718.5	
765.45	4499.4	
765.63	7498.3	
765.8	7353.6	
765.98	4177.2	
766.16	4579.3	
766.34	5770.5	
766.52	5565	
766.69	5654.4	
766.87	4361.5	
767.05	6300.9	
767.23	7043.6	
767.41	4731.5	
767.58	4973.8	
767.76	6787.7	
767.94	6918.7	
768.12	4816.1	
768.29	5635.3	
768.47	6371.9	
768.65	7076.4	
768.83	4423.6	
769	5645.6	
769.18	5803.9	
769.36	6623.8	
769.54	5590.3	
769.72	4488.5	
769.89	6780.1	
770.07	7038.2	
770.25	4790.9	
770.43	6148	
770.6	7621.9	
770.78	8159.1	
770.96	4988.9	
771.14	5676.3	
771.31	6718	
771.49	6040.8	
771.67	4047.5	
771.85	4326	
772.02	5266.7	
772.2	6006	
772.38	5146.5	
772.55	4589.5	
772.73	6327.5	
772.91	6085.2	
773.09	4977.2	
773.26	5103.5	
773.44	6298.2	
773.62	5896.1	
773.8	4439.3	
773.97	4156.7	
774.15	6311.8	
774.33	5855.8	
774.5	4365.6	
774.68	4711.7	
774.86	6548.7	
775.04	5916.6	
775.21	4386.7	
775.39	4382.7	
775.57	6189.6	
775.74	6683.2	
775.92	4172.4	
776.1	4094.6	
776.27	6133	
776.45	7462.1	
776.63	4311.7	
776.81	3885.7	
776.98	5793.7	
777.16	6963.1	
777.34	4518.5	
777.51	4876.2	
777.69	5727.5	
777.87	5475.6	
778.04	4490.5	
778.22	5221	
778.4	5513.1	
778.57	6199.2	
778.75	3753.9	
778.93	4020.2	
779.1	5314.5	
779.28	5151.3	
779.46	3788.1	
779.64	4336.9	
779.81	6408.8	
779.99	7377.5	
780.17	5174.5	
780.34	5336.3	
780.52	5803.9	
780.69	6068.8	
780.87	4686.4	
781.05	4126	
781.22	5872.9	
781.4	5915.2	
781.58	4325.3	
781.75	3420.8	
781.93	5946.6	
782.11	5251	
782.28	5259.2	
782.46	4287.8	
782.64	5076.2	
782.81	6056.5	
782.99	4403.1	
783.17	4369	
783.34	5950.7	
783.52	5111	
783.69	4521.2	
783.87	5440.8	
784.05	5145.9	
784.22	5203.9	
784.4	5425.1	
784.58	4620.2	
784.75	6197.2	
784.93	5208	
785.1	4293.9	
785.28	4942.4	
785.46	5915.9	
785.63	5170.4	
785.81	4203.8	
785.99	4099.4	
786.16	5328.8	
786.34	5823.7	
786.51	4105.5	
786.69	4567.7	
786.87	4939	
787.04	5552	
787.22	3929.4	
787.39	5014.1	
787.57	5166.3	
787.75	6425.2	
787.92	5135.6	
788.1	5150	
788.27	5227.1	
788.45	4993.6	
788.63	4816.1	
788.8	3450.8	
788.98	5593	
789.15	4896.7	
789.33	3594.2	
789.5	4310.3	
789.68	6215.6	
789.86	6301.6	
790.03	4748.6	
790.21	4098	
790.38	6108.4	
790.56	5302.2	
790.73	3928.7	
790.91	3957.4	
791.09	5225.7	
791.26	6021.7	
791.44	4212.7	
791.61	3634.5	
791.79	5188.2	
791.96	5247.6	
792.14	3697.9	
792.32	3285.6	
792.49	5252.4	
792.67	5257.1	
792.84	3814	
793.02	3608.5	
793.19	5707.7	
793.37	6503.7	
793.54	3343.7	
793.72	3689.8	
793.89	6563.7	
794.07	5216.2	
794.25	4242	
794.42	3369.6	
794.6	6279.8	
794.77	5946.6	
794.95	4714.4	
795.12	4050.2	
795.3	5181.4	
795.47	5857.9	
795.65	4394.3	
795.82	4257	
796	4920.6	
796.17	7110.5	
796.35	4101.4	
796.52	4902.2	
796.7	5773.2	
796.87	5853.8	
797.05	5115.8	
797.22	5066	
797.4	5816.9	
797.57	6904.4	
797.75	4269.3	
797.92	3996.3	
798.1	6148.7	
798.27	5134.9	
798.45	3401.7	
798.62	3702.7	
798.8	5515.9	
798.97	6044.2	
799.15	4538.3	
799.32	4330.1	
799.5	4677.6	
799.67	5621	
799.85	4637.3	
800.02	3321.1	
800.2	5153.4	
800.37	5503.6	
800.55	4841.4	
800.72	3983.3	
800.9	5993.7	
801.07	6386.9	
801.25	5401.2	
801.42	4409.3	
801.6	6054.5	
801.77	5745.9	
801.95	4076.1	
802.12	3906.2	
802.29	5748	
802.47	5699.5	
802.64	4346.5	
802.82	3276.1	
802.99	5119.9	
803.17	6277	
803.34	4305.5	
803.52	3867.2	
803.69	6914.6	
803.87	4896.7	
804.04	4227.7	
804.21	4326	
804.39	6313.9	
804.56	5403.9	
804.74	3598.3	
804.91	4415.4	
805.09	5140.4	
805.26	5294.7	
805.44	3655.6	
805.61	3992.2	
805.78	5812.8	
805.96	5870.2	
806.13	4419.5	
806.31	4771.8	
806.48	4655	
806.66	5262.6	
806.83	4384	
807	4307.6	
807.18	5111	
807.35	5573.2	
807.53	4298	
807.7	3420.8	
807.87	6435.4	
808.05	5195	
808.22	4708.3	
808.4	3397.6	
808.57	5179.3	
808.74	4820.9	
808.92	3880.9	
809.09	5018.9	
809.27	5056.4	
809.44	5731.6	
809.61	3460.4	
809.79	3822.9	
809.96	6397.2	
810.14	6019	
810.31	3322.5	
810.48	4115.7	
810.66	5302.9	
810.83	6117.3	
811.01	3895.2	
811.18	4385.4	
811.35	5965.7	
811.53	4620.9	
811.7	4760.8	
811.87	4389.5	
812.05	5216.9	
812.22	5123.3	
812.39	3824.2	
812.57	3639.2	
812.74	5189.6	
812.92	6980.2	
813.09	4036.5	
813.26	4490.5	
813.44	6675	
813.61	5114.5	
813.78	3426.9	
813.96	4614.1	
814.13	5242.8	
814.3	4851	
814.48	5025.7	
814.65	4114.4	
814.82	6556.2	
815	4951.3	
815.17	4200.4	
815.34	5276.9	
815.52	5070.8	
815.69	5116.5	
815.87	4228.4	
816.04	4102.8	
816.21	5227.1	
816.38	4568.3	
816.56	4099.4	
816.73	3751.9	
816.9	6649.1	
817.08	6070.9	
817.25	3776.5	
817.42	4893.3	
817.6	4777.9	
817.77	5302.2	
817.94	4313.7	
818.12	3777.1	
818.29	4979.3	
818.46	7874.4	
818.64	3884.3	
818.81	3659.7	
818.98	4854.4	
819.16	7193.8	
819.33	4517.1	
819.5	4207.2	
819.67	5618.9	
819.85	6236.1	
820.02	4111.6	
820.19	4340.3	
820.37	5431.2	
820.54	4972.5	
820.71	4330.8	
820.88	5375.9	
821.06	5425.1	
821.23	4961.5	
821.4	4347.2	
821.58	4228.4	
821.75	5996.5	
821.92	5362.9	
822.09	3434.4	
822.27	3557.3	
822.44	5279.7	
822.61	5078.3	
822.79	3430.3	
822.96	6805.4	
823.13	5760.9	
823.3	4870.1	
823.48	4066.6	
823.65	3624.2	
823.82	5974.6	
823.99	4716.5	
824.17	5102.9	
824.34	3720.5	
824.51	6939.2	
824.68	5307	
824.86	3816	
825.03	4322.6	
825.2	5246.2	
825.37	6371.2	
825.55	3796.3	
825.72	4288.4	
825.89	7002	
826.06	6489.3	
826.24	4125.3	
826.41	4182.6	
826.58	6324.1	
826.75	5479	
826.92	3218	
827.1	3644.7	
827.27	8817.9	
827.44	7017.7	
827.61	3868.6	
827.79	4786.8	
827.96	4965.6	
828.13	5292	
828.3	4078.9	
828.47	3426.3	
828.65	5374.6	
828.82	5418.2	
828.99	5337.7	
829.16	4770.4	
829.34	5825.8	
829.51	5604.6	
829.68	4265.9	
829.85	4407.2	
830.02	6149.4	
830.2	5846.3	
830.37	3287.7	
830.54	5162.2	
830.71	6716	
830.88	5151.3	
831.05	3373	
831.23	3854.3	
831.4	6409.5	
831.57	7266.2	
831.74	3962.8	
831.91	3459.7	
832.09	5419.6	
832.26	5847	
832.43	4081.6	
832.6	4606.6	
832.77	5449.6	
832.94	6188.3	
833.12	3205.8	
833.29	4053.6	
833.46	5590.3	
833.63	7518.8	
833.8	4419.5	
833.97	4143	
834.15	5855.1	
834.32	5587.5	
834.49	4254.3	
834.66	4324.6	
834.83	6097.5	
835	4940.4	
835.17	3925.3	
835.35	3956	
835.52	5696.1	
835.69	5661.3	
835.86	4186	
836.03	3434.4	
836.2	5722.7	
836.37	5388.2	
836.55	4078.9	
836.72	3842.7	
836.89	5325.4	
837.06	5876.3	
837.23	4173.8	
837.4	4556	
837.57	6690.7	
837.75	7438.9	
837.92	3742.3	
838.09	4020.8	
838.26	5399.1	
838.43	6159.6	
838.6	4298	
838.77	3886.4	
838.94	7108.5	
839.11	6723.5	
839.29	4088.4	
839.46	3215.3	
839.63	5750.7	
839.8	5544.5	
839.97	3956	
840.14	3900	
840.31	5528.8	
840.48	5840.8	
840.65	3244.7	
840.82	3874.1	
841	5838.1	
841.17	5760.3	
841.34	3633.8	
841.51	3708.2	
841.68	5759.6	
841.85	5481.7	
842.02	3815.4	
842.19	3141.6	
842.36	5507.7	
842.53	5535.7	
842.7	3614.7	
842.87	4512.4	
843.05	7401.4	
843.22	5492	
843.39	3455.6	
843.56	3719.1	
843.73	5247.6	
843.9	5890	
844.07	6018.3	
844.24	4989.5	
844.41	8712.1	
844.58	5024.3	
844.75	3448.8	
844.92	3796.9	
845.09	5822.4	
845.26	5763.7	
845.43	3586.7	
845.6	3839.3	
845.77	5798.5	
845.94	5515.2	
846.12	4022.2	
846.29	4298	
846.46	6027.9	
846.63	5821.7	
846.8	3636.5	
846.97	4310.3	
847.14	6310.5	
847.31	5758.9	
847.48	4066.6	
847.65	4466.6	
847.82	6143.2	
847.99	6109.8	
848.16	4976.6	
848.33	4496	
848.5	5319.3	
848.67	6350.1	
848.84	3616.7	
849.01	3775.1	
849.18	5171.1	
849.35	4871.4	
849.52	4627.7	
849.69	3560.7	
849.86	6064	
850.03	6275	
850.2	3624.9	
850.37	4461.8	
850.54	6218.3	
850.71	5489.2	
850.88	4320.5	
851.05	3571.7	
851.22	5692	
851.39	6415.6	
851.56	3421.5	
851.73	4153.3	
851.9	5083.1	
852.07	6052.4	
852.24	4084.3	
852.41	3598.3	
852.58	5603.2	
852.75	5190.2	
852.92	4025.6	
853.09	3553.9	
853.26	5378.6	
853.43	6309.1	
853.6	3599	
853.77	3069.9	
853.94	6378.7	
854.11	5778.7	
854.28	5464.7	
854.44	3894.6	
854.61	6865.5	
854.78	6178.7	
854.95	3532.7	
855.12	4573.1	
855.29	4663.2	
855.46	6539.8	
855.63	3592.8	
855.8	5053	
855.97	5378	
856.14	6176.7	
856.31	5186.8	
856.48	3883.6	
856.65	5354.8	
856.82	5035.3	
856.99	3493.2	
857.16	3931.4	
857.33	7139.2	
857.49	5460.6	
857.66	3895.2	
857.83	4235.2	
858	5411.4	
858.17	5726.8	
858.34	3439.9	
858.51	3639.2	
858.68	6542.6	
858.85	6612.2	
859.02	4190.1	
859.19	4456.4	
859.36	5057.1	
859.52	5136.3	
859.69	3653.6	
859.86	4255	
860.03	5173.2	
860.2	6439.5	
860.37	3292.5	
860.54	3661.1	
860.71	6098.2	
860.88	6514.6	
861.05	4081.6	
861.21	4526	
861.38	6553.5	
861.55	4975.2	
861.72	3243.3	
861.89	4074.8	
862.06	6135.7	
862.23	6704.4	
862.4	3513.6	
862.56	3789.4	
862.73	5949.3	
862.9	5568.4	
863.07	4225.6	
863.24	3264.5	
863.41	4949.3	
863.58	5081.7	
863.75	3723.2	
863.91	4182	
864.08	6417	
864.25	6027.2	
864.42	4579.9	
864.59	5194.3	
864.76	6804.7	
864.93	5057.8	
865.09	3503.4	
865.26	3794.2	
865.43	6311.8	
865.6	6771.3	
865.77	3097.2	
865.94	3548.4	
866.1	6428.6	
866.27	6068.8	
866.44	5511.8	
866.61	3414.6	
866.78	5508.4	
866.95	5993.7	
867.11	3507.5	
867.28	3233.1	
867.45	6216.3	
867.62	5227.8	
867.79	4201.1	
867.96	3614	
868.12	5117.2	
868.29	6102.9	
868.46	3601	
868.63	4824.3	
868.8	6335.7	
868.97	6011.5	
869.13	3731.4	
869.3	3768.9	
869.47	5927.5	
869.64	6195.1	
869.81	3621.5	
869.97	3641.3	
870.14	5773.9	
870.31	6512.5	
870.48	3468.6	
870.65	4568.3	
870.81	5449	
870.98	5390.3	
871.15	4118.5	
871.32	3788.7	
871.48	5879	
871.65	6605.4	
871.82	3624.9	
871.99	3971.7	
872.16	6985.6	
872.32	6380.8	
872.49	3645.4	
872.66	3670.6	
872.83	6062	
872.99	5305.6	
873.16	4205.2	
873.33	3549.1	
873.5	5651.7	
873.67	5691.3	
873.83	3774.4	
874	4846.2	
874.17	5780.1	
874.34	6921.5	
874.5	4662.5	
874.67	4540.3	
874.84	6507.1	
875.01	5081.7	
875.17	5130.2	
875.34	3605.1	
875.51	5743.9	
875.68	6961.7	
875.84	4356	
876.01	5364.3	
876.18	6042.9	
876.34	5968.5	
876.51	3680.2	
876.68	3505.4	
876.85	5495.4	
877.01	6346.7	
877.18	5141.1	
877.35	3556	
877.52	5559.6	
877.68	4964.3	
877.85	3480.2	
878.02	3532.1	
878.18	5552.7	
878.35	5311.1	
878.52	2899.9	
878.69	4055.7	
878.85	6092	
879.02	5995.8	
879.19	5169.1	
879.35	3930.7	
879.52	6032.6	
879.69	6187.6	
879.86	3067.9	
880.02	3999	
880.19	5560.2	
880.36	6847.7	
880.52	4136.2	
880.69	4272.1	
880.86	6107.7	
881.02	6219	
881.19	3908.9	
881.36	3965.6	
881.52	5976	
881.69	5310.4	
881.86	3856.3	
882.02	3857.7	
882.19	6305	
882.36	7331.7	
882.52	3708.9	
882.69	5143.1	
882.86	5758.9	
883.02	5662	
883.19	4465.3	
883.36	4161.5	
883.52	6098.9	
883.69	6958.3	
883.86	3657	
884.02	3270.6	
884.19	6105	
884.36	5556.1	
884.52	4106.2	
884.69	3771.7	
884.86	5329.5	
885.02	6715.3	
885.19	4095.3	
885.36	4214.7	
885.52	5647.6	
885.69	5794.4	
885.86	5212.1	
886.02	4653.7	
886.19	6053.8	
886.35	5531.6	
886.52	3997	
886.69	5113.1	
886.85	5162.2	
887.02	6470.9	
887.19	6470.9	
887.35	6470.9	
887.52	6470.9	
887.68	6470.9	
887.85	6470.9	
888.02	6470.9	
888.18	6470.9	
888.35	6470.9	
888.51	6470.9	
888.68	6470.9	
888.85	6470.9	
889.01	6470.9	
889.18	6470.9	
889.35	6470.9	
889.51	6470.9	
889.68	6470.9	
889.84	6470.9	
890.01	6470.9	
890.17	6470.9	
890.34	6470.9	
890.51	6470.9	
890.67	6470.9	
890.84	6470.9	
891	6470.9	
891.17	6470.9	
891.34	6470.9	
891.5	6470.9	
891.67	6470.9	
891.83	6470.9	
892	6470.9	
892.16	6470.9	
892.33	6470.9	
892.5	6470.9	
892.66	6470.9	
892.83	6470.9	
892.99	6470.9	
893.16	6470.9	
893.32	6470.9	
893.49	6470.9	
893.65	6470.9	
893.82	6470.9	
893.99	6470.9	
894.15	6470.9	
894.32	6470.9	
894.48	6470.9	
894.65	6470.9	
894.81	6470.9	
894.98	6470.9	
895.14	6470.9	
895.31	6470.9	
895.47	6470.9	
895.64	6470.9	
895.81	6470.9	
895.97	6470.9	
896.14	6470.9	
896.3	6470.9	
896.47	6470.9	
896.63	6470.9	
896.8	6470.9	
896.96	6470.9	
897.13	6470.9	
897.29	6470.9	
897.46	6470.9	
897.62	6470.9	
897.79	6470.9	
897.95	6470.9	
898.12	6470.9	
898.28	6470.9	
898.45	6470.9	
898.61	6470.9	
898.78	6470.9	
898.94	6470.9	
899.11	6470.9	
899.27	6470.9	
899.44	6470.9	
899.6	6470.9	
899.77	6470.9	
899.93	6470.9	
900.1	6470.9	
900.26	6470.9	
900.43	6470.9	
900.59	6470.9	
900.76	6470.9	
900.92	6470.9	
901.09	6470.9	
901.25	6470.9	
901.42	6470.9	
901.58	6470.9	
901.75	6470.9	
901.91	6470.9	
902.07	6470.9	
902.24	6470.9	
902.4	6470.9	
902.57	6470.9	
902.73	6470.9	
902.9	6470.9	
903.06	6470.9	
903.23	6470.9	
903.39	6470.9	
903.56	6470.9	
903.72	6470.9	
903.88	6470.9	
904.05	6470.9	
904.21	6470.9	
904.38	6470.9	
904.54	6470.9	
904.71	6470.9	
904.87	6470.9	
905.03	6470.9	
905.2	6470.9	
905.36	6470.9	
905.53	6470.9	
905.69	6470.9	
905.86	6470.9	
906.02	6470.9	
906.18	6470.9	
906.35	6470.9	
906.51	6470.9	
906.68	6470.9	
906.84	6470.9	
907.01	6470.9	
907.17	6470.9	
907.33	6470.9	
907.5	6470.9	
907.66	6470.9	
907.83	6470.9	
907.99	6470.9	
908.15	6470.9	
908.32	6470.9	
908.48	6470.9	
908.65	6470.9	
908.81	6470.9	
908.97	6470.9	
909.14	6470.9	
909.3	6470.9	
909.47	6470.9	
909.63	6470.9	
909.79	6470.9	
909.96	6470.9	
910.12	6470.9	
910.28	6470.9	
910.45	6470.9	
910.61	6470.9	
910.78	6470.9	
910.94	6470.9	
911.1	6470.9	
911.27	6470.9	
911.43	6470.9	
911.59	6470.9	
911.76	6470.9	
911.92	6470.9	
912.08	6470.9	
912.25	6470.9	
912.41	6470.9	
912.57	6470.9	
912.74	6470.9	
912.9	6470.9	
913.07	6470.9	
913.23	6470.9	
913.39	6470.9	
913.56	6470.9	
913.72	6470.9	
913.88	6470.9	
914.05	6470.9	
914.21	6470.9	
914.37	6470.9	
914.54	6470.9	
914.7	6470.9	
914.86	6470.9	
915.03	6470.9	
915.19	6470.9	
