Wavelength	Intensities	
nm	a.u.	
179.22	1764.5	
179.44	1743.2	
179.65	1785.8	
179.86	1700.5	
180.08	1748.3	
180.29	4205.2	
180.51	3140.2	
180.72	5185.5	
180.94	5856.5	
181.15	2869.2	
181.37	2877.4	
181.58	4972.5	
181.79	5264.6	
182.01	3014.6	
182.22	3194.1	
182.44	5261.2	
182.65	4452.3	
182.87	3888.4	
183.08	3491.8	
183.29	5450.3	
183.51	4549.2	
183.72	3188.7	
183.94	4558.1	
184.15	4930.1	
184.37	4870.8	
184.58	2822.1	
184.79	3745.1	
185.01	4622.9	
185.22	5190.2	
185.44	3928	
185.65	3348.4	
185.86	4917.2	
186.08	4547.2	
186.29	2689.7	
186.51	2954.5	
186.72	4629.8	
186.94	5429.2	
187.15	3364.8	
187.36	3449.5	
187.58	6737.8	
187.79	5011.4	
188.01	3594.9	
188.22	5457.8	
188.43	5975.3	
188.65	5250.3	
188.86	2990.7	
189.08	3487.7	
189.29	4810	
189.5	4701.5	
189.72	3207.8	
189.93	3246.7	
190.15	5406	
190.36	6276.3	
190.57	3541.6	
190.79	3411.9	
191	5474.9	
191.22	5397.8	
191.43	3530.7	
191.64	2998.2	
191.86	5603.2	
192.07	5384.1	
192.29	3086.3	
192.5	3186	
192.71	5386.2	
192.93	4751.3	
193.14	3205.8	
193.35	3312.2	
193.57	4743.1	
193.78	5449.6	
194	2671.2	
194.21	3156.6	
194.42	4611.3	
194.64	4961.5	
194.85	3467.9	
195.07	4007.9	
195.28	4885.1	
195.49	4376.5	
195.71	4203.1	
195.92	3017.3	
196.13	5078.3	
196.35	5154.1	
196.56	4521.9	
196.78	3452.9	
196.99	6273.6	
197.2	5834.7	
197.42	3902.1	
197.63	3508.9	
197.84	4454.3	
198.06	5077.6	
198.27	3230.3	
198.48	4174.4	
198.7	4711	
198.91	4886.5	
199.13	3494.5	
199.34	3537.5	
199.55	5274.2	
199.77	4320.5	
199.98	3129.3	
200.19	3603.1	
200.41	4801.1	
200.62	4556.7	
200.83	3651.5	
201.05	3834.5	
201.26	4923.3	
201.47	4631.8	
201.69	3158	
201.9	3024.2	
202.11	4899.4	
202.33	5702.2	
202.54	3312.9	
202.76	3747.8	
202.97	4961.5	
203.18	5098.8	
203.4	3612.6	
203.61	3610.6	
203.82	4985.4	
204.04	4622.9	
204.25	3593.5	
204.46	3439.9	
204.68	4942.4	
204.89	5138.4	
205.1	3403.7	
205.32	2981.2	
205.53	5243.5	
205.74	5416.2	
205.96	2631	
206.17	3618.1	
206.38	5210	
206.6	5326.1	
206.81	3994.9	
207.02	3267.9	
207.24	5200.5	
207.45	5502.9	
207.66	3329.3	
207.88	2951.1	
208.09	5042.1	
208.3	4957.4	
208.52	3164.8	
208.73	3417.4	
208.94	4956.1	
209.15	5472.2	
209.37	3350.5	
209.58	3801.7	
209.79	5384.8	
210.01	4801.8	
210.22	2754.5	
210.43	2856.9	
210.65	4928.8	
210.86	5274.2	
211.07	3342.3	
211.29	3099.9	
211.5	5198.4	
211.71	4853.7	
211.93	3089	
212.14	3090.4	
212.35	4880.3	
212.56	5018.9	
212.78	3510.9	
212.99	2910.8	
213.2	5725.4	
213.42	4750.6	
213.63	3229	
213.84	3426.3	
214.06	4435.9	
214.27	4507.6	
214.48	3319.1	
214.69	3567.6	
214.91	5481.7	
215.12	5528.8	
215.33	3589.4	
215.55	3900.7	
215.76	5913.9	
215.97	5217.5	
216.18	3408.5	
216.4	3452.9	
216.61	4621.6	
216.82	5306.3	
217.04	3166.8	
217.25	3239.9	
217.46	5392.3	
217.67	5302.2	
217.89	2854.2	
218.1	2906.1	
218.31	5023.7	
218.53	5084.4	
218.74	3310.2	
218.95	3144.3	
219.16	4878.9	
219.38	5668.8	
219.59	3190.7	
219.8	3756.7	
220.01	6120	
220.23	4958.8	
220.44	4074.8	
220.65	3055.6	
220.87	5000.5	
221.08	5447.6	
221.29	2932	
221.5	3762.1	
221.72	6458.6	
221.93	4701.5	
222.14	3558	
222.35	4089.1	
222.57	4977.9	
222.78	5287.2	
222.99	3403.7	
223.2	3627.6	
223.42	5161.6	
223.63	5298.1	
223.84	2605.7	
224.05	2663	
224.27	6045.6	
224.48	5680.4	
224.69	4122.6	
224.9	3506.8	
225.12	5119.9	
225.33	4911	
225.54	2863.1	
225.75	3169.6	
225.97	4536.3	
226.18	4824.3	
226.39	3391.4	
226.6	3153.9	
226.82	4718.5	
227.03	4603.2	
227.24	3545	
227.45	2935.4	
227.67	5272.2	
227.88	5606.7	
228.09	3953.9	
228.3	3857.7	
228.52	5293.3	
228.73	4937	
228.94	3301.3	
229.15	2941.6	
229.36	4859.1	
229.58	4795	
229.79	3315.7	
230	3782.6	
230.21	5808.7	
230.43	5008	
230.64	3472.7	
230.85	3674.7	
231.06	5315.2	
231.28	5317.2	
231.49	2927.9	
231.7	3482.2	
231.91	5203.2	
232.12	4902.8	
232.34	3046	
232.55	3399.6	
232.76	5449	
232.97	5061.2	
233.18	3137.5	
233.4	3515	
233.61	5141.1	
233.82	4694.6	
234.03	3282.2	
234.25	3211.9	
234.46	6594.5	
234.67	4926	
234.88	3621.5	
235.09	3168.2	
235.31	5175.2	
235.52	4875.5	
235.73	3481.5	
235.94	2974.3	
236.15	4710.3	
236.37	5841.5	
236.58	3082.2	
236.79	3366.9	
237	5152.7	
237.21	4528.7	
237.43	3583.3	
237.64	2861.7	
237.85	8305.9	
238.06	4588.8	
238.27	3626.3	
238.48	3013.9	
238.7	5193.6	
238.91	4791.6	
239.12	3308.2	
239.33	3410.6	
239.54	4703.5	
239.76	4848.2	
239.97	3358	
240.18	3346.4	
240.39	6008.7	
240.6	5194.3	
240.82	3527.3	
241.03	2916.3	
241.24	4909	
241.45	5667.4	
241.66	3084.9	
241.87	3648.1	
242.09	5520	
242.3	5814.2	
242.51	3648.1	
242.72	3435.1	
242.93	5354.1	
243.14	4887.1	
243.36	3846.8	
243.57	4183.3	
243.78	5672.2	
243.99	5280.3	
244.2	3354.6	
244.41	3081.5	
244.63	4551.3	
244.84	5134.9	
245.05	3617.4	
245.26	3283.6	
245.47	5204.6	
245.68	5296	
245.9	4444.1	
246.11	3538.2	
246.32	4799.8	
246.53	5166.3	
246.74	5386.2	
246.95	2852.8	
247.16	4581.3	
247.38	4934.9	
247.59	2899.9	
247.8	3416	
248.01	4612.7	
248.22	4904.2	
248.43	3106.8	
248.64	3291.8	
248.86	4433.9	
249.07	4709	
249.28	3068.5	
249.49	3489.1	
249.7	5415.5	
249.91	5408.7	
250.12	2876.7	
250.34	2985.9	
250.55	4998.4	
250.76	4941.1	
250.97	3449.5	
251.18	3527.3	
251.39	5442.1	
251.6	5036	
251.81	3556.6	
252.03	3506.8	
252.24	4714.4	
252.45	5242.8	
252.66	2945.7	
252.87	3700	
253.08	4959.5	
253.29	6227.9	
253.5	2988.7	
253.72	4037.9	
253.93	4810	
254.14	5756.8	
254.35	3268.6	
254.56	3327.3	
254.77	5107	
254.98	4628.4	
255.19	3211.9	
255.41	4012.7	
255.62	5006.6	
255.83	5477.6	
256.04	3610.6	
256.25	3543.7	
256.46	6006.7	
256.67	4675.5	
256.88	3489.7	
257.09	3872	
257.31	4592.9	
257.52	4659.8	
257.73	4288.4	
257.94	3246	
258.15	4823	
258.36	4971.1	
258.57	4028.4	
258.78	2658.3	
258.99	5341.8	
259.2	4795	
259.41	3179.1	
259.63	3314.3	
259.84	5627.1	
260.05	5967.8	
260.26	4131.4	
260.47	3144.3	
260.68	5381.4	
260.89	4850.3	
261.1	3893.2	
261.31	3063.1	
261.52	5433.3	
261.73	5724.1	
261.95	4149.2	
262.16	3663.1	
262.37	5519.3	
262.58	5606.7	
262.79	4121.9	
263	3300.6	
263.21	4949.9	
263.42	4760.2	
263.63	3349.8	
263.84	3293.8	
264.05	5354.1	
264.26	5649	
264.47	3930.7	
264.69	3605.1	
264.9	5554.8	
265.11	5102.9	
265.32	3138.9	
265.53	3180.5	
265.74	5017.5	
265.95	4430.4	
266.16	3439.9	
266.37	3793.5	
266.58	5031.9	
266.79	4795.7	
267	3259.7	
267.21	3000.3	
267.42	4582	
267.63	4904.2	
267.84	3377.8	
268.06	2908.8	
268.27	5233.9	
268.48	5496.1	
268.69	3310.2	
268.9	3828.3	
269.11	5522	
269.32	4496.7	
269.53	3397.6	
269.74	3130.7	
269.95	5189.6	
270.16	4418.8	
270.37	3403	
270.58	3859.1	
270.79	4782.7	
271	5360.9	
271.21	3558.7	
271.42	3440.6	
271.63	5074.2	
271.84	4619.5	
272.05	2813.9	
272.26	3065.1	
272.47	4968.4	
272.68	5076.2	
272.89	3258.3	
273.11	3740.3	
273.32	4760.2	
273.53	5671.5	
273.74	3615.3	
273.95	3505.4	
274.16	5355.4	
274.37	4967.7	
274.58	3710.9	
274.79	3069.2	
275	5108.3	
275.21	5423.7	
275.42	4351.9	
275.63	3786.7	
275.84	5162.2	
276.05	6292.7	
276.26	3520.5	
276.47	3347.1	
276.68	4762.2	
276.89	5767.8	
277.1	3810.6	
277.31	2949.1	
277.52	5111.7	
277.73	5350.7	
277.94	2957.3	
278.15	3277.4	
278.36	5109.7	
278.57	4723.3	
278.78	3265.1	
278.99	3606.5	
279.2	4677.6	
279.41	4569.7	
279.62	4246.8	
279.83	3024.2	
280.04	5919.3	
280.25	4556.7	
280.46	4158.1	
280.67	3340.2	
280.88	4603.8	
281.09	5498.1	
281.3	3531.4	
281.51	4402.5	
281.72	4733.5	
281.93	5393	
282.14	3183.9	
282.35	3351.8	
282.56	5384.1	
282.77	5347.2	
282.98	3225.6	
283.19	3923.2	
283.4	6386.9	
283.61	4887.8	
283.82	3019.4	
284.03	4106.2	
284.24	5096	
284.45	5494.7	
284.66	4146.5	
284.87	3956	
285.08	5444.9	
285.29	5474.9	
285.5	2945.7	
285.71	3345.7	
285.92	5422.3	
286.12	5972.6	
286.33	4099.4	
286.54	3347.1	
286.75	5322	
286.96	4829.1	
287.17	3083.6	
287.38	4021.5	
287.59	4682.3	
287.8	4612	
288.01	3327.9	
288.22	3772.4	
288.43	5328.8	
288.64	4518.5	
288.85	3881.6	
289.06	3692.5	
289.27	5337.7	
289.48	5632.6	
289.69	4162.2	
289.9	3775.8	
290.11	5483.8	
290.32	4702.8	
290.53	3946.4	
290.74	3575.8	
290.94	5294	
291.15	5319.9	
291.36	3134.1	
291.57	3739.6	
291.78	4765.6	
291.99	4424.3	
292.2	3095.2	
292.41	3603.7	
292.62	5395.7	
292.83	5216.2	
293.04	4440	
293.25	3094.5	
293.46	4787.5	
293.67	5412.8	
293.88	3203	
294.09	3114.3	
294.29	4590.9	
294.5	5083.7	
294.71	3400.3	
294.92	3220.1	
295.13	4757.4	
295.34	5835.3	
295.55	2882.9	
295.76	2859.6	
295.97	5311.7	
296.18	5844.9	
296.39	2958.6	
296.6	3164.1	
296.81	4989.5	
297.01	5263.3	
297.22	3313.6	
297.43	3157.3	
297.64	4749.2	
297.85	4578.6	
298.06	2741.5	
298.27	2848.7	
298.48	4947.2	
298.69	4680.3	
298.9	3439.9	
299.11	3119.7	
299.31	4601.8	
299.52	4590.2	
299.73	3681.6	
299.94	3570.3	
300.15	4931.5	
300.36	4620.2	
300.57	3652.9	
300.78	3523.9	
300.99	4870.8	
301.2	4986.1	
301.4	3196.9	
301.61	3412.6	
301.82	5169.8	
302.03	5283.8	
302.24	3920.5	
302.45	3035.8	
302.66	5171.1	
302.87	5536.3	
303.08	3229.6	
303.29	4245.4	
303.49	4793.6	
303.7	4917.9	
303.91	2919.7	
304.12	4071.4	
304.33	4496.7	
304.54	5081	
304.75	3256.3	
304.96	3077.4	
305.16	5167	
305.37	5849	
305.58	2838.5	
305.79	2910.8	
306	5164.3	
306.21	4453.6	
306.42	3223.5	
306.63	4667.3	
306.83	4809.3	
307.04	5372.5	
307.25	3452.2	
307.46	3433.8	
307.67	4325.3	
307.88	5254.4	
308.09	3200.3	
308.29	3339.6	
308.5	5001.8	
308.71	5393	
308.92	3368.9	
309.13	3116.3	
309.34	4917.9	
309.55	4830.5	
309.75	3938.9	
309.96	3586.7	
310.17	5307.7	
310.38	4696.7	
310.59	3721.2	
310.8	2959.3	
311.01	4763.6	
311.21	4888.5	
311.42	3080.8	
311.63	3149.8	
311.84	4714.4	
312.05	5021.6	
312.26	3548.4	
312.46	3843.4	
312.67	4799.8	
312.88	4546.5	
313.09	3100.6	
313.3	3014.6	
313.51	5557.5	
313.71	5898.8	
313.92	3114.3	
314.13	3289	
314.34	5115.1	
314.55	4872.8	
314.76	3882.9	
314.96	3412.6	
315.17	5003.2	
315.38	5214.8	
315.59	3117	
315.8	2988.7	
316.01	5566.4	
316.21	5640.8	
316.42	3014.6	
316.63	3406.5	
316.84	4872.8	
317.05	5402.5	
317.26	3644.7	
317.46	3265.8	
317.67	4926	
317.88	5241.4	
318.09	3884.3	
318.3	2948.4	
318.5	4777.9	
318.71	5180	
318.92	4819.6	
319.13	3642	
319.34	5352.7	
319.54	5497.4	
319.75	2932	
319.96	2764.1	
320.17	5278.3	
320.38	5427.1	
320.58	2854.9	
320.79	3374.4	
321	5442.1	
321.21	5519.3	
321.42	3421.5	
321.62	2888.3	
321.83	4678.9	
322.04	4913.1	
322.25	3287	
322.46	3072.6	
322.66	5040.7	
322.87	5143.1	
323.08	3807.9	
323.29	2996.9	
323.5	5808.7	
323.7	4550.6	
323.91	4168.3	
324.12	3735.5	
324.33	5051	
324.53	5230.5	
324.74	3648.8	
324.95	3760.1	
325.16	4496	
325.37	4835.9	
325.57	3122.5	
325.78	3155.9	
325.99	5064.6	
326.2	4503.5	
326.4	4394.3	
326.61	2918.4	
326.82	4872.1	
327.03	5050.3	
327.24	4322.6	
327.44	4063.2	
327.65	5175.2	
327.86	4280.3	
328.07	3583.3	
328.27	2996.9	
328.48	5535.7	
328.69	4581.3	
328.9	4404.5	
329.1	3249.4	
329.31	4848.9	
329.52	5598.5	
329.73	3116.3	
329.93	3434.4	
330.14	4948.6	
330.35	5136.3	
330.56	4962.2	
330.76	3728	
330.97	4797.7	
331.18	5013.4	
331.39	3437.2	
331.59	2839.2	
331.8	5458.5	
332.01	5521.3	
332.22	3261	
332.42	3611.3	
332.63	5063.3	
332.84	4630.5	
333.05	3405.8	
333.25	3135.4	
333.46	4739.7	
333.67	4879.6	
333.88	3281.5	
334.08	3593.5	
334.29	6381.5	
334.5	5408.7	
334.7	3013.2	
334.91	4283	
335.12	4593.6	
335.33	5292	
335.53	3422.2	
335.74	4956.1	
335.95	4816.1	
336.16	4605.9	
336.36	3379.8	
336.57	3871.3	
336.78	4559.5	
336.98	5382.1	
337.19	4171	
337.4	3351.8	
337.61	5871.5	
337.81	4515.1	
338.02	3173.7	
338.23	3992.2	
338.43	5543.2	
338.64	4612.7	
338.85	3139.5	
339.05	4018.8	
339.26	5640.8	
339.47	4425	
339.68	3121.8	
339.88	4412.7	
340.09	5159.5	
340.3	5347.9	
340.5	3622.9	
340.71	2791.4	
340.92	4515.1	
341.13	5482.4	
341.33	3018	
341.54	3608.5	
341.75	5169.8	
341.95	4818.2	
342.16	3469.3	
342.37	3729.4	
342.57	4627.7	
342.78	4901.5	
342.99	3822.2	
343.19	2837.8	
343.4	5337.7	
343.61	5160.2	
343.81	3260.4	
344.02	3072.6	
344.23	5303.6	
344.43	5560.2	
344.64	3825.6	
344.85	3715	
345.06	5183.4	
345.26	5420.3	
345.47	3557.3	
345.68	4123.2	
345.88	4458.4	
346.09	5380.7	
346.3	3652.9	
346.5	2758.6	
346.71	4902.2	
346.92	4700.1	
347.12	2925.9	
347.33	3543.7	
347.54	5339.1	
347.74	5644.2	
347.95	3482.9	
348.16	2693.8	
348.36	4773.1	
348.57	4536.3	
348.78	3528.7	
348.98	3760.1	
349.19	4937.7	
349.39	4499.4	
349.6	2919	
349.81	3152.5	
350.01	5147.2	
350.22	4684.4	
350.43	3426.3	
350.63	3987.4	
350.84	4907.6	
351.05	4699.4	
351.25	3098.6	
351.46	2874	
351.67	5347.9	
351.87	4642.7	
352.08	3314.3	
352.29	3753.9	
352.49	5257.8	
352.7	5030.5	
352.9	3033	
353.11	3734.1	
353.32	5883.1	
353.52	4755.4	
353.73	2998.9	
353.94	3752.6	
354.14	5156.8	
354.35	4944.5	
354.55	3072	
354.76	3414	
354.97	5130.8	
355.17	4870.8	
355.38	2982.5	
355.59	3991.5	
355.79	4639.3	
356	4975.9	
356.2	3372.3	
356.41	3025.5	
356.62	4436.6	
356.82	4820.9	
357.03	3599	
357.24	3273.3	
357.44	4646.2	
357.65	4727.4	
357.85	4274.1	
358.06	3432.4	
358.27	4377.2	
358.47	4577.9	
358.68	2895.1	
358.88	3601.7	
359.09	5079.6	
359.3	5355.4	
359.5	4137.6	
359.71	3680.2	
359.91	5666.7	
360.12	5147.9	
360.33	3575.8	
360.53	3942.3	
360.74	4637.3	
360.94	4682.3	
361.15	3743.7	
361.36	3094.5	
361.56	5253.7	
361.77	4838	
361.97	4114.4	
362.18	3283.6	
362.38	5254.4	
362.59	4513.7	
362.8	3036.5	
363	2951.8	
363.21	4315.1	
363.41	4941.1	
363.62	3464.5	
363.83	4263.9	
364.03	4990.9	
364.24	5657.9	
364.44	4350.6	
364.65	4356.7	
364.85	4740.4	
365.06	4506.9	
365.27	3207.8	
365.47	3195.5	
365.68	5594.4	
365.88	4734.2	
366.09	3489.1	
366.29	3256.3	
366.5	4952.7	
366.71	5225.7	
366.91	4323.9	
367.12	3653.6	
367.32	5758.9	
367.53	5181.4	
367.73	3594.2	
367.94	4381.3	
368.14	5211.4	
368.35	5797.1	
368.56	3567.6	
368.76	3382.6	
368.97	5241.4	
369.17	6647	
369.38	3153.2	
369.58	3403	
369.79	4448.9	
369.99	5472.9	
370.2	4227.7	
370.4	3452.9	
370.61	4996.4	
370.82	5995.8	
371.02	3450.8	
371.23	2859.6	
371.43	4379.9	
371.64	5461.9	
371.84	3423.5	
372.05	4351.9	
372.25	6425.8	
372.46	5227.1	
372.66	3376.4	
372.87	3319.1	
373.07	5257.8	
373.28	6559.6	
373.48	4184.7	
373.69	3919.8	
373.9	4813.4	
374.1	4816.8	
374.31	4124.6	
374.51	3714.3	
374.72	5447.6	
374.92	4557.4	
375.13	4261.8	
375.33	3596.9	
375.54	5094.7	
375.74	4704.2	
375.95	3627	
376.15	4644.8	
376.36	5112.4	
376.56	5005.9	
376.77	3669.3	
376.97	4014	
377.18	6003.3	
377.38	5130.8	
377.59	4323.9	
377.79	3237.8	
378	4974.5	
378.2	5278.3	
378.41	3344.3	
378.61	3220.1	
378.82	5383.4	
379.02	4682.3	
379.23	3440.6	
379.43	4418.2	
379.64	5508.4	
379.84	5139	
380.05	3361.4	
380.25	3231	
380.46	5217.5	
380.66	4873.5	
380.87	4377.2	
381.07	4702.8	
381.28	5778	
381.48	5193.6	
381.69	3286.3	
381.89	3392.8	
382.1	4414.7	
382.3	5304.2	
382.51	4258.4	
382.71	4948.6	
382.91	5257.1	
383.12	5631.2	
383.32	3603.7	
383.53	3847.5	
383.73	5114.5	
383.94	4954	
384.14	3837.9	
384.35	3104	
384.55	4874.8	
384.76	5236	
384.96	3723.9	
385.17	3895.9	
385.37	5291.3	
385.58	4649.6	
385.78	3943.7	
385.98	2985.9	
386.19	4870.8	
386.39	5156.8	
386.6	3503.4	
386.8	3674.7	
387.01	5209.3	
387.21	5281.7	
387.42	4017.4	
387.62	4432.5	
387.83	4692.6	
388.03	5141.8	
388.23	3686.3	
388.44	4326	
388.64	4408.6	
388.85	4528.7	
389.05	3887	
389.26	4407.2	
389.46	6171.2	
389.67	5623	
389.87	3927.3	
390.07	3920.5	
390.28	4891.2	
390.48	4589.5	
390.69	3310.9	
390.89	3592.1	
391.1	4756.7	
391.3	5462.6	
391.5	4500.8	
391.71	5022.3	
391.91	5279.7	
392.12	6049.7	
392.32	4582	
392.53	3951.9	
392.73	4832.5	
392.93	4924	
393.14	3774.4	
393.34	4582	
393.55	5292.6	
393.75	4913.1	
393.95	3710.2	
394.16	3711.6	
394.36	4784.1	
394.57	5360.2	
394.77	3278.8	
394.98	3605.1	
395.18	4754	
395.38	4806.6	
395.59	4282.3	
395.79	3470.6	
396	4896	
396.2	5311.7	
396.4	4115.7	
396.61	4036.5	
396.81	5351.3	
397.02	4740.4	
397.22	4345.8	
397.42	4420.9	
397.63	5360.9	
397.83	4709	
398.04	3380.5	
398.24	3831.1	
398.44	5110.4	
398.65	4355.3	
398.85	3296.5	
399.05	3364.8	
399.26	4721.9	
399.46	6030.6	
399.67	3747.8	
399.87	3408.5	
400.07	4998.4	
400.28	5248.3	
400.48	3590.1	
400.69	4374.5	
400.89	5406.6	
401.09	5816.2	
401.3	3430.3	
401.5	4336.2	
401.7	5912.5	
401.91	6099.5	
402.11	3794.2	
402.32	3869.3	
402.52	5479.7	
402.72	5440.1	
402.93	4159.4	
403.13	3203	
403.33	6090.7	
403.54	5057.8	
403.74	3850.9	
403.94	4578.6	
404.15	5110.4	
404.35	6078.4	
404.56	3717.1	
404.76	5100.8	
404.96	5433.9	
405.17	5268.1	
405.37	4607.9	
405.57	4055	
405.78	5467.4	
405.98	5035.3	
406.18	3676.1	
406.39	4387.4	
406.59	5474.9	
406.79	5171.1	
407	3525.9	
407.2	3590.8	
407.4	5552	
407.61	5604.6	
407.81	3597.6	
408.01	5502.9	
408.22	4621.6	
408.42	6118.6	
408.62	4477.5	
408.83	3972.4	
409.03	5074.2	
409.23	4956.1	
409.44	3993.5	
409.64	4188.1	
409.84	5838.1	
410.05	5681.7	
410.25	4111	
410.45	3935.5	
410.66	5347.9	
410.86	7294.2	
411.06	4280.9	
411.27	4186.7	
411.47	7111.9	
411.67	5429.8	
411.88	4353.3	
412.08	4525.3	
412.28	5893.4	
412.49	6352.8	
412.69	4136.9	
412.89	4201.7	
413.09	6188.3	
413.3	6107	
413.5	4294.6	
413.7	3917.1	
413.91	5524.7	
414.11	6166.4	
414.31	4118.5	
414.52	4396.3	
414.72	5907	
414.92	5887.9	
415.12	4081.6	
415.33	4562.9	
415.53	6118.6	
415.73	6279.8	
415.94	4870.1	
416.14	4357.4	
416.34	5337	
416.55	5164.3	
416.75	5359.5	
416.95	4870.1	
417.15	6214.2	
417.36	6729.6	
417.56	5575.9	
417.76	4681.7	
417.97	6447.7	
418.17	6172.6	
418.37	4397.7	
418.57	4442.7	
418.78	6076.3	
418.98	5793	
419.18	5195	
419.38	5119.2	
419.59	5758.9	
419.79	5497.4	
419.99	4335.5	
420.2	4672.1	
420.4	6213.5	
420.6	6300.9	
420.8	4239.3	
421.01	4145.1	
421.21	6045.6	
421.41	6159.6	
421.61	4633.2	
421.82	4339	
422.02	5642.2	
422.22	6529.6	
422.42	5042.1	
422.63	4788.2	
422.83	5735.7	
423.03	6830	
423.23	4757.4	
423.44	3908.2	
423.64	5847.6	
423.84	5559.6	
424.04	4302.1	
424.25	4029.7	
424.45	6590.4	
424.65	6614.9	
424.85	3880.9	
425.06	4298	
425.26	6634.1	
425.46	5722	
425.66	4758.1	
425.87	4488.5	
426.07	6355.5	
426.27	6241.5	
426.47	4639.3	
426.67	4135.5	
426.88	6687.3	
427.08	6217	
427.28	4851	
427.48	4038.6	
427.69	5367.7	
427.89	5909.8	
428.09	4749.2	
428.29	4123.9	
428.5	6373.3	
428.7	6098.9	
428.9	3988.8	
429.1	4450.2	
429.3	5949.3	
429.51	6219	
429.71	4264.6	
429.91	4940.4	
430.11	6272.9	
430.31	6441.5	
430.52	4514.4	
430.72	4732.2	
430.92	6662	
431.12	6251.1	
431.32	4229.7	
431.53	4635.2	
431.73	5365.7	
431.93	6684.6	
432.13	4162.2	
432.33	4028.4	
432.54	5765.7	
432.74	6024.4	
432.94	4017.4	
433.14	4861.2	
433.34	6281.1	
433.55	5783.5	
433.75	4844.8	
433.95	6223.1	
434.15	6162.3	
434.35	5842.2	
434.56	4166.3	
434.76	3785.3	
434.96	6019.7	
435.16	6221.7	
435.36	4059.8	
435.56	5027.1	
435.77	5698.1	
435.97	5857.2	
436.17	5540.4	
436.37	4975.2	
436.57	5666	
436.78	5613.5	
436.98	4967.7	
437.18	5471.5	
437.38	6226.5	
437.58	5866.7	
437.78	5581.4	
437.99	4488.5	
438.19	6388.3	
438.39	6955.6	
438.59	4458.4	
438.79	4077.5	
438.99	6855.9	
439.2	5870.8	
439.4	4076.8	
439.6	4063.9	
439.8	6033.3	
440	6957.6	
440.2	4904.2	
440.4	4868	
440.61	6466.8	
440.81	6820.4	
441.01	4190.8	
441.21	4972.5	
441.41	6782.9	
441.61	6416.3	
441.81	5188.2	
442.02	6004.6	
442.22	7203.4	
442.42	6522.1	
442.62	4345.8	
442.82	4422.2	
443.02	6842.9	
443.22	6094.8	
443.43	4760.8	
443.63	4261.8	
443.83	5956.2	
444.03	5900.2	
444.23	5380	
444.43	4984.1	
444.63	6262.7	
444.83	7176.1	
445.04	4457.7	
445.24	5543.2	
445.44	6603.3	
445.64	6570.6	
445.84	5142.4	
446.04	5065.3	
446.24	6014.2	
446.44	6830.7	
446.65	4455.7	
446.85	4812	
447.05	6345.3	
447.25	6829.3	
447.45	4917.2	
447.65	4300.1	
447.85	6367.1	
448.05	6001.2	
448.25	5229.8	
448.46	4998.4	
448.66	6308.4	
448.86	6034	
449.06	4214	
449.26	5147.9	
449.46	6565.1	
449.66	5819	
449.86	4835.9	
450.06	4683	
450.26	5977.3	
450.47	6432.7	
450.67	5022.3	
450.87	5253	
451.07	6533.7	
451.27	6380.1	
451.47	4446.8	
451.67	4915.1	
451.87	6038.8	
452.07	7063.4	
452.27	4754	
452.47	4670.7	
452.67	6364.4	
452.88	6672.3	
453.08	4119.8	
453.28	5711.8	
453.48	7378.1	
453.68	6287.9	
453.88	4575.2	
454.08	4726	
454.28	6616.3	
454.48	6336.4	
454.68	5235.3	
454.88	5586.2	
455.08	6774	
455.28	6463.4	
455.48	4394.9	
455.68	4992.9	
455.89	7091.4	
456.09	6795.8	
456.29	4700.1	
456.49	4844.1	
456.69	7015.7	
456.89	6362.4	
457.09	5190.2	
457.29	5547.9	
457.49	6705.7	
457.69	6767.9	
457.89	5129.5	
458.09	4549.2	
458.29	6565.8	
458.49	7064.8	
458.69	5467.4	
458.89	4965	
459.09	7252.5	
459.29	7352.2	
459.49	5001.1	
459.69	5649	
459.9	6878.4	
460.1	6475.7	
460.3	4966.3	
460.5	4773.1	
460.7	6873.7	
460.9	6602	
461.1	4541	
461.3	5539.8	
461.5	7469.6	
461.7	7055.9	
461.9	4855.7	
462.1	5332.2	
462.3	6701	
462.5	7105.1	
462.7	4887.8	
462.9	4967	
463.1	8006.2	
463.3	7722.2	
463.5	5174.5	
463.7	5873.6	
463.9	6905.8	
464.1	7135.8	
464.3	5279	
464.5	5515.9	
464.7	7425.9	
464.9	7114	
465.1	6514.6	
465.3	5795.1	
465.5	7703.8	
465.7	7641	
465.9	6061.3	
466.1	5898.8	
466.3	7467.6	
466.5	7327.6	
466.7	6562.4	
466.9	5582.8	
467.1	7326.3	
467.3	8110.6	
467.5	6510.5	
467.7	5577.3	
467.9	8271.1	
468.1	8915.5	
468.3	6204	
468.5	6547.4	
468.7	7320.1	
468.9	7311.9	
469.1	5916.6	
469.3	6433.4	
469.5	8888.9	
469.7	7048.4	
469.9	6357.6	
470.1	5697.4	
470.3	7444.4	
470.5	7410.9	
470.7	6690	
470.9	5730.2	
471.1	7248.4	
471.3	7659.4	
471.5	5629.2	
471.69	7184.3	
471.89	7208.2	
472.09	6802	
472.29	6226.5	
472.49	6632.7	
472.69	7036.8	
472.89	7526.3	
473.09	5500.2	
473.29	5728.9	
473.49	7191.8	
473.69	7196.6	
473.89	6447	
474.09	5785.5	
474.29	8183	
474.49	7978.9	
474.69	6465.4	
474.89	5892	
475.09	7233.4	
475.29	7165.8	
475.49	5476.3	
475.69	5655.1	
475.88	8585.8	
476.08	7572	
476.28	5396.4	
476.48	5779.4	
476.68	7928.4	
476.88	7787.7	
477.08	5687.9	
477.28	5936.4	
477.48	7329.7	
477.68	7781.6	
477.88	5487.9	
478.08	5738.4	
478.28	8023.9	
478.48	7379.5	
478.67	5840.1	
478.87	5431.2	
479.07	7885.4	
479.27	7608.9	
479.47	6015.6	
479.67	5976	
479.87	7781.6	
480.07	8163.2	
480.27	5422.3	
480.47	6739.9	
480.67	7512.6	
480.87	8037.6	
481.06	5704.3	
481.26	6461.3	
481.46	7534.5	
481.66	7473.7	
481.86	6100.9	
482.06	6818.4	
482.26	7302.4	
482.46	7941.3	
482.66	6047.7	
482.86	5673.6	
483.05	7671.7	
483.25	7045.7	
483.45	8004.8	
483.65	5952.1	
483.85	7180.2	
484.05	7488.7	
484.25	6382.2	
484.45	6788.3	
484.65	8251.9	
484.84	8172.8	
485.04	5928.9	
485.24	5878.4	
485.44	8455.4	
485.64	7071	
485.84	5437.4	
486.04	6535.8	
486.24	7415.7	
486.44	7694.9	
486.63	5412.1	
486.83	6054.5	
487.03	7322.2	
487.23	7511.3	
487.43	5535	
487.63	7404.8	
487.83	7528.3	
488.02	8350.9	
488.22	6366.5	
488.42	6821.1	
488.62	8205.5	
488.82	7315.3	
489.02	5981.4	
489.22	6066.1	
489.41	8187.8	
489.61	7892.9	
489.81	5845.6	
490.01	5868.1	
490.21	8196	
490.41	8704.5	
490.61	5872.9	
490.8	5971.2	
491	7705.8	
491.2	7184.3	
491.4	6434	
491.6	5803.3	
491.8	7731.1	
491.99	7851.9	
492.19	5522	
492.39	5855.8	
492.59	8094.3	
492.79	8217.1	
492.99	6489.3	
493.18	5832.6	
493.38	8222.6	
493.58	8726.4	
493.78	6404	
493.98	5978.7	
494.18	8016.4	
494.37	7585.7	
494.57	6576	
494.77	6559	
494.97	8256	
495.17	8382.3	
495.37	6218.3	
495.56	6498.9	
495.76	8621.3	
495.96	8398.7	
496.16	7314.7	
496.36	6488.6	
496.55	8487.5	
496.75	8192.6	
496.95	6791.7	
497.15	6663.4	
497.35	8447.2	
497.54	8439.7	
497.74	6557.6	
497.94	7753.6	
498.14	9074.5	
498.34	8973.5	
498.53	6251.8	
498.73	6885.3	
498.93	8010.3	
499.13	8497	
499.33	6776.7	
499.52	7010.2	
499.72	8457.4	
499.92	8770.1	
500.12	6523.5	
500.32	6715.3	
500.51	8688.2	
500.71	8590.5	
500.91	7406.8	
501.11	7136.5	
501.31	8755.1	
501.5	9083.4	
501.7	7689.4	
501.9	6828.6	
502.1	8615.1	
502.29	8809.7	
502.49	7210.2	
502.69	7609.6	
502.89	8734.6	
503.09	8755.1	
503.28	6435.4	
503.48	6524.8	
503.68	8127	
503.88	8138.6	
504.07	7292.1	
504.27	6906.4	
504.47	8507.9	
504.67	8554.4	
504.86	7248.4	
505.06	7018.4	
505.26	8192.6	
505.46	9622.7	
505.65	6902.3	
505.85	6966.5	
506.05	8219.2	
506.25	8652	
506.44	6341.2	
506.64	7150.1	
506.84	8060.1	
507.04	8815.1	
507.23	6500.3	
507.43	7024.5	
507.63	9654.8	
507.83	8193.9	
508.02	7010.9	
508.22	6601.3	
508.42	9951.1	
508.62	8066.3	
508.81	6851.1	
509.01	7309.9	
509.21	7935.2	
509.4	8290.9	
509.6	7077.1	
509.8	6518	
510	8166.6	
510.19	9283.4	
510.39	6436.8	
510.59	6554.2	
510.79	7998.7	
510.98	9172.2	
511.18	6713.2	
511.38	6750.8	
511.57	8723.7	
511.77	8541.4	
511.97	7286.7	
512.17	6481.1	
512.36	8787.2	
512.56	8614.4	
512.76	6541.9	
512.95	6283.9	
513.15	8953.7	
513.35	7677.2	
513.55	7235.5	
513.74	6566.5	
513.94	8741.4	
514.14	8183	
514.33	7330.4	
514.53	7083.2	
514.73	8239	
514.92	8441.7	
515.12	6621.1	
515.32	6404.7	
515.51	8396.7	
515.71	8869.8	
515.91	8017.1	
516.11	6599.2	
516.3	9768.8	
516.5	8204.2	
516.7	7008.1	
516.89	7585.7	
517.09	8276.5	
517.29	8248.5	
517.48	7456	
517.68	6877.1	
517.88	8062.9	
518.07	8613.8	
518.27	7288.7	
518.47	6378.7	
518.66	9041.8	
518.86	7873.8	
519.06	6319.3	
519.25	6718	
519.45	8260.8	
519.65	9409.1	
519.84	7276.4	
520.04	7837.6	
520.24	9764.7	
520.43	8792.6	
520.63	7004.7	
520.83	6796.5	
521.02	8165.9	
521.22	8699.8	
521.42	7223.2	
521.61	7693.5	
521.81	8284.7	
522.01	8342.7	
522.2	7093.5	
522.4	6878.4	
522.6	8766.7	
522.79	7736.5	
522.99	7000.6	
523.18	6343.9	
523.38	8615.1	
523.58	8566	
523.77	7979.6	
523.97	6488	
524.17	10120	
524.36	9536.7	
524.56	7623.9	
524.76	7259.4	
524.95	8665.6	
525.15	8340	
525.34	7097.6	
525.54	7185	
525.74	8994	
525.93	8172.1	
526.13	8219.2	
526.33	7233.4	
526.52	9300.5	
526.72	8788.5	
526.91	8242.4	
527.11	7574.8	
527.31	9341.5	
527.5	9749.7	
527.7	7520.8	
527.89	6779.5	
528.09	8449.9	
528.29	8946.9	
528.48	7841.7	
528.68	7511.9	
528.87	9240.4	
529.07	9359.2	
529.27	7585	
529.46	7279.8	
529.66	9137.4	
529.85	9399.5	
530.05	7163.1	
530.25	7688.1	
530.44	10264	
530.64	8995.4	
530.83	7359	
531.03	7531.1	
531.23	9415.2	
531.42	9226.8	
531.62	8141.4	
531.81	7462.8	
532.01	9519	
532.21	9763.3	
532.4	7354.3	
532.6	7561.8	
532.79	10286	
532.99	9554.5	
533.18	7754.3	
533.38	8604.9	
533.58	9250	
533.77	9835	
533.97	7781.6	
534.16	8429.4	
534.36	10020	
534.55	9179.7	
534.75	8611.7	
534.95	7836.2	
535.14	10088	
535.34	9260.9	
535.53	7595.2	
535.73	9181	
535.92	10444	
536.12	9460.3	
536.31	7645.1	
536.51	8794	
536.71	9751.1	
536.9	9241.8	
537.1	7777.5	
537.29	7912	
537.49	9962	
537.68	9185.1	
537.88	8150.2	
538.07	7513.3	
538.27	9422.7	
538.46	10222	
538.66	7486	
538.86	7864.9	
539.05	9571.5	
539.25	9977	
539.44	8159.8	
539.64	7787.1	
539.83	9458.9	
540.03	10178	
540.22	7703.8	
540.42	7794.6	
540.61	9538.8	
540.81	9686.9	
541	8090.2	
541.2	8618.5	
541.39	9177.6	
541.59	9531.2	
541.78	8401.5	
541.98	7604.1	
542.18	8916.2	
542.37	8918.2	
542.57	8003.5	
542.76	8453.3	
542.96	8957.1	
543.15	9598.1	
543.35	7939.3	
543.54	7494.2	
543.74	9654.8	
543.93	9362.6	
544.13	7944.1	
544.32	8826.7	
544.52	9651.4	
544.71	9076.6	
544.91	7147.4	
545.1	8154.3	
545.3	9009.7	
545.49	9497.1	
545.69	7118.7	
545.88	7559.1	
546.08	10364	
546.27	9919.7	
546.47	8135.9	
546.66	7439.6	
546.86	9736	
547.05	10248	
547.24	7696.3	
547.44	7605.5	
547.63	8901.2	
547.83	9805.7	
548.02	7822.6	
548.22	8014.4	
548.41	8768.7	
548.61	9811.1	
548.8	7490.8	
549	7453.9	
549.19	9259.5	
549.39	9584.5	
549.58	7236.8	
549.78	7675.1	
549.97	9545.6	
550.17	9146.2	
550.36	8359.8	
550.55	9158.5	
550.75	9195.4	
550.94	9824.8	
551.14	7365.2	
551.33	7706.5	
551.53	8546.9	
551.72	9460.3	
551.92	7735.2	
552.11	7520.1	
552.31	9436.4	
552.5	9491	
552.69	8908.7	
552.89	7180.2	
553.08	9357.2	
553.28	9171.5	
553.47	7537.9	
553.67	8426	
553.86	9912.2	
554.06	8505.2	
554.25	6879.1	
554.44	7287.4	
554.64	10550	
554.83	10067	
555.03	7271.7	
555.22	7658	
555.42	9648.7	
555.61	9325.1	
555.8	7511.3	
556	7679.2	
556.19	8640.4	
556.39	9562.6	
556.58	7557.7	
556.78	7548.8	
556.97	9293	
557.16	8898.4	
557.36	8587.8	
557.55	7185	
557.75	8409	
557.94	9809.1	
558.13	7211.6	
558.33	7154.2	
558.52	9680.1	
558.72	8802.9	
558.91	7252.5	
559.1	7456.7	
559.3	8548.2	
559.49	8310	
559.69	6845	
559.88	7727	
560.07	9170.1	
560.27	9583.1	
560.46	7811	
560.66	7982.3	
560.85	9058.8	
561.04	8282	
561.24	7107.1	
561.43	7299.6	
561.63	8520.2	
561.82	8744.8	
562.01	8269	
562.21	7591.8	
562.4	9189.9	
562.59	9925.8	
562.79	7397.3	
562.98	7097.6	
563.18	9030.2	
563.37	10268	
563.56	7829.4	
563.76	7118.7	
563.95	8610.3	
564.14	8560.5	
564.34	7528.3	
564.53	7183.6	
564.73	9101.9	
564.92	9431.6	
565.11	7615.7	
565.31	7055.9	
565.5	9577	
565.69	8669.1	
565.89	7352.9	
566.08	7537.9	
566.27	9428.2	
566.47	9824.8	
566.66	7976.2	
566.85	7022.5	
567.05	9284.1	
567.24	8780.3	
567.44	7262.8	
567.63	8380.3	
567.82	9466.4	
568.02	9226.8	
568.21	7234.1	
568.4	7556.3	
568.6	9116.9	
568.79	9041.1	
568.98	7149.5	
569.18	7242.3	
569.37	9163.3	
569.56	10669	
569.76	7531.7	
569.95	8392.6	
570.14	9464.3	
570.34	9331.2	
570.53	7243.7	
570.72	7210.2	
570.91	9857.6	
571.11	9190.6	
571.3	7594.6	
571.49	8381	
571.69	9269.1	
571.88	8819.2	
572.07	8076.5	
572.27	8127	
572.46	8723.7	
572.65	9639.1	
572.85	7492.2	
573.04	7716.1	
573.23	9874.6	
573.43	9193.3	
573.62	7223.2	
573.81	7798	
574	9370.1	
574.2	9129.8	
574.39	7640.3	
574.58	7703.8	
574.78	10019	
574.97	9378.3	
575.16	8065.6	
575.36	8246.5	
575.55	9781.8	
575.74	9904.7	
575.93	7362.4	
576.13	8268.3	
576.32	9251.4	
576.51	9764.7	
576.71	7795.9	
576.9	8821.3	
577.09	10062	
577.28	9540.8	
577.48	8146.1	
577.67	7375.4	
577.86	9337.4	
578.05	9630.2	
578.25	7841.7	
578.44	7983.7	
578.63	9452.7	
578.83	10469	
579.02	7477.8	
579.21	8637	
579.4	9605	
579.6	9441.1	
579.79	7956.4	
579.98	9822.7	
580.17	9898.5	
580.37	10026	
580.56	7528.3	
580.75	8178.9	
580.94	10249	
581.14	10305	
581.33	8503.8	
581.52	7703.1	
581.71	9744.2	
581.91	10310	
582.1	7504.4	
582.29	7927.7	
582.48	9450	
582.68	9465.7	
582.87	8275.2	
583.06	8070.4	
583.25	9848.7	
583.45	9246.6	
583.64	8592.6	
583.83	9161.9	
584.02	9512.8	
584.21	9775.6	
584.41	8578.9	
584.6	8039.6	
584.79	9606.3	
584.98	10210	
585.18	7595.2	
585.37	7560.4	
585.56	9264.3	
585.75	9893.1	
585.94	7805.5	
586.14	8323.6	
586.33	10318	
586.52	9542.2	
586.71	8116.8	
586.91	7920.2	
587.1	9008.3	
587.29	9971.6	
587.48	7857.4	
587.67	7778.2	
587.87	9810.5	
588.06	9740.8	
588.25	8894.3	
588.44	8325	
588.63	9465	
588.83	9901.9	
589.02	7819.8	
589.21	7800	
589.4	9289.6	
589.59	9281.4	
589.78	7154.2	
589.98	7364.5	
590.17	8934.6	
590.36	9232.2	
590.55	6806.1	
590.74	7436.2	
590.94	10227	
591.13	9061.6	
591.32	7251.2	
591.51	6848.4	
591.7	9303.9	
591.89	8953	
592.09	6877.8	
592.28	7413.6	
592.47	8350.3	
592.66	9895.8	
592.85	6915.3	
593.05	7187.7	
593.24	8914.8	
593.43	9527.8	
593.62	7243.7	
593.81	7606.2	
594	8926.4	
594.19	9052.7	
594.39	7109.9	
594.58	7089.4	
594.77	9217.9	
594.96	9625.5	
595.15	7123.5	
595.34	7597.3	
595.54	9166	
595.73	8494.3	
595.92	6503	
596.11	7395.2	
596.3	9578.3	
596.49	8512	
596.68	7245	
596.88	7602.1	
597.07	9273.9	
597.26	8383.7	
597.45	6799.3	
597.64	7832.1	
597.83	8594.6	
598.02	9152.4	
598.22	6959.7	
598.41	7478.5	
598.6	8886.1	
598.79	8430.8	
598.98	6921.5	
599.17	7731.1	
599.36	8936	
599.55	9793.4	
599.74	8593.3	
599.94	8376.9	
600.13	9410.4	
600.32	8408.3	
600.51	6679.1	
600.7	6771.9	
600.89	9826.2	
601.08	9868.5	
601.27	6664.1	
601.47	7527.7	
601.66	9241.8	
601.85	9836.4	
602.04	7269.6	
602.23	7511.9	
602.42	8467.7	
602.61	8986.5	
602.8	7107.8	
602.99	6857.3	
603.18	8811	
603.37	8817.9	
603.57	7406.1	
603.76	7861.5	
603.95	9548.3	
604.14	9033.6	
604.33	7004.1	
604.52	7211.6	
604.71	8887.5	
604.9	8528.4	
605.09	7682.6	
605.28	7515.4	
605.47	9444.5	
605.66	9041.8	
605.86	7460.1	
606.05	7032.7	
606.24	9359.9	
606.43	8154.3	
606.62	7275.8	
606.81	7870.3	
607	9309.4	
607.19	8654.7	
607.38	6734.4	
607.57	6952.9	
607.76	8491.6	
607.95	8039	
608.14	7225.2	
608.33	7777.5	
608.52	8415.1	
608.72	9216.5	
608.91	6670.2	
609.1	6612.2	
609.29	8652	
609.48	8158.4	
609.67	7397.3	
609.86	6632.7	
610.05	8267.6	
610.24	8483.4	
610.43	6559	
610.62	6170.5	
610.81	9542.2	
611	9260.2	
611.19	6712.6	
611.38	7217	
611.57	8740	
611.76	9650	
611.95	6476.4	
612.14	6455.9	
612.33	8575.5	
612.52	8174.8	
612.71	6919.4	
612.9	6208.8	
613.09	7878.5	
613.28	9706	
613.47	6892.1	
613.66	7449.1	
613.85	8682.7	
614.04	8264.9	
614.24	6713.9	
614.43	6169.8	
614.62	8779	
614.81	8612.4	
615	7190.4	
615.19	7228.6	
615.38	8239.7	
615.57	8444.5	
615.76	7102.4	
615.95	7915.4	
616.14	8858.8	
616.33	8551.6	
616.52	7378.8	
616.71	7535.2	
616.9	8754.4	
617.09	8598.1	
617.28	6811.5	
617.47	7802.8	
617.66	8039	
617.85	8014.4	
618.04	7563.1	
618.22	7079.8	
618.41	8297	
618.6	9101.2	
618.79	7073.7	
618.98	6927.6	
619.17	9333.3	
619.36	7949.5	
619.55	7020.4	
619.74	7058	
619.93	8791.2	
620.12	8270.4	
620.31	7492.8	
620.5	7520.8	
620.69	9293	
620.88	9647.3	
621.07	8195.3	
621.26	7450.5	
621.45	9038.4	
621.64	8976.2	
621.83	7531.7	
622.02	6904.4	
622.21	9019.3	
622.4	8841.1	
622.59	7981.6	
622.78	7695.6	
622.97	8486.1	
623.16	9366.7	
623.35	7504.4	
623.54	6836.1	
623.72	8726.4	
623.91	8869.8	
624.1	7760.4	
624.29	6614.9	
624.48	9698.5	
624.67	9114.1	
624.86	7646.4	
625.05	6939.2	
625.24	9831.6	
625.43	8394.6	
625.62	9054.1	
625.81	7066.9	
626	9318.3	
626.19	8664.3	
626.38	7714.7	
626.56	7232.7	
626.75	8565.3	
626.94	9244.5	
627.13	7761.1	
627.32	6724.2	
627.51	9180.4	
627.7	10232	
627.89	6920.1	
628.08	7706.5	
628.27	8469	
628.46	8686.8	
628.65	7049.1	
628.83	6842.9	
629.02	9123	
629.21	8545.5	
629.4	7432.1	
629.59	7535.2	
629.78	8432.9	
629.97	9303.2	
630.16	7458	
630.35	7177.4	
630.54	9648.7	
630.72	9327.8	
630.91	7208.2	
631.1	7516.7	
631.29	8879.3	
631.48	9082.1	
631.67	7622.5	
631.86	7215.7	
632.05	8643.8	
632.24	8639	
632.42	6961.7	
632.61	7454.6	
632.8	8783.7	
632.99	8460.8	
633.18	7398.6	
633.37	7731.8	
633.56	9009	
633.75	8805.6	
633.93	7404.8	
634.12	7076.4	
634.31	9611.1	
634.5	9232.2	
634.69	7152.9	
634.88	7620.5	
635.07	8761.9	
635.25	9176.3	
635.44	7976.2	
635.63	8081.3	
635.82	8572.1	
636.01	8166.6	
636.2	7806.9	
636.39	7482.6	
636.57	9488.9	
636.76	9340.1	
636.95	7046.4	
637.14	8100.4	
637.33	8988.5	
637.52	9623.4	
637.7	6815.6	
637.89	7634.8	
638.08	8669.7	
638.27	9805.7	
638.46	7617.1	
638.65	8008.2	
638.83	9856.2	
639.02	8430.1	
639.21	7584.3	
639.4	8000	
639.59	8852	
639.78	8583	
639.96	6954.2	
640.15	7074.4	
640.34	8700.5	
640.53	8857.5	
640.72	6747.4	
640.91	6961	
641.09	8198	
641.28	9345.6	
641.47	6921.5	
641.66	7659.4	
641.85	8834.9	
642.03	8999.5	
642.22	7429.3	
642.41	7032	
642.6	8351.6	
642.79	7800	
642.97	6874.3	
643.16	7486	
643.35	8374.1	
643.54	8105.2	
643.73	6853.9	
643.91	7487.4	
644.1	7929.1	
644.29	8585.8	
644.48	6875.7	
644.67	6866.2	
644.85	8124.3	
645.04	8522.3	
645.23	6531	
645.42	6827.2	
645.6	7992.5	
645.79	9008.3	
645.98	6762.4	
646.17	5928.9	
646.36	7847.1	
646.54	8287.4	
646.73	7356.3	
646.92	6350.8	
647.11	7927	
647.29	8802.9	
647.48	6441.5	
647.67	6176.7	
647.86	8942.8	
648.05	8979	
648.23	6668.2	
648.42	7698.3	
648.61	8398.7	
648.8	8214.4	
648.98	6354.2	
649.17	6629.3	
649.36	7798.7	
649.55	7466.9	
649.73	6369.2	
649.92	6929	
650.11	7859.4	
650.3	8055.3	
650.48	6521.4	
650.67	6305	
650.86	8266.3	
651.05	7400.7	
651.23	6445	
651.42	6422.4	
651.61	7858.1	
651.79	7793.9	
651.98	6601.3	
652.17	6212.2	
652.36	8165.9	
652.54	7305.8	
652.73	6339.8	
652.92	6158.2	
653.11	8180.3	
653.29	8303.8	
653.48	5767.8	
653.67	6642.9	
653.85	8004.1	
654.04	8906.6	
654.23	6702.3	
654.42	6291.4	
654.6	7620.5	
654.79	8174.1	
654.98	5887.9	
655.16	6351.4	
655.35	7237.5	
655.54	7105.1	
655.73	5860.6	
655.91	5707.7	
656.1	8008.2	
656.29	6974	
656.47	5453.1	
656.66	6789	
656.85	7302.4	
657.03	7286	
657.22	5877.7	
657.41	5995.8	
657.59	7400	
657.78	7283.3	
657.97	5737	
658.16	6236.1	
658.34	7969.3	
658.53	8318.8	
658.72	6989.7	
658.9	7434.1	
659.09	7685.3	
659.28	7621.9	
659.46	6029.9	
659.65	5955.5	
659.84	7302.4	
660.02	7765.2	
660.21	5971.9	
660.4	5852.4	
660.58	8111.3	
660.77	7606.2	
660.96	6490	
661.14	5624.4	
661.33	8638.3	
661.52	8510.7	
661.7	5587.5	
661.89	8494.3	
662.08	7385.7	
662.26	6990.4	
662.45	5843.5	
662.64	5878.4	
662.82	7891.5	
663.01	7246.4	
663.2	5948	
663.38	6514.6	
663.57	7798.7	
663.75	7627.3	
663.94	6234	
664.13	7074.4	
664.31	7294.9	
664.5	7817.8	
664.69	6503.7	
664.87	6847.7	
665.06	7114.6	
665.25	7684	
665.43	6979.5	
665.62	7062.8	
665.8	7783.6	
665.99	7311.2	
666.18	6210.1	
666.36	6249.7	
666.55	7877.2	
666.74	7819.1	
666.92	5881.8	
667.11	7166.5	
667.29	7451.9	
667.48	7849.2	
667.67	6800.6	
667.85	6066.8	
668.04	7355.6	
668.22	7380.2	
668.41	6164.4	
668.6	6406	
668.78	7173.4	
668.97	7431.4	
669.15	6429.9	
669.34	5586.9	
669.53	7251.2	
669.71	7477.1	
669.9	5782.1	
670.08	6265.4	
670.27	7163.8	
670.46	7696.3	
670.64	6532.3	
670.83	6647.7	
671.01	7010.2	
671.2	7570	
671.38	5865.4	
671.57	5736.4	
671.76	8208.3	
671.94	8500.4	
672.13	5653.1	
672.31	6575.3	
672.5	7821.2	
672.69	7154.9	
672.87	5883.8	
673.06	6041.5	
673.24	7671.7	
673.43	7232.7	
673.61	6379.4	
673.8	6006	
673.98	7700.4	
674.17	7885.4	
674.36	6531.7	
674.54	6397.9	
674.73	7565.2	
674.91	7763.8	
675.1	6146	
675.28	5798.5	
675.47	7384.3	
675.65	7818.5	
675.84	6103.6	
676.03	6417.7	
676.21	7306.5	
676.4	6812.2	
676.58	6640.9	
676.77	6469.5	
676.95	8423.3	
677.14	7124.2	
677.32	5795.8	
677.51	5677.7	
677.69	7814.4	
677.88	6954.9	
678.06	5746.6	
678.25	5787.6	
678.44	7443	
678.62	7150.8	
678.81	5517.2	
678.99	6318	
679.18	8066.3	
679.36	7811.6	
679.55	5947.3	
679.73	6536.4	
679.92	7688.1	
680.1	7242.3	
680.29	7055.3	
680.47	6014.2	
680.66	7202	
680.84	7867.6	
681.03	5501.5	
681.21	6288.6	
681.4	7177.4	
681.58	7113.3	
681.77	5784.1	
681.95	5700.2	
682.14	7884.7	
682.32	8071	
682.51	6529.6	
682.69	5530.9	
682.88	7114.6	
683.06	7594.6	
683.25	6230.6	
683.43	6666.8	
683.62	7410.2	
683.8	7662.8	
683.99	6793.1	
684.17	6128.9	
684.36	8383	
684.54	7289.4	
684.73	5522.7	
684.91	5687.9	
685.1	7505.1	
685.28	7035.5	
685.46	6069.5	
685.65	6044.9	
685.83	7600.7	
686.02	7038.9	
686.2	5588.9	
686.39	5614.8	
686.57	6888	
686.76	8079.2	
686.94	5554.8	
687.13	5712.5	
687.31	7387	
687.5	7096.9	
687.68	5244.2	
687.86	6307.7	
688.05	8485.4	
688.23	6640.2	
688.42	6313.2	
688.6	5683.8	
688.79	7042.3	
688.97	7033.4	
689.16	6061.3	
689.34	5198.4	
689.52	7539.3	
689.71	7806.9	
689.89	6247	
690.08	5750.7	
690.26	7323.5	
690.45	7188.4	
690.63	6442.2	
690.81	5872.2	
691	7111.9	
691.18	7081.2	
691.37	6027.9	
691.55	7715.4	
691.74	6964.5	
691.92	8622.6	
692.1	5941.8	
692.29	5500.2	
692.47	7200	
692.66	6552.8	
692.84	5608.7	
693.02	6066.8	
693.21	6627.2	
693.39	7015.7	
693.58	6121.4	
693.76	5660.6	
693.94	8039	
694.13	7838.9	
694.31	5599.1	
694.5	6533	
694.68	6951.5	
694.86	7305.1	
695.05	6034.7	
695.23	6274.3	
695.42	7594.6	
695.6	9427.5	
695.78	6524.8	
695.97	5724.8	
696.15	7681.2	
696.34	7055.3	
696.52	5584.8	
696.7	6336.4	
696.89	7344.7	
697.07	6941.2	
697.25	6141.2	
697.44	7303.1	
697.62	7332.4	
697.81	7551.5	
697.99	5937.1	
698.17	6223.8	
698.36	6745.3	
698.54	7400	
698.72	6182.8	
698.91	5382.7	
699.09	6969.9	
699.28	6907.1	
699.46	5917.3	
699.64	5687.9	
699.83	6757.6	
700.01	7739.3	
700.19	6413.6	
700.38	5093.3	
700.56	7681.9	
700.74	6845	
700.93	5389.6	
701.11	6032	
701.29	7262.1	
701.48	8202.1	
701.66	5559.6	
701.84	5639.4	
702.03	7012.9	
702.21	7505.8	
702.39	5292	
702.58	5768.4	
702.76	7308.5	
702.94	7359	
703.13	5231.2	
703.31	7200	
703.49	6819.7	
703.68	7960.5	
703.86	5389.6	
704.04	6173.9	
704.23	7159	
704.41	7521.5	
704.59	5540.4	
704.78	6528.2	
704.96	8167.3	
705.14	7486.7	
705.33	5308.3	
705.51	6012.2	
705.69	6901.7	
705.87	7662.1	
706.06	6167.1	
706.24	5277.6	
706.42	7178.8	
706.61	7422.5	
706.79	6246.3	
706.97	5274.9	
707.16	6761.7	
707.34	7178.8	
707.52	6230.6	
707.7	5523.4	
707.89	6840.9	
708.07	6559	
708.25	6171.9	
708.44	6242.9	
708.62	6716.7	
708.8	7719.5	
708.98	6318	
709.17	5484.5	
709.35	7067.5	
709.53	7092.1	
709.72	5220.3	
709.9	5612.1	
710.08	7348.8	
710.26	7253.2	
710.45	6524.8	
710.63	5494	
710.81	7012.9	
710.99	7012.2	
711.18	6027.2	
711.36	5532.2	
711.54	6810.2	
711.72	7477.8	
711.91	5698.1	
712.09	5220.3	
712.27	6901	
712.45	7679.2	
712.64	5847.6	
712.82	5017.5	
713	6537.1	
713.18	6606.7	
713.37	5055.1	
713.55	6032.6	
713.73	7370	
713.91	6156.9	
714.1	5390.3	
714.28	4947.9	
714.46	7003.4	
714.64	6277	
714.83	4442	
715.01	5076.2	
715.19	6378.1	
715.37	5765	
715.55	4766.3	
715.74	4997.7	
715.92	7071.6	
716.1	5334.3	
716.28	5956.9	
716.47	5072.8	
716.65	6012.8	
716.83	5994.4	
717.01	4957.4	
717.19	5046.9	
717.38	7694.2	
717.56	5696.8	
717.74	5204.6	
717.92	4401.8	
718.1	6682.5	
718.29	6012.8	
718.47	4045.4	
718.65	4610	
718.83	6657.9	
719.01	6534.4	
719.2	4057	
719.38	4992.3	
719.56	6340.5	
719.74	7608.9	
719.92	4698	
720.11	5522.7	
720.29	6406.7	
720.47	5697.4	
720.65	4291.2	
720.83	5003.9	
721.02	5984.8	
721.2	5750	
721.38	5053	
721.56	4405.2	
721.74	5373.9	
721.92	5459.2	
722.11	5369.1	
722.29	5128.1	
722.47	6478.4	
722.65	5800.5	
722.83	4354.7	
723.01	5142.4	
723.2	5816.2	
723.38	6077	
723.56	3911.6	
723.74	4816.1	
723.92	5425.1	
724.1	6313.2	
724.29	4312.3	
724.47	5255.8	
724.65	5483.8	
724.83	5411.4	
725.01	4244.8	
725.19	4815.5	
725.37	5481.7	
725.56	5457.8	
725.74	4053.6	
725.92	4280.3	
726.1	5373.2	
726.28	5689.9	
726.46	4592.9	
726.64	4336.9	
726.83	5713.8	
727.01	5806	
727.19	4035.9	
727.37	4713.7	
727.55	5718.6	
727.73	6169.2	
727.91	3964.2	
728.09	3870	
728.28	6195.1	
728.46	6428.6	
728.64	4732.2	
728.82	4670.7	
729	6933.7	
729.18	6461.3	
729.36	4031.1	
729.54	5907	
729.72	7167.2	
729.91	5792.3	
730.09	5582.1	
730.27	4561.5	
730.45	5681.1	
730.63	6193.7	
730.81	5054.4	
730.99	4232.5	
731.17	6632	
731.35	5468.8	
731.53	4711.7	
731.71	4405.2	
731.9	6457.9	
732.08	6503	
732.26	4578.6	
732.44	4286.4	
732.62	6634.7	
732.8	6154.8	
732.98	4918.5	
733.16	4113.7	
733.34	6210.1	
733.52	5091.9	
733.7	4533.5	
733.88	4717.8	
734.07	6038.1	
734.25	5813.5	
734.43	4067.9	
734.61	5358.9	
734.79	6964.5	
734.97	5652.4	
735.15	4160.8	
735.33	4410.6	
735.51	5993.7	
735.69	5676.3	
735.87	5615.5	
736.05	4614.8	
736.23	5905.7	
736.41	5582.8	
736.59	4417.5	
736.77	4543.1	
736.95	6195.8	
737.13	5722	
737.32	4162.8	
737.5	4377.9	
737.68	6715.3	
737.86	5571.8	
738.04	3984.7	
738.22	5550	
738.4	5457.2	
738.58	5756.8	
738.76	4543.1	
738.94	3697.3	
739.12	5546.6	
739.3	5423.7	
739.48	4994.3	
739.66	4740.4	
739.84	5695.4	
740.02	5704.3	
740.2	3724.6	
740.38	4026.3	
740.56	6006	
740.74	5109	
740.92	4588.1	
741.1	4459.1	
741.28	5630.5	
741.46	5401.9	
741.64	4153.3	
741.82	4634.6	
742	5544.5	
742.18	5489.9	
742.36	4346.5	
742.54	4011.3	
742.72	6097.5	
742.9	5001.1	
743.08	4732.9	
743.26	3644.7	
743.44	6185.5	
743.62	6058.6	
743.8	4733.5	
743.98	3984	
744.16	5778	
744.34	5570.5	
744.52	4733.5	
744.7	4663.2	
744.88	5973.2	
745.06	5539.1	
745.24	4739	
745.42	4724	
745.6	6047.7	
745.78	5881.1	
745.96	3758	
746.14	4003.8	
746.32	6632	
746.5	5954.1	
746.68	4495.3	
746.86	3971	
747.03	6276.3	
747.21	5016.8	
747.39	4453.6	
747.57	4001	
747.75	5635.3	
747.93	5930.9	
748.11	3987.4	
748.29	3916.4	
748.47	7026.6	
748.65	5422.3	
748.83	4602.5	
749.01	4296.6	
749.19	5861.3	
749.37	5109.7	
749.55	4300.1	
749.73	4345.1	
749.91	5583.4	
750.09	5330.2	
750.26	4323.3	
750.44	3872.7	
750.62	5485.8	
750.8	5536.3	
750.98	3741	
751.16	4081.6	
751.34	5646.9	
751.52	5096	
751.7	4708.3	
751.88	3695.9	
752.06	6028.5	
752.24	5796.4	
752.42	3698.6	
752.59	4005.8	
752.77	5528.2	
752.95	6539.2	
753.13	4627.7	
753.31	4050.2	
753.49	5311.1	
753.67	5612.1	
753.85	4314.4	
754.03	3966.9	
754.21	5966.4	
754.38	6128.9	
754.56	4218.1	
754.74	3392.1	
754.92	5242.1	
755.1	5814.2	
755.28	3409.9	
755.46	3414.6	
755.64	6596.5	
755.82	6695.5	
755.99	3722.5	
756.17	3853.6	
756.35	4573.8	
756.53	5838.8	
756.71	2897.9	
756.89	3665.9	
757.07	5520.6	
757.25	4764.9	
757.42	4069.3	
757.6	4798.4	
757.78	5537	
757.96	4732.9	
758.14	3826.3	
758.32	3465.8	
758.5	4349.2	
758.67	5033.9	
758.85	3732.8	
759.03	3797.6	
759.21	5251	
759.39	4707.6	
759.57	3315	
759.75	4278.2	
759.92	5574.6	
760.1	5197.7	
760.28	4556.7	
760.46	4706.9	
760.64	4935.6	
760.82	4778.6	
760.99	4464.6	
761.17	3715	
761.35	5597.8	
761.53	4737	
761.71	3851.5	
761.89	4439.3	
762.06	5479.7	
762.24	5061.9	
762.42	3891.1	
762.6	3665.2	
762.78	5025.7	
762.96	5543.2	
763.13	4182	
763.31	3875.4	
763.49	5738.4	
763.67	5018.9	
763.85	4590.9	
764.02	5050.3	
764.2	5920.7	
764.38	5218.2	
764.56	3855	
764.74	4598.4	
764.91	6038.1	
765.09	5034.6	
765.27	3542.3	
765.45	3390.8	
765.63	6094.1	
765.8	5818.3	
765.98	3177.1	
766.16	3417.4	
766.34	4750.6	
766.52	4564.2	
766.69	4202.4	
766.87	3306.1	
767.05	5139.7	
767.23	5743.9	
767.41	3618.1	
767.58	3805.8	
767.76	5582.1	
767.94	5592.3	
768.12	3675.4	
768.29	4276.8	
768.47	5119.2	
768.65	5732.9	
768.83	3381.2	
769	4336.2	
769.18	4794.3	
769.36	5333.6	
769.54	4358.8	
769.72	3410.6	
769.89	5634	
770.07	5692.7	
770.25	3750.5	
770.43	4661.9	
770.6	6254.5	
770.78	6645	
770.96	3819.5	
771.14	3654.3	
771.31	5555.5	
771.49	5005.9	
771.67	3122.5	
771.85	3304.7	
772.02	4440	
772.2	4997	
772.38	3971	
772.55	3538.9	
772.73	5279.7	
772.91	5079	
773.09	3835.8	
773.26	3874.8	
773.44	5160.9	
773.62	4945.2	
773.8	3510.9	
773.97	3249.4	
774.15	5301.5	
774.33	4990.9	
774.5	3380.5	
774.68	3717.1	
774.86	5424.4	
775.04	4984.8	
775.21	3495.2	
775.39	3445.4	
775.57	5220.3	
775.74	5507.7	
775.92	3290.4	
776.1	3144.3	
776.27	5195	
776.45	6187.6	
776.63	3474.7	
776.81	3101.3	
776.98	4889.9	
777.16	5796.4	
777.34	3611.3	
777.51	3818.1	
777.69	4947.9	
777.87	4680.3	
778.04	3629.7	
778.22	4138.9	
778.4	4745.1	
778.57	5228.5	
778.75	2985.9	
778.93	3216.7	
779.1	4583.4	
779.28	4431.1	
779.46	3049.4	
779.64	3397.6	
779.81	5408.7	
779.99	6099.5	
780.17	4066.6	
780.34	4171.7	
780.52	4984.1	
780.69	5099.4	
780.87	3748.5	
781.05	3328.6	
781.22	5029.1	
781.4	5031.9	
781.58	3465.2	
781.75	2802.3	
781.93	5020.3	
782.11	4525.3	
782.28	4219.5	
782.46	3503.4	
782.64	4446.8	
782.81	5221.6	
782.99	3590.8	
783.17	3491.1	
783.34	5091.9	
783.52	4509.6	
783.69	3659	
783.87	4361.5	
784.05	4613.4	
784.22	4545.8	
784.4	4369.7	
784.58	3728	
784.75	5392.3	
784.93	4719.2	
785.1	3435.1	
785.28	3987.4	
785.46	5176.6	
785.63	4515.8	
785.81	3440.6	
785.99	3360	
786.16	4706.9	
786.34	5029.1	
786.51	3386.7	
786.69	3708.9	
786.87	4390.2	
787.04	4790.9	
787.22	3268.6	
787.39	4024.9	
787.57	4576.5	
787.75	5464.7	
787.92	4246.1	
788.1	4135.5	
788.27	4585.4	
788.45	4336.2	
788.63	3906.8	
788.8	2832.3	
788.98	5111	
789.15	4237.9	
789.33	3031	
789.5	3437.2	
789.68	5322	
789.86	5415.5	
790.03	3864.5	
790.21	3376.4	
790.38	5317.2	
790.56	4767.7	
790.73	3265.1	
790.91	3278.8	
791.09	4607.9	
791.26	5213.4	
791.44	3540.3	
791.61	3065.8	
791.79	4586.1	
791.96	4529.4	
792.14	3116.3	
792.32	2789.3	
792.49	4603.2	
792.67	4717.8	
792.84	3217.4	
793.02	3061.7	
793.19	5010	
793.37	5588.2	
793.54	2792.1	
793.72	3075.4	
793.89	5651	
794.07	4634.6	
794.25	3507.5	
794.42	2921.1	
794.6	5498.1	
794.77	5182	
794.95	3800.3	
795.12	3336.8	
795.3	4569.7	
795.47	5106.3	
795.65	3651.5	
795.82	3520.5	
796	4470.7	
796.17	6006	
796.35	3446	
796.52	3999.7	
796.7	5086.5	
796.87	5168.4	
797.05	3393.5	
797.22	4172.4	
797.4	5144.5	
797.57	5961.6	
797.75	3570.3	
797.92	3351.8	
798.1	5435.3	
798.27	4520.5	
798.45	2924.5	
798.62	3124.5	
798.8	4825.7	
798.97	5265.3	
799.15	3758	
799.32	3555.3	
799.5	4240.7	
799.67	4902.2	
799.85	3852.2	
800.02	2861	
800.2	4518.5	
800.37	4848.9	
800.55	3913	
800.72	3367.5	
800.9	5195	
801.07	5565.7	
801.25	4463.9	
801.42	3682.2	
801.6	5266	
801.77	4950.6	
801.95	3426.9	
802.12	3316.3	
802.29	5088.5	
802.47	4924.7	
802.64	3682.2	
802.82	2820.7	
802.99	4568.3	
803.17	5344.5	
803.34	3510.9	
803.52	3233.1	
803.69	5915.2	
803.87	4388.8	
804.04	3500.7	
804.21	3592.1	
804.39	5532.9	
804.56	4704.9	
804.74	3038.5	
804.91	3707.5	
805.09	4603.2	
805.26	4663.2	
805.44	3074	
805.61	3416.7	
805.78	5101.5	
805.96	5169.8	
806.13	3639.9	
806.31	3937.6	
806.48	4207.2	
806.66	4675.5	
806.83	3675.4	
807	3551.9	
807.18	4591.5	
807.35	4883	
807.53	3551.2	
807.7	2934.7	
807.87	5521.3	
808.05	4603.2	
808.22	3885	
808.4	2949.8	
808.57	4573.8	
808.74	4315.1	
808.92	3327.9	
809.09	4130.1	
809.27	4565.6	
809.44	4997.7	
809.61	2933.4	
809.79	3234.4	
809.96	5621	
810.14	5214.8	
810.31	2910.2	
810.48	3489.1	
810.66	4680.3	
810.83	5285.8	
811.01	3260.4	
811.18	3627.6	
811.35	5300.1	
811.53	4162.8	
811.7	3968.3	
811.87	3634.5	
812.05	4664.6	
812.22	4561.5	
812.39	3223.5	
812.57	3130.7	
812.74	4647.5	
812.92	5995.1	
813.09	3491.1	
813.26	3674.1	
813.44	5746.6	
813.61	4532.2	
813.78	2856.2	
813.96	3809.2	
814.13	4665.3	
814.3	4392.2	
814.48	4152.6	
814.65	3415.3	
814.82	5599.8	
815	4408.6	
815.17	3527.3	
815.34	4282.3	
815.52	4637.3	
815.69	4557.4	
815.87	3510.2	
816.04	3483.6	
816.21	4653.7	
816.38	4189.5	
816.56	3402.4	
816.73	3187.3	
816.9	5758.2	
817.08	5229.1	
817.25	3294.5	
817.42	3941.7	
817.6	4263.9	
817.77	4631.1	
817.94	3597.6	
818.12	3198.2	
818.29	4425	
818.46	6594.5	
818.64	3320.4	
818.81	3133.4	
818.98	4367.6	
819.16	6086.6	
819.33	3762.1	
819.5	3541.6	
819.67	4934.2	
819.85	5450.3	
820.02	3474.7	
820.19	3696.6	
820.37	4845.5	
820.54	4533.5	
820.71	3592.1	
820.88	4392.9	
821.06	4792.9	
821.23	4472.1	
821.4	3627.6	
821.58	3558.7	
821.75	5209.3	
821.92	4748.6	
822.09	2921.8	
822.27	3070.6	
822.44	4667.3	
822.61	4529.4	
822.79	2956.6	
822.96	5518.6	
823.13	5021.6	
823.3	4382.7	
823.48	3417.4	
823.65	3031.7	
823.82	5238	
823.99	4265.9	
824.17	4251.6	
824.34	3045.3	
824.51	5980.1	
824.68	4679.6	
824.86	3293.8	
825.03	3544.4	
825.2	4662.5	
825.37	5547.9	
825.55	3143.6	
825.72	3542.3	
825.89	6019	
826.06	5543.2	
826.24	3479.5	
826.41	3454.2	
826.58	5546.6	
826.75	4878.3	
826.92	2805.7	
827.1	3060.3	
827.27	7349.5	
827.44	5943.2	
827.61	3293.8	
827.79	3958.7	
827.96	4465.3	
828.13	4645.5	
828.3	3451.5	
828.47	2996.2	
828.65	4915.1	
828.82	4777.9	
828.99	4313	
829.16	3796.3	
829.34	5160.9	
829.51	5007.3	
829.68	3538.2	
829.85	3597.6	
830.02	5426.4	
830.2	5193	
830.37	2790	
830.54	4186.7	
830.71	5802.6	
830.88	4617.5	
831.05	2808.4	
831.23	3170.9	
831.4	5647.6	
831.57	6168.5	
831.74	3293.8	
831.91	2895.8	
832.09	4952	
832.26	5169.8	
832.43	3395.5	
832.6	3792.8	
832.77	4866	
832.94	5509	
833.12	2725.8	
833.29	3345.7	
833.46	4960.2	
833.63	6350.8	
833.8	3688.4	
833.97	3403.7	
834.15	5248.3	
834.32	5070.8	
834.49	3534.8	
834.66	3607.2	
834.83	5286.5	
835	4459.8	
835.17	3231	
835.35	3272.7	
835.52	5095.3	
835.69	5026.4	
835.86	3489.7	
836.03	2859	
836.2	5158.2	
836.37	4918.5	
836.55	3379.8	
836.72	3186	
836.89	4813.4	
837.06	5227.1	
837.23	3437.9	
837.4	3722.5	
837.57	5884.5	
837.75	6403.3	
837.92	3104	
838.09	3300.6	
838.26	4789.5	
838.43	5383.4	
838.6	3541.6	
838.77	3224.9	
838.94	6124.1	
839.11	5803.3	
839.29	3401	
839.46	2750.4	
839.63	5158.8	
839.8	4927.4	
839.97	3271.3	
840.14	3278.1	
840.31	5048.2	
840.48	5240.1	
840.65	2775.7	
840.82	3224.9	
841	5164.3	
841.17	5053	
841.34	3016.7	
841.51	3155.2	
841.68	5142.4	
841.85	4923.3	
842.02	3166.8	
842.19	2625.5	
842.36	4976.6	
842.53	4937	
842.7	3068.5	
842.87	3648.1	
843.05	6334.4	
843.22	4947.2	
843.39	2937.5	
843.56	3112.9	
843.73	4692.6	
843.9	5247.6	
844.07	4840	
844.24	3996.3	
844.41	7170.6	
844.58	4524.6	
844.75	2926.5	
844.92	3198.9	
845.09	5125.4	
845.26	5121.3	
845.43	2996.2	
845.6	3235.8	
845.77	5253.7	
845.94	4926	
846.12	3370.3	
846.29	3530.7	
846.46	5370.5	
846.63	5167.7	
846.8	3017.3	
846.97	3576.4	
847.14	5567.1	
847.31	5116.5	
847.48	3425.6	
847.65	3684.3	
847.82	5379.3	
847.99	5287.9	
848.16	3998.3	
848.33	3661.1	
848.5	4741	
848.67	5533.6	
848.84	2990	
849.01	3123.2	
849.18	4726.7	
849.35	4459.1	
849.52	3741	
849.69	2953.2	
849.86	5335.6	
850.03	5415.5	
850.2	3046	
850.37	3657.7	
850.54	5447.6	
850.71	4886.5	
850.88	3631	
851.05	2984.6	
851.22	5038.7	
851.39	5516.5	
851.56	2900.6	
851.73	3401.7	
851.9	4589.5	
852.07	5324.7	
852.24	3362.8	
852.41	2964.8	
852.58	5107.6	
852.75	4636.6	
852.92	3364.8	
853.09	2937.5	
853.26	4788.8	
853.43	5472.2	
853.6	2977.1	
853.77	2616.6	
853.94	5626.5	
854.11	4565.6	
854.28	4389.5	
854.44	3271.3	
854.61	5938.4	
854.78	5450.3	
854.95	3018	
855.12	3762.1	
855.29	4229.1	
855.46	5812.1	
855.63	3032.4	
855.8	4116.4	
855.97	4730.8	
856.14	5403.9	
856.31	4154	
856.48	3297.9	
856.65	4760.2	
856.82	4502.1	
856.99	2961.4	
857.16	3227.6	
857.33	6133.7	
857.49	4845.5	
857.66	3211.2	
857.83	3457.7	
858	4820.9	
858.17	5000.5	
858.34	2880.1	
858.51	3030.3	
858.68	5720	
858.85	5702.2	
859.02	3528	
859.19	3662.5	
859.36	4543.8	
859.52	4597.7	
859.69	3009.8	
859.86	3546.4	
860.03	4632.5	
860.2	5622.4	
860.37	2790.7	
860.54	3037.8	
860.71	5346.6	
860.88	5716.6	
861.05	3397.6	
861.21	3788.7	
861.38	5649.7	
861.55	4472.1	
861.72	2833	
861.89	3360.7	
862.06	5361.6	
862.23	5784.1	
862.4	2968.9	
862.56	3161.4	
862.73	5231.2	
862.9	4930.8	
863.07	3545	
863.24	2789.3	
863.41	4518.5	
863.58	4635.9	
863.75	3079.5	
863.91	3519.8	
864.08	5616.2	
864.25	5303.6	
864.42	3762.8	
864.59	4139.6	
864.76	5924.8	
864.93	4584.7	
865.09	2955.9	
865.26	3193.5	
865.43	5563	
865.6	5850.4	
865.77	2704.7	
865.94	2973.7	
866.1	5552.7	
866.27	5304.2	
866.44	4382	
866.61	2845.3	
866.78	4932.2	
866.95	5227.8	
867.11	2928.6	
867.28	2678.1	
867.45	5446.9	
867.62	4573.8	
867.79	3453.6	
867.96	2987.3	
868.12	4505.5	
868.29	5340.4	
868.46	2661	
868.63	4005.1	
868.8	5499.5	
868.97	5337	
869.13	3190.1	
869.3	3183.9	
869.47	5236	
869.64	5410.7	
869.81	3060.3	
869.97	3060.3	
870.14	5154.7	
870.31	5715.2	
870.48	2964.8	
870.65	3807.2	
870.81	4877.6	
870.98	4878.3	
871.15	3419.4	
871.32	3136.8	
871.48	5176.6	
871.65	5724.1	
871.82	3009.1	
871.99	3338.2	
872.16	5988.3	
872.32	5466.7	
872.49	3047.4	
872.66	3052.8	
872.83	5383.4	
872.99	4699.4	
873.16	3454.2	
873.33	2963.4	
873.5	4942.4	
873.67	5031.2	
873.83	3163.4	
874	4014	
874.17	5177.3	
874.34	5969.8	
874.5	3876.8	
874.67	3763.5	
874.84	5631.2	
875.01	4482.3	
875.17	4181.3	
875.34	3003.7	
875.51	5042.8	
875.68	6040.8	
875.84	3635.8	
876.01	4410	
876.18	5319.3	
876.34	5261.9	
876.51	3026.2	
876.68	2988	
876.85	4883.7	
877.01	5552	
877.18	4250.9	
877.35	3015.3	
877.52	5036.6	
877.68	4533.5	
877.85	2940.9	
878.02	2968.9	
878.18	4872.1	
878.35	4716.5	
878.52	2469.9	
878.69	3347.7	
878.85	5408	
879.02	5278.3	
879.19	4210.6	
879.35	3229.6	
879.52	5287.9	
879.69	5359.5	
879.86	2641.9	
880.02	3371	
880.19	4900.1	
880.36	5988.3	
880.52	3448.8	
880.69	3561.4	
880.86	5390.9	
881.02	5439.4	
881.19	3311.6	
881.36	3244	
881.52	5270.8	
881.69	4671.4	
881.86	3263.8	
882.02	3194.1	
882.19	5516.5	
882.36	6358.3	
882.52	3061.7	
882.69	4132.1	
882.86	5098.1	
883.02	5037.3	
883.19	3647.4	
883.36	3437.2	
883.52	5375.9	
883.69	6026.5	
883.86	3061	
884.02	2766.1	
884.19	5303.6	
884.36	4997	
884.52	3410.6	
884.69	3211.2	
884.86	4732.9	
885.02	5771.9	
885.19	3328.6	
885.36	3453.6	
885.52	4938.3	
885.69	5091.9	
885.86	4257.7	
886.02	3797.6	
886.19	5372.5	
886.35	4827.1	
886.52	3353.9	
886.69	4169	
886.85	4596.3	
887.02	5596.4	
887.19	5596.4	
887.35	5596.4	
887.52	5596.4	
887.68	5596.4	
887.85	5596.4	
888.02	5596.4	
888.18	5596.4	
888.35	5596.4	
888.51	5596.4	
888.68	5596.4	
888.85	5596.4	
889.01	5596.4	
889.18	5596.4	
889.35	5596.4	
889.51	5596.4	
889.68	5596.4	
889.84	5596.4	
890.01	5596.4	
890.17	5596.4	
890.34	5596.4	
890.51	5596.4	
890.67	5596.4	
890.84	5596.4	
891	5596.4	
891.17	5596.4	
891.34	5596.4	
891.5	5596.4	
891.67	5596.4	
891.83	5596.4	
892	5596.4	
892.16	5596.4	
892.33	5596.4	
892.5	5596.4	
892.66	5596.4	
892.83	5596.4	
892.99	5596.4	
893.16	5596.4	
893.32	5596.4	
893.49	5596.4	
893.65	5596.4	
893.82	5596.4	
893.99	5596.4	
894.15	5596.4	
894.32	5596.4	
894.48	5596.4	
894.65	5596.4	
894.81	5596.4	
894.98	5596.4	
895.14	5596.4	
895.31	5596.4	
895.47	5596.4	
895.64	5596.4	
895.81	5596.4	
895.97	5596.4	
896.14	5596.4	
896.3	5596.4	
896.47	5596.4	
896.63	5596.4	
896.8	5596.4	
896.96	5596.4	
897.13	5596.4	
897.29	5596.4	
897.46	5596.4	
897.62	5596.4	
897.79	5596.4	
897.95	5596.4	
898.12	5596.4	
898.28	5596.4	
898.45	5596.4	
898.61	5596.4	
898.78	5596.4	
898.94	5596.4	
899.11	5596.4	
899.27	5596.4	
899.44	5596.4	
899.6	5596.4	
899.77	5596.4	
899.93	5596.4	
900.1	5596.4	
900.26	5596.4	
900.43	5596.4	
900.59	5596.4	
900.76	5596.4	
900.92	5596.4	
901.09	5596.4	
901.25	5596.4	
901.42	5596.4	
901.58	5596.4	
901.75	5596.4	
901.91	5596.4	
902.07	5596.4	
902.24	5596.4	
902.4	5596.4	
902.57	5596.4	
902.73	5596.4	
902.9	5596.4	
903.06	5596.4	
903.23	5596.4	
903.39	5596.4	
903.56	5596.4	
903.72	5596.4	
903.88	5596.4	
904.05	5596.4	
904.21	5596.4	
904.38	5596.4	
904.54	5596.4	
904.71	5596.4	
904.87	5596.4	
905.03	5596.4	
905.2	5596.4	
905.36	5596.4	
905.53	5596.4	
905.69	5596.4	
905.86	5596.4	
906.02	5596.4	
906.18	5596.4	
906.35	5596.4	
906.51	5596.4	
906.68	5596.4	
906.84	5596.4	
907.01	5596.4	
907.17	5596.4	
907.33	5596.4	
907.5	5596.4	
907.66	5596.4	
907.83	5596.4	
907.99	5596.4	
908.15	5596.4	
908.32	5596.4	
908.48	5596.4	
908.65	5596.4	
908.81	5596.4	
908.97	5596.4	
909.14	5596.4	
909.3	5596.4	
909.47	5596.4	
909.63	5596.4	
909.79	5596.4	
909.96	5596.4	
910.12	5596.4	
910.28	5596.4	
910.45	5596.4	
910.61	5596.4	
910.78	5596.4	
910.94	5596.4	
911.1	5596.4	
911.27	5596.4	
911.43	5596.4	
911.59	5596.4	
911.76	5596.4	
911.92	5596.4	
912.08	5596.4	
912.25	5596.4	
912.41	5596.4	
912.57	5596.4	
912.74	5596.4	
912.9	5596.4	
913.07	5596.4	
913.23	5596.4	
913.39	5596.4	
913.56	5596.4	
913.72	5596.4	
913.88	5596.4	
914.05	5596.4	
914.21	5596.4	
914.37	5596.4	
914.54	5596.4	
914.7	5596.4	
914.86	5596.4	
915.03	5596.4	
915.19	5596.4	
