Wavelength	Intensities	
nm	a.u.	
179.22	1937.7	
179.44	1940.1	
179.65	1935.3	
179.86	1944.9	
180.08	1938.1	
180.29	5085.8	
180.51	3581.9	
180.72	5749.3	
180.94	6782.2	
181.15	3300	
181.37	3227.6	
181.58	5624.4	
181.79	5883.8	
182.01	3463.1	
182.22	3735.5	
182.44	5891.3	
182.65	4914.4	
182.87	4666.6	
183.08	4078.2	
183.29	6156.9	
183.51	5079.6	
183.72	3700	
183.94	5455.8	
184.15	5492.7	
184.37	5505.6	
184.58	3295.2	
184.79	4546.5	
185.01	5038	
185.22	5862.7	
185.44	4854.4	
185.65	3983.3	
185.86	5378.6	
186.08	5000.5	
186.29	3166.8	
186.51	3421.5	
186.72	5169.8	
186.94	6040.8	
187.15	3981.3	
187.36	4087.7	
187.58	7972.7	
187.79	5573.9	
188.01	4324.6	
188.22	6815	
188.43	6845	
188.65	5891.3	
188.86	3394.2	
189.08	4119.8	
189.29	5273.5	
189.5	5268.1	
189.72	3788.1	
189.93	3930.1	
190.15	6084.5	
190.36	7235.5	
190.57	4228.4	
190.79	4076.1	
191	6158.9	
191.22	6064	
191.43	4207.2	
191.64	3390.8	
191.86	6297.5	
192.07	6150.7	
192.29	3652.9	
192.5	3827.7	
192.71	6094.1	
192.93	5178.6	
193.14	3817.4	
193.35	3863.8	
193.57	5267.4	
193.78	6008.7	
194	3085.6	
194.21	3766.2	
194.42	4980.7	
194.64	5527.5	
194.85	4134.2	
195.07	4885.1	
195.28	5634	
195.49	4825.7	
195.71	5150	
195.92	3539.6	
196.13	5699.5	
196.35	5900.2	
196.56	5469.4	
196.78	4138.9	
196.99	7219.1	
197.2	6743.3	
197.42	4727.4	
197.63	4175.8	
197.84	4936.3	
198.06	5694	
198.27	3857.7	
198.48	5143.1	
198.7	5218.9	
198.91	5400.5	
199.13	4124.6	
199.34	4152.6	
199.55	5887.9	
199.77	4793.6	
199.98	3697.9	
200.19	4204.5	
200.41	5281.7	
200.62	5065.3	
200.83	4379.9	
201.05	4704.9	
201.26	5438.7	
201.47	5159.5	
201.69	3718.4	
201.9	3510.2	
202.11	5466	
202.33	6510.5	
202.54	3956.7	
202.76	4434.5	
202.97	5638.1	
203.18	5659.2	
203.4	4351.3	
203.61	4248.9	
203.82	5558.9	
204.04	5172.5	
204.25	4228.4	
204.46	4049.5	
204.68	5531.6	
204.89	5827.2	
205.1	4036.5	
205.32	3517	
205.53	5929.6	
205.74	6077	
205.96	3020.8	
206.17	4262.5	
206.38	5899.5	
206.6	6029.9	
206.81	4782	
207.02	3896.6	
207.24	5698.1	
207.45	6193.1	
207.66	3924.6	
207.88	3360	
208.09	5696.1	
208.3	5487.2	
208.52	3661.1	
208.73	4016.1	
208.94	5509	
209.15	6232	
209.37	3887.7	
209.58	4166.3	
209.79	6055.2	
210.01	5314.5	
210.22	3131.3	
210.43	3301.3	
210.65	5550	
210.86	6014.2	
211.07	4033.1	
211.29	3642	
211.5	5883.8	
211.71	5414.1	
211.93	3614	
212.14	3676.8	
212.35	5447.6	
212.56	5689.9	
212.78	4194.9	
212.99	3402.4	
213.2	6521.4	
213.42	5255.8	
213.63	3758.7	
213.84	4033.8	
214.06	4889.2	
214.27	4962.9	
214.48	3981.3	
214.69	4214.7	
214.91	6209.4	
215.12	6346.7	
215.33	4274.8	
215.55	4704.2	
215.76	6809.5	
215.97	5924.1	
216.18	4173.1	
216.4	4043.4	
216.61	5177.3	
216.82	6012.8	
217.04	3647.4	
217.25	3786	
217.46	6185.5	
217.67	5926.8	
217.89	3214.6	
218.1	3376.4	
218.31	5573.2	
218.53	5696.1	
218.74	3795.6	
218.95	3761.4	
219.16	5420.3	
219.38	6401.3	
219.59	3751.9	
219.8	4467.3	
220.01	7137.9	
220.23	5534.3	
220.44	4932.2	
220.65	3591.5	
220.87	5572.5	
221.08	6214.2	
221.29	3326.6	
221.5	4508.9	
221.72	7614.3	
221.93	5261.9	
222.14	4177.9	
222.35	4893.3	
222.57	5679.7	
222.78	5920.7	
222.99	3977.8	
223.2	4254.3	
223.42	5881.8	
223.63	6012.2	
223.84	3040.6	
224.05	3040.6	
224.27	7070.3	
224.48	6421.1	
224.69	4949.3	
224.9	4186.7	
225.12	5758.2	
225.33	5471.5	
225.54	3287	
225.75	3762.1	
225.97	5063.3	
226.18	5345.2	
226.39	4046.8	
226.6	3673.4	
226.82	5250.3	
227.03	5111	
227.24	4205.2	
227.45	3429	
227.67	5910.4	
227.88	6511.9	
228.09	4681.7	
228.3	4654.4	
228.52	5939.8	
228.73	5483.8	
228.94	3915.7	
229.15	3478.8	
229.36	5437.4	
229.58	5286.5	
229.79	3902.1	
230	4571.7	
230.21	6617.7	
230.43	5571.8	
230.64	4154	
230.85	4352.6	
231.06	5905.7	
231.28	5980.1	
231.49	3471.3	
231.7	4050.2	
231.91	5814.9	
232.12	5560.2	
232.34	3476.8	
232.55	3990.1	
232.76	6247.7	
232.97	5698.8	
233.18	3631.7	
233.4	4105.5	
233.61	5772.5	
233.82	5218.9	
234.03	3837.9	
234.25	3742.3	
234.46	7710.6	
234.67	5593.7	
234.88	4272.1	
235.09	3721.2	
235.31	5846.3	
235.52	5399.8	
235.73	4162.2	
235.94	3495.9	
236.15	5221	
236.37	6724.8	
236.58	3655.6	
236.79	3996.3	
237	5791.7	
237.21	4995	
237.43	4287.8	
237.64	3346.4	
237.85	10176	
238.06	5067.4	
238.27	4341	
238.48	3538.2	
238.7	5919.3	
238.91	5323.4	
239.12	3965.6	
239.33	4044.7	
239.54	5102.2	
239.76	5475.6	
239.97	3966.2	
240.18	4007.2	
240.39	6956.9	
240.6	5866.1	
240.82	4112.3	
241.03	3418.1	
241.24	5472.2	
241.45	6382.8	
241.66	3627.6	
241.87	4340.3	
242.09	6275	
242.3	6614.3	
242.51	4419.5	
242.72	4021.5	
242.93	6007.4	
243.14	5417.6	
243.36	4640	
243.57	4973.8	
243.78	6346.7	
243.99	5911.1	
244.2	3999	
244.41	3635.8	
244.63	5019.6	
244.84	5803.3	
245.05	4348.5	
245.26	4031.1	
245.47	5835.3	
245.68	6110.5	
245.9	5343.2	
246.11	4200.4	
246.32	5330.2	
246.53	5771.9	
246.74	6515.3	
246.95	3310.9	
247.16	4977.2	
247.38	5571.8	
247.59	3331.4	
247.8	4067.3	
248.01	5218.9	
248.22	5408	
248.43	3682.2	
248.64	3904.8	
248.86	4839.4	
249.07	5264	
249.28	3495.9	
249.49	4119.8	
249.7	6029.2	
249.91	6275.7	
250.12	3310.9	
250.34	3389.4	
250.55	5601.9	
250.76	5521.3	
250.97	4138.9	
251.18	4233.8	
251.39	6265.4	
251.6	5684.5	
251.81	4248.9	
252.03	4209.9	
252.24	5233.9	
252.45	6109.8	
252.66	3463.8	
252.87	4489.8	
253.08	5537.7	
253.29	7320.8	
253.5	3467.9	
253.72	4887.1	
253.93	5321.3	
254.14	6588.3	
254.35	3761.4	
254.56	3887	
254.77	5760.3	
254.98	5179.3	
255.19	3752.6	
255.41	4861.2	
255.62	5602.6	
255.83	6217	
256.04	4320.5	
256.25	4259.8	
256.46	6837.5	
256.67	5215.5	
256.88	4133.5	
257.09	4661.2	
257.31	5134.3	
257.52	5172.5	
257.73	5210	
257.94	3801	
258.15	5362.9	
258.36	5504.9	
258.57	4748.6	
258.78	2999.6	
258.99	6071.5	
259.2	5350	
259.41	3846.8	
259.63	3861.1	
259.84	6371.2	
260.05	6869.6	
260.26	5132.9	
260.47	3698.6	
260.68	6090	
260.89	5416.2	
261.1	4644.8	
261.31	3615.3	
261.52	6133	
261.73	6492.7	
261.95	4938.3	
262.16	4375.1	
262.37	6280.4	
262.58	6381.5	
262.79	4958.1	
263	3932.1	
263.21	5605.3	
263.42	4978.6	
263.63	3941	
263.84	3831.7	
264.05	6129.6	
264.26	6552.8	
264.47	4786.8	
264.69	4337.6	
264.9	6215.6	
265.11	5722	
265.32	3710.2	
265.53	3781.9	
265.74	5659.9	
265.95	4941.7	
266.16	4110.3	
266.37	4532.8	
266.58	5654.4	
266.79	5320.6	
267	3715.7	
267.21	3479.5	
267.42	5085.8	
267.63	5446.9	
267.84	3988.8	
268.06	3412.6	
268.27	5967.1	
268.48	6321.4	
268.69	3846.1	
268.9	4681	
269.11	6215.6	
269.32	4972.5	
269.53	4001	
269.74	3730	
269.95	5868.8	
270.16	4846.9	
270.37	3964.9	
270.58	4649.6	
270.79	5334.3	
271	6059.3	
271.21	4333.5	
271.42	4089.1	
271.63	5653.1	
271.84	5221.6	
272.05	3165.5	
272.26	3592.8	
272.47	5559.6	
272.68	5763.7	
272.89	3868.6	
273.11	4390.2	
273.32	5305.6	
273.53	6553.5	
273.74	4319.2	
273.95	4248.2	
274.16	6245.6	
274.37	5599.1	
274.58	4334.9	
274.79	3487.7	
275	5612.8	
275.21	6265.4	
275.42	5262.6	
275.63	4539.7	
275.84	5732.9	
276.05	7257.3	
276.26	4212	
276.47	3965.6	
276.68	5309	
276.89	6530.3	
277.1	4554	
277.31	3563.5	
277.52	5806	
277.73	5945.3	
277.94	3429.7	
278.15	3862.5	
278.36	5841.5	
278.57	5169.8	
278.78	3832.4	
278.99	4321.9	
279.2	5109.7	
279.41	5107.6	
279.62	5069.4	
279.83	3514.3	
280.04	6718	
280.25	5011.4	
280.46	5087.8	
280.67	4001.7	
280.88	5095.3	
281.09	6233.3	
281.3	4259.1	
281.51	5332.9	
281.72	6037.4	
281.93	6071.5	
282.14	3709.6	
282.35	4005.1	
282.56	6042.9	
282.77	6032.6	
282.98	3775.8	
283.19	4810.7	
283.4	7423.2	
283.61	5472.2	
283.82	3535.5	
284.03	5006.6	
284.24	5600.5	
284.45	6204	
284.66	5016.2	
284.87	4760.8	
285.08	6151.4	
285.29	6310.5	
285.5	3358.7	
285.71	3891.8	
285.92	6215.6	
286.12	6907.8	
286.33	4969.7	
286.54	3901.4	
286.75	6044.2	
286.96	5356.1	
287.17	3567.6	
287.38	4881.7	
287.59	5138.4	
287.8	5046.2	
288.01	3922.5	
288.22	4540.3	
288.43	5642.2	
288.64	5043.5	
288.85	4700.8	
289.06	4440	
289.27	5943.9	
289.48	6567.8	
289.69	4960.2	
289.9	4433.9	
290.11	6212.2	
290.32	5245.5	
290.53	4698	
290.74	4369	
290.94	6025.8	
291.15	6109.8	
291.36	3785.3	
291.57	4489.8	
291.78	5236	
291.99	4943.1	
292.2	3592.8	
292.41	4395.6	
292.62	6141.2	
292.83	5866.7	
293.04	5392.3	
293.25	3609.9	
293.46	5335.6	
293.67	6123.4	
293.88	3746.4	
294.09	3590.1	
294.29	5078.3	
294.5	5702.9	
294.71	4018.8	
294.92	3872.7	
295.13	5314.5	
295.34	6647.7	
295.55	3330.7	
295.76	3458.3	
295.97	5970.5	
296.18	6782.2	
296.39	3522.5	
296.6	3751.9	
296.81	5612.1	
297.01	5987.6	
297.22	3947.1	
297.43	3724.6	
297.64	5124	
297.85	5156.1	
298.06	3084.9	
298.27	3375.1	
298.48	5571.8	
298.69	5218.2	
298.9	4038.6	
299.11	3584.6	
299.31	5043.5	
299.52	5036	
299.73	4327.4	
299.94	4274.8	
300.15	5577.3	
300.36	5125.4	
300.57	4303.5	
300.78	4298	
300.99	5423.7	
301.2	5666	
301.4	3747.1	
301.61	4072.7	
301.82	5882.4	
302.03	5943.9	
302.24	4579.9	
302.45	3604.4	
302.66	5865.4	
302.87	6369.2	
303.08	3775.1	
303.29	5141.1	
303.49	5270.8	
303.7	5607.3	
303.91	3358	
304.12	4895.3	
304.33	5010.7	
304.54	5657.2	
304.75	3789.4	
304.96	3542.3	
305.16	5862.7	
305.37	6634.7	
305.58	3259.7	
305.79	3416.7	
306	5838.8	
306.21	4922.6	
306.42	3771	
306.63	5834.7	
306.83	5372.5	
307.04	6171.2	
307.25	4175.8	
307.46	4131.4	
307.67	4709.6	
307.88	6053.8	
308.09	3668.6	
308.29	3888.4	
308.5	5607.3	
308.71	6130.3	
308.92	3987.4	
309.13	3609.2	
309.34	5390.9	
309.55	5464.7	
309.75	4681.7	
309.96	4349.2	
310.17	6037.4	
310.38	5229.1	
310.59	4582.7	
310.8	3446	
311.01	5371.8	
311.21	5392.3	
311.42	3526.6	
311.63	3701.4	
311.84	5309.7	
312.05	5702.9	
312.26	4155.3	
312.46	4592.9	
312.67	5330.9	
312.88	5053.7	
313.09	3713.6	
313.3	3540.9	
313.51	6352.8	
313.71	6765.8	
313.92	3608.5	
314.13	3799.7	
314.34	5798.5	
314.55	5428.5	
314.76	4610	
314.96	4082.3	
315.17	5629.2	
315.38	5932.3	
315.59	3603.1	
315.8	3479.5	
316.01	6484.6	
316.21	6445.6	
316.42	3519.8	
316.63	4012.7	
316.84	5369.1	
317.05	6287.9	
317.26	4286.4	
317.46	3788.7	
317.67	5487.9	
317.88	5925.5	
318.09	4642.1	
318.3	3386.7	
318.5	5221	
318.71	5826.5	
318.92	5918.6	
319.13	4269.3	
319.34	6066.8	
319.54	6197.8	
319.75	3358	
319.96	3194.1	
320.17	5991	
320.38	6110.5	
320.58	3304.7	
320.79	3987.4	
321	6107	
321.21	6229.2	
321.42	4015.4	
321.62	3276.1	
321.83	5124.7	
322.04	5552	
322.25	3781.2	
322.46	3661.1	
322.66	5618.3	
322.87	5780.7	
323.08	4559.5	
323.29	3622.2	
323.5	6598.6	
323.7	5095.3	
323.91	5013.4	
324.12	4406.5	
324.33	5609.4	
324.53	5882.4	
324.74	4285.7	
324.95	4532.8	
325.16	4843.4	
325.37	5316.5	
325.57	3642.7	
325.78	3699.3	
325.99	5604.6	
326.2	4969.1	
326.4	5200.5	
326.61	3345	
326.82	5461.2	
327.03	5645.6	
327.24	5155.4	
327.44	4932.2	
327.65	5807.4	
327.86	4650.3	
328.07	4316.4	
328.27	3476.1	
328.48	6284.5	
328.69	5096.7	
328.9	5257.1	
329.1	3878.9	
329.31	5408.7	
329.52	6427.2	
329.73	3635.8	
329.93	4079.6	
330.14	5550.7	
330.35	5773.9	
330.56	6077	
330.76	4470.7	
330.97	5350.7	
331.18	5741.1	
331.39	4010.6	
331.59	3235.8	
331.8	6173.9	
332.01	6247.7	
332.22	3739.6	
332.42	4258.4	
332.63	5692	
332.84	5201.8	
333.05	4043.4	
333.25	3681.6	
333.46	5296	
333.67	5537	
333.88	3773.7	
334.08	4276.8	
334.29	7386.3	
334.5	6294.8	
334.7	3474	
334.91	5217.5	
335.12	5008.6	
335.33	6018.3	
335.53	4090.5	
335.74	6041.5	
335.95	5285.1	
336.16	5136.3	
336.36	4001.7	
336.57	4683	
336.78	5005.9	
336.98	6191.7	
337.19	4922	
337.4	3964.2	
337.61	6741.9	
337.81	5131.5	
338.02	3740.3	
338.23	4845.5	
338.43	6352.8	
338.64	5165	
338.85	3602.4	
339.05	4868.7	
339.26	6479.8	
339.47	5020.3	
339.68	3580.5	
339.88	5461.2	
340.09	5778.7	
340.3	6009.4	
340.5	4279.6	
340.71	3250.1	
340.92	4997	
341.13	6279.8	
341.33	3494.5	
341.54	4332.1	
341.75	5757.5	
341.95	5364.3	
342.16	4136.9	
342.37	4444.1	
342.57	5106.3	
342.78	5491.3	
342.99	4608.6	
343.19	3319.1	
343.4	5983.5	
343.61	5751.4	
343.81	3900.7	
344.02	3587.4	
344.23	5967.8	
344.43	6436.1	
344.64	4568.3	
344.85	4399	
345.06	5809.4	
345.26	6195.8	
345.47	4173.1	
345.68	4928.8	
345.88	4847.5	
346.09	6057.9	
346.3	4308.2	
346.5	3238.5	
346.71	5548.6	
346.92	5289.9	
347.12	3298.6	
347.33	4205.8	
347.54	6114.6	
347.74	6507.1	
347.95	4189.5	
348.16	3111.5	
348.36	5343.2	
348.57	5122.7	
348.78	4098	
348.98	4493.9	
349.19	5542.5	
349.39	4952	
349.6	3307.5	
349.81	3697.9	
350.01	5786.9	
350.22	5254.4	
350.43	3992.2	
350.63	4819.6	
350.84	5554.1	
351.05	5322.7	
351.25	3670.6	
351.46	3355.9	
351.67	6124.1	
351.87	5279	
352.08	3889.8	
352.29	4438.6	
352.49	5978.7	
352.7	5649.7	
352.9	3527.3	
353.11	4433.2	
353.32	6636.8	
353.52	5317.2	
353.73	3437.9	
353.94	4508.9	
354.14	5789.6	
354.35	5662.6	
354.55	3585.3	
354.76	3989.4	
354.97	5817.6	
355.17	5555.5	
355.38	3350.5	
355.59	4776.5	
355.79	5135.6	
356	5555.5	
356.2	3923.2	
356.41	3411.2	
356.62	4856.4	
356.82	5410.1	
357.03	4304.1	
357.24	3775.1	
357.44	5214.1	
357.65	5322	
357.85	5149.3	
358.06	4052.9	
358.27	4904.2	
358.47	5118.6	
358.68	3323.9	
358.88	4233.2	
359.09	5778.7	
359.3	6141.2	
359.5	4990.2	
359.71	4364.2	
359.91	6664.1	
360.12	5881.8	
360.33	4217.5	
360.53	4665.3	
360.74	5136.3	
360.94	5138.4	
361.15	4447.5	
361.36	3566.9	
361.56	5935.7	
361.77	5360.2	
361.97	4904.9	
362.18	3860.4	
362.38	5956.9	
362.59	5014.1	
362.8	3513.6	
363	3357.3	
363.21	4790.2	
363.41	5492	
363.62	3994.2	
363.83	5191.6	
364.03	5547.3	
364.24	6525.5	
364.44	5233.2	
364.65	5109	
364.85	5312.4	
365.06	4892.6	
365.27	3727.3	
365.47	3700.7	
365.68	6232.7	
365.88	5234.6	
366.09	4076.8	
366.29	3788.1	
366.5	5580.7	
366.71	6008.1	
366.91	5061.9	
367.12	4259.8	
367.32	6556.9	
367.53	5768.4	
367.73	4137.6	
367.94	5177.9	
368.14	5773.9	
368.35	6682.5	
368.56	4185.4	
368.76	3749.8	
368.97	5883.8	
369.17	7640.3	
369.38	3679.5	
369.58	3901.4	
369.79	4896	
369.99	6287.9	
370.2	5059.2	
370.4	4044.7	
370.61	5591.6	
370.82	6821.8	
371.02	3894.6	
371.23	3195.5	
371.43	4711.7	
371.64	6122.1	
371.84	3916.4	
372.05	5207.3	
372.25	7542.7	
372.46	5857.2	
372.66	3878.9	
372.87	3843.4	
373.07	5933	
373.28	7578.8	
373.48	4917.9	
373.69	4654.4	
373.9	5255.8	
374.1	5374.6	
374.31	4864.6	
374.51	4369.7	
374.72	6182.1	
374.92	4973.2	
375.13	4985.4	
375.33	4189.5	
375.54	5689.3	
375.74	5089.9	
375.95	4197.7	
376.15	5485.1	
376.36	5683.8	
376.56	5475.6	
376.77	4255.7	
376.97	4706.2	
377.18	6690.7	
377.38	5790.3	
377.59	5101.5	
377.79	3729.4	
378	5511.8	
378.2	5993.7	
378.41	3755.3	
378.61	3637.9	
378.82	5967.1	
379.02	5068	
379.23	3938.9	
379.43	5095.3	
379.64	6010.8	
379.84	5677.7	
380.05	3706.8	
380.25	3695.9	
380.46	5724.1	
380.66	5381.4	
380.87	5120.6	
381.07	5556.1	
381.28	6423.8	
381.48	5784.1	
381.69	3777.8	
381.89	3815.4	
382.1	4739	
382.3	6015.6	
382.51	4980.7	
382.71	5911.8	
382.91	5850.4	
383.12	6407.4	
383.32	4187.4	
383.53	4432.5	
383.73	5610.8	
383.94	5450.3	
384.14	4246.1	
384.35	3439.2	
384.55	5431.9	
384.76	5880.4	
384.96	4161.5	
385.17	4521.9	
385.37	5794.4	
385.58	5139.7	
385.78	4485.7	
385.98	3333.4	
386.19	5276.3	
386.39	5710.4	
386.6	3921.9	
386.8	4229.1	
387.01	5812.8	
387.21	5867.4	
387.42	4609.3	
387.62	5199.1	
387.83	5124	
388.03	5827.8	
388.23	4199.7	
388.44	5104.2	
388.64	4684.4	
388.85	4886.5	
389.05	4532.8	
389.26	5203.2	
389.46	6891.4	
389.67	6243.6	
389.87	4516.5	
390.07	4585.4	
390.28	5360.9	
390.48	4973.8	
390.69	3676.1	
390.89	3999.7	
391.1	5176.6	
391.3	6159.6	
391.5	5255.1	
391.71	5937.7	
391.91	5850.4	
392.12	6935.8	
392.32	5446.9	
392.53	4554	
392.73	5205.3	
392.93	5406	
393.14	4194.2	
393.34	5059.2	
393.55	5922	
393.75	5403.9	
393.95	4237.9	
394.16	4140.3	
394.36	5101.5	
394.57	5892	
394.77	3633.8	
394.98	4154	
395.18	5087.2	
395.38	5351.3	
395.59	4969.1	
395.79	3885.7	
396	5209.3	
396.2	5687.9	
396.4	4752	
396.61	4580.6	
396.81	5957.5	
397.02	5147.2	
397.22	4983.4	
397.42	4990.2	
397.63	5815.5	
397.83	5020.9	
398.04	3763.5	
398.24	4261.8	
398.44	5646.9	
398.65	4624.3	
398.85	3604.4	
399.05	3728	
399.26	4941.7	
399.46	6779.5	
399.67	4077.5	
399.87	3858.4	
400.07	5390.9	
400.28	5720	
400.48	3911.6	
400.69	4994.3	
400.89	5970.5	
401.09	6433.4	
401.3	3740.3	
401.5	5029.8	
401.7	6657.3	
401.91	6925.5	
402.11	4070.7	
402.32	4413.4	
402.52	6010.1	
402.72	5877	
402.93	4563.6	
403.13	3463.8	
403.33	6766.5	
403.54	5481	
403.74	4334.2	
403.94	5254.4	
404.15	5599.1	
404.35	6680.5	
404.56	4091.2	
404.76	6068.1	
404.96	5978	
405.17	5771.2	
405.37	5082.4	
405.57	4571.7	
405.78	6027.2	
405.98	5435.3	
406.18	4015.4	
406.39	5066.7	
406.59	6010.1	
406.79	5585.5	
407	3840.6	
407.2	4022.9	
407.4	5976.7	
407.61	6182.1	
407.81	3962.8	
408.01	6394.4	
408.22	4825.7	
408.42	6962.4	
408.62	5057.8	
408.83	4399	
409.03	5390.3	
409.23	5237.3	
409.44	4435.9	
409.64	4833.2	
409.84	6238.1	
410.05	6162.3	
410.25	4537.6	
410.45	4307.6	
410.66	5565	
410.86	8187.8	
411.06	4692.6	
411.27	4560.1	
411.47	7842.4	
411.67	5754.8	
411.88	4760.2	
412.08	4997	
412.28	6380.1	
412.49	6898.2	
412.69	4442.7	
412.89	4491.2	
413.09	6771.9	
413.3	6509.1	
413.5	4545.1	
413.7	4106.2	
413.91	5728.2	
414.11	6618.4	
414.31	4410	
414.52	4748.6	
414.72	6346	
414.92	6173.9	
415.12	4374.5	
415.33	5014.8	
415.53	6594.5	
415.73	6784.2	
415.94	5266.7	
416.14	4701.5	
416.34	5514.5	
416.55	5236	
416.75	5935.7	
416.95	5309	
417.15	6527.6	
417.36	7322.2	
417.56	6042.2	
417.76	5137	
417.97	6941.9	
418.17	6582.9	
418.37	4691.2	
418.57	4697.4	
418.78	6303	
418.98	6004	
419.18	5727.5	
419.38	5656.5	
419.59	6044.9	
419.79	5638.1	
419.99	4603.8	
420.2	5042.1	
420.4	6621.1	
420.6	6784.9	
420.8	4511	
421.01	4369	
421.21	6316.6	
421.41	6580.8	
421.61	4951.3	
421.82	4636.6	
422.02	5883.1	
422.22	6888.7	
422.42	5500.8	
422.63	5236	
422.83	6042.9	
423.03	7280.5	
423.23	5249.6	
423.44	4071.4	
423.64	6138.4	
423.84	5913.2	
424.04	4497.3	
424.25	4233.8	
424.45	7206.8	
424.65	7101.7	
424.85	4077.5	
425.06	4681	
425.26	7043	
425.46	5636	
425.66	5180.7	
425.87	4860.5	
426.07	6923.5	
426.27	6746	
426.47	5018.2	
426.67	4377.9	
426.88	7228	
427.08	6620.4	
427.28	5171.1	
427.48	4296.6	
427.69	5522	
427.89	6304.3	
428.09	5229.1	
428.29	4407.9	
428.5	6950.1	
428.7	6447	
428.9	4220.9	
429.1	4856.4	
429.3	6273.6	
429.51	6861.4	
429.71	4582.7	
429.91	5329.5	
430.11	6624.5	
430.31	6874.3	
430.52	4882.4	
430.72	5105.6	
430.92	7260.7	
431.12	6679.8	
431.32	4534.2	
431.53	4975.2	
431.73	5503.6	
431.93	7338.6	
432.13	4486.4	
432.33	4346.5	
432.54	6004	
432.74	6451.1	
432.94	4164.9	
433.14	5277.6	
433.34	6584.9	
433.55	6034.7	
433.75	5301.5	
433.95	7103.7	
434.15	6355.5	
434.35	6026.5	
434.56	4450.9	
434.76	3919.8	
434.96	6324.8	
435.16	6553.5	
435.36	4304.8	
435.56	5408	
435.77	5913.9	
435.97	6106.4	
436.17	6249.7	
436.37	5389.6	
436.57	5943.2	
436.78	5790.3	
436.98	7374.7	
437.18	6087.9	
437.38	6617.7	
437.58	6160.3	
437.78	6204	
437.99	4762.2	
438.19	6725.5	
438.39	7512.6	
438.59	4698	
438.79	4176.5	
438.99	7371.3	
439.2	6156.2	
439.4	4405.2	
439.6	4336.9	
439.8	6490	
440	7612.3	
440.2	5342.5	
440.4	5517.2	
440.61	6803.4	
440.81	7434.8	
441.01	4513	
441.21	5436.7	
441.41	7208.2	
441.61	6862.7	
441.81	5668.1	
442.02	6775.4	
442.22	7812.3	
442.42	6924.9	
442.62	4649.6	
442.82	4592.2	
443.02	7250.5	
443.22	6272.9	
443.43	5047.6	
443.63	4536.3	
443.83	6108.4	
444.03	6196.5	
444.23	5759.6	
444.43	5394.3	
444.63	6494.8	
444.83	7788.4	
445.04	4638.6	
445.24	6050.4	
445.44	6877.8	
445.64	6982.9	
445.84	5520	
446.04	5427.1	
446.24	6185.5	
446.44	7362.4	
446.65	4713.1	
446.85	5055.8	
447.05	6457.9	
447.25	7281.2	
447.45	5188.2	
447.65	4484.4	
447.85	6612.2	
448.05	6273.6	
448.25	5646.2	
448.46	5448.3	
448.66	6565.1	
448.86	6268.8	
449.06	4335.5	
449.26	5582.8	
449.46	6906.4	
449.66	5972.6	
449.86	5083.1	
450.06	5099.4	
450.26	6141.2	
450.47	6806.1	
450.67	5347.2	
450.87	5759.6	
451.07	6874.3	
451.27	6646.3	
451.47	4608.6	
451.67	5229.1	
451.87	6238.1	
452.07	7486.7	
452.27	4877.6	
452.47	4877.6	
452.67	6579.4	
452.88	7259.4	
453.08	4262.5	
453.28	6356.9	
453.48	7846.5	
453.68	6582.2	
453.88	4760.2	
454.08	5045.5	
454.28	6960.4	
454.48	6575.3	
454.68	5653.8	
454.88	6164.4	
455.08	7030.7	
455.28	6799.9	
455.48	4704.9	
455.68	5208.7	
455.89	7519.5	
456.09	7216.4	
456.29	5031.9	
456.49	5001.8	
456.69	7380.9	
456.89	6616.3	
457.09	5578	
457.29	5863.3	
457.49	6918.7	
457.69	7087.3	
457.89	5287.2	
458.09	4769	
458.29	6688	
458.49	7557	
458.69	5817.6	
458.89	5179.3	
459.09	7641	
459.29	7802.1	
459.49	5350.7	
459.69	6151.4	
459.9	7307.8	
460.1	6632	
460.3	5223.7	
460.5	4965.6	
460.7	7193.8	
460.9	6866.8	
461.1	4577.9	
461.3	5969.8	
461.5	7881.3	
461.7	7465.5	
461.9	4969.1	
462.1	5469.4	
462.3	6845.7	
462.5	7524.9	
462.7	4984.1	
462.9	5168.4	
463.1	8637.6	
463.3	8183	
463.5	5353.4	
463.7	6273.6	
463.9	7057.3	
464.1	7466.2	
464.3	5430.5	
464.5	5756.2	
464.7	7720.2	
464.9	7283.3	
465.1	7093.5	
465.3	6135.7	
465.5	8120.2	
465.7	7948.2	
465.9	6278.4	
466.1	6223.8	
466.3	7802.1	
466.5	7675.1	
466.7	7022.5	
466.9	5902.9	
467.1	7565.9	
467.3	8608.3	
467.5	6963.1	
467.7	5760.3	
467.9	8778.3	
468.1	9718.3	
468.3	6673.6	
468.5	7144.7	
468.7	7522.9	
468.9	7527.7	
469.1	6064.7	
469.3	6838.2	
469.5	9541.5	
469.7	7062.1	
469.9	6631.3	
470.1	5851	
470.3	7548.8	
470.5	7658.7	
470.7	7125.6	
470.9	5971.2	
471.1	7345.4	
471.3	7884	
471.5	5778	
471.69	7929.7	
471.89	7225.9	
472.09	6816.3	
472.29	6677.7	
472.49	7110.5	
472.69	6991.8	
472.89	7863.5	
473.09	5687.2	
473.29	5952.1	
473.49	7128.3	
473.69	7386.3	
473.89	6950.8	
474.09	6075	
474.29	8733.9	
474.49	8423.3	
474.69	6860.7	
474.89	6165.1	
475.09	7380.2	
475.29	7406.8	
475.49	5640.8	
475.69	5870.2	
475.88	9072.5	
476.08	7679.2	
476.28	5529.5	
476.48	6022.4	
476.68	8238.3	
476.88	8108.6	
477.08	5937.1	
477.28	6171.2	
477.48	7505.1	
477.68	8280.6	
477.88	5727.5	
478.08	6023.1	
478.28	8561.2	
478.48	7676.5	
478.67	6102.3	
478.87	5598.5	
479.07	8318.2	
479.27	7796.6	
479.47	6374.6	
479.67	6246.3	
479.87	8200.1	
480.07	8718.2	
480.27	5578	
480.47	7268.2	
480.67	7871.7	
480.87	8492.2	
481.06	5795.1	
481.26	6772.6	
481.46	7817.8	
481.66	7660.1	
481.86	6394.4	
482.06	7415.7	
482.26	7500.3	
482.46	8511.4	
482.66	6309.1	
482.86	5823.7	
483.05	7813	
483.25	7279.2	
483.45	8932.6	
483.65	6281.1	
483.85	7378.1	
484.05	7703.1	
484.25	6771.3	
484.45	7239.6	
484.65	8650.6	
484.84	8609	
485.04	6250.4	
485.24	6285.2	
485.44	8910.7	
485.64	7222.5	
485.84	5452.4	
486.04	7010.9	
486.24	7545.4	
486.44	7967.3	
486.63	5431.9	
486.83	6231.3	
487.03	7374.7	
487.23	7676.5	
487.43	5537.7	
487.63	8058.1	
487.83	7666.9	
488.02	8747.6	
488.22	6606.7	
488.42	7195.9	
488.62	8688.8	
488.82	7470.3	
489.02	6219.7	
489.22	6234.7	
489.41	8577.6	
489.61	8099.7	
489.81	6002.6	
490.01	6042.9	
490.21	8375.5	
490.41	9110	
490.61	5646.2	
490.8	6057.9	
491	7828	
491.2	7174	
491.4	6701.6	
491.6	5763	
491.8	7844.4	
491.99	8077.2	
492.19	5603.9	
492.39	6046.3	
492.59	8437.6	
492.79	8611	
492.99	6994.5	
493.18	6036.7	
493.38	8606.9	
493.58	9346.2	
493.78	6794.5	
493.98	6360.3	
494.18	8276.5	
494.37	7666.9	
494.57	7083.9	
494.77	6813.6	
494.97	8482.7	
495.17	8712.1	
495.37	6326.9	
495.56	6769.9	
495.76	8917.5	
495.96	8483.4	
496.16	7692.2	
496.36	6569.2	
496.55	8748.2	
496.75	8257.4	
496.95	7024.5	
497.15	6780.8	
497.35	8689.5	
497.54	8708	
497.74	6632	
497.94	8429.4	
498.14	9470.5	
498.34	9255.5	
498.53	6326.9	
498.73	7124.9	
498.93	8091.5	
499.13	8744.1	
499.33	6967.2	
499.52	7602.1	
499.72	8572.8	
499.92	9014.5	
500.12	6623.8	
500.32	6881.9	
500.51	8954.4	
500.71	8731.9	
500.91	7798	
501.11	7353.6	
501.31	8885.5	
501.5	9349	
501.7	8008.2	
501.9	6977.4	
502.1	8723.7	
502.29	9085.5	
502.49	7436.9	
502.69	7988.4	
502.89	8994.7	
503.09	8949.6	
503.28	6486.6	
503.48	6591.7	
503.68	8030.8	
503.88	8182.3	
504.07	7656.7	
504.27	7157	
504.47	8551.6	
504.67	8780.3	
504.86	7581.6	
505.06	7248.4	
505.26	8327.7	
505.46	10228	
505.65	7128.3	
505.85	7425.3	
506.05	8177.5	
506.25	8692.9	
506.44	6459.3	
506.64	7502.4	
506.84	8147.5	
507.04	9265	
507.23	6713.2	
507.43	7376.1	
507.63	10404	
507.83	8505.9	
508.02	7322.9	
508.22	6868.2	
508.42	10572	
508.62	8191.2	
508.81	7215	
509.01	7830.7	
509.21	8114.1	
509.4	8477.9	
509.6	7502.4	
509.8	6778.8	
510	8400.1	
510.19	10018	
510.39	6780.8	
510.59	6780.1	
510.79	8233.5	
510.98	9681.4	
511.18	6967.9	
511.38	7004.7	
511.57	9166	
511.77	8973.5	
511.97	7777.5	
512.17	6667.5	
512.36	9121	
512.56	9048.6	
512.76	6882.5	
512.95	6507.8	
513.15	9249.3	
513.35	7740.6	
513.55	7656	
513.74	6835.4	
513.94	9261.6	
514.14	8571.4	
514.33	7728.4	
514.53	7537.2	
514.73	8512.7	
514.92	8690.2	
515.12	7009.5	
515.32	6789	
515.51	8744.8	
515.71	9456.2	
515.91	8478.6	
516.11	6930.3	
516.3	10615	
516.5	8385.7	
516.7	7507.2	
516.89	8218.5	
517.09	8624	
517.29	8496.3	
517.48	7865.6	
517.68	7239.6	
517.88	8287.4	
518.07	8862.2	
518.27	7793.2	
518.47	6733.7	
518.66	9642.5	
518.86	8099	
519.06	6614.3	
519.25	7193.8	
519.45	8557.8	
519.65	10093	
519.84	7804.8	
520.04	8538	
520.24	10477	
520.43	9196.7	
520.63	7504.4	
520.83	7252.5	
521.02	8360.5	
521.22	9086.8	
521.42	7795.3	
521.61	8348.2	
521.81	8615.1	
522.01	8886.8	
522.2	7699	
522.4	7428	
522.6	9351	
522.79	8144.1	
522.99	7529	
523.18	6808.1	
523.38	9155.8	
523.58	9228.1	
523.77	8979	
523.97	6797.9	
524.17	11120	
524.36	10241	
524.56	8381	
524.76	7952.3	
524.95	9215.9	
525.15	8854.1	
525.34	7776.8	
525.54	7793.2	
525.74	9587.2	
525.93	8492.2	
526.13	9056.1	
526.33	7703.8	
526.52	9912.9	
526.72	9422.7	
526.91	9106.6	
527.11	8288.8	
527.31	10013	
527.5	10549	
527.7	8202.1	
527.89	7250.5	
528.09	8916.2	
528.29	9668.5	
528.48	8728.4	
528.68	8383	
528.87	9961.3	
529.07	10077	
529.27	8213.7	
529.46	7649.2	
529.66	9493	
529.85	10039	
530.05	7551.5	
530.25	8340	
530.44	11127	
530.64	9555.8	
530.83	8064.9	
531.03	8271.7	
531.23	10101	
531.42	9888.3	
531.62	9062.9	
531.81	8282	
532.01	10208	
532.21	10760	
532.4	8105.2	
532.6	8480	
532.79	11193	
532.99	10400	
533.18	8553.7	
533.38	9602.9	
533.58	9849.4	
533.77	10727	
533.97	8493.6	
534.16	9347.6	
534.36	10974	
534.55	10003	
534.75	9598.8	
534.95	8621.9	
535.14	10836	
535.34	10038	
535.53	8255.4	
535.73	10342	
535.92	11368	
536.12	10140	
536.31	8297.7	
536.51	9742.2	
536.71	10544	
536.9	10067	
537.1	8570.7	
537.29	8789.9	
537.49	10904	
537.68	9915.6	
537.88	9119.6	
538.07	8391.9	
538.27	10279	
538.46	11409	
538.66	8281.3	
538.86	8711.4	
539.05	10385	
539.25	10888	
539.44	9007	
539.64	8625.4	
539.83	10107	
540.03	11301	
540.22	8408.3	
540.42	8631.5	
540.61	10478	
540.81	10608	
541	9026.8	
541.2	9873.9	
541.39	9930.6	
541.59	10453	
541.78	9469.8	
541.98	8459.5	
542.18	9622	
542.37	9641.2	
542.57	8935.3	
542.76	9426.1	
542.96	9701.2	
543.15	10408	
543.35	8867	
543.54	8271.1	
543.74	10714	
543.93	10232	
544.13	8938.7	
544.32	10088	
544.52	10577	
544.71	9749.7	
544.91	8017.8	
545.1	9250.7	
545.3	9804.3	
545.49	10611	
545.69	7886.7	
545.88	8594	
546.08	11583	
546.27	11134	
546.47	9142.1	
546.66	8372.1	
546.86	10864	
547.05	11596	
547.24	8654.7	
547.44	8480	
547.63	9688.3	
547.83	11016	
548.02	8978.3	
548.22	9022	
548.41	9565.4	
548.61	10968	
548.8	8458.8	
549	8376.2	
549.19	10219	
549.39	10557	
549.58	8013.7	
549.78	8644.5	
549.97	10628	
550.17	10053	
550.36	9592.7	
550.55	10664	
550.75	10068	
550.94	11115	
551.14	8321.6	
551.33	8728.4	
551.53	9431.6	
551.72	10509	
551.92	8798.8	
552.11	8563.2	
552.31	10518	
552.5	10663	
552.69	10262	
552.89	8101.8	
553.08	10507	
553.28	10144	
553.47	8665	
553.67	9805.7	
553.86	11195	
554.06	9442.5	
554.25	7658.7	
554.44	8258.8	
554.64	11931	
554.83	11452	
555.03	8316.1	
555.22	8680.7	
555.42	10712	
555.61	10356	
555.8	8467.7	
556	8915.5	
556.19	9507.4	
556.39	10776	
556.58	8596	
556.78	8613.8	
556.97	10354	
557.16	9932	
557.36	9890.3	
557.55	8164.6	
557.75	9243.8	
557.94	11164	
558.13	8370	
558.33	8024.6	
558.52	10911	
558.72	9711.5	
558.91	8102.4	
559.1	8503.2	
559.3	9327.1	
559.49	9151.7	
559.69	7792.5	
559.88	8828.8	
560.07	10329	
560.27	10712	
560.46	8923.7	
560.66	9149.6	
560.85	10057	
561.04	9265.7	
561.24	8132.5	
561.43	8332.5	
561.63	9377.6	
561.82	9684.2	
562.01	9720.3	
562.21	8672.5	
562.4	10152	
562.59	11242	
562.79	8463.6	
562.98	8215.1	
563.18	10187	
563.37	11706	
563.56	9016.5	
563.76	8064.9	
563.95	9588.6	
564.14	9522.4	
564.34	8497	
564.53	8359.8	
564.73	10156	
564.92	10637	
565.11	8661.5	
565.31	8089.5	
565.5	10763	
565.69	9721.7	
565.89	8252.6	
566.08	8507.9	
566.27	10683	
566.47	11056	
566.66	9210.4	
566.85	7891.5	
567.05	10187	
567.24	9509.4	
567.44	8155	
567.63	9607	
567.82	10442	
568.02	10195	
568.21	8195.3	
568.4	8526.4	
568.6	10026	
568.79	10143	
568.98	8007.6	
569.18	8203.5	
569.37	10060	
569.56	12187	
569.76	8665	
569.95	9634.3	
570.14	10527	
570.34	10353	
570.53	8114.1	
570.72	8177.5	
570.91	10886	
571.11	10017	
571.3	8576.2	
571.49	9592.7	
571.69	10050	
571.88	9586.5	
572.07	9163.3	
572.27	9151.7	
572.46	9622	
572.65	10744	
572.85	8435.6	
573.04	8710	
573.23	10935	
573.43	10122	
573.62	8104.5	
573.81	8869.1	
574	10253	
574.2	10032	
574.39	8591.2	
574.58	8667	
574.78	11241	
574.97	10443	
575.16	9050	
575.36	9424.8	
575.55	10809	
575.74	10959	
575.93	8116.1	
576.13	9318.3	
576.32	10161	
576.51	10672	
576.71	8626	
576.9	10180	
577.09	11051	
577.28	10568	
577.48	9150.3	
577.67	8023.3	
577.86	10271	
578.05	10398	
578.25	8809.7	
578.44	8804.9	
578.63	10343	
578.83	11460	
579.02	8103.8	
579.21	9861	
579.4	10531	
579.6	10230	
579.79	9002.9	
579.98	11235	
580.17	10904	
580.37	10970	
580.56	8358.4	
580.75	9172.2	
580.94	11496	
581.14	11323	
581.33	9750.4	
581.52	8542.1	
581.71	10858	
581.91	11419	
582.1	8278.6	
582.29	8779.6	
582.48	10456	
582.68	10331	
582.87	9344.2	
583.06	9036.3	
583.25	10624	
583.45	10565	
583.64	9759.9	
583.83	10461	
584.02	10217	
584.21	10712	
584.41	9589.3	
584.6	8855.4	
584.79	10289	
584.98	11226	
585.18	8408.3	
585.37	8297	
585.56	9910.8	
585.75	10694	
585.94	8401.5	
586.14	9339.4	
586.33	11355	
586.52	10295	
586.71	9021.3	
586.91	8756.4	
587.1	9765.4	
587.29	10720	
587.48	8731.2	
587.67	8610.3	
587.87	10615	
588.06	10744	
588.25	10015	
588.44	9219.3	
588.63	10302	
588.83	10957	
589.02	8708.6	
589.21	8486.8	
589.4	9967.5	
589.59	9792	
589.78	7692.2	
589.98	7921.5	
590.17	9402.2	
590.36	10043	
590.55	7172	
590.74	8166.6	
590.94	11458	
591.13	9848.7	
591.32	7938.6	
591.51	7432.1	
591.7	10391	
591.89	9815.2	
592.09	7645.1	
592.28	8095.6	
592.47	9016.5	
592.66	11027	
592.85	7632.1	
593.05	7946.8	
593.24	9712.2	
593.43	10519	
593.62	7959.1	
593.81	8457.4	
594	9761.3	
594.19	9990	
594.39	7853.3	
594.58	7798	
594.77	9979.8	
594.96	10752	
595.15	7752.2	
595.34	8430.8	
595.54	10144	
595.73	9026.1	
595.92	7012.2	
596.11	8247.9	
596.3	10550	
596.49	9194.7	
596.68	8009.6	
596.88	8583	
597.07	10368	
597.26	9084.8	
597.45	7531.1	
597.64	8850	
597.83	9339.4	
598.02	9914.2	
598.22	7558.4	
598.41	8378.2	
598.6	9794.1	
598.79	9088.2	
598.98	7698.3	
599.17	8708.6	
599.36	9742.2	
599.55	11051	
599.74	9835.7	
599.94	9583.8	
600.13	10309	
600.32	9055.4	
600.51	7400.7	
600.7	7580.9	
600.89	10991	
601.08	11035	
601.27	7336.5	
601.47	8349.6	
601.66	10204	
601.85	10876	
602.04	7978.2	
602.23	8235.6	
602.42	9268.4	
602.61	9969.5	
602.8	7956.4	
602.99	7722.9	
603.18	9633.6	
603.37	9927.2	
603.57	8431.5	
603.76	8948.9	
603.95	10645	
604.14	10229	
604.33	7746.8	
604.52	8185	
604.71	9844.6	
604.9	9395.4	
605.09	8748.2	
605.28	8669.1	
605.47	10451	
605.66	10121	
605.86	8499.1	
606.05	7733.8	
606.24	10448	
606.43	8888.2	
606.62	8197.3	
606.81	8975.6	
607	10228	
607.19	9580.4	
607.38	7456.7	
607.57	7838.3	
607.76	9306.7	
607.95	8752.3	
608.14	8271.1	
608.33	8794.7	
608.52	9295	
608.72	10351	
608.91	7364.5	
609.1	7267.6	
609.29	9497.1	
609.48	8800.8	
609.67	8462.2	
609.86	7378.8	
610.05	8944.2	
610.24	9250	
610.43	7271	
610.62	6854.6	
610.81	10551	
611	10300	
611.19	7324.9	
611.38	8185	
611.57	9741.5	
611.76	11017	
611.95	7228	
612.14	6955.6	
612.33	9445.2	
612.52	8903.2	
612.71	7847.8	
612.9	6802	
613.09	8535.9	
613.28	10987	
613.47	7477.8	
613.66	8555.7	
613.85	9561.3	
614.04	9079.3	
614.24	7513.3	
614.43	6807.4	
614.62	9661	
614.81	9632.3	
615	8151.6	
615.19	8140	
615.38	8937.3	
615.57	9283.4	
615.76	8007.6	
615.95	8972.2	
616.14	9744.2	
616.33	9354.4	
616.52	8288.1	
616.71	8500.4	
616.9	9694.4	
617.09	9488.9	
617.28	7735.2	
617.47	9014.5	
617.66	8720.3	
617.85	8944.2	
618.04	8688.8	
618.22	8063.5	
618.41	9099.1	
618.6	10144	
618.79	7985.7	
618.98	7709.9	
619.17	10503	
619.36	8701.1	
619.55	7800.7	
619.74	7848.5	
619.93	9708.7	
620.12	9163.3	
620.31	8455.4	
620.5	8747.6	
620.69	10350	
620.88	10743	
621.07	9470.5	
621.26	8425.3	
621.45	9871.9	
621.64	9959.3	
621.83	8526.4	
622.02	7628	
622.21	9945.6	
622.4	9669.1	
622.59	9047.2	
622.78	8826.1	
622.97	9256.1	
623.16	10370	
623.35	8421.9	
623.54	7528.3	
623.72	9570.8	
623.91	9614.5	
624.1	8747.6	
624.29	7362.4	
624.48	10843	
624.67	10032	
624.86	8769.4	
625.05	7549.5	
625.24	10964	
625.43	9299.1	
625.62	10455	
625.81	7892.2	
626	10395	
626.19	9635	
626.38	8708	
626.56	8146.8	
626.75	9456.8	
626.94	10300	
627.13	8772.8	
627.32	7300.3	
627.51	10125	
627.7	11524	
627.89	7608.9	
628.08	8691.6	
628.27	9240.4	
628.46	9516.2	
628.65	7901.7	
628.83	7475.8	
629.02	10030	
629.21	9287.5	
629.4	8315.4	
629.59	8500.4	
629.78	9299.8	
629.97	10323	
630.16	8526.4	
630.35	7993.2	
630.54	10650	
630.72	10497	
630.91	7970	
631.1	8574.8	
631.29	9891	
631.48	10108	
631.67	8668.4	
631.86	8163.2	
632.05	9518.3	
632.24	9576.3	
632.42	7677.8	
632.61	8407.6	
632.8	9644.6	
632.99	9332.6	
633.18	8381	
633.37	8809	
633.56	9837.8	
633.75	9770.2	
633.93	8350.3	
634.12	8075.8	
634.31	10767	
634.5	10314	
634.69	8198.7	
634.88	8598.7	
635.07	9650.7	
635.25	10312	
635.44	9042.5	
635.63	9227.5	
635.82	9538.8	
636.01	9024	
636.2	9042.5	
636.39	8475.9	
636.57	10722	
636.76	10321	
636.95	7826	
637.14	9370.1	
637.33	9943.6	
637.52	11008	
637.7	7696.3	
637.89	8630.8	
638.08	9441.1	
638.27	10974	
638.46	8753	
638.65	9241.1	
638.83	11026	
639.02	9282.8	
639.21	8555	
639.4	9186.5	
639.59	9891	
639.78	9297.8	
639.96	7801.4	
640.15	7826	
640.34	9676	
640.53	9824.1	
640.72	7449.8	
640.91	7905.8	
641.09	8955.1	
641.28	10439	
641.47	7804.8	
641.66	8787.8	
641.85	9725.1	
642.03	10062	
642.22	8460.8	
642.41	7931.8	
642.6	9015.8	
642.79	8495	
642.97	7704.5	
643.16	8445.8	
643.35	9075.9	
643.54	8893.6	
643.73	7560.4	
643.91	8407.6	
644.1	8675.9	
644.29	9366.7	
644.48	7635.5	
644.67	7675.1	
644.85	8899.8	
645.04	9220	
645.23	7162.4	
645.42	7481.2	
645.6	8684.8	
645.79	9919	
645.98	7525.6	
646.17	6488	
646.36	8410.3	
646.54	9072.5	
646.73	8247.2	
646.92	7015.7	
647.11	8656.1	
647.29	9706	
647.48	7068.2	
647.67	6904.4	
647.86	9989.3	
648.05	9920.4	
648.23	7427.3	
648.42	8843.1	
648.61	9353.8	
648.8	9091.6	
648.98	7050.5	
649.17	7366.5	
649.36	8535.3	
649.55	8099	
649.73	7102.4	
649.92	7933.1	
650.11	8537.3	
650.3	8865	
650.48	7240.9	
650.67	6954.9	
650.86	9100.5	
651.05	7969.3	
651.23	7197.2	
651.42	7141.9	
651.61	8480.6	
651.79	8693.6	
651.98	7375.4	
652.17	7005.4	
652.36	8992.6	
652.54	8052.6	
652.73	6993.1	
652.92	6765.8	
653.11	9032.2	
653.29	9098.4	
653.48	6202.6	
653.67	7210.2	
653.85	8734.6	
654.04	9866.4	
654.23	7509.9	
654.42	6898.2	
654.6	8163.2	
654.79	8822	
654.98	6277	
655.16	6885.3	
655.35	7750.2	
655.54	7690.8	
655.73	6378.1	
655.91	6404.7	
656.1	8939.4	
656.29	7659.4	
656.47	6006.7	
656.66	7763.8	
656.85	8030.1	
657.03	8111.3	
657.22	6636.1	
657.41	6660.7	
657.59	8097	
657.78	7839.6	
657.97	6208.1	
658.16	7085.3	
658.34	8815.8	
658.53	9248.6	
658.72	7990.5	
658.9	8461.5	
659.09	8204.8	
659.28	8378.2	
659.46	6785.6	
659.65	6636.1	
659.84	7957	
660.02	8523	
660.21	6565.8	
660.4	6466.8	
660.58	8977.6	
660.77	8368	
660.96	7209.5	
661.14	6196.5	
661.33	9488.9	
661.52	9439.8	
661.7	6023.1	
661.89	10053	
662.08	7807.5	
662.26	7518.8	
662.45	6393.8	
662.64	6481.1	
662.82	8631.5	
663.01	7763.8	
663.2	6508.4	
663.38	7254.6	
663.57	8528.4	
663.75	8326.4	
663.94	6798.6	
664.13	8226.7	
664.31	7816.4	
664.5	8572.8	
664.69	7217.7	
664.87	7734.5	
665.06	7505.8	
665.25	8375.5	
665.43	8000.7	
665.62	8051.2	
665.8	8718.2	
665.99	7976.8	
666.18	6795.2	
666.36	6876.4	
666.55	8656.1	
666.74	8582.4	
666.92	6372.6	
667.11	8133.8	
667.29	7930.4	
667.48	8630.8	
667.67	7712.7	
667.85	6782.9	
668.04	8034.9	
668.22	8047.8	
668.41	6833.4	
668.6	7116.7	
668.78	7765.9	
668.97	7987.1	
669.15	7223.9	
669.34	6139.1	
669.53	7807.5	
669.71	8146.8	
669.9	6378.7	
670.08	7126.9	
670.27	7793.9	
670.46	8373.5	
670.64	7244.3	
670.83	7461.4	
671.01	7708.6	
671.2	8293.6	
671.38	6433.4	
671.57	6335.7	
671.76	9023.4	
671.94	9609.8	
672.13	6262	
672.31	7378.8	
672.5	8529.1	
672.69	7754.3	
672.87	6399.2	
673.06	6722.1	
673.24	8367.3	
673.43	7916.8	
673.61	7201.3	
673.8	6740.5	
673.98	8612.4	
674.17	8683.4	
674.36	7350.2	
674.54	7213.6	
674.73	8236.9	
674.91	8524.3	
675.1	6833.4	
675.28	6511.2	
675.47	8028	
675.65	8643.8	
675.84	6708.5	
676.03	7036.8	
676.21	7810.3	
676.4	7301	
676.58	7580.9	
676.77	7286.7	
676.95	9323	
677.14	7811	
677.32	6456.6	
677.51	6180.1	
677.69	8585.1	
677.88	7377.5	
678.06	6342.6	
678.25	6447.7	
678.44	8141.4	
678.62	7780.9	
678.81	6063.4	
678.99	7150.8	
679.18	8973.5	
679.36	8474.5	
679.55	6632	
679.73	7424.6	
679.92	8415.1	
680.1	7821.2	
680.29	8009.6	
680.47	6785.6	
680.66	7716.1	
680.84	8694.3	
681.03	5950	
681.21	7038.2	
681.4	7854	
681.58	7684.7	
681.77	6497.5	
681.95	6428.6	
682.14	8751.7	
682.32	9086.8	
682.51	7436.2	
682.69	6183.5	
682.88	7728.4	
683.06	8483.4	
683.25	7019.1	
683.43	7576.8	
683.62	8129.8	
683.8	8504.5	
683.99	7738.6	
684.17	6888.7	
684.36	9453.4	
684.54	7904.5	
684.73	6068.1	
684.91	6243.6	
685.1	8172.8	
685.28	7595.2	
685.46	6806.1	
685.65	6924.2	
685.83	8531.8	
686.02	7933.8	
686.2	6311.2	
686.39	6546.7	
686.57	7460.1	
686.76	9239.1	
686.94	6369.9	
687.13	6599.2	
687.31	8449.2	
687.5	7925	
687.68	5983.5	
687.86	7338.6	
688.05	9863.7	
688.23	7409.6	
688.42	7555.6	
688.6	6604	
688.79	8082.6	
688.97	7904.5	
689.16	7069.6	
689.34	5893.4	
689.52	8791.9	
689.71	8979	
689.89	7329.7	
690.08	6640.2	
690.26	8336.6	
690.45	8130.4	
690.63	7607.5	
690.81	6810.2	
691	7949.5	
691.18	8021.9	
691.37	7010.9	
691.55	9318.3	
691.74	7944.8	
691.92	10139	
692.1	6974.7	
692.29	6342.6	
692.47	8241	
692.66	7436.9	
692.84	6687.3	
693.02	7318.8	
693.21	7626.6	
693.39	8232.8	
693.58	7435.5	
693.76	6804	
693.94	9527.2	
694.13	9334	
694.31	6843.6	
694.5	8074.5	
694.68	8082.7	
694.86	8518.2	
695.05	7299.6	
695.23	7428.7	
695.42	8947.6	
695.6	11455	
695.78	7970	
695.97	7031.4	
696.15	9073.2	
696.34	8421.9	
696.52	6741.2	
696.7	7632.8	
696.89	8668.4	
697.07	8112.7	
697.25	7670.3	
697.44	9316.9	
697.62	8710	
697.81	9194.7	
697.99	7239.6	
698.17	7865.6	
698.36	8163.9	
698.54	8772.8	
698.72	7649.8	
698.91	6619.7	
699.09	8372.1	
699.28	8221.9	
699.46	7330.4	
699.64	7201.3	
699.83	8223.3	
700.01	9490.3	
700.19	8078.6	
700.38	6454.5	
700.56	9513.5	
700.74	8415.1	
700.93	6931.7	
701.11	7789.8	
701.29	9024.7	
701.48	10137	
701.66	7262.1	
701.84	7316.7	
702.03	8576.2	
702.21	9359.9	
702.39	6898.2	
702.58	7478.5	
702.76	9058.8	
702.94	9163.3	
703.13	6945.3	
703.31	9426.1	
703.49	8373.5	
703.68	10053	
703.86	7103.7	
704.04	8126.3	
704.23	8933.2	
704.41	9438.4	
704.59	7346.7	
704.78	8602.8	
704.96	10223	
705.14	9445.2	
705.33	7151.5	
705.51	8021.2	
705.69	8862.9	
705.87	9688.3	
706.06	8353.7	
706.24	7236.2	
706.42	9268.4	
706.61	9521.7	
706.79	8475.9	
706.97	7221.1	
707.16	8630.1	
707.34	9360.6	
707.52	8398	
707.7	7486.7	
707.89	8834.9	
708.07	8505.9	
708.25	8424	
708.44	8587.8	
708.62	8736	
708.8	10024	
708.98	8655.4	
709.17	7578.2	
709.35	9295	
709.53	9280	
709.72	7329	
709.9	7458.7	
710.08	9512.1	
710.26	9564.7	
710.45	9002.2	
710.63	7723.6	
710.81	9235.7	
710.99	9243.8	
711.18	8320.9	
711.36	7787.1	
711.54	9023.4	
711.72	9833.7	
711.91	7865.6	
712.09	7257.3	
712.27	9462.3	
712.45	9813.9	
712.64	8131.8	
712.82	7068.9	
713	8548.9	
713.18	8757.1	
713.37	7071	
713.55	8463.6	
713.73	9572.9	
713.91	7963.9	
714.1	7358.4	
714.28	6766.5	
714.46	8985.1	
714.64	8120.2	
714.83	6020.3	
715.01	6914.6	
715.19	8122.2	
715.37	7383.6	
715.55	6591.7	
715.74	6801.3	
715.92	9058.8	
716.1	6848.4	
716.28	8016.4	
716.47	6978.8	
716.65	7605.5	
716.83	7709.9	
717.01	6901	
717.19	6964.5	
717.38	9999.5	
717.56	7510.6	
717.74	7175.4	
717.92	6290.7	
718.1	8865	
718.29	8082.6	
718.47	5975.3	
718.65	6784.2	
718.83	8918.9	
719.01	8875.9	
719.2	5995.1	
719.38	7232.7	
719.56	8567.3	
719.74	10258	
719.92	6736.5	
720.11	7832.1	
720.29	8492.9	
720.47	7631.4	
720.65	6086.6	
720.83	7060.7	
721.02	7815.7	
721.2	7640.3	
721.38	7027.3	
721.56	6334.4	
721.74	7088	
721.92	7342.7	
722.11	7619.1	
722.29	7216.4	
722.47	8666.3	
722.65	7751.6	
722.83	6247	
723.01	7285.3	
723.2	7863.5	
723.38	8092.2	
723.56	5763.7	
723.74	6970.6	
723.92	7299	
724.1	8621.3	
724.29	6251.1	
724.47	7451.2	
724.65	7318.1	
724.83	7332.4	
725.01	6074.3	
725.19	7075	
725.37	7368.6	
725.56	7510.6	
725.74	6000.5	
725.92	6296.8	
726.1	7294.9	
726.28	7670.3	
726.46	6683.9	
726.64	6384.9	
726.83	7557.7	
727.01	7864.9	
727.19	6054.5	
727.37	6812.9	
727.55	7838.3	
727.73	8318.8	
727.91	5989.6	
728.09	5748.6	
728.28	8419.9	
728.46	9060.9	
728.64	7073.7	
728.82	7032.7	
729	9554.5	
729.18	8856.1	
729.36	6214.9	
729.54	8681.3	
729.72	9956.5	
729.91	8090.2	
730.09	8379.6	
730.27	7013.6	
730.45	8087.4	
730.63	8774.2	
730.81	7758.4	
730.99	6698.2	
731.17	9281.4	
731.35	7778.9	
731.53	7277.8	
731.71	6770.6	
731.9	9017.9	
732.08	9196.1	
732.26	6996.5	
732.44	6773.3	
732.62	9173.5	
732.8	8708	
732.98	7588.4	
733.16	6532.3	
733.34	8658.8	
733.52	7365.2	
733.7	6933.1	
733.88	7356.3	
734.07	8434.2	
734.25	8324.3	
734.43	6455.9	
734.61	8217.8	
734.79	9817.3	
734.97	8076.5	
735.15	6613.6	
735.33	7000.6	
735.51	8468.4	
735.69	8120.9	
735.87	8229.4	
736.05	7175.4	
736.23	8325	
736.41	8105.2	
736.59	6995.9	
736.77	7105.1	
736.95	8879.3	
737.13	8181	
737.32	6688	
737.5	6808.1	
737.68	9411.1	
737.86	8014.4	
738.04	6339.1	
738.22	8348.9	
738.4	7824.6	
738.58	8090.8	
738.76	7152.2	
738.94	5977.3	
739.12	7959.8	
739.3	7801.4	
739.48	7711.3	
739.66	7477.1	
739.84	8279.3	
740.02	8288.8	
740.2	6044.2	
740.38	6414.2	
740.56	8653.4	
740.74	7398.6	
740.92	7073.7	
741.1	7033.4	
741.28	8066.3	
741.46	7854.6	
741.64	6616.3	
741.82	7165.2	
742	8049.9	
742.18	7983.7	
742.36	6827.2	
742.54	6325.5	
742.72	8578.3	
742.9	7227.3	
743.08	7225.9	
743.26	5899.5	
743.44	8877.9	
743.62	8606.2	
743.8	7319.4	
743.98	6382.2	
744.16	8341.4	
744.34	7985	
744.52	7286	
744.7	7120.1	
744.88	8464.3	
745.06	7861.5	
745.24	7181.5	
745.42	7365.2	
745.6	8490.9	
745.78	8088.1	
745.96	5887.9	
746.14	6260	
746.32	9202.9	
746.5	8426	
746.68	6895.5	
746.86	6290.7	
747.03	8886.8	
747.21	7107.1	
747.39	6890.7	
747.57	6264.7	
747.75	7920.2	
747.93	8486.8	
748.11	6297.5	
748.29	6118.6	
748.47	9653.4	
748.65	7635.5	
748.83	7017.7	
749.01	6675	
749.19	8241	
749.37	7301	
749.55	6574.7	
749.73	6606.7	
749.91	7793.9	
750.09	7462.1	
750.26	6724.8	
750.44	6017.6	
750.62	7871	
750.8	7744.7	
750.98	5902.2	
751.16	6259.3	
751.34	7798.7	
751.52	7098.9	
751.7	7130.3	
751.88	5840.8	
752.06	8348.2	
752.24	8153.6	
752.42	5764.3	
752.59	6133	
752.77	7631.4	
752.95	9049.3	
753.13	7030	
753.31	6300.2	
753.49	7322.9	
753.67	7914	
753.85	6602	
754.03	6195.1	
754.21	8070.4	
754.38	8410.3	
754.56	6230.6	
754.74	5124	
754.92	7146.7	
755.1	7942	
755.28	5143.1	
755.46	5075.5	
755.64	8423.3	
755.82	8440.4	
755.99	5053	
756.17	5021.6	
756.35	5559.6	
756.53	7172.7	
756.71	3725.3	
756.89	4766.3	
757.07	6703	
757.25	5732.9	
757.42	5511.8	
757.6	6496.2	
757.78	7063.4	
757.96	5935.7	
758.14	5295.4	
758.32	4780	
758.5	5506.3	
758.67	6342.6	
758.85	5098.8	
759.03	5197.7	
759.21	6543.9	
759.39	5909.1	
759.57	4632.5	
759.75	5836.7	
759.92	7245	
760.1	6421.7	
760.28	6266.8	
760.46	6522.1	
760.64	6257.2	
760.82	6037.4	
760.99	6197.2	
761.17	5288.5	
761.35	7165.2	
761.53	6128.2	
761.71	5524.1	
761.89	6186.2	
762.06	7256	
762.24	6663.4	
762.42	5718.6	
762.6	5375.9	
762.78	6696.2	
762.96	7372	
763.13	6067.4	
763.31	5819.6	
763.49	7642.3	
763.67	6685.9	
763.85	6634.1	
764.02	7303.7	
764.2	7873.1	
764.38	7002	
764.56	5640.8	
764.74	6500.3	
764.91	7988.4	
765.09	6763.8	
765.27	5186.8	
765.45	5020.3	
765.63	7996.6	
765.8	7880.6	
765.98	4690.5	
766.16	4998.4	
766.34	6242.2	
766.52	6065.4	
766.69	6014.9	
766.87	4857.1	
767.05	6711.9	
767.23	7423.9	
767.41	5160.9	
767.58	5421	
767.76	7264.1	
767.94	7300.3	
768.12	5251	
768.29	6104.3	
768.47	6752.2	
768.65	7505.8	
768.83	4793.6	
769	6090	
769.18	6212.9	
769.36	6974	
769.54	6089.3	
769.72	4842.1	
769.89	7279.8	
770.07	7365.2	
770.25	5190.9	
770.43	6541.2	
770.6	8075.1	
770.78	8641.7	
770.96	5360.2	
771.14	5089.2	
771.31	7075	
771.49	6386.2	
771.67	4403.8	
771.85	4641.4	
772.02	5573.9	
772.2	6421.1	
772.38	5437.4	
772.55	4913.8	
772.73	6640.9	
772.91	6430.6	
773.09	5259.9	
773.26	5392.3	
773.44	6534.4	
773.62	6217.6	
773.8	4685.8	
773.97	4465.9	
774.15	6645	
774.33	6199.9	
774.5	4667.3	
774.68	4979.3	
774.86	6779.5	
775.04	6221	
775.21	4670.1	
775.39	4649.6	
775.57	6464.1	
775.74	6914.6	
775.92	4485.7	
776.1	4283	
776.27	6491.4	
776.45	7737.9	
776.63	4650.3	
776.81	4142.4	
776.98	6015.6	
777.16	7193.1	
777.34	4820.9	
777.51	4685.8	
777.69	5961.6	
777.87	5728.9	
778.04	4692.6	
778.22	5464.7	
778.4	5788.9	
778.57	6506.4	
778.75	4034.5	
778.93	4252.9	
779.1	5584.8	
779.28	5412.8	
779.46	3971	
779.64	4512.4	
779.81	6681.8	
779.99	7562.5	
780.17	5377.3	
780.34	5525.4	
780.52	6000.5	
780.69	6298.2	
780.87	4879.6	
781.05	4365.6	
781.22	5988.9	
781.4	6130.3	
781.58	4483	
781.75	3578.5	
781.93	5915.2	
782.11	5421.7	
782.28	5486.5	
782.46	4474.1	
782.64	5214.8	
782.81	6251.8	
782.99	4558.8	
783.17	4501.4	
783.34	6172.6	
783.52	5253	
783.69	4686.4	
783.87	5593.7	
784.05	5281	
784.22	5357.5	
784.4	5585.5	
784.58	4741.7	
784.75	6354.8	
784.93	5390.3	
785.1	4411.3	
785.28	5028.4	
785.46	6165.8	
785.63	5307.7	
785.81	4386.7	
785.99	4298	
786.16	5513.8	
786.34	5874.9	
786.51	4203.1	
786.69	4625.7	
786.87	5088.5	
787.04	5680.4	
787.22	4046.1	
787.39	5057.8	
787.57	5303.6	
787.75	6503.7	
787.92	5268.1	
788.1	5306.3	
788.27	5370.5	
788.45	5121.3	
788.63	4921.3	
788.8	3566.2	
788.98	5897.5	
789.15	4997.7	
789.33	3723.2	
789.5	4439.3	
789.68	6282.5	
789.86	6449.7	
790.03	4834.6	
790.21	4217.5	
790.38	6270.9	
790.56	5433.9	
790.73	4032.5	
790.91	4098.7	
791.09	5303.6	
791.26	6155.5	
791.44	4313	
791.61	3703.4	
791.79	5315.2	
791.96	5340.4	
792.14	3839.3	
792.32	3388.7	
792.49	5271.5	
792.67	5400.5	
792.84	3929.4	
793.02	3725.3	
793.19	5753.4	
793.37	6518.7	
793.54	3373	
793.72	3820.1	
793.89	6761.7	
794.07	5289.9	
794.25	4446.8	
794.42	3467.2	
794.6	6408.8	
794.77	6014.2	
794.95	4735.6	
795.12	4083.6	
795.3	5289.9	
795.47	5917.9	
795.65	4506.9	
795.82	4361.5	
796	5070.8	
796.17	7113.3	
796.35	4132.8	
796.52	5007.3	
796.7	5825.8	
796.87	5955.5	
797.05	5240.8	
797.22	5116.5	
797.4	5943.2	
797.57	7050.5	
797.75	4304.8	
797.92	4063.2	
798.1	6207.4	
798.27	5240.1	
798.45	3459.7	
798.62	3799	
798.8	5610.8	
798.97	6083.8	
799.15	4620.2	
799.32	4354.7	
799.5	4788.2	
799.67	5662.6	
799.85	4728.1	
800.02	3368.9	
800.2	5169.1	
800.37	5578	
800.55	4907.6	
800.72	4084.3	
800.9	6097.5	
801.07	6553.5	
801.25	5563.6	
801.42	4485.7	
801.6	6098.2	
801.77	5808	
801.95	4142.4	
802.12	3974.4	
802.29	5739.1	
802.47	5750	
802.64	4393.6	
802.82	3348.4	
802.99	5169.1	
803.17	6156.9	
803.34	4375.8	
803.52	3895.9	
803.69	7017.7	
803.87	4939.7	
804.04	4280.3	
804.21	4406.5	
804.39	6391	
804.56	5446.9	
804.74	3622.2	
804.91	4468	
805.09	5224.4	
805.26	5297.4	
805.44	3723.9	
805.61	4065.9	
805.78	5925.5	
805.96	5987.6	
806.13	4459.8	
806.31	4767	
806.48	4676.2	
806.66	5289.2	
806.83	4369.7	
807	4392.2	
807.18	5152	
807.35	5602.6	
807.53	4063.9	
807.7	3383.9	
807.87	6440.9	
808.05	5260.5	
808.22	4727.4	
808.4	3398.3	
808.57	5225.1	
808.74	4792.2	
808.92	3923.9	
809.09	5107	
809.27	5041.4	
809.44	5778.7	
809.61	3476.1	
809.79	3842	
809.96	6421.1	
810.14	6115.9	
810.31	3321.1	
810.48	4109.6	
810.66	5364.3	
810.83	6070.2	
811.01	3922.5	
811.18	4410	
811.35	5989.6	
811.53	4642.7	
811.7	4801.1	
811.87	4470.7	
812.05	5216.9	
812.22	5171.1	
812.39	3808.5	
812.57	3681.6	
812.74	5176.6	
812.92	7103.7	
813.09	4150.5	
813.26	4529.4	
813.44	6741.9	
813.61	5232.6	
813.78	3452.2	
813.96	4596.3	
814.13	5207.3	
814.3	4909.7	
814.48	4982	
814.65	4163.5	
814.82	6561	
815	4997.7	
815.17	4272.1	
815.34	5206.6	
815.52	5156.1	
815.69	5190.2	
815.87	4190.8	
816.04	3599	
816.21	5283.1	
816.38	4588.8	
816.56	4106.9	
816.73	3816.7	
816.9	6649.1	
817.08	6068.1	
817.25	3786	
817.42	4844.8	
817.6	4784.7	
817.77	5257.8	
817.94	4390.8	
818.12	3746.4	
818.29	4917.9	
818.46	7897	
818.64	3955.3	
818.81	3751.9	
818.98	4828.4	
819.16	7206.1	
819.33	4573.8	
819.5	4252.9	
819.67	5599.1	
819.85	6311.2	
820.02	4136.9	
820.19	4468	
820.37	5455.8	
820.54	5053	
820.71	4311	
820.88	5436	
821.06	5446.9	
821.23	4963.6	
821.4	4322.6	
821.58	4297.3	
821.75	6018.3	
821.92	5405.3	
822.09	3454.2	
822.27	3744.4	
822.44	5178.6	
822.61	5156.8	
822.79	3508.2	
822.96	6746.7	
823.13	5745.2	
823.3	4946.5	
823.48	4081.6	
823.65	3626.3	
823.82	5935.7	
823.99	4773.8	
824.17	5151.3	
824.34	3722.5	
824.51	6937.2	
824.68	5285.1	
824.86	3822.2	
825.03	4345.1	
825.2	5254.4	
825.37	6397.2	
825.55	3821.5	
825.72	4309.6	
825.89	7004.7	
826.06	6486.6	
826.24	4193.6	
826.41	4185.4	
826.58	6353.5	
826.75	5585.5	
826.92	3237.8	
827.1	3647.4	
827.27	8770.1	
827.44	6952.9	
827.61	3904.1	
827.79	4820.9	
827.96	4932.9	
828.13	5341.8	
828.3	4144.4	
828.47	3443.3	
828.65	5493.3	
828.82	5431.2	
828.99	5385.5	
829.16	4676.2	
829.34	5833.3	
829.51	5603.9	
829.68	4267.3	
829.85	4432.5	
830.02	6112.5	
830.2	5888.6	
830.37	3307.5	
830.54	5217.5	
830.71	6756.9	
830.88	5208.7	
831.05	3327.3	
831.23	3867.9	
831.4	6395.1	
831.57	7234.8	
831.74	4014.7	
831.91	3503.4	
832.09	5450.3	
832.26	5881.8	
832.43	4092.5	
832.6	4592.2	
832.77	5448.3	
832.94	6314.6	
833.12	3215.3	
833.29	4061.8	
833.46	5640.8	
833.63	7540.6	
833.8	4519.9	
833.97	4136.9	
834.15	5874.3	
834.32	5593.7	
834.49	4354	
834.66	4369.7	
834.83	6103.6	
835	4918.5	
835.17	3971.7	
835.35	3949.8	
835.52	5773.9	
835.69	5670.1	
835.86	4212	
836.03	3456.3	
836.2	5788.9	
836.37	5364.3	
836.55	4091.8	
836.72	3871.3	
836.89	5357.5	
837.06	5909.1	
837.23	4173.8	
837.4	4608.6	
837.57	6752.8	
837.75	7526.3	
837.92	3763.5	
838.09	3971.7	
838.26	5398.4	
838.43	6146	
838.6	4281.6	
838.77	3848.1	
838.94	7065.5	
839.11	6750.8	
839.29	4097.3	
839.46	3208.5	
839.63	5764.3	
839.8	5533.6	
839.97	3964.2	
840.14	4009.2	
840.31	5657.9	
840.48	5778.7	
840.65	3235.1	
840.82	3984	
841	5832.6	
841.17	5787.6	
841.34	3724.6	
841.51	3717.1	
841.68	5755.5	
841.85	5493.3	
842.02	3759.4	
842.19	3095.8	
842.36	5570.5	
842.53	5525.4	
842.7	3685.7	
842.87	4476.2	
843.05	7437.5	
843.22	5502.9	
843.39	3496.6	
843.56	3792.8	
843.73	5302.2	
843.9	5883.8	
844.07	5981.4	
844.24	4959.5	
844.41	8708	
844.58	4997.7	
844.75	3568.9	
844.92	3814.7	
845.09	5803.9	
845.26	5800.5	
845.43	3609.9	
845.6	3795.6	
845.77	5813.5	
845.94	5496.7	
846.12	4017.4	
846.29	4315.1	
846.46	5993.7	
846.63	5866.1	
846.8	3576.4	
846.97	4349.2	
847.14	6346.7	
847.31	5734.3	
847.48	4155.3	
847.65	4529.4	
847.82	6168.5	
847.99	6094.8	
848.16	4896	
848.33	4566.3	
848.5	5367	
848.67	6345.3	
848.84	3650.2	
849.01	3776.5	
849.18	5243.5	
849.35	4882.4	
849.52	4587.4	
849.69	3517.7	
849.86	6042.9	
850.03	6287.9	
850.2	3673.4	
850.37	4485.7	
850.54	6223.8	
850.71	5474.2	
850.88	4381.3	
851.05	3577.8	
851.22	5760.9	
851.39	6349.4	
851.56	3442	
851.73	4154	
851.9	5160.9	
852.07	6118.6	
852.24	4014	
852.41	3548.4	
852.58	5671.5	
852.75	5221	
852.92	4088.4	
853.09	3500	
853.26	5360.9	
853.43	6291.4	
853.6	3634.5	
853.77	3065.8	
853.94	6388.3	
854.11	5780.1	
854.28	5435.3	
854.44	3956	
854.61	6937.2	
854.78	6214.9	
854.95	3587.4	
855.12	4622.3	
855.29	4692.6	
855.46	6452.5	
855.63	3605.1	
855.8	5039.4	
855.97	5343.2	
856.14	6199.2	
856.31	5180.7	
856.48	3961.5	
856.65	5268.1	
856.82	5041.4	
856.99	3433.1	
857.16	3910.9	
857.33	7169.9	
857.49	5458.5	
857.66	3932.1	
857.83	4164.2	
858	5360.2	
858.17	5631.9	
858.34	3400.3	
858.51	3615.3	
858.68	6600.6	
858.85	6662.7	
859.02	4220.9	
859.19	4564.2	
859.36	5057.8	
859.52	5135.6	
859.69	3621.5	
859.86	4321.2	
860.03	5212.1	
860.2	6432.7	
860.37	3254.9	
860.54	3661.1	
860.71	6062.7	
860.88	6524.8	
861.05	4094.6	
861.21	4561.5	
861.38	6540.5	
861.55	4943.8	
861.72	3301.3	
861.89	4037.2	
862.06	6201.9	
862.23	6657.9	
862.4	3517	
862.56	3777.8	
862.73	5978.7	
862.9	5591.6	
863.07	4272.1	
863.24	3246.7	
863.41	4939	
863.58	5102.2	
863.75	3719.1	
863.91	4177.2	
864.08	6449.1	
864.25	6014.2	
864.42	4510.3	
864.59	5139	
864.76	6805.4	
864.93	5135.6	
865.09	3571.7	
865.26	3855	
865.43	6358.3	
865.6	6767.2	
865.77	3138.9	
865.94	3574.4	
866.1	6400.6	
866.27	6084.5	
866.44	5511.1	
866.61	3454.9	
866.78	5539.8	
866.95	5987.6	
867.11	3455.6	
867.28	3219.4	
867.45	6191	
867.62	5145.2	
867.79	4164.9	
867.96	3587.4	
868.12	5091.9	
868.29	6161.7	
868.46	3594.9	
868.63	4840.7	
868.8	6356.2	
868.97	6050.4	
869.13	3805.8	
869.3	3811.3	
869.47	5958.2	
869.64	6122.7	
869.81	3668.6	
869.97	3700.7	
870.14	5816.9	
870.31	6567.8	
870.48	3556.6	
870.65	4621.6	
870.81	5405.3	
870.98	5417.6	
871.15	4122.6	
871.32	3757.3	
871.48	5890	
871.65	6574	
871.82	3528	
871.99	3973.1	
872.16	7070.3	
872.32	6418.3	
872.49	3653.6	
872.66	3644	
872.83	6103.6	
872.99	5291.3	
873.16	4155.3	
873.33	3579.2	
873.5	5648.3	
873.67	5651	
873.83	3779.9	
874	4896.7	
874.17	5877.7	
874.34	6967.2	
874.5	4711	
874.67	4582	
874.84	6484.6	
875.01	5100.1	
875.17	5087.8	
875.34	3628.3	
875.51	5659.2	
875.68	6933.1	
875.84	4437.9	
876.01	5379.3	
876.18	6019.7	
876.34	5997.1	
876.51	3616	
876.68	3536.8	
876.85	5452.4	
877.01	6315.9	
877.18	5165	
877.35	3590.1	
877.52	5561.6	
877.68	4978.6	
877.85	3493.8	
878.02	3598.3	
878.18	5620.3	
878.35	5279.7	
878.52	2882.9	
878.69	4111.6	
878.85	6036.7	
879.02	6071.5	
879.19	5195	
879.35	3923.2	
879.52	5959.6	
879.69	6246.3	
879.86	3094.5	
880.02	4048.2	
880.19	5560.2	
880.36	6935.8	
880.52	4199.7	
880.69	4281.6	
880.86	6124.8	
881.02	6153.5	
881.19	4044.7	
881.36	3962.1	
881.52	5954.1	
881.69	5287.9	
881.86	3855.6	
882.02	3824.9	
882.19	6324.1	
882.36	7390.4	
882.52	3703.4	
882.69	5189.6	
882.86	5836.7	
883.02	5641.5	
883.19	4399	
883.36	4171.7	
883.52	6153.5	
883.69	7068.2	
883.86	3704.1	
884.02	3237.2	
884.19	6107	
884.36	5625.8	
884.52	4135.5	
884.69	3865.2	
884.86	5365	
885.02	6773.3	
885.19	4031.1	
885.36	4143	
885.52	5613.5	
885.69	5774.6	
885.86	5292.6	
886.02	4659.1	
886.19	6033.3	
886.35	5504.9	
886.52	3981.3	
886.69	5167	
886.85	5152	
887.02	6488.6	
887.19	6488.6	
887.35	6488.6	
887.52	6488.6	
887.68	6488.6	
887.85	6488.6	
888.02	6488.6	
888.18	6488.6	
888.35	6488.6	
888.51	6488.6	
888.68	6488.6	
888.85	6488.6	
889.01	6488.6	
889.18	6488.6	
889.35	6488.6	
889.51	6488.6	
889.68	6488.6	
889.84	6488.6	
890.01	6488.6	
890.17	6488.6	
890.34	6488.6	
890.51	6488.6	
890.67	6488.6	
890.84	6488.6	
891	6488.6	
891.17	6488.6	
891.34	6488.6	
891.5	6488.6	
891.67	6488.6	
891.83	6488.6	
892	6488.6	
892.16	6488.6	
892.33	6488.6	
892.5	6488.6	
892.66	6488.6	
892.83	6488.6	
892.99	6488.6	
893.16	6488.6	
893.32	6488.6	
893.49	6488.6	
893.65	6488.6	
893.82	6488.6	
893.99	6488.6	
894.15	6488.6	
894.32	6488.6	
894.48	6488.6	
894.65	6488.6	
894.81	6488.6	
894.98	6488.6	
895.14	6488.6	
895.31	6488.6	
895.47	6488.6	
895.64	6488.6	
895.81	6488.6	
895.97	6488.6	
896.14	6488.6	
896.3	6488.6	
896.47	6488.6	
896.63	6488.6	
896.8	6488.6	
896.96	6488.6	
897.13	6488.6	
897.29	6488.6	
897.46	6488.6	
897.62	6488.6	
897.79	6488.6	
897.95	6488.6	
898.12	6488.6	
898.28	6488.6	
898.45	6488.6	
898.61	6488.6	
898.78	6488.6	
898.94	6488.6	
899.11	6488.6	
899.27	6488.6	
899.44	6488.6	
899.6	6488.6	
899.77	6488.6	
899.93	6488.6	
900.1	6488.6	
900.26	6488.6	
900.43	6488.6	
900.59	6488.6	
900.76	6488.6	
900.92	6488.6	
901.09	6488.6	
901.25	6488.6	
901.42	6488.6	
901.58	6488.6	
901.75	6488.6	
901.91	6488.6	
902.07	6488.6	
902.24	6488.6	
902.4	6488.6	
902.57	6488.6	
902.73	6488.6	
902.9	6488.6	
903.06	6488.6	
903.23	6488.6	
903.39	6488.6	
903.56	6488.6	
903.72	6488.6	
903.88	6488.6	
904.05	6488.6	
904.21	6488.6	
904.38	6488.6	
904.54	6488.6	
904.71	6488.6	
904.87	6488.6	
905.03	6488.6	
905.2	6488.6	
905.36	6488.6	
905.53	6488.6	
905.69	6488.6	
905.86	6488.6	
906.02	6488.6	
906.18	6488.6	
906.35	6488.6	
906.51	6488.6	
906.68	6488.6	
906.84	6488.6	
907.01	6488.6	
907.17	6488.6	
907.33	6488.6	
907.5	6488.6	
907.66	6488.6	
907.83	6488.6	
907.99	6488.6	
908.15	6488.6	
908.32	6488.6	
908.48	6488.6	
908.65	6488.6	
908.81	6488.6	
908.97	6488.6	
909.14	6488.6	
909.3	6488.6	
909.47	6488.6	
909.63	6488.6	
909.79	6488.6	
909.96	6488.6	
910.12	6488.6	
910.28	6488.6	
910.45	6488.6	
910.61	6488.6	
910.78	6488.6	
910.94	6488.6	
911.1	6488.6	
911.27	6488.6	
911.43	6488.6	
911.59	6488.6	
911.76	6488.6	
911.92	6488.6	
912.08	6488.6	
912.25	6488.6	
912.41	6488.6	
912.57	6488.6	
912.74	6488.6	
912.9	6488.6	
913.07	6488.6	
913.23	6488.6	
913.39	6488.6	
913.56	6488.6	
913.72	6488.6	
913.88	6488.6	
914.05	6488.6	
914.21	6488.6	
914.37	6488.6	
914.54	6488.6	
914.7	6488.6	
914.86	6488.6	
915.03	6488.6	
915.19	6488.6	
