Wavelength	Intensities	
nm	a.u.	
179.22	1692.3	
179.44	1688.2	
179.65	1696.4	
179.86	1680	
180.08	1678.7	
180.29	3908.2	
180.51	3048.1	
180.72	4988.9	
180.94	5559.6	
181.15	2736.1	
181.37	2712.9	
181.58	4816.8	
181.79	4965.6	
182.01	2795.5	
182.22	2998.2	
182.44	4982.7	
182.65	4342.4	
182.87	3697.9	
183.08	3250.8	
183.29	5287.9	
183.51	4394.9	
183.72	2974.3	
183.94	4191.5	
184.15	4731.5	
184.37	4724	
184.58	2683.5	
184.79	3564.8	
185.01	4439.3	
185.22	5044.8	
185.44	3692.5	
185.65	3126.6	
185.86	4741.7	
186.08	4329.4	
186.29	2618	
186.51	2801.6	
186.72	4563.6	
186.94	5139	
187.15	3205.8	
187.36	3289	
187.58	6445.6	
187.79	4733.5	
188.01	3386	
188.22	5086.5	
188.43	5638.1	
188.65	5029.8	
188.86	2826.9	
189.08	3327.9	
189.29	4569.7	
189.5	4512.4	
189.72	2981.8	
189.93	3137.5	
190.15	5156.8	
190.36	5940.5	
190.57	3289.7	
190.79	3227.6	
191	5173.2	
191.22	5202.5	
191.43	3355.3	
191.64	2850.8	
191.86	5375.2	
192.07	5146.5	
192.29	2902.7	
192.5	3006.4	
192.71	5188.9	
192.93	4563.6	
193.14	3016	
193.35	3129.3	
193.57	4590.2	
193.78	5136.3	
194	2508.1	
194.21	2955.9	
194.42	4405.2	
194.64	4745.8	
194.85	3274.7	
195.07	3756	
195.28	4754	
195.49	4198.3	
195.71	3916.4	
195.92	2857.6	
196.13	4915.8	
196.35	4915.8	
196.56	4133.5	
196.78	3247.4	
196.99	5911.1	
197.2	5599.1	
197.42	3577.1	
197.63	3300	
197.84	4289.8	
198.06	4931.5	
198.27	3068.5	
198.48	3868.6	
198.7	4560.8	
198.91	4713.1	
199.13	3312.9	
199.34	3293.8	
199.55	5085.1	
199.77	4126	
199.98	2979.8	
200.19	3348.4	
200.41	4757.4	
200.62	4429.1	
200.83	3359.4	
201.05	3629.7	
201.26	4713.7	
201.47	4482.3	
201.69	2983.9	
201.9	2901.3	
202.11	4722.6	
202.33	5483.8	
202.54	3122.5	
202.76	3496.6	
202.97	4818.9	
203.18	4831.8	
203.4	3401	
203.61	3401	
203.82	4759.5	
204.04	4470.7	
204.25	3320.4	
204.46	3235.8	
204.68	4784.7	
204.89	4924.7	
205.1	3170.3	
205.32	2835.8	
205.53	4968.4	
205.74	5085.1	
205.96	2529.9	
206.17	3302	
206.38	4999.8	
206.6	5143.1	
206.81	3732.1	
207.02	3035.1	
207.24	4941.1	
207.45	5217.5	
207.66	3179.1	
207.88	2794.1	
208.09	4882.4	
208.3	4714.4	
208.52	2925.9	
208.73	3219.4	
208.94	4747.2	
209.15	5275.6	
209.37	3155.2	
209.58	3517	
209.79	5106.3	
210.01	4605.9	
210.22	2614.6	
210.43	2694.4	
210.65	4719.9	
210.86	4967.7	
211.07	3115.6	
211.29	2919	
211.5	4959.5	
211.71	4690.5	
211.93	2936.8	
212.14	2906.1	
212.35	4702.8	
212.56	4797.7	
212.78	3274	
212.99	2764.1	
213.2	5388.9	
213.42	4537.6	
213.63	2977.7	
213.84	3175	
214.06	4280.9	
214.27	4330.1	
214.48	3137.5	
214.69	3319.8	
214.91	5266	
215.12	5300.1	
215.33	3340.9	
215.55	3568.2	
215.76	5671.5	
215.97	4984.1	
216.18	3179.8	
216.4	3246.7	
216.61	4484.4	
216.82	5127.4	
217.04	2942.9	
217.25	3033.7	
217.46	5191.6	
217.67	5050.3	
217.89	2656.2	
218.1	2763.4	
218.31	4795	
218.53	4902.8	
218.74	3053.5	
218.95	2973.7	
219.16	4688.5	
219.38	5484.5	
219.59	2966.1	
219.8	3466.5	
220.01	5803.3	
220.23	4819.6	
220.44	3766.9	
220.65	2936.8	
220.87	4818.2	
221.08	5234.6	
221.29	2792.1	
221.5	3537.5	
221.72	6116.6	
221.93	4511.7	
222.14	3318.4	
222.35	3844	
222.57	4757.4	
222.78	5084.4	
222.99	3197.6	
223.2	3355.9	
223.42	4934.2	
223.63	5060.5	
223.84	2539.5	
224.05	2496.5	
224.27	5753.4	
224.48	5386.8	
224.69	3876.8	
224.9	3328.6	
225.12	4919.9	
225.33	4718.5	
225.54	2711.5	
225.75	2963.4	
225.97	4437.3	
226.18	4659.1	
226.39	3177.8	
226.6	3002.3	
226.82	4552.6	
227.03	4407.9	
227.24	3274.7	
227.45	2827.6	
227.67	5083.7	
227.88	5389.6	
228.09	3631	
228.3	3641.3	
228.52	4992.3	
228.73	4674.8	
228.94	3102.7	
229.15	2749.7	
229.36	4682.3	
229.58	4667.3	
229.79	3105.4	
230	3544.4	
230.21	5551.4	
230.43	4766.3	
230.64	3261	
230.85	3368.9	
231.06	5163.6	
231.28	5061.9	
231.49	2794.8	
231.7	3266.5	
231.91	4997	
232.12	4775.9	
232.34	2874.7	
232.55	3219.4	
232.76	5252.4	
232.97	4870.1	
233.18	2906.1	
233.4	3261.7	
233.61	4838	
233.82	4527.4	
234.03	3075.4	
234.25	3037.8	
234.46	6235.4	
234.67	4812	
234.88	3348.4	
235.09	3057.6	
235.31	4874.8	
235.52	4618.2	
235.73	3264.5	
235.94	2800.3	
236.15	4526.7	
236.37	5571.2	
236.58	2941.6	
236.79	3168.2	
237	4938.3	
237.21	4303.5	
237.43	3396.9	
237.64	2728.6	
237.85	7762.5	
238.06	4442	
238.27	3357.3	
238.48	2855.6	
238.7	5010.7	
238.91	4600.4	
239.12	3152.5	
239.33	3195.5	
239.54	4474.8	
239.76	4638	
239.97	3149.1	
240.18	3201	
240.39	5662	
240.6	4904.2	
240.82	3334.1	
241.03	2786.6	
241.24	4721.9	
241.45	5366.4	
241.66	2912.2	
241.87	3359.4	
242.09	5294	
242.3	5588.9	
242.51	3452.2	
242.72	3184.6	
242.93	5054.4	
243.14	4700.8	
243.36	3620.1	
243.57	3811.3	
243.78	5356.1	
243.99	4964.3	
244.2	3161.4	
244.41	2859.6	
244.63	4353.3	
244.84	4933.6	
245.05	3359.4	
245.26	3155.2	
245.47	5015.5	
245.68	5053	
245.9	4049.5	
246.11	3310.9	
246.32	4600.4	
246.53	4917.9	
246.74	4934.9	
246.95	2772.9	
247.16	4419.5	
247.38	4752	
247.59	2735.4	
247.8	3207.1	
248.01	4433.2	
248.22	4676.9	
248.43	2936.8	
248.64	3115.6	
248.86	4340.3	
249.07	4595	
249.28	2902.7	
249.49	3250.8	
249.7	5104.9	
249.91	5194.3	
250.12	2730.6	
250.34	2762.7	
250.55	4805.2	
250.76	4793.6	
250.97	3281.5	
251.18	3303.4	
251.39	5177.3	
251.6	4851	
251.81	3310.2	
252.03	3248.8	
252.24	4588.8	
252.45	5066	
252.66	2804.4	
252.87	3408.5	
253.08	4739	
253.29	5922.7	
253.5	2821.4	
253.72	3798.3	
253.93	4666	
254.14	5399.8	
254.35	3074	
254.56	3071.3	
254.77	4929.5	
254.98	4465.9	
255.19	3035.8	
255.41	3758.7	
255.62	4869.4	
255.83	5177.9	
256.04	3349.8	
256.25	3290.4	
256.46	5616.2	
256.67	4463.9	
256.88	3266.5	
257.09	3503.4	
257.31	4433.2	
257.52	4442.7	
257.73	4028.4	
257.94	3032.4	
258.15	4693.9	
258.36	4642.7	
258.57	3732.8	
258.78	2468.5	
258.99	5186.1	
259.2	4642.1	
259.41	3005.1	
259.63	3149.8	
259.84	5335	
260.05	5610.8	
260.26	3848.8	
260.47	3001.6	
260.68	5123.3	
260.89	4706.9	
261.1	3617.4	
261.31	2914.3	
261.52	5264.6	
261.73	5465.3	
261.95	3801.7	
262.16	3347.7	
262.37	5195.7	
262.58	5306.3	
262.79	3837.2	
263	3023.5	
263.21	4818.9	
263.42	4374.5	
263.63	3340.2	
263.84	3105.4	
264.05	5112.4	
264.26	5356.8	
264.47	3709.6	
264.69	3266.5	
264.9	5244.2	
265.11	4859.8	
265.32	2919	
265.53	3015.3	
265.74	4838.7	
265.95	4289.8	
266.16	3242.6	
266.37	3521.8	
266.58	4859.1	
266.79	4577.9	
267	3017.3	
267.21	2824.1	
267.42	4386.7	
267.63	4685.1	
267.84	3155.9	
268.06	2782.5	
268.27	5091.9	
268.48	5291.3	
268.69	3076	
268.9	3566.2	
269.11	5248.3	
269.32	4293.2	
269.53	3165.5	
269.74	2953.9	
269.95	4930.1	
270.16	4314.4	
270.37	3211.2	
270.58	3614	
270.79	4633.2	
271	5098.8	
271.21	3315	
271.42	3216	
271.63	4851	
271.84	4407.2	
272.05	2648.7	
272.26	2860.3	
272.47	4749.2	
272.68	4821.6	
272.89	3050.1	
273.11	3472.7	
273.32	4550.6	
273.53	5375.9	
273.74	3341.6	
273.95	3295.9	
274.16	5074.2	
274.37	4739.7	
274.58	3444.7	
274.79	2858.3	
275	4862.6	
275.21	5141.8	
275.42	4081.6	
275.63	3495.9	
275.84	4972.5	
276.05	5971.9	
276.26	3295.9	
276.47	3163.4	
276.68	4671.4	
276.89	5480.4	
277.1	3499.3	
277.31	2833	
277.52	4937.7	
277.73	5159.5	
277.94	2784.6	
278.15	3123.8	
278.36	4907.6	
278.57	4510.3	
278.78	3075.4	
278.99	3420.1	
279.2	4557.4	
279.41	4410	
279.62	3943	
279.83	2870.6	
280.04	5596.4	
280.25	4441.4	
280.46	3898	
280.67	3185.3	
280.88	4474.8	
281.09	5172.5	
281.3	3338.2	
281.51	4080.9	
281.72	4511.7	
281.93	5083.1	
282.14	2980.5	
282.35	3213.3	
282.56	5165	
282.77	5045.5	
282.98	3089.7	
283.19	3650.2	
283.4	6047	
283.61	4674.8	
283.82	2888.3	
284.03	3824.9	
284.24	4912.4	
284.45	5225.7	
284.66	3910.3	
284.87	3670.6	
285.08	5245.5	
285.29	5235.3	
285.5	2815.3	
285.71	3068.5	
285.92	5132.2	
286.12	5653.8	
286.33	3781.2	
286.54	3144.3	
286.75	5086.5	
286.96	4663.9	
287.17	2930.6	
287.38	3773.7	
287.59	4562.2	
287.8	4504.8	
288.01	3118.4	
288.22	3477.5	
288.43	5038	
288.64	4319.2	
288.85	3614.7	
289.06	3465.2	
289.27	5055.1	
289.48	5429.8	
289.69	3918.4	
289.9	3551.2	
290.11	5199.1	
290.32	4579.9	
290.53	3674.7	
290.74	3355.3	
290.94	5046.2	
291.15	5096	
291.36	3053.5	
291.57	3469.9	
291.78	4633.9	
291.99	4280.9	
292.2	2955.2	
292.41	3336.8	
292.62	5187.5	
292.83	5002.5	
293.04	4151.2	
293.25	2955.9	
293.46	4629.1	
293.67	5152	
293.88	2974.3	
294.09	2902	
294.29	4443.4	
294.5	4858.5	
294.71	3198.2	
294.92	3070.6	
295.13	4564.2	
295.34	5626.5	
295.55	2737.5	
295.76	2710.1	
295.97	5004.6	
296.18	5588.9	
296.39	2882.9	
296.6	3014.6	
296.81	4776.5	
297.01	4999.8	
297.22	3097.9	
297.43	3060.3	
297.64	4594.3	
297.85	4475.5	
298.06	2538.1	
298.27	2764.1	
298.48	4719.9	
298.69	4506.2	
298.9	3223.5	
299.11	2969.6	
299.31	4411.3	
299.52	4420.2	
299.73	3431	
299.94	3376.4	
300.15	4782.7	
300.36	4517.1	
300.57	3408.5	
300.78	3319.8	
300.99	4631.1	
301.2	4816.1	
301.4	2973	
301.61	3221.5	
301.82	4962.2	
302.03	5058.5	
302.24	3546.4	
302.45	2867.2	
302.66	4995.7	
302.87	5215.5	
303.08	3008.5	
303.29	3942.3	
303.49	4627	
303.7	4663.9	
303.91	2675.3	
304.12	3783.3	
304.33	4336.9	
304.54	4848.9	
304.75	2998.2	
304.96	2865.1	
305.16	4970.4	
305.37	5520	
305.58	2681.5	
305.79	2770.9	
306	4952.7	
306.21	4320.5	
306.42	2981.8	
306.63	4390.8	
306.83	4665.3	
307.04	5102.2	
307.25	3307.5	
307.46	3201.7	
307.67	4199	
307.88	4969.1	
308.09	2977.7	
308.29	3074	
308.5	4792.9	
308.71	5129.5	
308.92	3240.6	
309.13	2890.4	
309.34	4741.7	
309.55	4733.5	
309.75	3712.3	
309.96	3373.7	
310.17	5058.5	
310.38	4519.2	
310.59	3411.2	
310.8	2875.3	
311.01	5523.4	
311.21	4719.2	
311.42	2850.8	
311.63	2960.7	
311.84	4548.5	
312.05	4802.5	
312.26	3358	
312.46	3563.5	
312.67	4622.3	
312.88	4364.9	
313.09	2883.5	
313.3	2927.2	
313.51	5317.9	
313.71	5604.6	
313.92	2986.6	
314.13	3081.5	
314.34	4887.1	
314.55	4714.4	
314.76	3609.9	
314.96	3225.6	
315.17	4892.6	
315.38	5042.1	
315.59	2962	
315.8	2820.1	
316.01	5307.7	
316.21	5426.4	
316.42	2889.7	
316.63	3196.9	
316.84	4689.2	
317.05	5215.5	
317.26	3373	
317.46	3070.6	
317.67	4709.6	
317.88	5093.3	
318.09	3585.3	
318.3	2749.1	
318.5	4572.4	
318.71	4917.9	
318.92	4476.2	
319.13	3403.7	
319.34	5096	
319.54	5205.3	
319.75	2760.7	
319.96	2604.3	
320.17	4998.4	
320.38	5210	
320.58	2680.1	
320.79	3174.4	
321	5143.8	
321.21	5229.8	
321.42	3248.8	
321.62	2710.1	
321.83	4515.8	
322.04	4727.4	
322.25	3101.3	
322.46	2923.1	
322.66	4801.1	
322.87	4985.4	
323.08	3525.9	
323.29	2878.8	
323.5	5494	
323.7	4413.4	
323.91	3819.5	
324.12	3431.7	
324.33	4826.4	
324.53	4995.7	
324.74	3341.6	
324.95	3486.3	
325.16	4361.5	
325.37	4629.8	
325.57	2930	
325.78	2994.8	
325.99	4858.5	
326.2	4328	
326.4	4014.7	
326.61	2735.4	
326.82	4665.3	
327.03	4850.3	
327.24	3984.7	
327.44	3764.2	
327.65	4917.2	
327.86	4128.7	
328.07	3370.3	
328.27	2836.4	
328.48	5241.4	
328.69	4418.2	
328.9	4096.6	
329.1	3079.5	
329.31	4686.4	
329.52	5294	
329.73	2923.1	
329.93	3234.4	
330.14	4777.2	
330.35	4923.3	
330.56	4585.4	
330.76	3536.2	
330.97	4549.2	
331.18	4810	
331.39	3235.8	
331.59	2656.2	
331.8	5177.9	
332.01	5228.5	
332.22	3025.5	
332.42	3350.5	
332.63	4830.5	
332.84	4496.7	
333.05	3214.6	
333.25	3004.4	
333.46	4508.3	
333.67	4687.1	
333.88	3071.3	
334.08	3325.9	
334.29	6195.1	
334.5	5167.7	
334.7	2869.2	
334.91	3999	
335.12	4354	
335.33	4998.4	
335.53	3151.1	
335.74	4505.5	
335.95	4644.8	
336.16	4425	
336.36	3181.9	
336.57	3607.2	
336.78	4351.9	
336.98	5157.5	
337.19	3865.2	
337.4	3142.9	
337.61	5657.2	
337.81	4436.6	
338.02	3000.3	
338.23	3690.4	
338.43	5293.3	
338.64	4545.8	
338.85	2934.7	
339.05	3731.4	
339.26	5464.7	
339.47	4315.1	
339.68	2968.9	
339.88	4142.4	
340.09	4975.9	
340.3	5119.9	
340.5	3364.8	
340.71	2670.6	
340.92	4367	
341.13	5259.9	
341.33	2840.5	
341.54	3339.6	
341.75	4956.8	
341.95	4610.7	
342.16	3274	
342.37	3486.3	
342.57	4405.2	
342.78	4685.8	
342.99	3586.7	
343.19	2659.6	
343.4	5063.9	
343.61	4912.4	
343.81	3128.6	
344.02	2871.3	
344.23	5060.5	
344.43	5269.4	
344.64	3573.7	
344.85	3486.3	
345.06	4965	
345.26	5158.8	
345.47	3367.5	
345.68	3843.4	
345.88	4306.2	
346.09	5016.2	
346.3	3396.2	
346.5	2536.1	
346.71	4689.2	
346.92	4515.1	
347.12	2770.2	
347.33	3332.7	
347.54	5107.6	
347.74	5414.8	
347.95	3308.2	
348.16	2603	
348.36	4598.4	
348.57	4464.6	
348.78	3336.1	
348.98	3492.5	
349.19	4711.7	
349.39	4265.9	
349.6	2779.8	
349.81	2981.2	
350.01	4966.3	
350.22	4500.8	
350.43	3241.3	
350.63	3828.3	
350.84	4726.7	
351.05	4547.2	
351.25	2942.2	
351.46	2728.6	
351.67	5135.6	
351.87	4461.2	
352.08	3106.1	
352.29	3531.4	
352.49	5091.3	
352.7	5053	
352.9	2805.7	
353.11	3461.1	
353.32	5569.1	
353.52	4572.4	
353.73	2809.8	
353.94	3531.4	
354.14	4917.9	
354.35	4743.8	
354.55	2902.7	
354.76	3183.9	
354.97	4921.3	
355.17	4656.4	
355.38	2764.8	
355.59	3669.3	
355.79	4502.1	
356	4721.9	
356.2	3166.8	
356.41	2872.6	
356.62	4296.6	
356.82	4627	
357.03	3414	
357.24	3110.2	
357.44	4518.5	
357.65	4560.1	
357.85	3944.4	
358.06	3235.8	
358.27	4286.4	
358.47	4349.2	
358.68	2718.3	
358.88	3344.3	
359.09	4868	
359.3	5050.3	
359.5	3859.7	
359.71	3493.2	
359.91	5385.5	
360.12	4921.3	
360.33	3347.7	
360.53	3704.8	
360.74	4504.8	
360.94	4530.8	
361.15	3495.2	
361.36	2945.7	
361.56	5055.1	
361.77	4686.4	
361.97	3809.2	
362.18	3120.4	
362.38	5061.2	
362.59	4349.2	
362.8	2869.9	
363	2761.3	
363.21	4190.1	
363.41	4677.6	
363.62	3246.7	
363.83	3936.9	
364.03	4815.5	
364.24	5364.3	
364.44	4100	
364.65	4052.2	
364.85	4569.7	
365.06	4343.7	
365.27	2987.3	
365.47	3060.3	
365.68	5337.7	
365.88	4568.3	
366.09	3349.1	
366.29	3050.1	
366.5	4701.5	
366.71	5087.8	
366.91	4003.8	
367.12	3421.5	
367.32	5541.8	
367.53	4928.8	
367.73	3443.3	
367.94	4081.6	
368.14	5013.4	
368.35	5513.8	
368.56	3391.4	
368.76	2897.2	
368.97	5018.9	
369.17	6219.7	
369.38	2981.2	
369.58	3195.5	
369.79	4275.5	
369.99	5255.8	
370.2	3993.5	
370.4	3261.7	
370.61	4810	
370.82	5708.4	
371.02	3213.3	
371.23	2691.7	
371.43	4297.3	
371.64	5296	
371.84	3293.8	
372.05	4059.8	
372.25	6040.1	
372.46	4893.3	
372.66	3207.8	
372.87	3181.9	
373.07	4949.3	
373.28	6175.3	
373.48	3966.2	
373.69	3665.2	
373.9	4601.1	
374.1	4655	
374.31	3863.2	
374.51	3532.7	
374.72	5233.2	
374.92	4402.5	
375.13	4021.5	
375.33	3384.6	
375.54	4898.7	
375.74	4537.6	
375.95	3452.2	
376.15	4349.2	
376.36	4945.2	
376.56	4818.2	
376.77	3541.6	
376.97	3753.2	
377.18	5758.9	
377.38	5018.2	
377.59	4058.4	
377.79	3189.4	
378	4863.9	
378.2	5083.1	
378.41	3194.1	
378.61	3063.1	
378.82	5225.1	
379.02	4546.5	
379.23	3286.3	
379.43	4050.9	
379.64	5355.4	
379.84	4945.2	
380.05	3189.4	
380.25	3114.3	
380.46	5042.1	
380.66	4709.6	
380.87	4184.7	
381.07	4458.4	
381.28	5446.9	
381.48	5040.1	
381.69	3181.2	
381.89	3218.7	
382.1	4280.3	
382.3	5123.3	
382.51	3977.2	
382.71	4687.1	
382.91	4989.5	
383.12	5348.6	
383.32	3427.6	
383.53	3628.3	
383.73	4915.8	
383.94	4799.1	
384.14	3614	
384.35	2934.1	
384.55	4671.4	
384.76	5065.3	
384.96	3467.2	
385.17	3708.9	
385.37	5082.4	
385.58	4485.7	
385.78	3721.2	
385.98	2917	
386.19	4672.8	
386.39	5019.6	
386.6	3250.1	
386.8	3455.6	
387.01	5030.5	
387.21	5096.7	
387.42	3735.5	
387.62	4173.1	
387.83	4540.3	
388.03	4876.2	
388.23	3535.5	
388.44	4050.2	
388.64	4339	
388.85	4328.7	
389.05	3753.9	
389.26	4209.3	
389.46	5881.1	
389.67	5399.8	
389.87	3747.8	
390.07	3786.7	
390.28	4761.5	
390.48	4399.7	
390.69	3152.5	
390.89	3425.6	
391.1	4614.1	
391.3	5326.8	
391.5	4220.2	
391.71	4715.1	
391.91	5115.1	
392.12	5694	
392.32	4366.3	
392.53	3756	
392.73	4658.4	
392.93	4769	
393.14	3507.5	
393.34	4099.4	
393.55	5141.8	
393.75	4768.4	
393.95	3565.5	
394.16	3452.9	
394.36	4586.8	
394.57	5094.7	
394.77	3160	
394.98	3399.6	
395.18	4573.8	
395.38	4581.3	
395.59	4051.6	
395.79	3352.5	
396	4677.6	
396.2	5028.4	
396.4	3958.7	
396.61	3906.8	
396.81	5128.1	
397.02	4608.6	
397.22	4102.8	
397.42	4123.2	
397.63	5197.7	
397.83	4541.7	
398.04	3329.3	
398.24	3618.1	
398.44	4954.7	
398.65	4256.4	
398.85	3168.2	
399.05	3205.8	
399.26	4558.1	
399.46	5800.5	
399.67	3562.1	
399.87	3295.9	
400.07	4850.3	
400.28	5089.9	
400.48	3422.8	
400.69	4116.4	
400.89	5206.6	
401.09	5674.9	
401.3	3274	
401.5	4145.8	
401.7	5775.3	
401.91	5915.9	
402.11	3650.2	
402.32	3756.7	
402.52	5343.8	
402.72	5184.1	
402.93	3935.5	
403.13	3048.1	
403.33	5875.6	
403.54	4886.5	
403.74	3702.7	
403.94	4343.7	
404.15	4956.1	
404.35	5760.9	
404.56	3454.2	
404.76	4786.1	
404.96	5289.2	
405.17	5063.9	
405.37	4328	
405.57	3887.7	
405.78	5299.5	
405.98	4876.2	
406.18	3560.7	
406.39	4172.4	
406.59	5306.3	
406.79	4906.9	
407	3353.2	
407.2	3463.1	
407.4	5494	
407.61	5435.3	
407.81	3495.2	
408.01	5202.5	
408.22	4508.3	
408.42	5916.6	
408.62	4198.3	
408.83	3856.3	
409.03	5068	
409.23	4838	
409.44	3908.9	
409.64	4083	
409.84	5722.7	
410.05	5621.7	
410.25	4003.8	
410.45	3810.6	
410.66	5250.3	
410.86	7020.4	
411.06	4144.4	
411.27	4047.5	
411.47	6766.5	
411.67	5341.8	
411.88	4192.2	
412.08	4328	
412.28	5823.1	
412.49	6194.4	
412.69	4031.1	
412.89	4082.3	
413.09	6065.4	
413.3	5993.7	
413.5	4088.4	
413.7	3861.8	
413.91	5431.9	
414.11	6041.5	
414.31	3976.5	
414.52	4292.5	
414.72	5836	
414.92	5730.9	
415.12	4042	
415.33	4369.7	
415.53	5958.9	
415.73	6187.6	
415.94	4695.3	
416.14	4250.9	
416.34	5334.3	
416.55	5117.9	
416.75	5070.1	
416.95	4681.7	
417.15	6035.4	
417.36	6532.3	
417.56	5373.2	
417.76	4578.6	
417.97	6293.4	
418.17	6097.5	
418.37	4333.5	
418.57	4297.3	
418.78	6011.5	
418.98	5680.4	
419.18	4977.9	
419.38	4905.6	
419.59	5673.6	
419.79	5430.5	
419.99	4228.4	
420.2	4511	
420.4	6142.5	
420.6	6138.4	
420.8	4151.9	
421.01	4015.4	
421.21	5980.1	
421.41	6028.5	
421.61	4459.8	
421.82	4272.1	
422.02	5630.5	
422.22	6291.4	
422.42	4786.1	
422.63	4571.1	
422.83	5683.8	
423.03	6547.4	
423.23	4614.8	
423.44	3795.6	
423.64	5717.9	
423.84	5513.1	
424.04	4183.3	
424.25	3949.2	
424.45	6356.9	
424.65	6285.2	
424.85	3797.6	
425.06	4238.6	
425.26	6505.7	
425.46	5635.3	
425.66	4546.5	
425.87	4366.3	
426.07	6196.5	
426.27	6003.3	
426.47	4469.4	
426.67	4012.7	
426.88	6512.5	
427.08	6093.4	
427.28	4590.9	
427.48	3835.8	
427.69	5294	
427.89	5766.4	
428.09	4625	
428.29	4005.8	
428.5	6204.7	
428.7	5943.2	
428.9	3925.3	
429.1	4255.7	
429.3	5907.7	
429.51	6063.4	
429.71	4199.7	
429.91	4829.1	
430.11	6067.4	
430.31	6217	
430.52	4345.8	
430.72	4578.6	
430.92	6405.4	
431.12	6069.5	
431.32	4134.8	
431.53	4486.4	
431.73	5281.7	
431.93	6571.9	
432.13	4095.9	
432.33	3982.6	
432.54	5660.6	
432.74	5853.8	
432.94	3936.9	
433.14	4730.1	
433.34	6201.9	
433.55	5739.8	
433.75	4709.6	
433.95	5972.6	
434.15	5958.2	
434.35	5633.3	
434.56	4123.9	
434.76	3711.6	
434.96	5928.9	
435.16	6081.1	
435.36	3973.7	
435.56	4885.1	
435.77	5668.1	
435.97	5797.8	
436.17	5431.2	
436.37	4734.2	
436.57	5609.4	
436.78	5581.4	
436.98	6111.8	
437.18	5205.3	
437.38	6125.5	
437.58	5827.8	
437.78	5353.4	
437.99	4328	
438.19	6198.5	
438.39	7180.2	
438.59	4337.6	
438.79	3908.2	
438.99	6674.3	
439.2	5745.2	
439.4	3984	
439.6	4012.7	
439.8	5926.8	
440	6772.6	
440.2	4760.8	
440.4	4835.3	
440.61	6306.4	
440.81	6665.5	
441.01	4164.2	
441.21	4780	
441.41	6659.3	
441.61	6286.6	
441.81	5108.3	
442.02	5830.6	
442.22	7027.9	
442.42	6452.5	
442.62	4244.1	
442.82	4287.8	
443.02	6685.3	
443.22	5977.3	
443.43	4592.9	
443.63	4252.3	
443.83	5877	
444.03	5803.9	
444.23	5180.7	
444.43	4896.7	
444.63	6182.1	
444.83	6991.1	
445.04	4461.8	
445.24	5314.5	
445.44	6449.7	
445.64	6421.7	
445.84	5067.4	
446.04	5001.8	
446.24	5917.9	
446.44	6661.4	
446.65	4360.1	
446.85	4713.7	
447.05	6170.5	
447.25	6617.7	
447.45	4728.8	
447.65	4291.9	
447.85	6217	
448.05	5831.9	
448.25	4989.5	
448.46	4871.4	
448.66	6137.8	
448.86	5862	
449.06	4182	
449.26	4947.9	
449.46	6442.2	
449.66	5792.3	
449.86	4676.2	
450.06	4622.3	
450.26	5924.8	
450.47	6355.5	
450.67	4840.7	
450.87	5101.5	
451.07	6492.1	
451.27	6243.6	
451.47	4368.3	
451.67	4775.9	
451.87	5994.4	
452.07	6859.3	
452.27	4561.5	
452.47	4478.9	
452.67	6200.6	
452.88	6587.6	
453.08	4030.4	
453.28	5534.3	
453.48	7137.9	
453.68	6130.9	
453.88	4481	
454.08	4612.7	
454.28	6479.8	
454.48	6206.7	
454.68	5035.3	
454.88	5421	
455.08	6640.2	
455.28	6311.2	
455.48	4443.4	
455.68	4898.1	
455.89	6964.5	
456.09	6667.5	
456.29	4683	
456.49	4807.9	
456.69	6886	
456.89	6279.1	
457.09	5100.1	
457.29	5332.2	
457.49	6602	
457.69	6598.6	
457.89	4977.9	
458.09	4481	
458.29	6410.1	
458.49	6941.2	
458.69	5280.3	
458.89	4886.5	
459.09	7112.6	
459.29	7235.5	
459.49	4876.2	
459.69	5552	
459.9	6756.9	
460.1	6410.1	
460.3	4842.8	
460.5	4682.3	
460.7	6774	
460.9	6488.6	
461.1	4482.3	
461.3	5329.5	
461.5	7279.8	
461.7	6954.9	
461.9	4819.6	
462.1	5205.3	
462.3	6604.7	
462.5	7049.1	
462.7	4829.8	
462.9	4952.7	
463.1	7827.3	
463.3	7533.1	
463.5	5086.5	
463.7	5892	
463.9	6821.8	
464.1	7032	
464.3	5292.6	
464.5	5402.5	
464.7	7281.2	
464.9	6991.8	
465.1	6367.1	
465.3	5664.7	
465.5	7456	
465.7	7531.7	
465.9	5870.8	
466.1	5703.6	
466.3	7338.6	
466.5	7249.1	
466.7	6374	
466.9	5631.2	
467.1	7368.6	
467.3	7899.7	
467.5	6343.9	
467.7	5526.1	
467.9	8088.8	
468.1	8717.5	
468.3	6112.5	
468.5	6520	
468.7	7225.2	
468.9	7225.2	
469.1	5769.8	
469.3	6167.8	
469.5	8720.3	
469.7	6988.4	
469.9	6059.3	
470.1	5658.5	
470.3	7395.2	
470.5	7373.4	
470.7	6551.5	
470.9	5606.7	
471.1	7111.2	
471.3	7458	
471.5	5549.3	
471.69	6906.4	
471.89	7134.4	
472.09	6645	
472.29	6145.3	
472.49	6341.2	
472.69	6862.7	
472.89	7370	
473.09	5558.9	
473.29	5586.2	
473.49	7017.7	
473.69	7090.1	
473.89	6251.1	
474.09	5612.8	
474.29	7975.5	
474.49	7749.5	
474.69	6197.2	
474.89	5756.8	
475.09	7088.7	
475.29	7108.5	
475.49	5455.8	
475.69	5509	
475.88	8258.1	
476.08	7453.9	
476.28	5274.2	
476.48	5539.1	
476.68	7712.7	
476.88	7566.6	
477.08	5626.5	
477.28	5713.8	
477.48	7154.9	
477.68	7604.1	
477.88	5381.4	
478.08	5603.2	
478.28	7925	
478.48	7262.8	
478.67	5687.9	
478.87	5174.5	
479.07	7780.9	
479.27	7279.8	
479.47	5844.2	
479.67	5859.9	
479.87	7595.9	
480.07	7970.7	
480.27	5313.1	
480.47	6479.1	
480.67	7328.3	
480.87	7792.5	
481.06	5536.3	
481.26	6143.9	
481.46	7374.1	
481.66	7302.4	
481.86	5939.8	
482.06	6626.5	
482.26	7180.2	
482.46	7779.6	
482.66	5726.8	
482.86	5497.4	
483.05	7460.1	
483.25	6874.3	
483.45	7640.3	
483.65	5738.4	
483.85	6940.6	
484.05	7289.4	
484.25	6161.7	
484.45	6496.8	
484.65	7888.1	
484.84	7849.9	
485.04	5788.2	
485.24	5803.9	
485.44	8198	
485.64	6916	
485.84	5214.1	
486.04	6268.8	
486.24	7245.7	
486.44	7441.6	
486.63	5328.8	
486.83	5933	
487.03	7154.2	
487.23	7298.3	
487.43	5366.4	
487.63	7045	
487.83	7415	
488.02	8011.7	
488.22	6001.2	
488.42	6516.6	
488.62	8041.7	
488.82	7202.7	
489.02	5839.4	
489.22	5780.1	
489.41	7856.7	
489.61	7676.5	
489.81	5631.9	
490.01	5666.7	
490.21	7867.6	
490.41	8423.3	
490.61	5646.2	
490.8	5766.4	
491	7557	
491.2	7046.4	
491.4	6198.5	
491.6	5513.1	
491.8	7581.6	
491.99	7531.1	
492.19	5377.3	
492.39	5671.5	
492.59	7926.3	
492.79	7901.7	
492.99	6305.7	
493.18	5550.7	
493.38	8009.6	
493.58	8488.8	
493.78	6106.4	
493.98	5847	
494.18	7775.5	
494.37	7363.1	
494.57	6379.4	
494.77	6333.7	
494.97	8023.3	
495.17	8135.9	
495.37	6050.4	
495.56	6270.2	
495.76	8323.6	
495.96	8147.5	
496.16	7015	
496.36	6212.9	
496.55	8236.2	
496.75	7852.6	
496.95	6552.8	
497.15	6424.5	
497.35	8311.3	
497.54	8204.2	
497.74	6275	
497.94	7552.2	
498.14	8781.7	
498.34	8576.2	
498.53	6113.9	
498.73	6647.7	
498.93	7824.6	
499.13	8257.4	
499.33	6509.1	
499.52	6935.8	
499.72	8394.6	
499.92	8479.3	
500.12	6359.6	
500.32	6554.2	
500.51	8478.6	
500.71	8262.2	
500.91	7041.6	
501.11	6780.1	
501.31	8473.8	
501.5	8762.6	
501.7	7324.2	
501.9	6537.8	
502.1	8310	
502.29	8502.5	
502.49	7030.7	
502.69	7264.1	
502.89	8441.7	
503.09	8425.3	
503.28	6181.5	
503.48	6383.5	
503.68	7943.4	
503.88	7870.3	
504.07	6994.5	
504.27	6622.4	
504.47	8222.6	
504.67	8271.7	
504.86	6931	
505.06	6607.4	
505.26	7983	
505.46	9272.5	
505.65	6645.7	
505.85	6771.9	
506.05	7970	
506.25	8318.2	
506.44	6117.3	
506.64	6808.8	
506.84	7768.6	
507.04	8420.6	
507.23	6237.4	
507.43	6735.1	
507.63	9246.6	
507.83	7927.7	
508.02	6692.1	
508.22	6408.1	
508.42	9465	
508.62	7787.7	
508.81	6559	
509.01	7066.2	
509.21	7838.3	
509.4	8038.3	
509.6	6735.8	
509.8	6328.9	
510	7980.9	
510.19	8965.3	
510.39	6227.2	
510.59	6331	
510.79	7877.9	
510.98	8797.4	
511.18	6516.6	
511.38	6439.5	
511.57	8512	
511.77	8289.5	
511.97	7004.1	
512.17	6292.7	
512.36	8424	
512.56	8333.2	
512.76	6310.5	
512.95	6080.4	
513.15	8581.7	
513.35	7484	
513.55	6877.8	
513.74	6347.3	
513.94	8573.5	
514.14	7975.5	
514.33	7075	
514.53	6873.7	
514.73	8096.3	
514.92	8202.1	
515.12	6451.8	
515.32	6320.7	
515.51	8295.6	
515.71	8585.8	
515.91	7773.4	
516.11	6421.1	
516.3	9439.8	
516.5	8006.9	
516.7	6851.1	
516.89	7245.7	
517.09	8110.6	
517.29	8021.2	
517.48	7232.7	
517.68	6703.7	
517.88	7877.2	
518.07	8361.2	
518.27	6977.4	
518.47	6378.1	
518.66	8816.5	
518.86	7789.1	
519.06	6148.7	
519.25	6528.2	
519.45	7989.8	
519.65	9103.2	
519.84	7049.8	
520.04	7541.3	
520.24	9504.6	
520.43	8583.7	
520.63	6868.9	
520.83	6632.7	
521.02	8056.7	
521.22	8507.9	
521.42	7101	
521.61	7460.1	
521.81	8149.6	
522.01	8279.3	
522.2	6920.1	
522.4	6696.9	
522.6	8723.7	
522.79	7638.2	
522.99	6770.6	
523.18	6356.2	
523.38	8443.8	
523.58	8460.8	
523.77	7747.5	
523.97	6449.7	
524.17	9871.2	
524.36	9320.3	
524.56	7423.2	
524.76	7193.1	
524.95	8578.9	
525.15	8414.4	
525.34	7059.3	
525.54	7106.5	
525.74	8940.1	
525.93	8221.2	
526.13	8097	
526.33	7150.1	
526.52	9262.3	
526.72	8903.2	
526.91	8122.2	
527.11	7533.8	
527.31	9323.7	
527.5	9620.7	
527.7	7477.8	
527.89	6777.4	
528.09	8605.6	
528.29	9057.5	
528.48	7925	
528.68	7484.6	
528.87	9288.2	
529.07	9335.3	
529.27	7559.1	
529.46	7296.9	
529.66	9159.9	
529.85	9453.4	
530.05	7152.2	
530.25	7677.8	
530.44	10228	
530.64	9115.5	
530.83	7513.3	
531.03	7683.3	
531.23	9521.7	
531.42	9273.2	
531.62	8154.3	
531.81	7580.9	
532.01	9663.7	
532.21	9828.2	
532.4	7583.6	
532.6	7858.7	
532.79	10267	
532.99	9729.9	
533.18	7889.5	
533.38	8668.4	
533.58	9448	
533.77	9916.3	
533.97	8026	
534.16	8531.8	
534.36	10162	
534.55	9463.7	
534.75	8647.2	
534.95	8085.4	
535.14	10226	
535.34	9482.1	
535.53	7777.5	
535.73	9269.8	
535.92	10605	
536.12	9590	
536.31	7874.4	
536.51	8880	
536.71	9967.5	
536.9	9586.5	
537.1	8027.4	
537.29	8172.8	
537.49	10183	
537.68	9470.5	
537.88	8490.2	
538.07	7798.7	
538.27	9779.7	
538.46	10536	
538.66	7755.7	
538.86	8125.7	
539.05	9712.8	
539.25	10190	
539.44	8469.7	
539.64	8007.6	
539.83	9747.6	
540.03	10362	
540.22	8017.8	
540.42	8069.7	
540.61	9867.8	
540.81	9907.4	
541	8316.8	
541.2	8898.4	
541.39	9413.8	
541.59	9675.3	
541.78	8668.4	
541.98	7926.3	
542.18	9258.9	
542.37	9296.4	
542.57	8263.6	
542.76	8630.8	
542.96	9292.3	
543.15	9783.8	
543.35	8213.7	
543.54	7693.5	
543.74	9927.2	
543.93	9646.6	
544.13	8163.2	
544.32	9013.1	
544.52	9951.8	
544.71	9275.3	
544.91	7477.1	
545.1	8377.6	
545.3	9450	
545.49	9829.6	
545.69	7421.2	
545.88	7894.9	
546.08	10484	
546.27	10167	
546.47	8279.3	
546.66	7772.7	
546.86	9956.5	
547.05	10364	
547.24	7904.5	
547.44	7841	
547.63	9248.6	
547.83	9978.4	
548.02	8060.8	
548.22	8286.8	
548.41	9085.5	
548.61	10025	
548.8	7694.2	
549	7741.3	
549.19	9602.9	
549.39	9811.1	
549.58	7518.1	
549.78	7897	
549.97	9772.2	
550.17	9421.3	
550.36	8563.9	
550.55	9232.2	
550.75	9342.8	
550.94	10120	
551.14	7649.8	
551.33	7963.9	
551.53	8993.3	
551.72	9672.6	
551.92	7903.8	
552.11	7803.4	
552.31	9715.6	
552.5	9700.5	
552.69	9062.9	
552.89	7473.7	
553.08	9630.2	
553.28	9363.3	
553.47	7722.9	
553.67	8593.3	
553.86	10081	
554.06	8869.8	
554.25	7297.6	
554.44	7593.2	
554.64	10690	
554.83	10192	
555.03	7529.7	
555.22	7906.5	
555.42	9792.7	
555.61	9575.6	
555.8	7675.8	
556	7851.9	
556.19	8962.6	
556.39	9694.4	
556.58	7780.9	
556.78	7750.2	
556.97	9531.2	
557.16	9317.6	
557.36	8645.2	
557.55	7469.6	
557.75	8637	
557.94	10060	
558.13	7643.7	
558.33	7324.2	
558.52	9837.1	
558.72	8987.2	
558.91	7449.8	
559.1	7628.7	
559.3	8805.6	
559.49	8630.1	
559.69	7139.2	
559.88	7814.4	
560.07	9365.4	
560.27	9779.7	
560.46	8071.7	
560.66	8026	
560.85	9243.8	
561.04	8588.5	
561.24	7328.3	
561.43	7553.6	
561.63	8776.9	
561.82	9108	
562.01	8236.9	
562.21	7689.4	
562.4	9328.5	
562.59	10008	
562.79	7644.4	
562.98	7385	
563.18	9153.7	
563.37	10344	
563.56	7937.2	
563.76	7327.6	
563.95	8948.9	
564.14	8838.4	
564.34	7639.6	
564.53	7400.7	
564.73	9332.6	
564.92	9531.2	
565.11	7729.7	
565.31	7274.4	
565.5	9673.2	
565.69	8842.4	
565.89	7370.6	
566.08	7640.3	
566.27	9592	
566.47	9855.5	
566.66	8053.3	
566.85	7236.8	
567.05	9301.2	
567.24	8929.1	
567.44	7388.4	
567.63	8419.2	
567.82	9404.3	
568.02	9138.7	
568.21	7437.5	
568.4	7742.7	
568.6	9197.4	
568.79	9127.1	
568.98	7375.4	
569.18	7336.5	
569.37	9199.5	
569.56	10602	
569.76	7796.6	
569.95	8447.2	
570.14	9581.8	
570.34	9357.9	
570.53	7311.2	
570.72	7284.6	
570.91	9811.8	
571.11	9229.5	
571.3	7761.1	
571.49	8414.4	
571.69	9243.8	
571.88	8892.3	
572.07	8159.1	
572.27	7959.1	
572.46	8826.7	
572.65	9615.2	
572.85	7488.1	
573.04	7743.4	
573.23	9835	
573.43	9346.9	
573.62	7359	
573.81	7784.3	
574	9405	
574.2	9123.7	
574.39	7685.3	
574.58	7694.2	
574.78	9966.8	
574.97	9475.3	
575.16	8045.1	
575.36	8202.8	
575.55	9841.9	
575.74	9754.5	
575.93	7459.4	
576.13	8114.7	
576.32	9301.2	
576.51	9656.2	
576.71	7776.1	
576.9	8697.7	
577.09	9955.2	
577.28	9516.2	
577.48	8073.8	
577.67	7314.7	
577.86	9349	
578.05	9499.2	
578.25	7818.5	
578.44	7913.4	
578.63	9357.9	
578.83	10318	
579.02	7392.5	
579.21	8568	
579.4	9510.1	
579.6	9301.2	
579.79	7861.5	
579.98	9501.9	
580.17	9724.4	
580.37	9867.1	
580.56	7537.2	
580.75	8125.7	
580.94	10032	
581.14	10054	
581.33	8329.8	
581.52	7623.2	
581.71	9650	
581.91	10194	
582.1	7411.6	
582.29	7929.7	
582.48	9354.4	
582.68	9361.3	
582.87	8203.5	
583.06	7951.6	
583.25	9685.5	
583.45	9211.8	
583.64	8461.5	
583.83	8870.4	
584.02	9286.2	
584.21	9603.6	
584.41	8360.5	
584.6	7856	
584.79	9501.9	
584.98	10002	
585.18	7481.2	
585.37	7516.7	
585.56	9182.4	
585.75	9738.1	
585.94	7587.7	
586.14	8198	
586.33	10109	
586.52	9374.2	
586.71	8037.6	
586.91	7742.7	
587.1	8844.5	
587.29	9706.7	
587.48	7617.1	
587.67	7626.6	
587.87	9638.4	
588.06	9457.5	
588.25	8574.2	
588.44	8000.7	
588.63	9186.5	
588.83	9620	
589.02	7696.9	
589.21	7516	
589.4	9119.6	
589.59	9007.6	
589.78	6938.5	
589.98	7043	
590.17	8656.1	
590.36	8998.1	
590.55	6563.7	
590.74	7062.1	
590.94	9788.6	
591.13	8824.7	
591.32	6976.7	
591.51	6658.6	
591.7	9090.9	
591.89	8766	
592.09	6697.5	
592.28	7015	
592.47	8149.6	
592.66	9647.3	
592.85	6730.3	
593.05	6886.6	
593.24	8683.4	
593.43	9298.5	
593.62	7026.6	
593.81	7339.2	
594	8779.6	
594.19	8832.9	
594.39	6832.7	
594.58	6881.9	
594.77	8853.4	
594.96	9309.4	
595.15	6845.7	
595.34	7359.7	
595.54	8862.9	
595.73	8354.3	
595.92	6413.6	
596.11	7208.8	
596.3	9202.9	
596.49	8279.9	
596.68	7006.1	
596.88	7241.6	
597.07	8996	
597.26	8097.7	
597.45	6599.2	
597.64	7466.9	
597.83	8394.6	
598.02	8817.9	
598.22	6728.3	
598.41	7153.6	
598.6	8667.7	
598.79	8143.4	
598.98	6667.5	
599.17	7348.1	
599.36	8637.6	
599.55	9441.8	
599.74	8196.7	
599.94	7961.8	
600.13	8984.4	
600.32	8221.9	
600.51	6531.7	
600.7	6595.1	
600.89	9493.7	
601.08	9460.3	
601.27	6516	
601.47	7131.7	
601.66	8920.3	
601.85	9426.8	
602.04	7042.3	
602.23	7053.9	
602.42	8236.9	
602.61	8726.4	
602.8	6873.7	
602.99	6673.6	
603.18	8448.6	
603.37	8624.7	
603.57	7111.9	
603.76	7539.9	
603.95	9168.1	
604.14	8725	
604.33	6804.7	
604.52	6910.5	
604.71	8701.8	
604.9	8241.7	
605.09	7456	
605.28	7403.4	
605.47	9081.4	
605.66	8750.3	
605.86	7111.9	
606.05	6790.4	
606.24	9095	
606.43	7905.8	
606.62	6930.3	
606.81	7535.2	
607	8949.6	
607.19	8383.7	
607.38	6441.5	
607.57	6661.4	
607.76	8254.7	
607.95	7827.3	
608.14	7138.5	
608.33	7429.3	
608.52	8202.1	
608.72	8884.8	
608.91	6468.9	
609.1	6308.4	
609.29	8305.9	
609.48	7940.7	
609.67	7112.6	
609.86	6405.4	
610.05	7987.8	
610.24	8224	
610.43	6277	
610.62	6055.8	
610.81	9036.3	
611	8943.5	
611.19	6410.1	
611.38	6967.9	
611.57	8489.5	
611.76	9331.2	
611.95	6187.6	
612.14	6119.3	
612.33	8293.6	
612.52	7923.6	
612.71	6625.2	
612.9	6012.2	
613.09	7644.4	
613.28	9408.4	
613.47	6554.9	
613.66	7117.4	
613.85	8331.8	
614.04	7856	
614.24	6447	
614.43	5792.3	
614.62	8410.3	
614.81	8303.1	
615	6879.1	
615.19	6841.6	
615.38	7884	
615.57	8204.8	
615.76	6697.5	
615.95	7468.3	
616.14	8469	
616.33	8186.4	
616.52	7060.7	
616.71	7084.6	
616.9	8442.4	
617.09	8310.7	
617.28	6477	
617.47	7410.9	
617.66	7818.5	
617.85	7770.7	
618.04	7183.6	
618.22	6743.3	
618.41	8113.4	
618.6	8779.6	
618.79	6694.1	
618.98	6548.7	
619.17	8997.4	
619.36	7651.9	
619.55	6717.3	
619.74	6695.5	
619.93	8418.5	
620.12	8003.5	
620.31	7146.7	
620.5	7172.7	
620.69	9133.3	
620.88	9173.5	
621.07	7733.1	
621.26	7022.5	
621.45	8559.1	
621.64	8549.6	
621.83	7095.5	
622.02	6529.6	
622.21	8627.4	
622.4	8499.1	
622.59	7526.3	
622.78	7466.9	
622.97	8167.3	
623.16	8844.5	
623.35	7161.1	
623.54	6438.8	
623.72	8386.4	
623.91	8467	
624.1	7260.7	
624.29	6339.1	
624.48	9223.4	
624.67	8632.9	
624.86	7241.6	
625.05	6586.3	
625.24	9355.1	
625.43	8174.8	
625.62	8413.7	
625.81	6642.9	
626	8806.9	
626.19	8482.7	
626.38	7255.3	
626.56	6905.1	
626.75	8271.1	
626.94	8806.3	
627.13	7345.4	
627.32	6307.1	
627.51	8731.9	
627.7	9522.4	
627.89	6476.4	
628.08	7304.4	
628.27	8127.7	
628.46	8314.1	
628.65	6595.1	
628.83	6435.4	
629.02	8662.2	
629.21	8190.5	
629.4	6965.1	
629.59	7094.2	
629.78	8213.7	
629.97	8826.1	
630.16	7106.5	
630.35	6767.2	
630.54	9214.5	
630.72	9016.5	
630.91	6847.7	
631.1	7132.4	
631.29	8586.5	
631.48	8550.3	
631.67	7173.4	
631.86	6823.8	
632.05	8275.2	
632.24	8345.5	
632.42	6559.6	
632.61	7037.5	
632.8	8406.9	
632.99	8030.8	
633.18	7010.9	
633.37	7316	
633.56	8560.5	
633.75	8502.5	
633.93	7075	
634.12	6874.3	
634.31	9253.4	
634.5	8892.3	
634.69	6894.8	
634.88	7257.3	
635.07	8381	
635.25	8832.2	
635.44	7559.7	
635.63	7617.1	
635.82	8233.5	
636.01	7716.7	
636.2	7503.8	
636.39	7025.9	
636.57	9207	
636.76	8832.9	
636.95	6655.2	
637.14	7702.4	
637.33	8604.9	
637.52	9189.2	
637.7	6496.8	
637.89	7271.7	
638.08	8305.9	
638.27	9295	
638.46	7221.8	
638.65	7593.9	
638.83	9327.1	
639.02	8181.6	
639.21	7163.8	
639.4	7464.8	
639.59	8521.6	
639.78	8148.2	
639.96	6665.5	
640.15	6582.9	
640.34	8298.4	
640.53	8389.2	
640.72	6477	
640.91	6597.2	
641.09	7846.5	
641.28	8856.1	
641.47	6640.9	
641.66	7217	
641.85	8344.1	
642.03	8551.6	
642.22	6972.7	
642.41	6692.8	
642.6	7955	
642.79	7516	
642.97	6451.1	
643.16	6964.5	
643.35	7912.7	
643.54	7709.2	
643.73	6370.5	
643.91	6970.6	
644.1	7660.1	
644.29	8117.5	
644.48	6370.5	
644.67	6464.1	
644.85	7788.4	
645.04	8049.9	
645.23	6135.7	
645.42	6415.6	
645.6	7643.7	
645.79	8452	
645.98	6240.2	
646.17	5587.5	
646.36	7378.1	
646.54	7823.2	
646.73	6839.5	
646.92	5990.3	
647.11	7529	
647.29	8279.3	
647.48	5962.3	
647.67	5784.1	
647.86	8463.6	
648.05	8512	
648.23	6156.9	
648.42	7139.2	
648.61	7891.5	
648.8	7653.9	
648.98	5917.9	
649.17	6184.9	
649.36	7426.6	
649.55	7094.8	
649.73	5917.3	
649.92	6482.5	
650.11	7349.5	
650.3	7668.3	
650.48	6087.2	
650.67	5775.3	
650.86	7710.6	
651.05	7022.5	
651.23	5935.7	
651.42	5889.3	
651.61	7350.2	
651.79	7374.1	
651.98	6153.5	
652.17	5796.4	
652.36	7701	
652.54	7027.9	
652.73	5836.7	
652.92	5752.1	
653.11	7716.7	
653.29	7760.4	
653.48	5356.8	
653.67	5988.3	
653.85	7468.9	
654.04	8190.5	
654.23	6122.7	
654.42	5843.5	
654.6	7083.2	
654.79	7561.1	
654.98	5468.8	
655.16	5791	
655.35	6799.9	
655.54	6646.3	
655.73	5494	
655.91	5275.6	
656.1	7434.1	
656.29	6550.8	
656.47	5045.5	
656.66	6313.9	
656.85	6847	
657.03	6956.9	
657.22	5445.5	
657.41	5526.1	
657.59	7017	
657.78	6795.8	
657.97	5258.5	
658.16	5839.4	
658.34	7552.2	
658.53	7789.8	
658.72	6391	
658.9	6825.2	
659.09	7064.8	
659.28	7153.6	
659.46	5547.9	
659.65	5519.3	
659.84	6910.5	
660.02	7367.9	
660.21	5561.6	
660.4	5431.2	
660.58	7643	
660.77	7131	
660.96	5909.1	
661.14	5165.7	
661.33	7968.6	
661.52	7872.4	
661.7	5098.1	
661.89	7625.3	
662.08	6840.2	
662.26	6434.7	
662.45	5393	
662.64	5383.4	
662.82	7402	
663.01	6712.6	
663.2	5416.9	
663.38	6017.6	
663.57	7243.7	
663.75	7154.9	
663.94	5689.3	
664.13	6554.9	
664.31	6809.5	
664.5	7321.5	
664.69	5926.8	
664.87	6143.9	
665.06	6578.1	
665.25	7105.8	
665.43	6356.9	
665.62	6391	
665.8	7324.9	
665.99	6892.1	
666.18	5642.8	
666.36	5668.1	
666.55	7345.4	
666.74	7281.9	
666.92	5348.6	
667.11	6475.7	
667.29	6985.6	
667.48	7279.8	
667.67	6200.6	
667.85	5484.5	
668.04	6843.6	
668.22	6866.2	
668.41	5664.7	
668.6	5826.5	
668.78	6705	
668.97	6900.3	
669.15	5861.3	
669.34	5082.4	
669.53	6653.2	
669.71	6953.5	
669.9	5294.7	
670.08	5721.3	
670.27	6668.2	
670.46	7144	
670.64	5935	
670.83	6094.1	
671.01	6554.2	
671.2	7051.8	
671.38	5285.1	
671.57	5205.3	
671.76	7556.3	
671.94	7847.8	
672.13	5185.5	
672.31	5967.1	
672.5	7266.9	
672.69	6697.5	
672.87	5309.7	
673.06	5568.4	
673.24	7051.8	
673.43	6731.7	
673.61	5728.9	
673.8	5457.8	
673.98	7182.9	
674.17	7247.8	
674.36	5963.7	
674.54	5785.5	
674.73	6952.9	
674.91	7203.4	
675.1	5572.5	
675.28	5276.3	
675.47	6834.8	
675.65	7214.3	
675.84	5481.7	
676.03	5692.7	
676.21	6731	
676.4	6341.9	
676.58	6080.4	
676.77	5968.5	
676.95	7824.6	
677.14	6699.6	
677.32	5203.2	
677.51	5167	
677.69	7273	
677.88	6443.6	
678.06	5175.2	
678.25	5251	
678.44	6867.5	
678.62	6645	
678.81	5046.9	
678.99	5745.9	
679.18	7466.2	
679.36	7168.6	
679.55	5507.7	
679.73	5883.1	
679.92	7123.5	
680.1	6697.5	
680.29	6441.5	
680.47	5487.9	
680.66	6707.8	
680.84	7149.5	
681.03	4996.4	
681.21	5911.8	
681.4	6718.7	
681.58	6543.9	
681.77	5227.1	
681.95	5229.8	
682.14	7314.7	
682.32	7550.2	
682.51	5983.5	
682.69	5107	
682.88	6645	
683.06	7051.8	
683.25	5744.6	
683.43	6025.8	
683.62	6940.6	
683.8	7175.4	
683.99	6197.2	
684.17	5652.4	
684.36	7733.8	
684.54	6874.3	
684.73	5137.7	
684.91	5227.1	
685.1	7017.7	
685.28	6487.3	
685.46	5575.3	
685.65	5525.4	
685.83	7026.6	
686.02	6648.4	
686.2	5143.8	
686.39	5252.4	
686.57	6326.2	
686.76	7494.9	
686.94	5160.9	
687.13	5335.6	
687.31	6949.4	
687.5	6746	
687.68	4956.1	
687.86	5795.8	
688.05	8056	
688.23	6333.7	
688.42	5894.1	
688.6	5358.9	
688.79	6662	
688.97	6732.4	
689.16	5657.2	
689.34	4807.3	
689.52	7271	
689.71	7459.4	
689.89	5946.6	
690.08	5367	
690.26	6997.9	
690.45	6836.8	
690.63	6052.4	
690.81	5564.3	
691	6949.4	
691.18	6799.3	
691.37	5721.3	
691.55	7215.7	
691.74	6755.6	
691.92	8270.4	
692.1	5665.4	
692.29	5282.4	
692.47	6978.8	
692.66	6489.3	
692.84	5457.8	
693.02	5927.5	
693.21	6581.5	
693.39	6916.7	
693.58	6006.7	
693.76	5584.8	
693.94	7857.4	
694.13	7636.9	
694.31	5642.8	
694.5	6346.7	
694.68	6931.7	
694.86	7260	
695.05	5954.1	
695.23	6002.6	
695.42	7495.6	
695.6	9165.3	
695.78	6432	
695.97	5776.6	
696.15	7654.6	
696.34	7140.6	
696.52	5677.7	
696.7	6326.9	
696.89	7397.9	
697.07	6932.4	
697.25	6266.1	
697.44	7305.8	
697.62	7510.6	
697.81	7768.6	
697.99	6051.7	
698.17	6404	
698.36	7052.5	
698.54	7532.4	
698.72	6364.4	
698.91	5529.5	
699.09	7262.1	
699.28	7124.9	
699.46	6042.9	
699.64	5892.7	
699.83	7088.7	
700.01	7836.9	
700.19	6537.8	
700.38	5482.4	
700.56	8015.1	
700.74	7222.5	
700.93	5687.9	
701.11	6334.4	
701.29	7671.7	
701.48	8423.3	
701.66	5948	
701.84	6102.9	
702.03	7479.9	
702.21	7983	
702.39	5741.1	
702.58	6167.1	
702.76	7853.3	
702.94	7808.9	
703.13	5766.4	
703.31	7544	
703.49	7335.8	
703.68	8405.5	
703.86	5921.4	
704.04	6614.9	
704.23	7691.5	
704.41	7984.3	
704.59	6161	
704.78	6903.7	
704.96	8921.6	
705.14	8019.2	
705.33	5976.7	
705.51	6574	
705.69	7589.1	
705.87	8301.1	
706.06	6849.8	
706.24	5933	
706.42	7903.1	
706.61	8060.8	
706.79	6862.7	
706.97	6072.2	
707.16	7509.9	
707.34	7931.8	
707.52	6775.4	
707.7	6208.1	
707.89	7556.3	
708.07	7416.4	
708.25	6873	
708.44	7008.1	
708.62	7494.2	
708.8	8365.3	
708.98	6995.2	
709.17	6330.3	
709.35	7840.3	
709.53	7881.3	
709.72	6154.8	
709.9	6404.7	
710.08	8115.4	
710.26	8154.3	
710.45	7312.6	
710.63	6429.3	
710.81	7795.9	
710.99	7851.2	
711.18	6864.1	
711.36	6494.1	
711.54	7779.6	
711.72	8292.9	
711.91	6511.2	
712.09	6202.6	
712.27	7947.5	
712.45	8245.1	
712.64	6685.9	
712.82	5937.1	
713	7360.4	
713.18	7502.4	
713.37	5963	
713.55	6849.1	
713.73	8075.8	
713.91	7112.6	
714.1	6060.6	
714.28	5747.3	
714.46	7755	
714.64	7053.9	
714.83	5260.5	
715.01	5745.9	
715.19	6995.9	
715.37	6453.1	
715.55	5481.7	
715.74	5597.8	
715.92	7569.3	
716.1	6079.7	
716.28	6410.1	
716.47	5691.3	
716.65	6610.2	
716.83	6608.8	
717.01	5576.6	
717.19	5599.8	
717.38	8217.8	
717.56	6377.4	
717.74	5729.5	
717.92	5163.6	
718.1	7320.8	
718.29	6733.7	
718.47	4927.4	
718.65	5479.7	
718.83	7401.4	
719.01	7428.7	
719.2	4941.1	
719.38	5877.7	
719.56	7236.2	
719.74	8404.2	
719.92	5597.1	
720.11	6372.6	
720.29	7350.2	
720.47	6632.7	
720.65	5206.6	
720.83	5761.6	
721.02	6781.5	
721.2	6596.5	
721.38	5791	
721.56	5246.2	
721.74	6225.1	
721.92	6360.3	
722.11	6034	
722.29	5851	
722.47	7244.3	
722.65	6675.7	
722.83	5167.7	
723.01	5750.7	
723.2	6703	
723.38	6922.1	
723.56	4788.8	
723.74	5524.1	
723.92	6376	
724.1	7154.2	
724.29	5142.4	
724.47	6014.9	
724.65	6537.8	
724.83	6376	
725.01	5010.7	
725.19	5611.4	
725.37	6317.3	
725.56	6329.6	
725.74	4992.3	
725.92	5098.1	
726.1	6372.6	
726.28	6553.5	
726.46	5460.6	
726.64	5201.8	
726.83	6613.6	
727.01	6724.2	
727.19	4953.4	
727.37	5520.6	
727.55	6680.5	
727.73	7016.3	
727.91	4897.4	
728.09	4855.1	
728.28	7032	
728.46	7281.9	
728.64	5591.6	
728.82	5584.1	
729	7875.8	
729.18	7344	
729.36	5068	
729.54	6665.5	
729.72	8130.4	
729.91	6920.8	
730.09	6541.2	
730.27	5625.8	
730.45	6772.6	
730.63	7239.6	
730.81	6077	
730.99	5414.1	
731.17	7739.3	
731.35	6647.7	
731.53	5689.3	
731.71	5540.4	
731.9	7472.4	
732.08	7492.2	
732.26	5584.1	
732.44	5390.3	
732.62	7566.6	
732.8	7205.4	
732.98	6022.4	
733.16	5274.9	
733.34	7196.6	
733.52	6204.7	
733.7	5603.9	
733.88	5748.6	
734.07	7023.2	
734.25	6914.6	
734.43	5185.5	
734.61	6227.9	
734.79	7968	
734.97	6839.5	
735.15	5384.8	
735.33	5528.8	
735.51	7114.6	
735.69	6739.2	
735.87	6337.1	
736.05	5673.6	
736.23	6854.6	
736.41	6658.6	
736.59	5507	
736.77	5593	
736.95	7222.5	
737.13	6655.9	
737.32	5292	
737.5	5418.9	
737.68	7609.6	
737.86	6627.9	
738.04	5111.7	
738.22	6368.5	
738.4	6490	
738.58	6758.3	
738.76	5477.6	
738.94	4698	
739.12	6611.5	
739.3	6567.8	
739.48	5863.3	
739.66	5707.7	
739.84	6774.7	
740.02	6743.3	
740.2	4831.8	
740.38	5017.5	
740.56	6983.6	
740.74	6166.4	
740.92	5545.2	
741.1	5448.3	
741.28	6516	
741.46	6382.2	
741.64	5186.8	
741.82	5578	
742	6612.9	
742.18	6511.9	
742.36	5268.1	
742.54	4958.1	
742.72	6984.9	
742.9	6027.9	
743.08	5489.9	
743.26	4615.4	
743.44	7110.5	
743.62	6937.2	
743.8	5539.1	
743.98	4891.9	
744.16	6668.2	
744.34	6472.3	
744.52	5477.6	
744.7	5453.7	
744.88	6810.2	
745.06	6366.5	
745.24	5412.8	
745.42	5518.6	
745.6	6874.3	
745.78	6648.4	
745.96	4663.9	
746.14	4823.6	
746.32	7343.3	
746.5	6677.1	
746.68	5313.8	
746.86	4844.1	
747.03	6984.9	
747.21	5802.6	
747.39	5250.3	
747.57	4769	
747.75	6410.1	
747.93	6610.8	
748.11	4661.2	
748.29	4745.8	
748.47	7551.5	
748.65	6163	
748.83	5296	
749.01	5043.5	
749.19	6568.5	
749.37	5861.3	
749.55	4982	
749.73	4980	
749.91	6360.3	
750.09	6096.8	
750.26	5030.5	
750.44	4528.1	
750.62	6382.2	
750.8	6136.4	
750.98	4481.6	
751.16	4737.6	
751.34	6343.2	
751.52	5820.3	
751.7	5296.7	
751.88	4456.4	
752.06	6627.2	
752.24	6408.1	
752.42	4385.4	
752.59	4657.8	
752.77	6173.9	
752.95	7114.6	
753.13	5214.1	
753.31	4756.1	
753.49	5990.3	
753.67	6270.9	
753.85	4948.6	
754.03	4570.4	
754.21	6378.1	
754.38	6677.1	
754.56	4663.9	
754.74	3939.6	
754.92	5746.6	
755.1	6238.8	
755.28	3881.6	
755.46	3846.1	
755.64	6711.9	
755.82	6717.3	
755.99	3935.5	
756.17	3869.3	
756.35	4706.9	
756.53	5888.6	
756.71	3003.7	
756.89	3687.7	
757.07	5496.1	
757.25	4840	
757.42	4151.9	
757.6	4803.9	
757.78	5634	
757.96	4960.9	
758.14	4042.7	
758.32	3631.7	
758.5	4638	
758.67	5193	
758.85	3805.1	
759.03	3890.5	
759.21	5397.8	
759.39	4945.8	
759.57	3442.6	
759.75	4343.1	
759.92	5780.1	
760.1	5421	
760.28	4596.3	
760.46	4884.4	
760.64	5212.8	
760.82	5066.7	
760.99	4509.6	
761.17	4016.7	
761.35	5842.9	
761.53	5036	
761.71	4067.3	
761.89	4593.6	
762.06	5729.5	
762.24	5382.1	
762.42	4166.9	
762.6	3994.9	
762.78	5373.2	
762.96	5825.8	
763.13	4508.3	
763.31	4209.3	
763.49	5953.4	
763.67	5361.6	
763.85	4862.6	
764.02	5259.9	
764.2	6227.9	
764.38	5498.1	
764.56	4106.2	
764.74	4775.2	
764.91	6276.3	
765.09	5378	
765.27	3975.1	
765.45	3728.7	
765.63	6345.3	
765.8	6186.2	
765.98	3532.1	
766.16	3785.3	
766.34	5061.9	
766.52	4897.4	
766.69	4469.4	
766.87	3661.1	
767.05	5444.2	
767.23	5908.4	
767.41	3876.1	
767.58	4018.1	
767.76	5793.7	
767.94	5763.7	
768.12	3986	
768.29	4418.8	
768.47	5383.4	
768.65	5928.2	
768.83	3687	
769	4548.5	
769.18	4977.2	
769.36	5595.1	
769.54	4448.2	
769.72	3670	
769.89	5895.4	
770.07	5811.5	
770.25	3919.8	
770.43	4764.3	
770.6	6358.3	
770.78	6599.9	
770.96	4010.6	
771.14	3885.7	
771.31	5755.5	
771.49	5221.6	
771.67	3382.6	
771.85	3518.4	
772.02	4644.8	
772.2	5164.3	
772.38	4104.8	
772.55	3648.8	
772.73	5427.8	
772.91	5197.1	
773.09	3900.7	
773.26	4035.9	
773.44	5365.7	
773.62	5096	
773.8	3664.5	
773.97	3451.5	
774.15	5326.1	
774.33	5143.8	
774.5	3505.4	
774.68	3800.3	
774.86	5464.7	
775.04	5046.9	
775.21	3548.4	
775.39	3482.2	
775.57	5314.5	
775.74	5547.3	
775.92	3396.2	
776.1	3319.8	
776.27	5246.9	
776.45	6155.5	
776.63	3534.1	
776.81	3213.9	
776.98	4981.3	
777.16	5743.2	
777.34	3648.1	
777.51	3808.5	
777.69	4982	
777.87	4808.6	
778.04	3679.5	
778.22	4030.4	
778.4	4797.7	
778.57	5293.3	
778.75	3095.8	
778.93	3323.2	
779.1	4726.7	
779.28	4464.6	
779.46	3087	
779.64	3450.8	
779.81	5434.6	
779.99	5999.9	
780.17	4044.1	
780.34	4059.1	
780.52	4937.7	
780.69	5059.8	
780.87	3717.7	
781.05	3352.5	
781.22	5059.8	
781.4	5036.6	
781.58	3483.6	
781.75	2833	
781.93	5081	
782.11	4524	
782.28	4129.4	
782.46	3431.7	
782.64	4436.6	
782.81	5158.2	
782.99	3540.3	
783.17	3484.3	
783.34	5022.3	
783.52	4518.5	
783.69	3567.6	
783.87	4208.6	
784.05	4663.9	
784.22	4590.9	
784.4	4229.7	
784.58	3655.6	
784.75	5334.3	
784.93	4668.7	
785.1	3362.8	
785.28	3824.9	
785.46	5057.1	
785.63	4546.5	
785.81	3424.2	
785.99	3274.7	
786.16	4719.9	
786.34	4948.6	
786.51	3367.5	
786.69	3601.7	
786.87	4333.5	
787.04	4771.8	
787.22	3190.1	
787.39	3937.6	
787.57	4508.9	
787.75	5384.8	
787.92	4067.3	
788.1	3932.1	
788.27	4521.9	
788.45	4381.3	
788.63	3838.6	
788.8	2826.9	
788.98	4877.6	
789.15	4227.7	
789.33	2966.8	
789.5	3398.9	
789.68	5270.1	
789.86	5289.9	
790.03	3713	
790.21	3284.3	
790.38	5309.7	
790.56	4657.8	
790.73	3240.6	
790.91	3209.2	
791.09	4536.3	
791.26	5044.8	
791.44	3375.1	
791.61	2962	
791.79	4588.8	
791.96	4543.8	
792.14	3093.1	
792.32	2738.8	
792.49	4464.6	
792.67	4582	
792.84	3095.8	
793.02	2992.8	
793.19	4912.4	
793.37	5347.9	
793.54	2723.1	
793.72	2959.3	
793.89	5477	
794.07	4462.5	
794.25	3379.8	
794.42	2831	
794.6	5306.3	
794.77	4995.7	
794.95	3611.9	
795.12	3217.4	
795.3	4575.8	
795.47	4928.1	
795.65	3529.3	
795.82	3375.1	
796	4395.6	
796.17	5732.9	
796.35	3289.7	
796.52	3816	
796.7	4962.2	
796.87	4980.7	
797.05	3306.1	
797.22	3904.8	
797.4	4993.6	
797.57	5682.4	
797.75	3390.8	
797.92	3188.7	
798.1	5195	
798.27	4403.1	
798.45	2852.1	
798.62	2987.3	
798.8	4693.9	
798.97	5070.8	
799.15	3498.6	
799.32	3439.9	
799.5	4153.3	
799.67	4739.7	
799.85	3670	
800.02	2719	
800.2	4483	
800.37	4708.3	
800.55	3772.4	
800.72	3203.7	
800.9	5104.9	
801.07	5329.5	
801.25	4215.4	
801.42	3504.1	
801.6	5090.6	
801.77	4780	
801.95	3306.1	
802.12	3101.3	
802.29	4876.9	
802.47	4771.1	
802.64	3510.9	
802.82	2725.8	
802.99	4487.8	
803.17	5110.4	
803.34	3400.3	
803.52	3040.6	
803.69	5640.8	
803.87	4262.5	
804.04	3302	
804.21	3449.5	
804.39	5319.3	
804.56	4584.7	
804.74	2947	
804.91	3459	
805.09	4483.7	
805.26	4516.5	
805.44	2992.1	
805.61	3189.4	
805.78	5003.2	
805.96	4931.5	
806.13	3400.3	
806.31	3700	
806.48	4086.4	
806.66	4469.4	
806.83	3420.1	
807	3345.7	
807.18	4468.7	
807.35	4696.7	
807.53	3401.7	
807.7	2813.9	
807.87	5329.5	
808.05	4484.4	
808.22	3664.5	
808.4	2735.4	
808.57	4442.7	
808.74	4194.2	
808.92	3136.8	
809.09	3929.4	
809.27	4450.2	
809.44	4840.7	
809.61	2768.9	
809.79	3058.3	
809.96	5395.7	
810.14	4977.9	
810.31	2752.5	
810.48	3314.3	
810.66	4516.5	
810.83	5092.6	
811.01	3142.9	
811.18	3425.6	
811.35	4980.7	
811.53	4047.5	
811.7	3687.7	
811.87	3431.7	
812.05	4545.1	
812.22	4416.8	
812.39	3091.1	
812.57	2949.1	
812.74	4519.9	
812.92	5693.4	
813.09	3274.7	
813.26	3527.3	
813.44	5454.4	
813.61	4353.3	
813.78	2751.1	
813.96	3588	
814.13	4523.3	
814.3	4259.8	
814.48	3870	
814.65	3222.8	
814.82	5281.7	
815	4274.1	
815.17	3330.7	
815.34	4005.1	
815.52	4433.2	
815.69	4394.9	
815.87	3316.3	
816.04	3259	
816.21	4431.8	
816.38	4053.6	
816.56	3216.7	
816.73	3007.1	
816.9	5552.7	
817.08	4989.5	
817.25	3111.5	
817.42	3741.6	
817.6	4119.8	
817.77	4391.5	
817.94	3391.4	
818.12	3052.8	
818.29	4326	
818.46	6206.7	
818.64	3153.9	
818.81	2937.5	
818.98	4243.4	
819.16	5814.2	
819.33	3562.8	
819.5	3319.8	
819.67	4754.7	
819.85	5210	
820.02	3301.3	
820.19	3454.2	
820.37	4610.7	
820.54	4401.1	
820.71	3437.2	
820.88	4129.4	
821.06	4653.7	
821.23	4261.1	
821.4	3393.5	
821.58	3365.5	
821.75	4956.1	
821.92	4644.8	
822.09	2837.8	
822.27	2853.5	
822.44	4485.1	
822.61	4417.5	
822.79	2846.7	
822.96	5077.6	
823.13	4782	
823.3	4151.2	
823.48	3130	
823.65	2899.9	
823.82	5043.5	
823.99	4156.7	
824.17	3987.4	
824.34	2887.6	
824.51	5653.8	
824.68	4524	
824.86	3088.3	
825.03	3349.1	
825.2	4464.6	
825.37	5272.2	
825.55	3083.6	
825.72	3307.5	
825.89	5638.7	
826.06	5284.4	
826.24	3258.3	
826.41	3269.2	
826.58	5307.7	
826.75	4704.9	
826.92	2670.6	
827.1	2907.4	
827.27	6969.9	
827.44	5590.3	
827.61	3060.3	
827.79	3612.6	
827.96	4279.6	
828.13	4453.6	
828.3	3199.6	
828.47	2778.4	
828.65	4757.4	
828.82	4700.1	
828.99	4032.5	
829.16	3534.1	
829.34	5008.6	
829.51	4795.7	
829.68	3323.9	
829.85	3381.2	
830.02	5260.5	
830.2	5045.5	
830.37	2644.6	
830.54	3879.5	
830.71	5559.6	
830.88	4476.2	
831.05	2615.9	
831.23	3091.8	
831.4	5406	
831.57	5784.8	
831.74	3132.7	
831.91	2745.6	
832.09	4798.4	
832.26	4951.3	
832.43	3159.3	
832.6	3530.7	
832.77	4725.3	
832.94	5268.1	
833.12	2612.5	
833.29	3095.8	
833.46	4782	
833.63	6004.6	
833.8	3410.6	
833.97	3175.7	
834.15	4980.7	
834.32	4820.9	
834.49	3239.9	
834.66	3352.5	
834.83	5093.3	
835	4356.7	
835.17	3112.9	
835.35	3052.2	
835.52	4939	
835.69	4760.8	
835.86	3219.4	
836.03	2693.1	
836.2	5013.4	
836.37	4696	
836.55	3136.1	
836.72	2956.6	
836.89	4682.3	
837.06	5119.2	
837.23	3224.2	
837.4	3476.8	
837.57	5571.8	
837.75	6076.3	
837.92	2896.5	
838.09	3078.8	
838.26	4668	
838.43	5126.1	
838.6	3313.6	
838.77	2973.7	
838.94	5804.6	
839.11	5578.7	
839.29	3170.3	
839.46	2509.4	
839.63	5017.5	
839.8	4745.8	
839.97	3178.4	
840.14	3035.1	
840.31	4807.3	
840.48	5030.5	
840.65	2654.9	
840.82	3028.9	
841	4975.2	
841.17	4915.8	
841.34	2807.8	
841.51	2951.8	
841.68	4947.9	
841.85	4732.2	
842.02	2992.8	
842.19	2490.3	
842.36	4792.9	
842.53	4781.3	
842.7	2912.2	
842.87	3374.4	
843.05	5991	
843.22	4674.1	
843.39	2791.4	
843.56	2957.9	
843.73	4633.9	
843.9	4995	
844.07	4431.1	
844.24	3675.4	
844.41	6710.5	
844.58	4365.6	
844.75	2785.2	
844.92	2996.9	
845.09	4908.3	
845.26	4949.9	
845.43	2874	
845.6	3028.3	
845.77	5008.6	
845.94	4757.4	
846.12	3155.2	
846.29	3272.7	
846.46	5171.1	
846.63	4932.2	
846.8	2852.8	
846.97	3349.1	
847.14	5264	
847.31	4908.3	
847.48	3144.3	
847.65	3502.7	
847.82	5099.4	
847.99	5094.7	
848.16	3772.4	
848.33	3410.6	
848.5	4567.7	
848.67	5304.9	
848.84	2848.7	
849.01	2951.8	
849.18	4502.1	
849.35	4272.7	
849.52	3515.7	
849.69	2826.2	
849.86	5152	
850.03	5195.7	
850.2	2867.8	
850.37	3401.7	
850.54	5190.2	
850.71	4668.7	
850.88	3379.1	
851.05	2736.1	
851.22	4812.7	
851.39	5320.6	
851.56	2660.3	
851.73	3233.1	
851.9	4400.4	
852.07	5128.8	
852.24	3146.4	
852.41	2798.2	
852.58	4912.4	
852.75	4462.5	
852.92	3168.9	
853.09	2800.3	
853.26	4593.6	
853.43	5266	
853.6	2891	
853.77	2469.2	
853.94	5386.2	
854.11	4381.3	
854.28	4107.5	
854.44	3063.8	
854.61	5625.8	
854.78	5187.5	
854.95	2809.1	
855.12	3480.9	
855.29	4106.2	
855.46	5371.1	
855.63	2864.4	
855.8	3775.8	
855.97	4561.5	
856.14	5218.9	
856.31	3873.4	
856.48	3102.7	
856.65	4625.7	
856.82	4371.7	
856.99	2747.7	
857.16	3028.9	
857.33	5814.9	
857.49	4657.8	
857.66	3044.6	
857.83	3246	
858	4717.8	
858.17	4822.3	
858.34	2704.7	
858.51	2831	
858.68	5406.6	
858.85	5351.3	
859.02	3252.9	
859.19	3427.6	
859.36	4410	
859.52	4446.1	
859.69	2809.1	
859.86	3253.5	
860.03	4453	
860.2	5329.5	
860.37	2646	
860.54	2934.7	
860.71	5063.3	
860.88	5449.6	
861.05	3139.5	
861.21	3543	
861.38	5420.3	
861.55	4307.6	
861.72	2660.3	
861.89	3106.1	
862.06	5081	
862.23	5479.7	
862.4	2755.9	
862.56	2944.3	
862.73	5045.5	
862.9	4747.2	
863.07	3235.8	
863.24	2621.4	
863.41	4324.6	
863.58	4416.8	
863.75	2887.6	
863.91	3264.5	
864.08	5290.6	
864.25	5027.8	
864.42	3472.7	
864.59	3848.1	
864.76	5595.7	
864.93	4399	
865.09	2755.9	
865.26	2975.7	
865.43	5332.9	
865.6	5492.7	
865.77	2525.8	
865.94	2811.2	
866.1	5348.6	
866.27	5032.5	
866.44	4162.2	
866.61	2774.3	
866.78	4740.4	
866.95	4980	
867.11	2821.4	
867.28	2609.8	
867.45	5220.3	
867.62	4470	
867.79	3230.3	
867.96	2751.8	
868.12	4337.6	
868.29	5093.3	
868.46	2843.9	
868.63	3663.8	
868.8	5188.2	
868.97	5012.1	
869.13	2922.5	
869.3	2968.2	
869.47	4960.2	
869.64	5184.1	
869.81	2859	
869.97	2825.5	
870.14	4868	
870.31	5368.4	
870.48	2742.9	
870.65	3407.1	
870.81	4713.1	
870.98	4700.1	
871.15	3151.8	
871.32	2957.3	
871.48	5017.5	
871.65	5414.8	
871.82	2833.7	
871.99	3102	
872.16	5757.5	
872.32	5285.1	
872.49	2914.9	
872.66	2890.4	
872.83	5083.1	
872.99	4552	
873.16	3172.3	
873.33	2811.2	
873.5	4781.3	
873.67	4809.3	
873.83	2995.5	
874	3594.2	
874.17	4863.9	
874.34	5653.1	
874.5	3528.7	
874.67	3448.8	
874.84	5352	
875.01	4316.4	
875.17	3893.2	
875.34	2791.4	
875.51	4870.8	
875.68	5717.9	
875.84	3361.4	
876.01	3997	
876.18	5079.6	
876.34	4984.1	
876.51	2756.6	
876.68	2792.1	
876.85	4677.6	
877.01	5313.1	
877.18	3895.9	
877.35	2799.6	
877.52	4829.8	
877.68	4407.9	
877.85	2803.7	
878.02	2764.8	
878.18	4674.1	
878.35	4549.9	
878.52	2268.5	
878.69	3092.4	
878.85	5150	
879.02	5064.6	
879.19	3961.5	
879.35	3013.9	
879.52	5010.7	
879.69	5176.6	
879.86	2461	
880.02	3160	
880.19	4739	
880.36	5670.8	
880.52	3179.1	
880.69	3307.5	
880.86	5159.5	
881.02	5227.8	
881.19	3059.7	
881.36	3039.9	
881.52	5035.3	
881.69	4536.9	
881.86	2988.7	
882.02	2932.7	
882.19	5233.9	
882.36	5958.9	
882.52	2915.6	
882.69	3854.3	
882.86	4880.3	
883.02	4829.8	
883.19	3355.9	
883.36	3132	
883.52	5153.4	
883.69	5776.6	
883.86	2879.4	
884.02	2616.6	
884.19	5140.4	
884.36	4782	
884.52	3143.6	
884.69	3014.6	
884.86	4620.9	
885.02	5463.3	
885.19	3082.9	
885.36	3223.5	
885.52	4752	
885.69	4908.3	
885.86	3913.7	
886.02	3517	
886.19	5119.2	
886.35	4637.3	
886.52	3057.6	
886.69	3844.7	
886.85	4382	
887.02	5282.4	
887.19	5282.4	
887.35	5282.4	
887.52	5282.4	
887.68	5282.4	
887.85	5282.4	
888.02	5282.4	
888.18	5282.4	
888.35	5282.4	
888.51	5282.4	
888.68	5282.4	
888.85	5282.4	
889.01	5282.4	
889.18	5282.4	
889.35	5282.4	
889.51	5282.4	
889.68	5282.4	
889.84	5282.4	
890.01	5282.4	
890.17	5282.4	
890.34	5282.4	
890.51	5282.4	
890.67	5282.4	
890.84	5282.4	
891	5282.4	
891.17	5282.4	
891.34	5282.4	
891.5	5282.4	
891.67	5282.4	
891.83	5282.4	
892	5282.4	
892.16	5282.4	
892.33	5282.4	
892.5	5282.4	
892.66	5282.4	
892.83	5282.4	
892.99	5282.4	
893.16	5282.4	
893.32	5282.4	
893.49	5282.4	
893.65	5282.4	
893.82	5282.4	
893.99	5282.4	
894.15	5282.4	
894.32	5282.4	
894.48	5282.4	
894.65	5282.4	
894.81	5282.4	
894.98	5282.4	
895.14	5282.4	
895.31	5282.4	
895.47	5282.4	
895.64	5282.4	
895.81	5282.4	
895.97	5282.4	
896.14	5282.4	
896.3	5282.4	
896.47	5282.4	
896.63	5282.4	
896.8	5282.4	
896.96	5282.4	
897.13	5282.4	
897.29	5282.4	
897.46	5282.4	
897.62	5282.4	
897.79	5282.4	
897.95	5282.4	
898.12	5282.4	
898.28	5282.4	
898.45	5282.4	
898.61	5282.4	
898.78	5282.4	
898.94	5282.4	
899.11	5282.4	
899.27	5282.4	
899.44	5282.4	
899.6	5282.4	
899.77	5282.4	
899.93	5282.4	
900.1	5282.4	
900.26	5282.4	
900.43	5282.4	
900.59	5282.4	
900.76	5282.4	
900.92	5282.4	
901.09	5282.4	
901.25	5282.4	
901.42	5282.4	
901.58	5282.4	
901.75	5282.4	
901.91	5282.4	
902.07	5282.4	
902.24	5282.4	
902.4	5282.4	
902.57	5282.4	
902.73	5282.4	
902.9	5282.4	
903.06	5282.4	
903.23	5282.4	
903.39	5282.4	
903.56	5282.4	
903.72	5282.4	
903.88	5282.4	
904.05	5282.4	
904.21	5282.4	
904.38	5282.4	
904.54	5282.4	
904.71	5282.4	
904.87	5282.4	
905.03	5282.4	
905.2	5282.4	
905.36	5282.4	
905.53	5282.4	
905.69	5282.4	
905.86	5282.4	
906.02	5282.4	
906.18	5282.4	
906.35	5282.4	
906.51	5282.4	
906.68	5282.4	
906.84	5282.4	
907.01	5282.4	
907.17	5282.4	
907.33	5282.4	
907.5	5282.4	
907.66	5282.4	
907.83	5282.4	
907.99	5282.4	
908.15	5282.4	
908.32	5282.4	
908.48	5282.4	
908.65	5282.4	
908.81	5282.4	
908.97	5282.4	
909.14	5282.4	
909.3	5282.4	
909.47	5282.4	
909.63	5282.4	
909.79	5282.4	
909.96	5282.4	
910.12	5282.4	
910.28	5282.4	
910.45	5282.4	
910.61	5282.4	
910.78	5282.4	
910.94	5282.4	
911.1	5282.4	
911.27	5282.4	
911.43	5282.4	
911.59	5282.4	
911.76	5282.4	
911.92	5282.4	
912.08	5282.4	
912.25	5282.4	
912.41	5282.4	
912.57	5282.4	
912.74	5282.4	
912.9	5282.4	
913.07	5282.4	
913.23	5282.4	
913.39	5282.4	
913.56	5282.4	
913.72	5282.4	
913.88	5282.4	
914.05	5282.4	
914.21	5282.4	
914.37	5282.4	
914.54	5282.4	
914.7	5282.4	
914.86	5282.4	
915.03	5282.4	
915.19	5282.4	
