Wavelength	Intensities	
nm	a.u.	
179.22	1952.9	
179.44	1944.5	
179.65	1961.3	
179.86	1927.8	
180.08	1916.2	
180.29	5209.3	
180.51	3601.7	
180.72	5795.1	
180.94	6794.5	
181.15	3374.4	
181.37	3279.5	
181.58	5622.4	
181.79	6010.1	
182.01	3477.5	
182.22	3805.1	
182.44	5971.9	
182.65	4928.8	
182.87	4718.5	
183.08	4154	
183.29	6189	
183.51	5139.7	
183.72	3801.7	
183.94	5567.7	
184.15	5480.4	
184.37	5547.9	
184.58	3323.2	
184.79	4620.9	
185.01	5117.9	
185.22	5907.7	
185.44	4847.5	
185.65	4082.3	
185.86	5398.4	
186.08	4999.1	
186.29	3185.3	
186.51	3475.4	
186.72	5075.5	
186.94	5987.6	
187.15	3966.9	
187.36	4122.6	
187.58	8017.8	
187.79	5632.6	
188.01	4349.9	
188.22	6835.4	
188.43	6888	
188.65	5933.6	
188.86	3406.5	
189.08	4122.6	
189.29	5360.9	
189.5	5308.3	
189.72	3831.1	
189.93	3979.2	
190.15	6144.6	
190.36	7376.1	
190.57	4275.5	
190.79	4121.2	
191	6261.3	
191.22	6143.9	
191.43	4239.3	
191.64	3451.5	
191.86	6440.2	
192.07	6195.8	
192.29	3606.5	
192.5	3872.7	
192.71	6138.4	
192.93	5285.1	
193.14	3850.9	
193.35	3954.6	
193.57	5305.6	
193.78	6138.4	
194	3128.6	
194.21	3876.1	
194.42	5099.4	
194.64	5563.6	
194.85	4178.5	
195.07	4903.5	
195.28	5655.8	
195.49	4828.4	
195.71	5168.4	
195.92	3615.3	
196.13	5767.1	
196.35	5937.1	
196.56	5504.9	
196.78	4177.2	
196.99	7260.7	
197.2	6812.2	
197.42	4799.1	
197.63	4203.1	
197.84	4924	
198.06	5728.2	
198.27	3893.2	
198.48	5201.8	
198.7	5268.7	
198.91	5436.7	
199.13	4162.2	
199.34	4218.1	
199.55	5943.2	
199.77	4788.2	
199.98	3667.2	
200.19	4276.8	
200.41	5457.2	
200.62	5160.2	
200.83	4450.9	
201.05	4707.6	
201.26	5459.2	
201.47	5217.5	
201.69	3736.9	
201.9	3534.1	
202.11	5495.4	
202.33	6604.7	
202.54	3945.8	
202.76	4459.1	
202.97	5668.1	
203.18	5646.2	
203.4	4445.5	
203.61	4272.7	
203.82	5610.1	
204.04	5217.5	
204.25	4291.9	
204.46	4200.4	
204.68	5453.1	
204.89	5790.3	
205.1	4134.8	
205.32	3534.1	
205.53	5963.7	
205.74	6146	
205.96	3004.4	
206.17	4366.3	
206.38	5919.3	
206.6	6097.5	
206.81	4846.2	
207.02	3902.7	
207.24	5822.4	
207.45	6264.1	
207.66	4017.4	
207.88	3393.5	
208.09	5749.3	
208.3	5539.8	
208.52	3646.7	
208.73	3960.8	
208.94	5611.4	
209.15	6303.6	
209.37	4007.9	
209.58	4240	
209.79	6070.9	
210.01	5322.7	
210.22	3213.3	
210.43	3319.1	
210.65	5537	
210.86	6038.1	
211.07	4057.7	
211.29	3678.2	
211.5	5885.2	
211.71	5450.3	
211.93	3678.8	
212.14	3624.9	
212.35	5461.9	
212.56	5776.6	
212.78	4285.7	
212.99	3512.9	
213.2	6559.6	
213.42	5237.3	
213.63	3714.3	
213.84	4159.4	
214.06	4869.4	
214.27	4982.7	
214.48	4013.3	
214.69	4257	
214.91	6243.6	
215.12	6332.3	
215.33	4362.2	
215.55	4781.3	
215.76	6919.4	
215.97	6032	
216.18	4135.5	
216.4	4022.2	
216.61	5212.1	
216.82	6121.4	
217.04	3708.2	
217.25	3794.2	
217.46	6233.3	
217.67	6023.1	
217.89	3223.5	
218.1	3388	
218.31	5630.5	
218.53	5718.6	
218.74	3863.2	
218.95	3749.1	
219.16	5444.2	
219.38	6531.7	
219.59	3760.1	
219.8	4565.6	
220.01	7304.4	
220.23	5558.2	
220.44	5004.6	
220.65	3631	
220.87	5595.7	
221.08	6187.6	
221.29	3405.8	
221.5	4648.2	
221.72	7653.9	
221.93	5297.4	
222.14	4259.1	
222.35	5003.9	
222.57	5575.9	
222.78	5882.4	
222.99	4040.6	
223.2	4405.2	
223.42	5870.8	
223.63	5988.9	
223.84	3112.2	
224.05	3020.8	
224.27	7209.5	
224.48	6552.8	
224.69	5027.1	
224.9	4293.2	
225.12	5796.4	
225.33	5511.8	
225.54	3311.6	
225.75	3751.9	
225.97	5123.3	
226.18	5434.6	
226.39	4097.3	
226.6	3749.8	
226.82	5283.8	
227.03	5167	
227.24	4292.5	
227.45	3451.5	
227.67	5928.9	
227.88	6560.3	
228.09	4672.8	
228.3	4758.1	
228.52	6055.2	
228.73	5556.1	
228.94	3865.2	
229.15	3446.7	
229.36	5432.6	
229.58	5328.8	
229.79	3962.1	
230	4630.5	
230.21	6685.9	
230.43	5655.8	
230.64	4188.1	
230.85	4373.1	
231.06	5990.3	
231.28	5982.1	
231.49	3458.3	
231.7	4050.2	
231.91	5937.1	
232.12	5593	
232.34	3581.9	
232.55	4051.6	
232.76	6227.9	
232.97	5716.6	
233.18	3724.6	
233.4	4184	
233.61	5786.2	
233.82	5292.6	
234.03	3865.2	
234.25	3809.9	
234.46	7874.4	
234.67	5532.2	
234.88	4260.5	
235.09	3764.8	
235.31	5950	
235.52	5436	
235.73	4164.9	
235.94	3519.8	
236.15	5231.2	
236.37	6802.7	
236.58	3655.6	
236.79	4044.7	
237	5838.1	
237.21	5094.7	
237.43	4432.5	
237.64	3392.8	
237.85	10275	
238.06	5094	
238.27	4502.8	
238.48	3482.9	
238.7	5905	
238.91	5401.2	
239.12	4045.4	
239.33	4013.3	
239.54	5341.8	
239.76	5494	
239.97	3993.5	
240.18	4068.6	
240.39	7058	
240.6	5888.6	
240.82	4183.3	
241.03	3407.8	
241.24	5572.5	
241.45	6490	
241.66	3691.8	
241.87	4379.9	
242.09	6301.6	
242.3	6745.3	
242.51	4412.7	
242.72	4072.7	
242.93	6060.6	
243.14	5489.2	
243.36	4700.8	
243.57	5061.2	
243.78	6506.4	
243.99	5963	
244.2	4080.2	
244.41	3676.1	
244.63	5097.4	
244.84	5909.1	
245.05	4377.9	
245.26	4044.7	
245.47	5894.7	
245.68	6174.6	
245.9	5437.4	
246.11	4245.4	
246.32	5367.7	
246.53	5808	
246.74	6541.9	
246.95	3369.6	
247.16	4972.5	
247.38	5526.1	
247.59	3327.9	
247.8	4063.2	
248.01	5205.9	
248.22	5460.6	
248.43	3621.5	
248.64	3956.7	
248.86	4868.7	
249.07	5322.7	
249.28	3528.7	
249.49	4171	
249.7	6100.9	
249.91	6292.7	
250.12	3336.8	
250.34	3436.5	
250.55	5684.5	
250.76	5523.4	
250.97	4162.2	
251.18	4270	
251.39	6313.2	
251.6	5770.5	
251.81	4304.8	
252.03	4292.5	
252.24	5286.5	
252.45	6126.2	
252.66	3474.7	
252.87	4504.8	
253.08	5574.6	
253.29	7374.1	
253.5	3515.7	
253.72	4908.3	
253.93	5344.5	
254.14	6653.9	
254.35	3799	
254.56	3928.7	
254.77	5866.1	
254.98	5131.5	
255.19	3788.7	
255.41	4922.6	
255.62	5638.7	
255.83	6281.1	
256.04	4341.7	
256.25	4273.4	
256.46	6717.3	
256.67	5198.4	
256.88	4126	
257.09	4676.9	
257.31	5201.8	
257.52	5254.4	
257.73	5276.9	
257.94	3825.6	
258.15	5462.6	
258.36	5593.7	
258.57	4897.4	
258.78	3029.6	
258.99	6046.3	
259.2	5418.2	
259.41	3923.9	
259.63	3932.1	
259.84	6402.6	
260.05	6952.2	
260.26	5104.9	
260.47	3753.9	
260.68	6119.3	
260.89	5510.4	
261.1	4673.5	
261.31	3655.6	
261.52	6171.2	
261.73	6545.3	
261.95	5009.3	
262.16	4425.7	
262.37	6292.7	
262.58	6384.2	
262.79	5018.9	
263	3892.5	
263.21	5536.3	
263.42	5001.8	
263.63	3991.5	
263.84	3920.5	
264.05	6190.3	
264.26	6552.1	
264.47	4911	
264.69	4235.9	
264.9	6302.3	
265.11	5789.6	
265.32	3721.2	
265.53	3843.4	
265.74	5710.4	
265.95	4960.2	
266.16	4153.3	
266.37	4614.8	
266.58	5670.8	
266.79	5401.9	
267	3800.3	
267.21	3511.6	
267.42	5181.4	
267.63	5510.4	
267.84	4033.8	
268.06	3415.3	
268.27	6027.9	
268.48	6348.7	
268.69	3945.8	
268.9	4711.7	
269.11	6296.1	
269.32	5042.8	
269.53	4092.5	
269.74	3695.2	
269.95	5948.7	
270.16	4906.9	
270.37	4030.4	
270.58	4680.3	
270.79	5349.3	
271	6143.2	
271.21	4305.5	
271.42	4090.5	
271.63	5714.5	
271.84	5197.1	
272.05	3188	
272.26	3596.2	
272.47	5622.4	
272.68	5795.8	
272.89	3855.6	
273.11	4512.4	
273.32	5356.8	
273.53	6501.6	
273.74	4395.6	
273.95	4285.7	
274.16	6274.3	
274.37	5666	
274.58	4405.9	
274.79	3489.1	
275	5680.4	
275.21	6259.3	
275.42	5291.3	
275.63	4588.8	
275.84	5739.8	
276.05	7340.6	
276.26	4321.2	
276.47	4009.9	
276.68	5314.5	
276.89	6663.4	
277.1	4586.8	
277.31	3568.2	
277.52	5845.6	
277.73	5971.9	
277.94	3510.9	
278.15	3943.7	
278.36	5839.4	
278.57	5205.9	
278.78	3898.6	
278.99	4393.6	
279.2	5116.5	
279.41	5100.1	
279.62	5142.4	
279.83	3602.4	
280.04	6858.6	
280.25	5051	
280.46	5171.8	
280.67	4052.2	
280.88	5161.6	
281.09	6251.8	
281.3	4229.7	
281.51	5387.5	
281.72	5274.2	
281.93	6096.1	
282.14	3772.4	
282.35	4029	
282.56	6038.1	
282.77	6015.6	
282.98	3867.2	
283.19	4780.6	
283.4	7466.9	
283.61	5485.1	
283.82	3441.3	
284.03	5051	
284.24	5653.1	
284.45	6224.5	
284.66	5028.4	
284.87	4849.6	
285.08	6221	
285.29	6304.3	
285.5	3413.3	
285.71	4010.6	
285.92	6213.5	
286.12	6946	
286.33	5053.7	
286.54	3965.6	
286.75	6100.2	
286.96	5392.3	
287.17	3586.7	
287.38	4995	
287.59	5152.7	
287.8	5117.2	
288.01	4023.6	
288.22	4554	
288.43	6093.4	
288.64	5070.1	
288.85	4681.7	
289.06	4476.9	
289.27	6397.2	
289.48	6573.3	
289.69	5025	
289.9	4559.5	
290.11	6279.1	
290.32	5242.8	
290.53	4872.8	
290.74	4394.3	
290.94	6034	
291.15	6092.7	
291.36	3841.3	
291.57	4567.7	
291.78	5304.2	
291.99	4934.9	
292.2	3636.5	
292.41	4412	
292.62	6217.6	
292.83	5924.8	
293.04	5427.8	
293.25	3637.2	
293.46	5304.9	
293.67	6278.4	
293.88	3822.9	
294.09	3630.4	
294.29	5039.4	
294.5	5702.2	
294.71	4076.8	
294.92	3861.1	
295.13	5307.7	
295.34	6812.9	
295.55	3356.6	
295.76	3517.7	
295.97	6004.6	
296.18	6847.7	
296.39	3579.8	
296.6	3775.8	
296.81	5634	
297.01	6075.6	
297.22	3979.2	
297.43	3786.7	
297.64	5160.9	
297.85	5175.2	
298.06	3090.4	
298.27	3421.5	
298.48	5625.1	
298.69	5276.3	
298.9	4150.6	
299.11	3697.9	
299.31	5048.2	
299.52	5059.2	
299.73	4429.8	
299.94	4308.9	
300.15	5552	
300.36	5144.5	
300.57	4382.7	
300.78	4330.1	
300.99	5444.9	
301.2	5694.7	
301.4	3736.2	
301.61	4091.8	
301.82	5978	
302.03	5985.5	
302.24	4640	
302.45	3579.8	
302.66	5874.3	
302.87	6387.6	
303.08	3782.6	
303.29	5261.2	
303.49	5266.7	
303.7	5582.8	
303.91	3341.6	
304.12	4948.6	
304.33	5124	
304.54	5695.4	
304.75	3820.1	
304.96	3588.7	
305.16	5905	
305.37	6747.4	
305.58	3246.7	
305.79	3440.6	
306	5922	
306.21	4974.5	
306.42	3761.4	
306.63	5929.6	
306.83	5404.6	
307.04	6183.5	
307.25	4276.8	
307.46	4181.3	
307.67	4720.6	
307.88	6109.8	
308.09	3691.8	
308.29	3895.2	
308.5	5690.6	
308.71	6173.3	
308.92	4049.5	
309.13	3649.5	
309.34	5502.2	
309.55	5534.3	
309.75	4744.5	
309.96	4367	
310.17	6034.7	
310.38	5242.1	
310.59	4553.3	
310.8	4292.5	
311.01	5351.3	
311.21	5387.5	
311.42	3608.5	
311.63	3775.8	
311.84	5251	
312.05	5707.7	
312.26	4230.4	
312.46	4659.1	
312.67	5387.5	
312.88	5115.1	
313.09	3679.5	
313.3	3553.2	
313.51	6362.4	
313.71	6821.8	
313.92	3672	
314.13	3828.3	
314.34	5717.9	
314.55	5442.1	
314.76	4684.4	
314.96	4120.5	
315.17	5627.1	
315.38	6161.7	
315.59	3648.8	
315.8	3474.7	
316.01	6516.6	
316.21	6548	
316.42	3511.6	
316.63	4029.7	
316.84	5420.3	
317.05	6311.8	
317.26	4314.4	
317.46	3874.8	
317.67	5511.1	
317.88	6011.5	
318.09	4638.6	
318.3	3375.7	
318.5	5285.1	
318.71	5936.4	
318.92	5988.3	
319.13	4341	
319.34	6111.8	
319.54	6287.3	
319.75	3405.8	
319.96	3246.7	
320.17	5998.5	
320.38	6205.3	
320.58	3327.9	
320.79	4023.6	
321	6147.3	
321.21	6391.7	
321.42	4069.3	
321.62	3303.4	
321.83	5159.5	
322.04	5582.1	
322.25	3865.2	
322.46	3670.6	
322.66	5714.5	
322.87	5857.2	
323.08	4610.7	
323.29	3621.5	
323.5	6726.2	
323.7	5076.2	
323.91	5069.4	
324.12	4488.5	
324.33	5624.4	
324.53	5952.8	
324.74	4336.2	
324.95	4506.2	
325.16	4896	
325.37	5365	
325.57	3664.5	
325.78	3743	
325.99	5582.8	
326.2	5091.3	
326.4	5401.9	
326.61	3358.7	
326.82	5512.4	
327.03	5702.2	
327.24	5266.7	
327.44	5025	
327.65	5815.5	
327.86	4746.5	
328.07	4330.8	
328.27	3507.5	
328.48	6305.7	
328.69	5146.5	
328.9	5323.4	
329.1	3946.4	
329.31	5417.6	
329.52	6464.1	
329.73	3678.8	
329.93	4136.2	
330.14	5560.9	
330.35	5857.2	
330.56	6127.5	
330.76	4598.4	
330.97	5371.1	
331.18	5839.4	
331.39	4063.2	
331.59	3274.7	
331.8	6155.5	
332.01	6373.3	
332.22	3814.7	
332.42	4360.1	
332.63	5687.9	
332.84	5293.3	
333.05	4091.2	
333.25	3761.4	
333.46	5363.6	
333.67	5650.3	
333.88	3827	
334.08	4294.6	
334.29	7527.7	
334.5	6276.3	
334.7	3579.2	
334.91	5350	
335.12	5142.4	
335.33	6018.3	
335.53	4083	
335.74	6156.2	
335.95	5298.1	
336.16	5187.5	
336.36	4063.2	
336.57	4721.9	
336.78	5008.6	
336.98	6207.4	
337.19	5089.2	
337.4	3997.6	
337.61	6786.3	
337.81	5094	
338.02	3697.3	
338.23	4901.5	
338.43	6365.1	
338.64	5231.2	
338.85	3693.9	
339.05	4845.5	
339.26	6493.4	
339.47	4964.3	
339.68	3665.2	
339.88	5436	
340.09	5791.7	
340.3	6115.2	
340.5	4324.6	
340.71	3291.1	
340.92	5036.6	
341.13	6338.5	
341.33	3527.3	
341.54	4333.5	
341.75	5759.6	
341.95	5408	
342.16	4120.5	
342.37	4487.1	
342.57	5139	
342.78	5584.1	
342.99	4607.9	
343.19	3254.2	
343.4	6013.5	
343.61	5864	
343.81	3958.7	
344.02	3649.5	
344.23	5983.5	
344.43	6507.1	
344.64	4566.3	
344.85	4477.5	
345.06	5847.6	
345.26	6194.4	
345.47	4238.6	
345.68	5067.4	
345.88	4887.8	
346.09	6095.4	
346.3	4379.2	
346.5	3262.4	
346.71	5545.2	
346.92	5231.9	
347.12	3332.7	
347.33	4257	
347.54	6206.7	
347.74	6585.6	
347.95	4272.7	
348.16	3107.5	
348.36	5357.5	
348.57	5188.9	
348.78	4154	
348.98	4560.8	
349.19	5524.7	
349.39	5012.1	
349.6	3371	
349.81	3779.9	
350.01	5879	
350.22	5320.6	
350.43	4055	
350.63	4922.6	
350.84	5604.6	
351.05	5392.3	
351.25	3712.3	
351.46	3302	
351.67	6189.6	
351.87	5219.6	
352.08	3999	
352.29	4526.7	
352.49	6019.7	
352.7	5756.8	
352.9	3566.9	
353.11	4453	
353.32	6728.9	
353.52	5350	
353.73	3528.7	
353.94	4549.9	
354.14	5880.4	
354.35	5672.9	
354.55	3645.4	
354.76	4043.4	
354.97	5865.4	
355.17	5570.5	
355.38	3327.9	
355.59	4816.1	
355.79	5274.2	
356	5715.9	
356.2	4021.5	
356.41	3424.9	
356.62	4843.4	
356.82	5455.8	
357.03	4308.9	
357.24	3906.8	
357.44	5218.9	
357.65	5329.5	
357.85	5251.7	
358.06	4009.9	
358.27	4967.7	
358.47	5200.5	
358.68	3338.9	
358.88	4342.4	
359.09	5792.3	
359.3	6103.6	
359.5	5025	
359.71	4424.3	
359.91	6672.3	
360.12	5958.9	
360.33	4227	
360.53	4737	
360.74	5148.6	
360.94	5228.5	
361.15	4488.5	
361.36	3657.7	
361.56	6027.2	
361.77	5397.8	
361.97	5022.3	
362.18	3882.3	
362.38	6040.8	
362.59	5044.1	
362.8	3530	
363	3388	
363.21	4784.1	
363.41	5589.6	
363.62	4117.1	
363.83	5211.4	
364.03	5616.2	
364.24	6683.9	
364.44	5237.3	
364.65	5283.8	
364.85	5360.9	
365.06	5238.7	
365.27	3775.8	
365.47	3715	
365.68	6313.9	
365.88	5255.1	
366.09	4113	
366.29	3814	
366.5	5580	
366.71	6044.9	
366.91	5225.1	
367.12	4285	
367.32	6652.5	
367.53	5850.4	
367.73	4210.6	
367.94	5303.6	
368.14	5819	
368.35	6822.5	
368.56	4278.9	
368.76	3612.6	
368.97	5959.6	
369.17	7786.4	
369.38	3669.3	
369.58	3973.7	
369.79	4918.5	
369.99	6279.8	
370.2	5063.9	
370.4	4133.5	
370.61	5634.6	
370.82	6850.5	
371.02	3975.8	
371.23	3266.5	
371.43	4737.6	
371.64	6173.3	
371.84	4001	
372.05	5252.4	
372.25	7577.5	
372.46	6006	
372.66	3988.8	
372.87	3942.3	
373.07	5947.3	
373.28	7641	
373.48	5067.4	
373.69	4712.4	
373.9	5383.4	
374.1	5385.5	
374.31	4967.7	
374.51	4478.9	
374.72	6316.6	
374.92	5042.8	
375.13	5172.5	
375.33	4289.8	
375.54	5790.3	
375.74	5182	
375.95	4245.4	
376.15	5564.3	
376.36	5700.9	
376.56	5522	
376.77	4333.5	
376.97	4860.5	
377.18	6823.8	
377.38	5859.9	
377.59	5104.9	
377.79	3736.2	
378	5607.3	
378.2	6059.3	
378.41	3844.7	
378.61	3749.8	
378.82	6103.6	
379.02	5124	
379.23	3989.4	
379.43	5231.2	
379.64	6201.2	
379.84	5768.4	
380.05	3818.8	
380.25	3756	
380.46	5931.6	
380.66	5446.2	
380.87	5252.4	
381.07	5637.4	
381.28	6518	
381.48	5894.1	
381.69	3838.6	
381.89	3892.5	
382.1	4803.9	
382.3	6079.7	
382.51	5001.1	
382.71	5979.4	
382.91	5947.3	
383.12	6432.7	
383.32	4274.1	
383.53	4498	
383.73	5744.6	
383.94	5560.9	
384.14	4373.1	
384.35	3468.6	
384.55	5445.5	
384.76	5941.8	
384.96	4224.3	
385.17	4646.2	
385.37	5849.7	
385.58	5149.3	
385.78	4628.4	
385.98	3411.9	
386.19	5377.3	
386.39	5767.1	
386.6	4000.4	
386.8	4241.3	
387.01	5908.4	
387.21	5982.1	
387.42	4728.8	
387.62	5335.6	
387.83	5195.7	
388.03	5942.5	
388.23	4270	
388.44	5152	
388.64	4732.9	
388.85	4928.8	
389.05	4644.8	
389.26	5300.8	
389.46	6943.3	
389.67	6253.8	
389.87	4573.8	
390.07	4679.6	
390.28	5494.7	
390.48	5034.6	
390.69	3814.7	
390.89	4055	
391.1	5266.7	
391.3	6275	
391.5	5347.2	
391.71	6077	
391.91	5874.9	
392.12	6984.3	
392.32	5470.1	
392.53	4679.6	
392.73	5307.7	
392.93	5524.7	
393.14	4279.6	
393.34	5165.7	
393.55	5924.8	
393.75	5504.3	
393.95	4252.3	
394.16	4218.8	
394.36	5212.8	
394.57	5967.1	
394.77	3728	
394.98	4180.6	
395.18	5150.6	
395.38	5423.7	
395.59	5105.6	
395.79	3938.9	
396	5239.4	
396.2	5770.5	
396.4	4818.2	
396.61	4764.3	
396.81	5952.1	
397.02	5203.9	
397.22	5015.5	
397.42	5117.9	
397.63	5973.2	
397.83	5056.4	
398.04	3851.5	
398.24	4375.1	
398.44	5722.7	
398.65	4741	
398.85	3646.7	
399.05	3815.4	
399.26	5035.3	
399.46	6897.6	
399.67	4218.1	
399.87	3859.1	
400.07	5358.2	
400.28	5795.8	
400.48	3974.4	
400.69	5097.4	
400.89	5915.9	
401.09	6426.5	
401.3	3797.6	
401.5	5072.8	
401.7	6643.6	
401.91	6980.2	
402.11	4171.7	
402.32	4496	
402.52	6045.6	
402.72	5980.8	
402.93	4668	
403.13	3593.5	
403.33	6791.1	
403.54	5553.4	
403.74	4395.6	
403.94	5341.1	
404.15	5594.4	
404.35	6833.4	
404.56	4124.6	
404.76	6184.2	
404.96	6095.4	
405.17	5794.4	
405.37	5515.9	
405.57	4637.3	
405.78	6023.1	
405.98	5493.3	
406.18	4169	
406.39	5114.5	
406.59	6078.4	
406.79	5643.5	
407	3972.4	
407.2	4186.7	
407.4	6030.6	
407.61	6217	
407.81	4048.8	
408.01	6442.9	
408.22	4901.5	
408.42	7105.1	
408.62	5072.1	
408.83	4477.5	
409.03	5458.5	
409.23	5177.9	
409.44	4530.8	
409.64	4840	
409.84	6365.8	
410.05	6293.4	
410.25	4551.3	
410.45	4351.3	
410.66	5683.1	
410.86	8276.5	
411.06	4689.8	
411.27	4569	
411.47	7903.1	
411.67	5784.1	
411.88	4869.4	
412.08	5072.8	
412.28	6401.3	
412.49	6986.3	
412.69	4513.7	
412.89	4579.3	
413.09	6730.3	
413.3	6548.7	
413.5	4611.3	
413.7	4140.3	
413.91	5813.5	
414.11	6672.3	
414.31	4418.8	
414.52	4795	
414.72	6336.4	
414.92	6204	
415.12	4398.4	
415.33	4906.9	
415.53	6608.8	
415.73	6834.8	
415.94	5341.8	
416.14	4693.3	
416.34	5562.3	
416.55	5308.3	
416.75	5965.7	
416.95	5351.3	
417.15	6546.7	
417.36	7421.8	
417.56	6156.9	
417.76	5118.6	
417.97	6988.4	
418.17	6544.6	
418.37	4683	
418.57	4743.1	
418.78	6336.4	
418.98	6008.7	
419.18	5680.4	
419.38	5698.8	
419.59	6066.1	
419.79	5721.3	
419.99	4658.4	
420.2	5058.5	
420.4	6558.3	
420.6	6791.7	
420.8	4528.7	
421.01	4425.7	
421.21	6373.3	
421.41	6662	
421.61	5014.1	
421.82	4614.1	
422.02	5860.6	
422.22	6877.8	
422.42	5532.2	
422.63	5157.5	
422.83	6085.2	
423.03	7277.8	
423.23	5114.5	
423.44	4069.3	
423.64	6083.8	
423.84	5927.5	
424.04	4549.9	
424.25	4217.5	
424.45	7152.2	
424.65	7144.7	
424.85	4003.8	
425.06	4615.4	
425.26	7090.8	
425.46	5987.6	
425.66	5146.5	
425.87	4824.3	
426.07	6819.7	
426.27	6726.9	
426.47	4954	
426.67	4276.2	
426.88	7187.7	
427.08	6676.4	
427.28	5207.3	
427.48	4287.8	
427.69	5539.8	
427.89	6185.5	
428.09	5233.2	
428.29	4341	
428.5	6950.8	
428.7	6304.3	
428.9	4140.3	
429.1	4779.3	
429.3	6257.9	
429.51	6754.2	
429.71	4508.9	
429.91	5354.1	
430.11	6578.8	
430.31	6763.1	
430.52	4815.5	
430.72	5139	
430.92	7216.4	
431.12	6616.3	
431.32	4425	
431.53	4941.1	
431.73	5456.5	
431.93	7275.1	
432.13	4376.5	
432.33	4168.3	
432.54	5909.8	
432.74	6413.6	
432.94	4084.3	
433.14	5261.9	
433.34	6503.7	
433.55	5914.5	
433.75	5171.8	
433.95	6973.3	
434.15	6242.2	
434.35	5919.3	
434.56	4336.2	
434.76	3831.1	
434.96	6213.5	
435.16	6489.3	
435.36	4235.9	
435.56	5300.8	
435.77	5779.4	
435.97	6014.2	
436.17	6110.5	
436.37	5254.4	
436.57	5834	
436.78	5724.8	
436.98	7012.2	
437.18	5900.9	
437.38	6466.1	
437.58	6057.2	
437.78	6075.6	
437.99	4722.6	
438.19	6592.4	
438.39	7376.1	
438.59	4599.7	
438.79	4087.7	
438.99	7279.8	
439.2	6015.6	
439.4	4285	
439.6	4106.9	
439.8	6363.7	
440	7406.8	
440.2	5174.5	
440.4	5343.8	
440.61	6650.4	
440.81	7283.9	
441.01	4267.3	
441.21	5206.6	
441.41	6969.9	
441.61	6744	
441.81	5468.8	
442.02	6611.5	
442.22	7599.3	
442.42	6812.2	
442.62	4335.5	
442.82	4448.9	
443.02	6980.2	
443.22	6094.1	
443.43	4804.5	
443.63	4345.8	
443.83	5915.9	
444.03	6014.9	
444.23	5606	
444.43	5141.8	
444.63	6169.2	
444.83	7518.8	
445.04	4343.7	
445.24	5743.9	
445.44	6707.8	
445.64	6791.7	
445.84	5309.7	
446.04	5283.1	
446.24	5941.2	
446.44	7083.2	
446.65	4481	
446.85	4793.6	
447.05	6272.2	
447.25	7004.1	
447.45	4960.2	
447.65	4319.8	
447.85	6292.7	
448.05	6072.9	
448.25	5397.8	
448.46	5212.1	
448.66	6435.4	
448.86	6015.6	
449.06	4123.9	
449.26	5455.1	
449.46	6649.1	
449.66	5751.4	
449.86	4816.1	
450.06	4810.7	
450.26	5842.2	
450.47	6520	
450.67	5125.4	
450.87	5489.2	
451.07	6607.4	
451.27	6359.6	
451.47	4381.3	
451.67	4896	
451.87	5939.8	
452.07	7284.6	
452.27	4614.1	
452.47	4602.5	
452.67	6333	
452.88	7047.1	
453.08	3931.4	
453.28	6037.4	
453.48	7582.3	
453.68	6260	
453.88	4469.4	
454.08	4688.5	
454.28	6564.4	
454.48	6285.2	
454.68	5324.7	
454.88	5889.3	
455.08	6688.7	
455.28	6428.6	
455.48	4371	
455.68	4943.8	
455.89	7191.8	
456.09	6787.7	
456.29	4684.4	
456.49	4702.1	
456.69	7032.7	
456.89	6333	
457.09	5258.5	
457.29	5584.1	
457.49	6594.5	
457.69	6650.4	
457.89	4929.5	
458.09	4350.6	
458.29	6242.9	
458.49	7042.3	
458.69	5298.8	
458.89	4812.7	
459.09	7220.5	
459.29	7403.4	
459.49	4865.3	
459.69	5724.1	
459.9	6802	
460.1	6140.5	
460.3	4724	
460.5	4602.5	
460.7	6660	
460.9	6490.7	
461.1	4158.7	
461.3	5573.2	
461.5	7389.1	
461.7	7016.3	
461.9	4469.4	
462.1	4978.6	
462.3	6365.1	
462.5	7135.8	
462.7	4536.9	
462.9	4716.5	
463.1	8052.6	
463.3	7666.2	
463.5	4782.7	
463.7	5803.3	
463.9	6515.3	
464.1	6858	
464.3	4823	
464.5	5144.5	
464.7	7174	
464.9	6719.4	
465.1	6561.7	
465.3	5524.1	
465.5	7467.6	
465.7	7417.7	
465.9	5741.1	
466.1	5640.8	
466.3	7203.4	
466.5	7060	
466.7	6447.7	
466.9	5289.9	
467.1	6907.1	
467.3	7993.9	
467.5	6382.2	
467.7	5078.3	
467.9	8176.2	
468.1	9116.9	
468.3	6078.4	
468.5	6467.5	
468.7	6858	
468.9	6938.5	
469.1	5406.6	
469.3	6195.8	
469.5	9033.6	
469.7	6356.2	
469.9	5941.8	
470.1	5171.8	
470.3	6811.5	
470.5	6924.2	
470.7	6519.4	
470.9	5248.9	
471.1	6697.5	
471.3	7131.7	
471.5	5001.8	
471.69	7182.9	
471.89	6535.8	
472.09	6037.4	
472.29	5881.1	
472.49	6438.8	
472.69	6227.2	
472.89	7077.1	
473.09	4971.1	
473.29	5182	
473.49	6423.1	
473.69	6658.6	
473.89	6273.6	
474.09	5283.1	
474.29	7886.7	
474.49	7649.2	
474.69	6124.8	
474.89	5504.9	
475.09	6645	
475.29	6627.2	
475.49	4862.6	
475.69	5143.8	
475.88	8505.2	
476.08	6923.5	
476.28	4763.6	
476.48	5388.2	
476.68	7514	
476.88	7412.3	
477.08	5211.4	
477.28	5504.3	
477.48	6865.5	
477.68	7593.2	
477.88	4982.7	
478.08	5384.1	
478.28	7759.1	
478.48	6937.2	
478.67	5370.5	
478.87	4840	
479.07	7595.2	
479.27	7029.3	
479.47	5639.4	
479.67	5578	
479.87	7380.2	
480.07	7937.2	
480.27	4758.1	
480.47	6620.4	
480.67	7062.8	
480.87	7733.8	
481.06	5124	
481.26	5988.3	
481.46	6963.1	
481.66	6913.9	
481.86	5554.1	
482.06	6689.3	
482.26	6680.5	
482.46	7636.9	
482.66	5534.3	
482.86	5124.7	
483.05	6970.6	
483.25	6447	
483.45	8122.2	
483.65	5523.4	
483.85	6563.1	
484.05	6914.6	
484.25	5972.6	
484.45	6494.1	
484.65	7916.1	
484.84	7828.7	
485.04	5355.4	
485.24	5411.4	
485.44	8037.6	
485.64	6320.7	
485.84	4593.6	
486.04	6171.2	
486.24	6700.3	
486.44	7125.6	
486.63	4523.3	
486.83	5326.1	
487.03	6531.7	
487.23	6773.3	
487.43	4707.6	
487.63	7139.2	
487.83	6811.5	
488.02	7956.4	
488.22	5705.6	
488.42	6320.7	
488.62	7768.6	
488.82	6576.7	
489.02	5358.2	
489.22	5283.1	
489.41	7636.9	
489.61	7090.8	
489.81	5063.9	
490.01	5018.9	
490.21	7470.3	
490.41	8127	
490.61	4998.4	
490.8	5143.8	
491	6885.3	
491.2	6259.3	
491.4	5782.8	
491.6	4877.6	
491.8	6893.5	
491.99	7190.4	
492.19	4670.1	
492.39	5167	
492.59	7553.6	
492.79	7585	
492.99	6038.8	
493.18	5013.4	
493.38	7539.3	
493.58	8369.4	
493.78	5744.6	
493.98	5338.4	
494.18	7212.9	
494.37	6685.3	
494.57	5877.7	
494.77	5767.1	
494.97	7305.1	
495.17	7566.6	
495.37	5269.4	
495.56	5658.5	
495.76	7728.4	
495.96	7404.8	
496.16	6520	
496.36	5403.2	
496.55	7563.1	
496.75	7064.1	
496.95	5835.3	
497.15	5655.1	
497.35	7481.2	
497.54	7490.8	
497.74	5409.4	
497.94	7242.3	
498.14	8303.1	
498.34	8005.5	
498.53	4977.2	
498.73	5950.7	
498.93	6876.4	
499.13	7495.6	
499.33	5627.1	
499.52	6383.5	
499.72	7266.9	
499.92	7747.5	
500.12	5216.9	
500.32	5547.3	
500.51	7736.5	
500.71	7421.8	
500.91	6472.9	
501.11	6044.9	
501.31	7607.5	
501.5	8059.4	
501.7	6711.9	
501.9	5584.8	
502.1	7408.2	
502.29	7748.8	
502.49	6114.6	
502.69	6655.9	
502.89	7634.8	
503.09	7610.9	
503.28	5116.5	
503.48	5264	
503.68	6790.4	
503.88	6843.6	
504.07	6381.5	
504.27	5760.3	
504.47	7185	
504.67	7460.1	
504.86	6177.4	
505.06	6010.8	
505.26	6968.6	
505.46	8914.8	
505.65	5807.4	
505.85	6059.9	
506.05	6933.7	
506.25	7436.2	
506.44	5180	
506.64	6182.1	
506.84	6911.2	
507.04	7869	
507.23	5446.2	
507.43	6014.9	
507.63	9019.9	
507.83	7154.9	
508.02	6006.7	
508.22	5584.1	
508.42	9241.1	
508.62	6903.7	
508.81	6266.1	
509.01	6503.7	
509.21	6782.9	
509.4	7105.1	
509.6	6107.7	
509.8	5428.5	
510	7125.6	
510.19	8548.9	
510.39	5433.9	
510.59	5519.3	
510.79	6786.3	
510.98	8325.7	
511.18	5479	
511.38	5650.3	
511.57	7665.5	
511.77	7527	
511.97	6415.6	
512.17	5321.3	
512.36	7740.6	
512.56	7677.8	
512.76	5395.7	
512.95	5160.2	
513.15	7847.8	
513.35	6361	
513.55	6379.4	
513.74	5378	
513.94	7779.6	
514.14	7158.3	
514.33	6410.1	
514.53	6086.6	
514.73	7055.3	
514.92	7316.7	
515.12	5604.6	
515.32	5394.3	
515.51	7415	
515.71	8028	
515.91	7122.8	
516.11	5465.3	
516.3	9264.3	
516.5	6925.5	
516.7	6081.1	
516.89	6790.4	
517.09	7110.5	
517.29	6935.8	
517.48	6504.3	
517.68	5796.4	
517.88	6789	
518.07	7429.3	
518.27	6328.2	
518.47	5306.3	
518.66	8051.9	
518.86	6602	
519.06	5138.4	
519.25	5599.1	
519.45	7006.1	
519.65	8548.2	
519.84	6286.6	
520.04	6987	
520.24	8923	
520.43	7637.6	
520.63	6011.5	
520.83	5754.8	
521.02	6830	
521.22	7533.1	
521.42	6322.8	
521.61	6896.9	
521.81	7066.2	
522.01	7277.1	
522.2	6103.6	
522.4	5915.9	
522.6	7727.7	
522.79	6495.5	
522.99	6010.1	
523.18	5200.5	
523.38	7460.8	
523.58	7441	
523.77	7264.8	
523.97	5091.9	
524.17	9387.9	
524.36	8512.7	
524.56	6623.1	
524.76	6115.9	
524.95	7351.5	
525.15	7025.2	
525.34	5870.2	
525.54	5892.7	
525.74	7728.4	
525.93	6635.4	
526.13	7166.5	
526.33	5813.5	
526.52	7995.3	
526.72	7474.4	
526.91	7147.4	
527.11	6350.8	
527.31	8049.2	
527.5	8479.3	
527.7	6157.6	
527.89	5173.9	
528.09	6853.9	
528.29	7423.2	
528.48	6612.9	
528.68	6247	
528.87	7804.8	
529.07	7925	
529.27	6124.8	
529.46	5541.8	
529.66	7423.9	
529.85	7899	
530.05	5378	
530.25	6240.2	
530.44	8914.1	
530.64	7393.8	
530.83	5808	
531.03	6099.5	
531.23	7816.4	
531.42	7755	
531.62	6958.3	
531.81	6141.9	
532.01	7906.5	
532.21	8507.9	
532.4	5768.4	
532.6	6191.7	
532.79	9017.2	
532.99	7961.8	
533.18	6090	
533.38	7264.8	
533.58	7404.8	
533.77	8285.4	
533.97	5963.7	
534.16	6887.3	
534.36	8359.1	
534.55	7475.1	
534.75	7027.3	
534.95	6036	
535.14	8237.6	
535.34	7418.4	
535.53	5737	
535.73	7871	
535.92	8858.8	
536.12	7636.2	
536.31	5844.2	
536.51	7144.7	
536.71	7983	
536.9	7535.2	
537.1	6034	
537.29	6267.5	
537.49	8574.2	
537.68	7425.9	
537.88	6709.1	
538.07	5808	
538.27	7616.4	
538.46	8796.7	
538.66	5624.4	
538.86	6090	
539.05	7703.1	
539.25	8079.9	
539.44	6347.3	
539.64	5920	
539.83	7513.3	
540.03	8589.9	
540.22	5859.9	
540.42	6061.3	
540.61	7868.3	
540.81	7974.8	
541	6527.6	
541.2	7094.2	
541.39	7409.6	
541.59	7726.3	
541.78	6793.8	
541.98	5916.6	
542.18	7103.7	
542.37	7069.6	
542.57	6311.8	
542.76	6936.5	
542.96	7128.3	
543.15	7925.6	
543.35	6440.9	
543.54	5690.6	
543.74	8303.1	
543.93	7716.1	
544.13	6413.6	
544.32	7610.3	
544.52	8148.2	
544.71	7285.3	
544.91	5482.4	
545.1	6825.9	
545.3	7343.3	
545.49	8063.5	
545.69	5452.4	
545.88	6064.7	
546.08	9075.2	
546.27	8693.6	
546.47	6576	
546.66	5819	
546.86	8278.6	
547.05	9054.1	
547.24	6148	
547.44	5934.3	
547.63	7230	
547.83	8415.8	
548.02	6311.2	
548.22	6592.4	
548.41	7010.2	
548.61	8461.5	
548.8	5868.1	
549	5884.5	
549.19	7705.1	
549.39	8034.9	
549.58	5569.8	
549.78	6194.4	
549.97	8103.8	
550.17	7649.2	
550.36	7190.4	
550.55	8237.6	
550.75	7628.7	
550.94	8511.4	
551.14	5829.9	
551.33	6341.2	
551.53	6906.4	
551.72	7994.6	
551.92	6421.7	
552.11	6019	
552.31	8088.1	
552.5	8177.5	
552.69	7864.2	
552.89	5719.3	
553.08	8013	
553.28	7746.8	
553.47	6057.2	
553.67	7415	
553.86	8779	
554.06	6985.6	
554.25	5288.5	
554.44	5864.7	
554.64	9657.5	
554.83	8957.8	
555.03	5939.1	
555.22	6284.5	
555.42	8260.8	
555.61	7982.3	
555.8	6096.8	
556	6421.7	
556.19	7036.1	
556.39	8449.9	
556.58	6150.1	
556.78	6202.6	
556.97	7794.6	
557.16	7547.4	
557.36	7469.6	
557.55	5748	
557.75	6815	
557.94	8616.5	
558.13	5893.4	
558.33	5659.2	
558.52	8483.4	
558.72	7252.5	
558.91	5825.1	
559.1	5984.8	
559.3	6931.7	
559.49	6724.2	
559.69	5323.4	
559.88	6450.4	
560.07	7877.2	
560.27	8350.3	
560.46	6563.1	
560.66	6798.6	
560.85	7575.4	
561.04	6815.6	
561.24	5791	
561.43	6004	
561.63	7071	
561.82	7311.9	
562.01	7394.5	
562.21	6337.8	
562.4	7804.8	
562.59	8890.2	
562.79	6177.4	
562.98	5841.5	
563.18	7761.1	
563.37	9343.5	
563.56	6629.3	
563.76	5683.8	
563.95	7160.4	
564.14	7056.6	
564.34	6099.5	
564.53	5810.8	
564.73	7705.1	
564.92	8140	
565.11	6186.2	
565.31	5621	
565.5	8320.9	
565.69	7171.3	
565.89	5807.4	
566.08	6115.9	
566.27	8253.3	
566.47	8538	
566.66	6773.3	
566.85	5367	
567.05	7744.1	
567.24	7101	
567.44	5681.7	
567.63	7149.5	
567.82	7995.3	
568.02	7699.7	
568.21	5706.3	
568.4	6158.2	
568.6	7504.4	
568.79	7544	
568.98	5479	
569.18	5664	
569.37	7518.1	
569.56	9611.1	
569.76	6015.6	
569.95	7064.8	
570.14	7908.6	
570.34	7774.8	
570.53	5457.2	
570.72	5448.3	
570.91	8390.5	
571.11	7365.9	
571.3	5984.2	
571.49	6994.5	
571.69	7451.2	
571.88	7039.6	
572.07	6548.7	
572.27	6593.1	
572.46	6967.2	
572.65	8138.6	
572.85	5699.5	
573.04	6103.6	
573.23	8312	
573.43	7595.2	
573.62	5455.1	
573.81	6109.1	
574	7469.6	
574.2	7421.8	
574.39	5786.9	
574.58	5948	
574.78	8425.3	
574.97	7606.8	
575.16	6332.3	
575.36	6548	
575.55	7983	
575.74	8118.8	
575.93	5397.1	
576.13	6477.7	
576.32	7336.5	
576.51	7947.5	
576.71	5870.8	
576.9	7305.1	
577.09	8256	
577.28	7786.4	
577.48	6477.7	
577.67	5333.6	
577.86	7400	
578.05	7720.8	
578.25	6044.9	
578.44	6161	
578.63	7565.9	
578.83	8777.6	
579.02	5356.8	
579.21	7005.4	
579.4	7725.6	
579.6	7408.9	
579.79	6159.6	
579.98	8477.2	
580.17	8156.4	
580.37	8175.5	
580.56	5621	
580.75	6333	
580.94	8684.1	
581.14	8472.4	
581.33	6838.9	
581.52	5702.2	
581.71	7983.7	
581.91	8664.3	
582.1	5413.5	
582.29	6098.9	
582.48	7562.5	
582.68	7531.1	
582.87	6621.8	
583.06	6156.2	
583.25	7907.2	
583.45	7678.5	
583.64	6959.7	
583.83	7675.8	
584.02	7314	
584.21	7914	
584.41	6907.8	
584.6	6008.1	
584.79	7527.7	
584.98	8348.9	
585.18	5494.7	
585.37	5511.8	
585.56	7122.8	
585.75	7972.1	
585.94	5801.2	
586.14	6514.6	
586.33	8640.4	
586.52	7585.7	
586.71	6359.6	
586.91	6040.1	
587.1	6954.9	
587.29	8082	
587.48	6055.8	
587.67	5872.2	
587.87	7875.8	
588.06	8062.2	
588.25	7260	
588.44	6597.2	
588.63	7531.1	
588.83	8181	
589.02	5894.1	
589.21	5906.3	
589.4	7256	
589.59	7079.1	
589.78	5066	
589.98	5404.6	
590.17	6859.3	
590.36	7462.1	
590.55	4859.1	
590.74	5847.6	
590.94	9016.5	
591.13	7368.6	
591.32	5595.7	
591.51	5071.5	
591.7	7978.2	
591.89	7331	
592.09	5162.2	
592.28	5714.5	
592.47	6556.2	
592.66	8576.9	
592.85	5139	
593.05	5418.9	
593.24	7273.7	
593.43	8064.9	
593.62	5409.4	
593.81	6032.6	
594	7225.2	
594.19	7537.2	
594.39	5396.4	
594.58	5356.1	
594.77	7529.7	
594.96	8229.4	
595.15	5283.8	
595.34	6034	
595.54	7709.2	
595.73	6791.7	
595.92	4696.7	
596.11	5986.9	
596.3	8220.5	
596.49	6808.1	
596.68	5692.7	
596.88	6186.2	
597.07	7963.9	
597.26	6675	
597.45	5209.3	
597.64	6400.6	
597.83	6876.4	
598.02	7617.8	
598.22	5350.7	
598.41	6032	
598.6	7378.8	
598.79	6842.9	
598.98	5332.9	
599.17	6421.1	
599.36	7479.9	
599.55	8748.2	
599.74	7627.3	
599.94	7262.1	
600.13	8024.6	
600.32	6798.6	
600.51	5074.2	
600.7	5207.3	
600.89	8758.5	
601.08	8780.3	
601.27	5065.3	
601.47	6070.9	
601.66	8048.5	
601.85	8640.4	
602.04	5752.7	
602.23	5977.3	
602.42	6926.9	
602.61	7711.3	
602.8	5775.3	
602.99	5532.9	
603.18	7331	
603.37	7639.6	
603.57	6237.4	
603.76	6793.1	
603.95	8426	
604.14	7987.8	
604.33	5569.8	
604.52	5860.6	
604.71	7631.4	
604.9	7235.5	
605.09	6559.6	
605.28	6472.9	
605.47	8208.9	
605.66	7939.3	
605.86	6253.1	
606.05	5521.3	
606.24	8165.9	
606.43	6655.2	
606.62	5911.1	
606.81	6804	
607	8049.9	
607.19	7381.6	
607.38	5393	
607.57	5667.4	
607.76	7101	
607.95	6548.7	
608.14	6011.5	
608.33	6664.1	
608.52	7093.5	
608.72	7987.1	
608.91	5204.6	
609.1	5190.9	
609.29	7217	
609.48	6711.9	
609.67	6268.8	
609.86	5296.7	
610.05	6823.1	
610.24	7235.5	
610.43	5053	
610.62	4716.5	
610.81	8398	
611	8199.4	
611.19	5249.6	
611.38	6125.5	
611.57	7508.5	
611.76	8925	
611.95	5036	
612.14	4949.9	
612.33	7311.2	
612.52	6766.5	
612.71	5602.6	
612.9	4786.1	
613.09	6363.7	
613.28	8796	
613.47	5310.4	
613.66	6430.6	
613.85	7434.1	
614.04	6931	
614.24	5416.9	
614.43	4666	
614.62	7593.9	
614.81	7536.5	
615	6058.6	
615.19	6016.2	
615.38	6769.9	
615.57	7195.2	
615.76	5903.6	
615.95	6907.1	
616.14	7675.1	
616.33	7250.5	
616.52	6206.7	
616.71	6552.1	
616.9	7523.6	
617.09	7443.7	
617.28	5534.3	
617.47	6865.5	
617.66	6593.8	
617.85	6681.8	
618.04	6533	
618.22	5909.1	
618.41	6954.2	
618.6	7801.4	
618.79	5811.5	
618.98	5417.6	
619.17	8248.5	
619.36	6459.3	
619.55	5612.8	
619.74	5684.5	
619.93	7529.7	
620.12	6790.4	
620.31	6203.3	
620.5	6345.3	
620.69	8079.9	
620.88	8354.3	
621.07	7036.8	
621.26	5952.1	
621.45	7600.7	
621.64	7574.8	
621.83	6104.3	
622.02	5322.7	
622.21	7596.6	
622.4	7385.7	
622.59	6774.7	
622.78	6444.3	
622.97	6998.6	
623.16	7939.3	
623.35	6064.7	
623.54	5148.6	
623.72	7216.4	
623.91	7347.4	
624.1	6289.3	
624.29	4993.6	
624.48	8412.4	
624.67	7619.1	
624.86	6212.2	
625.05	5227.8	
625.24	8551	
625.43	6813.6	
625.62	8097.7	
625.81	5427.8	
626	8056	
626.19	7077.8	
626.38	6222.4	
626.56	5586.2	
626.75	6985.6	
626.94	7687.4	
627.13	6221	
627.32	4823	
627.51	7610.9	
627.7	9142.8	
627.89	5033.9	
628.08	6271.6	
628.27	6760.3	
628.46	7001.3	
628.65	5352	
628.83	5035.3	
629.02	7575.4	
629.21	6890	
629.4	5896.1	
629.59	6019	
629.78	6784.2	
629.97	7836.2	
630.16	6068.8	
630.35	5528.2	
630.54	8310	
630.72	8007.6	
630.91	5517.2	
631.1	6126.8	
631.29	7496.9	
631.48	7701.7	
631.67	6152.8	
631.86	5634	
632.05	6901.7	
632.24	7110.5	
632.42	5292	
632.61	6040.8	
632.8	7228	
632.99	6842.3	
633.18	5890	
633.37	6409.5	
633.56	7456	
633.75	7293.5	
633.93	5873.6	
634.12	5566.4	
634.31	8224	
634.5	7871.7	
634.69	5611.4	
634.88	6068.8	
635.07	7150.1	
635.25	7879.2	
635.44	6593.8	
635.63	6875	
635.82	7073	
636.01	6589	
636.2	6617.7	
636.39	6062	
636.57	8288.1	
636.76	7968.6	
636.95	5476.3	
637.14	6926.2	
637.33	7565.9	
637.52	8644.5	
637.7	5266.7	
637.89	6246.3	
638.08	7094.8	
638.27	8687.5	
638.46	6359.6	
638.65	6855.9	
638.83	8699.8	
639.02	6924.2	
639.21	6245.6	
639.4	6825.2	
639.59	7519.5	
639.78	7043	
639.96	5528.2	
640.15	5645.6	
640.34	7296.9	
640.53	7591.8	
640.72	5274.9	
640.91	5637.4	
641.09	6839.5	
641.28	8211	
641.47	5653.1	
641.66	6494.1	
641.85	7542.7	
642.03	7811.6	
642.22	6309.1	
642.41	5719.3	
642.6	6905.8	
642.79	6253.8	
642.97	5501.5	
643.16	6293.4	
643.35	6887.3	
643.54	6620.4	
643.73	5418.2	
643.91	6333.7	
644.1	6448.4	
644.29	7221.8	
644.48	5388.9	
644.67	5543.9	
644.85	6800.6	
645.04	7044.3	
645.23	5107.6	
645.42	5352.7	
645.6	6587.6	
645.79	7783	
645.98	5429.2	
646.17	4501.4	
646.36	6356.9	
646.54	6997.9	
646.73	6387.6	
646.92	5074.2	
647.11	6565.1	
647.29	7818.5	
647.48	5192.3	
647.67	4903.5	
647.86	8059.4	
648.05	8089.5	
648.23	5525.4	
648.42	7002	
648.61	7388.4	
648.8	7176.8	
648.98	5179.3	
649.17	5478.3	
649.36	6720.1	
649.55	6072.9	
649.73	5304.2	
649.92	6000.5	
650.11	6527.6	
650.3	6949.4	
650.48	5303.6	
650.67	5050.3	
650.86	7207.5	
651.05	6085.2	
651.23	5380.7	
651.42	5302.9	
651.61	6604	
651.79	6881.9	
651.98	5520	
652.17	5075.5	
652.36	7212.9	
652.54	6232	
652.73	5182.7	
652.92	4996.4	
653.11	7187.7	
653.29	7273	
653.48	4465.9	
653.67	5455.1	
653.85	7000.6	
654.04	8109.3	
654.23	5762.3	
654.42	5276.9	
654.6	6482.5	
654.79	7271.7	
654.98	4721.3	
655.16	5377.3	
655.35	6249	
655.54	6146.6	
655.73	4847.5	
655.91	4814.1	
656.1	7375.4	
656.29	6135.7	
656.47	4474.8	
656.66	6213.5	
656.85	6386.9	
657.03	6435.4	
657.22	4936.3	
657.41	4988.2	
657.59	6542.6	
657.78	6219.7	
657.97	4617.5	
658.16	5347.2	
658.34	7206.1	
658.53	7604.1	
658.72	6334.4	
658.9	7019.1	
659.09	6526.9	
659.28	6648.4	
659.46	5044.8	
659.65	5102.2	
659.84	6312.5	
660.02	6890	
660.21	4904.2	
660.4	4928.1	
660.58	7373.4	
660.77	6716.7	
660.96	5535	
661.14	4564.2	
661.33	7917.4	
661.52	7770	
661.7	4447.5	
661.89	8431.5	
662.08	6296.8	
662.26	5858.6	
662.45	4784.1	
662.64	4917.9	
662.82	7066.2	
663.01	6178	
663.2	5040.7	
663.38	5773.9	
663.57	6952.2	
663.75	6793.8	
663.94	5283.8	
664.13	6763.8	
664.31	6257.2	
664.5	7064.8	
664.69	5700.9	
664.87	6185.5	
665.06	6052.4	
665.25	6802	
665.43	6447.7	
665.62	6449.7	
665.8	7138.5	
665.99	6425.2	
666.18	5288.5	
666.36	5393	
666.55	7103.7	
666.74	7043.6	
666.92	4892.6	
667.11	6681.2	
667.29	6496.2	
667.48	7163.8	
667.67	6248.4	
667.85	5413.5	
668.04	6512.5	
668.22	6528.2	
668.41	5322	
668.6	5558.2	
668.78	6287.3	
668.97	6540.5	
669.15	5746.6	
669.34	4583.4	
669.53	6323.4	
669.71	6634.1	
669.9	4866	
670.08	5563.6	
670.27	6333.7	
670.46	6948.8	
670.64	5754.8	
670.83	6010.1	
671.01	6153.5	
671.2	6892.1	
671.38	4874.8	
671.57	4887.1	
671.76	7548.8	
671.94	8137.9	
672.13	4808.6	
672.31	5933	
672.5	7082.6	
672.69	6362.4	
672.87	4917.9	
673.06	5213.4	
673.24	6837.5	
673.43	6329.6	
673.61	5814.9	
673.8	5231.9	
673.98	7041.6	
674.17	7292.1	
674.36	5878.4	
674.54	5696.1	
674.73	6812.9	
674.91	7053.2	
675.1	5457.8	
675.28	5029.1	
675.47	6595.8	
675.65	7161.7	
675.84	5286.5	
676.03	5537.7	
676.21	6326.2	
676.4	5805.3	
676.58	6171.9	
676.77	5871.5	
676.95	7855.3	
677.14	6308.4	
677.32	4930.8	
677.51	4740.4	
677.69	7168.6	
677.88	5937.7	
678.06	4771.8	
678.25	4868	
678.44	6524.8	
678.62	6339.1	
678.81	4620.9	
678.99	5667.4	
679.18	7460.8	
679.36	6993.8	
679.55	5213.4	
679.73	5928.9	
679.92	6973.3	
680.1	6339.8	
680.29	6496.2	
680.47	5175.2	
680.66	6296.8	
680.84	7162.4	
681.03	4491.9	
681.21	5732.9	
681.4	6326.2	
681.58	6232	
681.77	4953.4	
681.95	4884.4	
682.14	7194.5	
682.32	7520.1	
682.51	5982.8	
682.69	4658.4	
682.88	6221	
683.06	7012.2	
683.25	5586.2	
683.43	6187.6	
683.62	6466.8	
683.8	6905.1	
683.99	6192.4	
684.17	5386.8	
684.36	7842.4	
684.54	6451.1	
684.73	4484.4	
684.91	4771.8	
685.1	6785.6	
685.28	6201.9	
685.46	5417.6	
685.65	5567.1	
685.83	7087.3	
686.02	6371.2	
686.2	4948.6	
686.39	5081	
686.57	5913.9	
686.76	7868.3	
686.94	4954.7	
687.13	5060.5	
687.31	7032	
687.5	6414.2	
687.68	4511	
687.86	5860.6	
688.05	8299.1	
688.23	5907	
688.42	5859.2	
688.6	4953.4	
688.79	6290.7	
688.97	6343.9	
689.16	5436	
689.34	4211.3	
689.52	7036.1	
689.71	7290.1	
689.89	5697.4	
690.08	4874.8	
690.26	6560.3	
690.45	6404.7	
690.63	5881.8	
690.81	5118.6	
691	6242.2	
691.18	6192.4	
691.37	5240.8	
691.55	7681.2	
691.74	6178.7	
691.92	8390.5	
692.1	5308.3	
692.29	4663.2	
692.47	6471.6	
692.66	5693.4	
692.84	4882.4	
693.02	5623.7	
693.21	5806	
693.39	6309.8	
693.58	5613.5	
693.76	4979.3	
693.94	7736.5	
694.13	7466.2	
694.31	5051	
694.5	6107.7	
694.68	6237.4	
694.86	6571.2	
695.05	5375.9	
695.23	5473.5	
695.42	6965.8	
695.6	9432.9	
695.78	5930.9	
695.97	5018.9	
696.15	6925.5	
696.34	6262.7	
696.52	4733.5	
696.7	5710.4	
696.89	6664.8	
697.07	6045.6	
697.25	5520.6	
697.44	7265.5	
697.62	6608.8	
697.81	7043	
697.99	5237.3	
698.17	5726.1	
698.36	6017.6	
698.54	6667.5	
698.72	5655.1	
698.91	4599.1	
699.09	6209.4	
699.28	6190.3	
699.46	5290.6	
699.64	5080.3	
699.83	6008.1	
700.01	7402.7	
700.19	5916.6	
700.38	4259.8	
700.56	7458.7	
700.74	6222.4	
700.93	4805.2	
701.11	5637.4	
701.29	6858	
701.48	7871.7	
701.66	5023	
701.84	4947.9	
702.03	6219	
702.21	6988.4	
702.39	4468	
702.58	5093.3	
702.76	6685.9	
702.94	6840.2	
703.13	4505.5	
703.31	7281.2	
703.49	5972.6	
703.68	7442.3	
703.86	4756.1	
704.04	5827.2	
704.23	6575.3	
704.41	6996.5	
704.59	4881.7	
704.78	6306.4	
704.96	7697.6	
705.14	7101.7	
705.33	4744.5	
705.51	5627.1	
705.69	6444.3	
705.87	7364.5	
706.06	5909.1	
706.24	4625.7	
706.42	6754.2	
706.61	6972	
706.79	5951.4	
706.97	4686.4	
707.16	6081.1	
707.34	6821.8	
707.52	5910.4	
707.7	4958.8	
707.89	6397.9	
708.07	6014.2	
708.25	5932.3	
708.44	6049.7	
708.62	6271.6	
708.8	7526.3	
708.98	6185.5	
709.17	5034.6	
709.35	6677.7	
709.53	6722.8	
709.72	4649.6	
709.9	4937	
710.08	6975.4	
710.26	7059.3	
710.45	6568.5	
710.63	5045.5	
710.81	6647	
710.99	6627.9	
711.18	5834.7	
711.36	5287.9	
711.54	6451.1	
711.72	7157	
711.91	5284.4	
712.09	4644.8	
712.27	6632	
712.45	7256.6	
712.64	5607.3	
712.82	4434.5	
713	6115.9	
713.18	6207.4	
713.37	4645.5	
713.55	5978.7	
713.73	7144.7	
713.91	5653.1	
714.1	5064.6	
714.28	4536.9	
714.46	6819.7	
714.64	5992.4	
714.83	3963.5	
715.01	4918.5	
715.19	6186.2	
715.37	5652.4	
715.55	4668.7	
715.74	5057.8	
715.92	7267.6	
716.1	5111.7	
716.28	6210.1	
716.47	5195.7	
716.65	5771.2	
716.83	5958.9	
717.01	5059.8	
717.19	5125.4	
717.38	8247.9	
717.56	5595.1	
717.74	5378	
717.92	4439.3	
718.1	6985.6	
718.29	6157.6	
718.47	4032.5	
718.65	4757.4	
718.83	6779.5	
719.01	6733.7	
719.2	3830.4	
719.38	5040.1	
719.56	6336.4	
719.74	8101.1	
719.92	4476.2	
720.11	5662	
720.29	6375.3	
720.47	5430.5	
720.65	4042	
720.83	5012.7	
721.02	5905	
721.2	5558.2	
721.38	5180	
721.56	4268	
721.74	5143.8	
721.92	5394.3	
722.11	5666.7	
722.29	5378.6	
722.47	6690.7	
722.65	5862.7	
722.83	4356.7	
723.01	5434.6	
723.2	5927.5	
723.38	6212.9	
723.56	3743	
723.74	4989.5	
723.92	5406	
724.1	6656.6	
724.29	4274.1	
724.47	5530.9	
724.65	5393.7	
724.83	5374.6	
725.01	4175.1	
725.19	5167	
725.37	5486.5	
725.56	5642.2	
725.74	4085	
725.92	4360.1	
726.1	5355.4	
726.28	5732.9	
726.46	4863.9	
726.64	4506.2	
726.83	5715.9	
727.01	5989.6	
727.19	4034.5	
727.37	4951.3	
727.55	5872.2	
727.73	6328.9	
727.91	3992.9	
728.09	3854.3	
728.28	6431.3	
728.46	7027.3	
728.64	5124.7	
728.82	5031.2	
729	7643.7	
729.18	6748.1	
729.36	4229.1	
729.54	6708.5	
729.72	7899.7	
729.91	6063.4	
730.09	6311.8	
730.27	4904.2	
730.45	5885.2	
730.63	6647.7	
730.81	5587.5	
730.99	4573.8	
731.17	7184.3	
731.35	5658.5	
731.53	5078.3	
731.71	4642.7	
731.9	6828.6	
732.08	7120.1	
732.26	5000.5	
732.44	4577.2	
732.62	7122.2	
732.8	6588.3	
732.98	5435.3	
733.16	4398.4	
733.34	6597.2	
733.52	5275.6	
733.7	4904.2	
733.88	5273.5	
734.07	6399.2	
734.25	6170.5	
734.43	4327.4	
734.61	6171.2	
734.79	7708.6	
734.97	6016.2	
735.15	4534.9	
735.33	4907.6	
735.51	6460.7	
735.69	6063.4	
735.87	6246.3	
736.05	5208.7	
736.23	6256.5	
736.41	6072.2	
736.59	4989.5	
736.77	5134.3	
736.95	6733.7	
737.13	6164.4	
737.32	4637.3	
737.5	4958.1	
737.68	7350.2	
737.86	6001.2	
738.04	4410	
738.22	6463.4	
738.4	5836	
738.58	6234	
738.76	5182.7	
738.94	3956.7	
739.12	6068.1	
739.3	5870.8	
739.48	5875.6	
739.66	5543.9	
739.84	6331.6	
740.02	6290.7	
740.2	4164.9	
740.38	4556.7	
740.56	6797.9	
740.74	5562.3	
740.92	5174.5	
741.1	5165	
741.28	6139.1	
741.46	5994.4	
741.64	4811.4	
741.82	5312.4	
742	6162.3	
742.18	6199.2	
742.36	4986.8	
742.54	4553.3	
742.72	6805.4	
742.9	5394.3	
743.08	5451.7	
743.26	4173.8	
743.44	7102.4	
743.62	6880.5	
743.8	5662.6	
743.98	4591.5	
744.16	6581.5	
744.34	6228.6	
744.52	5556.8	
744.7	5504.3	
744.88	6705	
745.06	6185.5	
745.24	5571.8	
745.42	5709.7	
745.6	6766.5	
745.78	6534.4	
745.96	4345.8	
746.14	4714.4	
746.32	7643	
746.5	6873.7	
746.68	5403.9	
746.86	4777.2	
747.03	7359.7	
747.21	5504.9	
747.39	5298.8	
747.57	4698.7	
747.75	6452.5	
747.93	6900.3	
748.11	4733.5	
748.29	4659.8	
748.47	8135.2	
748.65	6120	
748.83	5536.3	
749.01	5236	
749.19	6664.1	
749.37	5778	
749.55	5102.2	
749.73	5236.7	
749.91	6275	
750.09	6014.2	
750.26	5308.3	
750.44	4495.3	
750.62	6351.4	
750.8	6371.9	
750.98	4440	
751.16	4831.2	
751.34	6440.2	
751.52	5699.5	
751.7	5686.5	
751.88	4400.4	
752.06	6969.2	
752.24	6689.3	
752.42	4318.5	
752.59	4823.6	
752.77	6313.2	
752.95	7686	
753.13	5560.2	
753.31	4859.1	
753.49	5982.8	
753.67	6453.8	
753.85	5274.9	
754.03	4782.7	
754.21	6756.2	
754.38	7163.8	
754.56	5031.9	
754.74	4029.7	
754.92	5970.5	
755.1	6805.4	
755.28	4029.7	
755.46	4000.4	
755.64	7551.5	
755.82	7709.9	
755.99	4316.4	
756.17	4417.5	
756.35	4902.2	
756.53	6743.3	
756.71	3276.8	
756.89	4272.7	
757.07	6290	
757.25	5262.6	
757.42	4832.5	
757.6	5847.6	
757.78	6350.1	
757.96	5234.6	
758.14	4548.5	
758.32	4015.4	
758.5	4647.5	
758.67	5657.9	
758.85	4348.5	
759.03	4443.4	
759.21	5889.3	
759.39	5279.7	
759.57	3863.8	
759.75	5132.2	
759.92	6466.8	
760.1	5649	
760.28	5494.7	
760.46	5753.4	
760.64	5442.8	
760.82	5182.7	
760.99	5421.7	
761.17	4500.8	
761.35	6369.2	
761.53	5311.1	
761.71	4631.1	
761.89	5358.9	
762.06	6310.5	
762.24	5724.8	
762.42	4730.8	
762.6	4468	
762.78	5699.5	
762.96	6504.3	
763.13	5107	
763.31	4835.9	
763.49	6680.5	
763.67	5712.5	
763.85	5722.7	
764.02	6318.7	
764.2	6980.8	
764.38	6113.2	
764.56	4666	
764.74	5658.5	
764.91	7080.5	
765.09	5918.6	
765.27	4257.7	
765.45	4088.4	
765.63	7138.5	
765.8	6953.5	
765.98	3816.7	
766.16	4265.9	
766.34	5420.3	
766.52	5263.3	
766.69	5216.2	
766.87	4025.6	
767.05	5874.3	
767.23	6806.1	
767.41	4382.7	
767.58	4691.2	
767.76	6561	
767.94	6565.1	
768.12	4530.1	
768.29	5418.2	
768.47	5988.9	
768.65	6722.8	
768.83	4104.8	
769	5347.9	
769.18	5514.5	
769.36	6277	
769.54	5150.6	
769.72	4164.2	
769.89	6587	
770.07	6761	
770.25	4461.8	
770.43	5834	
770.6	7419.1	
770.78	7932.5	
770.96	4656.4	
771.14	5427.8	
771.31	6483.9	
771.49	5827.2	
771.67	3787.4	
771.85	4082.3	
772.02	4990.9	
772.2	5888.6	
772.38	4893.3	
772.55	4347.2	
772.73	6122.1	
772.91	5807.4	
773.09	4764.3	
773.26	4862.6	
773.44	6049	
773.62	5779.4	
773.8	4211.3	
773.97	3881.6	
774.15	6105.7	
774.33	5700.2	
774.5	4151.2	
774.68	4545.8	
774.86	6380.8	
775.04	5726.8	
775.21	4202.4	
775.39	4155.3	
775.57	6023.8	
775.74	6494.1	
775.92	4069.3	
776.1	3986	
776.27	6009.4	
776.45	7389.8	
776.63	4170.3	
776.81	3728.7	
776.98	5599.1	
777.16	6864.1	
777.34	4397.7	
777.51	4713.7	
777.69	5594.4	
777.87	5391.6	
778.04	4406.5	
778.22	5097.4	
778.4	5360.2	
778.57	6201.9	
778.75	3644	
778.93	3943	
779.1	5165	
779.28	5073.5	
779.46	3639.2	
779.64	4179.9	
779.81	6256.5	
779.99	7347.4	
780.17	5040.7	
780.34	5225.1	
780.52	5631.2	
780.69	5925.5	
780.87	4524	
781.05	4007.9	
781.22	5773.9	
781.4	5859.2	
781.58	4235.9	
781.75	3335.5	
781.93	5793.7	
782.11	5161.6	
782.28	5203.9	
782.46	4169	
782.64	4941.1	
782.81	5927.5	
782.99	4328.7	
783.17	4245.4	
783.34	5917.9	
783.52	5005.2	
783.69	4490.5	
783.87	5375.9	
784.05	5119.2	
784.22	5156.8	
784.4	5388.2	
784.58	4593.6	
784.75	6193.1	
784.93	5141.1	
785.1	4246.8	
785.28	4936.3	
785.46	5787.6	
785.63	5143.8	
785.81	4207.9	
785.99	4044.1	
786.16	5285.8	
786.34	5774.6	
786.51	4028.4	
786.69	4554.7	
786.87	4871.4	
787.04	5493.3	
787.22	3469.3	
787.39	4950.6	
787.57	5130.8	
787.75	6369.9	
787.92	5146.5	
788.1	4844.8	
788.27	5255.1	
788.45	4913.1	
788.63	4762.9	
788.8	3386	
788.98	5593	
789.15	4896.7	
789.33	3529.3	
789.5	4205.8	
789.68	6198.5	
789.86	6331	
790.03	4492.6	
790.21	4118.5	
790.38	6189.6	
790.56	5299.5	
790.73	3912.3	
790.91	3988.1	
791.09	5171.1	
791.26	6065.4	
791.44	4136.9	
791.61	3600.3	
791.79	5141.1	
791.96	5239.4	
792.14	3802.4	
792.32	3241.3	
792.49	5209.3	
792.67	5314.5	
792.84	3779.2	
793.02	3605.1	
793.19	5569.8	
793.37	6531.7	
793.54	3375.7	
793.72	3627.6	
793.89	6661.4	
794.07	5201.8	
794.25	4399	
794.42	3392.8	
794.6	6303.6	
794.77	5969.1	
794.95	4674.8	
795.12	4082.3	
795.3	5177.3	
795.47	5899.5	
795.65	4519.9	
795.82	4246.8	
796	4963.6	
796.17	7139.2	
796.35	4106.9	
796.52	4881.7	
796.7	5766.4	
796.87	5864	
797.05	5130.2	
797.22	5083.1	
797.4	5792.3	
797.57	6888.7	
797.75	4203.1	
797.92	4009.9	
798.1	6150.1	
798.27	5237.3	
798.45	3390.1	
798.62	3687.7	
798.8	5507	
798.97	6098.2	
799.15	4556	
799.32	4306.9	
799.5	4722.6	
799.67	5566.4	
799.85	4698	
800.02	3345	
800.2	5138.4	
800.37	5478.3	
800.55	4831.2	
800.72	4014.7	
800.9	6025.1	
801.07	6510.5	
801.25	5467.4	
801.42	4487.1	
801.6	6030.6	
801.77	5758.9	
801.95	3906.8	
802.12	3911.6	
802.29	5675.6	
802.47	5725.4	
802.64	4404.5	
802.82	3246	
802.99	5106.3	
803.17	6253.1	
803.34	4280.9	
803.52	3884.3	
803.69	6924.2	
803.87	4887.8	
804.04	4246.1	
804.21	4345.1	
804.39	6410.8	
804.56	5408	
804.74	3560.1	
804.91	4437.9	
805.09	5139.7	
805.26	5309	
805.44	3667.2	
805.61	4068.6	
805.78	5906.3	
805.96	5954.1	
806.13	4426.3	
806.31	4797.7	
806.48	4691.2	
806.66	5248.9	
806.83	4460.5	
807	4302.1	
807.18	5144.5	
807.35	5552.7	
807.53	4229.1	
807.7	3394.2	
807.87	6478.4	
808.05	5190.2	
808.22	4772.4	
808.4	3411.2	
808.57	5261.9	
808.74	4863.2	
808.92	3959.4	
809.09	5110.4	
809.27	5074.9	
809.44	5834	
809.61	3515	
809.79	3884.3	
809.96	6450.4	
810.14	6038.1	
810.31	3322.5	
810.48	4151.9	
810.66	5341.8	
810.83	6169.8	
811.01	3888.4	
811.18	4694.6	
811.35	6057.2	
811.53	4647.5	
811.7	4846.9	
811.87	4480.3	
812.05	5221.6	
812.22	5148.6	
812.39	3766.9	
812.57	3690.4	
812.74	5214.8	
812.92	7033.4	
813.09	4122.6	
813.26	4545.8	
813.44	6731	
813.61	5145.2	
813.78	3457	
813.96	4625.7	
814.13	5216.9	
814.3	4857.1	
814.48	5030.5	
814.65	4138.9	
814.82	6662.7	
815	5028.4	
815.17	4237.9	
815.34	5236	
815.52	5140.4	
815.69	5118.6	
815.87	4208.6	
816.04	3591.5	
816.21	5233.9	
816.38	4600.4	
816.56	4123.2	
816.73	3790.8	
816.9	6684.6	
817.08	6091.3	
817.25	3887.7	
817.42	4896	
817.6	4769	
817.77	5255.1	
817.94	4377.2	
818.12	3771	
818.29	4958.8	
818.46	7922.9	
818.64	3962.8	
818.81	3723.9	
818.98	4844.1	
819.16	7233.4	
819.33	4628.4	
819.5	4276.8	
819.67	5595.1	
819.85	6344.6	
820.02	4216.8	
820.19	4481.6	
820.37	5477.6	
820.54	4986.1	
820.71	4334.9	
820.88	5459.9	
821.06	5476.3	
821.23	5004.6	
821.4	4334.9	
821.58	4320.5	
821.75	5945.9	
821.92	5367	
822.09	3496.6	
822.27	3593.5	
822.44	5291.3	
822.61	5092.6	
822.79	3527.3	
822.96	6819.7	
823.13	5755.5	
823.3	4948.6	
823.48	4091.8	
823.65	3614	
823.82	5946.6	
823.99	4719.9	
824.17	5195.7	
824.34	3706.1	
824.51	6980.8	
824.68	5253	
824.86	3831.7	
825.03	4302.8	
825.2	5200.5	
825.37	6456.6	
825.55	3780.6	
825.72	4382	
825.89	7071	
826.06	6540.5	
826.24	4164.2	
826.41	4221.5	
826.58	6391.7	
826.75	5536.3	
826.92	3226.9	
827.1	3605.8	
827.27	8845.2	
827.44	7020.4	
827.61	3958	
827.79	4881	
827.96	4922	
828.13	5352	
828.3	4110.3	
828.47	3478.8	
828.65	5476.3	
828.82	5401.9	
828.99	5454.4	
829.16	4738.3	
829.34	5874.3	
829.51	5660.6	
829.68	4282.3	
829.85	4410.6	
830.02	6219.7	
830.2	5918.6	
830.37	3259	
830.54	5233.2	
830.71	6813.6	
830.88	5195.7	
831.05	3320.4	
831.23	3877.5	
831.4	6493.4	
831.57	7350.2	
831.74	3989.4	
831.91	3519.1	
832.09	5451	
832.26	5864.7	
832.43	4145.8	
832.6	4660.5	
832.77	5456.5	
832.94	6303.6	
833.12	3257	
833.29	4072	
833.46	5057.1	
833.63	7570	
833.8	4416.1	
833.97	4139.6	
834.15	5909.1	
834.32	5594.4	
834.49	4324.6	
834.66	4395.6	
834.83	6095.4	
835	4926.7	
835.17	3986	
835.35	4005.1	
835.52	5751.4	
835.69	5638.1	
835.86	4252.3	
836.03	3401.7	
836.2	5829.9	
836.37	5479	
836.55	4116.4	
836.72	3870.7	
836.89	5385.5	
837.06	5917.9	
837.23	4188.1	
837.4	4616.8	
837.57	6745.3	
837.75	7492.2	
837.92	3839.3	
838.09	4012	
838.26	5369.8	
838.43	6257.2	
838.6	4347.8	
838.77	3830.4	
838.94	7120.1	
839.11	6773.3	
839.29	4145.1	
839.46	3235.8	
839.63	5802.6	
839.8	5588.2	
839.97	3955.3	
840.14	3996.3	
840.31	5629.9	
840.48	5908.4	
840.65	3360	
840.82	3883.6	
841	5812.8	
841.17	5763.7	
841.34	3725.3	
841.51	3743	
841.68	5677	
841.85	5497.4	
842.02	3829	
842.19	3145.7	
842.36	5593	
842.53	5533.6	
842.7	3638.6	
842.87	4579.3	
843.05	7457.3	
843.22	5537.7	
843.39	3451.5	
843.56	3747.1	
843.73	5319.9	
843.9	5887.2	
844.07	6052.4	
844.24	4937.7	
844.41	8757.1	
844.58	5096	
844.75	3528.7	
844.92	3820.8	
845.09	5859.2	
845.26	5928.2	
845.43	3678.2	
845.6	3835.8	
845.77	5898.8	
845.94	5535	
846.12	4052.2	
846.29	4334.9	
846.46	6064	
846.63	5881.8	
846.8	3672.7	
846.97	4360.1	
847.14	6345.3	
847.31	5809.4	
847.48	4111	
847.65	4579.3	
847.82	6180.8	
847.99	6156.9	
848.16	4996.4	
848.33	4580.6	
848.5	5382.7	
848.67	6347.3	
848.84	3646.7	
849.01	3752.6	
849.18	5248.9	
849.35	4875.5	
849.52	4643.4	
849.69	3572.3	
849.86	6050.4	
850.03	6337.1	
850.2	3646.1	
850.37	4493.9	
850.54	6236.7	
850.71	5527.5	
850.88	4447.5	
851.05	3632.4	
851.22	5765.7	
851.39	6386.2	
851.56	3463.8	
851.73	4206.5	
851.9	5072.8	
852.07	6100.9	
852.24	4068.6	
852.41	3635.1	
852.58	5685.8	
852.75	5210	
852.92	4089.1	
853.09	3535.5	
853.26	5411.4	
853.43	6331	
853.6	3596.9	
853.77	3105.4	
853.94	6457.9	
854.11	5830.6	
854.28	5494.7	
854.44	3966.2	
854.61	6947.4	
854.78	5946.6	
854.95	3623.5	
855.12	4680.3	
855.29	4714.4	
855.46	6535.1	
855.63	3618.8	
855.8	5167.7	
855.97	5423	
856.14	6227.9	
856.31	5188.2	
856.48	4018.8	
856.65	5343.8	
856.82	5033.9	
856.99	3500	
857.16	3958.7	
857.33	7261.4	
857.49	5444.9	
857.66	3922.5	
857.83	4256.4	
858	5464	
858.17	5624.4	
858.34	3442	
858.51	3610.6	
858.68	6625.2	
858.85	6688.7	
859.02	4300.1	
859.19	4549.2	
859.36	5047.6	
859.52	5209.3	
859.69	3663.8	
859.86	4345.1	
860.03	5211.4	
860.2	6466.1	
860.37	3281.5	
860.54	3617.4	
860.71	6078.4	
860.88	6559	
861.05	4100.7	
861.21	4624.3	
861.38	6571.2	
861.55	4982.7	
861.72	3317	
861.89	4109.6	
862.06	6239.5	
862.23	6767.9	
862.4	3551.9	
862.56	3802.4	
862.73	5969.1	
862.9	5644.9	
863.07	4332.1	
863.24	3334.1	
863.41	5006.6	
863.58	5140.4	
863.75	3738.2	
863.91	4229.7	
864.08	6550.1	
864.25	6032	
864.42	4657.8	
864.59	5133.6	
864.76	6885.3	
864.93	5126.7	
865.09	3556	
865.26	3902.7	
865.43	6414.2	
865.6	6842.3	
865.77	3134.8	
865.94	3651.5	
866.1	6456.6	
866.27	6144.6	
866.44	5560.2	
866.61	3498.6	
866.78	5509	
866.95	5939.8	
867.11	3538.9	
867.28	3242.6	
867.45	6180.1	
867.62	5210	
867.79	4240.7	
867.96	3616.7	
868.12	5106.3	
868.29	6154.1	
868.46	3609.9	
868.63	4930.8	
868.8	6368.5	
868.97	6142.5	
869.13	3822.9	
869.3	3820.8	
869.47	5970.5	
869.64	6146	
869.81	3625.6	
869.97	3654.3	
870.14	5867.4	
870.31	6605.4	
870.48	3614.7	
870.65	4662.5	
870.81	5522.7	
870.98	5443.5	
871.15	4158.7	
871.32	3787.4	
871.48	5917.3	
871.65	6697.5	
871.82	3661.8	
871.99	3999.7	
872.16	7122.2	
872.32	6445	
872.49	3622.2	
872.66	3639.9	
872.83	6070.9	
872.99	5337	
873.16	4197	
873.33	3608.5	
873.5	5722	
873.67	5790.3	
873.83	3860.4	
874	4951.3	
874.17	5887.9	
874.34	7052.5	
874.5	4725.3	
874.67	4603.2	
874.84	6651.8	
875.01	5132.2	
875.17	5186.8	
875.34	3644.7	
875.51	5766.4	
875.68	6933.7	
875.84	4371	
876.01	5408.7	
876.18	6100.9	
876.34	6016.2	
876.51	3699.3	
876.68	3541.6	
876.85	5552.7	
877.01	6419.7	
877.18	5225.7	
877.35	3647.4	
877.52	5606	
877.68	4992.9	
877.85	3581.9	
878.02	3611.3	
878.18	5641.5	
878.35	5297.4	
878.52	2945	
878.69	4134.8	
878.85	6149.4	
879.02	6116.6	
879.19	5180	
879.35	3976.5	
879.52	6083.1	
879.69	6273.6	
879.86	3151.1	
880.02	4121.9	
880.19	5616.2	
880.36	6905.8	
880.52	4237.9	
880.69	4349.9	
880.86	6161.7	
881.02	6210.1	
881.19	4003.1	
881.36	4020.8	
881.52	6029.2	
881.69	5284.4	
881.86	3913	
882.02	3843.4	
882.19	6380.8	
882.36	7465.5	
882.52	3713.7	
882.69	5225.1	
882.86	5767.1	
883.02	5703.6	
883.19	4494.6	
883.36	4175.1	
883.52	6223.8	
883.69	7077.8	
883.86	3663.1	
884.02	3283.6	
884.19	6096.8	
884.36	5582.1	
884.52	4156	
884.69	3899.3	
884.86	5324	
885.02	6778.8	
885.19	4113	
885.36	4215.4	
885.52	5661.3	
885.69	5810.8	
885.86	5334.3	
886.02	4716.5	
886.19	6113.9	
886.35	5567.1	
886.52	4046.8	
886.69	5223	
886.85	5204.6	
887.02	6606.7	
887.19	6606.7	
887.35	6606.7	
887.52	6606.7	
887.68	6606.7	
887.85	6606.7	
888.02	6606.7	
888.18	6606.7	
888.35	6606.7	
888.51	6606.7	
888.68	6606.7	
888.85	6606.7	
889.01	6606.7	
889.18	6606.7	
889.35	6606.7	
889.51	6606.7	
889.68	6606.7	
889.84	6606.7	
890.01	6606.7	
890.17	6606.7	
890.34	6606.7	
890.51	6606.7	
890.67	6606.7	
890.84	6606.7	
891	6606.7	
891.17	6606.7	
891.34	6606.7	
891.5	6606.7	
891.67	6606.7	
891.83	6606.7	
892	6606.7	
892.16	6606.7	
892.33	6606.7	
892.5	6606.7	
892.66	6606.7	
892.83	6606.7	
892.99	6606.7	
893.16	6606.7	
893.32	6606.7	
893.49	6606.7	
893.65	6606.7	
893.82	6606.7	
893.99	6606.7	
894.15	6606.7	
894.32	6606.7	
894.48	6606.7	
894.65	6606.7	
894.81	6606.7	
894.98	6606.7	
895.14	6606.7	
895.31	6606.7	
895.47	6606.7	
895.64	6606.7	
895.81	6606.7	
895.97	6606.7	
896.14	6606.7	
896.3	6606.7	
896.47	6606.7	
896.63	6606.7	
896.8	6606.7	
896.96	6606.7	
897.13	6606.7	
897.29	6606.7	
897.46	6606.7	
897.62	6606.7	
897.79	6606.7	
897.95	6606.7	
898.12	6606.7	
898.28	6606.7	
898.45	6606.7	
898.61	6606.7	
898.78	6606.7	
898.94	6606.7	
899.11	6606.7	
899.27	6606.7	
899.44	6606.7	
899.6	6606.7	
899.77	6606.7	
899.93	6606.7	
900.1	6606.7	
900.26	6606.7	
900.43	6606.7	
900.59	6606.7	
900.76	6606.7	
900.92	6606.7	
901.09	6606.7	
901.25	6606.7	
901.42	6606.7	
901.58	6606.7	
901.75	6606.7	
901.91	6606.7	
902.07	6606.7	
902.24	6606.7	
902.4	6606.7	
902.57	6606.7	
902.73	6606.7	
902.9	6606.7	
903.06	6606.7	
903.23	6606.7	
903.39	6606.7	
903.56	6606.7	
903.72	6606.7	
903.88	6606.7	
904.05	6606.7	
904.21	6606.7	
904.38	6606.7	
904.54	6606.7	
904.71	6606.7	
904.87	6606.7	
905.03	6606.7	
905.2	6606.7	
905.36	6606.7	
905.53	6606.7	
905.69	6606.7	
905.86	6606.7	
906.02	6606.7	
906.18	6606.7	
906.35	6606.7	
906.51	6606.7	
906.68	6606.7	
906.84	6606.7	
907.01	6606.7	
907.17	6606.7	
907.33	6606.7	
907.5	6606.7	
907.66	6606.7	
907.83	6606.7	
907.99	6606.7	
908.15	6606.7	
908.32	6606.7	
908.48	6606.7	
908.65	6606.7	
908.81	6606.7	
908.97	6606.7	
909.14	6606.7	
909.3	6606.7	
909.47	6606.7	
909.63	6606.7	
909.79	6606.7	
909.96	6606.7	
910.12	6606.7	
910.28	6606.7	
910.45	6606.7	
910.61	6606.7	
910.78	6606.7	
910.94	6606.7	
911.1	6606.7	
911.27	6606.7	
911.43	6606.7	
911.59	6606.7	
911.76	6606.7	
911.92	6606.7	
912.08	6606.7	
912.25	6606.7	
912.41	6606.7	
912.57	6606.7	
912.74	6606.7	
912.9	6606.7	
913.07	6606.7	
913.23	6606.7	
913.39	6606.7	
913.56	6606.7	
913.72	6606.7	
913.88	6606.7	
914.05	6606.7	
914.21	6606.7	
914.37	6606.7	
914.54	6606.7	
914.7	6606.7	
914.86	6606.7	
915.03	6606.7	
915.19	6606.7	
