Wavelength	Intensities	
nm	a.u.	
179.22	1924.6	
179.44	1924.1	
179.65	1925.1	
179.86	1923	
180.08	1934	
180.29	4950.6	
180.51	3547.1	
180.72	5644.2	
180.94	6691.4	
181.15	3252.2	
181.37	3181.9	
181.58	5547.9	
181.79	5851	
182.01	3311.6	
182.22	3641.3	
182.44	5728.9	
182.65	4859.1	
182.87	4562.9	
183.08	4044.7	
183.29	6118.6	
183.51	5005.9	
183.72	3640.6	
183.94	5391.6	
184.15	5464	
184.37	5431.9	
184.58	3213.3	
184.79	4429.8	
185.01	5003.2	
185.22	5775.3	
185.44	4698	
185.65	3983.3	
185.86	5288.5	
186.08	4889.2	
186.29	3127.9	
186.51	3417.4	
186.72	5030.5	
186.94	5908.4	
187.15	3881.6	
187.36	3975.8	
187.58	7763.8	
187.79	5528.2	
188.01	4231.1	
188.22	6597.9	
188.43	6627.2	
188.65	5746.6	
188.86	3321.1	
189.08	4027	
189.29	5182	
189.5	5212.8	
189.72	3734.1	
189.93	3749.1	
190.15	5988.3	
190.36	7194.5	
190.57	4139.6	
190.79	3979.9	
191	6050.4	
191.22	6013.5	
191.43	4154	
191.64	3331.4	
191.86	6261.3	
192.07	5947.3	
192.29	3530.7	
192.5	3763.5	
192.71	6005.3	
192.93	5158.2	
193.14	3696.6	
193.35	3818.1	
193.57	5208.7	
193.78	5961	
194	2999.6	
194.21	3636.5	
194.42	4958.8	
194.64	5415.5	
194.85	3999.7	
195.07	4796.3	
195.28	5449.6	
195.49	4746.5	
195.71	5007.3	
195.92	3439.9	
196.13	5632.6	
196.35	5752.7	
196.56	5328.8	
196.78	4077.5	
196.99	7040.2	
197.2	6638.1	
197.42	4635.9	
197.63	4116.4	
197.84	4834.6	
198.06	5666.7	
198.27	3747.1	
198.48	4942.4	
198.7	5214.8	
198.91	5289.2	
199.13	4038.6	
199.34	4055	
199.55	5802.6	
199.77	4714.4	
199.98	3586.7	
200.19	4124.6	
200.41	5373.2	
200.62	4983.4	
200.83	4240	
201.05	4627	
201.26	5367	
201.47	5049.6	
201.69	3606.5	
201.9	3440.6	
202.11	5438	
202.33	6492.7	
202.54	3865.2	
202.76	4275.5	
202.97	5526.1	
203.18	5550.7	
203.4	4200.4	
203.61	4132.8	
203.82	5522	
204.04	5130.8	
204.25	4119.8	
204.46	4057.7	
204.68	5461.9	
204.89	5688.6	
205.1	4026.3	
205.32	3433.8	
205.53	5868.8	
205.74	6003.3	
205.96	2948.4	
206.17	4193.6	
206.38	5792.3	
206.6	5941.8	
206.81	4666	
207.02	3780.6	
207.24	5756.8	
207.45	6055.2	
207.66	3881.6	
207.88	3347.7	
208.09	5659.2	
208.3	5393.7	
208.52	3566.9	
208.73	3855.6	
208.94	5410.1	
209.15	6225.8	
209.37	3849.5	
209.58	4135.5	
209.79	6000.5	
210.01	5214.8	
210.22	3130.7	
210.43	3218	
210.65	5489.9	
210.86	5893.4	
211.07	3902.1	
211.29	3587.4	
211.5	5823.7	
211.71	5333.6	
211.93	3557.3	
212.14	3525.9	
212.35	5373.9	
212.56	5610.8	
212.78	4078.9	
212.99	3338.9	
213.2	6427.9	
213.42	5236	
213.63	3637.9	
213.84	4003.1	
214.06	4798.4	
214.27	4937	
214.48	3827.7	
214.69	4113	
214.91	6114.6	
215.12	6241.5	
215.33	4188.1	
215.55	4691.2	
215.76	6694.8	
215.97	5842.9	
216.18	3955.3	
216.4	3928.7	
216.61	5067.4	
216.82	5840.8	
217.04	3585.3	
217.25	3693.2	
217.46	6095.4	
217.67	5801.2	
217.89	3222.1	
218.1	3300	
218.31	5455.8	
218.53	5594.4	
218.74	3822.9	
218.95	3643.3	
219.16	5395.7	
219.38	6326.9	
219.59	3650.8	
219.8	4322.6	
220.01	7063.4	
220.23	5414.8	
220.44	4825.7	
220.65	3510.2	
220.87	5445.5	
221.08	6079.1	
221.29	3265.1	
221.5	4342.4	
221.72	7460.1	
221.93	5127.4	
222.14	4143	
222.35	4819.6	
222.57	5439.4	
222.78	5751.4	
222.99	3898.6	
223.2	4217.5	
223.42	5755.5	
223.63	5852.4	
223.84	2985.9	
224.05	2975.7	
224.27	6943.3	
224.48	6223.1	
224.69	4835.3	
224.9	4135.5	
225.12	5638.7	
225.33	5409.4	
225.54	3257	
225.75	3630.4	
225.97	4978.6	
226.18	5327.4	
226.39	3926.6	
226.6	3673.4	
226.82	5137	
227.03	5044.8	
227.24	4145.1	
227.45	3355.9	
227.67	5831.9	
227.88	6350.1	
228.09	4497.3	
228.3	4626.4	
228.52	5818.3	
228.73	5369.8	
228.94	3798.3	
229.15	3329.3	
229.36	5367.7	
229.58	5270.8	
229.79	3822.9	
230	4465.9	
230.21	6413.6	
230.43	5521.3	
230.64	4055.7	
230.85	4220.9	
231.06	5954.8	
231.28	5918.6	
231.49	3336.8	
231.7	3906.8	
231.91	5732.3	
232.12	5451.7	
232.34	3473.4	
232.55	3933.5	
232.76	6103.6	
232.97	5655.8	
233.18	3552.5	
233.4	4023.6	
233.61	5618.9	
233.82	5160.2	
234.03	3730	
234.25	3700.7	
234.46	7552.2	
234.67	5566.4	
234.88	4197	
235.09	3621.5	
235.31	5795.8	
235.52	5307	
235.73	4014.7	
235.94	3514.3	
236.15	5143.1	
236.37	6584.9	
236.58	3641.3	
236.79	3866.6	
237	5747.3	
237.21	4922.6	
237.43	4149.9	
237.64	3306.1	
237.85	9925.1	
238.06	4981.3	
238.27	4264.6	
238.48	3408.5	
238.7	5807.4	
238.91	5274.2	
239.12	3880.9	
239.33	4005.1	
239.54	5210.7	
239.76	5356.1	
239.97	3922.5	
240.18	3936.9	
240.39	6860	
240.6	5757.5	
240.82	4033.8	
241.03	3308.8	
241.24	5418.9	
241.45	6283.2	
241.66	3581.9	
241.87	4222.2	
242.09	6201.9	
242.3	6574	
242.51	4278.9	
242.72	3962.1	
242.93	5915.9	
243.14	5382.1	
243.36	4466.6	
243.57	4944.5	
243.78	6309.1	
243.99	5735	
244.2	3953.9	
244.41	3590.1	
244.63	4937.7	
244.84	5705.6	
245.05	4220.9	
245.26	3949.8	
245.47	5679.7	
245.68	6010.8	
245.9	5223	
246.11	4126.7	
246.32	5279.7	
246.53	5711.1	
246.74	6322.1	
246.95	3319.1	
247.16	4922.6	
247.38	5427.8	
247.59	3263.8	
247.8	3949.2	
248.01	5134.9	
248.22	5334.3	
248.43	3511.6	
248.64	3848.1	
248.86	4796.3	
249.07	5229.8	
249.28	3442.6	
249.49	4021.5	
249.7	5967.1	
249.91	6161	
250.12	3248.8	
250.34	3349.1	
250.55	5586.2	
250.76	5429.8	
250.97	4072	
251.18	4111.6	
251.39	6133	
251.6	5574.6	
251.81	4093.2	
252.03	4164.9	
252.24	5126.1	
252.45	5921.4	
252.66	3426.3	
252.87	4360.8	
253.08	5519.3	
253.29	7159	
253.5	3392.8	
253.72	4772.4	
253.93	5300.1	
254.14	6464.1	
254.35	3744.4	
254.56	3776.5	
254.77	5622.4	
254.98	5049.6	
255.19	3611.9	
255.41	4736.3	
255.62	5597.1	
255.83	6153.5	
256.04	4217.5	
256.25	4139.6	
256.46	6731.7	
256.67	5143.1	
256.88	4009.9	
257.09	4521.2	
257.31	5076.2	
257.52	5110.4	
257.73	5096	
257.94	3701.4	
258.15	5245.5	
258.36	5477	
258.57	4678.9	
258.78	2930.6	
258.99	5915.9	
259.2	5251.7	
259.41	3752.6	
259.63	3838.6	
259.84	6251.8	
260.05	6797.2	
260.26	4940.4	
260.47	3627	
260.68	6029.2	
260.89	5337	
261.1	4512.4	
261.31	3564.8	
261.52	5977.3	
261.73	6438.1	
261.95	4853.7	
262.16	4233.2	
262.37	6169.8	
262.58	6266.1	
262.79	4817.5	
263	3790.1	
263.21	5472.9	
263.42	4949.3	
263.63	3834.5	
263.84	3766.9	
264.05	6008.7	
264.26	6402	
264.47	4663.9	
264.69	4204.5	
264.9	6137.8	
265.11	5623	
265.32	3583.9	
265.53	3703.4	
265.74	5569.1	
265.95	4901.5	
266.16	4005.8	
266.37	4413.4	
266.58	5593.7	
266.79	5273.5	
267	3735.5	
267.21	3404.4	
267.42	5009.3	
267.63	5428.5	
267.84	3910.3	
268.06	3360	
268.27	5859.9	
268.48	6201.9	
268.69	3859.1	
268.9	4615.4	
269.11	6168.5	
269.32	4870.8	
269.53	3891.8	
269.74	3657	
269.95	5758.9	
270.16	4785.4	
270.37	3910.3	
270.58	4593.6	
270.79	5255.8	
271	6004	
271.21	4178.5	
271.42	3967.6	
271.63	5564.3	
271.84	5048.9	
272.05	3144.3	
272.26	3556.6	
272.47	5431.2	
272.68	5605.3	
272.89	3735.5	
273.11	4347.8	
273.32	5275.6	
273.53	6374	
273.74	4256.4	
273.95	4144.4	
274.16	6012.2	
274.37	5502.2	
274.58	4325.3	
274.79	3392.1	
275	5590.3	
275.21	6165.1	
275.42	5216.9	
275.63	4405.9	
275.84	5668.8	
276.05	7192.5	
276.26	4119.8	
276.47	3874.1	
276.68	5264.6	
276.89	6477	
277.1	4457.1	
277.31	3437.9	
277.52	5694.7	
277.73	5847	
277.94	3407.1	
278.15	3793.5	
278.36	5672.9	
278.57	5072.1	
278.78	3708.2	
278.99	4231.8	
279.2	5031.2	
279.41	5005.2	
279.62	4913.1	
279.83	3516.4	
280.04	6669.6	
280.25	4980.7	
280.46	4928.8	
280.67	3933.5	
280.88	5081.7	
281.09	6169.2	
281.3	4113	
281.51	5253	
281.72	5912.5	
281.93	6013.5	
282.14	3667.2	
282.35	3949.2	
282.56	5887.2	
282.77	5952.8	
282.98	3740.3	
283.19	4685.1	
283.4	7350.8	
283.61	5399.1	
283.82	3376.4	
284.03	4872.1	
284.24	5563.6	
284.45	6131.6	
284.66	4854.4	
284.87	4729.4	
285.08	6049	
285.29	6234	
285.5	3309.5	
285.71	3822.2	
285.92	6066.8	
286.12	6771.3	
286.33	4893.3	
286.54	3808.5	
286.75	5991.7	
286.96	5281.7	
287.17	3483.6	
287.38	4771.8	
287.59	5073.5	
287.8	4998.4	
288.01	3840.6	
288.22	4497.3	
288.43	5917.9	
288.64	4969.7	
288.85	4598.4	
289.06	4385.4	
289.27	6017.6	
289.48	6374.6	
289.69	4880.3	
289.9	4427	
290.11	6123.4	
290.32	5175.2	
290.53	4654.4	
290.74	4279.6	
290.94	5870.8	
291.15	5920.7	
291.36	3710.2	
291.57	4397	
291.78	5174.5	
291.99	4899.4	
292.2	3493.8	
292.41	4237.9	
292.62	6010.1	
292.83	5799.8	
293.04	5300.8	
293.25	3545	
293.46	5199.1	
293.67	6054.5	
293.88	3682.2	
294.09	3534.1	
294.29	4988.2	
294.5	5615.5	
294.71	3914.4	
294.92	3725.9	
295.13	5204.6	
295.34	6537.1	
295.55	3300	
295.76	3408.5	
295.97	5893.4	
296.18	6660.7	
296.39	3456.3	
296.6	3693.9	
296.81	5578.7	
297.01	5907	
297.22	3803.1	
297.43	3667.2	
297.64	5064.6	
297.85	5101.5	
298.06	3027.6	
298.27	3300.6	
298.48	5513.8	
298.69	5165	
298.9	4009.2	
299.11	3558	
299.31	4958.1	
299.52	4960.2	
299.73	4250.2	
299.94	4180.6	
300.15	5385.5	
300.36	5090.6	
300.57	4181.3	
300.78	4186	
300.99	5339.7	
301.2	5532.2	
301.4	3602.4	
301.61	4017.4	
301.82	5825.8	
302.03	5900.2	
302.24	4480.3	
302.45	3451.5	
302.66	5767.1	
302.87	6221.7	
303.08	3639.9	
303.29	5043.5	
303.49	5177.3	
303.7	5465.3	
303.91	3241.9	
304.12	4810	
304.33	4915.8	
304.54	5578.7	
304.75	3731.4	
304.96	3563.5	
305.16	5804.6	
305.37	6548	
305.58	3161.4	
305.79	3327.3	
306	5790.3	
306.21	4853.7	
306.42	3664.5	
306.63	5691.3	
306.83	5335	
307.04	6073.6	
307.25	4030.4	
307.46	3978.5	
307.67	4659.1	
307.88	5888.6	
308.09	3643.3	
308.29	3786.7	
308.5	5556.8	
308.71	6032.6	
308.92	3952.6	
309.13	3539.6	
309.34	5367.7	
309.55	5388.2	
309.75	4591.5	
309.96	4222.2	
310.17	5857.2	
310.38	5164.3	
310.59	4468.7	
310.8	3422.8	
311.01	5464	
311.21	5308.3	
311.42	3525.2	
311.63	3638.6	
311.84	5185.5	
312.05	5608.7	
312.26	4099.4	
312.46	4557.4	
312.67	5271.5	
312.88	4960.2	
313.09	3530.7	
313.3	3435.1	
313.51	6270.2	
313.71	6651.1	
313.92	3547.1	
314.13	3711.6	
314.34	5623	
314.55	5292	
314.76	4587.4	
314.96	4018.1	
315.17	5579.3	
315.38	5993	
315.59	3556.6	
315.8	3404.4	
316.01	6339.8	
316.21	6345.3	
316.42	3450.8	
316.63	3965.6	
316.84	5313.8	
317.05	6173.3	
317.26	4158.7	
317.46	3781.9	
317.67	5361.6	
317.88	5855.1	
318.09	4554.7	
318.3	3325.2	
318.5	5177.3	
318.71	5778	
318.92	5830.6	
319.13	4239.3	
319.34	5966.4	
319.54	6145.3	
319.75	3302	
319.96	3158.7	
320.17	5871.5	
320.38	6040.8	
320.58	3222.1	
320.79	3867.2	
321	6069.5	
321.21	6264.7	
321.42	3911.6	
321.62	3252.2	
321.83	5039.4	
322.04	5520.6	
322.25	3737.5	
322.46	3601	
322.66	5577.3	
322.87	5688.6	
323.08	4408.6	
323.29	3466.5	
323.5	6505	
323.7	5013.4	
323.91	4824.3	
324.12	4357.4	
324.33	5521.3	
324.53	5730.9	
324.74	4158.7	
324.95	4404.5	
325.16	4814.8	
325.37	5274.2	
325.57	3549.1	
325.78	3642.7	
325.99	5507.7	
326.2	4896.7	
326.4	5181.4	
326.61	3308.2	
326.82	5432.6	
327.03	5541.1	
327.24	5091.9	
327.44	4788.2	
327.65	5741.8	
327.86	4614.8	
328.07	4227	
328.27	3424.2	
328.48	6146.6	
328.69	5049.6	
328.9	5202.5	
329.1	3886.4	
329.31	5328.8	
329.52	6312.5	
329.73	3561.4	
329.93	4031.1	
330.14	5471.5	
330.35	5674.9	
330.56	5867.4	
330.76	4417.5	
330.97	5275.6	
331.18	5664	
331.39	3921.2	
331.59	3180.5	
331.8	6079.1	
332.01	6153.5	
332.22	3637.9	
332.42	4191.5	
332.63	5565.7	
332.84	5178.6	
333.05	3992.9	
333.25	3602.4	
333.46	5255.1	
333.67	5477.6	
333.88	3728	
334.08	4176.5	
334.29	7264.1	
334.5	6139.1	
334.7	3450.1	
334.91	5140.4	
335.12	4973.2	
335.33	5834.7	
335.53	3960.1	
335.74	5849.7	
335.95	5216.9	
336.16	5102.2	
336.36	4018.1	
336.57	4571.7	
336.78	4952	
336.98	6062.7	
337.19	4915.1	
337.4	3813.3	
337.61	6611.5	
337.81	5001.8	
338.02	3584.6	
338.23	4697.4	
338.43	6277.7	
338.64	5079	
338.85	3596.2	
339.05	4689.2	
339.26	6287.3	
339.47	4863.9	
339.68	3549.1	
339.88	5282.4	
340.09	5652.4	
340.3	5931.6	
340.5	4159.4	
340.71	3213.9	
340.92	4890.5	
341.13	6201.2	
341.33	3422.2	
341.54	4192.2	
341.75	5694	
341.95	5274.2	
342.16	3966.9	
342.37	4405.9	
342.57	5044.8	
342.78	5375.2	
342.99	4431.8	
343.19	3252.2	
343.4	5909.1	
343.61	5683.8	
343.81	3786	
344.02	3506.1	
344.23	5841.5	
344.43	6276.3	
344.64	4498	
344.85	4296.6	
345.06	5751.4	
345.26	6080.4	
345.47	4136.9	
345.68	4830.5	
345.88	4807.3	
346.09	5941.2	
346.3	4237.2	
346.5	3189.4	
346.71	5388.9	
346.92	5191.6	
347.12	3232.4	
347.33	4092.5	
347.54	6062.7	
347.74	6410.1	
347.95	4050.9	
348.16	3028.3	
348.36	5244.8	
348.57	4965.6	
348.78	4042	
348.98	4403.1	
349.19	5346.6	
349.39	4899.4	
349.6	3338.9	
349.81	3637.2	
350.01	5730.2	
350.22	5173.9	
350.43	3912.3	
350.63	4792.2	
350.84	5489.2	
351.05	5211.4	
351.25	3594.9	
351.46	3233.1	
351.67	6038.1	
351.87	5132.9	
352.08	3892.5	
352.29	4407.2	
352.49	5897.5	
352.7	6059.3	
352.9	3497.2	
353.11	4347.8	
353.32	6603.3	
353.52	5312.4	
353.73	3416.7	
353.94	4399	
354.14	5774.6	
354.35	5612.1	
354.55	3575.1	
354.76	3907.5	
354.97	5688.6	
355.17	5449.6	
355.38	3358	
355.59	4708.3	
355.79	5170.4	
356	5564.3	
356.2	3943.7	
356.41	3375.1	
356.62	4835.3	
356.82	5402.5	
357.03	4173.1	
357.24	3776.5	
357.44	5118.6	
357.65	5262.6	
357.85	5044.1	
358.06	3956.7	
358.27	4848.9	
358.47	5116.5	
358.68	3281.5	
358.88	4131.4	
359.09	5634	
359.3	6077	
359.5	4860.5	
359.71	4295.3	
359.91	6626.5	
360.12	5814.9	
360.33	4186.7	
360.53	4675.5	
360.74	5136.3	
360.94	5162.2	
361.15	4364.2	
361.36	3545	
361.56	5907.7	
361.77	5354.1	
361.97	4862.6	
362.18	3772.4	
362.38	5874.9	
362.59	5019.6	
362.8	3479.5	
363	3329.3	
363.21	4797.7	
363.41	5446.9	
363.62	4027	
363.83	5045.5	
364.03	5537	
364.24	6546.7	
364.44	5134.3	
364.65	5031.2	
364.85	5234.6	
365.06	5190.2	
365.27	3674.7	
365.47	3702.7	
365.68	6309.1	
365.88	5283.8	
366.09	4055	
366.29	3758.7	
366.5	5551.4	
366.71	5929.6	
366.91	5117.9	
367.12	4302.1	
367.32	6492.7	
367.53	5838.1	
367.73	4204.5	
367.94	5137.7	
368.14	5767.1	
368.35	6712.6	
368.56	4191.5	
368.76	3981.9	
368.97	5835.3	
369.17	7680.6	
369.38	3704.8	
369.58	3945.8	
369.79	4906.9	
369.99	6260	
370.2	5027.1	
370.4	4061.1	
370.61	5569.8	
370.82	6788.3	
371.02	3868.6	
371.23	3251.5	
371.43	4769.7	
371.64	6162.3	
371.84	3957.4	
372.05	5176.6	
372.25	7469.6	
372.46	5865.4	
372.66	3938.2	
372.87	3861.8	
373.07	5913.9	
373.28	7518.8	
373.48	4978.6	
373.69	4653.7	
373.9	5329.5	
374.1	5421.7	
374.31	4946.5	
374.51	4410.6	
374.72	6212.9	
374.92	4990.9	
375.13	5059.8	
375.33	4222.2	
375.54	5780.1	
375.74	5221	
375.95	4265.9	
376.15	5591	
376.36	5730.2	
376.56	5569.8	
376.77	4327.4	
376.97	4771.1	
377.18	6799.3	
377.38	5844.2	
377.59	5128.8	
377.79	3824.9	
378	5604.6	
378.2	6026.5	
378.41	3874.8	
378.61	3811.3	
378.82	6114.6	
379.02	5188.9	
379.23	3957.4	
379.43	5177.9	
379.64	6146	
379.84	5733.6	
380.05	3871.3	
380.25	3763.5	
380.46	5858.6	
380.66	5477	
380.87	5257.8	
381.07	5547.3	
381.28	6529.6	
381.48	5887.9	
381.69	3840.6	
381.89	3894.6	
382.1	4795.7	
382.3	6092	
382.51	5070.1	
382.71	5988.3	
382.91	5913.9	
383.12	6447	
383.32	4228.4	
383.53	4449.6	
383.73	5754.1	
383.94	5545.9	
384.14	4409.3	
384.35	3520.5	
384.55	5463.3	
384.76	5963	
384.96	4253.6	
385.17	4541.7	
385.37	5861.3	
385.58	5158.8	
385.78	4612.7	
385.98	3435.1	
386.19	5389.6	
386.39	5752.1	
386.6	3979.2	
386.8	4203.1	
387.01	5839.4	
387.21	5913.2	
387.42	4732.9	
387.62	5301.5	
387.83	5184.1	
388.03	5868.8	
388.23	4270.7	
388.44	5097.4	
388.64	4768.4	
388.85	4914.4	
389.05	4629.1	
389.26	5234.6	
389.46	6879.8	
389.67	6268.8	
389.87	4573.1	
390.07	4711.7	
390.28	5530.2	
390.48	5056.4	
390.69	3876.8	
390.89	4130.8	
391.1	5238	
391.3	6214.2	
391.5	5302.9	
391.71	5986.2	
391.91	5874.3	
392.12	6974.7	
392.32	5466.7	
392.53	4613.4	
392.73	5274.2	
392.93	5532.9	
393.14	4299.4	
393.34	5130.8	
393.55	6029.2	
393.75	5519.3	
393.95	4271.4	
394.16	4226.3	
394.36	5212.1	
394.57	5916.6	
394.77	3728	
394.98	4175.8	
395.18	5185.5	
395.38	5426.4	
395.59	5089.9	
395.79	3923.9	
396	5255.8	
396.2	5759.6	
396.4	4833.2	
396.61	4726.7	
396.81	6011.5	
397.02	5221.6	
397.22	5044.1	
397.42	5096	
397.63	5942.5	
397.83	5088.5	
398.04	3932.1	
398.24	4412.7	
398.44	5732.3	
398.65	4769.7	
398.85	3733.4	
399.05	3908.2	
399.26	5124	
399.46	6832	
399.67	4219.5	
399.87	3919.1	
400.07	5436.7	
400.28	5839.4	
400.48	4040.6	
400.69	5092.6	
400.89	6023.8	
401.09	6460.7	
401.3	3880.9	
401.5	5085.8	
401.7	6717.3	
401.91	7046.4	
402.11	4228.4	
402.32	4523.3	
402.52	6127.5	
402.72	6051.7	
402.93	4752	
403.13	3580.5	
403.33	6865.5	
403.54	5569.8	
403.74	4463.2	
403.94	5332.2	
404.15	5634	
404.35	6787	
404.56	4173.1	
404.76	6100.9	
404.96	6072.9	
405.17	5820.3	
405.37	5446.9	
405.57	4666.6	
405.78	6029.9	
405.98	5547.9	
406.18	4193.6	
406.39	5188.2	
406.59	6113.2	
406.79	5723.4	
407	4014	
407.2	4093.9	
407.4	6036.7	
407.61	6295.5	
407.81	4089.1	
408.01	6379.4	
408.22	4959.5	
408.42	7034.1	
408.62	5096	
408.83	4510.3	
409.03	5575.9	
409.23	5353.4	
409.44	4576.5	
409.64	4883.7	
409.84	6423.8	
410.05	6317.3	
410.25	4714.4	
410.45	4435.2	
410.66	5740.5	
410.86	8384.4	
411.06	4861.9	
411.27	4730.1	
411.47	8008.2	
411.67	5894.1	
411.88	4937.7	
412.08	5145.2	
412.28	6533.7	
412.49	6995.2	
412.69	4654.4	
412.89	4655	
413.09	6945.3	
413.3	6669.6	
413.5	4745.8	
413.7	4376.5	
413.91	5967.8	
414.11	6770.6	
414.31	4529.4	
414.52	4954	
414.72	6531.7	
414.92	6360.3	
415.12	4560.8	
415.33	5111	
415.53	6795.8	
415.73	6960.4	
415.94	5446.2	
416.14	4894.6	
416.34	5747.3	
416.55	5451	
416.75	6037.4	
416.95	5399.8	
417.15	6651.1	
417.36	7426.6	
417.56	6233.3	
417.76	5260.5	
417.97	7091.4	
418.17	6737.1	
418.37	4863.9	
418.57	4974.5	
418.78	6472.9	
418.98	6211.5	
419.18	5834.7	
419.38	5748	
419.59	6201.2	
419.79	5816.9	
419.99	4752	
420.2	5197.7	
420.4	6771.9	
420.6	6920.1	
420.8	4622.9	
421.01	4533.5	
421.21	6472.3	
421.41	6651.8	
421.61	5077.6	
421.82	4753.3	
422.02	5926.8	
422.22	7045.7	
422.42	5582.8	
422.63	5264.6	
422.83	6176.7	
423.03	7343.3	
423.23	5305.6	
423.44	4175.8	
423.64	6255.9	
423.84	6002.6	
424.04	4713.1	
424.25	4350.6	
424.45	7154.9	
424.65	7116.7	
424.85	4154	
425.06	4691.2	
425.26	7123.5	
425.46	6171.2	
425.66	5212.8	
425.87	4895.3	
426.07	6965.1	
426.27	6776	
426.47	5071.5	
426.67	4417.5	
426.88	7251.2	
427.08	6672.3	
427.28	5276.9	
427.48	4354.7	
427.69	5557.5	
427.89	6221	
428.09	5264.6	
428.29	4434.5	
428.5	6974.7	
428.7	6521.4	
428.9	4252.9	
429.1	4934.9	
429.3	6304.3	
429.51	6808.8	
429.71	4606.6	
429.91	5410.1	
430.11	6627.9	
430.31	6840.9	
430.52	4843.4	
430.72	5197.7	
430.92	7263.5	
431.12	6722.1	
431.32	4565.6	
431.53	4982	
431.73	5556.1	
431.93	7212.3	
432.13	4418.2	
432.33	4304.1	
432.54	5995.1	
432.74	6345.3	
432.94	4197.7	
433.14	5328.8	
433.34	6521.4	
433.55	5965.7	
433.75	5335	
433.95	6969.9	
434.15	6273.6	
434.35	5887.9	
434.56	4373.8	
434.76	3884.3	
434.96	6275	
435.16	6524.1	
435.36	4218.8	
435.56	5397.8	
435.77	5889.3	
435.97	6064	
436.17	6059.9	
436.37	5322.7	
436.57	5862.7	
436.78	5668.8	
436.98	5279	
437.18	5886.5	
437.38	6487.3	
437.58	6071.5	
437.78	6115.2	
437.99	4661.9	
438.19	6567.2	
438.39	8161.8	
438.59	4691.9	
438.79	4166.3	
438.99	7329	
439.2	6006	
439.4	4237.9	
439.6	4152.6	
439.8	6359.6	
440	7380.9	
440.2	5158.8	
440.4	5265.3	
440.61	6673	
440.81	7192.5	
441.01	4283.7	
441.21	5250.3	
441.41	6997.9	
441.61	6715.3	
441.81	5574.6	
442.02	6575.3	
442.22	7658.7	
442.42	6799.9	
442.62	4414.1	
442.82	4517.1	
443.02	7057.3	
443.22	6165.1	
443.43	4800.4	
443.63	4362.2	
443.83	5988.9	
444.03	6014.9	
444.23	5574.6	
444.43	5255.8	
444.63	6247	
444.83	7552.9	
445.04	4420.9	
445.24	5763.7	
445.44	6713.2	
445.64	6781.5	
445.84	5373.2	
446.04	5270.1	
446.24	6090.7	
446.44	7174	
446.65	4549.9	
446.85	4838	
447.05	6513.9	
447.25	7049.1	
447.45	4935.6	
447.65	4331.5	
447.85	6377.4	
448.05	6017.6	
448.25	5409.4	
448.46	5139.7	
448.66	6378.1	
448.86	6104.3	
449.06	4138.9	
449.26	5386.2	
449.46	6627.9	
449.66	5759.6	
449.86	4786.8	
450.06	4840	
450.26	5931.6	
450.47	6548.7	
450.67	5113.8	
450.87	5437.4	
451.07	6583.5	
451.27	6318.7	
451.47	4384.7	
451.67	4936.3	
451.87	6182.1	
452.07	7297.6	
452.27	4588.8	
452.47	4599.7	
452.67	6346.7	
452.88	6941.9	
453.08	3946.4	
453.28	6011.5	
453.48	7507.9	
453.68	6309.8	
453.88	4433.2	
454.08	4780.6	
454.28	6577.4	
454.48	6304.3	
454.68	5229.8	
454.88	5855.1	
455.08	6764.4	
455.28	6381.5	
455.48	4306.9	
455.68	4990.2	
455.89	7144	
456.09	6797.2	
456.29	4632.5	
456.49	4584	
456.69	7068.9	
456.89	6247	
457.09	5180.7	
457.29	5466.7	
457.49	6565.8	
457.69	6681.2	
457.89	4935.6	
458.09	4345.8	
458.29	6287.3	
458.49	7030	
458.69	5258.5	
458.89	4804.5	
459.09	7228.6	
459.29	7380.9	
459.49	4899.4	
459.69	5674.2	
459.9	6819.7	
460.1	6184.2	
460.3	4782.7	
460.5	4566.3	
460.7	6668.9	
460.9	6412.2	
461.1	4149.2	
461.3	5479	
461.5	7301.7	
461.7	6915.3	
461.9	4539.7	
462.1	4986.1	
462.3	6249.7	
462.5	6971.3	
462.7	4558.8	
462.9	4647.5	
463.1	7961.1	
463.3	7541.3	
463.5	4756.7	
463.7	5655.1	
463.9	6480.5	
464.1	6827.2	
464.3	4831.8	
464.5	5224.4	
464.7	7096.9	
464.9	6625.9	
465.1	6520.7	
465.3	5438	
465.5	7527.7	
465.7	7389.1	
465.9	5683.1	
466.1	5632.6	
466.3	7200	
466.5	7058.7	
466.7	6329.6	
466.9	5236.7	
467.1	6885.3	
467.3	7918.1	
467.5	6209.4	
467.7	5108.3	
467.9	7973.4	
468.1	8943.5	
468.3	5914.5	
468.5	6313.9	
468.7	6769.9	
468.9	6845	
469.1	5369.8	
469.3	6061.3	
469.5	8759.2	
469.7	6352.1	
469.9	5896.8	
470.1	5031.9	
470.3	6836.8	
470.5	6874.3	
470.7	6388.3	
470.9	5259.2	
471.1	6597.9	
471.3	7083.9	
471.5	5045.5	
471.69	7064.8	
471.89	6449.7	
472.09	6059.9	
472.29	5756.8	
472.49	6322.8	
472.69	6237.4	
472.89	7112.6	
473.09	4918.5	
473.29	5112.4	
473.49	6439.5	
473.69	6688	
473.89	6112.5	
474.09	5244.8	
474.29	7978.9	
474.49	7580.9	
474.69	6025.8	
474.89	5420.3	
475.09	6589	
475.29	6593.8	
475.49	4838	
475.69	5027.8	
475.88	8348.2	
476.08	6924.2	
476.28	4723.3	
476.48	5291.3	
476.68	7392.5	
476.88	7294.2	
477.08	5149.3	
477.28	5429.2	
477.48	6784.9	
477.68	7477.1	
477.88	4861.2	
478.08	5254.4	
478.28	7592.5	
478.48	6896.2	
478.67	5225.7	
478.87	4786.1	
479.07	7480.5	
479.27	6946.7	
479.47	5467.4	
479.67	5442.1	
479.87	7291.5	
480.07	7924.3	
480.27	4771.8	
480.47	6422.4	
480.67	7078.5	
480.87	7530.4	
481.06	5050.3	
481.26	5928.9	
481.46	6977.4	
481.66	6803.4	
481.86	5515.2	
482.06	6563.1	
482.26	6641.6	
482.46	7595.2	
482.66	5408	
482.86	4956.8	
483.05	6920.1	
483.25	6372.6	
483.45	7918.8	
483.65	5440.8	
483.85	6502.3	
484.05	6763.8	
484.25	5802.6	
484.45	6298.9	
484.65	7741.3	
484.84	7631.4	
485.04	5233.9	
485.24	5236	
485.44	7882.6	
485.64	6191	
485.84	4492.6	
486.04	6010.8	
486.24	6566.5	
486.44	6991.8	
486.63	4497.3	
486.83	5275.6	
487.03	6383.5	
487.23	6621.8	
487.43	4587.4	
487.63	6984.9	
487.83	6746.7	
488.02	7778.2	
488.22	5555.5	
488.42	6188.3	
488.62	7664.9	
488.82	6421.1	
489.02	5200.5	
489.22	5243.5	
489.41	7479.9	
489.61	7010.2	
489.81	4902.2	
490.01	4917.2	
490.21	7323.5	
490.41	7993.2	
490.61	4807.9	
490.8	4994.3	
491	6756.2	
491.2	6219.7	
491.4	5754.1	
491.6	4816.8	
491.8	6907.1	
491.99	7039.6	
492.19	4651.6	
492.39	5034.6	
492.59	7387.7	
492.79	7380.9	
492.99	5853.8	
493.18	4812	
493.38	7410.9	
493.58	8150.9	
493.78	5629.2	
493.98	5135.6	
494.18	7091.4	
494.37	6449.7	
494.57	5680.4	
494.77	5569.8	
494.97	7126.9	
495.17	7471.7	
495.37	5125.4	
495.56	5498.8	
495.76	7554.3	
495.96	7223.9	
496.16	6322.1	
496.36	5193.6	
496.55	7367.2	
496.75	6879.1	
496.95	5698.1	
497.15	5474.9	
497.35	7297.6	
497.54	7296.2	
497.74	5235.3	
497.94	7072.3	
498.14	8040.3	
498.34	7776.1	
498.53	4898.1	
498.73	5703.6	
498.93	6681.2	
499.13	7242.3	
499.33	5433.9	
499.52	6028.5	
499.72	7137.2	
499.92	7564.5	
500.12	5058.5	
500.32	5399.8	
500.51	7507.9	
500.71	7281.9	
500.91	6209.4	
501.11	5837.4	
501.31	7413.6	
501.5	7815.7	
501.7	6541.2	
501.9	5386.2	
502.1	7184.3	
502.29	7533.8	
502.49	5885.9	
502.69	6393.1	
502.89	7458	
503.09	7368.6	
503.28	4950.6	
503.48	5116.5	
503.68	6610.2	
503.88	6690	
504.07	6190.3	
504.27	5599.8	
504.47	7032.7	
504.67	7248.4	
504.86	6062	
505.06	5734.3	
505.26	6767.2	
505.46	8597.4	
505.65	5573.9	
505.85	5859.2	
506.05	6737.8	
506.25	7290.1	
506.44	4956.8	
506.64	5963.7	
506.84	6683.2	
507.04	7578.8	
507.23	5168.4	
507.43	5788.9	
507.63	8779	
507.83	6931	
508.02	5793	
508.22	5380.7	
508.42	8880.7	
508.62	6662	
508.81	6026.5	
509.01	6178	
509.21	6600.6	
509.4	6774.7	
509.6	5862.7	
509.8	5183.4	
510	6855.2	
510.19	8324.3	
510.39	5160.9	
510.59	5207.3	
510.79	6611.5	
510.98	7994.6	
511.18	5225.1	
511.38	5396.4	
511.57	7428	
511.77	7335.1	
511.97	6146	
512.17	5035.3	
512.36	7538.6	
512.56	7445.7	
512.76	5182	
512.95	4960.2	
513.15	7585	
513.35	6168.5	
513.55	6049	
513.74	5222.3	
513.94	7523.6	
514.14	6886	
514.33	6173.9	
514.53	5911.8	
514.73	6838.9	
514.92	7003.4	
515.12	5352.7	
515.32	5159.5	
515.51	7094.8	
515.71	7753.6	
515.91	6929.6	
516.11	5244.8	
516.3	8694.3	
516.5	6647	
516.7	5793.7	
516.89	6394.4	
517.09	6915.3	
517.29	6751.5	
517.48	6243.6	
517.68	5539.8	
517.88	6580.1	
518.07	7223.9	
518.27	6065.4	
518.47	5020.3	
518.66	7765.9	
518.86	6418.3	
519.06	4876.9	
519.25	5298.8	
519.45	6730.3	
519.65	8189.8	
519.84	6023.8	
520.04	6584.9	
520.24	8555.7	
520.43	7350.2	
520.63	5682.4	
520.83	5409.4	
521.02	6655.2	
521.22	7252.5	
521.42	6066.8	
521.61	6569.9	
521.81	6884.6	
522.01	7048.4	
522.2	5778	
522.4	5644.9	
522.6	7503.8	
522.79	6273.6	
522.99	5560.2	
523.18	4933.6	
523.38	7142.6	
523.58	7059.3	
523.77	6841.6	
523.97	4808.6	
524.17	8983.1	
524.36	8073.1	
524.56	6130.9	
524.76	5837.4	
524.95	7043.6	
525.15	6775.4	
525.34	5558.2	
525.54	5546.6	
525.74	7358.4	
525.93	6305.7	
526.13	6719.4	
526.33	5485.8	
526.52	7645.8	
526.72	7080.5	
526.91	6657.3	
527.11	5960.3	
527.31	7703.8	
527.5	8073.8	
527.7	5739.1	
527.89	4799.8	
528.09	6497.5	
528.29	7072.3	
528.48	6210.1	
528.68	5843.5	
528.87	7490.8	
529.07	7557.7	
529.27	5744.6	
529.46	5228.5	
529.66	7148.8	
529.85	7546.8	
530.05	5046.9	
530.25	5881.1	
530.44	8555	
530.64	7126.9	
530.83	5534.3	
531.03	5765.7	
531.23	7483.3	
531.42	7373.4	
531.62	6503	
531.81	5616.9	
532.01	7516	
532.21	8026.7	
532.4	5224.4	
532.6	5677.7	
532.79	8301.1	
532.99	7539.9	
533.18	5678.3	
533.38	6833.4	
533.58	6995.9	
533.77	7846.5	
533.97	5514.5	
534.16	6406.7	
534.36	7966.6	
534.55	6947.4	
534.75	6591	
534.95	5560.2	
535.14	7754.3	
535.34	7012.2	
535.53	5261.9	
535.73	7316.7	
535.92	8411.7	
536.12	7155.6	
536.31	5426.4	
536.51	6593.1	
536.71	7645.1	
536.9	7097.6	
537.1	5597.1	
537.29	5711.1	
537.49	8060.1	
537.68	6900.3	
537.88	6096.8	
538.07	5297.4	
538.27	7154.2	
538.46	8269	
538.66	5143.1	
538.86	5592.3	
539.05	7251.2	
539.25	7796.6	
539.44	5798.5	
539.64	5560.9	
539.83	7081.2	
540.03	8033.5	
540.22	5393	
540.42	5699.5	
540.61	7492.2	
540.81	7490.1	
541	6071.5	
541.2	6725.5	
541.39	6919.4	
541.59	7253.9	
541.78	6351.4	
541.98	5446.2	
542.18	6585.6	
542.37	6624.5	
542.57	5864.7	
542.76	6374.6	
542.96	6683.2	
543.15	7533.8	
543.35	5998.5	
543.54	5253.7	
543.74	7796.6	
543.93	7303.7	
544.13	5920	
544.32	7083.2	
544.52	7669	
544.71	6832.7	
544.91	4963.6	
545.1	6378.7	
545.3	6873	
545.49	7543.4	
545.69	4936.3	
545.88	5670.1	
546.08	8492.2	
546.27	8197.3	
546.47	6221.7	
546.66	5414.1	
546.86	7858.1	
547.05	8416.5	
547.24	5672.2	
547.44	5476.3	
547.63	6779.5	
547.83	7955	
548.02	5838.8	
548.22	6137.8	
548.41	6524.1	
548.61	7950.2	
548.8	5434.6	
549	5401.2	
549.19	7336.5	
549.39	7582.3	
549.58	5186.8	
549.78	5768.4	
549.97	7686.7	
550.17	7172.7	
550.36	6718	
550.55	7712	
550.75	7202.7	
550.94	8171.4	
551.14	5368.4	
551.33	5793	
551.53	6575.3	
551.72	7504.4	
551.92	5837.4	
552.11	5637.4	
552.31	7641.7	
552.5	7772	
552.69	7451.2	
552.89	5282.4	
553.08	7537.9	
553.28	7129	
553.47	5672.2	
553.67	6889.4	
553.86	8316.8	
554.06	6619	
554.25	4840.7	
554.44	5530.2	
554.64	9114.1	
554.83	8559.8	
555.03	5413.5	
555.22	5730.2	
555.42	7739.3	
555.61	7484.6	
555.8	5643.5	
556	5997.8	
556.19	6650.4	
556.39	7920.9	
556.58	5694.7	
556.78	5728.2	
556.97	7379.5	
557.16	7117.4	
557.36	6926.9	
557.55	5354.1	
557.75	6380.8	
557.94	8147.5	
558.13	5487.2	
558.33	5230.5	
558.52	7946.8	
558.72	6866.8	
558.91	5362.3	
559.1	5581.4	
559.3	6565.8	
559.49	6356.2	
559.69	4915.8	
559.88	6031.3	
560.07	7410.2	
560.27	7824.6	
560.46	6135.7	
560.66	6307.1	
560.85	7243	
561.04	6393.8	
561.24	5371.1	
561.43	5647.6	
561.63	6648.4	
561.82	6958.3	
562.01	6886	
562.21	5887.9	
562.4	7412.3	
562.59	8363.9	
562.79	5672.2	
562.98	5330.9	
563.18	7246.4	
563.37	8759.2	
563.56	6221.7	
563.76	5210	
563.95	6726.2	
564.14	6696.2	
564.34	5625.1	
564.53	5406	
564.73	7245.7	
564.92	7600	
565.11	5859.9	
565.31	5102.9	
565.5	7860.1	
565.69	6829.3	
565.89	5373.9	
566.08	5622.4	
566.27	7735.9	
566.47	8079.2	
566.66	6264.7	
566.85	4915.8	
567.05	7320.1	
567.24	6646.3	
567.44	5176.6	
567.63	6698.9	
567.82	7552.9	
568.02	7294.9	
568.21	5256.5	
568.4	5768.4	
568.6	7134.4	
568.79	7157	
568.98	5067.4	
569.18	5286.5	
569.37	7013.6	
569.56	9087.5	
569.76	5621.7	
569.95	6532.3	
570.14	7415	
570.34	7286	
570.53	5062.6	
570.72	5084.4	
570.91	7819.1	
571.11	6958.3	
571.3	5606.7	
571.49	6569.9	
571.69	6998.6	
571.88	6629.3	
572.07	6052.4	
572.27	6156.9	
572.46	6517.3	
572.65	7651.9	
572.85	5351.3	
573.04	5618.9	
573.23	7864.2	
573.43	7097.6	
573.62	5045.5	
573.81	5629.2	
574	7095.5	
574.2	6868.9	
574.39	5436	
574.58	5526.1	
574.78	7942.7	
574.97	7116	
575.16	5853.8	
575.36	6046.3	
575.55	7534.5	
575.74	7685.3	
575.93	4938.3	
576.13	6043.6	
576.32	6883.2	
576.51	7499	
576.71	5400.5	
576.9	6779.5	
577.09	7777.5	
577.28	7257.3	
577.48	5913.2	
577.67	4900.8	
577.86	6988.4	
578.05	7245.7	
578.25	5513.8	
578.44	5617.6	
578.63	7048.4	
578.83	8200.7	
579.02	4967.7	
579.21	6477.7	
579.4	7344.7	
579.6	6916.7	
579.79	5752.7	
579.98	7950.9	
580.17	7677.2	
580.37	7740	
580.56	5210.7	
580.75	5956.9	
580.94	8127	
581.14	8018.5	
581.33	6336.4	
581.52	5411.4	
581.71	7506.5	
581.91	8215.1	
582.1	5002.5	
582.29	5661.3	
582.48	7082.6	
582.68	7058.7	
582.87	6125.5	
583.06	5662.6	
583.25	7374.1	
583.45	6827.9	
583.64	6309.1	
583.83	7102.4	
584.02	6903.7	
584.21	7412.3	
584.41	6385.6	
584.6	5650.3	
584.79	7135.1	
584.98	7931.8	
585.18	5086.5	
585.37	5082.4	
585.56	6636.1	
585.75	7518.8	
585.94	5352.7	
586.14	5993.7	
586.33	8106.5	
586.52	7043	
586.71	5857.9	
586.91	5610.8	
587.1	6539.2	
587.29	7950.9	
587.48	5595.1	
587.67	5423	
587.87	7398.6	
588.06	7527.7	
588.25	6791.1	
588.44	6038.8	
588.63	7131	
588.83	7651.2	
589.02	5532.2	
589.21	5374.6	
589.4	6946.7	
589.59	6672.3	
589.78	4737.6	
589.98	5029.8	
590.17	6469.5	
590.36	7064.8	
590.55	4491.9	
590.74	5448.3	
590.94	8527.1	
591.13	6996.5	
591.32	5122.7	
591.51	4629.8	
591.7	7467.6	
591.89	6827.9	
592.09	4722.6	
592.28	5246.2	
592.47	6160.3	
592.66	8084	
592.85	4778.6	
593.05	5008.6	
593.24	6817	
593.43	7589.1	
593.62	4973.8	
593.81	5595.7	
594	6772.6	
594.19	7097.6	
594.39	4947.9	
594.58	4841.4	
594.77	7163.8	
594.96	7783.6	
595.15	4857.8	
595.34	5507	
595.54	7287.4	
595.73	6273.6	
595.92	4293.9	
596.11	5506.3	
596.3	7763.8	
596.49	6377.4	
596.68	5216.2	
596.88	5739.8	
597.07	7477.1	
597.26	6227.9	
597.45	4785.4	
597.64	6004	
597.83	6500.9	
598.02	7094.8	
598.22	4895.3	
598.41	5638.7	
598.6	6965.1	
598.79	6438.8	
598.98	4898.1	
599.17	5883.8	
599.36	7025.2	
599.55	8198.7	
599.74	7107.8	
599.94	6851.8	
600.13	7561.8	
600.32	6405.4	
600.51	4765.6	
600.7	4867.3	
600.89	8264.9	
601.08	8299.7	
601.27	4629.1	
601.47	5749.3	
601.66	7575.4	
601.85	8208.3	
602.04	5350	
602.23	5636.7	
602.42	6584.2	
602.61	7198.6	
602.8	5342.5	
602.99	5142.4	
603.18	6925.5	
603.37	7236.8	
603.57	5729.5	
603.76	6352.1	
603.95	7990.5	
604.14	7504.4	
604.33	5228.5	
604.52	5510.4	
604.71	7116.7	
604.9	6771.3	
605.09	6131.6	
605.28	6076.3	
605.47	7725.6	
605.66	7434.8	
605.86	5835.3	
606.05	5201.2	
606.24	7819.8	
606.43	6332.3	
606.62	5515.2	
606.81	6337.8	
607	7699.7	
607.19	6924.2	
607.38	4980	
607.57	5280.3	
607.76	6776.7	
607.95	6227.2	
608.14	5665.4	
608.33	6295.5	
608.52	6816.3	
608.72	7636.9	
608.91	4889.2	
609.1	4775.2	
609.29	6916	
609.48	6377.4	
609.67	5897.5	
609.86	4909	
610.05	6493.4	
610.24	6923.5	
610.43	4730.8	
610.62	4429.8	
610.81	7976.2	
611	7709.2	
611.19	4898.1	
611.38	5643.5	
611.57	7155.6	
611.76	8587.1	
611.95	4764.9	
612.14	4557.4	
612.33	7013.6	
612.52	6456.6	
612.71	5242.8	
612.9	4508.3	
613.09	6036.7	
613.28	8495	
613.47	4967.7	
613.66	5993.7	
613.85	7105.8	
614.04	6580.1	
614.24	5154.1	
614.43	4394.3	
614.62	7239.6	
614.81	7106.5	
615	5674.2	
615.19	5659.2	
615.38	6543.9	
615.57	6810.9	
615.76	5428.5	
615.95	6507.8	
616.14	7246.4	
616.33	6838.9	
616.52	5881.8	
616.71	6125.5	
616.9	7261.4	
617.09	6986.3	
617.28	5152	
617.47	6476.4	
617.66	6279.1	
617.85	6350.8	
618.04	6083.8	
618.22	5481.7	
618.41	6571.9	
618.6	7482.6	
618.79	5418.9	
618.98	5120.6	
619.17	7795.9	
619.36	6187.6	
619.55	5229.8	
619.74	5324	
619.93	7057.3	
620.12	6414.2	
620.31	5821	
620.5	5920	
620.69	8052.6	
620.88	7993.9	
621.07	6650.4	
621.26	5623.7	
621.45	7139.2	
621.64	7149.5	
621.83	5845.6	
622.02	4949.9	
622.21	7282.6	
622.4	6980.2	
622.59	6300.2	
622.78	6064	
622.97	6640.2	
623.16	7550.9	
623.35	5645.6	
623.54	4782	
623.72	6777.4	
623.91	6953.5	
624.1	5894.7	
624.29	4616.8	
624.48	7942.7	
624.67	7179.5	
624.86	5777.3	
625.05	4943.1	
625.24	8125	
625.43	6473.6	
625.62	7606.8	
625.81	5144.5	
626	7515.4	
626.19	6713.9	
626.38	5842.9	
626.56	5319.3	
626.75	6554.2	
626.94	7324.2	
627.13	5833.3	
627.32	4633.2	
627.51	7236.8	
627.7	8568	
627.89	4676.9	
628.08	5866.7	
628.27	6409.5	
628.46	6627.9	
628.65	4930.8	
628.83	4661.9	
629.02	7253.2	
629.21	6436.1	
629.4	5417.6	
629.59	5679.7	
629.78	6429.9	
629.97	7445.7	
630.16	5713.8	
630.35	5113.1	
630.54	7811.6	
630.72	7570.7	
630.91	5143.8	
631.1	5757.5	
631.29	6986.3	
631.48	7232.1	
631.67	5842.9	
631.86	5293.3	
632.05	6576.7	
632.24	6547.4	
632.42	4835.9	
632.61	5527.5	
632.8	6754.9	
632.99	6397.9	
633.18	5498.1	
633.37	5912.5	
633.56	7063.4	
633.75	6875	
633.93	5545.2	
634.12	5155.4	
634.31	7858.7	
634.5	7422.5	
634.69	5217.5	
634.88	5766.4	
635.07	6796.5	
635.25	7361.1	
635.44	6242.9	
635.63	6306.4	
635.82	6662.7	
636.01	6203.3	
636.2	6115.9	
636.39	5692.7	
636.57	7825.3	
636.76	7518.1	
636.95	5103.5	
637.14	6554.2	
637.33	7183.6	
637.52	8157.7	
637.7	4958.1	
637.89	5825.1	
638.08	6694.1	
638.27	8262.2	
638.46	5888.6	
638.65	6428.6	
638.83	8244.4	
639.02	6588.3	
639.21	5841.5	
639.4	6419.7	
639.59	7113.3	
639.78	6681.8	
639.96	5190.9	
640.15	5221	
640.34	6860.7	
640.53	7100.3	
640.72	4883.7	
640.91	5273.5	
641.09	6376	
641.28	7841	
641.47	5225.1	
641.66	6124.1	
641.85	7109.9	
642.03	7418.4	
642.22	5849	
642.41	5324.7	
642.6	6476.4	
642.79	5962.3	
642.97	5107.6	
643.16	5893.4	
643.35	6539.8	
643.54	6358.3	
643.73	5049.6	
643.91	5918.6	
644.1	6229.2	
644.29	6783.6	
644.48	5160.2	
644.67	5216.9	
644.85	6427.9	
645.04	6805.4	
645.23	4751.3	
645.42	5023	
645.6	6311.8	
645.79	7598	
645.98	5113.8	
646.17	4117.1	
646.36	6072.9	
646.54	6728.3	
646.73	5969.1	
646.92	4678.9	
647.11	6320.7	
647.29	7486	
647.48	4823.6	
647.67	4584.7	
647.86	7651.9	
648.05	7699.7	
648.23	5182.7	
648.42	6481.8	
648.61	7049.8	
648.8	6756.9	
648.98	4846.2	
649.17	5135.6	
649.36	6311.2	
649.55	5807.4	
649.73	4835.9	
649.92	5657.2	
650.11	6290	
650.3	6622.4	
650.48	5061.9	
650.67	4685.1	
650.86	6888	
651.05	5857.9	
651.23	5025	
651.42	4932.9	
651.61	6313.2	
651.79	6548	
651.98	5259.2	
652.17	4776.5	
652.36	6928.3	
652.54	5870.2	
652.73	4826.4	
652.92	4668.7	
653.11	6913.3	
653.29	6987.7	
653.48	4177.2	
653.67	5195.7	
653.85	6703	
654.04	7792.5	
654.23	5431.9	
654.42	5018.2	
654.6	6236.1	
654.79	6946	
654.98	4519.9	
655.16	5099.4	
655.35	5938.4	
655.54	5888.6	
655.73	4659.1	
655.91	4481.6	
656.1	7088	
656.29	5793.7	
656.47	4138.9	
656.66	5881.1	
656.85	6069.5	
657.03	6120	
657.22	4566.3	
657.41	4666.6	
657.59	6183.5	
657.78	5966.4	
657.97	4252.9	
658.16	5106.3	
658.34	6905.8	
658.53	7206.1	
658.72	5950	
658.9	6542.6	
659.09	6257.9	
659.28	6376.7	
659.46	4871.4	
659.65	4843.4	
659.84	6057.2	
660.02	6610.2	
660.21	4634.6	
660.4	4609.3	
660.58	7048.4	
660.77	6412.9	
660.96	5251.7	
661.14	4341	
661.33	7565.2	
661.52	7493.5	
661.7	4184	
661.89	8113.4	
662.08	6004	
662.26	5649	
662.45	4549.9	
662.64	4683.7	
662.82	6767.9	
663.01	5967.8	
663.2	4689.8	
663.38	5457.2	
663.57	6694.8	
663.75	6579.4	
663.94	5076.2	
664.13	6344.6	
664.31	6049	
664.5	6791.7	
664.69	5231.9	
664.87	5896.1	
665.06	5832.6	
665.25	6562.4	
665.43	6113.2	
665.62	6201.2	
665.8	6971.3	
665.99	6242.9	
666.18	5017.5	
666.36	5158.8	
666.55	6917.4	
666.74	6731	
666.92	4635.9	
667.11	6328.2	
667.29	6195.8	
667.48	6822.5	
667.67	5993	
667.85	5076.9	
668.04	6362.4	
668.22	6298.9	
668.41	5109.7	
668.6	5359.5	
668.78	6055.2	
668.97	6331	
669.15	5417.6	
669.34	4403.8	
669.53	6062	
669.71	6478.4	
669.9	4665.3	
670.08	5309	
670.27	6118	
670.46	6660	
670.64	5498.1	
670.83	5818.3	
671.01	5980.1	
671.2	6647	
671.38	4747.9	
671.57	4643.4	
671.76	7281.2	
671.94	7823.2	
672.13	4534.2	
672.31	5744.6	
672.5	6868.9	
672.69	5989.6	
672.87	4666.6	
673.06	5051.7	
673.24	6630	
673.43	6182.1	
673.61	5493.3	
673.8	5023	
673.98	6804	
674.17	6996.5	
674.36	5580.7	
674.54	5451.7	
674.73	6578.1	
674.91	6827.2	
675.1	5218.2	
675.28	4844.8	
675.47	6375.3	
675.65	6912.6	
675.84	5005.9	
676.03	5365.7	
676.21	6079.1	
676.4	5681.1	
676.58	5895.4	
676.77	5539.1	
676.95	7582.9	
677.14	6036.7	
677.32	4747.9	
677.51	4474.1	
677.69	6845.7	
677.88	5687.9	
678.06	4696.7	
678.25	4643.4	
678.44	6326.2	
678.62	6123.4	
678.81	4373.1	
678.99	5429.2	
679.18	7233.4	
679.36	6720.8	
679.55	4984.1	
679.73	5606.7	
679.92	6677.7	
680.1	6069.5	
680.29	6271.6	
680.47	4955.4	
680.66	6066.1	
680.84	6922.1	
681.03	4213.4	
681.21	5461.2	
681.4	6135.7	
681.58	5978	
681.77	4745.8	
681.95	4604.5	
682.14	6936.5	
682.32	7339.2	
682.51	5612.8	
682.69	4544.4	
682.88	5999.9	
683.06	6689.3	
683.25	5344.5	
683.43	5810.1	
683.62	6287.3	
683.8	6710.5	
683.99	5859.9	
684.17	5168.4	
684.36	7572	
684.54	6225.8	
684.73	4387.4	
684.91	4644.1	
685.1	6574.7	
685.28	6040.1	
685.46	5205.3	
685.65	5335	
685.83	6817.7	
686.02	6150.1	
686.2	4687.1	
686.39	4833.2	
686.57	5933.6	
686.76	7484.6	
686.94	4601.8	
687.13	4815.5	
687.31	6711.2	
687.5	6193.7	
687.68	4332.1	
687.86	5640.1	
688.05	7734.5	
688.23	5606	
688.42	5642.8	
688.6	4769.7	
688.79	6046.3	
688.97	6092.7	
689.16	5188.9	
689.34	4058.4	
689.52	6838.9	
689.71	6982.9	
689.89	5454.4	
690.08	4649.6	
690.26	6305.7	
690.45	6093.4	
690.63	5581.4	
690.81	4756.7	
691	5995.1	
691.18	5907	
691.37	4945.8	
691.55	7164.5	
691.74	5892	
691.92	8013.7	
692.1	5012.7	
692.29	4389.5	
692.47	6069.5	
692.66	5366.4	
692.84	4603.2	
693.02	5177.3	
693.21	5518.6	
693.39	5997.8	
693.58	5200.5	
693.76	4745.8	
693.94	7234.8	
694.13	7128.3	
694.31	4625	
694.5	5720	
694.68	5858.6	
694.86	6193.1	
695.05	4988.2	
695.23	5429.8	
695.42	6623.1	
695.6	8976.9	
695.78	5577.3	
695.97	4691.2	
696.15	6632	
696.34	5999.9	
696.52	4481	
696.7	5363.6	
696.89	6374	
697.07	5780.1	
697.25	5246.9	
697.44	6832.7	
697.62	6232	
697.81	6733	
697.99	4916.5	
698.17	5337.7	
698.36	5607.3	
698.54	6309.1	
698.72	5195	
698.91	4302.8	
699.09	5975.3	
699.28	5785.5	
699.46	4931.5	
699.64	4769	
699.83	5730.2	
700.01	7045	
700.19	5532.9	
700.38	3989.4	
700.56	6993.1	
700.74	5816.2	
700.93	4401.8	
701.11	5244.2	
701.29	6374	
701.48	7499	
701.66	4558.8	
701.84	4685.1	
702.03	5956.2	
702.21	6556.9	
702.39	4166.3	
702.58	4722.6	
702.76	6335.7	
702.94	6500.9	
703.13	4157.4	
703.31	6711.9	
703.49	5659.2	
703.68	6791.7	
703.86	4364.9	
704.04	5392.3	
704.23	6162.3	
704.41	6533	
704.59	4528.1	
704.78	5831.2	
704.96	7306.5	
705.14	6674.3	
705.33	4310.3	
705.51	5224.4	
705.69	5988.9	
705.87	6847.7	
706.06	5530.9	
706.24	4250.9	
706.42	6333	
706.61	6604.7	
706.79	5528.8	
706.97	4297.3	
707.16	5744.6	
707.34	6485.9	
707.52	5425.8	
707.7	4529.4	
707.89	5997.1	
708.07	5651.7	
708.25	5459.9	
708.44	5528.8	
708.62	5908.4	
708.8	7095.5	
708.98	5720	
709.17	4680.3	
709.35	6366.5	
709.53	6358.9	
709.72	4390.2	
709.9	4543.1	
710.08	6595.8	
710.26	6611.5	
710.45	6088.6	
710.63	4900.8	
710.81	6266.1	
710.99	6269.5	
711.18	5410.7	
711.36	4815.5	
711.54	6031.3	
711.72	6830	
711.91	4956.1	
712.09	4330.8	
712.27	6217.6	
712.45	6879.8	
712.64	5226.4	
712.82	4130.8	
713	5662.6	
713.18	5869.5	
713.37	4290.5	
713.55	5601.2	
713.73	6807.4	
713.91	5353.4	
714.1	4793.6	
714.28	4220.2	
714.46	6587.6	
714.64	5750.7	
714.83	3677.5	
715.01	4719.2	
715.19	5868.8	
715.37	5215.5	
715.55	4321.9	
715.74	4666.6	
715.92	6872.3	
716.1	4810	
716.28	5942.5	
716.47	4866	
716.65	5547.9	
716.83	5618.9	
717.01	4700.8	
717.19	4825	
717.38	7742.7	
717.56	5305.6	
717.74	5009.3	
717.92	4027	
718.1	6539.2	
718.29	5728.9	
718.47	3671.3	
718.65	4296	
718.83	6369.9	
719.01	6225.8	
719.2	3459.7	
719.38	4576.5	
719.56	5963	
719.74	7540.6	
719.92	4173.8	
720.11	5296.7	
720.29	6033.3	
720.47	5130.8	
720.65	3781.2	
720.83	4713.7	
721.02	5539.1	
721.2	5222.3	
721.38	4751.3	
721.56	3973.1	
721.74	4812.7	
721.92	5038	
722.11	5308.3	
722.29	5010	
722.47	6345.3	
722.65	5493.3	
722.83	4061.1	
723.01	5027.8	
723.2	5630.5	
723.38	5804.6	
723.56	3458.3	
723.74	4693.9	
723.92	5010.7	
724.1	6230.6	
724.29	3975.1	
724.47	5200.5	
724.65	5153.4	
724.83	5104.9	
725.01	3809.2	
725.19	4780	
725.37	5117.2	
725.56	5223.7	
725.74	3734.1	
725.92	4015.4	
726.1	5049.6	
726.28	5403.9	
726.46	4496	
726.64	4169.7	
726.83	5363.6	
727.01	5665.4	
727.19	3697.3	
727.37	4587.4	
727.55	5453.1	
727.73	6049.7	
727.91	3718.4	
728.09	3541.6	
728.28	6119.3	
728.46	6724.2	
728.64	4745.8	
728.82	4596.3	
729	7173.4	
729.18	6397.9	
729.36	3786.7	
729.54	6280.4	
729.72	7376.1	
729.91	5672.2	
730.09	5753.4	
730.27	4507.6	
730.45	5520.6	
730.63	6175.3	
730.81	5206.6	
730.99	4161.5	
731.17	6769.2	
731.35	5225.7	
731.53	4730.8	
731.71	4277.5	
731.9	6414.9	
732.08	6662.7	
732.26	4533.5	
732.44	4224.3	
732.62	6680.5	
732.8	6209.4	
732.98	5010	
733.16	3934.8	
733.34	6113.2	
733.52	4915.8	
733.7	4508.3	
733.88	4876.9	
734.07	5968.5	
734.25	5719.3	
734.43	3951.9	
734.61	5668.8	
734.79	7276.4	
734.97	5640.8	
735.15	4188.8	
735.33	4532.8	
735.51	6130.3	
735.69	5689.9	
735.87	5782.1	
736.05	4757.4	
736.23	5838.8	
736.41	5665.4	
736.59	4631.1	
736.77	4684.4	
736.95	6331	
737.13	5774.6	
737.32	4177.2	
737.5	4457.7	
737.68	6930.3	
737.86	5650.3	
738.04	3996.3	
738.22	5998.5	
738.4	5462.6	
738.58	5805.3	
738.76	4712.4	
738.94	3601.7	
739.12	5580	
739.3	5400.5	
739.48	5329.5	
739.66	5077.6	
739.84	5923.4	
740.02	5823.1	
740.2	3686.3	
740.38	4114.4	
740.56	6217.6	
740.74	5089.2	
740.92	4799.8	
741.1	4679.6	
741.28	5743.9	
741.46	5532.2	
741.64	4353.3	
741.82	4898.1	
742	5706.3	
742.18	5735	
742.36	4607.2	
742.54	4130.1	
742.72	6296.1	
742.9	5044.8	
743.08	5002.5	
743.26	3752.6	
743.44	6609.5	
743.62	6392.4	
743.8	5203.9	
743.98	4195.6	
744.16	6129.6	
744.34	5809.4	
744.52	5053.7	
744.7	4974.5	
744.88	6242.2	
745.06	5805.3	
745.24	5153.4	
745.42	5316.5	
745.6	6363.7	
745.78	6092.7	
745.96	3876.1	
746.14	4199	
746.32	7115.3	
746.5	6325.5	
746.68	4863.9	
746.86	4298.7	
747.03	6870.9	
747.21	5098.8	
747.39	4818.2	
747.57	4335.5	
747.75	6021	
747.93	6359.6	
748.11	4306.9	
748.29	4212	
748.47	7646.4	
748.65	5732.3	
748.83	5097.4	
749.01	4751.3	
749.19	6195.1	
749.37	5302.2	
749.55	4601.8	
749.73	4730.8	
749.91	5898.8	
750.09	5560.9	
750.26	4803.9	
750.44	4141	
750.62	5860.6	
750.8	5922	
750.98	4005.8	
751.16	4351.9	
751.34	5954.1	
751.52	5234.6	
751.7	5218.9	
751.88	4008.6	
752.06	6451.8	
752.24	6173.3	
752.42	3920.5	
752.59	4302.8	
752.77	5827.8	
752.95	7111.9	
753.13	5125.4	
753.31	4502.1	
753.49	5543.9	
753.67	6025.8	
753.85	4828.4	
754.03	4358.1	
754.21	6356.9	
754.38	6711.9	
754.56	4521.2	
754.74	3561.4	
754.92	5570.5	
755.1	6341.2	
755.28	3622.9	
755.46	3732.1	
755.64	7129.7	
755.82	7321.5	
755.99	4179.9	
756.17	4280.9	
756.35	4825.7	
756.53	6494.8	
756.71	3162.7	
756.89	4055	
757.07	6088.6	
757.25	5087.8	
757.42	4635.2	
757.6	5541.1	
757.78	5950	
757.96	4921.3	
758.14	4231.1	
758.32	3743	
758.5	4476.9	
758.67	5722	
758.85	4087.1	
759.03	4210.6	
759.21	5593.7	
759.39	4988.2	
759.57	3631.7	
759.75	4863.2	
759.92	6283.9	
760.1	5466	
760.28	5221	
760.46	5447.6	
760.64	5182.7	
760.82	4911	
760.99	5055.8	
761.17	4164.2	
761.35	6028.5	
761.53	4956.1	
761.71	4228.4	
761.89	4980	
762.06	5898.2	
762.24	5351.3	
762.42	4347.8	
762.6	4066.6	
762.78	5332.2	
762.96	5328.8	
763.13	4693.3	
763.31	4377.2	
763.49	6223.1	
763.67	5322.7	
763.85	5214.8	
764.02	5861.3	
764.2	6476.4	
764.38	5640.1	
764.56	4218.8	
764.74	5221	
764.91	6679.8	
765.09	5486.5	
765.27	3900	
765.45	3730	
765.63	6735.1	
765.8	6531.7	
765.98	3379.1	
766.16	3796.3	
766.34	4968.4	
766.52	4845.5	
766.69	4773.8	
766.87	3695.2	
767.05	5529.5	
767.23	6307.7	
767.41	4047.5	
767.58	4291.2	
767.76	6094.1	
767.94	6219	
768.12	4145.1	
768.29	4975.9	
768.47	5569.8	
768.65	6381.5	
768.83	3730	
769	4988.9	
769.18	5115.8	
769.36	5896.8	
769.54	4759.5	
769.72	3779.9	
769.89	6182.1	
770.07	6362.4	
770.25	4143	
770.43	5477.6	
770.6	7094.2	
770.78	7380.9	
770.96	4390.2	
771.14	4998.4	
771.31	6134.3	
771.49	5406	
771.67	3425.6	
771.85	3772.4	
772.02	4678.2	
772.2	5471.5	
772.38	4543.1	
772.55	3985.3	
772.73	5816.9	
772.91	5558.9	
773.09	4460.5	
773.26	4541	
773.44	5655.8	
773.62	5388.2	
773.8	3889.8	
773.97	3624.2	
774.15	5842.2	
774.33	5406	
774.5	3848.8	
774.68	4197	
774.86	5989.6	
775.04	5504.9	
775.21	3878.2	
775.39	3970.3	
775.57	5712.5	
775.74	6143.2	
775.92	3805.1	
776.1	3607.2	
776.27	5741.1	
776.45	7041.6	
776.63	3921.9	
776.81	3414.6	
776.98	5336.3	
777.16	6552.1	
777.34	4020.8	
777.51	4071.4	
777.69	5383.4	
777.87	5065.3	
778.04	4147.8	
778.22	4819.6	
778.4	5175.2	
778.57	5907	
778.75	3340.2	
778.93	3675.4	
779.1	4936.3	
779.28	4809.3	
779.46	3383.2	
779.64	3934.1	
779.81	5973.9	
779.99	6957.6	
780.17	4790.2	
780.34	4893.3	
780.52	5478.3	
780.69	5653.1	
780.87	4192.2	
781.05	3790.1	
781.22	5503.6	
781.4	5668.1	
781.58	4043.4	
781.75	3056.3	
781.93	5565	
782.11	4991.6	
782.28	4868.7	
782.46	3944.4	
782.64	4785.4	
782.81	5790.3	
782.99	4071.4	
783.17	4033.8	
783.34	5631.9	
783.52	4877.6	
783.69	4271.4	
783.87	5126.1	
784.05	4959.5	
784.22	4975.2	
784.4	5154.1	
784.58	4327.4	
784.75	5948.7	
784.93	5001.8	
785.1	4055	
785.28	4720.6	
785.46	5638.1	
785.63	4960.9	
785.81	3971.7	
785.99	3794.9	
786.16	5142.4	
786.34	5556.8	
786.51	3878.2	
786.69	4216.1	
786.87	4696.7	
787.04	5282.4	
787.22	3745.1	
787.39	4695.3	
787.57	4989.5	
787.75	6178	
787.92	4936.3	
788.1	4926.7	
788.27	5064.6	
788.45	4777.9	
788.63	4571.1	
788.8	3215.3	
788.98	5560.9	
789.15	4683.7	
789.33	3392.8	
789.5	4115.7	
789.68	6072.9	
789.86	6096.8	
790.03	4463.9	
790.21	3861.8	
790.38	5972.6	
790.56	5112.4	
790.73	3812	
790.91	3857	
791.09	4984.8	
791.26	5847	
791.44	4001.7	
791.61	3414	
791.79	5029.1	
791.96	5091.9	
792.14	3583.3	
792.32	3160	
792.49	5003.2	
792.67	5154.1	
792.84	3611.9	
793.02	3448.1	
793.19	5464	
793.37	6290	
793.54	3115.6	
793.72	3538.9	
793.89	6402.6	
794.07	5011.4	
794.25	4217.5	
794.42	3269.2	
794.6	6199.2	
794.77	5732.3	
794.95	4408.6	
795.12	3900.7	
795.3	4984.8	
795.47	5684.5	
795.65	4314.4	
795.82	4145.1	
796	4847.5	
796.17	6825.9	
796.35	3923.9	
796.52	4752	
796.7	5593	
796.87	5743.2	
797.05	4884.4	
797.22	4860.5	
797.4	5625.8	
797.57	6711.2	
797.75	4117.8	
797.92	3830.4	
798.1	5972.6	
798.27	5052.3	
798.45	3280.8	
798.62	3524.6	
798.8	5387.5	
798.97	5886.5	
799.15	4317.1	
799.32	4089.1	
799.5	4568.3	
799.67	5455.1	
799.85	4461.2	
800.02	3207.1	
800.2	5025	
800.37	5345.9	
800.55	4650.9	
800.72	3900	
800.9	5829.9	
801.07	6277.7	
801.25	5210	
801.42	4221.5	
801.6	5902.2	
801.77	5556.8	
801.95	3898	
802.12	3768.3	
802.29	5524.7	
802.47	5525.4	
802.64	4236.6	
802.82	3146.4	
802.99	4981.3	
803.17	6073.6	
803.34	4102.8	
803.52	3700	
803.69	6748.7	
803.87	4785.4	
804.04	4141.7	
804.21	4285.7	
804.39	6202.6	
804.56	5254.4	
804.74	3435.1	
804.91	4267.3	
805.09	5033.2	
805.26	5179.3	
805.44	3525.9	
805.61	3877.5	
805.78	5730.9	
805.96	5788.9	
806.13	4286.4	
806.31	4614.8	
806.48	4593.6	
806.66	5084.4	
806.83	4262.5	
807	4192.9	
807.18	4958.1	
807.35	5448.3	
807.53	4147.8	
807.7	3297.9	
807.87	6267.5	
808.05	5059.2	
808.22	4558.1	
808.4	3274	
808.57	5107	
808.74	4748.6	
808.92	3728	
809.09	4938.3	
809.27	4993.6	
809.44	5612.1	
809.61	3351.2	
809.79	3774.4	
809.96	6287.9	
810.14	5892.7	
810.31	3306.1	
810.48	3982.6	
810.66	5202.5	
810.83	6023.8	
811.01	3807.9	
811.18	4265.2	
811.35	5851	
811.53	4510.3	
811.7	4633.2	
811.87	4311	
812.05	5098.8	
812.22	4943.8	
812.39	3627.6	
812.57	3583.9	
812.74	5127.4	
812.92	6820.4	
813.09	4002.4	
813.26	4332.8	
813.44	6580.1	
813.61	4994.3	
813.78	3319.8	
813.96	4569.7	
814.13	5133.6	
814.3	4711	
814.48	4822.3	
814.65	3976.5	
814.82	6414.2	
815	4887.1	
815.17	4086.4	
815.34	5076.9	
815.52	5033.9	
815.69	5051.7	
815.87	4062.5	
816.04	3536.8	
816.21	5343.2	
816.38	4466.6	
816.56	3935.5	
816.73	3655.6	
816.9	6489.3	
817.08	5899.5	
817.25	3700.7	
817.42	4687.1	
817.6	4679.6	
817.77	5106.3	
817.94	4233.2	
818.12	3662.5	
818.29	4810	
818.46	7681.9	
818.64	3799	
818.81	3577.8	
818.98	4702.8	
819.16	6994.5	
819.33	4360.1	
819.5	4118.5	
819.67	5556.1	
819.85	6210.1	
820.02	4050.2	
820.19	4315.8	
820.37	5358.9	
820.54	4866	
820.71	4190.1	
820.88	5256.5	
821.06	5296.7	
821.23	4887.8	
821.4	4222.9	
821.58	4141.7	
821.75	5902.9	
821.92	5241.4	
822.09	3319.8	
822.27	3430.3	
822.44	5112.4	
822.61	4967.7	
822.79	3343.7	
822.96	6563.1	
823.13	5616.9	
823.3	4820.9	
823.48	3847.5	
823.65	3511.6	
823.82	5833.3	
823.99	4648.9	
824.17	5029.8	
824.34	3572.3	
824.51	6802	
824.68	5173.9	
824.86	3749.1	
825.03	4252.9	
825.2	5087.8	
825.37	6227.2	
825.55	3674.7	
825.72	4182.6	
825.89	6858.6	
826.06	6306.4	
826.24	4005.1	
826.41	4070	
826.58	6179.4	
826.75	5466	
826.92	3175	
827.1	3499.3	
827.27	8565.3	
827.44	6821.1	
827.61	3791.5	
827.79	4693.9	
827.96	4825.7	
828.13	5231.2	
828.3	3999.7	
828.47	3375.1	
828.65	5327.4	
828.82	5280.3	
828.99	5171.1	
829.16	4555.4	
829.34	5720	
829.51	5507.7	
829.68	4211.3	
829.85	4309.6	
830.02	5976.7	
830.2	5678.3	
830.37	3134.8	
830.54	4973.2	
830.71	6476.4	
830.88	5089.9	
831.05	3278.8	
831.23	3791.5	
831.4	6212.2	
831.57	7057.3	
831.74	3793.5	
831.91	3373	
832.09	5381.4	
832.26	5685.8	
832.43	3977.8	
832.6	4475.5	
832.77	5344.5	
832.94	6197.2	
833.12	3108.1	
833.29	3926	
833.46	4957.4	
833.63	7341.3	
833.8	4319.2	
833.97	4003.8	
834.15	5787.6	
834.32	5513.1	
834.49	4128.7	
834.66	4209.3	
834.83	5933.6	
835	4866.7	
835.17	3826.3	
835.35	3830.4	
835.52	5679	
835.69	5544.5	
835.86	4084.3	
836.03	3327.9	
836.2	5684.5	
836.37	5281.7	
836.55	3998.3	
836.72	3731.4	
836.89	5352	
837.06	5768.4	
837.23	4104.1	
837.4	4498	
837.57	6623.1	
837.75	7291.5	
837.92	3686.3	
838.09	3888.4	
838.26	5266.7	
838.43	6019.7	
838.6	4232.5	
838.77	3729.4	
838.94	6899.6	
839.11	6622.4	
839.29	3964.9	
839.46	3089.7	
839.63	5743.2	
839.8	5408.7	
839.97	3856.3	
840.14	3859.1	
840.31	5507	
840.48	5696.1	
840.65	3197.6	
840.82	3732.1	
841	5719.3	
841.17	5720.7	
841.34	3553.2	
841.51	3637.9	
841.68	5653.8	
841.85	5348.6	
842.02	3695.2	
842.19	3037.1	
842.36	5466.7	
842.53	5416.2	
842.7	3541.6	
842.87	4431.8	
843.05	7247.1	
843.22	5418.2	
843.39	3390.8	
843.56	3605.1	
843.73	5132.2	
843.9	5795.1	
844.07	5778	
844.24	4843.4	
844.41	8486.1	
844.58	4960.2	
844.75	3397.6	
844.92	3760.8	
845.09	5666	
845.26	5736.4	
845.43	3563.5	
845.6	3657.7	
845.77	5696.8	
845.94	5410.7	
846.12	3930.1	
846.29	4189.5	
846.46	5940.5	
846.63	5735	
846.8	3601.7	
846.97	4205.2	
847.14	6212.2	
847.31	5645.6	
847.48	3991.5	
847.65	4387.4	
847.82	5940.5	
847.99	5967.1	
848.16	4760.2	
848.33	4397	
848.5	5272.8	
848.67	6270.9	
848.84	3480.2	
849.01	3667.2	
849.18	5124.7	
849.35	4775.2	
849.52	4477.5	
849.69	3498.6	
849.86	5893.4	
850.03	6171.2	
850.2	3524.6	
850.37	4326	
850.54	6168.5	
850.71	5369.1	
850.88	4231.8	
851.05	3492.5	
851.22	5629.9	
851.39	6255.2	
851.56	3356.6	
851.73	4060.4	
851.9	4970.4	
852.07	5965.7	
852.24	3913	
852.41	3496.6	
852.58	5611.4	
852.75	5090.6	
852.92	3997.6	
853.09	3436.5	
853.26	5262.6	
853.43	6128.2	
853.6	3479.5	
853.77	3007.1	
853.94	6281.8	
854.11	5651.7	
854.28	5217.5	
854.44	3816.7	
854.61	6771.9	
854.78	5836.7	
854.95	3561.4	
855.12	4475.5	
855.29	4601.8	
855.46	6548.7	
855.63	3499.3	
855.8	4931.5	
855.97	5302.2	
856.14	6078.4	
856.31	4997.7	
856.48	3827.7	
856.65	5238.7	
856.82	4926	
856.99	3360.7	
857.16	3852.9	
857.33	7064.1	
857.49	5382.1	
857.66	3789.4	
857.83	4065.9	
858	5383.4	
858.17	5455.8	
858.34	3336.1	
858.51	3486.3	
858.68	6481.1	
858.85	6475	
859.02	4104.8	
859.19	4416.8	
859.36	5012.1	
859.52	5043.5	
859.69	3551.9	
859.86	4186.7	
860.03	5072.8	
860.2	6372.6	
860.37	3179.8	
860.54	3573	
860.71	5973.2	
860.88	6409.5	
861.05	4014	
861.21	4450.9	
861.38	6421.7	
861.55	4909	
861.72	3191.4	
861.89	3928	
862.06	5988.3	
862.23	6543.3	
862.4	3415.3	
862.56	3642.7	
862.73	5847	
862.9	5520	
863.07	4158.1	
863.24	3153.9	
863.41	4915.1	
863.58	4993.6	
863.75	3626.3	
863.91	4092.5	
864.08	6371.9	
864.25	5867.4	
864.42	4418.8	
864.59	4922.6	
864.76	6683.9	
864.93	5012.7	
865.09	3478.8	
865.26	3761.4	
865.43	6177.4	
865.6	6591	
865.77	3070.6	
865.94	3511.6	
866.1	6309.1	
866.27	5930.2	
866.44	5346.6	
866.61	3298.6	
866.78	5444.9	
866.95	5862.7	
867.11	3392.1	
867.28	3066.5	
867.45	6090	
867.62	5057.1	
867.79	4110.3	
867.96	3500	
868.12	5033.9	
868.29	6012.8	
868.46	3031	
868.63	4751.3	
868.8	6183.5	
868.97	5958.9	
869.13	3706.1	
869.3	3697.9	
869.47	5830.6	
869.64	6033.3	
869.81	3540.9	
869.97	3551.9	
870.14	5721.3	
870.31	6399.2	
870.48	3452.2	
870.65	4448.9	
870.81	5352	
870.98	5289.9	
871.15	3962.1	
871.32	3695.9	
871.48	5930.2	
871.65	6402	
871.82	3484.3	
871.99	3870	
872.16	6873	
872.32	6273.6	
872.49	3519.8	
872.66	3547.1	
872.83	5903.6	
872.99	5195	
873.16	4050.2	
873.33	3431.7	
873.5	5585.5	
873.67	5608	
873.83	3674.1	
874	4814.8	
874.17	5745.2	
874.34	6915.3	
874.5	4554	
874.67	4433.9	
874.84	6417	
875.01	5023	
875.17	4939.7	
875.34	3469.3	
875.51	5677	
875.68	6787	
875.84	4202.4	
876.01	5206.6	
876.18	5950	
876.34	5894.7	
876.51	3562.1	
876.68	3411.9	
876.85	5365.7	
877.01	6231.3	
877.18	5070.8	
877.35	3515	
877.52	5539.1	
877.68	4931.5	
877.85	3417.4	
878.02	3464.5	
878.18	5443.5	
878.35	5255.1	
878.52	2775.7	
878.69	4002.4	
878.85	5948.7	
879.02	5925.5	
879.19	5006.6	
879.35	3785.3	
879.52	5842.9	
879.69	6184.2	
879.86	3075.4	
880.02	3945.1	
880.19	5455.8	
880.36	6691.4	
880.52	4038.6	
880.69	4207.9	
880.86	5998.5	
881.02	6018.3	
881.19	3874.8	
881.36	3842.7	
881.52	5887.9	
881.69	5264	
881.86	3779.2	
882.02	3717.1	
882.19	6167.1	
882.36	7343.3	
882.52	3593.5	
882.69	4915.8	
882.86	5732.3	
883.02	5574.6	
883.19	4276.2	
883.36	4095.3	
883.52	6014.9	
883.69	6869.6	
883.86	3600.3	
884.02	3228.3	
884.19	5995.1	
884.36	5483.8	
884.52	4016.7	
884.69	3735.5	
884.86	5184.8	
885.02	6559.6	
885.19	3963.5	
885.36	4093.2	
885.52	5523.4	
885.69	5695.4	
885.86	5177.3	
886.02	4472.8	
886.19	6006.7	
886.35	5408.7	
886.52	3917.1	
886.69	4956.8	
886.85	5094.7	
887.02	6378.1	
887.19	6378.1	
887.35	6378.1	
887.52	6378.1	
887.68	6378.1	
887.85	6378.1	
888.02	6378.1	
888.18	6378.1	
888.35	6378.1	
888.51	6378.1	
888.68	6378.1	
888.85	6378.1	
889.01	6378.1	
889.18	6378.1	
889.35	6378.1	
889.51	6378.1	
889.68	6378.1	
889.84	6378.1	
890.01	6378.1	
890.17	6378.1	
890.34	6378.1	
890.51	6378.1	
890.67	6378.1	
890.84	6378.1	
891	6378.1	
891.17	6378.1	
891.34	6378.1	
891.5	6378.1	
891.67	6378.1	
891.83	6378.1	
892	6378.1	
892.16	6378.1	
892.33	6378.1	
892.5	6378.1	
892.66	6378.1	
892.83	6378.1	
892.99	6378.1	
893.16	6378.1	
893.32	6378.1	
893.49	6378.1	
893.65	6378.1	
893.82	6378.1	
893.99	6378.1	
894.15	6378.1	
894.32	6378.1	
894.48	6378.1	
894.65	6378.1	
894.81	6378.1	
894.98	6378.1	
895.14	6378.1	
895.31	6378.1	
895.47	6378.1	
895.64	6378.1	
895.81	6378.1	
895.97	6378.1	
896.14	6378.1	
896.3	6378.1	
896.47	6378.1	
896.63	6378.1	
896.8	6378.1	
896.96	6378.1	
897.13	6378.1	
897.29	6378.1	
897.46	6378.1	
897.62	6378.1	
897.79	6378.1	
897.95	6378.1	
898.12	6378.1	
898.28	6378.1	
898.45	6378.1	
898.61	6378.1	
898.78	6378.1	
898.94	6378.1	
899.11	6378.1	
899.27	6378.1	
899.44	6378.1	
899.6	6378.1	
899.77	6378.1	
899.93	6378.1	
900.1	6378.1	
900.26	6378.1	
900.43	6378.1	
900.59	6378.1	
900.76	6378.1	
900.92	6378.1	
901.09	6378.1	
901.25	6378.1	
901.42	6378.1	
901.58	6378.1	
901.75	6378.1	
901.91	6378.1	
902.07	6378.1	
902.24	6378.1	
902.4	6378.1	
902.57	6378.1	
902.73	6378.1	
902.9	6378.1	
903.06	6378.1	
903.23	6378.1	
903.39	6378.1	
903.56	6378.1	
903.72	6378.1	
903.88	6378.1	
904.05	6378.1	
904.21	6378.1	
904.38	6378.1	
904.54	6378.1	
904.71	6378.1	
904.87	6378.1	
905.03	6378.1	
905.2	6378.1	
905.36	6378.1	
905.53	6378.1	
905.69	6378.1	
905.86	6378.1	
906.02	6378.1	
906.18	6378.1	
906.35	6378.1	
906.51	6378.1	
906.68	6378.1	
906.84	6378.1	
907.01	6378.1	
907.17	6378.1	
907.33	6378.1	
907.5	6378.1	
907.66	6378.1	
907.83	6378.1	
907.99	6378.1	
908.15	6378.1	
908.32	6378.1	
908.48	6378.1	
908.65	6378.1	
908.81	6378.1	
908.97	6378.1	
909.14	6378.1	
909.3	6378.1	
909.47	6378.1	
909.63	6378.1	
909.79	6378.1	
909.96	6378.1	
910.12	6378.1	
910.28	6378.1	
910.45	6378.1	
910.61	6378.1	
910.78	6378.1	
910.94	6378.1	
911.1	6378.1	
911.27	6378.1	
911.43	6378.1	
911.59	6378.1	
911.76	6378.1	
911.92	6378.1	
912.08	6378.1	
912.25	6378.1	
912.41	6378.1	
912.57	6378.1	
912.74	6378.1	
912.9	6378.1	
913.07	6378.1	
913.23	6378.1	
913.39	6378.1	
913.56	6378.1	
913.72	6378.1	
913.88	6378.1	
914.05	6378.1	
914.21	6378.1	
914.37	6378.1	
914.54	6378.1	
914.7	6378.1	
914.86	6378.1	
915.03	6378.1	
915.19	6378.1	
