Wavelength	Intensities	
nm	a.u.	
179.22	1707	
179.44	1703.2	
179.65	1710.7	
179.86	1695.7	
180.08	1759.9	
180.29	3963.5	
180.51	3037.8	
180.72	4993.6	
180.94	5573.2	
181.15	2701.3	
181.37	2708.1	
181.58	4898.7	
181.79	5027.1	
182.01	2854.9	
182.22	3058.3	
182.44	5064.6	
182.65	4419.5	
182.87	3708.2	
183.08	3300.6	
183.29	5276.9	
183.51	4458.4	
183.72	2989.4	
183.94	4192.9	
184.15	4757.4	
184.37	4652.3	
184.58	2721.1	
184.79	3543.7	
185.01	4503.5	
185.22	5095.3	
185.44	3687.7	
185.65	3188.7	
185.86	4713.1	
186.08	4378.6	
186.29	2706	
186.51	2811.9	
186.72	4496	
186.94	5140.4	
187.15	3270.6	
187.36	3327.3	
187.58	6475.7	
187.79	4806.6	
188.01	3358	
188.22	5061.9	
188.43	5609.4	
188.65	4994.3	
188.86	2800.9	
189.08	3265.1	
189.29	4588.8	
189.5	4579.9	
189.72	3061	
189.93	3097.9	
190.15	5214.8	
190.36	5997.1	
190.57	3353.9	
190.79	3254.9	
191	5199.1	
191.22	5188.2	
191.43	3362.8	
191.64	2879.4	
191.86	5375.2	
192.07	5200.5	
192.29	2927.9	
192.5	3072	
192.71	5206.6	
192.93	4584	
193.14	3010.5	
193.35	3127.2	
193.57	4532.2	
193.78	5196.4	
194	2536.1	
194.21	2970.2	
194.42	4417.5	
194.64	4762.2	
194.85	3245.3	
195.07	3775.8	
195.28	4820.9	
195.49	4194.2	
195.71	3938.9	
195.92	2846.7	
196.13	4924.7	
196.35	4986.1	
196.56	4162.2	
196.78	3288.4	
196.99	5916.6	
197.2	5529.5	
197.42	3650.8	
197.63	3289	
197.84	4345.1	
198.06	4917.9	
198.27	3015.3	
198.48	3941	
198.7	4620.2	
198.91	4769	
199.13	3319.8	
199.34	3253.5	
199.55	5102.9	
199.77	4172.4	
199.98	2968.9	
200.19	3391.4	
200.41	4740.4	
200.62	4450.2	
200.83	3401	
201.05	3654.9	
201.26	4775.2	
201.47	4552.6	
201.69	2933.4	
201.9	2864.4	
202.11	4791.6	
202.33	5496.7	
202.54	3164.1	
202.76	3557.3	
202.97	4802.5	
203.18	4886.5	
203.4	3375.1	
203.61	3427.6	
203.82	4803.2	
204.04	4467.3	
204.25	3362.1	
204.46	3274	
204.68	4805.2	
204.89	4896	
205.1	3248.1	
205.32	2845.3	
205.53	5079.6	
205.74	5132.9	
205.96	2537.4	
206.17	3333.4	
206.38	5036.6	
206.6	5165	
206.81	3743.7	
207.02	3140.2	
207.24	4919.9	
207.45	5264.6	
207.66	3233.1	
207.88	2761.3	
208.09	4876.9	
208.3	4732.2	
208.52	2931.3	
208.73	3166.2	
208.94	4711	
209.15	5307.7	
209.37	3151.1	
209.58	3560.7	
209.79	5162.9	
210.01	4611.3	
210.22	2633	
210.43	2722.4	
210.65	4728.8	
210.86	5040.1	
211.07	3222.1	
211.29	2928.6	
211.5	4959.5	
211.71	4724.7	
211.93	2957.3	
212.14	2958.6	
212.35	4694.6	
212.56	4799.8	
212.78	3300	
212.99	2766.8	
213.2	5429.8	
213.42	4588.1	
213.63	3007.8	
213.84	3179.8	
214.06	4347.2	
214.27	4369.7	
214.48	3110.9	
214.69	3355.9	
214.91	5304.9	
215.12	5276.3	
215.33	3377.1	
215.55	3685	
215.76	5665.4	
215.97	5007.3	
216.18	3272	
216.4	3237.2	
216.61	4484.4	
216.82	5121.3	
217.04	2936.1	
217.25	3048.1	
217.46	5180	
217.67	5055.8	
217.89	2662.4	
218.1	2725.2	
218.31	4913.8	
218.53	4865.3	
218.74	3147.7	
218.95	3032.4	
219.16	4715.1	
219.38	5452.4	
219.59	3035.8	
219.8	3493.8	
220.01	5933.6	
220.23	4814.1	
220.44	3799.7	
220.65	2966.8	
220.87	4791.6	
221.08	5193	
221.29	2743.6	
221.5	3573.7	
221.72	6135	
221.93	4506.2	
222.14	3338.2	
222.35	3877.5	
222.57	4802.5	
222.78	5083.1	
222.99	3229.6	
223.2	3362.1	
223.42	4975.2	
223.63	5074.2	
223.84	2493.7	
224.05	2574.3	
224.27	5795.1	
224.48	5425.8	
224.69	3846.8	
224.9	3360	
225.12	4894.6	
225.33	4792.2	
225.54	2705.4	
225.75	3007.1	
225.97	4426.3	
226.18	4711.7	
226.39	3180.5	
226.6	3003.7	
226.82	4588.8	
227.03	4445.5	
227.24	3263.1	
227.45	2764.8	
227.67	5055.8	
227.88	5375.9	
228.09	3704.8	
228.3	3678.2	
228.52	5024.3	
228.73	4700.8	
228.94	3069.2	
229.15	2781.1	
229.36	4685.8	
229.58	4715.1	
229.79	3144.3	
230	3645.4	
230.21	5588.9	
230.43	4821.6	
230.64	3307.5	
230.85	3392.8	
231.06	5124.7	
231.28	5100.8	
231.49	2773.6	
231.7	3217.4	
231.91	5046.9	
232.12	4750.6	
232.34	2856.2	
232.55	3132.7	
232.76	5184.1	
232.97	4819.6	
233.18	2899.2	
233.4	3278.1	
233.61	4863.9	
233.82	4508.9	
234.03	3116.3	
234.25	3083.6	
234.46	6308.4	
234.67	4782	
234.88	3361.4	
235.09	2990.7	
235.31	4876.9	
235.52	4670.1	
235.73	3301.3	
235.94	2811.2	
236.15	4552	
236.37	5612.8	
236.58	2944.3	
236.79	3169.6	
237	5013.4	
237.21	4373.1	
237.43	3433.1	
237.64	2771.6	
237.85	7869	
238.06	4477.5	
238.27	3341.6	
238.48	2830.3	
238.7	5040.7	
238.91	4618.2	
239.12	3188.7	
239.33	3224.9	
239.54	4497.3	
239.76	4717.8	
239.97	3150.5	
240.18	3134.1	
240.39	5680.4	
240.6	4926.7	
240.82	3296.5	
241.03	2788	
241.24	4732.2	
241.45	5414.8	
241.66	2973.7	
241.87	3415.3	
242.09	5346.6	
242.3	5579.3	
242.51	3428.3	
242.72	3207.1	
242.93	5042.1	
243.14	4706.9	
243.36	3620.1	
243.57	3888.4	
243.78	5422.3	
243.99	5046.2	
244.2	3184.6	
244.41	2878.1	
244.63	4386.1	
244.84	4951.3	
245.05	3371	
245.26	3175	
245.47	5023	
245.68	5113.8	
245.9	4063.9	
246.11	3351.8	
246.32	4588.1	
246.53	4892.6	
246.74	4913.1	
246.95	2766.1	
247.16	4450.9	
247.38	4765.6	
247.59	2742.9	
247.8	3180.5	
248.01	4446.8	
248.22	4696.7	
248.43	2936.8	
248.64	3149.8	
248.86	4351.3	
249.07	4569	
249.28	2869.2	
249.49	3269.2	
249.7	5179.3	
249.91	5221	
250.12	2745.6	
250.34	2799.6	
250.55	4866	
250.76	4681.7	
250.97	3239.2	
251.18	3330.7	
251.39	5198.4	
251.6	4889.2	
251.81	3399.6	
252.03	3333.4	
252.24	4573.8	
252.45	5129.5	
252.66	2853.5	
252.87	3428.3	
253.08	4838	
253.29	5913.9	
253.5	2877.4	
253.72	3837.9	
253.93	4645.5	
254.14	5518.6	
254.35	3044	
254.56	3108.8	
254.77	4869.4	
254.98	4476.2	
255.19	3048.1	
255.41	3760.8	
255.62	4879.6	
255.83	5212.1	
256.04	3458.3	
256.25	3311.6	
256.46	5620.3	
256.67	4533.5	
256.88	3303.4	
257.09	3644.7	
257.31	4427.7	
257.52	4475.5	
257.73	4015.4	
257.94	3076.7	
258.15	4671.4	
258.36	4728.8	
258.57	3747.1	
258.78	2508.8	
258.99	5107.6	
259.2	4606.6	
259.41	3052.8	
259.63	3148.4	
259.84	5382.7	
260.05	5615.5	
260.26	3901.4	
260.47	3059	
260.68	5200.5	
260.89	4695.3	
261.1	3598.3	
261.31	3005.1	
261.52	5247.6	
261.73	5421.7	
261.95	3858.4	
262.16	3406.5	
262.37	5270.1	
262.58	5317.2	
262.79	3846.8	
263	3056.3	
263.21	4793.6	
263.42	4638	
263.63	3339.6	
263.84	3083.6	
264.05	5155.4	
264.26	5439.4	
264.47	3759.4	
264.69	3287	
264.9	5375.9	
265.11	4891.2	
265.32	2970.2	
265.53	3019.4	
265.74	4852.3	
265.95	4283.7	
266.16	3227.6	
266.37	3554.6	
266.58	4887.1	
266.79	4557.4	
267	3094.5	
267.21	2820.1	
267.42	4417.5	
267.63	4679.6	
267.84	3168.9	
268.06	2757.9	
268.27	5173.2	
268.48	5288.5	
268.69	3127.9	
268.9	3627	
269.11	5332.2	
269.32	4293.2	
269.53	3151.1	
269.74	3011.2	
269.95	4982.7	
270.16	4300.7	
270.37	3219.4	
270.58	3639.2	
270.79	4707.6	
271	5173.9	
271.21	3414.6	
271.42	3244	
271.63	4873.5	
271.84	4405.9	
272.05	2634.4	
272.26	2915.6	
272.47	4772.4	
272.68	4906.3	
272.89	3153.9	
273.11	3466.5	
273.32	4599.1	
273.53	5461.2	
273.74	3403.7	
273.95	3310.9	
274.16	5134.9	
274.37	4769	
274.58	3497.9	
274.79	2852.8	
275	4895.3	
275.21	5209.3	
275.42	4104.1	
275.63	3485.6	
275.84	5007.3	
276.05	6044.9	
276.26	3339.6	
276.47	3191.4	
276.68	4719.9	
276.89	5511.1	
277.1	3520.5	
277.31	2814.6	
277.52	4949.9	
277.73	5223.7	
277.94	2847.4	
278.15	3053.5	
278.36	4966.3	
278.57	4500.8	
278.78	3076	
278.99	3431	
279.2	4541.7	
279.41	4427	
279.62	3974.4	
279.83	2869.2	
280.04	5641.5	
280.25	4471.4	
280.46	3919.8	
280.67	3150.5	
280.88	4562.9	
281.09	5287.2	
281.3	3372.3	
281.51	4128.7	
281.72	5107.6	
281.93	5128.1	
282.14	3007.8	
282.35	3220.8	
282.56	5200.5	
282.77	5100.8	
282.98	3129.3	
283.19	3706.8	
283.4	6040.8	
283.61	4638.6	
283.82	2869.2	
284.03	3876.8	
284.24	4912.4	
284.45	5136.3	
284.66	3904.1	
284.87	3650.2	
285.08	5210	
285.29	5359.5	
285.5	2835.8	
285.71	3136.1	
285.92	5191.6	
286.12	5681.1	
286.33	3908.2	
286.54	3131.3	
286.75	5098.8	
286.96	4746.5	
287.17	2929.3	
287.38	3784	
287.59	4571.1	
287.8	4541	
288.01	3181.9	
288.22	3558	
288.43	4756.7	
288.64	4362.9	
288.85	3695.2	
289.06	3519.1	
289.27	5115.8	
289.48	5388.9	
289.69	3923.9	
289.9	3582.6	
290.11	5251.7	
290.32	4599.1	
290.53	3713.6	
290.74	3453.6	
290.94	5072.8	
291.15	5113.1	
291.36	3003.7	
291.57	3488.4	
291.78	4629.1	
291.99	4324.6	
292.2	2924.5	
292.41	3416	
292.62	5115.1	
292.83	5029.8	
293.04	4173.1	
293.25	2995.5	
293.46	4635.9	
293.67	5209.3	
293.88	3019.4	
294.09	2930	
294.29	4464.6	
294.5	4895.3	
294.71	3235.8	
294.92	3048.7	
295.13	4620.2	
295.34	5628.5	
295.55	2772.9	
295.76	2723.1	
295.97	5076.9	
296.18	5619.6	
296.39	2873.3	
296.6	3009.8	
296.81	4780	
297.01	5057.1	
297.22	3125.9	
297.43	3050.8	
297.64	4564.9	
297.85	4454.3	
298.06	2613.9	
298.27	2732	
298.48	4820.2	
298.69	4553.3	
298.9	3255.6	
299.11	2982.5	
299.31	4412	
299.52	4476.2	
299.73	3499.3	
299.94	3326.6	
300.15	4840	
300.36	4514.4	
300.57	3430.3	
300.78	3366.9	
300.99	4671.4	
301.2	4794.3	
301.4	2964.8	
301.61	3197.6	
301.82	5010.7	
302.03	5071.5	
302.24	3575.8	
302.45	2852.1	
302.66	4988.2	
302.87	5261.2	
303.08	3014.6	
303.29	3958.7	
303.49	4585.4	
303.7	4683	
303.91	2688.3	
304.12	3884.3	
304.33	4407.2	
304.54	4818.9	
304.75	3022.1	
304.96	2939.5	
305.16	5008	
305.37	5501.5	
305.58	2714.9	
305.79	2769.5	
306	5005.9	
306.21	4293.2	
306.42	3035.8	
306.63	4371.7	
306.83	4592.2	
307.04	5109	
307.25	3251.5	
307.46	3284.9	
307.67	4188.1	
307.88	5063.9	
308.09	2998.2	
308.29	2985.3	
308.5	4849.6	
308.71	5130.2	
308.92	3201.7	
309.13	2959.3	
309.34	4691.2	
309.55	4715.8	
309.75	3655.6	
309.96	3374.4	
310.17	5061.9	
310.38	4553.3	
310.59	3464.5	
310.8	3346.4	
311.01	5524.1	
311.21	4704.2	
311.42	2943.6	
311.63	2967.5	
311.84	4631.1	
312.05	4795.7	
312.26	3327.9	
312.46	3603.1	
312.67	4663.2	
312.88	4373.1	
313.09	2910.2	
313.3	2898.6	
313.51	5357.5	
313.71	5635.3	
313.92	2899.2	
314.13	3059	
314.34	4976.6	
314.55	4739	
314.76	3671.3	
314.96	3218	
315.17	4927.4	
315.38	5109	
315.59	3004.4	
315.8	2848.7	
316.01	5356.1	
316.21	5442.1	
316.42	2837.8	
316.63	3236.5	
316.84	4678.2	
317.05	5262.6	
317.26	3381.9	
317.46	3108.8	
317.67	4719.2	
317.88	5057.8	
318.09	3620.8	
318.3	2764.1	
318.5	4556.7	
318.71	4949.3	
318.92	4519.2	
319.13	3376.4	
319.34	5137	
319.54	5202.5	
319.75	2762	
319.96	2651.4	
320.17	5062.6	
320.38	5171.1	
320.58	2671.2	
320.79	3162.1	
321	5187.5	
321.21	5302.9	
321.42	3230.3	
321.62	2737.5	
321.83	4515.1	
322.04	4741.7	
322.25	3133.4	
322.46	2923.1	
322.66	4800.4	
322.87	5015.5	
323.08	3530	
323.29	2829.6	
323.5	5583.4	
323.7	4419.5	
323.91	3853.6	
324.12	3514.3	
324.33	4814.1	
324.53	5005.2	
324.74	3398.9	
324.95	3574.4	
325.16	4353.3	
325.37	4601.1	
325.57	2996.2	
325.78	2979.1	
325.99	4876.9	
326.2	4409.3	
326.4	4138.3	
326.61	2766.1	
326.82	4730.1	
327.03	4852.3	
327.24	4037.9	
327.44	3790.1	
327.65	4998.4	
327.86	4146.5	
328.07	3407.8	
328.27	2828.9	
328.48	5323.4	
328.69	4381.3	
328.9	4060.4	
329.1	3093.1	
329.31	4700.1	
329.52	5337	
329.73	2960.7	
329.93	3210.5	
330.14	4767	
330.35	4883.7	
330.56	4595.6	
330.76	3571.7	
330.97	4653.7	
331.18	4855.1	
331.39	3244	
331.59	2671.9	
331.8	5180	
332.01	5239.4	
332.22	3013.2	
332.42	3356.6	
332.63	4857.8	
332.84	4470.7	
333.05	3232.4	
333.25	3044	
333.46	4610.7	
333.67	4742.4	
333.88	3070.6	
334.08	3308.2	
334.29	7176.1	
334.5	5249.6	
334.7	2856.9	
334.91	3969.6	
335.12	4373.1	
335.33	4990.9	
335.53	3216.7	
335.74	4562.9	
335.95	4653.7	
336.16	4418.2	
336.36	3248.8	
336.57	3629.7	
336.78	4420.2	
336.98	5191.6	
337.19	3917.1	
337.4	3168.9	
337.61	5668.1	
337.81	4424.3	
338.02	3044	
338.23	3712.3	
338.43	5365	
338.64	4494.6	
338.85	2991.4	
339.05	3791.5	
339.26	5397.1	
339.47	4332.1	
339.68	2968.9	
339.88	4196.3	
340.09	4967	
340.3	5113.1	
340.5	3383.9	
340.71	2684.9	
340.92	4364.9	
341.13	5275.6	
341.33	2867.8	
341.54	3461.1	
341.75	4934.9	
341.95	4598.4	
342.16	3332.7	
342.37	3497.9	
342.57	4427	
342.78	4665.3	
342.99	3564.8	
343.19	2731.3	
343.4	4999.1	
343.61	4889.9	
343.81	3172.3	
344.02	2860.3	
344.23	5038.7	
344.43	5319.9	
344.64	3629.7	
344.85	3506.8	
345.06	4958.8	
345.26	5194.3	
345.47	3420.8	
345.68	3866.6	
345.88	4291.9	
346.09	5091.9	
346.3	3440.6	
346.5	2597.5	
346.71	4715.8	
346.92	4534.9	
347.12	2796.8	
347.33	3344.3	
347.54	5134.9	
347.74	5403.9	
347.95	3318.4	
348.16	2604.3	
348.36	4614.1	
348.57	4462.5	
348.78	3417.4	
348.98	3562.8	
349.19	4764.3	
349.39	4346.5	
349.6	2738.8	
349.81	2928.6	
350.01	4973.2	
350.22	4493.9	
350.43	3252.9	
350.63	3800.3	
350.84	4775.9	
351.05	4549.9	
351.25	2950.4	
351.46	2767.5	
351.67	5118.6	
351.87	4518.5	
352.08	3130	
352.29	3500	
352.49	5053.7	
352.7	4850.3	
352.9	2863.7	
353.11	3472.7	
353.32	5505.6	
353.52	4606.6	
353.73	2881.5	
353.94	3562.8	
354.14	4969.1	
354.35	4779.3	
354.55	2994.1	
354.76	3208.5	
354.97	4919.2	
355.17	4671.4	
355.38	2808.4	
355.59	3748.5	
355.79	4466.6	
356	4771.8	
356.2	3205.1	
356.41	2852.1	
356.62	4377.9	
356.82	4679.6	
357.03	3462.4	
357.24	3090.4	
357.44	4468	
357.65	4589.5	
357.85	4024.9	
358.06	3229.6	
358.27	4282.3	
358.47	4437.3	
358.68	2781.1	
358.88	3390.1	
359.09	4892.6	
359.3	5085.1	
359.5	3820.1	
359.71	3501.3	
359.91	5504.9	
360.12	4975.2	
360.33	3358	
360.53	3733.4	
360.74	4486.4	
360.94	4552	
361.15	3521.8	
361.36	3005.7	
361.56	5090.6	
361.77	4659.1	
361.97	3880.9	
362.18	3151.8	
362.38	5060.5	
362.59	4386.7	
362.8	2898.6	
363	2835.1	
363.21	4221.5	
363.41	4726.7	
363.62	3312.9	
363.83	4009.2	
364.03	4853.7	
364.24	5489.2	
364.44	4164.2	
364.65	4048.2	
364.85	4580.6	
365.06	4362.9	
365.27	3018.7	
365.47	3068.5	
365.68	5393.7	
365.88	4620.9	
366.09	3342.3	
366.29	3099.3	
366.5	4741.7	
366.71	5113.8	
366.91	4002.4	
367.12	3418.7	
367.32	5544.5	
367.53	4982.7	
367.73	3466.5	
367.94	4135.5	
368.14	4935.6	
368.35	5524.1	
368.56	3457.7	
368.76	2967.5	
368.97	5085.8	
369.17	6222.4	
369.38	2988.7	
369.58	3261.7	
369.79	4255.7	
369.99	5359.5	
370.2	3994.9	
370.4	3322.5	
370.61	4799.8	
370.82	5741.8	
371.02	3217.4	
371.23	2749.7	
371.43	4296.6	
371.64	5276.3	
371.84	3226.2	
372.05	4088.4	
372.25	6091.3	
372.46	4904.9	
372.66	3140.2	
372.87	3194.8	
373.07	4987.5	
373.28	6194.4	
373.48	4001.7	
373.69	3662.5	
373.9	4631.8	
374.1	4685.8	
374.31	3880.9	
374.51	3525.2	
374.72	5283.8	
374.92	4422.9	
375.13	3966.9	
375.33	3424.9	
375.54	4866	
375.74	4516.5	
375.95	3479.5	
376.15	4347.8	
376.36	4999.1	
376.56	4835.3	
376.77	3525.9	
376.97	3777.1	
377.18	5787.6	
377.38	4960.9	
377.59	4032.5	
377.79	3077.4	
378	4812	
378.2	5057.1	
378.41	3186	
378.61	3158	
378.82	5190.2	
379.02	4562.9	
379.23	3301.3	
379.43	4080.9	
379.64	5293.3	
379.84	4894.6	
380.05	3181.9	
380.25	3110.9	
380.46	4972.5	
380.66	4693.9	
380.87	4190.1	
381.07	4356.7	
381.28	5442.1	
381.48	4977.2	
381.69	3155.9	
381.89	3218.7	
382.1	4346.5	
382.3	5163.6	
382.51	4059.1	
382.71	4665.3	
382.91	4974.5	
383.12	5362.9	
383.32	3430.3	
383.53	3603.7	
383.73	4937.7	
383.94	4809.3	
384.14	3577.1	
384.35	2943.6	
384.55	4694.6	
384.76	5102.2	
384.96	3530	
385.17	3680.9	
385.37	5053.7	
385.58	4515.8	
385.78	3644.7	
385.98	2878.8	
386.19	4688.5	
386.39	4960.9	
386.6	3287	
386.8	3459.7	
387.01	4995.7	
387.21	5079	
387.42	3734.1	
387.62	4192.2	
387.83	4636.6	
388.03	4881	
388.23	3554.6	
388.44	4080.9	
388.64	4292.5	
388.85	4388.1	
389.05	3711.6	
389.26	4106.9	
389.46	5879.7	
389.67	5368.4	
389.87	3709.6	
390.07	3704.8	
390.28	4745.8	
390.48	4465.3	
390.69	3163.4	
390.89	3370.3	
391.1	4629.1	
391.3	5248.9	
391.5	4234.5	
391.71	4693.3	
391.91	5120.6	
392.12	5760.3	
392.32	4334.9	
392.53	3711.6	
392.73	4709	
392.93	4744.5	
393.14	3567.6	
393.34	4032.5	
393.55	5085.8	
393.75	4772.4	
393.95	3535.5	
394.16	3485	
394.36	4635.2	
394.57	5128.8	
394.77	3108.8	
394.98	3371.6	
395.18	4544.4	
395.38	4651.6	
395.59	4009.9	
395.79	3289.7	
396	4678.9	
396.2	5020.3	
396.4	3876.1	
396.61	3797.6	
396.81	5102.2	
397.02	4588.1	
397.22	4010.6	
397.42	4091.2	
397.63	5218.2	
397.83	4501.4	
398.04	3266.5	
398.24	3595.6	
398.44	4952.7	
398.65	4238.6	
398.85	3183.2	
399.05	3144.3	
399.26	4588.8	
399.46	5735	
399.67	3500.7	
399.87	3272	
400.07	4775.2	
400.28	5020.9	
400.48	3323.9	
400.69	4057.7	
400.89	5139.7	
401.09	5516.5	
401.3	3274.7	
401.5	4051.6	
401.7	5583.4	
401.91	5823.7	
402.11	3556	
402.32	3662.5	
402.52	5290.6	
402.72	5147.9	
402.93	3923.9	
403.13	3028.9	
403.33	5842.2	
403.54	4859.8	
403.74	3643.3	
403.94	4285.7	
404.15	4922	
404.35	5707	
404.56	3470.6	
404.76	4756.7	
404.96	5207.3	
405.17	5047.6	
405.37	4114.4	
405.57	3826.3	
405.78	5223.7	
405.98	4831.8	
406.18	3458.3	
406.39	4106.9	
406.59	5241.4	
406.79	4838	
407	3286.3	
407.2	3406.5	
407.4	5312.4	
407.61	5328.1	
407.81	3355.9	
408.01	4704.9	
408.22	4431.1	
408.42	5812.1	
408.62	4133.5	
408.83	3758.7	
409.03	4851	
409.23	4754.7	
409.44	3762.1	
409.64	3911.6	
409.84	5551.4	
410.05	5484.5	
410.25	3883.6	
410.45	3745.1	
410.66	5089.2	
410.86	6920.8	
411.06	3971.7	
411.27	3921.9	
411.47	6722.1	
411.67	5158.8	
411.88	4072.7	
412.08	4202.4	
412.28	5616.9	
412.49	5928.9	
412.69	3900	
412.89	3940.3	
413.09	5844.9	
413.3	5726.1	
413.5	3977.8	
413.7	3638.6	
413.91	5287.9	
414.11	5859.9	
414.31	3828.3	
414.52	4053.6	
414.72	5618.9	
414.92	5491.3	
415.12	3829.7	
415.33	4160.8	
415.53	5770.5	
415.73	5975.3	
415.94	4496.7	
416.14	4078.9	
416.34	5119.2	
416.55	4932.2	
416.75	4922.6	
416.95	4444.1	
417.15	5847	
417.36	6371.2	
417.56	5076.9	
417.76	4333.5	
417.97	6010.1	
418.17	5791.7	
418.37	4077.5	
418.57	4094.6	
418.78	5788.2	
418.98	5458.5	
419.18	4701.5	
419.38	4651.6	
419.59	5413.5	
419.79	5241.4	
419.99	3985.3	
420.2	4261.1	
420.4	5885.2	
420.6	5964.4	
420.8	3918.4	
421.01	3837.9	
421.21	5677.7	
421.41	5789.6	
421.61	4231.1	
421.82	3992.9	
422.02	5459.9	
422.22	6106.4	
422.42	4564.9	
422.63	4416.1	
422.83	5402.5	
423.03	6346	
423.23	4369	
423.44	3695.2	
423.64	5537	
423.84	5290.6	
424.04	4007.9	
424.25	3706.8	
424.45	6213.5	
424.65	6171.9	
424.85	3642.7	
425.06	4029	
425.26	6237.4	
425.46	5481.7	
425.66	4435.2	
425.87	4139.6	
426.07	6007.4	
426.27	5872.2	
426.47	4226.3	
426.67	3839.3	
426.88	6313.2	
427.08	5897.5	
427.28	4439.3	
427.48	3768.3	
427.69	5109	
427.89	5555.5	
428.09	4388.1	
428.29	3779.9	
428.5	6024.4	
428.7	5669.5	
428.9	3704.1	
429.1	4046.8	
429.3	5711.8	
429.51	5886.5	
429.71	3980.6	
429.91	4557.4	
430.11	5847.6	
430.31	6047.7	
430.52	4192.2	
430.72	4383.3	
430.92	6279.8	
431.12	5828.5	
431.32	3862.5	
431.53	4287.1	
431.73	5126.7	
431.93	6325.5	
432.13	3852.2	
432.33	3773	
432.54	5431.2	
432.74	5626.5	
432.94	3735.5	
433.14	4483	
433.34	5944.6	
433.55	5522.7	
433.75	4457.7	
433.95	5685.2	
434.15	5767.8	
434.35	5408	
434.56	3889.1	
434.76	3548.4	
434.96	5698.1	
435.16	5787.6	
435.36	3727.3	
435.56	4588.1	
435.77	5411.4	
435.97	5544.5	
436.17	5156.8	
436.37	4525.3	
436.57	5395	
436.78	5303.6	
436.98	5883.1	
437.18	4995.7	
437.38	5868.1	
437.58	5572.5	
437.78	5059.8	
437.99	4104.8	
438.19	5963.7	
438.39	6562.4	
438.59	4078.2	
438.79	3753.2	
438.99	6462	
439.2	5550	
439.4	3793.5	
439.6	3766.2	
439.8	5681.7	
440	6445.6	
440.2	4511	
440.4	4580.6	
440.61	6090.7	
440.81	6350.8	
441.01	3870.7	
441.21	4547.2	
441.41	6361	
441.61	6010.1	
441.81	4825.7	
442.02	5476.3	
442.22	6675	
442.42	6155.5	
442.62	3951.2	
442.82	4106.2	
443.02	6461.3	
443.22	5737	
443.43	4300.7	
443.63	3933.5	
443.83	5590.3	
444.03	5618.9	
444.23	4807.9	
444.43	4532.2	
444.63	5842.2	
444.83	6680.5	
445.04	4063.2	
445.24	4927.4	
445.44	6121.4	
445.64	6190.3	
445.84	4712.4	
446.04	4655.7	
446.24	5698.1	
446.44	6425.8	
446.65	4101.4	
446.85	4365.6	
447.05	5987.6	
447.25	6364.4	
447.45	4437.3	
447.65	4002.4	
447.85	5958.9	
448.05	5631.2	
448.25	4705.5	
448.46	4575.2	
448.66	5919.3	
448.86	5664.7	
449.06	3986	
449.26	4758.1	
449.46	6135.7	
449.66	5471.5	
449.86	4349.2	
450.06	4412.7	
450.26	5668.1	
450.47	6036	
450.67	4569	
450.87	4788.2	
451.07	6208.1	
451.27	5915.2	
451.47	4107.5	
451.67	4505.5	
451.87	5715.2	
452.07	6534.4	
452.27	4259.8	
452.47	4260.5	
452.67	6014.2	
452.88	6275.7	
453.08	3816.7	
453.28	5236	
453.48	6827.2	
453.68	5923.4	
453.88	4230.4	
454.08	4362.9	
454.28	6190.3	
454.48	5965.7	
454.68	4764.3	
454.88	5055.8	
455.08	6397.2	
455.28	6080.4	
455.48	4080.2	
455.68	4532.2	
455.89	6669.6	
456.09	6407.4	
456.29	4403.8	
456.49	4409.3	
456.69	6544.6	
456.89	6102.3	
457.09	4767	
457.29	4982	
457.49	6193.1	
457.69	6254.5	
457.89	4573.8	
458.09	4109.6	
458.29	6045.6	
458.49	6622.4	
458.69	4920.6	
458.89	4476.2	
459.09	6714.6	
459.29	6773.3	
459.49	4574.5	
459.69	5167.7	
459.9	6378.7	
460.1	6067.4	
460.3	4442.7	
460.5	4343.1	
460.7	6447	
460.9	6140.5	
461.1	4138.9	
461.3	5024.3	
461.5	6941.9	
461.7	6566.5	
461.9	4445.5	
462.1	4750.6	
462.3	6217	
462.5	6676.4	
462.7	4444.8	
462.9	4501.4	
463.1	7395.2	
463.3	7118.7	
463.5	4683.7	
463.7	5354.8	
463.9	6413.6	
464.1	6624.5	
464.3	4841.4	
464.5	5054.4	
464.7	6797.2	
464.9	6616.3	
465.1	5928.9	
465.3	5281	
465.5	7093.5	
465.7	7137.2	
465.9	5473.5	
466.1	5262.6	
466.3	6883.9	
466.5	6846.4	
466.7	5914.5	
466.9	5128.8	
467.1	6869.6	
467.3	7401.4	
467.5	5869.5	
467.7	5009.3	
467.9	7652.6	
468.1	8307.2	
468.3	5628.5	
468.5	5966.4	
468.7	6749.4	
468.9	6678.4	
469.1	5283.8	
469.3	5840.1	
469.5	8372.8	
469.7	6390.3	
469.9	5667.4	
470.1	5217.5	
470.3	6795.2	
470.5	6840.2	
470.7	6075	
470.9	5175.2	
471.1	6675.7	
471.3	6970.6	
471.5	5074.9	
471.69	6562.4	
471.89	6651.8	
472.09	6217.6	
472.29	5664.7	
472.49	5970.5	
472.69	6373.3	
472.89	7021.8	
473.09	5003.2	
473.29	5176.6	
473.49	6604.7	
473.69	6685.3	
473.89	5766.4	
474.09	5228.5	
474.29	7518.8	
474.49	7345.4	
474.69	5762.3	
474.89	5374.6	
475.09	6712.6	
475.29	6648.4	
475.49	4965	
475.69	5111	
475.88	7908.6	
476.08	7088.7	
476.28	4881.7	
476.48	5178.6	
476.68	7374.7	
476.88	7131	
477.08	5154.1	
477.28	5371.8	
477.48	6832.7	
477.68	7187.7	
477.88	4991.6	
478.08	5178.6	
478.28	7456.7	
478.48	6847.7	
478.67	5295.4	
478.87	4813.4	
479.07	7278.5	
479.27	7040.2	
479.47	5513.8	
479.67	5494	
479.87	7174	
480.07	7618.4	
480.27	4955.4	
480.47	6014.2	
480.67	6936.5	
480.87	7479.2	
481.06	5081.7	
481.26	5828.5	
481.46	7010.2	
481.66	6875.7	
481.86	5503.6	
482.06	6216.3	
482.26	6801.3	
482.46	7474.4	
482.66	5458.5	
482.86	5139.7	
483.05	7068.2	
483.25	6490.7	
483.45	7382.2	
483.65	5343.8	
483.85	6707.1	
484.05	6838.2	
484.25	5744.6	
484.45	6053.1	
484.65	7486.7	
484.84	7525.6	
485.04	5421	
485.24	5376.6	
485.44	7855.3	
485.64	6612.2	
485.84	4878.3	
486.04	5860.6	
486.24	6791.1	
486.44	6946.7	
486.63	4893.3	
486.83	5493.3	
487.03	6836.8	
487.23	6853.2	
487.43	5017.5	
487.63	6626.5	
487.83	6922.1	
488.02	7623.2	
488.22	5660.6	
488.42	6125.5	
488.62	7629.4	
488.82	6759	
489.02	5480.4	
489.22	5479.7	
489.41	7531.7	
489.61	7370.6	
489.81	5279.7	
490.01	5266.7	
490.21	7501.7	
490.41	7941.3	
490.61	5238.7	
490.8	5415.5	
491	7156.3	
491.2	6669.6	
491.4	5829.9	
491.6	5226.4	
491.8	7188.4	
491.99	7135.1	
492.19	5031.2	
492.39	5345.9	
492.59	7451.2	
492.79	7557.7	
492.99	5877.7	
493.18	5211.4	
493.38	7615.7	
493.58	8155	
493.78	5857.9	
493.98	5415.5	
494.18	7389.8	
494.37	6920.1	
494.57	6017.6	
494.77	5860.6	
494.97	7565.9	
495.17	7802.8	
495.37	5565.7	
495.56	5874.3	
495.76	7866.2	
495.96	7622.5	
496.16	6579.4	
496.36	5762.3	
496.55	7821.2	
496.75	7407.5	
496.95	6055.2	
497.15	6057.2	
497.35	7754.3	
497.54	7714	
497.74	5861.3	
497.94	7079.1	
498.14	8350.9	
498.34	8125.7	
498.53	5549.3	
498.73	6218.3	
498.93	7253.2	
499.13	7701.7	
499.33	6005.3	
499.52	6436.1	
499.72	7871	
499.92	7968.6	
500.12	5853.8	
500.32	6052.4	
500.51	8017.8	
500.71	7787.1	
500.91	6677.1	
501.11	6313.9	
501.31	7909.9	
501.5	8296.3	
501.7	6870.9	
501.9	6085.2	
502.1	7688.8	
502.29	8107.9	
502.49	6365.8	
502.69	6710.5	
502.89	7945.4	
503.09	8019.8	
503.28	5682.4	
503.48	5834.7	
503.68	7512.6	
503.88	7460.1	
504.07	6576.7	
504.27	6171.2	
504.47	7722.2	
504.67	7776.8	
504.86	6464.1	
505.06	6220.4	
505.26	7528.3	
505.46	8802.9	
505.65	6184.9	
505.85	6416.3	
506.05	7517.4	
506.25	7877.9	
506.44	5732.9	
506.64	6326.2	
506.84	7390.4	
507.04	8067.6	
507.23	5885.2	
507.43	6290	
507.63	8861.6	
507.83	7512.6	
508.02	6215.6	
508.22	5999.2	
508.42	9037	
508.62	7311.9	
508.81	6142.5	
509.01	6625.9	
509.21	7304.4	
509.4	7557	
509.6	6356.2	
509.8	5737.7	
510	7528.3	
510.19	8430.1	
510.39	5852.4	
510.59	5847.6	
510.79	7419.1	
510.98	8311.3	
511.18	6004	
511.38	5973.2	
511.57	8082.6	
511.77	7808.2	
511.97	6555.5	
512.17	5796.4	
512.36	8025.3	
512.56	7886.7	
512.76	5825.8	
512.95	5651	
513.15	7994.6	
513.35	6913.3	
513.55	6495.5	
513.74	5939.8	
513.94	8063.5	
514.14	7504.4	
514.33	6554.9	
514.53	6281.8	
514.73	7570	
514.92	7693.5	
515.12	5945.3	
515.32	5870.8	
515.51	7800	
515.71	8041	
515.91	7163.8	
516.11	5948.7	
516.3	8984.4	
516.5	7460.1	
516.7	6313.2	
516.89	6759	
517.09	7557.7	
517.29	7530.4	
517.48	6669.6	
517.68	6063.4	
517.88	7387	
518.07	7843.7	
518.27	6492.7	
518.47	5711.1	
518.66	8292.9	
518.86	7294.9	
519.06	5709.1	
519.25	6065.4	
519.45	7536.5	
519.65	8645.8	
519.84	6414.9	
520.04	7036.1	
520.24	8987.2	
520.43	8000.7	
520.63	6324.1	
520.83	6152.1	
521.02	7527	
521.22	7924.3	
521.42	6513.9	
521.61	6867.5	
521.81	7604.1	
522.01	7747.5	
522.2	6365.8	
522.4	6139.1	
522.6	8048.5	
522.79	7167.2	
522.99	6163	
523.18	5670.1	
523.38	7901.1	
523.58	7871.7	
523.77	7105.8	
523.97	5743.2	
524.17	9177.6	
524.36	8717.5	
524.56	6794.5	
524.76	6531.7	
524.95	7871.7	
525.15	7678.5	
525.34	6347.3	
525.54	6453.1	
525.74	8250.6	
525.93	7475.1	
526.13	7398.6	
526.33	6375.3	
526.52	8548.2	
526.72	8143.4	
526.91	7329	
527.11	6782.9	
527.31	8467	
527.5	8847.9	
527.7	6692.8	
527.89	6021	
528.09	7802.1	
528.29	8202.1	
528.48	7017	
528.68	6759	
528.87	8464.3	
529.07	8494.3	
529.27	6723.5	
529.46	6465.4	
529.66	8318.8	
529.85	8641.7	
530.05	6320	
530.25	6917.4	
530.44	9263	
530.64	8221.9	
530.83	6672.3	
531.03	6768.5	
531.23	8595.3	
531.42	8386.4	
531.62	7341.3	
531.81	6646.3	
532.01	8675.2	
532.21	8865.7	
532.4	6487.3	
532.6	6836.8	
532.79	9321.7	
532.99	8680.7	
533.18	6899.6	
533.38	7603.4	
533.58	8361.2	
533.77	8852	
533.97	6865.5	
534.16	7469.6	
534.36	9112.8	
534.55	8472.4	
534.75	7658.7	
534.95	7002.7	
535.14	9106.6	
535.34	8452.6	
535.53	6680.5	
535.73	8202.1	
535.92	9485.5	
536.12	8597.4	
536.31	6884.6	
536.51	7703.8	
536.71	8815.1	
536.9	8464.9	
537.1	6834.8	
537.29	6984.3	
537.49	9020.6	
537.68	8412.4	
537.88	7417.7	
538.07	6685.9	
538.27	8685.4	
538.46	9263.6	
538.66	6624.5	
538.86	7016.3	
539.05	8662.2	
539.25	9023.4	
539.44	7251.9	
539.64	6959.7	
539.83	8644.5	
540.03	9310.7	
540.22	6877.1	
540.42	6935.8	
540.61	8763.9	
540.81	8783.7	
541	7207.5	
541.2	7743.4	
541.39	8310.7	
541.59	8643.8	
541.78	7572.7	
541.98	6879.8	
542.18	8161.8	
542.37	8144.8	
542.57	7179.5	
542.76	7505.8	
542.96	8202.8	
543.15	8697.7	
543.35	7127.6	
543.54	6705.7	
543.74	8834.3	
543.93	8508.6	
544.13	7089.4	
544.32	7838.3	
544.52	8815.8	
544.71	8247.9	
544.91	6335.7	
545.1	7306.5	
545.3	8282	
545.49	8718.2	
545.69	6401.3	
545.88	6794.5	
546.08	9460.9	
546.27	9070.5	
546.47	7141.9	
546.66	6719.4	
546.86	8893	
547.05	9295	
547.24	6754.9	
547.44	6767.9	
547.63	8136.6	
547.83	8928.5	
548.02	7025.2	
548.22	7155.6	
548.41	8069	
548.61	8939.4	
548.8	6703.7	
549	6649.1	
549.19	8453.3	
549.39	8649.9	
549.58	6467.5	
549.78	6810.9	
549.97	8791.2	
550.17	8359.1	
550.36	7501	
550.55	8258.1	
550.75	8360.5	
550.94	9027.4	
551.14	6590.4	
551.33	6905.1	
551.53	7901.7	
551.72	8612.4	
551.92	6890.7	
552.11	6726.2	
552.31	8729.1	
552.5	8625.4	
552.69	7951.6	
552.89	6455.2	
553.08	8572.1	
553.28	8356.4	
553.47	6736.5	
553.67	7517.4	
553.86	9140.1	
554.06	7814.4	
554.25	6240.8	
554.44	6528.2	
554.64	9598.1	
554.83	9219.3	
555.03	6489.3	
555.22	6890.7	
555.42	8760.5	
555.61	8445.8	
555.8	6756.2	
556	6886	
556.19	7866.2	
556.39	8747.6	
556.58	6733	
556.78	6742.6	
556.97	8413.1	
557.16	8127	
557.36	7630.7	
557.55	6447	
557.75	7647.1	
557.94	9079.3	
558.13	6543.9	
558.33	6333.7	
558.52	8893.6	
558.72	7871	
558.91	6359.6	
559.1	6577.4	
559.3	7754.3	
559.49	7559.7	
559.69	6074.3	
559.88	6854.6	
560.07	8411.7	
560.27	8761.9	
560.46	7061.4	
560.66	7068.9	
560.85	8244.4	
561.04	7669	
561.24	6283.2	
561.43	6554.9	
561.63	7798.7	
561.82	8047.8	
562.01	7432.1	
562.21	6750.8	
562.4	8393.9	
562.59	9045.2	
562.79	6647	
562.98	6446.3	
563.18	8275.8	
563.37	9351.7	
563.56	6981.5	
563.76	6385.6	
563.95	7922.2	
564.14	7950.9	
564.34	6703	
564.53	6377.4	
564.73	8335.9	
564.92	8537.3	
565.11	6768.5	
565.31	6296.1	
565.5	8804.2	
565.69	7907.2	
565.89	6552.8	
566.08	6731	
566.27	8605.6	
566.47	8894.3	
566.66	7187.7	
566.85	6270.9	
567.05	8396.7	
567.24	7925	
567.44	6412.2	
567.63	7454.6	
567.82	8624.7	
568.02	8292.2	
568.21	6498.9	
568.4	6712.6	
568.6	8251.3	
568.79	8278.6	
568.98	6375.3	
569.18	6417.7	
569.37	8284	
569.56	9762	
569.76	6761	
569.95	7545.4	
570.14	8619.9	
570.34	8464.9	
570.53	6350.1	
570.72	6417.7	
570.91	8944.2	
571.11	8312	
571.3	6779.5	
571.49	7479.9	
571.69	8409	
571.88	7879.2	
572.07	7185.6	
572.27	7081.2	
572.46	7960.5	
572.65	8753.7	
572.85	6606.1	
573.04	6866.8	
573.23	8947.6	
573.43	8367.3	
573.62	6477.7	
573.81	6955.6	
574	8531.2	
574.2	8196	
574.39	6766.5	
574.58	6838.2	
574.78	9029.5	
574.97	8537.3	
575.16	7165.8	
575.36	7271.7	
575.55	8888.9	
575.74	8997.4	
575.93	6516	
576.13	7273	
576.32	8364.6	
576.51	8823.3	
576.71	6931	
576.9	7892.2	
577.09	9123.7	
577.28	8757.1	
577.48	7175.4	
577.67	6438.8	
577.86	8381.7	
578.05	8667	
578.25	7002.7	
578.44	7029.3	
578.63	8572.8	
578.83	9398.1	
579.02	6553.5	
579.21	7702.4	
579.4	8724.3	
579.6	8434.9	
579.79	7129	
579.98	8774.2	
580.17	8980.3	
580.37	9069.1	
580.56	6746.7	
580.75	7314	
580.94	9131.9	
581.14	9199.5	
581.33	7619.8	
581.52	6869.6	
581.71	8840.4	
581.91	9311.4	
582.1	6615.6	
582.29	7001.3	
582.48	8604.9	
582.68	8624.7	
582.87	7421.2	
583.06	7108.5	
583.25	8854.7	
583.45	8480.6	
583.64	7582.3	
583.83	8187.8	
584.02	8533.2	
584.21	8928.5	
584.41	7593.2	
584.6	7129	
584.79	8700.5	
584.98	9114.1	
585.18	6718.7	
585.37	6693.4	
585.56	8358.4	
585.75	8926.4	
585.94	6902.3	
586.14	7333.8	
586.33	9387.2	
586.52	8576.9	
586.71	7230.7	
586.91	6986.3	
587.1	8133.8	
587.29	8886.8	
587.48	6947.4	
587.67	6856.6	
587.87	8846.5	
588.06	8723	
588.25	7876.5	
588.44	7298.3	
588.63	8516.1	
588.83	8999.5	
589.02	6995.2	
589.21	6731.7	
589.4	8413.7	
589.59	8355.7	
589.78	6272.9	
589.98	6480.5	
590.17	8027.4	
590.36	8311.3	
590.55	6041.5	
590.74	6643.6	
590.94	9202.2	
591.13	8230.1	
591.32	6421.7	
591.51	6094.8	
591.7	8487.5	
591.89	8190.5	
592.09	6168.5	
592.28	6533.7	
592.47	7473.7	
592.66	9056.1	
592.85	6133	
593.05	6322.1	
593.24	8037.6	
593.43	8766.7	
593.62	6361	
593.81	6797.9	
594	8208.9	
594.19	8314.8	
594.39	6257.9	
594.58	6185.5	
594.77	8344.8	
594.96	8789.2	
595.15	6290.7	
595.34	6705	
595.54	8249.9	
595.73	7694.2	
595.92	5812.1	
596.11	6619	
596.3	8787.8	
596.49	7808.9	
596.68	6455.9	
596.88	6804	
597.07	8436.3	
597.26	7594.6	
597.45	6083.1	
597.64	6966.5	
597.83	7788.4	
598.02	8284	
598.22	6143.2	
598.41	6620.4	
598.6	8122.9	
598.79	7650.5	
598.98	6213.5	
599.17	6852.5	
599.36	8103.1	
599.55	8921.6	
599.74	7602.7	
599.94	7474.4	
600.13	8520.9	
600.32	7623.9	
600.51	5969.1	
600.7	6068.1	
600.89	8935.3	
601.08	9001.5	
601.27	5903.6	
601.47	6580.8	
601.66	8394.6	
601.85	8799.4	
602.04	6390.3	
602.23	6670.2	
602.42	7693.5	
602.61	8186.4	
602.8	6275	
602.99	6096.1	
603.18	7965.9	
603.37	8063.5	
603.57	6595.1	
603.76	7021.1	
603.95	8720.3	
604.14	8354.3	
604.33	6205.3	
604.52	6493.4	
604.71	8195.3	
604.9	7835.5	
605.09	6922.8	
605.28	6728.9	
605.47	8630.1	
605.66	8225.3	
605.86	6673.6	
606.05	6223.1	
606.24	8592.6	
606.43	7438.9	
606.62	6480.5	
606.81	7034.1	
607	8369.4	
607.19	7915.4	
607.38	5999.9	
607.57	6220.4	
607.76	7716.7	
607.95	7283.9	
608.14	6512.5	
608.33	7020.4	
608.52	7638.2	
608.72	8349.6	
608.91	5894.1	
609.1	5850.4	
609.29	7770.7	
609.48	7379.5	
609.67	6614.9	
609.86	5938.4	
610.05	7562.5	
610.24	7722.2	
610.43	5841.5	
610.62	5652.4	
610.81	8584.4	
611	8472.4	
611.19	5917.3	
611.38	6464.8	
611.57	8036.2	
611.76	8921.6	
611.95	5737.7	
612.14	5596.4	
612.33	7816.4	
612.52	7361.8	
612.71	6165.8	
612.9	5650.3	
613.09	7169.9	
613.28	8916.9	
613.47	6225.1	
613.66	6657.9	
613.85	7851.9	
614.04	7613.7	
614.24	5976	
614.43	5452.4	
614.62	8034.9	
614.81	7978.9	
615	6414.9	
615.19	6404	
615.38	7352.2	
615.57	7731.8	
615.76	6297.5	
615.95	7055.3	
616.14	8043.7	
616.33	7776.8	
616.52	6623.8	
616.71	6724.8	
616.9	8042.4	
617.09	7819.8	
617.28	6134.3	
617.47	7029.3	
617.66	7289.4	
617.85	7298.3	
618.04	6695.5	
618.22	6325.5	
618.41	7638.2	
618.6	8328.4	
618.79	6324.1	
618.98	6179.4	
619.17	8510.7	
619.36	7263.5	
619.55	6143.2	
619.74	6219	
619.93	7956.4	
620.12	7587.7	
620.31	6671.6	
620.5	6808.8	
620.69	8396.7	
620.88	8720.9	
621.07	7290.1	
621.26	6657.9	
621.45	8148.2	
621.64	8119.5	
621.83	6684.6	
622.02	6072.2	
622.21	8275.8	
622.4	8063.5	
622.59	7083.9	
622.78	7014.3	
622.97	7775.5	
623.16	8495	
623.35	6703	
623.54	5981.4	
623.72	7887.4	
623.91	7956.4	
624.1	6860.7	
624.29	5936.4	
624.48	8772.1	
624.67	8204.2	
624.86	6791.7	
625.05	6067.4	
625.24	8868.4	
625.43	7772	
625.62	7985.7	
625.81	6283.2	
626	8396	
626.19	7818.5	
626.38	6789	
626.56	6392.4	
626.75	7737.9	
626.94	8304.5	
627.13	6811.5	
627.32	5986.2	
627.51	8367.3	
627.7	9099.8	
627.89	6039.5	
628.08	6872.3	
628.27	7636.2	
628.46	7890.8	
628.65	6214.9	
628.83	6008.7	
629.02	8217.1	
629.21	7643.7	
629.4	6533.7	
629.59	6657.9	
629.78	7650.5	
629.97	8368	
630.16	6708.5	
630.35	6353.5	
630.54	8763.3	
630.72	8518.9	
630.91	6299.6	
631.1	6695.5	
631.29	8118.8	
631.48	8195.3	
631.67	6773.3	
631.86	6364.4	
632.05	7880.6	
632.24	7897	
632.42	6155.5	
632.61	6653.9	
632.8	7886.7	
632.99	7606.2	
633.18	6655.9	
633.37	6916.7	
633.56	8161.8	
633.75	8005.5	
633.93	6623.1	
634.12	6393.1	
634.31	8708	
634.5	8376.9	
634.69	6404.7	
634.88	6735.1	
635.07	7978.9	
635.25	8393.3	
635.44	7103.7	
635.63	7178.8	
635.82	7817.1	
636.01	7491.5	
636.2	6995.2	
636.39	6696.9	
636.57	8689.5	
636.76	8353	
636.95	6293.4	
637.14	7269.6	
637.33	8228.7	
637.52	8811.7	
637.7	6107	
637.89	6767.9	
638.08	7926.3	
638.27	8890.9	
638.46	6821.8	
638.65	7137.9	
638.83	8951.7	
639.02	7703.8	
639.21	6765.8	
639.4	7116.7	
639.59	8116.8	
639.78	7773.4	
639.96	6111.8	
640.15	6283.2	
640.34	7949.5	
640.53	8033.5	
640.72	5984.2	
640.91	6256.5	
641.09	7436.2	
641.28	8454	
641.47	6226.5	
641.66	6879.8	
641.85	8016.4	
642.03	8172.8	
642.22	6559	
642.41	6303.6	
642.6	7581.6	
642.79	7118.1	
642.97	6193.1	
643.16	6596.5	
643.35	7563.8	
643.54	7385	
643.73	6091.3	
643.91	6698.2	
644.1	7322.2	
644.29	7791.2	
644.48	6178	
644.67	6143.9	
644.85	7410.9	
645.04	7740	
645.23	5865.4	
645.42	6081.1	
645.6	7335.1	
645.79	8232.8	
645.98	6029.9	
646.17	5377.3	
646.36	7152.2	
646.54	7585.7	
646.73	6623.8	
646.92	5737	
647.11	7250.5	
647.29	8006.2	
647.48	5804.6	
647.67	5585.5	
647.86	8176.2	
648.05	8217.8	
648.23	5944.6	
648.42	6944.7	
648.61	7714.7	
648.8	7478.5	
648.98	5742.5	
649.17	5939.8	
649.36	7191.8	
649.55	6831.3	
649.73	5705	
649.92	6290	
650.11	7067.5	
650.3	7349.5	
650.48	5810.1	
650.67	5569.8	
650.86	7522.2	
651.05	6763.1	
651.23	5756.8	
651.42	5740.5	
651.61	7135.1	
651.79	7150.1	
651.98	5875.6	
652.17	5565.7	
652.36	7475.8	
652.54	6789.7	
652.73	5618.3	
652.92	5546.6	
653.11	7539.3	
653.29	7538.6	
653.48	5156.1	
653.67	5881.1	
653.85	7254.6	
654.04	8105.9	
654.23	5945.9	
654.42	5632.6	
654.6	6933.7	
654.79	7426.6	
654.98	5251	
655.16	5593.7	
655.35	6641.6	
655.54	6402	
655.73	5259.2	
655.91	5074.2	
656.1	7239.6	
656.29	6408.8	
656.47	4862.6	
656.66	6052.4	
656.85	6705.7	
657.03	6670.2	
657.22	5264	
657.41	5288.5	
657.59	6823.1	
657.78	6647.7	
657.97	5139.7	
658.16	5599.1	
658.34	7238.9	
658.53	7610.3	
658.72	6265.4	
658.9	6619.7	
659.09	6976.7	
659.28	6947.4	
659.46	5393.7	
659.65	5356.8	
659.84	6684.6	
660.02	7180.9	
660.21	5408.7	
660.4	5317.2	
660.58	7401.4	
660.77	6924.2	
660.96	5792.3	
661.14	5003.9	
661.33	7765.2	
661.52	7735.2	
661.7	4971.1	
661.89	7629.4	
662.08	6645	
662.26	6410.1	
662.45	5239.4	
662.64	5315.8	
662.82	7214.3	
663.01	6589	
663.2	5233.2	
663.38	5817.6	
663.57	7094.2	
663.75	6993.1	
663.94	5513.1	
664.13	6513.9	
664.31	6705.7	
664.5	7192.5	
664.69	5711.8	
664.87	6081.1	
665.06	6438.8	
665.25	6995.9	
665.43	6260	
665.62	6242.2	
665.8	7264.8	
665.99	6679.1	
666.18	5525.4	
666.36	5582.8	
666.55	7288	
666.74	7076.4	
666.92	5201.8	
667.11	6485.2	
667.29	6834.1	
667.48	7197.2	
667.67	6135.7	
667.85	5382.1	
668.04	6711.9	
668.22	6753.5	
668.41	5555.5	
668.6	5725.4	
668.78	6595.8	
668.97	6816.3	
669.15	5761.6	
669.34	5055.1	
669.53	6610.2	
669.71	6854.6	
669.9	5151.3	
670.08	5655.8	
670.27	6511.9	
670.46	7027.3	
670.64	5860.6	
670.83	5938.4	
671.01	6414.9	
671.2	6857.3	
671.38	5224.4	
671.57	5169.8	
671.76	7333.8	
671.94	7767.9	
672.13	5086.5	
672.31	5906.3	
672.5	7118.1	
672.69	6536.4	
672.87	5230.5	
673.06	5444.2	
673.24	6965.8	
673.43	6628.6	
673.61	5683.1	
673.8	5388.9	
673.98	7038.9	
674.17	7124.2	
674.36	5859.9	
674.54	5760.3	
674.73	6865.5	
674.91	7116.7	
675.1	5483.8	
675.28	5162.9	
675.47	6737.1	
675.65	7136.5	
675.84	5414.1	
676.03	5703.6	
676.21	6599.2	
676.4	6215.6	
676.58	6067.4	
676.77	5804.6	
676.95	7735.9	
677.14	6580.1	
677.32	5145.2	
677.51	5035.3	
677.69	7172	
677.88	6365.1	
678.06	5124.7	
678.25	5163.6	
678.44	6802.7	
678.62	6479.8	
678.81	4952.7	
678.99	5669.5	
679.18	7397.9	
679.36	6961.7	
679.55	5304.9	
679.73	5758.9	
679.92	7060.7	
680.1	6627.9	
680.29	6300.2	
680.47	5356.8	
680.66	6504.3	
680.84	7140.6	
681.03	4902.2	
681.21	5672.9	
681.4	6587	
681.58	6476.4	
681.77	5238	
681.95	5150	
682.14	7269.6	
682.32	7395.2	
682.51	5829.2	
682.69	4997.7	
682.88	6419.7	
683.06	6951.5	
683.25	5697.4	
683.43	5975.3	
683.62	6761	
683.8	7051.8	
683.99	6052.4	
684.17	5506.3	
684.36	7629.4	
684.54	6690.7	
684.73	4891.9	
684.91	5015.5	
685.1	6894.8	
685.28	6438.8	
685.46	5498.8	
685.65	5455.1	
685.83	6928.3	
686.02	6476.4	
686.2	4977.9	
686.39	5107.6	
686.57	6104.3	
686.76	7391.1	
686.94	5036.6	
687.13	5174.5	
687.31	6819.7	
687.5	6525.5	
687.68	4761.5	
687.86	5565.7	
688.05	7971.4	
688.23	6027.2	
688.42	5655.1	
688.6	5025.7	
688.79	6374.6	
688.97	6436.1	
689.16	5350.7	
689.34	4591.5	
689.52	6948.8	
689.71	7202.7	
689.89	5629.9	
690.08	5078.3	
690.26	6631.3	
690.45	6567.2	
690.63	5786.9	
690.81	5204.6	
691	6520	
691.18	6401.3	
691.37	5412.1	
691.55	6932.4	
691.74	6382.8	
691.92	7915.4	
692.1	5349.3	
692.29	4897.4	
692.47	6556.9	
692.66	6021.7	
692.84	5029.8	
693.02	5411.4	
693.21	6065.4	
693.39	6493.4	
693.58	5468.1	
693.76	5081	
693.94	7381.6	
694.13	7256	
694.31	5027.8	
694.5	5889.3	
694.68	6322.1	
694.86	6628.6	
695.05	5393.7	
695.23	5434.6	
695.42	6987.7	
695.6	8503.2	
695.78	5823.7	
695.97	5126.7	
696.15	6952.2	
696.34	6401.3	
696.52	5061.9	
696.7	5612.8	
696.89	6797.2	
697.07	6298.2	
697.25	5451	
697.44	6587	
697.62	6814.3	
697.81	6996.5	
697.99	5257.8	
698.17	5573.2	
698.36	6236.1	
698.54	6655.9	
698.72	5528.8	
698.91	4767	
699.09	6446.3	
699.28	6298.2	
699.46	5296	
699.64	5226.4	
699.83	6269.5	
700.01	7108.5	
700.19	5767.1	
700.38	4574.5	
700.56	7010.9	
700.74	6338.5	
700.93	4844.1	
701.11	5415.5	
701.29	6666.1	
701.48	7532.4	
701.66	4999.1	
701.84	5024.3	
702.03	6470.2	
702.21	6923.5	
702.39	4709.6	
702.58	5201.8	
702.76	6715.3	
702.94	6787	
703.13	4716.5	
703.31	6472.3	
703.49	6196.5	
703.68	6963.8	
703.86	4873.5	
704.04	5612.1	
704.23	6574.7	
704.41	6848.4	
704.59	4965	
704.78	5853.8	
704.96	7752.9	
705.14	6803.4	
705.33	4822.3	
705.51	5348.6	
705.69	6352.1	
705.87	6995.9	
706.06	5614.8	
706.24	4731.5	
706.42	6643.6	
706.61	6802.7	
706.79	5597.1	
706.97	4748.6	
707.16	6222.4	
707.34	6650.4	
707.52	5611.4	
707.7	4938.3	
707.89	6224.5	
708.07	6123.4	
708.25	5571.8	
708.44	5700.9	
708.62	6217.6	
708.8	7128.3	
708.98	5763	
709.17	5012.7	
709.35	6492.7	
709.53	6552.8	
709.72	4713.1	
709.9	5040.7	
710.08	6735.8	
710.26	6732.4	
710.45	5955.5	
710.63	4958.1	
710.81	6465.4	
710.99	6374	
711.18	5408.7	
711.36	4981.3	
711.54	6363.7	
711.72	6834.1	
711.91	5087.8	
712.09	4674.1	
712.27	6421.1	
712.45	6874.3	
712.64	5232.6	
712.82	4492.6	
713	6003.3	
713.18	6154.8	
713.37	4637.3	
713.55	5460.6	
713.73	6794.5	
713.91	5795.8	
714.1	4872.1	
714.28	4416.8	
714.46	6492.1	
714.64	5816.2	
714.83	4059.8	
715.01	4598.4	
715.19	5952.8	
715.37	5346.6	
715.55	4356.7	
715.74	4550.6	
715.92	6566.5	
716.1	5038	
716.28	5415.5	
716.47	4737.6	
716.65	5636	
716.83	5670.8	
717.01	4614.1	
717.19	4584.7	
717.38	7165.8	
717.56	5313.8	
717.74	4659.8	
717.92	4061.8	
718.1	6277.7	
718.29	5666.7	
718.47	3778.5	
718.65	4223.6	
718.83	6176.7	
719.01	6135.7	
719.2	3715.7	
719.38	4560.1	
719.56	5975.3	
719.74	7078.5	
719.92	4313	
720.11	5015.5	
720.29	6010.1	
720.47	5365.7	
720.65	3887.7	
720.83	4587.4	
721.02	5566.4	
721.2	5434.6	
721.38	4610.7	
721.56	4012	
721.74	4971.8	
721.92	5141.1	
722.11	4867.3	
722.29	4693.3	
722.47	6143.9	
722.65	5412.1	
722.83	4007.9	
723.01	4659.1	
723.2	5469.4	
723.38	5750	
723.56	3614.7	
723.74	4404.5	
723.92	5094	
724.1	6001.2	
724.29	3908.2	
724.47	4760.2	
724.65	5223.7	
724.83	5087.2	
725.01	3834.5	
725.19	4459.8	
725.37	5144.5	
725.56	5142.4	
725.74	3736.2	
725.92	3939.6	
726.1	5105.6	
726.28	5376.6	
726.46	4244.1	
726.64	3994.2	
726.83	5376.6	
727.01	5463.3	
727.19	3727.3	
727.37	4275.5	
727.55	5418.2	
727.73	5813.5	
727.91	3670	
728.09	3554.6	
728.28	5837.4	
728.46	6087.2	
728.64	4390.2	
728.82	4337.6	
729	6640.9	
729.18	6083.1	
729.36	3731.4	
729.54	5478.3	
729.72	6752.2	
729.91	5504.3	
730.09	5266	
730.27	4259.1	
730.45	5408	
730.63	5853.8	
730.81	4711	
730.99	3955.3	
731.17	6302.3	
731.35	5152.7	
731.53	4391.5	
731.71	4113.7	
731.9	6011.5	
732.08	6158.2	
732.26	4363.5	
732.44	4017.4	
732.62	6173.9	
732.8	5848.3	
732.98	4644.8	
733.16	3869.3	
733.34	5848.3	
733.52	4867.3	
733.7	4274.8	
733.88	4440.7	
734.07	5740.5	
734.25	5474.2	
734.43	3815.4	
734.61	4944.5	
734.79	6614.3	
734.97	5454.4	
735.15	3975.1	
735.33	4193.6	
735.51	5681.7	
735.69	5449	
735.87	4937.7	
736.05	4274.1	
736.23	5537.7	
736.41	5373.2	
736.59	4186	
736.77	4244.8	
736.95	5871.5	
737.13	5393.7	
737.32	3936.9	
737.5	4113	
737.68	6272.9	
737.86	5293.3	
738.04	3764.2	
738.22	5190.2	
738.4	5264	
738.58	5441.5	
738.76	4252.9	
738.94	3512.9	
739.12	5330.9	
739.3	5217.5	
739.48	4693.9	
739.66	4459.1	
739.84	5456.5	
740.02	5448.3	
740.2	3548.4	
740.38	3757.3	
740.56	5778	
740.74	4894.6	
740.92	4218.1	
741.1	4220.2	
741.28	5344.5	
741.46	5134.9	
741.64	3932.1	
741.82	4322.6	
742	5371.1	
742.18	5341.1	
742.36	4048.2	
742.54	3796.3	
742.72	5766.4	
742.9	4788.2	
743.08	4326.7	
743.26	3537.5	
743.44	5830.6	
743.62	5767.1	
743.8	4529.4	
743.98	3768.3	
744.16	5534.3	
744.34	5335	
744.52	4371	
744.7	4368.3	
744.88	5676.3	
745.06	5371.8	
745.24	4398.4	
745.42	4468.7	
745.6	5740.5	
745.78	5612.8	
745.96	3567.6	
746.14	3803.8	
746.32	6274.3	
746.5	5683.8	
746.68	4174.4	
746.86	3766.2	
747.03	5997.1	
747.21	4822.3	
747.39	4162.2	
747.57	3839.3	
747.75	5418.9	
747.93	5740.5	
748.11	3718.4	
748.29	3721.8	
748.47	6701	
748.65	5189.6	
748.83	4313.7	
749.01	4097.3	
749.19	5565	
749.37	4891.2	
749.55	4028.4	
749.73	4098	
749.91	5397.1	
750.09	5175.2	
750.26	4150.6	
750.44	3654.9	
750.62	5324	
750.8	5281.7	
750.98	3629.7	
751.16	3859.7	
751.34	5452.4	
751.52	4911.7	
751.7	4456.4	
751.88	3513.6	
752.06	5780.7	
752.24	5535.7	
752.42	3542.3	
752.59	3758.7	
752.77	5341.8	
752.95	6186.9	
753.13	4332.1	
753.31	3876.8	
753.49	5032.5	
753.67	5383.4	
753.85	4080.2	
754.03	3805.1	
754.21	5664.7	
754.38	5839.4	
754.56	3910.9	
754.74	3177.8	
754.92	5055.1	
755.1	5563	
755.28	3246	
755.46	3246.7	
755.64	6158.2	
755.82	6311.8	
755.99	3511.6	
756.17	3579.8	
756.35	4390.2	
756.53	5538.4	
756.71	2760.7	
756.89	3442	
757.07	5273.5	
757.25	4595	
757.42	3852.2	
757.6	4442	
757.78	5345.2	
757.96	4542.4	
758.14	3581.9	
758.32	3237.8	
758.5	4177.9	
758.67	4839.4	
758.85	3437.2	
759.03	3588.7	
759.21	4958.8	
759.39	4536.9	
759.57	3162.7	
759.75	4005.8	
759.92	5481	
760.1	5002.5	
760.28	4280.3	
760.46	4459.1	
760.64	4785.4	
760.82	4638.6	
760.99	4179.2	
761.17	3518.4	
761.35	5374.6	
761.53	4545.1	
761.71	3610.6	
761.89	4095.3	
762.06	5255.1	
762.24	4886.5	
762.42	3746.4	
762.6	3499.3	
762.78	4906.9	
762.96	5336.3	
763.13	3958	
763.31	3634.5	
763.49	5418.2	
763.67	4868	
763.85	4371	
764.02	4719.2	
764.2	5687.2	
764.38	4988.9	
764.56	3644.7	
764.74	4225.6	
764.91	5767.1	
765.09	4835.9	
765.27	3420.8	
765.45	3198.2	
765.63	5850.4	
765.8	5582.1	
765.98	3135.4	
766.16	3257	
766.34	4599.7	
766.52	4403.1	
766.69	3952.6	
766.87	3131.3	
767.05	4910.3	
767.23	5502.9	
767.41	3439.2	
767.58	3624.2	
767.76	5357.5	
767.94	5346.6	
768.12	3538.2	
768.29	3951.9	
768.47	4964.3	
768.65	5503.6	
768.83	3168.9	
769	4043.4	
769.18	4659.1	
769.36	5139.7	
769.54	4070	
769.72	3239.9	
769.89	5369.1	
770.07	5414.1	
770.25	3522.5	
770.43	4442.7	
770.6	6001.2	
770.78	6277.7	
770.96	3587.4	
771.14	4020.2	
771.31	5286.5	
771.49	4801.1	
771.67	2988.7	
771.85	3169.6	
772.02	4306.9	
772.2	4835.3	
772.38	3708.9	
772.55	3325.9	
772.73	5073.5	
772.91	4870.8	
773.09	3631.7	
773.26	3771	
773.44	5075.5	
773.62	4809.3	
773.8	3272	
773.97	3085.6	
774.15	5067.4	
774.33	4825	
774.5	3219.4	
774.68	3474.7	
774.86	5177.3	
775.04	4793.6	
775.21	3310.2	
775.39	3255.6	
775.57	4992.9	
775.74	5292.6	
775.92	3149.1	
776.1	3069.9	
776.27	4997	
776.45	5895.4	
776.63	3237.2	
776.81	2926.5	
776.98	4758.8	
777.16	5481	
777.34	3357.3	
777.51	3598.3	
777.69	4721.3	
777.87	4465.9	
778.04	3459	
778.22	3824.9	
778.4	4570.4	
778.57	5057.1	
778.75	2874	
778.93	3095.2	
779.1	4457.7	
779.28	4293.9	
779.46	2951.1	
779.64	3236.5	
779.81	5195	
779.99	5829.2	
780.17	3815.4	
780.34	3994.2	
780.52	4802.5	
780.69	4923.3	
780.87	3516.4	
781.05	3213.3	
781.22	4891.9	
781.4	4853	
781.58	3327.3	
781.75	2674	
781.93	4919.2	
782.11	4379.9	
782.28	3976.5	
782.46	3257	
782.64	4265.9	
782.81	4952	
782.99	3434.4	
783.17	3274.7	
783.34	4863.2	
783.52	4388.1	
783.69	3462.4	
783.87	4094.6	
784.05	4405.9	
784.22	4417.5	
784.4	4015.4	
784.58	3521.8	
784.75	5219.6	
784.93	4487.1	
785.1	3268.6	
785.28	3765.5	
785.46	4962.9	
785.63	4448.2	
785.81	3298.6	
785.99	3146.4	
786.16	4573.1	
786.34	4807.9	
786.51	3220.1	
786.69	3547.1	
786.87	4173.1	
787.04	4621.6	
787.22	3047.4	
787.39	3756.7	
787.57	4480.3	
787.75	5266.7	
787.92	3973.7	
788.1	3898	
788.27	4366.3	
788.45	4233.8	
788.63	3677.5	
788.8	2728.6	
788.98	4855.7	
789.15	4104.8	
789.33	2851.5	
789.5	3336.1	
789.68	5141.1	
789.86	5156.8	
790.03	3622.2	
790.21	3145.7	
790.38	5201.8	
790.56	4554.7	
790.73	3087	
790.91	3108.1	
791.09	4457.7	
791.26	4976.6	
791.44	3256.3	
791.61	2865.8	
791.79	4431.1	
791.96	4501.4	
792.14	2994.8	
792.32	2667.1	
792.49	4407.2	
792.67	4510.3	
792.84	3020.8	
793.02	2921.8	
793.19	4777.2	
793.37	5296	
793.54	2672.6	
793.72	2919.7	
793.89	5388.2	
794.07	4435.9	
794.25	3291.8	
794.42	2727.2	
794.6	5283.8	
794.77	4885.8	
794.95	3613.3	
795.12	3146.4	
795.3	4455.7	
795.47	4884.4	
795.65	3511.6	
795.82	3338.9	
796	4314.4	
796.17	5666.7	
796.35	3164.1	
796.52	3741	
796.7	4861.2	
796.87	4924	
797.05	3198.9	
797.22	3842.7	
797.4	4906.3	
797.57	5644.9	
797.75	3366.9	
797.92	3197.6	
798.1	5162.9	
798.27	4343.7	
798.45	2762.7	
798.62	2981.2	
798.8	4687.8	
798.97	5027.8	
799.15	3527.3	
799.32	3377.1	
799.5	4142.4	
799.67	4686.4	
799.85	3618.8	
800.02	2708.8	
800.2	4429.8	
800.37	4597	
800.55	3706.1	
800.72	3170.3	
800.9	5051	
801.07	5309	
801.25	4161.5	
801.42	3457.7	
801.6	5112.4	
801.77	4733.5	
801.95	3233.7	
802.12	3059	
802.29	4785.4	
802.47	4726	
802.64	3452.2	
802.82	2709.5	
802.99	4448.2	
803.17	5149.3	
803.34	3335.5	
803.52	3026.2	
803.69	5653.1	
803.87	4259.1	
804.04	3359.4	
804.21	3354.6	
804.39	5284.4	
804.56	4528.7	
804.74	2888.3	
804.91	3506.1	
805.09	4416.1	
805.26	4470.7	
805.44	2922.5	
805.61	3188	
805.78	4992.3	
805.96	4900.8	
806.13	3463.8	
806.31	3708.9	
806.48	4087.1	
806.66	4446.8	
806.83	3504.8	
807	3377.8	
807.18	4429.8	
807.35	4699.4	
807.53	3318.4	
807.7	2818.7	
807.87	5328.8	
808.05	4427.7	
808.22	3628.3	
808.4	2788	
808.57	4436.6	
808.74	4202.4	
808.92	3121.1	
809.09	3889.1	
809.27	4457.1	
809.44	4834.6	
809.61	2751.1	
809.79	3073.3	
809.96	5391.6	
810.14	4995.7	
810.31	2723.8	
810.48	3257	
810.66	4515.1	
810.83	5066	
811.01	3145	
811.18	3456.3	
811.35	4962.9	
811.53	3960.8	
811.7	3724.6	
811.87	3449.5	
812.05	4562.9	
812.22	4422.9	
812.39	3031.7	
812.57	2945.7	
812.74	4543.1	
812.92	5735.7	
813.09	3258.3	
813.26	3514.3	
813.44	5569.8	
813.61	4367.6	
813.78	2744.3	
813.96	3610.6	
814.13	4506.2	
814.3	4283	
814.48	3830.4	
814.65	3211.2	
814.82	5330.2	
815	4241.3	
815.17	3360	
815.34	3953.3	
815.52	4418.8	
815.69	4329.4	
815.87	3266.5	
816.04	3237.2	
816.21	4481.6	
816.38	4058.4	
816.56	3242.6	
816.73	2973.7	
816.9	5547.9	
817.08	5023.7	
817.25	3060.3	
817.42	3730.7	
817.6	4107.5	
817.77	4429.1	
817.94	3414.6	
818.12	3051.5	
818.29	4263.9	
818.46	6180.8	
818.64	3119.7	
818.81	2891	
818.98	4247.5	
819.16	5817.6	
819.33	3501.3	
819.5	3315	
819.67	4720.6	
819.85	5248.9	
820.02	3282.9	
820.19	3414	
820.37	4633.2	
820.54	4360.1	
820.71	3349.1	
820.88	4108.9	
821.06	4659.8	
821.23	4244.1	
821.4	3406.5	
821.58	3358.7	
821.75	4969.1	
821.92	4584	
822.09	2760.7	
822.27	2888.3	
822.44	4481	
822.61	4381.3	
822.79	2815.3	
822.96	5053	
823.13	4788.8	
823.3	4215.4	
823.48	3180.5	
823.65	2914.9	
823.82	5029.8	
823.99	4136.9	
824.17	3989.4	
824.34	2890.4	
824.51	5701.5	
824.68	4545.8	
824.86	3109.5	
825.03	3363.4	
825.2	4463.2	
825.37	5246.9	
825.55	3033	
825.72	3355.9	
825.89	5688.6	
826.06	5295.4	
826.24	3293.8	
826.41	3258.3	
826.58	5312.4	
826.75	4679.6	
826.92	2663	
827.1	2906.8	
827.27	7012.2	
827.44	5554.1	
827.61	3140.9	
827.79	3646.7	
827.96	4329.4	
828.13	4554.7	
828.3	3281.5	
828.47	2740.9	
828.65	4727.4	
828.82	4657.1	
828.99	4027	
829.16	3568.9	
829.34	5005.2	
829.51	4790.9	
829.68	3358	
829.85	3386	
830.02	5313.1	
830.2	5018.9	
830.37	2617.3	
830.54	3947.8	
830.71	5565	
830.88	4487.8	
831.05	2636.4	
831.23	3080.1	
831.4	5354.1	
831.57	5892.7	
831.74	3126.6	
831.91	2782.5	
832.09	4773.8	
832.26	4994.3	
832.43	3155.2	
832.6	3524.6	
832.77	4704.2	
832.94	5249.6	
833.12	2553.1	
833.29	3137.5	
833.46	4417.5	
833.63	6093.4	
833.8	3461.7	
833.97	3201.7	
834.15	5052.3	
834.32	4852.3	
834.49	3294.5	
834.66	3343	
834.83	5083.1	
835	4299.4	
835.17	3097.9	
835.35	3076.7	
835.52	4922	
835.69	4844.8	
835.86	3190.7	
836.03	2682.2	
836.2	5000.5	
836.37	4614.1	
836.55	3170.9	
836.72	2977.1	
836.89	4663.2	
837.06	5079.6	
837.23	3217.4	
837.4	3512.3	
837.57	5585.5	
837.75	6059.3	
837.92	2928.6	
838.09	3097.9	
838.26	4659.1	
838.43	5134.3	
838.6	3321.1	
838.77	2998.9	
838.94	5800.5	
839.11	5592.3	
839.29	3134.8	
839.46	2581.8	
839.63	5002.5	
839.8	4706.9	
839.97	3056.3	
840.14	3072.6	
840.31	4819.6	
840.48	4963.6	
840.65	2613.2	
840.82	3032.4	
841	5003.9	
841.17	4826.4	
841.34	2858.3	
841.51	2979.8	
841.68	4895.3	
841.85	4697.4	
842.02	3026.2	
842.19	2540.2	
842.36	4788.8	
842.53	4780	
842.7	2876	
842.87	3418.1	
843.05	6056.5	
843.22	4712.4	
843.39	2775.7	
843.56	2944.3	
843.73	4655.7	
843.9	5083.7	
844.07	4464.6	
844.24	3766.9	
844.41	6807.4	
844.58	4365.6	
844.75	2782.5	
844.92	3049.4	
845.09	4903.5	
845.26	4937	
845.43	2855.6	
845.6	3052.8	
845.77	4987.5	
845.94	4803.2	
846.12	3099.3	
846.29	3268.6	
846.46	5209.3	
846.63	4918.5	
846.8	2870.6	
846.97	3360	
847.14	5340.4	
847.31	4926.7	
847.48	3217.4	
847.65	3464.5	
847.82	5176.6	
847.99	5158.8	
848.16	3735.5	
848.33	3464.5	
848.5	4601.8	
848.67	5315.8	
848.84	2794.1	
849.01	2979.8	
849.18	4563.6	
849.35	4322.6	
849.52	3550.5	
849.69	2822.8	
849.86	5184.8	
850.03	5211.4	
850.2	2876.7	
850.37	3394.8	
850.54	5165	
850.71	4688.5	
850.88	3394.2	
851.05	2858.3	
851.22	4832.5	
851.39	5381.4	
851.56	2677.4	
851.73	3197.6	
851.9	4452.3	
852.07	5193	
852.24	3130	
852.41	2834.4	
852.58	4874.2	
852.75	4485.1	
852.92	3134.1	
853.09	2809.1	
853.26	4634.6	
853.43	5234.6	
853.6	2869.9	
853.77	2470.5	
853.94	5330.9	
854.11	4379.9	
854.28	4129.4	
854.44	3024.8	
854.61	5627.8	
854.78	5198.4	
854.95	2866.5	
855.12	3478.1	
855.29	4074.8	
855.46	5620.3	
855.63	2898.6	
855.8	3829	
855.97	4575.2	
856.14	5204.6	
856.31	3921.2	
856.48	3067.2	
856.65	4674.1	
856.82	4387.4	
856.99	2766.1	
857.16	3026.2	
857.33	5864.7	
857.49	4668	
857.66	3038.5	
857.83	3259.7	
858	4717.2	
858.17	4828.4	
858.34	2751.1	
858.51	2902.7	
858.68	5410.7	
858.85	5474.9	
859.02	3274.7	
859.19	3431.7	
859.36	4431.8	
859.52	4461.8	
859.69	2807.1	
859.86	3297.2	
860.03	4450.9	
860.2	5425.8	
860.37	2610.5	
860.54	2824.1	
860.71	5080.3	
860.88	5410.1	
861.05	3123.2	
861.21	3572.3	
861.38	5420.3	
861.55	4275.5	
861.72	2609.8	
861.89	3166.2	
862.06	5171.1	
862.23	5545.2	
862.4	2766.8	
862.56	2882.2	
862.73	5015.5	
862.9	4793.6	
863.07	3280.2	
863.24	2654.9	
863.41	4352.6	
863.58	4424.3	
863.75	2898.6	
863.91	3269.2	
864.08	5311.1	
864.25	5052.3	
864.42	3472.7	
864.59	3802.4	
864.76	5629.2	
864.93	4412	
865.09	2794.1	
865.26	3003	
865.43	5310.4	
865.6	5586.2	
865.77	2523.1	
865.94	2818.7	
866.1	5313.8	
866.27	5085.8	
866.44	4157.4	
866.61	2752.5	
866.78	4710.3	
866.95	5029.1	
867.11	2786.6	
867.28	2536.8	
867.45	5218.9	
867.62	4442.7	
867.79	3306.8	
867.96	3007.8	
868.12	4414.7	
868.29	5117.2	
868.46	2817.3	
868.63	3725.3	
868.8	5205.9	
868.97	5081.7	
869.13	2937.5	
869.3	2966.1	
869.47	4941.1	
869.64	5212.1	
869.81	2897.2	
869.97	2905.4	
870.14	4866	
870.31	5428.5	
870.48	2770.9	
870.65	3476.1	
870.81	4668.7	
870.98	4728.8	
871.15	3181.2	
871.32	2972.3	
871.48	5015.5	
871.65	5481.7	
871.82	2822.1	
871.99	3123.2	
872.16	5746.6	
872.32	5320.6	
872.49	2906.8	
872.66	2867.2	
872.83	5113.8	
872.99	4548.5	
873.16	3213.9	
873.33	2811.9	
873.5	4798.4	
873.67	4775.9	
873.83	3007.1	
874	3719.8	
874.17	4950.6	
874.34	5705.6	
874.5	3632.4	
874.67	3461.1	
874.84	5350	
875.01	4341	
875.17	3870.7	
875.34	2818.7	
875.51	4929.5	
875.68	5793	
875.84	3420.1	
876.01	4063.9	
876.18	5095.3	
876.34	5024.3	
876.51	2825.5	
876.68	2835.1	
876.85	4636.6	
877.01	5301.5	
877.18	3941.7	
877.35	2823.5	
877.52	4941.7	
877.68	4398.4	
877.85	2811.9	
878.02	2783.2	
878.18	4724	
878.35	4558.8	
878.52	2340.1	
878.69	3160	
878.85	5156.8	
879.02	5068	
879.19	3962.8	
879.35	3102	
879.52	5102.2	
879.69	5189.6	
879.86	2516.3	
880.02	3179.8	
880.19	4767.7	
880.36	5652.4	
880.52	3203	
880.69	3357.3	
880.86	5141.8	
881.02	5137	
881.19	3091.8	
881.36	3076.7	
881.52	5096	
881.69	4551.3	
881.86	3030.3	
882.02	2991.4	
882.19	5238	
882.36	6026.5	
882.52	2940.9	
882.69	3871.3	
882.86	4911.7	
883.02	4862.6	
883.19	3402.4	
883.36	3226.9	
883.52	5139.7	
883.69	5784.1	
883.86	2869.2	
884.02	2628.9	
884.19	5109.7	
884.36	4788.2	
884.52	3131.3	
884.69	3058.3	
884.86	4605.2	
885.02	5526.1	
885.19	3102.7	
885.36	3235.1	
885.52	4720.6	
885.69	4936.3	
885.86	4029	
886.02	3579.8	
886.19	5158.2	
886.35	4653.7	
886.52	3125.9	
886.69	3842.7	
886.85	4437.9	
887.02	5382.1	
887.19	5382.1	
887.35	5382.1	
887.52	5382.1	
887.68	5382.1	
887.85	5382.1	
888.02	5382.1	
888.18	5382.1	
888.35	5382.1	
888.51	5382.1	
888.68	5382.1	
888.85	5382.1	
889.01	5382.1	
889.18	5382.1	
889.35	5382.1	
889.51	5382.1	
889.68	5382.1	
889.84	5382.1	
890.01	5382.1	
890.17	5382.1	
890.34	5382.1	
890.51	5382.1	
890.67	5382.1	
890.84	5382.1	
891	5382.1	
891.17	5382.1	
891.34	5382.1	
891.5	5382.1	
891.67	5382.1	
891.83	5382.1	
892	5382.1	
892.16	5382.1	
892.33	5382.1	
892.5	5382.1	
892.66	5382.1	
892.83	5382.1	
892.99	5382.1	
893.16	5382.1	
893.32	5382.1	
893.49	5382.1	
893.65	5382.1	
893.82	5382.1	
893.99	5382.1	
894.15	5382.1	
894.32	5382.1	
894.48	5382.1	
894.65	5382.1	
894.81	5382.1	
894.98	5382.1	
895.14	5382.1	
895.31	5382.1	
895.47	5382.1	
895.64	5382.1	
895.81	5382.1	
895.97	5382.1	
896.14	5382.1	
896.3	5382.1	
896.47	5382.1	
896.63	5382.1	
896.8	5382.1	
896.96	5382.1	
897.13	5382.1	
897.29	5382.1	
897.46	5382.1	
897.62	5382.1	
897.79	5382.1	
897.95	5382.1	
898.12	5382.1	
898.28	5382.1	
898.45	5382.1	
898.61	5382.1	
898.78	5382.1	
898.94	5382.1	
899.11	5382.1	
899.27	5382.1	
899.44	5382.1	
899.6	5382.1	
899.77	5382.1	
899.93	5382.1	
900.1	5382.1	
900.26	5382.1	
900.43	5382.1	
900.59	5382.1	
900.76	5382.1	
900.92	5382.1	
901.09	5382.1	
901.25	5382.1	
901.42	5382.1	
901.58	5382.1	
901.75	5382.1	
901.91	5382.1	
902.07	5382.1	
902.24	5382.1	
902.4	5382.1	
902.57	5382.1	
902.73	5382.1	
902.9	5382.1	
903.06	5382.1	
903.23	5382.1	
903.39	5382.1	
903.56	5382.1	
903.72	5382.1	
903.88	5382.1	
904.05	5382.1	
904.21	5382.1	
904.38	5382.1	
904.54	5382.1	
904.71	5382.1	
904.87	5382.1	
905.03	5382.1	
905.2	5382.1	
905.36	5382.1	
905.53	5382.1	
905.69	5382.1	
905.86	5382.1	
906.02	5382.1	
906.18	5382.1	
906.35	5382.1	
906.51	5382.1	
906.68	5382.1	
906.84	5382.1	
907.01	5382.1	
907.17	5382.1	
907.33	5382.1	
907.5	5382.1	
907.66	5382.1	
907.83	5382.1	
907.99	5382.1	
908.15	5382.1	
908.32	5382.1	
908.48	5382.1	
908.65	5382.1	
908.81	5382.1	
908.97	5382.1	
909.14	5382.1	
909.3	5382.1	
909.47	5382.1	
909.63	5382.1	
909.79	5382.1	
909.96	5382.1	
910.12	5382.1	
910.28	5382.1	
910.45	5382.1	
910.61	5382.1	
910.78	5382.1	
910.94	5382.1	
911.1	5382.1	
911.27	5382.1	
911.43	5382.1	
911.59	5382.1	
911.76	5382.1	
911.92	5382.1	
912.08	5382.1	
912.25	5382.1	
912.41	5382.1	
912.57	5382.1	
912.74	5382.1	
912.9	5382.1	
913.07	5382.1	
913.23	5382.1	
913.39	5382.1	
913.56	5382.1	
913.72	5382.1	
913.88	5382.1	
914.05	5382.1	
914.21	5382.1	
914.37	5382.1	
914.54	5382.1	
914.7	5382.1	
914.86	5382.1	
915.03	5382.1	
915.19	5382.1	
