Wavelength	Intensities	
nm	a.u.	
179.22	1916.4	
179.44	1906.3	
179.65	1926.5	
179.86	1886.2	
180.08	1926.5	
180.29	5026.4	
180.51	3490.4	
180.72	5677	
180.94	6618.4	
181.15	3266.5	
181.37	3170.3	
181.58	5498.1	
181.79	5842.2	
182.01	3444.7	
182.22	3705.5	
182.44	5821	
182.65	4831.2	
182.87	4604.5	
183.08	4036.5	
183.29	6122.7	
183.51	5039.4	
183.72	3635.8	
183.94	5347.2	
184.15	5418.2	
184.37	5458.5	
184.58	3243.3	
184.79	4450.9	
185.01	5043.5	
185.22	5763	
185.44	4697.4	
185.65	3950.5	
185.86	5280.3	
186.08	4894	
186.29	3134.8	
186.51	3424.9	
186.72	4997	
186.94	5930.2	
187.15	3913	
187.36	4057.7	
187.58	7796.6	
187.79	5475.6	
188.01	4235.9	
188.22	6564.4	
188.43	6628.6	
188.65	5719.3	
188.86	3334.1	
189.08	4057.7	
189.29	5266	
189.5	5218.9	
189.72	3734.8	
189.93	3788.1	
190.15	5984.8	
190.36	7208.2	
190.57	4160.8	
190.79	4009.2	
191	6100.2	
191.22	6055.2	
191.43	4111	
191.64	3345	
191.86	6256.5	
192.07	6074.3	
192.29	3582.6	
192.5	3734.1	
192.71	6027.2	
192.93	5182	
193.14	3734.1	
193.35	3775.8	
193.57	5178.6	
193.78	6027.9	
194	3003.7	
194.21	3644	
194.42	4929.5	
194.64	5428.5	
194.85	4007.9	
195.07	4764.9	
195.28	5457.2	
195.49	4725.3	
195.71	4986.8	
195.92	3515	
196.13	5625.1	
196.35	5732.9	
196.56	5378	
196.78	4015.4	
196.99	7007.5	
197.2	6640.2	
197.42	4633.2	
197.63	4103.4	
197.84	4823	
198.06	5621	
198.27	3757.3	
198.48	4999.8	
198.7	5148.6	
198.91	5352.7	
199.13	4124.6	
199.34	4067.3	
199.55	5840.1	
199.77	4732.2	
199.98	3582.6	
200.19	4139.6	
200.41	5265.3	
200.62	5016.2	
200.83	4264.6	
201.05	4590.2	
201.26	5421.7	
201.47	5044.8	
201.69	3644.7	
201.9	3449.5	
202.11	5412.1	
202.33	6440.2	
202.54	3861.1	
202.76	4299.4	
202.97	5572.5	
203.18	5554.8	
203.4	4221.5	
203.61	4179.2	
203.82	5501.5	
204.04	5096.7	
204.25	4133.5	
204.46	3992.9	
204.68	5461.9	
204.89	5727.5	
205.1	4008.6	
205.32	3433.1	
205.53	5831.9	
205.74	6049	
205.96	2911.5	
206.17	4144.4	
206.38	5766.4	
206.6	5912.5	
206.81	4684.4	
207.02	3753.2	
207.24	5666	
207.45	6133	
207.66	3876.1	
207.88	3304.1	
208.09	5640.1	
208.3	5439.4	
208.52	3571.7	
208.73	3958	
208.94	5395	
209.15	6136.4	
209.37	3934.1	
209.58	4104.1	
209.79	5987.6	
210.01	5297.4	
210.22	3108.1	
210.43	3244	
210.65	5429.8	
210.86	5893.4	
211.07	3971	
211.29	3551.2	
211.5	5780.7	
211.71	5368.4	
211.93	3537.5	
212.14	3601.7	
212.35	5399.1	
212.56	5616.9	
212.78	4113.7	
212.99	3351.2	
213.2	6402.6	
213.42	5223	
213.63	3698.6	
213.84	3930.7	
214.06	4767.7	
214.27	4864.6	
214.48	3955.3	
214.69	4146.5	
214.91	6156.2	
215.12	6191.7	
215.33	4216.8	
215.55	4631.8	
215.76	6726.9	
215.97	5877.7	
216.18	4034.5	
216.4	3989.4	
216.61	5112.4	
216.82	5954.1	
217.04	3581.2	
217.25	3772.4	
217.46	6068.1	
217.67	5853.8	
217.89	3184.6	
218.1	3319.1	
218.31	5520.6	
218.53	5583.4	
218.74	3754.6	
218.95	3610.6	
219.16	5375.2	
219.38	6406.7	
219.59	3649.5	
219.8	4356	
220.01	7025.9	
220.23	5433.3	
220.44	4786.1	
220.65	3500.7	
220.87	5489.2	
221.08	6061.3	
221.29	3336.8	
221.5	4491.9	
221.72	7472.4	
221.93	5191.6	
222.14	4083.6	
222.35	4794.3	
222.57	5465.3	
222.78	5752.7	
222.99	3926.6	
223.2	4212.7	
223.42	5739.8	
223.63	5876.3	
223.84	3012.6	
224.05	2951.1	
224.27	6973.3	
224.48	6326.2	
224.69	4805.9	
224.9	4069.3	
225.12	5606	
225.33	5381.4	
225.54	3274.7	
225.75	3659	
225.97	5005.2	
226.18	5277.6	
226.39	3938.9	
226.6	3639.9	
226.82	5195	
227.03	5028.4	
227.24	4175.8	
227.45	3302	
227.67	5792.3	
227.88	6382.8	
228.09	4649.6	
228.3	4575.8	
228.52	5880.4	
228.73	5350	
228.94	3789.4	
229.15	3377.1	
229.36	5365.7	
229.58	5236.7	
229.79	3835.8	
230	4511	
230.21	6475.7	
230.43	5479	
230.64	4047.5	
230.85	4184	
231.06	5859.9	
231.28	5884.5	
231.49	3366.2	
231.7	3966.9	
231.91	5755.5	
232.12	5502.2	
232.34	3463.8	
232.55	3960.8	
232.76	6074.3	
232.97	5628.5	
233.18	3587.4	
233.4	3973.7	
233.61	5615.5	
233.82	5203.9	
234.03	3732.1	
234.25	3703.4	
234.46	7538.6	
234.67	5445.5	
234.88	4210.6	
235.09	3602.4	
235.31	5773.2	
235.52	5325.4	
235.73	4030.4	
235.94	3428.3	
236.15	5107	
236.37	6572.6	
236.58	3579.8	
236.79	3909.6	
237	5745.2	
237.21	4917.9	
237.43	4226.3	
237.64	3282.9	
237.85	9996.8	
238.06	4980.7	
238.27	4231.1	
238.48	3408.5	
238.7	5808	
238.91	5264	
239.12	3870	
239.33	3955.3	
239.54	5000.5	
239.76	5405.3	
239.97	3869.3	
240.18	3926.6	
240.39	6866.2	
240.6	5711.8	
240.82	4030.4	
241.03	3364.1	
241.24	5438	
241.45	6337.8	
241.66	3534.1	
241.87	4251.6	
242.09	6175.3	
242.3	6531	
242.51	4271.4	
242.72	3933.5	
242.93	5907.7	
243.14	5423.7	
243.36	4536.9	
243.57	5004.6	
243.78	6328.2	
243.99	5841.5	
244.2	3975.8	
244.41	3564.8	
244.63	5002.5	
244.84	5709.1	
245.05	4201.1	
245.26	3977.2	
245.47	5728.2	
245.68	6028.5	
245.9	5231.9	
246.11	4129.4	
246.32	5259.9	
246.53	5726.8	
246.74	6384.2	
246.95	3303.4	
247.16	4973.8	
247.38	5433.9	
247.59	3198.9	
247.8	3949.2	
248.01	5094	
248.22	5342.5	
248.43	3594.9	
248.64	3863.8	
248.86	4827.7	
249.07	5150	
249.28	3446.7	
249.49	4011.3	
249.7	6010.8	
249.91	6143.2	
250.12	3246.7	
250.34	3320.4	
250.55	5491.3	
250.76	5420.3	
250.97	4091.2	
251.18	4072.7	
251.39	6159.6	
251.6	5658.5	
251.81	4237.2	
252.03	4135.5	
252.24	5178.6	
252.45	5976	
252.66	3396.9	
252.87	4350.6	
253.08	5449	
253.29	7260	
253.5	3444.7	
253.72	4754	
253.93	5286.5	
254.14	6492.7	
254.35	3726.6	
254.56	3852.9	
254.77	5711.1	
254.98	5050.3	
255.19	3601	
255.41	4784.1	
255.62	5547.3	
255.83	6114.6	
256.04	4227.7	
256.25	4130.8	
256.46	6731.7	
256.67	5104.9	
256.88	4052.9	
257.09	4491.9	
257.31	5111.7	
257.52	5083.1	
257.73	5116.5	
257.94	3658.4	
258.15	5239.4	
258.36	5414.1	
258.57	4713.1	
258.78	2967.5	
258.99	5950.7	
259.2	5282.4	
259.41	3749.8	
259.63	3868.6	
259.84	6279.1	
260.05	6802.7	
260.26	4968.4	
260.47	3614	
260.68	6046.3	
260.89	5346.6	
261.1	4569	
261.31	3571.7	
261.52	5991.7	
261.73	6368.5	
261.95	4793.6	
262.16	4214.7	
262.37	6205.3	
262.58	6277.7	
262.79	4789.5	
263	3788.7	
263.21	5393	
263.42	4983.4	
263.63	3840.6	
263.84	3796.3	
264.05	5993.7	
264.26	6446.3	
264.47	4658.4	
264.69	4197	
264.9	6193.1	
265.11	5630.5	
265.32	3639.2	
265.53	3697.3	
265.74	5567.7	
265.95	4873.5	
266.16	4005.8	
266.37	4465.9	
266.58	5540.4	
266.79	5242.1	
267	3696.6	
267.21	3444.7	
267.42	4954.7	
267.63	5408	
267.84	3865.2	
268.06	3314.3	
268.27	5859.9	
268.48	6225.8	
268.69	3806.5	
268.9	4571.1	
269.11	6197.8	
269.32	4973.8	
269.53	3936.9	
269.74	3653.6	
269.95	5805.3	
270.16	4807.3	
270.37	3949.8	
270.58	4541.7	
270.79	5292	
271	5990.3	
271.21	4227	
271.42	3975.1	
271.63	5567.7	
271.84	5066.7	
272.05	3113.6	
272.26	3553.9	
272.47	5504.3	
272.68	5666.7	
272.89	3730	
273.11	4405.2	
273.32	5201.8	
273.53	6402.6	
273.74	4256.4	
273.95	4141.7	
274.16	6029.9	
274.37	5535.7	
274.58	4209.9	
274.79	3424.2	
275	5572.5	
275.21	6188.3	
275.42	5122	
275.63	4460.5	
275.84	5707	
276.05	7191.8	
276.26	4117.1	
276.47	3881.6	
276.68	5292.6	
276.89	6449.7	
277.1	4403.8	
277.31	3451.5	
277.52	5702.2	
277.73	5898.1	
277.94	3425.6	
278.15	3775.1	
278.36	5660.6	
278.57	5094.7	
278.78	3708.2	
278.99	4212	
279.2	5074.9	
279.41	5046.9	
279.62	4992.3	
279.83	3468.6	
280.04	6681.8	
280.25	5033.9	
280.46	4984.1	
280.67	3928	
280.88	5033.9	
281.09	6111.1	
281.3	4169.7	
281.51	5251	
281.72	5178.6	
281.93	5999.9	
282.14	3613.3	
282.35	3957.4	
282.56	5956.2	
282.77	5924.8	
282.98	3814.7	
283.19	4607.9	
283.4	7276.4	
283.61	5430.5	
283.82	3409.2	
284.03	4921.3	
284.24	5568.4	
284.45	6118.6	
284.66	4871.4	
284.87	4686.4	
285.08	6045.6	
285.29	6157.6	
285.5	3302.7	
285.71	3888.4	
285.92	6068.1	
286.12	6770.6	
286.33	4819.6	
286.54	3837.9	
286.75	5894.7	
286.96	5328.8	
287.17	3497.9	
287.38	4732.2	
287.59	5029.8	
287.8	4986.1	
288.01	3878.2	
288.22	4440	
288.43	5982.8	
288.64	4980.7	
288.85	4604.5	
289.06	4369.7	
289.27	5913.2	
289.48	6365.8	
289.69	4870.8	
289.9	4377.2	
290.11	6139.8	
290.32	5160.2	
290.53	4650.3	
290.74	4251.6	
290.94	5982.1	
291.15	6007.4	
291.36	3596.9	
291.57	4379.9	
291.78	5186.1	
291.99	4876.2	
292.2	3517	
292.41	4256.4	
292.62	6023.8	
292.83	5831.2	
293.04	5338.4	
293.25	3531.4	
293.46	5236.7	
293.67	6061.3	
293.88	3639.9	
294.09	3565.5	
294.29	5024.3	
294.5	5588.2	
294.71	3943.7	
294.92	3800.3	
295.13	5218.2	
295.34	6571.9	
295.55	3301.3	
295.76	3396.2	
295.97	5823.1	
296.18	6620.4	
296.39	3489.1	
296.6	3713.6	
296.81	5543.2	
297.01	5893.4	
297.22	3816.7	
297.43	3636.5	
297.64	5138.4	
297.85	5072.8	
298.06	3034.4	
298.27	3328.6	
298.48	5530.2	
298.69	5179.3	
298.9	3979.2	
299.11	3558	
299.31	5011.4	
299.52	5018.2	
299.73	4260.5	
299.94	4239.3	
300.15	5427.8	
300.36	5087.2	
300.57	4188.1	
300.78	4156	
300.99	5280.3	
301.2	5584.8	
301.4	3670	
301.61	4017.4	
301.82	5799.2	
302.03	5844.2	
302.24	4491.9	
302.45	3489.7	
302.66	5732.3	
302.87	6234.7	
303.08	3674.1	
303.29	5024.3	
303.49	5181.4	
303.7	5451	
303.91	3261.7	
304.12	4784.1	
304.33	5012.7	
304.54	5559.6	
304.75	3696.6	
304.96	3515	
305.16	5790.3	
305.37	6574.7	
305.58	3235.1	
305.79	3316.3	
306	5774.6	
306.21	4894.6	
306.42	3703.4	
306.63	5694.7	
306.83	5264.6	
307.04	6113.9	
307.25	4083	
307.46	4049.5	
307.67	4676.2	
307.88	5868.8	
308.09	3592.1	
308.29	3752.6	
308.5	5572.5	
308.71	6092	
308.92	3972.4	
309.13	3526.6	
309.34	5324.7	
309.55	5369.8	
309.75	4562.9	
309.96	4170.3	
310.17	5911.8	
310.38	5091.3	
310.59	4448.2	
310.8	3384.6	
311.01	5282.4	
311.21	5348.6	
311.42	3512.3	
311.63	3631	
311.84	5184.8	
312.05	5602.6	
312.26	4116.4	
312.46	4507.6	
312.67	5304.9	
312.88	4992.3	
313.09	3607.8	
313.3	3475.4	
313.51	6215.6	
313.71	6625.2	
313.92	3575.1	
314.13	3796.9	
314.34	5604.6	
314.55	5315.2	
314.76	4592.9	
314.96	3968.3	
315.17	5529.5	
315.38	5847.6	
315.59	3611.3	
315.8	3388	
316.01	6395.1	
316.21	6367.8	
316.42	3461.7	
316.63	3924.6	
316.84	5298.8	
317.05	6216.3	
317.26	4216.8	
317.46	3736.9	
317.67	5384.1	
317.88	5805.3	
318.09	4534.2	
318.3	3301.3	
318.5	5184.1	
318.71	5761.6	
318.92	5798.5	
319.13	4191.5	
319.34	5993	
319.54	6086.6	
319.75	3217.4	
319.96	3184.6	
320.17	5852.4	
320.38	6049	
320.58	3212.6	
320.79	3908.9	
321	6004.6	
321.21	6184.2	
321.42	3949.2	
321.62	3275.4	
321.83	5012.1	
322.04	5462.6	
322.25	3757.3	
322.46	3571.7	
322.66	5575.9	
322.87	5742.5	
323.08	4422.9	
323.29	3491.8	
323.5	6566.5	
323.7	4990.9	
323.91	4825	
324.12	4367.6	
324.33	5493.3	
324.53	5743.9	
324.74	4229.7	
324.95	4375.1	
325.16	4813.4	
325.37	5269.4	
325.57	3624.2	
325.78	3585.3	
325.99	5524.1	
326.2	4956.1	
326.4	5228.5	
326.61	3289	
326.82	5373.9	
327.03	5542.5	
327.24	5044.8	
327.44	4900.1	
327.65	5731.6	
327.86	4629.1	
328.07	4192.9	
328.27	3462.4	
328.48	6133	
328.69	5025	
328.9	5136.3	
329.1	3826.3	
329.31	5328.8	
329.52	6309.1	
329.73	3564.8	
329.93	4042	
330.14	5496.7	
330.35	5730.2	
330.56	5889.3	
330.76	4459.8	
330.97	5252.4	
331.18	5617.6	
331.39	4027	
331.59	3237.2	
331.8	6079.7	
332.01	6161.7	
332.22	3690.4	
332.42	4197.7	
332.63	5530.9	
332.84	5186.1	
333.05	3978.5	
333.25	3622.9	
333.46	5246.9	
333.67	5446.9	
333.88	3727.3	
334.08	4188.8	
334.29	7529.7	
334.5	6034	
334.7	3449.5	
334.91	5048.2	
335.12	5010.7	
335.33	5861.3	
335.53	3977.2	
335.74	5939.8	
335.95	5270.1	
336.16	5100.1	
336.36	3980.6	
336.57	4600.4	
336.78	4943.8	
336.98	6082.5	
337.19	4864.6	
337.4	3937.6	
337.61	6649.1	
337.81	4967	
338.02	3680.2	
338.23	4787.5	
338.43	6236.1	
338.64	5119.9	
338.85	3583.9	
339.05	4732.9	
339.26	6309.8	
339.47	4924.7	
339.68	3534.8	
339.88	5343.2	
340.09	5696.1	
340.3	5935	
340.5	4188.1	
340.71	3186.6	
340.92	4956.1	
341.13	6231.3	
341.33	3447.4	
341.54	4194.2	
341.75	5674.9	
341.95	5298.1	
342.16	4007.2	
342.37	4357.4	
342.57	5007.3	
342.78	5484.5	
342.99	4440	
343.19	3207.8	
343.4	5866.1	
343.61	5664.7	
343.81	3839.3	
344.02	3580.5	
344.23	5825.8	
344.43	6309.8	
344.64	4441.4	
344.85	4304.8	
345.06	5749.3	
345.26	6053.1	
345.47	4151.9	
345.68	4905.6	
345.88	4813.4	
346.09	5913.9	
346.3	4199	
346.5	3137.5	
346.71	5446.9	
346.92	5091.9	
347.12	3284.3	
347.33	4114.4	
347.54	6032	
347.74	6434.7	
347.95	4024.3	
348.16	3018.7	
348.36	5243.5	
348.57	4954	
348.78	4037.9	
348.98	4456.4	
349.19	5376.6	
349.39	4864.6	
349.6	3243.3	
349.81	3619.4	
350.01	5665.4	
350.22	5154.7	
350.43	3938.2	
350.63	4775.2	
350.84	5515.9	
351.05	5233.9	
351.25	3614.7	
351.46	3179.1	
351.67	6029.9	
351.87	5109.7	
352.08	3818.8	
352.29	4362.2	
352.49	5927.5	
352.7	6028.5	
352.9	3464.5	
353.11	4369.7	
353.32	6576	
353.52	5255.1	
353.73	3401	
353.94	4397.7	
354.14	5720.7	
354.35	5555.5	
354.55	3539.6	
354.76	3947.1	
354.97	5688.6	
355.17	5480.4	
355.38	3319.1	
355.59	4695.3	
355.79	5086.5	
356	5526.1	
356.2	3886.4	
356.41	3371	
356.62	4812	
356.82	5358.9	
357.03	4215.4	
357.24	3776.5	
357.44	5126.7	
357.65	5283.1	
357.85	5053	
358.06	3941	
358.27	4853	
358.47	5059.2	
358.68	3251.5	
358.88	4110.3	
359.09	5694.7	
359.3	6051.7	
359.5	4835.9	
359.71	4315.8	
359.91	6447.7	
360.12	5732.9	
360.33	4164.2	
360.53	4657.1	
360.74	5089.2	
360.94	5088.5	
361.15	4318.5	
361.36	3562.8	
361.56	5888.6	
361.77	5304.2	
361.97	4879.6	
362.18	3797.6	
362.38	5856.5	
362.59	4838.7	
362.8	3488.4	
363	3300.6	
363.21	4711.7	
363.41	5421	
363.62	3991.5	
363.83	5104.2	
364.03	5483.8	
364.24	6466.1	
364.44	5150.6	
364.65	5055.1	
364.85	5218.2	
365.06	4867.3	
365.27	3687.7	
365.47	3675.4	
365.68	6241.5	
365.88	5185.5	
366.09	4110.3	
366.29	3706.1	
366.5	5510.4	
366.71	5935	
366.91	5096	
367.12	4106.9	
367.32	6539.8	
367.53	5770.5	
367.73	4147.1	
367.94	5120.6	
368.14	5685.8	
368.35	6609.5	
368.56	4111	
368.76	3793.5	
368.97	5833.3	
369.17	7551.5	
369.38	3604.4	
369.58	3844	
369.79	4803.9	
369.99	6162.3	
370.2	4952	
370.4	3962.8	
370.61	5516.5	
370.82	6746.7	
371.02	3829	
371.23	3186.6	
371.43	4777.2	
371.64	6044.2	
371.84	3887	
372.05	5119.2	
372.25	7403.4	
372.46	5782.1	
372.66	3876.8	
372.87	3816	
373.07	5847	
373.28	7484	
373.48	4915.1	
373.69	4573.1	
373.9	5287.2	
374.1	5335.6	
374.31	4844.1	
374.51	4347.8	
374.72	6122.7	
374.92	4960.9	
375.13	4932.9	
375.33	4143	
375.54	5636.7	
375.74	5068.7	
375.95	4192.9	
376.15	5507.7	
376.36	5612.8	
376.56	5459.2	
376.77	4273.4	
376.97	4686.4	
377.18	6696.9	
377.38	5732.3	
377.59	5012.1	
377.79	3704.1	
378	5530.2	
378.2	5954.1	
378.41	3697.9	
378.61	3599.6	
378.82	5975.3	
379.02	5049.6	
379.23	3873.4	
379.43	5009.3	
379.64	5980.1	
379.84	5673.6	
380.05	3704.8	
380.25	3618.1	
380.46	5807.4	
380.66	5356.8	
380.87	5059.8	
381.07	5492	
381.28	6399.9	
381.48	5717.2	
381.69	3727.3	
381.89	3808.5	
382.1	4671.4	
382.3	5954.1	
382.51	4922	
382.71	5771.2	
382.91	5788.9	
383.12	6361.7	
383.32	4128	
383.53	4384.7	
383.73	5596.4	
383.94	5424.4	
384.14	4290.5	
384.35	3411.9	
384.55	5350.7	
384.76	5833.3	
384.96	4157.4	
385.17	4500.1	
385.37	5751.4	
385.58	5019.6	
385.78	4524.6	
385.98	3304.1	
386.19	5273.5	
386.39	5631.2	
386.6	3869.3	
386.8	4179.9	
387.01	5707	
387.21	5730.2	
387.42	4553.3	
387.62	5212.8	
387.83	5075.5	
388.03	5743.2	
388.23	4162.2	
388.44	5026.4	
388.64	4693.9	
388.85	4863.9	
389.05	4470	
389.26	5112.4	
389.46	6734.4	
389.67	6184.2	
389.87	4409.3	
390.07	4508.3	
390.28	5367	
390.48	4898.7	
390.69	3676.8	
390.89	3963.5	
391.1	5138.4	
391.3	6064.7	
391.5	5218.9	
391.71	5868.1	
391.91	5815.5	
392.12	6868.9	
392.32	5285.1	
392.53	4450.2	
392.73	5176.6	
392.93	5356.8	
393.14	4151.2	
393.34	4939	
393.55	5851.7	
393.75	5391.6	
393.95	4150.6	
394.16	4089.1	
394.36	5112.4	
394.57	5839.4	
394.77	3624.2	
394.98	4081.6	
395.18	5049.6	
395.38	5203.9	
395.59	4932.2	
395.79	3849.5	
396	5145.9	
396.2	5637.4	
396.4	4688.5	
396.61	4595	
396.81	5871.5	
397.02	5054.4	
397.22	4917.2	
397.42	4972.5	
397.63	5793.7	
397.83	4956.1	
398.04	3721.2	
398.24	4202.4	
398.44	5585.5	
398.65	4605.2	
398.85	3548.4	
399.05	3723.9	
399.26	4943.1	
399.46	6720.8	
399.67	4054.3	
399.87	3813.3	
400.07	5280.3	
400.28	5655.1	
400.48	3899.3	
400.69	4927.4	
400.89	5908.4	
401.09	6352.8	
401.3	3687	
401.5	4925.4	
401.7	6499.6	
401.91	6834.8	
402.11	4027.7	
402.32	4300.1	
402.52	5887.9	
402.72	5834.7	
402.93	4482.3	
403.13	3337.5	
403.33	6670.2	
403.54	5416.2	
403.74	4258.4	
403.94	5177.3	
404.15	5450.3	
404.35	6619	
404.56	4037.9	
404.76	5961	
404.96	5866.1	
405.17	5680.4	
405.37	4986.1	
405.57	4553.3	
405.78	5984.2	
405.98	5386.8	
406.18	3971	
406.39	4911.7	
406.59	5878.4	
406.79	5498.8	
407	3782.6	
407.2	3953.3	
407.4	5879	
407.61	6175.3	
407.81	3938.9	
408.01	5582.1	
408.22	4927.4	
408.42	6887.3	
408.62	4973.2	
408.83	4333.5	
409.03	5440.8	
409.23	5148.6	
409.44	4467.3	
409.64	4701.5	
409.84	6223.8	
410.05	6130.9	
410.25	4449.6	
410.45	4250.2	
410.66	5502.2	
410.86	8076.5	
411.06	4605.2	
411.27	4396.3	
411.47	7739.3	
411.67	5652.4	
411.88	4720.6	
412.08	4884.4	
412.28	6230.6	
412.49	6793.8	
412.69	4355.3	
412.89	4391.5	
413.09	6584.2	
413.3	6374.6	
413.5	4398.4	
413.7	4030.4	
413.91	5639.4	
414.11	6533.7	
414.31	4234.5	
414.52	4651.6	
414.72	6210.1	
414.92	6021	
415.12	4216.1	
415.33	4794.3	
415.53	6386.9	
415.73	6634.1	
415.94	5068	
416.14	4552	
416.34	5397.8	
416.55	5155.4	
416.75	5719.3	
416.95	5157.5	
417.15	6391.7	
417.36	7152.2	
417.56	5862	
417.76	4949.3	
417.97	6850.5	
418.17	6395.8	
418.37	4500.1	
418.57	4526.7	
418.78	6083.1	
418.98	5855.8	
419.18	5512.4	
419.38	5378.6	
419.59	5914.5	
419.79	5466	
419.99	4449.6	
420.2	4830.5	
420.4	6447.7	
420.6	6593.8	
420.8	4351.9	
421.01	4207.2	
421.21	6195.8	
421.41	6361	
421.61	4772.4	
421.82	4458.4	
422.02	5689.9	
422.22	6701.6	
422.42	5300.1	
422.63	4962.2	
422.83	5819.6	
423.03	6993.1	
423.23	4934.9	
423.44	3875.4	
423.64	5916.6	
423.84	5687.9	
424.04	4362.2	
424.25	3984	
424.45	6910.5	
424.65	6842.3	
424.85	3845.4	
425.06	4399	
425.26	6799.3	
425.46	5847.6	
425.66	4910.3	
425.87	4614.8	
426.07	6599.2	
426.27	6464.1	
426.47	4805.9	
426.67	4078.9	
426.88	6881.9	
427.08	6331	
427.28	4960.2	
427.48	4091.2	
427.69	5253	
427.89	6046.3	
428.09	4991.6	
428.29	4116.4	
428.5	6690	
428.7	6119.3	
428.9	3953.3	
429.1	4646.2	
429.3	6078.4	
429.51	6507.1	
429.71	4287.1	
429.91	5028.4	
430.11	6311.8	
430.31	6553.5	
430.52	4592.9	
430.72	4846.9	
430.92	6961	
431.12	6317.3	
431.32	4209.3	
431.53	4664.6	
431.73	5272.8	
431.93	7001.3	
432.13	4158.7	
432.33	4005.1	
432.54	5732.9	
432.74	6130.9	
432.94	3929.4	
433.14	4970.4	
433.34	6277.7	
433.55	5695.4	
433.75	4986.1	
433.95	6663.4	
434.15	6006	
434.35	5642.2	
434.56	4098	
434.76	3573.7	
434.96	5946.6	
435.16	6196.5	
435.36	3944.4	
435.56	5068.7	
435.77	5566.4	
435.97	5716.6	
436.17	5793	
436.37	4958.8	
436.57	5543.2	
436.78	5408.7	
436.98	6189.6	
437.18	5639.4	
437.38	6181.5	
437.58	5808.7	
437.78	5737.7	
437.99	4352.6	
438.19	6279.8	
438.39	7745.4	
438.59	4273.4	
438.79	3818.8	
438.99	6981.5	
439.2	5730.2	
439.4	3986.7	
439.6	3874.8	
439.8	6051.1	
440	7267.6	
440.2	4927.4	
440.4	5027.1	
440.61	6371.9	
440.81	6916.7	
441.01	4035.9	
441.21	4923.3	
441.41	6621.8	
441.61	6344.6	
441.81	5174.5	
442.02	6204.7	
442.22	7219.8	
442.42	6436.1	
442.62	4035.2	
442.82	4123.2	
443.02	6759	
443.22	5720.7	
443.43	4463.9	
443.63	3973.7	
443.83	5595.7	
444.03	5610.8	
444.23	5285.1	
444.43	4832.5	
444.63	5906.3	
444.83	7137.9	
445.04	4031.8	
445.24	5427.1	
445.44	6279.1	
445.64	6371.9	
445.84	4977.9	
446.04	4890.5	
446.24	5659.2	
446.44	6728.9	
446.65	4134.8	
446.85	4554	
447.05	5819	
447.25	6710.5	
447.45	4652.3	
447.65	3976.5	
447.85	6014.9	
448.05	5702.2	
448.25	5103.5	
448.46	4870.1	
448.66	6006	
448.86	5726.1	
449.06	3839.9	
449.26	5027.1	
449.46	6380.8	
449.66	5416.9	
449.86	4398.4	
450.06	4493.9	
450.26	5544.5	
450.47	6160.3	
450.67	4826.4	
450.87	5082.4	
451.07	6266.1	
451.27	5960.3	
451.47	4079.6	
451.67	4603.8	
451.87	5622.4	
452.07	6884.6	
452.27	4251.6	
452.47	4190.8	
452.67	6035.4	
452.88	6541.2	
453.08	3609.9	
453.28	5644.2	
453.48	7142.6	
453.68	5935.7	
453.88	4103.4	
454.08	4374.5	
454.28	6318.7	
454.48	5943.9	
454.68	4901.5	
454.88	5466.7	
455.08	6377.4	
455.28	6066.1	
455.48	3985.3	
455.68	4544.4	
455.89	6780.1	
456.09	6413.6	
456.29	4283.7	
456.49	4302.1	
456.69	6597.2	
456.89	5883.8	
457.09	4778.6	
457.29	5115.1	
457.49	6196.5	
457.69	6302.3	
457.89	4526.7	
458.09	3921.9	
458.29	5881.1	
458.49	6589	
458.69	4910.3	
458.89	4287.1	
459.09	6760.3	
459.29	6919.4	
459.49	4472.1	
459.69	5234.6	
459.9	6384.2	
460.1	5776	
460.3	4354.7	
460.5	4141	
460.7	6305.7	
460.9	6019.7	
461.1	3729.4	
461.3	5041.4	
461.5	6890	
461.7	6531	
461.9	4078.9	
462.1	4619.5	
462.3	5936.4	
462.5	6577.4	
462.7	4097.3	
462.9	4209.9	
463.1	7539.3	
463.3	7045.7	
463.5	4405.9	
463.7	5236	
463.9	6005.3	
464.1	6437.4	
464.3	4388.1	
464.5	4740.4	
464.7	6752.8	
464.9	6152.1	
465.1	6083.1	
465.3	4986.1	
465.5	6984.9	
465.7	6914.6	
465.9	5092.6	
466.1	5109	
466.3	6656.6	
466.5	6522.1	
466.7	5907	
466.9	4777.9	
467.1	6452.5	
467.3	7375.4	
467.5	5769.8	
467.7	4586.1	
467.9	7553.6	
468.1	8438.3	
468.3	5453.1	
468.5	5819	
468.7	6301.6	
468.9	6326.9	
469.1	4848.9	
469.3	5556.8	
469.5	8272.4	
469.7	5878.4	
469.9	5423.7	
470.1	4619.5	
470.3	6269.5	
470.5	6279.8	
470.7	5917.3	
470.9	4697.4	
471.1	5971.2	
471.3	6703.7	
471.5	4485.1	
471.69	6473.6	
471.89	5979.4	
472.09	5543.9	
472.29	5356.8	
472.49	5802.6	
472.69	5672.9	
472.89	6645	
473.09	4395.6	
473.29	4690.5	
473.49	5904.3	
473.69	6096.1	
473.89	5621.7	
474.09	4745.1	
474.29	7337.9	
474.49	7073	
474.69	5553.4	
474.89	4897.4	
475.09	6143.9	
475.29	6117.3	
475.49	4313	
475.69	4539	
475.88	7803.4	
476.08	6399.9	
476.28	4229.7	
476.48	4801.1	
476.68	6889.4	
476.88	6801.3	
477.08	4683.7	
477.28	4893.3	
477.48	6326.2	
477.68	6945.3	
477.88	4422.9	
478.08	4799.1	
478.28	7232.1	
478.48	6426.5	
478.67	4731.5	
478.87	4317.1	
479.07	6980.8	
479.27	6502.3	
479.47	5052.3	
479.67	4938.3	
479.87	6845.7	
480.07	7397.9	
480.27	4284.4	
480.47	5960.3	
480.67	6511.9	
480.87	7124.2	
481.06	4495.3	
481.26	5438	
481.46	6346.7	
481.66	6301.6	
481.86	5020.9	
482.06	6085.2	
482.26	6129.6	
482.46	7068.2	
482.66	4945.8	
482.86	4526.7	
483.05	6418.3	
483.25	5899.5	
483.45	7475.8	
483.65	4920.6	
483.85	6027.9	
484.05	6300.9	
484.25	5423.7	
484.45	5758.2	
484.65	7276.4	
484.84	7146	
485.04	4826.4	
485.24	4791.6	
485.44	7436.9	
485.64	5795.1	
485.84	3980.6	
486.04	5459.9	
486.24	6108.4	
486.44	6450.4	
486.63	3969	
486.83	4760.2	
487.03	5900.2	
487.23	6153.5	
487.43	4104.1	
487.63	6499.6	
487.83	6123.4	
488.02	7139.9	
488.22	5038	
488.42	5723.4	
488.62	7139.2	
488.82	6004	
489.02	4657.8	
489.22	4680.3	
489.41	6932.4	
489.61	6510.5	
489.81	4364.9	
490.01	4398.4	
490.21	6783.6	
490.41	7485.3	
490.61	4374.5	
490.8	4457.7	
491	6264.7	
491.2	5669.5	
491.4	5222.3	
491.6	4218.1	
491.8	6281.8	
491.99	6549.4	
492.19	4111	
492.39	4465.9	
492.59	6858	
492.79	6914.6	
492.99	5309.7	
493.18	4298	
493.38	6850.5	
493.58	7583.6	
493.78	5078.3	
493.98	4607.2	
494.18	6572.6	
494.37	5905	
494.57	5113.1	
494.77	5042.8	
494.97	6574	
495.17	6857.3	
495.37	4532.8	
495.56	4855.7	
495.76	7004.7	
495.96	6654.5	
496.16	5763.7	
496.36	4567	
496.55	6754.2	
496.75	6297.5	
496.95	5022.3	
497.15	4805.9	
497.35	6816.3	
497.54	6673.6	
497.74	4667.3	
497.94	6408.1	
498.14	7377.5	
498.34	7217	
498.53	4244.8	
498.73	5127.4	
498.93	6000.5	
499.13	6603.3	
499.33	4832.5	
499.52	5546.6	
499.72	6510.5	
499.92	6969.2	
500.12	4506.9	
500.32	4816.1	
500.51	6839.5	
500.71	6503	
500.91	5550	
501.11	5192.3	
501.31	6729.6	
501.5	7167.2	
501.7	5846.3	
501.9	4790.2	
502.1	6530.3	
502.29	6802.7	
502.49	5204.6	
502.69	5728.2	
502.89	6821.1	
503.09	6733.7	
503.28	4329.4	
503.48	4452.3	
503.68	6023.8	
503.88	6108.4	
504.07	5386.8	
504.27	4956.1	
504.47	6436.1	
504.67	6623.8	
504.86	5417.6	
505.06	5066.7	
505.26	6197.8	
505.46	8044.4	
505.65	5082.4	
505.85	5244.2	
506.05	6123.4	
506.25	6701.6	
506.44	4381.3	
506.64	5397.8	
506.84	6167.1	
507.04	7030	
507.23	4709.6	
507.43	5227.8	
507.63	8210.3	
507.83	6395.8	
508.02	5229.1	
508.22	4862.6	
508.42	8452	
508.62	6180.1	
508.81	5407.3	
509.01	5670.8	
509.21	6074.3	
509.4	6266.1	
509.6	5265.3	
509.8	4627.7	
510	6320.7	
510.19	7746.1	
510.39	4581.3	
510.59	4752.7	
510.79	6034	
510.98	7434.8	
511.18	4741.7	
511.38	4831.8	
511.57	6864.8	
511.77	6777.4	
511.97	5657.9	
512.17	4541.7	
512.36	6901	
512.56	6901	
512.76	4700.1	
512.95	4381.3	
513.15	6976.1	
513.35	5667.4	
513.55	5493.3	
513.74	4708.3	
513.94	6945.3	
514.14	6291.4	
514.33	5587.5	
514.53	5310.4	
514.73	6290	
514.92	6440.9	
515.12	4779.3	
515.32	4551.3	
515.51	6554.2	
515.71	7131	
515.91	6509.8	
516.11	4654.4	
516.3	8206.2	
516.5	6070.9	
516.7	5218.2	
516.89	5808	
517.09	6281.1	
517.29	6137.1	
517.48	5445.5	
517.68	4950.6	
517.88	5966.4	
518.07	6584.2	
518.27	5408	
518.47	4412	
518.66	7225.9	
518.86	5798.5	
519.06	4265.9	
519.25	4769.7	
519.45	6120	
519.65	7595.9	
519.84	5341.1	
520.04	6086.6	
520.24	7992.5	
520.43	6817.7	
520.63	5092.6	
520.83	4816.8	
521.02	6034.7	
521.22	6735.1	
521.42	5472.2	
521.61	5997.8	
521.81	6277.7	
522.01	6494.1	
522.2	5213.4	
522.4	4970.4	
522.6	6872.3	
522.79	5691.3	
522.99	5128.1	
523.18	4345.8	
523.38	6559	
523.58	6503	
523.77	6275	
523.97	4206.5	
524.17	8384.4	
524.36	7509.9	
524.56	5635.3	
524.76	5157.5	
524.95	6391	
525.15	6053.8	
525.34	4923.3	
525.54	4875.5	
525.74	6651.8	
525.93	5696.1	
526.13	6116.6	
526.33	4746.5	
526.52	7007.5	
526.72	6395.8	
526.91	5972.6	
527.11	5300.8	
527.31	7006.1	
527.5	7432.1	
527.7	5165.7	
527.89	4115.7	
528.09	5851.7	
528.29	6397.2	
528.48	5617.6	
528.68	5225.7	
528.87	6815	
529.07	6849.1	
529.27	5117.9	
529.46	4547.2	
529.66	6493.4	
529.85	6827.2	
530.05	4379.9	
530.25	5269.4	
530.44	7869.7	
530.64	6355.5	
530.83	4863.9	
531.03	5127.4	
531.23	6731.7	
531.42	6700.3	
531.62	5862	
531.81	5061.9	
532.01	6870.3	
532.21	7342.7	
532.4	4632.5	
532.6	4929.5	
532.79	7836.9	
532.99	6832.7	
533.18	4945.2	
533.38	6007.4	
533.58	6302.3	
533.77	7102.4	
533.97	4843.4	
534.16	5724.8	
534.36	7283.3	
534.55	6289.3	
534.75	6195.8	
534.95	4904.9	
535.14	7071	
535.34	6277.7	
535.53	4614.1	
535.73	6675.7	
535.92	7703.1	
536.12	6533.7	
536.31	4714.4	
536.51	5955.5	
536.71	6829.3	
536.9	6393.8	
537.1	4934.2	
537.29	5054.4	
537.49	7281.9	
537.68	6220.4	
537.88	5397.8	
538.07	4595	
538.27	6484.6	
538.46	7511.3	
538.66	4567	
538.86	4874.8	
539.05	6513.2	
539.25	6992.4	
539.44	5188.2	
539.64	4887.8	
539.83	6308.4	
540.03	7503.8	
540.22	4709.6	
540.42	4898.1	
540.61	6798.6	
540.81	6866.8	
541	5432.6	
541.2	6001.9	
541.39	6251.1	
541.59	6621.1	
541.78	5663.3	
541.98	4752	
542.18	5988.9	
542.37	5913.2	
542.57	5243.5	
542.76	5666	
542.96	6012.2	
543.15	6848.4	
543.35	5344.5	
543.54	4594.3	
543.74	7217	
543.93	6669.6	
544.13	5383.4	
544.32	6402.6	
544.52	7111.9	
544.71	6300.9	
544.91	4413.4	
545.1	5718.6	
545.3	6283.9	
545.49	7006.8	
545.69	4394.9	
545.88	5002.5	
546.08	7899	
546.27	7595.2	
546.47	5521.3	
546.66	4817.5	
546.86	7249.8	
547.05	7890.1	
547.24	5094.7	
547.44	4801.1	
547.63	6207.4	
547.83	7322.2	
548.02	5320.6	
548.22	5492.7	
548.41	5970.5	
548.61	7372	
548.8	4822.3	
549	4851.6	
549.19	6676.4	
549.39	6919.4	
549.58	4608.6	
549.78	5162.2	
549.97	7112.6	
550.17	6535.8	
550.36	6842.3	
550.55	7110.5	
550.75	6656.6	
550.94	7582.9	
551.14	4828.4	
551.33	5248.9	
551.53	5963.7	
551.72	6911.2	
551.92	5294.7	
552.11	5004.6	
552.31	7021.1	
552.5	7114	
552.69	6799.9	
552.89	4683	
553.08	7010.2	
553.28	6726.2	
553.47	5070.8	
553.67	6320	
553.86	7757	
554.06	5935	
554.25	4289.8	
554.44	4837.3	
554.64	8460.8	
554.83	7927.7	
555.03	4891.2	
555.22	5294	
555.42	7223.9	
555.61	6877.8	
555.8	5066.7	
556	5414.8	
556.19	6021	
556.39	7389.1	
556.58	5188.2	
556.78	5140.4	
556.97	6856.6	
557.16	6567.8	
557.36	6409.5	
557.55	4788.8	
557.75	5810.8	
557.94	7682.6	
558.13	4906.3	
558.33	4621.6	
558.52	7434.1	
558.72	6294.1	
558.91	4788.8	
559.1	5063.9	
559.3	5993.7	
559.49	5722.7	
559.69	4280.3	
559.88	5341.1	
560.07	6797.9	
560.27	7277.8	
560.46	5608.7	
560.66	5684.5	
560.85	6682.5	
561.04	5797.8	
561.24	4772.4	
561.43	5008	
561.63	6068.8	
561.82	6406	
562.01	6363.7	
562.21	5341.8	
562.4	6853.9	
562.59	7828	
562.79	5158.2	
562.98	4743.1	
563.18	6747.4	
563.37	8135.9	
563.56	5614.8	
563.76	4625.7	
563.95	6160.3	
564.14	6117.3	
564.34	5058.5	
564.53	4870.8	
564.73	6687.3	
564.92	6987	
565.11	5231.9	
565.31	4560.1	
565.5	7226.6	
565.69	6190.3	
565.89	4753.3	
566.08	5106.3	
566.27	7112.6	
566.47	7547.4	
566.66	5644.2	
566.85	4341.7	
567.05	6744.6	
567.24	6023.1	
567.44	4695.3	
567.63	6117.3	
567.82	6982.9	
568.02	6647.7	
568.21	4702.1	
568.4	5099.4	
568.6	6497.5	
568.79	6555.5	
568.98	4512.4	
569.18	4663.9	
569.37	6463.4	
569.56	8521.6	
569.76	5028.4	
569.95	6026.5	
570.14	6946	
570.34	6836.1	
570.53	4515.1	
570.72	4472.8	
570.91	7288	
571.11	6424.5	
571.3	5045.5	
571.49	6068.8	
571.69	6421.1	
571.88	6144.6	
572.07	5492.7	
572.27	5561.6	
572.46	6040.8	
572.65	7145.4	
572.85	4781.3	
573.04	5158.2	
573.23	7258	
573.43	6505.7	
573.62	4450.2	
573.81	5141.1	
574	6541.9	
574.2	6397.9	
574.39	4790.9	
574.58	4991.6	
574.78	7326.9	
574.97	6520	
575.16	5304.2	
575.36	5475.6	
575.55	6892.1	
575.74	7159	
575.93	4420.2	
576.13	5477.6	
576.32	6348.7	
576.51	6912.6	
576.71	4771.1	
576.9	6180.1	
577.09	7305.1	
577.28	6696.2	
577.48	5436	
577.67	4311.7	
577.86	6406	
578.05	6685.3	
578.25	4954	
578.44	5058.5	
578.63	6527.6	
578.83	7696.3	
579.02	4362.2	
579.21	5905.7	
579.4	6563.7	
579.6	6396.5	
579.79	5184.1	
579.98	7364.5	
580.17	7023.2	
580.37	7066.9	
580.56	4550.6	
580.75	5298.1	
580.94	7498.3	
581.14	7423.9	
581.33	5737.7	
581.52	4705.5	
581.71	6850.5	
581.91	7522.2	
582.1	4335.5	
582.29	5030.5	
582.48	6456.6	
582.68	6360.3	
582.87	5546.6	
583.06	5025	
583.25	6802.7	
583.45	6643.6	
583.64	5673.6	
583.83	6441.5	
584.02	6278.4	
584.21	6716	
584.41	5795.8	
584.6	4967.7	
584.79	6450.4	
584.98	7286.7	
585.18	4383.3	
585.37	4448.9	
585.56	6001.9	
585.75	6821.8	
585.94	4717.8	
586.14	5385.5	
586.33	7527.7	
586.52	6478.4	
586.71	5240.1	
586.91	5014.8	
587.1	5922.7	
587.29	6931	
587.48	4987.5	
587.67	4774.5	
587.87	6866.2	
588.06	6986.3	
588.25	6232	
588.44	5545.9	
588.63	6585.6	
588.83	7204.8	
589.02	5044.1	
589.21	4979.3	
589.4	6427.9	
589.59	6293.4	
589.78	4286.4	
589.98	4622.9	
590.17	6115.9	
590.36	6738.5	
590.55	4082.3	
590.74	5086.5	
590.94	8144.8	
591.13	6655.9	
591.32	4776.5	
591.51	4277.5	
591.7	7141.3	
591.89	6567.2	
592.09	4332.8	
592.28	4880.3	
592.47	5811.5	
592.66	7658.7	
592.85	4388.8	
593.05	4648.9	
593.24	6438.1	
593.43	7191.1	
593.62	4600.4	
593.81	5181.4	
594	6423.8	
594.19	6660	
594.39	4583.4	
594.58	4481	
594.77	6809.5	
594.96	7372	
595.15	4490.5	
595.34	5221.6	
595.54	6812.9	
595.73	5955.5	
595.92	3826.3	
596.11	5063.9	
596.3	7323.5	
596.49	6003.3	
596.68	4868	
596.88	5309	
597.07	7068.9	
597.26	5873.6	
597.45	4366.3	
597.64	5580.7	
597.83	6120	
598.02	6709.8	
598.22	4461.8	
598.41	5111.7	
598.6	6472.3	
598.79	5907	
598.98	4524.6	
599.17	5485.8	
599.36	6525.5	
599.55	7793.2	
599.74	6604	
599.94	6346.7	
600.13	7088	
600.32	5899.5	
600.51	4205.8	
600.7	4384	
600.89	7804.1	
601.08	7838.3	
601.27	4203.1	
601.47	5216.2	
601.66	7047.7	
601.85	7686	
602.04	4844.1	
602.23	5236	
602.42	6066.1	
602.61	6724.8	
602.8	4832.5	
602.99	4502.1	
603.18	6445.6	
603.37	6670.9	
603.57	5257.8	
603.76	5772.5	
603.95	7478.5	
604.14	6973.3	
604.33	4626.4	
604.52	5003.9	
604.71	6711.9	
604.9	6263.4	
605.09	5601.2	
605.28	5429.2	
605.47	7197.9	
605.66	6993.1	
605.86	5239.4	
606.05	4644.8	
606.24	7257.3	
606.43	5770.5	
606.62	5019.6	
606.81	5823.1	
607	7111.2	
607.19	6365.8	
607.38	4404.5	
607.57	4659.8	
607.76	6107	
607.95	5630.5	
608.14	5130.2	
608.33	5716.6	
608.52	6235.4	
608.72	7059.3	
608.91	4360.1	
609.1	4252.9	
609.29	6353.5	
609.48	5847	
609.67	5259.9	
609.86	4340.3	
610.05	5890	
610.24	6303.6	
610.43	4222.2	
610.62	3832.4	
610.81	7522.2	
611	7163.1	
611.19	4341.7	
611.38	5188.2	
611.57	6587	
611.76	7925	
611.95	4166.9	
612.14	3991.5	
612.33	6412.9	
612.52	5840.1	
612.71	4696	
612.9	3912.3	
613.09	5513.8	
613.28	7882.6	
613.47	4463.9	
613.66	5470.8	
613.85	6479.8	
614.04	6076.3	
614.24	4554.7	
614.43	3682.2	
614.62	6628.6	
614.81	6553.5	
615	5125.4	
615.19	5113.1	
615.38	5980.1	
615.57	6242.2	
615.76	4990.9	
615.95	5905.7	
616.14	6658.6	
616.33	6328.2	
616.52	5330.2	
616.71	5472.2	
616.9	6678.4	
617.09	6449.1	
617.28	4568.3	
617.47	5891.3	
617.66	5722.7	
617.85	5713.2	
618.04	5438.7	
618.22	4927.4	
618.41	6008.7	
618.6	6852.5	
618.79	4782.7	
618.98	4410	
619.17	7193.1	
619.36	5455.1	
619.55	4616.8	
619.74	4696	
619.93	6427.9	
620.12	5850.4	
620.31	5235.3	
620.5	5335.6	
620.69	7013.6	
620.88	7286.7	
621.07	6075	
621.26	5014.8	
621.45	6523.5	
621.64	6565.8	
621.83	5179.3	
622.02	4312.3	
622.21	6619.7	
622.4	6329.6	
622.59	5685.8	
622.78	5481.7	
622.97	5903.6	
623.16	6935.8	
623.35	5007.3	
623.54	4203.1	
623.72	6182.1	
623.91	6283.2	
624.1	5283.8	
624.29	3932.8	
624.48	7402.7	
624.67	6569.2	
624.86	5242.8	
625.05	4205.8	
625.24	7450.5	
625.43	5781.4	
625.62	6947.4	
625.81	4461.2	
626	6893.5	
626.19	6087.2	
626.38	5186.8	
626.56	4663.2	
626.75	5999.2	
626.94	6707.8	
627.13	5255.1	
627.32	3921.2	
627.51	6649.1	
627.7	7929.7	
627.89	4136.9	
628.08	5288.5	
628.27	5825.8	
628.46	6098.2	
628.65	4394.9	
628.83	4064.5	
629.02	6694.8	
629.21	5894.7	
629.4	4859.8	
629.59	5054.4	
629.78	5776.6	
629.97	6822.5	
630.16	5124.7	
630.35	4552.6	
630.54	7264.1	
630.72	6896.9	
630.91	4501.4	
631.1	5141.1	
631.29	6473.6	
631.48	6586.3	
631.67	5178.6	
631.86	4682.3	
632.05	5982.8	
632.24	6068.8	
632.42	4333.5	
632.61	4937.7	
632.8	6184.9	
632.99	5842.2	
633.18	4947.2	
633.37	5400.5	
633.56	6377.4	
633.75	6234	
633.93	4892.6	
634.12	4508.9	
634.31	7260.7	
634.5	6865.5	
634.69	4674.8	
634.88	5252.4	
635.07	6182.8	
635.25	6833.4	
635.44	5616.9	
635.63	5763.7	
635.82	6032.6	
636.01	5546.6	
636.2	5530.2	
636.39	5060.5	
636.57	7223.2	
636.76	6956.3	
636.95	4467.3	
637.14	5960.3	
637.33	6533.7	
637.52	7540.6	
637.7	4254.3	
637.89	5199.1	
638.08	6062.7	
638.27	7669	
638.46	5324.7	
638.65	5845.6	
638.83	7596.6	
639.02	5906.3	
639.21	5253.7	
639.4	5737	
639.59	6508.4	
639.78	6032.6	
639.96	4558.8	
640.15	4596.3	
640.34	6329.6	
640.53	6600.6	
640.72	4300.7	
640.91	4655.7	
641.09	5812.8	
641.28	7214.3	
641.47	4924.7	
641.66	5487.2	
641.85	6529.6	
642.03	6793.1	
642.22	5309.7	
642.41	4769	
642.6	5948	
642.79	5360.2	
642.97	4580.6	
643.16	5350	
643.35	5976.7	
643.54	5859.2	
643.73	4420.9	
643.91	5363.6	
644.1	5649.7	
644.29	6270.9	
644.48	4677.6	
644.67	4700.8	
644.85	5896.1	
645.04	6290	
645.23	4250.9	
645.42	4556	
645.6	5847	
645.79	7050.5	
645.98	4625.7	
646.17	3646.1	
646.36	5672.9	
646.54	6299.6	
646.73	5617.6	
646.92	4323.9	
647.11	5960.3	
647.29	7079.8	
647.48	4369	
647.67	4184	
647.86	7305.8	
648.05	7254.6	
648.23	4837.3	
648.42	6169.8	
648.61	6668.2	
648.8	6333	
648.98	4418.8	
649.17	4711.7	
649.36	5926.8	
649.55	5405.3	
649.73	4494.6	
649.92	5208.7	
650.11	5812.8	
650.3	6193.1	
650.48	4634.6	
650.67	4300.7	
650.86	6466.8	
651.05	5403.9	
651.23	4567.7	
651.42	4466.6	
651.61	5907.7	
651.79	6085.9	
651.98	4777.2	
652.17	4369	
652.36	6391.7	
652.54	5471.5	
652.73	4470.7	
652.92	4227.7	
653.11	6466.1	
653.29	6535.1	
653.48	3723.9	
653.67	4752.7	
653.85	6307.7	
654.04	7294.2	
654.23	5016.8	
654.42	4567.7	
654.6	5909.8	
654.79	6604.7	
654.98	4077.5	
655.16	4654.4	
655.35	5455.8	
655.54	5417.6	
655.73	4209.3	
655.91	4134.8	
656.1	6624.5	
656.29	5406	
656.47	3693.2	
656.66	5438.7	
656.85	5653.8	
657.03	5692.7	
657.22	4212	
657.41	4229.1	
657.59	5710.4	
657.78	5541.1	
657.97	3848.8	
658.16	4628.4	
658.34	6436.8	
658.53	6815	
658.72	5489.9	
658.9	6079.7	
659.09	5803.3	
659.28	5941.8	
659.46	4341	
659.65	4265.9	
659.84	5612.8	
660.02	6093.4	
660.21	4133.5	
660.4	4110.3	
660.58	6593.1	
660.77	5912.5	
660.96	4744.5	
661.14	3768.9	
661.33	7062.1	
661.52	7013.6	
661.7	3753.2	
661.89	7532.4	
662.08	5548.6	
662.26	5107	
662.45	3979.2	
662.64	4252.3	
662.82	6287.3	
663.01	5479.7	
663.2	4242.7	
663.38	4966.3	
663.57	6173.9	
663.75	6064	
663.94	4532.8	
664.13	5840.8	
664.31	5502.2	
664.5	6290.7	
664.69	4913.8	
664.87	5343.2	
665.06	5265.3	
665.25	6006.7	
665.43	5644.2	
665.62	5679	
665.8	6434.7	
665.99	5647.6	
666.18	4450.9	
666.36	4730.1	
666.55	6307.1	
666.74	6281.1	
666.92	4116.4	
667.11	5870.2	
667.29	5668.8	
667.48	6356.2	
667.67	5468.8	
667.85	4561.5	
668.04	5769.8	
668.22	5702.9	
668.41	4627.7	
668.6	4704.9	
668.78	5598.5	
668.97	5700.2	
669.15	5029.8	
669.34	3966.9	
669.53	5549.3	
669.71	5833.3	
669.9	4112.3	
670.08	4834.6	
670.27	5502.2	
670.46	6190.3	
670.64	5066.7	
670.83	5256.5	
671.01	5447.6	
671.2	6069.5	
671.38	4186.7	
671.57	4117.8	
671.76	6757.6	
671.94	7336.5	
672.13	4000.4	
672.31	5216.2	
672.5	6268.1	
672.69	5535	
672.87	4229.7	
673.06	4493.2	
673.24	6158.9	
673.43	5530.9	
673.61	4871.4	
673.8	4514.4	
673.98	6312.5	
674.17	6485.2	
674.36	5051	
674.54	4968.4	
674.73	6085.2	
674.91	6257.2	
675.1	4680.3	
675.28	4332.8	
675.47	5834	
675.65	6361.7	
675.84	4538.3	
676.03	4856.4	
676.21	5675.6	
676.4	5193.6	
676.58	5301.5	
676.77	5113.8	
676.95	7148.8	
677.14	5613.5	
677.32	4208.6	
677.51	3959.4	
677.69	6366.5	
677.88	5213.4	
678.06	4049.5	
678.25	4165.6	
678.44	5863.3	
678.62	5581.4	
678.81	3945.1	
678.99	4848.2	
679.18	6701.6	
679.36	6199.2	
679.55	4421.6	
679.73	5099.4	
679.92	6212.2	
680.1	5552	
680.29	5720.7	
680.47	4498.7	
680.66	5494	
680.84	6378.1	
681.03	3809.9	
681.21	4767	
681.4	5605.3	
681.58	5523.4	
681.77	4233.8	
681.95	4160.8	
682.14	6455.9	
682.32	6823.1	
682.51	5128.8	
682.69	3967.6	
682.88	5517.9	
683.06	6253.1	
683.25	4903.5	
683.43	5366.4	
683.62	5828.5	
683.8	6298.2	
683.99	5427.1	
684.17	4752.7	
684.36	7215	
684.54	5829.2	
684.73	4032.5	
684.91	4260.5	
685.1	6299.6	
685.28	5622.4	
685.46	4861.9	
685.65	4982.7	
685.83	6552.8	
686.02	5898.2	
686.2	4397.7	
686.39	4474.8	
686.57	5489.2	
686.76	7202.7	
686.94	4332.8	
687.13	4513.7	
687.31	6391	
687.5	5853.8	
687.68	3906.8	
687.86	5244.2	
688.05	7622.5	
688.23	5285.1	
688.42	5365.7	
688.6	4305.5	
688.79	5731.6	
688.97	5750.7	
689.16	4834.6	
689.34	3714.3	
689.52	6457.9	
689.71	6645.7	
689.89	5058.5	
690.08	4367.6	
690.26	5959.6	
690.45	5879	
690.63	5355.4	
690.81	4539.7	
691	5757.5	
691.18	5645.6	
691.37	4679.6	
691.55	6946.7	
691.74	5618.3	
691.92	7617.1	
692.1	4745.8	
692.29	4121.9	
692.47	5897.5	
692.66	5134.3	
692.84	4328.7	
693.02	4939	
693.21	5264.6	
693.39	5770.5	
693.58	4952.7	
693.76	4367	
693.94	7040.2	
694.13	6730.3	
694.31	4261.8	
694.5	5386.2	
694.68	5560.2	
694.86	5855.1	
695.05	4603.8	
695.23	4742.4	
695.42	6260	
695.6	8667	
695.78	5257.1	
695.97	4326.7	
696.15	6318.7	
696.34	5677.7	
696.52	4136.2	
696.7	5059.8	
696.89	6095.4	
697.07	5459.2	
697.25	4978.6	
697.44	6552.1	
697.62	6064.7	
697.81	6495.5	
697.99	4705.5	
698.17	5094	
698.36	5408	
698.54	6116.6	
698.72	5020.9	
698.91	3959.4	
699.09	5696.8	
699.28	5601.2	
699.46	4622.9	
699.64	4527.4	
699.83	5489.2	
700.01	6843.6	
700.19	5351.3	
700.38	3679.5	
700.56	6800.6	
700.74	5528.2	
700.93	4133.5	
701.11	4903.5	
701.29	6179.4	
701.48	7173.4	
701.66	4314.4	
701.84	4329.4	
702.03	5686.5	
702.21	6299.6	
702.39	3872	
702.58	4502.8	
702.76	6049.7	
702.94	6136.4	
703.13	3962.8	
703.31	6419	
703.49	5384.8	
703.68	6812.9	
703.86	4115.1	
704.04	5147.9	
704.23	5926.8	
704.41	6365.1	
704.59	4254.3	
704.78	5595.1	
704.96	6993.8	
705.14	6346	
705.33	4019.5	
705.51	4968.4	
705.69	5760.9	
705.87	6622.4	
706.06	5214.1	
706.24	4014.7	
706.42	6064.7	
706.61	6366.5	
706.79	5240.8	
706.97	3994.9	
707.16	5541.1	
707.34	6092	
707.52	5248.3	
707.7	4323.9	
707.89	5838.8	
708.07	5387.5	
708.25	5187.5	
708.44	5302.2	
708.62	5584.8	
708.8	6800.6	
708.98	5511.1	
709.17	4313	
709.35	6014.2	
709.53	6053.1	
709.72	4069.3	
709.9	4286.4	
710.08	6292	
710.26	6404	
710.45	5807.4	
710.63	4419.5	
710.81	5924.1	
710.99	6051.7	
711.18	5172.5	
711.36	4623.6	
711.54	5823.1	
711.72	6587.6	
711.91	4723.3	
712.09	4162.8	
712.27	6061.3	
712.45	6929.6	
712.64	5105.6	
712.82	4024.3	
713	5565	
713.18	5752.7	
713.37	4238.6	
713.55	5522	
713.73	6713.2	
713.91	5304.9	
714.1	4730.8	
714.28	4294.6	
714.46	6562.4	
714.64	5681.1	
714.83	3768.9	
715.01	4659.1	
715.19	5887.9	
715.37	5358.2	
715.55	4335.5	
715.74	4700.8	
715.92	6954.2	
716.1	4855.7	
716.28	5924.8	
716.47	4887.8	
716.65	5481.7	
716.83	5727.5	
717.01	4715.1	
717.19	4825	
717.38	7798	
717.56	5365	
717.74	5049.6	
717.92	3986.7	
718.1	6598.6	
718.29	5698.1	
718.47	3597.6	
718.65	4300.7	
718.83	6328.2	
719.01	6150.1	
719.2	3435.1	
719.38	4541	
719.56	5917.9	
719.74	7536.5	
719.92	4137.6	
720.11	5275.6	
720.29	6037.4	
720.47	5087.8	
720.65	3756	
720.83	4777.2	
721.02	5602.6	
721.2	5314.5	
721.38	4792.9	
721.56	4024.3	
721.74	4855.7	
721.92	5081.7	
722.11	5332.9	
722.29	5030.5	
722.47	6378.7	
722.65	5466.7	
722.83	4057	
723.01	5021.6	
723.2	5586.9	
723.38	5840.1	
723.56	3502.7	
723.74	4657.8	
723.92	5096	
724.1	6371.9	
724.29	3994.9	
724.47	5163.6	
724.65	5143.1	
724.83	5087.2	
725.01	3824.9	
725.19	4836.6	
725.37	5137.7	
725.56	5207.3	
725.74	3710.9	
725.92	3952.6	
726.1	5055.8	
726.28	5411.4	
726.46	4489.1	
726.64	4237.9	
726.83	5388.2	
727.01	5679.7	
727.19	3702	
727.37	4589.5	
727.55	5498.1	
727.73	5988.3	
727.91	3649.5	
728.09	3544.4	
728.28	6070.9	
728.46	6677.1	
728.64	4675.5	
728.82	4663.9	
729	7075.7	
729.18	6365.8	
729.36	3743.7	
729.54	6264.7	
729.72	7326.3	
729.91	5560.2	
730.09	5728.9	
730.27	4407.2	
730.45	5410.7	
730.63	6105	
730.81	5046.2	
730.99	3968.3	
731.17	6488.6	
731.35	5132.2	
731.53	4628.4	
731.71	4149.2	
731.9	6318	
732.08	6604.7	
732.26	4483.7	
732.44	4086.4	
732.62	6507.1	
732.8	5975.3	
732.98	4851	
733.16	3904.1	
733.34	6075.6	
733.52	4819.6	
733.7	4457.7	
733.88	4833.2	
734.07	5921.4	
734.25	5598.5	
734.43	3807.9	
734.61	5541.8	
734.79	7172.7	
734.97	5517.2	
735.15	4016.1	
735.33	4391.5	
735.51	5877.7	
735.69	5544.5	
735.87	5805.3	
736.05	4635.2	
736.23	5731.6	
736.41	5461.2	
736.59	4427	
736.77	4502.8	
736.95	6137.8	
737.13	5529.5	
737.32	4037.2	
737.5	4281.6	
737.68	6732.4	
737.86	5469.4	
738.04	3835.2	
738.22	5823.7	
738.4	5304.9	
738.58	5601.2	
738.76	4540.3	
738.94	3388.7	
739.12	5402.5	
739.3	5255.1	
739.48	5156.1	
739.66	4851.6	
739.84	5662.6	
740.02	5691.3	
740.2	3511.6	
740.38	3916.4	
740.56	6103.6	
740.74	4879.6	
740.92	4648.2	
741.1	4553.3	
741.28	5474.2	
741.46	5316.5	
741.64	4106.9	
741.82	4704.2	
742	5549.3	
742.18	5498.8	
742.36	4416.8	
742.54	3910.9	
742.72	6098.9	
742.9	4885.1	
743.08	4862.6	
743.26	3522.5	
743.44	6369.9	
743.62	6187.6	
743.8	5034.6	
743.98	4007.2	
744.16	5923.4	
744.34	5610.8	
744.52	4913.1	
744.7	4799.8	
744.88	6091.3	
745.06	5607.3	
745.24	4922.6	
745.42	5097.4	
745.6	6186.9	
745.78	6010.1	
745.96	3707.5	
746.14	4043.4	
746.32	6995.9	
746.5	6262	
746.68	4667.3	
746.86	4150.6	
747.03	6715.3	
747.21	4937.7	
747.39	4664.6	
747.57	4162.8	
747.75	5855.8	
747.93	6202.6	
748.11	4136.2	
748.29	4027.7	
748.47	7462.8	
748.65	5553.4	
748.83	4906.9	
749.01	4513	
749.19	6026.5	
749.37	5180	
749.55	4469.4	
749.73	4557.4	
749.91	5660.6	
750.09	5410.1	
750.26	4578.6	
750.44	3954.6	
750.62	5741.1	
750.8	5728.2	
750.98	3747.8	
751.16	4224.3	
751.34	5786.9	
751.52	5094.7	
751.7	5046.2	
751.88	3797.6	
752.06	6215.6	
752.24	6098.2	
752.42	3719.8	
752.59	4156	
752.77	5682.4	
752.95	6979.5	
753.13	4926.7	
753.31	4296.6	
753.49	5382.1	
753.67	5883.8	
753.85	4606.6	
754.03	4162.2	
754.21	6148	
754.38	6569.9	
754.56	4401.8	
754.74	3403	
754.92	5501.5	
755.1	6228.6	
755.28	3593.5	
755.46	3597.6	
755.64	7151.5	
755.82	7374.1	
755.99	4082.3	
756.17	4252.3	
756.35	4772.4	
756.53	6525.5	
756.71	3125.2	
756.89	4123.2	
757.07	6106.4	
757.25	5101.5	
757.42	4620.9	
757.6	5551.4	
757.78	6015.6	
757.96	4965.6	
758.14	4295.3	
758.32	3701.4	
758.5	4506.9	
758.67	5421.7	
758.85	4096.6	
759.03	4216.8	
759.21	5580	
759.39	4989.5	
759.57	3653.6	
759.75	4803.9	
759.92	6230.6	
760.1	5457.8	
760.28	5239.4	
760.46	5474.9	
760.64	5177.3	
760.82	4882.4	
760.99	5031.2	
761.17	4111	
761.35	5989.6	
761.53	4908.3	
761.71	4232.5	
761.89	4975.9	
762.06	5875.6	
762.24	5330.9	
762.42	4261.1	
762.6	4046.1	
762.78	5201.8	
762.96	5291.3	
763.13	4618.9	
763.31	4283	
763.49	6189.6	
763.67	5227.1	
763.85	5083.1	
764.02	5716.6	
764.2	6393.1	
764.38	5604.6	
764.56	4128.7	
764.74	5095.3	
764.91	6644.3	
765.09	5386.8	
765.27	3885	
765.45	3634.5	
765.63	6626.5	
765.8	6462	
765.98	3360	
766.16	3747.1	
766.34	4939.7	
766.52	4694.6	
766.69	4768.4	
766.87	3593.5	
767.05	5468.8	
767.23	6224.5	
767.41	3887.7	
767.58	4244.8	
767.76	5989.6	
767.94	6079.7	
768.12	4051.6	
768.29	4835.9	
768.47	5484.5	
768.65	6306.4	
768.83	3606.5	
769	4888.5	
769.18	5088.5	
769.36	5765.7	
769.54	4856.4	
769.72	3676.1	
769.89	6146.6	
770.07	6249.7	
770.25	4096.6	
770.43	5347.2	
770.6	6897.6	
770.78	7279.2	
770.96	4319.8	
771.14	4982	
771.31	6029.2	
771.49	5356.8	
771.67	3411.2	
771.85	3696.6	
772.02	4633.9	
772.2	5409.4	
772.38	4534.2	
772.55	3928.7	
772.73	5659.2	
772.91	5448.3	
773.09	4371	
773.26	4442.7	
773.44	5634.6	
773.62	5440.8	
773.8	3864.5	
773.97	3540.3	
774.15	5782.8	
774.33	5367.7	
774.5	3807.9	
774.68	4222.2	
774.86	5948	
775.04	5373.2	
775.21	3865.9	
775.39	3837.2	
775.57	5705.6	
775.74	6142.5	
775.92	3805.8	
776.1	3590.8	
776.27	5749.3	
776.45	6950.8	
776.63	3898	
776.81	3358	
776.98	5315.8	
777.16	6481.8	
777.34	4066.6	
777.51	3989.4	
777.69	5328.1	
777.87	5102.9	
778.04	4053.6	
778.22	4736.3	
778.4	5117.9	
778.57	5861.3	
778.75	3312.2	
778.93	3632.4	
779.1	4978.6	
779.28	4805.2	
779.46	3377.8	
779.64	3944.4	
779.81	6007.4	
779.99	6875	
780.17	4767.7	
780.34	4859.8	
780.52	5413.5	
780.69	5646.2	
780.87	4252.9	
781.05	3822.9	
781.22	5456.5	
781.4	5563	
781.58	4006.5	
781.75	3076.7	
781.93	5551.4	
782.11	4957.4	
782.28	4918.5	
782.46	3967.6	
782.64	4765.6	
782.81	5839.4	
782.99	4035.2	
783.17	4012.7	
783.34	5674.9	
783.52	4883.7	
783.69	4286.4	
783.87	5181.4	
784.05	4916.5	
784.22	4931.5	
784.4	5099.4	
784.58	4424.3	
784.75	5959.6	
784.93	4977.9	
785.1	4002.4	
785.28	4642.1	
785.46	5645.6	
785.63	4967.7	
785.81	4052.9	
785.99	3816	
786.16	5120.6	
786.34	5561.6	
786.51	3919.1	
786.69	4241.3	
786.87	4755.4	
787.04	5291.3	
787.22	3743.7	
787.39	4764.9	
787.57	4935.6	
787.75	6173.9	
787.92	4892.6	
788.1	4808.6	
788.27	5052.3	
788.45	4798.4	
788.63	4536.9	
788.8	3205.8	
788.98	5552.7	
789.15	4730.1	
789.33	3332	
789.5	4062.5	
789.68	6036.7	
789.86	6044.9	
790.03	4492.6	
790.21	3962.8	
790.38	5999.2	
790.56	5127.4	
790.73	3769.6	
790.91	3837.2	
791.09	5015.5	
791.26	5775.3	
791.44	4024.3	
791.61	3429	
791.79	4974.5	
791.96	5175.2	
792.14	3561.4	
792.32	3140.9	
792.49	5018.9	
792.67	5171.8	
792.84	3661.8	
793.02	3475.4	
793.19	5552.7	
793.37	6251.1	
793.54	3149.1	
793.72	3525.9	
793.89	6422.4	
794.07	5056.4	
794.25	4231.8	
794.42	3192.8	
794.6	6163	
794.77	5734.3	
794.95	4477.5	
795.12	3831.7	
795.3	5089.2	
795.47	5696.8	
795.65	4315.1	
795.82	4070.7	
796	4859.1	
796.17	6885.3	
796.35	3982.6	
796.52	4752	
796.7	5601.2	
796.87	5695.4	
797.05	4895.3	
797.22	4930.8	
797.4	5625.8	
797.57	6786.3	
797.75	4068.6	
797.92	3897.3	
798.1	5978	
798.27	4993.6	
798.45	3307.5	
798.62	3554.6	
798.8	5380.7	
798.97	5840.1	
799.15	4341	
799.32	4132.1	
799.5	4597.7	
799.67	5417.6	
799.85	4502.8	
800.02	3228.3	
800.2	4981.3	
800.37	5409.4	
800.55	4631.8	
800.72	3865.2	
800.9	5864	
801.07	6337.1	
801.25	5283.8	
801.42	4289.1	
801.6	5937.1	
801.77	5558.9	
801.95	3960.8	
802.12	3764.2	
802.29	5641.5	
802.47	5490.6	
802.64	4216.8	
802.82	3188.7	
802.99	4969.7	
803.17	6134.3	
803.34	4109.6	
803.52	3696.6	
803.69	6733	
803.87	4802.5	
804.04	4080.9	
804.21	4191.5	
804.39	6150.7	
804.56	5272.8	
804.74	3450.1	
804.91	4297.3	
805.09	5052.3	
805.26	5166.3	
805.44	3519.1	
805.61	3937.6	
805.78	5780.7	
805.96	5822.4	
806.13	4300.1	
806.31	4627	
806.48	4561.5	
806.66	5160.9	
806.83	4300.7	
807	4188.1	
807.18	5051.7	
807.35	5441.5	
807.53	4124.6	
807.7	3337.5	
807.87	6273.6	
808.05	5193	
808.22	4614.1	
808.4	3327.3	
808.57	5098.8	
808.74	4674.8	
808.92	3875.4	
809.09	4891.9	
809.27	4935.6	
809.44	5695.4	
809.61	3321.1	
809.79	3783.3	
809.96	6229.9	
810.14	5924.1	
810.31	3197.6	
810.48	3999.7	
810.66	5134.3	
810.83	6053.1	
811.01	3844	
811.18	4280.9	
811.35	5885.9	
811.53	4530.1	
811.7	4697.4	
811.87	4307.6	
812.05	5128.8	
812.22	5027.1	
812.39	3738.2	
812.57	3536.2	
812.74	5094	
812.92	6847	
813.09	3986	
813.26	4386.1	
813.44	6567.2	
813.61	5055.8	
813.78	3317.7	
813.96	4537.6	
814.13	5082.4	
814.3	4756.1	
814.48	4845.5	
814.65	3981.3	
814.82	6346	
815	4906.9	
815.17	4092.5	
815.34	4983.4	
815.52	5087.2	
815.69	5079	
815.87	4126.7	
816.04	3500	
816.21	5151.3	
816.38	4463.2	
816.56	3980.6	
816.73	3689.1	
816.9	6513.2	
817.08	5919.3	
817.25	3733.4	
817.42	4767.7	
817.6	4646.2	
817.77	5132.2	
817.94	4218.8	
818.12	3672	
818.29	4842.1	
818.46	7742	
818.64	3881.6	
818.81	3625.6	
818.98	4739.7	
819.16	7000.6	
819.33	4489.8	
819.5	4100.7	
819.67	5481.7	
819.85	6182.8	
820.02	4034.5	
820.19	4321.9	
820.37	5348.6	
820.54	4849.6	
820.71	4225.6	
820.88	5316.5	
821.06	5343.2	
821.23	4816.8	
821.4	4291.2	
821.58	4190.8	
821.75	5812.1	
821.92	5267.4	
822.09	3349.1	
822.27	3424.9	
822.44	5156.8	
822.61	5100.8	
822.79	3398.9	
822.96	6558.3	
823.13	5670.1	
823.3	4866.7	
823.48	3958.7	
823.65	3528	
823.82	5820.3	
823.99	4681	
824.17	5023.7	
824.34	3611.9	
824.51	6875	
824.68	5169.1	
824.86	3738.9	
825.03	4218.8	
825.2	5121.3	
825.37	6278.4	
825.55	3630.4	
825.72	4195.6	
825.89	6864.1	
826.06	6366.5	
826.24	4016.1	
826.41	4059.1	
826.58	6251.1	
826.75	5445.5	
826.92	3183.9	
827.1	3523.2	
827.27	8536.6	
827.44	6799.9	
827.61	3842	
827.79	4697.4	
827.96	4827.7	
828.13	5241.4	
828.3	3977.8	
828.47	3382.6	
828.65	5371.1	
828.82	5296	
828.99	5244.2	
829.16	4550.6	
829.34	5744.6	
829.51	5502.2	
829.68	4169	
829.85	4267.3	
830.02	6081.8	
830.2	5752.7	
830.37	3224.2	
830.54	5023	
830.71	6612.2	
830.88	5098.1	
831.05	3192.1	
831.23	3675.4	
831.4	6282.5	
831.57	7012.9	
831.74	3805.8	
831.91	3380.5	
832.09	5298.8	
832.26	5721.3	
832.43	3979.9	
832.6	4552	
832.77	5280.3	
832.94	6199.2	
833.12	3155.9	
833.29	3953.3	
833.46	4977.9	
833.63	7305.1	
833.8	4347.8	
833.97	3991.5	
834.15	5771.9	
834.32	5545.9	
834.49	4179.2	
834.66	4218.1	
834.83	5986.9	
835	4877.6	
835.17	3867.2	
835.35	3846.1	
835.52	5671.5	
835.69	5542.5	
835.86	4027.7	
836.03	3308.2	
836.2	5693.4	
836.37	5266	
836.55	3950.5	
836.72	3700	
836.89	5318.6	
837.06	5872.9	
837.23	4049.5	
837.4	4478.9	
837.57	6578.1	
837.75	7305.1	
837.92	3616	
838.09	3914.4	
838.26	5247.6	
838.43	6107.7	
838.6	4248.9	
838.77	3773	
838.94	6943.3	
839.11	6693.4	
839.29	3988.1	
839.46	3115	
839.63	5749.3	
839.8	5483.8	
839.97	3870.7	
840.14	3872	
840.31	5485.1	
840.48	5739.8	
840.65	3220.8	
840.82	3790.8	
841	5772.5	
841.17	5732.9	
841.34	3575.8	
841.51	3603.1	
841.68	5663.3	
841.85	5390.9	
842.02	3666.5	
842.19	3063.1	
842.36	5460.6	
842.53	5501.5	
842.7	3563.5	
842.87	4435.9	
843.05	7270.3	
843.22	5413.5	
843.39	3386.7	
843.56	3616	
843.73	5168.4	
843.9	5807.4	
844.07	5775.3	
844.24	4817.5	
844.41	8484.1	
844.58	4914.4	
844.75	3439.9	
844.92	3758.7	
845.09	5740.5	
845.26	5741.8	
845.43	3529.3	
845.6	3730.7	
845.77	5771.2	
845.94	5476.3	
846.12	3916.4	
846.29	4158.7	
846.46	5948.7	
846.63	5769.1	
846.8	3578.5	
846.97	4259.8	
847.14	6240.8	
847.31	5641.5	
847.48	3990.8	
847.65	4358.8	
847.82	6079.7	
847.99	5985.5	
848.16	4774.5	
848.33	4416.8	
848.5	5290.6	
848.67	6262.7	
848.84	3504.8	
849.01	3725.3	
849.18	5112.4	
849.35	4833.9	
849.52	4531.5	
849.69	3461.1	
849.86	5895.4	
850.03	6215.6	
850.2	3549.1	
850.37	4360.1	
850.54	6085.9	
850.71	5356.1	
850.88	4207.2	
851.05	3458.3	
851.22	5642.2	
851.39	6313.2	
851.56	3358.7	
851.73	4074.1	
851.9	5018.9	
852.07	5988.9	
852.24	3934.8	
852.41	3543.7	
852.58	5561.6	
852.75	5068.7	
852.92	3989.4	
853.09	3429.7	
853.26	5293.3	
853.43	6126.2	
853.6	3544.4	
853.77	3009.1	
853.94	6307.1	
854.11	5691.3	
854.28	5303.6	
854.44	3876.1	
854.61	6735.1	
854.78	6105	
854.95	3506.1	
855.12	4472.8	
855.29	4545.1	
855.46	6524.8	
855.63	3521.8	
855.8	4927.4	
855.97	5229.1	
856.14	6094.8	
856.31	5003.9	
856.48	3848.1	
856.65	5238.7	
856.82	4971.1	
856.99	3360	
857.16	3800.3	
857.33	6994.5	
857.49	5377.3	
857.66	3809.9	
857.83	4154.6	
858	5328.1	
858.17	5615.5	
858.34	3311.6	
858.51	3503.4	
858.68	6440.2	
858.85	6485.2	
859.02	4171.7	
859.19	4313.7	
859.36	4972.5	
859.52	5079	
859.69	3584.6	
859.86	4145.1	
860.03	5109.7	
860.2	6311.2	
860.37	3239.9	
860.54	3594.2	
860.71	5958.9	
860.88	6419	
861.05	3956	
861.21	4487.1	
861.38	6429.3	
861.55	4911.7	
861.72	3206.4	
861.89	3952.6	
862.06	6060.6	
862.23	6569.2	
862.4	3462.4	
862.56	3671.3	
862.73	5805.3	
862.9	5599.8	
863.07	4166.9	
863.24	3154.6	
863.41	4923.3	
863.58	5061.9	
863.75	3625.6	
863.91	4156.7	
864.08	6380.1	
864.25	5940.5	
864.42	4496	
864.59	5003.9	
864.76	6695.5	
864.93	4955.4	
865.09	3424.2	
865.26	3794.9	
865.43	6275.7	
865.6	6668.2	
865.77	3081.5	
865.94	3543	
866.1	6234	
866.27	6060.6	
866.44	5365	
866.61	3305.4	
866.78	5457.8	
866.95	5871.5	
867.11	3384.6	
867.28	3138.9	
867.45	6026.5	
867.62	5070.1	
867.79	4066.6	
867.96	3521.1	
868.12	4970.4	
868.29	6026.5	
868.46	3522.5	
868.63	4669.4	
868.8	6204	
868.97	5954.8	
869.13	3750.5	
869.3	3636.5	
869.47	5840.1	
869.64	6067.4	
869.81	3586.7	
869.97	3571	
870.14	5793.7	
870.31	6433.4	
870.48	3452.9	
870.65	4493.9	
870.81	5382.1	
870.98	5293.3	
871.15	3984	
871.32	3716.4	
871.48	5821.7	
871.65	6424.5	
871.82	3524.6	
871.99	3850.9	
872.16	6951.5	
872.32	6343.9	
872.49	3540.3	
872.66	3566.9	
872.83	5983.5	
872.99	5249.6	
873.16	4076.8	
873.33	3467.2	
873.5	5589.6	
873.67	5579.3	
873.83	3721.8	
874	4829.1	
874.17	5777.3	
874.34	6824.5	
874.5	4544.4	
874.67	4388.8	
874.84	6399.9	
875.01	5020.3	
875.17	5029.1	
875.34	3534.8	
875.51	5621	
875.68	6875	
875.84	4247.5	
876.01	5304.9	
876.18	5882.4	
876.34	5903.6	
876.51	3545.7	
876.68	3476.1	
876.85	5414.8	
877.01	6262.7	
877.18	5070.8	
877.35	3552.5	
877.52	5491.3	
877.68	4968.4	
877.85	3463.8	
878.02	3502.7	
878.18	5520	
878.35	5244.8	
878.52	2806.4	
878.69	4268	
878.85	6016.9	
879.02	5879	
879.19	5042.8	
879.35	3870	
879.52	5953.4	
879.69	6128.9	
879.86	3026.2	
880.02	4029	
880.19	5529.5	
880.36	6734.4	
880.52	4074.1	
880.69	4240	
880.86	6101.6	
881.02	6090.7	
881.19	3873.4	
881.36	3863.8	
881.52	5867.4	
881.69	5239.4	
881.86	3839.9	
882.02	3749.8	
882.19	6272.2	
882.36	7359	
882.52	3622.9	
882.69	5055.8	
882.86	5689.9	
883.02	5578.7	
883.19	4291.9	
883.36	4035.9	
883.52	6092.7	
883.69	6895.5	
883.86	3621.5	
884.02	3183.2	
884.19	6024.4	
884.36	5533.6	
884.52	4033.8	
884.69	3745.7	
884.86	5279.7	
885.02	6527.6	
885.19	3905.5	
885.36	4103.4	
885.52	5535.7	
885.69	5655.8	
885.86	5132.2	
886.02	4543.8	
886.19	5965.7	
886.35	5383.4	
886.52	3898	
886.69	5001.8	
886.85	5019.6	
887.02	6363.7	
887.19	6363.7	
887.35	6363.7	
887.52	6363.7	
887.68	6363.7	
887.85	6363.7	
888.02	6363.7	
888.18	6363.7	
888.35	6363.7	
888.51	6363.7	
888.68	6363.7	
888.85	6363.7	
889.01	6363.7	
889.18	6363.7	
889.35	6363.7	
889.51	6363.7	
889.68	6363.7	
889.84	6363.7	
890.01	6363.7	
890.17	6363.7	
890.34	6363.7	
890.51	6363.7	
890.67	6363.7	
890.84	6363.7	
891	6363.7	
891.17	6363.7	
891.34	6363.7	
891.5	6363.7	
891.67	6363.7	
891.83	6363.7	
892	6363.7	
892.16	6363.7	
892.33	6363.7	
892.5	6363.7	
892.66	6363.7	
892.83	6363.7	
892.99	6363.7	
893.16	6363.7	
893.32	6363.7	
893.49	6363.7	
893.65	6363.7	
893.82	6363.7	
893.99	6363.7	
894.15	6363.7	
894.32	6363.7	
894.48	6363.7	
894.65	6363.7	
894.81	6363.7	
894.98	6363.7	
895.14	6363.7	
895.31	6363.7	
895.47	6363.7	
895.64	6363.7	
895.81	6363.7	
895.97	6363.7	
896.14	6363.7	
896.3	6363.7	
896.47	6363.7	
896.63	6363.7	
896.8	6363.7	
896.96	6363.7	
897.13	6363.7	
897.29	6363.7	
897.46	6363.7	
897.62	6363.7	
897.79	6363.7	
897.95	6363.7	
898.12	6363.7	
898.28	6363.7	
898.45	6363.7	
898.61	6363.7	
898.78	6363.7	
898.94	6363.7	
899.11	6363.7	
899.27	6363.7	
899.44	6363.7	
899.6	6363.7	
899.77	6363.7	
899.93	6363.7	
900.1	6363.7	
900.26	6363.7	
900.43	6363.7	
900.59	6363.7	
900.76	6363.7	
900.92	6363.7	
901.09	6363.7	
901.25	6363.7	
901.42	6363.7	
901.58	6363.7	
901.75	6363.7	
901.91	6363.7	
902.07	6363.7	
902.24	6363.7	
902.4	6363.7	
902.57	6363.7	
902.73	6363.7	
902.9	6363.7	
903.06	6363.7	
903.23	6363.7	
903.39	6363.7	
903.56	6363.7	
903.72	6363.7	
903.88	6363.7	
904.05	6363.7	
904.21	6363.7	
904.38	6363.7	
904.54	6363.7	
904.71	6363.7	
904.87	6363.7	
905.03	6363.7	
905.2	6363.7	
905.36	6363.7	
905.53	6363.7	
905.69	6363.7	
905.86	6363.7	
906.02	6363.7	
906.18	6363.7	
906.35	6363.7	
906.51	6363.7	
906.68	6363.7	
906.84	6363.7	
907.01	6363.7	
907.17	6363.7	
907.33	6363.7	
907.5	6363.7	
907.66	6363.7	
907.83	6363.7	
907.99	6363.7	
908.15	6363.7	
908.32	6363.7	
908.48	6363.7	
908.65	6363.7	
908.81	6363.7	
908.97	6363.7	
909.14	6363.7	
909.3	6363.7	
909.47	6363.7	
909.63	6363.7	
909.79	6363.7	
909.96	6363.7	
910.12	6363.7	
910.28	6363.7	
910.45	6363.7	
910.61	6363.7	
910.78	6363.7	
910.94	6363.7	
911.1	6363.7	
911.27	6363.7	
911.43	6363.7	
911.59	6363.7	
911.76	6363.7	
911.92	6363.7	
912.08	6363.7	
912.25	6363.7	
912.41	6363.7	
912.57	6363.7	
912.74	6363.7	
912.9	6363.7	
913.07	6363.7	
913.23	6363.7	
913.39	6363.7	
913.56	6363.7	
913.72	6363.7	
913.88	6363.7	
914.05	6363.7	
914.21	6363.7	
914.37	6363.7	
914.54	6363.7	
914.7	6363.7	
914.86	6363.7	
915.03	6363.7	
915.19	6363.7	
