Wavelength	Intensities	
nm	a.u.	
179.22	1910.6	
179.44	1910.4	
179.65	1910.8	
179.86	1910.1	
180.08	1953.8	
180.29	4859.1	
180.51	3544.4	
180.72	5582.8	
180.94	6709.8	
181.15	3285.6	
181.37	3157.3	
181.58	5486.5	
181.79	5801.2	
182.01	3396.2	
182.22	3620.1	
182.44	5754.1	
182.65	4848.2	
182.87	4588.1	
183.08	4019.5	
183.29	6041.5	
183.51	4999.1	
183.72	3668.6	
183.94	5403.2	
184.15	5422.3	
184.37	5485.1	
184.58	3249.4	
184.79	4405.9	
185.01	4997.7	
185.22	5819.6	
185.44	4726	
185.65	3958	
185.86	5281.7	
186.08	4873.5	
186.29	3134.1	
186.51	3387.3	
186.72	5074.2	
186.94	5943.9	
187.15	3931.4	
187.36	4016.7	
187.58	7817.8	
187.79	5486.5	
188.01	4218.8	
188.22	6599.2	
188.43	6697.5	
188.65	5785.5	
188.86	3423.5	
189.08	4046.1	
189.29	5240.1	
189.5	5210	
189.72	3723.9	
189.93	3865.9	
190.15	5994.4	
190.36	7250.5	
190.57	4144.4	
190.79	3989.4	
191	6047.7	
191.22	6019.7	
191.43	4090.5	
191.64	3344.3	
191.86	6297.5	
192.07	6010.1	
192.29	3495.9	
192.5	3732.1	
192.71	6008.1	
192.93	5140.4	
193.14	3723.9	
193.35	3789.4	
193.57	5234.6	
193.78	6001.9	
194	3038.5	
194.21	3610.6	
194.42	5010.7	
194.64	5479	
194.85	4021.5	
195.07	4751.3	
195.28	5503.6	
195.49	4724.7	
195.71	5026.4	
195.92	3472	
196.13	5631.9	
196.35	5717.9	
196.56	5368.4	
196.78	4100.7	
196.99	7075	
197.2	6642.2	
197.42	4646.2	
197.63	4104.1	
197.84	4862.6	
198.06	5652.4	
198.27	3788.1	
198.48	5020.9	
198.7	5193.6	
198.91	5331.5	
199.13	4070	
199.34	4072	
199.55	5865.4	
199.77	4700.8	
199.98	3581.2	
200.19	4181.3	
200.41	5260.5	
200.62	5014.1	
200.83	4293.9	
201.05	4612.7	
201.26	5322	
201.47	5078.3	
201.69	3624.9	
201.9	3500.7	
202.11	5461.9	
202.33	6468.9	
202.54	3856.3	
202.76	4313.7	
202.97	5575.3	
203.18	5549.3	
203.4	4290.5	
203.61	4128.7	
203.82	5481.7	
204.04	5160.2	
204.25	4152.6	
204.46	3974.4	
204.68	5502.9	
204.89	5687.2	
205.1	3981.3	
205.32	3465.2	
205.53	5809.4	
205.74	6011.5	
205.96	2930	
206.17	4179.9	
206.38	5820.3	
206.6	5920.7	
206.81	4696.7	
207.02	3752.6	
207.24	5664.7	
207.45	6088.6	
207.66	3928.7	
207.88	3319.1	
208.09	5591	
208.3	5392.3	
208.52	3546.4	
208.73	3949.2	
208.94	5453.7	
209.15	6186.2	
209.37	3902.7	
209.58	4129.4	
209.79	5972.6	
210.01	5253.7	
210.22	3108.1	
210.43	3208.5	
210.65	5379.3	
210.86	5847	
211.07	3909.6	
211.29	3586.7	
211.5	5793	
211.71	5442.1	
211.93	3559.4	
212.14	3594.9	
212.35	5369.8	
212.56	5624.4	
212.78	4138.3	
212.99	3372.3	
213.2	6383.5	
213.42	5214.1	
213.63	3673.4	
213.84	3975.1	
214.06	4803.9	
214.27	4934.9	
214.48	3919.1	
214.69	4106.2	
214.91	6176	
215.12	6220.4	
215.33	4218.1	
215.55	4648.9	
215.76	6717.3	
215.97	5837.4	
216.18	4046.1	
216.4	3996.3	
216.61	5122	
216.82	5902.9	
217.04	3545.7	
217.25	3792.8	
217.46	6148.7	
217.67	5827.2	
217.89	3192.8	
218.1	3315.7	
218.31	5529.5	
218.53	5634.6	
218.74	3799.7	
218.95	3636.5	
219.16	5378.6	
219.38	6372.6	
219.59	3608.5	
219.8	4339.6	
220.01	7086.7	
220.23	5451	
220.44	4784.1	
220.65	3579.8	
220.87	5515.2	
221.08	6039.5	
221.29	3291.1	
221.5	4460.5	
221.72	7445.7	
221.93	5197.7	
222.14	4172.4	
222.35	4829.1	
222.57	5447.6	
222.78	5833.3	
222.99	3872.7	
223.2	4175.8	
223.42	5808.7	
223.63	5953.4	
223.84	3001.6	
224.05	2986.6	
224.27	6887.3	
224.48	6369.9	
224.69	4846.9	
224.9	4093.2	
225.12	5599.8	
225.33	5383.4	
225.54	3270.6	
225.75	3655.6	
225.97	4997.7	
226.18	5249.6	
226.39	3925.3	
226.6	3667.2	
226.82	5225.1	
227.03	5023	
227.24	4047.5	
227.45	3395.5	
227.67	5852.4	
227.88	6458.6	
228.09	4633.2	
228.3	4572.4	
228.52	5853.8	
228.73	5393	
228.94	3822.9	
229.15	3403.7	
229.36	5356.1	
229.58	5287.9	
229.79	3822.2	
230	4475.5	
230.21	6455.9	
230.43	5511.1	
230.64	4042.7	
230.85	4262.5	
231.06	5858.6	
231.28	5836	
231.49	3391.4	
231.7	4078.2	
231.91	5751.4	
232.12	5403.9	
232.34	3470.6	
232.55	3971.7	
232.76	6083.8	
232.97	5612.1	
233.18	3588.7	
233.4	4022.2	
233.61	5641.5	
233.82	5157.5	
234.03	3800.3	
234.25	3694.5	
234.46	7632.1	
234.67	5472.2	
234.88	4163.5	
235.09	3637.9	
235.31	5751.4	
235.52	5328.8	
235.73	4059.1	
235.94	3446	
236.15	5244.8	
236.37	6606.7	
236.58	3606.5	
236.79	3929.4	
237	5760.9	
237.21	4930.8	
237.43	4242.7	
237.64	3315	
237.85	9919.7	
238.06	4997	
238.27	4302.1	
238.48	3400.3	
238.7	5789.6	
238.91	5232.6	
239.12	3971	
239.33	3903.4	
239.54	5211.4	
239.76	5388.2	
239.97	3872.7	
240.18	3923.9	
240.39	6912.6	
240.6	5724.1	
240.82	4039.3	
241.03	3339.6	
241.24	5441.5	
241.45	6313.9	
241.66	3534.8	
241.87	4227.7	
242.09	6180.1	
242.3	6612.2	
242.51	4229.7	
242.72	3909.6	
242.93	5928.2	
243.14	5391.6	
243.36	4534.2	
243.57	4887.8	
243.78	6343.9	
243.99	5773.9	
244.2	3988.8	
244.41	3614	
244.63	5018.2	
244.84	5766.4	
245.05	4218.1	
245.26	3978.5	
245.47	5703.6	
245.68	6049	
245.9	5138.4	
246.11	4098	
246.32	5281	
246.53	5702.9	
246.74	6323.4	
246.95	3291.8	
247.16	4943.1	
247.38	5494	
247.59	3265.1	
247.8	3947.1	
248.01	5165.7	
248.22	5384.1	
248.43	3539.6	
248.64	3855.6	
248.86	4820.9	
249.07	5173.9	
249.28	3479.5	
249.49	4089.1	
249.7	5969.1	
249.91	6219.7	
250.12	3263.8	
250.34	3316.3	
250.55	5528.8	
250.76	5456.5	
250.97	4072	
251.18	4068.6	
251.39	6176.7	
251.6	5603.9	
251.81	4131.4	
252.03	4145.8	
252.24	5128.8	
252.45	5958.2	
252.66	3403.7	
252.87	4323.9	
253.08	5445.5	
253.29	7217	
253.5	3448.8	
253.72	4739	
253.93	5318.6	
254.14	6553.5	
254.35	3700	
254.56	3889.8	
254.77	5658.5	
254.98	5037.3	
255.19	3659	
255.41	4752.7	
255.62	5504.9	
255.83	6118	
256.04	4198.3	
256.25	4120.5	
256.46	6688	
256.67	5138.4	
256.88	4047.5	
257.09	4500.1	
257.31	5109	
257.52	5145.9	
257.73	5070.1	
257.94	3687	
258.15	5339.7	
258.36	5474.9	
258.57	4648.2	
258.78	2953.9	
258.99	5928.2	
259.2	5256.5	
259.41	3774.4	
259.63	3901.4	
259.84	6371.2	
260.05	6803.4	
260.26	4973.8	
260.47	3641.3	
260.68	6017.6	
260.89	5362.3	
261.1	4566.3	
261.31	3620.1	
261.52	6010.1	
261.73	6427.2	
261.95	4859.1	
262.16	4271.4	
262.37	6178	
262.58	6277.7	
262.79	4853	
263	3816	
263.21	5426.4	
263.42	4932.2	
263.63	3875.4	
263.84	3754.6	
264.05	5963.7	
264.26	6397.9	
264.47	4707.6	
264.69	4222.2	
264.9	6165.8	
265.11	5681.1	
265.32	3605.8	
265.53	3754.6	
265.74	5591.6	
265.95	4810	
266.16	3940.3	
266.37	4382	
266.58	5567.7	
266.79	5259.2	
267	3703.4	
267.21	3428.3	
267.42	5020.9	
267.63	5481	
267.84	3855	
268.06	3343.7	
268.27	5874.9	
268.48	6178	
268.69	3772.4	
268.9	4542.4	
269.11	6193.7	
269.32	4928.8	
269.53	3917.1	
269.74	3672.7	
269.95	5766.4	
270.16	4810.7	
270.37	3878.2	
270.58	4555.4	
270.79	5253	
271	5968.5	
271.21	4214.7	
271.42	3988.1	
271.63	5570.5	
271.84	5103.5	
272.05	3172.3	
272.26	3528.7	
272.47	5427.8	
272.68	5655.8	
272.89	3779.2	
273.11	4356.7	
273.32	5241.4	
273.53	6403.3	
273.74	4233.2	
273.95	4120.5	
274.16	6027.2	
274.37	5556.8	
274.58	4333.5	
274.79	3443.3	
275	5613.5	
275.21	6163.7	
275.42	5133.6	
275.63	4394.9	
275.84	5695.4	
276.05	7176.8	
276.26	4146.5	
276.47	3830.4	
276.68	5266	
276.89	6466.1	
277.1	4410	
277.31	3453.6	
277.52	5713.8	
277.73	5923.4	
277.94	3405.8	
278.15	3803.1	
278.36	5634	
278.57	5102.9	
278.78	3743.7	
278.99	4271.4	
279.2	5063.9	
279.41	5036	
279.62	4946.5	
279.83	3504.1	
280.04	6690.7	
280.25	5042.1	
280.46	4941.1	
280.67	3866.6	
280.88	5094.7	
281.09	6122.1	
281.3	4124.6	
281.51	5298.8	
281.72	5221	
281.93	5963	
282.14	3663.1	
282.35	3897.3	
282.56	5929.6	
282.77	5933.6	
282.98	3789.4	
283.19	4610	
283.4	7323.5	
283.61	5395.7	
283.82	3427.6	
284.03	4870.1	
284.24	5569.1	
284.45	6098.2	
284.66	4899.4	
284.87	4696	
285.08	6053.8	
285.29	6223.8	
285.5	3386	
285.71	3848.1	
285.92	6140.5	
286.12	6771.3	
286.33	4861.9	
286.54	3799.7	
286.75	5948.7	
286.96	5330.9	
287.17	3507.5	
287.38	4818.2	
287.59	5106.3	
287.8	4969.7	
288.01	3833.8	
288.22	4495.3	
288.43	5952.1	
288.64	4922	
288.85	4593.6	
289.06	4361.5	
289.27	6298.2	
289.48	6422.4	
289.69	4902.8	
289.9	4452.3	
290.11	6108.4	
290.32	5123.3	
290.53	4642.7	
290.74	4265.2	
290.94	5894.7	
291.15	5933	
291.36	3683.6	
291.57	4347.2	
291.78	5162.2	
291.99	4885.1	
292.2	3514.3	
292.41	4283	
292.62	6005.3	
292.83	5801.9	
293.04	5277.6	
293.25	3599	
293.46	5253	
293.67	6063.4	
293.88	3721.8	
294.09	3553.9	
294.29	5012.1	
294.5	5623	
294.71	3969.6	
294.92	3751.2	
295.13	5239.4	
295.34	6554.2	
295.55	3308.2	
295.76	3395.5	
295.97	5878.4	
296.18	6645.7	
296.39	3498.6	
296.6	3703.4	
296.81	5511.8	
297.01	5860.6	
297.22	3852.9	
297.43	3641.3	
297.64	5087.8	
297.85	5072.8	
298.06	3051.5	
298.27	3298.6	
298.48	5528.2	
298.69	5173.2	
298.9	3973.1	
299.11	3640.6	
299.31	4956.1	
299.52	4977.2	
299.73	4346.5	
299.94	4154.6	
300.15	5449	
300.36	5055.1	
300.57	4208.6	
300.78	4152.6	
300.99	5372.5	
301.2	5552	
301.4	3683.6	
301.61	4007.2	
301.82	5777.3	
302.03	5916.6	
302.24	4532.8	
302.45	3502	
302.66	5728.2	
302.87	6260.6	
303.08	3714.3	
303.29	5068	
303.49	5213.4	
303.7	5487.9	
303.91	3273.3	
304.12	4856.4	
304.33	4953.4	
304.54	5558.9	
304.75	3730.7	
304.96	3521.8	
305.16	5753.4	
305.37	6602	
305.58	3212.6	
305.79	3327.9	
306	5759.6	
306.21	4870.1	
306.42	3659.7	
306.63	5681.7	
306.83	5331.5	
307.04	6022.4	
307.25	4059.1	
307.46	4068.6	
307.67	4716.5	
307.88	5892	
308.09	3663.8	
308.29	3801	
308.5	5558.2	
308.71	6048.3	
308.92	3926	
309.13	3593.5	
309.34	5304.9	
309.55	5405.3	
309.75	4581.3	
309.96	4237.2	
310.17	5872.9	
310.38	5120.6	
310.59	4436.6	
310.8	3428.3	
311.01	5264	
311.21	5328.1	
311.42	3478.8	
311.63	3672.7	
311.84	5197.1	
312.05	5562.3	
312.26	4095.9	
312.46	4478.2	
312.67	5288.5	
312.88	5021.6	
313.09	3550.5	
313.3	3457	
313.51	6280.4	
313.71	6690	
313.92	3532.7	
314.13	3741	
314.34	5680.4	
314.55	5389.6	
314.76	4571.7	
314.96	3986	
315.17	5520	
315.38	5896.1	
315.59	3593.5	
315.8	3418.1	
316.01	6364.4	
316.21	6382.8	
316.42	3377.1	
316.63	3966.2	
316.84	5346.6	
317.05	6169.2	
317.26	4180.6	
317.46	3788.7	
317.67	5372.5	
317.88	5890.6	
318.09	4517.1	
318.3	3325.9	
318.5	5121.3	
318.71	5808.7	
318.92	5769.1	
319.13	4224.3	
319.34	5950.7	
319.54	6078.4	
319.75	3338.2	
319.96	3190.1	
320.17	5844.2	
320.38	6038.8	
320.58	3236.5	
320.79	3865.9	
321	6036.7	
321.21	6264.7	
321.42	3948.5	
321.62	3220.1	
321.83	5094.7	
322.04	5513.1	
322.25	3715	
322.46	3596.9	
322.66	5598.5	
322.87	5726.1	
323.08	4436.6	
323.29	3575.1	
323.5	6602	
323.7	4985.4	
323.91	4859.8	
324.12	4440	
324.33	5510.4	
324.53	5764.3	
324.74	4239.3	
324.95	4395.6	
325.16	4831.8	
325.37	5292	
325.57	3611.3	
325.78	3623.5	
325.99	5545.9	
326.2	4982	
326.4	5072.8	
326.61	3295.2	
326.82	5411.4	
327.03	5586.9	
327.24	5061.2	
327.44	4790.9	
327.65	5766.4	
327.86	4604.5	
328.07	4167.6	
328.27	3431.7	
328.48	6187.6	
328.69	5030.5	
328.9	5194.3	
329.1	3855	
329.31	5332.2	
329.52	6344.6	
329.73	3568.2	
329.93	4052.2	
330.14	5464.7	
330.35	5717.2	
330.56	5932.3	
330.76	4467.3	
330.97	5290.6	
331.18	5696.1	
331.39	3997	
331.59	3254.2	
331.8	6079.7	
332.01	6212.9	
332.22	3656.3	
332.42	4258.4	
332.63	5558.9	
332.84	5153.4	
333.05	4006.5	
333.25	3663.1	
333.46	5198.4	
333.67	5489.2	
333.88	3713.6	
334.08	4162.8	
334.29	7317.4	
334.5	6135	
334.7	3518.4	
334.91	5162.9	
335.12	4995.7	
335.33	5926.1	
335.53	3964.9	
335.74	5850.4	
335.95	5283.8	
336.16	5081	
336.36	3931.4	
336.57	4564.9	
336.78	4951.3	
336.98	6092	
337.19	4881	
337.4	3866.6	
337.61	6612.2	
337.81	5023	
338.02	3632.4	
338.23	4696	
338.43	6227.9	
338.64	5093.3	
338.85	3591.5	
339.05	4723.3	
339.26	6343.2	
339.47	4887.8	
339.68	3560.7	
339.88	5320.6	
340.09	5737	
340.3	5916.6	
340.5	4165.6	
340.71	3246.7	
340.92	4941.1	
341.13	6237.4	
341.33	3459	
341.54	4253.6	
341.75	5679.7	
341.95	5352	
342.16	4042	
342.37	4338.3	
342.57	5009.3	
342.78	5446.2	
342.99	4539.7	
343.19	3235.1	
343.4	5912.5	
343.61	5689.9	
343.81	3801	
344.02	3508.9	
344.23	5950	
344.43	6292.7	
344.64	4472.8	
344.85	4363.5	
345.06	5730.9	
345.26	6128.2	
345.47	4165.6	
345.68	4849.6	
345.88	4810	
346.09	5941.8	
346.3	4233.8	
346.5	3248.1	
346.71	5466	
346.92	5182.7	
347.12	3291.1	
347.33	4148.5	
347.54	6083.8	
347.74	6466.8	
347.95	4128	
348.16	3034.4	
348.36	5297.4	
348.57	4955.4	
348.78	4121.9	
348.98	4458.4	
349.19	5403.9	
349.39	4932.2	
349.6	3291.1	
349.81	3686.3	
350.01	5702.2	
350.22	5170.4	
350.43	3930.7	
350.63	4836.6	
350.84	5541.1	
351.05	5272.8	
351.25	3616	
351.46	3290.4	
351.67	6089.3	
351.87	5182.7	
352.08	3858.4	
352.29	4418.2	
352.49	5924.1	
352.7	6090.7	
352.9	3485	
353.11	4364.9	
353.32	6669.6	
353.52	5278.3	
353.73	3493.8	
353.94	4416.1	
354.14	5779.4	
354.35	5614.2	
354.55	3594.9	
354.76	4026.3	
354.97	5755.5	
355.17	5529.5	
355.38	3407.1	
355.59	4715.8	
355.79	5135.6	
356	5586.9	
356.2	3942.3	
356.41	3459.7	
356.62	4889.2	
356.82	5390.9	
357.03	4298.7	
357.24	3791.5	
357.44	5238.7	
357.65	5311.1	
357.85	5098.1	
358.06	3975.1	
358.27	4942.4	
358.47	5181.4	
358.68	3349.1	
358.88	4275.5	
359.09	5736.4	
359.3	6118	
359.5	4977.2	
359.71	4390.8	
359.91	6602.7	
360.12	5917.3	
360.33	4173.8	
360.53	4721.3	
360.74	5238.7	
360.94	5240.1	
361.15	4478.9	
361.36	3663.1	
361.56	5978	
361.77	5421.7	
361.97	4999.8	
362.18	3977.8	
362.38	6051.1	
362.59	5018.9	
362.8	3609.9	
363	3491.1	
363.21	4891.9	
363.41	5542.5	
363.62	4142.4	
363.83	5184.1	
364.03	5612.1	
364.24	6686.6	
364.44	5205.9	
364.65	5221	
364.85	5395.7	
365.06	5042.1	
365.27	3818.1	
365.47	3799	
365.68	6343.2	
365.88	5380.7	
366.09	4182.6	
366.29	3907.5	
366.5	5648.3	
366.71	6120	
366.91	5201.2	
367.12	4332.8	
367.32	6699.6	
367.53	5919.3	
367.73	4323.3	
367.94	5250.3	
368.14	5826.5	
368.35	6759	
368.56	4303.5	
368.76	3622.2	
368.97	5964.4	
369.17	7773.4	
369.38	3732.1	
369.58	4080.2	
369.79	5018.9	
369.99	6294.8	
370.2	5096	
370.4	4136.2	
370.61	5695.4	
370.82	6861.4	
371.02	4020.8	
371.23	3377.1	
371.43	4931.5	
371.64	6350.8	
371.84	4080.9	
372.05	5307	
372.25	7602.7	
372.46	6056.5	
372.66	4093.9	
372.87	4034.5	
373.07	6080.4	
373.28	7675.1	
373.48	5070.1	
373.69	4777.9	
373.9	5477.6	
374.1	5578.7	
374.31	5100.8	
374.51	4612	
374.72	6412.2	
374.92	5269.4	
375.13	5235.3	
375.33	4412	
375.54	5933	
375.74	5415.5	
375.95	4432.5	
376.15	5753.4	
376.36	5958.9	
376.56	5813.5	
376.77	4513.7	
376.97	4995.7	
377.18	6991.1	
377.38	6047	
377.59	5340.4	
377.79	4050.9	
378	5883.8	
378.2	6256.5	
378.41	4112.3	
378.61	4047.5	
378.82	6339.1	
379.02	5415.5	
379.23	4225	
379.43	5438	
379.64	6413.6	
379.84	5995.1	
380.05	4099.4	
380.25	3993.5	
380.46	6096.1	
380.66	5655.8	
380.87	5421	
381.07	5827.8	
381.28	6832.7	
381.48	6167.1	
381.69	4113.7	
381.89	4138.9	
382.1	5069.4	
382.3	6331	
382.51	5156.8	
382.71	6165.8	
382.91	6113.2	
383.12	6675.7	
383.32	4462.5	
383.53	4644.1	
383.73	5938.4	
383.94	5743.2	
384.14	4541	
384.35	3712.3	
384.55	5649	
384.76	6128.2	
384.96	4443.4	
385.17	4754.7	
385.37	6069.5	
385.58	5358.9	
385.78	4791.6	
385.98	3698.6	
386.19	5585.5	
386.39	5968.5	
386.6	4232.5	
386.8	4449.6	
387.01	6085.2	
387.21	6137.1	
387.42	4908.3	
387.62	5501.5	
387.83	5433.9	
388.03	6071.5	
388.23	4506.2	
388.44	5383.4	
388.64	5137.7	
388.85	5335.6	
389.05	4857.1	
389.26	5554.8	
389.46	7183.6	
389.67	6561.7	
389.87	4837.3	
390.07	5014.8	
390.28	5745.2	
390.48	5367	
390.69	4091.2	
390.89	4334.9	
391.1	5560.2	
391.3	6481.8	
391.5	5617.6	
391.71	6221.7	
391.91	6237.4	
392.12	7300.3	
392.32	5666	
392.53	4881	
392.73	5588.2	
392.93	5816.9	
393.14	4541.7	
393.34	5292.6	
393.55	6332.3	
393.75	5786.2	
393.95	4569.7	
394.16	4530.1	
394.36	5552	
394.57	6204.7	
394.77	4012.7	
394.98	4461.2	
395.18	5471.5	
395.38	5758.2	
395.59	5418.2	
395.79	4342.4	
396	5600.5	
396.2	6141.2	
396.4	5173.2	
396.61	5011.4	
396.81	6316.6	
397.02	5586.9	
397.22	5406	
397.42	5487.2	
397.63	6341.9	
397.83	5492	
398.04	4243.4	
398.24	4758.1	
398.44	6115.9	
398.65	5196.4	
398.85	4118.5	
399.05	4262.5	
399.26	5464	
399.46	7277.8	
399.67	4625.7	
399.87	4324.6	
400.07	5910.4	
400.28	6249.7	
400.48	4479.6	
400.69	5494.7	
400.89	6448.4	
401.09	6922.1	
401.3	4367	
401.5	5486.5	
401.7	7208.2	
401.91	7413.6	
402.11	4712.4	
402.32	4876.2	
402.52	6370.5	
402.72	6367.1	
402.93	5038	
403.13	3818.1	
403.33	7112.6	
403.54	5878.4	
403.74	4735.6	
403.94	5638.1	
404.15	5988.3	
404.35	7154.2	
404.56	4618.2	
404.76	6464.1	
404.96	6439.5	
405.17	6281.8	
405.37	6007.4	
405.57	5115.1	
405.78	6574	
405.98	5909.8	
406.18	4577.2	
406.39	5488.6	
406.59	6336.4	
406.79	6071.5	
407	4343.1	
407.2	4431.8	
407.4	6437.4	
407.61	6714.6	
407.81	4578.6	
408.01	6613.6	
408.22	5583.4	
408.42	7653.9	
408.62	5701.5	
408.83	5201.8	
409.03	6164.4	
409.23	6017.6	
409.44	5236.7	
409.64	5543.9	
409.84	7154.2	
410.05	6941.9	
410.25	5379.3	
410.45	5059.2	
410.66	6494.8	
410.86	8976.2	
411.06	5537.7	
411.27	5368.4	
411.47	8790.6	
411.67	6684.6	
411.88	5692	
412.08	5976.7	
412.28	7290.8	
412.49	7832.1	
412.69	5441.5	
412.89	5355.4	
413.09	7637.6	
413.3	7470.3	
413.5	5492.7	
413.7	5143.1	
413.91	6715.3	
414.11	7630.7	
414.31	5298.8	
414.52	5784.8	
414.72	7296.9	
414.92	7165.2	
415.12	5359.5	
415.33	5910.4	
415.53	7522.2	
415.73	7791.8	
415.94	6216.3	
416.14	5670.1	
416.34	6516	
416.55	6265.4	
416.75	6873.7	
416.95	6309.8	
417.15	7597.3	
417.36	8312	
417.56	7079.8	
417.76	6133.7	
417.97	7968	
418.17	7662.8	
418.37	5644.9	
418.57	5831.2	
418.78	7346.7	
418.98	7073	
419.18	6640.2	
419.38	6560.3	
419.59	7085.3	
419.79	6618.4	
419.99	5638.1	
420.2	6040.1	
420.4	7548.8	
420.6	7841	
420.8	5552.7	
421.01	5429.2	
421.21	7397.3	
421.41	7649.8	
421.61	5865.4	
421.82	5598.5	
422.02	6860.7	
422.22	7848.5	
422.42	6482.5	
422.63	6100.2	
422.83	7037.5	
423.03	8219.9	
423.23	6008.1	
423.44	5055.1	
423.64	7120.8	
423.84	6800.6	
424.04	5567.7	
424.25	5198.4	
424.45	8060.8	
424.65	7933.1	
424.85	4954.7	
425.06	5623	
425.26	7994.6	
425.46	6969.2	
425.66	6082.5	
425.87	5709.7	
426.07	7740	
426.27	7615.7	
426.47	5926.1	
426.67	5246.2	
426.88	8104.5	
427.08	7443.7	
427.28	6172.6	
427.48	5146.5	
427.69	6449.1	
427.89	7092.8	
428.09	6042.2	
428.29	5259.9	
428.5	7805.5	
428.7	7263.5	
428.9	5093.3	
429.1	5781.4	
429.3	7131.7	
429.51	7713.3	
429.71	5382.7	
429.91	6279.1	
430.11	7580.9	
430.31	7731.1	
430.52	5692.7	
430.72	6036.7	
430.92	8087.4	
431.12	7559.7	
431.32	5408.7	
431.53	5816.2	
431.73	6431.3	
431.93	8171.4	
432.13	5365.7	
432.33	5185.5	
432.54	6853.9	
432.74	7336.5	
432.94	5139	
433.14	6234	
433.34	7433.4	
433.55	6942.6	
433.75	6131.6	
433.95	8039.6	
434.15	7244.3	
434.35	6963.1	
434.56	5468.1	
434.76	4881.7	
434.96	7246.4	
435.16	7547.4	
435.36	5230.5	
435.56	6399.2	
435.77	6881.9	
435.97	7137.9	
436.17	7114	
436.37	6433.4	
436.57	6846.4	
436.78	6785.6	
436.98	8017.1	
437.18	6936.5	
437.38	7619.8	
437.58	7079.1	
437.78	7114	
437.99	5670.1	
438.19	7548.1	
438.39	9103.9	
438.59	5502.2	
438.79	5051.7	
438.99	8328.4	
439.2	7012.9	
439.4	5232.6	
439.6	5314.5	
439.8	7487.4	
440	8530.5	
440.2	6371.9	
440.4	6461.3	
440.61	7892.2	
440.81	8503.8	
441.01	5464	
441.21	6445.6	
441.41	8289.5	
441.61	7868.3	
441.81	6655.9	
442.02	7735.9	
442.22	8712.1	
442.42	7913.4	
442.62	5507.7	
442.82	5543.9	
443.02	8247.9	
443.22	7372	
443.43	5995.1	
443.63	5586.2	
443.83	7163.1	
444.03	7235.5	
444.23	6899.6	
444.43	6384.9	
444.63	7571.3	
444.83	8815.8	
445.04	5628.5	
445.24	6941.9	
445.44	7895.6	
445.64	7927.7	
445.84	6455.9	
446.04	6474.3	
446.24	7168.6	
446.44	8208.9	
446.65	5634	
446.85	6038.1	
447.05	7260.7	
447.25	8142	
447.45	6206	
447.65	5474.9	
447.85	7430.7	
448.05	7140.6	
448.25	6510.5	
448.46	6313.9	
448.66	7525.6	
448.86	7260.7	
449.06	5407.3	
449.26	6565.1	
449.46	7945.4	
449.66	6920.1	
449.86	6030.6	
450.06	6116.6	
450.26	7107.1	
450.47	7701.7	
450.67	6331	
450.87	6705.7	
451.07	7806.2	
451.27	7559.7	
451.47	5609.4	
451.67	6214.2	
451.87	7262.8	
452.07	8417.8	
452.27	5821.7	
452.47	5844.2	
452.67	7586.4	
452.88	8198.7	
453.08	5150.6	
453.28	7266.9	
453.48	8701.8	
453.68	7511.9	
453.88	5773.2	
454.08	5997.8	
454.28	7897.7	
454.48	7572	
454.68	6513.2	
454.88	7236.2	
455.08	7996	
455.28	7830.7	
455.48	5628.5	
455.68	6251.8	
455.89	8509.3	
456.09	8150.2	
456.29	6051.1	
456.49	6069.5	
456.69	8413.7	
456.89	7553.6	
457.09	6630.6	
457.29	6936.5	
457.49	8045.1	
457.69	8132.5	
457.89	6457.9	
458.09	5796.4	
458.29	7759.1	
458.49	8507.3	
458.69	6805.4	
458.89	6238.1	
459.09	8781	
459.29	8884.8	
459.49	6352.1	
459.69	7146	
459.9	8258.1	
460.1	7764.5	
460.3	6170.5	
460.5	6023.8	
460.7	8294.3	
460.9	7937.9	
461.1	5747.3	
461.3	7126.9	
461.5	8919.6	
461.7	8504.5	
461.9	6185.5	
462.1	6548.7	
462.3	8072.4	
462.5	8619.2	
462.7	6162.3	
462.9	6337.8	
463.1	9699.2	
463.3	9327.1	
463.5	6503.7	
463.7	7511.3	
463.9	8260.8	
464.1	8614.4	
464.3	6602.7	
464.5	6947.4	
464.7	8969.4	
464.9	8495.7	
465.1	8174.1	
465.3	7217	
465.5	9211.1	
465.7	9146.2	
465.9	7531.7	
466.1	7268.9	
466.3	8994	
466.5	8829.5	
466.7	8229.4	
466.9	7021.1	
467.1	8823.3	
467.3	9805	
467.5	8221.2	
467.7	7083.2	
467.9	9987.3	
468.1	10935	
468.3	7834.2	
468.5	8307.9	
468.7	8838.4	
468.9	8793.3	
469.1	7303.1	
469.3	8035.5	
469.5	10825	
469.7	8303.1	
469.9	7729.7	
470.1	7073.7	
470.3	8785.8	
470.5	8731.2	
470.7	8406.2	
470.9	7135.1	
471.1	8468.4	
471.3	8945.5	
471.5	6911.2	
471.69	8937.3	
471.89	8328.4	
472.09	7894.2	
472.29	7752.9	
472.49	8181	
472.69	8159.1	
472.89	8846.5	
473.09	6785.6	
473.29	6997.2	
473.49	8163.9	
473.69	8462.9	
473.89	7989.1	
474.09	7131	
474.29	9779.1	
474.49	9450	
474.69	7942.7	
474.89	7335.1	
475.09	8424.7	
475.29	8385.7	
475.49	6637.5	
475.69	6939.9	
475.88	10109	
476.08	8718.2	
476.28	6570.6	
476.48	7092.1	
476.68	9181	
476.88	9002.2	
477.08	6940.6	
477.28	7143.3	
477.48	8557.1	
477.68	9096.4	
477.88	6688	
478.08	7040.2	
478.28	9469.8	
478.48	8706.6	
478.67	7098.9	
478.87	6494.8	
479.07	9345.6	
479.27	8740	
479.47	7271	
479.67	7284.6	
479.87	9181	
480.07	9725.8	
480.27	6593.8	
480.47	8228.1	
480.67	8850.6	
480.87	9430.2	
481.06	6773.3	
481.26	7772	
481.46	8705.9	
481.66	8750.3	
481.86	7278.5	
482.06	8417.2	
482.26	8402.8	
482.46	9393.3	
482.66	7323.5	
482.86	6765.1	
483.05	8830.8	
483.25	8221.2	
483.45	9779.1	
483.65	7247.8	
483.85	8455.4	
484.05	8798.1	
484.25	7711.3	
484.45	8270.4	
484.65	9557.9	
484.84	9575.6	
485.04	7159.7	
485.24	7131.7	
485.44	9853.5	
485.64	8125	
485.84	6552.8	
486.04	7900.4	
486.24	8488.1	
486.44	8867.7	
486.63	6394.4	
486.83	7277.1	
487.03	8422.6	
487.23	8725	
487.43	6556.2	
487.63	9007	
487.83	8734.6	
488.02	9771.5	
488.22	7578.8	
488.42	8350.9	
488.62	9653.4	
488.82	8608.3	
489.02	7253.9	
489.22	7217	
489.41	9491.7	
489.61	9142.1	
489.81	6898.2	
490.01	6959	
490.21	9364	
490.41	9972.2	
490.61	6762.4	
490.8	6974	
491	8856.1	
491.2	8123.6	
491.4	7596.6	
491.6	6746	
491.8	8770.8	
491.99	9030.2	
492.19	6583.5	
492.39	7021.1	
492.59	9525.1	
492.79	9596.1	
492.99	7975.5	
493.18	7045.7	
493.38	9631.6	
493.58	10389	
493.78	7834.8	
493.98	7348.1	
494.18	9308	
494.37	8795.3	
494.57	8088.1	
494.77	7919.5	
494.97	9569.5	
495.17	9917.6	
495.37	7428.7	
495.56	7714.7	
495.76	9979.1	
495.96	9669.1	
496.16	8686.1	
496.36	7604.8	
496.55	9725.8	
496.75	9333.3	
496.95	7992.5	
497.15	7864.2	
497.35	9685.5	
497.54	9678.7	
497.74	7597.3	
497.94	9446.6	
498.14	10370	
498.34	10343	
498.53	7406.8	
498.73	8114.1	
498.93	9111.4	
499.13	9766.8	
499.33	8020.5	
499.52	8463.6	
499.72	9700.5	
499.92	9951.1	
500.12	7719.5	
500.32	7899	
500.51	9957.9	
500.71	9807.7	
500.91	8680	
501.11	8249.9	
501.31	9940.8	
501.5	10359	
501.7	8963.3	
501.9	7965.2	
502.1	9710.8	
502.29	10092	
502.49	8402.8	
502.69	8781.7	
502.89	9828.2	
503.09	9830.9	
503.28	7334.5	
503.48	7429.3	
503.68	8963.3	
503.88	9106.6	
504.07	8490.9	
504.27	7969.3	
504.47	9499.2	
504.67	9641.2	
504.86	8374.1	
505.06	7996	
505.26	9051.3	
505.46	10932	
505.65	7942.7	
505.85	8123.6	
506.05	9024	
506.25	9517.6	
506.44	7225.2	
506.64	8167.3	
506.84	8916.2	
507.04	9932.6	
507.23	7523.6	
507.43	8015.1	
507.63	10910	
507.83	9197.4	
508.02	7956.4	
508.22	7523.6	
508.42	11196	
508.62	8980.3	
508.81	8243.1	
509.01	8464.9	
509.21	8855.4	
509.4	9132.6	
509.6	8137.9	
509.8	7544.7	
510	9127.1	
510.19	10610	
510.39	7473.7	
510.59	7534.5	
510.79	8847.2	
510.98	10303	
511.18	7529.7	
511.38	7710.6	
511.57	9667.8	
511.77	9609.1	
511.97	8320.9	
512.17	7269.6	
512.36	9738.1	
512.56	9624.8	
512.76	7298.3	
512.95	7140.6	
513.15	9821.4	
513.35	8475.2	
513.55	8304.5	
513.74	7474.4	
513.94	9792	
514.14	9188.6	
514.33	8367.3	
514.53	8193.2	
514.73	9069.8	
514.92	9305.3	
515.12	7668.3	
515.32	7413.6	
515.51	9378.3	
515.71	9950.4	
515.91	9156.5	
516.11	7462.1	
516.3	11151	
516.5	9078	
516.7	8015.7	
516.89	8642.4	
517.09	9024	
517.29	9060.9	
517.48	8406.9	
517.68	7760.4	
517.88	8762.6	
518.07	9470.5	
518.27	8267.6	
518.47	7300.3	
518.66	10111	
518.86	8552.3	
519.06	7061.4	
519.25	7675.8	
519.45	8950.3	
519.65	10490	
519.84	8211	
520.04	8973.5	
520.24	10894	
520.43	9590	
520.63	7881.9	
520.83	7606.2	
521.02	8760.5	
521.22	9373.6	
521.42	8147.5	
521.61	8802.2	
521.81	9019.9	
522.01	9265	
522.2	8043.7	
522.4	7901.7	
522.6	9731.3	
522.79	8555	
522.99	7968.6	
523.18	7307.8	
523.38	9514.2	
523.58	9548.3	
523.77	9278	
523.97	7342	
524.17	11456	
524.36	10595	
524.56	8749.6	
524.76	8286.1	
524.95	9514.9	
525.15	9264.3	
525.34	8114.7	
525.54	8129.8	
525.74	9911.5	
525.93	8858.8	
526.13	9215.9	
526.33	8009.6	
526.52	10264	
526.72	9657.5	
526.91	9361.9	
527.11	8568.7	
527.31	10329	
527.5	10812	
527.7	8449.9	
527.89	7462.1	
528.09	9159.2	
528.29	9947.7	
528.48	8897.1	
528.68	8642.4	
528.87	10225	
529.07	10284	
529.27	8356.4	
529.46	7828.7	
529.66	9729.2	
529.85	10094	
530.05	7600.7	
530.25	8458.8	
530.44	11123	
530.64	9663	
530.83	8073.8	
531.03	8534.6	
531.23	10109	
531.42	10109	
531.62	9221.3	
531.81	8444.5	
532.01	10335	
532.21	11019	
532.4	8163.2	
532.6	8609	
532.79	11250	
532.99	10529	
533.18	8644.5	
533.38	9611.8	
533.58	9966.1	
533.77	10692	
533.97	8567.3	
534.16	9450	
534.36	10972	
534.55	10039	
534.75	9560.6	
534.95	8632.2	
535.14	10742	
535.34	9913.5	
535.53	8123.6	
535.73	10256	
535.92	11269	
536.12	10147	
536.31	8306.6	
536.51	9542.9	
536.71	10396	
536.9	10004	
537.1	8465.6	
537.29	8651.3	
537.49	10872	
537.68	10040	
537.88	9071.1	
538.07	8231.5	
538.27	10152	
538.46	11288	
538.66	8244.4	
538.86	8686.1	
539.05	10183	
539.25	10653	
539.44	8963.3	
539.64	8472.4	
539.83	10041	
540.03	11047	
540.22	8279.9	
540.42	8360.5	
540.61	10258	
540.81	10432	
541	8959.9	
541.2	9652.1	
541.39	9787.9	
541.59	10175	
541.78	9204.9	
541.98	8314.8	
542.18	9412.5	
542.37	9319.6	
542.57	8656.8	
542.76	9127.1	
542.96	9440.5	
543.15	10135	
543.35	8691.6	
543.54	7929.1	
543.74	10434	
543.93	9923.1	
544.13	8630.8	
544.32	9740.8	
544.52	10342	
544.71	9528.5	
544.91	7699.7	
545.1	9021.3	
545.3	9622	
545.49	10256	
545.69	7613.7	
545.88	8231.5	
546.08	11158	
546.27	10771	
546.47	8888.2	
546.66	8099.7	
546.86	10484	
547.05	11094	
547.24	8261.5	
547.44	8141.4	
547.63	9398.8	
547.83	10520	
548.02	8536.6	
548.22	8749.6	
548.41	9231.6	
548.61	10520	
548.8	8060.8	
549	7980.3	
549.19	9808.4	
549.39	10185	
549.58	7652.6	
549.78	8345.5	
549.97	10183	
550.17	9647.3	
550.36	9927.9	
550.55	10228	
550.75	9668.5	
550.94	10626	
551.14	7887.4	
551.33	8234.2	
551.53	9057.5	
551.72	10196	
551.92	8358.4	
552.11	8088.8	
552.31	10081	
552.5	10006	
552.69	9843.9	
552.89	7692.2	
553.08	10017	
553.28	9766.8	
553.47	8079.2	
553.67	9357.2	
553.86	10772	
554.06	8976.9	
554.25	7272.3	
554.44	7881.9	
554.64	11497	
554.83	10939	
555.03	7729	
555.22	8221.2	
555.42	10210	
555.61	9879.4	
555.8	8064.9	
556	8262.2	
556.19	9060.2	
556.39	10322	
556.58	8090.8	
556.78	8082.6	
556.97	9814.5	
557.16	9538.1	
557.36	9301.2	
557.55	7686.7	
557.75	8679.3	
557.94	10559	
558.13	7764.5	
558.33	7535.2	
558.52	10324	
558.72	9190.6	
558.91	7712	
559.1	7910.6	
559.3	8847.9	
559.49	8535.9	
559.69	7131	
559.88	8362.5	
560.07	9695.8	
560.27	10129	
560.46	8414.4	
560.66	8540	
560.85	9523.1	
561.04	8662.2	
561.24	7727.7	
561.43	7780.9	
561.63	8915.5	
561.82	9254.1	
562.01	9114.8	
562.21	8075.1	
562.4	9614.5	
562.59	10742	
562.79	7996	
562.98	7621.2	
563.18	9573.6	
563.37	11188	
563.56	8469.7	
563.76	7555	
563.95	9021.3	
564.14	8990.6	
564.34	7854	
564.53	7739.3	
564.73	9643.2	
564.92	10008	
565.11	8108.6	
565.31	7458.7	
565.5	10204	
565.69	9145.5	
565.89	7764.5	
566.08	8004.1	
566.27	10086	
566.47	10434	
566.66	8682	
566.85	7314	
567.05	9529.9	
567.24	9032.2	
567.44	7651.9	
567.63	9000.1	
567.82	9860.3	
568.02	9648	
568.21	7652.6	
568.4	8008.2	
568.6	9542.9	
568.79	9643.2	
568.98	7450.5	
569.18	7570	
569.37	9544.9	
569.56	11561	
569.76	8015.7	
569.95	8987.2	
570.14	9867.1	
570.34	9615.2	
570.53	7376.8	
570.72	7430.7	
570.91	10319	
571.11	9371.5	
571.3	8028.7	
571.49	8866.3	
571.69	9450.7	
571.88	8920.3	
572.07	8490.2	
572.27	8517.5	
572.46	8963.3	
572.65	9994.8	
572.85	7743.4	
573.04	8051.9	
573.23	10329	
573.43	9588.6	
573.62	7535.2	
573.81	8162.5	
574	9714.2	
574.2	9407	
574.39	7917.4	
574.58	8028	
574.78	10414	
574.97	9740.1	
575.16	8455.4	
575.36	8633.6	
575.55	10112	
575.74	10228	
575.93	7485.3	
576.13	8598.7	
576.32	9424.8	
576.51	10038	
576.71	7819.8	
576.9	9358.5	
577.09	10421	
577.28	9874.6	
577.48	8481.3	
577.67	7348.1	
577.86	9513.5	
578.05	9844.6	
578.25	8039.6	
578.44	8170	
578.63	9556.5	
578.83	10788	
579.02	7407.5	
579.21	9058.8	
579.4	9805.7	
579.6	9453.4	
579.79	8275.8	
579.98	10568	
580.17	10178	
580.37	10311	
580.56	7742	
580.75	8484.1	
580.94	10707	
581.14	10503	
581.33	8986.5	
581.52	7894.9	
581.71	10078	
581.91	10731	
582.1	7533.8	
582.29	8159.1	
582.48	9697.1	
582.68	9608.4	
582.87	8654	
583.06	8265.6	
583.25	9929.2	
583.45	9318.3	
583.64	9015.2	
583.83	9740.1	
584.02	9479.4	
584.21	9951.8	
584.41	8940.1	
584.6	8098.4	
584.79	9702.6	
584.98	10513	
585.18	7616.4	
585.37	7659.4	
585.56	9282.1	
585.75	10051	
585.94	7771.4	
586.14	8503.8	
586.33	10626	
586.52	9611.1	
586.71	8244.4	
586.91	7977.5	
587.1	8905.3	
587.29	10022	
587.48	7998.7	
587.67	7821.2	
587.87	9853.5	
588.06	9895.1	
588.25	9101.2	
588.44	8462.9	
588.63	9456.2	
588.83	10033	
589.02	7690.1	
589.21	7660.8	
589.4	9146.9	
589.59	8861.6	
589.78	6751.5	
589.98	6894.1	
590.17	8465.6	
590.36	9002.9	
590.55	6335.7	
590.74	7395.2	
590.94	10518	
591.13	9095	
591.32	7123.5	
591.51	6697.5	
591.7	9584.5	
591.89	9045.2	
592.09	6895.5	
592.28	7344	
592.47	8230.1	
592.66	10144	
592.85	6787	
593.05	7027.3	
593.24	8841.8	
593.43	9646.6	
593.62	7159	
593.81	7684.7	
594	8910.7	
594.19	9084.8	
594.39	7034.8	
594.58	6897.6	
594.77	9207.7	
594.96	9789.3	
595.15	6921.5	
595.34	7571.3	
595.54	9184.5	
595.73	8304.5	
595.92	6284.5	
596.11	7527.7	
596.3	9783.8	
596.49	8383.7	
596.68	7266.9	
596.88	7750.2	
597.07	9507.4	
597.26	8213	
597.45	6733.7	
597.64	8013	
597.83	8494.3	
598.02	9197.4	
598.22	6860	
598.41	7585	
598.6	8908.7	
598.79	8327	
598.98	6916.7	
599.17	7808.2	
599.36	8962.6	
599.55	10208	
599.74	9082.7	
599.94	8736.6	
600.13	9510.1	
600.32	8336.6	
600.51	6680.5	
600.7	6855.9	
600.89	10219	
601.08	10232	
601.27	6639.5	
601.47	7657.4	
601.66	9487.6	
601.85	10171	
602.04	7294.2	
602.23	7610.3	
602.42	8443.8	
602.61	9170.1	
602.8	7235.5	
602.99	7048.4	
603.18	8858.1	
603.37	9138	
603.57	7688.8	
603.76	8256.7	
603.95	9811.1	
604.14	9427.5	
604.33	7072.3	
604.52	7460.8	
604.71	9148.3	
604.9	8722.3	
605.09	8094.9	
605.28	7759.1	
605.47	9721	
605.66	9353.1	
605.86	7665.5	
606.05	7030.7	
606.24	9650	
606.43	8126.3	
606.62	7333.1	
606.81	8272.4	
607	9560.6	
607.19	8725.7	
607.38	6748.7	
607.57	7106.5	
607.76	8559.1	
607.95	8030.8	
608.14	7490.8	
608.33	8059.4	
608.52	8540.7	
608.72	9490.3	
608.91	6664.8	
609.1	6659.3	
609.29	8652	
609.48	8134.5	
609.67	7566.6	
609.86	6664.8	
610.05	8273.8	
610.24	8564.6	
610.43	6438.1	
610.62	6208.8	
610.81	9757.2	
611	9441.1	
611.19	6664.8	
611.38	7385	
611.57	8900.5	
611.76	10260	
611.95	6331	
612.14	6253.8	
612.33	8585.1	
612.52	8138.6	
612.71	7043	
612.9	6138.4	
613.09	7837.6	
613.28	10185	
613.47	6664.8	
613.66	7734.5	
613.85	8763.9	
614.04	8332.5	
614.24	6788.3	
614.43	6001.9	
614.62	8952.4	
614.81	8938.7	
615	7389.8	
615.19	7337.9	
615.38	8134.5	
615.57	8486.1	
615.76	7193.1	
615.95	8245.8	
616.14	8838.4	
616.33	8618.5	
616.52	7464.2	
616.71	7800	
616.9	8917.5	
617.09	8699.1	
617.28	6950.8	
617.47	8147.5	
617.66	7982.3	
617.85	8000	
618.04	7849.2	
618.22	7245.7	
618.41	8359.1	
618.6	9255.5	
618.79	7167.9	
618.98	6824.5	
619.17	9606.3	
619.36	7873.8	
619.55	7069.6	
619.74	7027.3	
619.93	8863.6	
620.12	8287.4	
620.31	7622.5	
620.5	7819.8	
620.69	9427.5	
620.88	9823.4	
621.07	8468.4	
621.26	7408.9	
621.45	9028.1	
621.64	9082.7	
621.83	7618.4	
622.02	6757.6	
622.21	9032.2	
622.4	8779.6	
622.59	8127.7	
622.78	7916.1	
622.97	8428.1	
623.16	9401.5	
623.35	7616.4	
623.54	6609.5	
623.72	8672.5	
623.91	8789.9	
624.1	7742.7	
624.29	6499.6	
624.48	9846	
624.67	9058.2	
624.86	7724.3	
625.05	6735.1	
625.24	9938.8	
625.43	8297.7	
625.62	9433.6	
625.81	6900.3	
626	9428.8	
626.19	8641.7	
626.38	7681.9	
626.56	7144	
626.75	8378.9	
626.94	9215.2	
627.13	7696.9	
627.32	6378.1	
627.51	9004.9	
627.7	10402	
627.89	6478.4	
628.08	7714.7	
628.27	8348.2	
628.46	8537.3	
628.65	6903.7	
628.83	6490	
629.02	9071.8	
629.21	8326.4	
629.4	7357	
629.59	7544.7	
629.78	8331.8	
629.97	9247.3	
630.16	7574.8	
630.35	6946.7	
630.54	9716.2	
630.72	9471.2	
630.91	6934.4	
631.1	7504.4	
631.29	8895	
631.48	9108	
631.67	7589.8	
631.86	7100.3	
632.05	8505.9	
632.24	8563.2	
632.42	6782.2	
632.61	7350.8	
632.8	8646.5	
632.99	8263.6	
633.18	7408.2	
633.37	7757.7	
633.56	8931.2	
633.75	8686.1	
633.93	7382.2	
634.12	7042.3	
634.31	9691	
634.5	9255.5	
634.69	7100.3	
634.88	7528.3	
635.07	8587.1	
635.25	9143.5	
635.44	7966.6	
635.63	8206.2	
635.82	8487.5	
636.01	7892.2	
636.2	7991.9	
636.39	7484.6	
636.57	9710.1	
636.76	9331.2	
636.95	6887.3	
637.14	8343.4	
637.33	8953	
637.52	9921	
637.7	6707.8	
637.89	7675.1	
638.08	8542.1	
638.27	9942.2	
638.46	7797.3	
638.65	8111.3	
638.83	9953.1	
639.02	8286.1	
639.21	7576.1	
639.4	8024.6	
639.59	8751	
639.78	8384.4	
639.96	6808.8	
640.15	6866.8	
640.34	8645.8	
640.53	8868.4	
640.72	6629.3	
640.91	6840.9	
641.09	8137.9	
641.28	9542.9	
641.47	7178.8	
641.66	7792.5	
641.85	8802.2	
642.03	9092.3	
642.22	7579.5	
642.41	7015	
642.6	8183.7	
642.79	7499	
642.97	6700.3	
643.16	7420.5	
643.35	8233.5	
643.54	7905.2	
643.73	6657.9	
643.91	7344	
644.1	7705.8	
644.29	8365.3	
644.48	6605.4	
644.67	6733.7	
644.85	7961.1	
645.04	8218.5	
645.23	6133	
645.42	6513.9	
645.6	7703.8	
645.79	8979	
645.98	6492.7	
646.17	5480.4	
646.36	7479.9	
646.54	8047.2	
646.73	7333.8	
646.92	6108.4	
647.11	7582.9	
647.29	8739.4	
647.48	6184.9	
647.67	5958.9	
647.86	9011.1	
648.05	8976.9	
648.23	6530.3	
648.42	7864.9	
648.61	8476.5	
648.8	8161.2	
648.98	6143.2	
649.17	6516.6	
649.36	7768.6	
649.55	7148.1	
649.73	6234.7	
649.92	6980.2	
650.11	7550.9	
650.3	7955	
650.48	6285.9	
650.67	5905	
650.86	8086.7	
651.05	7143.3	
651.23	6249.7	
651.42	6266.1	
651.61	7607.5	
651.79	7785	
651.98	6468.2	
652.17	6053.8	
652.36	8188.5	
652.54	7114.6	
652.73	6043.6	
652.92	5885.9	
653.11	8103.1	
653.29	8228.7	
653.48	5343.8	
653.67	6378.7	
653.85	7923.6	
654.04	8998.8	
654.23	6569.2	
654.42	6045.6	
654.6	7268.9	
654.79	7976.2	
654.98	5551.4	
655.16	6034	
655.35	6954.2	
655.54	6920.8	
655.73	5694	
655.91	5652.4	
656.1	8202.1	
656.29	6929	
656.47	5203.2	
656.66	6969.9	
656.85	7240.3	
657.03	7343.3	
657.22	5729.5	
657.41	5800.5	
657.59	7292.1	
657.78	7123.5	
657.97	5519.3	
658.16	6226.5	
658.34	8039	
658.53	8388.5	
658.72	7111.2	
658.9	7644.4	
659.09	7319.4	
659.28	7450.5	
659.46	5978.7	
659.65	5867.4	
659.84	7170.6	
660.02	7701	
660.21	5799.8	
660.4	5730.9	
660.58	8183	
660.77	7491.5	
660.96	6326.2	
661.14	5373.9	
661.33	8677.9	
661.52	8490.2	
661.7	5248.9	
661.89	9032.2	
662.08	7132.4	
662.26	6641.6	
662.45	5552.7	
662.64	5750	
662.82	7767.3	
663.01	6972.7	
663.2	5791	
663.38	6591.7	
663.57	7698.3	
663.75	7567.2	
663.94	6112.5	
664.13	7362.4	
664.31	6994.5	
664.5	7804.8	
664.69	6236.7	
664.87	6895.5	
665.06	6803.4	
665.25	7580.2	
665.43	7101.7	
665.62	7178.1	
665.8	7922.9	
665.99	7178.8	
666.18	6053.1	
666.36	6053.1	
666.55	7845.8	
666.74	7776.8	
666.92	5696.8	
667.11	7387.7	
667.29	7199.3	
667.48	7871.7	
667.67	6935.8	
667.85	6040.8	
668.04	7211.6	
668.22	7288	
668.41	6067.4	
668.6	6225.1	
668.78	7034.8	
668.97	7217.7	
669.15	6475.7	
669.34	5365.7	
669.53	7062.1	
669.71	7404.1	
669.9	5556.1	
670.08	6220.4	
670.27	6997.2	
670.46	7565.9	
670.64	6534.4	
670.83	6733	
671.01	6887.3	
671.2	7533.1	
671.38	5672.2	
671.57	5531.6	
671.76	8198	
671.94	8823.3	
672.13	5535	
672.31	6633.4	
672.5	7817.1	
672.69	6999.3	
672.87	5710.4	
673.06	5917.3	
673.24	7586.4	
673.43	7047.7	
673.61	6367.1	
673.8	5993.7	
673.98	7712.7	
674.17	7894.9	
674.36	6522.8	
674.54	6346	
674.73	7438.2	
674.91	7791.8	
675.1	6075	
675.28	5762.3	
675.47	7245	
675.65	7838.3	
675.84	5965.7	
676.03	6247.7	
676.21	7071.6	
676.4	6558.3	
676.58	6726.9	
676.77	6419.7	
676.95	8525.7	
677.14	7006.8	
677.32	5621	
677.51	5390.3	
677.69	7734.5	
677.88	6627.9	
678.06	5468.8	
678.25	5574.6	
678.44	7277.1	
678.62	7021.1	
678.81	5261.2	
678.99	6270.2	
679.18	8114.7	
679.36	7600	
679.55	5862	
679.73	6515.3	
679.92	7595.9	
680.1	6988.4	
680.29	7153.6	
680.47	5928.9	
680.66	6937.8	
680.84	7778.9	
681.03	5128.8	
681.21	6302.3	
681.4	7037.5	
681.58	6845	
681.77	5652.4	
681.95	5593	
682.14	7849.9	
682.32	8189.1	
682.51	6524.8	
682.69	5310.4	
682.88	6827.2	
683.06	7543.4	
683.25	6305	
683.43	6679.1	
683.62	7168.6	
683.8	7636.2	
683.99	6810.9	
684.17	6003.3	
684.36	8447.2	
684.54	7044.3	
684.73	5091.9	
684.91	5334.3	
685.1	7221.1	
685.28	6712.6	
685.46	5893.4	
685.65	6087.9	
685.83	7671	
686.02	7072.3	
686.2	5477.6	
686.39	5720	
686.57	6766.5	
686.76	8342.7	
686.94	5488.6	
687.13	5675.6	
687.31	7477.1	
687.5	7075.7	
687.68	5098.8	
687.86	6461.3	
688.05	8821.3	
688.23	6529.6	
688.42	6491.4	
688.6	5571.8	
688.79	6871.6	
688.97	6964.5	
689.16	6035.4	
689.34	4913.8	
689.52	7735.2	
689.71	7888.1	
689.89	6272.9	
690.08	5532.9	
690.26	7113.3	
690.45	7026.6	
690.63	6467.5	
690.81	5683.8	
691	6849.8	
691.18	6733.7	
691.37	5816.9	
691.55	8019.2	
691.74	6701.6	
691.92	8824.7	
692.1	5808.7	
692.29	5139	
692.47	6991.8	
692.66	6303.6	
692.84	5489.9	
693.02	6085.2	
693.21	6413.6	
693.39	6978.1	
693.58	6161.7	
693.76	5561.6	
693.94	8196.7	
694.13	8085.4	
694.31	5570.5	
694.5	6744	
694.68	6860	
694.86	7112.6	
695.05	5982.1	
695.23	6333	
695.42	7608.9	
695.6	9987.3	
695.78	6533.7	
695.97	5614.2	
696.15	7533.8	
696.34	6884.6	
696.52	5342.5	
696.7	6219.7	
696.89	7285.3	
697.07	6734.4	
697.25	6131.6	
697.44	7717.4	
697.62	7248.4	
697.81	7671.7	
697.99	5823.1	
698.17	6394.4	
698.36	6550.1	
698.54	7259.4	
698.72	6180.1	
698.91	5188.9	
699.09	6851.8	
699.28	6721.4	
699.46	5907	
699.64	5773.9	
699.83	6653.9	
700.01	8012.3	
700.19	6604	
700.38	4945.2	
700.56	7984.3	
700.74	6842.3	
700.93	5343.8	
701.11	6239.5	
701.29	7457.3	
701.48	8473.1	
701.66	5595.1	
701.84	5630.5	
702.03	6942.6	
702.21	7656.7	
702.39	5151.3	
702.58	5745.9	
702.76	7275.8	
702.94	7465.5	
703.13	5187.5	
703.31	7673.1	
703.49	6566.5	
703.68	8230.8	
703.86	5355.4	
704.04	6414.2	
704.23	7129.7	
704.41	7652.6	
704.59	5524.7	
704.78	6933.1	
704.96	8232.8	
705.14	7662.1	
705.33	5355.4	
705.51	6242.2	
705.69	7090.8	
705.87	7973.4	
706.06	6423.1	
706.24	5296.7	
706.42	7369.3	
706.61	7604.8	
706.79	6473.6	
706.97	5341.1	
707.16	6767.9	
707.34	7402	
707.52	6522.8	
707.7	5572.5	
707.89	7012.2	
708.07	6674.3	
708.25	6531.7	
708.44	6591	
708.62	6873.7	
708.8	8130.4	
708.98	6761	
709.17	5750	
709.35	7344.7	
709.53	7342.7	
709.72	5379.3	
709.9	5533.6	
710.08	7574.1	
710.26	7652.6	
710.45	7063.4	
710.63	5740.5	
710.81	7245.7	
710.99	7331.7	
711.18	6368.5	
711.36	5903.6	
711.54	7117.4	
711.72	7808.9	
711.91	5935	
712.09	5233.9	
712.27	7168.6	
712.45	7848.5	
712.64	6221	
712.82	5096	
713	6657.9	
713.18	6781.5	
713.37	5236	
713.55	6671.6	
713.73	7546.1	
713.91	6118.6	
714.1	5539.8	
714.28	4981.3	
714.46	7224.6	
714.64	6408.1	
714.83	4427	
715.01	5356.1	
715.19	6619	
715.37	5895.4	
715.55	5088.5	
715.74	5332.2	
715.92	7568.6	
716.1	5504.9	
716.28	6516.6	
716.47	5518.6	
716.65	6190.3	
716.83	6335.7	
717.01	5408	
717.19	5508.4	
717.38	8554.4	
717.56	6021.7	
717.74	5751.4	
717.92	4894.6	
718.1	7341.3	
718.29	6610.8	
718.47	4453	
718.65	5280.3	
718.83	7217.7	
719.01	7131	
719.2	4312.3	
719.38	5515.2	
719.56	6849.1	
719.74	8429.4	
719.92	4991.6	
720.11	6040.1	
720.29	6861.4	
720.47	5917.9	
720.65	4465.3	
720.83	5431.2	
721.02	6277	
721.2	6050.4	
721.38	5513.1	
721.56	4747.9	
721.74	5606	
721.92	5754.1	
722.11	6080.4	
722.29	5741.8	
722.47	7111.2	
722.65	6251.1	
722.83	4748.6	
723.01	5821	
723.2	6364.4	
723.38	6587.6	
723.56	4191.5	
723.74	5403.9	
723.92	5789.6	
724.1	7047.1	
724.29	4714.4	
724.47	6029.9	
724.65	5907	
724.83	5839.4	
725.01	4674.1	
725.19	5588.9	
725.37	5917.3	
725.56	5935	
725.74	4464.6	
725.92	4777.2	
726.1	5866.1	
726.28	6189	
726.46	5255.1	
726.64	4946.5	
726.83	6150.7	
727.01	6406	
727.19	4428.4	
727.37	5397.1	
727.55	6232	
727.73	6879.1	
727.91	4513.7	
728.09	4287.8	
728.28	6877.8	
728.46	7605.5	
728.64	5543.2	
728.82	5500.2	
729	8045.8	
729.18	7314	
729.36	4818.2	
729.54	7152.2	
729.72	8353.7	
729.91	6500.9	
730.09	6713.2	
730.27	5449	
730.45	6466.1	
730.63	7135.1	
730.81	6068.8	
730.99	5098.8	
731.17	7632.8	
731.35	6124.8	
731.53	5667.4	
731.71	5198.4	
731.9	7419.1	
732.08	7626.6	
732.26	5461.9	
732.44	5119.2	
732.62	7619.8	
732.8	7049.8	
732.98	5974.6	
733.16	4878.3	
733.34	7080.5	
733.52	5913.2	
733.7	5465.3	
733.88	5797.8	
734.07	6935.1	
734.25	6645.7	
734.43	4842.1	
734.61	6576.7	
734.79	8259.5	
734.97	6543.3	
735.15	5052.3	
735.33	5427.1	
735.51	6853.9	
735.69	6587.6	
735.87	7120.1	
736.05	5705	
736.23	6808.1	
736.41	6573.3	
736.59	5455.1	
736.77	5597.1	
736.95	7350.8	
737.13	6726.2	
737.32	5175.9	
737.5	5375.2	
737.68	7865.6	
737.86	6535.1	
738.04	5048.9	
738.22	6957.6	
738.4	6365.8	
738.58	6754.2	
738.76	5650.3	
738.94	4532.2	
739.12	6627.9	
739.3	6352.8	
739.48	6346	
739.66	6025.8	
739.84	6878.4	
740.02	6864.8	
740.2	4637.3	
740.38	5022.3	
740.56	7275.1	
740.74	5984.8	
740.92	5805.3	
741.1	5689.3	
741.28	6593.1	
741.46	6506.4	
741.64	5297.4	
741.82	5829.2	
742	6761	
742.18	6647	
742.36	5535.7	
742.54	5118.6	
742.72	7300.3	
742.9	5999.9	
743.08	5913.9	
743.26	4678.2	
743.44	7535.8	
743.62	7330.4	
743.8	6113.2	
743.98	5121.3	
744.16	7052.5	
744.34	6641.6	
744.52	5982.8	
744.7	5873.6	
744.88	7262.1	
745.06	6705.7	
745.24	6077.7	
745.42	6145.3	
745.6	7299.6	
745.78	6972.7	
745.96	4789.5	
746.14	5169.1	
746.32	8096.3	
746.5	7257.3	
746.68	5786.2	
746.86	5203.9	
747.03	7755.7	
747.21	5931.6	
747.39	5787.6	
747.57	5190.2	
747.75	6928.3	
747.93	7336.5	
748.11	5199.1	
748.29	5030.5	
748.47	8546.2	
748.65	6546	
748.83	6023.1	
749.01	5580.7	
749.19	7133.1	
749.37	6326.9	
749.55	5571.2	
749.73	5680.4	
749.91	6707.1	
750.09	6432.7	
750.26	5613.5	
750.44	5003.2	
750.62	6733.7	
750.8	6710.5	
750.98	4932.9	
751.16	5233.2	
751.34	6868.2	
751.52	6125.5	
751.7	6123.4	
751.88	4892.6	
752.06	7352.9	
752.24	7170.6	
752.42	4828.4	
752.59	5108.3	
752.77	6739.9	
752.95	8088.1	
753.13	6042.2	
753.31	5355.4	
753.49	6408.1	
753.67	6997.2	
753.85	5649.7	
754.03	5249.6	
754.21	7271	
754.38	7627.3	
754.56	5408	
754.74	4369.7	
754.92	6388.3	
755.1	7150.1	
755.28	4395.6	
755.46	4422.2	
755.64	7748.1	
755.82	7862.2	
755.99	4445.5	
756.17	4584.7	
756.35	5014.8	
756.53	6741.2	
756.71	3383.9	
756.89	4377.9	
757.07	6292	
757.25	5353.4	
757.42	4976.6	
757.6	5942.5	
757.78	6453.8	
757.96	5444.2	
758.14	4809.3	
758.32	4242	
758.5	4991.6	
758.67	5874.3	
758.85	4513.7	
759.03	4661.2	
759.21	5942.5	
759.39	5414.8	
759.57	4072.7	
759.75	5311.7	
759.92	6697.5	
760.1	5918.6	
760.28	5678.3	
760.46	6025.8	
760.64	5725.4	
760.82	5502.2	
760.99	5611.4	
761.17	4767	
761.35	6610.2	
761.53	5601.9	
761.71	4908.3	
761.89	5648.3	
762.06	6582.9	
762.24	5980.1	
762.42	4973.2	
762.6	4814.1	
762.78	6042.2	
762.96	6064	
763.13	5416.2	
763.31	5149.3	
763.49	7028.6	
763.67	6052.4	
763.85	5958.2	
764.02	6593.1	
764.2	7301	
764.38	6445.6	
764.56	4973.8	
764.74	5893.4	
764.91	7390.4	
765.09	6186.2	
765.27	4622.9	
765.45	4511.7	
765.63	7415	
765.8	7286	
765.98	4141	
766.16	4576.5	
766.34	5705.6	
766.52	5458.5	
766.69	5565.7	
766.87	4369	
767.05	6154.1	
767.23	6951.5	
767.41	4704.9	
767.58	4938.3	
767.76	6774.7	
767.94	6832	
768.12	4728.1	
768.29	5563	
768.47	6195.1	
768.65	7011.6	
768.83	4334.2	
769	5580.7	
769.18	5743.9	
769.36	6541.2	
769.54	5524.7	
769.72	4399.7	
769.89	6742.6	
770.07	6876.4	
770.25	4714.4	
770.43	6047.7	
770.6	7577.5	
770.78	7948.2	
770.96	4928.1	
771.14	5631.9	
771.31	6698.2	
771.49	5993	
771.67	3962.8	
771.85	4307.6	
772.02	5143.8	
772.2	5960.3	
772.38	5099.4	
772.55	4589.5	
772.73	6277	
772.91	6023.8	
773.09	4896.7	
773.26	5008.6	
773.44	6234	
773.62	5885.2	
773.8	4377.9	
773.97	4088.4	
774.15	6296.8	
774.33	5773.9	
774.5	4264.6	
774.68	4630.5	
774.86	6510.5	
775.04	5841.5	
775.21	4366.3	
775.39	4363.5	
775.57	6154.1	
775.74	6593.1	
775.92	4098	
776.1	4044.7	
776.27	6076.3	
776.45	7402.7	
776.63	4293.9	
776.81	3762.8	
776.98	5707.7	
777.16	6888.7	
777.34	4506.9	
777.51	4375.8	
777.69	5696.8	
777.87	5470.8	
778.04	4478.2	
778.22	5173.9	
778.4	5499.5	
778.57	6182.1	
778.75	3671.3	
778.93	3935.5	
779.1	5234.6	
779.28	5079	
779.46	3663.1	
779.64	4239.3	
779.81	6331.6	
779.99	7308.5	
780.17	5060.5	
780.34	5221	
780.52	5707.7	
780.69	5953.4	
780.87	4612.7	
781.05	4041.3	
781.22	5764.3	
781.4	5860.6	
781.58	4228.4	
781.75	3327.9	
781.93	5810.1	
782.11	5175.9	
782.28	5135.6	
782.46	4184	
782.64	5054.4	
782.81	6098.2	
782.99	4274.1	
783.17	4310.3	
783.34	5914.5	
783.52	5089.2	
783.69	4451.6	
783.87	5371.8	
784.05	5142.4	
784.22	5140.4	
784.4	5322.7	
784.58	4593.6	
784.75	6166.4	
784.93	5114.5	
785.1	4199	
785.28	4846.9	
785.46	5803.3	
785.63	5109	
785.81	4207.2	
785.99	3994.2	
786.16	5288.5	
786.34	5754.8	
786.51	4017.4	
786.69	4478.9	
786.87	4868	
787.04	5421.7	
787.22	3898.6	
787.39	4878.3	
787.57	5057.8	
787.75	6219	
787.92	5145.9	
788.1	5031.2	
788.27	5180.7	
788.45	4911.7	
788.63	4702.1	
788.8	3345.7	
788.98	5652.4	
789.15	4838	
789.33	3459	
789.5	4116.4	
789.68	6148	
789.86	6264.7	
790.03	4659.8	
790.21	3998.3	
790.38	6046.3	
790.56	5270.8	
790.73	3898.6	
790.91	3889.8	
791.09	5118.6	
791.26	5871.5	
791.44	4159.4	
791.61	3516.4	
791.79	5084.4	
791.96	5147.2	
792.14	3724.6	
792.32	3271.3	
792.49	5138.4	
792.67	5274.9	
792.84	3771	
793.02	3540.9	
793.19	5560.9	
793.37	6321.4	
793.54	3212.6	
793.72	3594.2	
793.89	6550.1	
794.07	5208	
794.25	4251.6	
794.42	3287.7	
794.6	6162.3	
794.77	5879	
794.95	4520.5	
795.12	3969	
795.3	5090.6	
795.47	5780.7	
795.65	4384.7	
795.82	4158.7	
796	4926	
796.17	6968.6	
796.35	4066.6	
796.52	4805.9	
796.7	5652.4	
796.87	5718.6	
797.05	5015.5	
797.22	4903.5	
797.4	5754.1	
797.57	6820.4	
797.75	4173.1	
797.92	3967.6	
798.1	6087.9	
798.27	5044.1	
798.45	3351.2	
798.62	3587.4	
798.8	5402.5	
798.97	5937.7	
799.15	4463.2	
799.32	4216.1	
799.5	4648.2	
799.67	5473.5	
799.85	4560.1	
800.02	3330.7	
800.2	5037.3	
800.37	5381.4	
800.55	4703.5	
800.72	3929.4	
800.9	5877.7	
801.07	6374.6	
801.25	5285.8	
801.42	4349.2	
801.6	5928.2	
801.77	5642.2	
801.95	4031.1	
802.12	3818.1	
802.29	5659.9	
802.47	5613.5	
802.64	4306.9	
802.82	3165.5	
802.99	5038.7	
803.17	6150.7	
803.34	4192.9	
803.52	3728.7	
803.69	6840.2	
803.87	4880.3	
804.04	4097.3	
804.21	4190.1	
804.39	6212.2	
804.56	5337.7	
804.74	3553.2	
804.91	4342.4	
805.09	5060.5	
805.26	5179.3	
805.44	3582.6	
805.61	3973.1	
805.78	5833.3	
805.96	5834	
806.13	4375.1	
806.31	4670.7	
806.48	4635.9	
806.66	5186.8	
806.83	4318.5	
807	4248.9	
807.18	5050.3	
807.35	5484.5	
807.53	4207.9	
807.7	3353.9	
807.87	6297.5	
808.05	5115.8	
808.22	4661.2	
808.4	3322.5	
808.57	5166.3	
808.74	4760.8	
808.92	3842	
809.09	4922.6	
809.27	5027.8	
809.44	5666.7	
809.61	3375.7	
809.79	3783.3	
809.96	6320	
810.14	5930.9	
810.31	3317	
810.48	4043.4	
810.66	5212.8	
810.83	5970.5	
811.01	3846.8	
811.18	4300.7	
811.35	5930.2	
811.53	4573.1	
811.7	4674.1	
811.87	4361.5	
812.05	5124	
812.22	5046.9	
812.39	3701.4	
812.57	3620.1	
812.74	5146.5	
812.92	6868.9	
813.09	4018.1	
813.26	4432.5	
813.44	6602.7	
813.61	5029.8	
813.78	3358.7	
813.96	4543.1	
814.13	5116.5	
814.3	4777.9	
814.48	4934.2	
814.65	4029	
814.82	6421.7	
815	5000.5	
815.17	4133.5	
815.34	5087.2	
815.52	5083.1	
815.69	5083.7	
815.87	4075.5	
816.04	3547.8	
816.21	5162.2	
816.38	4471.4	
816.56	4035.2	
816.73	3743.7	
816.9	6487.3	
817.08	5973.9	
817.25	3693.2	
817.42	4742.4	
817.6	4646.2	
817.77	5154.7	
817.94	4186	
818.12	3709.6	
818.29	4869.4	
818.46	7785.7	
818.64	3880.9	
818.81	3617.4	
818.98	4833.9	
819.16	6989.7	
819.33	4481	
819.5	4133.5	
819.67	5548.6	
819.85	6249	
820.02	4042.7	
820.19	4294.6	
820.37	5332.9	
820.54	4922	
820.71	4165.6	
820.88	5206.6	
821.06	5360.9	
821.23	4917.2	
821.4	4244.1	
821.58	4137.6	
821.75	5892.7	
821.92	5285.1	
822.09	3339.6	
822.27	3480.2	
822.44	5147.9	
822.61	5012.7	
822.79	3345.7	
822.96	6552.8	
823.13	5599.8	
823.3	4877.6	
823.48	3980.6	
823.65	3556	
823.82	5817.6	
823.99	4625	
824.17	5043.5	
824.34	3586.7	
824.51	6810.2	
824.68	5216.2	
824.86	3807.9	
825.03	4263.9	
825.2	5157.5	
825.37	6296.8	
825.55	3672.7	
825.72	4187.4	
825.89	6917.4	
826.06	6436.8	
826.24	4044.1	
826.41	4087.7	
826.58	6292	
826.75	5431.9	
826.92	3168.2	
827.1	3528	
827.27	8609.7	
827.44	6769.2	
827.61	3823.6	
827.79	4689.2	
827.96	4897.4	
828.13	5272.8	
828.3	4071.4	
828.47	3392.1	
828.65	5343.2	
828.82	5298.8	
828.99	5247.6	
829.16	4582	
829.34	5815.5	
829.51	5527.5	
829.68	4136.2	
829.85	4325.3	
830.02	6033.3	
830.2	5774.6	
830.37	3207.8	
830.54	5083.1	
830.71	6565.8	
830.88	5106.3	
831.05	3267.2	
831.23	3757.3	
831.4	6345.3	
831.57	7116	
831.74	3848.8	
831.91	3383.9	
832.09	5365.7	
832.26	5764.3	
832.43	4011.3	
832.6	4521.2	
832.77	5378.6	
832.94	6131.6	
833.12	3136.1	
833.29	3969.6	
833.46	4984.1	
833.63	7350.2	
833.8	4322.6	
833.97	4057.7	
834.15	5769.8	
834.32	5521.3	
834.49	4173.8	
834.66	4230.4	
834.83	5957.5	
835	4770.4	
835.17	3796.9	
835.35	3881.6	
835.52	5670.8	
835.69	5525.4	
835.86	3976.5	
836.03	3399.6	
836.2	5707.7	
836.37	5309.7	
836.55	4036.5	
836.72	3732.8	
836.89	5300.1	
837.06	5896.8	
837.23	4094.6	
837.4	4498	
837.57	6623.8	
837.75	7394.5	
837.92	3646.7	
838.09	3891.8	
838.26	5292	
838.43	6021.7	
838.6	4166.9	
838.77	3775.8	
838.94	6977.4	
839.11	6617.7	
839.29	4027	
839.46	3134.8	
839.63	5723.4	
839.8	5452.4	
839.97	3894.6	
840.14	3897.3	
840.31	5461.9	
840.48	5735	
840.65	3184.6	
840.82	3745.1	
841	5720.7	
841.17	5674.2	
841.34	3555.3	
841.51	3600.3	
841.68	5627.8	
841.85	5382.7	
842.02	3691.1	
842.19	3038.5	
842.36	5451.7	
842.53	5437.4	
842.7	3489.1	
842.87	4378.6	
843.05	7251.9	
843.22	5457.8	
843.39	3328.6	
843.56	3631.7	
843.73	5180.7	
843.9	5794.4	
844.07	5887.9	
844.24	4852.3	
844.41	8528.4	
844.58	4967.7	
844.75	3457.7	
844.92	3758.7	
845.09	5747.3	
845.26	5764.3	
845.43	3487.7	
845.6	3773	
845.77	5788.2	
845.94	5455.1	
846.12	3899.3	
846.29	4209.9	
846.46	5952.1	
846.63	5754.8	
846.8	3593.5	
846.97	4234.5	
847.14	6251.1	
847.31	5679.7	
847.48	4031.8	
847.65	4384.7	
847.82	5991.7	
847.99	6027.9	
848.16	4732.2	
848.33	4429.1	
848.5	5280.3	
848.67	6281.1	
848.84	3524.6	
849.01	3642	
849.18	5055.8	
849.35	4816.1	
849.52	4484.4	
849.69	3460.4	
849.86	5923.4	
850.03	6113.9	
850.2	3549.1	
850.37	4332.1	
850.54	6152.1	
850.71	5384.1	
850.88	4302.1	
851.05	3563.5	
851.22	5652.4	
851.39	6291.4	
851.56	3366.2	
851.73	4050.9	
851.9	5004.6	
852.07	5926.1	
852.24	3960.8	
852.41	3480.9	
852.58	5571.2	
852.75	5072.8	
852.92	3984.7	
853.09	3448.8	
853.26	5319.9	
853.43	6216.3	
853.6	3530	
853.77	2975	
853.94	6301.6	
854.11	5673.6	
854.28	5350	
854.44	3826.3	
854.61	6822.5	
854.78	6062.7	
854.95	3495.9	
855.12	4501.4	
855.29	4611.3	
855.46	6350.1	
855.63	3545.7	
855.8	4937.7	
855.97	5312.4	
856.14	6051.7	
856.31	5059.8	
856.48	3830.4	
856.65	5237.3	
856.82	5025	
856.99	3390.8	
857.16	3799.7	
857.33	6991.8	
857.49	5358.2	
857.66	3851.5	
857.83	4130.1	
858	5337	
858.17	5598.5	
858.34	3362.8	
858.51	3534.1	
858.68	6466.8	
858.85	6491.4	
859.02	4147.1	
859.19	4410.6	
859.36	4999.8	
859.52	5087.8	
859.69	3578.5	
859.86	4175.8	
860.03	5130.8	
860.2	6296.8	
860.37	3267.2	
860.54	3627.6	
860.71	5929.6	
860.88	6392.4	
861.05	3953.3	
861.21	4459.1	
861.38	6472.9	
861.55	4926.7	
861.72	3186	
861.89	3890.5	
862.06	6049	
862.23	6550.8	
862.4	3446.7	
862.56	3642	
862.73	5900.9	
862.9	5520	
863.07	4218.1	
863.24	3553.9	
863.41	4880.3	
863.58	5057.8	
863.75	3562.8	
863.91	4129.4	
864.08	6361	
864.25	5867.4	
864.42	4461.2	
864.59	4978.6	
864.76	6689.3	
864.93	5025.7	
865.09	3514.3	
865.26	3716.4	
865.43	6221	
865.6	6588.3	
865.77	3069.2	
865.94	3525.9	
866.1	6354.8	
866.27	6040.1	
866.44	5358.2	
866.61	3368.2	
866.78	5410.1	
866.95	5864	
867.11	3383.2	
867.28	3103.4	
867.45	6164.4	
867.62	5052.3	
867.79	4184.7	
867.96	3466.5	
868.12	4990.9	
868.29	6044.9	
868.46	3588	
868.63	4725.3	
868.8	6212.2	
868.97	5939.8	
869.13	3751.9	
869.3	3704.8	
869.47	5862	
869.64	6083.8	
869.81	3561.4	
869.97	3554.6	
870.14	5794.4	
870.31	6386.9	
870.48	3450.1	
870.65	4413.4	
870.81	5347.9	
870.98	5303.6	
871.15	4007.2	
871.32	3650.2	
871.48	5802.6	
871.65	6466.1	
871.82	3465.2	
871.99	3877.5	
872.16	6913.9	
872.32	6357.6	
872.49	3542.3	
872.66	3616.7	
872.83	5954.8	
872.99	5139.7	
873.16	4056.3	
873.33	3552.5	
873.5	5584.1	
873.67	5630.5	
873.83	3743.7	
874	4792.2	
874.17	5705	
874.34	6913.3	
874.5	4644.8	
874.67	4526	
874.84	6433.4	
875.01	5024.3	
875.17	5054.4	
875.34	3525.9	
875.51	5634.6	
875.68	6821.8	
875.84	4254.3	
876.01	5251.7	
876.18	5936.4	
876.34	5870.8	
876.51	3573.7	
876.68	3503.4	
876.85	5360.9	
877.01	6304.3	
877.18	5031.2	
877.35	3498.6	
877.52	5521.3	
877.68	4958.1	
877.85	3455.6	
878.02	3480.2	
878.18	5530.2	
878.35	5195	
878.52	2852.8	
878.69	4232.5	
878.85	5971.2	
879.02	5881.1	
879.19	5036	
879.35	3847.5	
879.52	5881.1	
879.69	6130.9	
879.86	3062.4	
880.02	3941.7	
880.19	5500.2	
880.36	6758.3	
880.52	4016.1	
880.69	4244.8	
880.86	6047.7	
881.02	6085.2	
881.19	3950.5	
881.36	3827.7	
881.52	5882.4	
881.69	5256.5	
881.86	3769.6	
882.02	3709.6	
882.19	6260	
882.36	7282.6	
882.52	3612.6	
882.69	4985.4	
882.86	5697.4	
883.02	5602.6	
883.19	4328	
883.36	4106.2	
883.52	6013.5	
883.69	6972	
883.86	3564.1	
884.02	3231.7	
884.19	6000.5	
884.36	5597.8	
884.52	4034.5	
884.69	3767.6	
884.86	5253.7	
885.02	6625.9	
885.19	3967.6	
885.36	4038.6	
885.52	5525.4	
885.69	5718.6	
885.86	5111	
886.02	4558.8	
886.19	5990.3	
886.35	5422.3	
886.52	3898	
886.69	4999.8	
886.85	5087.8	
887.02	6395.8	
887.19	6395.8	
887.35	6395.8	
887.52	6395.8	
887.68	6395.8	
887.85	6395.8	
888.02	6395.8	
888.18	6395.8	
888.35	6395.8	
888.51	6395.8	
888.68	6395.8	
888.85	6395.8	
889.01	6395.8	
889.18	6395.8	
889.35	6395.8	
889.51	6395.8	
889.68	6395.8	
889.84	6395.8	
890.01	6395.8	
890.17	6395.8	
890.34	6395.8	
890.51	6395.8	
890.67	6395.8	
890.84	6395.8	
891	6395.8	
891.17	6395.8	
891.34	6395.8	
891.5	6395.8	
891.67	6395.8	
891.83	6395.8	
892	6395.8	
892.16	6395.8	
892.33	6395.8	
892.5	6395.8	
892.66	6395.8	
892.83	6395.8	
892.99	6395.8	
893.16	6395.8	
893.32	6395.8	
893.49	6395.8	
893.65	6395.8	
893.82	6395.8	
893.99	6395.8	
894.15	6395.8	
894.32	6395.8	
894.48	6395.8	
894.65	6395.8	
894.81	6395.8	
894.98	6395.8	
895.14	6395.8	
895.31	6395.8	
895.47	6395.8	
895.64	6395.8	
895.81	6395.8	
895.97	6395.8	
896.14	6395.8	
896.3	6395.8	
896.47	6395.8	
896.63	6395.8	
896.8	6395.8	
896.96	6395.8	
897.13	6395.8	
897.29	6395.8	
897.46	6395.8	
897.62	6395.8	
897.79	6395.8	
897.95	6395.8	
898.12	6395.8	
898.28	6395.8	
898.45	6395.8	
898.61	6395.8	
898.78	6395.8	
898.94	6395.8	
899.11	6395.8	
899.27	6395.8	
899.44	6395.8	
899.6	6395.8	
899.77	6395.8	
899.93	6395.8	
900.1	6395.8	
900.26	6395.8	
900.43	6395.8	
900.59	6395.8	
900.76	6395.8	
900.92	6395.8	
901.09	6395.8	
901.25	6395.8	
901.42	6395.8	
901.58	6395.8	
901.75	6395.8	
901.91	6395.8	
902.07	6395.8	
902.24	6395.8	
902.4	6395.8	
902.57	6395.8	
902.73	6395.8	
902.9	6395.8	
903.06	6395.8	
903.23	6395.8	
903.39	6395.8	
903.56	6395.8	
903.72	6395.8	
903.88	6395.8	
904.05	6395.8	
904.21	6395.8	
904.38	6395.8	
904.54	6395.8	
904.71	6395.8	
904.87	6395.8	
905.03	6395.8	
905.2	6395.8	
905.36	6395.8	
905.53	6395.8	
905.69	6395.8	
905.86	6395.8	
906.02	6395.8	
906.18	6395.8	
906.35	6395.8	
906.51	6395.8	
906.68	6395.8	
906.84	6395.8	
907.01	6395.8	
907.17	6395.8	
907.33	6395.8	
907.5	6395.8	
907.66	6395.8	
907.83	6395.8	
907.99	6395.8	
908.15	6395.8	
908.32	6395.8	
908.48	6395.8	
908.65	6395.8	
908.81	6395.8	
908.97	6395.8	
909.14	6395.8	
909.3	6395.8	
909.47	6395.8	
909.63	6395.8	
909.79	6395.8	
909.96	6395.8	
910.12	6395.8	
910.28	6395.8	
910.45	6395.8	
910.61	6395.8	
910.78	6395.8	
910.94	6395.8	
911.1	6395.8	
911.27	6395.8	
911.43	6395.8	
911.59	6395.8	
911.76	6395.8	
911.92	6395.8	
912.08	6395.8	
912.25	6395.8	
912.41	6395.8	
912.57	6395.8	
912.74	6395.8	
912.9	6395.8	
913.07	6395.8	
913.23	6395.8	
913.39	6395.8	
913.56	6395.8	
913.72	6395.8	
913.88	6395.8	
914.05	6395.8	
914.21	6395.8	
914.37	6395.8	
914.54	6395.8	
914.7	6395.8	
914.86	6395.8	
915.03	6395.8	
915.19	6395.8	
