Wavelength	Intensities	
nm	a.u.	
179.22	1891.5	
179.44	1883.1	
179.65	1899.8	
179.86	1866.4	
180.08	1873.9	
180.29	4782.7	
180.51	3398.9	
180.72	5597.8	
180.94	6444.3	
181.15	3133.4	
181.37	3090.4	
181.58	5402.5	
181.79	5688.6	
182.01	3296.5	
182.22	3527.3	
182.44	5639.4	
182.65	4714.4	
182.87	4470.7	
183.08	3847.5	
183.29	5951.4	
183.51	4929.5	
183.72	3575.1	
183.94	5232.6	
184.15	5268.7	
184.37	5298.8	
184.58	3125.2	
184.79	4294.6	
185.01	4937	
185.22	5615.5	
185.44	4521.9	
185.65	3799.7	
185.86	5177.9	
186.08	4805.2	
186.29	3088.3	
186.51	3284.3	
186.72	4958.8	
186.94	5829.9	
187.15	3764.8	
187.36	3911.6	
187.58	7570	
187.79	5375.2	
188.01	4010.6	
188.22	6337.8	
188.43	6392.4	
188.65	5653.8	
188.86	3247.4	
189.08	3913	
189.29	5145.2	
189.5	5060.5	
189.72	3623.5	
189.93	3653.6	
190.15	5877.7	
190.36	6990.4	
190.57	4004.5	
190.79	3826.3	
191	5971.9	
191.22	5845.6	
191.43	3996.3	
191.64	3277.4	
191.86	6087.2	
192.07	5901.6	
192.29	3467.9	
192.5	3652.9	
192.71	5798.5	
192.93	5065.3	
193.14	3607.8	
193.35	3653.6	
193.57	5070.8	
193.78	5856.5	
194	2894.5	
194.21	3532.1	
194.42	4866	
194.64	5275.6	
194.85	3863.8	
195.07	4641.4	
195.28	5322	
195.49	4674.8	
195.71	4831.8	
195.92	3357.3	
196.13	5490.6	
196.35	5649.7	
196.56	5172.5	
196.78	3845.4	
196.99	6913.9	
197.2	6380.1	
197.42	4419.5	
197.63	3990.8	
197.84	4728.1	
198.06	5477.6	
198.27	3643.3	
198.48	4809.3	
198.7	5077.6	
198.91	5201.2	
199.13	3933.5	
199.34	3914.4	
199.55	5740.5	
199.77	4627	
199.98	3449.5	
200.19	4001.7	
200.41	5191.6	
200.62	4933.6	
200.83	4074.8	
201.05	4420.2	
201.26	5222.3	
201.47	4947.9	
201.69	3462.4	
201.9	3342.3	
202.11	5280.3	
202.33	6236.1	
202.54	3780.6	
202.76	4182	
202.97	5406	
203.18	5434.6	
203.4	4162.8	
203.61	3995.6	
203.82	5374.6	
204.04	5032.5	
204.25	3992.9	
204.46	3908.2	
204.68	5343.8	
204.89	5535	
205.1	3859.1	
205.32	3341.6	
205.53	5713.8	
205.74	5840.1	
205.96	2882.2	
206.17	4008.6	
206.38	5688.6	
206.6	5830.6	
206.81	4448.2	
207.02	3650.2	
207.24	5509	
207.45	5957.5	
207.66	3700.7	
207.88	3214.6	
208.09	5528.8	
208.3	5285.8	
208.52	3436.5	
208.73	3784.6	
208.94	5337.7	
209.15	5973.9	
209.37	3792.2	
209.58	3958	
209.79	5830.6	
210.01	5082.4	
210.22	3054.9	
210.43	3162.1	
210.65	5313.8	
210.86	5689.3	
211.07	3768.3	
211.29	3448.1	
211.5	5607.3	
211.71	5278.3	
211.93	3466.5	
212.14	3441.3	
212.35	5227.1	
212.56	5494.7	
212.78	3932.8	
212.99	3256.3	
213.2	6203.3	
213.42	5077.6	
213.63	3533.4	
213.84	3792.8	
214.06	4724.7	
214.27	4809.3	
214.48	3779.2	
214.69	4000.4	
214.91	5988.9	
215.12	6009.4	
215.33	4071.4	
215.55	4468.7	
215.76	6517.3	
215.97	5596.4	
216.18	3934.1	
216.4	3771	
216.61	4982	
216.82	5793	
217.04	3463.1	
217.25	3620.8	
217.46	5970.5	
217.67	5678.3	
217.89	3094.5	
218.1	3209.2	
218.31	5365.7	
218.53	5506.3	
218.74	3666.5	
218.95	3510.2	
219.16	5253.7	
219.38	6150.1	
219.59	3506.8	
219.8	4212.7	
220.01	6855.9	
220.23	5355.4	
220.44	4654.4	
220.65	3440.6	
220.87	5357.5	
221.08	5913.2	
221.29	3183.9	
221.5	4252.3	
221.72	7249.1	
221.93	5024.3	
222.14	3999	
222.35	4680.3	
222.57	5315.8	
222.78	5652.4	
222.99	3771.7	
223.2	4022.2	
223.42	5622.4	
223.63	5769.8	
223.84	2979.8	
224.05	2882.9	
224.27	6808.8	
224.48	6114.6	
224.69	4661.9	
224.9	3936.2	
225.12	5535.7	
225.33	5231.2	
225.54	3175	
225.75	3522.5	
225.97	4903.5	
226.18	5193	
226.39	3798.3	
226.6	3556	
226.82	5104.2	
227.03	4970.4	
227.24	3962.1	
227.45	3304.1	
227.67	5672.2	
227.88	6210.8	
228.09	4383.3	
228.3	4391.5	
228.52	5724.1	
228.73	5253	
228.94	3684.3	
229.15	3271.3	
229.36	5268.1	
229.58	5206.6	
229.79	3702.7	
230	4317.8	
230.21	6303	
230.43	5428.5	
230.64	3934.1	
230.85	4105.5	
231.06	5742.5	
231.28	5706.3	
231.49	3288.4	
231.7	3855.6	
231.91	5597.1	
232.12	5273.5	
232.34	3359.4	
232.55	3896.6	
232.76	5912.5	
232.97	5478.3	
233.18	3436.5	
233.4	3904.8	
233.61	5539.1	
233.82	5029.1	
234.03	3630.4	
234.25	3616.7	
234.46	7299	
234.67	5401.2	
234.88	4003.8	
235.09	3493.8	
235.31	5636.7	
235.52	5192.3	
235.73	3958	
235.94	3267.2	
236.15	5035.3	
236.37	6354.8	
236.58	3471.3	
236.79	3779.9	
237	5595.7	
237.21	4859.1	
237.43	4047.5	
237.64	3162.7	
237.85	9594.7	
238.06	4863.9	
238.27	4083	
238.48	3339.6	
238.7	5648.3	
238.91	5137	
239.12	3788.7	
239.33	3784.6	
239.54	5036.6	
239.76	5200.5	
239.97	3726.6	
240.18	3828.3	
240.39	6574.7	
240.6	5601.2	
240.82	3929.4	
241.03	3189.4	
241.24	5314.5	
241.45	6159.6	
241.66	3453.6	
241.87	4064.5	
242.09	6008.1	
242.3	6330.3	
242.51	4167.6	
242.72	3836.5	
242.93	5690.6	
243.14	5251.7	
243.36	4367.6	
243.57	4764.3	
243.78	6128.9	
243.99	5516.5	
244.2	3807.2	
244.41	3426.9	
244.63	4892.6	
244.84	5536.3	
245.05	4018.1	
245.26	3774.4	
245.47	5563	
245.68	5876.3	
245.9	5060.5	
246.11	3997.6	
246.32	5143.1	
246.53	5559.6	
246.74	6102.3	
246.95	3201	
247.16	4818.9	
247.38	5296.7	
247.59	3150.5	
247.8	3757.3	
248.01	4988.9	
248.22	5302.2	
248.43	3442.6	
248.64	3676.8	
248.86	4758.8	
249.07	5101.5	
249.28	3342.3	
249.49	3895.2	
249.7	5911.8	
249.91	5884.5	
250.12	3166.2	
250.34	3243.3	
250.55	5461.9	
250.76	5293.3	
250.97	3887	
251.18	3963.5	
251.39	5976.7	
251.6	5472.9	
251.81	4040	
252.03	3951.9	
252.24	5091.3	
252.45	5884.5	
252.66	3302	
252.87	4154.6	
253.08	5298.1	
253.29	7016.3	
253.5	3297.9	
253.72	4591.5	
253.93	5186.8	
254.14	6282.5	
254.35	3607.2	
254.56	3720.5	
254.77	5558.2	
254.98	4886.5	
255.19	3564.1	
255.41	4588.1	
255.62	5461.2	
255.83	5977.3	
256.04	4080.2	
256.25	3957.4	
256.46	6485.9	
256.67	4971.1	
256.88	3915.7	
257.09	4352.6	
257.31	5008.6	
257.52	5038.7	
257.73	4890.5	
257.94	3625.6	
258.15	5139	
258.36	5373.2	
258.57	4567.7	
258.78	2869.2	
258.99	5792.3	
259.2	5162.2	
259.41	3605.8	
259.63	3724.6	
259.84	6153.5	
260.05	6546	
260.26	4749.9	
260.47	3597.6	
260.68	5847.6	
260.89	5241.4	
261.1	4392.2	
261.31	3445.4	
261.52	5933	
261.73	6307.7	
261.95	4672.1	
262.16	4136.9	
262.37	6022.4	
262.58	6094.1	
262.79	4618.9	
263	3669.3	
263.21	5326.8	
263.42	5158.2	
263.63	3725.9	
263.84	3640.6	
264.05	5821	
264.26	6249	
264.47	4500.1	
264.69	4103.4	
264.9	5997.1	
265.11	5521.3	
265.32	3530	
265.53	3558	
265.74	5425.8	
265.95	4745.8	
266.16	3842.7	
266.37	4282.3	
266.58	5436	
266.79	5151.3	
267	3538.2	
267.21	3316.3	
267.42	4908.3	
267.63	5268.7	
267.84	3728.7	
268.06	3226.9	
268.27	5751.4	
268.48	6011.5	
268.69	3654.9	
268.9	4353.3	
269.11	5997.1	
269.32	4792.9	
269.53	3785.3	
269.74	3494.5	
269.95	5643.5	
270.16	4687.8	
270.37	3776.5	
270.58	4412.7	
270.79	5214.1	
271	5771.2	
271.21	4080.9	
271.42	3826.3	
271.63	5493.3	
271.84	4943.1	
272.05	2996.9	
272.26	3431.7	
272.47	5294.7	
272.68	5544.5	
272.89	3642	
273.11	4162.2	
273.32	5169.1	
273.53	6231.3	
273.74	4102.1	
273.95	4031.1	
274.16	5930.2	
274.37	5427.1	
274.58	4131.4	
274.79	3369.6	
275	5461.9	
275.21	5908.4	
275.42	5047.6	
275.63	4250.2	
275.84	5596.4	
276.05	7057.3	
276.26	4024.3	
276.47	3745.7	
276.68	5149.3	
276.89	6305	
277.1	4300.7	
277.31	3268.6	
277.52	5546.6	
277.73	5772.5	
277.94	3314.3	
278.15	3627.6	
278.36	5560.9	
278.57	4947.9	
278.78	3611.9	
278.99	4138.3	
279.2	5016.2	
279.41	4881	
279.62	4793.6	
279.83	3398.9	
280.04	6454.5	
280.25	4912.4	
280.46	4732.9	
280.67	3827.7	
280.88	4967	
281.09	5922.7	
281.3	3951.9	
281.51	5052.3	
281.72	4998.4	
281.93	5797.1	
282.14	3516.4	
282.35	3803.8	
282.56	5806.7	
282.77	5780.1	
282.98	3614.7	
283.19	4526.7	
283.4	7061.4	
283.61	5258.5	
283.82	3336.1	
284.03	4666.6	
284.24	5414.1	
284.45	5940.5	
284.66	4673.5	
284.87	4498	
285.08	5940.5	
285.29	6038.8	
285.5	3209.8	
285.71	3753.2	
285.92	5889.3	
286.12	6490.7	
286.33	4623.6	
286.54	3671.3	
286.75	5818.3	
286.96	5219.6	
287.17	3354.6	
287.38	4543.8	
287.59	4965	
287.8	4896.7	
288.01	3732.8	
288.22	4274.1	
288.43	5802.6	
288.64	4838	
288.85	4420.9	
289.06	4205.8	
289.27	5755.5	
289.48	6223.1	
289.69	4649.6	
289.9	4276.2	
290.11	5931.6	
290.32	4998.4	
290.53	4450.2	
290.74	4124.6	
290.94	5771.9	
291.15	5756.2	
291.36	3606.5	
291.57	4254.3	
291.78	5113.1	
291.99	4724.7	
292.2	3398.9	
292.41	4085	
292.62	5879	
292.83	5638.7	
293.04	5054.4	
293.25	3467.9	
293.46	5130.2	
293.67	5872.2	
293.88	3532.1	
294.09	3407.8	
294.29	4827.1	
294.5	5467.4	
294.71	3832.4	
294.92	3652.9	
295.13	5098.8	
295.34	6411.5	
295.55	3162.1	
295.76	3269.2	
295.97	5711.1	
296.18	6414.2	
296.39	3391.4	
296.6	3604.4	
296.81	5459.2	
297.01	5679	
297.22	3674.7	
297.43	3559.4	
297.64	5000.5	
297.85	4962.9	
298.06	2935.4	
298.27	3174.4	
298.48	5380.7	
298.69	5063.9	
298.9	3849.5	
299.11	3491.8	
299.31	4866.7	
299.52	4918.5	
299.73	4108.2	
299.94	4044.1	
300.15	5353.4	
300.36	4930.1	
300.57	4078.9	
300.78	4061.1	
300.99	5126.1	
301.2	5421.7	
301.4	3491.8	
301.61	3867.9	
301.82	5668.8	
302.03	5778	
302.24	4262.5	
302.45	3367.5	
302.66	5581.4	
302.87	6026.5	
303.08	3581.2	
303.29	4863.2	
303.49	5069.4	
303.7	5366.4	
303.91	3183.2	
304.12	4680.3	
304.33	4859.8	
304.54	5394.3	
304.75	3594.2	
304.96	3406.5	
305.16	5647.6	
305.37	6369.2	
305.58	3098.6	
305.79	3251.5	
306	5643.5	
306.21	4758.1	
306.42	3510.2	
306.63	5471.5	
306.83	5195	
307.04	5854.5	
307.25	3955.3	
307.46	3883.6	
307.67	4593.6	
307.88	5789.6	
308.09	3502	
308.29	3678.8	
308.5	5436	
308.71	5879.7	
308.92	3820.8	
309.13	3451.5	
309.34	5187.5	
309.55	5305.6	
309.75	4461.2	
309.96	4078.9	
310.17	5752.1	
310.38	5005.9	
310.59	4270	
310.8	3334.8	
311.01	6371.9	
311.21	5137	
311.42	3398.3	
311.63	3500	
311.84	5040.1	
312.05	5446.2	
312.26	3897.3	
312.46	4309.6	
312.67	5139	
312.88	4898.7	
313.09	3414	
313.3	3401.7	
313.51	6107.7	
313.71	6444.3	
313.92	3450.8	
314.13	3638.6	
314.34	5532.2	
314.55	5240.1	
314.76	4436.6	
314.96	3819.5	
315.17	5328.1	
315.38	5678.3	
315.59	3402.4	
315.8	3315.7	
316.01	6156.2	
316.21	6242.9	
316.42	3315	
316.63	3824.2	
316.84	5137	
317.05	6053.1	
317.26	4082.3	
317.46	3626.3	
317.67	5297.4	
317.88	5711.8	
318.09	4375.1	
318.3	3244	
318.5	5068.7	
318.71	5657.2	
318.92	5543.2	
319.13	4077.5	
319.34	5857.9	
319.54	5943.9	
319.75	3196.9	
319.96	3104	
320.17	5664	
320.38	5904.3	
320.58	3133.4	
320.79	3753.9	
321	5890.6	
321.21	5918.6	
321.42	3803.8	
321.62	3143.6	
321.83	4907.6	
322.04	5323.4	
322.25	3622.9	
322.46	3436.5	
322.66	5414.8	
322.87	5599.1	
323.08	4268	
323.29	3407.8	
323.5	6349.4	
323.7	4902.8	
323.91	4698	
324.12	4265.9	
324.33	5390.3	
324.53	5705	
324.74	4005.8	
324.95	4281.6	
325.16	4727.4	
325.37	5150	
325.57	3436.5	
325.78	3507.5	
325.99	5459.2	
326.2	4825	
326.4	4915.1	
326.61	3222.1	
326.82	5195.7	
327.03	5410.1	
327.24	4887.1	
327.44	4585.4	
327.65	5629.2	
327.86	4520.5	
328.07	4037.9	
328.27	3302	
328.48	5924.8	
328.69	4891.9	
328.9	4939.7	
329.1	3739.6	
329.31	5209.3	
329.52	6054.5	
329.73	3457.7	
329.93	3883.6	
330.14	5303.6	
330.35	5512.4	
330.56	5694	
330.76	4239.3	
330.97	5191.6	
331.18	5490.6	
331.39	3882.3	
331.59	3082.2	
331.8	5908.4	
332.01	6043.6	
332.22	3533.4	
332.42	4033.1	
332.63	5461.9	
332.84	4980	
333.05	3837.9	
333.25	3489.1	
333.46	5112.4	
333.67	5373.9	
333.88	3568.2	
334.08	4020.8	
334.29	7112.6	
334.5	5969.1	
334.7	3365.5	
334.91	4949.9	
335.12	4855.1	
335.33	5788.9	
335.53	3821.5	
335.74	5653.8	
335.95	5119.9	
336.16	5011.4	
336.36	3827.7	
336.57	4469.4	
336.78	4881	
336.98	5886.5	
337.19	4696.7	
337.4	3753.9	
337.61	6416.3	
337.81	4868.7	
338.02	3507.5	
338.23	4517.1	
338.43	6060.6	
338.64	5000.5	
338.85	3489.1	
339.05	4528.7	
339.26	6173.9	
339.47	4750.6	
339.68	3419.4	
339.88	5150.6	
340.09	5554.1	
340.3	5800.5	
340.5	4074.8	
340.71	3102	
340.92	4822.3	
341.13	5982.1	
341.33	3330	
341.54	4059.8	
341.75	5525.4	
341.95	5157.5	
342.16	3865.9	
342.37	4179.2	
342.57	4895.3	
342.78	5309.7	
342.99	4300.7	
343.19	3087.7	
343.4	5712.5	
343.61	5598.5	
343.81	3627	
344.02	3405.8	
344.23	5721.3	
344.43	6158.9	
344.64	4302.1	
344.85	4164.2	
345.06	5562.3	
345.26	5958.9	
345.47	3987.4	
345.68	4691.2	
345.88	4762.2	
346.09	5787.6	
346.3	4055	
346.5	3117.7	
346.71	5363.6	
346.92	5046.2	
347.12	3191.4	
347.33	3970.3	
347.54	5819	
347.74	6262.7	
347.95	4024.9	
348.16	2935.4	
348.36	5132.9	
348.57	4961.5	
348.78	3948.5	
348.98	4233.8	
349.19	5291.3	
349.39	4792.9	
349.6	3218	
349.81	3503.4	
350.01	5592.3	
350.22	5014.8	
350.43	3828.3	
350.63	4578.6	
350.84	5430.5	
351.05	5092.6	
351.25	3505.4	
351.46	3189.4	
351.67	5893.4	
351.87	5085.1	
352.08	3725.9	
352.29	4181.3	
352.49	5777.3	
352.7	5470.1	
352.9	3394.2	
353.11	4208.6	
353.32	6434	
353.52	5202.5	
353.73	3350.5	
353.94	4259.1	
354.14	5574.6	
354.35	5376.6	
354.55	3425.6	
354.76	3774.4	
354.97	5557.5	
355.17	5340.4	
355.38	3281.5	
355.59	4469.4	
355.79	5030.5	
356	5372.5	
356.2	3805.1	
356.41	3326.6	
356.62	4776.5	
356.82	5302.2	
357.03	4073.4	
357.24	3644.7	
357.44	5040.1	
357.65	5177.9	
357.85	4935.6	
358.06	3840.6	
358.27	4801.1	
358.47	5052.3	
358.68	3184.6	
358.88	4052.2	
359.09	5553.4	
359.3	5881.1	
359.5	4789.5	
359.71	4147.8	
359.91	6338.5	
360.12	5698.1	
360.33	4012.7	
360.53	4471.4	
360.74	5036	
360.94	5113.1	
361.15	4276.2	
361.36	3502	
361.56	5828.5	
361.77	5243.5	
361.97	4752	
362.18	3704.8	
362.38	5841.5	
362.59	4927.4	
362.8	3439.9	
363	3328.6	
363.21	4683.7	
363.41	5410.7	
363.62	3941.7	
363.83	4952	
364.03	5466.7	
364.24	6404.7	
364.44	5005.2	
364.65	5068	
364.85	5223.7	
365.06	4883.7	
365.27	3627.6	
365.47	3670.6	
365.68	6247	
365.88	5214.8	
366.09	4027	
366.29	3753.9	
366.5	5499.5	
366.71	5932.3	
366.91	4993.6	
367.12	4197	
367.32	6428.6	
367.53	5788.9	
367.73	4141.7	
367.94	5103.5	
368.14	5696.1	
368.35	6585.6	
368.56	4151.9	
368.76	3493.8	
368.97	5804.6	
369.17	7477.1	
369.38	3650.8	
369.58	3858.4	
369.79	4876.9	
369.99	6156.2	
370.2	4863.2	
370.4	3957.4	
370.61	5458.5	
370.82	6676.4	
371.02	3952.6	
371.23	3232.4	
371.43	4816.1	
371.64	6108.4	
371.84	3951.2	
372.05	5145.9	
372.25	7455.3	
372.46	5842.2	
372.66	3928.7	
372.87	3915	
373.07	5869.5	
373.28	7541.3	
373.48	4894	
373.69	4628.4	
373.9	5379.3	
374.1	5443.5	
374.31	4881	
374.51	4410.6	
374.72	6226.5	
374.92	5043.5	
375.13	5074.2	
375.33	4297.3	
375.54	5742.5	
375.74	5245.5	
375.95	4343.1	
376.15	5489.2	
376.36	5848.3	
376.56	5679	
376.77	4424.3	
376.97	4853	
377.18	6868.9	
377.38	5926.8	
377.59	5150.6	
377.79	3921.2	
378	5763	
378.2	6186.9	
378.41	4070	
378.61	3963.5	
378.82	6189	
379.02	5352	
379.23	4208.6	
379.43	5246.9	
379.64	6277.7	
379.84	5915.9	
380.05	4062.5	
380.25	3935.5	
380.46	6030.6	
380.66	5591.6	
380.87	5291.3	
381.07	5612.8	
381.28	6610.8	
381.48	5998.5	
381.69	4046.8	
381.89	4020.2	
382.1	4919.2	
382.3	6208.8	
382.51	5096	
382.71	5977.3	
382.91	6036	
383.12	6481.1	
383.32	4313.7	
383.53	4512.4	
383.73	5803.9	
383.94	5589.6	
384.14	4440.7	
384.35	3599	
384.55	5517.2	
384.76	5956.9	
384.96	4274.1	
385.17	4607.2	
385.37	6048.3	
385.58	5234.6	
385.78	4633.2	
385.98	3593.5	
386.19	5431.9	
386.39	5788.9	
386.6	4089.1	
386.8	4327.4	
387.01	5940.5	
387.21	5989.6	
387.42	4685.1	
387.62	5339.7	
387.83	5333.6	
388.03	5870.2	
388.23	4428.4	
388.44	5214.8	
388.64	4975.9	
388.85	5156.1	
389.05	4709.6	
389.26	5378.6	
389.46	6997.2	
389.67	6417.7	
389.87	4672.8	
390.07	4790.2	
390.28	5589.6	
390.48	5184.8	
390.69	3984.7	
390.89	4269.3	
391.1	5390.9	
391.3	6333.7	
391.5	5408	
391.71	6041.5	
391.91	6004	
392.12	7002	
392.32	5505.6	
392.53	4730.1	
392.73	5452.4	
392.93	5653.1	
393.14	4414.1	
393.34	5200.5	
393.55	6074.3	
393.75	5552.7	
393.95	4362.9	
394.16	4272.7	
394.36	5372.5	
394.57	6032	
394.77	3805.8	
394.98	4307.6	
395.18	5276.3	
395.38	5377.3	
395.59	5197.1	
395.79	4109.6	
396	5524.1	
396.2	6040.1	
396.4	5085.8	
396.61	4874.2	
396.81	6206	
397.02	5466.7	
397.22	5191.6	
397.42	5297.4	
397.63	6090.7	
397.83	5464.7	
398.04	4111	
398.24	4646.2	
398.44	5969.1	
398.65	5066	
398.85	4005.1	
399.05	4086.4	
399.26	5406	
399.46	7077.8	
399.67	4511.7	
399.87	4219.5	
400.07	5776	
400.28	6133	
400.48	4317.8	
400.69	5337.7	
400.89	6363.7	
401.09	6790.4	
401.3	4206.5	
401.5	5414.1	
401.7	7035.5	
401.91	7253.9	
402.11	4524	
402.32	4742.4	
402.52	6381.5	
402.72	6255.9	
402.93	4967.7	
403.13	3803.8	
403.33	7051.8	
403.54	5780.7	
403.74	4612	
403.94	5466	
404.15	5849.7	
404.35	6939.9	
404.56	4334.9	
404.76	6186.9	
404.96	6262	
405.17	6078.4	
405.37	5855.1	
405.57	4899.4	
405.78	6246.3	
405.98	5752.7	
406.18	4420.2	
406.39	5282.4	
406.59	6166.4	
406.79	5832.6	
407	4175.1	
407.2	4360.1	
407.4	6305.7	
407.61	6469.5	
407.81	4362.9	
408.01	6469.5	
408.22	5294.7	
408.42	7285.3	
408.62	5442.1	
408.83	4865.3	
409.03	6021.7	
409.23	5793.7	
409.44	5031.9	
409.64	5316.5	
409.84	6905.1	
410.05	6910.5	
410.25	5242.1	
410.45	4906.3	
410.66	6305	
410.86	8685.4	
411.06	5322.7	
411.27	5259.2	
411.47	8584.4	
411.67	6516.6	
411.88	5491.3	
412.08	5648.3	
412.28	7111.9	
412.49	7617.8	
412.69	5285.1	
412.89	5283.8	
413.09	7405.5	
413.3	7257.3	
413.5	5333.6	
413.7	4984.1	
413.91	6513.9	
414.11	7396.6	
414.31	5182.7	
414.52	5630.5	
414.72	7089.4	
414.92	6932.4	
415.12	5229.8	
415.33	5765.7	
415.53	7273	
415.73	7552.9	
415.94	6055.8	
416.14	5479.7	
416.34	6372.6	
416.55	6057.2	
416.75	6683.2	
416.95	6130.9	
417.15	7367.9	
417.36	8028	
417.56	6893.5	
417.76	5930.9	
417.97	7730.4	
418.17	7436.2	
418.37	5502.9	
418.57	5624.4	
418.78	7165.8	
418.98	6857.3	
419.18	6412.2	
419.38	6327.5	
419.59	6877.8	
419.79	6518	
419.99	5468.8	
420.2	5824.4	
420.4	7308.5	
420.6	7507.2	
420.8	5425.1	
421.01	5184.1	
421.21	7176.8	
421.41	7430	
421.61	5747.3	
421.82	5375.2	
422.02	6655.2	
422.22	7641.7	
422.42	6245.6	
422.63	5804.6	
422.83	6856.6	
423.03	7960.5	
423.23	5850.4	
423.44	4835.3	
423.64	6840.2	
423.84	6604.7	
424.04	5296	
424.25	4946.5	
424.45	7745.4	
424.65	7664.9	
424.85	4846.9	
425.06	5342.5	
425.26	7619.1	
425.46	6208.8	
425.66	5838.1	
425.87	5472.9	
426.07	7410.2	
426.27	7292.8	
426.47	5601.9	
426.67	4986.8	
426.88	7679.2	
427.08	7238.9	
427.28	5853.8	
427.48	4845.5	
427.69	6106.4	
427.89	6794.5	
428.09	5685.2	
428.29	4978.6	
428.5	7486.7	
428.7	7008.8	
428.9	4844.8	
429.1	5330.2	
429.3	6892.1	
429.51	7321.5	
429.71	5124.7	
429.91	5931.6	
430.11	7156.3	
430.31	7644.4	
430.52	5449	
430.72	5695.4	
430.92	7757.7	
431.12	7154.2	
431.32	5057.8	
431.53	5482.4	
431.73	6150.7	
431.93	7806.9	
432.13	4991.6	
432.33	4977.9	
432.54	6638.8	
432.74	6981.5	
432.94	4817.5	
433.14	5891.3	
433.34	7176.1	
433.55	6691.4	
433.75	5810.8	
433.95	7552.9	
434.15	6949.4	
434.35	6702.3	
434.56	4969.1	
434.76	4534.9	
434.96	6883.9	
435.16	7109.2	
435.36	4880.3	
435.56	6024.4	
435.77	6574.7	
435.97	6784.2	
436.17	6678.4	
436.37	5946.6	
436.57	6487.3	
436.78	6416.3	
436.98	7634.1	
437.18	6583.5	
437.38	7196.6	
437.58	6737.8	
437.78	6656.6	
437.99	5258.5	
438.19	7129	
438.39	7927.7	
438.59	5220.3	
438.79	4758.8	
438.99	7806.2	
439.2	6680.5	
439.4	4889.2	
439.6	4846.9	
439.8	6984.9	
440	8055.3	
440.2	5872.2	
440.4	5990.3	
440.61	7441.6	
440.81	7871	
441.01	5061.9	
441.21	6001.9	
441.41	7806.2	
441.61	7419.1	
441.81	6278.4	
442.02	7215	
442.22	8228.7	
442.42	7513.3	
442.62	5094	
442.82	5193.6	
443.02	7787.1	
443.22	6944.7	
443.43	5603.9	
443.63	5162.2	
443.83	6778.1	
444.03	6776.7	
444.23	6423.8	
444.43	5976	
444.63	7029.3	
444.83	8234.9	
445.04	5235.3	
445.24	6473.6	
445.44	7448.5	
445.64	7467.6	
445.84	5998.5	
446.04	6030.6	
446.24	6744	
446.44	7737.9	
446.65	5283.8	
446.85	5524.1	
447.05	7116	
447.25	7696.9	
447.45	5674.2	
447.65	5006.6	
447.85	7044.3	
448.05	6698.2	
448.25	6027.9	
448.46	5871.5	
448.66	7115.3	
448.86	6760.3	
449.06	4924.7	
449.26	6084.5	
449.46	7437.5	
449.66	6457.2	
449.86	5595.1	
450.06	5649	
450.26	6670.2	
450.47	7228.6	
450.67	5748.6	
450.87	6242.9	
451.07	7292.1	
451.27	7092.8	
451.47	5128.1	
451.67	5662.6	
451.87	6748.1	
452.07	7919.5	
452.27	5356.1	
452.47	5316.5	
452.67	7074.4	
452.88	7513.3	
453.08	4703.5	
453.28	6622.4	
453.48	8184.4	
453.68	7055.3	
453.88	5234.6	
454.08	5437.4	
454.28	7321.5	
454.48	7016.3	
454.68	5932.3	
454.88	6452.5	
455.08	7447.8	
455.28	7154.2	
455.48	5047.6	
455.68	5672.9	
455.89	7862.8	
456.09	7524.2	
456.29	5371.8	
456.49	5528.2	
456.69	7812.3	
456.89	7199.3	
457.09	5992.4	
457.29	6350.8	
457.49	7315.3	
457.69	7496.9	
457.89	5754.1	
458.09	5199.8	
458.29	7101.7	
458.49	7841.7	
458.69	6177.4	
458.89	5607.3	
459.09	7980.3	
459.29	8157.1	
459.49	5700.9	
459.69	6450.4	
459.9	7568.6	
460.1	7105.8	
460.3	5565	
460.5	5373.9	
460.7	7511.9	
460.9	7309.9	
461.1	5061.9	
461.3	6309.8	
461.5	8187.8	
461.7	7800.7	
461.9	5457.2	
462.1	5892	
462.3	7354.3	
462.5	7874.4	
462.7	5453.7	
462.9	5562.3	
463.1	8874.5	
463.3	8482	
463.5	5799.8	
463.7	6668.2	
463.9	7496.9	
464.1	7821.9	
464.3	5890.6	
464.5	6171.2	
464.7	8039	
464.9	7748.1	
465.1	7372.7	
465.3	6476.4	
465.5	8316.1	
465.7	8284	
465.9	6653.9	
466.1	6445.6	
466.3	8124.3	
466.5	8040.3	
466.7	7373.4	
466.9	6305.7	
467.1	7937.9	
467.3	8977.6	
467.5	7331	
467.7	6194.4	
467.9	9129.2	
468.1	9968.1	
468.3	6946.7	
468.5	7449.8	
468.7	7898.3	
468.9	7899	
469.1	6505	
469.3	7181.5	
469.5	9787.2	
469.7	7480.5	
469.9	6916.7	
470.1	6210.1	
470.3	7968.6	
470.5	7941.3	
470.7	7419.1	
470.9	6347.3	
471.1	7682.6	
471.3	8107.2	
471.5	6090.7	
471.69	8057.4	
471.89	7567.2	
472.09	7103	
472.29	6890	
472.49	7239.6	
472.69	7333.1	
472.89	8145.5	
473.09	5971.2	
473.29	6257.9	
473.49	7464.8	
473.69	7745.4	
473.89	7112.6	
474.09	6288.6	
474.29	8759.8	
474.49	8583	
474.69	7057.3	
474.89	6413.6	
475.09	7651.2	
475.29	7606.8	
475.49	5870.2	
475.69	6100.2	
475.88	9179.7	
476.08	7906.5	
476.28	5785.5	
476.48	6286.6	
476.68	8335.9	
476.88	8243.1	
477.08	6108.4	
477.28	6370.5	
477.48	7754.3	
477.68	8344.1	
477.88	5837.4	
478.08	6262.7	
478.28	8660.9	
478.48	7880.6	
478.67	6297.5	
478.87	5713.2	
479.07	8406.9	
479.27	7894.9	
479.47	6505	
479.67	6449.1	
479.87	8267.6	
480.07	8850	
480.27	5723.4	
480.47	7363.1	
480.67	7948.8	
480.87	8460.2	
481.06	6027.2	
481.26	6841.6	
481.46	7891.5	
481.66	7890.1	
481.86	6380.1	
482.06	7486.7	
482.26	7578.8	
482.46	8641.7	
482.66	6373.3	
482.86	5996.5	
483.05	7894.2	
483.25	7413	
483.45	8725	
483.65	6357.6	
483.85	7522.2	
484.05	7836.2	
484.25	6824.5	
484.45	7252.5	
484.65	8628.8	
484.84	8641.7	
485.04	6292.7	
485.24	6215.6	
485.44	8895.7	
485.64	7182.9	
485.84	5615.5	
486.04	6877.1	
486.24	7645.8	
486.44	7924.3	
486.63	5522.7	
486.83	6336.4	
487.03	7464.2	
487.23	7748.1	
487.43	5666	
487.63	8016.4	
487.83	7676.5	
488.02	8595.3	
488.22	6584.9	
488.42	7167.9	
488.62	8561.2	
488.82	7583.6	
489.02	6244.9	
489.22	6279.1	
489.41	8434.9	
489.61	8134.5	
489.81	6009.4	
490.01	6055.2	
490.21	8435.6	
490.41	8974.9	
490.61	5943.9	
490.8	6079.1	
491	7744.1	
491.2	7258	
491.4	6700.3	
491.6	5707.7	
491.8	7860.8	
491.99	8056	
492.19	5687.2	
492.39	6008.7	
492.59	8318.2	
492.79	8423.3	
492.99	6830	
493.18	5942.5	
493.38	8413.1	
493.58	9089.6	
493.78	6600.6	
493.98	6244.9	
494.18	8135.9	
494.37	7542.7	
494.57	6774.7	
494.77	6644.3	
494.97	8279.9	
495.17	8611.7	
495.37	6296.1	
495.56	6522.8	
495.76	8771.5	
495.96	8414.4	
496.16	7520.8	
496.36	6438.8	
496.55	8635.6	
496.75	8121.6	
496.95	6871.6	
497.15	6634.7	
497.35	8490.9	
497.54	8595.3	
497.74	6436.8	
497.94	8049.2	
498.14	9160.6	
498.34	9022.7	
498.53	6011.5	
498.73	6940.6	
498.93	7891.5	
499.13	8387.1	
499.33	6759.7	
499.52	7316.7	
499.72	8490.2	
499.92	8816.5	
500.12	6365.1	
500.32	6679.8	
500.51	8766.7	
500.71	8426	
500.91	7428.7	
501.11	7027.3	
501.31	8667	
501.5	9007	
501.7	7705.1	
501.9	6742.6	
502.1	8479.3	
502.29	8710	
502.49	7164.5	
502.69	7621.9	
502.89	8725.7	
503.09	8617.2	
503.28	6244.3	
503.48	6384.9	
503.68	7849.2	
503.88	7897	
504.07	7281.2	
504.27	6757.6	
504.47	8295.6	
504.67	8438.3	
504.86	7202.7	
505.06	6854.6	
505.26	8029.4	
505.46	9686.9	
505.65	6716	
505.85	7002.7	
506.05	7871.7	
506.25	8394.6	
506.44	6214.9	
506.64	7032	
506.84	7852.6	
507.04	8782.4	
507.23	6374.6	
507.43	6894.8	
507.63	9725.1	
507.83	8013.7	
508.02	6855.2	
508.22	6440.9	
508.42	10043	
508.62	7835.5	
508.81	6858	
509.01	7329.7	
509.21	7866.9	
509.4	7949.5	
509.6	7071	
509.8	6350.8	
510	8008.2	
510.19	9382.4	
510.39	6333.7	
510.59	6433.4	
510.79	7757	
510.98	9042.5	
511.18	6404	
511.38	6558.3	
511.57	8593.3	
511.77	8496.3	
511.97	7176.8	
512.17	6238.1	
512.36	8508.6	
512.56	8473.1	
512.76	6324.8	
512.95	5986.9	
513.15	8662.9	
513.35	7367.2	
513.55	7109.2	
513.74	6331	
513.94	8619.9	
514.14	7933.8	
514.33	7169.9	
514.53	6946	
514.73	7920.9	
514.92	8118.1	
515.12	6422.4	
515.32	6210.8	
515.51	8120.2	
515.71	8715.5	
515.91	7919.5	
516.11	6296.8	
516.3	9843.9	
516.5	7772	
516.7	6858.6	
516.89	7417.1	
517.09	7920.2	
517.29	7804.8	
517.48	7045	
517.68	6480.5	
517.88	7656	
518.07	8308.6	
518.27	7063.4	
518.47	6054.5	
518.66	8863.6	
518.86	7526.3	
519.06	5920.7	
519.25	6364.4	
519.45	7800.7	
519.65	9161.9	
519.84	6916.7	
520.04	7724.3	
520.24	9621.4	
520.43	8340	
520.63	6689.3	
520.83	6427.2	
521.02	7631.4	
521.22	8265.6	
521.42	6963.1	
521.61	7404.8	
521.81	7961.8	
522.01	8065.6	
522.2	6770.6	
522.4	6602.7	
522.6	8508.6	
522.79	7351.5	
522.99	6655.2	
523.18	5945.9	
523.38	8245.1	
523.58	8220.5	
523.77	7857.4	
523.97	5912.5	
524.17	9964.1	
524.36	9202.9	
524.56	7240.9	
524.76	6900.3	
524.95	8135.9	
525.15	7871.7	
525.34	6720.8	
525.54	6624.5	
525.74	8574.8	
525.93	7532.4	
526.13	7810.3	
526.33	6584.9	
526.52	8800.8	
526.72	8255.4	
526.91	7784.3	
527.11	7136.5	
527.31	8837	
527.5	9266.4	
527.7	7049.1	
527.89	6065.4	
528.09	7890.1	
528.29	8342.7	
528.48	7365.2	
528.68	7099.6	
528.87	8647.2	
529.07	8758.5	
529.27	6956.9	
529.46	6398.5	
529.66	8338.6	
529.85	8748.2	
530.05	6405.4	
530.25	7103	
530.44	9643.9	
530.64	8269.7	
530.83	6715.3	
531.03	6933.7	
531.23	8723	
531.42	8598.1	
531.62	7712	
531.81	6846.4	
532.01	8762.6	
532.21	9224.1	
532.4	6614.3	
532.6	7004.1	
532.79	9704	
532.99	8771.5	
533.18	7020.4	
533.38	7894.9	
533.58	8297	
533.77	9053.4	
533.97	6954.2	
534.16	7740	
534.36	9240.4	
534.55	8301.8	
534.75	7858.1	
534.95	7002.7	
535.14	9139.4	
535.34	8350.3	
535.53	6670.9	
535.73	8591.9	
535.92	9764.7	
536.12	8581	
536.31	6855.9	
536.51	7996.6	
536.71	8817.2	
536.9	8393.3	
537.1	6966.5	
537.29	7149.5	
537.49	9263	
537.68	8277.9	
537.88	7382.9	
538.07	6646.3	
538.27	8413.7	
538.46	9472.5	
538.66	6491.4	
538.86	6926.9	
539.05	8468.4	
539.25	8909.3	
539.44	7265.5	
539.64	6864.1	
539.83	8430.1	
540.03	9306.7	
540.22	6679.1	
540.42	6888	
540.61	8642.4	
540.81	8753	
541	7384.3	
541.2	7966.6	
541.39	8151.6	
541.59	8530.5	
541.78	7585.7	
541.98	6735.1	
542.18	7946.1	
542.37	7875.8	
542.57	7114.6	
542.76	7627.3	
542.96	8004.8	
543.15	8615.1	
543.35	7178.1	
543.54	6453.1	
543.74	8970.8	
543.93	8538	
544.13	7163.1	
544.32	8263.6	
544.52	8812.4	
544.71	8071	
544.91	6218.3	
545.1	7477.1	
545.3	8128.4	
545.49	8770.1	
545.69	6144.6	
545.88	6791.1	
546.08	9633.6	
546.27	9266.4	
546.47	7296.9	
546.66	6568.5	
546.86	8944.2	
547.05	9564	
547.24	6843.6	
547.44	6575.3	
547.63	8000	
547.83	9064.3	
548.02	7089.4	
548.22	7291.5	
548.41	7806.2	
548.61	9083.4	
548.8	6601.3	
549	6549.4	
549.19	8458.8	
549.39	8699.8	
549.58	6293.4	
549.78	6952.9	
549.97	8817.2	
550.17	8277.2	
550.36	7752.2	
550.55	8607.6	
550.75	8201.4	
550.94	9251.4	
551.14	6436.1	
551.33	6896.2	
551.53	7647.8	
551.72	8645.8	
551.92	6938.5	
552.11	6624.5	
552.31	8675.2	
552.5	8611.7	
552.69	8137.9	
552.89	6326.9	
553.08	8604.2	
553.28	8234.2	
553.47	6731.7	
553.67	7909.9	
553.86	9237.7	
554.06	7588.4	
554.25	5866.7	
554.44	6465.4	
554.64	9985.9	
554.83	9404.3	
555.03	6457.2	
555.22	6774	
555.42	8785.1	
555.61	8470.4	
555.8	6569.9	
556	6853.2	
556.19	7617.1	
556.39	9015.2	
556.58	6686.6	
556.78	6651.1	
556.97	8340	
557.16	8016.4	
557.36	7827.3	
557.55	6339.1	
557.75	7374.1	
557.94	9107.3	
558.13	6457.9	
558.33	6086.6	
558.52	8951.7	
558.72	7798	
558.91	6290.7	
559.1	6514.6	
559.3	7528.3	
559.49	7276.4	
559.69	5803.9	
559.88	6853.2	
560.07	8310.7	
560.27	8748.9	
560.46	7080.5	
560.66	7090.1	
560.85	8098.4	
561.04	7348.8	
561.24	6249	
561.43	6501.6	
561.63	7699	
561.82	7804.8	
562.01	7677.2	
562.21	6819.1	
562.4	8353	
562.59	9202.9	
562.79	6535.1	
562.98	6264.7	
563.18	8221.2	
563.37	9684.8	
563.56	6982.2	
563.76	6226.5	
563.95	7674.4	
564.14	7584.3	
564.34	6582.2	
564.53	6337.8	
564.73	8230.1	
564.92	8551	
565.11	6703	
565.31	6060.6	
565.5	8816.5	
565.69	7715.4	
565.89	6335	
566.08	6535.8	
566.27	8575.5	
566.47	9030.9	
566.66	7135.8	
566.85	5857.9	
567.05	8190.5	
567.24	7645.7	
567.44	6223.1	
567.63	7547.4	
567.82	8358.4	
568.02	8248.5	
568.21	6191.7	
568.4	6585.6	
568.6	8009.6	
568.79	7985	
568.98	6085.9	
569.18	6148.7	
569.37	8062.9	
569.56	10036	
569.76	6580.1	
569.95	7477.8	
570.14	8432.2	
570.34	8362.5	
570.53	6055.2	
570.72	6097.5	
570.91	8840.4	
571.11	7957	
571.3	6581.5	
571.49	7521.5	
571.69	8071.7	
571.88	7582.3	
572.07	7092.8	
572.27	7066.9	
572.46	7595.9	
572.65	8652	
572.85	6374.6	
573.04	6679.8	
573.23	8845.9	
573.43	8105.9	
573.62	6066.8	
573.81	6735.8	
574	8182.3	
574.2	7922.2	
574.39	6419	
574.58	6575.3	
574.78	8931.9	
574.97	8232.8	
575.16	6918	
575.36	7113.3	
575.55	8555	
575.74	8751	
575.93	6051.1	
576.13	7151.5	
576.32	8088.1	
576.51	8548.2	
576.71	6488	
576.9	7830.7	
577.09	8947.6	
577.28	8376.9	
577.48	6937.2	
577.67	5896.1	
577.86	7998.7	
578.05	8346.8	
578.25	6550.1	
578.44	6705.7	
578.63	8077.9	
578.83	9339.4	
579.02	5991.7	
579.21	7456.7	
579.4	8350.9	
579.6	7994.6	
579.79	6806.8	
579.98	8890.9	
580.17	8665	
580.37	8774.9	
580.56	6262.7	
580.75	7021.1	
580.94	9200.8	
581.14	9062.9	
581.33	7393.2	
581.52	6376.7	
581.71	8529.8	
581.91	9166	
582.1	6020.3	
582.29	6700.3	
582.48	8242.4	
582.68	8097.7	
582.87	7098.9	
583.06	6698.9	
583.25	8436.3	
583.45	8127.7	
583.64	7364.5	
583.83	8020.5	
584.02	8115.4	
584.21	8402.1	
584.41	7355.6	
584.6	6686.6	
584.79	8148.9	
584.98	8911.4	
585.18	6163.7	
585.37	6077	
585.56	7653.9	
585.75	8521.6	
585.94	6359.6	
586.14	7017.7	
586.33	9143.5	
586.52	8169.3	
586.71	6827.9	
586.91	6511.9	
587.1	7528.3	
587.29	8604.9	
587.48	6542.6	
587.67	6453.8	
587.87	8391.2	
588.06	8492.9	
588.25	7690.8	
588.44	7111.9	
588.63	8125	
588.83	8699.8	
589.02	6556.9	
589.21	6517.3	
589.4	8008.2	
589.59	7882.6	
589.78	5740.5	
589.98	6098.2	
590.17	7477.8	
590.36	8112	
590.55	5530.9	
590.74	6475.7	
590.94	9407.7	
591.13	8028	
591.32	6100.2	
591.51	5614.8	
591.7	8409	
591.89	7868.3	
592.09	5820.3	
592.28	6224.5	
592.47	7218.4	
592.66	9062.9	
592.85	5750	
593.05	5954.1	
593.24	7778.2	
593.43	8442.4	
593.62	6012.2	
593.81	6473.6	
594	7785	
594.19	8023.3	
594.39	5941.2	
594.58	5924.1	
594.77	8097	
594.96	8645.8	
595.15	5825.1	
595.34	6516.6	
595.54	8092.2	
595.73	7301	
595.92	5294	
596.11	6448.4	
596.3	8692.9	
596.49	7320.8	
596.68	6169.8	
596.88	6617.7	
597.07	8391.2	
597.26	7182.9	
597.45	5684.5	
597.64	6817.7	
597.83	7460.1	
598.02	8041.7	
598.22	5776	
598.41	6393.1	
598.6	7832.1	
598.79	7317.4	
598.98	5827.2	
599.17	6677.7	
599.36	7792.5	
599.55	8933.9	
599.74	7766.6	
599.94	7480.5	
600.13	8254	
600.32	7259.4	
600.51	5515.2	
600.7	5683.1	
600.89	8953.7	
601.08	9035.6	
601.27	5498.8	
601.47	6421.1	
601.66	8263.6	
601.85	8865	
602.04	6121.4	
602.23	6342.6	
602.42	7303.7	
602.61	7976.2	
602.8	5976	
602.99	5829.2	
603.18	7669	
603.37	7897	
603.57	6428.6	
603.76	6948.1	
603.95	8660.2	
604.14	8114.1	
604.33	5821	
604.52	6195.8	
604.71	7815	
604.9	7417.7	
605.09	7161.7	
605.28	6625.9	
605.47	8416.5	
605.66	8140.7	
605.86	6361	
606.05	5907.7	
606.24	8501.1	
606.43	7000	
606.62	6211.5	
606.81	6919.4	
607	8254	
607.19	7585.7	
607.38	5647.6	
607.57	5883.1	
607.76	7371.3	
607.95	6847	
608.14	6285.2	
608.33	6871.6	
608.52	7403.4	
608.72	8264.9	
608.91	5550.7	
609.1	5469.4	
609.29	7488.7	
609.48	7005.4	
609.67	6432.7	
609.86	5512.4	
610.05	7079.8	
610.24	7557.7	
610.43	5397.1	
610.62	4995	
610.81	8503.8	
611	8282	
611.19	5476.3	
611.38	6240.2	
611.57	7755	
611.76	9058.2	
611.95	5383.4	
612.14	5214.1	
612.33	7484	
612.52	7096.9	
612.71	5823.7	
612.9	5125.4	
613.09	6721.4	
613.28	8991.9	
613.47	5599.1	
613.66	6505.7	
613.85	7618.4	
614.04	7202	
614.24	5679.7	
614.43	4930.1	
614.62	7759.8	
614.81	7711.3	
615	6231.3	
615.19	6225.1	
615.38	7049.1	
615.57	7389.1	
615.76	6073.6	
615.95	6976.7	
616.14	7832.8	
616.33	7455.3	
616.52	6356.9	
616.71	6512.5	
616.9	7804.1	
617.09	7621.2	
617.28	5806.7	
617.47	6915.3	
617.66	6889.4	
617.85	6929	
618.04	6584.2	
618.22	6071.5	
618.41	7201.3	
618.6	8029.4	
618.79	5945.9	
618.98	5681.1	
619.17	8307.9	
619.36	6787	
619.55	5764.3	
619.74	5853.8	
619.93	7696.3	
620.12	7092.8	
620.31	6348	
620.5	6526.2	
620.69	8146.8	
620.88	8482	
621.07	7184.3	
621.26	6193.1	
621.45	7783.6	
621.64	7779.6	
621.83	6378.1	
622.02	5567.1	
622.21	7918.1	
622.4	7505.1	
622.59	6904.4	
622.78	6606.7	
622.97	7135.1	
623.16	8170.7	
623.35	6260	
623.54	5522.7	
623.72	7427.3	
623.91	7530.4	
624.1	6589.7	
624.29	5301.5	
624.48	8602.8	
624.67	7856.7	
624.86	6485.9	
625.05	5537.7	
625.24	8656.1	
625.43	7088	
625.62	8083.3	
625.81	5698.8	
626	8162.5	
626.19	7314.7	
626.38	6574.7	
626.56	5987.6	
626.75	7249.8	
626.94	8030.1	
627.13	6465.4	
627.32	5259.2	
627.51	7948.2	
627.7	9121	
627.89	5453.7	
628.08	6541.9	
628.27	7186.3	
628.46	7423.9	
628.65	5724.1	
628.83	5414.1	
629.02	7871	
629.21	7143.3	
629.4	6189.6	
629.59	6266.8	
629.78	7122.8	
629.97	8143.4	
630.16	6335	
630.35	5870.8	
630.54	8417.8	
630.72	8265.6	
630.91	5842.9	
631.1	6324.1	
631.29	7723.6	
631.48	7899	
631.67	6430.6	
631.86	5905.7	
632.05	7316	
632.24	7322.9	
632.42	5558.9	
632.61	6131.6	
632.8	7463.5	
632.99	7056.6	
633.18	6188.3	
633.37	6593.8	
633.56	7721.5	
633.75	7548.1	
633.93	6200.6	
634.12	5877	
634.31	8516.1	
634.5	8150.2	
634.69	5932.3	
634.88	6429.3	
635.07	7451.2	
635.25	8103.1	
635.44	6840.2	
635.63	7002.7	
635.82	7313.3	
636.01	6801.3	
636.2	6769.2	
636.39	6292	
636.57	8406.2	
636.76	8090.2	
636.95	5694.7	
637.14	7030.7	
637.33	7797.3	
637.52	8700.5	
637.7	5567.1	
637.89	6350.1	
638.08	7317.4	
638.27	8687.5	
638.46	6508.4	
638.65	6939.2	
638.83	8815.1	
639.02	7204.8	
639.21	6429.3	
639.4	6900.3	
639.59	7690.8	
639.78	7312.6	
639.96	5753.4	
640.15	5822.4	
640.34	7580.2	
640.53	7610.3	
640.72	5539.8	
640.91	5825.1	
641.09	7032.7	
641.28	8312.7	
641.47	5846.3	
641.66	6580.8	
641.85	7732.4	
642.03	7922.2	
642.22	6404	
642.41	5867.4	
642.6	7126.2	
642.79	6527.6	
642.97	5721.3	
643.16	6442.9	
643.35	7055.9	
643.54	7006.1	
643.73	5563.6	
643.91	6443.6	
644.1	6840.2	
644.29	7438.2	
644.48	5711.8	
644.67	5803.3	
644.85	7013.6	
645.04	7341.3	
645.23	5443.5	
645.42	5715.2	
645.6	6983.6	
645.79	8086.1	
645.98	5657.2	
646.17	4774.5	
646.36	6640.9	
646.54	7295.5	
646.73	6520.7	
646.92	5349.3	
647.11	6969.2	
647.29	7909.3	
647.48	5411.4	
647.67	5195	
647.86	8206.9	
648.05	8126.3	
648.23	5757.5	
648.42	7040.2	
648.61	7640.3	
648.8	7291.5	
648.98	5394.3	
649.17	5722	
649.36	6896.2	
649.55	6350.8	
649.73	5410.1	
649.92	6116.6	
650.11	6694.1	
650.3	7145.4	
650.48	5616.2	
650.67	5236	
650.86	7415.7	
651.05	6367.1	
651.23	5489.9	
651.42	5394.3	
651.61	6874.3	
651.79	6990.4	
651.98	5742.5	
652.17	5339.1	
652.36	7309.2	
652.54	6318.7	
652.73	5377.3	
652.92	5216.2	
653.11	7412.3	
653.29	7406.8	
653.48	4724	
653.67	5683.1	
653.85	7141.3	
654.04	8221.2	
654.23	5921.4	
654.42	5473.5	
654.6	6725.5	
654.79	7301	
654.98	4992.9	
655.16	5437.4	
655.35	6352.1	
655.54	6249	
655.73	5049.6	
655.91	4925.4	
656.1	7404.1	
656.29	6227.2	
656.47	4544.4	
656.66	6160.3	
656.85	6513.9	
657.03	6500.9	
657.22	5047.6	
657.41	5093.3	
657.59	6556.2	
657.78	6374.6	
657.97	4657.8	
658.16	5496.7	
658.34	7251.9	
658.53	7583.6	
658.72	6287.3	
658.9	6860	
659.09	6569.2	
659.28	6750.1	
659.46	5186.8	
659.65	5081	
659.84	6450.4	
660.02	6970.6	
660.21	4988.9	
660.4	5023.7	
660.58	7380.9	
660.77	6727.6	
660.96	5597.1	
661.14	4689.8	
661.33	7823.2	
661.52	7746.1	
661.7	4607.2	
661.89	8137.3	
662.08	6401.3	
662.26	6072.9	
662.45	4857.8	
662.64	4987.5	
662.82	7101.7	
663.01	6326.9	
663.2	5032.5	
663.38	5727.5	
663.57	6935.8	
663.75	6915.3	
663.94	5324	
664.13	6614.3	
664.31	6417	
664.5	7101	
664.69	5534.3	
664.87	6124.8	
665.06	6191.7	
665.25	6843.6	
665.43	6343.9	
665.62	6447	
665.8	7193.1	
665.99	6494.8	
666.18	5292	
666.36	5431.2	
666.55	7226.6	
666.74	7065.5	
666.92	4969.1	
667.11	6636.8	
667.29	6588.3	
667.48	7041.6	
667.67	6242.9	
667.85	5225.7	
668.04	6532.3	
668.22	6546.7	
668.41	5401.2	
668.6	5547.9	
668.78	6381.5	
668.97	6576	
669.15	5791	
669.34	4740.4	
669.53	6403.3	
669.71	6739.9	
669.9	4995.7	
670.08	5631.2	
670.27	6295.5	
670.46	6936.5	
670.64	5707	
670.83	5961.6	
671.01	6150.7	
671.2	6895.5	
671.38	4977.9	
671.57	4887.1	
671.76	7388.4	
671.94	7980.9	
672.13	4848.9	
672.31	5924.8	
672.5	7026.6	
672.69	6363.7	
672.87	4984.1	
673.06	5319.3	
673.24	6892.1	
673.43	6404	
673.61	5707.7	
673.8	5275.6	
673.98	7098.9	
674.17	7188.4	
674.36	5913.9	
674.54	5691.3	
674.73	6817.7	
674.91	7103.7	
675.1	5364.3	
675.28	5089.9	
675.47	6576.7	
675.65	7129.7	
675.84	5266	
676.03	5608	
676.21	6303	
676.4	5881.8	
676.58	6051.1	
676.77	5791.7	
676.95	7817.1	
677.14	6290.7	
677.32	4949.3	
677.51	4794.3	
677.69	7115.3	
677.88	6002.6	
678.06	4874.2	
678.25	4985.4	
678.44	6608.1	
678.62	6334.4	
678.81	4686.4	
678.99	5543.2	
679.18	7367.2	
679.36	6948.8	
679.55	5212.8	
679.73	5854.5	
679.92	6969.9	
680.1	6401.3	
680.29	6438.8	
680.47	5272.2	
680.66	6272.9	
680.84	7133.1	
681.03	4558.8	
681.21	5802.6	
681.4	6354.2	
681.58	6293.4	
681.77	5024.3	
681.95	4956.1	
682.14	7197.2	
682.32	7441	
682.51	5840.1	
682.69	4689.2	
682.88	6297.5	
683.06	6932.4	
683.25	5516.5	
683.43	6067.4	
683.62	6561.7	
683.8	7043	
683.99	6150.7	
684.17	5464	
684.36	7833.5	
684.54	6571.9	
684.73	4719.2	
684.91	4954	
685.1	6807.4	
685.28	6312.5	
685.46	5531.6	
685.65	5566.4	
685.83	7198.6	
686.02	6561.7	
686.2	5001.8	
686.39	5165	
686.57	6176	
686.76	7733.8	
686.94	5062.6	
687.13	5153.4	
687.31	6959	
687.5	6487.3	
687.68	4623.6	
687.86	5855.8	
688.05	8206.9	
688.23	5990.3	
688.42	5857.9	
688.6	5028.4	
688.79	6376.7	
688.97	6384.9	
689.16	5393.7	
689.34	4392.9	
689.52	7081.9	
689.71	7327.6	
689.89	5694.7	
690.08	5071.5	
690.26	6668.2	
690.45	6507.1	
690.63	5973.9	
690.81	5173.9	
691	6446.3	
691.18	6303.6	
691.37	5365.7	
691.55	7499.7	
691.74	6290	
691.92	8311.3	
692.1	5306.3	
692.29	4724.7	
692.47	6512.5	
692.66	5848.3	
692.84	5027.1	
693.02	5586.2	
693.21	5905.7	
693.39	6464.8	
693.58	5591.6	
693.76	5036.6	
693.94	7557.7	
694.13	7358.4	
694.31	4926	
694.5	6096.1	
694.68	6209.4	
694.86	6522.1	
695.05	5428.5	
695.23	5410.1	
695.42	6911.2	
695.6	9118.2	
695.78	5950.7	
695.97	5090.6	
696.15	7062.1	
696.34	6371.2	
696.52	4835.3	
696.7	5717.2	
696.89	6805.4	
697.07	6182.1	
697.25	5629.9	
697.44	7007.5	
697.62	6746.7	
697.81	7072.3	
697.99	5289.9	
698.17	5740.5	
698.36	6122.1	
698.54	6771.3	
698.72	5656.5	
698.91	4638	
699.09	6356.9	
699.28	6223.8	
699.46	5295.4	
699.64	5118.6	
699.83	6137.8	
700.01	7344.7	
700.19	5941.8	
700.38	4358.8	
700.56	7313.3	
700.74	6217	
700.93	4685.8	
701.11	5603.9	
701.29	6835.4	
701.48	7834.8	
701.66	5033.2	
701.84	5038	
702.03	6327.5	
702.21	6939.2	
702.39	4573.1	
702.58	5201.8	
702.76	6776.7	
702.94	6827.2	
703.13	4593.6	
703.31	7004.1	
703.49	6032	
703.68	7002.7	
703.86	4782	
704.04	5741.8	
704.23	6514.6	
704.41	6979.5	
704.59	4857.8	
704.78	6219.7	
704.96	7578.2	
705.14	7033.4	
705.33	4716.5	
705.51	5535.7	
705.69	6354.8	
705.87	7247.8	
706.06	5784.1	
706.24	4687.8	
706.42	6691.4	
706.61	6921.5	
706.79	5826.5	
706.97	4724	
707.16	6158.2	
707.34	6701	
707.52	5779.4	
707.7	4904.9	
707.89	6193.7	
708.07	5961.6	
708.25	5825.8	
708.44	5869.5	
708.62	6203.3	
708.8	7298.3	
708.98	6064.7	
709.17	5010	
709.35	6656.6	
709.53	6639.5	
709.72	4715.1	
709.9	5232.6	
710.08	6843.6	
710.26	6915.3	
710.45	6318	
710.63	5009.3	
710.81	6570.6	
710.99	6620.4	
711.18	5638.1	
711.36	5172.5	
711.54	6395.8	
711.72	7189.7	
711.91	5227.1	
712.09	4652.3	
712.27	6578.1	
712.45	7187	
712.64	5526.1	
712.82	4533.5	
713	6117.3	
713.18	6217	
713.37	4696	
713.55	5984.2	
713.73	7181.5	
713.91	5819	
714.1	5162.9	
714.28	4662.5	
714.46	6941.9	
714.64	6087.2	
714.83	4137.6	
715.01	4976.6	
715.19	6251.8	
715.37	5616.9	
715.55	4685.1	
715.74	5009.3	
715.92	7105.1	
716.1	5245.5	
716.28	6228.6	
716.47	5056.4	
716.65	5876.3	
716.83	5993.7	
717.01	5050.3	
717.19	5093.3	
717.38	7999.4	
717.56	5636	
717.74	5244.2	
717.92	4440.7	
718.1	6801.3	
718.29	5948	
718.47	3931.4	
718.65	4632.5	
718.83	6620.4	
719.01	6594.5	
719.2	3783.3	
719.38	4912.4	
719.56	6312.5	
719.74	7849.2	
719.92	4444.8	
720.11	5564.3	
720.29	6412.2	
720.47	5440.1	
720.65	4054.3	
720.83	4988.9	
721.02	5866.7	
721.2	5705.6	
721.38	5038	
721.56	4287.1	
721.74	5182.7	
721.92	5399.8	
722.11	5528.2	
722.29	5259.9	
722.47	6653.9	
722.65	5827.8	
722.83	4323.9	
723.01	5311.1	
723.2	5890.6	
723.38	6156.2	
723.56	3734.1	
723.74	4965.6	
723.92	5354.8	
724.1	6571.2	
724.29	4265.2	
724.47	5382.7	
724.65	5419.6	
724.83	5353.4	
725.01	4134.8	
725.19	5024.3	
725.37	5414.1	
725.56	5509.7	
725.74	3997	
725.92	4257	
726.1	5280.3	
726.28	5601.2	
726.46	4666.6	
726.64	4365.6	
726.83	5660.6	
727.01	5907	
727.19	4009.2	
727.37	4772.4	
727.55	5766.4	
727.73	6242.9	
727.91	3961.5	
728.09	3820.1	
728.28	6270.2	
728.46	6860	
728.64	4887.1	
728.82	4850.3	
729	7339.9	
729.18	6551.5	
729.36	4033.1	
729.54	6284.5	
729.72	7509.9	
729.91	5765	
730.09	5932.3	
730.27	4648.2	
730.45	5728.9	
730.63	6389.7	
730.81	5266.7	
730.99	4292.5	
731.17	6823.8	
731.35	5453.1	
731.53	4877.6	
731.71	4500.8	
731.9	6514.6	
732.08	6792.4	
732.26	4755.4	
732.44	4387.4	
732.62	6767.9	
732.8	6259.3	
732.98	5126.1	
733.16	4151.2	
733.34	6310.5	
733.52	5107.6	
733.7	4704.9	
733.88	4952.7	
734.07	6049.7	
734.25	5898.8	
734.43	4156	
734.61	5750.7	
734.79	7286	
734.97	5764.3	
735.15	4252.9	
735.33	4657.1	
735.51	6178	
735.69	5756.8	
735.87	5687.9	
736.05	4810	
736.23	5969.1	
736.41	5724.8	
736.59	4681.7	
736.77	4742.4	
736.95	6322.1	
737.13	5794.4	
737.32	4317.1	
737.5	4515.1	
737.68	6902.3	
737.86	5726.1	
738.04	4137.6	
738.22	6026.5	
738.4	5569.8	
738.58	5855.8	
738.76	4784.7	
738.94	3704.1	
739.12	5651.7	
739.3	5576.6	
739.48	5364.3	
739.66	5074.2	
739.84	5893.4	
740.02	5923.4	
740.2	3773.7	
740.38	4207.9	
740.56	6321.4	
740.74	5156.1	
740.92	4828.4	
741.1	4740.4	
741.28	5781.4	
741.46	5548.6	
741.64	4409.3	
741.82	4891.9	
742	5734.3	
742.18	5748	
742.36	4567	
742.54	4171.7	
742.72	6358.3	
742.9	5094.7	
743.08	4930.1	
743.26	3804.4	
743.44	6554.9	
743.62	6407.4	
743.8	5117.9	
743.98	4168.3	
744.16	6065.4	
744.34	5809.4	
744.52	5050.3	
744.7	5020.3	
744.88	6275.7	
745.06	5750.7	
745.24	5104.2	
745.42	5190.2	
745.6	6337.1	
745.78	6162.3	
745.96	3945.1	
746.14	4248.9	
746.32	7077.8	
746.5	6373.3	
746.68	4810	
746.86	4323.9	
747.03	6706.4	
747.21	5082.4	
747.39	4795.7	
747.57	4355.3	
747.75	5949.3	
747.93	6395.1	
748.11	4326	
748.29	4197.7	
748.47	7485.3	
748.65	5770.5	
748.83	4978.6	
749.01	4706.9	
749.19	6185.5	
749.37	5352.7	
749.55	4592.2	
749.73	4660.5	
749.91	5830.6	
750.09	5614.8	
750.26	4682.3	
750.44	4143	
750.62	5893.4	
750.8	5795.8	
750.98	3979.2	
751.16	4317.1	
751.34	5963.7	
751.52	5294	
751.7	5107.6	
751.88	3996.3	
752.06	6384.2	
752.24	6184.2	
752.42	3915.7	
752.59	4267.3	
752.77	5822.4	
752.95	6999.3	
753.13	5047.6	
753.31	4394.9	
753.49	5528.2	
753.67	6001.9	
753.85	4685.8	
754.03	4345.8	
754.21	6275	
754.38	6612.9	
754.56	4556.7	
754.74	3556.6	
754.92	5554.8	
755.1	6268.1	
755.28	3666.5	
755.46	3727.3	
755.64	7036.8	
755.82	7225.9	
755.99	4111	
756.17	4240.7	
756.35	4754	
756.53	6455.9	
756.71	3133.4	
756.89	4130.8	
757.07	5984.8	
757.25	5080.3	
757.42	4558.8	
757.6	5459.9	
757.78	5995.1	
757.96	4955.4	
758.14	4207.2	
758.32	3768.9	
758.5	4566.3	
758.67	5408.7	
758.85	4177.9	
759.03	4163.5	
759.21	5642.2	
759.39	5005.2	
759.57	3618.8	
759.75	4786.8	
759.92	6250.4	
760.1	5491.3	
760.28	5107	
760.46	5345.2	
760.64	5199.8	
760.82	5028.4	
760.99	4997.7	
761.17	4128.7	
761.35	6048.3	
761.53	4951.3	
761.71	4271.4	
761.89	4959.5	
762.06	5868.8	
762.24	5375.9	
762.42	4296	
762.6	4116.4	
762.78	5423	
762.96	6023.1	
763.13	4679.6	
763.31	4354	
763.49	6182.8	
763.67	5319.3	
763.85	5118.6	
764.02	5715.2	
764.2	6454.5	
764.38	5604.6	
764.56	4155.3	
764.74	5049.6	
764.91	6532.3	
765.09	5480.4	
765.27	3855	
765.45	3672	
765.63	6607.4	
765.8	6438.8	
765.98	3444	
766.16	3766.9	
766.34	5039.4	
766.52	4843.4	
766.69	4745.1	
766.87	3617.4	
767.05	5462.6	
767.23	6234	
767.41	3903.4	
767.58	4277.5	
767.76	5952.1	
767.94	6063.4	
768.12	4024.9	
768.29	4627	
768.47	5565.7	
768.65	6231.3	
768.83	3702	
769	4827.1	
769.18	5090.6	
769.36	5868.1	
769.54	4855.1	
769.72	3764.8	
769.89	6094.1	
770.07	6235.4	
770.25	4046.8	
770.43	5319.3	
770.6	6907.8	
770.78	7274.4	
770.96	4328.7	
771.14	4898.7	
771.31	5984.2	
771.49	5425.1	
771.67	3392.8	
771.85	3710.2	
772.02	4670.7	
772.2	5429.8	
772.38	4474.1	
772.55	3934.1	
772.73	5654.4	
772.91	5414.1	
773.09	4270	
773.26	4401.1	
773.44	5670.8	
773.62	5228.5	
773.8	3843.4	
773.97	3559.4	
774.15	5691.3	
774.33	5340.4	
774.5	3796.3	
774.68	4110.3	
774.86	5864	
775.04	5380.7	
775.21	3792.2	
775.39	3851.5	
775.57	5649	
775.74	6059.3	
775.92	3683.6	
776.1	3611.9	
776.27	5629.2	
776.45	6826.6	
776.63	3906.2	
776.81	3403	
776.98	5314.5	
777.16	6407.4	
777.34	3986	
777.51	4286.4	
777.69	5255.1	
777.87	5004.6	
778.04	4065.9	
778.22	4728.8	
778.4	5082.4	
778.57	5734.3	
778.75	3338.9	
778.93	3652.2	
779.1	4951.3	
779.28	4789.5	
779.46	3353.2	
779.64	3885	
779.81	5913.2	
779.99	6803.4	
780.17	4640.7	
780.34	4750.6	
780.52	5366.4	
780.69	5617.6	
780.87	4187.4	
781.05	3740.3	
781.22	5408.7	
781.4	5444.9	
781.58	3924.6	
781.75	3056.3	
781.93	5458.5	
782.11	4916.5	
782.28	4780.6	
782.46	3850.9	
782.64	4736.3	
782.81	5662	
782.99	3976.5	
783.17	3946.4	
783.34	5576.6	
783.52	4811.4	
783.69	4157.4	
783.87	4974.5	
784.05	4965	
784.22	4911.7	
784.4	4943.8	
784.58	4272.7	
784.75	5884.5	
784.93	4980.7	
785.1	3903.4	
785.28	4542.4	
785.46	5547.9	
785.63	4874.8	
785.81	3870	
785.99	3726.6	
786.16	5094.7	
786.34	5481.7	
786.51	3788.1	
786.69	4203.1	
786.87	4689.8	
787.04	5170.4	
787.22	3680.9	
787.39	4540.3	
787.57	4877.6	
787.75	5981.4	
787.92	4740.4	
788.1	4721.3	
788.27	4954.7	
788.45	4748.6	
788.63	4460.5	
788.8	3117.7	
788.98	5294.7	
789.15	4642.7	
789.33	3381.2	
789.5	3949.8	
789.68	5840.8	
789.86	5986.2	
790.03	4398.4	
790.21	3810.6	
790.38	5887.9	
790.56	5038	
790.73	3673.4	
790.91	3723.2	
791.09	4924	
791.26	5738.4	
791.44	3951.2	
791.61	3347.1	
791.79	4963.6	
791.96	5035.3	
792.14	3520.5	
792.32	3099.9	
792.49	4937	
792.67	5047.6	
792.84	3547.8	
793.02	3380.5	
793.19	5373.2	
793.37	6114.6	
793.54	3169.6	
793.72	3469.9	
793.89	6251.8	
794.07	4953.4	
794.25	4075.5	
794.42	3234.4	
794.6	5988.3	
794.77	5622.4	
794.95	4347.2	
795.12	3723.9	
795.3	4911	
795.47	5550.7	
795.65	4130.1	
795.82	3973.7	
796	4765.6	
796.17	6619.7	
796.35	3863.8	
796.52	4579.3	
796.7	5512.4	
796.87	5600.5	
797.05	4812	
797.22	4687.1	
797.4	5563	
797.57	6576	
797.75	3935.5	
797.92	3698.6	
798.1	5882.4	
798.27	4946.5	
798.45	3215.3	
798.62	3472.7	
798.8	5265.3	
798.97	5776.6	
799.15	4210.6	
799.32	4023.6	
799.5	4541	
799.67	5330.2	
799.85	4287.8	
800.02	3184.6	
800.2	4859.8	
800.37	5234.6	
800.55	4522.6	
800.72	3778.5	
800.9	5669.5	
801.07	6100.2	
801.25	5089.2	
801.42	4121.2	
801.6	5732.3	
801.77	5457.8	
801.95	3753.9	
802.12	3693.9	
802.29	5470.8	
802.47	5413.5	
802.64	4115.7	
802.82	3134.1	
802.99	4842.8	
803.17	5902.2	
803.34	4019.5	
803.52	3571	
803.69	6569.2	
803.87	4719.2	
804.04	3964.2	
804.21	4105.5	
804.39	6011.5	
804.56	5094.7	
804.74	3397.6	
804.91	4254.3	
805.09	4904.9	
805.26	5061.9	
805.44	3459.7	
805.61	3813.3	
805.78	5559.6	
805.96	5646.2	
806.13	4137.6	
806.31	4481	
806.48	4521.2	
806.66	5002.5	
806.83	4154.6	
807	4052.9	
807.18	4930.1	
807.35	5347.2	
807.53	4011.3	
807.7	3208.5	
807.87	6122.7	
808.05	4984.1	
808.22	4446.1	
808.4	3233.7	
808.57	4969.1	
808.74	4676.2	
808.92	3682.9	
809.09	4681	
809.27	4908.3	
809.44	5436	
809.61	3247.4	
809.79	3596.9	
809.96	6064.7	
810.14	5741.8	
810.31	3194.8	
810.48	3866.6	
810.66	5074.2	
810.83	5852.4	
811.01	3676.8	
811.18	4110.3	
811.35	5679	
811.53	4457.1	
811.7	4470	
811.87	4194.9	
812.05	4943.1	
812.22	4937.7	
812.39	3558.7	
812.57	3457	
812.74	5027.1	
812.92	6651.1	
813.09	3896.6	
813.26	4205.8	
813.44	6368.5	
813.61	4937	
813.78	3198.2	
813.96	4300.1	
814.13	5000.5	
814.3	4653.7	
814.48	4683.7	
814.65	3936.2	
814.82	6199.2	
815	4819.6	
815.17	3986	
815.34	4891.9	
815.52	4905.6	
815.69	4960.2	
815.87	3951.2	
816.04	3399.6	
816.21	4982	
816.38	4420.2	
816.56	3820.8	
816.73	3523.2	
816.9	6333	
817.08	5758.9	
817.25	3667.2	
817.42	4579.9	
817.6	4562.9	
817.77	5090.6	
817.94	4094.6	
818.12	3485.6	
818.29	4737	
818.46	7462.1	
818.64	3741	
818.81	3476.8	
818.98	4700.1	
819.16	6799.3	
819.33	4244.8	
819.5	3951.2	
819.67	5341.8	
819.85	5992.4	
820.02	3957.4	
820.19	4148.5	
820.37	5244.2	
820.54	4816.8	
820.71	4038.6	
820.88	5046.2	
821.06	5233.2	
821.23	4756.1	
821.4	4100.7	
821.58	4009.9	
821.75	5723.4	
821.92	5071.5	
822.09	3255.6	
822.27	3379.1	
822.44	4986.8	
822.61	4917.9	
822.79	3254.2	
822.96	6293.4	
823.13	5465.3	
823.3	4722.6	
823.48	3820.8	
823.65	3426.9	
823.82	5689.9	
823.99	4513.7	
824.17	4838	
824.34	3465.2	
824.51	6608.1	
824.68	5010.7	
824.86	3635.8	
825.03	4089.8	
825.2	5027.8	
825.37	6077	
825.55	3599.6	
825.72	4012.7	
825.89	6630.6	
826.06	6180.1	
826.24	3891.8	
826.41	3949.2	
826.58	6162.3	
826.75	5287.9	
826.92	3065.8	
827.1	3381.9	
827.27	8321.6	
827.44	6590.4	
827.61	3654.3	
827.79	4461.8	
827.96	4761.5	
828.13	5139	
828.3	3865.9	
828.47	3291.1	
828.65	5213.4	
828.82	5171.1	
828.99	5042.1	
829.16	4321.2	
829.34	5590.3	
829.51	5392.3	
829.68	4028.4	
829.85	4184.7	
830.02	5882.4	
830.2	5677.7	
830.37	3094.5	
830.54	4802.5	
830.71	6377.4	
830.88	4971.1	
831.05	3145	
831.23	3631.7	
831.4	6127.5	
831.57	6851.8	
831.74	3719.8	
831.91	3209.2	
832.09	5287.9	
832.26	5598.5	
832.43	3872.7	
832.6	4384	
832.77	5280.3	
832.94	6027.2	
833.12	3110.9	
833.29	3808.5	
833.46	4873.5	
833.63	7068.2	
833.8	4182.6	
833.97	3877.5	
834.15	5684.5	
834.32	5349.3	
834.49	4002.4	
834.66	4035.9	
834.83	5849	
835	4719.9	
835.17	3682.2	
835.35	3700.7	
835.52	5528.8	
835.69	5416.9	
835.86	3936.2	
836.03	3207.1	
836.2	5561.6	
836.37	5160.9	
836.55	3821.5	
836.72	3628.3	
836.89	5191.6	
837.06	5669.5	
837.23	3922.5	
837.4	4323.3	
837.57	6416.3	
837.75	7158.3	
837.92	3510.2	
838.09	3770.3	
838.26	5195.7	
838.43	5877	
838.6	4048.8	
838.77	3620.8	
838.94	6705.7	
839.11	6425.8	
839.29	3821.5	
839.46	3009.1	
839.63	5547.9	
839.8	5356.1	
839.97	3780.6	
840.14	3738.2	
840.31	5378.6	
840.48	5590.3	
840.65	3057.6	
840.82	3800.3	
841	5621	
841.17	5519.3	
841.34	3422.2	
841.51	3512.3	
841.68	5481.7	
841.85	5309	
842.02	3580.5	
842.19	2959.3	
842.36	5348.6	
842.53	5337.7	
842.7	3429.7	
842.87	4190.1	
843.05	7066.2	
843.22	5233.9	
843.39	3213.3	
843.56	3528	
843.73	5023.7	
843.9	5674.9	
844.07	5586.9	
844.24	4678.9	
844.41	8208.3	
844.58	4850.3	
844.75	3285.6	
844.92	3559.4	
845.09	5580	
845.26	5571.2	
845.43	3401.7	
845.6	3607.8	
845.77	5590.3	
845.94	5293.3	
846.12	3743	
846.29	4058.4	
846.46	5788.2	
846.63	5578.7	
846.8	3418.1	
846.97	4039.3	
847.14	6113.9	
847.31	5532.2	
847.48	3867.9	
847.65	4244.1	
847.82	5835.3	
847.99	5777.3	
848.16	4547.9	
848.33	4220.9	
848.5	5139	
848.67	5982.1	
848.84	3332	
849.01	3626.3	
849.18	5019.6	
849.35	4702.1	
849.52	4233.2	
849.69	3340.2	
849.86	5793.7	
850.03	5933.6	
850.2	3457	
850.37	4188.8	
850.54	5905.7	
850.71	5264.6	
850.88	4041.3	
851.05	3363.4	
851.22	5521.3	
851.39	6108.4	
851.56	3233.1	
851.73	3972.4	
851.9	4891.9	
852.07	5877.7	
852.24	3789.4	
852.41	3429	
852.58	5474.2	
852.75	4953.4	
852.92	3852.9	
853.09	3334.8	
853.26	5173.2	
853.43	6049	
853.6	3427.6	
853.77	2929.3	
853.94	6135	
854.11	4824.3	
854.28	4985.4	
854.44	3748.5	
854.61	6506.4	
854.78	5917.9	
854.95	3411.2	
855.12	4276.2	
855.29	4492.6	
855.46	6404	
855.63	3440.6	
855.8	4749.2	
855.97	5139.7	
856.14	5930.2	
856.31	4834.6	
856.48	3746.4	
856.65	5185.5	
856.82	4933.6	
856.99	3244	
857.16	3669.3	
857.33	6756.9	
857.49	5255.8	
857.66	3638.6	
857.83	3957.4	
858	5183.4	
858.17	5423	
858.34	3186	
858.51	3388	
858.68	6305	
858.85	6276.3	
859.02	3956.7	
859.19	4245.4	
859.36	4881	
859.52	4922	
859.69	3448.8	
859.86	4037.9	
860.03	4967	
860.2	6066.8	
860.37	3072	
860.54	3446.7	
860.71	5765	
860.88	6255.2	
861.05	3833.8	
861.21	4270	
861.38	6214.2	
861.55	4773.8	
861.72	3102.7	
861.89	3859.1	
862.06	5857.9	
862.23	6307.1	
862.4	3265.8	
862.56	3502.7	
862.73	5682.4	
862.9	5365	
863.07	3945.8	
863.24	3070.6	
863.41	4828.4	
863.58	4914.4	
863.75	3477.5	
863.91	3973.7	
864.08	6144.6	
864.25	5706.3	
864.42	4230.4	
864.59	4770.4	
864.76	6466.8	
864.93	4904.2	
865.09	3298.6	
865.26	3654.3	
865.43	6022.4	
865.6	6395.1	
865.77	2964.1	
865.94	3390.8	
866.1	6092.7	
866.27	5870.2	
866.44	5115.1	
866.61	3265.8	
866.78	5273.5	
866.95	5644.2	
867.11	3336.1	
867.28	3012.6	
867.45	5918.6	
867.62	4970.4	
867.79	3889.8	
867.96	3355.3	
868.12	4870.1	
868.29	5874.9	
868.46	2935.4	
868.63	4532.2	
868.8	5996.5	
868.97	5709.1	
869.13	3607.8	
869.3	3575.8	
869.47	5705.6	
869.64	5963	
869.81	3516.4	
869.97	3360.7	
870.14	5569.1	
870.31	6264.1	
870.48	3283.6	
870.65	4298.7	
870.81	5186.8	
870.98	5291.3	
871.15	3883.6	
871.32	3497.9	
871.48	5711.8	
871.65	6282.5	
871.82	3371	
871.99	3731.4	
872.16	6713.2	
872.32	6170.5	
872.49	3448.8	
872.66	3416.7	
872.83	5809.4	
872.99	5112.4	
873.16	3948.5	
873.33	3399.6	
873.5	5482.4	
873.67	5468.1	
873.83	3557.3	
874	4597	
874.17	5548.6	
874.34	6617.7	
874.5	4399	
874.67	4211.3	
874.84	6251.1	
875.01	4864.6	
875.17	4825	
875.34	3412.6	
875.51	5464.7	
875.68	6627.9	
875.84	4130.8	
876.01	5074.9	
876.18	5735	
876.34	5744.6	
876.51	3450.8	
876.68	3327.9	
876.85	5223.7	
877.01	6062.7	
877.18	4892.6	
877.35	3350.5	
877.52	5369.1	
877.68	4825	
877.85	3367.5	
878.02	3355.3	
878.18	5361.6	
878.35	5070.8	
878.52	2712.9	
878.69	3801	
878.85	5792.3	
879.02	5736.4	
879.19	4856.4	
879.35	3644	
879.52	5746.6	
879.69	5954.1	
879.86	2935.4	
880.02	3794.2	
880.19	5345.9	
880.36	6589.7	
880.52	3916.4	
880.69	4029	
880.86	5806.7	
881.02	5971.9	
881.19	3691.1	
881.36	3739.6	
881.52	5711.1	
881.69	5068.7	
881.86	3689.8	
882.02	3599	
882.19	6002.6	
882.36	7094.2	
882.52	3457	
882.69	4814.1	
882.86	5573.2	
883.02	5447.6	
883.19	4152.6	
883.36	3851.5	
883.52	5870.2	
883.69	6670.2	
883.86	3463.8	
884.02	3111.5	
884.19	5859.2	
884.36	5339.7	
884.52	3795.6	
884.69	3628.3	
884.86	5131.5	
885.02	6405.4	
885.19	3864.5	
885.36	3941	
885.52	5378.6	
885.69	5559.6	
885.86	4919.9	
886.02	4386.1	
886.19	5792.3	
886.35	5234.6	
886.52	3786	
886.69	4786.1	
886.85	4927.4	
887.02	6191.7	
887.19	6191.7	
887.35	6191.7	
887.52	6191.7	
887.68	6191.7	
887.85	6191.7	
888.02	6191.7	
888.18	6191.7	
888.35	6191.7	
888.51	6191.7	
888.68	6191.7	
888.85	6191.7	
889.01	6191.7	
889.18	6191.7	
889.35	6191.7	
889.51	6191.7	
889.68	6191.7	
889.84	6191.7	
890.01	6191.7	
890.17	6191.7	
890.34	6191.7	
890.51	6191.7	
890.67	6191.7	
890.84	6191.7	
891	6191.7	
891.17	6191.7	
891.34	6191.7	
891.5	6191.7	
891.67	6191.7	
891.83	6191.7	
892	6191.7	
892.16	6191.7	
892.33	6191.7	
892.5	6191.7	
892.66	6191.7	
892.83	6191.7	
892.99	6191.7	
893.16	6191.7	
893.32	6191.7	
893.49	6191.7	
893.65	6191.7	
893.82	6191.7	
893.99	6191.7	
894.15	6191.7	
894.32	6191.7	
894.48	6191.7	
894.65	6191.7	
894.81	6191.7	
894.98	6191.7	
895.14	6191.7	
895.31	6191.7	
895.47	6191.7	
895.64	6191.7	
895.81	6191.7	
895.97	6191.7	
896.14	6191.7	
896.3	6191.7	
896.47	6191.7	
896.63	6191.7	
896.8	6191.7	
896.96	6191.7	
897.13	6191.7	
897.29	6191.7	
897.46	6191.7	
897.62	6191.7	
897.79	6191.7	
897.95	6191.7	
898.12	6191.7	
898.28	6191.7	
898.45	6191.7	
898.61	6191.7	
898.78	6191.7	
898.94	6191.7	
899.11	6191.7	
899.27	6191.7	
899.44	6191.7	
899.6	6191.7	
899.77	6191.7	
899.93	6191.7	
900.1	6191.7	
900.26	6191.7	
900.43	6191.7	
900.59	6191.7	
900.76	6191.7	
900.92	6191.7	
901.09	6191.7	
901.25	6191.7	
901.42	6191.7	
901.58	6191.7	
901.75	6191.7	
901.91	6191.7	
902.07	6191.7	
902.24	6191.7	
902.4	6191.7	
902.57	6191.7	
902.73	6191.7	
902.9	6191.7	
903.06	6191.7	
903.23	6191.7	
903.39	6191.7	
903.56	6191.7	
903.72	6191.7	
903.88	6191.7	
904.05	6191.7	
904.21	6191.7	
904.38	6191.7	
904.54	6191.7	
904.71	6191.7	
904.87	6191.7	
905.03	6191.7	
905.2	6191.7	
905.36	6191.7	
905.53	6191.7	
905.69	6191.7	
905.86	6191.7	
906.02	6191.7	
906.18	6191.7	
906.35	6191.7	
906.51	6191.7	
906.68	6191.7	
906.84	6191.7	
907.01	6191.7	
907.17	6191.7	
907.33	6191.7	
907.5	6191.7	
907.66	6191.7	
907.83	6191.7	
907.99	6191.7	
908.15	6191.7	
908.32	6191.7	
908.48	6191.7	
908.65	6191.7	
908.81	6191.7	
908.97	6191.7	
909.14	6191.7	
909.3	6191.7	
909.47	6191.7	
909.63	6191.7	
909.79	6191.7	
909.96	6191.7	
910.12	6191.7	
910.28	6191.7	
910.45	6191.7	
910.61	6191.7	
910.78	6191.7	
910.94	6191.7	
911.1	6191.7	
911.27	6191.7	
911.43	6191.7	
911.59	6191.7	
911.76	6191.7	
911.92	6191.7	
912.08	6191.7	
912.25	6191.7	
912.41	6191.7	
912.57	6191.7	
912.74	6191.7	
912.9	6191.7	
913.07	6191.7	
913.23	6191.7	
913.39	6191.7	
913.56	6191.7	
913.72	6191.7	
913.88	6191.7	
914.05	6191.7	
914.21	6191.7	
914.37	6191.7	
914.54	6191.7	
914.7	6191.7	
914.86	6191.7	
915.03	6191.7	
915.19	6191.7	
