Wavelength	Intensities	
nm	a.u.	
179.22	1861.1	
179.44	1864	
179.65	1858.2	
179.86	1869.8	
180.08	1897.8	
180.29	4792.2	
180.51	3445.4	
180.72	5543.2	
180.94	6503	
181.15	3134.1	
181.37	3084.9	
181.58	5434.6	
181.79	5735.7	
182.01	3270.6	
182.22	3567.6	
182.44	5659.2	
182.65	4768.4	
182.87	4431.1	
183.08	3902.7	
183.29	5889.3	
183.51	4868	
183.72	3554.6	
183.94	5183.4	
184.15	5335	
184.37	5264	
184.58	3146.4	
184.79	4343.1	
185.01	4918.5	
185.22	5629.9	
185.44	4569.7	
185.65	3781.2	
185.86	5183.4	
186.08	4815.5	
186.29	3050.1	
186.51	3274.7	
186.72	4969.7	
186.94	5798.5	
187.15	3814.7	
187.36	3941.7	
187.58	7516	
187.79	5360.2	
188.01	4033.8	
188.22	6303.6	
188.43	6492.1	
188.65	5651.7	
188.86	3349.8	
189.08	3875.4	
189.29	5121.3	
189.5	5081.7	
189.72	3620.1	
189.93	3710.9	
190.15	5759.6	
190.36	6984.9	
190.57	4042.7	
190.79	3848.8	
191	5951.4	
191.22	5911.1	
191.43	3966.9	
191.64	3281.5	
191.86	6130.3	
192.07	5847.6	
192.29	3411.2	
192.5	3680.2	
192.71	5846.3	
192.93	5073.5	
193.14	3596.2	
193.35	3719.1	
193.57	5073.5	
193.78	5829.9	
194	2907.4	
194.21	3480.2	
194.42	4894	
194.64	5312.4	
194.85	3923.9	
195.07	4588.8	
195.28	5326.8	
195.49	4668.7	
195.71	4759.5	
195.92	3408.5	
196.13	5543.2	
196.35	5596.4	
196.56	5158.2	
196.78	3882.3	
196.99	6844.3	
197.2	6381.5	
197.42	4431.1	
197.63	3958.7	
197.84	4780	
198.06	5477	
198.27	3640.6	
198.48	4816.8	
198.7	5046.2	
198.91	5268.1	
199.13	3951.2	
199.34	3930.1	
199.55	5671.5	
199.77	4651.6	
199.98	3491.8	
200.19	4007.9	
200.41	5240.8	
200.62	4934.2	
200.83	4096.6	
201.05	4369.7	
201.26	5217.5	
201.47	4913.1	
201.69	3528.7	
201.9	3379.8	
202.11	5264.6	
202.33	6270.9	
202.54	3723.2	
202.76	4184.7	
202.97	5332.2	
203.18	5397.1	
203.4	4126.7	
203.61	4055.7	
203.82	5335.6	
204.04	5014.8	
204.25	3968.3	
204.46	3898.6	
204.68	5345.9	
204.89	5578	
205.1	3831.7	
205.32	3356.6	
205.53	5685.8	
205.74	5862	
205.96	2829.6	
206.17	4024.3	
206.38	5621	
206.6	5748.6	
206.81	4468	
207.02	3670	
207.24	5520	
207.45	5898.1	
207.66	3780.6	
207.88	3253.5	
208.09	5567.1	
208.3	5294.7	
208.52	3454.9	
208.73	3760.1	
208.94	5258.5	
209.15	6032	
209.37	3796.9	
209.58	3969	
209.79	5840.1	
210.01	5102.9	
210.22	3019.4	
210.43	3132.7	
210.65	5360.9	
210.86	5753.4	
211.07	3748.5	
211.29	3402.4	
211.5	5643.5	
211.71	5251	
211.93	3448.1	
212.14	3401	
212.35	5257.8	
212.56	5495.4	
212.78	3941	
212.99	3235.1	
213.2	6209.4	
213.42	5070.8	
213.63	3604.4	
213.84	3817.4	
214.06	4658.4	
214.27	4798.4	
214.48	3676.8	
214.69	3992.2	
214.91	5999.2	
215.12	6040.1	
215.33	4050.2	
215.55	4455	
215.76	6516.6	
215.97	5689.9	
216.18	3861.1	
216.4	3796.3	
216.61	5005.9	
216.82	5766.4	
217.04	3407.1	
217.25	3571	
217.46	5937.1	
217.67	5659.2	
217.89	3141.6	
218.1	3266.5	
218.31	5408.7	
218.53	5508.4	
218.74	3687	
218.95	3477.5	
219.16	5257.1	
219.38	6170.5	
219.59	3552.5	
219.8	4172.4	
220.01	6823.1	
220.23	5345.2	
220.44	4625	
220.65	3397.6	
220.87	5362.3	
221.08	5890.6	
221.29	3213.3	
221.5	4221.5	
221.72	7219.8	
221.93	4997	
222.14	4012	
222.35	4664.6	
222.57	5304.2	
222.78	5624.4	
222.99	3756.7	
223.2	4105.5	
223.42	5567.7	
223.63	5742.5	
223.84	2870.6	
224.05	2909.5	
224.27	6738.5	
224.48	6262.7	
224.69	4610.7	
224.9	3935.5	
225.12	5529.5	
225.33	5278.3	
225.54	3193.5	
225.75	3538.9	
225.97	4907.6	
226.18	5177.3	
226.39	3799	
226.6	3532.7	
226.82	5074.2	
227.03	4932.9	
227.24	3947.1	
227.45	3307.5	
227.67	5668.8	
227.88	6199.2	
228.09	4459.1	
228.3	4442.7	
228.52	5711.1	
228.73	5248.9	
228.94	3601.7	
229.15	3291.8	
229.36	5224.4	
229.58	5146.5	
229.79	3685.7	
230	4293.9	
230.21	6352.8	
230.43	5393.7	
230.64	3915	
230.85	4040.6	
231.06	5750	
231.28	5753.4	
231.49	3221.5	
231.7	3826.3	
231.91	5612.8	
232.12	5360.2	
232.34	3310.9	
232.55	3867.2	
232.76	5900.9	
232.97	5461.9	
233.18	3417.4	
233.4	3894.6	
233.61	5567.7	
233.82	5064.6	
234.03	3674.1	
234.25	3594.2	
234.46	7353.6	
234.67	5370.5	
234.88	4052.2	
235.09	3493.8	
235.31	5603.9	
235.52	5188.9	
235.73	3890.5	
235.94	3298.6	
236.15	5057.1	
236.37	6453.1	
236.58	3437.2	
236.79	3829	
237	5603.9	
237.21	4872.8	
237.43	4089.8	
237.64	3207.8	
237.85	9513.5	
238.06	4904.9	
238.27	4128.7	
238.48	3384.6	
238.7	5626.5	
238.91	5173.9	
239.12	3724.6	
239.33	3753.2	
239.54	5038	
239.76	5229.1	
239.97	3803.8	
240.18	3760.1	
240.39	6580.8	
240.6	5584.1	
240.82	3882.9	
241.03	3237.8	
241.24	5283.1	
241.45	6195.8	
241.66	3474.7	
241.87	4072	
242.09	6013.5	
242.3	6395.8	
242.51	4121.9	
242.72	3736.9	
242.93	5768.4	
243.14	5227.8	
243.36	4368.3	
243.57	4753.3	
243.78	6175.3	
243.99	5549.3	
244.2	3845.4	
244.41	3432.4	
244.63	4883.7	
244.84	5627.8	
245.05	4061.1	
245.26	3786	
245.47	5588.9	
245.68	5834.7	
245.9	5013.4	
246.11	3938.2	
246.32	5156.8	
246.53	5559.6	
246.74	6075.6	
246.95	3234.4	
247.16	4803.9	
247.38	5367.7	
247.59	3203	
247.8	3861.1	
248.01	5025.7	
248.22	5217.5	
248.43	3454.9	
248.64	3681.6	
248.86	4690.5	
249.07	5123.3	
249.28	3313.6	
249.49	3879.5	
249.7	5834.7	
249.91	5985.5	
250.12	3192.8	
250.34	3209.2	
250.55	5433.3	
250.76	5311.1	
250.97	3949.2	
251.18	4003.8	
251.39	5969.8	
251.6	5517.2	
251.81	4005.8	
252.03	3960.8	
252.24	5115.8	
252.45	5812.8	
252.66	3263.1	
252.87	4158.7	
253.08	5359.5	
253.29	6928.3	
253.5	3283.6	
253.72	4628.4	
253.93	5212.1	
254.14	6320.7	
254.35	3631	
254.56	3685.7	
254.77	5530.9	
254.98	4896.7	
255.19	3543.7	
255.41	4582.7	
255.62	5414.1	
255.83	5909.8	
256.04	4076.1	
256.25	3969.6	
256.46	6518.7	
256.67	5047.6	
256.88	3894.6	
257.09	4319.8	
257.31	4956.8	
257.52	5013.4	
257.73	4862.6	
257.94	3588	
258.15	5142.4	
258.36	5224.4	
258.57	4528.1	
258.78	2861.7	
258.99	5780.1	
259.2	5162.2	
259.41	3633.1	
259.63	3749.8	
259.84	6193.7	
260.05	6528.9	
260.26	4715.1	
260.47	3517	
260.68	5913.2	
260.89	5229.8	
261.1	4389.5	
261.31	3475.4	
261.52	5872.2	
261.73	6273.6	
261.95	4622.9	
262.16	4111	
262.37	6033.3	
262.58	6103.6	
262.79	4638	
263	3652.2	
263.21	5409.4	
263.42	5211.4	
263.63	3694.5	
263.84	3672	
264.05	5825.8	
264.26	6247	
264.47	4545.8	
264.69	4100	
264.9	5977.3	
265.11	5513.8	
265.32	3508.2	
265.53	3586	
265.74	5435.3	
265.95	4707.6	
266.16	3861.8	
266.37	4242	
266.58	5430.5	
266.79	5117.2	
267	3576.4	
267.21	3349.8	
267.42	4871.4	
267.63	5328.1	
267.84	3803.8	
268.06	3151.8	
268.27	5789.6	
268.48	5999.2	
268.69	3669.3	
268.9	4348.5	
269.11	5980.1	
269.32	4821.6	
269.53	3799	
269.74	3508.2	
269.95	5628.5	
270.16	4678.2	
270.37	3779.2	
270.58	4358.8	
270.79	5158.2	
271	5813.5	
271.21	4083	
271.42	3855	
271.63	5470.1	
271.84	5003.9	
272.05	3027.6	
272.26	3394.2	
272.47	5375.2	
272.68	5514.5	
272.89	3605.8	
273.11	4138.9	
273.32	5167.7	
273.53	6224.5	
273.74	4082.3	
273.95	3945.1	
274.16	5859.9	
274.37	5350	
274.58	4154.6	
274.79	3329.3	
275	5422.3	
275.21	5952.8	
275.42	4933.6	
275.63	4292.5	
275.84	5531.6	
276.05	6945.3	
276.26	3975.1	
276.47	3733.4	
276.68	5197.7	
276.89	6346.7	
277.1	4302.1	
277.31	3349.1	
277.52	5533.6	
277.73	5783.5	
277.94	3302.7	
278.15	3623.5	
278.36	5412.8	
278.57	4978.6	
278.78	3609.2	
278.99	4050.2	
279.2	4990.9	
279.41	4967	
279.62	4753.3	
279.83	3396.9	
280.04	6482.5	
280.25	4891.2	
280.46	4777.2	
280.67	3808.5	
280.88	4928.8	
281.09	5902.9	
281.3	3997	
281.51	5016.8	
281.72	5021.6	
281.93	5797.1	
282.14	3530.7	
282.35	3863.2	
282.56	5757.5	
282.77	5772.5	
282.98	3638.6	
283.19	4468	
283.4	7119.4	
283.61	5223	
283.82	3350.5	
284.03	4727.4	
284.24	5436.7	
284.45	5900.9	
284.66	4611.3	
284.87	4501.4	
285.08	5873.6	
285.29	6042.2	
285.5	3230.3	
285.71	3713.6	
285.92	5947.3	
286.12	6606.7	
286.33	4703.5	
286.54	3665.9	
286.75	5821	
286.96	5190.2	
287.17	3410.6	
287.38	4548.5	
287.59	4948.6	
287.8	4913.1	
288.01	3749.8	
288.22	4274.8	
288.43	5847.6	
288.64	4784.7	
288.85	4433.2	
289.06	4196.3	
289.27	5739.8	
289.48	6236.7	
289.69	4687.8	
289.9	4270.7	
290.11	5972.6	
290.32	5080.3	
290.53	4465.3	
290.74	4134.8	
290.94	5738.4	
291.15	5776	
291.36	3624.9	
291.57	4265.2	
291.78	5040.7	
291.99	4767	
292.2	3458.3	
292.41	4136.9	
292.62	5909.8	
292.83	5646.9	
293.04	5067.4	
293.25	3445.4	
293.46	5133.6	
293.67	5875.6	
293.88	3488.4	
294.09	3405.1	
294.29	4894	
294.5	5437.4	
294.71	3850.2	
294.92	3643.3	
295.13	5147.9	
295.34	6349.4	
295.55	3166.8	
295.76	3291.8	
295.97	5726.8	
296.18	6457.2	
296.39	3362.1	
296.6	3547.8	
296.81	5439.4	
297.01	5728.9	
297.22	3715	
297.43	3560.7	
297.64	4958.8	
297.85	4958.1	
298.06	2940.9	
298.27	3142.9	
298.48	5427.1	
298.69	5044.8	
298.9	3818.8	
299.11	3513.6	
299.31	4836.6	
299.52	4894	
299.73	4136.2	
299.94	4037.2	
300.15	5275.6	
300.36	4977.2	
300.57	4088.4	
300.78	4035.2	
300.99	5190.2	
301.2	5448.3	
301.4	3537.5	
301.61	3864.5	
301.82	5560.9	
302.03	5714.5	
302.24	4286.4	
302.45	3405.8	
302.66	5606.7	
302.87	6042.9	
303.08	3553.2	
303.29	4835.3	
303.49	5087.8	
303.7	5369.1	
303.91	3175	
304.12	4611.3	
304.33	4816.1	
304.54	5414.1	
304.75	3607.8	
304.96	3395.5	
305.16	5660.6	
305.37	6315.9	
305.58	3088.3	
305.79	3242.6	
306	5642.8	
306.21	4763.6	
306.42	3545.7	
306.63	5440.8	
306.83	5205.3	
307.04	5872.2	
307.25	3921.9	
307.46	3870	
307.67	4551.3	
307.88	5739.8	
308.09	3487.7	
308.29	3633.8	
308.5	5382.1	
308.71	5934.3	
308.92	3766.2	
309.13	3456.3	
309.34	5203.2	
309.55	5267.4	
309.75	4405.9	
309.96	4074.8	
310.17	5717.9	
310.38	5026.4	
310.59	4266.6	
310.8	3342.3	
311.01	6345.3	
311.21	5204.6	
311.42	3379.8	
311.63	3479.5	
311.84	5098.1	
312.05	5450.3	
312.26	3962.1	
312.46	4330.1	
312.67	5169.8	
312.88	4883	
313.09	3467.2	
313.3	3372.3	
313.51	6117.3	
313.71	6451.1	
313.92	3406.5	
314.13	3636.5	
314.34	5531.6	
314.55	5272.2	
314.76	4441.4	
314.96	3859.7	
315.17	5368.4	
315.38	5713.8	
315.59	3463.8	
315.8	3315	
316.01	6142.5	
316.21	6221	
316.42	3301.3	
316.63	3812	
316.84	5219.6	
317.05	6027.2	
317.26	4052.2	
317.46	3637.9	
317.67	5261.2	
317.88	5707	
318.09	4335.5	
318.3	3196.2	
318.5	5057.8	
318.71	5681.7	
318.92	5665.4	
319.13	4108.2	
319.34	5832.6	
319.54	5956.2	
319.75	3219.4	
319.96	3078.1	
320.17	5679	
320.38	5899.5	
320.58	3127.2	
320.79	3789.4	
321	5931.6	
321.21	5976.7	
321.42	3820.1	
321.62	3132	
321.83	4957.4	
322.04	5384.1	
322.25	3702.7	
322.46	3480.9	
322.66	5397.1	
322.87	5625.8	
323.08	4269.3	
323.29	3405.8	
323.5	6343.9	
323.7	4853	
323.91	4691.2	
324.12	4214.7	
324.33	5407.3	
324.53	5553.4	
324.74	3969.6	
324.95	4227.7	
325.16	4742.4	
325.37	5121.3	
325.57	3506.1	
325.78	3499.3	
325.99	5391.6	
326.2	4897.4	
326.4	4836.6	
326.61	3203	
326.82	5230.5	
327.03	5426.4	
327.24	4902.8	
327.44	4625	
327.65	5591.6	
327.86	4524.6	
328.07	4086.4	
328.27	3334.8	
328.48	5982.8	
328.69	4942.4	
328.9	4974.5	
329.1	3708.2	
329.31	5268.1	
329.52	6107.7	
329.73	3466.5	
329.93	3918.4	
330.14	5299.5	
330.35	5614.2	
330.56	5647.6	
330.76	4292.5	
330.97	5136.3	
331.18	5533.6	
331.39	3867.2	
331.59	3072	
331.8	5887.2	
332.01	6079.1	
332.22	3558.7	
332.42	4046.1	
332.63	5454.4	
332.84	5033.9	
333.05	3842.7	
333.25	3530	
333.46	5130.8	
333.67	5293.3	
333.88	3594.2	
334.08	3987.4	
334.29	7045.7	
334.5	5912.5	
334.7	3362.1	
334.91	4887.1	
335.12	4895.3	
335.33	5741.8	
335.53	3796.9	
335.74	5627.8	
335.95	5081	
336.16	4956.8	
336.36	3904.1	
336.57	4394.3	
336.78	4885.8	
336.98	5929.6	
337.19	4713.7	
337.4	3740.3	
337.61	6387.6	
337.81	4904.9	
338.02	3558.7	
338.23	4498.7	
338.43	6125.5	
338.64	4952	
338.85	3457.7	
339.05	4534.9	
339.26	6124.8	
339.47	4786.1	
339.68	3489.1	
339.88	5104.9	
340.09	5544.5	
340.3	5774.6	
340.5	4021.5	
340.71	3130	
340.92	4810.7	
341.13	6021.7	
341.33	3344.3	
341.54	4031.8	
341.75	5552	
341.95	5158.2	
342.16	3878.9	
342.37	4160.1	
342.57	4925.4	
342.78	5266.7	
342.99	4330.8	
343.19	3110.9	
343.4	5733.6	
343.61	5610.1	
343.81	3664.5	
344.02	3364.8	
344.23	5772.5	
344.43	6196.5	
344.64	4330.8	
344.85	4198.3	
345.06	5601.9	
345.26	5973.9	
345.47	4012	
345.68	4728.8	
345.88	4714.4	
346.09	5814.9	
346.3	4119.1	
346.5	3043.3	
346.71	5288.5	
346.92	5053	
347.12	3133.4	
347.33	3956	
347.54	5874.9	
347.74	6249.7	
347.95	3966.2	
348.16	2974.3	
348.36	5117.2	
348.57	4903.5	
348.78	3978.5	
348.98	4217.5	
349.19	5261.9	
349.39	4779.3	
349.6	3208.5	
349.81	3456.3	
350.01	5524.7	
350.22	5040.7	
350.43	3831.7	
350.63	4612	
350.84	5349.3	
351.05	5145.2	
351.25	3490.4	
351.46	3132.7	
351.67	5797.8	
351.87	4971.8	
352.08	3707.5	
352.29	4207.9	
352.49	5764.3	
352.7	5436.7	
352.9	3378.5	
353.11	4156	
353.32	6453.8	
353.52	5129.5	
353.73	3330.7	
353.94	4194.9	
354.14	5606.7	
354.35	5459.9	
354.55	3429	
354.76	3792.8	
354.97	5584.8	
355.17	5355.4	
355.38	3293.1	
355.59	4554.7	
355.79	4967	
356	5378.6	
356.2	3782.6	
356.41	3304.7	
356.62	4756.7	
356.82	5214.8	
357.03	4073.4	
357.24	3657.7	
357.44	5008.6	
357.65	5144.5	
357.85	4842.8	
358.06	3843.4	
358.27	4703.5	
358.47	4986.1	
358.68	3165.5	
358.88	4048.8	
359.09	5549.3	
359.3	5800.5	
359.5	4751.3	
359.71	4125.3	
359.91	6298.2	
360.12	5711.8	
360.33	3997.6	
360.53	4485.1	
360.74	4985.4	
360.94	5037.3	
361.15	4201.1	
361.36	3480.9	
361.56	5785.5	
361.77	5179.3	
361.97	4671.4	
362.18	3662.5	
362.38	5772.5	
362.59	4899.4	
362.8	3378.5	
363	3256.3	
363.21	4702.8	
363.41	5291.3	
363.62	3908.2	
363.83	4865.3	
364.03	5379.3	
364.24	6259.3	
364.44	4994.3	
364.65	4819.6	
364.85	5147.2	
365.06	4861.2	
365.27	3587.4	
365.47	3599.6	
365.68	6175.3	
365.88	5133.6	
366.09	3981.3	
366.29	3611.9	
366.5	5410.7	
366.71	5807.4	
366.91	4872.8	
367.12	4134.8	
367.32	6391.7	
367.53	5683.8	
367.73	3948.5	
367.94	5014.1	
368.14	5528.2	
368.35	6420.4	
368.56	4040	
368.76	3393.5	
368.97	5741.1	
369.17	7316	
369.38	3543	
369.58	3760.8	
369.79	4749.2	
369.99	6077	
370.2	4766.3	
370.4	3860.4	
370.61	5433.9	
370.82	6572.6	
371.02	3857	
371.23	3166.8	
371.43	4729.4	
371.64	6013.5	
371.84	3822.9	
372.05	5013.4	
372.25	7266.2	
372.46	5692	
372.66	3835.8	
372.87	3802.4	
373.07	5769.8	
373.28	7290.1	
373.48	4838	
373.69	4511.7	
373.9	5209.3	
374.1	5250.3	
374.31	4695.3	
374.51	4233.8	
374.72	6027.9	
374.92	4887.1	
375.13	4802.5	
375.33	4032.5	
375.54	5623.7	
375.74	5073.5	
375.95	4110.3	
376.15	5328.1	
376.36	5636	
376.56	5449.6	
376.77	4168.3	
376.97	4597	
377.18	6611.5	
377.38	5726.8	
377.59	4966.3	
377.79	3686.3	
378	5459.2	
378.2	5900.2	
378.41	3762.1	
378.61	3642.7	
378.82	5918.6	
379.02	5044.1	
379.23	3860.4	
379.43	4992.3	
379.64	5988.3	
379.84	5657.9	
380.05	3706.8	
380.25	3686.3	
380.46	5709.7	
380.66	5322.7	
380.87	5046.9	
381.07	5339.7	
381.28	6321.4	
381.48	5741.1	
381.69	3722.5	
381.89	3793.5	
382.1	4734.9	
382.3	5886.5	
382.51	4851	
382.71	5756.2	
382.91	5756.8	
383.12	6223.1	
383.32	4086.4	
383.53	4255	
383.73	5497.4	
383.94	5369.1	
384.14	4231.1	
384.35	3433.8	
384.55	5342.5	
384.76	5791	
384.96	4051.6	
385.17	4430.4	
385.37	5726.8	
385.58	5048.2	
385.78	4456.4	
385.98	3349.1	
386.19	5242.8	
386.39	5567.7	
386.6	3874.8	
386.8	4080.2	
387.01	5732.9	
387.21	5847	
387.42	4467.3	
387.62	5057.8	
387.83	5153.4	
388.03	5625.8	
388.23	4187.4	
388.44	4989.5	
388.64	4724.7	
388.85	4917.2	
389.05	4511	
389.26	5027.8	
389.46	6682.5	
389.67	6104.3	
389.87	4393.6	
390.07	4428.4	
390.28	5387.5	
390.48	4888.5	
390.69	3707.5	
390.89	4019.5	
391.1	5140.4	
391.3	6066.8	
391.5	5158.2	
391.71	5743.9	
391.91	5699.5	
392.12	6714.6	
392.32	5156.1	
392.53	4543.8	
392.73	5190.9	
392.93	5386.2	
393.14	4137.6	
393.34	4939.7	
393.55	5842.9	
393.75	5380	
393.95	4083	
394.16	4111.6	
394.36	5189.6	
394.57	5786.9	
394.77	3629.7	
394.98	4027	
395.18	5129.5	
395.38	5181.4	
395.59	4899.4	
395.79	3835.2	
396	5275.6	
396.2	5705	
396.4	4813.4	
396.61	4595.6	
396.81	5853.1	
397.02	5155.4	
397.22	4901.5	
397.42	4959.5	
397.63	5795.1	
397.83	5088.5	
398.04	3764.8	
398.24	4265.9	
398.44	5601.2	
398.65	4701.5	
398.85	3687	
399.05	3792.2	
399.26	5065.3	
399.46	6746	
399.67	4143.7	
399.87	3923.9	
400.07	5443.5	
400.28	5739.1	
400.48	3953.3	
400.69	4926.7	
400.89	5995.1	
401.09	6337.8	
401.3	3843.4	
401.5	4937.7	
401.7	6548	
401.91	6759.7	
402.11	4087.1	
402.32	4354.7	
402.52	5930.9	
402.72	5817.6	
402.93	4550.6	
403.13	3442	
403.33	6623.8	
403.54	5375.9	
403.74	4281.6	
403.94	5220.3	
404.15	5505.6	
404.35	6645	
404.56	4158.1	
404.76	5924.8	
404.96	5989.6	
405.17	5737	
405.37	5358.9	
405.57	4577.9	
405.78	5906.3	
405.98	5403.2	
406.18	4047.5	
406.39	4955.4	
406.59	5862	
406.79	5520.6	
407	3943.7	
407.2	4072	
407.4	6021.7	
407.61	6226.5	
407.81	4029.7	
408.01	5792.3	
408.22	5017.5	
408.42	6899.6	
408.62	5120.6	
408.83	4468.7	
409.03	5739.8	
409.23	5329.5	
409.44	4585.4	
409.64	4845.5	
409.84	6353.5	
410.05	6300.9	
410.25	4683.7	
410.45	4472.8	
410.66	5752.1	
410.86	8172.8	
411.06	4757.4	
411.27	4705.5	
411.47	7868.3	
411.67	5926.1	
411.88	4975.9	
412.08	5127.4	
412.28	6510.5	
412.49	7036.8	
412.69	4684.4	
412.89	4687.8	
413.09	6812.9	
413.3	6657.9	
413.5	4705.5	
413.7	4245.4	
413.91	5945.9	
414.11	6757.6	
414.31	4510.3	
414.52	4969.7	
414.72	6426.5	
414.92	6352.8	
415.12	4541.7	
415.33	5040.7	
415.53	6696.2	
415.73	6870.3	
415.94	5400.5	
416.14	4820.2	
416.34	5687.2	
416.55	5507.7	
416.75	5996.5	
416.95	5379.3	
417.15	6677.7	
417.36	7370	
417.56	6218.3	
417.76	5193.6	
417.97	7019.1	
418.17	6685.3	
418.37	4861.9	
418.57	4818.2	
418.78	6457.9	
418.98	6098.2	
419.18	5664	
419.38	5610.8	
419.59	6170.5	
419.79	5821	
419.99	4803.9	
420.2	5132.2	
420.4	6708.5	
420.6	6920.1	
420.8	4687.1	
421.01	4491.9	
421.21	6494.1	
421.41	6646.3	
421.61	5048.2	
421.82	4693.9	
422.02	5990.3	
422.22	7013.6	
422.42	5596.4	
422.63	5264.6	
422.83	6120	
423.03	7353.6	
423.23	5267.4	
423.44	4202.4	
423.64	6296.8	
423.84	5982.1	
424.04	4672.8	
424.25	4358.1	
424.45	7114.6	
424.65	7037.5	
424.85	4197	
425.06	4751.3	
425.26	7129.7	
425.46	5694.7	
425.66	5271.5	
425.87	4844.1	
426.07	6860.7	
426.27	6636.8	
426.47	5047.6	
426.67	4406.5	
426.88	7264.1	
427.08	6678.4	
427.28	5269.4	
427.48	4333.5	
427.69	5593	
427.89	6192.4	
428.09	5212.1	
428.29	4438.6	
428.5	6921.5	
428.7	6459.3	
428.9	4316.4	
429.1	4855.7	
429.3	6326.9	
429.51	6776.7	
429.71	4649.6	
429.91	5468.8	
430.11	6636.1	
430.31	7176.1	
430.52	4835.3	
430.72	5154.1	
430.92	7210.2	
431.12	6650.4	
431.32	4507.6	
431.53	5032.5	
431.73	5638.1	
431.93	7228.6	
432.13	4492.6	
432.33	4387.4	
432.54	6087.9	
432.74	6423.8	
432.94	4304.1	
433.14	5345.2	
433.34	6554.2	
433.55	6146	
433.75	5311.7	
433.95	6881.9	
434.15	6318.7	
434.35	6103.6	
434.56	4510.3	
434.76	3956	
434.96	6309.1	
435.16	6567.2	
435.36	4349.2	
435.56	5487.2	
435.77	5969.8	
435.97	6147.3	
436.17	6158.9	
436.37	5367	
436.57	5925.5	
436.78	5847	
436.98	7056.6	
437.18	5960.3	
437.38	6603.3	
437.58	6169.8	
437.78	6047.7	
437.99	4651.6	
438.19	6641.6	
438.39	7992.5	
438.59	4738.3	
438.79	4207.2	
438.99	7260	
439.2	6144.6	
439.4	4399	
439.6	4339	
439.8	6526.9	
440	7503.8	
440.2	5332.2	
440.4	5415.5	
440.61	6841.6	
440.81	7341.3	
441.01	4517.1	
441.21	5251.7	
441.41	7144	
441.61	6806.8	
441.81	5612.8	
442.02	6562.4	
442.22	7620.5	
442.42	6915.3	
442.62	4498.7	
442.82	4620.9	
443.02	7167.2	
443.22	6307.7	
443.43	4964.3	
443.63	4495.3	
443.83	6125.5	
444.03	6089.3	
444.23	5756.8	
444.43	5300.8	
444.63	6424.5	
444.83	7524.2	
445.04	4607.2	
445.24	5795.1	
445.44	6799.9	
445.64	6879.8	
445.84	5412.8	
446.04	5404.6	
446.24	6111.8	
446.44	7101.7	
446.65	4622.3	
446.85	5024.3	
447.05	6585.6	
447.25	7118.1	
447.45	5072.1	
447.65	4457.7	
447.85	6524.8	
448.05	6150.1	
448.25	5467.4	
448.46	5258.5	
448.66	6501.6	
448.86	6235.4	
449.06	4344.4	
449.26	5541.1	
449.46	6833.4	
449.66	5896.8	
449.86	4970.4	
450.06	4926	
450.26	6037.4	
450.47	6631.3	
450.67	5244.2	
450.87	5546.6	
451.07	6733	
451.27	6521.4	
451.47	4556	
451.67	5127.4	
451.87	6208.8	
452.07	7377.5	
452.27	4789.5	
452.47	4743.8	
452.67	6533.7	
452.88	6937.2	
453.08	4158.1	
453.28	6137.8	
453.48	7619.1	
453.68	6420.4	
453.88	4707.6	
454.08	4904.2	
454.28	6752.8	
454.48	6503	
454.68	5428.5	
454.88	6065.4	
455.08	6904.4	
455.28	6651.1	
455.48	4532.8	
455.68	5165	
455.89	7340.6	
456.09	6937.2	
456.29	4848.2	
456.49	4904.2	
456.69	7200.7	
456.89	6511.2	
457.09	5411.4	
457.29	5707.7	
457.49	6816.3	
457.69	6892.1	
457.89	5162.2	
458.09	4663.2	
458.29	6537.8	
458.49	7217.7	
458.69	5556.1	
458.89	4929.5	
459.09	7404.1	
459.29	7531.7	
459.49	5096	
459.69	5857.9	
459.9	7019.1	
460.1	6500.9	
460.3	5049.6	
460.5	4793.6	
460.7	6980.2	
460.9	6674.3	
461.1	4496	
461.3	5712.5	
461.5	7570.7	
461.7	7183.6	
461.9	4856.4	
462.1	5347.9	
462.3	6747.4	
462.5	7238.2	
462.7	4937	
462.9	4937	
463.1	8273.1	
463.3	7876.5	
463.5	5152	
463.7	6003.3	
463.9	6837.5	
464.1	7289.4	
464.3	5199.8	
464.5	5527.5	
464.7	7382.2	
464.9	7036.1	
465.1	6771.9	
465.3	5806.7	
465.5	7731.8	
465.7	7675.1	
465.9	6044.9	
466.1	5939.1	
466.3	7547.4	
466.5	7387	
466.7	6739.9	
466.9	5634.6	
467.1	7365.2	
467.3	8221.2	
467.5	6647	
467.7	5487.2	
467.9	8474.5	
468.1	9256.1	
468.3	6296.1	
468.5	6660.7	
468.7	7240.9	
468.9	7240.3	
469.1	5778.7	
469.3	6510.5	
469.5	9161.9	
469.7	6807.4	
469.9	6228.6	
470.1	5464	
470.3	7224.6	
470.5	7236.8	
470.7	6719.4	
470.9	5689.3	
471.1	7043	
471.3	7477.8	
471.5	5465.3	
471.69	7270.3	
471.89	6956.9	
472.09	6477	
472.29	6144.6	
472.49	6657.9	
472.69	6632.7	
472.89	7516	
473.09	5388.2	
473.29	5517.9	
473.49	6847.7	
473.69	6982.9	
473.89	6504.3	
474.09	5610.8	
474.29	8228.7	
474.49	7884	
474.69	6447.7	
474.89	5779.4	
475.09	7049.8	
475.29	7010.2	
475.49	5267.4	
475.69	5532.2	
475.88	8651.3	
476.08	7172.7	
476.28	5147.2	
476.48	5678.3	
476.68	7789.1	
476.88	7632.8	
477.08	5489.2	
477.28	5851	
477.48	7149.5	
477.68	7836.9	
477.88	5298.1	
478.08	5605.3	
478.28	8110	
478.48	7236.2	
478.67	5649.7	
478.87	5131.5	
479.07	7901.7	
479.27	7322.9	
479.47	5917.9	
479.67	5868.8	
479.87	7765.2	
480.07	8211	
480.27	5132.2	
480.47	6775.4	
480.67	7440.3	
480.87	7991.9	
481.06	5501.5	
481.26	6285.9	
481.46	7391.8	
481.66	7292.8	
481.86	5894.7	
482.06	7025.9	
482.26	7029.3	
482.46	7986.4	
482.66	5806.7	
482.86	5442.8	
483.05	7441.6	
483.25	6851.8	
483.45	8219.9	
483.65	5927.5	
483.85	6922.8	
484.05	7273	
484.25	6277	
484.45	6664.1	
484.65	8235.6	
484.84	8109.3	
485.04	5742.5	
485.24	5742.5	
485.44	8377.6	
485.64	6724.8	
485.84	5034.6	
486.04	6370.5	
486.24	7155.6	
486.44	7501.7	
486.63	4989.5	
486.83	5902.2	
487.03	6959	
487.23	7159	
487.43	5137.7	
487.63	7389.1	
487.83	7220.5	
488.02	8114.1	
488.22	6049.7	
488.42	6614.9	
488.62	8049.9	
488.82	7036.8	
489.02	5672.9	
489.22	5738.4	
489.41	7955	
489.61	7539.3	
489.81	5453.7	
490.01	5472.9	
490.21	7830.7	
490.41	8557.8	
490.61	5375.9	
490.8	5543.2	
491	7319.4	
491.2	6665.5	
491.4	6177.4	
491.6	5304.9	
491.8	7294.2	
491.99	7490.8	
492.19	5225.1	
492.39	5646.9	
492.59	7930.4	
492.79	7991.2	
492.99	6407.4	
493.18	5453.1	
493.38	8039.6	
493.58	8714.8	
493.78	6154.8	
493.98	5734.3	
494.18	7687.4	
494.37	7103	
494.57	6361.7	
494.77	6227.9	
494.97	7875.1	
495.17	8032.1	
495.37	5728.2	
495.56	6114.6	
495.76	8267.6	
495.96	7852.6	
496.16	6964.5	
496.36	5855.8	
496.55	8062.2	
496.75	7560.4	
496.95	6219	
497.15	6156.2	
497.35	8023.9	
497.54	8004.1	
497.74	5895.4	
497.94	7415.7	
498.14	8726.4	
498.34	8488.8	
498.53	5563.6	
498.73	6362.4	
498.93	7395.9	
499.13	7937.9	
499.33	6225.8	
499.52	6768.5	
499.72	7914	
499.92	8258.1	
500.12	5876.3	
500.32	6128.9	
500.51	8185	
500.71	7917.4	
500.91	6917.4	
501.11	6567.2	
501.31	8083.3	
501.5	8489.5	
501.7	7170.6	
501.9	6156.9	
502.1	7945.4	
502.29	8193.2	
502.49	6595.8	
502.69	7070.3	
502.89	8093.6	
503.09	8058.1	
503.28	5650.3	
503.48	5836	
503.68	7404.1	
503.88	7372	
504.07	6760.3	
504.27	6270.9	
504.47	7703.8	
504.67	7921.5	
504.86	6744.6	
505.06	6319.3	
505.26	7452.6	
505.46	9217.9	
505.65	6248.4	
505.85	6551.5	
506.05	7419.1	
506.25	7964.6	
506.44	5724.1	
506.64	6578.1	
506.84	7379.5	
507.04	8355.7	
507.23	5853.1	
507.43	6499.6	
507.63	9413.1	
507.83	7604.8	
508.02	6464.1	
508.22	6124.1	
508.42	9548.3	
508.62	7391.8	
508.81	6270.9	
509.01	6962.4	
509.21	7317.4	
509.4	7552.9	
509.6	6645.7	
509.8	5968.5	
510	7556.3	
510.19	8987.2	
510.39	5919.3	
510.59	6008.1	
510.79	7305.1	
510.98	8683.4	
511.18	5960.3	
511.38	6177.4	
511.57	8110	
511.77	8030.8	
511.97	6837.5	
512.17	5774.6	
512.36	8153	
512.56	8147.5	
512.76	5865.4	
512.95	5629.9	
513.15	8168	
513.35	6950.1	
513.55	6722.8	
513.74	5870.8	
513.94	8192.6	
514.14	7630	
514.33	6795.2	
514.53	6548	
514.73	7579.5	
514.92	7774.1	
515.12	6074.3	
515.32	5819	
515.51	7801.4	
515.71	8296.3	
515.91	7537.9	
516.11	5933.6	
516.3	9381.1	
516.5	7399.3	
516.7	6484.6	
516.89	7006.1	
517.09	7560.4	
517.29	7415	
517.48	6691.4	
517.68	6169.2	
517.88	7284.6	
518.07	7964.6	
518.27	6615.6	
518.47	5697.4	
518.66	8432.9	
518.86	7139.2	
519.06	5598.5	
519.25	6111.8	
519.45	7421.2	
519.65	8839.7	
519.84	6635.4	
520.04	7308.5	
520.24	9260.2	
520.43	7976.8	
520.63	6314.6	
520.83	5949.3	
521.02	7219.8	
521.22	7943.4	
521.42	6685.3	
521.61	7174	
521.81	7550.2	
522.01	7806.9	
522.2	6459.3	
522.4	6270.2	
522.6	8153.6	
522.79	7008.8	
522.99	6427.9	
523.18	5668.8	
523.38	7914	
523.58	7959.8	
523.77	7436.9	
523.97	5587.5	
524.17	9649.3	
524.36	8807.6	
524.56	6884.6	
524.76	6629.3	
524.95	7776.8	
525.15	7525.6	
525.34	6335.7	
525.54	6328.9	
525.74	8183.7	
525.93	7164.5	
526.13	7474.4	
526.33	6268.1	
526.52	8454	
526.72	7927	
526.91	7568.6	
527.11	6742.6	
527.31	8531.8	
527.5	8881.4	
527.7	6683.2	
527.89	5725.4	
528.09	7516	
528.29	8033.5	
528.48	7066.9	
528.68	6775.4	
528.87	8473.8	
529.07	8450.6	
529.27	6625.9	
529.46	6148.7	
529.66	7974.1	
529.85	8330.5	
530.05	5913.2	
530.25	6692.1	
530.44	9290.3	
530.64	7969.3	
530.83	6479.8	
531.03	6659.3	
531.23	8424	
531.42	8274.5	
531.62	7397.3	
531.81	6621.8	
532.01	8516.8	
532.21	8885.5	
532.4	6312.5	
532.6	6709.1	
532.79	9318.3	
532.99	8438.3	
533.18	6563.7	
533.38	7695.6	
533.58	8023.3	
533.77	8777.6	
533.97	6591.7	
534.16	7466.2	
534.36	8979.7	
534.55	8032.1	
534.75	7587	
534.95	6741.9	
535.14	8810.4	
535.34	8006.2	
535.53	6382.2	
535.73	8231.5	
535.92	9406.3	
536.12	8190.5	
536.31	6445	
536.51	7638.2	
536.71	8615.8	
536.9	8131.8	
537.1	6646.3	
537.29	6736.5	
537.49	9035	
537.68	8007.6	
537.88	7172	
538.07	6388.3	
538.27	8309.3	
538.46	9327.1	
538.66	6223.1	
538.86	6675.7	
539.05	8376.2	
539.25	8705.2	
539.44	6849.1	
539.64	6543.9	
539.83	8139.3	
540.03	9153.7	
540.22	6430.6	
540.42	6696.9	
540.61	8421.2	
540.81	8563.9	
541	7104.4	
541.2	7697.6	
541.39	7972.1	
541.59	8325.7	
541.78	7275.1	
541.98	6483.2	
542.18	7561.8	
542.37	7640.3	
542.57	7021.1	
542.76	7350.8	
542.96	7752.9	
543.15	8451.3	
543.35	6949.4	
543.54	6233.3	
543.74	8745.5	
543.93	8355	
544.13	6931.7	
544.32	8078.6	
544.52	8704.5	
544.71	7862.2	
544.91	6049	
545.1	7275.8	
545.3	7848.5	
545.49	8557.8	
545.69	5961	
545.88	6567.2	
546.08	9524.4	
546.27	9107.3	
546.47	7061.4	
546.66	6396.5	
546.86	8765.3	
547.05	9380.4	
547.24	6655.2	
547.44	6507.1	
547.63	7694.9	
547.83	8835.6	
548.02	6854.6	
548.22	7042.3	
548.41	7576.8	
548.61	8915.5	
548.8	6378.7	
549	6332.3	
549.19	8234.2	
549.39	8396	
549.58	6121.4	
549.78	6749.4	
549.97	8615.1	
550.17	8058.8	
550.36	7645.8	
550.55	8554.4	
550.75	8179.6	
550.94	9023.4	
551.14	6358.9	
551.33	6739.9	
551.53	7501	
551.72	8510	
551.92	6782.2	
552.11	6501.6	
552.31	8551.6	
552.5	8540.7	
552.69	8254	
552.89	6197.2	
553.08	8436.3	
553.28	8198.7	
553.47	6558.3	
553.67	7733.8	
553.86	9168.1	
554.06	7477.8	
554.25	5801.2	
554.44	6372.6	
554.64	9862.3	
554.83	9295	
555.03	6366.5	
555.22	6634.1	
555.42	8684.8	
555.61	8352.3	
555.8	6481.8	
556	6780.8	
556.19	7634.8	
556.39	8876.6	
556.58	6564.4	
556.78	6591	
556.97	8280.6	
557.16	8006.9	
557.36	7828	
557.55	6227.2	
557.75	7334.5	
557.94	9087.5	
558.13	6352.1	
558.33	6075	
558.52	8792.6	
558.72	7705.8	
558.91	6212.9	
559.1	6499.6	
559.3	7481.2	
559.49	7205.4	
559.69	5840.1	
559.88	6851.8	
560.07	8253.3	
560.27	8684.8	
560.46	6989	
560.66	7166.5	
560.85	8091.5	
561.04	7221.8	
561.24	6217	
561.43	6432	
561.63	7528.3	
561.82	7803.4	
562.01	7640.3	
562.21	6674.3	
562.4	8304.5	
562.59	9198.1	
562.79	6482.5	
562.98	6242.9	
563.18	8193.2	
563.37	9631.6	
563.56	7002	
563.76	6115.9	
563.95	7651.2	
564.14	7564.5	
564.34	6527.6	
564.53	6270.2	
564.73	8176.2	
564.92	8491.6	
565.11	6695.5	
565.31	5978	
565.5	8757.8	
565.69	7683.3	
565.89	6313.9	
566.08	6580.8	
566.27	8548.9	
566.47	8882.7	
566.66	7197.2	
566.85	5869.5	
567.05	8188.5	
567.24	7628.7	
567.44	6215.6	
567.63	7590.5	
567.82	8400.1	
568.02	8160.5	
568.21	6214.9	
568.4	6575.3	
568.6	8034.9	
568.79	7977.5	
568.98	6074.3	
569.18	6238.1	
569.37	8005.5	
569.56	9972.2	
569.76	6587.6	
569.95	7524.2	
570.14	8464.9	
570.34	8350.3	
570.53	6164.4	
570.72	6094.8	
570.91	8822	
571.11	8017.1	
571.3	6602.7	
571.49	7495.6	
571.69	8082.6	
571.88	7618.4	
572.07	7037.5	
572.27	7060	
572.46	7640.3	
572.65	8656.8	
572.85	6351.4	
573.04	6739.9	
573.23	8852.7	
573.43	8169.3	
573.62	6113.2	
573.81	6713.2	
574	8253.3	
574.2	7998.7	
574.39	6477.7	
574.58	6630	
574.78	8973.5	
574.97	8234.2	
575.16	6972.7	
575.36	7197.2	
575.55	8615.8	
575.74	8759.8	
575.93	6167.8	
576.13	7139.9	
576.32	8015.7	
576.51	8597.4	
576.71	6619	
576.9	7823.9	
577.09	8882	
577.28	8451.3	
577.48	6985.6	
577.67	6082.5	
577.86	8000	
578.05	8304.5	
578.25	6665.5	
578.44	6763.8	
578.63	8155	
578.83	9329.9	
579.02	6123.4	
579.21	7605.5	
579.4	8366.6	
579.6	8024.6	
579.79	6861.4	
579.98	9009.7	
580.17	8744.8	
580.37	8844.5	
580.56	6326.9	
580.75	7101.7	
580.94	9165.3	
581.14	9138.7	
581.33	7473.7	
581.52	6389	
581.71	8542.1	
581.91	9229.5	
582.1	6073.6	
582.29	6617	
582.48	8217.8	
582.68	8082.6	
582.87	7195.9	
583.06	6777.4	
583.25	8578.9	
583.45	7955	
583.64	7404.8	
583.83	8119.5	
584.02	8058.8	
584.21	8521.6	
584.41	7393.8	
584.6	6713.2	
584.79	8233.5	
584.98	8843.8	
585.18	6137.8	
585.37	6250.4	
585.56	7736.5	
585.75	8505.2	
585.94	6455.9	
586.14	7066.9	
586.33	9173.5	
586.52	8176.9	
586.71	6924.2	
586.91	6696.2	
587.1	7645.1	
587.29	8647.9	
587.48	6669.6	
587.67	6425.8	
587.87	8493.6	
588.06	8611	
588.25	7871.7	
588.44	7172	
588.63	8198.7	
588.83	8809	
589.02	6616.3	
589.21	6606.1	
589.4	8065.6	
589.59	7867.6	
589.78	5836.7	
589.98	6161	
590.17	7521.5	
590.36	8152.3	
590.55	5655.1	
590.74	6477.7	
590.94	9466.4	
591.13	8058.1	
591.32	6233.3	
591.51	5709.7	
591.7	8500.4	
591.89	8043.1	
592.09	5870.8	
592.28	6369.2	
592.47	7244.3	
592.66	9074.5	
592.85	5869.5	
593.05	6060.6	
593.24	7854	
593.43	8624	
593.62	6150.7	
593.81	6590.4	
594	7846.5	
594.19	8138.6	
594.39	6066.8	
594.58	5971.2	
594.77	8190.5	
594.96	8771.5	
595.15	6008.1	
595.34	6546	
595.54	8164.6	
595.73	7374.1	
595.92	5349.3	
596.11	6514.6	
596.3	8696.4	
596.49	7515.4	
596.68	6277.7	
596.88	6679.1	
597.07	8446.5	
597.26	7243.7	
597.45	5803.9	
597.64	7009.5	
597.83	7535.2	
598.02	8137.9	
598.22	5872.9	
598.41	6535.8	
598.6	7865.6	
598.79	7346.7	
598.98	5932.3	
599.17	6833.4	
599.36	7985.7	
599.55	9131.2	
599.74	7828	
599.94	7669	
600.13	8441	
600.32	7337.2	
600.51	5671.5	
600.7	5769.8	
600.89	9106.6	
601.08	9075.2	
601.27	5528.8	
601.47	6522.1	
601.66	8370.7	
601.85	8951.7	
602.04	6187.6	
602.23	6472.3	
602.42	7443	
602.61	8079.9	
602.8	6167.8	
602.99	5907.7	
603.18	7770.7	
603.37	7940	
603.57	6488	
603.76	7051.2	
603.95	8766.7	
604.14	8312.7	
604.33	6041.5	
604.52	6303	
604.71	7950.9	
604.9	7664.9	
605.09	7227.3	
605.28	6698.2	
605.47	8563.2	
605.66	8273.1	
605.86	6566.5	
606.05	6004	
606.24	8447.2	
606.43	7176.8	
606.62	6255.2	
606.81	6993.1	
607	8358.4	
607.19	7721.5	
607.38	5820.3	
607.57	5939.1	
607.76	7439.6	
607.95	6995.2	
608.14	6310.5	
608.33	6921.5	
608.52	7479.9	
608.72	8430.1	
608.91	5653.8	
609.1	5576.6	
609.29	7627.3	
609.48	7062.1	
609.67	6655.2	
609.86	5641.5	
610.05	7223.2	
610.24	7508.5	
610.43	5511.1	
610.62	5216.2	
610.81	8690.2	
611	8413.7	
611.19	5608.7	
611.38	6294.8	
611.57	7879.9	
611.76	9125.7	
611.95	5439.4	
612.14	5326.8	
612.33	7658.7	
612.52	7196.6	
612.71	5973.2	
612.9	5165.7	
613.09	6836.1	
613.28	9125.1	
613.47	5717.9	
613.66	6624.5	
613.85	7829.4	
614.04	7263.5	
614.24	5831.2	
614.43	5087.8	
614.62	7907.2	
614.81	7798	
615	6447	
615.19	6411.5	
615.38	7174.7	
615.57	7467.6	
615.76	6230.6	
615.95	7132.4	
616.14	7970	
616.33	7647.1	
616.52	6493.4	
616.71	6694.1	
616.9	7878.5	
617.09	7660.8	
617.28	5829.2	
617.47	7131	
617.66	6998.6	
617.85	7084.6	
618.04	6754.9	
618.22	6179.4	
618.41	7397.9	
618.6	8230.8	
618.79	6088.6	
618.98	5845.6	
619.17	8515.5	
619.36	6833.4	
619.55	6004.6	
619.74	5978	
619.93	7821.9	
620.12	7223.9	
620.31	6520.7	
620.5	6675.7	
620.69	8354.3	
620.88	8708.6	
621.07	7311.2	
621.26	6435.4	
621.45	8002.8	
621.64	7925.6	
621.83	6526.9	
622.02	5628.5	
622.21	7937.9	
622.4	7780.2	
622.59	7064.8	
622.78	6803.4	
622.97	7350.2	
623.16	8206.2	
623.35	6445	
623.54	5627.1	
623.72	7523.6	
623.91	7718.1	
624.1	6736.5	
624.29	5457.8	
624.48	8715.5	
624.67	8028.7	
624.86	6634.1	
625.05	5608	
625.24	8852.7	
625.43	7292.8	
625.62	8265.6	
625.81	5883.8	
626	8330.5	
626.19	7529.7	
626.38	6655.9	
626.56	6091.3	
626.75	7363.8	
626.94	8213	
627.13	6646.3	
627.32	5410.1	
627.51	8071.7	
627.7	9357.2	
627.89	5604.6	
628.08	6704.4	
628.27	7254.6	
628.46	7563.1	
628.65	5893.4	
628.83	5513.1	
629.02	8082.6	
629.21	7360.4	
629.4	6251.8	
629.59	6504.3	
629.78	7255.3	
629.97	8254	
630.16	6516	
630.35	5909.1	
630.54	8690.2	
630.72	8366	
630.91	5990.3	
631.1	6476.4	
631.29	7811.6	
631.48	8028.7	
631.67	6645.7	
631.86	6034.7	
632.05	7457.3	
632.24	7593.9	
632.42	5692	
632.61	6410.1	
632.8	7611.6	
632.99	7288	
633.18	6408.8	
633.37	6742.6	
633.56	7866.2	
633.75	7685.3	
633.93	6297.5	
634.12	6054.5	
634.31	8625.4	
634.5	8303.1	
634.69	6184.2	
634.88	6612.9	
635.07	7665.5	
635.25	8215.1	
635.44	7019.1	
635.63	7106.5	
635.82	7433.4	
636.01	7077.8	
636.2	6935.1	
636.39	6432	
636.57	8578.9	
636.76	8266.3	
636.95	5842.9	
637.14	7233.4	
637.33	7942.7	
637.52	8862.2	
637.7	5718.6	
637.89	6667.5	
638.08	7527.7	
638.27	8891.6	
638.46	6661.4	
638.65	7104.4	
638.83	8936.7	
639.02	7370	
639.21	6584.9	
639.4	7060	
639.59	7942	
639.78	7462.1	
639.96	5850.4	
640.15	5928.9	
640.34	7760.4	
640.53	7898.3	
640.72	5638.1	
640.91	5973.9	
641.09	7214.3	
641.28	8439	
641.47	5958.9	
641.66	6799.3	
641.85	7879.9	
642.03	8062.2	
642.22	6540.5	
642.41	6093.4	
642.6	7243.7	
642.79	6708.5	
642.97	5916.6	
643.16	6688.7	
643.35	7259.4	
643.54	7193.1	
643.73	5744.6	
643.91	6658.6	
644.1	7016.3	
644.29	7575.4	
644.48	5997.8	
644.67	5959.6	
644.85	7186.3	
645.04	7450.5	
645.23	5526.1	
645.42	5797.8	
645.6	7133.1	
645.79	8238.3	
645.98	5843.5	
646.17	4896.7	
646.36	6804	
646.54	7467.6	
646.73	6703.7	
646.92	5475.6	
647.11	7095.5	
647.29	8134.5	
647.48	5564.3	
647.67	5410.1	
647.86	8406.2	
648.05	8313.4	
648.23	5806	
648.42	7116.7	
648.61	7755.7	
648.8	7494.2	
648.98	5483.1	
649.17	5853.1	
649.36	7062.8	
649.55	6554.9	
649.73	5564.3	
649.92	6325.5	
650.11	6924.2	
650.3	7281.2	
650.48	5719.3	
650.67	5423.7	
650.86	7598	
651.05	6460	
651.23	5650.3	
651.42	5605.3	
651.61	7043.6	
651.79	7146.7	
651.98	5817.6	
652.17	5450.3	
652.36	7442.3	
652.54	6542.6	
652.73	5552.7	
652.92	5282.4	
653.11	7576.8	
653.29	7570.7	
653.48	4891.9	
653.67	5788.9	
653.85	7348.1	
654.04	8319.5	
654.23	6008.1	
654.42	5568.4	
654.6	6791.7	
654.79	7462.8	
654.98	5087.8	
655.16	5586.2	
655.35	6463.4	
655.54	6391	
655.73	5270.8	
655.91	5051.7	
656.1	7601.4	
656.29	6348.7	
656.47	4692.6	
656.66	6309.1	
656.85	6663.4	
657.03	6673	
657.22	5210	
657.41	5225.1	
657.59	6746	
657.78	6565.8	
657.97	4899.4	
658.16	5588.2	
658.34	7366.5	
658.53	7700.4	
658.72	6466.8	
658.9	6977.4	
659.09	6822.5	
659.28	6883.9	
659.46	5289.9	
659.65	5229.1	
659.84	6638.8	
660.02	7116	
660.21	5204.6	
660.4	5141.8	
660.58	7567.2	
660.77	6877.8	
660.96	5714.5	
661.14	4827.7	
661.33	8016.4	
661.52	7821.9	
661.7	4757.4	
661.89	8358.4	
662.08	6550.1	
662.26	6154.1	
662.45	5004.6	
662.64	5123.3	
662.82	7275.8	
663.01	6407.4	
663.2	5172.5	
663.38	5993.7	
663.57	7148.1	
663.75	7081.9	
663.94	5510.4	
664.13	6838.2	
664.31	6524.8	
664.5	7188.4	
664.69	5616.2	
664.87	6345.3	
665.06	6295.5	
665.25	7000.6	
665.43	6402	
665.62	6550.8	
665.8	7258	
665.99	6601.3	
666.18	5532.9	
666.36	5603.9	
666.55	7292.8	
666.74	7252.5	
666.92	5126.1	
667.11	6658.6	
667.29	6688.7	
667.48	7258.7	
667.67	6351.4	
667.85	5354.8	
668.04	6723.5	
668.22	6652.5	
668.41	5588.9	
668.6	5732.3	
668.78	6497.5	
668.97	6668.9	
669.15	5917.3	
669.34	4852.3	
669.53	6450.4	
669.71	6864.1	
669.9	5100.1	
670.08	5657.9	
670.27	6501.6	
670.46	6970.6	
670.64	5907	
670.83	6133.7	
671.01	6428.6	
671.2	6957.6	
671.38	5134.9	
671.57	4989.5	
671.76	7623.2	
671.94	8131.1	
672.13	4917.9	
672.31	6068.8	
672.5	7169.9	
672.69	6559	
672.87	5145.9	
673.06	5426.4	
673.24	7014.3	
673.43	6471.6	
673.61	5961.6	
673.8	5461.2	
673.98	7139.2	
674.17	7368.6	
674.36	6014.2	
674.54	5839.4	
674.73	6937.8	
674.91	7324.2	
675.1	5560.9	
675.28	5204.6	
675.47	6722.1	
675.65	7280.5	
675.84	5399.1	
676.03	5762.3	
676.21	6564.4	
676.4	6082.5	
676.58	6231.3	
676.77	6030.6	
676.95	7989.8	
677.14	6412.2	
677.32	5051.7	
677.51	4870.8	
677.69	7245.7	
677.88	6183.5	
678.06	4947.9	
678.25	5058.5	
678.44	6794.5	
678.62	6502.3	
678.81	4743.8	
678.99	5815.5	
679.18	7587.7	
679.36	7102.4	
679.55	5335.6	
679.73	5972.6	
679.92	7103	
680.1	6516.6	
680.29	6644.3	
680.47	5414.1	
680.66	6503	
680.84	7260	
681.03	4676.2	
681.21	5793	
681.4	6546.7	
681.58	6307.1	
681.77	5147.2	
681.95	5041.4	
682.14	7314	
682.32	7660.8	
682.51	6073.6	
682.69	4857.8	
682.88	6389.7	
683.06	7048.4	
683.25	5661.3	
683.43	6126.2	
683.62	6784.9	
683.8	7079.8	
683.99	6277	
684.17	5560.2	
684.36	8018.5	
684.54	6750.8	
684.73	4842.8	
684.91	5013.4	
685.1	7055.3	
685.28	6439.5	
685.46	5651.7	
685.65	5776.6	
685.83	7317.4	
686.02	6593.1	
686.2	5145.2	
686.39	5272.8	
686.57	6213.5	
686.76	7833.5	
686.94	5164.3	
687.13	5233.2	
687.31	7068.2	
687.5	6656.6	
687.68	4788.2	
687.86	6019	
688.05	8328.4	
688.23	6123.4	
688.42	5983.5	
688.6	5205.9	
688.79	6520	
688.97	6529.6	
689.16	5621	
689.34	4575.2	
689.52	7261.4	
689.71	7434.1	
689.89	5872.9	
690.08	5195	
690.26	6809.5	
690.45	6648.4	
690.63	6090.7	
690.81	5322.7	
691	6547.4	
691.18	6545.3	
691.37	5497.4	
691.55	7658	
691.74	6497.5	
691.92	8430.1	
692.1	5498.8	
692.29	4933.6	
692.47	6705	
692.66	5990.3	
692.84	5174.5	
693.02	5689.9	
693.21	6118.6	
693.39	6580.1	
693.58	5801.9	
693.76	5165.7	
693.94	7690.1	
694.13	7462.8	
694.31	5102.9	
694.5	6257.9	
694.68	6425.2	
694.86	6666.8	
695.05	5544.5	
695.23	5844.9	
695.42	7116.7	
695.6	9383.1	
695.78	6158.9	
695.97	5246.2	
696.15	7178.8	
696.34	6556.9	
696.52	4993.6	
696.7	5859.9	
696.89	6905.8	
697.07	6427.2	
697.25	5754.8	
697.44	7208.2	
697.62	6820.4	
697.81	7281.2	
697.99	5416.2	
698.17	5931.6	
698.36	6228.6	
698.54	6927.6	
698.72	5716.6	
698.91	4777.2	
699.09	6516	
699.28	6374.6	
699.46	5462.6	
699.64	5289.2	
699.83	6324.1	
700.01	7556.3	
700.19	6134.3	
700.38	4581.3	
700.56	7537.2	
700.74	6383.5	
700.93	4990.9	
701.11	5740.5	
701.29	6953.5	
701.48	7930.4	
701.66	5156.8	
701.84	5214.1	
702.03	6507.8	
702.21	7098.9	
702.39	4758.8	
702.58	5301.5	
702.76	6848.4	
702.94	7067.5	
703.13	4740.4	
703.31	7086.7	
703.49	6201.2	
703.68	7328.3	
703.86	4920.6	
704.04	5827.2	
704.23	6718	
704.41	7088.7	
704.59	5065.3	
704.78	6328.9	
704.96	7807.5	
705.14	7154.9	
705.33	4898.7	
705.51	5659.9	
705.69	6598.6	
705.87	7354.3	
706.06	6023.8	
706.24	4823	
706.42	6887.3	
706.61	7135.8	
706.79	6014.9	
706.97	4833.2	
707.16	6269.5	
707.34	6863.4	
707.52	5929.6	
707.7	5081	
707.89	6415.6	
708.07	6079.7	
708.25	5932.3	
708.44	6047	
708.62	6354.8	
708.8	7422.5	
708.98	6130.3	
709.17	5116.5	
709.35	6697.5	
709.53	6814.3	
709.72	4797	
709.9	5291.3	
710.08	6978.1	
710.26	7008.8	
710.45	6503	
710.63	5114.5	
710.81	6697.5	
710.99	6706.4	
711.18	5759.6	
711.36	5283.1	
711.54	6537.1	
711.72	7244.3	
711.91	5367.7	
712.09	4807.9	
712.27	6763.1	
712.45	7296.9	
712.64	5664.7	
712.82	4687.1	
713	6169.2	
713.18	6388.3	
713.37	4769	
713.55	6244.9	
713.73	7271	
713.91	5924.8	
714.1	5259.2	
714.28	4711	
714.46	6916.7	
714.64	6194.4	
714.83	4262.5	
715.01	5057.8	
715.19	6306.4	
715.37	5765	
715.55	4723.3	
715.74	5057.8	
715.92	7180.2	
716.1	5220.3	
716.28	6201.9	
716.47	5251	
716.65	5930.9	
716.83	6019.7	
717.01	5099.4	
717.19	5147.9	
717.38	8135.9	
717.56	5689.3	
717.74	5386.2	
717.92	4470.7	
718.1	6923.5	
718.29	6043.6	
718.47	4061.1	
718.65	4764.9	
718.83	6702.3	
719.01	6651.1	
719.2	3986.7	
719.38	5049.6	
719.56	6343.2	
719.74	7818.5	
719.92	4578.6	
720.11	5640.1	
720.29	6452.5	
720.47	5527.5	
720.65	4164.2	
720.83	5036	
721.02	5947.3	
721.2	5774.6	
721.38	5117.9	
721.56	4361.5	
721.74	5233.9	
721.92	5464.7	
722.11	5603.9	
722.29	5307.7	
722.47	6653.2	
722.65	5874.3	
722.83	4405.2	
723.01	5298.1	
723.2	5935.7	
723.38	6221.7	
723.56	3774.4	
723.74	4996.4	
723.92	5451	
724.1	6610.2	
724.29	4300.1	
724.47	5478.3	
724.65	5470.8	
724.83	5438	
725.01	4200.4	
725.19	5074.2	
725.37	5500.2	
725.56	5550	
725.74	4044.7	
725.92	4356.7	
726.1	5408	
726.28	5677	
726.46	4771.1	
726.64	4444.1	
726.83	5681.1	
727.01	6000.5	
727.19	4004.5	
727.37	4851.6	
727.55	5786.2	
727.73	6326.2	
727.91	3997	
728.09	3823.6	
728.28	6311.2	
728.46	6869.6	
728.64	4973.8	
728.82	4879.6	
729	7365.9	
729.18	6604.7	
729.36	4103.4	
729.54	6397.2	
729.72	7529.7	
729.91	5825.1	
730.09	6006.7	
730.27	4689.2	
730.45	5737.7	
730.63	6404	
730.81	5287.2	
730.99	4329.4	
731.17	6903.7	
731.35	5461.2	
731.53	4884.4	
731.71	4450.9	
731.9	6612.2	
732.08	6838.2	
732.26	4745.1	
732.44	4394.3	
732.62	6860.7	
732.8	6250.4	
732.98	5141.1	
733.16	4113	
733.34	6315.3	
733.52	5194.3	
733.7	4688.5	
733.88	4971.8	
734.07	6139.1	
734.25	5982.8	
734.43	4203.1	
734.61	5776.6	
734.79	7357.7	
734.97	5804.6	
735.15	4283.7	
735.33	4629.8	
735.51	6197.2	
735.69	5857.9	
735.87	5732.3	
736.05	4841.4	
736.23	5962.3	
736.41	5753.4	
736.59	4690.5	
736.77	4745.8	
736.95	6377.4	
737.13	5881.8	
737.32	4302.8	
737.5	4528.1	
737.68	6907.1	
737.86	5763	
738.04	4142.4	
738.22	6064.7	
738.4	5561.6	
738.58	5896.1	
738.76	4687.8	
738.94	3667.9	
739.12	5715.2	
739.3	5524.1	
739.48	5309	
739.66	5075.5	
739.84	5935	
740.02	5909.1	
740.2	3778.5	
740.38	4211.3	
740.56	6274.3	
740.74	5207.3	
740.92	4785.4	
741.1	4759.5	
741.28	5735	
741.46	5570.5	
741.64	4334.2	
741.82	4856.4	
742	5791	
742.18	5766.4	
742.36	4575.2	
742.54	4192.2	
742.72	6310.5	
742.9	5109	
743.08	5016.2	
743.26	3784	
743.44	6524.1	
743.62	6342.6	
743.8	5145.2	
743.98	4188.8	
744.16	6066.1	
744.34	5820.3	
744.52	5088.5	
744.7	4981.3	
744.88	6262.7	
745.06	5816.2	
745.24	5100.8	
745.42	5219.6	
745.6	6321.4	
745.78	6142.5	
745.96	3952.6	
746.14	4254.3	
746.32	7112.6	
746.5	6361	
746.68	4828.4	
746.86	4332.1	
747.03	6802	
747.21	5142.4	
747.39	4822.3	
747.57	4276.2	
747.75	6012.2	
747.93	6351.4	
748.11	4346.5	
748.29	4205.8	
748.47	7598	
748.65	5743.2	
748.83	4938.3	
749.01	4751.3	
749.19	6169.8	
749.37	5355.4	
749.55	4555.4	
749.73	4738.3	
749.91	5811.5	
750.09	5616.2	
750.26	4713.1	
750.44	4168.3	
750.62	5866.1	
750.8	5884.5	
750.98	3999	
751.16	4437.9	
751.34	5933	
751.52	5236	
751.7	5102.2	
751.88	3964.9	
752.06	6388.3	
752.24	6251.8	
752.42	3915	
752.59	4276.2	
752.77	5894.1	
752.95	7072.3	
753.13	5027.1	
753.31	4442.7	
753.49	5485.8	
753.67	6022.4	
753.85	4737.6	
754.03	4339.6	
754.21	6247.7	
754.38	6661.4	
754.56	4544.4	
754.74	3576.4	
754.92	5563.6	
755.1	6281.1	
755.28	3674.7	
755.46	3713	
755.64	7171.3	
755.82	7251.9	
755.99	4060.4	
756.17	4213.4	
756.35	4884.4	
756.53	6439.5	
756.71	3139.5	
756.89	4099.4	
757.07	5999.9	
757.25	5041.4	
757.42	4574.5	
757.6	5491.3	
757.78	5997.8	
757.96	5042.1	
758.14	4204.5	
758.32	3759.4	
758.5	4603.8	
758.67	5419.6	
758.85	4134.2	
759.03	4233.8	
759.21	5636	
759.39	5036.6	
759.57	3693.9	
759.75	4837.3	
759.92	6244.3	
760.1	5419.6	
760.28	5116.5	
760.46	5319.3	
760.64	5224.4	
760.82	5042.1	
760.99	5024.3	
761.17	4154.6	
761.35	6071.5	
761.53	5016.8	
761.71	4282.3	
761.89	4967	
762.06	5880.4	
762.24	5365.7	
762.42	4313.7	
762.6	4074.8	
762.78	5358.9	
762.96	6021.7	
763.13	4660.5	
763.31	4364.2	
763.49	6276.3	
763.67	5345.2	
763.85	5190.9	
764.02	5737	
764.2	6445.6	
764.38	5594.4	
764.56	4260.5	
764.74	5120.6	
764.91	6596.5	
765.09	5444.2	
765.27	3932.1	
765.45	3722.5	
765.63	6597.2	
765.8	6429.9	
765.98	3467.9	
766.16	3821.5	
766.34	5070.1	
766.52	4872.8	
766.69	4797.7	
766.87	3631.7	
767.05	5502.2	
767.23	6251.1	
767.41	3958.7	
767.58	4263.2	
767.76	6027.9	
767.94	6046.3	
768.12	4087.7	
768.29	4815.5	
768.47	5601.2	
768.65	6283.2	
768.83	3702.7	
769	4920.6	
769.18	5146.5	
769.36	5877	
769.54	4913.1	
769.72	3753.9	
769.89	6120	
770.07	6251.8	
770.25	4032.5	
770.43	5373.9	
770.6	6851.1	
770.78	7384.3	
770.96	4362.2	
771.14	4840.7	
771.31	6004.6	
771.49	5385.5	
771.67	3479.5	
771.85	3776.5	
772.02	4659.1	
772.2	5473.5	
772.38	4474.8	
772.55	3970.3	
772.73	5718.6	
772.91	5470.1	
773.09	4348.5	
773.26	4453.6	
773.44	5666.7	
773.62	5298.8	
773.8	3880.2	
773.97	3578.5	
774.15	5798.5	
774.33	5335.6	
774.5	3750.5	
774.68	4188.8	
774.86	6007.4	
775.04	5404.6	
775.21	3837.2	
775.39	3842.7	
775.57	5634	
775.74	6062	
775.92	3745.1	
776.1	3596.2	
776.27	5640.1	
776.45	6827.9	
776.63	3875.4	
776.81	3377.8	
776.98	5317.9	
777.16	6346.7	
777.34	3999.7	
777.51	4314.4	
777.69	5295.4	
777.87	5071.5	
778.04	4039.3	
778.22	4629.1	
778.4	5117.2	
778.57	5679	
778.75	3378.5	
778.93	3657	
779.1	4903.5	
779.28	4814.8	
779.46	3330.7	
779.64	3820.8	
779.81	5914.5	
779.99	6763.1	
780.17	4659.1	
780.34	4835.3	
780.52	5412.8	
780.69	5597.1	
780.87	4187.4	
781.05	3721.2	
781.22	5477	
781.4	5530.9	
781.58	3919.8	
781.75	3057.6	
781.93	5489.2	
782.11	4841.4	
782.28	4753.3	
782.46	3938.2	
782.64	4780.6	
782.81	5674.2	
782.99	3986	
783.17	3898.6	
783.34	5543.2	
783.52	4782	
783.69	4151.9	
783.87	5051.7	
784.05	4954	
784.22	4948.6	
784.4	4969.7	
784.58	4270	
784.75	5833.3	
784.93	4977.2	
785.1	3900	
785.28	4549.2	
785.46	5571.2	
785.63	4934.2	
785.81	3894.6	
785.99	3772.4	
786.16	5067.4	
786.34	5502.9	
786.51	3805.1	
786.69	4201.1	
786.87	4667.3	
787.04	5255.1	
787.22	3620.1	
787.39	4647.5	
787.57	4915.8	
787.75	6026.5	
787.92	4806.6	
788.1	4749.9	
788.27	4987.5	
788.45	4684.4	
788.63	4503.5	
788.8	3166.2	
788.98	5300.8	
789.15	4661.2	
789.33	3295.2	
789.5	3990.1	
789.68	5849.7	
789.86	5976.7	
790.03	4408.6	
790.21	3830.4	
790.38	5836.7	
790.56	5051	
790.73	3703.4	
790.91	3734.8	
791.09	4868	
791.26	5672.9	
791.44	3917.1	
791.61	3386.7	
791.79	4941.1	
791.96	5027.8	
792.14	3541.6	
792.32	3095.2	
792.49	4909.7	
792.67	5066.7	
792.84	3546.4	
793.02	3411.2	
793.19	5404.6	
793.37	6105	
793.54	3078.1	
793.72	3472	
793.89	6197.2	
794.07	4984.8	
794.25	4132.1	
794.42	3191.4	
794.6	5980.1	
794.77	5627.8	
794.95	4383.3	
795.12	3755.3	
795.3	4904.2	
795.47	5565.7	
795.65	4147.8	
795.82	3943.7	
796	4764.9	
796.17	6705	
796.35	3876.1	
796.52	4590.2	
796.7	5437.4	
796.87	5595.7	
797.05	4883.7	
797.22	4766.3	
797.4	5560.2	
797.57	6522.1	
797.75	4000.4	
797.92	3738.2	
798.1	5909.8	
798.27	4902.2	
798.45	3222.1	
798.62	3434.4	
798.8	5302.2	
798.97	5796.4	
799.15	4230.4	
799.32	3984	
799.5	4547.2	
799.67	5317.9	
799.85	4372.4	
800.02	3160	
800.2	4950.6	
800.37	5244.2	
800.55	4539	
800.72	3743	
800.9	5689.3	
801.07	6116.6	
801.25	5096.7	
801.42	4141.7	
801.6	5765.7	
801.77	5480.4	
801.95	3802.4	
802.12	3633.8	
802.29	5419.6	
802.47	5447.6	
802.64	4130.8	
802.82	3097.9	
802.99	4900.8	
803.17	5960.3	
803.34	3991.5	
803.52	3590.8	
803.69	6568.5	
803.87	4711.7	
804.04	3996.3	
804.21	4062.5	
804.39	6051.1	
804.56	5093.3	
804.74	3351.8	
804.91	4154.6	
805.09	4977.9	
805.26	5033.9	
805.44	3482.2	
805.61	3756	
805.78	5583.4	
805.96	5667.4	
806.13	4147.1	
806.31	4525.3	
806.48	4463.2	
806.66	5052.3	
806.83	4121.9	
807	4024.3	
807.18	4902.8	
807.35	5345.2	
807.53	4057	
807.7	3246.7	
807.87	6103.6	
808.05	5018.9	
808.22	4463.2	
808.4	3280.2	
808.57	5042.8	
808.74	4651.6	
808.92	3707.5	
809.09	4726	
809.27	4857.1	
809.44	5500.2	
809.61	3223.5	
809.79	3566.2	
809.96	6095.4	
810.14	5740.5	
810.31	3182.5	
810.48	3850.9	
810.66	5033.2	
810.83	5781.4	
811.01	3707.5	
811.18	4148.5	
811.35	5697.4	
811.53	4384	
811.7	4496.7	
811.87	4147.8	
812.05	4954	
812.22	4938.3	
812.39	3545	
812.57	3422.8	
812.74	5012.1	
812.92	6685.3	
813.09	3884.3	
813.26	4220.9	
813.44	6374.6	
813.61	4955.4	
813.78	3216	
813.96	4366.3	
814.13	5005.9	
814.3	4704.9	
814.48	4679.6	
814.65	3837.9	
814.82	6212.2	
815	4831.2	
815.17	4027	
815.34	4847.5	
815.52	4896.7	
815.69	4935.6	
815.87	4033.8	
816.04	3429.7	
816.21	5003.2	
816.38	4403.8	
816.56	3816.7	
816.73	3541.6	
816.9	6296.8	
817.08	5760.9	
817.25	3586.7	
817.42	4575.2	
817.6	4586.8	
817.77	5049.6	
817.94	4063.9	
818.12	3548.4	
818.29	4756.7	
818.46	7463.5	
818.64	3736.2	
818.81	3456.3	
818.98	4709	
819.16	6819.7	
819.33	4243.4	
819.5	3922.5	
819.67	5333.6	
819.85	6035.4	
820.02	3871.3	
820.19	4167.6	
820.37	5195	
820.54	4812.7	
820.71	4032.5	
820.88	5068.7	
821.06	5246.2	
821.23	4805.9	
821.4	4093.2	
821.58	3983.3	
821.75	5728.9	
821.92	5143.8	
822.09	3259.7	
822.27	3338.2	
822.44	5004.6	
822.61	4926.7	
822.79	3282.9	
822.96	6307.7	
823.13	5444.9	
823.3	4733.5	
823.48	3773	
823.65	3401.7	
823.82	5672.9	
823.99	4584.7	
824.17	4787.5	
824.34	3481.5	
824.51	6614.3	
824.68	5091.9	
824.86	3608.5	
825.03	4005.1	
825.2	5014.8	
825.37	6085.2	
825.55	3568.2	
825.72	3983.3	
825.89	6615.6	
826.06	6254.5	
826.24	3871.3	
826.41	3966.2	
826.58	6094.8	
826.75	5306.3	
826.92	3044	
827.1	3411.2	
827.27	8281.3	
827.44	6583.5	
827.61	3667.2	
827.79	4517.8	
827.96	4737	
828.13	5109.7	
828.3	3876.8	
828.47	3248.1	
828.65	5268.7	
828.82	5219.6	
828.99	5005.9	
829.16	4338.3	
829.34	5668.8	
829.51	5345.9	
829.68	3953.3	
829.85	4170.3	
830.02	5872.2	
830.2	5637.4	
830.37	3069.2	
830.54	4795.7	
830.71	6470.2	
830.88	5038	
831.05	3138.2	
831.23	3616.7	
831.4	6200.6	
831.57	6841.6	
831.74	3732.1	
831.91	3289	
832.09	5255.8	
832.26	5599.1	
832.43	3839.9	
832.6	4326	
832.77	5268.7	
832.94	6079.1	
833.12	3088.3	
833.29	3778.5	
833.46	4893.3	
833.63	7089.4	
833.8	4192.2	
833.97	3859.7	
834.15	5577.3	
834.32	5382.1	
834.49	4005.8	
834.66	4098	
834.83	5792.3	
835	4730.8	
835.17	3674.1	
835.35	3749.1	
835.52	5542.5	
835.69	5401.2	
835.86	3933.5	
836.03	3209.8	
836.2	5580	
836.37	5179.3	
836.55	3827	
836.72	3644.7	
836.89	5146.5	
837.06	5686.5	
837.23	3948.5	
837.4	4241.3	
837.57	6455.9	
837.75	7092.8	
837.92	3491.8	
838.09	3723.9	
838.26	5193.6	
838.43	5915.9	
838.6	4064.5	
838.77	3587.4	
838.94	6694.1	
839.11	6408.8	
839.29	3846.1	
839.46	3024.8	
839.63	5548.6	
839.8	5369.1	
839.97	3743	
840.14	3768.9	
840.31	5373.2	
840.48	5644.2	
840.65	3094.5	
840.82	3783.3	
841	5599.1	
841.17	5486.5	
841.34	3409.2	
841.51	3443.3	
841.68	5477.6	
841.85	5285.8	
842.02	3582.6	
842.19	2966.1	
842.36	5356.1	
842.53	5379.3	
842.7	3493.2	
842.87	4229.7	
843.05	7045	
843.22	5294.7	
843.39	3280.8	
843.56	3515.7	
843.73	5068	
843.9	5640.8	
844.07	5520	
844.24	4657.1	
844.41	8237.6	
844.58	4892.6	
844.75	3312.9	
844.92	3616	
845.09	5602.6	
845.26	5580	
845.43	3398.3	
845.6	3601	
845.77	5646.9	
845.94	5276.9	
846.12	3804.4	
846.29	4007.9	
846.46	5825.8	
846.63	5543.2	
846.8	3405.1	
846.97	4048.2	
847.14	6052.4	
847.31	5547.3	
847.48	3842.7	
847.65	4263.9	
847.82	5855.8	
847.99	5805.3	
848.16	4549.9	
848.33	4245.4	
848.5	5195	
848.67	6072.2	
848.84	3433.8	
849.01	3574.4	
849.18	5002.5	
849.35	4715.1	
849.52	4275.5	
849.69	3343.7	
849.86	5803.9	
850.03	6016.9	
850.2	3418.7	
850.37	4229.7	
850.54	5931.6	
850.71	5259.9	
850.88	4107.5	
851.05	3332.7	
851.22	5496.1	
851.39	6144.6	
851.56	3220.8	
851.73	3983.3	
851.9	4904.2	
852.07	5793.7	
852.24	3752.6	
852.41	3354.6	
852.58	5479	
852.75	4955.4	
852.92	3833.8	
853.09	3362.1	
853.26	5197.7	
853.43	6013.5	
853.6	3327.9	
853.77	2932	
853.94	6168.5	
854.11	4929.5	
854.28	5074.2	
854.44	3716.4	
854.61	6524.1	
854.78	5833.3	
854.95	3370.3	
855.12	4257.7	
855.29	4491.9	
855.46	6217	
855.63	3373	
855.8	4683.7	
855.97	5114.5	
856.14	5864.7	
856.31	4844.8	
856.48	3678.2	
856.65	5169.8	
856.82	4804.5	
856.99	3253.5	
857.16	3652.2	
857.33	6720.1	
857.49	5274.2	
857.66	3678.2	
857.83	4025.6	
858	5195.7	
858.17	5405.3	
858.34	3210.5	
858.51	3384.6	
858.68	6262	
858.85	6322.1	
859.02	3992.2	
859.19	4200.4	
859.36	4911.7	
859.52	4932.2	
859.69	3474	
859.86	3990.8	
860.03	4977.9	
860.2	6112.5	
860.37	3072	
860.54	3459	
860.71	5797.1	
860.88	6205.3	
861.05	3862.5	
861.21	4321.2	
861.38	6215.6	
861.55	4797	
861.72	3090.4	
861.89	3842	
862.06	5849.7	
862.23	6340.5	
862.4	3282.2	
862.56	3527.3	
862.73	5686.5	
862.9	5354.1	
863.07	4007.9	
863.24	3069.9	
863.41	4785.4	
863.58	4939.7	
863.75	3539.6	
863.91	3938.9	
864.08	6180.8	
864.25	5722.7	
864.42	4290.5	
864.59	4790.2	
864.76	6584.9	
864.93	4971.1	
865.09	3353.2	
865.26	3601.7	
865.43	6008.1	
865.6	6449.7	
865.77	2963.4	
865.94	3339.6	
866.1	6150.7	
866.27	5878.4	
866.44	5158.8	
866.61	3186.6	
866.78	5307.7	
866.95	5747.3	
867.11	3269.9	
867.28	3070.6	
867.45	6004	
867.62	4990.2	
867.79	4098.7	
867.96	3390.1	
868.12	4937.7	
868.29	5862.7	
868.46	2966.8	
868.63	4579.9	
868.8	6006.7	
868.97	5765	
869.13	3548.4	
869.3	3590.8	
869.47	5642.2	
869.64	5877	
869.81	3454.9	
869.97	3462.4	
870.14	5562.3	
870.31	6232.7	
870.48	3310.9	
870.65	4328	
870.81	5205.9	
870.98	5376.6	
871.15	3894.6	
871.32	3530	
871.48	5634	
871.65	6205.3	
871.82	3358	
871.99	3682.9	
872.16	6703.7	
872.32	6147.3	
872.49	3485.6	
872.66	3491.8	
872.83	5829.9	
872.99	5085.8	
873.16	3969.6	
873.33	3394.2	
873.5	5477	
873.67	5445.5	
873.83	3573	
874	4580.6	
874.17	5549.3	
874.34	6683.9	
874.5	4444.1	
874.67	4239.3	
874.84	6165.1	
875.01	4912.4	
875.17	4803.2	
875.34	3347.1	
875.51	5498.1	
875.68	6606.7	
875.84	4167.6	
876.01	5081	
876.18	5752.7	
876.34	5770.5	
876.51	3398.3	
876.68	3357.3	
876.85	5251.7	
877.01	6008.1	
877.18	4856.4	
877.35	3379.8	
877.52	5359.5	
877.68	4821.6	
877.85	3295.9	
878.02	3356.6	
878.18	5354.1	
878.35	5076.2	
878.52	2684.2	
878.69	3847.5	
878.85	5791	
879.02	5736.4	
879.19	4900.1	
879.35	3647.4	
879.52	5736.4	
879.69	5971.9	
879.86	2922.5	
880.02	3838.6	
880.19	5344.5	
880.36	6538.5	
880.52	3957.4	
880.69	4001	
880.86	5870.2	
881.02	5932.3	
881.19	3769.6	
881.36	3677.5	
881.52	5694	
881.69	5105.6	
881.86	3685	
882.02	3624.9	
882.19	6051.7	
882.36	7088.7	
882.52	3521.1	
882.69	4792.9	
882.86	5551.4	
883.02	5481	
883.19	4175.8	
883.36	3960.8	
883.52	5883.1	
883.69	6667.5	
883.86	3430.3	
884.02	3066.5	
884.19	5793.7	
884.36	5415.5	
884.52	3872	
884.69	3614	
884.86	5072.8	
885.02	6427.9	
885.19	3821.5	
885.36	3926	
885.52	5394.3	
885.69	5575.9	
885.86	4937.7	
886.02	4337.6	
886.19	5801.9	
886.35	5276.9	
886.52	3781.2	
886.69	4807.3	
886.85	4973.2	
887.02	6173.3	
887.19	6173.3	
887.35	6173.3	
887.52	6173.3	
887.68	6173.3	
887.85	6173.3	
888.02	6173.3	
888.18	6173.3	
888.35	6173.3	
888.51	6173.3	
888.68	6173.3	
888.85	6173.3	
889.01	6173.3	
889.18	6173.3	
889.35	6173.3	
889.51	6173.3	
889.68	6173.3	
889.84	6173.3	
890.01	6173.3	
890.17	6173.3	
890.34	6173.3	
890.51	6173.3	
890.67	6173.3	
890.84	6173.3	
891	6173.3	
891.17	6173.3	
891.34	6173.3	
891.5	6173.3	
891.67	6173.3	
891.83	6173.3	
892	6173.3	
892.16	6173.3	
892.33	6173.3	
892.5	6173.3	
892.66	6173.3	
892.83	6173.3	
892.99	6173.3	
893.16	6173.3	
893.32	6173.3	
893.49	6173.3	
893.65	6173.3	
893.82	6173.3	
893.99	6173.3	
894.15	6173.3	
894.32	6173.3	
894.48	6173.3	
894.65	6173.3	
894.81	6173.3	
894.98	6173.3	
895.14	6173.3	
895.31	6173.3	
895.47	6173.3	
895.64	6173.3	
895.81	6173.3	
895.97	6173.3	
896.14	6173.3	
896.3	6173.3	
896.47	6173.3	
896.63	6173.3	
896.8	6173.3	
896.96	6173.3	
897.13	6173.3	
897.29	6173.3	
897.46	6173.3	
897.62	6173.3	
897.79	6173.3	
897.95	6173.3	
898.12	6173.3	
898.28	6173.3	
898.45	6173.3	
898.61	6173.3	
898.78	6173.3	
898.94	6173.3	
899.11	6173.3	
899.27	6173.3	
899.44	6173.3	
899.6	6173.3	
899.77	6173.3	
899.93	6173.3	
900.1	6173.3	
900.26	6173.3	
900.43	6173.3	
900.59	6173.3	
900.76	6173.3	
900.92	6173.3	
901.09	6173.3	
901.25	6173.3	
901.42	6173.3	
901.58	6173.3	
901.75	6173.3	
901.91	6173.3	
902.07	6173.3	
902.24	6173.3	
902.4	6173.3	
902.57	6173.3	
902.73	6173.3	
902.9	6173.3	
903.06	6173.3	
903.23	6173.3	
903.39	6173.3	
903.56	6173.3	
903.72	6173.3	
903.88	6173.3	
904.05	6173.3	
904.21	6173.3	
904.38	6173.3	
904.54	6173.3	
904.71	6173.3	
904.87	6173.3	
905.03	6173.3	
905.2	6173.3	
905.36	6173.3	
905.53	6173.3	
905.69	6173.3	
905.86	6173.3	
906.02	6173.3	
906.18	6173.3	
906.35	6173.3	
906.51	6173.3	
906.68	6173.3	
906.84	6173.3	
907.01	6173.3	
907.17	6173.3	
907.33	6173.3	
907.5	6173.3	
907.66	6173.3	
907.83	6173.3	
907.99	6173.3	
908.15	6173.3	
908.32	6173.3	
908.48	6173.3	
908.65	6173.3	
908.81	6173.3	
908.97	6173.3	
909.14	6173.3	
909.3	6173.3	
909.47	6173.3	
909.63	6173.3	
909.79	6173.3	
909.96	6173.3	
910.12	6173.3	
910.28	6173.3	
910.45	6173.3	
910.61	6173.3	
910.78	6173.3	
910.94	6173.3	
911.1	6173.3	
911.27	6173.3	
911.43	6173.3	
911.59	6173.3	
911.76	6173.3	
911.92	6173.3	
912.08	6173.3	
912.25	6173.3	
912.41	6173.3	
912.57	6173.3	
912.74	6173.3	
912.9	6173.3	
913.07	6173.3	
913.23	6173.3	
913.39	6173.3	
913.56	6173.3	
913.72	6173.3	
913.88	6173.3	
914.05	6173.3	
914.21	6173.3	
914.37	6173.3	
914.54	6173.3	
914.7	6173.3	
914.86	6173.3	
915.03	6173.3	
915.19	6173.3	
