Wavelength	Intensities	
nm	a.u.	
179.22	1925.6	
179.44	1921.3	
179.65	1929.9	
179.86	1912.8	
180.08	1916.9	
180.29	4934.2	
180.51	3524.6	
180.72	5696.8	
180.94	6610.2	
181.15	3243.3	
181.37	3156.6	
181.58	5455.8	
181.79	5809.4	
182.01	3377.8	
182.22	3618.1	
182.44	5784.1	
182.65	4818.9	
182.87	4591.5	
183.08	3989.4	
183.29	6089.3	
183.51	5003.2	
183.72	3683.6	
183.94	5315.2	
184.15	5343.2	
184.37	5390.9	
184.58	3168.9	
184.79	4425.7	
185.01	4992.9	
185.22	5840.8	
185.44	4660.5	
185.65	3910.9	
185.86	5288.5	
186.08	4883.7	
186.29	3153.9	
186.51	3366.2	
186.72	4997.7	
186.94	5882.4	
187.15	3815.4	
187.36	4007.9	
187.58	7695.6	
187.79	5541.8	
188.01	4194.2	
188.22	6507.8	
188.43	6618.4	
188.65	5758.9	
188.86	3358.7	
189.08	4009.2	
189.29	5217.5	
189.5	5177.9	
189.72	3716.4	
189.93	3777.1	
190.15	6016.9	
190.36	7132.4	
190.57	4112.3	
190.79	3906.8	
191	6063.4	
191.22	5987.6	
191.43	4055.7	
191.64	3362.1	
191.86	6223.1	
192.07	5923.4	
192.29	3527.3	
192.5	3694.5	
192.71	5951.4	
192.93	5112.4	
193.14	3654.9	
193.35	3802.4	
193.57	5171.1	
193.78	5978.7	
194	2992.8	
194.21	3666.5	
194.42	4982	
194.64	5408	
194.85	4016.1	
195.07	4732.2	
195.28	5494.7	
195.49	4710.3	
195.71	4916.5	
195.92	3448.8	
196.13	5584.8	
196.35	5712.5	
196.56	5265.3	
196.78	3958.7	
196.99	7034.1	
197.2	6608.1	
197.42	4549.9	
197.63	4055	
197.84	4840	
198.06	5598.5	
198.27	3727.3	
198.48	4960.2	
198.7	5198.4	
198.91	5275.6	
199.13	4020.2	
199.34	4038.6	
199.55	5859.2	
199.77	4660.5	
199.98	3556.6	
200.19	4131.4	
200.41	5315.2	
200.62	4993.6	
200.83	4244.1	
201.05	4515.8	
201.26	5333.6	
201.47	5040.7	
201.69	3616.7	
201.9	3463.8	
202.11	5347.9	
202.33	6419	
202.54	3885.7	
202.76	4240	
202.97	5492.7	
203.18	5461.9	
203.4	4138.9	
203.61	4158.7	
203.82	5446.2	
204.04	5103.5	
204.25	4159.4	
204.46	4024.3	
204.68	5401.2	
204.89	5655.8	
205.1	3924.6	
205.32	3347.1	
205.53	5802.6	
205.74	5963.7	
205.96	2885.6	
206.17	4177.2	
206.38	5709.1	
206.6	5925.5	
206.81	4648.9	
207.02	3775.8	
207.24	5635.3	
207.45	6026.5	
207.66	3894.6	
207.88	3287	
208.09	5616.9	
208.3	5412.1	
208.52	3497.2	
208.73	3827	
208.94	5380	
209.15	6079.7	
209.37	3875.4	
209.58	4080.2	
209.79	5952.1	
210.01	5212.8	
210.22	3076	
210.43	3298.6	
210.65	5427.1	
210.86	5843.5	
211.07	3898.6	
211.29	3562.1	
211.5	5750	
211.71	5330.2	
211.93	3543	
212.14	3538.2	
212.35	5272.2	
212.56	5519.3	
212.78	4038.6	
212.99	3378.5	
213.2	6380.8	
213.42	5153.4	
213.63	3657.7	
213.84	3891.1	
214.06	4790.2	
214.27	4876.2	
214.48	3805.8	
214.69	4124.6	
214.91	6081.1	
215.12	6142.5	
215.33	4186	
215.55	4620.2	
215.76	6652.5	
215.97	5763	
216.18	3971.7	
216.4	3920.5	
216.61	5041.4	
216.82	5930.9	
217.04	3575.1	
217.25	3708.2	
217.46	6067.4	
217.67	5823.7	
217.89	3178.4	
218.1	3282.9	
218.31	5476.3	
218.53	5571.8	
218.74	3717.1	
218.95	3632.4	
219.16	5331.5	
219.38	6330.3	
219.59	3614.7	
219.8	4330.1	
220.01	7035.5	
220.23	5451	
220.44	4745.8	
220.65	3526.6	
220.87	5450.3	
221.08	6072.9	
221.29	3324.5	
221.5	4310.3	
221.72	7384.3	
221.93	5088.5	
222.14	4101.4	
222.35	4856.4	
222.57	5373.2	
222.78	5718.6	
222.99	3850.9	
223.2	4207.2	
223.42	5720.7	
223.63	5839.4	
223.84	2949.1	
224.05	3016.7	
224.27	6922.8	
224.48	6324.1	
224.69	4825.7	
224.9	4103.4	
225.12	5618.3	
225.33	5370.5	
225.54	3246	
225.75	3653.6	
225.97	4981.3	
226.18	5268.1	
226.39	3941.7	
226.6	3629.7	
226.82	5132.2	
227.03	5036.6	
227.24	4069.3	
227.45	3403	
227.67	5801.9	
227.88	6350.8	
228.09	4487.1	
228.3	4597	
228.52	5883.1	
228.73	5360.2	
228.94	3768.3	
229.15	3366.9	
229.36	5294.7	
229.58	5225.1	
229.79	3833.8	
230	4427.7	
230.21	6450.4	
230.43	5571.2	
230.64	4025.6	
230.85	4252.9	
231.06	5799.8	
231.28	5872.9	
231.49	3340.2	
231.7	3973.7	
231.91	5724.8	
232.12	5479	
232.34	3431	
232.55	3990.8	
232.76	6098.2	
232.97	5570.5	
233.18	3512.3	
233.4	3954.6	
233.61	5683.8	
233.82	5125.4	
234.03	3714.3	
234.25	3706.8	
234.46	7542	
234.67	5427.1	
234.88	4162.8	
235.09	3579.8	
235.31	5756.8	
235.52	5315.8	
235.73	4011.3	
235.94	3433.8	
236.15	5105.6	
236.37	6528.9	
236.58	3547.1	
236.79	3917.8	
237	5712.5	
237.21	4939.7	
237.43	4154.6	
237.64	3278.1	
237.85	9889.6	
238.06	4956.1	
238.27	4174.4	
238.48	3396.2	
238.7	5750.7	
238.91	5254.4	
239.12	3900	
239.33	3942.3	
239.54	5017.5	
239.76	5357.5	
239.97	3901.4	
240.18	3848.8	
240.39	6799.3	
240.6	5672.2	
240.82	4031.1	
241.03	3303.4	
241.24	5350	
241.45	6211.5	
241.66	3520.5	
241.87	4203.8	
242.09	6112.5	
242.3	6492.1	
242.51	4225	
242.72	3919.8	
242.93	5865.4	
243.14	5297.4	
243.36	4505.5	
243.57	4825.7	
243.78	6276.3	
243.99	5748.6	
244.2	3932.8	
244.41	3560.1	
244.63	5012.1	
244.84	5741.8	
245.05	4182	
245.26	3951.2	
245.47	5688.6	
245.68	5926.8	
245.9	5149.3	
246.11	4104.1	
246.32	5225.7	
246.53	5701.5	
246.74	6304.3	
246.95	3284.3	
247.16	4942.4	
247.38	5425.1	
247.59	3220.8	
247.8	3926	
248.01	5095.3	
248.22	5351.3	
248.43	3525.2	
248.64	3760.8	
248.86	4788.2	
249.07	5186.8	
249.28	3395.5	
249.49	3969	
249.7	5932.3	
249.91	6066.1	
250.12	3213.3	
250.34	3290.4	
250.55	5481.7	
250.76	5384.1	
250.97	4030.4	
251.18	4104.1	
251.39	6128.2	
251.6	5573.2	
251.81	4113	
252.03	4136.9	
252.24	5110.4	
252.45	5921.4	
252.66	3440.6	
252.87	4317.1	
253.08	5413.5	
253.29	7154.2	
253.5	3429.7	
253.72	4755.4	
253.93	5251	
254.14	6423.1	
254.35	3671.3	
254.56	3859.1	
254.77	5660.6	
254.98	4974.5	
255.19	3619.4	
255.41	4780.6	
255.62	5510.4	
255.83	6008.7	
256.04	4212.7	
256.25	4042.7	
256.46	6681.2	
256.67	5094.7	
256.88	3997	
257.09	4451.6	
257.31	5011.4	
257.52	5051.7	
257.73	5057.1	
257.94	3684.3	
258.15	5173.9	
258.36	5451.7	
258.57	4656.4	
258.78	2941.6	
258.99	5884.5	
259.2	5251	
259.41	3763.5	
259.63	3784.6	
259.84	6295.5	
260.05	6706.4	
260.26	4960.2	
260.47	3670	
260.68	5993	
260.89	5332.9	
261.1	4487.8	
261.31	3502.7	
261.52	6011.5	
261.73	6346.7	
261.95	4816.1	
262.16	4159.4	
262.37	6176.7	
262.58	6152.8	
262.79	4786.1	
263	3803.1	
263.21	5514.5	
263.42	4922.6	
263.63	3863.2	
263.84	3774.4	
264.05	5952.1	
264.26	6411.5	
264.47	4616.8	
264.69	4214	
264.9	6137.8	
265.11	5617.6	
265.32	3582.6	
265.53	3665.2	
265.74	5521.3	
265.95	4843.4	
266.16	3951.2	
266.37	4397	
266.58	5485.1	
266.79	5211.4	
267	3665.9	
267.21	3405.1	
267.42	4994.3	
267.63	5373.9	
267.84	3888.4	
268.06	3345	
268.27	5804.6	
268.48	6161.7	
268.69	3770.3	
268.9	4466.6	
269.11	6152.1	
269.32	4894.6	
269.53	3839.9	
269.74	3674.1	
269.95	5709.1	
270.16	4768.4	
270.37	3887	
270.58	4528.7	
270.79	5282.4	
271	5894.7	
271.21	4182	
271.42	3907.5	
271.63	5593.7	
271.84	5112.4	
272.05	3079.5	
272.26	3504.1	
272.47	5452.4	
272.68	5618.3	
272.89	3743	
273.11	4375.1	
273.32	5238	
273.53	6364.4	
273.74	4179.9	
273.95	4060.4	
274.16	6013.5	
274.37	5489.9	
274.58	4269.3	
274.79	3424.2	
275	5592.3	
275.21	6110.5	
275.42	5156.1	
275.63	4461.2	
275.84	5642.8	
276.05	7180.2	
276.26	4135.5	
276.47	3830.4	
276.68	5235.3	
276.89	6419	
277.1	4353.3	
277.31	3417.4	
277.52	5666	
277.73	5864	
277.94	3336.1	
278.15	3737.5	
278.36	5617.6	
278.57	5072.8	
278.78	3764.8	
278.99	4216.1	
279.2	5049.6	
279.41	5029.1	
279.62	4878.3	
279.83	3439.9	
280.04	6589.7	
280.25	4923.3	
280.46	4919.9	
280.67	3879.5	
280.88	5057.1	
281.09	6083.8	
281.3	4084.3	
281.51	5147.2	
281.72	5115.1	
281.93	5977.3	
282.14	3575.8	
282.35	3865.9	
282.56	5976	
282.77	5945.9	
282.98	3750.5	
283.19	4655.7	
283.4	7274.4	
283.61	5326.8	
283.82	3370.3	
284.03	4891.9	
284.24	5535	
284.45	6042.9	
284.66	4843.4	
284.87	4686.4	
285.08	6036.7	
285.29	6181.5	
285.5	3338.9	
285.71	3844.7	
285.92	6072.9	
286.12	6710.5	
286.33	4769.7	
286.54	3747.8	
286.75	5879	
286.96	5333.6	
287.17	3469.3	
287.38	4710.3	
287.59	5029.8	
287.8	4987.5	
288.01	3816.7	
288.22	4437.3	
288.43	5730.2	
288.64	5021.6	
288.85	4500.8	
289.06	4314.4	
289.27	5870.8	
289.48	6363.7	
289.69	4853	
289.9	4367.6	
290.11	5982.8	
290.32	5056.4	
290.53	4603.2	
290.74	4227.7	
290.94	5816.2	
291.15	5941.2	
291.36	3736.9	
291.57	4413.4	
291.78	5156.8	
291.99	4860.5	
292.2	3523.9	
292.41	4255	
292.62	5990.3	
292.83	5732.3	
293.04	5209.3	
293.25	3500.7	
293.46	5223.7	
293.67	6020.3	
293.88	3597.6	
294.09	3522.5	
294.29	4962.9	
294.5	5646.9	
294.71	3908.2	
294.92	3766.9	
295.13	5198.4	
295.34	6532.3	
295.55	3300	
295.76	3218.7	
295.97	5874.3	
296.18	6528.2	
296.39	3454.9	
296.6	3721.2	
296.81	5558.9	
297.01	5834.7	
297.22	3855	
297.43	3592.1	
297.64	5100.8	
297.85	5023.7	
298.06	2991.4	
298.27	3306.1	
298.48	5444.9	
298.69	5099.4	
298.9	3972.4	
299.11	3599.6	
299.31	4966.3	
299.52	4947.2	
299.73	4255	
299.94	4163.5	
300.15	5455.8	
300.36	5038	
300.57	4154	
300.78	4180.6	
300.99	5309	
301.2	5580.7	
301.4	3586	
301.61	3969	
301.82	5763.7	
302.03	5870.2	
302.24	4467.3	
302.45	3429	
302.66	5752.1	
302.87	6189	
303.08	3648.1	
303.29	4977.2	
303.49	5177.9	
303.7	5494	
303.91	3238.5	
304.12	4764.9	
304.33	4932.9	
304.54	5538.4	
304.75	3665.2	
304.96	3512.9	
305.16	5744.6	
305.37	6492.1	
305.58	3185.3	
305.79	3302.7	
306	5731.6	
306.21	4859.8	
306.42	3665.2	
306.63	5559.6	
306.83	5258.5	
307.04	6025.1	
307.25	4075.5	
307.46	4000.4	
307.67	4627	
307.88	5851	
308.09	3627.6	
308.29	3747.1	
308.5	5487.2	
308.71	6034	
308.92	3987.4	
309.13	3516.4	
309.34	5367	
309.55	5363.6	
309.75	4569	
309.96	4207.2	
310.17	5827.2	
310.38	5107	
310.59	4386.7	
310.8	3446	
311.01	5190.2	
311.21	5265.3	
311.42	3523.2	
311.63	3596.9	
311.84	5186.1	
312.05	5616.9	
312.26	4031.1	
312.46	4449.6	
312.67	5276.3	
312.88	4995.7	
313.09	3535.5	
313.3	3477.5	
313.51	6273.6	
313.71	6603.3	
313.92	3518.4	
314.13	3723.9	
314.34	5589.6	
314.55	5337.7	
314.76	4493.2	
314.96	3931.4	
315.17	5459.2	
315.38	5778.7	
315.59	3598.3	
315.8	3390.8	
316.01	6294.1	
316.21	6346	
316.42	3423.5	
316.63	3876.8	
316.84	5354.1	
317.05	6199.9	
317.26	4226.3	
317.46	3786.7	
317.67	5406.6	
317.88	5848.3	
318.09	4560.8	
318.3	3319.1	
318.5	5087.8	
318.71	5689.3	
318.92	5749.3	
319.13	4151.2	
319.34	5974.6	
319.54	6069.5	
319.75	3259.7	
319.96	3172.3	
320.17	5874.9	
320.38	6023.1	
320.58	3217.4	
320.79	3872	
321	6033.3	
321.21	6171.9	
321.42	3908.2	
321.62	3274.7	
321.83	5053	
322.04	5449	
322.25	3721.8	
322.46	3545	
322.66	5584.8	
322.87	5708.4	
323.08	4373.1	
323.29	3512.9	
323.5	6459.3	
323.7	4956.1	
323.91	4812.7	
324.12	4350.6	
324.33	5501.5	
324.53	5735.7	
324.74	4204.5	
324.95	4372.4	
325.16	4834.6	
325.37	5232.6	
325.57	3499.3	
325.78	3559.4	
325.99	5467.4	
326.2	4912.4	
326.4	5143.8	
326.61	3269.2	
326.82	5380.7	
327.03	5492.7	
327.24	4953.4	
327.44	4754	
327.65	5676.3	
327.86	4585.4	
328.07	4148.5	
328.27	3336.8	
328.48	6139.1	
328.69	5052.3	
328.9	5066.7	
329.1	3821.5	
329.31	5282.4	
329.52	6255.2	
329.73	3532.1	
329.93	4000.4	
330.14	5427.8	
330.35	5657.9	
330.56	5855.8	
330.76	4428.4	
330.97	5219.6	
331.18	5614.8	
331.39	3953.3	
331.59	3217.4	
331.8	5995.1	
332.01	6156.2	
332.22	3618.1	
332.42	4187.4	
332.63	5530.9	
332.84	5073.5	
333.05	3938.9	
333.25	3633.8	
333.46	5229.1	
333.67	5436	
333.88	3717.7	
334.08	4072.7	
334.29	7234.8	
334.5	6152.8	
334.7	3463.8	
334.91	5048.9	
335.12	4967	
335.33	5885.2	
335.53	3945.8	
335.74	5814.2	
335.95	5162.9	
336.16	5085.8	
336.36	3958	
336.57	4524.6	
336.78	4941.1	
336.98	5994.4	
337.19	4789.5	
337.4	3893.2	
337.61	6587	
337.81	5001.1	
338.02	3598.3	
338.23	4663.9	
338.43	6158.9	
338.64	5097.4	
338.85	3540.9	
339.05	4685.8	
339.26	6319.3	
339.47	4874.2	
339.68	3566.9	
339.88	5287.2	
340.09	5730.9	
340.3	5899.5	
340.5	4178.5	
340.71	3145.7	
340.92	4874.8	
341.13	6156.9	
341.33	3431	
341.54	4240.7	
341.75	5629.2	
341.95	5291.3	
342.16	3958	
342.37	4332.8	
342.57	5033.9	
342.78	5393	
342.99	4459.1	
343.19	3186	
343.4	5887.9	
343.61	5732.3	
343.81	3822.9	
344.02	3508.2	
344.23	5835.3	
344.43	6292	
344.64	4427	
344.85	4256.4	
345.06	5695.4	
345.26	6036	
345.47	4156.7	
345.68	4851	
345.88	4804.5	
346.09	5892.7	
346.3	4204.5	
346.5	3155.2	
346.71	5455.8	
346.92	5141.8	
347.12	3259.7	
347.33	4093.9	
347.54	6030.6	
347.74	6410.8	
347.95	4006.5	
348.16	3052.8	
348.36	5257.1	
348.57	4924.7	
348.78	4026.3	
348.98	4411.3	
349.19	5298.8	
349.39	4906.9	
349.6	3286.3	
349.81	3609.2	
350.01	5644.2	
350.22	5085.1	
350.43	3904.8	
350.63	4709.6	
350.84	5474.9	
351.05	5167	
351.25	3559.4	
351.46	3224.9	
351.67	6074.3	
351.87	5124	
352.08	3803.8	
352.29	4362.2	
352.49	5891.3	
352.7	5994.4	
352.9	3471.3	
353.11	4268.6	
353.32	6565.8	
353.52	5229.8	
353.73	3374.4	
353.94	4332.1	
354.14	5648.3	
354.35	5575.3	
354.55	3556	
354.76	3879.5	
354.97	5655.8	
355.17	5437.4	
355.38	3318.4	
355.59	4624.3	
355.79	5069.4	
356	5521.3	
356.2	3882.3	
356.41	3335.5	
356.62	4805.9	
356.82	5237.3	
357.03	4126	
357.24	3659	
357.44	5117.2	
357.65	5126.1	
357.85	5016.2	
358.06	3891.8	
358.27	4792.9	
358.47	5046.2	
358.68	3238.5	
358.88	4172.4	
359.09	5600.5	
359.3	6003.3	
359.5	4850.3	
359.71	4257.7	
359.91	6419.7	
360.12	5689.9	
360.33	4111	
360.53	4554	
360.74	5055.1	
360.94	5041.4	
361.15	4295.3	
361.36	3551.9	
361.56	5784.8	
361.77	5280.3	
361.97	4801.1	
362.18	3677.5	
362.38	5823.1	
362.59	4914.4	
362.8	3427.6	
363	3210.5	
363.21	4700.1	
363.41	5319.9	
363.62	3891.1	
363.83	5022.3	
364.03	5428.5	
364.24	6464.1	
364.44	5089.9	
364.65	5058.5	
364.85	5148.6	
365.06	5092.6	
365.27	3579.2	
365.47	3685	
365.68	6242.2	
365.88	5157.5	
366.09	3963.5	
366.29	3665.9	
366.5	5418.9	
366.71	5857.9	
366.91	4924.7	
367.12	4156	
367.32	6419	
367.53	5710.4	
367.73	4099.4	
367.94	5020.9	
368.14	5623.7	
368.35	6540.5	
368.56	4028.4	
368.76	3483.6	
368.97	5761.6	
369.17	7443	
369.38	3549.8	
369.58	3820.1	
369.79	4763.6	
369.99	6103.6	
370.2	4861.9	
370.4	3932.8	
370.61	5429.8	
370.82	6633.4	
371.02	3831.1	
371.23	3127.9	
371.43	4704.9	
371.64	6044.9	
371.84	3796.9	
372.05	5057.1	
372.25	7312.6	
372.46	5752.7	
372.66	3796.9	
372.87	3751.2	
373.07	5758.2	
373.28	7405.5	
373.48	4826.4	
373.69	4528.7	
373.9	5186.1	
374.1	5292.6	
374.31	4722.6	
374.51	4203.8	
374.72	5985.5	
374.92	4905.6	
375.13	4837.3	
375.33	4075.5	
375.54	5567.7	
375.74	4999.1	
375.95	4037.9	
376.15	5344.5	
376.36	5539.8	
376.56	5340.4	
376.77	4121.9	
376.97	4567.7	
377.18	6567.8	
377.38	5698.1	
377.59	4924.7	
377.79	3617.4	
378	5442.1	
378.2	5786.9	
378.41	3698.6	
378.61	3586.7	
378.82	5870.8	
379.02	4939	
379.23	3790.1	
379.43	4890.5	
379.64	5950	
379.84	5562.3	
380.05	3639.9	
380.25	3582.6	
380.46	5693.4	
380.66	5253.7	
380.87	4913.8	
381.07	5362.3	
381.28	6384.2	
381.48	5668.8	
381.69	3703.4	
381.89	3690.4	
382.1	4625	
382.3	5844.9	
382.51	4824.3	
382.71	5724.1	
382.91	5726.8	
383.12	6266.8	
383.32	4063.9	
383.53	4293.2	
383.73	5494	
383.94	5334.3	
384.14	4155.3	
384.35	3371.6	
384.55	5322	
384.76	5768.4	
384.96	4117.8	
385.17	4387.4	
385.37	5713.8	
385.58	5044.1	
385.78	4401.1	
385.98	3352.5	
386.19	5220.3	
386.39	5621.7	
386.6	3842	
386.8	4056.3	
387.01	5679	
387.21	5765.7	
387.42	4525.3	
387.62	5059.8	
387.83	5007.3	
388.03	5659.9	
388.23	4031.1	
388.44	4831.8	
388.64	4628.4	
388.85	4754.7	
389.05	4472.1	
389.26	5012.1	
389.46	6692.8	
389.67	6047.7	
389.87	4367.6	
390.07	4513.7	
390.28	5222.3	
390.48	4891.2	
390.69	3590.8	
390.89	3882.9	
391.1	5047.6	
391.3	6067.4	
391.5	5093.3	
391.71	5713.8	
391.91	5674.2	
392.12	6758.3	
392.32	5222.3	
392.53	4382	
392.73	5135.6	
392.93	5309.7	
393.14	4091.2	
393.34	4904.2	
393.55	5823.7	
393.75	5278.3	
393.95	4151.2	
394.16	4065.2	
394.36	4984.8	
394.57	5785.5	
394.77	3575.8	
394.98	4003.8	
395.18	4962.2	
395.38	5236	
395.59	4780	
395.79	3751.2	
396	5046.2	
396.2	5550	
396.4	4730.1	
396.61	4477.5	
396.81	5756.2	
397.02	4984.8	
397.22	4791.6	
397.42	4808.6	
397.63	5768.4	
397.83	4891.9	
398.04	3686.3	
398.24	4173.1	
398.44	5539.8	
398.65	4537.6	
398.85	3499.3	
399.05	3637.2	
399.26	4891.9	
399.46	6604	
399.67	3948.5	
399.87	3682.2	
400.07	5184.8	
400.28	5575.3	
400.48	3762.1	
400.69	4766.3	
400.89	5765	
401.09	6185.5	
401.3	3612.6	
401.5	4759.5	
401.7	6424.5	
401.91	6696.2	
402.11	3973.7	
402.32	4293.9	
402.52	5819.6	
402.72	5812.1	
402.93	4433.2	
403.13	3362.8	
403.33	6561	
403.54	5328.8	
403.74	4218.1	
403.94	5076.2	
404.15	5423	
404.35	6584.9	
404.56	3971.7	
404.76	5819.6	
404.96	5811.5	
405.17	5644.9	
405.37	5231.2	
405.57	4444.8	
405.78	5836	
405.98	5300.1	
406.18	3954.6	
406.39	4883.7	
406.59	5698.8	
406.79	5414.1	
407	3713.7	
407.2	3878.9	
407.4	5788.2	
407.61	6010.8	
407.81	3896.6	
408.01	6167.1	
408.22	4715.1	
408.42	6840.2	
408.62	4743.8	
408.83	4169	
409.03	5253	
409.23	5057.1	
409.44	4334.9	
409.64	4548.5	
409.84	6113.2	
410.05	6002.6	
410.25	4377.9	
410.45	4112.3	
410.66	5390.9	
410.86	7909.9	
411.06	4414.1	
411.27	4305.5	
411.47	7570	
411.67	5515.9	
411.88	4592.2	
412.08	4816.8	
412.28	6152.1	
412.49	6718.7	
412.69	4232.5	
412.89	4283.7	
413.09	6466.8	
413.3	6356.9	
413.5	4311	
413.7	3991.5	
413.91	5560.2	
414.11	6357.6	
414.31	4140.3	
414.52	4545.1	
414.72	6108.4	
414.92	5881.8	
415.12	4140.3	
415.33	4644.8	
415.53	6300.9	
415.73	6527.6	
415.94	5053.7	
416.14	4487.1	
416.34	5238.7	
416.55	5087.8	
416.75	5666.7	
416.95	5061.2	
417.15	6247	
417.36	7043.6	
417.56	5839.4	
417.76	4812.7	
417.97	6658.6	
418.17	6252.4	
418.37	4487.1	
418.57	4524	
418.78	6057.2	
418.98	5731.6	
419.18	5347.2	
419.38	5301.5	
419.59	5806.7	
419.79	5489.9	
419.99	4421.6	
420.2	4811.4	
420.4	6363.7	
420.6	6519.4	
420.8	4302.1	
421.01	4182.6	
421.21	6059.9	
421.41	6322.1	
421.61	4726	
421.82	4418.2	
422.02	5628.5	
422.22	6614.3	
422.42	5212.8	
422.63	4909.7	
422.83	5771.2	
423.03	6992.4	
423.23	4959.5	
423.44	3857.7	
423.64	5925.5	
423.84	5698.1	
424.04	4285.7	
424.25	4014	
424.45	6836.8	
424.65	6796.5	
424.85	3802.4	
425.06	4429.1	
425.26	6760.3	
425.46	5806	
425.66	4962.9	
425.87	4588.8	
426.07	6597.2	
426.27	6411.5	
426.47	4727.4	
426.67	4100	
426.88	6904.4	
427.08	6380.8	
427.28	4947.9	
427.48	4097.3	
427.69	5302.9	
427.89	5949.3	
428.09	4996.4	
428.29	4128	
428.5	6646.3	
428.7	6108.4	
428.9	3966.9	
429.1	4588.8	
429.3	6072.2	
429.51	6455.2	
429.71	4293.9	
429.91	5066.7	
430.11	6325.5	
430.31	6555.5	
430.52	4618.9	
430.72	4807.3	
430.92	6909.8	
431.12	6351.4	
431.32	4199.7	
431.53	4713.7	
431.73	5258.5	
431.93	7007.5	
432.13	4191.5	
432.33	3964.2	
432.54	5739.8	
432.74	6047.7	
432.94	3923.9	
433.14	5017.5	
433.34	6295.5	
433.55	5691.3	
433.75	4903.5	
433.95	6543.9	
434.15	6050.4	
434.35	5684.5	
434.56	4169	
434.76	3595.6	
434.96	5972.6	
435.16	6213.5	
435.36	3950.5	
435.56	5174.5	
435.77	5603.2	
435.97	5750	
436.17	5807.4	
436.37	4949.3	
436.57	5599.8	
436.78	5446.9	
436.98	6789.7	
437.18	5692	
437.38	6195.1	
437.58	5769.1	
437.78	5709.1	
437.99	4412.7	
438.19	6313.9	
438.39	7093.5	
438.59	4341	
438.79	3853.6	
438.99	6950.1	
439.2	5735.7	
439.4	4016.1	
439.6	3950.5	
439.8	6118	
440	7154.9	
440.2	4898.7	
440.4	5077.6	
440.61	6385.6	
440.81	6981.5	
441.01	4017.4	
441.21	4982.7	
441.41	6738.5	
441.61	6397.2	
441.81	5188.9	
442.02	6296.1	
442.22	7286.7	
442.42	6494.8	
442.62	4106.2	
442.82	4244.8	
443.02	6789	
443.22	5888.6	
443.43	4530.8	
443.63	4119.1	
443.83	5644.9	
444.03	5698.8	
444.23	5343.2	
444.43	4888.5	
444.63	5979.4	
444.83	7182.9	
445.04	4203.1	
445.24	5455.1	
445.44	6428.6	
445.64	6525.5	
445.84	5075.5	
446.04	4998.4	
446.24	5827.2	
446.44	6786.3	
446.65	4298.7	
446.85	4629.8	
447.05	5947.3	
447.25	6792.4	
447.45	4772.4	
447.65	4164.9	
447.85	6129.6	
448.05	5874.3	
448.25	5161.6	
448.46	4907.6	
448.66	6125.5	
448.86	5836	
449.06	3936.9	
449.26	5148.6	
449.46	6464.8	
449.66	5511.1	
449.86	4614.8	
450.06	4635.2	
450.26	5686.5	
450.47	6300.2	
450.67	4903.5	
450.87	5272.8	
451.07	6298.2	
451.27	6132.3	
451.47	4199.7	
451.67	4715.8	
451.87	5795.1	
452.07	7034.1	
452.27	4433.2	
452.47	4392.9	
452.67	6114.6	
452.88	6744	
453.08	3796.3	
453.28	5793.7	
453.48	7283.9	
453.68	6097.5	
453.88	4229.7	
454.08	4500.1	
454.28	6414.9	
454.48	6111.8	
454.68	5005.9	
454.88	5588.9	
455.08	6581.5	
455.28	6247	
455.48	4196.3	
455.68	4747.9	
455.89	6940.6	
456.09	6659.3	
456.29	4478.9	
456.49	4453	
456.69	6802.7	
456.89	6104.3	
457.09	5004.6	
457.29	5295.4	
457.49	6331	
457.69	6456.6	
457.89	4766.3	
458.09	4119.8	
458.29	6062	
458.49	6842.3	
458.69	5144.5	
458.89	4516.5	
459.09	6954.9	
459.29	7230.7	
459.49	4679.6	
459.69	5412.8	
459.9	6561	
460.1	5988.3	
460.3	4609.3	
460.5	4331.5	
460.7	6488	
460.9	6239.5	
461.1	3978.5	
461.3	5257.8	
461.5	7114.6	
461.7	6726.2	
461.9	4352.6	
462.1	4845.5	
462.3	6095.4	
462.5	6769.2	
462.7	4378.6	
462.9	4468	
463.1	7722.9	
463.3	7388.4	
463.5	4635.2	
463.7	5546.6	
463.9	6293.4	
464.1	6658.6	
464.3	4616.8	
464.5	5013.4	
464.7	7009.5	
464.9	6565.1	
465.1	6315.3	
465.3	5268.1	
465.5	7288.7	
465.7	7262.8	
465.9	5521.3	
466.1	5374.6	
466.3	6946	
466.5	6906.4	
466.7	6081.8	
466.9	5044.1	
467.1	6725.5	
467.3	7709.2	
467.5	6111.1	
467.7	4938.3	
467.9	7899.7	
468.1	8748.9	
468.3	5790.3	
468.5	6138.4	
468.7	6750.8	
468.9	6697.5	
469.1	5203.2	
469.3	5932.3	
469.5	8635.6	
469.7	6198.5	
469.9	5730.9	
470.1	4975.9	
470.3	6689.3	
470.5	6719.4	
470.7	6253.1	
470.9	5063.3	
471.1	6425.2	
471.3	6965.1	
471.5	4951.3	
471.69	6822.5	
471.89	6391	
472.09	5906.3	
472.29	5761.6	
472.49	6192.4	
472.69	6120.7	
472.89	6933.7	
473.09	4852.3	
473.29	5059.2	
473.49	6290	
473.69	6537.8	
473.89	5956.2	
474.09	5189.6	
474.29	7719.5	
474.49	7471.7	
474.69	5936.4	
474.89	5271.5	
475.09	6569.9	
475.29	6490	
475.49	4748.6	
475.69	4900.8	
475.88	8159.8	
476.08	6830.7	
476.28	4640.7	
476.48	5228.5	
476.68	7361.8	
476.88	7149.5	
477.08	5032.5	
477.28	5236	
477.48	6668.9	
477.68	7428.7	
477.88	4759.5	
478.08	5187.5	
478.28	7539.9	
478.48	6759.7	
478.67	5193	
478.87	4723.3	
479.07	7401.4	
479.27	6842.3	
479.47	5442.8	
479.67	5349.3	
479.87	7217.7	
480.07	7808.2	
480.27	4640	
480.47	6327.5	
480.67	6927.6	
480.87	7570.7	
481.06	4942.4	
481.26	5821	
481.46	6819.7	
481.66	6719.4	
481.86	5481.7	
482.06	6432	
482.26	6554.9	
482.46	7424.6	
482.66	5306.3	
482.86	4919.9	
483.05	6938.5	
483.25	6276.3	
483.45	7818.5	
483.65	5342.5	
483.85	6447.7	
484.05	6753.5	
484.25	5847	
484.45	6238.1	
484.65	7707.2	
484.84	7606.2	
485.04	5218.2	
485.24	5216.9	
485.44	7881.3	
485.64	6206	
485.84	4494.6	
486.04	5879.7	
486.24	6561	
486.44	6993.1	
486.63	4437.3	
486.83	5212.1	
487.03	6421.1	
487.23	6666.1	
487.43	4478.9	
487.63	6950.8	
487.83	6683.2	
488.02	7770.7	
488.22	5453.7	
488.42	6102.3	
488.62	7589.1	
488.82	6490	
489.02	5156.8	
489.22	5159.5	
489.41	7354.9	
489.61	6982.9	
489.81	4939	
490.01	4943.8	
490.21	7295.5	
490.41	7991.9	
490.61	4851	
490.8	5005.2	
491	6849.8	
491.2	6249	
491.4	5725.4	
491.6	4753.3	
491.8	6821.8	
491.99	7041.6	
492.19	4603.8	
492.39	5044.1	
492.59	7361.1	
492.79	7371.3	
492.99	5831.2	
493.18	4871.4	
493.38	7457.3	
493.58	8103.8	
493.78	5588.2	
493.98	5143.8	
494.18	7065.5	
494.37	6529.6	
494.57	5724.1	
494.77	5573.2	
494.97	7189.7	
495.17	7476.5	
495.37	5157.5	
495.56	5438	
495.76	7677.8	
495.96	7292.1	
496.16	6410.8	
496.36	5254.4	
496.55	7431.4	
496.75	6952.2	
496.95	5689.3	
497.15	5530.9	
497.35	7478.5	
497.54	7374.1	
497.74	5288.5	
497.94	7080.5	
498.14	8088.1	
498.34	7843	
498.53	4947.2	
498.73	5874.3	
498.93	6731	
499.13	7324.2	
499.33	5513.1	
499.52	6210.1	
499.72	7267.6	
499.92	7696.9	
500.12	5205.9	
500.32	5472.2	
500.51	7530.4	
500.71	7287.4	
500.91	6257.9	
501.11	5951.4	
501.31	7502.4	
501.5	7942.7	
501.7	6595.8	
501.9	5551.4	
502.1	7350.8	
502.29	7682.6	
502.49	5959.6	
502.69	6578.8	
502.89	7535.8	
503.09	7479.2	
503.28	5081.7	
503.48	5169.8	
503.68	6765.8	
503.88	6786.3	
504.07	6274.3	
504.27	5715.9	
504.47	7183.6	
504.67	7419.8	
504.86	6180.8	
505.06	5904.3	
505.26	6966.5	
505.46	8751.7	
505.65	5732.9	
505.85	6021	
506.05	6860.7	
506.25	7386.3	
506.44	5077.6	
506.64	6124.8	
506.84	6804.7	
507.04	7646.4	
507.23	5335	
507.43	5941.8	
507.63	8901.8	
507.83	7120.8	
508.02	5952.1	
508.22	5599.8	
508.42	9107.3	
508.62	6861.4	
508.81	5830.6	
509.01	6421.7	
509.21	6746	
509.4	7007.5	
509.6	6055.8	
509.8	5422.3	
510	7050.5	
510.19	8445.1	
510.39	5369.1	
510.59	5481	
510.79	6742.6	
510.98	8230.1	
511.18	5491.3	
511.38	5631.9	
511.57	7664.9	
511.77	7586.4	
511.97	6257.2	
512.17	5352	
512.36	7693.5	
512.56	7657.4	
512.76	5408	
512.95	5231.9	
513.15	7845.8	
513.35	6412.2	
513.55	6282.5	
513.74	5458.5	
513.94	7731.1	
514.14	7038.9	
514.33	6371.2	
514.53	6248.4	
514.73	7150.1	
514.92	7291.5	
515.12	5611.4	
515.32	5408	
515.51	7315.3	
515.71	7945.4	
515.91	7094.2	
516.11	5452.4	
516.3	9079.3	
516.5	7022.5	
516.7	6128.9	
516.89	6709.1	
517.09	7126.2	
517.29	7010.2	
517.48	6451.8	
517.68	5868.1	
517.88	6828.6	
518.07	7465.5	
518.27	6300.2	
518.47	5360.2	
518.66	8105.2	
518.86	6696.2	
519.06	5191.6	
519.25	5664.7	
519.45	7008.1	
519.65	8598.7	
519.84	6238.1	
520.04	6964.5	
520.24	8921	
520.43	7744.1	
520.63	6061.3	
520.83	5768.4	
521.02	6946.7	
521.22	7688.8	
521.42	6420.4	
521.61	6963.8	
521.81	7103	
522.01	7413	
522.2	6197.2	
522.4	5969.1	
522.6	7888.1	
522.79	6660	
522.99	6030.6	
523.18	5266.7	
523.38	7639.6	
523.58	7536.5	
523.77	7318.1	
523.97	5287.2	
524.17	9430.2	
524.36	8555	
524.56	6619	
524.76	6300.9	
524.95	7509.9	
525.15	7169.3	
525.34	6033.3	
525.54	6067.4	
525.74	7956.4	
525.93	6849.8	
526.13	7249.1	
526.33	5969.1	
526.52	8176.9	
526.72	7709.9	
526.91	7285.3	
527.11	6496.8	
527.31	8230.1	
527.5	8734.6	
527.7	6370.5	
527.89	5453.7	
528.09	7086	
528.29	7718.8	
528.48	6841.6	
528.68	6541.9	
528.87	8076.5	
529.07	8171.4	
529.27	6387.6	
529.46	5885.2	
529.66	7762.5	
529.85	8208.3	
530.05	5746.6	
530.25	6545.3	
530.44	9186.5	
530.64	7804.1	
530.83	6299.6	
531.03	6415.6	
531.23	8174.1	
531.42	7981.6	
531.62	7133.1	
531.81	6287.9	
532.01	8211.7	
532.21	8707.3	
532.4	6042.9	
532.6	6455.2	
532.79	9140.8	
532.99	8283.4	
533.18	6498.9	
533.38	7454.6	
533.58	7844.4	
533.77	8635.6	
533.97	6379.4	
534.16	7286.7	
534.36	8761.9	
534.55	7850.5	
534.75	7395.2	
534.95	6513.9	
535.14	8576.9	
535.34	7932.5	
535.53	6173.3	
535.73	8176.2	
535.92	9281.4	
536.12	8008.9	
536.31	6322.8	
536.51	7542	
536.71	8401.5	
536.9	7974.1	
537.1	6502.3	
537.29	6570.6	
537.49	8859.5	
537.68	7847.8	
537.88	6939.2	
538.07	6215.6	
538.27	8074.5	
538.46	9116.9	
538.66	6126.2	
538.86	6530.3	
539.05	8144.1	
539.25	8602.2	
539.44	6846.4	
539.64	6522.8	
539.83	8086.7	
540.03	9125.7	
540.22	6383.5	
540.42	6494.1	
540.61	8330.5	
540.81	8385.1	
541	6948.1	
541.2	7640.3	
541.39	7856	
541.59	8329.1	
541.78	7284.6	
541.98	6414.9	
542.18	7527.7	
542.37	7503.1	
542.57	6828.6	
542.76	7336.5	
542.96	7660.8	
543.15	8356.4	
543.35	6848.4	
543.54	6226.5	
543.74	8736.6	
543.93	8291.5	
544.13	6918.7	
544.32	8017.8	
544.52	8524.3	
544.71	7836.9	
544.91	6010.8	
545.1	7258	
545.3	7907.9	
545.49	8619.2	
545.69	5933.6	
545.88	6579.4	
546.08	9423.4	
546.27	9111.4	
546.47	7066.9	
546.66	6290.7	
546.86	8786.5	
547.05	9395.4	
547.24	6600.6	
547.44	6452.5	
547.63	7742.7	
547.83	8875.9	
548.02	6840.2	
548.22	7120.8	
548.41	7620.5	
548.61	8915.5	
548.8	6400.6	
549	6389.7	
549.19	8273.8	
549.39	8514.1	
549.58	6064.7	
549.78	6703.7	
549.97	8658.1	
550.17	8221.2	
550.36	7623.9	
550.55	8570.7	
550.75	8103.8	
550.94	8993.3	
551.14	6292	
551.33	6825.2	
551.53	7545.4	
551.72	8492.2	
551.92	6834.8	
552.11	6592.4	
552.31	8525.7	
552.5	8496.3	
552.69	8291.5	
552.89	6274.3	
553.08	8509.3	
553.28	8228.7	
553.47	6642.9	
553.67	7724.3	
553.86	9183.8	
554.06	7454.6	
554.25	5859.2	
554.44	6363.7	
554.64	9877.4	
554.83	9467.8	
555.03	6333.7	
555.22	6775.4	
555.42	8677.2	
555.61	8478.6	
555.8	6601.3	
556	6903.7	
556.19	7503.8	
556.39	8834.3	
556.58	6658.6	
556.78	6673	
556.97	8297.7	
557.16	7995.3	
557.36	7900.4	
557.55	6298.2	
557.75	7280.5	
557.94	9120.3	
558.13	6397.2	
558.33	6183.5	
558.52	8976.9	
558.72	7847.1	
558.91	6262	
559.1	6597.9	
559.3	7453.9	
559.49	7283.3	
559.69	5853.1	
559.88	6908.5	
560.07	8343.4	
560.27	8787.8	
560.46	7049.8	
560.66	7193.8	
560.85	8113.4	
561.04	7367.9	
561.24	6226.5	
561.43	6417	
561.63	7628	
561.82	7914	
562.01	7724.9	
562.21	6759.7	
562.4	8320.9	
562.59	9222.7	
562.79	6649.1	
562.98	6268.1	
563.18	8207.6	
563.37	9738.8	
563.56	7160.4	
563.76	6173.9	
563.95	7645.8	
564.14	7568.6	
564.34	6536.4	
564.53	6355.5	
564.73	8136.6	
564.92	8571.4	
565.11	6735.8	
565.31	6044.9	
565.5	8776.2	
565.69	7727.7	
565.89	6302.3	
566.08	6574	
566.27	8696.4	
566.47	9106.6	
566.66	7299	
566.85	5876.3	
567.05	8214.4	
567.24	7547.4	
567.44	6213.5	
567.63	7557	
567.82	8535.9	
568.02	8298.4	
568.21	6223.8	
568.4	6685.3	
568.6	8047.2	
568.79	8007.6	
568.98	6034	
569.18	6190.3	
569.37	8011.7	
569.56	10028	
569.76	6569.2	
569.95	7489.4	
570.14	8513.4	
570.34	8302.5	
570.53	6066.8	
570.72	6023.8	
570.91	8832.9	
571.11	7921.5	
571.3	6606.7	
571.49	7492.8	
571.69	8041	
571.88	7536.5	
572.07	7088.7	
572.27	7021.1	
572.46	7526.3	
572.65	8516.8	
572.85	6212.2	
573.04	6640.2	
573.23	8844.5	
573.43	8144.1	
573.62	6019	
573.81	6702.3	
574	8134.5	
574.2	7875.1	
574.39	6383.5	
574.58	6495.5	
574.78	8860.9	
574.97	8129.8	
575.16	6931.7	
575.36	7108.5	
575.55	8553.7	
575.74	8775.5	
575.93	5991	
576.13	7064.1	
576.32	7896.3	
576.51	8414.4	
576.71	6412.9	
576.9	7741.3	
577.09	8758.5	
577.28	8361.2	
577.48	6933.7	
577.67	5883.1	
577.86	8053.3	
578.05	8349.6	
578.25	6535.8	
578.44	6629.3	
578.63	8050.6	
578.83	9293	
579.02	5986.9	
579.21	7484.6	
579.4	8290.2	
579.6	7916.1	
579.79	6741.9	
579.98	8901.8	
580.17	8701.1	
580.37	8694.3	
580.56	6176	
580.75	7022.5	
580.94	9163.3	
581.14	8972.2	
581.33	7434.8	
581.52	6233.3	
581.71	8475.9	
581.91	9069.1	
582.1	5990.3	
582.29	6587	
582.48	8134.5	
582.68	8051.2	
582.87	7146.7	
583.06	6682.5	
583.25	8400.8	
583.45	8301.8	
583.64	7445.7	
583.83	8089.5	
584.02	7898.3	
584.21	8417.2	
584.41	7430	
584.6	6644.3	
584.79	8140	
584.98	8875.2	
585.18	6047	
585.37	6075	
585.56	7658.7	
585.75	8374.1	
585.94	6341.9	
586.14	7072.3	
586.33	9166	
586.52	8112	
586.71	6822.5	
586.91	6586.3	
587.1	7466.2	
587.29	8626	
587.48	6505	
587.67	6397.9	
587.87	8471.8	
588.06	8559.8	
588.25	7821.9	
588.44	6939.9	
588.63	8066.9	
588.83	8655.4	
589.02	6455.2	
589.21	6432.7	
589.4	7860.8	
589.59	7780.9	
589.78	5694	
589.98	5941.8	
590.17	7336.5	
590.36	8000	
590.55	5362.9	
590.74	6272.2	
590.94	9381.7	
591.13	7940.7	
591.32	5912.5	
591.51	5518.6	
591.7	8366.6	
591.89	7816.4	
592.09	5711.1	
592.28	6128.2	
592.47	7107.1	
592.66	8916.2	
592.85	5681.1	
593.05	5918.6	
593.24	7669	
593.43	8484.7	
593.62	5942.5	
593.81	6509.1	
594	7678.5	
594.19	7950.2	
594.39	5909.1	
594.58	5836.7	
594.77	8042.4	
594.96	8602.8	
595.15	5791.7	
595.34	6485.2	
595.54	8101.8	
595.73	7174	
595.92	5200.5	
596.11	6318	
596.3	8671.1	
596.49	7309.2	
596.68	6124.8	
596.88	6539.2	
597.07	8294.3	
597.26	7180.2	
597.45	5687.2	
597.64	6940.6	
597.83	7379.5	
598.02	8045.8	
598.22	5784.8	
598.41	6460.7	
598.6	7842.4	
598.79	7292.1	
598.98	5814.9	
599.17	6787.7	
599.36	7863.5	
599.55	9048.6	
599.74	7867.6	
599.94	7544.7	
600.13	8414.4	
600.32	7178.1	
600.51	5489.9	
600.7	5673.6	
600.89	9064.3	
601.08	9135.3	
601.27	5476.3	
601.47	6503.7	
601.66	8412.4	
601.85	9051.3	
602.04	6139.1	
602.23	6519.4	
602.42	7380.9	
602.61	8058.1	
602.8	6049	
602.99	5866.7	
603.18	7813	
603.37	7992.5	
603.57	6555.5	
603.76	7061.4	
603.95	8739.4	
604.14	8239.7	
604.33	5958.2	
604.52	6302.3	
604.71	7929.1	
604.9	7572.7	
605.09	6887.3	
605.28	6673	
605.47	8544.1	
605.66	8224.6	
605.86	6527.6	
606.05	6049.7	
606.24	8546.9	
606.43	7055.3	
606.62	6363	
606.81	7032	
607	8417.2	
607.19	7729.7	
607.38	5729.5	
607.57	5944.6	
607.76	7544	
607.95	6980.8	
608.14	6382.8	
608.33	7032	
608.52	7519.5	
608.72	8467	
608.91	5670.1	
609.1	5541.8	
609.29	7650.5	
609.48	7133.8	
609.67	6563.7	
609.86	5699.5	
610.05	7172.7	
610.24	7603.4	
610.43	5502.2	
610.62	5122	
610.81	8806.3	
611	8475.9	
611.19	5608	
611.38	6419.7	
611.57	7856	
611.76	9176.9	
611.95	5445.5	
612.14	5355.4	
612.33	7718.1	
612.52	7202.7	
612.71	5984.2	
612.9	5199.8	
613.09	6801.3	
613.28	9158.5	
613.47	5705.6	
613.66	6681.8	
613.85	7805.5	
614.04	7326.9	
614.24	5829.2	
614.43	5058.5	
614.62	7980.3	
614.81	7893.6	
615	6410.1	
615.19	6396.5	
615.38	7161.1	
615.57	7575.4	
615.76	6193.7	
615.95	7193.1	
616.14	7975.5	
616.33	7620.5	
616.52	6531	
616.71	6904.4	
616.9	7914	
617.09	7742.7	
617.28	5939.8	
617.47	7135.1	
617.66	7017	
617.85	7062.8	
618.04	6728.9	
618.22	6344.6	
618.41	7382.9	
618.6	8210.3	
618.79	6089.3	
618.98	5838.1	
619.17	8475.2	
619.36	6926.9	
619.55	5903.6	
619.74	5950	
619.93	7780.2	
620.12	7247.1	
620.31	6626.5	
620.5	6711.9	
620.69	8402.1	
620.88	8699.8	
621.07	7515.4	
621.26	6425.8	
621.45	7957	
621.64	7942.7	
621.83	6580.1	
622.02	5685.8	
622.21	8028.7	
622.4	7789.1	
622.59	7109.9	
622.78	6876.4	
622.97	7342.7	
623.16	8385.7	
623.35	6479.8	
623.54	5625.8	
623.72	7604.1	
623.91	7789.1	
624.1	6759.7	
624.29	5483.1	
624.48	8784.4	
624.67	8112.7	
624.86	6708.5	
625.05	5752.7	
625.24	8897.1	
625.43	7278.5	
625.62	8404.2	
625.81	5898.1	
626	8326.4	
626.19	7650.5	
626.38	6685.9	
626.56	6114.6	
626.75	7320.1	
626.94	8170	
627.13	6666.8	
627.32	5377.3	
627.51	8074.5	
627.7	9538.1	
627.89	5499.5	
628.08	6722.1	
628.27	7243	
628.46	7464.8	
628.65	5936.4	
628.83	5475.6	
629.02	8090.2	
629.21	7313.3	
629.4	6302.3	
629.59	6580.8	
629.78	7307.2	
629.97	8290.2	
630.16	6612.9	
630.35	6001.9	
630.54	8669.7	
630.72	8426	
630.91	5960.3	
631.1	6630.6	
631.29	7825.3	
631.48	8062.9	
631.67	6584.2	
631.86	6075.6	
632.05	7497.6	
632.24	7565.9	
632.42	5770.5	
632.61	6380.1	
632.8	7770	
632.99	7275.8	
633.18	6453.8	
633.37	6836.8	
633.56	7875.8	
633.75	7760.4	
633.93	6412.2	
634.12	6088.6	
634.31	8679.3	
634.5	8322.3	
634.69	6072.9	
634.88	6630.6	
635.07	7634.8	
635.25	8290.9	
635.44	7009.5	
635.63	7302.4	
635.82	7494.2	
636.01	7039.6	
636.2	6984.9	
636.39	6519.4	
636.57	8662.2	
636.76	8310.7	
636.95	5942.5	
637.14	7318.1	
637.33	8029.4	
637.52	8949.6	
637.7	5713.8	
637.89	6598.6	
638.08	7580.2	
638.27	8976.2	
638.46	6759.7	
638.65	7208.2	
638.83	9007	
639.02	7404.8	
639.21	6696.2	
639.4	7145.4	
639.59	7882.6	
639.78	7541.3	
639.96	5987.6	
640.15	5964.4	
640.34	7726.3	
640.53	7969.3	
640.72	5707	
640.91	6145.3	
641.09	7178.8	
641.28	8592.6	
641.47	6016.9	
641.66	6832	
641.85	7884	
642.03	8167.3	
642.22	6670.9	
642.41	6141.9	
642.6	7306.5	
642.79	6777.4	
642.97	5874.3	
643.16	6660.7	
643.35	7344.7	
643.54	7121.5	
643.73	5823.7	
643.91	6617.7	
644.1	6974	
644.29	7613.7	
644.48	5963	
644.67	5992.4	
644.85	7217	
645.04	7506.5	
645.23	5460.6	
645.42	5813.5	
645.6	7046.4	
645.79	8189.8	
645.98	5821	
646.17	4861.9	
646.36	6775.4	
646.54	7458.7	
646.73	6681.8	
646.92	5505.6	
647.11	7091.4	
647.29	8103.8	
647.48	5481.7	
647.67	5322.7	
647.86	8381.7	
648.05	8374.1	
648.23	5840.1	
648.42	7143.3	
648.61	7748.8	
648.8	7481.9	
648.98	5483.1	
649.17	5851	
649.36	6993.1	
649.55	6587.6	
649.73	5487.9	
649.92	6393.1	
650.11	6984.9	
650.3	7388.4	
650.48	5738.4	
650.67	5414.1	
650.86	7647.8	
651.05	6562.4	
651.23	5687.2	
651.42	5642.8	
651.61	7051.8	
651.79	7162.4	
651.98	5814.9	
652.17	5414.8	
652.36	7516	
652.54	6553.5	
652.73	5534.3	
652.92	5341.1	
653.11	7574.1	
653.29	7597.3	
653.48	4771.1	
653.67	5864	
653.85	7283.3	
654.04	8381	
654.23	6130.9	
654.42	5586.9	
654.6	6809.5	
654.79	7467.6	
654.98	5115.8	
655.16	5663.3	
655.35	6488.6	
655.54	6471.6	
655.73	5243.5	
655.91	5132.2	
656.1	7567.9	
656.29	6368.5	
656.47	4700.1	
656.66	6488	
656.85	6658.6	
657.03	6731.7	
657.22	5266	
657.41	5319.9	
657.59	6805.4	
657.78	6633.4	
657.97	4937.7	
658.16	5726.8	
658.34	7486.7	
658.53	7820.5	
658.72	6526.2	
658.9	7011.6	
659.09	6807.4	
659.28	6966.5	
659.46	5421	
659.65	5319.3	
659.84	6703	
660.02	7183.6	
660.21	5245.5	
660.4	5175.2	
660.58	7653.9	
660.77	6974.7	
660.96	5870.2	
661.14	4825.7	
661.33	8125	
661.52	8054	
661.7	4789.5	
661.89	8594	
662.08	6590.4	
662.26	6204.7	
662.45	5033.9	
662.64	5258.5	
662.82	7290.1	
663.01	6499.6	
663.2	5245.5	
663.38	6007.4	
663.57	7193.1	
663.75	7051.2	
663.94	5610.1	
664.13	6782.2	
664.31	6595.8	
664.5	7348.1	
664.69	5929.6	
664.87	6415.6	
665.06	6369.9	
665.25	7141.9	
665.43	6635.4	
665.62	6726.2	
665.8	7468.3	
665.99	6721.4	
666.18	5582.1	
666.36	5692	
666.55	7359.7	
666.74	7252.5	
666.92	5201.2	
667.11	6806.1	
667.29	6786.3	
667.48	7393.2	
667.67	6461.3	
667.85	5614.8	
668.04	6754.9	
668.22	6731.7	
668.41	5610.1	
668.6	5805.3	
668.78	6588.3	
668.97	6805.4	
669.15	6028.5	
669.34	4906.9	
669.53	6572.6	
669.71	6972	
669.9	5198.4	
670.08	5835.3	
670.27	6668.2	
670.46	7127.6	
670.64	6001.2	
670.83	6293.4	
671.01	6500.9	
671.2	7146	
671.38	5160.9	
671.57	5200.5	
671.76	7786.4	
671.94	8323.6	
672.13	5100.8	
672.31	6223.8	
672.5	7243.7	
672.69	6586.3	
672.87	5233.2	
673.06	5458.5	
673.24	7055.9	
673.43	6657.9	
673.61	5950.7	
673.8	5496.7	
673.98	7335.8	
674.17	7519.5	
674.36	6072.9	
674.54	5961	
674.73	7040.2	
674.91	7344	
675.1	5692	
675.28	5304.9	
675.47	6852.5	
675.65	7376.8	
675.84	5541.8	
676.03	5904.3	
676.21	6655.2	
676.4	6195.1	
676.58	6376	
676.77	6103.6	
676.95	8172.8	
677.14	6664.1	
677.32	5256.5	
677.51	5014.1	
677.69	7404.1	
677.88	6235.4	
678.06	5090.6	
678.25	5202.5	
678.44	6899.6	
678.62	6621.8	
678.81	4985.4	
678.99	5922.7	
679.18	7666.2	
679.36	7217.7	
679.55	5446.2	
679.73	6115.9	
679.92	7198.6	
680.1	6628.6	
680.29	6800.6	
680.47	5545.9	
680.66	6617.7	
680.84	7368.6	
681.03	4848.2	
681.21	6075.6	
681.4	6606.1	
681.58	6549.4	
681.77	5256.5	
681.95	5174.5	
682.14	7456.7	
682.32	7839.6	
682.51	6221	
682.69	5055.8	
682.88	6600.6	
683.06	7224.6	
683.25	5915.2	
683.43	6410.1	
683.62	6858	
683.8	7265.5	
683.99	6438.1	
684.17	5669.5	
684.36	8127.7	
684.54	6713.2	
684.73	4945.8	
684.91	5196.4	
685.1	7122.8	
685.28	6641.6	
685.46	5692	
685.65	5827.8	
685.83	7366.5	
686.02	6688	
686.2	5227.8	
686.39	5360.9	
686.57	6389	
686.76	8056	
686.94	5279	
687.13	5446.2	
687.31	7225.2	
687.5	6724.8	
687.68	4902.2	
687.86	6143.9	
688.05	8515.5	
688.23	6249	
688.42	6303.6	
688.6	5354.1	
688.79	6614.3	
688.97	6701.6	
689.16	5786.9	
689.34	4716.5	
689.52	7468.9	
689.71	7696.9	
689.89	6045.6	
690.08	5292.6	
690.26	6959	
690.45	6837.5	
690.63	6229.2	
690.81	5512.4	
691	6713.2	
691.18	6661.4	
691.37	5664	
691.55	7971.4	
691.74	6630	
691.92	8726.4	
692.1	5714.5	
692.29	5104.9	
692.47	6920.8	
692.66	6213.5	
692.84	5457.2	
693.02	6038.1	
693.21	6280.4	
693.39	6823.8	
693.58	6115.2	
693.76	5474.2	
693.94	8072.4	
694.13	7884.7	
694.31	5439.4	
694.5	6587.6	
694.68	6708.5	
694.86	7009.5	
695.05	5866.7	
695.23	6203.3	
695.42	7425.3	
695.6	9835	
695.78	6466.1	
695.97	5568.4	
696.15	7567.2	
696.34	6974	
696.52	5339.7	
696.7	6248.4	
696.89	7254.6	
697.07	6726.2	
697.25	6096.1	
697.44	7743.4	
697.62	7228.6	
697.81	7576.1	
697.99	5808.7	
698.17	6254.5	
698.36	6608.1	
698.54	7312.6	
698.72	6196.5	
698.91	5188.9	
699.09	6924.2	
699.28	6855.2	
699.46	5857.2	
699.64	5708.4	
699.83	6626.5	
700.01	7994.6	
700.19	6621.8	
700.38	5003.2	
700.56	8069	
700.74	6890	
700.93	5473.5	
701.11	6271.6	
701.29	7441.6	
701.48	8548.2	
701.66	5654.4	
701.84	5657.2	
702.03	7004.7	
702.21	7707.2	
702.39	5294	
702.58	5894.7	
702.76	7534.5	
702.94	7627.3	
703.13	5190.9	
703.31	7871.7	
703.49	6750.8	
703.68	7817.8	
703.86	5490.6	
704.04	6587	
704.23	7374.1	
704.41	7694.2	
704.59	5769.8	
704.78	6962.4	
704.96	8444.5	
705.14	7884.7	
705.33	5515.9	
705.51	6425.8	
705.69	7248.4	
705.87	8077.2	
706.06	6705	
706.24	5579.3	
706.42	7580.2	
706.61	7819.8	
706.79	6803.4	
706.97	5621.7	
707.16	7055.3	
707.34	7618.4	
707.52	6696.9	
707.7	5834.7	
707.89	7226.6	
708.07	6877.1	
708.25	6769.9	
708.44	6892.8	
708.62	7199.3	
708.8	8335.9	
708.98	6981.5	
709.17	5950.7	
709.35	7692.9	
709.53	7608.2	
709.72	5694	
709.9	5834	
710.08	7869.7	
710.26	7939.3	
710.45	7417.1	
710.63	5971.2	
710.81	7610.3	
710.99	7567.2	
711.18	6694.8	
711.36	6148	
711.54	7410.2	
711.72	8148.9	
711.91	6266.8	
712.09	5604.6	
712.27	7622.5	
712.45	8637	
712.64	6511.2	
712.82	5493.3	
713	6950.8	
713.18	7172.7	
713.37	5562.3	
713.55	6831.3	
713.73	8060.1	
713.91	6452.5	
714.1	5847.6	
714.28	5311.7	
714.46	7552.9	
714.64	6724.8	
714.83	4721.3	
715.01	5667.4	
715.19	6809.5	
715.37	6176	
715.55	5330.2	
715.74	5647.6	
715.92	7781.6	
716.1	5734.3	
716.28	6765.8	
716.47	5778.7	
716.65	6389	
716.83	6520.7	
717.01	5623.7	
717.19	5720.7	
717.38	8751	
717.56	6341.9	
717.74	5973.9	
717.92	5063.3	
718.1	7690.1	
718.29	6845	
718.47	4739	
718.65	5496.1	
718.83	7535.2	
719.01	7447.1	
719.2	4742.4	
719.38	5797.8	
719.56	7200	
719.74	8822	
719.92	5296	
720.11	6470.2	
720.29	7129.7	
720.47	6299.6	
720.65	4888.5	
720.83	5772.5	
721.02	6588.3	
721.2	6358.9	
721.38	5846.3	
721.56	5026.4	
721.74	5930.2	
721.92	6079.7	
722.11	6357.6	
722.29	5991.7	
722.47	7375.4	
722.65	6596.5	
722.83	5135.6	
723.01	6026.5	
723.2	6630.6	
723.38	6846.4	
723.56	4535.6	
723.74	5767.1	
723.92	6141.9	
724.1	7315.3	
724.29	5066	
724.47	6270.9	
724.65	6231.3	
724.83	6124.1	
725.01	4966.3	
725.19	5856.5	
725.37	6194.4	
725.56	6279.8	
725.74	4773.1	
725.92	5151.3	
726.1	6161	
726.28	6488	
726.46	5525.4	
726.64	5254.4	
726.83	6463.4	
727.01	6755.6	
727.19	4799.1	
727.37	5662.6	
727.55	6782.9	
727.73	7138.5	
727.91	4820.9	
728.09	4665.3	
728.28	7172	
728.46	7885.4	
728.64	5892	
728.82	5853.8	
729	8375.5	
729.18	7653.3	
729.36	5044.1	
729.54	7446.4	
729.72	8701.8	
729.91	6897.6	
730.09	7104.4	
730.27	5879	
730.45	6849.1	
730.63	7557.7	
730.81	6489.3	
730.99	5508.4	
731.17	8092.9	
731.35	6571.9	
731.53	6080.4	
731.71	5578	
731.9	7852.6	
732.08	8039.6	
732.26	5839.4	
732.44	5567.7	
732.62	8044.4	
732.8	7533.8	
732.98	6339.1	
733.16	5359.5	
733.34	7569.3	
733.52	6341.2	
733.7	5885.2	
733.88	6221	
734.07	7338.6	
734.25	7099.6	
734.43	5298.8	
734.61	7046.4	
734.79	8665.6	
734.97	7049.1	
735.15	5528.2	
735.33	5838.8	
735.51	7420.5	
735.69	7027.3	
735.87	7408.9	
736.05	6058.6	
736.23	7262.8	
736.41	7068.9	
736.59	6013.5	
736.77	6120.7	
736.95	7783.6	
737.13	7191.1	
737.32	5586.9	
737.5	5763.7	
737.68	8260.8	
737.86	7005.4	
738.04	5433.3	
738.22	7374.7	
738.4	6878.4	
738.58	7092.8	
738.76	6110.5	
738.94	5027.1	
739.12	6984.3	
739.3	6785.6	
739.48	6756.9	
739.66	6453.8	
739.84	7260.7	
740.02	7262.8	
740.2	5132.9	
740.38	5516.5	
740.56	7624.6	
740.74	6481.8	
740.92	6167.8	
741.1	6122.1	
741.28	7058	
741.46	6876.4	
741.64	5659.2	
741.82	6251.8	
742	7146	
742.18	7132.4	
742.36	5958.2	
742.54	5520.6	
742.72	7780.2	
742.9	6467.5	
743.08	6343.2	
743.26	5092.6	
743.44	7987.8	
743.62	7745.4	
743.8	6494.1	
743.98	5553.4	
744.16	7477.8	
744.34	7104.4	
744.52	6432.7	
744.7	6356.2	
744.88	7578.2	
745.06	7060.7	
745.24	6423.1	
745.42	6437.4	
745.6	7626.6	
745.78	7400	
745.96	5167.7	
746.14	5504.9	
746.32	8344.1	
746.5	7619.1	
746.68	6124.1	
746.86	5533.6	
747.03	8090.8	
747.21	6313.2	
747.39	6051.7	
747.57	5522	
747.75	7183.6	
747.93	7657.4	
748.11	5524.7	
748.29	5450.3	
748.47	8906.6	
748.65	6923.5	
748.83	6296.8	
749.01	5993	
749.19	7449.1	
749.37	6548.7	
749.55	5893.4	
749.73	5978.7	
749.91	7094.8	
750.09	6871.6	
750.26	6028.5	
750.44	5421	
750.62	7190.4	
750.8	7085.3	
750.98	5167	
751.16	5621	
751.34	7148.1	
751.52	6549.4	
751.7	6415.6	
751.88	5199.8	
752.06	7690.1	
752.24	7472.4	
752.42	5156.1	
752.59	5526.8	
752.77	7079.1	
752.95	8442.4	
753.13	6268.1	
753.31	5665.4	
753.49	6823.8	
753.67	7257.3	
753.85	5998.5	
754.03	5541.8	
754.21	7464.2	
754.38	7859.4	
754.56	5651	
754.74	4670.7	
754.92	6582.2	
755.1	7339.9	
755.28	4573.8	
755.46	4513.7	
755.64	7737.9	
755.82	7877.2	
755.99	4556.7	
756.17	4660.5	
756.35	5169.1	
756.53	6782.2	
756.71	3395.5	
756.89	4412.7	
757.07	6372.6	
757.25	5460.6	
757.42	5055.8	
757.6	6028.5	
757.78	6574.7	
757.96	5562.3	
758.14	4801.8	
758.32	4324.6	
758.5	5065.3	
758.67	5861.3	
758.85	4553.3	
759.03	4742.4	
759.21	5993.7	
759.39	5489.2	
759.57	4139.6	
759.75	5358.2	
759.92	6778.1	
760.1	5988.3	
760.28	5758.9	
760.46	6063.4	
760.64	5909.1	
760.82	5645.6	
760.99	5770.5	
761.17	4879.6	
761.35	6799.9	
761.53	5767.8	
761.71	4999.1	
761.89	5844.9	
762.06	6739.9	
762.24	6204.7	
762.42	5218.9	
762.6	4990.2	
762.78	6260.6	
762.96	6998.6	
763.13	5687.2	
763.31	5317.9	
763.49	7146	
763.67	6288.6	
763.85	6247	
764.02	6789	
764.2	7451.9	
764.38	6599.2	
764.56	5167.7	
764.74	6079.1	
764.91	7583.6	
765.09	6429.9	
765.27	4860.5	
765.45	4650.3	
765.63	7593.9	
765.8	7499	
765.98	4402.5	
766.16	4799.1	
766.34	5898.2	
766.52	5674.9	
766.69	5706.3	
766.87	4586.1	
767.05	6406.7	
767.23	7139.9	
767.41	4859.8	
767.58	5116.5	
767.76	6978.8	
767.94	7040.2	
768.12	4890.5	
768.29	5713.8	
768.47	6321.4	
768.65	7180.9	
768.83	4537.6	
769	5700.9	
769.18	5939.1	
769.36	6683.2	
769.54	5728.9	
769.72	4594.3	
769.89	6943.3	
770.07	7124.2	
770.25	4889.2	
770.43	6150.7	
770.6	7720.8	
770.78	8153	
770.96	5114.5	
771.14	5727.5	
771.31	6746.7	
771.49	6112.5	
771.67	4142.4	
771.85	4444.1	
772.02	5332.2	
772.2	6113.9	
772.38	5205.9	
772.55	4648.9	
772.73	6384.9	
772.91	6138.4	
773.09	5002.5	
773.26	5087.8	
773.44	6318.7	
773.62	6034	
773.8	4516.5	
773.97	4221.5	
774.15	6381.5	
774.33	5915.9	
774.5	4360.1	
774.68	4840	
774.86	6531.7	
775.04	6008.7	
775.21	4444.1	
775.39	4381.3	
775.57	6298.2	
775.74	6692.1	
775.92	4195.6	
776.1	4224.3	
776.27	6198.5	
776.45	7482.6	
776.63	4360.1	
776.81	3932.8	
776.98	5820.3	
777.16	6994.5	
777.34	4593.6	
777.51	4515.1	
777.69	5791.7	
777.87	5538.4	
778.04	4588.8	
778.22	5244.8	
778.4	5640.8	
778.57	6285.2	
778.75	3774.4	
778.93	4098.7	
779.1	5430.5	
779.28	5232.6	
779.46	3877.5	
779.64	4336.2	
779.81	6407.4	
779.99	7290.1	
780.17	5097.4	
780.34	5263.3	
780.52	5816.9	
780.69	6037.4	
780.87	4631.8	
781.05	4149.9	
781.22	5848.3	
781.4	5991.7	
781.58	4300.1	
781.75	3451.5	
781.93	5958.2	
782.11	5252.4	
782.28	5266	
782.46	4235.9	
782.64	5114.5	
782.81	6154.8	
782.99	4407.2	
783.17	4315.1	
783.34	5936.4	
783.52	5109	
783.69	4604.5	
783.87	5401.2	
784.05	5217.5	
784.22	5262.6	
784.4	5294.7	
784.58	4566.3	
784.75	6134.3	
784.93	5222.3	
785.1	4225.6	
785.28	4863.2	
785.46	5863.3	
785.63	5186.1	
785.81	4199.7	
785.99	4113	
786.16	5366.4	
786.34	5754.1	
786.51	4068.6	
786.69	4481.6	
786.87	4919.2	
787.04	5520.6	
787.22	3911.6	
787.39	4871.4	
787.57	5129.5	
787.75	6378.1	
787.92	5114.5	
788.1	5074.9	
788.27	5257.8	
788.45	4984.8	
788.63	4702.1	
788.8	3385.3	
788.98	5582.8	
789.15	4902.2	
789.33	3558	
789.5	4211.3	
789.68	6186.2	
789.86	6268.1	
790.03	4653.7	
790.21	4054.3	
790.38	6122.1	
790.56	5317.9	
790.73	3904.1	
790.91	3978.5	
791.09	5166.3	
791.26	5994.4	
791.44	4183.3	
791.61	3540.3	
791.79	5167	
791.96	5214.1	
792.14	3721.8	
792.32	3278.8	
792.49	5147.2	
792.67	5265.3	
792.84	3765.5	
793.02	3573	
793.19	5607.3	
793.37	6410.1	
793.54	3313.6	
793.72	3650.8	
793.89	6552.1	
794.07	5171.8	
794.25	4299.4	
794.42	3390.8	
794.6	6212.2	
794.77	5917.9	
794.95	4529.4	
795.12	3905.5	
795.3	5139.7	
795.47	5821.7	
795.65	4362.9	
795.82	4229.1	
796	4952	
796.17	6932.4	
796.35	4115.7	
796.52	4855.7	
796.7	5647.6	
796.87	5889.3	
797.05	5055.1	
797.22	4905.6	
797.4	5715.9	
797.57	6777.4	
797.75	4186.7	
797.92	3973.7	
798.1	6114.6	
798.27	5136.3	
798.45	3348.4	
798.62	3710.9	
798.8	5418.9	
798.97	5909.8	
799.15	4385.4	
799.32	4193.6	
799.5	4633.2	
799.67	5497.4	
799.85	4550.6	
800.02	3253.5	
800.2	5121.3	
800.37	5440.8	
800.55	4700.1	
800.72	3972.4	
800.9	5867.4	
801.07	6318	
801.25	5301.5	
801.42	4257.7	
801.6	5941.2	
801.77	5655.1	
801.95	4014.7	
802.12	3924.6	
802.29	5638.1	
802.47	5614.2	
802.64	4262.5	
802.82	3246.7	
802.99	5033.9	
803.17	6090.7	
803.34	4255.7	
803.52	3765.5	
803.69	6815.6	
803.87	4841.4	
804.04	4138.3	
804.21	4305.5	
804.39	6240.2	
804.56	5303.6	
804.74	3532.7	
804.91	4339.6	
805.09	5126.7	
805.26	5210.7	
805.44	3567.6	
805.61	3943	
805.78	5742.5	
805.96	5831.2	
806.13	4360.1	
806.31	4647.5	
806.48	4613.4	
806.66	5170.4	
806.83	4231.1	
807	4184	
807.18	5051.7	
807.35	5520.6	
807.53	4162.8	
807.7	3295.9	
807.87	6272.9	
808.05	5172.5	
808.22	4621.6	
808.4	3323.2	
808.57	5109	
808.74	4782.7	
808.92	3771	
809.09	4834.6	
809.27	4986.8	
809.44	5666	
809.61	3416	
809.79	3796.3	
809.96	6282.5	
810.14	5877.7	
810.31	3232.4	
810.48	4100	
810.66	5229.1	
810.83	6013.5	
811.01	3779.9	
811.18	4255.7	
811.35	5895.4	
811.53	4593.6	
811.7	4655	
811.87	4313.7	
812.05	5113.8	
812.22	5016.2	
812.39	3693.9	
812.57	3639.9	
812.74	5111.7	
812.92	6851.8	
813.09	4015.4	
813.26	4392.9	
813.44	6545.3	
813.61	5084.4	
813.78	3309.5	
813.96	4536.3	
814.13	5190.9	
814.3	4737.6	
814.48	4887.8	
814.65	4023.6	
814.82	6417	
815	4873.5	
815.17	4101.4	
815.34	5045.5	
815.52	5051	
815.69	5031.9	
815.87	4105.5	
816.04	3525.9	
816.21	5161.6	
816.38	4497.3	
816.56	3960.8	
816.73	3718.4	
816.9	6480.5	
817.08	5891.3	
817.25	3720.5	
817.42	4696	
817.6	4679.6	
817.77	5145.2	
817.94	4240.7	
818.12	3633.8	
818.29	4880.3	
818.46	7662.8	
818.64	3854.3	
818.81	3603.1	
818.98	4794.3	
819.16	7006.1	
819.33	4455.7	
819.5	4137.6	
819.67	5556.8	
819.85	6190.3	
820.02	4030.4	
820.19	4321.2	
820.37	5358.9	
820.54	4909	
820.71	4192.9	
820.88	5221.6	
821.06	5401.2	
821.23	4862.6	
821.4	4204.5	
821.58	4162.2	
821.75	5889.3	
821.92	5241.4	
822.09	3408.5	
822.27	3522.5	
822.44	5169.1	
822.61	5061.2	
822.79	3367.5	
822.96	6500.3	
823.13	5625.8	
823.3	4848.9	
823.48	3954.6	
823.65	3552.5	
823.82	5866.1	
823.99	4623.6	
824.17	4988.9	
824.34	3561.4	
824.51	6825.9	
824.68	5212.1	
824.86	3784.6	
825.03	4209.3	
825.2	5135.6	
825.37	6268.8	
825.55	3713.7	
825.72	4145.8	
825.89	6850.5	
826.06	6287.9	
826.24	4029.7	
826.41	4063.9	
826.58	6286.6	
826.75	5446.2	
826.92	3167.5	
827.1	3544.4	
827.27	8533.2	
827.44	6775.4	
827.61	3819.5	
827.79	4673.5	
827.96	4849.6	
828.13	5168.4	
828.3	4021.5	
828.47	3373.7	
828.65	5342.5	
828.82	5276.9	
828.99	5265.3	
829.16	4502.1	
829.34	5724.1	
829.51	5513.1	
829.68	4115.7	
829.85	4314.4	
830.02	6032.6	
830.2	5781.4	
830.37	3172.3	
830.54	5061.9	
830.71	6623.8	
830.88	5131.5	
831.05	3255.6	
831.23	3792.2	
831.4	6287.9	
831.57	7089.4	
831.74	3835.2	
831.91	3395.5	
832.09	5369.8	
832.26	5737	
832.43	3982.6	
832.6	4437.9	
832.77	5382.1	
832.94	6158.9	
833.12	3107.5	
833.29	3934.8	
833.46	5015.5	
833.63	7309.2	
833.8	4345.1	
833.97	4029.7	
834.15	5781.4	
834.32	5502.9	
834.49	4102.8	
834.66	4285	
834.83	6005.3	
835	4894	
835.17	3893.9	
835.35	3844	
835.52	5656.5	
835.69	5502.9	
835.86	4068.6	
836.03	3323.2	
836.2	5733.6	
836.37	5342.5	
836.55	4001	
836.72	3691.8	
836.89	5272.2	
837.06	5781.4	
837.23	4100	
837.4	4425	
837.57	6584.9	
837.75	7264.1	
837.92	3667.9	
838.09	3900	
838.26	5298.1	
838.43	6060.6	
838.6	4220.9	
838.77	3745.7	
838.94	6851.1	
839.11	6623.8	
839.29	3947.1	
839.46	3134.8	
839.63	5699.5	
839.8	5429.8	
839.97	3876.1	
840.14	3844.7	
840.31	5495.4	
840.48	5761.6	
840.65	3205.8	
840.82	3756.7	
841	5748.6	
841.17	5702.2	
841.34	3495.9	
841.51	3616.7	
841.68	5646.9	
841.85	5464.7	
842.02	3707.5	
842.19	3076	
842.36	5467.4	
842.53	5474.9	
842.7	3534.1	
842.87	4377.2	
843.05	7223.9	
843.22	5437.4	
843.39	3366.9	
843.56	3776.5	
843.73	5170.4	
843.9	5807.4	
844.07	5784.1	
844.24	4831.8	
844.41	8533.9	
844.58	4961.5	
844.75	3404.4	
844.92	3736.9	
845.09	5782.8	
845.26	5726.8	
845.43	3504.1	
845.6	3775.1	
845.77	5767.8	
845.94	5391.6	
846.12	3912.3	
846.29	4145.1	
846.46	5932.3	
846.63	5752.7	
846.8	3605.8	
846.97	4150.5	
847.14	6195.8	
847.31	5701.5	
847.48	4022.9	
847.65	4368.3	
847.82	6025.1	
847.99	5973.2	
848.16	4770.4	
848.33	4379.2	
848.5	5281.7	
848.67	6199.9	
848.84	3501.3	
849.01	3663.8	
849.18	5115.1	
849.35	4764.9	
849.52	4409.3	
849.69	3496.6	
849.86	5956.9	
850.03	6202.6	
850.2	3525.9	
850.37	4293.9	
850.54	6087.9	
850.71	5343.8	
850.88	4250.2	
851.05	3481.5	
851.22	5629.9	
851.39	6286.6	
851.56	3317.7	
851.73	4050.2	
851.9	5031.9	
852.07	5968.5	
852.24	3930.7	
852.41	3497.2	
852.58	5599.8	
852.75	5043.5	
852.92	4031.1	
853.09	3415.3	
853.26	5341.8	
853.43	6156.9	
853.6	3485.6	
853.77	3030.3	
853.94	6295.5	
854.11	5742.5	
854.28	5295.4	
854.44	3777.1	
854.61	6753.5	
854.78	5802.6	
854.95	3494.5	
855.12	4393.6	
855.29	4597.7	
855.46	6513.9	
855.63	3479.5	
855.8	4913.8	
855.97	5270.1	
856.14	6038.8	
856.31	5111	
856.48	3898.6	
856.65	5283.8	
856.82	4977.2	
856.99	3390.1	
857.16	3825.6	
857.33	6939.9	
857.49	5409.4	
857.66	3791.5	
857.83	4124.6	
858	5296.7	
858.17	5506.3	
858.34	3344.3	
858.51	3536.2	
858.68	6392.4	
858.85	6468.9	
859.02	4057	
859.19	4407.9	
859.36	4969.7	
859.52	5042.1	
859.69	3551.2	
859.86	4145.1	
860.03	5089.9	
860.2	6288.6	
860.37	3235.8	
860.54	3563.5	
860.71	5945.9	
860.88	6376.7	
861.05	3930.1	
861.21	4437.9	
861.38	6397.2	
861.55	4870.1	
861.72	3211.9	
861.89	3999	
862.06	6021.7	
862.23	6502.3	
862.4	3386.7	
862.56	3706.8	
862.73	5811.5	
862.9	5456.5	
863.07	4147.1	
863.24	3191.4	
863.41	4868.7	
863.58	5072.1	
863.75	3555.3	
863.91	4073.4	
864.08	6417.7	
864.25	5844.2	
864.42	4423.6	
864.59	4960.2	
864.76	6706.4	
864.93	5003.2	
865.09	3444	
865.26	3810.6	
865.43	6189.6	
865.6	6650.4	
865.77	3058.3	
865.94	3507.5	
866.1	6223.8	
866.27	6045.6	
866.44	5349.3	
866.61	3378.5	
866.78	5425.1	
866.95	5831.9	
867.11	3416	
867.28	3145.7	
867.45	6068.8	
867.62	5067.4	
867.79	4200.4	
867.96	3543.7	
868.12	5003.2	
868.29	6033.3	
868.46	3493.2	
868.63	4711.7	
868.8	6113.2	
868.97	5892.7	
869.13	3692.5	
869.3	3659	
869.47	5842.2	
869.64	6103.6	
869.81	3540.3	
869.97	3541.6	
870.14	5763	
870.31	6402.6	
870.48	3460.4	
870.65	4463.2	
870.81	5322	
870.98	5282.4	
871.15	4017.4	
871.32	3665.9	
871.48	5821	
871.65	6449.7	
871.82	3532.7	
871.99	3868.6	
872.16	6868.9	
872.32	6266.8	
872.49	3545	
872.66	3561.4	
872.83	5962.3	
872.99	5231.9	
873.16	4073.4	
873.33	3495.2	
873.5	5526.1	
873.67	5614.2	
873.83	3741	
874	4709	
874.17	5746.6	
874.34	6873	
874.5	4607.9	
874.67	4395.6	
874.84	6349.4	
875.01	4977.9	
875.17	4979.3	
875.34	3512.9	
875.51	5617.6	
875.68	6819.7	
875.84	4227.7	
876.01	5166.3	
876.18	5896.1	
876.34	5890	
876.51	3546.4	
876.68	3449.5	
876.85	5380.7	
877.01	6169.2	
877.18	5058.5	
877.35	3464.5	
877.52	5521.3	
877.68	4902.2	
877.85	3418.7	
878.02	3475.4	
878.18	5461.9	
878.35	5162.2	
878.52	2834.4	
878.69	3977.2	
878.85	5956.9	
879.02	5877	
879.19	5016.8	
879.35	3796.9	
879.52	5888.6	
879.69	6087.2	
879.86	3107.5	
880.02	3930.1	
880.19	5479.7	
880.36	6708.5	
880.52	4031.1	
880.69	4188.1	
880.86	6016.9	
881.02	6128.2	
881.19	3895.2	
881.36	3841.3	
881.52	5851.7	
881.69	5230.5	
881.86	3776.5	
882.02	3719.1	
882.19	6154.8	
882.36	7290.1	
882.52	3596.9	
882.69	5031.9	
882.86	5659.2	
883.02	5578.7	
883.19	4353.3	
883.36	4059.1	
883.52	6047	
883.69	6836.8	
883.86	3525.2	
884.02	3204.4	
884.19	5996.5	
884.36	5523.4	
884.52	3925.3	
884.69	3717.7	
884.86	5271.5	
885.02	6602	
885.19	3973.1	
885.36	4063.9	
885.52	5496.7	
885.69	5698.1	
885.86	5102.9	
886.02	4523.3	
886.19	5944.6	
886.35	5402.5	
886.52	3904.1	
886.69	4980	
886.85	5056.4	
887.02	6334.4	
887.19	6334.4	
887.35	6334.4	
887.52	6334.4	
887.68	6334.4	
887.85	6334.4	
888.02	6334.4	
888.18	6334.4	
888.35	6334.4	
888.51	6334.4	
888.68	6334.4	
888.85	6334.4	
889.01	6334.4	
889.18	6334.4	
889.35	6334.4	
889.51	6334.4	
889.68	6334.4	
889.84	6334.4	
890.01	6334.4	
890.17	6334.4	
890.34	6334.4	
890.51	6334.4	
890.67	6334.4	
890.84	6334.4	
891	6334.4	
891.17	6334.4	
891.34	6334.4	
891.5	6334.4	
891.67	6334.4	
891.83	6334.4	
892	6334.4	
892.16	6334.4	
892.33	6334.4	
892.5	6334.4	
892.66	6334.4	
892.83	6334.4	
892.99	6334.4	
893.16	6334.4	
893.32	6334.4	
893.49	6334.4	
893.65	6334.4	
893.82	6334.4	
893.99	6334.4	
894.15	6334.4	
894.32	6334.4	
894.48	6334.4	
894.65	6334.4	
894.81	6334.4	
894.98	6334.4	
895.14	6334.4	
895.31	6334.4	
895.47	6334.4	
895.64	6334.4	
895.81	6334.4	
895.97	6334.4	
896.14	6334.4	
896.3	6334.4	
896.47	6334.4	
896.63	6334.4	
896.8	6334.4	
896.96	6334.4	
897.13	6334.4	
897.29	6334.4	
897.46	6334.4	
897.62	6334.4	
897.79	6334.4	
897.95	6334.4	
898.12	6334.4	
898.28	6334.4	
898.45	6334.4	
898.61	6334.4	
898.78	6334.4	
898.94	6334.4	
899.11	6334.4	
899.27	6334.4	
899.44	6334.4	
899.6	6334.4	
899.77	6334.4	
899.93	6334.4	
900.1	6334.4	
900.26	6334.4	
900.43	6334.4	
900.59	6334.4	
900.76	6334.4	
900.92	6334.4	
901.09	6334.4	
901.25	6334.4	
901.42	6334.4	
901.58	6334.4	
901.75	6334.4	
901.91	6334.4	
902.07	6334.4	
902.24	6334.4	
902.4	6334.4	
902.57	6334.4	
902.73	6334.4	
902.9	6334.4	
903.06	6334.4	
903.23	6334.4	
903.39	6334.4	
903.56	6334.4	
903.72	6334.4	
903.88	6334.4	
904.05	6334.4	
904.21	6334.4	
904.38	6334.4	
904.54	6334.4	
904.71	6334.4	
904.87	6334.4	
905.03	6334.4	
905.2	6334.4	
905.36	6334.4	
905.53	6334.4	
905.69	6334.4	
905.86	6334.4	
906.02	6334.4	
906.18	6334.4	
906.35	6334.4	
906.51	6334.4	
906.68	6334.4	
906.84	6334.4	
907.01	6334.4	
907.17	6334.4	
907.33	6334.4	
907.5	6334.4	
907.66	6334.4	
907.83	6334.4	
907.99	6334.4	
908.15	6334.4	
908.32	6334.4	
908.48	6334.4	
908.65	6334.4	
908.81	6334.4	
908.97	6334.4	
909.14	6334.4	
909.3	6334.4	
909.47	6334.4	
909.63	6334.4	
909.79	6334.4	
909.96	6334.4	
910.12	6334.4	
910.28	6334.4	
910.45	6334.4	
910.61	6334.4	
910.78	6334.4	
910.94	6334.4	
911.1	6334.4	
911.27	6334.4	
911.43	6334.4	
911.59	6334.4	
911.76	6334.4	
911.92	6334.4	
912.08	6334.4	
912.25	6334.4	
912.41	6334.4	
912.57	6334.4	
912.74	6334.4	
912.9	6334.4	
913.07	6334.4	
913.23	6334.4	
913.39	6334.4	
913.56	6334.4	
913.72	6334.4	
913.88	6334.4	
914.05	6334.4	
914.21	6334.4	
914.37	6334.4	
914.54	6334.4	
914.7	6334.4	
914.86	6334.4	
915.03	6334.4	
915.19	6334.4	
