Wavelength	Intensities	
nm	a.u.	
179.22	1960.2	
179.44	1944.2	
179.65	1976.3	
179.86	1912.1	
180.08	1908	
180.29	5059.8	
180.51	3633.8	
180.72	5745.9	
180.94	6722.1	
181.15	3311.6	
181.37	3248.8	
181.58	5588.9	
181.79	5930.2	
182.01	3416	
182.22	3725.9	
182.44	5858.6	
182.65	4878.9	
182.87	4692.6	
183.08	4086.4	
183.29	6137.8	
183.51	5082.4	
183.72	3742.3	
183.94	5463.3	
184.15	5479	
184.37	5549.3	
184.58	3279.5	
184.79	4604.5	
185.01	5074.9	
185.22	5874.9	
185.44	4842.1	
185.65	4100	
185.86	5379.3	
186.08	4982.7	
186.29	3190.1	
186.51	3498.6	
186.72	5156.8	
186.94	6098.2	
187.15	3992.2	
187.36	4126	
187.58	7931.1	
187.79	5577.3	
188.01	4327.4	
188.22	6832	
188.43	6751.5	
188.65	5853.1	
188.86	3427.6	
189.08	4163.5	
189.29	5285.8	
189.5	5307	
189.72	3837.2	
189.93	3907.5	
190.15	6108.4	
190.36	7292.8	
190.57	4217.5	
190.79	4136.2	
191	6194.4	
191.22	6097.5	
191.43	4246.1	
191.64	3429.7	
191.86	6305	
192.07	6192.4	
192.29	3650.8	
192.5	3854.3	
192.71	6156.2	
192.93	5215.5	
193.14	3765.5	
193.35	3863.2	
193.57	5234.6	
193.78	6097.5	
194	3060.3	
194.21	3745.1	
194.42	5017.5	
194.64	5545.9	
194.85	4145.8	
195.07	4898.1	
195.28	5528.8	
195.49	4795.7	
195.71	5119.9	
195.92	3576.4	
196.13	5687.2	
196.35	5855.8	
196.56	5524.7	
196.78	4124.6	
196.99	7180.2	
197.2	6722.8	
197.42	4722.6	
197.63	4220.2	
197.84	4937.7	
198.06	5699.5	
198.27	3827.7	
198.48	5194.3	
198.7	5261.2	
198.91	5350.7	
199.13	4144.4	
199.34	4201.7	
199.55	5957.5	
199.77	4771.1	
199.98	3659	
200.19	4229.1	
200.41	5353.4	
200.62	5091.3	
200.83	4375.8	
201.05	4644.8	
201.26	5416.9	
201.47	5111.7	
201.69	3667.9	
201.9	3528	
202.11	5533.6	
202.33	6563.1	
202.54	3912.3	
202.76	4421.6	
202.97	5683.1	
203.18	5621.7	
203.4	4330.1	
203.61	4232.5	
203.82	5581.4	
204.04	5156.8	
204.25	4184	
204.46	4104.8	
204.68	5483.8	
204.89	5732.9	
205.1	4085.7	
205.32	3517.7	
205.53	5952.1	
205.74	6081.1	
205.96	3011.9	
206.17	4300.1	
206.38	5872.2	
206.6	6067.4	
206.81	4819.6	
207.02	3966.2	
207.24	5717.9	
207.45	6189.6	
207.66	3985.3	
207.88	3376.4	
208.09	5732.9	
208.3	5505.6	
208.52	3632.4	
208.73	4005.8	
208.94	5474.2	
209.15	6272.9	
209.37	4016.7	
209.58	4186	
209.79	6088.6	
210.01	5332.9	
210.22	3106.1	
210.43	3346.4	
210.65	5501.5	
210.86	5995.8	
211.07	4027.7	
211.29	3680.9	
211.5	5842.9	
211.71	5482.4	
211.93	3687	
212.14	3603.1	
212.35	5396.4	
212.56	5736.4	
212.78	4204.5	
212.99	3450.1	
213.2	6548	
213.42	5267.4	
213.63	3743.7	
213.84	4055.7	
214.06	4878.9	
214.27	5000.5	
214.48	3968.3	
214.69	4268.6	
214.91	6217	
215.12	6373.3	
215.33	4311	
215.55	4722.6	
215.76	6806.1	
215.97	5960.3	
216.18	4111.6	
216.4	4005.8	
216.61	5143.8	
216.82	6030.6	
217.04	3687	
217.25	3799	
217.46	6170.5	
217.67	5904.3	
217.89	3292.5	
218.1	3370.3	
218.31	5637.4	
218.53	5714.5	
218.74	3814.7	
218.95	3768.3	
219.16	5466	
219.38	6449.1	
219.59	3776.5	
219.8	4451.6	
220.01	7124.9	
220.23	5521.3	
220.44	4928.8	
220.65	3650.8	
220.87	5573.2	
221.08	6169.8	
221.29	3377.8	
221.5	4513	
221.72	7665.5	
221.93	5252.4	
222.14	4233.2	
222.35	4959.5	
222.57	5484.5	
222.78	5853.1	
222.99	4028.4	
223.2	4347.2	
223.42	5815.5	
223.63	5982.1	
223.84	3084.2	
224.05	3042.6	
224.27	7140.6	
224.48	6451.8	
224.69	4922.6	
224.9	4179.9	
225.12	5746.6	
225.33	5504.9	
225.54	3334.8	
225.75	3748.5	
225.97	5072.1	
226.18	5293.3	
226.39	4063.9	
226.6	3759.4	
226.82	5231.9	
227.03	5089.9	
227.24	4185.4	
227.45	3409.2	
227.67	5849.7	
227.88	6463.4	
228.09	4744.5	
228.3	4679.6	
228.52	5947.3	
228.73	5474.9	
228.94	3839.3	
229.15	3440.6	
229.36	5431.2	
229.58	5332.9	
229.79	3893.9	
230	4566.3	
230.21	6574	
230.43	5655.8	
230.64	4178.5	
230.85	4332.1	
231.06	5966.4	
231.28	5989.6	
231.49	3427.6	
231.7	4063.2	
231.91	5863.3	
232.12	5537.7	
232.34	3501.3	
232.55	4041.3	
232.76	6160.3	
232.97	5703.6	
233.18	3710.9	
233.4	4157.4	
233.61	5741.1	
233.82	5236.7	
234.03	3799.7	
234.25	3796.3	
234.46	7748.1	
234.67	5558.2	
234.88	4268	
235.09	3695.2	
235.31	5896.1	
235.52	5461.2	
235.73	4153.3	
235.94	3505.4	
236.15	5253.7	
236.37	6711.9	
236.58	3730.7	
236.79	3988.8	
237	5831.9	
237.21	5032.5	
237.43	4268.6	
237.64	3333.4	
237.85	10191	
238.06	5055.1	
238.27	4367	
238.48	3446	
238.7	5898.2	
238.91	5340.4	
239.12	3991.5	
239.33	3950.5	
239.54	5098.8	
239.76	5426.4	
239.97	4069.3	
240.18	3966.2	
240.39	7048.4	
240.6	5833.3	
240.82	4119.1	
241.03	3359.4	
241.24	5524.1	
241.45	6437.4	
241.66	3648.1	
241.87	4356.7	
242.09	6224.5	
242.3	6650.4	
242.51	4393.6	
242.72	4056.3	
242.93	6032.6	
243.14	5451.7	
243.36	4628.4	
243.57	5059.2	
243.78	6414.9	
243.99	5932.3	
244.2	4025.6	
244.41	3627.6	
244.63	5055.1	
244.84	5861.3	
245.05	4245.4	
245.26	4008.6	
245.47	5786.2	
245.68	6083.1	
245.9	5336.3	
246.11	4207.9	
246.32	5340.4	
246.53	5794.4	
246.74	6597.9	
246.95	3398.3	
247.16	5013.4	
247.38	5531.6	
247.59	3343.7	
247.8	3999.7	
248.01	5156.8	
248.22	5426.4	
248.43	3674.1	
248.64	3921.2	
248.86	4853	
249.07	5273.5	
249.28	3510.9	
249.49	4160.8	
249.7	6092.7	
249.91	6273.6	
250.12	3375.1	
250.34	3375.1	
250.55	5616.2	
250.76	5502.2	
250.97	4168.3	
251.18	4247.5	
251.39	6271.6	
251.6	5689.9	
251.81	4240	
252.03	4202.4	
252.24	5241.4	
252.45	6069.5	
252.66	3505.4	
252.87	4444.8	
253.08	5556.8	
253.29	7329.7	
253.5	3479.5	
253.72	4913.1	
253.93	5376.6	
254.14	6667.5	
254.35	3807.2	
254.56	3987.4	
254.77	5784.8	
254.98	5076.2	
255.19	3773.7	
255.41	4889.9	
255.62	5632.6	
255.83	6225.8	
256.04	4336.9	
256.25	4224.3	
256.46	6849.8	
256.67	5238	
256.88	4134.2	
257.09	4656.4	
257.31	5203.9	
257.52	5209.3	
257.73	5205.3	
257.94	3781.2	
258.15	5389.6	
258.36	5471.5	
258.57	4776.5	
258.78	3021.4	
258.99	6044.2	
259.2	5322	
259.41	3881.6	
259.63	3923.2	
259.84	6454.5	
260.05	6926.2	
260.26	4997.7	
260.47	3712.3	
260.68	6130.3	
260.89	5425.1	
261.1	4654.4	
261.31	3634.5	
261.52	6075	
261.73	6512.5	
261.95	4962.2	
262.16	4359.4	
262.37	6298.9	
262.58	6356.9	
262.79	4966.3	
263	3898.6	
263.21	5504.3	
263.42	5036.6	
263.63	3947.8	
263.84	3872.7	
264.05	6154.8	
264.26	6519.4	
264.47	4823	
264.69	4309.6	
264.9	6236.1	
265.11	5769.1	
265.32	3720.5	
265.53	3777.1	
265.74	5719.3	
265.95	4913.8	
266.16	4080.2	
266.37	4505.5	
266.58	5640.8	
266.79	5382.7	
267	3800.3	
267.21	3504.1	
267.42	5095.3	
267.63	5514.5	
267.84	4002.4	
268.06	3403.7	
268.27	5948.7	
268.48	6382.2	
268.69	3900.7	
268.9	4638.6	
269.11	6288.6	
269.32	4951.3	
269.53	3964.9	
269.74	3695.2	
269.95	5904.3	
270.16	4874.2	
270.37	3991.5	
270.58	4663.2	
270.79	5348.6	
271	6042.2	
271.21	4354	
271.42	4050.9	
271.63	5685.8	
271.84	5138.4	
272.05	3220.1	
272.26	3594.9	
272.47	5585.5	
272.68	5803.3	
272.89	3832.4	
273.11	4504.8	
273.32	5328.1	
273.53	6480.5	
273.74	4362.2	
273.95	4262.5	
274.16	6193.7	
274.37	5602.6	
274.58	4431.8	
274.79	3489.7	
275	5645.6	
275.21	6242.2	
275.42	5315.8	
275.63	4575.8	
275.84	5735.7	
276.05	7274.4	
276.26	4234.5	
276.47	3970.3	
276.68	5347.9	
276.89	6526.2	
277.1	4526	
277.31	3519.8	
277.52	5826.5	
277.73	5980.8	
277.94	3461.1	
278.15	3857.7	
278.36	5725.4	
278.57	5190.2	
278.78	3813.3	
278.99	4317.8	
279.2	5079.6	
279.41	5054.4	
279.62	5117.2	
279.83	3537.5	
280.04	6784.9	
280.25	5046.2	
280.46	5076.9	
280.67	4018.1	
280.88	5094	
281.09	6275.7	
281.3	4192.2	
281.51	5382.7	
281.72	6036.7	
281.93	6125.5	
282.14	3723.2	
282.35	4060.4	
282.56	6092.7	
282.77	6033.3	
282.98	3938.2	
283.19	4784.7	
283.4	7474.4	
283.61	5450.3	
283.82	3582.6	
284.03	5017.5	
284.24	5622.4	
284.45	6180.1	
284.66	5056.4	
284.87	4838.7	
285.08	6146	
285.29	6275.7	
285.5	3360.7	
285.71	3892.5	
285.92	6226.5	
286.12	6889.4	
286.33	4969.7	
286.54	3865.9	
286.75	6091.3	
286.96	5379.3	
287.17	3564.8	
287.38	4933.6	
287.59	5186.8	
287.8	5055.1	
288.01	3957.4	
288.22	4506.9	
288.43	6077.7	
288.64	5056.4	
288.85	4674.1	
289.06	4483.7	
289.27	5980.8	
289.48	6599.2	
289.69	4988.9	
289.9	4515.1	
290.11	6223.1	
290.32	5246.9	
290.53	4767.7	
290.74	4399.7	
290.94	6009.4	
291.15	6079.1	
291.36	3791.5	
291.57	4566.3	
291.78	5296.7	
291.99	4924	
292.2	3556.6	
292.41	4337.6	
292.62	6094.1	
292.83	5900.2	
293.04	5397.8	
293.25	3670	
293.46	5293.3	
293.67	6182.1	
293.88	3797.6	
294.09	3603.7	
294.29	5043.5	
294.5	5684.5	
294.71	4083	
294.92	3883.6	
295.13	5307	
295.34	6718	
295.55	3374.4	
295.76	3467.2	
295.97	5936.4	
296.18	6771.9	
296.39	3556.6	
296.6	3797.6	
296.81	5638.1	
297.01	5993.7	
297.22	3888.4	
297.43	3719.1	
297.64	5168.4	
297.85	5150.6	
298.06	3102	
298.27	3337.5	
298.48	5610.1	
298.69	5193.6	
298.9	4063.2	
299.11	3650.8	
299.31	5014.8	
299.52	5081	
299.73	4319.8	
299.94	4302.8	
300.15	5524.1	
300.36	5112.4	
300.57	4318.5	
300.78	4312.3	
300.99	5356.8	
301.2	5693.4	
301.4	3724.6	
301.61	4101.4	
301.82	5867.4	
302.03	6011.5	
302.24	4585.4	
302.45	3597.6	
302.66	5881.1	
302.87	6361	
303.08	3767.6	
303.29	5136.3	
303.49	5285.8	
303.7	5581.4	
303.91	3305.4	
304.12	4940.4	
304.33	5041.4	
304.54	5650.3	
304.75	3802.4	
304.96	3550.5	
305.16	5855.1	
305.37	6663.4	
305.58	3267.2	
305.79	3423.5	
306	5868.8	
306.21	4930.1	
306.42	3628.3	
306.63	5750	
306.83	5390.9	
307.04	6140.5	
307.25	4134.2	
307.46	4149.9	
307.67	4737	
307.88	6018.3	
308.09	3687.7	
308.29	3876.1	
308.5	5603.2	
308.71	6158.2	
308.92	4046.8	
309.13	3599	
309.34	5367	
309.55	5449.6	
309.75	4680.3	
309.96	4292.5	
310.17	5993	
310.38	5174.5	
310.59	4547.2	
310.8	3462.4	
311.01	5383.4	
311.21	5390.9	
311.42	3579.2	
311.63	3787.4	
311.84	5272.8	
312.05	5666	
312.26	4212	
312.46	4655.7	
312.67	5384.8	
312.88	5048.2	
313.09	3599.6	
313.3	3514.3	
313.51	6333.7	
313.71	6715.3	
313.92	3623.5	
314.13	3895.9	
314.34	5769.8	
314.55	5466	
314.76	4760.2	
314.96	4120.5	
315.17	5627.1	
315.38	5952.8	
315.59	3588	
315.8	3481.5	
316.01	6502.3	
316.21	6512.5	
316.42	3502	
316.63	4032.5	
316.84	5362.3	
317.05	6287.9	
317.26	4310.3	
317.46	3872	
317.67	5450.3	
317.88	5943.9	
318.09	4625	
318.3	3375.1	
318.5	5288.5	
318.71	5894.7	
318.92	5915.9	
319.13	4302.8	
319.34	6062	
319.54	6223.8	
319.75	3404.4	
319.96	3183.9	
320.17	5950	
320.38	6109.8	
320.58	3282.2	
320.79	4014	
321	6126.2	
321.21	6214.9	
321.42	4029	
321.62	3309.5	
321.83	5141.8	
322.04	5551.4	
322.25	3806.5	
322.46	3661.8	
322.66	5627.8	
322.87	5741.8	
323.08	4517.1	
323.29	3548.4	
323.5	6683.9	
323.7	5006.6	
323.91	5026.4	
324.12	4481.6	
324.33	5604.6	
324.53	5896.1	
324.74	4272.1	
324.95	4531.5	
325.16	4879.6	
325.37	5390.3	
325.57	3608.5	
325.78	3741	
325.99	5641.5	
326.2	5025	
326.4	5195	
326.61	3362.8	
326.82	5492	
327.03	5651	
327.24	5225.1	
327.44	4993.6	
327.65	5838.1	
327.86	4672.1	
328.07	4263.9	
328.27	3482.9	
328.48	6277.7	
328.69	5111	
328.9	5251	
329.1	3926	
329.31	5417.6	
329.52	6481.8	
329.73	3630.4	
329.93	4170.3	
330.14	5516.5	
330.35	5752.1	
330.56	6066.8	
330.76	4549.2	
330.97	5343.8	
331.18	5796.4	
331.39	4110.3	
331.59	3292.5	
331.8	6208.1	
332.01	6358.9	
332.22	3721.2	
332.42	4340.3	
332.63	5666.7	
332.84	5271.5	
333.05	4112.3	
333.25	3725.3	
333.46	5330.2	
333.67	5578.7	
333.88	3805.1	
334.08	4289.8	
334.29	7476.5	
334.5	6240.8	
334.7	3519.8	
334.91	5232.6	
335.12	5022.3	
335.33	5951.4	
335.53	4076.8	
335.74	6032	
335.95	5337	
336.16	5150	
336.36	4171	
336.57	4683	
336.78	5017.5	
336.98	6155.5	
337.19	5003.9	
337.4	3984	
337.61	6752.8	
337.81	5044.8	
338.02	3750.5	
338.23	4812	
338.43	6343.2	
338.64	5164.3	
338.85	3676.1	
339.05	4825	
339.26	6476.4	
339.47	4941.1	
339.68	3658.4	
339.88	5465.3	
340.09	5803.3	
340.3	6129.6	
340.5	4263.2	
340.71	3329.3	
340.92	5053.7	
341.13	6305	
341.33	3559.4	
341.54	4325.3	
341.75	5761.6	
341.95	5431.9	
342.16	4125.3	
342.37	4475.5	
342.57	5088.5	
342.78	5528.2	
342.99	4552.6	
343.19	3302.7	
343.4	5931.6	
343.61	5764.3	
343.81	3886.4	
344.02	3564.1	
344.23	5924.8	
344.43	6423.8	
344.64	4528.1	
344.85	4401.1	
345.06	5840.8	
345.26	6173.9	
345.47	4235.9	
345.68	4958.1	
345.88	4894	
346.09	6072.2	
346.3	4345.8	
346.5	3196.9	
346.71	5531.6	
346.92	5251.7	
347.12	3321.1	
347.33	4237.9	
347.54	6094.8	
347.74	6531.7	
347.95	4197	
348.16	3087.7	
348.36	5319.3	
348.57	5193	
348.78	4176.5	
348.98	4483	
349.19	5521.3	
349.39	4964.3	
349.6	3301.3	
349.81	3663.1	
350.01	5834.7	
350.22	5230.5	
350.43	4076.8	
350.63	4897.4	
350.84	5603.2	
351.05	5353.4	
351.25	3659.7	
351.46	3277.4	
351.67	6153.5	
351.87	5227.8	
352.08	3933.5	
352.29	4487.1	
352.49	6021.7	
352.7	6070.9	
352.9	3565.5	
353.11	4450.2	
353.32	6724.2	
353.52	5344.5	
353.73	3506.1	
353.94	4519.9	
354.14	5855.8	
354.35	5724.8	
354.55	3596.2	
354.76	4036.5	
354.97	5819.6	
355.17	5561.6	
355.38	3412.6	
355.59	4797.7	
355.79	5182.7	
356	5634.6	
356.2	4052.9	
356.41	3556	
356.62	4962.2	
356.82	5482.4	
357.03	4248.9	
357.24	3809.9	
357.44	5235.3	
357.65	5378.6	
357.85	5176.6	
358.06	4014	
358.27	4926	
358.47	5154.1	
358.68	3355.9	
358.88	4256.4	
359.09	5762.3	
359.3	6175.3	
359.5	5040.7	
359.71	4449.6	
359.91	6677.1	
360.12	5932.3	
360.33	4216.1	
360.53	4688.5	
360.74	5197.7	
360.94	5246.2	
361.15	4415.4	
361.36	3633.8	
361.56	6077	
361.77	5428.5	
361.97	4996.4	
362.18	3861.8	
362.38	5984.8	
362.59	5068.7	
362.8	3577.1	
363	3359.4	
363.21	4828.4	
363.41	5562.3	
363.62	4110.3	
363.83	5231.2	
364.03	5603.2	
364.24	6708.5	
364.44	5302.9	
364.65	5294.7	
364.85	5311.7	
365.06	5048.9	
365.27	3738.9	
365.47	3779.2	
365.68	6418.3	
365.88	5344.5	
366.09	4174.4	
366.29	3818.1	
366.5	5612.8	
366.71	6068.1	
366.91	5201.2	
367.12	4313.7	
367.32	6737.8	
367.53	5895.4	
367.73	4288.4	
367.94	5366.4	
368.14	5825.1	
368.35	6843.6	
368.56	4248.9	
368.76	3611.3	
368.97	5920.7	
369.17	7802.8	
369.38	3724.6	
369.58	4029	
369.79	5038.7	
369.99	6227.9	
370.2	5047.6	
370.4	4131.4	
370.61	5721.3	
370.82	6906.4	
371.02	3997	
371.23	3312.9	
371.43	4836.6	
371.64	6318	
371.84	3995.6	
372.05	5355.4	
372.25	7671.7	
372.46	5939.1	
372.66	4000.4	
372.87	3945.8	
373.07	6032	
373.28	7656.7	
373.48	5064.6	
373.69	4780	
373.9	5418.9	
374.1	5444.9	
374.31	4968.4	
374.51	4515.8	
374.72	6300.2	
374.92	5127.4	
375.13	5182	
375.33	4287.8	
375.54	5780.7	
375.74	5275.6	
375.95	4327.4	
376.15	5655.1	
376.36	5816.2	
376.56	5636	
376.77	4424.3	
376.97	4855.7	
377.18	6978.8	
377.38	5941.2	
377.59	5233.2	
377.79	3854.3	
378	5631.9	
378.2	6142.5	
378.41	3912.3	
378.61	3857	
378.82	6229.2	
379.02	5235.3	
379.23	4044.1	
379.43	5299.5	
379.64	6249.7	
379.84	5836.7	
380.05	3933.5	
380.25	3882.9	
380.46	5961.6	
380.66	5507.7	
380.87	5373.2	
381.07	5726.8	
381.28	6666.8	
381.48	5967.8	
381.69	3971	
381.89	3959.4	
382.1	4880.3	
382.3	6174.6	
382.51	5137.7	
382.71	6096.1	
382.91	6016.2	
383.12	6613.6	
383.32	4317.1	
383.53	4618.2	
383.73	5857.9	
383.94	5659.2	
384.14	4482.3	
384.35	3644	
384.55	5549.3	
384.76	6097.5	
384.96	4320.5	
385.17	4681	
385.37	6009.4	
385.58	5242.8	
385.78	4693.3	
385.98	3525.2	
386.19	5453.1	
386.39	5831.2	
386.6	4138.9	
386.8	4390.2	
387.01	5982.8	
387.21	6024.4	
387.42	4807.3	
387.62	5401.2	
387.83	5274.2	
388.03	6002.6	
388.23	4406.5	
388.44	5276.3	
388.64	4915.8	
388.85	5105.6	
389.05	4812.7	
389.26	5355.4	
389.46	7108.5	
389.67	6441.5	
389.87	4740.4	
390.07	4890.5	
390.28	5608.7	
390.48	5175.9	
390.69	3918.4	
390.89	4288.4	
391.1	5383.4	
391.3	6311.2	
391.5	5545.2	
391.71	6188.3	
391.91	6037.4	
392.12	7189.1	
392.32	5639.4	
392.53	4764.9	
392.73	5431.9	
392.93	5660.6	
393.14	4435.9	
393.34	5248.9	
393.55	6080.4	
393.75	5651	
393.95	4420.2	
394.16	4411.3	
394.36	5342.5	
394.57	6071.5	
394.77	3899.3	
394.98	4351.3	
395.18	5291.3	
395.38	5389.6	
395.59	5276.3	
395.79	4089.8	
396	5427.8	
396.2	5950	
396.4	4981.3	
396.61	4903.5	
396.81	6143.9	
397.02	5386.2	
397.22	5233.9	
397.42	5293.3	
397.63	6107.7	
397.83	5242.1	
398.04	3994.2	
398.24	4618.9	
398.44	5855.8	
398.65	4894	
398.85	3887.7	
399.05	4012	
399.26	5257.8	
399.46	7075	
399.67	4406.5	
399.87	4132.1	
400.07	5661.3	
400.28	6009.4	
400.48	4240	
400.69	5300.8	
400.89	6226.5	
401.09	6664.1	
401.3	4053.6	
401.5	5267.4	
401.7	6998.6	
401.91	7185.6	
402.11	4433.2	
402.32	4691.9	
402.52	6255.9	
402.72	6199.9	
402.93	4942.4	
403.13	3679.5	
403.33	7040.9	
403.54	5791	
403.74	4633.2	
403.94	5571.8	
404.15	5837.4	
404.35	6999.3	
404.56	4447.5	
404.76	6314.6	
404.96	6209.4	
405.17	6086.6	
405.37	5332.2	
405.57	4879.6	
405.78	6353.5	
405.98	5727.5	
406.18	4371	
406.39	5369.8	
406.59	6292	
406.79	5951.4	
407	4175.1	
407.2	4259.8	
407.4	6291.4	
407.61	6503	
407.81	4263.2	
408.01	6313.9	
408.22	5162.9	
408.42	7370	
408.62	5326.8	
408.83	4774.5	
409.03	5760.9	
409.23	5604.6	
409.44	4828.4	
409.64	5119.9	
409.84	6711.9	
410.05	6584.9	
410.25	4977.9	
410.45	4728.8	
410.66	6005.3	
410.86	8662.9	
411.06	5137	
411.27	4982.7	
411.47	8339.3	
411.67	6124.1	
411.88	5283.1	
412.08	5552.7	
412.28	6824.5	
412.49	7399.3	
412.69	4982.7	
412.89	4985.4	
413.09	7188.4	
413.3	6991.8	
413.5	5162.9	
413.7	4645.5	
413.91	6270.9	
414.11	7098.3	
414.31	4883	
414.52	5314.5	
414.72	6759.7	
414.92	6678.4	
415.12	4885.1	
415.33	5405.3	
415.53	7064.1	
415.73	7279.2	
415.94	5849.7	
416.14	5214.8	
416.34	6071.5	
416.55	5838.1	
416.75	6442.2	
416.95	5924.1	
417.15	7124.2	
417.36	7841	
417.56	6668.9	
417.76	5614.8	
417.97	7516	
418.17	7139.2	
418.37	5218.2	
418.57	5277.6	
418.78	6855.9	
418.98	6550.1	
419.18	6113.2	
419.38	6112.5	
419.59	6662.7	
419.79	6262	
419.99	5154.7	
420.2	5601.2	
420.4	7076.4	
420.6	7327.6	
420.8	5048.2	
421.01	4959.5	
421.21	6931.7	
421.41	7197.9	
421.61	5455.8	
421.82	5196.4	
422.02	6409.5	
422.22	7544	
422.42	6035.4	
422.63	5662.6	
422.83	6632	
423.03	7810.3	
423.23	5678.3	
423.44	4542.4	
423.64	6617	
423.84	6456.6	
424.04	5120.6	
424.25	4734.2	
424.45	7646.4	
424.65	7516.7	
424.85	4543.8	
425.06	5122	
425.26	7512.6	
425.46	6215.6	
425.66	5705.6	
425.87	5361.6	
426.07	7367.9	
426.27	7263.5	
426.47	5531.6	
426.67	4898.7	
426.88	7694.2	
427.08	7139.2	
427.28	5812.8	
427.48	4739	
427.69	5995.8	
427.89	6646.3	
428.09	5735	
428.29	4840	
428.5	7400	
428.7	6815.6	
428.9	4653	
429.1	5324	
429.3	6804.7	
429.51	7278.5	
429.71	5041.4	
429.91	5900.2	
430.11	7090.1	
430.31	7342.7	
430.52	5350.7	
430.72	5701.5	
430.92	7735.2	
431.12	7135.8	
431.32	5038.7	
431.53	5354.1	
431.73	6030.6	
431.93	7856	
432.13	4922	
432.33	4762.9	
432.54	6494.8	
432.74	6904.4	
432.94	4761.5	
433.14	5864	
433.34	6978.1	
433.55	6501.6	
433.75	5760.3	
433.95	7564.5	
434.15	6804.7	
434.35	6540.5	
434.56	4904.9	
434.76	4410.6	
434.96	6821.8	
435.16	7059.3	
435.36	4741.7	
435.56	5924.8	
435.77	6358.3	
435.97	6634.1	
436.17	6722.8	
436.37	5922.7	
436.57	6445.6	
436.78	6345.3	
436.98	7805.5	
437.18	6535.1	
437.38	7141.9	
437.58	6632.7	
437.78	6717.3	
437.99	5230.5	
438.19	7203.4	
438.39	7976.8	
438.59	5162.9	
438.79	4671.4	
438.99	7869	
439.2	6625.9	
439.4	4791.6	
439.6	4733.5	
439.8	7017	
440	8188.5	
440.2	5843.5	
440.4	5920.7	
440.61	7333.1	
440.81	7924.3	
441.01	4888.5	
441.21	5937.1	
441.41	7703.8	
441.61	7352.9	
441.81	6173.9	
442.02	7282.6	
442.22	8248.5	
442.42	7385.7	
442.62	5170.4	
442.82	5031.2	
443.02	7732.4	
443.22	6789	
443.43	5479	
443.63	5066.7	
443.83	6640.2	
444.03	6733.7	
444.23	6292	
444.43	5940.5	
444.63	6978.8	
444.83	8298.4	
445.04	5091.9	
445.24	6420.4	
445.44	7387	
445.64	7456.7	
445.84	6067.4	
446.04	5953.4	
446.24	6678.4	
446.44	7741.3	
446.65	5177.9	
446.85	5577.3	
447.05	6873	
447.25	7763.8	
447.45	5638.7	
447.65	5002.5	
447.85	7012.2	
448.05	6709.1	
448.25	5991	
448.46	5941.8	
448.66	7100.3	
448.86	6759.7	
449.06	4815.5	
449.26	6178.7	
449.46	7385.7	
449.66	6380.1	
449.86	5539.1	
450.06	5591.6	
450.26	6606.7	
450.47	7249.1	
450.67	5901.6	
450.87	6232	
451.07	7299.6	
451.27	7107.8	
451.47	5093.3	
451.67	5665.4	
451.87	6759	
452.07	8029.4	
452.27	5441.5	
452.47	5372.5	
452.67	7056.6	
452.88	7607.5	
453.08	4681.7	
453.28	6764.4	
453.48	8260.1	
453.68	6960.4	
453.88	5227.8	
454.08	5513.1	
454.28	7451.2	
454.48	7077.8	
454.68	6090.7	
454.88	6618.4	
455.08	7452.6	
455.28	7226.6	
455.48	5132.9	
455.68	5740.5	
455.89	8012.3	
456.09	7603.4	
456.29	5485.8	
456.49	5428.5	
456.69	7816.4	
456.89	7044.3	
457.09	6014.9	
457.29	6298.2	
457.49	7447.1	
457.69	7574.8	
457.89	5806	
458.09	5231.2	
458.29	7169.3	
458.49	7925.6	
458.69	6324.1	
458.89	5670.8	
459.09	8120.9	
459.29	8305.2	
459.49	5672.2	
459.69	6625.2	
459.9	7732.4	
460.1	7148.1	
460.3	5616.9	
460.5	5436	
460.7	7628.7	
460.9	7350.2	
461.1	5027.8	
461.3	6441.5	
461.5	8251.9	
461.7	7900.4	
461.9	5506.3	
462.1	5957.5	
462.3	7414.3	
462.5	8008.2	
462.7	5551.4	
462.9	5627.1	
463.1	9039.7	
463.3	8697	
463.5	5809.4	
463.7	6875.7	
463.9	7603.4	
464.1	7988.4	
464.3	5881.1	
464.5	6227.9	
464.7	8242.4	
464.9	7800	
465.1	7645.8	
465.3	6602.7	
465.5	8555.7	
465.7	8598.1	
465.9	6759	
466.1	6758.3	
466.3	8301.8	
466.5	8136.6	
466.7	7563.8	
466.9	6452.5	
467.1	8057.4	
467.3	9026.8	
467.5	7542.7	
467.7	6309.1	
467.9	9189.2	
468.1	10276	
468.3	7112.6	
468.5	7595.9	
468.7	8013	
468.9	8045.1	
469.1	6656.6	
469.3	7296.9	
469.5	10109	
469.7	7505.1	
469.9	7135.1	
470.1	6280.4	
470.3	8041	
470.5	8045.8	
470.7	7709.2	
470.9	6463.4	
471.1	7772.7	
471.3	8297.7	
471.5	6258.6	
471.69	8274.5	
471.89	7702.4	
472.09	7259.4	
472.29	7096.9	
472.49	7544.7	
472.69	7469.6	
472.89	8276.5	
473.09	6133.7	
473.29	6342.6	
473.49	7615.7	
473.69	7838.9	
473.89	7271.7	
474.09	6520.7	
474.29	9096.4	
474.49	8794.7	
474.69	7283.3	
474.89	6603.3	
475.09	7892.2	
475.29	7734.5	
475.49	6042.9	
475.69	6255.2	
475.88	9398.8	
476.08	8098.4	
476.28	5989.6	
476.48	6450.4	
476.68	8542.1	
476.88	8443.8	
477.08	6260.6	
477.28	6640.9	
477.48	7918.1	
477.68	8643.1	
477.88	6036	
478.08	6396.5	
478.28	8789.9	
478.48	8043.7	
478.67	6485.9	
478.87	5956.2	
479.07	8815.1	
479.27	8165.9	
479.47	6713.2	
479.67	6746	
479.87	8619.2	
480.07	9125.1	
480.27	5938.4	
480.47	7681.2	
480.67	8162.5	
480.87	8832.2	
481.06	6238.1	
481.26	7131	
481.46	8174.1	
481.66	8050.6	
481.86	6746	
482.06	7863.5	
482.26	7835.5	
482.46	8881.4	
482.66	6636.1	
482.86	6171.2	
483.05	8226.7	
483.25	7544.7	
483.45	9244.5	
483.65	6670.2	
483.85	7752.2	
484.05	8082.6	
484.25	7157.7	
484.45	7606.2	
484.65	9025.4	
484.84	9078	
485.04	6589.7	
485.24	6534.4	
485.44	9312.8	
485.64	7520.8	
485.84	5769.1	
486.04	7419.8	
486.24	7903.1	
486.44	8338	
486.63	5812.8	
486.83	6688	
487.03	7759.8	
487.23	8015.7	
487.43	5896.1	
487.63	8464.3	
487.83	8073.8	
488.02	9004.2	
488.22	6954.2	
488.42	7616.4	
488.62	9050	
488.82	7760.4	
489.02	6606.1	
489.22	6591	
489.41	8862.2	
489.61	8486.8	
489.81	6308.4	
490.01	6326.2	
490.21	8751	
490.41	9435.7	
490.61	6112.5	
490.8	6485.2	
491	8260.1	
491.2	7503.8	
491.4	7072.3	
491.6	6105.7	
491.8	8177.5	
491.99	8447.9	
492.19	5966.4	
492.39	6363.7	
492.59	8751.7	
492.79	8834.9	
492.99	7286	
493.18	6268.1	
493.38	8938	
493.58	9781.8	
493.78	7058.7	
493.98	6589	
494.18	8572.8	
494.37	7894.2	
494.57	7223.2	
494.77	7230	
494.97	8853.4	
495.17	9165.3	
495.37	6655.9	
495.56	7012.9	
495.76	9254.8	
495.96	8852.7	
496.16	7927	
496.36	6833.4	
496.55	9040.4	
496.75	8538	
496.95	7218.4	
497.15	7090.8	
497.35	8969.4	
497.54	9030.2	
497.74	6903.7	
497.94	8714.1	
498.14	9710.1	
498.34	9533.3	
498.53	6479.8	
498.73	7498.3	
498.93	8273.1	
499.13	9016.5	
499.33	7197.9	
499.52	7811	
499.72	8897.7	
499.92	9357.2	
500.12	6897.6	
500.32	7204.8	
500.51	9210.4	
500.71	9034.3	
500.91	8017.8	
501.11	7572	
501.31	9062.9	
501.5	9646.6	
501.7	8363.2	
501.9	7180.9	
502.1	8897.7	
502.29	9262.3	
502.49	7674.4	
502.69	8142	
502.89	9217.9	
503.09	9144.2	
503.28	6707.1	
503.48	6805.4	
503.68	8331.8	
503.88	8430.1	
504.07	7811	
504.27	7233.4	
504.47	8725	
504.67	8990.6	
504.86	7712.7	
505.06	7418.4	
505.26	8460.8	
505.46	10325	
505.65	7288.7	
505.85	7511.3	
506.05	8397.4	
506.25	8906.6	
506.44	6621.1	
506.64	7591.1	
506.84	8338.6	
507.04	9308	
507.23	6845.7	
507.43	7480.5	
507.63	10598	
507.83	8602.8	
508.02	7486	
508.22	7073	
508.42	10740	
508.62	8393.3	
508.81	7329	
509.01	7965.9	
509.21	8215.8	
509.4	8544.8	
509.6	7469.6	
509.8	6965.1	
510	8518.2	
510.19	10043	
510.39	6861.4	
510.59	6978.1	
510.79	8204.8	
510.98	9828.9	
511.18	6936.5	
511.38	7157.7	
511.57	9223.4	
511.77	9117.6	
511.97	7811.6	
512.17	6758.3	
512.36	9271.2	
512.56	9172.9	
512.76	6869.6	
512.95	6593.1	
513.15	9331.2	
513.35	7791.2	
513.55	7737.2	
513.74	6928.3	
513.94	9304.6	
514.14	8495.7	
514.33	7980.3	
514.53	7658	
514.73	8507.9	
514.92	8740	
515.12	7101	
515.32	6892.8	
515.51	8847.2	
515.71	9441.1	
515.91	8653.4	
516.11	6984.3	
516.3	10643	
516.5	8468.4	
516.7	7626	
516.89	8154.3	
517.09	8559.1	
517.29	8449.2	
517.48	7827.3	
517.68	7221.1	
517.88	8268.3	
518.07	8977.6	
518.27	7761.8	
518.47	6783.6	
518.66	9665.7	
518.86	8093.6	
519.06	6605.4	
519.25	7154.9	
519.45	8471.8	
519.65	9992	
519.84	7793.2	
520.04	8553	
520.24	10451	
520.43	9213.8	
520.63	7434.8	
520.83	7164.5	
521.02	8342.1	
521.22	9020.6	
521.42	7738.6	
521.61	8330.5	
521.81	8637	
522.01	8805.6	
522.2	7531.1	
522.4	7391.8	
522.6	9226.8	
522.79	8015.7	
522.99	7468.9	
523.18	6658.6	
523.38	9084.1	
523.58	8918.2	
523.77	8781.7	
523.97	6733.7	
524.17	11003	
524.36	10105	
524.56	8185	
524.76	7813.7	
524.95	9045.9	
525.15	8611	
525.34	7532.4	
525.54	7591.8	
525.74	9408.4	
525.93	8340.7	
526.13	8900.5	
526.33	7473.7	
526.52	9789.3	
526.72	9186.5	
526.91	8938.7	
527.11	8077.9	
527.31	9804.3	
527.5	10237	
527.7	8046.5	
527.89	6933.7	
528.09	8651.3	
528.29	9263.6	
528.48	8460.2	
528.68	8084	
528.87	9641.8	
529.07	9692.4	
529.27	7959.1	
529.46	7393.8	
529.66	9219.3	
529.85	9787.9	
530.05	7235.5	
530.25	8151.6	
530.44	10813	
530.64	9073.2	
530.83	7684.7	
531.03	7936.6	
531.23	9688.9	
531.42	9648.7	
531.62	8834.9	
531.81	7873.8	
532.01	9856.2	
532.21	10426	
532.4	7715.4	
532.6	8031.5	
532.79	10840	
532.99	9899.9	
533.18	8060.1	
533.38	9207	
533.58	9464.3	
533.77	10341	
533.97	7996	
534.16	8860.9	
534.36	10425	
534.55	9482.1	
534.75	9112.8	
534.95	8197.3	
535.14	10290	
535.34	9389.3	
535.53	7722.9	
535.73	9849.4	
535.92	11024	
536.12	9637.7	
536.31	7911.3	
536.51	9009.7	
536.71	9942.9	
536.9	9561.3	
537.1	8008.9	
537.29	8224.6	
537.49	10434	
537.68	9308	
537.88	8544.8	
538.07	7793.9	
538.27	9669.1	
538.46	10700	
538.66	7599.3	
538.86	8092.2	
539.05	9710.8	
539.25	10176	
539.44	8487.5	
539.64	8017.8	
539.83	9532.6	
540.03	10643	
540.22	7946.8	
540.42	7983	
540.61	9717.6	
540.81	9890.3	
541	8552.3	
541.2	9192	
541.39	9333.3	
541.59	9730.6	
541.78	8804.2	
541.98	7820.5	
542.18	9029.5	
542.37	9019.3	
542.57	8249.2	
542.76	8838.4	
542.96	9058.8	
543.15	9885.5	
543.35	8308.6	
543.54	7636.2	
543.74	10135	
543.93	9695.8	
544.13	8294.3	
544.32	9488.2	
544.52	10068	
544.71	9174.9	
544.91	7321.5	
545.1	8658.8	
545.3	9231.6	
545.49	9978.4	
545.69	7187	
545.88	7935.9	
546.08	10895	
546.27	10544	
546.47	8448.6	
546.66	7664.2	
546.86	10132	
547.05	10783	
547.24	7886	
547.44	7808.2	
547.63	9066.4	
547.83	10289	
548.02	8143.4	
548.22	8447.2	
548.41	8844.5	
548.61	10251	
548.8	7752.2	
549	7646.4	
549.19	9594.7	
549.39	9955.2	
549.58	7416.4	
549.78	8062.9	
549.97	10019	
550.17	9519	
550.36	8895.7	
550.55	10027	
550.75	9333.3	
550.94	10381	
551.14	7684	
551.33	8000	
551.53	8749.6	
551.72	9837.1	
551.92	8041	
552.11	7794.6	
552.31	9767.4	
552.5	9913.5	
552.69	9584.5	
552.89	7515.4	
553.08	9815.9	
553.28	9453.4	
553.47	7879.2	
553.67	9004.9	
553.86	10514	
554.06	8707.3	
554.25	6970.6	
554.44	7571.3	
554.64	11320	
554.83	10745	
555.03	7524.2	
555.22	8092.9	
555.42	9934.7	
555.61	9697.8	
555.8	7766.6	
556	8163.2	
556.19	8712.7	
556.39	10009	
556.58	7829.4	
556.78	7812.3	
556.97	9580.4	
557.16	9280	
557.36	9202.2	
557.55	7408.2	
557.75	8393.3	
557.94	10373	
558.13	7546.1	
558.33	7391.8	
558.52	10132	
558.72	8994	
558.91	7432.8	
559.1	7742.7	
559.3	8626	
559.49	8395.3	
559.69	6932.4	
559.88	8118.1	
560.07	9503.9	
560.27	9995.5	
560.46	8248.5	
560.66	8468.4	
560.85	9354.4	
561.04	8587.8	
561.24	7441	
561.43	7646.4	
561.63	8770.8	
561.82	8965.3	
562.01	9001.5	
562.21	7952.9	
562.4	9451.4	
562.59	10454	
562.79	7786.4	
562.98	7467.6	
563.18	9515.5	
563.37	10931	
563.56	8361.2	
563.76	7300.3	
563.95	8785.1	
564.14	8729.8	
564.34	7807.5	
564.53	7511.3	
564.73	9377	
564.92	9772.9	
565.11	7859.4	
565.31	7247.1	
565.5	10002	
565.69	8916.9	
565.89	7474.4	
566.08	7789.1	
566.27	9918.3	
566.47	10335	
566.66	8454.7	
566.85	7123.5	
567.05	9476.6	
567.24	8761.9	
567.44	7350.8	
567.63	8873.2	
567.82	9627.5	
568.02	9409.7	
568.21	7372	
568.4	7819.8	
568.6	9269.1	
568.79	9312.8	
568.98	7165.8	
569.18	7476.5	
569.37	9266.4	
569.56	11418	
569.76	7885.4	
569.95	8813.1	
570.14	9684.8	
570.34	9657.5	
570.53	7231.4	
570.72	7239.6	
570.91	10159	
571.11	9217.9	
571.3	7789.8	
571.49	8798.8	
571.69	9215.2	
571.88	8848.6	
572.07	8350.9	
572.27	8402.1	
572.46	8831.5	
572.65	9946.3	
572.85	7447.1	
573.04	7978.2	
573.23	10133	
573.43	9325.1	
573.62	7268.2	
573.81	8039	
574	9377.6	
574.2	9184.5	
574.39	7628	
574.58	7886	
574.78	10286	
574.97	9439.8	
575.16	8264.2	
575.36	8501.1	
575.55	9855.5	
575.74	10006	
575.93	7283.3	
576.13	8313.4	
576.32	9219.3	
576.51	9844.6	
576.71	7684.7	
576.9	9213.8	
577.09	10243	
577.28	9669.1	
577.48	8284.7	
577.67	7210.2	
577.86	9311.4	
578.05	9621.4	
578.25	7893.6	
578.44	8075.1	
578.63	9426.8	
578.83	10706	
579.02	7279.8	
579.21	8868.4	
579.4	9584.5	
579.6	9379	
579.79	8005.5	
579.98	10451	
580.17	10049	
580.37	10150	
580.56	7551.5	
580.75	8258.8	
580.94	10538	
581.14	10335	
581.33	8743.5	
581.52	7656.7	
581.71	9839.8	
581.91	10662	
582.1	7257.3	
582.29	7959.8	
582.48	9454.8	
582.68	9423.4	
582.87	8426.7	
583.06	8118.1	
583.25	9818	
583.45	9097.1	
583.64	8723	
583.83	9467.8	
584.02	9298.5	
584.21	9748.3	
584.41	8703.9	
584.6	7956.4	
584.79	9548.3	
584.98	10337	
585.18	7457.3	
585.37	7411.6	
585.56	9087.5	
585.75	9779.1	
585.94	7688.1	
586.14	8314.8	
586.33	10453	
586.52	9410.4	
586.71	8129.1	
586.91	7901.7	
587.1	8821.3	
587.29	9879.4	
587.48	7853.3	
587.67	7684.7	
587.87	9729.9	
588.06	9807.7	
588.25	9047.9	
588.44	8372.1	
588.63	9413.8	
588.83	9835	
589.02	7740.6	
589.21	7665.5	
589.4	9168.8	
589.59	8904.6	
589.78	6836.1	
589.98	7178.1	
590.17	8484.1	
590.36	9140.8	
590.55	6358.3	
590.74	7423.9	
590.94	10666	
591.13	9049.3	
591.32	7092.1	
591.51	6665.5	
591.7	9650	
591.89	9012.4	
592.09	6787.7	
592.28	7293.5	
592.47	8189.8	
592.66	10285	
592.85	6761	
593.05	6991.1	
593.24	8798.1	
593.43	9710.8	
593.62	6997.9	
593.81	7651.9	
594	8864.3	
594.19	9159.9	
594.39	6888.7	
594.58	6914.6	
594.77	9317.6	
594.96	9857.6	
595.15	6901.7	
595.34	7551.5	
595.54	9323	
595.73	8225.3	
595.92	6250.4	
596.11	7496.2	
596.3	9704	
596.49	8312.7	
596.68	7331	
596.88	7723.6	
597.07	9568.8	
597.26	8202.1	
597.45	6708.5	
597.64	8003.5	
597.83	8404.2	
598.02	9189.2	
598.22	6809.5	
598.41	7556.3	
598.6	8852.7	
598.79	8262.9	
598.98	6817	
599.17	7905.2	
599.36	8903.2	
599.55	10205	
599.74	9088.2	
599.94	8844.5	
600.13	9479.4	
600.32	8295.6	
600.51	6603.3	
600.7	6719.4	
600.89	10257	
601.08	10241	
601.27	6509.1	
601.47	7561.8	
601.66	9426.8	
601.85	10206	
602.04	7182.2	
602.23	7488.7	
602.42	8445.1	
602.61	9110.7	
602.8	7189.1	
602.99	6888.7	
603.18	8818.6	
603.37	9045.2	
603.57	7608.9	
603.76	8174.1	
603.95	9846.6	
604.14	9310.7	
604.33	6942.6	
604.52	7370.6	
604.71	8996.7	
604.9	8585.8	
605.09	8017.8	
605.28	7807.5	
605.47	9631.6	
605.66	9293.7	
605.86	7581.6	
606.05	6916	
606.24	9546.9	
606.43	8126.3	
606.62	7346.1	
606.81	8174.1	
607	9426.8	
607.19	8770.1	
607.38	6703.7	
607.57	6988.4	
607.76	8506.6	
607.95	7957	
608.14	7385.7	
608.33	8058.8	
608.52	8461.5	
608.72	9519	
608.91	6686.6	
609.1	6491.4	
609.29	8699.8	
609.48	8074.5	
609.67	7641	
609.86	6617	
610.05	8130.4	
610.24	8533.2	
610.43	6456.6	
610.62	6137.1	
610.81	9681.4	
611	9409.1	
611.19	6579.4	
611.38	7322.2	
611.57	8923.7	
611.76	10297	
611.95	6408.1	
612.14	6272.9	
612.33	8598.7	
612.52	8121.6	
612.71	7066.2	
612.9	6075.6	
613.09	7728.4	
613.28	10244	
613.47	6685.3	
613.66	7725.6	
613.85	8798.1	
614.04	8290.2	
614.24	6745.3	
614.43	5919.3	
614.62	8860.9	
614.81	8778.3	
615	7409.6	
615.19	7447.8	
615.38	8112	
615.57	8515.5	
615.76	7183.6	
615.95	8231.5	
616.14	8982.4	
616.33	8568.7	
616.52	7654.6	
616.71	7762.5	
616.9	8884.1	
617.09	8743.5	
617.28	6831.3	
617.47	8452	
617.66	7952.3	
617.85	7995.3	
618.04	7819.1	
618.22	7204.1	
618.41	8342.1	
618.6	9254.1	
618.79	7152.9	
618.98	6802	
619.17	9680.1	
619.36	7868.3	
619.55	6956.3	
619.74	7009.5	
619.93	8803.5	
620.12	8333.2	
620.31	7567.9	
620.5	7746.8	
620.69	9848	
620.88	9843.9	
621.07	8539.3	
621.26	7557.7	
621.45	8955.8	
621.64	9011.1	
621.83	7599.3	
622.02	6698.9	
622.21	9100.5	
622.4	8789.9	
622.59	8185.7	
622.78	7950.9	
622.97	8362.5	
623.16	9390.6	
623.35	7527.7	
623.54	6662.7	
623.72	8685.4	
623.91	8737.3	
624.1	7790.5	
624.29	6358.3	
624.48	9963.4	
624.67	9101.2	
624.86	7735.9	
625.05	6662.7	
625.24	9960	
625.43	8257.4	
625.62	9587.2	
625.81	6902.3	
626	9369.5	
626.19	8676.6	
626.38	7800.7	
626.56	7092.8	
626.75	8401.5	
626.94	8994.7	
627.13	7722.9	
627.32	6341.9	
627.51	9241.1	
627.7	10516	
627.89	6543.3	
628.08	7692.2	
628.27	8254	
628.46	8547.5	
628.65	6866.8	
628.83	6520.7	
629.02	9133.3	
629.21	8409.6	
629.4	7253.2	
629.59	7517.4	
629.78	8216.5	
629.97	9409.1	
630.16	7641	
630.35	6978.8	
630.54	9797.5	
630.72	9482.8	
630.91	6965.1	
631.1	7662.1	
631.29	8851.3	
631.48	9076.6	
631.67	7716.7	
631.86	7189.1	
632.05	8353	
632.24	8551.6	
632.42	6696.2	
632.61	7385.7	
632.8	8671.1	
632.99	8267	
633.18	7410.2	
633.37	7820.5	
633.56	8810.4	
633.75	8742.1	
633.93	7339.2	
634.12	7033.4	
634.31	9795.4	
634.5	9330.5	
634.69	7053.2	
634.88	7561.8	
635.07	8594	
635.25	9296.4	
635.44	8039	
635.63	8238.3	
635.82	8520.2	
636.01	8008.9	
636.2	7966.6	
636.39	7524.2	
636.57	9759.3	
636.76	9375.6	
636.95	6809.5	
637.14	8343.4	
637.33	8862.2	
637.52	10012	
637.7	6603.3	
637.89	7608.2	
638.08	8418.5	
638.27	10063	
638.46	7644.4	
638.65	8196	
638.83	10011	
639.02	8325	
639.21	7598.6	
639.4	8107.2	
639.59	8834.9	
639.78	8373.5	
639.96	6917.4	
640.15	6892.8	
640.34	8637.6	
640.53	8871.1	
640.72	6572.6	
640.91	6887.3	
641.09	8035.5	
641.28	9497.8	
641.47	6923.5	
641.66	7753.6	
641.85	8666.3	
642.03	9099.1	
642.22	7550.2	
642.41	6946	
642.6	8181.6	
642.79	7507.9	
642.97	6793.1	
643.16	7544	
643.35	8123.6	
643.54	7942.7	
643.73	6612.2	
643.91	7563.8	
644.1	7800.7	
644.29	8430.1	
644.48	6726.2	
644.67	6912.6	
644.85	7995.3	
645.04	8355.7	
645.23	6279.1	
645.42	6558.3	
645.6	7857.4	
645.79	9039.1	
645.98	6579.4	
646.17	5589.6	
646.36	7501.7	
646.54	8251.9	
646.73	7454.6	
646.92	6208.1	
647.11	7782.3	
647.29	8944.8	
647.48	6299.6	
647.67	6003.3	
647.86	9164.7	
648.05	9239.8	
648.23	6661.4	
648.42	7950.9	
648.61	8519.6	
648.8	8225.3	
648.98	6217.6	
649.17	6623.8	
649.36	7745.4	
649.55	7276.4	
649.73	6249	
649.92	7092.8	
650.11	7636.9	
650.3	7991.9	
650.48	6410.8	
650.67	6236.1	
650.86	8355	
651.05	7193.8	
651.23	6367.8	
651.42	6397.2	
651.61	7716.7	
651.79	7961.1	
651.98	6522.1	
652.17	6180.8	
652.36	8245.1	
652.54	7286.7	
652.73	6286.6	
652.92	6043.6	
653.11	8253.3	
653.29	8217.1	
653.48	5427.8	
653.67	6552.1	
653.85	7985	
654.04	9046.6	
654.23	6734.4	
654.42	6158.2	
654.6	7458	
654.79	8201.4	
654.98	5748.6	
655.16	6262	
655.35	7060.7	
655.54	7042.3	
655.73	5776.6	
655.91	5743.2	
656.1	8186.4	
656.29	7033.4	
656.47	5271.5	
656.66	7131.7	
656.85	7290.8	
657.03	7388.4	
657.22	5893.4	
657.41	5913.9	
657.59	7441.6	
657.78	7222.5	
657.97	5540.4	
658.16	6369.9	
658.34	8135.2	
658.53	8568.7	
658.72	7290.1	
658.9	7803.4	
659.09	7471	
659.28	7640.3	
659.46	6068.8	
659.65	5984.8	
659.84	7310.6	
660.02	7838.3	
660.21	5849.7	
660.4	5814.2	
660.58	8268.3	
660.77	7623.2	
660.96	6457.2	
661.14	5448.3	
661.33	8856.1	
661.52	8738	
661.7	5445.5	
661.89	9363.3	
662.08	7196.6	
662.26	6830.7	
662.45	5708.4	
662.64	5849	
662.82	7978.2	
663.01	7094.8	
663.2	5816.9	
663.38	6677.7	
663.57	7849.9	
663.75	7710.6	
663.94	6172.6	
664.13	7546.8	
664.31	7173.4	
664.5	7962.5	
664.69	6340.5	
664.87	7047.7	
665.06	6967.9	
665.25	7806.2	
665.43	7331.7	
665.62	7382.2	
665.8	7976.8	
665.99	7362.4	
666.18	6208.8	
666.36	6275	
666.55	7990.5	
666.74	7843	
666.92	5790.3	
667.11	7596.6	
667.29	7291.5	
667.48	8013	
667.67	7116	
667.85	6222.4	
668.04	7380.2	
668.22	7397.3	
668.41	6301.6	
668.6	6424.5	
668.78	7172.7	
668.97	7400.7	
669.15	6617.7	
669.34	5556.8	
669.53	7176.1	
669.71	7525.6	
669.9	5698.8	
670.08	6392.4	
670.27	7114.6	
670.46	7672.4	
670.64	6657.3	
670.83	6924.2	
671.01	7073.7	
671.2	7783	
671.38	5829.9	
671.57	5691.3	
671.76	8353.7	
671.94	8942.8	
672.13	5641.5	
672.31	6854.6	
672.5	7920.2	
672.69	7146	
672.87	5750	
673.06	6121.4	
673.24	7649.2	
673.43	7253.2	
673.61	6553.5	
673.8	6044.9	
673.98	7878.5	
674.17	8030.8	
674.36	6698.2	
674.54	6590.4	
674.73	7693.5	
674.91	7881.3	
675.1	6236.7	
675.28	5863.3	
675.47	7438.2	
675.65	8066.3	
675.84	6078.4	
676.03	6481.1	
676.21	7190.4	
676.4	6675.7	
676.58	6967.2	
676.77	6675	
676.95	8692.9	
677.14	7121.5	
677.32	5732.3	
677.51	5582.1	
677.69	7917.4	
677.88	6770.6	
678.06	5616.9	
678.25	5715.9	
678.44	7459.4	
678.62	7143.3	
678.81	5481	
678.99	6436.8	
679.18	8308.6	
679.36	7912.7	
679.55	6032.6	
679.73	6713.2	
679.92	7819.8	
680.1	7169.3	
680.29	7352.9	
680.47	6066.1	
680.66	7153.6	
680.84	8099.7	
681.03	5324	
681.21	6493.4	
681.4	7207.5	
681.58	7064.1	
681.77	5826.5	
681.95	5769.8	
682.14	8039	
682.32	8451.3	
682.51	6740.5	
682.69	5567.1	
682.88	7101	
683.06	7836.2	
683.25	6384.2	
683.43	6954.2	
683.62	7373.4	
683.8	7881.9	
683.99	7066.9	
684.17	6311.2	
684.36	8779.6	
684.54	7299.6	
684.73	5367	
684.91	5664	
685.1	7606.2	
685.28	7036.8	
685.46	6192.4	
685.65	6314.6	
685.83	7871	
686.02	7228	
686.2	5685.2	
686.39	5849.7	
686.57	7103.7	
686.76	8570.1	
686.94	5762.3	
687.13	5922	
687.31	7765.2	
687.5	7247.8	
687.68	5236.7	
687.86	6632	
688.05	9084.8	
688.23	6682.5	
688.42	6759.7	
688.6	5840.8	
688.79	7153.6	
688.97	7143.3	
689.16	6209.4	
689.34	5087.8	
689.52	7901.7	
689.71	8186.4	
689.89	6594.5	
690.08	5747.3	
690.26	7354.3	
690.45	7291.5	
690.63	6687.3	
690.81	5900.2	
691	7074.4	
691.18	7125.6	
691.37	6138.4	
691.55	8420.6	
691.74	7014.3	
691.92	9174.2	
692.1	6081.8	
692.29	5494	
692.47	7292.1	
692.66	6474.3	
692.84	5730.9	
693.02	6376.7	
693.21	6703.7	
693.39	7205.4	
693.58	6371.2	
693.76	5840.1	
693.94	8456.1	
694.13	8238.3	
694.31	5784.1	
694.5	6917.4	
694.68	7045	
694.86	7350.8	
695.05	6179.4	
695.23	6367.8	
695.42	7855.3	
695.6	10291	
695.78	6858.6	
695.97	5883.1	
696.15	7817.1	
696.34	7174.7	
696.52	5675.6	
696.7	6518	
696.89	7570.7	
697.07	6965.8	
697.25	6418.3	
697.44	8141.4	
697.62	7527	
697.81	7929.7	
697.99	6122.1	
698.17	6652.5	
698.36	6826.6	
698.54	7550.9	
698.72	6498.9	
698.91	5338.4	
699.09	7156.3	
699.28	7040.2	
699.46	6151.4	
699.64	6002.6	
699.83	6890.7	
700.01	8318.8	
700.19	6797.9	
700.38	5158.2	
700.56	8243.1	
700.74	7014.3	
700.93	5627.8	
701.11	6500.9	
701.29	7732.4	
701.48	8785.8	
701.66	5889.3	
701.84	5951.4	
702.03	7182.2	
702.21	7861.5	
702.39	5423	
702.58	5962.3	
702.76	7646.4	
702.94	7812.3	
703.13	5481.7	
703.31	8054.7	
703.49	6809.5	
703.68	8443.1	
703.86	5670.1	
704.04	6707.1	
704.23	7436.2	
704.41	7907.2	
704.59	5832.6	
704.78	7123.5	
704.96	8632.2	
705.14	7924.3	
705.33	5574.6	
705.51	6445.6	
705.69	7345.4	
705.87	8193.2	
706.06	6787	
706.24	5505.6	
706.42	7617.8	
706.61	7888.8	
706.79	6856.6	
706.97	5634.6	
707.16	7023.9	
707.34	7680.6	
707.52	6789	
707.7	5870.2	
707.89	7156.3	
708.07	6841.6	
708.25	6766.5	
708.44	6989	
708.62	7129.7	
708.8	8316.1	
708.98	7035.5	
709.17	5844.9	
709.35	7656.7	
709.53	7571.3	
709.72	5518.6	
709.9	5777.3	
710.08	7827.3	
710.26	7876.5	
710.45	7318.8	
710.63	5943.9	
710.81	7496.2	
710.99	7546.1	
711.18	6638.8	
711.36	6160.3	
711.54	7328.3	
711.72	8066.9	
711.91	6158.9	
712.09	5521.3	
712.27	7457.3	
712.45	8168.7	
712.64	6503.7	
712.82	5318.6	
713	6892.8	
713.18	7067.5	
713.37	5504.3	
713.55	6801.3	
713.73	7980.9	
713.91	6463.4	
714.1	5956.9	
714.28	5356.8	
714.46	7538.6	
714.64	6787.7	
714.83	4725.3	
715.01	5547.9	
715.19	6769.2	
715.37	6176.7	
715.55	5307	
715.74	5649	
715.92	7795.3	
716.1	5711.1	
716.28	6813.6	
716.47	5792.3	
716.65	6400.6	
716.83	6574	
717.01	5619.6	
717.19	5696.8	
717.38	8720.3	
717.56	6186.9	
717.74	5922	
717.92	4960.9	
718.1	7430.7	
718.29	6675	
718.47	4620.9	
718.65	5396.4	
718.83	7435.5	
719.01	7276.4	
719.2	4551.3	
719.38	5712.5	
719.56	6969.9	
719.74	8729.8	
719.92	5190.9	
720.11	6350.1	
720.29	7071.6	
720.47	6160.3	
720.65	4764.3	
720.83	5613.5	
721.02	6549.4	
721.2	6233.3	
721.38	5760.3	
721.56	4881	
721.74	5781.4	
721.92	5903.6	
722.11	6237.4	
722.29	5929.6	
722.47	7296.9	
722.65	6391	
722.83	4939	
723.01	5934.3	
723.2	6539.8	
723.38	6740.5	
723.56	4366.3	
723.74	5557.5	
723.92	5965.1	
724.1	7189.1	
724.29	4876.9	
724.47	6161	
724.65	6019.7	
724.83	5879.7	
725.01	4700.8	
725.19	5716.6	
725.37	6030.6	
725.56	6124.8	
725.74	4602.5	
725.92	4846.2	
726.1	5986.2	
726.28	6258.6	
726.46	5297.4	
726.64	5033.2	
726.83	6212.2	
727.01	6577.4	
727.19	4638.6	
727.37	5543.9	
727.55	6402	
727.73	6953.5	
727.91	4567	
728.09	4392.9	
728.28	6940.6	
728.46	7633.5	
728.64	5636	
728.82	5534.3	
729	8135.2	
729.18	7319.4	
729.36	4693.9	
729.54	7215.7	
729.72	8413.7	
729.91	6528.2	
730.09	6819.7	
730.27	5483.1	
730.45	6400.6	
730.63	7161.7	
730.81	6164.4	
730.99	5048.2	
731.17	7645.8	
731.35	6184.2	
731.53	5609.4	
731.71	5154.1	
731.9	7375.4	
732.08	7585	
732.26	5548.6	
732.44	5147.9	
732.62	7678.5	
732.8	7161.1	
732.98	5942.5	
733.16	4890.5	
733.34	7105.8	
733.52	5827.8	
733.7	5446.2	
733.88	5803.3	
734.07	6996.5	
734.25	6700.3	
734.43	4887.8	
734.61	6629.3	
734.79	8260.1	
734.97	6542.6	
735.15	5038.7	
735.33	5429.2	
735.51	6967.9	
735.69	6543.3	
735.87	6690	
736.05	5651.7	
736.23	6770.6	
736.41	6507.1	
736.59	5511.1	
736.77	5582.8	
736.95	7223.9	
737.13	6692.8	
737.32	5126.7	
737.5	5253	
737.68	7739.3	
737.86	6472.3	
738.04	4833.9	
738.22	6947.4	
738.4	6298.9	
738.58	6630.6	
738.76	5675.6	
738.94	4458.4	
739.12	6421.7	
739.3	6257.2	
739.48	6201.2	
739.66	5936.4	
739.84	6740.5	
740.02	6713.9	
740.2	4558.1	
740.38	4961.5	
740.56	7133.1	
740.74	5978	
740.92	5668.1	
741.1	5597.1	
741.28	6445.6	
741.46	6455.9	
741.64	5183.4	
741.82	5695.4	
742	6557.6	
742.18	6486.6	
742.36	5367	
742.54	4948.6	
742.72	7145.4	
742.9	5786.2	
743.08	5816.9	
743.26	4499.4	
743.44	7324.9	
743.62	7206.1	
743.8	5945.9	
743.98	4938.3	
744.16	6842.3	
744.34	6584.2	
744.52	5860.6	
744.7	5815.5	
744.88	6989.7	
745.06	6571.9	
745.24	5883.8	
745.42	6060.6	
745.6	7129	
745.78	6823.1	
745.96	4649.6	
746.14	4920.6	
746.32	7899	
746.5	7162.4	
746.68	5585.5	
746.86	5076.9	
747.03	7583.6	
747.21	5735	
747.39	5543.9	
747.57	5050.3	
747.75	6685.9	
747.93	7079.1	
748.11	4959.5	
748.29	4868	
748.47	8371.4	
748.65	6382.2	
748.83	5795.8	
749.01	5546.6	
749.19	6918	
749.37	6001.9	
749.55	5293.3	
749.73	5360.2	
749.91	6571.2	
750.09	6193.7	
750.26	5496.1	
750.44	4882.4	
750.62	6573.3	
750.8	6546.7	
750.98	4646.2	
751.16	5020.9	
751.34	6564.4	
751.52	5906.3	
751.7	5840.8	
751.88	4599.1	
752.06	7125.6	
752.24	6916.7	
752.42	4600.4	
752.59	4901.5	
752.77	6494.8	
752.95	7806.9	
753.13	5755.5	
753.31	5065.3	
753.49	6173.9	
753.67	6714.6	
753.85	5387.5	
754.03	4917.2	
754.21	6892.1	
754.38	7339.2	
754.56	5132.2	
754.74	4111	
754.92	6122.7	
755.1	6909.8	
755.28	4226.3	
755.46	4176.5	
755.64	7647.8	
755.82	7813.7	
755.99	4460.5	
756.17	4605.9	
756.35	5080.3	
756.53	6818.4	
756.71	3405.8	
756.89	4372.4	
757.07	6380.8	
757.25	5383.4	
757.42	4936.3	
757.6	5907	
757.78	6402.6	
757.96	5300.1	
758.14	4666.6	
758.32	4160.1	
758.5	4904.9	
758.67	5846.3	
758.85	4453.6	
759.03	4698.7	
759.21	5969.1	
759.39	5336.3	
759.57	3972.4	
759.75	5374.6	
759.92	6644.3	
760.1	5819.6	
760.28	5634.6	
760.46	5941.8	
760.64	5582.1	
760.82	5347.9	
760.99	5503.6	
761.17	4618.2	
761.35	6494.1	
761.53	5402.5	
761.71	4737.6	
761.89	5486.5	
762.06	6348	
762.24	5853.1	
762.42	4775.9	
762.6	4557.4	
762.78	5869.5	
762.96	6561.7	
763.13	5243.5	
763.31	4898.1	
763.49	6797.9	
763.67	5726.8	
763.85	5778.7	
764.02	6461.3	
764.2	6994.5	
764.38	6084.5	
764.56	4676.2	
764.74	5676.3	
764.91	7206.8	
765.09	5910.4	
765.27	4337.6	
765.45	4176.5	
765.63	7091.4	
765.8	6990.4	
765.98	3804.4	
766.16	4227.7	
766.34	5461.2	
766.52	5197.1	
766.69	5281	
766.87	4087.1	
767.05	5930.9	
767.23	6713.9	
767.41	4420.2	
767.58	4709.6	
767.76	6561.7	
767.94	6601.3	
768.12	4499.4	
768.29	5339.7	
768.47	6001.2	
768.65	6776	
768.83	4097.3	
769	5360.2	
769.18	5493.3	
769.36	6279.1	
769.54	5397.8	
769.72	4113	
769.89	6541.9	
770.07	6734.4	
770.25	4506.9	
770.43	5815.5	
770.6	7325.6	
770.78	7875.8	
770.96	4721.3	
771.14	5356.8	
771.31	6515.3	
771.49	5796.4	
771.67	3779.2	
771.85	4138.9	
772.02	5001.8	
772.2	5788.2	
772.38	4829.8	
772.55	4315.8	
772.73	6097.5	
772.91	5855.8	
773.09	4766.3	
773.26	4833.9	
773.44	6023.8	
773.62	5690.6	
773.8	4128	
773.97	3930.7	
774.15	6092	
774.33	5657.2	
774.5	4123.2	
774.68	4498	
774.86	6287.3	
775.04	5739.1	
775.21	4212	
775.39	4136.9	
775.57	5974.6	
775.74	6455.9	
775.92	4042.7	
776.1	3885	
776.27	5972.6	
776.45	7328.3	
776.63	4173.8	
776.81	3639.2	
776.98	5586.9	
777.16	6773.3	
777.34	4363.5	
777.51	4323.3	
777.69	5602.6	
777.87	5393.7	
778.04	4380.6	
778.22	5027.1	
778.4	5362.3	
778.57	6137.8	
778.75	3583.9	
778.93	3909.6	
779.1	5194.3	
779.28	5066	
779.46	3596.2	
779.64	4141.7	
779.81	6309.1	
779.99	7229.3	
780.17	4992.3	
780.34	5202.5	
780.52	5599.8	
780.69	5856.5	
780.87	4565.6	
781.05	4079.6	
781.22	5731.6	
781.4	5801.2	
781.58	4185.4	
781.75	3300	
781.93	5780.7	
782.11	5156.1	
782.28	5151.3	
782.46	4123.9	
782.64	4951.3	
782.81	5937.7	
782.99	4248.2	
783.17	4219.5	
783.34	5889.3	
783.52	5027.8	
783.69	4523.3	
783.87	5362.9	
784.05	5151.3	
784.22	5159.5	
784.4	5385.5	
784.58	4556.7	
784.75	6170.5	
784.93	5141.8	
785.1	4126	
785.28	4891.2	
785.46	5884.5	
785.63	5086.5	
785.81	4183.3	
785.99	3982.6	
786.16	5330.9	
786.34	5786.2	
786.51	4039.3	
786.69	4502.1	
786.87	4909.7	
787.04	5495.4	
787.22	3937.6	
787.39	4940.4	
787.57	5137	
787.75	6349.4	
787.92	5074.2	
788.1	5083.1	
788.27	5207.3	
788.45	4942.4	
788.63	4704.2	
788.8	3352.5	
788.98	5740.5	
789.15	4855.1	
789.33	3513.6	
789.5	4246.8	
789.68	6143.2	
789.86	6312.5	
790.03	4693.9	
790.21	4070.7	
790.38	6122.7	
790.56	5252.4	
790.73	3904.1	
790.91	3956	
791.09	5190.9	
791.26	6033.3	
791.44	4130.1	
791.61	3559.4	
791.79	5105.6	
791.96	5218.9	
792.14	3695.2	
792.32	3231.7	
792.49	5156.1	
792.67	5229.1	
792.84	3787.4	
793.02	3549.1	
793.19	5565	
793.37	6423.1	
793.54	3264.5	
793.72	3709.6	
793.89	6591	
794.07	5216.9	
794.25	4276.2	
794.42	3407.1	
794.6	6265.4	
794.77	5900.9	
794.95	4648.2	
795.12	4059.8	
795.3	5157.5	
795.47	5793.7	
795.65	4440	
795.82	4308.2	
796	4937	
796.17	7073	
796.35	4093.9	
796.52	4868.7	
796.7	5761.6	
796.87	5863.3	
797.05	5041.4	
797.22	5070.8	
797.4	5784.1	
797.57	6932.4	
797.75	4249.5	
797.92	4023.6	
798.1	6167.8	
798.27	5256.5	
798.45	3376.4	
798.62	3664.5	
798.8	5470.8	
798.97	5990.3	
799.15	4469.4	
799.32	4278.2	
799.5	4685.8	
799.67	5625.8	
799.85	4604.5	
800.02	3297.9	
800.2	5089.2	
800.37	5593	
800.55	4807.9	
800.72	4032.5	
800.9	5946.6	
801.07	6456.6	
801.25	5384.8	
801.42	4382.7	
801.6	6042.9	
801.77	5777.3	
801.95	3952.6	
802.12	3952.6	
802.29	5664	
802.47	5700.9	
802.64	4345.8	
802.82	3241.9	
802.99	5043.5	
803.17	6269.5	
803.34	4268.6	
803.52	3773.7	
803.69	6869.6	
803.87	4901.5	
804.04	4184.7	
804.21	4297.3	
804.39	6299.6	
804.56	5347.9	
804.74	3580.5	
804.91	4463.9	
805.09	5219.6	
805.26	5276.9	
805.44	3647.4	
805.61	3994.9	
805.78	5860.6	
805.96	5913.2	
806.13	4355.3	
806.31	4768.4	
806.48	4650.3	
806.66	5283.8	
806.83	4371.7	
807	4326	
807.18	5119.2	
807.35	5556.8	
807.53	4059.8	
807.7	3398.9	
807.87	6423.1	
808.05	5253.7	
808.22	4747.9	
808.4	3401.7	
808.57	5223.7	
808.74	4803.9	
808.92	3878.9	
809.09	5033.9	
809.27	5025	
809.44	5728.9	
809.61	3451.5	
809.79	3854.3	
809.96	6417.7	
810.14	5978	
810.31	3293.1	
810.48	4128.7	
810.66	5350	
810.83	6174.6	
811.01	3876.8	
811.18	4377.9	
811.35	6004.6	
811.53	4616.1	
811.7	4771.1	
811.87	4497.3	
812.05	5231.2	
812.22	5120.6	
812.39	3758	
812.57	3685.7	
812.74	5188.9	
812.92	7064.8	
813.09	4107.5	
813.26	4543.1	
813.44	6649.8	
813.61	5151.3	
813.78	3404.4	
813.96	4653	
814.13	5232.6	
814.3	4859.8	
814.48	4970.4	
814.65	4149.2	
814.82	6503.7	
815	5039.4	
815.17	4176.5	
815.34	5170.4	
815.52	5150	
815.69	5099.4	
815.87	4243.4	
816.04	4130.1	
816.21	5242.8	
816.38	4595.6	
816.56	4065.9	
816.73	3807.9	
816.9	6632.7	
817.08	6081.8	
817.25	3836.5	
817.42	4900.1	
817.6	4712.4	
817.77	5242.8	
817.94	4311	
818.12	3762.1	
818.29	4950.6	
818.46	7879.9	
818.64	3934.1	
818.81	3698.6	
818.98	4817.5	
819.16	7156.3	
819.33	4536.9	
819.5	4233.8	
819.67	5601.2	
819.85	6300.2	
820.02	4118.5	
820.19	4433.9	
820.37	5473.5	
820.54	4989.5	
820.71	4371	
820.88	5403.9	
821.06	5472.2	
821.23	4942.4	
821.4	4351.3	
821.58	4278.2	
821.75	6010.1	
821.92	5351.3	
822.09	3461.7	
822.27	3521.8	
822.44	5222.3	
822.61	5100.1	
822.79	3474	
822.96	6711.2	
823.13	5756.2	
823.3	4941.1	
823.48	4115.7	
823.65	3570.3	
823.82	5948.7	
823.99	4714.4	
824.17	5150	
824.34	3654.9	
824.51	6931	
824.68	5261.9	
824.86	3833.1	
825.03	4373.1	
825.2	5225.7	
825.37	6350.1	
825.55	3791.5	
825.72	4216.1	
825.89	7025.2	
826.06	6438.8	
826.24	4120.5	
826.41	4166.9	
826.58	6326.9	
826.75	5503.6	
826.92	3288.4	
827.1	3577.8	
827.27	8764.6	
827.44	6997.9	
827.61	3910.3	
827.79	4806.6	
827.96	4903.5	
828.13	5313.8	
828.3	4078.2	
828.47	3469.3	
828.65	5459.9	
828.82	5367.7	
828.99	5397.8	
829.16	4639.3	
829.34	5930.2	
829.51	5591.6	
829.68	4249.5	
829.85	4461.2	
830.02	6137.1	
830.2	5853.1	
830.37	3267.2	
830.54	5200.5	
830.71	6735.8	
830.88	5193.6	
831.05	3335.5	
831.23	3818.1	
831.4	6320.7	
831.57	7255.3	
831.74	3958.7	
831.91	3489.1	
832.09	5425.1	
832.26	5836.7	
832.43	4117.8	
832.6	4601.1	
832.77	5481.7	
832.94	6279.8	
833.12	3224.2	
833.29	4049.5	
833.46	5667.4	
833.63	7499.7	
833.8	4475.5	
833.97	4121.2	
834.15	5877.7	
834.32	5644.2	
834.49	4193.6	
834.66	4345.8	
834.83	6087.2	
835	4977.9	
835.17	3931.4	
835.35	3969.6	
835.52	5821.7	
835.69	5684.5	
835.86	4205.8	
836.03	3398.9	
836.2	5769.8	
836.37	5397.1	
836.55	4083	
836.72	3837.9	
836.89	5347.9	
837.06	5998.5	
837.23	4194.9	
837.4	4584.7	
837.57	6704.4	
837.75	7507.9	
837.92	3693.9	
838.09	3973.7	
838.26	5353.4	
838.43	6113.2	
838.6	4288.4	
838.77	3812.6	
838.94	7046.4	
839.11	6750.8	
839.29	4083	
839.46	3208.5	
839.63	5823.1	
839.8	5569.1	
839.97	3985.3	
840.14	3935.5	
840.31	5564.3	
840.48	5808	
840.65	3238.5	
840.82	3885.7	
841	5829.9	
841.17	5747.3	
841.34	3667.9	
841.51	3679.5	
841.68	5734.3	
841.85	5426.4	
842.02	3793.5	
842.19	3103.4	
842.36	5515.9	
842.53	5547.3	
842.7	3593.5	
842.87	4507.6	
843.05	7397.9	
843.22	5494	
843.39	3402.4	
843.56	3818.1	
843.73	5246.2	
843.9	5848.3	
844.07	5886.5	
844.24	4968.4	
844.41	8718.2	
844.58	5067.4	
844.75	3496.6	
844.92	3867.2	
845.09	5829.2	
845.26	5773.9	
845.43	3630.4	
845.6	3826.3	
845.77	5887.2	
845.94	5498.8	
846.12	3993.5	
846.29	4255	
846.46	5969.1	
846.63	5822.4	
846.8	3599	
846.97	4308.2	
847.14	6258.6	
847.31	5768.4	
847.48	4097.3	
847.65	4545.1	
847.82	6137.1	
847.99	6068.1	
848.16	4872.8	
848.33	4426.3	
848.5	5416.2	
848.67	6365.1	
848.84	3616.7	
849.01	3799	
849.18	5199.8	
849.35	4883.7	
849.52	4536.9	
849.69	3569.6	
849.86	6062	
850.03	6206	
850.2	3631	
850.37	4465.3	
850.54	6233.3	
850.71	5470.1	
850.88	4367	
851.05	3580.5	
851.22	5664.7	
851.39	6469.5	
851.56	3409.2	
851.73	4216.1	
851.9	5107.6	
852.07	6092	
852.24	4058.4	
852.41	3621.5	
852.58	5663.3	
852.75	5177.3	
852.92	4134.2	
853.09	3552.5	
853.26	5423	
853.43	6322.1	
853.6	3635.1	
853.77	3108.1	
853.94	6377.4	
854.11	5756.2	
854.28	5390.3	
854.44	3895.2	
854.61	6825.9	
854.78	6174.6	
854.95	3583.9	
855.12	4629.1	
855.29	4660.5	
855.46	6531.7	
855.63	3593.5	
855.8	5075.5	
855.97	5320.6	
856.14	6199.2	
856.31	5176.6	
856.48	4010.6	
856.65	5302.9	
856.82	5056.4	
856.99	3519.1	
857.16	3943.7	
857.33	7138.5	
857.49	5479.7	
857.66	3921.9	
857.83	4276.8	
858	5427.1	
858.17	5655.1	
858.34	3451.5	
858.51	3575.8	
858.68	6576	
858.85	6615.6	
859.02	4210.6	
859.19	4446.8	
859.36	4998.4	
859.52	5134.9	
859.69	3666.5	
859.86	4278.9	
860.03	5186.1	
860.2	6397.2	
860.37	3304.7	
860.54	3702.7	
860.71	6039.5	
860.88	6506.4	
861.05	4058.4	
861.21	4624.3	
861.38	6609.5	
861.55	4976.6	
861.72	3290.4	
861.89	4060.4	
862.06	6097.5	
862.23	6750.1	
862.4	3485	
862.56	3824.9	
862.73	5876.3	
862.9	5641.5	
863.07	4301.4	
863.24	3264.5	
863.41	4981.3	
863.58	5144.5	
863.75	3689.8	
863.91	4206.5	
864.08	6486.6	
864.25	5982.8	
864.42	4569.7	
864.59	5102.2	
864.76	6860	
864.93	5086.5	
865.09	3535.5	
865.26	3793.5	
865.43	6333	
865.6	6796.5	
865.77	3125.2	
865.94	3585.3	
866.1	6432.7	
866.27	6176	
866.44	5459.9	
866.61	3390.1	
866.78	5546.6	
866.95	5938.4	
867.11	3519.1	
867.28	3195.5	
867.45	6169.2	
867.62	5198.4	
867.79	4193.6	
867.96	3596.2	
868.12	5094	
868.29	6145.3	
868.46	3617.4	
868.63	4891.9	
868.8	6317.3	
868.97	6092	
869.13	3758.7	
869.3	3790.8	
869.47	5932.3	
869.64	6140.5	
869.81	3658.4	
869.97	3666.5	
870.14	5827.2	
870.31	6570.6	
870.48	3558	
870.65	4626.4	
870.81	5407.3	
870.98	5407.3	
871.15	4129.4	
871.32	3819.5	
871.48	5890.6	
871.65	6595.8	
871.82	3554.6	
871.99	3990.8	
872.16	7030.7	
872.32	6510.5	
872.49	3646.1	
872.66	3693.9	
872.83	6057.9	
872.99	5278.3	
873.16	4135.5	
873.33	3573	
873.5	5706.3	
873.67	5734.3	
873.83	3790.8	
874	4914.4	
874.17	5785.5	
874.34	7000	
874.5	4721.9	
874.67	4544.4	
874.84	6479.8	
875.01	5079.6	
875.17	5104.9	
875.34	3605.1	
875.51	5707	
875.68	6959.7	
875.84	4382	
876.01	5336.3	
876.18	5997.8	
876.34	5948	
876.51	3627	
876.68	3572.3	
876.85	5476.3	
877.01	6308.4	
877.18	5210.7	
877.35	3585.3	
877.52	5539.8	
877.68	4978.6	
877.85	3588.7	
878.02	3545.7	
878.18	5606	
878.35	5254.4	
878.52	2882.9	
878.69	4050.9	
878.85	6084.5	
879.02	6005.3	
879.19	5154.1	
879.35	3850.9	
879.52	5999.9	
879.69	6276.3	
879.86	3050.1	
880.02	4072.7	
880.19	5586.9	
880.36	6905.1	
880.52	4203.1	
880.69	4274.1	
880.86	6193.1	
881.02	6171.9	
881.19	3978.5	
881.36	3984.7	
881.52	5959.6	
881.69	5289.2	
881.86	3889.8	
882.02	3850.9	
882.19	6309.1	
882.36	7419.1	
882.52	3710.2	
882.69	5115.1	
882.86	5786.9	
883.02	5665.4	
883.19	4417.5	
883.36	4228.4	
883.52	6184.2	
883.69	7002.7	
883.86	3681.6	
884.02	3246.7	
884.19	6164.4	
884.36	5608	
884.52	4053.6	
884.69	3813.3	
884.86	5358.9	
885.02	6722.1	
885.19	4085.7	
885.36	4140.3	
885.52	5598.5	
885.69	5774.6	
885.86	5304.2	
886.02	4663.2	
886.19	6094.8	
886.35	5525.4	
886.52	3980.6	
886.69	5092.6	
886.85	5157.5	
887.02	6547.4	
887.19	6547.4	
887.35	6547.4	
887.52	6547.4	
887.68	6547.4	
887.85	6547.4	
888.02	6547.4	
888.18	6547.4	
888.35	6547.4	
888.51	6547.4	
888.68	6547.4	
888.85	6547.4	
889.01	6547.4	
889.18	6547.4	
889.35	6547.4	
889.51	6547.4	
889.68	6547.4	
889.84	6547.4	
890.01	6547.4	
890.17	6547.4	
890.34	6547.4	
890.51	6547.4	
890.67	6547.4	
890.84	6547.4	
891	6547.4	
891.17	6547.4	
891.34	6547.4	
891.5	6547.4	
891.67	6547.4	
891.83	6547.4	
892	6547.4	
892.16	6547.4	
892.33	6547.4	
892.5	6547.4	
892.66	6547.4	
892.83	6547.4	
892.99	6547.4	
893.16	6547.4	
893.32	6547.4	
893.49	6547.4	
893.65	6547.4	
893.82	6547.4	
893.99	6547.4	
894.15	6547.4	
894.32	6547.4	
894.48	6547.4	
894.65	6547.4	
894.81	6547.4	
894.98	6547.4	
895.14	6547.4	
895.31	6547.4	
895.47	6547.4	
895.64	6547.4	
895.81	6547.4	
895.97	6547.4	
896.14	6547.4	
896.3	6547.4	
896.47	6547.4	
896.63	6547.4	
896.8	6547.4	
896.96	6547.4	
897.13	6547.4	
897.29	6547.4	
897.46	6547.4	
897.62	6547.4	
897.79	6547.4	
897.95	6547.4	
898.12	6547.4	
898.28	6547.4	
898.45	6547.4	
898.61	6547.4	
898.78	6547.4	
898.94	6547.4	
899.11	6547.4	
899.27	6547.4	
899.44	6547.4	
899.6	6547.4	
899.77	6547.4	
899.93	6547.4	
900.1	6547.4	
900.26	6547.4	
900.43	6547.4	
900.59	6547.4	
900.76	6547.4	
900.92	6547.4	
901.09	6547.4	
901.25	6547.4	
901.42	6547.4	
901.58	6547.4	
901.75	6547.4	
901.91	6547.4	
902.07	6547.4	
902.24	6547.4	
902.4	6547.4	
902.57	6547.4	
902.73	6547.4	
902.9	6547.4	
903.06	6547.4	
903.23	6547.4	
903.39	6547.4	
903.56	6547.4	
903.72	6547.4	
903.88	6547.4	
904.05	6547.4	
904.21	6547.4	
904.38	6547.4	
904.54	6547.4	
904.71	6547.4	
904.87	6547.4	
905.03	6547.4	
905.2	6547.4	
905.36	6547.4	
905.53	6547.4	
905.69	6547.4	
905.86	6547.4	
906.02	6547.4	
906.18	6547.4	
906.35	6547.4	
906.51	6547.4	
906.68	6547.4	
906.84	6547.4	
907.01	6547.4	
907.17	6547.4	
907.33	6547.4	
907.5	6547.4	
907.66	6547.4	
907.83	6547.4	
907.99	6547.4	
908.15	6547.4	
908.32	6547.4	
908.48	6547.4	
908.65	6547.4	
908.81	6547.4	
908.97	6547.4	
909.14	6547.4	
909.3	6547.4	
909.47	6547.4	
909.63	6547.4	
909.79	6547.4	
909.96	6547.4	
910.12	6547.4	
910.28	6547.4	
910.45	6547.4	
910.61	6547.4	
910.78	6547.4	
910.94	6547.4	
911.1	6547.4	
911.27	6547.4	
911.43	6547.4	
911.59	6547.4	
911.76	6547.4	
911.92	6547.4	
912.08	6547.4	
912.25	6547.4	
912.41	6547.4	
912.57	6547.4	
912.74	6547.4	
912.9	6547.4	
913.07	6547.4	
913.23	6547.4	
913.39	6547.4	
913.56	6547.4	
913.72	6547.4	
913.88	6547.4	
914.05	6547.4	
914.21	6547.4	
914.37	6547.4	
914.54	6547.4	
914.7	6547.4	
914.86	6547.4	
915.03	6547.4	
915.19	6547.4	
