Wavelength	Intensities	
nm	a.u.	
179.22	1949.3	
179.44	1946.9	
179.65	1951.7	
179.86	1942.2	
180.08	1941.5	
180.29	5061.9	
180.51	3536.8	
180.72	5664	
180.94	6693.4	
181.15	3334.8	
181.37	3213.3	
181.58	5560.9	
181.79	5912.5	
182.01	3420.8	
182.22	3698.6	
182.44	5845.6	
182.65	4883.7	
182.87	4627.7	
183.08	4103.4	
183.29	6143.9	
183.51	5079.6	
183.72	3760.8	
183.94	5406	
184.15	5477.6	
184.37	5561.6	
184.58	3267.9	
184.79	4517.1	
185.01	5086.5	
185.22	5819	
185.44	4812	
185.65	4022.2	
185.86	5394.3	
186.08	4941.7	
186.29	3163.4	
186.51	3433.1	
186.72	5119.2	
186.94	6011.5	
187.15	3987.4	
187.36	4131.4	
187.58	7858.7	
187.79	5603.2	
188.01	4253.6	
188.22	6781.5	
188.43	6642.9	
188.65	5831.2	
188.86	3448.1	
189.08	4133.5	
189.29	5311.1	
189.5	5311.1	
189.72	3785.3	
189.93	3923.9	
190.15	6075	
190.36	7322.9	
190.57	4228.4	
190.79	4076.8	
191	6186.9	
191.22	6137.8	
191.43	4225	
191.64	3435.8	
191.86	6333	
192.07	6120	
192.29	3611.3	
192.5	3863.2	
192.71	6106.4	
192.93	5180.7	
193.14	3759.4	
193.35	3850.2	
193.57	5188.9	
193.78	6057.9	
194	3049.4	
194.21	3730	
194.42	5069.4	
194.64	5514.5	
194.85	4126.7	
195.07	4908.3	
195.28	5588.2	
195.49	4764.3	
195.71	5085.1	
195.92	3554.6	
196.13	5685.8	
196.35	5843.5	
196.56	5435.3	
196.78	4106.2	
196.99	7168.6	
197.2	6725.5	
197.42	4731.5	
197.63	4158.7	
197.84	4880.3	
198.06	5768.4	
198.27	3807.9	
198.48	5103.5	
198.7	5256.5	
198.91	5386.8	
199.13	4164.2	
199.34	4160.1	
199.55	5963.7	
199.77	4741.7	
199.98	3623.5	
200.19	4247.5	
200.41	5324.7	
200.62	5079.6	
200.83	4335.5	
201.05	4653.7	
201.26	5382.7	
201.47	5119.2	
201.69	3633.1	
201.9	3524.6	
202.11	5521.3	
202.33	6554.9	
202.54	3889.8	
202.76	4429.8	
202.97	5619.6	
203.18	5600.5	
203.4	4329.4	
203.61	4287.1	
203.82	5514.5	
204.04	5125.4	
204.25	4188.1	
204.46	4076.1	
204.68	5478.3	
204.89	5758.9	
205.1	4077.5	
205.32	3545	
205.53	5893.4	
205.74	6087.9	
205.96	3007.1	
206.17	4283.7	
206.38	5880.4	
206.6	6029.2	
206.81	4783.4	
207.02	3848.1	
207.24	5732.9	
207.45	6202.6	
207.66	3973.7	
207.88	3383.2	
208.09	5717.2	
208.3	5552	
208.52	3685.7	
208.73	4004.5	
208.94	5522	
209.15	6210.1	
209.37	3927.3	
209.58	4191.5	
209.79	6027.2	
210.01	5270.1	
210.22	3156.6	
210.43	3261.7	
210.65	5507.7	
210.86	5936.4	
211.07	3900	
211.29	3611.9	
211.5	5840.8	
211.71	5467.4	
211.93	3609.9	
212.14	3615.3	
212.35	5386.8	
212.56	5720.7	
212.78	4154.6	
212.99	3444.7	
213.2	6524.8	
213.42	5214.8	
213.63	3745.7	
213.84	4063.9	
214.06	4862.6	
214.27	4943.1	
214.48	3914.4	
214.69	4227.7	
214.91	6225.8	
215.12	6262.7	
215.33	4317.8	
215.55	4778.6	
215.76	6843.6	
215.97	5840.1	
216.18	4104.1	
216.4	4018.8	
216.61	5188.9	
216.82	5950.7	
217.04	3655.6	
217.25	3818.8	
217.46	6156.2	
217.67	5919.3	
217.89	3279.5	
218.1	3360	
218.31	5559.6	
218.53	5742.5	
218.74	3830.4	
218.95	3693.2	
219.16	5482.4	
219.38	6453.8	
219.59	3734.8	
219.8	4399.7	
220.01	7122.2	
220.23	5527.5	
220.44	4911.7	
220.65	3609.9	
220.87	5537.7	
221.08	6184.9	
221.29	3349.8	
221.5	4443.4	
221.72	7576.8	
221.93	5215.5	
222.14	4157.4	
222.35	4987.5	
222.57	5468.1	
222.78	5857.9	
222.99	3975.8	
223.2	4254.3	
223.42	5790.3	
223.63	5952.1	
223.84	3067.2	
224.05	3051.5	
224.27	7105.8	
224.48	6440.9	
224.69	4953.4	
224.9	4192.2	
225.12	5783.5	
225.33	5456.5	
225.54	3343.7	
225.75	3723.2	
225.97	5046.9	
226.18	5338.4	
226.39	4081.6	
226.6	3764.8	
226.82	5279	
227.03	5137.7	
227.24	4173.8	
227.45	3438.5	
227.67	5852.4	
227.88	6496.2	
228.09	4633.2	
228.3	4714.4	
228.52	5944.6	
228.73	5504.3	
228.94	3880.9	
229.15	3484.3	
229.36	5415.5	
229.58	5341.1	
229.79	3866.6	
230	4530.8	
230.21	6556.9	
230.43	5642.8	
230.64	4091.2	
230.85	4306.9	
231.06	5851	
231.28	5899.5	
231.49	3472	
231.7	4063.2	
231.91	5872.2	
232.12	5545.2	
232.34	3520.5	
232.55	4024.3	
232.76	6186.9	
232.97	5705.6	
233.18	3586.7	
233.4	4096.6	
233.61	5717.2	
233.82	5233.2	
234.03	3818.8	
234.25	3738.9	
234.46	7653.3	
234.67	5500.2	
234.88	4211.3	
235.09	3699.3	
235.31	5894.7	
235.52	5378.6	
235.73	4091.8	
235.94	3459.7	
236.15	5228.5	
236.37	6703	
236.58	3675.4	
236.79	3961.5	
237	5821.7	
237.21	4985.4	
237.43	4259.8	
237.64	3340.2	
237.85	10202	
238.06	5103.5	
238.27	4410.6	
238.48	3492.5	
238.7	5924.1	
238.91	5337	
239.12	3985.3	
239.33	4008.6	
239.54	5074.9	
239.76	5418.2	
239.97	3947.1	
240.18	3955.3	
240.39	6898.9	
240.6	5840.8	
240.82	4109.6	
241.03	3301.3	
241.24	5495.4	
241.45	6360.3	
241.66	3630.4	
241.87	4292.5	
242.09	6247.7	
242.3	6675.7	
242.51	4375.1	
242.72	4030.4	
242.93	6017.6	
243.14	5445.5	
243.36	4642.7	
243.57	5023	
243.78	6355.5	
243.99	5925.5	
244.2	4014	
244.41	3622.2	
244.63	5091.3	
244.84	5877	
245.05	4262.5	
245.26	3981.9	
245.47	5811.5	
245.68	6092	
245.9	5381.4	
246.11	4238.6	
246.32	5345.9	
246.53	5787.6	
246.74	6526.2	
246.95	3355.3	
247.16	4986.1	
247.38	5547.9	
247.59	3324.5	
247.8	4016.1	
248.01	5171.8	
248.22	5401.2	
248.43	3648.1	
248.64	3887.7	
248.86	4846.9	
249.07	5251	
249.28	3501.3	
249.49	4108.9	
249.7	6019.7	
249.91	6238.8	
250.12	3340.2	
250.34	3363.4	
250.55	5654.4	
250.76	5529.5	
250.97	4160.8	
251.18	4229.7	
251.39	6256.5	
251.6	5771.9	
251.81	4235.9	
252.03	4192.2	
252.24	5177.9	
252.45	6077.7	
252.66	3462.4	
252.87	4400.4	
253.08	5498.8	
253.29	7350.8	
253.5	3467.9	
253.72	4846.2	
253.93	5396.4	
254.14	6571.9	
254.35	3880.2	
254.56	3893.2	
254.77	5741.8	
254.98	5118.6	
255.19	3758.7	
255.41	4878.9	
255.62	5596.4	
255.83	6180.8	
256.04	4302.8	
256.25	4230.4	
256.46	6819.7	
256.67	5186.8	
256.88	4138.9	
257.09	4577.2	
257.31	5134.9	
257.52	5233.2	
257.73	5103.5	
257.94	3797.6	
258.15	5345.9	
258.36	5507	
258.57	4848.9	
258.78	3009.1	
258.99	6051.1	
259.2	5364.3	
259.41	3862.5	
259.63	3892.5	
259.84	6403.3	
260.05	6879.1	
260.26	5103.5	
260.47	3743.7	
260.68	6141.9	
260.89	5457.8	
261.1	4658.4	
261.31	3674.7	
261.52	6036.7	
261.73	6553.5	
261.95	4894	
262.16	4294.6	
262.37	6269.5	
262.58	6355.5	
262.79	4903.5	
263	3901.4	
263.21	5442.8	
263.42	5007.3	
263.63	3913.7	
263.84	3833.8	
264.05	6083.1	
264.26	6497.5	
264.47	4820.2	
264.69	4304.8	
264.9	6236.1	
265.11	5662.6	
265.32	3670	
265.53	3833.8	
265.74	5628.5	
265.95	4945.8	
266.16	4059.1	
266.37	4536.3	
266.58	5631.9	
266.79	5383.4	
267	3790.1	
267.21	3520.5	
267.42	5085.8	
267.63	5512.4	
267.84	3951.9	
268.06	3413.3	
268.27	5966.4	
268.48	6323.4	
268.69	3918.4	
268.9	4639.3	
269.11	6216.3	
269.32	4973.2	
269.53	4020.2	
269.74	3696.6	
269.95	5898.8	
270.16	4849.6	
270.37	4018.8	
270.58	4631.8	
270.79	5337	
271	6068.1	
271.21	4317.8	
271.42	4067.9	
271.63	5627.8	
271.84	5162.9	
272.05	3167.5	
272.26	3530	
272.47	5559.6	
272.68	5749.3	
272.89	3845.4	
273.11	4506.9	
273.32	5350.7	
273.53	6485.2	
273.74	4319.2	
273.95	4273.4	
274.16	6153.5	
274.37	5591.6	
274.58	4388.8	
274.79	3526.6	
275	5612.1	
275.21	6288.6	
275.42	5255.1	
275.63	4518.5	
275.84	5774.6	
276.05	7268.9	
276.26	4234.5	
276.47	3997.6	
276.68	5335	
276.89	6573.3	
277.1	4511	
277.31	3492.5	
277.52	5806.7	
277.73	5983.5	
277.94	3500	
278.15	3819.5	
278.36	5724.8	
278.57	5171.8	
278.78	3806.5	
278.99	4318.5	
279.2	5167	
279.41	5102.2	
279.62	5046.2	
279.83	3547.1	
280.04	6760.3	
280.25	4996.4	
280.46	5016.2	
280.67	4029.7	
280.88	5094.7	
281.09	6229.2	
281.3	4239.3	
281.51	5342.5	
281.72	5300.1	
281.93	6068.1	
282.14	3758.7	
282.35	4054.3	
282.56	6014.9	
282.77	5995.8	
282.98	3894.6	
283.19	4767	
283.4	7451.2	
283.61	5488.6	
283.82	3448.8	
284.03	4935.6	
284.24	5610.1	
284.45	6227.9	
284.66	5036.6	
284.87	4775.2	
285.08	6064	
285.29	6287.9	
285.5	3396.2	
285.71	3935.5	
285.92	6181.5	
286.12	6916	
286.33	4934.2	
286.54	3867.9	
286.75	6012.8	
286.96	5421.7	
287.17	3597.6	
287.38	4879.6	
287.59	5091.9	
287.8	5085.1	
288.01	3974.4	
288.22	4572.4	
288.43	6045.6	
288.64	5031.2	
288.85	4663.2	
289.06	4483	
289.27	5971.9	
289.48	6523.5	
289.69	4942.4	
289.9	4465.3	
290.11	6173.3	
290.32	5227.8	
290.53	4718.5	
290.74	4396.3	
290.94	5946.6	
291.15	6019.7	
291.36	3792.8	
291.57	4517.1	
291.78	5244.2	
291.99	4903.5	
292.2	3599.6	
292.41	4397	
292.62	6134.3	
292.83	5862	
293.04	5381.4	
293.25	3661.8	
293.46	5292.6	
293.67	6166.4	
293.88	3803.1	
294.09	3619.4	
294.29	4973.2	
294.5	5711.1	
294.71	3971	
294.92	3836.5	
295.13	5281	
295.34	6734.4	
295.55	3351.8	
295.76	3454.9	
295.97	5887.9	
296.18	6728.9	
296.39	3552.5	
296.6	3721.2	
296.81	5609.4	
297.01	5963.7	
297.22	3944.4	
297.43	3773.7	
297.64	5115.1	
297.85	5170.4	
298.06	3060.3	
298.27	3368.2	
298.48	5574.6	
298.69	5223	
298.9	4057.7	
299.11	3676.8	
299.31	5028.4	
299.52	5053.7	
299.73	4371	
299.94	4263.2	
300.15	5526.1	
300.36	5122.7	
300.57	4356.7	
300.78	4293.9	
300.99	5384.8	
301.2	5672.9	
301.4	3722.5	
301.61	4100	
301.82	5876.3	
302.03	6022.4	
302.24	4607.9	
302.45	3554.6	
302.66	5828.5	
302.87	6318.7	
303.08	3756.7	
303.29	5147.2	
303.49	5260.5	
303.7	5561.6	
303.91	3342.3	
304.12	4923.3	
304.33	5081	
304.54	5601.2	
304.75	3824.9	
304.96	3604.4	
305.16	5894.7	
305.37	6606.7	
305.58	3271.3	
305.79	3433.1	
306	5857.2	
306.21	4962.9	
306.42	3824.2	
306.63	5797.8	
306.83	5362.3	
307.04	6146.6	
307.25	4067.9	
307.46	4128	
307.67	4748.6	
307.88	6038.1	
308.09	3680.9	
308.29	3868.6	
308.5	5609.4	
308.71	6169.2	
308.92	4067.9	
309.13	3597.6	
309.34	5334.3	
309.55	5430.5	
309.75	4683.7	
309.96	4296	
310.17	5933	
310.38	5236	
310.59	4517.1	
310.8	3969	
311.01	5295.4	
311.21	5458.5	
311.42	3543.7	
311.63	3743.7	
311.84	5235.3	
312.05	5664	
312.26	4181.3	
312.46	4585.4	
312.67	5344.5	
312.88	5102.9	
313.09	3627	
313.3	3530	
313.51	6367.1	
313.71	6715.3	
313.92	3574.4	
314.13	3802.4	
314.34	5782.8	
314.55	5393.7	
314.76	4649.6	
314.96	4090.5	
315.17	5610.1	
315.38	5934.3	
315.59	3642.7	
315.8	3532.1	
316.01	6515.3	
316.21	6501.6	
316.42	3506.1	
316.63	4019.5	
316.84	5406	
317.05	6264.7	
317.26	4300.7	
317.46	3842.7	
317.67	5468.1	
317.88	5971.9	
318.09	4617.5	
318.3	3373.7	
318.5	5245.5	
318.71	5905.7	
318.92	5923.4	
319.13	4287.8	
319.34	6082.5	
319.54	6200.6	
319.75	3398.3	
319.96	3226.9	
320.17	5960.3	
320.38	6100.2	
320.58	3297.2	
320.79	4005.1	
321	6137.8	
321.21	6245.6	
321.42	3994.9	
321.62	3303.4	
321.83	5156.8	
322.04	5507	
322.25	3845.4	
322.46	3629.7	
322.66	5659.9	
322.87	5846.3	
323.08	4502.8	
323.29	3601.7	
323.5	6659.3	
323.7	5058.5	
323.91	5007.3	
324.12	4448.2	
324.33	5600.5	
324.53	5869.5	
324.74	4259.8	
324.95	4491.9	
325.16	4924	
325.37	5380	
325.57	3601.7	
325.78	3682.9	
325.99	5585.5	
326.2	5005.9	
326.4	5158.2	
326.61	3352.5	
326.82	5465.3	
327.03	5682.4	
327.24	5141.1	
327.44	4927.4	
327.65	5788.9	
327.86	4690.5	
328.07	4334.2	
328.27	3510.9	
328.48	6307.7	
328.69	5057.8	
328.9	5242.1	
329.1	3911.6	
329.31	5412.8	
329.52	6425.8	
329.73	3650.2	
329.93	4175.8	
330.14	5590.3	
330.35	5796.4	
330.56	6092	
330.76	4527.4	
330.97	5397.1	
331.18	5739.8	
331.39	4085	
331.59	3302	
331.8	6175.3	
332.01	6293.4	
332.22	3807.2	
332.42	4354	
332.63	5650.3	
332.84	5243.5	
333.05	4051.6	
333.25	3740.3	
333.46	5266	
333.67	5599.8	
333.88	3760.8	
334.08	4272.1	
334.29	7438.9	
334.5	6296.8	
334.7	3533.4	
334.91	5218.9	
335.12	5088.5	
335.33	5973.9	
335.53	4033.1	
335.74	6004	
335.95	5319.9	
336.16	5163.6	
336.36	4017.4	
336.57	4734.2	
336.78	5087.8	
336.98	6189	
337.19	4958.8	
337.4	4001.7	
337.61	6724.2	
337.81	5086.5	
338.02	3683.6	
338.23	4859.1	
338.43	6287.3	
338.64	5213.4	
338.85	3646.7	
339.05	4859.8	
339.26	6404.7	
339.47	4996.4	
339.68	3681.6	
339.88	5448.3	
340.09	5794.4	
340.3	6051.1	
340.5	4324.6	
340.71	3274	
340.92	4992.9	
341.13	6369.2	
341.33	3519.1	
341.54	4321.9	
341.75	5724.8	
341.95	5467.4	
342.16	4124.6	
342.37	4483	
342.57	5132.9	
342.78	5574.6	
342.99	4591.5	
343.19	3258.3	
343.4	6004	
343.61	5831.2	
343.81	3870	
344.02	3557.3	
344.23	6054.5	
344.43	6434	
344.64	4556.7	
344.85	4397	
345.06	5801.2	
345.26	6197.8	
345.47	4258.4	
345.68	4971.1	
345.88	4886.5	
346.09	6011.5	
346.3	4329.4	
346.5	3260.4	
346.71	5586.2	
346.92	5285.8	
347.12	3375.7	
347.33	4213.4	
347.54	6016.2	
347.74	6556.2	
347.95	4210.6	
348.16	3139.5	
348.36	5378	
348.57	5065.3	
348.78	4145.8	
348.98	4528.7	
349.19	5569.8	
349.39	5057.8	
349.6	3366.2	
349.81	3730	
350.01	5852.4	
350.22	5263.3	
350.43	4072	
350.63	4860.5	
350.84	5648.3	
351.05	5390.3	
351.25	3667.2	
351.46	3338.2	
351.67	6186.9	
351.87	5279.7	
352.08	3947.1	
352.29	4526	
352.49	6085.2	
352.7	5735	
352.9	3600.3	
353.11	4506.9	
353.32	6822.5	
353.52	5374.6	
353.73	3547.8	
353.94	4541.7	
354.14	5913.2	
354.35	5686.5	
354.55	3663.1	
354.76	4078.9	
354.97	5903.6	
355.17	5663.3	
355.38	3506.8	
355.59	4904.9	
355.79	5282.4	
356	5797.8	
356.2	4106.2	
356.41	3622.9	
356.62	5016.2	
356.82	5594.4	
357.03	4468	
357.24	4033.1	
357.44	5365.7	
357.65	5494.7	
357.85	5327.4	
358.06	4184	
358.27	5125.4	
358.47	5407.3	
358.68	3571	
358.88	4459.8	
359.09	5935.7	
359.3	6402	
359.5	5199.1	
359.71	4658.4	
359.91	6868.2	
360.12	6210.1	
360.33	4504.2	
360.53	5029.1	
360.74	5464.7	
360.94	5535.7	
361.15	4735.6	
361.36	3943	
361.56	6343.2	
361.77	5696.1	
361.97	5292.6	
362.18	4241.3	
362.38	6328.2	
362.59	5434.6	
362.8	3907.5	
363	3793.5	
363.21	5239.4	
363.41	5939.1	
363.62	4488.5	
363.83	5636.7	
364.03	6016.2	
364.24	7105.8	
364.44	5729.5	
364.65	5651.7	
364.85	5816.2	
365.06	5480.4	
365.27	4244.1	
365.47	4214.7	
365.68	6897.6	
365.88	5850.4	
366.09	4656.4	
366.29	4364.9	
366.5	6169.2	
366.71	6561	
366.91	5724.1	
367.12	4828.4	
367.32	7228.6	
367.53	6453.8	
367.73	4882.4	
367.94	5832.6	
368.14	6443.6	
368.35	7385.7	
368.56	4792.9	
368.76	4212.7	
368.97	6556.9	
369.17	8341.4	
369.38	4321.2	
369.58	4664.6	
369.79	5618.3	
369.99	6939.2	
370.2	5703.6	
370.4	4678.2	
370.61	6256.5	
370.82	7499.7	
371.02	4643.4	
371.23	3953.9	
371.43	5520	
371.64	6967.2	
371.84	4690.5	
372.05	6011.5	
372.25	8366.6	
372.46	6716.7	
372.66	4795.7	
372.87	4777.2	
373.07	6848.4	
373.28	8525	
373.48	5938.4	
373.69	5562.3	
373.9	6324.8	
374.1	6330.3	
374.31	5866.1	
374.51	5409.4	
374.72	7301	
374.92	6110.5	
375.13	6173.9	
375.33	5275.6	
375.54	6920.8	
375.74	6346	
375.95	5484.5	
376.15	6782.9	
376.36	6937.8	
376.56	6877.1	
376.77	5646.2	
376.97	6169.8	
377.18	8188.5	
377.38	7215.7	
377.59	6604.7	
377.79	5225.7	
378	7161.1	
378.2	7607.5	
378.41	5401.2	
378.61	5301.5	
378.82	7649.2	
379.02	6827.9	
379.23	5631.9	
379.43	6672.3	
379.64	7778.2	
379.84	7397.3	
380.05	5352	
380.25	5384.8	
380.46	7475.1	
380.66	7041.6	
380.87	6709.1	
381.07	7131.7	
381.28	8099.7	
381.48	7419.1	
381.69	5439.4	
381.89	5477.6	
382.1	6286.6	
382.3	7534.5	
382.51	6543.3	
382.71	7551.5	
382.91	7375.4	
383.12	7944.8	
383.32	5782.8	
383.53	5937.1	
383.73	7135.1	
383.94	6950.8	
384.14	5800.5	
384.35	4981.3	
384.55	6811.5	
384.76	7404.1	
384.96	5690.6	
385.17	5999.9	
385.37	7289.4	
385.58	6540.5	
385.78	5945.9	
385.98	4741	
386.19	6709.1	
386.39	7080.5	
386.6	5410.1	
386.8	5580.7	
387.01	7291.5	
387.21	7345.4	
387.42	6088.6	
387.62	6782.9	
387.83	6619	
388.03	7432.8	
388.23	5838.8	
388.44	6634.7	
388.64	6427.2	
388.85	6651.8	
389.05	6320.7	
389.26	6965.1	
389.46	8602.2	
389.67	8018.5	
389.87	6371.9	
390.07	6449.7	
390.28	7152.9	
390.48	6774	
390.69	5664	
390.89	5954.8	
391.1	6931.7	
391.3	7985.7	
391.5	7148.8	
391.71	7743.4	
391.91	7709.9	
392.12	8772.8	
392.32	7251.9	
392.53	6449.7	
392.73	7091.4	
392.93	7262.1	
393.14	6046.3	
393.34	6863.4	
393.55	7756.3	
393.75	7317.4	
393.95	6020.3	
394.16	5853.8	
394.36	6898.9	
394.57	7609.6	
394.77	5424.4	
394.98	5876.3	
395.18	6950.1	
395.38	7071	
395.59	6952.2	
395.79	5868.1	
396	7322.9	
396.2	7865.6	
396.4	6956.3	
396.61	6886	
396.81	8150.2	
397.02	7470.3	
397.22	7365.2	
397.42	7339.2	
397.63	8251.3	
397.83	7542	
398.04	6132.3	
398.24	6858	
398.44	7978.2	
398.65	7172.7	
398.85	6117.3	
399.05	6261.3	
399.26	7613.7	
399.46	9418.6	
399.67	6692.8	
399.87	6424.5	
400.07	8040.3	
400.28	8497.7	
400.48	6589	
400.69	7817.1	
400.89	8923.7	
401.09	9232.9	
401.3	6675	
401.5	7925	
401.7	9704.6	
401.91	9837.1	
402.11	6993.1	
402.32	7362.4	
402.52	8817.9	
402.72	8616.5	
402.93	7433.4	
403.13	6119.3	
403.33	9417.2	
403.54	7807.5	
403.74	6808.8	
403.94	7627.3	
404.15	7887.4	
404.35	9122.3	
404.56	6533	
404.76	8420.6	
404.96	8456.1	
405.17	8305.2	
405.37	8026	
405.57	7242.3	
405.78	8863.6	
405.98	8071	
406.18	6862.1	
406.39	7886	
406.59	8740	
406.79	8186.4	
407	6565.1	
407.2	6666.8	
407.4	8632.9	
407.61	8991.9	
407.81	6821.1	
408.01	9171.5	
408.22	7859.4	
408.42	10204	
408.62	8404.9	
408.83	7972.7	
409.03	9006.3	
409.23	8990.6	
409.44	8306.6	
409.64	8725.7	
409.84	10436	
410.05	10433	
410.25	8823.3	
410.45	8475.2	
410.66	10222	
410.86	12680	
411.06	9419.3	
411.27	9220	
411.47	12735	
411.67	10593	
411.88	9553.8	
412.08	10046	
412.28	11312	
412.49	11944	
412.69	9551.7	
412.89	9669.8	
413.09	11741	
413.3	11721	
413.5	9858.9	
413.7	9436.4	
413.91	10899	
414.11	11923	
414.31	9824.1	
414.52	10346	
414.72	11622	
414.92	11786	
415.12	9817.3	
415.33	10355	
415.53	12094	
415.73	12393	
415.94	10771	
416.14	10277	
416.34	11144	
416.55	10875	
416.75	11474	
416.95	11002	
417.15	12314	
417.36	12781	
417.56	12004	
417.76	10955	
417.97	12716	
418.17	12560	
418.37	10480	
418.57	10785	
418.78	12248	
418.98	11859	
419.18	11664	
419.38	11304	
419.59	11967	
419.79	11271	
419.99	10391	
420.2	10724	
420.4	12253	
420.6	12576	
420.8	10390	
421.01	10180	
421.21	12356	
421.41	12452	
421.61	10710	
421.82	10499	
422.02	11708	
422.22	12744	
422.42	11454	
422.63	10531	
422.83	11838	
423.03	13072	
423.23	10822	
423.44	9717.6	
423.64	11839	
423.84	11435	
424.04	10146	
424.25	9734.7	
424.45	12530	
424.65	12461	
424.85	9530.6	
425.06	10228	
425.26	12579	
425.46	11006	
425.66	10483	
425.87	10150	
426.07	12286	
426.27	11901	
426.47	10412	
426.67	9523.7	
426.88	12490	
427.08	11867	
427.28	10669	
427.48	9411.8	
427.69	10645	
427.89	11388	
428.09	10490	
428.29	9645.9	
428.5	12223	
428.7	11654	
428.9	9607.7	
429.1	10183	
429.3	11650	
429.51	12226	
429.71	9777	
429.91	10815	
430.11	12035	
430.31	12734	
430.52	10335	
430.72	10733	
430.92	12853	
431.12	12228	
431.32	10080	
431.53	10369	
431.73	11107	
431.93	12876	
432.13	9852.1	
432.33	9871.2	
432.54	11598	
432.74	12033	
432.94	10047	
433.14	10921	
433.34	12169	
433.55	11998	
433.75	11037	
433.95	13141	
434.15	12111	
434.35	11946	
434.56	10159	
434.76	9943.6	
434.96	12173	
435.16	12683	
435.36	10232	
435.56	11540	
435.77	12093	
435.97	12312	
436.17	12468	
436.37	11687	
436.57	12165	
436.78	12327	
436.98	13207	
437.18	12140	
437.38	13127	
437.58	12364	
437.78	12285	
437.99	10740	
438.19	12624	
438.39	13540	
438.59	10575	
438.79	9923.8	
438.99	13246	
439.2	12128	
439.4	10047	
439.6	10173	
439.8	12582	
440	13715	
440.2	11508	
440.4	11669	
440.61	13229	
440.81	13825	
441.01	10950	
441.21	12046	
441.41	14047	
441.61	13461	
441.81	12455	
442.02	13611	
442.22	14496	
442.42	13615	
442.62	11280	
442.82	11242	
443.02	14057	
443.22	13267	
443.43	11962	
443.63	11453	
443.83	12884	
444.03	13085	
444.23	12983	
444.43	12358	
444.63	13521	
444.83	14831	
445.04	11690	
445.24	13086	
445.44	13663	
445.64	13954	
445.84	12125	
446.04	12316	
446.24	12822	
446.44	13921	
446.65	11138	
446.85	11869	
447.05	12825	
447.25	13788	
447.45	11596	
447.65	11050	
447.85	13090	
448.05	12469	
448.25	12186	
448.46	11923	
448.66	13175	
448.86	12717	
449.06	10942	
449.26	12156	
449.46	13702	
449.66	12482	
449.86	11878	
450.06	11669	
450.26	12844	
450.47	13556	
450.67	11802	
450.87	12473	
451.07	13566	
451.27	13591	
451.47	11181	
451.67	12164	
451.87	13052	
452.07	14081	
452.27	11769	
452.47	11450	
452.67	13217	
452.88	13998	
453.08	10651	
453.28	13063	
453.48	14767	
453.68	13162	
453.88	11653	
454.08	11878	
454.28	13833	
454.48	13463	
454.68	12438	
454.88	12904	
455.08	13878	
455.28	13994	
455.48	11389	
455.68	12484	
455.89	14729	
456.09	14304	
456.29	12112	
456.49	12450	
456.69	14689	
456.89	13861	
457.09	13003	
457.29	13573	
457.49	14527	
457.69	14752	
457.89	13176	
458.09	12372	
458.29	14586	
458.49	15330	
458.69	13628	
458.89	13196	
459.09	15733	
459.29	15922	
459.49	13181	
459.69	14100	
459.9	15085	
460.1	14916	
460.3	12955	
460.5	12727	
460.7	15231	
460.9	14957	
461.1	12517	
461.3	14166	
461.5	16147	
461.7	15741	
461.9	13548	
462.1	13664	
462.3	15415	
462.5	16031	
462.7	13627	
462.9	13967	
463.1	17199	
463.3	17097	
463.5	14051	
463.7	15462	
463.9	16021	
464.1	16525	
464.3	14892	
464.5	14743	
464.7	16923	
464.9	16936	
465.1	16528	
465.3	15424	
465.5	17309	
465.7	17455	
465.9	15807	
466.1	15222	
466.3	17492	
466.5	16935	
466.7	16922	
466.9	15320	
467.1	17313	
467.3	18425	
467.5	16972	
467.7	15661	
467.9	18489	
468.1	19454	
468.3	16279	
468.5	17140	
468.7	17572	
468.9	17520	
469.1	16216	
469.3	17006	
469.5	19701	
469.7	17266	
469.9	16552	
470.1	15985	
470.3	17480	
470.5	17658	
470.7	17314	
470.9	15892	
471.1	17531	
471.3	17468	
471.5	15759	
471.69	17753	
471.89	16922	
472.09	16461	
472.29	16607	
472.49	16505	
472.69	16788	
472.89	17559	
473.09	15547	
473.29	15256	
473.49	16703	
473.69	16815	
473.89	16339	
474.09	15608	
474.29	17955	
474.49	17724	
474.69	16408	
474.89	15624	
475.09	16706	
475.29	16789	
475.49	14801	
475.69	15306	
475.88	18129	
476.08	16940	
476.28	14835	
476.48	15055	
476.68	17120	
476.88	16933	
477.08	14803	
477.28	15298	
477.48	16212	
477.68	17015	
477.88	14684	
478.08	14980	
478.28	17553	
478.48	16422	
478.67	14960	
478.87	14221	
479.07	17510	
479.27	16592	
479.47	15210	
479.67	15255	
479.87	17085	
480.07	17750	
480.27	14555	
480.47	16173	
480.67	16604	
480.87	17453	
481.06	14645	
481.26	15661	
481.46	16567	
481.66	16495	
481.86	15268	
482.06	16244	
482.26	16227	
482.46	17161	
482.66	15044	
482.86	14691	
483.05	16717	
483.25	16094	
483.45	17672	
483.65	15173	
483.85	16335	
484.05	16682	
484.25	15664	
484.45	16396	
484.65	17554	
484.84	17770	
485.04	15268	
485.24	15272	
485.44	17978	
485.64	16245	
485.84	14786	
486.04	16382	
486.24	16795	
486.44	17252	
486.63	14715	
486.83	15763	
487.03	16843	
487.23	17340	
487.43	15027	
487.63	17731	
487.83	17467	
488.02	18391	
488.22	16376	
488.42	17122	
488.62	18254	
488.82	17270	
489.02	15850	
489.22	16324	
489.41	18088	
489.61	17952	
489.81	15741	
490.01	15694	
490.21	18277	
490.41	18850	
490.61	15728	
490.8	15877	
491	17757	
491.2	16654	
491.4	16404	
491.6	15341	
491.8	17311	
491.99	17492	
492.19	15158	
492.39	15457	
492.59	17858	
492.79	18107	
492.99	16641	
493.18	15578	
493.38	18228	
493.58	19413	
493.78	16815	
493.98	16216	
494.18	18247	
494.37	17972	
494.57	17430	
494.77	17314	
494.97	19102	
495.17	19652	
495.37	17168	
495.56	17544	
495.76	19979	
495.96	19477	
496.16	18732	
496.36	17656	
496.55	19949	
496.75	19346	
496.95	18114	
497.15	17934	
497.35	19743	
497.54	20119	
497.74	17677	
497.94	19781	
498.14	20743	
498.34	20437	
498.53	17662	
498.73	18427	
498.93	19448	
499.13	19984	
499.33	18281	
499.52	18997	
499.72	20378	
499.92	20333	
500.12	18199	
500.32	18507	
500.51	20511	
500.71	20571	
500.91	19353	
501.11	18852	
501.31	20493	
501.5	20863	
501.7	19533	
501.9	18499	
502.1	20074	
502.29	20465	
502.49	18972	
502.69	19169	
502.89	20259	
503.09	20261	
503.28	17492	
503.48	17661	
503.68	19202	
503.88	19298	
504.07	18617	
504.27	17911	
504.47	19445	
504.67	19453	
504.86	18452	
505.06	17994	
505.26	18839	
505.46	20786	
505.65	17601	
505.85	17925	
506.05	18504	
506.25	18976	
506.44	16574	
506.64	17604	
506.84	18299	
507.04	19175	
507.23	16584	
507.43	17151	
507.63	20167	
507.83	18258	
508.02	17014	
508.22	16708	
508.42	20213	
508.62	17933	
508.81	17034	
509.01	17200	
509.21	17489	
509.4	17947	
509.6	16811	
509.8	16180	
510	17578	
510.19	19370	
510.39	16015	
510.59	16333	
510.79	17783	
510.98	19243	
511.18	16384	
511.38	16580	
511.57	18583	
511.77	18540	
511.97	17185	
512.17	16013	
512.36	18639	
512.56	18346	
512.76	16110	
512.95	15922	
513.15	18693	
513.35	17163	
513.55	17160	
513.74	16240	
513.94	18559	
514.14	17927	
514.33	17312	
514.53	17025	
514.73	17817	
514.92	18293	
515.12	16455	
515.32	16533	
515.51	18390	
515.71	19085	
515.91	18181	
516.11	16406	
516.3	20200	
516.5	17998	
516.7	17077	
516.89	17873	
517.09	18069	
517.29	18112	
517.48	17659	
517.68	16862	
517.88	17993	
518.07	18506	
518.27	17447	
518.47	16406	
518.66	19130	
518.86	17613	
519.06	16118	
519.25	16597	
519.45	17905	
519.65	19768	
519.84	17366	
520.04	18044	
520.24	20038	
520.43	18589	
520.63	16872	
520.83	16635	
521.02	17697	
521.22	18379	
521.42	16954	
521.61	17570	
521.81	17841	
522.01	17912	
522.2	16908	
522.4	16520	
522.6	18454	
522.79	17395	
522.99	16744	
523.18	16117	
523.38	18571	
523.58	18736	
523.77	18590	
523.97	16374	
524.17	20765	
524.36	19951	
524.56	18342	
524.76	17783	
524.95	19112	
525.15	18720	
525.34	17703	
525.54	17867	
525.74	19706	
525.93	18718	
526.13	19240	
526.33	18051	
526.52	20209	
526.72	19821	
526.91	19456	
527.11	18747	
527.31	20409	
527.5	20757	
527.7	18596	
527.89	17630	
528.09	19360	
528.29	20037	
528.48	18954	
528.68	18428	
528.87	20237	
529.07	20153	
529.27	18526	
529.46	18051	
529.66	19890	
529.85	20485	
530.05	17913	
530.25	18654	
530.44	21484	
530.64	19929	
530.83	18239	
531.03	18701	
531.23	20400	
531.42	20296	
531.62	19539	
531.81	18480	
532.01	20676	
532.21	21303	
532.4	18680	
532.6	19134	
532.79	21848	
532.99	21181	
533.18	19392	
533.38	20280	
533.58	20918	
533.77	21534	
533.97	19508	
534.16	20441	
534.36	22078	
534.55	21105	
534.75	20699	
534.95	19768	
535.14	22013	
535.34	21093	
535.53	19185	
535.73	21358	
535.92	22217	
536.12	21031	
536.31	19349	
536.51	20577	
536.71	21212	
536.9	20858	
537.1	19179	
537.29	19365	
537.49	21616	
537.68	20762	
537.88	19880	
538.07	19067	
538.27	20868	
538.46	22104	
538.66	19119	
538.86	19435	
539.05	20917	
539.25	21385	
539.44	19986	
539.64	19295	
539.83	20833	
540.03	22007	
540.22	19183	
540.42	19118	
540.61	20826	
540.81	20960	
541	19419	
541.2	20279	
541.39	20240	
541.59	20863	
541.78	19961	
541.98	18639	
542.18	19766	
542.37	19848	
542.57	18874	
542.76	19683	
542.96	19677	
543.15	20299	
543.35	18652	
543.54	17961	
543.74	20261	
543.93	19914	
544.13	18306	
544.32	19602	
544.52	19897	
544.71	18992	
544.91	17204	
545.1	18368	
545.3	19050	
545.49	19914	
545.69	16982	
545.88	17766	
546.08	20778	
546.27	20198	
546.47	18353	
546.66	17392	
546.86	19956	
547.05	20713	
547.24	17610	
547.44	17599	
547.63	18509	
547.83	19984	
548.02	17990	
548.22	18030	
548.41	18293	
548.61	19942	
548.8	17250	
549	17262	
549.19	18880	
549.39	19169	
549.58	16705	
549.78	17460	
549.97	19178	
550.17	18730	
550.36	18108	
550.55	19382	
550.75	18770	
550.94	19585	
551.14	16845	
551.33	17197	
551.53	17984	
551.72	19194	
551.92	17286	
552.11	17113	
552.31	18979	
552.5	19049	
552.69	18723	
552.89	16472	
553.08	18936	
553.28	18592	
553.47	17036	
553.67	18135	
553.86	19680	
554.06	17653	
554.25	15930	
554.44	16705	
554.64	20131	
554.83	19755	
555.03	16589	
555.22	16937	
555.42	18930	
555.61	18587	
555.8	16653	
556	16934	
556.19	17673	
556.39	18875	
556.58	16760	
556.78	16495	
556.97	18227	
557.16	18059	
557.36	17937	
557.55	16286	
557.75	17141	
557.94	19142	
558.13	16298	
558.33	15985	
558.52	18828	
558.72	17749	
558.91	16145	
559.1	16284	
559.3	17169	
559.49	16869	
559.69	15589	
559.88	16604	
560.07	18049	
560.27	18505	
560.46	16690	
560.66	16881	
560.85	17860	
561.04	16831	
561.24	15868	
561.43	15945	
561.63	17057	
561.82	17341	
562.01	17297	
562.21	16279	
562.4	17688	
562.59	18966	
562.79	16099	
562.98	15786	
563.18	17671	
563.37	19426	
563.56	16632	
563.76	15748	
563.95	17265	
564.14	17211	
564.34	16180	
564.53	15909	
564.73	17813	
564.92	18200	
565.11	16248	
565.31	15750	
565.5	18448	
565.69	17180	
565.89	15872	
566.08	16081	
566.27	18271	
566.47	18729	
566.66	16940	
566.85	15452	
567.05	17876	
567.24	17157	
567.44	15727	
567.63	17135	
567.82	17979	
568.02	17677	
568.21	15822	
568.4	16114	
568.6	17575	
568.79	17663	
568.98	15562	
569.18	15868	
569.37	17735	
569.56	19691	
569.76	16043	
569.95	17177	
570.14	17732	
570.34	17708	
570.53	15327	
570.72	15380	
570.91	18199	
571.11	17169	
571.3	15567	
571.49	16503	
571.69	17084	
571.88	16540	
572.07	16234	
572.27	16099	
572.46	16608	
572.65	17755	
572.85	15352	
573.04	15812	
573.23	18133	
573.43	17258	
573.62	15281	
573.81	16004	
574	17335	
574.2	17183	
574.39	15691	
574.58	15892	
574.78	18389	
574.97	17652	
575.16	16254	
575.36	16767	
575.55	18007	
575.74	18110	
575.93	15382	
576.13	16647	
576.32	17466	
576.51	17906	
576.71	15845	
576.9	17202	
577.09	18292	
577.28	17901	
577.48	16341	
577.67	15308	
577.86	17473	
578.05	17727	
578.25	16001	
578.44	16189	
578.63	17580	
578.83	18900	
579.02	15377	
579.21	17100	
579.4	17823	
579.6	17591	
579.79	16255	
579.98	18658	
580.17	18203	
580.37	18318	
580.56	15693	
580.75	16559	
580.94	18862	
581.14	18746	
581.33	17202	
581.52	15972	
581.71	18296	
581.91	18912	
582.1	15696	
582.29	16372	
582.48	18041	
582.68	17937	
582.87	17024	
583.06	16496	
583.25	18258	
583.45	17697	
583.64	17479	
583.83	18128	
584.02	17791	
584.21	18511	
584.41	17243	
584.6	16552	
584.79	18094	
584.98	18976	
585.18	16040	
585.37	15992	
585.56	17535	
585.75	18348	
585.94	16121	
586.14	16830	
586.33	18691	
586.52	17884	
586.71	16561	
586.91	16243	
587.1	16857	
587.29	17969	
587.48	15825	
587.67	15715	
587.87	17645	
588.06	17456	
588.25	16876	
588.44	16051	
588.63	16751	
588.83	17297	
589.02	14924	
589.21	14647	
589.4	15859	
589.59	15579	
589.78	13261	
589.98	13207	
590.17	14586	
590.36	15076	
590.55	12123	
590.74	12758	
590.94	16027	
591.13	14392	
591.32	12306	
591.51	11865	
591.7	14787	
591.89	14255	
592.09	12113	
592.28	12547	
592.47	13583	
592.66	15601	
592.85	12136	
593.05	12538	
593.24	14179	
593.43	15056	
593.62	12666	
593.81	13131	
594	14521	
594.19	14739	
594.39	12658	
594.58	12514	
594.77	14805	
594.96	15583	
595.15	12540	
595.34	13177	
595.54	14686	
595.73	13804	
595.92	11652	
596.11	12951	
596.3	15269	
596.49	13872	
596.68	12618	
596.88	13203	
597.07	14983	
597.26	13847	
597.45	12181	
597.64	13646	
597.83	14253	
598.02	14858	
598.22	12471	
598.41	13222	
598.6	14687	
598.79	14069	
598.98	12554	
599.17	13669	
599.36	14827	
599.55	16014	
599.74	14978	
599.94	14647	
600.13	15429	
600.32	14113	
600.51	12601	
600.7	12743	
600.89	16173	
601.08	16307	
601.27	12784	
601.47	13568	
601.66	15543	
601.85	16358	
602.04	13508	
602.23	13522	
602.42	14655	
602.61	15253	
602.8	13430	
602.99	13125	
603.18	15085	
603.37	15332	
603.57	13842	
603.76	14392	
603.95	16087	
604.14	15720	
604.33	13405	
604.52	13787	
604.71	15400	
604.9	14985	
605.09	14257	
605.28	14157	
605.47	15935	
605.66	15679	
605.86	13984	
606.05	13338	
606.24	15926	
606.43	14360	
606.62	13653	
606.81	14470	
607	15839	
607.19	15038	
607.38	12905	
607.57	13212	
607.76	14817	
607.95	14220	
608.14	13714	
608.33	14332	
608.52	14737	
608.72	15624	
608.91	12799	
609.1	12666	
609.29	14708	
609.48	14128	
609.67	13695	
609.86	12689	
610.05	14320	
610.24	14580	
610.43	12471	
610.62	12119	
610.81	15683	
611	15587	
611.19	12605	
611.38	13362	
611.57	14782	
611.76	16171	
611.95	12396	
612.14	12149	
612.33	14603	
612.52	14089	
612.71	12855	
612.9	12026	
613.09	13710	
613.28	16068	
613.47	12511	
613.66	13653	
613.85	14691	
614.04	14067	
614.24	12643	
614.43	11753	
614.62	14781	
614.81	14681	
615	13147	
615.19	13244	
615.38	13922	
615.57	14464	
615.76	13067	
615.95	14106	
616.14	14826	
616.33	14433	
616.52	13373	
616.71	13638	
616.9	14681	
617.09	14610	
617.28	12669	
617.47	13996	
617.66	13793	
617.85	13847	
618.04	13663	
618.22	13033	
618.41	14214	
618.6	15350	
618.79	13026	
618.98	12837	
619.17	15717	
619.36	13851	
619.55	12920	
619.74	12994	
619.93	14803	
620.12	14169	
620.31	13740	
620.5	13982	
620.69	15550	
620.88	15900	
621.07	14702	
621.26	13685	
621.45	15122	
621.64	15110	
621.83	13702	
622.02	12896	
622.21	15141	
622.4	14863	
622.59	14317	
622.78	13992	
622.97	14487	
623.16	15571	
623.35	13601	
623.54	12633	
623.72	14701	
623.91	14789	
624.1	13934	
624.29	12542	
624.48	16036	
624.67	15032	
624.86	13893	
625.05	12699	
625.24	16046	
625.43	14334	
625.62	15296	
625.81	12908	
626	15141	
626.19	14624	
626.38	13599	
626.56	12860	
626.75	14171	
626.94	14982	
627.13	13383	
627.32	12002	
627.51	14699	
627.7	15983	
627.89	11862	
628.08	13104	
628.27	13744	
628.46	13932	
628.65	12212	
628.83	11886	
629.02	14432	
629.21	13719	
629.4	12611	
629.59	12895	
629.78	13702	
629.97	14722	
630.16	13094	
630.35	12399	
630.54	15226	
630.72	15048	
630.91	12404	
631.1	13080	
631.29	14322	
631.48	14470	
631.67	13178	
631.86	12604	
632.05	13959	
632.24	13999	
632.42	12146	
632.61	12781	
632.8	14032	
632.99	13874	
633.18	12981	
633.37	13325	
633.56	14411	
633.75	14269	
633.93	12825	
634.12	12652	
634.31	15335	
634.5	15014	
634.69	12647	
634.88	13147	
635.07	14198	
635.25	14784	
635.44	13512	
635.63	13916	
635.82	14040	
636.01	13603	
636.2	13532	
636.39	13193	
636.57	15266	
636.76	14882	
636.95	12393	
637.14	13892	
637.33	14491	
637.52	15476	
637.7	12240	
637.89	13184	
638.08	14120	
638.27	15606	
638.46	13292	
638.65	13745	
638.83	15390	
639.02	13773	
639.21	13083	
639.4	13567	
639.59	14199	
639.78	13797	
639.96	12271	
640.15	12209	
640.34	14060	
640.53	14186	
640.72	11887	
640.91	12202	
641.09	13350	
641.28	14726	
641.47	12153	
641.66	12977	
641.85	14016	
642.03	14342	
642.22	12751	
642.41	12192	
642.6	13481	
642.79	12760	
642.97	11910	
643.16	12589	
643.35	13308	
643.54	12951	
643.73	11632	
643.91	12568	
644.1	12669	
644.29	13309	
644.48	11534	
644.67	11546	
644.85	12624	
645.04	12823	
645.23	10894	
645.42	11042	
645.6	12207	
645.79	13287	
645.98	10785	
646.17	9643.9	
646.36	11501	
646.54	12073	
646.73	11223	
646.92	9904.7	
647.11	11484	
647.29	12589	
647.48	9998.9	
647.67	9575.6	
647.86	12716	
648.05	12889	
648.23	10190	
648.42	11690	
648.61	12138	
648.8	11994	
648.98	9932	
649.17	10332	
649.36	11550	
649.55	11021	
649.73	10124	
649.92	11005	
650.11	11529	
650.3	11876	
650.48	10274	
650.67	10079	
650.86	12024	
651.05	10974	
651.23	10127	
651.42	10062	
651.61	11526	
651.79	11579	
651.98	10306	
652.17	9783.8	
652.36	11948	
652.54	10856	
652.73	9901.9	
652.92	9739.5	
653.11	12011	
653.29	12101	
653.48	9166	
653.67	10230	
653.85	11643	
654.04	12772	
654.23	10305	
654.42	9722.4	
654.6	10965	
654.79	11595	
654.98	8999.5	
655.16	9512.1	
655.35	10443	
655.54	10215	
655.73	9020.6	
655.91	8943.5	
656.1	11459	
656.29	10264	
656.47	8564.6	
656.66	10443	
656.85	10713	
657.03	10694	
657.22	9445.9	
657.41	9469.8	
657.59	10942	
657.78	10739	
657.97	9082.7	
658.16	9964.1	
658.34	11725	
658.53	12231	
658.72	10836	
658.9	11359	
659.09	11094	
659.28	11387	
659.46	9779.1	
659.65	9728.5	
659.84	10965	
660.02	11592	
660.21	9527.8	
660.4	9558.6	
660.58	12021	
660.77	11458	
660.96	10230	
661.14	9224.1	
661.33	12623	
661.52	12491	
661.7	9112.1	
661.89	13322	
662.08	10965	
662.26	10643	
662.45	9490.3	
662.64	9560.6	
662.82	11675	
663.01	10918	
663.2	9592	
663.38	10380	
663.57	11558	
663.75	11501	
663.94	9947	
664.13	11064	
664.31	10913	
664.5	11619	
664.69	10251	
664.87	10725	
665.06	10658	
665.25	11428	
665.43	10933	
665.62	10996	
665.8	11706	
665.99	10974	
666.18	9912.2	
666.36	10060	
666.55	11625	
666.74	11531	
666.92	9368.1	
667.11	11073	
667.29	10922	
667.48	11570	
667.67	10690	
667.85	9850.7	
668.04	10970	
668.22	11027	
668.41	9823.4	
668.6	9941.5	
668.78	10766	
668.97	11064	
669.15	10190	
669.34	9009.7	
669.53	10785	
669.71	11062	
669.9	9242.5	
670.08	9944.9	
670.27	10718	
670.46	11207	
670.64	10119	
670.83	10484	
671.01	10473	
671.2	11189	
671.38	9291.6	
671.57	9159.9	
671.76	11812	
671.94	12529	
672.13	9032.9	
672.31	10264	
672.5	11452	
672.69	10763	
672.87	9312.8	
673.06	9579	
673.24	11219	
673.43	10750	
673.61	10034	
673.8	9577	
673.98	11443	
674.17	11413	
674.36	10094	
674.54	9910.8	
674.73	11076	
674.91	11379	
675.1	9648	
675.28	9198.1	
675.47	10802	
675.65	11370	
675.84	9547.6	
676.03	9734	
676.21	10559	
676.4	10128	
676.58	10258	
676.77	10126	
676.95	12118	
677.14	10530	
677.32	9107.3	
677.51	8947.6	
677.69	11359	
677.88	10094	
678.06	9000.8	
678.25	9162.6	
678.44	10811	
678.62	10492	
678.81	8836.3	
678.99	9842.5	
679.18	11667	
679.36	11216	
679.55	9386.5	
679.73	10015	
679.92	11049	
680.1	10529	
680.29	10691	
680.47	9324.4	
680.66	10411	
680.84	11187	
681.03	8435.6	
681.21	9883.5	
681.4	10497	
681.58	10198	
681.77	9028.8	
681.95	9054.1	
682.14	11239	
682.32	11733	
682.51	9873.9	
682.69	8682	
682.88	10166	
683.06	10815	
683.25	9465.7	
683.43	10028	
683.62	10441	
683.8	10852	
683.99	9881.4	
684.17	9204.3	
684.36	11657	
684.54	10107	
684.73	8058.8	
684.91	8259.5	
685.1	9997.5	
685.28	9308.7	
685.46	8445.8	
685.65	8456.7	
685.83	9932	
686.02	9250	
686.2	7694.2	
686.39	7906.5	
686.57	8992.6	
686.76	10655	
686.94	7798	
687.13	8030.8	
687.31	9807.7	
687.5	9381.1	
687.68	7481.2	
687.86	8865.7	
688.05	11254	
688.23	8858.8	
688.42	8846.5	
688.6	8063.5	
688.79	9385.8	
688.97	9368.1	
689.16	8607.6	
689.34	7391.1	
689.52	10298	
689.71	10421	
689.89	8810.4	
690.08	7907.2	
690.26	9583.8	
690.45	9521	
690.63	8817.9	
690.81	8029.4	
691	9177.6	
691.18	9136	
691.37	8062.9	
691.55	10335	
691.74	8860.9	
691.92	11095	
692.1	7959.8	
692.29	7355.6	
692.47	9161.9	
692.66	8408.3	
692.84	7553.6	
693.02	8210.3	
693.21	8574.2	
693.39	9185.1	
693.58	8341.4	
693.76	7826	
693.94	10385	
694.13	10347	
694.31	7899.7	
694.5	9074.5	
694.68	9227.5	
694.86	9732.6	
695.05	8560.5	
695.23	8598.7	
695.42	10148	
695.6	12638	
695.78	9172.2	
695.97	8118.8	
696.15	10177	
696.34	9467.8	
696.52	7886.7	
696.7	8776.9	
696.89	9744.9	
697.07	9051.3	
697.25	8432.2	
697.44	10084	
697.62	9516.2	
697.81	9861.7	
697.99	8049.9	
698.17	8415.8	
698.36	8736	
698.54	9504.6	
698.72	8287.4	
698.91	7240.3	
699.09	8881.4	
699.28	8850	
699.46	7959.1	
699.64	7728.4	
699.83	8710.7	
700.01	9948.3	
700.19	8645.2	
700.38	7083.2	
700.56	10131	
700.74	8973.5	
700.93	7510.6	
701.11	8492.9	
701.29	9684.2	
701.48	10778	
701.66	7914.7	
701.84	8047.2	
702.03	9288.2	
702.21	9972.9	
702.39	7454.6	
702.58	8239	
702.76	9617.3	
702.94	9770.9	
703.13	7379.5	
703.31	9990.7	
703.49	8897.7	
703.68	10332	
703.86	7569.3	
704.04	8699.8	
704.23	9535.3	
704.41	9823.4	
704.59	7764.5	
704.78	9051.3	
704.96	10598	
705.14	9938.1	
705.33	7585	
705.51	8511.4	
705.69	9393.3	
705.87	10256	
706.06	8778.3	
706.24	7619.1	
706.42	9643.9	
706.61	9927.9	
706.79	8913.4	
706.97	7663.5	
707.16	9144.9	
707.34	9766.8	
707.52	8734.6	
707.7	7811.6	
707.89	9390.6	
708.07	8923.7	
708.25	8869.1	
708.44	8926.4	
708.62	9102.5	
708.8	10338	
708.98	9052	
709.17	8006.2	
709.35	9678.7	
709.53	9640.5	
709.72	7688.8	
709.9	7696.9	
710.08	9781.1	
710.26	9941.5	
710.45	9305.3	
710.63	7907.9	
710.81	9411.8	
710.99	9394.7	
711.18	8524.3	
711.36	7882.6	
711.54	9169.4	
711.72	9880.8	
711.91	8027.4	
712.09	7273	
712.27	9226.8	
712.45	9822.7	
712.64	8036.9	
712.82	6789.7	
713	8403.5	
713.18	8486.1	
713.37	6840.9	
713.55	8010.3	
713.73	9181	
713.91	7527.7	
714.1	6886.6	
714.28	6180.1	
714.46	8440.4	
714.64	7417.1	
714.83	5294	
715.01	6049	
715.19	7282.6	
715.37	6542.6	
715.55	5693.4	
715.74	5937.1	
715.92	8127	
716.1	6044.9	
716.28	7097.6	
716.47	6086.6	
716.65	6628.6	
716.83	6764.4	
717.01	5881.8	
717.19	5950	
717.38	9071.8	
717.56	6449.1	
717.74	6150.7	
717.92	5304.2	
718.1	7822.6	
718.29	6969.2	
718.47	5010	
718.65	5857.2	
718.83	7993.2	
719.01	7897.7	
719.2	5102.2	
719.38	6416.3	
719.56	7757.7	
719.74	9490.3	
719.92	5923.4	
720.11	7020.4	
720.29	7748.1	
720.47	6744.6	
720.65	5381.4	
720.83	6236.1	
721.02	6894.8	
721.2	6673	
721.38	6052.4	
721.56	5216.2	
721.74	6096.1	
721.92	6283.2	
722.11	6497.5	
722.29	6172.6	
722.47	7591.1	
722.65	6771.3	
722.83	5253	
723.01	6231.3	
723.2	6743.3	
723.38	7134.4	
723.56	4693.9	
723.74	5884.5	
723.92	6269.5	
724.1	7425.3	
724.29	5156.1	
724.47	6420.4	
724.65	6354.2	
724.83	6189.6	
725.01	4945.2	
725.19	5977.3	
725.37	6348.7	
725.56	6341.9	
725.74	4932.2	
725.92	5240.8	
726.1	6244.9	
726.28	6677.1	
726.46	5748.6	
726.64	5325.4	
726.83	6521.4	
727.01	6861.4	
727.19	4900.1	
727.37	5812.8	
727.55	6649.8	
727.73	7217	
727.91	4842.8	
728.09	4733.5	
728.28	7239.6	
728.46	7882.6	
728.64	5969.1	
728.82	5851.7	
729	8500.4	
729.18	7791.2	
729.36	5191.6	
729.54	7783.6	
729.72	9043.8	
729.91	7169.9	
730.09	7400.7	
730.27	6092.7	
730.45	7097.6	
730.63	7808.9	
730.81	6795.2	
730.99	5814.9	
731.17	8497.7	
731.35	6929.6	
731.53	6406.7	
731.71	5909.8	
731.9	8103.1	
732.08	8327	
732.26	6131.6	
732.44	5750.7	
732.62	8312.7	
732.8	7787.7	
732.98	6567.8	
733.16	5549.3	
733.34	7735.9	
733.52	6449.7	
733.7	6116.6	
733.88	6432.7	
734.07	7578.2	
734.25	7273.7	
734.43	5603.9	
734.61	7260.7	
734.79	8926.4	
734.97	7238.2	
735.15	5696.8	
735.33	6152.1	
735.51	7603.4	
735.69	7260	
735.87	7690.8	
736.05	6290.7	
736.23	7535.8	
736.41	7286.7	
736.59	6181.5	
736.77	6406	
736.95	8044.4	
737.13	7387	
737.32	5881.1	
737.5	6152.1	
737.68	8600.1	
737.86	7279.8	
738.04	5694.7	
738.22	7694.2	
738.4	6993.8	
738.58	7411.6	
738.76	6356.2	
738.94	5233.9	
739.12	7277.1	
739.3	7124.9	
739.48	7018.4	
739.66	6747.4	
739.84	7594.6	
740.02	7462.1	
740.2	5406.6	
740.38	5842.9	
740.56	7892.9	
740.74	6761.7	
740.92	6453.8	
741.1	6391	
741.28	7283.3	
741.46	7160.4	
741.64	5938.4	
741.82	6554.2	
742	7359.7	
742.18	7346.7	
742.36	6146	
742.54	5648.3	
742.72	7941.3	
742.9	6549.4	
743.08	6528.9	
743.26	5259.2	
743.44	8063.5	
743.62	7926.3	
743.8	6698.9	
743.98	5692.7	
744.16	7647.1	
744.34	7297.6	
744.52	6578.8	
744.7	6445	
744.88	7674.4	
745.06	7275.1	
745.24	6577.4	
745.42	6711.2	
745.6	7843.7	
745.78	7522.2	
745.96	5348.6	
746.14	5621.7	
746.32	8644.5	
746.5	7802.1	
746.68	6249.7	
746.86	5691.3	
747.03	8303.8	
747.21	6335.1	
747.39	6189	
747.57	5612.8	
747.75	7410.2	
747.93	7745.4	
748.11	5696.1	
748.29	5573.9	
748.47	8968.1	
748.65	6997.2	
748.83	6374.6	
749.01	6047.7	
749.19	7535.2	
749.37	6671.6	
749.55	5926.1	
749.73	5973.9	
749.91	7084.6	
750.09	6800.6	
750.26	6062	
750.44	5375.2	
750.62	7130.3	
750.8	7088	
750.98	5226.4	
751.16	5638.1	
751.34	7236.8	
751.52	6445	
751.7	6413.6	
751.88	5190.2	
752.06	7716.7	
752.24	7473	
752.42	5153.4	
752.59	5537	
752.77	7077.8	
752.95	8407.6	
753.13	6309.8	
753.31	5666	
753.49	6706.4	
753.67	7195.9	
753.85	5948.7	
754.03	5414.8	
754.21	7371.3	
754.38	7810.3	
754.56	5539.8	
754.74	4539	
754.92	6501.6	
755.1	7340.6	
755.28	4467.3	
755.46	4472.8	
755.64	7779.6	
755.82	7836.9	
755.99	4570.4	
756.17	4623.6	
756.35	5165	
756.53	6841.6	
756.71	3364.8	
756.89	4425	
757.07	6268.8	
757.25	5372.5	
757.42	4971.1	
757.6	5904.3	
757.78	6402	
757.96	5387.5	
758.14	4738.3	
758.32	4212	
758.5	4894	
758.67	5795.8	
758.85	4400.4	
759.03	4502.8	
759.21	5976	
759.39	5322	
759.57	4077.5	
759.75	5201.8	
759.92	6616.3	
760.1	5821.7	
760.28	5670.8	
760.46	5971.2	
760.64	5656.5	
760.82	5412.1	
760.99	5562.3	
761.17	4611.3	
761.35	6591.7	
761.53	5497.4	
761.71	4851	
761.89	5628.5	
762.06	6520	
762.24	5929.6	
762.42	4945.8	
762.6	4870.1	
762.78	6026.5	
762.96	6759.7	
763.13	5461.9	
763.31	5136.3	
763.49	7010.2	
763.67	6032	
763.85	5991.7	
764.02	6626.5	
764.2	7225.2	
764.38	6393.8	
764.56	5014.1	
764.74	5994.4	
764.91	7502.4	
765.09	6238.8	
765.27	4668	
765.45	4521.2	
765.63	7434.8	
765.8	7251.9	
765.98	4220.9	
766.16	4524.6	
766.34	5827.2	
766.52	5511.1	
766.69	5555.5	
766.87	4369	
767.05	6186.2	
767.23	6913.3	
767.41	4619.5	
767.58	4992.9	
767.76	6757.6	
767.94	6895.5	
768.12	4760.2	
768.29	5651.7	
768.47	6242.9	
768.65	7114	
768.83	4366.3	
769	5618.3	
769.18	5759.6	
769.36	6526.2	
769.54	5591	
769.72	4358.1	
769.89	6829.3	
770.07	6920.1	
770.25	4746.5	
770.43	6164.4	
770.6	7647.1	
770.78	8036.2	
770.96	4934.9	
771.14	4806.6	
771.31	6675.7	
771.49	6049	
771.67	4029.7	
771.85	4283.7	
772.02	5218.2	
772.2	6014.2	
772.38	5029.1	
772.55	4521.9	
772.73	6239.5	
772.91	6042.9	
773.09	4875.5	
773.26	5029.8	
773.44	6204.7	
773.62	5892.7	
773.8	4382	
773.97	4089.8	
774.15	6288.6	
774.33	5849.7	
774.5	4313	
774.68	4703.5	
774.86	6400.6	
775.04	5879.7	
775.21	4431.8	
775.39	4291.9	
775.57	6168.5	
775.74	6560.3	
775.92	4197	
776.1	4138.3	
776.27	6174.6	
776.45	7532.4	
776.63	4360.1	
776.81	3800.3	
776.98	5765	
777.16	6939.9	
777.34	4483.7	
777.51	4457.7	
777.69	5726.8	
777.87	5479.7	
778.04	4453	
778.22	5263.3	
778.4	5563	
778.57	6267.5	
778.75	3697.9	
778.93	4010.6	
779.1	5279	
779.28	5212.1	
779.46	3781.2	
779.64	4245.4	
779.81	6384.9	
779.99	7344.7	
780.17	5145.9	
780.34	5279	
780.52	5776.6	
780.69	5984.8	
780.87	4624.3	
781.05	4099.4	
781.22	5838.8	
781.4	5919.3	
781.58	4259.1	
781.75	3411.2	
781.93	5836.7	
782.11	5214.8	
782.28	5193.6	
782.46	4259.1	
782.64	5044.8	
782.81	6107.7	
782.99	4356.7	
783.17	4257	
783.34	5901.6	
783.52	5088.5	
783.69	4520.5	
783.87	5382.7	
784.05	5248.3	
784.22	5197.1	
784.4	5364.3	
784.58	4617.5	
784.75	6172.6	
784.93	5210	
785.1	4261.8	
785.28	4934.2	
785.46	5887.9	
785.63	5193	
785.81	4179.2	
785.99	4076.8	
786.16	5322	
786.34	5796.4	
786.51	4093.9	
786.69	4481	
786.87	4946.5	
787.04	5537	
787.22	3958.7	
787.39	4934.2	
787.57	5208.7	
787.75	6353.5	
787.92	5098.8	
788.1	5078.3	
788.27	5240.8	
788.45	4982	
788.63	4766.3	
788.8	3419.4	
788.98	5638.7	
789.15	4906.9	
789.33	3550.5	
789.5	4294.6	
789.68	6126.8	
789.86	6282.5	
790.03	4672.1	
790.21	4071.4	
790.38	6140.5	
790.56	5305.6	
790.73	3898.6	
790.91	4029	
791.09	5127.4	
791.26	5962.3	
791.44	4188.1	
791.61	3637.2	
791.79	5161.6	
791.96	5268.7	
792.14	3746.4	
792.32	3243.3	
792.49	5162.2	
792.67	5279	
792.84	3889.1	
793.02	3607.2	
793.19	5653.8	
793.37	6363	
793.54	3310.9	
793.72	3691.8	
793.89	6640.2	
794.07	5220.3	
794.25	4412.7	
794.42	3484.3	
794.6	6336.4	
794.77	5880.4	
794.95	4640.7	
795.12	3976.5	
795.3	5166.3	
795.47	5863.3	
795.65	4458.4	
795.82	4288.4	
796	4954.7	
796.17	7010.9	
796.35	4102.8	
796.52	4851	
796.7	5689.3	
796.87	5882.4	
797.05	5168.4	
797.22	4988.2	
797.4	5874.9	
797.57	6892.8	
797.75	4257	
797.92	3988.8	
798.1	6124.1	
798.27	5195.7	
798.45	3424.2	
798.62	3648.1	
798.8	5542.5	
798.97	5996.5	
799.15	4503.5	
799.32	4272.7	
799.5	4712.4	
799.67	5604.6	
799.85	4613.4	
800.02	3358	
800.2	5160.9	
800.37	5526.1	
800.55	4847.5	
800.72	3940.3	
800.9	5977.3	
801.07	6450.4	
801.25	5405.3	
801.42	4476.2	
801.6	6044.2	
801.77	5783.5	
801.95	4057	
802.12	3934.8	
802.29	5671.5	
802.47	5707.7	
802.64	4354	
802.82	3287.7	
802.99	5066	
803.17	6186.2	
803.34	4262.5	
803.52	3828.3	
803.69	6900.3	
803.87	4889.9	
804.04	4218.1	
804.21	4338.3	
804.39	6232.7	
804.56	5354.8	
804.74	3598.3	
804.91	4418.8	
805.09	5187.5	
805.26	5293.3	
805.44	3695.9	
805.61	4093.2	
805.78	5839.4	
805.96	5968.5	
806.13	4441.4	
806.31	4755.4	
806.48	4696	
806.66	5257.1	
806.83	4364.9	
807	4319.8	
807.18	5134.3	
807.35	5622.4	
807.53	4231.1	
807.7	3382.6	
807.87	6394.4	
808.05	5214.1	
808.22	4763.6	
808.4	3389.4	
808.57	5189.6	
808.74	4840	
808.92	3900.7	
809.09	5016.2	
809.27	5033.9	
809.44	5737	
809.61	3410.6	
809.79	3805.8	
809.96	6382.8	
810.14	5985.5	
810.31	3327.3	
810.48	4100.7	
810.66	5304.2	
810.83	6100.9	
811.01	3872.7	
811.18	4357.4	
811.35	5992.4	
811.53	4595.6	
811.7	4764.9	
811.87	4369	
812.05	5177.3	
812.22	5137.7	
812.39	3725.3	
812.57	3630.4	
812.74	5177.9	
812.92	7027.3	
813.09	4114.4	
813.26	4461.8	
813.44	6652.5	
813.61	5125.4	
813.78	3409.2	
813.96	4562.2	
814.13	5169.1	
814.3	4866	
814.48	4983.4	
814.65	4076.8	
814.82	6505	
815	4990.9	
815.17	4238.6	
815.34	5194.3	
815.52	5060.5	
815.69	5142.4	
815.87	4110.3	
816.04	3609.9	
816.21	5248.3	
816.38	4559.5	
816.56	4057	
816.73	3766.2	
816.9	6606.7	
817.08	6051.1	
817.25	3809.2	
817.42	4775.9	
817.6	4719.9	
817.77	5222.3	
817.94	4277.5	
818.12	3761.4	
818.29	4904.2	
818.46	7884	
818.64	3900.7	
818.81	3677.5	
818.98	4845.5	
819.16	7157.7	
819.33	4565.6	
819.5	4197	
819.67	5522.7	
819.85	6294.1	
820.02	4137.6	
820.19	4376.5	
820.37	5481.7	
820.54	4975.9	
820.71	4302.8	
820.88	5286.5	
821.06	5461.2	
821.23	5003.9	
821.4	4293.2	
821.58	4258.4	
821.75	5975.3	
821.92	5365	
822.09	3438.5	
822.27	3578.5	
822.44	5167	
822.61	5087.2	
822.79	3480.2	
822.96	6713.9	
823.13	5698.8	
823.3	4934.2	
823.48	4001.7	
823.65	3598.3	
823.82	5938.4	
823.99	4722.6	
824.17	5150.6	
824.34	3639.2	
824.51	6880.5	
824.68	5225.1	
824.86	3785.3	
825.03	4268.6	
825.2	5208.7	
825.37	6368.5	
825.55	3758	
825.72	4277.5	
825.89	6995.2	
826.06	6490.7	
826.24	4092.5	
826.41	4129.4	
826.58	6338.5	
826.75	5518.6	
826.92	3245.3	
827.1	3633.8	
827.27	8719.6	
827.44	6935.8	
827.61	3863.8	
827.79	4782.7	
827.96	4863.2	
828.13	5337.7	
828.3	4052.2	
828.47	3401	
828.65	5356.1	
828.82	5343.2	
828.99	5321.3	
829.16	4630.5	
829.34	5809.4	
829.51	5587.5	
829.68	4239.3	
829.85	4418.2	
830.02	6120.7	
830.2	5778	
830.37	3256.3	
830.54	5139.7	
830.71	6659.3	
830.88	5177.9	
831.05	3402.4	
831.23	3776.5	
831.4	6351.4	
831.57	7240.9	
831.74	3957.4	
831.91	3459.7	
832.09	5419.6	
832.26	5803.3	
832.43	4052.2	
832.6	4571.7	
832.77	5419.6	
832.94	6232	
833.12	3215.3	
833.29	4006.5	
833.46	5631.2	
833.63	7372.7	
833.8	4474.1	
833.97	4102.8	
834.15	5862.7	
834.32	5615.5	
834.49	4222.9	
834.66	4339	
834.83	6116.6	
835	4902.8	
835.17	3854.3	
835.35	3951.9	
835.52	5698.1	
835.69	5608.7	
835.86	4120.5	
836.03	3336.8	
836.2	5791.7	
836.37	5374.6	
836.55	4072.7	
836.72	3843.4	
836.89	5356.8	
837.06	5917.9	
837.23	4138.3	
837.4	4491.9	
837.57	6664.8	
837.75	7443.7	
837.92	3715.7	
838.09	3899.3	
838.26	5320.6	
838.43	6111.1	
838.6	4283	
838.77	3806.5	
838.94	7090.1	
839.11	6692.8	
839.29	4022.2	
839.46	3164.8	
839.63	5778	
839.8	5526.8	
839.97	3959.4	
840.14	3957.4	
840.31	5539.8	
840.48	5851.7	
840.65	3248.1	
840.82	3876.1	
841	5812.8	
841.17	5795.8	
841.34	3657	
841.51	3731.4	
841.68	5717.2	
841.85	5510.4	
842.02	3784	
842.19	3103.4	
842.36	5518.6	
842.53	5536.3	
842.7	3575.1	
842.87	4494.6	
843.05	7382.9	
843.22	5483.8	
843.39	3456.3	
843.56	3692.5	
843.73	5221	
843.9	5881.8	
844.07	5939.1	
844.24	4959.5	
844.41	8696.4	
844.58	4999.8	
844.75	3469.3	
844.92	3867.9	
845.09	5810.8	
845.26	5747.3	
845.43	3606.5	
845.6	3794.9	
845.77	5833.3	
845.94	5481.7	
846.12	3958.7	
846.29	4225.6	
846.46	6031.3	
846.63	5825.1	
846.8	3602.4	
846.97	4245.4	
847.14	6258.6	
847.31	5746.6	
847.48	4041.3	
847.65	4535.6	
847.82	6123.4	
847.99	6071.5	
848.16	4892.6	
848.33	4497.3	
848.5	5392.3	
848.67	6279.8	
848.84	3605.8	
849.01	3804.4	
849.18	5169.8	
849.35	4859.1	
849.52	4560.8	
849.69	3543	
849.86	6030.6	
850.03	6305	
850.2	3630.4	
850.37	4473.4	
850.54	6098.9	
850.71	5455.1	
850.88	4360.8	
851.05	3542.3	
851.22	5767.1	
851.39	6425.2	
851.56	3382.6	
851.73	4155.3	
851.9	5042.1	
852.07	6064.7	
852.24	3988.1	
852.41	3571.7	
852.58	5613.5	
852.75	5165.7	
852.92	4080.2	
853.09	3470.6	
853.26	5377.3	
853.43	6275	
853.6	3568.9	
853.77	3104	
853.94	6341.2	
854.11	5739.8	
854.28	5390.3	
854.44	3921.2	
854.61	6826.6	
854.78	6191	
854.95	3571.7	
855.12	4595	
855.29	4629.1	
855.46	6515.3	
855.63	3567.6	
855.8	5023.7	
855.97	5339.1	
856.14	6192.4	
856.31	5158.8	
856.48	3980.6	
856.65	5279	
856.82	5017.5	
856.99	3442.6	
857.16	3858.4	
857.33	7184.3	
857.49	5420.3	
857.66	3850.2	
857.83	4242	
858	5407.3	
858.17	5648.3	
858.34	3414.6	
858.51	3559.4	
858.68	6594.5	
858.85	6587.6	
859.02	4217.5	
859.19	4498	
859.36	5058.5	
859.52	5187.5	
859.69	3611.3	
859.86	4296.6	
860.03	5163.6	
860.2	6462.7	
860.37	3258.3	
860.54	3641.3	
860.71	6016.2	
860.88	6477	
861.05	4055.7	
861.21	4519.2	
861.38	6462	
861.55	4929.5	
861.72	3286.3	
861.89	4006.5	
862.06	6130.3	
862.23	6618.4	
862.4	3463.8	
862.56	3727.3	
862.73	5945.9	
862.9	5612.1	
863.07	4265.2	
863.24	3291.1	
863.41	4934.2	
863.58	5079	
863.75	3667.2	
863.91	4142.4	
864.08	6431.3	
864.25	5954.1	
864.42	4583.4	
864.59	5044.8	
864.76	6821.8	
864.93	5079.6	
865.09	3500.7	
865.26	3773	
865.43	6363.7	
865.6	6676.4	
865.77	3160.7	
865.94	3574.4	
866.1	6369.9	
866.27	6118.6	
866.44	5390.9	
866.61	3415.3	
866.78	5502.2	
866.95	5946.6	
867.11	3500	
867.28	3146.4	
867.45	6193.1	
867.62	5187.5	
867.79	4140.3	
867.96	3588.7	
868.12	5030.5	
868.29	6149.4	
868.46	3550.5	
868.63	4915.8	
868.8	6300.9	
868.97	6008.7	
869.13	3808.5	
869.3	3789.4	
869.47	6023.1	
869.64	6137.8	
869.81	3634.5	
869.97	3588	
870.14	5805.3	
870.31	6500.9	
870.48	3467.2	
870.65	4475.5	
870.81	5393.7	
870.98	5397.1	
871.15	4126.7	
871.32	3786	
871.48	5862	
871.65	6567.8	
871.82	3601.7	
871.99	3952.6	
872.16	6830	
872.32	6468.9	
872.49	3590.1	
872.66	3644.7	
872.83	5996.5	
872.99	5294.7	
873.16	4146.5	
873.33	3540.9	
873.5	5643.5	
873.67	5712.5	
873.83	3780.6	
874	4845.5	
874.17	5805.3	
874.34	6973.3	
874.5	4754.7	
874.67	4534.2	
874.84	6442.2	
875.01	5076.2	
875.17	5083.7	
875.34	3563.5	
875.51	5732.3	
875.68	6890.7	
875.84	4326.7	
876.01	5324.7	
876.18	5950.7	
876.34	5923.4	
876.51	3633.1	
876.68	3530.7	
876.85	5466.7	
877.01	6354.2	
877.18	5221	
877.35	3592.8	
877.52	5586.2	
877.68	5016.8	
877.85	3523.9	
878.02	3552.5	
878.18	5572.5	
878.35	5240.8	
878.52	2866.5	
878.69	4033.8	
878.85	6061.3	
879.02	6055.8	
879.19	5122	
879.35	3837.2	
879.52	5975.3	
879.69	6225.8	
879.86	3104.7	
880.02	4067.3	
880.19	5565	
880.36	6920.8	
880.52	4162.8	
880.69	4272.1	
880.86	6073.6	
881.02	6214.9	
881.19	3951.9	
881.36	3902.7	
881.52	5941.2	
881.69	5308.3	
881.86	3881.6	
882.02	3829.7	
882.19	6274.3	
882.36	7385	
882.52	3636.5	
882.69	5162.2	
882.86	5847	
883.02	5683.1	
883.19	4390.8	
883.36	4169	
883.52	6078.4	
883.69	7081.2	
883.86	3604.4	
884.02	3244.7	
884.19	6105.7	
884.36	5542.5	
884.52	4101.4	
884.69	3790.1	
884.86	5289.2	
885.02	6722.8	
885.19	4046.1	
885.36	4156	
885.52	5580	
885.69	5745.9	
885.86	5202.5	
886.02	4609.3	
886.19	6142.5	
886.35	5521.3	
886.52	3973.7	
886.69	5096	
886.85	5135.6	
887.02	6447.7	
887.19	6447.7	
887.35	6447.7	
887.52	6447.7	
887.68	6447.7	
887.85	6447.7	
888.02	6447.7	
888.18	6447.7	
888.35	6447.7	
888.51	6447.7	
888.68	6447.7	
888.85	6447.7	
889.01	6447.7	
889.18	6447.7	
889.35	6447.7	
889.51	6447.7	
889.68	6447.7	
889.84	6447.7	
890.01	6447.7	
890.17	6447.7	
890.34	6447.7	
890.51	6447.7	
890.67	6447.7	
890.84	6447.7	
891	6447.7	
891.17	6447.7	
891.34	6447.7	
891.5	6447.7	
891.67	6447.7	
891.83	6447.7	
892	6447.7	
892.16	6447.7	
892.33	6447.7	
892.5	6447.7	
892.66	6447.7	
892.83	6447.7	
892.99	6447.7	
893.16	6447.7	
893.32	6447.7	
893.49	6447.7	
893.65	6447.7	
893.82	6447.7	
893.99	6447.7	
894.15	6447.7	
894.32	6447.7	
894.48	6447.7	
894.65	6447.7	
894.81	6447.7	
894.98	6447.7	
895.14	6447.7	
895.31	6447.7	
895.47	6447.7	
895.64	6447.7	
895.81	6447.7	
895.97	6447.7	
896.14	6447.7	
896.3	6447.7	
896.47	6447.7	
896.63	6447.7	
896.8	6447.7	
896.96	6447.7	
897.13	6447.7	
897.29	6447.7	
897.46	6447.7	
897.62	6447.7	
897.79	6447.7	
897.95	6447.7	
898.12	6447.7	
898.28	6447.7	
898.45	6447.7	
898.61	6447.7	
898.78	6447.7	
898.94	6447.7	
899.11	6447.7	
899.27	6447.7	
899.44	6447.7	
899.6	6447.7	
899.77	6447.7	
899.93	6447.7	
900.1	6447.7	
900.26	6447.7	
900.43	6447.7	
900.59	6447.7	
900.76	6447.7	
900.92	6447.7	
901.09	6447.7	
901.25	6447.7	
901.42	6447.7	
901.58	6447.7	
901.75	6447.7	
901.91	6447.7	
902.07	6447.7	
902.24	6447.7	
902.4	6447.7	
902.57	6447.7	
902.73	6447.7	
902.9	6447.7	
903.06	6447.7	
903.23	6447.7	
903.39	6447.7	
903.56	6447.7	
903.72	6447.7	
903.88	6447.7	
904.05	6447.7	
904.21	6447.7	
904.38	6447.7	
904.54	6447.7	
904.71	6447.7	
904.87	6447.7	
905.03	6447.7	
905.2	6447.7	
905.36	6447.7	
905.53	6447.7	
905.69	6447.7	
905.86	6447.7	
906.02	6447.7	
906.18	6447.7	
906.35	6447.7	
906.51	6447.7	
906.68	6447.7	
906.84	6447.7	
907.01	6447.7	
907.17	6447.7	
907.33	6447.7	
907.5	6447.7	
907.66	6447.7	
907.83	6447.7	
907.99	6447.7	
908.15	6447.7	
908.32	6447.7	
908.48	6447.7	
908.65	6447.7	
908.81	6447.7	
908.97	6447.7	
909.14	6447.7	
909.3	6447.7	
909.47	6447.7	
909.63	6447.7	
909.79	6447.7	
909.96	6447.7	
910.12	6447.7	
910.28	6447.7	
910.45	6447.7	
910.61	6447.7	
910.78	6447.7	
910.94	6447.7	
911.1	6447.7	
911.27	6447.7	
911.43	6447.7	
911.59	6447.7	
911.76	6447.7	
911.92	6447.7	
912.08	6447.7	
912.25	6447.7	
912.41	6447.7	
912.57	6447.7	
912.74	6447.7	
912.9	6447.7	
913.07	6447.7	
913.23	6447.7	
913.39	6447.7	
913.56	6447.7	
913.72	6447.7	
913.88	6447.7	
914.05	6447.7	
914.21	6447.7	
914.37	6447.7	
914.54	6447.7	
914.7	6447.7	
914.86	6447.7	
915.03	6447.7	
915.19	6447.7	
