Wavelength	Intensities	
nm	a.u.	
179.22	1630	
179.44	1629.8	
179.65	1630.2	
179.86	1629.5	
180.08	1604.9	
180.29	3650.8	
180.51	2833	
180.72	4785.4	
180.94	5264	
181.15	2540.8	
181.37	2600.2	
181.58	4526	
181.79	4696.7	
182.01	2666.5	
182.22	2739.5	
182.44	4788.2	
182.65	4162.8	
182.87	3334.8	
183.08	2983.2	
183.29	5038.7	
183.51	4247.5	
183.72	2743.6	
183.94	3800.3	
184.15	4524.6	
184.37	4386.7	
184.58	2482.1	
184.79	3164.8	
185.01	4290.5	
185.22	4800.4	
185.44	3342.3	
185.65	2945.7	
185.86	4560.8	
186.08	4154.6	
186.29	2453.5	
186.51	2681.5	
186.72	4268	
186.94	4859.8	
187.15	3018	
187.36	2961.4	
187.58	5976	
187.79	4599.1	
188.01	3036.5	
188.22	4569	
188.43	5296	
188.65	4735.6	
188.86	2620.7	
189.08	2999.6	
189.29	4334.2	
189.5	4343.1	
189.72	2805.7	
189.93	2893.8	
190.15	4878.9	
190.36	5564.3	
190.57	3024.8	
190.79	2953.9	
191	4853.7	
191.22	4847.5	
191.43	3096.5	
191.64	2639.8	
191.86	5081	
192.07	4840	
192.29	2711.5	
192.5	2773.6	
192.71	4863.9	
192.93	4390.8	
193.14	2767.5	
193.35	2881.5	
193.57	4350.6	
193.78	4853	
194	2376.3	
194.21	2758.6	
194.42	4209.9	
194.64	4533.5	
194.85	2995.5	
195.07	3405.1	
195.28	4487.1	
195.49	4057	
195.71	3592.8	
195.92	2661.7	
196.13	4689.2	
196.35	4653.7	
196.56	3752.6	
196.78	3019.4	
196.99	5586.2	
197.2	5195.7	
197.42	3325.2	
197.63	3044.6	
197.84	4137.6	
198.06	4619.5	
198.27	2779.8	
198.48	3536.2	
198.7	4297.3	
198.91	4541	
199.13	3038.5	
199.34	3018	
199.55	4883.7	
199.77	3913.7	
199.98	2723.8	
200.19	3016	
200.41	4444.8	
200.62	4201.1	
200.83	3084.9	
201.05	3356.6	
201.26	4474.1	
201.47	4345.8	
201.69	2704	
201.9	2693.8	
202.11	4512.4	
202.33	5130.2	
202.54	2850.1	
202.76	3142.9	
202.97	4547.2	
203.18	4642.1	
203.4	3125.2	
203.61	3170.3	
203.82	4597.7	
204.04	4296	
204.25	3005.1	
204.46	2954.5	
204.68	4511	
204.89	4646.2	
205.1	2930	
205.32	2650.8	
205.53	4723.3	
205.74	4837.3	
205.96	2372.9	
206.17	3054.9	
206.38	4722.6	
206.6	4814.1	
206.81	3424.9	
207.02	2865.1	
207.24	4691.9	
207.45	4952.7	
207.66	2889.7	
207.88	2603	
208.09	4672.1	
208.3	4470.7	
208.52	2717	
208.73	2949.8	
208.94	4514.4	
209.15	5017.5	
209.37	2905.4	
209.58	2992.8	
209.79	4881	
210.01	4412	
210.22	2421.4	
210.43	2547	
210.65	4465.3	
210.86	4713.7	
211.07	2906.8	
211.29	2658.3	
211.5	4642.1	
211.71	4472.1	
211.93	2729.9	
212.14	2729.9	
212.35	4447.5	
212.56	4521.9	
212.78	3044.6	
212.99	2538.1	
213.2	5124	
213.42	4442	
213.63	2783.2	
213.84	2900.6	
214.06	4136.2	
214.27	4193.6	
214.48	2853.5	
214.69	3122.5	
214.91	4990.2	
215.12	4999.8	
215.33	3035.8	
215.55	3294.5	
215.76	5340.4	
215.97	4711	
216.18	2938.2	
216.4	2949.8	
216.61	4237.2	
216.82	4799.1	
217.04	2704	
217.25	2815.3	
217.46	4844.1	
217.67	4767.7	
217.89	2491.7	
218.1	2532	
218.31	4508.9	
218.53	4680.3	
218.74	2892.4	
218.95	2755.2	
219.16	4496	
219.38	5171.1	
219.59	2762.7	
219.8	3257.6	
220.01	5429.2	
220.23	4520.5	
220.44	3463.8	
220.65	2671.2	
220.87	4563.6	
221.08	4925.4	
221.29	2577	
221.5	3263.8	
221.72	5679	
221.93	4315.1	
222.14	3035.8	
222.35	3473.4	
222.57	4511	
222.78	4805.2	
222.99	2934.1	
223.2	3130	
223.42	4690.5	
223.63	4799.1	
223.84	2344.2	
224.05	2342.2	
224.27	5383.4	
224.48	5027.8	
224.69	3523.2	
224.9	3071.3	
225.12	4621.6	
225.33	4499.4	
225.54	2532	
225.75	2757.9	
225.97	4249.5	
226.18	4425	
226.39	2899.9	
226.6	2728.6	
226.82	4348.5	
227.03	4190.1	
227.24	3047.4	
227.45	2567.5	
227.67	4829.1	
227.88	5016.8	
228.09	3304.1	
228.3	3346.4	
228.52	4755.4	
228.73	4495.3	
228.94	2807.1	
229.15	2588.6	
229.36	4513.7	
229.58	4492.6	
229.79	2940.9	
230	3265.8	
230.21	5229.1	
230.43	4567.7	
230.64	2982.5	
230.85	3084.9	
231.06	4829.8	
231.28	4822.3	
231.49	2573.6	
231.7	3059.7	
231.91	4774.5	
232.12	4496.7	
232.34	2680.8	
232.55	2911.5	
232.76	4906.3	
232.97	4613.4	
233.18	2740.2	
233.4	3011.9	
233.61	4573.8	
233.82	4296.6	
234.03	2839.8	
234.25	2880.8	
234.46	5816.2	
234.67	4512.4	
234.88	3064.4	
235.09	2798.9	
235.31	4645.5	
235.52	4403.8	
235.73	2981.2	
235.94	2606.4	
236.15	4327.4	
236.37	5203.9	
236.58	2707.4	
236.79	2875.3	
237	4732.9	
237.21	4153.3	
237.43	3140.9	
237.64	2552.5	
237.85	7055.3	
238.06	4281.6	
238.27	3089.7	
238.48	2612.5	
238.7	4747.2	
238.91	4407.9	
239.12	2863.1	
239.33	3000.3	
239.54	4374.5	
239.76	4407.2	
239.97	2960.7	
240.18	2937.5	
240.39	5277.6	
240.6	4599.7	
240.82	3016	
241.03	2601.6	
241.24	4465.9	
241.45	5036	
241.66	2660.3	
241.87	3167.5	
242.09	4967.7	
242.3	5205.9	
242.51	3194.8	
242.72	2911.5	
242.93	4754.7	
243.14	4470.7	
243.36	3314.3	
243.57	3486.3	
243.78	5074.9	
243.99	4685.8	
244.2	2918.4	
244.41	2679.4	
244.63	4170.3	
244.84	4649.6	
245.05	3081.5	
245.26	2884.9	
245.47	4729.4	
245.68	4755.4	
245.9	3677.5	
246.11	3078.8	
246.32	4347.8	
246.53	4635.9	
246.74	4506.2	
246.95	2600.2	
247.16	4256.4	
247.38	4494.6	
247.59	2532.7	
247.8	2942.2	
248.01	4191.5	
248.22	4511.7	
248.43	2659.6	
248.64	2891.7	
248.86	4179.9	
249.07	4445.5	
249.28	2656.2	
249.49	3061.7	
249.7	4887.8	
249.91	4870.8	
250.12	2569.5	
250.34	2547.7	
250.55	4573.8	
250.76	4509.6	
250.97	2998.9	
251.18	3017.3	
251.39	4890.5	
251.6	4551.3	
251.81	3067.2	
252.03	3081.5	
252.24	4358.8	
252.45	4749.2	
252.66	2584.5	
252.87	3138.9	
253.08	4511	
253.29	5550.7	
253.5	2656.2	
253.72	3507.5	
253.93	4504.2	
254.14	5122.7	
254.35	2820.1	
254.56	2859	
254.77	4640	
254.98	4231.8	
255.19	2841.2	
255.41	3439.2	
255.62	4651.6	
255.83	4902.2	
256.04	3157.3	
256.25	3006.4	
256.46	5295.4	
256.67	4337.6	
256.88	3013.2	
257.09	3263.1	
257.31	4199	
257.52	4279.6	
257.73	3702	
257.94	2805.7	
258.15	4483	
258.36	4471.4	
258.57	3381.2	
258.78	2339.5	
258.99	4830.5	
259.2	4386.7	
259.41	2770.2	
259.63	2915.6	
259.84	4992.9	
260.05	5276.9	
260.26	3494.5	
260.47	2788.7	
260.68	4884.4	
260.89	4409.3	
261.1	3304.7	
261.31	2689.7	
261.52	4965.6	
261.73	5083.1	
261.95	3517.7	
262.16	3086.3	
262.37	4945.8	
262.58	5037.3	
262.79	3479.5	
263	2813.2	
263.21	4607.2	
263.42	4089.1	
263.63	3055.6	
263.84	2825.5	
264.05	4790.9	
264.26	5031.2	
264.47	3375.1	
264.69	3097.9	
264.9	5064.6	
265.11	4625.7	
265.32	2742.2	
265.53	2795.5	
265.74	4533.5	
265.95	4035.2	
266.16	2984.6	
266.37	3207.1	
266.58	4598.4	
266.79	4285	
267	2824.1	
267.21	2594.1	
267.42	4215.4	
267.63	4504.8	
267.84	2904	
268.06	2558.6	
268.27	4838.7	
268.48	4940.4	
268.69	2905.4	
268.9	3296.5	
269.11	4950.6	
269.32	4063.9	
269.53	2975.7	
269.74	2719	
269.95	4638.6	
270.16	4109.6	
270.37	2955.9	
270.58	3295.9	
270.79	4421.6	
271	4857.8	
271.21	3040.6	
271.42	2992.8	
271.63	4689.2	
271.84	4205.2	
272.05	2421.4	
272.26	2620.7	
272.47	4518.5	
272.68	4619.5	
272.89	2860.3	
273.11	3120.4	
273.32	4354.7	
273.53	5063.9	
273.74	3065.8	
273.95	3022.8	
274.16	4789.5	
274.37	4459.8	
274.58	3218	
274.79	2661	
275	4649.6	
275.21	4835.9	
275.42	3749.1	
275.63	3155.9	
275.84	4726	
276.05	5601.9	
276.26	3049.4	
276.47	2840.5	
276.68	4450.2	
276.89	5176.6	
277.1	3210.5	
277.31	2581.8	
277.52	4639.3	
277.73	4873.5	
277.94	2594.1	
278.15	2837.1	
278.36	4666.6	
278.57	4308.2	
278.78	2859.6	
278.99	3156.6	
279.2	4357.4	
279.41	4222.9	
279.62	3592.8	
279.83	2652.1	
280.04	5311.7	
280.25	4177.2	
280.46	3523.2	
280.67	2919	
280.88	4274.8	
281.09	4898.1	
281.3	3053.5	
281.51	3710.9	
281.72	4364.9	
281.93	4769.7	
282.14	2761.3	
282.35	2993.4	
282.56	4866.7	
282.77	4822.3	
282.98	2857.6	
283.19	3343.7	
283.4	5651.7	
283.61	4489.1	
283.82	2718.3	
284.03	3547.8	
284.24	4617.5	
284.45	4850.3	
284.66	3599.6	
284.87	3375.1	
285.08	4925.4	
285.29	4953.4	
285.5	2591.4	
285.71	2895.8	
285.92	4840	
286.12	5296	
286.33	3488.4	
286.54	2896.5	
286.75	4779.3	
286.96	4395.6	
287.17	2649.4	
287.38	3403.7	
287.59	4297.3	
287.8	4330.1	
288.01	2861.7	
288.22	3215.3	
288.43	4696	
288.64	4095.9	
288.85	3304.7	
289.06	3213.9	
289.27	4806.6	
289.48	5051.7	
289.69	3581.9	
289.9	3234.4	
290.11	4969.7	
290.32	4370.4	
290.53	3316.3	
290.74	3095.8	
290.94	4807.9	
291.15	4784.7	
291.36	2746.3	
291.57	3164.8	
291.78	4431.1	
291.99	4092.5	
292.2	2713.6	
292.41	3160	
292.62	4893.3	
292.83	4738.3	
293.04	3734.1	
293.25	2760	
293.46	4423.6	
293.67	4861.2	
293.88	2707.4	
294.09	2697.2	
294.29	4274.1	
294.5	4607.2	
294.71	2972.3	
294.92	2795.5	
295.13	4397	
295.34	5292	
295.55	2549	
295.76	2472.6	
295.97	4773.8	
296.18	5170.4	
296.39	2680.1	
296.6	2811.2	
296.81	4556	
297.01	4792.9	
297.22	2878.8	
297.43	2809.1	
297.64	4377.9	
297.85	4229.1	
298.06	2402.3	
298.27	2541.5	
298.48	4493.2	
298.69	4278.2	
298.9	2968.9	
299.11	2756.6	
299.31	4224.3	
299.52	4233.8	
299.73	3151.1	
299.94	3165.5	
300.15	4530.1	
300.36	4299.4	
300.57	3061.7	
300.78	3052.2	
300.99	4377.9	
301.2	4577.2	
301.4	2798.9	
301.61	2996.2	
301.82	4672.8	
302.03	4796.3	
302.24	3258.3	
302.45	2659.6	
302.66	4687.1	
302.87	4889.2	
303.08	2775.7	
303.29	3577.1	
303.49	4415.4	
303.7	4414.1	
303.91	2523.8	
304.12	3461.7	
304.33	4137.6	
304.54	4652.3	
304.75	2837.8	
304.96	2680.1	
305.16	4732.2	
305.37	5187.5	
305.58	2519	
305.79	2542.2	
306	4720.6	
306.21	4056.3	
306.42	2757.2	
306.63	3966.2	
306.83	4386.1	
307.04	4719.2	
307.25	3035.1	
307.46	2997.5	
307.67	4050.2	
307.88	4687.8	
308.09	2784.6	
308.29	2779.8	
308.5	4572.4	
308.71	4851	
308.92	2968.9	
309.13	2615.3	
309.34	4483	
309.55	4456.4	
309.75	3400.3	
309.96	3080.8	
310.17	4812.7	
310.38	4267.3	
310.59	3165.5	
310.8	2643.9	
311.01	4450.9	
311.21	4412.7	
311.42	2728.6	
311.63	2733.4	
311.84	4375.1	
312.05	4533.5	
312.26	3082.9	
312.46	3265.8	
312.67	4413.4	
312.88	4171	
313.09	2657.6	
313.3	2699.9	
313.51	5031.9	
313.71	5223.7	
313.92	2720.4	
314.13	2822.8	
314.34	4672.8	
314.55	4483.7	
314.76	3317.7	
314.96	2973.7	
315.17	4647.5	
315.38	4728.8	
315.59	2740.2	
315.8	2622.1	
316.01	4967.7	
316.21	5052.3	
316.42	2683.5	
316.63	2938.8	
316.84	4389.5	
317.05	4883	
317.26	3099.3	
317.46	2817.3	
317.67	4450.9	
317.88	4746.5	
318.09	3374.4	
318.3	2552.5	
318.5	4357.4	
318.71	4653.7	
318.92	4122.6	
319.13	3160.7	
319.34	4794.3	
319.54	4900.8	
319.75	2543.6	
319.96	2515.6	
320.17	4724.7	
320.38	4849.6	
320.58	2555.2	
320.79	2904	
321	4856.4	
321.21	4964.3	
321.42	2958.6	
321.62	2546.3	
321.83	4315.1	
322.04	4567	
322.25	2883.5	
322.46	2727.9	
322.66	4567	
322.87	4698	
323.08	3197.6	
323.29	2668.5	
323.5	5212.1	
323.7	4170.3	
323.91	3540.3	
324.12	3169.6	
324.33	4654.4	
324.53	4734.9	
324.74	3058.3	
324.95	3203.7	
325.16	4156.7	
325.37	4419.5	
325.57	2718.3	
325.78	2725.8	
325.99	4671.4	
326.2	4188.1	
326.4	3702	
326.61	2520.4	
326.82	4455	
327.03	4625	
327.24	3673.4	
327.44	3475.4	
327.65	4691.2	
327.86	3999.7	
328.07	3109.5	
328.27	2655.5	
328.48	4980.7	
328.69	4186	
328.9	3596.9	
329.1	2853.5	
329.31	4468.7	
329.52	5014.1	
329.73	2774.3	
329.93	2898.6	
330.14	4614.1	
330.35	4662.5	
330.56	4152.6	
330.76	3254.2	
330.97	4358.8	
331.18	4595.6	
331.39	2983.2	
331.59	2450.1	
331.8	4936.3	
332.01	4971.1	
332.22	2826.2	
332.42	3056.3	
332.63	4584.7	
332.84	4233.2	
333.05	2990.7	
333.25	2755.9	
333.46	4281.6	
333.67	4455.7	
333.88	2841.2	
334.08	3005.7	
334.29	5750	
334.5	4847.5	
334.7	2639.8	
334.91	3611.9	
335.12	4157.4	
335.33	4737.6	
335.53	2957.3	
335.74	4058.4	
335.95	4416.1	
336.16	4188.8	
336.36	2945.7	
336.57	3291.1	
336.78	4144.4	
336.98	4874.8	
337.19	3541.6	
337.4	2856.9	
337.61	5275.6	
337.81	4199.7	
338.02	2784.6	
338.23	3340.2	
338.43	5026.4	
338.64	4276.2	
338.85	2704.7	
339.05	3452.9	
339.26	5161.6	
339.47	4126.7	
339.68	2742.2	
339.88	3817.4	
340.09	4769.7	
340.3	4855.7	
340.5	3064.4	
340.71	2512.2	
340.92	4184	
341.13	4932.9	
341.33	2618.7	
341.54	3119.7	
341.75	4642.1	
341.95	4350.6	
342.16	3007.1	
342.37	3250.8	
342.57	4192.9	
342.78	4448.9	
342.99	3223.5	
343.19	2527.9	
343.4	4749.9	
343.61	4674.1	
343.81	2879.4	
344.02	2610.5	
344.23	4769	
344.43	4971.1	
344.64	3261	
344.85	3215.3	
345.06	4684.4	
345.26	4855.1	
345.47	3109.5	
345.68	3497.2	
345.88	4161.5	
346.09	4818.2	
346.3	3134.1	
346.5	2492.4	
346.71	4401.1	
346.92	4308.2	
347.12	2599.6	
347.33	3033	
347.54	4854.4	
347.74	5082.4	
347.95	3006.4	
348.16	2401.6	
348.36	4373.1	
348.57	4240	
348.78	3151.8	
348.98	3164.1	
349.19	4437.9	
349.39	4070.7	
349.6	2564.7	
349.81	2760	
350.01	4709.6	
350.22	4267.3	
350.43	2988.7	
350.63	3424.9	
350.84	4489.8	
351.05	4295.3	
351.25	2654.9	
351.46	2535.4	
351.67	4782.7	
351.87	4263.9	
352.08	2871.9	
352.29	3173	
352.49	4737	
352.7	4577.2	
352.9	2631	
353.11	3195.5	
353.32	5146.5	
353.52	4356	
353.73	2662.4	
353.94	3234.4	
354.14	4668	
354.35	4435.9	
354.55	2713.6	
354.76	2914.3	
354.97	4632.5	
355.17	4404.5	
355.38	2605	
355.59	3393.5	
355.79	4209.9	
356	4371.7	
356.2	2908.1	
356.41	2615.3	
356.62	4120.5	
356.82	4425	
357.03	3117.7	
357.24	2787.3	
357.44	4231.1	
357.65	4290.5	
357.85	3590.8	
358.06	3019.4	
358.27	4023.6	
358.47	4104.1	
358.68	2555.2	
358.88	3091.1	
359.09	4599.7	
359.3	4774.5	
359.5	3502	
359.71	3140.9	
359.91	5030.5	
360.12	4594.3	
360.33	3055.6	
360.53	3381.2	
360.74	4239.3	
360.94	4276.2	
361.15	3204.4	
361.36	2727.9	
361.56	4782.7	
361.77	4397.7	
361.97	3502	
362.18	2884.2	
362.38	4761.5	
362.59	4102.8	
362.8	2648	
363	2601.6	
363.21	3986.7	
363.41	4370.4	
363.62	2983.2	
363.83	3565.5	
364.03	4576.5	
364.24	4982	
364.44	3698.6	
364.65	3615.3	
364.85	4360.8	
365.06	4145.1	
365.27	2718.3	
365.47	2843.3	
365.68	4960.9	
365.88	4314.4	
366.09	3054.2	
366.29	2771.6	
366.5	4386.7	
366.71	4708.3	
366.91	3627.6	
367.12	3166.2	
367.32	5094.7	
367.53	4631.1	
367.73	3119.7	
367.94	3797.6	
368.14	4689.2	
368.35	5085.1	
368.56	3036.5	
368.76	2720.4	
368.97	4735.6	
369.17	5664	
369.38	2702	
369.58	2908.1	
369.79	4032.5	
369.99	4999.8	
370.2	3551.9	
370.4	3013.2	
370.61	4479.6	
370.82	5292.6	
371.02	2937.5	
371.23	2528.6	
371.43	4065.2	
371.64	4922.6	
371.84	2966.8	
372.05	3616	
372.25	5612.8	
372.46	4544.4	
372.66	2919.7	
372.87	2899.9	
373.07	4625	
373.28	5716.6	
373.48	3495.2	
373.69	3336.8	
373.9	4407.9	
374.1	4362.2	
374.31	3537.5	
374.51	3164.8	
374.72	4904.2	
374.92	4155.3	
375.13	3543.7	
375.33	3121.8	
375.54	4502.1	
375.74	4287.8	
375.95	3151.8	
376.15	3885.7	
376.36	4605.9	
376.56	4466.6	
376.77	3091.8	
376.97	3382.6	
377.18	5293.3	
377.38	4661.2	
377.59	3513.6	
377.79	2855.6	
378	4450.2	
378.2	4638.6	
378.41	2809.1	
378.61	2801.6	
378.82	4809.3	
379.02	4226.3	
379.23	2977.7	
379.43	3601.7	
379.64	4965	
379.84	4588.8	
380.05	2846	
380.25	2768.2	
380.46	4614.8	
380.66	4381.3	
380.87	3687.7	
381.07	3917.8	
381.28	5068.7	
381.48	4638.6	
381.69	2912.2	
381.89	2891	
382.1	4004.5	
382.3	4698	
382.51	3615.3	
382.71	4103.4	
382.91	4628.4	
383.12	4901.5	
383.32	3130.7	
383.53	3201	
383.73	4582.7	
383.94	4454.3	
384.14	3236.5	
384.35	2686.9	
384.55	4344.4	
384.76	4574.5	
384.96	3135.4	
385.17	3318.4	
385.37	4695.3	
385.58	4151.9	
385.78	3254.2	
385.98	2607.7	
386.19	4383.3	
386.39	4648.9	
386.6	2974.3	
386.8	3117	
387.01	4671.4	
387.21	4683.7	
387.42	3342.3	
387.62	3659.7	
387.83	4270.7	
388.03	4481	
388.23	3166.8	
388.44	3573.7	
388.64	4126	
388.85	4079.6	
389.05	3345	
389.26	3660.4	
389.46	5432.6	
389.67	4972.5	
389.87	3309.5	
390.07	3313.6	
390.28	4379.2	
390.48	4115.7	
390.69	2831.7	
390.89	3076.7	
391.1	4276.8	
391.3	4809.3	
391.5	3800.3	
391.71	4097.3	
391.91	4671.4	
392.12	5167.7	
392.32	3837.9	
392.53	3295.2	
392.73	4362.9	
392.93	4418.8	
393.14	3134.8	
393.34	3603.7	
393.55	4721.3	
393.75	4362.9	
393.95	3209.2	
394.16	3087.7	
394.36	4308.9	
394.57	4713.1	
394.77	2811.2	
394.98	3123.2	
395.18	4246.8	
395.38	4345.8	
395.59	3582.6	
395.79	2918.4	
396	4319.8	
396.2	4658.4	
396.4	3473.4	
396.61	3368.9	
396.81	4670.1	
397.02	4257	
397.22	3603.1	
397.42	3587.4	
397.63	4790.2	
397.83	4237.9	
398.04	2916.3	
398.24	3227.6	
398.44	4579.3	
398.65	3896.6	
398.85	2810.5	
399.05	2862.4	
399.26	4274.8	
399.46	5253	
399.67	3125.9	
399.87	2906.1	
400.07	4419.5	
400.28	4651.6	
400.48	2949.1	
400.69	3625.6	
400.89	4664.6	
401.09	5074.2	
401.3	2914.3	
401.5	3553.9	
401.7	5145.9	
401.91	5369.1	
402.11	3091.1	
402.32	3257.6	
402.52	4842.1	
402.72	4752	
402.93	3514.3	
403.13	2674.6	
403.33	5322	
403.54	4422.9	
403.74	3209.2	
403.94	3779.9	
404.15	4586.8	
404.35	5261.9	
404.56	3128.6	
404.76	4215.4	
404.96	4775.2	
405.17	4638	
405.37	3667.9	
405.57	3362.8	
405.78	4801.8	
405.98	4539.7	
406.18	3113.6	
406.39	3592.8	
406.59	4814.8	
406.79	4526.7	
407	2931.3	
407.2	3033	
407.4	5090.6	
407.61	4979.3	
407.81	3013.9	
408.01	4382.7	
408.22	4063.2	
408.42	5280.3	
408.62	3607.2	
408.83	3317.7	
409.03	4415.4	
409.23	4406.5	
409.44	3298.6	
409.64	3472	
409.84	5031.9	
410.05	5018.2	
410.25	3428.3	
410.45	3262.4	
410.66	4635.9	
410.86	6246.3	
411.06	3522.5	
411.27	3387.3	
411.47	6040.1	
411.67	4702.8	
411.88	3548.4	
412.08	3667.9	
412.28	5115.1	
412.49	5395	
412.69	3396.2	
412.89	3462.4	
413.09	5335	
413.3	5212.1	
413.5	3508.2	
413.7	3272.7	
413.91	4767.7	
414.11	5326.1	
414.31	3312.9	
414.52	3605.8	
414.72	5102.9	
414.92	5018.2	
415.12	3317	
415.33	3700.7	
415.53	5204.6	
415.73	5335.6	
415.94	3855.6	
416.14	3461.7	
416.34	4707.6	
416.55	4535.6	
416.75	4300.1	
416.95	3933.5	
417.15	5309	
417.36	5721.3	
417.56	4392.2	
417.76	3747.1	
417.97	5468.8	
418.17	5278.3	
418.37	3632.4	
418.57	3558	
418.78	5300.1	
418.98	4980.7	
419.18	4085.7	
419.38	4185.4	
419.59	4935.6	
419.79	4771.8	
419.99	3536.2	
420.2	3740.3	
420.4	5356.1	
420.6	5315.8	
420.8	3463.8	
421.01	3394.8	
421.21	5251	
421.41	5186.1	
421.61	3676.1	
421.82	3523.9	
422.02	4952	
422.22	5549.3	
422.42	4047.5	
422.63	3841.3	
422.83	4966.3	
423.03	5773.2	
423.23	3921.2	
423.44	3224.2	
423.64	4955.4	
423.84	4822.3	
424.04	3506.8	
424.25	3302	
424.45	5629.9	
424.65	5541.1	
424.85	3166.2	
425.06	3504.8	
425.26	5803.3	
425.46	4909.7	
425.66	3835.8	
425.87	3601	
426.07	5414.1	
426.27	5331.5	
426.47	3719.1	
426.67	3388.7	
426.88	5714.5	
427.08	5341.1	
427.28	3892.5	
427.48	3306.1	
427.69	4704.2	
427.89	5065.3	
428.09	3835.2	
428.29	3364.8	
428.5	5395	
428.7	5182.7	
428.9	3357.3	
429.1	3562.8	
429.3	5168.4	
429.51	5350	
429.71	3523.2	
429.91	4029	
430.11	5389.6	
430.31	5717.2	
430.52	3700.7	
430.72	3817.4	
430.92	5766.4	
431.12	5354.1	
431.32	3440.6	
431.53	3768.9	
431.73	4687.1	
431.93	5720	
432.13	3412.6	
432.33	3326.6	
432.54	4999.8	
432.74	5157.5	
432.94	3312.2	
433.14	4008.6	
433.34	5440.1	
433.55	5098.8	
433.75	3928.7	
433.95	5013.4	
434.15	5203.2	
434.35	4983.4	
434.56	3435.8	
434.76	3163.4	
434.96	5149.3	
435.16	5348.6	
435.36	3333.4	
435.56	4107.5	
435.77	5014.8	
435.97	5104.2	
436.17	4412	
436.37	3994.9	
436.57	4962.2	
436.78	4877.6	
436.98	3955.3	
437.18	4394.3	
437.38	5296	
437.58	5056.4	
437.78	4527.4	
437.99	3622.9	
438.19	5455.8	
438.39	5981.4	
438.59	3743	
438.79	3272.7	
438.99	5829.2	
439.2	5039.4	
439.4	3385.3	
439.6	3311.6	
439.8	5165.7	
440	5909.8	
440.2	3885.7	
440.4	3986	
440.61	5552.7	
440.81	5848.3	
441.01	3465.2	
441.21	4004.5	
441.41	5781.4	
441.61	5512.4	
441.81	4233.2	
442.02	4753.3	
442.22	6107.7	
442.42	5672.2	
442.62	3499.3	
442.82	3573	
443.02	5788.9	
443.22	5296.7	
443.43	3835.2	
443.63	3474.7	
443.83	5136.3	
444.03	5066	
444.23	4257.7	
444.43	4020.2	
444.63	5371.1	
444.83	6049.7	
445.04	3688.4	
445.24	4363.5	
445.44	5660.6	
445.64	5644.9	
445.84	4149.2	
446.04	4187.4	
446.24	5198.4	
446.44	5870.8	
446.65	3647.4	
446.85	3821.5	
447.05	5225.7	
447.25	5795.8	
447.45	4012.7	
447.65	3534.8	
447.85	5473.5	
448.05	5142.4	
448.25	4129.4	
448.46	4012.7	
448.66	5406.6	
448.86	5184.8	
449.06	3474.7	
449.26	4181.3	
449.46	5597.1	
449.66	5013.4	
449.86	3878.9	
450.06	3805.1	
450.26	5155.4	
450.47	5539.8	
450.67	4068.6	
450.87	4248.9	
451.07	5674.9	
451.27	5415.5	
451.47	3595.6	
451.67	4156	
451.87	5158.2	
452.07	5991.7	
452.27	3746.4	
452.47	3719.1	
452.67	5468.8	
452.88	5740.5	
453.08	3485.6	
453.28	4521.9	
453.48	6252.4	
453.68	5395	
453.88	3662.5	
454.08	3823.6	
454.28	5674.9	
454.48	5423.7	
454.68	4194.9	
454.88	4490.5	
455.08	5806.7	
455.28	5452.4	
455.48	3617.4	
455.68	3977.8	
455.89	6072.9	
456.09	5801.9	
456.29	3887.7	
456.49	3902.1	
456.69	5952.1	
456.89	5428.5	
457.09	4191.5	
457.29	4442.7	
457.49	5689.3	
457.69	5797.8	
457.89	4038.6	
458.09	3722.5	
458.29	5564.3	
458.49	6059.3	
458.69	4339.6	
458.89	3973.7	
459.09	6144.6	
459.29	6232	
459.49	4056.3	
459.69	4566.3	
459.9	5870.2	
460.1	5520	
460.3	4015.4	
460.5	3910.3	
460.7	5917.9	
460.9	5551.4	
461.1	3624.9	
461.3	4358.8	
461.5	6294.1	
461.7	5911.1	
461.9	3900	
462.1	4252.9	
462.3	5722.7	
462.5	6077	
462.7	3911.6	
462.9	4005.8	
463.1	6765.1	
463.3	6482.5	
463.5	4150.6	
463.7	4726	
463.9	5910.4	
464.1	6072.2	
464.3	4257	
464.5	4416.8	
464.7	6220.4	
464.9	5988.3	
465.1	5246.2	
465.3	4628.4	
465.5	6445.6	
465.7	6493.4	
465.9	4839.4	
466.1	4657.1	
466.3	6262.7	
466.5	6209.4	
466.7	5147.9	
466.9	4532.8	
467.1	6354.8	
467.3	6821.8	
467.5	5175.2	
467.7	4497.3	
467.9	6983.6	
468.1	7449.8	
468.3	4929.5	
468.5	5239.4	
468.7	6118.6	
468.9	6072.2	
469.1	4717.8	
469.3	5116.5	
469.5	7515.4	
469.7	5885.9	
469.9	5025	
470.1	4545.1	
470.3	6385.6	
470.5	6298.9	
470.7	5427.8	
470.9	4620.9	
471.1	6117.3	
471.3	6413.6	
471.5	4513.7	
471.69	5674.2	
471.89	6101.6	
472.09	5736.4	
472.29	4990.9	
472.49	5274.2	
472.69	5923.4	
472.89	6337.1	
473.09	4437.3	
473.29	4617.5	
473.49	6085.2	
473.69	6002.6	
473.89	5169.8	
474.09	4613.4	
474.29	6963.8	
474.49	6669.6	
474.69	5181.4	
474.89	4722.6	
475.09	6140.5	
475.29	6158.9	
475.49	4372.4	
475.69	4562.2	
475.88	7176.8	
476.08	6389	
476.28	4323.3	
476.48	4602.5	
476.68	6679.8	
476.88	6490.7	
477.08	4590.9	
477.28	4720.6	
477.48	6244.9	
477.68	6578.8	
477.88	4421.6	
478.08	4639.3	
478.28	6827.9	
478.48	6266.8	
478.67	4666	
478.87	4320.5	
479.07	6660.7	
479.27	6313.9	
479.47	4842.8	
479.67	4815.5	
479.87	6574.7	
480.07	6881.2	
480.27	4373.8	
480.47	5357.5	
480.67	6354.8	
480.87	6791.7	
481.06	4548.5	
481.26	5146.5	
481.46	6390.3	
481.66	6309.8	
481.86	4928.8	
482.06	5445.5	
482.26	6195.8	
482.46	6766.5	
482.66	4851	
482.86	4540.3	
483.05	6548	
483.25	5976.7	
483.45	6378.1	
483.65	4778.6	
483.85	6111.1	
484.05	6307.1	
484.25	5090.6	
484.45	5352	
484.65	6717.3	
484.84	6930.3	
485.04	4788.8	
485.24	4883.7	
485.44	7157.7	
485.64	5993.7	
485.84	4387.4	
486.04	5190.9	
486.24	6257.2	
486.44	6489.3	
486.63	4325.3	
486.83	4919.9	
487.03	6236.7	
487.23	6350.8	
487.43	4491.2	
487.63	5828.5	
487.83	6422.4	
488.02	6758.3	
488.22	4980.7	
488.42	5462.6	
488.62	7025.9	
488.82	6244.3	
489.02	4840	
489.22	4844.8	
489.41	6859.3	
489.61	6645	
489.81	4635.2	
490.01	4657.8	
490.21	6897.6	
490.41	7262.8	
490.61	4686.4	
490.8	4770.4	
491	6561	
491.2	6140.5	
491.4	5192.3	
491.6	4688.5	
491.8	6647	
491.99	6641.6	
492.19	4609.3	
492.39	4653	
492.59	6837.5	
492.79	6866.2	
492.99	5229.1	
493.18	4614.8	
493.38	7006.8	
493.58	7319.4	
493.78	5091.9	
493.98	4831.8	
494.18	6701.6	
494.37	6384.2	
494.57	5308.3	
494.77	5313.1	
494.97	6880.5	
495.17	7056.6	
495.37	4971.8	
495.56	5200.5	
495.76	7217	
495.96	6978.1	
496.16	5821	
496.36	5191.6	
496.55	7189.1	
496.75	6771.3	
496.95	5466	
497.15	5315.8	
497.35	7223.9	
497.54	7079.1	
497.74	5279	
497.94	6214.9	
498.14	7519.5	
498.34	7413.6	
498.53	4924	
498.73	5537	
498.93	6630	
499.13	7085.3	
499.33	5448.3	
499.52	5705	
499.72	7165.8	
499.92	7207.5	
500.12	5244.8	
500.32	5459.9	
500.51	7264.8	
500.71	7101	
500.91	5934.3	
501.11	5656.5	
501.31	7336.5	
501.5	7586.4	
501.7	6169.2	
501.9	5489.2	
502.1	7069.6	
502.29	7445.7	
502.49	5773.2	
502.69	5997.1	
502.89	7333.8	
503.09	7354.9	
503.28	5146.5	
503.48	5294.7	
503.68	6908.5	
503.88	6908.5	
504.07	5857.9	
504.27	5554.8	
504.47	7107.8	
504.67	7215.7	
504.86	5799.8	
505.06	5585.5	
505.26	7008.1	
505.46	7987.1	
505.65	5481.7	
505.85	5697.4	
506.05	6946.7	
506.25	7245.7	
506.44	5145.9	
506.64	5722.7	
506.84	6862.1	
507.04	7348.1	
507.23	5214.8	
507.43	5545.2	
507.63	7965.2	
507.83	6833.4	
508.02	5617.6	
508.22	5296	
508.42	8280.6	
508.62	6797.2	
508.81	5748	
509.01	5892.7	
509.21	6774	
509.4	7042.3	
509.6	5591	
509.8	5223	
510	6867.5	
510.19	7660.1	
510.39	5227.8	
510.59	5285.8	
510.79	6860	
510.98	7701.7	
511.18	5357.5	
511.38	5395	
511.57	7481.2	
511.77	7047.7	
511.97	5884.5	
512.17	5310.4	
512.36	7416.4	
512.56	7274.4	
512.76	5211.4	
512.95	5060.5	
513.15	7456.7	
513.35	6466.1	
513.55	5830.6	
513.74	5231.9	
513.94	7311.2	
514.14	6917.4	
514.33	5885.9	
514.53	5651	
514.73	7036.1	
514.92	7052.5	
515.12	5338.4	
515.32	5188.9	
515.51	7064.1	
515.71	7370.6	
515.91	6252.4	
516.11	5304.2	
516.3	8196.7	
516.5	6967.9	
516.7	5671.5	
516.89	6047.7	
517.09	7009.5	
517.29	6997.9	
517.48	5982.8	
517.68	5452.4	
517.88	6766.5	
518.07	7281.9	
518.27	5829.9	
518.47	5178.6	
518.66	7578.8	
518.86	6709.1	
519.06	5106.3	
519.25	5358.2	
519.45	6903	
519.65	7813.7	
519.84	5818.3	
520.04	6260	
520.24	8148.2	
520.43	7342.7	
520.63	5689.3	
520.83	5464.7	
521.02	6987.7	
521.22	7269.6	
521.42	5803.3	
521.61	6107.7	
521.81	7041.6	
522.01	7130.3	
522.2	5732.3	
522.4	5467.4	
522.6	7400	
522.79	6574	
522.99	5595.7	
523.18	5098.1	
523.38	7175.4	
523.58	7183.6	
523.77	6264.1	
523.97	5120.6	
524.17	8352.3	
524.36	7869	
524.56	6044.9	
524.76	5787.6	
524.95	7206.8	
525.15	7061.4	
525.34	5760.3	
525.54	5730.9	
525.74	7591.1	
525.93	6927.6	
526.13	6618.4	
526.33	5707.7	
526.52	7854.6	
526.72	7395.2	
526.91	6563.7	
527.11	6055.2	
527.31	7754.3	
527.5	8003.5	
527.7	5945.9	
527.89	5420.3	
528.09	7137.9	
528.29	7463.5	
528.48	6212.2	
528.68	6010.1	
528.87	7734.5	
529.07	7724.9	
529.27	6054.5	
529.46	5786.9	
529.66	7709.2	
529.85	7873.8	
530.05	5738.4	
530.25	6246.3	
530.44	8527.7	
530.64	7548.8	
530.83	5948.7	
531.03	6045.6	
531.23	7929.1	
531.42	7591.8	
531.62	6477.7	
531.81	6012.2	
532.01	7939.3	
532.21	7983	
532.4	5860.6	
532.6	6093.4	
532.79	8499.1	
532.99	7936.6	
533.18	6225.8	
533.38	6834.1	
533.58	7707.9	
533.77	8133.8	
533.97	6234	
534.16	6731.7	
534.36	8328.4	
534.55	7736.5	
534.75	6748.1	
534.95	6192.4	
535.14	8377.6	
535.34	7715.4	
535.53	6107.7	
535.73	7297.6	
535.92	8779	
536.12	7918.1	
536.31	6128.2	
536.51	6920.1	
536.71	8121.6	
536.9	7793.2	
537.1	6202.6	
537.29	6298.2	
537.49	8294.3	
537.68	7686	
537.88	6566.5	
538.07	6001.9	
538.27	7946.1	
538.46	8547.5	
538.66	5921.4	
538.86	6244.3	
539.05	7918.8	
539.25	8101.8	
539.44	6600.6	
539.64	6211.5	
539.83	7865.6	
540.03	8554.4	
540.22	6133	
540.42	6225.8	
540.61	8092.2	
540.81	8079.9	
541	6506.4	
541.2	6913.3	
541.39	7720.2	
541.59	7833.5	
541.78	6681.2	
541.98	6168.5	
542.18	7489.4	
542.37	7499.7	
542.57	6385.6	
542.76	6778.1	
542.96	7541.3	
543.15	7980.9	
543.35	6411.5	
543.54	6007.4	
543.74	7988.4	
543.93	7871	
544.13	6367.1	
544.32	7088	
544.52	8106.5	
544.71	7551.5	
544.91	5799.2	
545.1	6521.4	
545.3	7621.2	
545.49	7869.7	
545.69	5710.4	
545.88	6119.3	
546.08	8652	
546.27	8333.2	
546.47	6404.7	
546.66	5864.7	
546.86	8108.6	
547.05	8415.8	
547.24	6143.2	
547.44	6051.7	
547.63	7490.1	
547.83	8171.4	
548.02	6300.2	
548.22	6417.7	
548.41	7356.3	
548.61	8204.2	
548.8	5967.1	
549	5939.8	
549.19	7851.2	
549.39	7905.2	
549.58	5827.8	
549.78	6138.4	
549.97	7929.1	
550.17	7645.8	
550.36	6645.7	
550.55	7361.1	
550.75	7685.3	
550.94	8280.6	
551.14	5950	
551.33	6174.6	
551.53	7262.1	
551.72	7853.3	
551.92	6200.6	
552.11	6018.3	
552.31	7960.5	
552.5	7858.7	
552.69	7075	
552.89	5752.7	
553.08	7958.4	
553.28	7735.9	
553.47	6130.9	
553.67	6812.9	
553.86	8241.7	
554.06	7208.8	
554.25	5533.6	
554.44	5928.9	
554.64	8755.7	
554.83	8398	
555.03	5882.4	
555.22	6062.7	
555.42	8110.6	
555.61	7936.6	
555.8	6117.3	
556	6194.4	
556.19	7318.8	
556.39	8008.9	
556.58	5969.8	
556.78	6081.1	
556.97	7774.1	
557.16	7479.9	
557.36	6763.1	
557.55	5808.7	
557.75	7107.1	
557.94	8335.9	
558.13	5879.7	
558.33	5808	
558.52	8198	
558.72	7287.4	
558.91	5870.2	
559.1	5936.4	
559.3	7172	
559.49	7110.5	
559.69	5705	
559.88	6164.4	
560.07	7737.9	
560.27	8064.9	
560.46	6385.6	
560.66	6414.9	
560.85	7561.1	
561.04	7079.8	
561.24	5745.2	
561.43	5948.7	
561.63	7249.8	
561.82	7459.4	
562.01	6665.5	
562.21	6068.8	
562.4	7647.1	
562.59	8249.9	
562.79	6033.3	
562.98	5674.2	
563.18	7693.5	
563.37	8546.2	
563.56	6221.7	
563.76	5773.2	
563.95	7322.9	
564.14	7338.6	
564.34	6079.7	
564.53	5926.1	
564.73	7716.1	
564.92	7800	
565.11	6153.5	
565.31	5695.4	
565.5	8103.8	
565.69	7271.7	
565.89	5973.9	
566.08	6110.5	
566.27	7888.8	
566.47	8164.6	
566.66	6491.4	
566.85	5715.2	
567.05	7810.3	
567.24	7387	
567.44	5866.7	
567.63	6748.1	
567.82	7942	
568.02	7621.2	
568.21	5832.6	
568.4	6141.9	
568.6	7673.7	
568.79	7563.8	
568.98	5728.2	
569.18	5825.1	
569.37	7611.6	
569.56	8842.4	
569.76	6092.7	
569.95	6655.9	
570.14	7854.6	
570.34	7703.8	
570.53	5811.5	
570.72	5761.6	
570.91	8271.7	
571.11	7666.2	
571.3	6180.1	
571.49	6721.4	
571.69	7653.9	
571.88	7371.3	
572.07	6419.7	
572.27	6462	
572.46	7283.9	
572.65	7958.4	
572.85	6023.8	
573.04	6154.8	
573.23	8201.4	
573.43	7750.9	
573.62	5882.4	
573.81	6289.3	
574	7856.7	
574.2	7617.1	
574.39	6080.4	
574.58	6105.7	
574.78	8374.8	
574.97	7864.9	
575.16	6431.3	
575.36	6550.8	
575.55	8182.3	
575.74	8172.1	
575.93	5931.6	
576.13	6556.9	
576.32	7737.2	
576.51	8148.2	
576.71	6264.1	
576.9	7081.9	
577.09	8334.6	
577.28	8019.8	
577.48	6513.2	
577.67	5893.4	
577.86	7856	
578.05	8013	
578.25	6317.3	
578.44	6277.7	
578.63	7870.3	
578.83	8604.9	
579.02	6027.9	
579.21	6912.6	
579.4	8034.2	
579.6	7791.8	
579.79	6470.9	
579.98	7728.4	
580.17	8170.7	
580.37	8295.6	
580.56	6116.6	
580.75	6548.7	
580.94	8453.3	
581.14	8580.3	
581.33	6897.6	
581.52	6250.4	
581.71	8080.6	
581.91	8656.1	
582.1	6012.2	
582.29	6346	
582.48	7923.6	
582.68	7877.9	
582.87	6625.2	
583.06	6454.5	
583.25	8191.2	
583.45	7980.9	
583.64	6868.9	
583.83	7255.3	
584.02	8037.6	
584.21	8161.8	
584.41	6922.1	
584.6	6438.8	
584.79	8062.9	
584.98	8414.4	
585.18	6141.2	
585.37	6125.5	
585.56	7798	
585.75	8240.3	
585.94	6290.7	
586.14	6691.4	
586.33	8488.1	
586.52	7956.4	
586.71	6510.5	
586.91	6434	
587.1	7593.2	
587.29	8252.6	
587.48	6348	
587.67	6272.2	
587.87	8110	
588.06	8066.3	
588.25	7092.1	
588.44	6602.7	
588.63	7869.7	
588.83	8255.4	
589.02	6360.3	
589.21	6203.3	
589.4	7905.2	
589.59	7845.8	
589.78	5767.8	
589.98	5913.2	
590.17	7491.5	
590.36	7767.9	
590.55	5584.1	
590.74	5883.1	
590.94	8526.4	
591.13	7618.4	
591.32	5866.1	
591.51	5500.2	
591.7	7778.2	
591.89	7511.3	
592.09	5508.4	
592.28	5800.5	
592.47	6991.1	
592.66	8331.1	
592.85	5581.4	
593.05	5792.3	
593.24	7469.6	
593.43	8055.3	
593.62	5855.1	
593.81	6050.4	
594	7458.7	
594.19	7596.6	
594.39	5724.8	
594.58	5677.7	
594.77	7694.9	
594.96	8052.6	
595.15	5754.1	
595.34	6111.1	
595.54	7623.9	
595.73	7137.2	
595.92	5329.5	
596.11	5949.3	
596.3	7910.6	
596.49	7157.7	
596.68	5818.3	
596.88	6103.6	
597.07	7658.7	
597.26	7040.9	
597.45	5556.8	
597.64	6293.4	
597.83	7290.8	
598.02	7658.7	
598.22	5605.3	
598.41	5996.5	
598.6	7522.9	
598.79	7141.9	
598.98	5576.6	
599.17	6213.5	
599.36	7535.2	
599.55	8137.9	
599.74	6800.6	
599.94	6757.6	
600.13	7871.7	
600.32	7074.4	
600.51	5341.8	
600.7	5556.8	
600.89	8110.6	
601.08	8176.2	
601.27	5414.1	
601.47	5915.2	
601.66	7831.4	
601.85	8202.8	
602.04	5831.2	
602.23	5957.5	
602.42	7102.4	
602.61	7563.8	
602.8	5726.8	
602.99	5615.5	
603.18	7398.6	
603.37	7494.9	
603.57	5955.5	
603.76	6366.5	
603.95	7937.2	
604.14	7696.3	
604.33	5662	
604.52	5762.3	
604.71	7501	
604.9	7210.2	
605.09	6276.3	
605.28	6049.7	
605.47	7880.6	
605.66	7568.6	
605.86	5995.8	
606.05	5735.7	
606.24	7976.2	
606.43	6860	
606.62	5890	
606.81	6300.9	
607	7780.2	
607.19	7285.3	
607.38	5440.1	
607.57	5557.5	
607.76	7111.9	
607.95	6754.2	
608.14	5952.8	
608.33	6289.3	
608.52	7090.1	
608.72	7710.6	
608.91	5420.3	
609.1	5325.4	
609.29	7178.8	
609.48	6914.6	
609.67	6078.4	
609.86	5459.9	
610.05	6886.6	
610.24	7105.8	
610.43	5316.5	
610.62	5137.7	
610.81	7889.5	
611	7741.3	
611.19	5397.8	
611.38	5883.1	
611.57	7405.5	
611.76	8105.9	
611.95	5332.2	
612.14	5201.8	
612.33	7212.9	
612.52	6885.3	
612.71	5575.3	
612.9	5081.7	
613.09	6735.8	
613.28	8230.8	
613.47	5442.1	
613.66	6052.4	
613.85	7316.7	
614.04	6974	
614.24	5457.8	
614.43	5036.6	
614.62	7458	
614.81	7347.4	
615	5825.8	
615.19	5788.9	
615.38	6978.1	
615.57	7190.4	
615.76	5722	
615.95	6339.1	
616.14	7527.7	
616.33	7228.6	
616.52	5934.3	
616.71	6065.4	
616.9	7409.6	
617.09	7236.2	
617.28	5554.1	
617.47	6268.1	
617.66	6801.3	
617.85	6774	
618.04	6120	
618.22	5697.4	
618.41	7021.8	
618.6	7726.3	
618.79	5713.8	
618.98	5550.7	
619.17	7801.4	
619.36	6746	
619.55	5671.5	
619.74	5700.2	
619.93	7380.2	
620.12	7053.9	
620.31	6049.7	
620.5	6111.8	
620.69	7752.2	
620.88	8062.9	
621.07	6485.9	
621.26	5956.9	
621.45	7556.3	
621.64	7464.2	
621.83	6083.8	
622.02	5496.1	
622.21	7647.8	
622.4	7447.1	
622.59	6401.3	
622.78	6280.4	
622.97	7231.4	
623.16	7703.8	
623.35	6158.2	
623.54	5494	
623.72	7346.7	
623.91	7434.1	
624.1	6258.6	
624.29	5436.7	
624.48	8112	
624.67	7660.1	
624.86	6167.8	
625.05	5575.9	
625.24	8155.7	
625.43	7266.9	
625.62	7188.4	
625.81	5744.6	
626	7851.9	
626.19	7332.4	
626.38	6114.6	
626.56	5717.9	
626.75	7201.3	
626.94	7699.7	
627.13	6251.1	
627.32	5401.9	
627.51	7699	
627.7	8354.3	
627.89	5450.3	
628.08	6212.9	
628.27	7195.9	
628.46	7314.7	
628.65	5711.8	
628.83	5393.7	
629.02	7653.9	
629.21	7163.8	
629.4	5911.8	
629.59	6045.6	
629.78	7206.1	
629.97	7707.9	
630.16	6049.7	
630.35	5750	
630.54	8185.7	
630.72	7854	
630.91	5768.4	
631.1	6030.6	
631.29	7505.8	
631.48	7481.9	
631.67	6242.9	
631.86	5761.6	
632.05	7365.9	
632.24	7264.1	
632.42	5573.9	
632.61	5926.1	
632.8	7251.9	
632.99	7014.3	
633.18	5950	
633.37	6197.2	
633.56	7542	
633.75	7400	
633.93	6013.5	
634.12	5784.8	
634.31	8107.2	
634.5	7739.3	
634.69	5847.6	
634.88	6154.1	
635.07	7416.4	
635.25	7822.6	
635.44	6427.9	
635.63	6500.3	
635.82	7230.7	
636.01	6717.3	
636.2	6356.2	
636.39	6040.1	
636.57	8076.5	
636.76	7664.2	
636.95	5651.7	
637.14	6509.8	
637.33	7529.7	
637.52	7999.4	
637.7	5552.7	
637.89	6173.9	
638.08	7342.7	
638.27	8213.7	
638.46	6199.2	
638.65	6503	
638.83	8223.3	
639.02	7193.1	
639.21	6175.3	
639.4	6433.4	
639.59	7490.1	
639.78	7307.8	
639.96	5670.8	
640.15	5687.2	
640.34	7458	
640.53	7441.6	
640.72	5475.6	
640.91	5721.3	
641.09	6933.7	
641.28	7831.4	
641.47	5687.9	
641.66	6232.7	
641.85	7428	
642.03	7625.3	
642.22	6034.7	
642.41	5810.1	
642.6	7055.9	
642.79	6640.9	
642.97	5713.8	
643.16	6028.5	
643.35	7080.5	
643.54	6964.5	
643.73	5545.9	
643.91	6064	
644.1	6815	
644.29	7253.2	
644.48	5593	
644.67	5629.2	
644.85	6965.1	
645.04	7275.1	
645.23	5352.7	
645.42	5582.1	
645.6	6896.2	
645.79	7556.3	
645.98	5421.7	
646.17	4889.9	
646.36	6699.6	
646.54	6989	
646.73	5958.2	
646.92	5260.5	
647.11	6740.5	
647.29	7348.1	
647.48	5279.7	
647.67	4986.8	
647.86	7595.9	
648.05	7548.1	
648.23	5479	
648.42	6311.8	
648.61	7163.8	
648.8	6975.4	
648.98	5147.9	
649.17	5441.5	
649.36	6634.7	
649.55	6357.6	
649.73	5142.4	
649.92	5726.1	
650.11	6582.2	
650.3	6938.5	
650.48	5284.4	
650.67	5223	
650.86	7178.8	
651.05	6321.4	
651.23	5251.7	
651.42	5202.5	
651.61	6718	
651.79	6582.9	
651.98	5400.5	
652.17	5121.3	
652.36	6959	
652.54	6337.1	
652.73	5163.6	
652.92	5051	
653.11	6905.1	
653.29	7028.6	
653.48	4734.2	
653.67	5348.6	
653.85	6775.4	
654.04	7545.4	
654.23	5449	
654.42	5210.7	
654.6	6485.2	
654.79	6911.9	
654.98	4843.4	
655.16	5207.3	
655.35	6281.1	
655.54	6025.8	
655.73	4844.1	
655.91	4657.8	
656.1	6672.3	
656.29	5971.2	
656.47	4428.4	
656.66	5509	
656.85	6249	
657.03	6289.3	
657.22	4845.5	
657.41	4870.1	
657.59	6372.6	
657.78	6224.5	
657.97	4680.3	
658.16	5182	
658.34	6828.6	
658.53	7075.7	
658.72	5746.6	
658.9	6008.7	
659.09	6543.3	
659.28	6503.7	
659.46	5012.7	
659.65	4943.1	
659.84	6310.5	
660.02	6724.2	
660.21	5024.3	
660.4	4875.5	
660.58	6880.5	
660.77	6505	
660.96	5261.9	
661.14	4737	
661.33	7235.5	
661.52	7124.9	
661.7	4672.8	
661.89	6782.9	
662.08	6323.4	
662.26	5991	
662.45	4747.2	
662.64	4907.6	
662.82	6794.5	
663.01	6186.9	
663.2	4919.2	
663.38	5355.4	
663.57	6699.6	
663.75	6552.1	
663.94	5015.5	
664.13	5786.9	
664.31	6326.2	
664.5	6630	
664.69	5199.8	
664.87	5556.8	
665.06	6143.2	
665.25	6507.8	
665.43	5724.8	
665.62	5700.2	
665.8	6672.3	
665.99	6374.6	
666.18	5094	
666.36	5107	
666.55	6732.4	
666.74	6579.4	
666.92	4807.3	
667.11	5816.9	
667.29	6364.4	
667.48	6724.2	
667.67	5586.9	
667.85	5001.1	
668.04	6268.1	
668.22	6281.1	
668.41	5082.4	
668.6	5239.4	
668.78	6147.3	
668.97	6349.4	
669.15	5334.3	
669.34	4648.2	
669.53	6211.5	
669.71	6384.2	
669.9	4732.2	
670.08	5178.6	
670.27	6113.2	
670.46	6571.9	
670.64	5386.8	
670.83	5461.9	
671.01	6097.5	
671.2	6444.3	
671.38	4817.5	
671.57	4756.1	
671.76	6937.8	
671.94	7153.6	
672.13	4619.5	
672.31	5328.1	
672.5	6641.6	
672.69	6069.5	
672.87	4819.6	
673.06	4952	
673.24	6490	
673.43	6184.9	
673.61	5255.1	
673.8	4885.8	
673.98	6571.9	
674.17	6654.5	
674.36	5321.3	
674.54	5234.6	
674.73	6386.2	
674.91	6647	
675.1	5035.3	
675.28	4738.3	
675.47	6347.3	
675.65	6660.7	
675.84	4952.7	
676.03	5119.9	
676.21	6246.3	
676.4	5775.3	
676.58	5456.5	
676.77	5302.9	
676.95	7195.2	
677.14	6285.2	
677.32	4704.2	
677.51	4655.7	
677.69	6708.5	
677.88	5984.8	
678.06	4700.1	
678.25	4787.5	
678.44	6354.2	
678.62	6075.6	
678.81	4551.3	
678.99	5136.3	
679.18	6818.4	
679.36	6505.7	
679.55	4947.9	
679.73	5273.5	
679.92	6511.9	
680.1	6124.1	
680.29	5635.3	
680.47	4881	
680.66	6130.9	
680.84	6661.4	
681.03	4545.8	
681.21	5277.6	
681.4	6187.6	
681.58	6152.8	
681.77	4732.9	
681.95	4791.6	
682.14	6662	
682.32	6881.9	
682.51	5267.4	
682.69	4513.7	
682.88	6129.6	
683.06	6373.3	
683.25	5139.7	
683.43	5367.7	
683.62	6434	
683.8	6623.8	
683.99	5561.6	
684.17	4996.4	
684.36	7108.5	
684.54	6261.3	
684.73	4641.4	
684.91	4629.1	
685.1	6518	
685.28	6079.7	
685.46	5022.3	
685.65	5033.2	
685.83	6412.9	
686.02	6012.8	
686.2	4574.5	
686.39	4607.9	
686.57	5728.9	
686.76	6717.3	
686.94	4528.1	
687.13	4620.2	
687.31	6268.8	
687.5	6100.2	
687.68	4336.9	
687.86	5085.1	
688.05	7163.1	
688.23	5769.8	
688.42	5124.7	
688.6	4614.8	
688.79	5933.6	
688.97	5945.3	
689.16	4875.5	
689.34	4258.4	
689.52	6396.5	
689.71	6626.5	
689.89	5130.8	
690.08	4688.5	
690.26	6307.1	
690.45	6037.4	
690.63	5247.6	
690.81	4767.7	
691	6162.3	
691.18	5917.9	
691.37	4883	
691.55	6226.5	
691.74	5941.8	
691.92	7189.7	
692.1	4814.8	
692.29	4463.2	
692.47	6109.1	
692.66	5641.5	
692.84	4615.4	
693.02	4843.4	
693.21	5652.4	
693.39	6025.1	
693.58	4976.6	
693.76	4555.4	
693.94	6697.5	
694.13	6694.1	
694.31	4670.1	
694.5	5342.5	
694.68	5894.1	
694.86	6154.1	
695.05	4939.7	
695.23	4938.3	
695.42	6371.9	
695.6	7848.5	
695.78	5285.8	
695.97	4737	
696.15	6589	
696.34	5941.2	
696.52	4559.5	
696.7	5094.7	
696.89	6282.5	
697.07	5825.8	
697.25	5016.2	
697.44	5933	
697.62	6260	
697.81	6389	
697.99	4775.2	
698.17	5075.5	
698.36	5872.2	
698.54	6263.4	
698.72	5027.1	
698.91	4352.6	
699.09	6014.9	
699.28	5801.2	
699.46	4739	
699.64	4701.5	
699.83	5867.4	
700.01	6545.3	
700.19	5250.3	
700.38	4187.4	
700.56	6508.4	
700.74	5933.6	
700.93	4443.4	
701.11	4906.9	
701.29	6182.8	
701.48	6954.9	
701.66	4510.3	
701.84	4668	
702.03	6004.6	
702.21	6408.1	
702.39	4288.4	
702.58	4707.6	
702.76	6292.7	
702.94	6292	
703.13	4308.9	
703.31	5808.7	
703.49	5840.8	
703.68	6365.1	
703.86	4427	
704.04	5020.9	
704.23	6154.1	
704.41	6339.8	
704.59	4519.9	
704.78	5281	
704.96	7141.3	
705.14	6309.8	
705.33	4391.5	
705.51	4868	
705.69	5956.2	
705.87	6556.2	
706.06	5035.3	
706.24	4345.1	
706.42	6159.6	
706.61	6253.8	
706.79	5079.6	
706.97	4341.7	
707.16	5829.2	
707.34	6130.3	
707.52	5014.8	
707.7	4490.5	
707.89	5767.8	
708.07	5661.3	
708.25	5012.7	
708.44	5045.5	
708.62	5753.4	
708.8	6500.3	
708.98	5143.8	
709.17	4501.4	
709.35	6016.9	
709.53	6030.6	
709.72	4359.4	
709.9	4399	
710.08	6256.5	
710.26	6182.1	
710.45	5324	
710.63	4562.9	
710.81	5955.5	
710.99	6038.1	
711.18	4903.5	
711.36	4502.8	
711.54	5847	
711.72	6347.3	
711.91	4595.6	
712.09	4220.2	
712.27	5976.7	
712.45	6558.3	
712.64	4728.8	
712.82	4078.9	
713	5654.4	
713.18	5692.7	
713.37	4162.2	
713.55	5044.8	
713.73	6277	
713.91	5350	
714.1	4400.4	
714.28	4072	
714.46	5942.5	
714.64	5520	
714.83	3719.1	
715.01	4188.8	
715.19	5552.7	
715.37	4964.3	
715.55	3865.2	
715.74	4099.4	
715.92	5958.9	
716.1	4685.1	
716.28	4766.3	
716.47	4223.6	
716.65	5301.5	
716.83	5211.4	
717.01	4053.6	
717.19	4089.8	
717.38	6522.1	
717.56	4980.7	
717.74	4178.5	
717.92	3657	
718.1	5774.6	
718.29	5158.8	
718.47	3394.8	
718.65	3809.2	
718.83	5724.1	
719.01	5574.6	
719.2	3350.5	
719.38	4112.3	
719.56	5448.3	
719.74	6380.1	
719.92	3794.9	
720.11	4502.1	
720.29	5618.9	
720.47	4967.7	
720.65	3553.9	
720.83	4083.6	
721.02	5178.6	
721.2	5054.4	
721.38	4037.9	
721.56	3605.1	
721.74	4668.7	
721.92	4758.1	
722.11	4368.3	
722.29	4171.7	
722.47	5543.2	
722.65	5057.1	
722.83	3578.5	
723.01	4054.3	
723.2	5094	
723.38	5311.7	
723.56	3184.6	
723.74	3973.1	
723.92	4760.2	
724.1	5414.1	
724.29	3500.7	
724.47	4227	
724.65	4882.4	
724.83	4758.1	
725.01	3527.3	
725.19	3994.9	
725.37	4821.6	
725.56	4782.7	
725.74	3364.1	
725.92	3525.2	
726.1	4762.9	
726.28	4956.8	
726.46	3781.2	
726.64	3589.4	
726.83	5003.2	
727.01	5057.1	
727.19	3366.9	
727.37	3892.5	
727.55	5083.7	
727.73	5330.2	
727.91	3319.8	
728.09	3212.6	
728.28	5365.7	
728.46	5429.8	
728.64	3960.1	
728.82	3844	
729	5935	
729.18	5572.5	
729.36	3249.4	
729.54	4730.1	
729.72	6124.1	
729.91	5019.6	
730.09	4575.2	
730.27	3765.5	
730.45	5076.9	
730.63	5380	
730.81	4082.3	
730.99	3483.6	
731.17	5756.2	
731.35	4844.1	
731.53	3796.3	
731.71	3655.6	
731.9	5550.7	
732.08	5610.1	
732.26	3778.5	
732.44	3491.8	
732.62	5646.9	
732.8	5291.3	
732.98	4040.6	
733.16	3417.4	
733.34	5401.2	
733.52	4456.4	
733.7	3728.7	
733.88	3923.2	
734.07	5201.8	
734.25	5085.1	
734.43	3442	
734.61	4395.6	
734.79	5982.1	
734.97	4981.3	
735.15	3472.7	
735.33	3660.4	
735.51	5217.5	
735.69	4962.2	
735.87	4379.9	
736.05	3795.6	
736.23	5128.1	
736.41	4857.8	
736.59	3674.7	
736.77	3745.7	
736.95	5306.3	
737.13	4915.8	
737.32	3461.7	
737.5	3547.8	
737.68	5669.5	
737.86	4903.5	
738.04	3338.2	
738.22	4537.6	
738.4	4797	
738.58	5016.2	
738.76	3709.6	
738.94	3023.5	
739.12	4884.4	
739.3	4798.4	
739.48	4034.5	
739.66	3878.2	
739.84	5027.8	
740.02	4965	
740.2	3166.2	
740.38	3299.3	
740.56	5304.2	
740.74	4412.7	
740.92	3794.9	
741.1	3668.6	
741.28	4847.5	
741.46	4717.8	
741.64	3489.7	
741.82	3794.9	
742	5008	
742.18	4848.9	
742.36	3574.4	
742.54	3381.9	
742.72	5298.1	
742.9	4412.7	
743.08	3771	
743.26	3048.7	
743.44	5292.6	
743.62	5210.7	
743.8	3941	
743.98	3327.3	
744.16	5076.9	
744.34	4886.5	
744.52	3818.1	
744.7	3817.4	
744.88	5165.7	
745.06	4855.7	
745.24	3875.4	
745.42	3903.4	
745.6	5240.1	
745.78	5158.2	
745.96	3135.4	
746.14	3319.1	
746.32	5758.2	
746.5	5088.5	
746.68	3704.1	
746.86	3317	
747.03	5412.8	
747.21	4408.6	
747.39	3661.8	
747.57	3326.6	
747.75	4961.5	
747.93	5171.1	
748.11	3300	
748.29	3282.2	
748.47	6018.3	
748.65	4733.5	
748.83	3790.1	
749.01	3586.7	
749.19	5139.7	
749.37	4506.2	
749.55	3530	
749.73	3573.7	
749.91	4945.8	
750.09	4749.9	
750.26	3588	
750.44	3165.5	
750.62	4905.6	
750.8	4842.1	
750.98	3062.4	
751.16	3308.8	
751.34	4992.9	
751.52	4517.8	
751.7	3857.7	
751.88	3127.9	
752.06	5240.1	
752.24	5051.7	
752.42	3111.5	
752.59	3358.7	
752.77	4846.2	
752.95	5653.1	
753.13	3838.6	
753.31	3408.5	
753.49	4647.5	
753.67	4960.9	
753.85	3617.4	
754.03	3306.8	
754.21	5167.7	
754.38	5381.4	
754.56	3437.9	
754.74	2855.6	
754.92	4641.4	
755.1	5006.6	
755.28	2914.9	
755.46	2867.8	
755.64	5677	
755.82	5735.7	
755.99	3169.6	
756.17	3223.5	
756.35	4135.5	
756.53	5085.1	
756.71	2491	
756.89	3387.3	
757.07	4855.7	
757.25	4287.8	
757.42	3396.9	
757.6	3934.1	
757.78	4894	
757.96	4228.4	
758.14	3173.7	
758.32	2842.6	
758.5	3888.4	
758.67	4429.8	
758.85	3130	
759.03	3160	
759.21	4668	
759.39	4253.6	
759.57	2831	
759.75	3564.1	
759.92	5065.3	
760.1	4625	
760.28	3721.2	
760.46	3926.6	
760.64	4455	
760.82	4267.3	
760.99	3586.7	
761.17	3124.5	
761.35	4945.2	
761.53	4206.5	
761.71	3324.5	
761.89	3588	
762.06	4830.5	
762.24	4487.1	
762.42	3262.4	
762.6	3095.2	
762.78	4491.2	
762.96	4871.4	
763.13	3501.3	
763.31	3222.8	
763.49	4965	
763.67	4472.8	
763.85	3765.5	
764.02	4147.1	
764.2	5181.4	
764.38	4526	
764.56	3187.3	
764.74	3751.2	
764.91	5209.3	
765.09	4498	
765.27	3057.6	
765.45	2820.7	
765.63	5331.5	
765.8	5102.2	
765.98	2764.1	
766.16	2951.1	
766.34	4235.9	
766.52	4091.8	
766.69	3536.8	
766.87	2861	
767.05	4513	
767.23	4980	
767.41	3078.1	
767.58	3244.7	
767.76	4894	
767.94	4924.7	
768.12	3120.4	
768.29	3556	
768.47	4528.1	
768.65	5081	
768.83	2839.8	
769	3536.2	
769.18	4306.9	
769.36	4727.4	
769.54	3609.2	
769.72	2878.8	
769.89	5056.4	
770.07	4930.8	
770.25	3151.8	
770.43	3952.6	
770.6	5453.7	
770.78	5619.6	
770.96	3276.1	
771.14	3612.6	
771.31	4934.2	
771.49	4483	
771.67	2721.1	
771.85	2859.6	
772.02	4016.7	
772.2	4475.5	
772.38	3339.6	
772.55	3010.5	
772.73	4704.9	
772.91	4538.3	
773.09	3220.1	
773.26	3390.8	
773.44	4702.1	
773.62	4500.1	
773.8	2942.9	
773.97	2844.6	
774.15	4719.9	
774.33	4495.3	
774.5	2915.6	
774.68	3082.2	
774.86	4822.3	
775.04	4485.1	
775.21	2918.4	
775.39	2898.6	
775.57	4708.3	
775.74	4791.6	
775.92	2790.7	
776.1	2729.3	
776.27	4617.5	
776.45	5356.1	
776.63	2905.4	
776.81	2652.1	
776.98	4456.4	
777.16	5036.6	
777.34	3010.5	
777.51	3263.1	
777.69	4437.3	
777.87	4292.5	
778.04	3145	
778.22	3435.1	
778.4	4287.1	
778.57	4706.9	
778.75	2616.6	
778.93	2757.2	
779.1	4235.9	
779.28	4029	
779.46	2623.4	
779.64	2881.5	
779.81	4876.9	
779.99	5372.5	
780.17	3436.5	
780.34	3538.2	
780.52	4504.2	
780.69	4548.5	
780.87	3153.9	
781.05	2916.3	
781.22	4541.7	
781.4	4575.8	
781.58	2949.8	
781.75	2424.1	
781.93	4620.2	
782.11	4071.4	
782.28	3577.1	
782.46	2977.1	
782.64	4092.5	
782.81	4692.6	
782.99	3044.6	
783.17	3033.7	
783.34	4526	
783.52	4229.1	
783.69	3080.1	
783.87	3623.5	
784.05	4316.4	
784.22	4117.8	
784.4	3676.1	
784.58	3179.8	
784.75	4856.4	
784.93	4331.5	
785.1	3013.9	
785.28	3368.9	
785.46	4658.4	
785.63	4146.5	
785.81	2994.1	
785.99	2846	
786.16	4356	
786.34	4502.1	
786.51	2893.8	
786.69	3152.5	
786.87	3975.8	
787.04	4353.3	
787.22	2807.1	
787.39	3382.6	
787.57	4202.4	
787.75	4853	
787.92	3605.1	
788.1	3528	
788.27	4121.2	
788.45	3986.7	
788.63	3360	
788.8	2508.8	
788.98	4574.5	
789.15	3934.1	
789.33	2565.4	
789.5	2992.8	
789.68	4836.6	
789.86	4806.6	
790.03	3280.2	
790.21	2852.1	
790.38	4803.2	
790.56	4328	
790.73	2852.1	
790.91	2813.9	
791.09	4199.7	
791.26	4628.4	
791.44	3018.7	
791.61	2639.1	
791.79	4188.1	
791.96	4182	
792.14	2745	
792.32	2476.7	
792.49	4155.3	
792.67	4276.8	
792.84	2757.2	
793.02	2613.9	
793.19	4592.9	
793.37	4902.8	
793.54	2441.2	
793.72	2654.2	
793.89	4943.8	
794.07	4165.6	
794.25	3074.7	
794.42	2552.5	
794.6	4846.9	
794.77	4596.3	
794.95	3246	
795.12	2850.1	
795.3	4235.2	
795.47	4530.1	
795.65	3129.3	
795.82	2978.4	
796	4072.7	
796.17	5244.2	
796.35	2948.4	
796.52	3424.9	
796.7	4607.9	
796.87	4613.4	
797.05	2961.4	
797.22	3486.3	
797.4	4595.6	
797.57	5166.3	
797.75	3057.6	
797.92	2859.6	
798.1	4805.9	
798.27	4041.3	
798.45	2577.7	
798.62	2716.3	
798.8	4422.9	
798.97	4693.9	
799.15	3148.4	
799.32	3076.7	
799.5	3856.3	
799.67	4403.1	
799.85	3284.3	
800.02	2486.2	
800.2	4202.4	
800.37	4301.4	
800.55	3316.3	
800.72	2874	
800.9	4666.6	
801.07	5032.5	
801.25	3700	
801.42	3159.3	
801.6	4759.5	
801.77	4414.1	
801.95	2955.2	
802.12	2822.1	
802.29	4514.4	
802.47	4394.3	
802.64	3139.5	
802.82	2454.1	
802.99	4187.4	
803.17	4725.3	
803.34	3051.5	
803.52	2755.2	
803.69	5233.9	
803.87	3945.8	
804.04	3026.2	
804.21	3085.6	
804.39	4919.9	
804.56	4235.2	
804.74	2643.9	
804.91	3142.9	
805.09	4175.8	
805.26	4235.2	
805.44	2678.1	
805.61	2972.3	
805.78	4640.7	
805.96	4627.7	
806.13	3154.6	
806.31	3311.6	
806.48	3911.6	
806.66	4233.8	
806.83	3177.8	
807	3028.9	
807.18	4216.1	
807.35	4411.3	
807.53	3046.7	
807.7	2578.4	
807.87	4993.6	
808.05	4161.5	
808.22	3308.2	
808.4	2539.5	
808.57	4097.3	
808.74	3989.4	
808.92	2892.4	
809.09	3539.6	
809.27	4209.3	
809.44	4472.1	
809.61	2514.9	
809.79	2760.7	
809.96	5051.7	
810.14	4679.6	
810.31	2530.6	
810.48	3005.1	
810.66	4245.4	
810.83	4717.2	
811.01	2856.2	
811.18	3092.4	
811.35	4730.1	
811.53	3803.1	
811.7	3343	
811.87	3104.7	
812.05	4255	
812.22	4209.3	
812.39	2822.1	
812.57	2701.3	
812.74	4263.9	
812.92	5299.5	
813.09	2993.4	
813.26	3145.7	
813.44	5111.7	
813.61	4104.8	
813.78	2562	
813.96	3224.2	
814.13	4263.9	
814.3	4033.1	
814.48	3467.2	
814.65	2930.6	
814.82	5069.4	
815	3982.6	
815.17	3009.8	
815.34	3530.7	
815.52	4119.8	
815.69	4124.6	
815.87	2971.6	
816.04	2942.9	
816.21	4168.3	
816.38	3857	
816.56	2923.8	
816.73	2785.9	
816.9	5146.5	
817.08	4655	
817.25	2822.1	
817.42	3298.6	
817.6	3904.8	
817.77	4197	
817.94	3065.8	
818.12	2747.7	
818.29	4043.4	
818.46	5675.6	
818.64	2941.6	
818.81	2716.3	
818.98	4039.3	
819.16	5412.8	
819.33	3162.7	
819.5	3010.5	
819.67	4398.4	
819.85	4807.9	
820.02	2966.1	
820.19	3085.6	
820.37	4353.3	
820.54	4091.8	
820.71	3076	
820.88	3717.1	
821.06	4376.5	
821.23	4032.5	
821.4	3072.6	
821.58	3039.9	
821.75	4642.7	
821.92	4341.7	
822.09	2545.6	
822.27	2631	
822.44	4199.7	
822.61	4167.6	
822.79	2577.7	
822.96	4550.6	
823.13	4453	
823.3	3990.8	
823.48	2889.7	
823.65	2643.9	
823.82	4696.7	
823.99	3986	
824.17	3573	
824.34	2689	
824.51	5295.4	
824.68	4267.3	
824.86	2822.8	
825.03	3107.5	
825.2	4248.9	
825.37	4882.4	
825.55	2733.4	
825.72	2998.9	
825.89	5203.9	
826.06	4918.5	
826.24	2949.1	
826.41	2940.2	
826.58	4972.5	
826.75	4350.6	
826.92	2484.2	
827.1	2695.1	
827.27	6364.4	
827.44	5200.5	
827.61	2826.9	
827.79	3342.3	
827.96	4152.6	
828.13	4228.4	
828.3	2955.9	
828.47	2551.8	
828.65	4496.7	
828.82	4416.1	
828.99	3611.3	
829.16	3194.1	
829.34	4680.3	
829.51	4552	
829.68	3028.3	
829.85	3073.3	
830.02	4981.3	
830.2	4680.3	
830.37	2420	
830.54	3551.9	
830.71	5203.2	
830.88	4231.1	
831.05	2420	
831.23	2749.7	
831.4	5124	
831.57	5449.6	
831.74	2856.9	
831.91	2515.6	
832.09	4536.3	
832.26	4702.1	
832.43	2803	
832.6	3169.6	
832.77	4441.4	
832.94	4947.9	
833.12	2390	
833.29	2816	
833.46	4521.9	
833.63	5582.8	
833.8	3112.9	
833.97	2878.8	
834.15	4724	
834.32	4583.4	
834.49	3024.2	
834.66	3028.3	
834.83	4797	
835	4144.4	
835.17	2746.3	
835.35	2736.1	
835.52	4662.5	
835.69	4549.9	
835.86	2905.4	
836.03	2482.1	
836.2	4716.5	
836.37	4445.5	
836.55	2869.9	
836.72	2680.1	
836.89	4438.6	
837.06	4777.9	
837.23	2923.8	
837.4	3096.5	
837.57	5314.5	
837.75	5649.7	
837.92	2622.1	
838.09	2822.1	
838.26	4399.7	
838.43	4853.7	
838.6	2962.7	
838.77	2720.4	
838.94	5367.7	
839.11	5238.7	
839.29	2906.1	
839.46	2320.3	
839.63	4790.9	
839.8	4458.4	
839.97	2848.7	
840.14	2792.7	
840.31	4598.4	
840.48	4742.4	
840.65	2421.4	
840.82	2797.5	
841	4662.5	
841.17	4563.6	
841.34	2582.5	
841.51	2696.5	
841.68	4671.4	
841.85	4476.2	
842.02	2669.9	
842.19	2344.2	
842.36	4581.3	
842.53	4539.7	
842.7	2618.7	
842.87	3059	
843.05	5646.9	
843.22	4479.6	
843.39	2548.4	
843.56	2695.8	
843.73	4383.3	
843.9	4749.2	
844.07	3966.9	
844.24	3373.7	
844.41	6207.4	
844.58	4172.4	
844.75	2534.7	
844.92	2691	
845.09	4668.7	
845.26	4642.1	
845.43	2669.2	
845.6	2704	
845.77	4728.8	
845.94	4483.7	
846.12	2877.4	
846.29	3013.2	
846.46	4851.6	
846.63	4667.3	
846.8	2589.3	
846.97	3056.9	
847.14	4991.6	
847.31	4612	
847.48	2899.9	
847.65	3117	
847.82	4829.8	
847.99	4833.2	
848.16	3313.6	
848.33	3130	
848.5	4323.3	
848.67	5011.4	
848.84	2560.6	
849.01	2697.2	
849.18	4355.3	
849.35	4122.6	
849.52	3132.7	
849.69	2557.9	
849.86	4857.1	
850.03	4847.5	
850.2	2568.8	
850.37	3037.1	
850.54	4851	
850.71	4426.3	
850.88	3047.4	
851.05	2580.4	
851.22	4563.6	
851.39	5003.9	
851.56	2442.5	
851.73	2852.8	
851.9	4148.5	
852.07	4836.6	
852.24	2869.9	
852.41	2580.4	
852.58	4636.6	
852.75	4222.2	
852.92	2842.6	
853.09	2527.9	
853.26	4371.7	
853.43	4911.7	
853.6	2605.7	
853.77	2301.2	
853.94	5023	
854.11	4140.3	
854.28	3707.5	
854.44	2811.9	
854.61	5254.4	
854.78	4885.1	
854.95	2575.7	
855.12	3195.5	
855.29	3926.6	
855.46	5040.7	
855.63	2623.4	
855.8	3406.5	
855.97	4322.6	
856.14	4910.3	
856.31	3467.2	
856.48	2816.6	
856.65	4473.4	
856.82	4183.3	
856.99	2518.3	
857.16	2768.2	
857.33	5470.8	
857.49	4470	
857.66	2781.1	
857.83	2923.8	
858	4446.1	
858.17	4551.3	
858.34	2474.6	
858.51	2612.5	
858.68	5109	
858.85	5080.3	
859.02	2943.6	
859.19	3122.5	
859.36	4201.1	
859.52	4209.3	
859.69	2584.5	
859.86	3005.1	
860.03	4229.7	
860.2	4990.2	
860.37	2409.1	
860.54	2611.8	
860.71	4782	
860.88	5092.6	
861.05	2848.7	
861.21	3184.6	
861.38	5044.8	
861.55	4037.2	
861.72	2452.8	
861.89	2850.8	
862.06	4863.9	
862.23	5090.6	
862.4	2586.6	
862.56	2654.9	
862.73	4748.6	
862.9	4483.7	
863.07	2943.6	
863.24	2441.2	
863.41	4179.2	
863.58	4214.7	
863.75	2624.8	
863.91	3006.4	
864.08	4981.3	
864.25	4784.7	
864.42	3160.7	
864.59	3458.3	
864.76	5273.5	
864.93	4188.1	
865.09	2506	
865.26	2824.1	
865.43	4996.4	
865.6	5212.8	
865.77	2302.6	
865.94	2568.8	
866.1	5012.1	
866.27	4723.3	
866.44	3702	
866.61	2519	
866.78	4492.6	
866.95	4778.6	
867.11	2514.9	
867.28	2320.3	
867.45	4940.4	
867.62	4139.6	
867.79	2981.2	
867.96	2532.7	
868.12	4158.7	
868.29	4767.7	
868.46	2590	
868.63	3304.1	
868.8	4873.5	
868.97	4736.3	
869.13	2698.5	
869.3	2720.4	
869.47	4649.6	
869.64	4806.6	
869.81	2592	
869.97	2620.7	
870.14	4611.3	
870.31	5054.4	
870.48	2600.2	
870.65	3160.7	
870.81	4478.2	
870.98	4425.7	
871.15	2882.2	
871.32	2697.2	
871.48	4709.6	
871.65	5072.8	
871.82	2583.2	
871.99	2850.1	
872.16	5387.5	
872.32	5000.5	
872.49	2642.6	
872.66	2633.7	
872.83	4828.4	
872.99	4305.5	
873.16	2914.9	
873.33	2641.2	
873.5	4511.7	
873.67	4603.8	
873.83	2751.8	
874	3294.5	
874.17	4683.7	
874.34	5263.3	
874.5	3263.8	
874.67	3133.4	
874.84	4963.6	
875.01	4050.2	
875.17	3513.6	
875.34	2637.1	
875.51	4592.9	
875.68	5425.8	
875.84	3055.6	
876.01	3617.4	
876.18	4806.6	
876.34	4696	
876.51	2635.7	
876.68	2568.8	
876.85	4445.5	
877.01	5002.5	
877.18	3537.5	
877.35	2520.4	
877.52	4629.1	
877.68	4230.4	
877.85	2565.4	
878.02	2561.3	
878.18	4408.6	
878.35	4341.7	
878.52	2170.2	
878.69	3013.2	
878.85	4836.6	
879.02	4730.1	
879.19	3558	
879.35	2763.4	
879.52	4784.7	
879.69	4855.1	
879.86	2297.1	
880.02	2831.7	
880.19	4515.8	
880.36	5297.4	
880.52	2904.7	
880.69	3019.4	
880.86	4817.5	
881.02	4833.9	
881.19	2806.4	
881.36	2781.8	
881.52	4717.2	
881.69	4315.8	
881.86	2770.9	
882.02	2689.7	
882.19	4925.4	
882.36	5539.8	
882.52	2678.7	
882.69	3481.5	
882.86	4631.1	
883.02	4622.3	
883.19	3111.5	
883.36	2897.2	
883.52	4814.8	
883.69	5339.1	
883.86	2632.3	
884.02	2385.9	
884.19	4792.2	
884.36	4536.3	
884.52	2846	
884.69	2758.6	
884.86	4374.5	
885.02	5151.3	
885.19	2798.2	
885.36	2932.7	
885.52	4453	
885.69	4665.3	
885.86	3532.7	
886.02	3234.4	
886.19	4864.6	
886.35	4384.7	
886.52	2880.1	
886.69	3472	
886.85	4248.2	
887.02	4988.9	
887.19	4988.9	
887.35	4988.9	
887.52	4988.9	
887.68	4988.9	
887.85	4988.9	
888.02	4988.9	
888.18	4988.9	
888.35	4988.9	
888.51	4988.9	
888.68	4988.9	
888.85	4988.9	
889.01	4988.9	
889.18	4988.9	
889.35	4988.9	
889.51	4988.9	
889.68	4988.9	
889.84	4988.9	
890.01	4988.9	
890.17	4988.9	
890.34	4988.9	
890.51	4988.9	
890.67	4988.9	
890.84	4988.9	
891	4988.9	
891.17	4988.9	
891.34	4988.9	
891.5	4988.9	
891.67	4988.9	
891.83	4988.9	
892	4988.9	
892.16	4988.9	
892.33	4988.9	
892.5	4988.9	
892.66	4988.9	
892.83	4988.9	
892.99	4988.9	
893.16	4988.9	
893.32	4988.9	
893.49	4988.9	
893.65	4988.9	
893.82	4988.9	
893.99	4988.9	
894.15	4988.9	
894.32	4988.9	
894.48	4988.9	
894.65	4988.9	
894.81	4988.9	
894.98	4988.9	
895.14	4988.9	
895.31	4988.9	
895.47	4988.9	
895.64	4988.9	
895.81	4988.9	
895.97	4988.9	
896.14	4988.9	
896.3	4988.9	
896.47	4988.9	
896.63	4988.9	
896.8	4988.9	
896.96	4988.9	
897.13	4988.9	
897.29	4988.9	
897.46	4988.9	
897.62	4988.9	
897.79	4988.9	
897.95	4988.9	
898.12	4988.9	
898.28	4988.9	
898.45	4988.9	
898.61	4988.9	
898.78	4988.9	
898.94	4988.9	
899.11	4988.9	
899.27	4988.9	
899.44	4988.9	
899.6	4988.9	
899.77	4988.9	
899.93	4988.9	
900.1	4988.9	
900.26	4988.9	
900.43	4988.9	
900.59	4988.9	
900.76	4988.9	
900.92	4988.9	
901.09	4988.9	
901.25	4988.9	
901.42	4988.9	
901.58	4988.9	
901.75	4988.9	
901.91	4988.9	
902.07	4988.9	
902.24	4988.9	
902.4	4988.9	
902.57	4988.9	
902.73	4988.9	
902.9	4988.9	
903.06	4988.9	
903.23	4988.9	
903.39	4988.9	
903.56	4988.9	
903.72	4988.9	
903.88	4988.9	
904.05	4988.9	
904.21	4988.9	
904.38	4988.9	
904.54	4988.9	
904.71	4988.9	
904.87	4988.9	
905.03	4988.9	
905.2	4988.9	
905.36	4988.9	
905.53	4988.9	
905.69	4988.9	
905.86	4988.9	
906.02	4988.9	
906.18	4988.9	
906.35	4988.9	
906.51	4988.9	
906.68	4988.9	
906.84	4988.9	
907.01	4988.9	
907.17	4988.9	
907.33	4988.9	
907.5	4988.9	
907.66	4988.9	
907.83	4988.9	
907.99	4988.9	
908.15	4988.9	
908.32	4988.9	
908.48	4988.9	
908.65	4988.9	
908.81	4988.9	
908.97	4988.9	
909.14	4988.9	
909.3	4988.9	
909.47	4988.9	
909.63	4988.9	
909.79	4988.9	
909.96	4988.9	
910.12	4988.9	
910.28	4988.9	
910.45	4988.9	
910.61	4988.9	
910.78	4988.9	
910.94	4988.9	
911.1	4988.9	
911.27	4988.9	
911.43	4988.9	
911.59	4988.9	
911.76	4988.9	
911.92	4988.9	
912.08	4988.9	
912.25	4988.9	
912.41	4988.9	
912.57	4988.9	
912.74	4988.9	
912.9	4988.9	
913.07	4988.9	
913.23	4988.9	
913.39	4988.9	
913.56	4988.9	
913.72	4988.9	
913.88	4988.9	
914.05	4988.9	
914.21	4988.9	
914.37	4988.9	
914.54	4988.9	
914.7	4988.9	
914.86	4988.9	
915.03	4988.9	
915.19	4988.9	
