Wavelength	Intensities	
nm	a.u.	
179.22	1761.3	
179.44	1762.6	
179.65	1759.9	
179.86	1765.3	
180.08	1731.9	
180.29	4191.5	
180.51	3102	
180.72	5175.2	
180.94	5866.1	
181.15	2913.6	
181.37	2826.2	
181.58	5025.7	
181.79	5250.3	
182.01	3028.9	
182.22	3161.4	
182.44	5293.3	
182.65	4498.7	
182.87	3927.3	
183.08	3484.3	
183.29	5461.9	
183.51	4549.9	
183.72	3149.8	
183.94	4584.7	
184.15	4922.6	
184.37	4894.6	
184.58	2839.2	
184.79	3740.3	
185.01	4631.1	
185.22	5203.2	
185.44	3904.8	
185.65	3388.7	
185.86	4864.6	
186.08	4532.2	
186.29	2781.8	
186.51	2926.5	
186.72	4614.1	
186.94	5400.5	
187.15	3394.2	
187.36	3496.6	
187.58	6772.6	
187.79	5000.5	
188.01	3601	
188.22	5489.9	
188.43	5914.5	
188.65	5206.6	
188.86	2985.3	
189.08	3509.5	
189.29	4762.2	
189.5	4764.9	
189.72	3216.7	
189.93	3321.1	
190.15	5418.9	
190.36	6290.7	
190.57	3568.9	
190.79	3416	
191	5468.8	
191.22	5375.9	
191.43	3529.3	
191.64	2961.4	
191.86	5664.7	
192.07	5430.5	
192.29	3089.7	
192.5	3240.6	
192.71	5382.1	
192.93	4733.5	
193.14	3175.7	
193.35	3329.3	
193.57	4747.9	
193.78	5328.8	
194	2662.4	
194.21	3125.2	
194.42	4562.2	
194.64	4980.7	
194.85	3465.2	
195.07	3952.6	
195.28	4946.5	
195.49	4361.5	
195.71	4215.4	
195.92	3004.4	
196.13	5089.9	
196.35	5158.2	
196.56	4489.8	
196.78	3488.4	
196.99	6294.8	
197.2	5833.3	
197.42	3959.4	
197.63	3523.9	
197.84	4405.9	
198.06	5081.7	
198.27	3245.3	
198.48	4236.6	
198.7	4738.3	
198.91	4906.3	
199.13	3517	
199.34	3497.2	
199.55	5315.2	
199.77	4307.6	
199.98	3114.3	
200.19	3541.6	
200.41	4799.8	
200.62	4579.9	
200.83	3608.5	
201.05	3908.9	
201.26	4904.9	
201.47	4658.4	
201.69	3144.3	
201.9	3001	
202.11	4914.4	
202.33	5768.4	
202.54	3321.8	
202.76	3677.5	
202.97	4970.4	
203.18	5016.8	
203.4	3655.6	
203.61	3651.5	
203.82	4973.2	
204.04	4627.7	
204.25	3627	
204.46	3472	
204.68	4952	
204.89	5124.7	
205.1	3405.1	
205.32	2982.5	
205.53	5292	
205.74	5331.5	
205.96	2645.3	
206.17	3579.2	
206.38	5195.7	
206.6	5341.8	
206.81	4039.3	
207.02	3326.6	
207.24	5143.1	
207.45	5425.1	
207.66	3371	
207.88	2940.2	
208.09	5090.6	
208.3	4939	
208.52	3104.7	
208.73	3364.1	
208.94	4934.9	
209.15	5496.7	
209.37	3360.7	
209.58	3813.3	
209.79	5356.1	
210.01	4762.9	
210.22	2755.2	
210.43	2875.3	
210.65	4925.4	
210.86	5229.1	
211.07	3325.9	
211.29	3076.7	
211.5	5227.1	
211.71	4863.9	
211.93	3092.4	
212.14	3119.1	
212.35	4881	
212.56	5005.9	
212.78	3512.3	
212.99	2933.4	
213.2	5684.5	
213.42	4692.6	
213.63	3221.5	
213.84	3385.3	
214.06	4470.7	
214.27	4524	
214.48	3343.7	
214.69	3538.9	
214.91	5503.6	
215.12	5550	
215.33	3589.4	
215.55	3963.5	
215.76	5945.3	
215.97	5198.4	
216.18	3424.2	
216.4	3368.2	
216.61	4615.4	
216.82	5346.6	
217.04	3121.8	
217.25	3280.2	
217.46	5439.4	
217.67	5283.8	
217.89	2856.9	
218.1	2917	
218.31	4979.3	
218.53	5053	
218.74	3293.8	
218.95	3130	
219.16	4880.3	
219.38	5673.6	
219.59	3206.4	
219.8	3722.5	
220.01	6141.2	
220.23	4936.3	
220.44	4059.1	
220.65	3102	
220.87	4994.3	
221.08	5496.7	
221.29	2947.7	
221.5	3803.1	
221.72	6425.8	
221.93	4719.9	
222.14	3521.8	
222.35	4108.2	
222.57	4949.9	
222.78	5259.9	
222.99	3397.6	
223.2	3631.7	
223.42	5185.5	
223.63	5335	
223.84	2644.6	
224.05	2634.4	
224.27	6100.9	
224.48	5630.5	
224.69	4136.9	
224.9	3547.8	
225.12	5064.6	
225.33	4966.3	
225.54	2861.7	
225.75	3138.2	
225.97	4612.7	
226.18	4856.4	
226.39	3369.6	
226.6	3175.7	
226.82	4728.8	
227.03	4565.6	
227.24	3543	
227.45	3015.3	
227.67	5258.5	
227.88	5645.6	
228.09	3867.9	
228.3	3932.8	
228.52	5309	
228.73	4950.6	
228.94	3271.3	
229.15	2927.2	
229.36	4859.8	
229.58	4832.5	
229.79	3313.6	
230	3813.3	
230.21	5777.3	
230.43	4964.3	
230.64	3446	
230.85	3629.7	
231.06	5283.8	
231.28	5253	
231.49	2928.6	
231.7	3417.4	
231.91	5229.8	
232.12	4948.6	
232.34	3059.7	
232.55	3428.3	
232.76	5474.2	
232.97	5027.1	
233.18	3082.2	
233.4	3477.5	
233.61	5137	
233.82	4686.4	
234.03	3279.5	
234.25	3229.6	
234.46	6602.7	
234.67	4971.8	
234.88	3606.5	
235.09	3170.9	
235.31	5112.4	
235.52	4796.3	
235.73	3510.2	
235.94	2923.1	
236.15	4691.2	
236.37	5835.3	
236.58	3097.2	
236.79	3358	
237	5188.9	
237.21	4538.3	
237.43	3594.9	
237.64	2874	
237.85	8333.9	
238.06	4590.2	
238.27	3642	
238.48	2976.4	
238.7	5133.6	
238.91	4801.8	
239.12	3325.9	
239.33	3435.1	
239.54	4630.5	
239.76	4886.5	
239.97	3377.8	
240.18	3380.5	
240.39	6018.3	
240.6	5140.4	
240.82	3519.8	
241.03	2909.5	
241.24	4910.3	
241.45	5594.4	
241.66	3134.1	
241.87	3666.5	
242.09	5547.9	
242.3	5793.7	
242.51	3671.3	
242.72	3371.6	
242.93	5313.8	
243.14	4878.9	
243.36	3833.1	
243.57	4178.5	
243.78	5626.5	
243.99	5217.5	
244.2	3375.7	
244.41	3027.6	
244.63	4536.9	
244.84	5155.4	
245.05	3603.1	
245.26	3359.4	
245.47	5200.5	
245.68	5342.5	
245.9	4378.6	
246.11	3563.5	
246.32	4794.3	
246.53	5113.1	
246.74	5331.5	
246.95	2845.3	
247.16	4584	
247.38	4926	
247.59	2852.1	
247.8	3401.7	
248.01	4685.8	
248.22	4877.6	
248.43	3067.2	
248.64	3332.7	
248.86	4414.1	
249.07	4757.4	
249.28	3024.2	
249.49	3523.9	
249.7	5378.6	
249.91	5471.5	
250.12	2861	
250.34	2944.3	
250.55	5014.8	
250.76	5045.5	
250.97	3488.4	
251.18	3543.7	
251.39	5532.2	
251.6	5107.6	
251.81	3520.5	
252.03	3508.2	
252.24	4723.3	
252.45	5334.3	
252.66	2962.7	
252.87	3726.6	
253.08	4977.9	
253.29	6283.9	
253.5	3033	
253.72	4063.9	
253.93	4884.4	
254.14	5749.3	
254.35	3268.6	
254.56	3274	
254.77	5104.2	
254.98	4595.6	
255.19	3233.7	
255.41	4009.2	
255.62	5053.7	
255.83	5451.7	
256.04	3565.5	
256.25	3558	
256.46	5855.8	
256.67	4734.9	
256.88	3474	
257.09	3784	
257.31	4610.7	
257.52	4686.4	
257.73	4328.7	
257.94	3220.1	
258.15	4859.8	
258.36	4923.3	
258.57	4016.7	
258.78	2646	
258.99	5339.7	
259.2	4758.8	
259.41	3277.4	
259.63	3315.7	
259.84	5591	
260.05	5948.7	
260.26	4162.2	
260.47	3127.9	
260.68	5435.3	
260.89	4887.8	
261.1	3809.2	
261.31	3113.6	
261.52	5505.6	
261.73	5707.7	
261.95	4143	
262.16	3616	
262.37	5543.9	
262.58	5614.2	
262.79	4033.8	
263	3265.8	
263.21	4959.5	
263.42	4768.4	
263.63	3358	
263.84	3315.7	
264.05	5390.3	
264.26	5680.4	
264.47	3963.5	
264.69	3626.3	
264.9	5534.3	
265.11	5104.9	
265.32	3145.7	
265.53	3207.1	
265.74	5051	
265.95	4412.7	
266.16	3420.8	
266.37	3733.4	
266.58	5028.4	
266.79	4793.6	
267	3250.1	
267.21	3001	
267.42	4582	
267.63	4889.2	
267.84	3389.4	
268.06	2949.1	
268.27	5315.8	
268.48	5459.2	
268.69	3321.8	
268.9	3842.7	
269.11	5494	
269.32	4462.5	
269.53	3383.9	
269.74	3148.4	
269.95	5189.6	
270.16	4465.9	
270.37	3449.5	
270.58	3858.4	
270.79	4809.3	
271	5333.6	
271.21	3558.7	
271.42	3430.3	
271.63	5072.8	
271.84	4611.3	
272.05	2792.1	
272.26	3077.4	
272.47	4969.7	
272.68	5047.6	
272.89	3241.9	
273.11	3760.8	
273.32	4734.2	
273.53	5664.7	
273.74	3648.8	
273.95	3589.4	
274.16	5426.4	
274.37	4980.7	
274.58	3699.3	
274.79	2978.4	
275	5083.7	
275.21	5478.3	
275.42	4362.9	
275.63	3820.1	
275.84	5205.9	
276.05	6350.8	
276.26	3592.8	
276.47	3376.4	
276.68	4810.7	
276.89	5711.1	
277.1	3784.6	
277.31	2923.1	
277.52	5118.6	
277.73	5404.6	
277.94	3001.6	
278.15	3210.5	
278.36	5126.1	
278.57	4709.6	
278.78	3219.4	
278.99	3603.1	
279.2	4676.2	
279.41	4564.9	
279.62	4233.2	
279.83	3025.5	
280.04	5935	
280.25	4580.6	
280.46	4251.6	
280.67	3429	
280.88	4662.5	
281.09	5429.2	
281.3	3568.9	
281.51	4433.2	
281.72	4689.2	
281.93	5327.4	
282.14	3160	
282.35	3452.2	
282.56	5308.3	
282.77	5262.6	
282.98	3257	
283.19	3999	
283.4	6393.1	
283.61	4924	
283.82	3092.4	
284.03	4163.5	
284.24	5063.9	
284.45	5446.9	
284.66	4191.5	
284.87	3967.6	
285.08	5407.3	
285.29	5477	
285.5	2949.1	
285.71	3351.2	
285.92	5445.5	
286.12	5922	
286.33	4130.8	
286.54	3333.4	
286.75	5378	
286.96	4863.2	
287.17	3047.4	
287.38	3976.5	
287.59	4695.3	
287.8	4668	
288.01	3295.2	
288.22	3698.6	
288.43	5281.7	
288.64	4518.5	
288.85	3888.4	
289.06	3685	
289.27	5294	
289.48	5735.7	
289.69	4158.1	
289.9	3835.2	
290.11	5537.7	
290.32	4734.2	
290.53	3945.1	
290.74	3672	
290.94	5264	
291.15	5317.2	
291.36	3156.6	
291.57	3761.4	
291.78	4752.7	
291.99	4461.2	
292.2	3092.4	
292.41	3669.3	
292.62	5410.1	
292.83	5218.9	
293.04	4435.9	
293.25	3134.1	
293.46	4796.3	
293.67	5401.9	
293.88	3127.2	
294.09	3082.2	
294.29	4643.4	
294.5	5042.8	
294.71	3392.1	
294.92	3258.3	
295.13	4829.1	
295.34	5829.9	
295.55	2907.4	
295.76	2906.1	
295.97	5317.2	
296.18	5867.4	
296.39	3057.6	
296.6	3159.3	
296.81	5044.8	
297.01	5304.9	
297.22	3315	
297.43	3228.3	
297.64	4724.7	
297.85	4595	
298.06	2670.6	
298.27	2848.7	
298.48	4916.5	
298.69	4674.1	
298.9	3465.8	
299.11	3126.6	
299.31	4578.6	
299.52	4638	
299.73	3681.6	
299.94	3654.3	
300.15	4999.8	
300.36	4648.2	
300.57	3605.8	
300.78	3566.2	
300.99	4816.1	
301.2	5005.9	
301.4	3235.8	
301.61	3483.6	
301.82	5218.9	
302.03	5285.1	
302.24	3807.2	
302.45	3025.5	
302.66	5153.4	
302.87	5565	
303.08	3166.8	
303.29	4262.5	
303.49	4790.2	
303.7	4909.7	
303.91	2891.7	
304.12	4014.7	
304.33	4524	
304.54	5063.9	
304.75	3212.6	
304.96	3115.6	
305.16	5163.6	
305.37	5831.2	
305.58	2829.6	
305.79	2952.5	
306	5211.4	
306.21	4463.9	
306.42	3119.7	
306.63	4752.7	
306.83	4776.5	
307.04	5354.1	
307.25	3500.7	
307.46	3450.1	
307.67	4326.7	
307.88	5305.6	
308.09	3151.1	
308.29	3255.6	
308.5	5012.1	
308.71	5398.4	
308.92	3385.3	
309.13	3046.7	
309.34	4850.3	
309.55	4818.2	
309.75	3938.9	
309.96	3603.1	
310.17	5311.1	
310.38	4671.4	
310.59	3781.2	
310.8	3024.2	
311.01	4807.9	
311.21	4837.3	
311.42	3107.5	
311.63	3157.3	
311.84	4774.5	
312.05	5031.9	
312.26	3616.7	
312.46	3885.7	
312.67	4799.8	
312.88	4512.4	
313.09	3083.6	
313.3	2977.1	
313.51	5570.5	
313.71	5896.8	
313.92	3106.8	
314.13	3278.1	
314.34	5125.4	
314.55	4889.2	
314.76	3902.7	
314.96	3402.4	
315.17	5029.8	
315.38	5201.2	
315.59	3117	
315.8	2968.2	
316.01	5592.3	
316.21	5661.3	
316.42	3053.5	
316.63	3394.2	
316.84	4808.6	
317.05	5485.8	
317.26	3609.9	
317.46	3279.5	
317.67	4872.8	
317.88	5254.4	
318.09	3863.8	
318.3	2926.5	
318.5	4728.1	
318.71	5164.3	
318.92	4889.9	
319.13	3642.7	
319.34	5438	
319.54	5509.7	
319.75	2904	
319.96	2699.2	
320.17	5247.6	
320.38	5407.3	
320.58	2808.4	
320.79	3378.5	
321	5483.8	
321.21	5498.8	
321.42	3394.2	
321.62	2865.8	
321.83	4616.8	
322.04	4935.6	
322.25	3270.6	
322.46	3117.7	
322.66	5031.9	
322.87	5177.3	
323.08	3766.2	
323.29	2992.1	
323.5	5848.3	
323.7	4597	
323.91	4093.9	
324.12	3678.8	
324.33	4961.5	
324.53	5239.4	
324.74	3614.7	
324.95	3775.8	
325.16	4482.3	
325.37	4797	
325.57	3077.4	
325.78	3176.4	
325.99	5012.7	
326.2	4502.1	
326.4	4299.4	
326.61	2887.6	
326.82	4889.2	
327.03	5024.3	
327.24	4319.8	
327.44	4011.3	
327.65	5156.8	
327.86	4246.1	
328.07	3618.1	
328.27	3033.7	
328.48	5517.2	
328.69	4599.1	
328.9	4362.9	
329.1	3276.8	
329.31	4894	
329.52	5627.8	
329.73	3125.9	
329.93	3433.1	
330.14	4994.3	
330.35	5089.9	
330.56	4895.3	
330.76	3757.3	
330.97	4825.7	
331.18	5072.8	
331.39	3440.6	
331.59	2801.6	
331.8	5431.9	
332.01	5527.5	
332.22	3167.5	
332.42	3575.1	
332.63	5051	
332.84	4696	
333.05	3520.5	
333.25	3146.4	
333.46	4732.2	
333.67	4909	
333.88	3244	
334.08	3525.9	
334.29	6505.7	
334.5	5422.3	
334.7	3000.3	
334.91	4339.6	
335.12	4582	
335.33	5243.5	
335.53	3393.5	
335.74	4958.8	
335.95	4805.9	
336.16	4573.8	
336.36	3436.5	
336.57	3856.3	
336.78	4552	
336.98	5367	
337.19	4119.8	
337.4	3347.1	
337.61	5884.5	
337.81	4592.9	
338.02	3230.3	
338.23	4023.6	
338.43	5539.8	
338.64	4691.9	
338.85	3134.1	
339.05	4022.2	
339.26	5661.3	
339.47	4488.5	
339.68	3104.7	
339.88	4486.4	
340.09	5123.3	
340.3	5327.4	
340.5	3607.8	
340.71	2761.3	
340.92	4575.2	
341.13	5501.5	
341.33	2992.1	
341.54	3620.8	
341.75	5161.6	
341.95	4829.8	
342.16	3450.1	
342.37	3736.9	
342.57	4601.8	
342.78	4870.1	
342.99	3744.4	
343.19	2800.3	
343.4	5304.2	
343.61	5145.2	
343.81	3328.6	
344.02	3041.9	
344.23	5285.8	
344.43	5588.9	
344.64	3802.4	
344.85	3729.4	
345.06	5141.1	
345.26	5444.2	
345.47	3594.9	
345.68	4178.5	
345.88	4418.2	
346.09	5318.6	
346.3	3614.7	
346.5	2745	
346.71	4911.7	
346.92	4698	
347.12	2854.2	
347.33	3560.7	
347.54	5419.6	
347.74	5670.8	
347.95	3527.3	
348.16	2671.9	
348.36	4773.8	
348.57	4619.5	
348.78	3532.7	
348.98	3755.3	
349.19	4911.7	
349.39	4489.8	
349.6	2920.4	
349.81	3196.2	
350.01	5200.5	
350.22	4743.8	
350.43	3446	
350.63	4087.1	
350.84	4988.2	
351.05	4692.6	
351.25	3126.6	
351.46	2860.3	
351.67	5354.8	
351.87	4664.6	
352.08	3312.9	
352.29	3783.3	
352.49	5308.3	
352.7	5082.4	
352.9	3048.1	
353.11	3787.4	
353.32	5905	
353.52	4775.2	
353.73	3020.1	
353.94	3790.1	
354.14	5188.2	
354.35	4995	
354.55	3070.6	
354.76	3444.7	
354.97	5115.1	
355.17	4975.2	
355.38	2914.9	
355.59	3941.7	
355.79	4645.5	
356	4989.5	
356.2	3381.9	
356.41	2985.9	
356.62	4455.7	
356.82	4758.1	
357.03	3624.9	
357.24	3269.2	
357.44	4600.4	
357.65	4781.3	
357.85	4298.7	
358.06	3502	
358.27	4416.1	
358.47	4630.5	
358.68	2923.1	
358.88	3622.9	
359.09	5083.7	
359.3	5423	
359.5	4124.6	
359.71	3728	
359.91	5709.1	
360.12	5167.7	
360.33	3573	
360.53	4020.2	
360.74	4689.8	
360.94	4740.4	
361.15	3843.4	
361.36	3194.1	
361.56	5370.5	
361.77	4874.2	
361.97	4172.4	
362.18	3362.1	
362.38	5381.4	
362.59	4536.3	
362.8	3160	
363	2975	
363.21	4381.3	
363.41	5007.3	
363.62	3526.6	
363.83	4365.6	
364.03	5068.7	
364.24	5841.5	
364.44	4390.8	
364.65	4433.2	
364.85	4884.4	
365.06	4620.2	
365.27	3192.8	
365.47	3305.4	
365.68	5595.7	
365.88	4846.9	
366.09	3594.2	
366.29	3338.2	
366.5	5058.5	
366.71	5443.5	
366.91	4362.9	
367.12	3741.6	
367.32	5864	
367.53	5291.3	
367.73	3660.4	
367.94	4535.6	
368.14	5281.7	
368.35	5957.5	
368.56	3608.5	
368.76	3141.6	
368.97	5368.4	
369.17	6621.1	
369.38	3233.1	
369.58	3467.2	
369.79	4532.2	
369.99	5538.4	
370.2	4304.8	
370.4	3568.9	
370.61	5091.9	
370.82	6184.2	
371.02	3474.7	
371.23	2916.3	
371.43	4507.6	
371.64	5618.3	
371.84	3611.3	
372.05	4466.6	
372.25	6651.1	
372.46	5333.6	
372.66	3498.6	
372.87	3470.6	
373.07	5382.7	
373.28	6681.2	
373.48	4320.5	
373.69	4091.8	
373.9	4965	
374.1	4946.5	
374.31	4268.6	
374.51	3932.1	
374.72	5592.3	
374.92	4674.8	
375.13	4406.5	
375.33	3768.9	
375.54	5326.1	
375.74	4834.6	
375.95	3850.9	
376.15	4823	
376.36	5315.2	
376.56	5199.1	
376.77	3820.1	
376.97	4272.7	
377.18	6245.6	
377.38	5466	
377.59	4531.5	
377.79	3506.1	
378	5261.9	
378.2	5606	
378.41	3534.1	
378.61	3452.2	
378.82	5591.6	
379.02	4882.4	
379.23	3715	
379.43	4526	
379.64	5707	
379.84	5328.1	
380.05	3549.8	
380.25	3478.8	
380.46	5457.8	
380.66	5124	
380.87	4604.5	
381.07	4937	
381.28	5898.8	
381.48	5471.5	
381.69	3543	
381.89	3547.8	
382.1	4627.7	
382.3	5472.2	
382.51	4478.9	
382.71	5143.8	
382.91	5408	
383.12	5847	
383.32	3848.8	
383.53	4031.1	
383.73	5373.2	
383.94	5130.2	
384.14	3951.2	
384.35	3239.2	
384.55	5038.7	
384.76	5408.7	
384.96	3829.7	
385.17	4071.4	
385.37	5445.5	
385.58	4797.7	
385.78	4030.4	
385.98	3160	
386.19	4997.7	
386.39	5345.9	
386.6	3596.2	
386.8	3820.1	
387.01	5382.1	
387.21	5459.9	
387.42	4153.3	
387.62	4595.6	
387.83	4844.8	
388.03	5314.5	
388.23	3874.1	
388.44	4478.2	
388.64	4571.7	
388.85	4759.5	
389.05	4173.8	
389.26	4667.3	
389.46	6326.2	
389.67	5830.6	
389.87	4132.1	
390.07	4084.3	
390.28	5085.1	
390.48	4777.2	
390.69	3456.3	
390.89	3762.8	
391.1	4974.5	
391.3	5698.8	
391.5	4695.3	
391.71	5122.7	
391.91	5593.7	
392.12	6244.3	
392.32	4756.1	
392.53	4255	
392.73	5026.4	
392.93	5155.4	
393.14	3863.2	
393.34	4457.1	
393.55	5428.5	
393.75	5048.2	
393.95	3852.2	
394.16	3830.4	
394.36	4937.7	
394.57	5532.2	
394.77	3403.7	
394.98	3788.1	
395.18	4869.4	
395.38	4978.6	
395.59	4498.7	
395.79	3618.8	
396	5052.3	
396.2	5420.3	
396.4	4360.1	
396.61	4263.2	
396.81	5566.4	
397.02	5013.4	
397.22	4529.4	
397.42	4549.9	
397.63	5535	
397.83	4888.5	
398.04	3615.3	
398.24	4023.6	
398.44	5367	
398.65	4627	
398.85	3507.5	
399.05	3609.2	
399.26	4962.9	
399.46	6295.5	
399.67	3913	
399.87	3714.3	
400.07	5224.4	
400.28	5483.1	
400.48	3730.7	
400.69	4552.6	
400.89	5667.4	
401.09	6005.3	
401.3	3650.8	
401.5	4580.6	
401.7	6196.5	
401.91	6391.7	
402.11	4034.5	
402.32	4126.7	
402.52	5740.5	
402.72	5580.7	
402.93	4257.7	
403.13	3394.2	
403.33	6234	
403.54	5167.7	
403.74	4074.1	
403.94	4739.7	
404.15	5350	
404.35	6251.1	
404.56	3875.4	
404.76	5367.7	
404.96	5671.5	
405.17	5470.8	
405.37	4890.5	
405.57	4311	
405.78	5711.8	
405.98	5247.6	
406.18	3837.2	
406.39	4569	
406.59	5667.4	
406.79	5241.4	
407	3709.6	
407.2	3799.7	
407.4	5712.5	
407.61	5822.4	
407.81	3844	
408.01	5424.4	
408.22	4866	
408.42	6455.2	
408.62	4721.3	
408.83	4292.5	
409.03	5322	
409.23	5218.2	
409.44	4315.8	
409.64	4474.1	
409.84	6160.3	
410.05	6078.4	
410.25	4447.5	
410.45	4252.9	
410.66	5605.3	
410.86	7634.1	
411.06	4595.6	
411.27	4508.9	
411.47	7432.1	
411.67	5742.5	
411.88	4700.8	
412.08	4864.6	
412.28	6207.4	
412.49	6684.6	
412.69	4452.3	
412.89	4486.4	
413.09	6505.7	
413.3	6487.3	
413.5	4627	
413.7	4229.7	
413.91	5847	
414.11	6582.2	
414.31	4401.1	
414.52	4719.9	
414.72	6257.2	
414.92	6134.3	
415.12	4367	
415.33	4838.7	
415.53	6402.6	
415.73	6490.7	
415.94	5143.1	
416.14	4617.5	
416.34	5646.9	
416.55	5465.3	
416.75	5600.5	
416.95	5137	
417.15	6507.1	
417.36	7041.6	
417.56	5740.5	
417.76	4868.7	
417.97	6679.1	
418.17	6453.8	
418.37	4733.5	
418.57	4700.1	
418.78	6311.8	
418.98	5978.7	
419.18	5445.5	
419.38	5312.4	
419.59	5995.1	
419.79	5709.7	
419.99	4615.4	
420.2	4874.8	
420.4	6537.1	
420.6	6525.5	
420.8	4494.6	
421.01	4418.8	
421.21	6348.7	
421.41	6449.7	
421.61	4861.9	
421.82	4596.3	
422.02	5974.6	
422.22	6731.7	
422.42	5178.6	
422.63	4941.1	
422.83	5977.3	
423.03	6977.4	
423.23	4945.8	
423.44	4166.3	
423.64	6090	
423.84	5825.1	
424.04	4564.9	
424.25	4232.5	
424.45	6728.9	
424.65	6739.9	
424.85	4063.9	
425.06	4545.8	
425.26	6770.6	
425.46	5906.3	
425.66	4952.7	
425.87	4659.8	
426.07	6569.9	
426.27	6356.9	
426.47	4844.1	
426.67	4239.3	
426.88	6838.2	
427.08	6373.3	
427.28	4917.9	
427.48	4210.6	
427.69	5537	
427.89	6001.2	
428.09	4934.2	
428.29	4263.9	
428.5	6547.4	
428.7	6111.8	
428.9	4162.8	
429.1	4551.3	
429.3	6199.2	
429.51	6441.5	
429.71	4478.9	
429.91	5104.2	
430.11	6422.4	
430.31	6552.8	
430.52	4648.2	
430.72	4838	
430.92	6840.2	
431.12	6402	
431.32	4360.8	
431.53	4780	
431.73	5514.5	
431.93	6846.4	
432.13	4349.9	
432.33	4222.2	
432.54	5911.1	
432.74	6119.3	
432.94	4117.1	
433.14	5008	
433.34	6401.3	
433.55	5969.1	
433.75	4928.1	
433.95	6335.1	
434.15	6124.8	
434.35	5915.2	
434.56	4294.6	
434.76	3958.7	
434.96	6070.2	
435.16	6277	
435.36	4237.2	
435.56	5142.4	
435.77	5819	
435.97	5978	
436.17	5658.5	
436.37	5067.4	
436.57	5743.2	
436.78	5735.7	
436.98	5073.5	
437.18	5485.8	
437.38	6285.2	
437.58	5951.4	
437.78	5726.8	
437.99	4577.2	
438.19	6457.2	
438.39	7022.5	
438.59	4514.4	
438.79	4093.2	
438.99	6903.7	
439.2	5907.7	
439.4	4189.5	
439.6	4153.3	
439.8	6161	
440	7165.2	
440.2	5001.8	
440.4	5059.2	
440.61	6528.2	
440.81	6879.8	
441.01	4308.2	
441.21	5038.7	
441.41	6767.2	
441.61	6503	
441.81	5238	
442.02	6071.5	
442.22	7206.1	
442.42	6546.7	
442.62	4406.5	
442.82	4435.2	
443.02	6878.4	
443.22	6166.4	
443.43	4736.3	
443.63	4313.7	
443.83	6017.6	
444.03	5933.6	
444.23	5385.5	
444.43	5031.2	
444.63	6237.4	
444.83	7212.9	
445.04	4460.5	
445.24	5464.7	
445.44	6534.4	
445.64	6495.5	
445.84	5061.2	
446.04	5149.3	
446.24	5980.1	
446.44	6819.7	
446.65	4412	
446.85	4798.4	
447.05	6351.4	
447.25	6837.5	
447.45	4837.3	
447.65	4323.9	
447.85	6272.2	
448.05	5911.8	
448.25	5149.3	
448.46	5040.7	
448.66	6255.9	
448.86	5976	
449.06	4217.5	
449.26	5121.3	
449.46	6553.5	
449.66	5782.1	
449.86	4782	
450.06	4745.1	
450.26	5947.3	
450.47	6455.2	
450.67	4986.8	
450.87	5226.4	
451.07	6550.1	
451.27	6244.3	
451.47	4369.7	
451.67	4801.1	
451.87	5955.5	
452.07	6992.4	
452.27	4549.9	
452.47	4595.6	
452.67	6239.5	
452.88	6649.8	
453.08	4052.2	
453.28	5616.2	
453.48	7242.3	
453.68	6169.8	
453.88	4451.6	
454.08	4678.2	
454.28	6506.4	
454.48	6264.1	
454.68	5145.2	
454.88	5529.5	
455.08	6634.1	
455.28	6396.5	
455.48	4339.6	
455.68	4840	
455.89	7032	
456.09	6649.8	
456.29	4649.6	
456.49	4709	
456.69	6879.8	
456.89	6244.9	
457.09	5059.8	
457.29	5343.2	
457.49	6543.9	
457.69	6635.4	
457.89	4891.9	
458.09	4435.2	
458.29	6311.8	
458.49	6949.4	
458.69	5194.3	
458.89	4695.3	
459.09	7091.4	
459.29	7094.2	
459.49	4790.9	
459.69	5484.5	
459.9	6709.8	
460.1	6291.4	
460.3	4756.7	
460.5	4607.9	
460.7	6662.7	
460.9	6393.1	
461.1	4343.7	
461.3	5335.6	
461.5	7243	
461.7	6905.1	
461.9	4606.6	
462.1	5054.4	
462.3	6438.1	
462.5	6962.4	
462.7	4700.8	
462.9	4758.1	
463.1	7727.7	
463.3	7385	
463.5	4911	
463.7	5611.4	
463.9	6626.5	
464.1	6911.9	
464.3	4995	
464.5	5214.8	
464.7	7116	
464.9	6717.3	
465.1	6304.3	
465.3	5483.1	
465.5	7279.8	
465.7	7343.3	
465.9	5653.8	
466.1	5514.5	
466.3	7165.8	
466.5	7072.3	
466.7	6169.8	
466.9	5276.3	
467.1	7084.6	
467.3	7752.2	
467.5	6146	
467.7	5220.3	
467.9	7915.4	
468.1	8665	
468.3	5947.3	
468.5	6256.5	
468.7	6981.5	
468.9	6949.4	
469.1	5540.4	
469.3	6027.9	
469.5	8520.9	
469.7	6556.2	
469.9	5897.5	
470.1	5233.9	
470.3	7086.7	
470.5	7019.1	
470.7	6307.1	
470.9	5374.6	
471.1	6865.5	
471.3	7168.6	
471.5	5251.7	
471.69	6765.8	
471.89	6751.5	
472.09	6380.1	
472.29	5875.6	
472.49	6106.4	
472.69	6466.8	
472.89	7157	
473.09	5135.6	
473.29	5324	
473.49	6615.6	
473.69	6731	
473.89	5968.5	
474.09	5408	
474.29	7748.8	
474.49	7480.5	
474.69	5999.9	
474.89	5452.4	
475.09	6821.1	
475.29	6754.9	
475.49	5023	
475.69	5173.9	
475.88	8146.1	
476.08	7176.1	
476.28	4970.4	
476.48	5270.1	
476.68	7401.4	
476.88	7175.4	
477.08	5228.5	
477.28	5442.1	
477.48	6897.6	
477.68	7337.2	
477.88	5008	
478.08	5358.2	
478.28	7634.1	
478.48	6910.5	
478.67	5374.6	
478.87	4848.9	
479.07	7499	
479.27	7060.7	
479.47	5541.1	
479.67	5477	
479.87	7323.5	
480.07	7742.7	
480.27	4947.9	
480.47	6205.3	
480.67	7066.9	
480.87	7571.3	
481.06	5179.3	
481.26	5888.6	
481.46	7005.4	
481.66	6911.9	
481.86	5528.2	
482.06	6266.1	
482.26	6751.5	
482.46	7438.2	
482.66	5429.2	
482.86	5133.6	
483.05	7073	
483.25	6536.4	
483.45	7497.6	
483.65	5446.9	
483.85	6702.3	
484.05	6916.7	
484.25	5752.7	
484.45	6106.4	
484.65	7585	
484.84	7661.5	
485.04	5436	
485.24	5331.5	
485.44	7911.3	
485.64	6510.5	
485.84	4813.4	
486.04	5849	
486.24	6893.5	
486.44	7061.4	
486.63	4782	
486.83	5451	
487.03	6732.4	
487.23	6850.5	
487.43	4830.5	
487.63	6773.3	
487.83	6917.4	
488.02	7698.3	
488.22	5657.9	
488.42	6100.9	
488.62	7617.8	
488.82	6677.7	
489.02	5422.3	
489.22	5410.7	
489.41	7444.4	
489.61	7208.2	
489.81	5143.1	
490.01	5149.3	
490.21	7390.4	
490.41	7972.1	
490.61	5143.1	
490.8	5252.4	
491	7038.2	
491.2	6501.6	
491.4	5680.4	
491.6	4993.6	
491.8	7081.9	
491.99	7132.4	
492.19	4986.8	
492.39	5181.4	
492.59	7411.6	
492.79	7497.6	
492.99	5896.1	
493.18	5126.1	
493.38	7563.8	
493.58	8112	
493.78	5653.8	
493.98	5271.5	
494.18	7294.9	
494.37	6840.9	
494.57	5846.3	
494.77	5733.6	
494.97	7464.2	
495.17	7624.6	
495.37	5428.5	
495.56	5681.1	
495.76	7737.2	
495.96	7432.8	
496.16	6432.7	
496.36	5554.8	
496.55	7618.4	
496.75	7210.9	
496.95	5859.2	
497.15	5804.6	
497.35	7535.8	
497.54	7580.9	
497.74	5618.3	
497.94	6972.7	
498.14	8165.3	
498.34	7981.6	
498.53	5384.8	
498.73	5967.8	
498.93	7079.8	
499.13	7559.1	
499.33	5827.8	
499.52	6215.6	
499.72	7585	
499.92	7779.6	
500.12	5509.7	
500.32	5753.4	
500.51	7778.2	
500.71	7554.3	
500.91	6412.2	
501.11	6113.2	
501.31	7709.9	
501.5	8056.7	
501.7	6640.2	
501.9	5823.7	
502.1	7509.9	
502.29	7830.1	
502.49	6143.9	
502.69	6574	
502.89	7741.3	
503.09	7699	
503.28	5417.6	
503.48	5515.2	
503.68	7175.4	
503.88	7079.8	
504.07	6239.5	
504.27	5891.3	
504.47	7452.6	
504.67	7488.7	
504.86	6238.8	
505.06	6032	
505.26	7293.5	
505.46	8567.3	
505.65	5862	
505.85	6060.6	
506.05	7147.4	
506.25	7606.8	
506.44	5328.8	
506.64	6135.7	
506.84	7054.6	
507.04	7832.1	
507.23	5582.1	
507.43	6039.5	
507.63	8697	
507.83	7233.4	
508.02	6042.9	
508.22	5754.1	
508.42	8847.2	
508.62	7080.5	
508.81	5856.5	
509.01	6422.4	
509.21	7050.5	
509.4	7238.2	
509.6	6086.6	
509.8	5589.6	
510	7177.4	
510.19	8329.1	
510.39	5515.9	
510.59	5576.6	
510.79	6967.2	
510.98	8142.7	
511.18	5640.1	
511.38	5755.5	
511.57	7716.1	
511.77	7548.1	
511.97	6233.3	
512.17	5552.7	
512.36	7666.9	
512.56	7593.2	
512.76	5498.8	
512.95	5327.4	
513.15	7808.2	
513.35	6655.9	
513.55	6287.3	
513.74	5558.9	
513.94	7726.3	
514.14	7197.9	
514.33	6352.8	
514.53	6029.2	
514.73	7261.4	
514.92	7313.3	
515.12	5621	
515.32	5441.5	
515.51	7383.6	
515.71	7845.1	
515.91	6946	
516.11	5506.3	
516.3	8737.3	
516.5	7083.2	
516.7	6038.1	
516.89	6436.1	
517.09	7200	
517.29	7126.2	
517.48	6406.7	
517.68	5705	
517.88	6967.9	
518.07	7438.9	
518.27	6067.4	
518.47	5456.5	
518.66	7952.9	
518.86	6858.6	
519.06	5226.4	
519.25	5624.4	
519.45	7116.7	
519.65	8271.1	
519.84	6118	
520.04	6693.4	
520.24	8671.8	
520.43	7617.8	
520.63	5942.5	
520.83	5682.4	
521.02	6987	
521.22	7567.9	
521.42	6098.9	
521.61	6536.4	
521.81	7223.9	
522.01	7333.1	
522.2	6036.7	
522.4	5763.7	
522.6	7709.9	
522.79	6678.4	
522.99	5855.1	
523.18	5231.2	
523.38	7483.3	
523.58	7402.7	
523.77	6819.1	
523.97	5334.3	
524.17	8926.4	
524.36	8208.9	
524.56	6363	
524.76	5995.8	
524.95	7400.7	
525.15	7053.9	
525.34	5967.1	
525.54	5877	
525.74	7755	
525.93	6860	
526.13	6839.5	
526.33	5863.3	
526.52	7980.9	
526.72	7515.4	
526.91	6853.9	
527.11	6249.7	
527.31	7964.6	
527.5	8276.5	
527.7	6154.1	
527.89	5407.3	
528.09	7161.7	
528.29	7587.7	
528.48	6550.1	
528.68	6321.4	
528.87	7856.7	
529.07	7972.7	
529.27	6162.3	
529.46	5858.6	
529.66	7703.1	
529.85	7923.6	
530.05	5664.7	
530.25	6290	
530.44	8731.2	
530.64	7510.6	
530.83	5999.9	
531.03	6201.2	
531.23	8088.8	
531.42	7892.9	
531.62	6726.2	
531.81	6066.1	
532.01	7972.1	
532.21	8332.5	
532.4	5892	
532.6	6249	
532.79	8651.3	
532.99	8077.2	
533.18	6232	
533.38	7087.3	
533.58	7643.7	
533.77	8269	
533.97	6242.2	
534.16	6859.3	
534.36	8520.9	
534.55	7748.8	
534.75	7014.3	
534.95	6239.5	
535.14	8411	
535.34	7745.4	
535.53	5983.5	
535.73	7575.4	
535.92	8843.1	
536.12	7863.5	
536.31	6126.8	
536.51	7116.7	
536.71	8137.3	
536.9	7732.4	
537.1	6229.2	
537.29	6371.9	
537.49	8501.1	
537.68	7634.1	
537.88	6608.1	
538.07	6018.3	
538.27	7934.5	
538.46	8709.3	
538.66	5910.4	
538.86	6307.1	
539.05	7942	
539.25	8244.4	
539.44	6527.6	
539.64	6128.9	
539.83	7786.4	
540.03	8538.7	
540.22	6157.6	
540.42	6253.8	
540.61	8084.7	
540.81	8106.5	
541	6624.5	
541.2	7071.6	
541.39	7687.4	
541.59	7910.6	
541.78	6813.6	
541.98	6127.5	
542.18	7432.8	
542.37	7322.9	
542.57	6470.9	
542.76	6774.7	
542.96	7479.2	
543.15	8049.9	
543.35	6479.1	
543.54	5954.8	
543.74	8301.8	
543.93	7826	
544.13	6437.4	
544.32	7358.4	
544.52	8202.1	
544.71	7532.4	
544.91	5728.2	
545.1	6682.5	
545.3	7580.2	
545.49	8054	
545.69	5728.2	
545.88	6171.9	
546.08	8850	
546.27	8518.9	
546.47	6634.7	
546.66	6061.3	
546.86	8279.3	
547.05	8695	
547.24	6142.5	
547.44	6078.4	
547.63	7417.1	
547.83	8360.5	
548.02	6395.8	
548.22	6593.1	
548.41	7212.9	
548.61	8376.9	
548.8	6034	
549	5965.7	
549.19	7889.5	
549.39	8150.2	
549.58	5779.4	
549.78	6302.3	
549.97	8074.5	
550.17	7701.7	
550.36	7048.4	
550.55	7802.8	
550.75	7716.1	
550.94	8486.1	
551.14	5933.6	
551.33	6354.2	
551.53	7215	
551.72	7960.5	
551.92	6245.6	
552.11	6029.2	
552.31	8105.2	
552.5	8039	
552.69	7496.9	
552.89	5753.4	
553.08	7978.9	
553.28	7703.8	
553.47	6184.2	
553.67	7003.4	
553.86	8538	
554.06	7180.2	
554.25	5538.4	
554.44	5917.3	
554.64	9127.8	
554.83	8736	
555.03	5838.1	
555.22	6224.5	
555.42	8183	
555.61	7853.3	
555.8	6108.4	
556	6410.8	
556.19	7261.4	
556.39	8242.4	
556.58	6126.8	
556.78	6206	
556.97	7851.2	
557.16	7543.4	
557.36	7061.4	
557.55	5807.4	
557.75	7043	
557.94	8413.7	
558.13	5929.6	
558.33	5750	
558.52	8226	
558.72	7271	
558.91	5843.5	
559.1	5976.7	
559.3	7125.6	
559.49	7023.9	
559.69	5442.8	
559.88	6292.7	
560.07	7866.2	
560.27	8224.6	
560.46	6377.4	
560.66	6529.6	
560.85	7578.8	
561.04	6998.6	
561.24	5775.3	
561.43	5991.7	
561.63	7197.2	
561.82	7423.9	
562.01	6930.3	
562.21	6192.4	
562.4	7814.4	
562.59	8507.9	
562.79	6120	
562.98	5797.8	
563.18	7707.2	
563.37	8910.7	
563.56	6423.1	
563.76	5772.5	
563.95	7256	
564.14	7222.5	
564.34	5995.8	
564.53	5880.4	
564.73	7658.7	
564.92	7909.3	
565.11	6199.9	
565.31	5615.5	
565.5	8178.2	
565.69	7233.4	
565.89	5911.1	
566.08	6039.5	
566.27	8038.3	
566.47	8368.7	
566.66	6629.3	
566.85	5571.8	
567.05	7789.8	
567.24	7234.1	
567.44	5831.2	
567.63	6924.2	
567.82	7894.2	
568.02	7636.2	
568.21	5863.3	
568.4	6046.3	
568.6	7621.2	
568.79	7606.2	
568.98	5671.5	
569.18	5745.9	
569.37	7609.6	
569.56	9134.6	
569.76	6098.2	
569.95	6893.5	
570.14	7976.8	
570.34	7834.8	
570.53	5696.1	
570.72	5713.8	
570.91	8302.5	
571.11	7490.1	
571.3	6152.1	
571.49	6901.7	
571.69	7700.4	
571.88	7273	
572.07	6531	
572.27	6434.7	
572.46	7238.2	
572.65	8062.2	
572.85	6038.8	
573.04	6154.1	
573.23	8355.7	
573.43	7667.6	
573.62	5714.5	
573.81	6288.6	
574	7746.1	
574.2	7550.2	
574.39	5995.8	
574.58	6219.7	
574.78	8305.2	
574.97	7714.7	
575.16	6468.2	
575.36	6568.5	
575.55	8122.9	
575.74	8211	
575.93	5702.2	
576.13	6598.6	
576.32	7522.9	
576.51	8072.4	
576.71	6156.9	
576.9	7173.4	
577.09	8416.5	
577.28	7921.5	
577.48	6457.9	
577.67	5642.8	
577.86	7659.4	
578.05	7888.1	
578.25	6230.6	
578.44	6247.7	
578.63	7786.4	
578.83	8729.1	
579.02	5713.8	
579.21	7027.9	
579.4	7961.8	
579.6	7681.9	
579.79	6365.1	
579.98	8127	
580.17	8241	
580.37	8368	
580.56	5956.2	
580.75	6559	
580.94	8505.2	
581.14	8560.5	
581.33	6788.3	
581.52	6016.2	
581.71	8073.8	
581.91	8615.8	
582.1	5788.9	
582.29	6225.1	
582.48	7843	
582.68	7688.1	
582.87	6613.6	
583.06	6283.9	
583.25	8087.4	
583.45	7514.7	
583.64	6938.5	
583.83	7417.7	
584.02	7662.8	
584.21	8066.9	
584.41	6887.3	
584.6	6365.1	
584.79	7899.7	
584.98	8385.7	
585.18	5899.5	
585.37	5909.8	
585.56	7481.2	
585.75	8050.6	
585.94	6089.3	
586.14	6591	
586.33	8603.5	
586.52	7705.1	
586.71	6448.4	
586.91	6246.3	
587.1	7335.1	
587.29	8150.9	
587.48	6234.7	
587.67	6085.9	
587.87	8030.1	
588.06	8086.1	
588.25	7245	
588.44	6638.8	
588.63	7830.1	
588.83	8234.9	
589.02	6284.5	
589.21	6149.4	
589.4	7703.8	
589.59	7544	
589.78	5596.4	
589.98	5750.7	
590.17	7310.6	
590.36	7791.8	
590.55	5319.9	
590.74	6010.1	
590.94	8842.4	
591.13	7662.1	
591.32	5794.4	
591.51	5395	
591.7	7940	
591.89	7573.4	
592.09	5494	
592.28	5864	
592.47	6843.6	
592.66	8444.5	
592.85	5405.3	
593.05	5693.4	
593.24	7372.7	
593.43	8085.4	
593.62	5700.9	
593.81	6047	
594	7501.7	
594.19	7591.8	
594.39	5661.3	
594.58	5530.2	
594.77	7727	
594.96	8186.4	
595.15	5657.9	
595.34	6100.9	
595.54	7791.8	
595.73	7058	
595.92	5046.9	
596.11	6067.4	
596.3	8093.6	
596.49	7109.2	
596.68	5819.6	
596.88	6150.7	
597.07	7896.3	
597.26	6883.9	
597.45	5429.2	
597.64	6389	
597.83	7157.7	
598.02	7601.4	
598.22	5535.7	
598.41	6115.9	
598.6	7536.5	
598.79	7032	
598.98	5502.9	
599.17	6238.1	
599.36	7504.4	
599.55	8417.2	
599.74	7187.7	
599.94	6977.4	
600.13	7968	
600.32	6952.2	
600.51	5362.9	
600.7	5422.3	
600.89	8454.7	
601.08	8434.9	
601.27	5258.5	
601.47	6038.8	
601.66	7785	
601.85	8447.9	
602.04	5894.1	
602.23	5834	
602.42	7156.3	
602.61	7634.8	
602.8	5793	
602.99	5552.7	
603.18	7334.5	
603.37	7494.9	
603.57	6057.9	
603.76	6516.6	
603.95	8149.6	
604.14	7780.9	
604.33	5599.1	
604.52	5836	
604.71	7476.5	
604.9	7252.5	
605.09	6388.3	
605.28	6170.5	
605.47	7991.2	
605.66	7674.4	
605.86	6030.6	
606.05	5608	
606.24	8017.1	
606.43	6791.1	
606.62	5913.2	
606.81	6467.5	
607	7914	
607.19	7268.2	
607.38	5440.1	
607.57	5580	
607.76	7077.1	
607.95	6679.8	
608.14	5967.8	
608.33	6435.4	
608.52	7148.1	
608.72	7864.2	
608.91	5343.8	
609.1	5283.8	
609.29	7222.5	
609.48	6817.7	
609.67	5995.1	
609.86	5356.1	
610.05	6939.9	
610.24	7116.7	
610.43	5197.7	
610.62	4962.9	
610.81	8092.9	
611	7875.8	
611.19	5315.8	
611.38	5939.8	
611.57	7474.4	
611.76	8486.1	
611.95	5149.3	
612.14	5083.1	
612.33	7226.6	
612.52	6886.6	
612.71	5582.1	
612.9	4939.7	
613.09	6505.7	
613.28	8445.8	
613.47	5567.7	
613.66	6126.8	
613.85	7419.1	
614.04	6946.7	
614.24	5427.8	
614.43	4838	
614.62	7484.6	
614.81	7335.1	
615	5896.1	
615.19	5876.3	
615.38	6926.9	
615.57	7173.4	
615.76	5819.6	
615.95	6565.8	
616.14	7467.6	
616.33	7273	
616.52	6066.8	
616.71	6231.3	
616.9	7447.8	
617.09	7354.3	
617.28	5550.7	
617.47	6498.2	
617.66	6815.6	
617.85	6724.8	
618.04	6217.6	
618.22	5768.4	
618.41	6969.2	
618.6	7798	
618.79	5721.3	
618.98	5554.1	
619.17	7972.1	
619.36	6633.4	
619.55	5635.3	
619.74	5766.4	
619.93	7337.9	
620.12	6872.3	
620.31	6064.7	
620.5	6217.6	
620.69	7892.2	
620.88	8120.2	
621.07	6745.3	
621.26	5918.6	
621.45	7496.9	
621.64	7536.5	
621.83	6182.1	
622.02	5500.8	
622.21	7600.7	
622.4	7344	
622.59	6484.6	
622.78	6343.9	
622.97	6982.2	
623.16	7884	
623.35	6050.4	
623.54	5329.5	
623.72	7240.3	
623.91	7368.6	
624.1	6354.2	
624.29	5203.2	
624.48	8290.2	
624.67	7603.4	
624.86	6163	
625.05	5418.2	
625.24	8337.3	
625.43	7060.7	
625.62	7619.8	
625.81	5657.2	
626	7873.1	
626.19	7267.6	
626.38	6224.5	
626.56	5787.6	
626.75	7163.1	
626.94	7744.1	
627.13	6255.2	
627.32	5225.1	
627.51	7677.2	
627.7	8718.9	
627.89	5197.1	
628.08	6339.8	
628.27	7048.4	
628.46	7247.1	
628.65	5657.9	
628.83	5224.4	
629.02	7694.9	
629.21	7044.3	
629.4	5924.8	
629.59	6072.9	
629.78	7061.4	
629.97	7805.5	
630.16	6106.4	
630.35	5665.4	
630.54	8109.3	
630.72	7897	
630.91	5657.2	
631.1	6191	
631.29	7425.3	
631.48	7589.1	
631.67	6184.2	
631.86	5783.5	
632.05	7230.7	
632.24	7209.5	
632.42	5440.8	
632.61	6021	
632.8	7307.2	
632.99	6955.6	
633.18	6025.1	
633.37	6280.4	
633.56	7521.5	
633.75	7366.5	
633.93	5985.5	
634.12	5782.8	
634.31	8104.5	
634.5	7836.9	
634.69	5739.8	
634.88	6187.6	
635.07	7397.3	
635.25	7791.2	
635.44	6542.6	
635.63	6685.9	
635.82	7246.4	
636.01	6810.2	
636.2	6416.3	
636.39	6056.5	
636.57	8127.7	
636.76	7742	
636.95	5634.6	
637.14	6819.7	
637.33	7620.5	
637.52	8258.8	
637.7	5451	
637.89	6236.1	
638.08	7271	
638.27	8405.5	
638.46	6298.9	
638.65	6651.8	
638.83	8447.9	
639.02	7077.8	
639.21	6239.5	
639.4	6650.4	
639.59	7501.7	
639.78	7175.4	
639.96	5664	
640.15	5673.6	
640.34	7358.4	
640.53	7529	
640.72	5378	
640.91	5690.6	
641.09	6914.6	
641.28	8127	
641.47	5722	
641.66	6427.2	
641.85	7471.7	
642.03	7696.3	
642.22	6144.6	
642.41	5825.8	
642.6	7028.6	
642.79	6543.9	
642.97	5614.8	
643.16	6165.8	
643.35	7022.5	
643.54	6842.3	
643.73	5532.2	
643.91	6222.4	
644.1	6768.5	
644.29	7252.5	
644.48	5546.6	
644.67	5696.8	
644.85	6956.3	
645.04	7227.3	
645.23	5283.8	
645.42	5597.8	
645.6	6914.6	
645.79	7883.3	
645.98	5573.2	
646.17	4793.6	
646.36	6762.4	
646.54	7164.5	
646.73	6212.2	
646.92	5252.4	
647.11	6800.6	
647.29	7720.8	
647.48	5298.1	
647.67	5154.7	
647.86	7913.4	
648.05	7855.3	
648.23	5552.7	
648.42	6565.8	
648.61	7382.9	
648.8	7200	
648.98	5216.2	
649.17	5487.9	
649.36	6873.7	
649.55	6421.1	
649.73	5299.5	
649.92	5808	
650.11	6724.2	
650.3	6910.5	
650.48	5414.8	
650.67	5173.2	
650.86	7212.9	
651.05	6337.1	
651.23	5341.1	
651.42	5335.6	
651.61	6762.4	
651.79	6778.1	
651.98	5504.9	
652.17	5184.1	
652.36	7129	
652.54	6379.4	
652.73	5251	
652.92	5182.7	
653.11	7144	
653.29	7265.5	
653.48	4735.6	
653.67	5470.8	
653.85	6980.2	
654.04	7845.1	
654.23	5738.4	
654.42	5343.8	
654.6	6562.4	
654.79	7180.9	
654.98	4844.8	
655.16	5373.9	
655.35	6361	
655.54	6219	
655.73	4966.3	
655.91	4863.9	
656.1	7057.3	
656.29	6158.9	
656.47	4496.7	
656.66	5887.9	
656.85	6390.3	
657.03	6342.6	
657.22	4984.1	
657.41	4976.6	
657.59	6489.3	
657.78	6342.6	
657.97	4644.1	
658.16	5300.1	
658.34	7060	
658.53	7348.8	
658.72	5981.4	
658.9	6405.4	
659.09	6619.7	
659.28	6653.2	
659.46	5068	
659.65	5073.5	
659.84	6369.2	
660.02	6821.8	
660.21	4925.4	
660.4	4933.6	
660.58	7185.6	
660.77	6678.4	
660.96	5403.9	
661.14	4664.6	
661.33	7544.7	
661.52	7509.2	
661.7	4607.9	
661.89	7488.7	
662.08	6365.8	
662.26	6048.3	
662.45	4895.3	
662.64	4980	
662.82	6971.3	
663.01	6268.1	
663.2	5026.4	
663.38	5563	
663.57	6860	
663.75	6723.5	
663.94	5175.2	
664.13	6174.6	
664.31	6374.6	
664.5	6896.9	
664.69	5604.6	
664.87	5933	
665.06	6072.9	
665.25	6694.8	
665.43	6109.1	
665.62	6010.1	
665.8	6972	
665.99	6389.7	
666.18	5166.3	
666.36	5293.3	
666.55	6915.3	
666.74	6901	
666.92	4871.4	
667.11	6242.9	
667.29	6479.1	
667.48	6958.3	
667.67	5898.8	
667.85	5100.1	
668.04	6462.7	
668.22	6524.8	
668.41	5246.9	
668.6	5478.3	
668.78	6290.7	
668.97	6513.9	
669.15	5510.4	
669.34	4713.1	
669.53	6348.7	
669.71	6565.8	
669.9	4939	
670.08	5442.1	
670.27	6275.7	
670.46	6806.8	
670.64	5633.3	
670.83	5797.8	
671.01	6200.6	
671.2	6662.7	
671.38	4977.2	
671.57	4894	
671.76	7268.2	
671.94	7729	
672.13	4823.6	
672.31	5687.2	
672.5	6908.5	
672.69	6307.1	
672.87	4905.6	
673.06	5135.6	
673.24	6696.9	
673.43	6395.1	
673.61	5460.6	
673.8	5158.2	
673.98	6869.6	
674.17	7008.8	
674.36	5660.6	
674.54	5507	
674.73	6684.6	
674.91	6945.3	
675.1	5270.8	
675.28	4999.1	
675.47	6474.3	
675.65	6941.9	
675.84	5150.6	
676.03	5425.1	
676.21	6361	
676.4	5914.5	
676.58	5760.9	
676.77	5634.6	
676.95	7490.8	
677.14	6273.6	
677.32	4914.4	
677.51	4796.3	
677.69	6954.2	
677.88	6059.9	
678.06	4769	
678.25	4948.6	
678.44	6522.8	
678.62	6295.5	
678.81	4710.3	
678.99	5426.4	
679.18	7111.9	
679.36	6820.4	
679.55	5066.7	
679.73	5624.4	
679.92	6829.3	
680.1	6326.9	
680.29	6092	
680.47	5152	
680.66	6252.4	
680.84	6950.8	
681.03	4621.6	
681.21	5529.5	
681.4	6302.3	
681.58	6273.6	
681.77	4986.8	
681.95	4884.4	
682.14	7002	
682.32	7245	
682.51	5670.1	
682.69	4743.1	
682.88	6194.4	
683.06	6759	
683.25	5400.5	
683.43	5736.4	
683.62	6587.6	
683.8	6858	
683.99	5886.5	
684.17	5382.1	
684.36	7522.9	
684.54	6520	
684.73	4756.7	
684.91	4897.4	
685.1	6748.1	
685.28	6311.2	
685.46	5326.1	
685.65	5461.9	
685.83	6953.5	
686.02	6453.8	
686.2	4863.9	
686.39	4995.7	
686.57	6213.5	
686.76	7337.9	
686.94	4883	
687.13	4985.4	
687.31	6672.3	
687.5	6410.8	
687.68	4531.5	
687.86	5587.5	
688.05	7728.4	
688.23	5997.8	
688.42	5547.3	
688.6	4939	
688.79	6271.6	
688.97	6282.5	
689.16	5294.7	
689.34	4367.6	
689.52	6863.4	
689.71	7122.8	
689.89	5512.4	
690.08	4937	
690.26	6587.6	
690.45	6420.4	
690.63	5706.3	
690.81	5134.9	
691	6392.4	
691.18	6195.1	
691.37	5202.5	
691.55	6949.4	
691.74	6207.4	
691.92	7857.4	
692.1	5215.5	
692.29	4691.9	
692.47	6425.2	
692.66	5934.3	
692.84	4942.4	
693.02	5272.2	
693.21	5945.9	
693.39	6372.6	
693.58	5489.9	
693.76	4925.4	
693.94	7304.4	
694.13	7063.4	
694.31	4913.1	
694.5	5782.8	
694.68	6215.6	
694.86	6475	
695.05	5176.6	
695.23	5223	
695.42	6803.4	
695.6	8638.3	
695.78	5728.2	
695.97	4984.1	
696.15	6823.1	
696.34	6319.3	
696.52	4810.7	
696.7	5555.5	
696.89	6685.3	
697.07	6181.5	
697.25	5486.5	
697.44	6697.5	
697.62	6669.6	
697.81	6935.1	
697.99	5199.8	
698.17	5588.2	
698.36	6127.5	
698.54	6702.3	
698.72	5489.2	
698.91	4663.2	
699.09	6337.8	
699.28	6120.7	
699.46	5132.9	
699.64	5056.4	
699.83	6083.8	
700.01	7092.1	
700.19	5726.8	
700.38	4467.3	
700.56	7118.7	
700.74	6199.9	
700.93	4648.2	
701.11	5397.8	
701.29	6636.1	
701.48	7503.1	
701.66	4898.1	
701.84	4972.5	
702.03	6242.9	
702.21	6791.1	
702.39	4630.5	
702.58	5111.7	
702.76	6601.3	
702.94	6704.4	
703.13	4549.2	
703.31	6555.5	
703.49	6105	
703.68	7349.5	
703.86	4837.3	
704.04	5543.9	
704.23	6544.6	
704.41	6802	
704.59	4898.7	
704.78	5870.2	
704.96	7399.3	
705.14	6750.1	
705.33	4710.3	
705.51	5413.5	
705.69	6351.4	
705.87	7025.2	
706.06	5556.8	
706.24	4701.5	
706.42	6552.1	
706.61	6728.9	
706.79	5577.3	
706.97	4677.6	
707.16	6191	
707.34	6629.3	
707.52	5480.4	
707.7	4841.4	
707.89	6154.1	
708.07	5986.2	
708.25	5554.8	
708.44	5681.1	
708.62	6133.7	
708.8	7097.6	
708.98	5785.5	
709.17	4859.1	
709.35	6457.2	
709.53	6478.4	
709.72	4666	
709.9	5027.8	
710.08	6703.7	
710.26	6781.5	
710.45	5954.8	
710.63	4906.9	
710.81	6428.6	
710.99	6398.5	
711.18	5436	
711.36	4994.3	
711.54	6236.7	
711.72	6849.1	
711.91	5076.9	
712.09	4653	
712.27	6440.2	
712.45	7207.5	
712.64	5299.5	
712.82	4424.3	
713	5970.5	
713.18	6130.9	
713.37	4597	
713.55	5593.7	
713.73	6838.9	
713.91	5714.5	
714.1	4850.3	
714.28	4502.1	
714.46	6630.6	
714.64	5922.7	
714.83	4106.2	
715.01	4760.8	
715.19	6018.3	
715.37	5465.3	
715.55	4448.9	
715.74	4741.7	
715.92	6678.4	
716.1	5023	
716.28	5601.2	
716.47	4817.5	
716.65	5646.9	
716.83	5647.6	
717.01	4661.9	
717.19	4709.6	
717.38	7400.7	
717.56	5357.5	
717.74	4857.1	
717.92	4134.8	
718.1	6359.6	
718.29	5660.6	
718.47	3775.8	
718.65	4299.4	
718.83	6208.8	
719.01	6142.5	
719.2	3674.7	
719.38	4530.1	
719.56	5988.3	
719.74	7244.3	
719.92	4298	
720.11	5111	
720.29	6057.9	
720.47	5349.3	
720.65	3921.9	
720.83	4670.1	
721.02	5634	
721.2	5489.2	
721.38	4668	
721.56	4064.5	
721.74	5016.8	
721.92	5169.1	
722.11	5065.3	
722.29	4755.4	
722.47	6188.3	
722.65	5502.9	
722.83	4116.4	
723.01	4815.5	
723.2	5533.6	
723.38	5810.8	
723.56	3592.8	
723.74	4529.4	
723.92	5214.1	
724.1	6156.2	
724.29	3947.8	
724.47	5001.1	
724.65	5289.2	
724.83	5175.9	
725.01	3868.6	
725.19	4599.7	
725.37	5218.9	
725.56	5188.2	
725.74	3725.9	
725.92	3943.7	
726.1	5133.6	
726.28	5377.3	
726.46	4299.4	
726.64	4083.6	
726.83	5375.2	
727.01	5564.3	
727.19	3729.4	
727.37	4375.1	
727.55	5455.1	
727.73	5836.7	
727.91	3749.8	
728.09	3536.8	
728.28	5911.8	
728.46	6184.2	
728.64	4479.6	
728.82	4421.6	
729	6710.5	
729.18	6187.6	
729.36	3728	
729.54	5605.3	
729.72	6877.8	
729.91	5479.7	
730.09	5311.1	
730.27	4282.3	
730.45	5425.8	
730.63	5939.8	
730.81	4764.9	
730.99	4008.6	
731.17	6363	
731.35	5192.3	
731.53	4401.1	
731.71	4116.4	
731.9	6093.4	
732.08	6229.9	
732.26	4283	
732.44	4009.9	
732.62	6264.1	
732.8	5864	
732.98	4645.5	
733.16	3900	
733.34	5924.1	
733.52	4844.1	
733.7	4272.7	
733.88	4450.9	
734.07	5746.6	
734.25	5522.7	
734.43	3796.3	
734.61	5110.4	
734.79	6731	
734.97	5399.1	
735.15	3952.6	
735.33	4164.9	
735.51	5744.6	
735.69	5360.2	
735.87	5120.6	
736.05	4379.9	
736.23	5553.4	
736.41	5313.8	
736.59	4179.9	
736.77	4270	
736.95	5939.1	
737.13	5446.9	
737.32	3919.1	
737.5	4036.5	
737.68	6380.8	
737.86	5307.7	
738.04	3736.2	
738.22	5296.7	
738.4	5169.1	
738.58	5453.7	
738.76	4289.1	
738.94	3414	
739.12	5292	
739.3	5169.1	
739.48	4716.5	
739.66	4461.2	
739.84	5450.3	
740.02	5457.2	
740.2	3466.5	
740.38	3794.2	
740.56	5838.8	
740.74	4827.1	
740.92	4276.8	
741.1	4208.6	
741.28	5318.6	
741.46	5129.5	
741.64	3964.2	
741.82	4349.2	
742	5385.5	
742.18	5264.6	
742.36	4160.8	
742.54	3827.7	
742.72	5808	
742.9	4721.9	
743.08	4364.2	
743.26	3456.3	
743.44	5962.3	
743.62	5803.3	
743.8	4544.4	
743.98	3812.6	
744.16	5598.5	
744.34	5328.8	
744.52	4496.7	
744.7	4433.9	
744.88	5737	
745.06	5343.2	
745.24	4480.3	
745.42	4636.6	
745.6	5751.4	
745.78	5648.3	
745.96	3608.5	
746.14	3805.8	
746.32	6414.9	
746.5	5805.3	
746.68	4287.8	
746.86	3841.3	
747.03	6083.8	
747.21	4814.1	
747.39	4213.4	
747.57	3827	
747.75	5445.5	
747.93	5779.4	
748.11	3797.6	
748.29	3689.8	
748.47	6782.9	
748.65	5233.9	
748.83	4374.5	
749.01	4164.2	
749.19	5625.1	
749.37	4932.9	
749.55	4087.1	
749.73	4155.3	
749.91	5386.8	
750.09	5184.1	
750.26	4190.8	
750.44	3695.2	
750.62	5346.6	
750.8	5291.3	
750.98	3522.5	
751.16	3858.4	
751.34	5453.7	
751.52	4861.9	
751.7	4498	
751.88	3560.1	
752.06	5808.7	
752.24	5603.2	
752.42	3471.3	
752.59	3774.4	
752.77	5329.5	
752.95	6317.3	
753.13	4401.1	
753.31	3929.4	
753.49	5052.3	
753.67	5423	
753.85	4140.3	
754.03	3762.8	
754.21	5696.8	
754.38	5997.8	
754.56	3898.6	
754.74	3226.9	
754.92	5069.4	
755.1	5632.6	
755.28	3241.9	
755.46	3310.9	
755.64	6396.5	
755.82	6613.6	
755.99	3665.2	
756.17	3754.6	
756.35	4523.3	
756.53	5813.5	
756.71	2809.1	
756.89	3562.8	
757.07	5464.7	
757.25	4679.6	
757.42	4063.9	
757.6	4727.4	
757.78	5485.1	
757.96	4620.2	
758.14	3746.4	
758.32	3364.1	
758.5	4299.4	
758.67	4986.8	
758.85	3623.5	
759.03	3698.6	
759.21	5160.2	
759.39	4678.2	
759.57	3269.2	
759.75	4150.5	
759.92	5518.6	
760.1	5120.6	
760.28	4526.7	
760.46	4648.9	
760.64	4887.8	
760.82	4672.8	
760.99	4276.8	
761.17	3620.8	
761.35	5492	
761.53	4701.5	
761.71	3766.9	
761.89	4288.4	
762.06	5347.9	
762.24	4979.3	
762.42	3817.4	
762.6	3621.5	
762.78	4932.9	
762.96	5470.1	
763.13	4116.4	
763.31	3835.8	
763.49	5657.9	
763.67	4898.7	
763.85	4509.6	
764.02	4992.9	
764.2	5887.2	
764.38	5079	
764.56	3714.3	
764.74	4435.2	
764.91	5829.2	
765.09	4982	
765.27	3491.8	
765.45	3263.1	
765.63	5997.8	
765.8	5816.2	
765.98	3116.3	
766.16	3386.7	
766.34	4689.2	
766.52	4464.6	
766.69	4129.4	
766.87	3239.2	
767.05	5021.6	
767.23	5696.8	
767.41	3528	
767.58	3763.5	
767.76	5509	
767.94	5597.8	
768.12	3608.5	
768.29	4160.8	
768.47	5070.1	
768.65	5668.8	
768.83	3245.3	
769	4210.6	
769.18	4734.2	
769.36	5267.4	
769.54	4229.1	
769.72	3317	
769.89	5552.7	
770.07	5537.7	
770.25	3586	
770.43	4612	
770.6	6193.1	
770.78	6500.3	
770.96	3776.5	
771.14	4252.3	
771.31	5512.4	
771.49	4918.5	
771.67	3091.8	
771.85	3302	
772.02	4365.6	
772.2	4937	
772.38	3953.9	
772.55	3527.3	
772.73	5195	
772.91	4995.7	
773.09	3842	
773.26	3889.1	
773.44	5223.7	
773.62	4930.8	
773.8	3396.2	
773.97	3208.5	
774.15	5202.5	
774.33	4940.4	
774.5	3384.6	
774.68	3644.7	
774.86	5319.3	
775.04	4962.2	
775.21	3422.2	
775.39	3332	
775.57	5213.4	
775.74	5504.9	
775.92	3291.8	
776.1	3177.8	
776.27	5158.8	
776.45	6151.4	
776.63	3425.6	
776.81	3031	
776.98	4908.3	
777.16	5724.1	
777.34	3613.3	
777.51	3760.1	
777.69	4892.6	
777.87	4667.3	
778.04	3592.8	
778.22	4104.1	
778.4	4728.1	
778.57	5283.8	
778.75	2978.4	
778.93	3208.5	
779.1	4584	
779.28	4457.1	
779.46	3008.5	
779.64	3407.8	
779.81	5438	
779.99	6105	
780.17	4078.9	
780.34	4137.6	
780.52	4991.6	
780.69	5132.2	
780.87	3669.3	
781.05	3297.9	
781.22	5058.5	
781.4	5036	
781.58	3469.3	
781.75	2804.4	
781.93	5089.2	
782.11	4495.3	
782.28	4242	
782.46	3444.7	
782.64	4414.1	
782.81	5204.6	
782.99	3620.1	
783.17	3449.5	
783.34	5081.7	
783.52	4473.4	
783.69	3661.8	
783.87	4396.3	
784.05	4672.1	
784.22	4581.3	
784.4	4364.9	
784.58	3730.7	
784.75	5328.8	
784.93	4650.3	
785.1	3482.2	
785.28	3988.1	
785.46	5208	
785.63	4577.9	
785.81	3481.5	
785.99	3347.1	
786.16	4730.8	
786.34	5062.6	
786.51	3351.2	
786.69	3722.5	
786.87	4298	
787.04	4829.8	
787.22	3269.9	
787.39	4061.8	
787.57	4537.6	
787.75	5480.4	
787.92	4197	
788.1	4181.3	
788.27	4601.8	
788.45	4355.3	
788.63	3880.2	
788.8	2865.1	
788.98	4926	
789.15	4308.2	
789.33	3011.9	
789.5	3479.5	
789.68	5369.1	
789.86	5461.2	
790.03	3831.1	
790.21	3418.1	
790.38	5376.6	
790.56	4751.3	
790.73	3298.6	
790.91	3338.9	
791.09	4628.4	
791.26	5249.6	
791.44	3512.9	
791.61	3044.6	
791.79	4630.5	
791.96	4649.6	
792.14	3128.6	
792.32	2762	
792.49	4607.9	
792.67	4716.5	
792.84	3203	
793.02	3040.6	
793.19	5031.9	
793.37	5548.6	
793.54	2841.9	
793.72	3130	
793.89	5608.7	
794.07	4590.2	
794.25	3544.4	
794.42	2878.8	
794.6	5457.2	
794.77	5150.6	
794.95	3837.2	
795.12	3347.1	
795.3	4618.2	
795.47	5088.5	
795.65	3731.4	
795.82	3562.8	
796	4412.7	
796.17	5985.5	
796.35	3437.9	
796.52	4018.1	
796.7	5121.3	
796.87	5096	
797.05	3379.1	
797.22	4147.1	
797.4	5163.6	
797.57	5881.8	
797.75	3583.9	
797.92	3347.1	
798.1	5427.8	
798.27	4440	
798.45	2902	
798.62	3072	
798.8	4855.1	
798.97	5232.6	
799.15	3688.4	
799.32	3558	
799.5	4290.5	
799.67	4833.9	
799.85	3816	
800.02	2815.3	
800.2	4533.5	
800.37	4860.5	
800.55	3950.5	
800.72	3327.9	
800.9	5218.9	
801.07	5633.3	
801.25	4476.9	
801.42	3691.8	
801.6	5248.9	
801.77	4965.6	
801.95	3423.5	
802.12	3266.5	
802.29	5043.5	
802.47	4976.6	
802.64	3633.8	
802.82	2772.9	
802.99	4597	
803.17	5412.1	
803.34	3530.7	
803.52	3256.3	
803.69	5950	
803.87	4373.1	
804.04	3543	
804.21	3624.9	
804.39	5472.2	
804.56	4734.2	
804.74	3056.3	
804.91	3680.9	
805.09	4584.7	
805.26	4619.5	
805.44	3108.1	
805.61	3412.6	
805.78	5144.5	
805.96	5140.4	
806.13	3674.1	
806.31	3945.8	
806.48	4210.6	
806.66	4685.8	
806.83	3638.6	
807	3562.1	
807.18	4506.9	
807.35	4899.4	
807.53	3580.5	
807.7	2906.1	
807.87	5528.2	
808.05	4588.8	
808.22	3884.3	
808.4	2908.8	
808.57	4567.7	
808.74	4304.8	
808.92	3330.7	
809.09	4113.7	
809.27	4601.8	
809.44	5037.3	
809.61	2900.6	
809.79	3190.7	
809.96	5625.1	
810.14	5228.5	
810.31	2806.4	
810.48	3465.2	
810.66	4704.2	
810.83	5306.3	
811.01	3268.6	
811.18	3652.2	
811.35	5281.7	
811.53	4139.6	
811.7	3956.7	
811.87	3680.9	
812.05	4704.9	
812.22	4618.9	
812.39	3231.7	
812.57	3099.9	
812.74	4646.2	
812.92	6014.2	
813.09	3449.5	
813.26	3753.2	
813.44	5768.4	
813.61	4541.7	
813.78	2936.8	
813.96	3829	
814.13	4650.9	
814.3	4367	
814.48	4185.4	
814.65	3460.4	
814.82	5553.4	
815	4399	
815.17	3538.9	
815.34	4274.1	
815.52	4589.5	
815.69	4562.2	
815.87	3502.7	
816.04	3425.6	
816.21	4657.1	
816.38	4164.9	
816.56	3450.1	
816.73	3196.2	
816.9	5795.1	
817.08	5248.9	
817.25	3291.8	
817.42	4021.5	
817.6	4301.4	
817.77	4606.6	
817.94	3545.7	
818.12	3161.4	
818.29	4384	
818.46	6555.5	
818.64	3384.6	
818.81	3102.7	
818.98	4386.1	
819.16	6068.1	
819.33	3801.7	
819.5	3582.6	
819.67	4953.4	
819.85	5506.3	
820.02	3443.3	
820.19	3691.1	
820.37	4840	
820.54	4504.8	
820.71	3638.6	
820.88	4398.4	
821.06	4844.8	
821.23	4412	
821.4	3629	
821.58	3542.3	
821.75	5247.6	
821.92	4793.6	
822.09	2925.2	
822.27	2974.3	
822.44	4678.9	
822.61	4496	
822.79	2971.6	
822.96	5500.8	
823.13	5005.9	
823.3	4382	
823.48	3416	
823.65	3035.8	
823.82	5212.8	
823.99	4274.8	
824.17	4209.3	
824.34	3062.4	
824.51	6056.5	
824.68	4685.1	
824.86	3254.9	
825.03	3575.1	
825.2	4636.6	
825.37	5502.9	
825.55	3210.5	
825.72	3525.9	
825.89	5952.8	
826.06	5573.2	
826.24	3488.4	
826.41	3475.4	
826.58	5567.7	
826.75	4908.3	
826.92	2790.7	
827.1	3017.3	
827.27	7395.2	
827.44	5932.3	
827.61	3323.9	
827.79	3930.7	
827.96	4476.9	
828.13	4723.3	
828.3	3414.6	
828.47	2925.2	
828.65	4876.2	
828.82	4791.6	
828.99	4377.9	
829.16	3795.6	
829.34	5215.5	
829.51	5031.9	
829.68	3502	
829.85	3636.5	
830.02	5539.1	
830.2	5252.4	
830.37	2726.5	
830.54	4160.1	
830.71	5857.9	
830.88	4666.6	
831.05	2781.8	
831.23	3202.3	
831.4	5583.4	
831.57	6166.4	
831.74	3256.3	
831.91	2865.1	
832.09	4888.5	
832.26	5188.2	
832.43	3347.1	
832.6	3778.5	
832.77	4924.7	
832.94	5502.9	
833.12	2695.1	
833.29	3304.1	
833.46	4554.7	
833.63	6373.3	
833.8	3691.1	
833.97	3419.4	
834.15	5167.7	
834.32	5001.1	
834.49	3560.1	
834.66	3556.6	
834.83	5384.8	
835	4455.7	
835.17	3323.9	
835.35	3243.3	
835.52	5162.2	
835.69	5020.3	
835.86	3477.5	
836.03	2899.9	
836.2	5197.7	
836.37	4813.4	
836.55	3350.5	
836.72	3180.5	
836.89	4797.7	
837.06	5288.5	
837.23	3457	
837.4	3716.4	
837.57	5910.4	
837.75	6391.7	
837.92	3157.3	
838.09	3311.6	
838.26	4842.8	
838.43	5410.1	
838.6	3510.2	
838.77	3211.2	
838.94	6165.8	
839.11	5909.8	
839.29	3393.5	
839.46	2708.1	
839.63	5177.9	
839.8	4915.8	
839.97	3294.5	
840.14	3267.9	
840.31	5027.8	
840.48	5204.6	
840.65	2765.4	
840.82	3201.7	
841	5197.1	
841.17	5096	
841.34	3067.2	
841.51	3089.7	
841.68	5138.4	
841.85	4880.3	
842.02	3191.4	
842.19	2673.3	
842.36	4966.3	
842.53	5020.9	
842.7	3042.6	
842.87	3741.6	
843.05	6364.4	
843.22	4887.1	
843.39	2943.6	
843.56	3094.5	
843.73	4763.6	
843.9	5282.4	
844.07	4827.7	
844.24	4003.8	
844.41	7183.6	
844.58	4565.6	
844.75	2983.2	
844.92	3208.5	
845.09	5134.3	
845.26	5156.1	
845.43	3035.1	
845.6	3190.7	
845.77	5149.3	
845.94	4912.4	
846.12	3327.9	
846.29	3545	
846.46	5331.5	
846.63	5131.5	
846.8	3053.5	
846.97	3559.4	
847.14	5540.4	
847.31	5137	
847.48	3420.8	
847.65	3735.5	
847.82	5382.1	
847.99	5386.8	
848.16	3942.3	
848.33	3667.2	
848.5	4780	
848.67	5581.4	
848.84	3052.2	
849.01	3132	
849.18	4682.3	
849.35	4410.6	
849.52	3766.9	
849.69	2968.2	
849.86	5354.1	
850.03	5474.2	
850.2	3079.5	
850.37	3669.3	
850.54	5430.5	
850.71	4852.3	
850.88	3642.7	
851.05	2932.7	
851.22	5010.7	
851.39	5553.4	
851.56	2903.3	
851.73	3448.8	
851.9	4558.1	
852.07	5363.6	
852.24	3384.6	
852.41	3005.1	
852.58	5115.8	
852.75	4660.5	
852.92	3330.7	
853.09	2943.6	
853.26	4786.8	
853.43	5479.7	
853.6	3045.3	
853.77	2611.8	
853.94	5550	
854.11	4601.1	
854.28	4398.4	
854.44	3289.7	
854.61	5952.1	
854.78	5395.7	
854.95	2996.9	
855.12	3783.3	
855.29	4201.7	
855.46	5672.2	
855.63	3016	
855.8	4104.8	
855.97	4777.9	
856.14	5449	
856.31	4242	
856.48	3282.2	
856.65	4801.8	
856.82	4517.8	
856.99	2914.9	
857.16	3219.4	
857.33	6149.4	
857.49	4899.4	
857.66	3252.9	
857.83	3504.1	
858	4866.7	
858.17	5054.4	
858.34	2890.4	
858.51	3050.8	
858.68	5694.7	
858.85	5692	
859.02	3434.4	
859.19	3628.3	
859.36	4621.6	
859.52	4573.1	
859.69	3025.5	
859.86	3530.7	
860.03	4640	
860.2	5643.5	
860.37	2826.9	
860.54	3065.1	
860.71	5339.1	
860.88	5709.7	
861.05	3452.2	
861.21	3787.4	
861.38	5691.3	
861.55	4387.4	
861.72	2820.7	
861.89	3344.3	
862.06	5382.1	
862.23	5737	
862.4	2918.4	
862.56	3150.5	
862.73	5324	
862.9	4952.7	
863.07	3511.6	
863.24	2774.3	
863.41	4485.7	
863.58	4550.6	
863.75	3065.8	
863.91	3438.5	
864.08	5567.1	
864.25	5212.1	
864.42	3762.8	
864.59	4187.4	
864.76	5905.7	
864.93	4575.2	
865.09	2968.9	
865.26	3220.1	
865.43	5556.8	
865.6	5802.6	
865.77	2683.5	
865.94	2964.1	
866.1	5541.8	
866.27	5296.7	
866.44	4485.1	
866.61	2883.5	
866.78	4911	
866.95	5264	
867.11	2953.2	
867.28	2669.9	
867.45	5467.4	
867.62	4570.4	
867.79	3475.4	
867.96	3038.5	
868.12	4533.5	
868.29	5366.4	
868.46	2612.5	
868.63	3977.2	
868.8	5474.9	
868.97	5289.2	
869.13	3112.2	
869.3	3144.3	
869.47	5251.7	
869.64	5404.6	
869.81	3045.3	
869.97	3056.9	
870.14	5082.4	
870.31	5661.3	
870.48	2988	
870.65	3777.8	
870.81	4897.4	
870.98	4882.4	
871.15	3401.7	
871.32	3181.9	
871.48	5241.4	
871.65	5713.8	
871.82	3013.9	
871.99	3264.5	
872.16	6137.8	
872.32	5552.7	
872.49	3085.6	
872.66	3052.2	
872.83	5359.5	
872.99	4801.8	
873.16	3461.1	
873.33	3006.4	
873.5	4994.3	
873.67	5059.2	
873.83	3175.7	
874	3926.6	
874.17	5119.2	
874.34	5976.7	
874.5	3864.5	
874.67	3736.2	
874.84	5671.5	
875.01	4503.5	
875.17	4177.9	
875.34	2997.5	
875.51	5040.1	
875.68	6029.2	
875.84	3624.9	
876.01	4345.8	
876.18	5328.1	
876.34	5245.5	
876.51	3021.4	
876.68	2945	
876.85	4868	
877.01	5498.8	
877.18	4216.1	
877.35	3014.6	
877.52	5034.6	
877.68	4551.3	
877.85	2973.7	
878.02	3037.8	
878.18	4900.8	
878.35	4721.9	
878.52	2472.6	
878.69	3345	
878.85	5371.1	
879.02	5263.3	
879.19	4262.5	
879.35	3227.6	
879.52	5268.7	
879.69	5397.8	
879.86	2658.9	
880.02	3340.9	
880.19	4949.9	
880.36	5958.2	
880.52	3420.1	
880.69	3491.1	
880.86	5390.9	
881.02	5450.3	
881.19	3289	
881.36	3253.5	
881.52	5302.2	
881.69	4702.1	
881.86	3275.4	
882.02	3145.7	
882.19	5552.7	
882.36	6434.7	
882.52	3077.4	
882.69	4207.2	
882.86	5126.1	
883.02	5028.4	
883.19	3620.8	
883.36	3404.4	
883.52	5433.3	
883.69	6053.8	
883.86	3065.1	
884.02	2740.9	
884.19	5362.3	
884.36	4962.9	
884.52	3407.1	
884.69	3217.4	
884.86	4719.9	
885.02	5838.1	
885.19	3319.8	
885.36	3500	
885.52	4934.2	
885.69	5146.5	
885.86	4318.5	
886.02	3812	
886.19	5323.4	
886.35	4872.8	
886.52	3351.2	
886.69	4179.2	
886.85	4631.8	
887.02	5627.1	
887.19	5627.1	
887.35	5627.1	
887.52	5627.1	
887.68	5627.1	
887.85	5627.1	
888.02	5627.1	
888.18	5627.1	
888.35	5627.1	
888.51	5627.1	
888.68	5627.1	
888.85	5627.1	
889.01	5627.1	
889.18	5627.1	
889.35	5627.1	
889.51	5627.1	
889.68	5627.1	
889.84	5627.1	
890.01	5627.1	
890.17	5627.1	
890.34	5627.1	
890.51	5627.1	
890.67	5627.1	
890.84	5627.1	
891	5627.1	
891.17	5627.1	
891.34	5627.1	
891.5	5627.1	
891.67	5627.1	
891.83	5627.1	
892	5627.1	
892.16	5627.1	
892.33	5627.1	
892.5	5627.1	
892.66	5627.1	
892.83	5627.1	
892.99	5627.1	
893.16	5627.1	
893.32	5627.1	
893.49	5627.1	
893.65	5627.1	
893.82	5627.1	
893.99	5627.1	
894.15	5627.1	
894.32	5627.1	
894.48	5627.1	
894.65	5627.1	
894.81	5627.1	
894.98	5627.1	
895.14	5627.1	
895.31	5627.1	
895.47	5627.1	
895.64	5627.1	
895.81	5627.1	
895.97	5627.1	
896.14	5627.1	
896.3	5627.1	
896.47	5627.1	
896.63	5627.1	
896.8	5627.1	
896.96	5627.1	
897.13	5627.1	
897.29	5627.1	
897.46	5627.1	
897.62	5627.1	
897.79	5627.1	
897.95	5627.1	
898.12	5627.1	
898.28	5627.1	
898.45	5627.1	
898.61	5627.1	
898.78	5627.1	
898.94	5627.1	
899.11	5627.1	
899.27	5627.1	
899.44	5627.1	
899.6	5627.1	
899.77	5627.1	
899.93	5627.1	
900.1	5627.1	
900.26	5627.1	
900.43	5627.1	
900.59	5627.1	
900.76	5627.1	
900.92	5627.1	
901.09	5627.1	
901.25	5627.1	
901.42	5627.1	
901.58	5627.1	
901.75	5627.1	
901.91	5627.1	
902.07	5627.1	
902.24	5627.1	
902.4	5627.1	
902.57	5627.1	
902.73	5627.1	
902.9	5627.1	
903.06	5627.1	
903.23	5627.1	
903.39	5627.1	
903.56	5627.1	
903.72	5627.1	
903.88	5627.1	
904.05	5627.1	
904.21	5627.1	
904.38	5627.1	
904.54	5627.1	
904.71	5627.1	
904.87	5627.1	
905.03	5627.1	
905.2	5627.1	
905.36	5627.1	
905.53	5627.1	
905.69	5627.1	
905.86	5627.1	
906.02	5627.1	
906.18	5627.1	
906.35	5627.1	
906.51	5627.1	
906.68	5627.1	
906.84	5627.1	
907.01	5627.1	
907.17	5627.1	
907.33	5627.1	
907.5	5627.1	
907.66	5627.1	
907.83	5627.1	
907.99	5627.1	
908.15	5627.1	
908.32	5627.1	
908.48	5627.1	
908.65	5627.1	
908.81	5627.1	
908.97	5627.1	
909.14	5627.1	
909.3	5627.1	
909.47	5627.1	
909.63	5627.1	
909.79	5627.1	
909.96	5627.1	
910.12	5627.1	
910.28	5627.1	
910.45	5627.1	
910.61	5627.1	
910.78	5627.1	
910.94	5627.1	
911.1	5627.1	
911.27	5627.1	
911.43	5627.1	
911.59	5627.1	
911.76	5627.1	
911.92	5627.1	
912.08	5627.1	
912.25	5627.1	
912.41	5627.1	
912.57	5627.1	
912.74	5627.1	
912.9	5627.1	
913.07	5627.1	
913.23	5627.1	
913.39	5627.1	
913.56	5627.1	
913.72	5627.1	
913.88	5627.1	
914.05	5627.1	
914.21	5627.1	
914.37	5627.1	
914.54	5627.1	
914.7	5627.1	
914.86	5627.1	
915.03	5627.1	
915.19	5627.1	
