Wavelength	Intensities	
nm	a.u.	
179.22	1739.2	
179.44	1732.9	
179.65	1745.6	
179.86	1720.3	
180.08	1684.1	
180.29	3978.5	
180.51	3025.5	
180.72	4988.2	
180.94	5584.8	
181.15	2783.9	
181.37	2723.1	
181.58	4794.3	
181.79	5036.6	
182.01	2874.7	
182.22	3017.3	
182.44	5038	
182.65	4356	
182.87	3678.2	
183.08	3321.8	
183.29	5329.5	
183.51	4461.8	
183.72	3004.4	
183.94	4246.8	
184.15	4704.9	
184.37	4727.4	
184.58	2674.6	
184.79	3509.5	
185.01	4500.1	
185.22	5063.9	
185.44	3705.5	
185.65	3249.4	
185.86	4732.2	
186.08	4354	
186.29	2662.4	
186.51	2843.3	
186.72	4503.5	
186.94	5212.8	
187.15	3236.5	
187.36	3295.9	
187.58	6425.2	
187.79	4834.6	
188.01	3371.6	
188.22	5086.5	
188.43	5644.9	
188.65	5019.6	
188.86	2793.4	
189.08	3313.6	
189.29	4626.4	
189.5	4547.2	
189.72	3067.2	
189.93	3122.5	
190.15	5212.1	
190.36	6014.9	
190.57	3405.1	
190.79	3220.8	
191	5173.2	
191.22	5195	
191.43	3404.4	
191.64	2848	
191.86	5386.2	
192.07	5134.9	
192.29	2926.5	
192.5	3082.9	
192.71	5221.6	
192.93	4573.8	
193.14	3058.3	
193.35	3117	
193.57	4576.5	
193.78	5208.7	
194	2502.6	
194.21	2987.3	
194.42	4442.7	
194.64	4759.5	
194.85	3276.1	
195.07	3816.7	
195.28	4786.8	
195.49	4274.8	
195.71	3973.7	
195.92	2887.6	
196.13	4941.1	
196.35	4986.8	
196.56	4207.9	
196.78	3287	
196.99	6002.6	
197.2	5532.9	
197.42	3706.8	
197.63	3358.7	
197.84	4341.7	
198.06	4932.9	
198.27	3087	
198.48	3942.3	
198.7	4575.2	
198.91	4801.8	
199.13	3349.8	
199.34	3290.4	
199.55	5149.3	
199.77	4163.5	
199.98	2930	
200.19	3353.9	
200.41	4793.6	
200.62	4454.3	
200.83	3429	
201.05	3728.7	
201.26	4761.5	
201.47	4530.1	
201.69	3021.4	
201.9	2909.5	
202.11	4715.8	
202.33	5481	
202.54	3172.3	
202.76	3547.8	
202.97	4818.2	
203.18	4914.4	
203.4	3431.7	
203.61	3437.2	
203.82	4788.2	
204.04	4498.7	
204.25	3369.6	
204.46	3279.5	
204.68	4760.2	
204.89	4929.5	
205.1	3248.8	
205.32	2844.6	
205.53	5080.3	
205.74	5144.5	
205.96	2560.6	
206.17	3349.8	
206.38	5035.3	
206.6	5098.1	
206.81	3755.3	
207.02	3097.2	
207.24	4938.3	
207.45	5237.3	
207.66	3176.4	
207.88	2783.2	
208.09	4917.9	
208.3	4780	
208.52	2956.6	
208.73	3233.7	
208.94	4760.8	
209.15	5261.9	
209.37	3185.3	
209.58	3547.8	
209.79	5137	
210.01	4659.1	
210.22	2662.4	
210.43	2732.7	
210.65	4724	
210.86	5042.8	
211.07	3154.6	
211.29	2919.7	
211.5	4988.9	
211.71	4696	
211.93	2912.9	
212.14	2980.5	
212.35	4734.2	
212.56	4801.8	
212.78	3319.1	
212.99	2833.7	
213.2	5423.7	
213.42	4573.1	
213.63	2994.1	
213.84	3167.5	
214.06	4320.5	
214.27	4390.8	
214.48	3106.8	
214.69	3341.6	
214.91	5283.8	
215.12	5295.4	
215.33	3387.3	
215.55	3645.4	
215.76	5729.5	
215.97	4981.3	
216.18	3244	
216.4	3233.1	
216.61	4497.3	
216.82	5085.1	
217.04	2996.2	
217.25	3046.7	
217.46	5156.8	
217.67	5057.1	
217.89	2692.4	
218.1	2757.9	
218.31	4797.7	
218.53	4902.8	
218.74	3151.1	
218.95	3018.7	
219.16	4743.8	
219.38	5410.1	
219.59	3042.6	
219.8	3523.9	
220.01	5806	
220.23	4821.6	
220.44	3797.6	
220.65	2917	
220.87	4789.5	
221.08	5233.9	
221.29	2790.7	
221.5	3588.7	
221.72	6223.1	
221.93	4532.2	
222.14	3312.2	
222.35	3850.9	
222.57	4782.7	
222.78	5071.5	
222.99	3183.2	
223.2	3372.3	
223.42	4986.8	
223.63	5048.2	
223.84	2522.4	
224.05	2553.1	
224.27	5790.3	
224.48	5449.6	
224.69	3846.1	
224.9	3313.6	
225.12	4894	
225.33	4703.5	
225.54	2738.8	
225.75	3000.3	
225.97	4491.2	
226.18	4715.1	
226.39	3201	
226.6	3020.8	
226.82	4536.3	
227.03	4416.1	
227.24	3282.2	
227.45	2825.5	
227.67	5070.8	
227.88	5400.5	
228.09	3732.1	
228.3	3656.3	
228.52	5022.3	
228.73	4721.9	
228.94	3079.5	
229.15	2809.8	
229.36	4737.6	
229.58	4698.7	
229.79	3131.3	
230	3601.7	
230.21	5578.7	
230.43	4846.2	
230.64	3300	
230.85	3380.5	
231.06	5118.6	
231.28	5087.2	
231.49	2785.2	
231.7	3217.4	
231.91	5010.7	
232.12	4765.6	
232.34	2930	
232.55	3188.7	
232.76	5201.8	
232.97	4867.3	
233.18	2932	
233.4	3300	
233.61	4898.7	
233.82	4561.5	
234.03	3100.6	
234.25	3063.8	
234.46	6277	
234.67	4814.1	
234.88	3377.1	
235.09	3003.7	
235.31	4944.5	
235.52	4627	
235.73	3241.9	
235.94	2811.9	
236.15	4521.9	
236.37	5603.9	
236.58	2953.2	
236.79	3166.2	
237	4992.3	
237.21	4376.5	
237.43	3409.2	
237.64	2774.3	
237.85	7826.7	
238.06	4457.1	
238.27	3398.3	
238.48	2833.7	
238.7	5063.3	
238.91	4681	
239.12	3145.7	
239.33	3338.9	
239.54	4641.4	
239.76	4656.4	
239.97	3144.3	
240.18	3226.9	
240.39	5655.8	
240.6	4922	
240.82	3388	
241.03	2746.3	
241.24	4775.2	
241.45	5356.8	
241.66	2939.5	
241.87	3439.9	
242.09	5341.1	
242.3	5572.5	
242.51	3430.3	
242.72	3188	
242.93	5049.6	
243.14	4719.9	
243.36	3702.7	
243.57	3959.4	
243.78	5395.7	
243.99	5005.2	
244.2	3211.9	
244.41	2910.2	
244.63	4427	
244.84	4953.4	
245.05	3404.4	
245.26	3203	
245.47	4988.2	
245.68	5124	
245.9	4050.9	
246.11	3325.2	
246.32	4612	
246.53	4932.2	
246.74	4968.4	
246.95	2738.1	
247.16	4455.7	
247.38	4781.3	
247.59	2770.2	
247.8	3217.4	
248.01	4439.3	
248.22	4752.7	
248.43	2923.8	
248.64	3129.3	
248.86	4323.9	
249.07	4570.4	
249.28	2880.8	
249.49	3276.1	
249.7	5178.6	
249.91	5186.1	
250.12	2715.6	
250.34	2790	
250.55	4883	
250.76	4736.3	
250.97	3280.8	
251.18	3317.7	
251.39	5199.1	
251.6	4855.7	
251.81	3347.7	
252.03	3311.6	
252.24	4576.5	
252.45	5053	
252.66	2892.4	
252.87	3487.7	
253.08	4736.3	
253.29	5896.1	
253.5	2862.4	
253.72	3779.2	
253.93	4702.8	
254.14	5497.4	
254.35	3093.8	
254.56	3143.6	
254.77	4926.7	
254.98	4440.7	
255.19	3028.9	
255.41	3780.6	
255.62	4898.1	
255.83	5244.8	
256.04	3384.6	
256.25	3315	
256.46	5651	
256.67	4543.8	
256.88	3320.4	
257.09	3597.6	
257.31	4451.6	
257.52	4539	
257.73	4029	
257.94	3040.6	
258.15	4704.9	
258.36	4720.6	
258.57	3760.1	
258.78	2502.6	
258.99	5102.9	
259.2	4644.8	
259.41	3108.1	
259.63	3205.8	
259.84	5352.7	
260.05	5606	
260.26	3923.2	
260.47	3020.8	
260.68	5203.2	
260.89	4700.8	
261.1	3639.9	
261.31	2953.9	
261.52	5255.1	
261.73	5478.3	
261.95	3865.2	
262.16	3388.7	
262.37	5238	
262.58	5319.9	
262.79	3856.3	
263	3056.9	
263.21	4836.6	
263.42	4594.3	
263.63	3339.6	
263.84	3069.9	
264.05	5160.9	
264.26	5427.8	
264.47	3783.3	
264.69	3265.8	
264.9	5382.7	
265.11	4905.6	
265.32	3001	
265.53	3074	
265.74	4904.9	
265.95	4252.3	
266.16	3229	
266.37	3516.4	
266.58	4858.5	
266.79	4646.2	
267	3048.7	
267.21	2861.7	
267.42	4447.5	
267.63	4779.3	
267.84	3166.8	
268.06	2811.9	
268.27	5117.2	
268.48	5199.8	
268.69	3143.6	
268.9	3605.8	
269.11	5336.3	
269.32	4283	
269.53	3170.9	
269.74	3009.1	
269.95	4928.1	
270.16	4258.4	
270.37	3201.7	
270.58	3653.6	
270.79	4706.2	
271	5191.6	
271.21	3347.7	
271.42	3232.4	
271.63	4902.8	
271.84	4432.5	
272.05	2626.2	
272.26	2891	
272.47	4782	
272.68	4897.4	
272.89	3107.5	
273.11	3469.3	
273.32	4565.6	
273.53	5408	
273.74	3375.7	
273.95	3332	
274.16	5138.4	
274.37	4840.7	
274.58	3502.7	
274.79	2865.1	
275	4961.5	
275.21	5270.8	
275.42	4094.6	
275.63	3515.7	
275.84	4974.5	
276.05	6034.7	
276.26	3357.3	
276.47	3110.9	
276.68	4678.2	
276.89	5565.7	
277.1	3536.2	
277.31	2821.4	
277.52	4967.7	
277.73	5171.8	
277.94	2828.2	
278.15	3091.1	
278.36	4957.4	
278.57	4554.7	
278.78	3107.5	
278.99	3444.7	
279.2	4547.2	
279.41	4487.8	
279.62	3999.7	
279.83	2951.8	
280.04	5657.9	
280.25	4461.8	
280.46	3935.5	
280.67	3170.3	
280.88	4482.3	
281.09	5251.7	
281.3	3396.9	
281.51	4087.1	
281.72	5133.6	
281.93	5108.3	
282.14	3044.6	
282.35	3237.2	
282.56	5185.5	
282.77	5113.1	
282.98	3164.8	
283.19	3726.6	
283.4	6150.1	
283.61	4722.6	
283.82	2872.6	
284.03	3882.3	
284.24	4980.7	
284.45	5253	
284.66	3927.3	
284.87	3694.5	
285.08	5191.6	
285.29	5333.6	
285.5	2831.7	
285.71	3149.1	
285.92	5233.9	
286.12	5717.9	
286.33	3871.3	
286.54	3174.4	
286.75	5141.1	
286.96	4653	
287.17	2927.2	
287.38	3730.7	
287.59	4629.8	
287.8	4549.9	
288.01	3158	
288.22	3512.9	
288.43	5057.8	
288.64	4349.2	
288.85	3719.8	
289.06	3522.5	
289.27	5096	
289.48	5369.1	
289.69	3863.8	
289.9	3567.6	
290.11	5301.5	
290.32	4599.7	
290.53	3735.5	
290.74	3406.5	
290.94	5078.3	
291.15	5078.3	
291.36	3060.3	
291.57	3518.4	
291.78	4648.2	
291.99	4264.6	
292.2	2962.7	
292.41	3447.4	
292.62	5201.8	
292.83	5029.1	
293.04	4127.3	
293.25	2981.8	
293.46	4625	
293.67	5148.6	
293.88	2924.5	
294.09	2952.5	
294.29	4425	
294.5	4859.1	
294.71	3260.4	
294.92	3087.7	
295.13	4653	
295.34	5644.9	
295.55	2774.3	
295.76	2691	
295.97	5124.7	
296.18	5603.9	
296.39	2881.5	
296.6	3048.1	
296.81	4798.4	
297.01	5080.3	
297.22	3173	
297.43	3052.2	
297.64	4565.6	
297.85	4503.5	
298.06	2578.4	
298.27	2796.8	
298.48	4761.5	
298.69	4487.1	
298.9	3246	
299.11	2983.9	
299.31	4429.1	
299.52	4424.3	
299.73	3485.6	
299.94	3397.6	
300.15	4805.9	
300.36	4493.2	
300.57	3403	
300.78	3391.4	
300.99	4689.2	
301.2	4813.4	
301.4	3040.6	
301.61	3217.4	
301.82	5066.7	
302.03	5081	
302.24	3581.2	
302.45	2910.2	
302.66	4998.4	
302.87	5270.1	
303.08	3024.8	
303.29	3943	
303.49	4612	
303.7	4749.2	
303.91	2739.5	
304.12	3812	
304.33	4375.1	
304.54	4870.8	
304.75	3028.9	
304.96	2965.5	
305.16	5035.3	
305.37	5525.4	
305.58	2705.4	
305.79	2799.6	
306	4988.2	
306.21	4257.7	
306.42	3080.8	
306.63	4410.6	
306.83	4607.2	
307.04	5059.8	
307.25	3325.9	
307.46	3265.8	
307.67	4211.3	
307.88	4995.7	
308.09	3057.6	
308.29	3056.9	
308.5	4812.7	
308.71	5161.6	
308.92	3215.3	
309.13	2936.8	
309.34	4715.8	
309.55	4699.4	
309.75	3714.3	
309.96	3406.5	
310.17	5113.1	
310.38	4536.9	
310.59	3475.4	
310.8	3365.5	
311.01	4698	
311.21	4711.7	
311.42	2939.5	
311.63	3009.8	
311.84	4603.2	
312.05	4794.3	
312.26	3386	
312.46	3627	
312.67	4605.9	
312.88	4379.9	
313.09	2921.1	
313.3	2887	
313.51	5357.5	
313.71	5634.6	
313.92	2937.5	
314.13	3033	
314.34	4952	
314.55	4739	
314.76	3678.2	
314.96	3241.9	
315.17	4951.3	
315.38	5066	
315.59	2990.7	
315.8	2848	
316.01	5373.9	
316.21	5452.4	
316.42	2843.9	
316.63	3241.9	
316.84	4676.9	
317.05	5274.9	
317.26	3456.3	
317.46	3097.2	
317.67	4751.3	
317.88	5092.6	
318.09	3701.4	
318.3	2772.3	
318.5	4646.8	
318.71	5025	
318.92	4515.8	
319.13	3488.4	
319.34	5169.1	
319.54	5267.4	
319.75	2740.9	
319.96	2669.2	
320.17	5014.8	
320.38	5201.8	
320.58	2746.3	
320.79	3228.3	
321	5175.9	
321.21	5319.9	
321.42	3307.5	
321.62	2702	
321.83	4523.3	
322.04	4774.5	
322.25	3143.6	
322.46	2992.8	
322.66	4891.9	
322.87	5031.2	
323.08	3573.7	
323.29	2871.9	
323.5	5484.5	
323.7	4466.6	
323.91	3884.3	
324.12	3525.2	
324.33	4883	
324.53	5063.9	
324.74	3409.2	
324.95	3525.9	
325.16	4423.6	
325.37	4629.8	
325.57	2960.7	
325.78	3018	
325.99	4861.9	
326.2	4352.6	
326.4	4166.9	
326.61	2740.9	
326.82	4740.4	
327.03	4876.9	
327.24	4015.4	
327.44	3832.4	
327.65	4969.7	
327.86	4187.4	
328.07	3401	
328.27	2889.7	
328.48	5333.6	
328.69	4502.1	
328.9	4055.7	
329.1	3090.4	
329.31	4760.2	
329.52	5317.2	
329.73	3024.2	
329.93	3211.2	
330.14	4760.8	
330.35	4954	
330.56	4641.4	
330.76	3552.5	
330.97	4659.8	
331.18	4844.8	
331.39	3259.7	
331.59	2721.8	
331.8	5215.5	
332.01	5328.1	
332.22	3002.3	
332.42	3377.1	
332.63	4878.9	
332.84	4534.9	
333.05	3284.3	
333.25	2949.1	
333.46	4620.2	
333.67	4794.3	
333.88	3081.5	
334.08	3360.7	
334.29	6107.7	
334.5	5230.5	
334.7	2958.6	
334.91	4019.5	
335.12	4412.7	
335.33	5072.8	
335.53	3206.4	
335.74	4542.4	
335.95	4620.9	
336.16	4429.1	
336.36	3227.6	
336.57	3614	
336.78	4419.5	
336.98	5201.8	
337.19	3860.4	
337.4	3197.6	
337.61	5723.4	
337.81	4464.6	
338.02	3003.7	
338.23	3782.6	
338.43	5391.6	
338.64	4557.4	
338.85	3003.7	
339.05	3823.6	
339.26	5467.4	
339.47	4299.4	
339.68	2903.3	
339.88	4192.9	
340.09	4999.8	
340.3	5171.1	
340.5	3450.1	
340.71	2734.7	
340.92	4404.5	
341.13	5285.8	
341.33	2889	
341.54	3466.5	
341.75	4967.7	
341.95	4653.7	
342.16	3266.5	
342.37	3500	
342.57	4513.7	
342.78	4734.2	
342.99	3586	
343.19	2767.5	
343.4	5079.6	
343.61	4954.7	
343.81	3147	
344.02	2861.7	
344.23	5036.6	
344.43	5365	
344.64	3600.3	
344.85	3523.9	
345.06	5062.6	
345.26	5240.8	
345.47	3413.3	
345.68	3878.9	
345.88	4364.2	
346.09	5058.5	
346.3	3432.4	
346.5	2650.8	
346.71	4745.1	
346.92	4590.9	
347.12	2796.8	
347.33	3370.3	
347.54	5167	
347.74	5477	
347.95	3351.2	
348.16	2644.6	
348.36	4623.6	
348.57	4454.3	
348.78	3367.5	
348.98	3606.5	
349.19	4742.4	
349.39	4354.7	
349.6	2818.7	
349.81	3045.3	
350.01	5023	
350.22	4552.6	
350.43	3295.2	
350.63	3831.1	
350.84	4803.9	
351.05	4586.1	
351.25	3041.2	
351.46	2742.2	
351.67	5219.6	
351.87	4558.8	
352.08	3236.5	
352.29	3560.1	
352.49	5117.9	
352.7	5238	
352.9	2917	
353.11	3618.1	
353.32	5655.8	
353.52	4650.3	
353.73	2947	
353.94	3647.4	
354.14	5042.8	
354.35	4803.9	
354.55	3058.3	
354.76	3296.5	
354.97	5026.4	
355.17	4782	
355.38	2922.5	
355.59	3874.1	
355.79	4589.5	
356	4827.1	
356.2	3377.8	
356.41	2965.5	
356.62	4441.4	
356.82	4839.4	
357.03	3675.4	
357.24	3236.5	
357.44	4627.7	
357.65	4774.5	
357.85	4263.2	
358.06	3408.5	
358.27	4481.6	
358.47	4605.9	
358.68	2977.1	
358.88	3583.9	
359.09	5108.3	
359.3	5362.3	
359.5	4169.7	
359.71	3794.9	
359.91	5773.2	
360.12	5271.5	
360.33	3724.6	
360.53	4095.9	
360.74	4755.4	
360.94	4840.7	
361.15	3902.1	
361.36	3336.8	
361.56	5492	
361.77	5051.7	
361.97	4237.9	
362.18	3466.5	
362.38	5476.3	
362.59	4698	
362.8	3201	
363	3180.5	
363.21	4613.4	
363.41	5144.5	
363.62	3732.8	
363.83	4473.4	
364.03	5323.4	
364.24	5905	
364.44	4752.7	
364.65	4609.3	
364.85	5059.8	
365.06	4835.9	
365.27	3504.8	
365.47	3603.7	
365.68	5886.5	
365.88	5145.9	
366.09	3891.1	
366.29	3592.8	
366.5	5376.6	
366.71	5605.3	
366.91	4606.6	
367.12	4012	
367.32	6257.2	
367.53	5583.4	
367.73	4110.3	
367.94	4891.9	
368.14	5606	
368.35	6208.1	
368.56	3993.5	
368.76	3540.3	
368.97	5708.4	
369.17	6964.5	
369.38	3696.6	
369.58	3947.8	
369.79	4959.5	
369.99	5998.5	
370.2	4748.6	
370.4	3965.6	
370.61	5504.3	
370.82	6451.8	
371.02	3939.6	
371.23	3337.5	
371.43	4997	
371.64	6046.3	
371.84	4028.4	
372.05	4913.8	
372.25	6995.2	
372.46	5806.7	
372.66	4099.4	
372.87	4062.5	
373.07	5950.7	
373.28	7176.1	
373.48	4918.5	
373.69	4721.3	
373.9	5679	
374.1	5662	
374.31	5010	
374.51	4568.3	
374.72	6335.7	
374.92	5427.8	
375.13	5210.7	
375.33	4583.4	
375.54	6144.6	
375.74	5687.9	
375.95	4754	
376.15	5627.8	
376.36	6283.2	
376.56	6114.6	
376.77	4851	
376.97	5186.8	
377.18	7222.5	
377.38	6399.9	
377.59	5546.6	
377.79	4631.1	
378	6366.5	
378.2	6690.7	
378.41	4797	
378.61	4644.1	
378.82	6760.3	
379.02	6216.3	
379.23	4985.4	
379.43	5801.9	
379.64	6935.8	
379.84	6683.9	
380.05	4786.1	
380.25	4700.8	
380.46	6724.2	
380.66	6380.1	
380.87	5840.1	
381.07	6005.3	
381.28	7156.3	
381.48	6610.8	
381.69	4818.2	
381.89	4849.6	
382.1	5778	
382.3	6769.2	
382.51	5679.7	
382.71	6320	
382.91	6556.2	
383.12	6968.6	
383.32	5004.6	
383.53	5101.5	
383.73	6360.3	
383.94	6339.8	
384.14	5122	
384.35	4401.8	
384.55	6217.6	
384.76	6536.4	
384.96	4988.2	
385.17	5106.3	
385.37	6547.4	
385.58	5892	
385.78	5132.9	
385.98	4228.4	
386.19	6042.2	
386.39	6309.8	
386.6	4723.3	
386.8	4923.3	
387.01	6456.6	
387.21	6535.8	
387.42	5227.8	
387.62	5710.4	
387.83	5985.5	
388.03	6389.7	
388.23	5124	
388.44	5628.5	
388.64	5947.3	
388.85	6075.6	
389.05	5403.2	
389.26	5895.4	
389.46	7705.8	
389.67	7137.9	
389.87	5581.4	
390.07	5526.1	
390.28	6600.6	
390.48	6161.7	
390.69	5000.5	
390.89	5209.3	
391.1	6383.5	
391.3	7166.5	
391.5	6112.5	
391.71	6554.2	
391.91	6948.8	
392.12	7604.1	
392.32	6227.2	
392.53	5576.6	
392.73	6552.8	
392.93	6579.4	
393.14	5371.8	
393.34	5891.3	
393.55	6944.7	
393.75	6545.3	
393.95	5223.7	
394.16	5088.5	
394.36	6358.3	
394.57	6789	
394.77	4785.4	
394.98	5122.7	
395.18	6412.2	
395.38	6432.7	
395.59	5920.7	
395.79	5214.1	
396	6638.8	
396.2	7043.6	
396.4	5977.3	
396.61	5969.1	
396.81	7301.7	
397.02	6837.5	
397.22	6341.9	
397.42	6399.9	
397.63	7539.3	
397.83	6883.9	
398.04	5513.1	
398.24	6070.2	
398.44	7243	
398.65	6630	
398.85	5505.6	
399.05	5605.3	
399.26	7100.3	
399.46	8293.6	
399.67	5948.7	
399.87	5713.2	
400.07	7359	
400.28	7646.4	
400.48	5952.1	
400.69	6888.7	
400.89	7950.2	
401.09	8128.4	
401.3	6025.1	
401.5	6870.9	
401.7	8650.6	
401.91	8785.1	
402.11	6523.5	
402.32	6480.5	
402.52	8219.2	
402.72	7978.9	
402.93	6744	
403.13	5786.9	
403.33	8558.5	
403.54	7337.9	
403.74	6191.7	
403.94	6756.9	
404.15	7326.9	
404.35	8209.6	
404.56	5812.1	
404.76	7206.1	
404.96	7578.2	
405.17	7459.4	
405.37	7036.8	
405.57	6328.9	
405.78	7873.1	
405.98	7372.7	
406.18	6240.2	
406.39	6946	
406.59	7941.3	
406.79	7572.7	
407	5994.4	
407.2	5943.2	
407.4	8018.5	
407.61	7984.3	
407.81	6059.3	
408.01	7293.5	
408.22	7197.2	
408.42	8817.2	
408.62	7300.3	
408.83	7103	
409.03	8247.9	
409.23	8267	
409.44	7363.1	
409.64	7688.1	
409.84	9510.8	
410.05	9547.6	
410.25	8008.2	
410.45	7766.6	
410.66	9527.2	
410.86	11257	
411.06	8693.6	
411.27	8335.2	
411.47	11544	
411.67	9908.8	
411.88	8544.8	
412.08	9105.3	
412.28	10449	
412.49	10849	
412.69	8887.5	
412.89	8839.7	
413.09	10878	
413.3	10790	
413.5	9013.8	
413.7	8854.1	
413.91	10316	
414.11	11031	
414.31	9141.4	
414.52	9645.9	
414.72	10836	
414.92	10871	
415.12	9033.6	
415.33	9619.3	
415.53	11267	
415.73	11366	
415.94	9886.2	
416.14	9473.9	
416.34	10646	
416.55	10362	
416.75	10358	
416.95	9998.2	
417.15	11488	
417.36	11742	
417.56	10722	
417.76	9940.8	
417.97	11715	
418.17	11587	
418.37	9672.6	
418.57	9817.3	
418.78	11486	
418.98	11090	
419.18	10568	
419.38	10503	
419.59	11255	
419.79	10757	
419.99	9688.9	
420.2	9921.7	
420.4	11454	
420.6	11448	
420.8	9461.6	
421.01	9484.8	
421.21	11510	
421.41	11428	
421.61	9722.4	
421.82	9574.9	
422.02	11224	
422.22	11667	
422.42	10351	
422.63	9655.5	
422.83	11050	
423.03	12109	
423.23	9928.6	
423.44	9144.2	
423.64	11082	
423.84	10676	
424.04	9469.8	
424.25	9060.2	
424.45	11451	
424.65	11380	
424.85	8795.3	
425.06	9334.6	
425.26	11617	
425.46	10719	
425.66	9567.4	
425.87	9304.6	
426.07	11229	
426.27	10975	
426.47	9376.3	
426.67	8832.9	
426.88	11454	
427.08	10870	
427.28	9838.4	
427.48	8757.8	
427.69	10064	
427.89	10557	
428.09	9438.4	
428.29	8777.6	
428.5	11039	
428.7	10671	
428.9	8815.8	
429.1	9086.8	
429.3	10744	
429.51	11015	
429.71	8809	
429.91	9715.6	
430.11	11038	
430.31	11305	
430.52	9396.1	
430.72	9648	
430.92	11542	
431.12	11234	
431.32	9377	
431.53	9392.7	
431.73	10447	
431.93	11664	
432.13	9079.3	
432.33	9164.7	
432.54	10688	
432.74	10886	
432.94	9196.7	
433.14	9784.5	
433.34	11247	
433.55	11083	
433.75	9873.3	
433.95	11409	
434.15	11265	
434.35	11056	
434.56	9303.9	
434.76	9297.1	
434.96	11269	
435.16	11753	
435.36	9284.8	
435.56	10478	
435.77	11253	
435.97	11409	
436.17	10968	
436.37	10500	
436.57	11360	
436.78	11400	
436.98	10277	
437.18	10963	
437.38	11958	
437.58	11344	
437.78	11004	
437.99	9841.9	
438.19	11615	
438.39	12852	
438.59	9871.9	
438.79	9266.4	
438.99	12135	
439.2	11136	
439.4	9198.1	
439.6	9182.4	
439.8	11263	
440	12168	
440.2	10298	
440.4	10156	
440.61	11888	
440.81	12357	
441.01	9966.8	
441.21	10845	
441.41	12890	
441.61	12181	
441.81	11090	
442.02	11923	
442.22	13035	
442.42	12484	
442.62	10385	
442.82	10194	
443.02	12755	
443.22	12217	
443.43	10706	
443.63	10287	
443.83	11817	
444.03	11958	
444.23	11594	
444.43	11014	
444.63	12495	
444.83	13200	
445.04	10833	
445.24	11624	
445.44	12522	
445.64	12695	
445.84	11002	
446.04	11098	
446.24	11987	
446.44	12704	
446.65	10219	
446.85	10634	
447.05	11578	
447.25	12461	
447.45	10510	
447.65	9959.3	
447.85	11938	
448.05	11385	
448.25	10800	
448.46	10628	
448.66	11979	
448.86	11544	
449.06	10023	
449.26	10807	
449.46	12323	
449.66	11452	
449.86	10692	
450.06	10551	
450.26	11670	
450.47	12193	
450.67	10668	
450.87	10942	
451.07	12329	
451.27	12220	
451.47	10211	
451.67	10853	
451.87	12051	
452.07	12611	
452.27	10698	
452.47	10393	
452.67	12134	
452.88	12680	
453.08	9766.8	
453.28	11471	
453.48	13319	
453.68	11841	
453.88	10457	
454.08	10470	
454.28	12562	
454.48	12192	
454.68	10925	
454.88	11249	
455.08	12545	
455.28	12685	
455.48	10255	
455.68	11034	
455.89	13259	
456.09	13091	
456.29	10750	
456.49	11225	
456.69	13352	
456.89	12476	
457.09	11379	
457.29	11923	
457.49	13080	
457.69	13275	
457.89	11708	
458.09	11144	
458.29	13063	
458.49	13681	
458.69	12099	
458.89	11615	
459.09	14210	
459.29	14070	
459.49	11628	
459.69	12327	
459.9	13603	
460.1	13623	
460.3	11548	
460.5	11512	
460.7	13676	
460.9	13490	
461.1	11282	
461.3	12479	
461.5	14294	
461.7	14179	
461.9	11975	
462.1	12056	
462.3	13889	
462.5	14199	
462.7	12035	
462.9	12292	
463.1	15218	
463.3	15210	
463.5	12482	
463.7	13585	
463.9	14396	
464.1	14637	
464.3	13249	
464.5	13009	
464.7	15063	
464.9	15203	
465.1	14188	
465.3	13644	
465.5	15312	
465.7	15599	
465.9	14013	
466.1	13410	
466.3	15442	
466.5	15026	
466.7	14729	
466.9	13586	
467.1	15455	
467.3	16060	
467.5	14740	
467.7	13906	
467.9	16244	
468.1	16934	
468.3	14292	
468.5	14698	
468.7	15578	
468.9	15365	
469.1	14296	
469.3	14794	
469.5	17194	
469.7	15606	
469.9	14238	
470.1	14129	
470.3	15837	
470.5	15738	
470.7	15109	
470.9	14078	
471.1	15627	
471.3	15447	
471.5	14023	
471.69	15288	
471.89	15292	
472.09	14758	
472.29	14462	
472.49	14318	
472.69	15177	
472.89	15504	
473.09	13818	
473.29	13522	
473.49	15154	
473.69	14845	
473.89	14181	
474.09	13672	
474.29	15735	
474.49	15567	
474.69	14143	
474.89	13635	
475.09	14905	
475.29	14903	
475.49	12965	
475.69	13421	
475.88	15782	
476.08	15133	
476.28	13079	
476.48	13022	
476.68	15245	
476.88	14958	
477.08	12869	
477.28	13291	
477.48	14336	
477.68	14686	
477.88	12833	
478.08	12936	
478.28	15259	
478.48	14472	
478.67	12974	
478.87	12258	
479.07	15124	
479.27	14490	
479.47	13056	
479.67	13158	
479.87	14790	
480.07	15343	
480.27	12587	
480.47	13708	
480.67	14418	
480.87	15036	
481.06	12717	
481.26	13391	
481.46	14544	
481.66	14480	
481.86	13115	
482.06	13796	
482.26	14266	
482.46	14969	
482.66	12918	
482.86	12622	
483.05	14810	
483.25	13988	
483.45	14677	
483.65	12925	
483.85	14215	
484.05	14489	
484.25	13206	
484.45	13872	
484.65	14951	
484.84	15451	
485.04	13094	
485.24	13046	
485.44	15638	
485.64	14205	
485.84	12740	
486.04	13701	
486.24	14622	
486.44	14885	
486.63	12669	
486.83	13383	
487.03	14762	
487.23	15017	
487.43	12871	
487.63	14784	
487.83	15094	
488.02	15620	
488.22	13786	
488.42	14429	
488.62	15641	
488.82	14988	
489.02	13423	
489.22	13914	
489.41	15554	
489.61	15592	
489.81	13432	
490.01	13356	
490.21	15713	
490.41	16377	
490.61	13491	
490.8	13633	
491	15610	
491.2	14786	
491.4	13938	
491.6	13268	
491.8	15072	
491.99	15022	
492.19	12935	
492.39	13225	
492.59	15389	
492.79	15418	
492.99	13733	
493.18	13222	
493.38	15562	
493.58	16492	
493.78	13906	
493.98	13614	
494.18	15650	
494.37	15381	
494.57	14600	
494.77	14460	
494.97	16130	
495.17	16549	
495.37	14390	
495.56	14659	
495.76	16896	
495.96	16743	
496.16	15649	
496.36	14857	
496.55	16971	
496.75	16700	
496.95	15160	
497.15	15228	
497.35	16886	
497.54	16943	
497.74	14941	
497.94	16249	
498.14	17552	
498.34	17289	
498.53	14762	
498.73	15360	
498.93	16501	
499.13	17132	
499.33	15418	
499.52	15601	
499.72	17348	
499.92	17159	
500.12	15238	
500.32	15369	
500.51	17271	
500.71	17224	
500.91	16078	
501.11	15773	
501.31	17370	
501.5	17570	
501.7	16184	
501.9	15515	
502.1	17136	
502.29	17320	
502.49	15875	
502.69	15950	
502.89	17266	
503.09	17230	
503.28	14756	
503.48	14898	
503.68	16406	
503.88	16503	
504.07	15373	
504.27	14874	
504.47	16669	
504.67	16520	
504.86	15380	
505.06	15012	
505.26	16247	
505.46	17351	
505.65	14638	
505.85	14833	
506.05	15935	
506.25	16373	
506.44	13922	
506.64	14422	
506.84	15575	
507.04	16007	
507.23	13753	
507.43	14268	
507.63	16846	
507.83	15373	
508.02	14183	
508.22	13816	
508.42	17065	
508.62	15173	
508.81	13800	
509.01	14370	
509.21	14666	
509.4	15137	
509.6	14084	
509.8	13500	
510	15011	
510.19	16185	
510.39	13345	
510.59	13434	
510.79	15029	
510.98	16122	
511.18	13637	
511.38	13595	
511.57	15721	
511.77	15491	
511.97	14050	
512.17	13419	
512.36	15590	
512.56	15376	
512.76	13386	
512.95	13044	
513.15	15690	
513.35	14490	
513.55	13946	
513.74	13193	
513.94	15453	
514.14	14899	
514.33	14063	
514.53	13776	
514.73	14954	
514.92	15147	
515.12	13453	
515.32	13276	
515.51	15244	
515.71	15374	
515.91	14599	
516.11	13461	
516.3	16469	
516.5	14988	
516.7	13749	
516.89	14283	
517.09	15037	
517.29	15102	
517.48	14061	
517.68	13557	
517.88	14807	
518.07	15317	
518.27	13991	
518.47	13067	
518.66	15566	
518.86	14657	
519.06	13055	
519.25	13264	
519.45	14838	
519.65	16125	
519.84	13792	
520.04	14541	
520.24	16341	
520.43	15454	
520.63	13645	
520.83	13484	
521.02	14748	
521.22	15069	
521.42	13556	
521.61	14063	
521.81	14768	
522.01	14863	
522.2	13366	
522.4	13072	
522.6	15089	
522.79	14175	
522.99	13261	
523.18	12884	
523.38	15079	
523.58	15116	
523.77	14486	
523.97	13027	
524.17	16625	
524.36	16000	
524.56	14208	
524.76	14023	
524.95	15479	
525.15	15304	
525.34	13944	
525.54	14213	
525.74	15982	
525.93	15197	
526.13	15028	
526.33	14385	
526.52	16504	
526.72	16006	
526.91	15111	
527.11	14736	
527.31	16372	
527.5	16763	
527.7	14599	
527.89	14089	
528.09	15638	
528.29	16083	
528.48	14849	
528.68	14590	
528.87	16464	
529.07	16353	
529.27	14680	
529.46	14367	
529.66	16335	
529.85	16602	
530.05	14440	
530.25	14779	
530.44	17432	
530.64	16130	
530.83	14617	
531.03	14814	
531.23	16642	
531.42	16277	
531.62	15047	
531.81	14672	
532.01	16626	
532.21	16951	
532.4	14525	
532.6	14938	
532.79	17486	
532.99	16897	
533.18	15310	
533.38	16009	
533.58	16832	
533.77	17193	
533.97	15395	
534.16	15919	
534.36	17478	
534.55	16797	
534.75	15966	
534.95	15478	
535.14	17696	
535.34	16971	
535.53	15238	
535.73	16696	
535.92	18060	
536.12	16892	
536.31	15135	
536.51	16021	
536.71	17136	
536.9	16802	
537.1	15160	
537.29	15263	
537.49	17225	
537.68	16522	
537.88	15593	
538.07	14797	
538.27	16774	
538.46	17471	
538.66	14853	
538.86	15281	
539.05	16933	
539.25	17153	
539.44	15673	
539.64	15070	
539.83	16725	
540.03	17484	
540.22	15040	
540.42	14872	
540.61	16639	
540.81	16828	
541	15094	
541.2	15686	
541.39	16124	
541.59	16490	
541.78	15452	
541.98	14590	
542.18	15887	
542.37	15726	
542.57	14777	
542.76	15216	
542.96	15781	
543.15	16320	
543.35	14655	
543.54	14132	
543.74	16058	
543.93	15910	
544.13	14392	
544.32	15072	
544.52	15890	
544.71	15322	
544.91	13526	
545.1	14211	
545.3	15306	
545.49	15717	
545.69	13289	
545.88	13703	
546.08	16449	
546.27	16025	
546.47	14227	
546.66	13563	
546.86	15763	
547.05	16226	
547.24	13614	
547.44	13580	
547.63	14889	
547.83	15832	
548.02	13834	
548.22	13962	
548.41	14666	
548.61	15741	
548.8	13395	
549	13334	
549.19	15092	
549.39	15539	
549.58	12976	
549.78	13575	
549.97	15360	
550.17	14797	
550.36	13978	
550.55	14799	
550.75	14848	
550.94	15442	
551.14	12964	
551.33	13123	
551.53	14248	
551.72	14998	
551.92	13267	
552.11	13062	
552.31	15016	
552.5	14937	
552.69	14328	
552.89	12708	
553.08	14802	
553.28	14702	
553.47	13003	
553.67	13775	
553.86	15287	
554.06	14018	
554.25	12295	
554.44	12691	
554.64	15632	
554.83	15375	
555.03	12652	
555.22	12827	
555.42	14829	
555.61	14620	
555.8	12610	
556	12819	
556.19	14067	
556.39	14620	
556.58	12708	
556.78	12620	
556.97	14351	
557.16	14137	
557.36	13523	
557.55	12338	
557.75	13545	
557.94	14994	
558.13	12346	
558.33	12147	
558.52	14854	
558.72	13777	
558.91	12304	
559.1	12362	
559.3	13512	
559.49	13236	
559.69	11784	
559.88	12513	
560.07	14033	
560.27	14391	
560.46	12580	
560.66	12676	
560.85	13908	
561.04	13226	
561.24	11972	
561.43	12052	
561.63	13352	
561.82	13566	
562.01	12975	
562.21	12226	
562.4	13900	
562.59	14659	
562.79	12078	
562.98	11840	
563.18	13739	
563.37	14798	
563.56	12417	
563.76	11966	
563.95	13469	
564.14	13405	
564.34	12305	
564.53	11995	
564.73	13814	
564.92	14009	
565.11	12264	
565.31	11755	
565.5	14211	
565.69	13343	
565.89	12016	
566.08	12125	
566.27	14014	
566.47	14435	
566.66	12619	
566.85	11699	
567.05	13863	
567.24	13457	
567.44	11888	
567.63	12817	
567.82	13891	
568.02	13762	
568.21	11863	
568.4	12153	
568.6	13655	
568.79	13542	
568.98	11518	
569.18	11733	
569.37	13626	
569.56	14962	
569.76	12056	
569.95	12774	
570.14	13786	
570.34	13699	
570.53	11645	
570.72	11650	
570.91	14019	
571.11	13404	
571.3	11857	
571.49	12489	
571.69	13383	
571.88	12972	
572.07	12212	
572.27	12067	
572.46	12824	
572.65	13725	
572.85	11568	
573.04	11845	
573.23	13953	
573.43	13287	
573.62	11323	
573.81	11911	
574	13465	
574.2	13214	
574.39	11775	
574.58	11827	
574.78	14171	
574.97	13523	
575.16	12214	
575.36	12320	
575.55	13927	
575.74	13925	
575.93	11420	
576.13	12379	
576.32	13373	
576.51	13799	
576.71	11875	
576.9	12899	
577.09	14046	
577.28	13698	
577.48	12142	
577.67	11450	
577.86	13419	
578.05	13614	
578.25	12016	
578.44	12068	
578.63	13330	
578.83	14455	
579.02	11504	
579.21	12615	
579.4	13658	
579.6	13374	
579.79	11858	
579.98	13586	
580.17	13884	
580.37	14000	
580.56	11486	
580.75	12194	
580.94	14078	
581.14	14098	
581.33	12527	
581.52	11683	
581.71	13857	
581.91	14393	
582.1	11566	
582.29	11957	
582.48	13600	
582.68	13647	
582.87	12362	
583.06	12112	
583.25	13850	
583.45	13271	
583.64	12580	
583.83	13212	
584.02	13463	
584.21	13785	
584.41	12507	
584.6	12175	
584.79	13610	
584.98	14096	
585.18	11647	
585.37	11698	
585.56	13358	
585.75	13900	
585.94	11782	
586.14	12372	
586.33	14111	
586.52	13480	
586.71	12111	
586.91	11946	
587.1	12836	
587.29	13617	
587.48	11557	
587.67	11600	
587.87	13448	
588.06	13345	
588.25	12353	
588.44	11729	
588.63	13011	
588.83	13444	
589.02	11105	
589.21	10961	
589.4	12616	
589.59	12311	
589.78	10102	
589.98	10286	
590.17	11660	
590.36	11888	
590.55	9372.2	
590.74	9854.1	
590.94	12529	
591.13	11358	
591.32	9640.5	
591.51	9090.9	
591.7	11498	
591.89	11247	
592.09	9142.8	
592.28	9493	
592.47	10587	
592.66	12177	
592.85	9281.4	
593.05	9431.6	
593.24	11078	
593.43	11792	
593.62	9495.1	
593.81	9932	
594	11275	
594.19	11432	
594.39	9448.6	
594.58	9465	
594.77	11526	
594.96	12026	
595.15	9503.9	
595.34	9977	
595.54	11420	
595.73	10812	
595.92	8915.5	
596.11	9642.5	
596.3	11768	
596.49	10795	
596.68	9463	
596.88	9833	
597.07	11538	
597.26	10697	
597.45	9045.2	
597.64	10064	
597.83	10959	
598.02	11355	
598.22	9228.1	
598.41	9727.9	
598.6	11299	
598.79	10833	
598.98	9194	
599.17	9975.7	
599.36	11237	
599.55	12127	
599.74	10792	
599.94	10752	
600.13	11708	
600.32	10890	
600.51	9185.8	
600.7	9377.6	
600.89	12238	
601.08	12213	
601.27	9255.5	
601.47	9793.4	
601.66	11660	
601.85	12095	
602.04	9712.8	
602.23	9885.5	
602.42	10977	
602.61	11456	
602.8	9509.4	
602.99	9414.5	
603.18	11182	
603.37	11353	
603.57	9772.2	
603.76	10329	
603.95	11908	
604.14	11516	
604.33	9437.7	
604.52	9661.6	
604.71	11488	
604.9	11197	
605.09	10286	
605.28	10019	
605.47	11853	
605.66	11613	
605.86	9966.8	
606.05	9565.4	
606.24	11843	
606.43	10823	
606.62	9769.5	
606.81	10146	
607	11587	
607.19	11140	
607.38	9255.5	
607.57	9471.2	
607.76	10873	
607.95	10373	
608.14	9790	
608.33	10119	
608.52	10858	
608.72	11485	
608.91	8978.3	
609.1	8881.4	
609.29	10865	
609.48	10468	
609.67	9653.4	
609.86	9009	
610.05	10494	
610.24	10730	
610.43	8825.4	
610.62	8591.9	
610.81	11580	
611	11363	
611.19	8858.1	
611.38	9586.5	
611.57	10950	
611.76	11897	
611.95	8699.1	
612.14	8576.2	
612.33	10717	
612.52	10361	
612.71	9139.4	
612.9	8514.1	
613.09	10046	
613.28	11783	
613.47	8942.8	
613.66	9587.9	
613.85	10883	
614.04	10450	
614.24	8844.5	
614.43	8196	
614.62	10873	
614.81	10753	
615	9258.9	
615.19	9170.1	
615.38	10210	
615.57	10520	
615.76	9197.4	
615.95	9931.3	
616.14	10986	
616.33	10553	
616.52	9398.1	
616.71	9521	
616.9	10832	
617.09	10622	
617.28	8846.5	
617.47	9785.2	
617.66	10058	
617.85	10116	
618.04	9513.5	
618.22	9100.5	
618.41	10387	
618.6	11164	
618.79	9082.1	
618.98	8994	
619.17	11376	
619.36	10035	
619.55	9030.2	
619.74	9017.9	
619.93	10824	
620.12	10370	
620.31	9467.1	
620.5	9574.3	
620.69	11415	
620.88	11582	
621.07	10168	
621.26	9398.8	
621.45	10988	
621.64	10946	
621.83	9541.5	
622.02	8839.7	
622.21	10932	
622.4	10875	
622.59	9749.7	
622.78	9767.4	
622.97	10486	
623.16	11221	
623.35	9525.8	
623.54	8750.3	
623.72	10701	
623.91	10662	
624.1	9677.3	
624.29	8538.7	
624.48	11505	
624.67	10958	
624.86	9361.9	
625.05	8775.5	
625.24	11624	
625.43	10461	
625.62	10821	
625.81	8890.9	
626	11094	
626.19	10537	
626.38	9428.8	
626.56	8908	
626.75	10374	
626.94	10886	
627.13	9397.4	
627.32	8526.4	
627.51	10850	
627.7	11682	
627.89	8366	
628.08	9183.1	
628.27	10092	
628.46	10208	
628.65	8469.7	
628.83	8244.4	
629.02	10480	
629.21	10047	
629.4	8763.3	
629.59	9038.4	
629.78	10022	
629.97	10728	
630.16	8992.6	
630.35	8667	
630.54	11170	
630.72	10874	
630.91	8735.3	
631.1	9023.4	
631.29	10444	
631.48	10501	
631.67	9115.5	
631.86	8662.2	
632.05	10161	
632.24	10202	
632.42	8393.3	
632.61	8911.4	
632.8	10202	
632.99	9952.4	
633.18	8994	
633.37	9209.7	
633.56	10522	
633.75	10408	
633.93	8945.5	
634.12	8742.8	
634.31	11069	
634.5	10717	
634.69	8788.5	
634.88	9123.7	
635.07	10279	
635.25	10808	
635.44	9405.6	
635.63	9598.8	
635.82	10226	
636.01	9697.8	
636.2	9384.5	
636.39	8960.5	
636.57	11045	
636.76	10665	
636.95	8560.5	
637.14	9535.3	
637.33	10506	
637.52	11095	
637.7	8390.5	
637.89	9133.9	
638.08	10318	
638.27	11228	
638.46	9075.2	
638.65	9383.1	
638.83	11179	
639.02	9996.8	
639.21	9008.3	
639.4	9353.8	
639.59	10326	
639.78	10049	
639.96	8404.2	
640.15	8460.8	
640.34	10184	
640.53	10234	
640.72	8256.7	
640.91	8509.3	
641.09	9721	
641.28	10655	
641.47	8378.9	
641.66	8953.7	
641.85	10161	
642.03	10312	
642.22	8751	
642.41	8379.6	
642.6	9711.5	
642.79	9177.6	
642.97	8318.8	
643.16	8667.7	
643.35	9686.9	
643.54	9516.9	
643.73	8011.7	
643.91	8661.5	
644.1	9248.6	
644.29	9815.9	
644.48	7996	
644.67	8029.4	
644.85	9295	
645.04	9625.5	
645.23	7597.3	
645.42	7837.6	
645.6	9001.5	
645.79	9901.9	
645.98	7707.9	
646.17	6859.3	
646.36	8754.4	
646.54	8997.4	
646.73	8037.6	
646.92	7193.1	
647.11	8677.2	
647.29	9442.5	
647.48	7129	
647.67	6924.9	
647.86	9534	
648.05	9545.6	
648.23	7256.6	
648.42	8204.2	
648.61	9110.7	
648.8	8886.8	
648.98	7073.7	
649.17	7284.6	
649.36	8605.6	
649.55	8286.1	
649.73	7134.4	
649.92	7760.4	
650.11	8606.2	
650.3	8879.3	
650.48	7264.8	
650.67	7059.3	
650.86	9024	
651.05	8243.8	
651.23	7078.5	
651.42	7016.3	
651.61	8564.6	
651.79	8472.4	
651.98	7314.7	
652.17	6919.4	
652.36	8772.8	
652.54	8119.5	
652.73	6985.6	
652.92	6896.9	
653.11	8860.9	
653.29	8921.6	
653.48	6477	
653.67	7230	
653.85	8695.7	
654.04	9384.5	
654.23	7283.3	
654.42	6959	
654.6	8230.1	
654.79	8666.3	
654.98	6515.3	
655.16	6877.8	
655.35	7826.7	
655.54	7535.8	
655.73	6457.9	
655.91	6289.3	
656.1	8427.4	
656.29	7617.1	
656.47	6069.5	
656.66	7370.6	
656.85	7882.6	
657.03	7897.7	
657.22	6483.2	
657.41	6675	
657.59	8084	
657.78	7960.5	
657.97	6334.4	
658.16	6911.9	
658.34	8618.5	
658.53	8880	
658.72	7518.1	
658.9	7999.4	
659.09	8272.4	
659.28	8262.2	
659.46	6676.4	
659.65	6701	
659.84	8016.4	
660.02	8600.1	
660.21	6720.8	
660.4	6655.2	
660.58	8804.9	
660.77	8276.5	
660.96	7102.4	
661.14	6283.2	
661.33	9126.4	
661.52	9028.8	
661.7	6339.8	
661.89	8868.4	
662.08	7965.9	
662.26	7694.9	
662.45	6464.8	
662.64	6679.8	
662.82	8528.4	
663.01	7894.2	
663.2	6593.1	
663.38	7134.4	
663.57	8427.4	
663.75	8311.3	
663.94	6817	
664.13	7763.2	
664.31	8038.3	
664.5	8421.2	
664.69	6955.6	
664.87	7249.8	
665.06	7767.3	
665.25	8284.7	
665.43	7451.9	
665.62	7567.9	
665.8	8419.2	
665.99	8045.8	
666.18	6751.5	
666.36	6806.1	
666.55	8510	
666.74	8386.4	
666.92	6485.9	
667.11	7649.8	
667.29	8034.2	
667.48	8389.2	
667.67	7397.3	
667.85	6540.5	
668.04	7915.4	
668.22	7987.8	
668.41	6670.2	
668.6	6863.4	
668.78	7787.7	
668.97	7904.5	
669.15	7062.8	
669.34	6150.1	
669.53	7861.5	
669.71	8135.9	
669.9	6310.5	
670.08	6818.4	
670.27	7710.6	
670.46	8162.5	
670.64	6854.6	
670.83	7161.7	
671.01	7617.1	
671.2	8014.4	
671.38	6448.4	
671.57	6328.2	
671.76	8611.7	
671.94	8942.1	
672.13	6149.4	
672.31	7025.9	
672.5	8245.8	
672.69	7664.9	
672.87	6360.3	
673.06	6563.7	
673.24	8051.2	
673.43	7733.8	
673.61	6849.8	
673.8	6432	
673.98	8191.2	
674.17	8304.5	
674.36	6954.9	
674.54	6798.6	
674.73	7957	
674.91	8241.7	
675.1	6645.7	
675.28	6244.9	
675.47	7901.7	
675.65	8275.2	
675.84	6507.8	
676.03	6673.6	
676.21	7736.5	
676.4	7277.8	
676.58	7022.5	
676.77	6910.5	
676.95	8897.7	
677.14	7593.2	
677.32	6264.1	
677.51	6089.3	
677.69	8167.3	
677.88	7471.7	
678.06	6137.1	
678.25	6214.2	
678.44	7811	
678.62	7535.8	
678.81	6023.1	
678.99	6701.6	
679.18	8422.6	
679.36	8080.6	
679.55	6425.2	
679.73	6861.4	
679.92	7983.7	
680.1	7639.6	
680.29	7240.9	
680.47	6375.3	
680.66	7494.9	
680.84	8199.4	
681.03	5839.4	
681.21	6784.2	
681.4	7520.1	
681.58	7441.6	
681.77	6223.8	
681.95	6108.4	
682.14	8197.3	
682.32	8435.6	
682.51	6740.5	
682.69	5956.2	
682.88	7451.2	
683.06	7701	
683.25	6556.9	
683.43	6807.4	
683.62	7650.5	
683.8	7922.9	
683.99	6978.1	
684.17	6453.8	
684.36	8470.4	
684.54	7531.7	
684.73	5690.6	
684.91	5846.3	
685.1	7655.3	
685.28	7139.2	
685.46	6098.9	
685.65	6061.3	
685.83	7557	
686.02	7008.1	
686.2	5529.5	
686.39	5530.2	
686.57	6673.6	
686.76	7907.2	
686.94	5527.5	
687.13	5720	
687.31	7324.2	
687.5	7073.7	
687.68	5160.2	
687.86	6105	
688.05	8284.7	
688.23	6619.7	
688.42	6155.5	
688.6	5555.5	
688.79	6971.3	
688.97	7053.9	
689.16	5956.2	
689.34	5138.4	
689.52	7557.7	
689.71	7729.7	
689.89	6218.3	
690.08	5682.4	
690.26	7236.8	
690.45	7086	
690.63	6285.9	
690.81	5782.8	
691	7051.8	
691.18	6927.6	
691.37	5797.8	
691.55	7409.6	
691.74	6829.3	
691.92	8344.1	
692.1	5687.9	
692.29	5304.2	
692.47	7019.8	
692.66	6389.7	
692.84	5508.4	
693.02	5846.3	
693.21	6548	
693.39	6933.7	
693.58	5995.1	
693.76	5565.7	
693.94	7799.3	
694.13	7600	
694.31	5553.4	
694.5	6356.2	
694.68	6898.2	
694.86	7171.3	
695.05	6025.8	
695.23	5963	
695.42	7497.6	
695.6	9151.7	
695.78	6495.5	
695.97	5721.3	
696.15	7613	
696.34	7034.8	
696.52	5599.8	
696.7	6179.4	
696.89	7316	
697.07	6810.9	
697.25	6052.4	
697.44	7065.5	
697.62	7319.4	
697.81	7408.9	
697.99	5745.9	
698.17	6090.7	
698.36	6706.4	
698.54	7252.5	
698.72	5954.8	
698.91	5199.8	
699.09	6832.7	
699.28	6755.6	
699.46	5745.2	
699.64	5532.9	
699.83	6722.8	
700.01	7483.3	
700.19	6279.1	
700.38	5024.3	
700.56	7544.7	
700.74	6843.6	
700.93	5324.7	
701.11	5918.6	
701.29	7260	
701.48	8067.6	
701.66	5469.4	
701.84	5613.5	
702.03	6975.4	
702.21	7585.7	
702.39	5276.9	
702.58	5752.7	
702.76	7266.2	
702.94	7380.9	
703.13	5305.6	
703.31	7062.8	
703.49	6792.4	
703.68	7907.2	
703.86	5343.8	
704.04	6105.7	
704.23	7147.4	
704.41	7436.9	
704.59	5543.9	
704.78	6336.4	
704.96	8272.4	
705.14	7487.4	
705.33	5328.1	
705.51	6039.5	
705.69	6909.2	
705.87	7574.1	
706.06	6182.1	
706.24	5375.2	
706.42	7212.3	
706.61	7366.5	
706.79	6223.1	
706.97	5342.5	
707.16	6840.9	
707.34	7294.9	
707.52	6154.1	
707.7	5522	
707.89	6810.9	
708.07	6651.1	
708.25	6145.3	
708.44	6460.7	
708.62	6841.6	
708.8	7644.4	
708.98	6363	
709.17	5531.6	
709.35	7118.1	
709.53	7130.3	
709.72	5409.4	
709.9	5696.8	
710.08	7378.1	
710.26	7378.8	
710.45	6538.5	
710.63	5569.8	
710.81	7047.1	
710.99	7033.4	
711.18	6027.9	
711.36	5580.7	
711.54	6820.4	
711.72	7367.2	
711.91	5656.5	
712.09	5245.5	
712.27	6952.9	
712.45	7664.9	
712.64	5791	
712.82	5018.2	
713	6479.8	
713.18	6578.1	
713.37	4993.6	
713.55	5876.3	
713.73	7155.6	
713.91	6098.9	
714.1	5223	
714.28	4799.8	
714.46	6787	
714.64	6132.3	
714.83	4299.4	
715.01	4733.5	
715.19	6058.6	
715.37	5498.8	
715.55	4477.5	
715.74	4676.9	
715.92	6586.3	
716.1	5091.9	
716.28	5535.7	
716.47	4767.7	
716.65	5784.1	
716.83	5694.7	
717.01	4595.6	
717.19	4614.8	
717.38	7173.4	
717.56	5449	
717.74	4809.3	
717.92	4143.7	
718.1	6290.7	
718.29	5710.4	
718.47	3901.4	
718.65	4408.6	
718.83	6366.5	
719.01	6315.9	
719.2	3988.1	
719.38	4785.4	
719.56	6214.9	
719.74	7373.4	
719.92	4483.7	
720.11	5224.4	
720.29	6303.6	
720.47	5603.2	
720.65	4159.4	
720.83	4841.4	
721.02	5764.3	
721.2	5589.6	
721.38	4789.5	
721.56	4193.6	
721.74	5107	
721.92	5322	
722.11	5072.1	
722.29	4816.8	
722.47	6238.8	
722.65	5599.1	
722.83	4191.5	
723.01	4827.7	
723.2	5646.2	
723.38	5868.8	
723.56	3707.5	
723.74	4670.1	
723.92	5276.3	
724.1	6090	
724.29	4085.7	
724.47	4919.2	
724.65	5365.7	
724.83	5247.6	
725.01	4053.6	
725.19	4601.8	
725.37	5323.4	
725.56	5309.7	
725.74	3909.6	
725.92	4085.7	
726.1	5327.4	
726.28	5457.8	
726.46	4429.1	
726.64	4194.2	
726.83	5514.5	
727.01	5672.2	
727.19	3904.8	
727.37	4519.2	
727.55	5656.5	
727.73	6038.1	
727.91	3884.3	
728.09	3760.8	
728.28	6039.5	
728.46	6252.4	
728.64	4596.3	
728.82	4526.7	
729	6714.6	
729.18	6321.4	
729.36	3981.3	
729.54	5637.4	
729.72	7044.3	
729.91	5784.8	
730.09	5438.7	
730.27	4547.2	
730.45	5687.2	
730.63	6158.2	
730.81	4951.3	
730.99	4314.4	
731.17	6643.6	
731.35	5610.8	
731.53	4626.4	
731.71	4444.1	
731.9	6399.2	
732.08	6466.1	
732.26	4650.9	
732.44	4376.5	
732.62	6533.7	
732.8	6141.9	
732.98	4898.7	
733.16	4212	
733.34	6178.7	
733.52	5119.2	
733.7	4571.7	
733.88	4720.6	
734.07	5958.2	
734.25	5847.6	
734.43	4140.3	
734.61	5387.5	
734.79	6953.5	
734.97	5744.6	
735.15	4242.7	
735.33	4476.2	
735.51	5998.5	
735.69	5726.1	
735.87	5339.1	
736.05	4675.5	
736.23	5931.6	
736.41	5604.6	
736.59	4458.4	
736.77	4576.5	
736.95	6245.6	
737.13	5714.5	
737.32	4289.1	
737.5	4416.1	
737.68	6593.1	
737.86	5709.1	
738.04	4121.2	
738.22	5522.7	
738.4	5574.6	
738.58	5812.1	
738.76	4575.2	
738.94	3824.9	
739.12	5603.9	
739.3	5521.3	
739.48	5009.3	
739.66	4751.3	
739.84	5821	
740.02	5790.3	
740.2	3921.2	
740.38	4125.3	
740.56	6068.8	
740.74	5237.3	
740.92	4606.6	
741.1	4548.5	
741.28	5703.6	
741.46	5555.5	
741.64	4281.6	
741.82	4693.3	
742	5716.6	
742.18	5694.7	
742.36	4347.2	
742.54	4096.6	
742.72	6143.2	
742.9	5152.7	
743.08	4701.5	
743.26	3733.4	
743.44	6195.8	
743.62	6077.7	
743.8	4832.5	
743.98	4087.7	
744.16	5834.7	
744.34	5526.8	
744.52	4673.5	
744.7	4650.3	
744.88	5952.1	
745.06	5597.8	
745.24	4683.7	
745.42	4876.9	
745.6	6053.8	
745.78	5892.7	
745.96	3893.9	
746.14	4036.5	
746.32	6623.8	
746.5	5973.9	
746.68	4446.1	
746.86	4072.7	
747.03	6236.1	
747.21	5014.8	
747.39	4524	
747.57	4084.3	
747.75	5723.4	
747.93	6008.1	
748.11	4045.4	
748.29	3949.2	
748.47	6974	
748.65	5509	
748.83	4577.2	
749.01	4364.2	
749.19	5819.6	
749.37	5173.2	
749.55	4238.6	
749.73	4326	
749.91	5575.3	
750.09	5427.8	
750.26	4369	
750.44	3865.9	
750.62	5590.3	
750.8	5479.7	
750.98	3781.9	
751.16	4041.3	
751.34	5673.6	
751.52	5117.9	
751.7	4638	
751.88	3768.3	
752.06	6040.1	
752.24	5776.6	
752.42	3715.7	
752.59	4011.3	
752.77	5550.7	
752.95	6426.5	
753.13	4549.2	
753.31	3996.3	
753.49	5176.6	
753.67	5596.4	
753.85	4249.5	
754.03	3955.3	
754.21	5780.7	
754.38	6042.9	
754.56	4061.8	
754.74	3404.4	
754.92	5169.8	
755.1	5655.1	
755.28	3351.8	
755.46	3365.5	
755.64	6234.7	
755.82	6324.1	
755.99	3573	
756.17	3674.1	
756.35	4467.3	
756.53	5542.5	
756.71	2779.1	
756.89	3460.4	
757.07	5227.8	
757.25	4556	
757.42	3822.9	
757.6	4538.3	
757.78	5314.5	
757.96	4540.3	
758.14	3651.5	
758.32	3241.9	
758.5	4259.8	
758.67	4913.1	
758.85	3514.3	
759.03	3520.5	
759.21	5046.2	
759.39	4549.9	
759.57	3173	
759.75	4004.5	
759.92	5545.2	
760.1	5014.8	
760.28	4335.5	
760.46	4422.9	
760.64	4831.2	
760.82	4612	
760.99	4151.9	
761.17	3560.1	
761.35	5370.5	
761.53	4646.8	
761.71	3679.5	
761.89	4182	
762.06	5286.5	
762.24	4926.7	
762.42	3773	
762.6	3552.5	
762.78	4922.6	
762.96	5474.9	
763.13	4062.5	
763.31	3757.3	
763.49	5550.7	
763.67	4876.2	
763.85	4387.4	
764.02	4794.3	
764.2	5769.8	
764.38	5061.2	
764.56	3696.6	
764.74	4296.6	
764.91	5801.9	
765.09	4995.7	
765.27	3571.7	
765.45	3315.7	
765.63	5894.7	
765.8	5685.2	
765.98	3207.8	
766.16	3371.6	
766.34	4689.8	
766.52	4577.9	
766.69	4104.1	
766.87	3295.2	
767.05	5066	
767.23	5508.4	
767.41	3478.1	
767.58	3659	
767.76	5421.7	
767.94	5477	
768.12	3603.1	
768.29	4075.5	
768.47	5011.4	
768.65	5640.8	
768.83	3296.5	
769	4102.8	
769.18	4700.1	
769.36	5253.7	
769.54	4061.8	
769.72	3312.9	
769.89	5429.2	
770.07	5496.1	
770.25	3568.2	
770.43	4584.7	
770.6	6104.3	
770.78	6240.8	
770.96	3695.2	
771.14	4129.4	
771.31	5430.5	
771.49	4926	
771.67	3088.3	
771.85	3237.2	
772.02	4325.3	
772.2	4922.6	
772.38	3837.9	
772.55	3431	
772.73	5176.6	
772.91	4913.1	
773.09	3723.2	
773.26	3832.4	
773.44	5075.5	
773.62	4854.4	
773.8	3371	
773.97	3158	
774.15	5146.5	
774.33	4868	
774.5	3235.1	
774.68	3575.8	
774.86	5285.1	
775.04	4863.2	
775.21	3355.9	
775.39	3281.5	
775.57	5060.5	
775.74	5349.3	
775.92	3165.5	
776.1	3131.3	
776.27	5047.6	
776.45	5954.1	
776.63	3311.6	
776.81	2966.1	
776.98	4782	
777.16	5627.1	
777.34	3419.4	
777.51	3678.8	
777.69	4818.2	
777.87	4613.4	
778.04	3468.6	
778.22	3918.4	
778.4	4614.8	
778.57	5152.7	
778.75	2919.7	
778.93	3124.5	
779.1	4521.9	
779.28	4370.4	
779.46	2915.6	
779.64	3266.5	
779.81	5247.6	
779.99	5817.6	
780.17	3894.6	
780.34	3932.1	
780.52	4851	
780.69	4984.1	
780.87	3595.6	
781.05	3185.3	
781.22	4894.6	
781.4	4920.6	
781.58	3310.2	
781.75	2734	
781.93	4908.3	
782.11	4423.6	
782.28	3996.3	
782.46	3365.5	
782.64	4300.7	
782.81	5057.1	
782.99	3409.9	
783.17	3352.5	
783.34	4919.9	
783.52	4446.8	
783.69	3528.7	
783.87	4088.4	
784.05	4478.2	
784.22	4476.2	
784.4	4098.7	
784.58	3585.3	
784.75	5235.3	
784.93	4541	
785.1	3313.6	
785.28	3818.1	
785.46	5028.4	
785.63	4464.6	
785.81	3336.1	
785.99	3240.6	
786.16	4631.8	
786.34	4894.6	
786.51	3267.9	
786.69	3551.9	
786.87	4244.8	
787.04	4668.7	
787.22	3177.1	
787.39	3803.1	
787.57	4466.6	
787.75	5274.9	
787.92	3969.6	
788.1	3917.1	
788.27	4501.4	
788.45	4204.5	
788.63	3760.8	
788.8	2747.7	
788.98	4898.7	
789.15	4199.7	
789.33	2848.7	
789.5	3306.8	
789.68	5177.9	
789.86	5186.1	
790.03	3645.4	
790.21	3190.1	
790.38	5162.2	
790.56	4560.8	
790.73	3125.2	
790.91	3152.5	
791.09	4435.2	
791.26	5009.3	
791.44	3329.3	
791.61	2863.7	
791.79	4461.8	
791.96	4481.6	
792.14	2967.5	
792.32	2689.7	
792.49	4431.1	
792.67	4536.3	
792.84	3082.9	
793.02	2902	
793.19	4949.3	
793.37	5342.5	
793.54	2716.3	
793.72	2916.3	
793.89	5348.6	
794.07	4441.4	
794.25	3348.4	
794.42	2784.6	
794.6	5195	
794.77	4983.4	
794.95	3597.6	
795.12	3161.4	
795.3	4477.5	
795.47	4862.6	
795.65	3467.9	
795.82	3390.1	
796	4315.8	
796.17	5679.7	
796.35	3287.7	
796.52	3837.9	
796.7	4934.9	
796.87	4986.1	
797.05	3205.8	
797.22	3865.9	
797.4	4868	
797.57	5636.7	
797.75	3410.6	
797.92	3197.6	
798.1	5165	
798.27	4366.3	
798.45	2776.4	
798.62	2943.6	
798.8	4718.5	
798.97	5122	
799.15	3487	
799.32	3381.9	
799.5	4132.1	
799.67	4689.2	
799.85	3658.4	
800.02	2744.3	
800.2	4440	
800.37	4638.6	
800.55	3763.5	
800.72	3160.7	
800.9	5040.1	
801.07	5352.7	
801.25	4212	
801.42	3425.6	
801.6	5087.8	
801.77	4752	
801.95	3284.3	
802.12	3087	
802.29	4855.7	
802.47	4755.4	
802.64	3457	
802.82	2676.7	
802.99	4418.2	
803.17	5111.7	
803.34	3331.4	
803.52	3037.1	
803.69	5718.6	
803.87	4212.7	
804.04	3359.4	
804.21	3397.6	
804.39	5345.9	
804.56	4547.9	
804.74	2902	
804.91	3457.7	
805.09	4412	
805.26	4443.4	
805.44	2966.8	
805.61	3179.8	
805.78	4967	
805.96	5008	
806.13	3479.5	
806.31	3639.2	
806.48	4063.2	
806.66	4513.7	
806.83	3456.3	
807	3367.5	
807.18	4466.6	
807.35	4657.8	
807.53	3358.7	
807.7	2786.6	
807.87	5334.3	
808.05	4466.6	
808.22	3678.8	
808.4	2771.6	
808.57	4437.3	
808.74	4203.8	
808.92	3095.8	
809.09	3890.5	
809.27	4447.5	
809.44	4818.2	
809.61	2741.5	
809.79	3059	
809.96	5361.6	
810.14	4965.6	
810.31	2760	
810.48	3259	
810.66	4511.7	
810.83	5049.6	
811.01	3094.5	
811.18	3430.3	
811.35	5048.2	
811.53	4005.1	
811.7	3682.9	
811.87	3447.4	
812.05	4515.1	
812.22	4506.9	
812.39	3041.9	
812.57	2945	
812.74	4465.3	
812.92	5698.8	
813.09	3352.5	
813.26	3487	
813.44	5508.4	
813.61	4397.7	
813.78	2797.5	
813.96	3574.4	
814.13	4493.2	
814.3	4243.4	
814.48	3835.2	
814.65	3267.9	
814.82	5352.7	
815	4216.1	
815.17	3300	
815.34	3947.8	
815.52	4435.2	
815.69	4424.3	
815.87	3306.1	
816.04	3269.9	
816.21	4420.2	
816.38	4049.5	
816.56	3216.7	
816.73	2977.1	
816.9	5522	
817.08	5059.2	
817.25	3052.8	
817.42	3720.5	
817.6	4115.1	
817.77	4416.1	
817.94	3399.6	
818.12	2934.1	
818.29	4273.4	
818.46	6229.2	
818.64	3134.1	
818.81	2975.7	
818.98	4244.8	
819.16	5850.4	
819.33	3495.2	
819.5	3394.8	
819.67	4767.7	
819.85	5203.9	
820.02	3265.1	
820.19	3416	
820.37	4646.2	
820.54	4412	
820.71	3388.7	
820.88	4119.1	
821.06	4616.1	
821.23	4370.4	
821.4	3407.8	
821.58	3368.2	
821.75	4953.4	
821.92	4611.3	
822.09	2775	
822.27	2843.9	
822.44	4434.5	
822.61	4407.9	
822.79	2803	
822.96	5017.5	
823.13	4802.5	
823.3	4223.6	
823.48	3148.4	
823.65	2862.4	
823.82	5057.8	
823.99	4159.4	
824.17	3943	
824.34	2964.8	
824.51	5637.4	
824.68	4502.1	
824.86	3020.8	
825.03	3387.3	
825.2	4448.9	
825.37	5205.9	
825.55	3055.6	
825.72	3293.8	
825.89	5618.9	
826.06	5295.4	
826.24	3267.2	
826.41	3263.1	
826.58	5291.3	
826.75	4659.1	
826.92	2686.3	
827.1	2896.5	
827.27	7025.2	
827.44	5648.3	
827.61	3108.1	
827.79	3721.2	
827.96	4293.2	
828.13	4473.4	
828.3	3239.9	
828.47	2805.7	
828.65	4767	
828.82	4669.4	
828.99	4014	
829.16	3603.7	
829.34	5009.3	
829.51	4818.2	
829.68	3293.8	
829.85	3366.2	
830.02	5314.5	
830.2	5041.4	
830.37	2659.6	
830.54	3911.6	
830.71	5580	
830.88	4485.7	
831.05	2637.1	
831.23	3060.3	
831.4	5367	
831.57	5801.2	
831.74	3130.7	
831.91	2776.4	
832.09	4769.7	
832.26	4985.4	
832.43	3156.6	
832.6	3551.9	
832.77	4752.7	
832.94	5300.1	
833.12	2613.9	
833.29	3119.1	
833.46	4791.6	
833.63	6041.5	
833.8	3460.4	
833.97	3162.7	
834.15	5020.3	
834.32	4876.2	
834.49	3330.7	
834.66	3359.4	
834.83	5132.2	
835	4326	
835.17	3102	
835.35	3072.6	
835.52	4928.1	
835.69	4748.6	
835.86	3239.2	
836.03	2712.2	
836.2	5045.5	
836.37	4673.5	
836.55	3109.5	
836.72	2957.9	
836.89	4633.2	
837.06	5073.5	
837.23	3300.6	
837.4	3522.5	
837.57	5608.7	
837.75	6044.9	
837.92	2942.9	
838.09	3120.4	
838.26	4670.7	
838.43	5143.1	
838.6	3316.3	
838.77	3010.5	
838.94	5744.6	
839.11	5623	
839.29	3190.7	
839.46	2600.2	
839.63	5042.1	
839.8	4760.8	
839.97	3070.6	
840.14	3049.4	
840.31	4846.9	
840.48	4981.3	
840.65	2661	
840.82	3020.8	
841	4983.4	
841.17	4883	
841.34	2852.1	
841.51	2946.3	
841.68	4945.2	
841.85	4719.2	
842.02	2941.6	
842.19	2526.5	
842.36	4849.6	
842.53	4779.3	
842.7	2733.4	
842.87	3427.6	
843.05	6100.2	
843.22	4689.8	
843.39	2736.8	
843.56	2952.5	
843.73	4630.5	
843.9	5070.8	
844.07	4504.8	
844.24	3710.9	
844.41	6789	
844.58	4390.2	
844.75	2773.6	
844.92	2991.4	
845.09	4969.1	
845.26	4984.8	
845.43	2877.4	
845.6	2977.7	
845.77	4956.1	
845.94	4794.3	
846.12	3142.3	
846.29	3292.5	
846.46	5210.7	
846.63	4952.7	
846.8	2848	
846.97	3367.5	
847.14	5322.7	
847.31	4914.4	
847.48	3138.9	
847.65	3484.3	
847.82	5102.2	
847.99	5090.6	
848.16	3730.7	
848.33	3420.8	
848.5	4595.6	
848.67	5330.9	
848.84	2844.6	
849.01	2960	
849.18	4569.7	
849.35	4306.2	
849.52	3497.2	
849.69	2827.6	
849.86	5143.1	
850.03	5196.4	
850.2	2837.8	
850.37	3480.9	
850.54	5197.7	
850.71	4712.4	
850.88	3367.5	
851.05	2796.8	
851.22	4866.7	
851.39	5328.8	
851.56	2747.7	
851.73	3205.8	
851.9	4429.8	
852.07	5126.1	
852.24	3142.9	
852.41	2805	
852.58	4922	
852.75	4445.5	
852.92	3160	
853.09	2757.9	
853.26	4629.8	
853.43	5297.4	
853.6	2833	
853.77	2480.1	
853.94	5335.6	
854.11	4432.5	
854.28	4064.5	
854.44	2996.2	
854.61	5639.4	
854.78	5201.2	
854.95	2803	
855.12	3515	
855.29	4114.4	
855.46	5496.7	
855.63	2839.8	
855.8	3820.8	
855.97	4595.6	
856.14	5212.1	
856.31	3906.2	
856.48	3101.3	
856.65	4667.3	
856.82	4409.3	
856.99	2772.9	
857.16	3014.6	
857.33	5890.6	
857.49	4661.9	
857.66	3077.4	
857.83	3250.1	
858	4701.5	
858.17	4855.1	
858.34	2696.5	
858.51	2820.7	
858.68	5393	
858.85	5408.7	
859.02	3278.1	
859.19	3450.8	
859.36	4407.2	
859.52	4429.1	
859.69	2884.9	
859.86	3334.1	
860.03	4466.6	
860.2	5343.2	
860.37	2589.3	
860.54	2899.9	
860.71	5109	
860.88	5402.5	
861.05	3157.3	
861.21	3564.8	
861.38	5435.3	
861.55	4305.5	
861.72	2624.8	
861.89	3104	
862.06	5150	
862.23	5480.4	
862.4	2745	
862.56	2908.8	
862.73	5044.1	
862.9	4807.3	
863.07	3250.8	
863.24	2604.3	
863.41	4366.3	
863.58	4424.3	
863.75	2928.6	
863.91	3250.8	
864.08	5350	
864.25	5041.4	
864.42	3487.7	
864.59	3906.2	
864.76	5664	
864.93	4407.9	
865.09	2771.6	
865.26	3076.7	
865.43	5277.6	
865.6	5528.8	
865.77	2562.7	
865.94	2800.9	
866.1	5300.1	
866.27	5073.5	
866.44	4158.7	
866.61	2719.7	
866.78	4696.7	
866.95	5042.8	
867.11	2822.8	
867.28	2605.7	
867.45	5257.8	
867.62	4444.8	
867.79	3361.4	
867.96	2833	
868.12	4406.5	
868.29	5171.1	
868.46	2852.8	
868.63	3721.2	
868.8	5173.2	
868.97	5068	
869.13	2960.7	
869.3	2957.3	
869.47	4974.5	
869.64	5181.4	
869.81	2863.1	
869.97	2871.9	
870.14	4965	
870.31	5411.4	
870.48	2803.7	
870.65	3530.7	
870.81	4678.2	
870.98	4683	
871.15	3209.8	
871.32	2957.9	
871.48	5006.6	
871.65	5489.2	
871.82	2800.9	
871.99	3087.7	
872.16	5769.1	
872.32	5299.5	
872.49	2875.3	
872.66	2880.1	
872.83	5123.3	
872.99	4557.4	
873.16	3195.5	
873.33	2805.7	
873.5	4812	
873.67	4865.3	
873.83	2996.9	
874	3689.8	
874.17	4946.5	
874.34	5697.4	
874.5	3578.5	
874.67	3463.1	
874.84	5354.8	
875.01	4336.2	
875.17	3873.4	
875.34	2809.8	
875.51	4878.9	
875.68	5834.7	
875.84	3377.8	
876.01	4031.1	
876.18	5100.1	
876.34	4992.9	
876.51	2820.7	
876.68	2823.5	
876.85	4623.6	
877.01	5337.7	
877.18	3945.1	
877.35	2848	
877.52	4856.4	
877.68	4394.3	
877.85	2788	
878.02	2820.1	
878.18	4745.1	
878.35	4539.7	
878.52	2347	
878.69	3139.5	
878.85	5203.2	
879.02	5107	
879.19	3900	
879.35	3089.7	
879.52	4975.2	
879.69	5233.2	
879.86	2513.5	
880.02	3157.3	
880.19	4828.4	
880.36	5719.3	
880.52	3222.1	
880.69	3366.9	
880.86	5137.7	
881.02	5163.6	
881.19	3144.3	
881.36	3072	
881.52	4999.1	
881.69	4525.3	
881.86	3018.7	
882.02	3039.2	
882.19	5261.9	
882.36	6029.2	
882.52	2897.9	
882.69	3925.3	
882.86	4978.6	
883.02	4857.8	
883.19	3358	
883.36	3204.4	
883.52	5155.4	
883.69	5782.1	
883.86	2869.2	
884.02	2621.4	
884.19	5092.6	
884.36	4814.1	
884.52	3162.1	
884.69	3009.8	
884.86	4627.7	
885.02	5511.8	
885.19	3149.8	
885.36	3247.4	
885.52	4725.3	
885.69	4950.6	
885.86	3944.4	
886.02	3563.5	
886.19	5164.3	
886.35	4671.4	
886.52	3075.4	
886.69	3823.6	
886.85	4384	
887.02	5327.4	
887.19	5327.4	
887.35	5327.4	
887.52	5327.4	
887.68	5327.4	
887.85	5327.4	
888.02	5327.4	
888.18	5327.4	
888.35	5327.4	
888.51	5327.4	
888.68	5327.4	
888.85	5327.4	
889.01	5327.4	
889.18	5327.4	
889.35	5327.4	
889.51	5327.4	
889.68	5327.4	
889.84	5327.4	
890.01	5327.4	
890.17	5327.4	
890.34	5327.4	
890.51	5327.4	
890.67	5327.4	
890.84	5327.4	
891	5327.4	
891.17	5327.4	
891.34	5327.4	
891.5	5327.4	
891.67	5327.4	
891.83	5327.4	
892	5327.4	
892.16	5327.4	
892.33	5327.4	
892.5	5327.4	
892.66	5327.4	
892.83	5327.4	
892.99	5327.4	
893.16	5327.4	
893.32	5327.4	
893.49	5327.4	
893.65	5327.4	
893.82	5327.4	
893.99	5327.4	
894.15	5327.4	
894.32	5327.4	
894.48	5327.4	
894.65	5327.4	
894.81	5327.4	
894.98	5327.4	
895.14	5327.4	
895.31	5327.4	
895.47	5327.4	
895.64	5327.4	
895.81	5327.4	
895.97	5327.4	
896.14	5327.4	
896.3	5327.4	
896.47	5327.4	
896.63	5327.4	
896.8	5327.4	
896.96	5327.4	
897.13	5327.4	
897.29	5327.4	
897.46	5327.4	
897.62	5327.4	
897.79	5327.4	
897.95	5327.4	
898.12	5327.4	
898.28	5327.4	
898.45	5327.4	
898.61	5327.4	
898.78	5327.4	
898.94	5327.4	
899.11	5327.4	
899.27	5327.4	
899.44	5327.4	
899.6	5327.4	
899.77	5327.4	
899.93	5327.4	
900.1	5327.4	
900.26	5327.4	
900.43	5327.4	
900.59	5327.4	
900.76	5327.4	
900.92	5327.4	
901.09	5327.4	
901.25	5327.4	
901.42	5327.4	
901.58	5327.4	
901.75	5327.4	
901.91	5327.4	
902.07	5327.4	
902.24	5327.4	
902.4	5327.4	
902.57	5327.4	
902.73	5327.4	
902.9	5327.4	
903.06	5327.4	
903.23	5327.4	
903.39	5327.4	
903.56	5327.4	
903.72	5327.4	
903.88	5327.4	
904.05	5327.4	
904.21	5327.4	
904.38	5327.4	
904.54	5327.4	
904.71	5327.4	
904.87	5327.4	
905.03	5327.4	
905.2	5327.4	
905.36	5327.4	
905.53	5327.4	
905.69	5327.4	
905.86	5327.4	
906.02	5327.4	
906.18	5327.4	
906.35	5327.4	
906.51	5327.4	
906.68	5327.4	
906.84	5327.4	
907.01	5327.4	
907.17	5327.4	
907.33	5327.4	
907.5	5327.4	
907.66	5327.4	
907.83	5327.4	
907.99	5327.4	
908.15	5327.4	
908.32	5327.4	
908.48	5327.4	
908.65	5327.4	
908.81	5327.4	
908.97	5327.4	
909.14	5327.4	
909.3	5327.4	
909.47	5327.4	
909.63	5327.4	
909.79	5327.4	
909.96	5327.4	
910.12	5327.4	
910.28	5327.4	
910.45	5327.4	
910.61	5327.4	
910.78	5327.4	
910.94	5327.4	
911.1	5327.4	
911.27	5327.4	
911.43	5327.4	
911.59	5327.4	
911.76	5327.4	
911.92	5327.4	
912.08	5327.4	
912.25	5327.4	
912.41	5327.4	
912.57	5327.4	
912.74	5327.4	
912.9	5327.4	
913.07	5327.4	
913.23	5327.4	
913.39	5327.4	
913.56	5327.4	
913.72	5327.4	
913.88	5327.4	
914.05	5327.4	
914.21	5327.4	
914.37	5327.4	
914.54	5327.4	
914.7	5327.4	
914.86	5327.4	
915.03	5327.4	
915.19	5327.4	
