Wavelength	Intensities	
nm	a.u.	
179.22	1927.1	
179.44	1916.9	
179.65	1937.4	
179.86	1896.4	
180.08	1925.1	
180.29	4986.8	
180.51	3569.6	
180.72	5692	
180.94	6669.6	
181.15	3293.8	
181.37	3222.8	
181.58	5575.9	
181.79	5804.6	
182.01	3431	
182.22	3710.9	
182.44	5793.7	
182.65	4832.5	
182.87	4652.3	
183.08	4048.8	
183.29	6070.9	
183.51	5003.9	
183.72	3702	
183.94	5435.3	
184.15	5359.5	
184.37	5498.1	
184.58	3212.6	
184.79	4457.7	
185.01	4978.6	
185.22	5795.1	
185.44	4783.4	
185.65	3973.1	
185.86	5341.8	
186.08	4956.8	
186.29	3177.8	
186.51	3419.4	
186.72	5057.1	
186.94	6042.9	
187.15	3956.7	
187.36	4011.3	
187.58	7823.9	
187.79	5582.8	
188.01	4303.5	
188.22	6670.9	
188.43	6701	
188.65	5796.4	
188.86	3403.7	
189.08	4075.5	
189.29	5263.3	
189.5	5231.9	
189.72	3790.8	
189.93	3839.3	
190.15	5981.4	
190.36	7158.3	
190.57	4177.2	
190.79	4039.3	
191	6156.2	
191.22	6080.4	
191.43	4136.9	
191.64	3370.3	
191.86	6330.3	
192.07	6059.9	
192.29	3557.3	
192.5	3839.3	
192.71	6079.7	
192.93	5140.4	
193.14	3759.4	
193.35	3781.2	
193.57	5176.6	
193.78	6010.1	
194	3024.8	
194.21	3695.2	
194.42	5019.6	
194.64	5440.1	
194.85	4023.6	
195.07	4812.7	
195.28	5507	
195.49	4786.8	
195.71	5025	
195.92	3513.6	
196.13	5696.1	
196.35	5737	
196.56	5424.4	
196.78	4111	
196.99	7090.8	
197.2	6650.4	
197.42	4718.5	
197.63	4139.6	
197.84	4835.3	
198.06	5659.9	
198.27	3801.7	
198.48	5031.9	
198.7	5219.6	
198.91	5303.6	
199.13	4113	
199.34	4129.4	
199.55	5885.2	
199.77	4729.4	
199.98	3582.6	
200.19	4176.5	
200.41	5286.5	
200.62	5083.1	
200.83	4342.4	
201.05	4661.9	
201.26	5330.2	
201.47	5127.4	
201.69	3648.1	
201.9	3489.1	
202.11	5436	
202.33	6479.1	
202.54	3846.8	
202.76	4323.9	
202.97	5591.6	
203.18	5568.4	
203.4	4280.9	
203.61	4203.1	
203.82	5511.8	
204.04	5091.9	
204.25	4191.5	
204.46	4072.7	
204.68	5491.3	
204.89	5725.4	
205.1	4078.2	
205.32	3520.5	
205.53	5868.8	
205.74	5982.8	
205.96	2951.8	
206.17	4214	
206.38	5845.6	
206.6	5969.8	
206.81	4663.2	
207.02	3864.5	
207.24	5751.4	
207.45	6206.7	
207.66	3969	
207.88	3370.3	
208.09	5664.7	
208.3	5494.7	
208.52	3611.9	
208.73	3924.6	
208.94	5474.2	
209.15	6256.5	
209.37	3975.8	
209.58	4114.4	
209.79	5984.2	
210.01	5274.2	
210.22	3115.6	
210.43	3233.1	
210.65	5488.6	
210.86	5930.9	
211.07	3979.2	
211.29	3598.3	
211.5	5808	
211.71	5377.3	
211.93	3512.3	
212.14	3582.6	
212.35	5374.6	
212.56	5680.4	
212.78	4132.1	
212.99	3405.1	
213.2	6465.4	
213.42	5259.2	
213.63	3715.7	
213.84	3970.3	
214.06	4857.8	
214.27	4939.7	
214.48	3929.4	
214.69	4176.5	
214.91	6166.4	
215.12	6223.1	
215.33	4250.2	
215.55	4669.4	
215.76	6769.2	
215.97	5906.3	
216.18	4048.8	
216.4	3915	
216.61	5123.3	
216.82	6003.3	
217.04	3573	
217.25	3765.5	
217.46	6153.5	
217.67	5870.2	
217.89	3196.2	
218.1	3323.9	
218.31	5547.3	
218.53	5644.2	
218.74	3749.1	
218.95	3702.7	
219.16	5379.3	
219.38	6463.4	
219.59	3698.6	
219.8	4421.6	
220.01	7036.8	
220.23	5468.1	
220.44	4915.1	
220.65	3623.5	
220.87	5490.6	
221.08	6160.3	
221.29	3287.7	
221.5	4527.4	
221.72	7520.8	
221.93	5201.2	
222.14	4191.5	
222.35	4900.1	
222.57	5554.8	
222.78	5847.6	
222.99	3918.4	
223.2	4265.9	
223.42	5782.8	
223.63	5969.8	
223.84	3011.2	
224.05	3024.8	
224.27	7085.3	
224.48	6505.7	
224.69	4875.5	
224.9	4147.8	
225.12	5700.2	
225.33	5446.9	
225.54	3243.3	
225.75	3700	
225.97	5063.9	
226.18	5311.1	
226.39	3983.3	
226.6	3682.2	
226.82	5198.4	
227.03	5027.8	
227.24	4175.1	
227.45	3419.4	
227.67	5806.7	
227.88	6455.2	
228.09	4535.6	
228.3	4618.2	
228.52	5898.8	
228.73	5425.8	
228.94	3870.7	
229.15	3414.6	
229.36	5412.8	
229.58	5231.2	
229.79	3855	
230	4538.3	
230.21	6470.9	
230.43	5562.3	
230.64	4041.3	
230.85	4263.9	
231.06	5825.1	
231.28	5912.5	
231.49	3348.4	
231.7	4058.4	
231.91	5806.7	
232.12	5472.9	
232.34	3519.8	
232.55	4002.4	
232.76	6150.1	
232.97	5707.7	
233.18	3590.1	
233.4	4077.5	
233.61	5719.3	
233.82	5336.3	
234.03	3814.7	
234.25	3689.1	
234.46	7591.8	
234.67	5527.5	
234.88	4225.6	
235.09	3684.3	
235.31	5782.8	
235.52	5366.4	
235.73	4083.6	
235.94	3471.3	
236.15	5196.4	
236.37	6681.2	
236.58	3628.3	
236.79	3976.5	
237	5765	
237.21	4988.2	
237.43	4260.5	
237.64	3327.3	
237.85	9972.2	
238.06	5023.7	
238.27	4360.8	
238.48	3409.2	
238.7	5820.3	
238.91	5320.6	
239.12	3938.2	
239.33	3963.5	
239.54	5070.8	
239.76	5362.9	
239.97	3930.1	
240.18	3913	
240.39	6912.6	
240.6	5827.8	
240.82	4084.3	
241.03	3372.3	
241.24	5394.3	
241.45	6349.4	
241.66	3549.1	
241.87	4333.5	
242.09	6189	
242.3	6595.1	
242.51	4304.8	
242.72	3954.6	
242.93	5909.8	
243.14	5444.2	
243.36	4590.9	
243.57	4971.1	
243.78	6333.7	
243.99	5831.2	
244.2	3945.1	
244.41	3644	
244.63	5020.9	
244.84	5781.4	
245.05	4179.2	
245.26	3947.1	
245.47	5765.7	
245.68	6047	
245.9	5268.1	
246.11	4188.1	
246.32	5356.1	
246.53	5717.2	
246.74	6450.4	
246.95	3269.2	
247.16	4910.3	
247.38	5458.5	
247.59	3297.9	
247.8	3976.5	
248.01	5156.1	
248.22	5394.3	
248.43	3605.1	
248.64	3866.6	
248.86	4851.6	
249.07	5234.6	
249.28	3429.7	
249.49	4067.9	
249.7	6025.8	
249.91	6173.9	
250.12	3278.8	
250.34	3339.6	
250.55	5612.1	
250.76	5455.8	
250.97	4129.4	
251.18	4149.9	
251.39	6168.5	
251.6	5726.8	
251.81	4155.3	
252.03	4161.5	
252.24	5221	
252.45	5985.5	
252.66	3444.7	
252.87	4436.6	
253.08	5451	
253.29	7326.3	
253.5	3459	
253.72	4790.2	
253.93	5340.4	
254.14	6495.5	
254.35	3766.2	
254.56	3864.5	
254.77	5705.6	
254.98	5064.6	
255.19	3705.5	
255.41	4804.5	
255.62	5542.5	
255.83	6164.4	
256.04	4274.1	
256.25	4158.1	
256.46	6510.5	
256.67	5214.8	
256.88	4050.2	
257.09	4557.4	
257.31	5134.9	
257.52	5136.3	
257.73	5098.8	
257.94	3751.2	
258.15	5327.4	
258.36	5463.3	
258.57	4751.3	
258.78	2982.5	
258.99	5984.8	
259.2	5298.8	
259.41	3793.5	
259.63	3902.7	
259.84	6350.1	
260.05	6854.6	
260.26	5053	
260.47	3642.7	
260.68	6070.9	
260.89	5291.3	
261.1	4553.3	
261.31	3609.9	
261.52	6057.2	
261.73	6379.4	
261.95	4881	
262.16	4216.1	
262.37	6176	
262.58	6344.6	
262.79	4862.6	
263	3823.6	
263.21	5499.5	
263.42	4962.9	
263.63	3827	
263.84	3796.3	
264.05	6024.4	
264.26	6427.2	
264.47	4696.7	
264.69	4099.4	
264.9	6202.6	
265.11	5699.5	
265.32	3688.4	
265.53	3715.7	
265.74	5665.4	
265.95	4883	
266.16	4008.6	
266.37	4433.9	
266.58	5560.2	
266.79	5317.9	
267	3692.5	
267.21	3475.4	
267.42	5027.8	
267.63	5489.9	
267.84	3957.4	
268.06	3382.6	
268.27	5922.7	
268.48	6238.8	
268.69	3840.6	
268.9	4576.5	
269.11	6148.7	
269.32	4941.7	
269.53	3979.9	
269.74	3668.6	
269.95	5803.3	
270.16	4760.2	
270.37	3999	
270.58	4639.3	
270.79	5313.1	
271	5982.8	
271.21	4252.3	
271.42	4031.8	
271.63	5604.6	
271.84	5116.5	
272.05	3162.7	
272.26	3611.3	
272.47	5497.4	
272.68	5662	
272.89	3697.9	
273.11	4413.4	
273.32	5243.5	
273.53	6461.3	
273.74	4277.5	
273.95	4178.5	
274.16	6137.8	
274.37	5553.4	
274.58	4346.5	
274.79	3442.6	
275	5581.4	
275.21	6165.1	
275.42	5185.5	
275.63	4457.1	
275.84	5707	
276.05	7288	
276.26	4140.3	
276.47	3962.1	
276.68	5343.2	
276.89	6487.3	
277.1	4481.6	
277.31	3449.5	
277.52	5776.6	
277.73	5902.9	
277.94	3457.7	
278.15	3802.4	
278.36	5707.7	
278.57	5144.5	
278.78	3779.2	
278.99	4205.2	
279.2	5105.6	
279.41	5094.7	
279.62	4975.9	
279.83	3484.3	
280.04	6752.2	
280.25	5008.6	
280.46	4968.4	
280.67	3920.5	
280.88	5112.4	
281.09	6092	
281.3	4126.7	
281.51	5245.5	
281.72	5184.8	
281.93	6026.5	
282.14	3693.2	
282.35	3994.9	
282.56	5971.2	
282.77	5978	
282.98	3831.7	
283.19	4692.6	
283.4	7376.1	
283.61	5414.8	
283.82	3418.1	
284.03	4939.7	
284.24	5593.7	
284.45	6171.9	
284.66	4947.9	
284.87	4768.4	
285.08	6085.9	
285.29	6225.8	
285.5	3334.8	
285.71	3884.3	
285.92	6147.3	
286.12	6801.3	
286.33	4832.5	
286.54	3835.8	
286.75	6023.8	
286.96	5320.6	
287.17	3482.9	
287.38	4790.9	
287.59	5105.6	
287.8	5012.1	
288.01	3905.5	
288.22	4441.4	
288.43	5995.1	
288.64	4982.7	
288.85	4615.4	
289.06	4351.3	
289.27	5949.3	
289.48	6391	
289.69	4878.3	
289.9	4439.3	
290.11	6111.8	
290.32	5200.5	
290.53	4692.6	
290.74	4301.4	
290.94	5855.8	
291.15	5967.8	
291.36	3691.1	
291.57	4426.3	
291.78	5203.9	
291.99	4849.6	
292.2	3551.2	
292.41	4292.5	
292.62	6046.3	
292.83	5829.9	
293.04	5342.5	
293.25	3566.9	
293.46	5231.2	
293.67	6094.1	
293.88	3708.2	
294.09	3566.2	
294.29	5025	
294.5	5626.5	
294.71	4002.4	
294.92	3810.6	
295.13	5227.1	
295.34	6623.8	
295.55	3286.3	
295.76	3431	
295.97	5920.7	
296.18	6742.6	
296.39	3500.7	
296.6	3767.6	
296.81	5558.2	
297.01	5936.4	
297.22	3837.2	
297.43	3650.8	
297.64	5088.5	
297.85	5158.8	
298.06	3003	
298.27	3306.1	
298.48	5520.6	
298.69	5157.5	
298.9	3966.9	
299.11	3609.9	
299.31	4974.5	
299.52	5006.6	
299.73	4384	
299.94	4179.9	
300.15	5485.8	
300.36	5111.7	
300.57	4237.2	
300.78	4241.3	
300.99	5406	
301.2	5610.1	
301.4	3680.9	
301.61	4002.4	
301.82	5795.8	
302.03	5911.1	
302.24	4510.3	
302.45	3560.1	
302.66	5801.9	
302.87	6253.1	
303.08	3687	
303.29	5089.2	
303.49	5196.4	
303.7	5528.2	
303.91	3292.5	
304.12	4840	
304.33	5008.6	
304.54	5533.6	
304.75	3732.8	
304.96	3555.3	
305.16	5857.2	
305.37	6599.2	
305.58	3258.3	
305.79	3384.6	
306	5822.4	
306.21	4891.9	
306.42	3632.4	
306.63	5740.5	
306.83	5369.1	
307.04	6066.1	
307.25	4091.8	
307.46	4065.9	
307.67	4679.6	
307.88	6006.7	
308.09	3638.6	
308.29	3790.8	
308.5	5559.6	
308.71	6132.3	
308.92	3951.9	
309.13	3543.7	
309.34	5417.6	
309.55	5377.3	
309.75	4655.7	
309.96	4284.4	
310.17	5919.3	
310.38	5202.5	
310.59	4498.7	
310.8	3476.8	
311.01	6613.6	
311.21	5339.1	
311.42	3522.5	
311.63	3673.4	
311.84	5236	
312.05	5651	
312.26	4164.9	
312.46	4498.7	
312.67	5283.1	
312.88	4992.9	
313.09	3614	
313.3	3516.4	
313.51	6314.6	
313.71	6688.7	
313.92	3547.8	
314.13	3824.2	
314.34	5628.5	
314.55	5378	
314.76	4601.1	
314.96	4046.1	
315.17	5522	
315.38	5951.4	
315.59	3618.8	
315.8	3406.5	
316.01	6460	
316.21	6466.1	
316.42	3457	
316.63	3977.8	
316.84	5375.2	
317.05	6191	
317.26	4252.3	
317.46	3820.8	
317.67	5397.8	
317.88	5866.7	
318.09	4605.9	
318.3	3319.8	
318.5	5208.7	
318.71	5793	
318.92	5889.3	
319.13	4252.3	
319.34	6036	
319.54	6158.2	
319.75	3321.1	
319.96	3194.8	
320.17	5891.3	
320.38	6102.3	
320.58	3300	
320.79	3964.2	
321	6108.4	
321.21	6253.8	
321.42	3964.2	
321.62	3266.5	
321.83	5062.6	
322.04	5507.7	
322.25	3831.7	
322.46	3616	
322.66	5597.1	
322.87	5760.3	
323.08	4464.6	
323.29	3543.7	
323.5	6619	
323.7	5025	
323.91	4923.3	
324.12	4437.3	
324.33	5459.9	
324.53	5789.6	
324.74	4194.9	
324.95	4430.4	
325.16	4872.1	
325.37	5283.8	
325.57	3586.7	
325.78	3654.3	
325.99	5562.3	
326.2	4994.3	
326.4	5098.1	
326.61	3343.7	
326.82	5435.3	
327.03	5545.2	
327.24	5111	
327.44	4883	
327.65	5751.4	
327.86	4638	
328.07	4254.3	
328.27	3461.7	
328.48	6182.1	
328.69	5018.9	
328.9	5188.2	
329.1	3905.5	
329.31	5415.5	
329.52	6351.4	
329.73	3639.2	
329.93	4033.1	
330.14	5453.1	
330.35	5732.3	
330.56	5927.5	
330.76	4525.3	
330.97	5313.8	
331.18	5722.7	
331.39	4036.5	
331.59	3212.6	
331.8	6111.1	
332.01	6309.8	
332.22	3731.4	
332.42	4245.4	
332.63	5617.6	
332.84	5195.7	
333.05	4025.6	
333.25	3708.2	
333.46	5286.5	
333.67	5507	
333.88	3745.7	
334.08	4191.5	
334.29	7408.2	
334.5	6158.2	
334.7	3480.9	
334.91	5158.2	
335.12	5033.9	
335.33	5932.3	
335.53	3989.4	
335.74	5898.1	
335.95	5276.9	
336.16	5100.1	
336.36	4011.3	
336.57	4555.4	
336.78	4965.6	
336.98	6085.2	
337.19	4930.1	
337.4	3893.9	
337.61	6715.3	
337.81	5036	
338.02	3650.8	
338.23	4732.2	
338.43	6260	
338.64	5141.8	
338.85	3643.3	
339.05	4740.4	
339.26	6399.2	
339.47	4908.3	
339.68	3553.9	
339.88	5427.1	
340.09	5748.6	
340.3	5937.7	
340.5	4233.8	
340.71	3198.2	
340.92	4950.6	
341.13	6249.7	
341.33	3491.1	
341.54	4228.4	
341.75	5780.1	
341.95	5354.1	
342.16	4052.9	
342.37	4350.6	
342.57	5063.9	
342.78	5415.5	
342.99	4490.5	
343.19	3201	
343.4	5877.7	
343.61	5741.8	
343.81	3786.7	
344.02	3487	
344.23	5876.3	
344.43	6348	
344.64	4471.4	
344.85	4392.9	
345.06	5773.2	
345.26	6144.6	
345.47	4197	
345.68	4887.1	
345.88	4807.9	
346.09	5968.5	
346.3	4234.5	
346.5	3203	
346.71	5470.8	
346.92	5162.2	
347.12	3268.6	
347.33	4177.9	
347.54	5986.9	
347.74	6537.1	
347.95	4107.5	
348.16	3054.2	
348.36	5309	
348.57	4982.7	
348.78	4123.2	
348.98	4455	
349.19	5453.7	
349.39	4969.7	
349.6	3302.7	
349.81	3665.9	
350.01	5761.6	
350.22	5220.3	
350.43	3941.7	
350.63	4803.9	
350.84	5487.9	
351.05	5240.1	
351.25	3647.4	
351.46	3212.6	
351.67	6066.1	
351.87	5175.2	
352.08	3850.9	
352.29	4369	
352.49	5876.3	
352.7	5649	
352.9	3486.3	
353.11	4367.6	
353.32	6658.6	
353.52	5316.5	
353.73	3450.8	
353.94	4401.1	
354.14	5816.2	
354.35	5631.2	
354.55	3538.9	
354.76	3979.9	
354.97	5755.5	
355.17	5532.9	
355.38	3340.9	
355.59	4739.7	
355.79	5167.7	
356	5599.8	
356.2	3876.8	
356.41	3445.4	
356.62	4868.7	
356.82	5410.1	
357.03	4160.1	
357.24	3795.6	
357.44	5177.3	
357.65	5286.5	
357.85	5055.8	
358.06	3935.5	
358.27	4850.3	
358.47	5137	
358.68	3317.7	
358.88	4192.2	
359.09	5712.5	
359.3	6060.6	
359.5	4922	
359.71	4343.7	
359.91	6619.7	
360.12	5862.7	
360.33	4179.2	
360.53	4684.4	
360.74	5113.1	
360.94	5232.6	
361.15	4390.2	
361.36	3600.3	
361.56	5936.4	
361.77	5347.9	
361.97	4865.3	
362.18	3851.5	
362.38	5963	
362.59	4928.8	
362.8	3529.3	
363	3331.4	
363.21	4722.6	
363.41	5467.4	
363.62	4083	
363.83	5096	
364.03	5549.3	
364.24	6531	
364.44	5228.5	
364.65	5150.6	
364.85	5279	
365.06	5171.8	
365.27	3708.9	
365.47	3688.4	
365.68	6310.5	
365.88	5255.1	
366.09	4108.2	
366.29	3837.2	
366.5	5555.5	
366.71	6008.7	
366.91	5122.7	
367.12	4312.3	
367.32	6506.4	
367.53	5864	
367.73	4225.6	
367.94	5177.3	
368.14	5757.5	
368.35	6699.6	
368.56	4182.6	
368.76	3490.4	
368.97	5905.7	
369.17	7706.5	
369.38	3672	
369.58	4035.9	
369.79	4950.6	
369.99	6244.3	
370.2	4962.9	
370.4	4069.3	
370.61	5575.9	
370.82	6832	
371.02	3984.7	
371.23	3244.7	
371.43	4822.3	
371.64	6171.2	
371.84	3995.6	
372.05	5269.4	
372.25	7494.2	
372.46	5879.7	
372.66	3970.3	
372.87	3900	
373.07	5933.6	
373.28	7572	
373.48	4992.9	
373.69	4666	
373.9	5333.6	
374.1	5371.1	
374.31	4895.3	
374.51	4410	
374.72	6281.8	
374.92	5070.8	
375.13	5074.9	
375.33	4229.7	
375.54	5754.1	
375.74	5233.9	
375.95	4285.7	
376.15	5661.3	
376.36	5736.4	
376.56	5618.3	
376.77	4338.3	
376.97	4771.1	
377.18	6842.9	
377.38	5819	
377.59	5141.8	
377.79	3820.1	
378	5653.1	
378.2	6115.2	
378.41	3898	
378.61	3803.1	
378.82	6204.7	
379.02	5137	
379.23	4050.9	
379.43	5219.6	
379.64	6152.1	
379.84	5765.7	
380.05	3891.8	
380.25	3821.5	
380.46	5933	
380.66	5462.6	
380.87	5270.8	
381.07	5583.4	
381.28	6467.5	
381.48	5920.7	
381.69	3920.5	
381.89	3952.6	
382.1	4875.5	
382.3	6113.2	
382.51	5023	
382.71	5963.7	
382.91	6016.9	
383.12	6505	
383.32	4277.5	
383.53	4524.6	
383.73	5804.6	
383.94	5563.6	
384.14	4349.9	
384.35	3562.8	
384.55	5483.8	
384.76	5971.9	
384.96	4286.4	
385.17	4627	
385.37	5921.4	
385.58	5188.9	
385.78	4724	
385.98	3409.9	
386.19	5391.6	
386.39	5834	
386.6	4040	
386.8	4299.4	
387.01	5907.7	
387.21	5956.2	
387.42	4732.9	
387.62	5291.3	
387.83	5213.4	
388.03	5855.8	
388.23	4324.6	
388.44	5174.5	
388.64	5020.9	
388.85	5074.2	
389.05	4705.5	
389.26	5377.3	
389.46	6905.8	
389.67	6376.7	
389.87	4640.7	
390.07	4722.6	
390.28	5552.7	
390.48	5144.5	
390.69	3851.5	
390.89	4238.6	
391.1	5247.6	
391.3	6233.3	
391.5	5434.6	
391.71	6012.2	
391.91	6004	
392.12	6999.3	
392.32	5467.4	
392.53	4650.3	
392.73	5378.6	
392.93	5586.2	
393.14	4313	
393.34	5229.1	
393.55	6145.3	
393.75	5511.1	
393.95	4392.2	
394.16	4317.1	
394.36	5255.8	
394.57	6042.2	
394.77	3822.9	
394.98	4270	
395.18	5245.5	
395.38	5383.4	
395.59	5137	
395.79	4057.7	
396	5400.5	
396.2	5890.6	
396.4	5036.6	
396.61	4885.8	
396.81	6125.5	
397.02	5311.1	
397.22	5184.8	
397.42	5242.8	
397.63	6062.7	
397.83	5256.5	
398.04	4012.7	
398.24	4534.2	
398.44	5923.4	
398.65	4851	
398.85	3850.9	
399.05	3948.5	
399.26	5253	
399.46	7040.2	
399.67	4404.5	
399.87	4065.9	
400.07	5563.6	
400.28	6024.4	
400.48	4199	
400.69	5230.5	
400.89	6230.6	
401.09	6649.8	
401.3	4020.2	
401.5	5251.7	
401.7	6858	
401.91	7161.1	
402.11	4401.1	
402.32	4674.1	
402.52	6139.8	
402.72	6144.6	
402.93	4815.5	
403.13	3705.5	
403.33	6987.7	
403.54	5678.3	
403.74	4524	
403.94	5466.7	
404.15	5809.4	
404.35	6995.9	
404.56	4261.1	
404.76	6225.1	
404.96	6231.3	
405.17	5972.6	
405.37	5889.3	
405.57	4831.8	
405.78	6236.7	
405.98	5699.5	
406.18	4367	
406.39	5280.3	
406.59	6255.2	
406.79	5846.3	
407	4188.8	
407.2	4382.7	
407.4	6260	
407.61	6442.2	
407.81	4246.8	
408.01	6307.7	
408.22	5139	
408.42	7321.5	
408.62	5339.1	
408.83	4781.3	
409.03	5782.8	
409.23	5573.9	
409.44	4862.6	
409.64	5182	
409.84	6757.6	
410.05	6587	
410.25	4973.8	
410.45	4789.5	
410.66	6006.7	
410.86	8624	
411.06	5152	
411.27	5048.2	
411.47	8322.9	
411.67	6335.7	
411.88	5238.7	
412.08	5566.4	
412.28	6830	
412.49	7422.5	
412.69	5029.1	
412.89	5095.3	
413.09	7266.9	
413.3	7075.7	
413.5	5084.4	
413.7	4648.9	
413.91	6289.3	
414.11	7157	
414.31	4943.8	
414.52	5362.9	
414.72	6881.9	
414.92	6741.9	
415.12	4989.5	
415.33	5496.7	
415.53	7191.8	
415.73	7314.7	
415.94	5912.5	
416.14	5295.4	
416.34	6139.8	
416.55	5849.7	
416.75	6560.3	
416.95	5973.9	
417.15	7194.5	
417.36	7920.2	
417.56	6612.9	
417.76	5782.8	
417.97	7477.1	
418.17	7234.1	
418.37	5316.5	
418.57	5378.6	
418.78	6864.8	
418.98	6638.8	
419.18	6283.9	
419.38	6176	
419.59	6708.5	
419.79	6329.6	
419.99	5247.6	
420.2	5664	
420.4	7144	
420.6	7402	
420.8	5144.5	
421.01	5059.8	
421.21	6977.4	
421.41	7178.8	
421.61	5604.6	
421.82	5245.5	
422.02	6475.7	
422.22	7447.8	
422.42	5968.5	
422.63	5744.6	
422.83	6657.9	
423.03	7926.3	
423.23	5749.3	
423.44	4700.1	
423.64	6722.8	
423.84	6486.6	
424.04	5133.6	
424.25	4863.9	
424.45	7724.3	
424.65	7621.9	
424.85	4592.2	
425.06	5138.4	
425.26	7637.6	
425.46	6578.1	
425.66	5722.7	
425.87	5356.8	
426.07	7419.8	
426.27	7294.2	
426.47	5516.5	
426.67	4926	
426.88	7817.1	
427.08	7256	
427.28	5807.4	
427.48	4862.6	
427.69	6075.6	
427.89	6731	
428.09	5779.4	
428.29	4905.6	
428.5	7433.4	
428.7	6972	
428.9	4761.5	
429.1	5365	
429.3	6826.6	
429.51	7307.8	
429.71	5125.4	
429.91	5908.4	
430.11	7114.6	
430.31	7393.8	
430.52	5446.9	
430.72	5727.5	
430.92	7772.7	
431.12	7247.1	
431.32	5111.7	
431.53	5544.5	
431.73	6086.6	
431.93	7867.6	
432.13	5030.5	
432.33	4868.7	
432.54	6563.7	
432.74	7048.4	
432.94	4804.5	
433.14	5945.3	
433.34	7158.3	
433.55	6582.2	
433.75	5847.6	
433.95	7603.4	
434.15	6935.8	
434.35	6613.6	
434.56	5098.8	
434.76	4486.4	
434.96	6892.8	
435.16	7165.8	
435.36	4926.7	
435.56	6006	
435.77	6509.8	
435.97	6709.8	
436.17	6698.9	
436.37	6000.5	
436.57	6531	
436.78	6402.6	
436.98	5880.4	
437.18	6619.7	
437.38	7175.4	
437.58	6709.1	
437.78	6771.9	
437.99	5330.9	
438.19	7271	
438.39	8834.9	
438.59	5276.3	
438.79	4754.7	
438.99	7955	
439.2	6668.9	
439.4	4938.3	
439.6	4909	
439.8	7074.4	
440	8125.7	
440.2	5975.3	
440.4	6094.1	
440.61	7483.3	
440.81	8022.6	
441.01	5097.4	
441.21	6077	
441.41	7872.4	
441.61	7562.5	
441.81	6309.8	
442.02	7455.3	
442.22	8426.7	
442.42	7591.1	
442.62	5210	
442.82	5239.4	
443.02	7940.7	
443.22	6935.8	
443.43	5618.3	
443.63	5286.5	
443.83	6789	
444.03	6909.8	
444.23	6481.1	
444.43	6011.5	
444.63	7098.9	
444.83	8445.1	
445.04	5292	
445.24	6595.8	
445.44	7534.5	
445.64	7648.5	
445.84	6120.7	
446.04	6092	
446.24	6884.6	
446.44	7892.2	
446.65	5352.7	
446.85	5707.7	
447.05	7234.8	
447.25	7864.9	
447.45	5775.3	
447.65	5111.7	
447.85	7167.9	
448.05	6803.4	
448.25	6217	
448.46	6111.1	
448.66	7191.8	
448.86	6881.9	
449.06	5032.5	
449.26	6151.4	
449.46	7581.6	
449.66	6633.4	
449.86	5730.9	
450.06	5715.9	
450.26	6766.5	
450.47	7450.5	
450.67	6014.9	
450.87	6357.6	
451.07	7496.2	
451.27	7288.7	
451.47	5233.9	
451.67	5803.9	
451.87	6881.2	
452.07	8082.6	
452.27	5477.6	
452.47	5536.3	
452.67	7240.3	
452.88	7915.4	
453.08	4896.7	
453.28	6982.2	
453.48	8503.2	
453.68	7205.4	
453.88	5386.2	
454.08	5625.8	
454.28	7658.7	
454.48	7256	
454.68	6191.7	
454.88	6756.9	
455.08	7652.6	
455.28	7393.8	
455.48	5304.2	
455.68	5962.3	
455.89	8198.7	
456.09	7840.3	
456.29	5709.1	
456.49	5773.9	
456.69	8079.2	
456.89	7274.4	
457.09	6256.5	
457.29	6645	
457.49	7664.2	
457.69	7789.1	
457.89	6079.1	
458.09	5513.8	
458.29	7450.5	
458.49	8188.5	
458.69	6475.7	
458.89	5931.6	
459.09	8366	
459.29	8576.2	
459.49	6001.2	
459.69	6849.1	
459.9	7949.5	
460.1	7445	
460.3	5922.7	
460.5	5721.3	
460.7	7935.2	
460.9	7656.7	
461.1	5368.4	
461.3	6675.7	
461.5	8594	
461.7	8172.8	
461.9	5767.1	
462.1	6324.1	
462.3	7669.6	
462.5	8271.1	
462.7	5836.7	
462.9	5976	
463.1	9341.5	
463.3	9022.7	
463.5	6126.8	
463.7	7170.6	
463.9	7864.2	
464.1	8286.1	
464.3	6270.9	
464.5	6536.4	
464.7	8503.2	
464.9	8146.8	
465.1	7975.5	
465.3	6934.4	
465.5	8967.4	
465.7	8822.6	
465.9	7158.3	
466.1	7077.1	
466.3	8769.4	
466.5	8519.6	
466.7	7970.7	
466.9	6839.5	
467.1	8430.8	
467.3	9596.8	
467.5	7858.7	
467.7	6598.6	
467.9	9735.4	
468.1	10623	
468.3	7549.5	
468.5	7942.7	
468.7	8439.7	
468.9	8513.4	
469.1	7043.6	
469.3	7733.1	
469.5	10434	
469.7	7978.9	
469.9	7476.5	
470.1	6772.6	
470.3	8462.2	
470.5	8511.4	
470.7	8028.7	
470.9	6855.2	
471.1	8261.5	
471.3	8707.3	
471.5	6636.1	
471.69	8670.4	
471.89	8144.1	
472.09	7615.7	
472.29	7500.3	
472.49	7966.6	
472.69	7902.4	
472.89	8783.1	
473.09	6588.3	
473.29	6755.6	
473.49	8133.8	
473.69	8254.7	
473.89	7701	
474.09	6891.4	
474.29	9582.4	
474.49	9185.1	
474.69	7682.6	
474.89	6955.6	
475.09	8356.4	
475.29	8193.9	
475.49	6408.8	
475.69	6710.5	
475.88	9873.3	
476.08	8499.1	
476.28	6441.5	
476.48	6883.9	
476.68	8991.3	
476.88	8904.6	
477.08	6690	
477.28	7018.4	
477.48	8284	
477.68	9052	
477.88	6510.5	
478.08	6819.1	
478.28	9371.5	
478.48	8490.9	
478.67	6779.5	
478.87	6298.2	
479.07	9103.9	
479.27	8531.8	
479.47	7176.1	
479.67	7096.9	
479.87	8993.3	
480.07	9501.9	
480.27	6277	
480.47	8001.4	
480.67	8626	
480.87	9360.6	
481.06	6611.5	
481.26	7509.9	
481.46	8540	
481.66	8527.7	
481.86	7117.4	
482.06	8208.3	
482.26	8207.6	
482.46	9321.7	
482.66	7064.8	
482.86	6649.8	
483.05	8601.5	
483.25	8019.2	
483.45	9548.3	
483.65	7124.2	
483.85	8169.3	
484.05	8592.6	
484.25	7542	
484.45	8097	
484.65	9482.1	
484.84	9430.2	
485.04	7040.2	
485.24	7066.2	
485.44	9720.3	
485.64	7948.8	
485.84	6265.4	
486.04	7751.6	
486.24	8407.6	
486.44	8805.6	
486.63	6273.6	
486.83	7067.5	
487.03	8289.5	
487.23	8552.3	
487.43	6507.8	
487.63	8917.5	
487.83	8571.4	
488.02	9667.1	
488.22	7484	
488.42	8069	
488.62	9436.4	
488.82	8354.3	
489.02	7021.8	
489.22	7136.5	
489.41	9325.8	
489.61	8981	
489.81	6821.1	
490.01	6901	
490.21	9199.5	
490.41	9909.4	
490.61	6690	
490.8	6904.4	
491	8704.5	
491.2	7968.6	
491.4	7514.7	
491.6	6633.4	
491.8	8657.4	
491.99	8810.4	
492.19	6462.7	
492.39	6916.7	
492.59	9301.9	
492.79	9327.8	
492.99	7715.4	
493.18	6823.8	
493.38	9467.8	
493.58	10258	
493.78	7634.1	
493.98	7193.1	
494.18	9140.8	
494.37	8559.8	
494.57	7927	
494.77	7791.8	
494.97	9373.6	
495.17	9661.6	
495.37	7318.1	
495.56	7661.5	
495.76	9843.2	
495.96	9504.6	
496.16	8652	
496.36	7430.7	
496.55	9670.5	
496.75	9196.7	
496.95	7952.9	
497.15	7741.3	
497.35	9704	
497.54	9746.3	
497.74	7547.4	
497.94	9265.7	
498.14	10311	
498.34	10275	
498.53	7291.5	
498.73	8073.1	
498.93	9005.6	
499.13	9783.1	
499.33	7860.8	
499.52	8349.6	
499.72	9637.7	
499.92	10002	
500.12	7545.4	
500.32	7856	
500.51	9888.3	
500.71	9704.6	
500.91	8677.9	
501.11	8325	
501.31	9849.4	
501.5	10336	
501.7	8946.2	
501.9	7900.4	
502.1	9744.2	
502.29	9968.8	
502.49	8441	
502.69	8884.8	
502.89	9946.3	
503.09	9914.2	
503.28	7365.2	
503.48	7464.8	
503.68	9055.4	
503.88	9062.9	
504.07	8539.3	
504.27	7989.8	
504.47	9510.8	
504.67	9611.1	
504.86	8413.1	
505.06	8099	
505.26	9064.3	
505.46	11024	
505.65	7885.4	
505.85	8144.1	
506.05	8994	
506.25	9513.5	
506.44	7217.7	
506.64	8240.3	
506.84	8970.1	
507.04	9921	
507.23	7445.7	
507.43	8046.5	
507.63	10987	
507.83	9181.7	
508.02	8086.1	
508.22	7698.3	
508.42	11201	
508.62	8969.4	
508.81	7907.2	
509.01	8497	
509.21	8811	
509.4	9033.6	
509.6	8127.7	
509.8	7488.7	
510	9043.1	
510.19	10613	
510.39	7466.9	
510.59	7511.3	
510.79	8832.9	
510.98	10343	
511.18	7571.3	
511.38	7666.9	
511.57	9724.4	
511.77	9624.8	
511.97	8314.1	
512.17	7343.3	
512.36	9718.3	
512.56	9652.8	
512.76	7486	
512.95	7233.4	
513.15	9923.8	
513.35	8422.6	
513.55	8404.9	
513.74	7555	
513.94	9800.2	
514.14	9215.9	
514.33	8473.1	
514.53	8277.9	
514.73	9093	
514.92	9408.4	
515.12	7744.1	
515.32	7575.4	
515.51	9486.9	
515.71	10146	
515.91	9427.5	
516.11	7610.9	
516.3	11299	
516.5	9122.3	
516.7	8258.8	
516.89	8915.5	
517.09	9320.3	
517.29	9155.8	
517.48	8680.7	
517.68	8008.9	
517.88	8982.4	
518.07	9726.5	
518.27	8463.6	
518.47	7486.7	
518.66	10123	
518.86	8873.2	
519.06	7322.9	
519.25	7819.8	
519.45	9110	
519.65	10697	
519.84	8417.8	
520.04	9166	
520.24	11120	
520.43	9878	
520.63	8151.6	
520.83	7933.1	
521.02	9064.3	
521.22	9714.2	
521.42	8473.1	
521.61	8932.6	
521.81	9239.8	
522.01	9466.4	
522.2	8290.2	
522.4	8095.6	
522.6	10004	
522.79	8745.5	
522.99	8204.8	
523.18	7500.3	
523.38	9770.2	
523.58	9848.7	
523.77	9524.4	
523.97	7550.2	
524.17	11800	
524.36	10858	
524.56	9008.3	
524.76	8618.5	
524.95	9820	
525.15	9559.9	
525.34	8486.8	
525.54	8443.1	
525.74	10208	
525.93	9198.8	
526.13	9656.9	
526.33	8339.3	
526.52	10669	
526.72	10124	
526.91	9728.5	
527.11	8999.5	
527.31	10675	
527.5	11161	
527.7	8836.3	
527.89	7902.4	
528.09	9633	
528.29	10177	
528.48	9355.1	
528.68	8903.9	
528.87	10576	
529.07	10563	
529.27	8812.4	
529.46	8262.2	
529.66	10246	
529.85	10656	
530.05	8118.8	
530.25	8970.8	
530.44	11712	
530.64	10138	
530.83	8563.2	
531.03	8834.9	
531.23	10629	
531.42	10513	
531.62	9700.5	
531.81	8887.5	
532.01	10832	
532.21	11314	
532.4	8639.7	
532.6	9062.9	
532.79	11912	
532.99	10983	
533.18	9136.7	
533.38	10157	
533.58	10514	
533.77	11371	
533.97	9086.8	
534.16	9919.7	
534.36	11536	
534.55	10540	
534.75	10106	
534.95	9172.2	
535.14	11469	
535.34	10548	
535.53	8874.5	
535.73	10873	
535.92	12021	
536.12	10785	
536.31	8901.2	
536.51	10225	
536.71	11029	
536.9	10529	
537.1	9145.5	
537.29	9265	
537.49	11507	
537.68	10454	
537.88	9701.2	
538.07	8775.5	
538.27	10714	
538.46	11857	
538.66	8722.3	
538.86	9235	
539.05	10762	
539.25	11217	
539.44	9454.1	
539.64	9004.9	
539.83	10608	
540.03	11730	
540.22	8996.7	
540.42	9101.2	
540.61	10922	
540.81	11100	
541	9516.9	
541.2	10235	
541.39	10493	
541.59	10924	
541.78	9925.1	
541.98	8925.7	
542.18	10087	
542.37	10108	
542.57	9241.1	
542.76	9787.2	
542.96	10124	
543.15	10827	
543.35	9379	
543.54	8631.5	
543.74	11137	
543.93	10610	
544.13	9237	
544.32	10280	
544.52	10995	
544.71	10193	
544.91	8327.7	
545.1	9620	
545.3	10227	
545.49	10907	
545.69	8297	
545.88	8933.2	
546.08	12006	
546.27	11423	
546.47	9364.7	
546.66	8615.8	
546.86	11149	
547.05	11667	
547.24	8867	
547.44	8748.2	
547.63	9994.8	
547.83	11251	
548.02	9193.3	
548.22	9373.6	
548.41	9811.1	
548.61	11234	
548.8	8620.6	
549	8650.6	
549.19	10491	
549.39	10802	
549.58	8283.4	
549.78	8937.3	
549.97	11025	
550.17	10395	
550.36	9858.2	
550.55	10968	
550.75	10418	
550.94	11328	
551.14	8668.4	
551.33	9018.6	
551.53	9723.1	
551.72	10621	
551.92	9007	
552.11	8749.6	
552.31	10701	
552.5	10641	
552.69	10448	
552.89	8424	
553.08	10804	
553.28	10400	
553.47	8838.4	
553.67	9957.9	
553.86	11448	
554.06	9691	
554.25	7980.9	
554.44	8600.8	
554.64	12247	
554.83	11723	
555.03	8597.4	
555.22	8911.4	
555.42	10940	
555.61	10617	
555.8	8746.9	
556	9039.7	
556.19	9704.6	
556.39	11055	
556.58	8829.5	
556.78	8833.6	
556.97	10433	
557.16	10219	
557.36	10064	
557.55	8408.3	
557.75	9448	
557.94	11365	
558.13	8554.4	
558.33	8271.1	
558.52	11071	
558.72	9904.7	
558.91	8307.2	
559.1	8608.3	
559.3	9617.3	
559.49	9293	
559.69	7918.1	
559.88	8979.7	
560.07	10482	
560.27	10895	
560.46	9102.5	
560.66	9260.2	
560.85	10216	
561.04	9323	
561.24	8304.5	
561.43	8527.7	
561.63	9618.6	
561.82	9960.6	
562.01	9710.1	
562.21	8844.5	
562.4	10378	
562.59	11304	
562.79	8804.2	
562.98	8292.2	
563.18	10332	
563.37	11862	
563.56	9122.3	
563.76	8258.8	
563.95	9758.6	
564.14	9696.4	
564.34	8635.6	
564.53	8426.7	
564.73	10275	
564.92	10704	
565.11	8839.7	
565.31	8172.8	
565.5	10816	
565.69	9817.3	
565.89	8380.3	
566.08	8675.2	
566.27	10719	
566.47	11202	
566.66	9196.1	
566.85	7841	
567.05	10251	
567.24	9776.3	
567.44	8307.9	
567.63	9759.3	
567.82	10638	
568.02	10238	
568.21	8228.7	
568.4	8728.4	
568.6	10139	
568.79	10088	
568.98	8052.6	
569.18	8396	
569.37	10047	
569.56	12163	
569.76	8589.2	
569.95	9656.9	
570.14	10537	
570.34	10290	
570.53	8014.4	
570.72	8017.1	
570.91	10848	
571.11	10004	
571.3	8493.6	
571.49	9516.2	
571.69	9920.4	
571.88	9508.7	
572.07	9119.6	
572.27	9140.1	
572.46	9493	
572.65	10619	
572.85	8309.3	
573.04	8626.7	
573.23	10825	
573.43	10058	
573.62	8058.1	
573.81	8675.9	
574	10103	
574.2	10008	
574.39	8518.9	
574.58	8633.6	
574.78	11082	
574.97	10299	
575.16	8985.1	
575.36	9194.7	
575.55	10595	
575.74	10682	
575.93	7993.2	
576.13	9258.9	
576.32	9986.6	
576.51	10587	
576.71	8454.7	
576.9	9869.2	
577.09	10910	
577.28	10346	
577.48	9015.2	
577.67	7910.6	
577.86	10015	
578.05	10325	
578.25	8703.9	
578.44	8689.5	
578.63	10124	
578.83	11441	
579.02	7901.7	
579.21	9658.2	
579.4	10352	
579.6	10088	
579.79	8899.8	
579.98	11077	
580.17	10756	
580.37	10875	
580.56	8297.7	
580.75	9121.7	
580.94	11412	
581.14	11181	
581.33	9645.3	
581.52	8389.2	
581.71	10604	
581.91	11427	
582.1	8087.4	
582.29	8877.9	
582.48	10301	
582.68	10269	
582.87	9334	
583.06	8926.4	
583.25	10671	
583.45	10438	
583.64	9602.2	
583.83	10335	
584.02	10112	
584.21	10556	
584.41	9520.3	
584.6	8862.9	
584.79	10383	
584.98	11174	
585.18	8318.2	
585.37	8267	
585.56	9835.7	
585.75	10683	
585.94	8426.7	
586.14	9231.6	
586.33	11278	
586.52	10264	
586.71	8959.9	
586.91	8655.4	
587.1	9621.4	
587.29	10691	
587.48	8512	
587.67	8361.9	
587.87	10441	
588.06	10459	
588.25	9731.3	
588.44	8899.1	
588.63	9926.5	
588.83	10517	
589.02	8174.1	
589.21	8148.2	
589.4	9583.8	
589.59	9392.7	
589.78	7296.2	
589.98	7471.7	
590.17	8983.8	
590.36	9708.1	
590.55	6830	
590.74	7785.7	
590.94	10960	
591.13	9461.6	
591.32	7515.4	
591.51	6970.6	
591.7	9936.1	
591.89	9353.1	
592.09	7150.1	
592.28	7577.5	
592.47	8560.5	
592.66	10550	
592.85	7195.9	
593.05	7436.2	
593.24	9151	
593.43	9990	
593.62	7514.7	
593.81	8064.2	
594	9168.8	
594.19	9499.2	
594.39	7427.3	
594.58	7324.2	
594.77	9635	
594.96	10237	
595.15	7395.9	
595.34	7957.7	
595.54	9624.1	
595.73	8653.4	
595.92	6693.4	
596.11	7864.2	
596.3	10220	
596.49	8825.4	
596.68	7679.9	
596.88	8221.9	
597.07	9861.7	
597.26	8682.7	
597.45	7052.5	
597.64	8470.4	
597.83	8933.9	
598.02	9723.8	
598.22	7309.2	
598.41	8010.3	
598.6	9358.5	
598.79	8818.6	
598.98	7412.3	
599.17	8393.9	
599.36	9405.6	
599.55	10644	
599.74	9527.8	
599.94	9174.2	
600.13	10104	
600.32	8779	
600.51	7160.4	
600.7	7350.2	
600.89	10734	
601.08	10710	
601.27	7110.5	
601.47	8104.5	
601.66	10068	
601.85	10700	
602.04	7969.3	
602.23	8119.5	
602.42	9070.5	
602.61	9703.3	
602.8	7752.2	
602.99	7486	
603.18	9387.9	
603.37	9619.3	
603.57	8190.5	
603.76	8737.3	
603.95	10439	
604.14	9941.5	
604.33	7617.8	
604.52	7974.1	
604.71	9670.5	
604.9	9148.3	
605.09	8562.6	
605.28	8432.9	
605.47	10131	
605.66	9925.8	
605.86	8307.9	
606.05	7571.3	
606.24	10230	
606.43	8611	
606.62	7921.5	
606.81	8753	
607	10159	
607.19	9410.4	
607.38	7275.8	
607.57	7579.5	
607.76	9125.7	
607.95	8631.5	
608.14	7991.2	
608.33	8612.4	
608.52	9121	
608.72	10023	
608.91	7244.3	
609.1	7176.1	
609.29	9235.7	
609.48	8673.8	
609.67	8159.8	
609.86	7205.4	
610.05	8824.7	
610.24	9213.1	
610.43	7088	
610.62	6648.4	
610.81	10364	
611	10098	
611.19	7219.8	
611.38	7856.7	
611.57	9410.4	
611.76	10897	
611.95	7000	
612.14	6808.8	
612.33	9233.6	
612.52	8796.7	
612.71	7569.3	
612.9	6750.8	
613.09	8327	
613.28	10831	
613.47	7190.4	
613.66	8292.2	
613.85	9368.1	
614.04	8864.3	
614.24	7340.6	
614.43	6516	
614.62	9489.6	
614.81	9409.7	
615	7920.9	
615.19	7925.6	
615.38	8760.5	
615.57	9138.7	
615.76	7801.4	
615.95	8799.4	
616.14	9509.4	
616.33	9089.6	
616.52	8030.8	
616.71	8417.2	
616.9	9501.9	
617.09	9214.5	
617.28	7428.7	
617.47	8721.6	
617.66	8585.8	
617.85	8626	
618.04	8391.2	
618.22	7834.2	
618.41	8917.5	
618.6	9840.5	
618.79	7688.1	
618.98	7432.1	
619.17	10213	
619.36	8389.2	
619.55	7627.3	
619.74	7636.9	
619.93	9347.6	
620.12	8837	
620.31	8244.4	
620.5	8339.3	
620.69	9936.1	
620.88	10450	
621.07	9146.2	
621.26	8127.7	
621.45	9643.2	
621.64	9553.8	
621.83	8199.4	
622.02	7357.7	
622.21	9655.5	
622.4	9357.9	
622.59	8718.9	
622.78	8475.2	
622.97	8983.1	
623.16	9966.8	
623.35	8082	
623.54	7230	
623.72	9226.1	
623.91	9306	
624.1	8439.7	
624.29	6976.1	
624.48	10443	
624.67	9613.2	
624.86	8205.5	
625.05	7260.7	
625.24	10475	
625.43	8846.5	
625.62	9981.1	
625.81	7441.6	
626	9928.6	
626.19	9189.2	
626.38	8325	
626.56	7724.3	
626.75	8955.1	
626.94	9824.8	
627.13	8235.6	
627.32	6829.3	
627.51	9587.2	
627.7	10961	
627.89	7019.1	
628.08	8161.8	
628.27	8705.9	
628.46	8986.5	
628.65	7288.7	
628.83	6949.4	
629.02	9536.7	
629.21	8770.8	
629.4	7846.5	
629.59	7935.2	
629.78	8706.6	
629.97	9807.7	
630.16	8011.7	
630.35	7527	
630.54	10144	
630.72	9964.7	
630.91	7551.5	
631.1	8092.2	
631.29	9376.3	
631.48	9578.3	
631.67	8237.6	
631.86	7557.7	
632.05	9019.3	
632.24	9032.9	
632.42	7217.7	
632.61	7897.7	
632.8	9187.2	
632.99	8785.1	
633.18	7897.7	
633.37	8335.2	
633.56	9511.4	
633.75	9238.4	
633.93	7980.3	
634.12	7515.4	
634.31	10193	
634.5	9882.8	
634.69	7679.2	
634.88	8116.8	
635.07	9184.5	
635.25	9779.7	
635.44	8587.1	
635.63	8816.5	
635.82	9015.2	
636.01	8540	
636.2	8557.8	
636.39	8057.4	
636.57	10210	
636.76	9923.8	
636.95	7356.3	
637.14	8944.8	
637.33	9494.4	
637.52	10479	
637.7	7234.8	
637.89	8237.6	
638.08	9135.3	
638.27	10596	
638.46	8260.1	
638.65	8868.4	
638.83	10537	
639.02	8910.7	
639.21	8163.2	
639.4	8663.6	
639.59	9404.3	
639.78	8972.8	
639.96	7400.7	
640.15	7360.4	
640.34	9169.4	
640.53	9471.2	
640.72	7116	
640.91	7380.9	
641.09	8585.8	
641.28	10047	
641.47	7375.4	
641.66	8318.8	
641.85	9312.1	
642.03	9619.3	
642.22	8062.2	
642.41	7562.5	
642.6	8708	
642.79	8167.3	
642.97	7270.3	
643.16	8137.9	
643.35	8581.7	
643.54	8406.9	
643.73	7160.4	
643.91	7944.1	
644.1	8340	
644.29	8887.5	
644.48	7181.5	
644.67	7199.3	
644.85	8462.9	
645.04	8757.8	
645.23	6738.5	
645.42	6967.9	
645.6	8180.3	
645.79	9428.8	
645.98	6881.9	
646.17	5910.4	
646.36	7857.4	
646.54	8482	
646.73	7806.2	
646.92	6515.3	
647.11	8062.2	
647.29	9126.4	
647.48	6566.5	
647.67	6339.1	
647.86	9493	
648.05	9460.9	
648.23	6840.9	
648.42	8219.2	
648.61	8826.1	
648.8	8566.7	
648.98	6673	
649.17	6946	
649.36	8102.4	
649.55	7580.9	
649.73	6601.3	
649.92	7405.5	
650.11	7989.8	
650.3	8399.4	
650.48	6779.5	
650.67	6359.6	
650.86	8684.8	
651.05	7468.3	
651.23	6707.8	
651.42	6642.2	
651.61	8026.7	
651.79	8273.1	
651.98	6911.9	
652.17	6490.7	
652.36	8546.2	
652.54	7665.5	
652.73	6513.9	
652.92	6347.3	
653.11	8583.7	
653.29	8689.5	
653.48	5834.7	
653.67	6816.3	
653.85	8260.1	
654.04	9380.4	
654.23	7070.3	
654.42	6494.8	
654.6	7767.3	
654.79	8439	
654.98	5962.3	
655.16	6486.6	
655.35	7315.3	
655.54	7342	
655.73	6033.3	
655.91	6008.1	
656.1	8542.8	
656.29	7430	
656.47	5547.9	
656.66	7443	
656.85	7562.5	
657.03	7680.6	
657.22	6128.9	
657.41	6221.7	
657.59	7752.2	
657.78	7552.2	
657.97	5885.9	
658.16	6685.9	
658.34	8372.1	
658.53	8855.4	
658.72	7688.1	
658.9	8195.3	
659.09	7845.8	
659.28	7976.2	
659.46	6433.4	
659.65	6204	
659.84	7692.9	
660.02	8203.5	
660.21	6170.5	
660.4	6172.6	
660.58	8623.3	
660.77	7998	
660.96	6838.2	
661.14	5805.3	
661.33	9094.3	
661.52	9084.1	
661.7	5741.1	
661.89	9777	
662.08	7547.4	
662.26	7105.8	
662.45	6095.4	
662.64	6238.8	
662.82	8310.7	
663.01	7471	
663.2	6224.5	
663.38	7092.8	
663.57	8233.5	
663.75	8084.7	
663.94	6605.4	
664.13	7902.4	
664.31	7570.7	
664.5	8252.6	
664.69	6733.7	
664.87	7424.6	
665.06	7302.4	
665.25	8149.6	
665.43	7606.8	
665.62	7688.1	
665.8	8399.4	
665.99	7653.9	
666.18	6429.3	
666.36	6606.7	
666.55	8302.5	
666.74	8359.1	
666.92	6176	
667.11	7948.8	
667.29	7561.1	
667.48	8368.7	
667.67	7454.6	
667.85	6536.4	
668.04	7800.7	
668.22	7750.9	
668.41	6614.3	
668.6	6716.7	
668.78	7597.3	
668.97	7711.3	
669.15	6887.3	
669.34	5829.2	
669.53	7471.7	
669.71	7955.7	
669.9	6098.9	
670.08	6731	
670.27	7502.4	
670.46	8144.1	
670.64	6894.1	
670.83	7225.9	
671.01	7382.9	
671.2	8047.2	
671.38	6212.9	
671.57	5989.6	
671.76	8673.8	
671.94	9295	
672.13	5988.3	
672.31	7008.8	
672.5	8264.2	
672.69	7509.2	
672.87	6060.6	
673.06	6494.8	
673.24	8089.5	
673.43	7489.4	
673.61	6838.2	
673.8	6472.3	
673.98	8273.8	
674.17	8376.9	
674.36	7017	
674.54	6837.5	
674.73	7896.3	
674.91	8168.7	
675.1	6475	
675.28	6221.7	
675.47	7752.9	
675.65	8345.5	
675.84	6397.2	
676.03	6715.3	
676.21	7502.4	
676.4	7038.2	
676.58	7258	
676.77	6980.8	
676.95	9079.3	
677.14	7456.7	
677.32	6094.1	
677.51	5891.3	
677.69	8247.9	
677.88	7075	
678.06	5967.8	
678.25	6111.8	
678.44	7854	
678.62	7488.1	
678.81	5795.8	
678.99	6842.3	
679.18	8592.6	
679.36	8150.2	
679.55	6363	
679.73	7071.6	
679.92	8073.1	
680.1	7509.9	
680.29	7690.8	
680.47	6356.2	
680.66	7402.7	
680.84	8358.4	
681.03	5642.8	
681.21	6888.7	
681.4	7475.1	
681.58	7337.9	
681.77	6063.4	
681.95	6014.9	
682.14	8311.3	
682.32	8785.8	
682.51	7083.2	
682.69	5797.1	
682.88	7335.1	
683.06	8125.7	
683.25	6729.6	
683.43	7148.1	
683.62	7669.6	
683.8	8133.8	
683.99	7268.9	
684.17	6447	
684.36	8850	
684.54	7463.5	
684.73	5538.4	
684.91	5773.9	
685.1	7698.3	
685.28	7043	
685.46	6287.3	
685.65	6368.5	
685.83	7923.6	
686.02	7381.6	
686.2	5836	
686.39	5863.3	
686.57	7032	
686.76	8731.2	
686.94	5763.7	
687.13	5954.8	
687.31	7804.1	
687.5	7419.1	
687.68	5350	
687.86	6756.9	
688.05	9103.2	
688.23	6829.3	
688.42	6886	
688.6	5971.9	
688.79	7353.6	
688.97	7253.9	
689.16	6392.4	
689.34	5257.8	
689.52	8036.9	
689.71	8277.2	
689.89	6682.5	
690.08	5896.1	
690.26	7535.8	
690.45	7430.7	
690.63	6806.8	
690.81	6065.4	
691	7283.9	
691.18	7184.3	
691.37	6236.7	
691.55	8513.4	
691.74	7141.3	
691.92	9272.5	
692.1	6285.9	
692.29	5626.5	
692.47	7434.8	
692.66	6625.2	
692.84	5893.4	
693.02	6491.4	
693.21	6840.2	
693.39	7337.9	
693.58	6649.8	
693.76	6077	
693.94	8721.6	
694.13	8506.6	
694.31	6036.7	
694.5	7211.6	
694.68	7453.9	
694.86	7649.2	
695.05	6446.3	
695.23	6567.8	
695.42	8142	
695.6	10494	
695.78	7133.1	
695.97	6185.5	
696.15	8114.7	
696.34	7416.4	
696.52	5965.1	
696.7	6821.8	
696.89	7836.9	
697.07	7260.7	
697.25	6602.7	
697.44	8251.3	
697.62	7737.2	
697.81	8212.4	
697.99	6366.5	
698.17	6827.2	
698.36	7048.4	
698.54	7814.4	
698.72	6715.3	
698.91	5646.2	
699.09	7413.6	
699.28	7329.7	
699.46	6351.4	
699.64	6240.8	
699.83	7127.6	
700.01	8555.7	
700.19	7158.3	
700.38	5462.6	
700.56	8561.2	
700.74	7374.7	
700.93	5959.6	
701.11	6768.5	
701.29	8037.6	
701.48	9060.9	
701.66	6187.6	
701.84	6264.7	
702.03	7585	
702.21	8338.6	
702.39	5799.8	
702.58	6351.4	
702.76	7979.6	
702.94	8158.4	
703.13	5826.5	
703.31	8242.4	
703.49	7230	
703.68	8602.2	
703.86	6012.8	
704.04	7114	
704.23	7869	
704.41	8322.3	
704.59	6205.3	
704.78	7582.9	
704.96	8996	
705.14	8468.4	
705.33	6077	
705.51	6911.9	
705.69	7694.2	
705.87	8702.5	
706.06	7175.4	
706.24	6050.4	
706.42	8115.4	
706.61	8248.5	
706.79	7258.7	
706.97	6025.1	
707.16	7456	
707.34	8171.4	
707.52	7237.5	
707.7	6252.4	
707.89	7700.4	
708.07	7387.7	
708.25	7286	
708.44	7356.3	
708.62	7565.2	
708.8	8882.7	
708.98	7537.2	
709.17	6505.7	
709.35	8076.5	
709.53	8094.9	
709.72	6087.9	
709.9	6272.9	
710.08	8341.4	
710.26	8439	
710.45	7795.9	
710.63	6509.1	
710.81	7958.4	
710.99	8086.7	
711.18	7079.1	
711.36	6605.4	
711.54	7778.2	
711.72	8587.8	
711.91	6662	
712.09	5961.6	
712.27	7989.1	
712.45	8647.2	
712.64	6868.9	
712.82	5703.6	
713	7257.3	
713.18	7420.5	
713.37	5858.6	
713.55	7200.7	
713.73	8114.1	
713.91	6703	
714.1	6133.7	
714.28	5507.7	
714.46	7777.5	
714.64	6878.4	
714.83	4843.4	
715.01	5729.5	
715.19	6831.3	
715.37	6176.7	
715.55	5345.9	
715.74	5662	
715.92	7832.1	
716.1	5741.1	
716.28	6830.7	
716.47	5791.7	
716.65	6529.6	
716.83	6573.3	
717.01	5614.2	
717.19	5718.6	
717.38	8877.9	
717.56	6266.1	
717.74	6016.9	
717.92	5047.6	
718.1	7675.8	
718.29	6744	
718.47	4793.6	
718.65	5560.2	
718.83	7625.3	
719.01	7590.5	
719.2	4747.9	
719.38	5945.3	
719.56	7332.4	
719.74	8976.2	
719.92	5428.5	
720.11	6558.3	
720.29	7279.8	
720.47	6303	
720.65	4852.3	
720.83	5928.2	
721.02	6548	
721.2	6343.2	
721.38	5814.2	
721.56	5039.4	
721.74	5890.6	
721.92	6086.6	
722.11	6385.6	
722.29	6023.1	
722.47	7423.9	
722.65	6531	
722.83	5065.3	
723.01	6071.5	
723.2	6614.3	
723.38	6918	
723.56	4440	
723.74	5709.1	
723.92	6108.4	
724.1	7387.7	
724.29	5000.5	
724.47	6206	
724.65	6175.3	
724.83	6076.3	
725.01	4924	
725.19	5834	
725.37	6184.2	
725.56	6287.9	
725.74	4801.1	
725.92	5039.4	
726.1	6130.9	
726.28	6361.7	
726.46	5511.8	
726.64	5192.3	
726.83	6339.8	
727.01	6687.3	
727.19	4719.2	
727.37	5612.1	
727.55	6578.1	
727.73	7164.5	
727.91	4762.2	
728.09	4553.3	
728.28	7167.9	
728.46	7830.7	
728.64	5767.8	
728.82	5803.9	
729	8338	
729.18	7566.6	
729.36	4917.2	
729.54	7511.3	
729.72	8747.6	
729.91	6894.8	
730.09	7082.6	
730.27	5825.8	
730.45	6803.4	
730.63	7531.1	
730.81	6449.1	
730.99	5470.1	
731.17	8115.4	
731.35	6615.6	
731.53	5994.4	
731.71	5568.4	
731.9	7701	
732.08	7935.2	
732.26	5912.5	
732.44	5450.3	
732.62	7974.1	
732.8	7426.6	
732.98	6232.7	
733.16	5277.6	
733.34	7501.7	
733.52	6138.4	
733.7	5867.4	
733.88	6086.6	
734.07	7270.3	
734.25	7107.8	
734.43	5286.5	
734.61	6931	
734.79	8624.7	
734.97	6961.7	
735.15	5457.8	
735.33	5726.1	
735.51	7276.4	
735.69	6946.7	
735.87	6998.6	
736.05	6031.3	
736.23	7185	
736.41	6974.7	
736.59	5897.5	
736.77	6008.1	
736.95	7690.8	
737.13	7038.9	
737.32	5532.2	
737.5	5791	
737.68	8263.6	
737.86	6845.7	
738.04	5292.6	
738.22	7336.5	
738.4	6723.5	
738.58	7029.3	
738.76	6007.4	
738.94	4906.3	
739.12	6875	
739.3	6748.7	
739.48	6623.1	
739.66	6382.2	
739.84	7249.1	
740.02	7214.3	
740.2	5071.5	
740.38	5414.1	
740.56	7603.4	
740.74	6443.6	
740.92	6042.2	
741.1	6014.2	
741.28	6952.9	
741.46	6808.1	
741.64	5686.5	
741.82	6125.5	
742	7075	
742.18	7032.7	
742.36	5826.5	
742.54	5408	
742.72	7561.8	
742.9	6312.5	
743.08	6263.4	
743.26	4902.2	
743.44	7870.3	
743.62	7655.3	
743.8	6417.7	
743.98	5516.5	
744.16	7354.9	
744.34	7000.6	
744.52	6352.8	
744.7	6212.9	
744.88	7515.4	
745.06	6991.8	
745.24	6246.3	
745.42	6412.2	
745.6	7546.1	
745.78	7297.6	
745.96	5125.4	
746.14	5477.6	
746.32	8290.2	
746.5	7508.5	
746.68	5986.2	
746.86	5403.2	
747.03	7956.4	
747.21	6230.6	
747.39	6006.7	
747.57	5466	
747.75	7162.4	
747.93	7566.6	
748.11	5445.5	
748.29	5272.2	
748.47	8759.2	
748.65	6799.3	
748.83	6105.7	
749.01	5959.6	
749.19	7277.8	
749.37	6461.3	
749.55	5797.8	
749.73	5805.3	
749.91	6881.2	
750.09	6683.9	
750.26	5936.4	
750.44	5268.1	
750.62	7044.3	
750.8	6909.2	
750.98	5098.1	
751.16	5466	
751.34	7021.1	
751.52	6343.9	
751.7	6255.2	
751.88	5072.8	
752.06	7514	
752.24	7223.9	
752.42	4967.7	
752.59	5360.2	
752.77	6886.6	
752.95	8289.5	
753.13	6156.9	
753.31	5562.3	
753.49	6547.4	
753.67	7088	
753.85	5782.8	
754.03	5315.8	
754.21	7275.8	
754.38	7607.5	
754.56	5548.6	
754.74	4516.5	
754.92	6398.5	
755.1	7188.4	
755.28	4432.5	
755.46	4347.2	
755.64	7693.5	
755.82	7761.1	
755.99	4483	
756.17	4586.1	
756.35	5064.6	
756.53	6724.2	
756.71	3306.8	
756.89	4354	
757.07	6307.1	
757.25	5371.1	
757.42	4885.1	
757.6	5919.3	
757.78	6436.1	
757.96	5337.7	
758.14	4664.6	
758.32	4114.4	
758.5	4915.1	
758.67	5682.4	
758.85	4489.1	
759.03	4569	
759.21	5926.8	
759.39	5338.4	
759.57	4005.8	
759.75	5261.9	
759.92	6603.3	
760.1	5883.1	
760.28	5650.3	
760.46	5918.6	
760.64	5700.2	
760.82	5393.7	
760.99	5521.3	
761.17	4725.3	
761.35	6636.8	
761.53	5522.7	
761.71	4864.6	
761.89	5634.6	
762.06	6570.6	
762.24	5989.6	
762.42	5016.8	
762.6	4855.1	
762.78	6113.2	
762.96	6804.7	
763.13	5367.7	
763.31	5048.9	
763.49	7006.1	
763.67	6051.7	
763.85	5977.3	
764.02	6610.8	
764.2	7285.3	
764.38	6462	
764.56	5043.5	
764.74	5941.8	
764.91	7359	
765.09	6295.5	
765.27	4661.9	
765.45	4485.1	
765.63	7422.5	
765.8	7320.1	
765.98	4194.9	
766.16	4555.4	
766.34	5795.8	
766.52	5612.1	
766.69	5584.8	
766.87	4313.7	
767.05	6206	
767.23	7033.4	
767.41	4714.4	
767.58	4977.2	
767.76	6836.8	
767.94	6855.9	
768.12	4801.1	
768.29	5569.1	
768.47	6309.8	
768.65	7055.3	
768.83	4366.3	
769	5578	
769.18	5779.4	
769.36	6492.7	
769.54	5376.6	
769.72	4407.2	
769.89	6804	
770.07	6913.9	
770.25	4740.4	
770.43	6042.2	
770.6	7589.1	
770.78	8003.5	
770.96	4936.3	
771.14	5643.5	
771.31	6684.6	
771.49	6039.5	
771.67	4086.4	
771.85	4309.6	
772.02	5230.5	
772.2	6034.7	
772.38	4992.3	
772.55	4542.4	
772.73	6289.3	
772.91	6070.2	
773.09	4945.8	
773.26	4968.4	
773.44	6212.9	
773.62	5888.6	
773.8	4494.6	
773.97	4084.3	
774.15	6325.5	
774.33	5884.5	
774.5	4330.8	
774.68	4633.2	
774.86	6462.7	
775.04	5941.2	
775.21	4357.4	
775.39	4376.5	
775.57	6162.3	
775.74	6649.8	
775.92	4223.6	
776.1	4086.4	
776.27	6123.4	
776.45	7468.9	
776.63	4373.8	
776.81	3841.3	
776.98	5750	
777.16	6898.2	
777.34	4514.4	
777.51	4869.4	
777.69	5696.8	
777.87	5497.4	
778.04	4526.7	
778.22	5186.8	
778.4	5496.1	
778.57	6241.5	
778.75	3770.3	
778.93	4014.7	
779.1	5326.1	
779.28	5201.2	
779.46	3779.9	
779.64	4276.2	
779.81	6413.6	
779.99	7280.5	
780.17	5056.4	
780.34	5252.4	
780.52	5750	
780.69	6035.4	
780.87	4574.5	
781.05	4091.2	
781.22	5829.9	
781.4	5895.4	
781.58	4285	
781.75	3390.8	
781.93	5866.7	
782.11	5258.5	
782.28	5184.8	
782.46	4311	
782.64	5081.7	
782.81	6001.2	
782.99	4336.2	
783.17	4326.7	
783.34	5971.2	
783.52	5121.3	
783.69	4586.8	
783.87	5317.9	
784.05	5169.1	
784.22	5192.3	
784.4	5319.9	
784.58	4580.6	
784.75	6173.9	
784.93	5220.3	
785.1	4229.1	
785.28	4860.5	
785.46	5905.7	
785.63	5185.5	
785.81	4183.3	
785.99	3991.5	
786.16	5343.8	
786.34	5724.8	
786.51	4129.4	
786.69	4449.6	
786.87	4929.5	
787.04	5515.2	
787.22	3543	
787.39	4939.7	
787.57	5194.3	
787.75	6401.3	
787.92	5094	
788.1	5120.6	
788.27	5240.1	
788.45	4973.2	
788.63	4775.2	
788.8	3409.2	
788.98	5747.3	
789.15	4880.3	
789.33	3526.6	
789.5	4165.6	
789.68	6179.4	
789.86	6220.4	
790.03	4678.2	
790.21	4054.3	
790.38	6142.5	
790.56	5346.6	
790.73	3918.4	
790.91	3980.6	
791.09	5208.7	
791.26	5965.1	
791.44	4203.8	
791.61	3575.1	
791.79	5156.8	
791.96	5255.1	
792.14	3730	
792.32	3198.2	
792.49	5160.2	
792.67	5268.1	
792.84	3804.4	
793.02	3585.3	
793.19	5598.5	
793.37	6378.7	
793.54	3426.3	
793.72	3674.1	
793.89	6573.3	
794.07	5150.6	
794.25	4387.4	
794.42	3365.5	
794.6	6277.7	
794.77	5903.6	
794.95	4614.1	
795.12	4008.6	
795.3	5201.8	
795.47	5794.4	
795.65	4400.4	
795.82	4260.5	
796	4949.9	
796.17	6992.4	
796.35	4091.2	
796.52	4900.1	
796.7	5774.6	
796.87	5824.4	
797.05	5066	
797.22	4982	
797.4	5803.3	
797.57	6873	
797.75	4201.7	
797.92	3952.6	
798.1	6137.1	
798.27	5136.3	
798.45	3392.8	
798.62	3645.4	
798.8	5424.4	
798.97	5976	
799.15	4491.2	
799.32	4247.5	
799.5	4690.5	
799.67	5531.6	
799.85	4538.3	
800.02	3268.6	
800.2	5108.3	
800.37	5479	
800.55	4749.9	
800.72	4000.4	
800.9	5943.9	
801.07	6384.9	
801.25	5380.7	
801.42	4374.5	
801.6	5999.9	
801.77	5752.7	
801.95	3900	
802.12	3861.8	
802.29	5720	
802.47	5640.8	
802.64	4293.2	
802.82	3223.5	
802.99	5059.2	
803.17	6138.4	
803.34	4198.3	
803.52	3786.7	
803.69	6916	
803.87	4904.2	
804.04	4175.8	
804.21	4269.3	
804.39	6243.6	
804.56	5316.5	
804.74	3558	
804.91	4399	
805.09	5149.3	
805.26	5233.9	
805.44	3555.3	
805.61	4012	
805.78	5799.2	
805.96	5877.7	
806.13	4392.2	
806.31	4718.5	
806.48	4642.7	
806.66	5253	
806.83	4303.5	
807	4207.2	
807.18	5071.5	
807.35	5539.8	
807.53	4252.9	
807.7	3353.9	
807.87	6374.6	
808.05	5186.1	
808.22	4665.3	
808.4	3386	
808.57	5218.9	
808.74	4748.6	
808.92	3876.8	
809.09	4866	
809.27	5013.4	
809.44	5732.9	
809.61	3362.8	
809.79	3758.7	
809.96	6380.8	
810.14	5999.9	
810.31	3250.8	
810.48	4031.8	
810.66	5240.1	
810.83	6062.7	
811.01	3877.5	
811.18	4605.9	
811.35	5941.2	
811.53	4588.1	
811.7	4684.4	
811.87	4390.8	
812.05	5175.9	
812.22	5107.6	
812.39	3710.2	
812.57	3640.6	
812.74	5180.7	
812.92	6918.7	
813.09	4057.7	
813.26	4473.4	
813.44	6664.8	
813.61	5029.8	
813.78	3338.9	
813.96	4614.1	
814.13	5173.9	
814.3	4810	
814.48	4937	
814.65	4024.3	
814.82	6468.9	
815	4984.8	
815.17	4180.6	
815.34	5162.9	
815.52	5034.6	
815.69	5107.6	
815.87	4134.8	
816.04	3579.2	
816.21	5182.7	
816.38	4532.2	
816.56	4033.1	
816.73	3736.9	
816.9	6543.3	
817.08	6047	
817.25	3762.8	
817.42	4796.3	
817.6	4699.4	
817.77	5172.5	
817.94	4259.1	
818.12	3640.6	
818.29	4859.8	
818.46	7766.6	
818.64	3839.3	
818.81	3622.9	
818.98	4814.8	
819.16	7079.1	
819.33	4494.6	
819.5	4232.5	
819.67	5516.5	
819.85	6245.6	
820.02	4084.3	
820.19	4390.2	
820.37	5337.7	
820.54	4964.3	
820.71	4243.4	
820.88	5285.1	
821.06	5390.3	
821.23	4954.7	
821.4	4263.9	
821.58	4313.7	
821.75	5911.8	
821.92	5274.2	
822.09	3416.7	
822.27	3480.2	
822.44	5175.2	
822.61	5048.9	
822.79	3473.4	
822.96	6667.5	
823.13	5714.5	
823.3	4831.8	
823.48	4005.8	
823.65	3547.1	
823.82	5948	
823.99	4660.5	
824.17	5078.3	
824.34	3605.1	
824.51	6843.6	
824.68	5195.7	
824.86	3770.3	
825.03	4225	
825.2	5122	
825.37	6291.4	
825.55	3697.9	
825.72	4167.6	
825.89	6982.2	
826.06	6382.2	
826.24	4117.1	
826.41	4067.3	
826.58	6316.6	
826.75	5507	
826.92	3223.5	
827.1	3590.1	
827.27	8628.1	
827.44	6873	
827.61	3837.9	
827.79	4711	
827.96	4894	
828.13	5281.7	
828.3	4048.2	
828.47	3421.5	
828.65	5395	
828.82	5367	
828.99	5283.8	
829.16	4545.1	
829.34	5740.5	
829.51	5576.6	
829.68	4220.9	
829.85	4388.1	
830.02	6058.6	
830.2	5817.6	
830.37	3242.6	
830.54	5135.6	
830.71	6676.4	
830.88	5109	
831.05	3302.7	
831.23	3780.6	
831.4	6313.2	
831.57	7176.8	
831.74	3857	
831.91	3368.9	
832.09	5384.8	
832.26	5788.9	
832.43	4052.2	
832.6	4577.2	
832.77	5470.1	
832.94	6213.5	
833.12	3183.2	
833.29	3977.8	
833.46	5047.6	
833.63	7386.3	
833.8	4367.6	
833.97	4046.8	
834.15	5836.7	
834.32	5571.8	
834.49	4260.5	
834.66	4343.1	
834.83	6033.3	
835	4901.5	
835.17	3885	
835.35	3909.6	
835.52	5709.7	
835.69	5591	
835.86	4061.8	
836.03	3381.9	
836.2	5746.6	
836.37	5398.4	
836.55	4015.4	
836.72	3763.5	
836.89	5328.8	
837.06	5772.5	
837.23	4100.7	
837.4	4474.8	
837.57	6625.9	
837.75	7389.1	
837.92	3638.6	
838.09	3973.1	
838.26	5345.9	
838.43	6095.4	
838.6	4258.4	
838.77	3811.3	
838.94	7065.5	
839.11	6665.5	
839.29	3977.8	
839.46	3110.2	
839.63	5752.7	
839.8	5480.4	
839.97	3938.9	
840.14	3905.5	
840.31	5517.9	
840.48	5814.9	
840.65	3239.2	
840.82	3872.7	
841	5748	
841.17	5677	
841.34	3559.4	
841.51	3646.7	
841.68	5673.6	
841.85	5438.7	
842.02	3713.6	
842.19	3083.6	
842.36	5537	
842.53	5504.9	
842.7	3639.9	
842.87	4448.9	
843.05	7311.9	
843.22	5477.6	
843.39	3373.7	
843.56	3687	
843.73	5187.5	
843.9	5853.1	
844.07	5902.9	
844.24	4830.5	
844.41	8633.6	
844.58	4985.4	
844.75	3463.8	
844.92	3773	
845.09	5752.7	
845.26	5738.4	
845.43	3596.2	
845.6	3814.7	
845.77	5807.4	
845.94	5477.6	
846.12	3986.7	
846.29	4192.9	
846.46	5999.9	
846.63	5740.5	
846.8	3603.1	
846.97	4234.5	
847.14	6238.1	
847.31	5670.1	
847.48	4078.2	
847.65	4520.5	
847.82	6004.6	
847.99	5948.7	
848.16	4825	
848.33	4453.6	
848.5	5345.2	
848.67	6248.4	
848.84	3571.7	
849.01	3689.1	
849.18	5171.1	
849.35	4812.7	
849.52	4474.8	
849.69	3507.5	
849.86	5922.7	
850.03	6195.1	
850.2	3604.4	
850.37	4410	
850.54	6168.5	
850.71	5393.7	
850.88	4351.3	
851.05	3556.6	
851.22	5668.1	
851.39	6346	
851.56	3416	
851.73	4132.8	
851.9	5047.6	
852.07	5986.9	
852.24	3954.6	
852.41	3540.3	
852.58	5624.4	
852.75	5068	
852.92	3959.4	
853.09	3507.5	
853.26	5361.6	
853.43	6276.3	
853.6	3586.7	
853.77	3052.2	
853.94	6323.4	
854.11	5028.4	
854.28	5305.6	
854.44	3936.9	
854.61	6826.6	
854.78	5854.5	
854.95	3584.6	
855.12	4560.8	
855.29	4643.4	
855.46	6270.2	
855.63	3567.6	
855.8	4961.5	
855.97	5264.6	
856.14	6102.3	
856.31	5125.4	
856.48	3902.7	
856.65	5293.3	
856.82	5024.3	
856.99	3433.8	
857.16	3890.5	
857.33	7079.1	
857.49	5373.2	
857.66	3773.7	
857.83	4186.7	
858	5402.5	
858.17	5554.1	
858.34	3327.3	
858.51	3532.7	
858.68	6403.3	
858.85	6516.6	
859.02	4119.8	
859.19	4435.9	
859.36	5006.6	
859.52	5112.4	
859.69	3631	
859.86	4255	
860.03	5120.6	
860.2	6384.9	
860.37	3280.2	
860.54	3567.6	
860.71	5996.5	
860.88	6434.7	
861.05	4056.3	
861.21	4524.6	
861.38	6443.6	
861.55	4885.8	
861.72	3237.8	
861.89	3973.1	
862.06	6105	
862.23	6627.2	
862.4	3496.6	
862.56	3692.5	
862.73	5888.6	
862.9	5524.1	
863.07	4188.8	
863.24	3235.8	
863.41	4962.9	
863.58	5082.4	
863.75	3576.4	
863.91	4125.3	
864.08	6417.7	
864.25	5894.1	
864.42	4501.4	
864.59	5079	
864.76	6743.3	
864.93	5029.8	
865.09	3491.8	
865.26	3779.2	
865.43	6305.7	
865.6	6698.9	
865.77	3078.8	
865.94	3512.9	
866.1	6307.1	
866.27	6075	
866.44	5372.5	
866.61	3350.5	
866.78	5450.3	
866.95	5876.3	
867.11	3435.1	
867.28	3161.4	
867.45	6120	
867.62	5195.7	
867.79	4170.3	
867.96	3508.9	
868.12	5042.1	
868.29	6084.5	
868.46	3089.7	
868.63	4776.5	
868.8	6212.2	
868.97	5993.7	
869.13	3678.8	
869.3	3724.6	
869.47	5852.4	
869.64	6080.4	
869.81	3600.3	
869.97	3608.5	
870.14	5743.2	
870.31	6435.4	
870.48	3458.3	
870.65	4515.8	
870.81	5380.7	
870.98	5359.5	
871.15	4085	
871.32	3749.8	
871.48	5900.2	
871.65	6466.8	
871.82	3530.7	
871.99	3947.1	
872.16	6973.3	
872.32	6346	
872.49	3620.8	
872.66	3607.2	
872.83	6040.8	
872.99	5287.9	
873.16	4124.6	
873.33	3527.3	
873.5	5619.6	
873.67	5657.2	
873.83	3768.9	
874	4835.9	
874.17	5828.5	
874.34	6994.5	
874.5	4610.7	
874.67	4437.3	
874.84	6423.1	
875.01	5051.7	
875.17	5064.6	
875.34	3581.2	
875.51	5654.4	
875.68	6858	
875.84	4298	
876.01	5289.2	
876.18	6052.4	
876.34	5868.8	
876.51	3601	
876.68	3523.2	
876.85	5421.7	
877.01	6276.3	
877.18	5156.1	
877.35	3533.4	
877.52	5535	
877.68	4997	
877.85	3484.3	
878.02	3500.7	
878.18	5551.4	
878.35	5225.1	
878.52	2809.8	
878.69	4035.2	
878.85	5991.7	
879.02	5950	
879.19	5099.4	
879.35	3882.3	
879.52	5960.3	
879.69	6130.9	
879.86	3067.2	
880.02	3996.3	
880.19	5493.3	
880.36	6746	
880.52	4089.8	
880.69	4289.1	
880.86	6103.6	
881.02	6103.6	
881.19	3963.5	
881.36	3839.3	
881.52	5991.7	
881.69	5262.6	
881.86	3824.2	
882.02	3752.6	
882.19	6207.4	
882.36	7351.5	
882.52	3689.1	
882.69	5062.6	
882.86	5722	
883.02	5600.5	
883.19	4406.5	
883.36	4108.9	
883.52	6051.1	
883.69	6982.2	
883.86	3595.6	
884.02	3227.6	
884.19	6034	
884.36	5529.5	
884.52	4072	
884.69	3796.3	
884.86	5289.2	
885.02	6639.5	
885.19	3964.9	
885.36	4162.2	
885.52	5594.4	
885.69	5715.2	
885.86	5221	
886.02	4543.8	
886.19	6044.2	
886.35	5440.8	
886.52	3880.9	
886.69	5013.4	
886.85	5083.7	
887.02	6411.5	
887.19	6411.5	
887.35	6411.5	
887.52	6411.5	
887.68	6411.5	
887.85	6411.5	
888.02	6411.5	
888.18	6411.5	
888.35	6411.5	
888.51	6411.5	
888.68	6411.5	
888.85	6411.5	
889.01	6411.5	
889.18	6411.5	
889.35	6411.5	
889.51	6411.5	
889.68	6411.5	
889.84	6411.5	
890.01	6411.5	
890.17	6411.5	
890.34	6411.5	
890.51	6411.5	
890.67	6411.5	
890.84	6411.5	
891	6411.5	
891.17	6411.5	
891.34	6411.5	
891.5	6411.5	
891.67	6411.5	
891.83	6411.5	
892	6411.5	
892.16	6411.5	
892.33	6411.5	
892.5	6411.5	
892.66	6411.5	
892.83	6411.5	
892.99	6411.5	
893.16	6411.5	
893.32	6411.5	
893.49	6411.5	
893.65	6411.5	
893.82	6411.5	
893.99	6411.5	
894.15	6411.5	
894.32	6411.5	
894.48	6411.5	
894.65	6411.5	
894.81	6411.5	
894.98	6411.5	
895.14	6411.5	
895.31	6411.5	
895.47	6411.5	
895.64	6411.5	
895.81	6411.5	
895.97	6411.5	
896.14	6411.5	
896.3	6411.5	
896.47	6411.5	
896.63	6411.5	
896.8	6411.5	
896.96	6411.5	
897.13	6411.5	
897.29	6411.5	
897.46	6411.5	
897.62	6411.5	
897.79	6411.5	
897.95	6411.5	
898.12	6411.5	
898.28	6411.5	
898.45	6411.5	
898.61	6411.5	
898.78	6411.5	
898.94	6411.5	
899.11	6411.5	
899.27	6411.5	
899.44	6411.5	
899.6	6411.5	
899.77	6411.5	
899.93	6411.5	
900.1	6411.5	
900.26	6411.5	
900.43	6411.5	
900.59	6411.5	
900.76	6411.5	
900.92	6411.5	
901.09	6411.5	
901.25	6411.5	
901.42	6411.5	
901.58	6411.5	
901.75	6411.5	
901.91	6411.5	
902.07	6411.5	
902.24	6411.5	
902.4	6411.5	
902.57	6411.5	
902.73	6411.5	
902.9	6411.5	
903.06	6411.5	
903.23	6411.5	
903.39	6411.5	
903.56	6411.5	
903.72	6411.5	
903.88	6411.5	
904.05	6411.5	
904.21	6411.5	
904.38	6411.5	
904.54	6411.5	
904.71	6411.5	
904.87	6411.5	
905.03	6411.5	
905.2	6411.5	
905.36	6411.5	
905.53	6411.5	
905.69	6411.5	
905.86	6411.5	
906.02	6411.5	
906.18	6411.5	
906.35	6411.5	
906.51	6411.5	
906.68	6411.5	
906.84	6411.5	
907.01	6411.5	
907.17	6411.5	
907.33	6411.5	
907.5	6411.5	
907.66	6411.5	
907.83	6411.5	
907.99	6411.5	
908.15	6411.5	
908.32	6411.5	
908.48	6411.5	
908.65	6411.5	
908.81	6411.5	
908.97	6411.5	
909.14	6411.5	
909.3	6411.5	
909.47	6411.5	
909.63	6411.5	
909.79	6411.5	
909.96	6411.5	
910.12	6411.5	
910.28	6411.5	
910.45	6411.5	
910.61	6411.5	
910.78	6411.5	
910.94	6411.5	
911.1	6411.5	
911.27	6411.5	
911.43	6411.5	
911.59	6411.5	
911.76	6411.5	
911.92	6411.5	
912.08	6411.5	
912.25	6411.5	
912.41	6411.5	
912.57	6411.5	
912.74	6411.5	
912.9	6411.5	
913.07	6411.5	
913.23	6411.5	
913.39	6411.5	
913.56	6411.5	
913.72	6411.5	
913.88	6411.5	
914.05	6411.5	
914.21	6411.5	
914.37	6411.5	
914.54	6411.5	
914.7	6411.5	
914.86	6411.5	
915.03	6411.5	
915.19	6411.5	
