Wavelength	Intensities	
nm	a.u.	
179.22	1741.6	
179.44	1753.4	
179.65	1729.9	
179.86	1777	
180.08	1725.1	
180.29	4079.6	
180.51	3072	
180.72	5052.3	
180.94	5692	
181.15	2786.6	
181.37	2795.5	
181.58	4881.7	
181.79	5154.1	
182.01	2953.9	
182.22	3113.6	
182.44	5140.4	
182.65	4378.6	
182.87	3816.7	
183.08	3361.4	
183.29	5390.9	
183.51	4541.7	
183.72	3085.6	
183.94	4293.9	
184.15	4819.6	
184.37	4739	
184.58	2781.8	
184.79	3629.7	
185.01	4567.7	
185.22	5182.7	
185.44	3820.8	
185.65	3308.8	
185.86	4843.4	
186.08	4434.5	
186.29	2725.8	
186.51	2934.1	
186.72	4532.8	
186.94	5225.7	
187.15	3293.1	
187.36	3353.9	
187.58	6578.8	
187.79	4939.7	
188.01	3491.8	
188.22	5210.7	
188.43	5726.1	
188.65	5074.2	
188.86	2904.7	
189.08	3394.8	
189.29	4658.4	
189.5	4690.5	
189.72	3112.2	
189.93	3216.7	
190.15	5209.3	
190.36	6123.4	
190.57	3436.5	
190.79	3376.4	
191	5341.1	
191.22	5343.2	
191.43	3464.5	
191.64	2932.7	
191.86	5457.2	
192.07	5319.9	
192.29	3016.7	
192.5	3100.6	
192.71	5276.9	
192.93	4711	
193.14	3082.9	
193.35	3192.1	
193.57	4676.2	
193.78	5261.9	
194	2568.2	
194.21	3066.5	
194.42	4485.7	
194.64	4825.7	
194.85	3381.9	
195.07	3934.1	
195.28	4833.9	
195.49	4303.5	
195.71	4033.1	
195.92	2940.2	
196.13	5015.5	
196.35	5018.9	
196.56	4314.4	
196.78	3386.7	
196.99	6079.1	
197.2	5711.8	
197.42	3797.6	
197.63	3442	
197.84	4405.2	
198.06	5001.1	
198.27	3140.9	
198.48	4040.6	
198.7	4683.7	
198.91	4819.6	
199.13	3358	
199.34	3390.1	
199.55	5228.5	
199.77	4204.5	
199.98	3036.5	
200.19	3443.3	
200.41	4790.2	
200.62	4536.9	
200.83	3517.7	
201.05	3779.9	
201.26	4789.5	
201.47	4588.1	
201.69	3076	
201.9	2958.6	
202.11	4843.4	
202.33	5604.6	
202.54	3250.8	
202.76	3594.2	
202.97	4906.3	
203.18	4904.2	
203.4	3561.4	
203.61	3506.8	
203.82	4928.1	
204.04	4567	
204.25	3385.3	
204.46	3341.6	
204.68	4843.4	
204.89	5038.7	
205.1	3276.8	
205.32	2928.6	
205.53	5081	
205.74	5331.5	
205.96	2508.1	
206.17	3483.6	
206.38	5136.3	
206.6	5270.1	
206.81	3900	
207.02	3134.8	
207.24	4993.6	
207.45	5368.4	
207.66	3306.8	
207.88	2857.6	
208.09	4973.2	
208.3	4828.4	
208.52	2994.8	
208.73	3289	
208.94	4820.9	
209.15	5365	
209.37	3278.8	
209.58	3668.6	
209.79	5238.7	
210.01	4713.1	
210.22	2682.8	
210.43	2777	
210.65	4793.6	
210.86	5117.9	
211.07	3283.6	
211.29	3010.5	
211.5	5061.9	
211.71	4825.7	
211.93	3043.3	
212.14	3008.5	
212.35	4792.2	
212.56	4925.4	
212.78	3428.3	
212.99	2800.9	
213.2	5537	
213.42	4635.9	
213.63	3099.9	
213.84	3274	
214.06	4413.4	
214.27	4419.5	
214.48	3223.5	
214.69	3396.9	
214.91	5393	
215.12	5391.6	
215.33	3497.2	
215.55	3773.7	
215.76	5818.3	
215.97	5070.8	
216.18	3315.7	
216.4	3276.8	
216.61	4583.4	
216.82	5236	
217.04	3017.3	
217.25	3134.1	
217.46	5301.5	
217.67	5148.6	
217.89	2766.1	
218.1	2822.8	
218.31	4895.3	
218.53	5035.3	
218.74	3196.2	
218.95	3067.2	
219.16	4782	
219.38	5590.3	
219.59	3099.3	
219.8	3667.9	
220.01	5994.4	
220.23	4900.8	
220.44	3917.8	
220.65	3015.3	
220.87	4907.6	
221.08	5334.3	
221.29	2870.6	
221.5	3648.8	
221.72	6309.8	
221.93	4622.3	
222.14	3473.4	
222.35	3981.3	
222.57	4859.8	
222.78	5205.9	
222.99	3265.1	
223.2	3441.3	
223.42	5092.6	
223.63	5166.3	
223.84	2603	
224.05	2587.3	
224.27	5962.3	
224.48	5511.1	
224.69	4134.8	
224.9	3388.7	
225.12	4965.6	
225.33	4779.3	
225.54	2776.4	
225.75	3082.9	
225.97	4555.4	
226.18	4762.9	
226.39	3271.3	
226.6	3087	
226.82	4683.7	
227.03	4546.5	
227.24	3387.3	
227.45	2848	
227.67	5171.8	
227.88	5470.8	
228.09	3790.8	
228.3	3765.5	
228.52	5169.1	
228.73	4799.8	
228.94	3160	
229.15	2893.8	
229.36	4830.5	
229.58	4806.6	
229.79	3237.2	
230	3654.9	
230.21	5709.1	
230.43	4877.6	
230.64	3375.7	
230.85	3505.4	
231.06	5216.2	
231.28	5146.5	
231.49	2843.9	
231.7	3334.8	
231.91	5094	
232.12	4866	
232.34	2958.6	
232.55	3258.3	
232.76	5340.4	
232.97	4936.3	
233.18	3018	
233.4	3355.9	
233.61	4984.8	
233.82	4612	
234.03	3179.1	
234.25	3180.5	
234.46	6449.7	
234.67	4865.3	
234.88	3522.5	
235.09	3083.6	
235.31	5034.6	
235.52	4746.5	
235.73	3336.1	
235.94	2910.8	
236.15	4635.2	
236.37	5716.6	
236.58	3046	
236.79	3272	
237	5081	
237.21	4461.8	
237.43	3492.5	
237.64	2808.4	
237.85	8067.6	
238.06	4506.2	
238.27	3488.4	
238.48	2912.9	
238.7	5148.6	
238.91	4760.8	
239.12	3267.9	
239.33	3402.4	
239.54	4542.4	
239.76	4828.4	
239.97	3190.7	
240.18	3267.2	
240.39	5782.8	
240.6	4954.7	
240.82	3402.4	
241.03	2890.4	
241.24	4825.7	
241.45	5487.9	
241.66	2990.7	
241.87	3557.3	
242.09	5416.9	
242.3	5709.1	
242.51	3574.4	
242.72	3218.7	
242.93	5178.6	
243.14	4830.5	
243.36	3778.5	
243.57	4046.8	
243.78	5485.8	
243.99	5153.4	
244.2	3264.5	
244.41	2964.1	
244.63	4492.6	
244.84	5064.6	
245.05	3450.1	
245.26	3293.8	
245.47	5048.2	
245.68	5214.8	
245.9	4239.3	
246.11	3411.9	
246.32	4734.9	
246.53	5033.2	
246.74	5167.7	
246.95	2808.4	
247.16	4524.6	
247.38	4826.4	
247.59	2803	
247.8	3302	
248.01	4502.8	
248.22	4762.2	
248.43	3035.1	
248.64	3210.5	
248.86	4383.3	
249.07	4644.1	
249.28	2942.9	
249.49	3372.3	
249.7	5226.4	
249.91	5292	
250.12	2755.9	
250.34	2805.7	
250.55	4946.5	
250.76	4855.1	
250.97	3381.9	
251.18	3437.2	
251.39	5324	
251.6	4952	
251.81	3509.5	
252.03	3436.5	
252.24	4698.7	
252.45	5187.5	
252.66	2843.9	
252.87	3625.6	
253.08	4881	
253.29	6124.8	
253.5	2910.8	
253.72	3963.5	
253.93	4777.2	
254.14	5571.2	
254.35	3109.5	
254.56	3213.9	
254.77	5001.1	
254.98	4583.4	
255.19	3132.7	
255.41	3907.5	
255.62	4957.4	
255.83	5348.6	
256.04	3495.9	
256.25	3412.6	
256.46	5789.6	
256.67	4634.6	
256.88	3397.6	
257.09	3686.3	
257.31	4491.9	
257.52	4608.6	
257.73	4174.4	
257.94	3106.1	
258.15	4763.6	
258.36	4812	
258.57	3737.5	
258.78	2511.5	
258.99	5244.8	
259.2	4668.7	
259.41	3097.2	
259.63	3226.9	
259.84	5453.7	
260.05	5724.1	
260.26	4063.9	
260.47	3121.1	
260.68	5345.9	
260.89	4771.1	
261.1	3741	
261.31	3023.5	
261.52	5287.2	
261.73	5560.9	
261.95	3996.3	
262.16	3504.8	
262.37	5371.8	
262.58	5408.7	
262.79	3971	
263	3216.7	
263.21	4868	
263.42	4723.3	
263.63	3435.8	
263.84	3188.7	
264.05	5282.4	
264.26	5597.1	
264.47	3842.7	
264.69	3485.6	
264.9	5448.3	
265.11	4990.9	
265.32	3080.1	
265.53	3149.1	
265.74	4963.6	
265.95	4361.5	
266.16	3356.6	
266.37	3642	
266.58	4947.9	
266.79	4648.2	
267	3147.7	
267.21	2911.5	
267.42	4468.7	
267.63	4861.9	
267.84	3272.7	
268.06	2835.1	
268.27	5238.7	
268.48	5387.5	
268.69	3220.8	
268.9	3736.2	
269.11	5336.3	
269.32	4426.3	
269.53	3298.6	
269.74	3053.5	
269.95	4971.8	
270.16	4367.6	
270.37	3278.8	
270.58	3727.3	
270.79	4657.1	
271	5174.5	
271.21	3485	
271.42	3325.2	
271.63	5010.7	
271.84	4479.6	
272.05	2689	
272.26	2996.2	
272.47	4862.6	
272.68	4996.4	
272.89	3185.3	
273.11	3593.5	
273.32	4687.1	
273.53	5527.5	
273.74	3504.8	
273.95	3416.7	
274.16	5218.2	
274.37	4868	
274.58	3560.1	
274.79	2929.3	
275	4998.4	
275.21	5306.3	
275.42	4251.6	
275.63	3627	
275.84	5126.7	
276.05	6152.8	
276.26	3444.7	
276.47	3259	
276.68	4749.9	
276.89	5638.7	
277.1	3638.6	
277.31	2939.5	
277.52	5071.5	
277.73	5238	
277.94	2895.1	
278.15	3198.2	
278.36	5031.2	
278.57	4549.2	
278.78	3099.9	
278.99	3505.4	
279.2	4649.6	
279.41	4558.1	
279.62	4046.8	
279.83	2936.8	
280.04	5788.9	
280.25	4476.9	
280.46	4083.6	
280.67	3321.1	
280.88	4588.8	
281.09	5343.2	
281.3	3408.5	
281.51	4289.1	
281.72	4644.1	
281.93	5207.3	
282.14	3115.6	
282.35	3334.1	
282.56	5240.1	
282.77	5212.1	
282.98	3208.5	
283.19	3796.9	
283.4	6238.1	
283.61	4795	
283.82	2985.3	
284.03	3968.3	
284.24	4960.2	
284.45	5369.8	
284.66	3999	
284.87	3832.4	
285.08	5273.5	
285.29	5410.7	
285.5	2857.6	
285.71	3229	
285.92	5322.7	
286.12	5766.4	
286.33	4047.5	
286.54	3317	
286.75	5228.5	
286.96	4745.8	
287.17	2922.5	
287.38	3870.7	
287.59	4629.1	
287.8	4556	
288.01	3257.6	
288.22	3649.5	
288.43	5203.2	
288.64	4414.1	
288.85	3841.3	
289.06	3588.7	
289.27	5485.8	
289.48	5542.5	
289.69	4039.3	
289.9	3700	
290.11	5369.1	
290.32	4721.9	
290.53	3817.4	
290.74	3523.2	
290.94	5231.2	
291.15	5271.5	
291.36	3072.6	
291.57	3626.3	
291.78	4729.4	
291.99	4355.3	
292.2	3039.2	
292.41	3579.2	
292.62	5247.6	
292.83	5113.8	
293.04	4257.7	
293.25	3008.5	
293.46	4713.7	
293.67	5309	
293.88	3065.1	
294.09	3026.2	
294.29	4508.3	
294.5	4969.1	
294.71	3304.7	
294.92	3163.4	
295.13	4713.7	
295.34	5767.1	
295.55	2843.3	
295.76	2870.6	
295.97	5206.6	
296.18	5697.4	
296.39	3012.6	
296.6	3123.8	
296.81	4927.4	
297.01	5184.1	
297.22	3201.7	
297.43	3127.2	
297.64	4627	
297.85	4547.9	
298.06	2592	
298.27	2790	
298.48	4870.1	
298.69	4617.5	
298.9	3330	
299.11	3046	
299.31	4506.2	
299.52	4520.5	
299.73	3602.4	
299.94	3434.4	
300.15	4827.1	
300.36	4579.9	
300.57	3485	
300.78	3467.2	
300.99	4721.9	
301.2	4912.4	
301.4	3064.4	
301.61	3336.1	
301.82	5126.1	
302.03	5169.8	
302.24	3713	
302.45	2975	
302.66	5036.6	
302.87	5373.2	
303.08	3097.9	
303.29	4126.7	
303.49	4642.7	
303.7	4857.1	
303.91	2784.6	
304.12	3906.2	
304.33	4448.2	
304.54	4915.1	
304.75	3109.5	
304.96	2994.8	
305.16	5117.9	
305.37	5649	
305.58	2744.3	
305.79	2837.8	
306	5126.1	
306.21	4360.8	
306.42	3138.9	
306.63	4587.4	
306.83	4716.5	
307.04	5231.9	
307.25	3418.1	
307.46	3365.5	
307.67	4300.1	
307.88	5132.2	
308.09	3133.4	
308.29	3149.8	
308.5	4928.1	
308.71	5313.8	
308.92	3317.7	
309.13	3001	
309.34	4789.5	
309.55	4775.2	
309.75	3810.6	
309.96	3453.6	
310.17	5210.7	
310.38	4655.7	
310.59	3638.6	
310.8	2944.3	
311.01	4956.1	
311.21	4806.6	
311.42	2997.5	
311.63	3018	
311.84	4668	
312.05	4941.7	
312.26	3420.1	
312.46	3672.7	
312.67	4724	
312.88	4483	
313.09	3005.7	
313.3	2951.8	
313.51	5447.6	
313.71	5701.5	
313.92	3060.3	
314.13	3164.1	
314.34	4968.4	
314.55	4841.4	
314.76	3823.6	
314.96	3322.5	
315.17	4992.9	
315.38	5189.6	
315.59	3041.2	
315.8	2886.3	
316.01	5503.6	
316.21	5518.6	
316.42	2954.5	
316.63	3302.7	
316.84	4749.2	
317.05	5361.6	
317.26	3498.6	
317.46	3150.5	
317.67	4799.8	
317.88	5195	
318.09	3517.7	
318.3	2826.2	
318.5	4641.4	
318.71	5093.3	
318.92	4680.3	
319.13	3463.8	
319.34	5242.8	
319.54	5350	
319.75	2865.1	
319.96	2727.9	
320.17	5107	
320.38	5305.6	
320.58	2781.8	
320.79	3262.4	
321	5351.3	
321.21	5427.1	
321.42	3300.6	
321.62	2790.7	
321.83	4523.3	
322.04	4796.3	
322.25	3186.6	
322.46	3037.1	
322.66	4977.9	
322.87	5080.3	
323.08	3661.8	
323.29	2919.7	
323.5	5705.6	
323.7	4510.3	
323.91	3969	
324.12	3639.9	
324.33	4937	
324.53	5139.7	
324.74	3486.3	
324.95	3650.8	
325.16	4427	
325.37	4743.8	
325.57	2983.2	
325.78	3082.2	
325.99	4957.4	
326.2	4423.6	
326.4	4231.1	
326.61	2816	
326.82	4801.1	
327.03	4932.9	
327.24	4207.9	
327.44	3935.5	
327.65	5083.7	
327.86	4225.6	
328.07	3457.7	
328.27	2938.8	
328.48	5473.5	
328.69	4489.1	
328.9	4238.6	
329.1	3177.1	
329.31	4795	
329.52	5470.1	
329.73	3046.7	
329.93	3318.4	
330.14	4858.5	
330.35	5031.2	
330.56	4745.8	
330.76	3649.5	
330.97	4744.5	
331.18	4907.6	
331.39	3311.6	
331.59	2795.5	
331.8	5319.3	
332.01	5413.5	
332.22	3093.1	
332.42	3444	
332.63	5003.9	
332.84	4590.2	
333.05	3424.2	
333.25	3105.4	
333.46	4680.3	
333.67	4817.5	
333.88	3191.4	
334.08	3443.3	
334.29	6225.8	
334.5	5337	
334.7	2964.1	
334.91	4223.6	
335.12	4512.4	
335.33	5194.3	
335.53	3369.6	
335.74	4732.2	
335.95	4720.6	
336.16	4527.4	
336.36	3339.6	
336.57	3790.1	
336.78	4433.2	
336.98	5271.5	
337.19	4055.7	
337.4	3284.3	
337.61	5830.6	
337.81	4468	
338.02	3109.5	
338.23	3900	
338.43	5507	
338.64	4601.8	
338.85	3083.6	
339.05	3870.7	
339.26	5582.1	
339.47	4423.6	
339.68	3016	
339.88	4371	
340.09	5112.4	
340.3	5259.2	
340.5	3541.6	
340.71	2776.4	
340.92	4489.1	
341.13	5399.1	
341.33	2919.7	
341.54	3538.2	
341.75	5070.8	
341.95	4724.7	
342.16	3381.9	
342.37	3609.9	
342.57	4515.1	
342.78	4816.8	
342.99	3672	
343.19	2822.8	
343.4	5157.5	
343.61	5041.4	
343.81	3248.8	
344.02	2946.3	
344.23	5203.9	
344.43	5487.2	
344.64	3717.1	
344.85	3667.2	
345.06	5128.1	
345.26	5319.9	
345.47	3470.6	
345.68	4019.5	
345.88	4431.8	
346.09	5240.8	
346.3	3556	
346.5	2719.7	
346.71	4878.3	
346.92	4585.4	
347.12	2877.4	
347.33	3431	
347.54	5315.2	
347.74	5562.3	
347.95	3482.2	
348.16	2660.3	
348.36	4744.5	
348.57	4558.1	
348.78	3472.7	
348.98	3658.4	
349.19	4824.3	
349.39	4454.3	
349.6	2866.5	
349.81	3155.2	
350.01	5130.8	
350.22	4645.5	
350.43	3334.1	
350.63	3972.4	
350.84	4898.1	
351.05	4724	
351.25	3102.7	
351.46	2882.2	
351.67	5280.3	
351.87	4634.6	
352.08	3332	
352.29	3648.1	
352.49	5231.2	
352.7	5287.2	
352.9	2994.1	
353.11	3649.5	
353.32	5772.5	
353.52	4752.7	
353.73	3053.5	
353.94	3701.4	
354.14	5151.3	
354.35	4975.9	
354.55	3135.4	
354.76	3433.1	
354.97	5156.8	
355.17	4964.3	
355.38	2980.5	
355.59	3964.2	
355.79	4671.4	
356	4993.6	
356.2	3450.8	
356.41	3020.8	
356.62	4518.5	
356.82	4898.7	
357.03	3673.4	
357.24	3355.9	
357.44	4724.7	
357.65	4849.6	
357.85	4367	
358.06	3532.1	
358.27	4528.7	
358.47	4730.1	
358.68	3007.8	
358.88	3710.9	
359.09	5216.2	
359.3	5416.9	
359.5	4225.6	
359.71	3862.5	
359.91	5859.2	
360.12	5316.5	
360.33	3796.9	
360.53	4155.3	
360.74	4857.8	
360.94	4894.6	
361.15	3973.1	
361.36	3373	
361.56	5473.5	
361.77	5089.9	
361.97	4360.8	
362.18	3559.4	
362.38	5552	
362.59	4822.3	
362.8	3439.2	
363	3244	
363.21	4689.2	
363.41	5199.1	
363.62	3795.6	
363.83	4599.1	
364.03	5391.6	
364.24	6096.8	
364.44	4722.6	
364.65	4708.3	
364.85	5133.6	
365.06	4866	
365.27	3545	
365.47	3604.4	
365.68	6000.5	
365.88	5201.8	
366.09	3967.6	
366.29	3663.1	
366.5	5429.8	
366.71	5733.6	
366.91	4779.3	
367.12	4167.6	
367.32	6320.7	
367.53	5707	
367.73	4178.5	
367.94	4980.7	
368.14	5640.8	
368.35	6368.5	
368.56	4084.3	
368.76	3617.4	
368.97	5781.4	
369.17	7025.9	
369.38	3736.2	
369.58	3943.7	
369.79	5010.7	
369.99	6069.5	
370.2	4820.9	
370.4	3998.3	
370.61	5594.4	
370.82	6564.4	
371.02	3970.3	
371.23	3418.7	
371.43	4973.2	
371.64	6118.6	
371.84	4119.1	
372.05	5019.6	
372.25	7110.5	
372.46	5905.7	
372.66	4123.9	
372.87	4123.9	
373.07	5958.2	
373.28	7368.6	
373.48	4971.1	
373.69	4816.1	
373.9	5689.9	
374.1	5672.2	
374.31	5083.7	
374.51	4627	
374.72	6492.1	
374.92	5463.3	
375.13	5284.4	
375.33	4627	
375.54	6189	
375.74	5740.5	
375.95	4802.5	
376.15	5720.7	
376.36	6354.2	
376.56	6173.9	
376.77	4967	
376.97	5251	
377.18	7256	
377.38	6462	
377.59	5569.1	
377.79	4596.3	
378	6380.1	
378.2	6783.6	
378.41	4761.5	
378.61	4661.9	
378.82	6875.7	
379.02	6201.2	
379.23	4932.2	
379.43	5887.2	
379.64	6978.8	
379.84	6708.5	
380.05	4786.8	
380.25	4717.2	
380.46	6766.5	
380.66	6292.7	
380.87	5827.8	
381.07	6154.8	
381.28	7233.4	
381.48	6653.9	
381.69	4803.2	
381.89	4783.4	
382.1	5745.9	
382.3	6742.6	
382.51	5692.7	
382.71	6349.4	
382.91	6576.7	
383.12	7073.7	
383.32	5008.6	
383.53	5148.6	
383.73	6452.5	
383.94	6475.7	
384.14	5182	
384.35	4431.1	
384.55	6204.7	
384.76	6515.3	
384.96	5016.2	
385.17	5167	
385.37	6569.2	
385.58	5850.4	
385.78	5134.9	
385.98	4241.3	
386.19	6062	
386.39	6402.6	
386.6	4679.6	
386.8	4896.7	
387.01	6513.2	
387.21	6625.2	
387.42	5236.7	
387.62	5776	
387.83	6066.8	
388.03	6462	
388.23	5110.4	
388.44	5659.9	
388.64	5847.6	
388.85	5993.7	
389.05	5511.1	
389.26	5985.5	
389.46	7736.5	
389.67	7197.9	
389.87	5578.7	
390.07	5565	
390.28	6592.4	
390.48	6189	
390.69	4996.4	
390.89	5286.5	
391.1	6382.8	
391.3	7068.9	
391.5	6176.7	
391.71	6577.4	
391.91	6976.7	
392.12	7656.7	
392.32	6238.1	
392.53	5704.3	
392.73	6546.7	
392.93	6705	
393.14	5416.9	
393.34	6219.7	
393.55	6952.2	
393.75	6554.2	
393.95	5283.8	
394.16	5184.8	
394.36	6337.1	
394.57	6801.3	
394.77	4848.2	
394.98	5047.6	
395.18	6382.2	
395.38	6417	
395.59	6001.9	
395.79	5176.6	
396	6713.9	
396.2	7076.4	
396.4	6025.1	
396.61	6005.3	
396.81	7325.6	
397.02	6824.5	
397.22	6412.9	
397.42	6466.8	
397.63	7447.1	
397.83	6944.7	
398.04	5517.9	
398.24	6102.3	
398.44	7266.9	
398.65	6615.6	
398.85	5466	
399.05	5580	
399.26	7036.8	
399.46	8327.7	
399.67	6004	
399.87	5751.4	
400.07	7364.5	
400.28	7641	
400.48	5886.5	
400.69	6831.3	
400.89	7884	
401.09	8257.4	
401.3	5983.5	
401.5	6859.3	
401.7	8591.2	
401.91	8853.4	
402.11	6374	
402.32	6425.8	
402.52	8185	
402.72	7881.3	
402.93	6677.7	
403.13	5709.1	
403.33	8611.7	
403.54	7260	
403.74	6130.3	
403.94	6745.3	
404.15	7263.5	
404.35	8157.1	
404.56	5757.5	
404.76	7191.1	
404.96	7645.8	
405.17	7288	
405.37	6674.3	
405.57	6386.2	
405.78	7902.4	
405.98	7347.4	
406.18	6171.9	
406.39	6931.7	
406.59	7903.1	
406.79	7521.5	
407	5940.5	
407.2	5934.3	
407.4	7938.6	
407.61	8000	
407.81	6036	
408.01	7539.9	
408.22	7162.4	
408.42	8832.9	
408.62	7266.2	
408.83	6974.7	
409.03	8172.1	
409.23	8156.4	
409.44	7298.3	
409.64	7519.5	
409.84	9435	
410.05	9381.7	
410.25	7854	
410.45	7650.5	
410.66	9381.1	
410.86	11268	
411.06	8443.8	
411.27	8106.5	
411.47	11414	
411.67	9713.5	
411.88	8555.7	
412.08	9000.8	
412.28	10361	
412.49	10714	
412.69	8666.3	
412.89	8766.7	
413.09	10800	
413.3	10748	
413.5	9030.2	
413.7	8588.5	
413.91	10126	
414.11	10839	
414.31	8981.7	
414.52	9480.7	
414.72	10647	
414.92	10821	
415.12	8890.9	
415.33	9523.1	
415.53	11113	
415.73	11335	
415.94	9671.9	
416.14	9263.6	
416.34	10423	
416.55	10089	
416.75	10249	
416.95	9848	
417.15	11466	
417.36	11618	
417.56	10568	
417.76	9888.3	
417.97	11637	
418.17	11497	
418.37	9572.9	
418.57	9764.7	
418.78	11357	
418.98	10884	
419.18	10413	
419.38	10236	
419.59	11057	
419.79	10582	
419.99	9498.5	
420.2	9701.9	
420.4	11424	
420.6	11205	
420.8	9356.5	
421.01	9170.8	
421.21	11342	
421.41	11281	
421.61	9591.3	
421.82	9426.8	
422.02	10943	
422.22	11505	
422.42	10241	
422.63	9463	
422.83	10910	
423.03	11828	
423.23	9723.8	
423.44	8901.2	
423.64	10824	
423.84	10346	
424.04	9261.6	
424.25	8882.7	
424.45	11329	
424.65	11314	
424.85	8706.6	
425.06	9243.2	
425.26	11392	
425.46	10550	
425.66	9466.4	
425.87	9205.6	
426.07	11015	
426.27	10955	
426.47	9409.1	
426.67	8768	
426.88	11230	
427.08	10757	
427.28	9557.9	
427.48	8626	
427.69	9899.9	
427.89	10393	
428.09	9366	
428.29	8585.1	
428.5	11004	
428.7	10647	
428.9	8568.7	
429.1	8974.9	
429.3	10567	
429.51	10908	
429.71	8789.2	
429.91	9600.9	
430.11	10906	
430.31	11206	
430.52	9265	
430.72	9556.5	
430.92	11416	
431.12	11041	
431.32	9166	
431.53	9293	
431.73	10357	
431.93	11473	
432.13	8948.3	
432.33	8871.8	
432.54	10614	
432.74	10935	
432.94	8973.5	
433.14	9781.8	
433.34	11060	
433.55	10892	
433.75	9733.3	
433.95	11401	
434.15	11069	
434.35	10768	
434.56	9167.4	
434.76	9090.3	
434.96	11227	
435.16	11533	
435.36	9179.7	
435.56	10292	
435.77	11167	
435.97	11206	
436.17	10925	
436.37	10335	
436.57	11013	
436.78	11193	
436.98	10387	
437.18	10701	
437.38	11845	
437.58	11307	
437.78	10882	
437.99	9695.8	
438.19	11523	
438.39	12725	
438.59	9798.2	
438.79	9215.9	
438.99	11967	
439.2	10950	
439.4	9007	
439.6	9035	
439.8	11163	
440	12060	
440.2	10068	
440.4	10137	
440.61	11735	
440.81	12145	
441.01	9748.3	
441.21	10760	
441.41	12610	
441.61	12141	
441.81	11009	
442.02	11724	
442.22	12936	
442.42	12348	
442.62	10134	
442.82	10021	
443.02	12634	
443.22	12149	
443.43	10654	
443.63	10148	
443.83	11619	
444.03	11711	
444.23	11294	
444.43	10884	
444.63	12421	
444.83	13072	
445.04	10648	
445.24	11527	
445.44	12478	
445.64	12544	
445.84	10862	
446.04	11012	
446.24	11730	
446.44	12538	
446.65	10012	
446.85	10494	
447.05	11518	
447.25	12442	
447.45	10301	
447.65	9890.3	
447.85	11896	
448.05	11269	
448.25	10772	
448.46	10544	
448.66	11884	
448.86	11419	
449.06	9813.9	
449.26	10691	
449.46	12121	
449.66	11311	
449.86	10512	
450.06	10365	
450.26	11604	
450.47	12030	
450.67	10496	
450.87	11017	
451.07	12269	
451.27	12032	
451.47	10002	
451.67	10710	
451.87	11871	
452.07	12469	
452.27	10482	
452.47	10291	
452.67	12009	
452.88	12446	
453.08	9637.7	
453.28	11363	
453.48	13093	
453.68	11709	
453.88	10293	
454.08	10251	
454.28	12428	
454.48	12093	
454.68	10847	
454.88	11142	
455.08	12403	
455.28	12555	
455.48	10064	
455.68	10962	
455.89	13065	
456.09	12832	
456.29	10701	
456.49	10901	
456.69	13172	
456.89	12413	
457.09	11447	
457.29	11741	
457.49	12871	
457.69	13179	
457.89	11551	
458.09	10864	
458.29	12878	
458.49	13598	
458.69	11913	
458.89	11543	
459.09	14064	
459.29	13981	
459.49	11505	
459.69	12293	
459.9	13424	
460.1	13379	
460.3	11330	
460.5	11340	
460.7	13457	
460.9	13310	
461.1	11097	
461.3	12154	
461.5	14214	
461.7	13919	
461.9	12031	
462.1	11809	
462.3	13754	
462.5	14147	
462.7	11917	
462.9	12170	
463.1	15033	
463.3	15073	
463.5	12328	
463.7	13442	
463.9	14239	
464.1	14594	
464.3	12990	
464.5	12912	
464.7	14835	
464.9	14944	
465.1	14240	
465.3	13532	
465.5	15053	
465.7	15343	
465.9	13949	
466.1	13183	
466.3	15409	
466.5	14885	
466.7	14612	
466.9	13295	
467.1	15297	
467.3	15939	
467.5	14545	
467.7	13691	
467.9	16123	
468.1	16944	
468.3	14117	
468.5	14500	
468.7	15394	
468.9	15210	
469.1	13989	
469.3	14637	
469.5	17079	
469.7	15243	
469.9	14251	
470.1	13937	
470.3	15674	
470.5	15616	
470.7	14949	
470.9	13861	
471.1	15425	
471.3	15335	
471.5	13777	
471.69	15034	
471.89	15199	
472.09	14582	
472.29	14342	
472.49	14196	
472.69	14902	
472.89	15341	
473.09	13645	
473.29	13300	
473.49	14894	
473.69	14681	
473.89	14153	
474.09	13546	
474.29	15715	
474.49	15459	
474.69	14008	
474.89	13408	
475.09	14793	
475.29	14777	
475.49	12867	
475.69	13300	
475.88	15819	
476.08	14885	
476.28	12964	
476.48	12925	
476.68	15070	
476.88	14854	
477.08	12743	
477.28	13111	
477.48	14191	
477.68	14652	
477.88	12635	
478.08	12792	
478.28	15227	
478.48	14470	
478.67	12996	
478.87	12164	
479.07	15175	
479.27	14464	
479.47	13037	
479.67	13077	
479.87	14864	
480.07	15292	
480.27	12493	
480.47	13641	
480.67	14386	
480.87	15045	
481.06	12695	
481.26	13403	
481.46	14653	
481.66	14517	
481.86	13005	
482.06	13717	
482.26	14321	
482.46	14930	
482.66	12893	
482.86	12717	
483.05	14577	
483.25	13980	
483.45	14907	
483.65	12972	
483.85	14186	
484.05	14474	
484.25	13222	
484.45	13829	
484.65	14988	
484.84	15336	
485.04	13049	
485.24	13216	
485.44	15545	
485.64	14227	
485.84	12660	
486.04	13695	
486.24	14537	
486.44	14964	
486.63	12551	
486.83	13497	
487.03	14783	
487.23	15049	
487.43	12855	
487.63	14831	
487.83	15096	
488.02	15754	
488.22	13872	
488.42	14377	
488.62	15687	
488.82	14977	
489.02	13477	
489.22	13696	
489.41	15574	
489.61	15599	
489.81	13308	
490.01	13375	
490.21	15698	
490.41	16252	
490.61	13571	
490.8	13650	
491	15418	
491.2	14862	
491.4	14023	
491.6	13201	
491.8	15184	
491.99	15145	
492.19	12971	
492.39	13232	
492.59	15347	
492.79	15560	
492.99	13820	
493.18	13262	
493.38	15730	
493.58	16514	
493.78	13913	
493.98	13644	
494.18	15691	
494.37	15424	
494.57	14655	
494.77	14479	
494.97	16209	
495.17	16584	
495.37	14436	
495.56	14732	
495.76	16900	
495.96	16649	
496.16	15724	
496.36	14986	
496.55	16959	
496.75	16701	
496.95	15332	
497.15	15129	
497.35	17023	
497.54	17017	
497.74	15000	
497.94	16470	
498.14	17661	
498.34	17372	
498.53	14770	
498.73	15519	
498.93	16614	
499.13	17068	
499.33	15393	
499.52	15491	
499.72	17382	
499.92	17367	
500.12	15375	
500.32	15461	
500.51	17379	
500.71	17452	
500.91	16176	
501.11	15807	
501.31	17455	
501.5	17702	
501.7	16371	
501.9	15611	
502.1	17169	
502.29	17486	
502.49	16029	
502.69	16098	
502.89	17339	
503.09	17398	
503.28	14863	
503.48	15143	
503.68	16584	
503.88	16522	
504.07	15595	
504.27	15085	
504.47	16784	
504.67	16722	
504.86	15431	
505.06	15164	
505.26	16240	
505.46	17662	
505.65	14955	
505.85	14984	
506.05	16055	
506.25	16440	
506.44	14097	
506.64	14670	
506.84	15659	
507.04	16283	
507.23	14051	
507.43	14478	
507.63	16969	
507.83	15741	
508.02	14390	
508.22	13871	
508.42	17335	
508.62	15496	
508.81	13914	
509.01	14566	
509.21	15114	
509.4	15390	
509.6	14093	
509.8	13671	
510	15182	
510.19	16412	
510.39	13387	
510.59	13747	
510.79	15154	
510.98	16407	
511.18	13958	
511.38	13921	
511.57	16008	
511.77	15741	
511.97	14381	
512.17	13580	
512.36	15945	
512.56	15634	
512.76	13646	
512.95	13229	
513.15	15874	
513.35	14646	
513.55	14172	
513.74	13405	
513.94	15727	
514.14	15162	
514.33	14280	
514.53	14003	
514.73	15243	
514.92	15316	
515.12	13764	
515.32	13630	
515.51	15635	
515.71	15850	
515.91	14882	
516.11	13751	
516.3	16961	
516.5	15254	
516.7	14128	
516.89	14654	
517.09	15330	
517.29	15378	
517.48	14351	
517.68	13813	
517.88	15144	
518.07	15664	
518.27	14259	
518.47	13530	
518.66	15966	
518.86	14875	
519.06	13283	
519.25	13544	
519.45	15096	
519.65	16340	
519.84	14166	
520.04	14766	
520.24	16632	
520.43	15676	
520.63	13904	
520.83	13711	
521.02	14982	
521.22	15450	
521.42	13852	
521.61	14334	
521.81	15032	
522.01	15124	
522.2	13865	
522.4	13516	
522.6	15494	
522.79	14589	
522.99	13538	
523.18	13226	
523.38	15512	
523.58	15500	
523.77	14886	
523.97	13359	
524.17	17176	
524.36	16430	
524.56	14517	
524.76	14558	
524.95	15906	
525.15	15692	
525.34	14386	
525.54	14722	
525.74	16347	
525.93	15684	
526.13	15595	
526.33	14735	
526.52	16889	
526.72	16446	
526.91	15887	
527.11	15191	
527.31	16836	
527.5	17273	
527.7	15100	
527.89	14354	
528.09	16148	
528.29	16595	
528.48	15307	
528.68	15082	
528.87	16866	
529.07	16827	
529.27	15223	
529.46	14918	
529.66	16931	
529.85	17148	
530.05	14857	
530.25	15402	
530.44	17998	
530.64	16513	
530.83	14999	
531.03	15115	
531.23	17042	
531.42	16888	
531.62	15694	
531.81	15119	
532.01	17202	
532.21	17458	
532.4	15213	
532.6	15561	
532.79	17972	
532.99	17617	
533.18	15715	
533.38	16417	
533.58	17386	
533.77	17745	
533.97	15849	
534.16	16597	
534.36	18181	
534.55	17600	
534.75	16757	
534.95	16075	
535.14	18414	
535.34	17632	
535.53	15762	
535.73	17333	
535.92	18587	
536.12	17322	
536.31	15801	
536.51	16780	
536.71	17740	
536.9	17456	
537.1	15761	
537.29	15898	
537.49	17909	
537.68	17100	
537.88	16115	
538.07	15520	
538.27	17572	
538.46	18299	
538.66	15482	
538.86	15813	
539.05	17417	
539.25	17727	
539.44	16362	
539.64	15746	
539.83	17255	
540.03	18152	
540.22	15648	
540.42	15558	
540.61	17232	
540.81	17472	
541	15760	
541.2	16518	
541.39	16980	
541.59	17234	
541.78	16216	
541.98	15261	
542.18	16648	
542.37	16485	
542.57	15526	
542.76	16014	
542.96	16438	
543.15	16977	
543.35	15401	
543.54	14803	
543.74	17010	
543.93	16671	
544.13	15109	
544.32	15819	
544.52	16672	
544.71	15920	
544.91	14199	
545.1	15143	
545.3	16046	
545.49	16539	
545.69	14057	
545.88	14456	
546.08	17268	
546.27	16749	
546.47	14908	
546.66	14207	
546.86	16533	
547.05	16910	
547.24	14427	
547.44	14321	
547.63	15653	
547.83	16523	
548.02	14624	
548.22	14864	
548.41	15383	
548.61	16468	
548.8	14018	
549	14082	
549.19	15782	
549.39	16151	
549.58	13687	
549.78	14156	
549.97	16109	
550.17	15529	
550.36	14676	
550.55	15603	
550.75	15428	
550.94	16190	
551.14	13859	
551.33	13934	
551.53	14916	
551.72	15815	
551.92	14080	
552.11	13708	
552.31	15784	
552.5	15715	
552.69	15103	
552.89	13439	
553.08	15692	
553.28	15384	
553.47	13700	
553.67	14523	
553.86	16148	
554.06	14611	
554.25	13018	
554.44	13487	
554.64	16567	
554.83	16183	
555.03	13527	
555.22	13702	
555.42	15537	
555.61	15340	
555.8	13414	
556	13616	
556.19	14687	
556.39	15462	
556.58	13410	
556.78	13408	
556.97	15251	
557.16	14876	
557.36	14332	
557.55	13106	
557.75	14166	
557.94	15695	
558.13	13121	
558.33	12886	
558.52	15522	
558.72	14597	
558.91	13024	
559.1	13166	
559.3	14420	
559.49	14029	
559.69	12683	
559.88	13384	
560.07	14836	
560.27	15234	
560.46	13439	
560.66	13426	
560.85	14647	
561.04	13987	
561.24	12706	
561.43	12774	
561.63	14129	
561.82	14261	
562.01	13699	
562.21	12991	
562.4	14582	
562.59	15287	
562.79	12891	
562.98	12663	
563.18	14487	
563.37	15811	
563.56	13112	
563.76	12669	
563.95	14212	
564.14	14259	
564.34	12930	
564.53	12717	
564.73	14571	
564.92	14870	
565.11	13138	
565.31	12638	
565.5	15128	
565.69	14119	
565.89	12828	
566.08	12895	
566.27	14870	
566.47	15358	
566.66	13487	
566.85	12487	
567.05	14795	
567.24	14154	
567.44	12711	
567.63	13837	
567.82	14790	
568.02	14490	
568.21	12687	
568.4	12899	
568.6	14489	
568.79	14402	
568.98	12566	
569.18	12669	
569.37	14481	
569.56	15898	
569.76	13056	
569.95	13759	
570.14	14718	
570.34	14539	
570.53	12553	
570.72	12443	
570.91	15081	
571.11	14235	
571.3	12734	
571.49	13458	
571.69	14354	
571.88	13889	
572.07	13110	
572.27	13096	
572.46	13818	
572.65	14691	
572.85	12512	
573.04	12772	
573.23	14934	
573.43	14293	
573.62	12311	
573.81	12860	
574	14371	
574.2	14188	
574.39	12723	
574.58	12676	
574.78	15173	
574.97	14507	
575.16	13191	
575.36	13272	
575.55	14850	
575.74	14930	
575.93	12386	
576.13	13371	
576.32	14389	
576.51	14859	
576.71	12810	
576.9	13923	
577.09	15096	
577.28	14730	
577.48	13248	
577.67	12283	
577.86	14370	
578.05	14783	
578.25	12945	
578.44	13055	
578.63	14498	
578.83	15309	
579.02	12412	
579.21	13693	
579.4	14687	
579.6	14445	
579.79	13059	
579.98	14779	
580.17	14996	
580.37	15154	
580.56	12615	
580.75	13312	
580.94	15334	
581.14	15355	
581.33	13627	
581.52	12838	
581.71	14960	
581.91	15375	
582.1	12643	
582.29	12927	
582.48	14561	
582.68	14706	
582.87	13528	
583.06	13161	
583.25	14952	
583.45	14478	
583.64	13736	
583.83	14331	
584.02	14544	
584.21	15044	
584.41	13570	
584.6	13256	
584.79	14797	
584.98	15286	
585.18	12812	
585.37	12712	
585.56	14419	
585.75	14987	
585.94	12913	
586.14	13427	
586.33	15191	
586.52	14633	
586.71	13155	
586.91	12977	
587.1	13987	
587.29	14688	
587.48	12588	
587.67	12546	
587.87	14576	
588.06	14401	
588.25	13534	
588.44	12826	
588.63	13919	
588.83	14357	
589.02	12258	
589.21	12059	
589.4	13521	
589.59	13295	
589.78	11157	
589.98	11268	
590.17	12556	
590.36	12961	
590.55	10375	
590.74	10755	
590.94	13462	
591.13	12323	
591.32	10484	
591.51	10025	
591.7	12475	
591.89	12144	
592.09	10012	
592.28	10335	
592.47	11554	
592.66	13107	
592.85	10136	
593.05	10374	
593.24	12054	
593.43	12803	
593.62	10424	
593.81	10886	
594	12222	
594.19	12405	
594.39	10399	
594.58	10432	
594.77	12572	
594.96	12939	
595.15	10363	
595.34	10903	
595.54	12460	
595.73	11761	
595.92	9812.5	
596.11	10593	
596.3	12751	
596.49	11738	
596.68	10457	
596.88	10800	
597.07	12464	
597.26	11638	
597.45	9954.5	
597.64	10998	
597.83	11897	
598.02	12384	
598.22	10179	
598.41	10776	
598.6	12287	
598.79	11832	
598.98	10174	
599.17	11045	
599.36	12183	
599.55	13094	
599.74	11869	
599.94	11767	
600.13	12691	
600.32	11756	
600.51	10081	
600.7	10299	
600.89	13211	
601.08	13192	
601.27	10110	
601.47	10849	
601.66	12674	
601.85	13146	
602.04	10742	
602.23	10714	
602.42	11962	
602.61	12471	
602.8	10540	
602.99	10297	
603.18	12161	
603.37	12422	
603.57	10815	
603.76	11342	
603.95	12934	
604.14	12661	
604.33	10436	
604.52	10666	
604.71	12484	
604.9	12030	
605.09	11157	
605.28	11066	
605.47	12906	
605.66	12529	
605.86	10883	
606.05	10450	
606.24	12781	
606.43	11612	
606.62	10697	
606.81	11236	
607	12628	
607.19	12054	
607.38	10129	
607.57	10285	
607.76	11845	
607.95	11491	
608.14	10602	
608.33	11059	
608.52	11843	
608.72	12572	
608.91	9972.9	
609.1	9902.6	
609.29	11965	
609.48	11471	
609.67	10580	
609.86	9968.1	
610.05	11524	
610.24	11739	
610.43	9804.3	
610.62	9454.1	
610.81	12687	
611	12467	
611.19	9878	
611.38	10334	
611.57	11976	
611.76	12872	
611.95	9621.4	
612.14	9436.4	
612.33	11742	
612.52	11528	
612.71	10015	
612.9	9467.1	
613.09	11018	
613.28	12897	
613.47	9910.8	
613.66	10497	
613.85	11854	
614.04	11291	
614.24	9861	
614.43	9222	
614.62	11863	
614.81	11668	
615	10201	
615.19	10183	
615.38	11233	
615.57	11529	
615.76	10075	
615.95	10863	
616.14	11882	
616.33	11566	
616.52	10350	
616.71	10555	
616.9	11793	
617.09	11706	
617.28	9820	
617.47	10645	
617.66	11032	
617.85	11142	
618.04	10593	
618.22	10100	
618.41	11399	
618.6	12093	
618.79	10180	
618.98	9886.9	
619.17	12357	
619.36	11073	
619.55	10079	
619.74	10088	
619.93	11799	
620.12	11467	
620.31	10507	
620.5	10752	
620.69	12337	
620.88	12698	
621.07	11282	
621.26	10460	
621.45	12051	
621.64	11960	
621.83	10516	
622.02	9978.4	
622.21	12125	
622.4	11940	
622.59	10911	
622.78	10693	
622.97	11531	
623.16	12383	
623.35	10593	
623.54	9810.5	
623.72	11712	
623.91	11673	
624.1	10705	
624.29	9651.4	
624.48	12699	
624.67	12094	
624.86	10611	
625.05	9860.3	
625.24	12682	
625.43	11502	
625.62	11883	
625.81	9979.1	
626	12170	
626.19	11619	
626.38	10553	
626.56	10090	
626.75	11487	
626.94	12022	
627.13	10451	
627.32	9452.1	
627.51	11845	
627.7	12771	
627.89	9555.8	
628.08	10368	
628.27	11157	
628.46	11269	
628.65	9618.6	
628.83	9367.4	
629.02	11693	
629.21	11028	
629.4	9882.1	
629.59	10084	
629.78	11129	
629.97	11902	
630.16	10119	
630.35	9802.9	
630.54	12265	
630.72	12032	
630.91	9776.3	
631.1	10060	
631.29	11584	
631.48	11636	
631.67	10316	
631.86	9798.2	
632.05	11266	
632.24	11304	
632.42	9633.6	
632.61	10037	
632.8	11313	
632.99	11105	
633.18	10060	
633.37	10380	
633.56	11539	
633.75	11466	
633.93	10058	
634.12	9917.6	
634.31	12190	
634.5	11900	
634.69	9909.4	
634.88	10246	
635.07	11500	
635.25	11892	
635.44	10539	
635.63	10763	
635.82	11332	
636.01	10771	
636.2	10330	
636.39	10198	
636.57	12205	
636.76	11796	
636.95	9672.6	
637.14	10789	
637.33	11727	
637.52	12292	
637.7	9435	
637.89	10246	
638.08	11465	
638.27	12484	
638.46	10340	
638.65	10614	
638.83	12384	
639.02	11103	
639.21	10193	
639.4	10529	
639.59	11571	
639.78	11170	
639.96	9538.1	
640.15	9572.2	
640.34	11353	
640.53	11390	
640.72	9363.3	
640.91	9500.5	
641.09	10722	
641.28	11843	
641.47	9497.8	
641.66	10112	
641.85	11338	
642.03	11301	
642.22	9866.4	
642.41	9636.4	
642.6	10701	
642.79	10269	
642.97	9204.3	
643.16	9804.3	
643.35	10707	
643.54	10540	
643.73	9115.5	
643.91	9731.9	
644.1	10314	
644.29	10811	
644.48	9122.3	
644.67	9084.1	
644.85	10389	
645.04	10535	
645.23	8635.6	
645.42	8850.6	
645.6	10078	
645.79	10936	
645.98	8533.9	
646.17	7828.7	
646.36	9643.2	
646.54	10135	
646.73	8983.8	
646.92	8159.1	
647.11	9719.7	
647.29	10434	
647.48	8140	
647.67	7847.1	
647.86	10637	
648.05	10493	
648.23	8256.7	
648.42	9212.4	
648.61	10070	
648.8	9898.5	
648.98	7901.7	
649.17	8184.4	
649.36	9468.4	
649.55	9133.9	
649.73	7989.1	
649.92	8615.1	
650.11	9508	
650.3	9751.7	
650.48	8231.5	
650.67	8016.4	
650.86	10019	
651.05	9077.3	
651.23	8057.4	
651.42	7983.7	
651.61	9409.1	
651.79	9454.1	
651.98	8207.6	
652.17	7828.7	
652.36	9794.8	
652.54	8997.4	
652.73	7844.4	
652.92	7785	
653.11	9643.2	
653.29	9783.8	
653.48	7299	
653.67	7976.8	
653.85	9566.1	
654.04	10272	
654.23	8168	
654.42	7869.7	
654.6	9108.7	
654.79	9645.9	
654.98	7279.8	
655.16	7709.2	
655.35	8659.5	
655.54	8539.3	
655.73	7227.3	
655.91	7094.8	
656.1	9401.5	
656.29	8417.2	
656.47	6811.5	
656.66	8141.4	
656.85	8771.5	
657.03	8774.2	
657.22	7277.1	
657.41	7438.2	
657.59	8863.6	
657.78	8725.7	
657.97	7143.3	
658.16	7783.6	
658.34	9556.5	
658.53	9884.9	
658.72	8471.1	
658.9	8822	
659.09	9186.5	
659.28	9123	
659.46	7552.2	
659.65	7624.6	
659.84	8942.1	
660.02	9441.8	
660.21	7580.9	
660.4	7426.6	
660.58	9692.4	
660.77	9245.9	
660.96	7961.8	
661.14	7171.3	
661.33	10127	
661.52	10056	
661.7	7204.8	
661.89	9938.8	
662.08	8877.3	
662.26	8494.3	
662.45	7441	
662.64	7434.1	
662.82	9488.9	
663.01	8832.2	
663.2	7402	
663.38	8071	
663.57	9325.8	
663.75	9088.2	
663.94	7682.6	
664.13	8688.2	
664.31	8903.2	
664.5	9293	
664.69	7836.9	
664.87	8234.2	
665.06	8562.6	
665.25	9207	
665.43	8472.4	
665.62	8411	
665.8	9396.1	
665.99	8835.6	
666.18	7602.7	
666.36	7745.4	
666.55	9350.3	
666.74	9313.5	
666.92	7369.3	
667.11	8520.9	
667.29	8813.8	
667.48	9249.3	
667.67	8266.3	
667.85	7474.4	
668.04	8774.9	
668.22	8788.5	
668.41	7630.7	
668.6	7824.6	
668.78	8561.9	
668.97	8869.1	
669.15	7821.2	
669.34	7106.5	
669.53	8659.5	
669.71	8970.8	
669.9	7211.6	
670.08	7661.5	
670.27	8649.9	
670.46	9020.6	
670.64	7857.4	
670.83	8018.5	
671.01	8535.9	
671.2	8936	
671.38	7201.3	
671.57	7079.8	
671.76	9442.5	
671.94	9911.5	
672.13	7019.1	
672.31	7813	
672.5	9109.4	
672.69	8651.3	
672.87	7206.1	
673.06	7388.4	
673.24	8901.2	
673.43	8635.6	
673.61	7723.6	
673.8	7371.3	
673.98	9057.5	
674.17	9218.6	
674.36	7825.3	
674.54	7711.3	
674.73	8789.9	
674.91	9113.5	
675.1	7430	
675.28	7184.3	
675.47	8731.2	
675.65	9164.7	
675.84	7421.2	
676.03	7677.8	
676.21	8542.8	
676.4	8082.6	
676.58	7952.3	
676.77	7744.1	
676.95	9688.9	
677.14	8465.6	
677.32	7053.2	
677.51	6867.5	
677.69	9136.7	
677.88	8286.8	
678.06	6950.8	
678.25	7148.1	
678.44	8729.1	
678.62	8397.4	
678.81	6795.8	
678.99	7606.8	
679.18	9275.3	
679.36	8921.6	
679.55	7258	
679.73	7725.6	
679.92	8853.4	
680.1	8424.7	
680.29	8217.1	
680.47	7181.5	
680.66	8415.1	
680.84	9030.2	
681.03	6740.5	
681.21	7552.2	
681.4	8428.1	
681.58	8293.6	
681.77	7008.8	
681.95	6884.6	
682.14	8976.9	
682.32	9316.2	
682.51	7742.7	
682.69	6656.6	
682.88	8283.4	
683.06	8668.4	
683.25	7412.3	
683.43	7684.7	
683.62	8550.3	
683.8	8756.4	
683.99	7756.3	
684.17	7255.3	
684.36	9415.2	
684.54	8370.7	
684.73	6515.3	
684.91	6763.8	
685.1	8462.9	
685.28	7914.7	
685.46	6873	
685.65	6863.4	
685.83	8376.9	
686.02	7751.6	
686.2	6285.2	
686.39	6326.2	
686.57	7574.1	
686.76	8760.5	
686.94	6171.9	
687.13	6438.8	
687.31	8062.2	
687.5	7724.3	
687.68	5991.7	
687.86	6984.3	
688.05	9204.3	
688.23	7410.9	
688.42	6978.8	
688.6	6366.5	
688.79	7822.6	
688.97	7749.5	
689.16	6748.1	
689.34	5854.5	
689.52	8377.6	
689.71	8465.6	
689.89	6934.4	
690.08	6379.4	
690.26	8060.8	
690.45	7879.2	
690.63	7052.5	
690.81	6535.1	
691	7774.8	
691.18	7706.5	
691.37	6627.2	
691.55	8318.8	
691.74	7627.3	
691.92	9171.5	
692.1	6468.2	
692.29	6133	
692.47	7739.3	
692.66	7151.5	
692.84	6203.3	
693.02	6627.2	
693.21	7179.5	
693.39	7684.7	
693.58	6691.4	
693.76	6310.5	
693.94	8564.6	
694.13	8462.9	
694.31	6339.1	
694.5	7055.3	
694.68	7653.9	
694.86	7962.5	
695.05	6733	
695.23	6784.9	
695.42	8385.7	
695.6	10085	
695.78	7197.2	
695.97	6496.2	
696.15	8427.4	
696.34	7811.6	
696.52	6420.4	
696.7	7023.2	
696.89	8169.3	
697.07	7568.6	
697.25	6881.9	
697.44	7978.2	
697.62	8066.9	
697.81	8180.3	
697.99	6559.6	
698.17	6920.8	
698.36	7452.6	
698.54	7944.8	
698.72	6728.3	
698.91	5922	
699.09	7607.5	
699.28	7449.1	
699.46	6386.9	
699.64	6335.1	
699.83	7437.5	
700.01	8293.6	
700.19	6875.7	
700.38	5819	
700.56	8329.1	
700.74	7482.6	
700.93	6059.3	
701.11	6647	
701.29	8079.9	
701.48	8861.6	
701.66	6241.5	
701.84	6421.1	
702.03	7771.4	
702.21	8305.9	
702.39	6064.7	
702.58	6482.5	
702.76	8142	
702.94	8082	
703.13	6077	
703.31	7943.4	
703.49	7463.5	
703.68	8692.9	
703.86	6090.7	
704.04	6926.9	
704.23	7898.3	
704.41	8229.4	
704.59	6344.6	
704.78	7236.8	
704.96	8731.9	
705.14	8243.8	
705.33	6163.7	
705.51	6825.2	
705.69	7786.4	
705.87	8328.4	
706.06	6946.7	
706.24	6042.9	
706.42	7944.8	
706.61	8155.7	
706.79	6917.4	
706.97	6107.7	
707.16	7577.5	
707.34	7961.8	
707.52	6924.2	
707.7	6272.9	
707.89	7694.9	
708.07	7395.9	
708.25	6838.2	
708.44	7025.2	
708.62	7557	
708.8	8486.1	
708.98	7057.3	
709.17	6328.2	
709.35	7907.2	
709.53	7976.2	
709.72	6103.6	
709.9	6401.3	
710.08	8131.8	
710.26	8185	
710.45	7272.3	
710.63	6348	
710.81	7772	
710.99	7805.5	
711.18	6726.2	
711.36	6327.5	
711.54	7599.3	
711.72	8103.1	
711.91	6324.8	
712.09	5999.2	
712.27	7613.7	
712.45	8060.1	
712.64	6444.3	
712.82	5601.2	
713	7101	
713.18	7191.1	
713.37	5638.7	
713.55	6589	
713.73	7826.7	
713.91	6634.1	
714.1	5857.2	
714.28	5335	
714.46	7344	
714.64	6578.8	
714.83	4700.8	
715.01	5269.4	
715.19	6520.7	
715.37	5841.5	
715.55	4869.4	
715.74	5104.9	
715.92	7087.3	
716.1	5458.5	
716.28	5993	
716.47	5145.2	
716.65	6036	
716.83	6017.6	
717.01	5063.9	
717.19	5055.8	
717.38	7673.7	
717.56	5797.8	
717.74	5196.4	
717.92	4515.1	
718.1	6740.5	
718.29	6080.4	
718.47	4272.7	
718.65	4827.7	
718.83	6835.4	
719.01	6784.9	
719.2	4406.5	
719.38	5264.6	
719.56	6605.4	
719.74	7897.7	
719.92	4986.1	
720.11	5766.4	
720.29	6825.9	
720.47	6075	
720.65	4627.7	
720.83	5237.3	
721.02	6253.8	
721.2	5963.7	
721.38	5185.5	
721.56	4548.5	
721.74	5502.9	
721.92	5595.1	
722.11	5480.4	
722.29	5158.8	
722.47	6593.1	
722.65	5980.8	
722.83	4546.5	
723.01	5166.3	
723.2	6026.5	
723.38	6270.9	
723.56	4080.9	
723.74	4938.3	
723.92	5639.4	
724.1	6509.1	
724.29	4457.1	
724.47	5346.6	
724.65	5693.4	
724.83	5563	
725.01	4340.3	
725.19	4937.7	
725.37	5601.2	
725.56	5650.3	
725.74	4268.6	
725.92	4470.7	
726.1	5608.7	
726.28	5916.6	
726.46	4736.3	
726.64	4497.3	
726.83	5896.8	
727.01	5962.3	
727.19	4209.9	
727.37	4858.5	
727.55	5952.8	
727.73	6338.5	
727.91	4246.1	
728.09	4033.1	
728.28	6378.7	
728.46	6606.7	
728.64	4921.3	
728.82	4836.6	
729	7139.2	
729.18	6641.6	
729.36	4284.4	
729.54	6152.8	
729.72	7400.7	
729.91	6184.2	
730.09	5884.5	
730.27	4932.2	
730.45	6144.6	
730.63	6591	
730.81	5411.4	
730.99	4724	
731.17	7039.6	
731.35	5924.8	
731.53	5091.9	
731.71	4830.5	
731.9	6767.9	
732.08	6886	
732.26	5036	
732.44	4767	
732.62	6881.9	
732.8	6540.5	
732.98	5316.5	
733.16	4601.8	
733.34	6516.6	
733.52	5545.9	
733.7	4919.2	
733.88	5103.5	
734.07	6358.3	
734.25	6192.4	
734.43	4575.8	
734.61	5728.9	
734.79	7398.6	
734.97	6096.8	
735.15	4615.4	
735.33	4846.9	
735.51	6424.5	
735.69	6101.6	
735.87	5710.4	
736.05	5040.7	
736.23	6281.8	
736.41	6039.5	
736.59	4827.1	
736.77	4973.8	
736.95	6589	
737.13	6178	
737.32	4694.6	
737.5	4792.2	
737.68	7144.7	
737.86	6085.2	
738.04	4513	
738.22	5906.3	
738.4	5926.8	
738.58	6160.3	
738.76	4971.8	
738.94	4183.3	
739.12	6085.2	
739.3	5868.1	
739.48	5421.7	
739.66	5259.2	
739.84	6196.5	
740.02	6171.9	
740.2	4243.4	
740.38	4552	
740.56	6471.6	
740.74	5554.8	
740.92	4987.5	
741.1	4825.7	
741.28	6010.8	
741.46	5879.7	
741.64	4624.3	
741.82	5070.1	
742	6081.1	
742.18	6030.6	
742.36	4771.8	
742.54	4403.1	
742.72	6488.6	
742.9	5473.5	
743.08	5077.6	
743.26	4098.7	
743.44	6547.4	
743.62	6441.5	
743.8	5156.8	
743.98	4438.6	
744.16	6247	
744.34	5920.7	
744.52	5034.6	
744.7	4941.1	
744.88	6335.7	
745.06	5921.4	
745.24	5042.8	
745.42	5139.7	
745.6	6430.6	
745.78	6240.2	
745.96	4152.6	
746.14	4334.2	
746.32	6823.1	
746.5	6272.2	
746.68	4812.7	
746.86	4348.5	
747.03	6605.4	
747.21	5322.7	
747.39	4807.9	
747.57	4367.6	
747.75	6046.3	
747.93	6321.4	
748.11	4388.1	
748.29	4280.3	
748.47	7259.4	
748.65	5866.7	
748.83	4958.8	
749.01	4687.8	
749.19	6166.4	
749.37	5429.2	
749.55	4584	
749.73	4646.8	
749.91	5900.9	
750.09	5649.7	
750.26	4635.2	
750.44	4192.9	
750.62	5892	
750.8	5846.3	
750.98	4128	
751.16	4343.1	
751.34	6006	
751.52	5446.2	
751.7	4908.3	
751.88	4074.1	
752.06	6284.5	
752.24	6062.7	
752.42	4007.2	
752.59	4247.5	
752.77	5773.2	
752.95	6826.6	
753.13	4832.5	
753.31	4341.7	
753.49	5575.3	
753.67	5883.8	
753.85	4610.7	
754.03	4254.3	
754.21	6091.3	
754.38	6300.9	
754.56	4332.1	
754.74	3603.7	
754.92	5408.7	
755.1	5879.7	
755.28	3558	
755.46	3567.6	
755.64	6496.2	
755.82	6547.4	
755.99	3724.6	
756.17	3784.6	
756.35	4585.4	
756.53	5767.8	
756.71	2951.8	
756.89	3646.7	
757.07	5403.2	
757.25	4785.4	
757.42	4063.2	
757.6	4674.1	
757.78	5443.5	
757.96	4696.7	
758.14	3822.9	
758.32	3408.5	
758.5	4375.8	
758.67	5027.8	
758.85	3635.1	
759.03	3827.7	
759.21	5215.5	
759.39	4711.7	
759.57	3369.6	
759.75	4192.2	
759.92	5727.5	
760.1	5200.5	
760.28	4551.3	
760.46	4694.6	
760.64	4958.8	
760.82	4848.9	
760.99	4280.3	
761.17	3781.2	
761.35	5597.1	
761.53	4790.9	
761.71	3908.2	
761.89	4478.2	
762.06	5546.6	
762.24	5179.3	
762.42	3929.4	
762.6	3786.7	
762.78	5094	
762.96	5667.4	
763.13	4293.2	
763.31	3980.6	
763.49	5675.6	
763.67	5133.6	
763.85	4670.7	
764.02	5057.1	
764.2	6054.5	
764.38	5278.3	
764.56	3911.6	
764.74	4647.5	
764.91	6060.6	
765.09	5181.4	
765.27	3776.5	
765.45	3527.3	
765.63	6148.7	
765.8	5969.8	
765.98	3372.3	
766.16	3597.6	
766.34	4856.4	
766.52	4709.6	
766.69	4330.1	
766.87	3490.4	
767.05	5233.9	
767.23	5836.7	
767.41	3763.5	
767.58	3939.6	
767.76	5573.9	
767.94	5679	
768.12	3796.3	
768.29	4272.7	
768.47	5226.4	
768.65	5811.5	
768.83	3458.3	
769	4340.3	
769.18	4916.5	
769.36	5442.1	
769.54	4378.6	
769.72	3509.5	
769.89	5696.1	
770.07	5763	
770.25	3769.6	
770.43	4818.2	
770.6	6334.4	
770.78	6573.3	
770.96	3855	
771.14	4368.3	
771.31	5559.6	
771.49	5126.1	
771.67	3276.1	
771.85	3412.6	
772.02	4513	
772.2	5089.2	
772.38	4050.9	
772.55	3617.4	
772.73	5320.6	
772.91	5123.3	
773.09	3855	
773.26	3986.7	
773.44	5300.1	
773.62	5031.2	
773.8	3576.4	
773.97	3324.5	
774.15	5317.2	
774.33	5040.7	
774.5	3398.3	
774.68	3741	
774.86	5487.9	
775.04	5058.5	
775.21	3545.7	
775.39	3433.8	
775.57	5240.1	
775.74	5539.1	
775.92	3373.7	
776.1	3265.1	
776.27	5223.7	
776.45	6170.5	
776.63	3460.4	
776.81	3205.1	
776.98	4977.2	
777.16	5770.5	
777.34	3634.5	
777.51	3819.5	
777.69	4966.3	
777.87	4758.1	
778.04	3670.6	
778.22	4059.1	
778.4	4793.6	
778.57	5271.5	
778.75	3054.2	
778.93	3291.8	
779.1	4619.5	
779.28	4508.3	
779.46	3050.1	
779.64	3426.9	
779.81	5404.6	
779.99	6010.8	
780.17	4052.2	
780.34	4179.2	
780.52	4937.7	
780.69	5152	
780.87	3672	
781.05	3338.9	
781.22	5006.6	
781.4	5089.2	
781.58	3489.1	
781.75	2838.5	
781.93	5059.2	
782.11	4521.9	
782.28	4148.5	
782.46	3452.2	
782.64	4433.9	
782.81	5134.9	
782.99	3546.4	
783.17	3480.9	
783.34	5100.1	
783.52	4513.7	
783.69	3644.7	
783.87	4272.1	
784.05	4645.5	
784.22	4597	
784.4	4249.5	
784.58	3775.8	
784.75	5315.2	
784.93	4670.7	
785.1	3449.5	
785.28	3905.5	
785.46	5087.8	
785.63	4537.6	
785.81	3412.6	
785.99	3281.5	
786.16	4722.6	
786.34	5003.9	
786.51	3367.5	
786.69	3667.9	
786.87	4337.6	
787.04	4806.6	
787.22	3219.4	
787.39	3964.2	
787.57	4562.9	
787.75	5355.4	
787.92	4147.8	
788.1	4094.6	
788.27	4526	
788.45	4319.8	
788.63	3861.8	
788.8	2832.3	
788.98	4955.4	
789.15	4283.7	
789.33	2981.2	
789.5	3433.1	
789.68	5303.6	
789.86	5406	
790.03	3751.9	
790.21	3373.7	
790.38	5345.9	
790.56	4718.5	
790.73	3267.9	
790.91	3240.6	
791.09	4561.5	
791.26	5091.9	
791.44	3461.1	
791.61	2980.5	
791.79	4576.5	
791.96	4571.7	
792.14	3033	
792.32	2765.4	
792.49	4539	
792.67	4676.9	
792.84	3202.3	
793.02	2971.6	
793.19	4933.6	
793.37	5474.2	
793.54	2773.6	
793.72	3044.6	
793.89	5498.1	
794.07	4562.9	
794.25	3454.9	
794.42	2853.5	
794.6	5342.5	
794.77	5068	
794.95	3773.7	
795.12	3289.7	
795.3	4577.9	
795.47	5014.1	
795.65	3592.1	
795.82	3437.2	
796	4412.7	
796.17	5894.7	
796.35	3347.7	
796.52	3936.9	
796.7	4971.8	
796.87	5054.4	
797.05	3371.6	
797.22	4012	
797.4	5046.9	
797.57	5851.7	
797.75	3493.8	
797.92	3271.3	
798.1	5318.6	
798.27	4454.3	
798.45	2874.7	
798.62	3052.2	
798.8	4797.7	
798.97	5160.2	
799.15	3743.7	
799.32	3508.2	
799.5	4217.5	
799.67	4816.1	
799.85	3781.9	
800.02	2848	
800.2	4528.7	
800.37	4721.3	
800.55	3830.4	
800.72	3265.1	
800.9	5145.9	
801.07	5510.4	
801.25	4301.4	
801.42	3601.7	
801.6	5219.6	
801.77	4856.4	
801.95	3333.4	
802.12	3225.6	
802.29	4973.8	
802.47	4900.8	
802.64	3571.7	
802.82	2830.3	
802.99	4530.8	
803.17	5236	
803.34	3466.5	
803.52	3183.2	
803.69	5816.2	
803.87	4318.5	
804.04	3497.2	
804.21	3473.4	
804.39	5457.2	
804.56	4671.4	
804.74	2983.9	
804.91	3580.5	
805.09	4584	
805.26	4586.1	
805.44	3031.7	
805.61	3330	
805.78	5060.5	
805.96	5021.6	
806.13	3491.1	
806.31	3764.8	
806.48	4163.5	
806.66	4590.2	
806.83	3552.5	
807	3543.7	
807.18	4516.5	
807.35	4791.6	
807.53	3506.1	
807.7	2895.8	
807.87	5440.1	
808.05	4572.4	
808.22	3807.9	
808.4	2812.5	
808.57	4505.5	
808.74	4265.9	
808.92	3175	
809.09	3975.8	
809.27	4509.6	
809.44	4954	
809.61	2829.6	
809.79	3100.6	
809.96	5600.5	
810.14	5068.7	
810.31	2804.4	
810.48	3356.6	
810.66	4561.5	
810.83	5177.3	
811.01	3168.9	
811.18	3532.1	
811.35	5173.2	
811.53	4090.5	
811.7	3830.4	
811.87	3571.7	
812.05	4590.2	
812.22	4492.6	
812.39	3151.1	
812.57	3059	
812.74	4612	
812.92	5870.2	
813.09	3280.8	
813.26	3601.7	
813.44	5622.4	
813.61	4464.6	
813.78	2826.2	
813.96	3666.5	
814.13	4569	
814.3	4334.9	
814.48	3964.9	
814.65	3396.9	
814.82	5447.6	
815	4365.6	
815.17	3452.9	
815.34	4104.8	
815.52	4474.1	
815.69	4513.7	
815.87	3378.5	
816.04	3373	
816.21	4508.3	
816.38	4143	
816.56	3281.5	
816.73	3121.1	
816.9	5672.9	
817.08	5135.6	
817.25	3136.1	
817.42	3839.3	
817.6	4194.9	
817.77	4562.2	
817.94	3497.2	
818.12	3076	
818.29	4345.1	
818.46	6393.8	
818.64	3239.2	
818.81	3016	
818.98	4284.4	
819.16	5925.5	
819.33	3697.3	
819.5	3481.5	
819.67	4835.9	
819.85	5391.6	
820.02	3373.7	
820.19	3561.4	
820.37	4709	
820.54	4433.2	
820.71	3465.8	
820.88	4230.4	
821.06	4733.5	
821.23	4388.1	
821.4	3467.9	
821.58	3485.6	
821.75	5055.1	
821.92	4611.3	
822.09	2805.7	
822.27	3079.5	
822.44	4551.3	
822.61	4446.1	
822.79	2886.3	
822.96	5245.5	
823.13	4840.7	
823.3	4283.7	
823.48	3239.9	
823.65	3009.8	
823.82	5164.3	
823.99	4176.5	
824.17	4120.5	
824.34	3005.1	
824.51	5819.6	
824.68	4623.6	
824.86	3181.9	
825.03	3455.6	
825.2	4570.4	
825.37	5388.2	
825.55	3145	
825.72	3410.6	
825.89	5773.9	
826.06	5409.4	
826.24	3334.1	
826.41	3366.2	
826.58	5429.2	
826.75	4776.5	
826.92	2722.4	
827.1	2966.8	
827.27	7162.4	
827.44	5790.3	
827.61	3166.8	
827.79	3792.8	
827.96	4393.6	
828.13	4617.5	
828.3	3374.4	
828.47	2833.7	
828.65	4786.1	
828.82	4716.5	
828.99	4268.6	
829.16	3652.9	
829.34	5083.1	
829.51	4962.2	
829.68	3448.8	
829.85	3554.6	
830.02	5375.2	
830.2	5105.6	
830.37	2742.2	
830.54	4018.1	
830.71	5698.8	
830.88	4544.4	
831.05	2793.4	
831.23	3141.6	
831.4	5571.8	
831.57	5965.7	
831.74	3151.1	
831.91	2800.3	
832.09	4839.4	
832.26	5044.8	
832.43	3274	
832.6	3622.9	
832.77	4828.4	
832.94	5393.7	
833.12	2652.1	
833.29	3243.3	
833.46	4896	
833.63	6163.7	
833.8	3548.4	
833.97	3267.2	
834.15	5125.4	
834.32	4941.1	
834.49	3442.6	
834.66	3516.4	
834.83	5221.6	
835	4377.2	
835.17	3165.5	
835.35	3182.5	
835.52	5035.3	
835.69	4909.7	
835.86	3360.7	
836.03	2803	
836.2	5136.3	
836.37	4682.3	
836.55	3300.6	
836.72	3117	
836.89	4756.1	
837.06	5141.8	
837.23	3300.6	
837.4	3606.5	
837.57	5765	
837.75	6201.2	
837.92	2931.3	
838.09	3227.6	
838.26	4726.7	
838.43	5239.4	
838.6	3488.4	
838.77	3056.3	
838.94	5922.7	
839.11	5805.3	
839.29	3324.5	
839.46	2641.9	
839.63	5117.2	
839.8	4831.8	
839.97	3166.8	
840.14	3200.3	
840.31	4894.6	
840.48	5119.2	
840.65	2709.5	
840.82	3092.4	
841	5039.4	
841.17	4966.3	
841.34	2980.5	
841.51	3015.3	
841.68	5011.4	
841.85	4835.3	
842.02	3052.8	
842.19	2595.5	
842.36	4905.6	
842.53	4909.7	
842.7	2966.8	
842.87	3550.5	
843.05	6173.9	
843.22	4779.3	
843.39	2839.2	
843.56	3020.8	
843.73	4653	
843.9	5124	
844.07	4601.1	
844.24	3887	
844.41	6990.4	
844.58	4465.3	
844.75	2876	
844.92	3091.8	
845.09	5070.1	
845.26	5076.2	
845.43	2964.8	
845.6	3066.5	
845.77	5057.8	
845.94	4854.4	
846.12	3192.1	
846.29	3410.6	
846.46	5242.8	
846.63	5016.8	
846.8	2932.7	
846.97	3394.8	
847.14	5425.1	
847.31	4994.3	
847.48	3263.1	
847.65	3566.9	
847.82	5260.5	
847.99	5244.8	
848.16	3895.2	
848.33	3632.4	
848.5	4631.8	
848.67	5423	
848.84	2912.2	
849.01	3001.6	
849.18	4554.7	
849.35	4335.5	
849.52	3613.3	
849.69	2882.2	
849.86	5286.5	
850.03	5303.6	
850.2	2945.7	
850.37	3464.5	
850.54	5315.2	
850.71	4792.2	
850.88	3520.5	
851.05	2856.2	
851.22	4926.7	
851.39	5507	
851.56	2777	
851.73	3319.1	
851.9	4483	
852.07	5208.7	
852.24	3204.4	
852.41	2887	
852.58	4967.7	
852.75	4574.5	
852.92	3186.6	
853.09	2852.8	
853.26	4750.6	
853.43	5334.3	
853.6	2882.9	
853.77	2510.1	
853.94	5483.1	
854.11	4458.4	
854.28	4235.9	
854.44	3215.3	
854.61	5836	
854.78	5288.5	
854.95	2945	
855.12	3648.8	
855.29	4162.2	
855.46	5540.4	
855.63	2929.3	
855.8	3947.1	
855.97	4699.4	
856.14	5371.1	
856.31	4029	
856.48	3183.9	
856.65	4704.2	
856.82	4476.2	
856.99	2834.4	
857.16	3131.3	
857.33	6005.3	
857.49	4786.8	
857.66	3081.5	
857.83	3358.7	
858	4846.9	
858.17	4881.7	
858.34	2800.3	
858.51	2970.2	
858.68	5497.4	
858.85	5561.6	
859.02	3334.8	
859.19	3549.1	
859.36	4524.6	
859.52	4503.5	
859.69	2918.4	
859.86	3430.3	
860.03	4519.9	
860.2	5430.5	
860.37	2671.2	
860.54	2995.5	
860.71	5213.4	
860.88	5567.1	
861.05	3209.8	
861.21	3664.5	
861.38	5551.4	
861.55	4361.5	
861.72	2680.8	
861.89	3261.7	
862.06	5189.6	
862.23	5575.9	
862.4	2823.5	
862.56	3007.8	
862.73	5083.7	
862.9	4870.8	
863.07	3398.9	
863.24	2682.8	
863.41	4407.9	
863.58	4547.2	
863.75	3033.7	
863.91	3387.3	
864.08	5352.7	
864.25	5184.1	
864.42	3617.4	
864.59	4033.1	
864.76	5784.1	
864.93	4438.6	
865.09	2839.8	
865.26	3134.1	
865.43	5430.5	
865.6	5725.4	
865.77	2652.1	
865.94	2878.1	
866.1	5407.3	
866.27	5214.8	
866.44	4289.1	
866.61	2833.7	
866.78	4767	
866.95	5107	
867.11	2837.8	
867.28	2611.8	
867.45	5369.1	
867.62	4575.8	
867.79	3368.9	
867.96	2905.4	
868.12	4487.8	
868.29	5176.6	
868.46	2914.9	
868.63	3825.6	
868.8	5307	
868.97	5225.7	
869.13	3044.6	
869.3	3069.9	
869.47	5038.7	
869.64	5296.7	
869.81	2952.5	
869.97	2970.2	
870.14	5003.9	
870.31	5516.5	
870.48	2853.5	
870.65	3682.9	
870.81	4799.8	
870.98	4780	
871.15	3254.9	
871.32	3034.4	
871.48	5117.2	
871.65	5598.5	
871.82	2856.9	
871.99	3237.2	
872.16	5859.2	
872.32	5389.6	
872.49	3007.1	
872.66	2949.1	
872.83	5219.6	
872.99	4584.7	
873.16	3347.7	
873.33	2898.6	
873.5	4847.5	
873.67	4956.8	
873.83	3052.2	
874	3837.2	
874.17	5004.6	
874.34	5765.7	
874.5	3731.4	
874.67	3523.9	
874.84	5575.9	
875.01	4425	
875.17	3971	
875.34	2878.1	
875.51	4996.4	
875.68	5876.3	
875.84	3473.4	
876.01	4188.8	
876.18	5197.7	
876.34	5119.2	
876.51	2955.2	
876.68	2866.5	
876.85	4746.5	
877.01	5433.9	
877.18	4099.4	
877.35	2929.3	
877.52	4929.5	
877.68	4422.9	
877.85	2906.1	
878.02	2893.8	
878.18	4828.4	
878.35	4635.9	
878.52	2382.5	
878.69	3201	
878.85	5258.5	
879.02	5191.6	
879.19	4049.5	
879.35	3121.1	
879.52	5202.5	
879.69	5290.6	
879.86	2613.2	
880.02	3244.7	
880.19	4861.9	
880.36	5789.6	
880.52	3351.8	
880.69	3465.2	
880.86	5243.5	
881.02	5255.1	
881.19	3203.7	
881.36	3198.9	
881.52	5155.4	
881.69	4602.5	
881.86	3157.3	
882.02	3097.9	
882.19	5414.8	
882.36	6196.5	
882.52	3024.2	
882.69	4042.7	
882.86	4973.2	
883.02	4887.1	
883.19	3469.3	
883.36	3306.8	
883.52	5267.4	
883.69	5907.7	
883.86	2938.8	
884.02	2668.5	
884.19	5173.9	
884.36	4889.9	
884.52	3244	
884.69	3087.7	
884.86	4678.9	
885.02	5652.4	
885.19	3196.2	
885.36	3343	
885.52	4797	
885.69	5085.8	
885.86	4158.7	
886.02	3676.1	
886.19	5232.6	
886.35	4727.4	
886.52	3262.4	
886.69	3990.8	
886.85	4498	
887.02	5499.5	
887.19	5499.5	
887.35	5499.5	
887.52	5499.5	
887.68	5499.5	
887.85	5499.5	
888.02	5499.5	
888.18	5499.5	
888.35	5499.5	
888.51	5499.5	
888.68	5499.5	
888.85	5499.5	
889.01	5499.5	
889.18	5499.5	
889.35	5499.5	
889.51	5499.5	
889.68	5499.5	
889.84	5499.5	
890.01	5499.5	
890.17	5499.5	
890.34	5499.5	
890.51	5499.5	
890.67	5499.5	
890.84	5499.5	
891	5499.5	
891.17	5499.5	
891.34	5499.5	
891.5	5499.5	
891.67	5499.5	
891.83	5499.5	
892	5499.5	
892.16	5499.5	
892.33	5499.5	
892.5	5499.5	
892.66	5499.5	
892.83	5499.5	
892.99	5499.5	
893.16	5499.5	
893.32	5499.5	
893.49	5499.5	
893.65	5499.5	
893.82	5499.5	
893.99	5499.5	
894.15	5499.5	
894.32	5499.5	
894.48	5499.5	
894.65	5499.5	
894.81	5499.5	
894.98	5499.5	
895.14	5499.5	
895.31	5499.5	
895.47	5499.5	
895.64	5499.5	
895.81	5499.5	
895.97	5499.5	
896.14	5499.5	
896.3	5499.5	
896.47	5499.5	
896.63	5499.5	
896.8	5499.5	
896.96	5499.5	
897.13	5499.5	
897.29	5499.5	
897.46	5499.5	
897.62	5499.5	
897.79	5499.5	
897.95	5499.5	
898.12	5499.5	
898.28	5499.5	
898.45	5499.5	
898.61	5499.5	
898.78	5499.5	
898.94	5499.5	
899.11	5499.5	
899.27	5499.5	
899.44	5499.5	
899.6	5499.5	
899.77	5499.5	
899.93	5499.5	
900.1	5499.5	
900.26	5499.5	
900.43	5499.5	
900.59	5499.5	
900.76	5499.5	
900.92	5499.5	
901.09	5499.5	
901.25	5499.5	
901.42	5499.5	
901.58	5499.5	
901.75	5499.5	
901.91	5499.5	
902.07	5499.5	
902.24	5499.5	
902.4	5499.5	
902.57	5499.5	
902.73	5499.5	
902.9	5499.5	
903.06	5499.5	
903.23	5499.5	
903.39	5499.5	
903.56	5499.5	
903.72	5499.5	
903.88	5499.5	
904.05	5499.5	
904.21	5499.5	
904.38	5499.5	
904.54	5499.5	
904.71	5499.5	
904.87	5499.5	
905.03	5499.5	
905.2	5499.5	
905.36	5499.5	
905.53	5499.5	
905.69	5499.5	
905.86	5499.5	
906.02	5499.5	
906.18	5499.5	
906.35	5499.5	
906.51	5499.5	
906.68	5499.5	
906.84	5499.5	
907.01	5499.5	
907.17	5499.5	
907.33	5499.5	
907.5	5499.5	
907.66	5499.5	
907.83	5499.5	
907.99	5499.5	
908.15	5499.5	
908.32	5499.5	
908.48	5499.5	
908.65	5499.5	
908.81	5499.5	
908.97	5499.5	
909.14	5499.5	
909.3	5499.5	
909.47	5499.5	
909.63	5499.5	
909.79	5499.5	
909.96	5499.5	
910.12	5499.5	
910.28	5499.5	
910.45	5499.5	
910.61	5499.5	
910.78	5499.5	
910.94	5499.5	
911.1	5499.5	
911.27	5499.5	
911.43	5499.5	
911.59	5499.5	
911.76	5499.5	
911.92	5499.5	
912.08	5499.5	
912.25	5499.5	
912.41	5499.5	
912.57	5499.5	
912.74	5499.5	
912.9	5499.5	
913.07	5499.5	
913.23	5499.5	
913.39	5499.5	
913.56	5499.5	
913.72	5499.5	
913.88	5499.5	
914.05	5499.5	
914.21	5499.5	
914.37	5499.5	
914.54	5499.5	
914.7	5499.5	
914.86	5499.5	
915.03	5499.5	
915.19	5499.5	
