Wavelength	Intensities	
nm	a.u.	
179.22	1945.7	
179.44	1945.9	
179.65	1945.6	
179.86	1946.3	
180.08	1950.3	
180.29	4977.9	
180.51	3530	
180.72	5763.7	
180.94	6742.6	
181.15	3273.3	
181.37	3261	
181.58	5595.7	
181.79	5862.7	
182.01	3435.1	
182.22	3704.1	
182.44	5852.4	
182.65	4899.4	
182.87	4637.3	
183.08	4070	
183.29	6186.2	
183.51	5037.3	
183.72	3751.2	
183.94	5429.8	
184.15	5466	
184.37	5548.6	
184.58	3241.3	
184.79	4534.9	
185.01	5081	
185.22	5776.6	
185.44	4755.4	
185.65	3965.6	
185.86	5340.4	
186.08	4956.1	
186.29	3186.6	
186.51	3412.6	
186.72	5099.4	
186.94	6091.3	
187.15	3990.1	
187.36	4111	
187.58	7871	
187.79	5603.9	
188.01	4295.3	
188.22	6751.5	
188.43	6734.4	
188.65	5849	
188.86	3402.4	
189.08	4136.9	
189.29	5302.9	
189.5	5311.7	
189.72	3810.6	
189.93	3904.1	
190.15	6041.5	
190.36	7305.8	
190.57	4271.4	
190.79	4047.5	
191	6134.3	
191.22	6085.9	
191.43	4176.5	
191.64	3425.6	
191.86	6406	
192.07	6101.6	
192.29	3596.2	
192.5	3880.9	
192.71	6016.2	
192.93	5182.7	
193.14	3799.7	
193.35	3897.3	
193.57	5283.1	
193.78	6044.9	
194	3039.2	
194.21	3733.4	
194.42	5038.7	
194.64	5490.6	
194.85	4092.5	
195.07	4898.7	
195.28	5584.1	
195.49	4753.3	
195.71	5124	
195.92	3521.8	
196.13	5618.3	
196.35	5839.4	
196.56	5560.9	
196.78	4126	
196.99	7216.4	
197.2	6744	
197.42	4692.6	
197.63	4207.2	
197.84	4945.8	
198.06	5717.9	
198.27	3784	
198.48	5150.6	
198.7	5198.4	
198.91	5330.2	
199.13	4162.2	
199.34	4212.7	
199.55	5894.7	
199.77	4803.9	
199.98	3661.1	
200.19	4227	
200.41	5410.7	
200.62	5132.2	
200.83	4364.9	
201.05	4720.6	
201.26	5416.2	
201.47	5185.5	
201.69	3723.2	
201.9	3495.9	
202.11	5457.2	
202.33	6477	
202.54	3872	
202.76	4402.5	
202.97	5606.7	
203.18	5578	
203.4	4317.8	
203.61	4209.9	
203.82	5554.8	
204.04	5167.7	
204.25	4231.1	
204.46	4128	
204.68	5465.3	
204.89	5724.8	
205.1	4018.8	
205.32	3523.9	
205.53	5842.2	
205.74	6113.2	
205.96	2967.5	
206.17	4244.8	
206.38	5883.8	
206.6	6019	
206.81	4751.3	
207.02	3938.9	
207.24	5761.6	
207.45	6155.5	
207.66	3926.6	
207.88	3325.9	
208.09	5665.4	
208.3	5543.9	
208.52	3603.7	
208.73	3982.6	
208.94	5554.1	
209.15	6226.5	
209.37	3949.2	
209.58	4132.1	
209.79	6084.5	
210.01	5332.2	
210.22	3151.1	
210.43	3431	
210.65	5550	
210.86	5952.1	
211.07	3981.3	
211.29	3659	
211.5	5862	
211.71	5441.5	
211.93	3597.6	
212.14	3624.9	
212.35	5496.7	
212.56	5672.2	
212.78	4180.6	
212.99	3446	
213.2	6426.5	
213.42	5238	
213.63	3805.8	
213.84	4074.8	
214.06	4846.2	
214.27	4941.7	
214.48	3919.8	
214.69	4154.6	
214.91	6159.6	
215.12	6295.5	
215.33	4321.2	
215.55	4754.7	
215.76	6842.3	
215.97	5884.5	
216.18	4134.2	
216.4	4015.4	
216.61	5179.3	
216.82	6053.8	
217.04	3633.8	
217.25	3794.2	
217.46	6219.7	
217.67	5903.6	
217.89	3261	
218.1	3355.3	
218.31	5594.4	
218.53	5662.6	
218.74	3803.8	
218.95	3700	
219.16	5440.1	
219.38	6435.4	
219.59	3741	
219.8	4434.5	
220.01	7126.2	
220.23	5532.2	
220.44	4899.4	
220.65	3573.7	
220.87	5526.1	
221.08	6136.4	
221.29	3373	
221.5	4511	
221.72	7539.9	
221.93	5204.6	
222.14	4214.7	
222.35	4866	
222.57	5507.7	
222.78	5845.6	
222.99	3950.5	
223.2	4257.7	
223.42	5786.9	
223.63	5918.6	
223.84	3066.5	
224.05	2965.5	
224.27	7127.6	
224.48	6410.8	
224.69	4928.8	
224.9	4139.6	
225.12	5744.6	
225.33	5447.6	
225.54	3287	
225.75	3687.7	
225.97	5014.1	
226.18	5354.1	
226.39	3969.6	
226.6	3719.1	
226.82	5227.8	
227.03	5103.5	
227.24	4193.6	
227.45	3452.9	
227.67	5856.5	
227.88	6460	
228.09	4657.8	
228.3	4630.5	
228.52	5913.2	
228.73	5442.1	
228.94	3825.6	
229.15	3418.7	
229.36	5388.9	
229.58	5336.3	
229.79	3868.6	
230	4547.2	
230.21	6557.6	
230.43	5599.1	
230.64	4153.3	
230.85	4306.9	
231.06	5924.1	
231.28	5955.5	
231.49	3494.5	
231.7	4057	
231.91	5800.5	
232.12	5485.1	
232.34	3467.9	
232.55	4033.1	
232.76	6135	
232.97	5637.4	
233.18	3627.6	
233.4	4121.2	
233.61	5763.7	
233.82	5203.2	
234.03	3842.7	
234.25	3715	
234.46	7730.4	
234.67	5518.6	
234.88	4250.9	
235.09	3691.1	
235.31	5855.1	
235.52	5402.5	
235.73	4104.1	
235.94	3470.6	
236.15	5200.5	
236.37	6762.4	
236.58	3672	
236.79	3974.4	
237	5809.4	
237.21	5018.9	
237.43	4313	
237.64	3344.3	
237.85	10080	
238.06	5021.6	
238.27	4339	
238.48	3454.2	
238.7	5874.3	
238.91	5349.3	
239.12	3910.9	
239.33	3979.9	
239.54	5053	
239.76	5449.6	
239.97	3974.4	
240.18	4001.7	
240.39	6993.1	
240.6	5810.8	
240.82	4072	
241.03	3395.5	
241.24	5538.4	
241.45	6428.6	
241.66	3596.9	
241.87	4341	
242.09	6265.4	
242.3	6676.4	
242.51	4321.9	
242.72	4018.1	
242.93	5972.6	
243.14	5432.6	
243.36	4620.2	
243.57	5038.7	
243.78	6397.2	
243.99	5885.9	
244.2	3982.6	
244.41	3634.5	
244.63	5017.5	
244.84	5824.4	
245.05	4261.1	
245.26	3946.4	
245.47	5754.8	
245.68	6040.8	
245.9	5277.6	
246.11	4226.3	
246.32	5343.2	
246.53	5780.1	
246.74	6526.9	
246.95	3319.8	
247.16	4974.5	
247.38	5528.8	
247.59	3313.6	
247.8	4140.3	
248.01	5158.8	
248.22	5403.2	
248.43	3605.8	
248.64	3851.5	
248.86	4855.7	
249.07	5257.1	
249.28	3525.9	
249.49	4117.8	
249.7	6079.7	
249.91	6226.5	
250.12	3360.7	
250.34	3362.8	
250.55	5618.9	
250.76	5488.6	
250.97	4164.9	
251.18	4197.7	
251.39	6280.4	
251.6	5693.4	
251.81	4215.4	
252.03	4189.5	
252.24	5197.1	
252.45	6058.6	
252.66	3426.3	
252.87	4466.6	
253.08	5507.7	
253.29	7323.5	
253.5	3493.2	
253.72	4924.7	
253.93	5315.8	
254.14	6612.9	
254.35	3751.9	
254.56	3856.3	
254.77	5795.8	
254.98	5087.2	
255.19	3745.7	
255.41	4799.1	
255.62	5603.2	
255.83	6242.9	
256.04	4285	
256.25	4198.3	
256.46	6817	
256.67	5182	
256.88	4143.7	
257.09	4685.1	
257.31	5120.6	
257.52	5194.3	
257.73	5162.2	
257.94	3766.9	
258.15	5360.9	
258.36	5515.9	
258.57	4756.7	
258.78	3030.3	
258.99	6152.8	
259.2	5293.3	
259.41	3807.9	
259.63	3889.8	
259.84	6406.7	
260.05	6860.7	
260.26	5001.8	
260.47	3710.2	
260.68	6143.2	
260.89	5399.1	
261.1	4582.7	
261.31	3631	
261.52	6100.9	
261.73	6445	
261.95	4866.7	
262.16	4321.9	
262.37	6178	
262.58	6332.3	
262.79	4928.1	
263	3904.8	
263.21	5492	
263.42	4989.5	
263.63	3971	
263.84	3915	
264.05	6095.4	
264.26	6481.8	
264.47	4744.5	
264.69	4325.3	
264.9	6240.2	
265.11	5791.7	
265.32	3675.4	
265.53	3792.8	
265.74	5701.5	
265.95	4986.8	
266.16	4107.5	
266.37	4461.8	
266.58	5635.3	
266.79	5346.6	
267	3736.9	
267.21	3504.1	
267.42	5048.9	
267.63	5468.1	
267.84	3939.6	
268.06	3400.3	
268.27	5954.8	
268.48	6288.6	
268.69	3885.7	
268.9	4607.9	
269.11	6230.6	
269.32	4972.5	
269.53	3960.1	
269.74	3687	
269.95	5896.8	
270.16	4846.9	
270.37	3977.2	
270.58	4628.4	
270.79	5360.2	
271	6053.8	
271.21	4274.8	
271.42	4010.6	
271.63	5619.6	
271.84	5154.7	
272.05	3136.1	
272.26	3562.8	
272.47	5583.4	
272.68	5704.3	
272.89	3871.3	
273.11	4450.9	
273.32	5294.7	
273.53	6498.9	
273.74	4348.5	
273.95	4214.7	
274.16	6191	
274.37	5592.3	
274.58	4374.5	
274.79	3468.6	
275	5618.9	
275.21	6298.9	
275.42	5314.5	
275.63	4517.1	
275.84	5765.7	
276.05	7286.7	
276.26	4231.1	
276.47	3970.3	
276.68	5350.7	
276.89	6546.7	
277.1	4513.7	
277.31	3520.5	
277.52	5768.4	
277.73	5931.6	
277.94	3495.2	
278.15	3888.4	
278.36	5733.6	
278.57	5160.9	
278.78	3844.7	
278.99	4307.6	
279.2	5124.7	
279.41	5042.1	
279.62	5098.1	
279.83	3524.6	
280.04	6787.7	
280.25	5059.2	
280.46	5027.1	
280.67	4009.2	
280.88	5110.4	
281.09	6197.8	
281.3	4195.6	
281.51	5393	
281.72	6025.1	
281.93	6022.4	
282.14	3777.1	
282.35	3990.8	
282.56	6046.3	
282.77	6003.3	
282.98	3885	
283.19	4764.9	
283.4	7476.5	
283.61	5483.8	
283.82	3534.1	
284.03	4956.8	
284.24	5563	
284.45	6177.4	
284.66	4930.8	
284.87	4797	
285.08	6178.7	
285.29	6299.6	
285.5	3399.6	
285.71	3932.1	
285.92	6188.3	
286.12	6831.3	
286.33	4969.7	
286.54	3867.2	
286.75	6042.9	
286.96	5317.2	
287.17	3573.7	
287.38	4889.2	
287.59	5113.8	
287.8	4995.7	
288.01	3891.8	
288.22	4516.5	
288.43	6034	
288.64	4960.9	
288.85	4640	
289.06	4406.5	
289.27	6012.2	
289.48	6493.4	
289.69	5016.8	
289.9	4511.7	
290.11	6197.8	
290.32	5251	
290.53	4740.4	
290.74	4311.7	
290.94	6011.5	
291.15	6006.7	
291.36	3814	
291.57	4489.1	
291.78	5229.1	
291.99	4938.3	
292.2	3647.4	
292.41	4360.1	
292.62	6128.2	
292.83	5881.8	
293.04	5345.9	
293.25	3607.8	
293.46	5328.8	
293.67	6141.9	
293.88	3721.2	
294.09	3556	
294.29	5031.2	
294.5	5623	
294.71	4000.4	
294.92	3827	
295.13	5261.2	
295.34	6696.2	
295.55	3342.3	
295.76	3444.7	
295.97	5881.8	
296.18	6751.5	
296.39	3562.8	
296.6	3767.6	
296.81	5613.5	
297.01	5917.9	
297.22	3977.2	
297.43	3738.9	
297.64	5123.3	
297.85	5136.3	
298.06	3119.1	
298.27	3363.4	
298.48	5608	
298.69	5215.5	
298.9	4049.5	
299.11	3678.2	
299.31	4994.3	
299.52	5006.6	
299.73	4384.7	
299.94	4258.4	
300.15	5499.5	
300.36	5091.3	
300.57	4296.6	
300.78	4223.6	
300.99	5375.9	
301.2	5627.8	
301.4	3716.4	
301.61	4049.5	
301.82	5812.8	
302.03	5968.5	
302.24	4499.4	
302.45	3510.2	
302.66	5805.3	
302.87	6327.5	
303.08	3778.5	
303.29	5158.8	
303.49	5287.9	
303.7	5552	
303.91	3350.5	
304.12	4829.1	
304.33	4993.6	
304.54	5657.2	
304.75	3745.7	
304.96	3556.6	
305.16	5801.2	
305.37	6654.5	
305.58	3282.2	
305.79	3403	
306	5831.2	
306.21	4917.9	
306.42	3788.7	
306.63	5748.6	
306.83	5368.4	
307.04	6159.6	
307.25	4126	
307.46	4120.5	
307.67	4657.8	
307.88	5976.7	
308.09	3675.4	
308.29	3803.1	
308.5	5659.2	
308.71	6135	
308.92	4012.7	
309.13	3555.3	
309.34	5337	
309.55	5464	
309.75	4639.3	
309.96	4252.9	
310.17	5977.3	
310.38	5250.3	
310.59	4554	
310.8	4252.9	
311.01	5326.1	
311.21	5371.8	
311.42	3540.3	
311.63	3671.3	
311.84	5253.7	
312.05	5617.6	
312.26	4117.1	
312.46	4567.7	
312.67	5304.9	
312.88	5066	
313.09	3574.4	
313.3	3515.7	
313.51	6349.4	
313.71	6709.8	
313.92	3617.4	
314.13	3842.7	
314.34	5683.8	
314.55	5484.5	
314.76	4730.1	
314.96	4071.4	
315.17	5583.4	
315.38	5914.5	
315.59	3592.1	
315.8	3483.6	
316.01	6463.4	
316.21	6528.2	
316.42	3481.5	
316.63	3980.6	
316.84	5381.4	
317.05	6239.5	
317.26	4287.1	
317.46	3805.1	
317.67	5378	
317.88	5964.4	
318.09	4602.5	
318.3	3376.4	
318.5	5264.6	
318.71	5817.6	
318.92	5920.7	
319.13	4259.8	
319.34	6004	
319.54	6154.1	
319.75	3429	
319.96	3201.7	
320.17	5954.8	
320.38	6088.6	
320.58	3312.9	
320.79	3932.1	
321	6049.7	
321.21	6143.9	
321.42	4001	
321.62	3272	
321.83	5156.1	
322.04	5532.2	
322.25	3850.2	
322.46	3673.4	
322.66	5642.8	
322.87	5779.4	
323.08	4507.6	
323.29	3571.7	
323.5	6650.4	
323.7	5070.1	
323.91	4894	
324.12	4494.6	
324.33	5616.2	
324.53	5879.7	
324.74	4231.1	
324.95	4533.5	
325.16	4861.2	
325.37	5341.1	
325.57	3587.4	
325.78	3732.8	
325.99	5531.6	
326.2	4955.4	
326.4	5095.3	
326.61	3350.5	
326.82	5485.8	
327.03	5564.3	
327.24	5121.3	
327.44	4811.4	
327.65	5778.7	
327.86	4658.4	
328.07	4263.9	
328.27	3493.8	
328.48	6285.9	
328.69	5083.7	
328.9	5308.3	
329.1	3915.7	
329.31	5387.5	
329.52	6367.8	
329.73	3682.9	
329.93	4119.1	
330.14	5540.4	
330.35	5763.7	
330.56	5993	
330.76	4546.5	
330.97	5354.1	
331.18	5781.4	
331.39	4041.3	
331.59	3241.3	
331.8	6132.3	
332.01	6242.9	
332.22	3721.8	
332.42	4311.7	
332.63	5660.6	
332.84	5225.1	
333.05	4099.4	
333.25	3706.8	
333.46	5327.4	
333.67	5545.9	
333.88	3723.2	
334.08	4221.5	
334.29	7390.4	
334.5	6261.3	
334.7	3549.8	
334.91	5266.7	
335.12	5038	
335.33	5940.5	
335.53	4047.5	
335.74	6036.7	
335.95	5284.4	
336.16	5124.7	
336.36	4007.9	
336.57	4631.1	
336.78	5010.7	
336.98	6206.7	
337.19	4994.3	
337.4	3999.7	
337.61	6630.6	
337.81	5039.4	
338.02	3702	
338.23	4801.1	
338.43	6293.4	
338.64	5159.5	
338.85	3657	
339.05	4787.5	
339.26	6437.4	
339.47	4952	
339.68	3672	
339.88	5395.7	
340.09	5819	
340.3	6027.2	
340.5	4304.1	
340.71	3256.3	
340.92	4954	
341.13	6301.6	
341.33	3530	
341.54	4316.4	
341.75	5810.1	
341.95	5382.7	
342.16	4164.9	
342.37	4463.2	
342.57	5115.1	
342.78	5467.4	
342.99	4557.4	
343.19	3261	
343.4	6019	
343.61	5813.5	
343.81	3859.1	
344.02	3542.3	
344.23	6029.2	
344.43	6395.8	
344.64	4531.5	
344.85	4437.3	
345.06	5812.1	
345.26	6178.7	
345.47	4225.6	
345.68	4922	
345.88	4913.8	
346.09	6000.5	
346.3	4317.1	
346.5	3259	
346.71	5531.6	
346.92	5229.8	
347.12	3276.1	
347.33	4201.1	
347.54	6136.4	
347.74	6499.6	
347.95	4199.7	
348.16	3107.5	
348.36	5292.6	
348.57	5102.2	
348.78	4160.8	
348.98	4499.4	
349.19	5508.4	
349.39	4961.5	
349.6	3330.7	
349.81	3694.5	
350.01	5786.2	
350.22	5251.7	
350.43	4008.6	
350.63	4922	
350.84	5535	
351.05	5342.5	
351.25	3648.1	
351.46	3342.3	
351.67	6059.9	
351.87	5149.3	
352.08	3883.6	
352.29	4437.3	
352.49	5997.1	
352.7	6100.2	
352.9	3520.5	
353.11	4401.8	
353.32	6678.4	
353.52	5312.4	
353.73	3490.4	
353.94	4447.5	
354.14	5826.5	
354.35	5626.5	
354.55	3611.9	
354.76	3980.6	
354.97	5739.1	
355.17	5546.6	
355.38	3361.4	
355.59	4712.4	
355.79	5154.1	
356	5627.8	
356.2	3969	
356.41	3436.5	
356.62	4860.5	
356.82	5409.4	
357.03	4283	
357.24	3853.6	
357.44	5138.4	
357.65	5322.7	
357.85	5116.5	
358.06	4003.1	
358.27	4847.5	
358.47	5104.2	
358.68	3283.6	
358.88	4203.1	
359.09	5721.3	
359.3	6176	
359.5	4931.5	
359.71	4381.3	
359.91	6499.6	
360.12	5928.9	
360.33	4158.1	
360.53	4715.1	
360.74	5141.1	
360.94	5227.1	
361.15	4399	
361.36	3606.5	
361.56	5889.3	
361.77	5313.1	
361.97	4932.2	
362.18	3781.2	
362.38	5986.2	
362.59	4982.7	
362.8	3461.7	
363	3348.4	
363.21	4801.1	
363.41	5560.9	
363.62	4079.6	
363.83	5181.4	
364.03	5511.8	
364.24	6561.7	
364.44	5150	
364.65	5102.9	
364.85	5231.9	
365.06	4920.6	
365.27	3646.1	
365.47	3751.2	
365.68	6370.5	
365.88	5269.4	
366.09	4162.8	
366.29	3792.8	
366.5	5552	
366.71	5982.1	
366.91	5088.5	
367.12	4274.8	
367.32	6519.4	
367.53	5817.6	
367.73	4148.5	
367.94	5214.1	
368.14	5765	
368.35	6728.3	
368.56	4229.1	
368.76	3512.3	
368.97	5937.7	
369.17	7681.2	
369.38	3667.9	
369.58	3862.5	
369.79	4868.7	
369.99	6253.8	
370.2	5023	
370.4	4106.9	
370.61	5542.5	
370.82	6758.3	
371.02	3928	
371.23	3208.5	
371.43	4789.5	
371.64	6115.2	
371.84	3881.6	
372.05	5167	
372.25	7587	
372.46	5934.3	
372.66	3905.5	
372.87	3842	
373.07	5927.5	
373.28	7584.3	
373.48	4954.7	
373.69	4599.7	
373.9	5318.6	
374.1	5363.6	
374.31	4840	
374.51	4379.9	
374.72	6177.4	
374.92	4971.8	
375.13	5001.8	
375.33	4225.6	
375.54	5640.1	
375.74	5141.1	
375.95	4222.9	
376.15	5518.6	
376.36	5698.8	
376.56	5517.2	
376.77	4284.4	
376.97	4783.4	
377.18	6817.7	
377.38	5711.8	
377.59	5096.7	
377.79	3687	
378	5559.6	
378.2	5997.1	
378.41	3790.1	
378.61	3726.6	
378.82	6056.5	
379.02	5102.2	
379.23	3956	
379.43	5100.1	
379.64	6150.1	
379.84	5714.5	
380.05	3755.3	
380.25	3676.8	
380.46	5828.5	
380.66	5405.3	
380.87	5174.5	
381.07	5632.6	
381.28	6508.4	
381.48	5832.6	
381.69	3808.5	
381.89	3863.8	
382.1	4717.8	
382.3	6041.5	
382.51	5013.4	
382.71	5963.7	
382.91	5874.9	
383.12	6368.5	
383.32	4215.4	
383.53	4472.8	
383.73	5668.8	
383.94	5477	
384.14	4323.9	
384.35	3461.7	
384.55	5411.4	
384.76	5877.7	
384.96	4171.7	
385.17	4551.3	
385.37	5844.2	
385.58	5119.9	
385.78	4599.1	
385.98	3405.8	
386.19	5374.6	
386.39	5720	
386.6	3977.2	
386.8	4156.7	
387.01	5845.6	
387.21	5880.4	
387.42	4661.9	
387.62	5243.5	
387.83	5123.3	
388.03	5816.2	
388.23	4243.4	
388.44	5079.6	
388.64	4876.9	
388.85	4926.7	
389.05	4579.9	
389.26	5231.2	
389.46	6866.8	
389.67	6236.7	
389.87	4496	
390.07	4670.1	
390.28	5442.1	
390.48	4999.8	
390.69	3701.4	
390.89	4058.4	
391.1	5197.1	
391.3	6112.5	
391.5	5326.1	
391.71	5995.1	
391.91	5855.8	
392.12	6986.3	
392.32	5414.1	
392.53	4534.2	
392.73	5251	
392.93	5492	
393.14	4220.2	
393.34	5083.1	
393.55	5944.6	
393.75	5451.7	
393.95	4240.7	
394.16	4257.7	
394.36	5162.9	
394.57	5859.2	
394.77	3654.3	
394.98	4161.5	
395.18	5109	
395.38	5186.8	
395.59	5016.2	
395.79	3934.8	
396	5213.4	
396.2	5783.5	
396.4	4884.4	
396.61	4703.5	
396.81	5917.3	
397.02	5212.1	
397.22	5016.8	
397.42	5098.1	
397.63	5889.3	
397.83	5060.5	
398.04	3793.5	
398.24	4347.8	
398.44	5666	
398.65	4689.2	
398.85	3582.6	
399.05	3827.7	
399.26	5025.7	
399.46	6808.1	
399.67	4149.2	
399.87	3875.4	
400.07	5393	
400.28	5726.1	
400.48	3961.5	
400.69	5016.2	
400.89	6450.4	
401.09	6473.6	
401.3	3803.8	
401.5	5016.8	
401.7	6710.5	
401.91	6911.2	
402.11	4188.1	
402.32	4527.4	
402.52	5963	
402.72	5977.3	
402.93	4649.6	
403.13	3525.2	
403.33	6800.6	
403.54	5529.5	
403.74	4377.9	
403.94	5323.4	
404.15	5570.5	
404.35	6811.5	
404.56	4160.8	
404.76	6073.6	
404.96	6002.6	
405.17	5733.6	
405.37	5678.3	
405.57	4607.2	
405.78	6042.2	
405.98	5515.9	
406.18	4084.3	
406.39	5068	
406.59	5931.6	
406.79	5609.4	
407	3924.6	
407.2	4029.7	
407.4	6035.4	
407.61	6177.4	
407.81	4014.7	
408.01	6109.8	
408.22	4912.4	
408.42	7024.5	
408.62	5018.9	
408.83	4500.8	
409.03	5495.4	
409.23	5268.7	
409.44	4532.8	
409.64	4812	
409.84	6371.9	
410.05	6200.6	
410.25	4568.3	
410.45	4383.3	
410.66	5625.8	
410.86	8255.4	
411.06	4704.9	
411.27	4679.6	
411.47	7886	
411.67	5840.8	
411.88	4872.1	
412.08	5143.8	
412.28	6451.1	
412.49	7002.7	
412.69	4538.3	
412.89	4560.8	
413.09	6771.3	
413.3	6642.2	
413.5	4564.2	
413.7	4190.8	
413.91	5833.3	
414.11	6763.1	
414.31	4458.4	
414.52	4828.4	
414.72	6382.2	
414.92	6229.9	
415.12	4441.4	
415.33	4947.2	
415.53	6576	
415.73	6867.5	
415.94	5388.9	
416.14	4769	
416.34	5563.6	
416.55	5425.8	
416.75	6027.9	
416.95	5384.8	
417.15	6598.6	
417.36	7438.9	
417.56	6135	
417.76	5211.4	
417.97	7030	
418.17	6617	
418.37	4764.3	
418.57	4855.7	
418.78	6408.8	
418.98	6089.3	
419.18	5714.5	
419.38	5697.4	
419.59	6106.4	
419.79	5738.4	
419.99	4632.5	
420.2	5083.7	
420.4	6659.3	
420.6	6919.4	
420.8	4641.4	
421.01	4458.4	
421.21	6386.9	
421.41	6636.8	
421.61	5048.9	
421.82	4751.3	
422.02	5888.6	
422.22	6986.3	
422.42	5485.8	
422.63	5220.3	
422.83	6130.3	
423.03	7378.8	
423.23	5200.5	
423.44	4129.4	
423.64	6182.1	
423.84	6010.1	
424.04	4606.6	
424.25	4277.5	
424.45	7184.3	
424.65	7228	
424.85	4109.6	
425.06	4768.4	
425.26	7133.1	
425.46	5617.6	
425.66	5274.2	
425.87	4946.5	
426.07	6924.2	
426.27	6716.7	
426.47	5027.1	
426.67	4401.8	
426.88	7286.7	
427.08	6679.8	
427.28	5291.3	
427.48	4348.5	
427.69	5595.7	
427.89	6293.4	
428.09	5339.1	
428.29	4414.1	
428.5	7002	
428.7	6503	
428.9	4259.8	
429.1	4831.2	
429.3	6372.6	
429.51	6743.3	
429.71	4642.1	
429.91	5396.4	
430.11	6679.1	
430.31	6811.5	
430.52	4943.8	
430.72	5190.2	
430.92	7212.3	
431.12	6737.8	
431.32	4522.6	
431.53	5041.4	
431.73	5560.9	
431.93	7352.2	
432.13	4494.6	
432.33	4382	
432.54	6085.9	
432.74	6452.5	
432.94	4274.8	
433.14	5340.4	
433.34	6626.5	
433.55	6064	
433.75	5289.9	
433.95	7083.2	
434.15	6380.8	
434.35	6079.1	
434.56	4458.4	
434.76	3973.1	
434.96	6358.3	
435.16	6571.2	
435.36	4283	
435.56	5472.9	
435.77	5892	
435.97	6102.9	
436.17	6160.3	
436.37	5371.1	
436.57	5923.4	
436.78	5876.3	
436.98	7375.4	
437.18	6072.2	
437.38	6602.7	
437.58	6184.2	
437.78	6251.1	
437.99	4810.7	
438.19	6755.6	
438.39	8184.4	
438.59	4690.5	
438.79	4180.6	
438.99	7435.5	
439.2	6143.2	
439.4	4336.9	
439.6	4337.6	
439.8	6485.2	
440	7624.6	
440.2	5385.5	
440.4	5461.2	
440.61	6858	
440.81	7404.8	
441.01	4468.7	
441.21	5378	
441.41	7225.2	
441.61	6872.3	
441.81	5687.2	
442.02	6808.1	
442.22	7740	
442.42	6951.5	
442.62	4542.4	
442.82	4627.7	
443.02	7221.8	
443.22	6287.3	
443.43	5012.1	
443.63	4511.7	
443.83	6171.2	
444.03	6115.2	
444.23	5756.8	
444.43	5408	
444.63	6412.9	
444.83	7822.6	
445.04	4628.4	
445.24	5970.5	
445.44	6840.9	
445.64	6961	
445.84	5535	
446.04	5564.3	
446.24	6146	
446.44	7382.9	
446.65	4663.2	
446.85	5042.1	
447.05	6697.5	
447.25	7245.7	
447.45	5130.2	
447.65	4537.6	
447.85	6620.4	
448.05	6251.1	
448.25	5666.7	
448.46	5384.1	
448.66	6589.7	
448.86	6229.9	
449.06	4455	
449.26	5659.2	
449.46	6990.4	
449.66	5912.5	
449.86	5072.8	
450.06	5087.8	
450.26	6133	
450.47	6752.2	
450.67	5384.8	
450.87	5707	
451.07	6819.1	
451.27	6649.1	
451.47	4542.4	
451.67	5175.2	
451.87	6221	
452.07	7570	
452.27	4854.4	
452.47	4816.1	
452.67	6606.7	
452.88	7193.1	
453.08	4226.3	
453.28	6352.1	
453.48	7787.7	
453.68	6527.6	
453.88	4715.1	
454.08	5013.4	
454.28	6865.5	
454.48	6551.5	
454.68	5568.4	
454.88	6107.7	
455.08	6983.6	
455.28	6731	
455.48	4591.5	
455.68	5210	
455.89	7506.5	
456.09	7087.3	
456.29	4989.5	
456.49	4985.4	
456.69	7341.3	
456.89	6543.9	
457.09	5516.5	
457.29	5880.4	
457.49	6891.4	
457.69	7005.4	
457.89	5284.4	
458.09	4691.2	
458.29	6575.3	
458.49	7406.1	
458.69	5722.7	
458.89	5100.8	
459.09	7580.2	
459.29	7732.4	
459.49	5294	
459.69	6140.5	
459.9	7136.5	
460.1	6573.3	
460.3	5105.6	
460.5	4854.4	
460.7	7109.2	
460.9	6795.2	
461.1	4445.5	
461.3	5939.8	
461.5	7723.6	
461.7	7357	
461.9	4922	
462.1	5451.7	
462.3	6743.3	
462.5	7481.2	
462.7	5033.2	
462.9	5087.8	
463.1	8523	
463.3	8063.5	
463.5	5235.3	
463.7	6264.7	
463.9	6926.2	
464.1	7354.9	
464.3	5373.2	
464.5	5612.1	
464.7	7580.9	
464.9	7202.7	
465.1	7014.3	
465.3	5905.7	
465.5	7981.6	
465.7	7925	
465.9	6140.5	
466.1	6155.5	
466.3	7729	
466.5	7509.9	
466.7	7033.4	
466.9	5722.7	
467.1	7413.6	
467.3	8570.7	
467.5	6839.5	
467.7	5716.6	
467.9	8718.9	
468.1	9712.2	
468.3	6481.1	
468.5	7001.3	
468.7	7394.5	
468.9	7513.3	
469.1	6003.3	
469.3	6752.8	
469.5	9474.6	
469.7	6918.7	
469.9	6608.1	
470.1	5759.6	
470.3	7479.9	
470.5	7471	
470.7	7051.2	
470.9	5860.6	
471.1	7205.4	
471.3	7754.3	
471.5	5618.3	
471.69	7690.1	
471.89	7166.5	
472.09	6660.7	
472.29	6483.2	
472.49	7057.3	
472.69	6852.5	
472.89	7834.8	
473.09	5608	
473.29	5727.5	
473.49	7085.3	
473.69	7264.1	
473.89	6840.2	
474.09	5938.4	
474.29	8570.1	
474.49	8262.2	
474.69	6715.3	
474.89	6135	
475.09	7315.3	
475.29	7234.8	
475.49	5472.2	
475.69	5741.8	
475.88	9028.8	
476.08	7550.2	
476.28	5448.3	
476.48	5965.7	
476.68	8122.9	
476.88	7953.6	
477.08	5747.3	
477.28	6109.8	
477.48	7404.1	
477.68	8096.3	
477.88	5591	
478.08	5928.2	
478.28	8413.1	
478.48	7582.9	
478.67	5990.3	
478.87	5397.1	
479.07	8207.6	
479.27	7685.3	
479.47	6283.2	
479.67	6182.8	
479.87	8043.7	
480.07	8564.6	
480.27	5416.9	
480.47	7217.7	
480.67	7711.3	
480.87	8396	
481.06	5662.6	
481.26	6619	
481.46	7568.6	
481.66	7561.8	
481.86	6259.3	
482.06	7337.2	
482.26	7326.9	
482.46	8391.9	
482.66	6227.2	
482.86	5753.4	
483.05	7740.6	
483.25	7107.8	
483.45	8695.7	
483.65	6129.6	
483.85	7202	
484.05	7613.7	
484.25	6650.4	
484.45	7117.4	
484.65	8533.9	
484.84	8516.1	
485.04	6059.3	
485.24	6079.7	
485.44	8725.7	
485.64	7053.2	
485.84	5245.5	
486.04	6866.8	
486.24	7372	
486.44	7822.6	
486.63	5242.8	
486.83	6122.1	
487.03	7242.3	
487.23	7531.7	
487.43	5464	
487.63	7944.1	
487.83	7522.2	
488.02	8581	
488.22	6455.2	
488.42	7064.1	
488.62	8434.2	
488.82	7305.1	
489.02	6078.4	
489.22	6082.5	
489.41	8318.8	
489.61	7922.2	
489.81	5825.1	
490.01	5879.7	
490.21	8228.1	
490.41	8903.9	
490.61	5824.4	
490.8	5976	
491	7707.9	
491.2	6907.1	
491.4	6516.6	
491.6	5599.8	
491.8	7664.9	
491.99	7929.1	
492.19	5483.1	
492.39	5938.4	
492.59	8251.9	
492.79	8384.4	
492.99	6765.1	
493.18	5877	
493.38	8376.2	
493.58	9164.7	
493.78	6552.8	
493.98	6123.4	
494.18	8107.2	
494.37	7468.3	
494.57	6744.6	
494.77	6632	
494.97	8273.8	
495.17	8520.9	
495.37	6191.7	
495.56	6566.5	
495.76	8703.9	
495.96	8265.6	
496.16	7443.7	
496.36	6316.6	
496.55	8502.5	
496.75	8055.3	
496.95	6673	
497.15	6547.4	
497.35	8406.9	
497.54	8463.6	
497.74	6430.6	
497.94	8012.3	
498.14	9184.5	
498.34	8903.9	
498.53	5995.8	
498.73	6965.1	
498.93	7830.1	
499.13	8520.9	
499.33	6593.1	
499.52	7177.4	
499.72	8340	
499.92	8826.1	
500.12	6335.1	
500.32	6684.6	
500.51	8778.3	
500.71	8494.3	
500.91	7518.1	
501.11	7086	
501.31	8642.4	
501.5	9101.9	
501.7	7760.4	
501.9	6726.9	
502.1	8475.2	
502.29	8757.1	
502.49	7219.8	
502.69	7635.5	
502.89	8728.4	
503.09	8625.4	
503.28	6180.8	
503.48	6408.8	
503.68	7906.5	
503.88	7956.4	
504.07	7398.6	
504.27	6939.2	
504.47	8334.6	
504.67	8454	
504.86	7348.8	
505.06	6973.3	
505.26	8078.6	
505.46	10033	
505.65	6860	
505.85	7092.1	
506.05	8062.9	
506.25	8535.3	
506.44	6208.1	
506.64	7275.1	
506.84	7920.9	
507.04	9028.8	
507.23	6481.8	
507.43	7068.9	
507.63	10069	
507.83	8282	
508.02	7096.2	
508.22	6671.6	
508.42	10293	
508.62	7975.5	
508.81	6904.4	
509.01	7544.7	
509.21	7851.9	
509.4	8207.6	
509.6	7182.2	
509.8	6425.2	
510	8162.5	
510.19	9648.7	
510.39	6515.3	
510.59	6598.6	
510.79	8008.9	
510.98	9416.6	
511.18	6653.9	
511.38	6825.9	
511.57	8858.8	
511.77	8733.2	
511.97	7442.3	
512.17	6410.1	
512.36	8845.2	
512.56	8839	
512.76	6531.7	
512.95	6207.4	
513.15	8958.5	
513.35	7484.6	
513.55	7458.7	
513.74	6539.8	
513.94	8901.8	
514.14	8230.8	
514.33	7529	
514.53	7311.9	
514.73	8195.3	
514.92	8428.1	
515.12	6784.2	
515.32	6561	
515.51	8510.7	
515.71	9186.5	
515.91	8516.1	
516.11	6630.6	
516.3	10316	
516.5	8096.3	
516.7	7296.9	
516.89	7884.7	
517.09	8283.4	
517.29	8120.9	
517.48	7488.7	
517.68	6944	
517.88	7991.2	
518.07	8746.2	
518.27	7509.9	
518.47	6468.2	
518.66	9296.4	
518.86	7899	
519.06	6374.6	
519.25	6870.9	
519.45	8348.9	
519.65	9742.2	
519.84	7512.6	
520.04	8273.8	
520.24	10139	
520.43	8819.9	
520.63	7152.9	
520.83	6963.1	
521.02	8126.3	
521.22	8774.2	
521.42	7528.3	
521.61	8070.4	
521.81	8378.2	
522.01	8481.3	
522.2	7355.6	
522.4	7130.3	
522.6	9109.4	
522.79	7873.1	
522.99	7178.1	
523.18	6600.6	
523.38	8809.7	
523.58	8786.5	
523.77	8636.3	
523.97	6488	
524.17	10811	
524.36	9879.4	
524.56	8116.8	
524.76	7672.4	
524.95	8776.2	
525.15	8399.4	
525.34	7382.2	
525.54	7364.5	
525.74	9138.7	
525.93	8169.3	
526.13	8619.2	
526.33	7381.6	
526.52	9594.7	
526.72	9003.6	
526.91	8694.3	
527.11	7965.2	
527.31	9643.2	
527.5	10107	
527.7	7785	
527.89	6820.4	
528.09	8557.1	
528.29	9167.4	
528.48	8378.9	
528.68	7959.8	
528.87	9651.4	
529.07	9775	
529.27	7772.7	
529.46	7329	
529.66	9242.5	
529.85	9617.3	
530.05	7105.1	
530.25	8064.2	
530.44	10774	
530.64	9194	
530.83	7651.2	
531.03	7850.5	
531.23	9550.4	
531.42	9577.7	
531.62	8679.3	
531.81	7846.5	
532.01	9796.8	
532.21	10334	
532.4	7663.5	
532.6	7987.1	
532.79	10803	
532.99	9956.5	
533.18	8096.3	
533.38	9129.2	
533.58	9432.9	
533.77	10245	
533.97	8065.6	
534.16	8995.4	
534.36	10464	
534.55	9574.3	
534.75	9068.4	
534.95	8199.4	
535.14	10404	
535.34	9545.6	
535.53	7784.3	
535.73	9891.7	
535.92	10953	
536.12	9696.4	
536.31	7881.3	
536.51	9236.3	
536.71	9987.3	
536.9	9547.6	
537.1	8135.2	
537.29	8232.8	
537.49	10437	
537.68	9587.2	
537.88	8688.2	
538.07	7809.6	
538.27	9666.4	
538.46	10889	
538.66	7778.9	
538.86	8174.1	
539.05	9814.5	
539.25	10305	
539.44	8668.4	
539.64	8069.7	
539.83	9759.3	
540.03	10716	
540.22	8004.1	
540.42	8112.7	
540.61	9919.7	
540.81	10062	
541	8730.5	
541.2	9254.1	
541.39	9454.1	
541.59	9906.7	
541.78	8998.8	
541.98	8116.1	
542.18	9182.4	
542.37	9215.9	
542.57	8497	
542.76	9074.5	
542.96	9268.4	
543.15	10118	
543.35	8486.1	
543.54	7772	
543.74	10363	
543.93	9856.2	
544.13	8441.7	
544.32	9638.4	
544.52	10131	
544.71	9363.3	
544.91	7568.6	
545.1	8811	
545.3	9404.3	
545.49	10264	
545.69	7542.7	
545.88	8189.8	
546.08	11206	
546.27	10854	
546.47	8688.8	
546.66	8026	
546.86	10387	
547.05	11161	
547.24	8174.8	
547.44	8048.5	
547.63	9273.9	
547.83	10604	
548.02	8464.3	
548.22	8652	
548.41	9127.8	
548.61	10599	
548.8	7892.2	
549	7993.9	
549.19	9795.4	
549.39	10111	
549.58	7671.7	
549.78	8326.4	
549.97	10230	
550.17	9781.1	
550.36	9260.2	
550.55	10253	
550.75	9690.3	
550.94	10673	
551.14	7854	
551.33	8348.9	
551.53	8989.9	
551.72	10144	
551.92	8387.8	
552.11	8138.6	
552.31	10102	
552.5	10146	
552.69	9947	
552.89	7664.9	
553.08	10083	
553.28	9777	
553.47	8058.8	
553.67	9284.8	
553.86	10844	
554.06	8962.6	
554.25	7276.4	
554.44	7835.5	
554.64	11581	
554.83	11016	
555.03	7993.9	
555.22	8329.8	
555.42	10206	
555.61	9990.7	
555.8	8108.6	
556	8424	
556.19	9029.5	
556.39	10475	
556.58	8192.6	
556.78	8161.2	
556.97	9878.7	
557.16	9549.7	
557.36	9553.8	
557.55	7808.2	
557.75	8944.8	
557.94	10703	
558.13	7922.2	
558.33	7705.8	
558.52	10421	
558.72	9338.7	
558.91	7856.7	
559.1	8047.8	
559.3	8976.2	
559.49	8798.1	
559.69	7333.8	
559.88	8428.8	
560.07	9871.2	
560.27	10354	
560.46	8677.9	
560.66	8774.2	
560.85	9704	
561.04	8807.6	
561.24	7773.4	
561.43	8021.9	
561.63	9054.1	
561.82	9339.4	
562.01	9200.8	
562.21	8259.5	
562.4	9870.5	
562.59	10939	
562.79	8128.4	
562.98	7770	
563.18	9725.8	
563.37	11290	
563.56	8673.8	
563.76	7752.2	
563.95	9236.3	
564.14	9161.2	
564.34	8131.8	
564.53	7862.8	
564.73	9681.4	
564.92	10134	
565.11	8301.8	
565.31	7668.3	
565.5	10389	
565.69	9291.6	
565.89	7864.2	
566.08	8116.8	
566.27	10275	
566.47	10730	
566.66	8804.9	
566.85	7463.5	
567.05	9822.7	
567.24	9147.6	
567.44	7800	
567.63	9280.7	
567.82	10143	
568.02	9795.4	
568.21	7814.4	
568.4	8239	
568.6	9650	
568.79	9789.3	
568.98	7654.6	
569.18	7847.8	
569.37	9669.1	
569.56	11727	
569.76	8187.8	
569.95	9189.9	
570.14	10097	
570.34	9967.5	
570.53	7684.7	
570.72	7761.8	
570.91	10490	
571.11	9693.7	
571.3	8126.3	
571.49	9168.8	
571.69	9668.5	
571.88	9265	
572.07	8824.7	
572.27	8833.6	
572.46	9226.8	
572.65	10287	
572.85	8034.9	
573.04	8432.2	
573.23	10529	
573.43	9824.8	
573.62	7712.7	
573.81	8508.6	
574	9827.5	
574.2	9634.3	
574.39	8065.6	
574.58	8389.2	
574.78	10796	
574.97	9970.9	
575.16	8735.3	
575.36	8923.7	
575.55	10342	
575.74	10501	
575.93	7782.3	
576.13	8841.1	
576.32	9679.4	
576.51	10334	
576.71	8269	
576.9	9672.6	
577.09	10702	
577.28	10165	
577.48	8699.8	
577.67	7645.1	
577.86	9775.6	
578.05	10095	
578.25	8374.8	
578.44	8501.8	
578.63	9889.6	
578.83	11151	
579.02	7776.8	
579.21	9336	
579.4	10146	
579.6	9763.3	
579.79	8560.5	
579.98	10847	
580.17	10456	
580.37	10664	
580.56	7984.3	
580.75	8755.7	
580.94	11028	
581.14	10816	
581.33	9245.9	
581.52	8149.6	
581.71	10383	
581.91	11106	
582.1	7767.3	
582.29	8423.3	
582.48	10017	
582.68	9865.7	
582.87	8967.4	
583.06	8511.4	
583.25	10205	
583.45	10077	
583.64	9306.7	
583.83	10008	
584.02	9760.6	
584.21	10178	
584.41	9192	
584.6	8467.7	
584.79	9969.5	
584.98	10755	
585.18	7937.9	
585.37	7879.2	
585.56	9458.2	
585.75	10299	
585.94	8145.5	
586.14	8845.9	
586.33	11022	
586.52	9958.6	
586.71	8701.8	
586.91	8387.8	
587.1	9291.6	
587.29	10436	
587.48	8434.2	
587.67	8231.5	
587.87	10220	
588.06	10426	
588.25	9513.5	
588.44	8884.8	
588.63	9931.3	
588.83	10626	
589.02	8239.7	
589.21	8166.6	
589.4	9621.4	
589.59	9568.1	
589.78	7356.3	
589.98	7644.4	
590.17	9097.1	
590.36	9708.1	
590.55	7019.1	
590.74	7892.2	
590.94	11148	
591.13	9551.7	
591.32	7720.8	
591.51	7204.1	
591.7	10088	
591.89	9593.4	
592.09	7412.3	
592.28	7866.9	
592.47	8839	
592.66	10779	
592.85	7386.3	
593.05	7617.1	
593.24	9325.1	
593.43	10075	
593.62	7600.7	
593.81	8131.8	
594	9406.3	
594.19	9624.8	
594.39	7616.4	
594.58	7498.3	
594.77	9734	
594.96	10376	
595.15	7377.5	
595.34	8194.6	
595.54	9878.7	
595.73	8910	
595.92	6778.1	
596.11	8011	
596.3	10320	
596.49	8858.1	
596.68	7703.8	
596.88	8274.5	
597.07	9962.7	
597.26	8739.4	
597.45	7188.4	
597.64	8557.1	
597.83	8944.2	
598.02	9673.2	
598.22	7281.2	
598.41	8030.1	
598.6	9432.3	
598.79	8830.2	
598.98	7413	
599.17	8371.4	
599.36	9505.3	
599.55	10743	
599.74	9558.6	
599.94	9280	
600.13	10045	
600.32	8798.8	
600.51	7148.1	
600.7	7192.5	
600.89	10673	
601.08	10737	
601.27	6959	
601.47	7982.3	
601.66	9861	
601.85	10590	
602.04	7714.7	
602.23	8032.1	
602.42	8827.4	
602.61	9626.8	
602.8	7656	
602.99	7344	
603.18	9311.4	
603.37	9481.4	
603.57	8072.4	
603.76	8674.5	
603.95	10336	
604.14	9808.4	
604.33	7441	
604.52	7859.4	
604.71	9511.4	
604.9	9099.1	
605.09	8462.2	
605.28	8238.3	
605.47	10131	
605.66	9749	
605.86	8047.2	
606.05	7460.8	
606.24	10073	
606.43	8507.9	
606.62	7850.5	
606.81	8726.4	
607	9991.4	
607.19	9130.5	
607.38	7163.1	
607.57	7519.5	
607.76	9123.7	
607.95	8400.1	
608.14	7942.7	
608.33	8571.4	
608.52	9150.3	
608.72	9987.9	
608.91	7136.5	
609.1	7006.8	
609.29	9092.3	
609.48	8558.5	
609.67	8090.2	
609.86	7038.9	
610.05	8662.2	
610.24	9003.6	
610.43	6967.2	
610.62	6529.6	
610.81	10179	
611	9949.7	
611.19	7120.1	
611.38	7789.8	
611.57	9393.4	
611.76	10752	
611.95	6869.6	
612.14	6710.5	
612.33	9207.7	
612.52	8613.8	
612.71	7434.8	
612.9	6606.7	
613.09	8283.4	
613.28	10722	
613.47	7079.1	
613.66	8200.1	
613.85	9330.5	
614.04	8757.8	
614.24	7245.7	
614.43	6506.4	
614.62	9431.6	
614.81	9326.4	
615	7890.1	
615.19	7857.4	
615.38	8612.4	
615.57	9016.5	
615.76	7723.6	
615.95	8725.7	
616.14	9352.4	
616.33	9085.5	
616.52	8023.9	
616.71	8310.7	
616.9	9392	
617.09	9263	
617.28	7331	
617.47	8903.9	
617.66	8458.1	
617.85	8436.9	
618.04	8361.9	
618.22	7824.6	
618.41	8803.5	
618.6	9762	
618.79	7729.7	
618.98	7258.7	
619.17	10100	
619.36	8366	
619.55	7514.7	
619.74	7618.4	
619.93	9353.8	
620.12	8847.2	
620.31	8192.6	
620.5	8348.9	
620.69	10000	
620.88	10419	
621.07	9047.9	
621.26	8110.6	
621.45	9584.5	
621.64	9624.8	
621.83	8224	
622.02	7247.8	
622.21	9573.6	
622.4	9272.5	
622.59	8784.4	
622.78	8518.9	
622.97	8989.2	
623.16	10005	
623.35	8044.4	
623.54	7188.4	
623.72	9176.3	
623.91	9324.4	
624.1	8434.2	
624.29	7071.6	
624.48	10411	
624.67	9656.2	
624.86	8284.7	
625.05	7281.9	
625.24	10620	
625.43	8855.4	
625.62	10129	
625.81	7584.3	
626	10096	
626.19	9291.6	
626.38	8372.1	
626.56	7727	
626.75	9096.4	
626.94	9901.9	
627.13	8447.9	
627.32	6976.7	
627.51	9785.2	
627.7	11198	
627.89	7184.3	
628.08	8493.6	
628.27	8898.4	
628.46	9101.2	
628.65	7503.1	
628.83	7093.5	
629.02	9749.7	
629.21	8970.8	
629.4	7922.9	
629.59	8174.8	
629.78	9016.5	
629.97	9985.2	
630.16	8298.4	
630.35	7653.9	
630.54	10479	
630.72	10120	
630.91	7605.5	
631.1	8190.5	
631.29	9645.3	
631.48	9772.2	
631.67	8363.2	
631.86	7778.2	
632.05	9061.6	
632.24	9269.8	
632.42	7363.8	
632.61	8128.4	
632.8	9348.3	
632.99	9032.2	
633.18	7955	
633.37	8415.8	
633.56	9558.6	
633.75	9407.7	
633.93	8000	
634.12	7732.4	
634.31	10426	
634.5	10033	
634.69	7793.2	
634.88	8342.1	
635.07	9329.9	
635.25	9990.7	
635.44	8741.4	
635.63	8886.1	
635.82	9050	
636.01	8647.2	
636.2	8639.7	
636.39	8159.8	
636.57	10393	
636.76	9927.2	
636.95	7572.7	
637.14	9093.7	
637.33	9638.4	
637.52	10724	
637.7	7279.8	
637.89	8351.6	
638.08	9196.1	
638.27	10697	
638.46	8361.2	
638.65	8785.8	
638.83	10671	
639.02	8984.4	
639.21	8291.5	
639.4	8813.8	
639.59	9521	
639.78	9092.3	
639.96	7550.2	
640.15	7565.2	
640.34	9323.7	
640.53	9557.2	
640.72	7176.1	
640.91	7509.2	
641.09	8755.1	
641.28	10177	
641.47	7611.6	
641.66	8434.2	
641.85	9426.1	
642.03	9695.1	
642.22	8199.4	
642.41	7649.2	
642.6	8865.7	
642.79	8249.2	
642.97	7457.3	
643.16	8138.6	
643.35	8816.5	
643.54	8641.1	
643.73	7383.6	
643.91	8062.2	
644.1	8471.8	
644.29	9114.1	
644.48	7330.4	
644.67	7444.4	
644.85	8727.8	
645.04	8965.3	
645.23	7003.4	
645.42	7241.6	
645.6	8520.9	
645.79	9716.2	
645.98	7283.9	
646.17	6202.6	
646.36	8211	
646.54	8832.2	
646.73	8028.7	
646.92	6756.2	
647.11	8477.9	
647.29	9592.7	
647.48	6909.2	
647.67	6709.8	
647.86	9848.7	
648.05	9808.4	
648.23	7238.2	
648.42	8546.2	
648.61	9146.9	
648.8	8855.4	
648.98	6847	
649.17	7205.4	
649.36	8430.8	
649.55	7862.2	
649.73	6888	
649.92	7702.4	
650.11	8245.8	
650.3	8634.2	
650.48	7041.6	
650.67	6682.5	
650.86	8888.9	
651.05	7781.6	
651.23	6964.5	
651.42	6980.2	
651.61	8258.1	
651.79	8475.2	
651.98	7198.6	
652.17	6780.8	
652.36	8788.5	
652.54	7883.3	
652.73	6824.5	
652.92	6563.7	
653.11	8826.7	
653.29	8946.9	
653.48	5960.3	
653.67	7102.4	
653.85	8650.6	
654.04	9734.7	
654.23	7261.4	
654.42	6712.6	
654.6	8028	
654.79	8767.4	
654.98	6235.4	
655.16	6698.9	
655.35	7514.7	
655.54	7449.8	
655.73	6264.7	
655.91	6221.7	
656.1	8837.7	
656.29	7481.2	
656.47	5772.5	
656.66	7699	
656.85	7796.6	
657.03	7838.9	
657.22	6327.5	
657.41	6446.3	
657.59	7926.3	
657.78	7725.6	
657.97	6054.5	
658.16	6863.4	
658.34	8656.8	
658.53	9001.5	
658.72	7748.8	
658.9	8292.9	
659.09	7937.9	
659.28	8142.7	
659.46	6571.9	
659.65	6513.2	
659.84	7770	
660.02	8288.1	
660.21	6251.8	
660.4	6296.8	
660.58	8815.8	
660.77	8110.6	
660.96	6991.8	
661.14	5923.4	
661.33	9331.9	
661.52	9234.3	
661.7	5917.9	
661.89	9808.4	
662.08	7723.6	
662.26	7261.4	
662.45	6137.8	
662.64	6287.3	
662.82	8422.6	
663.01	7565.2	
663.2	6311.8	
663.38	7220.5	
663.57	8343.4	
663.75	8257.4	
663.94	6724.8	
664.13	7976.2	
664.31	7624.6	
664.5	8430.8	
664.69	7012.9	
664.87	7404.1	
665.06	7438.2	
665.25	8173.4	
665.43	7709.2	
665.62	7798.7	
665.8	8485.4	
665.99	7823.9	
666.18	6664.1	
666.36	6759	
666.55	8484.7	
666.74	8396	
666.92	6229.9	
667.11	7922.9	
667.29	7741.3	
667.48	8399.4	
667.67	7569.3	
667.85	6468.2	
668.04	7860.8	
668.22	7877.2	
668.41	6759	
668.6	6909.2	
668.78	7570.7	
668.97	7870.3	
669.15	7031.4	
669.34	5992.4	
669.53	7608.2	
669.71	7991.2	
669.9	6213.5	
670.08	6892.1	
670.27	7622.5	
670.46	8211.7	
670.64	7018.4	
670.83	7288.7	
671.01	7473.7	
671.2	8195.3	
671.38	6223.1	
671.57	6105.7	
671.76	8895	
671.94	9405.6	
672.13	5995.1	
672.31	7293.5	
672.5	8328.4	
672.69	7673.7	
672.87	6294.1	
673.06	6613.6	
673.24	8204.2	
673.43	7644.4	
673.61	7058	
673.8	6463.4	
673.98	8383	
674.17	8527.7	
674.36	7147.4	
674.54	6988.4	
674.73	8134.5	
674.91	8318.8	
675.1	6663.4	
675.28	6343.9	
675.47	7898.3	
675.65	8419.9	
675.84	6561	
676.03	6906.4	
676.21	7718.1	
676.4	7129.7	
676.58	7447.8	
676.77	7130.3	
676.95	9203.6	
677.14	7643.7	
677.32	6260.6	
677.51	6039.5	
677.69	8417.2	
677.88	7214.3	
678.06	6186.2	
678.25	6210.1	
678.44	7906.5	
678.62	7671.7	
678.81	5985.5	
678.99	6941.9	
679.18	8724.3	
679.36	8260.8	
679.55	6584.9	
679.73	7244.3	
679.92	8276.5	
680.1	7653.3	
680.29	7845.8	
680.47	6552.8	
680.66	7582.3	
680.84	8544.1	
681.03	5859.9	
681.21	7015.7	
681.4	7690.1	
681.58	7621.2	
681.77	6307.7	
681.95	6264.1	
682.14	8521.6	
682.32	8900.5	
682.51	7290.8	
682.69	6036	
682.88	7564.5	
683.06	8383.7	
683.25	6956.9	
683.43	7397.9	
683.62	7899	
683.8	8368	
683.99	7572	
684.17	6816.3	
684.36	9327.1	
684.54	7892.2	
684.73	5984.8	
684.91	6143.2	
685.1	8076.5	
685.28	7619.8	
685.46	6704.4	
685.65	6795.2	
685.83	8447.2	
686.02	7711.3	
686.2	6253.8	
686.39	6468.2	
686.57	7566.6	
686.76	9134.6	
686.94	6217.6	
687.13	6427.2	
687.31	8338.6	
687.5	7788.4	
687.68	5828.5	
687.86	7231.4	
688.05	9644.6	
688.23	7320.8	
688.42	7337.2	
688.6	6406.7	
688.79	7757.7	
688.97	7760.4	
689.16	6916.7	
689.34	5702.9	
689.52	8647.2	
689.71	8895	
689.89	7195.9	
690.08	6450.4	
690.26	8056	
690.45	7895.6	
690.63	7458	
690.81	6632	
691	7876.5	
691.18	7803.4	
691.37	6922.1	
691.55	9196.1	
691.74	7845.1	
691.92	9912.2	
692.1	6930.3	
692.29	6217.6	
692.47	8088.8	
692.66	7251.2	
692.84	6477.7	
693.02	7110.5	
693.21	7388.4	
693.39	8021.9	
693.58	7204.8	
693.76	6602	
693.94	9278	
694.13	9135.3	
694.31	6606.1	
694.5	7905.8	
694.68	7908.6	
694.86	8288.8	
695.05	7089.4	
695.23	7621.9	
695.42	8856.1	
695.6	11135	
695.78	7839.6	
695.97	6741.2	
696.15	8819.2	
696.34	8189.8	
696.52	6639.5	
696.7	7436.2	
696.89	8497.7	
697.07	7983	
697.25	7374.7	
697.44	8968.1	
697.62	8428.8	
697.81	8984.4	
697.99	7086	
698.17	7650.5	
698.36	7957.7	
698.54	8557.8	
698.72	7528.3	
698.91	6425.2	
699.09	8133.2	
699.28	8013.7	
699.46	7140.6	
699.64	7017.7	
699.83	7981.6	
700.01	9333.3	
700.19	7953.6	
700.38	6334.4	
700.56	9432.9	
700.74	8119.5	
700.93	6668.9	
701.11	7602.7	
701.29	8744.1	
701.48	9831.6	
701.66	7008.8	
701.84	7023.9	
702.03	8358.4	
702.21	9129.8	
702.39	6596.5	
702.58	7196.6	
702.76	8800.8	
702.94	8964.6	
703.13	6619	
703.31	9130.5	
703.49	8099	
703.68	9290.3	
703.86	6847	
704.04	7931.1	
704.23	8672.5	
704.41	9041.8	
704.59	7018.4	
704.78	8364.6	
704.96	9904	
705.14	9192.6	
705.33	6861.4	
705.51	7773.4	
705.69	8629.5	
705.87	9476	
706.06	8109.3	
706.24	6849.1	
706.42	9013.8	
706.61	9299.8	
706.79	8105.2	
706.97	6987.7	
707.16	8430.8	
707.34	9069.1	
707.52	8045.8	
707.7	7120.8	
707.89	8477.9	
708.07	8224.6	
708.25	8106.5	
708.44	8574.8	
708.62	8504.5	
708.8	9738.1	
708.98	8415.1	
709.17	7290.1	
709.35	8958.5	
709.53	8946.9	
709.72	6930.3	
709.9	7542	
710.08	9194.7	
710.26	9334	
710.45	8795.3	
710.63	7350.2	
710.81	8927.1	
710.99	8904.6	
711.18	8059.4	
711.36	7563.1	
711.54	8674.5	
711.72	9495.1	
711.91	7591.8	
712.09	6886	
712.27	8821.3	
712.45	9537.4	
712.64	7846.5	
712.82	6630	
713	8198.7	
713.18	8454	
713.37	6814.3	
713.55	8267.6	
713.73	9437	
713.91	7664.9	
714.1	7098.3	
714.28	6595.8	
714.46	8736.6	
714.64	7942.7	
714.83	5916.6	
715.01	6745.3	
715.19	7953.6	
715.37	7212.3	
715.55	6354.8	
715.74	6612.9	
715.92	8851.3	
716.1	6777.4	
716.28	7790.5	
716.47	6720.8	
716.65	7469.6	
716.83	7528.3	
717.01	6643.6	
717.19	6752.2	
717.38	9850	
717.56	7253.9	
717.74	6993.8	
717.92	6103.6	
718.1	8656.1	
718.29	7811	
718.47	5766.4	
718.65	6550.1	
718.83	8658.1	
719.01	8525	
719.2	5771.2	
719.38	7031.4	
719.56	8274.5	
719.74	10075	
719.92	6408.1	
720.11	7618.4	
720.29	8376.9	
720.47	7391.8	
720.65	5965.1	
720.83	6828.6	
721.02	7697.6	
721.2	7385.7	
721.38	6838.9	
721.56	6077.7	
721.74	6894.8	
721.92	7098.9	
722.11	7367.2	
722.29	7095.5	
722.47	8444.5	
722.65	7487.4	
722.83	6091.3	
723.01	7043	
723.2	7629.4	
723.38	7965.2	
723.56	5528.8	
723.74	6707.8	
723.92	7054.6	
724.1	8376.2	
724.29	6001.2	
724.47	7311.9	
724.65	7193.1	
724.83	7075	
725.01	5866.7	
725.19	6818.4	
725.37	7107.1	
725.56	7313.3	
725.74	5771.9	
725.92	6032	
726.1	7050.5	
726.28	7490.8	
726.46	6541.9	
726.64	6165.1	
726.83	7346.7	
727.01	7696.3	
727.19	5739.1	
727.37	6671.6	
727.55	7488.1	
727.73	8090.8	
727.91	5710.4	
728.09	5558.9	
728.28	8122.2	
728.46	8785.8	
728.64	6828.6	
728.82	6784.2	
729	9270.5	
729.18	8529.8	
729.36	5891.3	
729.54	8408.3	
729.72	9708.7	
729.91	7774.1	
730.09	7952.3	
730.27	6827.9	
730.45	7744.1	
730.63	8458.1	
730.81	7436.2	
730.99	6305.7	
731.17	9046.6	
731.35	7492.2	
731.53	7045.7	
731.71	6556.9	
731.9	8671.1	
732.08	8868.4	
732.26	6746	
732.44	6349.4	
732.62	8813.8	
732.8	8311.3	
732.98	7168.6	
733.16	6173.9	
733.34	8328.4	
733.52	7063.4	
733.7	6683.2	
733.88	7000	
734.07	8174.1	
734.25	7954.3	
734.43	6120.7	
734.61	7818.5	
734.79	9532.6	
734.97	7830.7	
735.15	6267.5	
735.33	6627.9	
735.51	8180.3	
735.69	7799.3	
735.87	7948.8	
736.05	6925.5	
736.23	8032.8	
736.41	7709.2	
736.59	6604	
736.77	6810.2	
736.95	8412.4	
737.13	7858.7	
737.32	6250.4	
737.5	6541.2	
737.68	8992.6	
737.86	7688.8	
738.04	6067.4	
738.22	8087.4	
738.4	7391.8	
738.58	7768.6	
738.76	6829.3	
738.94	5561.6	
739.12	7706.5	
739.3	7473	
739.48	7437.5	
739.66	7095.5	
739.84	7974.1	
740.02	7940	
740.2	5704.3	
740.38	6112.5	
740.56	8314.8	
740.74	7111.9	
740.92	6824.5	
741.1	6692.1	
741.28	7580.2	
741.46	7522.9	
741.64	6320.7	
741.82	6888.7	
742	7703.1	
742.18	7690.8	
742.36	6554.2	
742.54	5985.5	
742.72	8239.7	
742.9	6923.5	
743.08	6853.2	
743.26	5641.5	
743.44	8501.8	
743.62	8218.5	
743.8	7003.4	
743.98	6051.7	
744.16	8034.2	
744.34	7656.7	
744.52	6906.4	
744.7	6799.9	
744.88	8058.8	
745.06	7535.8	
745.24	6945.3	
745.42	7086.7	
745.6	8146.1	
745.78	7884	
745.96	5649	
746.14	5988.9	
746.32	8895.7	
746.5	8195.3	
746.68	6610.2	
746.86	5942.5	
747.03	8613.8	
747.21	6719.4	
747.39	6549.4	
747.57	5904.3	
747.75	7702.4	
747.93	8079.9	
748.11	5954.1	
748.29	5825.8	
748.47	9378.3	
748.65	7325.6	
748.83	6697.5	
749.01	6552.8	
749.19	7849.9	
749.37	6956.3	
749.55	6295.5	
749.73	6406.7	
749.91	7469.6	
750.09	7193.8	
750.26	6470.9	
750.44	5776.6	
750.62	7476.5	
750.8	7531.7	
750.98	5525.4	
751.16	5934.3	
751.34	7558.4	
751.52	6888	
751.7	6822.5	
751.88	5595.1	
752.06	8107.2	
752.24	7803.4	
752.42	5502.2	
752.59	5883.1	
752.77	7387.7	
752.95	8811.7	
753.13	6712.6	
753.31	6045.6	
753.49	7098.3	
753.67	7548.1	
753.85	6341.9	
754.03	5907	
754.21	7783.6	
754.38	8294.3	
754.56	6025.1	
754.74	4937.7	
754.92	7010.2	
755.1	7754.3	
755.28	4947.9	
755.46	4815.5	
755.64	8360.5	
755.82	8309.3	
755.99	4896	
756.17	4990.2	
756.35	5485.1	
756.53	7103.7	
756.71	3674.1	
756.89	4681.7	
757.07	6711.2	
757.25	5755.5	
757.42	5371.1	
757.6	6384.2	
757.78	6936.5	
757.96	5812.8	
758.14	5210	
758.32	4621.6	
758.5	5392.3	
758.67	6287.3	
758.85	4997	
759.03	5018.9	
759.21	6438.8	
759.39	5766.4	
759.57	4457.7	
759.75	5720.7	
759.92	7129.7	
760.1	6402	
760.28	6212.9	
760.46	6437.4	
760.64	6182.1	
760.82	5998.5	
760.99	5774.6	
761.17	5209.3	
761.35	7090.8	
761.53	6056.5	
761.71	5315.2	
761.89	6163.7	
762.06	7012.9	
762.24	6459.3	
762.42	5395.7	
762.6	5184.1	
762.78	6578.1	
762.96	7285.3	
763.13	5857.9	
763.31	5549.3	
763.49	7413	
763.67	6417.7	
763.85	6475.7	
764.02	7034.8	
764.2	7610.3	
764.38	6733	
764.56	5381.4	
764.74	6348	
764.91	7813.7	
765.09	6609.5	
765.27	5028.4	
765.45	4808.6	
765.63	7749.5	
765.8	7643.7	
765.98	4497.3	
766.16	4885.8	
766.34	6049.7	
766.52	5861.3	
766.69	5933	
766.87	4663.9	
767.05	6565.1	
767.23	7339.9	
767.41	4999.1	
767.58	5278.3	
767.76	7105.8	
767.94	7178.8	
768.12	5068	
768.29	5966.4	
768.47	6602	
768.65	7416.4	
768.83	4655.7	
769	5901.6	
769.18	6057.2	
769.36	6856.6	
769.54	5878.4	
769.72	4620.9	
769.89	7090.1	
770.07	7301	
770.25	4988.9	
770.43	6357.6	
770.6	7870.3	
770.78	8297	
770.96	5171.8	
771.14	4992.9	
771.31	6978.8	
771.49	6206	
771.67	4220.2	
771.85	4512.4	
772.02	5448.3	
772.2	6260	
772.38	5293.3	
772.55	4792.2	
772.73	6514.6	
772.91	6255.9	
773.09	5113.8	
773.26	5240.8	
773.44	6392.4	
773.62	6057.9	
773.8	4565.6	
773.97	4349.2	
774.15	6462	
774.33	6110.5	
774.5	4474.1	
774.68	4891.9	
774.86	6675	
775.04	6025.8	
775.21	4506.2	
775.39	4564.9	
775.57	6348	
775.74	6834.8	
775.92	4351.3	
776.1	4307.6	
776.27	6331.6	
776.45	7572	
776.63	4471.4	
776.81	3979.2	
776.98	5908.4	
777.16	7168.6	
777.34	4677.6	
777.51	4940.4	
777.69	5900.2	
777.87	5661.3	
778.04	4627.7	
778.22	5333.6	
778.4	5700.9	
778.57	6402.6	
778.75	3956.7	
778.93	4160.8	
779.1	5442.1	
779.28	5294	
779.46	3896.6	
779.64	4441.4	
779.81	6496.2	
779.99	7484.6	
780.17	5267.4	
780.34	5427.8	
780.52	5934.3	
780.69	6133.7	
780.87	4689.8	
781.05	4258.4	
781.22	5851.7	
781.4	6068.8	
781.58	4365.6	
781.75	3545	
781.93	6061.3	
782.11	5375.9	
782.28	5350	
782.46	4398.4	
782.64	5186.1	
782.81	6166.4	
782.99	4532.8	
783.17	4487.1	
783.34	5997.1	
783.52	5245.5	
783.69	4660.5	
783.87	5524.1	
784.05	5298.1	
784.22	5359.5	
784.4	5451.7	
784.58	4724.7	
784.75	6299.6	
784.93	5340.4	
785.1	4380.6	
785.28	5130.2	
785.46	6029.2	
785.63	5277.6	
785.81	4345.8	
785.99	4171.7	
786.16	5436	
786.34	5803.3	
786.51	4229.7	
786.69	4711	
786.87	5044.8	
787.04	5625.8	
787.22	4005.1	
787.39	5010	
787.57	5223	
787.75	6486.6	
787.92	5272.2	
788.1	5176.6	
788.27	5357.5	
788.45	5112.4	
788.63	4863.2	
788.8	3467.9	
788.98	5614.8	
789.15	5037.3	
789.33	3613.3	
789.5	4366.3	
789.68	6242.2	
789.86	6380.1	
790.03	4808.6	
790.21	4216.8	
790.38	6239.5	
790.56	5433.3	
790.73	4041.3	
790.91	4046.1	
791.09	5274.2	
791.26	6102.3	
791.44	4333.5	
791.61	3686.3	
791.79	5233.2	
791.96	5300.8	
792.14	3814.7	
792.32	3364.1	
792.49	5281.7	
792.67	5371.1	
792.84	3882.9	
793.02	3676.1	
793.19	5739.1	
793.37	6493.4	
793.54	3409.9	
793.72	3773.7	
793.89	6645.7	
794.07	5312.4	
794.25	4279.6	
794.42	3478.1	
794.6	6363.7	
794.77	6003.3	
794.95	4631.1	
795.12	4095.3	
795.3	5176.6	
795.47	5918.6	
795.65	4465.3	
795.82	4354.7	
796	5052.3	
796.17	7109.9	
796.35	4204.5	
796.52	4925.4	
796.7	5818.3	
796.87	5928.9	
797.05	5219.6	
797.22	5034.6	
797.4	5866.7	
797.57	6961	
797.75	4248.2	
797.92	4261.8	
798.1	6257.2	
798.27	5238.7	
798.45	3475.4	
798.62	3728.7	
798.8	5529.5	
798.97	6111.1	
799.15	4595	
799.32	4364.9	
799.5	4749.9	
799.67	5659.2	
799.85	4732.2	
800.02	3394.2	
800.2	5166.3	
800.37	5567.1	
800.55	4955.4	
800.72	4059.1	
800.9	6048.3	
801.07	6567.8	
801.25	5450.3	
801.42	4435.2	
801.6	6116.6	
801.77	5806.7	
801.95	4124.6	
802.12	3947.1	
802.29	5741.1	
802.47	5735.7	
802.64	4403.1	
802.82	3327.9	
802.99	5169.1	
803.17	6281.1	
803.34	4326.7	
803.52	3874.1	
803.69	6931	
803.87	4978.6	
804.04	4225.6	
804.21	4348.5	
804.39	6321.4	
804.56	5450.3	
804.74	3618.8	
804.91	4423.6	
805.09	5237.3	
805.26	5331.5	
805.44	3647.4	
805.61	4065.9	
805.78	5916.6	
805.96	6035.4	
806.13	4427.7	
806.31	4799.8	
806.48	4738.3	
806.66	5310.4	
806.83	4408.6	
807	4345.8	
807.18	5117.2	
807.35	5553.4	
807.53	4252.3	
807.7	3468.6	
807.87	6430.6	
808.05	5221.6	
808.22	4816.1	
808.4	3435.1	
808.57	5272.2	
808.74	4876.9	
808.92	3928	
809.09	5040.1	
809.27	5074.9	
809.44	5727.5	
809.61	3406.5	
809.79	3876.8	
809.96	6395.1	
810.14	6012.8	
810.31	3344.3	
810.48	4154	
810.66	5308.3	
810.83	6104.3	
811.01	3898.6	
811.18	4313	
811.35	6004.6	
811.53	4630.5	
811.7	4745.1	
811.87	4437.9	
812.05	5188.2	
812.22	5162.9	
812.39	3827.7	
812.57	3668.6	
812.74	5231.9	
812.92	7051.2	
813.09	4123.2	
813.26	4566.3	
813.44	6722.8	
813.61	5158.8	
813.78	3407.8	
813.96	4587.4	
814.13	5175.2	
814.3	4872.8	
814.48	5038.7	
814.65	4124.6	
814.82	6625.2	
815	5007.3	
815.17	4200.4	
815.34	5163.6	
815.52	5167	
815.69	5107	
815.87	4187.4	
816.04	3628.3	
816.21	5233.9	
816.38	4653	
816.56	4048.8	
816.73	3760.8	
816.9	6616.3	
817.08	6050.4	
817.25	3843.4	
817.42	4882.4	
817.6	4769.7	
817.77	5257.8	
817.94	4348.5	
818.12	3765.5	
818.29	4958.1	
818.46	7914	
818.64	3977.2	
818.81	3717.1	
818.98	4864.6	
819.16	7176.1	
819.33	4526	
819.5	4232.5	
819.67	5610.8	
819.85	6290.7	
820.02	4182	
820.19	4426.3	
820.37	5419.6	
820.54	5008	
820.71	4278.2	
820.88	5358.2	
821.06	5461.2	
821.23	4963.6	
821.4	4377.9	
821.58	4315.8	
821.75	6015.6	
821.92	5366.4	
822.09	3446.7	
822.27	3750.5	
822.44	5251.7	
822.61	5169.1	
822.79	3501.3	
822.96	6709.1	
823.13	5829.9	
823.3	5010	
823.48	3966.9	
823.65	3622.9	
823.82	5937.7	
823.99	4721.9	
824.17	5079.6	
824.34	3734.1	
824.51	6911.2	
824.68	5264.6	
824.86	3817.4	
825.03	4314.4	
825.2	5190.9	
825.37	6392.4	
825.55	3833.1	
825.72	4284.4	
825.89	7064.8	
826.06	6550.8	
826.24	4115.1	
826.41	4165.6	
826.58	6341.9	
826.75	5549.3	
826.92	3289.7	
827.1	3613.3	
827.27	8832.9	
827.44	6961.7	
827.61	3908.9	
827.79	4791.6	
827.96	4918.5	
828.13	5312.4	
828.3	4112.3	
828.47	3518.4	
828.65	5475.6	
828.82	5344.5	
828.99	5326.8	
829.16	4619.5	
829.34	5867.4	
829.51	5726.8	
829.68	4346.5	
829.85	4469.4	
830.02	6126.2	
830.2	5893.4	
830.37	3249.4	
830.54	5115.8	
830.71	6743.3	
830.88	5203.9	
831.05	3347.1	
831.23	3833.8	
831.4	6393.8	
831.57	7264.1	
831.74	3947.8	
831.91	3489.7	
832.09	5443.5	
832.26	5848.3	
832.43	4136.2	
832.6	4582	
832.77	5479	
832.94	6251.1	
833.12	3270.6	
833.29	4041.3	
833.46	5645.6	
833.63	7518.8	
833.8	4416.1	
833.97	4109.6	
834.15	5881.8	
834.32	5631.2	
834.49	4265.2	
834.66	4403.8	
834.83	6116.6	
835	4916.5	
835.17	3972.4	
835.35	3989.4	
835.52	5754.8	
835.69	5640.1	
835.86	4214	
836.03	3422.8	
836.2	5793	
836.37	5415.5	
836.55	3990.8	
836.72	3822.9	
836.89	5408	
837.06	5990.3	
837.23	4192.9	
837.4	4575.8	
837.57	6755.6	
837.75	7485.3	
837.92	3710.9	
838.09	3954.6	
838.26	5341.8	
838.43	6152.8	
838.6	4316.4	
838.77	3823.6	
838.94	7119.4	
839.11	6787	
839.29	4115.1	
839.46	3216.7	
839.63	5799.8	
839.8	5551.4	
839.97	4001.7	
840.14	3950.5	
840.31	5663.3	
840.48	5829.2	
840.65	3264.5	
840.82	4014.7	
841	5845.6	
841.17	5745.2	
841.34	3652.2	
841.51	3646.1	
841.68	5763.7	
841.85	5532.2	
842.02	3838.6	
842.19	3113.6	
842.36	5570.5	
842.53	5537.7	
842.7	3633.8	
842.87	4442.7	
843.05	7387	
843.22	5498.1	
843.39	3442	
843.56	3734.1	
843.73	5189.6	
843.9	5881.8	
844.07	6064	
844.24	4954	
844.41	8774.2	
844.58	5095.3	
844.75	3488.4	
844.92	3820.8	
845.09	5804.6	
845.26	5819	
845.43	3645.4	
845.6	3848.1	
845.77	5782.8	
845.94	5513.1	
846.12	4055.7	
846.29	4217.5	
846.46	6053.8	
846.63	5859.9	
846.8	3635.8	
846.97	4313.7	
847.14	6322.1	
847.31	5739.8	
847.48	4095.9	
847.65	4543.1	
847.82	6149.4	
847.99	6141.2	
848.16	4855.7	
848.33	4496.7	
848.5	5331.5	
848.67	6348.7	
848.84	3577.8	
849.01	3771	
849.18	5253.7	
849.35	4854.4	
849.52	4616.1	
849.69	3599	
849.86	6020.3	
850.03	6244.3	
850.2	3650.2	
850.37	4465.9	
850.54	6186.9	
850.71	5457.2	
850.88	4352.6	
851.05	3563.5	
851.22	5743.2	
851.39	6406.7	
851.56	3454.2	
851.73	4132.1	
851.9	5030.5	
852.07	6077	
852.24	3969.6	
852.41	3614.7	
852.58	5697.4	
852.75	5139.7	
852.92	4100	
853.09	3545	
853.26	5454.4	
853.43	6297.5	
853.6	3577.1	
853.77	3050.8	
853.94	6423.8	
854.11	5763.7	
854.28	5395.7	
854.44	3953.9	
854.61	6720.8	
854.78	6147.3	
854.95	3572.3	
855.12	4625	
855.29	4684.4	
855.46	6442.9	
855.63	3575.8	
855.8	5003.9	
855.97	5329.5	
856.14	6167.8	
856.31	5133.6	
856.48	3904.1	
856.65	5362.3	
856.82	5055.8	
856.99	3487.7	
857.16	3895.9	
857.33	7131.7	
857.49	5425.1	
857.66	3878.9	
857.83	4184.7	
858	5380	
858.17	5634	
858.34	3418.1	
858.51	3670	
858.68	6507.8	
858.85	6641.6	
859.02	4262.5	
859.19	4497.3	
859.36	5058.5	
859.52	5104.2	
859.69	3642	
859.86	4240	
860.03	5159.5	
860.2	6440.9	
860.37	3248.8	
860.54	3614.7	
860.71	6063.4	
860.88	6547.4	
861.05	4010.6	
861.21	4614.1	
861.38	6593.1	
861.55	4922	
861.72	3224.9	
861.89	4046.1	
862.06	6138.4	
862.23	6702.3	
862.4	3485	
862.56	3758.7	
862.73	5970.5	
862.9	5584.1	
863.07	4200.4	
863.24	3269.9	
863.41	4942.4	
863.58	5087.2	
863.75	3714.3	
863.91	4176.5	
864.08	6464.8	
864.25	6011.5	
864.42	4569.7	
864.59	5108.3	
864.76	6838.2	
864.93	5074.2	
865.09	3510.9	
865.26	3832.4	
865.43	6321.4	
865.6	6774.7	
865.77	3174.4	
865.94	3581.2	
866.1	6345.3	
866.27	6142.5	
866.44	5506.3	
866.61	3445.4	
866.78	5489.2	
866.95	5921.4	
867.11	3467.9	
867.28	3188	
867.45	6173.3	
867.62	5122	
867.79	4207.2	
867.96	3579.2	
868.12	5094.7	
868.29	6066.1	
868.46	3072.6	
868.63	4853	
868.8	6264.1	
868.97	6041.5	
869.13	3738.9	
869.3	3784	
869.47	5943.2	
869.64	6143.2	
869.81	3612.6	
869.97	3618.8	
870.14	5821	
870.31	6537.1	
870.48	3618.8	
870.65	4601.1	
870.81	5402.5	
870.98	5395.7	
871.15	4088.4	
871.32	3682.9	
871.48	5872.9	
871.65	6584.9	
871.82	3594.2	
871.99	3946.4	
872.16	6993.1	
872.32	6399.2	
872.49	3618.8	
872.66	3658.4	
872.83	5991	
872.99	5344.5	
873.16	4160.1	
873.33	3588	
873.5	5687.2	
873.67	5664	
873.83	3870	
874	4859.8	
874.17	5794.4	
874.34	7038.9	
874.5	4739.7	
874.67	4506.2	
874.84	6521.4	
875.01	5037.3	
875.17	5137	
875.34	3588	
875.51	5748	
875.68	6891.4	
875.84	4343.1	
876.01	5345.9	
876.18	6038.8	
876.34	5911.8	
876.51	3678.2	
876.68	3556	
876.85	5522.7	
877.01	6364.4	
877.18	5188.2	
877.35	3629.7	
877.52	5623.7	
877.68	4961.5	
877.85	3539.6	
878.02	3543	
878.18	5616.2	
878.35	5251.7	
878.52	2864.4	
878.69	4043.4	
878.85	6048.3	
879.02	6000.5	
879.19	5134.9	
879.35	3895.9	
879.52	5954.1	
879.69	6239.5	
879.86	3082.2	
880.02	4048.8	
880.19	5533.6	
880.36	6848.4	
880.52	4199	
880.69	4344.4	
880.86	6126.2	
881.02	6232	
881.19	3984.7	
881.36	3899.3	
881.52	5947.3	
881.69	5262.6	
881.86	3854.3	
882.02	3761.4	
882.19	6319.3	
882.36	7419.1	
882.52	3690.4	
882.69	5063.9	
882.86	5821	
883.02	5649.7	
883.19	4371	
883.36	4193.6	
883.52	6055.8	
883.69	6989	
883.86	3680.2	
884.02	3273.3	
884.19	6085.2	
884.36	5567.1	
884.52	4122.6	
884.69	3781.9	
884.86	5301.5	
885.02	6701.6	
885.19	4111	
885.36	4156	
885.52	5580	
885.69	5758.2	
885.86	5232.6	
886.02	4650.9	
886.19	6079.7	
886.35	5493.3	
886.52	3996.3	
886.69	5134.9	
886.85	5137	
887.02	6481.1	
887.19	6481.1	
887.35	6481.1	
887.52	6481.1	
887.68	6481.1	
887.85	6481.1	
888.02	6481.1	
888.18	6481.1	
888.35	6481.1	
888.51	6481.1	
888.68	6481.1	
888.85	6481.1	
889.01	6481.1	
889.18	6481.1	
889.35	6481.1	
889.51	6481.1	
889.68	6481.1	
889.84	6481.1	
890.01	6481.1	
890.17	6481.1	
890.34	6481.1	
890.51	6481.1	
890.67	6481.1	
890.84	6481.1	
891	6481.1	
891.17	6481.1	
891.34	6481.1	
891.5	6481.1	
891.67	6481.1	
891.83	6481.1	
892	6481.1	
892.16	6481.1	
892.33	6481.1	
892.5	6481.1	
892.66	6481.1	
892.83	6481.1	
892.99	6481.1	
893.16	6481.1	
893.32	6481.1	
893.49	6481.1	
893.65	6481.1	
893.82	6481.1	
893.99	6481.1	
894.15	6481.1	
894.32	6481.1	
894.48	6481.1	
894.65	6481.1	
894.81	6481.1	
894.98	6481.1	
895.14	6481.1	
895.31	6481.1	
895.47	6481.1	
895.64	6481.1	
895.81	6481.1	
895.97	6481.1	
896.14	6481.1	
896.3	6481.1	
896.47	6481.1	
896.63	6481.1	
896.8	6481.1	
896.96	6481.1	
897.13	6481.1	
897.29	6481.1	
897.46	6481.1	
897.62	6481.1	
897.79	6481.1	
897.95	6481.1	
898.12	6481.1	
898.28	6481.1	
898.45	6481.1	
898.61	6481.1	
898.78	6481.1	
898.94	6481.1	
899.11	6481.1	
899.27	6481.1	
899.44	6481.1	
899.6	6481.1	
899.77	6481.1	
899.93	6481.1	
900.1	6481.1	
900.26	6481.1	
900.43	6481.1	
900.59	6481.1	
900.76	6481.1	
900.92	6481.1	
901.09	6481.1	
901.25	6481.1	
901.42	6481.1	
901.58	6481.1	
901.75	6481.1	
901.91	6481.1	
902.07	6481.1	
902.24	6481.1	
902.4	6481.1	
902.57	6481.1	
902.73	6481.1	
902.9	6481.1	
903.06	6481.1	
903.23	6481.1	
903.39	6481.1	
903.56	6481.1	
903.72	6481.1	
903.88	6481.1	
904.05	6481.1	
904.21	6481.1	
904.38	6481.1	
904.54	6481.1	
904.71	6481.1	
904.87	6481.1	
905.03	6481.1	
905.2	6481.1	
905.36	6481.1	
905.53	6481.1	
905.69	6481.1	
905.86	6481.1	
906.02	6481.1	
906.18	6481.1	
906.35	6481.1	
906.51	6481.1	
906.68	6481.1	
906.84	6481.1	
907.01	6481.1	
907.17	6481.1	
907.33	6481.1	
907.5	6481.1	
907.66	6481.1	
907.83	6481.1	
907.99	6481.1	
908.15	6481.1	
908.32	6481.1	
908.48	6481.1	
908.65	6481.1	
908.81	6481.1	
908.97	6481.1	
909.14	6481.1	
909.3	6481.1	
909.47	6481.1	
909.63	6481.1	
909.79	6481.1	
909.96	6481.1	
910.12	6481.1	
910.28	6481.1	
910.45	6481.1	
910.61	6481.1	
910.78	6481.1	
910.94	6481.1	
911.1	6481.1	
911.27	6481.1	
911.43	6481.1	
911.59	6481.1	
911.76	6481.1	
911.92	6481.1	
912.08	6481.1	
912.25	6481.1	
912.41	6481.1	
912.57	6481.1	
912.74	6481.1	
912.9	6481.1	
913.07	6481.1	
913.23	6481.1	
913.39	6481.1	
913.56	6481.1	
913.72	6481.1	
913.88	6481.1	
914.05	6481.1	
914.21	6481.1	
914.37	6481.1	
914.54	6481.1	
914.7	6481.1	
914.86	6481.1	
915.03	6481.1	
915.19	6481.1	
