Wavelength	Intensities	
nm	a.u.	
179.22	1760.2	
179.44	1757.2	
179.65	1763.3	
179.86	1751	
180.08	1738.7	
180.29	4160.1	
180.51	3094.5	
180.72	5125.4	
180.94	5854.5	
181.15	2849.4	
181.37	2814.6	
181.58	4995	
181.79	5188.2	
182.01	2997.5	
182.22	3142.9	
182.44	5184.1	
182.65	4440	
182.87	3859.1	
183.08	3457.7	
183.29	5450.3	
183.51	4560.1	
183.72	3112.9	
183.94	4388.8	
184.15	4914.4	
184.37	4848.2	
184.58	2837.1	
184.79	3735.5	
185.01	4635.2	
185.22	5198.4	
185.44	3936.2	
185.65	3342.3	
185.86	4842.1	
186.08	4481.6	
186.29	2737.5	
186.51	2930	
186.72	4638	
186.94	5296	
187.15	3410.6	
187.36	3430.3	
187.58	6745.3	
187.79	5015.5	
188.01	3521.1	
188.22	5408.7	
188.43	5865.4	
188.65	5165	
188.86	2970.9	
189.08	3433.1	
189.29	4713.1	
189.5	4739.7	
189.72	3177.8	
189.93	3252.9	
190.15	5377.3	
190.36	6186.9	
190.57	3412.6	
190.79	3364.8	
191	5345.2	
191.22	5296	
191.43	3510.9	
191.64	2968.2	
191.86	5550	
192.07	5367	
192.29	3022.8	
192.5	3175	
192.71	5369.1	
192.93	4676.2	
193.14	3175.7	
193.35	3224.9	
193.57	4676.2	
193.78	5397.1	
194	2618.7	
194.21	3107.5	
194.42	4529.4	
194.64	4906.9	
194.85	3360.7	
195.07	3947.1	
195.28	4899.4	
195.49	4344.4	
195.71	4166.3	
195.92	2985.9	
196.13	5073.5	
196.35	5119.2	
196.56	4405.2	
196.78	3463.8	
196.99	6256.5	
197.2	5791.7	
197.42	3856.3	
197.63	3489.1	
197.84	4424.3	
198.06	5087.2	
198.27	3168.9	
198.48	4138.3	
198.7	4696.7	
198.91	4851	
199.13	3461.1	
199.34	3487.7	
199.55	5283.8	
199.77	4249.5	
199.98	3044.6	
200.19	3508.2	
200.41	4872.1	
200.62	4564.2	
200.83	3587.4	
201.05	3811.3	
201.26	4843.4	
201.47	4603.2	
201.69	3154.6	
201.9	3028.9	
202.11	4837.3	
202.33	5634	
202.54	3243.3	
202.76	3627.6	
202.97	4947.9	
203.18	4989.5	
203.4	3592.8	
203.61	3580.5	
203.82	4952	
204.04	4610	
204.25	3476.8	
204.46	3446	
204.68	4915.8	
204.89	5065.3	
205.1	3374.4	
205.32	2955.9	
205.53	5200.5	
205.74	5311.7	
205.96	2622.1	
206.17	3546.4	
206.38	5183.4	
206.6	5242.8	
206.81	3972.4	
207.02	3217.4	
207.24	5042.8	
207.45	5426.4	
207.66	3315.7	
207.88	2896.5	
208.09	5029.8	
208.3	4872.8	
208.52	3050.1	
208.73	3355.9	
208.94	4915.1	
209.15	5440.8	
209.37	3284.3	
209.58	3712.3	
209.79	5274.9	
210.01	4724	
210.22	2743.6	
210.43	2848	
210.65	4874.8	
210.86	5165.7	
211.07	3284.9	
211.29	3038.5	
211.5	5097.4	
211.71	4854.4	
211.93	3020.1	
212.14	3052.2	
212.35	4859.1	
212.56	4943.8	
212.78	3493.8	
212.99	2911.5	
213.2	5637.4	
213.42	4700.8	
213.63	3180.5	
213.84	3353.2	
214.06	4440.7	
214.27	4464.6	
214.48	3309.5	
214.69	3489.7	
214.91	5446.2	
215.12	5480.4	
215.33	3491.8	
215.55	3809.9	
215.76	5840.8	
215.97	5205.9	
216.18	3408.5	
216.4	3356.6	
216.61	4627.7	
216.82	5289.2	
217.04	3105.4	
217.25	3171.6	
217.46	5366.4	
217.67	5238	
217.89	2785.9	
218.1	2862.4	
218.31	4965	
218.53	5054.4	
218.74	3290.4	
218.95	3121.8	
219.16	4875.5	
219.38	5641.5	
219.59	3112.9	
219.8	3734.8	
220.01	6141.9	
220.23	4903.5	
220.44	3993.5	
220.65	3073.3	
220.87	4964.3	
221.08	5378.6	
221.29	2867.2	
221.5	3756	
221.72	6405.4	
221.93	4674.8	
222.14	3506.8	
222.35	4035.2	
222.57	4904.2	
222.78	5237.3	
222.99	3374.4	
223.2	3481.5	
223.42	5154.1	
223.63	5208.7	
223.84	2603	
224.05	2626.9	
224.27	6039.5	
224.48	5575.9	
224.69	4063.9	
224.9	3454.2	
225.12	5071.5	
225.33	4814.8	
225.54	2887	
225.75	3136.8	
225.97	4506.9	
226.18	4848.2	
226.39	3351.8	
226.6	3145.7	
226.82	4723.3	
227.03	4543.1	
227.24	3459.7	
227.45	2927.2	
227.67	5146.5	
227.88	5580	
228.09	3933.5	
228.3	3870	
228.52	5166.3	
228.73	4893.3	
228.94	3239.9	
229.15	2897.2	
229.36	4780.6	
229.58	4839.4	
229.79	3272	
230	3704.8	
230.21	5786.2	
230.43	4971.1	
230.64	3434.4	
230.85	3540.9	
231.06	5291.3	
231.28	5218.9	
231.49	2923.8	
231.7	3381.9	
231.91	5137.7	
232.12	4872.8	
232.34	3005.1	
232.55	3345	
232.76	5380.7	
232.97	5012.1	
233.18	3043.3	
233.4	3439.2	
233.61	5063.9	
233.82	4689.2	
234.03	3244	
234.25	3166.2	
234.46	6587	
234.67	4917.2	
234.88	3558	
235.09	3136.8	
235.31	5096	
235.52	4787.5	
235.73	3383.2	
235.94	2928.6	
236.15	4681.7	
236.37	5786.2	
236.58	3093.1	
236.79	3334.8	
237	5113.8	
237.21	4471.4	
237.43	3561.4	
237.64	2849.4	
237.85	8275.8	
238.06	4551.3	
238.27	3581.9	
238.48	2930	
238.7	5190.9	
238.91	4742.4	
239.12	3337.5	
239.33	3353.9	
239.54	4610	
239.76	4845.5	
239.97	3289	
240.18	3327.9	
240.39	5868.1	
240.6	5066	
240.82	3477.5	
241.03	2811.2	
241.24	4866	
241.45	5592.3	
241.66	3012.6	
241.87	3571	
242.09	5461.9	
242.3	5748	
242.51	3619.4	
242.72	3315.7	
242.93	5227.1	
243.14	4848.9	
243.36	3811.3	
243.57	4103.4	
243.78	5566.4	
243.99	5168.4	
244.2	3278.1	
244.41	3086.3	
244.63	4527.4	
244.84	5139	
245.05	3549.1	
245.26	3327.9	
245.47	5122.7	
245.68	5325.4	
245.9	4286.4	
246.11	3486.3	
246.32	4722.6	
246.53	5095.3	
246.74	5272.8	
246.95	2823.5	
247.16	4537.6	
247.38	4977.9	
247.59	2843.3	
247.8	3329.3	
248.01	4547.2	
248.22	4873.5	
248.43	3072	
248.64	3274	
248.86	4434.5	
249.07	4701.5	
249.28	2984.6	
249.49	3455.6	
249.7	5324	
249.91	5418.9	
250.12	2805	
250.34	2878.1	
250.55	4984.8	
250.76	4891.2	
250.97	3458.3	
251.18	3475.4	
251.39	5417.6	
251.6	5026.4	
251.81	3507.5	
252.03	3431	
252.24	4706.2	
252.45	5256.5	
252.66	2936.8	
252.87	3663.1	
253.08	4862.6	
253.29	6151.4	
253.5	2961.4	
253.72	3942.3	
253.93	4792.9	
254.14	5687.2	
254.35	3180.5	
254.56	3246	
254.77	5068.7	
254.98	4557.4	
255.19	3167.5	
255.41	3970.3	
255.62	4988.2	
255.83	5416.9	
256.04	3527.3	
256.25	3480.9	
256.46	5793	
256.67	4674.1	
256.88	3463.1	
257.09	3756.7	
257.31	4535.6	
257.52	4609.3	
257.73	4234.5	
257.94	3186.6	
258.15	4816.1	
258.36	4868.7	
258.57	3921.2	
258.78	2611.2	
258.99	5259.2	
259.2	4719.9	
259.41	3203.7	
259.63	3304.1	
259.84	5558.2	
260.05	5804.6	
260.26	4078.2	
260.47	3138.2	
260.68	5388.2	
260.89	4828.4	
261.1	3775.1	
261.31	3053.5	
261.52	5347.9	
261.73	5653.1	
261.95	4103.4	
262.16	3557.3	
262.37	5419.6	
262.58	5526.1	
262.79	4020.2	
263	3216	
263.21	4895.3	
263.42	4729.4	
263.63	3345.7	
263.84	3193.5	
264.05	5276.9	
264.26	5571.2	
264.47	3923.2	
264.69	3538.9	
264.9	5496.1	
265.11	5051.7	
265.32	3106.1	
265.53	3172.3	
265.74	4955.4	
265.95	4420.2	
266.16	3378.5	
266.37	3683.6	
266.58	4980	
266.79	4766.3	
267	3176.4	
267.21	2919.7	
267.42	4519.9	
267.63	4812	
267.84	3294.5	
268.06	2880.1	
268.27	5276.3	
268.48	5466	
268.69	3231.7	
268.9	3801	
269.11	5414.1	
269.32	4461.2	
269.53	3349.1	
269.74	3095.2	
269.95	5124	
270.16	4407.9	
270.37	3343	
270.58	3812	
270.79	4807.3	
271	5338.4	
271.21	3565.5	
271.42	3423.5	
271.63	5048.2	
271.84	4575.8	
272.05	2736.1	
272.26	3050.1	
272.47	4827.7	
272.68	5044.1	
272.89	3276.1	
273.11	3614	
273.32	4707.6	
273.53	5608.7	
273.74	3551.2	
273.95	3523.2	
274.16	5341.1	
274.37	4923.3	
274.58	3669.3	
274.79	2920.4	
275	5033.2	
275.21	5371.8	
275.42	4375.1	
275.63	3680.2	
275.84	5162.9	
276.05	6286.6	
276.26	3495.9	
276.47	3253.5	
276.68	4788.8	
276.89	5671.5	
277.1	3678.8	
277.31	2959.3	
277.52	5059.2	
277.73	5272.8	
277.94	2923.8	
278.15	3210.5	
278.36	5053	
278.57	4582.7	
278.78	3237.8	
278.99	3574.4	
279.2	4635.9	
279.41	4566.3	
279.62	4170.3	
279.83	2940.2	
280.04	5789.6	
280.25	4577.9	
280.46	4101.4	
280.67	3327.9	
280.88	4648.2	
281.09	5399.8	
281.3	3496.6	
281.51	4330.1	
281.72	4614.1	
281.93	5284.4	
282.14	3151.8	
282.35	3395.5	
282.56	5296	
282.77	5272.2	
282.98	3220.1	
283.19	3922.5	
283.4	6290.7	
283.61	4831.8	
283.82	3003.7	
284.03	4110.3	
284.24	5014.8	
284.45	5368.4	
284.66	4107.5	
284.87	3913.7	
285.08	5354.1	
285.29	5483.1	
285.5	2899.2	
285.71	3250.1	
285.92	5348.6	
286.12	5842.2	
286.33	3947.1	
286.54	3244.7	
286.75	5260.5	
286.96	4797.7	
287.17	3019.4	
287.38	3886.4	
287.59	4648.2	
287.8	4664.6	
288.01	3261	
288.22	3715.7	
288.43	5261.2	
288.64	4405.2	
288.85	3794.9	
289.06	3615.3	
289.27	5201.2	
289.48	5639.4	
289.69	4125.3	
289.9	3741	
290.11	5438	
290.32	4668	
290.53	3839.3	
290.74	3590.8	
290.94	5214.8	
291.15	5289.2	
291.36	3145.7	
291.57	3654.3	
291.78	4778.6	
291.99	4448.9	
292.2	3032.4	
292.41	3576.4	
292.62	5342.5	
292.83	5154.1	
293.04	4365.6	
293.25	3074	
293.46	4742.4	
293.67	5344.5	
293.88	3108.8	
294.09	3028.3	
294.29	4568.3	
294.5	5036	
294.71	3331.4	
294.92	3189.4	
295.13	4712.4	
295.34	5778	
295.55	2818	
295.76	2843.3	
295.97	5243.5	
296.18	5783.5	
296.39	2998.9	
296.6	3125.9	
296.81	4932.9	
297.01	5256.5	
297.22	3269.9	
297.43	3182.5	
297.64	4704.9	
297.85	4592.2	
298.06	2681.5	
298.27	2870.6	
298.48	4955.4	
298.69	4650.9	
298.9	3418.1	
299.11	3076	
299.31	4536.9	
299.52	4527.4	
299.73	3664.5	
299.94	3538.9	
300.15	4901.5	
300.36	4605.9	
300.57	3512.3	
300.78	3519.8	
300.99	4786.8	
301.2	5008.6	
301.4	3134.1	
301.61	3366.9	
301.82	5159.5	
302.03	5231.2	
302.24	3792.2	
302.45	2955.2	
302.66	5097.4	
302.87	5437.4	
303.08	3184.6	
303.29	4181.3	
303.49	4708.3	
303.7	4857.8	
303.91	2862.4	
304.12	4059.1	
304.33	4468.7	
304.54	5082.4	
304.75	3192.8	
304.96	3046.7	
305.16	5173.9	
305.37	5696.1	
305.58	2803	
305.79	2874.7	
306	5188.2	
306.21	4441.4	
306.42	3153.9	
306.63	4643.4	
306.83	4775.2	
307.04	5282.4	
307.25	3414.6	
307.46	3411.9	
307.67	4341	
307.88	5230.5	
308.09	3168.9	
308.29	3203	
308.5	4956.8	
308.71	5294.7	
308.92	3291.1	
309.13	3013.9	
309.34	4806.6	
309.55	4806.6	
309.75	3889.1	
309.96	3498.6	
310.17	5189.6	
310.38	4648.9	
310.59	3713.6	
310.8	2995.5	
311.01	5107	
311.21	4805.2	
311.42	3048.7	
311.63	3145	
311.84	4717.2	
312.05	4973.2	
312.26	3482.2	
312.46	3741	
312.67	4747.9	
312.88	4519.9	
313.09	3031	
313.3	2987.3	
313.51	5470.8	
313.71	5823.7	
313.92	3055.6	
314.13	3198.2	
314.34	5046.9	
314.55	4784.7	
314.76	3822.9	
314.96	3389.4	
315.17	4975.2	
315.38	5162.2	
315.59	3124.5	
315.8	2942.2	
316.01	5512.4	
316.21	5672.2	
316.42	2988.7	
316.63	3355.9	
316.84	4816.1	
317.05	5429.2	
317.26	3584.6	
317.46	3220.8	
317.67	4848.2	
317.88	5209.3	
318.09	3790.1	
318.3	2846.7	
318.5	4753.3	
318.71	5163.6	
318.92	4846.9	
319.13	3569.6	
319.34	5281.7	
319.54	5369.8	
319.75	2883.5	
319.96	2775.7	
320.17	5186.1	
320.38	5375.9	
320.58	2858.3	
320.79	3303.4	
321	5425.1	
321.21	5464	
321.42	3323.2	
321.62	2833.7	
321.83	4627	
322.04	4929.5	
322.25	3209.8	
322.46	3064.4	
322.66	5052.3	
322.87	5149.3	
323.08	3731.4	
323.29	3014.6	
323.5	5813.5	
323.7	4544.4	
323.91	4067.3	
324.12	3680.9	
324.33	4988.9	
324.53	5120.6	
324.74	3580.5	
324.95	3712.3	
325.16	4454.3	
325.37	4773.8	
325.57	3039.9	
325.78	3140.9	
325.99	4964.3	
326.2	4498	
326.4	4330.1	
326.61	2807.1	
326.82	4844.8	
327.03	4949.3	
327.24	4257	
327.44	3972.4	
327.65	5167	
327.86	4246.1	
328.07	3580.5	
328.27	2972.3	
328.48	5446.9	
328.69	4591.5	
328.9	4246.8	
329.1	3261.7	
329.31	4797	
329.52	5556.8	
329.73	3046.7	
329.93	3390.1	
330.14	4924.7	
330.35	5081.7	
330.56	4857.1	
330.76	3706.8	
330.97	4737	
331.18	5001.8	
331.39	3416.7	
331.59	2812.5	
331.8	5394.3	
332.01	5482.4	
332.22	3197.6	
332.42	3549.1	
332.63	5007.3	
332.84	4627	
333.05	3421.5	
333.25	3112.9	
333.46	4712.4	
333.67	4899.4	
333.88	3174.4	
334.08	3502	
334.29	6366.5	
334.5	5433.9	
334.7	2942.9	
334.91	4225	
335.12	4527.4	
335.33	5205.3	
335.53	3336.8	
335.74	4841.4	
335.95	4751.3	
336.16	4577.2	
336.36	3376.4	
336.57	3793.5	
336.78	4510.3	
336.98	5407.3	
337.19	4113.7	
337.4	3299.3	
337.61	5819	
337.81	4510.3	
338.02	3099.3	
338.23	3893.2	
338.43	5461.2	
338.64	4584.7	
338.85	3097.2	
339.05	3930.7	
339.26	5584.1	
339.47	4454.3	
339.68	3090.4	
339.88	4376.5	
340.09	5167.7	
340.3	5251.7	
340.5	3549.8	
340.71	2804.4	
340.92	4526	
341.13	5446.2	
341.33	2966.8	
341.54	3603.1	
341.75	5083.7	
341.95	4734.2	
342.16	3467.2	
342.37	3672.7	
342.57	4597	
342.78	4853.7	
342.99	3786	
343.19	2835.8	
343.4	5248.3	
343.61	5091.9	
343.81	3323.9	
344.02	3020.1	
344.23	5234.6	
344.43	5573.2	
344.64	3753.9	
344.85	3641.3	
345.06	5186.8	
345.26	5315.2	
345.47	3550.5	
345.68	4138.9	
345.88	4399.7	
346.09	5324.7	
346.3	3575.8	
346.5	2757.2	
346.71	4866.7	
346.92	4687.1	
347.12	2877.4	
347.33	3532.1	
347.54	5367	
347.74	5619.6	
347.95	3461.7	
348.16	2706	
348.36	4754	
348.57	4590.2	
348.78	3500.7	
348.98	3754.6	
349.19	4913.1	
349.39	4448.2	
349.6	2884.2	
349.81	3179.1	
350.01	5177.9	
350.22	4674.1	
350.43	3391.4	
350.63	4020.8	
350.84	4955.4	
351.05	4753.3	
351.25	3170.9	
351.46	2857.6	
351.67	5379.3	
351.87	4693.3	
352.08	3308.8	
352.29	3736.2	
352.49	5224.4	
352.7	5334.3	
352.9	3021.4	
353.11	3710.9	
353.32	5816.9	
353.52	4803.9	
353.73	3061.7	
353.94	3712.3	
354.14	5173.2	
354.35	5005.2	
354.55	3169.6	
354.76	3453.6	
354.97	5152	
355.17	4923.3	
355.38	3013.2	
355.59	3949.2	
355.79	4669.4	
356	4971.1	
356.2	3437.2	
356.41	3066.5	
356.62	4543.1	
356.82	4872.1	
357.03	3620.1	
357.24	3351.2	
357.44	4724.7	
357.65	4858.5	
357.85	4372.4	
358.06	3514.3	
358.27	4548.5	
358.47	4724.7	
358.68	3021.4	
358.88	3667.2	
359.09	5171.1	
359.3	5485.1	
359.5	4216.1	
359.71	3818.8	
359.91	5827.8	
360.12	5238	
360.33	3710.9	
360.53	4025.6	
360.74	4823	
360.94	4887.1	
361.15	3871.3	
361.36	3250.1	
361.56	5417.6	
361.77	4962.2	
361.97	4248.9	
362.18	3453.6	
362.38	5459.2	
362.59	4682.3	
362.8	3209.2	
363	3166.2	
363.21	4549.9	
363.41	5089.2	
363.62	3663.8	
363.83	4500.1	
364.03	5212.1	
364.24	5828.5	
364.44	4540.3	
364.65	4439.3	
364.85	5011.4	
365.06	4739.7	
365.27	3444.7	
365.47	3452.2	
365.68	5724.8	
365.88	5038	
366.09	3756	
366.29	3502	
366.5	5119.9	
366.71	5456.5	
366.91	4522.6	
367.12	3900.7	
367.32	5989.6	
367.53	5411.4	
367.73	3828.3	
367.94	4558.1	
368.14	5382.1	
368.35	5993	
368.56	3805.8	
368.76	3460.4	
368.97	5487.2	
369.17	6744.6	
369.38	3421.5	
369.58	3680.2	
369.79	4718.5	
369.99	5765	
370.2	4426.3	
370.4	3719.1	
370.61	5218.9	
370.82	6203.3	
371.02	3673.4	
371.23	3110.9	
371.43	4754.7	
371.64	5761.6	
371.84	3725.3	
372.05	4578.6	
372.25	6728.9	
372.46	5502.9	
372.66	3743.7	
372.87	3697.9	
373.07	5533.6	
373.28	6742.6	
373.48	4397	
373.69	4228.4	
373.9	5152	
374.1	5152	
374.31	4477.5	
374.51	4076.1	
374.72	5811.5	
374.92	5023	
375.13	4538.3	
375.33	3975.1	
375.54	5463.3	
375.74	5119.9	
375.95	3964.2	
376.15	4956.1	
376.36	5636.7	
376.56	5425.8	
376.77	4080.2	
376.97	4430.4	
377.18	6353.5	
377.38	5587.5	
377.59	4746.5	
377.79	3777.8	
378	5483.8	
378.2	5816.9	
378.41	3867.2	
378.61	3753.2	
378.82	5836.7	
379.02	5175.9	
379.23	4000.4	
379.43	4823.6	
379.64	6042.2	
379.84	5622.4	
380.05	3862.5	
380.25	3824.2	
380.46	5676.3	
380.66	5335.6	
380.87	4747.9	
381.07	5043.5	
381.28	6135.7	
381.48	5731.6	
381.69	3841.3	
381.89	3874.8	
382.1	4868	
382.3	5786.2	
382.51	4625	
382.71	5346.6	
382.91	5569.8	
383.12	6054.5	
383.32	4065.2	
383.53	4256.4	
383.73	5549.3	
383.94	5375.2	
384.14	4258.4	
384.35	3539.6	
384.55	5309.7	
384.76	5666	
384.96	4086.4	
385.17	4306.9	
385.37	5677	
385.58	5022.3	
385.78	4280.3	
385.98	3504.8	
386.19	5233.2	
386.39	5550.7	
386.6	3893.9	
386.8	4130.1	
387.01	5587.5	
387.21	5654.4	
387.42	4342.4	
387.62	4851.6	
387.83	5192.3	
388.03	5464.7	
388.23	4144.4	
388.44	4734.9	
388.64	5026.4	
388.85	5011.4	
389.05	4433.9	
389.26	4846.9	
389.46	6624.5	
389.67	6096.1	
389.87	4491.2	
390.07	4448.2	
390.28	5411.4	
390.48	5096.7	
390.69	3884.3	
390.89	4108.2	
391.1	5286.5	
391.3	5945.9	
391.5	4989.5	
391.71	5471.5	
391.91	5823.7	
392.12	6522.8	
392.32	5100.8	
392.53	4399.7	
392.73	5393	
392.93	5542.5	
393.14	4248.9	
393.34	4941.7	
393.55	5809.4	
393.75	5442.1	
393.95	4164.9	
394.16	4056.3	
394.36	5283.8	
394.57	5754.8	
394.77	3823.6	
394.98	4089.8	
395.18	5268.7	
395.38	5332.2	
395.59	4847.5	
395.79	4038.6	
396	5460.6	
396.2	5792.3	
396.4	4676.9	
396.61	4598.4	
396.81	5872.9	
397.02	5344.5	
397.22	4851.6	
397.42	4937	
397.63	5950.7	
397.83	5363.6	
398.04	4027	
398.24	4457.1	
398.44	5688.6	
398.65	5453.1	
398.85	3923.9	
399.05	4006.5	
399.26	5379.3	
399.46	6677.1	
399.67	4371.7	
399.87	4110.3	
400.07	5587.5	
400.28	5933.6	
400.48	4177.9	
400.69	5014.1	
400.89	6098.9	
401.09	6475	
401.3	4151.9	
401.5	4976.6	
401.7	6676.4	
401.91	6832	
402.11	4449.6	
402.32	4560.1	
402.52	6201.2	
402.72	6031.3	
402.93	4754.7	
403.13	3898.6	
403.33	6637.5	
403.54	5550.7	
403.74	4347.8	
403.94	5033.2	
404.15	5652.4	
404.35	6572.6	
404.56	4208.6	
404.76	5606	
404.96	5998.5	
405.17	5825.1	
405.37	5223.7	
405.57	4655.7	
405.78	6058.6	
405.98	5654.4	
406.18	4305.5	
406.39	4988.2	
406.59	6112.5	
406.79	5728.9	
407	4059.8	
407.2	4203.1	
407.4	6115.2	
407.61	6210.8	
407.81	4226.3	
408.01	5918.6	
408.22	5308.3	
408.42	6844.3	
408.62	5170.4	
408.83	4731.5	
409.03	5864	
409.23	5850.4	
409.44	4935.6	
409.64	5083.1	
409.84	6653.9	
410.05	6587.6	
410.25	4995	
410.45	4851.6	
410.66	6320.7	
410.86	8211	
411.06	5288.5	
411.27	5119.2	
411.47	8032.8	
411.67	6434	
411.88	5369.8	
412.08	5565.7	
412.28	6993.8	
412.49	7310.6	
412.69	5251	
412.89	5201.2	
413.09	7238.2	
413.3	7133.8	
413.5	5306.3	
413.7	5020.9	
413.91	6599.2	
414.11	7191.8	
414.31	5231.9	
414.52	5519.3	
414.72	7051.8	
414.92	6948.8	
415.12	5197.1	
415.33	5713.2	
415.53	7266.2	
415.73	7387.7	
415.94	5950	
416.14	5388.9	
416.34	6580.8	
416.55	6361.7	
416.75	6429.3	
416.95	5995.8	
417.15	7302.4	
417.36	7696.9	
417.56	6619.7	
417.76	5849	
417.97	7561.1	
418.17	7365.2	
418.37	5545.2	
418.57	5608.7	
418.78	7260.7	
418.98	6935.1	
419.18	6262	
419.38	6209.4	
419.59	6954.2	
419.79	6621.8	
419.99	5440.1	
420.2	5698.8	
420.4	7297.6	
420.6	7453.2	
420.8	5417.6	
421.01	5314.5	
421.21	7232.1	
421.41	7320.1	
421.61	5680.4	
421.82	5464	
422.02	6864.8	
422.22	7523.6	
422.42	6079.1	
422.63	5757.5	
422.83	6840.2	
423.03	7845.8	
423.23	5809.4	
423.44	4948.6	
423.64	6923.5	
423.84	6641.6	
424.04	5386.8	
424.25	5096	
424.45	7613.7	
424.65	7557	
424.85	4950.6	
425.06	5362.3	
425.26	7667.6	
425.46	6853.9	
425.66	5705	
425.87	5517.9	
426.07	7363.1	
426.27	7212.9	
426.47	5652.4	
426.67	4999.1	
426.88	7607.5	
427.08	7218.4	
427.28	5807.4	
427.48	5005.9	
427.69	6339.8	
427.89	6782.9	
428.09	5722	
428.29	5024.3	
428.5	7318.1	
428.7	7058	
428.9	4964.3	
429.1	5401.9	
429.3	6960.4	
429.51	7278.5	
429.71	5235.3	
429.91	5884.5	
430.11	7227.3	
430.31	7382.2	
430.52	5435.3	
430.72	5727.5	
430.92	7652.6	
431.12	7112.6	
431.32	5291.3	
431.53	5549.3	
431.73	6410.1	
431.93	7662.8	
432.13	5209.3	
432.33	5032.5	
432.54	6773.3	
432.74	6985.6	
432.94	4998.4	
433.14	5799.8	
433.34	7299.6	
433.55	6890.7	
433.75	5740.5	
433.95	7197.2	
434.15	7149.5	
434.35	6898.9	
434.56	5195.7	
434.76	4893.3	
434.96	7030	
435.16	7306.5	
435.36	5145.2	
435.56	6012.8	
435.77	6741.2	
435.97	6972.7	
436.17	6574	
436.37	6100.9	
436.57	6774	
436.78	6791.1	
436.98	5874.3	
437.18	6486.6	
437.38	7319.4	
437.58	6886.6	
437.78	6552.1	
437.99	5523.4	
438.19	7337.9	
438.39	8434.2	
438.59	5446.9	
438.79	4954.7	
438.99	7836.9	
439.2	6825.2	
439.4	5004.6	
439.6	5028.4	
439.8	7092.8	
440	8028.7	
440.2	5935	
440.4	6079.7	
440.61	7559.1	
440.81	7907.9	
441.01	5507	
441.21	6084.5	
441.41	7918.1	
441.61	7535.2	
441.81	6408.8	
442.02	7118.1	
442.22	8259.5	
442.42	7662.1	
442.62	5404.6	
442.82	5472.9	
443.02	7968	
443.22	7217	
443.43	5799.2	
443.63	5483.1	
443.83	7123.5	
444.03	7047.7	
444.23	6539.2	
444.43	6174.6	
444.63	7385	
444.83	8291.5	
445.04	5668.1	
445.24	6612.9	
445.44	7675.8	
445.64	7737.9	
445.84	6198.5	
446.04	6201.9	
446.24	7108.5	
446.44	7959.8	
446.65	5489.2	
446.85	5898.1	
447.05	7275.1	
447.25	7783.6	
447.45	5923.4	
447.65	5367.7	
447.85	7316	
448.05	7040.2	
448.25	6254.5	
448.46	5982.8	
448.66	7413.6	
448.86	7055.9	
449.06	5284.4	
449.26	6198.5	
449.46	7651.9	
449.66	6894.1	
449.86	5890.6	
450.06	5867.4	
450.26	7025.2	
450.47	7543.4	
450.67	5964.4	
450.87	6225.8	
451.07	7640.3	
451.27	7455.3	
451.47	5544.5	
451.67	5873.6	
451.87	7123.5	
452.07	8031.5	
452.27	5737	
452.47	5592.3	
452.67	7299	
452.88	7750.2	
453.08	5182.7	
453.28	6752.2	
453.48	8355	
453.68	7299.6	
453.88	5663.3	
454.08	5742.5	
454.28	7625.3	
454.48	7400.7	
454.68	6281.1	
454.88	6569.2	
455.08	7792.5	
455.28	7524.9	
455.48	5622.4	
455.68	6078.4	
455.89	8264.2	
456.09	7888.8	
456.29	5819	
456.49	5935	
456.69	8046.5	
456.89	7395.2	
457.09	6356.9	
457.29	6680.5	
457.49	7777.5	
457.69	7916.1	
457.89	6228.6	
458.09	5758.9	
458.29	7680.6	
458.49	8211	
458.69	6557.6	
458.89	6044.2	
459.09	8424	
459.29	8533.9	
459.49	6128.2	
459.69	6805.4	
459.9	7990.5	
460.1	7681.9	
460.3	6060.6	
460.5	5883.8	
460.7	8064.9	
460.9	7761.8	
461.1	5668.1	
461.3	6726.2	
461.5	8638.3	
461.7	8301.1	
461.9	6105	
462.1	6353.5	
462.3	7938.6	
462.5	8314.8	
462.7	6134.3	
462.9	6204.7	
463.1	9267.7	
463.3	8877.9	
463.5	6461.3	
463.7	7288.7	
463.9	8145.5	
464.1	8381	
464.3	6619.7	
464.5	6720.8	
464.7	8725	
464.9	8421.9	
465.1	7802.1	
465.3	7054.6	
465.5	8853.4	
465.7	8926.4	
465.9	7288	
466.1	7063.4	
466.3	8730.5	
466.5	8636.3	
466.7	7884	
466.9	6870.9	
467.1	8753	
467.3	9357.9	
467.5	7851.9	
467.7	6924.2	
467.9	9582.4	
468.1	10241	
468.3	7487.4	
468.5	7833.5	
468.7	8711.4	
468.9	8666.3	
469.1	7178.1	
469.3	7678.5	
469.5	10240	
469.7	8312.7	
469.9	7570	
470.1	7066.9	
470.3	8710.7	
470.5	8680.7	
470.7	8087.4	
470.9	7076.4	
471.1	8499.1	
471.3	8809.7	
471.5	6879.1	
471.69	8409.6	
471.89	8448.6	
472.09	7961.1	
472.29	7570	
472.49	7679.9	
472.69	8228.1	
472.89	8833.6	
473.09	6813.6	
473.29	6911.9	
473.49	8398	
473.69	8298.4	
473.89	7540.6	
474.09	7000.6	
474.29	9291	
474.49	8996.7	
474.69	7570	
474.89	7053.2	
475.09	8362.5	
475.29	8360.5	
475.49	6567.2	
475.69	6851.1	
475.88	9591.3	
476.08	8660.2	
476.28	6571.2	
476.48	6776.7	
476.68	8932.6	
476.88	8815.1	
477.08	6709.8	
477.28	6977.4	
477.48	8359.1	
477.68	8823.3	
477.88	6562.4	
478.08	6750.1	
478.28	9204.3	
478.48	8446.5	
478.67	6963.8	
478.87	6417	
479.07	8956.4	
479.27	8467.7	
479.47	7049.8	
479.67	7083.2	
479.87	8908.7	
480.07	9255.5	
480.27	6457.2	
480.47	7752.9	
480.67	8538	
480.87	9058.8	
481.06	6694.8	
481.26	7420.5	
481.46	8627.4	
481.66	8470.4	
481.86	7121.5	
482.06	7832.8	
482.26	8317.5	
482.46	9235	
482.66	6961	
482.86	6701	
483.05	8657.4	
483.25	8070.4	
483.45	9000.1	
483.65	7034.1	
483.85	8265.6	
484.05	8505.2	
484.25	7344	
484.45	7828.7	
484.65	9186.5	
484.84	9276.6	
485.04	7029.3	
485.24	6967.2	
485.44	9515.5	
485.64	8168	
485.84	6485.9	
486.04	7606.8	
486.24	8431.5	
486.44	8777.6	
486.63	6495.5	
486.83	7130.3	
487.03	8436.3	
487.23	8645.2	
487.43	6647	
487.63	8374.1	
487.83	8665.6	
488.02	9409.7	
488.22	7324.2	
488.42	7768.6	
488.62	9297.1	
488.82	8471.8	
489.02	7020.4	
489.22	7175.4	
489.41	9103.2	
489.61	8987.2	
489.81	6832	
490.01	6929.6	
490.21	9153.7	
490.41	9654.1	
490.61	6961.7	
490.8	7020.4	
491	8769.4	
491.2	8237.6	
491.4	7401.4	
491.6	6746.7	
491.8	8711.4	
491.99	8703.2	
492.19	6592.4	
492.39	6847.7	
492.59	9148.3	
492.79	9243.8	
492.99	7619.1	
493.18	6909.2	
493.38	9417.2	
493.58	9999.5	
493.78	7535.8	
493.98	7226.6	
494.18	9213.8	
494.37	8712.1	
494.57	7856.7	
494.77	7593.2	
494.97	9365.4	
495.17	9570.2	
495.37	7375.4	
495.56	7607.5	
495.76	9854.8	
495.96	9609.8	
496.16	8450.6	
496.36	7579.5	
496.55	9661.6	
496.75	9370.1	
496.95	7913.4	
497.15	7793.9	
497.35	9720.3	
497.54	9664.4	
497.74	7638.9	
497.94	9001.5	
498.14	10176	
498.34	10038	
498.53	7490.1	
498.73	8070.4	
498.93	9143.5	
499.13	9711.5	
499.33	7876.5	
499.52	8313.4	
499.72	9767.4	
499.92	9899.9	
500.12	7754.3	
500.32	7936.6	
500.51	9930.6	
500.71	9667.8	
500.91	8568	
501.11	8254	
501.31	9845.3	
501.5	10204	
501.7	8787.2	
501.9	7934.5	
502.1	9686.9	
502.29	9927.2	
502.49	8362.5	
502.69	8692.3	
502.89	9818.6	
503.09	9798.2	
503.28	7437.5	
503.48	7548.1	
503.68	9095	
503.88	9246.6	
504.07	8397.4	
504.27	7853.3	
504.47	9516.2	
504.67	9489.6	
504.86	8308.6	
505.06	8051.2	
505.26	9159.9	
505.46	10470	
505.65	7731.1	
505.85	7974.8	
506.05	9120.3	
506.25	9435	
506.44	7264.8	
506.64	7903.8	
506.84	9001.5	
507.04	9695.1	
507.23	7415.7	
507.43	7885.4	
507.63	10542	
507.83	9017.9	
508.02	7744.7	
508.22	7437.5	
508.42	10580	
508.62	8883.4	
508.81	7674.4	
509.01	8110.6	
509.21	8829.5	
509.4	9037	
509.6	7722.2	
509.8	7363.8	
510	8957.1	
510.19	10163	
510.39	7303.7	
510.59	7471	
510.79	8899.1	
510.98	9985.9	
511.18	7529	
511.38	7531.1	
511.57	9574.3	
511.77	9407	
511.97	7974.1	
512.17	7320.8	
512.36	9467.8	
512.56	9447.3	
512.76	7311.2	
512.95	7094.2	
513.15	9624.8	
513.35	8531.8	
513.55	8093.6	
513.74	7376.8	
513.94	9635	
514.14	9110.7	
514.33	8271.7	
514.53	7931.8	
514.73	9112.1	
514.92	9254.1	
515.12	7505.8	
515.32	7446.4	
515.51	9325.1	
515.71	9622	
515.91	8759.2	
516.11	7462.8	
516.3	10635	
516.5	9011.1	
516.7	7887.4	
516.89	8415.8	
517.09	9096.4	
517.29	9023.4	
517.48	8165.9	
517.68	7665.5	
517.88	8899.8	
518.07	9366	
518.27	8144.8	
518.47	7371.3	
518.66	9794.1	
518.86	8798.1	
519.06	7228.6	
519.25	7578.8	
519.45	9017.9	
519.65	10241	
519.84	8082.6	
520.04	8688.8	
520.24	10595	
520.43	9630.2	
520.63	7854.6	
520.83	7673.7	
521.02	8839.7	
521.22	9428.2	
521.42	7971.4	
521.61	8409	
521.81	9095.7	
522.01	9248.6	
522.2	7918.8	
522.4	7815.7	
522.6	9683.5	
522.79	8714.1	
522.99	7810.3	
523.18	7334.5	
523.38	9493	
523.58	9537.4	
523.77	8928.5	
523.97	7373.4	
524.17	11095	
524.36	10484	
524.56	8553	
524.76	8231.5	
524.95	9641.8	
525.15	9371.5	
525.34	8158.4	
525.54	8226	
525.74	9992	
525.93	9235	
526.13	9206.3	
526.33	8169.3	
526.52	10224	
526.72	9906.7	
526.91	9217.2	
527.11	8602.8	
527.31	10305	
527.5	10722	
527.7	8542.8	
527.89	7863.5	
528.09	9562	
528.29	10018	
528.48	8903.2	
528.68	8615.8	
528.87	10277	
529.07	10403	
529.27	8539.3	
529.46	8157.1	
529.66	9953.8	
529.85	10307	
530.05	8079.2	
530.25	8652	
530.44	11168	
530.64	9887.6	
530.83	8357.1	
531.03	8585.1	
531.23	10326	
531.42	10152	
531.62	9226.8	
531.81	8609	
532.01	10543	
532.21	10842	
532.4	8501.1	
532.6	8754.4	
532.79	11400	
532.99	10718	
533.18	8921.6	
533.38	9597.5	
533.58	10311	
533.77	10848	
533.97	8802.2	
534.16	9445.9	
534.36	11046	
534.55	10403	
534.75	9665.7	
534.95	8938	
535.14	11151	
535.34	10343	
535.53	8584.4	
535.73	10126	
535.92	11538	
536.12	10474	
536.31	8731.2	
536.51	9704	
536.71	10669	
536.9	10361	
537.1	8819.2	
537.29	8992.6	
537.49	11040	
537.68	10345	
537.88	9326.4	
538.07	8679.3	
538.27	10625	
538.46	11445	
538.66	8620.6	
538.86	9021.3	
539.05	10633	
539.25	10973	
539.44	9278.7	
539.64	8789.9	
539.83	10430	
540.03	11305	
540.22	8690.2	
540.42	8735.3	
540.61	10561	
540.81	10723	
541	9135.3	
541.2	9575.6	
541.39	10163	
541.59	10527	
541.78	9417.2	
541.98	8686.8	
542.18	9994.8	
542.37	9973.6	
542.57	8961.2	
542.76	9379	
542.96	9818.6	
543.15	10471	
543.35	8869.1	
543.54	8340.7	
543.74	10591	
543.93	10288	
544.13	8811	
544.32	9596.8	
544.52	10438	
544.71	9972.2	
544.91	8128.4	
545.1	9052	
545.3	9940.8	
545.49	10512	
545.69	8114.7	
545.88	8565.3	
546.08	11272	
546.27	10772	
546.47	8893	
546.66	8297	
546.86	10623	
547.05	11009	
547.24	8542.1	
547.44	8406.9	
547.63	9777	
547.83	10659	
548.02	8727.1	
548.22	8831.5	
548.41	9561.3	
548.61	10605	
548.8	8325	
549	8247.2	
549.19	10179	
549.39	10492	
549.58	7998	
549.78	8559.8	
549.97	10387	
550.17	9899.2	
550.36	9075.9	
550.55	9873.3	
550.75	9865.7	
550.94	10643	
551.14	8122.9	
551.33	8524.3	
551.53	9495.7	
551.72	10266	
551.92	8563.9	
552.11	8269.7	
552.31	10291	
552.5	10125	
552.69	9684.2	
552.89	8030.1	
553.08	10204	
553.28	9992	
553.47	8318.8	
553.67	9184.5	
553.86	10733	
554.06	9318.9	
554.25	7705.1	
554.44	8122.2	
554.64	11282	
554.83	10999	
555.03	8160.5	
555.22	8454	
555.42	10329	
555.61	10132	
555.8	8317.5	
556	8538.7	
556.19	9379	
556.39	10388	
556.58	8265.6	
556.78	8333.9	
556.97	10025	
557.16	9717.6	
557.36	9216.5	
557.55	7942.7	
557.75	9209.7	
557.94	10614	
558.13	8062.2	
558.33	7858.1	
558.52	10509	
558.72	9436.4	
558.91	7976.2	
559.1	8150.2	
559.3	9263.6	
559.49	8919.6	
559.69	7613	
559.88	8393.3	
560.07	9897.2	
560.27	10269	
560.46	8552.3	
560.66	8662.9	
560.85	9779.7	
561.04	9112.1	
561.24	7929.1	
561.43	8021.2	
561.63	9209	
561.82	9512.8	
562.01	8841.8	
562.21	8335.2	
562.4	9901.2	
562.59	10590	
562.79	8122.2	
562.98	7929.1	
563.18	9832.3	
563.37	10977	
563.56	8506.6	
563.76	7881.9	
563.95	9503.3	
564.14	9322.4	
564.34	8099	
564.53	8005.5	
564.73	9904.7	
564.92	10077	
565.11	8284	
565.31	7765.9	
565.5	10405	
565.69	9446.6	
565.89	8048.5	
566.08	8169.3	
566.27	10226	
566.47	10557	
566.66	8689.5	
566.85	7703.1	
567.05	9953.1	
567.24	9450	
567.44	7961.8	
567.63	9002.2	
567.82	10141	
568.02	9831.6	
568.21	7909.9	
568.4	8172.1	
568.6	9787.9	
568.79	9742.9	
568.98	7789.1	
569.18	7808.9	
569.37	9793.4	
569.56	11302	
569.76	8338	
569.95	9039.7	
570.14	9988.6	
570.34	9922.4	
570.53	7708.6	
570.72	7744.1	
570.91	10279	
571.11	9637.1	
571.3	8120.2	
571.49	8839.7	
571.69	9634.3	
571.88	9282.8	
572.07	8594	
572.27	8503.2	
572.46	9247.3	
572.65	10153	
572.85	7966.6	
573.04	8193.9	
573.23	10329	
573.43	9756.5	
573.62	7805.5	
573.81	8333.2	
574	9843.2	
574.2	9562.6	
574.39	8171.4	
574.58	8176.2	
574.78	10403	
574.97	9869.8	
575.16	8574.8	
575.36	8643.8	
575.55	10293	
575.74	10328	
575.93	7744.1	
576.13	8737.3	
576.32	9721	
576.51	10236	
576.71	8161.2	
576.9	9254.8	
577.09	10477	
577.28	10081	
577.48	8551	
577.67	7710.6	
577.86	9794.1	
578.05	9975.7	
578.25	8270.4	
578.44	8391.9	
578.63	9821.4	
578.83	10833	
579.02	7911.3	
579.21	9019.9	
579.4	10003	
579.6	9811.8	
579.79	8350.3	
579.98	10107	
580.17	10304	
580.37	10342	
580.56	8045.8	
580.75	8577.6	
580.94	10686	
581.14	10656	
581.33	9105.3	
581.52	8099.7	
581.71	10210	
581.91	10806	
582.1	7944.1	
582.29	8399.4	
582.48	10070	
582.68	9878.7	
582.87	8718.9	
583.06	8533.9	
583.25	10209	
583.45	9759.9	
583.64	9015.2	
583.83	9638.4	
584.02	9934	
584.21	10239	
584.41	9009	
584.6	8411	
584.79	10115	
584.98	10587	
585.18	8047.2	
585.37	8019.8	
585.56	9617.9	
585.75	10234	
585.94	8144.1	
586.14	8768.7	
586.33	10724	
586.52	10020	
586.71	8510.7	
586.91	8296.3	
587.1	9389.9	
587.29	10206	
587.48	8245.1	
587.67	8133.8	
587.87	10060	
588.06	10021	
588.25	9093.7	
588.44	8525.7	
588.63	9590.6	
588.83	10031	
589.02	7990.5	
589.21	7786.4	
589.4	9341.5	
589.59	9179.7	
589.78	7115.3	
589.98	7234.8	
590.17	8703.9	
590.36	9067	
590.55	6689.3	
590.74	7309.9	
590.94	10031	
591.13	8878.6	
591.32	7098.9	
591.51	6761.7	
591.7	9323.7	
591.89	8951	
592.09	6809.5	
592.28	7308.5	
592.47	8335.2	
592.66	9950.4	
592.85	6946.7	
593.05	7138.5	
593.24	8867	
593.43	9592	
593.62	7186.3	
593.81	7557	
594	8955.8	
594.19	9200.8	
594.39	7154.9	
594.58	7071.6	
594.77	9318.3	
594.96	9604.3	
595.15	7076.4	
595.34	7527	
595.54	9047.2	
595.73	8365.3	
595.92	6462	
596.11	7391.1	
596.3	9486.9	
596.49	8497.7	
596.68	7334.5	
596.88	7680.6	
597.07	9346.2	
597.26	8420.6	
597.45	6957.6	
597.64	7916.8	
597.83	8667.7	
598.02	9193.3	
598.22	6969.2	
598.41	7531.1	
598.6	8957.8	
598.79	8555	
598.98	7027.9	
599.17	7790.5	
599.36	9099.8	
599.55	9839.1	
599.74	8691.6	
599.94	8471.1	
600.13	9431.6	
600.32	8621.9	
600.51	6850.5	
600.7	7005.4	
600.89	10046	
601.08	10072	
601.27	6833.4	
601.47	7593.9	
601.66	9400.9	
601.85	9921.7	
602.04	7467.6	
602.23	7615.7	
602.42	8767.4	
602.61	9206.3	
602.8	7331	
602.99	7167.9	
603.18	8955.8	
603.37	9110	
603.57	7604.8	
603.76	8133.2	
603.95	9783.8	
604.14	9389.9	
604.33	7330.4	
604.52	7451.9	
604.71	9183.8	
604.9	8835.6	
605.09	7982.3	
605.28	7851.9	
605.47	9658.9	
605.66	9406.3	
605.86	7698.3	
606.05	7241.6	
606.24	9660.3	
606.43	8478.6	
606.62	7450.5	
606.81	8071	
607	9516.2	
607.19	9000.8	
607.38	6906.4	
607.57	7225.9	
607.76	8708	
607.95	8289.5	
608.14	7560.4	
608.33	8006.9	
608.52	8780.3	
608.72	9484.1	
608.91	6941.9	
609.1	6879.8	
609.29	8796.7	
609.48	8501.1	
609.67	7649.8	
609.86	6916	
610.05	8595.3	
610.24	8784.4	
610.43	6800.6	
610.62	6503	
610.81	9623.4	
611	9455.5	
611.19	6892.1	
611.38	7505.8	
611.57	8952.4	
611.76	9998.9	
611.95	6718	
612.14	6539.2	
612.33	8822	
612.52	8494.3	
612.71	7161.7	
612.9	6448.4	
613.09	8094.3	
613.28	9992.7	
613.47	6987.7	
613.66	7699	
613.85	8906.6	
614.04	8480.6	
614.24	6924.9	
614.43	6333	
614.62	8900.5	
614.81	8952.4	
615	7417.1	
615.19	7454.6	
615.38	8333.9	
615.57	8749.6	
615.76	7303.1	
615.95	8115.4	
616.14	9048.6	
616.33	8824.7	
616.52	7576.8	
616.71	7742	
616.9	8972.2	
617.09	8813.1	
617.28	7149.5	
617.47	7981.6	
617.66	8196.7	
617.85	8303.8	
618.04	7899.7	
618.22	7438.2	
618.41	8662.2	
618.6	9354.4	
618.79	7268.9	
618.98	7088.7	
619.17	9577	
619.36	8228.1	
619.55	7209.5	
619.74	7262.1	
619.93	9066.4	
620.12	8565.3	
620.31	7703.1	
620.5	7834.8	
620.69	9822.7	
620.88	9930.6	
621.07	8445.8	
621.26	7675.8	
621.45	9314.8	
621.64	9196.1	
621.83	7729	
622.02	7161.7	
622.21	9226.1	
622.4	9084.1	
622.59	8160.5	
622.78	8023.3	
622.97	8804.2	
623.16	9625.5	
623.35	7789.8	
623.54	7083.9	
623.72	8878.6	
623.91	8968.1	
624.1	7870.3	
624.29	6879.8	
624.48	9836.4	
624.67	9252	
624.86	7724.9	
625.05	7140.6	
625.24	9960.6	
625.43	8801.5	
625.62	9183.8	
625.81	7161.7	
626	9470.5	
626.19	8883.4	
626.38	7849.2	
626.56	7394.5	
626.75	8728.4	
626.94	9350.3	
627.13	7825.3	
627.32	6758.3	
627.51	9271.2	
627.7	10139	
627.89	6782.9	
628.08	7791.8	
628.27	8523.6	
628.46	8680	
628.65	7027.9	
628.83	6771.9	
629.02	9230.2	
629.21	8578.3	
629.4	7468.9	
629.59	7598	
629.78	8600.8	
629.97	9482.8	
630.16	7703.8	
630.35	7168.6	
630.54	9738.1	
630.72	9495.7	
630.91	7294.2	
631.1	7623.9	
631.29	8982.4	
631.48	9061.6	
631.67	7701.7	
631.86	7233.4	
632.05	8851.3	
632.24	8823.3	
632.42	7030	
632.61	7524.2	
632.8	8878.6	
632.99	8656.8	
633.18	7602.1	
633.37	7773.4	
633.56	9035	
633.75	8946.2	
633.93	7535.2	
634.12	7342.7	
634.31	9716.2	
634.5	9302.6	
634.69	7389.1	
634.88	7704.5	
635.07	8925.7	
635.25	9325.8	
635.44	8041.7	
635.63	8155.7	
635.82	8766	
636.01	8290.9	
636.2	7943.4	
636.39	7617.1	
636.57	9708.1	
636.76	9295.7	
636.95	7154.9	
637.14	8193.2	
637.33	9114.8	
637.52	9888.3	
637.7	6926.9	
637.89	7856	
638.08	8740.7	
638.27	9912.9	
638.46	7789.1	
638.65	8148.2	
638.83	9833	
639.02	8549.6	
639.21	7613	
639.4	8087.4	
639.59	8958.5	
639.78	8668.4	
639.96	7105.1	
640.15	7096.9	
640.34	8851.3	
640.53	8884.1	
640.72	6820.4	
640.91	7085.3	
641.09	8314.8	
641.28	9397.4	
641.47	7150.8	
641.66	7752.2	
641.85	8860.9	
642.03	9026.8	
642.22	7516.7	
642.41	7116.7	
642.6	8327	
642.79	7894.2	
642.97	6855.2	
643.16	7610.3	
643.35	8312	
643.54	8196.7	
643.73	6802	
643.91	7514	
644.1	8039.6	
644.29	8506.6	
644.48	6865.5	
644.67	6842.3	
644.85	8056	
645.04	8465.6	
645.23	6480.5	
645.42	6644.3	
645.6	8032.8	
645.79	8792.6	
645.98	6543.9	
646.17	5792.3	
646.36	7657.4	
646.54	8082.7	
646.73	7083.2	
646.92	6128.9	
647.11	7666.9	
647.29	8549.6	
647.48	6131.6	
647.67	6068.1	
647.86	8808.3	
648.05	9067.7	
648.23	6479.8	
648.42	7528.3	
648.61	8267.6	
648.8	8110.6	
648.98	6135	
649.17	6518.7	
649.36	7761.8	
649.55	7373.4	
649.73	6244.9	
649.92	6839.5	
650.11	7627.3	
650.3	7908.6	
650.48	6352.1	
650.67	6118	
650.86	8112	
651.05	7230.7	
651.23	6283.2	
651.42	6225.8	
651.61	7698.3	
651.79	7744.1	
651.98	6481.1	
652.17	6185.5	
652.36	8036.2	
652.54	7284.6	
652.73	6196.5	
652.92	6079.7	
653.11	8029.4	
653.29	8113.4	
653.48	5650.3	
653.67	6360.3	
653.85	7757.7	
654.04	8718.2	
654.23	6520.7	
654.42	6192.4	
654.6	7398.6	
654.79	7959.1	
654.98	5670.8	
655.16	6052.4	
655.35	7125.6	
655.54	6891.4	
655.73	5741.8	
655.91	5615.5	
656.1	7767.9	
656.29	6931.7	
656.47	5395	
656.66	6690.7	
656.85	7306.5	
657.03	7232.1	
657.22	5877.7	
657.41	5848.3	
657.59	7349.5	
657.78	7248.4	
657.97	5639.4	
658.16	6226.5	
658.34	7892.2	
658.53	8184.4	
658.72	6865.5	
658.9	7273.7	
659.09	7552.2	
659.28	7576.1	
659.46	6106.4	
659.65	5887.2	
659.84	7294.9	
660.02	7756.3	
660.21	6015.6	
660.4	5859.2	
660.58	8134.5	
660.77	7658	
660.96	6347.3	
661.14	5543.2	
661.33	8470.4	
661.52	8383.7	
661.7	5569.8	
661.89	8346.8	
662.08	7264.1	
662.26	6902.3	
662.45	5788.2	
662.64	5888.6	
662.82	7836.9	
663.01	7121.5	
663.2	5888.6	
663.38	6434	
663.57	7737.2	
663.75	7682.6	
663.94	6148	
664.13	7095.5	
664.31	7326.9	
664.5	7822.6	
664.69	6402	
664.87	6719.4	
665.06	7032.7	
665.25	7649.2	
665.43	6963.8	
665.62	6927.6	
665.8	7828.7	
665.99	7273.7	
666.18	6109.8	
666.36	6146.6	
666.55	7851.9	
666.74	7738.6	
666.92	5866.7	
667.11	7111.9	
667.29	7372	
667.48	7838.9	
667.67	6751.5	
667.85	6038.8	
668.04	7427.3	
668.22	7369.3	
668.41	6120	
668.6	6308.4	
668.78	7162.4	
668.97	7372.7	
669.15	6395.1	
669.34	5666.7	
669.53	7180.9	
669.71	7460.8	
669.9	5697.4	
670.08	6311.2	
670.27	7120.8	
670.46	7624.6	
670.64	6422.4	
670.83	6608.8	
671.01	6978.1	
671.2	7552.2	
671.38	5795.1	
671.57	5709.7	
671.76	8129.1	
671.94	8507.9	
672.13	5601.9	
672.31	6511.9	
672.5	7805.5	
672.69	7237.5	
672.87	5791.7	
673.06	6135.7	
673.24	7667.6	
673.43	7223.2	
673.61	6387.6	
673.8	5940.5	
673.98	7722.2	
674.17	7849.9	
674.36	6514.6	
674.54	6401.3	
674.73	7437.5	
674.91	7713.3	
675.1	6199.2	
675.28	5766.4	
675.47	7382.9	
675.65	7820.5	
675.84	6040.8	
676.03	6300.9	
676.21	7221.1	
676.4	6795.8	
676.58	6625.2	
676.77	6416.3	
676.95	8342.7	
677.14	7141.9	
677.32	5675.6	
677.51	5627.1	
677.69	7828	
677.88	6864.1	
678.06	5683.8	
678.25	5776	
678.44	7359.7	
678.62	7174.7	
678.81	5596.4	
678.99	6302.3	
679.18	7950.2	
679.36	7637.6	
679.55	5905	
679.73	6507.1	
679.92	7580.9	
680.1	7161.1	
680.29	6884.6	
680.47	6040.8	
680.66	7204.1	
680.84	7797.3	
681.03	5457.2	
681.21	6267.5	
681.4	7156.3	
681.58	7032	
681.77	5735.7	
681.95	5671.5	
682.14	7787.7	
682.32	8107.2	
682.51	6535.1	
682.69	5604.6	
682.88	7113.3	
683.06	7527	
683.25	6215.6	
683.43	6581.5	
683.62	7225.9	
683.8	7651.2	
683.99	6668.9	
684.17	6160.3	
684.36	8306.6	
684.54	7265.5	
684.73	5385.5	
684.91	5547.3	
685.1	7273.7	
685.28	6738.5	
685.46	5764.3	
685.65	5848.3	
685.83	7361.1	
686.02	6933.7	
686.2	5393.7	
686.39	5613.5	
686.57	6692.8	
686.76	7971.4	
686.94	5416.9	
687.13	5600.5	
687.31	7351.5	
687.5	6965.1	
687.68	5196.4	
687.86	6168.5	
688.05	8388.5	
688.23	6569.2	
688.42	6156.2	
688.6	5574.6	
688.79	6911.9	
688.97	6946	
689.16	5952.8	
689.34	5130.2	
689.52	7590.5	
689.71	7652.6	
689.89	6150.1	
690.08	5610.8	
690.26	7199.3	
690.45	6991.1	
690.63	6287.3	
690.81	5696.1	
691	7039.6	
691.18	6836.1	
691.37	5829.9	
691.55	7547.4	
691.74	6785.6	
691.92	8405.5	
692.1	5811.5	
692.29	5354.8	
692.47	7030	
692.66	6464.8	
692.84	5502.2	
693.02	5959.6	
693.21	6542.6	
693.39	7048.4	
693.58	6075	
693.76	5599.8	
693.94	7952.9	
694.13	7803.4	
694.31	5769.8	
694.5	6498.9	
694.68	7015	
694.86	7305.1	
695.05	6003.3	
695.23	6371.9	
695.42	7699.7	
695.6	9377.6	
695.78	6532.3	
695.97	5741.8	
696.15	7591.1	
696.34	7071.6	
696.52	5572.5	
696.7	6280.4	
696.89	7438.9	
697.07	6920.8	
697.25	6192.4	
697.44	7366.5	
697.62	7333.1	
697.81	7647.1	
697.99	5901.6	
698.17	6334.4	
698.36	6830	
698.54	7359.7	
698.72	6191.7	
698.91	5436.7	
699.09	7066.2	
699.28	6967.9	
699.46	6046.3	
699.64	5817.6	
699.83	6981.5	
700.01	7854	
700.19	6498.2	
700.38	5251	
700.56	7909.3	
700.74	7073.7	
700.93	5601.9	
701.11	6292	
701.29	7522.9	
701.48	8372.8	
701.66	5827.2	
701.84	5950	
702.03	7250.5	
702.21	7802.8	
702.39	5587.5	
702.58	6000.5	
702.76	7542.7	
702.94	7624.6	
703.13	5548.6	
703.31	7456.7	
703.49	7040.2	
703.68	7784.3	
703.86	5702.2	
704.04	6492.1	
704.23	7495.6	
704.41	7735.2	
704.59	5864.7	
704.78	6802.7	
704.96	8445.8	
705.14	7744.1	
705.33	5730.2	
705.51	6380.1	
705.69	7286.7	
705.87	8006.2	
706.06	6535.1	
706.24	5597.8	
706.42	7595.2	
706.61	7824.6	
706.79	6687.3	
706.97	5718.6	
707.16	7182.9	
707.34	7610.9	
707.52	6537.8	
707.7	5851	
707.89	7381.6	
708.07	6991.1	
708.25	6672.3	
708.44	6681.8	
708.62	7187	
708.8	8178.2	
708.98	6848.4	
709.17	5970.5	
709.35	7582.3	
709.53	7522.2	
709.72	5732.3	
709.9	6027.9	
710.08	7893.6	
710.26	7834.2	
710.45	7081.9	
710.63	5988.3	
710.81	7433.4	
710.99	7521.5	
711.18	6481.1	
711.36	6094.1	
711.54	7366.5	
711.72	7912	
711.91	6113.2	
712.09	5621	
712.27	7462.8	
712.45	7816.4	
712.64	6302.3	
712.82	5386.8	
713	6902.3	
713.18	7006.1	
713.37	5490.6	
713.55	6475.7	
713.73	7729.7	
713.91	6563.7	
714.1	5683.1	
714.28	5214.8	
714.46	7199.3	
714.64	6536.4	
714.83	4691.2	
715.01	5300.1	
715.19	6539.8	
715.37	5969.8	
715.55	4986.8	
715.74	5253	
715.92	7167.9	
716.1	5631.9	
716.28	6064	
716.47	5311.7	
716.65	6188.3	
716.83	6298.2	
717.01	5204.6	
717.19	5130.2	
717.38	7892.2	
717.56	5997.8	
717.74	5416.9	
717.92	4713.1	
718.1	7070.3	
718.29	6307.7	
718.47	4489.1	
718.65	4964.3	
718.83	7036.8	
719.01	7023.9	
719.2	4590.2	
719.38	5461.9	
719.56	6791.7	
719.74	8105.9	
719.92	5223	
720.11	5924.8	
720.29	6889.4	
720.47	6130.3	
720.65	4648.9	
720.83	5345.9	
721.02	6310.5	
721.2	6065.4	
721.38	5337	
721.56	4747.9	
721.74	5701.5	
721.92	5791	
722.11	5731.6	
722.29	5395	
722.47	6756.9	
722.65	6186.9	
722.83	4734.9	
723.01	5408	
723.2	6284.5	
723.38	6498.2	
723.56	4210.6	
723.74	5233.9	
723.92	5856.5	
724.1	6750.8	
724.29	4726	
724.47	5608.7	
724.65	5962.3	
724.83	5811.5	
725.01	4604.5	
725.19	5254.4	
725.37	5898.8	
725.56	5940.5	
725.74	4481	
725.92	4697.4	
726.1	5868.1	
726.28	6182.1	
726.46	5036.6	
726.64	4805.2	
726.83	6125.5	
727.01	6301.6	
727.19	4474.1	
727.37	5104.9	
727.55	6257.9	
727.73	6598.6	
727.91	4450.2	
728.09	4302.1	
728.28	6619	
728.46	6897.6	
728.64	5254.4	
728.82	5175.9	
729	7534.5	
729.18	6954.9	
729.36	4631.1	
729.54	6512.5	
729.72	7755	
729.91	6460	
730.09	6285.2	
730.27	5229.1	
730.45	6408.8	
730.63	6922.8	
730.81	5709.1	
730.99	5040.7	
731.17	7378.1	
731.35	6156.2	
731.53	5485.8	
731.71	5105.6	
731.9	7113.3	
732.08	7229.3	
732.26	5279	
732.44	5010.7	
732.62	7306.5	
732.8	6853.2	
732.98	5617.6	
733.16	4854.4	
733.34	6835.4	
733.52	5827.2	
733.7	5246.9	
733.88	5451.7	
734.07	6736.5	
734.25	6530.3	
734.43	4826.4	
734.61	6029.9	
734.79	7777.5	
734.97	6369.2	
735.15	4937	
735.33	5217.5	
735.51	6690	
735.69	6498.2	
735.87	6228.6	
736.05	5443.5	
736.23	6602.7	
736.41	6317.3	
736.59	5201.2	
736.77	5297.4	
736.95	6920.1	
737.13	6473.6	
737.32	4941.1	
737.5	5188.9	
737.68	7449.8	
737.86	6402.6	
738.04	4831.8	
738.22	6250.4	
738.4	6290	
738.58	6521.4	
738.76	5387.5	
738.94	4454.3	
739.12	6330.3	
739.3	6311.8	
739.48	5841.5	
739.66	5510.4	
739.84	6568.5	
740.02	6501.6	
740.2	4558.1	
740.38	4806.6	
740.56	6819.1	
740.74	5884.5	
740.92	5406.6	
741.1	5280.3	
741.28	6395.1	
741.46	6172.6	
741.64	4991.6	
741.82	5355.4	
742	6432	
742.18	6328.9	
742.36	5136.3	
742.54	4801.8	
742.72	6879.8	
742.9	5834	
743.08	5477	
743.26	4502.8	
743.44	6942.6	
743.62	6834.1	
743.8	5486.5	
743.98	4788.8	
744.16	6640.2	
744.34	6368.5	
744.52	5410.7	
744.7	5403.9	
744.88	6690	
745.06	6301.6	
745.24	5428.5	
745.42	5528.8	
745.6	6760.3	
745.78	6561	
745.96	4431.8	
746.14	4801.1	
746.32	7357	
746.5	6670.2	
746.68	5149.3	
746.86	4749.9	
747.03	7030.7	
747.21	5737	
747.39	5117.2	
747.57	4732.2	
747.75	6337.1	
747.93	6685.3	
748.11	4710.3	
748.29	4661.9	
748.47	7662.1	
748.65	6112.5	
748.83	5284.4	
749.01	5122	
749.19	6462	
749.37	5751.4	
749.55	4980	
749.73	4975.2	
749.91	6272.2	
750.09	6021.7	
750.26	5056.4	
750.44	4508.3	
750.62	6260	
750.8	6206	
750.98	4407.9	
751.16	4730.8	
751.34	6379.4	
751.52	5742.5	
751.7	5328.1	
751.88	4375.8	
752.06	6704.4	
752.24	6417.7	
752.42	4342.4	
752.59	4567.7	
752.77	6184.9	
752.95	7221.8	
753.13	5203.9	
753.31	4729.4	
753.49	5976	
753.67	6284.5	
753.85	5059.8	
754.03	4573.8	
754.21	6447.7	
754.38	6730.3	
754.56	4709	
754.74	3982.6	
754.92	5870.8	
755.1	6323.4	
755.28	3904.8	
755.46	3822.9	
755.64	6892.1	
755.82	6931.7	
755.99	3981.9	
756.17	4029.7	
756.35	4760.8	
756.53	5946.6	
756.71	3051.5	
756.89	3721.8	
757.07	5556.8	
757.25	4876.9	
757.42	4271.4	
757.6	4974.5	
757.78	5763	
757.96	4933.6	
758.14	4034.5	
758.32	3663.8	
758.5	4612.7	
758.67	5253.7	
758.85	3891.8	
759.03	3958.7	
759.21	5393	
759.39	4944.5	
759.57	3551.9	
759.75	4380.6	
759.92	5930.9	
760.1	5369.8	
760.28	4768.4	
760.46	4978.6	
760.64	5176.6	
760.82	4997	
760.99	4534.2	
761.17	4034.5	
761.35	5917.9	
761.53	4986.8	
761.71	4193.6	
761.89	4658.4	
762.06	5820.3	
762.24	5418.9	
762.42	4252.9	
762.6	4015.4	
762.78	5401.9	
762.96	5881.1	
763.13	4560.8	
763.31	4357.4	
763.49	6067.4	
763.67	5380.7	
763.85	4989.5	
764.02	5439.4	
764.2	6362.4	
764.38	5597.8	
764.56	4240.7	
764.74	4958.8	
764.91	6388.3	
765.09	5457.8	
765.27	3977.8	
765.45	3749.1	
765.63	6414.9	
765.8	6285.9	
765.98	3600.3	
766.16	3859.1	
766.34	5119.9	
766.52	4969.7	
766.69	4595.6	
766.87	3711.6	
767.05	5457.2	
767.23	6072.2	
767.41	3908.2	
767.58	4126	
767.76	5935	
767.94	5995.1	
768.12	4002.4	
768.29	4592.9	
768.47	5485.8	
768.65	6112.5	
768.83	3667.2	
769	4572.4	
769.18	5124.7	
769.36	5647.6	
769.54	4667.3	
769.72	3743	
769.89	5964.4	
770.07	5986.2	
770.25	3992.9	
770.43	4982	
770.6	6504.3	
770.78	6836.1	
770.96	4126.7	
771.14	4659.8	
771.31	5850.4	
771.49	5315.2	
771.67	3446	
771.85	3605.1	
772.02	4746.5	
772.2	5267.4	
772.38	4287.8	
772.55	3811.3	
772.73	5530.2	
772.91	5346.6	
773.09	4139.6	
773.26	4132.8	
773.44	5426.4	
773.62	5218.9	
773.8	3703.4	
773.97	3474	
774.15	5467.4	
774.33	5157.5	
774.5	3560.7	
774.68	3919.8	
774.86	5636.7	
775.04	5224.4	
775.21	3644.7	
775.39	3631	
775.57	5418.9	
775.74	5629.2	
775.92	3500	
776.1	3405.1	
776.27	5368.4	
776.45	6386.9	
776.63	3620.1	
776.81	3263.1	
776.98	5096	
777.16	5910.4	
777.34	3736.2	
777.51	4003.8	
777.69	5072.1	
777.87	4822.3	
778.04	3842	
778.22	4219.5	
778.4	4853.7	
778.57	5386.2	
778.75	3194.8	
778.93	3393.5	
779.1	4738.3	
779.28	4569	
779.46	3202.3	
779.64	3507.5	
779.81	5587.5	
779.99	6195.8	
780.17	4225	
780.34	4311.7	
780.52	5073.5	
780.69	5223	
780.87	3815.4	
781.05	3461.1	
781.22	5089.2	
781.4	5132.2	
781.58	3519.8	
781.75	2833.7	
781.93	5143.1	
782.11	4620.9	
782.28	4340.3	
782.46	3566.2	
782.64	4478.2	
782.81	5293.3	
782.99	3631.7	
783.17	3529.3	
783.34	5193.6	
783.52	4672.8	
783.69	3721.2	
783.87	4373.1	
784.05	4710.3	
784.22	4663.9	
784.4	4443.4	
784.58	3848.8	
784.75	5481	
784.93	4668	
785.1	3556	
785.28	4077.5	
785.46	5183.4	
785.63	4580.6	
785.81	3559.4	
785.99	3386	
786.16	4799.1	
786.34	5033.9	
786.51	3400.3	
786.69	3750.5	
786.87	4386.7	
787.04	4894.6	
787.22	3325.2	
787.39	4047.5	
787.57	4616.1	
787.75	5472.2	
787.92	4293.2	
788.1	4091.8	
788.27	4607.2	
788.45	4382.7	
788.63	3936.2	
788.8	2918.4	
788.98	5032.5	
789.15	4369	
789.33	3041.2	
789.5	3510.2	
789.68	5423	
789.86	5483.1	
790.03	3863.2	
790.21	3450.8	
790.38	5384.8	
790.56	4733.5	
790.73	3288.4	
790.91	3305.4	
791.09	4682.3	
791.26	5212.1	
791.44	3540.3	
791.61	3033.7	
791.79	4651.6	
791.96	4650.3	
792.14	3175.7	
792.32	2811.9	
792.49	4635.9	
792.67	4713.7	
792.84	3272	
793.02	3048.1	
793.19	5010.7	
793.37	5555.5	
793.54	2824.8	
793.72	3095.2	
793.89	5633.3	
794.07	4637.3	
794.25	3520.5	
794.42	2934.7	
794.6	5472.9	
794.77	5142.4	
794.95	3785.3	
795.12	3361.4	
795.3	4633.9	
795.47	5058.5	
795.65	3654.3	
795.82	3500	
796	4468	
796.17	5965.7	
796.35	3407.1	
796.52	4059.1	
796.7	5066.7	
796.87	5120.6	
797.05	3403.7	
797.22	4102.1	
797.4	5095.3	
797.57	5877	
797.75	3565.5	
797.92	3341.6	
798.1	5360.9	
798.27	4527.4	
798.45	2901.3	
798.62	3140.2	
798.8	4852.3	
798.97	5298.1	
799.15	3766.9	
799.32	3585.3	
799.5	4275.5	
799.67	4855.7	
799.85	3870.7	
800.02	2841.2	
800.2	4553.3	
800.37	4820.9	
800.55	3932.8	
800.72	3311.6	
800.9	5217.5	
801.07	5590.3	
801.25	4358.8	
801.42	3659.7	
801.6	5279.7	
801.77	4931.5	
801.95	3409.2	
802.12	3243.3	
802.29	5035.3	
802.47	4994.3	
802.64	3638.6	
802.82	2857.6	
802.99	4568.3	
803.17	5345.9	
803.34	3558.7	
803.52	3195.5	
803.69	5898.8	
803.87	4373.8	
804.04	3533.4	
804.21	3602.4	
804.39	5504.9	
804.56	4661.2	
804.74	3026.9	
804.91	3710.2	
805.09	4527.4	
805.26	4698	
805.44	3063.1	
805.61	3335.5	
805.78	5158.2	
805.96	5177.9	
806.13	3673.4	
806.31	3875.4	
806.48	4244.8	
806.66	4661.9	
806.83	3620.8	
807	3570.3	
807.18	4590.9	
807.35	4889.9	
807.53	3489.7	
807.7	2894.5	
807.87	5543.9	
808.05	4562.9	
808.22	3844	
808.4	2882.2	
808.57	4587.4	
808.74	4293.9	
808.92	3290.4	
809.09	4131.4	
809.27	4562.9	
809.44	5011.4	
809.61	2871.3	
809.79	3207.8	
809.96	5543.2	
810.14	5142.4	
810.31	2843.9	
810.48	3463.1	
810.66	4661.9	
810.83	5257.1	
811.01	3253.5	
811.18	3596.2	
811.35	5233.2	
811.53	4042	
811.7	3882.9	
811.87	3629.7	
812.05	4625	
812.22	4546.5	
812.39	3147	
812.57	3064.4	
812.74	4706.9	
812.92	5859.2	
813.09	3494.5	
813.26	3709.6	
813.44	5736.4	
813.61	4508.3	
813.78	2875.3	
813.96	3689.1	
814.13	4590.9	
814.3	4349.9	
814.48	4038.6	
814.65	3399.6	
814.82	5539.1	
815	4387.4	
815.17	3485.6	
815.34	4240.7	
815.52	4543.8	
815.69	4539	
815.87	3462.4	
816.04	3405.8	
816.21	4568.3	
816.38	4096.6	
816.56	3413.3	
816.73	3167.5	
816.9	5699.5	
817.08	5196.4	
817.25	3205.8	
817.42	3990.8	
817.6	4242	
817.77	4595.6	
817.94	3594.2	
818.12	3123.2	
818.29	4382	
818.46	6498.9	
818.64	3282.2	
818.81	3054.2	
818.98	4369	
819.16	6076.3	
819.33	3727.3	
819.5	3476.8	
819.67	4887.8	
819.85	5477.6	
820.02	3412.6	
820.19	3617.4	
820.37	4798.4	
820.54	4544.4	
820.71	3521.1	
820.88	4341	
821.06	4820.9	
821.23	4392.2	
821.4	3507.5	
821.58	3467.2	
821.75	5158.8	
821.92	4733.5	
822.09	2949.1	
822.27	3115	
822.44	4623.6	
822.61	4491.2	
822.79	2890.4	
822.96	5365.7	
823.13	4963.6	
823.3	4348.5	
823.48	3352.5	
823.65	3013.2	
823.82	5184.1	
823.99	4261.1	
824.17	4166.9	
824.34	3059.7	
824.51	5883.8	
824.68	4698.7	
824.86	3185.3	
825.03	3486.3	
825.2	4620.2	
825.37	5468.8	
825.55	3211.9	
825.72	3441.3	
825.89	5935	
826.06	5489.2	
826.24	3444	
826.41	3375.1	
826.58	5563	
826.75	4831.8	
826.92	2772.9	
827.1	3055.6	
827.27	7281.2	
827.44	5792.3	
827.61	3220.1	
827.79	3861.1	
827.96	4432.5	
828.13	4639.3	
828.3	3374.4	
828.47	2907.4	
828.65	4862.6	
828.82	4838	
828.99	4270	
829.16	3741	
829.34	5183.4	
829.51	5005.2	
829.68	3467.2	
829.85	3622.2	
830.02	5412.1	
830.2	5183.4	
830.37	2760.7	
830.54	4169	
830.71	5750	
830.88	4620.2	
831.05	2783.9	
831.23	3185.3	
831.4	5614.2	
831.57	6145.3	
831.74	3267.9	
831.91	2832.3	
832.09	4874.2	
832.26	5179.3	
832.43	3344.3	
832.6	3732.8	
832.77	4885.1	
832.94	5408.7	
833.12	2702.6	
833.29	3318.4	
833.46	4917.2	
833.63	6322.1	
833.8	3632.4	
833.97	3332.7	
834.15	5201.8	
834.32	4967.7	
834.49	3539.6	
834.66	3562.8	
834.83	5315.8	
835	4425	
835.17	3201	
835.35	3234.4	
835.52	5089.2	
835.69	4943.1	
835.86	3403.7	
836.03	2863.7	
836.2	5107.6	
836.37	4831.2	
836.55	3332	
836.72	3082.9	
836.89	4789.5	
837.06	5256.5	
837.23	3448.1	
837.4	3704.8	
837.57	5891.3	
837.75	6263.4	
837.92	3049.4	
838.09	3272	
838.26	4773.8	
838.43	5339.7	
838.6	3491.8	
838.77	3162.7	
838.94	6069.5	
839.11	5746.6	
839.29	3374.4	
839.46	2680.1	
839.63	5178.6	
839.8	4823.6	
839.97	3218	
840.14	3224.9	
840.31	4969.7	
840.48	5129.5	
840.65	2757.9	
840.82	3220.8	
841	5140.4	
841.17	5072.1	
841.34	3016.7	
841.51	3068.5	
841.68	5047.6	
841.85	4848.9	
842.02	3097.9	
842.19	2614.6	
842.36	4917.9	
842.53	4925.4	
842.7	3067.2	
842.87	3620.1	
843.05	6238.8	
843.22	4874.8	
843.39	2853.5	
843.56	3092.4	
843.73	4788.2	
843.9	5159.5	
844.07	4696	
844.24	3944.4	
844.41	7150.8	
844.58	4496	
844.75	2900.6	
844.92	3095.8	
845.09	5101.5	
845.26	5118.6	
845.43	2977.7	
845.6	3157.3	
845.77	5160.9	
845.94	4919.2	
846.12	3299.3	
846.29	3441.3	
846.46	5249.6	
846.63	5130.2	
846.8	3009.8	
846.97	3528.7	
847.14	5532.9	
847.31	5062.6	
847.48	3327.3	
847.65	3689.8	
847.82	5368.4	
847.99	5360.9	
848.16	3900	
848.33	3635.8	
848.5	4709.6	
848.67	5515.9	
848.84	2970.9	
849.01	3108.8	
849.18	4676.9	
849.35	4384	
849.52	3669.3	
849.69	2958.6	
849.86	5350.7	
850.03	5381.4	
850.2	2953.9	
850.37	3644	
850.54	5397.1	
850.71	4849.6	
850.88	3553.2	
851.05	2954.5	
851.22	5036.6	
851.39	5593	
851.56	2810.5	
851.73	3348.4	
851.9	4509.6	
852.07	5303.6	
852.24	3282.2	
852.41	2952.5	
852.58	5046.9	
852.75	4607.9	
852.92	3276.8	
853.09	2937.5	
853.26	4773.8	
853.43	5493.3	
853.6	2928.6	
853.77	2540.8	
853.94	5603.9	
854.11	4538.3	
854.28	4322.6	
854.44	3216	
854.61	5868.8	
854.78	5324	
854.95	2965.5	
855.12	3699.3	
855.29	4191.5	
855.46	5681.7	
855.63	3009.8	
855.8	4015.4	
855.97	4721.3	
856.14	5455.1	
856.31	4145.1	
856.48	3242.6	
856.65	4760.2	
856.82	4528.1	
856.99	2897.2	
857.16	3186	
857.33	6091.3	
857.49	4866.7	
857.66	3194.8	
857.83	3371.6	
858	4803.2	
858.17	4984.1	
858.34	2809.8	
858.51	3003	
858.68	5646.9	
858.85	5636.7	
859.02	3448.1	
859.19	3661.1	
859.36	4546.5	
859.52	4531.5	
859.69	3050.8	
859.86	3496.6	
860.03	4587.4	
860.2	5536.3	
860.37	2764.8	
860.54	2998.2	
860.71	5268.7	
860.88	5626.5	
861.05	3362.8	
861.21	3725.3	
861.38	5564.3	
861.55	4388.1	
861.72	2754.5	
861.89	3297.2	
862.06	5313.1	
862.23	5702.2	
862.4	2902.7	
862.56	3064.4	
862.73	5214.8	
862.9	4880.3	
863.07	3444.7	
863.24	2679.4	
863.41	4515.1	
863.58	4570.4	
863.75	3036.5	
863.91	3431.7	
864.08	5538.4	
864.25	5233.9	
864.42	3689.1	
864.59	4085.7	
864.76	5863.3	
864.93	4520.5	
865.09	2898.6	
865.26	3185.3	
865.43	5504.9	
865.6	5823.7	
865.77	2623.4	
865.94	2979.1	
866.1	5558.2	
866.27	5192.3	
866.44	4378.6	
866.61	2835.8	
866.78	4857.8	
866.95	5175.9	
867.11	2897.2	
867.28	2654.2	
867.45	5369.8	
867.62	4618.2	
867.79	3523.9	
867.96	2953.9	
868.12	4558.1	
868.29	5325.4	
868.46	2970.9	
868.63	3928	
868.8	5355.4	
868.97	5242.1	
869.13	3133.4	
869.3	3036.5	
869.47	5132.9	
869.64	5358.9	
869.81	2964.8	
869.97	2994.8	
870.14	5063.9	
870.31	5619.6	
870.48	2921.1	
870.65	3700.7	
870.81	4777.2	
870.98	4878.3	
871.15	3423.5	
871.32	3103.4	
871.48	5124.7	
871.65	5646.2	
871.82	2999.6	
871.99	3251.5	
872.16	5928.2	
872.32	5496.7	
872.49	3103.4	
872.66	2966.8	
872.83	5238.7	
872.99	4650.9	
873.16	3358.7	
873.33	2986.6	
873.5	4953.4	
873.67	5008.6	
873.83	3082.9	
874	3889.1	
874.17	5094.7	
874.34	5917.9	
874.5	3773.7	
874.67	3605.8	
874.84	5612.1	
875.01	4435.2	
875.17	4038.6	
875.34	2970.9	
875.51	5005.9	
875.68	5958.9	
875.84	3540.3	
876.01	4232.5	
876.18	5203.9	
876.34	5189.6	
876.51	2957.9	
876.68	2910.2	
876.85	4807.9	
877.01	5459.2	
877.18	4160.1	
877.35	2947	
877.52	5023	
877.68	4495.3	
877.85	2946.3	
878.02	2921.8	
878.18	4861.9	
878.35	4670.1	
878.52	2420.7	
878.69	3281.5	
878.85	5309.7	
879.02	5231.2	
879.19	4187.4	
879.35	3212.6	
879.52	5206.6	
879.69	5326.8	
879.86	2592.7	
880.02	3302	
880.19	4934.2	
880.36	5930.2	
880.52	3348.4	
880.69	3525.9	
880.86	5346.6	
881.02	5354.1	
881.19	3269.9	
881.36	3236.5	
881.52	5255.1	
881.69	4653	
881.86	3241.9	
882.02	3161.4	
882.19	5468.1	
882.36	6272.2	
882.52	3078.1	
882.69	4130.1	
882.86	5070.1	
883.02	5005.9	
883.19	3560.1	
883.36	3347.1	
883.52	5298.1	
883.69	5956.2	
883.86	2999.6	
884.02	2742.9	
884.19	5258.5	
884.36	4983.4	
884.52	3353.2	
884.69	3183.2	
884.86	4711	
885.02	5679	
885.19	3327.3	
885.36	3336.8	
885.52	4895.3	
885.69	5063.9	
885.86	4222.2	
886.02	3816	
886.19	5292	
886.35	4782.7	
886.52	3245.3	
886.69	4016.7	
886.85	4576.5	
887.02	5551.4	
887.19	5551.4	
887.35	5551.4	
887.52	5551.4	
887.68	5551.4	
887.85	5551.4	
888.02	5551.4	
888.18	5551.4	
888.35	5551.4	
888.51	5551.4	
888.68	5551.4	
888.85	5551.4	
889.01	5551.4	
889.18	5551.4	
889.35	5551.4	
889.51	5551.4	
889.68	5551.4	
889.84	5551.4	
890.01	5551.4	
890.17	5551.4	
890.34	5551.4	
890.51	5551.4	
890.67	5551.4	
890.84	5551.4	
891	5551.4	
891.17	5551.4	
891.34	5551.4	
891.5	5551.4	
891.67	5551.4	
891.83	5551.4	
892	5551.4	
892.16	5551.4	
892.33	5551.4	
892.5	5551.4	
892.66	5551.4	
892.83	5551.4	
892.99	5551.4	
893.16	5551.4	
893.32	5551.4	
893.49	5551.4	
893.65	5551.4	
893.82	5551.4	
893.99	5551.4	
894.15	5551.4	
894.32	5551.4	
894.48	5551.4	
894.65	5551.4	
894.81	5551.4	
894.98	5551.4	
895.14	5551.4	
895.31	5551.4	
895.47	5551.4	
895.64	5551.4	
895.81	5551.4	
895.97	5551.4	
896.14	5551.4	
896.3	5551.4	
896.47	5551.4	
896.63	5551.4	
896.8	5551.4	
896.96	5551.4	
897.13	5551.4	
897.29	5551.4	
897.46	5551.4	
897.62	5551.4	
897.79	5551.4	
897.95	5551.4	
898.12	5551.4	
898.28	5551.4	
898.45	5551.4	
898.61	5551.4	
898.78	5551.4	
898.94	5551.4	
899.11	5551.4	
899.27	5551.4	
899.44	5551.4	
899.6	5551.4	
899.77	5551.4	
899.93	5551.4	
900.1	5551.4	
900.26	5551.4	
900.43	5551.4	
900.59	5551.4	
900.76	5551.4	
900.92	5551.4	
901.09	5551.4	
901.25	5551.4	
901.42	5551.4	
901.58	5551.4	
901.75	5551.4	
901.91	5551.4	
902.07	5551.4	
902.24	5551.4	
902.4	5551.4	
902.57	5551.4	
902.73	5551.4	
902.9	5551.4	
903.06	5551.4	
903.23	5551.4	
903.39	5551.4	
903.56	5551.4	
903.72	5551.4	
903.88	5551.4	
904.05	5551.4	
904.21	5551.4	
904.38	5551.4	
904.54	5551.4	
904.71	5551.4	
904.87	5551.4	
905.03	5551.4	
905.2	5551.4	
905.36	5551.4	
905.53	5551.4	
905.69	5551.4	
905.86	5551.4	
906.02	5551.4	
906.18	5551.4	
906.35	5551.4	
906.51	5551.4	
906.68	5551.4	
906.84	5551.4	
907.01	5551.4	
907.17	5551.4	
907.33	5551.4	
907.5	5551.4	
907.66	5551.4	
907.83	5551.4	
907.99	5551.4	
908.15	5551.4	
908.32	5551.4	
908.48	5551.4	
908.65	5551.4	
908.81	5551.4	
908.97	5551.4	
909.14	5551.4	
909.3	5551.4	
909.47	5551.4	
909.63	5551.4	
909.79	5551.4	
909.96	5551.4	
910.12	5551.4	
910.28	5551.4	
910.45	5551.4	
910.61	5551.4	
910.78	5551.4	
910.94	5551.4	
911.1	5551.4	
911.27	5551.4	
911.43	5551.4	
911.59	5551.4	
911.76	5551.4	
911.92	5551.4	
912.08	5551.4	
912.25	5551.4	
912.41	5551.4	
912.57	5551.4	
912.74	5551.4	
912.9	5551.4	
913.07	5551.4	
913.23	5551.4	
913.39	5551.4	
913.56	5551.4	
913.72	5551.4	
913.88	5551.4	
914.05	5551.4	
914.21	5551.4	
914.37	5551.4	
914.54	5551.4	
914.7	5551.4	
914.86	5551.4	
915.03	5551.4	
915.19	5551.4	
