Wavelength	Intensities	
nm	a.u.	
179.22	1917.9	
179.44	1906.7	
179.65	1929.2	
179.86	1884.1	
180.08	1926.5	
180.29	5063.9	
180.51	3556	
180.72	5735.7	
180.94	6731.7	
181.15	3322.5	
181.37	3221.5	
181.58	5618.9	
181.79	5894.1	
182.01	3397.6	
182.22	3657.7	
182.44	5893.4	
182.65	4875.5	
182.87	4698	
183.08	4126	
183.29	6176.7	
183.51	5072.1	
183.72	3713.6	
183.94	5531.6	
184.15	5474.2	
184.37	5520	
184.58	3272.7	
184.79	4529.4	
185.01	5055.1	
185.22	5860.6	
185.44	4791.6	
185.65	3994.2	
185.86	5365.7	
186.08	5008	
186.29	3217.4	
186.51	3464.5	
186.72	5105.6	
186.94	6070.2	
187.15	3913	
187.36	4100	
187.58	7970	
187.79	5563.6	
188.01	4352.6	
188.22	6712.6	
188.43	6745.3	
188.65	5822.4	
188.86	3361.4	
189.08	4136.2	
189.29	5304.2	
189.5	5279.7	
189.72	3822.2	
189.93	3906.8	
190.15	6020.3	
190.36	7306.5	
190.57	4229.1	
190.79	4091.2	
191	6175.3	
191.22	6068.1	
191.43	4179.9	
191.64	3424.9	
191.86	6339.8	
192.07	6195.8	
192.29	3604.4	
192.5	3800.3	
192.71	6077.7	
192.93	5218.2	
193.14	3756.7	
193.35	3875.4	
193.57	5196.4	
193.78	6030.6	
194	3048.7	
194.21	3689.8	
194.42	5036.6	
194.64	5548.6	
194.85	4117.8	
195.07	4924	
195.28	5535	
195.49	4757.4	
195.71	5154.1	
195.92	3551.2	
196.13	5662	
196.35	5841.5	
196.56	5506.3	
196.78	4067.9	
196.99	7221.8	
197.2	6766.5	
197.42	4747.2	
197.63	4182	
197.84	4916.5	
198.06	5689.9	
198.27	3790.1	
198.48	5108.3	
198.7	5227.8	
198.91	5428.5	
199.13	4075.5	
199.34	4200.4	
199.55	5862	
199.77	4785.4	
199.98	3658.4	
200.19	4199	
200.41	5369.1	
200.62	5142.4	
200.83	4336.2	
201.05	4685.8	
201.26	5384.8	
201.47	5158.8	
201.69	3713.6	
201.9	3515.7	
202.11	5432.6	
202.33	6499.6	
202.54	3938.2	
202.76	4372.4	
202.97	5557.5	
203.18	5567.7	
203.4	4291.9	
203.61	4194.9	
203.82	5514.5	
204.04	5110.4	
204.25	4235.9	
204.46	4113.7	
204.68	5516.5	
204.89	5707	
205.1	4050.2	
205.32	3575.1	
205.53	5924.8	
205.74	6173.9	
205.96	2991.4	
206.17	4259.1	
206.38	5850.4	
206.6	6092	
206.81	4776.5	
207.02	3863.8	
207.24	5756.2	
207.45	6203.3	
207.66	3960.8	
207.88	3311.6	
208.09	5706.3	
208.3	5536.3	
208.52	3642.7	
208.73	4005.8	
208.94	5512.4	
209.15	6243.6	
209.37	3946.4	
209.58	4175.8	
209.79	6062	
210.01	5302.2	
210.22	3140.2	
210.43	3321.8	
210.65	5504.3	
210.86	5967.8	
211.07	3917.8	
211.29	3616	
211.5	5926.8	
211.71	5399.1	
211.93	3620.8	
212.14	3602.4	
212.35	5364.3	
212.56	5681.7	
212.78	4186.7	
212.99	3427.6	
213.2	6438.8	
213.42	5214.1	
213.63	3736.2	
213.84	4116.4	
214.06	4868.7	
214.27	4915.8	
214.48	3930.7	
214.69	4223.6	
214.91	6219.7	
215.12	6350.8	
215.33	4324.6	
215.55	4710.3	
215.76	6765.1	
215.97	5874.3	
216.18	4149.9	
216.4	4063.9	
216.61	5148.6	
216.82	5979.4	
217.04	3665.2	
217.25	3837.2	
217.46	6214.2	
217.67	5886.5	
217.89	3173	
218.1	3388	
218.31	5610.8	
218.53	5657.9	
218.74	3799.7	
218.95	3729.4	
219.16	5433.9	
219.38	6504.3	
219.59	3724.6	
219.8	4465.3	
220.01	7214.3	
220.23	5504.3	
220.44	4881	
220.65	3616.7	
220.87	5556.1	
221.08	6153.5	
221.29	3334.1	
221.5	4489.8	
221.72	7533.1	
221.93	5231.9	
222.14	4196.3	
222.35	4912.4	
222.57	5509	
222.78	5884.5	
222.99	3960.1	
223.2	4327.4	
223.42	5827.2	
223.63	5915.2	
223.84	3074	
224.05	3009.1	
224.27	7091.4	
224.48	6481.1	
224.69	4983.4	
224.9	4174.4	
225.12	5659.9	
225.33	5466.7	
225.54	3299.3	
225.75	3746.4	
225.97	4997.7	
226.18	5344.5	
226.39	4001.7	
226.6	3752.6	
226.82	5212.1	
227.03	5147.9	
227.24	4157.4	
227.45	3489.1	
227.67	5842.9	
227.88	6455.9	
228.09	4651.6	
228.3	4747.2	
228.52	5937.1	
228.73	5446.2	
228.94	3902.7	
229.15	3411.9	
229.36	5400.5	
229.58	5366.4	
229.79	3843.4	
230	4554	
230.21	6561.7	
230.43	5603.2	
230.64	4146.5	
230.85	4338.3	
231.06	5938.4	
231.28	5905	
231.49	3442	
231.7	4048.2	
231.91	5865.4	
232.12	5550.7	
232.34	3563.5	
232.55	4033.8	
232.76	6187.6	
232.97	5670.1	
233.18	3635.8	
233.4	4100.7	
233.61	5707	
233.82	5227.1	
234.03	3841.3	
234.25	3764.2	
234.46	7762.5	
234.67	5530.9	
234.88	4244.8	
235.09	3680.9	
235.31	5831.9	
235.52	5367.7	
235.73	4153.3	
235.94	3487	
236.15	5219.6	
236.37	6733	
236.58	3644	
236.79	4044.1	
237	5867.4	
237.21	5032.5	
237.43	4280.3	
237.64	3366.9	
237.85	10165	
238.06	5025.7	
238.27	4381.3	
238.48	3476.1	
238.7	5860.6	
238.91	5325.4	
239.12	3948.5	
239.33	3965.6	
239.54	5218.2	
239.76	5420.3	
239.97	3932.1	
240.18	4040	
240.39	6931.7	
240.6	5809.4	
240.82	4139.6	
241.03	3381.9	
241.24	5466	
241.45	6366.5	
241.66	3625.6	
241.87	4291.2	
242.09	6205.3	
242.3	6683.9	
242.51	4323.9	
242.72	4001.7	
242.93	6006.7	
243.14	5466.7	
243.36	4639.3	
243.57	4920.6	
243.78	6405.4	
243.99	5907	
244.2	4019.5	
244.41	3607.8	
244.63	5023.7	
244.84	5787.6	
245.05	4277.5	
245.26	4010.6	
245.47	5834.7	
245.68	6111.1	
245.9	5382.1	
246.11	4258.4	
246.32	5334.3	
246.53	5803.3	
246.74	6492.7	
246.95	3343	
247.16	4970.4	
247.38	5461.9	
247.59	3281.5	
247.8	4020.2	
248.01	5214.8	
248.22	5379.3	
248.43	3595.6	
248.64	3871.3	
248.86	4831.2	
249.07	5258.5	
249.28	3470.6	
249.49	4089.1	
249.7	6046.3	
249.91	6269.5	
250.12	3303.4	
250.34	3351.8	
250.55	5575.3	
250.76	5508.4	
250.97	4160.8	
251.18	4155.3	
251.39	6279.8	
251.6	5695.4	
251.81	4220.9	
252.03	4208.6	
252.24	5227.1	
252.45	6014.9	
252.66	3490.4	
252.87	4434.5	
253.08	5471.5	
253.29	7274.4	
253.5	3481.5	
253.72	4842.1	
253.93	5367	
254.14	6608.1	
254.35	3802.4	
254.56	3949.8	
254.77	5761.6	
254.98	5141.8	
255.19	3723.9	
255.41	4791.6	
255.62	5623	
255.83	6171.9	
256.04	4284.4	
256.25	4175.8	
256.46	6786.3	
256.67	5158.2	
256.88	4093.2	
257.09	4525.3	
257.31	5143.8	
257.52	5201.8	
257.73	5180.7	
257.94	3714.3	
258.15	5359.5	
258.36	5584.8	
258.57	4810.7	
258.78	3018	
258.99	6090.7	
259.2	5354.1	
259.41	3769.6	
259.63	3891.1	
259.84	6420.4	
260.05	6933.7	
260.26	5097.4	
260.47	3674.7	
260.68	6097.5	
260.89	5406	
261.1	4634.6	
261.31	3652.2	
261.52	6075	
261.73	6552.1	
261.95	4900.8	
262.16	4370.4	
262.37	6378.1	
262.58	6376	
262.79	4943.8	
263	3893.9	
263.21	5550.7	
263.42	5047.6	
263.63	3945.1	
263.84	3848.1	
264.05	6054.5	
264.26	6443.6	
264.47	4760.2	
264.69	4372.4	
264.9	6218.3	
265.11	5689.9	
265.32	3742.3	
265.53	3816	
265.74	5636.7	
265.95	4862.6	
266.16	4120.5	
266.37	4499.4	
266.58	5657.9	
266.79	5379.3	
267	3762.8	
267.21	3487	
267.42	5088.5	
267.63	5463.3	
267.84	3987.4	
268.06	3386	
268.27	5950.7	
268.48	6279.8	
268.69	3882.3	
268.9	4619.5	
269.11	6254.5	
269.32	4988.9	
269.53	3993.5	
269.74	3674.1	
269.95	5849.7	
270.16	4832.5	
270.37	4050.9	
270.58	4627.7	
270.79	5354.1	
271	6081.1	
271.21	4287.8	
271.42	4005.8	
271.63	5665.4	
271.84	5137	
272.05	3207.1	
272.26	3598.3	
272.47	5547.3	
272.68	5699.5	
272.89	3803.8	
273.11	4507.6	
273.32	5310.4	
273.53	6524.1	
273.74	4322.6	
273.95	4220.2	
274.16	6148.7	
274.37	5586.2	
274.58	4419.5	
274.79	3462.4	
275	5621	
275.21	6256.5	
275.42	5231.2	
275.63	4517.1	
275.84	5829.2	
276.05	7298.3	
276.26	4173.1	
276.47	3913.7	
276.68	5330.9	
276.89	6632	
277.1	4524	
277.31	3511.6	
277.52	5756.2	
277.73	5943.2	
277.94	3411.2	
278.15	3920.5	
278.36	5707.7	
278.57	5200.5	
278.78	3820.1	
278.99	4304.1	
279.2	5126.1	
279.41	5044.8	
279.62	4992.9	
279.83	3569.6	
280.04	6722.1	
280.25	5112.4	
280.46	4995.7	
280.67	4033.8	
280.88	5126.1	
281.09	6242.2	
281.3	4202.4	
281.51	5323.4	
281.72	5252.4	
281.93	6003.3	
282.14	3701.4	
282.35	3984	
282.56	5945.9	
282.77	6040.8	
282.98	3802.4	
283.19	4732.2	
283.4	7460.1	
283.61	5445.5	
283.82	3562.1	
284.03	4977.2	
284.24	5630.5	
284.45	6215.6	
284.66	5015.5	
284.87	4799.8	
285.08	6137.1	
285.29	6298.2	
285.5	3385.3	
285.71	3917.8	
285.92	6180.8	
286.12	6905.1	
286.33	4992.3	
286.54	3891.1	
286.75	6071.5	
286.96	5324.7	
287.17	3523.2	
287.38	4886.5	
287.59	5117.2	
287.8	5107.6	
288.01	3932.8	
288.22	4516.5	
288.43	6072.2	
288.64	5038	
288.85	4673.5	
289.06	4487.8	
289.27	6242.9	
289.48	6503	
289.69	4996.4	
289.9	4467.3	
290.11	6184.2	
290.32	5225.1	
290.53	4719.9	
290.74	4296	
290.94	5982.1	
291.15	6041.5	
291.36	3788.1	
291.57	4473.4	
291.78	5274.9	
291.99	4901.5	
292.2	3552.5	
292.41	4382	
292.62	6104.3	
292.83	5893.4	
293.04	5407.3	
293.25	3614.7	
293.46	5268.1	
293.67	6113.2	
293.88	3729.4	
294.09	3616	
294.29	5072.8	
294.5	5646.2	
294.71	4016.1	
294.92	3829.7	
295.13	5264.6	
295.34	6686.6	
295.55	3342.3	
295.76	3450.1	
295.97	5910.4	
296.18	6705.7	
296.39	3596.2	
296.6	3772.4	
296.81	5547.9	
297.01	6005.3	
297.22	3942.3	
297.43	3702.7	
297.64	5111	
297.85	5160.2	
298.06	3070.6	
298.27	3353.2	
298.48	5586.9	
298.69	5202.5	
298.9	4061.1	
299.11	3639.2	
299.31	5048.9	
299.52	5019.6	
299.73	4367.6	
299.94	4225.6	
300.15	5534.3	
300.36	5076.2	
300.57	4288.4	
300.78	4225	
300.99	5373.2	
301.2	5643.5	
301.4	3695.9	
301.61	4123.9	
301.82	5898.2	
302.03	6007.4	
302.24	4626.4	
302.45	3577.8	
302.66	5831.2	
302.87	6326.9	
303.08	3750.5	
303.29	5180	
303.49	5188.2	
303.7	5502.9	
303.91	3288.4	
304.12	4880.3	
304.33	4970.4	
304.54	5635.3	
304.75	3807.2	
304.96	3571	
305.16	5812.8	
305.37	6665.5	
305.58	3186	
305.79	3401	
306	5940.5	
306.21	4896.7	
306.42	3681.6	
306.63	5767.1	
306.83	5371.1	
307.04	6212.9	
307.25	4133.5	
307.46	4104.8	
307.67	4674.1	
307.88	5957.5	
308.09	3642	
308.29	3863.8	
308.5	5585.5	
308.71	6108.4	
308.92	3987.4	
309.13	3592.8	
309.34	5309	
309.55	5420.3	
309.75	4627.7	
309.96	4283.7	
310.17	5946.6	
310.38	5245.5	
310.59	4505.5	
310.8	3503.4	
311.01	5339.7	
311.21	5403.9	
311.42	3584.6	
311.63	3756	
311.84	5241.4	
312.05	5686.5	
312.26	4178.5	
312.46	4549.9	
312.67	5313.8	
312.88	5069.4	
313.09	3594.2	
313.3	3581.9	
313.51	6318	
313.71	6794.5	
313.92	3603.7	
314.13	3801.7	
314.34	5679.7	
314.55	5429.2	
314.76	4688.5	
314.96	4074.8	
315.17	5554.8	
315.38	5917.3	
315.59	3640.6	
315.8	3508.2	
316.01	6466.1	
316.21	6549.4	
316.42	3491.8	
316.63	4041.3	
316.84	5335	
317.05	6319.3	
317.26	4329.4	
317.46	3824.9	
317.67	5425.8	
317.88	5877.7	
318.09	4572.4	
318.3	3363.4	
318.5	5272.2	
318.71	5847	
318.92	5944.6	
319.13	4197.7	
319.34	6057.2	
319.54	6184.9	
319.75	3358.7	
319.96	3202.3	
320.17	5937.7	
320.38	6100.2	
320.58	3317.7	
320.79	3952.6	
321	6173.9	
321.21	6175.3	
321.42	3995.6	
321.62	3297.2	
321.83	5107.6	
322.04	5563.6	
322.25	3818.1	
322.46	3650.2	
322.66	5630.5	
322.87	5834.7	
323.08	4556	
323.29	3552.5	
323.5	6698.9	
323.7	5078.3	
323.91	5007.3	
324.12	4431.1	
324.33	5592.3	
324.53	5836.7	
324.74	4288.4	
324.95	4523.3	
325.16	4898.1	
325.37	5332.9	
325.57	3637.2	
325.78	3738.2	
325.99	5533.6	
326.2	5049.6	
326.4	5164.3	
326.61	3315.7	
326.82	5451.7	
327.03	5613.5	
327.24	5218.2	
327.44	4874.2	
327.65	5806.7	
327.86	4687.8	
328.07	4294.6	
328.27	3493.8	
328.48	6244.9	
328.69	5070.8	
328.9	5254.4	
329.1	3894.6	
329.31	5332.2	
329.52	6351.4	
329.73	3648.8	
329.93	4141	
330.14	5507	
330.35	5778	
330.56	6097.5	
330.76	4477.5	
330.97	5353.4	
331.18	5715.2	
331.39	4005.8	
331.59	3269.2	
331.8	6153.5	
332.01	6268.8	
332.22	3761.4	
332.42	4286.4	
332.63	5631.9	
332.84	5263.3	
333.05	4085.7	
333.25	3699.3	
333.46	5289.2	
333.67	5556.1	
333.88	3732.1	
334.08	4272.1	
334.29	7880.6	
334.5	6225.1	
334.7	3503.4	
334.91	5311.7	
335.12	5023	
335.33	6001.9	
335.53	4017.4	
335.74	6080.4	
335.95	5256.5	
336.16	5088.5	
336.36	4041.3	
336.57	4669.4	
336.78	5008.6	
336.98	6176.7	
337.19	4953.4	
337.4	3951.9	
337.61	6722.8	
337.81	5087.2	
338.02	3665.2	
338.23	4775.9	
338.43	6336.4	
338.64	5155.4	
338.85	3631	
339.05	4810	
339.26	6369.9	
339.47	4939	
339.68	3643.3	
339.88	5502.2	
340.09	5788.2	
340.3	6016.2	
340.5	4316.4	
340.71	3229.6	
340.92	4935.6	
341.13	6331.6	
341.33	3546.4	
341.54	4315.1	
341.75	5773.9	
341.95	5458.5	
342.16	4076.1	
342.37	4434.5	
342.57	5036	
342.78	5518.6	
342.99	4590.9	
343.19	3235.8	
343.4	5941.8	
343.61	5784.1	
343.81	3912.3	
344.02	3554.6	
344.23	5969.8	
344.43	6455.2	
344.64	4573.1	
344.85	4386.7	
345.06	5822.4	
345.26	6158.2	
345.47	4182.6	
345.68	4973.8	
345.88	4845.5	
346.09	6040.1	
346.3	4350.6	
346.5	3158	
346.71	5524.1	
346.92	5266.7	
347.12	3297.9	
347.33	4204.5	
347.54	6088.6	
347.74	6510.5	
347.95	4190.8	
348.16	3053.5	
348.36	5322.7	
348.57	5240.1	
348.78	4166.9	
348.98	4485.1	
349.19	5404.6	
349.39	4993.6	
349.6	3329.3	
349.81	3687	
350.01	5754.1	
350.22	5164.3	
350.43	3986	
350.63	4834.6	
350.84	5625.8	
351.05	5326.8	
351.25	3643.3	
351.46	3280.8	
351.67	6103.6	
351.87	5226.4	
352.08	3865.2	
352.29	4491.9	
352.49	5944.6	
352.7	5689.9	
352.9	3529.3	
353.11	4483	
353.32	6704.4	
353.52	5318.6	
353.73	3536.8	
353.94	4455	
354.14	5779.4	
354.35	5687.9	
354.55	3605.1	
354.76	3983.3	
354.97	5812.1	
355.17	5501.5	
355.38	3362.1	
355.59	4768.4	
355.79	5173.9	
356	5659.2	
356.2	4003.8	
356.41	3452.9	
356.62	4881	
356.82	5377.3	
357.03	4193.6	
357.24	3822.9	
357.44	5227.8	
357.65	5292.6	
357.85	5181.4	
358.06	4028.4	
358.27	4906.9	
358.47	5161.6	
358.68	3281.5	
358.88	4227.7	
359.09	5750.7	
359.3	6169.2	
359.5	5033.2	
359.71	4384.7	
359.91	6626.5	
360.12	5933	
360.33	4172.4	
360.53	4717.8	
360.74	5134.3	
360.94	5243.5	
361.15	4422.2	
361.36	3567.6	
361.56	5980.8	
361.77	5350.7	
361.97	4907.6	
362.18	3891.8	
362.38	5969.8	
362.59	4969.1	
362.8	3536.8	
363	3327.3	
363.21	4731.5	
363.41	5502.9	
363.62	4031.1	
363.83	5177.9	
364.03	5550.7	
364.24	6524.8	
364.44	5227.1	
364.65	5113.8	
364.85	5265.3	
365.06	4971.1	
365.27	3714.3	
365.47	3724.6	
365.68	6266.8	
365.88	5233.2	
366.09	4118.5	
366.29	3777.1	
366.5	5571.2	
366.71	5950	
366.91	5157.5	
367.12	4273.4	
367.32	6562.4	
367.53	5853.1	
367.73	4158.7	
367.94	5254.4	
368.14	5767.1	
368.35	6746	
368.56	4184.7	
368.76	3487	
368.97	5872.2	
369.17	7666.2	
369.38	3637.2	
369.58	3908.9	
369.79	4872.1	
369.99	6260.6	
370.2	4989.5	
370.4	4001	
370.61	5554.8	
370.82	6830.7	
371.02	3930.1	
371.23	3200.3	
371.43	4774.5	
371.64	6173.3	
371.84	3986	
372.05	5251.7	
372.25	7525.6	
372.46	5893.4	
372.66	3910.3	
372.87	3868.6	
373.07	5929.6	
373.28	7579.5	
373.48	4988.9	
373.69	4650.9	
373.9	5343.2	
374.1	5360.2	
374.31	4851.6	
374.51	4314.4	
374.72	6163.7	
374.92	4969.7	
375.13	5045.5	
375.33	4184.7	
375.54	5716.6	
375.74	5137	
375.95	4199.7	
376.15	5639.4	
376.36	5677.7	
376.56	5477.6	
376.77	4304.8	
376.97	4775.2	
377.18	6760.3	
377.38	5798.5	
377.59	5088.5	
377.79	3728	
378	5491.3	
378.2	6013.5	
378.41	3781.2	
378.61	3712.3	
378.82	6044.2	
379.02	5074.9	
379.23	3932.1	
379.43	5089.9	
379.64	6042.2	
379.84	5693.4	
380.05	3729.4	
380.25	3736.2	
380.46	5840.8	
380.66	5403.9	
380.87	5210	
381.07	5535.7	
381.28	6432.7	
381.48	5887.9	
381.69	3814	
381.89	3898.6	
382.1	4734.9	
382.3	5995.1	
382.51	4987.5	
382.71	5880.4	
382.91	5894.7	
383.12	6434	
383.32	4251.6	
383.53	4446.8	
383.73	5695.4	
383.94	5543.9	
384.14	4362.9	
384.35	3420.1	
384.55	5444.2	
384.76	5883.1	
384.96	4214.7	
385.17	4584	
385.37	5939.8	
385.58	5085.1	
385.78	4580.6	
385.98	3351.2	
386.19	5320.6	
386.39	5667.4	
386.6	3949.2	
386.8	4183.3	
387.01	5849.7	
387.21	5920	
387.42	4687.1	
387.62	5224.4	
387.83	5076.9	
388.03	5802.6	
388.23	4170.3	
388.44	5042.1	
388.64	4696.7	
388.85	4874.8	
389.05	4599.1	
389.26	5231.9	
389.46	6844.3	
389.67	6289.3	
389.87	4516.5	
390.07	4618.2	
390.28	5474.9	
390.48	4991.6	
390.69	3765.5	
390.89	4055	
391.1	5172.5	
391.3	6111.1	
391.5	5315.2	
391.71	6018.3	
391.91	5831.9	
392.12	6919.4	
392.32	5410.1	
392.53	4543.1	
392.73	5246.2	
392.93	5454.4	
393.14	4287.1	
393.34	5096	
393.55	5948	
393.75	5439.4	
393.95	4235.9	
394.16	4156	
394.36	5148.6	
394.57	5919.3	
394.77	3629.7	
394.98	4111	
395.18	5120.6	
395.38	5302.2	
395.59	4995	
395.79	3883.6	
396	5231.9	
396.2	5703.6	
396.4	4685.1	
396.61	4666	
396.81	5934.3	
397.02	5141.1	
397.22	5045.5	
397.42	5029.8	
397.63	5898.1	
397.83	5049.6	
398.04	3806.5	
398.24	4278.2	
398.44	5659.9	
398.65	4663.9	
398.85	3678.8	
399.05	3803.8	
399.26	5003.2	
399.46	6786.3	
399.67	4123.2	
399.87	3869.3	
400.07	5365.7	
400.28	5783.5	
400.48	3889.1	
400.69	5029.1	
400.89	6282.5	
401.09	6438.8	
401.3	3744.4	
401.5	5040.7	
401.7	6621.1	
401.91	6969.2	
402.11	4160.1	
402.32	4458.4	
402.52	5974.6	
402.72	5988.3	
402.93	4626.4	
403.13	3507.5	
403.33	6830	
403.54	5503.6	
403.74	4352.6	
403.94	5273.5	
404.15	5569.8	
404.35	6769.9	
404.56	4123.9	
404.76	6083.1	
404.96	5963.7	
405.17	5783.5	
405.37	5824.4	
405.57	4614.8	
405.78	5988.3	
405.98	5453.1	
406.18	4087.7	
406.39	5110.4	
406.59	6014.9	
406.79	5593.7	
407	3893.2	
407.2	4007.2	
407.4	5999.2	
407.61	6184.2	
407.81	3958.7	
408.01	6546	
408.22	4822.3	
408.42	6909.2	
408.62	4997.7	
408.83	4426.3	
409.03	5429.2	
409.23	5198.4	
409.44	4448.2	
409.64	4711.7	
409.84	6335.1	
410.05	6181.5	
410.25	4544.4	
410.45	4326	
410.66	5542.5	
410.86	8222.6	
411.06	4706.9	
411.27	4556.7	
411.47	7881.9	
411.67	5773.9	
411.88	4799.1	
412.08	5009.3	
412.28	6330.3	
412.49	6868.9	
412.69	4480.3	
412.89	4489.8	
413.09	6708.5	
413.3	6542.6	
413.5	4543.8	
413.7	4182	
413.91	5727.5	
414.11	6642.9	
414.31	4342.4	
414.52	4788.2	
414.72	6295.5	
414.92	6142.5	
415.12	4342.4	
415.33	4809.3	
415.53	6607.4	
415.73	6762.4	
415.94	5299.5	
416.14	4707.6	
416.34	5435.3	
416.55	5308.3	
416.75	5925.5	
416.95	5309	
417.15	6505	
417.36	7287.4	
417.56	6062.7	
417.76	4997	
417.97	6932.4	
418.17	6532.3	
418.37	4625.7	
418.57	4743.1	
418.78	6304.3	
418.98	5950	
419.18	5722.7	
419.38	5636	
419.59	6053.1	
419.79	5674.9	
419.99	4582.7	
420.2	5040.7	
420.4	6648.4	
420.6	6804	
420.8	4491.2	
421.01	4345.8	
421.21	6285.2	
421.41	6558.3	
421.61	4938.3	
421.82	4625	
422.02	5825.8	
422.22	6867.5	
422.42	5421	
422.63	5103.5	
422.83	5970.5	
423.03	7204.1	
423.23	5169.1	
423.44	4091.8	
423.64	6171.2	
423.84	5887.9	
424.04	4607.2	
424.25	4214	
424.45	7066.2	
424.65	7047.1	
424.85	4037.9	
425.06	4706.2	
425.26	7031.4	
425.46	5455.8	
425.66	5178.6	
425.87	4790.9	
426.07	6822.5	
426.27	6675	
426.47	4927.4	
426.67	4296	
426.88	7185.6	
427.08	6600.6	
427.28	5236.7	
427.48	4233.8	
427.69	5424.4	
427.89	6145.3	
428.09	5171.1	
428.29	4289.1	
428.5	6839.5	
428.7	6306.4	
428.9	4190.8	
429.1	4760.2	
429.3	6239.5	
429.51	6668.9	
429.71	4539	
429.91	5332.2	
430.11	6511.9	
430.31	6806.1	
430.52	4808.6	
430.72	5073.5	
430.92	7133.1	
431.12	6582.9	
431.32	4423.6	
431.53	4931.5	
431.73	5413.5	
431.93	7166.5	
432.13	4367	
432.33	4197	
432.54	5911.1	
432.74	6329.6	
432.94	4113.7	
433.14	5203.2	
433.34	6477.7	
433.55	5901.6	
433.75	5223.7	
433.95	6905.8	
434.15	6216.3	
434.35	5894.1	
434.56	4355.3	
434.76	3755.3	
434.96	6201.9	
435.16	6464.1	
435.36	4179.2	
435.56	5265.3	
435.77	5782.8	
435.97	5889.3	
436.17	6067.4	
436.37	5175.9	
436.57	5758.2	
436.78	5636	
436.98	5253	
437.18	5879.7	
437.38	6397.2	
437.58	5964.4	
437.78	6022.4	
437.99	4603.2	
438.19	6608.8	
438.39	7431.4	
438.59	4560.1	
438.79	4046.1	
438.99	7130.3	
439.2	6025.1	
439.4	4181.3	
439.6	4088.4	
439.8	6276.3	
440	7317.4	
440.2	5177.3	
440.4	5274.9	
440.61	6521.4	
440.81	7200	
441.01	4188.8	
441.21	5151.3	
441.41	6991.8	
441.61	6647.7	
441.81	5459.9	
442.02	6541.9	
442.22	7567.2	
442.42	6726.9	
442.62	4313	
442.82	4433.2	
443.02	7008.1	
443.22	6081.8	
443.43	4726.7	
443.63	4283.7	
443.83	5885.9	
444.03	5925.5	
444.23	5539.8	
444.43	5149.3	
444.63	6133	
444.83	7557	
445.04	4313	
445.24	5721.3	
445.44	6684.6	
445.64	6769.2	
445.84	5259.2	
446.04	5276.3	
446.24	6115.9	
446.44	7150.8	
446.65	4474.1	
446.85	4810.7	
447.05	6158.9	
447.25	7027.9	
447.45	4898.1	
447.65	4220.9	
447.85	6309.1	
448.05	6005.3	
448.25	5429.8	
448.46	5130.2	
448.66	6300.9	
448.86	5950.7	
449.06	4095.3	
449.26	5449.6	
449.46	6671.6	
449.66	5677.7	
449.86	4799.8	
450.06	4791.6	
450.26	5904.3	
450.47	6471.6	
450.67	5135.6	
450.87	5448.3	
451.07	6528.9	
451.27	6314.6	
451.47	4361.5	
451.67	4960.9	
451.87	5943.9	
452.07	7184.3	
452.27	4558.8	
452.47	4586.8	
452.67	6287.3	
452.88	6883.2	
453.08	3920.5	
453.28	6034	
453.48	7486	
453.68	6246.3	
453.88	4384.7	
454.08	4682.3	
454.28	6637.5	
454.48	6172.6	
454.68	5305.6	
454.88	5805.3	
455.08	6732.4	
455.28	6394.4	
455.48	4358.1	
455.68	4872.8	
455.89	7178.8	
456.09	6793.1	
456.29	4629.8	
456.49	4685.8	
456.69	7016.3	
456.89	6225.1	
457.09	5157.5	
457.29	5515.9	
457.49	6581.5	
457.69	6645.7	
457.89	4872.8	
458.09	4287.8	
458.29	6158.9	
458.49	6939.2	
458.69	5371.8	
458.89	4708.3	
459.09	7177.4	
459.29	7369.3	
459.49	4840.7	
459.69	5718.6	
459.9	6804	
460.1	6191.7	
460.3	4771.1	
460.5	4555.4	
460.7	6711.2	
460.9	6384.2	
461.1	4138.9	
461.3	5434.6	
461.5	7322.2	
461.7	6939.9	
461.9	4412	
462.1	4990.2	
462.3	6346	
462.5	7071	
462.7	4541.7	
462.9	4612.7	
463.1	8021.9	
463.3	7647.1	
463.5	4788.2	
463.7	5661.3	
463.9	6463.4	
464.1	6845	
464.3	4844.1	
464.5	5132.2	
464.7	7136.5	
464.9	6630.6	
465.1	6540.5	
465.3	5539.8	
465.5	7483.3	
465.7	7323.5	
465.9	5711.1	
466.1	5594.4	
466.3	7249.1	
466.5	7023.9	
466.7	6464.8	
466.9	5295.4	
467.1	6865.5	
467.3	7945.4	
467.5	6289.3	
467.7	5081	
467.9	8159.1	
468.1	8980.3	
468.3	6045.6	
468.5	6512.5	
468.7	6875	
468.9	6877.8	
469.1	5373.2	
469.3	6064	
469.5	8859.5	
469.7	6403.3	
469.9	5924.8	
470.1	5212.1	
470.3	6903	
470.5	6889.4	
470.7	6501.6	
470.9	5319.9	
471.1	6627.9	
471.3	7185	
471.5	5023.7	
471.69	7161.1	
471.89	6502.3	
472.09	6062.7	
472.29	5920.7	
472.49	6421.7	
472.69	6242.9	
472.89	7165.8	
473.09	4978.6	
473.29	5156.8	
473.49	6416.3	
473.69	6694.8	
473.89	6201.9	
474.09	5304.9	
474.29	7997.3	
474.49	7699.7	
474.69	6102.3	
474.89	5524.7	
475.09	6762.4	
475.29	6599.9	
475.49	4882.4	
475.69	5160.9	
475.88	8462.9	
476.08	6998.6	
476.28	4782.7	
476.48	5390.3	
476.68	7531.1	
476.88	7324.2	
477.08	5205.9	
477.28	5457.8	
477.48	6806.8	
477.68	7573.4	
477.88	4954	
478.08	5390.3	
478.28	7782.3	
478.48	6963.1	
478.67	5306.3	
478.87	4909.7	
479.07	7585.7	
479.27	7144	
479.47	5659.9	
479.67	5555.5	
479.87	7438.2	
480.07	7970.7	
480.27	4717.8	
480.47	6595.1	
480.67	7127.6	
480.87	7742.7	
481.06	5128.8	
481.26	5984.8	
481.46	6981.5	
481.66	6956.3	
481.86	5592.3	
482.06	6731	
482.26	6735.1	
482.46	7676.5	
482.66	5505.6	
482.86	5075.5	
483.05	7001.3	
483.25	6473.6	
483.45	8090.8	
483.65	5528.8	
483.85	6622.4	
484.05	6937.2	
484.25	5952.8	
484.45	6457.9	
484.65	7804.1	
484.84	7827.3	
485.04	5306.3	
485.24	5358.2	
485.44	8034.9	
485.64	6298.9	
485.84	4598.4	
486.04	6061.3	
486.24	6678.4	
486.44	7102.4	
486.63	4564.9	
486.83	5461.2	
487.03	6489.3	
487.23	6782.9	
487.43	4744.5	
487.63	7144.7	
487.83	6805.4	
488.02	7815.7	
488.22	5705	
488.42	6313.2	
488.62	7715.4	
488.82	6598.6	
489.02	5382.7	
489.22	5355.4	
489.41	7647.1	
489.61	7188.4	
489.81	5114.5	
490.01	5103.5	
490.21	7492.2	
490.41	8149.6	
490.61	4995.7	
490.8	5140.4	
491	6965.1	
491.2	6338.5	
491.4	5816.2	
491.6	4896.7	
491.8	6959.7	
491.99	7253.2	
492.19	4674.8	
492.39	5169.8	
492.59	7527.7	
492.79	7506.5	
492.99	6020.3	
493.18	5001.8	
493.38	7515.4	
493.58	8298.4	
493.78	5709.7	
493.98	5302.2	
494.18	7234.1	
494.37	6581.5	
494.57	5769.8	
494.77	5775.3	
494.97	7292.8	
495.17	7627.3	
495.37	5279	
495.56	5608.7	
495.76	7756.3	
495.96	7388.4	
496.16	6528.9	
496.36	5390.9	
496.55	7602.7	
496.75	7083.9	
496.95	6363.7	
497.15	5696.1	
497.35	7567.2	
497.54	7485.3	
497.74	5492.7	
497.94	7168.6	
498.14	8254	
498.34	8045.1	
498.53	5051.7	
498.73	5874.3	
498.93	6816.3	
499.13	7509.2	
499.33	5621.7	
499.52	6210.1	
499.72	7336.5	
499.92	7771.4	
500.12	5313.1	
500.32	5658.5	
500.51	7767.9	
500.71	7415.7	
500.91	6469.5	
501.11	6057.2	
501.31	7581.6	
501.5	8059.4	
501.7	6707.8	
501.9	5545.9	
502.1	7454.6	
502.29	7714.7	
502.49	6080.4	
502.69	6694.1	
502.89	7675.1	
503.09	7639.6	
503.28	5205.9	
503.48	5354.8	
503.68	6819.7	
503.88	6928.3	
504.07	6298.2	
504.27	5890	
504.47	7273.7	
504.67	7479.2	
504.86	6262.7	
505.06	5954.1	
505.26	7079.8	
505.46	8921	
505.65	5839.4	
505.85	6124.8	
506.05	7023.2	
506.25	7463.5	
506.44	5238	
506.64	6327.5	
506.84	6883.2	
507.04	7956.4	
507.23	5508.4	
507.43	6062.7	
507.63	9048.6	
507.83	7281.2	
508.02	6064	
508.22	5685.8	
508.42	9290.3	
508.62	6875	
508.81	5955.5	
509.01	6485.2	
509.21	6844.3	
509.4	7111.2	
509.6	6105.7	
509.8	5446.9	
510	7086.7	
510.19	8573.5	
510.39	5427.1	
510.59	5512.4	
510.79	6855.2	
510.98	8288.8	
511.18	5595.1	
511.38	5799.2	
511.57	7744.1	
511.77	7626	
511.97	6494.1	
512.17	5392.3	
512.36	7776.1	
512.56	7748.1	
512.76	5477	
512.95	5211.4	
513.15	7843.7	
513.35	6473.6	
513.55	6386.2	
513.74	5438	
513.94	7814.4	
514.14	7087.3	
514.33	6471.6	
514.53	6161	
514.73	7081.2	
514.92	7314	
515.12	5689.9	
515.32	5416.2	
515.51	7385	
515.71	7996	
515.91	7329	
516.11	5525.4	
516.3	9093	
516.5	6924.9	
516.7	6023.1	
516.89	6652.5	
517.09	7097.6	
517.29	6911.2	
517.48	6475	
517.68	5814.2	
517.88	6847.7	
518.07	7429.3	
518.27	6294.1	
518.47	5322.7	
518.66	8143.4	
518.86	6568.5	
519.06	5154.1	
519.25	5618.3	
519.45	6946	
519.65	8565.3	
519.84	6267.5	
520.04	7034.8	
520.24	8895	
520.43	7701.7	
520.63	6058.6	
520.83	5771.2	
521.02	6911.2	
521.22	7537.9	
521.42	6328.2	
521.61	6898.2	
521.81	7047.7	
522.01	7303.1	
522.2	6079.1	
522.4	5881.8	
522.6	7650.5	
522.79	6549.4	
522.99	5972.6	
523.18	5152	
523.38	7466.9	
523.58	7447.1	
523.77	7216.4	
523.97	5086.5	
524.17	9303.9	
524.36	8458.8	
524.56	6470.9	
524.76	6120.7	
524.95	7303.7	
525.15	6947.4	
525.34	5851.7	
525.54	5879.7	
525.74	7746.1	
525.93	6633.4	
526.13	7068.2	
526.33	5750.7	
526.52	8016.4	
526.72	7458.7	
526.91	7174.7	
527.11	6339.8	
527.31	8033.5	
527.5	8511.4	
527.7	6107	
527.89	5137.7	
528.09	6857.3	
528.29	7418.4	
528.48	6653.9	
528.68	6250.4	
528.87	7813	
529.07	7935.9	
529.27	6115.2	
529.46	5563	
529.66	7464.8	
529.85	7947.5	
530.05	5483.8	
530.25	6359.6	
530.44	8888.9	
530.64	7484	
530.83	5849.7	
531.03	6141.2	
531.23	7832.1	
531.42	7726.3	
531.62	6845	
531.81	6062	
532.01	7938.6	
532.21	8447.2	
532.4	5729.5	
532.6	6094.8	
532.79	8660.2	
532.99	7904.5	
533.18	6117.3	
533.38	7232.1	
533.58	7461.4	
533.77	8292.9	
533.97	5997.8	
534.16	6911.9	
534.36	8454.7	
534.55	7495.6	
534.75	7073	
534.95	6139.1	
535.14	8276.5	
535.34	7462.1	
535.53	5790.3	
535.73	7828.7	
535.92	8851.3	
536.12	7780.2	
536.31	5931.6	
536.51	7181.5	
536.71	8028.7	
536.9	7631.4	
537.1	6038.8	
537.29	6250.4	
537.49	8405.5	
537.68	7438.2	
537.88	6581.5	
538.07	5806	
538.27	7656.7	
538.46	8792.6	
538.66	5662.6	
538.86	6105.7	
539.05	7710.6	
539.25	8278.6	
539.44	6467.5	
539.64	6116.6	
539.83	7604.8	
540.03	8632.2	
540.22	5924.8	
540.42	6072.2	
540.61	7899.7	
540.81	7914.7	
541	6556.2	
541.2	7226.6	
541.39	7435.5	
541.59	7819.8	
541.78	6802.7	
541.98	5977.3	
542.18	7122.2	
542.37	7092.1	
542.57	6411.5	
542.76	6907.1	
542.96	7202.7	
543.15	8005.5	
543.35	6498.9	
543.54	5682.4	
543.74	8301.1	
543.93	7803.4	
544.13	6481.1	
544.32	7602.7	
544.52	8205.5	
544.71	7375.4	
544.91	5555.5	
545.1	6886.6	
545.3	7408.2	
545.49	8105.9	
545.69	5439.4	
545.88	6122.7	
546.08	9075.9	
546.27	8705.9	
546.47	6712.6	
546.66	5931.6	
546.86	8469.7	
547.05	9109.4	
547.24	6180.8	
547.44	5972.6	
547.63	7279.2	
547.83	8432.2	
548.02	6393.1	
548.22	6663.4	
548.41	7079.8	
548.61	8373.5	
548.8	6003.3	
549	5986.2	
549.19	7787.7	
549.39	8130.4	
549.58	5680.4	
549.78	6353.5	
549.97	8279.3	
550.17	7744.1	
550.36	7295.5	
550.55	8322.9	
550.75	7707.2	
550.94	8682.7	
551.14	6027.2	
551.33	6373.3	
551.53	7067.5	
551.72	8045.8	
551.92	6385.6	
552.11	6179.4	
552.31	8114.1	
552.5	8182.3	
552.69	7838.3	
552.89	5791.7	
553.08	8121.6	
553.28	7791.2	
553.47	6167.1	
553.67	7401.4	
553.86	8816.5	
554.06	7021.1	
554.25	5341.8	
554.44	5952.8	
554.64	9616.6	
554.83	9081.4	
555.03	5887.2	
555.22	6350.1	
555.42	8277.2	
555.61	7970	
555.8	6165.1	
556	6376	
556.19	7087.3	
556.39	8643.1	
556.58	6219	
556.78	6146.6	
556.97	7950.9	
557.16	7563.8	
557.36	7532.4	
557.55	5849	
557.75	6852.5	
557.94	8707.3	
558.13	6008.1	
558.33	5790.3	
558.52	8409	
558.72	7324.9	
558.91	5840.1	
559.1	6128.2	
559.3	7021.1	
559.49	6820.4	
559.69	5358.9	
559.88	6447	
560.07	7892.9	
560.27	8377.6	
560.46	6668.9	
560.66	6813.6	
560.85	7759.8	
561.04	6900.3	
561.24	5799.2	
561.43	6118.6	
561.63	7238.2	
561.82	7402.7	
562.01	7311.9	
562.21	6322.1	
562.4	7944.8	
562.59	8839	
562.79	6197.8	
562.98	5855.1	
563.18	7811	
563.37	9353.1	
563.56	6741.9	
563.76	5686.5	
563.95	7265.5	
564.14	7185.6	
564.34	6118	
564.53	5893.4	
564.73	7779.6	
564.92	8193.9	
565.11	6345.3	
565.31	5562.3	
565.5	8314.8	
565.69	7402	
565.89	5873.6	
566.08	6140.5	
566.27	8248.5	
566.47	8596.7	
566.66	6870.9	
566.85	5421	
567.05	7783.6	
567.24	7217	
567.44	5716.6	
567.63	7336.5	
567.82	8084.7	
568.02	7866.9	
568.21	5821	
568.4	6254.5	
568.6	7649.8	
568.79	7664.9	
568.98	5541.8	
569.18	5765.7	
569.37	7570.7	
569.56	9729.9	
569.76	6140.5	
569.95	7199.3	
570.14	8104.5	
570.34	7903.8	
570.53	5650.3	
570.72	5711.1	
570.91	8498.4	
571.11	7594.6	
571.3	6209.4	
571.49	7177.4	
571.69	7652.6	
571.88	7167.2	
572.07	6726.2	
572.27	6666.1	
572.46	7167.9	
572.65	8264.9	
572.85	5891.3	
573.04	6309.1	
573.23	8565.3	
573.43	7714	
573.62	5607.3	
573.81	6275.7	
574	7677.2	
574.2	7480.5	
574.39	5907	
574.58	6087.2	
574.78	8552.3	
574.97	7817.8	
575.16	6552.1	
575.36	6680.5	
575.55	8217.8	
575.74	8264.9	
575.93	5633.3	
576.13	6739.9	
576.32	7587.7	
576.51	8179.6	
576.71	6092.7	
576.9	8151.6	
577.09	8523.6	
577.28	7967.3	
577.48	6474.3	
577.67	5552.7	
577.86	7628.7	
578.05	7883.3	
578.25	6199.2	
578.44	6279.8	
578.63	7744.1	
578.83	8862.9	
579.02	5502.9	
579.21	7168.6	
579.4	7970	
579.6	7595.2	
579.79	6429.9	
579.98	8690.2	
580.17	8307.2	
580.37	8323.6	
580.56	5851.7	
580.75	6590.4	
580.94	8775.5	
581.14	8659.5	
581.33	6993.8	
581.52	5886.5	
581.71	8078.6	
581.91	8843.1	
582.1	5578	
582.29	6194.4	
582.48	7723.6	
582.68	7688.8	
582.87	6728.9	
583.06	6359.6	
583.25	7991.9	
583.45	7335.8	
583.64	7035.5	
583.83	7737.9	
584.02	7558.4	
584.21	8019.8	
584.41	6984.9	
584.6	6251.8	
584.79	7662.1	
584.98	8508.6	
585.18	5662.6	
585.37	5768.4	
585.56	7303.7	
585.75	8068.3	
585.94	6004	
586.14	6628.6	
586.33	8747.6	
586.52	7750.2	
586.71	6554.9	
586.91	6196.5	
587.1	7190.4	
587.29	8257.4	
587.48	6210.1	
587.67	6100.9	
587.87	8094.3	
588.06	8237.6	
588.25	7550.9	
588.44	6817	
588.63	7795.9	
588.83	8497	
589.02	6234	
589.21	6153.5	
589.4	7666.9	
589.59	7517.4	
589.78	5483.8	
589.98	5761.6	
590.17	7274.4	
590.36	7909.3	
590.55	5173.2	
590.74	6176.7	
590.94	9284.8	
591.13	7703.8	
591.32	5831.2	
591.51	5346.6	
591.7	8198.7	
591.89	7571.3	
592.09	5397.8	
592.28	6008.7	
592.47	6927.6	
592.66	8796.7	
592.85	5402.5	
593.05	5674.2	
593.24	7460.8	
593.43	8276.5	
593.62	5707	
593.81	6179.4	
594	7470.3	
594.19	7796.6	
594.39	5606.7	
594.58	5565	
594.77	7843	
594.96	8488.8	
595.15	5578.7	
595.34	6298.2	
595.54	7892.2	
595.73	6966.5	
595.92	5020.9	
596.11	6213.5	
596.3	8449.9	
596.49	7056.6	
596.68	5918.6	
596.88	6359.6	
597.07	8174.8	
597.26	6847.7	
597.45	5397.1	
597.64	6682.5	
597.83	7147.4	
598.02	7920.2	
598.22	5506.3	
598.41	6257.9	
598.6	7563.1	
598.79	7011.6	
598.98	5566.4	
599.17	6513.9	
599.36	7586.4	
599.55	8863.6	
599.74	7759.8	
599.94	7490.8	
600.13	8213.7	
600.32	7021.1	
600.51	5289.2	
600.7	5444.2	
600.89	8849.3	
601.08	8883.4	
601.27	5281	
601.47	6286.6	
601.66	8090.8	
601.85	8825.4	
602.04	5956.2	
602.23	6211.5	
602.42	7117.4	
602.61	7804.8	
602.8	5874.3	
602.99	5673.6	
603.18	7473	
603.37	7748.1	
603.57	6338.5	
603.76	6885.3	
603.95	8502.5	
604.14	8024.6	
604.33	5726.1	
604.52	6034.7	
604.71	7608.2	
604.9	7261.4	
605.09	6638.1	
605.28	6539.2	
605.47	8308.6	
605.66	8125	
605.86	6271.6	
606.05	5702.2	
606.24	8271.7	
606.43	6784.2	
606.62	5984.2	
606.81	6881.9	
607	8129.1	
607.19	7445	
607.38	5464.7	
607.57	5734.3	
607.76	7333.1	
607.95	6637.5	
608.14	6095.4	
608.33	6764.4	
608.52	7320.1	
608.72	8233.5	
608.91	5354.8	
609.1	5294.7	
609.29	7380.2	
609.48	6879.8	
609.67	6358.9	
609.86	5331.5	
610.05	6906.4	
610.24	7388.4	
610.43	5188.9	
610.62	4888.5	
610.81	8489.5	
611	8219.9	
611.19	5367.7	
611.38	6200.6	
611.57	7699.7	
611.76	9035	
611.95	5093.3	
612.14	5058.5	
612.33	7386.3	
612.52	6901	
612.71	5731.6	
612.9	4934.9	
613.09	6459.3	
613.28	8964	
613.47	5498.8	
613.66	6431.3	
613.85	7561.1	
614.04	7027.3	
614.24	5599.8	
614.43	4689.2	
614.62	7682.6	
614.81	7651.9	
615	6151.4	
615.19	6135	
615.38	6903	
615.57	7298.3	
615.76	6052.4	
615.95	7024.5	
616.14	7733.1	
616.33	7378.8	
616.52	6361.7	
616.71	6582.2	
616.9	7662.1	
617.09	7459.4	
617.28	5603.9	
617.47	7142.6	
617.66	6713.9	
617.85	6736.5	
618.04	6531	
618.22	5973.9	
618.41	7102.4	
618.6	8045.8	
618.79	5789.6	
618.98	5543.9	
619.17	8287.4	
619.36	6561	
619.55	5677	
619.74	5744.6	
619.93	7557	
620.12	6911.2	
620.31	6314.6	
620.5	6479.1	
620.69	8139.3	
620.88	8527.7	
621.07	7180.9	
621.26	6162.3	
621.45	7698.3	
621.64	7694.9	
621.83	6232.7	
622.02	5413.5	
622.21	7739.3	
622.4	7467.6	
622.59	6808.8	
622.78	6546.7	
622.97	7062.8	
623.16	8082	
623.35	6203.3	
623.54	5336.3	
623.72	7268.9	
623.91	7507.9	
624.1	6539.8	
624.29	5066	
624.48	8551.6	
624.67	7759.8	
624.86	6416.3	
625.05	5353.4	
625.24	8609.7	
625.43	6913.3	
625.62	8172.1	
625.81	5579.3	
626	8062.9	
626.19	7294.2	
626.38	6395.8	
626.56	5825.1	
626.75	7150.8	
626.94	7893.6	
627.13	6434.7	
627.32	5082.4	
627.51	7844.4	
627.7	9248.6	
627.89	5290.6	
628.08	6456.6	
628.27	6946	
628.46	7276.4	
628.65	5618.9	
628.83	5186.1	
629.02	7811	
629.21	7033.4	
629.4	6032	
629.59	6210.8	
629.78	6939.2	
629.97	7976.8	
630.16	6313.9	
630.35	5681.1	
630.54	8428.1	
630.72	8219.2	
630.91	5678.3	
631.1	6286.6	
631.29	7579.5	
631.48	7803.4	
631.67	6394.4	
631.86	5856.5	
632.05	7126.9	
632.24	7215.7	
632.42	5493.3	
632.61	6071.5	
632.8	7312.6	
632.99	6938.5	
633.18	6033.3	
633.37	6584.2	
633.56	7557.7	
633.75	7389.8	
633.93	6022.4	
634.12	5720.7	
634.31	8383.7	
634.5	8028	
634.69	5832.6	
634.88	6360.3	
635.07	7283.9	
635.25	8022.6	
635.44	6763.1	
635.63	6926.9	
635.82	7181.5	
636.01	6748.7	
636.2	6660	
636.39	6171.9	
636.57	8344.1	
636.76	8113.4	
636.95	5645.6	
637.14	7096.2	
637.33	7692.2	
637.52	8858.1	
637.7	5422.3	
637.89	6415.6	
638.08	7215	
638.27	8805.6	
638.46	6459.3	
638.65	6995.2	
638.83	8759.8	
639.02	7075.7	
639.21	6412.9	
639.4	6935.8	
639.59	7619.8	
639.78	7191.1	
639.96	5655.1	
640.15	5640.8	
640.34	7435.5	
640.53	7633.5	
640.72	5352.7	
640.91	5795.1	
641.09	6797.2	
641.28	8370	
641.47	5700.2	
641.66	6627.2	
641.85	7613	
642.03	7927	
642.22	6335.1	
642.41	5786.9	
642.6	6993.1	
642.79	6423.8	
642.97	5614.2	
643.16	6436.1	
643.35	7005.4	
643.54	6834.1	
643.73	5597.8	
643.91	6431.3	
644.1	6697.5	
644.29	7362.4	
644.48	5707	
644.67	5711.1	
644.85	6968.6	
645.04	7282.6	
645.23	5320.6	
645.42	5562.3	
645.6	6872.3	
645.79	8099	
645.98	5626.5	
646.17	4641.4	
646.36	6565.8	
646.54	7266.2	
646.73	6567.2	
646.92	5322	
647.11	6788.3	
647.29	7950.2	
647.48	5341.8	
647.67	5137.7	
647.86	8249.2	
648.05	8312	
648.23	5706.3	
648.42	7118.1	
648.61	7609.6	
648.8	7284.6	
648.98	5330.2	
649.17	5642.2	
649.36	6847	
649.55	6361	
649.73	5359.5	
649.92	6208.8	
650.11	6784.9	
650.3	7148.8	
650.48	5577.3	
650.67	5382.1	
650.86	7406.1	
651.05	6281.1	
651.23	5414.1	
651.42	5401.2	
651.61	6903	
651.79	7041.6	
651.98	5661.3	
652.17	5275.6	
652.36	7366.5	
652.54	6354.8	
652.73	5330.2	
652.92	5157.5	
653.11	7382.9	
653.29	7432.8	
653.48	4650.9	
653.67	5738.4	
653.85	7183.6	
654.04	8249.2	
654.23	6047	
654.42	5451	
654.6	6756.2	
654.79	7466.2	
654.98	4972.5	
655.16	5547.3	
655.35	6391	
655.54	6286.6	
655.73	4999.8	
655.91	4982	
656.1	7501	
656.29	6181.5	
656.47	4454.3	
656.66	6287.9	
656.85	6491.4	
657.03	6486.6	
657.22	5076.9	
657.41	5086.5	
657.59	6615.6	
657.78	6358.9	
657.97	4680.3	
658.16	5539.8	
658.34	7303.7	
658.53	7623.2	
658.72	6483.2	
658.9	6965.8	
659.09	6601.3	
659.28	6832	
659.46	5260.5	
659.65	5199.1	
659.84	6458.6	
660.02	6980.8	
660.21	5049.6	
660.4	5016.2	
660.58	7428	
660.77	6828.6	
660.96	5663.3	
661.14	4644.1	
661.33	7991.2	
661.52	7879.9	
661.7	4606.6	
661.89	8589.9	
662.08	6498.2	
662.26	5976	
662.45	4977.9	
662.64	5032.5	
662.82	7146.7	
663.01	6336.4	
663.2	5057.1	
663.38	5902.9	
663.57	7005.4	
663.75	6946	
663.94	5412.8	
664.13	6702.3	
664.31	6368.5	
664.5	7111.9	
664.69	5603.9	
664.87	6299.6	
665.06	6129.6	
665.25	6938.5	
665.43	6552.8	
665.62	6664.8	
665.8	7308.5	
665.99	6613.6	
666.18	5377.3	
666.36	5487.2	
666.55	7234.1	
666.74	7174.7	
666.92	5021.6	
667.11	6756.2	
667.29	6535.1	
667.48	7212.3	
667.67	6305.7	
667.85	5342.5	
668.04	6638.1	
668.22	6572.6	
668.41	5439.4	
668.6	5644.2	
668.78	6344.6	
668.97	6646.3	
669.15	5862.7	
669.34	4763.6	
669.53	6408.1	
669.71	6769.2	
669.9	4911.7	
670.08	5696.1	
670.27	6389.7	
670.46	6948.8	
670.64	5818.3	
670.83	6162.3	
671.01	6199.9	
671.2	6994.5	
671.38	5037.3	
671.57	4931.5	
671.76	7585	
671.94	8240.3	
672.13	4861.2	
672.31	6053.8	
672.5	7166.5	
672.69	6391	
672.87	5027.1	
673.06	5378.6	
673.24	6988.4	
673.43	6415.6	
673.61	5822.4	
673.8	5351.3	
673.98	7197.9	
674.17	7302.4	
674.36	5983.5	
674.54	5823.7	
674.73	6963.1	
674.91	7171.3	
675.1	5518.6	
675.28	5087.2	
675.47	6738.5	
675.65	7307.8	
675.84	5347.9	
676.03	5735	
676.21	6453.8	
676.4	5978.7	
676.58	6201.9	
676.77	5961.6	
676.95	8069.7	
677.14	6387.6	
677.32	5008	
677.51	4803.9	
677.69	7187	
677.88	6001.2	
678.06	4943.1	
678.25	4986.8	
678.44	6705.7	
678.62	6430.6	
678.81	4670.7	
678.99	5690.6	
679.18	7585.7	
679.36	7115.3	
679.55	5332.9	
679.73	6019.7	
679.92	7036.8	
680.1	6447.7	
680.29	6657.3	
680.47	5347.9	
680.66	6385.6	
680.84	7299.6	
681.03	4630.5	
681.21	5794.4	
681.4	6395.8	
681.58	6239.5	
681.77	5047.6	
681.95	5085.1	
682.14	7346.1	
682.32	7656	
682.51	6064	
682.69	4813.4	
682.88	6385.6	
683.06	7077.8	
683.25	5799.8	
683.43	6217	
683.62	6614.3	
683.8	7141.9	
683.99	6313.9	
684.17	5597.1	
684.36	8088.1	
684.54	6606.7	
684.73	4794.3	
684.91	5020.3	
685.1	6983.6	
685.28	6526.2	
685.46	5652.4	
685.65	5743.9	
685.83	7295.5	
686.02	6640.2	
686.2	5088.5	
686.39	5147.2	
686.57	6272.2	
686.76	7961.1	
686.94	5088.5	
687.13	5284.4	
687.31	7130.3	
687.5	6611.5	
687.68	4651.6	
687.86	6047.7	
688.05	8358.4	
688.23	6067.4	
688.42	5984.8	
688.6	5164.3	
688.79	6492.1	
688.97	6471.6	
689.16	5587.5	
689.34	4445.5	
689.52	7282.6	
689.71	7483.3	
689.89	5853.1	
690.08	5132.9	
690.26	6774	
690.45	6639.5	
690.63	6113.9	
690.81	5306.3	
691	6466.8	
691.18	6414.2	
691.37	5496.1	
691.55	7807.5	
691.74	6331	
691.92	8616.5	
692.1	5487.2	
692.29	4890.5	
692.47	6688.7	
692.66	5897.5	
692.84	5072.8	
693.02	5728.9	
693.21	6025.1	
693.39	6585.6	
693.58	5773.9	
693.76	5171.1	
693.94	7746.1	
694.13	7490.1	
694.31	5049.6	
694.5	6251.1	
694.68	6270.2	
694.86	6697.5	
695.05	5507	
695.23	5906.3	
695.42	7080.5	
695.6	9551	
695.78	6130.3	
695.97	5164.3	
696.15	7174	
696.34	6643.6	
696.52	5005.2	
696.7	5868.8	
696.89	6916	
697.07	6283.2	
697.25	5780.1	
697.44	7390.4	
697.62	6862.1	
697.81	7219.8	
697.99	5470.8	
698.17	5975.3	
698.36	6240.2	
698.54	6924.9	
698.72	5806.7	
698.91	4799.1	
699.09	6449.7	
699.28	6367.8	
699.46	5461.9	
699.64	5357.5	
699.83	6251.8	
700.01	7619.8	
700.19	6146.6	
700.38	4470.7	
700.56	7535.2	
700.74	6333.7	
700.93	4952.7	
701.11	5754.1	
701.29	7022.5	
701.48	8043.7	
701.66	5169.1	
701.84	5255.1	
702.03	6480.5	
702.21	7210.9	
702.39	4678.9	
702.58	5374.6	
702.76	6853.9	
702.94	7071.6	
703.13	4748.6	
703.31	7234.8	
703.49	6128.2	
703.68	7343.3	
703.86	4864.6	
704.04	5952.8	
704.23	6701.6	
704.41	7116.7	
704.59	5052.3	
704.78	6421.7	
704.96	7851.2	
705.14	7219.8	
705.33	4843.4	
705.51	5813.5	
705.69	6622.4	
705.87	7422.5	
706.06	6031.3	
706.24	4837.3	
706.42	6918.7	
706.61	7131	
706.79	6078.4	
706.97	4868.7	
707.16	6314.6	
707.34	6971.3	
707.52	6083.1	
707.7	5110.4	
707.89	6421.1	
708.07	6057.9	
708.25	6024.4	
708.44	6496.2	
708.62	6326.9	
708.8	7542	
708.98	6271.6	
709.17	5171.1	
709.35	6782.2	
709.53	6858.6	
709.72	4870.8	
709.9	5425.1	
710.08	7094.8	
710.26	7163.1	
710.45	6550.8	
710.63	5208	
710.81	6759.7	
710.99	6798.6	
711.18	5888.6	
711.36	5328.8	
711.54	6592.4	
711.72	7346.7	
711.91	5439.4	
712.09	4850.3	
712.27	6764.4	
712.45	7447.8	
712.64	5829.9	
712.82	4640.7	
713	6225.1	
713.18	6386.2	
713.37	4927.4	
713.55	6196.5	
713.73	7454.6	
713.91	5988.9	
714.1	5411.4	
714.28	4867.3	
714.46	7100.3	
714.64	6357.6	
714.83	4310.3	
715.01	5159.5	
715.19	6377.4	
715.37	5756.2	
715.55	4917.9	
715.74	5225.7	
715.92	7367.9	
716.1	5326.1	
716.28	6329.6	
716.47	5343.2	
716.65	6061.3	
716.83	6197.8	
717.01	5188.9	
717.19	5334.3	
717.38	8307.2	
717.56	5756.8	
717.74	5531.6	
717.92	4545.8	
718.1	7006.8	
718.29	6107	
718.47	4074.8	
718.65	4869.4	
718.83	6888	
719.01	6809.5	
719.2	3949.2	
719.38	5061.2	
719.56	6445	
719.74	8208.3	
719.92	4681	
720.11	5854.5	
720.29	6575.3	
720.47	5629.9	
720.65	4279.6	
720.83	5248.9	
721.02	6090	
721.2	5853.8	
721.38	5264.6	
721.56	4472.8	
721.74	5266	
721.92	5499.5	
722.11	5831.9	
722.29	5502.9	
722.47	6845.7	
722.65	5932.3	
722.83	4549.2	
723.01	5560.2	
723.2	6040.8	
723.38	6316.6	
723.56	3929.4	
723.74	5142.4	
723.92	5496.1	
724.1	6681.2	
724.29	4425	
724.47	5674.9	
724.65	5550	
724.83	5513.1	
725.01	4259.1	
725.19	5288.5	
725.37	5601.9	
725.56	5640.8	
725.74	4141.7	
725.92	4503.5	
726.1	5409.4	
726.28	5860.6	
726.46	4930.8	
726.64	4617.5	
726.83	5760.9	
727.01	6079.7	
727.19	4181.3	
727.37	5017.5	
727.55	5954.1	
727.73	6457.2	
727.91	4046.8	
728.09	3955.3	
728.28	6554.9	
728.46	7131.7	
728.64	5161.6	
728.82	5002.5	
729	7685.3	
729.18	6791.1	
729.36	4173.1	
729.54	6688.7	
729.72	7843.7	
729.91	6010.1	
730.09	6205.3	
730.27	4925.4	
730.45	5901.6	
730.63	6647.7	
730.81	5535.7	
730.99	4530.8	
731.17	7143.3	
731.35	5619.6	
731.53	5147.2	
731.71	4657.1	
731.9	6807.4	
732.08	6966.5	
732.26	4917.2	
732.44	4625	
732.62	7092.1	
732.8	6547.4	
732.98	5397.1	
733.16	4330.8	
733.34	6526.9	
733.52	5182.7	
733.7	4923.3	
733.88	5205.3	
734.07	6334.4	
734.25	6136.4	
734.43	4354	
734.61	6022.4	
734.79	7727	
734.97	6022.4	
735.15	4514.4	
735.33	4881.7	
735.51	6363	
735.69	5971.9	
735.87	6520	
736.05	5145.2	
736.23	6193.7	
736.41	5976	
736.59	4882.4	
736.77	4986.1	
736.95	6670.2	
737.13	6070.2	
737.32	4526	
737.5	4775.9	
737.68	7213.6	
737.86	5873.6	
738.04	4341.7	
738.22	6384.2	
738.4	5752.1	
738.58	5975.3	
738.76	5019.6	
738.94	3871.3	
739.12	5829.2	
739.3	5726.1	
739.48	5704.3	
739.66	5379.3	
739.84	6152.8	
740.02	6141.9	
740.2	3998.3	
740.38	4411.3	
740.56	6542.6	
740.74	5357.5	
740.92	5051	
741.1	4956.1	
741.28	5984.8	
741.46	5812.8	
741.64	4621.6	
741.82	5246.9	
742	5986.2	
742.18	5924.8	
742.36	4806.6	
742.54	4383.3	
742.72	6571.2	
742.9	5261.2	
743.08	5258.5	
743.26	3973.7	
743.44	6924.9	
743.62	6625.9	
743.8	5427.1	
743.98	4399	
744.16	6350.8	
744.34	6021.7	
744.52	5347.9	
744.7	5266	
744.88	6523.5	
745.06	6032	
745.24	5418.9	
745.42	5483.8	
745.6	6619.7	
745.78	6394.4	
745.96	4147.1	
746.14	4457.1	
746.32	7436.2	
746.5	6645	
746.68	5106.3	
746.86	4537.6	
747.03	7118.1	
747.21	5277.6	
747.39	5130.2	
747.57	4528.7	
747.75	6190.3	
747.93	6613.6	
748.11	4509.6	
748.29	4386.1	
748.47	7806.9	
748.65	5879.7	
748.83	5316.5	
749.01	4919.2	
749.19	6486.6	
749.37	5532.9	
749.55	4811.4	
749.73	4859.1	
749.91	6044.9	
750.09	5772.5	
750.26	5023.7	
750.44	4361.5	
750.62	6082.5	
750.8	6085.9	
750.98	4186.7	
751.16	4526	
751.34	6160.3	
751.52	5468.8	
751.7	5406.6	
751.88	4149.2	
752.06	6667.5	
752.24	6416.3	
752.42	4152.6	
752.59	4457.1	
752.77	5997.8	
752.95	7424.6	
753.13	5326.8	
753.31	4687.8	
753.49	5767.1	
753.67	6279.1	
753.85	4932.9	
754.03	4532.8	
754.21	6513.9	
754.38	6911.2	
754.56	4754.7	
754.74	3758	
754.92	5818.3	
755.1	6558.3	
755.28	3913	
755.46	3863.2	
755.64	7387.7	
755.82	7649.2	
755.99	4267.3	
756.17	4429.1	
756.35	4930.8	
756.53	6735.8	
756.71	3284.9	
756.89	4298.7	
757.07	6257.9	
757.25	5188.9	
757.42	4849.6	
757.6	5759.6	
757.78	6192.4	
757.96	5122	
758.14	4478.9	
758.32	3920.5	
758.5	4668	
758.67	5601.2	
758.85	4278.2	
759.03	4479.6	
759.21	5796.4	
759.39	5163.6	
759.57	3743.7	
759.75	5096	
759.92	6399.9	
760.1	5640.8	
760.28	5481	
760.46	5696.1	
760.64	5393	
760.82	5073.5	
760.99	4986.1	
761.17	4356.7	
761.35	6296.1	
761.53	5177.3	
761.71	4482.3	
761.89	5214.8	
762.06	6090	
762.24	5565	
762.42	4478.9	
762.6	4322.6	
762.78	5540.4	
762.96	6287.9	
763.13	4866	
763.31	4569	
763.49	6434	
763.67	5500.2	
763.85	5453.7	
764.02	5995.8	
764.2	6678.4	
764.38	5894.7	
764.56	4394.3	
764.74	5382.7	
764.91	6841.6	
765.09	5616.2	
765.27	4056.3	
765.45	3882.9	
765.63	6844.3	
765.8	6713.2	
765.98	3579.2	
766.16	3951.9	
766.34	5190.2	
766.52	5020.3	
766.69	4972.5	
766.87	3784	
767.05	5644.2	
767.23	6410.8	
767.41	4095.3	
767.58	4446.1	
767.76	6231.3	
767.94	6356.9	
768.12	4205.8	
768.29	5132.2	
768.47	5714.5	
768.65	6567.2	
768.83	3896.6	
769	5109	
769.18	5272.2	
769.36	6030.6	
769.54	5103.5	
769.72	3979.2	
769.89	6337.8	
770.07	6526.9	
770.25	4276.8	
770.43	5569.1	
770.6	7129.7	
770.78	7615	
770.96	4455.7	
771.14	4377.9	
771.31	6150.7	
771.49	5539.8	
771.67	3603.7	
771.85	3852.9	
772.02	4754.7	
772.2	5558.9	
772.38	4696	
772.55	4175.1	
772.73	5868.8	
772.91	5591.6	
773.09	4546.5	
773.26	4642.7	
773.44	5859.9	
773.62	5426.4	
773.8	3992.9	
773.97	3703.4	
774.15	5930.9	
774.33	5536.3	
774.5	3938.9	
774.68	4302.1	
774.86	6229.2	
775.04	5556.8	
775.21	4021.5	
775.39	4015.4	
775.57	5863.3	
775.74	6305.7	
775.92	3855	
776.1	3730	
776.27	5895.4	
776.45	7129.7	
776.63	4015.4	
776.81	3543	
776.98	5452.4	
777.16	6631.3	
777.34	4259.1	
777.51	4579.3	
777.69	5443.5	
777.87	5238	
778.04	4205.8	
778.22	4894.6	
778.4	5242.1	
778.57	5935.7	
778.75	3469.9	
778.93	3783.3	
779.1	5051.7	
779.28	4945.2	
779.46	3490.4	
779.64	4021.5	
779.81	6141.2	
779.99	7114	
780.17	4897.4	
780.34	5115.1	
780.52	5543.9	
780.69	5812.1	
780.87	4398.4	
781.05	3898.6	
781.22	5587.5	
781.4	5667.4	
781.58	4066.6	
781.75	3175.7	
781.93	5665.4	
782.11	5051	
782.28	5053.7	
782.46	4140.3	
782.64	4936.3	
782.81	5877.7	
782.99	4182	
783.17	4124.6	
783.34	5746.6	
783.52	4902.2	
783.69	4344.4	
783.87	5223	
784.05	5050.3	
784.22	5106.3	
784.4	5224.4	
784.58	4519.9	
784.75	6087.2	
784.93	5083.1	
785.1	4060.4	
785.28	4900.1	
785.46	5797.1	
785.63	5109.7	
785.81	4054.3	
785.99	3938.9	
786.16	5246.2	
786.34	5670.1	
786.51	3965.6	
786.69	4413.4	
786.87	4827.7	
787.04	5399.8	
787.22	3792.8	
787.39	4836.6	
787.57	5042.1	
787.75	6239.5	
787.92	5063.9	
788.1	4982.7	
788.27	5160.9	
788.45	4809.3	
788.63	4715.8	
788.8	3323.2	
788.98	5634.6	
789.15	4804.5	
789.33	3471.3	
789.5	4185.4	
789.68	6094.8	
789.86	6181.5	
790.03	4618.9	
790.21	4014	
790.38	6014.9	
790.56	5259.2	
790.73	3874.8	
790.91	3893.2	
791.09	5128.1	
791.26	5891.3	
791.44	4138.3	
791.61	3548.4	
791.79	5074.2	
791.96	5197.1	
792.14	3672.7	
792.32	3263.8	
792.49	5115.8	
792.67	5221.6	
792.84	3757.3	
793.02	3485.6	
793.19	5571.2	
793.37	6379.4	
793.54	3275.4	
793.72	3600.3	
793.89	6554.2	
794.07	5143.1	
794.25	4105.5	
794.42	3343	
794.6	6235.4	
794.77	5842.9	
794.95	4612	
795.12	3942.3	
795.3	5087.8	
795.47	5774.6	
795.65	4360.1	
795.82	4211.3	
796	4947.2	
796.17	7023.9	
796.35	4031.1	
796.52	4847.5	
796.7	5717.2	
796.87	5822.4	
797.05	5122	
797.22	4957.4	
797.4	5754.8	
797.57	6884.6	
797.75	4197	
797.92	3949.2	
798.1	6098.2	
798.27	5129.5	
798.45	3336.8	
798.62	3688.4	
798.8	5459.9	
798.97	6045.6	
799.15	4511.7	
799.32	4266.6	
799.5	4674.1	
799.67	5493.3	
799.85	4525.3	
800.02	3274	
800.2	5048.2	
800.37	5436.7	
800.55	4767.7	
800.72	3982.6	
800.9	5881.8	
801.07	6442.2	
801.25	5378	
801.42	4330.8	
801.6	5993.7	
801.77	5744.6	
801.95	4035.9	
802.12	3851.5	
802.29	5610.1	
802.47	5687.9	
802.64	4363.5	
802.82	3255.6	
802.99	5101.5	
803.17	6154.8	
803.34	4189.5	
803.52	3748.5	
803.69	6831.3	
803.87	4934.9	
804.04	4165.6	
804.21	4308.2	
804.39	6257.9	
804.56	5348.6	
804.74	3508.2	
804.91	4358.8	
805.09	5100.8	
805.26	5279.7	
805.44	3550.5	
805.61	4014	
805.78	5783.5	
805.96	5938.4	
806.13	4375.1	
806.31	4739.7	
806.48	4646.2	
806.66	5235.3	
806.83	4351.3	
807	4206.5	
807.18	5109.7	
807.35	5573.9	
807.53	4221.5	
807.7	3367.5	
807.87	6416.3	
808.05	5220.3	
808.22	4672.8	
808.4	3373.7	
808.57	5230.5	
808.74	4739.7	
808.92	3827	
809.09	5010	
809.27	5003.2	
809.44	5693.4	
809.61	3431	
809.79	3812.6	
809.96	6380.8	
810.14	5957.5	
810.31	3324.5	
810.48	4104.8	
810.66	5266.7	
810.83	6077.7	
811.01	3884.3	
811.18	4328	
811.35	6029.2	
811.53	4595	
811.7	4769	
811.87	4430.4	
812.05	5160.2	
812.22	5108.3	
812.39	3775.1	
812.57	3590.8	
812.74	5217.5	
812.92	6977.4	
813.09	4102.8	
813.26	4516.5	
813.44	6690	
813.61	5119.2	
813.78	3376.4	
813.96	4604.5	
814.13	5168.4	
814.3	4865.3	
814.48	5044.8	
814.65	4143	
814.82	6494.1	
815	4962.2	
815.17	4162.8	
815.34	5188.9	
815.52	5074.2	
815.69	5134.3	
815.87	4156.7	
816.04	3514.3	
816.21	5158.2	
816.38	4557.4	
816.56	4060.4	
816.73	3664.5	
816.9	6581.5	
817.08	5965.7	
817.25	3802.4	
817.42	4826.4	
817.6	4689.8	
817.77	5218.9	
817.94	4255.7	
818.12	3736.2	
818.29	4928.8	
818.46	7864.2	
818.64	3908.9	
818.81	3680.9	
818.98	4849.6	
819.16	7202	
819.33	4527.4	
819.5	4210.6	
819.67	5588.9	
819.85	6262.7	
820.02	4151.9	
820.19	4390.2	
820.37	5438	
820.54	4952	
820.71	4265.9	
820.88	5351.3	
821.06	5467.4	
821.23	4919.2	
821.4	4276.8	
821.58	4247.5	
821.75	5924.1	
821.92	5354.1	
822.09	3428.3	
822.27	3704.8	
822.44	5147.2	
822.61	5076.2	
822.79	3422.8	
822.96	6698.2	
823.13	5746.6	
823.3	4901.5	
823.48	4027.7	
823.65	3653.6	
823.82	5954.1	
823.99	4740.4	
824.17	5168.4	
824.34	3622.9	
824.51	6885.3	
824.68	5268.7	
824.86	3832.4	
825.03	4296.6	
825.2	5224.4	
825.37	6367.8	
825.55	3779.9	
825.72	4245.4	
825.89	7030.7	
826.06	6457.2	
826.24	4126.7	
826.41	4130.8	
826.58	6281.8	
826.75	5556.8	
826.92	3232.4	
827.1	3569.6	
827.27	8718.2	
827.44	6976.7	
827.61	3820.8	
827.79	4764.3	
827.96	4897.4	
828.13	5287.9	
828.3	4115.1	
828.47	3457	
828.65	5416.2	
828.82	5414.1	
828.99	5363.6	
829.16	4657.8	
829.34	5812.1	
829.51	5560.9	
829.68	4264.6	
829.85	4429.8	
830.02	6119.3	
830.2	5815.5	
830.37	3256.3	
830.54	5162.2	
830.71	6660	
830.88	5186.8	
831.05	3310.2	
831.23	3841.3	
831.4	6455.9	
831.57	7215	
831.74	3872	
831.91	3480.2	
832.09	5375.2	
832.26	5825.1	
832.43	4063.2	
832.6	4554	
832.77	5425.8	
832.94	6237.4	
833.12	3179.8	
833.29	4067.3	
833.46	5160.9	
833.63	7443.7	
833.8	4482.3	
833.97	4055	
834.15	5862	
834.32	5580.7	
834.49	4244.1	
834.66	4396.3	
834.83	6053.8	
835	4852.3	
835.17	3842	
835.35	3926.6	
835.52	5739.8	
835.69	5607.3	
835.86	4151.9	
836.03	3376.4	
836.2	5755.5	
836.37	5349.3	
836.55	4082.3	
836.72	3762.1	
836.89	5348.6	
837.06	5927.5	
837.23	4179.2	
837.4	4566.3	
837.57	6700.3	
837.75	7437.5	
837.92	3723.9	
838.09	3931.4	
838.26	5335	
838.43	6153.5	
838.6	4320.5	
838.77	3800.3	
838.94	7031.4	
839.11	6734.4	
839.29	4062.5	
839.46	3149.1	
839.63	5773.9	
839.8	5508.4	
839.97	3943.7	
840.14	3936.2	
840.31	5550.7	
840.48	5811.5	
840.65	3257	
840.82	3979.9	
841	5785.5	
841.17	5763	
841.34	3640.6	
841.51	3628.3	
841.68	5767.1	
841.85	5475.6	
842.02	3804.4	
842.19	3078.8	
842.36	5540.4	
842.53	5533.6	
842.7	3592.8	
842.87	4510.3	
843.05	7378.1	
843.22	5438.7	
843.39	3448.1	
843.56	3699.3	
843.73	5210.7	
843.9	5912.5	
844.07	5937.1	
844.24	4969.7	
844.41	8646.5	
844.58	5043.5	
844.75	3517.7	
844.92	3853.6	
845.09	5797.8	
845.26	5795.1	
845.43	3599.6	
845.6	3770.3	
845.77	5825.1	
845.94	5483.8	
846.12	3975.8	
846.29	4207.2	
846.46	6021	
846.63	5833.3	
846.8	3610.6	
846.97	4324.6	
847.14	6339.8	
847.31	5748.6	
847.48	4083.6	
847.65	4513	
847.82	6115.9	
847.99	6064	
848.16	4910.3	
848.33	4473.4	
848.5	5385.5	
848.67	6337.1	
848.84	3600.3	
849.01	3751.9	
849.18	5208	
849.35	4814.1	
849.52	4604.5	
849.69	3513.6	
849.86	6019.7	
850.03	6279.8	
850.2	3630.4	
850.37	4474.1	
850.54	6173.9	
850.71	5545.2	
850.88	4332.8	
851.05	3583.3	
851.22	5686.5	
851.39	6409.5	
851.56	3418.7	
851.73	4133.5	
851.9	5091.9	
852.07	6060.6	
852.24	3990.1	
852.41	3565.5	
852.58	5628.5	
852.75	5150.6	
852.92	4097.3	
853.09	3522.5	
853.26	5362.9	
853.43	6182.8	
853.6	3593.5	
853.77	3022.8	
853.94	6356.9	
854.11	5769.8	
854.28	5408	
854.44	3926.6	
854.61	6886	
854.78	6151.4	
854.95	3587.4	
855.12	4584	
855.29	4644.1	
855.46	6532.3	
855.63	3530	
855.8	5051.7	
855.97	5343.8	
856.14	6157.6	
856.31	5118.6	
856.48	3904.1	
856.65	5323.4	
856.82	5040.7	
856.99	3409.2	
857.16	3898.6	
857.33	7180.2	
857.49	5424.4	
857.66	3862.5	
857.83	4241.3	
858	5436	
858.17	5618.3	
858.34	3421.5	
858.51	3585.3	
858.68	6550.8	
858.85	6627.2	
859.02	4177.2	
859.19	4504.2	
859.36	5037.3	
859.52	5090.6	
859.69	3609.2	
859.86	4318.5	
860.03	5178.6	
860.2	6375.3	
860.37	3266.5	
860.54	3632.4	
860.71	6044.9	
860.88	6527.6	
861.05	4066.6	
861.21	4547.9	
861.38	6531	
861.55	4941.7	
861.72	3277.4	
861.89	4046.1	
862.06	6081.1	
862.23	6681.8	
862.4	3513.6	
862.56	3805.8	
862.73	5929.6	
862.9	5543.9	
863.07	4218.8	
863.24	3282.2	
863.41	4948.6	
863.58	5091.9	
863.75	3727.3	
863.91	4125.3	
864.08	6491.4	
864.25	5961	
864.42	4537.6	
864.59	5070.1	
864.76	6783.6	
864.93	5107	
865.09	3503.4	
865.26	3852.2	
865.43	6301.6	
865.6	6800.6	
865.77	3186.6	
865.94	3571.7	
866.1	6354.2	
866.27	6146.6	
866.44	5465.3	
866.61	3383.9	
866.78	5478.3	
866.95	5936.4	
867.11	3463.8	
867.28	3189.4	
867.45	6125.5	
867.62	5163.6	
867.79	4187.4	
867.96	3540.9	
868.12	5132.2	
868.29	6130.3	
868.46	3115	
868.63	4830.5	
868.8	6241.5	
868.97	5977.3	
869.13	3762.1	
869.3	3738.9	
869.47	5920.7	
869.64	6137.1	
869.81	3626.3	
869.97	3614	
870.14	5842.9	
870.31	6572.6	
870.48	3553.9	
870.65	4558.8	
870.81	5420.3	
870.98	5401.9	
871.15	4055	
871.32	3766.2	
871.48	5907	
871.65	6578.1	
871.82	3614.7	
871.99	3969.6	
872.16	7008.1	
872.32	6381.5	
872.49	3658.4	
872.66	3632.4	
872.83	6025.8	
872.99	5312.4	
873.16	4163.5	
873.33	3574.4	
873.5	5664	
873.67	5679	
873.83	3760.8	
874	4911.7	
874.17	5774.6	
874.34	6904.4	
874.5	4688.5	
874.67	4459.1	
874.84	6475	
875.01	5074.2	
875.17	5205.9	
875.34	3566.2	
875.51	5699.5	
875.68	6949.4	
875.84	4369.7	
876.01	5322	
876.18	5983.5	
876.34	5982.8	
876.51	3646.1	
876.68	3521.1	
876.85	5442.8	
877.01	6320.7	
877.18	5205.3	
877.35	3573.7	
877.52	5565	
877.68	4968.4	
877.85	3532.7	
878.02	3506.1	
878.18	5623	
878.35	5249.6	
878.52	2861.7	
878.69	4057	
878.85	6053.1	
879.02	6027.2	
879.19	5113.8	
879.35	3904.8	
879.52	5979.4	
879.69	6268.8	
879.86	3093.1	
880.02	4025.6	
880.19	5532.9	
880.36	6866.8	
880.52	4166.9	
880.69	4332.8	
880.86	6116.6	
881.02	6167.8	
881.19	3933.5	
881.36	3945.1	
881.52	6050.4	
881.69	5245.5	
881.86	3873.4	
882.02	3833.1	
882.19	6301.6	
882.36	7374.1	
882.52	3676.1	
882.69	5032.5	
882.86	5794.4	
883.02	5670.8	
883.19	4461.8	
883.36	4164.2	
883.52	6137.8	
883.69	6989.7	
883.86	3661.8	
884.02	3217.4	
884.19	6075	
884.36	5585.5	
884.52	4088.4	
884.69	3827	
884.86	5323.4	
885.02	6724.2	
885.19	4083	
885.36	4182.6	
885.52	5509	
885.69	5747.3	
885.86	5304.9	
886.02	4619.5	
886.19	6057.2	
886.35	5406	
886.52	3944.4	
886.69	5104.9	
886.85	5097.4	
887.02	6485.9	
887.19	6485.9	
887.35	6485.9	
887.52	6485.9	
887.68	6485.9	
887.85	6485.9	
888.02	6485.9	
888.18	6485.9	
888.35	6485.9	
888.51	6485.9	
888.68	6485.9	
888.85	6485.9	
889.01	6485.9	
889.18	6485.9	
889.35	6485.9	
889.51	6485.9	
889.68	6485.9	
889.84	6485.9	
890.01	6485.9	
890.17	6485.9	
890.34	6485.9	
890.51	6485.9	
890.67	6485.9	
890.84	6485.9	
891	6485.9	
891.17	6485.9	
891.34	6485.9	
891.5	6485.9	
891.67	6485.9	
891.83	6485.9	
892	6485.9	
892.16	6485.9	
892.33	6485.9	
892.5	6485.9	
892.66	6485.9	
892.83	6485.9	
892.99	6485.9	
893.16	6485.9	
893.32	6485.9	
893.49	6485.9	
893.65	6485.9	
893.82	6485.9	
893.99	6485.9	
894.15	6485.9	
894.32	6485.9	
894.48	6485.9	
894.65	6485.9	
894.81	6485.9	
894.98	6485.9	
895.14	6485.9	
895.31	6485.9	
895.47	6485.9	
895.64	6485.9	
895.81	6485.9	
895.97	6485.9	
896.14	6485.9	
896.3	6485.9	
896.47	6485.9	
896.63	6485.9	
896.8	6485.9	
896.96	6485.9	
897.13	6485.9	
897.29	6485.9	
897.46	6485.9	
897.62	6485.9	
897.79	6485.9	
897.95	6485.9	
898.12	6485.9	
898.28	6485.9	
898.45	6485.9	
898.61	6485.9	
898.78	6485.9	
898.94	6485.9	
899.11	6485.9	
899.27	6485.9	
899.44	6485.9	
899.6	6485.9	
899.77	6485.9	
899.93	6485.9	
900.1	6485.9	
900.26	6485.9	
900.43	6485.9	
900.59	6485.9	
900.76	6485.9	
900.92	6485.9	
901.09	6485.9	
901.25	6485.9	
901.42	6485.9	
901.58	6485.9	
901.75	6485.9	
901.91	6485.9	
902.07	6485.9	
902.24	6485.9	
902.4	6485.9	
902.57	6485.9	
902.73	6485.9	
902.9	6485.9	
903.06	6485.9	
903.23	6485.9	
903.39	6485.9	
903.56	6485.9	
903.72	6485.9	
903.88	6485.9	
904.05	6485.9	
904.21	6485.9	
904.38	6485.9	
904.54	6485.9	
904.71	6485.9	
904.87	6485.9	
905.03	6485.9	
905.2	6485.9	
905.36	6485.9	
905.53	6485.9	
905.69	6485.9	
905.86	6485.9	
906.02	6485.9	
906.18	6485.9	
906.35	6485.9	
906.51	6485.9	
906.68	6485.9	
906.84	6485.9	
907.01	6485.9	
907.17	6485.9	
907.33	6485.9	
907.5	6485.9	
907.66	6485.9	
907.83	6485.9	
907.99	6485.9	
908.15	6485.9	
908.32	6485.9	
908.48	6485.9	
908.65	6485.9	
908.81	6485.9	
908.97	6485.9	
909.14	6485.9	
909.3	6485.9	
909.47	6485.9	
909.63	6485.9	
909.79	6485.9	
909.96	6485.9	
910.12	6485.9	
910.28	6485.9	
910.45	6485.9	
910.61	6485.9	
910.78	6485.9	
910.94	6485.9	
911.1	6485.9	
911.27	6485.9	
911.43	6485.9	
911.59	6485.9	
911.76	6485.9	
911.92	6485.9	
912.08	6485.9	
912.25	6485.9	
912.41	6485.9	
912.57	6485.9	
912.74	6485.9	
912.9	6485.9	
913.07	6485.9	
913.23	6485.9	
913.39	6485.9	
913.56	6485.9	
913.72	6485.9	
913.88	6485.9	
914.05	6485.9	
914.21	6485.9	
914.37	6485.9	
914.54	6485.9	
914.7	6485.9	
914.86	6485.9	
915.03	6485.9	
915.19	6485.9	
