Wavelength	Intensities	
nm	a.u.	
179.22	1677.6	
179.44	1679.3	
179.65	1675.9	
179.86	1682.7	
180.08	1705.3	
180.29	3863.8	
180.51	2977.7	
180.72	4907.6	
180.94	5432.6	
181.15	2677.4	
181.37	2661	
181.58	4770.4	
181.79	4932.9	
182.01	2738.1	
182.22	2918.4	
182.44	4960.2	
182.65	4316.4	
182.87	3613.3	
183.08	3194.8	
183.29	5183.4	
183.51	4317.1	
183.72	2908.8	
183.94	4032.5	
184.15	4696	
184.37	4623.6	
184.58	2638.5	
184.79	3379.8	
185.01	4453.6	
185.22	4982.7	
185.44	3538.9	
185.65	3138.2	
185.86	4605.9	
186.08	4352.6	
186.29	2525.1	
186.51	2791.4	
186.72	4428.4	
186.94	5043.5	
187.15	3185.3	
187.36	3186.6	
187.58	6260.6	
187.79	4734.9	
188.01	3318.4	
188.22	4861.9	
188.43	5515.2	
188.65	4917.9	
188.86	2764.1	
189.08	3219.4	
189.29	4501.4	
189.5	4476.2	
189.72	2953.9	
189.93	3021.4	
190.15	5044.8	
190.36	5872.9	
190.57	3226.2	
190.79	3118.4	
191	5109.7	
191.22	5130.8	
191.43	3269.2	
191.64	2829.6	
191.86	5206.6	
192.07	5089.2	
192.29	2875.3	
192.5	2962	
192.71	5053	
192.93	4497.3	
193.14	2913.6	
193.35	3024.8	
193.57	4423.6	
193.78	5034.6	
194	2491.7	
194.21	2981.8	
194.42	4334.9	
194.64	4691.9	
194.85	3135.4	
195.07	3641.3	
195.28	4657.8	
195.49	4173.1	
195.71	3786.7	
195.92	2800.9	
196.13	4826.4	
196.35	4856.4	
196.56	4048.8	
196.78	3256.3	
196.99	5771.2	
197.2	5410.1	
197.42	3550.5	
197.63	3226.9	
197.84	4263.2	
198.06	4828.4	
198.27	2973	
198.48	3864.5	
198.7	4496.7	
198.91	4709	
199.13	3235.8	
199.34	3258.3	
199.55	5079.6	
199.77	4045.4	
199.98	2884.9	
200.19	3256.3	
200.41	4691.9	
200.62	4360.8	
200.83	3312.2	
201.05	3510.9	
201.26	4649.6	
201.47	4453	
201.69	2864.4	
201.9	2828.9	
202.11	4668.7	
202.33	5362.9	
202.54	3005.1	
202.76	3334.8	
202.97	4700.1	
203.18	4784.1	
203.4	3340.2	
203.61	3321.1	
203.82	4710.3	
204.04	4469.4	
204.25	3226.9	
204.46	3130.7	
204.68	4699.4	
204.89	4848.2	
205.1	3175	
205.32	2760	
205.53	4897.4	
205.74	5049.6	
205.96	2600.2	
206.17	3248.1	
206.38	4905.6	
206.6	5043.5	
206.81	3641.3	
207.02	3010.5	
207.24	4843.4	
207.45	5120.6	
207.66	3089.7	
207.88	2717	
208.09	4805.2	
208.3	4632.5	
208.52	2857.6	
208.73	3108.1	
208.94	4658.4	
209.15	5137.7	
209.37	3056.3	
209.58	3117.7	
209.79	5036	
210.01	4562.9	
210.22	2571.6	
210.43	2658.9	
210.65	4637.3	
210.86	4963.6	
211.07	3030.3	
211.29	2826.9	
211.5	4882.4	
211.71	4610	
211.93	2879.4	
212.14	2890.4	
212.35	4602.5	
212.56	4709.6	
212.78	3211.9	
212.99	2682.2	
213.2	5322.7	
213.42	4500.1	
213.63	2930.6	
213.84	3079.5	
214.06	4265.9	
214.27	4307.6	
214.48	3089	
214.69	3252.9	
214.91	5149.3	
215.12	5212.8	
215.33	3256.3	
215.55	3526.6	
215.76	5483.1	
215.97	4896	
216.18	3109.5	
216.4	3170.9	
216.61	4400.4	
216.82	4958.1	
217.04	2925.2	
217.25	2949.1	
217.46	5144.5	
217.67	4947.2	
217.89	2634.4	
218.1	2678.7	
218.31	4702.1	
218.53	4784.1	
218.74	3054.9	
218.95	2904	
219.16	4652.3	
219.38	5316.5	
219.59	2892.4	
219.8	3409.9	
220.01	5725.4	
220.23	4677.6	
220.44	3701.4	
220.65	2800.9	
220.87	4751.3	
221.08	5094	
221.29	2661	
221.5	3412.6	
221.72	6036	
221.93	4405.9	
222.14	3216.7	
222.35	3723.2	
222.57	4657.1	
222.78	4940.4	
222.99	3145	
223.2	3321.1	
223.42	4842.1	
223.63	4981.3	
223.84	2465.8	
224.05	2452.1	
224.27	5597.1	
224.48	5242.1	
224.69	3741	
224.9	3201	
225.12	4794.3	
225.33	4665.3	
225.54	2652.8	
225.75	2932.7	
225.97	4383.3	
226.18	4584	
226.39	3041.2	
226.6	2921.8	
226.82	4508.3	
227.03	4368.3	
227.24	3157.3	
227.45	2706.7	
227.67	4923.3	
227.88	5303.6	
228.09	3546.4	
228.3	3581.2	
228.52	4927.4	
228.73	4631.1	
228.94	2996.9	
229.15	2711.5	
229.36	4611.3	
229.58	4626.4	
229.79	3076	
230	3468.6	
230.21	5450.3	
230.43	4624.3	
230.64	3205.8	
230.85	3239.2	
231.06	5000.5	
231.28	4990.2	
231.49	2740.2	
231.7	3158.7	
231.91	4968.4	
232.12	4645.5	
232.34	2817.3	
232.55	3134.8	
232.76	5056.4	
232.97	4721.3	
233.18	2852.8	
233.4	3138.9	
233.61	4835.3	
233.82	4530.8	
234.03	3035.8	
234.25	2960	
234.46	6115.2	
234.67	4715.8	
234.88	3244.7	
235.09	2878.8	
235.31	4796.3	
235.52	4614.8	
235.73	3212.6	
235.94	2727.2	
236.15	4474.8	
236.37	5445.5	
236.58	2851.5	
236.79	3142.3	
237	4909	
237.21	4245.4	
237.43	3317.7	
237.64	2662.4	
237.85	7557.7	
238.06	4339.6	
238.27	3272	
238.48	2828.2	
238.7	4900.8	
238.91	4542.4	
239.12	3059.7	
239.33	3200.3	
239.54	4407.9	
239.76	4581.3	
239.97	3080.1	
240.18	3106.1	
240.39	5532.2	
240.6	4807.3	
240.82	3257	
241.03	2710.8	
241.24	4657.8	
241.45	5228.5	
241.66	2784.6	
241.87	3317.7	
242.09	5229.1	
242.3	5412.1	
242.51	3317	
242.72	3078.8	
242.93	4950.6	
243.14	4549.9	
243.36	3495.9	
243.57	3729.4	
243.78	5240.1	
243.99	4904.2	
244.2	3080.1	
244.41	2767.5	
244.63	4319.8	
244.84	4883.7	
245.05	3235.1	
245.26	3071.3	
245.47	4926.7	
245.68	4955.4	
245.9	3897.3	
246.11	3195.5	
246.32	4520.5	
246.53	4847.5	
246.74	4755.4	
246.95	2648	
247.16	4406.5	
247.38	4672.8	
247.59	2729.3	
247.8	3121.8	
248.01	4326	
248.22	4641.4	
248.43	2835.1	
248.64	3017.3	
248.86	4285.7	
249.07	4446.1	
249.28	2798.2	
249.49	3149.8	
249.7	5033.9	
249.91	5087.2	
250.12	2708.8	
250.34	2687.6	
250.55	4787.5	
250.76	4658.4	
250.97	3163.4	
251.18	3214.6	
251.39	5083.7	
251.6	4750.6	
251.81	3263.1	
252.03	3184.6	
252.24	4481.6	
252.45	5007.3	
252.66	2752.5	
252.87	3303.4	
253.08	4692.6	
253.29	5797.1	
253.5	2756.6	
253.72	3673.4	
253.93	4547.9	
254.14	5320.6	
254.35	2975	
254.56	3037.8	
254.77	4812	
254.98	4405.9	
255.19	2954.5	
255.41	3665.9	
255.62	4817.5	
255.83	5116.5	
256.04	3252.9	
256.25	3155.9	
256.46	5578.7	
256.67	4455.7	
256.88	3186.6	
257.09	3502	
257.31	4360.8	
257.52	4433.2	
257.73	3891.8	
257.94	2989.4	
258.15	4609.3	
258.36	4681.7	
258.57	3603.7	
258.78	2469.9	
258.99	5038.7	
259.2	4547.2	
259.41	2947	
259.63	3054.2	
259.84	5232.6	
260.05	5495.4	
260.26	3761.4	
260.47	2911.5	
260.68	5086.5	
260.89	4590.9	
261.1	3507.5	
261.31	2854.9	
261.52	5098.8	
261.73	5309.7	
261.95	3731.4	
262.16	3308.2	
262.37	5154.1	
262.58	5232.6	
262.79	3711.6	
263	2981.8	
263.21	4655	
263.42	4194.2	
263.63	3303.4	
263.84	2991.4	
264.05	5079	
264.26	5253.7	
264.47	3590.8	
264.69	3229.6	
264.9	5208	
265.11	4846.9	
265.32	2869.9	
265.53	2963.4	
265.74	4734.9	
265.95	4239.3	
266.16	3135.4	
266.37	3394.8	
266.58	4775.9	
266.79	4498	
267	2996.9	
267.21	2797.5	
267.42	4327.4	
267.63	4698	
267.84	3091.8	
268.06	2692.4	
268.27	5024.3	
268.48	5113.8	
268.69	3019.4	
268.9	3487	
269.11	5139	
269.32	4227	
269.53	3077.4	
269.74	2874	
269.95	4829.8	
270.16	4171	
270.37	3109.5	
270.58	3528	
270.79	4549.2	
271	5072.8	
271.21	3249.4	
271.42	3184.6	
271.63	4852.3	
271.84	4303.5	
272.05	2570.9	
272.26	2774.3	
272.47	4631.8	
272.68	4772.4	
272.89	3045.3	
273.11	3301.3	
273.32	4497.3	
273.53	5227.1	
273.74	3338.2	
273.95	3215.3	
274.16	4949.9	
274.37	4672.8	
274.58	3388.7	
274.79	2763.4	
275	4799.8	
275.21	5061.9	
275.42	3912.3	
275.63	3371.6	
275.84	4855.1	
276.05	5937.7	
276.26	3276.7	
276.47	3048.7	
276.68	4616.1	
276.89	5461.2	
277.1	3407.8	
277.31	2792.7	
277.52	4807.3	
277.73	5104.9	
277.94	2712.9	
278.15	3048.7	
278.36	4830.5	
278.57	4409.3	
278.78	2985.9	
278.99	3327.9	
279.2	4464.6	
279.41	4350.6	
279.62	3824.9	
279.83	2776.4	
280.04	5527.5	
280.25	4390.8	
280.46	3801	
280.67	3110.9	
280.88	4412.7	
281.09	5094	
281.3	3238.5	
281.51	3994.2	
281.72	4486.4	
281.93	5008	
282.14	2904	
282.35	3164.1	
282.56	5094	
282.77	4958.8	
282.98	3024.2	
283.19	3558	
283.4	5885.9	
283.61	4647.5	
283.82	2821.4	
284.03	3715.7	
284.24	4784.7	
284.45	5038.7	
284.66	3759.4	
284.87	3584.6	
285.08	5095.3	
285.29	5205.9	
285.5	2710.1	
285.71	3041.9	
285.92	5102.2	
286.12	5547.9	
286.33	3697.3	
286.54	3005.1	
286.75	4990.9	
286.96	4595.6	
287.17	2788	
287.38	3618.1	
287.59	4470	
287.8	4467.3	
288.01	3095.8	
288.22	3394.2	
288.43	4886.5	
288.64	4219.5	
288.85	3525.2	
289.06	3353.9	
289.27	4990.2	
289.48	5273.5	
289.69	3802.4	
289.9	3439.9	
290.11	5117.2	
290.32	4512.4	
290.53	3607.8	
290.74	3286.3	
290.94	4992.3	
291.15	4997.7	
291.36	2892.4	
291.57	3374.4	
291.78	4487.1	
291.99	4237.9	
292.2	2824.8	
292.41	3325.9	
292.62	5044.8	
292.83	4887.1	
293.04	4000.4	
293.25	2882.9	
293.46	4567.7	
293.67	5069.4	
293.88	2881.5	
294.09	2836.4	
294.29	4371.7	
294.5	4801.8	
294.71	3128.6	
294.92	3026.9	
295.13	4526	
295.34	5449	
295.55	2693.1	
295.76	2644.6	
295.97	4944.5	
296.18	5427.8	
296.39	2835.8	
296.6	2910.2	
296.81	4785.4	
297.01	4953.4	
297.22	3039.2	
297.43	2944.3	
297.64	4530.8	
297.85	4371.7	
298.06	2486.9	
298.27	2674	
298.48	4643.4	
298.69	4493.9	
298.9	3127.9	
299.11	2891	
299.31	4332.1	
299.52	4326.7	
299.73	3332	
299.94	3257	
300.15	4731.5	
300.36	4397	
300.57	3289	
300.78	3231	
300.99	4519.2	
301.2	4670.1	
301.4	2971.6	
301.61	3111.5	
301.82	4922.6	
302.03	4995	
302.24	3479.5	
302.45	2777.7	
302.66	4900.1	
302.87	5104.2	
303.08	2942.9	
303.29	3863.2	
303.49	4512.4	
303.7	4635.9	
303.91	2653.5	
304.12	3670	
304.33	4298	
304.54	4785.4	
304.75	2949.1	
304.96	2857.6	
305.16	4959.5	
305.37	5369.8	
305.58	2585.9	
305.79	2719	
306	4900.1	
306.21	4221.5	
306.42	2950.4	
306.63	4206.5	
306.83	4556.7	
307.04	4997.7	
307.25	3198.9	
307.46	3119.7	
307.67	4155.3	
307.88	4880.3	
308.09	2906.8	
308.29	2975	
308.5	4756.7	
308.71	5044.8	
308.92	3072	
309.13	2837.8	
309.34	4648.9	
309.55	4547.2	
309.75	3594.2	
309.96	3270.6	
310.17	4944.5	
310.38	4390.2	
310.59	3390.1	
310.8	2806.4	
311.01	4848.2	
311.21	4617.5	
311.42	2871.9	
311.63	2922.5	
311.84	4467.3	
312.05	4695.3	
312.26	3249.4	
312.46	3480.9	
312.67	4493.2	
312.88	4298	
313.09	2845.3	
313.3	2785.9	
313.51	5203.9	
313.71	5510.4	
313.92	2859.6	
314.13	2976.4	
314.34	4788.8	
314.55	4646.8	
314.76	3490.4	
314.96	3140.9	
315.17	4814.8	
315.38	4825.7	
315.59	2878.8	
315.8	2749.1	
316.01	5188.9	
316.21	5287.2	
316.42	2847.4	
316.63	3131.3	
316.84	4549.9	
317.05	5136.3	
317.26	3327.9	
317.46	3007.1	
317.67	4619.5	
317.88	4939	
318.09	3491.8	
318.3	2661.7	
318.5	4514.4	
318.71	4803.2	
318.92	4341.7	
319.13	3309.5	
319.34	5024.3	
319.54	5152	
319.75	2716.3	
319.96	2558.6	
320.17	4906.3	
320.38	5018.9	
320.58	2651.4	
320.79	3054.2	
321	5109	
321.21	5101.5	
321.42	3173	
321.62	2648.7	
321.83	4435.2	
322.04	4689.8	
322.25	3022.1	
322.46	2840.5	
322.66	4730.8	
322.87	4897.4	
323.08	3437.2	
323.29	2775.7	
323.5	5448.3	
323.7	4354	
323.91	3719.1	
324.12	3410.6	
324.33	4749.2	
324.53	4935.6	
324.74	3275.4	
324.95	3368.9	
325.16	4244.8	
325.37	4535.6	
325.57	2813.9	
325.78	2894.5	
325.99	4857.1	
326.2	4259.1	
326.4	3858.4	
326.61	2692.4	
326.82	4632.5	
327.03	4721.9	
327.24	3908.2	
327.44	3654.9	
327.65	4932.2	
327.86	4067.9	
328.07	3259.7	
328.27	2798.2	
328.48	5122	
328.69	4338.3	
328.9	3932.8	
329.1	2988.7	
329.31	4590.9	
329.52	5177.9	
329.73	2850.8	
329.93	3083.6	
330.14	4716.5	
330.35	4803.2	
330.56	4450.2	
330.76	3448.8	
330.97	4613.4	
331.18	4787.5	
331.39	3117	
331.59	2602.3	
331.8	5093.3	
332.01	5225.7	
332.22	2904	
332.42	3286.3	
332.63	4790.9	
332.84	4402.5	
333.05	3125.9	
333.25	2883.5	
333.46	4476.2	
333.67	4633.2	
333.88	3020.1	
334.08	3211.9	
334.29	5960.3	
334.5	5100.1	
334.7	2867.8	
334.91	3854.3	
335.12	4311	
335.33	4903.5	
335.53	3142.9	
335.74	4343.1	
335.95	4577.9	
336.16	4321.9	
336.36	3128.6	
336.57	3553.9	
336.78	4306.2	
336.98	5053	
337.19	3795.6	
337.4	3103.4	
337.61	5496.7	
337.81	4293.9	
338.02	2960.7	
338.23	3663.8	
338.43	5251	
338.64	4450.2	
338.85	2887.6	
339.05	3664.5	
339.26	5254.4	
339.47	4237.9	
339.68	2871.9	
339.88	4034.5	
340.09	4898.1	
340.3	5003.2	
340.5	3281.5	
340.71	2617.3	
340.92	4349.9	
341.13	5125.4	
341.33	2738.8	
341.54	3267.2	
341.75	4800.4	
341.95	4515.1	
342.16	3190.7	
342.37	3406.5	
342.57	4360.1	
342.78	4554	
342.99	3411.9	
343.19	2634.4	
343.4	5003.9	
343.61	4822.3	
343.81	3064.4	
344.02	2778.4	
344.23	4955.4	
344.43	5203.9	
344.64	3494.5	
344.85	3375.1	
345.06	4887.8	
345.26	5083.1	
345.47	3273.3	
345.68	3687	
345.88	4255	
346.09	4975.2	
346.3	3290.4	
346.5	2508.1	
346.71	4573.1	
346.92	4421.6	
347.12	2739.5	
347.33	3194.1	
347.54	5047.6	
347.74	5272.8	
347.95	3253.5	
348.16	2540.2	
348.36	4536.9	
348.57	4367.6	
348.78	3267.2	
348.98	3426.3	
349.19	4617.5	
349.39	4202.4	
349.6	2740.9	
349.81	2876	
350.01	4900.8	
350.22	4397	
350.43	3167.5	
350.63	3665.9	
350.84	4677.6	
351.05	4463.2	
351.25	2913.6	
351.46	2675.3	
351.67	4972.5	
351.87	4385.4	
352.08	3072	
352.29	3423.5	
352.49	4966.3	
352.7	4954	
352.9	2766.1	
353.11	3371	
353.32	5401.2	
353.52	4497.3	
353.73	2756.6	
353.94	3428.3	
354.14	4855.1	
354.35	4665.3	
354.55	2897.2	
354.76	3065.8	
354.97	4817.5	
355.17	4573.1	
355.38	2736.1	
355.59	3547.8	
355.79	4377.2	
356	4612.7	
356.2	3039.2	
356.41	2790	
356.62	4275.5	
356.82	4552.6	
357.03	3300	
357.24	3033.7	
357.44	4384	
357.65	4467.3	
357.85	3861.8	
358.06	3153.2	
358.27	4184.7	
358.47	4263.2	
358.68	2661.7	
358.88	3290.4	
359.09	4730.1	
359.3	4970.4	
359.5	3687.7	
359.71	3372.3	
359.91	5276.3	
360.12	4756.1	
360.33	3248.1	
360.53	3562.1	
360.74	4346.5	
360.94	4381.3	
361.15	3422.8	
361.36	2919.7	
361.56	4961.5	
361.77	4545.8	
361.97	3704.8	
362.18	2971.6	
362.38	4965	
362.59	4274.8	
362.8	2847.4	
363	2671.2	
363.21	4089.1	
363.41	4593.6	
363.62	3158	
363.83	3816	
364.03	4686.4	
364.24	5281.7	
364.44	3964.2	
364.65	3890.5	
364.85	4507.6	
365.06	4268	
365.27	2919	
365.47	2966.1	
365.68	5199.1	
365.88	4524.6	
366.09	3222.8	
366.29	2955.2	
366.5	4582.7	
366.71	4942.4	
366.91	3876.8	
367.12	3282.9	
367.32	5384.1	
367.53	4837.3	
367.73	3287.7	
367.94	3987.4	
368.14	4866.7	
368.35	5368.4	
368.56	3251.5	
368.76	2813.2	
368.97	4929.5	
369.17	6037.4	
369.38	2880.1	
369.58	3086.3	
369.79	4181.3	
369.99	5174.5	
370.2	3799	
370.4	3163.4	
370.61	4664.6	
370.82	5508.4	
371.02	3138.9	
371.23	2652.8	
371.43	4147.1	
371.64	5145.9	
371.84	3050.1	
372.05	3833.8	
372.25	5909.8	
372.46	4762.2	
372.66	3099.3	
372.87	3053.5	
373.07	4889.9	
373.28	6065.4	
373.48	3736.9	
373.69	3506.1	
373.9	4509.6	
374.1	4503.5	
374.31	3730	
374.51	3333.4	
374.72	5083.1	
374.92	4301.4	
375.13	3798.3	
375.33	3228.3	
375.54	4712.4	
375.74	4387.4	
375.95	3280.2	
376.15	4135.5	
376.36	4797.7	
376.56	4650.9	
376.77	3294.5	
376.97	3581.2	
377.18	5526.8	
377.38	4800.4	
377.59	3716.4	
377.79	2969.6	
378	4645.5	
378.2	4917.9	
378.41	3080.1	
378.61	2917	
378.82	5060.5	
379.02	4417.5	
379.23	3123.2	
379.43	3856.3	
379.64	5130.2	
379.84	4785.4	
380.05	2980.5	
380.25	2921.1	
380.46	4807.9	
380.66	4530.8	
380.87	3890.5	
381.07	4158.7	
381.28	5240.1	
381.48	4851	
381.69	2973	
381.89	3077.4	
382.1	4138.3	
382.3	4856.4	
382.51	3805.8	
382.71	4392.9	
382.91	4782	
383.12	5171.1	
383.32	3299.3	
383.53	3426.3	
383.73	4759.5	
383.94	4622.9	
384.14	3422.8	
384.35	2775	
384.55	4519.9	
384.76	4857.1	
384.96	3328.6	
385.17	3499.3	
385.37	4867.3	
385.58	4289.8	
385.78	3527.3	
385.98	2781.8	
386.19	4526.7	
386.39	4764.9	
386.6	3127.2	
386.8	3259.7	
387.01	4847.5	
387.21	4940.4	
387.42	3515.7	
387.62	3899.3	
387.83	4402.5	
388.03	4670.7	
388.23	3308.2	
388.44	3869.3	
388.64	4177.9	
388.85	4191.5	
389.05	3521.1	
389.26	3938.9	
389.46	5694	
389.67	5131.5	
389.87	3504.8	
390.07	3576.4	
390.28	4569.7	
390.48	4257	
390.69	2943.6	
390.89	3201	
391.1	4431.1	
391.3	5040.1	
391.5	4027.7	
391.71	4407.9	
391.91	4872.8	
392.12	5491.3	
392.32	4123.2	
392.53	3553.2	
392.73	4515.1	
392.93	4573.1	
393.14	3334.1	
393.34	3813.3	
393.55	4992.3	
393.75	4558.1	
393.95	3321.8	
394.16	3253.5	
394.36	4469.4	
394.57	4943.8	
394.77	2964.8	
394.98	3172.3	
395.18	4401.8	
395.38	4569	
395.59	3773.7	
395.79	3101.3	
396	4502.1	
396.2	4864.6	
396.4	3681.6	
396.61	3594.9	
396.81	4877.6	
397.02	4399.7	
397.22	3755.3	
397.42	3824.9	
397.63	4930.8	
397.83	4317.8	
398.04	3035.8	
398.24	3402.4	
398.44	4780	
398.65	4010.6	
398.85	2936.1	
399.05	2985.9	
399.26	4355.3	
399.46	5532.2	
399.67	3248.1	
399.87	3069.2	
400.07	4565.6	
400.28	4815.5	
400.48	3109.5	
400.69	3849.5	
400.89	4915.8	
401.09	5322	
401.3	3100.6	
401.5	3790.8	
401.7	5411.4	
401.91	5633.3	
402.11	3334.1	
402.32	3487	
402.52	5059.8	
402.72	4934.2	
402.93	3667.2	
403.13	2871.3	
403.33	5580.7	
403.54	4660.5	
403.74	3482.9	
403.94	4100	
404.15	4778.6	
404.35	5532.2	
404.56	3324.5	
404.76	4487.1	
404.96	5011.4	
405.17	4799.8	
405.37	4018.1	
405.57	3630.4	
405.78	5044.8	
405.98	4658.4	
406.18	3263.8	
406.39	3854.3	
406.59	5023.7	
406.79	4683	
407	3125.2	
407.2	3223.5	
407.4	5286.5	
407.61	5151.3	
407.81	3220.1	
408.01	4709.6	
408.22	4227.7	
408.42	5599.8	
408.62	3876.8	
408.83	3542.3	
409.03	4638.6	
409.23	4538.3	
409.44	3536.2	
409.64	3678.2	
409.84	5264.6	
410.05	5141.8	
410.25	3614.7	
410.45	3447.4	
410.66	4842.1	
410.86	6537.1	
411.06	3675.4	
411.27	3623.5	
411.47	6341.2	
411.67	4883.7	
411.88	3758	
412.08	3927.3	
412.28	5380.7	
412.49	5720.7	
412.69	3560.1	
412.89	3593.5	
413.09	5560.2	
413.3	5416.2	
413.5	3683.6	
413.7	3418.1	
413.91	5013.4	
414.11	5482.4	
414.31	3589.4	
414.52	3805.1	
414.72	5330.9	
414.92	5235.3	
415.12	3530	
415.33	3892.5	
415.53	5463.3	
415.73	5606.7	
415.94	4160.8	
416.14	3771	
416.34	4859.1	
416.55	4575.2	
416.75	4649.6	
416.95	4144.4	
417.15	5543.2	
417.36	5995.8	
417.56	4771.8	
417.76	4005.1	
417.97	5742.5	
418.17	5453.1	
418.37	3833.1	
418.57	3793.5	
418.78	5421	
418.98	5179.3	
419.18	4420.2	
419.38	4364.2	
419.59	5190.9	
419.79	4967	
419.99	3695.2	
420.2	3973.7	
420.4	5572.5	
420.6	5642.2	
420.8	3690.4	
421.01	3562.8	
421.21	5503.6	
421.41	5459.2	
421.61	3942.3	
421.82	3704.1	
422.02	5111	
422.22	5741.8	
422.42	4283	
422.63	4087.1	
422.83	5176.6	
423.03	6087.2	
423.23	4100.7	
423.44	3375.1	
423.64	5228.5	
423.84	5016.2	
424.04	3722.5	
424.25	3494.5	
424.45	5857.9	
424.65	5819.6	
424.85	3375.1	
425.06	3722.5	
425.26	6032	
425.46	5147.9	
425.66	4061.8	
425.87	3921.2	
426.07	5718.6	
426.27	5581.4	
426.47	4014.7	
426.67	3532.1	
426.88	6023.1	
427.08	5588.2	
427.28	4212	
427.48	3527.3	
427.69	4833.2	
427.89	5277.6	
428.09	4140.3	
428.29	3529.3	
428.5	5754.8	
428.7	5445.5	
428.9	3457	
429.1	3829.7	
429.3	5425.1	
429.51	5587.5	
429.71	3754.6	
429.91	4244.8	
430.11	5646.2	
430.31	5659.2	
430.52	3878.2	
430.72	4037.2	
430.92	5980.1	
431.12	5582.8	
431.32	3639.9	
431.53	4003.8	
431.73	4851	
431.93	6056.5	
432.13	3601.7	
432.33	3480.2	
432.54	5216.9	
432.74	5372.5	
432.94	3479.5	
433.14	4219.5	
433.34	5670.8	
433.55	5292.6	
433.75	4154.6	
433.95	5287.2	
434.15	5483.8	
434.35	5193	
434.56	3638.6	
434.76	3267.2	
434.96	5343.8	
435.16	5541.1	
435.36	3528.7	
435.56	4334.9	
435.77	5065.3	
435.97	5264	
436.17	4723.3	
436.37	4284.4	
436.57	5104.2	
436.78	5018.2	
436.98	4195.6	
437.18	4664.6	
437.38	5468.8	
437.58	5216.2	
437.78	4749.2	
437.99	3878.9	
438.19	5681.7	
438.39	6226.5	
438.59	3829.7	
438.79	3429	
438.99	6193.7	
439.2	5232.6	
439.4	3518.4	
439.6	3510.9	
439.8	5434.6	
440	6114.6	
440.2	4147.8	
440.4	4270	
440.61	5748	
440.81	6055.2	
441.01	3630.4	
441.21	4214.7	
441.41	6010.1	
441.61	5730.9	
441.81	4468.7	
442.02	5152.7	
442.22	6386.2	
442.42	5826.5	
442.62	3692.5	
442.82	3836.5	
443.02	6122.1	
443.22	5393	
443.43	4076.1	
443.63	3722.5	
443.83	5261.9	
444.03	5285.8	
444.23	4526.7	
444.43	4282.3	
444.63	5568.4	
444.83	6352.8	
445.04	3855	
445.24	4668.7	
445.44	5875.6	
445.64	5856.5	
445.84	4405.2	
446.04	4404.5	
446.24	5394.3	
446.44	6077	
446.65	3768.9	
446.85	4072.7	
447.05	5487.2	
447.25	6172.6	
447.45	4127.3	
447.65	3677.5	
447.85	5657.9	
448.05	5320.6	
448.25	4399.7	
448.46	4321.2	
448.66	5644.9	
448.86	5361.6	
449.06	3619.4	
449.26	4431.1	
449.46	5832.6	
449.66	5186.1	
449.86	4100.7	
450.06	4085	
450.26	5333.6	
450.47	5756.2	
450.67	4259.8	
450.87	4476.9	
451.07	5950.7	
451.27	5621	
451.47	3819.5	
451.67	4449.6	
451.87	5402.5	
452.07	6291.4	
452.27	3898.6	
452.47	4004.5	
452.67	5715.9	
452.88	5928.9	
453.08	3516.4	
453.28	4890.5	
453.48	6495.5	
453.68	5635.3	
453.88	3936.2	
454.08	4030.4	
454.28	5958.9	
454.48	5615.5	
454.68	4440.7	
454.88	4728.8	
455.08	6030.6	
455.28	5657.9	
455.48	3792.2	
455.68	4203.1	
455.89	6332.3	
456.09	6025.1	
456.29	4070	
456.49	4124.6	
456.69	6194.4	
456.89	5736.4	
457.09	4496.7	
457.29	4711	
457.49	5982.1	
457.69	5956.9	
457.89	4297.3	
458.09	3861.1	
458.29	5735	
458.49	6244.3	
458.69	4602.5	
458.89	4173.1	
459.09	6389	
459.29	6525.5	
459.49	4309.6	
459.69	4765.6	
459.9	6161	
460.1	5753.4	
460.3	4199	
460.5	4062.5	
460.7	6100.2	
460.9	5776.6	
461.1	3789.4	
461.3	4689.2	
461.5	6561	
461.7	6301.6	
461.9	4072.7	
462.1	4450.9	
462.3	5813.5	
462.5	6261.3	
462.7	4154.6	
462.9	4152.6	
463.1	6989.7	
463.3	6719.4	
463.5	4390.2	
463.7	4997	
463.9	6107	
464.1	6288.6	
464.3	4407.2	
464.5	4603.8	
464.7	6460	
464.9	6204.7	
465.1	5542.5	
465.3	4855.7	
465.5	6692.8	
465.7	6687.3	
465.9	5003.9	
466.1	4853	
466.3	6477.7	
466.5	6481.8	
466.7	5416.9	
466.9	4777.9	
467.1	6528.2	
467.3	7111.2	
467.5	5421	
467.7	4673.5	
467.9	7299	
468.1	7823.2	
468.3	5195	
468.5	5570.5	
468.7	6408.1	
468.9	6303.6	
469.1	4967.7	
469.3	5397.8	
469.5	7746.1	
469.7	6016.2	
469.9	5347.9	
470.1	4766.3	
470.3	6559	
470.5	6531	
470.7	5743.2	
470.9	4878.3	
471.1	6341.9	
471.3	6653.2	
471.5	4684.4	
471.69	6034	
471.89	6350.1	
472.09	5923.4	
472.29	5240.8	
472.49	5502.9	
472.69	6090.7	
472.89	6570.6	
473.09	4628.4	
473.29	4771.1	
473.49	6262.7	
473.69	6286.6	
473.89	5418.2	
474.09	4872.1	
474.29	7168.6	
474.49	6890	
474.69	5420.3	
474.89	4966.3	
475.09	6360.3	
475.29	6328.9	
475.49	4607.9	
475.69	4814.8	
475.88	7429.3	
476.08	6623.8	
476.28	4549.2	
476.48	4844.1	
476.68	6968.6	
476.88	6724.2	
477.08	4766.3	
477.28	5011.4	
477.48	6423.8	
477.68	6798.6	
477.88	4633.9	
478.08	4880.3	
478.28	7077.8	
478.48	6567.2	
478.67	4969.1	
478.87	4476.9	
479.07	6950.8	
479.27	6592.4	
479.47	5042.8	
479.67	5087.2	
479.87	6857.3	
480.07	7156.3	
480.27	4573.8	
480.47	5617.6	
480.67	6622.4	
480.87	7072.3	
481.06	4713.7	
481.26	5347.2	
481.46	6653.9	
481.66	6520.7	
481.86	5154.7	
482.06	5815.5	
482.26	6406	
482.46	7033.4	
482.66	5099.4	
482.86	4766.3	
483.05	6727.6	
483.25	6176.7	
483.45	6851.8	
483.65	5035.3	
483.85	6302.3	
484.05	6543.3	
484.25	5315.8	
484.45	5708.4	
484.65	7102.4	
484.84	7111.2	
485.04	4995	
485.24	5029.8	
485.44	7419.1	
485.64	6148	
485.84	4516.5	
486.04	5503.6	
486.24	6402.6	
486.44	6705.7	
486.63	4532.8	
486.83	5096.7	
487.03	6457.9	
487.23	6501.6	
487.43	4668.7	
487.63	6221	
487.83	6580.8	
488.02	7190.4	
488.22	5289.9	
488.42	5709.1	
488.62	7281.2	
488.82	6431.3	
489.02	5086.5	
489.22	5090.6	
489.41	7088	
489.61	6903.7	
489.81	4914.4	
490.01	4851	
490.21	7054.6	
490.41	7606.2	
490.61	4843.4	
490.8	4967.7	
491	6799.9	
491.2	6343.9	
491.4	5371.1	
491.6	4796.3	
491.8	6810.9	
491.99	6905.1	
492.19	4758.8	
492.39	4958.1	
492.59	7056.6	
492.79	7108.5	
492.99	5526.1	
493.18	4872.1	
493.38	7177.4	
493.58	7629.4	
493.78	5332.9	
493.98	5031.2	
494.18	6961.7	
494.37	6550.8	
494.57	5543.2	
494.77	5490.6	
494.97	7126.2	
495.17	7315.3	
495.37	5171.1	
495.56	5378	
495.76	7425.9	
495.96	7312.6	
496.16	6094.8	
496.36	5412.8	
496.55	7445.7	
496.75	6996.5	
496.95	5683.1	
497.15	5542.5	
497.35	7475.8	
497.54	7348.8	
497.74	5418.2	
497.94	6625.9	
498.14	7963.9	
498.34	7631.4	
498.53	5198.4	
498.73	5675.6	
498.93	6897.6	
499.13	7391.1	
499.33	5589.6	
499.52	5959.6	
499.72	7433.4	
499.92	7510.6	
500.12	5375.9	
500.32	5599.8	
500.51	7464.8	
500.71	7359	
500.91	6177.4	
501.11	5896.8	
501.31	7578.8	
501.5	7858.7	
501.7	6417.7	
501.9	5740.5	
502.1	7368.6	
502.29	7663.5	
502.49	6005.3	
502.69	6300.9	
502.89	7584.3	
503.09	7541.3	
503.28	5387.5	
503.48	5389.6	
503.68	7105.1	
503.88	7034.8	
504.07	6023.1	
504.27	5725.4	
504.47	7297.6	
504.67	7386.3	
504.86	6072.9	
505.06	5827.8	
505.26	7166.5	
505.46	8303.1	
505.65	5779.4	
505.85	5940.5	
506.05	7182.9	
506.25	7476.5	
506.44	5334.3	
506.64	5995.8	
506.84	7052.5	
507.04	7546.8	
507.23	5406	
507.43	5838.1	
507.63	8406.9	
507.83	7087.3	
508.02	5848.3	
508.22	5584.1	
508.42	8593.3	
508.62	6976.1	
508.81	5709.1	
509.01	6165.1	
509.21	6955.6	
509.4	7215	
509.6	5915.9	
509.8	5501.5	
510	7134.4	
510.19	8058.8	
510.39	5299.5	
510.59	5487.2	
510.79	6972.7	
510.98	7982.3	
511.18	5560.9	
511.38	5689.9	
511.57	7677.2	
511.77	7417.1	
511.97	6131.6	
512.17	5542.5	
512.36	7567.2	
512.56	7537.2	
512.76	5440.8	
512.95	5333.6	
513.15	7793.2	
513.35	6583.5	
513.55	5999.9	
513.74	5480.4	
513.94	7544	
514.14	7185.6	
514.33	6144.6	
514.53	6039.5	
514.73	7220.5	
514.92	7295.5	
515.12	5498.1	
515.32	5466	
515.51	7333.8	
515.71	7613.7	
515.91	6640.2	
516.11	5454.4	
516.3	8479.3	
516.5	7111.9	
516.7	5962.3	
516.89	6242.9	
517.09	7204.1	
517.29	7277.8	
517.48	6103.6	
517.68	5702.2	
517.88	6929.6	
518.07	7441	
518.27	6068.1	
518.47	5328.8	
518.66	7862.2	
518.86	6907.1	
519.06	5247.6	
519.25	5567.1	
519.45	7004.7	
519.65	8111.3	
519.84	6079.7	
520.04	6492.1	
520.24	8419.2	
520.43	7557.7	
520.63	5889.3	
520.83	5769.1	
521.02	7135.1	
521.22	7561.1	
521.42	6097.5	
521.61	6438.1	
521.81	7256.6	
522.01	7361.8	
522.2	5905	
522.4	5683.8	
522.6	7673.7	
522.79	6757.6	
522.99	5790.3	
523.18	5259.2	
523.38	7421.2	
523.58	7340.6	
523.77	6575.3	
523.97	5322	
524.17	8623.3	
524.36	8150.2	
524.56	6240.2	
524.76	6056.5	
524.95	7447.8	
525.15	7176.8	
525.34	5975.3	
525.54	5977.3	
525.74	7765.9	
525.93	7088	
526.13	6770.6	
526.33	5959.6	
526.52	8090.8	
526.72	7598.6	
526.91	6900.3	
527.11	6320.7	
527.31	7966.6	
527.5	8364.6	
527.7	6289.3	
527.89	5588.9	
528.09	7309.2	
528.29	7626.6	
528.48	6523.5	
528.68	6233.3	
528.87	7987.1	
529.07	8060.8	
529.27	6277	
529.46	6038.1	
529.66	7873.8	
529.85	8082	
530.05	5912.5	
530.25	6414.2	
530.44	8778.3	
530.64	7752.2	
530.83	6196.5	
531.03	6313.9	
531.23	8121.6	
531.42	7830.1	
531.62	6750.1	
531.81	6175.3	
532.01	8106.5	
532.21	8366	
532.4	6102.3	
532.6	6343.9	
532.79	8720.3	
532.99	8098.4	
533.18	6442.2	
533.38	7108.5	
533.58	7929.7	
533.77	8373.5	
533.97	6444.3	
534.16	6981.5	
534.36	8600.1	
534.55	7937.2	
534.75	7122.8	
534.95	6507.1	
535.14	8645.8	
535.34	7906.5	
535.53	6234.7	
535.73	7563.1	
535.92	8953	
536.12	8100.4	
536.31	6374	
536.51	7167.2	
536.71	8337.3	
536.9	7948.8	
537.1	6440.2	
537.29	6504.3	
537.49	8531.8	
537.68	7942	
537.88	6767.9	
538.07	6158.2	
538.27	8075.1	
538.46	8807.6	
538.66	6184.2	
538.86	6471.6	
539.05	8184.4	
539.25	8331.8	
539.44	6767.9	
539.64	6363.7	
539.83	8039	
540.03	8821.3	
540.22	6416.3	
540.42	6482.5	
540.61	8271.1	
540.81	8255.4	
541	6739.2	
541.2	7195.9	
541.39	7873.1	
541.59	8229.4	
541.78	6948.1	
541.98	6340.5	
542.18	7718.8	
542.37	7662.8	
542.57	6742.6	
542.76	6950.1	
542.96	7816.4	
543.15	8154.3	
543.35	6716	
543.54	6184.2	
543.74	8431.5	
543.93	8129.8	
544.13	6748.1	
544.32	7400	
544.52	8398.7	
544.71	7754.3	
544.91	5967.8	
545.1	6774.7	
545.3	7742.7	
545.49	8185	
545.69	5891.3	
545.88	6364.4	
546.08	8938.7	
546.27	8594.6	
546.47	6709.1	
546.66	6236.7	
546.86	8364.6	
547.05	8746.2	
547.24	6351.4	
547.44	6178	
547.63	7745.4	
547.83	8448.6	
548.02	6559.6	
548.22	6653.9	
548.41	7487.4	
548.61	8498.4	
548.8	6250.4	
549	6229.2	
549.19	8116.8	
549.39	8299.7	
549.58	6062.7	
549.78	6450.4	
549.97	8306.6	
550.17	7864.9	
550.36	6950.8	
550.55	7653.9	
550.75	7851.2	
550.94	8450.6	
551.14	6139.8	
551.33	6427.9	
551.53	7482.6	
551.72	8088.8	
551.92	6423.8	
552.11	6252.4	
552.31	8273.8	
552.5	8147.5	
552.69	7452.6	
552.89	6008.7	
553.08	8073.1	
553.28	7894.9	
553.47	6291.4	
553.67	7021.1	
553.86	8646.5	
554.06	7370	
554.25	5684.5	
554.44	6112.5	
554.64	9088.9	
554.83	8757.8	
555.03	6126.2	
555.22	6448.4	
555.42	8333.9	
555.61	8094.3	
555.8	6268.8	
556	6457.9	
556.19	7464.2	
556.39	8307.9	
556.58	6324.1	
556.78	6223.1	
556.97	8052.6	
557.16	7751.6	
557.36	7098.3	
557.55	6049.7	
557.75	7281.2	
557.94	8567.3	
558.13	6089.3	
558.33	5915.9	
558.52	8350.9	
558.72	7561.1	
558.91	6068.8	
559.1	6276.3	
559.3	7379.5	
559.49	7247.8	
559.69	5819.6	
559.88	6406.7	
560.07	7882.6	
560.27	8256.7	
560.46	6526.2	
560.66	6632.7	
560.85	7905.8	
561.04	7214.3	
561.24	6061.3	
561.43	6127.5	
561.63	7446.4	
561.82	7705.1	
562.01	7000	
562.21	6301.6	
562.4	7942.7	
562.59	8540.7	
562.79	6240.8	
562.98	5995.8	
563.18	7822.6	
563.37	8852.7	
563.56	6511.9	
563.76	5905.7	
563.95	7538.6	
564.14	7477.8	
564.34	6331	
564.53	6049	
564.73	7927	
564.92	8111.3	
565.11	6367.8	
565.31	5846.3	
565.5	8352.3	
565.69	7479.9	
565.89	6062.7	
566.08	6245.6	
566.27	8193.9	
566.47	8461.5	
566.66	6827.2	
566.85	5830.6	
567.05	7934.5	
567.24	7592.5	
567.44	6095.4	
567.63	6986.3	
567.82	8194.6	
568.02	7827.3	
568.21	6025.1	
568.4	6220.4	
568.6	7836.2	
568.79	7775.5	
568.98	5891.3	
569.18	6101.6	
569.37	7901.1	
569.56	9146.2	
569.76	6329.6	
569.95	7060.7	
570.14	8162.5	
570.34	8019.2	
570.53	6030.6	
570.72	5961.6	
570.91	8548.9	
571.11	7810.3	
571.3	6464.8	
571.49	6993.1	
571.69	7969.3	
571.88	7548.1	
572.07	6701.6	
572.27	6690.7	
572.46	7620.5	
572.65	8264.2	
572.85	6235.4	
573.04	6421.7	
573.23	8517.5	
573.43	7911.3	
573.62	6053.1	
573.81	6535.1	
574	8017.1	
574.2	7793.9	
574.39	6301.6	
574.58	6425.8	
574.78	8637	
574.97	7996	
575.16	6703	
575.36	6776.7	
575.55	8483.4	
575.74	8478.6	
575.93	6130.3	
576.13	6810.9	
576.32	7991.2	
576.51	8353.7	
576.71	6405.4	
576.9	7367.2	
577.09	8617.2	
577.28	8226.7	
577.48	6793.8	
577.67	6090.7	
577.86	8025.3	
578.05	8236.2	
578.25	6521.4	
578.44	6651.1	
578.63	8103.1	
578.83	8910.7	
579.02	6166.4	
579.21	7238.9	
579.4	8282.7	
579.6	8052.6	
579.79	6705.7	
579.98	8187.1	
580.17	8541.4	
580.37	8674.5	
580.56	6310.5	
580.75	6825.2	
580.94	8709.3	
581.14	8782.4	
581.33	7208.2	
581.52	6363	
581.71	8431.5	
581.91	8923.7	
582.1	6221	
582.29	6582.2	
582.48	8161.2	
582.68	8147.5	
582.87	6954.2	
583.06	6741.9	
583.25	8454.7	
583.45	7895.6	
583.64	7121.5	
583.83	7546.8	
584.02	8197.3	
584.21	8402.8	
584.41	7135.8	
584.6	6627.9	
584.79	8213	
584.98	8646.5	
585.18	6313.9	
585.37	6340.5	
585.56	8028.7	
585.75	8512.7	
585.94	6470.2	
586.14	6900.3	
586.33	8854.1	
586.52	8131.8	
586.71	6848.4	
586.91	6590.4	
587.1	7772	
587.29	8509.3	
587.48	6571.9	
587.67	6442.9	
587.87	8426.7	
588.06	8335.9	
588.25	7406.8	
588.44	6889.4	
588.63	8109.3	
588.83	8566	
589.02	6558.3	
589.21	6447	
589.4	8072.4	
589.59	7976.2	
589.78	6002.6	
589.98	6129.6	
590.17	7715.4	
590.36	7994.6	
590.55	5735.7	
590.74	6262.7	
590.94	8893	
591.13	7879.9	
591.32	6048.3	
591.51	5677.7	
591.7	8097	
591.89	7645.7	
592.09	5720	
592.28	6077	
592.47	7211.6	
592.66	8684.1	
592.85	5831.9	
593.05	5893.4	
593.24	7726.3	
593.43	8305.9	
593.62	6038.1	
593.81	6394.4	
594	7700.4	
594.19	7808.2	
594.39	5985.5	
594.58	5879	
594.77	7937.2	
594.96	8348.2	
595.15	5991	
595.34	6348.7	
595.54	7892.2	
595.73	7311.9	
595.92	5531.6	
596.11	6269.5	
596.3	8301.1	
596.49	7391.8	
596.68	6105.7	
596.88	6438.1	
597.07	8086.7	
597.26	7190.4	
597.45	5750	
597.64	6481.1	
597.83	7484	
598.02	7879.2	
598.22	5743.9	
598.41	6251.1	
598.6	7746.1	
598.79	7326.3	
598.98	5848.3	
599.17	6510.5	
599.36	7778.2	
599.55	8497.7	
599.74	7184.3	
599.94	6997.9	
600.13	8119.5	
600.32	7290.8	
600.51	5576.6	
600.7	5725.4	
600.89	8576.2	
601.08	8630.8	
601.27	5583.4	
601.47	6287.9	
601.66	8054.7	
601.85	8462.2	
602.04	6105	
602.23	5977.3	
602.42	7331	
602.61	7839.6	
602.8	5994.4	
602.99	5835.3	
603.18	7638.9	
603.37	7759.1	
603.57	6215.6	
603.76	6602.7	
603.95	8168	
604.14	7919.5	
604.33	5850.4	
604.52	6036.7	
604.71	7671	
604.9	7394.5	
605.09	6509.8	
605.28	6317.3	
605.47	8167.3	
605.66	7922.2	
605.86	6308.4	
606.05	5858.6	
606.24	8140	
606.43	7090.8	
606.62	6087.9	
606.81	6580.8	
607	7993.2	
607.19	7567.9	
607.38	5720	
607.57	5858.6	
607.76	7382.2	
607.95	6944.7	
608.14	6217	
608.33	6604	
608.52	7381.6	
608.72	7965.9	
608.91	5611.4	
609.1	5548.6	
609.29	7471	
609.48	7120.1	
609.67	6212.2	
609.86	5658.5	
610.05	7208.8	
610.24	7341.3	
610.43	5487.9	
610.62	5231.2	
610.81	8181	
611	8006.2	
611.19	5557.5	
611.38	6150.1	
611.57	7610.3	
611.76	8413.1	
611.95	5465.3	
612.14	5317.2	
612.33	7467.6	
612.52	7174	
612.71	5721.3	
612.9	5261.9	
613.09	6793.1	
613.28	8503.8	
613.47	5723.4	
613.66	6278.4	
613.85	7590.5	
614.04	7135.8	
614.24	5644.9	
614.43	5207.3	
614.62	7624.6	
614.81	7574.8	
615	6031.3	
615.19	6041.5	
615.38	7068.9	
615.57	7324.2	
615.76	5939.1	
615.95	6616.3	
616.14	7648.5	
616.33	7402	
616.52	6209.4	
616.71	6305.7	
616.9	7669.6	
617.09	7473	
617.28	5806.7	
617.47	6580.8	
617.66	7000	
617.85	6986.3	
618.04	6278.4	
618.22	5943.9	
618.41	7265.5	
618.6	7868.3	
618.79	5971.2	
618.98	5738.4	
619.17	8078.6	
619.36	6860.7	
619.55	5868.1	
619.74	5885.2	
619.93	7602.1	
620.12	7246.4	
620.31	6322.8	
620.5	6435.4	
620.69	8304.5	
620.88	8331.8	
621.07	6952.2	
621.26	6205.3	
621.45	7739.3	
621.64	7755.7	
621.83	6321.4	
622.02	5728.2	
622.21	7763.8	
622.4	7689.4	
622.59	6733	
622.78	6548.7	
622.97	7427.3	
623.16	8079.2	
623.35	6294.8	
623.54	5714.5	
623.72	7515.4	
623.91	7524.2	
624.1	6485.9	
624.29	5576.6	
624.48	8366	
624.67	7852.6	
624.86	6426.5	
625.05	5722.7	
625.24	8442.4	
625.43	7501.7	
625.62	7508.5	
625.81	5910.4	
626	8004.8	
626.19	7501	
626.38	6369.2	
626.56	6044.2	
626.75	7439.6	
626.94	7974.1	
627.13	6411.5	
627.32	5664	
627.51	7943.4	
627.7	8725.7	
627.89	5754.1	
628.08	6454.5	
628.27	7342	
628.46	7501.7	
628.65	5901.6	
628.83	5608	
629.02	7882.6	
629.21	7331	
629.4	6239.5	
629.59	6212.9	
629.78	7295.5	
629.97	7984.3	
630.16	6295.5	
630.35	5959.6	
630.54	8400.8	
630.72	8099	
630.91	5946.6	
631.1	6315.9	
631.29	7630	
631.48	7754.3	
631.67	6472.9	
631.86	5984.2	
632.05	7460.1	
632.24	7576.8	
632.42	5812.8	
632.61	6222.4	
632.8	7521.5	
632.99	7208.8	
633.18	6193.7	
633.37	6429.9	
633.56	7778.9	
633.75	7567.2	
633.93	6272.2	
634.12	5948.7	
634.31	8382.3	
634.5	8045.1	
634.69	6025.1	
634.88	6410.1	
635.07	7643.7	
635.25	7933.1	
635.44	6662.7	
635.63	6765.1	
635.82	7539.3	
636.01	7004.1	
636.2	6598.6	
636.39	6245.6	
636.57	8271.7	
636.76	7928.4	
636.95	5892	
637.14	6757.6	
637.33	7756.3	
637.52	8383	
637.7	5698.1	
637.89	6460	
638.08	7442.3	
638.27	8533.2	
638.46	6429.9	
638.65	6770.6	
638.83	8473.8	
639.02	7406.8	
639.21	6471.6	
639.4	6653.2	
639.59	7613	
639.78	7482.6	
639.96	5859.2	
640.15	5922.7	
640.34	7712	
640.53	7705.8	
640.72	5713.8	
640.91	5907	
641.09	7173.4	
641.28	8152.3	
641.47	5921.4	
641.66	6483.9	
641.85	7688.8	
642.03	7808.2	
642.22	6311.8	
642.41	5963	
642.6	7254.6	
642.79	6821.1	
642.97	5846.3	
643.16	6275	
643.35	7223.9	
643.54	7008.1	
643.73	5732.3	
643.91	6276.3	
644.1	7101	
644.29	7441.6	
644.48	5798.5	
644.67	5759.6	
644.85	7080.5	
645.04	7486	
645.23	5508.4	
645.42	5769.8	
645.6	7153.6	
645.79	7818.5	
645.98	5683.1	
646.17	4985.4	
646.36	6881.2	
646.54	7157.7	
646.73	6249.7	
646.92	5407.3	
647.11	6978.8	
647.29	7714.7	
647.48	5505.6	
647.67	5317.2	
647.86	7877.9	
648.05	7729.7	
648.23	5593	
648.42	6492.1	
648.61	7390.4	
648.8	7278.5	
648.98	5410.7	
649.17	5623.7	
649.36	6944	
649.55	6485.2	
649.73	5431.9	
649.92	5945.3	
650.11	6837.5	
650.3	7086.7	
650.48	5504.9	
650.67	5391.6	
650.86	7273	
651.05	6541.9	
651.23	5397.1	
651.42	5401.9	
651.61	6913.3	
651.79	6880.5	
651.98	5616.2	
652.17	5317.2	
652.36	7221.8	
652.54	6533	
652.73	5318.6	
652.92	5281	
653.11	7247.8	
653.29	7227.3	
653.48	4888.5	
653.67	5549.3	
653.85	7034.8	
654.04	7743.4	
654.23	5723.4	
654.42	5407.3	
654.6	6694.8	
654.79	7105.8	
654.98	5008.6	
655.16	5343.2	
655.35	6391	
655.54	6238.1	
655.73	5008	
655.91	4906.3	
656.1	6978.1	
656.29	6131.6	
656.47	4640	
656.66	5812.8	
656.85	6430.6	
657.03	6409.5	
657.22	4952.7	
657.41	5092.6	
657.59	6534.4	
657.78	6387.6	
657.97	4767.7	
658.16	5370.5	
658.34	7072.3	
658.53	7336.5	
658.72	5937.7	
658.9	6296.1	
659.09	6690.7	
659.28	6717.3	
659.46	5236	
659.65	5036.6	
659.84	6546	
660.02	6971.3	
660.21	5160.2	
660.4	4975.9	
660.58	7061.4	
660.77	6690.7	
660.96	5419.6	
661.14	4725.3	
661.33	7496.2	
661.52	7407.5	
661.7	4712.4	
661.89	7171.3	
662.08	6428.6	
662.26	6126.2	
662.45	4995	
662.64	5056.4	
662.82	6996.5	
663.01	6305	
663.2	5051	
663.38	5498.8	
663.57	6845.7	
663.75	6751.5	
663.94	5326.8	
664.13	6068.8	
664.31	6418.3	
664.5	6868.9	
664.69	5544.5	
664.87	5854.5	
665.06	6273.6	
665.25	6750.1	
665.43	5973.9	
665.62	5948.7	
665.8	6970.6	
665.99	6483.2	
666.18	5264.6	
666.36	5265.3	
666.55	7032.7	
666.74	6872.3	
666.92	5029.8	
667.11	6141.2	
667.29	6568.5	
667.48	6929.6	
667.67	5806	
667.85	5078.3	
668.04	6478.4	
668.22	6442.2	
668.41	5203.9	
668.6	5487.9	
668.78	6401.3	
668.97	6522.1	
669.15	5548.6	
669.34	4759.5	
669.53	6359.6	
669.71	6616.3	
669.9	4976.6	
670.08	5327.4	
670.27	6287.3	
670.46	6756.9	
670.64	5515.9	
670.83	5708.4	
671.01	6300.9	
671.2	6675	
671.38	4954	
671.57	4914.4	
671.76	7094.8	
671.94	7443.7	
672.13	4842.1	
672.31	5560.9	
672.5	6862.1	
672.69	6338.5	
672.87	4985.4	
673.06	5220.3	
673.24	6763.1	
673.43	6386.9	
673.61	5425.1	
673.8	5169.8	
673.98	6781.5	
674.17	6903	
674.36	5604.6	
674.54	5472.9	
674.73	6574.7	
674.91	6749.4	
675.1	5244.8	
675.28	4934.2	
675.47	6517.3	
675.65	6927.6	
675.84	5233.9	
676.03	5347.2	
676.21	6368.5	
676.4	5988.3	
676.58	5654.4	
676.77	5549.3	
676.95	7409.6	
677.14	6257.2	
677.32	4912.4	
677.51	4856.4	
677.69	6882.5	
677.88	6134.3	
678.06	4898.1	
678.25	5003.9	
678.44	6488.6	
678.62	6281.8	
678.81	4717.8	
678.99	5397.8	
679.18	7122.8	
679.36	6768.5	
679.55	5060.5	
679.73	5528.8	
679.92	6688	
680.1	6315.3	
680.29	6080.4	
680.47	5123.3	
680.66	6374.6	
680.84	6896.2	
681.03	4629.8	
681.21	5456.5	
681.4	6249.7	
681.58	6185.5	
681.77	4951.3	
681.95	4930.8	
682.14	6913.3	
682.32	7067.5	
682.51	5586.2	
682.69	4747.9	
682.88	6260	
683.06	6649.1	
683.25	5338.4	
683.43	5702.2	
683.62	6584.2	
683.8	6737.1	
683.99	5691.3	
684.17	5226.4	
684.36	7262.1	
684.54	6425.2	
684.73	4672.8	
684.91	4855.1	
685.1	6716.7	
685.28	6257.9	
685.46	5195	
685.65	5246.9	
685.83	6763.8	
686.02	6186.9	
686.2	4770.4	
686.39	4819.6	
686.57	6023.1	
686.76	6996.5	
686.94	4726	
687.13	4903.5	
687.31	6503	
687.5	6250.4	
687.68	4462.5	
687.86	5316.5	
688.05	7488.7	
688.23	5809.4	
688.42	5367	
688.6	4857.8	
688.79	6173.3	
688.97	6180.8	
689.16	5086.5	
689.34	4416.1	
689.52	6630	
689.71	6961.7	
689.89	5343.2	
690.08	4834.6	
690.26	6375.3	
690.45	6259.3	
690.63	5494.7	
690.81	5052.3	
691	6384.9	
691.18	6227.2	
691.37	5122	
691.55	6530.3	
691.74	6139.8	
691.92	7633.5	
692.1	5094	
692.29	4687.1	
692.47	6280.4	
692.66	5802.6	
692.84	4756.7	
693.02	5188.2	
693.21	5824.4	
693.39	6314.6	
693.58	5257.8	
693.76	4813.4	
693.94	7060	
694.13	6859.3	
694.31	4823	
694.5	5541.1	
694.68	6113.2	
694.86	6433.4	
695.05	5038	
695.23	5121.3	
695.42	6673	
695.6	8236.2	
695.78	5449	
695.97	4941.7	
696.15	6743.3	
696.34	6237.4	
696.52	4813.4	
696.7	5340.4	
696.89	6479.1	
697.07	6099.5	
697.25	5250.3	
697.44	6229.9	
697.62	6477	
697.81	6628.6	
697.99	5009.3	
698.17	5278.3	
698.36	6107	
698.54	6488.6	
698.72	5234.6	
698.91	4586.1	
699.09	6167.8	
699.28	6037.4	
699.46	4984.8	
699.64	4945.8	
699.83	5980.1	
700.01	6776	
700.19	5499.5	
700.38	4329.4	
700.56	6776.7	
700.74	6085.2	
700.93	4521.9	
701.11	5186.1	
701.29	6498.2	
701.48	7178.1	
701.66	4770.4	
701.84	4810	
702.03	6221.7	
702.21	6711.9	
702.39	4450.9	
702.58	4971.1	
702.76	6483.9	
702.94	6546	
703.13	4489.1	
703.31	6179.4	
703.49	5983.5	
703.68	6657.3	
703.86	4608.6	
704.04	5367.7	
704.23	6349.4	
704.41	6538.5	
704.59	4759.5	
704.78	5481.7	
704.96	7434.1	
705.14	6538.5	
705.33	4611.3	
705.51	5169.8	
705.69	6111.1	
705.87	6697.5	
706.06	5223.7	
706.24	4506.2	
706.42	6405.4	
706.61	6503.7	
706.79	5295.4	
706.97	4491.9	
707.16	5995.8	
707.34	6328.9	
707.52	5280.3	
707.7	4612.7	
707.89	6023.8	
708.07	5831.2	
708.25	5250.3	
708.44	5566.4	
708.62	5956.9	
708.8	6716.7	
708.98	5457.2	
709.17	4684.4	
709.35	6261.3	
709.53	6279.1	
709.72	4432.5	
709.9	4624.3	
710.08	6464.8	
710.26	6526.2	
710.45	5639.4	
710.63	4642.7	
710.81	6168.5	
710.99	6116.6	
711.18	5101.5	
711.36	4749.2	
711.54	6078.4	
711.72	6567.8	
711.91	4829.1	
712.09	4396.3	
712.27	6208.1	
712.45	6610.8	
712.64	4986.8	
712.82	4255.7	
713	5831.2	
713.18	5865.4	
713.37	4356	
713.55	5188.2	
713.73	6544.6	
713.91	5559.6	
714.1	4646.8	
714.28	4294.6	
714.46	6322.1	
714.64	5664.7	
714.83	3940.3	
715.01	4419.5	
715.19	5726.1	
715.37	5238	
715.55	4097.3	
715.74	4379.2	
715.92	6275.7	
716.1	4856.4	
716.28	5179.3	
716.47	4411.3	
716.65	5367	
716.83	5478.3	
717.01	4273.4	
717.19	4397	
717.38	6852.5	
717.56	5126.7	
717.74	4465.3	
717.92	3857	
718.1	6023.1	
718.29	5404.6	
718.47	3553.2	
718.65	3986	
718.83	5980.8	
719.01	5842.9	
719.2	3462.4	
719.38	4244.8	
719.56	5632.6	
719.74	6701.6	
719.92	3973.7	
720.11	4762.9	
720.29	5814.2	
720.47	5162.9	
720.65	3728	
720.83	4334.2	
721.02	5435.3	
721.2	5198.4	
721.38	4371.7	
721.56	3831.7	
721.74	4820.2	
721.92	4927.4	
722.11	4635.2	
722.29	4407.9	
722.47	5876.3	
722.65	5186.1	
722.83	3831.1	
723.01	4368.3	
723.2	5281.7	
723.38	5528.2	
723.56	3351.2	
723.74	4201.7	
723.92	4930.1	
724.1	5747.3	
724.29	3777.8	
724.47	4486.4	
724.65	5044.1	
724.83	4900.1	
725.01	3690.4	
725.19	4232.5	
725.37	4937	
725.56	4919.9	
725.74	3564.8	
725.92	3704.1	
726.1	4885.1	
726.28	5162.2	
726.46	4003.8	
726.64	3794.2	
726.83	5164.3	
727.01	5256.5	
727.19	3508.2	
727.37	4054.3	
727.55	5194.3	
727.73	5565	
727.91	3461.1	
728.09	3392.8	
728.28	5591	
728.46	5634	
728.64	4107.5	
728.82	4051.6	
729	6255.2	
729.18	5736.4	
729.36	3476.8	
729.54	5091.9	
729.72	6438.8	
729.91	5236.7	
730.09	4887.1	
730.27	3950.5	
730.45	5149.3	
730.63	5623	
730.81	4415.4	
730.99	3710.9	
731.17	6015.6	
731.35	4946.5	
731.53	4014	
731.71	3756.7	
731.9	5728.9	
732.08	5790.3	
732.26	3947.1	
732.44	3694.5	
732.62	5902.9	
732.8	5479.7	
732.98	4257	
733.16	3581.2	
733.34	5563.6	
733.52	4610	
733.7	3924.6	
733.88	4151.9	
734.07	5386.2	
734.25	5240.1	
734.43	3583.3	
734.61	4641.4	
734.79	6251.1	
734.97	5126.1	
735.15	3678.8	
735.33	3921.2	
735.51	5410.1	
735.69	5137.7	
735.87	4674.8	
736.05	4044.7	
736.23	5236	
736.41	5032.5	
736.59	3931.4	
736.77	3920.5	
736.95	5592.3	
737.13	5081.7	
737.32	3644.7	
737.5	3762.1	
737.68	5995.8	
737.86	5061.2	
738.04	3515.7	
738.22	4784.1	
738.4	4965.6	
738.58	5164.3	
738.76	3878.9	
738.94	3197.6	
739.12	5089.9	
739.3	4954	
739.48	4359.4	
739.66	4150.5	
739.84	5247.6	
740.02	5126.1	
740.2	3271.3	
740.38	3504.1	
740.56	5443.5	
740.74	4597	
740.92	4020.8	
741.1	3895.2	
741.28	5107	
741.46	4881	
741.64	3614	
741.82	4003.1	
742	5113.1	
742.18	4988.9	
742.36	3808.5	
742.54	3523.2	
742.72	5509	
742.9	4554	
743.08	4044.1	
743.26	3158	
743.44	5524.7	
743.62	5496.1	
743.8	4134.8	
743.98	3450.8	
744.16	5242.1	
744.34	5065.3	
744.52	4046.8	
744.7	4051.6	
744.88	5373.2	
745.06	5013.4	
745.24	4085	
745.42	4186	
745.6	5496.1	
745.78	5289.9	
745.96	3282.9	
746.14	3476.1	
746.32	5982.8	
746.5	5380.7	
746.68	3837.9	
746.86	3448.1	
747.03	5608.7	
747.21	4515.8	
747.39	3930.7	
747.57	3532.7	
747.75	5202.5	
747.93	5431.9	
748.11	3512.9	
748.29	3418.1	
748.47	6279.1	
748.65	4950.6	
748.83	4044.7	
749.01	3875.4	
749.19	5315.2	
749.37	4641.4	
749.55	3812	
749.73	3822.9	
749.91	5059.2	
750.09	4941.7	
750.26	3835.2	
750.44	3381.2	
750.62	5082.4	
750.8	5007.3	
750.98	3267.9	
751.16	3570.3	
751.34	5190.9	
751.52	4714.4	
751.7	4099.4	
751.88	3320.4	
752.06	5463.3	
752.24	5223.7	
752.42	3257.6	
752.59	3559.4	
752.77	5010.7	
752.95	5902.2	
753.13	4033.8	
753.31	3605.8	
753.49	4838	
753.67	5143.8	
753.85	3848.1	
754.03	3524.6	
754.21	5337	
754.38	5541.1	
754.56	3628.3	
754.74	2968.9	
754.92	4848.2	
755.1	5270.1	
755.28	3022.1	
755.46	3117	
755.64	5874.9	
755.82	6062.7	
755.99	3343	
756.17	3421.5	
756.35	4284.4	
756.53	5332.2	
756.71	2645.3	
756.89	3285.6	
757.07	5053	
757.25	4426.3	
757.42	3672	
757.6	4243.4	
757.78	5104.9	
757.96	4361.5	
758.14	3374.4	
758.32	3046	
758.5	4057.7	
758.67	4712.4	
758.85	3281.5	
759.03	3382.6	
759.21	4844.1	
759.39	4377.2	
759.57	2936.1	
759.75	3846.8	
759.92	5231.2	
760.1	4835.9	
760.28	4031.8	
760.46	4139.6	
760.64	4618.9	
760.82	4425.7	
760.99	3860.4	
761.17	3308.8	
761.35	5212.8	
761.53	4317.8	
761.71	3422.2	
761.89	3890.5	
762.06	5012.1	
762.24	4665.3	
762.42	3433.1	
762.6	3278.8	
762.78	4717.8	
762.96	5098.8	
763.13	3709.6	
763.31	3493.2	
763.49	5167.7	
763.67	4598.4	
763.85	4023.6	
764.02	4450.2	
764.2	5418.2	
764.38	4772.4	
764.56	3389.4	
764.74	3975.8	
764.91	5459.9	
765.09	4651.6	
765.27	3170.3	
765.45	3021.4	
765.63	5631.9	
765.8	5382.7	
765.98	2873.3	
766.16	3081.5	
766.34	4392.9	
766.52	4218.1	
766.69	3743.7	
766.87	2985.9	
767.05	4711	
767.23	5256.5	
767.41	3138.9	
767.58	3451.5	
767.76	5106.3	
767.94	5131.5	
768.12	3266.5	
768.29	3730	
768.47	4696.7	
768.65	5273.5	
768.83	3044	
769	3805.8	
769.18	4431.1	
769.36	4932.2	
769.54	3801.7	
769.72	2990	
769.89	5246.2	
770.07	5219.6	
770.25	3307.5	
770.43	4167.6	
770.6	5742.5	
770.78	6006	
770.96	3452.9	
771.14	3228.3	
771.31	5119.9	
771.49	4655.7	
771.67	2816.6	
771.85	3011.9	
772.02	4085.7	
772.2	4640.7	
772.38	3525.9	
772.55	3201	
772.73	4872.1	
772.91	4659.1	
773.09	3442.6	
773.26	3534.8	
773.44	4871.4	
773.62	4628.4	
773.8	3151.8	
773.97	2932.7	
774.15	4904.2	
774.33	4613.4	
774.5	3041.2	
774.68	3323.9	
774.86	5076.9	
775.04	4616.1	
775.21	3098.6	
775.39	3121.8	
775.57	4872.1	
775.74	5118.6	
775.92	3031	
776.1	2903.3	
776.27	4807.3	
776.45	5623	
776.63	3149.8	
776.81	2816	
776.98	4620.2	
777.16	5262.6	
777.34	3229	
777.51	3432.4	
777.69	4579.3	
777.87	4378.6	
778.04	3275.4	
778.22	3648.1	
778.4	4369	
778.57	4902.2	
778.75	2734.7	
778.93	2930	
779.1	4327.4	
779.28	4168.3	
779.46	2786.6	
779.64	3048.7	
779.81	5059.8	
779.99	5591.6	
780.17	3596.2	
780.34	3712.3	
780.52	4678.2	
780.69	4801.1	
780.87	3395.5	
781.05	3001.6	
781.22	4728.8	
781.4	4715.8	
781.58	3151.8	
781.75	2532	
781.93	4800.4	
782.11	4233.8	
782.28	3831.7	
782.46	3153.9	
782.64	4216.8	
782.81	4846.2	
782.99	3237.8	
783.17	3143.6	
783.34	4722.6	
783.52	4347.8	
783.69	3300.6	
783.87	3874.1	
784.05	4327.4	
784.22	4286.4	
784.4	3934.8	
784.58	3394.2	
784.75	5013.4	
784.93	4351.3	
785.1	3137.5	
785.28	3654.9	
785.46	4801.1	
785.63	4292.5	
785.81	3180.5	
785.99	3033	
786.16	4511.7	
786.34	4771.8	
786.51	3064.4	
786.69	3376.4	
786.87	4130.8	
787.04	4508.3	
787.22	2985.3	
787.39	3667.2	
787.57	4303.5	
787.75	5090.6	
787.92	3844	
788.1	3738.2	
788.27	4303.5	
788.45	4076.1	
788.63	3538.9	
788.8	2581.8	
788.98	4717.8	
789.15	4012	
789.33	2721.8	
789.5	3164.1	
789.68	4965	
789.86	5017.5	
790.03	3489.7	
790.21	3026.2	
790.38	5041.4	
790.56	4444.1	
790.73	3042.6	
790.91	2959.3	
791.09	4351.9	
791.26	4789.5	
791.44	3209.2	
791.61	2835.8	
791.79	4374.5	
791.96	4352.6	
792.14	2847.4	
792.32	2578.4	
792.49	4347.8	
792.67	4478.2	
792.84	2904	
793.02	2742.9	
793.19	4717.2	
793.37	5153.4	
793.54	2564.7	
793.72	2785.9	
793.89	5248.3	
794.07	4308.9	
794.25	3189.4	
794.42	2655.5	
794.6	5102.2	
794.77	4804.5	
794.95	3435.8	
795.12	3026.2	
795.3	4379.2	
795.47	4726.7	
795.65	3317	
795.82	3224.2	
796	4189.5	
796.17	5492.7	
796.35	3151.8	
796.52	3631	
796.7	4734.9	
796.87	4815.5	
797.05	3134.8	
797.22	3758	
797.4	4842.1	
797.57	5498.8	
797.75	3274.7	
797.92	3052.8	
798.1	5057.1	
798.27	4264.6	
798.45	2699.2	
798.62	2832.3	
798.8	4587.4	
798.97	4887.1	
799.15	3335.5	
799.32	3298.6	
799.5	4048.2	
799.67	4617.5	
799.85	3499.3	
800.02	2620	
800.2	4300.7	
800.37	4527.4	
800.55	3617.4	
800.72	3087	
800.9	4964.3	
801.07	5165.7	
801.25	3986.7	
801.42	3345	
801.6	4966.3	
801.77	4568.3	
801.95	3142.3	
802.12	3005.1	
802.29	4719.2	
802.47	4695.3	
802.64	3353.9	
802.82	2625.5	
802.99	4336.9	
803.17	4940.4	
803.34	3267.2	
803.52	2955.2	
803.69	5406.6	
803.87	4151.9	
804.04	3232.4	
804.21	3229	
804.39	5147.9	
804.56	4472.8	
804.74	2827.6	
804.91	3321.1	
805.09	4336.2	
805.26	4373.8	
805.44	2814.6	
805.61	3062.4	
805.78	4855.1	
805.96	4878.3	
806.13	3326.6	
806.31	3536.8	
806.48	3999.7	
806.66	4367.6	
806.83	3348.4	
807	3255.6	
807.18	4360.8	
807.35	4601.8	
807.53	3202.3	
807.7	2740.2	
807.87	5195.7	
808.05	4327.4	
808.22	3571.7	
808.4	2676.7	
808.57	4351.9	
808.74	4100.7	
808.92	3044.6	
809.09	3731.4	
809.27	4343.7	
809.44	4701.5	
809.61	2719.7	
809.79	2910.2	
809.96	5261.2	
810.14	4791.6	
810.31	2646	
810.48	3194.8	
810.66	4407.2	
810.83	4897.4	
811.01	3043.3	
811.18	3308.2	
811.35	4900.1	
811.53	3901.4	
811.7	3568.2	
811.87	3329.3	
812.05	4440	
812.22	4317.8	
812.39	2928.6	
812.57	2835.1	
812.74	4444.1	
812.92	5515.2	
813.09	3213.3	
813.26	3326.6	
813.44	5355.4	
813.61	4288.4	
813.78	2635.7	
813.96	3480.2	
814.13	4436.6	
814.3	4182	
814.48	3719.1	
814.65	3121.1	
814.82	5158.2	
815	4109.6	
815.17	3200.3	
815.34	3785.3	
815.52	4313.7	
815.69	4274.1	
815.87	3189.4	
816.04	3119.1	
816.21	4341	
816.38	3999	
816.56	3117	
816.73	2917.7	
816.9	5435.3	
817.08	4904.9	
817.25	2973	
817.42	3586.7	
817.6	4055.7	
817.77	4397.7	
817.94	3293.8	
818.12	2891	
818.29	4207.2	
818.46	5995.8	
818.64	3067.9	
818.81	2860.3	
818.98	4162.8	
819.16	5702.2	
819.33	3420.1	
819.5	3211.2	
819.67	4644.1	
819.85	5123.3	
820.02	3198.9	
820.19	3297.2	
820.37	4524.6	
820.54	4265.9	
820.71	3248.8	
820.88	3914.4	
821.06	4510.3	
821.23	4212	
821.4	3222.8	
821.58	3205.1	
821.75	4845.5	
821.92	4497.3	
822.09	2678.7	
822.27	2742.9	
822.44	4418.2	
822.61	4291.2	
822.79	2764.8	
822.96	4845.5	
823.13	4631.1	
823.3	4098	
823.48	3066.5	
823.65	2772.9	
823.82	4924	
823.99	4085	
824.17	3802.4	
824.34	2872.6	
824.51	5516.5	
824.68	4405.9	
824.86	2951.1	
825.03	3240.6	
825.2	4386.1	
825.37	5112.4	
825.55	2918.4	
825.72	3282.2	
825.89	5482.4	
826.06	5210	
826.24	3127.2	
826.41	3205.1	
826.58	5198.4	
826.75	4569.7	
826.92	2609.1	
827.1	2768.9	
827.27	6742.6	
827.44	5464	
827.61	3036.5	
827.79	3592.8	
827.96	4209.3	
828.13	4414.1	
828.3	3140.2	
828.47	2668.5	
828.65	4649.6	
828.82	4560.1	
828.99	3926.6	
829.16	3434.4	
829.34	4881.7	
829.51	4747.9	
829.68	3209.8	
829.85	3290.4	
830.02	5194.3	
830.2	4885.8	
830.37	2512.9	
830.54	3711.6	
830.71	5444.2	
830.88	4430.4	
831.05	2547	
831.23	2888.3	
831.4	5307	
831.57	5655.1	
831.74	2991.4	
831.91	2692.4	
832.09	4680.3	
832.26	4904.9	
832.43	3063.8	
832.6	3414	
832.77	4653	
832.94	5098.8	
833.12	2540.8	
833.29	2999.6	
833.46	4314.4	
833.63	5872.2	
833.8	3272	
833.97	3015.3	
834.15	4948.6	
834.32	4741	
834.49	3177.1	
834.66	3221.5	
834.83	4982.7	
835	4233.8	
835.17	2949.8	
835.35	2990.7	
835.52	4783.4	
835.69	4752.7	
835.86	3128.6	
836.03	2614.6	
836.2	4868	
836.37	4536.3	
836.55	3054.2	
836.72	2895.8	
836.89	4515.8	
837.06	4906.9	
837.23	3093.1	
837.4	3338.2	
837.57	5503.6	
837.75	5952.1	
837.92	2833	
838.09	2996.9	
838.26	4586.1	
838.43	5000.5	
838.6	3254.2	
838.77	2888.3	
838.94	5659.9	
839.11	5485.1	
839.29	3102	
839.46	2486.2	
839.63	4941.7	
839.8	4683	
839.97	3001.6	
840.14	2995.5	
840.31	4752	
840.48	4883.7	
840.65	2567.5	
840.82	2979.1	
841	4863.9	
841.17	4774.5	
841.34	2734	
841.51	2803.7	
841.68	4889.9	
841.85	4603.2	
842.02	2882.2	
842.19	2441.2	
842.36	4677.6	
842.53	4721.3	
842.7	2788	
842.87	3257	
843.05	5880.4	
843.22	4596.3	
843.39	2674	
843.56	2895.1	
843.73	4512.4	
843.9	4964.3	
844.07	4214.7	
844.24	3599.6	
844.41	6562.4	
844.58	4345.1	
844.75	2676.7	
844.92	2862.4	
845.09	4803.2	
845.26	4829.1	
845.43	2791.4	
845.6	2895.1	
845.77	4823	
845.94	4642.7	
846.12	3061.7	
846.29	3112.2	
846.46	5046.2	
846.63	4833.2	
846.8	2781.8	
846.97	3228.3	
847.14	5201.2	
847.31	4818.9	
847.48	3074	
847.65	3344.3	
847.82	5042.8	
847.99	4994.3	
848.16	3581.9	
848.33	3270.6	
848.5	4489.8	
848.67	5245.5	
848.84	2725.8	
849.01	2843.3	
849.18	4476.9	
849.35	4233.8	
849.52	3310.2	
849.69	2695.8	
849.86	5018.9	
850.03	5109	
850.2	2745	
850.37	3304.1	
850.54	5095.3	
850.71	4675.5	
850.88	3245.3	
851.05	2709.5	
851.22	4793.6	
851.39	5193	
851.56	2592	
851.73	3132	
851.9	4337.6	
852.07	5036.6	
852.24	3008.5	
852.41	2731.3	
852.58	4829.8	
852.75	4437.9	
852.92	3074.7	
853.09	2723.8	
853.26	4485.1	
853.43	5128.1	
853.6	2823.5	
853.77	2372.9	
853.94	5251	
854.11	4334.2	
854.28	3941	
854.44	2946.3	
854.61	5519.3	
854.78	5102.9	
854.95	2792.1	
855.12	3355.9	
855.29	4059.8	
855.46	5344.5	
855.63	2746.3	
855.8	3714.3	
855.97	4498.7	
856.14	5147.2	
856.31	3738.9	
856.48	2957.3	
856.65	4541.7	
856.82	4291.2	
856.99	2630.3	
857.16	2945	
857.33	5718.6	
857.49	4558.1	
857.66	2926.5	
857.83	3118.4	
858	4644.1	
858.17	4730.8	
858.34	2566.1	
858.51	2819.4	
858.68	5257.1	
858.85	5292	
859.02	3139.5	
859.19	3289	
859.36	4386.1	
859.52	4345.8	
859.69	2725.2	
859.86	3187.3	
860.03	4384.7	
860.2	5188.2	
860.37	2548.4	
860.54	2798.9	
860.71	5019.6	
860.88	5261.2	
861.05	3073.3	
861.21	3454.9	
861.38	5315.2	
861.55	4177.2	
861.72	2579.8	
861.89	3014.6	
862.06	5057.8	
862.23	5343.2	
862.4	2654.9	
862.56	2835.1	
862.73	4945.2	
862.9	4676.2	
863.07	3116.3	
863.24	2533.3	
863.41	4296	
863.58	4370.4	
863.75	2800.9	
863.91	3168.9	
864.08	5204.6	
864.25	4957.4	
864.42	3379.8	
864.59	3730.7	
864.76	5442.8	
864.93	4313	
865.09	2661.7	
865.26	2874	
865.43	5195.7	
865.6	5462.6	
865.77	2422.1	
865.94	2729.9	
866.1	5182.7	
866.27	4870.8	
866.44	3945.8	
866.61	2636.4	
866.78	4630.5	
866.95	4928.1	
867.11	2719	
867.28	2477.4	
867.45	5158.8	
867.62	4402.5	
867.79	3134.1	
867.96	2716.3	
868.12	4292.5	
868.29	5012.7	
868.46	2753.8	
868.63	3579.8	
868.8	5160.9	
868.97	4941.7	
869.13	2895.8	
869.3	2785.9	
869.47	4839.4	
869.64	5061.2	
869.81	2740.9	
869.97	2815.3	
870.14	4745.8	
870.31	5191.6	
870.48	2686.3	
870.65	3435.8	
870.81	4628.4	
870.98	4638	
871.15	3071.3	
871.32	2874.7	
871.48	4879.6	
871.65	5364.3	
871.82	2723.8	
871.99	3031	
872.16	5620.3	
872.32	5175.9	
872.49	2803.7	
872.66	2781.1	
872.83	5040.1	
872.99	4453.6	
873.16	3080.1	
873.33	2739.5	
873.5	4711	
873.67	4739.7	
873.83	2861.7	
874	3581.2	
874.17	4878.9	
874.34	5470.8	
874.5	3460.4	
874.67	3366.9	
874.84	5241.4	
875.01	4162.8	
875.17	3755.3	
875.34	2755.2	
875.51	4807.9	
875.68	5646.9	
875.84	3340.9	
876.01	3859.7	
876.18	4967	
876.34	4905.6	
876.51	2755.2	
876.68	2723.1	
876.85	4568.3	
877.01	5228.5	
877.18	3816.7	
877.35	2695.1	
877.52	4802.5	
877.68	4342.4	
877.85	2719	
878.02	2706	
878.18	4594.3	
878.35	4438.6	
878.52	2274.6	
878.69	2994.8	
878.85	5097.4	
879.02	4889.9	
879.19	3812.6	
879.35	2953.9	
879.52	4981.3	
879.69	4992.3	
879.86	2414.6	
880.02	3028.3	
880.19	4669.4	
880.36	5522.7	
880.52	3160.7	
880.69	3168.9	
880.86	5035.3	
881.02	5098.8	
881.19	2944.3	
881.36	2951.8	
881.52	4969.7	
881.69	4431.1	
881.86	2990.7	
882.02	2889	
882.19	5171.8	
882.36	5912.5	
882.52	2861.7	
882.69	3796.9	
882.86	4859.1	
883.02	4780	
883.19	3235.8	
883.36	3064.4	
883.52	5049.6	
883.69	5547.9	
883.86	2775	
884.02	2534.7	
884.19	5012.7	
884.36	4685.8	
884.52	3119.7	
884.69	2971.6	
884.86	4545.8	
885.02	5421.7	
885.19	3056.9	
885.36	3109.5	
885.52	4642.1	
885.69	4835.3	
885.86	3844.7	
886.02	3457.7	
886.19	5037.3	
886.35	4525.3	
886.52	3077.4	
886.69	3693.2	
886.85	4390.2	
887.02	5151.3	
887.19	5151.3	
887.35	5151.3	
887.52	5151.3	
887.68	5151.3	
887.85	5151.3	
888.02	5151.3	
888.18	5151.3	
888.35	5151.3	
888.51	5151.3	
888.68	5151.3	
888.85	5151.3	
889.01	5151.3	
889.18	5151.3	
889.35	5151.3	
889.51	5151.3	
889.68	5151.3	
889.84	5151.3	
890.01	5151.3	
890.17	5151.3	
890.34	5151.3	
890.51	5151.3	
890.67	5151.3	
890.84	5151.3	
891	5151.3	
891.17	5151.3	
891.34	5151.3	
891.5	5151.3	
891.67	5151.3	
891.83	5151.3	
892	5151.3	
892.16	5151.3	
892.33	5151.3	
892.5	5151.3	
892.66	5151.3	
892.83	5151.3	
892.99	5151.3	
893.16	5151.3	
893.32	5151.3	
893.49	5151.3	
893.65	5151.3	
893.82	5151.3	
893.99	5151.3	
894.15	5151.3	
894.32	5151.3	
894.48	5151.3	
894.65	5151.3	
894.81	5151.3	
894.98	5151.3	
895.14	5151.3	
895.31	5151.3	
895.47	5151.3	
895.64	5151.3	
895.81	5151.3	
895.97	5151.3	
896.14	5151.3	
896.3	5151.3	
896.47	5151.3	
896.63	5151.3	
896.8	5151.3	
896.96	5151.3	
897.13	5151.3	
897.29	5151.3	
897.46	5151.3	
897.62	5151.3	
897.79	5151.3	
897.95	5151.3	
898.12	5151.3	
898.28	5151.3	
898.45	5151.3	
898.61	5151.3	
898.78	5151.3	
898.94	5151.3	
899.11	5151.3	
899.27	5151.3	
899.44	5151.3	
899.6	5151.3	
899.77	5151.3	
899.93	5151.3	
900.1	5151.3	
900.26	5151.3	
900.43	5151.3	
900.59	5151.3	
900.76	5151.3	
900.92	5151.3	
901.09	5151.3	
901.25	5151.3	
901.42	5151.3	
901.58	5151.3	
901.75	5151.3	
901.91	5151.3	
902.07	5151.3	
902.24	5151.3	
902.4	5151.3	
902.57	5151.3	
902.73	5151.3	
902.9	5151.3	
903.06	5151.3	
903.23	5151.3	
903.39	5151.3	
903.56	5151.3	
903.72	5151.3	
903.88	5151.3	
904.05	5151.3	
904.21	5151.3	
904.38	5151.3	
904.54	5151.3	
904.71	5151.3	
904.87	5151.3	
905.03	5151.3	
905.2	5151.3	
905.36	5151.3	
905.53	5151.3	
905.69	5151.3	
905.86	5151.3	
906.02	5151.3	
906.18	5151.3	
906.35	5151.3	
906.51	5151.3	
906.68	5151.3	
906.84	5151.3	
907.01	5151.3	
907.17	5151.3	
907.33	5151.3	
907.5	5151.3	
907.66	5151.3	
907.83	5151.3	
907.99	5151.3	
908.15	5151.3	
908.32	5151.3	
908.48	5151.3	
908.65	5151.3	
908.81	5151.3	
908.97	5151.3	
909.14	5151.3	
909.3	5151.3	
909.47	5151.3	
909.63	5151.3	
909.79	5151.3	
909.96	5151.3	
910.12	5151.3	
910.28	5151.3	
910.45	5151.3	
910.61	5151.3	
910.78	5151.3	
910.94	5151.3	
911.1	5151.3	
911.27	5151.3	
911.43	5151.3	
911.59	5151.3	
911.76	5151.3	
911.92	5151.3	
912.08	5151.3	
912.25	5151.3	
912.41	5151.3	
912.57	5151.3	
912.74	5151.3	
912.9	5151.3	
913.07	5151.3	
913.23	5151.3	
913.39	5151.3	
913.56	5151.3	
913.72	5151.3	
913.88	5151.3	
914.05	5151.3	
914.21	5151.3	
914.37	5151.3	
914.54	5151.3	
914.7	5151.3	
914.86	5151.3	
915.03	5151.3	
915.19	5151.3	
