Wavelength	Intensities	
nm	a.u.	
179.22	1899	
179.44	1897.4	
179.65	1900.5	
179.86	1894.4	
180.08	1938.1	
180.29	4736.3	
180.51	3495.9	
180.72	5660.6	
180.94	6617.7	
181.15	3231	
181.37	3192.8	
181.58	5456.5	
181.79	5718.6	
182.01	3378.5	
182.22	3680.2	
182.44	5728.2	
182.65	4832.5	
182.87	4601.8	
183.08	3960.1	
183.29	6021.7	
183.51	4973.8	
183.72	3680.9	
183.94	5375.2	
184.15	5322	
184.37	5433.3	
184.58	3220.8	
184.79	4431.1	
185.01	4979.3	
185.22	5709.7	
185.44	4678.9	
185.65	3888.4	
185.86	5264	
186.08	4833.2	
186.29	3099.9	
186.51	3352.5	
186.72	5057.8	
186.94	5898.1	
187.15	3870	
187.36	4010.6	
187.58	7682.6	
187.79	5528.2	
188.01	4189.5	
188.22	6507.1	
188.43	6657.9	
188.65	5760.3	
188.86	3323.9	
189.08	4051.6	
189.29	5206.6	
189.5	5194.3	
189.72	3670.6	
189.93	3805.8	
190.15	5894.1	
190.36	7172	
190.57	4130.8	
190.79	3971	
191	6068.8	
191.22	6061.3	
191.43	4147.1	
191.64	3346.4	
191.86	6249	
192.07	5872.9	
192.29	3517.7	
192.5	3779.2	
192.71	5966.4	
192.93	5173.9	
193.14	3663.8	
193.35	3792.8	
193.57	5148.6	
193.78	5874.9	
194	2906.1	
194.21	3620.1	
194.42	4966.3	
194.64	5416.9	
194.85	4040	
195.07	4735.6	
195.28	5435.3	
195.49	4711	
195.71	4911	
195.92	3442	
196.13	5639.4	
196.35	5764.3	
196.56	5234.6	
196.78	4023.6	
196.99	7021.8	
197.2	6566.5	
197.42	4634.6	
197.63	4017.4	
197.84	4831.8	
198.06	5578	
198.27	3710.2	
198.48	4963.6	
198.7	5201.8	
198.91	5288.5	
199.13	4007.9	
199.34	3990.1	
199.55	5750	
199.77	4698.7	
199.98	3489.1	
200.19	4149.9	
200.41	5287.9	
200.62	5013.4	
200.83	4231.8	
201.05	4513	
201.26	5229.1	
201.47	5004.6	
201.69	3550.5	
201.9	3425.6	
202.11	5335	
202.33	6406.7	
202.54	3848.1	
202.76	4214.7	
202.97	5487.9	
203.18	5499.5	
203.4	4211.3	
203.61	4108.9	
203.82	5468.1	
204.04	5056.4	
204.25	4046.1	
204.46	4031.8	
204.68	5416.9	
204.89	5654.4	
205.1	3938.2	
205.32	3406.5	
205.53	5793.7	
205.74	5960.3	
205.96	2944.3	
206.17	4123.2	
206.38	5758.9	
206.6	5973.2	
206.81	4620.2	
207.02	3779.9	
207.24	5618.3	
207.45	6094.8	
207.66	3852.2	
207.88	3282.9	
208.09	5586.9	
208.3	5443.5	
208.52	3521.8	
208.73	3819.5	
208.94	5374.6	
209.15	6112.5	
209.37	3817.4	
209.58	4042	
209.79	5946.6	
210.01	5211.4	
210.22	3039.9	
210.43	3272	
210.65	5375.2	
210.86	5855.8	
211.07	3833.8	
211.29	3517	
211.5	5651	
211.71	5291.3	
211.93	3536.2	
212.14	3482.9	
212.35	5349.3	
212.56	5578.7	
212.78	4063.9	
212.99	3340.2	
213.2	6389	
213.42	5126.1	
213.63	3683.6	
213.84	3867.2	
214.06	4782.7	
214.27	4904.9	
214.48	3867.9	
214.69	4111.6	
214.91	6068.8	
215.12	6168.5	
215.33	4156	
215.55	4580.6	
215.76	6662	
215.97	5808.7	
216.18	3995.6	
216.4	3872	
216.61	5039.4	
216.82	5823.7	
217.04	3543	
217.25	3678.8	
217.46	6034	
217.67	5791	
217.89	3136.1	
218.1	3284.3	
218.31	5475.6	
218.53	5612.8	
218.74	3712.3	
218.95	3622.2	
219.16	5339.7	
219.38	6266.8	
219.59	3666.5	
219.8	4248.9	
220.01	7029.3	
220.23	5420.3	
220.44	4705.5	
220.65	3501.3	
220.87	5421.7	
221.08	6048.3	
221.29	3267.9	
221.5	4364.9	
221.72	7394.5	
221.93	5108.3	
222.14	4090.5	
222.35	4813.4	
222.57	5455.8	
222.78	5809.4	
222.99	3876.8	
223.2	4132.8	
223.42	5686.5	
223.63	5799.8	
223.84	3020.1	
224.05	2954.5	
224.27	6969.2	
224.48	6257.9	
224.69	4775.9	
224.9	4115.1	
225.12	5553.4	
225.33	5347.9	
225.54	3284.9	
225.75	3652.9	
225.97	4955.4	
226.18	5235.3	
226.39	3903.4	
226.6	3614.7	
226.82	5160.9	
227.03	5058.5	
227.24	4091.8	
227.45	3359.4	
227.67	5725.4	
227.88	6401.3	
228.09	4547.2	
228.3	4552.6	
228.52	5806	
228.73	5326.1	
228.94	3759.4	
229.15	3303.4	
229.36	5332.9	
229.58	5242.8	
229.79	3764.2	
230	4419.5	
230.21	6429.9	
230.43	5483.1	
230.64	4001	
230.85	4184	
231.06	5816.9	
231.28	5872.9	
231.49	3379.1	
231.7	3949.8	
231.91	5756.8	
232.12	5372.5	
232.34	3413.3	
232.55	3921.9	
232.76	6032	
232.97	5591	
233.18	3592.8	
233.4	3923.9	
233.61	5651.7	
233.82	5092.6	
234.03	3747.8	
234.25	3658.4	
234.46	7488.1	
234.67	5478.3	
234.88	4151.2	
235.09	3589.4	
235.31	5793	
235.52	5266	
235.73	4046.8	
235.94	3371.6	
236.15	5104.9	
236.37	6556.2	
236.58	3547.8	
236.79	3896.6	
237	5699.5	
237.21	4866	
237.43	4144.4	
237.64	3244	
237.85	9766.8	
238.06	4943.1	
238.27	4218.8	
238.48	3389.4	
238.7	5748	
238.91	5247.6	
239.12	3870.7	
239.33	3872.7	
239.54	5103.5	
239.76	5307	
239.97	3809.9	
240.18	3859.7	
240.39	6795.2	
240.6	5664.7	
240.82	3962.1	
241.03	3306.1	
241.24	5368.4	
241.45	6290.7	
241.66	3507.5	
241.87	4197	
242.09	6083.8	
242.3	6476.4	
242.51	4235.2	
242.72	3893.2	
242.93	5870.8	
243.14	5330.9	
243.36	4531.5	
243.57	4834.6	
243.78	6309.8	
243.99	5692	
244.2	3891.8	
244.41	3537.5	
244.63	4930.8	
244.84	5735.7	
245.05	4124.6	
245.26	3877.5	
245.47	5678.3	
245.68	5927.5	
245.9	5139	
246.11	4046.8	
246.32	5233.2	
246.53	5680.4	
246.74	6309.1	
246.95	3288.4	
247.16	4932.9	
247.38	5389.6	
247.59	3252.2	
247.8	3920.5	
248.01	5110.4	
248.22	5326.1	
248.43	3497.2	
248.64	3799.7	
248.86	4794.3	
249.07	5145.2	
249.28	3417.4	
249.49	3957.4	
249.7	5939.8	
249.91	6047	
250.12	3182.5	
250.34	3242.6	
250.55	5522	
250.76	5394.3	
250.97	3971.7	
251.18	4072	
251.39	6090	
251.6	5540.4	
251.81	4110.3	
252.03	4125.3	
252.24	5172.5	
252.45	5924.1	
252.66	3300	
252.87	4298	
253.08	5408.7	
253.29	7098.9	
253.5	3337.5	
253.72	4748.6	
253.93	5193.6	
254.14	6419	
254.35	3701.4	
254.56	3800.3	
254.77	5664.7	
254.98	4992.9	
255.19	3638.6	
255.41	4718.5	
255.62	5530.2	
255.83	6093.4	
256.04	4152.6	
256.25	4049.5	
256.46	6602.7	
256.67	5057.1	
256.88	3992.9	
257.09	4462.5	
257.31	5052.3	
257.52	5116.5	
257.73	5101.5	
257.94	3669.3	
258.15	5255.1	
258.36	5412.8	
258.57	4633.2	
258.78	2927.2	
258.99	5902.9	
259.2	5195	
259.41	3682.2	
259.63	3830.4	
259.84	6263.4	
260.05	6717.3	
260.26	4891.9	
260.47	3609.2	
260.68	5958.9	
260.89	5324	
261.1	4476.9	
261.31	3566.9	
261.52	5967.8	
261.73	6369.2	
261.95	4730.1	
262.16	4186	
262.37	6109.1	
262.58	6179.4	
262.79	4797.7	
263	3799	
263.21	5407.3	
263.42	4915.8	
263.63	3773	
263.84	3720.5	
264.05	5996.5	
264.26	6350.8	
264.47	4634.6	
264.69	4174.4	
264.9	6090	
265.11	5646.9	
265.32	3560.1	
265.53	3657.7	
265.74	5589.6	
265.95	4837.3	
266.16	3942.3	
266.37	4336.9	
266.58	5515.9	
266.79	5233.9	
267	3676.1	
267.21	3433.1	
267.42	5031.2	
267.63	5400.5	
267.84	3906.8	
268.06	3319.1	
268.27	5780.7	
268.48	6105	
268.69	3761.4	
268.9	4433.2	
269.11	6113.2	
269.32	4903.5	
269.53	3902.7	
269.74	3605.1	
269.95	5715.2	
270.16	4760.8	
270.37	3913.7	
270.58	4476.9	
270.79	5276.9	
271	5937.1	
271.21	4098.7	
271.42	3890.5	
271.63	5541.1	
271.84	5040.7	
272.05	3116.3	
272.26	3476.8	
272.47	5451.7	
272.68	5597.8	
272.89	3725.3	
273.11	4306.9	
273.32	5185.5	
273.53	6429.3	
273.74	4181.3	
273.95	4049.5	
274.16	6087.2	
274.37	5489.9	
274.58	4234.5	
274.79	3419.4	
275	5480.4	
275.21	6092.7	
275.42	5139.7	
275.63	4380.6	
275.84	5705	
276.05	7167.2	
276.26	4093.2	
276.47	3829	
276.68	5295.4	
276.89	6430.6	
277.1	4428.4	
277.31	3412.6	
277.52	5698.1	
277.73	5828.5	
277.94	3374.4	
278.15	3753.2	
278.36	5633.3	
278.57	5027.8	
278.78	3736.9	
278.99	4224.3	
279.2	4988.2	
279.41	5016.2	
279.62	4928.1	
279.83	3487.7	
280.04	6625.2	
280.25	4956.1	
280.46	4835.9	
280.67	3874.8	
280.88	4978.6	
281.09	6078.4	
281.3	4067.3	
281.51	5157.5	
281.72	5123.3	
281.93	5929.6	
282.14	3575.1	
282.35	3928.7	
282.56	5892	
282.77	5947.3	
282.98	3739.6	
283.19	4625.7	
283.4	7254.6	
283.61	5323.4	
283.82	3361.4	
284.03	4833.2	
284.24	5532.2	
284.45	6068.1	
284.66	4794.3	
284.87	4562.2	
285.08	5965.1	
285.29	6154.8	
285.5	3296.5	
285.71	3842.7	
285.92	5997.1	
286.12	6649.1	
286.33	4767.7	
286.54	3792.2	
286.75	5900.9	
286.96	5299.5	
287.17	3467.9	
287.38	4697.4	
287.59	5018.9	
287.8	4961.5	
288.01	3802.4	
288.22	4401.8	
288.43	5913.9	
288.64	4956.8	
288.85	4498.7	
289.06	4358.1	
289.27	5851	
289.48	6315.3	
289.69	4875.5	
289.9	4337.6	
290.11	6063.4	
290.32	5130.2	
290.53	4616.1	
290.74	4183.3	
290.94	5808.7	
291.15	5880.4	
291.36	3683.6	
291.57	4386.7	
291.78	5156.1	
291.99	4848.2	
292.2	3467.9	
292.41	4207.9	
292.62	5952.8	
292.83	5767.8	
293.04	5221.6	
293.25	3504.1	
293.46	5261.2	
293.67	6030.6	
293.88	3653.6	
294.09	3496.6	
294.29	4941.7	
294.5	5556.1	
294.71	3956	
294.92	3676.1	
295.13	5182	
295.34	6556.2	
295.55	3251.5	
295.76	3364.1	
295.97	5853.8	
296.18	6595.1	
296.39	3398.3	
296.6	3650.2	
296.81	5451.7	
297.01	5873.6	
297.22	3778.5	
297.43	3614	
297.64	5062.6	
297.85	5015.5	
298.06	3040.6	
298.27	3291.8	
298.48	5453.7	
298.69	5115.8	
298.9	3919.8	
299.11	3567.6	
299.31	4912.4	
299.52	4962.2	
299.73	4242.7	
299.94	4106.9	
300.15	5417.6	
300.36	5066.7	
300.57	4162.2	
300.78	4093.2	
300.99	5273.5	
301.2	5520	
301.4	3609.9	
301.61	3896.6	
301.82	5727.5	
302.03	5830.6	
302.24	4407.9	
302.45	3461.7	
302.66	5668.1	
302.87	6152.1	
303.08	3605.1	
303.29	5016.8	
303.49	5152	
303.7	5467.4	
303.91	3262.4	
304.12	4709.6	
304.33	4915.1	
304.54	5560.2	
304.75	3684.3	
304.96	3493.2	
305.16	5733.6	
305.37	6479.8	
305.58	3187.3	
305.79	3302	
306	5789.6	
306.21	4846.9	
306.42	3620.1	
306.63	5543.9	
306.83	5326.8	
307.04	6090	
307.25	3990.1	
307.46	3969	
307.67	4648.2	
307.88	5917.3	
308.09	3558	
308.29	3772.4	
308.5	5500.2	
308.71	6023.1	
308.92	3827	
309.13	3506.1	
309.34	5376.6	
309.55	5373.9	
309.75	4517.8	
309.96	4166.9	
310.17	5791	
310.38	5080.3	
310.59	4367.6	
310.8	3420.8	
311.01	5234.6	
311.21	5291.3	
311.42	3485	
311.63	3562.8	
311.84	5143.8	
312.05	5552	
312.26	4120.5	
312.46	4420.2	
312.67	5227.1	
312.88	4941.7	
313.09	3507.5	
313.3	3413.3	
313.51	6201.9	
313.71	6578.1	
313.92	3482.9	
314.13	3715	
314.34	5593.7	
314.55	5339.1	
314.76	4496	
314.96	3953.9	
315.17	5514.5	
315.38	5839.4	
315.59	3552.5	
315.8	3336.8	
316.01	6278.4	
316.21	6352.1	
316.42	3382.6	
316.63	3932.1	
316.84	5266.7	
317.05	6100.9	
317.26	4124.6	
317.46	3789.4	
317.67	5346.6	
317.88	5798.5	
318.09	4484.4	
318.3	3270.6	
318.5	5134.3	
318.71	5774.6	
318.92	5780.1	
319.13	4147.8	
319.34	5895.4	
319.54	6057.9	
319.75	3303.4	
319.96	3119.7	
320.17	5850.4	
320.38	5972.6	
320.58	3185.3	
320.79	3894.6	
321	6064.7	
321.21	6154.1	
321.42	3923.2	
321.62	3221.5	
321.83	5049.6	
322.04	5474.2	
322.25	3689.1	
322.46	3571	
322.66	5547.9	
322.87	5684.5	
323.08	4365.6	
323.29	3472.7	
323.5	6503	
323.7	4908.3	
323.91	4769	
324.12	4328	
324.33	5485.1	
324.53	5750	
324.74	4196.3	
324.95	4357.4	
325.16	4796.3	
325.37	5214.8	
325.57	3561.4	
325.78	3581.9	
325.99	5464	
326.2	4926.7	
326.4	5143.1	
326.61	3224.2	
326.82	5370.5	
327.03	5484.5	
327.24	5037.3	
327.44	4807.9	
327.65	5690.6	
327.86	4581.3	
328.07	4088.4	
328.27	3403.7	
328.48	6059.3	
328.69	5028.4	
328.9	5113.8	
329.1	3814.7	
329.31	5287.2	
329.52	6220.4	
329.73	3560.7	
329.93	3967.6	
330.14	5415.5	
330.35	5687.2	
330.56	5843.5	
330.76	4425	
330.97	5238	
331.18	5655.1	
331.39	3950.5	
331.59	3204.4	
331.8	5986.9	
332.01	6173.9	
332.22	3617.4	
332.42	4171	
332.63	5507	
332.84	5126.7	
333.05	4019.5	
333.25	3565.5	
333.46	5177.3	
333.67	5439.4	
333.88	3659	
334.08	4115.7	
334.29	8579.6	
334.5	6086.6	
334.7	3404.4	
334.91	5076.2	
335.12	4969.7	
335.33	5806	
335.53	3915	
335.74	5815.5	
335.95	5203.9	
336.16	5058.5	
336.36	3956	
336.57	4535.6	
336.78	4937	
336.98	6042.9	
337.19	4885.1	
337.4	3870.7	
337.61	6580.8	
337.81	5011.4	
338.02	3608.5	
338.23	4671.4	
338.43	6178	
338.64	5024.3	
338.85	3551.9	
339.05	4723.3	
339.26	6198.5	
339.47	4849.6	
339.68	3500	
339.88	5245.5	
340.09	5642.2	
340.3	5898.1	
340.5	4132.1	
340.71	3134.1	
340.92	4868	
341.13	6174.6	
341.33	3432.4	
341.54	4192.2	
341.75	5698.8	
341.95	5314.5	
342.16	4022.2	
342.37	4311	
342.57	4988.9	
342.78	5394.3	
342.99	4454.3	
343.19	3177.8	
343.4	5812.8	
343.61	5695.4	
343.81	3723.9	
344.02	3475.4	
344.23	5839.4	
344.43	6278.4	
344.64	4384	
344.85	4322.6	
345.06	5690.6	
345.26	5980.8	
345.47	4085	
345.68	4805.9	
345.88	4721.9	
346.09	5917.3	
346.3	4234.5	
346.5	3135.4	
346.71	5439.4	
346.92	5143.1	
347.12	3219.4	
347.33	4072.7	
347.54	5951.4	
347.74	6399.9	
347.95	4026.3	
348.16	2998.9	
348.36	5194.3	
348.57	4934.9	
348.78	4074.1	
348.98	4338.3	
349.19	5363.6	
349.39	4926.7	
349.6	3183.2	
349.81	3571.7	
350.01	5684.5	
350.22	5080.3	
350.43	3923.9	
350.63	4764.3	
350.84	5502.2	
351.05	5261.2	
351.25	3586.7	
351.46	3212.6	
351.67	5992.4	
351.87	5147.9	
352.08	3833.1	
352.29	4369.7	
352.49	5834.7	
352.7	5999.2	
352.9	3445.4	
353.11	4282.3	
353.32	6570.6	
353.52	5190.9	
353.73	3429	
353.94	4373.1	
354.14	5669.5	
354.35	5529.5	
354.55	3450.1	
354.76	3992.9	
354.97	5653.1	
355.17	5424.4	
355.38	3340.9	
355.59	4670.7	
355.79	5042.8	
356	5486.5	
356.2	3827.7	
356.41	3379.1	
356.62	4796.3	
356.82	5313.8	
357.03	4156.7	
357.24	3733.4	
357.44	5111.7	
357.65	5195	
357.85	5031.2	
358.06	3932.1	
358.27	4831.2	
358.47	5078.3	
358.68	3269.2	
358.88	4092.5	
359.09	5709.7	
359.3	6008.1	
359.5	4789.5	
359.71	4262.5	
359.91	6443.6	
360.12	5801.2	
360.33	4106.2	
360.53	4587.4	
360.74	5072.1	
360.94	5176.6	
361.15	4285	
361.36	3527.3	
361.56	5796.4	
361.77	5252.4	
361.97	4791.6	
362.18	3739.6	
362.38	5865.4	
362.59	4994.3	
362.8	3452.2	
363	3270.6	
363.21	4753.3	
363.41	5422.3	
363.62	4004.5	
363.83	4984.8	
364.03	5510.4	
364.24	6492.1	
364.44	5102.2	
364.65	5109	
364.85	5217.5	
365.06	5086.5	
365.27	3659	
365.47	3635.1	
365.68	6307.7	
365.88	5192.3	
366.09	4042	
366.29	3744.4	
366.5	5461.2	
366.71	5962.3	
366.91	5010.7	
367.12	4185.4	
367.32	6522.8	
367.53	5797.8	
367.73	4104.8	
367.94	5078.3	
368.14	5670.1	
368.35	6670.2	
368.56	4093.9	
368.76	3584.6	
368.97	5830.6	
369.17	7545.4	
369.38	3603.7	
369.58	3876.8	
369.79	4847.5	
369.99	6174.6	
370.2	4926	
370.4	3964.2	
370.61	5477.6	
370.82	6728.3	
371.02	3829	
371.23	3183.9	
371.43	4720.6	
371.64	6047	
371.84	3878.2	
372.05	5066.7	
372.25	7388.4	
372.46	5866.7	
372.66	3867.2	
372.87	3839.3	
373.07	5855.8	
373.28	7562.5	
373.48	4877.6	
373.69	4590.9	
373.9	5281	
374.1	5313.8	
374.31	4797	
374.51	4347.8	
374.72	6184.9	
374.92	4976.6	
375.13	5012.7	
375.33	4118.5	
375.54	5620.3	
375.74	5102.9	
375.95	4208.6	
376.15	5414.8	
376.36	5680.4	
376.56	5552.7	
376.77	4248.2	
376.97	4702.8	
377.18	6677.1	
377.38	5745.2	
377.59	5068.7	
377.79	3667.2	
378	5573.9	
378.2	5929.6	
378.41	3800.3	
378.61	3682.2	
378.82	5984.2	
379.02	5087.2	
379.23	3934.8	
379.43	5127.4	
379.64	6016.9	
379.84	5621.7	
380.05	3728.7	
380.25	3711.6	
380.46	5836.7	
380.66	5386.8	
380.87	5122.7	
381.07	5467.4	
381.28	6495.5	
381.48	5799.8	
381.69	3839.3	
381.89	3837.2	
382.1	4768.4	
382.3	5930.2	
382.51	4955.4	
382.71	5859.2	
382.91	5814.9	
383.12	6297.5	
383.32	4165.6	
383.53	4441.4	
383.73	5665.4	
383.94	5417.6	
384.14	4314.4	
384.35	3439.2	
384.55	5416.2	
384.76	5838.8	
384.96	4169	
385.17	4536.9	
385.37	5722.7	
385.58	5116.5	
385.78	4543.8	
385.98	3323.9	
386.19	5357.5	
386.39	5700.9	
386.6	3945.8	
386.8	4235.2	
387.01	5773.9	
387.21	5866.7	
387.42	4629.1	
387.62	5188.9	
387.83	5128.8	
388.03	5806.7	
388.23	4252.9	
388.44	5036.6	
388.64	4777.9	
388.85	4920.6	
389.05	4605.9	
389.26	5108.3	
389.46	6808.8	
389.67	6264.7	
389.87	4541.7	
390.07	4591.5	
390.28	5379.3	
390.48	4996.4	
390.69	3734.8	
390.89	4094.6	
391.1	5182	
391.3	6105	
391.5	5236	
391.71	5878.4	
391.91	5833.3	
392.12	6929	
392.32	5333.6	
392.53	4619.5	
392.73	5231.2	
392.93	5440.8	
393.14	4237.9	
393.34	4973.2	
393.55	5984.8	
393.75	5451	
393.95	4243.4	
394.16	4186.7	
394.36	5202.5	
394.57	5915.9	
394.77	3665.9	
394.98	4177.9	
395.18	5147.9	
395.38	5324.7	
395.59	5052.3	
395.79	3896.6	
396	5240.1	
396.2	5699.5	
396.4	4720.6	
396.61	4687.8	
396.81	5913.9	
397.02	5156.8	
397.22	4984.8	
397.42	5013.4	
397.63	5917.9	
397.83	5029.8	
398.04	3831.1	
398.24	4371	
398.44	5668.1	
398.65	4704.2	
398.85	3682.9	
399.05	3797.6	
399.26	5049.6	
399.46	6824.5	
399.67	4144.4	
399.87	3910.3	
400.07	5405.3	
400.28	5769.1	
400.48	3984	
400.69	5068.7	
400.89	6003.3	
401.09	6402.6	
401.3	3824.2	
401.5	5025	
401.7	6726.9	
401.91	6915.3	
402.11	4170.3	
402.32	4334.9	
402.52	5981.4	
402.72	5973.2	
402.93	4648.2	
403.13	3516.4	
403.33	6785.6	
403.54	5511.8	
403.74	4354	
403.94	5267.4	
404.15	5629.9	
404.35	6679.1	
404.56	4104.8	
404.76	5963	
404.96	5988.9	
405.17	5781.4	
405.37	5358.2	
405.57	4616.8	
405.78	6083.8	
405.98	5466	
406.18	4085	
406.39	5095.3	
406.59	6002.6	
406.79	5664	
407	4026.3	
407.2	4057	
407.4	6019	
407.61	6275	
407.81	4022.9	
408.01	5965.7	
408.22	4878.9	
408.42	7005.4	
408.62	5125.4	
408.83	4521.9	
409.03	5542.5	
409.23	5332.2	
409.44	4566.3	
409.64	4892.6	
409.84	6435.4	
410.05	6297.5	
410.25	4677.6	
410.45	4440	
410.66	5751.4	
410.86	8270.4	
411.06	4820.9	
411.27	4760.8	
411.47	7942.7	
411.67	5937.7	
411.88	4942.4	
412.08	5176.6	
412.28	6557.6	
412.49	7059.3	
412.69	4648.2	
412.89	4648.9	
413.09	6888.7	
413.3	6705	
413.5	4698	
413.7	4294.6	
413.91	5878.4	
414.11	6817.7	
414.31	4496.7	
414.52	4959.5	
414.72	6514.6	
414.92	6403.3	
415.12	4555.4	
415.33	5059.8	
415.53	6752.8	
415.73	6910.5	
415.94	5408.7	
416.14	4816.8	
416.34	5689.3	
416.55	5467.4	
416.75	6023.8	
416.95	5477	
417.15	6718.7	
417.36	7476.5	
417.56	6283.2	
417.76	5285.1	
417.97	7120.8	
418.17	6724.2	
418.37	4834.6	
418.57	4898.7	
418.78	6513.2	
418.98	6141.9	
419.18	5855.8	
419.38	5691.3	
419.59	6260.6	
419.79	5868.8	
419.99	4769	
420.2	5160.2	
420.4	6727.6	
420.6	6929	
420.8	4681	
421.01	4560.8	
421.21	6515.3	
421.41	6746	
421.61	5109	
421.82	4784.7	
422.02	6032	
422.22	7076.4	
422.42	5638.1	
422.63	5318.6	
422.83	6165.8	
423.03	7434.1	
423.23	5315.8	
423.44	4229.7	
423.64	6308.4	
423.84	6059.9	
424.04	4721.9	
424.25	4362.9	
424.45	7249.1	
424.65	7169.9	
424.85	4131.4	
425.06	4736.3	
425.26	7168.6	
425.46	6156.2	
425.66	5210	
425.87	4989.5	
426.07	6995.9	
426.27	6844.3	
426.47	5107	
426.67	4453	
426.88	7288	
427.08	6683.9	
427.28	5321.3	
427.48	4347.8	
427.69	5607.3	
427.89	6282.5	
428.09	5298.1	
428.29	4440.7	
428.5	7058.7	
428.7	6523.5	
428.9	4341	
429.1	4892.6	
429.3	6419	
429.51	6789.7	
429.71	4693.3	
429.91	5481.7	
430.11	6716	
430.31	6959.7	
430.52	4988.2	
430.72	5197.7	
430.92	7322.9	
431.12	6728.9	
431.32	4638	
431.53	5089.2	
431.73	5566.4	
431.93	7334.5	
432.13	4491.9	
432.33	4370.4	
432.54	6094.1	
432.74	6496.8	
432.94	4270	
433.14	5393.7	
433.34	6670.9	
433.55	6131.6	
433.75	5367	
433.95	7135.8	
434.15	6428.6	
434.35	6113.2	
434.56	4517.1	
434.76	3919.8	
434.96	6389	
435.16	6534.4	
435.36	4374.5	
435.56	5583.4	
435.77	6008.7	
435.97	6128.9	
436.17	6112.5	
436.37	5402.5	
436.57	5973.9	
436.78	5819	
436.98	5429.8	
437.18	5992.4	
437.38	6657.9	
437.58	6221.7	
437.78	6193.7	
437.99	4735.6	
438.19	6627.2	
438.39	7464.8	
438.59	4764.3	
438.79	4218.1	
438.99	7441	
439.2	6268.1	
439.4	4398.4	
439.6	4322.6	
439.8	6485.9	
440	7486.7	
440.2	5375.9	
440.4	5472.9	
440.61	6866.8	
440.81	7456	
441.01	4490.5	
441.21	5385.5	
441.41	7239.6	
441.61	6847	
441.81	5736.4	
442.02	6722.1	
442.22	7724.9	
442.42	6976.1	
442.62	4524	
442.82	4583.4	
443.02	7220.5	
443.22	6292	
443.43	4985.4	
443.63	4509.6	
443.83	6077.7	
444.03	6186.2	
444.23	5811.5	
444.43	5303.6	
444.63	6399.2	
444.83	7687.4	
445.04	4594.3	
445.24	5867.4	
445.44	6860	
445.64	6920.8	
445.84	5497.4	
446.04	5455.8	
446.24	6234	
446.44	7231.4	
446.65	4649.6	
446.85	5077.6	
447.05	6465.4	
447.25	7231.4	
447.45	5173.9	
447.65	4511.7	
447.85	6565.1	
448.05	6215.6	
448.25	5621	
448.46	5373.2	
448.66	6562.4	
448.86	6244.9	
449.06	4285.7	
449.26	5565	
449.46	6883.2	
449.66	5897.5	
449.86	5032.5	
450.06	5005.9	
450.26	6109.8	
450.47	6778.8	
450.67	5330.2	
450.87	5647.6	
451.07	6769.9	
451.27	6565.1	
451.47	4555.4	
451.67	5158.8	
451.87	6238.8	
452.07	7418.4	
452.27	4837.3	
452.47	4784.7	
452.67	6526.2	
452.88	7185.6	
453.08	4213.4	
453.28	6264.1	
453.48	7734.5	
453.68	6481.1	
453.88	4690.5	
454.08	4954.7	
454.28	6790.4	
454.48	6445	
454.68	5485.8	
454.88	6065.4	
455.08	7062.1	
455.28	6690.7	
455.48	4615.4	
455.68	5140.4	
455.89	7445.7	
456.09	7095.5	
456.29	4919.9	
456.49	4868.7	
456.69	7314	
456.89	6535.8	
457.09	5477.6	
457.29	5831.2	
457.49	6860.7	
457.69	6967.9	
457.89	5216.2	
458.09	4642.7	
458.29	6526.2	
458.49	7314.7	
458.69	5687.9	
458.89	5044.8	
459.09	7417.1	
459.29	7628	
459.49	5151.3	
459.69	5971.2	
459.9	7092.8	
460.1	6541.9	
460.3	5150.6	
460.5	4799.8	
460.7	7055.9	
460.9	6771.9	
461.1	4465.9	
461.3	5774.6	
461.5	7716.7	
461.7	7262.8	
461.9	4876.2	
462.1	5453.1	
462.3	6693.4	
462.5	7373.4	
462.7	4846.2	
462.9	5049.6	
463.1	8292.9	
463.3	7960.5	
463.5	5241.4	
463.7	6090	
463.9	6825.9	
464.1	7202	
464.3	5265.3	
464.5	5549.3	
464.7	7570	
464.9	7057.3	
465.1	6900.3	
465.3	5862.7	
465.5	7888.1	
465.7	7731.8	
465.9	6076.3	
466.1	6021	
466.3	7671.7	
466.5	7474.4	
466.7	6871.6	
466.9	5674.2	
467.1	7331.7	
467.3	8288.1	
467.5	6685.9	
467.7	5550	
467.9	8477.9	
468.1	9320.3	
468.3	6380.8	
468.5	6754.2	
468.7	7275.8	
468.9	7327.6	
469.1	5801.9	
469.3	6433.4	
469.5	9147.6	
469.7	6836.1	
469.9	6313.9	
470.1	5567.1	
470.3	7230	
470.5	7288.7	
470.7	6867.5	
470.9	5686.5	
471.1	6998.6	
471.3	7518.8	
471.5	5477	
471.69	7382.9	
471.89	6881.2	
472.09	6419	
472.29	6320.7	
472.49	6640.2	
472.69	6646.3	
472.89	7558.4	
473.09	5287.2	
473.29	5599.8	
473.49	6829.3	
473.69	7026.6	
473.89	6552.1	
474.09	5688.6	
474.29	8284.7	
474.49	8011.7	
474.69	6514.6	
474.89	5887.9	
475.09	7060.7	
475.29	7016.3	
475.49	5252.4	
475.69	5510.4	
475.88	8703.2	
476.08	7374.7	
476.28	5105.6	
476.48	5754.1	
476.68	7811.6	
476.88	7645.7	
477.08	5560.9	
477.28	5902.9	
477.48	7178.8	
477.68	7838.3	
477.88	5341.8	
478.08	5716.6	
478.28	8099.7	
478.48	7323.5	
478.67	5689.3	
478.87	5201.8	
479.07	7932.5	
479.27	7377.5	
479.47	6002.6	
479.67	5879	
479.87	7763.8	
480.07	8342.7	
480.27	5120.6	
480.47	6777.4	
480.67	7381.6	
480.87	8031.5	
481.06	5508.4	
481.26	6332.3	
481.46	7301.7	
481.66	7273	
481.86	5905	
482.06	6964.5	
482.26	7042.3	
482.46	7932.5	
482.66	5898.8	
482.86	5476.3	
483.05	7337.9	
483.25	6819.7	
483.45	8348.9	
483.65	5909.1	
483.85	7038.9	
484.05	7283.9	
484.25	6351.4	
484.45	6722.1	
484.65	8187.1	
484.84	8092.9	
485.04	5749.3	
485.24	5734.3	
485.44	8431.5	
485.64	6735.1	
485.84	5012.1	
486.04	6499.6	
486.24	7114.6	
486.44	7470.3	
486.63	5033.9	
486.83	5755.5	
487.03	6936.5	
487.23	7190.4	
487.43	5146.5	
487.63	7460.8	
487.83	7218.4	
488.02	8323.6	
488.22	6049	
488.42	6720.8	
488.62	8104.5	
488.82	7027.9	
489.02	5691.3	
489.22	5756.2	
489.41	7956.4	
489.61	7561.8	
489.81	5536.3	
490.01	5522	
490.21	7865.6	
490.41	8490.9	
490.61	5420.3	
490.8	5598.5	
491	7346.7	
491.2	6683.9	
491.4	6199.9	
491.6	5304.2	
491.8	7343.3	
491.99	7554.3	
492.19	5159.5	
492.39	5521.3	
492.59	7996.6	
492.79	7970.7	
492.99	6328.9	
493.18	5522.7	
493.38	8045.1	
493.58	8813.8	
493.78	6217	
493.98	5816.9	
494.18	7704.5	
494.37	7146.7	
494.57	6346.7	
494.77	6243.6	
494.97	7903.8	
495.17	8081.3	
495.37	5745.9	
495.56	6031.3	
495.76	8275.2	
495.96	7892.9	
496.16	6948.1	
496.36	5861.3	
496.55	8082	
496.75	7641.7	
496.95	6308.4	
497.15	6143.2	
497.35	8066.9	
497.54	8088.8	
497.74	5977.3	
497.94	7718.1	
498.14	8781	
498.34	8594.6	
498.53	5651	
498.73	6466.8	
498.93	7455.3	
499.13	7991.2	
499.33	6193.7	
499.52	6764.4	
499.72	7886.7	
499.92	8238.3	
500.12	5840.1	
500.32	6197.2	
500.51	8202.1	
500.71	8019.8	
500.91	6954.2	
501.11	6574.7	
501.31	8056.7	
501.5	8584.4	
501.7	7283.9	
501.9	6141.2	
502.1	7908.6	
502.29	8221.2	
502.49	6623.8	
502.69	7088.7	
502.89	8067.6	
503.09	8157.1	
503.28	5700.9	
503.48	5797.8	
503.68	7390.4	
503.88	7417.1	
504.07	6798.6	
504.27	6298.2	
504.47	7791.8	
504.67	7915.4	
504.86	6744.6	
505.06	6423.8	
505.26	7451.9	
505.46	9365.4	
505.65	6257.2	
505.85	6475.7	
506.05	7387	
506.25	7901.1	
506.44	5607.3	
506.64	6663.4	
506.84	7323.5	
507.04	8243.1	
507.23	5879.7	
507.43	6412.2	
507.63	9380.4	
507.83	7557	
508.02	6414.9	
508.22	5954.8	
508.42	9533.3	
508.62	7299	
508.81	6293.4	
509.01	6870.9	
509.21	7222.5	
509.4	7533.1	
509.6	6538.5	
509.8	5870.2	
510	7479.2	
510.19	8998.1	
510.39	5892	
510.59	5945.9	
510.79	7277.1	
510.98	8624	
511.18	5982.1	
511.38	5988.9	
511.57	8116.1	
511.77	8021.2	
511.97	6744	
512.17	5809.4	
512.36	8147.5	
512.56	8068.3	
512.76	5931.6	
512.95	5547.3	
513.15	8269	
513.35	6793.8	
513.55	6625.9	
513.74	5866.1	
513.94	8207.6	
514.14	7503.8	
514.33	6908.5	
514.53	6578.8	
514.73	7473	
514.92	7732.4	
515.12	5996.5	
515.32	5803.3	
515.51	7884.7	
515.71	8391.2	
515.91	7579.5	
516.11	5950.7	
516.3	9366.7	
516.5	7464.8	
516.7	6421.7	
516.89	7123.5	
517.09	7494.9	
517.29	7414.3	
517.48	6711.9	
517.68	6210.8	
517.88	7194.5	
518.07	7911.3	
518.27	6608.1	
518.47	5758.2	
518.66	8463.6	
518.86	7105.8	
519.06	5570.5	
519.25	6070.9	
519.45	7477.8	
519.65	8924.4	
519.84	6677.1	
520.04	7335.8	
520.24	9222.7	
520.43	8075.8	
520.63	6348.7	
520.83	6071.5	
521.02	7281.2	
521.22	7966.6	
521.42	6630	
521.61	7196.6	
521.81	7517.4	
522.01	7726.3	
522.2	6561.7	
522.4	6327.5	
522.6	8268.3	
522.79	6988.4	
522.99	6414.9	
523.18	5692	
523.38	7933.1	
523.58	7919.5	
523.77	7627.3	
523.97	5547.9	
524.17	9696.4	
524.36	9009	
524.56	7072.3	
524.76	6589.7	
524.95	7852.6	
525.15	7499.7	
525.34	6334.4	
525.54	6355.5	
525.74	8030.1	
525.93	7163.8	
526.13	7511.3	
526.33	6288.6	
526.52	8520.9	
526.72	7959.1	
526.91	7529.7	
527.11	6763.1	
527.31	8581.7	
527.5	8899.1	
527.7	6698.2	
527.89	5743.9	
528.09	7376.1	
528.29	7943.4	
528.48	7061.4	
528.68	6750.8	
528.87	8388.5	
529.07	8436.3	
529.27	6620.4	
529.46	6067.4	
529.66	7854.6	
529.85	8353	
530.05	5910.4	
530.25	6731.7	
530.44	9396.8	
530.64	7891.5	
530.83	6397.9	
531.03	6700.3	
531.23	8383	
531.42	8292.2	
531.62	7382.9	
531.81	6619	
532.01	8445.1	
532.21	8947.6	
532.4	6297.5	
532.6	6612.2	
532.79	9396.1	
532.99	8467	
533.18	6642.9	
533.38	7737.2	
533.58	7979.6	
533.77	8759.2	
533.97	6591	
534.16	7435.5	
534.36	8961.9	
534.55	8082.7	
534.75	7511.3	
534.95	6657.3	
535.14	8816.5	
535.34	8024.6	
535.53	6337.1	
535.73	8230.8	
535.92	9368.1	
536.12	8256.7	
536.31	6398.5	
536.51	7615.7	
536.71	8533.2	
536.9	8079.9	
537.1	6584.9	
537.29	6803.4	
537.49	8977.6	
537.68	7920.9	
537.88	7137.2	
538.07	6365.1	
538.27	8200.7	
538.46	9288.9	
538.66	6266.1	
538.86	6628.6	
539.05	8253.3	
539.25	8647.2	
539.44	6984.9	
539.64	6397.2	
539.83	8094.9	
540.03	9151	
540.22	6473.6	
540.42	6630	
540.61	8361.9	
540.81	8526.4	
541	7036.8	
541.2	7705.8	
541.39	7884	
541.59	8292.9	
541.78	7296.2	
541.98	6447.7	
542.18	7508.5	
542.37	7511.9	
542.57	6799.3	
542.76	7279.8	
542.96	7642.3	
543.15	8387.1	
543.35	6739.9	
543.54	6176.7	
543.74	8655.4	
543.93	8221.9	
544.13	6924.9	
544.32	7953.6	
544.52	8591.2	
544.71	7782.3	
544.91	5927.5	
545.1	7210.9	
545.3	7797.3	
545.49	8439	
545.69	5905	
545.88	6505	
546.08	9372.2	
546.27	9156.5	
546.47	7055.3	
546.66	6324.8	
546.86	8750.3	
547.05	9381.1	
547.24	6570.6	
547.44	6363.7	
547.63	7696.3	
547.83	8760.5	
548.02	6824.5	
548.22	7010.2	
548.41	7548.1	
548.61	8826.1	
548.8	6392.4	
549	6281.1	
549.19	8173.4	
549.39	8319.5	
549.58	6023.8	
549.78	6701	
549.97	8559.8	
550.17	8052.6	
550.36	7583.6	
550.55	8428.1	
550.75	8026	
550.94	9028.1	
551.14	6257.2	
551.33	6728.3	
551.53	7430.7	
551.72	8376.9	
551.92	6765.1	
552.11	6516	
552.31	8516.8	
552.5	8595.3	
552.69	8235.6	
552.89	6169.8	
553.08	8407.6	
553.28	8147.5	
553.47	6479.1	
553.67	7648.5	
553.86	9182.4	
554.06	7428	
554.25	5683.8	
554.44	6303.6	
554.64	9914.2	
554.83	9312.8	
555.03	6240.2	
555.22	6671.6	
555.42	8589.9	
555.61	8328.4	
555.8	6453.1	
556	6783.6	
556.19	7511.9	
556.39	8822.6	
556.58	6574	
556.78	6541.2	
556.97	8291.5	
557.16	7878.5	
557.36	7822.6	
557.55	6228.6	
557.75	7226.6	
557.94	9108.7	
558.13	6335.7	
558.33	6102.9	
558.52	8774.2	
558.72	7760.4	
558.91	6209.4	
559.1	6441.5	
559.3	7363.8	
559.49	7222.5	
559.69	5776.6	
559.88	6855.9	
560.07	8243.1	
560.27	8652.7	
560.46	6920.8	
560.66	7056.6	
560.85	8058.1	
561.04	7219.1	
561.24	6125.5	
561.43	6452.5	
561.63	7479.2	
561.82	7792.5	
562.01	7578.2	
562.21	6607.4	
562.4	8170.7	
562.59	9252	
562.79	6599.2	
562.98	6123.4	
563.18	8173.4	
563.37	9607	
563.56	7027.9	
563.76	6032.6	
563.95	7593.2	
564.14	7469.6	
564.34	6482.5	
564.53	6276.3	
564.73	8137.3	
564.92	8453.3	
565.11	6720.1	
565.31	6045.6	
565.5	8749.6	
565.69	7567.9	
565.89	6291.4	
566.08	6473.6	
566.27	8583.7	
566.47	8954.4	
566.66	7127.6	
566.85	5778	
567.05	8102.4	
567.24	7496.9	
567.44	6111.8	
567.63	7493.5	
567.82	8428.8	
568.02	8067.6	
568.21	6143.9	
568.4	6509.1	
568.6	7909.3	
568.79	8007.6	
568.98	5915.2	
569.18	6112.5	
569.37	7804.8	
569.56	9899.9	
569.76	6359.6	
569.95	7266.2	
570.14	8319.5	
570.34	8174.8	
570.53	5878.4	
570.72	5889.3	
570.91	8685.4	
571.11	7840.3	
571.3	6405.4	
571.49	7338.6	
571.69	7805.5	
571.88	7387	
572.07	6956.9	
572.27	7067.5	
572.46	7436.9	
572.65	8494.3	
572.85	6148	
573.04	6529.6	
573.23	8769.4	
573.43	7948.2	
573.62	5932.3	
573.81	6632	
574	8013.7	
574.2	7740.6	
574.39	6225.8	
574.58	6408.8	
574.78	8798.1	
574.97	7980.9	
575.16	6713.9	
575.36	6897.6	
575.55	8419.9	
575.74	8525	
575.93	5864	
576.13	6966.5	
576.32	7707.2	
576.51	8357.8	
576.71	6265.4	
576.9	7633.5	
577.09	8726.4	
577.28	8163.2	
577.48	6808.8	
577.67	5732.9	
577.86	7906.5	
578.05	8155	
578.25	6421.7	
578.44	6561.7	
578.63	7963.2	
578.83	9129.8	
579.02	5880.4	
579.21	7398.6	
579.4	8190.5	
579.6	7860.8	
579.79	6636.1	
579.98	8819.9	
580.17	8554.4	
580.37	8631.5	
580.56	6101.6	
580.75	6832	
580.94	9172.9	
581.14	8942.1	
581.33	7359.7	
581.52	6246.3	
581.71	8464.9	
581.91	9110.7	
582.1	5929.6	
582.29	6522.1	
582.48	8030.8	
582.68	7967.3	
582.87	7048.4	
583.06	6646.3	
583.25	8402.8	
583.45	7795.9	
583.64	7336.5	
583.83	8103.8	
584.02	7800.7	
584.21	8350.9	
584.41	7330.4	
584.6	6559.6	
584.79	8077.9	
584.98	8805.6	
585.18	6027.2	
585.37	6052.4	
585.56	7615	
585.75	8401.5	
585.94	6253.8	
586.14	6880.5	
586.33	8977.6	
586.52	7862.8	
586.71	6784.9	
586.91	6463.4	
587.1	7468.3	
587.29	8424	
587.48	6399.9	
587.67	6255.9	
587.87	8232.8	
588.06	8407.6	
588.25	7563.8	
588.44	6867.5	
588.63	7856.7	
588.83	8390.5	
589.02	6258.6	
589.21	6126.2	
589.4	7589.1	
589.59	7337.9	
589.78	5359.5	
589.98	5636.7	
590.17	7086	
590.36	7706.5	
590.55	5092.6	
590.74	6027.9	
590.94	9105.3	
591.13	7675.1	
591.32	5819	
591.51	5386.2	
591.7	8170.7	
591.89	7550.2	
592.09	5480.4	
592.28	5887.9	
592.47	6821.1	
592.66	8705.2	
592.85	5451	
593.05	5708.4	
593.24	7501.7	
593.43	8257.4	
593.62	5750.7	
593.81	6229.9	
594	7496.2	
594.19	7732.4	
594.39	5646.2	
594.58	5535	
594.77	7807.5	
594.96	8338	
595.15	5481	
595.34	6226.5	
595.54	7899.7	
595.73	6907.8	
595.92	4974.5	
596.11	6229.9	
596.3	8440.4	
596.49	7124.9	
596.68	5951.4	
596.88	6409.5	
597.07	8183.7	
597.26	6950.1	
597.45	5488.6	
597.64	6639.5	
597.83	7206.8	
598.02	7857.4	
598.22	5480.4	
598.41	6293.4	
598.6	7630.7	
598.79	7055.9	
598.98	5601.2	
599.17	6635.4	
599.36	7668.3	
599.55	8894.3	
599.74	7698.3	
599.94	7445	
600.13	8281.3	
600.32	7072.3	
600.51	5467.4	
600.7	5569.1	
600.89	8970.8	
601.08	9045.2	
601.27	5365.7	
601.47	6462	
601.66	8256	
601.85	8903.9	
602.04	6096.1	
602.23	6328.9	
602.42	7288.7	
602.61	7991.2	
602.8	6016.2	
602.99	5853.1	
603.18	7701.7	
603.37	7930.4	
603.57	6507.8	
603.76	7041.6	
603.95	8718.2	
604.14	8258.8	
604.33	5868.1	
604.52	6227.2	
604.71	7911.3	
604.9	7470.3	
605.09	6845.7	
605.28	6668.9	
605.47	8456.7	
605.66	8200.7	
605.86	6490	
606.05	5893.4	
606.24	8512.7	
606.43	7044.3	
606.62	6200.6	
606.81	6937.2	
607	8301.8	
607.19	7661.5	
607.38	5634	
607.57	5826.5	
607.76	7503.8	
607.95	6912.6	
608.14	6337.1	
608.33	6930.3	
608.52	7387.7	
608.72	8282.7	
608.91	5646.9	
609.1	5511.1	
609.29	7520.1	
609.48	7068.9	
609.67	6464.8	
609.86	5560.2	
610.05	7179.5	
610.24	7501.7	
610.43	5443.5	
610.62	5023	
610.81	8667.7	
611	8385.7	
611.19	5556.1	
611.38	6277.7	
611.57	7861.5	
611.76	9106	
611.95	5315.8	
612.14	5183.4	
612.33	7568.6	
612.52	7112.6	
612.71	5875.6	
612.9	5089.9	
613.09	6693.4	
613.28	9067	
613.47	5541.8	
613.66	6662.7	
613.85	7692.9	
614.04	7267.6	
614.24	5743.9	
614.43	5001.1	
614.62	7818.5	
614.81	7792.5	
615	6292.7	
615.19	6248.4	
615.38	7047.1	
615.57	7477.8	
615.76	6148	
615.95	7148.1	
616.14	7863.5	
616.33	7542	
616.52	6425.2	
616.71	6800.6	
616.9	7870.3	
617.09	7694.9	
617.28	5875.6	
617.47	7162.4	
617.66	6913.9	
617.85	7051.2	
618.04	6714.6	
618.22	6146.6	
618.41	7234.8	
618.6	8126.3	
618.79	6012.2	
618.98	5754.8	
619.17	8447.9	
619.36	6785.6	
619.55	5836	
619.74	6027.2	
619.93	7745.4	
620.12	7150.1	
620.31	6496.8	
620.5	6626.5	
620.69	8295	
620.88	8656.8	
621.07	7372	
621.26	6382.8	
621.45	7840.3	
621.64	7845.1	
621.83	6429.9	
622.02	5591.6	
622.21	7935.2	
622.4	7658	
622.59	6950.8	
622.78	6751.5	
622.97	7272.3	
623.16	8199.4	
623.35	6356.2	
623.54	5545.2	
623.72	7437.5	
623.91	7571.3	
624.1	6651.1	
624.29	5328.8	
624.48	8645.2	
624.67	7866.9	
624.86	6494.8	
625.05	5562.3	
625.24	8697.7	
625.43	7047.7	
625.62	8289.5	
625.81	5649	
626	8150.9	
626.19	7395.9	
626.38	6475.7	
626.56	5845.6	
626.75	7240.3	
626.94	7949.5	
627.13	6470.2	
627.32	5139.7	
627.51	7817.1	
627.7	9261.6	
627.89	5334.3	
628.08	6419.7	
628.27	7037.5	
628.46	7290.1	
628.65	5644.9	
628.83	5304.2	
629.02	7832.1	
629.21	7118.1	
629.4	6053.8	
629.59	6326.9	
629.78	7073	
629.97	8097	
630.16	6331	
630.35	5823.1	
630.54	8574.8	
630.72	8198.7	
630.91	5802.6	
631.1	6378.1	
631.29	7673.1	
631.48	7860.1	
631.67	6444.3	
631.86	5894.7	
632.05	7281.2	
632.24	7385	
632.42	5554.8	
632.61	6303.6	
632.8	7472.4	
632.99	7111.9	
633.18	6189	
633.37	6597.2	
633.56	7715.4	
633.75	7634.1	
633.93	6102.3	
634.12	5867.4	
634.31	8477.9	
634.5	8149.6	
634.69	5892	
634.88	6407.4	
635.07	7505.8	
635.25	8101.8	
635.44	6868.2	
635.63	7024.5	
635.82	7352.9	
636.01	6870.3	
636.2	6806.8	
636.39	6355.5	
636.57	8550.3	
636.76	8211.7	
636.95	5774.6	
637.14	7148.8	
637.33	7810.3	
637.52	8769.4	
637.7	5531.6	
637.89	6472.9	
638.08	7397.9	
638.27	8883.4	
638.46	6556.9	
638.65	7006.1	
638.83	8931.2	
639.02	7250.5	
639.21	6536.4	
639.4	6931	
639.59	7805.5	
639.78	7394.5	
639.96	5791.7	
640.15	5801.9	
640.34	7654.6	
640.53	7676.5	
640.72	5454.4	
640.91	5801.2	
641.09	7019.1	
641.28	8378.9	
641.47	5908.4	
641.66	6741.9	
641.85	7742.7	
642.03	8084	
642.22	6419	
642.41	5935	
642.6	7144	
642.79	6563.1	
642.97	5700.9	
643.16	6526.9	
643.35	7146	
643.54	6973.3	
643.73	5582.1	
643.91	6466.1	
644.1	6709.1	
644.29	7337.9	
644.48	5717.2	
644.67	5706.3	
644.85	6930.3	
645.04	7266.2	
645.23	5253	
645.42	5552	
645.6	6821.1	
645.79	7902.4	
645.98	5496.1	
646.17	4617.5	
646.36	6587.6	
646.54	7066.2	
646.73	6377.4	
646.92	5104.2	
647.11	6718	
647.29	7823.2	
647.48	5307.7	
647.67	5047.6	
647.86	8168	
648.05	8067.6	
648.23	5595.7	
648.42	6976.1	
648.61	7554.3	
648.8	7252.5	
648.98	5369.8	
649.17	5722	
649.36	6834.8	
649.55	6302.3	
649.73	5350.7	
649.92	6084.5	
650.11	6571.2	
650.3	7155.6	
650.48	5452.4	
650.67	5224.4	
650.86	7411.6	
651.05	6280.4	
651.23	5485.1	
651.42	5414.8	
651.61	6781.5	
651.79	6915.3	
651.98	5578.7	
652.17	5268.7	
652.36	7321.5	
652.54	6387.6	
652.73	5310.4	
652.92	5118.6	
653.11	7296.9	
653.29	7348.8	
653.48	4564.9	
653.67	5602.6	
653.85	7066.2	
654.04	8112.7	
654.23	5843.5	
654.42	5314.5	
654.6	6605.4	
654.79	7277.1	
654.98	4856.4	
655.16	5442.8	
655.35	6221	
655.54	6237.4	
655.73	5055.8	
655.91	4987.5	
656.1	7425.9	
656.29	6217	
656.47	4535.6	
656.66	6245.6	
656.85	6466.8	
657.03	6549.4	
657.22	5033.2	
657.41	5167.7	
657.59	6637.5	
657.78	6370.5	
657.97	4745.1	
658.16	5543.2	
658.34	7236.2	
658.53	7684.7	
658.72	6423.1	
658.9	6892.8	
659.09	6668.2	
659.28	6882.5	
659.46	5232.6	
659.65	5204.6	
659.84	6506.4	
660.02	7023.9	
660.21	5062.6	
660.4	5083.1	
660.58	7503.1	
660.77	6838.2	
660.96	5690.6	
661.14	4664.6	
661.33	7993.9	
661.52	7825.3	
661.7	4678.2	
661.89	8363.2	
662.08	6389	
662.26	6040.1	
662.45	4861.2	
662.64	5025	
662.82	7120.8	
663.01	6308.4	
663.2	5059.2	
663.38	5920.7	
663.57	7092.1	
663.75	6925.5	
663.94	5418.2	
664.13	6702.3	
664.31	6407.4	
664.5	7090.1	
664.69	5778	
664.87	6234	
665.06	6196.5	
665.25	6901	
665.43	6400.6	
665.62	6565.1	
665.8	7365.2	
665.99	6537.8	
666.18	5368.4	
666.36	5532.2	
666.55	7206.8	
666.74	7071	
666.92	5072.1	
667.11	6713.9	
667.29	6576	
667.48	7193.8	
667.67	6339.1	
667.85	5424.4	
668.04	6670.9	
668.22	6568.5	
668.41	5488.6	
668.6	5667.4	
668.78	6374	
668.97	6595.8	
669.15	5845.6	
669.34	4788.2	
669.53	6393.8	
669.71	6810.2	
669.9	4944.5	
670.08	5645.6	
670.27	6408.8	
670.46	6996.5	
670.64	5851.7	
670.83	6078.4	
671.01	6338.5	
671.2	6972.7	
671.38	5008.6	
671.57	4974.5	
671.76	7536.5	
671.94	8135.9	
672.13	4941.7	
672.31	6023.8	
672.5	7112.6	
672.69	6423.1	
672.87	4947.9	
673.06	5379.3	
673.24	6938.5	
673.43	6405.4	
673.61	5839.4	
673.8	5342.5	
673.98	7120.8	
674.17	7294.9	
674.36	5915.9	
674.54	5756.2	
674.73	6856.6	
674.91	7182.9	
675.1	5456.5	
675.28	5201.2	
675.47	6641.6	
675.65	7159	
675.84	5291.3	
676.03	5634.6	
676.21	6385.6	
676.4	5934.3	
676.58	6137.1	
676.77	5926.1	
676.95	7907.9	
677.14	6390.3	
677.32	5053.7	
677.51	4780	
677.69	7147.4	
677.88	5994.4	
678.06	4900.8	
678.25	4979.3	
678.44	6629.3	
678.62	6397.2	
678.81	4697.4	
678.99	5670.8	
679.18	7499.7	
679.36	7016.3	
679.55	5266	
679.73	5983.5	
679.92	6972	
680.1	6357.6	
680.29	6617.7	
680.47	5272.8	
680.66	6333	
680.84	7197.9	
681.03	4565.6	
681.21	5712.5	
681.4	6426.5	
681.58	6186.2	
681.77	5031.2	
681.95	4851.6	
682.14	7297.6	
682.32	7628	
682.51	5992.4	
682.69	4741	
682.88	6284.5	
683.06	7013.6	
683.25	5608.7	
683.43	6051.1	
683.62	6621.8	
683.8	6965.8	
683.99	6095.4	
684.17	5442.8	
684.36	7767.9	
684.54	6409.5	
684.73	4574.5	
684.91	4801.8	
685.1	6743.3	
685.28	6185.5	
685.46	5376.6	
685.65	5526.1	
685.83	7064.8	
686.02	6537.8	
686.2	4966.3	
686.39	5108.3	
686.57	6267.5	
686.76	7794.6	
686.94	4917.9	
687.13	5080.3	
687.31	6918	
687.5	6453.1	
687.68	4500.8	
687.86	5836.7	
688.05	8244.4	
688.23	5922	
688.42	5850.4	
688.6	5052.3	
688.79	6307.1	
688.97	6328.2	
689.16	5405.3	
689.34	4285.7	
689.52	7084.6	
689.71	7225.9	
689.89	5582.1	
690.08	4871.4	
690.26	6505.7	
690.45	6371.9	
690.63	5753.4	
690.81	5065.3	
691	6182.1	
691.18	6200.6	
691.37	5236.7	
691.55	7467.6	
691.74	6173.9	
691.92	8260.1	
692.1	5197.7	
692.29	4550.6	
692.47	6412.9	
692.66	5679.7	
692.84	4919.2	
693.02	5565	
693.21	5921.4	
693.39	6346.7	
693.58	5616.2	
693.76	4979.3	
693.94	7617.1	
694.13	7324.2	
694.31	4991.6	
694.5	6070.2	
694.68	6167.1	
694.86	6485.9	
695.05	5330.9	
695.23	5443.5	
695.42	6883.2	
695.6	9181.7	
695.78	5810.8	
695.97	4977.2	
696.15	6900.3	
696.34	6300.2	
696.52	4706.2	
696.7	5543.2	
696.89	6683.2	
697.07	6020.3	
697.25	5474.2	
697.44	7034.8	
697.62	6651.1	
697.81	6924.9	
697.99	5161.6	
698.17	5658.5	
698.36	5955.5	
698.54	6681.2	
698.72	5502.2	
698.91	4506.9	
699.09	6232	
699.28	6097.5	
699.46	5208.7	
699.64	5053.7	
699.83	6041.5	
700.01	7423.9	
700.19	5977.3	
700.38	4320.5	
700.56	7337.2	
700.74	6217.6	
700.93	4690.5	
701.11	5541.1	
701.29	6736.5	
701.48	7783.6	
701.66	4935.6	
701.84	4971.1	
702.03	6186.2	
702.21	6872.3	
702.39	4517.1	
702.58	5081	
702.76	6649.8	
702.94	6813.6	
703.13	4582	
703.31	6897.6	
703.49	6015.6	
703.68	6980.8	
703.86	4683.7	
704.04	5698.1	
704.23	6492.1	
704.41	6916.7	
704.59	4876.9	
704.78	6158.2	
704.96	7664.9	
705.14	6912.6	
705.33	4603.2	
705.51	5507	
705.69	6367.8	
705.87	7200	
706.06	5784.1	
706.24	4644.1	
706.42	6621.8	
706.61	6967.9	
706.79	5845.6	
706.97	4612	
707.16	6081.8	
707.34	6761	
707.52	5761.6	
707.7	4902.8	
707.89	6275	
708.07	5983.5	
708.25	5784.8	
708.44	5868.1	
708.62	6186.9	
708.8	7395.2	
708.98	6120	
709.17	4937	
709.35	6638.1	
709.53	6680.5	
709.72	4668	
709.9	4855.7	
710.08	6868.2	
710.26	6986.3	
710.45	6281.8	
710.63	5060.5	
710.81	6559	
710.99	6542.6	
711.18	5644.2	
711.36	5116.5	
711.54	6350.8	
711.72	7129.7	
711.91	5192.3	
712.09	4578.6	
712.27	6615.6	
712.45	7181.5	
712.64	5515.2	
712.82	4436.6	
713	5958.9	
713.18	6104.3	
713.37	4511	
713.55	5984.8	
713.73	6925.5	
713.91	5548.6	
714.1	4962.2	
714.28	4373.8	
714.46	6677.1	
714.64	5913.9	
714.83	3952.6	
715.01	4734.9	
715.19	6023.8	
715.37	5404.6	
715.55	4536.3	
715.74	4837.3	
715.92	7002	
716.1	4993.6	
716.28	5958.9	
716.47	5034.6	
716.65	5645.6	
716.83	5839.4	
717.01	4842.8	
717.19	5002.5	
717.38	7918.1	
717.56	5481.7	
717.74	5218.9	
717.92	4358.1	
718.1	6755.6	
718.29	5993	
718.47	3917.8	
718.65	4580.6	
718.83	6652.5	
719.01	6443.6	
719.2	3747.1	
719.38	4848.9	
719.56	6226.5	
719.74	7783	
719.92	4385.4	
720.11	5499.5	
720.29	6246.3	
720.47	5369.8	
720.65	4007.2	
720.83	4824.3	
721.02	5750	
721.2	5422.3	
721.38	4932.2	
721.56	4194.9	
721.74	5120.6	
721.92	5223	
722.11	5481.7	
722.29	5151.3	
722.47	6548.7	
722.65	5711.1	
722.83	4188.8	
723.01	5162.9	
723.2	5803.9	
723.38	6088.6	
723.56	3639.9	
723.74	4872.1	
723.92	5303.6	
724.1	6554.2	
724.29	4157.4	
724.47	5387.5	
724.65	5310.4	
724.83	5273.5	
725.01	4089.8	
725.19	4997	
725.37	5311.7	
725.56	5399.8	
725.74	3917.8	
725.92	4226.3	
726.1	5302.2	
726.28	5536.3	
726.46	4585.4	
726.64	4345.8	
726.83	5577.3	
727.01	5870.8	
727.19	3908.2	
727.37	4785.4	
727.55	5705.6	
727.73	6223.1	
727.91	3864.5	
728.09	3768.3	
728.28	6173.9	
728.46	6948.8	
728.64	4987.5	
728.82	4926.7	
729	7434.8	
729.18	6575.3	
729.36	4078.2	
729.54	6530.3	
729.72	7636.9	
729.91	5953.4	
730.09	6026.5	
730.27	4764.3	
730.45	5762.3	
730.63	6470.9	
730.81	5343.2	
730.99	4418.2	
731.17	7006.8	
731.35	5472.9	
731.53	4910.3	
731.71	4513.7	
731.9	6715.3	
732.08	6894.8	
732.26	4842.1	
732.44	4530.1	
732.62	6897.6	
732.8	6363	
732.98	5187.5	
733.16	4266.6	
733.34	6416.3	
733.52	5230.5	
733.7	4799.1	
733.88	5118.6	
734.07	6269.5	
734.25	6078.4	
734.43	4246.1	
734.61	5969.1	
734.79	7572.7	
734.97	5943.2	
735.15	4450.2	
735.33	4830.5	
735.51	6343.9	
735.69	5887.2	
735.87	6013.5	
736.05	5103.5	
736.23	6179.4	
736.41	5980.8	
736.59	4867.3	
736.77	4971.8	
736.95	6654.5	
737.13	6026.5	
737.32	4525.3	
737.5	4775.2	
737.68	7202	
737.86	5926.1	
738.04	4325.3	
738.22	6264.1	
738.4	5825.1	
738.58	6059.3	
738.76	5058.5	
738.94	3865.9	
739.12	5949.3	
739.3	5750.7	
739.48	5655.1	
739.66	5370.5	
739.84	6232	
740.02	6195.1	
740.2	4136.2	
740.38	4382.7	
740.56	6567.8	
740.74	5422.3	
740.92	5044.1	
741.1	5070.1	
741.28	6062	
741.46	5913.2	
741.64	4683	
741.82	5211.4	
742	6053.1	
742.18	6075	
742.36	4896.7	
742.54	4498	
742.72	6655.2	
742.9	5395.7	
743.08	5314.5	
743.26	4066.6	
743.44	6943.3	
743.62	6740.5	
743.8	5504.3	
743.98	4567	
744.16	6382.8	
744.34	6125.5	
744.52	5347.2	
744.7	5380	
744.88	6619	
745.06	6185.5	
745.24	5488.6	
745.42	5646.2	
745.6	6698.2	
745.78	6429.3	
745.96	4278.9	
746.14	4600.4	
746.32	7469.6	
746.5	6767.2	
746.68	5203.2	
746.86	4686.4	
747.03	7166.5	
747.21	5432.6	
747.39	5177.9	
747.57	4691.9	
747.75	6328.9	
747.93	6692.1	
748.11	4691.9	
748.29	4598.4	
748.47	7978.2	
748.65	6035.4	
748.83	5402.5	
749.01	5081	
749.19	6576.7	
749.37	5760.9	
749.55	5015.5	
749.73	5018.9	
749.91	6202.6	
750.09	5911.1	
750.26	5151.3	
750.44	4489.1	
750.62	6270.2	
750.8	6262	
750.98	4351.3	
751.16	4736.3	
751.34	6311.2	
751.52	5670.8	
751.7	5515.2	
751.88	4373.1	
752.06	6827.9	
752.24	6692.1	
752.42	4284.4	
752.59	4674.8	
752.77	6175.3	
752.95	7522.9	
753.13	5449	
753.31	4821.6	
753.49	5905.7	
753.67	6371.2	
753.85	5229.1	
754.03	4718.5	
754.21	6692.1	
754.38	7020.4	
754.56	4878.3	
754.74	3920.5	
754.92	5937.7	
755.1	6640.9	
755.28	3921.2	
755.46	3900.7	
755.64	7367.2	
755.82	7446.4	
755.99	4108.9	
756.17	4291.2	
756.35	4891.9	
756.53	6475	
756.71	3206.4	
756.89	4152.6	
757.07	6102.9	
757.25	5137	
757.42	4737	
757.6	5606.7	
757.78	6169.8	
757.96	5111	
758.14	4324.6	
758.32	3925.3	
758.5	4683.7	
758.67	5909.1	
758.85	4106.2	
759.03	4291.9	
759.21	5683.1	
759.39	5086.5	
759.57	3770.3	
759.75	4982.7	
759.92	6356.2	
760.1	5555.5	
760.28	5340.4	
760.46	5575.3	
760.64	5371.1	
760.82	5116.5	
760.99	5199.1	
761.17	4306.9	
761.35	6233.3	
761.53	5208.7	
761.71	4498.7	
761.89	5261.9	
762.06	6137.8	
762.24	5648.3	
762.42	4605.9	
762.6	4360.8	
762.78	5680.4	
762.96	6436.1	
763.13	4988.2	
763.31	4689.8	
763.49	6541.2	
763.67	5569.8	
763.85	5563	
764.02	6112.5	
764.2	6827.2	
764.38	5958.9	
764.56	4600.4	
764.74	5495.4	
764.91	6940.6	
765.09	5778.7	
765.27	4228.4	
765.45	4067.9	
765.63	7040.9	
765.8	6810.2	
765.98	3745.1	
766.16	4089.8	
766.34	5350	
766.52	5155.4	
766.69	5102.9	
766.87	4003.1	
767.05	5764.3	
767.23	6662.7	
767.41	4341.7	
767.58	4633.2	
767.76	6393.8	
767.94	6530.3	
768.12	4372.4	
768.29	5294	
768.47	5910.4	
768.65	6683.2	
768.83	4032.5	
769	5257.8	
769.18	5509.7	
769.36	6176	
769.54	5278.3	
769.72	4031.8	
769.89	6427.9	
770.07	6618.4	
770.25	4394.3	
770.43	5773.2	
770.6	7233.4	
770.78	7671	
770.96	4625	
771.14	5298.1	
771.31	6404.7	
771.49	5692.7	
771.67	3732.1	
771.85	4011.3	
772.02	4969.7	
772.2	5745.2	
772.38	4770.4	
772.55	4302.1	
772.73	6014.9	
772.91	5698.8	
773.09	4667.3	
773.26	4780	
773.44	5937.7	
773.62	5631.9	
773.8	4112.3	
773.97	3879.5	
774.15	6024.4	
774.33	5623	
774.5	3983.3	
774.68	4416.1	
774.86	6206.7	
775.04	5650.3	
775.21	4038.6	
775.39	4125.3	
775.57	5925.5	
775.74	6406.7	
775.92	3977.2	
776.1	3902.7	
776.27	5917.3	
776.45	7202.7	
776.63	4112.3	
776.81	3630.4	
776.98	5500.8	
777.16	6671.6	
777.34	4328.7	
777.51	4227.7	
777.69	5459.9	
777.87	5283.1	
778.04	4281.6	
778.22	4977.9	
778.4	5306.3	
778.57	6010.1	
778.75	3507.5	
778.93	3850.9	
779.1	5103.5	
779.28	4931.5	
779.46	3543.7	
779.64	4067.9	
779.81	6172.6	
779.99	7033.4	
780.17	4833.2	
780.34	5039.4	
780.52	5593	
780.69	5758.9	
780.87	4442.7	
781.05	3903.4	
781.22	5659.9	
781.4	5765.7	
781.58	4100	
781.75	3222.1	
781.93	5674.2	
782.11	5027.8	
782.28	5044.1	
782.46	4061.8	
782.64	4906.3	
782.81	5913.2	
782.99	4258.4	
783.17	4078.2	
783.34	5707.7	
783.52	4955.4	
783.69	4373.1	
783.87	5209.3	
784.05	5018.9	
784.22	5016.8	
784.4	5096	
784.58	4458.4	
784.75	6047.7	
784.93	5096	
785.1	4102.8	
785.28	4737.6	
785.46	5711.1	
785.63	4978.6	
785.81	4046.1	
785.99	3858.4	
786.16	5205.9	
786.34	5612.8	
786.51	3949.8	
786.69	4335.5	
786.87	4756.1	
787.04	5333.6	
787.22	3757.3	
787.39	4802.5	
787.57	5010	
787.75	6153.5	
787.92	4961.5	
788.1	4804.5	
788.27	5100.8	
788.45	4813.4	
788.63	4548.5	
788.8	3351.2	
788.98	5603.2	
789.15	4739.7	
789.33	3384.6	
789.5	4130.1	
789.68	6025.1	
789.86	6081.1	
790.03	4524.6	
790.21	3951.9	
790.38	5967.8	
790.56	5141.1	
790.73	3743	
790.91	3872	
791.09	5037.3	
791.26	5793.7	
791.44	4057	
791.61	3482.2	
791.79	5029.1	
791.96	5116.5	
792.14	3562.1	
792.32	3165.5	
792.49	5042.8	
792.67	5148.6	
792.84	3643.3	
793.02	3484.3	
793.19	5479	
793.37	6271.6	
793.54	3183.9	
793.72	3580.5	
793.89	6388.3	
794.07	5089.2	
794.25	4182.6	
794.42	3261	
794.6	6098.2	
794.77	5755.5	
794.95	4444.8	
795.12	3904.1	
795.3	4995	
795.47	5718.6	
795.65	4332.1	
795.82	4078.2	
796	4897.4	
796.17	6836.8	
796.35	3938.9	
796.52	4701.5	
796.7	5557.5	
796.87	5726.8	
797.05	4865.3	
797.22	4856.4	
797.4	5662	
797.57	6756.9	
797.75	4130.1	
797.92	3910.9	
798.1	5983.5	
798.27	5129.5	
798.45	3266.5	
798.62	3591.5	
798.8	5371.1	
798.97	5857.2	
799.15	4336.2	
799.32	4093.2	
799.5	4663.9	
799.67	5388.2	
799.85	4446.8	
800.02	3235.8	
800.2	4977.9	
800.37	5339.1	
800.55	4721.9	
800.72	3838.6	
800.9	5755.5	
801.07	6274.3	
801.25	5230.5	
801.42	4239.3	
801.6	5859.2	
801.77	5574.6	
801.95	3948.5	
802.12	3747.8	
802.29	5546.6	
802.47	5548.6	
802.64	4233.8	
802.82	3158	
802.99	4995	
803.17	5997.8	
803.34	4104.1	
803.52	3679.5	
803.69	6686.6	
803.87	4729.4	
804.04	4044.7	
804.21	4164.9	
804.39	6113.9	
804.56	5265.3	
804.74	3425.6	
804.91	4264.6	
805.09	5076.2	
805.26	5165.7	
805.44	3493.8	
805.61	3865.9	
805.78	5720.7	
805.96	5795.8	
806.13	4214	
806.31	4602.5	
806.48	4567.7	
806.66	5173.9	
806.83	4214	
807	4131.4	
807.18	5003.2	
807.35	5411.4	
807.53	4100	
807.7	3255.6	
807.87	6240.2	
808.05	5071.5	
808.22	4588.1	
808.4	3293.8	
808.57	5038.7	
808.74	4687.1	
808.92	3818.1	
809.09	4818.2	
809.27	4871.4	
809.44	5601.2	
809.61	3360.7	
809.79	3683.6	
809.96	6227.2	
810.14	5864.7	
810.31	3244	
810.48	4015.4	
810.66	5107	
810.83	5922.7	
811.01	3796.9	
811.18	4252.3	
811.35	5812.8	
811.53	4491.9	
811.7	4637.3	
811.87	4225	
812.05	5016.2	
812.22	4984.8	
812.39	3663.8	
812.57	3528.7	
812.74	5104.2	
812.92	6911.2	
813.09	3931.4	
813.26	4317.1	
813.44	6538.5	
813.61	4997	
813.78	3289.7	
813.96	4469.4	
814.13	5066	
814.3	4712.4	
814.48	4768.4	
814.65	3990.1	
814.82	6374.6	
815	4834.6	
815.17	4124.6	
815.34	4987.5	
815.52	4966.3	
815.69	4986.8	
815.87	4013.3	
816.04	3517	
816.21	5104.9	
816.38	4471.4	
816.56	3914.4	
816.73	3607.2	
816.9	6445.6	
817.08	5860.6	
817.25	3682.2	
817.42	4615.4	
817.6	4640.7	
817.77	5128.1	
817.94	4186.7	
818.12	3654.3	
818.29	4805.9	
818.46	7642.3	
818.64	3736.9	
818.81	3552.5	
818.98	4722.6	
819.16	6887.3	
819.33	4373.1	
819.5	4030.4	
819.67	5494.7	
819.85	6122.7	
820.02	3990.8	
820.19	4249.5	
820.37	5306.3	
820.54	4899.4	
820.71	4180.6	
820.88	5190.2	
821.06	5320.6	
821.23	4853	
821.4	4209.3	
821.58	4161.5	
821.75	5859.9	
821.92	5236.7	
822.09	3278.8	
822.27	3408.5	
822.44	5081.7	
822.61	4961.5	
822.79	3307.5	
822.96	6501.6	
823.13	5563	
823.3	4779.3	
823.48	3931.4	
823.65	3450.1	
823.82	5812.8	
823.99	4618.2	
824.17	5012.1	
824.34	3545	
824.51	6730.3	
824.68	5128.8	
824.86	3711.6	
825.03	4113	
825.2	5134.9	
825.37	6201.2	
825.55	3695.9	
825.72	4126	
825.89	6774.7	
826.06	6285.9	
826.24	4042.7	
826.41	4023.6	
826.58	6203.3	
826.75	5415.5	
826.92	3091.1	
827.1	3458.3	
827.27	8560.5	
827.44	6679.8	
827.61	3749.1	
827.79	4600.4	
827.96	4812.7	
828.13	5181.4	
828.3	3976.5	
828.47	3312.9	
828.65	5326.8	
828.82	5250.3	
828.99	5195.7	
829.16	4460.5	
829.34	5674.9	
829.51	5408.7	
829.68	4104.1	
829.85	4252.9	
830.02	6003.3	
830.2	5733.6	
830.37	3183.9	
830.54	4957.4	
830.71	6524.8	
830.88	5051.7	
831.05	3222.1	
831.23	3717.7	
831.4	6266.8	
831.57	6999.3	
831.74	3814	
831.91	3317	
832.09	5328.8	
832.26	5687.2	
832.43	3936.2	
832.6	4431.8	
832.77	5288.5	
832.94	6081.1	
833.12	3093.8	
833.29	3876.8	
833.46	5539.1	
833.63	7331.7	
833.8	4283	
833.97	3960.1	
834.15	5698.8	
834.32	5528.2	
834.49	4120.5	
834.66	4231.1	
834.83	5984.2	
835	4839.4	
835.17	3812.6	
835.35	3848.1	
835.52	5615.5	
835.69	5427.8	
835.86	4063.9	
836.03	3314.3	
836.2	5691.3	
836.37	5262.6	
836.55	3967.6	
836.72	3674.1	
836.89	5264.6	
837.06	5733.6	
837.23	3965.6	
837.4	4450.2	
837.57	6583.5	
837.75	7226.6	
837.92	3618.1	
838.09	3853.6	
838.26	5238	
838.43	5975.3	
838.6	4134.2	
838.77	3717.7	
838.94	6883.9	
839.11	6587	
839.29	3956.7	
839.46	3089.7	
839.63	5655.1	
839.8	5418.9	
839.97	3819.5	
840.14	3827.7	
840.31	5443.5	
840.48	5649.7	
840.65	3129.3	
840.82	3710.2	
841	5644.2	
841.17	5593.7	
841.34	3521.8	
841.51	3598.3	
841.68	5627.8	
841.85	5318.6	
842.02	3659	
842.19	3005.7	
842.36	5441.5	
842.53	5438	
842.7	3485	
842.87	4370.4	
843.05	7202.7	
843.22	5374.6	
843.39	3330	
843.56	3644.7	
843.73	5128.1	
843.9	5834	
844.07	5761.6	
844.24	4780	
844.41	8417.8	
844.58	4902.8	
844.75	3359.4	
844.92	3692.5	
845.09	5709.7	
845.26	5685.8	
845.43	3478.1	
845.6	3721.2	
845.77	5682.4	
845.94	5392.3	
846.12	3964.2	
846.29	4095.9	
846.46	5882.4	
846.63	5677.7	
846.8	3483.6	
846.97	4207.9	
847.14	6156.9	
847.31	5659.9	
847.48	3941.7	
847.65	4397	
847.82	5973.9	
847.99	5955.5	
848.16	4685.1	
848.33	4283	
848.5	5234.6	
848.67	6173.9	
848.84	3506.8	
849.01	3645.4	
849.18	5134.9	
849.35	4775.2	
849.52	4405.9	
849.69	3395.5	
849.86	5871.5	
850.03	6080.4	
850.2	3498.6	
850.37	4313	
850.54	6106.4	
850.71	5365.7	
850.88	4197	
851.05	3393.5	
851.22	5576.6	
851.39	6220.4	
851.56	3314.3	
851.73	4016.7	
851.9	4984.8	
852.07	5915.2	
852.24	3910.3	
852.41	3408.5	
852.58	5504.9	
852.75	5064.6	
852.92	3934.1	
853.09	3416	
853.26	5298.1	
853.43	6118	
853.6	3450.8	
853.77	3018	
853.94	6234	
854.11	5679	
854.28	5206.6	
854.44	3800.3	
854.61	6718	
854.78	5783.5	
854.95	3478.1	
855.12	4404.5	
855.29	4517.1	
855.46	6291.4	
855.63	3388	
855.8	4916.5	
855.97	5231.2	
856.14	6051.7	
856.31	4984.1	
856.48	3792.8	
856.65	5231.2	
856.82	4919.9	
856.99	3356.6	
857.16	3808.5	
857.33	6919.4	
857.49	5347.9	
857.66	3749.1	
857.83	4089.8	
858	5267.4	
858.17	5526.8	
858.34	3308.8	
858.51	3513.6	
858.68	6339.8	
858.85	6447.7	
859.02	4065.9	
859.19	4354.7	
859.36	4951.3	
859.52	5047.6	
859.69	3512.9	
859.86	4139.6	
860.03	5035.3	
860.2	6294.1	
860.37	3158.7	
860.54	3550.5	
860.71	5894.1	
860.88	6335.7	
861.05	3895.9	
861.21	4417.5	
861.38	6380.8	
861.55	4842.1	
861.72	3170.3	
861.89	3953.3	
862.06	6016.2	
862.23	6464.8	
862.4	3433.1	
862.56	3647.4	
862.73	5806	
862.9	5446.9	
863.07	4059.8	
863.24	3153.2	
863.41	4847.5	
863.58	4999.8	
863.75	3551.9	
863.91	4060.4	
864.08	6281.8	
864.25	5896.1	
864.42	4380.6	
864.59	4926	
864.76	6573.3	
864.93	5003.9	
865.09	3411.9	
865.26	3754.6	
865.43	6188.3	
865.6	6592.4	
865.77	3080.8	
865.94	3442	
866.1	6239.5	
866.27	5972.6	
866.44	5285.8	
866.61	3295.2	
866.78	5397.1	
866.95	5801.2	
867.11	3406.5	
867.28	3089	
867.45	6021	
867.62	4953.4	
867.79	4023.6	
867.96	3477.5	
868.12	4988.2	
868.29	5961.6	
868.46	3443.3	
868.63	4707.6	
868.8	6154.1	
868.97	5896.1	
869.13	3642.7	
869.3	3672.7	
869.47	5842.9	
869.64	6003.3	
869.81	3566.9	
869.97	3540.3	
870.14	5691.3	
870.31	6341.9	
870.48	3360.7	
870.65	4444.8	
870.81	5284.4	
870.98	5276.3	
871.15	4020.8	
871.32	3607.2	
871.48	5797.8	
871.65	6475.7	
871.82	3486.3	
871.99	3900.7	
872.16	6848.4	
872.32	6252.4	
872.49	3521.1	
872.66	3520.5	
872.83	5913.9	
872.99	5216.9	
873.16	3994.2	
873.33	3484.3	
873.5	5521.3	
873.67	5509.7	
873.83	3680.9	
874	4736.3	
874.17	5651	
874.34	6731	
874.5	4490.5	
874.67	4353.3	
874.84	6352.8	
875.01	4983.4	
875.17	4975.2	
875.34	3517	
875.51	5640.1	
875.68	6767.9	
875.84	4247.5	
876.01	5216.2	
876.18	5888.6	
876.34	5829.9	
876.51	3505.4	
876.68	3401.7	
876.85	5362.9	
877.01	6133	
877.18	5102.2	
877.35	3485	
877.52	5481	
877.68	4919.2	
877.85	3366.2	
878.02	3396.9	
878.18	5402.5	
878.35	5153.4	
878.52	2781.1	
878.69	3951.9	
878.85	5890.6	
879.02	5852.4	
879.19	4964.3	
879.35	3820.8	
879.52	5887.2	
879.69	6065.4	
879.86	2977.7	
880.02	3924.6	
880.19	5438.7	
880.36	6651.8	
880.52	3986.7	
880.69	4138.9	
880.86	5975.3	
881.02	6059.3	
881.19	3853.6	
881.36	3760.1	
881.52	5854.5	
881.69	5233.9	
881.86	3861.1	
882.02	3693.9	
882.19	6180.1	
882.36	7253.2	
882.52	3599.6	
882.69	4936.3	
882.86	5646.2	
883.02	5502.2	
883.19	4192.2	
883.36	4064.5	
883.52	5967.1	
883.69	6860.7	
883.86	3500	
884.02	3134.8	
884.19	5951.4	
884.36	5515.9	
884.52	3945.8	
884.69	3699.3	
884.86	5180	
885.02	6559	
885.19	3921.2	
885.36	4098.7	
885.52	5455.8	
885.69	5649.7	
885.86	5073.5	
886.02	4523.3	
886.19	5950	
886.35	5399.1	
886.52	3869.3	
886.69	4913.1	
886.85	5076.9	
887.02	6281.8	
887.19	6281.8	
887.35	6281.8	
887.52	6281.8	
887.68	6281.8	
887.85	6281.8	
888.02	6281.8	
888.18	6281.8	
888.35	6281.8	
888.51	6281.8	
888.68	6281.8	
888.85	6281.8	
889.01	6281.8	
889.18	6281.8	
889.35	6281.8	
889.51	6281.8	
889.68	6281.8	
889.84	6281.8	
890.01	6281.8	
890.17	6281.8	
890.34	6281.8	
890.51	6281.8	
890.67	6281.8	
890.84	6281.8	
891	6281.8	
891.17	6281.8	
891.34	6281.8	
891.5	6281.8	
891.67	6281.8	
891.83	6281.8	
892	6281.8	
892.16	6281.8	
892.33	6281.8	
892.5	6281.8	
892.66	6281.8	
892.83	6281.8	
892.99	6281.8	
893.16	6281.8	
893.32	6281.8	
893.49	6281.8	
893.65	6281.8	
893.82	6281.8	
893.99	6281.8	
894.15	6281.8	
894.32	6281.8	
894.48	6281.8	
894.65	6281.8	
894.81	6281.8	
894.98	6281.8	
895.14	6281.8	
895.31	6281.8	
895.47	6281.8	
895.64	6281.8	
895.81	6281.8	
895.97	6281.8	
896.14	6281.8	
896.3	6281.8	
896.47	6281.8	
896.63	6281.8	
896.8	6281.8	
896.96	6281.8	
897.13	6281.8	
897.29	6281.8	
897.46	6281.8	
897.62	6281.8	
897.79	6281.8	
897.95	6281.8	
898.12	6281.8	
898.28	6281.8	
898.45	6281.8	
898.61	6281.8	
898.78	6281.8	
898.94	6281.8	
899.11	6281.8	
899.27	6281.8	
899.44	6281.8	
899.6	6281.8	
899.77	6281.8	
899.93	6281.8	
900.1	6281.8	
900.26	6281.8	
900.43	6281.8	
900.59	6281.8	
900.76	6281.8	
900.92	6281.8	
901.09	6281.8	
901.25	6281.8	
901.42	6281.8	
901.58	6281.8	
901.75	6281.8	
901.91	6281.8	
902.07	6281.8	
902.24	6281.8	
902.4	6281.8	
902.57	6281.8	
902.73	6281.8	
902.9	6281.8	
903.06	6281.8	
903.23	6281.8	
903.39	6281.8	
903.56	6281.8	
903.72	6281.8	
903.88	6281.8	
904.05	6281.8	
904.21	6281.8	
904.38	6281.8	
904.54	6281.8	
904.71	6281.8	
904.87	6281.8	
905.03	6281.8	
905.2	6281.8	
905.36	6281.8	
905.53	6281.8	
905.69	6281.8	
905.86	6281.8	
906.02	6281.8	
906.18	6281.8	
906.35	6281.8	
906.51	6281.8	
906.68	6281.8	
906.84	6281.8	
907.01	6281.8	
907.17	6281.8	
907.33	6281.8	
907.5	6281.8	
907.66	6281.8	
907.83	6281.8	
907.99	6281.8	
908.15	6281.8	
908.32	6281.8	
908.48	6281.8	
908.65	6281.8	
908.81	6281.8	
908.97	6281.8	
909.14	6281.8	
909.3	6281.8	
909.47	6281.8	
909.63	6281.8	
909.79	6281.8	
909.96	6281.8	
910.12	6281.8	
910.28	6281.8	
910.45	6281.8	
910.61	6281.8	
910.78	6281.8	
910.94	6281.8	
911.1	6281.8	
911.27	6281.8	
911.43	6281.8	
911.59	6281.8	
911.76	6281.8	
911.92	6281.8	
912.08	6281.8	
912.25	6281.8	
912.41	6281.8	
912.57	6281.8	
912.74	6281.8	
912.9	6281.8	
913.07	6281.8	
913.23	6281.8	
913.39	6281.8	
913.56	6281.8	
913.72	6281.8	
913.88	6281.8	
914.05	6281.8	
914.21	6281.8	
914.37	6281.8	
914.54	6281.8	
914.7	6281.8	
914.86	6281.8	
915.03	6281.8	
915.19	6281.8	
