Wavelength	Intensities	
nm	a.u.	
179.22	1762.4	
179.44	1764.3	
179.65	1760.6	
179.86	1768.1	
180.08	1797.4	
180.29	4240.7	
180.51	3149.8	
180.72	5200.5	
180.94	5942.5	
181.15	2963.4	
181.37	2893.1	
181.58	5003.2	
181.79	5226.4	
182.01	2982.5	
182.22	3235.1	
182.44	5261.9	
182.65	4521.2	
182.87	3876.8	
183.08	3506.8	
183.29	5487.2	
183.51	4584.7	
183.72	3175.7	
183.94	4618.9	
184.15	4967	
184.37	4921.3	
184.58	2927.2	
184.79	3786	
185.01	4618.9	
185.22	5315.2	
185.44	4001	
185.65	3419.4	
185.86	4917.2	
186.08	4496	
186.29	2783.9	
186.51	2972.3	
186.72	4657.8	
186.94	5362.3	
187.15	3388	
187.36	3507.5	
187.58	6851.8	
187.79	4991.6	
188.01	3600.3	
188.22	5519.3	
188.43	5928.2	
188.65	5182	
188.86	2981.2	
189.08	3484.3	
189.29	4789.5	
189.5	4792.2	
189.72	3268.6	
189.93	3330	
190.15	5435.3	
190.36	6331	
190.57	3551.2	
190.79	3471.3	
191	5464.7	
191.22	5401.2	
191.43	3559.4	
191.64	3020.8	
191.86	5699.5	
192.07	5382.7	
192.29	3160.7	
192.5	3236.5	
192.71	5410.1	
192.93	4709.6	
193.14	3262.4	
193.35	3386.7	
193.57	4812	
193.78	5386.2	
194	2666.5	
194.21	3167.5	
194.42	4599.1	
194.64	4958.8	
194.85	3497.9	
195.07	4052.9	
195.28	4947.2	
195.49	4385.4	
195.71	4250.2	
195.92	3033	
196.13	5086.5	
196.35	5153.4	
196.56	4476.2	
196.78	3487	
196.99	6279.8	
197.2	5911.1	
197.42	3945.1	
197.63	3596.2	
197.84	4492.6	
198.06	5141.1	
198.27	3235.8	
198.48	4239.3	
198.7	4718.5	
198.91	4917.9	
199.13	3514.3	
199.34	3537.5	
199.55	5386.2	
199.77	4326.7	
199.98	3184.6	
200.19	3599	
200.41	4866.7	
200.62	4649.6	
200.83	3659.7	
201.05	3948.5	
201.26	4896.7	
201.47	4663.2	
201.69	3164.1	
201.9	3047.4	
202.11	4850.3	
202.33	5791	
202.54	3414	
202.76	3678.8	
202.97	4967	
203.18	5040.1	
203.4	3660.4	
203.61	3654.9	
203.82	5045.5	
204.04	4664.6	
204.25	3582.6	
204.46	3476.1	
204.68	4973.8	
204.89	5204.6	
205.1	3446.7	
205.32	3004.4	
205.53	5298.1	
205.74	5454.4	
205.96	2649.4	
206.17	3581.9	
206.38	5248.9	
206.6	5382.1	
206.81	4098	
207.02	3319.1	
207.24	5188.2	
207.45	5520.6	
207.66	3446	
207.88	2977.1	
208.09	5173.9	
208.3	4928.1	
208.52	3120.4	
208.73	3357.3	
208.94	4990.2	
209.15	5512.4	
209.37	3398.3	
209.58	3768.3	
209.79	5367	
210.01	4758.8	
210.22	2726.5	
210.43	2867.2	
210.65	4978.6	
210.86	5307	
211.07	3397.6	
211.29	3072	
211.5	5196.4	
211.71	4821.6	
211.93	3080.1	
212.14	3123.8	
212.35	4865.3	
212.56	5100.8	
212.78	3593.5	
212.99	2920.4	
213.2	5739.8	
213.42	4784.7	
213.63	3261.7	
213.84	3416	
214.06	4397	
214.27	4537.6	
214.48	3413.3	
214.69	3554.6	
214.91	5504.3	
215.12	5575.3	
215.33	3601	
215.55	3887	
215.76	5982.8	
215.97	5240.8	
216.18	3465.8	
216.4	3487.7	
216.61	4711.7	
216.82	5314.5	
217.04	3170.9	
217.25	3229	
217.46	5463.3	
217.67	5271.5	
217.89	2793.4	
218.1	2957.9	
218.31	5055.8	
218.53	5078.3	
218.74	3315.7	
218.95	3261	
219.16	4880.3	
219.38	5712.5	
219.59	3188.7	
219.8	3745.7	
220.01	6225.8	
220.23	5010.7	
220.44	4079.6	
220.65	3133.4	
220.87	5023.7	
221.08	5517.2	
221.29	2957.9	
221.5	3784.6	
221.72	6528.9	
221.93	4755.4	
222.14	3543	
222.35	4122.6	
222.57	4957.4	
222.78	5275.6	
222.99	3400.3	
223.2	3665.9	
223.42	5191.6	
223.63	5286.5	
223.84	2702	
224.05	2657.6	
224.27	6129.6	
224.48	5655.8	
224.69	4182	
224.9	3559.4	
225.12	5093.3	
225.33	4919.9	
225.54	2866.5	
225.75	3178.4	
225.97	4616.1	
226.18	4827.7	
226.39	3419.4	
226.6	3210.5	
226.82	4775.2	
227.03	4634.6	
227.24	3587.4	
227.45	2981.2	
227.67	5305.6	
227.88	5710.4	
228.09	3950.5	
228.3	3972.4	
228.52	5296	
228.73	4893.3	
228.94	3314.3	
229.15	3007.8	
229.36	4873.5	
229.58	4854.4	
229.79	3324.5	
230	3819.5	
230.21	5842.2	
230.43	4986.1	
230.64	3504.1	
230.85	3638.6	
231.06	5356.1	
231.28	5266.7	
231.49	2967.5	
231.7	3417.4	
231.91	5240.1	
232.12	5000.5	
232.34	3036.5	
232.55	3440.6	
232.76	5449.6	
232.97	5078.3	
233.18	3189.4	
233.4	3547.1	
233.61	5144.5	
233.82	4749.9	
234.03	3323.2	
234.25	3285.6	
234.46	6643.6	
234.67	5042.1	
234.88	3610.6	
235.09	3198.2	
235.31	5114.5	
235.52	4866	
235.73	3501.3	
235.94	2982.5	
236.15	4722.6	
236.37	5910.4	
236.58	3185.3	
236.79	3446.7	
237	5253.7	
237.21	4567	
237.43	3601.7	
237.64	2930	
237.85	8459.5	
238.06	4577.9	
238.27	3678.8	
238.48	3018	
238.7	5264	
238.91	4795.7	
239.12	3375.7	
239.33	3454.2	
239.54	4657.8	
239.76	4894	
239.97	3400.3	
240.18	3403.7	
240.39	6047.7	
240.6	5160.9	
240.82	3521.1	
241.03	2967.5	
241.24	4915.8	
241.45	5667.4	
241.66	3099.3	
241.87	3659.7	
242.09	5545.2	
242.3	5830.6	
242.51	3678.8	
242.72	3342.3	
242.93	5318.6	
243.14	4911	
243.36	3918.4	
243.57	4248.9	
243.78	5666	
243.99	5240.8	
244.2	3384.6	
244.41	3117.7	
244.63	4622.3	
244.84	5165	
245.05	3675.4	
245.26	3383.9	
245.47	5183.4	
245.68	5348.6	
245.9	4391.5	
246.11	3594.2	
246.32	4829.8	
246.53	5186.8	
246.74	5358.9	
246.95	2917	
247.16	4556.7	
247.38	4973.2	
247.59	2914.9	
247.8	3409.2	
248.01	4636.6	
248.22	4906.9	
248.43	3078.8	
248.64	3305.4	
248.86	4463.9	
249.07	4749.2	
249.28	3007.8	
249.49	3501.3	
249.7	5406	
249.91	5526.1	
250.12	2870.6	
250.34	2979.1	
250.55	5058.5	
250.76	4942.4	
250.97	3562.8	
251.18	3564.1	
251.39	5522	
251.6	5107.6	
251.81	3633.8	
252.03	3536.2	
252.24	4774.5	
252.45	5354.8	
252.66	3024.8	
252.87	3698.6	
253.08	4956.8	
253.29	6298.2	
253.5	3025.5	
253.72	4067.9	
253.93	4876.9	
254.14	5751.4	
254.35	3237.8	
254.56	3303.4	
254.77	5196.4	
254.98	4616.8	
255.19	3240.6	
255.41	4006.5	
255.62	5029.1	
255.83	5472.9	
256.04	3624.9	
256.25	3541.6	
256.46	6046.3	
256.67	4644.8	
256.88	3526.6	
257.09	3882.3	
257.31	4655.7	
257.52	4738.3	
257.73	4416.1	
257.94	3287	
258.15	4832.5	
258.36	4953.4	
258.57	4005.1	
258.78	2647.3	
258.99	5384.8	
259.2	4851.6	
259.41	3305.4	
259.63	3380.5	
259.84	5669.5	
260.05	5942.5	
260.26	4160.8	
260.47	3175	
260.68	5427.8	
260.89	4902.2	
261.1	3887	
261.31	3155.9	
261.52	5481	
261.73	5728.2	
261.95	4147.8	
262.16	3670	
262.37	5552	
262.58	5585.5	
262.79	4095.3	
263	3321.8	
263.21	4912.4	
263.42	4858.5	
263.63	3368.9	
263.84	3319.8	
264.05	5385.5	
264.26	5674.2	
264.47	4111	
264.69	3672.7	
264.9	5581.4	
265.11	5114.5	
265.32	3149.1	
265.53	3239.9	
265.74	5060.5	
265.95	4450.9	
266.16	3517	
266.37	3788.7	
266.58	5053.7	
266.79	4792.2	
267	3275.4	
267.21	2993.4	
267.42	4596.3	
267.63	4956.1	
267.84	3369.6	
268.06	2994.8	
268.27	5391.6	
268.48	5463.3	
268.69	3312.9	
268.9	3945.8	
269.11	5558.9	
269.32	4513	
269.53	3361.4	
269.74	3121.8	
269.95	5193.6	
270.16	4470	
270.37	3365.5	
270.58	3895.9	
270.79	4842.8	
271	5355.4	
271.21	3633.8	
271.42	3401.7	
271.63	5154.7	
271.84	4610.7	
272.05	2798.2	
272.26	3101.3	
272.47	5003.2	
272.68	5116.5	
272.89	3244	
273.11	3771	
273.32	4777.2	
273.53	5689.3	
273.74	3634.5	
273.95	3572.3	
274.16	5394.3	
274.37	5025.7	
274.58	3769.6	
274.79	3033	
275	5086.5	
275.21	5485.8	
275.42	4427.7	
275.63	3799	
275.84	5147.2	
276.05	6307.1	
276.26	3528	
276.47	3348.4	
276.68	4882.4	
276.89	5772.5	
277.1	3767.6	
277.31	2988	
277.52	5206.6	
277.73	5359.5	
277.94	2933.4	
278.15	3306.8	
278.36	5164.3	
278.57	4639.3	
278.78	3345	
278.99	3646.7	
279.2	4723.3	
279.41	4614.1	
279.62	4260.5	
279.83	3083.6	
280.04	5881.8	
280.25	4652.3	
280.46	4196.3	
280.67	3420.8	
280.88	4670.7	
281.09	5531.6	
281.3	3554.6	
281.51	4427.7	
281.72	4778.6	
281.93	5376.6	
282.14	3216	
282.35	3476.1	
282.56	5417.6	
282.77	5357.5	
282.98	3300.6	
283.19	3977.8	
283.4	6440.2	
283.61	4944.5	
283.82	3032.4	
284.03	4145.8	
284.24	5098.1	
284.45	5493.3	
284.66	4172.4	
284.87	4044.7	
285.08	5521.3	
285.29	5589.6	
285.5	2960	
285.71	3371	
285.92	5425.8	
286.12	6021	
286.33	4147.1	
286.54	3337.5	
286.75	5346.6	
286.96	4884.4	
287.17	3126.6	
287.38	4078.2	
287.59	4705.5	
287.8	4655	
288.01	3353.9	
288.22	3766.9	
288.43	5347.2	
288.64	4502.8	
288.85	3962.8	
289.06	3730.7	
289.27	5300.1	
289.48	5689.3	
289.69	4187.4	
289.9	3756.7	
290.11	5525.4	
290.32	4723.3	
290.53	3951.9	
290.74	3608.5	
290.94	5332.2	
291.15	5373.2	
291.36	3139.5	
291.57	3786.7	
291.78	4752.7	
291.99	4465.3	
292.2	3104.7	
292.41	3686.3	
292.62	5421	
292.83	5243.5	
293.04	4506.2	
293.25	3134.1	
293.46	4839.4	
293.67	5438	
293.88	3184.6	
294.09	3093.8	
294.29	4652.3	
294.5	5089.9	
294.71	3444.7	
294.92	3252.9	
295.13	4840.7	
295.34	5896.8	
295.55	2933.4	
295.76	2909.5	
295.97	5313.1	
296.18	5824.4	
296.39	3109.5	
296.6	3211.2	
296.81	5048.2	
297.01	5364.3	
297.22	3371	
297.43	3223.5	
297.64	4678.2	
297.85	4667.3	
298.06	2702	
298.27	2895.1	
298.48	4988.9	
298.69	4725.3	
298.9	3481.5	
299.11	3238.5	
299.31	4577.2	
299.52	4597	
299.73	3713	
299.94	3654.9	
300.15	5014.1	
300.36	4693.3	
300.57	3638.6	
300.78	3589.4	
300.99	4853.7	
301.2	5057.8	
301.4	3235.8	
301.61	3434.4	
301.82	5193	
302.03	5315.8	
302.24	3789.4	
302.45	3019.4	
302.66	5223	
302.87	5539.8	
303.08	3201.7	
303.29	4309.6	
303.49	4749.9	
303.7	4993.6	
303.91	2889	
304.12	4116.4	
304.33	4590.2	
304.54	5049.6	
304.75	3276.1	
304.96	3096.5	
305.16	5208	
305.37	5783.5	
305.58	2856.2	
305.79	2938.2	
306	5236	
306.21	4491.9	
306.42	3214.6	
306.63	4773.1	
306.83	4849.6	
307.04	5368.4	
307.25	3543.7	
307.46	3480.9	
307.67	4369	
307.88	5299.5	
308.09	3186.6	
308.29	3288.4	
308.5	5063.9	
308.71	5413.5	
308.92	3438.5	
309.13	3113.6	
309.34	4866	
309.55	4915.8	
309.75	3940.3	
309.96	3618.8	
310.17	5359.5	
310.38	4710.3	
310.59	3797.6	
310.8	3048.1	
311.01	5710.4	
311.21	4879.6	
311.42	3072.6	
311.63	3203	
311.84	4786.1	
312.05	5074.2	
312.26	3567.6	
312.46	3833.1	
312.67	4806.6	
312.88	4594.3	
313.09	3121.1	
313.3	3016	
313.51	5599.8	
313.71	5925.5	
313.92	3130	
314.13	3249.4	
314.34	5115.8	
314.55	4956.1	
314.76	3940.3	
314.96	3465.2	
315.17	5083.1	
315.38	5218.2	
315.59	3127.2	
315.8	3017.3	
316.01	5653.1	
316.21	5722.7	
316.42	3045.3	
316.63	3418.1	
316.84	4859.1	
317.05	5464.7	
317.26	3664.5	
317.46	3315.7	
317.67	4901.5	
317.88	5294	
318.09	3907.5	
318.3	2916.3	
318.5	4773.8	
318.71	5196.4	
318.92	4882.4	
319.13	3653.6	
319.34	5403.9	
319.54	5516.5	
319.75	2908.1	
319.96	2798.2	
320.17	5266	
320.38	5434.6	
320.58	2885.6	
320.79	3347.7	
321	5458.5	
321.21	5498.8	
321.42	3500	
321.62	2932.7	
321.83	4687.1	
322.04	4945.8	
322.25	3298.6	
322.46	3164.8	
322.66	5094	
322.87	5204.6	
323.08	3802.4	
323.29	3042.6	
323.5	5837.4	
323.7	4627.7	
323.91	4196.3	
324.12	3730.7	
324.33	5061.2	
324.53	5266.7	
324.74	3642.7	
324.95	3778.5	
325.16	4485.1	
325.37	4830.5	
325.57	3097.2	
325.78	3196.9	
325.99	5031.9	
326.2	4542.4	
326.4	4321.2	
326.61	2902.7	
326.82	4919.9	
327.03	5046.2	
327.24	4339	
327.44	4116.4	
327.65	5172.5	
327.86	4277.5	
328.07	3648.1	
328.27	3014.6	
328.48	5529.5	
328.69	4599.7	
328.9	4422.9	
329.1	3326.6	
329.31	4885.1	
329.52	5611.4	
329.73	3110.2	
329.93	3433.8	
330.14	4980.7	
330.35	5158.8	
330.56	4949.3	
330.76	3717.1	
330.97	4776.5	
331.18	5148.6	
331.39	3429.7	
331.59	2842.6	
331.8	5468.8	
332.01	5558.2	
332.22	3178.4	
332.42	3634.5	
332.63	5062.6	
332.84	4711.7	
333.05	3506.1	
333.25	3184.6	
333.46	4746.5	
333.67	4980.7	
333.88	3284.3	
334.08	3594.9	
334.29	6917.4	
334.5	5525.4	
334.7	3017.3	
334.91	4303.5	
335.12	4588.8	
335.33	5267.4	
335.53	3525.9	
335.74	4958.8	
335.95	4841.4	
336.16	4624.3	
336.36	3457	
336.57	3923.9	
336.78	4555.4	
336.98	5477	
337.19	4158.1	
337.4	3358	
337.61	5883.8	
337.81	4562.9	
338.02	3247.4	
338.23	3988.1	
338.43	5621.7	
338.64	4699.4	
338.85	3136.1	
339.05	4080.2	
339.26	5704.3	
339.47	4473.4	
339.68	3169.6	
339.88	4518.5	
340.09	5207.3	
340.3	5372.5	
340.5	3641.3	
340.71	2796.2	
340.92	4568.3	
341.13	5533.6	
341.33	3058.3	
341.54	3657.7	
341.75	5152	
341.95	4816.8	
342.16	3432.4	
342.37	3830.4	
342.57	4590.2	
342.78	4931.5	
342.99	3872.7	
343.19	2884.2	
343.4	5354.8	
343.61	5211.4	
343.81	3333.4	
344.02	3031	
344.23	5286.5	
344.43	5605.3	
344.64	3864.5	
344.85	3768.3	
345.06	5210	
345.26	5426.4	
345.47	3620.1	
345.68	4169.7	
345.88	4437.9	
346.09	5318.6	
346.3	3666.5	
346.5	2799.6	
346.71	4913.8	
346.92	4678.2	
347.12	2946.3	
347.33	3643.3	
347.54	5424.4	
347.74	5728.9	
347.95	3558	
348.16	2751.1	
348.36	4800.4	
348.57	4573.1	
348.78	3610.6	
348.98	3824.9	
349.19	4886.5	
349.39	4461.2	
349.6	2926.5	
349.81	3205.1	
350.01	5237.3	
350.22	4726.7	
350.43	3502	
350.63	4138.9	
350.84	4945.8	
351.05	4799.1	
351.25	3150.5	
351.46	2924.5	
351.67	5433.3	
351.87	4664.6	
352.08	3356.6	
352.29	3822.2	
352.49	5385.5	
352.7	5028.4	
352.9	3039.2	
353.11	3706.1	
353.32	5910.4	
353.52	4791.6	
353.73	3043.3	
353.94	3836.5	
354.14	5188.9	
354.35	5040.1	
354.55	3124.5	
354.76	3447.4	
354.97	5227.1	
355.17	4953.4	
355.38	3009.1	
355.59	3947.8	
355.79	4656.4	
356	4971.8	
356.2	3423.5	
356.41	3034.4	
356.62	4477.5	
356.82	4923.3	
357.03	3618.1	
357.24	3380.5	
357.44	4724.7	
357.65	4814.1	
357.85	4329.4	
358.06	3469.9	
358.27	4483.7	
358.47	4674.1	
358.68	2960	
358.88	3629	
359.09	5163.6	
359.3	5429.2	
359.5	4222.2	
359.71	3742.3	
359.91	5802.6	
360.12	5246.9	
360.33	3648.1	
360.53	4061.1	
360.74	4717.2	
360.94	4757.4	
361.15	3852.2	
361.36	3179.1	
361.56	5350	
361.77	4917.9	
361.97	4220.9	
362.18	3404.4	
362.38	5359.5	
362.59	4614.1	
362.8	3167.5	
363	2981.8	
363.21	4412	
363.41	4971.1	
363.62	3556.6	
363.83	4399.7	
364.03	5119.9	
364.24	5792.3	
364.44	4478.2	
364.65	4401.8	
364.85	4900.1	
365.06	4593.6	
365.27	3318.4	
365.47	3355.9	
365.68	5717.9	
365.88	4884.4	
366.09	3617.4	
366.29	3336.8	
366.5	5117.2	
366.71	5429.8	
366.91	4406.5	
367.12	3784.6	
367.32	5926.8	
367.53	5262.6	
367.73	3742.3	
367.94	4491.9	
368.14	5248.3	
368.35	5927.5	
368.56	3807.9	
368.76	3244	
368.97	5430.5	
369.17	6733	
369.38	3303.4	
369.58	3558	
369.79	4599.7	
369.99	5614.8	
370.2	4382	
370.4	3616	
370.61	5152.7	
370.82	6081.8	
371.02	3542.3	
371.23	3003	
371.43	4549.2	
371.64	5642.2	
371.84	3603.7	
372.05	4539	
372.25	6636.8	
372.46	5335.6	
372.66	3642	
372.87	3536.8	
373.07	5425.1	
373.28	6741.2	
373.48	4407.9	
373.69	4170.3	
373.9	5020.3	
374.1	5028.4	
374.31	4375.1	
374.51	3969.6	
374.72	5657.9	
374.92	4762.2	
375.13	4493.9	
375.33	3891.1	
375.54	5297.4	
375.74	4863.9	
375.95	3900	
376.15	4855.7	
376.36	5388.2	
376.56	5243.5	
376.77	3967.6	
376.97	4354	
377.18	6275	
377.38	5458.5	
377.59	4403.1	
377.79	3560.1	
378	5289.9	
378.2	5558.2	
378.41	3603.7	
378.61	3507.5	
378.82	5650.3	
379.02	4971.1	
379.23	3713.6	
379.43	4652.3	
379.64	5804.6	
379.84	5412.8	
380.05	3650.2	
380.25	3492.5	
380.46	5505.6	
380.66	5180	
380.87	4644.8	
381.07	4973.2	
381.28	5992.4	
381.48	5511.1	
381.69	3581.9	
381.89	3657.7	
382.1	4657.1	
382.3	5560.2	
382.51	4513	
382.71	5271.5	
382.91	5437.4	
383.12	5890	
383.32	3893.2	
383.53	4052.2	
383.73	5324	
383.94	5203.9	
384.14	4040.6	
384.35	3303.4	
384.55	5069.4	
384.76	5418.9	
384.96	3904.8	
385.17	4148.5	
385.37	5507.7	
385.58	4904.2	
385.78	4117.8	
385.98	3230.3	
386.19	5041.4	
386.39	5399.1	
386.6	3641.3	
386.8	3918.4	
387.01	5446.9	
387.21	5539.1	
387.42	4203.1	
387.62	4721.9	
387.83	5019.6	
388.03	5337.7	
388.23	3923.9	
388.44	4601.1	
388.64	4665.3	
388.85	4845.5	
389.05	4229.1	
389.26	4620.2	
389.46	6355.5	
389.67	5898.1	
389.87	4161.5	
390.07	4217.5	
390.28	5185.5	
390.48	4876.9	
390.69	3547.1	
390.89	3831.1	
391.1	5043.5	
391.3	5842.2	
391.5	4851	
391.71	5307	
391.91	5646.2	
392.12	6382.8	
392.32	4852.3	
392.53	4188.1	
392.73	5117.2	
392.93	5231.2	
393.14	3966.2	
393.34	4562.9	
393.55	5566.4	
393.75	5188.9	
393.95	3978.5	
394.16	3818.1	
394.36	5053.7	
394.57	5555.5	
394.77	3590.8	
394.98	3928.7	
395.18	5033.2	
395.38	5202.5	
395.59	4567.7	
395.79	3752.6	
396	5166.3	
396.2	5529.5	
396.4	4411.3	
396.61	4355.3	
396.81	5657.2	
397.02	5074.2	
397.22	4629.8	
397.42	4661.2	
397.63	5775.3	
397.83	5054.4	
398.04	3710.2	
398.24	4125.3	
398.44	5466.7	
398.65	4695.3	
398.85	3614	
399.05	3631.7	
399.26	5091.9	
399.46	6418.3	
399.67	4009.9	
399.87	3817.4	
400.07	5348.6	
400.28	5659.9	
400.48	3866.6	
400.69	4772.4	
400.89	5769.8	
401.09	6152.8	
401.3	3805.1	
401.5	4704.9	
401.7	6335	
401.91	6511.9	
402.11	4117.1	
402.32	4284.4	
402.52	5877	
402.72	5761.6	
402.93	4403.1	
403.13	3485.6	
403.33	6404.7	
403.54	5284.4	
403.74	4175.8	
403.94	4845.5	
404.15	5384.8	
404.35	6375.3	
404.56	3951.9	
404.76	5544.5	
404.96	5728.2	
405.17	5631.2	
405.37	5042.1	
405.57	4431.8	
405.78	5816.2	
405.98	5363.6	
406.18	4045.4	
406.39	4740.4	
406.59	5799.2	
406.79	5377.3	
407	3790.8	
407.2	3905.5	
407.4	5835.3	
407.61	6021	
407.81	3992.9	
408.01	5614.8	
408.22	4956.1	
408.42	6548.7	
408.62	4874.8	
408.83	4440	
409.03	5507	
409.23	5438.7	
409.44	4486.4	
409.64	4725.3	
409.84	6244.3	
410.05	6189	
410.25	4637.3	
410.45	4394.3	
410.66	5846.3	
410.86	7925	
411.06	4784.7	
411.27	4675.5	
411.47	7608.2	
411.67	5967.8	
411.88	4793.6	
412.08	5018.2	
412.28	6464.1	
412.49	6853.9	
412.69	4703.5	
412.89	4709.6	
413.09	6662.7	
413.3	6605.4	
413.5	4778.6	
413.7	4431.1	
413.91	6034	
414.11	6724.8	
414.31	4602.5	
414.52	4932.9	
414.72	6476.4	
414.92	6324.8	
415.12	4625	
415.33	5056.4	
415.53	6612.9	
415.73	6826.6	
415.94	5311.1	
416.14	4831.8	
416.34	5918.6	
416.55	5638.1	
416.75	5791	
416.95	5291.3	
417.15	6815.6	
417.36	7233.4	
417.56	6030.6	
417.76	5242.8	
417.97	7047.1	
418.17	6723.5	
418.37	4929.5	
418.57	4941.7	
418.78	6550.1	
418.98	6251.8	
419.18	5629.9	
419.38	5580	
419.59	6248.4	
419.79	6027.2	
419.99	4766.3	
420.2	5104.2	
420.4	6784.9	
420.6	6870.9	
420.8	4837.3	
421.01	4689.2	
421.21	6541.9	
421.41	6725.5	
421.61	5042.8	
421.82	4863.2	
422.02	6186.2	
422.22	6925.5	
422.42	5399.1	
422.63	5165	
422.83	6163.7	
423.03	7154.2	
423.23	5201.2	
423.44	4396.3	
423.64	6265.4	
423.84	5922.7	
424.04	4700.8	
424.25	4521.9	
424.45	7063.4	
424.65	6906.4	
424.85	4346.5	
425.06	4734.9	
425.26	7068.9	
425.46	6213.5	
425.66	5138.4	
425.87	4910.3	
426.07	6710.5	
426.27	6643.6	
426.47	5011.4	
426.67	4430.4	
426.88	7064.8	
427.08	6601.3	
427.28	5184.1	
427.48	4363.5	
427.69	5734.3	
427.89	6191	
428.09	5132.9	
428.29	4429.8	
428.5	6714.6	
428.7	6389	
428.9	4349.9	
429.1	4825.7	
429.3	6324.8	
429.51	6645.7	
429.71	4670.1	
429.91	5364.3	
430.11	6673	
430.31	6808.8	
430.52	4858.5	
430.72	5096	
430.92	7064.8	
431.12	6610.8	
431.32	4584.7	
431.53	4982	
431.73	5745.2	
431.93	7099.6	
432.13	4498.7	
432.33	4479.6	
432.54	6209.4	
432.74	6381.5	
432.94	4360.8	
433.14	5264.6	
433.34	6595.1	
433.55	6191	
433.75	5207.3	
433.95	6645.7	
434.15	6384.9	
434.35	6187.6	
434.56	4547.9	
434.76	4216.1	
434.96	6366.5	
435.16	6595.1	
435.36	4433.2	
435.56	5397.1	
435.77	6141.2	
435.97	6197.2	
436.17	5957.5	
436.37	5289.2	
436.57	6061.3	
436.78	5996.5	
436.98	6840.9	
437.18	5849.7	
437.38	6530.3	
437.58	6229.9	
437.78	5858.6	
437.99	4808.6	
438.19	6636.8	
438.39	7292.8	
438.59	4708.3	
438.79	4318.5	
438.99	7109.9	
439.2	6195.8	
439.4	4463.2	
439.6	4468.7	
439.8	6454.5	
440	7295.5	
440.2	5288.5	
440.4	5337.7	
440.61	6835.4	
440.81	7167.2	
441.01	4579.3	
441.21	5372.5	
441.41	7126.2	
441.61	6770.6	
441.81	5543.9	
442.02	6361.7	
442.22	7509.2	
442.42	6865.5	
442.62	4695.3	
442.82	4753.3	
443.02	7221.8	
443.22	6487.3	
443.43	5078.3	
443.63	4675.5	
443.83	6249.7	
444.03	6255.2	
444.23	5655.1	
444.43	5377.3	
444.63	6618.4	
444.83	7477.1	
445.04	4785.4	
445.24	5696.8	
445.44	6844.3	
445.64	6940.6	
445.84	5354.1	
446.04	5396.4	
446.24	6244.3	
446.44	7118.1	
446.65	4691.9	
446.85	5037.3	
447.05	6345.3	
447.25	7094.2	
447.45	5164.3	
447.65	4595	
447.85	6622.4	
448.05	6236.1	
448.25	5460.6	
448.46	5355.4	
448.66	6609.5	
448.86	6300.9	
449.06	4575.8	
449.26	5498.1	
449.46	6882.5	
449.66	6089.3	
449.86	5059.2	
450.06	5015.5	
450.26	6262.7	
450.47	6710.5	
450.67	5214.8	
450.87	5524.7	
451.07	6836.8	
451.27	6539.8	
451.47	4722.6	
451.67	5152	
451.87	6330.3	
452.07	7270.3	
452.27	4926.7	
452.47	4853.7	
452.67	6580.1	
452.88	6979.5	
453.08	4317.1	
453.28	5973.2	
453.48	7537.9	
453.68	6495.5	
453.88	4869.4	
454.08	4984.1	
454.28	6935.1	
454.48	6584.9	
454.68	5375.9	
454.88	5808.7	
455.08	6924.9	
455.28	6769.9	
455.48	4713.7	
455.68	5264.6	
455.89	7311.2	
456.09	7030.7	
456.29	5014.8	
456.49	5026.4	
456.69	7187.7	
456.89	6551.5	
457.09	5424.4	
457.29	5724.1	
457.49	6926.2	
457.69	7003.4	
457.89	5358.9	
458.09	4868.7	
458.29	6577.4	
458.49	7363.8	
458.69	5614.8	
458.89	5119.2	
459.09	7355.6	
459.29	7566.6	
459.49	5260.5	
459.69	5797.1	
459.9	7092.8	
460.1	6680.5	
460.3	5078.3	
460.5	4962.9	
460.7	7221.1	
460.9	6797.2	
461.1	4702.1	
461.3	5734.3	
461.5	7621.9	
461.7	7345.4	
461.9	5103.5	
462.1	5378.6	
462.3	6903.7	
462.5	7324.2	
462.7	5113.8	
462.9	5134.9	
463.1	8234.9	
463.3	7871.7	
463.5	5369.8	
463.7	6146.6	
463.9	7060	
464.1	7334.5	
464.3	5490.6	
464.5	5715.9	
464.7	7618.4	
464.9	7249.8	
465.1	6723.5	
465.3	5904.3	
465.5	7812.3	
465.7	7807.5	
465.9	6298.9	
466.1	5980.1	
466.3	7696.9	
466.5	7524.2	
466.7	6694.8	
466.9	5776	
467.1	7572.7	
467.3	8296.3	
467.5	6697.5	
467.7	5793.7	
467.9	8450.6	
468.1	9116.9	
468.3	6440.2	
468.5	6753.5	
468.7	7439.6	
468.9	7428.7	
469.1	6014.9	
469.3	6581.5	
469.5	9138	
469.7	7081.2	
469.9	6384.9	
470.1	5748.6	
470.3	7568.6	
470.5	7547.4	
470.7	6838.2	
470.9	5816.9	
471.1	7345.4	
471.3	7661.5	
471.5	5737.7	
471.69	7286	
471.89	7289.4	
472.09	6787.7	
472.29	6343.2	
472.49	6675	
472.69	6992.4	
472.89	7712.7	
473.09	5617.6	
473.29	5687.2	
473.49	7172	
473.69	7294.2	
473.89	6574	
474.09	5810.8	
474.29	8286.1	
474.49	7918.1	
474.69	6489.3	
474.89	5982.8	
475.09	7318.1	
475.29	7232.7	
475.49	5522	
475.69	5696.1	
475.88	8675.9	
476.08	7604.1	
476.28	5437.4	
476.48	5821.7	
476.68	7896.3	
476.88	7735.9	
477.08	5695.4	
477.28	5944.6	
477.48	7348.8	
477.68	7881.3	
477.88	5495.4	
478.08	5825.1	
478.28	8122.9	
478.48	7402	
478.67	5871.5	
478.87	5349.3	
479.07	7958.4	
479.27	7449.1	
479.47	6074.3	
479.67	6008.1	
479.87	7775.5	
480.07	8270.4	
480.27	5473.5	
480.47	6737.8	
480.67	7546.8	
480.87	8094.9	
481.06	5699.5	
481.26	6397.2	
481.46	7485.3	
481.66	7389.8	
481.86	6003.3	
482.06	6847.7	
482.26	7289.4	
482.46	7979.6	
482.66	6004.6	
482.86	5623	
483.05	7600	
483.25	7109.2	
483.45	7942.7	
483.65	5943.2	
483.85	7148.1	
484.05	7400.7	
484.25	6330.3	
484.45	6748.1	
484.65	8117.5	
484.84	8129.1	
485.04	5945.3	
485.24	5982.8	
485.44	8348.9	
485.64	7057.3	
485.84	5345.2	
486.04	6460	
486.24	7385	
486.44	7643	
486.63	5311.1	
486.83	6027.9	
487.03	7260.7	
487.23	7395.2	
487.43	5429.8	
487.63	7323.5	
487.83	7374.7	
488.02	8323.6	
488.22	6225.1	
488.42	6673.6	
488.62	8189.1	
488.82	7279.2	
489.02	5896.1	
489.22	5935.7	
489.41	8038.3	
489.61	7759.1	
489.81	5681.1	
490.01	5726.8	
490.21	8062.9	
490.41	8573.5	
490.61	5672.9	
490.8	5799.8	
491	7589.8	
491.2	7029.3	
491.4	6303.6	
491.6	5598.5	
491.8	7639.6	
491.99	7681.2	
492.19	5374.6	
492.39	5713.8	
492.59	8015.1	
492.79	7998	
492.99	6490	
493.18	5659.2	
493.38	8178.9	
493.58	8785.1	
493.78	6389	
493.98	5868.8	
494.18	7922.2	
494.37	7404.8	
494.57	6494.8	
494.77	6356.2	
494.97	8077.2	
495.17	8260.8	
495.37	6076.3	
495.56	6391	
495.76	8415.8	
495.96	8169.3	
496.16	7086	
496.36	6219	
496.55	8325	
496.75	7846.5	
496.95	6544.6	
497.15	6410.1	
497.35	8252.6	
497.54	8260.1	
497.74	6283.2	
497.94	7438.2	
498.14	8885.5	
498.34	8696.4	
498.53	6018.3	
498.73	6688	
498.93	7672.4	
499.13	8264.2	
499.33	6567.8	
499.52	6953.5	
499.72	8241	
499.92	8438.3	
500.12	6237.4	
500.32	6480.5	
500.51	8475.2	
500.71	8196.7	
500.91	7144.7	
501.11	6791.7	
501.31	8351.6	
501.5	8761.2	
501.7	7294.2	
501.9	6486.6	
502.1	8185	
502.29	8519.5	
502.49	6931	
502.69	7262.1	
502.89	8346.8	
503.09	8453.3	
503.28	6077	
503.48	6210.8	
503.68	7778.2	
503.88	7772.7	
504.07	6864.8	
504.27	6434.7	
504.47	8116.1	
504.67	8246.5	
504.86	6911.2	
505.06	6614.3	
505.26	7892.2	
505.46	9284.8	
505.65	6574	
505.85	6728.9	
506.05	7871	
506.25	8249.9	
506.44	6016.9	
506.64	6690	
506.84	7758.4	
507.04	8344.1	
507.23	6229.2	
507.43	6718.7	
507.63	9324.4	
507.83	7989.1	
508.02	6668.2	
508.22	6324.8	
508.42	9548.3	
508.62	7727	
508.81	6538.5	
509.01	7010.9	
509.21	7552.9	
509.4	7817.1	
509.6	6634.1	
509.8	6218.3	
510	7891.5	
510.19	8936.7	
510.39	6118	
510.59	6204.7	
510.79	7709.2	
510.98	8720.3	
511.18	6241.5	
511.38	6377.4	
511.57	8501.8	
511.77	8153.6	
511.97	6869.6	
512.17	6086.6	
512.36	8369.4	
512.56	8267.6	
512.76	6065.4	
512.95	5889.3	
513.15	8488.1	
513.35	7251.9	
513.55	6823.8	
513.74	6193.7	
513.94	8355.7	
514.14	7785	
514.33	6970.6	
514.53	6786.3	
514.73	7800	
514.92	7933.8	
515.12	6225.1	
515.32	6139.8	
515.51	7984.3	
515.71	8436.3	
515.91	7510.6	
516.11	6178	
516.3	9491	
516.5	7740.6	
516.7	6640.9	
516.89	7150.8	
517.09	7829.4	
517.29	7734.5	
517.48	6901.7	
517.68	6389.7	
517.88	7592.5	
518.07	8103.8	
518.27	6794.5	
518.47	6000.5	
518.66	8583.7	
518.86	7472.4	
519.06	5870.2	
519.25	6244.3	
519.45	7682.6	
519.65	8875.9	
519.84	6808.1	
520.04	7428	
520.24	9226.8	
520.43	8295	
520.63	6605.4	
520.83	6284.5	
521.02	7678.5	
521.22	8047.8	
521.42	6776	
521.61	7214.3	
521.81	7842.4	
522.01	8062.2	
522.2	6656.6	
522.4	6397.9	
522.6	8341.4	
522.79	7326.3	
522.99	6519.4	
523.18	5964.4	
523.38	8125	
523.58	8107.2	
523.77	7529.7	
523.97	5925.5	
524.17	9584.5	
524.36	8988.5	
524.56	7000.6	
524.76	6752.8	
524.95	8154.3	
525.15	7821.2	
525.34	6570.6	
525.54	6610.2	
525.74	8464.9	
525.93	7648.5	
526.13	7583.6	
526.33	6637.5	
526.52	8762.6	
526.72	8248.5	
526.91	7645.8	
527.11	7041.6	
527.31	8712.1	
527.5	9083.4	
527.7	6944	
527.89	6179.4	
528.09	7849.9	
528.29	8270.4	
528.48	7272.3	
528.68	6901	
528.87	8643.8	
529.07	8703.2	
529.27	6929.6	
529.46	6518.7	
529.66	8358.4	
529.85	8757.1	
530.05	6418.3	
530.25	6960.4	
530.44	9564	
530.64	8363.9	
530.83	6726.9	
531.03	6950.1	
531.23	8751	
531.42	8496.3	
531.62	7631.4	
531.81	6929.6	
532.01	8892.3	
532.21	9180.4	
532.4	6791.1	
532.6	7012.9	
532.79	9540.8	
532.99	8993.3	
533.18	7000	
533.38	7862.8	
533.58	8531.8	
533.77	9094.3	
533.97	7016.3	
534.16	7735.9	
534.36	9510.1	
534.55	8576.9	
534.75	7914.7	
534.95	7106.5	
535.14	9267.7	
535.34	8520.2	
535.53	6879.1	
535.73	8562.6	
535.92	9780.4	
536.12	8686.1	
536.31	6977.4	
536.51	7897	
536.71	8999.5	
536.9	8531.8	
537.1	7027.3	
537.29	7129.7	
537.49	9318.3	
537.68	8459.5	
537.88	7458	
538.07	6797.9	
538.27	8742.1	
538.46	9537.4	
538.66	6761.7	
538.86	7186.3	
539.05	8729.1	
539.25	9200.2	
539.44	7413.6	
539.64	6963.1	
539.83	8691.6	
540.03	9362.6	
540.22	6959	
540.42	7120.1	
540.61	8756.4	
540.81	8877.3	
541	7417.1	
541.2	7986.4	
541.39	8460.8	
541.59	8808.3	
541.78	7700.4	
541.98	6920.1	
542.18	8189.1	
542.37	8208.3	
542.57	7180.2	
542.76	7659.4	
542.96	8286.1	
543.15	8809.7	
543.35	7274.4	
543.54	6672.3	
543.74	9021.3	
543.93	8755.7	
544.13	7144.7	
544.32	8105.9	
544.52	8918.2	
544.71	8357.1	
544.91	6478.4	
545.1	7503.8	
545.3	8250.6	
545.49	8893	
545.69	6440.2	
545.88	6982.9	
546.08	9667.8	
546.27	9274.6	
546.47	7358.4	
546.66	6688	
546.86	9084.8	
547.05	9426.8	
547.24	6923.5	
547.44	6849.8	
547.63	8193.9	
547.83	9100.5	
548.02	7107.8	
548.22	7288.7	
548.41	8039.6	
548.61	9125.7	
548.8	6765.1	
549	6689.3	
549.19	8640.4	
549.39	8944.8	
549.58	6531.7	
549.78	7019.8	
549.97	8806.3	
550.17	8425.3	
550.36	7686	
550.55	8509.3	
550.75	8485.4	
550.94	9224.1	
551.14	6754.9	
551.33	7060	
551.53	7856	
551.72	8705.2	
551.92	6965.8	
552.11	6795.8	
552.31	8885.5	
552.5	8729.8	
552.69	8172.8	
552.89	6582.2	
553.08	8632.2	
553.28	8373.5	
553.47	6844.3	
553.67	7727.7	
553.86	9211.1	
554.06	7844.4	
554.25	6277.7	
554.44	6632.7	
554.64	9818	
554.83	9473.9	
555.03	6510.5	
555.22	6925.5	
555.42	8829.5	
555.61	8589.2	
555.8	6799.9	
556	6991.1	
556.19	7838.9	
556.39	8949.6	
556.58	6761	
556.78	6782.2	
556.97	8555	
557.16	8233.5	
557.36	7871	
557.55	6493.4	
557.75	7692.9	
557.94	9185.1	
558.13	6664.1	
558.33	6445.6	
558.52	8907.3	
558.72	7999.4	
558.91	6462.7	
559.1	6640.9	
559.3	7825.3	
559.49	7617.8	
559.69	6152.1	
559.88	6972	
560.07	8408.3	
560.27	8836.3	
560.46	7174	
560.66	7210.2	
560.85	8294.3	
561.04	7623.2	
561.24	6501.6	
561.43	6595.8	
561.63	7804.8	
561.82	8051.2	
562.01	7583.6	
562.21	6853.9	
562.4	8404.2	
562.59	9199.5	
562.79	6752.8	
562.98	6496.2	
563.18	8376.9	
563.37	9454.1	
563.56	7118.7	
563.76	6370.5	
563.95	7959.8	
564.14	7869	
564.34	6736.5	
564.53	6529.6	
564.73	8373.5	
564.92	8560.5	
565.11	6774	
565.31	6396.5	
565.5	8865	
565.69	7886.7	
565.89	6595.8	
566.08	6703	
566.27	8781.7	
566.47	9144.2	
566.66	7350.2	
566.85	6209.4	
567.05	8452.6	
567.24	7903.8	
567.44	6477	
567.63	7582.3	
567.82	8598.1	
568.02	8374.1	
568.21	6451.1	
568.4	6870.3	
568.6	8255.4	
568.79	8221.2	
568.98	6363.7	
569.18	6513.9	
569.37	8280.6	
569.56	9930.6	
569.76	6774.7	
569.95	7595.2	
570.14	8569.4	
570.34	8519.5	
570.53	6494.1	
570.72	6390.3	
570.91	9017.2	
571.11	8264.2	
571.3	6859.3	
571.49	7563.1	
571.69	8378.9	
571.88	7956.4	
572.07	7224.6	
572.27	7310.6	
572.46	8013.7	
572.65	8802.9	
572.85	6618.4	
573.04	6949.4	
573.23	9017.9	
573.43	8471.8	
573.62	6544.6	
573.81	7015.7	
574	8497.7	
574.2	8275.2	
574.39	6676.4	
574.58	6792.4	
574.78	9090.9	
574.97	8490.2	
575.16	7227.3	
575.36	7313.3	
575.55	8859.5	
575.74	9005.6	
575.93	6427.2	
576.13	7348.8	
576.32	8377.6	
576.51	8813.8	
576.71	6817.7	
576.9	7912.7	
577.09	9158.5	
577.28	8768	
577.48	7167.9	
577.67	6389.7	
577.86	8393.9	
578.05	8600.1	
578.25	7020.4	
578.44	7075	
578.63	8400.8	
578.83	9541.5	
579.02	6469.5	
579.21	7774.8	
579.4	8656.1	
579.6	8404.9	
579.79	7070.3	
579.98	8868.4	
580.17	8939.4	
580.37	9095.7	
580.56	6674.3	
580.75	7230	
580.94	9355.8	
581.14	9288.2	
581.33	7668.3	
581.52	6793.1	
581.71	8839.7	
581.91	9364	
582.1	6534.4	
582.29	6930.3	
582.48	8544.8	
582.68	8462.2	
582.87	7478.5	
583.06	7066.9	
583.25	8917.5	
583.45	8243.1	
583.64	7603.4	
583.83	8137.9	
584.02	8492.9	
584.21	8811	
584.41	7632.8	
584.6	7018.4	
584.79	8646.5	
584.98	9181	
585.18	6660	
585.37	6688	
585.56	8208.9	
585.75	8874.5	
585.94	6788.3	
586.14	7368.6	
586.33	9338.1	
586.52	8443.8	
586.71	7215.7	
586.91	6937.2	
587.1	8084	
587.29	8903.2	
587.48	6880.5	
587.67	6754.2	
587.87	8819.9	
588.06	8802.2	
588.25	7883.3	
588.44	7329.7	
588.63	8373.5	
588.83	8956.4	
589.02	6873.7	
589.21	6817	
589.4	8361.2	
589.59	8282	
589.78	6239.5	
589.98	6488	
590.17	7952.3	
590.36	8346.8	
590.55	5913.2	
590.74	6574	
590.94	9447.3	
591.13	8265.6	
591.32	6369.9	
591.51	6032.6	
591.7	8584.4	
591.89	8138.6	
592.09	6096.8	
592.28	6460	
592.47	7542.7	
592.66	9063.6	
592.85	6109.8	
593.05	6325.5	
593.24	8161.8	
593.43	8790.6	
593.62	6419.7	
593.81	6789	
594	8114.1	
594.19	8285.4	
594.39	6247	
594.58	6256.5	
594.77	8366.6	
594.96	8761.9	
595.15	6244.9	
595.34	6776	
595.54	8366	
595.73	7692.2	
595.92	5736.4	
596.11	6638.1	
596.3	8757.8	
596.49	7761.1	
596.68	6490.7	
596.88	6849.8	
597.07	8488.1	
597.26	7569.3	
597.45	6075.6	
597.64	6986.3	
597.83	7834.2	
598.02	8295	
598.22	6143.9	
598.41	6650.4	
598.6	8081.3	
598.79	7735.2	
598.98	6178.7	
599.17	6840.9	
599.36	8069	
599.55	9035	
599.74	7815.7	
599.94	7613	
600.13	8518.2	
600.32	7570	
600.51	5909.8	
600.7	5963	
600.89	9024.7	
601.08	9078.6	
601.27	5894.7	
601.47	6629.3	
601.66	8462.2	
601.85	8925.7	
602.04	6408.8	
602.23	6509.1	
602.42	7572.7	
602.61	8149.6	
602.8	6380.8	
602.99	6012.8	
603.18	7946.8	
603.37	8159.1	
603.57	6606.1	
603.76	7125.6	
603.95	8682	
604.14	8279.3	
604.33	6159.6	
604.52	6466.8	
604.71	8056	
604.9	7774.1	
605.09	6920.8	
605.28	6750.1	
605.47	8657.4	
605.66	8272.4	
605.86	6632	
606.05	6217	
606.24	8577.6	
606.43	7359	
606.62	6520.7	
606.81	7019.1	
607	8459.5	
607.19	7909.9	
607.38	5909.1	
607.57	6150.7	
607.76	7722.9	
607.95	7264.8	
608.14	6588.3	
608.33	6994.5	
608.52	7674.4	
608.72	8394.6	
608.91	5844.9	
609.1	5792.3	
609.29	7854.6	
609.48	7354.9	
609.67	6649.1	
609.86	5910.4	
610.05	7512.6	
610.24	7731.1	
610.43	5856.5	
610.62	5492	
610.81	8787.2	
611	8588.5	
611.19	5890.6	
611.38	6498.2	
611.57	8040.3	
611.76	9041.8	
611.95	5694.7	
612.14	5580	
612.33	7769.3	
612.52	7419.1	
612.71	6120	
612.9	5544.5	
613.09	7109.9	
613.28	9084.8	
613.47	6083.8	
613.66	6678.4	
613.85	7941.3	
614.04	7551.5	
614.24	5937.1	
614.43	5330.2	
614.62	8041.7	
614.81	7950.9	
615	6391	
615.19	6446.3	
615.38	7371.3	
615.57	7729.7	
615.76	6350.1	
615.95	7175.4	
616.14	7987.8	
616.33	7772	
616.52	6593.8	
616.71	6782.9	
616.9	7984.3	
617.09	7870.3	
617.28	6063.4	
617.47	6978.8	
617.66	7322.2	
617.85	7302.4	
618.04	6819.1	
618.22	6307.7	
618.41	7608.2	
618.6	8313.4	
618.79	6287.3	
618.98	6083.8	
619.17	8542.8	
619.36	7228	
619.55	6164.4	
619.74	6189.6	
619.93	7969.3	
620.12	7499	
620.31	6703	
620.5	6724.8	
620.69	8443.1	
620.88	8822	
621.07	7295.5	
621.26	6672.3	
621.45	8161.8	
621.64	8164.6	
621.83	6687.3	
622.02	6000.5	
622.21	8263.6	
622.4	7968.6	
622.59	7115.3	
622.78	6966.5	
622.97	7643	
623.16	8434.2	
623.35	6663.4	
623.54	5913.9	
623.72	7769.3	
623.91	7915.4	
624.1	6836.8	
624.29	5770.5	
624.48	8914.8	
624.67	8269.7	
624.86	6748.1	
625.05	5990.3	
625.24	8961.2	
625.43	7576.8	
625.62	8223.3	
625.81	6222.4	
626	8386.4	
626.19	7869	
626.38	6693.4	
626.56	6390.3	
626.75	7686	
626.94	8333.9	
627.13	6817	
627.32	5806.7	
627.51	8373.5	
627.7	9348.3	
627.89	5933.6	
628.08	6850.5	
628.27	7647.1	
628.46	7833.5	
628.65	6135	
628.83	5841.5	
629.02	8278.6	
629.21	7585.7	
629.4	6520	
629.59	6662.7	
629.78	7566.6	
629.97	8411	
630.16	6742.6	
630.35	6230.6	
630.54	8806.3	
630.72	8551.6	
630.91	6297.5	
631.1	6728.3	
631.29	8039.6	
631.48	8203.5	
631.67	6838.9	
631.86	6373.3	
632.05	7813	
632.24	7820.5	
632.42	6034.7	
632.61	6496.2	
632.8	7811	
632.99	7617.1	
633.18	6623.8	
633.37	6869.6	
633.56	8119.5	
633.75	7920.9	
633.93	6604.7	
634.12	6358.9	
634.31	8860.2	
634.5	8308.6	
634.69	6345.3	
634.88	6814.3	
635.07	7949.5	
635.25	8428.1	
635.44	7098.9	
635.63	7234.1	
635.82	7838.3	
636.01	7300.3	
636.2	7098.3	
636.39	6701	
636.57	8766	
636.76	8505.9	
636.95	6159.6	
637.14	7296.2	
637.33	8204.8	
637.52	8889.5	
637.7	6004.6	
637.89	6784.2	
638.08	7761.8	
638.27	9012.4	
638.46	6892.8	
638.65	7213.6	
638.83	9067	
639.02	7740.6	
639.21	6774.7	
639.4	7247.1	
639.59	8127	
639.78	7724.9	
639.96	6220.4	
640.15	6251.1	
640.34	7983	
640.53	7951.6	
640.72	6081.1	
640.91	6298.2	
641.09	7497.6	
641.28	8544.1	
641.47	6287.9	
641.66	6966.5	
641.85	8092.9	
642.03	8190.5	
642.22	6763.1	
642.41	6402	
642.6	7631.4	
642.79	7155.6	
642.97	6138.4	
643.16	6677.1	
643.35	7548.8	
643.54	7420.5	
643.73	6090	
643.91	6659.3	
644.1	7288.7	
644.29	7909.9	
644.48	6143.2	
644.67	6272.9	
644.85	7475.8	
645.04	7767.9	
645.23	5879.7	
645.42	6073.6	
645.6	7376.1	
645.79	8279.9	
645.98	6004	
646.17	5281	
646.36	7173.4	
646.54	7632.1	
646.73	6778.8	
646.92	5743.9	
647.11	7324.2	
647.29	8232.2	
647.48	5766.4	
647.67	5641.5	
647.86	8350.9	
648.05	8428.8	
648.23	5990.3	
648.42	7058	
648.61	7847.1	
648.8	7507.2	
648.98	5714.5	
649.17	5961	
649.36	7210.9	
649.55	6911.9	
649.73	5819.6	
649.92	6379.4	
650.11	7193.1	
650.3	7320.8	
650.48	5896.1	
650.67	5638.1	
650.86	7707.9	
651.05	6782.2	
651.23	5822.4	
651.42	5807.4	
651.61	7135.8	
651.79	7232.7	
651.98	6073.6	
652.17	5674.2	
652.36	7600	
652.54	6750.1	
652.73	5697.4	
652.92	5526.8	
653.11	7599.3	
653.29	7638.9	
653.48	5137.7	
653.67	5965.1	
653.85	7402	
654.04	8326.4	
654.23	6137.8	
654.42	5782.8	
654.6	7030	
654.79	7471	
654.98	5286.5	
655.16	5785.5	
655.35	6704.4	
655.54	6630.6	
655.73	5333.6	
655.91	5197.1	
656.1	7510.6	
656.29	6569.9	
656.47	4906.9	
656.66	6283.2	
656.85	6725.5	
657.03	6790.4	
657.22	5384.8	
657.41	5387.5	
657.59	6821.1	
657.78	6779.5	
657.97	5153.4	
658.16	5714.5	
658.34	7412.3	
658.53	7757	
658.72	6427.9	
658.9	6853.9	
659.09	7070.3	
659.28	7051.8	
659.46	5614.2	
659.65	5440.8	
659.84	6791.1	
660.02	7272.3	
660.21	5374.6	
660.4	5381.4	
660.58	7651.2	
660.77	7053.9	
660.96	5861.3	
661.14	5115.8	
661.33	8009.6	
661.52	7904.5	
661.7	5044.1	
661.89	8073.8	
662.08	6748.1	
662.26	6382.2	
662.45	5302.9	
662.64	5410.7	
662.82	7375.4	
663.01	6699.6	
663.2	5406	
663.38	6006.7	
663.57	7193.8	
663.75	7131.7	
663.94	5578.7	
664.13	6673.6	
664.31	6735.8	
664.5	7299	
664.69	6008.7	
664.87	6329.6	
665.06	6576	
665.25	7193.1	
665.43	6432	
665.62	6587	
665.8	7299	
665.99	6862.7	
666.18	5618.3	
666.36	5797.8	
666.55	7352.9	
666.74	7233.4	
666.92	5317.9	
667.11	6675	
667.29	6855.2	
667.48	7292.8	
667.67	6322.8	
667.85	5483.1	
668.04	6834.1	
668.22	6848.4	
668.41	5660.6	
668.6	5855.8	
668.78	6645.7	
668.97	6881.2	
669.15	5999.9	
669.34	5122.7	
669.53	6663.4	
669.71	6979.5	
669.9	5253	
670.08	5715.9	
670.27	6612.9	
670.46	7205.4	
670.64	5877	
670.83	6205.3	
671.01	6554.9	
671.2	7027.3	
671.38	5286.5	
671.57	5197.7	
671.76	7578.2	
671.94	8106.5	
672.13	5208.7	
672.31	6040.1	
672.5	7338.6	
672.69	6647.7	
672.87	5317.2	
673.06	5585.5	
673.24	7090.8	
673.43	6793.8	
673.61	6003.3	
673.8	5547.3	
673.98	7266.2	
674.17	7355.6	
674.36	6095.4	
674.54	5911.1	
674.73	6997.2	
674.91	7307.2	
675.1	5625.1	
675.28	5347.2	
675.47	6882.5	
675.65	7361.8	
675.84	5525.4	
676.03	5830.6	
676.21	6676.4	
676.4	6312.5	
676.58	6220.4	
676.77	5968.5	
676.95	7956.4	
677.14	6617	
677.32	5266.7	
677.51	5115.1	
677.69	7353.6	
677.88	6406.7	
678.06	5174.5	
678.25	5278.3	
678.44	6873	
678.62	6720.8	
678.81	5108.3	
678.99	5742.5	
679.18	7537.2	
679.36	7213.6	
679.55	5447.6	
679.73	6036	
679.92	7173.4	
680.1	6644.3	
680.29	6505.7	
680.47	5595.1	
680.66	6647.7	
680.84	7415.7	
681.03	4995.7	
681.21	5814.9	
681.4	6660.7	
681.58	6599.2	
681.77	5388.2	
681.95	5299.5	
682.14	7338.6	
682.32	7656	
682.51	6089.3	
682.69	5048.2	
682.88	6667.5	
683.06	7075	
683.25	5821.7	
683.43	6067.4	
683.62	6855.9	
683.8	7219.1	
683.99	6197.2	
684.17	5659.2	
684.36	7860.1	
684.54	6771.9	
684.73	5053.7	
684.91	5231.2	
685.1	7181.5	
685.28	6567.8	
685.46	5756.8	
685.65	5763	
685.83	7203.4	
686.02	6741.9	
686.2	5289.2	
686.39	5337.7	
686.57	6559	
686.76	7681.9	
686.94	5243.5	
687.13	5281	
687.31	7062.1	
687.5	6638.1	
687.68	4912.4	
687.86	5867.4	
688.05	8111.3	
688.23	6280.4	
688.42	5965.1	
688.6	5290.6	
688.79	6685.9	
688.97	6675.7	
689.16	5614.8	
689.34	4762.9	
689.52	7212.3	
689.71	7437.5	
689.89	5861.3	
690.08	5309	
690.26	6889.4	
690.45	6780.1	
690.63	6050.4	
690.81	5450.3	
691	6765.8	
691.18	6642.2	
691.37	5535.7	
691.55	7397.3	
691.74	6582.2	
691.92	8202.8	
692.1	5616.9	
692.29	5108.3	
692.47	6720.1	
692.66	6223.1	
692.84	5204.6	
693.02	5679	
693.21	6275	
693.39	6750.8	
693.58	5754.1	
693.76	5221	
693.94	7619.1	
694.13	7436.2	
694.31	5302.2	
694.5	6176.7	
694.68	6531	
694.86	6825.2	
695.05	5528.2	
695.23	5626.5	
695.42	7129.7	
695.6	9101.9	
695.78	6170.5	
695.97	5388.2	
696.15	7200.7	
696.34	6685.9	
696.52	5188.9	
696.7	5893.4	
696.89	7034.8	
697.07	6535.8	
697.25	5808	
697.44	6999.3	
697.62	7036.8	
697.81	7250.5	
697.99	5571.8	
698.17	5984.8	
698.36	6430.6	
698.54	7039.6	
698.72	5833.3	
698.91	4952.7	
699.09	6632	
699.28	6490.7	
699.46	5496.1	
699.64	5329.5	
699.83	6427.9	
700.01	7483.3	
700.19	6120.7	
700.38	4693.9	
700.56	7402.7	
700.74	6569.2	
700.93	5062.6	
701.11	5700.2	
701.29	7014.3	
701.48	7881.9	
701.66	5289.9	
701.84	5341.1	
702.03	6645.7	
702.21	7260.7	
702.39	4926	
702.58	5453.1	
702.76	7051.2	
702.94	7027.3	
703.13	4968.4	
703.31	6933.7	
703.49	6429.9	
703.68	7643.7	
703.86	5089.2	
704.04	5869.5	
704.23	6904.4	
704.41	7178.1	
704.59	5221	
704.78	6189.6	
704.96	7784.3	
705.14	7210.2	
705.33	5046.2	
705.51	5750	
705.69	6602.7	
705.87	7329	
706.06	5941.2	
706.24	4982.7	
706.42	6931	
706.61	7105.1	
706.79	5926.1	
706.97	4936.3	
707.16	6434	
707.34	6911.2	
707.52	5903.6	
707.7	5157.5	
707.89	6496.8	
708.07	6381.5	
708.25	5917.9	
708.44	5969.8	
708.62	6461.3	
708.8	7410.9	
708.98	6192.4	
709.17	5212.8	
709.35	6837.5	
709.53	6883.9	
709.72	4967	
709.9	5454.4	
710.08	7058	
710.26	7122.8	
710.45	6368.5	
710.63	5246.9	
710.81	6722.1	
710.99	6710.5	
711.18	5692.7	
711.36	5335.6	
711.54	6628.6	
711.72	7195.2	
711.91	5412.1	
712.09	4938.3	
712.27	6696.2	
712.45	7195.2	
712.64	5577.3	
712.82	4750.6	
713	6300.9	
713.18	6464.1	
713.37	4894.6	
713.55	6074.3	
713.73	7130.3	
713.91	5958.2	
714.1	5194.3	
714.28	4766.3	
714.46	6803.4	
714.64	6201.2	
714.83	4338.3	
715.01	5003.2	
715.19	6300.2	
715.37	5695.4	
715.55	4640	
715.74	4877.6	
715.92	6841.6	
716.1	5248.9	
716.28	5842.2	
716.47	4957.4	
716.65	5871.5	
716.83	5904.3	
717.01	4846.9	
717.19	4872.8	
717.38	7619.8	
717.56	5644.9	
717.74	5033.9	
717.92	4400.4	
718.1	6667.5	
718.29	5910.4	
718.47	3994.9	
718.65	4541	
718.83	6537.8	
719.01	6391	
719.2	3943.7	
719.38	4815.5	
719.56	6201.9	
719.74	7494.2	
719.92	4523.3	
720.11	5380	
720.29	6290.7	
720.47	5586.2	
720.65	4193.6	
720.83	4842.8	
721.02	5855.1	
721.2	5665.4	
721.38	4902.2	
721.56	4242	
721.74	5199.8	
721.92	5388.2	
722.11	5253.7	
722.29	5023	
722.47	6383.5	
722.65	5701.5	
722.83	4281.6	
723.01	4978.6	
723.2	5750.7	
723.38	5988.3	
723.56	3784	
723.74	4767.7	
723.92	5341.8	
724.1	6289.3	
724.29	4224.3	
724.47	5084.4	
724.65	5442.1	
724.83	5317.9	
725.01	4089.1	
725.19	4774.5	
725.37	5381.4	
725.56	5362.3	
725.74	3988.1	
725.92	4195.6	
726.1	5329.5	
726.28	5549.3	
726.46	4476.9	
726.64	4280.9	
726.83	5548.6	
727.01	5773.2	
727.19	3921.2	
727.37	4607.9	
727.55	5620.3	
727.73	6090	
727.91	3858.4	
728.09	3709.6	
728.28	6011.5	
728.46	6372.6	
728.64	4689.8	
728.82	4587.4	
729	6948.1	
729.18	6360.3	
729.36	3901.4	
729.54	5866.7	
729.72	7121.5	
729.91	5720.7	
730.09	5526.8	
730.27	4446.8	
730.45	5614.2	
730.63	6194.4	
730.81	4954.7	
730.99	4199.7	
731.17	6536.4	
731.35	5420.3	
731.53	4618.9	
731.71	4311	
731.9	6268.1	
732.08	6456.6	
732.26	4575.8	
732.44	4277.5	
732.62	6485.9	
732.8	6112.5	
732.98	4844.1	
733.16	4050.9	
733.34	6085.9	
733.52	4994.3	
733.7	4435.9	
733.88	4689.2	
734.07	5988.3	
734.25	5745.9	
734.43	4052.9	
734.61	5307.7	
734.79	6947.4	
734.97	5601.9	
735.15	4126	
735.33	4405.2	
735.51	5846.3	
735.69	5603.2	
735.87	5262.6	
736.05	4586.1	
736.23	5726.1	
736.41	5487.9	
736.59	4382.7	
736.77	4558.8	
736.95	6092.7	
737.13	5590.3	
737.32	4065.2	
737.5	4320.5	
737.68	6581.5	
737.86	5513.1	
738.04	3960.1	
738.22	5430.5	
738.4	5332.2	
738.58	5631.9	
738.76	4438.6	
738.94	3628.3	
739.12	5524.7	
739.3	5383.4	
739.48	4932.2	
739.66	4698.7	
739.84	5690.6	
740.02	5651.7	
740.2	3700	
740.38	3964.2	
740.56	6029.9	
740.74	5008	
740.92	4487.1	
741.1	4382.7	
741.28	5558.2	
741.46	5328.8	
741.64	4141.7	
741.82	4566.3	
742	5550.7	
742.18	5503.6	
742.36	4286.4	
742.54	3906.2	
742.72	6000.5	
742.9	4969.1	
743.08	4640	
743.26	3596.9	
743.44	6075	
743.62	6049	
743.8	4750.6	
743.98	3936.9	
744.16	5731.6	
744.34	5466.7	
744.52	4642.7	
744.7	4589.5	
744.88	5810.1	
745.06	5482.4	
745.24	4666.6	
745.42	4761.5	
745.6	5949.3	
745.78	5758.9	
745.96	3700	
746.14	3925.3	
746.32	6552.8	
746.5	5937.1	
746.68	4390.2	
746.86	3969.6	
747.03	6251.8	
747.21	4943.1	
747.39	4405.9	
747.57	3976.5	
747.75	5649.7	
747.93	5961.6	
748.11	3897.3	
748.29	3850.9	
748.47	6903.7	
748.65	5380	
748.83	4533.5	
749.01	4255.7	
749.19	5769.1	
749.37	5048.2	
749.55	4230.4	
749.73	4256.4	
749.91	5554.8	
750.09	5301.5	
750.26	4318.5	
750.44	3825.6	
750.62	5550	
750.8	5520	
750.98	3758.7	
751.16	3995.6	
751.34	5631.9	
751.52	5075.5	
751.7	4646.8	
751.88	3636.5	
752.06	5900.9	
752.24	5732.9	
752.42	3638.6	
752.59	3932.8	
752.77	5507.7	
752.95	6580.1	
753.13	4580.6	
753.31	4067.9	
753.49	5255.8	
753.67	5636	
753.85	4347.2	
754.03	3974.4	
754.21	5826.5	
754.38	6146.6	
754.56	4084.3	
754.74	3355.3	
754.92	5218.2	
755.1	5789.6	
755.28	3379.8	
755.46	3402.4	
755.64	6513.9	
755.82	6597.2	
755.99	3678.8	
756.17	3788.1	
756.35	4589.5	
756.53	5902.9	
756.71	2885.6	
756.89	3678.8	
757.07	5500.2	
757.25	4778.6	
757.42	4112.3	
757.6	4827.7	
757.78	5494.7	
757.96	4747.9	
758.14	3861.1	
758.32	3451.5	
758.5	4315.1	
758.67	5083.1	
758.85	3702.7	
759.03	3805.8	
759.21	5232.6	
759.39	4754.7	
759.57	3294.5	
759.75	4321.2	
759.92	5763	
760.1	5211.4	
760.28	4643.4	
760.46	4818.9	
760.64	4987.5	
760.82	4795.7	
760.99	4265.9	
761.17	3737.5	
761.35	5615.5	
761.53	4775.9	
761.71	3837.2	
761.89	4469.4	
762.06	5498.1	
762.24	5039.4	
762.42	3885	
762.6	3724.6	
762.78	5038.7	
762.96	5543.9	
763.13	4162.2	
763.31	3937.6	
763.49	5763	
763.67	5010	
763.85	4638	
764.02	5072.8	
764.2	5949.3	
764.38	5167	
764.56	3800.3	
764.74	4535.6	
764.91	6066.1	
765.09	5062.6	
765.27	3611.9	
765.45	3437.9	
765.63	6117.3	
765.8	5872.2	
765.98	3234.4	
766.16	3470.6	
766.34	4838	
766.52	4617.5	
766.69	4272.7	
766.87	3329.3	
767.05	5190.9	
767.23	5749.3	
767.41	3637.2	
767.58	3855	
767.76	5621	
767.94	5641.5	
768.12	3696.6	
768.29	4286.4	
768.47	5137	
768.65	5785.5	
768.83	3381.9	
769	4337.6	
769.18	4809.3	
769.36	5356.1	
769.54	4364.9	
769.72	3367.5	
769.89	5623	
770.07	5709.1	
770.25	3722.5	
770.43	4757.4	
770.6	6335.7	
770.78	6561	
770.96	3831.7	
771.14	4362.2	
771.31	5646.2	
771.49	5056.4	
771.67	3194.1	
771.85	3383.9	
772.02	4465.9	
772.2	5072.8	
772.38	3975.8	
772.55	3565.5	
772.73	5324.7	
772.91	5082.4	
773.09	3875.4	
773.26	4016.7	
773.44	5249.6	
773.62	4952	
773.8	3492.5	
773.97	3280.2	
774.15	5354.1	
774.33	5036	
774.5	3381.9	
774.68	3756	
774.86	5459.9	
775.04	5013.4	
775.21	3517	
775.39	3508.9	
775.57	5286.5	
775.74	5550	
775.92	3332	
776.1	3294.5	
776.27	5226.4	
776.45	6287.9	
776.63	3508.2	
776.81	3139.5	
776.98	4993.6	
777.16	5891.3	
777.34	3688.4	
777.51	3889.1	
777.69	4911.7	
777.87	4771.8	
778.04	3654.3	
778.22	4164.2	
778.4	4743.8	
778.57	5348.6	
778.75	3059	
778.93	3307.5	
779.1	4669.4	
779.28	4516.5	
779.46	3078.1	
779.64	3448.1	
779.81	5484.5	
779.99	6184.2	
780.17	4106.2	
780.34	4244.8	
780.52	5107	
780.69	5150.6	
780.87	3764.8	
781.05	3407.8	
781.22	5109	
781.4	5114.5	
781.58	3539.6	
781.75	2791.4	
781.93	5143.8	
782.11	4551.3	
782.28	4225	
782.46	3459.7	
782.64	4455	
782.81	5175.2	
782.99	3640.6	
783.17	3551.9	
783.34	5154.1	
783.52	4525.3	
783.69	3713	
783.87	4403.8	
784.05	4640	
784.22	4635.2	
784.4	4410.6	
784.58	3808.5	
784.75	5469.4	
784.93	4711	
785.1	3506.8	
785.28	4024.9	
785.46	5171.8	
785.63	4620.9	
785.81	3513.6	
785.99	3373	
786.16	4792.2	
786.34	5109.7	
786.51	3444	
786.69	3795.6	
786.87	4407.9	
787.04	4786.1	
787.22	3295.2	
787.39	4136.2	
787.57	4646.2	
787.75	5552.7	
787.92	4252.9	
788.1	4178.5	
788.27	4659.1	
788.45	4434.5	
788.63	3939.6	
788.8	2872.6	
788.98	4952.7	
789.15	4341	
789.33	3028.3	
789.5	3556.6	
789.68	5385.5	
789.86	5481	
790.03	3930.7	
790.21	3432.4	
790.38	5421.7	
790.56	4794.3	
790.73	3345.7	
790.91	3351.8	
791.09	4629.1	
791.26	5288.5	
791.44	3588.7	
791.61	3061	
791.79	4633.2	
791.96	4681.7	
792.14	3150.5	
792.32	2824.8	
792.49	4666	
792.67	4741.7	
792.84	3262.4	
793.02	3051.5	
793.19	5014.1	
793.37	5603.2	
793.54	2846.7	
793.72	3091.1	
793.89	5710.4	
794.07	4659.8	
794.25	3528	
794.42	2904.7	
794.6	5505.6	
794.77	5109	
794.95	3792.8	
795.12	3383.9	
795.3	4637.3	
795.47	5100.1	
795.65	3761.4	
795.82	3565.5	
796	4475.5	
796.17	6048.3	
796.35	3479.5	
796.52	4115.1	
796.7	5099.4	
796.87	5186.1	
797.05	3462.4	
797.22	4224.3	
797.4	5178.6	
797.57	5998.5	
797.75	3646.7	
797.92	3351.2	
798.1	5412.8	
798.27	4515.1	
798.45	2966.1	
798.62	3133.4	
798.8	4988.2	
798.97	5334.3	
799.15	3821.5	
799.32	3595.6	
799.5	4287.1	
799.67	4950.6	
799.85	3890.5	
800.02	2863.7	
800.2	4625.7	
800.37	4862.6	
800.55	4013.3	
800.72	3383.9	
800.9	5300.1	
801.07	5608	
801.25	4571.7	
801.42	3734.8	
801.6	5338.4	
801.77	5014.1	
801.95	3465.2	
802.12	3335.5	
802.29	5078.3	
802.47	4956.8	
802.64	3713	
802.82	2827.6	
802.99	4591.5	
803.17	5406	
803.34	3586	
803.52	3222.1	
803.69	5989.6	
803.87	4429.1	
804.04	3549.8	
804.21	3583.3	
804.39	5613.5	
804.56	4765.6	
804.74	3072.6	
804.91	3696.6	
805.09	4601.1	
805.26	4689.8	
805.44	3134.8	
805.61	3437.9	
805.78	5215.5	
805.96	5181.4	
806.13	3711.6	
806.31	3928	
806.48	4209.9	
806.66	4684.4	
806.83	3653.6	
807	3643.3	
807.18	4633.2	
807.35	4971.1	
807.53	3635.1	
807.7	2961.4	
807.87	5592.3	
808.05	4681	
808.22	3997.6	
808.4	2940.2	
808.57	4597.7	
808.74	4330.8	
808.92	3294.5	
809.09	4175.1	
809.27	4647.5	
809.44	5025.7	
809.61	2966.1	
809.79	3236.5	
809.96	5691.3	
810.14	5217.5	
810.31	2879.4	
810.48	3520.5	
810.66	4780	
810.83	5292	
811.01	3364.8	
811.18	3674.7	
811.35	5271.5	
811.53	4158.7	
811.7	3976.5	
811.87	3762.1	
812.05	4715.1	
812.22	4634.6	
812.39	3247.4	
812.57	3130	
812.74	4726	
812.92	6108.4	
813.09	3466.5	
813.26	3787.4	
813.44	5801.9	
813.61	4564.2	
813.78	2922.5	
813.96	3882.9	
814.13	4683.7	
814.3	4400.4	
814.48	4176.5	
814.65	3465.2	
814.82	5655.1	
815	4442	
815.17	3546.4	
815.34	4322.6	
815.52	4581.3	
815.69	4562.9	
815.87	3524.6	
816.04	3480.9	
816.21	4670.7	
816.38	4200.4	
816.56	3445.4	
816.73	3213.3	
816.9	5758.2	
817.08	5302.2	
817.25	3287.7	
817.42	4003.1	
817.6	4366.3	
817.77	4649.6	
817.94	3637.2	
818.12	3167.5	
818.29	4431.1	
818.46	6597.2	
818.64	3366.9	
818.81	3140.9	
818.98	4378.6	
819.16	6134.3	
819.33	3778.5	
819.5	3564.8	
819.67	4962.2	
819.85	5530.9	
820.02	3523.2	
820.19	3732.1	
820.37	4827.1	
820.54	4588.1	
820.71	3646.1	
820.88	4386.7	
821.06	4835.9	
821.23	4498	
821.4	3610.6	
821.58	3631	
821.75	5227.1	
821.92	4818.9	
822.09	3019.4	
822.27	3025.5	
822.44	4693.9	
822.61	4584	
822.79	3002.3	
822.96	5501.5	
823.13	5027.1	
823.3	4392.2	
823.48	3452.2	
823.65	3060.3	
823.82	5244.2	
823.99	4301.4	
824.17	4259.8	
824.34	3092.4	
824.51	6012.2	
824.68	4749.2	
824.86	3369.6	
825.03	3627.6	
825.2	4655.7	
825.37	5547.3	
825.55	3246	
825.72	3541.6	
825.89	6001.9	
826.06	5645.6	
826.24	3521.8	
826.41	3463.8	
826.58	5602.6	
826.75	4908.3	
826.92	2800.9	
827.1	3103.4	
827.27	7374.7	
827.44	5948.7	
827.61	3346.4	
827.79	3988.8	
827.96	4448.2	
828.13	4689.2	
828.3	3485.6	
828.47	2915.6	
828.65	4910.3	
828.82	4827.7	
828.99	4408.6	
829.16	3831.1	
829.34	5203.9	
829.51	5044.8	
829.68	3569.6	
829.85	3618.1	
830.02	5520	
830.2	5227.8	
830.37	2797.5	
830.54	4227.7	
830.71	5945.3	
830.88	4715.1	
831.05	2811.2	
831.23	3228.3	
831.4	5628.5	
831.57	6233.3	
831.74	3304.1	
831.91	2935.4	
832.09	5002.5	
832.26	5220.3	
832.43	3424.9	
832.6	3827.7	
832.77	4933.6	
832.94	5524.7	
833.12	2770.9	
833.29	3380.5	
833.46	4576.5	
833.63	6430.6	
833.8	3708.2	
833.97	3414	
834.15	5218.2	
834.32	5044.8	
834.49	3556.6	
834.66	3637.9	
834.83	5380.7	
835	4467.3	
835.17	3349.1	
835.35	3270.6	
835.52	5143.1	
835.69	5013.4	
835.86	3492.5	
836.03	2871.3	
836.2	5214.1	
836.37	4869.4	
836.55	3398.9	
836.72	3232.4	
836.89	4818.2	
837.06	5273.5	
837.23	3500	
837.4	3833.1	
837.57	5922.7	
837.75	6423.8	
837.92	3157.3	
838.09	3340.9	
838.26	4864.6	
838.43	5430.5	
838.6	3570.3	
838.77	3238.5	
838.94	6143.2	
839.11	5916.6	
839.29	3400.3	
839.46	2719	
839.63	5169.8	
839.8	4961.5	
839.97	3325.2	
840.14	3293.8	
840.31	5031.9	
840.48	5215.5	
840.65	2800.9	
840.82	3241.3	
841	5198.4	
841.17	5109.7	
841.34	3095.2	
841.51	3124.5	
841.68	5143.1	
841.85	4801.1	
842.02	3140.2	
842.19	2726.5	
842.36	5048.2	
842.53	4967	
842.7	2952.5	
842.87	3739.6	
843.05	6428.6	
843.22	4944.5	
843.39	2954.5	
843.56	3155.2	
843.73	4727.4	
843.9	5322.7	
844.07	4831.8	
844.24	4098	
844.41	7279.2	
844.58	4550.6	
844.75	2983.9	
844.92	3203	
845.09	5194.3	
845.26	5187.5	
845.43	3033.7	
845.6	3220.8	
845.77	5222.3	
845.94	4991.6	
846.12	3343	
846.29	3547.1	
846.46	5403.9	
846.63	5161.6	
846.8	3061	
846.97	3576.4	
847.14	5627.8	
847.31	5109	
847.48	3412.6	
847.65	3773	
847.82	5451.7	
847.99	5332.2	
848.16	4042.7	
848.33	3710.2	
848.5	4810.7	
848.67	5573.2	
848.84	3029.6	
849.01	3200.3	
849.18	4686.4	
849.35	4470.7	
849.52	3772.4	
849.69	3003.7	
849.86	5305.6	
850.03	5429.2	
850.2	3069.2	
850.37	3706.1	
850.54	5506.3	
850.71	4915.1	
850.88	3667.9	
851.05	3024.2	
851.22	5082.4	
851.39	5618.9	
851.56	2831	
851.73	3446.7	
851.9	4603.8	
852.07	5397.8	
852.24	3364.8	
852.41	3044	
852.58	5059.8	
852.75	4650.3	
852.92	3415.3	
853.09	3002.3	
853.26	4799.1	
853.43	5527.5	
853.6	3022.1	
853.77	2628.9	
853.94	5668.8	
854.11	5092.6	
854.28	4453.6	
854.44	3321.8	
854.61	5975.3	
854.78	5497.4	
854.95	3068.5	
855.12	3781.9	
855.29	4255	
855.46	5784.1	
855.63	3097.9	
855.8	4177.9	
855.97	4833.2	
856.14	5507	
856.31	4304.1	
856.48	3312.9	
856.65	4810.7	
856.82	4565.6	
856.99	2936.8	
857.16	3250.1	
857.33	6223.8	
857.49	4873.5	
857.66	3263.1	
857.83	3549.1	
858	4860.5	
858.17	5080.3	
858.34	2878.1	
858.51	3016	
858.68	5696.1	
858.85	5708.4	
859.02	3542.3	
859.19	3650.2	
859.36	4598.4	
859.52	4614.8	
859.69	3060.3	
859.86	3559.4	
860.03	4657.8	
860.2	5647.6	
860.37	2777	
860.54	3093.8	
860.71	5347.9	
860.88	5702.9	
861.05	3439.2	
861.21	3857.7	
861.38	5696.8	
861.55	4498.7	
861.72	2794.8	
861.89	3420.8	
862.06	5440.1	
862.23	5807.4	
862.4	2989.4	
862.56	3126.6	
862.73	5234.6	
862.9	5001.8	
863.07	3526.6	
863.24	2778.4	
863.41	4514.4	
863.58	4608.6	
863.75	3134.8	
863.91	3515.7	
864.08	5619.6	
864.25	5289.9	
864.42	3797.6	
864.59	4232.5	
864.76	5889.3	
864.93	4645.5	
865.09	2964.8	
865.26	3275.4	
865.43	5614.2	
865.6	5875.6	
865.77	2699.9	
865.94	3020.1	
866.1	5616.2	
866.27	5298.1	
866.44	4481.6	
866.61	2880.1	
866.78	4914.4	
866.95	5276.3	
867.11	2998.2	
867.28	2717	
867.45	5435.3	
867.62	4573.1	
867.79	3548.4	
867.96	3013.9	
868.12	4614.1	
868.29	5352.7	
868.46	2658.9	
868.63	4031.8	
868.8	5485.1	
868.97	5362.3	
869.13	3175.7	
869.3	3173.7	
869.47	5250.3	
869.64	5457.2	
869.81	3042.6	
869.97	3073.3	
870.14	5154.7	
870.31	5679.7	
870.48	3005.1	
870.65	3741	
870.81	4894	
870.98	4921.3	
871.15	3424.9	
871.32	3177.8	
871.48	5229.8	
871.65	5743.9	
871.82	3046.7	
871.99	3319.1	
872.16	6148	
872.32	5568.4	
872.49	3086.3	
872.66	3077.4	
872.83	5368.4	
872.99	4715.1	
873.16	3494.5	
873.33	3037.1	
873.5	5046.9	
873.67	5020.3	
873.83	3235.1	
874	4029	
874.17	5193.6	
874.34	6001.2	
874.5	3921.2	
874.67	3762.1	
874.84	5608	
875.01	4498	
875.17	4231.1	
875.34	3072	
875.51	5079	
875.68	6096.8	
875.84	3644	
876.01	4371.7	
876.18	5339.7	
876.34	5266.7	
876.51	3050.8	
876.68	3068.5	
876.85	4868	
877.01	5581.4	
877.18	4256.4	
877.35	2999.6	
877.52	5056.4	
877.68	4505.5	
877.85	3034.4	
878.02	3022.1	
878.18	4986.1	
878.35	4764.3	
878.52	2473.3	
878.69	3396.2	
878.85	5393.7	
879.02	5311.7	
879.19	4282.3	
879.35	3290.4	
879.52	5279	
879.69	5433.3	
879.86	2648.7	
880.02	3422.2	
880.19	4977.9	
880.36	5998.5	
880.52	3497.2	
880.69	3601.7	
880.86	5413.5	
881.02	5427.8	
881.19	3359.4	
881.36	3257	
881.52	5296.7	
881.69	4732.2	
881.86	3231	
882.02	3183.2	
882.19	5586.2	
882.36	6419	
882.52	3076	
882.69	4184.7	
882.86	5136.3	
883.02	5117.2	
883.19	3676.1	
883.36	3453.6	
883.52	5403.9	
883.69	6059.9	
883.86	3134.1	
884.02	2826.9	
884.19	5320.6	
884.36	5035.3	
884.52	3449.5	
884.69	3222.1	
884.86	4808.6	
885.02	5818.3	
885.19	3420.1	
885.36	3501.3	
885.52	4961.5	
885.69	5228.5	
885.86	4337.6	
886.02	3914.4	
886.19	5344.5	
886.35	4885.1	
886.52	3339.6	
886.69	4250.9	
886.85	4598.4	
887.02	5705	
887.19	5705	
887.35	5705	
887.52	5705	
887.68	5705	
887.85	5705	
888.02	5705	
888.18	5705	
888.35	5705	
888.51	5705	
888.68	5705	
888.85	5705	
889.01	5705	
889.18	5705	
889.35	5705	
889.51	5705	
889.68	5705	
889.84	5705	
890.01	5705	
890.17	5705	
890.34	5705	
890.51	5705	
890.67	5705	
890.84	5705	
891	5705	
891.17	5705	
891.34	5705	
891.5	5705	
891.67	5705	
891.83	5705	
892	5705	
892.16	5705	
892.33	5705	
892.5	5705	
892.66	5705	
892.83	5705	
892.99	5705	
893.16	5705	
893.32	5705	
893.49	5705	
893.65	5705	
893.82	5705	
893.99	5705	
894.15	5705	
894.32	5705	
894.48	5705	
894.65	5705	
894.81	5705	
894.98	5705	
895.14	5705	
895.31	5705	
895.47	5705	
895.64	5705	
895.81	5705	
895.97	5705	
896.14	5705	
896.3	5705	
896.47	5705	
896.63	5705	
896.8	5705	
896.96	5705	
897.13	5705	
897.29	5705	
897.46	5705	
897.62	5705	
897.79	5705	
897.95	5705	
898.12	5705	
898.28	5705	
898.45	5705	
898.61	5705	
898.78	5705	
898.94	5705	
899.11	5705	
899.27	5705	
899.44	5705	
899.6	5705	
899.77	5705	
899.93	5705	
900.1	5705	
900.26	5705	
900.43	5705	
900.59	5705	
900.76	5705	
900.92	5705	
901.09	5705	
901.25	5705	
901.42	5705	
901.58	5705	
901.75	5705	
901.91	5705	
902.07	5705	
902.24	5705	
902.4	5705	
902.57	5705	
902.73	5705	
902.9	5705	
903.06	5705	
903.23	5705	
903.39	5705	
903.56	5705	
903.72	5705	
903.88	5705	
904.05	5705	
904.21	5705	
904.38	5705	
904.54	5705	
904.71	5705	
904.87	5705	
905.03	5705	
905.2	5705	
905.36	5705	
905.53	5705	
905.69	5705	
905.86	5705	
906.02	5705	
906.18	5705	
906.35	5705	
906.51	5705	
906.68	5705	
906.84	5705	
907.01	5705	
907.17	5705	
907.33	5705	
907.5	5705	
907.66	5705	
907.83	5705	
907.99	5705	
908.15	5705	
908.32	5705	
908.48	5705	
908.65	5705	
908.81	5705	
908.97	5705	
909.14	5705	
909.3	5705	
909.47	5705	
909.63	5705	
909.79	5705	
909.96	5705	
910.12	5705	
910.28	5705	
910.45	5705	
910.61	5705	
910.78	5705	
910.94	5705	
911.1	5705	
911.27	5705	
911.43	5705	
911.59	5705	
911.76	5705	
911.92	5705	
912.08	5705	
912.25	5705	
912.41	5705	
912.57	5705	
912.74	5705	
912.9	5705	
913.07	5705	
913.23	5705	
913.39	5705	
913.56	5705	
913.72	5705	
913.88	5705	
914.05	5705	
914.21	5705	
914.37	5705	
914.54	5705	
914.7	5705	
914.86	5705	
915.03	5705	
915.19	5705	
