Wavelength	Intensities	
nm	a.u.	
179.22	1880.5	
179.44	1881.7	
179.65	1879.4	
179.86	1884.1	
180.08	1905.3	
180.29	4870.8	
180.51	3477.5	
180.72	5588.2	
180.94	6514.6	
181.15	3188.7	
181.37	3153.2	
181.58	5401.2	
181.79	5678.3	
182.01	3349.8	
182.22	3588.7	
182.44	5724.1	
182.65	4784.7	
182.87	4463.2	
183.08	3921.2	
183.29	6064.7	
183.51	4987.5	
183.72	3644	
183.94	5291.3	
184.15	5365	
184.37	5406.6	
184.58	3150.5	
184.79	4378.6	
185.01	5012.1	
185.22	5764.3	
185.44	4602.5	
185.65	3871.3	
185.86	5281.7	
186.08	4865.3	
186.29	3123.8	
186.51	3327.3	
186.72	5066.7	
186.94	5882.4	
187.15	3809.9	
187.36	3999.7	
187.58	7649.2	
187.79	5532.2	
188.01	4170.3	
188.22	6410.8	
188.43	6546.7	
188.65	5706.3	
188.86	3308.8	
189.08	3999	
189.29	5229.8	
189.5	5216.9	
189.72	3674.1	
189.93	3753.9	
190.15	5879	
190.36	7056.6	
190.57	4089.8	
190.79	3960.8	
191	5962.3	
191.22	5952.1	
191.43	4039.3	
191.64	3345	
191.86	6214.9	
192.07	5963	
192.29	3528.7	
192.5	3730.7	
192.71	5949.3	
192.93	5083.7	
193.14	3692.5	
193.35	3743	
193.57	5127.4	
193.78	5917.9	
194	3022.1	
194.21	3637.2	
194.42	4988.2	
194.64	5379.3	
194.85	3974.4	
195.07	4700.8	
195.28	5397.1	
195.49	4657.8	
195.71	4955.4	
195.92	3418.7	
196.13	5575.3	
196.35	5635.3	
196.56	5218.9	
196.78	3947.8	
196.99	6943.3	
197.2	6511.2	
197.42	4542.4	
197.63	4065.2	
197.84	4849.6	
198.06	5608	
198.27	3695.2	
198.48	4923.3	
198.7	5126.1	
198.91	5289.2	
199.13	4035.2	
199.34	4041.3	
199.55	5811.5	
199.77	4692.6	
199.98	3535.5	
200.19	4063.2	
200.41	5201.2	
200.62	5052.3	
200.83	4164.9	
201.05	4492.6	
201.26	5261.2	
201.47	5040.7	
201.69	3620.8	
201.9	3410.6	
202.11	5350	
202.33	6309.1	
202.54	3854.3	
202.76	4222.2	
202.97	5551.4	
203.18	5461.9	
203.4	4164.2	
203.61	4042.7	
203.82	5438	
204.04	5019.6	
204.25	4080.9	
204.46	3926.6	
204.68	5343.2	
204.89	5622.4	
205.1	3924.6	
205.32	3435.1	
205.53	5756.8	
205.74	5956.2	
205.96	2916.3	
206.17	4128	
206.38	5721.3	
206.6	5927.5	
206.81	4601.8	
207.02	3762.1	
207.24	5595.7	
207.45	6057.9	
207.66	3834.5	
207.88	3245.3	
208.09	5608	
208.3	5389.6	
208.52	3536.8	
208.73	3804.4	
208.94	5398.4	
209.15	6125.5	
209.37	3839.3	
209.58	4044.7	
209.79	5870.2	
210.01	5207.3	
210.22	3076.7	
210.43	3196.2	
210.65	5319.9	
210.86	5758.9	
211.07	3853.6	
211.29	3569.6	
211.5	5660.6	
211.71	5333.6	
211.93	3547.8	
212.14	3519.1	
212.35	5328.1	
212.56	5564.3	
212.78	4048.2	
212.99	3333.4	
213.2	6275.7	
213.42	5152	
213.63	3715	
213.84	3885	
214.06	4781.3	
214.27	4887.8	
214.48	3853.6	
214.69	4065.2	
214.91	5999.2	
215.12	6128.2	
215.33	4149.2	
215.55	4498.7	
215.76	6656.6	
215.97	5736.4	
216.18	3994.2	
216.4	3874.8	
216.61	5117.2	
216.82	5915.2	
217.04	3470.6	
217.25	3695.9	
217.46	5994.4	
217.67	5782.8	
217.89	3192.8	
218.1	3287	
218.31	5485.8	
218.53	5578.7	
218.74	3760.8	
218.95	3627.6	
219.16	5328.1	
219.38	6272.9	
219.59	3636.5	
219.8	4311	
220.01	6884.6	
220.23	5398.4	
220.44	4721.9	
220.65	3491.1	
220.87	5435.3	
221.08	5991	
221.29	3287	
221.5	4411.3	
221.72	7335.1	
221.93	5117.9	
222.14	4042	
222.35	4783.4	
222.57	5481.7	
222.78	5723.4	
222.99	3861.1	
223.2	4108.2	
223.42	5636	
223.63	5818.3	
223.84	3031.7	
224.05	2944.3	
224.27	6846.4	
224.48	6260	
224.69	4761.5	
224.9	3949.2	
225.12	5600.5	
225.33	5361.6	
225.54	3203.7	
225.75	3579.2	
225.97	4951.3	
226.18	5266	
226.39	3921.2	
226.6	3579.8	
226.82	5147.9	
227.03	5027.1	
227.24	3977.8	
227.45	3405.1	
227.67	5752.7	
227.88	6305	
228.09	4508.3	
228.3	4546.5	
228.52	5790.3	
228.73	5402.5	
228.94	3738.9	
229.15	3334.1	
229.36	5285.8	
229.58	5256.5	
229.79	3801	
230	4399	
230.21	6410.8	
230.43	5461.2	
230.64	4014.7	
230.85	4152.6	
231.06	5851	
231.28	5791	
231.49	3306.8	
231.7	3872	
231.91	5667.4	
232.12	5429.2	
232.34	3415.3	
232.55	3874.1	
232.76	6008.7	
232.97	5504.9	
233.18	3575.8	
233.4	3967.6	
233.61	5676.3	
233.82	5199.1	
234.03	3723.2	
234.25	3660.4	
234.46	7507.2	
234.67	5453.7	
234.88	4095.9	
235.09	3590.1	
235.31	5745.2	
235.52	5279.7	
235.73	3952.6	
235.94	3429	
236.15	5171.8	
236.37	6582.2	
236.58	3528.7	
236.79	3867.2	
237	5719.3	
237.21	4869.4	
237.43	4165.6	
237.64	3224.2	
237.85	9718.3	
238.06	4958.1	
238.27	4206.5	
238.48	3398.9	
238.7	5718.6	
238.91	5253.7	
239.12	3835.8	
239.33	3927.3	
239.54	4975.9	
239.76	5317.2	
239.97	3818.1	
240.18	3863.8	
240.39	6688	
240.6	5643.5	
240.82	4017.4	
241.03	3274.7	
241.24	5307	
241.45	6227.2	
241.66	3536.8	
241.87	4196.3	
242.09	6107.7	
242.3	6485.9	
242.51	4229.7	
242.72	3852.2	
242.93	5813.5	
243.14	5356.1	
243.36	4473.4	
243.57	4790.9	
243.78	6205.3	
243.99	5721.3	
244.2	3871.3	
244.41	3538.2	
244.63	4916.5	
244.84	5696.1	
245.05	4165.6	
245.26	3826.3	
245.47	5661.3	
245.68	5851.7	
245.9	5107	
246.11	4085	
246.32	5177.3	
246.53	5668.8	
246.74	6273.6	
246.95	3295.2	
247.16	4906.9	
247.38	5435.3	
247.59	3237.8	
247.8	3889.1	
248.01	5023.7	
248.22	5336.3	
248.43	3487	
248.64	3792.2	
248.86	4816.8	
249.07	5177.3	
249.28	3365.5	
249.49	3984	
249.7	5945.3	
249.91	6079.7	
250.12	3244.7	
250.34	3309.5	
250.55	5499.5	
250.76	5402.5	
250.97	4053.6	
251.18	4044.7	
251.39	6085.9	
251.6	5593.7	
251.81	4092.5	
252.03	4069.3	
252.24	5068.7	
252.45	5940.5	
252.66	3401.7	
252.87	4315.8	
253.08	5412.8	
253.29	7059.3	
253.5	3362.1	
253.72	4766.3	
253.93	5188.9	
254.14	6385.6	
254.35	3702.7	
254.56	3824.2	
254.77	5672.9	
254.98	5004.6	
255.19	3665.2	
255.41	4633.9	
255.62	5519.3	
255.83	6011.5	
256.04	4133.5	
256.25	4097.3	
256.46	6645.7	
256.67	5105.6	
256.88	4033.8	
257.09	4461.8	
257.31	5078.3	
257.52	5060.5	
257.73	4941.7	
257.94	3662.5	
258.15	5216.2	
258.36	5439.4	
258.57	4700.8	
258.78	2923.1	
258.99	5874.9	
259.2	5259.9	
259.41	3690.4	
259.63	3760.8	
259.84	6247.7	
260.05	6596.5	
260.26	4886.5	
260.47	3605.1	
260.68	5954.1	
260.89	5286.5	
261.1	4431.1	
261.31	3558	
261.52	5998.5	
261.73	6326.9	
261.95	4772.4	
262.16	4186.7	
262.37	6074.3	
262.58	6225.1	
262.79	4740.4	
263	3788.1	
263.21	5417.6	
263.42	4932.2	
263.63	3773.7	
263.84	3730.7	
264.05	5950.7	
264.26	6334.4	
264.47	4625.7	
264.69	4188.8	
264.9	6176	
265.11	5618.3	
265.32	3639.2	
265.53	3661.1	
265.74	5502.9	
265.95	4829.8	
266.16	3940.3	
266.37	4333.5	
266.58	5537	
266.79	5248.9	
267	3690.4	
267.21	3431.7	
267.42	4949.9	
267.63	5315.2	
267.84	3840.6	
268.06	3332.7	
268.27	5829.9	
268.48	6055.2	
268.69	3783.3	
268.9	4416.8	
269.11	6066.8	
269.32	4911.7	
269.53	3829.7	
269.74	3566.9	
269.95	5648.3	
270.16	4745.1	
270.37	3877.5	
270.58	4489.8	
270.79	5278.3	
271	5961.6	
271.21	4111	
271.42	3839.3	
271.63	5537	
271.84	5100.8	
272.05	3088.3	
272.26	3485.6	
272.47	5358.2	
272.68	5567.1	
272.89	3680.9	
273.11	4280.3	
273.32	5216.9	
273.53	6336.4	
273.74	4175.1	
273.95	4085	
274.16	6018.3	
274.37	5420.3	
274.58	4204.5	
274.79	3332	
275	5511.8	
275.21	6093.4	
275.42	5018.2	
275.63	4392.9	
275.84	5636.7	
276.05	7062.1	
276.26	4083	
276.47	3809.9	
276.68	5233.9	
276.89	6344.6	
277.1	4369.7	
277.31	3419.4	
277.52	5680.4	
277.73	5811.5	
277.94	3338.2	
278.15	3773.7	
278.36	5589.6	
278.57	5040.1	
278.78	3715	
278.99	4215.4	
279.2	5064.6	
279.41	5023.7	
279.62	4893.3	
279.83	3476.8	
280.04	6582.9	
280.25	4931.5	
280.46	4882.4	
280.67	3886.4	
280.88	5059.2	
281.09	6042.9	
281.3	4033.8	
281.51	5160.9	
281.72	5124	
281.93	5969.1	
282.14	3547.8	
282.35	3880.2	
282.56	5958.9	
282.77	5870.8	
282.98	3788.7	
283.19	4627	
283.4	7183.6	
283.61	5361.6	
283.82	3345.7	
284.03	4801.8	
284.24	5509.7	
284.45	6014.9	
284.66	4771.8	
284.87	4606.6	
285.08	5939.8	
285.29	6191.7	
285.5	3324.5	
285.71	3794.9	
285.92	6006	
286.12	6605.4	
286.33	4775.9	
286.54	3781.2	
286.75	5894.7	
286.96	5259.9	
287.17	3486.3	
287.38	4683	
287.59	5062.6	
287.8	4971.8	
288.01	3794.2	
288.22	4366.3	
288.43	5893.4	
288.64	4922	
288.85	4526	
289.06	4272.1	
289.27	5796.4	
289.48	6335.1	
289.69	4800.4	
289.9	4375.1	
290.11	6088.6	
290.32	5124	
290.53	4561.5	
290.74	4281.6	
290.94	5831.2	
291.15	5882.4	
291.36	3676.1	
291.57	4336.2	
291.78	5129.5	
291.99	4848.2	
292.2	3497.9	
292.41	4172.4	
292.62	5945.9	
292.83	5741.1	
293.04	5134.9	
293.25	3563.5	
293.46	5213.4	
293.67	5965.1	
293.88	3627	
294.09	3575.8	
294.29	4973.2	
294.5	5531.6	
294.71	3870.7	
294.92	3734.8	
295.13	5197.7	
295.34	6422.4	
295.55	3259.7	
295.76	3360.7	
295.97	5803.9	
296.18	6576	
296.39	3420.8	
296.6	3661.1	
296.81	5492.7	
297.01	5814.9	
297.22	3885.7	
297.43	3634.5	
297.64	5119.9	
297.85	5015.5	
298.06	3001	
298.27	3284.3	
298.48	5461.9	
298.69	5076.9	
298.9	3919.8	
299.11	3579.8	
299.31	4929.5	
299.52	4947.2	
299.73	4229.7	
299.94	4069.3	
300.15	5368.4	
300.36	5048.2	
300.57	4171.7	
300.78	4162.8	
300.99	5279.7	
301.2	5537.7	
301.4	3601	
301.61	3989.4	
301.82	5700.9	
302.03	5896.8	
302.24	4397.7	
302.45	3490.4	
302.66	5765	
302.87	6124.8	
303.08	3664.5	
303.29	4949.3	
303.49	5190.2	
303.7	5421.7	
303.91	3260.4	
304.12	4713.1	
304.33	4924	
304.54	5544.5	
304.75	3654.3	
304.96	3468.6	
305.16	5720.7	
305.37	6481.1	
305.58	3170.3	
305.79	3333.4	
306	5760.3	
306.21	4878.3	
306.42	3639.2	
306.63	5587.5	
306.83	5274.9	
307.04	5983.5	
307.25	3994.2	
307.46	3990.1	
307.67	4624.3	
307.88	5873.6	
308.09	3578.5	
308.29	3669.3	
308.5	5484.5	
308.71	5961	
308.92	3852.2	
309.13	3544.4	
309.34	5352.7	
309.55	5339.1	
309.75	4474.1	
309.96	4085.7	
310.17	5786.2	
310.38	5174.5	
310.59	4363.5	
310.8	4111	
311.01	5205.3	
311.21	5260.5	
311.42	3468.6	
311.63	3545.7	
311.84	5195.7	
312.05	5539.8	
312.26	4049.5	
312.46	4414.7	
312.67	5250.3	
312.88	4971.1	
313.09	3512.9	
313.3	3426.9	
313.51	6195.8	
313.71	6606.7	
313.92	3535.5	
314.13	3667.2	
314.34	5605.3	
314.55	5276.3	
314.76	4562.9	
314.96	3955.3	
315.17	5485.1	
315.38	5858.6	
315.59	3541.6	
315.8	3354.6	
316.01	6239.5	
316.21	6277	
316.42	3419.4	
316.63	3857	
316.84	5251	
317.05	6058.6	
317.26	4112.3	
317.46	3676.8	
317.67	5330.9	
317.88	5791	
318.09	4448.9	
318.3	3279.5	
318.5	5169.8	
318.71	5701.5	
318.92	5651.7	
319.13	4104.1	
319.34	5947.3	
319.54	6022.4	
319.75	3272.7	
319.96	3150.5	
320.17	5782.1	
320.38	5977.3	
320.58	3261	
320.79	3790.1	
321	5998.5	
321.21	6135.7	
321.42	3902.1	
321.62	3211.2	
321.83	5044.1	
322.04	5419.6	
322.25	3710.2	
322.46	3496.6	
322.66	5498.8	
322.87	5633.3	
323.08	4334.2	
323.29	3464.5	
323.5	6492.1	
323.7	4994.3	
323.91	4735.6	
324.12	4261.8	
324.33	5509	
324.53	5719.3	
324.74	4123.2	
324.95	4422.2	
325.16	4807.9	
325.37	5218.9	
325.57	3561.4	
325.78	3553.2	
325.99	5468.8	
326.2	4900.1	
326.4	5098.1	
326.61	3279.5	
326.82	5360.9	
327.03	5618.9	
327.24	4990.2	
327.44	4808.6	
327.65	5683.1	
327.86	4637.3	
328.07	4126.7	
328.27	3418.1	
328.48	6063.4	
328.69	5016.8	
328.9	5048.9	
329.1	3820.8	
329.31	5348.6	
329.52	6185.5	
329.73	3552.5	
329.93	3969	
330.14	5384.8	
330.35	5729.5	
330.56	5756.8	
330.76	4357.4	
330.97	5272.8	
331.18	5736.4	
331.39	3908.9	
331.59	3195.5	
331.8	6046.3	
332.01	6148.7	
332.22	3673.4	
332.42	4213.4	
332.63	5532.9	
332.84	5081.7	
333.05	3926.6	
333.25	3577.1	
333.46	5189.6	
333.67	5417.6	
333.88	3651.5	
334.08	4057.7	
334.29	7329	
334.5	6086.6	
334.7	3436.5	
334.91	5079.6	
335.12	4954.7	
335.33	5812.8	
335.53	3906.8	
335.74	5781.4	
335.95	5246.9	
336.16	5023.7	
336.36	3849.5	
336.57	4549.2	
336.78	4965.6	
336.98	6038.8	
337.19	4838	
337.4	3859.1	
337.61	6580.8	
337.81	4939	
338.02	3603.1	
338.23	4599.7	
338.43	6190.3	
338.64	5078.3	
338.85	3566.9	
339.05	4605.9	
339.26	6244.9	
339.47	4893.3	
339.68	3525.2	
339.88	5246.9	
340.09	5645.6	
340.3	5896.8	
340.5	4188.1	
340.71	3217.4	
340.92	4914.4	
341.13	6139.1	
341.33	3432.4	
341.54	4182.6	
341.75	5649.7	
341.95	5324.7	
342.16	3963.5	
342.37	4327.4	
342.57	5001.1	
342.78	5410.7	
342.99	4407.9	
343.19	3198.2	
343.4	5847.6	
343.61	5644.9	
343.81	3772.4	
344.02	3532.1	
344.23	5887.9	
344.43	6207.4	
344.64	4384	
344.85	4242.7	
345.06	5748.6	
345.26	6038.1	
345.47	4122.6	
345.68	4833.2	
345.88	4795	
346.09	5857.9	
346.3	4188.1	
346.5	3158	
346.71	5432.6	
346.92	5109.7	
347.12	3277.4	
347.33	4073.4	
347.54	6009.4	
347.74	6445	
347.95	4065.9	
348.16	3066.5	
348.36	5258.5	
348.57	4966.3	
348.78	4033.8	
348.98	4315.8	
349.19	5437.4	
349.39	4890.5	
349.6	3258.3	
349.81	3598.3	
350.01	5680.4	
350.22	5115.8	
350.43	3900.7	
350.63	4752	
350.84	5449	
351.05	5251	
351.25	3545	
351.46	3297.9	
351.67	6003.3	
351.87	5140.4	
352.08	3853.6	
352.29	4344.4	
352.49	5890	
352.7	5940.5	
352.9	3478.8	
353.11	4377.2	
353.32	6561.7	
353.52	5264.6	
353.73	3415.3	
353.94	4387.4	
354.14	5712.5	
354.35	5552.7	
354.55	3535.5	
354.76	3960.1	
354.97	5644.9	
355.17	5512.4	
355.38	3330.7	
355.59	4631.8	
355.79	5158.2	
356	5578	
356.2	4009.2	
356.41	3396.9	
356.62	4879.6	
356.82	5373.9	
357.03	4207.2	
357.24	3761.4	
357.44	5159.5	
357.65	5298.8	
357.85	5048.9	
358.06	4005.8	
358.27	4945.8	
358.47	5083.1	
358.68	3322.5	
358.88	4238.6	
359.09	5742.5	
359.3	6070.9	
359.5	4918.5	
359.71	4321.9	
359.91	6547.4	
360.12	5851.7	
360.33	4210.6	
360.53	4717.2	
360.74	5183.4	
360.94	5240.1	
361.15	4377.2	
361.36	3704.8	
361.56	5983.5	
361.77	5477.6	
361.97	4950.6	
362.18	3930.1	
362.38	6027.9	
362.59	5156.1	
362.8	3582.6	
363	3503.4	
363.21	4900.1	
363.41	5584.1	
363.62	4162.8	
363.83	5141.8	
364.03	5646.2	
364.24	6584.9	
364.44	5307.7	
364.65	5284.4	
364.85	5444.2	
365.06	5335	
365.27	3860.4	
365.47	3833.8	
365.68	6483.2	
365.88	5440.8	
366.09	4308.2	
366.29	3917.1	
366.5	5730.9	
366.71	6122.1	
366.91	5268.7	
367.12	4403.1	
367.32	6664.8	
367.53	5984.8	
367.73	4358.1	
367.94	5382.1	
368.14	5987.6	
368.35	6820.4	
368.56	4404.5	
368.76	4062.5	
368.97	6032	
369.17	7711.3	
369.38	3853.6	
369.58	4186	
369.79	5111	
369.99	6445	
370.2	5145.2	
370.4	4209.9	
370.61	5789.6	
370.82	6980.8	
371.02	4179.2	
371.23	3559.4	
371.43	5076.9	
371.64	6414.9	
371.84	4190.8	
372.05	5521.3	
372.25	7722.9	
372.46	6054.5	
372.66	4253.6	
372.87	4204.5	
373.07	6175.3	
373.28	7780.2	
373.48	5298.8	
373.69	4975.9	
373.9	5722	
374.1	5763.7	
374.31	5224.4	
374.51	4876.2	
374.72	6575.3	
374.92	5487.2	
375.13	5455.1	
375.33	4586.8	
375.54	6137.1	
375.74	5660.6	
375.95	4750.6	
376.15	5955.5	
376.36	6227.2	
376.56	6055.8	
376.77	4836.6	
376.97	5244.8	
377.18	7331	
377.38	6311.8	
377.59	5578.7	
377.79	4356	
378	6238.1	
378.2	6635.4	
378.41	4448.9	
378.61	4391.5	
378.82	6671.6	
379.02	5751.4	
379.23	4582	
379.43	5735.7	
379.64	6748.7	
379.84	6346	
380.05	4502.1	
380.25	4379.2	
380.46	6363.7	
380.66	6085.2	
380.87	5783.5	
381.07	6096.8	
381.28	7025.2	
381.48	6449.1	
381.69	4514.4	
381.89	4503.5	
382.1	5465.3	
382.3	6627.9	
382.51	5562.3	
382.71	6447.7	
382.91	6457.2	
383.12	6932.4	
383.32	4827.1	
383.53	4959.5	
383.73	6300.9	
383.94	6187.6	
384.14	4952.7	
384.35	4136.9	
384.55	5967.8	
384.76	6454.5	
384.96	4746.5	
385.17	5077.6	
385.37	6369.2	
385.58	5739.8	
385.78	5069.4	
385.98	4042	
386.19	5994.4	
386.39	6313.2	
386.6	4633.9	
386.8	4876.9	
387.01	6550.1	
387.21	6552.1	
387.42	5219.6	
387.62	5887.2	
387.83	5843.5	
388.03	6499.6	
388.23	4960.9	
388.44	5748.6	
388.64	5594.4	
388.85	5773.2	
389.05	5412.1	
389.26	5930.9	
389.46	7600.7	
389.67	7028.6	
389.87	5368.4	
390.07	5411.4	
390.28	6247.7	
390.48	5859.9	
390.69	4608.6	
390.89	4977.2	
391.1	6012.2	
391.3	7011.6	
391.5	6055.8	
391.71	6756.2	
391.91	6724.2	
392.12	7650.5	
392.32	6182.8	
392.53	5424.4	
392.73	6137.8	
392.93	6240.2	
393.14	5042.8	
393.34	6012.8	
393.55	6750.8	
393.75	6313.9	
393.95	5037.3	
394.16	4981.3	
394.36	6079.7	
394.57	6724.2	
394.77	4645.5	
394.98	5080.3	
395.18	6095.4	
395.38	6262.7	
395.59	5964.4	
395.79	4991.6	
396	6353.5	
396.2	6797.9	
396.4	5755.5	
396.61	5823.1	
396.81	6995.9	
397.02	6345.3	
397.22	6165.1	
397.42	6212.9	
397.63	7121.5	
397.83	6383.5	
398.04	5035.3	
398.24	5620.3	
398.44	6852.5	
398.65	5969.1	
398.85	4891.2	
399.05	5077.6	
399.26	6359.6	
399.46	8073.8	
399.67	5598.5	
399.87	5205.3	
400.07	6870.3	
400.28	7197.2	
400.48	5418.9	
400.69	6572.6	
400.89	7464.2	
401.09	7880.6	
401.3	5345.9	
401.5	6475.7	
401.7	8164.6	
401.91	8427.4	
402.11	5722	
402.32	5917.3	
402.52	7406.8	
402.72	7286	
402.93	5980.1	
403.13	4784.7	
403.33	7960.5	
403.54	6688.7	
403.74	5628.5	
403.94	6438.8	
404.15	6820.4	
404.35	8103.1	
404.56	5455.1	
404.76	7394.5	
404.96	7350.2	
405.17	7260	
405.37	6507.1	
405.57	6047	
405.78	7606.2	
405.98	6882.5	
406.18	5662.6	
406.39	6500.9	
406.59	7481.2	
406.79	7043	
407	5461.9	
407.2	5550	
407.4	7515.4	
407.61	7717.4	
407.81	5711.1	
408.01	7578.8	
408.22	6738.5	
408.42	8805.6	
408.62	7154.2	
408.83	6569.2	
409.03	7725.6	
409.23	7590.5	
409.44	6927.6	
409.64	7086	
409.84	8749.6	
410.05	8688.8	
410.25	7130.3	
410.45	6895.5	
410.66	8451.3	
410.86	10790	
411.06	7509.2	
411.27	7374.1	
411.47	10714	
411.67	8624.7	
411.88	7646.4	
412.08	7891.5	
412.28	9297.8	
412.49	9795.4	
412.69	7620.5	
412.89	7615.7	
413.09	9716.2	
413.3	9629.5	
413.5	7710.6	
413.7	7397.9	
413.91	8938	
414.11	9847.3	
414.31	7598.6	
414.52	8145.5	
414.72	9603.6	
414.92	9611.1	
415.12	7658	
415.33	8231.5	
415.53	9949	
415.73	10104	
415.94	8608.3	
416.14	8090.2	
416.34	9078.6	
416.55	8839.7	
416.75	9245.2	
416.95	8836.3	
417.15	10071	
417.36	10744	
417.56	9585.9	
417.76	8760.5	
417.97	10478	
418.17	10253	
418.37	8240.3	
418.57	8400.8	
418.78	9983.8	
418.98	9656.2	
419.18	9312.1	
419.38	9066.4	
419.59	9703.3	
419.79	9216.5	
419.99	8157.1	
420.2	8640.4	
420.4	10113	
420.6	10299	
420.8	8251.3	
421.01	8004.8	
421.21	10070	
421.41	10251	
421.61	8551	
421.82	8275.2	
422.02	9655.5	
422.22	10482	
422.42	9173.5	
422.63	8477.2	
422.83	9770.9	
423.03	10907	
423.23	8650.6	
423.44	7731.1	
423.64	9762.7	
423.84	9342.2	
424.04	8082.7	
424.25	7843	
424.45	10611	
424.65	10557	
424.85	7586.4	
425.06	8239.7	
425.26	10611	
425.46	9623.4	
425.66	8576.9	
425.87	8350.9	
426.07	10333	
426.27	10117	
426.47	8389.8	
426.67	7686	
426.88	10555	
427.08	10114	
427.28	8812.4	
427.48	7685.3	
427.69	8890.9	
427.89	9759.3	
428.09	8682.7	
428.29	7787.7	
428.5	10337	
428.7	9983.2	
428.9	7849.9	
429.1	8455.4	
429.3	9973.6	
429.51	10365	
429.71	8093.6	
429.91	9057.5	
430.11	10344	
430.31	10646	
430.52	8498.4	
430.72	8963.3	
430.92	10968	
431.12	10421	
431.32	8331.8	
431.53	8626.7	
431.73	9368.1	
431.93	11099	
432.13	8171.4	
432.33	8211	
432.54	9951.8	
432.74	10347	
432.94	8207.6	
433.14	9304.6	
433.34	10492	
433.55	10215	
433.75	9286.9	
433.95	11191	
434.15	10411	
434.35	10142	
434.56	8528.4	
434.76	8219.9	
434.96	10444	
435.16	10907	
435.36	8493.6	
435.56	9756.5	
435.77	10424	
435.97	10462	
436.17	10623	
436.37	9789.3	
436.57	10387	
436.78	10388	
436.98	9531.2	
437.18	10379	
437.38	11163	
437.58	10550	
437.78	10408	
437.99	8958.5	
438.19	10916	
438.39	12304	
438.59	8800.1	
438.79	8325	
438.99	11642	
439.2	10488	
439.4	8574.8	
439.6	8656.8	
439.8	10948	
440	12019	
440.2	9978.4	
440.4	10112	
440.61	11619	
440.81	12232	
441.01	9367.4	
441.21	10353	
441.41	12307	
441.61	11672	
441.81	10671	
442.02	11604	
442.22	12642	
442.42	11866	
442.62	9602.9	
442.82	9443.9	
443.02	12261	
443.22	11592	
443.43	10032	
443.63	9665.7	
443.83	11333	
444.03	11319	
444.23	11135	
444.43	10591	
444.63	11832	
444.83	12914	
445.04	9895.1	
445.24	11212	
445.44	12077	
445.64	12073	
445.84	10288	
446.04	10400	
446.24	11203	
446.44	12315	
446.65	9564.7	
446.85	10125	
447.05	11385	
447.25	12251	
447.45	10201	
447.65	9613.2	
447.85	11632	
448.05	11137	
448.25	10756	
448.46	10516	
448.66	11767	
448.86	11338	
449.06	9584.5	
449.26	10686	
449.46	12178	
449.66	11116	
449.86	10510	
450.06	10296	
450.26	11422	
450.47	12076	
450.67	10415	
450.87	10955	
451.07	12041	
451.27	12184	
451.47	9897.2	
451.67	10755	
451.87	11688	
452.07	12701	
452.27	10412	
452.47	10251	
452.67	11914	
452.88	12618	
453.08	9520.3	
453.28	11626	
453.48	13441	
453.68	11866	
453.88	10436	
454.08	10512	
454.28	12616	
454.48	12271	
454.68	11119	
454.88	11633	
455.08	12734	
455.28	12783	
455.48	10350	
455.68	11182	
455.89	13514	
456.09	13140	
456.29	10865	
456.49	11158	
456.69	13609	
456.89	12667	
457.09	11837	
457.29	12225	
457.49	13147	
457.69	13522	
457.89	11936	
458.09	11136	
458.29	13298	
458.49	14034	
458.69	12372	
458.89	11866	
459.09	14465	
459.29	14440	
459.49	11813	
459.69	12712	
459.9	13846	
460.1	13733	
460.3	11723	
460.5	11546	
460.7	13999	
460.9	13706	
461.1	11530	
461.3	12888	
461.5	14957	
461.7	14600	
461.9	12312	
462.1	12544	
462.3	14409	
462.5	14770	
462.7	12439	
462.9	12880	
463.1	15950	
463.3	16036	
463.5	12946	
463.7	14318	
463.9	14973	
464.1	15242	
464.3	13721	
464.5	13654	
464.7	15864	
464.9	15763	
465.1	15232	
465.3	14334	
465.5	16004	
465.7	16201	
465.9	14776	
466.1	14121	
466.3	16397	
466.5	15898	
466.7	15700	
466.9	14249	
467.1	16165	
467.3	16948	
467.5	15857	
467.7	14685	
467.9	17436	
468.1	18316	
468.3	15246	
468.5	15984	
468.7	16373	
468.9	16333	
469.1	15160	
469.3	15960	
469.5	18684	
469.7	16255	
469.9	15266	
470.1	14997	
470.3	16447	
470.5	16598	
470.7	16344	
470.9	14934	
471.1	16471	
471.3	16413	
471.5	14853	
471.69	16741	
471.89	16135	
472.09	15625	
472.29	15679	
472.49	15601	
472.69	16075	
472.89	16683	
473.09	14735	
473.29	14484	
473.49	16051	
473.69	15973	
473.89	15546	
474.09	14734	
474.29	17282	
474.49	17027	
474.69	15636	
474.89	14912	
475.09	16104	
475.29	16259	
475.49	14258	
475.69	14592	
475.88	17522	
476.08	16344	
476.28	14391	
476.48	14442	
476.68	16677	
476.88	16476	
477.08	14320	
477.28	14815	
477.48	15880	
477.68	16525	
477.88	14235	
478.08	14611	
478.28	17187	
478.48	16156	
478.67	14742	
478.87	13866	
479.07	17221	
479.27	16213	
479.47	14907	
479.67	14975	
479.87	16891	
480.07	17385	
480.27	14324	
480.47	15868	
480.67	16550	
480.87	17404	
481.06	14700	
481.26	15482	
481.46	16561	
481.66	16382	
481.86	15027	
482.06	16096	
482.26	16242	
482.46	17198	
482.66	15154	
482.86	14647	
483.05	16825	
483.25	16132	
483.45	17687	
483.65	15339	
483.85	16531	
484.05	16793	
484.25	15661	
484.45	16391	
484.65	17571	
484.84	17987	
485.04	15539	
485.24	15453	
485.44	18195	
485.64	16396	
485.84	15056	
486.04	16533	
486.24	16906	
486.44	17391	
486.63	15040	
486.83	15908	
487.03	17225	
487.23	17631	
487.43	15283	
487.63	17782	
487.83	17611	
488.02	18711	
488.22	16546	
488.42	17277	
488.62	18453	
488.82	17604	
489.02	16077	
489.22	16361	
489.41	18303	
489.61	18273	
489.81	15955	
490.01	16082	
490.21	18399	
490.41	19116	
490.61	16091	
490.8	16075	
491	17975	
491.2	17058	
491.4	16562	
491.6	15668	
491.8	17759	
491.99	17783	
492.19	15665	
492.39	15915	
492.59	18527	
492.79	18700	
492.99	17208	
493.18	16547	
493.38	19024	
493.58	20149	
493.78	17394	
493.98	17051	
494.18	19271	
494.37	18985	
494.57	18410	
494.77	18093	
494.97	19890	
495.17	20560	
495.37	18035	
495.56	18544	
495.76	20883	
495.96	20414	
496.16	19534	
496.36	18466	
496.55	20568	
496.75	20317	
496.95	18961	
497.15	18747	
497.35	20648	
497.54	20837	
497.74	18571	
497.94	20472	
498.14	21614	
498.34	21491	
498.53	18774	
498.73	19509	
498.93	20491	
499.13	21200	
499.33	19551	
499.52	19740	
499.72	21326	
499.92	21564	
500.12	19390	
500.32	19718	
500.51	21594	
500.71	21633	
500.91	20455	
501.11	19977	
501.31	21726	
501.5	21839	
501.7	20692	
501.9	19699	
502.1	21325	
502.29	21637	
502.49	20206	
502.69	20333	
502.89	21521	
503.09	21568	
503.28	18736	
503.48	19016	
503.68	20394	
503.88	20687	
504.07	19788	
504.27	19006	
504.47	20841	
504.67	20869	
504.86	19644	
505.06	19275	
505.26	20325	
505.46	22008	
505.65	19129	
505.85	19046	
506.05	20147	
506.25	20479	
506.44	18029	
506.64	18819	
506.84	19811	
507.04	20728	
507.23	18294	
507.43	18844	
507.63	21748	
507.83	20099	
508.02	18606	
508.22	18381	
508.42	21952	
508.62	19827	
508.81	18539	
509.01	19187	
509.21	19422	
509.4	19873	
509.6	18910	
509.8	18372	
510	19893	
510.19	21506	
510.39	18384	
510.59	18542	
510.79	19929	
510.98	21448	
511.18	18726	
511.38	18743	
511.57	20602	
511.77	20459	
511.97	19152	
512.17	18079	
512.36	20669	
512.56	20381	
512.76	18282	
512.95	18056	
513.15	20777	
513.35	19408	
513.55	19237	
513.74	18350	
513.94	20761	
514.14	20149	
514.33	19574	
514.53	19099	
514.73	20154	
514.92	20496	
515.12	18819	
515.32	18587	
515.51	20578	
515.71	21134	
515.91	20407	
516.11	18802	
516.3	22433	
516.5	20357	
516.7	19113	
516.89	19896	
517.09	20392	
517.29	20386	
517.48	19626	
517.68	18999	
517.88	20228	
518.07	20820	
518.27	19721	
518.47	18686	
518.66	21337	
518.86	20090	
519.06	18443	
519.25	18923	
519.45	20338	
519.65	22063	
519.84	19659	
520.04	20386	
520.24	22259	
520.43	20749	
520.63	19201	
520.83	18838	
521.02	20036	
521.22	20609	
521.42	19097	
521.61	19820	
521.81	20153	
522.01	20521	
522.2	19377	
522.4	19101	
522.6	21270	
522.79	20137	
522.99	19438	
523.18	19072	
523.38	21454	
523.58	21668	
523.77	21338	
523.97	19414	
524.17	23884	
524.36	23044	
524.56	21270	
524.76	20959	
524.95	22345	
525.15	21846	
525.34	20840	
525.54	20993	
525.74	22863	
525.93	21851	
526.13	22270	
526.33	21287	
526.52	23525	
526.72	23021	
526.91	22631	
527.11	22016	
527.31	23707	
527.5	24259	
527.7	21962	
527.89	21172	
528.09	23041	
528.29	23817	
528.48	22528	
528.68	22198	
528.87	23873	
529.07	23655	
529.27	21990	
529.46	21373	
529.66	23362	
529.85	23882	
530.05	21259	
530.25	22192	
530.44	24933	
530.64	23272	
530.83	21807	
531.03	22225	
531.23	24089	
531.42	23797	
531.62	23341	
531.81	22483	
532.01	24672	
532.21	25249	
532.4	22834	
532.6	23396	
532.79	25675	
532.99	25407	
533.18	23621	
533.38	24526	
533.58	25035	
533.77	25758	
533.97	23657	
534.16	24497	
534.36	26004	
534.55	25314	
534.75	24850	
534.95	23900	
535.14	26205	
535.34	25262	
535.53	23223	
535.73	25411	
535.92	26362	
536.12	24989	
536.31	23320	
536.51	24625	
536.71	25303	
536.9	25022	
537.1	23555	
537.29	23775	
537.49	25792	
537.68	24985	
537.88	24265	
538.07	23512	
538.27	25615	
538.46	26449	
538.66	23382	
538.86	24013	
539.05	25527	
539.25	25767	
539.44	24451	
539.64	23599	
539.83	25146	
540.03	26221	
540.22	23478	
540.42	23452	
540.61	25156	
540.81	25340	
541	23494	
541.2	24444	
541.39	24430	
541.59	25094	
541.78	24258	
541.98	22932	
542.18	24114	
542.37	24230	
542.57	23179	
542.76	23832	
542.96	23808	
543.15	24645	
543.35	22886	
543.54	22305	
543.74	24384	
543.93	24176	
544.13	22431	
544.32	23675	
544.52	24351	
544.71	23472	
544.91	21684	
545.1	22811	
545.3	23679	
545.49	24388	
545.69	21688	
545.88	22074	
546.08	25481	
546.27	24593	
546.47	22810	
546.66	22087	
546.86	24272	
547.05	24918	
547.24	22089	
547.44	22134	
547.63	23120	
547.83	24546	
548.02	22535	
548.22	22466	
548.41	22969	
548.61	24236	
548.8	21717	
549	21861	
549.19	23465	
549.39	23735	
549.58	21340	
549.78	22035	
549.97	23791	
550.17	23298	
550.36	22447	
550.55	23505	
550.75	22961	
550.94	23946	
551.14	21293	
551.33	21498	
551.53	22562	
551.72	23583	
551.92	21669	
552.11	21529	
552.31	23563	
552.5	23408	
552.69	23059	
552.89	20928	
553.08	23281	
553.28	23014	
553.47	21332	
553.67	22468	
553.86	23763	
554.06	22065	
554.25	20466	
554.44	21082	
554.64	24421	
554.83	23987	
555.03	21023	
555.22	21416	
555.42	23318	
555.61	22855	
555.8	21026	
556	21253	
556.19	22076	
556.39	23105	
556.58	21007	
556.78	21093	
556.97	22842	
557.16	22709	
557.36	22255	
557.55	20798	
557.75	21788	
557.94	23649	
558.13	20811	
558.33	20374	
558.52	23158	
558.72	22089	
558.91	20639	
559.1	20755	
559.3	21721	
559.49	21276	
559.69	19988	
559.88	21025	
560.07	22358	
560.27	22831	
560.46	21059	
560.66	21313	
560.85	22272	
561.04	21229	
561.24	20388	
561.43	20450	
561.63	21521	
561.82	21884	
562.01	21795	
562.21	20779	
562.4	22374	
562.59	23380	
562.79	20565	
562.98	20519	
563.18	22395	
563.37	24169	
563.56	21320	
563.76	20687	
563.95	22124	
564.14	22051	
564.34	21003	
564.53	20545	
564.73	22495	
564.92	23171	
565.11	21272	
565.31	20632	
565.5	23234	
565.69	22343	
565.89	20876	
566.08	21209	
566.27	23080	
566.47	23803	
566.66	21967	
566.85	20677	
567.05	22872	
567.24	22243	
567.44	20966	
567.63	22287	
567.82	22935	
568.02	22704	
568.21	20917	
568.4	21294	
568.6	22930	
568.79	22954	
568.98	20951	
569.18	21190	
569.37	23119	
569.56	25094	
569.76	21515	
569.95	22539	
570.14	23099	
570.34	23286	
570.53	20917	
570.72	21061	
570.91	23838	
571.11	22687	
571.3	21385	
571.49	22418	
571.69	23043	
571.88	22455	
572.07	22159	
572.27	21896	
572.46	22522	
572.65	23526	
572.85	21346	
573.04	21828	
573.23	24143	
573.43	23029	
573.62	21471	
573.81	22112	
574	23703	
574.2	23371	
574.39	22125	
574.58	22163	
574.78	24819	
574.97	23945	
575.16	22603	
575.36	22979	
575.55	24499	
575.74	24573	
575.93	21783	
576.13	23092	
576.32	23710	
576.51	24468	
576.71	22375	
576.9	23913	
577.09	24826	
577.28	24225	
577.48	22898	
577.67	21849	
577.86	24008	
578.05	24482	
578.25	22566	
578.44	22777	
578.63	24150	
578.83	25391	
579.02	22191	
579.21	23860	
579.4	24550	
579.6	24365	
579.79	22872	
579.98	25142	
580.17	24907	
580.37	25000	
580.56	22408	
580.75	23318	
580.94	25494	
581.14	25157	
581.33	23802	
581.52	22633	
581.71	24851	
581.91	25535	
582.1	22506	
582.29	22978	
582.48	24673	
582.68	24649	
582.87	23600	
583.06	23337	
583.25	24891	
583.45	24318	
583.64	24063	
583.83	24860	
584.02	24440	
584.21	25114	
584.41	23954	
584.6	23370	
584.79	24794	
584.98	25667	
585.18	22796	
585.37	22870	
585.56	24326	
585.75	25200	
585.94	22647	
586.14	23612	
586.33	25214	
586.52	24443	
586.71	22982	
586.91	22767	
587.1	23352	
587.29	24613	
587.48	22195	
587.67	22207	
587.87	23897	
588.06	24033	
588.25	23240	
588.44	22487	
588.63	23331	
588.83	23711	
589.02	21380	
589.21	21017	
589.4	22240	
589.59	21977	
589.78	19524	
589.98	19614	
590.17	20794	
590.36	21315	
590.55	18475	
590.74	18966	
590.94	22385	
591.13	20777	
591.32	19036	
591.51	18456	
591.7	21410	
591.89	20964	
592.09	18874	
592.28	19445	
592.47	20257	
592.66	22382	
592.85	19101	
593.05	19387	
593.24	21034	
593.43	22031	
593.62	19523	
593.81	20034	
594	21252	
594.19	21411	
594.39	19302	
594.58	19207	
594.77	21326	
594.96	21915	
595.15	18920	
595.34	19625	
595.54	21052	
595.73	20210	
595.92	18269	
596.11	19255	
596.3	21661	
596.49	20421	
596.68	19218	
596.88	19779	
597.07	21455	
597.26	20405	
597.45	18647	
597.64	20149	
597.83	20459	
598.02	21261	
598.22	18862	
598.41	19570	
598.6	20930	
598.79	20433	
598.98	18854	
599.17	19768	
599.36	20932	
599.55	22212	
599.74	20950	
599.94	20773	
600.13	21523	
600.32	20259	
600.51	18631	
600.7	18803	
600.89	22042	
601.08	22212	
601.27	18616	
601.47	19665	
601.66	21293	
601.85	22068	
602.04	19349	
602.23	19495	
602.42	20410	
602.61	21001	
602.8	19091	
602.99	18869	
603.18	20838	
603.37	21104	
603.57	19448	
603.76	20153	
603.95	21844	
604.14	21395	
604.33	18977	
604.52	19472	
604.71	21238	
604.9	20615	
605.09	19885	
605.28	19671	
605.47	21620	
605.66	21153	
605.86	19627	
606.05	18957	
606.24	21601	
606.43	20074	
606.62	19226	
606.81	19961	
607	21207	
607.19	20646	
607.38	18624	
607.57	18854	
607.76	20345	
607.95	19802	
608.14	19062	
608.33	19738	
608.52	20314	
608.72	21223	
608.91	18406	
609.1	18275	
609.29	20437	
609.48	19778	
609.67	19122	
609.86	18128	
610.05	19701	
610.24	20174	
610.43	18198	
610.62	17689	
610.81	21190	
611	21222	
611.19	18265	
611.38	18931	
611.57	20493	
611.76	21857	
611.95	18028	
612.14	17814	
612.33	20270	
612.52	19693	
612.71	18560	
612.9	17690	
613.09	19258	
613.28	21775	
613.47	18101	
613.66	19108	
613.85	20347	
614.04	19779	
614.24	18336	
614.43	17522	
614.62	20437	
614.81	20327	
615	18815	
615.19	19005	
615.38	19621	
615.57	20155	
615.76	18781	
615.95	19781	
616.14	20562	
616.33	20186	
616.52	19111	
616.71	19334	
616.9	20514	
617.09	20587	
617.28	18566	
617.47	19787	
617.66	19777	
617.85	19982	
618.04	19777	
618.22	19053	
618.41	20491	
618.6	21624	
618.79	19357	
618.98	19058	
619.17	22046	
619.36	20106	
619.55	19432	
619.74	19361	
619.93	21269	
620.12	20798	
620.31	20121	
620.5	20339	
620.69	22016	
620.88	22386	
621.07	21100	
621.26	20207	
621.45	21749	
621.64	21734	
621.83	20312	
622.02	19497	
622.21	21792	
622.4	21664	
622.59	20917	
622.78	20837	
622.97	21306	
623.16	22291	
623.35	20323	
623.54	19535	
623.72	21651	
623.91	21650	
624.1	20524	
624.29	19396	
624.48	22849	
624.67	21988	
624.86	20637	
625.05	19779	
625.24	22822	
625.43	21308	
625.62	22184	
625.81	19885	
626	22235	
626.19	21402	
626.38	20863	
626.56	20038	
626.75	21456	
626.94	22284	
627.13	20437	
627.32	19166	
627.51	21915	
627.7	23006	
627.89	18999	
628.08	20545	
628.27	20949	
628.46	21102	
628.65	19483	
628.83	19155	
629.02	21652	
629.21	21130	
629.4	20107	
629.59	20312	
629.78	21188	
629.97	21912	
630.16	20352	
630.35	19828	
630.54	22515	
630.72	22190	
630.91	19791	
631.1	20181	
631.29	21710	
631.48	21764	
631.67	20430	
631.86	19583	
632.05	21348	
632.24	21357	
632.42	19398	
632.61	20043	
632.8	21324	
632.99	21226	
633.18	20160	
633.37	20448	
633.56	21586	
633.75	21577	
633.93	20167	
634.12	19878	
634.31	22412	
634.5	22223	
634.69	19762	
634.88	20089	
635.07	21354	
635.25	21983	
635.44	20672	
635.63	20951	
635.82	21255	
636.01	20685	
636.2	20456	
636.39	20151	
636.57	22329	
636.76	21798	
636.95	19514	
637.14	20796	
637.33	21625	
637.52	22485	
637.7	19208	
637.89	20196	
638.08	21276	
638.27	22474	
638.46	20238	
638.65	20475	
638.83	22239	
639.02	20845	
639.21	19861	
639.4	20305	
639.59	21312	
639.78	20615	
639.96	19024	
640.15	19030	
640.34	20693	
640.53	20951	
640.72	18620	
640.91	18961	
641.09	20044	
641.28	21385	
641.47	19025	
641.66	19828	
641.85	20697	
642.03	20788	
642.22	19250	
642.41	18877	
642.6	19991	
642.79	19411	
642.97	18184	
643.16	19205	
643.35	19678	
643.54	19544	
643.73	18018	
643.91	18809	
644.1	18991	
644.29	19791	
644.48	17640	
644.67	17772	
644.85	18974	
645.04	19202	
645.23	16959	
645.42	17258	
645.6	18350	
645.79	19368	
645.98	16911	
646.17	15756	
646.36	17735	
646.54	18069	
646.73	17141	
646.92	15829	
647.11	17462	
647.29	18560	
647.48	15989	
647.67	15749	
647.86	18656	
648.05	19057	
648.23	16423	
648.42	17619	
648.61	18331	
648.8	18217	
648.98	15984	
649.17	16410	
649.36	17711	
649.55	17301	
649.73	16072	
649.92	16919	
650.11	17582	
650.3	17886	
650.48	16068	
650.67	15915	
650.86	18066	
651.05	16951	
651.23	16006	
651.42	15908	
651.61	17470	
651.79	17367	
651.98	16175	
652.17	15767	
652.36	17737	
652.54	16801	
652.73	15601	
652.92	15365	
653.11	17526	
653.29	17705	
653.48	14641	
653.67	15726	
653.85	17074	
654.04	17962	
654.23	15443	
654.42	15004	
654.6	16042	
654.79	16624	
654.98	14040	
655.16	14440	
655.35	15257	
655.54	15222	
655.73	14021	
655.91	13908	
656.1	16586	
656.29	15513	
656.47	13909	
656.66	15723	
656.85	16018	
657.03	16126	
657.22	14775	
657.41	14819	
657.59	16393	
657.78	16247	
657.97	14560	
658.16	15374	
658.34	16980	
658.53	17545	
658.72	16184	
658.9	16750	
659.09	16498	
659.28	16630	
659.46	15175	
659.65	14963	
659.84	16463	
660.02	16915	
660.21	14896	
660.4	14773	
660.58	17354	
660.77	16804	
660.96	15492	
661.14	14536	
661.33	17857	
661.52	17748	
661.7	14426	
661.89	18092	
662.08	16219	
662.26	15850	
662.45	14681	
662.64	14636	
662.82	16741	
663.01	16078	
663.2	14729	
663.38	15646	
663.57	16599	
663.75	16564	
663.94	15105	
664.13	16190	
664.31	16014	
664.5	16556	
664.69	15187	
664.87	15819	
665.06	15795	
665.25	16528	
665.43	15997	
665.62	16161	
665.8	16772	
665.99	16194	
666.18	14919	
666.36	15002	
666.55	16646	
666.74	16546	
666.92	14423	
667.11	16054	
667.29	16145	
667.48	16642	
667.67	15668	
667.85	14866	
668.04	16034	
668.22	16185	
668.41	14873	
668.6	14956	
668.78	15971	
668.97	16027	
669.15	15145	
669.34	14066	
669.53	15920	
669.71	16100	
669.9	14308	
670.08	14961	
670.27	15831	
670.46	16225	
670.64	15068	
670.83	15360	
671.01	15663	
671.2	16120	
671.38	14412	
671.57	14235	
671.76	16701	
671.94	17534	
672.13	14088	
672.31	15256	
672.5	16582	
672.69	15729	
672.87	14426	
673.06	14704	
673.24	16315	
673.43	15798	
673.61	14871	
673.8	14472	
673.98	16324	
674.17	16595	
674.36	15158	
674.54	15046	
674.73	16059	
674.91	16353	
675.1	14777	
675.28	14245	
675.47	15958	
675.65	16532	
675.84	14627	
676.03	15042	
676.21	15687	
676.4	15315	
676.58	15312	
676.77	15262	
676.95	17129	
677.14	15586	
677.32	14223	
677.51	14104	
677.69	16382	
677.88	15359	
678.06	14058	
678.25	14160	
678.44	16006	
678.62	15599	
678.81	13953	
678.99	14909	
679.18	16806	
679.36	16184	
679.55	14410	
679.73	15199	
679.92	16187	
680.1	15795	
680.29	15743	
680.47	14625	
680.66	15519	
680.84	16410	
681.03	13786	
681.21	14865	
681.4	15711	
681.58	15492	
681.77	14216	
681.95	14062	
682.14	16383	
682.32	16735	
682.51	15033	
682.69	13622	
682.88	15252	
683.06	15812	
683.25	14540	
683.43	14937	
683.62	15490	
683.8	15883	
683.99	14859	
684.17	13967	
684.36	16285	
684.54	14730	
684.73	12642	
684.91	12716	
685.1	14489	
685.28	13653	
685.46	12803	
685.65	12954	
685.83	14472	
686.02	13878	
686.2	12439	
686.39	12696	
686.57	13718	
686.76	15606	
686.94	12684	
687.13	12967	
687.31	14577	
687.5	14255	
687.68	12298	
687.86	13820	
688.05	16147	
688.23	13873	
688.42	13784	
688.6	13184	
688.79	14575	
688.97	14458	
689.16	13592	
689.34	12522	
689.52	15357	
689.71	15470	
689.89	13901	
690.08	13143	
690.26	14694	
690.45	14562	
690.63	13708	
690.81	13143	
691	14122	
691.18	14171	
691.37	13104	
691.55	15290	
691.74	14039	
691.92	16171	
692.1	13075	
692.29	12487	
692.47	14312	
692.66	13622	
692.84	12843	
693.02	13461	
693.21	13849	
693.39	14316	
693.58	13663	
693.76	13139	
693.94	15887	
694.13	15789	
694.31	13451	
694.5	14610	
694.68	14784	
694.86	15277	
695.05	13972	
695.23	14162	
695.42	15666	
695.6	17879	
695.78	14594	
695.97	13534	
696.15	15413	
696.34	14694	
696.52	13226	
696.7	13917	
696.89	14958	
697.07	14377	
697.25	13653	
697.44	15315	
697.62	14834	
697.81	15119	
697.99	13173	
698.17	13855	
698.36	14066	
698.54	14692	
698.72	13635	
698.91	12615	
699.09	14356	
699.28	14197	
699.46	13150	
699.64	13047	
699.83	14095	
700.01	15238	
700.19	14009	
700.38	12482	
700.56	15526	
700.74	14441	
700.93	12998	
701.11	13831	
701.29	15041	
701.48	16191	
701.66	13345	
701.84	13437	
702.03	14597	
702.21	15485	
702.39	12775	
702.58	13616	
702.76	15048	
702.94	15189	
703.13	12831	
703.31	15238	
703.49	14562	
703.68	15853	
703.86	13085	
704.04	14039	
704.23	14857	
704.41	15248	
704.59	13217	
704.78	14360	
704.96	16012	
705.14	15316	
705.33	13118	
705.51	13710	
705.69	14719	
705.87	15637	
706.06	14006	
706.24	13020	
706.42	14984	
706.61	15389	
706.79	14141	
706.97	13044	
707.16	14385	
707.34	14974	
707.52	13880	
707.7	13202	
707.89	14589	
708.07	14304	
708.25	13910	
708.44	14170	
708.62	14426	
708.8	15485	
708.98	14147	
709.17	13190	
709.35	14816	
709.53	14746	
709.72	12798	
709.9	12920	
710.08	14995	
710.26	15037	
710.45	14288	
710.63	12978	
710.81	14562	
710.99	14584	
711.18	13500	
711.36	12868	
711.54	14186	
711.72	14810	
711.91	12768	
712.09	12090	
712.27	14158	
712.45	14980	
712.64	12643	
712.82	11725	
713	12950	
713.18	13068	
713.37	11276	
713.55	12254	
713.73	13365	
713.91	11599	
714.1	10776	
714.28	10052	
714.46	12196	
714.64	11086	
714.83	8925.7	
715.01	9575.6	
715.19	10723	
715.37	9955.9	
715.55	9037	
715.74	9357.9	
715.92	11453	
716.1	9424.1	
716.28	10417	
716.47	9321	
716.65	9956.5	
716.83	10126	
717.01	9132.6	
717.19	9155.1	
717.38	12351	
717.56	9988.6	
717.74	9706.7	
717.92	8895	
718.1	11544	
718.29	10895	
718.47	9021.3	
718.65	9772.9	
718.83	11935	
719.01	11968	
719.2	9254.8	
719.38	10375	
719.56	11774	
719.74	13180	
719.92	9759.3	
720.11	10626	
720.29	11373	
720.47	10411	
720.65	8800.8	
720.83	9467.8	
721.02	10310	
721.2	9998.2	
721.38	9338.1	
721.56	8652	
721.74	9465.7	
721.92	9643.9	
722.11	9843.9	
722.29	9564.7	
722.47	10920	
722.65	10064	
722.83	8480.6	
723.01	9437	
723.2	10197	
723.38	10423	
723.56	8033.5	
723.74	9188.6	
723.92	9543.5	
724.1	10707	
724.29	8531.2	
724.47	9626.8	
724.65	9580.4	
724.83	9541.5	
725.01	8292.2	
725.19	9193.3	
725.37	9546.9	
725.56	9742.9	
725.74	8151.6	
725.92	8489.5	
726.1	9508	
726.28	9843.2	
726.46	8800.8	
726.64	8441	
726.83	9855.5	
727.01	10051	
727.19	8108.6	
727.37	9099.8	
727.55	9996.1	
727.73	10425	
727.91	8112.7	
728.09	7969.3	
728.28	10501	
728.46	11185	
728.64	9275.9	
728.82	9238.4	
729	11783	
729.18	11157	
729.36	8671.8	
729.54	11039	
729.72	12476	
729.91	10742	
730.09	10873	
730.27	9785.9	
730.45	10866	
730.63	11604	
730.81	10270	
730.99	9555.1	
731.17	12014	
731.35	10600	
731.53	9964.1	
731.71	9535.3	
731.9	11610	
732.08	11691	
732.26	9678	
732.44	9385.2	
732.62	11751	
732.8	11321	
732.98	10124	
733.16	9080	
733.34	11196	
733.52	10043	
733.7	9574.9	
733.88	9992	
734.07	11097	
734.25	10864	
734.43	9139.4	
734.61	10621	
734.79	12429	
734.97	10755	
735.15	9241.8	
735.33	9545.6	
735.51	11066	
735.69	10729	
735.87	10682	
736.05	9785.9	
736.23	10996	
736.41	10741	
736.59	9574.3	
736.77	9731.9	
736.95	11497	
737.13	10963	
737.32	9310.1	
737.5	9450	
737.68	11987	
737.86	10741	
738.04	8982.4	
738.22	10950	
738.4	10455	
738.58	10703	
738.76	9691.7	
738.94	8610.3	
739.12	10621	
739.3	10537	
739.48	10372	
739.66	10038	
739.84	11038	
740.02	10962	
740.2	8756.4	
740.38	9159.2	
740.56	11310	
740.74	10105	
740.92	9824.8	
741.1	9514.2	
741.28	10666	
741.46	10507	
741.64	9203.6	
741.82	9784.5	
742	10533	
742.18	10560	
742.36	9278	
742.54	8822.6	
742.72	11255	
742.9	9820	
743.08	9723.8	
743.26	8544.8	
743.44	11252	
743.62	11034	
743.8	9833	
743.98	8810.4	
744.16	10664	
744.34	10368	
744.52	9626.1	
744.7	9489.6	
744.88	10747	
745.06	10220	
745.24	9471.2	
745.42	9699.9	
745.6	10852	
745.78	10389	
745.96	8213	
746.14	8461.5	
746.32	11393	
746.5	10730	
746.68	8998.8	
746.86	8539.3	
747.03	11039	
747.21	9265.7	
747.39	8959.9	
747.57	8457.4	
747.75	10164	
747.93	10563	
748.11	8476.5	
748.29	8319.5	
748.47	11663	
748.65	9806.4	
748.83	9228.1	
749.01	8940.7	
749.19	10450	
749.37	9435	
749.55	8738	
749.73	8783.7	
749.91	9996.8	
750.09	9587.9	
750.26	8810.4	
750.44	8155	
750.62	10063	
750.8	9914.9	
750.98	8171.4	
751.16	8378.2	
751.34	10029	
751.52	9294.4	
751.7	9209.7	
751.88	7998.7	
752.06	10523	
752.24	10257	
752.42	7894.9	
752.59	8398	
752.77	9827.5	
752.95	11159	
753.13	9096.4	
753.31	8428.8	
753.49	9576.3	
753.67	9822.1	
753.85	8613.1	
754.03	8144.8	
754.21	10051	
754.38	10377	
754.56	7985	
754.74	7060.7	
754.92	8896.4	
755.1	9443.2	
755.28	6563.7	
755.46	6156.9	
755.64	9216.5	
755.82	9086.8	
755.99	5483.8	
756.17	5481.7	
756.35	5935	
756.53	7369.3	
756.71	4104.1	
756.89	5051	
757.07	7090.8	
757.25	6259.3	
757.42	5954.8	
757.6	6980.2	
757.78	7653.3	
757.96	6739.2	
758.14	6010.8	
758.32	5462.6	
758.5	6202.6	
758.67	7309.2	
758.85	5558.9	
759.03	5669.5	
759.21	7132.4	
759.39	6498.2	
759.57	5226.4	
759.75	6374	
759.92	7968.6	
760.1	7194.5	
760.28	6966.5	
760.46	7311.9	
760.64	7184.3	
760.82	6930.3	
760.99	7066.9	
761.17	6196.5	
761.35	8279.3	
761.53	7299	
761.71	6649.1	
761.89	7397.3	
762.06	8312	
762.24	7907.2	
762.42	6820.4	
762.6	6738.5	
762.78	8033.5	
762.96	8811.7	
763.13	7479.2	
763.31	7240.3	
763.49	9015.8	
763.67	8156.4	
763.85	8066.3	
764.02	8595.3	
764.2	9252.7	
764.38	8537.3	
764.56	6978.8	
764.74	7895.6	
764.91	9404.3	
765.09	8221.9	
765.27	6740.5	
765.45	6397.2	
765.63	9463.7	
765.8	9294.4	
765.98	6208.1	
766.16	6583.5	
766.34	7735.2	
766.52	7421.8	
766.69	7473	
766.87	6270.9	
767.05	8079.9	
767.23	8803.5	
767.41	6481.8	
767.58	6758.3	
767.76	8543.4	
767.94	8624	
768.12	6546.7	
768.29	7301	
768.47	8015.7	
768.65	8657.4	
768.83	6185.5	
769	7172.7	
769.18	7411.6	
769.36	8231.5	
769.54	7150.1	
769.72	5990.3	
769.89	8305.9	
770.07	8446.5	
770.25	6257.9	
770.43	7552.2	
770.6	8985.8	
770.78	9551	
770.96	6380.8	
771.14	6934.4	
771.31	8167.3	
771.49	7482.6	
771.67	5427.1	
771.85	5753.4	
772.02	6577.4	
772.2	7401.4	
772.38	6275.7	
772.55	5880.4	
772.73	7612.3	
772.91	7333.1	
773.09	6216.3	
773.26	6255.9	
773.44	7480.5	
773.62	7215	
773.8	5641.5	
773.97	5455.1	
774.15	7410.9	
774.33	7084.6	
774.5	5453.1	
774.68	5877	
774.86	7578.2	
775.04	7020.4	
775.21	5479.7	
775.39	5399.8	
775.57	7295.5	
775.74	7617.8	
775.92	5314.5	
776.1	5116.5	
776.27	7141.9	
776.45	8439.7	
776.63	5332.2	
776.81	4894.6	
776.98	6734.4	
777.16	7811.6	
777.34	5413.5	
777.51	5380	
777.69	6669.6	
777.87	6559	
778.04	5395	
778.22	6033.3	
778.4	6427.2	
778.57	7055.9	
778.75	4602.5	
778.93	4859.8	
779.1	6105	
779.28	5976.7	
779.46	4576.5	
779.64	5089.2	
779.81	7165.2	
779.99	8032.8	
780.17	5908.4	
780.34	5985.5	
780.52	6475.7	
780.69	6644.3	
780.87	5256.5	
781.05	4867.3	
781.22	6518	
781.4	6589	
781.58	4876.2	
781.75	4141	
781.93	6569.9	
782.11	5909.8	
782.28	5688.6	
782.46	4929.5	
782.64	5710.4	
782.81	6632.7	
782.99	4913.8	
783.17	4831.2	
783.34	6496.8	
783.52	5698.1	
783.69	5031.2	
783.87	5837.4	
784.05	5634.6	
784.22	5757.5	
784.4	5794.4	
784.58	5124.7	
784.75	6654.5	
784.93	5755.5	
785.1	4723.3	
785.28	5288.5	
785.46	6303.6	
785.63	5627.1	
785.81	4689.8	
785.99	4454.3	
786.16	5798.5	
786.34	6211.5	
786.51	4513	
786.69	4894.6	
786.87	5414.8	
787.04	5904.3	
787.22	4332.8	
787.39	5244.2	
787.57	5547.3	
787.75	6711.2	
787.92	5482.4	
788.1	5396.4	
788.27	5608.7	
788.45	5368.4	
788.63	5102.9	
788.8	3820.8	
788.98	5913.9	
789.15	5269.4	
789.33	3985.3	
789.5	4554	
789.68	6474.3	
789.86	6587.6	
790.03	4984.8	
790.21	4381.3	
790.38	6410.1	
790.56	5591	
790.73	4240.7	
790.91	4232.5	
791.09	5473.5	
791.26	6171.9	
791.44	4511.7	
791.61	3913	
791.79	5403.2	
791.96	5517.2	
792.14	4061.1	
792.32	3564.1	
792.49	5485.1	
792.67	5583.4	
792.84	4123.2	
793.02	3860.4	
793.19	5872.9	
793.37	6578.1	
793.54	3588.7	
793.72	3973.1	
793.89	6782.2	
794.07	5420.3	
794.25	4570.4	
794.42	3674.7	
794.6	6488.6	
794.77	6102.9	
794.95	4695.3	
795.12	4182.6	
795.3	5400.5	
795.47	6020.3	
795.65	4556.7	
795.82	4403.1	
796	5236	
796.17	7098.9	
796.35	4308.9	
796.52	4973.8	
796.7	5843.5	
796.87	6013.5	
797.05	5190.9	
797.22	5128.1	
797.4	5988.3	
797.57	6952.9	
797.75	4389.5	
797.92	4111.6	
798.1	6263.4	
798.27	5269.4	
798.45	3589.4	
798.62	3882.9	
798.8	5682.4	
798.97	6162.3	
799.15	4585.4	
799.32	4396.3	
799.5	4891.2	
799.67	5715.2	
799.85	4734.2	
800.02	3513.6	
800.2	5210.7	
800.37	5607.3	
800.55	4792.2	
800.72	4111.6	
800.9	6049	
801.07	6485.9	
801.25	5427.1	
801.42	4488.5	
801.6	6086.6	
801.77	5768.4	
801.95	4161.5	
802.12	3986.7	
802.29	5814.2	
802.47	5756.2	
802.64	4431.1	
802.82	3433.1	
802.99	5241.4	
803.17	6266.1	
803.34	4306.2	
803.52	3849.5	
803.69	6910.5	
803.87	4973.8	
804.04	4328.7	
804.21	4362.9	
804.39	6367.1	
804.56	5432.6	
804.74	3663.1	
804.91	4480.3	
805.09	5235.3	
805.26	5298.8	
805.44	3781.9	
805.61	4093.2	
805.78	5885.2	
805.96	5923.4	
806.13	4491.2	
806.31	4682.3	
806.48	4754.7	
806.66	5308.3	
806.83	4428.4	
807	4405.2	
807.18	5220.3	
807.35	5644.9	
807.53	4220.9	
807.7	3491.8	
807.87	6374	
808.05	5245.5	
808.22	4722.6	
808.4	3431.7	
808.57	5220.3	
808.74	4821.6	
808.92	3920.5	
809.09	4900.1	
809.27	5083.7	
809.44	5659.9	
809.61	3454.2	
809.79	3870	
809.96	6299.6	
810.14	5953.4	
810.31	3387.3	
810.48	4044.1	
810.66	5304.2	
810.83	6060.6	
811.01	3904.1	
811.18	4331.5	
811.35	5926.1	
811.53	4659.1	
811.7	4678.9	
811.87	4330.1	
812.05	5155.4	
812.22	5109.7	
812.39	3751.9	
812.57	3699.3	
812.74	5257.1	
812.92	7024.5	
813.09	4070	
813.26	4484.4	
813.44	6589.7	
813.61	5150	
813.78	3394.2	
813.96	4575.2	
814.13	5196.4	
814.3	4899.4	
814.48	4941.7	
814.65	4042.7	
814.82	6393.8	
815	4999.8	
815.17	4169.7	
815.34	5082.4	
815.52	5071.5	
815.69	5152	
815.87	4217.5	
816.04	3642.7	
816.21	5223	
816.38	4586.8	
816.56	4037.2	
816.73	3753.9	
816.9	6492.1	
817.08	5917.3	
817.25	3819.5	
817.42	4725.3	
817.6	4762.2	
817.77	5165.7	
817.94	4276.8	
818.12	3728.7	
818.29	4949.9	
818.46	7582.9	
818.64	3924.6	
818.81	3744.4	
818.98	4832.5	
819.16	7012.2	
819.33	4488.5	
819.5	4223.6	
819.67	5521.3	
819.85	6252.4	
820.02	4146.5	
820.19	4362.9	
820.37	5423	
820.54	4981.3	
820.71	4231.8	
820.88	5161.6	
821.06	5389.6	
821.23	5018.2	
821.4	4287.1	
821.58	4209.3	
821.75	5935.7	
821.92	5380	
822.09	3442.6	
822.27	3526.6	
822.44	5220.3	
822.61	5089.9	
822.79	3439.2	
822.96	6541.2	
823.13	5612.1	
823.3	4937	
823.48	3992.9	
823.65	3597.6	
823.82	5787.6	
823.99	4771.1	
824.17	4983.4	
824.34	3598.3	
824.51	6705	
824.68	5216.9	
824.86	3876.8	
825.03	4200.4	
825.2	5206.6	
825.37	6246.3	
825.55	3721.8	
825.72	4225.6	
825.89	6881.2	
826.06	6376.7	
826.24	4086.4	
826.41	4127.3	
826.58	6294.1	
826.75	5481	
826.92	3300.6	
827.1	3590.1	
827.27	8559.8	
827.44	6838.2	
827.61	3892.5	
827.79	4660.5	
827.96	4874.2	
828.13	5227.1	
828.3	4065.9	
828.47	3453.6	
828.65	5433.3	
828.82	5360.2	
828.99	5190.2	
829.16	4598.4	
829.34	5822.4	
829.51	5593.7	
829.68	4247.5	
829.85	4326.7	
830.02	6084.5	
830.2	5840.8	
830.37	3260.4	
830.54	4997.7	
830.71	6675.7	
830.88	5158.8	
831.05	3296.5	
831.23	3812.6	
831.4	6290	
831.57	7038.9	
831.74	3915	
831.91	3412.6	
832.09	5388.2	
832.26	5741.1	
832.43	4027	
832.6	4533.5	
832.77	5390.3	
832.94	6196.5	
833.12	3231.7	
833.29	3979.9	
833.46	5025	
833.63	7273	
833.8	4306.2	
833.97	4070.7	
834.15	5828.5	
834.32	5535.7	
834.49	4190.1	
834.66	4272.7	
834.83	6017.6	
835	4931.5	
835.17	3834.5	
835.35	3898.6	
835.52	5720	
835.69	5537.7	
835.86	4141	
836.03	3407.8	
836.2	5736.4	
836.37	5325.4	
836.55	3983.3	
836.72	3760.8	
836.89	5352	
837.06	5792.3	
837.23	4134.2	
837.4	4502.1	
837.57	6718	
837.75	7310.6	
837.92	3728	
838.09	3928.7	
838.26	5326.1	
838.43	6022.4	
838.6	4201.1	
838.77	3742.3	
838.94	6948.1	
839.11	6589.7	
839.29	4007.2	
839.46	3202.3	
839.63	5746.6	
839.8	5489.2	
839.97	3921.9	
840.14	3906.8	
840.31	5582.8	
840.48	5797.8	
840.65	3243.3	
840.82	3822.2	
841	5838.8	
841.17	5692	
841.34	3604.4	
841.51	3672	
841.68	5655.8	
841.85	5412.1	
842.02	3723.9	
842.19	3149.8	
842.36	5560.2	
842.53	5517.2	
842.7	3616	
842.87	4383.3	
843.05	7232.7	
843.22	5445.5	
843.39	3418.7	
843.56	3684.3	
843.73	5199.8	
843.9	5834	
844.07	5792.3	
844.24	4794.3	
844.41	8381	
844.58	4976.6	
844.75	3451.5	
844.92	3745.1	
845.09	5768.4	
845.26	5746.6	
845.43	3593.5	
845.6	3818.8	
845.77	5831.2	
845.94	5485.1	
846.12	3973.7	
846.29	4208.6	
846.46	5941.8	
846.63	5767.8	
846.8	3598.3	
846.97	4248.2	
847.14	6217.6	
847.31	5674.9	
847.48	3999	
847.65	4334.9	
847.82	6010.1	
847.99	6037.4	
848.16	4713.1	
848.33	4413.4	
848.5	5315.2	
848.67	6227.2	
848.84	3520.5	
849.01	3692.5	
849.18	5177.3	
849.35	4877.6	
849.52	4450.9	
849.69	3454.9	
849.86	5918.6	
850.03	6150.1	
850.2	3565.5	
850.37	4349.2	
850.54	6124.8	
850.71	5413.5	
850.88	4317.1	
851.05	3494.5	
851.22	5597.1	
851.39	6269.5	
851.56	3368.9	
851.73	4080.9	
851.9	5089.9	
852.07	5991	
852.24	3967.6	
852.41	3493.2	
852.58	5656.5	
852.75	5159.5	
852.92	3949.8	
853.09	3464.5	
853.26	5337	
853.43	6158.9	
853.6	3547.8	
853.77	3042.6	
853.94	6257.9	
854.11	5692.7	
854.28	5288.5	
854.44	3874.1	
854.61	6694.1	
854.78	5862	
854.95	3556	
855.12	4441.4	
855.29	4660.5	
855.46	6401.3	
855.63	3473.4	
855.8	4900.8	
855.97	5279.7	
856.14	6100.2	
856.31	5007.3	
856.48	3842.7	
856.65	5299.5	
856.82	5053.7	
856.99	3438.5	
857.16	3837.9	
857.33	6972.7	
857.49	5416.9	
857.66	3824.9	
857.83	4149.2	
858	5352	
858.17	5574.6	
858.34	3379.1	
858.51	3546.4	
858.68	6440.9	
858.85	6468.2	
859.02	4093.9	
859.19	4414.7	
859.36	5004.6	
859.52	5073.5	
859.69	3528.7	
859.86	4172.4	
860.03	5171.1	
860.2	6362.4	
860.37	3248.8	
860.54	3543	
860.71	5949.3	
860.88	6366.5	
861.05	3999.7	
861.21	4454.3	
861.38	6388.3	
861.55	4909	
861.72	3278.8	
861.89	4006.5	
862.06	5961.6	
862.23	6498.2	
862.4	3480.2	
862.56	3736.2	
862.73	5852.4	
862.9	5475.6	
863.07	4138.3	
863.24	3254.2	
863.41	4934.9	
863.58	5017.5	
863.75	3579.8	
863.91	4116.4	
864.08	6298.2	
864.25	5906.3	
864.42	4437.9	
864.59	4892.6	
864.76	6649.8	
864.93	5010	
865.09	3416.7	
865.26	3788.1	
865.43	6220.4	
865.6	6565.1	
865.77	3132	
865.94	3500	
866.1	6266.8	
866.27	6001.9	
866.44	5289.2	
866.61	3324.5	
866.78	5467.4	
866.95	5864	
867.11	3446	
867.28	3200.3	
867.45	6082.5	
867.62	5088.5	
867.79	4212.7	
867.96	3532.1	
868.12	5018.2	
868.29	6027.2	
868.46	3549.8	
868.63	4687.8	
868.8	6170.5	
868.97	5900.9	
869.13	3778.5	
869.3	3719.1	
869.47	5806	
869.64	6079.1	
869.81	3611.3	
869.97	3545.7	
870.14	5747.3	
870.31	6459.3	
870.48	3463.1	
870.65	4427.7	
870.81	5382.1	
870.98	5279	
871.15	4003.1	
871.32	3661.8	
871.48	5804.6	
871.65	6391.7	
871.82	3504.1	
871.99	3949.8	
872.16	6880.5	
872.32	6228.6	
872.49	3601	
872.66	3580.5	
872.83	5885.2	
872.99	5196.4	
873.16	4052.2	
873.33	3502	
873.5	5584.8	
873.67	5604.6	
873.83	3728.7	
874	4688.5	
874.17	5748	
874.34	6817.7	
874.5	4521.9	
874.67	4364.2	
874.84	6358.9	
875.01	4962.9	
875.17	4950.6	
875.34	3538.9	
875.51	5655.8	
875.68	6795.2	
875.84	4246.8	
876.01	5205.3	
876.18	5838.1	
876.34	5862	
876.51	3559.4	
876.68	3445.4	
876.85	5395.7	
877.01	6223.1	
877.18	4992.9	
877.35	3545	
877.52	5467.4	
877.68	4991.6	
877.85	3488.4	
878.02	3532.7	
878.18	5504.9	
878.35	5201.8	
878.52	2792.7	
878.69	3991.5	
878.85	5912.5	
879.02	5892.7	
879.19	5051.7	
879.35	3792.2	
879.52	5916.6	
879.69	6105	
879.86	3063.1	
880.02	3934.8	
880.19	5453.7	
880.36	6656.6	
880.52	4063.9	
880.69	4204.5	
880.86	5989.6	
881.02	6052.4	
881.19	3842	
881.36	3769.6	
881.52	5886.5	
881.69	5186.1	
881.86	3805.1	
882.02	3721.8	
882.19	6158.2	
882.36	7200	
882.52	3616	
882.69	4939.7	
882.86	5628.5	
883.02	5552	
883.19	4321.9	
883.36	4023.6	
883.52	6049	
883.69	6902.3	
883.86	3566.2	
884.02	3202.3	
884.19	5986.2	
884.36	5500.8	
884.52	4020.2	
884.69	3746.4	
884.86	5228.5	
885.02	6546	
885.19	3923.2	
885.36	4112.3	
885.52	5532.9	
885.69	5640.8	
885.86	5019.6	
886.02	4538.3	
886.19	5930.9	
886.35	5395	
886.52	3865.2	
886.69	4920.6	
886.85	5061.9	
887.02	6272.2	
887.19	6272.2	
887.35	6272.2	
887.52	6272.2	
887.68	6272.2	
887.85	6272.2	
888.02	6272.2	
888.18	6272.2	
888.35	6272.2	
888.51	6272.2	
888.68	6272.2	
888.85	6272.2	
889.01	6272.2	
889.18	6272.2	
889.35	6272.2	
889.51	6272.2	
889.68	6272.2	
889.84	6272.2	
890.01	6272.2	
890.17	6272.2	
890.34	6272.2	
890.51	6272.2	
890.67	6272.2	
890.84	6272.2	
891	6272.2	
891.17	6272.2	
891.34	6272.2	
891.5	6272.2	
891.67	6272.2	
891.83	6272.2	
892	6272.2	
892.16	6272.2	
892.33	6272.2	
892.5	6272.2	
892.66	6272.2	
892.83	6272.2	
892.99	6272.2	
893.16	6272.2	
893.32	6272.2	
893.49	6272.2	
893.65	6272.2	
893.82	6272.2	
893.99	6272.2	
894.15	6272.2	
894.32	6272.2	
894.48	6272.2	
894.65	6272.2	
894.81	6272.2	
894.98	6272.2	
895.14	6272.2	
895.31	6272.2	
895.47	6272.2	
895.64	6272.2	
895.81	6272.2	
895.97	6272.2	
896.14	6272.2	
896.3	6272.2	
896.47	6272.2	
896.63	6272.2	
896.8	6272.2	
896.96	6272.2	
897.13	6272.2	
897.29	6272.2	
897.46	6272.2	
897.62	6272.2	
897.79	6272.2	
897.95	6272.2	
898.12	6272.2	
898.28	6272.2	
898.45	6272.2	
898.61	6272.2	
898.78	6272.2	
898.94	6272.2	
899.11	6272.2	
899.27	6272.2	
899.44	6272.2	
899.6	6272.2	
899.77	6272.2	
899.93	6272.2	
900.1	6272.2	
900.26	6272.2	
900.43	6272.2	
900.59	6272.2	
900.76	6272.2	
900.92	6272.2	
901.09	6272.2	
901.25	6272.2	
901.42	6272.2	
901.58	6272.2	
901.75	6272.2	
901.91	6272.2	
902.07	6272.2	
902.24	6272.2	
902.4	6272.2	
902.57	6272.2	
902.73	6272.2	
902.9	6272.2	
903.06	6272.2	
903.23	6272.2	
903.39	6272.2	
903.56	6272.2	
903.72	6272.2	
903.88	6272.2	
904.05	6272.2	
904.21	6272.2	
904.38	6272.2	
904.54	6272.2	
904.71	6272.2	
904.87	6272.2	
905.03	6272.2	
905.2	6272.2	
905.36	6272.2	
905.53	6272.2	
905.69	6272.2	
905.86	6272.2	
906.02	6272.2	
906.18	6272.2	
906.35	6272.2	
906.51	6272.2	
906.68	6272.2	
906.84	6272.2	
907.01	6272.2	
907.17	6272.2	
907.33	6272.2	
907.5	6272.2	
907.66	6272.2	
907.83	6272.2	
907.99	6272.2	
908.15	6272.2	
908.32	6272.2	
908.48	6272.2	
908.65	6272.2	
908.81	6272.2	
908.97	6272.2	
909.14	6272.2	
909.3	6272.2	
909.47	6272.2	
909.63	6272.2	
909.79	6272.2	
909.96	6272.2	
910.12	6272.2	
910.28	6272.2	
910.45	6272.2	
910.61	6272.2	
910.78	6272.2	
910.94	6272.2	
911.1	6272.2	
911.27	6272.2	
911.43	6272.2	
911.59	6272.2	
911.76	6272.2	
911.92	6272.2	
912.08	6272.2	
912.25	6272.2	
912.41	6272.2	
912.57	6272.2	
912.74	6272.2	
912.9	6272.2	
913.07	6272.2	
913.23	6272.2	
913.39	6272.2	
913.56	6272.2	
913.72	6272.2	
913.88	6272.2	
914.05	6272.2	
914.21	6272.2	
914.37	6272.2	
914.54	6272.2	
914.7	6272.2	
914.86	6272.2	
915.03	6272.2	
915.19	6272.2	
