Wavelength	Intensities	
nm	a.u.	
179.22	1777.8	
179.44	1776.6	
179.65	1779	
179.86	1774.2	
180.08	1770.1	
180.29	4245.4	
180.51	3181.2	
180.72	5204.6	
180.94	5915.9	
181.15	2906.8	
181.37	2869.2	
181.58	4996.4	
181.79	5296	
182.01	3009.1	
182.22	3256.3	
182.44	5243.5	
182.65	4483	
182.87	3937.6	
183.08	3530.7	
183.29	5522	
183.51	4514.4	
183.72	3182.5	
183.94	4510.3	
184.15	4865.3	
184.37	4902.8	
184.58	2871.9	
184.79	3781.2	
185.01	4645.5	
185.22	5248.9	
185.44	3983.3	
185.65	3413.3	
185.86	4904.2	
186.08	4526	
186.29	2760.7	
186.51	2987.3	
186.72	4691.9	
186.94	5389.6	
187.15	3398.3	
187.36	3450.1	
187.58	6920.8	
187.79	5048.9	
188.01	3635.1	
188.22	5509	
188.43	5972.6	
188.65	5194.3	
188.86	2983.9	
189.08	3491.8	
189.29	4771.1	
189.5	4782.7	
189.72	3258.3	
189.93	3268.6	
190.15	5375.9	
190.36	6326.9	
190.57	3575.1	
190.79	3475.4	
191	5427.8	
191.22	5414.1	
191.43	3559.4	
191.64	2987.3	
191.86	5619.6	
192.07	5460.6	
192.29	3113.6	
192.5	3305.4	
192.71	5385.5	
192.93	4735.6	
193.14	3273.3	
193.35	3348.4	
193.57	4771.8	
193.78	5476.3	
194	2680.1	
194.21	3218	
194.42	4560.1	
194.64	4907.6	
194.85	3534.8	
195.07	4042	
195.28	4989.5	
195.49	4378.6	
195.71	4185.4	
195.92	3036.5	
196.13	5144.5	
196.35	5167.7	
196.56	4539	
196.78	3469.3	
196.99	6249.7	
197.2	5845.6	
197.42	3958.7	
197.63	3511.6	
197.84	4495.3	
198.06	5115.8	
198.27	3252.9	
198.48	4244.1	
198.7	4676.9	
198.91	4930.1	
199.13	3488.4	
199.34	3526.6	
199.55	5316.5	
199.77	4307.6	
199.98	3142.9	
200.19	3551.9	
200.41	4802.5	
200.62	4590.2	
200.83	3583.3	
201.05	3902.7	
201.26	4881.7	
201.47	4661.9	
201.69	3132	
201.9	3059	
202.11	4951.3	
202.33	5803.9	
202.54	3331.4	
202.76	3732.8	
202.97	5014.8	
203.18	5074.2	
203.4	3700	
203.61	3645.4	
203.82	5040.7	
204.04	4654.4	
204.25	3518.4	
204.46	3473.4	
204.68	4991.6	
204.89	5113.1	
205.1	3467.9	
205.32	3029.6	
205.53	5252.4	
205.74	5415.5	
205.96	2648	
206.17	3582.6	
206.38	5242.8	
206.6	5375.2	
206.81	4106.2	
207.02	3310.2	
207.24	5158.2	
207.45	5502.2	
207.66	3388.7	
207.88	2906.8	
208.09	5123.3	
208.3	4922	
208.52	3145	
208.73	3418.7	
208.94	4940.4	
209.15	5567.7	
209.37	3375.1	
209.58	3810.6	
209.79	5380	
210.01	4749.9	
210.22	2757.2	
210.43	2820.7	
210.65	4940.4	
210.86	5257.1	
211.07	3390.8	
211.29	3047.4	
211.5	5189.6	
211.71	4876.2	
211.93	3139.5	
212.14	3093.1	
212.35	4931.5	
212.56	5014.8	
212.78	3589.4	
212.99	2931.3	
213.2	5702.9	
213.42	4747.9	
213.63	3198.9	
213.84	3366.2	
214.06	4459.8	
214.27	4597	
214.48	3408.5	
214.69	3575.1	
214.91	5509	
215.12	5584.1	
215.33	3614.7	
215.55	3935.5	
215.76	5973.2	
215.97	5205.9	
216.18	3448.8	
216.4	3463.8	
216.61	4696	
216.82	5382.1	
217.04	3155.9	
217.25	3241.9	
217.46	5488.6	
217.67	5241.4	
217.89	2843.3	
218.1	2901.3	
218.31	5033.9	
218.53	5095.3	
218.74	3344.3	
218.95	3188.7	
219.16	4922.6	
219.38	5689.3	
219.59	3180.5	
219.8	3745.1	
220.01	6154.1	
220.23	4967.7	
220.44	4092.5	
220.65	3062.4	
220.87	5007.3	
221.08	5457.8	
221.29	2915.6	
221.5	3803.8	
221.72	6498.2	
221.93	4684.4	
222.14	3609.9	
222.35	4136.2	
222.57	4915.8	
222.78	5244.2	
222.99	3429.7	
223.2	3620.8	
223.42	5159.5	
223.63	5363.6	
223.84	2628.2	
224.05	2629.6	
224.27	6189.6	
224.48	5696.8	
224.69	4128.7	
224.9	3568.2	
225.12	5100.8	
225.33	4905.6	
225.54	2882.9	
225.75	3198.9	
225.97	4569.7	
226.18	4928.1	
226.39	3414.6	
226.6	3151.8	
226.82	4704.9	
227.03	4616.1	
227.24	3500	
227.45	2957.9	
227.67	5279.7	
227.88	5634	
228.09	3941.7	
228.3	3970.3	
228.52	5313.1	
228.73	4892.6	
228.94	3235.8	
229.15	2936.1	
229.36	4879.6	
229.58	4855.7	
229.79	3332.7	
230	3790.8	
230.21	5826.5	
230.43	5016.2	
230.64	3526.6	
230.85	3651.5	
231.06	5335	
231.28	5261.9	
231.49	2944.3	
231.7	3447.4	
231.91	5283.1	
232.12	4925.4	
232.34	3037.1	
232.55	3361.4	
232.76	5470.1	
232.97	5087.8	
233.18	3108.8	
233.4	3489.7	
233.61	5027.8	
233.82	4724	
234.03	3234.4	
234.25	3207.8	
234.46	6696.2	
234.67	4992.3	
234.88	3609.2	
235.09	3173.7	
235.31	5177.3	
235.52	4829.8	
235.73	3477.5	
235.94	2957.9	
236.15	4705.5	
236.37	5896.8	
236.58	3135.4	
236.79	3370.3	
237	5257.8	
237.21	4483	
237.43	3679.5	
237.64	2899.9	
237.85	8375.5	
238.06	4586.8	
238.27	3666.5	
238.48	2998.2	
238.7	5219.6	
238.91	4825	
239.12	3347.1	
239.33	3458.3	
239.54	4786.8	
239.76	4853	
239.97	3404.4	
240.18	3390.8	
240.39	5982.8	
240.6	5175.9	
240.82	3552.5	
241.03	2971.6	
241.24	4920.6	
241.45	5631.2	
241.66	3112.2	
241.87	3693.9	
242.09	5603.9	
242.3	5741.1	
242.51	3670	
242.72	3393.5	
242.93	5295.4	
243.14	4857.1	
243.36	3878.2	
243.57	4197.7	
243.78	5778.7	
243.99	5253.7	
244.2	3368.9	
244.41	3107.5	
244.63	4579.3	
244.84	5185.5	
245.05	3631.7	
245.26	3346.4	
245.47	5223.7	
245.68	5326.8	
245.9	4431.8	
246.11	3540.3	
246.32	4825	
246.53	5154.1	
246.74	5302.9	
246.95	2887.6	
247.16	4605.9	
247.38	4920.6	
247.59	2906.1	
247.8	3444.7	
248.01	4631.1	
248.22	4947.2	
248.43	3123.2	
248.64	3295.9	
248.86	4441.4	
249.07	4792.2	
249.28	3054.2	
249.49	3467.2	
249.7	5362.3	
249.91	5466	
250.12	2916.3	
250.34	2940.9	
250.55	5066.7	
250.76	4943.8	
250.97	3549.8	
251.18	3562.1	
251.39	5443.5	
251.6	5096	
251.81	3570.3	
252.03	3551.9	
252.24	4732.2	
252.45	5302.2	
252.66	3006.4	
252.87	3724.6	
253.08	4964.3	
253.29	6268.1	
253.5	3003	
253.72	4102.1	
253.93	4835.3	
254.14	5784.8	
254.35	3257.6	
254.56	3345	
254.77	5176.6	
254.98	4612	
255.19	3235.8	
255.41	4080.9	
255.62	5084.4	
255.83	5466	
256.04	3678.8	
256.25	3544.4	
256.46	5963.7	
256.67	4697.4	
256.88	3480.9	
257.09	3816.7	
257.31	4681	
257.52	4672.8	
257.73	4327.4	
257.94	3250.8	
258.15	4877.6	
258.36	4939.7	
258.57	3988.8	
258.78	2676	
258.99	5369.8	
259.2	4799.8	
259.41	3279.5	
259.63	3352.5	
259.84	5675.6	
260.05	5924.8	
260.26	4197.7	
260.47	3119.7	
260.68	5417.6	
260.89	4846.2	
261.1	3904.1	
261.31	3074.7	
261.52	5423.7	
261.73	5743.9	
261.95	4133.5	
262.16	3644	
262.37	5494.7	
262.58	5565	
262.79	4104.8	
263	3292.5	
263.21	5034.6	
263.42	4775.2	
263.63	3365.5	
263.84	3287.7	
264.05	5324	
264.26	5653.8	
264.47	4000.4	
264.69	3624.2	
264.9	5528.8	
265.11	5086.5	
265.32	3109.5	
265.53	3231.7	
265.74	5048.9	
265.95	4463.2	
266.16	3433.8	
266.37	3739.6	
266.58	5061.2	
266.79	4789.5	
267	3201	
267.21	3039.9	
267.42	4588.1	
267.63	4914.4	
267.84	3325.2	
268.06	2934.7	
268.27	5339.1	
268.48	5554.1	
268.69	3305.4	
268.9	3868.6	
269.11	5530.9	
269.32	4440	
269.53	3396.2	
269.74	3142.9	
269.95	5157.5	
270.16	4422.9	
270.37	3411.9	
270.58	3910.9	
270.79	4816.8	
271	5371.1	
271.21	3622.2	
271.42	3469.9	
271.63	5073.5	
271.84	4647.5	
272.05	2752.5	
272.26	3064.4	
272.47	4999.1	
272.68	5149.3	
272.89	3236.5	
273.11	3758	
273.32	4759.5	
273.53	5655.1	
273.74	3616	
273.95	3553.9	
274.16	5446.2	
274.37	4965	
274.58	3690.4	
274.79	2970.9	
275	5057.8	
275.21	5462.6	
275.42	4390.8	
275.63	3789.4	
275.84	5168.4	
276.05	6395.8	
276.26	3551.2	
276.47	3330.7	
276.68	4851.6	
276.89	5800.5	
277.1	3762.1	
277.31	2990.7	
277.52	5123.3	
277.73	5342.5	
277.94	2983.9	
278.15	3290.4	
278.36	5152	
278.57	4649.6	
278.78	3267.9	
278.99	3648.8	
279.2	4720.6	
279.41	4606.6	
279.62	4298.7	
279.83	3019.4	
280.04	5948	
280.25	4579.3	
280.46	4183.3	
280.67	3387.3	
280.88	4700.1	
281.09	5526.1	
281.3	3578.5	
281.51	4444.8	
281.72	4743.1	
281.93	5360.2	
282.14	3184.6	
282.35	3482.2	
282.56	5348.6	
282.77	5302.9	
282.98	3264.5	
283.19	4040	
283.4	6452.5	
283.61	4928.1	
283.82	3084.9	
284.03	4103.4	
284.24	5091.9	
284.45	5424.4	
284.66	4199.7	
284.87	3945.1	
285.08	5416.9	
285.29	5556.8	
285.5	2938.2	
285.71	3344.3	
285.92	5452.4	
286.12	6013.5	
286.33	4146.5	
286.54	3334.8	
286.75	5362.9	
286.96	4855.7	
287.17	3077.4	
287.38	4007.9	
287.59	4683.7	
287.8	4676.9	
288.01	3343.7	
288.22	3776.5	
288.43	5317.9	
288.64	4555.4	
288.85	3941	
289.06	3746.4	
289.27	5397.8	
289.48	5707	
289.69	4237.9	
289.9	3765.5	
290.11	5531.6	
290.32	4765.6	
290.53	3993.5	
290.74	3647.4	
290.94	5294.7	
291.15	5373.2	
291.36	3244.7	
291.57	3741.6	
291.78	4789.5	
291.99	4521.9	
292.2	3079.5	
292.41	3664.5	
292.62	5371.1	
292.83	5165	
293.04	4419.5	
293.25	3141.6	
293.46	4797.7	
293.67	5415.5	
293.88	3176.4	
294.09	3080.1	
294.29	4638.6	
294.5	5043.5	
294.71	3398.3	
294.92	3269.2	
295.13	4787.5	
295.34	5875.6	
295.55	2892.4	
295.76	2874.7	
295.97	5272.2	
296.18	5910.4	
296.39	2990.7	
296.6	3220.8	
296.81	4984.8	
297.01	5317.2	
297.22	3323.2	
297.43	3272.7	
297.64	4708.3	
297.85	4644.8	
298.06	2709.5	
298.27	2924.5	
298.48	4951.3	
298.69	4769	
298.9	3452.2	
299.11	3168.2	
299.31	4583.4	
299.52	4611.3	
299.73	3712.3	
299.94	3576.4	
300.15	4954.7	
300.36	4698	
300.57	3612.6	
300.78	3621.5	
300.99	4873.5	
301.2	5074.9	
301.4	3217.4	
301.61	3447.4	
301.82	5253.7	
302.03	5313.1	
302.24	3810.6	
302.45	3037.1	
302.66	5181.4	
302.87	5538.4	
303.08	3264.5	
303.29	4269.3	
303.49	4778.6	
303.7	4980.7	
303.91	2828.9	
304.12	4085.7	
304.33	4582	
304.54	5088.5	
304.75	3247.4	
304.96	3080.1	
305.16	5242.8	
305.37	5795.8	
305.58	2858.3	
305.79	2907.4	
306	5210.7	
306.21	4448.9	
306.42	3259	
306.63	4750.6	
306.83	4831.8	
307.04	5355.4	
307.25	3520.5	
307.46	3473.4	
307.67	4360.1	
307.88	5294.7	
308.09	3156.6	
308.29	3252.9	
308.5	4997	
308.71	5421	
308.92	3458.3	
309.13	3091.8	
309.34	4889.2	
309.55	4814.1	
309.75	3954.6	
309.96	3611.9	
310.17	5259.2	
310.38	4693.3	
310.59	3776.5	
310.8	3053.5	
311.01	4811.4	
311.21	4844.1	
311.42	3068.5	
311.63	3169.6	
311.84	4748.6	
312.05	5069.4	
312.26	3542.3	
312.46	3897.3	
312.67	4811.4	
312.88	4555.4	
313.09	3115.6	
313.3	3059	
313.51	5678.3	
313.71	5881.8	
313.92	3115	
314.13	3261	
314.34	5113.8	
314.55	4941.1	
314.76	3943.7	
314.96	3440.6	
315.17	5046.9	
315.38	5264.6	
315.59	3142.9	
315.8	2985.9	
316.01	5650.3	
316.21	5742.5	
316.42	3017.3	
316.63	3396.9	
316.84	4879.6	
317.05	5500.2	
317.26	3637.2	
317.46	3308.2	
317.67	4891.9	
317.88	5245.5	
318.09	3867.9	
318.3	2932.7	
318.5	4742.4	
318.71	5223	
318.92	4874.8	
319.13	3655.6	
319.34	5397.1	
319.54	5474.2	
319.75	2919.7	
319.96	2760	
320.17	5257.1	
320.38	5431.2	
320.58	2833.7	
320.79	3379.8	
321	5425.1	
321.21	5588.9	
321.42	3426.3	
321.62	2882.2	
321.83	4659.8	
322.04	4963.6	
322.25	3300	
322.46	3160	
322.66	4992.3	
322.87	5174.5	
323.08	3723.9	
323.29	3014.6	
323.5	5847	
323.7	4565.6	
323.91	4119.1	
324.12	3779.9	
324.33	5030.5	
324.53	5236.7	
324.74	3589.4	
324.95	3782.6	
325.16	4500.1	
325.37	4769.7	
325.57	3115.6	
325.78	3153.2	
325.99	5071.5	
326.2	4517.1	
326.4	4414.7	
326.61	2933.4	
326.82	4834.6	
327.03	5017.5	
327.24	4351.3	
327.44	4100	
327.65	5205.9	
327.86	4221.5	
328.07	3644.7	
328.27	3046.7	
328.48	5560.2	
328.69	4579.3	
328.9	4374.5	
329.1	3317.7	
329.31	4861.2	
329.52	5670.8	
329.73	3155.2	
329.93	3454.2	
330.14	4967	
330.35	5177.3	
330.56	5018.9	
330.76	3890.5	
330.97	4799.8	
331.18	5170.4	
331.39	3431	
331.59	2846	
331.8	5433.3	
332.01	5571.2	
332.22	3209.8	
332.42	3597.6	
332.63	5071.5	
332.84	4676.9	
333.05	3444	
333.25	3214.6	
333.46	4722.6	
333.67	4946.5	
333.88	3241.9	
334.08	3569.6	
334.29	7104.4	
334.5	5487.9	
334.7	3033	
334.91	4339	
335.12	4638	
335.33	5315.2	
335.53	3387.3	
335.74	4883.7	
335.95	4801.8	
336.16	4591.5	
336.36	3401	
336.57	3895.2	
336.78	4523.3	
336.98	5463.3	
337.19	4201.1	
337.4	3335.5	
337.61	5847	
337.81	4612.7	
338.02	3162.1	
338.23	3988.8	
338.43	5556.1	
338.64	4659.8	
338.85	3119.1	
339.05	4041.3	
339.26	5685.8	
339.47	4461.8	
339.68	3119.1	
339.88	4498	
340.09	5182	
340.3	5326.8	
340.5	3586	
340.71	2797.5	
340.92	4504.2	
341.13	5588.9	
341.33	3039.9	
341.54	3593.5	
341.75	5210.7	
341.95	4829.1	
342.16	3465.2	
342.37	3702.7	
342.57	4594.3	
342.78	4902.8	
342.99	3818.1	
343.19	2859	
343.4	5278.3	
343.61	5196.4	
343.81	3319.1	
344.02	3020.1	
344.23	5292.6	
344.43	5656.5	
344.64	3798.3	
344.85	3747.8	
345.06	5218.2	
345.26	5452.4	
345.47	3569.6	
345.68	4123.2	
345.88	4480.3	
346.09	5363.6	
346.3	3630.4	
346.5	2739.5	
346.71	4910.3	
346.92	4762.9	
347.12	2945.7	
347.33	3561.4	
347.54	5397.8	
347.74	5768.4	
347.95	3510.9	
348.16	2712.2	
348.36	4758.8	
348.57	4633.9	
348.78	3546.4	
348.98	3786.7	
349.19	4883	
349.39	4451.6	
349.6	2890.4	
349.81	3224.2	
350.01	5179.3	
350.22	4727.4	
350.43	3495.9	
350.63	4086.4	
350.84	4982.7	
351.05	4747.2	
351.25	3102.7	
351.46	2824.8	
351.67	5389.6	
351.87	4665.3	
352.08	3339.6	
352.29	3773	
352.49	5292.6	
352.7	5042.1	
352.9	3005.1	
353.11	3732.1	
353.32	5863.3	
353.52	4721.9	
353.73	3033	
353.94	3789.4	
354.14	5136.3	
354.35	4995	
354.55	3082.2	
354.76	3377.8	
354.97	5152.7	
355.17	4932.2	
355.38	2942.9	
355.59	3954.6	
355.79	4677.6	
356	4898.1	
356.2	3383.9	
356.41	2966.1	
356.62	4490.5	
356.82	4840	
357.03	3643.3	
357.24	3298.6	
357.44	4638.6	
357.65	4780	
357.85	4224.3	
358.06	3446.7	
358.27	4418.2	
358.47	4625.7	
358.68	2894.5	
358.88	3604.4	
359.09	5125.4	
359.3	5319.9	
359.5	4182.6	
359.71	3653.6	
359.91	5677.7	
360.12	5182	
360.33	3622.9	
360.53	3915	
360.74	4650.9	
360.94	4728.1	
361.15	3750.5	
361.36	3104.7	
361.56	5302.9	
361.77	4841.4	
361.97	4119.1	
362.18	3362.1	
362.38	5313.8	
362.59	4574.5	
362.8	3090.4	
363	2939.5	
363.21	4403.8	
363.41	4934.2	
363.62	3532.7	
363.83	4332.1	
364.03	4998.4	
364.24	5674.9	
364.44	4365.6	
364.65	4416.1	
364.85	4743.8	
365.06	4505.5	
365.27	3251.5	
365.47	3256.3	
365.68	5682.4	
365.88	4797.7	
366.09	3509.5	
366.29	3222.8	
366.5	4952.7	
366.71	5325.4	
366.91	4327.4	
367.12	3633.8	
367.32	5851	
367.53	5264	
367.73	3672	
367.94	4383.3	
368.14	5188.9	
368.35	5854.5	
368.56	3586	
368.76	3450.1	
368.97	5293.3	
369.17	6571.9	
369.38	3211.9	
369.58	3461.7	
369.79	4425.7	
369.99	5593	
370.2	4235.2	
370.4	3514.3	
370.61	5055.8	
370.82	5990.3	
371.02	3450.1	
371.23	2874	
371.43	4445.5	
371.64	5566.4	
371.84	3469.3	
372.05	4349.9	
372.25	6417.7	
372.46	5201.2	
372.66	3417.4	
372.87	3368.2	
373.07	5236	
373.28	6570.6	
373.48	4234.5	
373.69	3925.3	
373.9	4838	
374.1	4881.7	
374.31	4186.7	
374.51	3797.6	
374.72	5479.7	
374.92	4611.3	
375.13	4313	
375.33	3674.1	
375.54	5145.2	
375.74	4692.6	
375.95	3663.8	
376.15	4683	
376.36	5160.9	
376.56	5049.6	
376.77	3680.2	
376.97	4040.6	
377.18	6028.5	
377.38	5233.2	
377.59	4355.3	
377.79	3312.2	
378	5057.1	
378.2	5397.8	
378.41	3349.8	
378.61	3301.3	
378.82	5438.7	
379.02	4726.7	
379.23	3500	
379.43	4388.8	
379.64	5563	
379.84	5186.1	
380.05	3383.9	
380.25	3304.1	
380.46	5274.2	
380.66	4902.8	
380.87	4470.7	
381.07	4702.8	
381.28	5708.4	
381.48	5234.6	
381.69	3400.3	
381.89	3454.2	
382.1	4454.3	
382.3	5378.6	
382.51	4320.5	
382.71	5079	
382.91	5284.4	
383.12	5736.4	
383.32	3693.2	
383.53	3845.4	
383.73	5173.9	
383.94	4977.2	
384.14	3854.3	
384.35	3097.2	
384.55	4906.9	
384.76	5286.5	
384.96	3700.7	
385.17	3984	
385.37	5221	
385.58	4686.4	
385.78	3962.1	
385.98	3024.2	
386.19	4857.8	
386.39	5177.9	
386.6	3452.2	
386.8	3660.4	
387.01	5322.7	
387.21	5315.8	
387.42	4019.5	
387.62	4431.1	
387.83	4722.6	
388.03	5167	
388.23	3688.4	
388.44	4317.8	
388.64	4441.4	
388.85	4521.2	
389.05	4022.2	
389.26	4474.8	
389.46	6146.6	
389.67	5563	
389.87	3965.6	
390.07	4064.5	
390.28	4973.8	
390.48	4586.8	
390.69	3355.3	
390.89	3586.7	
391.1	4871.4	
391.3	5511.1	
391.5	4547.9	
391.71	5058.5	
391.91	5388.2	
392.12	6126.8	
392.32	4656.4	
392.53	3949.2	
392.73	4867.3	
392.93	4952.7	
393.14	3732.1	
393.34	4528.7	
393.55	5341.1	
393.75	4928.1	
393.95	3726.6	
394.16	3713	
394.36	4822.3	
394.57	5352.7	
394.77	3324.5	
394.98	3571	
395.18	4780.6	
395.38	4857.8	
395.59	4358.1	
395.79	3473.4	
396	4876.2	
396.2	5232.6	
396.4	4168.3	
396.61	4095.9	
396.81	5442.1	
397.02	4757.4	
397.22	4381.3	
397.42	4394.9	
397.63	5397.1	
397.83	4732.2	
398.04	3485.6	
398.24	3848.1	
398.44	5210	
398.65	4408.6	
398.85	3367.5	
399.05	3383.2	
399.26	4724.7	
399.46	6118.6	
399.67	3728	
399.87	3525.2	
400.07	5036.6	
400.28	5296.7	
400.48	3577.1	
400.69	4428.4	
400.89	5526.8	
401.09	5916.6	
401.3	3412.6	
401.5	4336.2	
401.7	6025.1	
401.91	6219.7	
402.11	3867.2	
402.32	3991.5	
402.52	5506.3	
402.72	5498.1	
402.93	4224.3	
403.13	3184.6	
403.33	6159.6	
403.54	5132.9	
403.74	3850.2	
403.94	4672.1	
404.15	5217.5	
404.35	6034.7	
404.56	3689.8	
404.76	5177.9	
404.96	5498.8	
405.17	5264.6	
405.37	4970.4	
405.57	4136.9	
405.78	5490.6	
405.98	5098.8	
406.18	3734.1	
406.39	4414.7	
406.59	5523.4	
406.79	5137.7	
407	3534.8	
407.2	3611.9	
407.4	5557.5	
407.61	5575.9	
407.81	3597.6	
408.01	5406.6	
408.22	4672.8	
408.42	6182.1	
408.62	4491.9	
408.83	4041.3	
409.03	5122.7	
409.23	4997.7	
409.44	4057	
409.64	4259.1	
409.84	5908.4	
410.05	5793.7	
410.25	4226.3	
410.45	4085	
410.66	5330.9	
410.86	7361.1	
411.06	4375.1	
411.27	4166.3	
411.47	7180.2	
411.67	5528.2	
411.88	4450.2	
412.08	4629.8	
412.28	6059.9	
412.49	6421.7	
412.69	4277.5	
412.89	4241.3	
413.09	6353.5	
413.3	6127.5	
413.5	4306.9	
413.7	4060.4	
413.91	5550.7	
414.11	6241.5	
414.31	4240.7	
414.52	4555.4	
414.72	6081.8	
414.92	5913.9	
415.12	4218.8	
415.33	4664.6	
415.53	6242.2	
415.73	6363	
415.94	4937	
416.14	4470.7	
416.34	5434.6	
416.55	5253	
416.75	5378.6	
416.95	4972.5	
417.15	6356.2	
417.36	6888.7	
417.56	5592.3	
417.76	4762.9	
417.97	6580.1	
418.17	6295.5	
418.37	4461.2	
418.57	4549.2	
418.78	6190.3	
418.98	5828.5	
419.18	5231.9	
419.38	5213.4	
419.59	5857.2	
419.79	5564.3	
419.99	4414.1	
420.2	4770.4	
420.4	6346	
420.6	6441.5	
420.8	4340.3	
421.01	4217.5	
421.21	6197.8	
421.41	6236.1	
421.61	4731.5	
421.82	4425	
422.02	5808.7	
422.22	6526.2	
422.42	5057.1	
422.63	4889.2	
422.83	5814.9	
423.03	6892.1	
423.23	4839.4	
423.44	4013.3	
423.64	5927.5	
423.84	5685.2	
424.04	4375.1	
424.25	4106.2	
424.45	6741.2	
424.65	6597.9	
424.85	3917.8	
425.06	4422.2	
425.26	6748.7	
425.46	5795.8	
425.66	4777.9	
425.87	4565.6	
426.07	6459.3	
426.27	6266.8	
426.47	4693.9	
426.67	4164.2	
426.88	6765.8	
427.08	6322.8	
427.28	4941.7	
427.48	4172.4	
427.69	5364.3	
427.89	5894.1	
428.09	4834.6	
428.29	4164.2	
428.5	6479.1	
428.7	6106.4	
428.9	4079.6	
429.1	4517.8	
429.3	6089.3	
429.51	6428.6	
429.71	4329.4	
429.91	4962.2	
430.11	6383.5	
430.31	6565.8	
430.52	4678.2	
430.72	4773.1	
430.92	6827.9	
431.12	6366.5	
431.32	4305.5	
431.53	4770.4	
431.73	5431.9	
431.93	6838.2	
432.13	4277.5	
432.33	4111.6	
432.54	5857.2	
432.74	6070.9	
432.94	4148.5	
433.14	4976.6	
433.34	6331.6	
433.55	5904.3	
433.75	4915.1	
433.95	6348	
434.15	6092.7	
434.35	5967.1	
434.56	4306.9	
434.76	3867.9	
434.96	6084.5	
435.16	6299.6	
435.36	4211.3	
435.56	5167	
435.77	5831.9	
435.97	5966.4	
436.17	5724.1	
436.37	5085.1	
436.57	5776.6	
436.78	5730.2	
436.98	6307.7	
437.18	5535.7	
437.38	6377.4	
437.58	5941.8	
437.78	5676.3	
437.99	4579.9	
438.19	6447	
438.39	7049.8	
438.59	4521.2	
438.79	4108.9	
438.99	7004.7	
439.2	5893.4	
439.4	4186.7	
439.6	4110.3	
439.8	6158.9	
440	7064.1	
440.2	5055.1	
440.4	5087.8	
440.61	6586.3	
440.81	7026.6	
441.01	4418.8	
441.21	5125.4	
441.41	6931.7	
441.61	6539.2	
441.81	5396.4	
442.02	6116.6	
442.22	7279.2	
442.42	6693.4	
442.62	4371	
442.82	4519.9	
443.02	6965.8	
443.22	6208.8	
443.43	4887.8	
443.63	4401.1	
443.83	6050.4	
444.03	6016.9	
444.23	5436	
444.43	5142.4	
444.63	6318	
444.83	7311.9	
445.04	4573.8	
445.24	5639.4	
445.44	6648.4	
445.64	6740.5	
445.84	5213.4	
446.04	5230.5	
446.24	6136.4	
446.44	6992.4	
446.65	4525.3	
446.85	4885.1	
447.05	6428.6	
447.25	6898.2	
447.45	4944.5	
447.65	4394.9	
447.85	6407.4	
448.05	6100.9	
448.25	5298.8	
448.46	5041.4	
448.66	6386.2	
448.86	6121.4	
449.06	4304.1	
449.26	5237.3	
449.46	6695.5	
449.66	5935.7	
449.86	4848.9	
450.06	4899.4	
450.26	6100.2	
450.47	6559.6	
450.67	5112.4	
450.87	5425.8	
451.07	6712.6	
451.27	6485.9	
451.47	4577.2	
451.67	4982.7	
451.87	6210.8	
452.07	7157.7	
452.27	4754	
452.47	4806.6	
452.67	6519.4	
452.88	6818.4	
453.08	4265.9	
453.28	5853.1	
453.48	7482.6	
453.68	6395.8	
453.88	4722.6	
454.08	4840	
454.28	6744.6	
454.48	6419.7	
454.68	5326.8	
454.88	5741.8	
455.08	6828.6	
455.28	6541.9	
455.48	4569	
455.68	5083.7	
455.89	7231.4	
456.09	6948.8	
456.29	4922.6	
456.49	4894	
456.69	7121.5	
456.89	6481.8	
457.09	5387.5	
457.29	5641.5	
457.49	6719.4	
457.69	6863.4	
457.89	5203.2	
458.09	4660.5	
458.29	6604.7	
458.49	7282.6	
458.69	5492	
458.89	5102.2	
459.09	7424.6	
459.29	7500.3	
459.49	5152	
459.69	5790.3	
459.9	7044.3	
460.1	6656.6	
460.3	5202.5	
460.5	4876.2	
460.7	7060	
460.9	6750.1	
461.1	4701.5	
461.3	5689.3	
461.5	7577.5	
461.7	7263.5	
461.9	4976.6	
462.1	5346.6	
462.3	6834.8	
462.5	7294.9	
462.7	5027.1	
462.9	5174.5	
463.1	8131.1	
463.3	7853.3	
463.5	5350	
463.7	6067.4	
463.9	7002	
464.1	7346.1	
464.3	5384.1	
464.5	5663.3	
464.7	7543.4	
464.9	7332.4	
465.1	6704.4	
465.3	5847.6	
465.5	7772.7	
465.7	7837.6	
465.9	6165.1	
466.1	6021.7	
466.3	7574.1	
466.5	7548.8	
466.7	6752.2	
466.9	5792.3	
467.1	7548.8	
467.3	8304.5	
467.5	6636.1	
467.7	5795.1	
467.9	8481.3	
468.1	9217.9	
468.3	6464.8	
468.5	6809.5	
468.7	7549.5	
468.9	7449.8	
469.1	6019	
469.3	6636.8	
469.5	9064.3	
469.7	7169.9	
469.9	6499.6	
470.1	5870.2	
470.3	7629.4	
470.5	7581.6	
470.7	6974.7	
470.9	5868.8	
471.1	7361.1	
471.3	7760.4	
471.5	5793	
471.69	7257.3	
471.89	7253.9	
472.09	6894.1	
472.29	6431.3	
472.49	6698.9	
472.69	7029.3	
472.89	7691.5	
473.09	5672.2	
473.29	5800.5	
473.49	7159	
473.69	7310.6	
473.89	6675.7	
474.09	5931.6	
474.29	8409	
474.49	8021.2	
474.69	6623.1	
474.89	5971.2	
475.09	7307.8	
475.29	7292.1	
475.49	5527.5	
475.69	5782.1	
475.88	8628.1	
476.08	7761.8	
476.28	5620.3	
476.48	5829.2	
476.68	8034.2	
476.88	7899	
477.08	5815.5	
477.28	6004	
477.48	7500.3	
477.68	8006.2	
477.88	5623.7	
478.08	5913.2	
478.28	8244.4	
478.48	7471.7	
478.67	5956.9	
478.87	5500.2	
479.07	8088.1	
479.27	7686.7	
479.47	6144.6	
479.67	6140.5	
479.87	7891.5	
480.07	8347.5	
480.27	5515.9	
480.47	6848.4	
480.67	7640.3	
480.87	8213	
481.06	5792.3	
481.26	6558.3	
481.46	7674.4	
481.66	7540.6	
481.86	6135.7	
482.06	6962.4	
482.26	7365.2	
482.46	8103.1	
482.66	6062	
482.86	5731.6	
483.05	7723.6	
483.25	7159	
483.45	8142	
483.65	6025.8	
483.85	7370.6	
484.05	7518.1	
484.25	6525.5	
484.45	6844.3	
484.65	8324.3	
484.84	8352.3	
485.04	6039.5	
485.24	6059.3	
485.44	8587.8	
485.64	7166.5	
485.84	5573.2	
486.04	6608.1	
486.24	7477.1	
486.44	7802.1	
486.63	5456.5	
486.83	6206	
487.03	7458.7	
487.23	7643.7	
487.43	5615.5	
487.63	7597.3	
487.83	7692.2	
488.02	8456.7	
488.22	6412.9	
488.42	6941.2	
488.62	8340.7	
488.82	7501	
489.02	6172.6	
489.22	6189.6	
489.41	8266.3	
489.61	8002.8	
489.81	5894.1	
490.01	5954.8	
490.21	8211.7	
490.41	8802.2	
490.61	5962.3	
490.8	6025.1	
491	7886.7	
491.2	7331.7	
491.4	6605.4	
491.6	5821	
491.8	7793.2	
491.99	7858.1	
492.19	5588.2	
492.39	5957.5	
492.59	8320.2	
492.79	8242.4	
492.99	6680.5	
493.18	5931.6	
493.38	8384.4	
493.58	8929.1	
493.78	6548.7	
493.98	6165.1	
494.18	8129.8	
494.37	7668.3	
494.57	6668.9	
494.77	6587	
494.97	8343.4	
495.17	8531.8	
495.37	6391	
495.56	6685.3	
495.76	8726.4	
495.96	8485.4	
496.16	7419.1	
496.36	6572.6	
496.55	8627.4	
496.75	8231.5	
496.95	6927.6	
497.15	6779.5	
497.35	8683.4	
497.54	8609	
497.74	6657.9	
497.94	7976.2	
498.14	9166	
498.34	8997.4	
498.53	6366.5	
498.73	7103.7	
498.93	8137.9	
499.13	8648.6	
499.33	6853.9	
499.52	7346.7	
499.72	8678.6	
499.92	8839	
500.12	6661.4	
500.32	6830.7	
500.51	8877.3	
500.71	8667.7	
500.91	7521.5	
501.11	7154.9	
501.31	8845.9	
501.5	9233.6	
501.7	7867.6	
501.9	7004.7	
502.1	8612.4	
502.29	9003.6	
502.49	7339.9	
502.69	7694.9	
502.89	8850.6	
503.09	8793.3	
503.28	6464.1	
503.48	6591.7	
503.68	8283.4	
503.88	8266.3	
504.07	7393.2	
504.27	6973.3	
504.47	8573.5	
504.67	8606.2	
504.86	7355.6	
505.06	7079.8	
505.26	8299.7	
505.46	9755.2	
505.65	7056.6	
505.85	7147.4	
506.05	8208.3	
506.25	8598.1	
506.44	6427.9	
506.64	7236.2	
506.84	8221.2	
507.04	8847.9	
507.23	6644.3	
507.43	7037.5	
507.63	9777.7	
507.83	8320.9	
508.02	7108.5	
508.22	6705	
508.42	10015	
508.62	8192.6	
508.81	6948.1	
509.01	7440.3	
509.21	8045.8	
509.4	8381.7	
509.6	7189.1	
509.8	6627.2	
510	8283.4	
510.19	9374.2	
510.39	6705.7	
510.59	6737.1	
510.79	8129.1	
510.98	9239.8	
511.18	6885.3	
511.38	6866.2	
511.57	8911.4	
511.77	8603.5	
511.97	7311.2	
512.17	6735.8	
512.36	8862.9	
512.56	8744.1	
512.76	6631.3	
512.95	6371.9	
513.15	8934.6	
513.35	7793.2	
513.55	7367.9	
513.74	6650.4	
513.94	8839.7	
514.14	8236.2	
514.33	7449.1	
514.53	7311.2	
514.73	8383.7	
514.92	8503.2	
515.12	6821.8	
515.32	6597.9	
515.51	8497	
515.71	9046.6	
515.91	7881.3	
516.11	6611.5	
516.3	9983.2	
516.5	8306.6	
516.7	7283.3	
516.89	7688.1	
517.09	8466.3	
517.29	8376.2	
517.48	7428	
517.68	7028.6	
517.88	8214.4	
518.07	8766.7	
518.27	7484.6	
518.47	6639.5	
518.66	9201.5	
518.86	8024.6	
519.06	6467.5	
519.25	6834.8	
519.45	8286.1	
519.65	9565.4	
519.84	7451.2	
520.04	7958.4	
520.24	10000	
520.43	8974.2	
520.63	7198.6	
520.83	6975.4	
521.02	8275.2	
521.22	8751.7	
521.42	7355.6	
521.61	7813	
521.81	8435.6	
522.01	8631.5	
522.2	7277.1	
522.4	7065.5	
522.6	9012.4	
522.79	7978.9	
522.99	7112.6	
523.18	6557.6	
523.38	8770.8	
523.58	8835.6	
523.77	8239	
523.97	6642.9	
524.17	10374	
524.36	9744.9	
524.56	7978.9	
524.76	7460.8	
524.95	8948.3	
525.15	8591.2	
525.34	7380.9	
525.54	7385.7	
525.74	9391.3	
525.93	8430.1	
526.13	8441.7	
526.33	7425.9	
526.52	9542.9	
526.72	9160.6	
526.91	8534.6	
527.11	7897	
527.31	9584.5	
527.5	10034	
527.7	7899.7	
527.89	7033.4	
528.09	8783.7	
528.29	9339.4	
528.48	8184.4	
528.68	7871.7	
528.87	9568.8	
529.07	9646.6	
529.27	7851.9	
529.46	7460.8	
529.66	9422	
529.85	9736	
530.05	7377.5	
530.25	8142	
530.44	10612	
530.64	9226.8	
530.83	7795.3	
531.03	8010.3	
531.23	9738.1	
531.42	9561.3	
531.62	8518.2	
531.81	7909.3	
532.01	9853.5	
532.21	10236	
532.4	7778.9	
532.6	8187.8	
532.79	10688	
532.99	10002	
533.18	8146.1	
533.38	9086.8	
533.58	9706	
533.77	10277	
533.97	8215.8	
534.16	8876.6	
534.36	10512	
534.55	9723.1	
534.75	9051.3	
534.95	8303.8	
535.14	10531	
535.34	9843.9	
535.53	8012.3	
535.73	9652.8	
535.92	11010	
536.12	9815.2	
536.31	8189.1	
536.51	9161.9	
536.71	10062	
536.9	9832.3	
537.1	8218.5	
537.29	8490.2	
537.49	10531	
537.68	9744.2	
537.88	8739.4	
538.07	8016.4	
538.27	9991.4	
538.46	10847	
538.66	8021.9	
538.86	8395.3	
539.05	10120	
539.25	10271	
539.44	8686.1	
539.64	8365.3	
539.83	9777	
540.03	10706	
540.22	8197.3	
540.42	8170	
540.61	10139	
540.81	10209	
541	8683.4	
541.2	9153.7	
541.39	9613.2	
541.59	10067	
541.78	8935.3	
541.98	8153.6	
542.18	9437.7	
542.37	9426.8	
542.57	8515.5	
542.76	9015.8	
542.96	9493.7	
543.15	10133	
543.35	8598.7	
543.54	8026.7	
543.74	10273	
543.93	9979.1	
544.13	8366	
544.32	9300.5	
544.52	10165	
544.71	9535.3	
544.91	7663.5	
545.1	8619.2	
545.3	9600.9	
545.49	10102	
545.69	7754.3	
545.88	8119.5	
546.08	10912	
546.27	10431	
546.47	8533.2	
546.66	7987.8	
546.86	10278	
547.05	10768	
547.24	8097	
547.44	8132.5	
547.63	9428.2	
547.83	10411	
548.02	8471.8	
548.22	8583	
548.41	9377.6	
548.61	10466	
548.8	7963.2	
549	7998.7	
549.19	9902.6	
549.39	10105	
549.58	7759.8	
549.78	8290.2	
549.97	10094	
550.17	9697.8	
550.36	8920.3	
550.55	9751.1	
550.75	9651.4	
550.94	10443	
551.14	7983	
551.33	8258.1	
551.53	9118.2	
551.72	9904.7	
551.92	8245.1	
552.11	8030.8	
552.31	10051	
552.5	10010	
552.69	9411.1	
552.89	7723.6	
553.08	9966.8	
553.28	9768.1	
553.47	8088.1	
553.67	8930.5	
553.86	10487	
554.06	9038.4	
554.25	7336.5	
554.44	7791.2	
554.64	11146	
554.83	10631	
555.03	7845.1	
555.22	8219.9	
555.42	10112	
555.61	9820	
555.8	7921.5	
556	8181	
556.19	9154.4	
556.39	10252	
556.58	7902.4	
556.78	8003.5	
556.97	9805.7	
557.16	9616.6	
557.36	9044.5	
557.55	7696.3	
557.75	8987.2	
557.94	10424	
558.13	7836.2	
558.33	7658.7	
558.52	10191	
558.72	9250	
558.91	7758.4	
559.1	7860.8	
559.3	9022	
559.49	8745.5	
559.69	7334.5	
559.88	8157.1	
560.07	9699.2	
560.27	10163	
560.46	8366.6	
560.66	8443.1	
560.85	9555.1	
561.04	8780.3	
561.24	7607.5	
561.43	7708.6	
561.63	9001.5	
561.82	9235.7	
562.01	8765.3	
562.21	7935.9	
562.4	9591.3	
562.59	10324	
562.79	7990.5	
562.98	7690.1	
563.18	9628.9	
563.37	10791	
563.56	8333.2	
563.76	7729.7	
563.95	9239.1	
564.14	9144.9	
564.34	7950.2	
564.53	7733.1	
564.73	9613.2	
564.92	9826.8	
565.11	8039	
565.31	7518.1	
565.5	10088	
565.69	9156.5	
565.89	7793.2	
566.08	8097.7	
566.27	9972.9	
566.47	10404	
566.66	8581.7	
566.85	7543.4	
567.05	9678.7	
567.24	9281.4	
567.44	7720.2	
567.63	8855.4	
567.82	9876	
568.02	9605.7	
568.21	7694.9	
568.4	8046.5	
568.6	9480.7	
568.79	9534	
568.98	7698.3	
569.18	7742.7	
569.37	9540.8	
569.56	11243	
569.76	8091.5	
569.95	8866.3	
570.14	9933.3	
570.34	9822.7	
570.53	7787.7	
570.72	7663.5	
570.91	10327	
571.11	9500.5	
571.3	8121.6	
571.49	8886.8	
571.69	9595.4	
571.88	9224.1	
572.07	8486.1	
572.27	8531.2	
572.46	9170.8	
572.65	10122	
572.85	7868.3	
573.04	8215.8	
573.23	10337	
573.43	9605.7	
573.62	7700.4	
573.81	8296.3	
574	9680.7	
574.2	9519	
574.39	8058.8	
574.58	8161.2	
574.78	10514	
574.97	9873.9	
575.16	8553.7	
575.36	8649.9	
575.55	10264	
575.74	10279	
575.93	7776.8	
576.13	8681.3	
576.32	9697.1	
576.51	10173	
576.71	8297	
576.9	9256.1	
577.09	10538	
577.28	10004	
577.48	8420.6	
577.67	7753.6	
577.86	9739.5	
578.05	10026	
578.25	8389.8	
578.44	8341.4	
578.63	9723.1	
578.83	10845	
579.02	7892.2	
579.21	9049.3	
579.4	9985.2	
579.6	9836.4	
579.79	8464.3	
579.98	10206	
580.17	10329	
580.37	10339	
580.56	8011	
580.75	8519.5	
580.94	10632	
581.14	10593	
581.33	8965.3	
581.52	8159.1	
581.71	10109	
581.91	10802	
582.1	7856	
582.29	8300.4	
582.48	9879.4	
582.68	9882.1	
582.87	8673.8	
583.06	8516.1	
583.25	10219	
583.45	9612.5	
583.64	9047.2	
583.83	9601.6	
584.02	9784.5	
584.21	10057	
584.41	8967.4	
584.6	8348.9	
584.79	9924.5	
584.98	10417	
585.18	7946.1	
585.37	8002.1	
585.56	9543.5	
585.75	10213	
585.94	8062.9	
586.14	8710	
586.33	10670	
586.52	9868.5	
586.71	8494.3	
586.91	8342.1	
587.1	9367.4	
587.29	10185	
587.48	8183	
587.67	8078.6	
587.87	10101	
588.06	10018	
588.25	9179.7	
588.44	8553.7	
588.63	9762	
588.83	10251	
589.02	8206.2	
589.21	8037.6	
589.4	9522.4	
589.59	9506	
589.78	7316.7	
589.98	7531.7	
590.17	8974.2	
590.36	9401.5	
590.55	6976.1	
590.74	7675.1	
590.94	10381	
591.13	9179	
591.32	7458.7	
591.51	7030.7	
591.7	9649.3	
591.89	9241.1	
592.09	7162.4	
592.28	7531.1	
592.47	8586.5	
592.66	10240	
592.85	7193.8	
593.05	7492.2	
593.24	9144.2	
593.43	9751.7	
593.62	7450.5	
593.81	7834.2	
594	9312.8	
594.19	9329.2	
594.39	7369.3	
594.58	7256.6	
594.77	9509.4	
594.96	9837.1	
595.15	7249.1	
595.34	7712	
595.54	9341.5	
595.73	8699.8	
595.92	6661.4	
596.11	7697.6	
596.3	9753.1	
596.49	8710	
596.68	7402	
596.88	7761.1	
597.07	9577.7	
597.26	8611.7	
597.45	7077.8	
597.64	8142.7	
597.83	8782.4	
598.02	9276.6	
598.22	7124.9	
598.41	7789.1	
598.6	9131.9	
598.79	8716.2	
598.98	7161.1	
599.17	7978.2	
599.36	9187.2	
599.55	10083	
599.74	8897.1	
599.94	8639	
600.13	9634.3	
600.32	8563.2	
600.51	6894.1	
600.7	7088.7	
600.89	10121	
601.08	10164	
601.27	6896.2	
601.47	7659.4	
601.66	9529.9	
601.85	9985.2	
602.04	7396.6	
602.23	7592.5	
602.42	8680.7	
602.61	9140.8	
602.8	7298.3	
602.99	7168.6	
603.18	8923	
603.37	9084.8	
603.57	7606.8	
603.76	8120.2	
603.95	9805	
604.14	9391.3	
604.33	7223.2	
604.52	7438.2	
604.71	9127.8	
604.9	8862.9	
605.09	7956.4	
605.28	7880.6	
605.47	9689.6	
605.66	9254.8	
605.86	7611.6	
606.05	7154.2	
606.24	9654.8	
606.43	8409.6	
606.62	7462.1	
606.81	8109.3	
607	9493.7	
607.19	8903.9	
607.38	7020.4	
607.57	7199.3	
607.76	8669.7	
607.95	8226	
608.14	7496.2	
608.33	7980.9	
608.52	8747.6	
608.72	9448.6	
608.91	6823.1	
609.1	6860	
609.29	8763.9	
609.48	8331.8	
609.67	7600.7	
609.86	6840.2	
610.05	8473.1	
610.24	8711.4	
610.43	6799.9	
610.62	6434.7	
610.81	9704.6	
611	9391.3	
611.19	6842.9	
611.38	7466.2	
611.57	8868.4	
611.76	10088	
611.95	6715.3	
612.14	6616.3	
612.33	8865	
612.52	8306.6	
612.71	7103.7	
612.9	6500.9	
613.09	8026.7	
613.28	9995.5	
613.47	7031.4	
613.66	7706.5	
613.85	8905.9	
614.04	8434.9	
614.24	6967.9	
614.43	6238.8	
614.62	8868.4	
614.81	8877.3	
615	7317.4	
615.19	7421.8	
615.38	8347.5	
615.57	8700.5	
615.76	7275.1	
615.95	8142.7	
616.14	9081.4	
616.33	8730.5	
616.52	7610.3	
616.71	7708.6	
616.9	8925.7	
617.09	8766.7	
617.28	7048.4	
617.47	8016.4	
617.66	8200.7	
617.85	8327.7	
618.04	7824.6	
618.22	7327.6	
618.41	8452.6	
618.6	9328.5	
618.79	7353.6	
618.98	7080.5	
619.17	9555.8	
619.36	8088.8	
619.55	7197.2	
619.74	7247.8	
619.93	8971.5	
620.12	8497.7	
620.31	7780.9	
620.5	7825.3	
620.69	9483.5	
620.88	9756.5	
621.07	8361.2	
621.26	7572	
621.45	9158.5	
621.64	9224.1	
621.83	7690.8	
622.02	7015	
622.21	9213.1	
622.4	9045.2	
622.59	8149.6	
622.78	7994.6	
622.97	8727.1	
623.16	9564.7	
623.35	7652.6	
623.54	6900.3	
623.72	8886.1	
623.91	8973.5	
624.1	7956.4	
624.29	6813.6	
624.48	9888.3	
624.67	9186.5	
624.86	7815.7	
625.05	7025.9	
625.24	10001	
625.43	8645.8	
625.62	9209	
625.81	7240.3	
626	9535.3	
626.19	8925	
626.38	7867.6	
626.56	7434.1	
626.75	8757.1	
626.94	9423.4	
627.13	7902.4	
627.32	6859.3	
627.51	9328.5	
627.7	10304	
627.89	6821.8	
628.08	7893.6	
628.27	8549.6	
628.46	8897.1	
628.65	7181.5	
628.83	6907.1	
629.02	9248.6	
629.21	8689.5	
629.4	7619.1	
629.59	7705.8	
629.78	8676.6	
629.97	9417.9	
630.16	7626.6	
630.35	7253.9	
630.54	9900.6	
630.72	9604.3	
630.91	7298.3	
631.1	7745.4	
631.29	9123.7	
631.48	9221.3	
631.67	7879.2	
631.86	7383.6	
632.05	8831.5	
632.24	8865.7	
632.42	7086	
632.61	7613.7	
632.8	8942.1	
632.99	8609	
633.18	7649.8	
633.37	7906.5	
633.56	9142.8	
633.75	9016.5	
633.93	7561.8	
634.12	7429.3	
634.31	9835.7	
634.5	9499.8	
634.69	7391.8	
634.88	7795.9	
635.07	8991.3	
635.25	9416.6	
635.44	8230.8	
635.63	8295.6	
635.82	8734.6	
636.01	8430.8	
636.2	8133.2	
636.39	7762.5	
636.57	9791.3	
636.76	9403.6	
636.95	7266.9	
637.14	8298.4	
637.33	9229.5	
637.52	9917.6	
637.7	6978.8	
637.89	7817.1	
638.08	8803.5	
638.27	10000	
638.46	7978.9	
638.65	8243.1	
638.83	9930.6	
639.02	8705.9	
639.21	7694.9	
639.4	8197.3	
639.59	8993.3	
639.78	8693.6	
639.96	7051.8	
640.15	7135.8	
640.34	8921.6	
640.53	8981.7	
640.72	6886.6	
640.91	7157.7	
641.09	8401.5	
641.28	9539.4	
641.47	7150.8	
641.66	7834.2	
641.85	8997.4	
642.03	9194.7	
642.22	7539.9	
642.41	7169.3	
642.6	8507.3	
642.79	7906.5	
642.97	7065.5	
643.16	7585	
643.35	8413.7	
643.54	8247.9	
643.73	6980.8	
643.91	7587.7	
644.1	8150.2	
644.29	8662.9	
644.48	6954.2	
644.67	6991.1	
644.85	8275.2	
645.04	8583.7	
645.23	6682.5	
645.42	6775.4	
645.6	8181.6	
645.79	9024	
645.98	6806.1	
646.17	5993	
646.36	7920.2	
646.54	8322.3	
646.73	7466.9	
646.92	6457.2	
647.11	8032.1	
647.29	8910	
647.48	6485.2	
647.67	6297.5	
647.86	9013.1	
648.05	9043.1	
648.23	6707.8	
648.42	7780.2	
648.61	8495.7	
648.8	8286.8	
648.98	6388.3	
649.17	6626.5	
649.36	8003.5	
649.55	7533.8	
649.73	6464.1	
649.92	7086.7	
650.11	7841	
650.3	8148.2	
650.48	6608.8	
650.67	6404	
650.86	8305.2	
651.05	7363.8	
651.23	6405.4	
651.42	6419	
651.61	7975.5	
651.79	7958.4	
651.98	6625.9	
652.17	6353.5	
652.36	8320.2	
652.54	7483.3	
652.73	6318.7	
652.92	6191.7	
653.11	8299.7	
653.29	8346.8	
653.48	5793.7	
653.67	6578.8	
653.85	7962.5	
654.04	8964	
654.23	6729.6	
654.42	6273.6	
654.6	7628	
654.79	8092.2	
654.98	5958.2	
655.16	6304.3	
655.35	7189.7	
655.54	7061.4	
655.73	5827.8	
655.91	5795.8	
656.1	8023.9	
656.29	7047.7	
656.47	5496.7	
656.66	6888	
656.85	7345.4	
657.03	7391.8	
657.22	6004	
657.41	6029.9	
657.59	7428	
657.78	7318.8	
657.97	5667.4	
658.16	6316.6	
658.34	7999.4	
658.53	8421.2	
658.72	7063.4	
658.9	7467.6	
659.09	7641.7	
659.28	7643.7	
659.46	6171.9	
659.65	5941.8	
659.84	7379.5	
660.02	7881.9	
660.21	5947.3	
660.4	5911.1	
660.58	8127	
660.77	7621.9	
660.96	6474.3	
661.14	5593.7	
661.33	8579.6	
661.52	8518.9	
661.7	5638.1	
661.89	8501.8	
662.08	7354.9	
662.26	6890	
662.45	5879.7	
662.64	5936.4	
662.82	7857.4	
663.01	7180.9	
663.2	5921.4	
663.38	6532.3	
663.57	7780.2	
663.75	7658	
663.94	6220.4	
664.13	7204.8	
664.31	7264.8	
664.5	7767.3	
664.69	6479.1	
664.87	6745.3	
665.06	7116.7	
665.25	7633.5	
665.43	7039.6	
665.62	7038.2	
665.8	7934.5	
665.99	7370	
666.18	6152.1	
666.36	6264.7	
666.55	7946.1	
666.74	7728.4	
666.92	5813.5	
667.11	7178.1	
667.29	7436.9	
667.48	7798.7	
667.67	6857.3	
667.85	6024.4	
668.04	7357.7	
668.22	7325.6	
668.41	6199.2	
668.6	6347.3	
668.78	7208.2	
668.97	7438.9	
669.15	6477	
669.34	5604.6	
669.53	7172.7	
669.71	7469.6	
669.9	5771.2	
670.08	6304.3	
670.27	7120.8	
670.46	7670.3	
670.64	6477.7	
670.83	6701	
671.01	7047.7	
671.2	7595.2	
671.38	5842.9	
671.57	5662.6	
671.76	8134.5	
671.94	8498.4	
672.13	5656.5	
672.31	6494.1	
672.5	7780.2	
672.69	7081.9	
672.87	5763	
673.06	6070.9	
673.24	7640.3	
673.43	7221.1	
673.61	6384.9	
673.8	6061.3	
673.98	7780.9	
674.17	7885.4	
674.36	6523.5	
674.54	6308.4	
674.73	7511.9	
674.91	7757	
675.1	6154.8	
675.28	5871.5	
675.47	7361.8	
675.65	7841.7	
675.84	6083.1	
676.03	6240.8	
676.21	7205.4	
676.4	6759	
676.58	6654.5	
676.77	6494.1	
676.95	8401.5	
677.14	7111.9	
677.32	5758.9	
677.51	5588.9	
677.69	7783.6	
677.88	6874.3	
678.06	5676.3	
678.25	5786.9	
678.44	7385	
678.62	7145.4	
678.81	5522.7	
678.99	6285.2	
679.18	8049.2	
679.36	7684	
679.55	6021	
679.73	6599.2	
679.92	7686	
680.1	7229.3	
680.29	6918.7	
680.47	6025.8	
680.66	7169.9	
680.84	7904.5	
681.03	5504.9	
681.21	6407.4	
681.4	7137.2	
681.58	7070.3	
681.77	5893.4	
681.95	5711.1	
682.14	7874.4	
682.32	8198.7	
682.51	6560.3	
682.69	5575.3	
682.88	7084.6	
683.06	7528.3	
683.25	6283.2	
683.43	6638.1	
683.62	7400.7	
683.8	7750.2	
683.99	6810.9	
684.17	6218.3	
684.36	8406.2	
684.54	7341.3	
684.73	5561.6	
684.91	5666	
685.1	7547.4	
685.28	7045.7	
685.46	6124.1	
685.65	6099.5	
685.83	7576.8	
686.02	7111.2	
686.2	5583.4	
686.39	5765	
686.57	6892.1	
686.76	8224.6	
686.94	5792.3	
687.13	5882.4	
687.31	7557.7	
687.5	7171.3	
687.68	5424.4	
687.86	6399.2	
688.05	8722.3	
688.23	6820.4	
688.42	6436.8	
688.6	5859.2	
688.79	7178.1	
688.97	7140.6	
689.16	6287.3	
689.34	5317.9	
689.52	7819.8	
689.71	8047.2	
689.89	6439.5	
690.08	5891.3	
690.26	7506.5	
690.45	7369.3	
690.63	6666.1	
690.81	6079.7	
691	7258.7	
691.18	7162.4	
691.37	6188.3	
691.55	7901.1	
691.74	7199.3	
691.92	8875.2	
692.1	6118	
692.29	5800.5	
692.47	7381.6	
692.66	6797.9	
692.84	5915.9	
693.02	6299.6	
693.21	6929	
693.39	7388.4	
693.58	6498.9	
693.76	5950.7	
693.94	8365.3	
694.13	8228.7	
694.31	6034.7	
694.5	6878.4	
694.68	7275.8	
694.86	7584.3	
695.05	6295.5	
695.23	6455.9	
695.42	7930.4	
695.6	9794.8	
695.78	6941.9	
695.97	6146.6	
696.15	8058.8	
696.34	7461.4	
696.52	6055.2	
696.7	6681.8	
696.89	7848.5	
697.07	7359.7	
697.25	6627.9	
697.44	7831.4	
697.62	7929.7	
697.81	8064.9	
697.99	6336.4	
698.17	6761	
698.36	7302.4	
698.54	7802.1	
698.72	6636.1	
698.91	5857.9	
699.09	7499.7	
699.28	7376.8	
699.46	6427.2	
699.64	6229.2	
699.83	7392.5	
700.01	8331.8	
700.19	6947.4	
700.38	5717.2	
700.56	8381	
700.74	7486.7	
700.93	6032	
701.11	6662.7	
701.29	7993.2	
701.48	8874.5	
701.66	6280.4	
701.84	6257.2	
702.03	7727	
702.21	8194.6	
702.39	5971.9	
702.58	6519.4	
702.76	8069	
702.94	8069.7	
703.13	5875.6	
703.31	7931.8	
703.49	7506.5	
703.68	8346.2	
703.86	6077.7	
704.04	7012.9	
704.23	7907.2	
704.41	8137.3	
704.59	6293.4	
704.78	7329.7	
704.96	8943.5	
705.14	8290.2	
705.33	6255.2	
705.51	6797.2	
705.69	7717.4	
705.87	8555	
706.06	7068.2	
706.24	6130.3	
706.42	8049.2	
706.61	8238.3	
706.79	7129	
706.97	6177.4	
707.16	7649.2	
707.34	8052.6	
707.52	7090.8	
707.7	6380.8	
707.89	7755.7	
708.07	7434.1	
708.25	7027.9	
708.44	7161.7	
708.62	7717.4	
708.8	8696.4	
708.98	7352.9	
709.17	6513.2	
709.35	8037.6	
709.53	8086.1	
709.72	6273.6	
709.9	6537.1	
710.08	8255.4	
710.26	8316.1	
710.45	7543.4	
710.63	6451.1	
710.81	7989.8	
710.99	7977.5	
711.18	7030.7	
711.36	6583.5	
711.54	7852.6	
711.72	8525	
711.91	6642.9	
712.09	6157.6	
712.27	8008.9	
712.45	8677.2	
712.64	6886.6	
712.82	6008.7	
713	7424.6	
713.18	7622.5	
713.37	6113.2	
713.55	6984.9	
713.73	8348.2	
713.91	7035.5	
714.1	6290.7	
714.28	5756.8	
714.46	7823.9	
714.64	7168.6	
714.83	5154.1	
715.01	5885.9	
715.19	7150.1	
715.37	6475	
715.55	5442.8	
715.74	5786.9	
715.92	7742	
716.1	6071.5	
716.28	6660.7	
716.47	5858.6	
716.65	6668.9	
716.83	6724.2	
717.01	5801.9	
717.19	5689.9	
717.38	8451.3	
717.56	6472.9	
717.74	5918.6	
717.92	5223	
718.1	7581.6	
718.29	6814.3	
718.47	4958.1	
718.65	5556.8	
718.83	7606.2	
719.01	7559.1	
719.2	5023.7	
719.38	6044.9	
719.56	7378.8	
719.74	8664.3	
719.92	5653.1	
720.11	6467.5	
720.29	7402	
720.47	6685.3	
720.65	5175.9	
720.83	5878.4	
721.02	6881.2	
721.2	6670.9	
721.38	5914.5	
721.56	5214.8	
721.74	6177.4	
721.92	6326.2	
722.11	6249	
722.29	5996.5	
722.47	7330.4	
722.65	6647	
722.83	5200.5	
723.01	5933	
723.2	6713.9	
723.38	6972.7	
723.56	4784.7	
723.74	5709.1	
723.92	6315.3	
724.1	7281.2	
724.29	5198.4	
724.47	6146.6	
724.65	6465.4	
724.83	6266.1	
725.01	5096.7	
725.19	5818.3	
725.37	6361	
725.56	6339.1	
725.74	4973.8	
725.92	5179.3	
726.1	6371.9	
726.28	6584.9	
726.46	5438.7	
726.64	5173.2	
726.83	6571.9	
727.01	6794.5	
727.19	4959.5	
727.37	5646.9	
727.55	6701.6	
727.73	7114.6	
727.91	4920.6	
728.09	4739.7	
728.28	7119.4	
728.46	7449.8	
728.64	5743.9	
728.82	5669.5	
729	8060.8	
729.18	7434.8	
729.36	4992.9	
729.54	6976.7	
729.72	8317.5	
729.91	6871.6	
730.09	6670.9	
730.27	5671.5	
730.45	6766.5	
730.63	7389.1	
730.81	6173.3	
730.99	5446.2	
731.17	7883.3	
731.35	6642.9	
731.53	5842.2	
731.71	5537.7	
731.9	7642.3	
732.08	7666.9	
732.26	5724.1	
732.44	5498.1	
732.62	7733.1	
732.8	7357	
732.98	6038.8	
733.16	5244.8	
733.34	7294.2	
733.52	6131.6	
733.7	5625.8	
733.88	5828.5	
734.07	7055.3	
734.25	6952.9	
734.43	5258.5	
734.61	6561.7	
734.79	8185	
734.97	6802	
735.15	5314.5	
735.33	5597.8	
735.51	7101.7	
735.69	6771.3	
735.87	6497.5	
736.05	5766.4	
736.23	6864.1	
736.41	6729.6	
736.59	5579.3	
736.77	5614.8	
736.95	7424.6	
737.13	6862.1	
737.32	5291.3	
737.5	5493.3	
737.68	7801.4	
737.86	6649.1	
738.04	5058.5	
738.22	6655.2	
738.4	6529.6	
738.58	6803.4	
738.76	5586.2	
738.94	4717.8	
739.12	6660.7	
739.3	6536.4	
739.48	6119.3	
739.66	5865.4	
739.84	6888.7	
740.02	6886	
740.2	4768.4	
740.38	5132.9	
740.56	7147.4	
740.74	6137.8	
740.92	5732.3	
741.1	5541.8	
741.28	6647	
741.46	6446.3	
741.64	5225.1	
741.82	5709.7	
742	6664.8	
742.18	6649.8	
742.36	5433.9	
742.54	5059.8	
742.72	7091.4	
742.9	5980.1	
743.08	5727.5	
743.26	4651.6	
743.44	7337.2	
743.62	7124.2	
743.8	5872.9	
743.98	4982	
744.16	6857.3	
744.34	6575.3	
744.52	5764.3	
744.7	5607.3	
744.88	6955.6	
745.06	6441.5	
745.24	5734.3	
745.42	5790.3	
745.6	7013.6	
745.78	6775.4	
745.96	4618.2	
746.14	5008	
746.32	7574.1	
746.5	6901.7	
746.68	5388.9	
746.86	4956.8	
747.03	7260	
747.21	5839.4	
747.39	5397.1	
747.57	4939	
747.75	6592.4	
747.93	6949.4	
748.11	4891.2	
748.29	4891.9	
748.47	7958.4	
748.65	6311.2	
748.83	5506.3	
749.01	5270.1	
749.19	6733.7	
749.37	5964.4	
749.55	5116.5	
749.73	5199.8	
749.91	6446.3	
750.09	6279.1	
750.26	5180	
750.44	4738.3	
750.62	6487.3	
750.8	6456.6	
750.98	4577.9	
751.16	4899.4	
751.34	6524.1	
751.52	5940.5	
751.7	5603.9	
751.88	4534.9	
752.06	6877.1	
752.24	6575.3	
752.42	4519.2	
752.59	4801.8	
752.77	6395.8	
752.95	7423.9	
753.13	5434.6	
753.31	4937	
753.49	6072.9	
753.67	6413.6	
753.85	5152	
754.03	4742.4	
754.21	6692.8	
754.38	6942.6	
754.56	4842.8	
754.74	4111	
754.92	5910.4	
755.1	6494.1	
755.28	3999.7	
755.46	3990.8	
755.64	7044.3	
755.82	7115.3	
755.99	4124.6	
756.17	4152.6	
756.35	4881.7	
756.53	6119.3	
756.71	3136.8	
756.89	4003.8	
757.07	5748	
757.25	5059.2	
757.42	4421.6	
757.6	5157.5	
757.78	5932.3	
757.96	5087.8	
758.14	4291.2	
758.32	3843.4	
758.5	4686.4	
758.67	5414.1	
758.85	4058.4	
759.03	4160.1	
759.21	5574.6	
759.39	5133.6	
759.57	3651.5	
759.75	4645.5	
759.92	6235.4	
760.1	5584.1	
760.28	5035.3	
760.46	5218.9	
760.64	5359.5	
760.82	5119.2	
760.99	4984.8	
761.17	4205.2	
761.35	6057.9	
761.53	5151.3	
761.71	4298.7	
761.89	4924	
762.06	5977.3	
762.24	5550.7	
762.42	4379.2	
762.6	4272.7	
762.78	5586.9	
762.96	6131.6	
763.13	4762.2	
763.31	4443.4	
763.49	6291.4	
763.67	5496.7	
763.85	5177.9	
764.02	5640.1	
764.2	6548.7	
764.38	5798.5	
764.56	4362.9	
764.74	5137	
764.91	6601.3	
765.09	5676.3	
765.27	4169.7	
765.45	3992.2	
765.63	6640.2	
765.8	6452.5	
765.98	3709.6	
766.16	3927.3	
766.34	5233.9	
766.52	5074.9	
766.69	4760.8	
766.87	3840.6	
767.05	5538.4	
767.23	6182.8	
767.41	4128.7	
767.58	4276.2	
767.76	6055.2	
767.94	6053.8	
768.12	4132.8	
768.29	4644.1	
768.47	5580.7	
768.65	6202.6	
768.83	3810.6	
769	4762.2	
769.18	5247.6	
769.36	5838.8	
769.54	4747.2	
769.72	3781.2	
769.89	6107.7	
770.07	6154.1	
770.25	4100	
770.43	5157.5	
770.6	6714.6	
770.78	7021.8	
770.96	4214	
771.14	4776.5	
771.31	5933	
771.49	5386.8	
771.67	3495.9	
771.85	3659	
772.02	4688.5	
772.2	5371.8	
772.38	4345.1	
772.55	3874.1	
772.73	5611.4	
772.91	5412.1	
773.09	4191.5	
773.26	4326	
773.44	5601.9	
773.62	5240.1	
773.8	3753.9	
773.97	3590.1	
774.15	5622.4	
774.33	5238.7	
774.5	3724.6	
774.68	4038.6	
774.86	5758.2	
775.04	5302.9	
775.21	3800.3	
775.39	3677.5	
775.57	5458.5	
775.74	5835.3	
775.92	3562.8	
776.1	3479.5	
776.27	5481.7	
776.45	6511.9	
776.63	3748.5	
776.81	3282.9	
776.98	5176.6	
777.16	5994.4	
777.34	3805.8	
777.51	4128.7	
777.69	5126.1	
777.87	4958.8	
778.04	3842.7	
778.22	4374.5	
778.4	4986.8	
778.57	5540.4	
778.75	3235.8	
778.93	3474	
779.1	4779.3	
779.28	4681.7	
779.46	3241.3	
779.64	3622.9	
779.81	5629.2	
779.99	6390.3	
780.17	4331.5	
780.34	4455	
780.52	5176.6	
780.69	5335	
780.87	3963.5	
781.05	3538.9	
781.22	5259.9	
781.4	5285.1	
781.58	3639.9	
781.75	2957.3	
781.93	5317.2	
782.11	4725.3	
782.28	4455.7	
782.46	3689.1	
782.64	4585.4	
782.81	5356.1	
782.99	3726.6	
783.17	3690.4	
783.34	5260.5	
783.52	4685.8	
783.69	3839.9	
783.87	4562.2	
784.05	4671.4	
784.22	4632.5	
784.4	4484.4	
784.58	3930.7	
784.75	5528.2	
784.93	4782	
785.1	3638.6	
785.28	4135.5	
785.46	5293.3	
785.63	4713.7	
785.81	3620.8	
785.99	3505.4	
786.16	4902.8	
786.34	5143.1	
786.51	3519.1	
786.69	3837.9	
786.87	4465.9	
787.04	4952.7	
787.22	3383.2	
787.39	4216.1	
787.57	4698	
787.75	5606	
787.92	4360.1	
788.1	4223.6	
788.27	4654.4	
788.45	4505.5	
788.63	4057	
788.8	2979.8	
788.98	5168.4	
789.15	4406.5	
789.33	3140.9	
789.5	3608.5	
789.68	5438	
789.86	5579.3	
790.03	3973.1	
790.21	3498.6	
790.38	5461.2	
790.56	4787.5	
790.73	3409.9	
790.91	3426.3	
791.09	4700.1	
791.26	5346.6	
791.44	3608.5	
791.61	3154.6	
791.79	4661.9	
791.96	4705.5	
792.14	3246.7	
792.32	2875.3	
792.49	4648.2	
792.67	4804.5	
792.84	3340.2	
793.02	3131.3	
793.19	5057.1	
793.37	5662.6	
793.54	2912.2	
793.72	3148.4	
793.89	5787.6	
794.07	4661.9	
794.25	3558	
794.42	2953.2	
794.6	5514.5	
794.77	5189.6	
794.95	3936.9	
795.12	3419.4	
795.3	4691.2	
795.47	5165.7	
795.65	3767.6	
795.82	3651.5	
796	4500.8	
796.17	6066.8	
796.35	3495.9	
796.52	4088.4	
796.7	5193	
796.87	5219.6	
797.05	3451.5	
797.22	4262.5	
797.4	5197.7	
797.57	5981.4	
797.75	3595.6	
797.92	3457	
798.1	5449.6	
798.27	4554	
798.45	2935.4	
798.62	3135.4	
798.8	4926	
798.97	5360.2	
799.15	3762.1	
799.32	3573	
799.5	4339	
799.67	4988.9	
799.85	3941.7	
800.02	2927.9	
800.2	4629.8	
800.37	4900.1	
800.55	4056.3	
800.72	3383.2	
800.9	5290.6	
801.07	5670.1	
801.25	4499.4	
801.42	3775.8	
801.6	5357.5	
801.77	5041.4	
801.95	3498.6	
802.12	3349.8	
802.29	5108.3	
802.47	5039.4	
802.64	3628.3	
802.82	2871.9	
802.99	4599.7	
803.17	5348.6	
803.34	3631	
803.52	3280.8	
803.69	5996.5	
803.87	4471.4	
804.04	3627.6	
804.21	3662.5	
804.39	5664.7	
804.56	4807.3	
804.74	3102.7	
804.91	3700	
805.09	4628.4	
805.26	4725.3	
805.44	3199.6	
805.61	3401	
805.78	5238.7	
805.96	5266.7	
806.13	3715.7	
806.31	3999.7	
806.48	4223.6	
806.66	4698	
806.83	3693.9	
807	3609.2	
807.18	4599.1	
807.35	4970.4	
807.53	3561.4	
807.7	2934.7	
807.87	5640.1	
808.05	4641.4	
808.22	3951.2	
808.4	2918.4	
808.57	4610.7	
808.74	4354	
808.92	3340.2	
809.09	4145.8	
809.27	4631.8	
809.44	5059.2	
809.61	2941.6	
809.79	3307.5	
809.96	5662	
810.14	5251.7	
810.31	2913.6	
810.48	3531.4	
810.66	4724	
810.83	5318.6	
811.01	3338.2	
811.18	3601	
811.35	5251.7	
811.53	4193.6	
811.7	4047.5	
811.87	3738.2	
812.05	4719.2	
812.22	4611.3	
812.39	3201.7	
812.57	3123.2	
812.74	4706.2	
812.92	6094.1	
813.09	3549.1	
813.26	3737.5	
813.44	5857.9	
813.61	4590.9	
813.78	2936.8	
813.96	3852.9	
814.13	4660.5	
814.3	4442.7	
814.48	4194.2	
814.65	3509.5	
814.82	5597.1	
815	4436.6	
815.17	3603.7	
815.34	4287.1	
815.52	4568.3	
815.69	4601.8	
815.87	3547.8	
816.04	3439.2	
816.21	4682.3	
816.38	4165.6	
816.56	3439.9	
816.73	3267.9	
816.9	5790.3	
817.08	5213.4	
817.25	3239.2	
817.42	4004.5	
817.6	4285	
817.77	4711.7	
817.94	3631	
818.12	3233.7	
818.29	4459.1	
818.46	6618.4	
818.64	3409.2	
818.81	3114.3	
818.98	4417.5	
819.16	6163.7	
819.33	3792.8	
819.5	3531.4	
819.67	5012.7	
819.85	5545.9	
820.02	3527.3	
820.19	3695.9	
820.37	4844.8	
820.54	4618.9	
820.71	3632.4	
820.88	4502.1	
821.06	4859.8	
821.23	4508.3	
821.4	3672	
821.58	3606.5	
821.75	5255.1	
821.92	4813.4	
822.09	2994.8	
822.27	3057.6	
822.44	4680.3	
822.61	4594.3	
822.79	3008.5	
822.96	5565	
823.13	5063.9	
823.3	4332.1	
823.48	3474.7	
823.65	3134.1	
823.82	5273.5	
823.99	4302.1	
824.17	4317.1	
824.34	3135.4	
824.51	6055.8	
824.68	4686.4	
824.86	3309.5	
825.03	3615.3	
825.2	4668	
825.37	5565	
825.55	3260.4	
825.72	3504.8	
825.89	6068.1	
826.06	5676.3	
826.24	3491.1	
826.41	3543.7	
826.58	5616.2	
826.75	4909.7	
826.92	2790	
827.1	3070.6	
827.27	7430.7	
827.44	5933	
827.61	3366.9	
827.79	3996.3	
827.96	4477.5	
828.13	4750.6	
828.3	3447.4	
828.47	2954.5	
828.65	4922	
828.82	4888.5	
828.99	4331.5	
829.16	3844.7	
829.34	5251.7	
829.51	5025.7	
829.68	3558.7	
829.85	3654.9	
830.02	5507	
830.2	5248.3	
830.37	2800.9	
830.54	4255.7	
830.71	5836	
830.88	4674.8	
831.05	2848	
831.23	3211.2	
831.4	5616.2	
831.57	6185.5	
831.74	3299.3	
831.91	2919.7	
832.09	4986.8	
832.26	5225.1	
832.43	3409.2	
832.6	3882.9	
832.77	4934.9	
832.94	5564.3	
833.12	2797.5	
833.29	3325.2	
833.46	4614.8	
833.63	6440.2	
833.8	3711.6	
833.97	3427.6	
834.15	5217.5	
834.32	5027.8	
834.49	3560.7	
834.66	3606.5	
834.83	5380	
835	4461.8	
835.17	3300.6	
835.35	3284.9	
835.52	5175.2	
835.69	5074.2	
835.86	3484.3	
836.03	2887.6	
836.2	5218.9	
836.37	4873.5	
836.55	3401	
836.72	3162.7	
836.89	4832.5	
837.06	5304.9	
837.23	3461.1	
837.4	3760.8	
837.57	5877	
837.75	6395.1	
837.92	3164.1	
838.09	3369.6	
838.26	4821.6	
838.43	5380.7	
838.6	3586	
838.77	3209.2	
838.94	6168.5	
839.11	5867.4	
839.29	3397.6	
839.46	2726.5	
839.63	5241.4	
839.8	4945.8	
839.97	3334.1	
840.14	3327.9	
840.31	5016.8	
840.48	5233.2	
840.65	2808.4	
840.82	3254.9	
841	5242.8	
841.17	5120.6	
841.34	3077.4	
841.51	3125.9	
841.68	5096.7	
841.85	4922.6	
842.02	3203.7	
842.19	2649.4	
842.36	5076.2	
842.53	4962.2	
842.7	3102.7	
842.87	3690.4	
843.05	6417.7	
843.22	4896	
843.39	2912.9	
843.56	3117	
843.73	4753.3	
843.9	5250.3	
844.07	4900.1	
844.24	4026.3	
844.41	7318.1	
844.58	4514.4	
844.75	2943.6	
844.92	3247.4	
845.09	5172.5	
845.26	5145.2	
845.43	3044.6	
845.6	3244	
845.77	5202.5	
845.94	4877.6	
846.12	3356.6	
846.29	3565.5	
846.46	5403.9	
846.63	5169.8	
846.8	3093.8	
846.97	3631	
847.14	5567.1	
847.31	5129.5	
847.48	3424.9	
847.65	3750.5	
847.82	5382.7	
847.99	5374.6	
848.16	4063.2	
848.33	3719.8	
848.5	4804.5	
848.67	5550	
848.84	3019.4	
849.01	3197.6	
849.18	4700.1	
849.35	4432.5	
849.52	3687.7	
849.69	3029.6	
849.86	5343.8	
850.03	5459.9	
850.2	3098.6	
850.37	3695.9	
850.54	5472.2	
850.71	4875.5	
850.88	3627	
851.05	3021.4	
851.22	5054.4	
851.39	5571.2	
851.56	2871.3	
851.73	3492.5	
851.9	4584	
852.07	5371.8	
852.24	3312.9	
852.41	3003	
852.58	5068	
852.75	4618.2	
852.92	3436.5	
853.09	3022.1	
853.26	4822.3	
853.43	5558.2	
853.6	3064.4	
853.77	2621.4	
853.94	5651	
854.11	4579.3	
854.28	4386.7	
854.44	3370.3	
854.61	5950.7	
854.78	5429.8	
854.95	3037.1	
855.12	3723.9	
855.29	4257.7	
855.46	5732.9	
855.63	3065.8	
855.8	4169.7	
855.97	4827.7	
856.14	5473.5	
856.31	4308.9	
856.48	3356.6	
856.65	4781.3	
856.82	4549.2	
856.99	2938.8	
857.16	3314.3	
857.33	6106.4	
857.49	4904.2	
857.66	3279.5	
857.83	3482.9	
858	4889.9	
858.17	5081.7	
858.34	2889.7	
858.51	3050.1	
858.68	5743.2	
858.85	5755.5	
859.02	3539.6	
859.19	3720.5	
859.36	4587.4	
859.52	4603.2	
859.69	3058.3	
859.86	3567.6	
860.03	4659.8	
860.2	5666.7	
860.37	2798.2	
860.54	3087.7	
860.71	5425.1	
860.88	5695.4	
861.05	3394.2	
861.21	3807.9	
861.38	5700.2	
861.55	4466.6	
861.72	2808.4	
861.89	3402.4	
862.06	5463.3	
862.23	5815.5	
862.4	2951.8	
862.56	3192.1	
862.73	5244.2	
862.9	5005.9	
863.07	3523.9	
863.24	2762	
863.41	4562.9	
863.58	4615.4	
863.75	3079.5	
863.91	3452.2	
864.08	5610.8	
864.25	5329.5	
864.42	3738.2	
864.59	4246.8	
864.76	5894.1	
864.93	4625	
865.09	2993.4	
865.26	3256.3	
865.43	5605.3	
865.6	5970.5	
865.77	2705.4	
865.94	2987.3	
866.1	5578.7	
866.27	5356.8	
866.44	4428.4	
866.61	2907.4	
866.78	4922	
866.95	5309	
867.11	2977.7	
867.28	2697.2	
867.45	5497.4	
867.62	4625.7	
867.79	3486.3	
867.96	3071.3	
868.12	4533.5	
868.29	5404.6	
868.46	2641.9	
868.63	4012	
868.8	5457.8	
868.97	5296.7	
869.13	3159.3	
869.3	3156.6	
869.47	5227.1	
869.64	5478.3	
869.81	3068.5	
869.97	3033	
870.14	5130.8	
870.31	5701.5	
870.48	2949.1	
870.65	3822.9	
870.81	4836.6	
870.98	4896	
871.15	3401	
871.32	3096.5	
871.48	5286.5	
871.65	5709.7	
871.82	3033.7	
871.99	3338.9	
872.16	6150.7	
872.32	5552.7	
872.49	3091.1	
872.66	3067.9	
872.83	5330.2	
872.99	4764.9	
873.16	3496.6	
873.33	3028.3	
873.5	5046.2	
873.67	5046.9	
873.83	3177.1	
874	3963.5	
874.17	5202.5	
874.34	6026.5	
874.5	3922.5	
874.67	3723.9	
874.84	5683.1	
875.01	4523.3	
875.17	4194.9	
875.34	3022.8	
875.51	5090.6	
875.68	6110.5	
875.84	3593.5	
876.01	4362.2	
876.18	5285.1	
876.34	5251	
876.51	3086.3	
876.68	3011.9	
876.85	4894	
877.01	5572.5	
877.18	4238.6	
877.35	3049.4	
877.52	5122	
877.68	4529.4	
877.85	2994.8	
878.02	3039.9	
878.18	4887.8	
878.35	4803.9	
878.52	2452.8	
878.69	3394.8	
878.85	5416.9	
879.02	5267.4	
879.19	4218.8	
879.35	3290.4	
879.52	5286.5	
879.69	5399.8	
879.86	2641.9	
880.02	3364.1	
880.19	4934.9	
880.36	6012.2	
880.52	3474	
880.69	3587.4	
880.86	5399.8	
881.02	5431.2	
881.19	3362.8	
881.36	3346.4	
881.52	5362.9	
881.69	4775.9	
881.86	3263.8	
882.02	3188.7	
882.19	5525.4	
882.36	6397.2	
882.52	3132	
882.69	4219.5	
882.86	5131.5	
883.02	5074.2	
883.19	3665.2	
883.36	3434.4	
883.52	5377.3	
883.69	6089.3	
883.86	3056.3	
884.02	2766.1	
884.19	5362.3	
884.36	5039.4	
884.52	3469.9	
884.69	3215.3	
884.86	4764.3	
885.02	5818.3	
885.19	3341.6	
885.36	3474	
885.52	4956.1	
885.69	5126.7	
885.86	4354	
886.02	3826.3	
886.19	5341.1	
886.35	4816.8	
886.52	3285.6	
886.69	4206.5	
886.85	4635.9	
887.02	5639.4	
887.19	5639.4	
887.35	5639.4	
887.52	5639.4	
887.68	5639.4	
887.85	5639.4	
888.02	5639.4	
888.18	5639.4	
888.35	5639.4	
888.51	5639.4	
888.68	5639.4	
888.85	5639.4	
889.01	5639.4	
889.18	5639.4	
889.35	5639.4	
889.51	5639.4	
889.68	5639.4	
889.84	5639.4	
890.01	5639.4	
890.17	5639.4	
890.34	5639.4	
890.51	5639.4	
890.67	5639.4	
890.84	5639.4	
891	5639.4	
891.17	5639.4	
891.34	5639.4	
891.5	5639.4	
891.67	5639.4	
891.83	5639.4	
892	5639.4	
892.16	5639.4	
892.33	5639.4	
892.5	5639.4	
892.66	5639.4	
892.83	5639.4	
892.99	5639.4	
893.16	5639.4	
893.32	5639.4	
893.49	5639.4	
893.65	5639.4	
893.82	5639.4	
893.99	5639.4	
894.15	5639.4	
894.32	5639.4	
894.48	5639.4	
894.65	5639.4	
894.81	5639.4	
894.98	5639.4	
895.14	5639.4	
895.31	5639.4	
895.47	5639.4	
895.64	5639.4	
895.81	5639.4	
895.97	5639.4	
896.14	5639.4	
896.3	5639.4	
896.47	5639.4	
896.63	5639.4	
896.8	5639.4	
896.96	5639.4	
897.13	5639.4	
897.29	5639.4	
897.46	5639.4	
897.62	5639.4	
897.79	5639.4	
897.95	5639.4	
898.12	5639.4	
898.28	5639.4	
898.45	5639.4	
898.61	5639.4	
898.78	5639.4	
898.94	5639.4	
899.11	5639.4	
899.27	5639.4	
899.44	5639.4	
899.6	5639.4	
899.77	5639.4	
899.93	5639.4	
900.1	5639.4	
900.26	5639.4	
900.43	5639.4	
900.59	5639.4	
900.76	5639.4	
900.92	5639.4	
901.09	5639.4	
901.25	5639.4	
901.42	5639.4	
901.58	5639.4	
901.75	5639.4	
901.91	5639.4	
902.07	5639.4	
902.24	5639.4	
902.4	5639.4	
902.57	5639.4	
902.73	5639.4	
902.9	5639.4	
903.06	5639.4	
903.23	5639.4	
903.39	5639.4	
903.56	5639.4	
903.72	5639.4	
903.88	5639.4	
904.05	5639.4	
904.21	5639.4	
904.38	5639.4	
904.54	5639.4	
904.71	5639.4	
904.87	5639.4	
905.03	5639.4	
905.2	5639.4	
905.36	5639.4	
905.53	5639.4	
905.69	5639.4	
905.86	5639.4	
906.02	5639.4	
906.18	5639.4	
906.35	5639.4	
906.51	5639.4	
906.68	5639.4	
906.84	5639.4	
907.01	5639.4	
907.17	5639.4	
907.33	5639.4	
907.5	5639.4	
907.66	5639.4	
907.83	5639.4	
907.99	5639.4	
908.15	5639.4	
908.32	5639.4	
908.48	5639.4	
908.65	5639.4	
908.81	5639.4	
908.97	5639.4	
909.14	5639.4	
909.3	5639.4	
909.47	5639.4	
909.63	5639.4	
909.79	5639.4	
909.96	5639.4	
910.12	5639.4	
910.28	5639.4	
910.45	5639.4	
910.61	5639.4	
910.78	5639.4	
910.94	5639.4	
911.1	5639.4	
911.27	5639.4	
911.43	5639.4	
911.59	5639.4	
911.76	5639.4	
911.92	5639.4	
912.08	5639.4	
912.25	5639.4	
912.41	5639.4	
912.57	5639.4	
912.74	5639.4	
912.9	5639.4	
913.07	5639.4	
913.23	5639.4	
913.39	5639.4	
913.56	5639.4	
913.72	5639.4	
913.88	5639.4	
914.05	5639.4	
914.21	5639.4	
914.37	5639.4	
914.54	5639.4	
914.7	5639.4	
914.86	5639.4	
915.03	5639.4	
915.19	5639.4	
