Wavelength	Intensities	
nm	a.u.	
179.22	1723.7	
179.44	1719.6	
179.65	1727.8	
179.86	1711.4	
180.08	1770.8	
180.29	4130.8	
180.51	3074.7	
180.72	5137.7	
180.94	5813.5	
181.15	2812.5	
181.37	2843.9	
181.58	4951.3	
181.79	5133.6	
182.01	2938.8	
182.22	3147	
182.44	5164.3	
182.65	4444.8	
182.87	3936.2	
183.08	3446.7	
183.29	5423.7	
183.51	4517.1	
183.72	3125.9	
183.94	4386.1	
184.15	4861.2	
184.37	4866.7	
184.58	2819.4	
184.79	3672	
185.01	4620.2	
185.22	5120.6	
185.44	3972.4	
185.65	3338.2	
185.86	4902.2	
186.08	4476.9	
186.29	2777	
186.51	2904.7	
186.72	4564.9	
186.94	5286.5	
187.15	3365.5	
187.36	3469.9	
187.58	6623.1	
187.79	4956.8	
188.01	3498.6	
188.22	5436	
188.43	5858.6	
188.65	5184.1	
188.86	2949.8	
189.08	3455.6	
189.29	4712.4	
189.5	4702.1	
189.72	3200.3	
189.93	3285.6	
190.15	5367	
190.36	6152.8	
190.57	3380.5	
190.79	3376.4	
191	5350	
191.22	5305.6	
191.43	3540.3	
191.64	2971.6	
191.86	5551.4	
192.07	5361.6	
192.29	3064.4	
192.5	3153.2	
192.71	5338.4	
192.93	4730.1	
193.14	3166.8	
193.35	3235.8	
193.57	4655	
193.78	5329.5	
194	2633.7	
194.21	3116.3	
194.42	4501.4	
194.64	4926.7	
194.85	3439.9	
195.07	3947.1	
195.28	4875.5	
195.49	4333.5	
195.71	4171	
195.92	3005.7	
196.13	5072.8	
196.35	5110.4	
196.56	4342.4	
196.78	3416	
196.99	6182.8	
197.2	5778.7	
197.42	3835.8	
197.63	3503.4	
197.84	4414.7	
198.06	5016.2	
198.27	3219.4	
198.48	4127.3	
198.7	4668	
198.91	4857.8	
199.13	3469.3	
199.34	3454.9	
199.55	5236	
199.77	4225	
199.98	3085.6	
200.19	3457.7	
200.41	4842.1	
200.62	4572.4	
200.83	3571.7	
201.05	3753.2	
201.26	4812.7	
201.47	4625.7	
201.69	3064.4	
201.9	3002.3	
202.11	4885.1	
202.33	5676.3	
202.54	3253.5	
202.76	3642.7	
202.97	4911	
203.18	4942.4	
203.4	3536.8	
203.61	3555.3	
203.82	4954	
204.04	4615.4	
204.25	3431	
204.46	3435.8	
204.68	4930.1	
204.89	5071.5	
205.1	3394.8	
205.32	2960.7	
205.53	5171.8	
205.74	5302.9	
205.96	2611.8	
206.17	3530	
206.38	5148.6	
206.6	5310.4	
206.81	3975.1	
207.02	3282.9	
207.24	5039.4	
207.45	5398.4	
207.66	3330.7	
207.88	2851.5	
208.09	5038	
208.3	4891.9	
208.52	3039.9	
208.73	3343	
208.94	4866	
209.15	5526.1	
209.37	3278.8	
209.58	3689.1	
209.79	5292.6	
210.01	4723.3	
210.22	2719	
210.43	2803	
210.65	4851.6	
210.86	5169.8	
211.07	3294.5	
211.29	3029.6	
211.5	5115.8	
211.71	4879.6	
211.93	3068.5	
212.14	3054.9	
212.35	4810.7	
212.56	4988.9	
212.78	3456.3	
212.99	2895.8	
213.2	5623.7	
213.42	4741	
213.63	3162.7	
213.84	3347.7	
214.06	4437.9	
214.27	4461.8	
214.48	3259	
214.69	3465.2	
214.91	5449.6	
215.12	5475.6	
215.33	3492.5	
215.55	3820.1	
215.76	5915.2	
215.97	5191.6	
216.18	3394.2	
216.4	3344.3	
216.61	4612.7	
216.82	5245.5	
217.04	3069.9	
217.25	3178.4	
217.46	5384.1	
217.67	5253	
217.89	2799.6	
218.1	2879.4	
218.31	4863.9	
218.53	5051	
218.74	3263.1	
218.95	3110.2	
219.16	4859.1	
219.38	5595.1	
219.59	3122.5	
219.8	3648.8	
220.01	6051.7	
220.23	4923.3	
220.44	3956.7	
220.65	3056.9	
220.87	4965	
221.08	5378	
221.29	2869.9	
221.5	3667.9	
221.72	6457.2	
221.93	4648.9	
222.14	3457	
222.35	4037.9	
222.57	4896	
222.78	5276.9	
222.99	3362.1	
223.2	3517.7	
223.42	5078.3	
223.63	5240.1	
223.84	2598.2	
224.05	2637.1	
224.27	6014.2	
224.48	5538.4	
224.69	4094.6	
224.9	3523.9	
225.12	5015.5	
225.33	4805.9	
225.54	2812.5	
225.75	3148.4	
225.97	4567	
226.18	4798.4	
226.39	3303.4	
226.6	3105.4	
226.82	4672.8	
227.03	4522.6	
227.24	3454.9	
227.45	2894.5	
227.67	5177.9	
227.88	5625.8	
228.09	3868.6	
228.3	3799.7	
228.52	5169.1	
228.73	4862.6	
228.94	3205.8	
229.15	2879.4	
229.36	4811.4	
229.58	4822.3	
229.79	3299.3	
230	3736.9	
230.21	5751.4	
230.43	4933.6	
230.64	3411.9	
230.85	3603.1	
231.06	5192.3	
231.28	5210.7	
231.49	2881.5	
231.7	3393.5	
231.91	5144.5	
232.12	4886.5	
232.34	2993.4	
232.55	3348.4	
232.76	5392.3	
232.97	5000.5	
233.18	3050.1	
233.4	3412.6	
233.61	5049.6	
233.82	4682.3	
234.03	3276.8	
234.25	3181.2	
234.46	6510.5	
234.67	4910.3	
234.88	3538.9	
235.09	3122.5	
235.31	5121.3	
235.52	4779.3	
235.73	3347.7	
235.94	2947.7	
236.15	4691.2	
236.37	5804.6	
236.58	3054.2	
236.79	3304.1	
237	5139	
237.21	4442.7	
237.43	3579.8	
237.64	2833	
237.85	8198.7	
238.06	4518.5	
238.27	3520.5	
238.48	2950.4	
238.7	5181.4	
238.91	4815.5	
239.12	3248.8	
239.33	3399.6	
239.54	4610	
239.76	4824.3	
239.97	3312.2	
240.18	3310.9	
240.39	5935	
240.6	5070.1	
240.82	3425.6	
241.03	2862.4	
241.24	4861.2	
241.45	5584.1	
241.66	3015.3	
241.87	3538.9	
242.09	5510.4	
242.3	5681.1	
242.51	3629.7	
242.72	3318.4	
242.93	5289.9	
243.14	4840	
243.36	3807.2	
243.57	4089.1	
243.78	5530.9	
243.99	5206.6	
244.2	3318.4	
244.41	3024.2	
244.63	4533.5	
244.84	5072.1	
245.05	3545	
245.26	3282.9	
245.47	5083.7	
245.68	5246.2	
245.9	4297.3	
246.11	3502.7	
246.32	4712.4	
246.53	5107	
246.74	5232.6	
246.95	2820.1	
247.16	4591.5	
247.38	4863.2	
247.59	2852.1	
247.8	3381.9	
248.01	4588.1	
248.22	4859.1	
248.43	3048.7	
248.64	3258.3	
248.86	4457.1	
249.07	4681.7	
249.28	2981.8	
249.49	3422.2	
249.7	5288.5	
249.91	5378.6	
250.12	2826.2	
250.34	2902	
250.55	4992.3	
250.76	4890.5	
250.97	3452.9	
251.18	3426.3	
251.39	5408.7	
251.6	5034.6	
251.81	3523.9	
252.03	3472	
252.24	4669.4	
252.45	5251.7	
252.66	2971.6	
252.87	3603.7	
253.08	4868	
253.29	6149.4	
253.5	2979.8	
253.72	4029.7	
253.93	4785.4	
254.14	5651	
254.35	3119.1	
254.56	3254.2	
254.77	5089.9	
254.98	4577.9	
255.19	3186.6	
255.41	3943.7	
255.62	4977.9	
255.83	5396.4	
256.04	3521.1	
256.25	3479.5	
256.46	5843.5	
256.67	4627	
256.88	3396.9	
257.09	3755.3	
257.31	4550.6	
257.52	4605.2	
257.73	4263.9	
257.94	3134.8	
258.15	4812	
258.36	4869.4	
258.57	3936.9	
258.78	2630.3	
258.99	5319.9	
259.2	4721.3	
259.41	3160.7	
259.63	3323.9	
259.84	5567.1	
260.05	5834	
260.26	4051.6	
260.47	3074	
260.68	5333.6	
260.89	4812.7	
261.1	3799.7	
261.31	3039.2	
261.52	5393.7	
261.73	5685.2	
261.95	4094.6	
262.16	3531.4	
262.37	5431.9	
262.58	5495.4	
262.79	4072	
263	3231	
263.21	4873.5	
263.42	4756.1	
263.63	3314.3	
263.84	3224.2	
264.05	5343.2	
264.26	5631.2	
264.47	3918.4	
264.69	3590.8	
264.9	5492	
265.11	5060.5	
265.32	3066.5	
265.53	3127.9	
265.74	5008	
265.95	4396.3	
266.16	3408.5	
266.37	3650.8	
266.58	4993.6	
266.79	4711	
267	3160.7	
267.21	2966.1	
267.42	4527.4	
267.63	4888.5	
267.84	3306.8	
268.06	2903.3	
268.27	5263.3	
268.48	5425.1	
268.69	3218.7	
268.9	3743.7	
269.11	5446.2	
269.32	4454.3	
269.53	3383.2	
269.74	3124.5	
269.95	5121.3	
270.16	4389.5	
270.37	3336.8	
270.58	3771	
270.79	4767.7	
271	5301.5	
271.21	3502	
271.42	3354.6	
271.63	5057.1	
271.84	4535.6	
272.05	2678.7	
272.26	3053.5	
272.47	4872.8	
272.68	5034.6	
272.89	3226.2	
273.11	3614.7	
273.32	4657.1	
273.53	5614.8	
273.74	3530.7	
273.95	3492.5	
274.16	5327.4	
274.37	4914.4	
274.58	3592.1	
274.79	2990	
275	5050.3	
275.21	5413.5	
275.42	4306.2	
275.63	3688.4	
275.84	5061.9	
276.05	6257.2	
276.26	3491.1	
276.47	3237.2	
276.68	4777.2	
276.89	5669.5	
277.1	3719.8	
277.31	2943.6	
277.52	5104.2	
277.73	5260.5	
277.94	2917.7	
278.15	3224.2	
278.36	5097.4	
278.57	4605.2	
278.78	3196.2	
278.99	3579.8	
279.2	4626.4	
279.41	4610.7	
279.62	4114.4	
279.83	2959.3	
280.04	5885.2	
280.25	4567.7	
280.46	4138.9	
280.67	3338.2	
280.88	4603.2	
281.09	5438.7	
281.3	3461.7	
281.51	4349.2	
281.72	4672.8	
281.93	5262.6	
282.14	3147.7	
282.35	3375.1	
282.56	5329.5	
282.77	5279	
282.98	3226.2	
283.19	3863.8	
283.4	6251.1	
283.61	4813.4	
283.82	3068.5	
284.03	4009.2	
284.24	5017.5	
284.45	5365	
284.66	4095.3	
284.87	3873.4	
285.08	5358.2	
285.29	5440.1	
285.5	2888.3	
285.71	3274	
285.92	5359.5	
286.12	5896.8	
286.33	4059.1	
286.54	3318.4	
286.75	5255.1	
286.96	4766.3	
287.17	3046.7	
287.38	3988.1	
287.59	4636.6	
287.8	4585.4	
288.01	3250.8	
288.22	3678.8	
288.43	5221	
288.64	4459.1	
288.85	3878.2	
289.06	3611.9	
289.27	5195	
289.48	5601.2	
289.69	4083.6	
289.9	3757.3	
290.11	5449.6	
290.32	4711	
290.53	3913	
290.74	3606.5	
290.94	5270.8	
291.15	5342.5	
291.36	3145.7	
291.57	3677.5	
291.78	4718.5	
291.99	4429.8	
292.2	3078.1	
292.41	3609.2	
292.62	5317.2	
292.83	5132.9	
293.04	4356.7	
293.25	3031	
293.46	4782	
293.67	5334.3	
293.88	3095.8	
294.09	3114.3	
294.29	4586.8	
294.5	4960.2	
294.71	3355.3	
294.92	3209.2	
295.13	4736.3	
295.34	5762.3	
295.55	2878.1	
295.76	2816.6	
295.97	5259.9	
296.18	5800.5	
296.39	3023.5	
296.6	3129.3	
296.81	4928.8	
297.01	5286.5	
297.22	3290.4	
297.43	3171.6	
297.64	4666	
297.85	4551.3	
298.06	2661	
298.27	2842.6	
298.48	4848.2	
298.69	4648.9	
298.9	3362.8	
299.11	3047.4	
299.31	4535.6	
299.52	4567.7	
299.73	3605.8	
299.94	3540.9	
300.15	4916.5	
300.36	4612	
300.57	3545	
300.78	3526.6	
300.99	4767	
301.2	4943.8	
301.4	3122.5	
301.61	3416	
301.82	5116.5	
302.03	5214.8	
302.24	3768.9	
302.45	2953.9	
302.66	5060.5	
302.87	5445.5	
303.08	3119.1	
303.29	4194.2	
303.49	4731.5	
303.7	4846.2	
303.91	2865.8	
304.12	3999	
304.33	4503.5	
304.54	5022.3	
304.75	3211.9	
304.96	3015.3	
305.16	5091.3	
305.37	5721.3	
305.58	2800.3	
305.79	2853.5	
306	5137	
306.21	4397	
306.42	3148.4	
306.63	4646.2	
306.83	4775.9	
307.04	5221	
307.25	3465.2	
307.46	3359.4	
307.67	4345.8	
307.88	5197.1	
308.09	3138.9	
308.29	3186.6	
308.5	4943.8	
308.71	5289.2	
308.92	3363.4	
309.13	3063.1	
309.34	4782.7	
309.55	4788.2	
309.75	3857	
309.96	3513.6	
310.17	5191.6	
310.38	4646.8	
310.59	3727.3	
310.8	2977.7	
311.01	5388.2	
311.21	4847.5	
311.42	3025.5	
311.63	3125.2	
311.84	4716.5	
312.05	4936.3	
312.26	3478.1	
312.46	3764.8	
312.67	4773.8	
312.88	4539.7	
313.09	3020.1	
313.3	2998.2	
313.51	5560.2	
313.71	5801.2	
313.92	3025.5	
314.13	3244	
314.34	5119.9	
314.55	4865.3	
314.76	3827.7	
314.96	3351.2	
315.17	5064.6	
315.38	5161.6	
315.59	3028.3	
315.8	2906.8	
316.01	5537.7	
316.21	5645.6	
316.42	2964.1	
316.63	3403	
316.84	4826.4	
317.05	5408	
317.26	3522.5	
317.46	3233.1	
317.67	4837.3	
317.88	5186.1	
318.09	3821.5	
318.3	2843.3	
318.5	4718.5	
318.71	5118.6	
318.92	4699.4	
319.13	3538.2	
319.34	5266	
319.54	5408	
319.75	2820.7	
319.96	2746.3	
320.17	5205.3	
320.38	5347.9	
320.58	2808.4	
320.79	3364.8	
321	5407.3	
321.21	5442.1	
321.42	3371.6	
321.62	2834.4	
321.83	4552.6	
322.04	4908.3	
322.25	3252.9	
322.46	3094.5	
322.66	4986.1	
322.87	5153.4	
323.08	3695.9	
323.29	2989.4	
323.5	5735.7	
323.7	4574.5	
323.91	4026.3	
324.12	3663.1	
324.33	4980	
324.53	5151.3	
324.74	3524.6	
324.95	3652.9	
325.16	4444.8	
325.37	4718.5	
325.57	3077.4	
325.78	3121.1	
325.99	4983.4	
326.2	4461.2	
326.4	4250.2	
326.61	2880.1	
326.82	4835.9	
327.03	5025.7	
327.24	4242.7	
327.44	4065.2	
327.65	5102.9	
327.86	4229.7	
328.07	3567.6	
328.27	2975.7	
328.48	5504.9	
328.69	4528.1	
328.9	4280.3	
329.1	3218.7	
329.31	4830.5	
329.52	5495.4	
329.73	3048.7	
329.93	3359.4	
330.14	4915.1	
330.35	5029.1	
330.56	4840	
330.76	3680.2	
330.97	4739	
331.18	5053	
331.39	3397.6	
331.59	2772.3	
331.8	5294	
332.01	5461.9	
332.22	3153.9	
332.42	3523.2	
332.63	4992.3	
332.84	4637.3	
333.05	3422.8	
333.25	3132.7	
333.46	4664.6	
333.67	4889.9	
333.88	3179.8	
334.08	3444.7	
334.29	6151.4	
334.5	5388.9	
334.7	2977.7	
334.91	4209.3	
335.12	4498	
335.33	5279	
335.53	3345	
335.74	4793.6	
335.95	4747.2	
336.16	4569.7	
336.36	3416.7	
336.57	3874.8	
336.78	4487.8	
336.98	5335	
337.19	4141.7	
337.4	3347.7	
337.61	5834.7	
337.81	4504.8	
338.02	3111.5	
338.23	3927.3	
338.43	5467.4	
338.64	4620.9	
338.85	3051.5	
339.05	4000.4	
339.26	5607.3	
339.47	4422.2	
339.68	3070.6	
339.88	4414.1	
340.09	5147.2	
340.3	5238	
340.5	3560.1	
340.71	2768.9	
340.92	4470.7	
341.13	5513.8	
341.33	2914.9	
341.54	3520.5	
341.75	5109	
341.95	4702.8	
342.16	3438.5	
342.37	3720.5	
342.57	4544.4	
342.78	4851.6	
342.99	3713.6	
343.19	2796.2	
343.4	5199.1	
343.61	5114.5	
343.81	3274	
344.02	2987.3	
344.23	5216.9	
344.43	5496.7	
344.64	3747.8	
344.85	3694.5	
345.06	5132.9	
345.26	5339.1	
345.47	3510.2	
345.68	4006.5	
345.88	4435.9	
346.09	5285.8	
346.3	3618.8	
346.5	2718.3	
346.71	4835.9	
346.92	4640.7	
347.12	2869.2	
347.33	3459.7	
347.54	5363.6	
347.74	5631.9	
347.95	3459	
348.16	2682.8	
348.36	4722.6	
348.57	4558.8	
348.78	3453.6	
348.98	3729.4	
349.19	4817.5	
349.39	4415.4	
349.6	2848.7	
349.81	3091.8	
350.01	5089.9	
350.22	4622.3	
350.43	3403	
350.63	3988.8	
350.84	4900.1	
351.05	4709	
351.25	3104	
351.46	2834.4	
351.67	5323.4	
351.87	4678.9	
352.08	3295.2	
352.29	3672.7	
352.49	5259.9	
352.7	5304.9	
352.9	3019.4	
353.11	3661.1	
353.32	5699.5	
353.52	4709.6	
353.73	3015.3	
353.94	3691.8	
354.14	5109.7	
354.35	4922.6	
354.55	3046.7	
354.76	3405.8	
354.97	5108.3	
355.17	4904.2	
355.38	2951.8	
355.59	3938.2	
355.79	4664.6	
356	4871.4	
356.2	3343	
356.41	3016.7	
356.62	4414.7	
356.82	4821.6	
357.03	3623.5	
357.24	3293.8	
357.44	4648.9	
357.65	4736.3	
357.85	4212	
358.06	3440.6	
358.27	4440.7	
358.47	4572.4	
358.68	2887	
358.88	3560.1	
359.09	5045.5	
359.3	5339.1	
359.5	4115.1	
359.71	3680.9	
359.91	5673.6	
360.12	5152.7	
360.33	3570.3	
360.53	3909.6	
360.74	4644.1	
360.94	4667.3	
361.15	3771	
361.36	3138.2	
361.56	5292.6	
361.77	4861.9	
361.97	4115.7	
362.18	3262.4	
362.38	5270.1	
362.59	4487.1	
362.8	3067.2	
363	2953.2	
363.21	4359.4	
363.41	4911.7	
363.62	3497.9	
363.83	4231.1	
364.03	5053	
364.24	5660.6	
364.44	4348.5	
364.65	4269.3	
364.85	4830.5	
365.06	4535.6	
365.27	3241.9	
365.47	3298.6	
365.68	5556.1	
365.88	4822.3	
366.09	3542.3	
366.29	3289.7	
366.5	4955.4	
366.71	5283.1	
366.91	4294.6	
367.12	3721.8	
367.32	5791.7	
367.53	5127.4	
367.73	3676.8	
367.94	4425	
368.14	5182.7	
368.35	5826.5	
368.56	3647.4	
368.76	3405.1	
368.97	5327.4	
369.17	6569.9	
369.38	3187.3	
369.58	3438.5	
369.79	4497.3	
369.99	5573.2	
370.2	4229.1	
370.4	3510.9	
370.61	5043.5	
370.82	6007.4	
371.02	3529.3	
371.23	2925.2	
371.43	4481.6	
371.64	5526.1	
371.84	3504.8	
372.05	4360.8	
372.25	6478.4	
372.46	5202.5	
372.66	3482.9	
372.87	3439.9	
373.07	5279	
373.28	6524.1	
373.48	4227.7	
373.69	4051.6	
373.9	4884.4	
374.1	4943.8	
374.31	4222.2	
374.51	3814.7	
374.72	5560.9	
374.92	4708.3	
375.13	4268.6	
375.33	3704.8	
375.54	5156.1	
375.74	4788.2	
375.95	3812.6	
376.15	4753.3	
376.36	5343.2	
376.56	5083.7	
376.77	3774.4	
376.97	4144.4	
377.18	6084.5	
377.38	5299.5	
377.59	4405.2	
377.79	3442	
378	5169.1	
378.2	5462.6	
378.41	3487.7	
378.61	3418.1	
378.82	5569.1	
379.02	4851	
379.23	3575.8	
379.43	4436.6	
379.64	5663.3	
379.84	5244.2	
380.05	3500.7	
380.25	3450.1	
380.46	5390.3	
380.66	5005.9	
380.87	4502.1	
381.07	4799.1	
381.28	5876.3	
381.48	5331.5	
381.69	3461.1	
381.89	3566.9	
382.1	4526	
382.3	5405.3	
382.51	4341.7	
382.71	5044.8	
382.91	5320.6	
383.12	5709.7	
383.32	3816.7	
383.53	3934.1	
383.73	5214.1	
383.94	5081	
384.14	3918.4	
384.35	3171.6	
384.55	4964.3	
384.76	5306.3	
384.96	3801.7	
385.17	4020.2	
385.37	5389.6	
385.58	4753.3	
385.78	4019.5	
385.98	3162.7	
386.19	4956.1	
386.39	5281.7	
386.6	3588.7	
386.8	3698.6	
387.01	5377.3	
387.21	5451	
387.42	4169.7	
387.62	4521.2	
387.83	4803.2	
388.03	5313.1	
388.23	3829	
388.44	4434.5	
388.64	4548.5	
388.85	4663.2	
389.05	4046.8	
389.26	4564.2	
389.46	6274.3	
389.67	5679	
389.87	4007.2	
390.07	4087.1	
390.28	5045.5	
390.48	4737	
390.69	3461.7	
390.89	3720.5	
391.1	4966.3	
391.3	5620.3	
391.5	4667.3	
391.71	5051.7	
391.91	5511.1	
392.12	6130.3	
392.32	4675.5	
392.53	4051.6	
392.73	4995	
392.93	5150	
393.14	3847.5	
393.34	4766.3	
393.55	5406	
393.75	5052.3	
393.95	3792.8	
394.16	3766.9	
394.36	4939	
394.57	5385.5	
394.77	3470.6	
394.98	3789.4	
395.18	4889.9	
395.38	4973.2	
395.59	4475.5	
395.79	3661.8	
396	5020.3	
396.2	5401.2	
396.4	4321.2	
396.61	4265.9	
396.81	5502.9	
397.02	4944.5	
397.22	4476.2	
397.42	4549.2	
397.63	5548.6	
397.83	4855.1	
398.04	3628.3	
398.24	3957.4	
398.44	5317.2	
398.65	4573.8	
398.85	3481.5	
399.05	3534.1	
399.26	4947.2	
399.46	6309.1	
399.67	3906.8	
399.87	3708.2	
400.07	5229.1	
400.28	5520.6	
400.48	3768.9	
400.69	4564.2	
400.89	5675.6	
401.09	6031.3	
401.3	3625.6	
401.5	4532.2	
401.7	6211.5	
401.91	6352.1	
402.11	4012.7	
402.32	4119.8	
402.52	5667.4	
402.72	5618.9	
402.93	4233.2	
403.13	3414	
403.33	6192.4	
403.54	5155.4	
403.74	3988.1	
403.94	4737.6	
404.15	5330.2	
404.35	6197.8	
404.56	3896.6	
404.76	5310.4	
404.96	5744.6	
405.17	5535	
405.37	4892.6	
405.57	4319.2	
405.78	5679	
405.98	5192.3	
406.18	3900.7	
406.39	4489.1	
406.59	5641.5	
406.79	5283.8	
407	3695.9	
407.2	3758	
407.4	5711.1	
407.61	5872.9	
407.81	3868.6	
408.01	5653.1	
408.22	4876.9	
408.42	6382.8	
408.62	4742.4	
408.83	4287.1	
409.03	5411.4	
409.23	5311.1	
409.44	4412	
409.64	4543.1	
409.84	6189.6	
410.05	6044.9	
410.25	4470	
410.45	4285.7	
410.66	5677	
410.86	7656	
411.06	4597	
411.27	4586.1	
411.47	7421.8	
411.67	5835.3	
411.88	4757.4	
412.08	4952	
412.28	6270.2	
412.49	6793.1	
412.69	4474.8	
412.89	4558.1	
413.09	6563.7	
413.3	6500.9	
413.5	4699.4	
413.7	4323.9	
413.91	5917.3	
414.11	6557.6	
414.31	4470.7	
414.52	4827.7	
414.72	6318	
414.92	6239.5	
415.12	4534.2	
415.33	4947.2	
415.53	6488.6	
415.73	6755.6	
415.94	5232.6	
416.14	4723.3	
416.34	5831.2	
416.55	5595.7	
416.75	5804.6	
416.95	5300.1	
417.15	6559.6	
417.36	7105.1	
417.56	5911.1	
417.76	5158.2	
417.97	6886	
418.17	6612.9	
418.37	4835.9	
418.57	4815.5	
418.78	6475.7	
418.98	6195.1	
419.18	5500.8	
419.38	5425.8	
419.59	6161	
419.79	5911.1	
419.99	4714.4	
420.2	5033.2	
420.4	6630.6	
420.6	6677.1	
420.8	4674.8	
421.01	4521.9	
421.21	6489.3	
421.41	6587	
421.61	5017.5	
421.82	4703.5	
422.02	6053.8	
422.22	6837.5	
422.42	5363.6	
422.63	5067.4	
422.83	6092	
423.03	7071	
423.23	5043.5	
423.44	4328	
423.64	6141.9	
423.84	5990.3	
424.04	4646.2	
424.25	4347.8	
424.45	6926.9	
424.65	6928.3	
424.85	4225	
425.06	4666	
425.26	6992.4	
425.46	6027.9	
425.66	5086.5	
425.87	4791.6	
426.07	6712.6	
426.27	6569.9	
426.47	4911.7	
426.67	4468	
426.88	7059.3	
427.08	6469.5	
427.28	5124.7	
427.48	4378.6	
427.69	5661.3	
427.89	6207.4	
428.09	5069.4	
428.29	4349.9	
428.5	6679.1	
428.7	6347.3	
428.9	4315.1	
429.1	4729.4	
429.3	6346	
429.51	6471.6	
429.71	4618.9	
429.91	5334.3	
430.11	6569.9	
430.31	6718.7	
430.52	4851	
430.72	5031.9	
430.92	7002	
431.12	6539.8	
431.32	4477.5	
431.53	4904.2	
431.73	5674.2	
431.93	7025.2	
432.13	4509.6	
432.33	4436.6	
432.54	6143.9	
432.74	6317.3	
432.94	4366.3	
433.14	5251.7	
433.34	6622.4	
433.55	6141.2	
433.75	5130.2	
433.95	6485.2	
434.15	6404.7	
434.35	6130.9	
434.56	4575.8	
434.76	4177.2	
434.96	6313.2	
435.16	6606.1	
435.36	4420.9	
435.56	5401.2	
435.77	6109.1	
435.97	6212.9	
436.17	5877.7	
436.37	5328.1	
436.57	6075.6	
436.78	5988.3	
436.98	6692.8	
437.18	5690.6	
437.38	6550.8	
437.58	6154.8	
437.78	5812.1	
437.99	4835.3	
438.19	6630.6	
438.39	7183.6	
438.59	4693.3	
438.79	4276.2	
438.99	7163.8	
439.2	6190.3	
439.4	4424.3	
439.6	4474.1	
439.8	6517.3	
440	7324.9	
440.2	5283.1	
440.4	5284.4	
440.61	6812.9	
440.81	7212.9	
441.01	4615.4	
441.21	5251	
441.41	7114.6	
441.61	6838.9	
441.81	5561.6	
442.02	6277	
442.22	7487.4	
442.42	6854.6	
442.62	4668.7	
442.82	4746.5	
443.02	7206.1	
443.22	6481.8	
443.43	5074.2	
443.63	4620.2	
443.83	6252.4	
444.03	6270.9	
444.23	5662.6	
444.43	5323.4	
444.63	6606.7	
444.83	7511.9	
445.04	4711.7	
445.24	5757.5	
445.44	6864.8	
445.64	6867.5	
445.84	5341.1	
446.04	5345.2	
446.24	6353.5	
446.44	7044.3	
446.65	4685.1	
446.85	5034.6	
447.05	6659.3	
447.25	7114	
447.45	5218.2	
447.65	4603.2	
447.85	6655.2	
448.05	6251.8	
448.25	5472.2	
448.46	5314.5	
448.66	6547.4	
448.86	6298.9	
449.06	4586.8	
449.26	5513.1	
449.46	6842.3	
449.66	6118.6	
449.86	5090.6	
450.06	5067.4	
450.26	6263.4	
450.47	6722.1	
450.67	5249.6	
450.87	5496.7	
451.07	6845.7	
451.27	6624.5	
451.47	4751.3	
451.67	5146.5	
451.87	6393.8	
452.07	7290.1	
452.27	5025	
452.47	4867.3	
452.67	6673	
452.88	6982.2	
453.08	4384.7	
453.28	5943.9	
453.48	7589.8	
453.68	6530.3	
453.88	4841.4	
454.08	5020.9	
454.28	6893.5	
454.48	6550.1	
454.68	5477	
454.88	5828.5	
455.08	7015.7	
455.28	6746	
455.48	4744.5	
455.68	5318.6	
455.89	7367.9	
456.09	7012.2	
456.29	5013.4	
456.49	5137	
456.69	7236.2	
456.89	6675.7	
457.09	5508.4	
457.29	5767.8	
457.49	6989	
457.69	7016.3	
457.89	5397.8	
458.09	4927.4	
458.29	6758.3	
458.49	7372.7	
458.69	5772.5	
458.89	5217.5	
459.09	7535.2	
459.29	7605.5	
459.49	5225.1	
459.69	5937.1	
459.9	7150.1	
460.1	6785.6	
460.3	5180	
460.5	5098.1	
460.7	7130.3	
460.9	6804.7	
461.1	4857.8	
461.3	5792.3	
461.5	7719.5	
461.7	7341.3	
461.9	5094.7	
462.1	5522.7	
462.3	7037.5	
462.5	7422.5	
462.7	5238	
462.9	5269.4	
463.1	8314.8	
463.3	7968	
463.5	5487.9	
463.7	6186.9	
463.9	7246.4	
464.1	7498.3	
464.3	5685.2	
464.5	5718.6	
464.7	7654.6	
464.9	7353.6	
465.1	6861.4	
465.3	6035.4	
465.5	7859.4	
465.7	7957.7	
465.9	6259.3	
466.1	6083.8	
466.3	7863.5	
466.5	7685.3	
466.7	6868.2	
466.9	5915.2	
467.1	7693.5	
467.3	8397.4	
467.5	6758.3	
467.7	5964.4	
467.9	8546.9	
468.1	9289.6	
468.3	6404	
468.5	6820.4	
468.7	7550.9	
468.9	7537.9	
469.1	6200.6	
469.3	6642.2	
469.5	9200.8	
469.7	7318.1	
469.9	6520.7	
470.1	5927.5	
470.3	7725.6	
470.5	7613	
470.7	6952.2	
470.9	6013.5	
471.1	7408.9	
471.3	7778.2	
471.5	5788.2	
471.69	7331.7	
471.89	7395.2	
472.09	6989	
472.29	6423.1	
472.49	6802.7	
472.69	7092.1	
472.89	7780.2	
473.09	5737	
473.29	5914.5	
473.49	7226.6	
473.69	7334.5	
473.89	6632.7	
474.09	6007.4	
474.29	8402.1	
474.49	8073.8	
474.69	6562.4	
474.89	6109.1	
475.09	7445.7	
475.29	7406.1	
475.49	5656.5	
475.69	5850.4	
475.88	8690.2	
476.08	7733.8	
476.28	5593.7	
476.48	5877	
476.68	8092.9	
476.88	7839.6	
477.08	5772.5	
477.28	6085.2	
477.48	7492.8	
477.68	7961.8	
477.88	5634.6	
478.08	5867.4	
478.28	8189.1	
478.48	7557.7	
478.67	6001.2	
478.87	5492	
479.07	8060.1	
479.27	7617.1	
479.47	6121.4	
479.67	6107.7	
479.87	7965.9	
480.07	8309.3	
480.27	5575.3	
480.47	6842.9	
480.67	7727.7	
480.87	8218.5	
481.06	5780.7	
481.26	6545.3	
481.46	7690.8	
481.66	7555	
481.86	6121.4	
482.06	6850.5	
482.26	7421.2	
482.46	8072.4	
482.66	6085.9	
482.86	5812.1	
483.05	7767.9	
483.25	7135.1	
483.45	8101.8	
483.65	6062	
483.85	7374.7	
484.05	7574.1	
484.25	6492.1	
484.45	6862.7	
484.65	8258.1	
484.84	8216.5	
485.04	6098.9	
485.24	6085.9	
485.44	8569.4	
485.64	7157.7	
485.84	5484.5	
486.04	6610.8	
486.24	7498.3	
486.44	7764.5	
486.63	5470.1	
486.83	6167.1	
487.03	7370	
487.23	7581.6	
487.43	5630.5	
487.63	7492.2	
487.83	7599.3	
488.02	8411.7	
488.22	6333	
488.42	6858.6	
488.62	8290.2	
488.82	7499.7	
489.02	6167.8	
489.22	6094.8	
489.41	8147.5	
489.61	7939.3	
489.81	5857.9	
490.01	5885.2	
490.21	8141.4	
490.41	8709.3	
490.61	5909.8	
490.8	5971.9	
491	7745.4	
491.2	7240.3	
491.4	6431.3	
491.6	5755.5	
491.8	7664.9	
491.99	7818.5	
492.19	5636.7	
492.39	5948.7	
492.59	8172.8	
492.79	8244.4	
492.99	6613.6	
493.18	5938.4	
493.38	8330.5	
493.58	8881.4	
493.78	6528.9	
493.98	6138.4	
494.18	8060.1	
494.37	7643	
494.57	6613.6	
494.77	6594.5	
494.97	8304.5	
495.17	8447.2	
495.37	6258.6	
495.56	6541.9	
495.76	8667.7	
495.96	8384.4	
496.16	7260.7	
496.36	6436.8	
496.55	8479.3	
496.75	8101.8	
496.95	6808.8	
497.15	6567.2	
497.35	8538	
497.54	8374.1	
497.74	6532.3	
497.94	7866.2	
498.14	9043.8	
498.34	8867.7	
498.53	6276.3	
498.73	6883.9	
498.93	7923.6	
499.13	8477.2	
499.33	6762.4	
499.52	7100.3	
499.72	8509.3	
499.92	8682.7	
500.12	6479.1	
500.32	6655.9	
500.51	8642.4	
500.71	8476.5	
500.91	7292.1	
501.11	7044.3	
501.31	8599.4	
501.5	8982.4	
501.7	7573.4	
501.9	6755.6	
502.1	8430.8	
502.29	8790.6	
502.49	7040.2	
502.69	7425.9	
502.89	8570.7	
503.09	8645.2	
503.28	6374.6	
503.48	6379.4	
503.68	8141.4	
503.88	8023.9	
504.07	7249.8	
504.27	6782.9	
504.47	8299.1	
504.67	8386.4	
504.86	7152.9	
505.06	6841.6	
505.26	8110	
505.46	9357.9	
505.65	6774.7	
505.85	6923.5	
506.05	8073.1	
506.25	8458.1	
506.44	6173.9	
506.64	6920.8	
506.84	7984.3	
507.04	8629.5	
507.23	6375.3	
507.43	6793.8	
507.63	9538.8	
507.83	8087.4	
508.02	6829.3	
508.22	6535.8	
508.42	9650.7	
508.62	7840.3	
508.81	6692.1	
509.01	7174.7	
509.21	7811.6	
509.4	8032.8	
509.6	6872.3	
509.8	6381.5	
510	8005.5	
510.19	9128.5	
510.39	6294.8	
510.59	6322.1	
510.79	7935.2	
510.98	9022.7	
511.18	6491.4	
511.38	6594.5	
511.57	8546.2	
511.77	8287.4	
511.97	7058	
512.17	6343.2	
512.36	8536.6	
512.56	8449.2	
512.76	6331	
512.95	6113.2	
513.15	8694.3	
513.35	7509.9	
513.55	7016.3	
513.74	6403.3	
513.94	8615.8	
514.14	7991.9	
514.33	7069.6	
514.53	6892.1	
514.73	8051.9	
514.92	8125.7	
515.12	6424.5	
515.32	6294.1	
515.51	8227.4	
515.71	8619.9	
515.91	7733.1	
516.11	6269.5	
516.3	9463	
516.5	7912	
516.7	6760.3	
516.89	7145.4	
517.09	7986.4	
517.29	8017.8	
517.48	7010.2	
517.68	6483.2	
517.88	7671	
518.07	8247.2	
518.27	6931.7	
518.47	6240.8	
518.66	8701.1	
518.86	7709.2	
519.06	6079.1	
519.25	6431.3	
519.45	7915.4	
519.65	9112.1	
519.84	6953.5	
520.04	7536.5	
520.24	9374.9	
520.43	8415.8	
520.63	6648.4	
520.83	6494.8	
521.02	7770	
521.22	8287.4	
521.42	6895.5	
521.61	7309.9	
521.81	7973.4	
522.01	8187.8	
522.2	6877.1	
522.4	6601.3	
522.6	8585.1	
522.79	7468.9	
522.99	6701.6	
523.18	6163.7	
523.38	8314.1	
523.58	8307.9	
523.77	7666.2	
523.97	6115.2	
524.17	9669.1	
524.36	9055.4	
524.56	7139.9	
524.76	6892.1	
524.95	8281.3	
525.15	8033.5	
525.34	6800.6	
525.54	6840.9	
525.74	8593.3	
525.93	7802.8	
526.13	7770.7	
526.33	6771.3	
526.52	8912.1	
526.72	8495	
526.91	7777.5	
527.11	7156.3	
527.31	8847.9	
527.5	9233.6	
527.7	7189.1	
527.89	6404.7	
528.09	8153.6	
528.29	8590.5	
528.48	7504.4	
528.68	7177.4	
528.87	8899.1	
529.07	8960.5	
529.27	7144	
529.46	6730.3	
529.66	8514.1	
529.85	8852.7	
530.05	6619.7	
530.25	7197.9	
530.44	9695.8	
530.64	8472.4	
530.83	7001.3	
531.03	7175.4	
531.23	8966.7	
531.42	8747.6	
531.62	7800	
531.81	7052.5	
532.01	9013.1	
532.21	9332.6	
532.4	6903.7	
532.6	7234.8	
532.79	9695.8	
532.99	9090.3	
533.18	7280.5	
533.38	8040.3	
533.58	8753.7	
533.77	9297.8	
533.97	7286	
534.16	7849.2	
534.36	9466.4	
534.55	8740.7	
534.75	7968.6	
534.95	7319.4	
535.14	9396.8	
535.34	8784.4	
535.53	7019.1	
535.73	8720.9	
535.92	9797.5	
536.12	8794	
536.31	7148.1	
536.51	8035.5	
536.71	9134.6	
536.9	8834.9	
537.1	7267.6	
537.29	7380.2	
537.49	9389.9	
537.68	8736	
537.88	7637.6	
538.07	7045	
538.27	8891.6	
538.46	9685.5	
538.66	6938.5	
538.86	7290.1	
539.05	8984.4	
539.25	9360.6	
539.44	7570	
539.64	7224.6	
539.83	8852	
540.03	9691.7	
540.22	7132.4	
540.42	7236.2	
540.61	8970.1	
540.81	9084.1	
541	7647.1	
541.2	8078.6	
541.39	8637	
541.59	8867	
541.78	7748.8	
541.98	7015	
542.18	8402.1	
542.37	8443.8	
542.57	7394.5	
542.76	7766.6	
542.96	8405.5	
543.15	8904.6	
543.35	7382.9	
543.54	6914.6	
543.74	9099.1	
543.93	8796.7	
544.13	7392.5	
544.32	8232.8	
544.52	9111.4	
544.71	8476.5	
544.91	6624.5	
545.1	7602.1	
545.3	8537.3	
545.49	8961.2	
545.69	6609.5	
545.88	7038.9	
546.08	9747	
546.27	9373.6	
546.47	7487.4	
546.66	6905.1	
546.86	9222.7	
547.05	9620.7	
547.24	7052.5	
547.44	6964.5	
547.63	8314.1	
547.83	9225.4	
548.02	7314	
548.22	7400.7	
548.41	8168	
548.61	9226.1	
548.8	6832	
549	6865.5	
549.19	8757.8	
549.39	9004.9	
549.58	6587	
549.78	7174.7	
549.97	9054.8	
550.17	8706.6	
550.36	7825.3	
550.55	8528.4	
550.75	8521.6	
550.94	9284.8	
551.14	6860	
551.33	7114	
551.53	8079.2	
551.72	8781.7	
551.92	7093.5	
552.11	6943.3	
552.31	8911.4	
552.5	8811	
552.69	8245.8	
552.89	6735.8	
553.08	8858.1	
553.28	8558.5	
553.47	6936.5	
553.67	7881.3	
553.86	9310.1	
554.06	7998.7	
554.25	6364.4	
554.44	6703	
554.64	9937.4	
554.83	9567.4	
555.03	6692.1	
555.22	7027.3	
555.42	8958.5	
555.61	8695.7	
555.8	6920.8	
556	7169.9	
556.19	7957.7	
556.39	9024.7	
556.58	6892.8	
556.78	6927.6	
556.97	8634.9	
557.16	8377.6	
557.36	7779.6	
557.55	6636.1	
557.75	7888.1	
557.94	9265.7	
558.13	6733	
558.33	6514.6	
558.52	9108	
558.72	8170	
558.91	6529.6	
559.1	6791.7	
559.3	7976.2	
559.49	7688.8	
559.69	6399.2	
559.88	6914.6	
560.07	8564.6	
560.27	8950.3	
560.46	7152.9	
560.66	7328.3	
560.85	8445.8	
561.04	7765.9	
561.24	6549.4	
561.43	6683.2	
561.63	7959.1	
561.82	8221.9	
562.01	7735.9	
562.21	6898.2	
562.4	8475.2	
562.59	9317.6	
562.79	6902.3	
562.98	6534.4	
563.18	8415.8	
563.37	9553.1	
563.56	7225.9	
563.76	6535.8	
563.95	8077.2	
564.14	8047.8	
564.34	6759	
564.53	6590.4	
564.73	8526.4	
564.92	8758.5	
565.11	7027.3	
565.31	6478.4	
565.5	8918.2	
565.69	8063.5	
565.89	6717.3	
566.08	6895.5	
566.27	8806.3	
566.47	9161.2	
566.66	7399.3	
566.85	6394.4	
567.05	8609.7	
567.24	8077.9	
567.44	6609.5	
567.63	7740	
567.82	8647.9	
568.02	8486.1	
568.21	6651.1	
568.4	6876.4	
568.6	8446.5	
568.79	8465.6	
568.98	6571.9	
569.18	6676.4	
569.37	8385.7	
569.56	10002	
569.76	6928.3	
569.95	7572.7	
570.14	8817.9	
570.34	8541.4	
570.53	6591.7	
570.72	6547.4	
570.91	9089.6	
571.11	8514.8	
571.3	6984.3	
571.49	7731.8	
571.69	8479.3	
571.88	8030.1	
572.07	7380.2	
572.27	7402.7	
572.46	8048.5	
572.65	8872.5	
572.85	6744	
573.04	7047.1	
573.23	9282.1	
573.43	8473.1	
573.62	6636.1	
573.81	7066.9	
574	8596	
574.2	8406.9	
574.39	6916.7	
574.58	7025.9	
574.78	9291	
574.97	8638.3	
575.16	7372.7	
575.36	7473.7	
575.55	9049.3	
575.74	9125.1	
575.93	6554.9	
576.13	7507.9	
576.32	8456.1	
576.51	8958.5	
576.71	7009.5	
576.9	8070.4	
577.09	9230.9	
577.28	8792.6	
577.48	7328.3	
577.67	6539.2	
577.86	8562.6	
578.05	8801.5	
578.25	7049.8	
578.44	7175.4	
578.63	8593.3	
578.83	9592	
579.02	6609.5	
579.21	7838.9	
579.4	8781.7	
579.6	8591.2	
579.79	7170.6	
579.98	8900.5	
580.17	9022	
580.37	9168.1	
580.56	6799.3	
580.75	7352.2	
580.94	9439.1	
581.14	9437	
581.33	7797.3	
581.52	6896.2	
581.71	8937.3	
581.91	9509.4	
582.1	6666.8	
582.29	7089.4	
582.48	8681.3	
582.68	8649.9	
582.87	7544	
583.06	7219.1	
583.25	8954.4	
583.45	8774.9	
583.64	7720.2	
583.83	8259.5	
584.02	8537.3	
584.21	8966.7	
584.41	7653.3	
584.6	7148.8	
584.79	8755.7	
584.98	9193.3	
585.18	6722.1	
585.37	6724.8	
585.56	8324.3	
585.75	9024.7	
585.94	6913.3	
586.14	7425.3	
586.33	9456.2	
586.52	8710.7	
586.71	7330.4	
586.91	7092.8	
587.1	8198	
587.29	9092.3	
587.48	7053.2	
587.67	6991.1	
587.87	8886.8	
588.06	8895.7	
588.25	8124.3	
588.44	7420.5	
588.63	8638.3	
588.83	9066.4	
589.02	7068.9	
589.21	6877.1	
589.4	8448.6	
589.59	8372.1	
589.78	6341.2	
589.98	6533	
590.17	8029.4	
590.36	8415.1	
590.55	6053.8	
590.74	6681.8	
590.94	9521	
591.13	8349.6	
591.32	6561.7	
591.51	6112.5	
591.7	8757.8	
591.89	8304.5	
592.09	6276.3	
592.28	6618.4	
592.47	7653.3	
592.66	9192.6	
592.85	6225.1	
593.05	6432.7	
593.24	8167.3	
593.43	8807.6	
593.62	6544.6	
593.81	6833.4	
594	8215.1	
594.19	8412.4	
594.39	6382.8	
594.58	6289.3	
594.77	8416.5	
594.96	8854.1	
595.15	6361.7	
595.34	6818.4	
595.54	8439.7	
595.73	7746.1	
595.92	5841.5	
596.11	6838.2	
596.3	8806.3	
596.49	7842.4	
596.68	6634.7	
596.88	6860.7	
597.07	8574.2	
597.26	7655.3	
597.45	6078.4	
597.64	7167.2	
597.83	7866.2	
598.02	8381	
598.22	6275	
598.41	6784.2	
598.6	8191.2	
598.79	7751.6	
598.98	6240.8	
599.17	6918.7	
599.36	8208.9	
599.55	9075.9	
599.74	7902.4	
599.94	7615	
600.13	8688.2	
600.32	7674.4	
600.51	6060.6	
600.7	6098.9	
600.89	9062.3	
601.08	9146.9	
601.27	5970.5	
601.47	6716.7	
601.66	8536.6	
601.85	9074.5	
602.04	6561.7	
602.23	6746.7	
602.42	7864.2	
602.61	8256.7	
602.8	6423.1	
602.99	6225.1	
603.18	8072.4	
603.37	8196	
603.57	6784.9	
603.76	7198.6	
603.95	8910.7	
604.14	8357.1	
604.33	6355.5	
604.52	6534.4	
604.71	8203.5	
604.9	7851.2	
605.09	7034.1	
605.28	6893.5	
605.47	8642.4	
605.66	8310	
605.86	6763.1	
606.05	6263.4	
606.24	8708.6	
606.43	7565.2	
606.62	6620.4	
606.81	7141.3	
607	8623.3	
607.19	7954.3	
607.38	6010.8	
607.57	6225.8	
607.76	7706.5	
607.95	7421.8	
608.14	6632.7	
608.33	7075	
608.52	7795.9	
608.72	8462.2	
608.91	5975.3	
609.1	5883.8	
609.29	7864.9	
609.48	7490.1	
609.67	6682.5	
609.86	5987.6	
610.05	7575.4	
610.24	7744.7	
610.43	5885.9	
610.62	5631.2	
610.81	8706.6	
611	8501.1	
611.19	6012.2	
611.38	6544.6	
611.57	8132.5	
611.76	8973.5	
611.95	5795.1	
612.14	5712.5	
612.33	7851.2	
612.52	7494.2	
612.71	6301.6	
612.9	5533.6	
613.09	7231.4	
613.28	9045.2	
613.47	6126.2	
613.66	6733.7	
613.85	7981.6	
614.04	7598	
614.24	6039.5	
614.43	5430.5	
614.62	8097.7	
614.81	7996	
615	6529.6	
615.19	6492.1	
615.38	7474.4	
615.57	7833.5	
615.76	6346	
615.95	7163.1	
616.14	8178.2	
616.33	7815	
616.52	6651.8	
616.71	6769.2	
616.9	8014.4	
617.09	7848.5	
617.28	6105.7	
617.47	7069.6	
617.66	7335.1	
617.85	7385	
618.04	6868.9	
618.22	6389.7	
618.41	7599.3	
618.6	8333.2	
618.79	6315.3	
618.98	6125.5	
619.17	8611	
619.36	7247.8	
619.55	6220.4	
619.74	6331	
619.93	7965.2	
620.12	7527	
620.31	6772.6	
620.5	6793.1	
620.69	8719.6	
620.88	8821.3	
621.07	7348.8	
621.26	6614.9	
621.45	8198.7	
621.64	8192.6	
621.83	6770.6	
622.02	6111.8	
622.21	8215.1	
622.4	8001.4	
622.59	7126.9	
622.78	6939.9	
622.97	7806.9	
623.16	8557.1	
623.35	6733	
623.54	6072.2	
623.72	7887.4	
623.91	8009.6	
624.1	6920.1	
624.29	5854.5	
624.48	8858.8	
624.67	8334.6	
624.86	6817.7	
625.05	6093.4	
625.24	9048.6	
625.43	7745.4	
625.62	8104.5	
625.81	6321.4	
626	8421.9	
626.19	7864.2	
626.38	6937.2	
626.56	6463.4	
626.75	7818.5	
626.94	8419.9	
627.13	6916.7	
627.32	5900.2	
627.51	8329.1	
627.7	9364.7	
627.89	6068.1	
628.08	6963.1	
628.27	7650.5	
628.46	7897.7	
628.65	6319.3	
628.83	5840.8	
629.02	8293.6	
629.21	7731.8	
629.4	6567.2	
629.59	6753.5	
629.78	7684	
629.97	8455.4	
630.16	6710.5	
630.35	6346.7	
630.54	8931.9	
630.72	8607.6	
630.91	6333	
631.1	6731	
631.29	8125	
631.48	8196	
631.67	6784.9	
631.86	6430.6	
632.05	7893.6	
632.24	7948.2	
632.42	6154.1	
632.61	6664.1	
632.8	7933.8	
632.99	7643	
633.18	6667.5	
633.37	6923.5	
633.56	8092.9	
633.75	8056	
633.93	6703.7	
634.12	6399.2	
634.31	8861.6	
634.5	8416.5	
634.69	6447	
634.88	6765.1	
635.07	7983.7	
635.25	8454.7	
635.44	7171.3	
635.63	7360.4	
635.82	7853.3	
636.01	7401.4	
636.2	7096.2	
636.39	6762.4	
636.57	8744.1	
636.76	8378.2	
636.95	6292	
637.14	7367.2	
637.33	8327.7	
637.52	8956.4	
637.7	6096.1	
637.89	6895.5	
638.08	7922.9	
638.27	9063.6	
638.46	6945.3	
638.65	7241.6	
638.83	8976.9	
639.02	7743.4	
639.21	6738.5	
639.4	7274.4	
639.59	8202.1	
639.78	7810.3	
639.96	6230.6	
640.15	6296.1	
640.34	8013.7	
640.53	8135.2	
640.72	6086.6	
640.91	6354.2	
641.09	7525.6	
641.28	8616.5	
641.47	6253.1	
641.66	7005.4	
641.85	8092.2	
642.03	8265.6	
642.22	6746.7	
642.41	6393.1	
642.6	7579.5	
642.79	7137.9	
642.97	6203.3	
643.16	6797.2	
643.35	7565.9	
643.54	7472.4	
643.73	6066.8	
643.91	6738.5	
644.1	7376.1	
644.29	7829.4	
644.48	6193.1	
644.67	6285.2	
644.85	7527.7	
645.04	7778.2	
645.23	5755.5	
645.42	6075.6	
645.6	7435.5	
645.79	8355.7	
645.98	6075	
646.17	5345.2	
646.36	7184.3	
646.54	7598.6	
646.73	6733	
646.92	5816.9	
647.11	7293.5	
647.29	8127	
647.48	5798.5	
647.67	5632.6	
647.86	8377.6	
648.05	8243.8	
648.23	6051.1	
648.42	7019.1	
648.61	7797.3	
648.8	7621.9	
648.98	5739.1	
649.17	6025.1	
649.36	7237.5	
649.55	6870.3	
649.73	5717.9	
649.92	6318.7	
650.11	7163.8	
650.3	7473.7	
650.48	5869.5	
650.67	5716.6	
650.86	7666.2	
651.05	6771.3	
651.23	5810.1	
651.42	5789.6	
651.61	7253.9	
651.79	7232.7	
651.98	5994.4	
652.17	5601.9	
652.36	7559.1	
652.54	6918	
652.73	5785.5	
652.92	5551.4	
653.11	7539.9	
653.29	7604.8	
653.48	5195	
653.67	5907.7	
653.85	7404.1	
654.04	8255.4	
654.23	6090.7	
654.42	5748	
654.6	7046.4	
654.79	7576.1	
654.98	5246.9	
655.16	5711.1	
655.35	6686.6	
655.54	6556.9	
655.73	5341.1	
655.91	5276.3	
656.1	7523.6	
656.29	6496.2	
656.47	4867.3	
656.66	6279.8	
656.85	6784.2	
657.03	6780.1	
657.22	5342.5	
657.41	5314.5	
657.59	6885.3	
657.78	6763.1	
657.97	5146.5	
658.16	5696.1	
658.34	7392.5	
658.53	7814.4	
658.72	6399.9	
658.9	6837.5	
659.09	7105.8	
659.28	7024.5	
659.46	5517.9	
659.65	5408.7	
659.84	6786.3	
660.02	7254.6	
660.21	5495.4	
660.4	5342.5	
660.58	7633.5	
660.77	7035.5	
660.96	5877.7	
661.14	5103.5	
661.33	7976.2	
661.52	7901.1	
661.7	5026.4	
661.89	7914	
662.08	6744	
662.26	6432.7	
662.45	5287.2	
662.64	5432.6	
662.82	7320.1	
663.01	6723.5	
663.2	5406.6	
663.38	5979.4	
663.57	7206.8	
663.75	7164.5	
663.94	5593.7	
664.13	6625.9	
664.31	6740.5	
664.5	7251.2	
664.69	5904.3	
664.87	6189	
665.06	6509.8	
665.25	7102.4	
665.43	6413.6	
665.62	6406	
665.8	7395.2	
665.99	6860.7	
666.18	5575.9	
666.36	5672.2	
666.55	7307.2	
666.74	7148.1	
666.92	5310.4	
667.11	6638.1	
667.29	6868.9	
667.48	7387.7	
667.67	6288.6	
667.85	5468.1	
668.04	6834.8	
668.22	6810.2	
668.41	5628.5	
668.6	5804.6	
668.78	6675	
668.97	6860.7	
669.15	5865.4	
669.34	5076.9	
669.53	6675.7	
669.71	6987.7	
669.9	5258.5	
670.08	5780.7	
670.27	6583.5	
670.46	7142.6	
670.64	5963	
670.83	6143.9	
671.01	6537.1	
671.2	7025.2	
671.38	5369.1	
671.57	5245.5	
671.76	7585.7	
671.94	7981.6	
672.13	5166.3	
672.31	6001.9	
672.5	7245.7	
672.69	6751.5	
672.87	5323.4	
673.06	5587.5	
673.24	7152.9	
673.43	6783.6	
673.61	5865.4	
673.8	5509.7	
673.98	7234.1	
674.17	7385	
674.36	6044.9	
674.54	5884.5	
674.73	6980.8	
674.91	7292.1	
675.1	5626.5	
675.28	5261.2	
675.47	6849.1	
675.65	7324.9	
675.84	5496.7	
676.03	5767.1	
676.21	6660.7	
676.4	6275	
676.58	6158.2	
676.77	5913.2	
676.95	7905.8	
677.14	6645.7	
677.32	5215.5	
677.51	5140.4	
677.69	7292.1	
677.88	6415.6	
678.06	5194.3	
678.25	5352	
678.44	6855.2	
678.62	6706.4	
678.81	5114.5	
678.99	5774.6	
679.18	7539.3	
679.36	7118.7	
679.55	5502.9	
679.73	5969.8	
679.92	7197.9	
680.1	6655.9	
680.29	6491.4	
680.47	5502.9	
680.66	6687.3	
680.84	7287.4	
681.03	4939.7	
681.21	5847.6	
681.4	6641.6	
681.58	6610.8	
681.77	5336.3	
681.95	5193.6	
682.14	7340.6	
682.32	7618.4	
682.51	6029.2	
682.69	5081.7	
682.88	6623.1	
683.06	7008.1	
683.25	5798.5	
683.43	6102.3	
683.62	6866.8	
683.8	7197.9	
683.99	6264.7	
684.17	5611.4	
684.36	7820.5	
684.54	6805.4	
684.73	5019.6	
684.91	5130.2	
685.1	7040.9	
685.28	6527.6	
685.46	5657.2	
685.65	5653.1	
685.83	7165.2	
686.02	6744.6	
686.2	5154.7	
686.39	5218.2	
686.57	6433.4	
686.76	7573.4	
686.94	5152	
687.13	5345.9	
687.31	6939.9	
687.5	6667.5	
687.68	4846.2	
687.86	5857.2	
688.05	8023.9	
688.23	6234.7	
688.42	5819	
688.6	5180	
688.79	6564.4	
688.97	6556.9	
689.16	5523.4	
689.34	4734.2	
689.52	7103.7	
689.71	7400	
689.89	5756.8	
690.08	5206.6	
690.26	6771.9	
690.45	6680.5	
690.63	5964.4	
690.81	5467.4	
691	6670.9	
691.18	6531.7	
691.37	5474.2	
691.55	7122.8	
691.74	6476.4	
691.92	8148.9	
692.1	5455.1	
692.29	5001.8	
692.47	6608.8	
692.66	6104.3	
692.84	5205.9	
693.02	5603.2	
693.21	6196.5	
693.39	6652.5	
693.58	5641.5	
693.76	5186.8	
693.94	7524.2	
694.13	7348.8	
694.31	5195	
694.5	6010.1	
694.68	6412.2	
694.86	6686.6	
695.05	5380.7	
695.23	5821.7	
695.42	7062.1	
695.6	8795.3	
695.78	5915.2	
695.97	5255.1	
696.15	7075	
696.34	6659.3	
696.52	5103.5	
696.7	5666.7	
696.89	6871.6	
697.07	6368.5	
697.25	5675.6	
697.44	6744.6	
697.62	6884.6	
697.81	7040.9	
697.99	5352	
698.17	5781.4	
698.36	6328.2	
698.54	6878.4	
698.72	5614.2	
698.91	4844.8	
699.09	6488.6	
699.28	6367.8	
699.46	5399.1	
699.64	5255.8	
699.83	6347.3	
700.01	7219.1	
700.19	5897.5	
700.38	4568.3	
700.56	7261.4	
700.74	6442.9	
700.93	4913.8	
701.11	5580	
701.29	6836.1	
701.48	7692.2	
701.66	5092.6	
701.84	5126.1	
702.03	6552.1	
702.21	7081.2	
702.39	4792.2	
702.58	5278.3	
702.76	6778.8	
702.94	6845.7	
703.13	4763.6	
703.31	6705.7	
703.49	6259.3	
703.68	6982.2	
703.86	4948.6	
704.04	5691.3	
704.23	6645.7	
704.41	6965.8	
704.59	5074.2	
704.78	6058.6	
704.96	7556.3	
705.14	6940.6	
705.33	4887.8	
705.51	5508.4	
705.69	6427.9	
705.87	7081.9	
706.06	5749.3	
706.24	4838	
706.42	6749.4	
706.61	6903.7	
706.79	5747.3	
706.97	4810.7	
707.16	6255.2	
707.34	6684.6	
707.52	5666.7	
707.7	4976.6	
707.89	6432	
708.07	6051.1	
708.25	5648.3	
708.44	5716.6	
708.62	6233.3	
708.8	7223.2	
708.98	5816.2	
709.17	5001.1	
709.35	6647.7	
709.53	6623.1	
709.72	4737.6	
709.9	5152	
710.08	6856.6	
710.26	6824.5	
710.45	6025.8	
710.63	5015.5	
710.81	6506.4	
710.99	6466.1	
711.18	5443.5	
711.36	5122.7	
711.54	6289.3	
711.72	7016.3	
711.91	5137	
712.09	4676.9	
712.27	6537.8	
712.45	6976.7	
712.64	5323.4	
712.82	4501.4	
713	6040.1	
713.18	6191	
713.37	4653.7	
713.55	5633.3	
713.73	6881.2	
713.91	5791.7	
714.1	5004.6	
714.28	4563.6	
714.46	6600.6	
714.64	6024.4	
714.83	4037.9	
715.01	4697.4	
715.19	6072.2	
715.37	5499.5	
715.55	4461.8	
715.74	4724.7	
715.92	6660.7	
716.1	5092.6	
716.28	5622.4	
716.47	4770.4	
716.65	5677.7	
716.83	5663.3	
717.01	4630.5	
717.19	4686.4	
717.38	7413	
717.56	5449	
717.74	4894.6	
717.92	4175.8	
718.1	6374.6	
718.29	5726.8	
718.47	3804.4	
718.65	4362.2	
718.83	6298.2	
719.01	6171.2	
719.2	3725.3	
719.38	4639.3	
719.56	5986.2	
719.74	7249.8	
719.92	4317.1	
720.11	5153.4	
720.29	6110.5	
720.47	5366.4	
720.65	3984	
720.83	4604.5	
721.02	5656.5	
721.2	5453.1	
721.38	4678.9	
721.56	4101.4	
721.74	5070.8	
721.92	5180	
722.11	5061.2	
722.29	4838	
722.47	6260.6	
722.65	5528.8	
722.83	4039.3	
723.01	4844.1	
723.2	5496.1	
723.38	5813.5	
723.56	3594.9	
723.74	4506.9	
723.92	5202.5	
724.1	6040.8	
724.29	3989.4	
724.47	4940.4	
724.65	5266	
724.83	5129.5	
725.01	3891.1	
725.19	4629.1	
725.37	5190.2	
725.56	5214.8	
725.74	3766.9	
725.92	3923.9	
726.1	5096.7	
726.28	5374.6	
726.46	4298.7	
726.64	4089.1	
726.83	5394.3	
727.01	5584.1	
727.19	3760.1	
727.37	4449.6	
727.55	5468.1	
727.73	5874.3	
727.91	3764.2	
728.09	3624.2	
728.28	5871.5	
728.46	6207.4	
728.64	4514.4	
728.82	4401.1	
729	6640.2	
729.18	6156.9	
729.36	3756.7	
729.54	5546.6	
729.72	6813.6	
729.91	5492	
730.09	5360.9	
730.27	4296	
730.45	5432.6	
730.63	5945.3	
730.81	4752	
730.99	3929.4	
731.17	6326.9	
731.35	5195.7	
731.53	4430.4	
731.71	4018.8	
731.9	6171.9	
732.08	6253.8	
732.26	4315.1	
732.44	4037.2	
732.62	6239.5	
732.8	5921.4	
732.98	4631.8	
733.16	3850.9	
733.34	5882.4	
733.52	4820.9	
733.7	4201.1	
733.88	4442	
734.07	5687.2	
734.25	5486.5	
734.43	3842	
734.61	4987.5	
734.79	6793.8	
734.97	5484.5	
735.15	3930.7	
735.33	4203.1	
735.51	5736.4	
735.69	5487.2	
735.87	5089.2	
736.05	4322.6	
736.23	5531.6	
736.41	5309.7	
736.59	4162.2	
736.77	4312.3	
736.95	5901.6	
737.13	5431.2	
737.32	3876.1	
737.5	4100.7	
737.68	6375.3	
737.86	5330.9	
738.04	3713.7	
738.22	5260.5	
738.4	5224.4	
738.58	5452.4	
738.76	4170.3	
738.94	3426.3	
739.12	5292.6	
739.3	5199.1	
739.48	4719.9	
739.66	4484.4	
739.84	5489.2	
740.02	5419.6	
740.2	3472.7	
740.38	3802.4	
740.56	5760.9	
740.74	4812	
740.92	4315.1	
741.1	4223.6	
741.28	5282.4	
741.46	5203.2	
741.64	3923.2	
741.82	4342.4	
742	5339.1	
742.18	5268.1	
742.36	4082.3	
742.54	3795.6	
742.72	5804.6	
742.9	4780.6	
743.08	4431.8	
743.26	3462.4	
743.44	5915.2	
743.62	5839.4	
743.8	4495.3	
743.98	3776.5	
744.16	5583.4	
744.34	5307	
744.52	4477.5	
744.7	4333.5	
744.88	5692.7	
745.06	5265.3	
745.24	4465.9	
745.42	4586.1	
745.6	5844.2	
745.78	5603.9	
745.96	3505.4	
746.14	3857	
746.32	6394.4	
746.5	5791	
746.68	4273.4	
746.86	3833.1	
747.03	6050.4	
747.21	4803.2	
747.39	4218.8	
747.57	3819.5	
747.75	5440.8	
747.93	5799.8	
748.11	3820.8	
748.29	3741.6	
748.47	6746	
748.65	5193.6	
748.83	4384.7	
749.01	4138.3	
749.19	5636	
749.37	4942.4	
749.55	4064.5	
749.73	4138.9	
749.91	5380	
750.09	5138.4	
750.26	4113.7	
750.44	3661.8	
750.62	5386.2	
750.8	5341.8	
750.98	3595.6	
751.16	3854.3	
751.34	5463.3	
751.52	4872.1	
751.7	4494.6	
751.88	3527.3	
752.06	5819.6	
752.24	5602.6	
752.42	3530	
752.59	3761.4	
752.77	5379.3	
752.95	6375.3	
753.13	4387.4	
753.31	3914.4	
753.49	5096.7	
753.67	5466	
753.85	4151.2	
754.03	3802.4	
754.21	5692.7	
754.38	5961.6	
754.56	3913.7	
754.74	3205.1	
754.92	5097.4	
755.1	5634.6	
755.28	3244.7	
755.46	3262.4	
755.64	6312.5	
755.82	6473.6	
755.99	3610.6	
756.17	3706.1	
756.35	4447.5	
756.53	5726.8	
756.71	2850.8	
756.89	3596.2	
757.07	5459.9	
757.25	4659.8	
757.42	4041.3	
757.6	4688.5	
757.78	5416.9	
757.96	4605.9	
758.14	3695.9	
758.32	3325.2	
758.5	4267.3	
758.67	5010	
758.85	3594.2	
759.03	3652.2	
759.21	5134.3	
759.39	4632.5	
759.57	3274.7	
759.75	4098.7	
759.92	5641.5	
760.1	5096	
760.28	4468	
760.46	4643.4	
760.64	4849.6	
760.82	4626.4	
760.99	4098	
761.17	3655.6	
761.35	5441.5	
761.53	4599.1	
761.71	3768.3	
761.89	4299.4	
762.06	5328.8	
762.24	4947.9	
762.42	3739.6	
762.6	3559.4	
762.78	4887.1	
762.96	5457.2	
763.13	4047.5	
763.31	3722.5	
763.49	5460.6	
763.67	4831.2	
763.85	4458.4	
764.02	4897.4	
764.2	5783.5	
764.38	5042.8	
764.56	3689.1	
764.74	4384	
764.91	5823.7	
765.09	4995	
765.27	3517.7	
765.45	3258.3	
765.63	5943.9	
765.8	5734.3	
765.98	3099.9	
766.16	3336.1	
766.34	4621.6	
766.52	4455.7	
766.69	4171	
766.87	3188	
767.05	4973.8	
767.23	5550.7	
767.41	3478.8	
767.58	3750.5	
767.76	5412.1	
767.94	5486.5	
768.12	3599	
768.29	4105.5	
768.47	5094.7	
768.65	5649.7	
768.83	3311.6	
769	4166.9	
769.18	4758.8	
769.36	5279	
769.54	4184.7	
769.72	3278.1	
769.89	5549.3	
770.07	5573.2	
770.25	3637.2	
770.43	4601.1	
770.6	6137.8	
770.78	6483.9	
770.96	3734.1	
771.14	4205.2	
771.31	5489.2	
771.49	4924.7	
771.67	3079.5	
771.85	3274	
772.02	4288.4	
772.2	4980.7	
772.38	3820.1	
772.55	3504.1	
772.73	5151.3	
772.91	5019.6	
773.09	3750.5	
773.26	3865.2	
773.44	5124	
773.62	4857.8	
773.8	3352.5	
773.97	3188	
774.15	5182	
774.33	4917.9	
774.5	3267.9	
774.68	3552.5	
774.86	5330.2	
775.04	4952	
775.21	3334.1	
775.39	3373.7	
775.57	5146.5	
775.74	5427.1	
775.92	3289.7	
776.1	3059.7	
776.27	5141.8	
776.45	6079.1	
776.63	3433.8	
776.81	2988.7	
776.98	4812.7	
777.16	5732.3	
777.34	3517	
777.51	3734.1	
777.69	4867.3	
777.87	4636.6	
778.04	3583.3	
778.22	4038.6	
778.4	4651.6	
778.57	5186.1	
778.75	2973	
778.93	3173	
779.1	4588.1	
779.28	4369.7	
779.46	2987.3	
779.64	3319.8	
779.81	5380.7	
779.99	6010.1	
780.17	3985.3	
780.34	4072.7	
780.52	4927.4	
780.69	5086.5	
780.87	3629.7	
781.05	3226.9	
781.22	4956.8	
781.4	5036	
781.58	3453.6	
781.75	2742.2	
781.93	5033.2	
782.11	4389.5	
782.28	4132.1	
782.46	3463.1	
782.64	4411.3	
782.81	5106.3	
782.99	3491.1	
783.17	3422.2	
783.34	4990.2	
783.52	4442	
783.69	3640.6	
783.87	4237.2	
784.05	4561.5	
784.22	4530.1	
784.4	4257.7	
784.58	3702	
784.75	5271.5	
784.93	4565.6	
785.1	3416	
785.28	3948.5	
785.46	5022.3	
785.63	4478.9	
785.81	3422.8	
785.99	3304.1	
786.16	4709	
786.34	4934.9	
786.51	3310.9	
786.69	3717.1	
786.87	4281.6	
787.04	4763.6	
787.22	3245.3	
787.39	3949.8	
787.57	4484.4	
787.75	5429.2	
787.92	4145.1	
788.1	4059.1	
788.27	4518.5	
788.45	4332.1	
788.63	3818.8	
788.8	2818	
788.98	4904.2	
789.15	4224.3	
789.33	2988	
789.5	3422.2	
789.68	5255.1	
789.86	5388.2	
790.03	3781.2	
790.21	3304.7	
790.38	5328.1	
790.56	4634.6	
790.73	3235.1	
790.91	3218	
791.09	4584.7	
791.26	5210	
791.44	3500.7	
791.61	3015.3	
791.79	4569.7	
791.96	4546.5	
792.14	3069.2	
792.32	2744.3	
792.49	4524.6	
792.67	4631.1	
792.84	3162.1	
793.02	2972.3	
793.19	4959.5	
793.37	5464	
793.54	2803.7	
793.72	3016	
793.89	5498.1	
794.07	4483	
794.25	3445.4	
794.42	2834.4	
794.6	5331.5	
794.77	5089.2	
794.95	3747.1	
795.12	3295.2	
795.3	4579.3	
795.47	5070.8	
795.65	3588.7	
795.82	3454.2	
796	4370.4	
796.17	5853.8	
796.35	3378.5	
796.52	3938.2	
796.7	4972.5	
796.87	5146.5	
797.05	3362.1	
797.22	4087.1	
797.4	5057.8	
797.57	5851	
797.75	3519.8	
797.92	3259	
798.1	5276.9	
798.27	4465.3	
798.45	2879.4	
798.62	3073.3	
798.8	4848.2	
798.97	5190.9	
799.15	3642.7	
799.32	3536.8	
799.5	4225	
799.67	4827.7	
799.85	3753.9	
800.02	2807.1	
800.2	4498.7	
800.37	4764.3	
800.55	3886.4	
800.72	3295.9	
800.9	5186.8	
801.07	5522	
801.25	4348.5	
801.42	3604.4	
801.6	5238.7	
801.77	4934.9	
801.95	3350.5	
802.12	3177.8	
802.29	4942.4	
802.47	4921.3	
802.64	3564.8	
802.82	2778.4	
802.99	4598.4	
803.17	5311.7	
803.34	3506.1	
803.52	3194.1	
803.69	5804.6	
803.87	4382.7	
804.04	3542.3	
804.21	3554.6	
804.39	5456.5	
804.56	4657.8	
804.74	3022.1	
804.91	3603.7	
805.09	4555.4	
805.26	4611.3	
805.44	3042.6	
805.61	3327.9	
805.78	5084.4	
805.96	5076.2	
806.13	3609.9	
806.31	3844.7	
806.48	4179.2	
806.66	4573.8	
806.83	3589.4	
807	3579.8	
807.18	4582.7	
807.35	4891.9	
807.53	3521.8	
807.7	2866.5	
807.87	5449.6	
808.05	4607.9	
808.22	3796.3	
808.4	2880.1	
808.57	4569.7	
808.74	4268.6	
808.92	3240.6	
809.09	4098.7	
809.27	4526.7	
809.44	4920.6	
809.61	2899.9	
809.79	3233.1	
809.96	5558.9	
810.14	5171.8	
810.31	2805.7	
810.48	3442	
810.66	4646.2	
810.83	5257.8	
811.01	3284.3	
811.18	3559.4	
811.35	5162.2	
811.53	4137.6	
811.7	3836.5	
811.87	3601	
812.05	4644.8	
812.22	4580.6	
812.39	3155.2	
812.57	3041.2	
812.74	4580.6	
812.92	5982.8	
813.09	3386	
813.26	3719.8	
813.44	5656.5	
813.61	4531.5	
813.78	2884.2	
813.96	3736.2	
814.13	4610.7	
814.3	4374.5	
814.48	4045.4	
814.65	3376.4	
814.82	5538.4	
815	4317.1	
815.17	3450.1	
815.34	4194.9	
815.52	4558.1	
815.69	4521.9	
815.87	3431.7	
816.04	3400.3	
816.21	4601.1	
816.38	4093.2	
816.56	3355.9	
816.73	3158.7	
816.9	5685.2	
817.08	5204.6	
817.25	3138.9	
817.42	3891.8	
817.6	4246.8	
817.77	4577.2	
817.94	3573	
818.12	3095.8	
818.29	4379.9	
818.46	6445.6	
818.64	3272.7	
818.81	3045.3	
818.98	4349.9	
819.16	6038.8	
819.33	3705.5	
819.5	3448.1	
819.67	4873.5	
819.85	5434.6	
820.02	3470.6	
820.19	3575.1	
820.37	4741	
820.54	4502.8	
820.71	3611.3	
820.88	4326	
821.06	4767.7	
821.23	4354.7	
821.4	3531.4	
821.58	3521.8	
821.75	5153.4	
821.92	4735.6	
822.09	2852.8	
822.27	2941.6	
822.44	4565.6	
822.61	4490.5	
822.79	2872.6	
822.96	5362.3	
823.13	4925.4	
823.3	4386.7	
823.48	3320.4	
823.65	2985.9	
823.82	5201.2	
823.99	4220.9	
824.17	4128.7	
824.34	3048.7	
824.51	5872.2	
824.68	4636.6	
824.86	3199.6	
825.03	3468.6	
825.2	4555.4	
825.37	5425.8	
825.55	3144.3	
825.72	3452.9	
825.89	5875.6	
826.06	5555.5	
826.24	3407.8	
826.41	3430.3	
826.58	5494	
826.75	4857.8	
826.92	2794.8	
827.1	2997.5	
827.27	7236.2	
827.44	5923.4	
827.61	3203.7	
827.79	3882.3	
827.96	4420.9	
828.13	4604.5	
828.3	3365.5	
828.47	2884.2	
828.65	4895.3	
828.82	4790.9	
828.99	4244.1	
829.16	3689.1	
829.34	5136.3	
829.51	4942.4	
829.68	3463.1	
829.85	3645.4	
830.02	5469.4	
830.2	5137.7	
830.37	2735.4	
830.54	4126.7	
830.71	5767.8	
830.88	4633.9	
831.05	2700.6	
831.23	3130	
831.4	5646.2	
831.57	6124.8	
831.74	3244.7	
831.91	2870.6	
832.09	4902.2	
832.26	5113.8	
832.43	3345	
832.6	3707.5	
832.77	4838.7	
832.94	5440.8	
833.12	2658.3	
833.29	3288.4	
833.46	4928.8	
833.63	6240.2	
833.8	3586	
833.97	3360	
834.15	5136.3	
834.32	4974.5	
834.49	3493.8	
834.66	3499.3	
834.83	5249.6	
835	4396.3	
835.17	3211.2	
835.35	3205.1	
835.52	5059.2	
835.69	4965	
835.86	3370.3	
836.03	2809.1	
836.2	5139.7	
836.37	4824.3	
836.55	3321.1	
836.72	3102	
836.89	4767.7	
837.06	5207.3	
837.23	3403	
837.4	3661.1	
837.57	5812.1	
837.75	6263.4	
837.92	3100.6	
838.09	3224.2	
838.26	4778.6	
838.43	5309.7	
838.6	3495.2	
838.77	3194.8	
838.94	5946.6	
839.11	5770.5	
839.29	3343	
839.46	2639.8	
839.63	5137	
839.8	4865.3	
839.97	3223.5	
840.14	3177.8	
840.31	4949.9	
840.48	5185.5	
840.65	2741.5	
840.82	3164.1	
841	5076.2	
841.17	4979.3	
841.34	3009.8	
841.51	3053.5	
841.68	5053	
841.85	4879.6	
842.02	3113.6	
842.19	2642.6	
842.36	4934.2	
842.53	4944.5	
842.7	2990.7	
842.87	3622.9	
843.05	6236.7	
843.22	4867.3	
843.39	2890.4	
843.56	3121.8	
843.73	4677.6	
843.9	5201.8	
844.07	4705.5	
844.24	3918.4	
844.41	7045.7	
844.58	4498	
844.75	2886.3	
844.92	3127.9	
845.09	5055.1	
845.26	5086.5	
845.43	2918.4	
845.6	3153.9	
845.77	5128.1	
845.94	4891.2	
846.12	3284.9	
846.29	3483.6	
846.46	5302.9	
846.63	5061.9	
846.8	2960	
846.97	3512.9	
847.14	5493.3	
847.31	5081	
847.48	3327.3	
847.65	3634.5	
847.82	5289.2	
847.99	5213.4	
848.16	3908.9	
848.33	3588	
848.5	4732.2	
848.67	5523.4	
848.84	2969.6	
849.01	3067.9	
849.18	4642.7	
849.35	4367.6	
849.52	3705.5	
849.69	2949.8	
849.86	5311.1	
850.03	5390.3	
850.2	2966.1	
850.37	3590.1	
850.54	5418.2	
850.71	4814.8	
850.88	3562.8	
851.05	2923.8	
851.22	4980	
851.39	5554.8	
851.56	2820.7	
851.73	3390.1	
851.9	4539	
852.07	5279.7	
852.24	3300.6	
852.41	2960	
852.58	5044.1	
852.75	4590.2	
852.92	3309.5	
853.09	2904.7	
853.26	4731.5	
853.43	5444.2	
853.6	3001	
853.77	2570.2	
853.94	5507	
854.11	4500.1	
854.28	4275.5	
854.44	3220.1	
854.61	5872.9	
854.78	5320.6	
854.95	2947	
855.12	3715	
855.29	4204.5	
855.46	5793	
855.63	2993.4	
855.8	4016.1	
855.97	4700.8	
856.14	5388.2	
856.31	4146.5	
856.48	3264.5	
856.65	4807.3	
856.82	4459.1	
856.99	2882.9	
857.16	3158.7	
857.33	6084.5	
857.49	4822.3	
857.66	3191.4	
857.83	3403	
858	4827.7	
858.17	4959.5	
858.34	2787.3	
858.51	2992.8	
858.68	5603.9	
858.85	5645.6	
859.02	3392.8	
859.19	3623.5	
859.36	4547.2	
859.52	4551.3	
859.69	3013.9	
859.86	3489.7	
860.03	4587.4	
860.2	5495.4	
860.37	2723.1	
860.54	3028.9	
860.71	5271.5	
860.88	5567.1	
861.05	3337.5	
861.21	3734.1	
861.38	5604.6	
861.55	4449.6	
861.72	2733.4	
861.89	3287.7	
862.06	5326.8	
862.23	5625.8	
862.4	2877.4	
862.56	3064.4	
862.73	5141.1	
862.9	4902.8	
863.07	3444.7	
863.24	2712.2	
863.41	4512.4	
863.58	4552.6	
863.75	3007.1	
863.91	3502	
864.08	5481	
864.25	5180	
864.42	3684.3	
864.59	4055.7	
864.76	5813.5	
864.93	4552	
865.09	2908.1	
865.26	3165.5	
865.43	5530.2	
865.6	5849	
865.77	2596.1	
865.94	2947.7	
866.1	5511.1	
866.27	5236.7	
866.44	4371	
866.61	2774.3	
866.78	4846.2	
866.95	5253	
867.11	2923.1	
867.28	2656.2	
867.45	5392.3	
867.62	4539	
867.79	3442.6	
867.96	2945.7	
868.12	4532.8	
868.29	5367	
868.46	2977.1	
868.63	3904.1	
868.8	5388.9	
868.97	5251.7	
869.13	3114.3	
869.3	3097.2	
869.47	5130.8	
869.64	5362.9	
869.81	2968.2	
869.97	3032.4	
870.14	5083.1	
870.31	5597.1	
870.48	2886.3	
870.65	3710.2	
870.81	4839.4	
870.98	4870.1	
871.15	3295.9	
871.32	3101.3	
871.48	5172.5	
871.65	5682.4	
871.82	2868.5	
871.99	3300	
872.16	6035.4	
872.32	5435.3	
872.49	3046	
872.66	3026.9	
872.83	5254.4	
872.99	4647.5	
873.16	3362.8	
873.33	3022.1	
873.5	4958.8	
873.67	5015.5	
873.83	3086.3	
874	3927.3	
874.17	5085.1	
874.34	5886.5	
874.5	3775.1	
874.67	3629	
874.84	5580	
875.01	4459.8	
875.17	4135.5	
875.34	2972.3	
875.51	5000.5	
875.68	5940.5	
875.84	3554.6	
876.01	4218.8	
876.18	5209.3	
876.34	5193.6	
876.51	3009.8	
876.68	2926.5	
876.85	4842.1	
877.01	5494.7	
877.18	4147.8	
877.35	2934.7	
877.52	4957.4	
877.68	4458.4	
877.85	2936.1	
878.02	2925.2	
878.18	4900.1	
878.35	4634.6	
878.52	2402.9	
878.69	3268.6	
878.85	5360.2	
879.02	5266.7	
879.19	4135.5	
879.35	3160	
879.52	5233.2	
879.69	5354.1	
879.86	2651.4	
880.02	3269.9	
880.19	4894	
880.36	5903.6	
880.52	3355.9	
880.69	3514.3	
880.86	5339.1	
881.02	5322.7	
881.19	3220.1	
881.36	3196.2	
881.52	5225.1	
881.69	4638.6	
881.86	3207.8	
882.02	3123.8	
882.19	5498.8	
882.36	6303	
882.52	2984.6	
882.69	4085.7	
882.86	5053	
883.02	5025	
883.19	3564.8	
883.36	3342.3	
883.52	5337.7	
883.69	5980.1	
883.86	2994.1	
884.02	2710.8	
884.19	5267.4	
884.36	4919.9	
884.52	3327.9	
884.69	3183.9	
884.86	4762.9	
885.02	5702.2	
885.19	3294.5	
885.36	3409.9	
885.52	4855.7	
885.69	5145.2	
885.86	4237.9	
886.02	3790.8	
886.19	5283.1	
886.35	4812	
886.52	3279.5	
886.69	4072.7	
886.85	4575.8	
887.02	5537	
887.19	5537	
887.35	5537	
887.52	5537	
887.68	5537	
887.85	5537	
888.02	5537	
888.18	5537	
888.35	5537	
888.51	5537	
888.68	5537	
888.85	5537	
889.01	5537	
889.18	5537	
889.35	5537	
889.51	5537	
889.68	5537	
889.84	5537	
890.01	5537	
890.17	5537	
890.34	5537	
890.51	5537	
890.67	5537	
890.84	5537	
891	5537	
891.17	5537	
891.34	5537	
891.5	5537	
891.67	5537	
891.83	5537	
892	5537	
892.16	5537	
892.33	5537	
892.5	5537	
892.66	5537	
892.83	5537	
892.99	5537	
893.16	5537	
893.32	5537	
893.49	5537	
893.65	5537	
893.82	5537	
893.99	5537	
894.15	5537	
894.32	5537	
894.48	5537	
894.65	5537	
894.81	5537	
894.98	5537	
895.14	5537	
895.31	5537	
895.47	5537	
895.64	5537	
895.81	5537	
895.97	5537	
896.14	5537	
896.3	5537	
896.47	5537	
896.63	5537	
896.8	5537	
896.96	5537	
897.13	5537	
897.29	5537	
897.46	5537	
897.62	5537	
897.79	5537	
897.95	5537	
898.12	5537	
898.28	5537	
898.45	5537	
898.61	5537	
898.78	5537	
898.94	5537	
899.11	5537	
899.27	5537	
899.44	5537	
899.6	5537	
899.77	5537	
899.93	5537	
900.1	5537	
900.26	5537	
900.43	5537	
900.59	5537	
900.76	5537	
900.92	5537	
901.09	5537	
901.25	5537	
901.42	5537	
901.58	5537	
901.75	5537	
901.91	5537	
902.07	5537	
902.24	5537	
902.4	5537	
902.57	5537	
902.73	5537	
902.9	5537	
903.06	5537	
903.23	5537	
903.39	5537	
903.56	5537	
903.72	5537	
903.88	5537	
904.05	5537	
904.21	5537	
904.38	5537	
904.54	5537	
904.71	5537	
904.87	5537	
905.03	5537	
905.2	5537	
905.36	5537	
905.53	5537	
905.69	5537	
905.86	5537	
906.02	5537	
906.18	5537	
906.35	5537	
906.51	5537	
906.68	5537	
906.84	5537	
907.01	5537	
907.17	5537	
907.33	5537	
907.5	5537	
907.66	5537	
907.83	5537	
907.99	5537	
908.15	5537	
908.32	5537	
908.48	5537	
908.65	5537	
908.81	5537	
908.97	5537	
909.14	5537	
909.3	5537	
909.47	5537	
909.63	5537	
909.79	5537	
909.96	5537	
910.12	5537	
910.28	5537	
910.45	5537	
910.61	5537	
910.78	5537	
910.94	5537	
911.1	5537	
911.27	5537	
911.43	5537	
911.59	5537	
911.76	5537	
911.92	5537	
912.08	5537	
912.25	5537	
912.41	5537	
912.57	5537	
912.74	5537	
912.9	5537	
913.07	5537	
913.23	5537	
913.39	5537	
913.56	5537	
913.72	5537	
913.88	5537	
914.05	5537	
914.21	5537	
914.37	5537	
914.54	5537	
914.7	5537	
914.86	5537	
915.03	5537	
915.19	5537	
