Wavelength	Intensities	
nm	a.u.	
179.22	1413.6	
179.44	1408.7	
179.65	1418.6	
179.86	1398.8	
180.08	1404.2	
180.29	2948.4	
180.51	2396.8	
180.72	4209.9	
180.94	4466.6	
181.15	2191.3	
181.37	2165.4	
181.58	3998.3	
181.79	4044.7	
182.01	2243.9	
182.22	2252.8	
182.44	4263.2	
182.65	3753.9	
182.87	2720.4	
183.08	2486.9	
183.29	4370.4	
183.51	3763.5	
183.72	2238.4	
183.94	2981.8	
184.15	4049.5	
184.37	3880.2	
184.58	2111.5	
184.79	2539.5	
185.01	3880.2	
185.22	4349.2	
185.44	2611.8	
185.65	2458.9	
185.86	4133.5	
186.08	3800.3	
186.29	2108	
186.51	2242.5	
186.72	3921.2	
186.94	4269.3	
187.15	2522.4	
187.36	2493.1	
187.58	5028.4	
187.79	4107.5	
188.01	2471.2	
188.22	3477.5	
188.43	4590.9	
188.65	4214.7	
188.86	2276	
189.08	2517	
189.29	3945.1	
189.5	3821.5	
189.72	2292.4	
189.93	2360.6	
190.15	4313	
190.36	4734.2	
190.57	2528.6	
190.79	2375.6	
191	4259.8	
191.22	4242.7	
191.43	2540.2	
191.64	2270.5	
191.86	4379.9	
192.07	4286.4	
192.29	2291	
192.5	2293	
192.71	4328.7	
192.93	3981.3	
193.14	2273.2	
193.35	2340.8	
193.57	3885.7	
193.78	4337.6	
194	2008.4	
194.21	2248.7	
194.42	3624.9	
194.64	4006.5	
194.85	2447.3	
195.07	2755.9	
195.28	3989.4	
195.49	3646.7	
195.71	2844.6	
195.92	2207.7	
196.13	4166.3	
196.35	4057.7	
196.56	2932.7	
196.78	2476.7	
196.99	4743.8	
197.2	4512.4	
197.42	2656.2	
197.63	2476	
197.84	3753.9	
198.06	4138.9	
198.27	2377	
198.48	2861	
198.7	3874.1	
198.91	4126	
199.13	2536.1	
199.34	2474.6	
199.55	4408.6	
199.77	3508.9	
199.98	2285.5	
200.19	2520.4	
200.41	4052.9	
200.62	3800.3	
200.83	2499.9	
201.05	2678.7	
201.26	4037.9	
201.47	3904.8	
201.69	2272.6	
201.9	2301.2	
202.11	4108.2	
202.33	4446.8	
202.54	2347.7	
202.76	2560	
202.97	4026.3	
203.18	4110.3	
203.4	2499.2	
203.61	2695.8	
203.82	4034.5	
204.04	3787.4	
204.25	2509.4	
204.46	2403	
204.68	3992.2	
204.89	4095.9	
205.1	2407	
205.32	2170.8	
205.53	4109.6	
205.74	4252.3	
205.96	2019.3	
206.17	2467.1	
206.38	4132.1	
206.6	4270	
206.81	2710.1	
207.02	2381.8	
207.24	4175.8	
207.45	4340.3	
207.66	2388.6	
207.88	2198.2	
208.09	4095.9	
208.3	3984	
208.52	2278.7	
208.73	2465.8	
208.94	3999.7	
209.15	4332.1	
209.37	2381.1	
209.58	2481.5	
209.79	4186.7	
210.01	3983.3	
210.22	2095.1	
210.43	2153.1	
210.65	3870.7	
210.86	4150.6	
211.07	2400.9	
211.29	2199.5	
211.5	4031.8	
211.71	3995.6	
211.93	2317.6	
212.14	2275.3	
212.35	4022.9	
212.56	3984.7	
212.78	2450.7	
212.99	2127.2	
213.2	4425	
213.42	3969	
213.63	2347.7	
213.84	2325.8	
214.06	3824.9	
214.27	3672.7	
214.48	2385.9	
214.69	2511.5	
214.91	4389.5	
215.12	4341.7	
215.33	2467.1	
215.55	2579.8	
215.76	4610	
215.97	4136.9	
216.18	2480.8	
216.4	2448.7	
216.61	3830.4	
216.82	4247.5	
217.04	2321.7	
217.25	2323.1	
217.46	4316.4	
217.67	4189.5	
217.89	2147	
218.1	2170.8	
218.31	3942.3	
218.53	4149.2	
218.74	2411.1	
218.95	2264.4	
219.16	4061.1	
219.38	4415.4	
219.59	2249.4	
219.8	2597.5	
220.01	4549.9	
220.23	4045.4	
220.44	2696.5	
220.65	2223.4	
220.87	4109.6	
221.08	4304.8	
221.29	2232.3	
221.5	2629.6	
221.72	4749.2	
221.93	3734.8	
222.14	2463	
222.35	2807.8	
222.57	3953.3	
222.78	4317.1	
222.99	2443.9	
223.2	2499.9	
223.42	4048.8	
223.63	4120.5	
223.84	2007.7	
224.05	2035.7	
224.27	4439.3	
224.48	4369.7	
224.69	2805	
224.9	2491.7	
225.12	4032.5	
225.33	4022.2	
225.54	2159.9	
225.75	2295.1	
225.97	3817.4	
226.18	4003.8	
226.39	2341.5	
226.6	2304.6	
226.82	3938.9	
227.03	3758.7	
227.24	2414.6	
227.45	2168.8	
227.67	4301.4	
227.88	4321.9	
228.09	2706.7	
228.3	2689	
228.52	4167.6	
228.73	3936.2	
228.94	2340.1	
229.15	2163.3	
229.36	4078.2	
229.58	4069.3	
229.79	2437.8	
230	2535.4	
230.21	4525.3	
230.43	3997.6	
230.64	2456.2	
230.85	2498.5	
231.06	4255	
231.28	4253.6	
231.49	2174.9	
231.7	2518.3	
231.91	4255	
232.12	3986.7	
232.34	2254.8	
232.55	2357.9	
232.76	4290.5	
232.97	4014	
233.18	2293	
233.4	2467.1	
233.61	3977.2	
233.82	3904.8	
234.03	2377.7	
234.25	2342.2	
234.46	4921.3	
234.67	4003.1	
234.88	2480.8	
235.09	2344.2	
235.31	4001	
235.52	3934.8	
235.73	2424.8	
235.94	2218	
236.15	3918.4	
236.37	4505.5	
236.58	2269.8	
236.79	2404.3	
237	4154	
237.21	3751.2	
237.43	2517	
237.64	2183.8	
237.85	5802.6	
238.06	3893.9	
238.27	2468.5	
238.48	2190.6	
238.7	4169	
238.91	4014	
239.12	2395.4	
239.33	2504.7	
239.54	3814.7	
239.76	3956.7	
239.97	2435	
240.18	2403.6	
240.39	4508.3	
240.6	4018.1	
240.82	2538.1	
241.03	2194.7	
241.24	3945.8	
241.45	4330.1	
241.66	2275.3	
241.87	2572.2	
242.09	4430.4	
242.3	4463.9	
242.51	2612.5	
242.72	2372.2	
242.93	4170.3	
243.14	3846.1	
243.36	2660.3	
243.57	2806.4	
243.78	4387.4	
243.99	4091.8	
244.2	2336	
244.41	2179	
244.63	3766.2	
244.84	4025.6	
245.05	2503.3	
245.26	2323.1	
245.47	4182.6	
245.68	4135.5	
245.9	2953.9	
246.11	2426.2	
246.32	3792.8	
246.53	4184	
246.74	3437.9	
246.95	2164.7	
247.16	3956	
247.38	4055	
247.59	2223.4	
247.8	2742.2	
248.01	3578.5	
248.22	4017.4	
248.43	2302.6	
248.64	2398.9	
248.86	3779.9	
249.07	3913	
249.28	2314.2	
249.49	2433	
249.7	4111.6	
249.91	4165.6	
250.12	2200.2	
250.34	2237.1	
250.55	4027	
250.76	3907.5	
250.97	2497.2	
251.18	2517.6	
251.39	4215.4	
251.6	4074.1	
251.81	2513.5	
252.03	2465.1	
252.24	3757.3	
252.45	4148.5	
252.66	2179.7	
252.87	2517	
253.08	3975.1	
253.29	4668	
253.5	2240.5	
253.72	2776.4	
253.93	3880.9	
254.14	4438.6	
254.35	2353.1	
254.56	2329.2	
254.77	4091.2	
254.98	3786.7	
255.19	2376.3	
255.41	2731.3	
255.62	4135.5	
255.83	4200.4	
256.04	2587.9	
256.25	2400.9	
256.46	4495.3	
256.67	3764.8	
256.88	2508.1	
257.09	2616.6	
257.31	3652.9	
257.52	3814	
257.73	2919.7	
257.94	2344.2	
258.15	4093.9	
258.36	3926	
258.57	2709.5	
258.78	2011.1	
258.99	4242.7	
259.2	3913.7	
259.41	2303.3	
259.63	2412.5	
259.84	4397.7	
260.05	4474.8	
260.26	2751.1	
260.47	2333.3	
260.68	4301.4	
260.89	3919.8	
261.1	2682.2	
261.31	2302.6	
261.52	4441.4	
261.73	4424.3	
261.95	2835.8	
262.16	2501.3	
262.37	4233.2	
262.58	4324.6	
262.79	2789.3	
263	2340.1	
263.21	3964.9	
263.42	3833.8	
263.63	2532.7	
263.84	2399.5	
264.05	4199.7	
264.26	4357.4	
264.47	2685.6	
264.69	2504.7	
264.9	4465.3	
265.11	3959.4	
265.32	2276	
265.53	2286.9	
265.74	4042	
265.95	3640.6	
266.16	2433.7	
266.37	2547	
266.58	4099.4	
266.79	3860.4	
267	2349.7	
267.21	2239.8	
267.42	3771	
267.63	3988.1	
267.84	2393.4	
268.06	2205	
268.27	4149.2	
268.48	4282.3	
268.69	2393.4	
268.9	2616.6	
269.11	3964.9	
269.32	3649.5	
269.53	2435	
269.74	2248	
269.95	4040.6	
270.16	3753.2	
270.37	2475.3	
270.58	2729.9	
270.79	3981.9	
271	4257	
271.21	2435	
271.42	2412.5	
271.63	4182.6	
271.84	3723.9	
272.05	2075.3	
272.26	2218.6	
272.47	4014.7	
272.68	4038.6	
272.89	2387.2	
273.11	2575.7	
273.32	3798.3	
273.53	4324.6	
273.74	2484.9	
273.95	2514.9	
274.16	4059.1	
274.37	3954.6	
274.58	2579.1	
274.79	2221.4	
275	4130.8	
275.21	4164.2	
275.42	2926.5	
275.63	2598.2	
275.84	4209.3	
276.05	4736.3	
276.26	2462.3	
276.47	2400.9	
276.68	4053.6	
276.89	4470.7	
277.1	2589.3	
277.31	2210.4	
277.52	4065.9	
277.73	4394.9	
277.94	2165.4	
278.15	2289.6	
278.36	4130.1	
278.57	3875.4	
278.78	2391.3	
278.99	2584.5	
279.2	3865.2	
279.41	3841.3	
279.62	2857.6	
279.83	2219.3	
280.04	4573.1	
280.25	3805.8	
280.46	2804.4	
280.67	2385.9	
280.88	3923.2	
281.09	4274.8	
281.3	2454.8	
281.51	2914.3	
281.72	3900	
281.93	4006.5	
282.14	2357.9	
282.35	2489	
282.56	4270	
282.77	4184.7	
282.98	2398.9	
283.19	2747	
283.4	4828.4	
283.61	3957.4	
283.82	2293.7	
284.03	2770.2	
284.24	4199	
284.45	4099.4	
284.66	2931.3	
284.87	2679.4	
285.08	4372.4	
285.29	4320.5	
285.5	2223.4	
285.71	2368.8	
285.92	4145.1	
286.12	4593.6	
286.33	2773.6	
286.54	2411.8	
286.75	4182	
286.96	3953.3	
287.17	2266.4	
287.38	2738.1	
287.59	3981.3	
287.8	3914.4	
288.01	2363.4	
288.22	2556.5	
288.43	3928	
288.64	3651.5	
288.85	2716.3	
289.06	2570.9	
289.27	4341.7	
289.48	4285	
289.69	2839.2	
289.9	2602.3	
290.11	4369	
290.32	3956.7	
290.53	2708.8	
290.74	2537.4	
290.94	4212	
291.15	4221.5	
291.36	2335.4	
291.57	2577.7	
291.78	3997	
291.99	3691.8	
292.2	2265.7	
292.41	2485.6	
292.62	4269.3	
292.83	4181.3	
293.04	2917	
293.25	2307.4	
293.46	3948.5	
293.67	4217.5	
293.88	2271.9	
294.09	2288.3	
294.29	3887	
294.5	4074.1	
294.71	2453.5	
294.92	2328.5	
295.13	3947.1	
295.34	4556.7	
295.55	2193.4	
295.76	2174.9	
295.97	4250.2	
296.18	4394.3	
296.39	2220.7	
296.6	2316.9	
296.81	3851.5	
297.01	4183.3	
297.22	2393.4	
297.43	2351.1	
297.64	3988.8	
297.85	3730	
298.06	2055.5	
298.27	2198.8	
298.48	3957.4	
298.69	3893.9	
298.9	2471.9	
299.11	2233.7	
299.31	3816	
299.52	3845.4	
299.73	2571.6	
299.94	2568.2	
300.15	4047.5	
300.36	3892.5	
300.57	2539.5	
300.78	2501.9	
300.99	3875.4	
301.2	4070.7	
301.4	2372.2	
301.61	2397.5	
301.82	4052.9	
302.03	4209.3	
302.24	2620	
302.45	2195.4	
302.66	4159.4	
302.87	4115.1	
303.08	2362.7	
303.29	2872.6	
303.49	3955.3	
303.7	3787.4	
303.91	2222.7	
304.12	2770.2	
304.33	3601.7	
304.54	4078.9	
304.75	2332	
304.96	2375.6	
305.16	4184	
305.37	4513	
305.58	2161.3	
305.79	2136	
306	4150.6	
306.21	3729.4	
306.42	2281.4	
306.63	3140.2	
306.83	3912.3	
307.04	4040.6	
307.25	2450.7	
307.46	2428.2	
307.67	3695.2	
307.88	4063.2	
308.09	2392	
308.29	2275.3	
308.5	4040.6	
308.71	4184.7	
308.92	2428.2	
309.13	2278	
309.34	4117.1	
309.55	3946.4	
309.75	2738.8	
309.96	2537.4	
310.17	4154	
310.38	3842	
310.59	2576.3	
310.8	2528.6	
311.01	3915	
311.21	4018.1	
311.42	2311.5	
311.63	2338.8	
311.84	3943	
312.05	4008.6	
312.26	2556.5	
312.46	2627.5	
312.67	3964.9	
312.88	3584.6	
313.09	2239.8	
313.3	2230.9	
313.51	4367.6	
313.71	4544.4	
313.92	2278	
314.13	2316.9	
314.34	4126.7	
314.55	4037.9	
314.76	2639.8	
314.96	2411.1	
315.17	4206.5	
315.38	3926	
315.59	2308.7	
315.8	2203.6	
316.01	4273.4	
316.21	4351.9	
316.42	2228.9	
316.63	2495.8	
316.84	3949.8	
317.05	4134.8	
317.26	2586.6	
317.46	2358.6	
317.67	3986.7	
317.88	4100.7	
318.09	2661.7	
318.3	2184.5	
318.5	3915	
318.71	4067.3	
318.92	3147.7	
319.13	2611.2	
319.34	4250.9	
319.54	4285	
319.75	2204.3	
319.96	2127.2	
320.17	4061.8	
320.38	4216.1	
320.58	2177	
320.79	2420.7	
321	4306.2	
321.21	4414.7	
321.42	2508.1	
321.62	2144.2	
321.83	3928.7	
322.04	4011.3	
322.25	2421.4	
322.46	2251.4	
322.66	3998.3	
322.87	4203.1	
323.08	2525.1	
323.29	2220.7	
323.5	4539.7	
323.7	3782.6	
323.91	2764.1	
324.12	2561.3	
324.33	4125.3	
324.53	4177.2	
324.74	2500.6	
324.95	2602.3	
325.16	3796.3	
325.37	3910.9	
325.57	2236.4	
325.78	2261.6	
325.99	4191.5	
326.2	3781.9	
326.4	2942.2	
326.61	2189.3	
326.82	3953.9	
327.03	4051.6	
327.24	2927.2	
327.44	2714.9	
327.65	4212.7	
327.86	3610.6	
328.07	2535.4	
328.27	2265.7	
328.48	4415.4	
328.69	3709.6	
328.9	2887	
329.1	2312.8	
329.31	3957.4	
329.52	4293.9	
329.73	2320.3	
329.93	2358.6	
330.14	4105.5	
330.35	4094.6	
330.56	3293.1	
330.76	2614.6	
330.97	3931.4	
331.18	4004.5	
331.39	2459.6	
331.59	2144.9	
331.8	4250.9	
332.01	4329.4	
332.22	2328.5	
332.42	2504.7	
332.63	3989.4	
332.84	3752.6	
333.05	2476.7	
333.25	2338.1	
333.46	3803.1	
333.67	3984.7	
333.88	2418.7	
334.08	2482.8	
334.29	4831.8	
334.5	4201.7	
334.7	2267.1	
334.91	2874	
335.12	3704.1	
335.33	4149.2	
335.53	2441.2	
335.74	3136.8	
335.95	4015.4	
336.16	3617.4	
336.36	2407.7	
336.57	2641.9	
336.78	3463.1	
336.98	4214	
337.19	2891.7	
337.4	2409.1	
337.61	4400.4	
337.81	3736.9	
338.02	2327.2	
338.23	2704.7	
338.43	4353.3	
338.64	3867.9	
338.85	2295.8	
339.05	2742.9	
339.26	4470.7	
339.47	3702	
339.68	2325.8	
339.88	2902.7	
340.09	4235.9	
340.3	4258.4	
340.5	2476	
340.71	2164.7	
340.92	3796.3	
341.13	4243.4	
341.33	2191.3	
341.54	2553.1	
341.75	4074.8	
341.95	3878.2	
342.16	2422.7	
342.37	2629.6	
342.57	3816	
342.78	3910.3	
342.99	2608.4	
343.19	2180.4	
343.4	4157.4	
343.61	4063.2	
343.81	2447.3	
344.02	2170.8	
344.23	4138.9	
344.43	4256.4	
344.64	2669.9	
344.85	2603	
345.06	4154	
345.26	4235.9	
345.47	2608.4	
345.68	2859.6	
345.88	3796.3	
346.09	4158.7	
346.3	2594.8	
346.5	2085.5	
346.71	3877.5	
346.92	3861.1	
347.12	2287.6	
347.33	2519	
347.54	4190.8	
347.74	4383.3	
347.95	2497.2	
348.16	2112.8	
348.36	3863.8	
348.57	3803.1	
348.78	2577	
348.98	2600.2	
349.19	3937.6	
349.39	3607.2	
349.6	2192	
349.81	2317.6	
350.01	4209.3	
350.22	3773	
350.43	2520.4	
350.63	2785.9	
350.84	3867.2	
351.05	3742.3	
351.25	2313.5	
351.46	2198.2	
351.67	4053.6	
351.87	3822.2	
352.08	2403.6	
352.29	2600.2	
352.49	4201.7	
352.7	4177.2	
352.9	2253.4	
353.11	2613.9	
353.32	4433.2	
353.52	3930.1	
353.73	2263	
353.94	2592.7	
354.14	4126.7	
354.35	3828.3	
354.55	2304	
354.76	2456.2	
354.97	4065.9	
355.17	3876.8	
355.38	2267.1	
355.59	2710.8	
355.79	3784	
356	4017.4	
356.2	2456.2	
356.41	2284.2	
356.62	3773.7	
356.82	3942.3	
357.03	2646	
357.24	2383.8	
357.44	3771	
357.65	3885	
357.85	2890.4	
358.06	2507.4	
358.27	3677.5	
358.47	3710.2	
358.68	2183.8	
358.88	2581.1	
359.09	4094.6	
359.3	4169	
359.5	2792.7	
359.71	2659.6	
359.91	4268	
360.12	3938.9	
360.33	2635.1	
360.53	2773.6	
360.74	3835.2	
360.94	3849.5	
361.15	2707.4	
361.36	2307.4	
361.56	4212.7	
361.77	3962.8	
361.97	2832.3	
362.18	2426.8	
362.38	4235.9	
362.59	3747.8	
362.8	2297.1	
363	2278.7	
363.21	3659	
363.41	3951.9	
363.62	2471.2	
363.83	2839.2	
364.03	4209.9	
364.24	4358.8	
364.44	3039.9	
364.65	2960.7	
364.85	4007.2	
365.06	3859.7	
365.27	2385.9	
365.47	2440.5	
365.68	4284.4	
365.88	3960.8	
366.09	2585.9	
366.29	2445.3	
366.5	3880.2	
366.71	4168.3	
366.91	2917.7	
367.12	2647.3	
367.32	4483.7	
367.53	4014	
367.73	2684.2	
367.94	3076	
368.14	4231.1	
368.35	4198.3	
368.56	2599.6	
368.76	2347	
368.97	3917.8	
369.17	4797.7	
369.38	2392	
369.58	2544.3	
369.79	3670.6	
369.99	4399	
370.2	3035.1	
370.4	2585.2	
370.61	4050.9	
370.82	4634.6	
371.02	2602.3	
371.23	2237.7	
371.43	3882.3	
371.64	4411.3	
371.84	2600.9	
372.05	3033	
372.25	4769.7	
372.46	3947.8	
372.66	2550.4	
372.87	2585.2	
373.07	4003.1	
373.28	4917.2	
373.48	2958.6	
373.69	2820.1	
373.9	4008.6	
374.1	4007.2	
374.31	2981.8	
374.51	2660.3	
374.72	4230.4	
374.92	3876.1	
375.13	3041.2	
375.33	2684.2	
375.54	4104.1	
375.74	3940.3	
375.95	2778.4	
376.15	3188.7	
376.36	4254.3	
376.56	4170.3	
376.77	2753.8	
376.97	2873.3	
377.18	4745.8	
377.38	4257.7	
377.59	2950.4	
377.79	2600.9	
378	4169	
378.2	4167.6	
378.41	2582.5	
378.61	2491	
378.82	4427.7	
379.02	4076.8	
379.23	2689.7	
379.43	3013.2	
379.64	4590.9	
379.84	4218.1	
380.05	2633.7	
380.25	2566.8	
380.46	4257	
380.66	4123.2	
380.87	3152.5	
381.07	3295.2	
381.28	4523.3	
381.48	4214.7	
381.69	2600.9	
381.89	2668.5	
382.1	3882.3	
382.3	4177.9	
382.51	3051.5	
382.71	3399.6	
382.91	4046.1	
383.12	4384.7	
383.32	2786.6	
383.53	2828.2	
383.73	4222.9	
383.94	4173.1	
384.14	2846	
384.35	2469.2	
384.55	3803.8	
384.76	4174.4	
384.96	2803.7	
385.17	2867.8	
385.37	4192.9	
385.58	3829	
385.78	2841.2	
385.98	2504	
386.19	4079.6	
386.39	4279.6	
386.6	2664.4	
386.8	2701.3	
387.01	4214.7	
387.21	4325.3	
387.42	2873.3	
387.62	3107.5	
387.83	4075.5	
388.03	3932.8	
388.23	2877.4	
388.44	3064.4	
388.64	3890.5	
388.85	3821.5	
389.05	2877.4	
389.26	3118.4	
389.46	4887.1	
389.67	4522.6	
389.87	2962	
390.07	2907.4	
390.28	4061.1	
390.48	3863.2	
390.69	2625.5	
390.89	2769.5	
391.1	4106.9	
391.3	4407.9	
391.5	3222.1	
391.71	3417.4	
391.91	4405.9	
392.12	4560.1	
392.32	3306.8	
392.53	2947	
392.73	4063.2	
392.93	4111	
393.14	2795.5	
393.34	3271.3	
393.55	4429.8	
393.75	4081.6	
393.95	2861	
394.16	2752.5	
394.36	4199	
394.57	4350.6	
394.77	2661.7	
394.98	2699.2	
395.18	4050.2	
395.38	4072	
395.59	3173	
395.79	2717	
396	4231.1	
396.2	4367.6	
396.4	3098.6	
396.61	3037.8	
396.81	4298.7	
397.02	4089.1	
397.22	3144.3	
397.42	3241.3	
397.63	4567	
397.83	4104.8	
398.04	2811.9	
398.24	2981.2	
398.44	4335.5	
398.65	3827.7	
398.85	2698.5	
399.05	2692.4	
399.26	4229.7	
399.46	4834.6	
399.67	2882.9	
399.87	2783.9	
400.07	4338.3	
400.28	4377.9	
400.48	2844.6	
400.69	3203.7	
400.89	4412	
401.09	4728.1	
401.3	2805.7	
401.5	3203.7	
401.7	4744.5	
401.91	4884.4	
402.11	3075.4	
402.32	3082.2	
402.52	4538.3	
402.72	4503.5	
402.93	3237.8	
403.13	2683.5	
403.33	4978.6	
403.54	4345.8	
403.74	3052.8	
403.94	3414.6	
404.15	4254.3	
404.35	4869.4	
404.56	2993.4	
404.76	3627.6	
404.96	4640.7	
405.17	4502.1	
405.37	3337.5	
405.57	3151.8	
405.78	4587.4	
405.98	4185.4	
406.18	2998.2	
406.39	3241.9	
406.59	4442.7	
406.79	4284.4	
407	2907.4	
407.2	2902.7	
407.4	4876.2	
407.61	4642.7	
407.81	2954.5	
408.01	3558.7	
408.22	3907.5	
408.42	4906.3	
408.62	3426.3	
408.83	3214.6	
409.03	4377.9	
409.23	4407.2	
409.44	3197.6	
409.64	3358.7	
409.84	4850.3	
410.05	4880.3	
410.25	3377.8	
410.45	3325.9	
410.66	4816.1	
410.86	5802.6	
411.06	3529.3	
411.27	3449.5	
411.47	5727.5	
411.67	4749.9	
411.88	3487.7	
412.08	3647.4	
412.28	5069.4	
412.49	5281	
412.69	3463.8	
412.89	3495.2	
413.09	5230.5	
413.3	5230.5	
413.5	3581.2	
413.7	3496.6	
413.91	4714.4	
414.11	5246.2	
414.31	3519.1	
414.52	3707.5	
414.72	5158.2	
414.92	5108.3	
415.12	3469.3	
415.33	3758	
415.53	5165.7	
415.73	5380.7	
415.94	3918.4	
416.14	3579.2	
416.34	5004.6	
416.55	4792.2	
416.75	4138.3	
416.95	3962.8	
417.15	5469.4	
417.36	5623	
417.56	4295.3	
417.76	3889.8	
417.97	5511.1	
418.17	5443.5	
418.37	3779.9	
418.57	3792.8	
418.78	5453.7	
418.98	5218.9	
419.18	4191.5	
419.38	4129.4	
419.59	5184.8	
419.79	5056.4	
419.99	3730	
420.2	3819.5	
420.4	5428.5	
420.6	5362.9	
420.8	3685	
421.01	3637.9	
421.21	5412.1	
421.41	5296.7	
421.61	3817.4	
421.82	3775.1	
422.02	5246.9	
422.22	5612.8	
422.42	4163.5	
422.63	3924.6	
422.83	5199.1	
423.03	5800.5	
423.23	4018.8	
423.44	3545	
423.64	5141.1	
423.84	5018.9	
424.04	3806.5	
424.25	3582.6	
424.45	5592.3	
424.65	5590.3	
424.85	3565.5	
425.06	3754.6	
425.26	5812.1	
425.46	5213.4	
425.66	3945.8	
425.87	3795.6	
426.07	5457.8	
426.27	5315.2	
426.47	3923.9	
426.67	3590.8	
426.88	5751.4	
427.08	5423.7	
427.28	4090.5	
427.48	3566.9	
427.69	5033.9	
427.89	5156.8	
428.09	3885	
428.29	3561.4	
428.5	5348.6	
428.7	5382.1	
428.9	3591.5	
429.1	3825.6	
429.3	5437.4	
429.51	5436	
429.71	3741	
429.91	4106.2	
430.11	5582.1	
430.31	5532.9	
430.52	3889.8	
430.72	3917.1	
430.92	5739.8	
431.12	5532.9	
431.32	3789.4	
431.53	4007.9	
431.73	5104.9	
431.93	5670.1	
432.13	3738.2	
432.33	3685.7	
432.54	5297.4	
432.74	5362.3	
432.94	3741	
433.14	4142.4	
433.34	5766.4	
433.55	5491.3	
433.75	4136.2	
433.95	4887.8	
434.15	5585.5	
434.35	5333.6	
434.56	3840.6	
434.76	3646.1	
434.96	5412.8	
435.16	5612.1	
435.36	3857	
435.56	4362.2	
435.77	5482.4	
435.97	5489.9	
436.17	4609.3	
436.37	4216.8	
436.57	5278.3	
436.78	5388.2	
436.98	4265.9	
437.18	4516.5	
437.38	5435.3	
437.58	5409.4	
437.78	4640	
437.99	4023.6	
438.19	5759.6	
438.39	6377.4	
438.59	4123.9	
438.79	3794.9	
438.99	6058.6	
439.2	5420.3	
439.4	3781.2	
439.6	3824.2	
439.8	5365.7	
440	6141.2	
440.2	4291.9	
440.4	4294.6	
440.61	5961	
440.81	6026.5	
441.01	4090.5	
441.21	4453	
441.41	6155.5	
441.61	5868.1	
441.81	4540.3	
442.02	4897.4	
442.22	6359.6	
442.42	6036	
442.62	4143	
442.82	4152.6	
443.02	6318	
443.22	5804.6	
443.43	4393.6	
443.63	4094.6	
443.83	5666.7	
444.03	5611.4	
444.23	4715.1	
444.43	4515.8	
444.63	5978	
444.83	6350.8	
445.04	4323.3	
445.24	4780	
445.44	6137.8	
445.64	6072.9	
445.84	4544.4	
446.04	4605.9	
446.24	5752.1	
446.44	6226.5	
446.65	4202.4	
446.85	4442	
447.05	5943.9	
447.25	6076.3	
447.45	4487.1	
447.65	4128.7	
447.85	6067.4	
448.05	5674.9	
448.25	4628.4	
448.46	4551.3	
448.66	5971.9	
448.86	5803.3	
449.06	4251.6	
449.26	4583.4	
449.46	6146	
449.66	5802.6	
449.86	4528.7	
450.06	4419.5	
450.26	5852.4	
450.47	6036	
450.67	4560.8	
450.87	4773.1	
451.07	6419	
451.27	5951.4	
451.47	4364.9	
451.67	4660.5	
451.87	6001.9	
452.07	6453.8	
452.27	4506.9	
452.47	4465.3	
452.67	6170.5	
452.88	6067.4	
453.08	4199.7	
453.28	4982	
453.48	6754.9	
453.68	6022.4	
453.88	4495.3	
454.08	4500.8	
454.28	6291.4	
454.48	6210.8	
454.68	4706.2	
454.88	4933.6	
455.08	6494.8	
455.28	6178	
455.48	4378.6	
455.68	4849.6	
455.89	6581.5	
456.09	6454.5	
456.29	4674.8	
456.49	4726.7	
456.69	6599.2	
456.89	6106.4	
457.09	4882.4	
457.29	5115.8	
457.49	6430.6	
457.69	6490.7	
457.89	5035.3	
458.09	4618.2	
458.29	6384.2	
458.49	6823.8	
458.69	5068.7	
458.89	4932.2	
459.09	6979.5	
459.29	6962.4	
459.49	4934.2	
459.69	5314.5	
459.9	6718.7	
460.1	6631.3	
460.3	4840	
460.5	4776.5	
460.7	6880.5	
460.9	6452.5	
461.1	4693.9	
461.3	5255.8	
461.5	7193.1	
461.7	6876.4	
461.9	5037.3	
462.1	5190.9	
462.3	6799.3	
462.5	7002.7	
462.7	5091.9	
462.9	5113.1	
463.1	7476.5	
463.3	7301	
463.5	5342.5	
463.7	5779.4	
463.9	6987.7	
464.1	7156.3	
464.3	5498.8	
464.5	5432.6	
464.7	7239.6	
464.9	7131.7	
465.1	6112.5	
465.3	5823.7	
465.5	7456	
465.7	7585.7	
465.9	5892.7	
466.1	5639.4	
466.3	7406.8	
466.5	7216.4	
466.7	6227.9	
466.9	5786.2	
467.1	7691.5	
467.3	7834.8	
467.5	6303	
467.7	5851	
467.9	8038.3	
468.1	8390.5	
468.3	6100.2	
468.5	6318.7	
468.7	7413	
468.9	7476.5	
469.1	5969.8	
469.3	6359.6	
469.5	8490.9	
469.7	7452.6	
469.9	6168.5	
470.1	6008.7	
470.3	7820.5	
470.5	7688.1	
470.7	6620.4	
470.9	5965.1	
471.1	7499.7	
471.3	7633.5	
471.5	6025.8	
471.69	6662	
471.89	7616.4	
472.09	7234.1	
472.29	6311.8	
472.49	6243.6	
472.69	7448.5	
472.89	7649.8	
473.09	6027.2	
473.29	5958.2	
473.49	7477.8	
473.69	7279.2	
473.89	6277	
474.09	5972.6	
474.29	7978.9	
474.49	7758.4	
474.69	6300.9	
474.89	5933	
475.09	7544.7	
475.29	7509.2	
475.49	5763	
475.69	5929.6	
475.88	8157.1	
476.08	7630.7	
476.28	5823.1	
476.48	5842.2	
476.68	7965.2	
476.88	7558.4	
477.08	5954.8	
477.28	6008.7	
477.48	7561.8	
477.68	7583.6	
477.88	5841.5	
478.08	5883.8	
478.28	7860.1	
478.48	7499.7	
478.67	6015.6	
478.87	5583.4	
479.07	7845.8	
479.27	7628.7	
479.47	6021	
479.67	6131.6	
479.87	7759.1	
480.07	7980.3	
480.27	5823.1	
480.47	6378.1	
480.67	7502.4	
480.87	7973.4	
481.06	5999.9	
481.26	6289.3	
481.46	7724.3	
481.66	7518.1	
481.86	6279.8	
482.06	6475	
482.26	7537.2	
482.46	7875.8	
482.66	6036.7	
482.86	5920	
483.05	8006.9	
483.25	7432.1	
483.45	7206.1	
483.65	6119.3	
483.85	7390.4	
484.05	7608.9	
484.25	6413.6	
484.45	6603.3	
484.65	7823.2	
484.84	8191.9	
485.04	6199.2	
485.24	6240.8	
485.44	8435.6	
485.64	7554.3	
485.84	6006	
486.04	6520	
486.24	7821.9	
486.44	7875.8	
486.63	6079.1	
486.83	6429.9	
487.03	7875.1	
487.23	7980.3	
487.43	6019	
487.63	7031.4	
487.83	7915.4	
488.02	7718.1	
488.22	6624.5	
488.42	6922.8	
488.62	8372.8	
488.82	7882.6	
489.02	6449.1	
489.22	6512.5	
489.41	8036.9	
489.61	8391.2	
489.81	6412.2	
490.01	6324.1	
490.21	8466.3	
490.41	8768	
490.61	6483.2	
490.8	6410.8	
491	8180.3	
491.2	7913.4	
491.4	6737.8	
491.6	6460	
491.8	8143.4	
491.99	8062.2	
492.19	6281.8	
492.39	6377.4	
492.59	8217.1	
492.79	8533.2	
492.99	6731.7	
493.18	6488.6	
493.38	8611	
493.58	8876.6	
493.78	6681.8	
493.98	6589	
494.18	8293.6	
494.37	8084.7	
494.57	7049.1	
494.77	7135.8	
494.97	8753	
495.17	8921	
495.37	6919.4	
495.56	7146	
495.76	8777.6	
495.96	8960.5	
496.16	7629.4	
496.36	7138.5	
496.55	9164	
496.75	8888.2	
496.95	7286.7	
497.15	7339.9	
497.35	9220	
497.54	9131.9	
497.74	7415.7	
497.94	8141.4	
498.14	9540.1	
498.34	9294.4	
498.53	7247.8	
498.73	7453.2	
498.93	8932.6	
499.13	9309.4	
499.33	7675.1	
499.52	7739.3	
499.72	9495.7	
499.92	9223.4	
500.12	7472.4	
500.32	7637.6	
500.51	9430.2	
500.71	9329.9	
500.91	7989.8	
501.11	7878.5	
501.31	9388.6	
501.5	9769.5	
501.7	8117.5	
501.9	7776.8	
502.1	9334.6	
502.29	9612.5	
502.49	7983	
502.69	7991.2	
502.89	9495.1	
503.09	9602.2	
503.28	7464.2	
503.48	7592.5	
503.68	9352.4	
503.88	9064.3	
504.07	7959.8	
504.27	7696.3	
504.47	9379	
504.67	9256.8	
504.86	7923.6	
505.06	7752.2	
505.26	9328.5	
505.46	9835	
505.65	7734.5	
505.85	7767.9	
506.05	9216.5	
506.25	9441.8	
506.44	7409.6	
506.64	7672.4	
506.84	8983.8	
507.04	9310.1	
507.23	7415	
507.43	7615	
507.63	9748.3	
507.83	8802.2	
508.02	7663.5	
508.22	7337.9	
508.42	9925.1	
508.62	8923.7	
508.81	7412.3	
509.01	7797.3	
509.21	8829.5	
509.4	9175.6	
509.6	7638.2	
509.8	7338.6	
510	9001.5	
510.19	9362.6	
510.39	7219.1	
510.59	7348.8	
510.79	8965.3	
510.98	9658.9	
511.18	7583.6	
511.38	7491.5	
511.57	9606.3	
511.77	9120.3	
511.97	7700.4	
512.17	7430.7	
512.36	9512.1	
512.56	9259.5	
512.76	7444.4	
512.95	7267.6	
513.15	9628.2	
513.35	8621.3	
513.55	7733.8	
513.74	7426.6	
513.94	9510.1	
514.14	9167.4	
514.33	7940.7	
514.53	7735.2	
514.73	9280	
514.92	9172.2	
515.12	7655.3	
515.32	7488.7	
515.51	9360.6	
515.71	9243.2	
515.91	8241.7	
516.11	7582.9	
516.3	10159	
516.5	9310.1	
516.7	7937.9	
516.89	8099	
517.09	9278.7	
517.29	9346.9	
517.48	8019.2	
517.68	7740.6	
517.88	8791.2	
518.07	9577	
518.27	8006.9	
518.47	7602.7	
518.66	9882.1	
518.86	9293.7	
519.06	7495.6	
519.25	7666.9	
519.45	9326.4	
519.65	9997.5	
519.84	8080.6	
520.04	8400.1	
520.24	10333	
520.43	9654.8	
520.63	8005.5	
520.83	7906.5	
521.02	9521.7	
521.22	9604.3	
521.42	8089.5	
521.61	8322.9	
521.81	9340.8	
522.01	9537.4	
522.2	8021.2	
522.4	7908.6	
522.6	9942.9	
522.79	9161.9	
522.99	8055.3	
523.18	7804.8	
523.38	9850.7	
523.58	9830.9	
523.77	8630.1	
523.97	7936.6	
524.17	10600	
524.36	10488	
524.56	8731.9	
524.76	8554.4	
524.95	10050	
525.15	9889	
525.34	8565.3	
525.54	8692.9	
525.74	10443	
525.93	10041	
526.13	9254.1	
526.33	8740	
526.52	10742	
526.72	10425	
526.91	9420	
527.11	8988.5	
527.31	10740	
527.5	10978	
527.7	9286.9	
527.89	8850.6	
528.09	10445	
528.29	10793	
528.48	9314.8	
528.68	9099.8	
528.87	11006	
529.07	10891	
529.27	9253.4	
529.46	9043.1	
529.66	11071	
529.85	11183	
530.05	9174.2	
530.25	9458.9	
530.44	11688	
530.64	10954	
530.83	9381.7	
531.03	9497.8	
531.23	11439	
531.42	11000	
531.62	9662.3	
531.81	9391.3	
532.01	11075	
532.21	11537	
532.4	9612.5	
532.6	9813.9	
532.79	11835	
532.99	11671	
533.18	10041	
533.38	10349	
533.58	11573	
533.77	11818	
533.97	10125	
534.16	10388	
534.36	12159	
534.55	11760	
534.75	10600	
534.95	10196	
535.14	12220	
535.34	11787	
535.53	10094	
535.73	10843	
535.92	12496	
536.12	11656	
536.31	10238	
536.51	10845	
536.71	12051	
536.9	11763	
537.1	10167	
537.29	10267	
537.49	12207	
537.68	11706	
537.88	10548	
538.07	10068	
538.27	11994	
538.46	12415	
538.66	10060	
538.86	10438	
539.05	12016	
539.25	12215	
539.44	10714	
539.64	10251	
539.83	12050	
540.03	12463	
540.22	10304	
540.42	10268	
540.61	12170	
540.81	12170	
541	10386	
541.2	10760	
541.39	11848	
541.59	11855	
541.78	10713	
541.98	10235	
542.18	11657	
542.37	11592	
542.57	10396	
542.76	10766	
542.96	11601	
543.15	11787	
543.35	10380	
543.54	10051	
543.74	11204	
543.93	11762	
544.13	10227	
544.32	10661	
544.52	11915	
544.71	11465	
544.91	9731.3	
545.1	10108	
545.3	11571	
545.49	11708	
545.69	9568.1	
545.88	9941.5	
546.08	12308	
546.27	11841	
546.47	10109	
546.66	9880.8	
546.86	11837	
547.05	11896	
547.24	9983.8	
547.44	9989.3	
547.63	11299	
547.83	11820	
548.02	10178	
548.22	10163	
548.41	11270	
548.61	11837	
548.8	9720.3	
549	9861	
549.19	11518	
549.39	11813	
549.58	9619.3	
549.78	9929.2	
549.97	11686	
550.17	11309	
550.36	10219	
550.55	10639	
550.75	11360	
550.94	11816	
551.14	9722.4	
551.33	9780.4	
551.53	11116	
551.72	11467	
551.92	9836.4	
552.11	9689.6	
552.31	11643	
552.5	11477	
552.69	10435	
552.89	9469.8	
553.08	11577	
553.28	11204	
553.47	9762.7	
553.67	10083	
553.86	11620	
554.06	10938	
554.25	9291	
554.44	9530.6	
554.64	12122	
554.83	11708	
555.03	9478	
555.22	9752.4	
555.42	11589	
555.61	11333	
555.8	9584.5	
556	9649.3	
556.19	11004	
556.39	11254	
556.58	9656.9	
556.78	9592.7	
556.97	11386	
557.16	11125	
557.36	10230	
557.55	9485.5	
557.75	10852	
557.94	11701	
558.13	9398.8	
558.33	9346.9	
558.52	11593	
558.72	10730	
558.91	9405.6	
559.1	9455.5	
559.3	10776	
559.49	10708	
559.69	9388.6	
559.88	9528.5	
560.07	11249	
560.27	11447	
560.46	9719.7	
560.66	9712.8	
560.85	11234	
561.04	10577	
561.24	9289.6	
561.43	9269.1	
561.63	10852	
561.82	10875	
562.01	9880.8	
562.21	9429.5	
562.4	11011	
562.59	11452	
562.79	9355.1	
562.98	9220	
563.18	11037	
563.37	11541	
563.56	9587.9	
563.76	9331.2	
563.95	10836	
564.14	10961	
564.34	9553.1	
564.53	9314.8	
564.73	11215	
564.92	11226	
565.11	9600.2	
565.31	9280.7	
565.5	11565	
565.69	10735	
565.89	9551.7	
566.08	9562	
566.27	11200	
566.47	11613	
566.66	9917.6	
566.85	9323	
567.05	11230	
567.24	10993	
567.44	9396.1	
567.63	10043	
567.82	11301	
568.02	11152	
568.21	9384.5	
568.4	9524.4	
568.6	11300	
568.79	11069	
568.98	9550.4	
569.18	9484.8	
569.37	11247	
569.56	11915	
569.76	9676.7	
569.95	10198	
570.14	11395	
570.34	11165	
570.53	9482.8	
570.72	9435	
570.91	11725	
571.11	11257	
571.3	9631.6	
571.49	10120	
571.69	11298	
571.88	10892	
572.07	9807.7	
572.27	9810.5	
572.46	10882	
572.65	11407	
572.85	9626.1	
573.04	9727.2	
573.23	11648	
573.43	11275	
573.62	9564.7	
573.81	9673.9	
574	11423	
574.2	11138	
574.39	9817.3	
574.58	9678.7	
574.78	11691	
574.97	11469	
575.16	10089	
575.36	10133	
575.55	11929	
575.74	11743	
575.93	9622	
576.13	10139	
576.32	11413	
576.51	11655	
576.71	9884.9	
576.9	10501	
577.09	11888	
577.28	11639	
577.48	10053	
577.67	9599.5	
577.86	11749	
578.05	11647	
578.25	9979.8	
578.44	9916.3	
578.63	11555	
578.83	12140	
579.02	9745.6	
579.21	10369	
579.4	11618	
579.6	11604	
579.79	10053	
579.98	10994	
580.17	11816	
580.37	11962	
580.56	9815.9	
580.75	10107	
580.94	11806	
581.14	12086	
581.33	10395	
581.52	9895.8	
581.71	11721	
581.91	12071	
582.1	9812.5	
582.29	9937.4	
582.48	11572	
582.68	11744	
582.87	10185	
583.06	10175	
583.25	11921	
583.45	11464	
583.64	10410	
583.83	10766	
584.02	11718	
584.21	11953	
584.41	10364	
584.6	10247	
584.79	11765	
584.98	11798	
585.18	9923.8	
585.37	9853.5	
585.56	11629	
585.75	11873	
585.94	9972.2	
586.14	10216	
586.33	11998	
586.52	11607	
586.71	10061	
586.91	10007	
587.1	11133	
587.29	11697	
587.48	9766.1	
587.67	9684.8	
587.87	11707	
588.06	11480	
588.25	10260	
588.44	9934	
588.63	11172	
588.83	11405	
589.02	9628.9	
589.21	9512.8	
589.4	11104	
589.59	11132	
589.78	8971.5	
589.98	9090.9	
590.17	10576	
590.36	10669	
590.55	8595.3	
590.74	8880	
590.94	10918	
591.13	10469	
591.32	8707.3	
591.51	8312	
591.7	10364	
591.89	10236	
592.09	8372.1	
592.28	8601.5	
592.47	9824.8	
592.66	10948	
592.85	8501.1	
593.05	8665	
593.24	10263	
593.43	10922	
593.62	8768	
593.81	8866.3	
594	10424	
594.19	10362	
594.39	8682.7	
594.58	8447.9	
594.77	10576	
594.96	10663	
595.15	8702.5	
595.34	8918.9	
595.54	10262	
595.73	9919.7	
595.92	8374.8	
596.11	8698.4	
596.3	10539	
596.49	10079	
596.68	8531.2	
596.88	8802.2	
597.07	10305	
597.26	9928.6	
597.45	8374.8	
597.64	8880.7	
597.83	10048	
598.02	10352	
598.22	8501.1	
598.41	8751	
598.6	10181	
598.79	9954.5	
598.98	8399.4	
599.17	8880.7	
599.36	10383	
599.55	10705	
599.74	9257.5	
599.94	9303.2	
600.13	10447	
600.32	9965.4	
600.51	8279.9	
600.7	8368	
600.89	10740	
601.08	10828	
601.27	8355	
601.47	8668.4	
601.66	10434	
601.85	10606	
602.04	8741.4	
602.23	8611	
602.42	9960.6	
602.61	10282	
602.8	8477.2	
602.99	8410.3	
603.18	10107	
603.37	10193	
603.57	8582.4	
603.76	8957.8	
603.95	10495	
604.14	10302	
604.33	8652.7	
604.52	8633.6	
604.71	10306	
604.9	10028	
605.09	8909.3	
605.28	8705.2	
605.47	10723	
605.66	10095	
605.86	8722.3	
606.05	8514.1	
606.24	10733	
606.43	9687.6	
606.62	8770.8	
606.81	8921	
607	10413	
607.19	10078	
607.38	8234.9	
607.57	8288.8	
607.76	9906	
607.95	9624.8	
608.14	8710.7	
608.33	8903.9	
608.52	9886.9	
608.72	10351	
608.91	8170.7	
609.1	8162.5	
609.29	9944.3	
609.48	9605	
609.67	8452.6	
609.86	8155	
610.05	9734	
610.24	9760.6	
610.43	8220.5	
610.62	8009.6	
610.81	10321	
611	10316	
611.19	8181.6	
611.38	8386.4	
611.57	10072	
611.76	10410	
611.95	8041.7	
612.14	8020.5	
612.33	9843.9	
612.52	9531.9	
612.71	8193.2	
612.9	8009.6	
613.09	9463	
613.28	10587	
613.47	8087.4	
613.66	8554.4	
613.85	9966.8	
614.04	9564.7	
614.24	8160.5	
614.43	7830.1	
614.62	9959.3	
614.81	9943.6	
615	8302.5	
615.19	8284.7	
615.38	9630.9	
615.57	9869.2	
615.76	8321.6	
615.95	8826.7	
616.14	10059	
616.33	9813.9	
616.52	8548.9	
616.71	8510	
616.9	10094	
617.09	9828.9	
617.28	8282	
617.47	8684.8	
617.66	9693	
617.85	9639.1	
618.04	8593.3	
618.22	8286.8	
618.41	9582.4	
618.6	10428	
618.79	8480	
618.98	8299.7	
619.17	10501	
619.36	9610.4	
619.55	8561.9	
619.74	8504.5	
619.93	10204	
620.12	9905.3	
620.31	8745.5	
620.5	8814.5	
620.69	10399	
620.88	10747	
621.07	9122.3	
621.26	8828.1	
621.45	10272	
621.64	10426	
621.83	8881.4	
622.02	8446.5	
622.21	10200	
622.4	10394	
622.59	9146.9	
622.78	9119.6	
622.97	10205	
623.16	10613	
623.35	8904.6	
623.54	8442.4	
623.72	10262	
623.91	10320	
624.1	9126.4	
624.29	8456.7	
624.48	10867	
624.67	10598	
624.86	8996	
625.05	8548.9	
625.24	10940	
625.43	10340	
625.62	9666.4	
625.81	8850	
626	10527	
626.19	10301	
626.38	9118.9	
626.56	8790.6	
626.75	10234	
626.94	10520	
627.13	9093	
627.32	8512	
627.51	10671	
627.7	11045	
627.89	8441	
628.08	9146.2	
628.27	9977.7	
628.46	10174	
628.65	8632.2	
628.83	8378.2	
629.02	10378	
629.21	10055	
629.4	8720.3	
629.59	8751	
629.78	10114	
629.97	10456	
630.16	8792.6	
630.35	8653.4	
630.54	10887	
630.72	10692	
630.91	8746.9	
631.1	8839.7	
631.29	10151	
631.48	10395	
631.67	9071.8	
631.86	8611.7	
632.05	10375	
632.24	10287	
632.42	8539.3	
632.61	8832.9	
632.8	10159	
632.99	9912.2	
633.18	8905.3	
633.37	8960.5	
633.56	10406	
633.75	10526	
633.93	8955.1	
634.12	8753.7	
634.31	10931	
634.5	10604	
634.69	8798.1	
634.88	9057.5	
635.07	10352	
635.25	10594	
635.44	9202.9	
635.63	9395.4	
635.82	10235	
636.01	9366	
636.2	9106.6	
636.39	8976.9	
636.57	10812	
636.76	10392	
636.95	8735.3	
637.14	9176.9	
637.33	10569	
637.52	10785	
637.7	8558.5	
637.89	9083.4	
638.08	10386	
638.27	10951	
638.46	9066.4	
638.65	9130.5	
638.83	10761	
639.02	10200	
639.21	9003.6	
639.4	9165.3	
639.59	10362	
639.78	10251	
639.96	8524.3	
640.15	8683.4	
640.34	10178	
640.53	9932.6	
640.72	8361.9	
640.91	8444.5	
641.09	9912.9	
641.28	10411	
641.47	8609	
641.66	8804.9	
641.85	10176	
642.03	10202	
642.22	8619.2	
642.41	8557.1	
642.6	9856.2	
642.79	9562.6	
642.97	8417.2	
643.16	8588.5	
643.35	9778.4	
643.54	9626.8	
643.73	8329.1	
643.91	8528.4	
644.1	9680.7	
644.29	9828.2	
644.48	8141.4	
644.67	8137.9	
644.85	9215.9	
645.04	9849.4	
645.23	7952.3	
645.42	8153	
645.6	9399.5	
645.79	9842.5	
645.98	7866.9	
646.17	7330.4	
646.36	8913.4	
646.54	9301.2	
646.73	8103.8	
646.92	7602.1	
647.11	9060.2	
647.29	9377	
647.48	7554.3	
647.67	7310.6	
647.86	9432.3	
648.05	9490.3	
648.23	7506.5	
648.42	8135.9	
648.61	9355.8	
648.8	9254.1	
648.98	7389.8	
649.17	7566.6	
649.36	8942.1	
649.55	8658.8	
649.73	7456	
649.92	7811	
650.11	8853.4	
650.3	8978.3	
650.48	7481.2	
650.67	7416.4	
650.86	9198.1	
651.05	8672.5	
651.23	7438.2	
651.42	7354.9	
651.61	8903.2	
651.79	8731.9	
651.98	7473.7	
652.17	7342.7	
652.36	8988.5	
652.54	8504.5	
652.73	7350.8	
652.92	7307.2	
653.11	8975.6	
653.29	9095.7	
653.48	7002	
653.67	7395.2	
653.85	8725	
654.04	9246.6	
654.23	7423.9	
654.42	7240.9	
654.6	8512	
654.79	8770.8	
654.98	6911.9	
655.16	7124.2	
655.35	8292.9	
655.54	7886	
655.73	6848.4	
655.91	6695.5	
656.1	8417.8	
656.29	7922.9	
656.47	6414.9	
656.66	7243.7	
656.85	8181	
657.03	8074.5	
657.22	6809.5	
657.41	6908.5	
657.59	8285.4	
657.78	8353	
657.97	6699.6	
658.16	7135.8	
658.34	8686.8	
658.53	8971.5	
658.72	7516.7	
658.9	7669	
659.09	8672.5	
659.28	8520.2	
659.46	7114	
659.65	6985.6	
659.84	8452.6	
660.02	8792.6	
660.21	7038.2	
660.4	6972.7	
660.58	8830.2	
660.77	8432.2	
660.96	7225.9	
661.14	6847.7	
661.33	9146.2	
661.52	8981.7	
661.7	6808.8	
661.89	8279.3	
662.08	8482	
662.26	7933.1	
662.45	6991.1	
662.64	7019.8	
662.82	8813.1	
663.01	8374.1	
663.2	6906.4	
663.38	7293.5	
663.57	8561.2	
663.75	8441.7	
663.94	7024.5	
664.13	7492.2	
664.31	8327	
664.5	8610.3	
664.69	7197.2	
664.87	7303.7	
665.06	8152.3	
665.25	8520.2	
665.43	7432.8	
665.62	7428.7	
665.8	8546.2	
665.99	8439	
666.18	7051.2	
666.36	7071	
666.55	8671.8	
666.74	8550.3	
666.92	6986.3	
667.11	7507.9	
667.29	8426.7	
667.48	8510.7	
667.67	7215	
667.85	6958.3	
668.04	8204.8	
668.22	8273.1	
668.41	7051.2	
668.6	7257.3	
668.78	8198.7	
668.97	8240.3	
669.15	7206.1	
669.34	6645.7	
669.53	8267.6	
669.71	8374.1	
669.9	6719.4	
670.08	7032.7	
670.27	8112	
670.46	8497	
670.64	7190.4	
670.83	7388.4	
671.01	8014.4	
671.2	8331.1	
671.38	6858.6	
671.57	6769.2	
671.76	8711.4	
671.94	8916.9	
672.13	6697.5	
672.31	7140.6	
672.5	8706.6	
672.69	8187.1	
672.87	6818.4	
673.06	7030.7	
673.24	8429.4	
673.43	8331.1	
673.61	7133.1	
673.8	6957.6	
673.98	8557.8	
674.17	8532.5	
674.36	7228	
674.54	7169.3	
674.73	8126.3	
674.91	8676.6	
675.1	7004.7	
675.28	6836.8	
675.47	8381	
675.65	8599.4	
675.84	7072.3	
676.03	7144	
676.21	8318.2	
676.4	7959.8	
676.58	7266.2	
676.77	7224.6	
676.95	9082.7	
677.14	8276.5	
677.32	6776	
677.51	6805.4	
677.69	8769.4	
677.88	8279.3	
678.06	6821.8	
678.25	6863.4	
678.44	8345.5	
678.62	8131.1	
678.81	6836.1	
678.99	7180.9	
679.18	8738	
679.36	8534.6	
679.55	7050.5	
679.73	7279.2	
679.92	8478.6	
680.1	8325.7	
680.29	7500.3	
680.47	7015	
680.66	8327	
680.84	8703.9	
681.03	6754.2	
681.21	7216.4	
681.4	8267	
681.58	8346.2	
681.77	6941.2	
681.95	6898.9	
682.14	8645.2	
682.32	8811	
682.51	7299	
682.69	6722.1	
682.88	8277.2	
683.06	8274.5	
683.25	7128.3	
683.43	7230	
683.62	8461.5	
683.8	8585.1	
683.99	7354.9	
684.17	7045.7	
684.36	8773.5	
684.54	8185	
684.73	6604.7	
684.91	6692.1	
685.1	8350.9	
685.28	7860.8	
685.46	6673.6	
685.65	6677.1	
685.83	7931.8	
686.02	7690.1	
686.2	6226.5	
686.39	6179.4	
686.57	7344.7	
686.76	8120.2	
686.94	6286.6	
687.13	6395.1	
687.31	7929.1	
687.5	7839.6	
687.68	6237.4	
687.86	6632	
688.05	8585.1	
688.23	7619.8	
688.42	6789	
688.6	6506.4	
688.79	7822.6	
688.97	7959.1	
689.16	6767.2	
689.34	6293.4	
689.52	8286.1	
689.71	8406.2	
689.89	6978.1	
690.08	6708.5	
690.26	8240.3	
690.45	8049.9	
690.63	7098.3	
690.81	6880.5	
691	8234.9	
691.18	8058.1	
691.37	6891.4	
691.55	7740.6	
691.74	8109.3	
691.92	8927.1	
692.1	6816.3	
692.29	6666.8	
692.47	8172.8	
692.66	7863.5	
692.84	6692.1	
693.02	6841.6	
693.21	7860.8	
693.39	8241.7	
693.58	7020.4	
693.76	6744.6	
693.94	8725	
694.13	8645.2	
694.31	6939.9	
694.5	7377.5	
694.68	8176.9	
694.86	8624	
695.05	7246.4	
695.23	7404.1	
695.42	8786.5	
695.6	9749.7	
695.78	7624.6	
695.97	7234.8	
696.15	8979.7	
696.34	8633.6	
696.52	7244.3	
696.7	7582.9	
696.89	8780.3	
697.07	8484.1	
697.25	7448.5	
697.44	8055.3	
697.62	8826.1	
697.81	8790.6	
697.99	7231.4	
698.17	7520.8	
698.36	8572.1	
698.54	8745.5	
698.72	7409.6	
698.91	6946	
699.09	8601.5	
699.28	8365.3	
699.46	7314	
699.64	7284.6	
699.83	8564.6	
700.01	8723.7	
700.19	7660.8	
700.38	6999.3	
700.56	8748.9	
700.74	8570.1	
700.93	7186.3	
701.11	7509.9	
701.29	8813.8	
701.48	9441.8	
701.66	7403.4	
701.84	7434.8	
702.03	8954.4	
702.21	9357.9	
702.39	7385	
702.58	7623.2	
702.76	9248.6	
702.94	9168.8	
703.13	7382.9	
703.31	8451.3	
703.49	8996	
703.68	9359.9	
703.86	7482.6	
704.04	7933.8	
704.23	9168.1	
704.41	9257.5	
704.59	7550.2	
704.78	8012.3	
704.96	10041	
705.14	9136.7	
705.33	7529.7	
705.51	7869	
705.69	8967.4	
705.87	9424.8	
706.06	7902.4	
706.24	7587	
706.42	9109.4	
706.61	9308	
706.79	8010.3	
706.97	7574.8	
707.16	8887.5	
707.34	9080	
707.52	7867.6	
707.7	7534.5	
707.89	8710	
708.07	8910	
708.25	8133.2	
708.44	8185.7	
708.62	8856.8	
708.8	9540.8	
708.98	8154.3	
709.17	7761.8	
709.35	9101.9	
709.53	9146.2	
709.72	7557	
709.9	7638.9	
710.08	9379.7	
710.26	9303.9	
710.45	8234.9	
710.63	7699.7	
710.81	8972.2	
710.99	9097.8	
711.18	7903.8	
711.36	7570	
711.54	9032.9	
711.72	9258.9	
711.91	7592.5	
712.09	7442.3	
712.27	8976.9	
712.45	9277.3	
712.64	7534.5	
712.82	7056.6	
713	8648.6	
713.18	8432.9	
713.37	7025.9	
713.55	7423.9	
713.73	8791.9	
713.91	8002.8	
714.1	6835.4	
714.28	6498.9	
714.46	8090.2	
714.64	7671	
714.83	5966.4	
715.01	6034	
715.19	7406.1	
715.37	6752.2	
715.55	5639.4	
715.74	5670.1	
715.92	7378.8	
716.1	6398.5	
716.28	6170.5	
716.47	5571.8	
716.65	6886.6	
716.83	6777.4	
717.01	5513.8	
717.19	5391.6	
717.38	7641.7	
717.56	6608.1	
717.74	5621.7	
717.92	5350	
718.1	7309.9	
718.29	6959.7	
718.47	5298.8	
718.65	5670.1	
718.83	7613.7	
719.01	7533.8	
719.2	5657.9	
719.38	6212.9	
719.56	7634.8	
719.74	8399.4	
719.92	6224.5	
720.11	6479.8	
720.29	7786.4	
720.47	7323.5	
720.65	5759.6	
720.83	6031.3	
721.02	7126.2	
721.2	6988.4	
721.38	5804.6	
721.56	5426.4	
721.74	6658.6	
721.92	6576	
722.11	5859.9	
722.29	5764.3	
722.47	7160.4	
722.65	6760.3	
722.83	5285.1	
723.01	5631.2	
723.2	6599.9	
723.38	6865.5	
723.56	5186.1	
723.74	5632.6	
723.92	6449.1	
724.1	7073.7	
724.29	5342.5	
724.47	5793	
724.65	6709.1	
724.83	6531.7	
725.01	5483.1	
725.19	5537	
725.37	6451.1	
725.56	6550.8	
725.74	5169.8	
725.92	5302.2	
726.1	6526.2	
726.28	6752.2	
726.46	5537.7	
726.64	5309.7	
726.83	6763.1	
727.01	6740.5	
727.19	5242.8	
727.37	5559.6	
727.55	6825.2	
727.73	7128.3	
727.91	5178.6	
728.09	5141.1	
728.28	6763.8	
728.46	7058.7	
728.64	5622.4	
728.82	5545.2	
729	7507.9	
729.18	7370.6	
729.36	5285.1	
729.54	6251.1	
729.72	7908.6	
729.91	7106.5	
730.09	6376	
730.27	5872.9	
730.45	7256.6	
730.63	7400	
730.81	6089.3	
730.99	5788.9	
731.17	7872.4	
731.35	7147.4	
731.53	6042.2	
731.71	5946.6	
731.9	7563.1	
732.08	7513.3	
732.26	5990.3	
732.44	5699.5	
732.62	7585	
732.8	7389.8	
732.98	6053.8	
733.16	5638.7	
733.34	7329	
733.52	6604	
733.7	5741.8	
733.88	5793.7	
734.07	7227.3	
734.25	7126.2	
734.43	5502.9	
734.61	6152.1	
734.79	7828	
734.97	7092.1	
735.15	5606	
735.33	5732.3	
735.51	7210.2	
735.69	7097.6	
735.87	6179.4	
736.05	5818.3	
736.23	7103.7	
736.41	6814.3	
736.59	5793.7	
736.77	5746.6	
736.95	7349.5	
737.13	6952.2	
737.32	5575.3	
737.5	5666.7	
737.68	7635.5	
737.86	6937.8	
738.04	5479	
738.22	6212.2	
738.4	6921.5	
738.58	7025.9	
738.76	5589.6	
738.94	5262.6	
739.12	6990.4	
739.3	6904.4	
739.48	5882.4	
739.66	5807.4	
739.84	7071.6	
740.02	6999.3	
740.2	5384.1	
740.38	5342.5	
740.56	7174	
740.74	6375.3	
740.92	5714.5	
741.1	5530.2	
741.28	6793.1	
741.46	6575.3	
741.64	5395.7	
741.82	5655.1	
742	6811.5	
742.18	6718.7	
742.36	5440.8	
742.54	5273.5	
742.72	6985.6	
742.9	6266.1	
743.08	5521.3	
743.26	4960.9	
743.44	6951.5	
743.62	6921.5	
743.8	5535	
743.98	5163.6	
744.16	6716.7	
744.34	6540.5	
744.52	5375.9	
744.7	5413.5	
744.88	6797.9	
745.06	6455.9	
745.24	5331.5	
745.42	5384.1	
745.6	6823.1	
745.78	6792.4	
745.96	4816.8	
746.14	4946.5	
746.32	7015	
746.5	6354.2	
746.68	5053.7	
746.86	4815.5	
747.03	6679.8	
747.21	6041.5	
747.39	5088.5	
747.57	4786.1	
747.75	6270.2	
747.93	6409.5	
748.11	4796.3	
748.29	4715.1	
748.47	7209.5	
748.65	6283.9	
748.83	5076.9	
749.01	4952	
749.19	6395.1	
749.37	5915.9	
749.55	4937.7	
749.73	4917.9	
749.91	6410.1	
750.09	6265.4	
750.26	4880.3	
750.44	4649.6	
750.62	6288.6	
750.8	6176.7	
750.98	4621.6	
751.16	4648.9	
751.34	6324.8	
751.52	5956.2	
751.7	4977.2	
751.88	4539.7	
752.06	6475	
752.24	6306.4	
752.42	4516.5	
752.59	4662.5	
752.77	6222.4	
752.95	6657.9	
753.13	4983.4	
753.31	4676.9	
753.49	5977.3	
753.67	6111.8	
753.85	4727.4	
754.03	4453	
754.21	6236.1	
754.38	6294.1	
754.56	4461.8	
754.74	3948.5	
754.92	5691.3	
755.1	5711.1	
755.28	3777.8	
755.46	3668.6	
755.64	5989.6	
755.82	5763	
755.99	3367.5	
756.17	3312.9	
756.35	4237.9	
756.53	4790.9	
756.71	2542.2	
756.89	3140.9	
757.07	4595.6	
757.25	4261.8	
757.42	3243.3	
757.6	3728	
757.78	4817.5	
757.96	4435.2	
758.14	3317.7	
758.32	3117.7	
758.5	4218.1	
758.67	4659.8	
758.85	3252.2	
759.03	3205.8	
759.21	4668.7	
759.39	4205.2	
759.57	2905.4	
759.75	3448.1	
759.92	5056.4	
760.1	4792.2	
760.28	3660.4	
760.46	3884.3	
760.64	4767.7	
760.82	4693.9	
760.99	3781.2	
761.17	3446	
761.35	5301.5	
761.53	4693.3	
761.71	3609.9	
761.89	3942.3	
762.06	5190.2	
762.24	5012.7	
762.42	3804.4	
762.6	3609.2	
762.78	5087.2	
762.96	5043.5	
763.13	3984.7	
763.31	3825.6	
763.49	5467.4	
763.67	5132.2	
763.85	4236.6	
764.02	4461.8	
764.2	5743.9	
764.38	5015.5	
764.56	3878.2	
764.74	4128	
764.91	5568.4	
765.09	5118.6	
765.27	3726.6	
765.45	3534.8	
765.63	5789.6	
765.8	5449	
765.98	3480.2	
766.16	3567.6	
766.34	4657.1	
766.52	4775.9	
766.69	4005.1	
766.87	3422.2	
767.05	5120.6	
767.23	5396.4	
767.41	3591.5	
767.58	3678.2	
767.76	5278.3	
767.94	5336.3	
768.12	3613.3	
768.29	3850.2	
768.47	4775.2	
768.65	5335	
768.83	3364.8	
769	3768.9	
769.18	4726	
769.36	5062.6	
769.54	3767.6	
769.72	3333.4	
769.89	5306.3	
770.07	5113.1	
770.25	3563.5	
770.43	4018.8	
770.6	5458.5	
770.78	5442.1	
770.96	3518.4	
771.14	3773.7	
771.31	5229.8	
771.49	4765.6	
771.67	3114.3	
771.85	3173.7	
772.02	4349.2	
772.2	4689.2	
772.38	3568.2	
772.55	3211.9	
772.73	4883.7	
772.91	4741	
773.09	3401	
773.26	3453.6	
773.44	4773.8	
773.62	4710.3	
773.8	3179.8	
773.97	3080.1	
774.15	4784.1	
774.33	4732.2	
774.5	3106.1	
774.68	3229.6	
774.86	4756.1	
775.04	4596.3	
775.21	3140.9	
775.39	3042.6	
775.57	4689.2	
775.74	4760.2	
775.92	2895.8	
776.1	2890.4	
776.27	4645.5	
776.45	5190.2	
776.63	3005.7	
776.81	2877.4	
776.98	4546.5	
777.16	5001.8	
777.34	3056.9	
777.51	3177.8	
777.69	4485.1	
777.87	4276.2	
778.04	3169.6	
778.22	3287.7	
778.4	4315.8	
778.57	4635.9	
778.75	2725.2	
778.93	2887.6	
779.1	4332.1	
779.28	4065.9	
779.46	2704.7	
779.64	2909.5	
779.81	4647.5	
779.99	5003.2	
780.17	3142.3	
780.34	3222.1	
780.52	4473.4	
780.69	4421.6	
780.87	3019.4	
781.05	2820.1	
781.22	4437.3	
781.4	4369.7	
781.58	2926.5	
781.75	2422.1	
781.93	4474.8	
782.11	3994.9	
782.28	3255.6	
782.46	2783.2	
782.64	3979.9	
782.81	4456.4	
782.99	2876.7	
783.17	2852.1	
783.34	4233.8	
783.52	4160.1	
783.69	2814.6	
783.87	3171.6	
784.05	4175.1	
784.22	3990.1	
784.4	3181.9	
784.58	2926.5	
784.75	4591.5	
784.93	4209.9	
785.1	2725.2	
785.28	3078.1	
785.46	4496.7	
785.63	3956.7	
785.81	2766.1	
785.99	2646	
786.16	4211.3	
786.34	4214	
786.51	2686.9	
786.69	2878.1	
786.87	3839.3	
787.04	4089.1	
787.22	2627.5	
787.39	2984.6	
787.57	4072.7	
787.75	4438.6	
787.92	3154.6	
788.1	3036.5	
788.27	3924.6	
788.45	3536.2	
788.63	2945	
788.8	2336.7	
788.98	4245.4	
789.15	3633.1	
789.33	2442.5	
789.5	2660.3	
789.68	4335.5	
789.86	4452.3	
790.03	2851.5	
790.21	2587.9	
790.38	4540.3	
790.56	4013.3	
790.73	2589.3	
790.91	2502.6	
791.09	4000.4	
791.26	4207.2	
791.44	2701.3	
791.61	2433	
791.79	3997.6	
791.96	3902.1	
792.14	2476	
792.32	2318.3	
792.49	3880.2	
792.67	4015.4	
792.84	2540.8	
793.02	2389.3	
793.19	4196.3	
793.37	4397.7	
793.54	2221.4	
793.72	2437.8	
793.89	4486.4	
794.07	3833.8	
794.25	2692.4	
794.42	2281.4	
794.6	4405.9	
794.77	4136.2	
794.95	2762.7	
795.12	2489.6	
795.3	3915	
795.47	4166.9	
795.65	2669.9	
795.82	2608.4	
796	3815.4	
796.17	4595	
796.35	2535.4	
796.52	2915.6	
796.7	4186.7	
796.87	4143	
797.05	2532.7	
797.22	2906.1	
797.4	4207.2	
797.57	4595	
797.75	2618	
797.92	2557.2	
798.1	4360.8	
798.27	3630.4	
798.45	2347	
798.62	2369.5	
798.8	4007.9	
798.97	4194.2	
799.15	2749.7	
799.32	2690.3	
799.5	3708.2	
799.67	3945.1	
799.85	2805	
800.02	2265.1	
800.2	3923.2	
800.37	3852.2	
800.55	2811.9	
800.72	2475.3	
800.9	4231.8	
801.07	4301.4	
801.25	3089	
801.42	2676.7	
801.6	4237.9	
801.77	3883.6	
801.95	2546.3	
802.12	2418	
802.29	4081.6	
802.47	3949.2	
802.64	2707.4	
802.82	2230.9	
802.99	3877.5	
803.17	4219.5	
803.34	2618	
803.52	2446	
803.69	4361.5	
803.87	3701.4	
804.04	2566.8	
804.21	2584.5	
804.39	4391.5	
804.56	3863.8	
804.74	2302.6	
804.91	2556.5	
805.09	3829	
805.26	3805.8	
805.44	2342.9	
805.61	2467.8	
805.78	4156	
805.96	3986.7	
806.13	2545.6	
806.31	2774.3	
806.48	3549.8	
806.66	3792.2	
806.83	2646.7	
807	2547	
807.18	3859.1	
807.35	3951.9	
807.53	2560.6	
807.7	2254.1	
807.87	4315.1	
808.05	3830.4	
808.22	2707.4	
808.4	2192	
808.57	3628.3	
808.74	3635.8	
808.92	2469.2	
809.09	2896.5	
809.27	3841.3	
809.44	3984.7	
809.61	2205	
809.79	2321.7	
809.96	4521.2	
810.14	4074.1	
810.31	2218.6	
810.48	2676	
810.66	3738.2	
810.83	4055.7	
811.01	2397.5	
811.18	2538.8	
811.35	4128.7	
811.53	3386.7	
811.7	2712.2	
811.87	2572.2	
812.05	3955.3	
812.22	3717.1	
812.39	2378.4	
812.57	2278.7	
812.74	3904.8	
812.92	4444.1	
813.09	2499.2	
813.26	2565.4	
813.44	4375.1	
813.61	3696.6	
813.78	2192.7	
813.96	2614.6	
814.13	3834.5	
814.3	3717.7	
814.48	2784.6	
814.65	2439.8	
814.82	4157.4	
815	3598.3	
815.17	2506.7	
815.34	2908.1	
815.52	3704.8	
815.69	3670.6	
815.87	2416.6	
816.04	2473.9	
816.21	3626.3	
816.38	3597.6	
816.56	2506.7	
816.73	2313.5	
816.9	4490.5	
817.08	3977.8	
817.25	2356.5	
817.42	2675.3	
817.6	3564.8	
817.77	3658.4	
817.94	2520.4	
818.12	2271.2	
818.29	3669.3	
818.46	4733.5	
818.64	2463	
818.81	2282.1	
818.98	3663.1	
819.16	4589.5	
819.33	2605.7	
819.5	2495.1	
819.67	3949.2	
819.85	4244.8	
820.02	2525.1	
820.19	2589.3	
820.37	3902.7	
820.54	3736.9	
820.71	2510.1	
820.88	2927.9	
821.06	3876.1	
821.23	3700.7	
821.4	2523.1	
821.58	2488.3	
821.75	4040	
821.92	3874.1	
822.09	2191.3	
822.27	2253.4	
822.44	3845.4	
822.61	3747.8	
822.79	2216.6	
822.96	3538.2	
823.13	3865.9	
823.3	3562.1	
823.48	2386.6	
823.65	2254.8	
823.82	4216.8	
823.99	3616	
824.17	2881.5	
824.34	2276	
824.51	4560.8	
824.68	3785.3	
824.86	2343.6	
825.03	2534	
825.2	3769.6	
825.37	4138.9	
825.55	2359.9	
825.72	2448.7	
825.89	4438.6	
826.06	4250.9	
826.24	2433.7	
826.41	2452.8	
826.58	4394.3	
826.75	3736.9	
826.92	2137.4	
827.1	2278.7	
827.27	5273.5	
827.44	4416.1	
827.61	2348.3	
827.79	2648	
827.96	3782.6	
828.13	3672	
828.3	2451.4	
828.47	2144.2	
828.65	4100	
828.82	3997	
828.99	2779.8	
829.16	2552.5	
829.34	4071.4	
829.51	4120.5	
829.68	2434.4	
829.85	2469.9	
830.02	4496	
830.2	4169.7	
830.37	2029.5	
830.54	2712.9	
830.71	4485.1	
830.88	3885	
831.05	2020	
831.23	2270.5	
831.4	4495.3	
831.57	4599.1	
831.74	2352.4	
831.91	2129.9	
832.09	4192.2	
832.26	4228.4	
832.43	2309.4	
832.6	2597.5	
832.77	4051.6	
832.94	4361.5	
833.12	2024.8	
833.29	2313.5	
833.46	3678.8	
833.63	4743.1	
833.8	2538.1	
833.97	2280.8	
834.15	4296	
834.32	4146.5	
834.49	2471.2	
834.66	2437.1	
834.83	4047.5	
835	3719.1	
835.17	2300.6	
835.35	2265.7	
835.52	4214.7	
835.69	4062.5	
835.86	2398.9	
836.03	2050	
836.2	4203.8	
836.37	4011.3	
836.55	2306.7	
836.72	2177	
836.89	4027	
837.06	4221.5	
837.23	2364	
837.4	2425.5	
837.57	4530.8	
837.75	4649.6	
837.92	2174.3	
838.09	2322.4	
838.26	3943.7	
838.43	4180.6	
838.6	2426.8	
838.77	2244.6	
838.94	4526.7	
839.11	4527.4	
839.29	2388.6	
839.46	1978.3	
839.63	4156.7	
839.8	3954.6	
839.97	2301.9	
840.14	2295.1	
840.31	4100.7	
840.48	4270	
840.65	2054.8	
840.82	2227.5	
841	4150.6	
841.17	4025.6	
841.34	2135.3	
841.51	2225.5	
841.68	4191.5	
841.85	3966.9	
842.02	2235.7	
842.19	1994	
842.36	4101.4	
842.53	4063.2	
842.7	2221.4	
842.87	2393.4	
843.05	4724.7	
843.22	3990.8	
843.39	2067.1	
843.56	2289.6	
843.73	3949.2	
843.9	4265.9	
844.07	3082.2	
844.24	2592	
844.41	5022.3	
844.58	3812.6	
844.75	2094.4	
844.92	2206.3	
845.09	3997.6	
845.26	4111.6	
845.43	2170.2	
845.6	2258.9	
845.77	4188.1	
845.94	4065.2	
846.12	2367.5	
846.29	2311.5	
846.46	4333.5	
846.63	4091.8	
846.8	2130.6	
846.97	2457.6	
847.14	4227	
847.31	4115.1	
847.48	2284.9	
847.65	2519.7	
847.82	3820.8	
847.99	4174.4	
848.16	2642.6	
848.33	2547.7	
848.5	3939.6	
848.67	4323.3	
848.84	2110.1	
849.01	2204.3	
849.18	3963.5	
849.35	3600.3	
849.52	2504.7	
849.69	2067.8	
849.86	4248.2	
850.03	4188.8	
850.2	2167.4	
850.37	2441.9	
850.54	4222.9	
850.71	3751.9	
850.88	2444.6	
851.05	2116.9	
851.22	4009.2	
851.39	4243.4	
851.56	2065	
851.73	2348.3	
851.9	3781.2	
852.07	4212.7	
852.24	2267.8	
852.41	2103.9	
852.58	4192.2	
852.75	3793.5	
852.92	2324.4	
853.09	2142.2	
853.26	3569.6	
853.43	4259.8	
853.6	2125.8	
853.77	1882.1	
853.94	4375.1	
854.11	3736.9	
854.28	2824.8	
854.44	2233.7	
854.61	4522.6	
854.78	4205.8	
854.95	2106.7	
855.12	2488.3	
855.29	3553.9	
855.46	4453	
855.63	2126.5	
855.8	2701.3	
855.97	3852.2	
856.14	4367	
856.31	2706.7	
856.48	2273.2	
856.65	4016.7	
856.82	3723.9	
856.99	2131.9	
857.16	2280.8	
857.33	4611.3	
857.49	3956.7	
857.66	2236.4	
857.83	2358.6	
858	4067.9	
858.17	4083	
858.34	2050.7	
858.51	2157.9	
858.68	4332.8	
858.85	4354	
859.02	2379.7	
859.19	2456.2	
859.36	3814.7	
859.52	3519.1	
859.69	2157.9	
859.86	2411.8	
860.03	3569.6	
860.2	4403.1	
860.37	2030.9	
860.54	2176.3	
860.71	4123.2	
860.88	4387.4	
861.05	2305.3	
861.21	2543.6	
861.38	4318.5	
861.55	3601.7	
861.72	1999.5	
861.89	2347.7	
862.06	4200.4	
862.23	4377.2	
862.4	2091	
862.56	2135.3	
862.73	4126	
862.9	3992.2	
863.07	2323.1	
863.24	1997.5	
863.41	3725.9	
863.58	3779.9	
863.75	2152.4	
863.91	2409.8	
864.08	4205.8	
864.25	4022.2	
864.42	2494.4	
864.59	2731.3	
864.76	4402.5	
864.93	3790.1	
865.09	2050.7	
865.26	2263	
865.43	4360.1	
865.6	4511	
865.77	1945.6	
865.94	2099.9	
866.1	4268	
866.27	4070	
866.44	2910.8	
866.61	2071.2	
866.78	3928	
866.95	4169	
867.11	2166.8	
867.28	1999.5	
867.45	4305.5	
867.62	3701.4	
867.79	2304	
867.96	2070.5	
868.12	3683.6	
868.29	4127.3	
868.46	2120.3	
868.63	2667.1	
868.8	4199	
868.97	4202.4	
869.13	2224.1	
869.3	2239.8	
869.47	4027.7	
869.64	4252.3	
869.81	2077.3	
869.97	2134	
870.14	3914.4	
870.31	4313	
870.48	2071.9	
870.65	2510.8	
870.81	4021.5	
870.98	3970.3	
871.15	2282.1	
871.32	2204.3	
871.48	4114.4	
871.65	4414.1	
871.82	2093.7	
871.99	2235.7	
872.16	4552	
872.32	4299.4	
872.49	2239.1	
872.66	2144.9	
872.83	4270.7	
872.99	3842	
873.16	2343.6	
873.33	2122.4	
873.5	4009.9	
873.67	4033.1	
873.83	2222	
874	2585.2	
874.17	4100	
874.34	4287.1	
874.5	2569.5	
874.67	2450.7	
874.84	4296	
875.01	3591.5	
875.17	2667.8	
875.34	2114.9	
875.51	4047.5	
875.68	4687.1	
875.84	2434.4	
876.01	2747.7	
876.18	4134.2	
876.34	4098.7	
876.51	2136	
876.68	2086.9	
876.85	3830.4	
877.01	4405.9	
877.18	2763.4	
877.35	2056.2	
877.52	4171.7	
877.68	3818.1	
877.85	2107.4	
878.02	2153.8	
878.18	3548.4	
878.35	3943.7	
878.52	1810.4	
878.69	2393.4	
878.85	4354	
879.02	4147.1	
879.19	2732	
879.35	2249.4	
879.52	4233.8	
879.69	4118.5	
879.86	1974.2	
880.02	2275.3	
880.19	4034.5	
880.36	4535.6	
880.52	2297.8	
880.69	2386.6	
880.86	4213.4	
881.02	4208.6	
881.19	2278	
881.36	2200.2	
881.52	4153.3	
881.69	3814.7	
881.86	2304.6	
882.02	2229.6	
882.19	4276.8	
882.36	4717.8	
882.52	2211.1	
882.69	2750.4	
882.86	3998.3	
883.02	4101.4	
883.19	2401.6	
883.36	2315.6	
883.52	4205.2	
883.69	4497.3	
883.86	2170.8	
884.02	1986.5	
884.19	4117.1	
884.36	4033.1	
884.52	2297.1	
884.69	2319	
884.86	3956.7	
885.02	4308.9	
885.19	2269.8	
885.36	2378.4	
885.52	3747.1	
885.69	4163.5	
885.86	2811.2	
886.02	2540.2	
886.19	4143.7	
886.35	3801	
886.52	2286.2	
886.69	2696.5	
886.85	3700.7	
887.02	4260.5	
887.19	4260.5	
887.35	4260.5	
887.52	4260.5	
887.68	4260.5	
887.85	4260.5	
888.02	4260.5	
888.18	4260.5	
888.35	4260.5	
888.51	4260.5	
888.68	4260.5	
888.85	4260.5	
889.01	4260.5	
889.18	4260.5	
889.35	4260.5	
889.51	4260.5	
889.68	4260.5	
889.84	4260.5	
890.01	4260.5	
890.17	4260.5	
890.34	4260.5	
890.51	4260.5	
890.67	4260.5	
890.84	4260.5	
891	4260.5	
891.17	4260.5	
891.34	4260.5	
891.5	4260.5	
891.67	4260.5	
891.83	4260.5	
892	4260.5	
892.16	4260.5	
892.33	4260.5	
892.5	4260.5	
892.66	4260.5	
892.83	4260.5	
892.99	4260.5	
893.16	4260.5	
893.32	4260.5	
893.49	4260.5	
893.65	4260.5	
893.82	4260.5	
893.99	4260.5	
894.15	4260.5	
894.32	4260.5	
894.48	4260.5	
894.65	4260.5	
894.81	4260.5	
894.98	4260.5	
895.14	4260.5	
895.31	4260.5	
895.47	4260.5	
895.64	4260.5	
895.81	4260.5	
895.97	4260.5	
896.14	4260.5	
896.3	4260.5	
896.47	4260.5	
896.63	4260.5	
896.8	4260.5	
896.96	4260.5	
897.13	4260.5	
897.29	4260.5	
897.46	4260.5	
897.62	4260.5	
897.79	4260.5	
897.95	4260.5	
898.12	4260.5	
898.28	4260.5	
898.45	4260.5	
898.61	4260.5	
898.78	4260.5	
898.94	4260.5	
899.11	4260.5	
899.27	4260.5	
899.44	4260.5	
899.6	4260.5	
899.77	4260.5	
899.93	4260.5	
900.1	4260.5	
900.26	4260.5	
900.43	4260.5	
900.59	4260.5	
900.76	4260.5	
900.92	4260.5	
901.09	4260.5	
901.25	4260.5	
901.42	4260.5	
901.58	4260.5	
901.75	4260.5	
901.91	4260.5	
902.07	4260.5	
902.24	4260.5	
902.4	4260.5	
902.57	4260.5	
902.73	4260.5	
902.9	4260.5	
903.06	4260.5	
903.23	4260.5	
903.39	4260.5	
903.56	4260.5	
903.72	4260.5	
903.88	4260.5	
904.05	4260.5	
904.21	4260.5	
904.38	4260.5	
904.54	4260.5	
904.71	4260.5	
904.87	4260.5	
905.03	4260.5	
905.2	4260.5	
905.36	4260.5	
905.53	4260.5	
905.69	4260.5	
905.86	4260.5	
906.02	4260.5	
906.18	4260.5	
906.35	4260.5	
906.51	4260.5	
906.68	4260.5	
906.84	4260.5	
907.01	4260.5	
907.17	4260.5	
907.33	4260.5	
907.5	4260.5	
907.66	4260.5	
907.83	4260.5	
907.99	4260.5	
908.15	4260.5	
908.32	4260.5	
908.48	4260.5	
908.65	4260.5	
908.81	4260.5	
908.97	4260.5	
909.14	4260.5	
909.3	4260.5	
909.47	4260.5	
909.63	4260.5	
909.79	4260.5	
909.96	4260.5	
910.12	4260.5	
910.28	4260.5	
910.45	4260.5	
910.61	4260.5	
910.78	4260.5	
910.94	4260.5	
911.1	4260.5	
911.27	4260.5	
911.43	4260.5	
911.59	4260.5	
911.76	4260.5	
911.92	4260.5	
912.08	4260.5	
912.25	4260.5	
912.41	4260.5	
912.57	4260.5	
912.74	4260.5	
912.9	4260.5	
913.07	4260.5	
913.23	4260.5	
913.39	4260.5	
913.56	4260.5	
913.72	4260.5	
913.88	4260.5	
914.05	4260.5	
914.21	4260.5	
914.37	4260.5	
914.54	4260.5	
914.7	4260.5	
914.86	4260.5	
915.03	4260.5	
915.19	4260.5	
