Wavelength	Intensities	
nm	a.u.	
179.22	1688.2	
179.44	1671.8	
179.65	1704.6	
179.86	1639.1	
180.08	1680.7	
180.29	3928.7	
180.51	3039.2	
180.72	4958.8	
180.94	5598.5	
181.15	2723.8	
181.37	2681.5	
181.58	4804.5	
181.79	5015.5	
182.01	2837.8	
182.22	2964.1	
182.44	5042.1	
182.65	4337.6	
182.87	3670	
183.08	3237.8	
183.29	5282.4	
183.51	4375.1	
183.72	2982.5	
183.94	4186.7	
184.15	4774.5	
184.37	4648.9	
184.58	2638.5	
184.79	3516.4	
185.01	4453	
185.22	5043.5	
185.44	3689.1	
185.65	3125.9	
185.86	4749.9	
186.08	4361.5	
186.29	2637.8	
186.51	2818.7	
186.72	4459.1	
186.94	5141.8	
187.15	3199.6	
187.36	3228.3	
187.58	6391.7	
187.79	4778.6	
188.01	3401	
188.22	5005.9	
188.43	5593.7	
188.65	5012.1	
188.86	2864.4	
189.08	3334.1	
189.29	4601.8	
189.5	4570.4	
189.72	3010.5	
189.93	3095.2	
190.15	5097.4	
190.36	5939.8	
190.57	3284.3	
190.79	3209.8	
191	5177.3	
191.22	5130.2	
191.43	3330.7	
191.64	2791.4	
191.86	5389.6	
192.07	5153.4	
192.29	2910.8	
192.5	2968.2	
192.71	5172.5	
192.93	4575.8	
193.14	3000.3	
193.35	3074.7	
193.57	4582	
193.78	5184.8	
194	2536.8	
194.21	2990.7	
194.42	4412.7	
194.64	4748.6	
194.85	3266.5	
195.07	3702.7	
195.28	4782	
195.49	4221.5	
195.71	3948.5	
195.92	2868.5	
196.13	4934.2	
196.35	4949.9	
196.56	4133.5	
196.78	3253.5	
196.99	5902.2	
197.2	5509	
197.42	3647.4	
197.63	3269.9	
197.84	4330.8	
198.06	4857.8	
198.27	3016	
198.48	3863.8	
198.7	4582.7	
198.91	4764.9	
199.13	3272	
199.34	3291.1	
199.55	5103.5	
199.77	4121.9	
199.98	2941.6	
200.19	3346.4	
200.41	4732.9	
200.62	4401.8	
200.83	3404.4	
201.05	3590.8	
201.26	4737.6	
201.47	4532.2	
201.69	2965.5	
201.9	2889	
202.11	4780	
202.33	5494.7	
202.54	3117	
202.76	3445.4	
202.97	4792.2	
203.18	4840	
203.4	3425.6	
203.61	3409.2	
203.82	4796.3	
204.04	4473.4	
204.25	3260.4	
204.46	3208.5	
204.68	4729.4	
204.89	4867.3	
205.1	3224.9	
205.32	2874	
205.53	4985.4	
205.74	5140.4	
205.96	2519	
206.17	3297.2	
206.38	4949.9	
206.6	5105.6	
206.81	3746.4	
207.02	3048.7	
207.24	4930.8	
207.45	5247.6	
207.66	3103.4	
207.88	2735.4	
208.09	4810.7	
208.3	4719.9	
208.52	2932.7	
208.73	3211.2	
208.94	4761.5	
209.15	5269.4	
209.37	3144.3	
209.58	3261.7	
209.79	5141.8	
210.01	4602.5	
210.22	2592.7	
210.43	2693.8	
210.65	4716.5	
210.86	5014.1	
211.07	3170.3	
211.29	2934.7	
211.5	4928.8	
211.71	4731.5	
211.93	2947	
212.14	2936.1	
212.35	4660.5	
212.56	4786.1	
212.78	3338.2	
212.99	2764.8	
213.2	5410.7	
213.42	4561.5	
213.63	2997.5	
213.84	3140.9	
214.06	4237.9	
214.27	4371	
214.48	3123.2	
214.69	3379.1	
214.91	5233.9	
215.12	5257.8	
215.33	3334.1	
215.55	3590.1	
215.76	5577.3	
215.97	4967	
216.18	3121.8	
216.4	3163.4	
216.61	4460.5	
216.82	5100.1	
217.04	2934.7	
217.25	3093.1	
217.46	5180.7	
217.67	5034.6	
217.89	2698.5	
218.1	2751.8	
218.31	4760.8	
218.53	4904.9	
218.74	3092.4	
218.95	2965.5	
219.16	4730.8	
219.38	5423	
219.59	2957.3	
219.8	3517.7	
220.01	5806	
220.23	4721.9	
220.44	3749.1	
220.65	2899.2	
220.87	4756.1	
221.08	5195.7	
221.29	2854.2	
221.5	3573.7	
221.72	6148.7	
221.93	4471.4	
222.14	3294.5	
222.35	3810.6	
222.57	4709.6	
222.78	5070.1	
222.99	3199.6	
223.2	3395.5	
223.42	5010	
223.63	5024.3	
223.84	2529.2	
224.05	2534	
224.27	5781.4	
224.48	5354.8	
224.69	3836.5	
224.9	3304.1	
225.12	4893.3	
225.33	4709.6	
225.54	2735.4	
225.75	2992.8	
225.97	4427	
226.18	4701.5	
226.39	3127.2	
226.6	3027.6	
226.82	4554.7	
227.03	4422.9	
227.24	3302	
227.45	2819.4	
227.67	5029.8	
227.88	5366.4	
228.09	3646.7	
228.3	3602.4	
228.52	4962.2	
228.73	4726	
228.94	3084.2	
229.15	2806.4	
229.36	4702.8	
229.58	4655	
229.79	3128.6	
230	3524.6	
230.21	5553.4	
230.43	4783.4	
230.64	3274.7	
230.85	3343.7	
231.06	5083.7	
231.28	5101.5	
231.49	2757.9	
231.7	3220.1	
231.91	4978.6	
232.12	4722.6	
232.34	2888.3	
232.55	3173	
232.76	5182	
232.97	4846.2	
233.18	2953.9	
233.4	3281.5	
233.61	4860.5	
233.82	4625	
234.03	3054.9	
234.25	3016.7	
234.46	6184.9	
234.67	4782.7	
234.88	3342.3	
235.09	2998.2	
235.31	4893.3	
235.52	4614.8	
235.73	3252.9	
235.94	2813.9	
236.15	4543.8	
236.37	5599.1	
236.58	2914.3	
236.79	3127.2	
237	5006.6	
237.21	4349.9	
237.43	3372.3	
237.64	2731.3	
237.85	7796.6	
238.06	4417.5	
238.27	3365.5	
238.48	2829.6	
238.7	5029.1	
238.91	4620.2	
239.12	3056.3	
239.33	3213.9	
239.54	4506.2	
239.76	4693.9	
239.97	3153.9	
240.18	3173	
240.39	5614.8	
240.6	4863.9	
240.82	3274	
241.03	2794.8	
241.24	4663.2	
241.45	5362.9	
241.66	2944.3	
241.87	3442.6	
242.09	5324	
242.3	5513.1	
242.51	3435.1	
242.72	3142.3	
242.93	5040.1	
243.14	4734.2	
243.36	3634.5	
243.57	3850.9	
243.78	5317.9	
243.99	5003.2	
244.2	3162.7	
244.41	2908.1	
244.63	4404.5	
244.84	4945.8	
245.05	3339.6	
245.26	3097.2	
245.47	4995.7	
245.68	5124	
245.9	4105.5	
246.11	3308.8	
246.32	4585.4	
246.53	4977.2	
246.74	4859.1	
246.95	2704.7	
247.16	4442.7	
247.38	4763.6	
247.59	2741.5	
247.8	3166.2	
248.01	4491.9	
248.22	4724	
248.43	2867.8	
248.64	3147	
248.86	4319.8	
249.07	4536.3	
249.28	2902	
249.49	3224.9	
249.7	5152	
249.91	5216.9	
250.12	2753.2	
250.34	2745	
250.55	4827.7	
250.76	4740.4	
250.97	3222.8	
251.18	3306.1	
251.39	5158.2	
251.6	4869.4	
251.81	3331.4	
252.03	3289	
252.24	4545.8	
252.45	4969.1	
252.66	2835.1	
252.87	3515	
253.08	4771.8	
253.29	5869.5	
253.5	2833.7	
253.72	3841.3	
253.93	4630.5	
254.14	5483.8	
254.35	3044	
254.56	3115.6	
254.77	4898.1	
254.98	4467.3	
255.19	3075.4	
255.41	3758	
255.62	4849.6	
255.83	5233.2	
256.04	3374.4	
256.25	3271.3	
256.46	5614.2	
256.67	4515.8	
256.88	3321.8	
257.09	3564.1	
257.31	4451.6	
257.52	4461.8	
257.73	4033.1	
257.94	3062.4	
258.15	4683	
258.36	4730.1	
258.57	3685	
258.78	2486.9	
258.99	5069.4	
259.2	4607.9	
259.41	3064.4	
259.63	3167.5	
259.84	5332.2	
260.05	5550.7	
260.26	3788.7	
260.47	2984.6	
260.68	5140.4	
260.89	4601.1	
261.1	3581.2	
261.31	2975	
261.52	5259.9	
261.73	5433.9	
261.95	3783.3	
262.16	3427.6	
262.37	5246.2	
262.58	5308.3	
262.79	3782.6	
263	3089	
263.21	4764.3	
263.42	4315.1	
263.63	3310.9	
263.84	3051.5	
264.05	5129.5	
264.26	5358.9	
264.47	3671.3	
264.69	3239.2	
264.9	5351.3	
265.11	4853.7	
265.32	2945	
265.53	3009.1	
265.74	4773.8	
265.95	4252.9	
266.16	3198.9	
266.37	3539.6	
266.58	4861.9	
266.79	4589.5	
267	3007.8	
267.21	2831	
267.42	4432.5	
267.63	4779.3	
267.84	3119.7	
268.06	2779.8	
268.27	5066.7	
268.48	5229.8	
268.69	3097.9	
268.9	3577.8	
269.11	5240.8	
269.32	4332.8	
269.53	3168.9	
269.74	2953.9	
269.95	4922	
270.16	4279.6	
270.37	3200.3	
270.58	3624.2	
270.79	4624.3	
271	5115.8	
271.21	3327.3	
271.42	3227.6	
271.63	4844.8	
271.84	4407.2	
272.05	2615.3	
272.26	2893.8	
272.47	4741	
272.68	4850.3	
272.89	3072.6	
273.11	3474.7	
273.32	4556	
273.53	5429.2	
273.74	3340.2	
273.95	3264.5	
274.16	5066	
274.37	4724	
274.58	3452.2	
274.79	2851.5	
275	4868.7	
275.21	5137	
275.42	4067.9	
275.63	3469.9	
275.84	4915.1	
276.05	5997.1	
276.26	3280.8	
276.47	3142.9	
276.68	4674.8	
276.89	5460.6	
277.1	3511.6	
277.31	2796.8	
277.52	4934.2	
277.73	5175.2	
277.94	2811.9	
278.15	3054.2	
278.36	4922	
278.57	4454.3	
278.78	3046	
278.99	3373.7	
279.2	4514.4	
279.41	4450.2	
279.62	3899.3	
279.83	2900.6	
280.04	5616.2	
280.25	4409.3	
280.46	3814	
280.67	3178.4	
280.88	4511.7	
281.09	5216.2	
281.3	3335.5	
281.51	4035.2	
281.72	4557.4	
281.93	5082.4	
282.14	2994.8	
282.35	3239.9	
282.56	5175.9	
282.77	5099.4	
282.98	3098.6	
283.19	3661.1	
283.4	6096.8	
283.61	4765.6	
283.82	2901.3	
284.03	3822.9	
284.24	4847.5	
284.45	5163.6	
284.66	3862.5	
284.87	3633.1	
285.08	5186.1	
285.29	5218.2	
285.5	2711.5	
285.71	3105.4	
285.92	5154.1	
286.12	5639.4	
286.33	3840.6	
286.54	3127.9	
286.75	5109.7	
286.96	4597.7	
287.17	2969.6	
287.38	3685.7	
287.59	4512.4	
287.8	4478.2	
288.01	3084.9	
288.22	3491.1	
288.43	5044.1	
288.64	4334.2	
288.85	3665.2	
289.06	3459	
289.27	5090.6	
289.48	5465.3	
289.69	3887.7	
289.9	3536.2	
290.11	5227.1	
290.32	4497.3	
290.53	3673.4	
290.74	3368.2	
290.94	5044.1	
291.15	5058.5	
291.36	3040.6	
291.57	3452.9	
291.78	4571.7	
291.99	4334.9	
292.2	2888.3	
292.41	3425.6	
292.62	5165	
292.83	4999.1	
293.04	4129.4	
293.25	2963.4	
293.46	4618.9	
293.67	5149.3	
293.88	2951.8	
294.09	2917	
294.29	4399.7	
294.5	4831.2	
294.71	3196.2	
294.92	3072	
295.13	4629.8	
295.34	5535	
295.55	2745	
295.76	2721.8	
295.97	5023.7	
296.18	5578.7	
296.39	2854.2	
296.6	2992.1	
296.81	4815.5	
297.01	5000.5	
297.22	3083.6	
297.43	3032.4	
297.64	4556	
297.85	4459.1	
298.06	2521.7	
298.27	2750.4	
298.48	4714.4	
298.69	4545.1	
298.9	3237.8	
299.11	2942.2	
299.31	4413.4	
299.52	4443.4	
299.73	3407.8	
299.94	3366.9	
300.15	4742.4	
300.36	4537.6	
300.57	3381.9	
300.78	3327.3	
300.99	4588.8	
301.2	4814.1	
301.4	2988	
301.61	3192.1	
301.82	4977.2	
302.03	5019.6	
302.24	3543	
302.45	2893.8	
302.66	4967.7	
302.87	5249.6	
303.08	2975.7	
303.29	3902.7	
303.49	4588.8	
303.7	4696.7	
303.91	2736.8	
304.12	3814	
304.33	4360.8	
304.54	4823.6	
304.75	3033	
304.96	2891	
305.16	4959.5	
305.37	5487.2	
305.58	2674	
305.79	2752.5	
306	4947.2	
306.21	4296	
306.42	2950.4	
306.63	4385.4	
306.83	4696.7	
307.04	5074.2	
307.25	3251.5	
307.46	3263.1	
307.67	4212.7	
307.88	5004.6	
308.09	2985.3	
308.29	3034.4	
308.5	4775.9	
308.71	5145.9	
308.92	3214.6	
309.13	2948.4	
309.34	4741.7	
309.55	4655.7	
309.75	3684.3	
309.96	3349.8	
310.17	5026.4	
310.38	4489.8	
310.59	3479.5	
310.8	2807.1	
311.01	4645.5	
311.21	4631.8	
311.42	2897.2	
311.63	2955.9	
311.84	4568.3	
312.05	4827.1	
312.26	3342.3	
312.46	3641.3	
312.67	4647.5	
312.88	4361.5	
313.09	2921.1	
313.3	2871.3	
313.51	5347.9	
313.71	5558.9	
313.92	2889	
314.13	3052.8	
314.34	4894.6	
314.55	4740.4	
314.76	3624.2	
314.96	3194.8	
315.17	4834.6	
315.38	5055.1	
315.59	2961.4	
315.8	2829.6	
316.01	5305.6	
316.21	5416.9	
316.42	2854.2	
316.63	3172.3	
316.84	4684.4	
317.05	5289.2	
317.26	3390.8	
317.46	3055.6	
317.67	4698	
317.88	5030.5	
318.09	3601	
318.3	2786.6	
318.5	4595	
318.71	4956.1	
318.92	4543.1	
319.13	3334.8	
319.34	5116.5	
319.54	5170.4	
319.75	2775.7	
319.96	2651.4	
320.17	4945.8	
320.38	5180.7	
320.58	2722.4	
320.79	3149.8	
321	5248.9	
321.21	5245.5	
321.42	3247.4	
321.62	2693.1	
321.83	4516.5	
322.04	4771.8	
322.25	3094.5	
322.46	2915.6	
322.66	4871.4	
322.87	5010.7	
323.08	3523.9	
323.29	2859	
323.5	5561.6	
323.7	4389.5	
323.91	3795.6	
324.12	3421.5	
324.33	4876.9	
324.53	4930.1	
324.74	3390.8	
324.95	3516.4	
325.16	4296	
325.37	4629.8	
325.57	2865.8	
325.78	3006.4	
325.99	4866	
326.2	4346.5	
326.4	4078.9	
326.61	2747	
326.82	4690.5	
327.03	4810.7	
327.24	3972.4	
327.44	3780.6	
327.65	4968.4	
327.86	4150.6	
328.07	3364.8	
328.27	2894.5	
328.48	5266.7	
328.69	4401.1	
328.9	4073.4	
329.1	3093.8	
329.31	4645.5	
329.52	5299.5	
329.73	2941.6	
329.93	3216	
330.14	4741	
330.35	4939	
330.56	4532.8	
330.76	3457.7	
330.97	4646.2	
331.18	4792.9	
331.39	3204.4	
331.59	2697.2	
331.8	5208	
332.01	5264	
332.22	2992.8	
332.42	3321.1	
332.63	4791.6	
332.84	4456.4	
333.05	3291.8	
333.25	3004.4	
333.46	4554	
333.67	4760.2	
333.88	3061	
334.08	3281.5	
334.29	6081.8	
334.5	5141.8	
334.7	2850.1	
334.91	4010.6	
335.12	4382.7	
335.33	4983.4	
335.53	3229	
335.74	4538.3	
335.95	4611.3	
336.16	4396.3	
336.36	3131.3	
336.57	3586	
336.78	4367.6	
336.98	5138.4	
337.19	3847.5	
337.4	3193.5	
337.61	5562.3	
337.81	4440.7	
338.02	3003	
338.23	3688.4	
338.43	5326.1	
338.64	4502.8	
338.85	2968.2	
339.05	3737.5	
339.26	5403.9	
339.47	4324.6	
339.68	2955.2	
339.88	4123.9	
340.09	4975.2	
340.3	5112.4	
340.5	3346.4	
340.71	2719.7	
340.92	4375.1	
341.13	5213.4	
341.33	2805.7	
341.54	3358	
341.75	4844.8	
341.95	4658.4	
342.16	3253.5	
342.37	3482.2	
342.57	4397.7	
342.78	4701.5	
342.99	3508.2	
343.19	2734	
343.4	5039.4	
343.61	4995	
343.81	3139.5	
344.02	2847.4	
344.23	5057.8	
344.43	5270.8	
344.64	3553.2	
344.85	3549.8	
345.06	4997.7	
345.26	5167	
345.47	3357.3	
345.68	3790.1	
345.88	4289.8	
346.09	5091.3	
346.3	3422.8	
346.5	2636.4	
346.71	4718.5	
346.92	4539.7	
347.12	2772.3	
347.33	3289	
347.54	5127.4	
347.74	5433.9	
347.95	3290.4	
348.16	2583.2	
348.36	4585.4	
348.57	4453.6	
348.78	3363.4	
348.98	3503.4	
349.19	4709	
349.39	4280.3	
349.6	2784.6	
349.81	3016	
350.01	4985.4	
350.22	4508.3	
350.43	3265.1	
350.63	3821.5	
350.84	4757.4	
351.05	4572.4	
351.25	2971.6	
351.46	2776.4	
351.67	5173.2	
351.87	4540.3	
352.08	3136.1	
352.29	3568.2	
352.49	5130.8	
352.7	5137	
352.9	2893.1	
353.11	3498.6	
353.32	5526.1	
353.52	4651.6	
353.73	2908.1	
353.94	3599	
354.14	5001.1	
354.35	4767.7	
354.55	2997.5	
354.76	3258.3	
354.97	4975.2	
355.17	4775.2	
355.38	2848.7	
355.59	3831.7	
355.79	4543.1	
356	4831.2	
356.2	3284.3	
356.41	2941.6	
356.62	4407.9	
356.82	4762.2	
357.03	3510.2	
357.24	3190.1	
357.44	4568.3	
357.65	4656.4	
357.85	4121.9	
358.06	3360.7	
358.27	4373.8	
358.47	4545.1	
358.68	2841.2	
358.88	3504.1	
359.09	5098.1	
359.3	5289.2	
359.5	4024.9	
359.71	3625.6	
359.91	5576.6	
360.12	5020.9	
360.33	3553.2	
360.53	3908.9	
360.74	4659.1	
360.94	4697.4	
361.15	3741	
361.36	3160.7	
361.56	5257.1	
361.77	4835.9	
361.97	4033.8	
362.18	3274.7	
362.38	5317.9	
362.59	4611.3	
362.8	3093.1	
363	2974.3	
363.21	4469.4	
363.41	4960.2	
363.62	3482.2	
363.83	4244.1	
364.03	5119.2	
364.24	5709.1	
364.44	4367.6	
364.65	4285.7	
364.85	4945.8	
365.06	4616.1	
365.27	3263.8	
365.47	3338.9	
365.68	5650.3	
365.88	4906.9	
366.09	3616.7	
366.29	3375.7	
366.5	5100.1	
366.71	5373.2	
366.91	4381.3	
367.12	3831.7	
367.32	5921.4	
367.53	5296	
367.73	3771.7	
367.94	4452.3	
368.14	5328.1	
368.35	5899.5	
368.56	3680.2	
368.76	3236.5	
368.97	5401.2	
369.17	6570.6	
369.38	3328.6	
369.58	3571	
369.79	4593.6	
369.99	5638.7	
370.2	4397	
370.4	3664.5	
370.61	5118.6	
370.82	6124.8	
371.02	3543.7	
371.23	3003.7	
371.43	4597	
371.64	5657.9	
371.84	3677.5	
372.05	4497.3	
372.25	6552.1	
372.46	5501.5	
372.66	3736.9	
372.87	3665.2	
373.07	5464	
373.28	6733	
373.48	4482.3	
373.69	4204.5	
373.9	5222.3	
374.1	5178.6	
374.31	4496	
374.51	4093.9	
374.72	5904.3	
374.92	5003.2	
375.13	4668.7	
375.33	4003.1	
375.54	5624.4	
375.74	5156.8	
375.95	4141	
376.15	5076.9	
376.36	5643.5	
376.56	5508.4	
376.77	4276.2	
376.97	4558.1	
377.18	6520.7	
377.38	5802.6	
377.59	4797.7	
377.79	3962.1	
378	5713.2	
378.2	6012.2	
378.41	4055	
378.61	3961.5	
378.82	6125.5	
379.02	5484.5	
379.23	4196.3	
379.43	5016.8	
379.64	6201.2	
379.84	5846.3	
380.05	4045.4	
380.25	4042.7	
380.46	5995.8	
380.66	5585.5	
380.87	5046.9	
381.07	5342.5	
381.28	6460.7	
381.48	5920.7	
381.69	4020.8	
381.89	4036.5	
382.1	5077.6	
382.3	6012.2	
382.51	4911	
382.71	5547.3	
382.91	5874.9	
383.12	6312.5	
383.32	4377.9	
383.53	4385.4	
383.73	5757.5	
383.94	5601.9	
384.14	4450.2	
384.35	3717.1	
384.55	5489.9	
384.76	5812.1	
384.96	4351.3	
385.17	4439.3	
385.37	5819	
385.58	5210	
385.78	4447.5	
385.98	3543	
386.19	5413.5	
386.39	5792.3	
386.6	4080.2	
386.8	4323.9	
387.01	5828.5	
387.21	5844.2	
387.42	4621.6	
387.62	5023	
387.83	5503.6	
388.03	5825.8	
388.23	4455.7	
388.44	5013.4	
388.64	5266.7	
388.85	5399.8	
389.05	4748.6	
389.26	5272.8	
389.46	6989	
389.67	6429.3	
389.87	4829.1	
390.07	4829.1	
390.28	5823.1	
390.48	5494	
390.69	4263.9	
390.89	4543.1	
391.1	5692	
391.3	6360.3	
391.5	5395.7	
391.71	5870.8	
391.91	6275.7	
392.12	6940.6	
392.32	5532.9	
392.53	4874.8	
392.73	5837.4	
392.93	5910.4	
393.14	4719.9	
393.34	5218.2	
393.55	6141.9	
393.75	5724.8	
393.95	4447.5	
394.16	4511	
394.36	5612.8	
394.57	6139.1	
394.77	4162.2	
394.98	4469.4	
395.18	5728.9	
395.38	5825.8	
395.59	5229.8	
395.79	4579.3	
396	6003.3	
396.2	6370.5	
396.4	5292	
396.61	5301.5	
396.81	6533.7	
397.02	6012.2	
397.22	5560.2	
397.42	5568.4	
397.63	6644.3	
397.83	6097.5	
398.04	4728.1	
398.24	5103.5	
398.44	6432	
398.65	5728.2	
398.85	4611.3	
399.05	4725.3	
399.26	6141.2	
399.46	7355.6	
399.67	5119.2	
399.87	4885.8	
400.07	6516	
400.28	6789	
400.48	5078.3	
400.69	5893.4	
400.89	7034.1	
401.09	7370.6	
401.3	5098.8	
401.5	5942.5	
401.7	7565.9	
401.91	7788.4	
402.11	5462.6	
402.32	5543.9	
402.52	7144	
402.72	6976.7	
402.93	5638.1	
403.13	4529.4	
403.33	7381.6	
403.54	6199.9	
403.74	4988.9	
403.94	5659.9	
404.15	6250.4	
404.35	7116.7	
404.56	4846.9	
404.76	6284.5	
404.96	6835.4	
405.17	6561.7	
405.37	5940.5	
405.57	5518.6	
405.78	7037.5	
405.98	6526.2	
406.18	5281.7	
406.39	5872.9	
406.59	6903	
406.79	6475.7	
407	4812	
407.2	4873.5	
407.4	7085.3	
407.61	7004.1	
407.81	5127.4	
408.01	6870.3	
408.22	6327.5	
408.42	7860.8	
408.62	6365.8	
408.83	6071.5	
409.03	7278.5	
409.23	7174.7	
409.44	6313.9	
409.64	6488.6	
409.84	8258.1	
410.05	8256.7	
410.25	6562.4	
410.45	6457.9	
410.66	8107.9	
410.86	9715.6	
411.06	7202	
411.27	6851.1	
411.47	9961.3	
411.67	8381.7	
411.88	7121.5	
412.08	7559.1	
412.28	8908.7	
412.49	9299.8	
412.69	7281.2	
412.89	7188.4	
413.09	9226.1	
413.3	9168.8	
413.5	7453.2	
413.7	7225.2	
413.91	8639	
414.11	9343.5	
414.31	7453.2	
414.52	7837.6	
414.72	9093.7	
414.92	9203.6	
415.12	7413	
415.33	7826.7	
415.53	9556.5	
415.73	9600.9	
415.94	8104.5	
416.14	7739.3	
416.34	8877.3	
416.55	8608.3	
416.75	8665.6	
416.95	8258.8	
417.15	9717.6	
417.36	10108	
417.56	9088.2	
417.76	8305.9	
417.97	10108	
418.17	10050	
418.37	8016.4	
418.57	8252.6	
418.78	9892.4	
418.98	9419.3	
419.18	8912.1	
419.38	8697	
419.59	9415.2	
419.79	9011.7	
419.99	7879.9	
420.2	8226.7	
420.4	9805	
420.6	9770.2	
420.8	7885.4	
421.01	7813.7	
421.21	10013	
421.41	9912.2	
421.61	8254	
421.82	8117.5	
422.02	9421.3	
422.22	10087	
422.42	8648.6	
422.63	8122.2	
422.83	9574.3	
423.03	10453	
423.23	8232.8	
423.44	7558.4	
423.64	9493	
423.84	9107.3	
424.04	7942.7	
424.25	7530.4	
424.45	10019	
424.65	9854.8	
424.85	7395.9	
425.06	7863.5	
425.26	10139	
425.46	9250	
425.66	8242.4	
425.87	7940.7	
426.07	9795.4	
426.27	9546.3	
426.47	8008.2	
426.67	7478.5	
426.88	9980.4	
427.08	9493.7	
427.28	8206.9	
427.48	7397.3	
427.69	8645.8	
427.89	9124.4	
428.09	8082	
428.29	7390.4	
428.5	9702.6	
428.7	9379.7	
428.9	7481.9	
429.1	7707.9	
429.3	9447.3	
429.51	9625.5	
429.71	7703.8	
429.91	8414.4	
430.11	9794.8	
430.31	10275	
430.52	8122.9	
430.72	8350.9	
430.92	10264	
431.12	9878.7	
431.32	7907.9	
431.53	8004.8	
431.73	9110	
431.93	10262	
432.13	7808.2	
432.33	7797.3	
432.54	9435	
432.74	9792	
432.94	7917.4	
433.14	8670.4	
433.34	10024	
433.55	9906	
433.75	8626.7	
433.95	10046	
434.15	9971.6	
434.35	9787.9	
434.56	8161.2	
434.76	7925.6	
434.96	10029	
435.16	10387	
435.36	8109.3	
435.56	9189.2	
435.77	9959.3	
435.97	10120	
436.17	9682.8	
436.37	9133.9	
436.57	9872.6	
436.78	10155	
436.98	10335	
437.18	9594.1	
437.38	10731	
437.58	10007	
437.78	9652.8	
437.99	8576.2	
438.19	10406	
438.39	11048	
438.59	8490.2	
438.79	7862.2	
438.99	10725	
439.2	9810.5	
439.4	7763.2	
439.6	8015.7	
439.8	10226	
440	11111	
440.2	9254.1	
440.4	9371.5	
440.61	11064	
440.81	11381	
441.01	9090.3	
441.21	9722.4	
441.41	11588	
441.61	11197	
441.81	10046	
442.02	10606	
442.22	11715	
442.42	11295	
442.62	9250.7	
442.82	8932.6	
443.02	11627	
443.22	11047	
443.43	9598.8	
443.63	9282.8	
443.83	10844	
444.03	10811	
444.23	10375	
444.43	10047	
444.63	11413	
444.83	12058	
445.04	9762	
445.24	10537	
445.44	11473	
445.64	11467	
445.84	9777.7	
446.04	9827.5	
446.24	10724	
446.44	11501	
446.65	9060.2	
446.85	9408.4	
447.05	10689	
447.25	11409	
447.45	9464.3	
447.65	9029.5	
447.85	11101	
448.05	10587	
448.25	9757.9	
448.46	9701.9	
448.66	11048	
448.86	10713	
449.06	9118.2	
449.26	9796.8	
449.46	11391	
449.66	10611	
449.86	9782.5	
450.06	9568.8	
450.26	10913	
450.47	11432	
450.67	9756.5	
450.87	10133	
451.07	11544	
451.27	11297	
451.47	9248.6	
451.67	10079	
451.87	11202	
452.07	11678	
452.27	9689.6	
452.47	9621.4	
452.67	11331	
452.88	11703	
453.08	8953	
453.28	10518	
453.48	12285	
453.68	11026	
453.88	9568.1	
454.08	9616.6	
454.28	11728	
454.48	11291	
454.68	10228	
454.88	10499	
455.08	11883	
455.28	11912	
455.48	9559.2	
455.68	10273	
455.89	12375	
456.09	12188	
456.29	10055	
456.49	10357	
456.69	12499	
456.89	11710	
457.09	10684	
457.29	11148	
457.49	12275	
457.69	12388	
457.89	11025	
458.09	10329	
458.29	12497	
458.49	12975	
458.69	11319	
458.89	10974	
459.09	13345	
459.29	13153	
459.49	10847	
459.69	11692	
459.9	12844	
460.1	12768	
460.3	10639	
460.5	10671	
460.7	12900	
460.9	12630	
461.1	10542	
461.3	11496	
461.5	13650	
461.7	13305	
461.9	11476	
462.1	11484	
462.3	13285	
462.5	13603	
462.7	11372	
462.9	11695	
463.1	14314	
463.3	14479	
463.5	11818	
463.7	12932	
463.9	13773	
464.1	14176	
464.3	12674	
464.5	12420	
464.7	14339	
464.9	14504	
465.1	13594	
465.3	13022	
465.5	14590	
465.7	14863	
465.9	13289	
466.1	12699	
466.3	14922	
466.5	14543	
466.7	14101	
466.9	13018	
467.1	14871	
467.3	15452	
467.5	14121	
467.7	13290	
467.9	15731	
468.1	16531	
468.3	13616	
468.5	14225	
468.7	15056	
468.9	14986	
469.1	13679	
469.3	14309	
469.5	16821	
469.7	15081	
469.9	13700	
470.1	13618	
470.3	15306	
470.5	15227	
470.7	14483	
470.9	13534	
471.1	15062	
471.3	15033	
471.5	13474	
471.69	14745	
471.89	14753	
472.09	14225	
472.29	14072	
472.49	13837	
472.69	14669	
472.89	15107	
473.09	13371	
473.29	13063	
473.49	14685	
473.69	14399	
473.89	13706	
474.09	13171	
474.29	15482	
474.49	15216	
474.69	13898	
474.89	13325	
475.09	14647	
475.29	14488	
475.49	12966	
475.69	13183	
475.88	15718	
476.08	14870	
476.28	12765	
476.48	12811	
476.68	14938	
476.88	14706	
477.08	12672	
477.28	13084	
477.48	14223	
477.68	14691	
477.88	12594	
478.08	12843	
478.28	15390	
478.48	14502	
478.67	13069	
478.87	12288	
479.07	15111	
479.27	14494	
479.47	13020	
479.67	13121	
479.87	14900	
480.07	15297	
480.27	12550	
480.47	13682	
480.67	14513	
480.87	15350	
481.06	12734	
481.26	13541	
481.46	14704	
481.66	14566	
481.86	13278	
482.06	13830	
482.26	14474	
482.46	14906	
482.66	13119	
482.86	12886	
483.05	14875	
483.25	14381	
483.45	14956	
483.65	13280	
483.85	14563	
484.05	14866	
484.25	13575	
484.45	14158	
484.65	15388	
484.84	15587	
485.04	13338	
485.24	13307	
485.44	15907	
485.64	14528	
485.84	13048	
486.04	14070	
486.24	14922	
486.44	15198	
486.63	13064	
486.83	13871	
487.03	15113	
487.23	15244	
487.43	13134	
487.63	15176	
487.83	15383	
488.02	16071	
488.22	14242	
488.42	14732	
488.62	16033	
488.82	15340	
489.02	13877	
489.22	14052	
489.41	15885	
489.61	15840	
489.81	13722	
490.01	13839	
490.21	16035	
490.41	16526	
490.61	13951	
490.8	13882	
491	15754	
491.2	14954	
491.4	14108	
491.6	13424	
491.8	15322	
491.99	15176	
492.19	13013	
492.39	13472	
492.59	15809	
492.79	15981	
492.99	14323	
493.18	13905	
493.38	16274	
493.58	17083	
493.78	14636	
493.98	14410	
494.18	16325	
494.37	16235	
494.57	15352	
494.77	15184	
494.97	17023	
495.17	17314	
495.37	15204	
495.56	15515	
495.76	17742	
495.96	17576	
496.16	16424	
496.36	15746	
496.55	17741	
496.75	17431	
496.95	15910	
497.15	15827	
497.35	17641	
497.54	17742	
497.74	15557	
497.94	16934	
498.14	18325	
498.34	18112	
498.53	15741	
498.73	16206	
498.93	17447	
499.13	17740	
499.33	16404	
499.52	16514	
499.72	18255	
499.92	18294	
500.12	16139	
500.32	16396	
500.51	18290	
500.71	18340	
500.91	17003	
501.11	16711	
501.31	18199	
501.5	18516	
501.7	17177	
501.9	16608	
502.1	18102	
502.29	18417	
502.49	16982	
502.69	17071	
502.89	18148	
503.09	18148	
503.28	15765	
503.48	15748	
503.68	17353	
503.88	17499	
504.07	16432	
504.27	15982	
504.47	17678	
504.67	17645	
504.86	16406	
505.06	15961	
505.26	17266	
505.46	18414	
505.65	15898	
505.85	15850	
506.05	16890	
506.25	17335	
506.44	15045	
506.64	15614	
506.84	16735	
507.04	17088	
507.23	15040	
507.43	15560	
507.63	18072	
507.83	16825	
508.02	15541	
508.22	15324	
508.42	18466	
508.62	16726	
508.81	15279	
509.01	15823	
509.21	16348	
509.4	16840	
509.6	15556	
509.8	15110	
510	16763	
510.19	17755	
510.39	15030	
510.59	15196	
510.79	16694	
510.98	17727	
511.18	15444	
511.38	15501	
511.57	17471	
511.77	17086	
511.97	15699	
512.17	14988	
512.36	17208	
512.56	17068	
512.76	15061	
512.95	14715	
513.15	17215	
513.35	16139	
513.55	15733	
513.74	14883	
513.94	17323	
514.14	16683	
514.33	15748	
514.53	15567	
514.73	16665	
514.92	17027	
515.12	15126	
515.32	15085	
515.51	17072	
515.71	17322	
515.91	16491	
516.11	15227	
516.3	18366	
516.5	16856	
516.7	15642	
516.89	16100	
517.09	16815	
517.29	16803	
517.48	15844	
517.68	15230	
517.88	16676	
518.07	17035	
518.27	15753	
518.47	14975	
518.66	17560	
518.86	16477	
519.06	14857	
519.25	15194	
519.45	16707	
519.65	17981	
519.84	15851	
520.04	16315	
520.24	18232	
520.43	17152	
520.63	15366	
520.83	15165	
521.02	16399	
521.22	16817	
521.42	15153	
521.61	15692	
521.81	16552	
522.01	16505	
522.2	15463	
522.4	15159	
522.6	17277	
522.79	16332	
522.99	15404	
523.18	15132	
523.38	17308	
523.58	17389	
523.77	16959	
523.97	15575	
524.17	19262	
524.36	18557	
524.56	16689	
524.76	16639	
524.95	17894	
525.15	17677	
525.34	16448	
525.54	16541	
525.74	18515	
525.93	17826	
526.13	17703	
526.33	16925	
526.52	19057	
526.72	18609	
526.91	17887	
527.11	17371	
527.31	19058	
527.5	19330	
527.7	17490	
527.89	16868	
528.09	18621	
528.29	19334	
528.48	17927	
528.68	17482	
528.87	19379	
529.07	19351	
529.27	17382	
529.46	17164	
529.66	19146	
529.85	19413	
530.05	17167	
530.25	17728	
530.44	20162	
530.64	18864	
530.83	17204	
531.03	17621	
531.23	19443	
531.42	19067	
531.62	18328	
531.81	17774	
532.01	19916	
532.21	20325	
532.4	17981	
532.6	18473	
532.79	20853	
532.99	20460	
533.18	18750	
533.38	19377	
533.58	20418	
533.77	20516	
533.97	18751	
534.16	19274	
534.36	21255	
534.55	20571	
534.75	19531	
534.95	19101	
535.14	21388	
535.34	20480	
535.53	18563	
535.73	20096	
535.92	21253	
536.12	20293	
536.31	18573	
536.51	19403	
536.71	20495	
536.9	20232	
537.1	18402	
537.29	18755	
537.49	20823	
537.68	20171	
537.88	19047	
538.07	18432	
538.27	20606	
538.46	21220	
538.66	18574	
538.86	18916	
539.05	20590	
539.25	20785	
539.44	19431	
539.64	18850	
539.83	20504	
540.03	21076	
540.22	18671	
540.42	18527	
540.61	20297	
540.81	20370	
541	18630	
541.2	19399	
541.39	19843	
541.59	20203	
541.78	19237	
541.98	18329	
542.18	19633	
542.37	19544	
542.57	18325	
542.76	18868	
542.96	19284	
543.15	19785	
543.35	18084	
543.54	17776	
543.74	19576	
543.93	19466	
544.13	17756	
544.32	18606	
544.52	19561	
544.71	19017	
544.91	17208	
545.1	18116	
545.3	19155	
545.49	19633	
545.69	16980	
545.88	17520	
546.08	20297	
546.27	19587	
546.47	17922	
546.66	17146	
546.86	19554	
547.05	19950	
547.24	17485	
547.44	17550	
547.63	18574	
547.83	19654	
548.02	17645	
548.22	17669	
548.41	18499	
548.61	19310	
548.8	17137	
549	17169	
549.19	18738	
549.39	19195	
549.58	16784	
549.78	17277	
549.97	19055	
550.17	18475	
550.36	17527	
550.55	18275	
550.75	18447	
550.94	19054	
551.14	16502	
551.33	16708	
551.53	17912	
551.72	18613	
551.92	16939	
552.11	16761	
552.31	18725	
552.5	18691	
552.69	18067	
552.89	16296	
553.08	18506	
553.28	18245	
553.47	16566	
553.67	17336	
553.86	18813	
554.06	17488	
554.25	15847	
554.44	16393	
554.64	19275	
554.83	19013	
555.03	16262	
555.22	16563	
555.42	18523	
555.61	18086	
555.8	16203	
556	16438	
556.19	17699	
556.39	18290	
556.58	16368	
556.78	16243	
556.97	18047	
557.16	17819	
557.36	17116	
557.55	16008	
557.75	17201	
557.94	18660	
558.13	16036	
558.33	15930	
558.52	18430	
558.72	17371	
558.91	15724	
559.1	16064	
559.3	17193	
559.49	16789	
559.69	15451	
559.88	16059	
560.07	17764	
560.27	17891	
560.46	16281	
560.66	16270	
560.85	17410	
561.04	16690	
561.24	15558	
561.43	15378	
561.63	16926	
561.82	17030	
562.01	16509	
562.21	15847	
562.4	17355	
562.59	18247	
562.79	15824	
562.98	15613	
563.18	17412	
563.37	18709	
563.56	16226	
563.76	15691	
563.95	17225	
564.14	17083	
564.34	15911	
564.53	15608	
564.73	17578	
564.92	18004	
565.11	16126	
565.31	15618	
565.5	18176	
565.69	17204	
565.89	15935	
566.08	16106	
566.27	18064	
566.47	18411	
566.66	16386	
566.85	15643	
567.05	17800	
567.24	17264	
567.44	15920	
567.63	16847	
567.82	17857	
568.02	17780	
568.21	15872	
568.4	16027	
568.6	17618	
568.79	17680	
568.98	15770	
569.18	15983	
569.37	17842	
569.56	19313	
569.76	16360	
569.95	17045	
570.14	18028	
570.34	17951	
570.53	15935	
570.72	15809	
570.91	18337	
571.11	17748	
571.3	16268	
571.49	16897	
571.69	17919	
571.88	17406	
572.07	16624	
572.27	16518	
572.46	17311	
572.65	18142	
572.85	16063	
573.04	16284	
573.23	18458	
573.43	17754	
573.62	16161	
573.81	16505	
574	18176	
574.2	17942	
574.39	16602	
574.58	16682	
574.78	18919	
574.97	18406	
575.16	17026	
575.36	17086	
575.55	18905	
575.74	18796	
575.93	16261	
576.13	17333	
576.32	18243	
576.51	18730	
576.71	16857	
576.9	17735	
577.09	19022	
577.28	18616	
577.48	16914	
577.67	16272	
577.86	18297	
578.05	18695	
578.25	16864	
578.44	16911	
578.63	18405	
578.83	19420	
579.02	16484	
579.21	17692	
579.4	18558	
579.6	18507	
579.79	16954	
579.98	18715	
580.17	18844	
580.37	18972	
580.56	16451	
580.75	17199	
580.94	19172	
581.14	19069	
581.33	17638	
581.52	16645	
581.71	18736	
581.91	19176	
582.1	16701	
582.29	16760	
582.48	18409	
582.68	18549	
582.87	17247	
583.06	17122	
583.25	18946	
583.45	18570	
583.64	17621	
583.83	18120	
584.02	18525	
584.21	18882	
584.41	17552	
584.6	17024	
584.79	18648	
584.98	19122	
585.18	16665	
585.37	16613	
585.56	18340	
585.75	18925	
585.94	16571	
586.14	17220	
586.33	19011	
586.52	18286	
586.71	16877	
586.91	16651	
587.1	17529	
587.29	18404	
587.48	16277	
587.67	16322	
587.87	18206	
588.06	18127	
588.25	17101	
588.44	16580	
588.63	17789	
588.83	18051	
589.02	16059	
589.21	15793	
589.4	17382	
589.59	17193	
589.78	14817	
589.98	14801	
590.17	16260	
590.36	16554	
590.55	13873	
590.74	14334	
590.94	17124	
591.13	15969	
591.32	14166	
591.51	13992	
591.7	16511	
591.89	16160	
592.09	14172	
592.28	14586	
592.47	15581	
592.66	17221	
592.85	14197	
593.05	14456	
593.24	15991	
593.43	16639	
593.62	14472	
593.81	14763	
594	16115	
594.19	16326	
594.39	14348	
594.58	14267	
594.77	16190	
594.96	16634	
595.15	14159	
595.34	14491	
595.54	16075	
595.73	15498	
595.92	13667	
596.11	14351	
596.3	16478	
596.49	15464	
596.68	14203	
596.88	14467	
597.07	16135	
597.26	15281	
597.45	13646	
597.64	14654	
597.83	15450	
598.02	15986	
598.22	13894	
598.41	14311	
598.6	15737	
598.79	15320	
598.98	13732	
599.17	14408	
599.36	15715	
599.55	16414	
599.74	15283	
599.94	15051	
600.13	16002	
600.32	15155	
600.51	13478	
600.7	13657	
600.89	16434	
601.08	16513	
601.27	13362	
601.47	13969	
601.66	15900	
601.85	16344	
602.04	13798	
602.23	13690	
602.42	15025	
602.61	15574	
602.8	13646	
602.99	13396	
603.18	15337	
603.37	15409	
603.57	13953	
603.76	14466	
603.95	16016	
604.14	15636	
604.33	13676	
604.52	13826	
604.71	15464	
604.9	15088	
605.09	14315	
605.28	13990	
605.47	15843	
605.66	15466	
605.86	13863	
606.05	13457	
606.24	15827	
606.43	14535	
606.62	13743	
606.81	14218	
607	15636	
607.19	15134	
607.38	13208	
607.57	13294	
607.76	14837	
607.95	14473	
608.14	13547	
608.33	13950	
608.52	14818	
608.72	15579	
608.91	12995	
609.1	12910	
609.29	14758	
609.48	14376	
609.67	13497	
609.86	12930	
610.05	14460	
610.24	14682	
610.43	12841	
610.62	12379	
610.81	15388	
611	15297	
611.19	12839	
611.38	13355	
611.57	14795	
611.76	15699	
611.95	12671	
612.14	12544	
612.33	14628	
612.52	14233	
612.71	13021	
612.9	12362	
613.09	13948	
613.28	15725	
613.47	12762	
613.66	13377	
613.85	14795	
614.04	14316	
614.24	12818	
614.43	12236	
614.62	14792	
614.81	14631	
615	13125	
615.19	13233	
615.38	14216	
615.57	14450	
615.76	13021	
615.95	13767	
616.14	14845	
616.33	14425	
616.52	13278	
616.71	13411	
616.9	14713	
617.09	14716	
617.28	12903	
617.47	13602	
617.66	14235	
617.85	14197	
618.04	13656	
618.22	13133	
618.41	14637	
618.6	15382	
618.79	13347	
618.98	13159	
619.17	15664	
619.36	14248	
619.55	13288	
619.74	13432	
619.93	15177	
620.12	14769	
620.31	13771	
620.5	13945	
620.69	15628	
620.88	15945	
621.07	14487	
621.26	13801	
621.45	15409	
621.64	15409	
621.83	14001	
622.02	13443	
622.21	15466	
622.4	15355	
622.59	14477	
622.78	14297	
622.97	15075	
623.16	15924	
623.35	14014	
623.54	13450	
623.72	15231	
623.91	15318	
624.1	14186	
624.29	13347	
624.48	16199	
624.67	15634	
624.86	14188	
625.05	13510	
625.24	16374	
625.43	15044	
625.62	15184	
625.81	13593	
626	15780	
626.19	15290	
626.38	14299	
626.56	13821	
626.75	15260	
626.94	16047	
627.13	14294	
627.32	13284	
627.51	15724	
627.7	16396	
627.89	13289	
628.08	14158	
628.27	14959	
628.46	15106	
628.65	13473	
628.83	13127	
629.02	15459	
629.21	14949	
629.4	13764	
629.59	14050	
629.78	14922	
629.97	15582	
630.16	13998	
630.35	13575	
630.54	16169	
630.72	15796	
630.91	13574	
631.1	13918	
631.29	15404	
631.48	15328	
631.67	14121	
631.86	13540	
632.05	15093	
632.24	15205	
632.42	13419	
632.61	13768	
632.8	15165	
632.99	14795	
633.18	13960	
633.37	14007	
633.56	15438	
633.75	15240	
633.93	13779	
634.12	13605	
634.31	15973	
634.5	15689	
634.69	13467	
634.88	13960	
635.07	15261	
635.25	15563	
635.44	14149	
635.63	14388	
635.82	14904	
636.01	14602	
636.2	14138	
636.39	13702	
636.57	15758	
636.76	15461	
636.95	13409	
637.14	14277	
637.33	15286	
637.52	15779	
637.7	13171	
637.89	13851	
638.08	15066	
638.27	15940	
638.46	13688	
638.65	14111	
638.83	15726	
639.02	14821	
639.21	13573	
639.4	13926	
639.59	14952	
639.78	14595	
639.96	12870	
640.15	12942	
640.34	14723	
640.53	14671	
640.72	12676	
640.91	12760	
641.09	14041	
641.28	15089	
641.47	13053	
641.66	13520	
641.85	14680	
642.03	14573	
642.22	13155	
642.41	12844	
642.6	14205	
642.79	13565	
642.97	12577	
643.16	13070	
643.35	14035	
643.54	13831	
643.73	12357	
643.91	12902	
644.1	13546	
644.29	14134	
644.48	12281	
644.67	12267	
644.85	13532	
645.04	13832	
645.23	11847	
645.42	12103	
645.6	13360	
645.79	14111	
645.98	11857	
646.17	11050	
646.36	12849	
646.54	13015	
646.73	12159	
646.92	11230	
647.11	12629	
647.29	13446	
647.48	11178	
647.67	10990	
647.86	13577	
648.05	13751	
648.23	11333	
648.42	12270	
648.61	13202	
648.8	12892	
648.98	10975	
649.17	11219	
649.36	12637	
649.55	12312	
649.73	11064	
649.92	11599	
650.11	12661	
650.3	12828	
650.48	11062	
650.67	10944	
650.86	12848	
651.05	11933	
651.23	10883	
651.42	10793	
651.61	12361	
651.79	12347	
651.98	11074	
652.17	10783	
652.36	12476	
652.54	11890	
652.73	10726	
652.92	10476	
653.11	12471	
653.29	12639	
653.48	10066	
653.67	10863	
653.85	12242	
654.04	12993	
654.23	10795	
654.42	10309	
654.6	11578	
654.79	11998	
654.98	9757.2	
655.16	10070	
655.35	10973	
655.54	10698	
655.73	9643.9	
655.91	9494.4	
656.1	11684	
656.29	10897	
656.47	9338.7	
656.66	10688	
656.85	11303	
657.03	11391	
657.22	9984.5	
657.41	9934	
657.59	11525	
657.78	11337	
657.97	9685.5	
658.16	10228	
658.34	11975	
658.53	12308	
658.72	10938	
658.9	11215	
659.09	11583	
659.28	11678	
659.46	10131	
659.65	10092	
659.84	11453	
660.02	11920	
660.21	10034	
660.4	9882.1	
660.58	12095	
660.77	11612	
660.96	10408	
661.14	9640.5	
661.33	12366	
661.52	12366	
661.7	9559.9	
661.89	12123	
662.08	11344	
662.26	10869	
662.45	9752.4	
662.64	9731.3	
662.82	11739	
663.01	11125	
663.2	9849.4	
663.38	10309	
663.57	11572	
663.75	11600	
663.94	10012	
664.13	10901	
664.31	11171	
664.5	11641	
664.69	10255	
664.87	10434	
665.06	10920	
665.25	11421	
665.43	10819	
665.62	10578	
665.8	11469	
665.99	11064	
666.18	9784.5	
666.36	9912.2	
666.55	11559	
666.74	11481	
666.92	9650	
667.11	10752	
667.29	11149	
667.48	11472	
667.67	10412	
667.85	9637.7	
668.04	11024	
668.22	11098	
668.41	9846.6	
668.6	9992	
668.78	10897	
668.97	11172	
669.15	10044	
669.34	9258.9	
669.53	10912	
669.71	11148	
669.9	9383.1	
670.08	9868.5	
670.27	10860	
670.46	11217	
670.64	10040	
670.83	10166	
671.01	10725	
671.2	11071	
671.38	9439.1	
671.57	9318.3	
671.76	11721	
671.94	12103	
672.13	9160.6	
672.31	10043	
672.5	11370	
672.69	10838	
672.87	9445.9	
673.06	9687.6	
673.24	11261	
673.43	10897	
673.61	9853.5	
673.8	9513.5	
673.98	11255	
674.17	11431	
674.36	10050	
674.54	9877.4	
674.73	10998	
674.91	11314	
675.1	9711.5	
675.28	9250	
675.47	10917	
675.65	11212	
675.84	9579.7	
676.03	9682.8	
676.21	10812	
676.4	10359	
676.58	10215	
676.77	9983.2	
676.95	11830	
677.14	10685	
677.32	9259.5	
677.51	9082.1	
677.69	11348	
677.88	10570	
678.06	9225.4	
678.25	9313.5	
678.44	10905	
678.62	10611	
678.81	9048.6	
678.99	9769.5	
679.18	11439	
679.36	11234	
679.55	9512.8	
679.73	9875.3	
679.92	11119	
680.1	10676	
680.29	10386	
680.47	9473.2	
680.66	10685	
680.84	11334	
681.03	9030.2	
681.21	9656.9	
681.4	10615	
681.58	10569	
681.77	9177.6	
681.95	9234.3	
682.14	11254	
682.32	11468	
682.51	9940.8	
682.69	8996	
682.88	10563	
683.06	10824	
683.25	9631.6	
683.43	9853.5	
683.62	10754	
683.8	11173	
683.99	10075	
684.17	9310.1	
684.36	11556	
684.54	10531	
684.73	8636.3	
684.91	8695.7	
685.1	10397	
685.28	9701.2	
685.46	8688.2	
685.65	8741.4	
685.83	10268	
686.02	9820.7	
686.2	8400.1	
686.39	8534.6	
686.57	9735.4	
686.76	10925	
686.94	8443.1	
687.13	8744.1	
687.31	10409	
687.5	10101	
687.68	8331.8	
687.86	9300.5	
688.05	11456	
688.23	9805	
688.42	9326.4	
688.6	8776.2	
688.79	10211	
688.97	10208	
689.16	9229.5	
689.34	8386.4	
689.52	10813	
689.71	10950	
689.89	9418.6	
690.08	8872.5	
690.26	10520	
690.45	10335	
690.63	9609.8	
690.81	9101.2	
691	10363	
691.18	10287	
691.37	9273.2	
691.55	10714	
691.74	10130	
691.92	11680	
692.1	9104.6	
692.29	8670.4	
692.47	10360	
692.66	9820	
692.84	8854.1	
693.02	9250	
693.21	9946.3	
693.39	10332	
693.58	9497.1	
693.76	8897.7	
693.94	11393	
694.13	11140	
694.31	9089.6	
694.5	9929.2	
694.68	10503	
694.86	10749	
695.05	9620.7	
695.23	9620.7	
695.42	11161	
695.6	12722	
695.78	10060	
695.97	9224.7	
696.15	11367	
696.34	10706	
696.52	9181	
696.7	9723.1	
696.89	10896	
697.07	10381	
697.25	9587.9	
697.44	10684	
697.62	10884	
697.81	11034	
697.99	9336	
698.17	9764	
698.36	10318	
698.54	10887	
698.72	9678.7	
698.91	8938	
699.09	10554	
699.28	10428	
699.46	9435.7	
699.64	9264.3	
699.83	10387	
700.01	11058	
700.19	9841.9	
700.38	8787.8	
700.56	11227	
700.74	10555	
700.93	8942.8	
701.11	9800.2	
701.29	11008	
701.48	11748	
701.66	9368.1	
701.84	9529.2	
702.03	10862	
702.21	11503	
702.39	9069.8	
702.58	9562	
702.76	11263	
702.94	11268	
703.13	9086.2	
703.31	10963	
703.49	10683	
703.68	11350	
703.86	9325.1	
704.04	10063	
704.23	11103	
704.41	11364	
704.59	9458.9	
704.78	10109	
704.96	12309	
705.14	11371	
705.33	9316.2	
705.51	9830.2	
705.69	10901	
705.87	11544	
706.06	10073	
706.24	9285.5	
706.42	11243	
706.61	11387	
706.79	10174	
706.97	9264.3	
707.16	10725	
707.34	11125	
707.52	9936.7	
707.7	9417.9	
707.89	10885	
708.07	10657	
708.25	10148	
708.44	10125	
708.62	10798	
708.8	11583	
708.98	10263	
709.17	9525.8	
709.35	11042	
709.53	11103	
709.72	9312.8	
709.9	9519.6	
710.08	11356	
710.26	11269	
710.45	10402	
710.63	9346.9	
710.81	10940	
710.99	10933	
711.18	9932	
711.36	9410.4	
711.54	10778	
711.72	11106	
711.91	9423.4	
712.09	9116.2	
712.27	10722	
712.45	11480	
712.64	9452.1	
712.82	8787.8	
713	10156	
713.18	10236	
713.37	8609	
713.55	9473.2	
713.73	10667	
713.91	9488.2	
714.1	8591.9	
714.28	7992.5	
714.46	9901.2	
714.64	9146.2	
714.83	7237.5	
715.01	7722.9	
715.19	8885.5	
715.37	8241	
715.55	7148.8	
715.74	7458	
715.92	9242.5	
716.1	7856	
716.28	8122.2	
716.47	7283.9	
716.65	8271.7	
716.83	8307.2	
717.01	7193.1	
717.19	7114.6	
717.38	9746.3	
717.56	8086.1	
717.74	7441	
717.92	6809.5	
718.1	9026.8	
718.29	8546.2	
718.47	6714.6	
718.65	7342	
718.83	9420	
719.01	9301.9	
719.2	7046.4	
719.38	7969.3	
719.56	9300.5	
719.74	10426	
719.92	7669	
720.11	8291.5	
720.29	9304.6	
720.47	8600.8	
720.65	6988.4	
720.83	7591.8	
721.02	8576.9	
721.2	8307.2	
721.38	7435.5	
721.56	6829.3	
721.74	7819.8	
721.92	7935.2	
722.11	7658.7	
722.29	7469.6	
722.47	8856.1	
722.65	8199.4	
722.83	6737.1	
723.01	7381.6	
723.2	8307.2	
723.38	8500.4	
723.56	6419.7	
723.74	7206.1	
723.92	7877.2	
724.1	8761.9	
724.29	6670.9	
724.47	7535.8	
724.65	8024.6	
724.83	7826.7	
725.01	6614.3	
725.19	7153.6	
725.37	7851.9	
725.56	7874.4	
725.74	6453.8	
725.92	6668.9	
726.1	7885.4	
726.28	8114.1	
726.46	6961	
726.64	6574	
726.83	8011.7	
727.01	8226.7	
727.19	6419	
727.37	7064.1	
727.55	8213.7	
727.73	8501.1	
727.91	6408.8	
728.09	6354.2	
728.28	8525	
728.46	8828.1	
728.64	7123.5	
728.82	7066.2	
729	9296.4	
729.18	8913.4	
729.36	6622.4	
729.54	8270.4	
729.72	9731.9	
729.91	8503.8	
730.09	8168.7	
730.27	7243	
730.45	8578.9	
730.63	9000.1	
730.81	7692.2	
730.99	7132.4	
731.17	9393.4	
731.35	8418.5	
731.53	7445	
731.71	7220.5	
731.9	9185.8	
732.08	9226.8	
732.26	7312.6	
732.44	7092.1	
732.62	9174.2	
732.8	8959.9	
732.98	7522.2	
733.16	6845.7	
733.34	8805.6	
733.52	7817.1	
733.7	7165.2	
733.88	7337.9	
734.07	8617.9	
734.25	8424.7	
734.43	6769.2	
734.61	7916.1	
734.79	9558.6	
734.97	8324.3	
735.15	6835.4	
735.33	7077.1	
735.51	8621.9	
735.69	8292.9	
735.87	7966.6	
736.05	7136.5	
736.23	8441.7	
736.41	8114.7	
736.59	7072.3	
736.77	7135.1	
736.95	8714.8	
737.13	8327	
737.32	6739.9	
737.5	6901	
737.68	9087.5	
737.86	8180.3	
738.04	6554.9	
738.22	7914	
738.4	7959.1	
738.58	8262.9	
738.76	6973.3	
738.94	6143.2	
739.12	8039.6	
739.3	7989.8	
739.48	7417.7	
739.66	7193.1	
739.84	8267	
740.02	8209.6	
740.2	6347.3	
740.38	6528.9	
740.56	8553.7	
740.74	7535.2	
740.92	7055.3	
741.1	6857.3	
741.28	7947.5	
741.46	7740	
741.64	6556.9	
741.82	6934.4	
742	7999.4	
742.18	7894.9	
742.36	6642.2	
742.54	6348.7	
742.72	8340	
742.9	7316.7	
743.08	6881.2	
743.26	5970.5	
743.44	8376.9	
743.62	8254.7	
743.8	6978.1	
743.98	6228.6	
744.16	7951.6	
744.34	7798	
744.52	6824.5	
744.7	6718	
744.88	8045.8	
745.06	7604.1	
745.24	6633.4	
745.42	6739.9	
745.6	8058.1	
745.78	7854.6	
745.96	5810.8	
746.14	5980.1	
746.32	8600.1	
746.5	7920.2	
746.68	6379.4	
746.86	5954.1	
747.03	8110.6	
747.21	6872.3	
747.39	6339.8	
747.57	5820.3	
747.75	7534.5	
747.93	7694.2	
748.11	5912.5	
748.29	5830.6	
748.47	8725.7	
748.65	7309.2	
748.83	6416.3	
749.01	6218.3	
749.19	7658	
749.37	7034.1	
749.55	6099.5	
749.73	6041.5	
749.91	7385.7	
750.09	7137.2	
750.26	6146.6	
750.44	5667.4	
750.62	7379.5	
750.8	7397.3	
750.98	5459.2	
751.16	5760.9	
751.34	7482.6	
751.52	6894.8	
751.7	6351.4	
751.88	5492	
752.06	7688.1	
752.24	7387.7	
752.42	5484.5	
752.59	5692.7	
752.77	7238.9	
752.95	8174.1	
753.13	6208.8	
753.31	5709.1	
753.49	6981.5	
753.67	7263.5	
753.85	5910.4	
754.03	5569.1	
754.21	7417.7	
754.38	7585.7	
754.56	5498.8	
754.74	4810.7	
754.92	6612.2	
755.1	7004.7	
755.28	4669.4	
755.46	4561.5	
755.64	7299.6	
755.82	7277.1	
755.99	4420.2	
756.17	4347.8	
756.35	5081	
756.53	6032	
756.71	3304.1	
756.89	3988.8	
757.07	5745.9	
757.25	5091.3	
757.42	4407.2	
757.6	5184.8	
757.78	6045.6	
757.96	5313.8	
758.14	4414.7	
758.32	4061.8	
758.5	5008.6	
758.67	5643.5	
758.85	4208.6	
759.03	4347.2	
759.21	5778	
759.39	5262.6	
759.57	3960.8	
759.75	4788.8	
759.92	6322.1	
760.1	5825.1	
760.28	5079.6	
760.46	5320.6	
760.64	5681.7	
760.82	5536.3	
760.99	5180.7	
761.17	4465.3	
761.35	6376	
761.53	5598.5	
761.71	4640	
761.89	5179.3	
762.06	6368.5	
762.24	6019	
762.42	4873.5	
762.6	4655.7	
762.78	6014.2	
762.96	6528.2	
763.13	5140.4	
763.31	4916.5	
763.49	6625.2	
763.67	6106.4	
763.85	5591.6	
764.02	5930.9	
764.2	6908.5	
764.38	6221	
764.56	4815.5	
764.74	5477.6	
764.91	6901	
765.09	6118	
765.27	4620.2	
765.45	4389.5	
765.63	6963.1	
765.8	6759	
765.98	4195.6	
766.16	4462.5	
766.34	5677	
766.52	5524.7	
766.69	5175.9	
766.87	4330.8	
767.05	6011.5	
767.23	6616.3	
767.41	4486.4	
767.58	4611.3	
767.76	6350.1	
767.94	6429.3	
768.12	4458.4	
768.29	4998.4	
768.47	5934.3	
768.65	6458.6	
768.83	4188.1	
769	4977.2	
769.18	5564.3	
769.36	6105	
769.54	4948.6	
769.72	4128.7	
769.89	6313.2	
770.07	6350.1	
770.25	4409.3	
770.43	5228.5	
770.6	6804	
770.78	7132.4	
770.96	4521.9	
771.14	4910.3	
771.31	6161.7	
771.49	5633.3	
771.67	3829	
771.85	3967.6	
772.02	5102.9	
772.2	5594.4	
772.38	4547.9	
772.55	4097.3	
772.73	5782.8	
772.91	5565.7	
773.09	4412.7	
773.26	4485.1	
773.44	5717.2	
773.62	5534.3	
773.8	3982.6	
773.97	3785.3	
774.15	5741.1	
774.33	5468.1	
774.5	3863.2	
774.68	4112.3	
774.86	5859.2	
775.04	5409.4	
775.21	3893.2	
775.39	3829.7	
775.57	5628.5	
775.74	5873.6	
775.92	3725.3	
776.1	3651.5	
776.27	5551.4	
776.45	6503	
776.63	3822.9	
776.81	3515	
776.98	5235.3	
777.16	6128.2	
777.34	3938.2	
777.51	4109.6	
777.69	5269.4	
777.87	5063.9	
778.04	4002.4	
778.22	4309.6	
778.4	5036	
778.57	5539.8	
778.75	3335.5	
778.93	3596.9	
779.1	4917.9	
779.28	4749.2	
779.46	3336.1	
779.64	3741	
779.81	5648.3	
779.99	6296.1	
780.17	4274.1	
780.34	4372.4	
780.52	5213.4	
780.69	5329.5	
780.87	3914.4	
781.05	3601	
781.22	5173.2	
781.4	5289.2	
781.58	3633.1	
781.75	3012.6	
781.93	5244.8	
782.11	4737.6	
782.28	4330.8	
782.46	3648.1	
782.64	4594.3	
782.81	5365	
782.99	3751.2	
783.17	3680.9	
783.34	5255.8	
783.52	4651.6	
783.69	3786	
783.87	4331.5	
784.05	4730.1	
784.22	4673.5	
784.4	4366.3	
784.58	3880.2	
784.75	5416.9	
784.93	4840.7	
785.1	3542.3	
785.28	4035.9	
785.46	5242.8	
785.63	4681	
785.81	3646.7	
785.99	3434.4	
786.16	4868.7	
786.34	5025	
786.51	3466.5	
786.69	3736.2	
786.87	4455.7	
787.04	4859.1	
787.22	3379.8	
787.39	4010.6	
787.57	4663.2	
787.75	5474.2	
787.92	4242.7	
788.1	4089.8	
788.27	4643.4	
788.45	4382.7	
788.63	3947.8	
788.8	2889.7	
788.98	5115.8	
789.15	4386.1	
789.33	3009.1	
789.5	3506.8	
789.68	5387.5	
789.86	5400.5	
790.03	3835.2	
790.21	3356.6	
790.38	5394.3	
790.56	4754.7	
790.73	3280.2	
790.91	3293.1	
791.09	4666	
791.26	5107.6	
791.44	3459.7	
791.61	3000.3	
791.79	4589.5	
791.96	4648.9	
792.14	3123.8	
792.32	2818.7	
792.49	4595.6	
792.67	4749.2	
792.84	3271.3	
793.02	3097.9	
793.19	4979.3	
793.37	5494	
793.54	2827.6	
793.72	3075.4	
793.89	5561.6	
794.07	4581.3	
794.25	3456.3	
794.42	2870.6	
794.6	5373.2	
794.77	5064.6	
794.95	3736.2	
795.12	3300.6	
795.3	4609.3	
795.47	5012.7	
795.65	3629.7	
795.82	3506.1	
796	4483	
796.17	5813.5	
796.35	3391.4	
796.52	3939.6	
796.7	4983.4	
796.87	5057.8	
797.05	3331.4	
797.22	3941	
797.4	5062.6	
797.57	5697.4	
797.75	3478.1	
797.92	3214.6	
798.1	5291.3	
798.27	4459.1	
798.45	2876.7	
798.62	3031	
798.8	4831.8	
798.97	5141.8	
799.15	3612.6	
799.32	3452.9	
799.5	4192.2	
799.67	4756.7	
799.85	3789.4	
800.02	2766.8	
800.2	4548.5	
800.37	4766.3	
800.55	3791.5	
800.72	3261	
800.9	5201.2	
801.07	5416.2	
801.25	4261.1	
801.42	3543.7	
801.6	5127.4	
801.77	4810.7	
801.95	3355.3	
802.12	3156.6	
802.29	4927.4	
802.47	4841.4	
802.64	3550.5	
802.82	2800.3	
802.99	4534.2	
803.17	5199.1	
803.34	3476.8	
803.52	3124.5	
803.69	5743.2	
803.87	4312.3	
804.04	3420.1	
804.21	3465.8	
804.39	5359.5	
804.56	4605.9	
804.74	3009.1	
804.91	3525.9	
805.09	4520.5	
805.26	4614.1	
805.44	2981.8	
805.61	3226.2	
805.78	5040.1	
805.96	4963.6	
806.13	3544.4	
806.31	3724.6	
806.48	4138.9	
806.66	4487.8	
806.83	3471.3	
807	3406.5	
807.18	4517.1	
807.35	4831.2	
807.53	3407.1	
807.7	2833	
807.87	5362.3	
808.05	4517.1	
808.22	3670	
808.4	2779.8	
808.57	4424.3	
808.74	4223.6	
808.92	3149.1	
809.09	3915.7	
809.27	4444.1	
809.44	4918.5	
809.61	2831	
809.79	3069.2	
809.96	5429.8	
810.14	4984.1	
810.31	2810.5	
810.48	3291.8	
810.66	4540.3	
810.83	5027.8	
811.01	3117.7	
811.18	3427.6	
811.35	5051	
811.53	4043.4	
811.7	3764.8	
811.87	3521.1	
812.05	4545.8	
812.22	4434.5	
812.39	3060.3	
812.57	2942.9	
812.74	4567.7	
812.92	5714.5	
813.09	3259	
813.26	3528.7	
813.44	5553.4	
813.61	4359.4	
813.78	2786.6	
813.96	3596.9	
814.13	4479.6	
814.3	4302.1	
814.48	3882.3	
814.65	3270.6	
814.82	5339.1	
815	4247.5	
815.17	3366.2	
815.34	3990.1	
815.52	4417.5	
815.69	4407.2	
815.87	3316.3	
816.04	3248.1	
816.21	4500.8	
816.38	4081.6	
816.56	3263.8	
816.73	3030.3	
816.9	5476.3	
817.08	4997.7	
817.25	3074	
817.42	3738.2	
817.6	4154	
817.77	4351.3	
817.94	3375.1	
818.12	2998.9	
818.29	4281.6	
818.46	6232.7	
818.64	3188.7	
818.81	3020.8	
818.98	4266.6	
819.16	5827.8	
819.33	3578.5	
819.5	3393.5	
819.67	4792.2	
819.85	5200.5	
820.02	3314.3	
820.19	3494.5	
820.37	4678.9	
820.54	4428.4	
820.71	3392.1	
820.88	4111	
821.06	4588.1	
821.23	4307.6	
821.4	3438.5	
821.58	3326.6	
821.75	4943.8	
821.92	4639.3	
822.09	2812.5	
822.27	2813.2	
822.44	4508.9	
822.61	4422.9	
822.79	2827.6	
822.96	5033.9	
823.13	4807.3	
823.3	4235.9	
823.48	3176.4	
823.65	2897.9	
823.82	5027.1	
823.99	4164.2	
824.17	3973.7	
824.34	2953.9	
824.51	5678.3	
824.68	4549.9	
824.86	3085.6	
825.03	3371.6	
825.2	4499.4	
825.37	5246.2	
825.55	3084.2	
825.72	3289	
825.89	5603.2	
826.06	5340.4	
826.24	3261.7	
826.41	3252.9	
826.58	5382.7	
826.75	4637.3	
826.92	2751.1	
827.1	2948.4	
827.27	7001.3	
827.44	5625.1	
827.61	3091.1	
827.79	3733.4	
827.96	4359.4	
828.13	4521.9	
828.3	3272.7	
828.47	2785.9	
828.65	4784.7	
828.82	4745.1	
828.99	4009.2	
829.16	3531.4	
829.34	4991.6	
829.51	4913.1	
829.68	3373.7	
829.85	3372.3	
830.02	5298.1	
830.2	4977.9	
830.37	2637.8	
830.54	3932.8	
830.71	5570.5	
830.88	4556.7	
831.05	2656.9	
831.23	3090.4	
831.4	5449	
831.57	5889.3	
831.74	3123.8	
831.91	2768.2	
832.09	4816.8	
832.26	5012.1	
832.43	3169.6	
832.6	3518.4	
832.77	4722.6	
832.94	5289.9	
833.12	2591.4	
833.29	3125.2	
833.46	4430.4	
833.63	6077.7	
833.8	3417.4	
833.97	3203.7	
834.15	5048.9	
834.32	4858.5	
834.49	3291.1	
834.66	3377.8	
834.83	5105.6	
835	4335.5	
835.17	3082.2	
835.35	3041.2	
835.52	4881	
835.69	4807.3	
835.86	3294.5	
836.03	2668.5	
836.2	5018.2	
836.37	4694.6	
836.55	3158	
836.72	3027.6	
836.89	4648.9	
837.06	5049.6	
837.23	3283.6	
837.4	3480.2	
837.57	5603.2	
837.75	6044.9	
837.92	2986.6	
838.09	3097.2	
838.26	4678.9	
838.43	5129.5	
838.6	3301.3	
838.77	3027.6	
838.94	5773.2	
839.11	5584.8	
839.29	3186	
839.46	2606.4	
839.63	4980.7	
839.8	4761.5	
839.97	3098.6	
840.14	3075.4	
840.31	4799.8	
840.48	5089.9	
840.65	2650.1	
840.82	3067.2	
841	4975.2	
841.17	4888.5	
841.34	2861.7	
841.51	2942.9	
841.68	4864.6	
841.85	4681.7	
842.02	2969.6	
842.19	2544.9	
842.36	4775.9	
842.53	4799.8	
842.7	2878.1	
842.87	3389.4	
843.05	6012.8	
843.22	4719.2	
843.39	2749.7	
843.56	2974.3	
843.73	4654.4	
843.9	5017.5	
844.07	4500.8	
844.24	3708.9	
844.41	6777.4	
844.58	4363.5	
844.75	2766.8	
844.92	2992.1	
845.09	4977.2	
845.26	4986.1	
845.43	2822.8	
845.6	3038.5	
845.77	4959.5	
845.94	4781.3	
846.12	3143.6	
846.29	3243.3	
846.46	5199.8	
846.63	4943.8	
846.8	2816	
846.97	3343.7	
847.14	5288.5	
847.31	4911	
847.48	3177.1	
847.65	3419.4	
847.82	5143.1	
847.99	5158.8	
848.16	3682.2	
848.33	3398.9	
848.5	4573.8	
848.67	5362.9	
848.84	2841.2	
849.01	2966.1	
849.18	4566.3	
849.35	4279.6	
849.52	3452.2	
849.69	2800.9	
849.86	5104.9	
850.03	5182.7	
850.2	2880.1	
850.37	3374.4	
850.54	5190.2	
850.71	4715.1	
850.88	3348.4	
851.05	2787.3	
851.22	4801.1	
851.39	5302.2	
851.56	2661	
851.73	3251.5	
851.9	4465.3	
852.07	5115.8	
852.24	3118.4	
852.41	2805	
852.58	4851.6	
852.75	4498	
852.92	3140.9	
853.09	2807.1	
853.26	4601.1	
853.43	5230.5	
853.6	2831.7	
853.77	2457.6	
853.94	5398.4	
854.11	4411.3	
854.28	4018.8	
854.44	3031.7	
854.61	5683.8	
854.78	5172.5	
854.95	2846	
855.12	3494.5	
855.29	4091.8	
855.46	5386.8	
855.63	2852.1	
855.8	3803.8	
855.97	4608.6	
856.14	5148.6	
856.31	3904.8	
856.48	3077.4	
856.65	4686.4	
856.82	4339.6	
856.99	2760.7	
857.16	3012.6	
857.33	5834	
857.49	4706.9	
857.66	3058.3	
857.83	3215.3	
858	4679.6	
858.17	4803.2	
858.34	2719.7	
858.51	2882.9	
858.68	5416.2	
858.85	5424.4	
859.02	3252.2	
859.19	3446	
859.36	4427	
859.52	4454.3	
859.69	2835.8	
859.86	3317	
860.03	4407.2	
860.2	5281.7	
860.37	2617.3	
860.54	2887.6	
860.71	5052.3	
860.88	5358.2	
861.05	3104	
861.21	3495.2	
861.38	5375.9	
861.55	4229.7	
861.72	2574.3	
861.89	3144.3	
862.06	5179.3	
862.23	5440.1	
862.4	2751.8	
862.56	2938.2	
862.73	5046.9	
862.9	4759.5	
863.07	3280.8	
863.24	2631.6	
863.41	4356	
863.58	4442	
863.75	2886.3	
863.91	3246.7	
864.08	5287.9	
864.25	5027.8	
864.42	3444.7	
864.59	3902.1	
864.76	5602.6	
864.93	4404.5	
865.09	2752.5	
865.26	3006.4	
865.43	5285.8	
865.6	5578.7	
865.77	2539.5	
865.94	2850.1	
866.1	5217.5	
866.27	5020.3	
866.44	4117.1	
866.61	2681.5	
866.78	4718.5	
866.95	5025	
867.11	2777.7	
867.28	2547	
867.45	5169.1	
867.62	4434.5	
867.79	3219.4	
867.96	2784.6	
868.12	4400.4	
868.29	5053.7	
868.46	2841.2	
868.63	3658.4	
868.8	5171.8	
868.97	5055.1	
869.13	2949.1	
869.3	2902	
869.47	4947.2	
869.64	5139	
869.81	2839.2	
869.97	2818.7	
870.14	4880.3	
870.31	5430.5	
870.48	2756.6	
870.65	3516.4	
870.81	4709.6	
870.98	4681	
871.15	3222.1	
871.32	2922.5	
871.48	4993.6	
871.65	5394.3	
871.82	2843.3	
871.99	3106.1	
872.16	5724.8	
872.32	5236	
872.49	2910.8	
872.66	2897.2	
872.83	5067.4	
872.99	4533.5	
873.16	3209.2	
873.33	2772.3	
873.5	4791.6	
873.67	4847.5	
873.83	3028.3	
874	3659	
874.17	4880.3	
874.34	5619.6	
874.5	3553.9	
874.67	3393.5	
874.84	5337	
875.01	4268.6	
875.17	3852.2	
875.34	2794.1	
875.51	4854.4	
875.68	5729.5	
875.84	3364.1	
876.01	3963.5	
876.18	5048.2	
876.34	4976.6	
876.51	2854.9	
876.68	2755.2	
876.85	4663.9	
877.01	5309.7	
877.18	3930.7	
877.35	2823.5	
877.52	4865.3	
877.68	4416.8	
877.85	2790.7	
878.02	2794.1	
878.18	4670.7	
878.35	4550.6	
878.52	2308.7	
878.69	3121.1	
878.85	5143.1	
879.02	5007.3	
879.19	3908.2	
879.35	3007.8	
879.52	5098.8	
879.69	5159.5	
879.86	2486.9	
880.02	3155.2	
880.19	4710.3	
880.36	5704.3	
880.52	3175	
880.69	3308.8	
880.86	5117.2	
881.02	5140.4	
881.19	3074	
881.36	3032.4	
881.52	4997	
881.69	4537.6	
881.86	3038.5	
882.02	2960	
882.19	5221.6	
882.36	5993.7	
882.52	2897.2	
882.69	3875.4	
882.86	4855.7	
883.02	4853.7	
883.19	3383.2	
883.36	3198.2	
883.52	5129.5	
883.69	5720.7	
883.86	2891	
884.02	2610.5	
884.19	5042.1	
884.36	4795.7	
884.52	3175.7	
884.69	3042.6	
884.86	4617.5	
885.02	5453.7	
885.19	3087	
885.36	3191.4	
885.52	4713.1	
885.69	4870.1	
885.86	3897.3	
886.02	3533.4	
886.19	5095.3	
886.35	4630.5	
886.52	3097.2	
886.69	3832.4	
886.85	4452.3	
887.02	5364.3	
887.19	5364.3	
887.35	5364.3	
887.52	5364.3	
887.68	5364.3	
887.85	5364.3	
888.02	5364.3	
888.18	5364.3	
888.35	5364.3	
888.51	5364.3	
888.68	5364.3	
888.85	5364.3	
889.01	5364.3	
889.18	5364.3	
889.35	5364.3	
889.51	5364.3	
889.68	5364.3	
889.84	5364.3	
890.01	5364.3	
890.17	5364.3	
890.34	5364.3	
890.51	5364.3	
890.67	5364.3	
890.84	5364.3	
891	5364.3	
891.17	5364.3	
891.34	5364.3	
891.5	5364.3	
891.67	5364.3	
891.83	5364.3	
892	5364.3	
892.16	5364.3	
892.33	5364.3	
892.5	5364.3	
892.66	5364.3	
892.83	5364.3	
892.99	5364.3	
893.16	5364.3	
893.32	5364.3	
893.49	5364.3	
893.65	5364.3	
893.82	5364.3	
893.99	5364.3	
894.15	5364.3	
894.32	5364.3	
894.48	5364.3	
894.65	5364.3	
894.81	5364.3	
894.98	5364.3	
895.14	5364.3	
895.31	5364.3	
895.47	5364.3	
895.64	5364.3	
895.81	5364.3	
895.97	5364.3	
896.14	5364.3	
896.3	5364.3	
896.47	5364.3	
896.63	5364.3	
896.8	5364.3	
896.96	5364.3	
897.13	5364.3	
897.29	5364.3	
897.46	5364.3	
897.62	5364.3	
897.79	5364.3	
897.95	5364.3	
898.12	5364.3	
898.28	5364.3	
898.45	5364.3	
898.61	5364.3	
898.78	5364.3	
898.94	5364.3	
899.11	5364.3	
899.27	5364.3	
899.44	5364.3	
899.6	5364.3	
899.77	5364.3	
899.93	5364.3	
900.1	5364.3	
900.26	5364.3	
900.43	5364.3	
900.59	5364.3	
900.76	5364.3	
900.92	5364.3	
901.09	5364.3	
901.25	5364.3	
901.42	5364.3	
901.58	5364.3	
901.75	5364.3	
901.91	5364.3	
902.07	5364.3	
902.24	5364.3	
902.4	5364.3	
902.57	5364.3	
902.73	5364.3	
902.9	5364.3	
903.06	5364.3	
903.23	5364.3	
903.39	5364.3	
903.56	5364.3	
903.72	5364.3	
903.88	5364.3	
904.05	5364.3	
904.21	5364.3	
904.38	5364.3	
904.54	5364.3	
904.71	5364.3	
904.87	5364.3	
905.03	5364.3	
905.2	5364.3	
905.36	5364.3	
905.53	5364.3	
905.69	5364.3	
905.86	5364.3	
906.02	5364.3	
906.18	5364.3	
906.35	5364.3	
906.51	5364.3	
906.68	5364.3	
906.84	5364.3	
907.01	5364.3	
907.17	5364.3	
907.33	5364.3	
907.5	5364.3	
907.66	5364.3	
907.83	5364.3	
907.99	5364.3	
908.15	5364.3	
908.32	5364.3	
908.48	5364.3	
908.65	5364.3	
908.81	5364.3	
908.97	5364.3	
909.14	5364.3	
909.3	5364.3	
909.47	5364.3	
909.63	5364.3	
909.79	5364.3	
909.96	5364.3	
910.12	5364.3	
910.28	5364.3	
910.45	5364.3	
910.61	5364.3	
910.78	5364.3	
910.94	5364.3	
911.1	5364.3	
911.27	5364.3	
911.43	5364.3	
911.59	5364.3	
911.76	5364.3	
911.92	5364.3	
912.08	5364.3	
912.25	5364.3	
912.41	5364.3	
912.57	5364.3	
912.74	5364.3	
912.9	5364.3	
913.07	5364.3	
913.23	5364.3	
913.39	5364.3	
913.56	5364.3	
913.72	5364.3	
913.88	5364.3	
914.05	5364.3	
914.21	5364.3	
914.37	5364.3	
914.54	5364.3	
914.7	5364.3	
914.86	5364.3	
915.03	5364.3	
915.19	5364.3	
