Wavelength	Intensities	
nm	a.u.	
179.22	1675.9	
179.44	1680	
179.65	1671.8	
179.86	1688.2	
180.08	1698.4	
180.29	3887.7	
180.51	3027.6	
180.72	4902.8	
180.94	5547.3	
181.15	2669.9	
181.37	2697.2	
181.58	4780.6	
181.79	4912.4	
182.01	2768.9	
182.22	2966.1	
182.44	4987.5	
182.65	4349.2	
182.87	3568.2	
183.08	3235.1	
183.29	5279	
183.51	4442	
183.72	2985.9	
183.94	4152.6	
184.15	4719.2	
184.37	4646.2	
184.58	2676.7	
184.79	3501.3	
185.01	4431.1	
185.22	5051	
185.44	3635.8	
185.65	3153.2	
185.86	4719.2	
186.08	4345.8	
186.29	2679.4	
186.51	2779.8	
186.72	4499.4	
186.94	5102.9	
187.15	3203	
187.36	3237.8	
187.58	6336.4	
187.79	4850.3	
188.01	3368.2	
188.22	4961.5	
188.43	5663.3	
188.65	4965	
188.86	2853.5	
189.08	3300.6	
189.29	4640	
189.5	4607.9	
189.72	3045.3	
189.93	3105.4	
190.15	5145.2	
190.36	5941.8	
190.57	3298.6	
190.79	3179.1	
191	5163.6	
191.22	5137.7	
191.43	3388	
191.64	2865.8	
191.86	5366.4	
192.07	5116.5	
192.29	2905.4	
192.5	3013.9	
192.71	5139	
192.93	4556.7	
193.14	3047.4	
193.35	3134.8	
193.57	4548.5	
193.78	5182.7	
194	2542.2	
194.21	3011.9	
194.42	4450.9	
194.64	4702.1	
194.85	3253.5	
195.07	3758	
195.28	4729.4	
195.49	4242	
195.71	3853.6	
195.92	2891.7	
196.13	4898.7	
196.35	4932.2	
196.56	4130.8	
196.78	3214.6	
196.99	5901.6	
197.2	5498.1	
197.42	3654.9	
197.63	3297.2	
197.84	4354.7	
198.06	4882.4	
198.27	3037.8	
198.48	3938.2	
198.7	4559.5	
198.91	4721.3	
199.13	3333.4	
199.34	3250.1	
199.55	5102.2	
199.77	4169.7	
199.98	2957.3	
200.19	3300.6	
200.41	4728.1	
200.62	4473.4	
200.83	3373	
201.05	3656.3	
201.26	4704.2	
201.47	4533.5	
201.69	3002.3	
201.9	2873.3	
202.11	4750.6	
202.33	5506.3	
202.54	3127.9	
202.76	3416.7	
202.97	4775.9	
203.18	4868.7	
203.4	3377.8	
203.61	3398.3	
203.82	4819.6	
204.04	4533.5	
204.25	3321.1	
204.46	3182.5	
204.68	4754.7	
204.89	4947.9	
205.1	3190.7	
205.32	2843.9	
205.53	5016.8	
205.74	5154.1	
205.96	2505.3	
206.17	3323.2	
206.38	4996.4	
206.6	5121.3	
206.81	3736.9	
207.02	3067.9	
207.24	4932.9	
207.45	5210.7	
207.66	3168.2	
207.88	2820.7	
208.09	4919.2	
208.3	4745.1	
208.52	2976.4	
208.73	3163.4	
208.94	4748.6	
209.15	5251.7	
209.37	3166.8	
209.58	3252.9	
209.79	5137	
210.01	4613.4	
210.22	2635.7	
210.43	2695.8	
210.65	4710.3	
210.86	4992.9	
211.07	3099.3	
211.29	2945.7	
211.5	4946.5	
211.71	4715.1	
211.93	2970.2	
212.14	2932.7	
212.35	4693.9	
212.56	4821.6	
212.78	3299.3	
212.99	2805	
213.2	5446.9	
213.42	4586.1	
213.63	3048.7	
213.84	3242.6	
214.06	4293.9	
214.27	4367.6	
214.48	3151.1	
214.69	3310.2	
214.91	5212.8	
215.12	5261.2	
215.33	3297.2	
215.55	3592.8	
215.76	5609.4	
215.97	4995.7	
216.18	3232.4	
216.4	3233.1	
216.61	4529.4	
216.82	5117.9	
217.04	2953.9	
217.25	3068.5	
217.46	5201.2	
217.67	5093.3	
217.89	2692.4	
218.1	2783.9	
218.31	4825	
218.53	4899.4	
218.74	3145.7	
218.95	2995.5	
219.16	4627.7	
219.38	5393	
219.59	2991.4	
219.8	3504.8	
220.01	5795.8	
220.23	4748.6	
220.44	3703.4	
220.65	2876	
220.87	4781.3	
221.08	5245.5	
221.29	2805	
221.5	3563.5	
221.72	6107	
221.93	4543.1	
222.14	3276.1	
222.35	3806.5	
222.57	4728.8	
222.78	5061.9	
222.99	3141.6	
223.2	3360	
223.42	4946.5	
223.63	5045.5	
223.84	2478	
224.05	2518.3	
224.27	5769.1	
224.48	5360.2	
224.69	3828.3	
224.9	3328.6	
225.12	4889.9	
225.33	4653.7	
225.54	2706.7	
225.75	2975.7	
225.97	4487.1	
226.18	4687.1	
226.39	3157.3	
226.6	2989.4	
226.82	4568.3	
227.03	4465.3	
227.24	3287	
227.45	2809.8	
227.67	5096.7	
227.88	5303.6	
228.09	3682.2	
228.3	3610.6	
228.52	5014.8	
228.73	4671.4	
228.94	3080.1	
229.15	2764.1	
229.36	4704.2	
229.58	4684.4	
229.79	3158	
230	3596.2	
230.21	5540.4	
230.43	4723.3	
230.64	3209.8	
230.85	3340.9	
231.06	5087.2	
231.28	5066.7	
231.49	2792.1	
231.7	3215.3	
231.91	4971.1	
232.12	4771.1	
232.34	2919	
232.55	3176.4	
232.76	5160.9	
232.97	4814.1	
233.18	2906.1	
233.4	3291.1	
233.61	4869.4	
233.82	4564.9	
234.03	3068.5	
234.25	3046.7	
234.46	6160.3	
234.67	4772.4	
234.88	3341.6	
235.09	3003.7	
235.31	4922	
235.52	4644.8	
235.73	3284.3	
235.94	2835.1	
236.15	4562.2	
236.37	5516.5	
236.58	2885.6	
236.79	3156.6	
237	4972.5	
237.21	4390.2	
237.43	3392.1	
237.64	2749.7	
237.85	7699	
238.06	4403.8	
238.27	3364.1	
238.48	2876.7	
238.7	5005.9	
238.91	4629.1	
239.12	3156.6	
239.33	3267.2	
239.54	4500.8	
239.76	4638.6	
239.97	3107.5	
240.18	3164.8	
240.39	5600.5	
240.6	4849.6	
240.82	3325.9	
241.03	2781.1	
241.24	4735.6	
241.45	5318.6	
241.66	2946.3	
241.87	3399.6	
242.09	5308.3	
242.3	5529.5	
242.51	3445.4	
242.72	3124.5	
242.93	5002.5	
243.14	4703.5	
243.36	3614	
243.57	3852.9	
243.78	5318.6	
243.99	4962.9	
244.2	3128.6	
244.41	2942.9	
244.63	4363.5	
244.84	4883	
245.05	3344.3	
245.26	3174.4	
245.47	4987.5	
245.68	5026.4	
245.9	4029	
246.11	3332	
246.32	4588.1	
246.53	4911	
246.74	4909.7	
246.95	2712.9	
247.16	4450.2	
247.38	4773.1	
247.59	2794.8	
247.8	3245.3	
248.01	4480.3	
248.22	4683	
248.43	2904	
248.64	3084.2	
248.86	4347.8	
249.07	4575.2	
249.28	2904.7	
249.49	3266.5	
249.7	5071.5	
249.91	5222.3	
250.12	2750.4	
250.34	2822.8	
250.55	4851	
250.76	4752.7	
250.97	3280.2	
251.18	3312.9	
251.39	5223.7	
251.6	4858.5	
251.81	3359.4	
252.03	3308.2	
252.24	4594.3	
252.45	5031.2	
252.66	2841.2	
252.87	3447.4	
253.08	4776.5	
253.29	5870.8	
253.5	2810.5	
253.72	3786	
253.93	4677.6	
254.14	5458.5	
254.35	3006.4	
254.56	3110.2	
254.77	4898.1	
254.98	4457.7	
255.19	3051.5	
255.41	3653.6	
255.62	4863.9	
255.83	5188.2	
256.04	3382.6	
256.25	3219.4	
256.46	5629.2	
256.67	4528.7	
256.88	3257.6	
257.09	3615.3	
257.31	4434.5	
257.52	4487.8	
257.73	4032.5	
257.94	3072.6	
258.15	4711	
258.36	4748.6	
258.57	3715.7	
258.78	2509.4	
258.99	5134.3	
259.2	4616.1	
259.41	3046	
259.63	3175.7	
259.84	5391.6	
260.05	5575.3	
260.26	3836.5	
260.47	2964.1	
260.68	5184.8	
260.89	4650.3	
261.1	3589.4	
261.31	2934.7	
261.52	5199.1	
261.73	5432.6	
261.95	3824.9	
262.16	3429.7	
262.37	5225.7	
262.58	5325.4	
262.79	3857.7	
263	3105.4	
263.21	4848.9	
263.42	4287.1	
263.63	3293.1	
263.84	3046	
264.05	5085.8	
264.26	5327.4	
264.47	3665.2	
264.69	3246.7	
264.9	5304.2	
265.11	4872.8	
265.32	2975	
265.53	3067.9	
265.74	4835.9	
265.95	4313	
266.16	3301.3	
266.37	3500	
266.58	4785.4	
266.79	4536.3	
267	3035.8	
267.21	2893.1	
267.42	4444.1	
267.63	4734.2	
267.84	3155.9	
268.06	2859	
268.27	5154.1	
268.48	5248.9	
268.69	3083.6	
268.9	3599	
269.11	5264	
269.32	4291.2	
269.53	3205.1	
269.74	3007.8	
269.95	4910.3	
270.16	4295.3	
270.37	3248.1	
270.58	3652.9	
270.79	4649.6	
271	5128.1	
271.21	3321.8	
271.42	3265.1	
271.63	4939.7	
271.84	4473.4	
272.05	2630.3	
272.26	2925.9	
272.47	4744.5	
272.68	4841.4	
272.89	3104	
273.11	3461.1	
273.32	4531.5	
273.53	5363.6	
273.74	3353.9	
273.95	3234.4	
274.16	5062.6	
274.37	4765.6	
274.58	3444.7	
274.79	2833.7	
275	4900.8	
275.21	5250.3	
275.42	4050.9	
275.63	3480.9	
275.84	4935.6	
276.05	5967.8	
276.26	3323.2	
276.47	3152.5	
276.68	4704.9	
276.89	5495.4	
277.1	3516.4	
277.31	2826.9	
277.52	4901.5	
277.73	5166.3	
277.94	2794.8	
278.15	3091.8	
278.36	4993.6	
278.57	4500.1	
278.78	3026.2	
278.99	3367.5	
279.2	4503.5	
279.41	4450.2	
279.62	3936.9	
279.83	2888.3	
280.04	5621.7	
280.25	4427.7	
280.46	3906.8	
280.67	3165.5	
280.88	4489.8	
281.09	5192.3	
281.3	3334.1	
281.51	4042	
281.72	4558.8	
281.93	5122	
282.14	3044	
282.35	3259	
282.56	5167.7	
282.77	5076.9	
282.98	3097.2	
283.19	3684.3	
283.4	6016.9	
283.61	4684.4	
283.82	2924.5	
284.03	3857	
284.24	4884.4	
284.45	5151.3	
284.66	3862.5	
284.87	3645.4	
285.08	5177.3	
285.29	5271.5	
285.5	2807.1	
285.71	3176.4	
285.92	5141.8	
286.12	5603.9	
286.33	3850.9	
286.54	3139.5	
286.75	5055.1	
286.96	4678.9	
287.17	2932.7	
287.38	3703.4	
287.59	4519.9	
287.8	4492.6	
288.01	3135.4	
288.22	3485.6	
288.43	5025.7	
288.64	4287.1	
288.85	3672.7	
289.06	3485.6	
289.27	5106.3	
289.48	5369.1	
289.69	3836.5	
289.9	3508.9	
290.11	5298.8	
290.32	4595	
290.53	3638.6	
290.74	3386	
290.94	5074.9	
291.15	5111.7	
291.36	3069.9	
291.57	3495.2	
291.78	4597	
291.99	4308.2	
292.2	2914.9	
292.41	3358	
292.62	5138.4	
292.83	4964.3	
293.04	4147.8	
293.25	2960.7	
293.46	4588.8	
293.67	5121.3	
293.88	2904.7	
294.09	2913.6	
294.29	4491.2	
294.5	4805.2	
294.71	3180.5	
294.92	2985.9	
295.13	4632.5	
295.34	5577.3	
295.55	2768.2	
295.76	2748.4	
295.97	4999.1	
296.18	5561.6	
296.39	2820.1	
296.6	2992.8	
296.81	4737.6	
297.01	5059.2	
297.22	3171.6	
297.43	3012.6	
297.64	4595.6	
297.85	4496	
298.06	2576.3	
298.27	2757.9	
298.48	4728.8	
298.69	4515.8	
298.9	3258.3	
299.11	2975	
299.31	4470.7	
299.52	4442.7	
299.73	3429	
299.94	3393.5	
300.15	4829.8	
300.36	4519.2	
300.57	3366.9	
300.78	3298.6	
300.99	4677.6	
301.2	4858.5	
301.4	2989.4	
301.61	3239.2	
301.82	4962.9	
302.03	5083.7	
302.24	3575.8	
302.45	2917	
302.66	4924.7	
302.87	5199.1	
303.08	3026.9	
303.29	3959.4	
303.49	4617.5	
303.7	4724	
303.91	2731.3	
304.12	3779.2	
304.33	4366.3	
304.54	4807.9	
304.75	3069.2	
304.96	2938.8	
305.16	5022.3	
305.37	5511.1	
305.58	2738.1	
305.79	2788.7	
306	5025	
306.21	4319.2	
306.42	2975	
306.63	4343.7	
306.83	4584.7	
307.04	5086.5	
307.25	3321.1	
307.46	3248.8	
307.67	4214.7	
307.88	5008	
308.09	3041.2	
308.29	3050.1	
308.5	4803.9	
308.71	5191.6	
308.92	3214.6	
309.13	2895.1	
309.34	4721.9	
309.55	4679.6	
309.75	3660.4	
309.96	3419.4	
310.17	5032.5	
310.38	4483	
310.59	3508.2	
310.8	3332	
311.01	4599.7	
311.21	4690.5	
311.42	2934.1	
311.63	2956.6	
311.84	4541.7	
312.05	4808.6	
312.26	3332.7	
312.46	3637.9	
312.67	4622.3	
312.88	4371	
313.09	2917	
313.3	2865.8	
313.51	5315.2	
313.71	5577.3	
313.92	2908.8	
314.13	3058.3	
314.34	4920.6	
314.55	4756.1	
314.76	3632.4	
314.96	3210.5	
315.17	4888.5	
315.38	4913.8	
315.59	2965.5	
315.8	2814.6	
316.01	5295.4	
316.21	5420.3	
316.42	2847.4	
316.63	3211.9	
316.84	4639.3	
317.05	5186.8	
317.26	3386.7	
317.46	3111.5	
317.67	4731.5	
317.88	5020.9	
318.09	3588.7	
318.3	2772.9	
318.5	4536.9	
318.71	4954.7	
318.92	4437.9	
319.13	3360.7	
319.34	5138.4	
319.54	5224.4	
319.75	2789.3	
319.96	2680.1	
320.17	4979.3	
320.38	5116.5	
320.58	2712.9	
320.79	3219.4	
321	5173.9	
321.21	5280.3	
321.42	3225.6	
321.62	2785.2	
321.83	4553.3	
322.04	4818.9	
322.25	3128.6	
322.46	2932.7	
322.66	4812.7	
322.87	4983.4	
323.08	3523.2	
323.29	2910.8	
323.5	5491.3	
323.7	4450.2	
323.91	3846.1	
324.12	3528.7	
324.33	4913.1	
324.53	4995	
324.74	3411.2	
324.95	3502	
325.16	4348.5	
325.37	4670.1	
325.57	2968.9	
325.78	2954.5	
325.99	4854.4	
326.2	4419.5	
326.4	4072.7	
326.61	2777.7	
326.82	4729.4	
327.03	4900.8	
327.24	3990.8	
327.44	3755.3	
327.65	5014.1	
327.86	4130.8	
328.07	3368.2	
328.27	2882.9	
328.48	5284.4	
328.69	4483	
328.9	4046.8	
329.1	3044.6	
329.31	4704.2	
329.52	5266	
329.73	2994.1	
329.93	3211.9	
330.14	4769	
330.35	4937	
330.56	4527.4	
330.76	3508.9	
330.97	4666.6	
331.18	4924	
331.39	3257	
331.59	2717.7	
331.8	5141.8	
332.01	5284.4	
332.22	3040.6	
332.42	3391.4	
332.63	4879.6	
332.84	4481	
333.05	3228.3	
333.25	2962	
333.46	4598.4	
333.67	4724.7	
333.88	3106.1	
334.08	3319.1	
334.29	6079.7	
334.5	5190.9	
334.7	2912.2	
334.91	3991.5	
335.12	4396.3	
335.33	5002.5	
335.53	3214.6	
335.74	4506.9	
335.95	4668.7	
336.16	4442.7	
336.36	3179.1	
336.57	3702.7	
336.78	4407.9	
336.98	5216.9	
337.19	3910.9	
337.4	3158.7	
337.61	5608.7	
337.81	4362.9	
338.02	3033	
338.23	3734.1	
338.43	5289.9	
338.64	4548.5	
338.85	2969.6	
339.05	3751.2	
339.26	5393	
339.47	4329.4	
339.68	2956.6	
339.88	4176.5	
340.09	4973.8	
340.3	5044.1	
340.5	3406.5	
340.71	2721.8	
340.92	4437.9	
341.13	5252.4	
341.33	2839.8	
341.54	3422.8	
341.75	4970.4	
341.95	4622.9	
342.16	3313.6	
342.37	3537.5	
342.57	4424.3	
342.78	4726.7	
342.99	3562.1	
343.19	2710.1	
343.4	5073.5	
343.61	4940.4	
343.81	3221.5	
344.02	2884.2	
344.23	5092.6	
344.43	5309.7	
344.64	3562.1	
344.85	3521.8	
345.06	4989.5	
345.26	5175.2	
345.47	3430.3	
345.68	3837.2	
345.88	4329.4	
346.09	5100.1	
346.3	3486.3	
346.5	2696.5	
346.71	4729.4	
346.92	4583.4	
347.12	2841.2	
347.33	3338.2	
347.54	5134.3	
347.74	5455.1	
347.95	3383.2	
348.16	2670.6	
348.36	4638	
348.57	4487.1	
348.78	3401	
348.98	3584.6	
349.19	4783.4	
349.39	4357.4	
349.6	2807.1	
349.81	3037.1	
350.01	5035.3	
350.22	4595.6	
350.43	3348.4	
350.63	3857	
350.84	4805.9	
351.05	4609.3	
351.25	3078.1	
351.46	2875.3	
351.67	5188.2	
351.87	4595.6	
352.08	3197.6	
352.29	3568.2	
352.49	5149.3	
352.7	5196.4	
352.9	2975.7	
353.11	3581.2	
353.32	5650.3	
353.52	4749.2	
353.73	3004.4	
353.94	3718.4	
354.14	5015.5	
354.35	4900.8	
354.55	3078.8	
354.76	3334.1	
354.97	5048.9	
355.17	4856.4	
355.38	3010.5	
355.59	3855.6	
355.79	4605.9	
356	4878.3	
356.2	3353.2	
356.41	3063.1	
356.62	4547.9	
356.82	4883	
357.03	3614	
357.24	3246.7	
357.44	4712.4	
357.65	4788.2	
357.85	4205.8	
358.06	3464.5	
358.27	4575.2	
358.47	4653	
358.68	3019.4	
358.88	3592.1	
359.09	5190.2	
359.3	5379.3	
359.5	4189.5	
359.71	3809.2	
359.91	5676.3	
360.12	5233.2	
360.33	3708.2	
360.53	4036.5	
360.74	4842.1	
360.94	4883.7	
361.15	3865.2	
361.36	3314.3	
361.56	5408.7	
361.77	5061.2	
361.97	4300.7	
362.18	3513.6	
362.38	5472.2	
362.59	4813.4	
362.8	3348.4	
363	3248.8	
363.21	4698	
363.41	5145.2	
363.62	3717.7	
363.83	4420.9	
364.03	5369.8	
364.24	5937.7	
364.44	4614.1	
364.65	4562.9	
364.85	5090.6	
365.06	4930.8	
365.27	3544.4	
365.47	3594.2	
365.68	5826.5	
365.88	5124	
366.09	3910.9	
366.29	3641.3	
366.5	5354.1	
366.71	5682.4	
366.91	4621.6	
367.12	4080.2	
367.32	6192.4	
367.53	5572.5	
367.73	4092.5	
367.94	4786.1	
368.14	5629.2	
368.35	6169.8	
368.56	3978.5	
368.76	3925.3	
368.97	5735.7	
369.17	6851.1	
369.38	3729.4	
369.58	3934.1	
369.79	4930.1	
369.99	5987.6	
370.2	4616.8	
370.4	3981.3	
370.61	5440.1	
370.82	6363	
371.02	3919.1	
371.23	3456.3	
371.43	5036.6	
371.64	6027.9	
371.84	4045.4	
372.05	4861.9	
372.25	6880.5	
372.46	5826.5	
372.66	4104.1	
372.87	4048.8	
373.07	5898.1	
373.28	7049.8	
373.48	4838.7	
373.69	4631.8	
373.9	5649.7	
374.1	5685.2	
374.31	4925.4	
374.51	4537.6	
374.72	6296.8	
374.92	5552.7	
375.13	5104.9	
375.33	4554	
375.54	6139.1	
375.74	5700.9	
375.95	4753.3	
376.15	5655.1	
376.36	6227.9	
376.56	6128.2	
376.77	4853.7	
376.97	5123.3	
377.18	7061.4	
377.38	6433.4	
377.59	5444.2	
377.79	4653	
378	6222.4	
378.2	6531	
378.41	4748.6	
378.61	4671.4	
378.82	6751.5	
379.02	6255.2	
379.23	4948.6	
379.43	5677	
379.64	6929.6	
379.84	6595.8	
380.05	4777.2	
380.25	4672.1	
380.46	6637.5	
380.66	6385.6	
380.87	5687.9	
381.07	5970.5	
381.28	7053.2	
381.48	6577.4	
381.69	4760.8	
381.89	4833.2	
382.1	5853.1	
382.3	6668.9	
382.51	5518.6	
382.71	6173.9	
382.91	6547.4	
383.12	6956.3	
383.32	5005.9	
383.53	5169.1	
383.73	6464.8	
383.94	6339.8	
384.14	5154.7	
384.35	4433.2	
384.55	6176	
384.76	6548	
384.96	5012.7	
385.17	5234.6	
385.37	6601.3	
385.58	5905.7	
385.78	5133.6	
385.98	4317.1	
386.19	6104.3	
386.39	6391	
386.6	4775.9	
386.8	4956.1	
387.01	6599.9	
387.21	6625.9	
387.42	5231.2	
387.62	5716.6	
387.83	6148	
388.03	6524.8	
388.23	5192.3	
388.44	5732.3	
388.64	6090	
388.85	6295.5	
389.05	5433.3	
389.26	6027.9	
389.46	7745.4	
389.67	7327.6	
389.87	5698.1	
390.07	5702.2	
390.28	6688	
390.48	6449.7	
390.69	5254.4	
390.89	5514.5	
391.1	6606.7	
391.3	7199.3	
391.5	6239.5	
391.71	6727.6	
391.91	7159.7	
392.12	7740	
392.32	6345.3	
392.53	5754.8	
392.73	6830.7	
392.93	6890	
393.14	5631.9	
393.34	6067.4	
393.55	7189.1	
393.75	6764.4	
393.95	5526.1	
394.16	5402.5	
394.36	6701	
394.57	7077.8	
394.77	5130.8	
394.98	5302.2	
395.18	6604	
395.38	6669.6	
395.59	6239.5	
395.79	5533.6	
396	6960.4	
396.2	7283.3	
396.4	6217.6	
396.61	6303	
396.81	7609.6	
397.02	7217	
397.22	6662	
397.42	6738.5	
397.63	7792.5	
397.83	7375.4	
398.04	5825.1	
398.24	6443.6	
398.44	7654.6	
398.65	7029.3	
398.85	5918.6	
399.05	6030.6	
399.26	7476.5	
399.46	8662.2	
399.67	6402.6	
399.87	6195.1	
400.07	7767.3	
400.28	7989.8	
400.48	6467.5	
400.69	7253.2	
400.89	8335.9	
401.09	8709.3	
401.3	6467.5	
401.5	7268.9	
401.7	9125.1	
401.91	9163.3	
402.11	6989.7	
402.32	6930.3	
402.52	8740.7	
402.72	8429.4	
402.93	7205.4	
403.13	6260.6	
403.33	9028.8	
403.54	7757	
403.74	6756.2	
403.94	7121.5	
404.15	7699	
404.35	8583.7	
404.56	6270.2	
404.76	7463.5	
404.96	8092.9	
405.17	7870.3	
405.37	7522.2	
405.57	6980.8	
405.78	8462.9	
405.98	7983	
406.18	7419.1	
406.39	7461.4	
406.59	8555	
406.79	8195.3	
407	6599.9	
407.2	6528.9	
407.4	8686.8	
407.61	8606.2	
407.81	6638.1	
408.01	8076.5	
408.22	7872.4	
408.42	9377	
408.62	8006.9	
408.83	7876.5	
409.03	9020.6	
409.23	9153.1	
409.44	8353	
409.64	8499.1	
409.84	10408	
410.05	10446	
410.25	8947.6	
410.45	8725.7	
410.66	10714	
410.86	12207	
411.06	9730.6	
411.27	9312.1	
411.47	12572	
411.67	11035	
411.88	9750.4	
412.08	10391	
412.28	11713	
412.49	12125	
412.69	10173	
412.89	10277	
413.09	11949	
413.3	12300	
413.5	10486	
413.7	10358	
413.91	11693	
414.11	12414	
414.31	10634	
414.52	11149	
414.72	12295	
414.92	12405	
415.12	10559	
415.33	11174	
415.53	12890	
415.73	12906	
415.94	11417	
416.14	11077	
416.34	12239	
416.55	11880	
416.75	12012	
416.95	11662	
417.15	13213	
417.36	13327	
417.56	12485	
417.76	11832	
417.97	13511	
418.17	13482	
418.37	11548	
418.57	11808	
418.78	13424	
418.98	13170	
419.18	12483	
419.38	12336	
419.59	13200	
419.79	12700	
419.99	11550	
420.2	11682	
420.4	13426	
420.6	13304	
420.8	11551	
421.01	11361	
421.21	13521	
421.41	13493	
421.61	11871	
421.82	11772	
422.02	13248	
422.22	13818	
422.42	12501	
422.63	11625	
422.83	13315	
423.03	14164	
423.23	11899	
423.44	11133	
423.64	13334	
423.84	12672	
424.04	11551	
424.25	11394	
424.45	13560	
424.65	13474	
424.85	11110	
425.06	11508	
425.26	13761	
425.46	13010	
425.66	11722	
425.87	11581	
426.07	13267	
426.27	13249	
426.47	11822	
426.67	11161	
426.88	13620	
427.08	13110	
427.28	12194	
427.48	10976	
427.69	12273	
427.89	12873	
428.09	11913	
428.29	11100	
428.5	13416	
428.7	13000	
428.9	11144	
429.1	11493	
429.3	13193	
429.51	13457	
429.71	11133	
429.91	12191	
430.11	13745	
430.31	13938	
430.52	11983	
430.72	12355	
430.92	14185	
431.12	13919	
431.32	12026	
431.53	12064	
431.73	13216	
431.93	14278	
432.13	11818	
432.33	11968	
432.54	13523	
432.74	13731	
432.94	12076	
433.14	12573	
433.34	14108	
433.55	14203	
433.75	12822	
433.95	14442	
434.15	14261	
434.35	14243	
434.56	12421	
434.76	12484	
434.96	14453	
435.16	14984	
435.36	12689	
435.56	13788	
435.77	14780	
435.97	14894	
436.17	14360	
436.37	13917	
436.57	14752	
436.78	15038	
436.98	13542	
437.18	14184	
437.38	15809	
437.58	15022	
437.78	14416	
437.99	13429	
438.19	15215	
438.39	15917	
438.59	13454	
438.79	12785	
438.99	15561	
439.2	14645	
439.4	12413	
439.6	12535	
439.8	14734	
440	15507	
440.2	13660	
440.4	13788	
440.61	15686	
440.81	16288	
441.01	13884	
441.21	14977	
441.41	17150	
441.61	16469	
441.81	15618	
442.02	16133	
442.22	17374	
442.42	16664	
442.62	14726	
442.82	14334	
443.02	17218	
443.22	16676	
443.43	15110	
443.63	14625	
443.83	16172	
444.03	16428	
444.23	16092	
444.43	15614	
444.63	17255	
444.83	17847	
445.04	15569	
445.24	16479	
445.44	17348	
445.64	17416	
445.84	15500	
446.04	15978	
446.24	16615	
446.44	17374	
446.65	14714	
446.85	15341	
447.05	16079	
447.25	16939	
447.45	15071	
447.65	14649	
447.85	16542	
448.05	15790	
448.25	15586	
448.46	15401	
448.66	16863	
448.86	16279	
449.06	14762	
449.26	15449	
449.46	17076	
449.66	16275	
449.86	15812	
450.06	15472	
450.26	16834	
450.47	17326	
450.67	15424	
450.87	16128	
451.07	17491	
451.27	17452	
451.47	15335	
451.67	16358	
451.87	17391	
452.07	17610	
452.27	16169	
452.47	15532	
452.67	17372	
452.88	17984	
453.08	15049	
453.28	16883	
453.48	18809	
453.68	17217	
453.88	16119	
454.08	16012	
454.28	18116	
454.48	17696	
454.68	16397	
454.88	16677	
455.08	17901	
455.28	18559	
455.48	15550	
455.68	16937	
455.89	19085	
456.09	19025	
456.29	16737	
456.49	17331	
456.69	19564	
456.89	18549	
457.09	17510	
457.29	18241	
457.49	19251	
457.69	19636	
457.89	18262	
458.09	17562	
458.29	19919	
458.49	20441	
458.69	18814	
458.89	18565	
459.09	21104	
459.29	21192	
459.49	18528	
459.69	19452	
459.9	20545	
460.1	20994	
460.3	18370	
460.5	18349	
460.7	20829	
460.9	20646	
461.1	18269	
461.3	19647	
461.5	21590	
461.7	21153	
461.9	19746	
462.1	19521	
462.3	21599	
462.5	22058	
462.7	19751	
462.9	20178	
463.1	22836	
463.3	23178	
463.5	20396	
463.7	21982	
463.9	22709	
464.1	23059	
464.3	21919	
464.5	21448	
464.7	23582	
464.9	24329	
465.1	22980	
465.3	22341	
465.5	23817	
465.7	24503	
465.9	23157	
466.1	22020	
466.3	24789	
466.5	23853	
466.7	24116	
466.9	22620	
467.1	24789	
467.3	25259	
467.5	24117	
467.7	23414	
467.9	25504	
468.1	26414	
468.3	23658	
468.5	24374	
468.7	25434	
468.9	25008	
469.1	24124	
469.3	24888	
469.5	27282	
469.7	25761	
469.9	24148	
470.1	24419	
470.3	25931	
470.5	25875	
470.7	25384	
470.9	24261	
471.1	26122	
471.3	25234	
471.5	24371	
471.69	25364	
471.89	25410	
472.09	25056	
472.29	24815	
472.49	24128	
472.69	25498	
472.89	25639	
473.09	24098	
473.29	23418	
473.49	25379	
473.69	24920	
473.89	24500	
474.09	23707	
474.29	25905	
474.49	25506	
474.69	24466	
474.89	23685	
475.09	25056	
475.29	25167	
475.49	23274	
475.69	23903	
475.88	25846	
476.08	25538	
476.28	23546	
476.48	23259	
476.68	25189	
476.88	25116	
477.08	23053	
477.28	23681	
477.48	24197	
477.68	24565	
477.88	22993	
478.08	22813	
478.28	25639	
478.48	24461	
478.67	23364	
478.87	22484	
479.07	25910	
479.27	24816	
479.47	23613	
479.67	23849	
479.87	25527	
480.07	25777	
480.27	23199	
480.47	24298	
480.67	24758	
480.87	26009	
481.06	23396	
481.26	24157	
481.46	25478	
481.66	25357	
481.86	24025	
482.06	24808	
482.26	25099	
482.46	25699	
482.66	23984	
482.86	23589	
483.05	25706	
483.25	25097	
483.45	25659	
483.65	24082	
483.85	25465	
484.05	25666	
484.25	24372	
484.45	25510	
484.65	26340	
484.84	26985	
485.04	24586	
485.24	24599	
485.44	27144	
485.64	26001	
485.84	24605	
486.04	25506	
486.24	26287	
486.44	26744	
486.63	24673	
486.83	25537	
487.03	26944	
487.23	27450	
487.43	24957	
487.63	27006	
487.83	27439	
488.02	28008	
488.22	26501	
488.42	27038	
488.62	28160	
488.82	27515	
489.02	25932	
489.22	26725	
489.41	28147	
489.61	28557	
489.81	26351	
490.01	26353	
490.21	28674	
490.41	29270	
490.61	26639	
490.8	26705	
491	28681	
491.2	27884	
491.4	26884	
491.6	26412	
491.8	28018	
491.99	27701	
492.19	25817	
492.39	25639	
492.59	27925	
492.79	28226	
492.99	26438	
493.18	26114	
493.38	28456	
493.58	29861	
493.78	27690	
493.98	27289	
494.18	29312	
494.37	29670	
494.57	28906	
494.77	28773	
494.97	30862	
495.17	31302	
495.37	29334	
495.56	29551	
495.76	31993	
495.96	31991	
496.16	30829	
496.36	30735	
496.55	32806	
496.75	32791	
496.95	31086	
497.15	30964	
497.35	32489	
497.54	33082	
497.74	30596	
497.94	31913	
498.14	33234	
498.34	33120	
498.53	30952	
498.73	31389	
498.93	32828	
499.13	33286	
499.33	31806	
499.52	31767	
499.72	34053	
499.92	33393	
500.12	32062	
500.32	32457	
500.51	34065	
500.71	34271	
500.91	32823	
501.11	32668	
501.31	34514	
501.5	34356	
501.7	33468	
501.9	32740	
502.1	33983	
502.29	34411	
502.49	33088	
502.69	32845	
502.89	34229	
503.09	34454	
503.28	31703	
503.48	31761	
503.68	33140	
503.88	33458	
504.07	32055	
504.27	31395	
504.47	33605	
504.67	33026	
504.86	32099	
505.06	31765	
505.26	32975	
505.46	34082	
505.65	31577	
505.85	31236	
506.05	32333	
506.25	32578	
506.44	30110	
506.64	30433	
506.84	31741	
507.04	32086	
507.23	29805	
507.43	30261	
507.63	32864	
507.83	31780	
508.02	30261	
508.22	30266	
508.42	33434	
508.62	31776	
508.81	30100	
509.01	30896	
509.21	31152	
509.4	31713	
509.6	30187	
509.8	30036	
510	31232	
510.19	32814	
510.39	29806	
510.59	30025	
510.79	31850	
510.98	33133	
511.18	30506	
511.38	30775	
511.57	32462	
511.77	32309	
511.97	30738	
512.17	30161	
512.36	32645	
512.56	31860	
512.76	29962	
512.95	29650	
513.15	32235	
513.35	31195	
513.55	30453	
513.74	29716	
513.94	32193	
514.14	31649	
514.33	30936	
514.53	30627	
514.73	31897	
514.92	32075	
515.12	30208	
515.32	30154	
515.51	32327	
515.71	32378	
515.91	31532	
516.11	30412	
516.3	33750	
516.5	32167	
516.7	31137	
516.89	31523	
517.09	32220	
517.29	32544	
517.48	31567	
517.68	30668	
517.88	32013	
518.07	32474	
518.27	31103	
518.47	30255	
518.66	32498	
518.86	31944	
519.06	30042	
519.25	30382	
519.45	31966	
519.65	33407	
519.84	31087	
520.04	31891	
520.24	33786	
520.43	32870	
520.63	30886	
520.83	30975	
521.02	32382	
521.22	32570	
521.42	30894	
521.61	31094	
521.81	31843	
522.01	31673	
522.2	30310	
522.4	29994	
522.6	32171	
522.79	31539	
522.99	30378	
523.18	30643	
523.38	32394	
523.58	32926	
523.77	32542	
523.97	31387	
524.17	34950	
524.36	34680	
524.56	32934	
524.76	32716	
524.95	34592	
525.15	34342	
525.34	33576	
525.54	33872	
525.74	35794	
525.93	35032	
526.13	35035	
526.33	34678	
526.52	36707	
526.72	36345	
526.91	35620	
527.11	35133	
527.31	36818	
527.5	37220	
527.7	35370	
527.89	34725	
528.09	36302	
528.29	37156	
528.48	35248	
528.68	35031	
528.87	37296	
529.07	36927	
529.27	35512	
529.46	35645	
529.66	37734	
529.85	38283	
530.05	35990	
530.25	36162	
530.44	39062	
530.64	37320	
530.83	35917	
531.03	36251	
531.23	37728	
531.42	37289	
531.62	36308	
531.81	35493	
532.01	38092	
532.21	38619	
532.4	36544	
532.6	37279	
532.79	39600	
532.99	39595	
533.18	37980	
533.38	38941	
533.58	39974	
533.77	40075	
533.97	38913	
534.16	39302	
534.36	41071	
534.55	40165	
534.75	39480	
534.95	38827	
535.14	41584	
535.34	40748	
535.53	38912	
535.73	40363	
535.92	41781	
536.12	40568	
536.31	38845	
536.51	39610	
536.71	40383	
536.9	39766	
537.1	38199	
537.29	38455	
537.49	40258	
537.68	39565	
537.88	39109	
538.07	38208	
538.27	40278	
538.46	40919	
538.66	38296	
538.86	38853	
539.05	40308	
539.25	40750	
539.44	39900	
539.64	38746	
539.83	40477	
540.03	41073	
540.22	39060	
540.42	38419	
540.61	39886	
540.81	40450	
541	38391	
541.2	39281	
541.39	39382	
541.59	39933	
541.78	38996	
541.98	37874	
542.18	39267	
542.37	39182	
542.57	37890	
542.76	38857	
542.96	38980	
543.15	39227	
543.35	37525	
543.54	37114	
543.74	38629	
543.93	38639	
544.13	36549	
544.32	37530	
544.52	38111	
544.71	37572	
544.91	35835	
545.1	36428	
545.3	37744	
545.49	38227	
545.69	35680	
545.88	36078	
546.08	38964	
546.27	38037	
546.47	36489	
546.66	35988	
546.86	38047	
547.05	37995	
547.24	35634	
547.44	35929	
547.63	36911	
547.83	38026	
548.02	36207	
548.22	36117	
548.41	36944	
548.61	37758	
548.8	35356	
549	35650	
549.19	37028	
549.39	37450	
549.58	34785	
549.78	35491	
549.97	37176	
550.17	36650	
550.36	35305	
550.55	36513	
550.75	36534	
550.94	37201	
551.14	34760	
551.33	34391	
551.53	35710	
551.72	36589	
551.92	34508	
552.11	34409	
552.31	36218	
552.5	36167	
552.69	35649	
552.89	33952	
553.08	36255	
553.28	35950	
553.47	34302	
553.67	34850	
553.86	36225	
554.06	34949	
554.25	33127	
554.44	33841	
554.64	36571	
554.83	36353	
555.03	33752	
555.22	34032	
555.42	35741	
555.61	35824	
555.8	33520	
556	33553	
556.19	34840	
556.39	35334	
556.58	33518	
556.78	33525	
556.97	35142	
557.16	35009	
557.36	34202	
557.55	33329	
557.75	33982	
557.94	35932	
558.13	33122	
558.33	33088	
558.52	35743	
558.72	34693	
558.91	33176	
559.1	33090	
559.3	34527	
559.49	33865	
559.69	32647	
559.88	33073	
560.07	34612	
560.27	35251	
560.46	33187	
560.66	33208	
560.85	34745	
561.04	33559	
561.24	32688	
561.43	32473	
561.63	33817	
561.82	33834	
562.01	33396	
562.21	32555	
562.4	33837	
562.59	35145	
562.79	32434	
562.98	32382	
563.18	34253	
563.37	35499	
563.56	33027	
563.76	32925	
563.95	34510	
564.14	34480	
564.34	33413	
564.53	32991	
564.73	34923	
564.92	35326	
565.11	33486	
565.31	33047	
565.5	35347	
565.69	34529	
565.89	33572	
566.08	33805	
566.27	35474	
566.47	36205	
566.66	34386	
566.85	33439	
567.05	35495	
567.24	35127	
567.44	33733	
567.63	34654	
567.82	35862	
568.02	35342	
568.21	33855	
568.4	34114	
568.6	35631	
568.79	35348	
568.98	33684	
569.18	34133	
569.37	35794	
569.56	37192	
569.76	34491	
569.95	35441	
570.14	36102	
570.34	36541	
570.53	34321	
570.72	34327	
570.91	36827	
571.11	36217	
571.3	34548	
571.49	35127	
571.69	36379	
571.88	35607	
572.07	35385	
572.27	34752	
572.46	35999	
572.65	36620	
572.85	34762	
573.04	35093	
573.23	37137	
573.43	36246	
573.62	34948	
573.81	35147	
574	36845	
574.2	36448	
574.39	35492	
574.58	35522	
574.78	38126	
574.97	37543	
575.16	36283	
575.36	36753	
575.55	38486	
575.74	38260	
575.93	35937	
576.13	37239	
576.32	37826	
576.51	38604	
576.71	36512	
576.9	37794	
577.09	38911	
577.28	38427	
577.48	36786	
577.67	36298	
577.86	38250	
578.05	38498	
578.25	36855	
578.44	36603	
578.63	38247	
578.83	39356	
579.02	36348	
579.21	37759	
579.4	38789	
579.6	38707	
579.79	37066	
579.98	38999	
580.17	38920	
580.37	39422	
580.56	36371	
580.75	37395	
580.94	39309	
581.14	39052	
581.33	37843	
581.52	36934	
581.71	39155	
581.91	39528	
582.1	36932	
582.29	37072	
582.48	39113	
582.68	38838	
582.87	37590	
583.06	37644	
583.25	39430	
583.45	38702	
583.64	38242	
583.83	38887	
584.02	38848	
584.21	39509	
584.41	38058	
584.6	37941	
584.79	39413	
584.98	40017	
585.18	37607	
585.37	37335	
585.56	39049	
585.75	39511	
585.94	37296	
586.14	37950	
586.33	39222	
586.52	39203	
586.71	37389	
586.91	37231	
587.1	37870	
587.29	38788	
587.48	36237	
587.67	36634	
587.87	38052	
588.06	37754	
588.25	36971	
588.44	36465	
588.63	37558	
588.83	38061	
589.02	35719	
589.21	35407	
589.4	36593	
589.59	37081	
589.78	34039	
589.98	34211	
590.17	35254	
590.36	35641	
590.55	32451	
590.74	32101	
590.94	35016	
591.13	33413	
591.32	31272	
591.51	30928	
591.7	33548	
591.89	33406	
592.09	31227	
592.28	31882	
592.47	33057	
592.66	34900	
592.85	32038	
593.05	32248	
593.24	33484	
593.43	34724	
593.62	32277	
593.81	32790	
594	33842	
594.19	34059	
594.39	31902	
594.58	32035	
594.77	34157	
594.96	34365	
595.15	31909	
595.34	32563	
595.54	33830	
595.73	33247	
595.92	31112	
596.11	31898	
596.3	33605	
596.49	32890	
596.68	31283	
596.88	31666	
597.07	33359	
597.26	32557	
597.45	30984	
597.64	31908	
597.83	32873	
598.02	33359	
598.22	31054	
598.41	31577	
598.6	32923	
598.79	32630	
598.98	30948	
599.17	31846	
599.36	32753	
599.55	33355	
599.74	32246	
599.94	32461	
600.13	33262	
600.32	32091	
600.51	30521	
600.7	30623	
600.89	33282	
601.08	33433	
601.27	30593	
601.47	31249	
601.66	32662	
601.85	33151	
602.04	31273	
602.23	30805	
602.42	32131	
602.61	32214	
602.8	30571	
602.99	30278	
603.18	32092	
603.37	32325	
603.57	30504	
603.76	30800	
603.95	32735	
604.14	32250	
604.33	30232	
604.52	30752	
604.71	32436	
604.9	32101	
605.09	31090	
605.28	30835	
605.47	32933	
605.66	32416	
605.86	30913	
606.05	30416	
606.24	32651	
606.43	31500	
606.62	30539	
606.81	31060	
607	32362	
607.19	32143	
607.38	29892	
607.57	30077	
607.76	31552	
607.95	31169	
608.14	30406	
608.33	30559	
608.52	31480	
608.72	32429	
608.91	29752	
609.1	29444	
609.29	31296	
609.48	30935	
609.67	29898	
609.86	29316	
610.05	30949	
610.24	31027	
610.43	29428	
610.62	28678	
610.81	31636	
611	31835	
611.19	29205	
611.38	29737	
611.57	31166	
611.76	32215	
611.95	28944	
612.14	28790	
612.33	30886	
612.52	30546	
612.71	29328	
612.9	28839	
613.09	30211	
613.28	32217	
613.47	28972	
613.66	29825	
613.85	31058	
614.04	30536	
614.24	29067	
614.43	28338	
614.62	30998	
614.81	30917	
615	29269	
615.19	29483	
615.38	30380	
615.57	30941	
615.76	29499	
615.95	30141	
616.14	31287	
616.33	30989	
616.52	29825	
616.71	29801	
616.9	31238	
617.09	31324	
617.28	29239	
617.47	29855	
617.66	30587	
617.85	30636	
618.04	30325	
618.22	29722	
618.41	31378	
618.6	32073	
618.79	30229	
618.98	30262	
619.17	32858	
619.36	31591	
619.55	30649	
619.74	30494	
619.93	32410	
620.12	32126	
620.31	31103	
620.5	31408	
620.69	33226	
620.88	33676	
621.07	32076	
621.26	31878	
621.45	33510	
621.64	33492	
621.83	31882	
622.02	31533	
622.21	33194	
622.4	33401	
622.59	32529	
622.78	32190	
622.97	32964	
623.16	33962	
623.35	31946	
623.54	31492	
623.72	33495	
623.91	33507	
624.1	32400	
624.29	31477	
624.48	34478	
624.67	33641	
624.86	32508	
625.05	31805	
625.24	34501	
625.43	33279	
625.62	33581	
625.81	32051	
626	33833	
626.19	33780	
626.38	32432	
626.56	31932	
626.75	33502	
626.94	34400	
627.13	32645	
627.32	31604	
627.51	34229	
627.7	35065	
627.89	31462	
628.08	32543	
628.27	32971	
628.46	33140	
628.65	31565	
628.83	31369	
629.02	33398	
629.21	32867	
629.4	32137	
629.59	32055	
629.78	33173	
629.97	33667	
630.16	32081	
630.35	31853	
630.54	33992	
630.72	33890	
630.91	31605	
631.1	32018	
631.29	33574	
631.48	33574	
631.67	32064	
631.86	31372	
632.05	33336	
632.24	33249	
632.42	31170	
632.61	31770	
632.8	32879	
632.99	32948	
633.18	31959	
633.37	32015	
633.56	33305	
633.75	33224	
633.93	31806	
634.12	31684	
634.31	33751	
634.5	33828	
634.69	31862	
634.88	31740	
635.07	33193	
635.25	33609	
635.44	32161	
635.63	32502	
635.82	32894	
636.01	32367	
636.2	31698	
636.39	31738	
636.57	33598	
636.76	33027	
636.95	31106	
637.14	31838	
637.33	33015	
637.52	33542	
637.7	30874	
637.89	31756	
638.08	32934	
638.27	33515	
638.46	31739	
638.65	31650	
638.83	33379	
639.02	32570	
639.21	31355	
639.4	31520	
639.59	32476	
639.78	31987	
639.96	30339	
640.15	30302	
640.34	32051	
640.53	31991	
640.72	29922	
640.91	29926	
641.09	31309	
641.28	32150	
641.47	29797	
641.66	30475	
641.85	31851	
642.03	31490	
642.22	30053	
642.41	29605	
642.6	31295	
642.79	30552	
642.97	29296	
643.16	29902	
643.35	30834	
643.54	30708	
643.73	29165	
643.91	29588	
644.1	30020	
644.29	30758	
644.48	28643	
644.67	28627	
644.85	29915	
645.04	30216	
645.23	27884	
645.42	28218	
645.6	28945	
645.79	29833	
645.98	27376	
646.17	26383	
646.36	28228	
646.54	28121	
646.73	27177	
646.92	26368	
647.11	27689	
647.29	28724	
647.48	26460	
647.67	26041	
647.86	28555	
648.05	28788	
648.23	26179	
648.42	27304	
648.61	28028	
648.8	27807	
648.98	25656	
649.17	25958	
649.36	27020	
649.55	27096	
649.73	25439	
649.92	26183	
650.11	27527	
650.3	27524	
650.48	25901	
650.67	25772	
650.86	27710	
651.05	26944	
651.23	25599	
651.42	25387	
651.61	27015	
651.79	26454	
651.98	25557	
652.17	25019	
652.36	26792	
652.54	26284	
652.73	25150	
652.92	25032	
653.11	26736	
653.29	26964	
653.48	24583	
653.67	25148	
653.85	26422	
654.04	27198	
654.23	24861	
654.42	24422	
654.6	25453	
654.79	25912	
654.98	23488	
655.16	23475	
655.35	24221	
655.54	23776	
655.73	22421	
655.91	21885	
656.1	24033	
656.29	23330	
656.47	21591	
656.66	23104	
656.85	23896	
657.03	24227	
657.22	22849	
657.41	23318	
657.59	24765	
657.78	24836	
657.97	23290	
658.16	23970	
658.34	25424	
658.53	25995	
658.72	24404	
658.9	24884	
659.09	25350	
659.28	25432	
659.46	23797	
659.65	23756	
659.84	25030	
660.02	25627	
660.21	23606	
660.4	23766	
660.58	25745	
660.77	25345	
660.96	24142	
661.14	23410	
661.33	26329	
661.52	26009	
661.7	23414	
661.89	25869	
662.08	24995	
662.26	24676	
662.45	23369	
662.64	23285	
662.82	25496	
663.01	24726	
663.2	23199	
663.38	24004	
663.57	25032	
663.75	25028	
663.94	23446	
664.13	24080	
664.31	24563	
664.5	25128	
664.69	23579	
664.87	24105	
665.06	24438	
665.25	25124	
665.43	24047	
665.62	24095	
665.8	24952	
665.99	24575	
666.18	23130	
666.36	23241	
666.55	24849	
666.74	24873	
666.92	22965	
667.11	23961	
667.29	24343	
667.48	24701	
667.67	23550	
667.85	23022	
668.04	24468	
668.22	24387	
668.41	22922	
668.6	23328	
668.78	24079	
668.97	24311	
669.15	23188	
669.34	22353	
669.53	24073	
669.71	24463	
669.9	22448	
670.08	23012	
670.27	23938	
670.46	24340	
670.64	22956	
670.83	23372	
671.01	23622	
671.2	24094	
671.38	22538	
671.57	22227	
671.76	24651	
671.94	25063	
672.13	22203	
672.31	23057	
672.5	24378	
672.69	24008	
672.87	22470	
673.06	22836	
673.24	24410	
673.43	24030	
673.61	22621	
673.8	22541	
673.98	24107	
674.17	24393	
674.36	23074	
674.54	22765	
674.73	23870	
674.91	24152	
675.1	22898	
675.28	22261	
675.47	23881	
675.65	24414	
675.84	22513	
676.03	22713	
676.21	23580	
676.4	23252	
676.58	22836	
676.77	23061	
676.95	24806	
677.14	23590	
677.32	22086	
677.51	22192	
677.69	24191	
677.88	23418	
678.06	22069	
678.25	22127	
678.44	23966	
678.62	23528	
678.81	21650	
678.99	22809	
679.18	24255	
679.36	24136	
679.55	22267	
679.73	22640	
679.92	23900	
680.1	23381	
680.29	23240	
680.47	22158	
680.66	23368	
680.84	23921	
681.03	21714	
681.21	22535	
681.4	23483	
681.58	23314	
681.77	21949	
681.95	21743	
682.14	23840	
682.32	24084	
682.51	22543	
682.69	21429	
682.88	23070	
683.06	23092	
683.25	21960	
683.43	22315	
683.62	23255	
683.8	23459	
683.99	22185	
684.17	21785	
684.36	23919	
684.54	22881	
684.73	20816	
684.91	20745	
685.1	22376	
685.28	21527	
685.46	20046	
685.65	19742	
685.83	20689	
686.02	20138	
686.2	18441	
686.39	18574	
686.57	19744	
686.76	21141	
686.94	18921	
687.13	19393	
687.31	20889	
687.5	20988	
687.68	18971	
687.86	19958	
688.05	22333	
688.23	20529	
688.42	20083	
688.6	19814	
688.79	21195	
688.97	21107	
689.16	20246	
689.34	19426	
689.52	22014	
689.71	22095	
689.89	20571	
690.08	20157	
690.26	21818	
690.45	21831	
690.63	20726	
690.81	20512	
691	21674	
691.18	21673	
691.37	20325	
691.55	21763	
691.74	21089	
691.92	22695	
692.1	20115	
692.29	19719	
692.47	21101	
692.66	20559	
692.84	19591	
693.02	19895	
693.21	20997	
693.39	21086	
693.58	20377	
693.76	19878	
693.94	22145	
694.13	22220	
694.31	20212	
694.5	20962	
694.68	21543	
694.86	22070	
695.05	20955	
695.23	20955	
695.42	22661	
695.6	24219	
695.78	21586	
695.97	20786	
696.15	22875	
696.34	22341	
696.52	20755	
696.7	21169	
696.89	22128	
697.07	21543	
697.25	20710	
697.44	21689	
697.62	21985	
697.81	21820	
697.99	20090	
698.17	20667	
698.36	21076	
698.54	21532	
698.72	20302	
698.91	19379	
699.09	21166	
699.28	20895	
699.46	19751	
699.64	19635	
699.83	21022	
700.01	21358	
700.19	20147	
700.38	19208	
700.56	21521	
700.74	20942	
700.93	19308	
701.11	20042	
701.29	21375	
701.48	22327	
701.66	19771	
701.84	19906	
702.03	21177	
702.21	21900	
702.39	19577	
702.58	20326	
702.76	21634	
702.94	21650	
703.13	19420	
703.31	21194	
703.49	21212	
703.68	22238	
703.86	19495	
704.04	20132	
704.23	21104	
704.41	21298	
704.59	19516	
704.78	20043	
704.96	22389	
705.14	21281	
705.33	19340	
705.51	19714	
705.69	20785	
705.87	21489	
706.06	19939	
706.24	19200	
706.42	21004	
706.61	21273	
706.79	19747	
706.97	18815	
707.16	20342	
707.34	20704	
707.52	19422	
707.7	19030	
707.89	20418	
708.07	20168	
708.25	19398	
708.44	19795	
708.62	20139	
708.8	20764	
708.98	19548	
709.17	18748	
709.35	20259	
709.53	20049	
709.72	18452	
709.9	18436	
710.08	20111	
710.26	20241	
710.45	19116	
710.63	18333	
710.81	19585	
710.99	19696	
711.18	18538	
711.36	17948	
711.54	19383	
711.72	19622	
711.91	17821	
712.09	17432	
712.27	19005	
712.45	19314	
712.64	17472	
712.82	16770	
713	17967	
713.18	17984	
713.37	16412	
713.55	16930	
713.73	18350	
713.91	16950	
714.1	15663	
714.28	15116	
714.46	16954	
714.64	15728	
714.83	13519	
715.01	13567	
715.19	14547	
715.37	13815	
715.55	12519	
715.74	12742	
715.92	14438	
716.1	12899	
716.28	13210	
716.47	12288	
716.65	13233	
716.83	13246	
717.01	11955	
717.19	11875	
717.38	14618	
717.56	12805	
717.74	12127	
717.92	11456	
718.1	13579	
718.29	13160	
718.47	11437	
718.65	11968	
718.83	14272	
719.01	14558	
719.2	12375	
719.38	13379	
719.56	14787	
719.74	16008	
719.92	13089	
720.11	13712	
720.29	14635	
720.47	13877	
720.65	12244	
720.83	12452	
721.02	13381	
721.2	12986	
721.38	11842	
721.56	11266	
721.74	12261	
721.92	12119	
722.11	11951	
722.29	11586	
722.47	13041	
722.65	12482	
722.83	10884	
723.01	11314	
723.2	12334	
723.38	12592	
723.56	10444	
723.74	11207	
723.92	11931	
724.1	12934	
724.29	10779	
724.47	11607	
724.65	11977	
724.83	11837	
725.01	10482	
725.19	11062	
725.37	11547	
725.56	11637	
725.74	10234	
725.92	10512	
726.1	11732	
726.28	11987	
726.46	10553	
726.64	10402	
726.83	11669	
727.01	11800	
727.19	10050	
727.37	10610	
727.55	11837	
727.73	12087	
727.91	9929.9	
728.09	9770.2	
728.28	12043	
728.46	12182	
728.64	10574	
728.82	10584	
729	12812	
729.18	12329	
729.36	10059	
729.54	11570	
729.72	13237	
729.91	12101	
730.09	11713	
730.27	10938	
730.45	12072	
730.63	12443	
730.81	11137	
730.99	10634	
731.17	12878	
731.35	11932	
731.53	11037	
731.71	10746	
731.9	12547	
732.08	12562	
732.26	10669	
732.44	10361	
732.62	12537	
732.8	12243	
732.98	10864	
733.16	10235	
733.34	12037	
733.52	10933	
733.7	10252	
733.88	10333	
734.07	11503	
734.25	11545	
734.43	9856.2	
734.61	10813	
734.79	12572	
734.97	11426	
735.15	9669.1	
735.33	10058	
735.51	11467	
735.69	11174	
735.87	10741	
736.05	10017	
736.23	11338	
736.41	10959	
736.59	9800.9	
736.77	9871.9	
736.95	11585	
737.13	11013	
737.32	9439.8	
737.5	9560.6	
737.68	11824	
737.86	10684	
738.04	9159.2	
738.22	10408	
738.4	10570	
738.58	10759	
738.76	9359.2	
738.94	8671.1	
739.12	10571	
739.3	10491	
739.48	9775	
739.66	9617.9	
739.84	10665	
740.02	10668	
740.2	8651.3	
740.38	8753	
740.56	10857	
740.74	9915.6	
740.92	9317.6	
741.1	9038.4	
741.28	10187	
741.46	9972.2	
741.64	8650.6	
741.82	9022	
742	10072	
742.18	9882.1	
742.36	8677.9	
742.54	8373.5	
742.72	10363	
742.9	9358.5	
743.08	8860.2	
743.26	7920.2	
743.44	10244	
743.62	10152	
743.8	8734.6	
743.98	8081.3	
744.16	9857.6	
744.34	9521	
744.52	8538	
744.7	8503.8	
744.88	9747	
745.06	9439.8	
745.24	8430.8	
745.42	8420.6	
745.6	9731.3	
745.78	9560.6	
745.96	7441	
746.14	7526.3	
746.32	10010	
746.5	9393.3	
746.68	7884.7	
746.86	7428	
747.03	9611.8	
747.21	8415.8	
747.39	7770	
747.57	7293.5	
747.75	8900.5	
747.93	9196.7	
748.11	7187.7	
748.29	7157	
748.47	10092	
748.65	8699.8	
748.83	7720.8	
749.01	7514	
749.19	9000.1	
749.37	8293.6	
749.55	7425.3	
749.73	7367.9	
749.91	8721.6	
750.09	8430.1	
750.26	7370.6	
750.44	6862.1	
750.62	8637.6	
750.8	8529.8	
750.98	6798.6	
751.16	6976.7	
751.34	8615.1	
751.52	8088.1	
751.7	7511.9	
751.88	6642.9	
752.06	8886.8	
752.24	8568.7	
752.42	6570.6	
752.59	6761	
752.77	8320.2	
752.95	9238.4	
753.13	7231.4	
753.31	6795.8	
753.49	8017.1	
753.67	8250.6	
753.85	6846.4	
754.03	6532.3	
754.21	8318.2	
754.38	8395.3	
754.56	6362.4	
754.74	5571.8	
754.92	7404.1	
755.1	7778.9	
755.28	5315.2	
755.46	5198.4	
755.64	7983.7	
755.82	7801.4	
755.99	4905.6	
756.17	4829.1	
756.35	5516.5	
756.53	6554.9	
756.71	3741.6	
756.89	4315.1	
757.07	6137.1	
757.25	5539.1	
757.42	4830.5	
757.6	5482.4	
757.78	6287.9	
757.96	5764.3	
758.14	4788.8	
758.32	4511.7	
758.5	5455.8	
758.67	6021	
758.85	4661.9	
759.03	4762.9	
759.21	6169.2	
759.39	5730.2	
759.57	4332.8	
759.75	5147.9	
759.92	6761	
760.1	6243.6	
760.28	5545.2	
760.46	5801.9	
760.64	6105	
760.82	5930.2	
760.99	5479	
761.17	5015.5	
761.35	6851.8	
761.53	6087.2	
761.71	5158.2	
761.89	5663.3	
762.06	6825.2	
762.24	6473.6	
762.42	5339.1	
762.6	5095.3	
762.78	6568.5	
762.96	6987.7	
763.13	5588.9	
763.31	5391.6	
763.49	7137.9	
763.67	6522.1	
763.85	5941.8	
764.02	6346	
764.2	7404.8	
764.38	6660	
764.56	5304.9	
764.74	5832.6	
764.91	7387	
765.09	6554.2	
765.27	5127.4	
765.45	4874.8	
765.63	7436.2	
765.8	7143.3	
765.98	4684.4	
766.16	4896.7	
766.34	6169.2	
766.52	5930.9	
766.69	5485.1	
766.87	4728.1	
767.05	6483.9	
767.23	6897.6	
767.41	4831.8	
767.58	5083.1	
767.76	6742.6	
767.94	6824.5	
768.12	4891.2	
768.29	5370.5	
768.47	6251.8	
768.65	6868.9	
768.83	4518.5	
769	5315.2	
769.18	5975.3	
769.36	6419.7	
769.54	5343.2	
769.72	4541.7	
769.89	6660.7	
770.07	6582.9	
770.25	4741	
770.43	5662.6	
770.6	7120.1	
770.78	7358.4	
770.96	4799.8	
771.14	5216.9	
771.31	6466.8	
771.49	5967.1	
771.67	4172.4	
771.85	4224.3	
772.02	5473.5	
772.2	5882.4	
772.38	4838	
772.55	4466.6	
772.73	6122.1	
772.91	5907	
773.09	4642.7	
773.26	4761.5	
773.44	6016.9	
773.62	5801.9	
773.8	4297.3	
773.97	4143	
774.15	5982.1	
774.33	5778.7	
774.5	4176.5	
774.68	4419.5	
774.86	5846.3	
775.04	5717.9	
775.21	4188.1	
775.39	4126.7	
775.57	5866.1	
775.74	6118	
775.92	4012.7	
776.1	3941	
776.27	5832.6	
776.45	6712.6	
776.63	4091.8	
776.81	3834.5	
776.98	5519.3	
777.16	6234	
777.34	4200.4	
777.51	4352.6	
777.69	5531.6	
777.87	5351.3	
778.04	4149.9	
778.22	4615.4	
778.4	5357.5	
778.57	5803.3	
778.75	3599.6	
778.93	3836.5	
779.1	5248.3	
779.28	5070.8	
779.46	3606.5	
779.64	3953.3	
779.81	5901.6	
779.99	6418.3	
780.17	4463.2	
780.34	4583.4	
780.52	5468.8	
780.69	5492.7	
780.87	4112.3	
781.05	3799	
781.22	5473.5	
781.4	5517.9	
781.58	3915.7	
781.75	3282.9	
781.93	5455.8	
782.11	4977.9	
782.28	4517.1	
782.46	3858.4	
782.64	4897.4	
782.81	5579.3	
782.99	3873.4	
783.17	3867.9	
783.34	5423.7	
783.52	5052.3	
783.69	3999	
783.87	4565.6	
784.05	4997	
784.22	4931.5	
784.4	4481.6	
784.58	4022.9	
784.75	5666.7	
784.93	4990.2	
785.1	3773.7	
785.28	4220.9	
785.46	5371.8	
785.63	4924	
785.81	3753.9	
785.99	3625.6	
786.16	5099.4	
786.34	5226.4	
786.51	3674.1	
786.69	4007.9	
786.87	4660.5	
787.04	5047.6	
787.22	3564.1	
787.39	4157.4	
787.57	4862.6	
787.75	5649	
787.92	4368.3	
788.1	4214.7	
788.27	4828.4	
788.45	4631.8	
788.63	4025.6	
788.8	3067.9	
788.98	5177.3	
789.15	4528.7	
789.33	3233.7	
789.5	3656.3	
789.68	5514.5	
789.86	5535	
790.03	3973.1	
790.21	3574.4	
790.38	5508.4	
790.56	4864.6	
790.73	3417.4	
790.91	3466.5	
791.09	4809.3	
791.26	5340.4	
791.44	3691.1	
791.61	3220.8	
791.79	4838	
791.96	4794.3	
792.14	3327.9	
792.32	3010.5	
792.49	4802.5	
792.67	4876.9	
792.84	3406.5	
793.02	3235.8	
793.19	5214.8	
793.37	5577.3	
793.54	2960	
793.72	3272	
793.89	5613.5	
794.07	4721.3	
794.25	3611.3	
794.42	3119.1	
794.6	5492	
794.77	5165.7	
794.95	3843.4	
795.12	3487	
795.3	4767	
795.47	5116.5	
795.65	3731.4	
795.82	3587.4	
796	4628.4	
796.17	5942.5	
796.35	3540.3	
796.52	4059.8	
796.7	5152	
796.87	5200.5	
797.05	3491.8	
797.22	4108.9	
797.4	5229.8	
797.57	5785.5	
797.75	3622.2	
797.92	3393.5	
798.1	5412.1	
798.27	4573.8	
798.45	3019.4	
798.62	3209.8	
798.8	4937.7	
798.97	5332.9	
799.15	3755.3	
799.32	3571.7	
799.5	4341	
799.67	4866	
799.85	3768.3	
800.02	2931.3	
800.2	4667.3	
800.37	4869.4	
800.55	3831.7	
800.72	3410.6	
800.9	5276.9	
801.07	5541.1	
801.25	4291.9	
801.42	3663.8	
801.6	5228.5	
801.77	4940.4	
801.95	3443.3	
802.12	3351.2	
802.29	5061.9	
802.47	4992.3	
802.64	3680.9	
802.82	2895.8	
802.99	4612.7	
803.17	5242.1	
803.34	3536.2	
803.52	3190.1	
803.69	5791	
803.87	4386.7	
804.04	3506.1	
804.21	3523.2	
804.39	5462.6	
804.56	4718.5	
804.74	3065.1	
804.91	3643.3	
805.09	4560.8	
805.26	4616.8	
805.44	3091.8	
805.61	3373.7	
805.78	5151.3	
805.96	5055.1	
806.13	3644	
806.31	3781.2	
806.48	4286.4	
806.66	4607.9	
806.83	3624.9	
807	3471.3	
807.18	4614.8	
807.35	4792.2	
807.53	3461.7	
807.7	2889	
807.87	5369.1	
808.05	4582.7	
808.22	3756	
808.4	2897.2	
808.57	4532.8	
808.74	4293.9	
808.92	3160.7	
809.09	3906.8	
809.27	4532.8	
809.44	4849.6	
809.61	2856.2	
809.79	3146.4	
809.96	5485.8	
810.14	5036	
810.31	2836.4	
810.48	3364.1	
810.66	4577.9	
810.83	5109.7	
811.01	3196.9	
811.18	3486.3	
811.35	5131.5	
811.53	4120.5	
811.7	3760.8	
811.87	3464.5	
812.05	4564.9	
812.22	4439.3	
812.39	3087	
812.57	3037.8	
812.74	4559.5	
812.92	5771.2	
813.09	3366.2	
813.26	3531.4	
813.44	5512.4	
813.61	4463.9	
813.78	2891.7	
813.96	3563.5	
814.13	4589.5	
814.3	4372.4	
814.48	3964.2	
814.65	3261	
814.82	5383.4	
815	4328.7	
815.17	3413.3	
815.34	4100	
815.52	4506.2	
815.69	4507.6	
815.87	3341.6	
816.04	3297.2	
816.21	4517.1	
816.38	4123.9	
816.56	3292.5	
816.73	3067.2	
816.9	5560.9	
817.08	4990.2	
817.25	3110.2	
817.42	3693.9	
817.6	4166.3	
817.77	4442.7	
817.94	3424.2	
818.12	3024.8	
818.29	4353.3	
818.46	6220.4	
818.64	3200.3	
818.81	2999.6	
818.98	4332.1	
819.16	5776	
819.33	3588	
819.5	3403.7	
819.67	4830.5	
819.85	5276.3	
820.02	3307.5	
820.19	3512.3	
820.37	4679.6	
820.54	4405.9	
820.71	3426.9	
820.88	4203.8	
821.06	4679.6	
821.23	4354.7	
821.4	3414.6	
821.58	3446	
821.75	5055.1	
821.92	4630.5	
822.09	2837.1	
822.27	3091.8	
822.44	4547.2	
822.61	4461.2	
822.79	2908.8	
822.96	5006.6	
823.13	4782.7	
823.3	4246.1	
823.48	3249.4	
823.65	2960	
823.82	5115.1	
823.99	4220.2	
824.17	3951.2	
824.34	2968.2	
824.51	5746.6	
824.68	4586.1	
824.86	3132.7	
825.03	3429.7	
825.2	4530.8	
825.37	5297.4	
825.55	3118.4	
825.72	3323.9	
825.89	5670.8	
826.06	5315.2	
826.24	3274	
826.41	3329.3	
826.58	5378	
826.75	4761.5	
826.92	2710.1	
827.1	2957.9	
827.27	6913.9	
827.44	5564.3	
827.61	3117.7	
827.79	3737.5	
827.96	4364.9	
828.13	4561.5	
828.3	3266.5	
828.47	2776.4	
828.65	4816.1	
828.82	4663.9	
828.99	4053.6	
829.16	3516.4	
829.34	5027.8	
829.51	4900.1	
829.68	3358	
829.85	3425.6	
830.02	5307	
830.2	5019.6	
830.37	2701.3	
830.54	3969	
830.71	5610.8	
830.88	4519.2	
831.05	2697.9	
831.23	3031	
831.4	5404.6	
831.57	5876.3	
831.74	3105.4	
831.91	2794.1	
832.09	4777.2	
832.26	4986.8	
832.43	3233.7	
832.6	3567.6	
832.77	4853	
832.94	5250.3	
833.12	2635.1	
833.29	3187.3	
833.46	4863.9	
833.63	6006.7	
833.8	3418.7	
833.97	3194.1	
834.15	5026.4	
834.32	4847.5	
834.49	3340.9	
834.66	3374.4	
834.83	5102.2	
835	4401.1	
835.17	3131.3	
835.35	3109.5	
835.52	4918.5	
835.69	4857.8	
835.86	3257	
836.03	2704	
836.2	4997.7	
836.37	4688.5	
836.55	3198.2	
836.72	3016	
836.89	4673.5	
837.06	5094.7	
837.23	3291.8	
837.4	3495.2	
837.57	5628.5	
837.75	6002.6	
837.92	2967.5	
838.09	3142.9	
838.26	4693.9	
838.43	5216.2	
838.6	3343	
838.77	3016	
838.94	5767.8	
839.11	5618.9	
839.29	3191.4	
839.46	2622.1	
839.63	5033.2	
839.8	4743.8	
839.97	3123.8	
840.14	3057.6	
840.31	4894.6	
840.48	5021.6	
840.65	2630.3	
840.82	3071.3	
841	4913.1	
841.17	4889.2	
841.34	2904.7	
841.51	2939.5	
841.68	4911.7	
841.85	4757.4	
842.02	2953.2	
842.19	2581.1	
842.36	4828.4	
842.53	4829.8	
842.7	2866.5	
842.87	3394.8	
843.05	6027.9	
843.22	4704.2	
843.39	2755.2	
843.56	3004.4	
843.73	4650.3	
843.9	5035.3	
844.07	4425	
844.24	3697.9	
844.41	6744.6	
844.58	4379.9	
844.75	2776.4	
844.92	3033.7	
845.09	5008	
845.26	4909	
845.43	2869.9	
845.6	3013.2	
845.77	4973.8	
845.94	4746.5	
846.12	3156.6	
846.29	3235.1	
846.46	5171.1	
846.63	4955.4	
846.8	2881.5	
846.97	3358	
847.14	5328.1	
847.31	4866	
847.48	3171.6	
847.65	3446.7	
847.82	5108.3	
847.99	5079.6	
848.16	3670.6	
848.33	3446.7	
848.5	4576.5	
848.67	5284.4	
848.84	2829.6	
849.01	2928.6	
849.18	4575.2	
849.35	4337.6	
849.52	3489.7	
849.69	2782.5	
849.86	5175.2	
850.03	5132.2	
850.2	2836.4	
850.37	3408.5	
850.54	5147.2	
850.71	4706.2	
850.88	3368.9	
851.05	2813.9	
851.22	4868.7	
851.39	5317.2	
851.56	2686.9	
851.73	3211.9	
851.9	4446.8	
852.07	5107.6	
852.24	3126.6	
852.41	2778.4	
852.58	4904.2	
852.75	4500.8	
852.92	3176.4	
853.09	2796.8	
853.26	4670.7	
853.43	5196.4	
853.6	2849.4	
853.77	2464.4	
853.94	5352.7	
854.11	4401.8	
854.28	4029.7	
854.44	3096.5	
854.61	5645.6	
854.78	5141.8	
854.95	2841.9	
855.12	3454.9	
855.29	4128	
855.46	5523.4	
855.63	2869.2	
855.8	3803.8	
855.97	4616.8	
856.14	5214.1	
856.31	3843.4	
856.48	3050.1	
856.65	4635.9	
856.82	4435.2	
856.99	2788	
857.16	3032.4	
857.33	5762.3	
857.49	4704.2	
857.66	3037.1	
857.83	3180.5	
858	4724	
858.17	4825.7	
858.34	2686.9	
858.51	2848.7	
858.68	5368.4	
858.85	5421	
859.02	3254.9	
859.19	3435.8	
859.36	4472.1	
859.52	4405.9	
859.69	2854.9	
859.86	3250.8	
860.03	4491.2	
860.2	5305.6	
860.37	2608.4	
860.54	2875.3	
860.71	5115.1	
860.88	5431.2	
861.05	3152.5	
861.21	3508.9	
861.38	5326.1	
861.55	4285.7	
861.72	2630.3	
861.89	3125.2	
862.06	5104.2	
862.23	5451	
862.4	2785.9	
862.56	2929.3	
862.73	5015.5	
862.9	4737.6	
863.07	3198.9	
863.24	2599.6	
863.41	4382.7	
863.58	4433.2	
863.75	2908.8	
863.91	3210.5	
864.08	5221.6	
864.25	4963.6	
864.42	3398.3	
864.59	3801	
864.76	5502.9	
864.93	4379.9	
865.09	2829.6	
865.26	3001.6	
865.43	5316.5	
865.6	5513.1	
865.77	2488.3	
865.94	2827.6	
866.1	5208.7	
866.27	5003.2	
866.44	4093.9	
866.61	2753.2	
866.78	4715.8	
866.95	5003.9	
867.11	2805	
867.28	2557.2	
867.45	5193	
867.62	4429.8	
867.79	3206.4	
867.96	2868.5	
868.12	4374.5	
868.29	5068.7	
868.46	2846	
868.63	3620.1	
868.8	5141.1	
868.97	5059.8	
869.13	2981.2	
869.3	2932.7	
869.47	4973.2	
869.64	5110.4	
869.81	2843.3	
869.97	2874.7	
870.14	4820.9	
870.31	5364.3	
870.48	2755.9	
870.65	3454.9	
870.81	4671.4	
870.98	4699.4	
871.15	3142.9	
871.32	2962	
871.48	4941.1	
871.65	5382.1	
871.82	2738.1	
871.99	3078.1	
872.16	5711.8	
872.32	5210	
872.49	2887	
872.66	2803	
872.83	5121.3	
872.99	4530.1	
873.16	3224.9	
873.33	2792.1	
873.5	4829.1	
873.67	4842.1	
873.83	2916.3	
874	3668.6	
874.17	4869.4	
874.34	5580	
874.5	3525.2	
874.67	3433.1	
874.84	5272.2	
875.01	4298.7	
875.17	3819.5	
875.34	2804.4	
875.51	4830.5	
875.68	5733.6	
875.84	3345	
876.01	3988.1	
876.18	5086.5	
876.34	5049.6	
876.51	2779.8	
876.68	2762	
876.85	4659.8	
877.01	5232.6	
877.18	3905.5	
877.35	2831.7	
877.52	4838	
877.68	4375.8	
877.85	2783.9	
878.02	2796.2	
878.18	4697.4	
878.35	4551.3	
878.52	2308.7	
878.69	3099.3	
878.85	5153.4	
879.02	5014.8	
879.19	3915	
879.35	2962	
879.52	5039.4	
879.69	5139	
879.86	2534.7	
880.02	3099.3	
880.19	4698.7	
880.36	5559.6	
880.52	3179.8	
880.69	3279.5	
880.86	5079.6	
881.02	5055.8	
881.19	3060.3	
881.36	3021.4	
881.52	4990.2	
881.69	4452.3	
881.86	3005.1	
882.02	2954.5	
882.19	5206.6	
882.36	5980.1	
882.52	2880.1	
882.69	3861.1	
882.86	4869.4	
883.02	4804.5	
883.19	3323.2	
883.36	3108.8	
883.52	5092.6	
883.69	5702.2	
883.86	2843.9	
884.02	2638.5	
884.19	5065.3	
884.36	4760.2	
884.52	3149.8	
884.69	3020.1	
884.86	4569.7	
885.02	5459.2	
885.19	3113.6	
885.36	3207.8	
885.52	4721.9	
885.69	4858.5	
885.86	3893.9	
886.02	3497.2	
886.19	5107.6	
886.35	4583.4	
886.52	3089.7	
886.69	3787.4	
886.85	4416.1	
887.02	5309.7	
887.19	5309.7	
887.35	5309.7	
887.52	5309.7	
887.68	5309.7	
887.85	5309.7	
888.02	5309.7	
888.18	5309.7	
888.35	5309.7	
888.51	5309.7	
888.68	5309.7	
888.85	5309.7	
889.01	5309.7	
889.18	5309.7	
889.35	5309.7	
889.51	5309.7	
889.68	5309.7	
889.84	5309.7	
890.01	5309.7	
890.17	5309.7	
890.34	5309.7	
890.51	5309.7	
890.67	5309.7	
890.84	5309.7	
891	5309.7	
891.17	5309.7	
891.34	5309.7	
891.5	5309.7	
891.67	5309.7	
891.83	5309.7	
892	5309.7	
892.16	5309.7	
892.33	5309.7	
892.5	5309.7	
892.66	5309.7	
892.83	5309.7	
892.99	5309.7	
893.16	5309.7	
893.32	5309.7	
893.49	5309.7	
893.65	5309.7	
893.82	5309.7	
893.99	5309.7	
894.15	5309.7	
894.32	5309.7	
894.48	5309.7	
894.65	5309.7	
894.81	5309.7	
894.98	5309.7	
895.14	5309.7	
895.31	5309.7	
895.47	5309.7	
895.64	5309.7	
895.81	5309.7	
895.97	5309.7	
896.14	5309.7	
896.3	5309.7	
896.47	5309.7	
896.63	5309.7	
896.8	5309.7	
896.96	5309.7	
897.13	5309.7	
897.29	5309.7	
897.46	5309.7	
897.62	5309.7	
897.79	5309.7	
897.95	5309.7	
898.12	5309.7	
898.28	5309.7	
898.45	5309.7	
898.61	5309.7	
898.78	5309.7	
898.94	5309.7	
899.11	5309.7	
899.27	5309.7	
899.44	5309.7	
899.6	5309.7	
899.77	5309.7	
899.93	5309.7	
900.1	5309.7	
900.26	5309.7	
900.43	5309.7	
900.59	5309.7	
900.76	5309.7	
900.92	5309.7	
901.09	5309.7	
901.25	5309.7	
901.42	5309.7	
901.58	5309.7	
901.75	5309.7	
901.91	5309.7	
902.07	5309.7	
902.24	5309.7	
902.4	5309.7	
902.57	5309.7	
902.73	5309.7	
902.9	5309.7	
903.06	5309.7	
903.23	5309.7	
903.39	5309.7	
903.56	5309.7	
903.72	5309.7	
903.88	5309.7	
904.05	5309.7	
904.21	5309.7	
904.38	5309.7	
904.54	5309.7	
904.71	5309.7	
904.87	5309.7	
905.03	5309.7	
905.2	5309.7	
905.36	5309.7	
905.53	5309.7	
905.69	5309.7	
905.86	5309.7	
906.02	5309.7	
906.18	5309.7	
906.35	5309.7	
906.51	5309.7	
906.68	5309.7	
906.84	5309.7	
907.01	5309.7	
907.17	5309.7	
907.33	5309.7	
907.5	5309.7	
907.66	5309.7	
907.83	5309.7	
907.99	5309.7	
908.15	5309.7	
908.32	5309.7	
908.48	5309.7	
908.65	5309.7	
908.81	5309.7	
908.97	5309.7	
909.14	5309.7	
909.3	5309.7	
909.47	5309.7	
909.63	5309.7	
909.79	5309.7	
909.96	5309.7	
910.12	5309.7	
910.28	5309.7	
910.45	5309.7	
910.61	5309.7	
910.78	5309.7	
910.94	5309.7	
911.1	5309.7	
911.27	5309.7	
911.43	5309.7	
911.59	5309.7	
911.76	5309.7	
911.92	5309.7	
912.08	5309.7	
912.25	5309.7	
912.41	5309.7	
912.57	5309.7	
912.74	5309.7	
912.9	5309.7	
913.07	5309.7	
913.23	5309.7	
913.39	5309.7	
913.56	5309.7	
913.72	5309.7	
913.88	5309.7	
914.05	5309.7	
914.21	5309.7	
914.37	5309.7	
914.54	5309.7	
914.7	5309.7	
914.86	5309.7	
915.03	5309.7	
915.19	5309.7	
