Wavelength	Intensities	
nm	a.u.	
179.22	1928.7	
179.44	1924.7	
179.65	1932.6	
179.86	1916.9	
180.08	1927.8	
180.29	4934.9	
180.51	3474.7	
180.72	5629.9	
180.94	6657.9	
181.15	3188.7	
181.37	3206.4	
181.58	5526.8	
181.79	5797.1	
182.01	3339.6	
182.22	3654.3	
182.44	5767.8	
182.65	4835.3	
182.87	4578.6	
183.08	4042	
183.29	6073.6	
183.51	5021.6	
183.72	3659.7	
183.94	5368.4	
184.15	5412.1	
184.37	5471.5	
184.58	3196.9	
184.79	4406.5	
185.01	4970.4	
185.22	5732.3	
185.44	4715.1	
185.65	3955.3	
185.86	5253.7	
186.08	4957.4	
186.29	3074.7	
186.51	3424.9	
186.72	5026.4	
186.94	5964.4	
187.15	3882.3	
187.36	4027	
187.58	7761.1	
187.79	5522	
188.01	4178.5	
188.22	6532.3	
188.43	6580.8	
188.65	5747.3	
188.86	3330	
189.08	4018.8	
189.29	5244.2	
189.5	5196.4	
189.72	3781.9	
189.93	3801.7	
190.15	5887.2	
190.36	7124.9	
190.57	4147.1	
190.79	3993.5	
191	6043.6	
191.22	5982.8	
191.43	4078.9	
191.64	3305.4	
191.86	6261.3	
192.07	5978.7	
192.29	3543	
192.5	3693.9	
192.71	5997.8	
192.93	5147.9	
193.14	3681.6	
193.35	3784	
193.57	5170.4	
193.78	5932.3	
194	2971.6	
194.21	3674.1	
194.42	4931.5	
194.64	5471.5	
194.85	4019.5	
195.07	4758.8	
195.28	5416.9	
195.49	4700.8	
195.71	4973.2	
195.92	3485.6	
196.13	5647.6	
196.35	5756.8	
196.56	5350	
196.78	4037.2	
196.99	7073.7	
197.2	6551.5	
197.42	4697.4	
197.63	4070.7	
197.84	4913.8	
198.06	5595.1	
198.27	3693.9	
198.48	5018.2	
198.7	5160.9	
198.91	5279.7	
199.13	4052.9	
199.34	4064.5	
199.55	5857.9	
199.77	4709.6	
199.98	3540.3	
200.19	4088.4	
200.41	5295.4	
200.62	5040.7	
200.83	4207.2	
201.05	4549.9	
201.26	5285.1	
201.47	5067.4	
201.69	3621.5	
201.9	3490.4	
202.11	5339.7	
202.33	6376	
202.54	3875.4	
202.76	4320.5	
202.97	5572.5	
203.18	5543.2	
203.4	4221.5	
203.61	4099.4	
203.82	5522.7	
204.04	5125.4	
204.25	4113	
204.46	4046.1	
204.68	5464	
204.89	5704.3	
205.1	3950.5	
205.32	3437.9	
205.53	5876.3	
205.74	5986.9	
205.96	2901.3	
206.17	4169	
206.38	5813.5	
206.6	5925.5	
206.81	4599.1	
207.02	3829.7	
207.24	5643.5	
207.45	6120.7	
207.66	3936.2	
207.88	3340.9	
208.09	5637.4	
208.3	5406.6	
208.52	3577.1	
208.73	3900	
208.94	5413.5	
209.15	6192.4	
209.37	3902.1	
209.58	4020.2	
209.79	5930.2	
210.01	5189.6	
210.22	3120.4	
210.43	3245.3	
210.65	5440.8	
210.86	5791	
211.07	3895.9	
211.29	3568.9	
211.5	5771.9	
211.71	5344.5	
211.93	3562.8	
212.14	3534.1	
212.35	5355.4	
212.56	5597.1	
212.78	4138.3	
212.99	3360	
213.2	6390.3	
213.42	5164.3	
213.63	3717.1	
213.84	3947.8	
214.06	4781.3	
214.27	4885.8	
214.48	3794.9	
214.69	4212.7	
214.91	6107.7	
215.12	6173.3	
215.33	4176.5	
215.55	4630.5	
215.76	6694.8	
215.97	5737.7	
216.18	3992.9	
216.4	3910.3	
216.61	5117.9	
216.82	5942.5	
217.04	3579.2	
217.25	3701.4	
217.46	6111.8	
217.67	5864	
217.89	3198.2	
218.1	3278.1	
218.31	5509.7	
218.53	5603.9	
218.74	3749.8	
218.95	3604.4	
219.16	5389.6	
219.38	6410.8	
219.59	3644.7	
219.8	4298	
220.01	7062.1	
220.23	5427.8	
220.44	4778.6	
220.65	3553.9	
220.87	5433.9	
221.08	6072.2	
221.29	3297.2	
221.5	4422.2	
221.72	7395.2	
221.93	5101.5	
222.14	4052.2	
222.35	4845.5	
222.57	5472.2	
222.78	5769.8	
222.99	3926	
223.2	4162.8	
223.42	5745.9	
223.63	5859.9	
223.84	3022.8	
224.05	2996.9	
224.27	6936.5	
224.48	6339.1	
224.69	4817.5	
224.9	4063.2	
225.12	5604.6	
225.33	5407.3	
225.54	3302.7	
225.75	3679.5	
225.97	4958.8	
226.18	5293.3	
226.39	3941	
226.6	3645.4	
226.82	5169.1	
227.03	5085.1	
227.24	4057	
227.45	3348.4	
227.67	5800.5	
227.88	6341.2	
228.09	4509.6	
228.3	4562.2	
228.52	5887.2	
228.73	5451.7	
228.94	3750.5	
229.15	3364.8	
229.36	5308.3	
229.58	5281	
229.79	3830.4	
230	4481.6	
230.21	6441.5	
230.43	5569.1	
230.64	4041.3	
230.85	4235.2	
231.06	5873.6	
231.28	5872.9	
231.49	3388.7	
231.7	4001	
231.91	5717.2	
232.12	5449	
232.34	3472.7	
232.55	3953.9	
232.76	6048.3	
232.97	5625.1	
233.18	3577.1	
233.4	4027.7	
233.61	5646.2	
233.82	5180.7	
234.03	3730	
234.25	3706.1	
234.46	7481.9	
234.67	5472.2	
234.88	4171.7	
235.09	3672.7	
235.31	5681.1	
235.52	5298.1	
235.73	4089.8	
235.94	3384.6	
236.15	5167.7	
236.37	6612.2	
236.58	3573	
236.79	3951.9	
237	5699.5	
237.21	4939.7	
237.43	4202.4	
237.64	3375.1	
237.85	9978.4	
238.06	4984.1	
238.27	4279.6	
238.48	3404.4	
238.7	5788.2	
238.91	5252.4	
239.12	3845.4	
239.33	4002.4	
239.54	5030.5	
239.76	5354.1	
239.97	3867.9	
240.18	3902.7	
240.39	6809.5	
240.6	5776	
240.82	3985.3	
241.03	3330.7	
241.24	5427.8	
241.45	6283.9	
241.66	3591.5	
241.87	4252.3	
242.09	6155.5	
242.3	6509.1	
242.51	4269.3	
242.72	3917.1	
242.93	5870.8	
243.14	5409.4	
243.36	4483	
243.57	4923.3	
243.78	6296.1	
243.99	5754.8	
244.2	3956.7	
244.41	3536.2	
244.63	5033.9	
244.84	5730.9	
245.05	4203.1	
245.26	3938.9	
245.47	5651.7	
245.68	6007.4	
245.9	5285.8	
246.11	4108.2	
246.32	5321.3	
246.53	5665.4	
246.74	6320.7	
246.95	3265.1	
247.16	4920.6	
247.38	5431.9	
247.59	3332.7	
247.8	3947.1	
248.01	5100.1	
248.22	5357.5	
248.43	3533.4	
248.64	3775.1	
248.86	4772.4	
249.07	5221	
249.28	3497.2	
249.49	4032.5	
249.7	5966.4	
249.91	6138.4	
250.12	3300	
250.34	3308.8	
250.55	5526.1	
250.76	5447.6	
250.97	4023.6	
251.18	4121.2	
251.39	6109.1	
251.6	5606.7	
251.81	4141	
252.03	4193.6	
252.24	5142.4	
252.45	5936.4	
252.66	3426.3	
252.87	4310.3	
253.08	5474.9	
253.29	7185.6	
253.5	3435.1	
253.72	4705.5	
253.93	5285.1	
254.14	6490	
254.35	3721.2	
254.56	3853.6	
254.77	5613.5	
254.98	4999.8	
255.19	3687.7	
255.41	4766.3	
255.62	5498.1	
255.83	6096.1	
256.04	4197	
256.25	4104.8	
256.46	6678.4	
256.67	5102.9	
256.88	4003.1	
257.09	4516.5	
257.31	5084.4	
257.52	5151.3	
257.73	5066	
257.94	3681.6	
258.15	5309.7	
258.36	5429.2	
258.57	4709	
258.78	3001.6	
258.99	5900.2	
259.2	5262.6	
259.41	3743.7	
259.63	3796.3	
259.84	6212.9	
260.05	6740.5	
260.26	4899.4	
260.47	3639.9	
260.68	6006.7	
260.89	5373.9	
261.1	4481.6	
261.31	3580.5	
261.52	6008.1	
261.73	6448.4	
261.95	4780.6	
262.16	4192.2	
262.37	6125.5	
262.58	6210.1	
262.79	4805.2	
263	3786	
263.21	5462.6	
263.42	4960.2	
263.63	3840.6	
263.84	3743	
264.05	6057.2	
264.26	6331	
264.47	4700.8	
264.69	4237.2	
264.9	6180.8	
265.11	5678.3	
265.32	3566.9	
265.53	3706.1	
265.74	5591	
265.95	4837.3	
266.16	4030.4	
266.37	4429.8	
266.58	5618.3	
266.79	5257.8	
267	3651.5	
267.21	3369.6	
267.42	5033.9	
267.63	5408.7	
267.84	3954.6	
268.06	3307.5	
268.27	5844.2	
268.48	6146	
268.69	3827	
268.9	4549.2	
269.11	6189	
269.32	4941.7	
269.53	3880.9	
269.74	3583.3	
269.95	5755.5	
270.16	4817.5	
270.37	3938.2	
270.58	4531.5	
270.79	5289.2	
271	5969.1	
271.21	4181.3	
271.42	3945.8	
271.63	5561.6	
271.84	5059.2	
272.05	3139.5	
272.26	3553.2	
272.47	5464	
272.68	5662	
272.89	3756.7	
273.11	4287.8	
273.32	5274.9	
273.53	6456.6	
273.74	4246.8	
273.95	4102.8	
274.16	6055.2	
274.37	5497.4	
274.58	4298	
274.79	3407.1	
275	5575.3	
275.21	6111.1	
275.42	5074.2	
275.63	4427.7	
275.84	5709.7	
276.05	7163.8	
276.26	4086.4	
276.47	3838.6	
276.68	5292.6	
276.89	6391.7	
277.1	4469.4	
277.31	3457.7	
277.52	5728.9	
277.73	5842.9	
277.94	3370.3	
278.15	3816	
278.36	5602.6	
278.57	5069.4	
278.78	3777.1	
278.99	4210.6	
279.2	5073.5	
279.41	5068.7	
279.62	5006.6	
279.83	3467.2	
280.04	6619	
280.25	5028.4	
280.46	4905.6	
280.67	3953.3	
280.88	5040.1	
281.09	6098.9	
281.3	4123.2	
281.51	5195.7	
281.72	5941.2	
281.93	5979.4	
282.14	3674.7	
282.35	3889.8	
282.56	5956.2	
282.77	5937.1	
282.98	3768.9	
283.19	4634.6	
283.4	7299.6	
283.61	5375.2	
283.82	3499.3	
284.03	4902.8	
284.24	5543.9	
284.45	6131.6	
284.66	4825	
284.87	4716.5	
285.08	6044.2	
285.29	6219	
285.5	3323.9	
285.71	3803.8	
285.92	6081.8	
286.12	6743.3	
286.33	4829.8	
286.54	3790.8	
286.75	5940.5	
286.96	5307	
287.17	3485	
287.38	4759.5	
287.59	5080.3	
287.8	4980	
288.01	3884.3	
288.22	4394.9	
288.43	5970.5	
288.64	5020.3	
288.85	4585.4	
289.06	4341.7	
289.27	6142.5	
289.48	6371.9	
289.69	4872.1	
289.9	4404.5	
290.11	6098.2	
290.32	5154.1	
290.53	4675.5	
290.74	4347.8	
290.94	5933.6	
291.15	5951.4	
291.36	3713.6	
291.57	4428.4	
291.78	5113.1	
291.99	4857.1	
292.2	3544.4	
292.41	4258.4	
292.62	6032	
292.83	5773.2	
293.04	5227.1	
293.25	3523.2	
293.46	5207.3	
293.67	6094.8	
293.88	3683.6	
294.09	3560.1	
294.29	4938.3	
294.5	5601.9	
294.71	3988.8	
294.92	3823.6	
295.13	5224.4	
295.34	6588.3	
295.55	3306.1	
295.76	3356.6	
295.97	5793	
296.18	6634.7	
296.39	3469.9	
296.6	3703.4	
296.81	5550	
297.01	5803.9	
297.22	3818.1	
297.43	3669.3	
297.64	5079.6	
297.85	5177.9	
298.06	3024.8	
298.27	3261.7	
298.48	5499.5	
298.69	5121.3	
298.9	3980.6	
299.11	3638.6	
299.31	4947.9	
299.52	4976.6	
299.73	4281.6	
299.94	4111.6	
300.15	5409.4	
300.36	5055.8	
300.57	4219.5	
300.78	4134.8	
300.99	5356.1	
301.2	5548.6	
301.4	3644	
301.61	3944.4	
301.82	5780.1	
302.03	5851.7	
302.24	4505.5	
302.45	3485.6	
302.66	5782.1	
302.87	6253.1	
303.08	3689.1	
303.29	5055.1	
303.49	5143.1	
303.7	5483.8	
303.91	3241.9	
304.12	4818.2	
304.33	4946.5	
304.54	5610.8	
304.75	3693.9	
304.96	3484.3	
305.16	5748.6	
305.37	6520.7	
305.58	3196.2	
305.79	3295.2	
306	5760.3	
306.21	4874.8	
306.42	3715	
306.63	5594.4	
306.83	5307	
307.04	6047.7	
307.25	4044.7	
307.46	4053.6	
307.67	4646.2	
307.88	5985.5	
308.09	3625.6	
308.29	3761.4	
308.5	5528.2	
308.71	6027.9	
308.92	3969	
309.13	3517.7	
309.34	5332.2	
309.55	5354.8	
309.75	4595.6	
309.96	4195.6	
310.17	5869.5	
310.38	5139.7	
310.59	4410	
310.8	3431.7	
311.01	6421.1	
311.21	5306.3	
311.42	3481.5	
311.63	3645.4	
311.84	5218.9	
312.05	5573.2	
312.26	4115.1	
312.46	4446.8	
312.67	5313.8	
312.88	4952	
313.09	3543	
313.3	3469.9	
313.51	6287.3	
313.71	6586.3	
313.92	3562.1	
314.13	3753.9	
314.34	5643.5	
314.55	5413.5	
314.76	4578.6	
314.96	4002.4	
315.17	5524.1	
315.38	5954.1	
315.59	3547.1	
315.8	3377.1	
316.01	6354.8	
316.21	6376.7	
316.42	3452.9	
316.63	3938.9	
316.84	5347.9	
317.05	6144.6	
317.26	4272.7	
317.46	3788.7	
317.67	5399.1	
317.88	5872.9	
318.09	4483.7	
318.3	3300	
318.5	5193	
318.71	5819	
318.92	5745.2	
319.13	4167.6	
319.34	5990.3	
319.54	6095.4	
319.75	3284.9	
319.96	3180.5	
320.17	5883.8	
320.38	6092	
320.58	3257.6	
320.79	3910.3	
321	6018.3	
321.21	6098.9	
321.42	3919.1	
321.62	3308.2	
321.83	5091.9	
322.04	5488.6	
322.25	3753.2	
322.46	3570.3	
322.66	5598.5	
322.87	5750.7	
323.08	4437.3	
323.29	3523.2	
323.5	6531.7	
323.7	4968.4	
323.91	4886.5	
324.12	4331.5	
324.33	5565	
324.53	5740.5	
324.74	4225.6	
324.95	4479.6	
325.16	4830.5	
325.37	5328.8	
325.57	3574.4	
325.78	3654.9	
325.99	5480.4	
326.2	4952	
326.4	5188.9	
326.61	3304.7	
326.82	5418.2	
327.03	5558.2	
327.24	5128.8	
327.44	4777.2	
327.65	5738.4	
327.86	4632.5	
328.07	4194.2	
328.27	3404.4	
328.48	6116.6	
328.69	5039.4	
328.9	5085.8	
329.1	3820.8	
329.31	5303.6	
329.52	6272.9	
329.73	3604.4	
329.93	4021.5	
330.14	5451.7	
330.35	5703.6	
330.56	5882.4	
330.76	4448.9	
330.97	5197.1	
331.18	5611.4	
331.39	3994.2	
331.59	3218	
331.8	5981.4	
332.01	6162.3	
332.22	3717.7	
332.42	4269.3	
332.63	5606	
332.84	5159.5	
333.05	3990.1	
333.25	3635.1	
333.46	5204.6	
333.67	5485.8	
333.88	3726.6	
334.08	4118.5	
334.29	7306.5	
334.5	6062.7	
334.7	3429.7	
334.91	5051	
335.12	4999.1	
335.33	5877	
335.53	3945.1	
335.74	5872.9	
335.95	5243.5	
336.16	5102.2	
336.36	3971.7	
336.57	4541.7	
336.78	4949.3	
336.98	6050.4	
337.19	4863.9	
337.4	3941	
337.61	6622.4	
337.81	5022.3	
338.02	3640.6	
338.23	4760.2	
338.43	6209.4	
338.64	5093.3	
338.85	3606.5	
339.05	4670.7	
339.26	6335	
339.47	4870.8	
339.68	3543.7	
339.88	5274.9	
340.09	5737	
340.3	5976.7	
340.5	4149.2	
340.71	3227.6	
340.92	4960.2	
341.13	6154.8	
341.33	3487	
341.54	4226.3	
341.75	5735	
341.95	5317.2	
342.16	4058.4	
342.37	4376.5	
342.57	5082.4	
342.78	5401.2	
342.99	4481	
343.19	3248.8	
343.4	5907.7	
343.61	5672.2	
343.81	3812.6	
344.02	3543.7	
344.23	5829.9	
344.43	6330.3	
344.64	4456.4	
344.85	4378.6	
345.06	5698.1	
345.26	6092	
345.47	4152.6	
345.68	4881	
345.88	4792.2	
346.09	5948.7	
346.3	4207.2	
346.5	3147.7	
346.71	5477.6	
346.92	5151.3	
347.12	3243.3	
347.33	4088.4	
347.54	6014.9	
347.74	6399.9	
347.95	4026.3	
348.16	3007.8	
348.36	5261.9	
348.57	4975.9	
348.78	4090.5	
348.98	4397.7	
349.19	5328.8	
349.39	4958.8	
349.6	3306.8	
349.81	3665.2	
350.01	5684.5	
350.22	5119.9	
350.43	3971.7	
350.63	4742.4	
350.84	5563.6	
351.05	5308.3	
351.25	3571.7	
351.46	3231	
351.67	6051.7	
351.87	5152	
352.08	3839.3	
352.29	4455	
352.49	5984.2	
352.7	6012.8	
352.9	3515.7	
353.11	4371	
353.32	6564.4	
353.52	5208	
353.73	3379.1	
353.94	4407.9	
354.14	5745.9	
354.35	5618.9	
354.55	3519.8	
354.76	3948.5	
354.97	5700.2	
355.17	5498.1	
355.38	3368.9	
355.59	4648.9	
355.79	5102.9	
356	5584.8	
356.2	3876.1	
356.41	3446.7	
356.62	4873.5	
356.82	5400.5	
357.03	4188.1	
357.24	3825.6	
357.44	5150	
357.65	5267.4	
357.85	5077.6	
358.06	4009.9	
358.27	4859.8	
358.47	5073.5	
358.68	3284.9	
358.88	4151.9	
359.09	5727.5	
359.3	6053.1	
359.5	4898.1	
359.71	4316.4	
359.91	6522.1	
360.12	5860.6	
360.33	4136.2	
360.53	4661.9	
360.74	5132.2	
360.94	5208.7	
361.15	4335.5	
361.36	3590.1	
361.56	5922.7	
361.77	5404.6	
361.97	4866.7	
362.18	3842	
362.38	5971.9	
362.59	5013.4	
362.8	3588.7	
363	3368.2	
363.21	4795	
363.41	5636.7	
363.62	4057.7	
363.83	5109	
364.03	5608.7	
364.24	6535.1	
364.44	5210	
364.65	5100.1	
364.85	5332.2	
365.06	4941.7	
365.27	3687	
365.47	3695.9	
365.68	6317.3	
365.88	5279	
366.09	4134.8	
366.29	3838.6	
366.5	5583.4	
366.71	6030.6	
366.91	5092.6	
367.12	4309.6	
367.32	6596.5	
367.53	5857.2	
367.73	4251.6	
367.94	5196.4	
368.14	5774.6	
368.35	6669.6	
368.56	4266.6	
368.76	3570.3	
368.97	5863.3	
369.17	7628.7	
369.38	3696.6	
369.58	3957.4	
369.79	4912.4	
369.99	6311.8	
370.2	5033.2	
370.4	3998.3	
370.61	5552.7	
370.82	6784.2	
371.02	3997.6	
371.23	3265.8	
371.43	4841.4	
371.64	6210.1	
371.84	3990.8	
372.05	5196.4	
372.25	7558.4	
372.46	5893.4	
372.66	4006.5	
372.87	3930.7	
373.07	5967.1	
373.28	7529.7	
373.48	5033.9	
373.69	4693.3	
373.9	5403.9	
374.1	5416.2	
374.31	4843.4	
374.51	4412.7	
374.72	6245.6	
374.92	5095.3	
375.13	5104.9	
375.33	4248.9	
375.54	5779.4	
375.74	5304.2	
375.95	4313	
376.15	5583.4	
376.36	5803.9	
376.56	5612.1	
376.77	4415.4	
376.97	4819.6	
377.18	6832	
377.38	5913.9	
377.59	5184.1	
377.79	3886.4	
378	5686.5	
378.2	6195.8	
378.41	3987.4	
378.61	3852.9	
378.82	6144.6	
379.02	5266.7	
379.23	4147.8	
379.43	5281	
379.64	6160.3	
379.84	5912.5	
380.05	3879.5	
380.25	3889.8	
380.46	6044.2	
380.66	5537.7	
380.87	5231.2	
381.07	5631.9	
381.28	6604.7	
381.48	6019	
381.69	3979.2	
381.89	4012	
382.1	4945.8	
382.3	6217.6	
382.51	5130.8	
382.71	6061.3	
382.91	6031.3	
383.12	6541.2	
383.32	4321.2	
383.53	4610	
383.73	5905	
383.94	5652.4	
384.14	4472.1	
384.35	3650.2	
384.55	5593.7	
384.76	6067.4	
384.96	4356.7	
385.17	4683.7	
385.37	5999.9	
385.58	5268.1	
385.78	4686.4	
385.98	3531.4	
386.19	5500.2	
386.39	5842.2	
386.6	4068.6	
386.8	4333.5	
387.01	5988.3	
387.21	5985.5	
387.42	4827.1	
387.62	5401.2	
387.83	5285.8	
388.03	6052.4	
388.23	4427	
388.44	5201.2	
388.64	4915.8	
388.85	5125.4	
389.05	4775.2	
389.26	5349.3	
389.46	6703.7	
389.67	6406.7	
389.87	4734.9	
390.07	4764.9	
390.28	5583.4	
390.48	5240.1	
390.69	3923.9	
390.89	4227.7	
391.1	5410.1	
391.3	6326.9	
391.5	5537.7	
391.71	6137.1	
391.91	6096.1	
392.12	7082.6	
392.32	5623	
392.53	4754.7	
392.73	5514.5	
392.93	5744.6	
393.14	4444.1	
393.34	5326.1	
393.55	6239.5	
393.75	5722	
393.95	4485.7	
394.16	4445.5	
394.36	5462.6	
394.57	6217	
394.77	3960.1	
394.98	4401.1	
395.18	5345.9	
395.38	5444.9	
395.59	5187.5	
395.79	4132.1	
396	5499.5	
396.2	5978	
396.4	5053.7	
396.61	4949.3	
396.81	6227.2	
397.02	5437.4	
397.22	5260.5	
397.42	5292.6	
397.63	6120.7	
397.83	5423	
398.04	4102.1	
398.24	4742.4	
398.44	5963	
398.65	4992.3	
398.85	3964.9	
399.05	4100.7	
399.26	5380.7	
399.46	7125.6	
399.67	4466.6	
399.87	4188.1	
400.07	5754.8	
400.28	6113.2	
400.48	4336.2	
400.69	5298.8	
400.89	6774	
401.09	6785.6	
401.3	4212.7	
401.5	5335.6	
401.7	6992.4	
401.91	7279.2	
402.11	4564.2	
402.32	4827.1	
402.52	6421.1	
402.72	6304.3	
402.93	5098.1	
403.13	3874.8	
403.33	7197.9	
403.54	5838.1	
403.74	4747.9	
403.94	5639.4	
404.15	5937.7	
404.35	7123.5	
404.56	4526	
404.76	6328.9	
404.96	6297.5	
405.17	6130.9	
405.37	5738.4	
405.57	4995	
405.78	6316.6	
405.98	5864.7	
406.18	4527.4	
406.39	5457.8	
406.59	6369.9	
406.79	6062	
407	4362.2	
407.2	4449.6	
407.4	6393.8	
407.61	6614.3	
407.81	4403.8	
408.01	6634.7	
408.22	5353.4	
408.42	7335.8	
408.62	5434.6	
408.83	4893.3	
409.03	5953.4	
409.23	5818.3	
409.44	5073.5	
409.64	5339.1	
409.84	6928.3	
410.05	6796.5	
410.25	5199.1	
410.45	4962.9	
410.66	6237.4	
410.86	8811	
411.06	5401.9	
411.27	5239.4	
411.47	8617.9	
411.67	6507.1	
411.88	5533.6	
412.08	5770.5	
412.28	7141.3	
412.49	7624.6	
412.69	5258.5	
412.89	5240.8	
413.09	7487.4	
413.3	7395.9	
413.5	5375.2	
413.7	5054.4	
413.91	6615.6	
414.11	7513.3	
414.31	5259.9	
414.52	5717.9	
414.72	7187	
414.92	7067.5	
415.12	5253	
415.33	5809.4	
415.53	7522.9	
415.73	7676.5	
415.94	6213.5	
416.14	5683.8	
416.34	6550.8	
416.55	6214.2	
416.75	6845.7	
416.95	6255.9	
417.15	7468.9	
417.36	8245.8	
417.56	7064.1	
417.76	6055.2	
417.97	7897.7	
418.17	7615	
418.37	5626.5	
418.57	5836	
418.78	7425.3	
418.98	7043.6	
419.18	6690.7	
419.38	6664.1	
419.59	7182.9	
419.79	6693.4	
419.99	5691.3	
420.2	6133	
420.4	7620.5	
420.6	7801.4	
420.8	5570.5	
421.01	5461.2	
421.21	7380.2	
421.41	7676.5	
421.61	6012.2	
421.82	5655.8	
422.02	6964.5	
422.22	7967.3	
422.42	6529.6	
422.63	6171.2	
422.83	7117.4	
423.03	8314.1	
423.23	6142.5	
423.44	5086.5	
423.64	7225.9	
423.84	6963.8	
424.04	5638.1	
424.25	5317.9	
424.45	8112	
424.65	8091.5	
424.85	5029.8	
425.06	5625.1	
425.26	8088.1	
425.46	6576	
425.66	6136.4	
425.87	5922.7	
426.07	7869.7	
426.27	7684	
426.47	6076.3	
426.67	5337	
426.88	8168	
427.08	7629.4	
427.28	6290.7	
427.48	5343.2	
427.69	6509.1	
427.89	7165.2	
428.09	6209.4	
428.29	5414.1	
428.5	7888.8	
428.7	7537.9	
428.9	5227.1	
429.1	5726.8	
429.3	7305.8	
429.51	7802.8	
429.71	5565	
429.91	6386.9	
430.11	7684	
430.31	8203.5	
430.52	5870.8	
430.72	6288.6	
430.92	8247.9	
431.12	7716.7	
431.32	5623	
431.53	5995.1	
431.73	6642.2	
431.93	8361.9	
432.13	5541.8	
432.33	5373.9	
432.54	7090.8	
432.74	7463.5	
432.94	5318.6	
433.14	6376	
433.34	7647.8	
433.55	7170.6	
433.75	6368.5	
433.95	8107.2	
434.15	7420.5	
434.35	7159.7	
434.56	5534.3	
434.76	5056.4	
434.96	7402	
435.16	7745.4	
435.36	5367	
435.56	6623.8	
435.77	7122.8	
435.97	7331	
436.17	7363.1	
436.37	6533.7	
436.57	7169.3	
436.78	7071.6	
436.98	8384.4	
437.18	7172	
437.38	7841	
437.58	7371.3	
437.78	7429.3	
437.99	5950.7	
438.19	7914.7	
438.39	8736	
438.59	5933.6	
438.79	5464	
438.99	8553	
439.2	7369.3	
439.4	5525.4	
439.6	5468.8	
439.8	7629.4	
440	8757.1	
440.2	6487.3	
440.4	6631.3	
440.61	7974.8	
440.81	8617.2	
441.01	5737	
441.21	6669.6	
441.41	8563.9	
441.61	8157.1	
441.81	7032	
442.02	8047.2	
442.22	9065	
442.42	8242.4	
442.62	5902.2	
442.82	5946.6	
443.02	8513.4	
443.22	7677.8	
443.43	6351.4	
443.63	5880.4	
443.83	7475.8	
444.03	7598	
444.23	7317.4	
444.43	6894.8	
444.63	7845.1	
444.83	9171.5	
445.04	6055.8	
445.24	7419.1	
445.44	8309.3	
445.64	8416.5	
445.84	6918	
446.04	6989.7	
446.24	7694.9	
446.44	8672.5	
446.65	6077.7	
446.85	6548	
447.05	7783.6	
447.25	8606.2	
447.45	6565.1	
447.65	5928.9	
447.85	8028	
448.05	7602.7	
448.25	7052.5	
448.46	6786.3	
448.66	8002.1	
448.86	7696.3	
449.06	5773.9	
449.26	7043.6	
449.46	8365.3	
449.66	7363.8	
449.86	6599.9	
450.06	6508.4	
450.26	7531.1	
450.47	8256.7	
450.67	6785.6	
450.87	7219.8	
451.07	8332.5	
451.27	8080.6	
451.47	6146.6	
451.67	6664.8	
451.87	7772.7	
452.07	8994.7	
452.27	6395.1	
452.47	6354.2	
452.67	8078.6	
452.88	8669.1	
453.08	5657.2	
453.28	7795.9	
453.48	9422.7	
453.68	8057.4	
453.88	6311.8	
454.08	6488	
454.28	8379.6	
454.48	8110	
454.68	7096.9	
454.88	7621.2	
455.08	8589.9	
455.28	8309.3	
455.48	6115.2	
455.68	6820.4	
455.89	9097.8	
456.09	8802.2	
456.29	6577.4	
456.49	6641.6	
456.69	9073.9	
456.89	8176.2	
457.09	7171.3	
457.29	7508.5	
457.49	8598.1	
457.69	8783.7	
457.89	7015.7	
458.09	6462	
458.29	8297	
458.49	9209	
458.69	7509.2	
458.89	6947.4	
459.09	9400.2	
459.29	9565.4	
459.49	7066.9	
459.69	7921.5	
459.9	8965.3	
460.1	8591.9	
460.3	6930.3	
460.5	6739.2	
460.7	9011.7	
460.9	8794.7	
461.1	6430.6	
461.3	7757.7	
461.5	9731.9	
461.7	9196.1	
461.9	6941.2	
462.1	7400	
462.3	8810.4	
462.5	9437	
462.7	7104.4	
462.9	7135.1	
463.1	10568	
463.3	10070	
463.5	7378.8	
463.7	8358.4	
463.9	9102.5	
464.1	9422	
464.3	7591.8	
464.5	7742.7	
464.7	9738.8	
464.9	9419.3	
465.1	9238.4	
465.3	8334.6	
465.5	10134	
465.7	10204	
465.9	8544.1	
466.1	8288.1	
466.3	9978.4	
466.5	9757.2	
466.7	9302.6	
466.9	8060.8	
467.1	9811.1	
467.3	10839	
467.5	9236.3	
467.7	8101.1	
467.9	11056	
468.1	11912	
468.3	8908.7	
468.5	9449.3	
468.7	9921	
468.9	9968.1	
469.1	8487.5	
469.3	9198.1	
469.5	12014	
469.7	9523.1	
469.9	8930.5	
470.1	8311.3	
470.3	10004	
470.5	9996.8	
470.7	9562	
470.9	8341.4	
471.1	9783.1	
471.3	10135	
471.5	8228.1	
471.69	10231	
471.89	9688.3	
472.09	9163.3	
472.29	9093.7	
472.49	9292.3	
472.69	9413.1	
472.89	10281	
473.09	8172.1	
473.29	8245.8	
473.49	9589.3	
473.69	9688.3	
473.89	9267.7	
474.09	8353.7	
474.29	10964	
474.49	10684	
474.69	9223.4	
474.89	8506.6	
475.09	9730.6	
475.29	9635	
475.49	7936.6	
475.69	8339.3	
475.88	11436	
476.08	10024	
476.28	7983	
476.48	8392.6	
476.68	10505	
476.88	10274	
477.08	8079.9	
477.28	8463.6	
477.48	9768.1	
477.68	10466	
477.88	8089.5	
478.08	8279.3	
478.28	10825	
478.48	9951.8	
478.67	8445.1	
478.87	7814.4	
479.07	10717	
479.27	10118	
479.47	8636.3	
479.67	8719.6	
479.87	10548	
480.07	11088	
480.27	7910.6	
480.47	9502.6	
480.67	10088	
480.87	10905	
481.06	8220.5	
481.26	9055.4	
481.46	10129	
481.66	10109	
481.86	8711.4	
482.06	9753.8	
482.26	9815.2	
482.46	10737	
482.66	8693.6	
482.86	8237.6	
483.05	10222	
483.25	9676.7	
483.45	11194	
483.65	8649.3	
483.85	9863	
484.05	10203	
484.25	9039.1	
484.45	9635.7	
484.65	11033	
484.84	11078	
485.04	8655.4	
485.24	8669.7	
485.44	11371	
485.64	9609.1	
485.84	8045.1	
486.04	9452.7	
486.24	10070	
486.44	10461	
486.63	7950.2	
486.83	8817.9	
487.03	9957.9	
487.23	10250	
487.43	8099.7	
487.63	10616	
487.83	10356	
488.02	11355	
488.22	9346.9	
488.42	9924.5	
488.62	11319	
488.82	10146	
489.02	8847.9	
489.22	9041.8	
489.41	11142	
489.61	10845	
489.81	8666.3	
490.01	8718.2	
490.21	11045	
490.41	11777	
490.61	8734.6	
490.8	8758.5	
491	10728	
491.2	9956.5	
491.4	9483.5	
491.6	8525.7	
491.8	10623	
491.99	10765	
492.19	8397.4	
492.39	8854.1	
492.59	11036	
492.79	11131	
492.99	9542.2	
493.18	8711.4	
493.38	11240	
493.58	12100	
493.78	9458.9	
493.98	9069.8	
494.18	11062	
494.37	10597	
494.57	9821.4	
494.77	9820.7	
494.97	11368	
495.17	11790	
495.37	9459.6	
495.56	9627.5	
495.76	12108	
495.96	11620	
496.16	10738	
496.36	9710.8	
496.55	11970	
496.75	11520	
496.95	10226	
497.15	9969.5	
497.35	11903	
497.54	12041	
497.74	9844.6	
497.94	11700	
498.14	12772	
498.34	12440	
498.53	9405	
498.73	10447	
498.93	11336	
499.13	11996	
499.33	10255	
499.52	10763	
499.72	12076	
499.92	12336	
500.12	10075	
500.32	10253	
500.51	12289	
500.71	12183	
500.91	11215	
501.11	10772	
501.31	12300	
501.5	12718	
501.7	11409	
501.9	10358	
502.1	12069	
502.29	12499	
502.49	10855	
502.69	11356	
502.89	12402	
503.09	12331	
503.28	9843.2	
503.48	9970.9	
503.68	11497	
503.88	11624	
504.07	10816	
504.27	10385	
504.47	11966	
504.67	12022	
504.86	10802	
505.06	10570	
505.26	11587	
505.46	13357	
505.65	10395	
505.85	10645	
506.05	11513	
506.25	12005	
506.44	9602.2	
506.64	10679	
506.84	11318	
507.04	12326	
507.23	9873.9	
507.43	10499	
507.63	13454	
507.83	11629	
508.02	10489	
508.22	9780.4	
508.42	13720	
508.62	11356	
508.81	10365	
509.01	10929	
509.21	11189	
509.4	11546	
509.6	10595	
509.8	9876.7	
510	11450	
510.19	13083	
510.39	9886.9	
510.59	9967.5	
510.79	11463	
510.98	12859	
511.18	9998.9	
511.38	10353	
511.57	12241	
511.77	12235	
511.97	10847	
512.17	9867.8	
512.36	12254	
512.56	12162	
512.76	9956.5	
512.95	9661.6	
513.15	12310	
513.35	11114	
513.55	10867	
513.74	9965.4	
513.94	12293	
514.14	11674	
514.33	10994	
514.53	10730	
514.73	11628	
514.92	11887	
515.12	10147	
515.32	10060	
515.51	11971	
515.71	12588	
515.91	11796	
516.11	10124	
516.3	13827	
516.5	11557	
516.7	10570	
516.89	11423	
517.09	11737	
517.29	11749	
517.48	11119	
517.68	10365	
517.88	11484	
518.07	12177	
518.27	11012	
518.47	10045	
518.66	12678	
518.86	11373	
519.06	9786.6	
519.25	10287	
519.45	11724	
519.65	13211	
519.84	10924	
520.04	11734	
520.24	13678	
520.43	12441	
520.63	10683	
520.83	10568	
521.02	11548	
521.22	12327	
521.42	10947	
521.61	11570	
521.81	11845	
522.01	11949	
522.2	10844	
522.4	10477	
522.6	12503	
522.79	11318	
522.99	10714	
523.18	10099	
523.38	12321	
523.58	12515	
523.77	12192	
523.97	10225	
524.17	14323	
524.36	13564	
524.56	11755	
524.76	11342	
524.95	12591	
525.15	12357	
525.34	11178	
525.54	11298	
525.74	13172	
525.93	12174	
526.13	12585	
526.33	11377	
526.52	13622	
526.72	13099	
526.91	12656	
527.11	12059	
527.31	13664	
527.5	14175	
527.7	11882	
527.89	10927	
528.09	12607	
528.29	13300	
528.48	12278	
528.68	11919	
528.87	13659	
529.07	13719	
529.27	11927	
529.46	11617	
529.66	13498	
529.85	13876	
530.05	11387	
530.25	12175	
530.44	15081	
530.64	13433	
530.83	11822	
531.03	12208	
531.23	13861	
531.42	13724	
531.62	12727	
531.81	11992	
532.01	14085	
532.21	14541	
532.4	12024	
532.6	12363	
532.79	15119	
532.99	14375	
533.18	12467	
533.38	13641	
533.58	13925	
533.77	14705	
533.97	12637	
534.16	13503	
534.36	15102	
534.55	14152	
534.75	13629	
534.95	12749	
535.14	14976	
535.34	14194	
535.53	12431	
535.73	14473	
535.92	15556	
536.12	14325	
536.31	12497	
536.51	13834	
536.71	14614	
536.9	14286	
537.1	12609	
537.29	12830	
537.49	15004	
537.68	14106	
537.88	13338	
538.07	12398	
538.27	14408	
538.46	15373	
538.66	12393	
538.86	12825	
539.05	14409	
539.25	14881	
539.44	13124	
539.64	12727	
539.83	14419	
540.03	15410	
540.22	12684	
540.42	12834	
540.61	14555	
540.81	14715	
541	13244	
541.2	13846	
541.39	14031	
541.59	14395	
541.78	13442	
541.98	12656	
542.18	13709	
542.37	13778	
542.57	12966	
542.76	13670	
542.96	13791	
543.15	14590	
543.35	12892	
543.54	12283	
543.74	14680	
543.93	14295	
544.13	12796	
544.32	13874	
544.52	14472	
544.71	13755	
544.91	11791	
545.1	13151	
545.3	13750	
545.49	14446	
545.69	11753	
545.88	12408	
546.08	15375	
546.27	15098	
546.47	13024	
546.66	12209	
546.86	14713	
547.05	15230	
547.24	12494	
547.44	12450	
547.63	13515	
547.83	14775	
548.02	12848	
548.22	12947	
548.41	13307	
548.61	14759	
548.8	12124	
549	12278	
549.19	14043	
549.39	14455	
549.58	11833	
549.78	12580	
549.97	14412	
550.17	13864	
550.36	13261	
550.55	14399	
550.75	13833	
550.94	14855	
551.14	12043	
551.33	12352	
551.53	13229	
551.72	14191	
551.92	12507	
552.11	12209	
552.31	14215	
552.5	14358	
552.69	14074	
552.89	11831	
553.08	14134	
553.28	13890	
553.47	12291	
553.67	13500	
553.86	14836	
554.06	13112	
554.25	11285	
554.44	11975	
554.64	15513	
554.83	15110	
555.03	11951	
555.22	12389	
555.42	14280	
555.61	14036	
555.8	12174	
556	12386	
556.19	13249	
556.39	14410	
556.58	12120	
556.78	12209	
556.97	13844	
557.16	13582	
557.36	13502	
557.55	11829	
557.75	12833	
557.94	14676	
558.13	11823	
558.33	11724	
558.52	14422	
558.72	13327	
558.91	11804	
559.1	11998	
559.3	13066	
559.49	12689	
559.69	11286	
559.88	12448	
560.07	13860	
560.27	14262	
560.46	12564	
560.66	12671	
560.85	13519	
561.04	12703	
561.24	11695	
561.43	11891	
561.63	13150	
561.82	13262	
562.01	13112	
562.21	12186	
562.4	13818	
562.59	14906	
562.79	12125	
562.98	11781	
563.18	13657	
563.37	15276	
563.56	12600	
563.76	11800	
563.95	13280	
564.14	13197	
564.34	12253	
564.53	11903	
564.73	13755	
564.92	14220	
565.11	12383	
565.31	11920	
565.5	14561	
565.69	13400	
565.89	11940	
566.08	12304	
566.27	14307	
566.47	14833	
566.66	13006	
566.85	11678	
567.05	14091	
567.24	13413	
567.44	12016	
567.63	13435	
567.82	14319	
568.02	14005	
568.21	12083	
568.4	12441	
568.6	13936	
568.79	13970	
568.98	11799	
569.18	12286	
569.37	14026	
569.56	16072	
569.76	12574	
569.95	13547	
570.14	14390	
570.34	14377	
570.53	12096	
570.72	12071	
570.91	14924	
571.11	14067	
571.3	12639	
571.49	13586	
571.69	14162	
571.88	13668	
572.07	13236	
572.27	13102	
572.46	13585	
572.65	14800	
572.85	12341	
573.04	12746	
573.23	15055	
573.43	14303	
573.62	12238	
573.81	12873	
574	14411	
574.2	14122	
574.39	12629	
574.58	12865	
574.78	15446	
574.97	14659	
575.16	13366	
575.36	13573	
575.55	15086	
575.74	15272	
575.93	12564	
576.13	13729	
576.32	14495	
576.51	15145	
576.71	12943	
576.9	14457	
577.09	15453	
577.28	14940	
577.48	13372	
577.67	12521	
577.86	14632	
578.05	14956	
578.25	13192	
578.44	13239	
578.63	14725	
578.83	15869	
579.02	12611	
579.21	14382	
579.4	15037	
579.6	14677	
579.79	13429	
579.98	15672	
580.17	15421	
580.37	15515	
580.56	12931	
580.75	13719	
580.94	15799	
581.14	15647	
581.33	14136	
581.52	13077	
581.71	15307	
581.91	15982	
582.1	12811	
582.29	13351	
582.48	15010	
582.68	14964	
582.87	13921	
583.06	13537	
583.25	15210	
583.45	14962	
583.64	14353	
583.83	14868	
584.02	14672	
584.21	15196	
584.41	14099	
584.6	13577	
584.79	14891	
584.98	15863	
585.18	13033	
585.37	12932	
585.56	14404	
585.75	15457	
585.94	13163	
586.14	13875	
586.33	15974	
586.52	14932	
586.71	13547	
586.91	13273	
587.1	14247	
587.29	15225	
587.48	13196	
587.67	13106	
587.87	15128	
588.06	15092	
588.25	14422	
588.44	13762	
588.63	14647	
588.83	15229	
589.02	13039	
589.21	12986	
589.4	14366	
589.59	14271	
589.78	11914	
589.98	12288	
590.17	13663	
590.36	14276	
590.55	11454	
590.74	12166	
590.94	15320	
591.13	13852	
591.32	12011	
591.51	11302	
591.7	14321	
591.89	13841	
592.09	11551	
592.28	12060	
592.47	12994	
592.66	15069	
592.85	11643	
593.05	11985	
593.24	13641	
593.43	14537	
593.62	12110	
593.81	12574	
594	13664	
594.19	13994	
594.39	11870	
594.58	11772	
594.77	14087	
594.96	14644	
595.15	11722	
595.34	12486	
595.54	14072	
595.73	13191	
595.92	10959	
596.11	12200	
596.3	14405	
596.49	13132	
596.68	12022	
596.88	12454	
597.07	14106	
597.26	13067	
597.45	11437	
597.64	12793	
597.83	13284	
598.02	13975	
598.22	11486	
598.41	12206	
598.6	13656	
598.79	13086	
598.98	11507	
599.17	12524	
599.36	13625	
599.55	14849	
599.74	13601	
599.94	13502	
600.13	14138	
600.32	13082	
600.51	11308	
600.7	11496	
600.89	14747	
601.08	14856	
601.27	11173	
601.47	12269	
601.66	14047	
601.85	14810	
602.04	11909	
602.23	12136	
602.42	13155	
602.61	13735	
602.8	11867	
602.99	11600	
603.18	13475	
603.37	13635	
603.57	12136	
603.76	12716	
603.95	14377	
604.14	14020	
604.33	11695	
604.52	11992	
604.71	13590	
604.9	13373	
605.09	12547	
605.28	12461	
605.47	14348	
605.66	13929	
605.86	12257	
606.05	11662	
606.24	14239	
606.43	12766	
606.62	11961	
606.81	12884	
607	14022	
607.19	13439	
607.38	11327	
607.57	11618	
607.76	13180	
607.95	12598	
608.14	12040	
608.33	12613	
608.52	13080	
608.72	14137	
608.91	11299	
609.1	11139	
609.29	13211	
609.48	12688	
609.67	12110	
609.86	11110	
610.05	12846	
610.24	13165	
610.43	11054	
610.62	10649	
610.81	14283	
611	13967	
611.19	11121	
611.38	11912	
611.57	13415	
611.76	14674	
611.95	10886	
612.14	10778	
612.33	13208	
612.52	12691	
612.71	11536	
612.9	10622	
613.09	12292	
613.28	14726	
613.47	11262	
613.66	12221	
613.85	13356	
614.04	12792	
614.24	11198	
614.43	10517	
614.62	13435	
614.81	13418	
615	11888	
615.19	11946	
615.38	12642	
615.57	13147	
615.76	11847	
615.95	12816	
616.14	13573	
616.33	13043	
616.52	12114	
616.71	12370	
616.9	13471	
617.09	13374	
617.28	11508	
617.47	12785	
617.66	12557	
617.85	12592	
618.04	12430	
618.22	11970	
618.41	13058	
618.6	14083	
618.79	11863	
618.98	11699	
619.17	14442	
619.36	12716	
619.55	11814	
619.74	11999	
619.93	13785	
620.12	13173	
620.31	12521	
620.5	12714	
620.69	14346	
620.88	14792	
621.07	13468	
621.26	12483	
621.45	14080	
621.64	13996	
621.83	12646	
622.02	11824	
622.21	14034	
622.4	13922	
622.59	13312	
622.78	12988	
622.97	13589	
623.16	14644	
623.35	12697	
623.54	11920	
623.72	13819	
623.91	13958	
624.1	12915	
624.29	11617	
624.48	15000	
624.67	14319	
624.86	12984	
625.05	11884	
625.24	15222	
625.43	13555	
625.62	14688	
625.81	12221	
626	14644	
626.19	13981	
626.38	13103	
626.56	12357	
626.75	13783	
626.94	14585	
627.13	12867	
627.32	11761	
627.51	14507	
627.7	15728	
627.89	11718	
628.08	12968	
628.27	13678	
628.46	13768	
628.65	12149	
628.83	11863	
629.02	14407	
629.21	13614	
629.4	12587	
629.59	12828	
629.78	13583	
629.97	14562	
630.16	12927	
630.35	12313	
630.54	15103	
630.72	14749	
630.91	12276	
631.1	12956	
631.29	14202	
631.48	14300	
631.67	12952	
631.86	12477	
632.05	13872	
632.24	13994	
632.42	12012	
632.61	12656	
632.8	13956	
632.99	13570	
633.18	12772	
633.37	13158	
633.56	14239	
633.75	14037	
633.93	12569	
634.12	12392	
634.31	14961	
634.5	14567	
634.69	12445	
634.88	12865	
635.07	13926	
635.25	14521	
635.44	13396	
635.63	13586	
635.82	13767	
636.01	13377	
636.2	13100	
636.39	12706	
636.57	14924	
636.76	14517	
636.95	12208	
637.14	13532	
637.33	14266	
637.52	15374	
637.7	11888	
637.89	12939	
638.08	13789	
638.27	15322	
638.46	12919	
638.65	13355	
638.83	15184	
639.02	13538	
639.21	12819	
639.4	13269	
639.59	14031	
639.78	13663	
639.96	11996	
640.15	12071	
640.34	13812	
640.53	13988	
640.72	11619	
640.91	11986	
641.09	13139	
641.28	14579	
641.47	11966	
641.66	12902	
641.85	13898	
642.03	14086	
642.22	12624	
642.41	12101	
642.6	13327	
642.79	12617	
642.97	11776	
643.16	12501	
643.35	13266	
643.54	12923	
643.73	11624	
643.91	12423	
644.1	12685	
644.29	13420	
644.48	11632	
644.67	11755	
644.85	12924	
645.04	13271	
645.23	11228	
645.42	11467	
645.6	12624	
645.79	13774	
645.98	11238	
646.17	10316	
646.36	12246	
646.54	12693	
646.73	12022	
646.92	10841	
647.11	12423	
647.29	13463	
647.48	10748	
647.67	10520	
647.86	13697	
648.05	13801	
648.23	11155	
648.42	12389	
648.61	13080	
648.8	12751	
648.98	10642	
649.17	11076	
649.36	12237	
649.55	11777	
649.73	10671	
649.92	11607	
650.11	12217	
650.3	12534	
650.48	10756	
650.67	10711	
650.86	12738	
651.05	11611	
651.23	10785	
651.42	10840	
651.61	12134	
651.79	12189	
651.98	11034	
652.17	10530	
652.36	12502	
652.54	11661	
652.73	10547	
652.92	10454	
653.11	12557	
653.29	12609	
653.48	9849.4	
653.67	10875	
653.85	12355	
654.04	13459	
654.23	10994	
654.42	10427	
654.6	11670	
654.79	12258	
654.98	9735.4	
655.16	10250	
655.35	10991	
655.54	10976	
655.73	9605.7	
655.91	9473.2	
656.1	12149	
656.29	10866	
656.47	9032.9	
656.66	10839	
656.85	11241	
657.03	11319	
657.22	9809.8	
657.41	9985.9	
657.59	11439	
657.78	11377	
657.97	9684.8	
658.16	10477	
658.34	12280	
658.53	12682	
658.72	11320	
658.9	11812	
659.09	11593	
659.28	11786	
659.46	10206	
659.65	10142	
659.84	11399	
660.02	11942	
660.21	10017	
660.4	9989.3	
660.58	12337	
660.77	11861	
660.96	10512	
661.14	9622.7	
661.33	12918	
661.52	12779	
661.7	9529.9	
661.89	13366	
662.08	11340	
662.26	10930	
662.45	9811.1	
662.64	9907.4	
662.82	11974	
663.01	11204	
663.2	9865.7	
663.38	10796	
663.57	12012	
663.75	11817	
663.94	10210	
664.13	11481	
664.31	11276	
664.5	12011	
664.69	10541	
664.87	11049	
665.06	10926	
665.25	11759	
665.43	11276	
665.62	11344	
665.8	12106	
665.99	11350	
666.18	10208	
666.36	10365	
666.55	12049	
666.74	11934	
666.92	9811.8	
667.11	11417	
667.29	11348	
667.48	12003	
667.67	11064	
667.85	9963.4	
668.04	11346	
668.22	11428	
668.41	10184	
668.6	10346	
668.78	11226	
668.97	11385	
669.15	10587	
669.34	9511.4	
669.53	11284	
669.71	11512	
669.9	9687.6	
670.08	10226	
670.27	11228	
670.46	11802	
670.64	10547	
670.83	10962	
671.01	11019	
671.2	11751	
671.38	9828.2	
671.57	9617.9	
671.76	12269	
671.94	12914	
672.13	9604.3	
672.31	10653	
672.5	12015	
672.69	11123	
672.87	9799.5	
673.06	10123	
673.24	11817	
673.43	11280	
673.61	10501	
673.8	10069	
673.98	11884	
674.17	12048	
674.36	10619	
674.54	10486	
674.73	11621	
674.91	11801	
675.1	10202	
675.28	9799.5	
675.47	11462	
675.65	12010	
675.84	10004	
676.03	10475	
676.21	11146	
676.4	10670	
676.58	10832	
676.77	10707	
676.95	12681	
677.14	11069	
677.32	9749	
677.51	9471.9	
677.69	11897	
677.88	10834	
678.06	9684.2	
678.25	9789.3	
678.44	11547	
678.62	11256	
678.81	9343.5	
678.99	10449	
679.18	12291	
679.36	11824	
679.55	10003	
679.73	10760	
679.92	11832	
680.1	11260	
680.29	11340	
680.47	10023	
680.66	11229	
680.84	12069	
681.03	9260.2	
681.21	10488	
681.4	11214	
681.58	10985	
681.77	9927.2	
681.95	9861	
682.14	11977	
682.32	12402	
682.51	10690	
682.69	9484.8	
682.88	11077	
683.06	11634	
683.25	10359	
683.43	10836	
683.62	11426	
683.8	11786	
683.99	10983	
684.17	10243	
684.36	12640	
684.54	11244	
684.73	9275.3	
684.91	9546.3	
685.1	11439	
685.28	10798	
685.46	9768.8	
685.65	9841.9	
685.83	11410	
686.02	10765	
686.2	9172.2	
686.39	9366	
686.57	10292	
686.76	12150	
686.94	9290.3	
687.13	9478	
687.31	11282	
687.5	10863	
687.68	8883.4	
687.86	10297	
688.05	12681	
688.23	10524	
688.42	10352	
688.6	9637.1	
688.79	11007	
688.97	10855	
689.16	10025	
689.34	8917.5	
689.52	11849	
689.71	11988	
689.89	10402	
690.08	9731.9	
690.26	11355	
690.45	11215	
690.63	10565	
690.81	9918.3	
691	10955	
691.18	11110	
691.37	10034	
691.55	12262	
691.74	10844	
691.92	12949	
692.1	9931.3	
692.29	9394.7	
692.47	11127	
692.66	10432	
692.84	9588.6	
693.02	10157	
693.21	10694	
693.39	11084	
693.58	10299	
693.76	9748.3	
693.94	12403	
694.13	12217	
694.31	9892.4	
694.5	10955	
694.68	11077	
694.86	11598	
695.05	10316	
695.23	10726	
695.42	12053	
695.6	14369	
695.78	11062	
695.97	10050	
696.15	12114	
696.34	11403	
696.52	9923.1	
696.7	10658	
696.89	11752	
697.07	11191	
697.25	10466	
697.44	12073	
697.62	11756	
697.81	12005	
697.99	10061	
698.17	10722	
698.36	10942	
698.54	11613	
698.72	10672	
698.91	9438.4	
699.09	11165	
699.28	11150	
699.46	10083	
699.64	9992	
699.83	11030	
700.01	12209	
700.19	10813	
700.38	9194	
700.56	12265	
700.74	11140	
700.93	9634.3	
701.11	10473	
701.29	11682	
701.48	12832	
701.66	9908.8	
701.84	10037	
702.03	11372	
702.21	12107	
702.39	9512.8	
702.58	10142	
702.76	11759	
702.94	12032	
703.13	9611.8	
703.31	12052	
703.49	11102	
703.68	12643	
703.86	9793.4	
704.04	10856	
704.23	11629	
704.41	12076	
704.59	9896.5	
704.78	11144	
704.96	12750	
705.14	12065	
705.33	9692.4	
705.51	10518	
705.69	11432	
705.87	12218	
706.06	10748	
706.24	9734	
706.42	11752	
706.61	12047	
706.79	10833	
706.97	9663.7	
707.16	11164	
707.34	11721	
707.52	10629	
707.7	9933.3	
707.89	11211	
708.07	10878	
708.25	10783	
708.44	11309	
708.62	11191	
708.8	12295	
708.98	10979	
709.17	9916.9	
709.35	11482	
709.53	11583	
709.72	9483.5	
709.9	10092	
710.08	11698	
710.26	11813	
710.45	11146	
710.63	9850.7	
710.81	11460	
710.99	11419	
711.18	10475	
711.36	9852.8	
711.54	11174	
711.72	11885	
711.91	9951.8	
712.09	9380.4	
712.27	11222	
712.45	11923	
712.64	10036	
712.82	8968.7	
713	10384	
713.18	10616	
713.37	9024	
713.55	10271	
713.73	11393	
713.91	9914.9	
714.1	9119.6	
714.28	8449.2	
714.46	10656	
714.64	9673.2	
714.83	7617.1	
715.01	8357.1	
715.19	9476	
715.37	8854.7	
715.55	7794.6	
715.74	8137.9	
715.92	10337	
716.1	8221.9	
716.28	9214.5	
716.47	8218.5	
716.65	8834.9	
716.83	8934.6	
717.01	7970.7	
717.19	8056.7	
717.38	11103	
717.56	8604.2	
717.74	8224.6	
717.92	7433.4	
718.1	9839.1	
718.29	9131.9	
718.47	7129.7	
718.65	7841.7	
718.83	10041	
719.01	9975.7	
719.2	7233.4	
719.38	8398.7	
719.56	9725.1	
719.74	11422	
719.92	7898.3	
720.11	8967.4	
720.29	9701.9	
720.47	8778.3	
720.65	7355.6	
720.83	8132.5	
721.02	8916.9	
721.2	8611	
721.38	8097	
721.56	7362.4	
721.74	8064.9	
721.92	8299.1	
722.11	8553.7	
722.29	8106.5	
722.47	9564	
722.65	8710.7	
722.83	7113.3	
723.01	8062.9	
723.2	8781	
723.38	9042.5	
723.56	6624.5	
723.74	7841.7	
723.92	8213.7	
724.1	9412.5	
724.29	7056.6	
724.47	8254.7	
724.65	8252.6	
724.83	8211	
725.01	6976.7	
725.19	7828	
725.37	8167.3	
725.56	8293.6	
725.74	6790.4	
725.92	7041.6	
726.1	8055.3	
726.28	8435.6	
726.46	7489.4	
726.64	7208.8	
726.83	8355.7	
727.01	8682.7	
727.19	6741.2	
727.37	7578.2	
727.55	8523.6	
727.73	9054.1	
727.91	6721.4	
728.09	6535.1	
728.28	9004.9	
728.46	9613.2	
728.64	7689.4	
728.82	7612.3	
729	10282	
729.18	9428.8	
729.36	6856.6	
729.54	9156.5	
729.72	10615	
729.91	8761.9	
730.09	8881.4	
730.27	7677.8	
730.45	8681.3	
730.63	9361.3	
730.81	8269.7	
730.99	7318.1	
731.17	9858.2	
731.35	8425.3	
731.53	7815	
731.71	7408.2	
731.9	9675.3	
732.08	9755.8	
732.26	7672.4	
732.44	7348.1	
732.62	9764	
732.8	9330.5	
732.98	8086.1	
733.16	7062.8	
733.34	9189.2	
733.52	7949.5	
733.7	7507.9	
733.88	7785	
734.07	8945.5	
734.25	8777.6	
734.43	6952.2	
734.61	8513.4	
734.79	10351	
734.97	8628.1	
735.15	7124.9	
735.33	7449.8	
735.51	8938.7	
735.69	8503.2	
735.87	8594.6	
736.05	7626.6	
736.23	8827.4	
736.41	8518.9	
736.59	7385	
736.77	7586.4	
736.95	9203.6	
737.13	8654.7	
737.32	6993.1	
737.5	7228	
737.68	9779.7	
737.86	8411.7	
738.04	6741.9	
738.22	8662.2	
738.4	8198.7	
738.58	8446.5	
738.76	7413	
738.94	6311.8	
739.12	8340	
739.3	8168	
739.48	8065.6	
739.66	7769.3	
739.84	8567.3	
740.02	8546.2	
740.2	6408.8	
740.38	6738.5	
740.56	8850	
740.74	7720.8	
740.92	7378.1	
741.1	7350.8	
741.28	8239	
741.46	8082	
741.64	6859.3	
741.82	7419.8	
742	8309.3	
742.18	8275.8	
742.36	7068.2	
742.54	6611.5	
742.72	8741.4	
742.9	7526.3	
743.08	7384.3	
743.26	6220.4	
743.44	9027.4	
743.62	8763.9	
743.8	7493.5	
743.98	6571.9	
744.16	8514.1	
744.34	8170.7	
744.52	7399.3	
744.7	7279.2	
744.88	8586.5	
745.06	8058.8	
745.24	7350.8	
745.42	7495.6	
745.6	8682.7	
745.78	8393.3	
745.96	6134.3	
746.14	6391.7	
746.32	9385.8	
746.5	8538	
746.68	6961	
746.86	6445	
747.03	8949.6	
747.21	7150.1	
747.39	6963.8	
747.57	6370.5	
747.75	7973.4	
747.93	8437.6	
748.11	6328.9	
748.29	6266.1	
748.47	9669.8	
748.65	7679.2	
748.83	7133.1	
749.01	6792.4	
749.19	8239.7	
749.37	7451.9	
749.55	6675.7	
749.73	6707.8	
749.91	7757	
750.09	7546.8	
750.26	6736.5	
750.44	6070.9	
750.62	7890.8	
750.8	7845.8	
750.98	5950.7	
751.16	6283.2	
751.34	7889.5	
751.52	7265.5	
751.7	7090.1	
751.88	5915.9	
752.06	8360.5	
752.24	8129.1	
752.42	5902.9	
752.59	6183.5	
752.77	7819.8	
752.95	9056.8	
753.13	6967.9	
753.31	6324.8	
753.49	7368.6	
753.67	7867.6	
753.85	6673	
754.03	6058.6	
754.21	8064.9	
754.38	8373.5	
754.56	6299.6	
754.74	5235.3	
754.92	7178.8	
755.1	7870.3	
755.28	5117.9	
755.46	5087.8	
755.64	8382.3	
755.82	8401.5	
755.99	5095.3	
756.17	5140.4	
756.35	5602.6	
756.53	7193.8	
756.71	3820.8	
756.89	4818.2	
757.07	6767.2	
757.25	5810.1	
757.42	5551.4	
757.6	6384.2	
757.78	7001.3	
757.96	5976	
758.14	5285.1	
758.32	4829.8	
758.5	5501.5	
758.67	6422.4	
758.85	5089.9	
759.03	5231.9	
759.21	6576	
759.39	5947.3	
759.57	4605.2	
759.75	5803.3	
759.92	7247.8	
760.1	6507.8	
760.28	6285.9	
760.46	6486.6	
760.64	6324.8	
760.82	6070.2	
760.99	6178	
761.17	5286.5	
761.35	7303.1	
761.53	6160.3	
761.71	5440.1	
761.89	6241.5	
762.06	7107.8	
762.24	6624.5	
762.42	5660.6	
762.6	5464	
762.78	6710.5	
762.96	7385.7	
763.13	5969.1	
763.31	5701.5	
763.49	7587.7	
763.67	6658.6	
763.85	6589	
764.02	7125.6	
764.2	7725.6	
764.38	6929.6	
764.56	5524.1	
764.74	6461.3	
764.91	7865.6	
765.09	6712.6	
765.27	5254.4	
765.45	4971.1	
765.63	7886.7	
765.8	7742.7	
765.98	4641.4	
766.16	5098.1	
766.34	6212.9	
766.52	6043.6	
766.69	5936.4	
766.87	4853.7	
767.05	6657.3	
767.23	7562.5	
767.41	5146.5	
767.58	5362.3	
767.76	7245	
767.94	7262.1	
768.12	5182.7	
768.29	5969.8	
768.47	6618.4	
768.65	7370.6	
768.83	4753.3	
769	5939.8	
769.18	6189	
769.36	6909.2	
769.54	5958.2	
769.72	4769.7	
769.89	7157.7	
770.07	7239.6	
770.25	5034.6	
770.43	6389.7	
770.6	7928.4	
770.78	8445.8	
770.96	5197.1	
771.14	5054.4	
771.31	7041.6	
771.49	6322.8	
771.67	4378.6	
771.85	4607.9	
772.02	5517.2	
772.2	6364.4	
772.38	5406	
772.55	4861.2	
772.73	6536.4	
772.91	6375.3	
773.09	5229.8	
773.26	5283.1	
773.44	6460.7	
773.62	6122.1	
773.8	4694.6	
773.97	4388.8	
774.15	6582.2	
774.33	6107.7	
774.5	4592.9	
774.68	4959.5	
774.86	6726.2	
775.04	6175.3	
775.21	4599.7	
775.39	4630.5	
775.57	6429.3	
775.74	6761	
775.92	4419.5	
776.1	4304.1	
776.27	6353.5	
776.45	7681.9	
776.63	4530.1	
776.81	4101.4	
776.98	5986.2	
777.16	7070.3	
777.34	4629.8	
777.51	5057.8	
777.69	5941.8	
777.87	5678.3	
778.04	4749.9	
778.22	5397.8	
778.4	5717.2	
778.57	6366.5	
778.75	3912.3	
778.93	4262.5	
779.1	5537.7	
779.28	5339.7	
779.46	3871.3	
779.64	4453.6	
779.81	6584.9	
779.99	7410.9	
780.17	5232.6	
780.34	5362.9	
780.52	5956.2	
780.69	6135	
780.87	4712.4	
781.05	4242	
781.22	5975.3	
781.4	6028.5	
781.58	4395.6	
781.75	3565.5	
781.93	6051.7	
782.11	5408.7	
782.28	5329.5	
782.46	4418.2	
782.64	5187.5	
782.81	6143.2	
782.99	4489.8	
783.17	4453	
783.34	6083.8	
783.52	5266.7	
783.69	4649.6	
783.87	5461.9	
784.05	5276.9	
784.22	5336.3	
784.4	5390.3	
784.58	4691.9	
784.75	6249	
784.93	5304.9	
785.1	4373.1	
785.28	4995.7	
785.46	5999.2	
785.63	5292.6	
785.81	4304.1	
785.99	4086.4	
786.16	5477	
786.34	5859.9	
786.51	4199.7	
786.69	4562.2	
786.87	5006.6	
787.04	5594.4	
787.22	4007.9	
787.39	5068	
787.57	5267.4	
787.75	6443.6	
787.92	5219.6	
788.1	5089.9	
788.27	5299.5	
788.45	5036.6	
788.63	4824.3	
788.8	3482.9	
788.98	5829.9	
789.15	4967	
789.33	3650.2	
789.5	4405.2	
789.68	6179.4	
789.86	6326.2	
790.03	4767	
790.21	4147.8	
790.38	6208.8	
790.56	5399.1	
790.73	4030.4	
790.91	4043.4	
791.09	5264.6	
791.26	6044.9	
791.44	4283.7	
791.61	3669.3	
791.79	5264.6	
791.96	5283.1	
792.14	3835.8	
792.32	3347.1	
792.49	5252.4	
792.67	5351.3	
792.84	3899.3	
793.02	3642	
793.19	5685.2	
793.37	6469.5	
793.54	3422.8	
793.72	3760.1	
793.89	6542.6	
794.07	5269.4	
794.25	4363.5	
794.42	3435.1	
794.6	6337.1	
794.77	5978	
794.95	4635.2	
795.12	4061.8	
795.3	5200.5	
795.47	5892	
795.65	4493.9	
795.82	4244.1	
796	5046.9	
796.17	7063.4	
796.35	4123.9	
796.52	4910.3	
796.7	5775.3	
796.87	5887.9	
797.05	5055.8	
797.22	5028.4	
797.4	5830.6	
797.57	6892.1	
797.75	4280.9	
797.92	4028.4	
798.1	6096.1	
798.27	5206.6	
798.45	3439.2	
798.62	3695.2	
798.8	5521.3	
798.97	6008.7	
799.15	4498.7	
799.32	4257.7	
799.5	4801.8	
799.67	5664.7	
799.85	4578.6	
800.02	3354.6	
800.2	5100.1	
800.37	5513.8	
800.55	4831.2	
800.72	3979.9	
800.9	5935	
801.07	6432.7	
801.25	5352.7	
801.42	4454.3	
801.6	5969.8	
801.77	5771.2	
801.95	4041.3	
802.12	3891.1	
802.29	5705.6	
802.47	5683.8	
802.64	4348.5	
802.82	3254.9	
802.99	5137	
803.17	6184.9	
803.34	4211.3	
803.52	3822.2	
803.69	6833.4	
803.87	4871.4	
804.04	4192.2	
804.21	4276.8	
804.39	6253.8	
804.56	5340.4	
804.74	3519.8	
804.91	4397	
805.09	5145.9	
805.26	5276.9	
805.44	3630.4	
805.61	3991.5	
805.78	5852.4	
805.96	5887.9	
806.13	4432.5	
806.31	4697.4	
806.48	4707.6	
806.66	5291.3	
806.83	4343.7	
807	4259.8	
807.18	5137	
807.35	5545.9	
807.53	4221.5	
807.7	3381.2	
807.87	6387.6	
808.05	5210.7	
808.22	4646.2	
808.4	3377.8	
808.57	5144.5	
808.74	4840.7	
808.92	3879.5	
809.09	4934.9	
809.27	5029.8	
809.44	5692	
809.61	3377.8	
809.79	3820.8	
809.96	6358.9	
810.14	5963.7	
810.31	3324.5	
810.48	4082.3	
810.66	5222.3	
810.83	6057.2	
811.01	3876.1	
811.18	4316.4	
811.35	5925.5	
811.53	4634.6	
811.7	4720.6	
811.87	4315.8	
812.05	5147.2	
812.22	5109	
812.39	3681.6	
812.57	3597.6	
812.74	5170.4	
812.92	6849.8	
813.09	4061.1	
813.26	4427	
813.44	6606.1	
813.61	5074.9	
813.78	3377.8	
813.96	4552.6	
814.13	5172.5	
814.3	4851	
814.48	4870.8	
814.65	4067.9	
814.82	6466.1	
815	4924.7	
815.17	4153.3	
815.34	5040.7	
815.52	5115.8	
815.69	5023	
815.87	4153.3	
816.04	3621.5	
816.21	5169.8	
816.38	4569	
816.56	4009.2	
816.73	3745.1	
816.9	6509.1	
817.08	5878.4	
817.25	3740.3	
817.42	4752.7	
817.6	4672.8	
817.77	5149.3	
817.94	4272.7	
818.12	3767.6	
818.29	4892.6	
818.46	7740	
818.64	3892.5	
818.81	3706.1	
818.98	4803.9	
819.16	7105.8	
819.33	4500.8	
819.5	4164.2	
819.67	5485.1	
819.85	6219.7	
820.02	4019.5	
820.19	4357.4	
820.37	5416.9	
820.54	4945.2	
820.71	4256.4	
820.88	5224.4	
821.06	5411.4	
821.23	4928.1	
821.4	4266.6	
821.58	4208.6	
821.75	5842.9	
821.92	5330.9	
822.09	3393.5	
822.27	3723.9	
822.44	5158.8	
822.61	5088.5	
822.79	3426.3	
822.96	6535.8	
823.13	5698.8	
823.3	4877.6	
823.48	3915	
823.65	3532.7	
823.82	5900.2	
823.99	4682.3	
824.17	4994.3	
824.34	3629.7	
824.51	6780.1	
824.68	5212.8	
824.86	3760.8	
825.03	4252.9	
825.2	5169.8	
825.37	6346.7	
825.55	3759.4	
825.72	4246.1	
825.89	6870.9	
826.06	6375.3	
826.24	4063.2	
826.41	4117.1	
826.58	6303.6	
826.75	5451.7	
826.92	3198.9	
827.1	3609.2	
827.27	8583.7	
827.44	6821.1	
827.61	3835.2	
827.79	4659.1	
827.96	4874.8	
828.13	5313.1	
828.3	4071.4	
828.47	3403	
828.65	5397.1	
828.82	5356.8	
828.99	5262.6	
829.16	4598.4	
829.34	5757.5	
829.51	5549.3	
829.68	4104.1	
829.85	4394.9	
830.02	6126.2	
830.2	5801.2	
830.37	3226.9	
830.54	5025.7	
830.71	6617	
830.88	5113.1	
831.05	3278.8	
831.23	3807.2	
831.4	6337.1	
831.57	7051.8	
831.74	3868.6	
831.91	3424.9	
832.09	5383.4	
832.26	5786.2	
832.43	4035.2	
832.6	4533.5	
832.77	5406	
832.94	6142.5	
833.12	3129.3	
833.29	3937.6	
833.46	5494.7	
833.63	7336.5	
833.8	4427	
833.97	3984	
834.15	5784.1	
834.32	5543.9	
834.49	4185.4	
834.66	4309.6	
834.83	6040.8	
835	4864.6	
835.17	3884.3	
835.35	3868.6	
835.52	5646.2	
835.69	5549.3	
835.86	4114.4	
836.03	3377.8	
836.2	5699.5	
836.37	5305.6	
836.55	3992.2	
836.72	3771	
836.89	5345.9	
837.06	5845.6	
837.23	4089.1	
837.4	4511.7	
837.57	6638.8	
837.75	7336.5	
837.92	3673.4	
838.09	3867.9	
838.26	5279	
838.43	6069.5	
838.6	4201.1	
838.77	3777.8	
838.94	6894.8	
839.11	6636.1	
839.29	4052.2	
839.46	3190.7	
839.63	5720.7	
839.8	5430.5	
839.97	3900	
840.14	3885.7	
840.31	5525.4	
840.48	5744.6	
840.65	3235.1	
840.82	3947.8	
841	5771.2	
841.17	5632.6	
841.34	3608.5	
841.51	3629	
841.68	5710.4	
841.85	5437.4	
842.02	3752.6	
842.19	3087	
842.36	5514.5	
842.53	5471.5	
842.7	3517	
842.87	4367.6	
843.05	7275.1	
843.22	5448.3	
843.39	3372.3	
843.56	3611.3	
843.73	5198.4	
843.9	5772.5	
844.07	5912.5	
844.24	4898.1	
844.41	8486.1	
844.58	4960.9	
844.75	3457.7	
844.92	3734.1	
845.09	5767.1	
845.26	5708.4	
845.43	3565.5	
845.6	3754.6	
845.77	5726.1	
845.94	5465.3	
846.12	3978.5	
846.29	4154.6	
846.46	5926.8	
846.63	5740.5	
846.8	3591.5	
846.97	4231.1	
847.14	6227.2	
847.31	5711.8	
847.48	3979.9	
847.65	4414.7	
847.82	6034	
847.99	6035.4	
848.16	4792.2	
848.33	4354	
848.5	5283.8	
848.67	6223.1	
848.84	3525.9	
849.01	3637.2	
849.18	5152	
849.35	4782.7	
849.52	4416.1	
849.69	3490.4	
849.86	5984.8	
850.03	6171.9	
850.2	3599	
850.37	4367	
850.54	6118.6	
850.71	5345.2	
850.88	4233.2	
851.05	3499.3	
851.22	5672.9	
851.39	6272.2	
851.56	3290.4	
851.73	4076.1	
851.9	5018.2	
852.07	6002.6	
852.24	3910.3	
852.41	3572.3	
852.58	5612.1	
852.75	5083.1	
852.92	3977.8	
853.09	3453.6	
853.26	5274.9	
853.43	6171.9	
853.6	3513.6	
853.77	3024.8	
853.94	6328.9	
854.11	5610.8	
854.28	5267.4	
854.44	3856.3	
854.61	6722.8	
854.78	6033.3	
854.95	3524.6	
855.12	4485.1	
855.29	4590.2	
855.46	6421.7	
855.63	3534.1	
855.8	4940.4	
855.97	5289.2	
856.14	6056.5	
856.31	5068.7	
856.48	3840.6	
856.65	5287.2	
856.82	4978.6	
856.99	3396.2	
857.16	3799.7	
857.33	6978.8	
857.49	5331.5	
857.66	3863.2	
857.83	4079.6	
858	5357.5	
858.17	5608.7	
858.34	3343.7	
858.51	3552.5	
858.68	6455.9	
858.85	6527.6	
859.02	4057	
859.19	4440	
859.36	4984.1	
859.52	5045.5	
859.69	3584.6	
859.86	4194.2	
860.03	5070.1	
860.2	6327.5	
860.37	3248.1	
860.54	3527.3	
860.71	5930.2	
860.88	6381.5	
861.05	3962.1	
861.21	4491.9	
861.38	6412.9	
861.55	4891.2	
861.72	3231	
861.89	3959.4	
862.06	6076.3	
862.23	6526.9	
862.4	3413.3	
862.56	3697.3	
862.73	5856.5	
862.9	5446.9	
863.07	4123.9	
863.24	3190.1	
863.41	4883.7	
863.58	4999.8	
863.75	3629	
863.91	4068.6	
864.08	6339.1	
864.25	5885.2	
864.42	4450.2	
864.59	4929.5	
864.76	6657.3	
864.93	5048.9	
865.09	3450.1	
865.26	3768.3	
865.43	6190.3	
865.6	6533.7	
865.77	3121.8	
865.94	3519.8	
866.1	6274.3	
866.27	6027.9	
866.44	5313.1	
866.61	3345	
866.78	5403.2	
866.95	5856.5	
867.11	3437.9	
867.28	3147	
867.45	6056.5	
867.62	5046.9	
867.79	4113.7	
867.96	3500.7	
868.12	4995	
868.29	5964.4	
868.46	3060.3	
868.63	4698	
868.8	6191	
868.97	5879.7	
869.13	3652.2	
869.3	3661.8	
869.47	5840.8	
869.64	6093.4	
869.81	3534.1	
869.97	3562.1	
870.14	5756.2	
870.31	6434.7	
870.48	3531.4	
870.65	4449.6	
870.81	5361.6	
870.98	5297.4	
871.15	4027	
871.32	3667.2	
871.48	5762.3	
871.65	6385.6	
871.82	3482.2	
871.99	3908.9	
872.16	6852.5	
872.32	6223.1	
872.49	3627	
872.66	3564.1	
872.83	6004.6	
872.99	5243.5	
873.16	4063.9	
873.33	3476.8	
873.5	5563	
873.67	5569.8	
873.83	3717.1	
874	4755.4	
874.17	5674.2	
874.34	6799.3	
874.5	4544.4	
874.67	4386.1	
874.84	6338.5	
875.01	5015.5	
875.17	4974.5	
875.34	3532.7	
875.51	5610.8	
875.68	6794.5	
875.84	4248.2	
876.01	5158.8	
876.18	5911.8	
876.34	5875.6	
876.51	3572.3	
876.68	3476.8	
876.85	5372.5	
877.01	6189.6	
877.18	5042.8	
877.35	3564.8	
877.52	5479.7	
877.68	4862.6	
877.85	3386	
878.02	3479.5	
878.18	5493.3	
878.35	5165.7	
878.52	2799.6	
878.69	3952.6	
878.85	5967.1	
879.02	5898.1	
879.19	4984.1	
879.35	3816	
879.52	5948.7	
879.69	6141.9	
879.86	3040.6	
880.02	3963.5	
880.19	5428.5	
880.36	6792.4	
880.52	4088.4	
880.69	4208.6	
880.86	6070.2	
881.02	6081.1	
881.19	3893.2	
881.36	3850.9	
881.52	5922	
881.69	5230.5	
881.86	3796.3	
882.02	3692.5	
882.19	6176.7	
882.36	7259.4	
882.52	3642	
882.69	4965.6	
882.86	5686.5	
883.02	5489.2	
883.19	4344.4	
883.36	4104.8	
883.52	5999.2	
883.69	6893.5	
883.86	3596.2	
884.02	3163.4	
884.19	5970.5	
884.36	5469.4	
884.52	4005.1	
884.69	3690.4	
884.86	5190.2	
885.02	6597.9	
885.19	3958.7	
885.36	4070	
885.52	5556.8	
885.69	5653.1	
885.86	5081	
886.02	4543.1	
886.19	5961	
886.35	5439.4	
886.52	3887	
886.69	4921.3	
886.85	5117.9	
887.02	6365.8	
887.19	6365.8	
887.35	6365.8	
887.52	6365.8	
887.68	6365.8	
887.85	6365.8	
888.02	6365.8	
888.18	6365.8	
888.35	6365.8	
888.51	6365.8	
888.68	6365.8	
888.85	6365.8	
889.01	6365.8	
889.18	6365.8	
889.35	6365.8	
889.51	6365.8	
889.68	6365.8	
889.84	6365.8	
890.01	6365.8	
890.17	6365.8	
890.34	6365.8	
890.51	6365.8	
890.67	6365.8	
890.84	6365.8	
891	6365.8	
891.17	6365.8	
891.34	6365.8	
891.5	6365.8	
891.67	6365.8	
891.83	6365.8	
892	6365.8	
892.16	6365.8	
892.33	6365.8	
892.5	6365.8	
892.66	6365.8	
892.83	6365.8	
892.99	6365.8	
893.16	6365.8	
893.32	6365.8	
893.49	6365.8	
893.65	6365.8	
893.82	6365.8	
893.99	6365.8	
894.15	6365.8	
894.32	6365.8	
894.48	6365.8	
894.65	6365.8	
894.81	6365.8	
894.98	6365.8	
895.14	6365.8	
895.31	6365.8	
895.47	6365.8	
895.64	6365.8	
895.81	6365.8	
895.97	6365.8	
896.14	6365.8	
896.3	6365.8	
896.47	6365.8	
896.63	6365.8	
896.8	6365.8	
896.96	6365.8	
897.13	6365.8	
897.29	6365.8	
897.46	6365.8	
897.62	6365.8	
897.79	6365.8	
897.95	6365.8	
898.12	6365.8	
898.28	6365.8	
898.45	6365.8	
898.61	6365.8	
898.78	6365.8	
898.94	6365.8	
899.11	6365.8	
899.27	6365.8	
899.44	6365.8	
899.6	6365.8	
899.77	6365.8	
899.93	6365.8	
900.1	6365.8	
900.26	6365.8	
900.43	6365.8	
900.59	6365.8	
900.76	6365.8	
900.92	6365.8	
901.09	6365.8	
901.25	6365.8	
901.42	6365.8	
901.58	6365.8	
901.75	6365.8	
901.91	6365.8	
902.07	6365.8	
902.24	6365.8	
902.4	6365.8	
902.57	6365.8	
902.73	6365.8	
902.9	6365.8	
903.06	6365.8	
903.23	6365.8	
903.39	6365.8	
903.56	6365.8	
903.72	6365.8	
903.88	6365.8	
904.05	6365.8	
904.21	6365.8	
904.38	6365.8	
904.54	6365.8	
904.71	6365.8	
904.87	6365.8	
905.03	6365.8	
905.2	6365.8	
905.36	6365.8	
905.53	6365.8	
905.69	6365.8	
905.86	6365.8	
906.02	6365.8	
906.18	6365.8	
906.35	6365.8	
906.51	6365.8	
906.68	6365.8	
906.84	6365.8	
907.01	6365.8	
907.17	6365.8	
907.33	6365.8	
907.5	6365.8	
907.66	6365.8	
907.83	6365.8	
907.99	6365.8	
908.15	6365.8	
908.32	6365.8	
908.48	6365.8	
908.65	6365.8	
908.81	6365.8	
908.97	6365.8	
909.14	6365.8	
909.3	6365.8	
909.47	6365.8	
909.63	6365.8	
909.79	6365.8	
909.96	6365.8	
910.12	6365.8	
910.28	6365.8	
910.45	6365.8	
910.61	6365.8	
910.78	6365.8	
910.94	6365.8	
911.1	6365.8	
911.27	6365.8	
911.43	6365.8	
911.59	6365.8	
911.76	6365.8	
911.92	6365.8	
912.08	6365.8	
912.25	6365.8	
912.41	6365.8	
912.57	6365.8	
912.74	6365.8	
912.9	6365.8	
913.07	6365.8	
913.23	6365.8	
913.39	6365.8	
913.56	6365.8	
913.72	6365.8	
913.88	6365.8	
914.05	6365.8	
914.21	6365.8	
914.37	6365.8	
914.54	6365.8	
914.7	6365.8	
914.86	6365.8	
915.03	6365.8	
915.19	6365.8	
