Wavelength	Intensities	
nm	a.u.	
179.22	1629.8	
179.44	1634.3	
179.65	1625.4	
179.86	1643.2	
180.08	1671.1	
180.29	3657.7	
180.51	2900.6	
180.72	4855.7	
180.94	5282.4	
181.15	2609.1	
181.37	2551.8	
181.58	4642.1	
181.79	4833.2	
182.01	2653.5	
182.22	2832.3	
182.44	4853	
182.65	4230.4	
182.87	3420.8	
183.08	3078.1	
183.29	5049.6	
183.51	4246.8	
183.72	2800.3	
183.94	3900.7	
184.15	4586.1	
184.37	4465.3	
184.58	2568.8	
184.79	3287	
185.01	4324.6	
185.22	4874.2	
185.44	3476.8	
185.65	3037.8	
185.86	4601.1	
186.08	4218.1	
186.29	2515.6	
186.51	2631	
186.72	4368.3	
186.94	4898.7	
187.15	3082.9	
187.36	3087.7	
187.58	6044.9	
187.79	4629.8	
188.01	3196.2	
188.22	4680.3	
188.43	5361.6	
188.65	4832.5	
188.86	2706	
189.08	3151.8	
189.29	4404.5	
189.5	4362.9	
189.72	2851.5	
189.93	2928.6	
190.15	4964.3	
190.36	5690.6	
190.57	3106.1	
190.79	3037.8	
191	5000.5	
191.22	4896.7	
191.43	3140.2	
191.64	2717.7	
191.86	5152.7	
192.07	4861.9	
192.29	2819.4	
192.5	2919	
192.71	4964.3	
192.93	4442.7	
193.14	2897.9	
193.35	2895.8	
193.57	4400.4	
193.78	4955.4	
194	2388.6	
194.21	2806.4	
194.42	4222.9	
194.64	4597	
194.85	3093.8	
195.07	3466.5	
195.28	4467.3	
195.49	4107.5	
195.71	3676.8	
195.92	2678.7	
196.13	4730.8	
196.35	4736.3	
196.56	3900.7	
196.78	3065.8	
196.99	5700.2	
197.2	5268.1	
197.42	3366.9	
197.63	3090.4	
197.84	4139.6	
198.06	4700.1	
198.27	2856.2	
198.48	3599	
198.7	4365.6	
198.91	4593.6	
199.13	3099.9	
199.34	3102	
199.55	4965.6	
199.77	4028.4	
199.98	2762	
200.19	3181.2	
200.41	4560.8	
200.62	4293.2	
200.83	3190.1	
201.05	3393.5	
201.26	4511	
201.47	4379.9	
201.69	2778.4	
201.9	2722.4	
202.11	4541.7	
202.33	5218.2	
202.54	2917	
202.76	3267.2	
202.97	4605.9	
203.18	4674.8	
203.4	3192.1	
203.61	3168.9	
203.82	4601.8	
204.04	4293.2	
204.25	3162.1	
204.46	3054.9	
204.68	4621.6	
204.89	4752.7	
205.1	3011.9	
205.32	2736.1	
205.53	4808.6	
205.74	4969.1	
205.96	2393.4	
206.17	3167.5	
206.38	4829.1	
206.6	4962.9	
206.81	3459.7	
207.02	2919.7	
207.24	4735.6	
207.45	5024.3	
207.66	2986.6	
207.88	2582.5	
208.09	4707.6	
208.3	4584.7	
208.52	2803.7	
208.73	3065.8	
208.94	4570.4	
209.15	5031.2	
209.37	2930.6	
209.58	3056.3	
209.79	4911	
210.01	4466.6	
210.22	2485.6	
210.43	2567.5	
210.65	4532.8	
210.86	4751.3	
211.07	2998.9	
211.29	2749.7	
211.5	4779.3	
211.71	4571.7	
211.93	2792.7	
212.14	2796.8	
212.35	4551.3	
212.56	4596.3	
212.78	3095.2	
212.99	2639.1	
213.2	5194.3	
213.42	4442	
213.63	2855.6	
213.84	2957.3	
214.06	4179.9	
214.27	4216.8	
214.48	2946.3	
214.69	3132.7	
214.91	5015.5	
215.12	5081	
215.33	3136.1	
215.55	3381.2	
215.76	5394.3	
215.97	4789.5	
216.18	3024.8	
216.4	2986.6	
216.61	4292.5	
216.82	4892.6	
217.04	2811.2	
217.25	2902	
217.46	5005.2	
217.67	4814.1	
217.89	2561.3	
218.1	2619.4	
218.31	4652.3	
218.53	4726	
218.74	2960.7	
218.95	2866.5	
219.16	4524	
219.38	5196.4	
219.59	2828.2	
219.8	3282.9	
220.01	5565	
220.23	4566.3	
220.44	3510.2	
220.65	2749.1	
220.87	4647.5	
221.08	4977.9	
221.29	2661	
221.5	3336.8	
221.72	5860.6	
221.93	4369.7	
222.14	3121.1	
222.35	3635.8	
222.57	4647.5	
222.78	4919.9	
222.99	2974.3	
223.2	3156.6	
223.42	4754.7	
223.63	4838	
223.84	2389.3	
224.05	2387.2	
224.27	5444.2	
224.48	5141.1	
224.69	3647.4	
224.9	3116.3	
225.12	4696	
225.33	4552.6	
225.54	2586.6	
225.75	2844.6	
225.97	4274.1	
226.18	4517.1	
226.39	2967.5	
226.6	2810.5	
226.82	4405.2	
227.03	4296	
227.24	3099.3	
227.45	2678.7	
227.67	4884.4	
227.88	5089.2	
228.09	3446.7	
228.3	3432.4	
228.52	4833.9	
228.73	4524	
228.94	2907.4	
229.15	2614.6	
229.36	4524.6	
229.58	4488.5	
229.79	2940.2	
230	3344.3	
230.21	5342.5	
230.43	4581.3	
230.64	3059	
230.85	3161.4	
231.06	4903.5	
231.28	4883.7	
231.49	2633.7	
231.7	3078.1	
231.91	4863.2	
232.12	4557.4	
232.34	2755.9	
232.55	3047.4	
232.76	4992.3	
232.97	4632.5	
233.18	2807.8	
233.4	3093.8	
233.61	4654.4	
233.82	4372.4	
234.03	2955.2	
234.25	2836.4	
234.46	5917.9	
234.67	4589.5	
234.88	3189.4	
235.09	2807.1	
235.31	4761.5	
235.52	4434.5	
235.73	3136.8	
235.94	2669.9	
236.15	4373.1	
236.37	5292	
236.58	2783.2	
236.79	2997.5	
237	4737	
237.21	4216.8	
237.43	3277.4	
237.64	2613.2	
237.85	7247.8	
238.06	4265.2	
238.27	3188	
238.48	2674	
238.7	4818.2	
238.91	4482.3	
239.12	2904.7	
239.33	3048.1	
239.54	4442	
239.76	4486.4	
239.97	2957.3	
240.18	2979.8	
240.39	5390.3	
240.6	4709.6	
240.82	3123.2	
241.03	2625.5	
241.24	4516.5	
241.45	5128.1	
241.66	2764.8	
241.87	3203	
242.09	5126.7	
242.3	5302.9	
242.51	3256.3	
242.72	2975	
242.93	4795	
243.14	4575.8	
243.36	3409.2	
243.57	3581.9	
243.78	5128.1	
243.99	4880.3	
244.2	3010.5	
244.41	2729.3	
244.63	4273.4	
244.84	4724.7	
245.05	3153.2	
245.26	2908.8	
245.47	4769.7	
245.68	4879.6	
245.9	3849.5	
246.11	3135.4	
246.32	4392.2	
246.53	4746.5	
246.74	4551.3	
246.95	2570.9	
247.16	4311	
247.38	4587.4	
247.59	2590.7	
247.8	3020.8	
248.01	4270	
248.22	4506.9	
248.43	2766.1	
248.64	2933.4	
248.86	4187.4	
249.07	4386.7	
249.28	2708.1	
249.49	3118.4	
249.7	4909	
249.91	4968.4	
250.12	2620.7	
250.34	2627.5	
250.55	4623.6	
250.76	4587.4	
250.97	3054.9	
251.18	3118.4	
251.39	4942.4	
251.6	4661.9	
251.81	3120.4	
252.03	3085.6	
252.24	4383.3	
252.45	4863.2	
252.66	2657.6	
252.87	3198.9	
253.08	4571.7	
253.29	5767.8	
253.5	2705.4	
253.72	3549.1	
253.93	4483	
254.14	5167.7	
254.35	2877.4	
254.56	2940.2	
254.77	4672.1	
254.98	4299.4	
255.19	2860.3	
255.41	3481.5	
255.62	4691.9	
255.83	4976.6	
256.04	3214.6	
256.25	3087	
256.46	5349.3	
256.67	4374.5	
256.88	3020.1	
257.09	3387.3	
257.31	4250.9	
257.52	4362.9	
257.73	3768.3	
257.94	2894.5	
258.15	4544.4	
258.36	4554.7	
258.57	3506.1	
258.78	2385.2	
258.99	4890.5	
259.2	4433.9	
259.41	2848	
259.63	2966.8	
259.84	5085.1	
260.05	5424.4	
260.26	3567.6	
260.47	2841.2	
260.68	4946.5	
260.89	4471.4	
261.1	3345	
261.31	2761.3	
261.52	5072.8	
261.73	5175.2	
261.95	3618.1	
262.16	3213.3	
262.37	5013.4	
262.58	5136.3	
262.79	3583.9	
263	2889	
263.21	4612.7	
263.42	4169	
263.63	3173	
263.84	2906.1	
264.05	4910.3	
264.26	5172.5	
264.47	3460.4	
264.69	3205.1	
264.9	5141.1	
265.11	4691.9	
265.32	2833.7	
265.53	2839.2	
265.74	4673.5	
265.95	4145.1	
266.16	2970.9	
266.37	3297.9	
266.58	4703.5	
266.79	4408.6	
267	2837.8	
267.21	2707.4	
267.42	4261.1	
267.63	4532.2	
267.84	2967.5	
268.06	2626.2	
268.27	4938.3	
268.48	5027.8	
268.69	2946.3	
268.9	3373.7	
269.11	5069.4	
269.32	4177.9	
269.53	2970.9	
269.74	2845.3	
269.95	4739.7	
270.16	4136.9	
270.37	2997.5	
270.58	3438.5	
270.79	4468.7	
271	4971.1	
271.21	3139.5	
271.42	3020.1	
271.63	4747.9	
271.84	4270.7	
272.05	2481.5	
272.26	2779.1	
272.47	4585.4	
272.68	4742.4	
272.89	2927.9	
273.11	3257	
273.32	4468	
273.53	5111.7	
273.74	3162.7	
273.95	3119.1	
274.16	4870.8	
274.37	4594.3	
274.58	3258.3	
274.79	2684.2	
275	4755.4	
275.21	4961.5	
275.42	3822.2	
275.63	3251.5	
275.84	4789.5	
276.05	5726.1	
276.26	3147	
276.47	2925.9	
276.68	4508.3	
276.89	5273.5	
277.1	3329.3	
277.31	2681.5	
277.52	4741.7	
277.73	4999.8	
277.94	2628.2	
278.15	2887.6	
278.36	4715.1	
278.57	4380.6	
278.78	2903.3	
278.99	3227.6	
279.2	4401.8	
279.41	4273.4	
279.62	3689.8	
279.83	2727.2	
280.04	5350	
280.25	4287.8	
280.46	3597.6	
280.67	2977.7	
280.88	4376.5	
281.09	5005.2	
281.3	3104	
281.51	3833.1	
281.72	4415.4	
281.93	4853	
282.14	2902.7	
282.35	3070.6	
282.56	4951.3	
282.77	4874.2	
282.98	2927.9	
283.19	3349.1	
283.4	5768.4	
283.61	4542.4	
283.82	2765.4	
284.03	3553.2	
284.24	4766.3	
284.45	4941.7	
284.66	3658.4	
284.87	3414	
285.08	5022.3	
285.29	5008	
285.5	2642.6	
285.71	2960.7	
285.92	4975.9	
286.12	5438	
286.33	3617.4	
286.54	2981.2	
286.75	4868	
286.96	4486.4	
287.17	2769.5	
287.38	3476.8	
287.59	4420.2	
287.8	4403.1	
288.01	2960	
288.22	3254.2	
288.43	4737.6	
288.64	4146.5	
288.85	3420.8	
289.06	3241.3	
289.27	5015.5	
289.48	5062.6	
289.69	3629.7	
289.9	3327.3	
290.11	5009.3	
290.32	4450.9	
290.53	3454.2	
290.74	3218	
290.94	4910.3	
291.15	4952	
291.36	2865.1	
291.57	3295.2	
291.78	4463.9	
291.99	4194.9	
292.2	2804.4	
292.41	3246	
292.62	4956.8	
292.83	4789.5	
293.04	3829.7	
293.25	2852.1	
293.46	4497.3	
293.67	4917.9	
293.88	2809.1	
294.09	2799.6	
294.29	4315.1	
294.5	4635.2	
294.71	3027.6	
294.92	2878.1	
295.13	4474.8	
295.34	5388.9	
295.55	2623.4	
295.76	2551.8	
295.97	4838.7	
296.18	5287.9	
296.39	2716.3	
296.6	2850.1	
296.81	4590.2	
297.01	4881	
297.22	2930.6	
297.43	2916.3	
297.64	4436.6	
297.85	4293.9	
298.06	2456.2	
298.27	2613.9	
298.48	4534.9	
298.69	4351.9	
298.9	3069.2	
299.11	2797.5	
299.31	4268.6	
299.52	4295.3	
299.73	3257	
299.94	3132.7	
300.15	4602.5	
300.36	4356	
300.57	3166.2	
300.78	3094.5	
300.99	4476.9	
301.2	4602.5	
301.4	2820.7	
301.61	3041.9	
301.82	4814.1	
302.03	4910.3	
302.24	3385.3	
302.45	2736.1	
302.66	4790.9	
302.87	5039.4	
303.08	2844.6	
303.29	3734.1	
303.49	4448.2	
303.7	4517.1	
303.91	2614.6	
304.12	3581.2	
304.33	4218.1	
304.54	4688.5	
304.75	2864.4	
304.96	2747	
305.16	4762.9	
305.37	5260.5	
305.58	2570.9	
305.79	2616.6	
306	4810	
306.21	4136.2	
306.42	2824.8	
306.63	4076.1	
306.83	4442	
307.04	4814.1	
307.25	3139.5	
307.46	3059.7	
307.67	4098.7	
307.88	4817.5	
308.09	2861	
308.29	2898.6	
308.5	4663.2	
308.71	4944.5	
308.92	3011.2	
309.13	2763.4	
309.34	4585.4	
309.55	4499.4	
309.75	3435.1	
309.96	3179.1	
310.17	4876.2	
310.38	4335.5	
310.59	3269.2	
310.8	3191.4	
311.01	4652.3	
311.21	4497.3	
311.42	2747.7	
311.63	2787.3	
311.84	4451.6	
312.05	4614.1	
312.26	3141.6	
312.46	3412.6	
312.67	4448.9	
312.88	4216.8	
313.09	2790	
313.3	2704	
313.51	5132.2	
313.71	5368.4	
313.92	2781.1	
314.13	2875.3	
314.34	4763.6	
314.55	4565.6	
314.76	3439.2	
314.96	3005.1	
315.17	4785.4	
315.38	4759.5	
315.59	2820.7	
315.8	2667.1	
316.01	5037.3	
316.21	5166.3	
316.42	2759.3	
316.63	3035.8	
316.84	4501.4	
317.05	4941.7	
317.26	3206.4	
317.46	2913.6	
317.67	4554	
317.88	4810	
318.09	3452.9	
318.3	2617.3	
318.5	4425.7	
318.71	4794.3	
318.92	4202.4	
319.13	3205.8	
319.34	4898.1	
319.54	5008	
319.75	2592	
319.96	2529.2	
320.17	4760.2	
320.38	4923.3	
320.58	2587.3	
320.79	2979.8	
321	4971.1	
321.21	5071.5	
321.42	3036.5	
321.62	2591.4	
321.83	4354.7	
322.04	4643.4	
322.25	2951.8	
322.46	2762.7	
322.66	4602.5	
322.87	4801.1	
323.08	3230.3	
323.29	2725.8	
323.5	5331.5	
323.7	4235.2	
323.91	3609.9	
324.12	3254.9	
324.33	4711	
324.53	4782	
324.74	3121.8	
324.95	3238.5	
325.16	4268	
325.37	4498	
325.57	2812.5	
325.78	2790	
325.99	4706.9	
326.2	4211.3	
326.4	3758	
326.61	2600.2	
326.82	4524	
327.03	4657.8	
327.24	3751.2	
327.44	3561.4	
327.65	4756.1	
327.86	4048.2	
328.07	3228.3	
328.27	2766.8	
328.48	5078.3	
328.69	4231.8	
328.9	3788.1	
329.1	2918.4	
329.31	4557.4	
329.52	5073.5	
329.73	2791.4	
329.93	3036.5	
330.14	4685.1	
330.35	4725.3	
330.56	4270	
330.76	3355.9	
330.97	4478.9	
331.18	4693.3	
331.39	3067.9	
331.59	2545.6	
331.8	4930.1	
332.01	5077.6	
332.22	2878.1	
332.42	3203.7	
332.63	4622.3	
332.84	4318.5	
333.05	3108.1	
333.25	2813.9	
333.46	4382.7	
333.67	4594.3	
333.88	2912.9	
334.08	3098.6	
334.29	5814.9	
334.5	4990.9	
334.7	2721.1	
334.91	3785.3	
335.12	4261.8	
335.33	4801.1	
335.53	3071.3	
335.74	4238.6	
335.95	4487.1	
336.16	4272.1	
336.36	3037.8	
336.57	3443.3	
336.78	4255	
336.98	4982.7	
337.19	3679.5	
337.4	2987.3	
337.61	5386.2	
337.81	4285	
338.02	2888.3	
338.23	3472.7	
338.43	5120.6	
338.64	4356	
338.85	2826.9	
339.05	3530.7	
339.26	5165.7	
339.47	4262.5	
339.68	2798.9	
339.88	3893.9	
340.09	4788.8	
340.3	4945.2	
340.5	3210.5	
340.71	2581.1	
340.92	4273.4	
341.13	5032.5	
341.33	2683.5	
341.54	3172.3	
341.75	4678.2	
341.95	4506.9	
342.16	3034.4	
342.37	3295.9	
342.57	4302.8	
342.78	4514.4	
342.99	3330	
343.19	2582.5	
343.4	4844.8	
343.61	4741.7	
343.81	2984.6	
344.02	2706	
344.23	4881.7	
344.43	5121.3	
344.64	3388.7	
344.85	3313.6	
345.06	4792.2	
345.26	4962.9	
345.47	3201.7	
345.68	3648.1	
345.88	4216.8	
346.09	4915.8	
346.3	3200.3	
346.5	2508.8	
346.71	4554	
346.92	4354	
347.12	2666.5	
347.33	3123.8	
347.54	4962.9	
347.74	5190.2	
347.95	3138.9	
348.16	2486.9	
348.36	4382.7	
348.57	4368.3	
348.78	3230.3	
348.98	3345	
349.19	4554	
349.39	4181.3	
349.6	2658.3	
349.81	2872.6	
350.01	4806.6	
350.22	4338.3	
350.43	3114.3	
350.63	3572.3	
350.84	4586.8	
351.05	4429.1	
351.25	2829.6	
351.46	2638.5	
351.67	4973.8	
351.87	4333.5	
352.08	3002.3	
352.29	3310.2	
352.49	4922.6	
352.7	4710.3	
352.9	2794.8	
353.11	3356.6	
353.32	5352.7	
353.52	4505.5	
353.73	2779.8	
353.94	3418.1	
354.14	4807.3	
354.35	4650.9	
354.55	2897.2	
354.76	3135.4	
354.97	4857.8	
355.17	4579.9	
355.38	2760.7	
355.59	3609.2	
355.79	4417.5	
356	4629.1	
356.2	3151.8	
356.41	2821.4	
356.62	4284.4	
356.82	4607.9	
357.03	3334.8	
357.24	3068.5	
357.44	4405.2	
357.65	4539	
357.85	3892.5	
358.06	3239.9	
358.27	4247.5	
358.47	4387.4	
358.68	2781.1	
358.88	3394.2	
359.09	4886.5	
359.3	5035.3	
359.5	3844	
359.71	3468.6	
359.91	5416.2	
360.12	4988.9	
360.33	3416	
360.53	3744.4	
360.74	4558.8	
360.94	4586.8	
361.15	3553.2	
361.36	3111.5	
361.56	5143.8	
361.77	4797.7	
361.97	3977.2	
362.18	3274	
362.38	5212.1	
362.59	4493.9	
362.8	3078.8	
363	2929.3	
363.21	4435.9	
363.41	4898.7	
363.62	3498.6	
363.83	4098.7	
364.03	5072.8	
364.24	5662	
364.44	4311	
364.65	4237.2	
364.85	4883	
365.06	4628.4	
365.27	3259	
365.47	3361.4	
365.68	5552.7	
365.88	4930.1	
366.09	3607.2	
366.29	3304.1	
366.5	5074.2	
366.71	5369.1	
366.91	4323.3	
367.12	3757.3	
367.32	5859.2	
367.53	5257.8	
367.73	3836.5	
367.94	4460.5	
368.14	5402.5	
368.35	5920	
368.56	3750.5	
368.76	3583.9	
368.97	5473.5	
369.17	6479.8	
369.38	3374.4	
369.58	3614	
369.79	4733.5	
369.99	5700.9	
370.2	4347.8	
370.4	3701.4	
370.61	5190.9	
370.82	6100.9	
371.02	3679.5	
371.23	3158.7	
371.43	4707.6	
371.64	5678.3	
371.84	3851.5	
372.05	4491.2	
372.25	6628.6	
372.46	5485.1	
372.66	3833.1	
372.87	3753.9	
373.07	5582.1	
373.28	6806.8	
373.48	4542.4	
373.69	4314.4	
373.9	5378.6	
374.1	5362.3	
374.31	4599.7	
374.51	4264.6	
374.72	5992.4	
374.92	5164.3	
375.13	4853.7	
375.33	4257	
375.54	5780.1	
375.74	5427.8	
375.95	4476.2	
376.15	5218.9	
376.36	5861.3	
376.56	5840.1	
376.77	4468	
376.97	4773.1	
377.18	6838.9	
377.38	6044.2	
377.59	5034.6	
377.79	4265.2	
378	5971.2	
378.2	6231.3	
378.41	4375.8	
378.61	4262.5	
378.82	6316.6	
379.02	5853.8	
379.23	4642.1	
379.43	5389.6	
379.64	6598.6	
379.84	6264.1	
380.05	4477.5	
380.25	4328	
380.46	6326.2	
380.66	5926.1	
380.87	5401.9	
381.07	5549.3	
381.28	6744.6	
381.48	6287.9	
381.69	4435.2	
381.89	4457.1	
382.1	5512.4	
382.3	6328.9	
382.51	5190.9	
382.71	5844.9	
382.91	6176.7	
383.12	6563.1	
383.32	4637.3	
383.53	4801.1	
383.73	6037.4	
383.94	5941.2	
384.14	4821.6	
384.35	4098	
384.55	5844.2	
384.76	6145.3	
384.96	4637.3	
385.17	4741.7	
385.37	6146.6	
385.58	5585.5	
385.78	4775.2	
385.98	3953.3	
386.19	5735.7	
386.39	5959.6	
386.6	4475.5	
386.8	4500.8	
387.01	6159.6	
387.21	6202.6	
387.42	4825.7	
387.62	5223	
387.83	5669.5	
388.03	6008.1	
388.23	4674.8	
388.44	5183.4	
388.64	5547.9	
388.85	5730.9	
389.05	5029.1	
389.26	5475.6	
389.46	7236.2	
389.67	6823.1	
389.87	5199.1	
390.07	5150.6	
390.28	6195.8	
390.48	5873.6	
390.69	4661.2	
390.89	4857.8	
391.1	6044.2	
391.3	6665.5	
391.5	5640.8	
391.71	6057.2	
391.91	6600.6	
392.12	7195.9	
392.32	5743.2	
392.53	5158.8	
392.73	6191.7	
392.93	6231.3	
393.14	4997	
393.34	5692	
393.55	6544.6	
393.75	6148	
393.95	4926	
394.16	4812	
394.36	6109.8	
394.57	6496.2	
394.77	4563.6	
394.98	4719.9	
395.18	6084.5	
395.38	6115.2	
395.59	5554.8	
395.79	4842.8	
396	6346.7	
396.2	6641.6	
396.4	5588.2	
396.61	5552	
396.81	6892.8	
397.02	6525.5	
397.22	5965.1	
397.42	5946.6	
397.63	7090.1	
397.83	6567.8	
398.04	5156.1	
398.24	5627.1	
398.44	6853.2	
398.65	6339.8	
398.85	5197.7	
399.05	5223	
399.26	6722.8	
399.46	7785	
399.67	5568.4	
399.87	5401.9	
400.07	6984.3	
400.28	7245	
400.48	5580	
400.69	6397.2	
400.89	7445	
401.09	7792.5	
401.3	5617.6	
401.5	6393.8	
401.7	8128.4	
401.91	8322.3	
402.11	6061.3	
402.32	6016.2	
402.52	7747.5	
402.72	7448.5	
402.93	6294.1	
403.13	5313.1	
403.33	8111.3	
403.54	6948.8	
403.74	5849.7	
403.94	6197.2	
404.15	6940.6	
404.35	7729.7	
404.56	5509	
404.76	6642.9	
404.96	7199.3	
405.17	7049.8	
405.37	6197.2	
405.57	5974.6	
405.78	7551.5	
405.98	7041.6	
406.18	5782.1	
406.39	6414.2	
406.59	7537.2	
406.79	7165.8	
407	5620.3	
407.2	5636.7	
407.4	7717.4	
407.61	7703.1	
407.81	5761.6	
408.01	7288.7	
408.22	6879.1	
408.42	8359.8	
408.62	6872.3	
408.83	6557.6	
409.03	7846.5	
409.23	7864.9	
409.44	6969.2	
409.64	7089.4	
409.84	8994	
410.05	8985.8	
410.25	7469.6	
410.45	7239.6	
410.66	9114.1	
410.86	10578	
411.06	8006.9	
411.27	7807.5	
411.47	10806	
411.67	9330.5	
411.88	8073.1	
412.08	8554.4	
412.28	9985.9	
412.49	10279	
412.69	8308.6	
412.89	8314.8	
413.09	10250	
413.3	10360	
413.5	8538	
413.7	8333.2	
413.91	9766.8	
414.11	10447	
414.31	8638.3	
414.52	9029.5	
414.72	10245	
414.92	10342	
415.12	8473.8	
415.33	9024	
415.53	10722	
415.73	10815	
415.94	9233.6	
416.14	8815.1	
416.34	10154	
416.55	9846.6	
416.75	9739.5	
416.95	9411.1	
417.15	11026	
417.36	11075	
417.56	10087	
417.76	9430.2	
417.97	11099	
418.17	11002	
418.37	9202.9	
418.57	9308.7	
418.78	10962	
418.98	10508	
419.18	9858.9	
419.38	9736	
419.59	10605	
419.79	10202	
419.99	9129.8	
420.2	9272.5	
420.4	10885	
420.6	10851	
420.8	9010.4	
421.01	8824	
421.21	10866	
421.41	10906	
421.61	9142.8	
421.82	9022.7	
422.02	10712	
422.22	11065	
422.42	9753.8	
422.63	9003.6	
422.83	10479	
423.03	11346	
423.23	9215.9	
423.44	8609	
423.64	10464	
423.84	9992	
424.04	8862.2	
424.25	8572.1	
424.45	10860	
424.65	10797	
424.85	8460.2	
425.06	8803.5	
425.26	10979	
425.46	10198	
425.66	9060.9	
425.87	8825.4	
426.07	10720	
426.27	10480	
426.47	8916.9	
426.67	8392.6	
426.88	10862	
427.08	10447	
427.28	9201.5	
427.48	8209.6	
427.69	9650	
427.89	10129	
428.09	8966.7	
428.29	8385.1	
428.5	10524	
428.7	10227	
428.9	8291.5	
429.1	8615.1	
429.3	10180	
429.51	10456	
429.71	8401.5	
429.91	9258.2	
430.11	10633	
430.31	11027	
430.52	8746.2	
430.72	9160.6	
430.92	10953	
431.12	10639	
431.32	8727.8	
431.53	9024	
431.73	10032	
431.93	10940	
432.13	8606.9	
432.33	8672.5	
432.54	10274	
432.74	10602	
432.94	8713.4	
433.14	9285.5	
433.34	10788	
433.55	10639	
433.75	9368.8	
433.95	10798	
434.15	10773	
434.35	10545	
434.56	8882.7	
434.76	8728.4	
434.96	10877	
435.16	11198	
435.36	8927.1	
435.56	9925.1	
435.77	10892	
435.97	10915	
436.17	10460	
436.37	9896.5	
436.57	10862	
436.78	10941	
436.98	9598.1	
437.18	10215	
437.38	11568	
437.58	10922	
437.78	10389	
437.99	9465.7	
438.19	11007	
438.39	12282	
438.59	9380.4	
438.79	8817.9	
438.99	11598	
439.2	10711	
439.4	8551.6	
439.6	8723.7	
439.8	10791	
440	11671	
440.2	9735.4	
440.4	9747.6	
440.61	11491	
440.81	11826	
441.01	9491.7	
441.21	10321	
441.41	12244	
441.61	11578	
441.81	10648	
442.02	11201	
442.22	12493	
442.42	11981	
442.62	9833.7	
442.82	9808.4	
443.02	12235	
443.22	11671	
443.43	10307	
443.63	9799.5	
443.83	11312	
444.03	11448	
444.23	10890	
444.43	10454	
444.63	11996	
444.83	12683	
445.04	10321	
445.24	10968	
445.44	12005	
445.64	12225	
445.84	10429	
446.04	10649	
446.24	11448	
446.44	12131	
446.65	9747.6	
446.85	10234	
447.05	11310	
447.25	11962	
447.45	9994.8	
447.65	9524.4	
447.85	11491	
448.05	10966	
448.25	10307	
448.46	10187	
448.66	11470	
448.86	11235	
449.06	9587.2	
449.26	10290	
449.46	11736	
449.66	11157	
449.86	10294	
450.06	10144	
450.26	11355	
450.47	11832	
450.67	10109	
450.87	10440	
451.07	11863	
451.27	11669	
451.47	9808.4	
451.67	10609	
451.87	11661	
452.07	12115	
452.27	10127	
452.47	9886.9	
452.67	11670	
452.88	11919	
453.08	9334	
453.28	10941	
453.48	12782	
453.68	11512	
453.88	10032	
454.08	10058	
454.28	12060	
454.48	11831	
454.68	10437	
454.88	10654	
455.08	12121	
455.28	12137	
455.48	9839.1	
455.68	10619	
455.89	12659	
456.09	12416	
456.29	10421	
456.49	10707	
456.69	12807	
456.89	12347	
457.09	10916	
457.29	11438	
457.49	12633	
457.69	12874	
457.89	11215	
458.09	10764	
458.29	12620	
458.49	13164	
458.69	11570	
458.89	11245	
459.09	13637	
459.29	13665	
459.49	11233	
459.69	11901	
459.9	13063	
460.1	13259	
460.3	11022	
460.5	10998	
460.7	13319	
460.9	12907	
461.1	10929	
461.3	11863	
461.5	13907	
461.7	13586	
461.9	11673	
462.1	11618	
462.3	13359	
462.5	13732	
462.7	11767	
462.9	11908	
463.1	14572	
463.3	14650	
463.5	12090	
463.7	13056	
463.9	14089	
464.1	14179	
464.3	12662	
464.5	12680	
464.7	14672	
464.9	14685	
465.1	13780	
465.3	13137	
465.5	14827	
465.7	15031	
465.9	13476	
466.1	12843	
466.3	15091	
466.5	14578	
466.7	14117	
466.9	13148	
467.1	15052	
467.3	15537	
467.5	14112	
467.7	13326	
467.9	15633	
468.1	16347	
468.3	13642	
468.5	14173	
468.7	15112	
468.9	14962	
469.1	13613	
469.3	14253	
469.5	16584	
469.7	15119	
469.9	13880	
470.1	13685	
470.3	15360	
470.5	15261	
470.7	14492	
470.9	13491	
471.1	15127	
471.3	15000	
471.5	13586	
471.69	14463	
471.89	14818	
472.09	14437	
472.29	13907	
472.49	13726	
472.69	14630	
472.89	15128	
473.09	13362	
473.29	13037	
473.49	14526	
473.69	14474	
473.89	13697	
474.09	13026	
474.29	15392	
474.49	14934	
474.69	13585	
474.89	13003	
475.09	14451	
475.29	14587	
475.49	12625	
475.69	13066	
475.88	15242	
476.08	14671	
476.28	12667	
476.48	12555	
476.68	14866	
476.88	14449	
477.08	12562	
477.28	12807	
477.48	14043	
477.68	14334	
477.88	12390	
478.08	12448	
478.28	14810	
478.48	14029	
478.67	12591	
478.87	11908	
479.07	14863	
479.27	14017	
479.47	12667	
479.67	12703	
479.87	14512	
480.07	14841	
480.27	12233	
480.47	13050	
480.67	14231	
480.87	14809	
481.06	12423	
481.26	12983	
481.46	14262	
481.66	13978	
481.86	12705	
482.06	13242	
482.26	13823	
482.46	14373	
482.66	12521	
482.86	12244	
483.05	14347	
483.25	13735	
483.45	14214	
483.65	12458	
483.85	13885	
484.05	14171	
484.25	12736	
484.45	13465	
484.65	14702	
484.84	14846	
485.04	12695	
485.24	12682	
485.44	15196	
485.64	14054	
485.84	12437	
486.04	13354	
486.24	14187	
486.44	14478	
486.63	12400	
486.83	13116	
487.03	14437	
487.23	14642	
487.43	12504	
487.63	14120	
487.83	14678	
488.02	15283	
488.22	13508	
488.42	14011	
488.62	15312	
488.82	14606	
489.02	13138	
489.22	13465	
489.41	15236	
489.61	15119	
489.81	13211	
490.01	13052	
490.21	15395	
490.41	15842	
490.61	13308	
490.8	13252	
491	15199	
491.2	14630	
491.4	13588	
491.6	12919	
491.8	14911	
491.99	14658	
492.19	12676	
492.39	12940	
492.59	15042	
492.79	15071	
492.99	13502	
493.18	12985	
493.38	15268	
493.58	15986	
493.78	13705	
493.98	13413	
494.18	15202	
494.37	15079	
494.57	14216	
494.77	14025	
494.97	15941	
495.17	16158	
495.37	14072	
495.56	14188	
495.76	16572	
495.96	16344	
496.16	15048	
496.36	14631	
496.55	16608	
496.75	16366	
496.95	14716	
497.15	14855	
497.35	16514	
497.54	16655	
497.74	14679	
497.94	15831	
498.14	17045	
498.34	16845	
498.53	14539	
498.73	15018	
498.93	16241	
499.13	16620	
499.33	15000	
499.52	15036	
499.72	16919	
499.92	16881	
500.12	14893	
500.32	15159	
500.51	16961	
500.71	16934	
500.91	15599	
501.11	15199	
501.31	17150	
501.5	17060	
501.7	15669	
501.9	15092	
502.1	16718	
502.29	17012	
502.49	15514	
502.69	15461	
502.89	16862	
503.09	16770	
503.28	14437	
503.48	14530	
503.68	16128	
503.88	16111	
504.07	14981	
504.27	14589	
504.47	16337	
504.67	16143	
504.86	14922	
505.06	14597	
505.26	15959	
505.46	16904	
505.65	14470	
505.85	14442	
506.05	15689	
506.25	15912	
506.44	13641	
506.64	14073	
506.84	15224	
507.04	15658	
507.23	13548	
507.43	13814	
507.63	16302	
507.83	15171	
508.02	13807	
508.22	13449	
508.42	16468	
508.62	14924	
508.81	13457	
509.01	13951	
509.21	14559	
509.4	14868	
509.6	13517	
509.8	13065	
510	14779	
510.19	15720	
510.39	12936	
510.59	13168	
510.79	14748	
510.98	15853	
511.18	13334	
511.38	13314	
511.57	15289	
511.77	15139	
511.97	13687	
512.17	12999	
512.36	15313	
512.56	14997	
512.76	12938	
512.95	12768	
513.15	15251	
513.35	14359	
513.55	13635	
513.74	13035	
513.94	15161	
514.14	14734	
514.33	13615	
514.53	13543	
514.73	14729	
514.92	14913	
515.12	13113	
515.32	12949	
515.51	14995	
515.71	15172	
515.91	14182	
516.11	13125	
516.3	16094	
516.5	14801	
516.7	13592	
516.89	13875	
517.09	14769	
517.29	14909	
517.48	13891	
517.68	13201	
517.88	14556	
518.07	15193	
518.27	13649	
518.47	13092	
518.66	15394	
518.86	14432	
519.06	12793	
519.25	13108	
519.45	14644	
519.65	15713	
519.84	13686	
520.04	14121	
520.24	15912	
520.43	15129	
520.63	13247	
520.83	13153	
521.02	14483	
521.22	14915	
521.42	13250	
521.61	13745	
521.81	14565	
522.01	14563	
522.2	13185	
522.4	12846	
522.6	14967	
522.79	14034	
522.99	12941	
523.18	12864	
523.38	14801	
523.58	14847	
523.77	14113	
523.97	12997	
524.17	16336	
524.36	15721	
524.56	14007	
524.76	13699	
524.95	15322	
525.15	15148	
525.34	13833	
525.54	13866	
525.74	15789	
525.93	15158	
526.13	14816	
526.33	14283	
526.52	16124	
526.72	15803	
526.91	15013	
527.11	14592	
527.31	16158	
527.5	16494	
527.7	14463	
527.89	13867	
528.09	15469	
528.29	15911	
528.48	14533	
528.68	14259	
528.87	16230	
529.07	16055	
529.27	14478	
529.46	14170	
529.66	16146	
529.85	16428	
530.05	14095	
530.25	14576	
530.44	16934	
530.64	15770	
530.83	14309	
531.03	14489	
531.23	16197	
531.42	16065	
531.62	14859	
531.81	14351	
532.01	16285	
532.21	16531	
532.4	14409	
532.6	14703	
532.79	17165	
532.99	16748	
533.18	14976	
533.38	15632	
533.58	16640	
533.77	16879	
533.97	15104	
534.16	15728	
534.36	17289	
534.55	16582	
534.75	15685	
534.95	15168	
535.14	17351	
535.34	16681	
535.53	14848	
535.73	16178	
535.92	17508	
536.12	16527	
536.31	14829	
536.51	15661	
536.71	16812	
536.9	16406	
537.1	14812	
537.29	15012	
537.49	16860	
537.68	16255	
537.88	15190	
538.07	14571	
538.27	16573	
538.46	17256	
538.66	14515	
538.86	14872	
539.05	16477	
539.25	16863	
539.44	15296	
539.64	14749	
539.83	16434	
540.03	17063	
540.22	14786	
540.42	14687	
540.61	16436	
540.81	16604	
541	14878	
541.2	15264	
541.39	15984	
541.59	16234	
541.78	15160	
541.98	14351	
542.18	15762	
542.37	15728	
542.57	14482	
542.76	15087	
542.96	15670	
543.15	16001	
543.35	14418	
543.54	13968	
543.74	15757	
543.93	15595	
544.13	13911	
544.32	14645	
544.52	15546	
544.71	15115	
544.91	13137	
545.1	14016	
545.3	15087	
545.49	15282	
545.69	13127	
545.88	13537	
546.08	16150	
546.27	15578	
546.47	13831	
546.66	13376	
546.86	15436	
547.05	15803	
547.24	13424	
547.44	13385	
547.63	14734	
547.83	15416	
548.02	13485	
548.22	13555	
548.41	14423	
548.61	15406	
548.8	12973	
549	13182	
549.19	14926	
549.39	15096	
549.58	12820	
549.78	13149	
549.97	14999	
550.17	14484	
550.36	13493	
550.55	14207	
550.75	14459	
550.94	14983	
551.14	12789	
551.33	12880	
551.53	14118	
551.72	14802	
551.92	13019	
552.11	12715	
552.31	14686	
552.5	14650	
552.69	13842	
552.89	12473	
553.08	14611	
553.28	14373	
553.47	12697	
553.67	13463	
553.86	14904	
554.06	13784	
554.25	12091	
554.44	12381	
554.64	15184	
554.83	14975	
555.03	12397	
555.22	12614	
555.42	14421	
555.61	14179	
555.8	12527	
556	12575	
556.19	13784	
556.39	14265	
556.58	12303	
556.78	12362	
556.97	14084	
557.16	13816	
557.36	13187	
557.55	12131	
557.75	13281	
557.94	14625	
558.13	12099	
558.33	12005	
558.52	14448	
558.72	13466	
558.91	11943	
559.1	12067	
559.3	13289	
559.49	13122	
559.69	11838	
559.88	12307	
560.07	13698	
560.27	14056	
560.46	12379	
560.66	12353	
560.85	13553	
561.04	13051	
561.24	11731	
561.43	11701	
561.63	13117	
561.82	13237	
562.01	12566	
562.21	11973	
562.4	13553	
562.59	14118	
562.79	11891	
562.98	11599	
563.18	13500	
563.37	14444	
563.56	12099	
563.76	11681	
563.95	13339	
564.14	13081	
564.34	11977	
564.53	11596	
564.73	13497	
564.92	13620	
565.11	11931	
565.31	11524	
565.5	13878	
565.69	13186	
565.89	11772	
566.08	11912	
566.27	13708	
566.47	14031	
566.66	12170	
566.85	11460	
567.05	13497	
567.24	13138	
567.44	11585	
567.63	12615	
567.82	13672	
568.02	13284	
568.21	11587	
568.4	11742	
568.6	13261	
568.79	13290	
568.98	11415	
569.18	11497	
569.37	13377	
569.56	14684	
569.76	11867	
569.95	12344	
570.14	13485	
570.34	13361	
570.53	11368	
570.72	11359	
570.91	13716	
571.11	13069	
571.3	11465	
571.49	12164	
571.69	13140	
571.88	12666	
572.07	11841	
572.27	11836	
572.46	12593	
572.65	13284	
572.85	11286	
573.04	11661	
573.23	13575	
573.43	13104	
573.62	11226	
573.81	11589	
574	13140	
574.2	12852	
574.39	11469	
574.58	11598	
574.78	13736	
574.97	13171	
575.16	11813	
575.36	12008	
575.55	13553	
575.74	13622	
575.93	11292	
576.13	12053	
576.32	13039	
576.51	13469	
576.71	11555	
576.9	12473	
577.09	13622	
577.28	13327	
577.48	11761	
577.67	11188	
577.86	13104	
578.05	13317	
578.25	11692	
578.44	11570	
578.63	13178	
578.83	13947	
579.02	11196	
579.21	12341	
579.4	13369	
579.6	13201	
579.79	11673	
579.98	13047	
580.17	13450	
580.37	13601	
580.56	11282	
580.75	11944	
580.94	13657	
581.14	13856	
581.33	12163	
581.52	11549	
581.71	13433	
581.91	13997	
582.1	11390	
582.29	11666	
582.48	13263	
582.68	13309	
582.87	11875	
583.06	11865	
583.25	13637	
583.45	13168	
583.64	12362	
583.83	12782	
584.02	13283	
584.21	13597	
584.41	12234	
584.6	11905	
584.79	13380	
584.98	13813	
585.18	11417	
585.37	11564	
585.56	13227	
585.75	13632	
585.94	11527	
586.14	11938	
586.33	13834	
586.52	13322	
586.71	11803	
586.91	11649	
587.1	12676	
587.29	13405	
587.48	11291	
587.67	11237	
587.87	13151	
588.06	12979	
588.25	11940	
588.44	11450	
588.63	12580	
588.83	12906	
589.02	10977	
589.21	10742	
589.4	12215	
589.59	12187	
589.78	9899.2	
589.98	9972.2	
590.17	11310	
590.36	11623	
590.55	9127.1	
590.74	9523.7	
590.94	12092	
591.13	11089	
591.32	9325.1	
591.51	8870.4	
591.7	11220	
591.89	10963	
592.09	8962.6	
592.28	9146.2	
592.47	10302	
592.66	11783	
592.85	9031.5	
593.05	9124.4	
593.24	10874	
593.43	11491	
593.62	9282.8	
593.81	9542.9	
594	11103	
594.19	11101	
594.39	9237	
594.58	9215.2	
594.77	11348	
594.96	11628	
595.15	9230.9	
595.34	9605.7	
595.54	11121	
595.73	10533	
595.92	8643.8	
596.11	9371.5	
596.3	11379	
596.49	10688	
596.68	9238.4	
596.88	9441.8	
597.07	11245	
597.26	10484	
597.45	8878.6	
597.64	9765.4	
597.83	10721	
598.02	11103	
598.22	9050.7	
598.41	9491.7	
598.6	11044	
598.79	10425	
598.98	9084.1	
599.17	9701.9	
599.36	11080	
599.55	11673	
599.74	10420	
599.94	10309	
600.13	11487	
600.32	10628	
600.51	8955.8	
600.7	9095.7	
600.89	11754	
601.08	11821	
601.27	8972.2	
601.47	9569.5	
601.66	11333	
601.85	11723	
602.04	9533.3	
602.23	9516.2	
602.42	10811	
602.61	11110	
602.8	9303.2	
602.99	9098.4	
603.18	10927	
603.37	11174	
603.57	9661.6	
603.76	9976.3	
603.95	11564	
604.14	11338	
604.33	9317.6	
604.52	9525.8	
604.71	11207	
604.9	10763	
605.09	9850	
605.28	9742.2	
605.47	11654	
605.66	11254	
605.86	9627.5	
606.05	9255.5	
606.24	11458	
606.43	10458	
606.62	9453.4	
606.81	9968.8	
607	11295	
607.19	10863	
607.38	8987.2	
607.57	9205.6	
607.76	10729	
607.95	10266	
608.14	9348.3	
608.33	9803.6	
608.52	10605	
608.72	11226	
608.91	8870.4	
609.1	8801.5	
609.29	10600	
609.48	10327	
609.67	9342.2	
609.86	8749.6	
610.05	10342	
610.24	10654	
610.43	8708.6	
610.62	8383	
610.81	11185	
611	11106	
611.19	8750.3	
611.38	9148.3	
611.57	10765	
611.76	11416	
611.95	8611	
612.14	8418.5	
612.33	10527	
612.52	10230	
612.71	8854.7	
612.9	8330.5	
613.09	9893.7	
613.28	11568	
613.47	8691.6	
613.66	9239.1	
613.85	10583	
614.04	10149	
614.24	8690.2	
614.43	8144.1	
614.62	10606	
614.81	10516	
615	9019.9	
615.19	8981.7	
615.38	10142	
615.57	10397	
615.76	8918.9	
615.95	9484.1	
616.14	10612	
616.33	10428	
616.52	9123	
616.71	9209.7	
616.9	10557	
617.09	10375	
617.28	8654.7	
617.47	9323	
617.66	10055	
617.85	10006	
618.04	9243.8	
618.22	8897.1	
618.41	10189	
618.6	10879	
618.79	8897.1	
618.98	8749.6	
619.17	11082	
619.36	9884.9	
619.55	8818.6	
619.74	8845.2	
619.93	10571	
620.12	10187	
620.31	9259.5	
620.5	9327.1	
620.69	11014	
620.88	11253	
621.07	9757.9	
621.26	9256.1	
621.45	10654	
621.64	10688	
621.83	9244.5	
622.02	8715.5	
622.21	10701	
622.4	10570	
622.59	9555.1	
622.78	9486.2	
622.97	10363	
623.16	11013	
623.35	9198.8	
623.54	8625.4	
623.72	10405	
623.91	10533	
624.1	9320.3	
624.29	8414.4	
624.48	11198	
624.67	10671	
624.86	9243.8	
625.05	8647.2	
625.24	11326	
625.43	10260	
625.62	10348	
625.81	8640.4	
626	10785	
626.19	10400	
626.38	9188.6	
626.56	8839.7	
626.75	10207	
626.94	10761	
627.13	9084.1	
627.32	8212.4	
627.51	10518	
627.7	11245	
627.89	8217.1	
628.08	9099.1	
628.27	9884.9	
628.46	9992.7	
628.65	8370.7	
628.83	8167.3	
629.02	10256	
629.21	9810.5	
629.4	8617.9	
629.59	8710.7	
629.78	9800.2	
629.97	10426	
630.16	8811.7	
630.35	8391.9	
630.54	10848	
630.72	10643	
630.91	8401.5	
631.1	8751.7	
631.29	10208	
631.48	10343	
631.67	8829.5	
631.86	8377.6	
632.05	10047	
632.24	10036	
632.42	8223.3	
632.61	8660.2	
632.8	10050	
632.99	9768.1	
633.18	8718.9	
633.37	8851.3	
633.56	10207	
633.75	10155	
633.93	8714.8	
634.12	8540	
634.31	10784	
634.5	10568	
634.69	8531.2	
634.88	8891.6	
635.07	10111	
635.25	10477	
635.44	9120.3	
635.63	9232.9	
635.82	10006	
636.01	9441.8	
636.2	9086.2	
636.39	8771.5	
636.57	10867	
636.76	10366	
636.95	8430.8	
637.14	9115.5	
637.33	10391	
637.52	10768	
637.7	8203.5	
637.89	8921	
638.08	10030	
638.27	10897	
638.46	8894.3	
638.65	9133.3	
638.83	10899	
639.02	9864.4	
639.21	8702.5	
639.4	9095.7	
639.59	10206	
639.78	9831.6	
639.96	8187.1	
640.15	8250.6	
640.34	9996.8	
640.53	10062	
640.72	8048.5	
640.91	8138.6	
641.09	9418.6	
641.28	10404	
641.47	8207.6	
641.66	8692.9	
641.85	9983.2	
642.03	10028	
642.22	8392.6	
642.41	8189.8	
642.6	9524.4	
642.79	9014.5	
642.97	7967.3	
643.16	8460.8	
643.35	9454.8	
643.54	9279.3	
643.73	7873.8	
643.91	8364.6	
644.1	9197.4	
644.29	9506	
644.48	7805.5	
644.67	7842.4	
644.85	9051.3	
645.04	9415.9	
645.23	7402	
645.42	7599.3	
645.6	8873.2	
645.79	9614.5	
645.98	7305.1	
646.17	6678.4	
646.36	8486.1	
646.54	8893.6	
646.73	7750.2	
646.92	6938.5	
647.11	8434.9	
647.29	9081.4	
647.48	6882.5	
647.67	6733.7	
647.86	9276.6	
648.05	9294.4	
648.23	6997.9	
648.42	7855.3	
648.61	8836.3	
648.8	8615.8	
648.98	6800.6	
649.17	6982.9	
649.36	8393.3	
649.55	8083.3	
649.73	6949.4	
649.92	7490.8	
650.11	8347.5	
650.3	8531.2	
650.48	6939.9	
650.67	6719.4	
650.86	8693.6	
651.05	7974.1	
651.23	6850.5	
651.42	6836.1	
651.61	8289.5	
651.79	8301.1	
651.98	7002	
652.17	6739.9	
652.36	8553.7	
652.54	7922.9	
652.73	6722.8	
652.92	6643.6	
653.11	8668.4	
653.29	8688.8	
653.48	6281.8	
653.67	6927.6	
653.85	8351.6	
654.04	9159.9	
654.23	7022.5	
654.42	6739.9	
654.6	7963.9	
654.79	8372.8	
654.98	6203.3	
655.16	6593.1	
655.35	7650.5	
655.54	7469.6	
655.73	6187.6	
655.91	6111.1	
656.1	8247.2	
656.29	7413.6	
656.47	5900.2	
656.66	6951.5	
656.85	7623.9	
657.03	7747.5	
657.22	6280.4	
657.41	6378.1	
657.59	7798	
657.78	7728.4	
657.97	6160.3	
658.16	6673	
658.34	8413.1	
658.53	8611.7	
658.72	7256.6	
658.9	7591.1	
659.09	8054	
659.28	8112	
659.46	6468.2	
659.65	6386.2	
659.84	7900.4	
660.02	8269.7	
660.21	6565.8	
660.4	6305.7	
660.58	8529.8	
660.77	8090.8	
660.96	6818.4	
661.14	6201.9	
661.33	8895.7	
661.52	8715.5	
661.7	6165.8	
661.89	8406.9	
662.08	7821.2	
662.26	7516.7	
662.45	6333.7	
662.64	6397.9	
662.82	8249.2	
663.01	7670.3	
663.2	6329.6	
663.38	6903.7	
663.57	8127.7	
663.75	8042.4	
663.94	6566.5	
664.13	7458	
664.31	7714.7	
664.5	8224	
664.69	6689.3	
664.87	7057.3	
665.06	7598.6	
665.25	8062.2	
665.43	7195.9	
665.62	7253.2	
665.8	8245.1	
665.99	7694.2	
666.18	6499.6	
666.36	6597.2	
666.55	8238.3	
666.74	8117.5	
666.92	6268.8	
667.11	7281.9	
667.29	7919.5	
667.48	8256	
667.67	7122.8	
667.85	6453.8	
668.04	7701	
668.22	7638.9	
668.41	6494.1	
668.6	6632	
668.78	7563.1	
668.97	7730.4	
669.15	6799.3	
669.34	5976.7	
669.53	7587.7	
669.71	7876.5	
669.9	6200.6	
670.08	6510.5	
670.27	7519.5	
670.46	7901.1	
670.64	6729.6	
670.83	6895.5	
671.01	7359	
671.2	7828	
671.38	6216.3	
671.57	6068.1	
671.76	8421.2	
671.94	8607.6	
672.13	6070.9	
672.31	6676.4	
672.5	8131.8	
672.69	7345.4	
672.87	6236.1	
673.06	6349.4	
673.24	7927.7	
673.43	7569.3	
673.61	6573.3	
673.8	6268.8	
673.98	7924.3	
674.17	8018.5	
674.36	6779.5	
674.54	6599.2	
674.73	7770.7	
674.91	7927	
675.1	6307.1	
675.28	6059.9	
675.47	7636.9	
675.65	7944.1	
675.84	6234	
676.03	6493.4	
676.21	7534.5	
676.4	7139.9	
676.58	6744	
676.77	6639.5	
676.95	8518.9	
677.14	7535.8	
677.32	5961	
677.51	5891.3	
677.69	7941.3	
677.88	7295.5	
678.06	5894.7	
678.25	6020.3	
678.44	7651.9	
678.62	7422.5	
678.81	5865.4	
678.99	6500.9	
679.18	8033.5	
679.36	7804.8	
679.55	6178	
679.73	6556.9	
679.92	7747.5	
680.1	7387.7	
680.29	6888.7	
680.47	6109.8	
680.66	7374.7	
680.84	7912.7	
681.03	5658.5	
681.21	6464.8	
681.4	7383.6	
681.58	7244.3	
681.77	5997.8	
681.95	5942.5	
682.14	7862.2	
682.32	8008.2	
682.51	6509.8	
682.69	5708.4	
682.88	7303.1	
683.06	7586.4	
683.25	6300.9	
683.43	6556.9	
683.62	7378.8	
683.8	7701.7	
683.99	6620.4	
684.17	6156.9	
684.36	8150.9	
684.54	7290.1	
684.73	5483.1	
684.91	5602.6	
685.1	7414.3	
685.28	6793.1	
685.46	5730.2	
685.65	5689.9	
685.83	7158.3	
686.02	6729.6	
686.2	5242.1	
686.39	5277.6	
686.57	6429.3	
686.76	7496.9	
686.94	5214.1	
687.13	5377.3	
687.31	6987	
687.5	6765.1	
687.68	5083.7	
687.86	5793.7	
688.05	7994.6	
688.23	6443.6	
688.42	5768.4	
688.6	5408.7	
688.79	6745.3	
688.97	6724.8	
689.16	5672.9	
689.34	5040.1	
689.52	7186.3	
689.71	7387	
689.89	5994.4	
690.08	5441.5	
690.26	6994.5	
690.45	6832	
690.63	5934.3	
690.81	5558.9	
691	6872.3	
691.18	6735.1	
691.37	5606	
691.55	6922.1	
691.74	6591.7	
691.92	7902.4	
692.1	5527.5	
692.29	5027.1	
692.47	6709.1	
692.66	6261.3	
692.84	5229.1	
693.02	5522	
693.21	6384.2	
693.39	6743.3	
693.58	5647.6	
693.76	5242.1	
693.94	7497.6	
694.13	7350.2	
694.31	5373.9	
694.5	6072.9	
694.68	6637.5	
694.86	6952.9	
695.05	5643.5	
695.23	5727.5	
695.42	7169.3	
695.6	8688.8	
695.78	6137.8	
695.97	5563	
696.15	7346.1	
696.34	6819.7	
696.52	5442.8	
696.7	5890.6	
696.89	7035.5	
697.07	6574.7	
697.25	5756.2	
697.44	6673.6	
697.62	6948.8	
697.81	7068.9	
697.99	5487.9	
698.17	5756.8	
698.36	6545.3	
698.54	6988.4	
698.72	5706.3	
698.91	5019.6	
699.09	6635.4	
699.28	6427.9	
699.46	5427.8	
699.64	5328.1	
699.83	6461.3	
700.01	7210.2	
700.19	5891.3	
700.38	4786.8	
700.56	7241.6	
700.74	6586.3	
700.93	5051.7	
701.11	5663.3	
701.29	6952.9	
701.48	7690.1	
701.66	5279.7	
701.84	5386.2	
702.03	6755.6	
702.21	7191.8	
702.39	5099.4	
702.58	5461.2	
702.76	7094.2	
702.94	7100.3	
703.13	5046.9	
703.31	6586.3	
703.49	6606.1	
703.68	7540.6	
703.86	5155.4	
704.04	5808	
704.23	6872.3	
704.41	7142.6	
704.59	5293.3	
704.78	6068.1	
704.96	8037.6	
705.14	7088.7	
705.33	5179.3	
705.51	5696.1	
705.69	6633.4	
705.87	7327.6	
706.06	5807.4	
706.24	5053	
706.42	6959.7	
706.61	7117.4	
706.79	5950.7	
706.97	5076.2	
707.16	6569.2	
707.34	6876.4	
707.52	5737	
707.7	5255.8	
707.89	6638.8	
708.07	6431.3	
708.25	5872.2	
708.44	6055.2	
708.62	6588.3	
708.8	7385	
708.98	5977.3	
709.17	5355.4	
709.35	6838.9	
709.53	6937.8	
709.72	5089.9	
709.9	5153.4	
710.08	7130.3	
710.26	7158.3	
710.45	6182.8	
710.63	5279.7	
710.81	6768.5	
710.99	6787.7	
711.18	5670.8	
711.36	5317.2	
711.54	6615.6	
711.72	7169.9	
711.91	5326.1	
712.09	4985.4	
712.27	6699.6	
712.45	7008.8	
712.64	5502.9	
712.82	4731.5	
713	6283.9	
713.18	6352.1	
713.37	4756.1	
713.55	5541.8	
713.73	6915.3	
713.91	5908.4	
714.1	4960.2	
714.28	4536.9	
714.46	6355.5	
714.64	5811.5	
714.83	4047.5	
715.01	4481.6	
715.19	5784.8	
715.37	5244.8	
715.55	4183.3	
715.74	4346.5	
715.92	6267.5	
716.1	4950.6	
716.28	5123.3	
716.47	4428.4	
716.65	5421.7	
716.83	5453.7	
717.01	4297.3	
717.19	4252.9	
717.38	6761	
717.56	5190.9	
717.74	4439.3	
717.92	3915.7	
718.1	6075.6	
718.29	5532.2	
718.47	3704.1	
718.65	4087.1	
718.83	6087.9	
719.01	6036	
719.2	3750.5	
719.38	4504.2	
719.56	5906.3	
719.74	6980.8	
719.92	4247.5	
720.11	4975.9	
720.29	5994.4	
720.47	5326.1	
720.65	3914.4	
720.83	4496	
721.02	5563	
721.2	5369.1	
721.38	4456.4	
721.56	3927.3	
721.74	4969.7	
721.92	5055.8	
722.11	4745.8	
722.29	4452.3	
722.47	5892	
722.65	5385.5	
722.83	3895.2	
723.01	4488.5	
723.2	5455.1	
723.38	5629.2	
723.56	3555.3	
723.74	4268	
723.92	5061.9	
724.1	5820.3	
724.29	3855	
724.47	4572.4	
724.65	5239.4	
724.83	5063.3	
725.01	3805.1	
725.19	4311	
725.37	5120.6	
725.56	5048.2	
725.74	3708.2	
725.92	3807.2	
726.1	5134.3	
726.28	5320.6	
726.46	4172.4	
726.64	3984	
726.83	5318.6	
727.01	5390.9	
727.19	3673.4	
727.37	4253.6	
727.55	5392.3	
727.73	5732.9	
727.91	3662.5	
728.09	3579.8	
728.28	5752.7	
728.46	5853.1	
728.64	4280.9	
728.82	4280.3	
729	6402	
729.18	5997.8	
729.36	3759.4	
729.54	5292	
729.72	6551.5	
729.91	5577.3	
730.09	5107	
730.27	4237.9	
730.45	5532.9	
730.63	5878.4	
730.81	4645.5	
730.99	4115.1	
731.17	6342.6	
731.35	5340.4	
731.53	4470	
731.71	4182	
731.9	6093.4	
732.08	6169.8	
732.26	4392.9	
732.44	4107.5	
732.62	6267.5	
732.8	5879	
732.98	4607.9	
733.16	3996.3	
733.34	5855.8	
733.52	4984.8	
733.7	4278.2	
733.88	4411.3	
734.07	5720.7	
734.25	5526.8	
734.43	3932.8	
734.61	4883	
734.79	6558.3	
734.97	5515.9	
735.15	3997	
735.33	4233.8	
735.51	5757.5	
735.69	5565	
735.87	5014.8	
736.05	4326.7	
736.23	5636.7	
736.41	5348.6	
736.59	4260.5	
736.77	4374.5	
736.95	5954.8	
737.13	5492.7	
737.32	4052.2	
737.5	4156	
737.68	6268.8	
737.86	5383.4	
738.04	3887.7	
738.22	5068.7	
738.4	5363.6	
738.58	5620.3	
738.76	4354.7	
738.94	3661.8	
739.12	5433.9	
739.3	5396.4	
739.48	4717.2	
739.66	4464.6	
739.84	5671.5	
740.02	5601.2	
740.2	3764.2	
740.38	3920.5	
740.56	5896.8	
740.74	4995	
740.92	4383.3	
741.1	4295.3	
741.28	5489.9	
741.46	5245.5	
741.64	4055	
741.82	4450.2	
742	5520.6	
742.18	5444.9	
742.36	4166.3	
742.54	3908.2	
742.72	5973.9	
742.9	4993.6	
743.08	4356.7	
743.26	3643.3	
743.44	5892.7	
743.62	5793.7	
743.8	4516.5	
743.98	3930.7	
744.16	5618.3	
744.34	5384.1	
744.52	4416.8	
744.7	4410	
744.88	5778.7	
745.06	5410.1	
745.24	4459.1	
745.42	4498	
745.6	5847.6	
745.78	5677	
745.96	3704.1	
746.14	3831.1	
746.32	6285.2	
746.5	5691.3	
746.68	4143	
746.86	3842.7	
747.03	5885.9	
747.21	4934.2	
747.39	4157.4	
747.57	3833.1	
747.75	5446.9	
747.93	5665.4	
748.11	3777.1	
748.29	3751.9	
748.47	6517.3	
748.65	5202.5	
748.83	4284.4	
749.01	4080.2	
749.19	5629.9	
749.37	4967	
749.55	4025.6	
749.73	4050.9	
749.91	5367.7	
750.09	5244.8	
750.26	4106.2	
750.44	3668.6	
750.62	5367.7	
750.8	5279.7	
750.98	3601	
751.16	3744.4	
751.34	5455.1	
751.52	4960.9	
751.7	4340.3	
751.88	3567.6	
752.06	5752.1	
752.24	5536.3	
752.42	3523.2	
752.59	3757.3	
752.77	5324	
752.95	6094.1	
753.13	4227.7	
753.31	3855	
753.49	5067.4	
753.67	5352	
753.85	4032.5	
754.03	3669.3	
754.21	5584.8	
754.38	5729.5	
754.56	3768.3	
754.74	3139.5	
754.92	4979.3	
755.1	5347.2	
755.28	3153.2	
755.46	3225.6	
755.64	5924.1	
755.82	6068.8	
755.99	3345	
756.17	3347.1	
756.35	4265.2	
756.53	5263.3	
756.71	2596.8	
756.89	3223.5	
757.07	4987.5	
757.25	4379.2	
757.42	3523.2	
757.6	4126.7	
757.78	5060.5	
757.96	4388.8	
758.14	3385.3	
758.32	3050.1	
758.5	4046.8	
758.67	4630.5	
758.85	3258.3	
759.03	3341.6	
759.21	4793.6	
759.39	4345.1	
759.57	2959.3	
759.75	3705.5	
759.92	5302.9	
760.1	4848.9	
760.28	3933.5	
760.46	4158.7	
760.64	4564.9	
760.82	4559.5	
760.99	3837.2	
761.17	3371	
761.35	5193.6	
761.53	4437.9	
761.71	3545.7	
761.89	3910.3	
762.06	5008	
762.24	4719.9	
762.42	3535.5	
762.6	3311.6	
762.78	4707.6	
762.96	5134.9	
763.13	3799	
763.31	3515	
763.49	5220.3	
763.67	4676.2	
763.85	4138.9	
764.02	4484.4	
764.2	5454.4	
764.38	4870.1	
764.56	3467.9	
764.74	4035.2	
764.91	5513.8	
765.09	4761.5	
765.27	3362.1	
765.45	3143.6	
765.63	5658.5	
765.8	5400.5	
765.98	3009.8	
766.16	3138.9	
766.34	4491.9	
766.52	4322.6	
766.69	3817.4	
766.87	3061	
767.05	4721.9	
767.23	5328.8	
767.41	3277.4	
767.58	3422.8	
767.76	5173.9	
767.94	5238.7	
768.12	3354.6	
768.29	3789.4	
768.47	4744.5	
768.65	5324	
768.83	3095.8	
769	3841.3	
769.18	4518.5	
769.36	4973.8	
769.54	3826.3	
769.72	3123.8	
769.89	5257.1	
770.07	5266	
770.25	3405.8	
770.43	4205.8	
770.6	5713.8	
770.78	5993	
770.96	3525.2	
771.14	3854.3	
771.31	5167.7	
771.49	4715.8	
771.67	2932.7	
771.85	3065.8	
772.02	4215.4	
772.2	4683	
772.38	3637.9	
772.55	3196.9	
772.73	4919.9	
772.91	4719.9	
773.09	3441.3	
773.26	3568.2	
773.44	4886.5	
773.62	4663.2	
773.8	3160	
773.97	3027.6	
774.15	4885.1	
774.33	4692.6	
774.5	3082.2	
774.68	3272.7	
774.86	5012.7	
775.04	4635.2	
775.21	3147.7	
775.39	3108.1	
775.57	4870.8	
775.74	5027.8	
775.92	3026.9	
776.1	2858.3	
776.27	4802.5	
776.45	5569.8	
776.63	3126.6	
776.81	2846.7	
776.98	4630.5	
777.16	5317.2	
777.34	3221.5	
777.51	3435.8	
777.69	4604.5	
777.87	4440.7	
778.04	3353.2	
778.22	3661.8	
778.4	4468	
778.57	4922.6	
778.75	2790.7	
778.93	2950.4	
779.1	4376.5	
779.28	4154	
779.46	2796.8	
779.64	3035.8	
779.81	5031.2	
779.99	5544.5	
780.17	3593.5	
780.34	3670	
780.52	4588.8	
780.69	4775.2	
780.87	3313.6	
781.05	2988.7	
781.22	4693.9	
781.4	4687.8	
781.58	3112.9	
781.75	2498.5	
781.93	4707.6	
782.11	4211.3	
782.28	3735.5	
782.46	3116.3	
782.64	4180.6	
782.81	4778.6	
782.99	3183.2	
783.17	3091.8	
783.34	4711.7	
783.52	4293.9	
783.69	3251.5	
783.87	3800.3	
784.05	4340.3	
784.22	4260.5	
784.4	3831.1	
784.58	3359.4	
784.75	4933.6	
784.93	4375.1	
785.1	3080.8	
785.28	3540.3	
785.46	4782	
785.63	4203.1	
785.81	3118.4	
785.99	2977.1	
786.16	4472.1	
786.34	4644.8	
786.51	3001	
786.69	3292.5	
786.87	4076.1	
787.04	4457.7	
787.22	2967.5	
787.39	3542.3	
787.57	4339	
787.75	4946.5	
787.92	3702	
788.1	3592.1	
788.27	4294.6	
788.45	4065.2	
788.63	3437.2	
788.8	2622.1	
788.98	4709	
789.15	3984.7	
789.33	2721.8	
789.5	3040.6	
789.68	4922.6	
789.86	5005.9	
790.03	3312.2	
790.21	3050.8	
790.38	5005.2	
790.56	4376.5	
790.73	2898.6	
790.91	2856.2	
791.09	4346.5	
791.26	4781.3	
791.44	3151.1	
791.61	2778.4	
791.79	4268	
791.96	4259.1	
792.14	2809.1	
792.32	2509.4	
792.49	4257	
792.67	4414.1	
792.84	2944.3	
793.02	2717	
793.19	4661.2	
793.37	5056.4	
793.54	2583.2	
793.72	2815.3	
793.89	5085.8	
794.07	4259.8	
794.25	3213.9	
794.42	2641.9	
794.6	5027.8	
794.77	4734.9	
794.95	3334.1	
795.12	2962.7	
795.3	4291.2	
795.47	4634.6	
795.65	3244	
795.82	3095.2	
796	4164.9	
796.17	5427.8	
796.35	3059.7	
796.52	3568.9	
796.7	4700.1	
796.87	4739.7	
797.05	3007.8	
797.22	3631	
797.4	4717.2	
797.57	5311.7	
797.75	3250.8	
797.92	2907.4	
798.1	4954	
798.27	4103.4	
798.45	2632.3	
798.62	2760.7	
798.8	4477.5	
798.97	4814.8	
799.15	3291.1	
799.32	3094.5	
799.5	3994.2	
799.67	4507.6	
799.85	3405.1	
800.02	2598.9	
800.2	4231.1	
800.37	4422.2	
800.55	3433.8	
800.72	2970.2	
800.9	4792.9	
801.07	5039.4	
801.25	3915.7	
801.42	3196.9	
801.6	4870.1	
801.77	4470.7	
801.95	3035.8	
802.12	2865.1	
802.29	4597	
802.47	4580.6	
802.64	3261.7	
802.82	2565.4	
802.99	4306.2	
803.17	4874.8	
803.34	3154.6	
803.52	2834.4	
803.69	5313.1	
803.87	4052.2	
804.04	3133.4	
804.21	3213.9	
804.39	5042.8	
804.56	4349.9	
804.74	2709.5	
804.91	3201	
805.09	4231.1	
805.26	4365.6	
805.44	2789.3	
805.61	2955.9	
805.78	4732.9	
805.96	4699.4	
806.13	3175.7	
806.31	3394.8	
806.48	3961.5	
806.66	4255	
806.83	3217.4	
807	3099.9	
807.18	4263.2	
807.35	4523.3	
807.53	2981.2	
807.7	2626.9	
807.87	5072.1	
808.05	4282.3	
808.22	3373	
808.4	2628.9	
808.57	4219.5	
808.74	4033.8	
808.92	2944.3	
809.09	3535.5	
809.27	4287.8	
809.44	4616.1	
809.61	2638.5	
809.79	2884.2	
809.96	5090.6	
810.14	4716.5	
810.31	2547.7	
810.48	3059	
810.66	4301.4	
810.83	4759.5	
811.01	2919	
811.18	3167.5	
811.35	4780.6	
811.53	3870.7	
811.7	3417.4	
811.87	3247.4	
812.05	4347.8	
812.22	4241.3	
812.39	2860.3	
812.57	2746.3	
812.74	4300.7	
812.92	5407.3	
813.09	3007.1	
813.26	3270.6	
813.44	5268.1	
813.61	4141	
813.78	2622.8	
813.96	3349.1	
814.13	4325.3	
814.3	4108.9	
814.48	3565.5	
814.65	2996.2	
814.82	4989.5	
815	4059.1	
815.17	3130	
815.34	3633.1	
815.52	4260.5	
815.69	4222.9	
815.87	3059	
816.04	3041.2	
816.21	4257.7	
816.38	3876.1	
816.56	3046	
816.73	2857.6	
816.9	5242.1	
817.08	4767.7	
817.25	2867.2	
817.42	3426.9	
817.6	3988.1	
817.77	4238.6	
817.94	3166.8	
818.12	2784.6	
818.29	4112.3	
818.46	5814.9	
818.64	2967.5	
818.81	2780.5	
818.98	4162.8	
819.16	5472.2	
819.33	3233.1	
819.5	3098.6	
819.67	4549.2	
819.85	4965.6	
820.02	3054.2	
820.19	3250.1	
820.37	4468.7	
820.54	4190.8	
820.71	3114.3	
820.88	3829	
821.06	4450.2	
821.23	4090.5	
821.4	3213.3	
821.58	3149.1	
821.75	4717.2	
821.92	4409.3	
822.09	2590.7	
822.27	2663.7	
822.44	4267.3	
822.61	4222.2	
822.79	2658.3	
822.96	4653.7	
823.13	4547.2	
823.3	4010.6	
823.48	2937.5	
823.65	2676.7	
823.82	4814.1	
823.99	3997	
824.17	3680.2	
824.34	2749.1	
824.51	5347.2	
824.68	4298	
824.86	2915.6	
825.03	3143.6	
825.2	4300.1	
825.37	5009.3	
825.55	2837.1	
825.72	3056.3	
825.89	5352.7	
826.06	5024.3	
826.24	3037.1	
826.41	3037.1	
826.58	5076.9	
826.75	4422.9	
826.92	2532.7	
827.1	2729.3	
827.27	6517.3	
827.44	5283.8	
827.61	2893.1	
827.79	3410.6	
827.96	4158.7	
828.13	4280.9	
828.3	3018	
828.47	2626.2	
828.65	4536.3	
828.82	4460.5	
828.99	3646.1	
829.16	3297.9	
829.34	4775.2	
829.51	4673.5	
829.68	3111.5	
829.85	3140.2	
830.02	5073.5	
830.2	4792.9	
830.37	2415.9	
830.54	3587.4	
830.71	5281	
830.88	4349.9	
831.05	2452.1	
831.23	2826.2	
831.4	5195.7	
831.57	5540.4	
831.74	2876	
831.91	2589.3	
832.09	4623.6	
832.26	4775.9	
832.43	2942.2	
832.6	3275.4	
832.77	4539.7	
832.94	5036	
833.12	2451.4	
833.29	2910.2	
833.46	4577.9	
833.63	5655.1	
833.8	3167.5	
833.97	2941.6	
834.15	4840	
834.32	4622.3	
834.49	3087	
834.66	3158	
834.83	4859.1	
835	4231.8	
835.17	2846.7	
835.35	2870.6	
835.52	4742.4	
835.69	4595.6	
835.86	3075.4	
836.03	2527.2	
836.2	4825	
836.37	4468.7	
836.55	2921.1	
836.72	2776.4	
836.89	4470.7	
837.06	4836.6	
837.23	3028.9	
837.4	3194.1	
837.57	5386.8	
837.75	5715.9	
837.92	2740.2	
838.09	2891.7	
838.26	4474.1	
838.43	4855.1	
838.6	3104.7	
838.77	2805	
838.94	5477	
839.11	5360.2	
839.29	3019.4	
839.46	2430.3	
839.63	4788.8	
839.8	4597.7	
839.97	2884.9	
840.14	2893.8	
840.31	4648.2	
840.48	4779.3	
840.65	2501.9	
840.82	2839.8	
841	4756.1	
841.17	4659.1	
841.34	2654.2	
841.51	2745	
841.68	4765.6	
841.85	4481.6	
842.02	2755.2	
842.19	2400.9	
842.36	4646.2	
842.53	4634.6	
842.7	2675.3	
842.87	3189.4	
843.05	5715.9	
843.22	4515.8	
843.39	2601.6	
843.56	2770.2	
843.73	4464.6	
843.9	4854.4	
844.07	4067.9	
844.24	3403.7	
844.41	6331.6	
844.58	4276.8	
844.75	2608.4	
844.92	2831.7	
845.09	4722.6	
845.26	4764.3	
845.43	2620.7	
845.6	2856.9	
845.77	4754	
845.94	4521.2	
846.12	2958.6	
846.29	3067.9	
846.46	4902.8	
846.63	4725.3	
846.8	2647.3	
846.97	3135.4	
847.14	5068	
847.31	4706.2	
847.48	2943.6	
847.65	3235.8	
847.82	4869.4	
847.99	4845.5	
848.16	3426.3	
848.33	3211.2	
848.5	4414.1	
848.67	5044.1	
848.84	2628.9	
849.01	2774.3	
849.18	4367	
849.35	4133.5	
849.52	3261.7	
849.69	2607.7	
849.86	4949.3	
850.03	4939.7	
850.2	2643.9	
850.37	3189.4	
850.54	4922.6	
850.71	4481	
850.88	3182.5	
851.05	2637.8	
851.22	4668	
851.39	5056.4	
851.56	2544.3	
851.73	3033.7	
851.9	4285	
852.07	4868.7	
852.24	2917.7	
852.41	2671.9	
852.58	4736.3	
852.75	4341	
852.92	2907.4	
853.09	2554.5	
853.26	4397	
853.43	4982.7	
853.6	2667.8	
853.77	2267.8	
853.94	5099.4	
854.11	4213.4	
854.28	3806.5	
854.44	2859	
854.61	5399.8	
854.78	4963.6	
854.95	2638.5	
855.12	3221.5	
855.29	3981.9	
855.46	5080.3	
855.63	2680.1	
855.8	3543	
855.97	4403.1	
856.14	4987.5	
856.31	3601.7	
856.48	2851.5	
856.65	4539	
856.82	4211.3	
856.99	2566.1	
857.16	2849.4	
857.33	5543.9	
857.49	4464.6	
857.66	2832.3	
857.83	3017.3	
858	4526	
858.17	4635.2	
858.34	2528.6	
858.51	2660.3	
858.68	5107.6	
858.85	5192.3	
859.02	3024.8	
859.19	3245.3	
859.36	4226.3	
859.52	4231.8	
859.69	2673.3	
859.86	3099.3	
860.03	4214.7	
860.2	5125.4	
860.37	2481.5	
860.54	2691	
860.71	4863.9	
860.88	5085.8	
861.05	2930	
861.21	3309.5	
861.38	5141.1	
861.55	4119.1	
861.72	2531.3	
861.89	2919	
862.06	4932.2	
862.23	5242.8	
862.4	2596.1	
862.56	2742.2	
862.73	4801.1	
862.9	4537.6	
863.07	3047.4	
863.24	2452.8	
863.41	4204.5	
863.58	4246.1	
863.75	2742.9	
863.91	3084.9	
864.08	5061.2	
864.25	4845.5	
864.42	3265.1	
864.59	3528	
864.76	5358.2	
864.93	4259.8	
865.09	2584.5	
865.26	2833	
865.43	5069.4	
865.6	5316.5	
865.77	2391.3	
865.94	2605	
866.1	4980	
866.27	4774.5	
866.44	3790.8	
866.61	2597.5	
866.78	4491.9	
866.95	4828.4	
867.11	2585.9	
867.28	2437.8	
867.45	5002.5	
867.62	4251.6	
867.79	2983.2	
867.96	2639.1	
868.12	4177.2	
868.29	4822.3	
868.46	2643.2	
868.63	3431.7	
868.8	4928.1	
868.97	4814.8	
869.13	2754.5	
869.3	2800.3	
869.47	4753.3	
869.64	4944.5	
869.81	2658.9	
869.97	2700.6	
870.14	4653	
870.31	5126.1	
870.48	2634.4	
870.65	3294.5	
870.81	4514.4	
870.98	4499.4	
871.15	2941.6	
871.32	2760.7	
871.48	4759.5	
871.65	5183.4	
871.82	2600.9	
871.99	2903.3	
872.16	5479	
872.32	5031.9	
872.49	2738.8	
872.66	2663	
872.83	4873.5	
872.99	4376.5	
873.16	2990	
873.33	2654.2	
873.5	4573.1	
873.67	4685.1	
873.83	2775.7	
874	3471.3	
874.17	4732.9	
874.34	5345.9	
874.5	3343.7	
874.67	3188.7	
874.84	5029.1	
875.01	4078.9	
875.17	3564.8	
875.34	2637.8	
875.51	4656.4	
875.68	5492.7	
875.84	3170.3	
876.01	3736.2	
876.18	4898.7	
876.34	4794.3	
876.51	2607.7	
876.68	2600.9	
876.85	4462.5	
877.01	5034.6	
877.18	3557.3	
877.35	2607.1	
877.52	4674.1	
877.68	4242	
877.85	2638.5	
878.02	2613.9	
878.18	4452.3	
878.35	4367	
878.52	2192.7	
878.69	3078.1	
878.85	5010.7	
879.02	4841.4	
879.19	3604.4	
879.35	2841.2	
879.52	4862.6	
879.69	4915.1	
879.86	2429.6	
880.02	2961.4	
880.19	4569.7	
880.36	5401.9	
880.52	2999.6	
880.69	3076	
880.86	4845.5	
881.02	4930.1	
881.19	2851.5	
881.36	2865.1	
881.52	4831.8	
881.69	4328.7	
881.86	2848	
882.02	2800.3	
882.19	4965	
882.36	5683.1	
882.52	2760	
882.69	3577.1	
882.86	4618.9	
883.02	4669.4	
883.19	3152.5	
883.36	2965.5	
883.52	4954	
883.69	5498.1	
883.86	2672.6	
884.02	2468.5	
884.19	4910.3	
884.36	4607.9	
884.52	3005.1	
884.69	2837.8	
884.86	4418.8	
885.02	5217.5	
885.19	2941.6	
885.36	2822.8	
885.52	4539	
885.69	4689.8	
885.86	3689.8	
886.02	3330.7	
886.19	4894	
886.35	4417.5	
886.52	2880.1	
886.69	3540.3	
886.85	4268	
887.02	5061.2	
887.19	5061.2	
887.35	5061.2	
887.52	5061.2	
887.68	5061.2	
887.85	5061.2	
888.02	5061.2	
888.18	5061.2	
888.35	5061.2	
888.51	5061.2	
888.68	5061.2	
888.85	5061.2	
889.01	5061.2	
889.18	5061.2	
889.35	5061.2	
889.51	5061.2	
889.68	5061.2	
889.84	5061.2	
890.01	5061.2	
890.17	5061.2	
890.34	5061.2	
890.51	5061.2	
890.67	5061.2	
890.84	5061.2	
891	5061.2	
891.17	5061.2	
891.34	5061.2	
891.5	5061.2	
891.67	5061.2	
891.83	5061.2	
892	5061.2	
892.16	5061.2	
892.33	5061.2	
892.5	5061.2	
892.66	5061.2	
892.83	5061.2	
892.99	5061.2	
893.16	5061.2	
893.32	5061.2	
893.49	5061.2	
893.65	5061.2	
893.82	5061.2	
893.99	5061.2	
894.15	5061.2	
894.32	5061.2	
894.48	5061.2	
894.65	5061.2	
894.81	5061.2	
894.98	5061.2	
895.14	5061.2	
895.31	5061.2	
895.47	5061.2	
895.64	5061.2	
895.81	5061.2	
895.97	5061.2	
896.14	5061.2	
896.3	5061.2	
896.47	5061.2	
896.63	5061.2	
896.8	5061.2	
896.96	5061.2	
897.13	5061.2	
897.29	5061.2	
897.46	5061.2	
897.62	5061.2	
897.79	5061.2	
897.95	5061.2	
898.12	5061.2	
898.28	5061.2	
898.45	5061.2	
898.61	5061.2	
898.78	5061.2	
898.94	5061.2	
899.11	5061.2	
899.27	5061.2	
899.44	5061.2	
899.6	5061.2	
899.77	5061.2	
899.93	5061.2	
900.1	5061.2	
900.26	5061.2	
900.43	5061.2	
900.59	5061.2	
900.76	5061.2	
900.92	5061.2	
901.09	5061.2	
901.25	5061.2	
901.42	5061.2	
901.58	5061.2	
901.75	5061.2	
901.91	5061.2	
902.07	5061.2	
902.24	5061.2	
902.4	5061.2	
902.57	5061.2	
902.73	5061.2	
902.9	5061.2	
903.06	5061.2	
903.23	5061.2	
903.39	5061.2	
903.56	5061.2	
903.72	5061.2	
903.88	5061.2	
904.05	5061.2	
904.21	5061.2	
904.38	5061.2	
904.54	5061.2	
904.71	5061.2	
904.87	5061.2	
905.03	5061.2	
905.2	5061.2	
905.36	5061.2	
905.53	5061.2	
905.69	5061.2	
905.86	5061.2	
906.02	5061.2	
906.18	5061.2	
906.35	5061.2	
906.51	5061.2	
906.68	5061.2	
906.84	5061.2	
907.01	5061.2	
907.17	5061.2	
907.33	5061.2	
907.5	5061.2	
907.66	5061.2	
907.83	5061.2	
907.99	5061.2	
908.15	5061.2	
908.32	5061.2	
908.48	5061.2	
908.65	5061.2	
908.81	5061.2	
908.97	5061.2	
909.14	5061.2	
909.3	5061.2	
909.47	5061.2	
909.63	5061.2	
909.79	5061.2	
909.96	5061.2	
910.12	5061.2	
910.28	5061.2	
910.45	5061.2	
910.61	5061.2	
910.78	5061.2	
910.94	5061.2	
911.1	5061.2	
911.27	5061.2	
911.43	5061.2	
911.59	5061.2	
911.76	5061.2	
911.92	5061.2	
912.08	5061.2	
912.25	5061.2	
912.41	5061.2	
912.57	5061.2	
912.74	5061.2	
912.9	5061.2	
913.07	5061.2	
913.23	5061.2	
913.39	5061.2	
913.56	5061.2	
913.72	5061.2	
913.88	5061.2	
914.05	5061.2	
914.21	5061.2	
914.37	5061.2	
914.54	5061.2	
914.7	5061.2	
914.86	5061.2	
915.03	5061.2	
915.19	5061.2	
