Wavelength	Intensities	
nm	a.u.	
179.22	1681.6	
179.44	1666.7	
179.65	1696.4	
179.86	1637	
180.08	1699.8	
180.29	3811.3	
180.51	3004.4	
180.72	4917.2	
180.94	5429.8	
181.15	2659.6	
181.37	2638.5	
181.58	4655	
181.79	4883.7	
182.01	2785.9	
182.22	2893.8	
182.44	4982.7	
182.65	4285.7	
182.87	3576.4	
183.08	3147.7	
183.29	5128.8	
183.51	4350.6	
183.72	2908.1	
183.94	3979.2	
184.15	4638.6	
184.37	4542.4	
184.58	2618.7	
184.79	3373.7	
185.01	4367	
185.22	4981.3	
185.44	3513.6	
185.65	3084.9	
185.86	4672.1	
186.08	4268	
186.29	2572.2	
186.51	2732	
186.72	4381.3	
186.94	5016.8	
187.15	3102	
187.36	3178.4	
187.58	6247	
187.79	4695.3	
188.01	3234.4	
188.22	4754.7	
188.43	5466.7	
188.65	4856.4	
188.86	2728.6	
189.08	3181.2	
189.29	4481	
189.5	4448.2	
189.72	2931.3	
189.93	2991.4	
190.15	5005.2	
190.36	5766.4	
190.57	3185.3	
190.79	3044	
191	4980.7	
191.22	5016.8	
191.43	3241.9	
191.64	2770.2	
191.86	5122	
192.07	5005.9	
192.29	2836.4	
192.5	2884.2	
192.71	5044.8	
192.93	4498	
193.14	2882.9	
193.35	2987.3	
193.57	4460.5	
193.78	5039.4	
194	2456.9	
194.21	2913.6	
194.42	4328.7	
194.64	4635.2	
194.85	3144.3	
195.07	3576.4	
195.28	4569	
195.49	4132.8	
195.71	3790.1	
195.92	2785.9	
196.13	4806.6	
196.35	4835.3	
196.56	3918.4	
196.78	3223.5	
196.99	5719.3	
197.2	5390.9	
197.42	3527.3	
197.63	3175	
197.84	4249.5	
198.06	4773.1	
198.27	2920.4	
198.48	3736.2	
198.7	4448.9	
198.91	4664.6	
199.13	3182.5	
199.34	3170.9	
199.55	4985.4	
199.77	4121.9	
199.98	2837.8	
200.19	3224.9	
200.41	4598.4	
200.62	4355.3	
200.83	3312.2	
201.05	3489.1	
201.26	4582	
201.47	4367	
201.69	2828.2	
201.9	2775.7	
202.11	4640.7	
202.33	5257.1	
202.54	2991.4	
202.76	3321.1	
202.97	4674.1	
203.18	4717.8	
203.4	3306.8	
203.61	3304.1	
203.82	4669.4	
204.04	4453.6	
204.25	3170.9	
204.46	3085.6	
204.68	4627	
204.89	4782.7	
205.1	3111.5	
205.32	2782.5	
205.53	4883.7	
205.74	5056.4	
205.96	2439.8	
206.17	3174.4	
206.38	4846.2	
206.6	4978.6	
206.81	3560.1	
207.02	2968.9	
207.24	4785.4	
207.45	5176.6	
207.66	3041.9	
207.88	2688.3	
208.09	4705.5	
208.3	4633.9	
208.52	2792.1	
208.73	3078.8	
208.94	4640	
209.15	5130.2	
209.37	3068.5	
209.58	3140.9	
209.79	5033.9	
210.01	4463.2	
210.22	2508.1	
210.43	2661	
210.65	4564.2	
210.86	4934.9	
211.07	3012.6	
211.29	2787.3	
211.5	4810.7	
211.71	4562.2	
211.93	2795.5	
212.14	2837.8	
212.35	4619.5	
212.56	4698.7	
212.78	3204.4	
212.99	2665.1	
213.2	5307	
213.42	4499.4	
213.63	2927.2	
213.84	3034.4	
214.06	4242.7	
214.27	4245.4	
214.48	2991.4	
214.69	3213.9	
214.91	5153.4	
215.12	5181.4	
215.33	3179.1	
215.55	3446.7	
215.76	5485.1	
215.97	4844.8	
216.18	3140.9	
216.4	3084.2	
216.61	4371	
216.82	4993.6	
217.04	2857.6	
217.25	2979.8	
217.46	5105.6	
217.67	4911.7	
217.89	2631	
218.1	2638.5	
218.31	4681	
218.53	4784.1	
218.74	3004.4	
218.95	2882.2	
219.16	4607.9	
219.38	5287.2	
219.59	2863.1	
219.8	3349.1	
220.01	5666.7	
220.23	4691.9	
220.44	3586	
220.65	2832.3	
220.87	4711.7	
221.08	5109	
221.29	2738.8	
221.5	3312.2	
221.72	5958.9	
221.93	4459.1	
222.14	3164.8	
222.35	3662.5	
222.57	4637.3	
222.78	4926	
222.99	3104.7	
223.2	3220.8	
223.42	4842.1	
223.63	4890.5	
223.84	2434.4	
224.05	2488.3	
224.27	5564.3	
224.48	5276.9	
224.69	3740.3	
224.9	3159.3	
225.12	4773.8	
225.33	4566.3	
225.54	2628.9	
225.75	2925.2	
225.97	4353.3	
226.18	4575.2	
226.39	3051.5	
226.6	2895.1	
226.82	4465.9	
227.03	4326.7	
227.24	3143.6	
227.45	2695.8	
227.67	4911	
227.88	5190.9	
228.09	3530	
228.3	3505.4	
228.52	4861.2	
228.73	4604.5	
228.94	2964.1	
229.15	2641.9	
229.36	4592.9	
229.58	4622.9	
229.79	3048.7	
230	3375.7	
230.21	5398.4	
230.43	4616.8	
230.64	3139.5	
230.85	3237.2	
231.06	5037.3	
231.28	4955.4	
231.49	2679.4	
231.7	3116.3	
231.91	4896	
232.12	4633.2	
232.34	2780.5	
232.55	3085.6	
232.76	5089.9	
232.97	4706.9	
233.18	2811.2	
233.4	3127.9	
233.61	4780.6	
233.82	4442.7	
234.03	2964.8	
234.25	2936.8	
234.46	6070.2	
234.67	4713.7	
234.88	3207.1	
235.09	2862.4	
235.31	4789.5	
235.52	4570.4	
235.73	3121.1	
235.94	2716.3	
236.15	4410.6	
236.37	5427.1	
236.58	2795.5	
236.79	2988	
237	4835.3	
237.21	4252.9	
237.43	3213.9	
237.64	2608.4	
237.85	7477.8	
238.06	4345.8	
238.27	3190.1	
238.48	2752.5	
238.7	4902.8	
238.91	4497.3	
239.12	3037.1	
239.33	3105.4	
239.54	4389.5	
239.76	4556	
239.97	3003	
240.18	3069.2	
240.39	5481.7	
240.6	4784.1	
240.82	3199.6	
241.03	2670.6	
241.24	4638	
241.45	5206.6	
241.66	2836.4	
241.87	3284.9	
242.09	5223.7	
242.3	5400.5	
242.51	3265.1	
242.72	3055.6	
242.93	4887.8	
243.14	4550.6	
243.36	3480.2	
243.57	3719.1	
243.78	5215.5	
243.99	4878.3	
244.2	3062.4	
244.41	2803	
244.63	4309.6	
244.84	4816.8	
245.05	3234.4	
245.26	3031.7	
245.47	4860.5	
245.68	4922.6	
245.9	3864.5	
246.11	3210.5	
246.32	4454.3	
246.53	4816.1	
246.74	4742.4	
246.95	2613.2	
247.16	4351.3	
247.38	4660.5	
247.59	2678.7	
247.8	3063.8	
248.01	4298.7	
248.22	4592.9	
248.43	2838.5	
248.64	2993.4	
248.86	4240	
249.07	4486.4	
249.28	2754.5	
249.49	3125.9	
249.7	5000.5	
249.91	5012.7	
250.12	2659.6	
250.34	2682.8	
250.55	4749.9	
250.76	4602.5	
250.97	3138.2	
251.18	3233.1	
251.39	5057.8	
251.6	4734.2	
251.81	3195.5	
252.03	3190.1	
252.24	4466.6	
252.45	4887.1	
252.66	2700.6	
252.87	3304.7	
253.08	4676.9	
253.29	5703.6	
253.5	2750.4	
253.72	3635.8	
253.93	4603.2	
254.14	5253.7	
254.35	2946.3	
254.56	2970.9	
254.77	4767.7	
254.98	4369	
255.19	2969.6	
255.41	3593.5	
255.62	4776.5	
255.83	5036	
256.04	3266.5	
256.25	3164.1	
256.46	5459.2	
256.67	4438.6	
256.88	3172.3	
257.09	3464.5	
257.31	4285.7	
257.52	4379.2	
257.73	3822.2	
257.94	2923.8	
258.15	4569.7	
258.36	4673.5	
258.57	3577.1	
258.78	2438.4	
258.99	4969.7	
259.2	4498.7	
259.41	2882.2	
259.63	3022.8	
259.84	5184.8	
260.05	5427.1	
260.26	3665.2	
260.47	2905.4	
260.68	5068.7	
260.89	4527.4	
261.1	3431	
261.31	2824.8	
261.52	5053.7	
261.73	5292.6	
261.95	3657	
262.16	3226.9	
262.37	5124.7	
262.58	5186.1	
262.79	3657	
263	2948.4	
263.21	4668.7	
263.42	4211.3	
263.63	3188.7	
263.84	2978.4	
264.05	4990.9	
264.26	5239.4	
264.47	3587.4	
264.69	3137.5	
264.9	5191.6	
265.11	4749.2	
265.32	2868.5	
265.53	2905.4	
265.74	4696	
265.95	4133.5	
266.16	3080.1	
266.37	3396.2	
266.58	4717.8	
266.79	4472.1	
267	2881.5	
267.21	2774.3	
267.42	4321.9	
267.63	4596.3	
267.84	3036.5	
268.06	2667.1	
268.27	4997	
268.48	5108.3	
268.69	2934.7	
268.9	3392.1	
269.11	5080.3	
269.32	4247.5	
269.53	3097.9	
269.74	2866.5	
269.95	4782.7	
270.16	4177.9	
270.37	3069.9	
270.58	3481.5	
270.79	4478.2	
271	4966.3	
271.21	3239.9	
271.42	3076.7	
271.63	4782.7	
271.84	4337.6	
272.05	2557.2	
272.26	2765.4	
272.47	4677.6	
272.68	4733.5	
272.89	2975	
273.11	3303.4	
273.32	4463.9	
273.53	5211.4	
273.74	3216	
273.95	3164.1	
274.16	5004.6	
274.37	4631.1	
274.58	3371	
274.79	2752.5	
275	4749.9	
275.21	5007.3	
275.42	3882.3	
275.63	3377.8	
275.84	4848.2	
276.05	5825.1	
276.26	3199.6	
276.47	3019.4	
276.68	4554.7	
276.89	5311.1	
277.1	3412.6	
277.31	2687.6	
277.52	4815.5	
277.73	5048.9	
277.94	2689	
278.15	2996.9	
278.36	4846.2	
278.57	4354	
278.78	2940.2	
278.99	3243.3	
279.2	4479.6	
279.41	4306.9	
279.62	3798.3	
279.83	2755.2	
280.04	5448.3	
280.25	4321.9	
280.46	3765.5	
280.67	3058.3	
280.88	4394.3	
281.09	5087.2	
281.3	3223.5	
281.51	3916.4	
281.72	4443.4	
281.93	4949.3	
282.14	2927.2	
282.35	3093.8	
282.56	5018.9	
282.77	4907.6	
282.98	2959.3	
283.19	3503.4	
283.4	5840.1	
283.61	4595.6	
283.82	2794.1	
284.03	3642.7	
284.24	4813.4	
284.45	5020.3	
284.66	3752.6	
284.87	3527.3	
285.08	5072.1	
285.29	5139	
285.5	2695.1	
285.71	3018.7	
285.92	5033.2	
286.12	5563	
286.33	3662.5	
286.54	2990.7	
286.75	4945.8	
286.96	4514.4	
287.17	2812.5	
287.38	3582.6	
287.59	4470	
287.8	4425	
288.01	3040.6	
288.22	3322.5	
288.43	4924.7	
288.64	4237.2	
288.85	3443.3	
289.06	3330.7	
289.27	4870.1	
289.48	5221.6	
289.69	3720.5	
289.9	3362.8	
290.11	5084.4	
290.32	4469.4	
290.53	3502.7	
290.74	3213.9	
290.94	4922.6	
291.15	4990.9	
291.36	2919	
291.57	3297.9	
291.78	4524.6	
291.99	4251.6	
292.2	2831	
292.41	3243.3	
292.62	4963.6	
292.83	4834.6	
293.04	3898.6	
293.25	2878.1	
293.46	4506.9	
293.67	5018.9	
293.88	2867.2	
294.09	2871.9	
294.29	4349.2	
294.5	4705.5	
294.71	3108.1	
294.92	2979.8	
295.13	4530.8	
295.34	5430.5	
295.55	2662.4	
295.76	2601.6	
295.97	4906.3	
296.18	5382.7	
296.39	2742.9	
296.6	2876	
296.81	4639.3	
297.01	4954	
297.22	3003.7	
297.43	2949.8	
297.64	4491.2	
297.85	4334.2	
298.06	2482.8	
298.27	2643.9	
298.48	4594.3	
298.69	4400.4	
298.9	3097.9	
299.11	2882.9	
299.31	4299.4	
299.52	4346.5	
299.73	3360.7	
299.94	3222.1	
300.15	4662.5	
300.36	4362.9	
300.57	3233.1	
300.78	3210.5	
300.99	4532.2	
301.2	4671.4	
301.4	2902	
301.61	3066.5	
301.82	4853	
302.03	4929.5	
302.24	3367.5	
302.45	2748.4	
302.66	4866	
302.87	5050.3	
303.08	2909.5	
303.29	3806.5	
303.49	4499.4	
303.7	4567	
303.91	2681.5	
304.12	3631	
304.33	4229.1	
304.54	4775.2	
304.75	2956.6	
304.96	2835.8	
305.16	4843.4	
305.37	5317.2	
305.58	2636.4	
305.79	2669.2	
306	4852.3	
306.21	4193.6	
306.42	2905.4	
306.63	4217.5	
306.83	4554	
307.04	4929.5	
307.25	3138.2	
307.46	3121.8	
307.67	4074.8	
307.88	4871.4	
308.09	2887	
308.29	2942.9	
308.5	4669.4	
308.71	4975.9	
308.92	3117.7	
309.13	2813.9	
309.34	4603.8	
309.55	4590.2	
309.75	3523.2	
309.96	3207.8	
310.17	4939	
310.38	4405.2	
310.59	3323.9	
310.8	2768.2	
311.01	5382.7	
311.21	4568.3	
311.42	2799.6	
311.63	2877.4	
311.84	4517.8	
312.05	4670.7	
312.26	3190.7	
312.46	3468.6	
312.67	4505.5	
312.88	4227.7	
313.09	2809.1	
313.3	2790	
313.51	5156.8	
313.71	5415.5	
313.92	2805.7	
314.13	2917	
314.34	4764.9	
314.55	4609.3	
314.76	3487.7	
314.96	3087.7	
315.17	4834.6	
315.38	4860.5	
315.59	2844.6	
315.8	2747.7	
316.01	5213.4	
316.21	5286.5	
316.42	2766.1	
316.63	3121.8	
316.84	4534.9	
317.05	5064.6	
317.26	3287	
317.46	2985.9	
317.67	4671.4	
317.88	4906.9	
318.09	3433.1	
318.3	2647.3	
318.5	4522.6	
318.71	4786.1	
318.92	4309.6	
319.13	3280.2	
319.34	4982	
319.54	5075.5	
319.75	2658.3	
319.96	2529.2	
320.17	4803.9	
320.38	4942.4	
320.58	2639.8	
320.79	3050.8	
321	5036.6	
321.21	5159.5	
321.42	3090.4	
321.62	2674.6	
321.83	4376.5	
322.04	4644.8	
322.25	2970.9	
322.46	2788.7	
322.66	4661.2	
322.87	4881.7	
323.08	3372.3	
323.29	2757.2	
323.5	5372.5	
323.7	4293.9	
323.91	3710.2	
324.12	3358	
324.33	4708.3	
324.53	4842.8	
324.74	3233.1	
324.95	3372.3	
325.16	4279.6	
325.37	4530.8	
325.57	2824.8	
325.78	2897.2	
325.99	4768.4	
326.2	4244.8	
326.4	3780.6	
326.61	2684.9	
326.82	4557.4	
327.03	4692.6	
327.24	3850.2	
327.44	3623.5	
327.65	4851.6	
327.86	4066.6	
328.07	3226.9	
328.27	2716.3	
328.48	5129.5	
328.69	4317.8	
328.9	3906.8	
329.1	2949.1	
329.31	4597	
329.52	5152	
329.73	2848.7	
329.93	3065.1	
330.14	4681	
330.35	4816.8	
330.56	4355.3	
330.76	3333.4	
330.97	4496	
331.18	4724	
331.39	3090.4	
331.59	2598.2	
331.8	5116.5	
332.01	5114.5	
332.22	2925.9	
332.42	3228.3	
332.63	4730.8	
332.84	4387.4	
333.05	3153.2	
333.25	2846.7	
333.46	4426.3	
333.67	4585.4	
333.88	2978.4	
334.08	3167.5	
334.29	5778	
334.5	5030.5	
334.7	2778.4	
334.91	3773.7	
335.12	4373.1	
335.33	4847.5	
335.53	3119.7	
335.74	4293.9	
335.95	4540.3	
336.16	4296	
336.36	3044	
336.57	3481.5	
336.78	4273.4	
336.98	5033.9	
337.19	3700.7	
337.4	3039.9	
337.61	5455.1	
337.81	4263.9	
338.02	2928.6	
338.23	3558.7	
338.43	5152.7	
338.64	4405.9	
338.85	2854.9	
339.05	3619.4	
339.26	5276.3	
339.47	4225	
339.68	2884.9	
339.88	3951.2	
340.09	4897.4	
340.3	4937	
340.5	3223.5	
340.71	2621.4	
340.92	4293.2	
341.13	5106.3	
341.33	2728.6	
341.54	3179.1	
341.75	4781.3	
341.95	4447.5	
342.16	3149.1	
342.37	3381.9	
342.57	4328	
342.78	4546.5	
342.99	3426.3	
343.19	2686.3	
343.4	4930.1	
343.61	4825	
343.81	3039.2	
344.02	2752.5	
344.23	4913.8	
344.43	5144.5	
344.64	3413.3	
344.85	3345	
345.06	4827.1	
345.26	5048.9	
345.47	3302	
345.68	3674.1	
345.88	4209.9	
346.09	4913.8	
346.3	3244.7	
346.5	2534	
346.71	4591.5	
346.92	4438.6	
347.12	2761.3	
347.33	3201.7	
347.54	4966.3	
347.74	5253.7	
347.95	3186	
348.16	2512.2	
348.36	4534.9	
348.57	4345.8	
348.78	3276.8	
348.98	3425.6	
349.19	4579.9	
349.39	4239.3	
349.6	2721.1	
349.81	2876	
350.01	4848.9	
350.22	4388.8	
350.43	3163.4	
350.63	3654.3	
350.84	4630.5	
351.05	4445.5	
351.25	2887	
351.46	2689.7	
351.67	4972.5	
351.87	4378.6	
352.08	2993.4	
352.29	3345	
352.49	4999.8	
352.7	4689.2	
352.9	2762.7	
353.11	3337.5	
353.32	5404.6	
353.52	4480.3	
353.73	2869.2	
353.94	3431.7	
354.14	4866	
354.35	4669.4	
354.55	2865.8	
354.76	3133.4	
354.97	4798.4	
355.17	4569.7	
355.38	2775.7	
355.59	3575.1	
355.79	4417.5	
356	4644.8	
356.2	3138.9	
356.41	2822.1	
356.62	4296.6	
356.82	4612	
357.03	3338.2	
357.24	2996.9	
357.44	4382	
357.65	4546.5	
357.85	3887.7	
358.06	3150.5	
358.27	4237.2	
358.47	4367.6	
358.68	2755.2	
358.88	3318.4	
359.09	4783.4	
359.3	4973.2	
359.5	3725.9	
359.71	3349.1	
359.91	5295.4	
360.12	4862.6	
360.33	3285.6	
360.53	3577.8	
360.74	4483.7	
360.94	4498	
361.15	3430.3	
361.36	2940.2	
361.56	5024.3	
361.77	4599.1	
361.97	3742.3	
362.18	3097.2	
362.38	5048.2	
362.59	4420.9	
362.8	2854.9	
363	2848	
363.21	4185.4	
363.41	4692.6	
363.62	3212.6	
363.83	3824.2	
364.03	4868	
364.24	5299.5	
364.44	4014.7	
364.65	4005.8	
364.85	4605.2	
365.06	4388.8	
365.27	3011.2	
365.47	3057.6	
365.68	5270.1	
365.88	4607.9	
366.09	3318.4	
366.29	3059.7	
366.5	4726	
366.71	5020.3	
366.91	3852.9	
367.12	3465.2	
367.32	5474.2	
367.53	4901.5	
367.73	3401.7	
367.94	4039.3	
368.14	4924	
368.35	5431.9	
368.56	3365.5	
368.76	2919.7	
368.97	5057.8	
369.17	6050.4	
369.38	3009.1	
369.58	3211.2	
369.79	4299.4	
369.99	5242.8	
370.2	3904.1	
370.4	3291.8	
370.61	4726	
370.82	5639.4	
371.02	3284.3	
371.23	2783.9	
371.43	4342.4	
371.64	5279.7	
371.84	3250.1	
372.05	3930.1	
372.25	5973.9	
372.46	4878.9	
372.66	3224.2	
372.87	3269.9	
373.07	4962.2	
373.28	6147.3	
373.48	3845.4	
373.69	3685	
373.9	4690.5	
374.1	4737.6	
374.31	3846.8	
374.51	3499.3	
374.72	5210.7	
374.92	4528.1	
375.13	4024.9	
375.33	3403.7	
375.54	4894	
375.74	4639.3	
375.95	3553.9	
376.15	4360.8	
376.36	5012.7	
376.56	4901.5	
376.77	3543.7	
376.97	3812	
377.18	5740.5	
377.38	5019.6	
377.59	3999	
377.79	3250.8	
378	4859.8	
378.2	5130.2	
378.41	3293.1	
378.61	3241.9	
378.82	5287.9	
379.02	4672.1	
379.23	3415.3	
379.43	4085	
379.64	5357.5	
379.84	5030.5	
380.05	3318.4	
380.25	3188.7	
380.46	5099.4	
380.66	4777.2	
380.87	4118.5	
381.07	4383.3	
381.28	5507.7	
381.48	5051	
381.69	3255.6	
381.89	3338.9	
382.1	4413.4	
382.3	5142.4	
382.51	4005.8	
382.71	4595.6	
382.91	5008	
383.12	5370.5	
383.32	3515.7	
383.53	3628.3	
383.73	4936.3	
383.94	4835.3	
384.14	3585.3	
384.35	3032.4	
384.55	4702.8	
384.76	5051	
384.96	3512.3	
385.17	3704.8	
385.37	5088.5	
385.58	4498.7	
385.78	3680.2	
385.98	3040.6	
386.19	4752.7	
386.39	4995	
386.6	3343.7	
386.8	3502	
387.01	5007.3	
387.21	5086.5	
387.42	3731.4	
387.62	4152.6	
387.83	4661.2	
388.03	4873.5	
388.23	3601	
388.44	4014	
388.64	4476.9	
388.85	4509.6	
389.05	3762.1	
389.26	4125.3	
389.46	5860.6	
389.67	5382.1	
389.87	3787.4	
390.07	3815.4	
390.28	4768.4	
390.48	4511	
390.69	3269.2	
390.89	3487	
391.1	4726	
391.3	5287.2	
391.5	4185.4	
391.71	4639.3	
391.91	5157.5	
392.12	5650.3	
392.32	4334.9	
392.53	3734.8	
392.73	4783.4	
392.93	4879.6	
393.14	3534.8	
393.34	4074.8	
393.55	5094	
393.75	4783.4	
393.95	3537.5	
394.16	3459	
394.36	4747.2	
394.57	5118.6	
394.77	3239.2	
394.98	3530	
395.18	4665.3	
395.38	4753.3	
395.59	4093.9	
395.79	3383.9	
396	4838.7	
396.2	5131.5	
396.4	3930.7	
396.61	3887.7	
396.81	5152	
397.02	4720.6	
397.22	4048.8	
397.42	4136.9	
397.63	5238.7	
397.83	4734.9	
398.04	3365.5	
398.24	3615.3	
398.44	5015.5	
398.65	4405.9	
398.85	3254.2	
399.05	3300	
399.26	4769.7	
399.46	5759.6	
399.67	3577.8	
399.87	3407.1	
400.07	4917.9	
400.28	5130.8	
400.48	3444	
400.69	4126	
400.89	5136.3	
401.09	5578.7	
401.3	3390.8	
401.5	4109.6	
401.7	5615.5	
401.91	5800.5	
402.11	3639.2	
402.32	3757.3	
402.52	5315.2	
402.72	5170.4	
402.93	3908.9	
403.13	3194.8	
403.33	5829.9	
403.54	4848.9	
403.74	3684.3	
403.94	4222.2	
404.15	5000.5	
404.35	5741.1	
404.56	3568.2	
404.76	4762.2	
404.96	5311.1	
405.17	5081.7	
405.37	4565.6	
405.57	3888.4	
405.78	5282.4	
405.98	4919.9	
406.18	3552.5	
406.39	4138.3	
406.59	5274.2	
406.79	4960.9	
407	3443.3	
407.2	3457	
407.4	5494	
407.61	5349.3	
407.81	3500	
408.01	4774.5	
408.22	4605.9	
408.42	5916.6	
408.62	4196.3	
408.83	3834.5	
409.03	4996.4	
409.23	4930.1	
409.44	3936.2	
409.64	4043.4	
409.84	5687.2	
410.05	5547.3	
410.25	4029	
410.45	3895.2	
410.66	5227.1	
410.86	6890.7	
411.06	4174.4	
411.27	4043.4	
411.47	6791.7	
411.67	5365	
411.88	4231.8	
412.08	4376.5	
412.28	5758.9	
412.49	6115.9	
412.69	4075.5	
412.89	4057	
413.09	6036.7	
413.3	5892.7	
413.5	4201.7	
413.7	3923.9	
413.91	5489.9	
414.11	5963	
414.31	4040	
414.52	4255.7	
414.72	5744.6	
414.92	5702.9	
415.12	4098	
415.33	4448.9	
415.53	5996.5	
415.73	6083.8	
415.94	4595.6	
416.14	4194.2	
416.34	5403.9	
416.55	5212.8	
416.75	5021.6	
416.95	4618.9	
417.15	5962.3	
417.36	6396.5	
417.56	5136.3	
417.76	4478.9	
417.97	6195.8	
418.17	5961.6	
418.37	4282.3	
418.57	4330.8	
418.78	5915.9	
418.98	5677	
419.18	4878.3	
419.38	4802.5	
419.59	5562.3	
419.79	5382.1	
419.99	4203.8	
420.2	4365.6	
420.4	5984.8	
420.6	6069.5	
420.8	4101.4	
421.01	4044.7	
421.21	5862	
421.41	5897.5	
421.61	4351.3	
421.82	4218.1	
422.02	5614.2	
422.22	6237.4	
422.42	4583.4	
422.63	4447.5	
422.83	5573.2	
423.03	6477.7	
423.23	4532.2	
423.44	3803.8	
423.64	5643.5	
423.84	5386.8	
424.04	4130.8	
424.25	3824.2	
424.45	6235.4	
424.65	6191	
424.85	3768.9	
425.06	4123.2	
425.26	6380.1	
425.46	5541.1	
425.66	4480.3	
425.87	4227.7	
426.07	6096.8	
426.27	5952.1	
426.47	4318.5	
426.67	3941.7	
426.88	6318.7	
427.08	5981.4	
427.28	4500.8	
427.48	3872	
427.69	5279.7	
427.89	5679	
428.09	4457.1	
428.29	3918.4	
428.5	5987.6	
428.7	5715.9	
428.9	3820.1	
429.1	4177.9	
429.3	5786.2	
429.51	5895.4	
429.71	4022.9	
429.91	4644.8	
430.11	5971.2	
430.31	6046.3	
430.52	4283	
430.72	4407.2	
430.92	6242.2	
431.12	5890	
431.32	3928.7	
431.53	4316.4	
431.73	5223	
431.93	6354.8	
432.13	3958.7	
432.33	3887.7	
432.54	5590.3	
432.74	5656.5	
432.94	3814.7	
433.14	4577.9	
433.34	6000.5	
433.55	5585.5	
433.75	4461.2	
433.95	5556.8	
434.15	5752.7	
434.35	5502.2	
434.56	3947.8	
434.76	3665.2	
434.96	5741.8	
435.16	5856.5	
435.36	3846.1	
435.56	4618.9	
435.77	5477	
435.97	5608	
436.17	5070.8	
436.37	4579.3	
436.57	5532.2	
436.78	5453.7	
436.98	4518.5	
437.18	4987.5	
437.38	5812.8	
437.58	5541.1	
437.78	5005.2	
437.99	4091.2	
438.19	5912.5	
438.39	6437.4	
438.59	4081.6	
438.79	3801.7	
438.99	6421.1	
439.2	5479.7	
439.4	3816	
439.6	3885	
439.8	5694.7	
440	6479.1	
440.2	4475.5	
440.4	4571.1	
440.61	6043.6	
440.81	6374.6	
441.01	3964.2	
441.21	4515.8	
441.41	6305.7	
441.61	5919.3	
441.81	4725.3	
442.02	5412.8	
442.22	6614.9	
442.42	6090	
442.62	4027.7	
442.82	4099.4	
443.02	6408.8	
443.22	5758.9	
443.43	4374.5	
443.63	3966.2	
443.83	5597.8	
444.03	5567.7	
444.23	4803.9	
444.43	4564.9	
444.63	5822.4	
444.83	6531	
445.04	4094.6	
445.24	4870.8	
445.44	6116.6	
445.64	6075	
445.84	4522.6	
446.04	4641.4	
446.24	5616.9	
446.44	6275.7	
446.65	4077.5	
446.85	4289.1	
447.05	5675.6	
447.25	6323.4	
447.45	4319.8	
447.65	3938.2	
447.85	5885.2	
448.05	5532.9	
448.25	4615.4	
448.46	4451.6	
448.66	5816.9	
448.86	5571.2	
449.06	3875.4	
449.26	4592.9	
449.46	6073.6	
449.66	5462.6	
449.86	4287.8	
450.06	4237.2	
450.26	5569.1	
450.47	5945.3	
450.67	4467.3	
450.87	4672.8	
451.07	6095.4	
451.27	5851	
451.47	3991.5	
451.67	4583.4	
451.87	5649	
452.07	6429.9	
452.27	4168.3	
452.47	4190.8	
452.67	5875.6	
452.88	6062	
453.08	3800.3	
453.28	5046.2	
453.48	6673	
453.68	5780.7	
453.88	4102.8	
454.08	4237.2	
454.28	6117.3	
454.48	5913.2	
454.68	4552	
454.88	4914.4	
455.08	6171.9	
455.28	5857.2	
455.48	4003.1	
455.68	4438.6	
455.89	6439.5	
456.09	6193.1	
456.29	4213.4	
456.49	4310.3	
456.69	6295.5	
456.89	5826.5	
457.09	4588.1	
457.29	4799.8	
457.49	6059.9	
457.69	6094.1	
457.89	4483.7	
458.09	4039.3	
458.29	5923.4	
458.49	6429.3	
458.69	4729.4	
458.89	4317.1	
459.09	6524.8	
459.29	6567.8	
459.49	4335.5	
459.69	4951.3	
459.9	6212.2	
460.1	5921.4	
460.3	4283.7	
460.5	4159.4	
460.7	6234	
460.9	5881.8	
461.1	3901.4	
461.3	4747.2	
461.5	6610.8	
461.7	6358.9	
461.9	4248.2	
462.1	4534.9	
462.3	6026.5	
462.5	6434	
462.7	4273.4	
462.9	4282.3	
463.1	7071.6	
463.3	6758.3	
463.5	4513	
463.7	5034.6	
463.9	6168.5	
464.1	6358.3	
464.3	4543.8	
464.5	4721.3	
464.7	6518	
464.9	6271.6	
465.1	5542.5	
465.3	4898.1	
465.5	6718	
465.7	6716.7	
465.9	5070.1	
466.1	4881	
466.3	6533.7	
466.5	6514.6	
466.7	5506.3	
466.9	4836.6	
467.1	6524.8	
467.3	7044.3	
467.5	5450.3	
467.7	4691.2	
467.9	7163.8	
468.1	7789.8	
468.3	5202.5	
468.5	5481	
468.7	6354.8	
468.9	6321.4	
469.1	4851	
469.3	5339.1	
469.5	7712.7	
469.7	6122.7	
469.9	5270.1	
470.1	4721.3	
470.3	6548	
470.5	6457.9	
470.7	5552.7	
470.9	4795.7	
471.1	6257.2	
471.3	6639.5	
471.5	4653.7	
471.69	5928.2	
471.89	6217	
472.09	5831.9	
472.29	5087.2	
472.49	5412.1	
472.69	6012.8	
472.89	6521.4	
473.09	4640	
473.29	4665.3	
473.49	6142.5	
473.69	6156.2	
473.89	5268.1	
474.09	4808.6	
474.29	7064.1	
474.49	6812.2	
474.69	5280.3	
474.89	4851.6	
475.09	6199.9	
475.29	6137.8	
475.49	4486.4	
475.69	4685.8	
475.88	7310.6	
476.08	6502.3	
476.28	4455	
476.48	4687.8	
476.68	6866.8	
476.88	6640.9	
477.08	4655.7	
477.28	4848.9	
477.48	6329.6	
477.68	6670.2	
477.88	4491.2	
478.08	4715.1	
478.28	6921.5	
478.48	6352.8	
478.67	4713.1	
478.87	4370.4	
479.07	6718.7	
479.27	6453.1	
479.47	4854.4	
479.67	4943.8	
479.87	6660	
480.07	7000.6	
480.27	4375.8	
480.47	5420.3	
480.67	6391	
480.87	6831.3	
481.06	4575.8	
481.26	5184.8	
481.46	6400.6	
481.66	6370.5	
481.86	4891.2	
482.06	5532.2	
482.26	6160.3	
482.46	6645	
482.66	4756.1	
482.86	4508.9	
483.05	6586.3	
483.25	6006	
483.45	6469.5	
483.65	4833.9	
483.85	6095.4	
484.05	6331	
484.25	5150	
484.45	5413.5	
484.65	6751.5	
484.84	6868.9	
485.04	4740.4	
485.24	4756.7	
485.44	7191.1	
485.64	6004	
485.84	4241.3	
486.04	5181.4	
486.24	6204.7	
486.44	6385.6	
486.63	4242.7	
486.83	4827.7	
487.03	6169.2	
487.23	6288.6	
487.43	4337.6	
487.63	5840.8	
487.83	6326.9	
488.02	6832.7	
488.22	4919.9	
488.42	5257.8	
488.62	6879.1	
488.82	6079.1	
489.02	4771.8	
489.22	4684.4	
489.41	6782.9	
489.61	6553.5	
489.81	4516.5	
490.01	4541	
490.21	6782.2	
490.41	7204.8	
490.61	4583.4	
490.8	4631.1	
491	6410.8	
491.2	6040.8	
491.4	5087.2	
491.6	4455.7	
491.8	6448.4	
491.99	6466.8	
492.19	4237.9	
492.39	4558.8	
492.59	6737.8	
492.79	6819.1	
492.99	5172.5	
493.18	4539	
493.38	6854.6	
493.58	7262.8	
493.78	5055.8	
493.98	4699.4	
494.18	6571.9	
494.37	6190.3	
494.57	5160.2	
494.77	5011.4	
494.97	6705	
495.17	6886.6	
495.37	4699.4	
495.56	4988.2	
495.76	6961	
495.96	6805.4	
496.16	5618.9	
496.36	4796.3	
496.55	6940.6	
496.75	6550.1	
496.95	5070.1	
497.15	5063.3	
497.35	6898.2	
497.54	6789	
497.74	4901.5	
497.94	6006	
498.14	7382.2	
498.34	7139.9	
498.53	4711.7	
498.73	5188.9	
498.93	6351.4	
499.13	6688	
499.33	5060.5	
499.52	5374.6	
499.72	6812.2	
499.92	6965.1	
500.12	4805.2	
500.32	4979.3	
500.51	7001.3	
500.71	6685.3	
500.91	5524.1	
501.11	5302.2	
501.31	6901.7	
501.5	7170.6	
501.7	5748.6	
501.9	5054.4	
502.1	6734.4	
502.29	6991.8	
502.49	5294.7	
502.69	5693.4	
502.89	6937.2	
503.09	6870.9	
503.28	4681.7	
503.48	4820.9	
503.68	6463.4	
503.88	6360.3	
504.07	5475.6	
504.27	5080.3	
504.47	6657.3	
504.67	6743.3	
504.86	5332.2	
505.06	5188.9	
505.26	6541.2	
505.46	7601.4	
505.65	5076.2	
505.85	5276.9	
506.05	6477	
506.25	6792.4	
506.44	4646.2	
506.64	5257.1	
506.84	6319.3	
507.04	6935.1	
507.23	4866	
507.43	5160.9	
507.63	7721.5	
507.83	6440.2	
508.02	5205.3	
508.22	4904.2	
508.42	7811	
508.62	6274.3	
508.81	5038.7	
509.01	5462.6	
509.21	6287.3	
509.4	6425.8	
509.6	5204.6	
509.8	4801.1	
510	6490	
510.19	7183.6	
510.39	4631.1	
510.59	4812	
510.79	6282.5	
510.98	7199.3	
511.18	4917.9	
511.38	4894	
511.57	6944	
511.77	6623.1	
511.97	5397.1	
512.17	4743.8	
512.36	6844.3	
512.56	6715.3	
512.76	4686.4	
512.95	4524.6	
513.15	6959.7	
513.35	5915.2	
513.55	5324	
513.74	4644.8	
513.94	6918	
514.14	6406.7	
514.33	5424.4	
514.53	5165	
514.73	6462.7	
514.92	6507.1	
515.12	4752.7	
515.32	4668	
515.51	6638.1	
515.71	6785.6	
515.91	5910.4	
516.11	4750.6	
516.3	7641.7	
516.5	6342.6	
516.7	5119.9	
516.89	5469.4	
517.09	6398.5	
517.29	6388.3	
517.48	5408	
517.68	4962.2	
517.88	6197.8	
518.07	6638.8	
518.27	5289.9	
518.47	4590.9	
518.66	7008.8	
518.86	6137.1	
519.06	4548.5	
519.25	4761.5	
519.45	6331	
519.65	7251.9	
519.84	5216.9	
520.04	5674.2	
520.24	7598	
520.43	6730.3	
520.63	5153.4	
520.83	4962.2	
521.02	6242.9	
521.22	6677.7	
521.42	5195.7	
521.61	5593.7	
521.81	6445.6	
522.01	6664.8	
522.2	5155.4	
522.4	4977.2	
522.6	6849.8	
522.79	5937.7	
522.99	4954.7	
523.18	4545.1	
523.38	6608.1	
523.58	6559.6	
523.77	5767.1	
523.97	4468	
524.17	7848.5	
524.36	7297.6	
524.56	5399.1	
524.76	5179.3	
524.95	6470.9	
525.15	6331	
525.34	5045.5	
525.54	4980.7	
525.74	6780.8	
525.93	6173.9	
526.13	5834.7	
526.33	4984.1	
526.52	7086	
526.72	6606.7	
526.91	5812.1	
527.11	5315.2	
527.31	6990.4	
527.5	7304.4	
527.7	5257.1	
527.89	4542.4	
528.09	6314.6	
528.29	6724.8	
528.48	5518.6	
528.68	5367.7	
528.87	6961.7	
529.07	7012.2	
529.27	5282.4	
529.46	4980	
529.66	6769.9	
529.85	7020.4	
530.05	4851.6	
530.25	5330.9	
530.44	7604.1	
530.64	6640.9	
530.83	5085.8	
531.03	5162.2	
531.23	7004.7	
531.42	6825.2	
531.62	5674.2	
531.81	5171.8	
532.01	7071.6	
532.21	7258.7	
532.4	5012.7	
532.6	5266	
532.79	7591.1	
532.99	6999.3	
533.18	5257.1	
533.38	5849.7	
533.58	6709.8	
533.77	7142.6	
533.97	5199.8	
534.16	5763	
534.36	7407.5	
534.55	6679.8	
534.75	5826.5	
534.95	5258.5	
535.14	7390.4	
535.34	6685.9	
535.53	4982	
535.73	6197.8	
535.92	7714	
536.12	6772.6	
536.31	5109.7	
536.51	5935	
536.71	7088	
536.9	6788.3	
537.1	5210.7	
537.29	5395.7	
537.49	7342	
537.68	6731.7	
537.88	5584.1	
538.07	5017.5	
538.27	6885.3	
538.46	7419.8	
538.66	4908.3	
538.86	5158.2	
539.05	6881.9	
539.25	7177.4	
539.44	5388.9	
539.64	5177.3	
539.83	6780.8	
540.03	7413.6	
540.22	5094.7	
540.42	5169.8	
540.61	6944	
540.81	6991.1	
541	5431.2	
541.2	5896.8	
541.39	6622.4	
541.59	6875	
541.78	5689.3	
541.98	5132.2	
542.18	6409.5	
542.37	6410.1	
542.57	5356.8	
542.76	5696.1	
542.96	6513.9	
543.15	6866.2	
543.35	5393	
543.54	5004.6	
543.74	7044.3	
543.93	6819.7	
544.13	5322	
544.32	6113.2	
544.52	7120.1	
544.71	6571.2	
544.91	4745.8	
545.1	5550.7	
545.3	6569.9	
545.49	6915.3	
545.69	4743.1	
545.88	5124	
546.08	7608.9	
546.27	7249.8	
546.47	5435.3	
546.66	5002.5	
546.86	7101	
547.05	7464.8	
547.24	5135.6	
547.44	4962.9	
547.63	6433.4	
547.83	7134.4	
548.02	5256.5	
548.22	5408	
548.41	6253.1	
548.61	7281.9	
548.8	4979.3	
549	4999.1	
549.19	6849.8	
549.39	7037.5	
549.58	4742.4	
549.78	5128.1	
549.97	7032.7	
550.17	6627.2	
550.36	5751.4	
550.55	6411.5	
550.75	6692.1	
550.94	7316	
551.14	4858.5	
551.33	5178.6	
551.53	6201.2	
551.72	6928.3	
551.92	5259.2	
552.11	5056.4	
552.31	6954.2	
552.5	6961	
552.69	6246.3	
552.89	4851.6	
553.08	6903	
553.28	6719.4	
553.47	5113.8	
553.67	5821	
553.86	7327.6	
554.06	6212.9	
554.25	4548.5	
554.44	4935.6	
554.64	7804.8	
554.83	7466.2	
555.03	4821.6	
555.22	5192.3	
555.42	7034.8	
555.61	6865.5	
555.8	5038.7	
556	5289.9	
556.19	6272.2	
556.39	7067.5	
556.58	5060.5	
556.78	5151.3	
556.97	6783.6	
557.16	6550.8	
557.36	5897.5	
557.55	4786.8	
557.75	6050.4	
557.94	7335.8	
558.13	4868	
558.33	4754.7	
558.52	7068.9	
558.72	6352.1	
558.91	4792.9	
559.1	4861.9	
559.3	6174.6	
559.49	5999.2	
559.69	4579.9	
559.88	5172.5	
560.07	6756.2	
560.27	7070.3	
560.46	5378.6	
560.66	5405.3	
560.85	6660	
561.04	6004.6	
561.24	4760.2	
561.43	4930.1	
561.63	6163.7	
561.82	6462.7	
562.01	5705.6	
562.21	5091.3	
562.4	6676.4	
562.59	7350.8	
562.79	4988.2	
562.98	4774.5	
563.18	6619.7	
563.37	7649.8	
563.56	5379.3	
563.76	4769.7	
563.95	6316.6	
564.14	6223.1	
564.34	5027.8	
564.53	4762.9	
564.73	6677.7	
564.92	6767.9	
565.11	5090.6	
565.31	4677.6	
565.5	7120.1	
565.69	6242.2	
565.89	4878.3	
566.08	5053.7	
566.27	6892.8	
566.47	7176.1	
566.66	5539.1	
566.85	4567	
567.05	6667.5	
567.24	6326.2	
567.44	4826.4	
567.63	5709.7	
567.82	6866.8	
568.02	6516	
568.21	4757.4	
568.4	4932.2	
568.6	6661.4	
568.79	6507.1	
568.98	4714.4	
569.18	4651.6	
569.37	6494.1	
569.56	7831.4	
569.76	5004.6	
569.95	5628.5	
570.14	6849.1	
570.34	6599.2	
570.53	4696	
570.72	4665.3	
570.91	7067.5	
571.11	6513.2	
571.3	5006.6	
571.49	5638.1	
571.69	6617.7	
571.88	6157.6	
572.07	5325.4	
572.27	5360.9	
572.46	6192.4	
572.65	6863.4	
572.85	4825.7	
573.04	5072.1	
573.23	7101.7	
573.43	6518.7	
573.62	4650.9	
573.81	5052.3	
574	6633.4	
574.2	6384.2	
574.39	4930.8	
574.58	4958.1	
574.78	7127.6	
574.97	6547.4	
575.16	5225.1	
575.36	5309	
575.55	6910.5	
575.74	6946	
575.93	4596.3	
576.13	5343.2	
576.32	6528.2	
576.51	6820.4	
576.71	5025	
576.9	5782.8	
577.09	7068.2	
577.28	6705	
577.48	5297.4	
577.67	4595.6	
577.86	6556.9	
578.05	6705	
578.25	5063.3	
578.44	5099.4	
578.63	6584.9	
578.83	7399.3	
579.02	4593.6	
579.21	5675.6	
579.4	6670.9	
579.6	6455.2	
579.79	5115.8	
579.98	6649.1	
580.17	6905.8	
580.37	7015	
580.56	4824.3	
580.75	5257.1	
580.94	7155.6	
581.14	7292.1	
581.33	5552.7	
581.52	4878.3	
581.71	6832	
581.91	7318.8	
582.1	4712.4	
582.29	4977.9	
582.48	6549.4	
582.68	6551.5	
582.87	5419.6	
583.06	5198.4	
583.25	6885.3	
583.45	6660	
583.64	5557.5	
583.83	6016.9	
584.02	6555.5	
584.21	6823.1	
584.41	5570.5	
584.6	4998.4	
584.79	6595.8	
584.98	7038.9	
585.18	4696	
585.37	4663.2	
585.56	6404	
585.75	6834.8	
585.94	4899.4	
586.14	5278.3	
586.33	7271.7	
586.52	6522.8	
586.71	5238	
586.91	5016.8	
587.1	6189	
587.29	6909.2	
587.48	5029.8	
587.67	4938.3	
587.87	6851.1	
588.06	6786.3	
588.25	5806	
588.44	5341.1	
588.63	6667.5	
588.83	6969.2	
589.02	5031.2	
589.21	4883	
589.4	6559	
589.59	6408.8	
589.78	4455.7	
589.98	4614.1	
590.17	6178.7	
590.36	6428.6	
590.55	4232.5	
590.74	4855.1	
590.94	7409.6	
591.13	6438.1	
591.32	4719.2	
591.51	4319.2	
591.7	6671.6	
591.89	6338.5	
592.09	4333.5	
592.28	4746.5	
592.47	5836.7	
592.66	7143.3	
592.85	4406.5	
593.05	4541.7	
593.24	6292	
593.43	6793.1	
593.62	4659.1	
593.81	4910.3	
594	6367.1	
594.19	6448.4	
594.39	4670.7	
594.58	4516.5	
594.77	6538.5	
594.96	6913.9	
595.15	4518.5	
595.34	4902.8	
595.54	6402.6	
595.73	5966.4	
595.92	4102.8	
596.11	4813.4	
596.3	6866.2	
596.49	6070.9	
596.68	4752.7	
596.88	4954.7	
597.07	6654.5	
597.26	5901.6	
597.45	4382.7	
597.64	5124	
597.83	6057.2	
598.02	6496.2	
598.22	4471.4	
598.41	4961.5	
598.6	6381.5	
598.79	6024.4	
598.98	4441.4	
599.17	5048.2	
599.36	6441.5	
599.55	7138.5	
599.74	5807.4	
599.94	5641.5	
600.13	6802	
600.32	5997.1	
600.51	4314.4	
600.7	4397.7	
600.89	7234.8	
601.08	7270.3	
601.27	4298.7	
601.47	4818.9	
601.66	6688	
601.85	7075	
602.04	4729.4	
602.23	4904.2	
602.42	6079.7	
602.61	6498.9	
602.8	4645.5	
602.99	4556	
603.18	6243.6	
603.37	6429.3	
603.57	4926	
603.76	5269.4	
603.95	6956.9	
604.14	6567.8	
604.33	4579.3	
604.52	4760.8	
604.71	6419	
604.9	6128.9	
605.09	5192.3	
605.28	5035.3	
605.47	6815.6	
605.66	6527.6	
605.86	4905.6	
606.05	4577.9	
606.24	6866.8	
606.43	5753.4	
606.62	4857.8	
606.81	5296	
607	6751.5	
607.19	6236.1	
607.38	4371	
607.57	4548.5	
607.76	6057.2	
607.95	5714.5	
608.14	4846.9	
608.33	5294	
608.52	6087.9	
608.72	6660.7	
608.91	4282.3	
609.1	4259.8	
609.29	6137.8	
609.48	5795.8	
609.67	5022.3	
609.86	4369.7	
610.05	5900.9	
610.24	6141.9	
610.43	4290.5	
610.62	4018.8	
610.81	6918.7	
611	6778.8	
611.19	4339.6	
611.38	4874.8	
611.57	6406.7	
611.76	7157.7	
611.95	4229.7	
612.14	4096.6	
612.33	6118.6	
612.52	5869.5	
612.71	4596.3	
612.9	4054.3	
613.09	5597.1	
613.28	7232.7	
613.47	4507.6	
613.66	4991.6	
613.85	6272.2	
614.04	5930.9	
614.24	4452.3	
614.43	3893.9	
614.62	6401.3	
614.81	6339.8	
615	4798.4	
615.19	4764.9	
615.38	5915.2	
615.57	6182.8	
615.76	4715.8	
615.95	5370.5	
616.14	6437.4	
616.33	6222.4	
616.52	4977.2	
616.71	5086.5	
616.9	6411.5	
617.09	6167.8	
617.28	4524.6	
617.47	5324.7	
617.66	5728.9	
617.85	5784.1	
618.04	5083.1	
618.22	4703.5	
618.41	5959.6	
618.6	6592.4	
618.79	4625	
618.98	4450.9	
619.17	6780.8	
619.36	5582.1	
619.55	4591.5	
619.74	4562.9	
619.93	6293.4	
620.12	5889.3	
620.31	4940.4	
620.5	5024.3	
620.69	6689.3	
620.88	7016.3	
621.07	5468.1	
621.26	4891.9	
621.45	6393.1	
621.64	6421.7	
621.83	4943.8	
622.02	4384.7	
622.21	6456.6	
622.4	6279.1	
622.59	5190.2	
622.78	5152.7	
622.97	6031.3	
623.16	6675	
623.35	4913.8	
623.54	4302.8	
623.72	6051.7	
623.91	6220.4	
624.1	5102.9	
624.29	4220.9	
624.48	6959	
624.67	6485.9	
624.86	4988.9	
625.05	4354	
625.24	7068.9	
625.43	6029.9	
625.62	6089.3	
625.81	4513.7	
626	6592.4	
626.19	6074.3	
626.38	4997	
626.56	4654.4	
626.75	6033.3	
626.94	6491.4	
627.13	5059.2	
627.32	4106.9	
627.51	6508.4	
627.7	7180.2	
627.89	4205.8	
628.08	4954.7	
628.27	5913.2	
628.46	6057.2	
628.65	4482.3	
628.83	4158.7	
629.02	6434	
629.21	5838.1	
629.4	4707.6	
629.59	4824.3	
629.78	5893.4	
629.97	6520	
630.16	4883.7	
630.35	4518.5	
630.54	6896.9	
630.72	6690	
630.91	4532.2	
631.1	4861.2	
631.29	6292	
631.48	6299.6	
631.67	5086.5	
631.86	4572.4	
632.05	6136.4	
632.24	6133.7	
632.42	4427	
632.61	4788.2	
632.8	6054.5	
632.99	5831.2	
633.18	4833.2	
633.37	5031.9	
633.56	6426.5	
633.75	6257.9	
633.93	4788.2	
634.12	4661.9	
634.31	6992.4	
634.5	6526.9	
634.69	4634.6	
634.88	5051.7	
635.07	6105.7	
635.25	6541.2	
635.44	5304.9	
635.63	5341.8	
635.82	6146.6	
636.01	5642.2	
636.2	5182	
636.39	4911.7	
636.57	6871.6	
636.76	6531	
636.95	4489.1	
637.14	5418.2	
637.33	6350.1	
637.52	7000.6	
637.7	4308.9	
637.89	5098.1	
638.08	6152.8	
638.27	7064.1	
638.46	5055.8	
638.65	5270.1	
638.83	7077.1	
639.02	6049	
639.21	5033.9	
639.4	5282.4	
639.59	6355.5	
639.78	6100.9	
639.96	4513.7	
640.15	4522.6	
640.34	6290.7	
640.53	6279.8	
640.72	4375.1	
640.91	4584.7	
641.09	5880.4	
641.28	6706.4	
641.47	4598.4	
641.66	5109.7	
641.85	6295.5	
642.03	6498.9	
642.22	4988.9	
642.41	4614.1	
642.6	5939.8	
642.79	5504.9	
642.97	4525.3	
643.16	4924	
643.35	5906.3	
643.54	5785.5	
643.73	4383.3	
643.91	4932.9	
644.1	5754.8	
644.29	6130.3	
644.48	4465.9	
644.67	4553.3	
644.85	5756.2	
645.04	6158.9	
645.23	4299.4	
645.42	4470	
645.6	5798.5	
645.79	6574	
645.98	4487.8	
646.17	3863.2	
646.36	5590.3	
646.54	6054.5	
646.73	5011.4	
646.92	4200.4	
647.11	5709.1	
647.29	6405.4	
647.48	4236.6	
647.67	4089.8	
647.86	6621.8	
648.05	6585.6	
648.23	4451.6	
648.42	5323.4	
648.61	6196.5	
648.8	5980.8	
648.98	4191.5	
649.17	4425	
649.36	5829.2	
649.55	5401.9	
649.73	4326.7	
649.92	4764.3	
650.11	5630.5	
650.3	5885.9	
650.48	4322.6	
650.67	4236.6	
650.86	6049	
651.05	5401.9	
651.23	4276.8	
651.42	4238.6	
651.61	5720.7	
651.79	5697.4	
651.98	4462.5	
652.17	4205.2	
652.36	6032	
652.54	5406	
652.73	4249.5	
652.92	4111	
653.11	6099.5	
653.29	6171.2	
653.48	3794.9	
653.67	4425.7	
653.85	5855.1	
654.04	6649.8	
654.23	4528.1	
654.42	4282.3	
654.6	5643.5	
654.79	6098.9	
654.98	3939.6	
655.16	4319.8	
655.35	5421	
655.54	5225.1	
655.73	4033.8	
655.91	3953.3	
656.1	5926.8	
656.29	5161.6	
656.47	3683.6	
656.66	4786.1	
656.85	5511.8	
657.03	5489.9	
657.22	4050.9	
657.41	4037.9	
657.59	5489.9	
657.78	5360.9	
657.97	3787.4	
658.16	4304.8	
658.34	6026.5	
658.53	6269.5	
658.72	4886.5	
658.9	5197.1	
659.09	5621	
659.28	5682.4	
659.46	4111	
659.65	4059.8	
659.84	5440.8	
660.02	5884.5	
660.21	4138.3	
660.4	3953.3	
660.58	6150.1	
660.77	5673.6	
660.96	4461.2	
661.14	3796.9	
661.33	6442.9	
661.52	6405.4	
661.7	3697.9	
661.89	6101.6	
662.08	5470.1	
662.26	5051	
662.45	3932.1	
662.64	3997	
662.82	5958.2	
663.01	5261.2	
663.2	4055	
663.38	4467.3	
663.57	5782.1	
663.75	5760.9	
663.94	4245.4	
664.13	5099.4	
664.31	5393.7	
664.5	5860.6	
664.69	4536.3	
664.87	4739.7	
665.06	5324	
665.25	5754.8	
665.43	4968.4	
665.62	4917.2	
665.8	5859.9	
665.99	5507.7	
666.18	4220.2	
666.36	4335.5	
666.55	5937.7	
666.74	5769.1	
666.92	4025.6	
667.11	5090.6	
667.29	5579.3	
667.48	5939.8	
667.67	4878.9	
667.85	4150.6	
668.04	5501.5	
668.22	5425.1	
668.41	4283	
668.6	4429.1	
668.78	5365.7	
668.97	5487.2	
669.15	4503.5	
669.34	3781.9	
669.53	5341.1	
669.71	5627.8	
669.9	3960.1	
670.08	4362.9	
670.27	5315.2	
670.46	5787.6	
670.64	4564.2	
670.83	4717.8	
671.01	5185.5	
671.2	5612.8	
671.38	3998.3	
671.57	3917.8	
671.76	6206.7	
671.94	6442.9	
672.13	3865.2	
672.31	4617.5	
672.5	5898.1	
672.69	5338.4	
672.87	4018.8	
673.06	4227.7	
673.24	5722.7	
673.43	5424.4	
673.61	4435.9	
673.8	4134.2	
673.98	5780.7	
674.17	5887.2	
674.36	4655	
674.54	4433.9	
674.73	5662.6	
674.91	5912.5	
675.1	4227	
675.28	4008.6	
675.47	5496.1	
675.65	5900.9	
675.84	4266.6	
676.03	4433.2	
676.21	5413.5	
676.4	5008.6	
676.58	4698.7	
676.77	4536.9	
676.95	6480.5	
677.14	5397.8	
677.32	3960.8	
677.51	3876.8	
677.69	5963.7	
677.88	5225.1	
678.06	3908.9	
678.25	4048.8	
678.44	5479.7	
678.62	5352.7	
678.81	3790.1	
678.99	4454.3	
679.18	6089.3	
679.36	5713.8	
679.55	4152.6	
679.73	4531.5	
679.92	5780.7	
680.1	5404.6	
680.29	4953.4	
680.47	4166.9	
680.66	5367	
680.84	5907	
681.03	3743	
681.21	4508.9	
681.4	5327.4	
681.58	5308.3	
681.77	4069.3	
681.95	3991.5	
682.14	5988.9	
682.32	6140.5	
682.51	4610.7	
682.69	3797.6	
682.88	5356.1	
683.06	5756.2	
683.25	4408.6	
683.43	4681.7	
683.62	5614.8	
683.8	5794.4	
683.99	4786.1	
684.17	4296	
684.36	6421.1	
684.54	5489.2	
684.73	3813.3	
684.91	3913	
685.1	5767.1	
685.28	5290.6	
685.46	4315.1	
685.65	4373.1	
685.83	5894.1	
686.02	5420.3	
686.2	3974.4	
686.39	4089.8	
686.57	5117.2	
686.76	6171.2	
686.94	3959.4	
687.13	4080.9	
687.31	5722.7	
687.5	5456.5	
687.68	3646.7	
687.86	4453.6	
688.05	6623.1	
688.23	5016.2	
688.42	4607.9	
688.6	4023.6	
688.79	5319.9	
688.97	5359.5	
689.16	4277.5	
689.34	3602.4	
689.52	5831.9	
689.71	6016.2	
689.89	4505.5	
690.08	3976.5	
690.26	5535	
690.45	5356.1	
690.63	4614.8	
690.81	4119.1	
691	5504.9	
691.18	5305.6	
691.37	4204.5	
691.55	5667.4	
691.74	5274.2	
691.92	6692.8	
692.1	4178.5	
692.29	3869.3	
692.47	5425.8	
692.66	4906.3	
692.84	3982.6	
693.02	4270	
693.21	5037.3	
693.39	5454.4	
693.58	4421.6	
693.76	3956.7	
693.94	6147.3	
694.13	5980.1	
694.31	4018.1	
694.5	4719.9	
694.68	5241.4	
694.86	5536.3	
695.05	4213.4	
695.23	4313	
695.42	5730.9	
695.6	7275.1	
695.78	4627.7	
695.97	4046.1	
696.15	5846.3	
696.34	5341.8	
696.52	3849.5	
696.7	4483	
696.89	5627.1	
697.07	5106.3	
697.25	4376.5	
697.44	5383.4	
697.62	5693.4	
697.81	5795.8	
697.99	4190.8	
698.17	4446.8	
698.36	5230.5	
698.54	5641.5	
698.72	4469.4	
698.91	3675.4	
699.09	5355.4	
699.28	5276.9	
699.46	4202.4	
699.64	4080.9	
699.83	5186.1	
700.01	6006.7	
700.19	4629.8	
700.38	3547.1	
700.56	5965.7	
700.74	5261.9	
700.93	3826.3	
701.11	4364.9	
701.29	5653.1	
701.48	6438.1	
701.66	3947.8	
701.84	3985.3	
702.03	5353.4	
702.21	5875.6	
702.39	3679.5	
702.58	4083	
702.76	5670.8	
702.94	5646.9	
703.13	3715.7	
703.31	5326.1	
703.49	5177.9	
703.68	6185.5	
703.86	3876.1	
704.04	4527.4	
704.23	5522	
704.41	5758.9	
704.59	3997	
704.78	4774.5	
704.96	6654.5	
705.14	5816.2	
705.33	3866.6	
705.51	4364.9	
705.69	5319.9	
705.87	5969.8	
706.06	4491.2	
706.24	3801.7	
706.42	5631.9	
706.61	5770.5	
706.79	4553.3	
706.97	3774.4	
707.16	5247.6	
707.34	5602.6	
707.52	4554	
707.7	3919.8	
707.89	5266.7	
708.07	5138.4	
708.25	4540.3	
708.44	4730.8	
708.62	5248.3	
708.8	6057.9	
708.98	4774.5	
709.17	4017.4	
709.35	5500.8	
709.53	5585.5	
709.72	3771	
709.9	3966.9	
710.08	5827.2	
710.26	5760.3	
710.45	4917.9	
710.63	4023.6	
710.81	5464	
710.99	5521.3	
711.18	4483.7	
711.36	4119.8	
711.54	5340.4	
711.72	5924.1	
711.91	4195.6	
712.09	3864.5	
712.27	5575.9	
712.45	5905	
712.64	4385.4	
712.82	3627	
713	5165	
713.18	5274.9	
713.37	3739.6	
713.55	4644.8	
713.73	5954.8	
713.91	4963.6	
714.1	3998.3	
714.28	3648.1	
714.46	5636.7	
714.64	5119.2	
714.83	3351.8	
715.01	3919.8	
715.19	5286.5	
715.37	4777.2	
715.55	3664.5	
715.74	3999.7	
715.92	5836.7	
716.1	4398.4	
716.28	4708.3	
716.47	3992.9	
716.65	5068.7	
716.83	4985.4	
717.01	3900.7	
717.19	3923.9	
717.38	6472.3	
717.56	4752	
717.74	4042	
717.92	3478.8	
718.1	5576.6	
718.29	5061.2	
718.47	3189.4	
718.65	3679.5	
718.83	5592.3	
719.01	5490.6	
719.2	3134.1	
719.38	3919.1	
719.56	5319.3	
719.74	6294.8	
719.92	3665.9	
720.11	4332.1	
720.29	5408	
720.47	4742.4	
720.65	3348.4	
720.83	3949.2	
721.02	5006.6	
721.2	4819.6	
721.38	3973.7	
721.56	3442	
721.74	4484.4	
721.92	4649.6	
722.11	4293.9	
722.29	4050.9	
722.47	5469.4	
722.65	4903.5	
722.83	3492.5	
723.01	4080.9	
723.2	4896	
723.38	5134.9	
723.56	3025.5	
723.74	3887	
723.92	4602.5	
724.1	5360.2	
724.29	3426.9	
724.47	4179.2	
724.65	4758.1	
724.83	4570.4	
725.01	3386.7	
725.19	3933.5	
725.37	4646.8	
725.56	4648.9	
725.74	3259	
725.92	3472.7	
726.1	4618.2	
726.28	4905.6	
726.46	3691.1	
726.64	3494.5	
726.83	4852.3	
727.01	5061.9	
727.19	3252.2	
727.37	3832.4	
727.55	4962.9	
727.73	5298.1	
727.91	3241.3	
728.09	3154.6	
728.28	5330.9	
728.46	5447.6	
728.64	3887	
728.82	3844.7	
729	5993	
729.18	5541.8	
729.36	3227.6	
729.54	4878.9	
729.72	6118.6	
729.91	4980.7	
730.09	4610	
730.27	3728.7	
730.45	4948.6	
730.63	5388.9	
730.81	4118.5	
730.99	3480.2	
731.17	5797.8	
731.35	4762.9	
731.53	3898.6	
731.71	3575.8	
731.9	5567.1	
732.08	5654.4	
732.26	3798.3	
732.44	3569.6	
732.62	5702.2	
732.8	5306.3	
732.98	4058.4	
733.16	3421.5	
733.34	5424.4	
733.52	4446.8	
733.7	3758	
733.88	3947.8	
734.07	5241.4	
734.25	5085.8	
734.43	3388.7	
734.61	4407.9	
734.79	6109.8	
734.97	4989.5	
735.15	3433.1	
735.33	3650.2	
735.51	5272.8	
735.69	5047.6	
735.87	4490.5	
736.05	3887	
736.23	5114.5	
736.41	4949.9	
736.59	3726.6	
736.77	3814.7	
736.95	5418.2	
737.13	5001.8	
737.32	3497.2	
737.5	3648.8	
737.68	5826.5	
737.86	4934.2	
738.04	3402.4	
738.22	4729.4	
738.4	4898.1	
738.58	5097.4	
738.76	3793.5	
738.94	3127.9	
739.12	4924.7	
739.3	4859.1	
739.48	4182	
739.66	3992.9	
739.84	5102.9	
740.02	5057.1	
740.2	3166.2	
740.38	3383.2	
740.56	5345.2	
740.74	4448.2	
740.92	3973.1	
741.1	3744.4	
741.28	5003.9	
741.46	4795.7	
741.64	3615.3	
741.82	3861.8	
742	5036	
742.18	4926.7	
742.36	3749.1	
742.54	3454.9	
742.72	5384.8	
742.9	4462.5	
743.08	3961.5	
743.26	3153.9	
743.44	5470.1	
743.62	5380.7	
743.8	4107.5	
743.98	3423.5	
744.16	5202.5	
744.34	4995	
744.52	4032.5	
744.7	4016.1	
744.88	5234.6	
745.06	5003.2	
745.24	3953.9	
745.42	4076.8	
745.6	5435.3	
745.78	5264.6	
745.96	3252.2	
746.14	3477.5	
746.32	5933	
746.5	5311.1	
746.68	3794.9	
746.86	3408.5	
747.03	5594.4	
747.21	4479.6	
747.39	3894.6	
747.57	3447.4	
747.75	5096.7	
747.93	5294.7	
748.11	3434.4	
748.29	3411.2	
748.47	6261.3	
748.65	4857.1	
748.83	3915	
749.01	3784.6	
749.19	5202.5	
749.37	4659.8	
749.55	3771.7	
749.73	3751.2	
749.91	5085.8	
750.09	4881	
750.26	3745.1	
750.44	3353.2	
750.62	5012.7	
750.8	5001.8	
750.98	3278.1	
751.16	3480.2	
751.34	5184.8	
751.52	4616.1	
751.7	4078.2	
751.88	3293.8	
752.06	5470.1	
752.24	5244.2	
752.42	3203.7	
752.59	3500	
752.77	4974.5	
752.95	5832.6	
753.13	3990.8	
753.31	3502.7	
753.49	4777.9	
753.67	4993.6	
753.85	3812	
754.03	3477.5	
754.21	5380.7	
754.38	5507	
754.56	3558.7	
754.74	3025.5	
754.92	4783.4	
755.1	5207.3	
755.28	2938.8	
755.46	3017.3	
755.64	5902.9	
755.82	5948.7	
755.99	3272.7	
756.17	3390.8	
756.35	4248.2	
756.53	5293.3	
756.71	2587.3	
756.89	3253.5	
757.07	5003.2	
757.25	4341	
757.42	3547.8	
757.6	4160.1	
757.78	5031.9	
757.96	4338.3	
758.14	3343	
758.32	3017.3	
758.5	4007.2	
758.67	4564.9	
758.85	3235.1	
759.03	3304.7	
759.21	4773.1	
759.39	4304.1	
759.57	2943.6	
759.75	3723.9	
759.92	5219.6	
760.1	4803.2	
760.28	3986	
760.46	4141.7	
760.64	4552.6	
760.82	4382	
760.99	3840.6	
761.17	3289	
761.35	5092.6	
761.53	4306.2	
761.71	3348.4	
761.89	3832.4	
762.06	4981.3	
762.24	4565.6	
762.42	3389.4	
762.6	3215.3	
762.78	4574.5	
762.96	5065.3	
763.13	3649.5	
763.31	3394.8	
763.49	5124	
763.67	4554.7	
763.85	4014	
764.02	4390.2	
764.2	5375.9	
764.38	4722.6	
764.56	3347.7	
764.74	3947.8	
764.91	5384.8	
765.09	4587.4	
765.27	3178.4	
765.45	2933.4	
765.63	5523.4	
765.8	5322	
765.98	2867.8	
766.16	3021.4	
766.34	4391.5	
766.52	4155.3	
766.69	3741.6	
766.87	2899.2	
767.05	4689.2	
767.23	5273.5	
767.41	3198.9	
767.58	3306.8	
767.76	5068	
767.94	5127.4	
768.12	3239.2	
768.29	3728.7	
768.47	4644.1	
768.65	5204.6	
768.83	2922.5	
769	3697.3	
769.18	4418.2	
769.36	4928.1	
769.54	3756	
769.72	2992.8	
769.89	5186.8	
770.07	5154.1	
770.25	3265.1	
770.43	4115.1	
770.6	5780.7	
770.78	5954.1	
770.96	3370.3	
771.14	3790.8	
771.31	5089.2	
771.49	4578.6	
771.67	2830.3	
771.85	2913.6	
772.02	4079.6	
772.2	4564.2	
772.38	3563.5	
772.55	3091.8	
772.73	4861.9	
772.91	4641.4	
773.09	3301.3	
773.26	3517.7	
773.44	4834.6	
773.62	4611.3	
773.8	3087	
773.97	2946.3	
774.15	4857.1	
774.33	4610	
774.5	3050.1	
774.68	3232.4	
774.86	4980	
775.04	4630.5	
775.21	3066.5	
775.39	3080.8	
775.57	4827.1	
775.74	4982	
775.92	2966.8	
776.1	2863.7	
776.27	4763.6	
776.45	5620.3	
776.63	3087	
776.81	2806.4	
776.98	4563.6	
777.16	5246.9	
777.34	3170.3	
777.51	3423.5	
777.69	4572.4	
777.87	4394.3	
778.04	3264.5	
778.22	3588	
778.4	4427	
778.57	4877.6	
778.75	2738.1	
778.93	2895.8	
779.1	4309.6	
779.28	4139.6	
779.46	2746.3	
779.64	3040.6	
779.81	5017.5	
779.99	5557.5	
780.17	3550.5	
780.34	3693.2	
780.52	4642.7	
780.69	4700.1	
780.87	3317	
781.05	3048.7	
781.22	4709	
781.4	4706.9	
781.58	3108.8	
781.75	2501.9	
781.93	4743.1	
782.11	4149.9	
782.28	3725.9	
782.46	3123.8	
782.64	4086.4	
782.81	4797	
782.99	3212.6	
783.17	3092.4	
783.34	4709	
783.52	4286.4	
783.69	3233.7	
783.87	3833.8	
784.05	4333.5	
784.22	4227	
784.4	3852.2	
784.58	3334.8	
784.75	4958.1	
784.93	4405.9	
785.1	3125.2	
785.28	3540.9	
785.46	4745.8	
785.63	4201.1	
785.81	3179.8	
785.99	2981.8	
786.16	4495.3	
786.34	4718.5	
786.51	3016.7	
786.69	3300	
786.87	4120.5	
787.04	4454.3	
787.22	2955.9	
787.39	3562.1	
787.57	4302.1	
787.75	5069.4	
787.92	3747.8	
788.1	3631	
788.27	4212.7	
788.45	4024.9	
788.63	3482.2	
788.8	2566.1	
788.98	4719.9	
789.15	4060.4	
789.33	2692.4	
789.5	3102	
789.68	4912.4	
789.86	5076.2	
790.03	3423.5	
790.21	3067.9	
790.38	4976.6	
790.56	4399	
790.73	2966.1	
790.91	2953.9	
791.09	4313	
791.26	4821.6	
791.44	3130.7	
791.61	2734.7	
791.79	4314.4	
791.96	4298.7	
792.14	2790	
792.32	2553.1	
792.49	4288.4	
792.67	4400.4	
792.84	2876	
793.02	2706	
793.19	4725.3	
793.37	5096	
793.54	2596.1	
793.72	2770.9	
793.89	5165.7	
794.07	4266.6	
794.25	3211.2	
794.42	2598.9	
794.6	5031.9	
794.77	4743.1	
794.95	3387.3	
795.12	3022.8	
795.3	4333.5	
795.47	4678.9	
795.65	3332	
795.82	3136.1	
796	4204.5	
796.17	5495.4	
796.35	3081.5	
796.52	3575.8	
796.7	4711	
796.87	4741	
797.05	3071.3	
797.22	3685	
797.4	4807.3	
797.57	5414.8	
797.75	3190.1	
797.92	2991.4	
798.1	5008	
798.27	4163.5	
798.45	2625.5	
798.62	2797.5	
798.8	4539.7	
798.97	4891.2	
799.15	3321.8	
799.32	3195.5	
799.5	4036.5	
799.67	4521.9	
799.85	3451.5	
800.02	2600.9	
800.2	4329.4	
800.37	4479.6	
800.55	3550.5	
800.72	2983.9	
800.9	4842.1	
801.07	5117.9	
801.25	3893.2	
801.42	3263.1	
801.6	4872.8	
801.77	4577.9	
801.95	3076.7	
802.12	2921.8	
802.29	4681	
802.47	4629.8	
802.64	3310.2	
802.82	2575.7	
802.99	4257.7	
803.17	4954.7	
803.34	3136.8	
803.52	2899.2	
803.69	5373.2	
803.87	4072	
804.04	3158.7	
804.21	3190.7	
804.39	5156.8	
804.56	4442	
804.74	2775	
804.91	3285.6	
805.09	4296	
805.26	4368.3	
805.44	2840.5	
805.61	3060.3	
805.78	4810.7	
805.96	4787.5	
806.13	3296.5	
806.31	3491.1	
806.48	3975.8	
806.66	4346.5	
806.83	3268.6	
807	3207.1	
807.18	4314.4	
807.35	4574.5	
807.53	3016	
807.7	2650.8	
807.87	5119.2	
808.05	4306.9	
808.22	3510.2	
808.4	2644.6	
808.57	4259.1	
808.74	4070	
808.92	2983.9	
809.09	3645.4	
809.27	4344.4	
809.44	4649.6	
809.61	2650.1	
809.79	2938.2	
809.96	5273.5	
810.14	4764.9	
810.31	2691.7	
810.48	3166.2	
810.66	4323.9	
810.83	4894	
811.01	2981.2	
811.18	3270.6	
811.35	4902.2	
811.53	3857	
811.7	3523.9	
811.87	3326.6	
812.05	4397.7	
812.22	4274.8	
812.39	2874.7	
812.57	2798.9	
812.74	4386.7	
812.92	5500.2	
813.09	3089.7	
813.26	3317	
813.44	5342.5	
813.61	4247.5	
813.78	2667.1	
813.96	3404.4	
814.13	4373.8	
814.3	4130.1	
814.48	3703.4	
814.65	3098.6	
814.82	5105.6	
815	4106.2	
815.17	3198.2	
815.34	3772.4	
815.52	4216.8	
815.69	4194.9	
815.87	3095.2	
816.04	3041.2	
816.21	4248.2	
816.38	3941.7	
816.56	3065.1	
816.73	2868.5	
816.9	5365.7	
817.08	4887.1	
817.25	2921.8	
817.42	3478.8	
817.6	4042	
817.77	4348.5	
817.94	3224.2	
818.12	2852.8	
818.29	4182	
818.46	5915.2	
818.64	3020.1	
818.81	2795.5	
818.98	4166.9	
819.16	5578	
819.33	3378.5	
819.5	3164.8	
819.67	4584.7	
819.85	5063.3	
820.02	3095.8	
820.19	3282.2	
820.37	4472.8	
820.54	4217.5	
820.71	3224.2	
820.88	3900	
821.06	4502.1	
821.23	4169	
821.4	3262.4	
821.58	3194.1	
821.75	4790.2	
821.92	4453	
822.09	2690.3	
822.27	2748.4	
822.44	4328.7	
822.61	4267.3	
822.79	2645.3	
822.96	4859.1	
823.13	4555.4	
823.3	4028.4	
823.48	2982.5	
823.65	2765.4	
823.82	4885.8	
823.99	4098	
824.17	3772.4	
824.34	2812.5	
824.51	5465.3	
824.68	4346.5	
824.86	2947	
825.03	3228.3	
825.2	4313.7	
825.37	5046.2	
825.55	2925.2	
825.72	3142.9	
825.89	5416.2	
826.06	5170.4	
826.24	3125.9	
826.41	3108.8	
826.58	5168.4	
826.75	4516.5	
826.92	2562.7	
827.1	2782.5	
827.27	6722.8	
827.44	5393.7	
827.61	2949.1	
827.79	3478.8	
827.96	4235.2	
828.13	4353.3	
828.3	3148.4	
828.47	2626.9	
828.65	4614.8	
828.82	4565.6	
828.99	3848.8	
829.16	3369.6	
829.34	4798.4	
829.51	4688.5	
829.68	3203	
829.85	3240.6	
830.02	5117.9	
830.2	4854.4	
830.37	2497.2	
830.54	3710.2	
830.71	5425.1	
830.88	4405.9	
831.05	2557.9	
831.23	2922.5	
831.4	5219.6	
831.57	5640.1	
831.74	2956.6	
831.91	2649.4	
832.09	4694.6	
832.26	4851.6	
832.43	2983.2	
832.6	3363.4	
832.77	4601.1	
832.94	5064.6	
833.12	2496.5	
833.29	2991.4	
833.46	4709.6	
833.63	5811.5	
833.8	3291.8	
833.97	3016	
834.15	4871.4	
834.32	4739	
834.49	3158	
834.66	3193.5	
834.83	4941.7	
835	4229.7	
835.17	2923.1	
835.35	2898.6	
835.52	4799.1	
835.69	4662.5	
835.86	3047.4	
836.03	2564.1	
836.2	4868.7	
836.37	4586.8	
836.55	3014.6	
836.72	2852.1	
836.89	4543.1	
837.06	4919.2	
837.23	3127.9	
837.4	3299.3	
837.57	5457.2	
837.75	5819.6	
837.92	2813.2	
838.09	3049.4	
838.26	4520.5	
838.43	4980.7	
838.6	3151.1	
838.77	2868.5	
838.94	5563.6	
839.11	5369.8	
839.29	3039.2	
839.46	2482.8	
839.63	4873.5	
839.8	4651.6	
839.97	2925.9	
840.14	2960	
840.31	4706.9	
840.48	4868	
840.65	2534.7	
840.82	2961.4	
841	4805.9	
841.17	4734.2	
841.34	2685.6	
841.51	2821.4	
841.68	4830.5	
841.85	4578.6	
842.02	2855.6	
842.19	2396.8	
842.36	4681	
842.53	4627.7	
842.7	2766.8	
842.87	3259.7	
843.05	5797.8	
843.22	4551.3	
843.39	2632.3	
843.56	2850.8	
843.73	4486.4	
843.9	4901.5	
844.07	4160.1	
844.24	3558.7	
844.41	6520.7	
844.58	4300.7	
844.75	2643.2	
844.92	2861	
845.09	4846.2	
845.26	4806.6	
845.43	2695.1	
845.6	2912.2	
845.77	4868	
845.94	4605.2	
846.12	2999.6	
846.29	3104.7	
846.46	5031.2	
846.63	4773.8	
846.8	2707.4	
846.97	3208.5	
847.14	5157.5	
847.31	4779.3	
847.48	2983.2	
847.65	3349.1	
847.82	4991.6	
847.99	4945.8	
848.16	3537.5	
848.33	3293.1	
848.5	4457.7	
848.67	5162.9	
848.84	2740.9	
849.01	2822.1	
849.18	4375.8	
849.35	4173.1	
849.52	3316.3	
849.69	2677.4	
849.86	5025	
850.03	5037.3	
850.2	2778.4	
850.37	3188	
850.54	5044.1	
850.71	4560.8	
850.88	3265.8	
851.05	2648	
851.22	4726	
851.39	5185.5	
851.56	2578.4	
851.73	3082.2	
851.9	4333.5	
852.07	4980	
852.24	2999.6	
852.41	2643.2	
852.58	4812	
852.75	4369.7	
852.92	3011.2	
853.09	2691.7	
853.26	4468.7	
853.43	5110.4	
853.6	2736.1	
853.77	2367.5	
853.94	5220.3	
854.11	4311	
854.28	3912.3	
854.44	2911.5	
854.61	5474.2	
854.78	5025.7	
854.95	2647.3	
855.12	3337.5	
855.29	3979.2	
855.46	5362.3	
855.63	2745.6	
855.8	3643.3	
855.97	4489.8	
856.14	5094.7	
856.31	3723.9	
856.48	2938.8	
856.65	4546.5	
856.82	4255	
856.99	2612.5	
857.16	2957.9	
857.33	5642.2	
857.49	4524.6	
857.66	2893.8	
857.83	3088.3	
858	4599.7	
858.17	4724.7	
858.34	2607.7	
858.51	2766.1	
858.68	5285.1	
858.85	5216.9	
859.02	3122.5	
859.19	3261	
859.36	4377.9	
859.52	4296.6	
859.69	2756.6	
859.86	3172.3	
860.03	4337.6	
860.2	5202.5	
860.37	2564.1	
860.54	2755.2	
860.71	4919.9	
860.88	5263.3	
861.05	3028.3	
861.21	3397.6	
861.38	5242.8	
861.55	4219.5	
861.72	2524.5	
861.89	3033.7	
862.06	4934.9	
862.23	5307	
862.4	2667.1	
862.56	2793.4	
862.73	4864.6	
862.9	4650.9	
863.07	3125.9	
863.24	2544.3	
863.41	4261.1	
863.58	4313	
863.75	2734	
863.91	3117	
864.08	5157.5	
864.25	4882.4	
864.42	3353.9	
864.59	3644	
864.76	5432.6	
864.93	4322.6	
865.09	2627.5	
865.26	2897.9	
865.43	5138.4	
865.6	5410.1	
865.77	2384.5	
865.94	2681.5	
866.1	5100.8	
866.27	4868.7	
866.44	3943.7	
866.61	2656.2	
866.78	4589.5	
866.95	4919.2	
867.11	2647.3	
867.28	2476.7	
867.45	5051.7	
867.62	4357.4	
867.79	3078.1	
867.96	2734	
868.12	4290.5	
868.29	4965.6	
868.46	2667.8	
868.63	3543	
868.8	5119.2	
868.97	4884.4	
869.13	2820.7	
869.3	2867.2	
869.47	4818.2	
869.64	4988.2	
869.81	2739.5	
869.97	2699.2	
870.14	4745.1	
870.31	5217.5	
870.48	2649.4	
870.65	3357.3	
870.81	4573.8	
870.98	4558.1	
871.15	3048.7	
871.32	2823.5	
871.48	4887.1	
871.65	5312.4	
871.82	2680.1	
871.99	2966.8	
872.16	5612.1	
872.32	5085.8	
872.49	2793.4	
872.66	2767.5	
872.83	4994.3	
872.99	4369	
873.16	3059	
873.33	2689.7	
873.5	4684.4	
873.67	4732.9	
873.83	2884.2	
874	3485	
874.17	4795.7	
874.34	5484.5	
874.5	3381.9	
874.67	3336.1	
874.84	5180.7	
875.01	4196.3	
875.17	3676.8	
875.34	2726.5	
875.51	4799.1	
875.68	5602.6	
875.84	3219.4	
876.01	3770.3	
876.18	4864.6	
876.34	4844.8	
876.51	2703.3	
876.68	2711.5	
876.85	4567.7	
877.01	5185.5	
877.18	3827.7	
877.35	2702	
877.52	4747.2	
877.68	4281.6	
877.85	2678.7	
878.02	2682.2	
878.18	4585.4	
878.35	4448.2	
878.52	2248.7	
878.69	3019.4	
878.85	5055.8	
879.02	4887.8	
879.19	3803.1	
879.35	2910.2	
879.52	4906.3	
879.69	4996.4	
879.86	2461	
880.02	3014.6	
880.19	4643.4	
880.36	5475.6	
880.52	3100.6	
880.69	3181.9	
880.86	4980	
881.02	4994.3	
881.19	2956.6	
881.36	2904.7	
881.52	4899.4	
881.69	4423.6	
881.86	2924.5	
882.02	2894.5	
882.19	5058.5	
882.36	5813.5	
882.52	2805.7	
882.69	3658.4	
882.86	4704.9	
883.02	4754	
883.19	3181.9	
883.36	3041.2	
883.52	5026.4	
883.69	5526.1	
883.86	2803	
884.02	2536.1	
884.19	4909	
884.36	4669.4	
884.52	3056.9	
884.69	2895.8	
884.86	4485.1	
885.02	5370.5	
885.19	2980.5	
885.36	3072.6	
885.52	4644.1	
885.69	4743.1	
885.86	3771.7	
886.02	3368.9	
886.19	4964.3	
886.35	4489.8	
886.52	3037.1	
886.69	3680.2	
886.85	4304.8	
887.02	5161.6	
887.19	5161.6	
887.35	5161.6	
887.52	5161.6	
887.68	5161.6	
887.85	5161.6	
888.02	5161.6	
888.18	5161.6	
888.35	5161.6	
888.51	5161.6	
888.68	5161.6	
888.85	5161.6	
889.01	5161.6	
889.18	5161.6	
889.35	5161.6	
889.51	5161.6	
889.68	5161.6	
889.84	5161.6	
890.01	5161.6	
890.17	5161.6	
890.34	5161.6	
890.51	5161.6	
890.67	5161.6	
890.84	5161.6	
891	5161.6	
891.17	5161.6	
891.34	5161.6	
891.5	5161.6	
891.67	5161.6	
891.83	5161.6	
892	5161.6	
892.16	5161.6	
892.33	5161.6	
892.5	5161.6	
892.66	5161.6	
892.83	5161.6	
892.99	5161.6	
893.16	5161.6	
893.32	5161.6	
893.49	5161.6	
893.65	5161.6	
893.82	5161.6	
893.99	5161.6	
894.15	5161.6	
894.32	5161.6	
894.48	5161.6	
894.65	5161.6	
894.81	5161.6	
894.98	5161.6	
895.14	5161.6	
895.31	5161.6	
895.47	5161.6	
895.64	5161.6	
895.81	5161.6	
895.97	5161.6	
896.14	5161.6	
896.3	5161.6	
896.47	5161.6	
896.63	5161.6	
896.8	5161.6	
896.96	5161.6	
897.13	5161.6	
897.29	5161.6	
897.46	5161.6	
897.62	5161.6	
897.79	5161.6	
897.95	5161.6	
898.12	5161.6	
898.28	5161.6	
898.45	5161.6	
898.61	5161.6	
898.78	5161.6	
898.94	5161.6	
899.11	5161.6	
899.27	5161.6	
899.44	5161.6	
899.6	5161.6	
899.77	5161.6	
899.93	5161.6	
900.1	5161.6	
900.26	5161.6	
900.43	5161.6	
900.59	5161.6	
900.76	5161.6	
900.92	5161.6	
901.09	5161.6	
901.25	5161.6	
901.42	5161.6	
901.58	5161.6	
901.75	5161.6	
901.91	5161.6	
902.07	5161.6	
902.24	5161.6	
902.4	5161.6	
902.57	5161.6	
902.73	5161.6	
902.9	5161.6	
903.06	5161.6	
903.23	5161.6	
903.39	5161.6	
903.56	5161.6	
903.72	5161.6	
903.88	5161.6	
904.05	5161.6	
904.21	5161.6	
904.38	5161.6	
904.54	5161.6	
904.71	5161.6	
904.87	5161.6	
905.03	5161.6	
905.2	5161.6	
905.36	5161.6	
905.53	5161.6	
905.69	5161.6	
905.86	5161.6	
906.02	5161.6	
906.18	5161.6	
906.35	5161.6	
906.51	5161.6	
906.68	5161.6	
906.84	5161.6	
907.01	5161.6	
907.17	5161.6	
907.33	5161.6	
907.5	5161.6	
907.66	5161.6	
907.83	5161.6	
907.99	5161.6	
908.15	5161.6	
908.32	5161.6	
908.48	5161.6	
908.65	5161.6	
908.81	5161.6	
908.97	5161.6	
909.14	5161.6	
909.3	5161.6	
909.47	5161.6	
909.63	5161.6	
909.79	5161.6	
909.96	5161.6	
910.12	5161.6	
910.28	5161.6	
910.45	5161.6	
910.61	5161.6	
910.78	5161.6	
910.94	5161.6	
911.1	5161.6	
911.27	5161.6	
911.43	5161.6	
911.59	5161.6	
911.76	5161.6	
911.92	5161.6	
912.08	5161.6	
912.25	5161.6	
912.41	5161.6	
912.57	5161.6	
912.74	5161.6	
912.9	5161.6	
913.07	5161.6	
913.23	5161.6	
913.39	5161.6	
913.56	5161.6	
913.72	5161.6	
913.88	5161.6	
914.05	5161.6	
914.21	5161.6	
914.37	5161.6	
914.54	5161.6	
914.7	5161.6	
914.86	5161.6	
915.03	5161.6	
915.19	5161.6	
