Wavelength	Intensities	
nm	a.u.	
179.22	1905.3	
179.44	1918.3	
179.65	1892.3	
179.86	1944.2	
180.08	1912.8	
180.29	4956.8	
180.51	3479.5	
180.72	5649	
180.94	6652.5	
181.15	3211.2	
181.37	3208.5	
181.58	5478.3	
181.79	5850.4	
182.01	3381.2	
182.22	3641.3	
182.44	5806.7	
182.65	4867.3	
182.87	4550.6	
183.08	4009.9	
183.29	6053.1	
183.51	5031.9	
183.72	3658.4	
183.94	5371.8	
184.15	5407.3	
184.37	5466	
184.58	3164.1	
184.79	4460.5	
185.01	5013.4	
185.22	5788.9	
185.44	4700.8	
185.65	3975.1	
185.86	5258.5	
186.08	4939.7	
186.29	3109.5	
186.51	3394.2	
186.72	5006.6	
186.94	5945.3	
187.15	3926	
187.36	4016.1	
187.58	7793.2	
187.79	5566.4	
188.01	4209.9	
188.22	6622.4	
188.43	6728.9	
188.65	5800.5	
188.86	3355.9	
189.08	4029.7	
189.29	5218.9	
189.5	5262.6	
189.72	3744.4	
189.93	3806.5	
190.15	6037.4	
190.36	7211.6	
190.57	4104.8	
190.79	3985.3	
191	6023.8	
191.22	5997.1	
191.43	4151.9	
191.64	3351.2	
191.86	6242.9	
192.07	6015.6	
192.29	3528	
192.5	3779.9	
192.71	6075	
192.93	5112.4	
193.14	3675.4	
193.35	3824.9	
193.57	5190.9	
193.78	5948.7	
194	2998.2	
194.21	3696.6	
194.42	4907.6	
194.64	5451	
194.85	4104.8	
195.07	4816.8	
195.28	5468.8	
195.49	4719.9	
195.71	4968.4	
195.92	3496.6	
196.13	5634.6	
196.35	5758.2	
196.56	5424.4	
196.78	4078.9	
196.99	7069.6	
197.2	6653.2	
197.42	4615.4	
197.63	4087.7	
197.84	4838.7	
198.06	5659.2	
198.27	3763.5	
198.48	5057.1	
198.7	5200.5	
198.91	5358.2	
199.13	4115.1	
199.34	4166.9	
199.55	5849.7	
199.77	4663.9	
199.98	3592.1	
200.19	4087.7	
200.41	5343.2	
200.62	5010	
200.83	4264.6	
201.05	4586.8	
201.26	5330.9	
201.47	5066	
201.69	3620.8	
201.9	3478.8	
202.11	5412.8	
202.33	6456.6	
202.54	3870.7	
202.76	4364.2	
202.97	5584.8	
203.18	5537.7	
203.4	4269.3	
203.61	4126.7	
203.82	5496.7	
204.04	5109.7	
204.25	4107.5	
204.46	4007.2	
204.68	5459.2	
204.89	5682.4	
205.1	4016.1	
205.32	3453.6	
205.53	5858.6	
205.74	6067.4	
205.96	2948.4	
206.17	4186.7	
206.38	5837.4	
206.6	5928.2	
206.81	4658.4	
207.02	3803.1	
207.24	5679	
207.45	6141.9	
207.66	3861.8	
207.88	3356.6	
208.09	5688.6	
208.3	5486.5	
208.52	3587.4	
208.73	3928	
208.94	5417.6	
209.15	6130.3	
209.37	3891.8	
209.58	4094.6	
209.79	6021.7	
210.01	5220.3	
210.22	3125.9	
210.43	3196.2	
210.65	5469.4	
210.86	5901.6	
211.07	3949.2	
211.29	3583.3	
211.5	5815.5	
211.71	5396.4	
211.93	3557.3	
212.14	3601	
212.35	5332.9	
212.56	5644.9	
212.78	4130.8	
212.99	3374.4	
213.2	6401.3	
213.42	5160.2	
213.63	3680.2	
213.84	4011.3	
214.06	4827.1	
214.27	4911.7	
214.48	3885.7	
214.69	4108.2	
214.91	6106.4	
215.12	6246.3	
215.33	4191.5	
215.55	4667.3	
215.76	6746.7	
215.97	5764.3	
216.18	4031.1	
216.4	3891.1	
216.61	5098.8	
216.82	5999.9	
217.04	3593.5	
217.25	3758.7	
217.46	6126.2	
217.67	5850.4	
217.89	3203.7	
218.1	3346.4	
218.31	5461.2	
218.53	5640.8	
218.74	3775.1	
218.95	3629	
219.16	5380	
219.38	6367.1	
219.59	3724.6	
219.8	4333.5	
220.01	7055.9	
220.23	5481.7	
220.44	4845.5	
220.65	3500	
220.87	5470.1	
221.08	6083.1	
221.29	3314.3	
221.5	4439.3	
221.72	7519.5	
221.93	5161.6	
222.14	4122.6	
222.35	4859.8	
222.57	5489.9	
222.78	5795.1	
222.99	3926	
223.2	4229.7	
223.42	5773.2	
223.63	5943.9	
223.84	2996.9	
224.05	2977.7	
224.27	7054.6	
224.48	6378.7	
224.69	4812	
224.9	4103.4	
225.12	5646.9	
225.33	5396.4	
225.54	3236.5	
225.75	3672.7	
225.97	4997	
226.18	5317.9	
226.39	3934.1	
226.6	3680.9	
226.82	5171.8	
227.03	5018.2	
227.24	4116.4	
227.45	3357.3	
227.67	5793.7	
227.88	6442.2	
228.09	4562.2	
228.3	4602.5	
228.52	5871.5	
228.73	5399.1	
228.94	3796.3	
229.15	3365.5	
229.36	5335	
229.58	5272.8	
229.79	3786.7	
230	4485.1	
230.21	6518.7	
230.43	5550	
230.64	4092.5	
230.85	4287.8	
231.06	5869.5	
231.28	5834.7	
231.49	3312.2	
231.7	3973.7	
231.91	5773.9	
232.12	5466.7	
232.34	3478.1	
232.55	4009.9	
232.76	6116.6	
232.97	5582.8	
233.18	3620.8	
233.4	4056.3	
233.61	5732.9	
233.82	5182	
234.03	3762.1	
234.25	3717.1	
234.46	7560.4	
234.67	5509.7	
234.88	4185.4	
235.09	3661.8	
235.31	5799.8	
235.52	5343.2	
235.73	4035.2	
235.94	3439.2	
236.15	5163.6	
236.37	6632	
236.58	3567.6	
236.79	3950.5	
237	5789.6	
237.21	4933.6	
237.43	4250.9	
237.64	3306.8	
237.85	9946.3	
238.06	4980.7	
238.27	4299.4	
238.48	3411.2	
238.7	5737	
238.91	5272.8	
239.12	3913.7	
239.33	3916.4	
239.54	5057.8	
239.76	5354.8	
239.97	3870	
240.18	3906.8	
240.39	6825.9	
240.6	5743.9	
240.82	4026.3	
241.03	3317.7	
241.24	5418.2	
241.45	6296.8	
241.66	3599.6	
241.87	4200.4	
242.09	6171.9	
242.3	6545.3	
242.51	4340.3	
242.72	3937.6	
242.93	5888.6	
243.14	5418.9	
243.36	4500.1	
243.57	4887.8	
243.78	6300.9	
243.99	5846.3	
244.2	3911.6	
244.41	3531.4	
244.63	5033.2	
244.84	5816.2	
245.05	4187.4	
245.26	3910.3	
245.47	5707.7	
245.68	5980.8	
245.9	5242.8	
246.11	4126	
246.32	5270.1	
246.53	5752.1	
246.74	6395.8	
246.95	3295.2	
247.16	4961.5	
247.38	5453.7	
247.59	3235.8	
247.8	3999	
248.01	5145.2	
248.22	5322	
248.43	3612.6	
248.64	3873.4	
248.86	4780.6	
249.07	5218.2	
249.28	3430.3	
249.49	4033.1	
249.7	6041.5	
249.91	6128.2	
250.12	3282.9	
250.34	3329.3	
250.55	5537	
250.76	5470.1	
250.97	4057.7	
251.18	4117.1	
251.39	6184.2	
251.6	5588.9	
251.81	4213.4	
252.03	4098.7	
252.24	5126.7	
252.45	5979.4	
252.66	3428.3	
252.87	4392.2	
253.08	5470.1	
253.29	7215	
253.5	3435.1	
253.72	4786.8	
253.93	5285.1	
254.14	6468.2	
254.35	3731.4	
254.56	3835.8	
254.77	5687.2	
254.98	5087.2	
255.19	3697.9	
255.41	4749.9	
255.62	5597.8	
255.83	6118.6	
256.04	4268.6	
256.25	4117.1	
256.46	6541.2	
256.67	5109.7	
256.88	4009.9	
257.09	4538.3	
257.31	5134.3	
257.52	5142.4	
257.73	5112.4	
257.94	3687.7	
258.15	5288.5	
258.36	5449	
258.57	4710.3	
258.78	2934.1	
258.99	5897.5	
259.2	5231.9	
259.41	3758.7	
259.63	3859.7	
259.84	6326.2	
260.05	6737.8	
260.26	4982	
260.47	3638.6	
260.68	6044.9	
260.89	5388.2	
261.1	4549.2	
261.31	3573	
261.52	6031.3	
261.73	6377.4	
261.95	4863.2	
262.16	4242	
262.37	6182.1	
262.58	6239.5	
262.79	4863.9	
263	3854.3	
263.21	5475.6	
263.42	4965	
263.63	3831.7	
263.84	3741	
264.05	6016.2	
264.26	6464.8	
264.47	4730.8	
264.69	4205.8	
264.9	6154.8	
265.11	5712.5	
265.32	3627.6	
265.53	3739.6	
265.74	5634.6	
265.95	4867.3	
266.16	4012.7	
266.37	4404.5	
266.58	5585.5	
266.79	5311.1	
267	3651.5	
267.21	3415.3	
267.42	5031.2	
267.63	5418.9	
267.84	3922.5	
268.06	3354.6	
268.27	5866.1	
268.48	6197.2	
268.69	3845.4	
268.9	4595.6	
269.11	6204.7	
269.32	4924	
269.53	3906.2	
269.74	3634.5	
269.95	5816.9	
270.16	4789.5	
270.37	3950.5	
270.58	4527.4	
270.79	5316.5	
271	5999.2	
271.21	4264.6	
271.42	3998.3	
271.63	5595.7	
271.84	5111.7	
272.05	3132	
272.26	3521.1	
272.47	5503.6	
272.68	5622.4	
272.89	3772.4	
273.11	4379.9	
273.32	5244.2	
273.53	6408.8	
273.74	4267.3	
273.95	4149.9	
274.16	6134.3	
274.37	5528.8	
274.58	4315.8	
274.79	3429.7	
275	5597.1	
275.21	6115.2	
275.42	5149.3	
275.63	4498	
275.84	5738.4	
276.05	7223.9	
276.26	4164.2	
276.47	3880.2	
276.68	5274.2	
276.89	6546.7	
277.1	4469.4	
277.31	3454.2	
277.52	5772.5	
277.73	5881.1	
277.94	3401	
278.15	3815.4	
278.36	5639.4	
278.57	5149.3	
278.78	3759.4	
278.99	4309.6	
279.2	5027.8	
279.41	5040.7	
279.62	5008	
279.83	3480.9	
280.04	6703.7	
280.25	4905.6	
280.46	4935.6	
280.67	3934.8	
280.88	5074.2	
281.09	6109.1	
281.3	4075.5	
281.51	5203.2	
281.72	5182.7	
281.93	5986.2	
282.14	3675.4	
282.35	3935.5	
282.56	5913.9	
282.77	5915.9	
282.98	3805.1	
283.19	4674.1	
283.4	7353.6	
283.61	5433.9	
283.82	3418.1	
284.03	4903.5	
284.24	5535.7	
284.45	6149.4	
284.66	4852.3	
284.87	4696	
285.08	6079.1	
285.29	6262.7	
285.5	3393.5	
285.71	3862.5	
285.92	6066.8	
286.12	6730.3	
286.33	4862.6	
286.54	3839.3	
286.75	5936.4	
286.96	5366.4	
287.17	3536.8	
287.38	4739	
287.59	5062.6	
287.8	4989.5	
288.01	3841.3	
288.22	4434.5	
288.43	5987.6	
288.64	4963.6	
288.85	4603.2	
289.06	4341.7	
289.27	6233.3	
289.48	6373.3	
289.69	4891.2	
289.9	4404.5	
290.11	6132.3	
290.32	5188.9	
290.53	4686.4	
290.74	4257.7	
290.94	5876.3	
291.15	5981.4	
291.36	3712.3	
291.57	4448.2	
291.78	5229.1	
291.99	4902.8	
292.2	3542.3	
292.41	4304.8	
292.62	6038.1	
292.83	5831.9	
293.04	5300.1	
293.25	3576.4	
293.46	5251.7	
293.67	6077	
293.88	3656.3	
294.09	3514.3	
294.29	4996.4	
294.5	5547.3	
294.71	3981.9	
294.92	3824.9	
295.13	5226.4	
295.34	6614.3	
295.55	3287	
295.76	3390.1	
295.97	5885.2	
296.18	6617.7	
296.39	3476.1	
296.6	3674.1	
296.81	5574.6	
297.01	5891.3	
297.22	3864.5	
297.43	3650.2	
297.64	5100.1	
297.85	5102.2	
298.06	3034.4	
298.27	3343	
298.48	5466.7	
298.69	5102.2	
298.9	4026.3	
299.11	3631	
299.31	4950.6	
299.52	4947.2	
299.73	4292.5	
299.94	4153.3	
300.15	5416.9	
300.36	5088.5	
300.57	4235.2	
300.78	4179.2	
300.99	5391.6	
301.2	5580.7	
301.4	3642.7	
301.61	3999.7	
301.82	5776.6	
302.03	5896.1	
302.24	4432.5	
302.45	3507.5	
302.66	5769.8	
302.87	6190.3	
303.08	3696.6	
303.29	5026.4	
303.49	5148.6	
303.7	5467.4	
303.91	3288.4	
304.12	4814.1	
304.33	4984.1	
304.54	5597.1	
304.75	3730	
304.96	3562.1	
305.16	5780.7	
305.37	6556.2	
305.58	3246	
305.79	3362.1	
306	5821.7	
306.21	4876.9	
306.42	3693.2	
306.63	5702.2	
306.83	5311.1	
307.04	6092.7	
307.25	4046.8	
307.46	4066.6	
307.67	4636.6	
307.88	5916.6	
308.09	3590.8	
308.29	3784	
308.5	5532.9	
308.71	6060.6	
308.92	3887	
309.13	3574.4	
309.34	5373.2	
309.55	5352	
309.75	4562.9	
309.96	4250.9	
310.17	5893.4	
310.38	5141.1	
310.59	4405.2	
310.8	3517	
311.01	5294	
311.21	5309.7	
311.42	3480.2	
311.63	3657.7	
311.84	5165	
312.05	5580.7	
312.26	4121.9	
312.46	4486.4	
312.67	5277.6	
312.88	5018.9	
313.09	3558	
313.3	3418.1	
313.51	6305	
313.71	6619	
313.92	3553.9	
314.13	3730.7	
314.34	5612.8	
314.55	5383.4	
314.76	4560.8	
314.96	4049.5	
315.17	5546.6	
315.38	5874.9	
315.59	3593.5	
315.8	3436.5	
316.01	6410.1	
316.21	6436.1	
316.42	3442	
316.63	3900.7	
316.84	5316.5	
317.05	6214.2	
317.26	4160.1	
317.46	3802.4	
317.67	5411.4	
317.88	5903.6	
318.09	4539	
318.3	3345.7	
318.5	5132.2	
318.71	5766.4	
318.92	5811.5	
319.13	4205.2	
319.34	6010.1	
319.54	6152.1	
319.75	3331.4	
319.96	3154.6	
320.17	5808	
320.38	6105.7	
320.58	3230.3	
320.79	3868.6	
321	6030.6	
321.21	6210.8	
321.42	3941.7	
321.62	3291.1	
321.83	5063.3	
322.04	5418.2	
322.25	3784	
322.46	3607.2	
322.66	5651.7	
322.87	5732.9	
323.08	4372.4	
323.29	3477.5	
323.5	6533.7	
323.7	4991.6	
323.91	4839.4	
324.12	4340.3	
324.33	5554.1	
324.53	5845.6	
324.74	4199	
324.95	4508.3	
325.16	4833.9	
325.37	5292.6	
325.57	3594.2	
325.78	3679.5	
325.99	5526.8	
326.2	4962.2	
326.4	5001.8	
326.61	3297.9	
326.82	5433.9	
327.03	5658.5	
327.24	5082.4	
327.44	4854.4	
327.65	5763.7	
327.86	4604.5	
328.07	4233.2	
328.27	3414.6	
328.48	6160.3	
328.69	5051	
328.9	5199.1	
329.1	3829.7	
329.31	5373.2	
329.52	6265.4	
329.73	3542.3	
329.93	4059.1	
330.14	5513.1	
330.35	5716.6	
330.56	5947.3	
330.76	4431.1	
330.97	5236.7	
331.18	5687.9	
331.39	3960.8	
331.59	3214.6	
331.8	6068.1	
332.01	6183.5	
332.22	3688.4	
332.42	4230.4	
332.63	5598.5	
332.84	5182	
333.05	4021.5	
333.25	3619.4	
333.46	5272.2	
333.67	5418.9	
333.88	3728	
334.08	4160.8	
334.29	7251.2	
334.5	6143.2	
334.7	3468.6	
334.91	5075.5	
335.12	4956.8	
335.33	5905.7	
335.53	3996.3	
335.74	5880.4	
335.95	5251	
336.16	5085.8	
336.36	3960.8	
336.57	4534.9	
336.78	5020.3	
336.98	6032	
337.19	4906.9	
337.4	3893.9	
337.61	6637.5	
337.81	4967.7	
338.02	3610.6	
338.23	4687.1	
338.43	6230.6	
338.64	5104.2	
338.85	3562.8	
339.05	4688.5	
339.26	6340.5	
339.47	4853	
339.68	3614.7	
339.88	5291.3	
340.09	5707.7	
340.3	5903.6	
340.5	4240.7	
340.71	3176.4	
340.92	4911	
341.13	6220.4	
341.33	3461.1	
341.54	4244.8	
341.75	5713.8	
341.95	5389.6	
342.16	4011.3	
342.37	4351.3	
342.57	5025.7	
342.78	5423	
342.99	4468.7	
343.19	3173.7	
343.4	5834	
343.61	5699.5	
343.81	3818.1	
344.02	3504.1	
344.23	5935	
344.43	6336.4	
344.64	4459.1	
344.85	4349.2	
345.06	5691.3	
345.26	6126.8	
345.47	4143.7	
345.68	4873.5	
345.88	4831.2	
346.09	5953.4	
346.3	4225	
346.5	3186.6	
346.71	5514.5	
346.92	5154.1	
347.12	3280.8	
347.33	4148.5	
347.54	6046.3	
347.74	6460.7	
347.95	4136.9	
348.16	3024.2	
348.36	5341.1	
348.57	4956.8	
348.78	4048.2	
348.98	4386.1	
349.19	5421.7	
349.39	4979.3	
349.6	3254.9	
349.81	3654.3	
350.01	5699.5	
350.22	5144.5	
350.43	3961.5	
350.63	4787.5	
350.84	5522	
351.05	5285.8	
351.25	3590.8	
351.46	3239.2	
351.67	6042.9	
351.87	5132.9	
352.08	3842	
352.29	4339	
352.49	5944.6	
352.7	5608	
352.9	3474.7	
353.11	4358.1	
353.32	6653.9	
353.52	5269.4	
353.73	3388	
353.94	4436.6	
354.14	5774.6	
354.35	5646.2	
354.55	3536.8	
354.76	3988.1	
354.97	5709.1	
355.17	5477	
355.38	3301.3	
355.59	4681	
355.79	5131.5	
356	5592.3	
356.2	3932.8	
356.41	3443.3	
356.62	4804.5	
356.82	5355.4	
357.03	4191.5	
357.24	3781.9	
357.44	5224.4	
357.65	5277.6	
357.85	5147.9	
358.06	3943	
358.27	4820.9	
358.47	5064.6	
358.68	3284.3	
358.88	4215.4	
359.09	5702.2	
359.3	6073.6	
359.5	4898.7	
359.71	4289.1	
359.91	6510.5	
360.12	5797.1	
360.33	4155.3	
360.53	4722.6	
360.74	5130.2	
360.94	5165	
361.15	4435.2	
361.36	3547.8	
361.56	5874.3	
361.77	5351.3	
361.97	4852.3	
362.18	3807.2	
362.38	5902.9	
362.59	5012.1	
362.8	3497.9	
363	3331.4	
363.21	4788.2	
363.41	5449.6	
363.62	3999.7	
363.83	5119.9	
364.03	5513.1	
364.24	6535.1	
364.44	5175.2	
364.65	5139.7	
364.85	5300.1	
365.06	5136.3	
365.27	3614.7	
365.47	3706.8	
365.68	6212.9	
365.88	5246.2	
366.09	4076.8	
366.29	3766.9	
366.5	5548.6	
366.71	5978.7	
366.91	5106.3	
367.12	4295.3	
367.32	6516	
367.53	5804.6	
367.73	4111.6	
367.94	5216.9	
368.14	5716.6	
368.35	6697.5	
368.56	4214.7	
368.76	3534.1	
368.97	5801.9	
369.17	7629.4	
369.38	3639.9	
369.58	3912.3	
369.79	4891.2	
369.99	6169.8	
370.2	5001.1	
370.4	4061.1	
370.61	5568.4	
370.82	6719.4	
371.02	3858.4	
371.23	3240.6	
371.43	4797	
371.64	6158.2	
371.84	3882.9	
372.05	5194.3	
372.25	7505.8	
372.46	5895.4	
372.66	3935.5	
372.87	3842.7	
373.07	5827.2	
373.28	7471	
373.48	4956.8	
373.69	4655.7	
373.9	5385.5	
374.1	5412.8	
374.31	4885.1	
374.51	4429.8	
374.72	6197.8	
374.92	5060.5	
375.13	5055.1	
375.33	4244.1	
375.54	5779.4	
375.74	5208	
375.95	4272.1	
376.15	5527.5	
376.36	5793.7	
376.56	5620.3	
376.77	4357.4	
376.97	4811.4	
377.18	6836.8	
377.38	5796.4	
377.59	5185.5	
377.79	3802.4	
378	5616.2	
378.2	6058.6	
378.41	3824.2	
378.61	3796.3	
378.82	6141.2	
379.02	5188.9	
379.23	4063.2	
379.43	5164.3	
379.64	6208.1	
379.84	5773.9	
380.05	3827	
380.25	3788.1	
380.46	5882.4	
380.66	5422.3	
380.87	5208	
381.07	5627.8	
381.28	6523.5	
381.48	5909.1	
381.69	3947.8	
381.89	3931.4	
382.1	4823.6	
382.3	6053.1	
382.51	5020.3	
382.71	5954.1	
382.91	5879.7	
383.12	6455.9	
383.32	4250.9	
383.53	4481.6	
383.73	5789.6	
383.94	5531.6	
384.14	4376.5	
384.35	3562.1	
384.55	5449.6	
384.76	6000.5	
384.96	4261.8	
385.17	4617.5	
385.37	5922	
385.58	5208	
385.78	4584	
385.98	3462.4	
386.19	5404.6	
386.39	5799.8	
386.6	4023.6	
386.8	4285.7	
387.01	5902.2	
387.21	5964.4	
387.42	4719.9	
387.62	5326.8	
387.83	5273.5	
388.03	5909.1	
388.23	4338.3	
388.44	5194.3	
388.64	4979.3	
388.85	5027.8	
389.05	4678.2	
389.26	5329.5	
389.46	6909.2	
389.67	6341.9	
389.87	4669.4	
390.07	4745.8	
390.28	5629.9	
390.48	5104.2	
390.69	3921.9	
390.89	4129.4	
391.1	5328.8	
391.3	6244.3	
391.5	5380.7	
391.71	6076.3	
391.91	6004.6	
392.12	7030	
392.32	5461.2	
392.53	4709	
392.73	5363.6	
392.93	5576.6	
393.14	4326.7	
393.34	5175.2	
393.55	6129.6	
393.75	5416.2	
393.95	4419.5	
394.16	4385.4	
394.36	5347.2	
394.57	5997.1	
394.77	3801.7	
394.98	4273.4	
395.18	5309.7	
395.38	5586.9	
395.59	5206.6	
395.79	4089.8	
396	5423	
396.2	5898.1	
396.4	4945.2	
396.61	4843.4	
396.81	6133.7	
397.02	5339.7	
397.22	5223	
397.42	5212.1	
397.63	6105.7	
397.83	5294.7	
398.04	4114.4	
398.24	4527.4	
398.44	5899.5	
398.65	4937	
398.85	3875.4	
399.05	3997	
399.26	5289.9	
399.46	6978.8	
399.67	4394.3	
399.87	4136.2	
400.07	5644.9	
400.28	5988.3	
400.48	4235.9	
400.69	5341.1	
400.89	6264.1	
401.09	6686.6	
401.3	4051.6	
401.5	5223	
401.7	6950.1	
401.91	7110.5	
402.11	4377.2	
402.32	4655	
402.52	6189	
402.72	6123.4	
402.93	4863.9	
403.13	3695.2	
403.33	6993.1	
403.54	5675.6	
403.74	4579.9	
403.94	5487.9	
404.15	5805.3	
404.35	6970.6	
404.56	4351.3	
404.76	6235.4	
404.96	6258.6	
405.17	5994.4	
405.37	5673.6	
405.57	4915.8	
405.78	6252.4	
405.98	5735	
406.18	4319.8	
406.39	5355.4	
406.59	6268.1	
406.79	5859.2	
407	4186	
407.2	4391.5	
407.4	6315.9	
407.61	6490	
407.81	4349.2	
408.01	6575.3	
408.22	5288.5	
408.42	7395.2	
408.62	5408.7	
408.83	4949.3	
409.03	5898.8	
409.23	5708.4	
409.44	4956.8	
409.64	5259.2	
409.84	6870.9	
410.05	6690.7	
410.25	5038.7	
410.45	4856.4	
410.66	6150.1	
410.86	8731.9	
411.06	5279	
411.27	5198.4	
411.47	8484.1	
411.67	6395.1	
411.88	5424.4	
412.08	5591	
412.28	7103.7	
412.49	7581.6	
412.69	5165	
412.89	5132.9	
413.09	7404.1	
413.3	7218.4	
413.5	5319.3	
413.7	4823.6	
413.91	6482.5	
414.11	7319.4	
414.31	5086.5	
414.52	5532.9	
414.72	6982.9	
414.92	6997.9	
415.12	5091.3	
415.33	5678.3	
415.53	7216.4	
415.73	7515.4	
415.94	6033.3	
416.14	5410.1	
416.34	6199.9	
416.55	6064	
416.75	6691.4	
416.95	6118.6	
417.15	7312.6	
417.36	8093.6	
417.56	6931	
417.76	5890	
417.97	7766.6	
418.17	7351.5	
418.37	5446.2	
418.57	5568.4	
418.78	7154.9	
418.98	6778.1	
419.18	6419.7	
419.38	6361	
419.59	6842.3	
419.79	6440.2	
419.99	5434.6	
420.2	5820.3	
420.4	7369.3	
420.6	7650.5	
420.8	5229.8	
421.01	5210.7	
421.21	7211.6	
421.41	7429.3	
421.61	5737.7	
421.82	5415.5	
422.02	6733	
422.22	7752.2	
422.42	6247	
422.63	5935	
422.83	6920.1	
423.03	8013.7	
423.23	6014.2	
423.44	4906.3	
423.64	6955.6	
423.84	6644.3	
424.04	5415.5	
424.25	5072.1	
424.45	7901.7	
424.65	7860.8	
424.85	4787.5	
425.06	5462.6	
425.26	7889.5	
425.46	6716	
425.66	5954.1	
425.87	5608.7	
426.07	7539.9	
426.27	7518.1	
426.47	5782.1	
426.67	5168.4	
426.88	7996	
427.08	7432.8	
427.28	5978.7	
427.48	5014.8	
427.69	6302.3	
427.89	6995.9	
428.09	6055.8	
428.29	5196.4	
428.5	7691.5	
428.7	7174	
428.9	5016.2	
429.1	5659.9	
429.3	7097.6	
429.51	7631.4	
429.71	5397.1	
429.91	6199.2	
430.11	7391.8	
430.31	7699	
430.52	5666.7	
430.72	5972.6	
430.92	8030.1	
431.12	7589.1	
431.32	5337.7	
431.53	5787.6	
431.73	6461.3	
431.93	8223.3	
432.13	5342.5	
432.33	5193	
432.54	6881.9	
432.74	7346.1	
432.94	5056.4	
433.14	6289.3	
433.34	7504.4	
433.55	6948.8	
433.75	6139.1	
433.95	8013	
434.15	7241.6	
434.35	6989	
434.56	5311.7	
434.76	4911	
434.96	7217.7	
435.16	7593.2	
435.36	5337.7	
435.56	6442.9	
435.77	6888	
435.97	7098.3	
436.17	7167.9	
436.37	6413.6	
436.57	6931	
436.78	6840.2	
436.98	6293.4	
437.18	6920.1	
437.38	7584.3	
437.58	7066.9	
437.78	7092.1	
437.99	5636.7	
438.19	7637.6	
438.39	8435.6	
438.59	5643.5	
438.79	5176.6	
438.99	8281.3	
439.2	7204.8	
439.4	5414.8	
439.6	5409.4	
439.8	7626.6	
440	8692.9	
440.2	6485.9	
440.4	6522.1	
440.61	7992.5	
440.81	8559.1	
441.01	5510.4	
441.21	6481.1	
441.41	8390.5	
441.61	7928.4	
441.81	6803.4	
442.02	7878.5	
442.22	8856.1	
442.42	8144.8	
442.62	5670.1	
442.82	5655.1	
443.02	8353	
443.22	7501.7	
443.43	6225.8	
443.63	5735	
443.83	7226.6	
444.03	7418.4	
444.23	6963.1	
444.43	6567.2	
444.63	7743.4	
444.83	8931.9	
445.04	5787.6	
445.24	7187.7	
445.44	7980.9	
445.64	8084.7	
445.84	6556.9	
446.04	6677.1	
446.24	7389.1	
446.44	8463.6	
446.65	5774.6	
446.85	6201.9	
447.05	7604.1	
447.25	8316.1	
447.45	6339.1	
447.65	5631.9	
447.85	7743.4	
448.05	7424.6	
448.25	6789.7	
448.46	6535.8	
448.66	7763.8	
448.86	7524.9	
449.06	5548.6	
449.26	6888.7	
449.46	8232.8	
449.66	7150.1	
449.86	6336.4	
450.06	6311.2	
450.26	7299	
450.47	7998	
450.67	6575.3	
450.87	6980.8	
451.07	8100.4	
451.27	7978.2	
451.47	5864.7	
451.67	6461.3	
451.87	7542.7	
452.07	8666.3	
452.27	6203.3	
452.47	6137.8	
452.67	7887.4	
452.88	8548.9	
453.08	5532.9	
453.28	7576.8	
453.48	9061.6	
453.68	7752.2	
453.88	6087.9	
454.08	6461.3	
454.28	8282.7	
454.48	7970.7	
454.68	6911.2	
454.88	7541.3	
455.08	8475.2	
455.28	8193.9	
455.48	5984.8	
455.68	6698.9	
455.89	8907.3	
456.09	8602.8	
456.29	6428.6	
456.49	6608.8	
456.69	8878.6	
456.89	8097	
457.09	7148.8	
457.29	7494.2	
457.49	8490.2	
457.69	8559.8	
457.89	6955.6	
458.09	6290	
458.29	8391.9	
458.49	9045.2	
458.69	7318.8	
458.89	6728.3	
459.09	9275.3	
459.29	9300.5	
459.49	6797.9	
459.69	7698.3	
459.9	8803.5	
460.1	8325	
460.3	6731	
460.5	6571.2	
460.7	8878.6	
460.9	8526.4	
461.1	6257.2	
461.3	7586.4	
461.5	9615.2	
461.7	9157.2	
461.9	6784.2	
462.1	7225.2	
462.3	8678.6	
462.5	9400.2	
462.7	6926.9	
462.9	7018.4	
463.1	10419	
463.3	10107	
463.5	7157.7	
463.7	8247.9	
463.9	8950.3	
464.1	9310.1	
464.3	7463.5	
464.5	7662.8	
464.7	9665	
464.9	9407.7	
465.1	9154.4	
465.3	8012.3	
465.5	9992	
465.7	9976.3	
465.9	8342.1	
466.1	8081.3	
466.3	9896.5	
466.5	9664.4	
466.7	9144.9	
466.9	7952.3	
467.1	9654.1	
467.3	10645	
467.5	9183.1	
467.7	7874.4	
467.9	10950	
468.1	11812	
468.3	8759.2	
468.5	9166	
468.7	9696.4	
468.9	9698.5	
469.1	8239	
469.3	9031.5	
469.5	11708	
469.7	9331.9	
469.9	8650.6	
470.1	7978.9	
470.3	9697.8	
470.5	9740.8	
470.7	9314.8	
470.9	8045.8	
471.1	9486.9	
471.3	9929.2	
471.5	8036.9	
471.69	9921	
471.89	9295.7	
472.09	8959.2	
472.29	8755.1	
472.49	9172.2	
472.69	9144.2	
472.89	10010	
473.09	7811	
473.29	7899	
473.49	9234.3	
473.69	9470.5	
473.89	8989.2	
474.09	8168.7	
474.29	10761	
474.49	10525	
474.69	8986.5	
474.89	8310	
475.09	9461.6	
475.29	9434.3	
475.49	7669	
475.69	8010.3	
475.88	11159	
476.08	9772.2	
476.28	7656.7	
476.48	8142.7	
476.68	10210	
476.88	10156	
477.08	7935.9	
477.28	8269.7	
477.48	9656.2	
477.68	10344	
477.88	7791.2	
478.08	8061.5	
478.28	10585	
478.48	9669.8	
478.67	8232.2	
478.87	7563.1	
479.07	10490	
479.27	9856.9	
479.47	8354.3	
479.67	8475.2	
479.87	10343	
480.07	10903	
480.27	7685.3	
480.47	9386.5	
480.67	10018	
480.87	10593	
481.06	8079.2	
481.26	8931.9	
481.46	9794.8	
481.66	9787.2	
481.86	8501.1	
482.06	9566.1	
482.26	9686.9	
482.46	10575	
482.66	8514.1	
482.86	8150.9	
483.05	10101	
483.25	9530.6	
483.45	11021	
483.65	8568.7	
483.85	9687.6	
484.05	9929.9	
484.25	9042.5	
484.45	9526.5	
484.65	10932	
484.84	10952	
485.04	8492.2	
485.24	8595.3	
485.44	11217	
485.64	9559.9	
485.84	7869	
486.04	9402.2	
486.24	9913.5	
486.44	10390	
486.63	7966.6	
486.83	8777.6	
487.03	9919.7	
487.23	10185	
487.43	8065.6	
487.63	10557	
487.83	10268	
488.02	11370	
488.22	9106	
488.42	9792	
488.62	11206	
488.82	10054	
489.02	8768.7	
489.22	8876.6	
489.41	10978	
489.61	10684	
489.81	8490.9	
490.01	8543.4	
490.21	10920	
490.41	11573	
490.61	8423.3	
490.8	8466.3	
491	10332	
491.2	9482.8	
491.4	9115.5	
491.6	8285.4	
491.8	10361	
491.99	10560	
492.19	8168	
492.39	8654	
492.59	11160	
492.79	11274	
492.99	9656.2	
493.18	8812.4	
493.38	11237	
493.58	12194	
493.78	9598.8	
493.98	9194.7	
494.18	11022	
494.37	10635	
494.57	9992.7	
494.77	9787.2	
494.97	11504	
495.17	11802	
495.37	9447.3	
495.56	9777	
495.76	11986	
495.96	11554	
496.16	10675	
496.36	9538.1	
496.55	11754	
496.75	11269	
496.95	9979.8	
497.15	9826.8	
497.35	11787	
497.54	11813	
497.74	9692.4	
497.94	11539	
498.14	12514	
498.34	12480	
498.53	9524.4	
498.73	10298	
498.93	11288	
499.13	11961	
499.33	10235	
499.52	10619	
499.72	11931	
499.92	12240	
500.12	9856.9	
500.32	10127	
500.51	12294	
500.71	12158	
500.91	10955	
501.11	10516	
501.31	12097	
501.5	12580	
501.7	11329	
501.9	10340	
502.1	11901	
502.29	12332	
502.49	10589	
502.69	11176	
502.89	12061	
503.09	12002	
503.28	9602.2	
503.48	9837.1	
503.68	11244	
503.88	11329	
504.07	10801	
504.27	10170	
504.47	11731	
504.67	11775	
504.86	10600	
505.06	10271	
505.26	11355	
505.46	13180	
505.65	10136	
505.85	10254	
506.05	11140	
506.25	11738	
506.44	9452.1	
506.64	10374	
506.84	11034	
507.04	12080	
507.23	9650.7	
507.43	10221	
507.63	13238	
507.83	11338	
508.02	10256	
508.22	9728.5	
508.42	13491	
508.62	11160	
508.81	10147	
509.01	10636	
509.21	10949	
509.4	11355	
509.6	10417	
509.8	9809.1	
510	11359	
510.19	12869	
510.39	9689.6	
510.59	9800.9	
510.79	11158	
510.98	12626	
511.18	9865.1	
511.38	9856.2	
511.57	11914	
511.77	11830	
511.97	10600	
512.17	9503.3	
512.36	12109	
512.56	11991	
512.76	9691	
512.95	9416.6	
513.15	12202	
513.35	10727	
513.55	10654	
513.74	9772.2	
513.94	12072	
514.14	11446	
514.33	10811	
514.53	10461	
514.73	11467	
514.92	11672	
515.12	10099	
515.32	9811.1	
515.51	11897	
515.71	12476	
515.91	11827	
516.11	9990.7	
516.3	13586	
516.5	11439	
516.7	10448	
516.89	11060	
517.09	11589	
517.29	11412	
517.48	10787	
517.68	10137	
517.88	11323	
518.07	11949	
518.27	10675	
518.47	9846.6	
518.66	12683	
518.86	11125	
519.06	9598.1	
519.25	10122	
519.45	11620	
519.65	13082	
519.84	10719	
520.04	11415	
520.24	13366	
520.43	11910	
520.63	10177	
520.83	10087	
521.02	11258	
521.22	11949	
521.42	10631	
521.61	11353	
521.81	11628	
522.01	11879	
522.2	10667	
522.4	10503	
522.6	12422	
522.79	11243	
522.99	10659	
523.18	10078	
523.38	12372	
523.58	12357	
523.77	12138	
523.97	10142	
524.17	14319	
524.36	13545	
524.56	11486	
524.76	11198	
524.95	12568	
525.15	12104	
525.34	11058	
525.54	11025	
525.74	12884	
525.93	11937	
526.13	12288	
526.33	11071	
526.52	13252	
526.72	12822	
526.91	12521	
527.11	11801	
527.31	13416	
527.5	13964	
527.7	11773	
527.89	10729	
528.09	12521	
528.29	13082	
528.48	12148	
528.68	11688	
528.87	13420	
529.07	13265	
529.27	11480	
529.46	10933	
529.66	12857	
529.85	13239	
530.05	10671	
530.25	11452	
530.44	14458	
530.64	12914	
530.83	11359	
531.03	11800	
531.23	13454	
531.42	13370	
531.62	12666	
531.81	11842	
532.01	13835	
532.21	14320	
532.4	11665	
532.6	12114	
532.79	14903	
532.99	13963	
533.18	12151	
533.38	13152	
533.58	13516	
533.77	14245	
533.97	12200	
534.16	13003	
534.36	14614	
534.55	13619	
534.75	13192	
534.95	12225	
535.14	14431	
535.34	13516	
535.53	11600	
535.73	13840	
535.92	14828	
536.12	13692	
536.31	11918	
536.51	13249	
536.71	13981	
536.9	13659	
537.1	12086	
537.29	12242	
537.49	14491	
537.68	13566	
537.88	12747	
538.07	11939	
538.27	13884	
538.46	14981	
538.66	11844	
538.86	12362	
539.05	13943	
539.25	14149	
539.44	12656	
539.64	11977	
539.83	13627	
540.03	14594	
540.22	11991	
540.42	12044	
540.61	13876	
540.81	14003	
541	12484	
541.2	13162	
541.39	13310	
541.59	13763	
541.78	12888	
541.98	11834	
542.18	13014	
542.37	12768	
542.57	12192	
542.76	12801	
542.96	12854	
543.15	13673	
543.35	12090	
543.54	11449	
543.74	13925	
543.93	13480	
544.13	12185	
544.32	13204	
544.52	13861	
544.71	12999	
544.91	11136	
545.1	12510	
545.3	13117	
545.49	13702	
545.69	11097	
545.88	11687	
546.08	14746	
546.27	14328	
546.47	12347	
546.66	11471	
546.86	13927	
547.05	14673	
547.24	11772	
547.44	11683	
547.63	12806	
547.83	14018	
548.02	11972	
548.22	12231	
548.41	12652	
548.61	13859	
548.8	11436	
549	11383	
549.19	13194	
549.39	13616	
549.58	11052	
549.78	11722	
549.97	13582	
550.17	13078	
550.36	12453	
550.55	13517	
550.75	13106	
550.94	14042	
551.14	11280	
551.33	11745	
551.53	12370	
551.72	13524	
551.92	11791	
552.11	11458	
552.31	13416	
552.5	13617	
552.69	13229	
552.89	11048	
553.08	13375	
553.28	13106	
553.47	11422	
553.67	12773	
553.86	14043	
554.06	12289	
554.25	10684	
554.44	11332	
554.64	14807	
554.83	14394	
555.03	11176	
555.22	11574	
555.42	13486	
555.61	13272	
555.8	11359	
556	11669	
556.19	12430	
556.39	13517	
556.58	11357	
556.78	11482	
556.97	13238	
557.16	12908	
557.36	12729	
557.55	11013	
557.75	12035	
557.94	13842	
558.13	11067	
558.33	10826	
558.52	13704	
558.72	12648	
558.91	10975	
559.1	11259	
559.3	12314	
559.49	11875	
559.69	10529	
559.88	11439	
560.07	13102	
560.27	13453	
560.46	11635	
560.66	11949	
560.85	12763	
561.04	11843	
561.24	10788	
561.43	11050	
561.63	12187	
561.82	12493	
562.01	12460	
562.21	11502	
562.4	13034	
562.59	14162	
562.79	11386	
562.98	11013	
563.18	12940	
563.37	14542	
563.56	11929	
563.76	10911	
563.95	12461	
564.14	12364	
564.34	11365	
564.53	11221	
564.73	12932	
564.92	13468	
565.11	11567	
565.31	11028	
565.5	13628	
565.69	12604	
565.89	11141	
566.08	11425	
566.27	13620	
566.47	13979	
566.66	12073	
566.85	10827	
567.05	13117	
567.24	12493	
567.44	11011	
567.63	12613	
567.82	13266	
568.02	13185	
568.21	11202	
568.4	11584	
568.6	13062	
568.79	13010	
568.98	10975	
569.18	11201	
569.37	13049	
569.56	15209	
569.76	11472	
569.95	12606	
570.14	13380	
570.34	13345	
570.53	10978	
570.72	10871	
570.91	13902	
571.11	12940	
571.3	11559	
571.49	12424	
571.69	12917	
571.88	12603	
572.07	12142	
572.27	12088	
572.46	12561	
572.65	13721	
572.85	11338	
573.04	11849	
573.23	14033	
573.43	13271	
573.62	11280	
573.81	11982	
574	13450	
574.2	13200	
574.39	11774	
574.58	11909	
574.78	14397	
574.97	13663	
575.16	12134	
575.36	12492	
575.55	13969	
575.74	14044	
575.93	11231	
576.13	12544	
576.32	13299	
576.51	13958	
576.71	11709	
576.9	13235	
577.09	14280	
577.28	13799	
577.48	12383	
577.67	11290	
577.86	13576	
578.05	13839	
578.25	12094	
578.44	12172	
578.63	13666	
578.83	14816	
579.02	11406	
579.21	13102	
579.4	13750	
579.6	13546	
579.79	12235	
579.98	14599	
580.17	14310	
580.37	14373	
580.56	11825	
580.75	12639	
580.94	14934	
581.14	14742	
581.33	13121	
581.52	11957	
581.71	14154	
581.91	14890	
582.1	11638	
582.29	12325	
582.48	13781	
582.68	13735	
582.87	12835	
583.06	12418	
583.25	14262	
583.45	13750	
583.64	13170	
583.83	13885	
584.02	13664	
584.21	14203	
584.41	13052	
584.6	12435	
584.79	14013	
584.98	14780	
585.18	11719	
585.37	11931	
585.56	13467	
585.75	14292	
585.94	11930	
586.14	12704	
586.33	14655	
586.52	13711	
586.71	12353	
586.91	12072	
587.1	13073	
587.29	14078	
587.48	11952	
587.67	11867	
587.87	13797	
588.06	13881	
588.25	13106	
588.44	12461	
588.63	13265	
588.83	13872	
589.02	11505	
589.21	11226	
589.4	12741	
589.59	12536	
589.78	10206	
589.98	10399	
590.17	11944	
590.36	12547	
590.55	9878.7	
590.74	10530	
590.94	13987	
591.13	12478	
591.32	10633	
591.51	10199	
591.7	13041	
591.89	12417	
592.09	10327	
592.28	10774	
592.47	11718	
592.66	13688	
592.85	10234	
593.05	10543	
593.24	12311	
593.43	13151	
593.62	10735	
593.81	11286	
594	12408	
594.19	12637	
594.39	10478	
594.58	10402	
594.77	12640	
594.96	13199	
595.15	10399	
595.34	10970	
595.54	12542	
595.73	11723	
595.92	9709.4	
596.11	11031	
596.3	13243	
596.49	11951	
596.68	10679	
596.88	11191	
597.07	13011	
597.26	11731	
597.45	10160	
597.64	11478	
597.83	11925	
598.02	12667	
598.22	10240	
598.41	11019	
598.6	12406	
598.79	11849	
598.98	10352	
599.17	11306	
599.36	12496	
599.55	13627	
599.74	12534	
599.94	12309	
600.13	13015	
600.32	11829	
600.51	10167	
600.7	10284	
600.89	13700	
601.08	13758	
601.27	10114	
601.47	11199	
601.66	12898	
601.85	13629	
602.04	10763	
602.23	10827	
602.42	11865	
602.61	12790	
602.8	10666	
602.99	10432	
603.18	12394	
603.37	12634	
603.57	11213	
603.76	11732	
603.95	13412	
604.14	12985	
604.33	10699	
604.52	10955	
604.71	12658	
604.9	12269	
605.09	11512	
605.28	11389	
605.47	13300	
605.66	12796	
605.86	11062	
606.05	10580	
606.24	13213	
606.43	11619	
606.62	10862	
606.81	11643	
607	13055	
607.19	12314	
607.38	10326	
607.57	10710	
607.76	12030	
607.95	11561	
608.14	10966	
608.33	11520	
608.52	12015	
608.72	13008	
608.91	10250	
609.1	10060	
609.29	12157	
609.48	11652	
609.67	11089	
609.86	10032	
610.05	11643	
610.24	12142	
610.43	9891	
610.62	9605	
610.81	13068	
611	12956	
611.19	10124	
611.38	10845	
611.57	12445	
611.76	13718	
611.95	9887.6	
612.14	9648.7	
612.33	12204	
612.52	11706	
612.71	10430	
612.9	9662.3	
613.09	11191	
613.28	13742	
613.47	10102	
613.66	11135	
613.85	12281	
614.04	11797	
614.24	10372	
614.43	9634.3	
614.62	12393	
614.81	12281	
615	10872	
615.19	10858	
615.38	11555	
615.57	12067	
615.76	10728	
615.95	11639	
616.14	12525	
616.33	12136	
616.52	11030	
616.71	11379	
616.9	12506	
617.09	12379	
617.28	10537	
617.47	11834	
617.66	11614	
617.85	11701	
618.04	11551	
618.22	10893	
618.41	12035	
618.6	12947	
618.79	10830	
618.98	10655	
619.17	13403	
619.36	11616	
619.55	10867	
619.74	10861	
619.93	12790	
620.12	12190	
620.31	11475	
620.5	11672	
620.69	13321	
620.88	13687	
621.07	12338	
621.26	11407	
621.45	12990	
621.64	12921	
621.83	11509	
622.02	10787	
622.21	12962	
622.4	12715	
622.59	12127	
622.78	11878	
622.97	12363	
623.16	13402	
623.35	11480	
623.54	10585	
623.72	12641	
623.91	12783	
624.1	11686	
624.29	10458	
624.48	13983	
624.67	12917	
624.86	11583	
625.05	10631	
625.24	13968	
625.43	12344	
625.62	13514	
625.81	10981	
626	13282	
626.19	12708	
626.38	11804	
626.56	11129	
626.75	12557	
626.94	12955	
627.13	11632	
627.32	10251	
627.51	13025	
627.7	14453	
627.89	10435	
628.08	11619	
628.27	12169	
628.46	12398	
628.65	10744	
628.83	10409	
629.02	13039	
629.21	12185	
629.4	11284	
629.59	11439	
629.78	12314	
629.97	13254	
630.16	11529	
630.35	11006	
630.54	13781	
630.72	13412	
630.91	10942	
631.1	11536	
631.29	12912	
631.48	13031	
631.67	11678	
631.86	11057	
632.05	12609	
632.24	12620	
632.42	10687	
632.61	11445	
632.8	12666	
632.99	12273	
633.18	11419	
633.37	11934	
633.56	12801	
633.75	12766	
633.93	11427	
634.12	11167	
634.31	13822	
634.5	13439	
634.69	11067	
634.88	11571	
635.07	12732	
635.25	13316	
635.44	12062	
635.63	12404	
635.82	12712	
636.01	11998	
636.2	12002	
636.39	11608	
636.57	13796	
636.76	13225	
636.95	10938	
637.14	12359	
637.33	13097	
637.52	14059	
637.7	10749	
637.89	11727	
638.08	12603	
638.27	14097	
638.46	11773	
638.65	12090	
638.83	13842	
639.02	12234	
639.21	11493	
639.4	12000	
639.59	12777	
639.78	12410	
639.96	10654	
640.15	10765	
640.34	12562	
640.53	12754	
640.72	10462	
640.91	10783	
641.09	11938	
641.28	13297	
641.47	10763	
641.66	11768	
641.85	12722	
642.03	12826	
642.22	11443	
642.41	10793	
642.6	11896	
642.79	11403	
642.97	10574	
643.16	11299	
643.35	12020	
643.54	11761	
643.73	10445	
643.91	11064	
644.1	11454	
644.29	12045	
644.48	10303	
644.67	10321	
644.85	11469	
645.04	11796	
645.23	9723.1	
645.42	10048	
645.6	11174	
645.79	12420	
645.98	9924.5	
646.17	8948.9	
646.36	10815	
646.54	11488	
646.73	10596	
646.92	9299.1	
647.11	10867	
647.29	11954	
647.48	9372.9	
647.67	9067	
647.86	12271	
648.05	12377	
648.23	9787.9	
648.42	11172	
648.61	11708	
648.8	11464	
648.98	9488.9	
649.17	9787.9	
649.36	11006	
649.55	10631	
649.73	9441.8	
649.92	10329	
650.11	10824	
650.3	11159	
650.48	9531.2	
650.67	9283.4	
650.86	11446	
651.05	10320	
651.23	9555.1	
651.42	9503.9	
651.61	11003	
651.79	11037	
651.98	9720.3	
652.17	9325.1	
652.36	11220	
652.54	10383	
652.73	9282.8	
652.92	8987.9	
653.11	11262	
653.29	11204	
653.48	8451.3	
653.67	9463	
653.85	10915	
654.04	11895	
654.23	9411.8	
654.42	9000.1	
654.6	10087	
654.79	10838	
654.98	8394.6	
655.16	8889.5	
655.35	9740.1	
655.54	9817.3	
655.73	8517.5	
655.91	8518.9	
656.1	10978	
656.29	9966.8	
656.47	8296.3	
656.66	9952.4	
656.85	10286	
657.03	10293	
657.22	8789.9	
657.41	8914.8	
657.59	10377	
657.78	10100	
657.97	8535.9	
658.16	9190.6	
658.34	11061	
658.53	11383	
658.72	10265	
658.9	10604	
659.09	10384	
659.28	10568	
659.46	9137.4	
659.65	9021.3	
659.84	10269	
660.02	10880	
660.21	8814.5	
660.4	8845.9	
660.58	11338	
660.77	10541	
660.96	9413.8	
661.14	8377.6	
661.33	11844	
661.52	11625	
661.7	8349.6	
661.89	12099	
662.08	10195	
662.26	9739.5	
662.45	8490.9	
662.64	8703.9	
662.82	10880	
663.01	10043	
663.2	8739.4	
663.38	9602.2	
663.57	10721	
663.75	10587	
663.94	9067	
664.13	10348	
664.31	10064	
664.5	10877	
664.69	9464.3	
664.87	9921.7	
665.06	9807	
665.25	10694	
665.43	10035	
665.62	10242	
665.8	10859	
665.99	10129	
666.18	9024	
666.36	9219.3	
666.55	10829	
666.74	10690	
666.92	8586.5	
667.11	10308	
667.29	10168	
667.48	10849	
667.67	9893.7	
667.85	9028.8	
668.04	10140	
668.22	10218	
668.41	9067	
668.6	9172.2	
668.78	9943.6	
668.97	10086	
669.15	9318.9	
669.34	8334.6	
669.53	9935.4	
669.71	10258	
669.9	8506.6	
670.08	9117.6	
670.27	9895.8	
670.46	10541	
670.64	9398.1	
670.83	9663	
671.01	9824.8	
671.2	10459	
671.38	8565.3	
671.57	8350.9	
671.76	11090	
671.94	11576	
672.13	8351.6	
672.31	9540.8	
672.5	10692	
672.69	9846.6	
672.87	8592.6	
673.06	8906.6	
673.24	10495	
673.43	9931.3	
673.61	9308	
673.8	8820.6	
673.98	10665	
674.17	10787	
674.36	9456.2	
674.54	9166	
674.73	10348	
674.91	10596	
675.1	9074.5	
675.28	8570.1	
675.47	10139	
675.65	10726	
675.84	8816.5	
676.03	9200.8	
676.21	9974.3	
676.4	9465.7	
676.58	9671.9	
676.77	9407	
676.95	11470	
677.14	9927.2	
677.32	8390.5	
677.51	8296.3	
677.69	10710	
677.88	9493	
678.06	8386.4	
678.25	8445.1	
678.44	10183	
678.62	9931.3	
678.81	8105.9	
678.99	9160.6	
679.18	10966	
679.36	10576	
679.55	8664.3	
679.73	9381.1	
679.92	10473	
680.1	9964.1	
680.29	9964.7	
680.47	8773.5	
680.66	9755.8	
680.84	10656	
681.03	8069.7	
681.21	9316.9	
681.4	9911.5	
681.58	9727.9	
681.77	8417.8	
681.95	8349.6	
682.14	10746	
682.32	11140	
682.51	9446.6	
682.69	8111.3	
682.88	9663.7	
683.06	10385	
683.25	9093	
683.43	9539.4	
683.62	9977	
683.8	10367	
683.99	9454.8	
684.17	8534.6	
684.36	10849	
684.54	9396.8	
684.73	7350.2	
684.91	7496.2	
685.1	9590	
685.28	8909.3	
685.46	8185.7	
685.65	8283.4	
685.83	9934	
686.02	9378.3	
686.2	7849.2	
686.39	7987.8	
686.57	8991.9	
686.76	10787	
686.94	7958.4	
687.13	8111.3	
687.31	9841.2	
687.5	9423.4	
687.68	7501	
687.86	8915.5	
688.05	11290	
688.23	8931.2	
688.42	9003.6	
688.6	8129.1	
688.79	9492.3	
688.97	9460.9	
689.16	8645.8	
689.34	7433.4	
689.52	10249	
689.71	10475	
689.89	8811	
690.08	8019.2	
690.26	9677.3	
690.45	9539.4	
690.63	8961.2	
690.81	8258.1	
691	9263	
691.18	9258.9	
691.37	8266.3	
691.55	10525	
691.74	9284.1	
691.92	11261	
692.1	8294.3	
692.29	7709.9	
692.47	9455.5	
692.66	8846.5	
692.84	7940	
693.02	8641.7	
693.21	9028.1	
693.39	9586.5	
693.58	8787.2	
693.76	8184.4	
693.94	10976	
694.13	10861	
694.31	8370.7	
694.5	9497.8	
694.68	9596.1	
694.86	9900.6	
695.05	8727.1	
695.23	9156.5	
695.42	10400	
695.6	12613	
695.78	9187.2	
695.97	8304.5	
696.15	10307	
696.34	9574.9	
696.52	8006.2	
696.7	8781	
696.89	9851.4	
697.07	9250.7	
697.25	8671.8	
697.44	10372	
697.62	9858.9	
697.81	10183	
697.99	8461.5	
698.17	8862.9	
698.36	9108.7	
698.54	9841.2	
698.72	8732.5	
698.91	7765.9	
699.09	9392.7	
699.28	9346.9	
699.46	8375.5	
699.64	8278.6	
699.83	9192.6	
700.01	10571	
700.19	9110.7	
700.38	7649.8	
700.56	10643	
700.74	9493	
700.93	8021.9	
701.11	8885.5	
701.29	10204	
701.48	11195	
701.66	8263.6	
701.84	8269.7	
702.03	9727.9	
702.21	10276	
702.39	7752.9	
702.58	8484.1	
702.76	10001	
702.94	10185	
703.13	7772.7	
703.31	10340	
703.49	9393.3	
703.68	10946	
703.86	8046.5	
704.04	9115.5	
704.23	9925.1	
704.41	10336	
704.59	8261.5	
704.78	9398.1	
704.96	10985	
705.14	10337	
705.33	7984.3	
705.51	8780.3	
705.69	9723.1	
705.87	10589	
706.06	9228.8	
706.24	7927	
706.42	10046	
706.61	10367	
706.79	9116.2	
706.97	7991.2	
707.16	9506	
707.34	10066	
707.52	9127.8	
707.7	8200.1	
707.89	9555.1	
708.07	9350.3	
708.25	9178.3	
708.44	9243.8	
708.62	9480.7	
708.8	10662	
708.98	9278.7	
709.17	8354.3	
709.35	10018	
709.53	9979.1	
709.72	7922.2	
709.9	8110.6	
710.08	10136	
710.26	10217	
710.45	9703.3	
710.63	8269.7	
710.81	9858.2	
710.99	9835	
711.18	8878.6	
711.36	8277.9	
711.54	9471.2	
711.72	10202	
711.91	8287.4	
712.09	7605.5	
712.27	9606.3	
712.45	10193	
712.64	8399.4	
712.82	7277.8	
713	8772.8	
713.18	8896.4	
713.37	7181.5	
713.55	8428.1	
713.73	9491.7	
713.91	7897.7	
714.1	7140.6	
714.28	6632.7	
714.46	8738.7	
714.64	7967.3	
714.83	5915.2	
715.01	6799.9	
715.19	7876.5	
715.37	7285.3	
715.55	6346	
715.74	6679.8	
715.92	8805.6	
716.1	6765.8	
716.28	7750.2	
716.47	6783.6	
716.65	7339.9	
716.83	7536.5	
717.01	6642.9	
717.19	6741.2	
717.38	9833	
717.56	7338.6	
717.74	7138.5	
717.92	6270.9	
718.1	8860.9	
718.29	8099	
718.47	6196.5	
718.65	6842.9	
718.83	8893.6	
719.01	8873.8	
719.2	6051.1	
719.38	7160.4	
719.56	8458.1	
719.74	10043	
719.92	6545.3	
720.11	7561.1	
720.29	8271.7	
720.47	7305.8	
720.65	5877.7	
720.83	6782.9	
721.02	7644.4	
721.2	7299.6	
721.38	6764.4	
721.56	6065.4	
721.74	6801.3	
721.92	7112.6	
722.11	7308.5	
722.29	6951.5	
722.47	8357.8	
722.65	7509.2	
722.83	6036.7	
723.01	7039.6	
723.2	7583.6	
723.38	7848.5	
723.56	5412.1	
723.74	6715.3	
723.92	7048.4	
724.1	8217.1	
724.29	5892.7	
724.47	7111.2	
724.65	7088.7	
724.83	7104.4	
725.01	5864.7	
725.19	6817.7	
725.37	7115.3	
725.56	7195.9	
725.74	5644.9	
725.92	5925.5	
726.1	6948.1	
726.28	7349.5	
726.46	6381.5	
726.64	6110.5	
726.83	7280.5	
727.01	7610.3	
727.19	5666.7	
727.37	6573.3	
727.55	7428	
727.73	8096.3	
727.91	5629.2	
728.09	5487.9	
728.28	8060.8	
728.46	8841.1	
728.64	6834.8	
728.82	6876.4	
729	9364	
729.18	8630.1	
729.36	6067.4	
729.54	8486.1	
729.72	9751.7	
729.91	7929.7	
730.09	8230.1	
730.27	6944	
730.45	7817.8	
730.63	8670.4	
730.81	7577.5	
730.99	6550.1	
731.17	9173.5	
731.35	7620.5	
731.53	7107.1	
731.71	6673	
731.9	8778.3	
732.08	8965.3	
732.26	6935.1	
732.44	6466.8	
732.62	8976.2	
732.8	8445.1	
732.98	7379.5	
733.16	6345.3	
733.34	8488.1	
733.52	7211.6	
733.7	6862.1	
733.88	7197.9	
734.07	8359.8	
734.25	8157.1	
734.43	6351.4	
734.61	7985.7	
734.79	9610.4	
734.97	8034.2	
735.15	6465.4	
735.33	6830	
735.51	8330.5	
735.69	8032.8	
735.87	8016.4	
736.05	7151.5	
736.23	8189.1	
736.41	8034.9	
736.59	6976.7	
736.77	7073	
736.95	8777.6	
737.13	8127	
737.32	6579.4	
737.5	6880.5	
737.68	9254.8	
737.86	7950.9	
738.04	6306.4	
738.22	8344.8	
738.4	7810.3	
738.58	8141.4	
738.76	7033.4	
738.94	5902.2	
739.12	7891.5	
739.3	7849.9	
739.48	7780.2	
739.66	7507.2	
739.84	8292.9	
740.02	8275.8	
740.2	6070.9	
740.38	6459.3	
740.56	8544.8	
740.74	7494.9	
740.92	7139.9	
741.1	7045.7	
741.28	8021.9	
741.46	7872.4	
741.64	6728.9	
741.82	7118.1	
742	7961.1	
742.18	7974.8	
742.36	6856.6	
742.54	6441.5	
742.72	8652.7	
742.9	7312.6	
743.08	7306.5	
743.26	5980.1	
743.44	8825.4	
743.62	8588.5	
743.8	7398.6	
743.98	6467.5	
744.16	8240.3	
744.34	8023.9	
744.52	7325.6	
744.7	7234.1	
744.88	8482.7	
745.06	7899.7	
745.24	7236.2	
745.42	7316.7	
745.6	8473.1	
745.78	8221.9	
745.96	5997.8	
746.14	6367.8	
746.32	9272.5	
746.5	8514.1	
746.68	6910.5	
746.86	6356.9	
747.03	8948.9	
747.21	7148.1	
747.39	6954.2	
747.57	6470.9	
747.75	8046.5	
747.93	8523.6	
748.11	6435.4	
748.29	6305	
748.47	9701.2	
748.65	7714	
748.83	7153.6	
749.01	6787	
749.19	8345.5	
749.37	7418.4	
749.55	6627.9	
749.73	6845	
749.91	7903.1	
750.09	7662.1	
750.26	6869.6	
750.44	6271.6	
750.62	8019.8	
750.8	7987.1	
750.98	6053.8	
751.16	6326.9	
751.34	8011	
751.52	7417.1	
751.7	7251.2	
751.88	6040.1	
752.06	8498.4	
752.24	8318.8	
752.42	6026.5	
752.59	6349.4	
752.77	7843.7	
752.95	9256.8	
753.13	7165.8	
753.31	6466.1	
753.49	7628	
753.67	8079.9	
753.85	6813.6	
754.03	6371.2	
754.21	8281.3	
754.38	8594	
754.56	6410.8	
754.74	5428.5	
754.92	7334.5	
755.1	7996	
755.28	5107	
755.46	4954	
755.64	8147.5	
755.82	8219.9	
755.99	4771.8	
756.17	4823	
756.35	5242.1	
756.53	6941.9	
756.71	3506.1	
756.89	4554.7	
757.07	6593.8	
757.25	5642.8	
757.42	5398.4	
757.6	6358.9	
757.78	6918.7	
757.96	5885.2	
758.14	5169.1	
758.32	4586.8	
758.5	5341.1	
758.67	6167.1	
758.85	4969.7	
759.03	4979.3	
759.21	6343.2	
759.39	5801.2	
759.57	4429.8	
759.75	5693.4	
759.92	7135.1	
760.1	6319.3	
760.28	6104.3	
760.46	6455.2	
760.64	6217.6	
760.82	5960.3	
760.99	6165.1	
761.17	5322.7	
761.35	7243.7	
761.53	6252.4	
761.71	5645.6	
761.89	6369.9	
762.06	7306.5	
762.24	6819.1	
762.42	5793	
762.6	5608.7	
762.78	6862.7	
762.96	7634.1	
763.13	6331.6	
763.31	5996.5	
763.49	7904.5	
763.67	6931	
763.85	6891.4	
764.02	7458	
764.2	8130.4	
764.38	7256.6	
764.56	5790.3	
764.74	6806.8	
764.91	8291.5	
765.09	7074.4	
765.27	5499.5	
765.45	5365	
765.63	8285.4	
765.8	8134.5	
765.98	4988.2	
766.16	5397.8	
766.34	6589.7	
766.52	6309.8	
766.69	6389	
766.87	5193.6	
767.05	7096.9	
767.23	7721.5	
767.41	5472.9	
767.58	5784.8	
767.76	7533.8	
767.94	7592.5	
768.12	5501.5	
768.29	6339.8	
768.47	7065.5	
768.65	7771.4	
768.83	5112.4	
769	6376	
769.18	6491.4	
769.36	7255.3	
769.54	6133.7	
769.72	5096.7	
769.89	7636.9	
770.07	7684	
770.25	5488.6	
770.43	6820.4	
770.6	8236.2	
770.78	8699.1	
770.96	5623.7	
771.14	6285.2	
771.31	7364.5	
771.49	6671.6	
771.67	4711	
771.85	4960.9	
772.02	5847	
772.2	6648.4	
772.38	5758.9	
772.55	5195.7	
772.73	6877.8	
772.91	6629.3	
773.09	5526.1	
773.26	5605.3	
773.44	6823.1	
773.62	6511.2	
773.8	4919.2	
773.97	4731.5	
774.15	6896.2	
774.33	6413.6	
774.5	4853	
774.68	5195.7	
774.86	7026.6	
775.04	6460	
775.21	4913.1	
775.39	4878.9	
775.57	6671.6	
775.74	7133.8	
775.92	4705.5	
776.1	4526	
776.27	6634.7	
776.45	7972.7	
776.63	4827.7	
776.81	4336.2	
776.98	6205.3	
777.16	7384.3	
777.34	4923.3	
777.51	5239.4	
777.69	6191.7	
777.87	6001.2	
778.04	4972.5	
778.22	5604.6	
778.4	6012.8	
778.57	6636.8	
778.75	4104.1	
778.93	4451.6	
779.1	5691.3	
779.28	5591	
779.46	4097.3	
779.64	4650.3	
779.81	6745.3	
779.99	7668.3	
780.17	5475.6	
780.34	5509	
780.52	6100.2	
780.69	6380.8	
780.87	4986.1	
781.05	4561.5	
781.22	6184.9	
781.4	6291.4	
781.58	4641.4	
781.75	3736.9	
781.93	6228.6	
782.11	5571.2	
782.28	5508.4	
782.46	4588.8	
782.64	5327.4	
782.81	6318	
782.99	4665.3	
783.17	4607.2	
783.34	6207.4	
783.52	5360.9	
783.69	4799.1	
783.87	5644.9	
784.05	5395.7	
784.22	5438	
784.4	5601.9	
784.58	4829.1	
784.75	6409.5	
784.93	5408.7	
785.1	4461.8	
785.28	5148.6	
785.46	6066.8	
785.63	5378	
785.81	4414.7	
785.99	4275.5	
786.16	5543.2	
786.34	5935.7	
786.51	4257	
786.69	4715.1	
786.87	5096.7	
787.04	5653.1	
787.22	4096.6	
787.39	5201.2	
787.57	5339.7	
787.75	6477	
787.92	5352.7	
788.1	5243.5	
788.27	5420.3	
788.45	5141.8	
788.63	4969.7	
788.8	3571	
788.98	5758.2	
789.15	5092.6	
789.33	3719.1	
789.5	4362.2	
789.68	6296.1	
789.86	6442.2	
790.03	4846.9	
790.21	4209.9	
790.38	6299.6	
790.56	5405.3	
790.73	4115.1	
790.91	4117.1	
791.09	5340.4	
791.26	6113.2	
791.44	4239.3	
791.61	3725.3	
791.79	5304.2	
791.96	5392.3	
792.14	3904.8	
792.32	3447.4	
792.49	5195.7	
792.67	5395.7	
792.84	3902.7	
793.02	3676.8	
793.19	5711.8	
793.37	6493.4	
793.54	3437.9	
793.72	3788.7	
793.89	6649.1	
794.07	5328.1	
794.25	4397	
794.42	3433.1	
794.6	6423.1	
794.77	6007.4	
794.95	4707.6	
795.12	4126.7	
795.3	5238.7	
795.47	5938.4	
795.65	4570.4	
795.82	4404.5	
796	5042.8	
796.17	7085.3	
796.35	4211.3	
796.52	4922	
796.7	5807.4	
796.87	5858.6	
797.05	5159.5	
797.22	5045.5	
797.4	5825.8	
797.57	6865.5	
797.75	4326	
797.92	4076.1	
798.1	6140.5	
798.27	5248.9	
798.45	3433.1	
798.62	3753.2	
798.8	5524.1	
798.97	6067.4	
799.15	4533.5	
799.32	4237.9	
799.5	4734.2	
799.67	5589.6	
799.85	4685.1	
800.02	3364.1	
800.2	5176.6	
800.37	5567.1	
800.55	4863.9	
800.72	4029.7	
800.9	6034.7	
801.07	6453.8	
801.25	5375.2	
801.42	4401.8	
801.6	6046.3	
801.77	5797.1	
801.95	3982.6	
802.12	3931.4	
802.29	5694	
802.47	5644.2	
802.64	4426.3	
802.82	3278.1	
802.99	5111	
803.17	6201.2	
803.34	4187.4	
803.52	3895.9	
803.69	6919.4	
803.87	4919.2	
804.04	4190.1	
804.21	4321.2	
804.39	6279.8	
804.56	5344.5	
804.74	3573.7	
804.91	4371.7	
805.09	5121.3	
805.26	5253.7	
805.44	3586.7	
805.61	3955.3	
805.78	5837.4	
805.96	5877.7	
806.13	4431.8	
806.31	4719.9	
806.48	4715.1	
806.66	5235.3	
806.83	4361.5	
807	4286.4	
807.18	5121.3	
807.35	5526.1	
807.53	4203.8	
807.7	3350.5	
807.87	6293.4	
808.05	5234.6	
808.22	4670.1	
808.4	3441.3	
808.57	5235.3	
808.74	4830.5	
808.92	3865.2	
809.09	4926	
809.27	5014.1	
809.44	5704.3	
809.61	3412.6	
809.79	3855	
809.96	6351.4	
810.14	5961.6	
810.31	3316.3	
810.48	4087.7	
810.66	5317.9	
810.83	6073.6	
811.01	3850.9	
811.18	4613.4	
811.35	5938.4	
811.53	4622.9	
811.7	4645.5	
811.87	4391.5	
812.05	5122.7	
812.22	5093.3	
812.39	3676.1	
812.57	3603.1	
812.74	5165	
812.92	6948.1	
813.09	4126.7	
813.26	4450.2	
813.44	6617	
813.61	5106.3	
813.78	3409.9	
813.96	4610.7	
814.13	5151.3	
814.3	4831.2	
814.48	4995	
814.65	4078.9	
814.82	6436.1	
815	4962.9	
815.17	4170.3	
815.34	5063.9	
815.52	5087.2	
815.69	5078.3	
815.87	4155.3	
816.04	3558	
816.21	5114.5	
816.38	4565.6	
816.56	3987.4	
816.73	3784.6	
816.9	6546.7	
817.08	5948.7	
817.25	3736.2	
817.42	4783.4	
817.6	4713.7	
817.77	5239.4	
817.94	4240.7	
818.12	3752.6	
818.29	4904.9	
818.46	7785.7	
818.64	3933.5	
818.81	3644	
818.98	4812	
819.16	7090.1	
819.33	4541.7	
819.5	4132.8	
819.67	5527.5	
819.85	6184.9	
820.02	4074.1	
820.19	4384.7	
820.37	5437.4	
820.54	4949.3	
820.71	4240.7	
820.88	5249.6	
821.06	5388.2	
821.23	4960.2	
821.4	4238.6	
821.58	4258.4	
821.75	5911.8	
821.92	5324	
822.09	3506.1	
822.27	3555.3	
822.44	5229.1	
822.61	5066	
822.79	3428.3	
822.96	6612.9	
823.13	5693.4	
823.3	4859.8	
823.48	4017.4	
823.65	3569.6	
823.82	5832.6	
823.99	4693.3	
824.17	5088.5	
824.34	3638.6	
824.51	6824.5	
824.68	5240.8	
824.86	3861.1	
825.03	4257	
825.2	5142.4	
825.37	6300.2	
825.55	3722.5	
825.72	4203.8	
825.89	6882.5	
826.06	6369.2	
826.24	4082.3	
826.41	4096.6	
826.58	6332.3	
826.75	5474.2	
826.92	3244	
827.1	3572.3	
827.27	8621.9	
827.44	6874.3	
827.61	3894.6	
827.79	4696.7	
827.96	4898.7	
828.13	5266.7	
828.3	4075.5	
828.47	3401	
828.65	5371.8	
828.82	5281	
828.99	5184.1	
829.16	4569	
829.34	5796.4	
829.51	5546.6	
829.68	4180.6	
829.85	4375.8	
830.02	6068.8	
830.2	5788.9	
830.37	3226.2	
830.54	5127.4	
830.71	6619	
830.88	5168.4	
831.05	3293.8	
831.23	3819.5	
831.4	6359.6	
831.57	7164.5	
831.74	3871.3	
831.91	3454.9	
832.09	5424.4	
832.26	5810.1	
832.43	4046.1	
832.6	4573.8	
832.77	5444.2	
832.94	6215.6	
833.12	3178.4	
833.29	3942.3	
833.46	5560.2	
833.63	7378.8	
833.8	4392.9	
833.97	4035.9	
834.15	5799.2	
834.32	5547.9	
834.49	4173.1	
834.66	4273.4	
834.83	6090.7	
835	4872.8	
835.17	3841.3	
835.35	3893.2	
835.52	5664.7	
835.69	5541.1	
835.86	4070	
836.03	3370.3	
836.2	5725.4	
836.37	5349.3	
836.55	3995.6	
836.72	3725.3	
836.89	5373.9	
837.06	5776.6	
837.23	4104.8	
837.4	4488.5	
837.57	6680.5	
837.75	7373.4	
837.92	3679.5	
838.09	3962.8	
838.26	5286.5	
838.43	6040.1	
838.6	4244.8	
838.77	3746.4	
838.94	6994.5	
839.11	6703.7	
839.29	3988.8	
839.46	3136.1	
839.63	5728.9	
839.8	5475.6	
839.97	3900	
840.14	3886.4	
840.31	5533.6	
840.48	5786.9	
840.65	3220.1	
840.82	3801.7	
841	5775.3	
841.17	5718.6	
841.34	3585.3	
841.51	3615.3	
841.68	5655.8	
841.85	5392.3	
842.02	3688.4	
842.19	3076	
842.36	5554.1	
842.53	5477	
842.7	3590.8	
842.87	4455.7	
843.05	7298.3	
843.22	5402.5	
843.39	3383.9	
843.56	3788.7	
843.73	5240.1	
843.9	5845.6	
844.07	5888.6	
844.24	4840.7	
844.41	8683.4	
844.58	5091.3	
844.75	3407.8	
844.92	3784	
845.09	5746.6	
845.26	5751.4	
845.43	3535.5	
845.6	3844	
845.77	5781.4	
845.94	5472.2	
846.12	3960.1	
846.29	4130.1	
846.46	6070.9	
846.63	5733.6	
846.8	3583.3	
846.97	4276.2	
847.14	6214.9	
847.31	5649.7	
847.48	4047.5	
847.65	4439.3	
847.82	6002.6	
847.99	6054.5	
848.16	4788.2	
848.33	4461.8	
848.5	5319.9	
848.67	6299.6	
848.84	3568.9	
849.01	3768.9	
849.18	5152.7	
849.35	4803.9	
849.52	4543.1	
849.69	3535.5	
849.86	5933.6	
850.03	6248.4	
850.2	3585.3	
850.37	4357.4	
850.54	6156.9	
850.71	5408	
850.88	4297.3	
851.05	3547.1	
851.22	5667.4	
851.39	6270.9	
851.56	3358	
851.73	4134.2	
851.9	5010	
852.07	6005.3	
852.24	3971.7	
852.41	3528	
852.58	5571.2	
852.75	5079.6	
852.92	4031.1	
853.09	3500.7	
853.26	5352	
853.43	6259.3	
853.6	3530.7	
853.77	3056.9	
853.94	6350.8	
854.11	4997	
854.28	5244.8	
854.44	3857.7	
854.61	6765.1	
854.78	5872.9	
854.95	3577.1	
855.12	4510.3	
855.29	4605.9	
855.46	6535.1	
855.63	3564.1	
855.8	4899.4	
855.97	5344.5	
856.14	6093.4	
856.31	5038.7	
856.48	3828.3	
856.65	5264.6	
856.82	4973.8	
856.99	3376.4	
857.16	3812	
857.33	7015.7	
857.49	5344.5	
857.66	3833.8	
857.83	4132.8	
858	5382.7	
858.17	5532.9	
858.34	3358	
858.51	3560.1	
858.68	6429.9	
858.85	6481.8	
859.02	4152.6	
859.19	4420.2	
859.36	5109.7	
859.52	5083.1	
859.69	3554.6	
859.86	4207.2	
860.03	5123.3	
860.2	6298.9	
860.37	3207.1	
860.54	3680.9	
860.71	6010.8	
860.88	6453.1	
861.05	3982.6	
861.21	4531.5	
861.38	6472.3	
861.55	4915.1	
861.72	3187.3	
861.89	4009.9	
862.06	6071.5	
862.23	6543.9	
862.4	3491.1	
862.56	3782.6	
862.73	5853.1	
862.9	5541.8	
863.07	4219.5	
863.24	3265.8	
863.41	4969.1	
863.58	5029.8	
863.75	3624.9	
863.91	4065.2	
864.08	6372.6	
864.25	5896.1	
864.42	4427.7	
864.59	5036	
864.76	6690	
864.93	5046.2	
865.09	3485	
865.26	3809.9	
865.43	6309.8	
865.6	6678.4	
865.77	3068.5	
865.94	3488.4	
866.1	6361	
866.27	6001.2	
866.44	5418.9	
866.61	3377.1	
866.78	5459.2	
866.95	5879	
867.11	3463.1	
867.28	3200.3	
867.45	6059.3	
867.62	5143.1	
867.79	4188.1	
867.96	3504.8	
868.12	5077.6	
868.29	6090.7	
868.46	3086.3	
868.63	4756.7	
868.8	6207.4	
868.97	5907	
869.13	3740.3	
869.3	3744.4	
869.47	5906.3	
869.64	6047.7	
869.81	3607.2	
869.97	3550.5	
870.14	5801.2	
870.31	6466.8	
870.48	3426.9	
870.65	4490.5	
870.81	5409.4	
870.98	5310.4	
871.15	4079.6	
871.32	3761.4	
871.48	5827.8	
871.65	6565.8	
871.82	3538.2	
871.99	3925.3	
872.16	6963.8	
872.32	6276.3	
872.49	3569.6	
872.66	3645.4	
872.83	6000.5	
872.99	5212.8	
873.16	4100.7	
873.33	3509.5	
873.5	5643.5	
873.67	5616.9	
873.83	3725.3	
874	4809.3	
874.17	5748	
874.34	6862.7	
874.5	4560.1	
874.67	4468.7	
874.84	6430.6	
875.01	5061.9	
875.17	5006.6	
875.34	3532.7	
875.51	5698.8	
875.68	6873	
875.84	4272.1	
876.01	5264.6	
876.18	5973.2	
876.34	5863.3	
876.51	3576.4	
876.68	3527.3	
876.85	5416.9	
877.01	6217	
877.18	5103.5	
877.35	3495.9	
877.52	5524.7	
877.68	4954.7	
877.85	3466.5	
878.02	3478.1	
878.18	5495.4	
878.35	5227.1	
878.52	2846.7	
878.69	4000.4	
878.85	5997.8	
879.02	5892.7	
879.19	5076.9	
879.35	3821.5	
879.52	5873.6	
879.69	6230.6	
879.86	3028.9	
880.02	4040	
880.19	5555.5	
880.36	6685.3	
880.52	4087.1	
880.69	4261.8	
880.86	6004.6	
881.02	6127.5	
881.19	3930.1	
881.36	3904.8	
881.52	5954.8	
881.69	5290.6	
881.86	3864.5	
882.02	3764.8	
882.19	6214.2	
882.36	7326.9	
882.52	3657	
882.69	5023	
882.86	5649	
883.02	5606	
883.19	4330.8	
883.36	4135.5	
883.52	6085.2	
883.69	6933.7	
883.86	3611.3	
884.02	3198.9	
884.19	6008.7	
884.36	5556.1	
884.52	4025.6	
884.69	3766.2	
884.86	5244.8	
885.02	6609.5	
885.19	4016.7	
885.36	4142.4	
885.52	5513.8	
885.69	5674.2	
885.86	5201.2	
886.02	4589.5	
886.19	6019	
886.35	5439.4	
886.52	3949.2	
886.69	5063.9	
886.85	5110.4	
887.02	6343.2	
887.19	6343.2	
887.35	6343.2	
887.52	6343.2	
887.68	6343.2	
887.85	6343.2	
888.02	6343.2	
888.18	6343.2	
888.35	6343.2	
888.51	6343.2	
888.68	6343.2	
888.85	6343.2	
889.01	6343.2	
889.18	6343.2	
889.35	6343.2	
889.51	6343.2	
889.68	6343.2	
889.84	6343.2	
890.01	6343.2	
890.17	6343.2	
890.34	6343.2	
890.51	6343.2	
890.67	6343.2	
890.84	6343.2	
891	6343.2	
891.17	6343.2	
891.34	6343.2	
891.5	6343.2	
891.67	6343.2	
891.83	6343.2	
892	6343.2	
892.16	6343.2	
892.33	6343.2	
892.5	6343.2	
892.66	6343.2	
892.83	6343.2	
892.99	6343.2	
893.16	6343.2	
893.32	6343.2	
893.49	6343.2	
893.65	6343.2	
893.82	6343.2	
893.99	6343.2	
894.15	6343.2	
894.32	6343.2	
894.48	6343.2	
894.65	6343.2	
894.81	6343.2	
894.98	6343.2	
895.14	6343.2	
895.31	6343.2	
895.47	6343.2	
895.64	6343.2	
895.81	6343.2	
895.97	6343.2	
896.14	6343.2	
896.3	6343.2	
896.47	6343.2	
896.63	6343.2	
896.8	6343.2	
896.96	6343.2	
897.13	6343.2	
897.29	6343.2	
897.46	6343.2	
897.62	6343.2	
897.79	6343.2	
897.95	6343.2	
898.12	6343.2	
898.28	6343.2	
898.45	6343.2	
898.61	6343.2	
898.78	6343.2	
898.94	6343.2	
899.11	6343.2	
899.27	6343.2	
899.44	6343.2	
899.6	6343.2	
899.77	6343.2	
899.93	6343.2	
900.1	6343.2	
900.26	6343.2	
900.43	6343.2	
900.59	6343.2	
900.76	6343.2	
900.92	6343.2	
901.09	6343.2	
901.25	6343.2	
901.42	6343.2	
901.58	6343.2	
901.75	6343.2	
901.91	6343.2	
902.07	6343.2	
902.24	6343.2	
902.4	6343.2	
902.57	6343.2	
902.73	6343.2	
902.9	6343.2	
903.06	6343.2	
903.23	6343.2	
903.39	6343.2	
903.56	6343.2	
903.72	6343.2	
903.88	6343.2	
904.05	6343.2	
904.21	6343.2	
904.38	6343.2	
904.54	6343.2	
904.71	6343.2	
904.87	6343.2	
905.03	6343.2	
905.2	6343.2	
905.36	6343.2	
905.53	6343.2	
905.69	6343.2	
905.86	6343.2	
906.02	6343.2	
906.18	6343.2	
906.35	6343.2	
906.51	6343.2	
906.68	6343.2	
906.84	6343.2	
907.01	6343.2	
907.17	6343.2	
907.33	6343.2	
907.5	6343.2	
907.66	6343.2	
907.83	6343.2	
907.99	6343.2	
908.15	6343.2	
908.32	6343.2	
908.48	6343.2	
908.65	6343.2	
908.81	6343.2	
908.97	6343.2	
909.14	6343.2	
909.3	6343.2	
909.47	6343.2	
909.63	6343.2	
909.79	6343.2	
909.96	6343.2	
910.12	6343.2	
910.28	6343.2	
910.45	6343.2	
910.61	6343.2	
910.78	6343.2	
910.94	6343.2	
911.1	6343.2	
911.27	6343.2	
911.43	6343.2	
911.59	6343.2	
911.76	6343.2	
911.92	6343.2	
912.08	6343.2	
912.25	6343.2	
912.41	6343.2	
912.57	6343.2	
912.74	6343.2	
912.9	6343.2	
913.07	6343.2	
913.23	6343.2	
913.39	6343.2	
913.56	6343.2	
913.72	6343.2	
913.88	6343.2	
914.05	6343.2	
914.21	6343.2	
914.37	6343.2	
914.54	6343.2	
914.7	6343.2	
914.86	6343.2	
915.03	6343.2	
915.19	6343.2	
