Wavelength	Intensities	
nm	a.u.	
179.22	1765.7	
179.44	1755.1	
179.65	1776.3	
179.86	1733.9	
180.08	1767.4	
180.29	4175.1	
180.51	3108.1	
180.72	5152	
180.94	5900.9	
181.15	2905.4	
181.37	2863.1	
181.58	4971.8	
181.79	5248.3	
182.01	2989.4	
182.22	3146.4	
182.44	5236	
182.65	4467.3	
182.87	3930.1	
183.08	3469.9	
183.29	5566.4	
183.51	4571.7	
183.72	3160	
183.94	4481	
184.15	4916.5	
184.37	4922	
184.58	2876.7	
184.79	3766.2	
185.01	4639.3	
185.22	5188.2	
185.44	4003.8	
185.65	3457	
185.86	4840	
186.08	4474.1	
186.29	2769.5	
186.51	2989.4	
186.72	4646.2	
186.94	5322.7	
187.15	3400.3	
187.36	3502.7	
187.58	6713.2	
187.79	5041.4	
188.01	3620.1	
188.22	5556.8	
188.43	5926.8	
188.65	5211.4	
188.86	2938.8	
189.08	3475.4	
189.29	4771.1	
189.5	4745.1	
189.72	3273.3	
189.93	3304.7	
190.15	5378	
190.36	6261.3	
190.57	3536.8	
190.79	3467.2	
191	5383.4	
191.22	5395.7	
191.43	3544.4	
191.64	3006.4	
191.86	5586.9	
192.07	5393	
192.29	3097.2	
192.5	3223.5	
192.71	5395	
192.93	4678.9	
193.14	3176.4	
193.35	3277.4	
193.57	4768.4	
193.78	5435.3	
194	2600.2	
194.21	3187.3	
194.42	4528.1	
194.64	4946.5	
194.85	3464.5	
195.07	3992.9	
195.28	4894.6	
195.49	4339.6	
195.71	4179.2	
195.92	3033	
196.13	5089.9	
196.35	5160.2	
196.56	4495.3	
196.78	3504.8	
196.99	6212.2	
197.2	5834.7	
197.42	3961.5	
197.63	3485.6	
197.84	4463.2	
198.06	5059.2	
198.27	3213.9	
198.48	4238.6	
198.7	4728.1	
198.91	4935.6	
199.13	3534.8	
199.34	3548.4	
199.55	5339.1	
199.77	4304.1	
199.98	3111.5	
200.19	3532.1	
200.41	4777.9	
200.62	4604.5	
200.83	3638.6	
201.05	3876.1	
201.26	4886.5	
201.47	4657.8	
201.69	3161.4	
201.9	3059.7	
202.11	4897.4	
202.33	5699.5	
202.54	3322.5	
202.76	3683.6	
202.97	4954.7	
203.18	5044.8	
203.4	3627.6	
203.61	3652.9	
203.82	4994.3	
204.04	4689.2	
204.25	3544.4	
204.46	3545.7	
204.68	4911.7	
204.89	5093.3	
205.1	3450.8	
205.32	2993.4	
205.53	5297.4	
205.74	5400.5	
205.96	2625.5	
206.17	3581.9	
206.38	5214.1	
206.6	5341.1	
206.81	4031.8	
207.02	3284.9	
207.24	5163.6	
207.45	5469.4	
207.66	3368.2	
207.88	2932	
208.09	5094	
208.3	4911	
208.52	3072.6	
208.73	3404.4	
208.94	4946.5	
209.15	5494.7	
209.37	3366.9	
209.58	3775.8	
209.79	5381.4	
210.01	4739.7	
210.22	2739.5	
210.43	2855.6	
210.65	4900.8	
210.86	5233.9	
211.07	3362.1	
211.29	3093.1	
211.5	5242.1	
211.71	4902.8	
211.93	3108.1	
212.14	3112.9	
212.35	4890.5	
212.56	5021.6	
212.78	3523.2	
212.99	2930	
213.2	5618.9	
213.42	4735.6	
213.63	3151.8	
213.84	3401	
214.06	4423.6	
214.27	4535.6	
214.48	3333.4	
214.69	3556	
214.91	5498.1	
215.12	5515.2	
215.33	3575.8	
215.55	3904.8	
215.76	5901.6	
215.97	5176.6	
216.18	3443.3	
216.4	3404.4	
216.61	4669.4	
216.82	5288.5	
217.04	3143.6	
217.25	3258.3	
217.46	5376.6	
217.67	5223.7	
217.89	2829.6	
218.1	2936.8	
218.31	4936.3	
218.53	5094	
218.74	3280.8	
218.95	3171.6	
219.16	4904.2	
219.38	5647.6	
219.59	3171.6	
219.8	3741	
220.01	6122.7	
220.23	5006.6	
220.44	4072	
220.65	3082.2	
220.87	5014.1	
221.08	5468.8	
221.29	2955.9	
221.5	3790.1	
221.72	6492.1	
221.93	4717.2	
222.14	3519.1	
222.35	4107.5	
222.57	4937	
222.78	5298.8	
222.99	3377.8	
223.2	3590.8	
223.42	5173.2	
223.63	5271.5	
223.84	2610.5	
224.05	2658.9	
224.27	6126.2	
224.48	5694	
224.69	4113	
224.9	3562.1	
225.12	5096.7	
225.33	4913.8	
225.54	2911.5	
225.75	3186	
225.97	4556.7	
226.18	4857.1	
226.39	3369.6	
226.6	3201	
226.82	4773.8	
227.03	4606.6	
227.24	3469.3	
227.45	2957.3	
227.67	5257.8	
227.88	5661.3	
228.09	3913.7	
228.3	3938.9	
228.52	5251.7	
228.73	4894	
228.94	3273.3	
229.15	2939.5	
229.36	4844.8	
229.58	4851	
229.79	3368.9	
230	3865.2	
230.21	5787.6	
230.43	4958.8	
230.64	3483.6	
230.85	3590.1	
231.06	5384.8	
231.28	5283.8	
231.49	2915.6	
231.7	3448.8	
231.91	5182	
232.12	4906.3	
232.34	3058.3	
232.55	3403	
232.76	5436	
232.97	5079	
233.18	3111.5	
233.4	3497.9	
233.61	5111	
233.82	4706.2	
234.03	3265.8	
234.25	3210.5	
234.46	6694.8	
234.67	4980	
234.88	3588	
235.09	3151.8	
235.31	5148.6	
235.52	4860.5	
235.73	3496.6	
235.94	2982.5	
236.15	4728.8	
236.37	5874.9	
236.58	3099.9	
236.79	3336.8	
237	5151.3	
237.21	4468.7	
237.43	3586.7	
237.64	2866.5	
237.85	8407.6	
238.06	4581.3	
238.27	3617.4	
238.48	2960.7	
238.7	5241.4	
238.91	4810	
239.12	3332.7	
239.33	3517.7	
239.54	4606.6	
239.76	4878.9	
239.97	3388	
240.18	3388.7	
240.39	5965.7	
240.6	5117.9	
240.82	3500.7	
241.03	2938.2	
241.24	4939	
241.45	5592.3	
241.66	3136.8	
241.87	3643.3	
242.09	5535.7	
242.3	5761.6	
242.51	3679.5	
242.72	3390.8	
242.93	5289.2	
243.14	4872.8	
243.36	3906.8	
243.57	4134.2	
243.78	5657.2	
243.99	5169.1	
244.2	3419.4	
244.41	3054.2	
244.63	4519.2	
244.84	5180.7	
245.05	3622.9	
245.26	3368.9	
245.47	5206.6	
245.68	5327.4	
245.9	4360.8	
246.11	3512.9	
246.32	4793.6	
246.53	5166.3	
246.74	5317.9	
246.95	2913.6	
247.16	4592.2	
247.38	4929.5	
247.59	2890.4	
247.8	3393.5	
248.01	4639.3	
248.22	4893.3	
248.43	3123.2	
248.64	3304.1	
248.86	4494.6	
249.07	4762.9	
249.28	3037.1	
249.49	3454.9	
249.7	5401.2	
249.91	5463.3	
250.12	2830.3	
250.34	2896.5	
250.55	5076.9	
250.76	4926	
250.97	3515.7	
251.18	3501.3	
251.39	5474.9	
251.6	5063.9	
251.81	3569.6	
252.03	3508.2	
252.24	4750.6	
252.45	5349.3	
252.66	2960.7	
252.87	3725.9	
253.08	4934.2	
253.29	6219.7	
253.5	2955.9	
253.72	4065.2	
253.93	4827.1	
254.14	5761.6	
254.35	3255.6	
254.56	3282.2	
254.77	5089.2	
254.98	4613.4	
255.19	3200.3	
255.41	4001.7	
255.62	5057.8	
255.83	5473.5	
256.04	3611.9	
256.25	3461.1	
256.46	5898.1	
256.67	4697.4	
256.88	3493.8	
257.09	3801.7	
257.31	4610.7	
257.52	4658.4	
257.73	4342.4	
257.94	3251.5	
258.15	4779.3	
258.36	4894	
258.57	3932.8	
258.78	2663.7	
258.99	5350.7	
259.2	4766.3	
259.41	3263.8	
259.63	3338.2	
259.84	5648.3	
260.05	5859.9	
260.26	4108.2	
260.47	3173.7	
260.68	5358.2	
260.89	4810.7	
261.1	3857	
261.31	3106.1	
261.52	5460.6	
261.73	5763.7	
261.95	4118.5	
262.16	3626.3	
262.37	5487.9	
262.58	5599.8	
262.79	4050.2	
263	3334.1	
263.21	4924	
263.42	4775.9	
263.63	3343	
263.84	3276.1	
264.05	5353.4	
264.26	5681.7	
264.47	3983.3	
264.69	3603.7	
264.9	5530.2	
265.11	5101.5	
265.32	3131.3	
265.53	3220.1	
265.74	5038.7	
265.95	4440	
266.16	3416	
266.37	3815.4	
266.58	5083.7	
266.79	4837.3	
267	3163.4	
267.21	3033	
267.42	4610	
267.63	4875.5	
267.84	3360.7	
268.06	2918.4	
268.27	5322.7	
268.48	5479	
268.69	3308.2	
268.9	3857.7	
269.11	5500.8	
269.32	4501.4	
269.53	3361.4	
269.74	3147	
269.95	5131.5	
270.16	4455.7	
270.37	3411.2	
270.58	3872	
270.79	4814.8	
271	5309.7	
271.21	3585.3	
271.42	3412.6	
271.63	5083.1	
271.84	4650.3	
272.05	2768.9	
272.26	3057.6	
272.47	4977.2	
272.68	5063.9	
272.89	3284.9	
273.11	3682.9	
273.32	4712.4	
273.53	5715.2	
273.74	3622.9	
273.95	3538.2	
274.16	5474.2	
274.37	4884.4	
274.58	3717.7	
274.79	2976.4	
275	5101.5	
275.21	5490.6	
275.42	4341.7	
275.63	3724.6	
275.84	5175.9	
276.05	6350.1	
276.26	3559.4	
276.47	3323.9	
276.68	4827.1	
276.89	5783.5	
277.1	3801	
277.31	3025.5	
277.52	5118.6	
277.73	5337.7	
277.94	2947.7	
278.15	3281.5	
278.36	5138.4	
278.57	4652.3	
278.78	3259.7	
278.99	3666.5	
279.2	4682.3	
279.41	4612.7	
279.62	4225	
279.83	3076	
280.04	5935.7	
280.25	4579.9	
280.46	4177.2	
280.67	3401.7	
280.88	4619.5	
281.09	5459.9	
281.3	3581.2	
281.51	4392.9	
281.72	4709	
281.93	5347.9	
282.14	3110.9	
282.35	3469.9	
282.56	5350.7	
282.77	5278.3	
282.98	3310.2	
283.19	3938.9	
283.4	6445	
283.61	4891.9	
283.82	3051.5	
284.03	4104.1	
284.24	5094	
284.45	5399.1	
284.66	4231.8	
284.87	3962.1	
285.08	5408.7	
285.29	5534.3	
285.5	2919.7	
285.71	3302	
285.92	5450.3	
286.12	5979.4	
286.33	4095.9	
286.54	3308.8	
286.75	5345.2	
286.96	4810	
287.17	3145.7	
287.38	3981.3	
287.59	4695.3	
287.8	4655	
288.01	3323.9	
288.22	3735.5	
288.43	5300.1	
288.64	4497.3	
288.85	3843.4	
289.06	3723.2	
289.27	5294	
289.48	5644.9	
289.69	4172.4	
289.9	3772.4	
290.11	5515.9	
290.32	4681	
290.53	3908.2	
290.74	3596.9	
290.94	5271.5	
291.15	5336.3	
291.36	3161.4	
291.57	3741	
291.78	4775.2	
291.99	4438.6	
292.2	3130	
292.41	3675.4	
292.62	5387.5	
292.83	5168.4	
293.04	4419.5	
293.25	3121.8	
293.46	4811.4	
293.67	5382.1	
293.88	3158	
294.09	3091.8	
294.29	4592.9	
294.5	5040.1	
294.71	3468.6	
294.92	3254.9	
295.13	4803.9	
295.34	5828.5	
295.55	2914.3	
295.76	2856.9	
295.97	5300.8	
296.18	5894.1	
296.39	3023.5	
296.6	3213.9	
296.81	4984.1	
297.01	5321.3	
297.22	3347.7	
297.43	3223.5	
297.64	4709	
297.85	4624.3	
298.06	2731.3	
298.27	2883.5	
298.48	4915.1	
298.69	4692.6	
298.9	3480.2	
299.11	3130	
299.31	4558.8	
299.52	4628.4	
299.73	3734.1	
299.94	3591.5	
300.15	4975.2	
300.36	4621.6	
300.57	3598.3	
300.78	3556.6	
300.99	4842.8	
301.2	5092.6	
301.4	3189.4	
301.61	3424.2	
301.82	5224.4	
302.03	5290.6	
302.24	3801	
302.45	3079.5	
302.66	5160.2	
302.87	5526.1	
303.08	3197.6	
303.29	4232.5	
303.49	4760.8	
303.7	4930.1	
303.91	2886.3	
304.12	4029	
304.33	4547.9	
304.54	5098.8	
304.75	3214.6	
304.96	3078.1	
305.16	5201.8	
305.37	5831.2	
305.58	2818	
305.79	2898.6	
306	5199.8	
306.21	4411.3	
306.42	3269.2	
306.63	4765.6	
306.83	4810.7	
307.04	5382.1	
307.25	3514.3	
307.46	3497.9	
307.67	4351.3	
307.88	5238.7	
308.09	3134.8	
308.29	3227.6	
308.5	5003.2	
308.71	5424.4	
308.92	3370.3	
309.13	3115	
309.34	4841.4	
309.55	4904.9	
309.75	3879.5	
309.96	3614.7	
310.17	5298.1	
310.38	4678.2	
310.59	3738.2	
310.8	3055.6	
311.01	4806.6	
311.21	4819.6	
311.42	3079.5	
311.63	3195.5	
311.84	4784.7	
312.05	5029.8	
312.26	3536.8	
312.46	3858.4	
312.67	4803.2	
312.88	4549.2	
313.09	3086.3	
313.3	3032.4	
313.51	5627.1	
313.71	5904.3	
313.92	3123.2	
314.13	3316.3	
314.34	5129.5	
314.55	4840	
314.76	3914.4	
314.96	3455.6	
315.17	5117.9	
315.38	5335.6	
315.59	3116.3	
315.8	3010.5	
316.01	5617.6	
316.21	5660.6	
316.42	3021.4	
316.63	3390.8	
316.84	4820.9	
317.05	5582.8	
317.26	3610.6	
317.46	3347.7	
317.67	4900.8	
317.88	5292	
318.09	3895.2	
318.3	2891.7	
318.5	4772.4	
318.71	5223.7	
318.92	4878.3	
319.13	3605.1	
319.34	5343.2	
319.54	5418.9	
319.75	2907.4	
319.96	2749.7	
320.17	5180.7	
320.38	5439.4	
320.58	2880.8	
320.79	3377.1	
321	5472.9	
321.21	5436.7	
321.42	3418.7	
321.62	2824.1	
321.83	4644.8	
322.04	4935.6	
322.25	3251.5	
322.46	3143.6	
322.66	4988.9	
322.87	5224.4	
323.08	3775.1	
323.29	3043.3	
323.5	5798.5	
323.7	4534.9	
323.91	4165.6	
324.12	3738.2	
324.33	5029.8	
324.53	5184.8	
324.74	3606.5	
324.95	3794.9	
325.16	4461.8	
325.37	4826.4	
325.57	3132.7	
325.78	3192.8	
325.99	5018.9	
326.2	4527.4	
326.4	4344.4	
326.61	2917	
326.82	4926	
327.03	5053	
327.24	4311	
327.44	3947.8	
327.65	5199.8	
327.86	4276.8	
328.07	3586.7	
328.27	3033	
328.48	5560.9	
328.69	4617.5	
328.9	4371	
329.1	3270.6	
329.31	4868.7	
329.52	5558.2	
329.73	3125.9	
329.93	3426.9	
330.14	4975.2	
330.35	5154.1	
330.56	4968.4	
330.76	3768.9	
330.97	4790.2	
331.18	5045.5	
331.39	3459.7	
331.59	2828.9	
331.8	5451.7	
332.01	5506.3	
332.22	3172.3	
332.42	3571	
332.63	5062.6	
332.84	4679.6	
333.05	3465.2	
333.25	3191.4	
333.46	4746.5	
333.67	4954	
333.88	3252.2	
334.08	3561.4	
334.29	6361.7	
334.5	5474.9	
334.7	3028.3	
334.91	4327.4	
335.12	4569	
335.33	5197.1	
335.53	3465.8	
335.74	4902.8	
335.95	4829.1	
336.16	4607.2	
336.36	3356.6	
336.57	3889.8	
336.78	4592.9	
336.98	5400.5	
337.19	4170.3	
337.4	3366.2	
337.61	5834.7	
337.81	4585.4	
338.02	3186.6	
338.23	3995.6	
338.43	5560.9	
338.64	4626.4	
338.85	3124.5	
339.05	4041.3	
339.26	5711.1	
339.47	4533.5	
339.68	3170.9	
339.88	4485.7	
340.09	5208.7	
340.3	5298.8	
340.5	3599.6	
340.71	2871.3	
340.92	4592.9	
341.13	5521.3	
341.33	3021.4	
341.54	3657.7	
341.75	5173.9	
341.95	4825	
342.16	3460.4	
342.37	3738.9	
342.57	4574.5	
342.78	4925.4	
342.99	3816	
343.19	2848.7	
343.4	5265.3	
343.61	5176.6	
343.81	3306.8	
344.02	3046	
344.23	5321.3	
344.43	5558.2	
344.64	3805.8	
344.85	3758	
345.06	5186.8	
345.26	5409.4	
345.47	3599.6	
345.68	4110.3	
345.88	4493.9	
346.09	5327.4	
346.3	3608.5	
346.5	2794.8	
346.71	4921.3	
346.92	4697.4	
347.12	2912.9	
347.33	3595.6	
347.54	5408.7	
347.74	5770.5	
347.95	3488.4	
348.16	2740.9	
348.36	4792.9	
348.57	4676.2	
348.78	3592.1	
348.98	3771.7	
349.19	4932.9	
349.39	4526	
349.6	2940.9	
349.81	3185.3	
350.01	5183.4	
350.22	4709.6	
350.43	3483.6	
350.63	4122.6	
350.84	4977.9	
351.05	4728.8	
351.25	3173	
351.46	2881.5	
351.67	5381.4	
351.87	4696.7	
352.08	3347.1	
352.29	3740.3	
352.49	5343.2	
352.7	5066	
352.9	3044	
353.11	3779.2	
353.32	5829.2	
353.52	4840	
353.73	3046	
353.94	3745.1	
354.14	5172.5	
354.35	4996.4	
354.55	3137.5	
354.76	3396.2	
354.97	5104.2	
355.17	4900.8	
355.38	2951.1	
355.59	4003.8	
355.79	4693.3	
356	5000.5	
356.2	3424.9	
356.41	3035.1	
356.62	4466.6	
356.82	4879.6	
357.03	3675.4	
357.24	3299.3	
357.44	4689.8	
357.65	4789.5	
357.85	4335.5	
358.06	3466.5	
358.27	4481.6	
358.47	4625.7	
358.68	2966.8	
358.88	3599	
359.09	5139.7	
359.3	5426.4	
359.5	4189.5	
359.71	3719.1	
359.91	5809.4	
360.12	5236.7	
360.33	3612.6	
360.53	4034.5	
360.74	4737	
360.94	4730.8	
361.15	3801.7	
361.36	3164.1	
361.56	5358.2	
361.77	4930.1	
361.97	4221.5	
362.18	3369.6	
362.38	5380.7	
362.59	4633.2	
362.8	3108.8	
363	3007.1	
363.21	4470.7	
363.41	4915.1	
363.62	3575.1	
363.83	4337.6	
364.03	5148.6	
364.24	5840.8	
364.44	4448.9	
364.65	4408.6	
364.85	4868.7	
365.06	4631.8	
365.27	3256.3	
365.47	3353.2	
365.68	5640.1	
365.88	4820.9	
366.09	3575.8	
366.29	3334.1	
366.5	5054.4	
366.71	5455.1	
366.91	4403.8	
367.12	3729.4	
367.32	5900.9	
367.53	5292.6	
367.73	3796.3	
367.94	4558.8	
368.14	5264.6	
368.35	5962.3	
368.56	3732.1	
368.76	3282.9	
368.97	5403.9	
369.17	6655.2	
369.38	3275.4	
369.58	3505.4	
369.79	4579.3	
369.99	5627.8	
370.2	4407.9	
370.4	3595.6	
370.61	5114.5	
370.82	6056.5	
371.02	3554.6	
371.23	2981.2	
371.43	4545.8	
371.64	5732.9	
371.84	3510.9	
372.05	4457.7	
372.25	6647	
372.46	5317.9	
372.66	3546.4	
372.87	3528.7	
373.07	5365.7	
373.28	6700.3	
373.48	4327.4	
373.69	4089.1	
373.9	4979.3	
374.1	5018.9	
374.31	4273.4	
374.51	3926	
374.72	5600.5	
374.92	4701.5	
375.13	4453.6	
375.33	3745.1	
375.54	5298.1	
375.74	4847.5	
375.95	3854.3	
376.15	4773.8	
376.36	5340.4	
376.56	5208.7	
376.77	3921.2	
376.97	4249.5	
377.18	6210.1	
377.38	5403.9	
377.59	4469.4	
377.79	3489.7	
378	5225.1	
378.2	5547.9	
378.41	3566.9	
378.61	3467.2	
378.82	5608.7	
379.02	4842.1	
379.23	3704.8	
379.43	4570.4	
379.64	5757.5	
379.84	5365.7	
380.05	3569.6	
380.25	3432.4	
380.46	5467.4	
380.66	5159.5	
380.87	4588.8	
381.07	4883	
381.28	5967.1	
381.48	5477.6	
381.69	3526.6	
381.89	3581.2	
382.1	4580.6	
382.3	5548.6	
382.51	4444.1	
382.71	5170.4	
382.91	5457.8	
383.12	5879.7	
383.32	3825.6	
383.53	3979.2	
383.73	5278.3	
383.94	5225.7	
384.14	4001	
384.35	3275.4	
384.55	5083.7	
384.76	5411.4	
384.96	3883.6	
385.17	4128	
385.37	5527.5	
385.58	4926.7	
385.78	4111	
385.98	3214.6	
386.19	4993.6	
386.39	5325.4	
386.6	3647.4	
386.8	3871.3	
387.01	5436.7	
387.21	5487.9	
387.42	4188.1	
387.62	4666	
387.83	4942.4	
388.03	5353.4	
388.23	3906.8	
388.44	4515.1	
388.64	4597.7	
388.85	4739	
389.05	4233.2	
389.26	4631.1	
389.46	6160.3	
389.67	5791.7	
389.87	4162.2	
390.07	4203.1	
390.28	5135.6	
390.48	4848.9	
390.69	3592.1	
390.89	3824.9	
391.1	4947.9	
391.3	5726.1	
391.5	4745.8	
391.71	5281	
391.91	5524.1	
392.12	6284.5	
392.32	4830.5	
392.53	4172.4	
392.73	5111	
392.93	5244.2	
393.14	3986	
393.34	4685.1	
393.55	5635.3	
393.75	5169.1	
393.95	3932.1	
394.16	3871.3	
394.36	5051.7	
394.57	5575.3	
394.77	3516.4	
394.98	3851.5	
395.18	4956.1	
395.38	5206.6	
395.59	4536.3	
395.79	3683.6	
396	5090.6	
396.2	5464.7	
396.4	4371.7	
396.61	4359.4	
396.81	5616.9	
397.02	5033.2	
397.22	4631.1	
397.42	4660.5	
397.63	5678.3	
397.83	5030.5	
398.04	3748.5	
398.24	4145.1	
398.44	5447.6	
398.65	4669.4	
398.85	3624.2	
399.05	3697.9	
399.26	5032.5	
399.46	6406	
399.67	3973.1	
399.87	3741	
400.07	5337	
400.28	5584.8	
400.48	3828.3	
400.69	4697.4	
400.89	5795.1	
401.09	6114.6	
401.3	3781.2	
401.5	4626.4	
401.7	6283.2	
401.91	6429.9	
402.11	4078.2	
402.32	4203.8	
402.52	5854.5	
402.72	5776.6	
402.93	4420.2	
403.13	3410.6	
403.33	6423.8	
403.54	5274.2	
403.74	4252.3	
403.94	4859.1	
404.15	5431.2	
404.35	6336.4	
404.56	3991.5	
404.76	5397.1	
404.96	5847	
405.17	5575.9	
405.37	5011.4	
405.57	4364.2	
405.78	5794.4	
405.98	5276.3	
406.18	3993.5	
406.39	4678.9	
406.59	5801.2	
406.79	5416.9	
407	3825.6	
407.2	3924.6	
407.4	5906.3	
407.61	5937.7	
407.81	3947.8	
408.01	5535.7	
408.22	4895.3	
408.42	6483.9	
408.62	4800.4	
408.83	4289.1	
409.03	5467.4	
409.23	5335.6	
409.44	4372.4	
409.64	4627	
409.84	6227.9	
410.05	6138.4	
410.25	4639.3	
410.45	4417.5	
410.66	5767.1	
410.86	7757	
411.06	4777.2	
411.27	4616.8	
411.47	7588.4	
411.67	5962.3	
411.88	4831.2	
412.08	5036.6	
412.28	6436.8	
412.49	6821.8	
412.69	4679.6	
412.89	4675.5	
413.09	6688.7	
413.3	6613.6	
413.5	4802.5	
413.7	4474.1	
413.91	6072.9	
414.11	6700.3	
414.31	4666	
414.52	4945.2	
414.72	6425.2	
414.92	6437.4	
415.12	4637.3	
415.33	5109.7	
415.53	6754.9	
415.73	6890.7	
415.94	5341.8	
416.14	4852.3	
416.34	5940.5	
416.55	5780.7	
416.75	5902.9	
416.95	5489.2	
417.15	6756.9	
417.36	7352.2	
417.56	6078.4	
417.76	5281.7	
417.97	7037.5	
418.17	6762.4	
418.37	4934.9	
418.57	5018.9	
418.78	6646.3	
418.98	6318.7	
419.18	5752.1	
419.38	5748	
419.59	6408.8	
419.79	6078.4	
419.99	4928.8	
420.2	5193	
420.4	6903.7	
420.6	6895.5	
420.8	4771.8	
421.01	4781.3	
421.21	6712.6	
421.41	6734.4	
421.61	5176.6	
421.82	4901.5	
422.02	6249	
422.22	7007.5	
422.42	5645.6	
422.63	5340.4	
422.83	6367.8	
423.03	7362.4	
423.23	5310.4	
423.44	4471.4	
423.64	6433.4	
423.84	6146	
424.04	4887.8	
424.25	4610	
424.45	7170.6	
424.65	7081.2	
424.85	4425	
425.06	4931.5	
425.26	7241.6	
425.46	6247.7	
425.66	5300.8	
425.87	5045.5	
426.07	6958.3	
426.27	6818.4	
426.47	5111.7	
426.67	4661.9	
426.88	7273.7	
427.08	6817	
427.28	5433.3	
427.48	4655.7	
427.69	5910.4	
427.89	6450.4	
428.09	5298.1	
428.29	4657.8	
428.5	6932.4	
428.7	6664.1	
428.9	4609.3	
429.1	4945.2	
429.3	6518.7	
429.51	6807.4	
429.71	4833.9	
429.91	5507	
430.11	6858.6	
430.31	6965.8	
430.52	5104.9	
430.72	5390.3	
430.92	7307.2	
431.12	6783.6	
431.32	4859.1	
431.53	5145.9	
431.73	5982.1	
431.93	7370	
432.13	4811.4	
432.33	4717.8	
432.54	6374.6	
432.74	6567.2	
432.94	4629.8	
433.14	5496.1	
433.34	6863.4	
433.55	6475	
433.75	5414.1	
433.95	6861.4	
434.15	6709.8	
434.35	6374	
434.56	4810.7	
434.76	4425	
434.96	6711.2	
435.16	6806.1	
435.36	4706.9	
435.56	5661.3	
435.77	6320	
435.97	6561	
436.17	6209.4	
436.37	5549.3	
436.57	6293.4	
436.78	6325.5	
436.98	6907.1	
437.18	6107.7	
437.38	6920.8	
437.58	6439.5	
437.78	6232	
437.99	5160.2	
438.19	6937.2	
438.39	7681.9	
438.59	5128.8	
438.79	4698	
438.99	7540.6	
439.2	6537.8	
439.4	4743.8	
439.6	4676.2	
439.8	6721.4	
440	7547.4	
440.2	5584.1	
440.4	5655.1	
440.61	7174	
440.81	7477.1	
441.01	4944.5	
441.21	5737	
441.41	7522.2	
441.61	7165.2	
441.81	5991	
442.02	6681.8	
442.22	7959.8	
442.42	7236.2	
442.62	5015.5	
442.82	5078.3	
443.02	7591.8	
443.22	6833.4	
443.43	5436	
443.63	4980	
443.83	6621.8	
444.03	6651.1	
444.23	6057.9	
444.43	5745.2	
444.63	6972	
444.83	7930.4	
445.04	5236	
445.24	6300.9	
445.44	7322.2	
445.64	7352.2	
445.84	5885.2	
446.04	5892.7	
446.24	6796.5	
446.44	7651.9	
446.65	5149.3	
446.85	5551.4	
447.05	7106.5	
447.25	7571.3	
447.45	5664.7	
447.65	5014.8	
447.85	7060	
448.05	6737.1	
448.25	5945.3	
448.46	5721.3	
448.66	7073.7	
448.86	6774.7	
449.06	5020.9	
449.26	5884.5	
449.46	7332.4	
449.66	6586.3	
449.86	5541.8	
450.06	5472.9	
450.26	6664.1	
450.47	7165.2	
450.67	5776	
450.87	6008.1	
451.07	7300.3	
451.27	7071.6	
451.47	5188.9	
451.67	5665.4	
451.87	6866.2	
452.07	7787.1	
452.27	5470.1	
452.47	5417.6	
452.67	7149.5	
452.88	7449.8	
453.08	4865.3	
453.28	6550.8	
453.48	8127	
453.68	6972.7	
453.88	5285.1	
454.08	5588.9	
454.28	7459.4	
454.48	7167.9	
454.68	6025.8	
454.88	6349.4	
455.08	7523.6	
455.28	7304.4	
455.48	5304.2	
455.68	5868.1	
455.89	7974.8	
456.09	7610.3	
456.29	5598.5	
456.49	5639.4	
456.69	7864.9	
456.89	7215.7	
457.09	6061.3	
457.29	6367.1	
457.49	7554.3	
457.69	7649.8	
457.89	6000.5	
458.09	5479	
458.29	7310.6	
458.49	7941.3	
458.69	6344.6	
458.89	5836.7	
459.09	8206.9	
459.29	8296.3	
459.49	5959.6	
459.69	6595.8	
459.9	7862.2	
460.1	7424.6	
460.3	5850.4	
460.5	5687.9	
460.7	7807.5	
460.9	7506.5	
461.1	5453.7	
461.3	6479.1	
461.5	8372.8	
461.7	8043.7	
461.9	5894.7	
462.1	6150.1	
462.3	7640.3	
462.5	8156.4	
462.7	5924.1	
462.9	6005.3	
463.1	8966	
463.3	8729.1	
463.5	6146	
463.7	6974.7	
463.9	7946.1	
464.1	8216.5	
464.3	6391.7	
464.5	6505.7	
464.7	8394.6	
464.9	8226	
465.1	7636.2	
465.3	6849.1	
465.5	8700.5	
465.7	8800.8	
465.9	7082.6	
466.1	6823.8	
466.3	8639.7	
466.5	8512.7	
466.7	7675.1	
466.9	6792.4	
467.1	8557.1	
467.3	9196.7	
467.5	7722.9	
467.7	6731	
467.9	9446.6	
468.1	10096	
468.3	7393.2	
468.5	7655.3	
468.7	8479.3	
468.9	8436.3	
469.1	7043	
469.3	7714	
469.5	10139	
469.7	8223.3	
469.9	7374.1	
470.1	6748.1	
470.3	8658.1	
470.5	8618.5	
470.7	7912.7	
470.9	6868.9	
471.1	8413.7	
471.3	8804.9	
471.5	6725.5	
471.69	8355	
471.89	8327	
472.09	7879.2	
472.29	7486.7	
472.49	7682.6	
472.69	8127	
472.89	8712.1	
473.09	6803.4	
473.29	6855.2	
473.49	8239	
473.69	8326.4	
473.89	7530.4	
474.09	6855.2	
474.29	9350.3	
474.49	9032.2	
474.69	7633.5	
474.89	7149.5	
475.09	8424	
475.29	8388.5	
475.49	6531	
475.69	6843.6	
475.88	9637.7	
476.08	8682.7	
476.28	6559	
476.48	6830.7	
476.68	9052.7	
476.88	8803.5	
477.08	6827.2	
477.28	7084.6	
477.48	8449.9	
477.68	8911.4	
477.88	6707.1	
478.08	6966.5	
478.28	9290.3	
478.48	8526.4	
478.67	6994.5	
478.87	6388.3	
479.07	9093	
479.27	8595.3	
479.47	7101.7	
479.67	7182.2	
479.87	9033.6	
480.07	9449.3	
480.27	6632.7	
480.47	7890.8	
480.67	8647.9	
480.87	9198.1	
481.06	6815.6	
481.26	7561.1	
481.46	8652.7	
481.66	8572.8	
481.86	7234.1	
482.06	8024.6	
482.26	8460.2	
482.46	9183.8	
482.66	7190.4	
482.86	6789	
483.05	8846.5	
483.25	8273.1	
483.45	9273.2	
483.65	7163.8	
483.85	8403.5	
484.05	8731.2	
484.25	7653.9	
484.45	7965.9	
484.65	9381.1	
484.84	9506.7	
485.04	7172	
485.24	7147.4	
485.44	9671.2	
485.64	8288.8	
485.84	6670.9	
486.04	7728.4	
486.24	8619.9	
486.44	8932.6	
486.63	6601.3	
486.83	7374.1	
487.03	8626.7	
487.23	8757.8	
487.43	6797.2	
487.63	8735.3	
487.83	8928.5	
488.02	9667.1	
488.22	7649.8	
488.42	8154.3	
488.62	9635.7	
488.82	8804.9	
489.02	7381.6	
489.22	7441.6	
489.41	9501.2	
489.61	9304.6	
489.81	7229.3	
490.01	7217.7	
490.21	9418.6	
490.41	10014	
490.61	7248.4	
490.8	7375.4	
491	9144.2	
491.2	8561.9	
491.4	7874.4	
491.6	7089.4	
491.8	9112.8	
491.99	9172.2	
492.19	6971.3	
492.39	7205.4	
492.59	9488.2	
492.79	9525.1	
492.99	7896.3	
493.18	7191.1	
493.38	9592.7	
493.58	10309	
493.78	7746.1	
493.98	7589.8	
494.18	9478.7	
494.37	9096.4	
494.57	8115.4	
494.77	7997.3	
494.97	9702.6	
495.17	9957.9	
495.37	7651.2	
495.56	7971.4	
495.76	10094	
495.96	9881.4	
496.16	8764.6	
496.36	7977.5	
496.55	10137	
496.75	9749.7	
496.95	8483.4	
497.15	8313.4	
497.35	10142	
497.54	10056	
497.74	8170.7	
497.94	9473.2	
498.14	10623	
498.34	10420	
498.53	7858.7	
498.73	8571.4	
498.93	9630.2	
499.13	10135	
499.33	8303.8	
499.52	8880.7	
499.72	10294	
499.92	10368	
500.12	8128.4	
500.32	8340	
500.51	10355	
500.71	10264	
500.91	9140.1	
501.11	8705.9	
501.31	10370	
501.5	10711	
501.7	9349.7	
501.9	8538.7	
502.1	10208	
502.29	10531	
502.49	8978.3	
502.69	9120.3	
502.89	10365	
503.09	10460	
503.28	8072.4	
503.48	8204.2	
503.68	9727.9	
503.88	9799.5	
504.07	8911.4	
504.27	8457.4	
504.47	10112	
504.67	10214	
504.86	8874.5	
505.06	8578.9	
505.26	9938.8	
505.46	11368	
505.65	8553	
505.85	8723	
506.05	9839.8	
506.25	10217	
506.44	7913.4	
506.64	8644.5	
506.84	9726.5	
507.04	10379	
507.23	8091.5	
507.43	8553.7	
507.63	11161	
507.83	9765.4	
508.02	8603.5	
508.22	8255.4	
508.42	11475	
508.62	9722.4	
508.81	8373.5	
509.01	8983.8	
509.21	9546.3	
509.4	9815.2	
509.6	8581.7	
509.8	8107.9	
510	9794.1	
510.19	10931	
510.39	8129.1	
510.59	8171.4	
510.79	9593.4	
510.98	10808	
511.18	8274.5	
511.38	8387.8	
511.57	10449	
511.77	10259	
511.97	8875.9	
512.17	8234.2	
512.36	10423	
512.56	10305	
512.76	8129.1	
512.95	7994.6	
513.15	10518	
513.35	9261.6	
513.55	8843.1	
513.74	8112.7	
513.94	10430	
514.14	9884.2	
514.33	8978.3	
514.53	8782.4	
514.73	9923.8	
514.92	10075	
515.12	8383	
515.32	8193.2	
515.51	10155	
515.71	10508	
515.91	9673.9	
516.11	8304.5	
516.3	11626	
516.5	9936.7	
516.7	8819.2	
516.89	9287.5	
517.09	9964.1	
517.29	9983.8	
517.48	9056.1	
517.68	8601.5	
517.88	9715.6	
518.07	10244	
518.27	8983.1	
518.47	8256	
518.66	10689	
518.86	9639.1	
519.06	8041	
519.25	8426	
519.45	9969.5	
519.65	11289	
519.84	8974.9	
520.04	9574.9	
520.24	11538	
520.43	10568	
520.63	8827.4	
520.83	8615.1	
521.02	9996.8	
521.22	10521	
521.42	9080	
521.61	9385.2	
521.81	10043	
522.01	10187	
522.2	8783.7	
522.4	8652.7	
522.6	10565	
522.79	9596.8	
522.99	8752.3	
523.18	8275.2	
523.38	10393	
523.58	10444	
523.77	9873.9	
523.97	8376.9	
524.17	11983	
524.36	11374	
524.56	9578.3	
524.76	9268.4	
524.95	10598	
525.15	10427	
525.34	9260.9	
525.54	9280	
525.74	11077	
525.93	10253	
526.13	10204	
526.33	9363.3	
526.52	11390	
526.72	11043	
526.91	10416	
527.11	9796.8	
527.31	11522	
527.5	11834	
527.7	9704.6	
527.89	8892.3	
528.09	10690	
528.29	11075	
528.48	10015	
528.68	9680.1	
528.87	11422	
529.07	11507	
529.27	9796.1	
529.46	9581.1	
529.66	11312	
529.85	11769	
530.05	9338.1	
530.25	10047	
530.44	12572	
530.64	11359	
530.83	9704	
531.03	9973.6	
531.23	11617	
531.42	11452	
531.62	10429	
531.81	9849.4	
532.01	11757	
532.21	12078	
532.4	9704.6	
532.6	9975.7	
532.79	12626	
532.99	11950	
533.18	10217	
533.38	10956	
533.58	11593	
533.77	12295	
533.97	10297	
534.16	10904	
534.36	12564	
534.55	11750	
534.75	10998	
534.95	10363	
535.14	12624	
535.34	11845	
535.53	10066	
535.73	11786	
535.92	13131	
536.12	12023	
536.31	10221	
536.51	11143	
536.71	12265	
536.9	11856	
537.1	10270	
537.29	10533	
537.49	12597	
537.68	11716	
537.88	10799	
538.07	10063	
538.27	11971	
538.46	12951	
538.66	10050	
538.86	10474	
539.05	12099	
539.25	12600	
539.44	10811	
539.64	10345	
539.83	12023	
540.03	12878	
540.22	10391	
540.42	10304	
540.61	12198	
540.81	12325	
541	10710	
541.2	11260	
541.39	11802	
541.59	12054	
541.78	10879	
541.98	10247	
542.18	11517	
542.37	11496	
542.57	10644	
542.76	11099	
542.96	11654	
543.15	12061	
543.35	10699	
543.54	10025	
543.74	12243	
543.93	12049	
544.13	10402	
544.32	11361	
544.52	12115	
544.71	11439	
544.91	9720.3	
545.1	10621	
545.3	11643	
545.49	12065	
545.69	9649.3	
545.88	10101	
546.08	13034	
546.27	12590	
546.47	10570	
546.66	9927.2	
546.86	12259	
547.05	12780	
547.24	10155	
547.44	10030	
547.63	11280	
547.83	12401	
548.02	10503	
548.22	10592	
548.41	11279	
548.61	12265	
548.8	10004	
549	10008	
549.19	11760	
549.39	12193	
549.58	9749	
549.78	10294	
549.97	12134	
550.17	11710	
550.36	10836	
550.55	11694	
550.75	11671	
550.94	12516	
551.14	9865.7	
551.33	10223	
551.53	11128	
551.72	12001	
551.92	10148	
552.11	10208	
552.31	12052	
552.5	11980	
552.69	11523	
552.89	9739.5	
553.08	12033	
553.28	11716	
553.47	10146	
553.67	10968	
553.86	12525	
554.06	11044	
554.25	9257.5	
554.44	9828.9	
554.64	13060	
554.83	12711	
555.03	9893.1	
555.22	10176	
555.42	12134	
555.61	11818	
555.8	10056	
556	10226	
556.19	11085	
556.39	12082	
556.58	9962.7	
556.78	10014	
556.97	11710	
557.16	11477	
557.36	11094	
557.55	9821.4	
557.75	10893	
557.94	12594	
558.13	9771.5	
558.33	9598.1	
558.52	12250	
558.72	11211	
558.91	9862.3	
559.1	10008	
559.3	11135	
559.49	10843	
559.69	9449.3	
559.88	10118	
560.07	11637	
560.27	12147	
560.46	10320	
560.66	10403	
560.85	11584	
561.04	10903	
561.24	9641.2	
561.43	9811.8	
561.63	11162	
561.82	11316	
562.01	10817	
562.21	10101	
562.4	11645	
562.59	12470	
562.79	10102	
562.98	9749	
563.18	11586	
563.37	12862	
563.56	10378	
563.76	9812.5	
563.95	11330	
564.14	11231	
564.34	10137	
564.53	9727.9	
564.73	11742	
564.92	11996	
565.11	10204	
565.31	9736.7	
565.5	12288	
565.69	11368	
565.89	9950.4	
566.08	10188	
566.27	12159	
566.47	12507	
566.66	10739	
566.85	9712.2	
567.05	11976	
567.24	11419	
567.44	9989.3	
567.63	11109	
567.82	12226	
568.02	11920	
568.21	10081	
568.4	10319	
568.6	11788	
568.79	11901	
568.98	9956.5	
569.18	10046	
569.37	11929	
569.56	13502	
569.76	10365	
569.95	11198	
570.14	12126	
570.34	12244	
570.53	9903.3	
570.72	10090	
570.91	12627	
571.11	11914	
571.3	10456	
571.49	11080	
571.69	11983	
571.88	11546	
572.07	10934	
572.27	10869	
572.46	11637	
572.65	12675	
572.85	10360	
573.04	10664	
573.23	12727	
573.43	12191	
573.62	10170	
573.81	10643	
574	12161	
574.2	11986	
574.39	10537	
574.58	10677	
574.78	12988	
574.97	12451	
575.16	11045	
575.36	11258	
575.55	12869	
575.74	13003	
575.93	10389	
576.13	11327	
576.32	12340	
576.51	12775	
576.71	10791	
576.9	12030	
577.09	13156	
577.28	12691	
577.48	11169	
577.67	10462	
577.86	12409	
578.05	12754	
578.25	10890	
578.44	10954	
578.63	12489	
578.83	13525	
579.02	10564	
579.21	11788	
579.4	12695	
579.6	12564	
579.79	11150	
579.98	12964	
580.17	13099	
580.37	13274	
580.56	10770	
580.75	11403	
580.94	13396	
581.14	13336	
581.33	11681	
581.52	10961	
581.71	12932	
581.91	13502	
582.1	10720	
582.29	11012	
582.48	12696	
582.68	12678	
582.87	11510	
583.06	11336	
583.25	13098	
583.45	12760	
583.64	11856	
583.83	12514	
584.02	12664	
584.21	13111	
584.41	11845	
584.6	11456	
584.79	12863	
584.98	13397	
585.18	10822	
585.37	10884	
585.56	12458	
585.75	13205	
585.94	11153	
586.14	11740	
586.33	13541	
586.52	12811	
586.71	11483	
586.91	11244	
587.1	12330	
587.29	13161	
587.48	11088	
587.67	10970	
587.87	12929	
588.06	12846	
588.25	12045	
588.44	11510	
588.63	12526	
588.83	13101	
589.02	10941	
589.21	10871	
589.4	12393	
589.59	12243	
589.78	10139	
589.98	10391	
590.17	11784	
590.36	12099	
590.55	9697.8	
590.74	10191	
590.94	13045	
591.13	11853	
591.32	9934.7	
591.51	9578.3	
591.7	12020	
591.89	11687	
592.09	9596.1	
592.28	10112	
592.47	11097	
592.66	12797	
592.85	9838.4	
593.05	10030	
593.24	11664	
593.43	12497	
593.62	10105	
593.81	10461	
594	11737	
594.19	11980	
594.39	9942.2	
594.58	9938.8	
594.77	12038	
594.96	12667	
595.15	9984.5	
595.34	10458	
595.54	11987	
595.73	11357	
595.92	9415.2	
596.11	10212	
596.3	12424	
596.49	11481	
596.68	10108	
596.88	10492	
597.07	12131	
597.26	11198	
597.45	9782.5	
597.64	10681	
597.83	11442	
598.02	12045	
598.22	9673.2	
598.41	10338	
598.6	11815	
598.79	11256	
598.98	9877.4	
599.17	10636	
599.36	11783	
599.55	12847	
599.74	11462	
599.94	11223	
600.13	12243	
600.32	11318	
600.51	9600.9	
600.7	9818	
600.89	12680	
601.08	12861	
601.27	9643.2	
601.47	10487	
601.66	12135	
601.85	12755	
602.04	10170	
602.23	10217	
602.42	11479	
602.61	12002	
602.8	10054	
602.99	9797.5	
603.18	11688	
603.37	11891	
603.57	10320	
603.76	10869	
603.95	12515	
604.14	12184	
604.33	9991.4	
604.52	10126	
604.71	11930	
604.9	11499	
605.09	10701	
605.28	10559	
605.47	12510	
605.66	12132	
605.86	10438	
606.05	10022	
606.24	12435	
606.43	11157	
606.62	10280	
606.81	10882	
607	12304	
607.19	11751	
607.38	9750.4	
607.57	10033	
607.76	11473	
607.95	11017	
608.14	10387	
608.33	10767	
608.52	11403	
608.72	12229	
608.91	9660.3	
609.1	9535.3	
609.29	11475	
609.48	11140	
609.67	10219	
609.86	9742.2	
610.05	11281	
610.24	11440	
610.43	9482.8	
610.62	9224.1	
610.81	12433	
611	12144	
611.19	9688.3	
611.38	10222	
611.57	11770	
611.76	12792	
611.95	9501.9	
612.14	9334.6	
612.33	11544	
612.52	11227	
612.71	9885.5	
612.9	9265.7	
613.09	11057	
613.28	12857	
613.47	9750.4	
613.66	10469	
613.85	11694	
614.04	11220	
614.24	9761.3	
614.43	9127.1	
614.62	11807	
614.81	11679	
615	10144	
615.19	10124	
615.38	11125	
615.57	11524	
615.76	10088	
615.95	11036	
616.14	11987	
616.33	11566	
616.52	10516	
616.71	10615	
616.9	11906	
617.09	11692	
617.28	9885.5	
617.47	10823	
617.66	11122	
617.85	11126	
618.04	10712	
618.22	10198	
618.41	11500	
618.6	12395	
618.79	10180	
618.98	10099	
619.17	12551	
619.36	11258	
619.55	10352	
619.74	10211	
619.93	12032	
620.12	11499	
620.31	10804	
620.5	11001	
620.69	12736	
620.88	13035	
621.07	11459	
621.26	10866	
621.45	12368	
621.64	12415	
621.83	10905	
622.02	10277	
622.21	12501	
622.4	12378	
622.59	11354	
622.78	11230	
622.97	11921	
623.16	12777	
623.35	10962	
623.54	10265	
623.72	12188	
623.91	12306	
624.1	11172	
624.29	10084	
624.48	13211	
624.67	12606	
624.86	11119	
625.05	10393	
625.24	13366	
625.43	12058	
625.62	12415	
625.81	10641	
626	12625	
626.19	12244	
626.38	11172	
626.56	10679	
626.75	12053	
626.94	12771	
627.13	11150	
627.32	10185	
627.51	12635	
627.7	13676	
627.89	10323	
628.08	11254	
628.27	11903	
628.46	12090	
628.65	10460	
628.83	10172	
629.02	12540	
629.21	12016	
629.4	10802	
629.59	11001	
629.78	12013	
629.97	12689	
630.16	11110	
630.35	10613	
630.54	13034	
630.72	12809	
630.91	10589	
631.1	11041	
631.29	12510	
631.48	12520	
631.67	11129	
631.86	10544	
632.05	12231	
632.24	12233	
632.42	10317	
632.61	11071	
632.8	12226	
632.99	11903	
633.18	10938	
633.37	11221	
633.56	12493	
633.75	12282	
633.93	10933	
634.12	10686	
634.31	13071	
634.5	12724	
634.69	10668	
634.88	10998	
635.07	12312	
635.25	12820	
635.44	11437	
635.63	11708	
635.82	12106	
636.01	11662	
636.2	11296	
636.39	11037	
636.57	13003	
636.76	12705	
636.95	10533	
637.14	11657	
637.33	12554	
637.52	13150	
637.7	10291	
637.89	11155	
638.08	12166	
638.27	13262	
638.46	11212	
638.65	11506	
638.83	13207	
639.02	12015	
639.21	11047	
639.4	11551	
639.59	12353	
639.78	12023	
639.96	10385	
640.15	10449	
640.34	12222	
640.53	12309	
640.72	10183	
640.91	10452	
641.09	11712	
641.28	12756	
641.47	10324	
641.66	11130	
641.85	12346	
642.03	12343	
642.22	10755	
642.41	10421	
642.6	11808	
642.79	11219	
642.97	10190	
643.16	10874	
643.35	11652	
643.54	11410	
643.73	10007	
643.91	10746	
644.1	11291	
644.29	11917	
644.48	10101	
644.67	10149	
644.85	11441	
645.04	11718	
645.23	9773.6	
645.42	10046	
645.6	11161	
645.79	12065	
645.98	9693.7	
646.17	8906.6	
646.36	10666	
646.54	11158	
646.73	10150	
646.92	9254.1	
647.11	10910	
647.29	11891	
647.48	9458.9	
647.67	9214.5	
647.86	11945	
648.05	11982	
648.23	9625.5	
648.42	10727	
648.61	11409	
648.8	11346	
648.98	9327.8	
649.17	9542.9	
649.36	10770	
649.55	10530	
649.73	9417.9	
649.92	9957.2	
650.11	10853	
650.3	11166	
650.48	9516.9	
650.67	9225.4	
650.86	11396	
651.05	10450	
651.23	9376.3	
651.42	9318.9	
651.61	10798	
651.79	10684	
651.98	9505.3	
652.17	9203.6	
652.36	11072	
652.54	10369	
652.73	9216.5	
652.92	9164.7	
653.11	11071	
653.29	11219	
653.48	8717.5	
653.67	9404.3	
653.85	10890	
654.04	11772	
654.23	9624.1	
654.42	9146.9	
654.6	10493	
654.79	10954	
654.98	8684.1	
655.16	9125.1	
655.35	9960	
655.54	9788.6	
655.73	8424	
655.91	8329.1	
656.1	10558	
656.29	9634.3	
656.47	7909.3	
656.66	9372.2	
656.85	9951.1	
657.03	10022	
657.22	8615.8	
657.41	8753.7	
657.59	10260	
657.78	10112	
657.97	8473.1	
658.16	9177.6	
658.34	10931	
658.53	11237	
658.72	9836.4	
658.9	10267	
659.09	10544	
659.28	10596	
659.46	9048.6	
659.65	8960.5	
659.84	10239	
660.02	10780	
660.21	8923.7	
660.4	8843.1	
660.58	11095	
660.77	10544	
660.96	9323	
661.14	8549.6	
661.33	11447	
661.52	11421	
661.7	8600.1	
661.89	11572	
662.08	10198	
662.26	9990.7	
662.45	8727.1	
662.64	8804.2	
662.82	10798	
663.01	10215	
663.2	8884.1	
663.38	9441.1	
663.57	10755	
663.75	10575	
663.94	9071.8	
664.13	10008	
664.31	10246	
664.5	10781	
664.69	9390.6	
664.87	9691	
665.06	10096	
665.25	10587	
665.43	9928.6	
665.62	9962	
665.8	10843	
665.99	10230	
666.18	9106.6	
666.36	9204.3	
666.55	10826	
666.74	10763	
666.92	8703.9	
667.11	10074	
667.29	10396	
667.48	10790	
667.67	9692.4	
667.85	8974.2	
668.04	10265	
668.22	10301	
668.41	9127.1	
668.6	9325.8	
668.78	10092	
668.97	10358	
669.15	9375.6	
669.34	8458.8	
669.53	10214	
669.71	10505	
669.9	8602.2	
670.08	9215.2	
670.27	10111	
670.46	10671	
670.64	9450	
670.83	9600.9	
671.01	10023	
671.2	10498	
671.38	8718.9	
671.57	8598.1	
671.76	11060	
671.94	11428	
672.13	8598.7	
672.31	9452.7	
672.5	10830	
672.69	10240	
672.87	8715.5	
673.06	8986.5	
673.24	10516	
673.43	10236	
673.61	9204.3	
673.8	8968.7	
673.98	10633	
674.17	10875	
674.36	9430.9	
674.54	9419.3	
674.73	10477	
674.91	10738	
675.1	9198.1	
675.28	8735.3	
675.47	10335	
675.65	10804	
675.84	9052	
676.03	9341.5	
676.21	10185	
676.4	9686.2	
676.58	9591.3	
676.77	9454.8	
676.95	11408	
677.14	10129	
677.32	8669.1	
677.51	8591.2	
677.69	10733	
677.88	9825.5	
678.06	8714.8	
678.25	8729.1	
678.44	10467	
678.62	10133	
678.81	8488.1	
678.99	9287.5	
679.18	11125	
679.36	10730	
679.55	8959.2	
679.73	9434.3	
679.92	10562	
680.1	10136	
680.29	9958.6	
680.47	8930.5	
680.66	10029	
680.84	10824	
681.03	8316.1	
681.21	9323.7	
681.4	10172	
681.58	10103	
681.77	8740.7	
681.95	8743.5	
682.14	10873	
682.32	11069	
682.51	9462.3	
682.69	8426.7	
682.88	10092	
683.06	10491	
683.25	9186.5	
683.43	9518.3	
683.62	10375	
683.8	10614	
683.99	9719.7	
684.17	9079.3	
684.36	11303	
684.54	10225	
684.73	8352.3	
684.91	8527.1	
685.1	10291	
685.28	9796.1	
685.46	8714.1	
685.65	8572.1	
685.83	10079	
686.02	9583.1	
686.2	7940.7	
686.39	8155.7	
686.57	9134.6	
686.76	10630	
686.94	8173.4	
687.13	8363.2	
687.31	10107	
687.5	9753.8	
687.68	7861.5	
687.86	8845.2	
688.05	11267	
688.23	9351.7	
688.42	9021.3	
688.6	8359.8	
688.79	9711.5	
688.97	9823.4	
689.16	8744.8	
689.34	7884	
689.52	10550	
689.71	10572	
689.89	9091.6	
690.08	8432.9	
690.26	10128	
690.45	9977.7	
690.63	9198.1	
690.81	8727.8	
691	9955.9	
691.18	9941.5	
691.37	8690.2	
691.55	10542	
691.74	9790	
691.92	11462	
692.1	8655.4	
692.29	8245.1	
692.47	9880.1	
692.66	9316.2	
692.84	8393.9	
693.02	8831.5	
693.21	9415.9	
693.39	9908.1	
693.58	8997.4	
693.76	8409	
693.94	10902	
694.13	10690	
694.31	8619.2	
694.5	9458.2	
694.68	9780.4	
694.86	10251	
695.05	9009.7	
695.23	9371.5	
695.42	10524	
695.6	12479	
695.78	9579.7	
695.97	8723.7	
696.15	10689	
696.34	10176	
696.52	8644.5	
696.7	9391.3	
696.89	10391	
697.07	9976.3	
697.25	9087.5	
697.44	10402	
697.62	10389	
697.81	10635	
697.99	8801.5	
698.17	9300.5	
698.36	9760.6	
698.54	10391	
698.72	9116.9	
698.91	8282	
699.09	9999.5	
699.28	9800.9	
699.46	8836.3	
699.64	8708	
699.83	9722.4	
700.01	10697	
700.19	9372.2	
700.38	8107.9	
700.56	10684	
700.74	9828.9	
700.93	8367.3	
701.11	9009	
701.29	10370	
701.48	11194	
701.66	8579.6	
701.84	8701.8	
702.03	9931.3	
702.21	10676	
702.39	8357.1	
702.58	8832.2	
702.76	10392	
702.94	10578	
703.13	8333.2	
703.31	10327	
703.49	9879.4	
703.68	11017	
703.86	8527.7	
704.04	9299.1	
704.23	10273	
704.41	10585	
704.59	8615.1	
704.78	9411.1	
704.96	11248	
705.14	10587	
705.33	8495	
705.51	9062.3	
705.69	10031	
705.87	10723	
706.06	9318.3	
706.24	8396.7	
706.42	10385	
706.61	10617	
706.79	9292.3	
706.97	8285.4	
707.16	9835	
707.34	10249	
707.52	9248.6	
707.7	8451.3	
707.89	9965.4	
708.07	9755.8	
708.25	9204.9	
708.44	9690.3	
708.62	9826.2	
708.8	10778	
708.98	9400.2	
709.17	8646.5	
709.35	10186	
709.53	10109	
709.72	8414.4	
709.9	8543.4	
710.08	10322	
710.26	10330	
710.45	9519.6	
710.63	8491.6	
710.81	9946.3	
710.99	10065	
711.18	8899.1	
711.36	8464.9	
711.54	9713.5	
711.72	10335	
711.91	8515.5	
712.09	8040.3	
712.27	9876.7	
712.45	10322	
712.64	8654.7	
712.82	7789.1	
713	9273.9	
713.18	9357.9	
713.37	7728.4	
713.55	8720.9	
713.73	10043	
713.91	8772.1	
714.1	7980.3	
714.28	7396.6	
714.46	9351	
714.64	8658.1	
714.83	6620.4	
715.01	7203.4	
715.19	8375.5	
715.37	7652.6	
715.55	6696.2	
715.74	6860	
715.92	8951.7	
716.1	7111.2	
716.28	7718.8	
716.47	6830.7	
716.65	7772	
716.83	7759.8	
717.01	6670.9	
717.19	6723.5	
717.38	9495.7	
717.56	7428.7	
717.74	6816.3	
717.92	6162.3	
718.1	8522.3	
718.29	7776.1	
718.47	5943.2	
718.65	6536.4	
718.83	8566	
719.01	8550.3	
719.2	6146	
719.38	7088	
719.56	8396	
719.74	9771.5	
719.92	6893.5	
720.11	7605.5	
720.29	8595.3	
720.47	7841.7	
720.65	6287.3	
720.83	6967.9	
721.02	7838.9	
721.2	7593.9	
721.38	6797.9	
721.56	6087.9	
721.74	7152.9	
721.92	7154.9	
722.11	7163.1	
722.29	6782.9	
722.47	8146.1	
722.65	7526.3	
722.83	6042.9	
723.01	6771.3	
723.2	7516	
723.38	7861.5	
723.56	5526.1	
723.74	6508.4	
723.92	7122.8	
724.1	8067.6	
724.29	5963.7	
724.47	6920.8	
724.65	7254.6	
724.83	7118.1	
725.01	5854.5	
725.19	6519.4	
725.37	7044.3	
725.56	7075.7	
725.74	5696.8	
725.92	5922.7	
726.1	7057.3	
726.28	7313.3	
726.46	6208.1	
726.64	5949.3	
726.83	7176.1	
727.01	7447.1	
727.19	5595.1	
727.37	6356.2	
727.55	7343.3	
727.73	7688.1	
727.91	5535	
728.09	5364.3	
728.28	7731.8	
728.46	8036.2	
728.64	6288.6	
728.82	6194.4	
729	8641.7	
729.18	8051.9	
729.36	5597.1	
729.54	7504.4	
729.72	8824	
729.91	7527	
730.09	7376.8	
730.27	6376.7	
730.45	7512.6	
730.63	7915.4	
730.81	6755.6	
730.99	6024.4	
731.17	8419.9	
731.35	7209.5	
731.53	6442.9	
731.71	6083.1	
731.9	8152.3	
732.08	8181	
732.26	6303.6	
732.44	5979.4	
732.62	8238.3	
732.8	7827.3	
732.98	6630.6	
733.16	5758.2	
733.34	7785	
733.52	6684.6	
733.7	6120	
733.88	6330.3	
734.07	7561.8	
734.25	7360.4	
734.43	5638.7	
734.61	6843.6	
734.79	8605.6	
734.97	7288	
735.15	5714.5	
735.33	6055.2	
735.51	7499	
735.69	7169.9	
735.87	7105.8	
736.05	6130.9	
736.23	7346.7	
736.41	7142.6	
736.59	5939.1	
736.77	6025.8	
736.95	7705.8	
737.13	7192.5	
737.32	5695.4	
737.5	5806	
737.68	8165.3	
737.86	6993.8	
738.04	5433.9	
738.22	6874.3	
738.4	6837.5	
738.58	7124.2	
738.76	5964.4	
738.94	5067.4	
739.12	6939.9	
739.3	6776.7	
739.48	6446.3	
739.66	6183.5	
739.84	7034.8	
740.02	7023.9	
740.2	5123.3	
740.38	5337	
740.56	7413	
740.74	6412.2	
740.92	5958.2	
741.1	5685.8	
741.28	6818.4	
741.46	6707.8	
741.64	5487.9	
741.82	5924.1	
742	6890.7	
742.18	6821.8	
742.36	5517.2	
742.54	5262.6	
742.72	7262.1	
742.9	6206	
743.08	5907.7	
743.26	4851	
743.44	7310.6	
743.62	7215	
743.8	5909.8	
743.98	5142.4	
744.16	6969.9	
744.34	6667.5	
744.52	5786.2	
744.7	5728.9	
744.88	7049.1	
745.06	6598.6	
745.24	5726.8	
745.42	5882.4	
745.6	7058.7	
745.78	6888.7	
745.96	4811.4	
746.14	5076.9	
746.32	7620.5	
746.5	6969.9	
746.68	5430.5	
746.86	4997	
747.03	7234.1	
747.21	5939.8	
747.39	5461.9	
747.57	4935.6	
747.75	6587	
747.93	6858	
748.11	4926.7	
748.29	4914.4	
748.47	7914.7	
748.65	6268.8	
748.83	5459.2	
749.01	5296.7	
749.19	6791.7	
749.37	5988.9	
749.55	5083.1	
749.73	5171.1	
749.91	6432	
750.09	6233.3	
750.26	5232.6	
750.44	4739	
750.62	6406.7	
750.8	6346.7	
750.98	4530.8	
751.16	4812.7	
751.34	6443.6	
751.52	5871.5	
751.7	5448.3	
751.88	4554	
752.06	6864.1	
752.24	6594.5	
752.42	4515.8	
752.59	4788.2	
752.77	6260	
752.95	7308.5	
753.13	5258.5	
753.31	4876.2	
753.49	6053.1	
753.67	6338.5	
753.85	4973.2	
754.03	4643.4	
754.21	6614.9	
754.38	6814.3	
754.56	4731.5	
754.74	3990.8	
754.92	5818.3	
755.1	6344.6	
755.28	3886.4	
755.46	3896.6	
755.64	6944	
755.82	6977.4	
755.99	4067.9	
756.17	4101.4	
756.35	4858.5	
756.53	6116.6	
756.71	3127.2	
756.89	3911.6	
757.07	5725.4	
757.25	4990.9	
757.42	4396.3	
757.6	5135.6	
757.78	5817.6	
757.96	4953.4	
758.14	4123.9	
758.32	3764.8	
758.5	4603.2	
758.67	5333.6	
758.85	3963.5	
759.03	4134.8	
759.21	5517.9	
759.39	5051	
759.57	3663.1	
759.75	4565.6	
759.92	5926.1	
760.1	5537	
760.28	4925.4	
760.46	5086.5	
760.64	5298.8	
760.82	5106.3	
760.99	4587.4	
761.17	4106.2	
761.35	5937.7	
761.53	5081.7	
761.71	4209.3	
761.89	4837.3	
762.06	5837.4	
762.24	5476.3	
762.42	4289.1	
762.6	4091.8	
762.78	5494	
762.96	5962.3	
763.13	4579.9	
763.31	4315.8	
763.49	6100.2	
763.67	5413.5	
763.85	5027.8	
764.02	5423	
764.2	6353.5	
764.38	5634.6	
764.56	4253.6	
764.74	4954	
764.91	6429.9	
765.09	5436.7	
765.27	4039.3	
765.45	3789.4	
765.63	6501.6	
765.8	6232	
765.98	3623.5	
766.16	3877.5	
766.34	5079	
766.52	4943.8	
766.69	4617.5	
766.87	3733.4	
767.05	5451.7	
767.23	6083.8	
767.41	3965.6	
767.58	4214	
767.76	5901.6	
767.94	5958.2	
768.12	4005.1	
768.29	4610.7	
768.47	5459.9	
768.65	6058.6	
768.83	3716.4	
769	4659.1	
769.18	5165.7	
769.36	5686.5	
769.54	4599.7	
769.72	3781.2	
769.89	5976.7	
770.07	6023.8	
770.25	4067.3	
770.43	4987.5	
770.6	6595.8	
770.78	6812.9	
770.96	4139.6	
771.14	4690.5	
771.31	5834	
771.49	5308.3	
771.67	3408.5	
771.85	3678.2	
772.02	4678.9	
772.2	5323.4	
772.38	4332.1	
772.55	3861.1	
772.73	5560.9	
772.91	5328.1	
773.09	4102.1	
773.26	4183.3	
773.44	5498.8	
773.62	5227.8	
773.8	3744.4	
773.97	3519.8	
774.15	5531.6	
774.33	5255.8	
774.5	3596.2	
774.68	3949.8	
774.86	5611.4	
775.04	5204.6	
775.21	3730.7	
775.39	3665.2	
775.57	5464.7	
775.74	5808	
775.92	3574.4	
776.1	3503.4	
776.27	5463.3	
776.45	6436.1	
776.63	3629.7	
776.81	3338.9	
776.98	5114.5	
777.16	5978.7	
777.34	3814	
777.51	4085	
777.69	5171.1	
777.87	4874.8	
778.04	3856.3	
778.22	4296.6	
778.4	4918.5	
778.57	5582.8	
778.75	3232.4	
778.93	3491.1	
779.1	4817.5	
779.28	4618.9	
779.46	3250.1	
779.64	3624.9	
779.81	5637.4	
779.99	6266.8	
780.17	4312.3	
780.34	4391.5	
780.52	5233.2	
780.69	5271.5	
780.87	3866.6	
781.05	3564.1	
781.22	5185.5	
781.4	5292.6	
781.58	3655.6	
781.75	2973.7	
781.93	5220.3	
782.11	4722.6	
782.28	4416.8	
782.46	3659.7	
782.64	4613.4	
782.81	5384.1	
782.99	3694.5	
783.17	3661.1	
783.34	5291.3	
783.52	4662.5	
783.69	3877.5	
783.87	4492.6	
784.05	4769.7	
784.22	4717.8	
784.4	4500.1	
784.58	3977.2	
784.75	5497.4	
784.93	4855.7	
785.1	3590.1	
785.28	4195.6	
785.46	5248.3	
785.63	4700.1	
785.81	3630.4	
785.99	3461.7	
786.16	4842.8	
786.34	5192.3	
786.51	3502.7	
786.69	3859.1	
786.87	4479.6	
787.04	4941.7	
787.22	3406.5	
787.39	4273.4	
787.57	4706.2	
787.75	5629.9	
787.92	4388.1	
788.1	4218.1	
788.27	4625.7	
788.45	4508.3	
788.63	4060.4	
788.8	3018.7	
788.98	5163.6	
789.15	4465.3	
789.33	3124.5	
789.5	3624.9	
789.68	5505.6	
789.86	5555.5	
790.03	3986	
790.21	3577.1	
790.38	5466.7	
790.56	4852.3	
790.73	3408.5	
790.91	3419.4	
791.09	4708.3	
791.26	5355.4	
791.44	3639.9	
791.61	3178.4	
791.79	4700.8	
791.96	4697.4	
792.14	3238.5	
792.32	2868.5	
792.49	4698.7	
792.67	4805.9	
792.84	3354.6	
793.02	3101.3	
793.19	5109.7	
793.37	5681.7	
793.54	2951.8	
793.72	3161.4	
793.89	5656.5	
794.07	4672.8	
794.25	3546.4	
794.42	2962.7	
794.6	5543.2	
794.77	5214.8	
794.95	3906.2	
795.12	3445.4	
795.3	4728.1	
795.47	5203.9	
795.65	3755.3	
795.82	3599	
796	4595.6	
796.17	6067.4	
796.35	3523.9	
796.52	4116.4	
796.7	5171.8	
796.87	5255.8	
797.05	3510.2	
797.22	4222.2	
797.4	5225.7	
797.57	5958.2	
797.75	3648.1	
797.92	3388.7	
798.1	5444.2	
798.27	4592.2	
798.45	3005.7	
798.62	3207.1	
798.8	4951.3	
798.97	5337	
799.15	3776.5	
799.32	3665.9	
799.5	4372.4	
799.67	4990.9	
799.85	3884.3	
800.02	2889.7	
800.2	4644.8	
800.37	4878.9	
800.55	3988.8	
800.72	3386	
800.9	5291.3	
801.07	5677	
801.25	4455.7	
801.42	3676.8	
801.6	5370.5	
801.77	5012.1	
801.95	3527.3	
802.12	3301.3	
802.29	5098.1	
802.47	5077.6	
802.64	3699.3	
802.82	2887.6	
802.99	4678.2	
803.17	5453.7	
803.34	3635.1	
803.52	3255.6	
803.69	6014.9	
803.87	4426.3	
804.04	3627	
804.21	3629.7	
804.39	5570.5	
804.56	4775.2	
804.74	3083.6	
804.91	3758	
805.09	4646.2	
805.26	4708.3	
805.44	3127.2	
805.61	3438.5	
805.78	5230.5	
805.96	5154.7	
806.13	3666.5	
806.31	3928	
806.48	4201.7	
806.66	4691.2	
806.83	3703.4	
807	3661.1	
807.18	4638	
807.35	4913.8	
807.53	3598.3	
807.7	2973.7	
807.87	5590.3	
808.05	4667.3	
808.22	3923.2	
808.4	2925.9	
808.57	4648.2	
808.74	4345.1	
808.92	3328.6	
809.09	4175.8	
809.27	4595	
809.44	5050.3	
809.61	2950.4	
809.79	3272	
809.96	5671.5	
810.14	5212.1	
810.31	2912.9	
810.48	3487.7	
810.66	4728.8	
810.83	5270.1	
811.01	3287	
811.18	3693.9	
811.35	5285.1	
811.53	4130.8	
811.7	3961.5	
811.87	3708.2	
812.05	4707.6	
812.22	4620.2	
812.39	3237.8	
812.57	3117.7	
812.74	4659.1	
812.92	6012.2	
813.09	3488.4	
813.26	3801.7	
813.44	5780.1	
813.61	4597.7	
813.78	2955.9	
813.96	3831.1	
814.13	4721.9	
814.3	4434.5	
814.48	4123.9	
814.65	3500.7	
814.82	5636	
815	4449.6	
815.17	3571	
815.34	4256.4	
815.52	4574.5	
815.69	4573.8	
815.87	3515.7	
816.04	3449.5	
816.21	4651.6	
816.38	4171.7	
816.56	3466.5	
816.73	3265.1	
816.9	5797.8	
817.08	5289.2	
817.25	3233.1	
817.42	3966.2	
817.6	4312.3	
817.77	4635.2	
817.94	3646.7	
818.12	3205.1	
818.29	4436.6	
818.46	6593.8	
818.64	3407.1	
818.81	3098.6	
818.98	4385.4	
819.16	6128.2	
819.33	3762.1	
819.5	3579.8	
819.67	4966.3	
819.85	5497.4	
820.02	3469.9	
820.19	3670	
820.37	4917.2	
820.54	4559.5	
820.71	3573.7	
820.88	4463.2	
821.06	4930.8	
821.23	4521.9	
821.4	3692.5	
821.58	3636.5	
821.75	5225.1	
821.92	4801.1	
822.09	2949.8	
822.27	3054.2	
822.44	4667.3	
822.61	4574.5	
822.79	2967.5	
822.96	5513.8	
823.13	4971.8	
823.3	4386.7	
823.48	3356.6	
823.65	3067.9	
823.82	5231.2	
823.99	4364.2	
824.17	4222.2	
824.34	3143.6	
824.51	5971.2	
824.68	4692.6	
824.86	3203	
825.03	3593.5	
825.2	4639.3	
825.37	5495.4	
825.55	3214.6	
825.72	3562.1	
825.89	5971.2	
826.06	5597.1	
826.24	3487.7	
826.41	3526.6	
826.58	5558.9	
826.75	4891.9	
826.92	2804.4	
827.1	3028.3	
827.27	7411.6	
827.44	5927.5	
827.61	3322.5	
827.79	3916.4	
827.96	4463.9	
828.13	4752.7	
828.3	3491.1	
828.47	2985.3	
828.65	4919.2	
828.82	4896	
828.99	4365.6	
829.16	3832.4	
829.34	5208	
829.51	5069.4	
829.68	3536.2	
829.85	3669.3	
830.02	5550.7	
830.2	5212.8	
830.37	2812.5	
830.54	4220.9	
830.71	5835.3	
830.88	4731.5	
831.05	2792.7	
831.23	3233.7	
831.4	5670.8	
831.57	6220.4	
831.74	3351.8	
831.91	2921.1	
832.09	4929.5	
832.26	5202.5	
832.43	3398.9	
832.6	3825.6	
832.77	4939.7	
832.94	5539.8	
833.12	2747.7	
833.29	3323.2	
833.46	5047.6	
833.63	6372.6	
833.8	3652.9	
833.97	3405.1	
834.15	5225.7	
834.32	5029.1	
834.49	3549.1	
834.66	3595.6	
834.83	5359.5	
835	4464.6	
835.17	3287	
835.35	3274.7	
835.52	5142.4	
835.69	5020.3	
835.86	3490.4	
836.03	2899.9	
836.2	5134.3	
836.37	4838.7	
836.55	3351.2	
836.72	3237.8	
836.89	4823	
837.06	5286.5	
837.23	3439.9	
837.4	3731.4	
837.57	5869.5	
837.75	6351.4	
837.92	3100.6	
838.09	3353.2	
838.26	4814.8	
838.43	5398.4	
838.6	3533.4	
838.77	3194.1	
838.94	6085.9	
839.11	5901.6	
839.29	3413.3	
839.46	2711.5	
839.63	5268.1	
839.8	4975.2	
839.97	3315	
840.14	3287.7	
840.31	5006.6	
840.48	5204.6	
840.65	2848.7	
840.82	3233.1	
841	5225.7	
841.17	5113.1	
841.34	3031	
841.51	3115.6	
841.68	5108.3	
841.85	4913.1	
842.02	3206.4	
842.19	2686.3	
842.36	5012.1	
842.53	5033.2	
842.7	3062.4	
842.87	3659	
843.05	6436.8	
843.22	4881.7	
843.39	2893.1	
843.56	3144.3	
843.73	4738.3	
843.9	5246.9	
844.07	4767	
844.24	4014.7	
844.41	7255.3	
844.58	4539.7	
844.75	2951.1	
844.92	3178.4	
845.09	5167	
845.26	5163.6	
845.43	3002.3	
845.6	3220.1	
845.77	5148.6	
845.94	4878.3	
846.12	3359.4	
846.29	3517	
846.46	5358.2	
846.63	5095.3	
846.8	3074.7	
846.97	3599.6	
847.14	5497.4	
847.31	5099.4	
847.48	3405.1	
847.65	3717.1	
847.82	5367	
847.99	5366.4	
848.16	3948.5	
848.33	3685	
848.5	4813.4	
848.67	5517.9	
848.84	2998.2	
849.01	3177.8	
849.18	4777.9	
849.35	4418.2	
849.52	3764.2	
849.69	2968.2	
849.86	5299.5	
850.03	5543.9	
850.2	3081.5	
850.37	3661.1	
850.54	5438.7	
850.71	4874.8	
850.88	3601	
851.05	3010.5	
851.22	5043.5	
851.39	5606.7	
851.56	2882.2	
851.73	3538.2	
851.9	4609.3	
852.07	5360.9	
852.24	3381.2	
852.41	2970.2	
852.58	5094.7	
852.75	4593.6	
852.92	3332.7	
853.09	2942.9	
853.26	4745.8	
853.43	5618.9	
853.6	3067.2	
853.77	2613.9	
853.94	5569.8	
854.11	4550.6	
854.28	4384	
854.44	3279.5	
854.61	5986.2	
854.78	5373.2	
854.95	2994.1	
855.12	3746.4	
855.29	4208.6	
855.46	5790.3	
855.63	3003.7	
855.8	4111.6	
855.97	4840.7	
856.14	5444.9	
856.31	4235.2	
856.48	3278.8	
856.65	4796.3	
856.82	4575.8	
856.99	2955.2	
857.16	3237.8	
857.33	6159.6	
857.49	4840.7	
857.66	3220.1	
857.83	3483.6	
858	4837.3	
858.17	5035.3	
858.34	2878.1	
858.51	3040.6	
858.68	5629.9	
858.85	5740.5	
859.02	3475.4	
859.19	3686.3	
859.36	4571.7	
859.52	4617.5	
859.69	3028.3	
859.86	3574.4	
860.03	4603.2	
860.2	5571.8	
860.37	2788.7	
860.54	3075.4	
860.71	5324	
860.88	5725.4	
861.05	3331.4	
861.21	3802.4	
861.38	5669.5	
861.55	4474.8	
861.72	2789.3	
861.89	3347.1	
862.06	5340.4	
862.23	5745.9	
862.4	2945.7	
862.56	3109.5	
862.73	5232.6	
862.9	4995	
863.07	3514.3	
863.24	2782.5	
863.41	4488.5	
863.58	4616.8	
863.75	3069.9	
863.91	3495.2	
864.08	5545.9	
864.25	5250.3	
864.42	3761.4	
864.59	4158.1	
864.76	5904.3	
864.93	4585.4	
865.09	2943.6	
865.26	3188.7	
865.43	5543.9	
865.6	5845.6	
865.77	2616.6	
865.94	3018.7	
866.1	5555.5	
866.27	5283.1	
866.44	4444.1	
866.61	2923.1	
866.78	4880.3	
866.95	5257.8	
867.11	2930	
867.28	2678.7	
867.45	5464.7	
867.62	4627	
867.79	3493.2	
867.96	3025.5	
868.12	4552	
868.29	5315.8	
868.46	3038.5	
868.63	3980.6	
868.8	5503.6	
868.97	5232.6	
869.13	3123.8	
869.3	3158	
869.47	5189.6	
869.64	5453.1	
869.81	3044.6	
869.97	3060.3	
870.14	5098.1	
870.31	5674.9	
870.48	2998.2	
870.65	3758	
870.81	4852.3	
870.98	4903.5	
871.15	3447.4	
871.32	3132.7	
871.48	5208.7	
871.65	5669.5	
871.82	3031.7	
871.99	3395.5	
872.16	6025.8	
872.32	5517.9	
872.49	3095.2	
872.66	3047.4	
872.83	5374.6	
872.99	4721.3	
873.16	3429.7	
873.33	3024.2	
873.5	4974.5	
873.67	5116.5	
873.83	3154.6	
874	3984	
874.17	5074.2	
874.34	5953.4	
874.5	3826.3	
874.67	3652.9	
874.84	5616.9	
875.01	4459.8	
875.17	4173.8	
875.34	3050.1	
875.51	5074.2	
875.68	6048.3	
875.84	3609.2	
876.01	4341.7	
876.18	5316.5	
876.34	5223.7	
876.51	3040.6	
876.68	2954.5	
876.85	4866	
877.01	5588.2	
877.18	4272.7	
877.35	3018.7	
877.52	5061.9	
877.68	4511.7	
877.85	2959.3	
878.02	3012.6	
878.18	4911.7	
878.35	4784.7	
878.52	2475.3	
878.69	3374.4	
878.85	5383.4	
879.02	5316.5	
879.19	4220.2	
879.35	3203	
879.52	5288.5	
879.69	5371.8	
879.86	2631.6	
880.02	3364.8	
880.19	4947.9	
880.36	5997.8	
880.52	3461.7	
880.69	3567.6	
880.86	5384.8	
881.02	5366.4	
881.19	3312.9	
881.36	3237.8	
881.52	5246.9	
881.69	4722.6	
881.86	3260.4	
882.02	3192.1	
882.19	5490.6	
882.36	6322.1	
882.52	3117.7	
882.69	4224.3	
882.86	5141.8	
883.02	5042.1	
883.19	3614.7	
883.36	3446.7	
883.52	5367	
883.69	6013.5	
883.86	3070.6	
884.02	2775.7	
884.19	5270.8	
884.36	4969.7	
884.52	3368.2	
884.69	3224.9	
884.86	4784.1	
885.02	5791	
885.19	3300	
885.36	3452.9	
885.52	4904.9	
885.69	5079.6	
885.86	4263.2	
886.02	3807.9	
886.19	5356.1	
886.35	4887.8	
886.52	3351.8	
886.69	4174.4	
886.85	4584	
887.02	5603.2	
887.19	5603.2	
887.35	5603.2	
887.52	5603.2	
887.68	5603.2	
887.85	5603.2	
888.02	5603.2	
888.18	5603.2	
888.35	5603.2	
888.51	5603.2	
888.68	5603.2	
888.85	5603.2	
889.01	5603.2	
889.18	5603.2	
889.35	5603.2	
889.51	5603.2	
889.68	5603.2	
889.84	5603.2	
890.01	5603.2	
890.17	5603.2	
890.34	5603.2	
890.51	5603.2	
890.67	5603.2	
890.84	5603.2	
891	5603.2	
891.17	5603.2	
891.34	5603.2	
891.5	5603.2	
891.67	5603.2	
891.83	5603.2	
892	5603.2	
892.16	5603.2	
892.33	5603.2	
892.5	5603.2	
892.66	5603.2	
892.83	5603.2	
892.99	5603.2	
893.16	5603.2	
893.32	5603.2	
893.49	5603.2	
893.65	5603.2	
893.82	5603.2	
893.99	5603.2	
894.15	5603.2	
894.32	5603.2	
894.48	5603.2	
894.65	5603.2	
894.81	5603.2	
894.98	5603.2	
895.14	5603.2	
895.31	5603.2	
895.47	5603.2	
895.64	5603.2	
895.81	5603.2	
895.97	5603.2	
896.14	5603.2	
896.3	5603.2	
896.47	5603.2	
896.63	5603.2	
896.8	5603.2	
896.96	5603.2	
897.13	5603.2	
897.29	5603.2	
897.46	5603.2	
897.62	5603.2	
897.79	5603.2	
897.95	5603.2	
898.12	5603.2	
898.28	5603.2	
898.45	5603.2	
898.61	5603.2	
898.78	5603.2	
898.94	5603.2	
899.11	5603.2	
899.27	5603.2	
899.44	5603.2	
899.6	5603.2	
899.77	5603.2	
899.93	5603.2	
900.1	5603.2	
900.26	5603.2	
900.43	5603.2	
900.59	5603.2	
900.76	5603.2	
900.92	5603.2	
901.09	5603.2	
901.25	5603.2	
901.42	5603.2	
901.58	5603.2	
901.75	5603.2	
901.91	5603.2	
902.07	5603.2	
902.24	5603.2	
902.4	5603.2	
902.57	5603.2	
902.73	5603.2	
902.9	5603.2	
903.06	5603.2	
903.23	5603.2	
903.39	5603.2	
903.56	5603.2	
903.72	5603.2	
903.88	5603.2	
904.05	5603.2	
904.21	5603.2	
904.38	5603.2	
904.54	5603.2	
904.71	5603.2	
904.87	5603.2	
905.03	5603.2	
905.2	5603.2	
905.36	5603.2	
905.53	5603.2	
905.69	5603.2	
905.86	5603.2	
906.02	5603.2	
906.18	5603.2	
906.35	5603.2	
906.51	5603.2	
906.68	5603.2	
906.84	5603.2	
907.01	5603.2	
907.17	5603.2	
907.33	5603.2	
907.5	5603.2	
907.66	5603.2	
907.83	5603.2	
907.99	5603.2	
908.15	5603.2	
908.32	5603.2	
908.48	5603.2	
908.65	5603.2	
908.81	5603.2	
908.97	5603.2	
909.14	5603.2	
909.3	5603.2	
909.47	5603.2	
909.63	5603.2	
909.79	5603.2	
909.96	5603.2	
910.12	5603.2	
910.28	5603.2	
910.45	5603.2	
910.61	5603.2	
910.78	5603.2	
910.94	5603.2	
911.1	5603.2	
911.27	5603.2	
911.43	5603.2	
911.59	5603.2	
911.76	5603.2	
911.92	5603.2	
912.08	5603.2	
912.25	5603.2	
912.41	5603.2	
912.57	5603.2	
912.74	5603.2	
912.9	5603.2	
913.07	5603.2	
913.23	5603.2	
913.39	5603.2	
913.56	5603.2	
913.72	5603.2	
913.88	5603.2	
914.05	5603.2	
914.21	5603.2	
914.37	5603.2	
914.54	5603.2	
914.7	5603.2	
914.86	5603.2	
915.03	5603.2	
915.19	5603.2	
