Wavelength	Intensities	
nm	a.u.	
179.22	1725.9	
179.44	1739.1	
179.65	1712.8	
179.86	1765.3	
180.08	1747.6	
180.29	3975.8	
180.51	3026.9	
180.72	5075.5	
180.94	5734.3	
181.15	2810.5	
181.37	2759.3	
181.58	4871.4	
181.79	5135.6	
182.01	2927.2	
182.22	3074	
182.44	5144.5	
182.65	4398.4	
182.87	3777.8	
183.08	3381.9	
183.29	5412.1	
183.51	4486.4	
183.72	3111.5	
183.94	4321.9	
184.15	4809.3	
184.37	4829.8	
184.58	2800.3	
184.79	3671.3	
185.01	4579.3	
185.22	5210	
185.44	3831.7	
185.65	3291.1	
185.86	4828.4	
186.08	4474.1	
186.29	2736.8	
186.51	2991.4	
186.72	4637.3	
186.94	5292.6	
187.15	3360.7	
187.36	3447.4	
187.58	6601.3	
187.79	4978.6	
188.01	3468.6	
188.22	5243.5	
188.43	5808.7	
188.65	5165	
188.86	2953.9	
189.08	3454.9	
189.29	4754.7	
189.5	4719.9	
189.72	3146.4	
189.93	3179.1	
190.15	5278.3	
190.36	6142.5	
190.57	3463.1	
190.79	3349.1	
191	5376.6	
191.22	5281.7	
191.43	3497.9	
191.64	2942.2	
191.86	5511.1	
192.07	5299.5	
192.29	3028.9	
192.5	3182.5	
192.71	5286.5	
192.93	4633.2	
193.14	3065.8	
193.35	3198.2	
193.57	4702.8	
193.78	5340.4	
194	2643.2	
194.21	3158	
194.42	4543.8	
194.64	4887.1	
194.85	3372.3	
195.07	3883.6	
195.28	4865.3	
195.49	4328	
195.71	4053.6	
195.92	2968.9	
196.13	5086.5	
196.35	5094.7	
196.56	4342.4	
196.78	3397.6	
196.99	6096.8	
197.2	5741.8	
197.42	3756.7	
197.63	3394.8	
197.84	4465.9	
198.06	5082.4	
198.27	3218.7	
198.48	4064.5	
198.7	4637.3	
198.91	4876.2	
199.13	3414	
199.34	3445.4	
199.55	5251	
199.77	4293.2	
199.98	3080.1	
200.19	3484.3	
200.41	4732.2	
200.62	4551.3	
200.83	3570.3	
201.05	3782.6	
201.26	4809.3	
201.47	4619.5	
201.69	3089	
201.9	2970.9	
202.11	4846.9	
202.33	5634	
202.54	3257	
202.76	3592.1	
202.97	4971.1	
203.18	4937.7	
203.4	3547.1	
203.61	3545	
203.82	4915.1	
204.04	4591.5	
204.25	3489.1	
204.46	3394.2	
204.68	4904.9	
204.89	5061.9	
205.1	3371	
205.32	2933.4	
205.53	5129.5	
205.74	5298.8	
205.96	2529.2	
206.17	3456.3	
206.38	5164.3	
206.6	5226.4	
206.81	3913.7	
207.02	3216.7	
207.24	5098.1	
207.45	5410.1	
207.66	3352.5	
207.88	2909.5	
208.09	5042.1	
208.3	4876.2	
208.52	3076	
208.73	3317.7	
208.94	4830.5	
209.15	5406.6	
209.37	3269.9	
209.58	3632.4	
209.79	5248.3	
210.01	4683.7	
210.22	2747.7	
210.43	2790.7	
210.65	4848.2	
210.86	5117.9	
211.07	3239.2	
211.29	3055.6	
211.5	5098.1	
211.71	4818.2	
211.93	3065.8	
212.14	3102	
212.35	4851.6	
212.56	4957.4	
212.78	3454.2	
212.99	2897.9	
213.2	5524.1	
213.42	4727.4	
213.63	3147.7	
213.84	3277.4	
214.06	4397.7	
214.27	4427.7	
214.48	3231.7	
214.69	3525.2	
214.91	5432.6	
215.12	5425.8	
215.33	3481.5	
215.55	3749.1	
215.76	5896.1	
215.97	5191.6	
216.18	3321.8	
216.4	3353.9	
216.61	4586.1	
216.82	5230.5	
217.04	3029.6	
217.25	3176.4	
217.46	5351.3	
217.67	5152.7	
217.89	2850.1	
218.1	2905.4	
218.31	4988.2	
218.53	5007.3	
218.74	3180.5	
218.95	3118.4	
219.16	4894	
219.38	5514.5	
219.59	3112.9	
219.8	3634.5	
220.01	6037.4	
220.23	4906.9	
220.44	3972.4	
220.65	3016	
220.87	4904.2	
221.08	5330.2	
221.29	2865.1	
221.5	3658.4	
221.72	6320.7	
221.93	4622.3	
222.14	3426.9	
222.35	3982.6	
222.57	4866	
222.78	5143.1	
222.99	3345	
223.2	3504.8	
223.42	5047.6	
223.63	5203.2	
223.84	2626.9	
224.05	2657.6	
224.27	5936.4	
224.48	5532.2	
224.69	4025.6	
224.9	3450.8	
225.12	5037.3	
225.33	4825	
225.54	2849.4	
225.75	3076	
225.97	4536.9	
226.18	4863.9	
226.39	3242.6	
226.6	3067.2	
226.82	4631.8	
227.03	4536.3	
227.24	3429.7	
227.45	2893.8	
227.67	5206.6	
227.88	5569.1	
228.09	3774.4	
228.3	3759.4	
228.52	5158.8	
228.73	4776.5	
228.94	3205.1	
229.15	2884.2	
229.36	4798.4	
229.58	4818.9	
229.79	3223.5	
230	3715	
230.21	5666.7	
230.43	4935.6	
230.64	3439.2	
230.85	3503.4	
231.06	5264	
231.28	5138.4	
231.49	2881.5	
231.7	3428.3	
231.91	5114.5	
232.12	4905.6	
232.34	2992.1	
232.55	3280.8	
232.76	5341.8	
232.97	4965.6	
233.18	3075.4	
233.4	3336.8	
233.61	5029.1	
233.82	4640.7	
234.03	3173	
234.25	3155.2	
234.46	6434	
234.67	4878.3	
234.88	3492.5	
235.09	3121.8	
235.31	5079.6	
235.52	4743.1	
235.73	3409.9	
235.94	2936.8	
236.15	4620.9	
236.37	5796.4	
236.58	3049.4	
236.79	3336.1	
237	5114.5	
237.21	4470	
237.43	3577.1	
237.64	2843.3	
237.85	8066.9	
238.06	4531.5	
238.27	3525.9	
238.48	2956.6	
238.7	5128.1	
238.91	4772.4	
239.12	3253.5	
239.33	3373	
239.54	4754	
239.76	4792.9	
239.97	3326.6	
240.18	3320.4	
240.39	5806	
240.6	5063.9	
240.82	3376.4	
241.03	2851.5	
241.24	4848.2	
241.45	5440.8	
241.66	3037.8	
241.87	3558	
242.09	5434.6	
242.3	5678.3	
242.51	3557.3	
242.72	3309.5	
242.93	5231.9	
243.14	4814.1	
243.36	3819.5	
243.57	3994.9	
243.78	5568.4	
243.99	5152.7	
244.2	3289.7	
244.41	2998.2	
244.63	4504.8	
244.84	5055.8	
245.05	3523.9	
245.26	3263.8	
245.47	5097.4	
245.68	5226.4	
245.9	4227.7	
246.11	3454.9	
246.32	4679.6	
246.53	5022.3	
246.74	5170.4	
246.95	2794.1	
247.16	4573.8	
247.38	4860.5	
247.59	2854.9	
247.8	3334.8	
248.01	4528.1	
248.22	4822.3	
248.43	3035.1	
248.64	3245.3	
248.86	4422.2	
249.07	4653.7	
249.28	2987.3	
249.49	3414	
249.7	5264.6	
249.91	5339.7	
250.12	2835.8	
250.34	2897.9	
250.55	4986.8	
250.76	4880.3	
250.97	3431.7	
251.18	3443.3	
251.39	5386.2	
251.6	4971.1	
251.81	3476.8	
252.03	3471.3	
252.24	4674.8	
252.45	5169.1	
252.66	2952.5	
252.87	3596.9	
253.08	4851.6	
253.29	6079.1	
253.5	2950.4	
253.72	3960.8	
253.93	4724.7	
254.14	5657.2	
254.35	3193.5	
254.56	3278.8	
254.77	5104.2	
254.98	4571.1	
255.19	3169.6	
255.41	3904.1	
255.62	5011.4	
255.83	5392.3	
256.04	3516.4	
256.25	3437.9	
256.46	5866.7	
256.67	4634.6	
256.88	3424.9	
257.09	3689.8	
257.31	4522.6	
257.52	4625.7	
257.73	4212.7	
257.94	3159.3	
258.15	4833.9	
258.36	4873.5	
258.57	3871.3	
258.78	2620.7	
258.99	5273.5	
259.2	4711.7	
259.41	3165.5	
259.63	3254.9	
259.84	5500.2	
260.05	5778.7	
260.26	4030.4	
260.47	3142.3	
260.68	5328.1	
260.89	4788.8	
261.1	3768.9	
261.31	3023.5	
261.52	5395	
261.73	5593.7	
261.95	4085	
262.16	3560.1	
262.37	5437.4	
262.58	5500.8	
262.79	3993.5	
263	3251.5	
263.21	4913.8	
263.42	4734.2	
263.63	3474	
263.84	3229.6	
264.05	5306.3	
264.26	5575.3	
264.47	3875.4	
264.69	3519.8	
264.9	5525.4	
265.11	5023.7	
265.32	3082.2	
265.53	3155.9	
265.74	4956.1	
265.95	4335.5	
266.16	3352.5	
266.37	3704.1	
266.58	5006.6	
266.79	4691.9	
267	3192.1	
267.21	2951.8	
267.42	4547.2	
267.63	4899.4	
267.84	3338.9	
268.06	2875.3	
268.27	5231.2	
268.48	5390.9	
268.69	3280.2	
268.9	3769.6	
269.11	5427.1	
269.32	4414.7	
269.53	3302.7	
269.74	3108.1	
269.95	5084.4	
270.16	4403.8	
270.37	3371.6	
270.58	3779.2	
270.79	4798.4	
271	5261.9	
271.21	3491.1	
271.42	3360	
271.63	5022.3	
271.84	4544.4	
272.05	2749.1	
272.26	2960.7	
272.47	4883	
272.68	5032.5	
272.89	3179.8	
273.11	3671.3	
273.32	4708.3	
273.53	5556.8	
273.74	3552.5	
273.95	3456.3	
274.16	5309.7	
274.37	4888.5	
274.58	3667.9	
274.79	2956.6	
275	4990.9	
275.21	5352	
275.42	4293.9	
275.63	3667.2	
275.84	5074.2	
276.05	6254.5	
276.26	3507.5	
276.47	3218	
276.68	4799.8	
276.89	5642.8	
277.1	3697.9	
277.31	2961.4	
277.52	5025.7	
277.73	5292	
277.94	2910.8	
278.15	3207.1	
278.36	5084.4	
278.57	4631.8	
278.78	3150.5	
278.99	3575.1	
279.2	4648.9	
279.41	4526	
279.62	4158.7	
279.83	2987.3	
280.04	5803.3	
280.25	4503.5	
280.46	4060.4	
280.67	3308.2	
280.88	4614.8	
281.09	5384.1	
281.3	3470.6	
281.51	4276.8	
281.72	4644.8	
281.93	5270.1	
282.14	3130	
282.35	3356.6	
282.56	5340.4	
282.77	5248.9	
282.98	3237.2	
283.19	3846.1	
283.4	6242.2	
283.61	4838.7	
283.82	2977.7	
284.03	4031.8	
284.24	4974.5	
284.45	5384.8	
284.66	4065.2	
284.87	3812	
285.08	5300.1	
285.29	5450.3	
285.5	2885.6	
285.71	3297.9	
285.92	5335	
286.12	5836.7	
286.33	3994.9	
286.54	3258.3	
286.75	5218.9	
286.96	4813.4	
287.17	3022.8	
287.38	3906.8	
287.59	4733.5	
287.8	4586.8	
288.01	3253.5	
288.22	3677.5	
288.43	5206.6	
288.64	4433.9	
288.85	3749.1	
289.06	3618.8	
289.27	5246.2	
289.48	5475.6	
289.69	4059.8	
289.9	3677.5	
290.11	5416.2	
290.32	4672.8	
290.53	3813.3	
290.74	3610.6	
290.94	5239.4	
291.15	5218.2	
291.36	3164.1	
291.57	3619.4	
291.78	4740.4	
291.99	4477.5	
292.2	3082.2	
292.41	3508.2	
292.62	5296	
292.83	5167.7	
293.04	4304.8	
293.25	3044	
293.46	4771.1	
293.67	5276.9	
293.88	3128.6	
294.09	3059.7	
294.29	4592.9	
294.5	4990.9	
294.71	3322.5	
294.92	3203	
295.13	4736.3	
295.34	5701.5	
295.55	2887.6	
295.76	2813.9	
295.97	5176.6	
296.18	5720.7	
296.39	3007.8	
296.6	3134.8	
296.81	4976.6	
297.01	5178.6	
297.22	3218	
297.43	3168.2	
297.64	4656.4	
297.85	4588.8	
298.06	2652.8	
298.27	2887.6	
298.48	4834.6	
298.69	4644.8	
298.9	3426.3	
299.11	3103.4	
299.31	4534.9	
299.52	4558.8	
299.73	3614	
299.94	3488.4	
300.15	4917.9	
300.36	4684.4	
300.57	3509.5	
300.78	3482.9	
300.99	4774.5	
301.2	4943.1	
301.4	3162.1	
301.61	3319.8	
301.82	5095.3	
302.03	5172.5	
302.24	3743.7	
302.45	3010.5	
302.66	5150	
302.87	5410.7	
303.08	3186.6	
303.29	4126	
303.49	4742.4	
303.7	4875.5	
303.91	2884.2	
304.12	3951.9	
304.33	4453.6	
304.54	4971.8	
304.75	3171.6	
304.96	3097.2	
305.16	5137.7	
305.37	5676.3	
305.58	2873.3	
305.79	2905.4	
306	5120.6	
306.21	4377.9	
306.42	3151.1	
306.63	4624.3	
306.83	4758.1	
307.04	5217.5	
307.25	3394.2	
307.46	3444	
307.67	4324.6	
307.88	5218.9	
308.09	3173	
308.29	3182.5	
308.5	4917.2	
308.71	5333.6	
308.92	3347.1	
309.13	3035.1	
309.34	4833.2	
309.55	4853.7	
309.75	3826.3	
309.96	3534.1	
310.17	5214.1	
310.38	4640.7	
310.59	3688.4	
310.8	2983.9	
311.01	4700.1	
311.21	4803.9	
311.42	3051.5	
311.63	3108.8	
311.84	4745.1	
312.05	4986.8	
312.26	3536.2	
312.46	3728.7	
312.67	4726	
312.88	4525.3	
313.09	3011.2	
313.3	2999.6	
313.51	5481.7	
313.71	5792.3	
313.92	3110.2	
314.13	3213.3	
314.34	5087.2	
314.55	4840.7	
314.76	3774.4	
314.96	3369.6	
315.17	4999.8	
315.38	5189.6	
315.59	3069.9	
315.8	2960	
316.01	5529.5	
316.21	5624.4	
316.42	2977.7	
316.63	3344.3	
316.84	4764.3	
317.05	5397.1	
317.26	3525.2	
317.46	3214.6	
317.67	4911.7	
317.88	5186.1	
318.09	3806.5	
318.3	2865.8	
318.5	4782	
318.71	5107.6	
318.92	4689.2	
319.13	3534.1	
319.34	5294	
319.54	5380	
319.75	2854.2	
319.96	2717	
320.17	5177.9	
320.38	5328.1	
320.58	2822.1	
320.79	3356.6	
321	5370.5	
321.21	5418.9	
321.42	3385.3	
321.62	2835.1	
321.83	4606.6	
322.04	4959.5	
322.25	3281.5	
322.46	3052.2	
322.66	4952.7	
322.87	5100.8	
323.08	3675.4	
323.29	2995.5	
323.5	5702.9	
323.7	4526.7	
323.91	4048.2	
324.12	3656.3	
324.33	4965.6	
324.53	5150	
324.74	3529.3	
324.95	3697.9	
325.16	4476.9	
325.37	4760.2	
325.57	3037.8	
325.78	3082.9	
325.99	4977.9	
326.2	4515.1	
326.4	4148.5	
326.61	2841.2	
326.82	4868	
327.03	4930.8	
327.24	4230.4	
327.44	3994.2	
327.65	5145.2	
327.86	4235.2	
328.07	3566.2	
328.27	3005.7	
328.48	5468.1	
328.69	4562.9	
328.9	4171	
329.1	3221.5	
329.31	4883	
329.52	5478.3	
329.73	3091.1	
329.93	3372.3	
330.14	4941.1	
330.35	5061.9	
330.56	4866.7	
330.76	3695.2	
330.97	4793.6	
331.18	5016.2	
331.39	3412.6	
331.59	2818.7	
331.8	5322.7	
332.01	5416.2	
332.22	3168.2	
332.42	3543	
332.63	5027.8	
332.84	4637.3	
333.05	3393.5	
333.25	3123.2	
333.46	4734.9	
333.67	4895.3	
333.88	3257.6	
334.08	3512.9	
334.29	6323.4	
334.5	5436.7	
334.7	3026.2	
334.91	4184.7	
335.12	4562.2	
335.33	5174.5	
335.53	3351.8	
335.74	4726.7	
335.95	4799.8	
336.16	4579.3	
336.36	3414	
336.57	3842	
336.78	4561.5	
336.98	5345.9	
337.19	4075.5	
337.4	3291.8	
337.61	5813.5	
337.81	4480.3	
338.02	3178.4	
338.23	3985.3	
338.43	5517.9	
338.64	4646.2	
338.85	3095.2	
339.05	3922.5	
339.26	5582.8	
339.47	4489.8	
339.68	3061.7	
339.88	4385.4	
340.09	5121.3	
340.3	5280.3	
340.5	3538.2	
340.71	2816.6	
340.92	4554	
341.13	5457.8	
341.33	2977.1	
341.54	3610.6	
341.75	5096.7	
341.95	4764.3	
342.16	3460.4	
342.37	3675.4	
342.57	4561.5	
342.78	4916.5	
342.99	3734.1	
343.19	2813.9	
343.4	5207.3	
343.61	5146.5	
343.81	3265.8	
344.02	2955.9	
344.23	5205.9	
344.43	5501.5	
344.64	3776.5	
344.85	3658.4	
345.06	5142.4	
345.26	5410.7	
345.47	3527.3	
345.68	4138.3	
345.88	4508.3	
346.09	5331.5	
346.3	3678.8	
346.5	2865.1	
346.71	4917.9	
346.92	4706.9	
347.12	2954.5	
347.33	3493.2	
347.54	5352.7	
347.74	5625.8	
347.95	3541.6	
348.16	2712.9	
348.36	4790.9	
348.57	4646.2	
348.78	3556.6	
348.98	3682.9	
349.19	4891.9	
349.39	4481.6	
349.6	2992.8	
349.81	3153.9	
350.01	5205.9	
350.22	4730.1	
350.43	3494.5	
350.63	4070	
350.84	4939	
351.05	4758.8	
351.25	3108.1	
351.46	2938.2	
351.67	5344.5	
351.87	4730.8	
352.08	3396.9	
352.29	3761.4	
352.49	5313.1	
352.7	5435.3	
352.9	3080.8	
353.11	3743.7	
353.32	5823.1	
353.52	4822.3	
353.73	3127.2	
353.94	3813.3	
354.14	5254.4	
354.35	5055.1	
354.55	3156.6	
354.76	3517	
354.97	5240.1	
355.17	5021.6	
355.38	3104	
355.59	4093.9	
355.79	4800.4	
356	5119.9	
356.2	3540.9	
356.41	3169.6	
356.62	4643.4	
356.82	5047.6	
357.03	3809.9	
357.24	3442.6	
357.44	4829.1	
357.65	4904.2	
357.85	4461.8	
358.06	3644	
358.27	4677.6	
358.47	4845.5	
358.68	3155.9	
358.88	3876.1	
359.09	5354.1	
359.3	5574.6	
359.5	4391.5	
359.71	4024.3	
359.91	5872.2	
360.12	5424.4	
360.33	3880.2	
360.53	4245.4	
360.74	5004.6	
360.94	5091.3	
361.15	4057	
361.36	3502.7	
361.56	5631.2	
361.77	5276.9	
361.97	4532.8	
362.18	3699.3	
362.38	5706.3	
362.59	4949.9	
362.8	3525.2	
363	3405.1	
363.21	4780.6	
363.41	5431.2	
363.62	3953.9	
363.83	4724	
364.03	5549.3	
364.24	6150.7	
364.44	4921.3	
364.65	4844.8	
364.85	5352.7	
365.06	5111.7	
365.27	3756.7	
365.47	3838.6	
365.68	6073.6	
365.88	5285.1	
366.09	4178.5	
366.29	3802.4	
366.5	5586.9	
366.71	5941.8	
366.91	4915.1	
367.12	4270.7	
367.32	6412.2	
367.53	5862.7	
367.73	4367.6	
367.94	5082.4	
368.14	5864.7	
368.35	6405.4	
368.56	4263.2	
368.76	4100.7	
368.97	6010.8	
369.17	7051.8	
369.38	3874.8	
369.58	4132.8	
369.79	5189.6	
369.99	6223.8	
370.2	4815.5	
370.4	4136.2	
370.61	5754.1	
370.82	6664.8	
371.02	4086.4	
371.23	3672	
371.43	5238	
371.64	6298.9	
371.84	4275.5	
372.05	5160.2	
372.25	7194.5	
372.46	6008.7	
372.66	4287.8	
372.87	4375.8	
373.07	6185.5	
373.28	7476.5	
373.48	5145.2	
373.69	4995.7	
373.9	5859.9	
374.1	5917.3	
374.31	5231.2	
374.51	4853	
374.72	6658.6	
374.92	5664.7	
375.13	5472.9	
375.33	4784.1	
375.54	6379.4	
375.74	6010.8	
375.95	5024.3	
376.15	5885.9	
376.36	6530.3	
376.56	6401.3	
376.77	5156.8	
376.97	5447.6	
377.18	7423.2	
377.38	6618.4	
377.59	5698.1	
377.79	4952.7	
378	6623.1	
378.2	6937.8	
378.41	5075.5	
378.61	5018.2	
378.82	7079.1	
379.02	6540.5	
379.23	5237.3	
379.43	6079.7	
379.64	7214.3	
379.84	6945.3	
380.05	5058.5	
380.25	5033.2	
380.46	6922.1	
380.66	6582.9	
380.87	6137.1	
381.07	6348	
381.28	7403.4	
381.48	6952.9	
381.69	4989.5	
381.89	5119.9	
382.1	6097.5	
382.3	6995.9	
382.51	5853.1	
382.71	6619.7	
382.91	6834.8	
383.12	7295.5	
383.32	5335.6	
383.53	5441.5	
383.73	6767.2	
383.94	6721.4	
384.14	5471.5	
384.35	4795	
384.55	6444.3	
384.76	6899.6	
384.96	5359.5	
385.17	5511.1	
385.37	6904.4	
385.58	6227.2	
385.78	5483.1	
385.98	4612.7	
386.19	6363	
386.39	6724.8	
386.6	5081	
386.8	5167	
387.01	6833.4	
387.21	6895.5	
387.42	5569.8	
387.62	5997.8	
387.83	6481.8	
388.03	6815.6	
388.23	5517.2	
388.44	6117.3	
388.64	6349.4	
388.85	6567.8	
389.05	5831.2	
389.26	6327.5	
389.46	8050.6	
389.67	7670.3	
389.87	6013.5	
390.07	5950	
390.28	7027.9	
390.48	6780.1	
390.69	5522.7	
390.89	5721.3	
391.1	6966.5	
391.3	7612.3	
391.5	6621.1	
391.71	7081.9	
391.91	7553.6	
392.12	8170.7	
392.32	6809.5	
392.53	6170.5	
392.73	7169.3	
392.93	7135.1	
393.14	5968.5	
393.34	6529.6	
393.55	7448.5	
393.75	7087.3	
393.95	5780.1	
394.16	5744.6	
394.36	7000	
394.57	7355.6	
394.77	5366.4	
394.98	5693.4	
395.18	7061.4	
395.38	7005.4	
395.59	6611.5	
395.79	5915.9	
396	7286.7	
396.2	7747.5	
396.4	6702.3	
396.61	6740.5	
396.81	7944.8	
397.02	7567.2	
397.22	7163.1	
397.42	7225.9	
397.63	8223.3	
397.83	7694.2	
398.04	6243.6	
398.24	6859.3	
398.44	7932.5	
398.65	7408.2	
398.85	6279.8	
399.05	6369.9	
399.26	7941.3	
399.46	9121	
399.67	6847.7	
399.87	6523.5	
400.07	8206.9	
400.28	8512	
400.48	6667.5	
400.69	7705.8	
400.89	8837	
401.09	9170.8	
401.3	6900.3	
401.5	7666.9	
401.7	9648	
401.91	9621.4	
402.11	7346.1	
402.32	7364.5	
402.52	9174.2	
402.72	8833.6	
402.93	7648.5	
403.13	6630	
403.33	9512.8	
403.54	8144.1	
403.74	7092.8	
403.94	7582.9	
404.15	8136.6	
404.35	9092.3	
404.56	6615.6	
404.76	8097	
404.96	8389.8	
405.17	8263.6	
405.37	7725.6	
405.57	7145.4	
405.78	8850	
405.98	8214.4	
406.18	7148.8	
406.39	7884.7	
406.59	8966.7	
406.79	8558.5	
407	6952.9	
407.2	6954.2	
407.4	8994.7	
407.61	9088.2	
407.81	7153.6	
408.01	8527.7	
408.22	8236.9	
408.42	9953.8	
408.62	8396	
408.83	8137.3	
409.03	9389.9	
409.23	9442.5	
409.44	8665.6	
409.64	8966	
409.84	10817	
410.05	10989	
410.25	9387.2	
410.45	9206.3	
410.66	11188	
410.86	12808	
411.06	10224	
411.27	9801.6	
411.47	13200	
411.67	11493	
411.88	10206	
412.08	10896	
412.28	12224	
412.49	12679	
412.69	10758	
412.89	10725	
413.09	12585	
413.3	12874	
413.5	11079	
413.7	10932	
413.91	12229	
414.11	12953	
414.31	11142	
414.52	11684	
414.72	12738	
414.92	13140	
415.12	11285	
415.33	11729	
415.53	13424	
415.73	13568	
415.94	11921	
416.14	11651	
416.34	12838	
416.55	12478	
416.75	12648	
416.95	12290	
417.15	13885	
417.36	13973	
417.56	13190	
417.76	12500	
417.97	14101	
418.17	14057	
418.37	12151	
418.57	12405	
418.78	14041	
418.98	13682	
419.18	13013	
419.38	12980	
419.59	13923	
419.79	13325	
419.99	12360	
420.2	12437	
420.4	14160	
420.6	14000	
420.8	12133	
421.01	11947	
421.21	14198	
421.41	14177	
421.61	12446	
421.82	12327	
422.02	13933	
422.22	14384	
422.42	13087	
422.63	12270	
422.83	13934	
423.03	14952	
423.23	12446	
423.44	11861	
423.64	13844	
423.84	13316	
424.04	12160	
424.25	11966	
424.45	14218	
424.65	14283	
424.85	11630	
425.06	12177	
425.26	14418	
425.46	13545	
425.66	12406	
425.87	12151	
426.07	14080	
426.27	13936	
426.47	12323	
426.67	11719	
426.88	14220	
427.08	13848	
427.28	12677	
427.48	11544	
427.69	12844	
427.89	13457	
428.09	12349	
428.29	11616	
428.5	13997	
428.7	13735	
428.9	11745	
429.1	12050	
429.3	13760	
429.51	14121	
429.71	11785	
429.91	12652	
430.11	14152	
430.31	14848	
430.52	12568	
430.72	12994	
430.92	14850	
431.12	14488	
431.32	12588	
431.53	12742	
431.73	13866	
431.93	14971	
432.13	12281	
432.33	12513	
432.54	14158	
432.74	14529	
432.94	12677	
433.14	13103	
433.34	14571	
433.55	14652	
433.75	13380	
433.95	15343	
434.15	14887	
434.35	14704	
434.56	12963	
434.76	13030	
434.96	15019	
435.16	15526	
435.36	13210	
435.56	14526	
435.77	15338	
435.97	15470	
436.17	15155	
436.37	14442	
436.57	15357	
436.78	15670	
436.98	15544	
437.18	14886	
437.38	16505	
437.58	15586	
437.78	15010	
437.99	14067	
438.19	15744	
438.39	16656	
438.59	14128	
438.79	13515	
438.99	16445	
439.2	15295	
439.4	13026	
439.6	13275	
439.8	15401	
440	16214	
440.2	14272	
440.4	14361	
440.61	16089	
440.81	16650	
441.01	14382	
441.21	15749	
441.41	17785	
441.61	16941	
441.81	16145	
442.02	16946	
442.22	18000	
442.42	17546	
442.62	15230	
442.82	15039	
443.02	17899	
443.22	17283	
443.43	15812	
443.63	15250	
443.83	16929	
444.03	17005	
444.23	16792	
444.43	16333	
444.63	17838	
444.83	18503	
445.04	16288	
445.24	16980	
445.44	17993	
445.64	18316	
445.84	16149	
446.04	16597	
446.24	17210	
446.44	18118	
446.65	15370	
446.85	16214	
447.05	16850	
447.25	17698	
447.45	15634	
447.65	15315	
447.85	17073	
448.05	16412	
448.25	16253	
448.46	16040	
448.66	17316	
448.86	16891	
449.06	15452	
449.26	16137	
449.46	17692	
449.66	16893	
449.86	16348	
450.06	15954	
450.26	17307	
450.47	17879	
450.67	16090	
450.87	16714	
451.07	18166	
451.27	18135	
451.47	15720	
451.67	16734	
451.87	17974	
452.07	18486	
452.27	16705	
452.47	16232	
452.67	18103	
452.88	18648	
453.08	15611	
453.28	17499	
453.48	19646	
453.68	17774	
453.88	16781	
454.08	16516	
454.28	18735	
454.48	18415	
454.68	17035	
454.88	17317	
455.08	18581	
455.28	19241	
455.48	16244	
455.68	17539	
455.89	19796	
456.09	19530	
456.29	17146	
456.49	17880	
456.69	20140	
456.89	19259	
457.09	18328	
457.29	18987	
457.49	19871	
457.69	20280	
457.89	18862	
458.09	18132	
458.29	20300	
458.49	20932	
458.69	19359	
458.89	19305	
459.09	21781	
459.29	21795	
459.49	19135	
459.69	20055	
459.9	21214	
460.1	21534	
460.3	18834	
460.5	19110	
460.7	21439	
460.9	21147	
461.1	19019	
461.3	20343	
461.5	22258	
461.7	22012	
461.9	20327	
462.1	20232	
462.3	22077	
462.5	22644	
462.7	20427	
462.9	20937	
463.1	23732	
463.3	24088	
463.5	21011	
463.7	22598	
463.9	23344	
464.1	23636	
464.3	22504	
464.5	22138	
464.7	24281	
464.9	24883	
465.1	23720	
465.3	23155	
465.5	24711	
465.7	25321	
465.9	23853	
466.1	22646	
466.3	25529	
466.5	24562	
466.7	24933	
466.9	23383	
467.1	25507	
467.3	25933	
467.5	25141	
467.7	24091	
467.9	26342	
468.1	27274	
468.3	24265	
468.5	25211	
468.7	26167	
468.9	25768	
469.1	24815	
469.3	25662	
469.5	28008	
469.7	26441	
469.9	25011	
470.1	25233	
470.3	26576	
470.5	26768	
470.7	26143	
470.9	25077	
471.1	26866	
471.3	26174	
471.5	25142	
471.69	26254	
471.89	26065	
472.09	25545	
472.29	25412	
472.49	25053	
472.69	26269	
472.89	26346	
473.09	24914	
473.29	24156	
473.49	26022	
473.69	25661	
473.89	25251	
474.09	24366	
474.29	26621	
474.49	26385	
474.69	25026	
474.89	24229	
475.09	25692	
475.29	25914	
475.49	23873	
475.69	24599	
475.88	26639	
476.08	26090	
476.28	24227	
476.48	24013	
476.68	25940	
476.88	25684	
477.08	23658	
477.28	24423	
477.48	24945	
477.68	25090	
477.88	23698	
478.08	23597	
478.28	26059	
478.48	25149	
478.67	24096	
478.87	22923	
479.07	26657	
479.27	25500	
479.47	24121	
479.67	24580	
479.87	26229	
480.07	26598	
480.27	23976	
480.47	24646	
480.67	25614	
480.87	26585	
481.06	23926	
481.26	24921	
481.46	25972	
481.66	26004	
481.86	24617	
482.06	25518	
482.26	25703	
482.46	26331	
482.66	24503	
482.86	24288	
483.05	26483	
483.25	25741	
483.45	26487	
483.65	24494	
483.85	25969	
484.05	26478	
484.25	25159	
484.45	25930	
484.65	26943	
484.84	27768	
485.04	24997	
485.24	25251	
485.44	27814	
485.64	26327	
485.84	25077	
486.04	26260	
486.24	27052	
486.44	27209	
486.63	25114	
486.83	26252	
487.03	27325	
487.23	28016	
487.43	25385	
487.63	27658	
487.83	28001	
488.02	28536	
488.22	26957	
488.42	27778	
488.62	28928	
488.82	28252	
489.02	26524	
489.22	27296	
489.41	28730	
489.61	28970	
489.81	26656	
490.01	27014	
490.21	29175	
490.41	29909	
490.61	27190	
490.8	27263	
491	29392	
491.2	28321	
491.4	27635	
491.6	27115	
491.8	28855	
491.99	28528	
492.19	26551	
492.39	26533	
492.59	28829	
492.79	28682	
492.99	27037	
493.18	26527	
493.38	28784	
493.58	30408	
493.78	27768	
493.98	27445	
494.18	29683	
494.37	29866	
494.57	29389	
494.77	29383	
494.97	31137	
495.17	31795	
495.37	29635	
495.56	29982	
495.76	32556	
495.96	32428	
496.16	31463	
496.36	31013	
496.55	33246	
496.75	33266	
496.95	31554	
497.15	31758	
497.35	33125	
497.54	33733	
497.74	31262	
497.94	33095	
498.14	34211	
498.34	33759	
498.53	31425	
498.73	31936	
498.93	33310	
499.13	33693	
499.33	32316	
499.52	32334	
499.72	34731	
499.92	34172	
500.12	32311	
500.32	32644	
500.51	34615	
500.71	35022	
500.91	33571	
501.11	33282	
501.31	34970	
501.5	35049	
501.7	33863	
501.9	33084	
502.1	34751	
502.29	34840	
502.49	33658	
502.69	33535	
502.89	34741	
503.09	35026	
503.28	32212	
503.48	32443	
503.68	33867	
503.88	33870	
504.07	32922	
504.27	32161	
504.47	34024	
504.67	33716	
504.86	32631	
505.06	32201	
505.26	33398	
505.46	34794	
505.65	32146	
505.85	31984	
506.05	33013	
506.25	33283	
506.44	30795	
506.64	31193	
506.84	32485	
507.04	32660	
507.23	30448	
507.43	30786	
507.63	33417	
507.83	32301	
508.02	30906	
508.22	30597	
508.42	33957	
508.62	32267	
508.81	30788	
509.01	31465	
509.21	31648	
509.4	32290	
509.6	30652	
509.8	30403	
510	31900	
510.19	33388	
510.39	30039	
510.59	30475	
510.79	31967	
510.98	33651	
511.18	30989	
511.38	31201	
511.57	32978	
511.77	32877	
511.97	31429	
512.17	30583	
512.36	33056	
512.56	32463	
512.76	30452	
512.95	30200	
513.15	32586	
513.35	31597	
513.55	31120	
513.74	30282	
513.94	32618	
514.14	32237	
514.33	31258	
514.53	31073	
514.73	32018	
514.92	32474	
515.12	30930	
515.32	30681	
515.51	32404	
515.71	32827	
515.91	31979	
516.11	30877	
516.3	34144	
516.5	32375	
516.7	31512	
516.89	32137	
517.09	32617	
517.29	32724	
517.48	32063	
517.68	31231	
517.88	32595	
518.07	33011	
518.27	31837	
518.47	30867	
518.66	33292	
518.86	32353	
519.06	30487	
519.25	30807	
519.45	32362	
519.65	33780	
519.84	31399	
520.04	32365	
520.24	34149	
520.43	33156	
520.63	31365	
520.83	31397	
521.02	32712	
521.22	33012	
521.42	31248	
521.61	31952	
521.81	32381	
522.01	32052	
522.2	30814	
522.4	30373	
522.6	32333	
522.79	31668	
522.99	30731	
523.18	30608	
523.38	32636	
523.58	33219	
523.77	32937	
523.97	31562	
524.17	35220	
524.36	34897	
524.56	32991	
524.76	32926	
524.95	35028	
525.15	34578	
525.34	33727	
525.54	34046	
525.74	35792	
525.93	35520	
526.13	35227	
526.33	34808	
526.52	37085	
526.72	36712	
526.91	36033	
527.11	35752	
527.31	37081	
527.5	37608	
527.7	35798	
527.89	34861	
528.09	36460	
528.29	37099	
528.48	35422	
528.68	35359	
528.87	37506	
529.07	37132	
529.27	36035	
529.46	36216	
529.66	38348	
529.85	38789	
530.05	36366	
530.25	36798	
530.44	39584	
530.64	37843	
530.83	36237	
531.03	36762	
531.23	38220	
531.42	37732	
531.62	36738	
531.81	35994	
532.01	38264	
532.21	38709	
532.4	36742	
532.6	37567	
532.79	39679	
532.99	39675	
533.18	38214	
533.38	39048	
533.58	40396	
533.77	40572	
533.97	39178	
534.16	39615	
534.36	41215	
534.55	40619	
534.75	39955	
534.95	39378	
535.14	41941	
535.34	41108	
535.53	39290	
535.73	40750	
535.92	42235	
536.12	40942	
536.31	39271	
536.51	40077	
536.71	40951	
536.9	40647	
537.1	38561	
537.29	39037	
537.49	40658	
537.68	39967	
537.88	39264	
538.07	38483	
538.27	40629	
538.46	41223	
538.66	38693	
538.86	39278	
539.05	40706	
539.25	41193	
539.44	40034	
539.64	39294	
539.83	40833	
540.03	41674	
540.22	39502	
540.42	38943	
540.61	40483	
540.81	41034	
541	38664	
541.2	39810	
541.39	39870	
541.59	40319	
541.78	39520	
541.98	38124	
542.18	39695	
542.37	39612	
542.57	38107	
542.76	39532	
542.96	39352	
543.15	39834	
543.35	38094	
543.54	37660	
543.74	39296	
543.93	39133	
544.13	37080	
544.32	37980	
544.52	38728	
544.71	37913	
544.91	36255	
545.1	36855	
545.3	38166	
545.49	38528	
545.69	36134	
545.88	36452	
546.08	39453	
546.27	38681	
546.47	36996	
546.66	36166	
546.86	38438	
547.05	38742	
547.24	36334	
547.44	36412	
547.63	37233	
547.83	38586	
548.02	36566	
548.22	36369	
548.41	37132	
548.61	37924	
548.8	35775	
549	35822	
549.19	37325	
549.39	37814	
549.58	35361	
549.78	35819	
549.97	37756	
550.17	36807	
550.36	35688	
550.55	36890	
550.75	36810	
550.94	37431	
551.14	35194	
551.33	34716	
551.53	36445	
551.72	36889	
551.92	34936	
552.11	34845	
552.31	36775	
552.5	36589	
552.69	35830	
552.89	34161	
553.08	36646	
553.28	36122	
553.47	34741	
553.67	35449	
553.86	36590	
554.06	35403	
554.25	33613	
554.44	34398	
554.64	36953	
554.83	36668	
555.03	34210	
555.22	34288	
555.42	36048	
555.61	35913	
555.8	33834	
556	34043	
556.19	35182	
556.39	35773	
556.58	33789	
556.78	33658	
556.97	35481	
557.16	35348	
557.36	34524	
557.55	33509	
557.75	34312	
557.94	36235	
558.13	33589	
558.33	33322	
558.52	36107	
558.72	35054	
558.91	33342	
559.1	33281	
559.3	34727	
559.49	34108	
559.69	32866	
559.88	33643	
560.07	34886	
560.27	35517	
560.46	33461	
560.66	33686	
560.85	35000	
561.04	33929	
561.24	32969	
561.43	32438	
561.63	34175	
561.82	34179	
562.01	33935	
562.21	32950	
562.4	34286	
562.59	35564	
562.79	32789	
562.98	32645	
563.18	34455	
563.37	35782	
563.56	33241	
563.76	33126	
563.95	34426	
564.14	34536	
564.34	33597	
564.53	33221	
564.73	35211	
564.92	35641	
565.11	33829	
565.31	33273	
565.5	35491	
565.69	34908	
565.89	33658	
566.08	33927	
566.27	35703	
566.47	36375	
566.66	34590	
566.85	33729	
567.05	35770	
567.24	35469	
567.44	33832	
567.63	35020	
567.82	35920	
568.02	35794	
568.21	34138	
568.4	34269	
568.6	35903	
568.79	35884	
568.98	33806	
569.18	34168	
569.37	36028	
569.56	37593	
569.76	34843	
569.95	35332	
570.14	36339	
570.34	36708	
570.53	34417	
570.72	34638	
570.91	36970	
571.11	36347	
571.3	34959	
571.49	35549	
571.69	36506	
571.88	36085	
572.07	35454	
572.27	35007	
572.46	36130	
572.65	37022	
572.85	34986	
573.04	35336	
573.23	37350	
573.43	36612	
573.62	34940	
573.81	35417	
574	36982	
574.2	36663	
574.39	35339	
574.58	35738	
574.78	38272	
574.97	37649	
575.16	36480	
575.36	37028	
575.55	38650	
575.74	38521	
575.93	36095	
576.13	37624	
576.32	38173	
576.51	38829	
576.71	36841	
576.9	38257	
577.09	39222	
577.28	38520	
577.48	37294	
577.67	36390	
577.86	38366	
578.05	38954	
578.25	37066	
578.44	36949	
578.63	38496	
578.83	39559	
579.02	36459	
579.21	38174	
579.4	39044	
579.6	38771	
579.79	37576	
579.98	39120	
580.17	39177	
580.37	39638	
580.56	36738	
580.75	37662	
580.94	39403	
581.14	39464	
581.33	38070	
581.52	37094	
581.71	39307	
581.91	39748	
582.1	37162	
582.29	37214	
582.48	39094	
582.68	39514	
582.87	38041	
583.06	37884	
583.25	39501	
583.45	39242	
583.64	38690	
583.83	39150	
584.02	39226	
584.21	39636	
584.41	38061	
584.6	38042	
584.79	39536	
584.98	40202	
585.18	37711	
585.37	37667	
585.56	39380	
585.75	39977	
585.94	37506	
586.14	38206	
586.33	39652	
586.52	39393	
586.71	37623	
586.91	37472	
587.1	38111	
587.29	39155	
587.48	36581	
587.67	37098	
587.87	38505	
588.06	38289	
588.25	37517	
588.44	36777	
588.63	37783	
588.83	38164	
589.02	36080	
589.21	35742	
589.4	37061	
589.59	37162	
589.78	34392	
589.98	34592	
590.17	35799	
590.36	36028	
590.55	32810	
590.74	32947	
590.94	35653	
591.13	34051	
591.32	32024	
591.51	31274	
591.7	33745	
591.89	33474	
592.09	31314	
592.28	32020	
592.47	32856	
592.66	35054	
592.85	32218	
593.05	32415	
593.24	34068	
593.43	34897	
593.62	32718	
593.81	32995	
594	34271	
594.19	34271	
594.39	32465	
594.58	32322	
594.77	34334	
594.96	34692	
595.15	32180	
595.34	32983	
595.54	34205	
595.73	33284	
595.92	31406	
596.11	32064	
596.3	34180	
596.49	33030	
596.68	31392	
596.88	31949	
597.07	33617	
597.26	32771	
597.45	31107	
597.64	32261	
597.83	33126	
598.02	33809	
598.22	31366	
598.41	31794	
598.6	33510	
598.79	33064	
598.98	31146	
599.17	31946	
599.36	33170	
599.55	33778	
599.74	32789	
599.94	32664	
600.13	33444	
600.32	32451	
600.51	30777	
600.7	31007	
600.89	33710	
601.08	33793	
601.27	30554	
601.47	31571	
601.66	33085	
601.85	33490	
602.04	31340	
602.23	31191	
602.42	32406	
602.61	32756	
602.8	30890	
602.99	30538	
603.18	32377	
603.37	32630	
603.57	30650	
603.76	31058	
603.95	32941	
604.14	32654	
604.33	30439	
604.52	30867	
604.71	32925	
604.9	32195	
605.09	31053	
605.28	31161	
605.47	33384	
605.66	32518	
605.86	31167	
606.05	30730	
606.24	32989	
606.43	31720	
606.62	30772	
606.81	31370	
607	32554	
607.19	32419	
607.38	30137	
607.57	30301	
607.76	31872	
607.95	31300	
608.14	30517	
608.33	30999	
608.52	31683	
608.72	32445	
608.91	29791	
609.1	29807	
609.29	31497	
609.48	31029	
609.67	30092	
609.86	29575	
610.05	30965	
610.24	31275	
610.43	29434	
610.62	28904	
610.81	31901	
611	31883	
611.19	29237	
611.38	29817	
611.57	31404	
611.76	32329	
611.95	28860	
612.14	28665	
612.33	31055	
612.52	30696	
612.71	29419	
612.9	28978	
613.09	30424	
613.28	32306	
613.47	29035	
613.66	30018	
613.85	31405	
614.04	30662	
614.24	29216	
614.43	28550	
614.62	31254	
614.81	31170	
615	29414	
615.19	29873	
615.38	30636	
615.57	31013	
615.76	29515	
615.95	30452	
616.14	31397	
616.33	31174	
616.52	30042	
616.71	30279	
616.9	31201	
617.09	31219	
617.28	29339	
617.47	30130	
617.66	30412	
617.85	30488	
618.04	30140	
618.22	29659	
618.41	31294	
618.6	32372	
618.79	30326	
618.98	30313	
619.17	32759	
619.36	31371	
619.55	30537	
619.74	30507	
619.93	32307	
620.12	32425	
620.31	31268	
620.5	31493	
620.69	33338	
620.88	33940	
621.07	32282	
621.26	31747	
621.45	33484	
621.64	33633	
621.83	31836	
622.02	31483	
622.21	33309	
622.4	33459	
622.59	32651	
622.78	32415	
622.97	33063	
623.16	33976	
623.35	32253	
623.54	31451	
623.72	33435	
623.91	33418	
624.1	32387	
624.29	31535	
624.48	34398	
624.67	33770	
624.86	32495	
625.05	31879	
625.24	34631	
625.43	33401	
625.62	33663	
625.81	31965	
626	33746	
626.19	33760	
626.38	32657	
626.56	31810	
626.75	33570	
626.94	34468	
627.13	32363	
627.32	31618	
627.51	34247	
627.7	35188	
627.89	31465	
628.08	32725	
628.27	33200	
628.46	33459	
628.65	31645	
628.83	31427	
629.02	33639	
629.21	32976	
629.4	32022	
629.59	32115	
629.78	33381	
629.97	33847	
630.16	32522	
630.35	31892	
630.54	34377	
630.72	33974	
630.91	31851	
631.1	32035	
631.29	33718	
631.48	33726	
631.67	32178	
631.86	31576	
632.05	33394	
632.24	33510	
632.42	31398	
632.61	31810	
632.8	32988	
632.99	33112	
633.18	32117	
633.37	32122	
633.56	33512	
633.75	33508	
633.93	31933	
634.12	31670	
634.31	33856	
634.5	34006	
634.69	31892	
634.88	31930	
635.07	33195	
635.25	33663	
635.44	32402	
635.63	32795	
635.82	33231	
636.01	32591	
636.2	31929	
636.39	31941	
636.57	33739	
636.76	33039	
636.95	31204	
637.14	31985	
637.33	33224	
637.52	33679	
637.7	31025	
637.89	31646	
638.08	33133	
638.27	33802	
638.46	31851	
638.65	32036	
638.83	33567	
639.02	32460	
639.21	31479	
639.4	31853	
639.59	32714	
639.78	32417	
639.96	30488	
640.15	30508	
640.34	32243	
640.53	32316	
640.72	30286	
640.91	30036	
641.09	31542	
641.28	32522	
641.47	30141	
641.66	30847	
641.85	32066	
642.03	31959	
642.22	30322	
642.41	29947	
642.6	31404	
642.79	30836	
642.97	29515	
643.16	30207	
643.35	31208	
643.54	30633	
643.73	29393	
643.91	29826	
644.1	30370	
644.29	31340	
644.48	28977	
644.67	29179	
644.85	30326	
645.04	30674	
645.23	28240	
645.42	28647	
645.6	29640	
645.79	30025	
645.98	27694	
646.17	26816	
646.36	28685	
646.54	28756	
646.73	27663	
646.92	26867	
647.11	28442	
647.29	29106	
647.48	26989	
647.67	26468	
647.86	29074	
648.05	29249	
648.23	26741	
648.42	27652	
648.61	28401	
648.8	28360	
648.98	26091	
649.17	26518	
649.36	27411	
649.55	27405	
649.73	25826	
649.92	26609	
650.11	27853	
650.3	28136	
650.48	26144	
650.67	26125	
650.86	28115	
651.05	27252	
651.23	26128	
651.42	25716	
651.61	27415	
651.79	27008	
651.98	26004	
652.17	25599	
652.36	27252	
652.54	26622	
652.73	25381	
652.92	25284	
653.11	27111	
653.29	27414	
653.48	24703	
653.67	25573	
653.85	27151	
654.04	27636	
654.23	25394	
654.42	24922	
654.6	25776	
654.79	26320	
654.98	23883	
655.16	24089	
655.35	24836	
655.54	24650	
655.73	22951	
655.91	22340	
656.1	24453	
656.29	23705	
656.47	21970	
656.66	23340	
656.85	24098	
657.03	24380	
657.22	22992	
657.41	23464	
657.59	24794	
657.78	24962	
657.97	23565	
658.16	24185	
658.34	25572	
658.53	26292	
658.72	24824	
658.9	25174	
659.09	25667	
659.28	25527	
659.46	24078	
659.65	23933	
659.84	25380	
660.02	25955	
660.21	24019	
660.4	23923	
660.58	26181	
660.77	25716	
660.96	24522	
661.14	23699	
661.33	26481	
661.52	26369	
661.7	23659	
661.89	26329	
662.08	25290	
662.26	25141	
662.45	23791	
662.64	23780	
662.82	25649	
663.01	25103	
663.2	23558	
663.38	24176	
663.57	25266	
663.75	25371	
663.94	23804	
664.13	24635	
664.31	24793	
664.5	25170	
664.69	23840	
664.87	24380	
665.06	24707	
665.25	25297	
665.43	24451	
665.62	24406	
665.8	25251	
665.99	24795	
666.18	23457	
666.36	23733	
666.55	25141	
666.74	25160	
666.92	23294	
667.11	24161	
667.29	24535	
667.48	25037	
667.67	23976	
667.85	23049	
668.04	24368	
668.22	24804	
668.41	23182	
668.6	23461	
668.78	24347	
668.97	24523	
669.15	23472	
669.34	22570	
669.53	24272	
669.71	24661	
669.9	22623	
670.08	23145	
670.27	24365	
670.46	24525	
670.64	23249	
670.83	23694	
671.01	24094	
671.2	24287	
671.38	22711	
671.57	22555	
671.76	24970	
671.94	25358	
672.13	22457	
672.31	23179	
672.5	24765	
672.69	24230	
672.87	22738	
673.06	23036	
673.24	24602	
673.43	24302	
673.61	23167	
673.8	22773	
673.98	24349	
674.17	24658	
674.36	23221	
674.54	23105	
674.73	24030	
674.91	24537	
675.1	22864	
675.28	22573	
675.47	24129	
675.65	24516	
675.84	22752	
676.03	23058	
676.21	23849	
676.4	23417	
676.58	23031	
676.77	23303	
676.95	24901	
677.14	23681	
677.32	22338	
677.51	22227	
677.69	24483	
677.88	23643	
678.06	22238	
678.25	22345	
678.44	24171	
678.62	23639	
678.81	22122	
678.99	22905	
679.18	24502	
679.36	24326	
679.55	22532	
679.73	22905	
679.92	24019	
680.1	23629	
680.29	23438	
680.47	22504	
680.66	23651	
680.84	24188	
681.03	21875	
681.21	22985	
681.4	23808	
681.58	23625	
681.77	22204	
681.95	22040	
682.14	24090	
682.32	24339	
682.51	22801	
682.69	21568	
682.88	23298	
683.06	23327	
683.25	22229	
683.43	22495	
683.62	23530	
683.8	23834	
683.99	22735	
684.17	22173	
684.36	24268	
684.54	23094	
684.73	21162	
684.91	21080	
685.1	22842	
685.28	22150	
685.46	20634	
685.65	20390	
685.83	21490	
686.02	20682	
686.2	18993	
686.39	19061	
686.57	20238	
686.76	21494	
686.94	19221	
687.13	19355	
687.31	21209	
687.5	21178	
687.68	19228	
687.86	20350	
688.05	22552	
688.23	21107	
688.42	20438	
688.6	20044	
688.79	21362	
688.97	21321	
689.16	20371	
689.34	19582	
689.52	22348	
689.71	22358	
689.89	20979	
690.08	20354	
690.26	22099	
690.45	22064	
690.63	20950	
690.81	20809	
691	21944	
691.18	22072	
691.37	20593	
691.55	22253	
691.74	21642	
691.92	23137	
692.1	20410	
692.29	19768	
692.47	21723	
692.66	20895	
692.84	19898	
693.02	20197	
693.21	21076	
693.39	21244	
693.58	20557	
693.76	20036	
693.94	22418	
694.13	22511	
694.31	20440	
694.5	21058	
694.68	21728	
694.86	22273	
695.05	21037	
695.23	21076	
695.42	22792	
695.6	24614	
695.78	21841	
695.97	21083	
696.15	23038	
696.34	22394	
696.52	20897	
696.7	21361	
696.89	22524	
697.07	21837	
697.25	21006	
697.44	22334	
697.62	22158	
697.81	22138	
697.99	20445	
698.17	20839	
698.36	21278	
698.54	21742	
698.72	20646	
698.91	19673	
699.09	21375	
699.28	21238	
699.46	19996	
699.64	19948	
699.83	20964	
700.01	21641	
700.19	20485	
700.38	19214	
700.56	21648	
700.74	20944	
700.93	19359	
701.11	20200	
701.29	21337	
701.48	22438	
701.66	19852	
701.84	19931	
702.03	21171	
702.21	22263	
702.39	19420	
702.58	20138	
702.76	21713	
702.94	21710	
703.13	19596	
703.31	21405	
703.49	21169	
703.68	22404	
703.86	19476	
704.04	20393	
704.23	21153	
704.41	21485	
704.59	19482	
704.78	20172	
704.96	22375	
705.14	21417	
705.33	19292	
705.51	19826	
705.69	20930	
705.87	21496	
706.06	19938	
706.24	19060	
706.42	21160	
706.61	21349	
706.79	19699	
706.97	18862	
707.16	20304	
707.34	20640	
707.52	19328	
707.7	18952	
707.89	20240	
708.07	19989	
708.25	19533	
708.44	19887	
708.62	20054	
708.8	20779	
708.98	19448	
709.17	18808	
709.35	20166	
709.53	19932	
709.72	18333	
709.9	18334	
710.08	20138	
710.26	20063	
710.45	19217	
710.63	18226	
710.81	19614	
710.99	19484	
711.18	18236	
711.36	17780	
711.54	19180	
711.72	19665	
711.91	17681	
712.09	17186	
712.27	18970	
712.45	19358	
712.64	17363	
712.82	16553	
713	17719	
713.18	17740	
713.37	16107	
713.55	16887	
713.73	18090	
713.91	16803	
714.1	15739	
714.28	15109	
714.46	16888	
714.64	15772	
714.83	13542	
715.01	13637	
715.19	14653	
715.37	13718	
715.55	12613	
715.74	12540	
715.92	14532	
716.1	12955	
716.28	13251	
716.47	12330	
716.65	13188	
716.83	13145	
717.01	12005	
717.19	11827	
717.38	14552	
717.56	12666	
717.74	12009	
717.92	11372	
718.1	13599	
718.29	12959	
718.47	11185	
718.65	11786	
718.83	14202	
719.01	14294	
719.2	11964	
719.38	13084	
719.56	14440	
719.74	15763	
719.92	12846	
720.11	13480	
720.29	14545	
720.47	13620	
720.65	11845	
720.83	12463	
721.02	13089	
721.2	12777	
721.38	11769	
721.56	11004	
721.74	11944	
721.92	12071	
722.11	11872	
722.29	11647	
722.47	12831	
722.65	12216	
722.83	10836	
723.01	11321	
723.2	12223	
723.38	12400	
723.56	10099	
723.74	11042	
723.92	11752	
724.1	12568	
724.29	10452	
724.47	11276	
724.65	11707	
724.83	11603	
725.01	10225	
725.19	10737	
725.37	11265	
725.56	11260	
725.74	9918.3	
725.92	10150	
726.1	11384	
726.28	11548	
726.46	10319	
726.64	10122	
726.83	11159	
727.01	11462	
727.19	9679.4	
727.37	10335	
727.55	11531	
727.73	11813	
727.91	9620	
728.09	9491.7	
728.28	11811	
728.46	11940	
728.64	10296	
728.82	10230	
729	12463	
729.18	11989	
729.36	9624.8	
729.54	11307	
729.72	12952	
729.91	11641	
730.09	11316	
730.27	10396	
730.45	11555	
730.63	11957	
730.81	10883	
730.99	10137	
731.17	12508	
731.35	11317	
731.53	10458	
731.71	10303	
731.9	12194	
732.08	12083	
732.26	10266	
732.44	9865.1	
732.62	12127	
732.8	11703	
732.98	10375	
733.16	9606.3	
733.34	11533	
733.52	10363	
733.7	9755.8	
733.88	9912.2	
734.07	11138	
734.25	11061	
734.43	9233.6	
734.61	10363	
734.79	12213	
734.97	10822	
735.15	9202.2	
735.33	9519	
735.51	11017	
735.69	10667	
735.87	10199	
736.05	9519.6	
736.23	10689	
736.41	10495	
736.59	9208.4	
736.77	9386.5	
736.95	11005	
737.13	10515	
737.32	8932.6	
737.5	9155.1	
737.68	11370	
737.86	10286	
738.04	8603.5	
738.22	9991.4	
738.4	9929.2	
738.58	10186	
738.76	8916.9	
738.94	8143.4	
739.12	9973.6	
739.3	9962	
739.48	9373.6	
739.66	9079.3	
739.84	10119	
740.02	10032	
740.2	8143.4	
740.38	8267.6	
740.56	10228	
740.74	9319.6	
740.92	8754.4	
741.1	8533.9	
741.28	9687.6	
741.46	9420	
741.64	8158.4	
741.82	8549.6	
742	9513.5	
742.18	9450.7	
742.36	8152.3	
742.54	7863.5	
742.72	9839.1	
742.9	8822	
743.08	8408.3	
743.26	7410.2	
743.44	9785.2	
743.62	9660.3	
743.8	8415.8	
743.98	7641	
744.16	9308.7	
744.34	9121	
744.52	8120.9	
744.7	8039	
744.88	9373.6	
745.06	8926.4	
745.24	8062.2	
745.42	8016.4	
745.6	9320.3	
745.78	9045.9	
745.96	6936.5	
746.14	7150.8	
746.32	9717.6	
746.5	9037.7	
746.68	7514.7	
746.86	7056.6	
747.03	9338.1	
747.21	8033.5	
747.39	7395.2	
747.57	6939.2	
747.75	8576.9	
747.93	8871.1	
748.11	6873.7	
748.29	6825.9	
748.47	9791.3	
748.65	8245.1	
748.83	7341.3	
749.01	7208.8	
749.19	8625.4	
749.37	7955	
749.55	6949.4	
749.73	7024.5	
749.91	8327	
750.09	8048.5	
750.26	7008.1	
750.44	6533.7	
750.62	8330.5	
750.8	8188.5	
750.98	6331	
751.16	6623.1	
751.34	8260.1	
751.52	7721.5	
751.7	7234.1	
751.88	6289.3	
752.06	8555	
752.24	8260.1	
752.42	6199.2	
752.59	6472.9	
752.77	7989.8	
752.95	8914.8	
753.13	7004.1	
753.31	6468.2	
753.49	7670.3	
753.67	7940.7	
753.85	6531.7	
754.03	6247	
754.21	8075.8	
754.38	8212.4	
754.56	6141.2	
754.74	5330.9	
754.92	7165.2	
755.1	7576.8	
755.28	4988.9	
755.46	5002.5	
755.64	7834.8	
755.82	7718.1	
755.99	4779.3	
756.17	4772.4	
756.35	5494.7	
756.53	6643.6	
756.71	3691.8	
756.89	4492.6	
757.07	6218.3	
757.25	5640.1	
757.42	4965	
757.6	5625.8	
757.78	6458.6	
757.96	5717.9	
758.14	4823.6	
758.32	4502.1	
758.5	5397.8	
758.67	6033.3	
758.85	4672.8	
759.03	4793.6	
759.21	6177.4	
759.39	5698.8	
759.57	4397	
759.75	5293.3	
759.92	6824.5	
760.1	6334.4	
760.28	5613.5	
760.46	5803.3	
760.64	6170.5	
760.82	5994.4	
760.99	5396.4	
761.17	5017.5	
761.35	6845.7	
761.53	6023.1	
761.71	5129.5	
761.89	5681.7	
762.06	6771.9	
762.24	6431.3	
762.42	5375.2	
762.6	5080.3	
762.78	6436.1	
762.96	6982.2	
763.13	5606.7	
763.31	5326.8	
763.49	7018.4	
763.67	6449.7	
763.85	6035.4	
764.02	6375.3	
764.2	7393.2	
764.38	6597.9	
764.56	5238	
764.74	5838.8	
764.91	7355.6	
765.09	6431.3	
765.27	4956.1	
765.45	4816.1	
765.63	7395.2	
765.8	7228.6	
765.98	4625.7	
766.16	4781.3	
766.34	6179.4	
766.52	5852.4	
766.69	5491.3	
766.87	4579.3	
767.05	6361	
767.23	6917.4	
767.41	4897.4	
767.58	4993.6	
767.76	6744.6	
767.94	6731	
768.12	4802.5	
768.29	5371.1	
768.47	6305.7	
768.65	6843.6	
768.83	4524	
769	5335	
769.18	5913.9	
769.36	6413.6	
769.54	5346.6	
769.72	4459.1	
769.89	6660.7	
770.07	6696.2	
770.25	4683.7	
770.43	5732.3	
770.6	7210.9	
770.78	7466.2	
770.96	4836.6	
771.14	5339.7	
771.31	6555.5	
771.49	6039.5	
771.67	4128	
771.85	4332.1	
772.02	5431.2	
772.2	5883.8	
772.38	4876.2	
772.55	4476.9	
772.73	6223.8	
772.91	5864	
773.09	4720.6	
773.26	4792.9	
773.44	6087.9	
773.62	5845.6	
773.8	4381.3	
773.97	4115.1	
774.15	6072.2	
774.33	5886.5	
774.5	4251.6	
774.68	4519.9	
774.86	6199.9	
775.04	5779.4	
775.21	4240	
775.39	4241.3	
775.57	6012.8	
775.74	6156.2	
775.92	4065.9	
776.1	4018.1	
776.27	5898.8	
776.45	6883.2	
776.63	4192.9	
776.81	3833.8	
776.98	5624.4	
777.16	6412.9	
777.34	4225.6	
777.51	4480.3	
777.69	5577.3	
777.87	5362.9	
778.04	4266.6	
778.22	4771.8	
778.4	5475.6	
778.57	5935	
778.75	3644	
778.93	3941	
779.1	5253.7	
779.28	5095.3	
779.46	3667.9	
779.64	4018.8	
779.81	5971.2	
779.99	6666.8	
780.17	4590.9	
780.34	4751.3	
780.52	5608	
780.69	5657.9	
780.87	4232.5	
781.05	3895.2	
781.22	5587.5	
781.4	5625.8	
781.58	4008.6	
781.75	3326.6	
781.93	5652.4	
782.11	5004.6	
782.28	4635.9	
782.46	3877.5	
782.64	4959.5	
782.81	5689.9	
782.99	4000.4	
783.17	3981.3	
783.34	5593.7	
783.52	4946.5	
783.69	4042.7	
783.87	4741	
784.05	5139.7	
784.22	5024.3	
784.4	4723.3	
784.58	4205.8	
784.75	5870.2	
784.93	5113.1	
785.1	3950.5	
785.28	4339.6	
785.46	5485.8	
785.63	4974.5	
785.81	3801	
785.99	3725.3	
786.16	5093.3	
786.34	5450.3	
786.51	3727.3	
786.69	4076.8	
786.87	4764.9	
787.04	5102.9	
787.22	3616	
787.39	4341	
787.57	4985.4	
787.75	5763.7	
787.92	4502.8	
788.1	4398.4	
788.27	4986.1	
788.45	4693.3	
788.63	4197.7	
788.8	3240.6	
788.98	5319.3	
789.15	4652.3	
789.33	3334.1	
789.5	3826.3	
789.68	5669.5	
789.86	5700.9	
790.03	4141	
790.21	3631	
790.38	5611.4	
790.56	5023.7	
790.73	3631	
790.91	3630.4	
791.09	4870.1	
791.26	5470.8	
791.44	3783.3	
791.61	3334.1	
791.79	4938.3	
791.96	4937.7	
792.14	3370.3	
792.32	3104	
792.49	4870.1	
792.67	4998.4	
792.84	3500.7	
793.02	3320.4	
793.19	5279.7	
793.37	5788.2	
793.54	3084.2	
793.72	3335.5	
793.89	5765.7	
794.07	4816.8	
794.25	3828.3	
794.42	3134.8	
794.6	5659.2	
794.77	5305.6	
794.95	4014	
795.12	3587.4	
795.3	4913.8	
795.47	5355.4	
795.65	3881.6	
795.82	3768.9	
796	4707.6	
796.17	6186.2	
796.35	3699.3	
796.52	4233.8	
796.7	5232.6	
796.87	5329.5	
797.05	3610.6	
797.22	4262.5	
797.4	5322	
797.57	6025.1	
797.75	3697.3	
797.92	3509.5	
798.1	5510.4	
798.27	4708.3	
798.45	3130	
798.62	3302.7	
798.8	5034.6	
798.97	5393	
799.15	3896.6	
799.32	3694.5	
799.5	4437.9	
799.67	5027.1	
799.85	3992.2	
800.02	3010.5	
800.2	4779.3	
800.37	4915.1	
800.55	4033.8	
800.72	3530	
800.9	5378.6	
801.07	5698.1	
801.25	4547.9	
801.42	3766.2	
801.6	5436	
801.77	5089.9	
801.95	3596.2	
802.12	3411.2	
802.29	5136.3	
802.47	5076.9	
802.64	3800.3	
802.82	2979.8	
802.99	4738.3	
803.17	5459.9	
803.34	3633.1	
803.52	3287	
803.69	5992.4	
803.87	4556	
804.04	3648.8	
804.21	3698.6	
804.39	5597.1	
804.56	4848.2	
804.74	3206.4	
804.91	3746.4	
805.09	4709.6	
805.26	4749.9	
805.44	3175.7	
805.61	3522.5	
805.78	5298.1	
805.96	5237.3	
806.13	3734.1	
806.31	3946.4	
806.48	4311	
806.66	4762.2	
806.83	3731.4	
807	3637.9	
807.18	4702.1	
807.35	4934.2	
807.53	3663.1	
807.7	3003.7	
807.87	5634.6	
808.05	4651.6	
808.22	3928	
808.4	2997.5	
808.57	4628.4	
808.74	4384.7	
808.92	3340.2	
809.09	4098.7	
809.27	4633.9	
809.44	4996.4	
809.61	2955.9	
809.79	3244.7	
809.96	5640.1	
810.14	5188.9	
810.31	2876	
810.48	3517	
810.66	4713.7	
810.83	5242.1	
811.01	3368.2	
811.18	3645.4	
811.35	5268.1	
811.53	4170.3	
811.7	3919.8	
811.87	3744.4	
812.05	4680.3	
812.22	4592.2	
812.39	3285.6	
812.57	3091.8	
812.74	4676.9	
812.92	5954.8	
813.09	3484.3	
813.26	3692.5	
813.44	5760.3	
813.61	4586.1	
813.78	2942.9	
813.96	3786	
814.13	4678.9	
814.3	4430.4	
814.48	4095.3	
814.65	3429.7	
814.82	5581.4	
815	4425.7	
815.17	3602.4	
815.34	4170.3	
815.52	4635.9	
815.69	4634.6	
815.87	3528.7	
816.04	3463.8	
816.21	4700.8	
816.38	4193.6	
816.56	3384.6	
816.73	3250.1	
816.9	5754.8	
817.08	5154.1	
817.25	3220.1	
817.42	3926	
817.6	4302.8	
817.77	4570.4	
817.94	3560.7	
818.12	3209.2	
818.29	4408.6	
818.46	6442.9	
818.64	3382.6	
818.81	3094.5	
818.98	4433.9	
819.16	6050.4	
819.33	3770.3	
819.5	3526.6	
819.67	4919.2	
819.85	5418.2	
820.02	3474.7	
820.19	3615.3	
820.37	4797	
820.54	4524	
820.71	3611.3	
820.88	4382.7	
821.06	4777.2	
821.23	4450.9	
821.4	3567.6	
821.58	3562.1	
821.75	5154.7	
821.92	4806.6	
822.09	2953.9	
822.27	3164.1	
822.44	4639.3	
822.61	4558.1	
822.79	2962.7	
822.96	5366.4	
823.13	4946.5	
823.3	4375.8	
823.48	3351.8	
823.65	3092.4	
823.82	5152.7	
823.99	4285	
824.17	4154.6	
824.34	3141.6	
824.51	5835.3	
824.68	4653.7	
824.86	3202.3	
825.03	3575.8	
825.2	4659.1	
825.37	5388.2	
825.55	3246.7	
825.72	3500	
825.89	5859.9	
826.06	5477	
826.24	3416	
826.41	3435.8	
826.58	5499.5	
826.75	4809.3	
826.92	2869.2	
827.1	3067.9	
827.27	7229.3	
827.44	5825.1	
827.61	3231.7	
827.79	3827	
827.96	4444.8	
828.13	4670.7	
828.3	3360.7	
828.47	2949.8	
828.65	4876.9	
828.82	4799.1	
828.99	4242	
829.16	3725.3	
829.34	5165	
829.51	4999.1	
829.68	3459	
829.85	3639.2	
830.02	5475.6	
830.2	5165.7	
830.37	2778.4	
830.54	4134.2	
830.71	5794.4	
830.88	4613.4	
831.05	2801.6	
831.23	3205.8	
831.4	5567.1	
831.57	6048.3	
831.74	3308.8	
831.91	2930	
832.09	4960.9	
832.26	5184.8	
832.43	3383.9	
832.6	3680.9	
832.77	4867.3	
832.94	5421	
833.12	2725.8	
833.29	3320.4	
833.46	4979.3	
833.63	6261.3	
833.8	3577.1	
833.97	3355.9	
834.15	5224.4	
834.32	4978.6	
834.49	3462.4	
834.66	3521.1	
834.83	5300.1	
835	4471.4	
835.17	3259	
835.35	3223.5	
835.52	5122	
835.69	4935.6	
835.86	3375.7	
836.03	2852.8	
836.2	5194.3	
836.37	4806.6	
836.55	3361.4	
836.72	3183.9	
836.89	4754	
837.06	5207.3	
837.23	3312.2	
837.4	3656.3	
837.57	5769.1	
837.75	6199.9	
837.92	3085.6	
838.09	3265.1	
838.26	4805.2	
838.43	5319.3	
838.6	3489.7	
838.77	3135.4	
838.94	5998.5	
839.11	5768.4	
839.29	3357.3	
839.46	2684.2	
839.63	5173.2	
839.8	4855.7	
839.97	3214.6	
840.14	3233.1	
840.31	4992.9	
840.48	5173.2	
840.65	2766.1	
840.82	3202.3	
841	5083.1	
841.17	5055.8	
841.34	2991.4	
841.51	3077.4	
841.68	5119.9	
841.85	4851	
842.02	3087	
842.19	2637.8	
842.36	4978.6	
842.53	4927.4	
842.7	2990	
842.87	3579.2	
843.05	6212.9	
843.22	4830.5	
843.39	2910.8	
843.56	3097.2	
843.73	4749.9	
843.9	5118.6	
844.07	4674.8	
844.24	3942.3	
844.41	7044.3	
844.58	4509.6	
844.75	2886.3	
844.92	3173	
845.09	5097.4	
845.26	5158.2	
845.43	2966.1	
845.6	3136.1	
845.77	5115.1	
845.94	4863.2	
846.12	3305.4	
846.29	3464.5	
846.46	5267.4	
846.63	5085.8	
846.8	2973.7	
846.97	3525.2	
847.14	5446.9	
847.31	5050.3	
847.48	3357.3	
847.65	3659.7	
847.82	5276.3	
847.99	5216.9	
848.16	3870	
848.33	3598.3	
848.5	4749.2	
848.67	5439.4	
848.84	2986.6	
849.01	3074.7	
849.18	4601.8	
849.35	4390.2	
849.52	3651.5	
849.69	2918.4	
849.86	5231.9	
850.03	5373.2	
850.2	2953.2	
850.37	3632.4	
850.54	5349.3	
850.71	4777.2	
850.88	3508.9	
851.05	2949.8	
851.22	4990.2	
851.39	5458.5	
851.56	2815.3	
851.73	3383.9	
851.9	4501.4	
852.07	5274.9	
852.24	3239.2	
852.41	2957.3	
852.58	4981.3	
852.75	4569	
852.92	3251.5	
853.09	2929.3	
853.26	4730.8	
853.43	5446.2	
853.6	3013.9	
853.77	2581.8	
853.94	5513.8	
854.11	4515.8	
854.28	4262.5	
854.44	3153.9	
854.61	5849	
854.78	5359.5	
854.95	2968.2	
855.12	3635.8	
855.29	4171	
855.46	5616.2	
855.63	2981.8	
855.8	3949.2	
855.97	4696.7	
856.14	5324.7	
856.31	4130.8	
856.48	3182.5	
856.65	4721.3	
856.82	4516.5	
856.99	2867.2	
857.16	3190.7	
857.33	5999.2	
857.49	4793.6	
857.66	3181.9	
857.83	3351.8	
858	4846.2	
858.17	5010.7	
858.34	2771.6	
858.51	2966.1	
858.68	5549.3	
858.85	5567.1	
859.02	3326.6	
859.19	3553.9	
859.36	4474.8	
859.52	4517.1	
859.69	2992.1	
859.86	3443.3	
860.03	4566.3	
860.2	5542.5	
860.37	2762.7	
860.54	2949.1	
860.71	5272.2	
860.88	5547.9	
861.05	3279.5	
861.21	3726.6	
861.38	5547.3	
861.55	4368.3	
861.72	2702	
861.89	3289	
862.06	5268.7	
862.23	5646.2	
862.4	2824.8	
862.56	3075.4	
862.73	5112.4	
862.9	4921.3	
863.07	3381.9	
863.24	2723.8	
863.41	4420.2	
863.58	4543.1	
863.75	3033.7	
863.91	3345	
864.08	5435.3	
864.25	5182	
864.42	3571.7	
864.59	4031.8	
864.76	5719.3	
864.93	4574.5	
865.09	2871.3	
865.26	3165.5	
865.43	5427.8	
865.6	5709.7	
865.77	2653.5	
865.94	2895.8	
866.1	5468.1	
866.27	5205.3	
866.44	4287.8	
866.61	2796.2	
866.78	4869.4	
866.95	5111.7	
867.11	2895.1	
867.28	2666.5	
867.45	5382.7	
867.62	4572.4	
867.79	3349.8	
867.96	2932.7	
868.12	4498	
868.29	5245.5	
868.46	2971.6	
868.63	3824.9	
868.8	5332.9	
868.97	5152	
869.13	3074	
869.3	3065.8	
869.47	5068.7	
869.64	5350	
869.81	2974.3	
869.97	2978.4	
870.14	4995.7	
870.31	5608.7	
870.48	2868.5	
870.65	3654.3	
870.81	4803.9	
870.98	4756.1	
871.15	3335.5	
871.32	3011.9	
871.48	5131.5	
871.65	5588.2	
871.82	2908.1	
871.99	3211.2	
872.16	5946.6	
872.32	5421	
872.49	2942.9	
872.66	2945.7	
872.83	5253	
872.99	4656.4	
873.16	3317	
873.33	2921.8	
873.5	4940.4	
873.67	4928.8	
873.83	3103.4	
874	3873.4	
874.17	5042.1	
874.34	5823.7	
874.5	3729.4	
874.67	3585.3	
874.84	5498.8	
875.01	4368.3	
875.17	4007.2	
875.34	2904	
875.51	5019.6	
875.68	5874.3	
875.84	3508.9	
876.01	4138.9	
876.18	5223.7	
876.34	5110.4	
876.51	2932.7	
876.68	2865.8	
876.85	4771.8	
877.01	5425.1	
877.18	4107.5	
877.35	2882.2	
877.52	4992.3	
877.68	4480.3	
877.85	2929.3	
878.02	2925.9	
878.18	4772.4	
878.35	4651.6	
878.52	2424.1	
878.69	3205.1	
878.85	5255.8	
879.02	5122	
879.19	4024.3	
879.35	3164.8	
879.52	5212.1	
879.69	5283.8	
879.86	2601.6	
880.02	3220.1	
880.19	4848.9	
880.36	5739.8	
880.52	3273.3	
880.69	3472.7	
880.86	5195.7	
881.02	5300.1	
881.19	3206.4	
881.36	3086.3	
881.52	5197.1	
881.69	4618.2	
881.86	3115	
882.02	3141.6	
882.19	5382.1	
882.36	6158.2	
882.52	3009.8	
882.69	4071.4	
882.86	5025	
883.02	5046.9	
883.19	3485.6	
883.36	3304.1	
883.52	5250.3	
883.69	5901.6	
883.86	2940.9	
884.02	2688.3	
884.19	5191.6	
884.36	4925.4	
884.52	3275.4	
884.69	3097.9	
884.86	4608.6	
885.02	5629.2	
885.19	3245.3	
885.36	3338.9	
885.52	4866.7	
885.69	5026.4	
885.86	4093.9	
886.02	3646.1	
886.19	5245.5	
886.35	4748.6	
886.52	3250.8	
886.69	4035.2	
886.85	4487.8	
887.02	5446.9	
887.19	5446.9	
887.35	5446.9	
887.52	5446.9	
887.68	5446.9	
887.85	5446.9	
888.02	5446.9	
888.18	5446.9	
888.35	5446.9	
888.51	5446.9	
888.68	5446.9	
888.85	5446.9	
889.01	5446.9	
889.18	5446.9	
889.35	5446.9	
889.51	5446.9	
889.68	5446.9	
889.84	5446.9	
890.01	5446.9	
890.17	5446.9	
890.34	5446.9	
890.51	5446.9	
890.67	5446.9	
890.84	5446.9	
891	5446.9	
891.17	5446.9	
891.34	5446.9	
891.5	5446.9	
891.67	5446.9	
891.83	5446.9	
892	5446.9	
892.16	5446.9	
892.33	5446.9	
892.5	5446.9	
892.66	5446.9	
892.83	5446.9	
892.99	5446.9	
893.16	5446.9	
893.32	5446.9	
893.49	5446.9	
893.65	5446.9	
893.82	5446.9	
893.99	5446.9	
894.15	5446.9	
894.32	5446.9	
894.48	5446.9	
894.65	5446.9	
894.81	5446.9	
894.98	5446.9	
895.14	5446.9	
895.31	5446.9	
895.47	5446.9	
895.64	5446.9	
895.81	5446.9	
895.97	5446.9	
896.14	5446.9	
896.3	5446.9	
896.47	5446.9	
896.63	5446.9	
896.8	5446.9	
896.96	5446.9	
897.13	5446.9	
897.29	5446.9	
897.46	5446.9	
897.62	5446.9	
897.79	5446.9	
897.95	5446.9	
898.12	5446.9	
898.28	5446.9	
898.45	5446.9	
898.61	5446.9	
898.78	5446.9	
898.94	5446.9	
899.11	5446.9	
899.27	5446.9	
899.44	5446.9	
899.6	5446.9	
899.77	5446.9	
899.93	5446.9	
900.1	5446.9	
900.26	5446.9	
900.43	5446.9	
900.59	5446.9	
900.76	5446.9	
900.92	5446.9	
901.09	5446.9	
901.25	5446.9	
901.42	5446.9	
901.58	5446.9	
901.75	5446.9	
901.91	5446.9	
902.07	5446.9	
902.24	5446.9	
902.4	5446.9	
902.57	5446.9	
902.73	5446.9	
902.9	5446.9	
903.06	5446.9	
903.23	5446.9	
903.39	5446.9	
903.56	5446.9	
903.72	5446.9	
903.88	5446.9	
904.05	5446.9	
904.21	5446.9	
904.38	5446.9	
904.54	5446.9	
904.71	5446.9	
904.87	5446.9	
905.03	5446.9	
905.2	5446.9	
905.36	5446.9	
905.53	5446.9	
905.69	5446.9	
905.86	5446.9	
906.02	5446.9	
906.18	5446.9	
906.35	5446.9	
906.51	5446.9	
906.68	5446.9	
906.84	5446.9	
907.01	5446.9	
907.17	5446.9	
907.33	5446.9	
907.5	5446.9	
907.66	5446.9	
907.83	5446.9	
907.99	5446.9	
908.15	5446.9	
908.32	5446.9	
908.48	5446.9	
908.65	5446.9	
908.81	5446.9	
908.97	5446.9	
909.14	5446.9	
909.3	5446.9	
909.47	5446.9	
909.63	5446.9	
909.79	5446.9	
909.96	5446.9	
910.12	5446.9	
910.28	5446.9	
910.45	5446.9	
910.61	5446.9	
910.78	5446.9	
910.94	5446.9	
911.1	5446.9	
911.27	5446.9	
911.43	5446.9	
911.59	5446.9	
911.76	5446.9	
911.92	5446.9	
912.08	5446.9	
912.25	5446.9	
912.41	5446.9	
912.57	5446.9	
912.74	5446.9	
912.9	5446.9	
913.07	5446.9	
913.23	5446.9	
913.39	5446.9	
913.56	5446.9	
913.72	5446.9	
913.88	5446.9	
914.05	5446.9	
914.21	5446.9	
914.37	5446.9	
914.54	5446.9	
914.7	5446.9	
914.86	5446.9	
915.03	5446.9	
915.19	5446.9	
