Wavelength	Intensities	
nm	a.u.	
179.22	1676.6	
179.44	1672.5	
179.65	1680.7	
179.86	1664.3	
180.08	1721	
180.29	3875.4	
180.51	3017.3	
180.72	4937	
180.94	5475.6	
181.15	2699.2	
181.37	2671.2	
181.58	4769	
181.79	4926.7	
182.01	2799.6	
182.22	2957.9	
182.44	5002.5	
182.65	4276.8	
182.87	3607.8	
183.08	3145.7	
183.29	5261.9	
183.51	4375.1	
183.72	2896.5	
183.94	4030.4	
184.15	4697.4	
184.37	4665.3	
184.58	2660.3	
184.79	3438.5	
185.01	4437.3	
185.22	5012.7	
185.44	3588.7	
185.65	3063.8	
185.86	4672.8	
186.08	4296.6	
186.29	2631.6	
186.51	2745	
186.72	4388.1	
186.94	5070.1	
187.15	3175	
187.36	3189.4	
187.58	6270.2	
187.79	4775.2	
188.01	3274.7	
188.22	4911	
188.43	5556.1	
188.65	4923.3	
188.86	2791.4	
189.08	3248.1	
189.29	4511.7	
189.5	4481.6	
189.72	2920.4	
189.93	3048.7	
190.15	5042.1	
190.36	5793.7	
190.57	3221.5	
190.79	3143.6	
191	5118.6	
191.22	5146.5	
191.43	3286.3	
191.64	2794.8	
191.86	5295.4	
192.07	5104.2	
192.29	2912.9	
192.5	2942.2	
192.71	5097.4	
192.93	4493.2	
193.14	2930.6	
193.35	3035.1	
193.57	4547.9	
193.78	5094	
194	2512.2	
194.21	2893.8	
194.42	4367	
194.64	4714.4	
194.85	3201.7	
195.07	3700	
195.28	4631.8	
195.49	4191.5	
195.71	3833.1	
195.92	2803	
196.13	4832.5	
196.35	4870.1	
196.56	4040.6	
196.78	3205.1	
196.99	5827.2	
197.2	5466.7	
197.42	3590.1	
197.63	3229.6	
197.84	4298	
198.06	4851.6	
198.27	3007.8	
198.48	3804.4	
198.7	4477.5	
198.91	4682.3	
199.13	3179.1	
199.34	3242.6	
199.55	5070.1	
199.77	4121.2	
199.98	2908.1	
200.19	3268.6	
200.41	4678.9	
200.62	4367.6	
200.83	3372.3	
201.05	3584.6	
201.26	4685.8	
201.47	4464.6	
201.69	2891	
201.9	2867.2	
202.11	4674.1	
202.33	5379.3	
202.54	3072	
202.76	3341.6	
202.97	4705.5	
203.18	4766.3	
203.4	3311.6	
203.61	3355.9	
203.82	4745.1	
204.04	4448.9	
204.25	3235.8	
204.46	3196.9	
204.68	4668	
204.89	4849.6	
205.1	3154.6	
205.32	2799.6	
205.53	4965.6	
205.74	5085.1	
205.96	2518.3	
206.17	3240.6	
206.38	4887.1	
206.6	5021.6	
206.81	3635.1	
207.02	3050.8	
207.24	4889.2	
207.45	5122	
207.66	3132.7	
207.88	2770.2	
208.09	4844.8	
208.3	4706.9	
208.52	2874.7	
208.73	3114.3	
208.94	4709	
209.15	5178.6	
209.37	3095.8	
209.58	3227.6	
209.79	5080.3	
210.01	4567	
210.22	2549.7	
210.43	2713.6	
210.65	4671.4	
210.86	4940.4	
211.07	3052.8	
211.29	2881.5	
211.5	4870.8	
211.71	4638.6	
211.93	2850.1	
212.14	2876	
212.35	4678.2	
212.56	4701.5	
212.78	3288.4	
212.99	2679.4	
213.2	5360.2	
213.42	4580.6	
213.63	2957.9	
213.84	3108.8	
214.06	4254.3	
214.27	4339	
214.48	3102	
214.69	3271.3	
214.91	5166.3	
215.12	5236.7	
215.33	3282.9	
215.55	3539.6	
215.76	5556.8	
215.97	4898.7	
216.18	3090.4	
216.4	3145	
216.61	4477.5	
216.82	4999.1	
217.04	2885.6	
217.25	2987.3	
217.46	5092.6	
217.67	4988.2	
217.89	2650.1	
218.1	2684.9	
218.31	4730.1	
218.53	4827.7	
218.74	3041.2	
218.95	2959.3	
219.16	4638	
219.38	5369.1	
219.59	2923.8	
219.8	3457.7	
220.01	5737.7	
220.23	4749.2	
220.44	3712.3	
220.65	2845.3	
220.87	4833.2	
221.08	5137	
221.29	2736.1	
221.5	3497.2	
221.72	6025.8	
221.93	4437.9	
222.14	3295.9	
222.35	3760.1	
222.57	4704.2	
222.78	4982	
222.99	3095.2	
223.2	3284.3	
223.42	4874.2	
223.63	4965	
223.84	2442.5	
224.05	2460.3	
224.27	5638.1	
224.48	5322.7	
224.69	3713.7	
224.9	3295.2	
225.12	4817.5	
225.33	4661.9	
225.54	2678.1	
225.75	2945.7	
225.97	4378.6	
226.18	4625	
226.39	3100.6	
226.6	2947.7	
226.82	4510.3	
227.03	4401.8	
227.24	3194.8	
227.45	2763.4	
227.67	5003.2	
227.88	5267.4	
228.09	3604.4	
228.3	3588.7	
228.52	5014.1	
228.73	4661.9	
228.94	3067.2	
229.15	2721.8	
229.36	4686.4	
229.58	4622.3	
229.79	3056.9	
230	3487.7	
230.21	5489.2	
230.43	4721.9	
230.64	3194.8	
230.85	3342.3	
231.06	4995	
231.28	5106.3	
231.49	2700.6	
231.7	3122.5	
231.91	4921.3	
232.12	4681.7	
232.34	2857.6	
232.55	3121.8	
232.76	5137	
232.97	4732.2	
233.18	2878.1	
233.4	3177.8	
233.61	4831.2	
233.82	4536.3	
234.03	3072.6	
234.25	3007.8	
234.46	6158.2	
234.67	4750.6	
234.88	3316.3	
235.09	2950.4	
235.31	4817.5	
235.52	4624.3	
235.73	3175.7	
235.94	2818.7	
236.15	4489.8	
236.37	5483.1	
236.58	2846.7	
236.79	3090.4	
237	4911.7	
237.21	4310.3	
237.43	3366.9	
237.64	2658.3	
237.85	7649.8	
238.06	4394.3	
238.27	3313.6	
238.48	2790	
238.7	4942.4	
238.91	4621.6	
239.12	3041.9	
239.33	3190.1	
239.54	4405.2	
239.76	4584	
239.97	3081.5	
240.18	3069.9	
240.39	5573.2	
240.6	4846.9	
240.82	3268.6	
241.03	2783.9	
241.24	4638.6	
241.45	5200.5	
241.66	2869.2	
241.87	3327.3	
242.09	5222.3	
242.3	5475.6	
242.51	3392.8	
242.72	3092.4	
242.93	4988.9	
243.14	4614.8	
243.36	3551.9	
243.57	3807.2	
243.78	5304.9	
243.99	4944.5	
244.2	3160	
244.41	2850.8	
244.63	4351.9	
244.84	4911	
245.05	3335.5	
245.26	3148.4	
245.47	4896	
245.68	5024.3	
245.9	3919.8	
246.11	3259	
246.32	4472.1	
246.53	4895.3	
246.74	4891.9	
246.95	2725.8	
247.16	4405.2	
247.38	4662.5	
247.59	2686.3	
247.8	3156.6	
248.01	4397.7	
248.22	4646.8	
248.43	2906.8	
248.64	3087	
248.86	4310.3	
249.07	4496	
249.28	2821.4	
249.49	3209.2	
249.7	5079.6	
249.91	5042.8	
250.12	2664.4	
250.34	2754.5	
250.55	4717.8	
250.76	4719.9	
250.97	3175	
251.18	3239.2	
251.39	5146.5	
251.6	4786.8	
251.81	3261	
252.03	3276.8	
252.24	4513	
252.45	5003.2	
252.66	2753.8	
252.87	3418.1	
253.08	4721.9	
253.29	5822.4	
253.5	2774.3	
253.72	3715	
253.93	4623.6	
254.14	5396.4	
254.35	3002.3	
254.56	3031	
254.77	4846.2	
254.98	4400.4	
255.19	2952.5	
255.41	3727.3	
255.62	4840	
255.83	5160.2	
256.04	3381.2	
256.25	3203.7	
256.46	5530.9	
256.67	4470.7	
256.88	3195.5	
257.09	3512.9	
257.31	4408.6	
257.52	4412.7	
257.73	3843.4	
257.94	3012.6	
258.15	4650.9	
258.36	4684.4	
258.57	3645.4	
258.78	2462.3	
258.99	5024.3	
259.2	4530.8	
259.41	2960.7	
259.63	3108.1	
259.84	5228.5	
260.05	5524.1	
260.26	3776.5	
260.47	2928.6	
260.68	5128.1	
260.89	4558.8	
261.1	3526.6	
261.31	2886.3	
261.52	5253	
261.73	5383.4	
261.95	3778.5	
262.16	3301.3	
262.37	5158.8	
262.58	5247.6	
262.79	3770.3	
263	2989.4	
263.21	4722.6	
263.42	4228.4	
263.63	3290.4	
263.84	3014.6	
264.05	5033.2	
264.26	5315.2	
264.47	3633.8	
264.69	3194.8	
264.9	5286.5	
265.11	4840	
265.32	2895.1	
265.53	2966.8	
265.74	4777.2	
265.95	4226.3	
266.16	3147	
266.37	3454.2	
266.58	4809.3	
266.79	4519.2	
267	2968.9	
267.21	2781.1	
267.42	4383.3	
267.63	4685.8	
267.84	3128.6	
268.06	2738.8	
268.27	5026.4	
268.48	5204.6	
268.69	3078.8	
268.9	3480.2	
269.11	5164.3	
269.32	4275.5	
269.53	3150.5	
269.74	2917	
269.95	4853.7	
270.16	4146.5	
270.37	3132	
270.58	3545.7	
270.79	4669.4	
271	4999.8	
271.21	3265.8	
271.42	3157.3	
271.63	4810	
271.84	4346.5	
272.05	2616.6	
272.26	2824.8	
272.47	4721.3	
272.68	4835.9	
272.89	3060.3	
273.11	3379.1	
273.32	4487.8	
273.53	5256.5	
273.74	3339.6	
273.95	3209.2	
274.16	5023	
274.37	4732.2	
274.58	3474	
274.79	2793.4	
275	4819.6	
275.21	5087.2	
275.42	3970.3	
275.63	3490.4	
275.84	4932.9	
276.05	5881.8	
276.26	3225.6	
276.47	3063.1	
276.68	4654.4	
276.89	5457.2	
277.1	3476.1	
277.31	2808.4	
277.52	4825.7	
277.73	5128.1	
277.94	2733.4	
278.15	3003.7	
278.36	4824.3	
278.57	4436.6	
278.78	3018	
278.99	3351.8	
279.2	4504.2	
279.41	4386.7	
279.62	3897.3	
279.83	2759.3	
280.04	5558.2	
280.25	4381.3	
280.46	3784.6	
280.67	3127.9	
280.88	4496	
281.09	5154.7	
281.3	3250.8	
281.51	4046.8	
281.72	4493.9	
281.93	4984.8	
282.14	2975	
282.35	3194.8	
282.56	5081.7	
282.77	5041.4	
282.98	3044.6	
283.19	3622.9	
283.4	5945.3	
283.61	4610	
283.82	2848	
284.03	3758.7	
284.24	4846.2	
284.45	5117.2	
284.66	3829.7	
284.87	3650.8	
285.08	5136.3	
285.29	5184.8	
285.5	2717.7	
285.71	3055.6	
285.92	5094.7	
286.12	5578.7	
286.33	3736.2	
286.54	3153.9	
286.75	4997	
286.96	4557.4	
287.17	2874	
287.38	3697.3	
287.59	4526	
287.8	4475.5	
288.01	3061	
288.22	3403	
288.43	4922	
288.64	4289.1	
288.85	3551.2	
289.06	3463.8	
289.27	5027.1	
289.48	5265.3	
289.69	3801	
289.9	3427.6	
290.11	5255.8	
290.32	4524.6	
290.53	3594.2	
290.74	3284.9	
290.94	5026.4	
291.15	5053	
291.36	2966.1	
291.57	3415.3	
291.78	4523.3	
291.99	4268.6	
292.2	2908.8	
292.41	3332	
292.62	5131.5	
292.83	4916.5	
293.04	4013.3	
293.25	2945.7	
293.46	4546.5	
293.67	5052.3	
293.88	2913.6	
294.09	2882.2	
294.29	4413.4	
294.5	4750.6	
294.71	3160	
294.92	2990	
295.13	4586.1	
295.34	5472.9	
295.55	2718.3	
295.76	2652.8	
295.97	5051.7	
296.18	5484.5	
296.39	2843.3	
296.6	2984.6	
296.81	4759.5	
297.01	4990.2	
297.22	3090.4	
297.43	2985.3	
297.64	4524	
297.85	4384	
298.06	2519	
298.27	2747.7	
298.48	4681	
298.69	4485.1	
298.9	3179.8	
299.11	2902	
299.31	4369.7	
299.52	4370.4	
299.73	3345	
299.94	3298.6	
300.15	4765.6	
300.36	4434.5	
300.57	3334.8	
300.78	3278.8	
300.99	4579.9	
301.2	4743.8	
301.4	2962.7	
301.61	3140.9	
301.82	4974.5	
302.03	5003.9	
302.24	3518.4	
302.45	2844.6	
302.66	4885.8	
302.87	5139.7	
303.08	3001.6	
303.29	3917.1	
303.49	4618.9	
303.7	4658.4	
303.91	2723.8	
304.12	3660.4	
304.33	4299.4	
304.54	4846.9	
304.75	2989.4	
304.96	2858.3	
305.16	4886.5	
305.37	5421	
305.58	2645.3	
305.79	2734	
306	4921.3	
306.21	4268	
306.42	2993.4	
306.63	4310.3	
306.83	4542.4	
307.04	5048.9	
307.25	3247.4	
307.46	3175.7	
307.67	4177.2	
307.88	4992.9	
308.09	2942.2	
308.29	3023.5	
308.5	4762.2	
308.71	5088.5	
308.92	3145	
309.13	2884.9	
309.34	4660.5	
309.55	4627.7	
309.75	3627.6	
309.96	3322.5	
310.17	4986.1	
310.38	4440	
310.59	3424.9	
310.8	2807.1	
311.01	4602.5	
311.21	4619.5	
311.42	2866.5	
311.63	2907.4	
311.84	4508.9	
312.05	4745.8	
312.26	3333.4	
312.46	3499.3	
312.67	4576.5	
312.88	4317.1	
313.09	2897.9	
313.3	2851.5	
313.51	5331.5	
313.71	5454.4	
313.92	2880.1	
314.13	2996.9	
314.34	4855.7	
314.55	4625	
314.76	3517.7	
314.96	3158.7	
315.17	4865.3	
315.38	4870.8	
315.59	2932.7	
315.8	2774.3	
316.01	5237.3	
316.21	5334.3	
316.42	2816.6	
316.63	3108.1	
316.84	4556.7	
317.05	5110.4	
317.26	3346.4	
317.46	2979.8	
317.67	4691.9	
317.88	5018.2	
318.09	3493.8	
318.3	2673.3	
318.5	4524.6	
318.71	4884.4	
318.92	4444.1	
319.13	3351.2	
319.34	5051	
319.54	5104.9	
319.75	2671.2	
319.96	2589.3	
320.17	4897.4	
320.38	5073.5	
320.58	2680.1	
320.79	3125.2	
321	5177.9	
321.21	5140.4	
321.42	3135.4	
321.62	2654.2	
321.83	4450.9	
322.04	4760.2	
322.25	3046	
322.46	2861.7	
322.66	4814.1	
322.87	4941.7	
323.08	3440.6	
323.29	2778.4	
323.5	5453.1	
323.7	4343.7	
323.91	3751.2	
324.12	3436.5	
324.33	4805.9	
324.53	4889.2	
324.74	3363.4	
324.95	3428.3	
325.16	4276.2	
325.37	4577.2	
325.57	2906.8	
325.78	2944.3	
325.99	4775.9	
326.2	4355.3	
326.4	4002.4	
326.61	2706	
326.82	4613.4	
327.03	4825.7	
327.24	3973.7	
327.44	3694.5	
327.65	4937.7	
327.86	4130.8	
328.07	3330	
328.27	2811.2	
328.48	5223	
328.69	4367.6	
328.9	3969	
329.1	3018.7	
329.31	4638.6	
329.52	5274.2	
329.73	2931.3	
329.93	3155.9	
330.14	4767.7	
330.35	4861.2	
330.56	4463.2	
330.76	3455.6	
330.97	4602.5	
331.18	4813.4	
331.39	3166.2	
331.59	2627.5	
331.8	5141.8	
332.01	5226.4	
332.22	2983.2	
332.42	3300.6	
332.63	4803.2	
332.84	4492.6	
333.05	3206.4	
333.25	2889.7	
333.46	4483	
333.67	4687.8	
333.88	3028.3	
334.08	3209.2	
334.29	5963.7	
334.5	5104.2	
334.7	2850.8	
334.91	3904.8	
335.12	4353.3	
335.33	4948.6	
335.53	3184.6	
335.74	4393.6	
335.95	4644.1	
336.16	4395.6	
336.36	3111.5	
336.57	3528	
336.78	4354.7	
336.98	5060.5	
337.19	3815.4	
337.4	3072	
337.61	5565	
337.81	4370.4	
338.02	2983.9	
338.23	3686.3	
338.43	5274.9	
338.64	4440.7	
338.85	2881.5	
339.05	3700	
339.26	5307	
339.47	4283.7	
339.68	2936.1	
339.88	4080.2	
340.09	4923.3	
340.3	5034.6	
340.5	3338.2	
340.71	2626.9	
340.92	4369	
341.13	5161.6	
341.33	2794.8	
341.54	3345	
341.75	4810.7	
341.95	4531.5	
342.16	3236.5	
342.37	3398.9	
342.57	4372.4	
342.78	4676.9	
342.99	3480.9	
343.19	2628.9	
343.4	5029.1	
343.61	4886.5	
343.81	3096.5	
344.02	2880.1	
344.23	4937.7	
344.43	5224.4	
344.64	3471.3	
344.85	3428.3	
345.06	4959.5	
345.26	5122.7	
345.47	3350.5	
345.68	3773	
345.88	4281.6	
346.09	5066	
346.3	3411.2	
346.5	2549.7	
346.71	4651.6	
346.92	4536.3	
347.12	2760.7	
347.33	3261.7	
347.54	5137.7	
347.74	5380.7	
347.95	3323.2	
348.16	2544.3	
348.36	4582	
348.57	4399	
348.78	3319.1	
348.98	3490.4	
349.19	4716.5	
349.39	4345.8	
349.6	2737.5	
349.81	2964.8	
350.01	4977.2	
350.22	4444.8	
350.43	3255.6	
350.63	3790.1	
350.84	4721.9	
351.05	4493.2	
351.25	2914.9	
351.46	2788	
351.67	5141.1	
351.87	4429.8	
352.08	3108.1	
352.29	3493.2	
352.49	5029.1	
352.7	5111	
352.9	2851.5	
353.11	3515	
353.32	5516.5	
353.52	4593.6	
353.73	2898.6	
353.94	3545	
354.14	4944.5	
354.35	4720.6	
354.55	2994.8	
354.76	3255.6	
354.97	4970.4	
355.17	4716.5	
355.38	2860.3	
355.59	3760.1	
355.79	4601.1	
356	4784.1	
356.2	3243.3	
356.41	2938.2	
356.62	4390.2	
356.82	4771.1	
357.03	3512.3	
357.24	3197.6	
357.44	4515.8	
357.65	4663.2	
357.85	4070.7	
358.06	3370.3	
358.27	4383.3	
358.47	4586.8	
358.68	2904.7	
358.88	3553.9	
359.09	4999.1	
359.3	5243.5	
359.5	4057.7	
359.71	3749.1	
359.91	5611.4	
360.12	5104.2	
360.33	3601	
360.53	3936.9	
360.74	4739	
360.94	4795.7	
361.15	3779.2	
361.36	3173.7	
361.56	5348.6	
361.77	4913.8	
361.97	4136.2	
362.18	3413.3	
362.38	5359.5	
362.59	4630.5	
362.8	3203.7	
363	3136.8	
363.21	4497.3	
363.41	5032.5	
363.62	3680.9	
363.83	4316.4	
364.03	5222.3	
364.24	5834	
364.44	4498.7	
364.65	4513	
364.85	4977.9	
365.06	4837.3	
365.27	3416.7	
365.47	3480.2	
365.68	5829.9	
365.88	5050.3	
366.09	3804.4	
366.29	3456.3	
366.5	5165.7	
366.71	5571.2	
366.91	4557.4	
367.12	4003.1	
367.32	6052.4	
367.53	5445.5	
367.73	3985.3	
367.94	4710.3	
368.14	5477.6	
368.35	6092.7	
368.56	3978.5	
368.76	3780.6	
368.97	5674.9	
369.17	6730.3	
369.38	3622.9	
369.58	3793.5	
369.79	4886.5	
369.99	5874.3	
370.2	4613.4	
370.4	3869.3	
370.61	5369.8	
370.82	6286.6	
371.02	3809.9	
371.23	3322.5	
371.43	4820.9	
371.64	5905	
371.84	3938.9	
372.05	4729.4	
372.25	6796.5	
372.46	5735.7	
372.66	4043.4	
372.87	3936.2	
373.07	5835.3	
373.28	7118.1	
373.48	4757.4	
373.69	4612	
373.9	5537	
374.1	5556.8	
374.31	4889.9	
374.51	4476.2	
374.72	6279.1	
374.92	5422.3	
375.13	5109.7	
375.33	4492.6	
375.54	6047.7	
375.74	5628.5	
375.95	4638	
376.15	5477.6	
376.36	6135	
376.56	6019.7	
376.77	4767.7	
376.97	5042.8	
377.18	7159	
377.38	6393.1	
377.59	5306.3	
377.79	4564.2	
378	6213.5	
378.2	6615.6	
378.41	4657.1	
378.61	4560.8	
378.82	6653.2	
379.02	6090.7	
379.23	4823.6	
379.43	5645.6	
379.64	6926.9	
379.84	6555.5	
380.05	4760.8	
380.25	4562.9	
380.46	6663.4	
380.66	6250.4	
380.87	5639.4	
381.07	5853.8	
381.28	7015.7	
381.48	6595.8	
381.69	4718.5	
381.89	4730.8	
382.1	5678.3	
382.3	6597.9	
382.51	5537.7	
382.71	6210.8	
382.91	6408.8	
383.12	6918.7	
383.32	4901.5	
383.53	5054.4	
383.73	6362.4	
383.94	6292	
384.14	5057.8	
384.35	4302.8	
384.55	6061.3	
384.76	6410.1	
384.96	4876.2	
385.17	4977.2	
385.37	6365.8	
385.58	5841.5	
385.78	5031.2	
385.98	4110.3	
386.19	5988.9	
386.39	6281.8	
386.6	4638.6	
386.8	4777.9	
387.01	6405.4	
387.21	6405.4	
387.42	5082.4	
387.62	5464	
387.83	5959.6	
388.03	6402	
388.23	4982	
388.44	5565	
388.64	5872.9	
388.85	5977.3	
389.05	5251.7	
389.26	5773.9	
389.46	7536.5	
389.67	7047.7	
389.87	5445.5	
390.07	5457.8	
390.28	6431.3	
390.48	6106.4	
390.69	4913.8	
390.89	5126.7	
391.1	6395.1	
391.3	7017.7	
391.5	6014.9	
391.71	6362.4	
391.91	6845	
392.12	7527	
392.32	6047.7	
392.53	5449	
392.73	6406.7	
392.93	6561.7	
393.14	5283.8	
393.34	5781.4	
393.55	6947.4	
393.75	6432.7	
393.95	5134.9	
394.16	5033.2	
394.36	6292.7	
394.57	6790.4	
394.77	4746.5	
394.98	4958.8	
395.18	6339.1	
395.38	6386.9	
395.59	5828.5	
395.79	5124.7	
396	6628.6	
396.2	6945.3	
396.4	5913.9	
396.61	5858.6	
396.81	7152.9	
397.02	6726.9	
397.22	6351.4	
397.42	6365.1	
397.63	7340.6	
397.83	6889.4	
398.04	5433.9	
398.24	5896.8	
398.44	7158.3	
398.65	6508.4	
398.85	5513.1	
399.05	5556.8	
399.26	7056.6	
399.46	8253.3	
399.67	5910.4	
399.87	5709.7	
400.07	7313.3	
400.28	7525.6	
400.48	5874.9	
400.69	6703.7	
400.89	7824.6	
401.09	8202.8	
401.3	5974.6	
401.5	6808.1	
401.7	8512	
401.91	8668.4	
402.11	6337.1	
402.32	6419	
402.52	8122.2	
402.72	7839.6	
402.93	6666.1	
403.13	5552.7	
403.33	8462.2	
403.54	7220.5	
403.74	6126.8	
403.94	6600.6	
404.15	7193.1	
404.35	8034.9	
404.56	5756.8	
404.76	7049.8	
404.96	7525.6	
405.17	7266.2	
405.37	6669.6	
405.57	6282.5	
405.78	7829.4	
405.98	7273	
406.18	6115.2	
406.39	6726.2	
406.59	7897.7	
406.79	7488.7	
407	5926.1	
407.2	5840.1	
407.4	8091.5	
407.61	8046.5	
407.81	6057.2	
408.01	7535.8	
408.22	7166.5	
408.42	8682.7	
408.62	7169.3	
408.83	6958.3	
409.03	8213	
409.23	8226.7	
409.44	7353.6	
409.64	7552.2	
409.84	9335.3	
410.05	9468.4	
410.25	7877.2	
410.45	7709.9	
410.66	9542.2	
410.86	11103	
411.06	8432.2	
411.27	8211	
411.47	11372	
411.67	9805.7	
411.88	8538.7	
412.08	9073.9	
412.28	10380	
412.49	10864	
412.69	8837.7	
412.89	8882.7	
413.09	10717	
413.3	10688	
413.5	9117.6	
413.7	8816.5	
413.91	10237	
414.11	10923	
414.31	9010.4	
414.52	9485.5	
414.72	10821	
414.92	10873	
415.12	9013.8	
415.33	9561.3	
415.53	11289	
415.73	11299	
415.94	9794.8	
416.14	9398.1	
416.34	10622	
416.55	10150	
416.75	10167	
416.95	9962	
417.15	11401	
417.36	11569	
417.56	10610	
417.76	10031	
417.97	11579	
418.17	11566	
418.37	9648	
418.57	9823.4	
418.78	11439	
418.98	11054	
419.18	10623	
419.38	10335	
419.59	11234	
419.79	10624	
419.99	9628.9	
420.2	9784.5	
420.4	11401	
420.6	11333	
420.8	9533.3	
421.01	9332.6	
421.21	11505	
421.41	11337	
421.61	9768.8	
421.82	9565.4	
422.02	11174	
422.22	11550	
422.42	10248	
422.63	9522.4	
422.83	10995	
423.03	11987	
423.23	9708.7	
423.44	9112.1	
423.64	11030	
423.84	10447	
424.04	9259.5	
424.25	9126.4	
424.45	11348	
424.65	11311	
424.85	8883.4	
425.06	9218.6	
425.26	11507	
425.46	10781	
425.66	9533.3	
425.87	9235	
426.07	11069	
426.27	10918	
426.47	9442.5	
426.67	8759.2	
426.88	11364	
427.08	10888	
427.28	9585.2	
427.48	8671.8	
427.69	10017	
427.89	10567	
428.09	9466.4	
428.29	8746.9	
428.5	11032	
428.7	10711	
428.9	8737.3	
429.1	9052.7	
429.3	10657	
429.51	10946	
429.71	8857.5	
429.91	9566.7	
430.11	11056	
430.31	11258	
430.52	9181	
430.72	9663.7	
430.92	11464	
431.12	11085	
431.32	9217.9	
431.53	9305.3	
431.73	10451	
431.93	11568	
432.13	8933.2	
432.33	9138	
432.54	10764	
432.74	10929	
432.94	9142.1	
433.14	9726.5	
433.34	11208	
433.55	11171	
433.75	9860.3	
433.95	11430	
434.15	11182	
434.35	10975	
434.56	9310.7	
434.76	9198.1	
434.96	11310	
435.16	11617	
435.36	9387.2	
435.56	10411	
435.77	11239	
435.97	11402	
436.17	11097	
436.37	10422	
436.57	11255	
436.78	11481	
436.98	10231	
437.18	10914	
437.38	12051	
437.58	11333	
437.78	10941	
437.99	9921	
438.19	11688	
438.39	12375	
438.59	9857.6	
438.79	9268.4	
438.99	12018	
439.2	11092	
439.4	9058.2	
439.6	9140.1	
439.8	11221	
440	12035	
440.2	10068	
440.4	10215	
440.61	12001	
440.81	12328	
441.01	9900.6	
441.21	10746	
441.41	12723	
441.61	12211	
441.81	11131	
442.02	11810	
442.22	13033	
442.42	12403	
442.62	10382	
442.82	10251	
443.02	12823	
443.22	12183	
443.43	10714	
443.63	10282	
443.83	11867	
444.03	11951	
444.23	11521	
444.43	11101	
444.63	12505	
444.83	13071	
445.04	10733	
445.24	11603	
445.44	12669	
445.64	12737	
445.84	10860	
446.04	11164	
446.24	11942	
446.44	12706	
446.65	10158	
446.85	10831	
447.05	11587	
447.25	12446	
447.45	10493	
447.65	10033	
447.85	11991	
448.05	11338	
448.25	10776	
448.46	10670	
448.66	11883	
448.86	11628	
449.06	10006	
449.26	10757	
449.46	12299	
449.66	11460	
449.86	10721	
450.06	10528	
450.26	11799	
450.47	12248	
450.67	10561	
450.87	10923	
451.07	12334	
451.27	12256	
451.47	10211	
451.67	11033	
451.87	12037	
452.07	12603	
452.27	10634	
452.47	10355	
452.67	12288	
452.88	12590	
453.08	9846.6	
453.28	11385	
453.48	13360	
453.68	12031	
453.88	10634	
454.08	10513	
454.28	12610	
454.48	12270	
454.68	10934	
454.88	11235	
455.08	12538	
455.28	12634	
455.48	10210	
455.68	11054	
455.89	13100	
456.09	12988	
456.29	10871	
456.49	11211	
456.69	13328	
456.89	12444	
457.09	11470	
457.29	11932	
457.49	13036	
457.69	13289	
457.89	11794	
458.09	11068	
458.29	13139	
458.49	13826	
458.69	12054	
458.89	11748	
459.09	14009	
459.29	14122	
459.49	11761	
459.69	12422	
459.9	13664	
460.1	13574	
460.3	11570	
460.5	11496	
460.7	13831	
460.9	13424	
461.1	11328	
461.3	12463	
461.5	14503	
461.7	14064	
461.9	12078	
462.1	12135	
462.3	13938	
462.5	14408	
462.7	12147	
462.9	12349	
463.1	15083	
463.3	15198	
463.5	12601	
463.7	13644	
463.9	14502	
464.1	14740	
464.3	13248	
464.5	13046	
464.7	15124	
464.9	15156	
465.1	14253	
465.3	13728	
465.5	15356	
465.7	15540	
465.9	14224	
466.1	13365	
466.3	15613	
466.5	15033	
466.7	14782	
466.9	13521	
467.1	15395	
467.3	16082	
467.5	14638	
467.7	13930	
467.9	16349	
468.1	16978	
468.3	14295	
468.5	14747	
468.7	15561	
468.9	15456	
469.1	14292	
469.3	14861	
469.5	17187	
469.7	15622	
469.9	14398	
470.1	14278	
470.3	15939	
470.5	15750	
470.7	15261	
470.9	14110	
471.1	15767	
471.3	15577	
471.5	14091	
471.69	15281	
471.89	15366	
472.09	14915	
472.29	14599	
472.49	14330	
472.69	15309	
472.89	15558	
473.09	13748	
473.29	13478	
473.49	15277	
473.69	15007	
473.89	14191	
474.09	13583	
474.29	15899	
474.49	15487	
474.69	14283	
474.89	13553	
475.09	15067	
475.29	14969	
475.49	13046	
475.69	13518	
475.88	15827	
476.08	15175	
476.28	13211	
476.48	13126	
476.68	15089	
476.88	15051	
477.08	13013	
477.28	13411	
477.48	14485	
477.68	14759	
477.88	12935	
478.08	12998	
478.28	15233	
478.48	14513	
478.67	13212	
478.87	12340	
479.07	15378	
479.27	14573	
479.47	13154	
479.67	13317	
479.87	15020	
480.07	15252	
480.27	12701	
480.47	13738	
480.67	14574	
480.87	15136	
481.06	12716	
481.26	13465	
481.46	14753	
481.66	14578	
481.86	13151	
482.06	13849	
482.26	14487	
482.46	14940	
482.66	13005	
482.86	12804	
483.05	14698	
483.25	14076	
483.45	14726	
483.65	12962	
483.85	14252	
484.05	14621	
484.25	13366	
484.45	13886	
484.65	15135	
484.84	15406	
485.04	13041	
485.24	13035	
485.44	15629	
485.64	14385	
485.84	12877	
486.04	13759	
486.24	14685	
486.44	14972	
486.63	12865	
486.83	13558	
487.03	14863	
487.23	15123	
487.43	12884	
487.63	14720	
487.83	15287	
488.02	15816	
488.22	13953	
488.42	14508	
488.62	16049	
488.82	15012	
489.02	13507	
489.22	13881	
489.41	15667	
489.61	15578	
489.81	13471	
490.01	13550	
490.21	15839	
490.41	16303	
490.61	13601	
490.8	13747	
491	15674	
491.2	14929	
491.4	13960	
491.6	13512	
491.8	15384	
491.99	15173	
492.19	13103	
492.39	13259	
492.59	15548	
492.79	15633	
492.99	13914	
493.18	13325	
493.38	15696	
493.58	16526	
493.78	14106	
493.98	13842	
494.18	15613	
494.37	15483	
494.57	14678	
494.77	14587	
494.97	16286	
495.17	16598	
495.37	14556	
495.56	14851	
495.76	17014	
495.96	16740	
496.16	15696	
496.36	15104	
496.55	17034	
496.75	16821	
496.95	15347	
497.15	15246	
497.35	16932	
497.54	17115	
497.74	15145	
497.94	16379	
498.14	17641	
498.34	17417	
498.53	14926	
498.73	15403	
498.93	16748	
499.13	17113	
499.33	15567	
499.52	15825	
499.72	17402	
499.92	17441	
500.12	15329	
500.32	15484	
500.51	17497	
500.71	17447	
500.91	16105	
501.11	15890	
501.31	17686	
501.5	17655	
501.7	16402	
501.9	15624	
502.1	17284	
502.29	17643	
502.49	15983	
502.69	16018	
502.89	17367	
503.09	17392	
503.28	14821	
503.48	14958	
503.68	16693	
503.88	16716	
504.07	15544	
504.27	15076	
504.47	16685	
504.67	16680	
504.86	15485	
505.06	15093	
505.26	16275	
505.46	17487	
505.65	14846	
505.85	14950	
506.05	16149	
506.25	16384	
506.44	14076	
506.64	14454	
506.84	15662	
507.04	16121	
507.23	13983	
507.43	14371	
507.63	16916	
507.83	15635	
508.02	14236	
508.22	13865	
508.42	16975	
508.62	15236	
508.81	13925	
509.01	14490	
509.21	14947	
509.4	15434	
509.6	13936	
509.8	13640	
510	15205	
510.19	16152	
510.39	13361	
510.59	13594	
510.79	15178	
510.98	16184	
511.18	13663	
511.38	13946	
511.57	15851	
511.77	15458	
511.97	14144	
512.17	13631	
512.36	15666	
512.56	15406	
512.76	13450	
512.95	13177	
513.15	15810	
513.35	14633	
513.55	14010	
513.74	13448	
513.94	15584	
514.14	15031	
514.33	14214	
514.53	13880	
514.73	15065	
514.92	15262	
515.12	13523	
515.32	13474	
515.51	15319	
515.71	15665	
515.91	14762	
516.11	13551	
516.3	16548	
516.5	15233	
516.7	14007	
516.89	14261	
517.09	15207	
517.29	15348	
517.48	14227	
517.68	13679	
517.88	14941	
518.07	15544	
518.27	14109	
518.47	13354	
518.66	15711	
518.86	14834	
519.06	13166	
519.25	13384	
519.45	14920	
519.65	16094	
519.84	13921	
520.04	14519	
520.24	16412	
520.43	15511	
520.63	13706	
520.83	13585	
521.02	14917	
521.22	15233	
521.42	13642	
521.61	14024	
521.81	14863	
522.01	14872	
522.2	13471	
522.4	13209	
522.6	15382	
522.79	14283	
522.99	13276	
523.18	13048	
523.38	15078	
523.58	15266	
523.77	14466	
523.97	13202	
524.17	16707	
524.36	16148	
524.56	14315	
524.76	14171	
524.95	15610	
525.15	15294	
525.34	14083	
525.54	14250	
525.74	16191	
525.93	15507	
526.13	15128	
526.33	14404	
526.52	16695	
526.72	16116	
526.91	15235	
527.11	14843	
527.31	16569	
527.5	16871	
527.7	14780	
527.89	14135	
528.09	15891	
528.29	16268	
528.48	14991	
528.68	14668	
528.87	16598	
529.07	16343	
529.27	14805	
529.46	14605	
529.66	16593	
529.85	16822	
530.05	14621	
530.25	15046	
530.44	17511	
530.64	16172	
530.83	14783	
531.03	14818	
531.23	16654	
531.42	16337	
531.62	15243	
531.81	14666	
532.01	16832	
532.21	17075	
532.4	14793	
532.6	15161	
532.79	17498	
532.99	17096	
533.18	15367	
533.38	16021	
533.58	16993	
533.77	17406	
533.97	15539	
534.16	16023	
534.36	17632	
534.55	17064	
534.75	16115	
534.95	15601	
535.14	17889	
535.34	17027	
535.53	15313	
535.73	16763	
535.92	18043	
536.12	16914	
536.31	15354	
536.51	16079	
536.71	17252	
536.9	16815	
537.1	15228	
537.29	15362	
537.49	17374	
537.68	16689	
537.88	15453	
538.07	15022	
538.27	17083	
538.46	17570	
538.66	15030	
538.86	15382	
539.05	16991	
539.25	17332	
539.44	15727	
539.64	15003	
539.83	16604	
540.03	17548	
540.22	15068	
540.42	15054	
540.61	16765	
540.81	16995	
541	15267	
541.2	15793	
541.39	16214	
541.59	16629	
541.78	15520	
541.98	14756	
542.18	16013	
542.37	16014	
542.57	14829	
542.76	15395	
542.96	15863	
543.15	16192	
543.35	14820	
543.54	14309	
543.74	16189	
543.93	15970	
544.13	14418	
544.32	15111	
544.52	15970	
544.71	15481	
544.91	13628	
545.1	14461	
545.3	15468	
545.49	15834	
545.69	13379	
545.88	13866	
546.08	16587	
546.27	16111	
546.47	14255	
546.66	13611	
546.86	15915	
547.05	16137	
547.24	13777	
547.44	13821	
547.63	15018	
547.83	15822	
548.02	14016	
548.22	13975	
548.41	14795	
548.61	15714	
548.8	13487	
549	13435	
549.19	15194	
549.39	15528	
549.58	13013	
549.78	13577	
549.97	15412	
550.17	14848	
550.36	14011	
550.55	14694	
550.75	14855	
550.94	15529	
551.14	12975	
551.33	13248	
551.53	14350	
551.72	15125	
551.92	13304	
552.11	13086	
552.31	15120	
552.5	14922	
552.69	14258	
552.89	12744	
553.08	15094	
553.28	14713	
553.47	13106	
553.67	13848	
553.86	15300	
554.06	14002	
554.25	12372	
554.44	12800	
554.64	15717	
554.83	15367	
555.03	12662	
555.22	12983	
555.42	14896	
555.61	14640	
555.8	12717	
556	12958	
556.19	13965	
556.39	14724	
556.58	12600	
556.78	12572	
556.97	14421	
557.16	14076	
557.36	13562	
557.55	12499	
557.75	13545	
557.94	15054	
558.13	12420	
558.33	12342	
558.52	14885	
558.72	13851	
558.91	12235	
559.1	12380	
559.3	13715	
559.49	13451	
559.69	12062	
559.88	12648	
560.07	14134	
560.27	14515	
560.46	12664	
560.66	12747	
560.85	13902	
561.04	13202	
561.24	12075	
561.43	12234	
561.63	13343	
561.82	13632	
562.01	12959	
562.21	12154	
562.4	13683	
562.59	14529	
562.79	12061	
562.98	11852	
563.18	13746	
563.37	14899	
563.56	12451	
563.76	11912	
563.95	13465	
564.14	13226	
564.34	12174	
564.53	11894	
564.73	13836	
564.92	14008	
565.11	12317	
565.31	11909	
565.5	14249	
565.69	13370	
565.89	11979	
566.08	12185	
566.27	13926	
566.47	14448	
566.66	12674	
566.85	11778	
567.05	13964	
567.24	13391	
567.44	11860	
567.63	12833	
567.82	13992	
568.02	13687	
568.21	11830	
568.4	12114	
568.6	13722	
568.79	13639	
568.98	11748	
569.18	11777	
569.37	13719	
569.56	15008	
569.76	12083	
569.95	12769	
570.14	13835	
570.34	13699	
570.53	11598	
570.72	11601	
570.91	14079	
571.11	13426	
571.3	11867	
571.49	12526	
571.69	13431	
571.88	12805	
572.07	12184	
572.27	12020	
572.46	12873	
572.65	13733	
572.85	11662	
573.04	11755	
573.23	13960	
573.43	13375	
573.62	11486	
573.81	11941	
574	13450	
574.2	13252	
574.39	11807	
574.58	11867	
574.78	14146	
574.97	13550	
575.16	12185	
575.36	12291	
575.55	13891	
575.74	14014	
575.93	11476	
576.13	12450	
576.32	13298	
576.51	13842	
576.71	11895	
576.9	12793	
577.09	14116	
577.28	13575	
577.48	12108	
577.67	11342	
577.86	13351	
578.05	13741	
578.25	11906	
578.44	11892	
578.63	13498	
578.83	14457	
579.02	11477	
579.21	12524	
579.4	13590	
579.6	13302	
579.79	11945	
579.98	13495	
580.17	13835	
580.37	13929	
580.56	11605	
580.75	12102	
580.94	14135	
581.14	14239	
581.33	12584	
581.52	11724	
581.71	13702	
581.91	14244	
582.1	11596	
582.29	11878	
582.48	13680	
582.68	13594	
582.87	12379	
583.06	12129	
583.25	13880	
583.45	13382	
583.64	12709	
583.83	13055	
584.02	13517	
584.21	13911	
584.41	12586	
584.6	12101	
584.79	13788	
584.98	14127	
585.18	11789	
585.37	11738	
585.56	13350	
585.75	13864	
585.94	11795	
586.14	12344	
586.33	14201	
586.52	13485	
586.71	12001	
586.91	11710	
587.1	12902	
587.29	13604	
587.48	11549	
587.67	11563	
587.87	13474	
588.06	13205	
588.25	12433	
588.44	11716	
588.63	12856	
588.83	13311	
589.02	11172	
589.21	10922	
589.4	12496	
589.59	12501	
589.78	10125	
589.98	10274	
590.17	11628	
590.36	11907	
590.55	9370.8	
590.74	9838.4	
590.94	12428	
591.13	11377	
591.32	9517.6	
591.51	9045.2	
591.7	11433	
591.89	11109	
592.09	9192	
592.28	9471.2	
592.47	10634	
592.66	12093	
592.85	9202.9	
593.05	9368.8	
593.24	11052	
593.43	11843	
593.62	9457.5	
593.81	9830.9	
594	11343	
594.19	11443	
594.39	9477.3	
594.58	9428.2	
594.77	11395	
594.96	11868	
595.15	9491	
595.34	9878.7	
595.54	11286	
595.73	10787	
595.92	8807.6	
596.11	9624.8	
596.3	11670	
596.49	10808	
596.68	9393.4	
596.88	9716.9	
597.07	11368	
597.26	10677	
597.45	9179	
597.64	10012	
597.83	10926	
598.02	11358	
598.22	9222.7	
598.41	9708.7	
598.6	11293	
598.79	10834	
598.98	9327.8	
599.17	10016	
599.36	11203	
599.55	12072	
599.74	10716	
599.94	10582	
600.13	11714	
600.32	10834	
600.51	9118.9	
600.7	9234.3	
600.89	12094	
601.08	12170	
601.27	9163.3	
601.47	9861	
601.66	11617	
601.85	11981	
602.04	9711.5	
602.23	9825.5	
602.42	11040	
602.61	11473	
602.8	9566.7	
602.99	9329.9	
603.18	11247	
603.37	11307	
603.57	9765.4	
603.76	10223	
603.95	11898	
604.14	11497	
604.33	9542.2	
604.52	9706	
604.71	11388	
604.9	11116	
605.09	10139	
605.28	10079	
605.47	11910	
605.66	11447	
605.86	9852.8	
606.05	9515.5	
606.24	11696	
606.43	10760	
606.62	9676.7	
606.81	10250	
607	11557	
607.19	11143	
607.38	9184.5	
607.57	9394	
607.76	10886	
607.95	10440	
608.14	9634.3	
608.33	10065	
608.52	10877	
608.72	11497	
608.91	8970.1	
609.1	8930.5	
609.29	10867	
609.48	10394	
609.67	9565.4	
609.86	9000.8	
610.05	10547	
610.24	10712	
610.43	8817.2	
610.62	8630.1	
610.81	11507	
611	11372	
611.19	8875.9	
611.38	9475.3	
611.57	10886	
611.76	11875	
611.95	8744.8	
612.14	8614.4	
612.33	10800	
612.52	10454	
612.71	9082.7	
612.9	8490.2	
613.09	10210	
613.28	11718	
613.47	8950.3	
613.66	9519	
613.85	10828	
614.04	10348	
614.24	8862.9	
614.43	8194.6	
614.62	10761	
614.81	10699	
615	9144.9	
615.19	9243.2	
615.38	10203	
615.57	10607	
615.76	9135.3	
615.95	9807.7	
616.14	10929	
616.33	10505	
616.52	9368.8	
616.71	9448.6	
616.9	10774	
617.09	10643	
617.28	8941.4	
617.47	9643.9	
617.66	10073	
617.85	10175	
618.04	9441.8	
618.22	9015.8	
618.41	10394	
618.6	11108	
618.79	9033.6	
618.98	8868.4	
619.17	11269	
619.36	10079	
619.55	8943.5	
619.74	8994.7	
619.93	10774	
620.12	10425	
620.31	9494.4	
620.5	9570.2	
620.69	11305	
620.88	11583	
621.07	10099	
621.26	9449.3	
621.45	10903	
621.64	10984	
621.83	9534	
622.02	8884.1	
622.21	11023	
622.4	10882	
622.59	9849.4	
622.78	9684.2	
622.97	10474	
623.16	11295	
623.35	9441.8	
623.54	8751	
623.72	10664	
623.91	10647	
624.1	9562.6	
624.29	8710	
624.48	11472	
624.67	10901	
624.86	9343.5	
625.05	8821.3	
625.24	11566	
625.43	10395	
625.62	10520	
625.81	8903.2	
626	10959	
626.19	10635	
626.38	9424.1	
626.56	8966	
626.75	10340	
626.94	10875	
627.13	9389.3	
627.32	8475.2	
627.51	10840	
627.7	11609	
627.89	8395.3	
628.08	9227.5	
628.27	9941.5	
628.46	10200	
628.65	8501.1	
628.83	8312	
629.02	10514	
629.21	9925.8	
629.4	8789.2	
629.59	8956.4	
629.78	10017	
629.97	10548	
630.16	8914.8	
630.35	8583	
630.54	11106	
630.72	10757	
630.91	8624	
631.1	8950.3	
631.29	10469	
631.48	10477	
631.67	9127.8	
631.86	8622.6	
632.05	10253	
632.24	10224	
632.42	8415.8	
632.61	8841.8	
632.8	10225	
632.99	9855.5	
633.18	8939.4	
633.37	9110.7	
633.56	10444	
633.75	10355	
633.93	8916.9	
634.12	8718.2	
634.31	11098	
634.5	10660	
634.69	8765.3	
634.88	9027.4	
635.07	10285	
635.25	10717	
635.44	9302.6	
635.63	9505.3	
635.82	10231	
636.01	9753.1	
636.2	9177.6	
636.39	8854.1	
636.57	11018	
636.76	10553	
636.95	8558.5	
637.14	9477.3	
637.33	10399	
637.52	10985	
637.7	8394.6	
637.89	9112.8	
638.08	10249	
638.27	11161	
638.46	9179	
638.65	9300.5	
638.83	11088	
639.02	9998.9	
639.21	8951.7	
639.4	9254.1	
639.59	10263	
639.78	9981.1	
639.96	8292.9	
640.15	8433.5	
640.34	10170	
640.53	10181	
640.72	8191.9	
640.91	8357.1	
641.09	9734	
641.28	10550	
641.47	8377.6	
641.66	8893	
641.85	10113	
642.03	10215	
642.22	8656.1	
642.41	8341.4	
642.6	9633	
642.79	9258.9	
642.97	8202.1	
643.16	8570.7	
643.35	9589.3	
643.54	9377	
643.73	8026	
643.91	8514.1	
644.1	9284.1	
644.29	9623.4	
644.48	7922.2	
644.67	7954.3	
644.85	9201.5	
645.04	9509.4	
645.23	7527	
645.42	7843	
645.6	9131.9	
645.79	9684.2	
645.98	7551.5	
646.17	6825.9	
646.36	8679.3	
646.54	9006.3	
646.73	7935.2	
646.92	7139.2	
647.11	8638.3	
647.29	9369.5	
647.48	7082.6	
647.67	6774.7	
647.86	9443.2	
648.05	9563.3	
648.23	7228.6	
648.42	8112.7	
648.61	9017.2	
648.8	8833.6	
648.98	6964.5	
649.17	7303.7	
649.36	8550.3	
649.55	8200.1	
649.73	7051.2	
649.92	7582.9	
650.11	8519.5	
650.3	8846.5	
650.48	7080.5	
650.67	7020.4	
650.86	8873.2	
651.05	8120.9	
651.23	7101	
651.42	6995.9	
651.61	8502.5	
651.79	8341.4	
651.98	7172.7	
652.17	6865.5	
652.36	8719.6	
652.54	8075.8	
652.73	6855.9	
652.92	6825.2	
653.11	8761.2	
653.29	8848.6	
653.48	6453.1	
653.67	7047.1	
653.85	8570.1	
654.04	9269.8	
654.23	7284.6	
654.42	6904.4	
654.6	8155.7	
654.79	8628.8	
654.98	6427.9	
655.16	6740.5	
655.35	7808.2	
655.54	7586.4	
655.73	6328.2	
655.91	6238.1	
656.1	8372.8	
656.29	7522.9	
656.47	5995.8	
656.66	7191.1	
656.85	7836.2	
657.03	7839.6	
657.22	6460.7	
657.41	6489.3	
657.59	7990.5	
657.78	7851.2	
657.97	6238.8	
658.16	6871.6	
658.34	8538	
658.53	8886.8	
658.72	7510.6	
658.9	7759.1	
659.09	8245.8	
659.28	8230.1	
659.46	6679.8	
659.65	6632.7	
659.84	7959.1	
660.02	8426.7	
660.21	6711.2	
660.4	6537.8	
660.58	8730.5	
660.77	8265.6	
660.96	7051.8	
661.14	6323.4	
661.33	9094.3	
661.52	9047.2	
661.7	6342.6	
661.89	8777.6	
662.08	7918.8	
662.26	7657.4	
662.45	6469.5	
662.64	6578.1	
662.82	8484.1	
663.01	7870.3	
663.2	6507.8	
663.38	7154.9	
663.57	8418.5	
663.75	8209.6	
663.94	6744	
664.13	7566.6	
664.31	7993.2	
664.5	8349.6	
664.69	7045.7	
664.87	7341.3	
665.06	7732.4	
665.25	8187.1	
665.43	7457.3	
665.62	7387.7	
665.8	8406.9	
665.99	7909.3	
666.18	6708.5	
666.36	6722.1	
666.55	8406.2	
666.74	8296.3	
666.92	6413.6	
667.11	7469.6	
667.29	7874.4	
667.48	8299.1	
667.67	7268.2	
667.85	6507.1	
668.04	7905.8	
668.22	7887.4	
668.41	6690	
668.6	6797.2	
668.78	7682.6	
668.97	7939.3	
669.15	6924.2	
669.34	6163	
669.53	7726.3	
669.71	7932.5	
669.9	6229.9	
670.08	6709.1	
670.27	7604.8	
670.46	8086.1	
670.64	6896.9	
670.83	7053.2	
671.01	7560.4	
671.2	8036.2	
671.38	6337.8	
671.57	6211.5	
671.76	8421.2	
671.94	8880	
672.13	6158.9	
672.31	6893.5	
672.5	8243.1	
672.69	7647.8	
672.87	6311.2	
673.06	6533	
673.24	8075.1	
673.43	7711.3	
673.61	6845.7	
673.8	6478.4	
673.98	8069	
674.17	8244.4	
674.36	6812.9	
674.54	6809.5	
674.73	7922.9	
674.91	8193.2	
675.1	6423.8	
675.28	6155.5	
675.47	7780.2	
675.65	8176.2	
675.84	6402.6	
676.03	6736.5	
676.21	7635.5	
676.4	7247.8	
676.58	6911.2	
676.77	6814.3	
676.95	8730.5	
677.14	7531.7	
677.32	6148.7	
677.51	6039.5	
677.69	8144.1	
677.88	7436.2	
678.06	6053.1	
678.25	6234.7	
678.44	7732.4	
678.62	7640.3	
678.81	5832.6	
678.99	6640.9	
679.18	8261.5	
679.36	7957.7	
679.55	6313.2	
679.73	6712.6	
679.92	7931.1	
680.1	7533.8	
680.29	7166.5	
680.47	6285.9	
680.66	7508.5	
680.84	8069	
681.03	5796.4	
681.21	6493.4	
681.4	7540.6	
681.58	7453.9	
681.77	6091.3	
681.95	6038.8	
682.14	8019.2	
682.32	8270.4	
682.51	6809.5	
682.69	5803.3	
682.88	7344.7	
683.06	7775.5	
683.25	6439.5	
683.43	6778.8	
683.62	7636.2	
683.8	7862.2	
683.99	6851.1	
684.17	6346.7	
684.36	8353.7	
684.54	7427.3	
684.73	5629.2	
684.91	5718.6	
685.1	7596.6	
685.28	6907.8	
685.46	5976.7	
685.65	5940.5	
685.83	7419.1	
686.02	6895.5	
686.2	5417.6	
686.39	5482.4	
686.57	6500.9	
686.76	7705.8	
686.94	5410.1	
687.13	5537.7	
687.31	7228	
687.5	6958.3	
687.68	5143.1	
687.86	6029.9	
688.05	8164.6	
688.23	6486.6	
688.42	6096.8	
688.6	5516.5	
688.79	6881.9	
688.97	6888	
689.16	5851	
689.34	5079	
689.52	7410.2	
689.71	7648.5	
689.89	5954.8	
690.08	5534.3	
690.26	7186.3	
690.45	6972.7	
690.63	6186.9	
690.81	5727.5	
691	6989	
691.18	6858	
691.37	5735.7	
691.55	7225.2	
691.74	6761.7	
691.92	8201.4	
692.1	5744.6	
692.29	5274.2	
692.47	6797.2	
692.66	6438.1	
692.84	5344.5	
693.02	5664	
693.21	6435.4	
693.39	6870.9	
693.58	5894.1	
693.76	5362.9	
693.94	7619.8	
694.13	7507.9	
694.31	5404.6	
694.5	6249	
694.68	6791.1	
694.86	7110.5	
695.05	5797.1	
695.23	5877	
695.42	7387	
695.6	8881.4	
695.78	6347.3	
695.97	5633.3	
696.15	7548.1	
696.34	6961.7	
696.52	5538.4	
696.7	6061.3	
696.89	7279.2	
697.07	6766.5	
697.25	5948.7	
697.44	6935.1	
697.62	7098.9	
697.81	7339.2	
697.99	5668.1	
698.17	5909.1	
698.36	6634.7	
698.54	7109.2	
698.72	5818.3	
698.91	5145.9	
699.09	6805.4	
699.28	6627.9	
699.46	5604.6	
699.64	5454.4	
699.83	6659.3	
700.01	7390.4	
700.19	6018.3	
700.38	4942.4	
700.56	7385	
700.74	6679.8	
700.93	5265.3	
701.11	5858.6	
701.29	7035.5	
701.48	7900.4	
701.66	5470.8	
701.84	5554.1	
702.03	6950.1	
702.21	7344.7	
702.39	5168.4	
702.58	5670.1	
702.76	7213.6	
702.94	7243.7	
703.13	5183.4	
703.31	6917.4	
703.49	6717.3	
703.68	7808.2	
703.86	5337	
704.04	6119.3	
704.23	7043	
704.41	7339.2	
704.59	5459.9	
704.78	6329.6	
704.96	8172.8	
705.14	7247.1	
705.33	5305.6	
705.51	5846.3	
705.69	6832.7	
705.87	7505.8	
706.06	6008.7	
706.24	5249.6	
706.42	7161.1	
706.61	7308.5	
706.79	6081.1	
706.97	5215.5	
707.16	6741.2	
707.34	7166.5	
707.52	6056.5	
707.7	5433.9	
707.89	6783.6	
708.07	6535.8	
708.25	6110.5	
708.44	6091.3	
708.62	6734.4	
708.8	7531.1	
708.98	6214.9	
709.17	5459.2	
709.35	6981.5	
709.53	6963.8	
709.72	5292	
709.9	5324.7	
710.08	7289.4	
710.26	7301.7	
710.45	6336.4	
710.63	5532.2	
710.81	6973.3	
710.99	6919.4	
711.18	5910.4	
711.36	5447.6	
711.54	6730.3	
711.72	7319.4	
711.91	5612.8	
712.09	5124.7	
712.27	6877.8	
712.45	7292.8	
712.64	5679	
712.82	4922	
713	6443.6	
713.18	6463.4	
713.37	4947.9	
713.55	5907.7	
713.73	7053.2	
713.91	5975.3	
714.1	5058.5	
714.28	4693.3	
714.46	6617.7	
714.64	6053.8	
714.83	4192.2	
715.01	4655.7	
715.19	6050.4	
715.37	5406	
715.55	4372.4	
715.74	4548.5	
715.92	6452.5	
716.1	5047.6	
716.28	5311.1	
716.47	4577.9	
716.65	5606	
716.83	5617.6	
717.01	4450.2	
717.19	4474.8	
717.38	7079.1	
717.56	5334.3	
717.74	4703.5	
717.92	4002.4	
718.1	6275	
718.29	5595.1	
718.47	3758.7	
718.65	4306.9	
718.83	6258.6	
719.01	6219.7	
719.2	3894.6	
719.38	4685.8	
719.56	6015.6	
719.74	7206.1	
719.92	4526	
720.11	5210.7	
720.29	6204	
720.47	5493.3	
720.65	4068.6	
720.83	4702.1	
721.02	5679	
721.2	5556.8	
721.38	4648.2	
721.56	4072	
721.74	5064.6	
721.92	5152.7	
722.11	4861.9	
722.29	4656.4	
722.47	6065.4	
722.65	5492.7	
722.83	4096.6	
723.01	4632.5	
723.2	5537.7	
723.38	5735.7	
723.56	3677.5	
723.74	4470	
723.92	5211.4	
724.1	5966.4	
724.29	4034.5	
724.47	4827.1	
724.65	5369.1	
724.83	5165	
725.01	3983.3	
725.19	4547.9	
725.37	5186.1	
725.56	5178.6	
725.74	3844.7	
725.92	4011.3	
726.1	5215.5	
726.28	5410.7	
726.46	4309.6	
726.64	4026.3	
726.83	5437.4	
727.01	5618.9	
727.19	3875.4	
727.37	4332.8	
727.55	5575.9	
727.73	5902.9	
727.91	3802.4	
728.09	3713.6	
728.28	5895.4	
728.46	6110.5	
728.64	4419.5	
728.82	4379.2	
729	6628.6	
729.18	6155.5	
729.36	3846.8	
729.54	5515.2	
729.72	6802.7	
729.91	5634.6	
730.09	5378	
730.27	4410	
730.45	5602.6	
730.63	6068.1	
730.81	4900.8	
730.99	4187.4	
731.17	6532.3	
731.35	5473.5	
731.53	4594.3	
731.71	4384.7	
731.9	6237.4	
732.08	6337.8	
732.26	4553.3	
732.44	4248.9	
732.62	6423.1	
732.8	6029.2	
732.98	4710.3	
733.16	4055	
733.34	6046.3	
733.52	5111.7	
733.7	4426.3	
733.88	4583.4	
734.07	5861.3	
734.25	5775.3	
734.43	4078.2	
734.61	5193	
734.79	6845	
734.97	5672.2	
735.15	4113.7	
735.33	4439.3	
735.51	5949.3	
735.69	5653.8	
735.87	5126.1	
736.05	4491.2	
736.23	5788.2	
736.41	5554.8	
736.59	4475.5	
736.77	4530.8	
736.95	6103.6	
737.13	5640.8	
737.32	4153.3	
737.5	4279.6	
737.68	6560.3	
737.86	5589.6	
738.04	4078.2	
738.22	5331.5	
738.4	5492.7	
738.58	5713.8	
738.76	4466.6	
738.94	3732.1	
739.12	5546.6	
739.3	5512.4	
739.48	4840.7	
739.66	4620.2	
739.84	5758.2	
740.02	5694.7	
740.2	3820.1	
740.38	4047.5	
740.56	5982.8	
740.74	5088.5	
740.92	4578.6	
741.1	4399.7	
741.28	5624.4	
741.46	5418.2	
741.64	4182.6	
741.82	4576.5	
742	5659.9	
742.18	5492	
742.36	4362.2	
742.54	4041.3	
742.72	6060.6	
742.9	5055.8	
743.08	4588.8	
743.26	3713.6	
743.44	6044.9	
743.62	6027.2	
743.8	4739	
743.98	3990.1	
744.16	5754.8	
744.34	5537	
744.52	4587.4	
744.7	4530.1	
744.88	5832.6	
745.06	5489.9	
745.24	4653	
745.42	4668	
745.6	5967.1	
745.78	5811.5	
745.96	3768.9	
746.14	4012	
746.32	6462.7	
746.5	5791.7	
746.68	4344.4	
746.86	3974.4	
747.03	6081.8	
747.21	5003.2	
747.39	4345.1	
747.57	3974.4	
747.75	5571.8	
747.93	5849.7	
748.11	3955.3	
748.29	3838.6	
748.47	6768.5	
748.65	5347.2	
748.83	4417.5	
749.01	4188.1	
749.19	5705.6	
749.37	5046.9	
749.55	4166.3	
749.73	4194.2	
749.91	5488.6	
750.09	5328.8	
750.26	4296	
750.44	3825.6	
750.62	5460.6	
750.8	5438	
750.98	3663.8	
751.16	3920.5	
751.34	5573.2	
751.52	5081	
751.7	4524	
751.88	3704.8	
752.06	5828.5	
752.24	5620.3	
752.42	3635.8	
752.59	3938.9	
752.77	5477.6	
752.95	6293.4	
753.13	4429.1	
753.31	3965.6	
753.49	5206.6	
753.67	5405.3	
753.85	4233.8	
754.03	3837.2	
754.21	5707	
754.38	5934.3	
754.56	3900	
754.74	3300.6	
754.92	5141.8	
755.1	5501.5	
755.28	3245.3	
755.46	3295.9	
755.64	6093.4	
755.82	6189.6	
755.99	3467.2	
756.17	3494.5	
756.35	4360.1	
756.53	5462.6	
756.71	2695.8	
756.89	3364.1	
757.07	5138.4	
757.25	4515.1	
757.42	3749.1	
757.6	4333.5	
757.78	5246.2	
757.96	4513	
758.14	3545.7	
758.32	3249.4	
758.5	4157.4	
758.67	4752	
758.85	3367.5	
759.03	3425.6	
759.21	4960.9	
759.39	4457.1	
759.57	3133.4	
759.75	3893.2	
759.92	5430.5	
760.1	4956.1	
760.28	4147.1	
760.46	4410.6	
760.64	4760.8	
760.82	4614.1	
760.99	4040	
761.17	3484.3	
761.35	5295.4	
761.53	4539	
761.71	3526.6	
761.89	4071.4	
762.06	5214.8	
762.24	4853	
762.42	3661.1	
762.6	3468.6	
762.78	4855.1	
762.96	5274.9	
763.13	3947.1	
763.31	3628.3	
763.49	5368.4	
763.67	4865.3	
763.85	4214	
764.02	4648.2	
764.2	5680.4	
764.38	4960.2	
764.56	3599	
764.74	4258.4	
764.91	5695.4	
765.09	4830.5	
765.27	3419.4	
765.45	3254.9	
765.63	5794.4	
765.8	5652.4	
765.98	3161.4	
766.16	3288.4	
766.34	4596.3	
766.52	4430.4	
766.69	3969	
766.87	3180.5	
767.05	4863.9	
767.23	5375.2	
767.41	3437.2	
767.58	3568.2	
767.76	5293.3	
767.94	5378	
768.12	3447.4	
768.29	3953.9	
768.47	4928.8	
768.65	5522.7	
768.83	3211.9	
769	3980.6	
769.18	4665.3	
769.36	5097.4	
769.54	4029	
769.72	3213.9	
769.89	5430.5	
770.07	5398.4	
770.25	3495.9	
770.43	4349.2	
770.6	5877.7	
770.78	6083.8	
770.96	3598.3	
771.14	3968.3	
771.31	5270.8	
771.49	4827.1	
771.67	2994.8	
771.85	3187.3	
772.02	4280.9	
772.2	4835.9	
772.38	3735.5	
772.55	3355.9	
772.73	5060.5	
772.91	4799.1	
773.09	3606.5	
773.26	3667.2	
773.44	5022.3	
773.62	4799.8	
773.8	3290.4	
773.97	3110.9	
774.15	5066.7	
774.33	4783.4	
774.5	3223.5	
774.68	3463.8	
774.86	5132.9	
775.04	4812.7	
775.21	3293.1	
775.39	3198.9	
775.57	4978.6	
775.74	5236	
775.92	3125.2	
776.1	3026.2	
776.27	4891.9	
776.45	5821.7	
776.63	3233.7	
776.81	2880.8	
776.98	4703.5	
777.16	5468.8	
777.34	3313.6	
777.51	3564.8	
777.69	4713.1	
777.87	4532.2	
778.04	3433.1	
778.22	3771.7	
778.4	4530.1	
778.57	5036.6	
778.75	2892.4	
778.93	3083.6	
779.1	4393.6	
779.28	4297.3	
779.46	2877.4	
779.64	3201.7	
779.81	5167.7	
779.99	5733.6	
780.17	3799	
780.34	3882.9	
780.52	4775.2	
780.69	4883.7	
780.87	3439.2	
781.05	3168.2	
781.22	4829.8	
781.4	4848.2	
781.58	3213.3	
781.75	2616.6	
781.93	4831.8	
782.11	4289.8	
782.28	3915	
782.46	3245.3	
782.64	4240.7	
782.81	4962.2	
782.99	3353.2	
783.17	3218	
783.34	4799.1	
783.52	4395.6	
783.69	3390.8	
783.87	3992.2	
784.05	4475.5	
784.22	4362.9	
784.4	3990.1	
784.58	3550.5	
784.75	5046.9	
784.93	4472.1	
785.1	3220.1	
785.28	3691.8	
785.46	4940.4	
785.63	4325.3	
785.81	3210.5	
785.99	3123.2	
786.16	4578.6	
786.34	4807.9	
786.51	3155.9	
786.69	3441.3	
786.87	4143	
787.04	4592.9	
787.22	3030.3	
787.39	3731.4	
787.57	4483.7	
787.75	5180.7	
787.92	3872.7	
788.1	3764.2	
788.27	4397.7	
788.45	4179.2	
788.63	3576.4	
788.8	2704.7	
788.98	4683	
789.15	4089.8	
789.33	2850.1	
789.5	3259	
789.68	5106.3	
789.86	5189.6	
790.03	3485	
790.21	3048.1	
790.38	5160.9	
790.56	4465.3	
790.73	3015.3	
790.91	3035.1	
791.09	4387.4	
791.26	4929.5	
791.44	3278.8	
791.61	2845.3	
791.79	4443.4	
791.96	4383.3	
792.14	2882.9	
792.32	2580.4	
792.49	4360.1	
792.67	4486.4	
792.84	3017.3	
793.02	2798.9	
793.19	4763.6	
793.37	5181.4	
793.54	2618	
793.72	2859.6	
793.89	5296.7	
794.07	4382	
794.25	3222.1	
794.42	2659.6	
794.6	5130.2	
794.77	4836.6	
794.95	3500.7	
795.12	3145.7	
795.3	4409.3	
795.47	4809.3	
795.65	3349.8	
795.82	3217.4	
796	4250.2	
796.17	5555.5	
796.35	3127.2	
796.52	3703.4	
796.7	4833.9	
796.87	4865.3	
797.05	3169.6	
797.22	3795.6	
797.4	4828.4	
797.57	5505.6	
797.75	3318.4	
797.92	3104	
798.1	5103.5	
798.27	4315.1	
798.45	2742.2	
798.62	2891	
798.8	4584	
798.97	4974.5	
799.15	3394.8	
799.32	3282.2	
799.5	4088.4	
799.67	4585.4	
799.85	3547.1	
800.02	2653.5	
800.2	4375.1	
800.37	4530.1	
800.55	3609.9	
800.72	3078.1	
800.9	4932.9	
801.07	5199.8	
801.25	4018.8	
801.42	3397.6	
801.6	5003.2	
801.77	4644.8	
801.95	3155.2	
802.12	3018	
802.29	4745.8	
802.47	4666	
802.64	3351.2	
802.82	2660.3	
802.99	4392.9	
803.17	5007.3	
803.34	3292.5	
803.52	2936.8	
803.69	5513.8	
803.87	4188.8	
804.04	3263.8	
804.21	3254.2	
804.39	5184.8	
804.56	4489.8	
804.74	2827.6	
804.91	3375.1	
805.09	4356.7	
805.26	4430.4	
805.44	2893.8	
805.61	3117.7	
805.78	4898.7	
805.96	4855.1	
806.13	3388.7	
806.31	3574.4	
806.48	4054.3	
806.66	4360.8	
806.83	3369.6	
807	3291.8	
807.18	4426.3	
807.35	4612	
807.53	3294.5	
807.7	2708.1	
807.87	5211.4	
808.05	4340.3	
808.22	3567.6	
808.4	2751.1	
808.57	4331.5	
808.74	4096.6	
808.92	3030.3	
809.09	3752.6	
809.27	4362.9	
809.44	4787.5	
809.61	2698.5	
809.79	2989.4	
809.96	5382.7	
810.14	4887.8	
810.31	2697.2	
810.48	3196.2	
810.66	4470	
810.83	4924.7	
811.01	3022.1	
811.18	3330.7	
811.35	4894	
811.53	3940.3	
811.7	3581.2	
811.87	3361.4	
812.05	4459.1	
812.22	4337.6	
812.39	2969.6	
812.57	2862.4	
812.74	4452.3	
812.92	5541.1	
813.09	3197.6	
813.26	3332.7	
813.44	5376.6	
813.61	4212	
813.78	2702.6	
813.96	3490.4	
814.13	4433.2	
814.3	4221.5	
814.48	3743.7	
814.65	3166.8	
814.82	5225.1	
815	4143	
815.17	3280.2	
815.34	3807.2	
815.52	4378.6	
815.69	4293.2	
815.87	3134.8	
816.04	3140.2	
816.21	4372.4	
816.38	4003.8	
816.56	3124.5	
816.73	2958.6	
816.9	5391.6	
817.08	4911.7	
817.25	2987.3	
817.42	3588.7	
817.6	4042	
817.77	4347.2	
817.94	3274.7	
818.12	2908.1	
818.29	4216.8	
818.46	6051.7	
818.64	3072.6	
818.81	2847.4	
818.98	4165.6	
819.16	5668.1	
819.33	3437.9	
819.5	3218	
819.67	4711.7	
819.85	5106.3	
820.02	3222.1	
820.19	3347.7	
820.37	4546.5	
820.54	4298	
820.71	3271.3	
820.88	3976.5	
821.06	4562.2	
821.23	4232.5	
821.4	3370.3	
821.58	3248.1	
821.75	4905.6	
821.92	4516.5	
822.09	2684.2	
822.27	2818.7	
822.44	4445.5	
822.61	4341.7	
822.79	2797.5	
822.96	4943.8	
823.13	4667.3	
823.3	4141	
823.48	3070.6	
823.65	2827.6	
823.82	4894	
823.99	4119.1	
824.17	3780.6	
824.34	2849.4	
824.51	5539.1	
824.68	4401.1	
824.86	2966.8	
825.03	3249.4	
825.2	4381.3	
825.37	5132.9	
825.55	2975.7	
825.72	3207.8	
825.89	5511.8	
826.06	5208.7	
826.24	3147.7	
826.41	3132	
826.58	5215.5	
826.75	4584	
826.92	2674	
827.1	2865.8	
827.27	6795.2	
827.44	5477.6	
827.61	3054.2	
827.79	3617.4	
827.96	4257.7	
828.13	4350.6	
828.3	3164.8	
828.47	2680.8	
828.65	4656.4	
828.82	4616.8	
828.99	3877.5	
829.16	3441.3	
829.34	4887.8	
829.51	4758.1	
829.68	3258.3	
829.85	3305.4	
830.02	5188.2	
830.2	4866	
830.37	2561.3	
830.54	3766.9	
830.71	5429.2	
830.88	4405.2	
831.05	2577.7	
831.23	2919.7	
831.4	5341.1	
831.57	5743.2	
831.74	3054.2	
831.91	2638.5	
832.09	4751.3	
832.26	4884.4	
832.43	3089	
832.6	3402.4	
832.77	4685.1	
832.94	5181.4	
833.12	2536.8	
833.29	3039.2	
833.46	4734.9	
833.63	5913.9	
833.8	3283.6	
833.97	3106.8	
834.15	4951.3	
834.32	4749.9	
834.49	3198.9	
834.66	3261.7	
834.83	4975.9	
835	4272.7	
835.17	3018	
835.35	2953.9	
835.52	4859.8	
835.69	4736.3	
835.86	3165.5	
836.03	2597.5	
836.2	4818.2	
836.37	4610.7	
836.55	3092.4	
836.72	2890.4	
836.89	4583.4	
837.06	4929.5	
837.23	3082.2	
837.4	3378.5	
837.57	5491.3	
837.75	5887.2	
837.92	2842.6	
838.09	3039.2	
838.26	4539.7	
838.43	5042.1	
838.6	3244.7	
838.77	2960.7	
838.94	5608	
839.11	5502.9	
839.29	3124.5	
839.46	2530.6	
839.63	4962.9	
839.8	4638	
839.97	2982.5	
840.14	2972.3	
840.31	4754.7	
840.48	4891.2	
840.65	2618	
840.82	2997.5	
841	4882.4	
841.17	4759.5	
841.34	2786.6	
841.51	2911.5	
841.68	4868.7	
841.85	4681	
842.02	2925.2	
842.19	2434.4	
842.36	4741	
842.53	4729.4	
842.7	2790.7	
842.87	3317	
843.05	5941.2	
843.22	4627	
843.39	2666.5	
843.56	2970.9	
843.73	4519.9	
843.9	4929.5	
844.07	4303.5	
844.24	3644	
844.41	6582.2	
844.58	4306.2	
844.75	2711.5	
844.92	2910.2	
845.09	4904.9	
845.26	4830.5	
845.43	2800.3	
845.6	2940.2	
845.77	4863.2	
845.94	4666.6	
846.12	3105.4	
846.29	3188.7	
846.46	5063.9	
846.63	4859.8	
846.8	2791.4	
846.97	3244.7	
847.14	5169.1	
847.31	4853	
847.48	3114.3	
847.65	3349.1	
847.82	5053	
847.99	5020.3	
848.16	3578.5	
848.33	3321.1	
848.5	4531.5	
848.67	5229.1	
848.84	2741.5	
849.01	2883.5	
849.18	4489.1	
849.35	4220.9	
849.52	3369.6	
849.69	2680.1	
849.86	5048.2	
850.03	5103.5	
850.2	2771.6	
850.37	3254.9	
850.54	5117.9	
850.71	4610.7	
850.88	3252.2	
851.05	2725.2	
851.22	4736.3	
851.39	5218.2	
851.56	2621.4	
851.73	3211.9	
851.9	4354	
852.07	5017.5	
852.24	3036.5	
852.41	2752.5	
852.58	4805.2	
852.75	4431.8	
852.92	3070.6	
853.09	2714.2	
853.26	4527.4	
853.43	5132.9	
853.6	2792.1	
853.77	2390.7	
853.94	5197.1	
854.11	4299.4	
854.28	4003.1	
854.44	3001	
854.61	5559.6	
854.78	5025	
854.95	2762	
855.12	3355.9	
855.29	4028.4	
855.46	5294	
855.63	2754.5	
855.8	3748.5	
855.97	4591.5	
856.14	5089.9	
856.31	3778.5	
856.48	3014.6	
856.65	4574.5	
856.82	4350.6	
856.99	2689.7	
857.16	2958.6	
857.33	5676.3	
857.49	4637.3	
857.66	2944.3	
857.83	3194.8	
858	4614.1	
858.17	4734.9	
858.34	2628.9	
858.51	2805.7	
858.68	5342.5	
858.85	5356.1	
859.02	3191.4	
859.19	3334.1	
859.36	4326.7	
859.52	4399.7	
859.69	2810.5	
859.86	3226.9	
860.03	4375.8	
860.2	5206.6	
860.37	2621.4	
860.54	2820.7	
860.71	5012.7	
860.88	5288.5	
861.05	3089	
861.21	3403	
861.38	5255.8	
861.55	4248.9	
861.72	2590	
861.89	3018.7	
862.06	5060.5	
862.23	5396.4	
862.4	2725.2	
862.56	2845.3	
862.73	4941.1	
862.9	4706.9	
863.07	3188	
863.24	2562.7	
863.41	4326.7	
863.58	4377.2	
863.75	2863.1	
863.91	3168.2	
864.08	5177.9	
864.25	4931.5	
864.42	3416	
864.59	3747.8	
864.76	5511.1	
864.93	4320.5	
865.09	2701.3	
865.26	2979.1	
865.43	5180.7	
865.6	5470.1	
865.77	2440.5	
865.94	2700.6	
866.1	5176.6	
866.27	4933.6	
866.44	4005.1	
866.61	2683.5	
866.78	4668	
866.95	4956.8	
867.11	2733.4	
867.28	2467.1	
867.45	5138.4	
867.62	4366.3	
867.79	3115.6	
867.96	2710.1	
868.12	4288.4	
868.29	4980	
868.46	2777.7	
868.63	3594.9	
868.8	5066.7	
868.97	4962.9	
869.13	2865.8	
869.3	2890.4	
869.47	4840	
869.64	5069.4	
869.81	2794.8	
869.97	2798.9	
870.14	4801.8	
870.31	5313.1	
870.48	2728.6	
870.65	3415.3	
870.81	4590.2	
870.98	4618.2	
871.15	3062.4	
871.32	2809.8	
871.48	4898.7	
871.65	5431.2	
871.82	2750.4	
871.99	2994.8	
872.16	5634	
872.32	5175.9	
872.49	2831	
872.66	2809.8	
872.83	5038	
872.99	4468	
873.16	3130	
873.33	2693.1	
873.5	4677.6	
873.67	4780.6	
873.83	2919.7	
874	3591.5	
874.17	4816.1	
874.34	5503.6	
874.5	3479.5	
874.67	3368.9	
874.84	5250.3	
875.01	4219.5	
875.17	3705.5	
875.34	2713.6	
875.51	4805.2	
875.68	5655.8	
875.84	3238.5	
876.01	3869.3	
876.18	5014.1	
876.34	4915.1	
876.51	2712.2	
876.68	2705.4	
876.85	4558.1	
877.01	5180.7	
877.18	3730	
877.35	2702.6	
877.52	4744.5	
877.68	4357.4	
877.85	2710.8	
878.02	2719	
878.18	4591.5	
878.35	4482.3	
878.52	2291.7	
878.69	3018	
878.85	5098.1	
879.02	4966.3	
879.19	3799	
879.35	3008.5	
879.52	5008.6	
879.69	5074.9	
879.86	2463	
880.02	3047.4	
880.19	4688.5	
880.36	5518.6	
880.52	3108.8	
880.69	3188	
880.86	5072.8	
881.02	5064.6	
881.19	3042.6	
881.36	2961.4	
881.52	4914.4	
881.69	4429.1	
881.86	2968.9	
882.02	2898.6	
882.19	5194.3	
882.36	5869.5	
882.52	2828.2	
882.69	3827	
882.86	4821.6	
883.02	4767.7	
883.19	3285.6	
883.36	3123.8	
883.52	5094.7	
883.69	5603.2	
883.86	2836.4	
884.02	2542.2	
884.19	5025.7	
884.36	4715.1	
884.52	3090.4	
884.69	2998.9	
884.86	4511.7	
885.02	5378.6	
885.19	3002.3	
885.36	3151.1	
885.52	4661.2	
885.69	4817.5	
885.86	3859.7	
886.02	3450.1	
886.19	5004.6	
886.35	4555.4	
886.52	3059.7	
886.69	3784	
886.85	4351.9	
887.02	5271.5	
887.19	5271.5	
887.35	5271.5	
887.52	5271.5	
887.68	5271.5	
887.85	5271.5	
888.02	5271.5	
888.18	5271.5	
888.35	5271.5	
888.51	5271.5	
888.68	5271.5	
888.85	5271.5	
889.01	5271.5	
889.18	5271.5	
889.35	5271.5	
889.51	5271.5	
889.68	5271.5	
889.84	5271.5	
890.01	5271.5	
890.17	5271.5	
890.34	5271.5	
890.51	5271.5	
890.67	5271.5	
890.84	5271.5	
891	5271.5	
891.17	5271.5	
891.34	5271.5	
891.5	5271.5	
891.67	5271.5	
891.83	5271.5	
892	5271.5	
892.16	5271.5	
892.33	5271.5	
892.5	5271.5	
892.66	5271.5	
892.83	5271.5	
892.99	5271.5	
893.16	5271.5	
893.32	5271.5	
893.49	5271.5	
893.65	5271.5	
893.82	5271.5	
893.99	5271.5	
894.15	5271.5	
894.32	5271.5	
894.48	5271.5	
894.65	5271.5	
894.81	5271.5	
894.98	5271.5	
895.14	5271.5	
895.31	5271.5	
895.47	5271.5	
895.64	5271.5	
895.81	5271.5	
895.97	5271.5	
896.14	5271.5	
896.3	5271.5	
896.47	5271.5	
896.63	5271.5	
896.8	5271.5	
896.96	5271.5	
897.13	5271.5	
897.29	5271.5	
897.46	5271.5	
897.62	5271.5	
897.79	5271.5	
897.95	5271.5	
898.12	5271.5	
898.28	5271.5	
898.45	5271.5	
898.61	5271.5	
898.78	5271.5	
898.94	5271.5	
899.11	5271.5	
899.27	5271.5	
899.44	5271.5	
899.6	5271.5	
899.77	5271.5	
899.93	5271.5	
900.1	5271.5	
900.26	5271.5	
900.43	5271.5	
900.59	5271.5	
900.76	5271.5	
900.92	5271.5	
901.09	5271.5	
901.25	5271.5	
901.42	5271.5	
901.58	5271.5	
901.75	5271.5	
901.91	5271.5	
902.07	5271.5	
902.24	5271.5	
902.4	5271.5	
902.57	5271.5	
902.73	5271.5	
902.9	5271.5	
903.06	5271.5	
903.23	5271.5	
903.39	5271.5	
903.56	5271.5	
903.72	5271.5	
903.88	5271.5	
904.05	5271.5	
904.21	5271.5	
904.38	5271.5	
904.54	5271.5	
904.71	5271.5	
904.87	5271.5	
905.03	5271.5	
905.2	5271.5	
905.36	5271.5	
905.53	5271.5	
905.69	5271.5	
905.86	5271.5	
906.02	5271.5	
906.18	5271.5	
906.35	5271.5	
906.51	5271.5	
906.68	5271.5	
906.84	5271.5	
907.01	5271.5	
907.17	5271.5	
907.33	5271.5	
907.5	5271.5	
907.66	5271.5	
907.83	5271.5	
907.99	5271.5	
908.15	5271.5	
908.32	5271.5	
908.48	5271.5	
908.65	5271.5	
908.81	5271.5	
908.97	5271.5	
909.14	5271.5	
909.3	5271.5	
909.47	5271.5	
909.63	5271.5	
909.79	5271.5	
909.96	5271.5	
910.12	5271.5	
910.28	5271.5	
910.45	5271.5	
910.61	5271.5	
910.78	5271.5	
910.94	5271.5	
911.1	5271.5	
911.27	5271.5	
911.43	5271.5	
911.59	5271.5	
911.76	5271.5	
911.92	5271.5	
912.08	5271.5	
912.25	5271.5	
912.41	5271.5	
912.57	5271.5	
912.74	5271.5	
912.9	5271.5	
913.07	5271.5	
913.23	5271.5	
913.39	5271.5	
913.56	5271.5	
913.72	5271.5	
913.88	5271.5	
914.05	5271.5	
914.21	5271.5	
914.37	5271.5	
914.54	5271.5	
914.7	5271.5	
914.86	5271.5	
915.03	5271.5	
915.19	5271.5	
