Wavelength	Intensities	
nm	a.u.	
179.22	1904.8	
179.44	1903.6	
179.65	1906	
179.86	1901.2	
180.08	1909.4	
180.29	5008	
180.51	3521.1	
180.72	5649	
180.94	6612.9	
181.15	3212.6	
181.37	3190.1	
181.58	5517.2	
181.79	5806	
182.01	3411.9	
182.22	3659	
182.44	5773.2	
182.65	4884.4	
182.87	4576.5	
183.08	4014	
183.29	6079.7	
183.51	4995.7	
183.72	3699.3	
183.94	5375.9	
184.15	5387.5	
184.37	5436.7	
184.58	3182.5	
184.79	4422.9	
185.01	4987.5	
185.22	5739.8	
185.44	4680.3	
185.65	3884.3	
185.86	5291.3	
186.08	4860.5	
186.29	3123.2	
186.51	3386	
186.72	5020.9	
186.94	5982.1	
187.15	3917.8	
187.36	4003.8	
187.58	7752.2	
187.79	5510.4	
188.01	4237.2	
188.22	6584.9	
188.43	6670.2	
188.65	5781.4	
188.86	3330.7	
189.08	4110.3	
189.29	5221.6	
189.5	5270.8	
189.72	3761.4	
189.93	3798.3	
190.15	5944.6	
190.36	7161.1	
190.57	4106.2	
190.79	3938.9	
191	6053.1	
191.22	6057.2	
191.43	4079.6	
191.64	3339.6	
191.86	6158.9	
192.07	5987.6	
192.29	3576.4	
192.5	3756.7	
192.71	5944.6	
192.93	5115.1	
193.14	3661.1	
193.35	3775.8	
193.57	5190.2	
193.78	5941.2	
194	3022.8	
194.21	3695.9	
194.42	4988.2	
194.64	5468.8	
194.85	4003.8	
195.07	4721.9	
195.28	5541.8	
195.49	4702.8	
195.71	5040.1	
195.92	3438.5	
196.13	5642.8	
196.35	5732.9	
196.56	5319.3	
196.78	4055	
196.99	7074.4	
197.2	6617.7	
197.42	4614.8	
197.63	4070	
197.84	4862.6	
198.06	5636	
198.27	3694.5	
198.48	5034.6	
198.7	5155.4	
198.91	5311.7	
199.13	4089.8	
199.34	4054.3	
199.55	5862.7	
199.77	4737	
199.98	3566.2	
200.19	4122.6	
200.41	5322.7	
200.62	5032.5	
200.83	4241.3	
201.05	4569.7	
201.26	5312.4	
201.47	5058.5	
201.69	3585.3	
201.9	3493.8	
202.11	5403.9	
202.33	6458.6	
202.54	3829	
202.76	4287.8	
202.97	5528.8	
203.18	5526.8	
203.4	4237.2	
203.61	4144.4	
203.82	5482.4	
204.04	5079.6	
204.25	4156.7	
204.46	3999	
204.68	5459.9	
204.89	5607.3	
205.1	3951.2	
205.32	3435.1	
205.53	5844.2	
205.74	5956.9	
205.96	2955.9	
206.17	4119.1	
206.38	5778.7	
206.6	5902.9	
206.81	4661.9	
207.02	3789.4	
207.24	5662.6	
207.45	6055.8	
207.66	3886.4	
207.88	3252.2	
208.09	5590.3	
208.3	5451.7	
208.52	3622.2	
208.73	3837.2	
208.94	5418.9	
209.15	6130.3	
209.37	3919.1	
209.58	4059.1	
209.79	5948	
210.01	5216.2	
210.22	3106.1	
210.43	3204.4	
210.65	5449.6	
210.86	5844.2	
211.07	3840.6	
211.29	3607.8	
211.5	5772.5	
211.71	5371.1	
211.93	3550.5	
212.14	3562.8	
212.35	5296.7	
212.56	5601.9	
212.78	4085.7	
212.99	3392.1	
213.2	6384.2	
213.42	5154.7	
213.63	3697.3	
213.84	3940.3	
214.06	4730.8	
214.27	4951.3	
214.48	3850.2	
214.69	4143.7	
214.91	6166.4	
215.12	6182.8	
215.33	4215.4	
215.55	4684.4	
215.76	6751.5	
215.97	5828.5	
216.18	3940.3	
216.4	3865.2	
216.61	5103.5	
216.82	5907	
217.04	3594.2	
217.25	3771	
217.46	6082.5	
217.67	5851	
217.89	3194.8	
218.1	3280.8	
218.31	5459.2	
218.53	5612.8	
218.74	3768.9	
218.95	3636.5	
219.16	5387.5	
219.38	6304.3	
219.59	3616.7	
219.8	4344.4	
220.01	7058	
220.23	5472.9	
220.44	4734.2	
220.65	3522.5	
220.87	5519.3	
221.08	5997.8	
221.29	3270.6	
221.5	4466.6	
221.72	7458.7	
221.93	5137.7	
222.14	4171	
222.35	4828.4	
222.57	5431.2	
222.78	5789.6	
222.99	3866.6	
223.2	4220.2	
223.42	5754.8	
223.63	5902.2	
223.84	3003.7	
224.05	3000.3	
224.27	7015	
224.48	6318.7	
224.69	4797.7	
224.9	4094.6	
225.12	5614.2	
225.33	5378.6	
225.54	3235.8	
225.75	3601	
225.97	4967	
226.18	5268.7	
226.39	3961.5	
226.6	3620.8	
226.82	5211.4	
227.03	5047.6	
227.24	4106.9	
227.45	3396.2	
227.67	5767.1	
227.88	6363.7	
228.09	4566.3	
228.3	4560.1	
228.52	5814.9	
228.73	5386.2	
228.94	3808.5	
229.15	3394.8	
229.36	5355.4	
229.58	5291.3	
229.79	3849.5	
230	4434.5	
230.21	6513.9	
230.43	5549.3	
230.64	4061.8	
230.85	4257	
231.06	5833.3	
231.28	5836.7	
231.49	3360	
231.7	3976.5	
231.91	5840.1	
232.12	5469.4	
232.34	3478.8	
232.55	3961.5	
232.76	6059.3	
232.97	5578.7	
233.18	3623.5	
233.4	4077.5	
233.61	5638.7	
233.82	5122	
234.03	3761.4	
234.25	3706.8	
234.46	7522.2	
234.67	5491.3	
234.88	4178.5	
235.09	3622.2	
235.31	5778.7	
235.52	5341.8	
235.73	4073.4	
235.94	3449.5	
236.15	5152.7	
236.37	6649.1	
236.58	3599	
236.79	3916.4	
237	5738.4	
237.21	4883	
237.43	4248.9	
237.64	3302.7	
237.85	9963.4	
238.06	5011.4	
238.27	4275.5	
238.48	3406.5	
238.7	5765	
238.91	5242.8	
239.12	3856.3	
239.33	3940.3	
239.54	5096	
239.76	5332.2	
239.97	3830.4	
240.18	3893.2	
240.39	6848.4	
240.6	5655.8	
240.82	4049.5	
241.03	3283.6	
241.24	5408.7	
241.45	6295.5	
241.66	3583.9	
241.87	4281.6	
242.09	6171.9	
242.3	6545.3	
242.51	4237.2	
242.72	3908.2	
242.93	5925.5	
243.14	5356.1	
243.36	4520.5	
243.57	4902.8	
243.78	6273.6	
243.99	5774.6	
244.2	3917.1	
244.41	3532.1	
244.63	4970.4	
244.84	5760.3	
245.05	4173.1	
245.26	3921.2	
245.47	5735.7	
245.68	6023.1	
245.9	5158.2	
246.11	4125.3	
246.32	5293.3	
246.53	5698.1	
246.74	6367.1	
246.95	3337.5	
247.16	4915.1	
247.38	5384.1	
247.59	3269.2	
247.8	3957.4	
248.01	5098.8	
248.22	5360.2	
248.43	3528.7	
248.64	3841.3	
248.86	4808.6	
249.07	5164.3	
249.28	3397.6	
249.49	3990.8	
249.7	5993.7	
249.91	6100.9	
250.12	3263.1	
250.34	3308.2	
250.55	5587.5	
250.76	5421.7	
250.97	4024.3	
251.18	4096.6	
251.39	6165.1	
251.6	5645.6	
251.81	4175.1	
252.03	4106.2	
252.24	5171.8	
252.45	5949.3	
252.66	3349.8	
252.87	4360.8	
253.08	5458.5	
253.29	7141.3	
253.5	3429.7	
253.72	4725.3	
253.93	5285.1	
254.14	6466.8	
254.35	3742.3	
254.56	3815.4	
254.77	5717.2	
254.98	5014.8	
255.19	3671.3	
255.41	4759.5	
255.62	5489.2	
255.83	6086.6	
256.04	4242	
256.25	4131.4	
256.46	6707.1	
256.67	5122	
256.88	4024.9	
257.09	4476.2	
257.31	5133.6	
257.52	5147.9	
257.73	5098.8	
257.94	3689.8	
258.15	5298.8	
258.36	5452.4	
258.57	4711	
258.78	2917.7	
258.99	5895.4	
259.2	5245.5	
259.41	3802.4	
259.63	3855	
259.84	6316.6	
260.05	6776.7	
260.26	4915.1	
260.47	3637.2	
260.68	5972.6	
260.89	5342.5	
261.1	4511	
261.31	3599.6	
261.52	5978.7	
261.73	6380.8	
261.95	4876.9	
262.16	4245.4	
262.37	6133.7	
262.58	6198.5	
262.79	4770.4	
263	3775.8	
263.21	5548.6	
263.42	4991.6	
263.63	3849.5	
263.84	3789.4	
264.05	5989.6	
264.26	6382.8	
264.47	4667.3	
264.69	4235.9	
264.9	6146.6	
265.11	5665.4	
265.32	3622.9	
265.53	3689.8	
265.74	5541.1	
265.95	4833.9	
266.16	3973.7	
266.37	4442	
266.58	5578	
266.79	5266	
267	3687	
267.21	3429.7	
267.42	4954.7	
267.63	5386.2	
267.84	3891.1	
268.06	3323.2	
268.27	5858.6	
268.48	6163	
268.69	3852.9	
268.9	4525.3	
269.11	6126.8	
269.32	4941.7	
269.53	3874.1	
269.74	3646.7	
269.95	5814.9	
270.16	4784.1	
270.37	3895.2	
270.58	4561.5	
270.79	5223.7	
271	5997.8	
271.21	4243.4	
271.42	3984.7	
271.63	5550	
271.84	5022.3	
272.05	3134.1	
272.26	3538.2	
272.47	5453.7	
272.68	5674.2	
272.89	3725.3	
273.11	4396.3	
273.32	5300.8	
273.53	6477.7	
273.74	4221.5	
273.95	4158.7	
274.16	6101.6	
274.37	5535.7	
274.58	4261.8	
274.79	3457.7	
275	5585.5	
275.21	6130.3	
275.42	5204.6	
275.63	4428.4	
275.84	5647.6	
276.05	7178.8	
276.26	4158.7	
276.47	3810.6	
276.68	5243.5	
276.89	6480.5	
277.1	4399	
277.31	3388	
277.52	5689.3	
277.73	5868.8	
277.94	3384.6	
278.15	3814	
278.36	5653.8	
278.57	5083.1	
278.78	3726.6	
278.99	4248.9	
279.2	5088.5	
279.41	5046.2	
279.62	4945.8	
279.83	3480.2	
280.04	6696.2	
280.25	4909.7	
280.46	4873.5	
280.67	3934.8	
280.88	5052.3	
281.09	6044.9	
281.3	4157.4	
281.51	5276.3	
281.72	5931.6	
281.93	5981.4	
282.14	3654.9	
282.35	3951.9	
282.56	5956.2	
282.77	5874.9	
282.98	3857	
283.19	4635.2	
283.4	7396.6	
283.61	5412.1	
283.82	3395.5	
284.03	4894.6	
284.24	5546.6	
284.45	6121.4	
284.66	4859.1	
284.87	4620.9	
285.08	5977.3	
285.29	6189	
285.5	3334.1	
285.71	3806.5	
285.92	6122.1	
286.12	6718.7	
286.33	4834.6	
286.54	3820.1	
286.75	5942.5	
286.96	5313.1	
287.17	3489.7	
287.38	4833.9	
287.59	5018.9	
287.8	5016.8	
288.01	3821.5	
288.22	4483	
288.43	5969.1	
288.64	4969.7	
288.85	4575.8	
289.06	4292.5	
289.27	5878.4	
289.48	6357.6	
289.69	4911	
289.9	4394.3	
290.11	6111.8	
290.32	5113.8	
290.53	4638.6	
290.74	4233.8	
290.94	5869.5	
291.15	5964.4	
291.36	3726.6	
291.57	4340.3	
291.78	5108.3	
291.99	4852.3	
292.2	3521.1	
292.41	4263.2	
292.62	6010.8	
292.83	5793.7	
293.04	5272.2	
293.25	3573	
293.46	5205.3	
293.67	6039.5	
293.88	3672	
294.09	3522.5	
294.29	4984.8	
294.5	5588.2	
294.71	3951.9	
294.92	3818.8	
295.13	5251	
295.34	6532.3	
295.55	3318.4	
295.76	3377.1	
295.97	5855.8	
296.18	6660.7	
296.39	3482.9	
296.6	3672.7	
296.81	5585.5	
297.01	5860.6	
297.22	3812.6	
297.43	3659.7	
297.64	5081	
297.85	5113.8	
298.06	3048.1	
298.27	3299.3	
298.48	5501.5	
298.69	5119.2	
298.9	4060.4	
299.11	3577.1	
299.31	4928.8	
299.52	4982.7	
299.73	4287.8	
299.94	4123.2	
300.15	5427.8	
300.36	5079.6	
300.57	4199.7	
300.78	4145.8	
300.99	5338.4	
301.2	5539.1	
301.4	3650.2	
301.61	3979.2	
301.82	5735.7	
302.03	5863.3	
302.24	4481.6	
302.45	3499.3	
302.66	5710.4	
302.87	6229.9	
303.08	3652.2	
303.29	5035.3	
303.49	5214.8	
303.7	5482.4	
303.91	3351.8	
304.12	4771.8	
304.33	4959.5	
304.54	5647.6	
304.75	3705.5	
304.96	3508.2	
305.16	5736.4	
305.37	6578.8	
305.58	3205.8	
305.79	3374.4	
306	5827.2	
306.21	4829.1	
306.42	3713	
306.63	5618.9	
306.83	5269.4	
307.04	6044.2	
307.25	4016.1	
307.46	3946.4	
307.67	4696.7	
307.88	5941.2	
308.09	3607.2	
308.29	3779.9	
308.5	5565	
308.71	6066.1	
308.92	3923.2	
309.13	3575.8	
309.34	5401.2	
309.55	5365	
309.75	4569	
309.96	4191.5	
310.17	5879	
310.38	5141.1	
310.59	4389.5	
310.8	3447.4	
311.01	5236	
311.21	5303.6	
311.42	3482.9	
311.63	3617.4	
311.84	5193	
312.05	5617.6	
312.26	4057.7	
312.46	4508.9	
312.67	5268.1	
312.88	4922.6	
313.09	3545.7	
313.3	3464.5	
313.51	6227.9	
313.71	6608.1	
313.92	3558.7	
314.13	3689.1	
314.34	5572.5	
314.55	5374.6	
314.76	4540.3	
314.96	3936.2	
315.17	5530.9	
315.38	5987.6	
315.59	3568.2	
315.8	3427.6	
316.01	6350.8	
316.21	6375.3	
316.42	3408.5	
316.63	3919.8	
316.84	5273.5	
317.05	6148	
317.26	4156	
317.46	3771	
317.67	5364.3	
317.88	5836	
318.09	4529.4	
318.3	3295.2	
318.5	5156.8	
318.71	5777.3	
318.92	5812.8	
319.13	4178.5	
319.34	5976	
319.54	6158.9	
319.75	3277.4	
319.96	3115.6	
320.17	5837.4	
320.38	6105	
320.58	3211.9	
320.79	3906.8	
321	6001.2	
321.21	6217.6	
321.42	3924.6	
321.62	3237.8	
321.83	5050.3	
322.04	5522	
322.25	3735.5	
322.46	3556	
322.66	5504.9	
322.87	5713.2	
323.08	4452.3	
323.29	3469.3	
323.5	6518	
323.7	5011.4	
323.91	4873.5	
324.12	4329.4	
324.33	5508.4	
324.53	5759.6	
324.74	4155.3	
324.95	4452.3	
325.16	4846.2	
325.37	5280.3	
325.57	3532.7	
325.78	3601.7	
325.99	5489.2	
326.2	4950.6	
326.4	5160.9	
326.61	3226.9	
326.82	5393.7	
327.03	5508.4	
327.24	5056.4	
327.44	4778.6	
327.65	5726.1	
327.86	4643.4	
328.07	4129.4	
328.27	3390.8	
328.48	6176	
328.69	4938.3	
328.9	5180	
329.1	3786	
329.31	5333.6	
329.52	6350.8	
329.73	3614.7	
329.93	4000.4	
330.14	5552.7	
330.35	5693.4	
330.56	5902.2	
330.76	4443.4	
330.97	5241.4	
331.18	5612.1	
331.39	3969	
331.59	3196.2	
331.8	6034	
332.01	6212.2	
332.22	3682.2	
332.42	4237.2	
332.63	5557.5	
332.84	5122.7	
333.05	3978.5	
333.25	3626.3	
333.46	5176.6	
333.67	5435.3	
333.88	3654.9	
334.08	4149.2	
334.29	7338.6	
334.5	6231.3	
334.7	3448.8	
334.91	5109	
335.12	4992.3	
335.33	5937.1	
335.53	3923.2	
335.74	5858.6	
335.95	5257.8	
336.16	5040.7	
336.36	3956	
336.57	4551.3	
336.78	4941.7	
336.98	6031.3	
337.19	4856.4	
337.4	3878.2	
337.61	6533	
337.81	4953.4	
338.02	3728	
338.23	4723.3	
338.43	6214.2	
338.64	5128.8	
338.85	3606.5	
339.05	4683.7	
339.26	6211.5	
339.47	4897.4	
339.68	3546.4	
339.88	5312.4	
340.09	5754.1	
340.3	5936.4	
340.5	4208.6	
340.71	3198.9	
340.92	4919.2	
341.13	6225.1	
341.33	3389.4	
341.54	4233.8	
341.75	5601.9	
341.95	5322	
342.16	4042.7	
342.37	4334.2	
342.57	4997	
342.78	5410.7	
342.99	4493.2	
343.19	3188	
343.4	5768.4	
343.61	5694.7	
343.81	3810.6	
344.02	3467.9	
344.23	5906.3	
344.43	6283.9	
344.64	4397.7	
344.85	4302.1	
345.06	5713.8	
345.26	6088.6	
345.47	4067.3	
345.68	4838	
345.88	4844.8	
346.09	5961	
346.3	4237.9	
346.5	3146.4	
346.71	5457.2	
346.92	5144.5	
347.12	3208.5	
347.33	4074.8	
347.54	5917.3	
347.74	6434.7	
347.95	4080.2	
348.16	3033.7	
348.36	5253	
348.57	4935.6	
348.78	4046.1	
348.98	4401.8	
349.19	5359.5	
349.39	4915.8	
349.6	3194.8	
349.81	3559.4	
350.01	5666	
350.22	5177.9	
350.43	3915	
350.63	4777.2	
350.84	5431.9	
351.05	5229.1	
351.25	3545.7	
351.46	3224.2	
351.67	6049.7	
351.87	5117.2	
352.08	3860.4	
352.29	4357.4	
352.49	5902.9	
352.7	6000.5	
352.9	3450.1	
353.11	4319.8	
353.32	6592.4	
353.52	5199.1	
353.73	3384.6	
353.94	4407.9	
354.14	5734.3	
354.35	5571.2	
354.55	3547.8	
354.76	3927.3	
354.97	5688.6	
355.17	5448.3	
355.38	3274	
355.59	4570.4	
355.79	5093.3	
356	5498.8	
356.2	3864.5	
356.41	3394.8	
356.62	4827.7	
356.82	5330.9	
357.03	4140.3	
357.24	3667.9	
357.44	5124	
357.65	5241.4	
357.85	5048.2	
358.06	3953.9	
358.27	4786.8	
358.47	5036	
358.68	3280.2	
358.88	4121.9	
359.09	5618.9	
359.3	6001.9	
359.5	4796.3	
359.71	4291.9	
359.91	6545.3	
360.12	5780.7	
360.33	4075.5	
360.53	4637.3	
360.74	5059.8	
360.94	5137.7	
361.15	4330.1	
361.36	3496.6	
361.56	5876.3	
361.77	5327.4	
361.97	4771.1	
362.18	3772.4	
362.38	5921.4	
362.59	4870.1	
362.8	3431	
363	3310.2	
363.21	4684.4	
363.41	5436.7	
363.62	4014.7	
363.83	5051.7	
364.03	5469.4	
364.24	6425.2	
364.44	5105.6	
364.65	5078.3	
364.85	5238	
365.06	5066.7	
365.27	3593.5	
365.47	3614.7	
365.68	6193.7	
365.88	5194.3	
366.09	3979.9	
366.29	3667.2	
366.5	5414.1	
366.71	5913.9	
366.91	4935.6	
367.12	4132.8	
367.32	6493.4	
367.53	5664.7	
367.73	4078.2	
367.94	5059.8	
368.14	5685.2	
368.35	6587	
368.56	4018.1	
368.76	3393.5	
368.97	5790.3	
369.17	7475.8	
369.38	3543	
369.58	3876.8	
369.79	4844.8	
369.99	6145.3	
370.2	4843.4	
370.4	3945.1	
370.61	5453.7	
370.82	6651.1	
371.02	3820.1	
371.23	3129.3	
371.43	4687.1	
371.64	6055.2	
371.84	3848.8	
372.05	4999.8	
372.25	7318.8	
372.46	5737	
372.66	3801.7	
372.87	3695.9	
373.07	5769.8	
373.28	7407.5	
373.48	4828.4	
373.69	4502.1	
373.9	5186.1	
374.1	5232.6	
374.31	4689.2	
374.51	4270	
374.72	5992.4	
374.92	4909	
375.13	4898.1	
375.33	4003.1	
375.54	5593.7	
375.74	5018.9	
375.95	4119.1	
376.15	5372.5	
376.36	5591.6	
376.56	5370.5	
376.77	4146.5	
376.97	4538.3	
377.18	6574	
377.38	5599.1	
377.59	4967	
377.79	3574.4	
378	5393.7	
378.2	5887.2	
378.41	3637.2	
378.61	3566.9	
378.82	5898.8	
379.02	4977.9	
379.23	3788.7	
379.43	4990.9	
379.64	5970.5	
379.84	5545.9	
380.05	3652.9	
380.25	3551.9	
380.46	5687.2	
380.66	5222.3	
380.87	5061.2	
381.07	5391.6	
381.28	6326.9	
381.48	5737	
381.69	3680.9	
381.89	3744.4	
382.1	4712.4	
382.3	5896.1	
382.51	4768.4	
382.71	5707	
382.91	5720	
383.12	6225.1	
383.32	4118.5	
383.53	4302.8	
383.73	5595.1	
383.94	5378.6	
384.14	4208.6	
384.35	3338.9	
384.55	5262.6	
384.76	5782.8	
384.96	4022.2	
385.17	4378.6	
385.37	5675.6	
385.58	4979.3	
385.78	4450.2	
385.98	3255.6	
386.19	5218.9	
386.39	5638.1	
386.6	3814	
386.8	4102.1	
387.01	5686.5	
387.21	5733.6	
387.42	4506.9	
387.62	5077.6	
387.83	5034.6	
388.03	5670.8	
388.23	4148.5	
388.44	4911	
388.64	4771.8	
388.85	4767.7	
389.05	4461.8	
389.26	5094.7	
389.46	6600.6	
389.67	6070.2	
389.87	4332.8	
390.07	4437.3	
390.28	5300.1	
390.48	4895.3	
390.69	3575.1	
390.89	3869.3	
391.1	5046.9	
391.3	5974.6	
391.5	5124.7	
391.71	5693.4	
391.91	5711.8	
392.12	6731	
392.32	5251	
392.53	4401.1	
392.73	5077.6	
392.93	5277.6	
393.14	4031.1	
393.34	4918.5	
393.55	5801.9	
393.75	5248.9	
393.95	4079.6	
394.16	4003.8	
394.36	5024.3	
394.57	5764.3	
394.77	3545.7	
394.98	3975.8	
395.18	4974.5	
395.38	5168.4	
395.59	4783.4	
395.79	3725.3	
396	5085.1	
396.2	5563	
396.4	4552.6	
396.61	4442.7	
396.81	5685.2	
397.02	4993.6	
397.22	4764.9	
397.42	4824.3	
397.63	5698.8	
397.83	4877.6	
398.04	3657.7	
398.24	4132.8	
398.44	5496.7	
398.65	4551.3	
398.85	3456.3	
399.05	3583.9	
399.26	4803.9	
399.46	6580.8	
399.67	3953.3	
399.87	3618.1	
400.07	5223.7	
400.28	5545.9	
400.48	3708.9	
400.69	4779.3	
400.89	5639.4	
401.09	6178.7	
401.3	3604.4	
401.5	4734.2	
401.7	6451.1	
401.91	6653.9	
402.11	3959.4	
402.32	4192.2	
402.52	5796.4	
402.72	5728.9	
402.93	4457.7	
403.13	3321.8	
403.33	6520	
403.54	5281	
403.74	4105.5	
403.94	5090.6	
404.15	5345.9	
404.35	6488	
404.56	3909.6	
404.76	5813.5	
404.96	5728.2	
405.17	5574.6	
405.37	5205.9	
405.57	4377.2	
405.78	5713.8	
405.98	5311.1	
406.18	3885.7	
406.39	4797.7	
406.59	5793	
406.79	5396.4	
407	3721.8	
407.2	3796.3	
407.4	5756.8	
407.61	6013.5	
407.81	3780.6	
408.01	6142.5	
408.22	4656.4	
408.42	6783.6	
408.62	4752	
408.83	4146.5	
409.03	5214.1	
409.23	4992.3	
409.44	4222.9	
409.64	4469.4	
409.84	6027.9	
410.05	5907.7	
410.25	4275.5	
410.45	3993.5	
410.66	5225.1	
410.86	7752.9	
411.06	4303.5	
411.27	4203.8	
411.47	7441.6	
411.67	5416.2	
411.88	4468.7	
412.08	4686.4	
412.28	6034.7	
412.49	6530.3	
412.69	4093.2	
412.89	4163.5	
413.09	6319.3	
413.3	6186.2	
413.5	4233.2	
413.7	3832.4	
413.91	5395.7	
414.11	6292.7	
414.31	4031.1	
414.52	4374.5	
414.72	5911.1	
414.92	5800.5	
415.12	4017.4	
415.33	4515.8	
415.53	6174.6	
415.73	6391	
415.94	4908.3	
416.14	4336.9	
416.34	5203.2	
416.55	5010.7	
416.75	5584.8	
416.95	4938.3	
417.15	6078.4	
417.36	6927.6	
417.56	5625.1	
417.76	4669.4	
417.97	6518	
418.17	6064.7	
418.37	4289.1	
418.57	4322.6	
418.78	5923.4	
418.98	5670.1	
419.18	5197.1	
419.38	5140.4	
419.59	5632.6	
419.79	5335	
419.99	4218.1	
420.2	4563.6	
420.4	6083.1	
420.6	6368.5	
420.8	4106.2	
421.01	3984	
421.21	5954.8	
421.41	6152.8	
421.61	4549.2	
421.82	4203.1	
422.02	5436	
422.22	6478.4	
422.42	4937	
422.63	4765.6	
422.83	5597.1	
423.03	6835.4	
423.23	4738.3	
423.44	3703.4	
423.64	5684.5	
423.84	5508.4	
424.04	4199	
424.25	3859.7	
424.45	6728.9	
424.65	6571.9	
424.85	3658.4	
425.06	4221.5	
425.26	6625.9	
425.46	5638.1	
425.66	4818.2	
425.87	4433.2	
426.07	6378.7	
426.27	6260.6	
426.47	4549.9	
426.67	3906.2	
426.88	6701.6	
427.08	6225.1	
427.28	4720.6	
427.48	3850.9	
427.69	5143.8	
427.89	5811.5	
428.09	4780	
428.29	3878.9	
428.5	6479.8	
428.7	5991.7	
428.9	3737.5	
429.1	4371.7	
429.3	5889.3	
429.51	6320.7	
429.71	4182.6	
429.91	4969.1	
430.11	6094.1	
430.31	6343.9	
430.52	4371	
430.72	4584.7	
430.92	6726.9	
431.12	6148	
431.32	4039.3	
431.53	4556	
431.73	5007.3	
431.93	6806.8	
432.13	3979.2	
432.33	3768.9	
432.54	5496.7	
432.74	5893.4	
432.94	3717.1	
433.14	4808.6	
433.34	6064	
433.55	5513.1	
433.75	4756.7	
433.95	6427.9	
434.15	5827.8	
434.35	5422.3	
434.56	3870.7	
434.76	3354.6	
434.96	5732.3	
435.16	5981.4	
435.36	3702	
435.56	4851.6	
435.77	5346.6	
435.97	5483.8	
436.17	5482.4	
436.37	4743.8	
436.57	5354.1	
436.78	5167	
436.98	4930.8	
437.18	5373.2	
437.38	5920.7	
437.58	5487.2	
437.78	5540.4	
437.99	4114.4	
438.19	6131.6	
438.39	6862.1	
438.59	4115.1	
438.79	3629.7	
438.99	6724.2	
439.2	5532.2	
439.4	3775.1	
439.6	3682.2	
439.8	5816.2	
440	6877.8	
440.2	4628.4	
440.4	4785.4	
440.61	6133.7	
440.81	6627.9	
441.01	3818.8	
441.21	4609.3	
441.41	6483.2	
441.61	6180.1	
441.81	4910.3	
442.02	5976	
442.22	6959.7	
442.42	6211.5	
442.62	3799	
442.82	3834.5	
443.02	6417	
443.22	5529.5	
443.43	4243.4	
443.63	3779.2	
443.83	5347.9	
444.03	5444.2	
444.23	4975.2	
444.43	4575.8	
444.63	5672.9	
444.83	6926.9	
445.04	3672.7	
445.24	5144.5	
445.44	6120.7	
445.64	6173.9	
445.84	4695.3	
446.04	4697.4	
446.24	5493.3	
446.44	6500.3	
446.65	3950.5	
446.85	4211.3	
447.05	5958.2	
447.25	6504.3	
447.45	4378.6	
447.65	3775.8	
447.85	5791.7	
448.05	5549.3	
448.25	4867.3	
448.46	4589.5	
448.66	5747.3	
448.86	5535.7	
449.06	3573	
449.26	4849.6	
449.46	6152.8	
449.66	5135.6	
449.86	4197.7	
450.06	4250.2	
450.26	5343.8	
450.47	5885.9	
450.67	4558.8	
450.87	4835.3	
451.07	6036	
451.27	5732.9	
451.47	3830.4	
451.67	4266.6	
451.87	5368.4	
452.07	6662.7	
452.27	3919.8	
452.47	4055.7	
452.67	5771.2	
452.88	6285.9	
453.08	3407.8	
453.28	5376.6	
453.48	6825.9	
453.68	5735.7	
453.88	3833.8	
454.08	4130.8	
454.28	5986.9	
454.48	5634.6	
454.68	4691.9	
454.88	5203.2	
455.08	6134.3	
455.28	5763	
455.48	3777.1	
455.68	4256.4	
455.89	6512.5	
456.09	6200.6	
456.29	4001.7	
456.49	4022.2	
456.69	6311.2	
456.89	5587.5	
457.09	4390.8	
457.29	4794.3	
457.49	5859.9	
457.69	6000.5	
457.89	4254.3	
458.09	3685.7	
458.29	5497.4	
458.49	6376.7	
458.69	4557.4	
458.89	4100.7	
459.09	6493.4	
459.29	6640.2	
459.49	4141	
459.69	4943.8	
459.9	6053.1	
460.1	5471.5	
460.3	4057.7	
460.5	3851.5	
460.7	6028.5	
460.9	5720	
461.1	3470.6	
461.3	4780	
461.5	6567.8	
461.7	6208.1	
461.9	3728	
462.1	4324.6	
462.3	5646.2	
462.5	6247	
462.7	3844	
462.9	3873.4	
463.1	7224.6	
463.3	6761	
463.5	4108.2	
463.7	4906.3	
463.9	5688.6	
464.1	6085.9	
464.3	3986	
464.5	4332.8	
464.7	6307.7	
464.9	5821.7	
465.1	5610.8	
465.3	4677.6	
465.5	6646.3	
465.7	6558.3	
465.9	4911.7	
466.1	4827.7	
466.3	6292	
466.5	6223.1	
466.7	5454.4	
466.9	4399.7	
467.1	6051.7	
467.3	6945.3	
467.5	5412.8	
467.7	4248.2	
467.9	7237.5	
468.1	8082	
468.3	5098.1	
468.5	5443.5	
468.7	5978.7	
468.9	6014.2	
469.1	4507.6	
469.3	5180	
469.5	7875.1	
469.7	5427.1	
469.9	5076.2	
470.1	4173.1	
470.3	5971.9	
470.5	6020.3	
470.7	5492.7	
470.9	4352.6	
471.1	5707	
471.3	6268.1	
471.5	4084.3	
471.69	6169.2	
471.89	5655.8	
472.09	5232.6	
472.29	4944.5	
472.49	5483.8	
472.69	5400.5	
472.89	6251.8	
473.09	3971.7	
473.29	4339.6	
473.49	5602.6	
473.69	5791	
473.89	5253	
474.09	4534.2	
474.29	7040.2	
474.49	6748.1	
474.69	5221.6	
474.89	4537.6	
475.09	5773.9	
475.29	5702.9	
475.49	4012	
475.69	4201.1	
475.88	7533.1	
476.08	6156.2	
476.28	3961.5	
476.48	4421.6	
476.68	6599.2	
476.88	6474.3	
477.08	4320.5	
477.28	4539.7	
477.48	5985.5	
477.68	6653.9	
477.88	4067.3	
478.08	4479.6	
478.28	6945.3	
478.48	6038.1	
478.67	4502.1	
478.87	3950.5	
479.07	6621.1	
479.27	6209.4	
479.47	4737.6	
479.67	4638	
479.87	6499.6	
480.07	7043.6	
480.27	3878.2	
480.47	5584.1	
480.67	6201.9	
480.87	6754.2	
481.06	4229.1	
481.26	5063.9	
481.46	6096.8	
481.66	6040.8	
481.86	4678.9	
482.06	5692	
482.26	5821.7	
482.46	6977.4	
482.66	4614.1	
482.86	4199.7	
483.05	6113.2	
483.25	5536.3	
483.45	7131.7	
483.65	4492.6	
483.85	5676.3	
484.05	5988.9	
484.25	4999.1	
484.45	5375.2	
484.65	6897.6	
484.84	6868.9	
485.04	4469.4	
485.24	4462.5	
485.44	7032	
485.64	5403.2	
485.84	3646.1	
486.04	5057.1	
486.24	5710.4	
486.44	6148.7	
486.63	3592.1	
486.83	4376.5	
487.03	5597.8	
487.23	5775.3	
487.43	3760.1	
487.63	6146	
487.83	5811.5	
488.02	6793.1	
488.22	4642.7	
488.42	5281.7	
488.62	6733.7	
488.82	5610.8	
489.02	4363.5	
489.22	4287.1	
489.41	6545.3	
489.61	6133	
489.81	4055.7	
490.01	4052.2	
490.21	6407.4	
490.41	7089.4	
490.61	3932.1	
490.8	4145.1	
491	5937.7	
491.2	5269.4	
491.4	4804.5	
491.6	3905.5	
491.8	5933	
491.99	6154.1	
492.19	3748.5	
492.39	4125.3	
492.59	6500.9	
492.79	6505	
492.99	4928.8	
493.18	3993.5	
493.38	6561.7	
493.58	7128.3	
493.78	4676.2	
493.98	4196.3	
494.18	6103.6	
494.37	5545.9	
494.57	4750.6	
494.77	4622.9	
494.97	6209.4	
495.17	6474.3	
495.37	4089.1	
495.56	4463.9	
495.76	6599.9	
495.96	6189.6	
496.16	5366.4	
496.36	4237.2	
496.55	6364.4	
496.75	5818.3	
496.95	4626.4	
497.15	4468	
497.35	6361	
497.54	6220.4	
497.74	4237.2	
497.94	5878.4	
498.14	6980.2	
498.34	6776.7	
498.53	3877.5	
498.73	4699.4	
498.93	5582.1	
499.13	6287.3	
499.33	4435.9	
499.52	4909.7	
499.72	6130.3	
499.92	6550.1	
500.12	4035.2	
500.32	4381.3	
500.51	6404	
500.71	6137.8	
500.91	5155.4	
501.11	4718.5	
501.31	6324.1	
501.5	6758.3	
501.7	5425.1	
501.9	4371	
502.1	6167.8	
502.29	6470.2	
502.49	4798.4	
502.69	5362.3	
502.89	6393.1	
503.09	6371.2	
503.28	3951.9	
503.48	4094.6	
503.68	5646.9	
503.88	5687.2	
504.07	5087.2	
504.27	4603.8	
504.47	6078.4	
504.67	6245.6	
504.86	4967	
505.06	4707.6	
505.26	5832.6	
505.46	7656.7	
505.65	4606.6	
505.85	4857.1	
506.05	5764.3	
506.25	6266.1	
506.44	4044.1	
506.64	5079	
506.84	5792.3	
507.04	6670.2	
507.23	4245.4	
507.43	4883.7	
507.63	7804.8	
507.83	6062.7	
508.02	4880.3	
508.22	4493.2	
508.42	7982.3	
508.62	5706.3	
508.81	5051	
509.01	5282.4	
509.21	5674.2	
509.4	5887.2	
509.6	4932.9	
509.8	4276.2	
510	5896.1	
510.19	7345.4	
510.39	4283	
510.59	4337.6	
510.79	5632.6	
510.98	7038.2	
511.18	4333.5	
511.38	4429.1	
511.57	6589	
511.77	6367.8	
511.97	5169.8	
512.17	4107.5	
512.36	6532.3	
512.56	6528.2	
512.76	4229.1	
512.95	3992.2	
513.15	6648.4	
513.35	5269.4	
513.55	5130.2	
513.74	4257	
513.94	6590.4	
514.14	5912.5	
514.33	5131.5	
514.53	4999.8	
514.73	5856.5	
514.92	6047.7	
515.12	4450.2	
515.32	4148.5	
515.51	6161.7	
515.71	6754.2	
515.91	5871.5	
516.11	4252.3	
516.3	7849.9	
516.5	5717.9	
516.7	4855.1	
516.89	5378	
517.09	5886.5	
517.29	5753.4	
517.48	5094.7	
517.68	4511	
517.88	5543.9	
518.07	6241.5	
518.27	5015.5	
518.47	4045.4	
518.66	6767.9	
518.86	5393	
519.06	3932.1	
519.25	4351.9	
519.45	5784.1	
519.65	7146	
519.84	4986.1	
520.04	5687.2	
520.24	7620.5	
520.43	6447	
520.63	4745.8	
520.83	4491.9	
521.02	5685.2	
521.22	6316.6	
521.42	5015.5	
521.61	5632.6	
521.81	5831.2	
522.01	6077	
522.2	4778.6	
522.4	4640	
522.6	6556.2	
522.79	5246.9	
522.99	4691.2	
523.18	3905.5	
523.38	6120	
523.58	6084.5	
523.77	5862	
523.97	3728	
524.17	7901.1	
524.36	7083.2	
524.56	5005.2	
524.76	4705.5	
524.95	5985.5	
525.15	5601.2	
525.34	4492.6	
525.54	4433.2	
525.74	6286.6	
525.93	5293.3	
526.13	5676.3	
526.33	4308.9	
526.52	6561	
526.72	5982.1	
526.91	5586.2	
527.11	4887.1	
527.31	6575.3	
527.5	6890	
527.7	4714.4	
527.89	3750.5	
528.09	5365.7	
528.29	5884.5	
528.48	5058.5	
528.68	4752	
528.87	6285.2	
529.07	6421.7	
529.27	4612.7	
529.46	4136.2	
529.66	5945.9	
529.85	6390.3	
530.05	3969	
530.25	4796.3	
530.44	7354.3	
530.64	5937.7	
530.83	4380.6	
531.03	4597.7	
531.23	6303.6	
531.42	6188.3	
531.62	5309	
531.81	4534.2	
532.01	6371.2	
532.21	6842.3	
532.4	4085.7	
532.6	4403.1	
532.79	7339.9	
532.99	6330.3	
533.18	4498	
533.38	5480.4	
533.58	5803.9	
533.77	6611.5	
533.97	4354	
534.16	5177.3	
534.36	6718	
534.55	5802.6	
534.75	5283.8	
534.95	4420.2	
535.14	6595.1	
535.34	5778	
535.53	4169	
535.73	6122.1	
535.92	7174.7	
536.12	6025.8	
536.31	4261.1	
536.51	5467.4	
536.71	6345.3	
536.9	5941.8	
537.1	4371.7	
537.29	4519.9	
537.49	6820.4	
537.68	5799.2	
537.88	4923.3	
538.07	4125.3	
538.27	6012.2	
538.46	7001.3	
538.66	3938.2	
538.86	4429.1	
539.05	5986.9	
539.25	6451.1	
539.44	4618.2	
539.64	4390.8	
539.83	5917.9	
540.03	6870.9	
540.22	4204.5	
540.42	4470.7	
540.61	6242.9	
540.81	6266.8	
541	4932.2	
541.2	5536.3	
541.39	5784.1	
541.59	6094.1	
541.78	5126.1	
541.98	4269.3	
542.18	5456.5	
542.37	5440.8	
542.57	4752	
542.76	5207.3	
542.96	5574.6	
543.15	6297.5	
543.35	4786.1	
543.54	4142.4	
543.74	6715.3	
543.93	6242.9	
544.13	4842.1	
544.32	5948	
544.52	6569.2	
544.71	5816.2	
544.91	3944.4	
545.1	5222.3	
545.3	5822.4	
545.49	6475	
545.69	3923.9	
545.88	4513.7	
546.08	7438.2	
546.27	6994.5	
546.47	5040.7	
546.66	4372.4	
546.86	6776.7	
547.05	7446.4	
547.24	4599.1	
547.44	4396.3	
547.63	5735	
547.83	6833.4	
548.02	4820.2	
548.22	5057.8	
548.41	5561.6	
548.61	6927.6	
548.8	4381.3	
549	4373.1	
549.19	6249	
549.39	6508.4	
549.58	4117.1	
549.78	4743.1	
549.97	6622.4	
550.17	6192.4	
550.36	5726.1	
550.55	6642.9	
550.75	6152.8	
550.94	7168.6	
551.14	4384.7	
551.33	4866.7	
551.53	5485.1	
551.72	6509.8	
551.92	4874.2	
552.11	4595	
552.31	6511.9	
552.5	6659.3	
552.69	6365.8	
552.89	4263.9	
553.08	6503	
553.28	6242.2	
553.47	4558.8	
553.67	5833.3	
553.86	7273.7	
554.06	5542.5	
554.25	3865.9	
554.44	4396.3	
554.64	8032.8	
554.83	7520.1	
555.03	4356.7	
555.22	4786.1	
555.42	6735.1	
555.61	6460.7	
555.8	4585.4	
556	4967.7	
556.19	5657.2	
556.39	7003.4	
556.58	4676.9	
556.78	4678.9	
556.97	6407.4	
557.16	6044.2	
557.36	6027.2	
557.55	4270.7	
557.75	5379.3	
557.94	7162.4	
558.13	4478.2	
558.33	4187.4	
558.52	6900.3	
558.72	5906.3	
558.91	4357.4	
559.1	4599.1	
559.3	5610.1	
559.49	5347.2	
559.69	3892.5	
559.88	5031.9	
560.07	6473.6	
560.27	6826.6	
560.46	5122.7	
560.66	5268.1	
560.85	6266.8	
561.04	5428.5	
561.24	4392.9	
561.43	4595.6	
561.63	5726.1	
561.82	6010.8	
562.01	5833.3	
562.21	4874.8	
562.4	6447	
562.59	7369.3	
562.79	4733.5	
562.98	4301.4	
563.18	6287.3	
563.37	7752.2	
563.56	5238.7	
563.76	4242.7	
563.95	5784.8	
564.14	5642.8	
564.34	4547.2	
564.53	4392.9	
564.73	6195.1	
564.92	6561.7	
565.11	4746.5	
565.31	4142.4	
565.5	6884.6	
565.69	5808.7	
565.89	4310.3	
566.08	4590.2	
566.27	6715.3	
566.47	7034.1	
566.66	5242.8	
566.85	3915	
567.05	6228.6	
567.24	5688.6	
567.44	4201.1	
567.63	5726.8	
567.82	6546	
568.02	6204.7	
568.21	4255.7	
568.4	4684.4	
568.6	6077	
568.79	6129.6	
568.98	4082.3	
569.18	4164.2	
569.37	5991	
569.56	7980.3	
569.76	4549.9	
569.95	5611.4	
570.14	6406	
570.34	6235.4	
570.53	4027.7	
570.72	4035.9	
570.91	6858	
571.11	5927.5	
571.3	4548.5	
571.49	5472.9	
571.69	6033.3	
571.88	5594.4	
572.07	5118.6	
572.27	5160.2	
572.46	5594.4	
572.65	6643.6	
572.85	4297.3	
573.04	4633.2	
573.23	6832.7	
573.43	6081.1	
573.62	3958	
573.81	4595	
574	6055.8	
574.2	5861.3	
574.39	4318.5	
574.58	4476.9	
574.78	6881.9	
574.97	6084.5	
575.16	4831.8	
575.36	5001.1	
575.55	6441.5	
575.74	6539.2	
575.93	3950.5	
576.13	5017.5	
576.32	5860.6	
576.51	6386.2	
576.71	4323.9	
576.9	5673.6	
577.09	6750.8	
577.28	6322.1	
577.48	4890.5	
577.67	3820.8	
577.86	5911.1	
578.05	6175.3	
578.25	4452.3	
578.44	4536.9	
578.63	6071.5	
578.83	7198.6	
579.02	3870.7	
579.21	5428.5	
579.4	6156.2	
579.6	5829.2	
579.79	4602.5	
579.98	6909.2	
580.17	6477.7	
580.37	6596.5	
580.56	4079.6	
580.75	4803.2	
580.94	7075.7	
581.14	6886	
581.33	5292.6	
581.52	4236.6	
581.71	6395.8	
581.91	7058.7	
582.1	3854.3	
582.29	4489.8	
582.48	5930.9	
582.68	5869.5	
582.87	4968.4	
583.06	4542.4	
583.25	6255.9	
583.45	5657.2	
583.64	5124	
583.83	5953.4	
584.02	5876.3	
584.21	6262.7	
584.41	5230.5	
584.6	4451.6	
584.79	6018.3	
584.98	6729.6	
585.18	3905.5	
585.37	3964.2	
585.56	5528.8	
585.75	6305	
585.94	4201.1	
586.14	5013.4	
586.33	6989.7	
586.52	5936.4	
586.71	4740.4	
586.91	4476.9	
587.1	5524.1	
587.29	6893.5	
587.48	4496	
587.67	4362.9	
587.87	6343.2	
588.06	6473.6	
588.25	5698.8	
588.44	4988.9	
588.63	6148	
588.83	6702.3	
589.02	4558.1	
589.21	4500.1	
589.4	5998.5	
589.59	5791	
589.78	3867.9	
589.98	4108.2	
590.17	5603.9	
590.36	6201.2	
590.55	3621.5	
590.74	4625	
590.94	7666.9	
591.13	6201.9	
591.32	4348.5	
591.51	3866.6	
591.7	6653.9	
591.89	6131.6	
592.09	3985.3	
592.28	4461.8	
592.47	5332.9	
592.66	7234.8	
592.85	3928	
593.05	4117.1	
593.24	5933	
593.43	6665.5	
593.62	4223.6	
593.81	4711.7	
594	5898.8	
594.19	6227.2	
594.39	4169.7	
594.58	4088.4	
594.77	6300.2	
594.96	6929	
595.15	4040	
595.34	4719.2	
595.54	6421.1	
595.73	5513.1	
595.92	3501.3	
596.11	4645.5	
596.3	6879.8	
596.49	5585.5	
596.68	4446.1	
596.88	4886.5	
597.07	6674.3	
597.26	5420.3	
597.45	3953.3	
597.64	5102.2	
597.83	5666.7	
598.02	6369.2	
598.22	4067.3	
598.41	4771.8	
598.6	6069.5	
598.79	5541.1	
598.98	4086.4	
599.17	5024.3	
599.36	6140.5	
599.55	7439.6	
599.74	6115.2	
599.94	5859.9	
600.13	6694.8	
600.32	5557.5	
600.51	3858.4	
600.7	4003.8	
600.89	7405.5	
601.08	7449.8	
601.27	3779.9	
601.47	4807.3	
601.66	6623.1	
601.85	7288.7	
602.04	4388.8	
602.23	4752	
602.42	5727.5	
602.61	6367.8	
602.8	4382	
602.99	4241.3	
603.18	5993	
603.37	6247.7	
603.57	4872.8	
603.76	5459.2	
603.95	7072.3	
604.14	6565.8	
604.33	4207.2	
604.52	4573.1	
604.71	6154.8	
604.9	5874.3	
605.09	5205.9	
605.28	5073.5	
605.47	6830	
605.66	6527.6	
605.86	4781.3	
606.05	4319.8	
606.24	6802	
606.43	5449	
606.62	4602.5	
606.81	5395.7	
607	6728.9	
607.19	5962.3	
607.38	4029	
607.57	4321.9	
607.76	5784.8	
607.95	5294	
608.14	4759.5	
608.33	5343.8	
608.52	5775.3	
608.72	6632	
608.91	3960.1	
609.1	3886.4	
609.29	5892	
609.48	5442.8	
609.67	4965.6	
609.86	4034.5	
610.05	5547.9	
610.24	5915.9	
610.43	3815.4	
610.62	3446	
610.81	7077.8	
611	6814.3	
611.19	4034.5	
611.38	4746.5	
611.57	6214.2	
611.76	7528.3	
611.95	3794.2	
612.14	3626.3	
612.33	5973.9	
612.52	5502.9	
612.71	4379.9	
612.9	3534.1	
613.09	5176.6	
613.28	7505.1	
613.47	4070	
613.66	5098.1	
613.85	6090.7	
614.04	5642.2	
614.24	4092.5	
614.43	3358.7	
614.62	6234.7	
614.81	6152.8	
615	4776.5	
615.19	4642.1	
615.38	5540.4	
615.57	5864	
615.76	4559.5	
615.95	5537.7	
616.14	6223.1	
616.33	5917.9	
616.52	4877.6	
616.71	5265.3	
616.9	6238.8	
617.09	6051.1	
617.28	4205.2	
617.47	5498.1	
617.66	5292	
617.85	5311.7	
618.04	5139.7	
618.22	4547.9	
618.41	5599.8	
618.6	6481.8	
618.79	4340.3	
618.98	4056.3	
619.17	6780.1	
619.36	5085.8	
619.55	4205.8	
619.74	4248.9	
619.93	5997.1	
620.12	5410.1	
620.31	4788.8	
620.5	4898.7	
620.69	6564.4	
620.88	6937.2	
621.07	5704.3	
621.26	4587.4	
621.45	6092.7	
621.64	6148.7	
621.83	4762.9	
622.02	3896.6	
622.21	6145.3	
622.4	5922	
622.59	5224.4	
622.78	4965	
622.97	5541.8	
623.16	6572.6	
623.35	4625.7	
623.54	3791.5	
623.72	5750	
623.91	5898.8	
624.1	4906.9	
624.29	3526.6	
624.48	6931	
624.67	6203.3	
624.86	4785.4	
625.05	3844.7	
625.24	7067.5	
625.43	5382.1	
625.62	6530.3	
625.81	4028.4	
626	6450.4	
626.19	5710.4	
626.38	4771.8	
626.56	4123.9	
626.75	5541.8	
626.94	6322.8	
627.13	4804.5	
627.32	3569.6	
627.51	6194.4	
627.7	7683.3	
627.89	3697.9	
628.08	4801.8	
628.27	5436	
628.46	5640.8	
628.65	3996.3	
628.83	3644.7	
629.02	6239.5	
629.21	5507.7	
629.4	4349.9	
629.59	4638	
629.78	5423.7	
629.97	6427.9	
630.16	4667.3	
630.35	4207.2	
630.54	6835.4	
630.72	6555.5	
630.91	4096.6	
631.1	4628.4	
631.29	5997.1	
631.48	6127.5	
631.67	4825	
631.86	4298	
632.05	5597.8	
632.24	5673.6	
632.42	3948.5	
632.61	4523.3	
632.8	5779.4	
632.99	5385.5	
633.18	4524.6	
633.37	4950.6	
633.56	5979.4	
633.75	5778	
633.93	4471.4	
634.12	4107.5	
634.31	6776	
634.5	6433.4	
634.69	4232.5	
634.88	4795	
635.07	5756.8	
635.25	6358.9	
635.44	5151.3	
635.63	5294	
635.82	5639.4	
636.01	5159.5	
636.2	5081.7	
636.39	4586.8	
636.57	6772.6	
636.76	6520.7	
636.95	4061.1	
637.14	5537	
637.33	6112.5	
637.52	7047.1	
637.7	3867.2	
637.89	4828.4	
638.08	5679	
638.27	7191.8	
638.46	4911	
638.65	5388.9	
638.83	7223.9	
639.02	5440.8	
639.21	4779.3	
639.4	5302.2	
639.59	6023.1	
639.78	5617.6	
639.96	4184	
640.15	4184	
640.34	5949.3	
640.53	6170.5	
640.72	3918.4	
640.91	4276.2	
641.09	5425.1	
641.28	6797.9	
641.47	4207.2	
641.66	5085.1	
641.85	6082.5	
642.03	6384.9	
642.22	4960.9	
642.41	4375.1	
642.6	5504.9	
642.79	4995.7	
642.97	4160.1	
643.16	4945.2	
643.35	5503.6	
643.54	5399.1	
643.73	4085	
643.91	4913.1	
644.1	5340.4	
644.29	5878.4	
644.48	4253.6	
644.67	4291.2	
644.85	5560.2	
645.04	5957.5	
645.23	3939.6	
645.42	4195.6	
645.6	5468.8	
645.79	6677.7	
645.98	4285	
646.17	3304.1	
646.36	5270.8	
646.54	5975.3	
646.73	5223	
646.92	3964.2	
647.11	5579.3	
647.29	6638.8	
647.48	4083	
647.67	3891.8	
647.86	6893.5	
648.05	6908.5	
648.23	4376.5	
648.42	5775.3	
648.61	6320	
648.8	5968.5	
648.98	4067.3	
649.17	4388.1	
649.36	5549.3	
649.55	5047.6	
649.73	4069.3	
649.92	4887.8	
650.11	5437.4	
650.3	5792.3	
650.48	4229.1	
650.67	3973.7	
650.86	6173.9	
651.05	5036	
651.23	4293.2	
651.42	4194.2	
651.61	5550.7	
651.79	5784.8	
651.98	4387.4	
652.17	4033.1	
652.36	6077.7	
652.54	5195.7	
652.73	4075.5	
652.92	3913	
653.11	6098.2	
653.29	6221	
653.48	3480.2	
653.67	4494.6	
653.85	5889.3	
654.04	6898.2	
654.23	4741	
654.42	4255	
654.6	5558.9	
654.79	6261.3	
654.98	3789.4	
655.16	4327.4	
655.35	5201.2	
655.54	5166.3	
655.73	3915	
655.91	3828.3	
656.1	6369.9	
656.29	5076.2	
656.47	3395.5	
656.66	5137	
656.85	5341.8	
657.03	5392.3	
657.22	4011.3	
657.41	3979.9	
657.59	5450.3	
657.78	5260.5	
657.97	3532.1	
658.16	4392.2	
658.34	6069.5	
658.53	6494.8	
658.72	5219.6	
658.9	5689.9	
659.09	5463.3	
659.28	5645.6	
659.46	4048.8	
659.65	3959.4	
659.84	5341.1	
660.02	5758.2	
660.21	3856.3	
660.4	3784	
660.58	6253.1	
660.77	5617.6	
660.96	4442	
661.14	3488.4	
661.33	6813.6	
661.52	6668.9	
661.7	3402.4	
661.89	7237.5	
662.08	5243.5	
662.26	4842.8	
662.45	3783.3	
662.64	3958	
662.82	5968.5	
663.01	5160.2	
663.2	3945.1	
663.38	4688.5	
663.57	5918.6	
663.75	5773.2	
663.94	4214	
664.13	5567.1	
664.31	5279.7	
664.5	5936.4	
664.69	4474.8	
664.87	5098.1	
665.06	5003.2	
665.25	5843.5	
665.43	5354.8	
665.62	5386.8	
665.8	6124.8	
665.99	5479.7	
666.18	4225	
666.36	4358.1	
666.55	6090	
666.74	5988.9	
666.92	3944.4	
667.11	5591	
667.29	5442.1	
667.48	6034.7	
667.67	5190.2	
667.85	4328	
668.04	5516.5	
668.22	5455.8	
668.41	4353.3	
668.6	4500.8	
668.78	5220.3	
668.97	5496.7	
669.15	4750.6	
669.34	3661.1	
669.53	5296	
669.71	5625.8	
669.9	3919.8	
670.08	4521.2	
670.27	5241.4	
670.46	5848.3	
670.64	4713.7	
670.83	5003.2	
671.01	5198.4	
671.2	5887.9	
671.38	3901.4	
671.57	3811.3	
671.76	6519.4	
671.94	6991.1	
672.13	3790.8	
672.31	4854.4	
672.5	5992.4	
672.69	5320.6	
672.87	3924.6	
673.06	4249.5	
673.24	5783.5	
673.43	5308.3	
673.61	4849.6	
673.8	4242	
673.98	6031.3	
674.17	6247	
674.36	4844.8	
674.54	4694.6	
674.73	5778	
674.91	6047	
675.1	4408.6	
675.28	4061.1	
675.47	5575.3	
675.65	6076.3	
675.84	4223.6	
676.03	4625.7	
676.21	5315.2	
676.4	4820.9	
676.58	5057.8	
676.77	4736.3	
676.95	6791.7	
677.14	5247.6	
677.32	3908.9	
677.51	3663.1	
677.69	6120.7	
677.88	4956.8	
678.06	3769.6	
678.25	3947.1	
678.44	5522	
678.62	5332.2	
678.81	3588.7	
678.99	4636.6	
679.18	6419.7	
679.36	5937.7	
679.55	4161.5	
679.73	4829.8	
679.92	5922.7	
680.1	5353.4	
680.29	5472.9	
680.47	4249.5	
680.66	5280.3	
680.84	6152.8	
681.03	3461.7	
681.21	4539.7	
681.4	5352.7	
681.58	5117.2	
681.77	3969	
681.95	3894.6	
682.14	6147.3	
682.32	6527.6	
682.51	4941.7	
682.69	3726.6	
682.88	5245.5	
683.06	6034.7	
683.25	4553.3	
683.43	5095.3	
683.62	5574.6	
683.8	5969.1	
683.99	5181.4	
684.17	4466.6	
684.36	6837.5	
684.54	5568.4	
684.73	3689.1	
684.91	3962.1	
685.1	5988.9	
685.28	5399.1	
685.46	4642.7	
685.65	4705.5	
685.83	6247	
686.02	5658.5	
686.2	4119.1	
686.39	4228.4	
686.57	5249.6	
686.76	6923.5	
686.94	4057	
687.13	4264.6	
687.31	6102.3	
687.5	5580	
687.68	3681.6	
687.86	4967.7	
688.05	7106.5	
688.23	5029.1	
688.42	4935.6	
688.6	4063.9	
688.79	5407.3	
688.97	5463.3	
689.16	4525.3	
689.34	3452.2	
689.52	6170.5	
689.71	6397.2	
689.89	4719.9	
690.08	4079.6	
690.26	5632.6	
690.45	5499.5	
690.63	5027.1	
690.81	4219.5	
691	5468.8	
691.18	5379.3	
691.37	4398.4	
691.55	6713.2	
691.74	5331.5	
691.92	7346.1	
692.1	4407.9	
692.29	3849.5	
692.47	5587.5	
692.66	4851	
692.84	4064.5	
693.02	4746.5	
693.21	4958.1	
693.39	5509.7	
693.58	4740.4	
693.76	4103.4	
693.94	6681.8	
694.13	6431.3	
694.31	3988.8	
694.5	5083.7	
694.68	5253.7	
694.86	5573.2	
695.05	4349.2	
695.23	4765.6	
695.42	5939.1	
695.6	8297.7	
695.78	4920.6	
695.97	4074.1	
696.15	5934.3	
696.34	5335.6	
696.52	3831.1	
696.7	4664.6	
696.89	5750.7	
697.07	5180.7	
697.25	4665.3	
697.44	6240.2	
697.62	5715.9	
697.81	6198.5	
697.99	4302.8	
698.17	4839.4	
698.36	5126.7	
698.54	5805.3	
698.72	4692.6	
698.91	3685	
699.09	5360.9	
699.28	5309.7	
699.46	4300.1	
699.64	4226.3	
699.83	5176.6	
700.01	6440.9	
700.19	5014.8	
700.38	3465.2	
700.56	6387.6	
700.74	5277.6	
700.93	3790.1	
701.11	4597.7	
701.29	5827.2	
701.48	6849.1	
701.66	3975.8	
701.84	4020.8	
702.03	5377.3	
702.21	6014.2	
702.39	3585.3	
702.58	4089.8	
702.76	5756.2	
702.94	5912.5	
703.13	3619.4	
703.31	6064	
703.49	5009.3	
703.68	5944.6	
703.86	3773.7	
704.04	4810.7	
704.23	5622.4	
704.41	5956.2	
704.59	3947.8	
704.78	5212.1	
704.96	6688	
705.14	6022.4	
705.33	3620.8	
705.51	4590.9	
705.69	5396.4	
705.87	6188.3	
706.06	4913.8	
706.24	3662.5	
706.42	5708.4	
706.61	5994.4	
706.79	4878.9	
706.97	3622.2	
707.16	5122	
707.34	5799.8	
707.52	4851.6	
707.7	3973.1	
707.89	5382.1	
708.07	5025	
708.25	4878.9	
708.44	4874.8	
708.62	5280.3	
708.8	6374	
708.98	5105.6	
709.17	4023.6	
709.35	5690.6	
709.53	5663.3	
709.72	3688.4	
709.9	3942.3	
710.08	5918.6	
710.26	5997.8	
710.45	5503.6	
710.63	4067.3	
710.81	5624.4	
710.99	5628.5	
711.18	4731.5	
711.36	4231.8	
711.54	5491.3	
711.72	6265.4	
711.91	4375.1	
712.09	3746.4	
712.27	5649	
712.45	6836.1	
712.64	4696.7	
712.82	3665.9	
713	5176.6	
713.18	5380.7	
713.37	3788.1	
713.55	5096	
713.73	6387.6	
713.91	4984.1	
714.1	4408.6	
714.28	3915.7	
714.46	6252.4	
714.64	5480.4	
714.83	3472	
715.01	4416.8	
715.19	5595.1	
715.37	5076.2	
715.55	4106.9	
715.74	4512.4	
715.92	6619	
716.1	4571.7	
716.28	5642.8	
716.47	4605.2	
716.65	5310.4	
716.83	5377.3	
717.01	4498.7	
717.19	4621.6	
717.38	7568.6	
717.56	5042.8	
717.74	4734.2	
717.92	3845.4	
718.1	6310.5	
718.29	5487.2	
718.47	3373	
718.65	4091.8	
718.83	6040.8	
719.01	5976.7	
719.2	3183.9	
719.38	4270	
719.56	5636	
719.74	7257.3	
719.92	3835.2	
720.11	4939.7	
720.29	5741.8	
720.47	4864.6	
720.65	3472.7	
720.83	4401.8	
721.02	5307.7	
721.2	5067.4	
721.38	4511.7	
721.56	3815.4	
721.74	4577.9	
721.92	4851.6	
722.11	5081.7	
722.29	4745.8	
722.47	6107	
722.65	5257.1	
722.83	3812	
723.01	4800.4	
723.2	5349.3	
723.38	5646.2	
723.56	3197.6	
723.74	4511	
723.92	4832.5	
724.1	6071.5	
724.29	3744.4	
724.47	4976.6	
724.65	4917.9	
724.83	4875.5	
725.01	3667.2	
725.19	4575.8	
725.37	4952	
725.56	4984.8	
725.74	3493.2	
725.92	3766.2	
726.1	4801.1	
726.28	5172.5	
726.46	4237.9	
726.64	3952.6	
726.83	5199.1	
727.01	5477.6	
727.19	3490.4	
727.37	4414.1	
727.55	5272.8	
727.73	5769.8	
727.91	3436.5	
728.09	3295.2	
728.28	5837.4	
728.46	6548.7	
728.64	4401.1	
728.82	4357.4	
729	6891.4	
729.18	6039.5	
729.36	3544.4	
729.54	5961	
729.72	7168.6	
729.91	5352	
730.09	5492	
730.27	4174.4	
730.45	5204.6	
730.63	5809.4	
730.81	4820.9	
730.99	3748.5	
731.17	6320	
731.35	4876.9	
731.53	4420.2	
731.71	3958	
731.9	6090.7	
732.08	6350.8	
732.26	4116.4	
732.44	3905.5	
732.62	6350.1	
732.8	5803.3	
732.98	4666	
733.16	3632.4	
733.34	5834.7	
733.52	4575.8	
733.7	4225	
733.88	4526.7	
734.07	5705	
734.25	5414.8	
734.43	3601	
734.61	5269.4	
734.79	7000.6	
734.97	5293.3	
735.15	3834.5	
735.33	4146.5	
735.51	5699.5	
735.69	5326.8	
735.87	5346.6	
736.05	4389.5	
736.23	5472.9	
736.41	5337.7	
736.59	4185.4	
736.77	4308.9	
736.95	5971.2	
737.13	5430.5	
737.32	3907.5	
737.5	4110.3	
737.68	6501.6	
737.86	5337	
738.04	3647.4	
738.22	5619.6	
738.4	5096	
738.58	5433.9	
738.76	4387.4	
738.94	3201	
739.12	5282.4	
739.3	5059.2	
739.48	5001.8	
739.66	4681.7	
739.84	5533.6	
740.02	5492	
740.2	3318.4	
740.38	3723.9	
740.56	5891.3	
740.74	4742.4	
740.92	4422.2	
741.1	4322.6	
741.28	5388.2	
741.46	5186.8	
741.64	3987.4	
741.82	4484.4	
742	5384.1	
742.18	5342.5	
742.36	4194.2	
742.54	3805.8	
742.72	5949.3	
742.9	4668	
743.08	4615.4	
743.26	3401.7	
743.44	6222.4	
743.62	6116.6	
743.8	4841.4	
743.98	3882.3	
744.16	5731.6	
744.34	5492.7	
744.52	4749.9	
744.7	4694.6	
744.88	5915.2	
745.06	5406	
745.24	4833.9	
745.42	4995	
745.6	6009.4	
745.78	5771.9	
745.96	3622.9	
746.14	3953.3	
746.32	6829.3	
746.5	6139.1	
746.68	4538.3	
746.86	3984.7	
747.03	6554.9	
747.21	4815.5	
747.39	4588.1	
747.57	4079.6	
747.75	5636.7	
747.93	6124.8	
748.11	4027.7	
748.29	3959.4	
748.47	7305.8	
748.65	5406	
748.83	4752	
749.01	4488.5	
749.19	5980.1	
749.37	5053	
749.55	4392.2	
749.73	4478.2	
749.91	5641.5	
750.09	5350.7	
750.26	4487.8	
750.44	3842.7	
750.62	5661.3	
750.8	5618.3	
750.98	3733.4	
751.16	4103.4	
751.34	5688.6	
751.52	4956.1	
751.7	4892.6	
751.88	3686.3	
752.06	6122.1	
752.24	5935.7	
752.42	3606.5	
752.59	4063.2	
752.77	5602.6	
752.95	6812.2	
753.13	4902.2	
753.31	4240	
753.49	5262.6	
753.67	5777.3	
753.85	4538.3	
754.03	4055	
754.21	6118	
754.38	6408.1	
754.56	4290.5	
754.74	3348.4	
754.92	5403.9	
755.1	6162.3	
755.28	3525.2	
755.46	3521.8	
755.64	7118.1	
755.82	7191.1	
755.99	4007.2	
756.17	4160.8	
756.35	4767.7	
756.53	6397.9	
756.71	3102	
756.89	4064.5	
757.07	6018.3	
757.25	4973.2	
757.42	4625	
757.6	5504.9	
757.78	5950.7	
757.96	4858.5	
758.14	4192.2	
758.32	3659	
758.5	4408.6	
758.67	5664	
758.85	3987.4	
759.03	4138.9	
759.21	5515.2	
759.39	4897.4	
759.57	3563.5	
759.75	4800.4	
759.92	6193.1	
760.1	5346.6	
760.28	5107.6	
760.46	5353.4	
760.64	5107	
760.82	4851	
760.99	4960.2	
761.17	4043.4	
761.35	5944.6	
761.53	4880.3	
761.71	4155.3	
761.89	4846.9	
762.06	5795.8	
762.24	5201.2	
762.42	4162.8	
762.6	3930.7	
762.78	5280.3	
762.96	5186.8	
763.13	4494.6	
763.31	4244.8	
763.49	6118	
763.67	5161.6	
763.85	5080.3	
764.02	5635.3	
764.2	6281.1	
764.38	5433.9	
764.56	4156	
764.74	5015.5	
764.91	6499.6	
765.09	5288.5	
765.27	3743.7	
765.45	3601.7	
765.63	6537.1	
765.8	6391	
765.98	3254.9	
766.16	3646.7	
766.34	4891.9	
766.52	4712.4	
766.69	4683	
766.87	3500.7	
767.05	5356.1	
767.23	6229.2	
767.41	3845.4	
767.58	4149.9	
767.76	5972.6	
767.94	6019	
768.12	3940.3	
768.29	4794.3	
768.47	5510.4	
768.65	6299.6	
768.83	3625.6	
769	4830.5	
769.18	5024.3	
769.36	5765.7	
769.54	4568.3	
769.72	3693.2	
769.89	6062.7	
770.07	6239.5	
770.25	4035.2	
770.43	5374.6	
770.6	6945.3	
770.78	7400	
770.96	4237.2	
771.14	4809.3	
771.31	6009.4	
771.49	5349.3	
771.67	3393.5	
771.85	3680.2	
772.02	4532.2	
772.2	5388.9	
772.38	4451.6	
772.55	3924.6	
772.73	5680.4	
772.91	5406	
773.09	4268.6	
773.26	4388.1	
773.44	5622.4	
773.62	5395	
773.8	3831.1	
773.97	3548.4	
774.15	5679.7	
774.33	5296.7	
774.5	3770.3	
774.68	4111.6	
774.86	5890	
775.04	5324.7	
775.21	3789.4	
775.39	3853.6	
775.57	5649.7	
775.74	6130.3	
775.92	3623.5	
776.1	3593.5	
776.27	5659.2	
776.45	6933.1	
776.63	3803.8	
776.81	3365.5	
776.98	5303.6	
777.16	6442.9	
777.34	3981.9	
777.51	3940.3	
777.69	5249.6	
777.87	5031.2	
778.04	4095.9	
778.22	4754.7	
778.4	5127.4	
778.57	5825.8	
778.75	3310.9	
778.93	3615.3	
779.1	4854.4	
779.28	4704.9	
779.46	3383.2	
779.64	3808.5	
779.81	5980.1	
779.99	6896.9	
780.17	4780	
780.34	4864.6	
780.52	5423.7	
780.69	5659.9	
780.87	4270	
781.05	3819.5	
781.22	5450.3	
781.4	5579.3	
781.58	3902.7	
781.75	3063.8	
781.93	5527.5	
782.11	4939	
782.28	4851	
782.46	3943	
782.64	4765.6	
782.81	5763	
782.99	4049.5	
783.17	3992.2	
783.34	5625.1	
783.52	4825.7	
783.69	4263.2	
783.87	5068.7	
784.05	4921.3	
784.22	4894.6	
784.4	5105.6	
784.58	4333.5	
784.75	5896.8	
784.93	5012.7	
785.1	3942.3	
785.28	4600.4	
785.46	5584.8	
785.63	4943.1	
785.81	3983.3	
785.99	3758	
786.16	5123.3	
786.34	5511.8	
786.51	3850.2	
786.69	4211.3	
786.87	4737.6	
787.04	5309	
787.22	3690.4	
787.39	4662.5	
787.57	4913.8	
787.75	6092	
787.92	4865.3	
788.1	4803.2	
788.27	5039.4	
788.45	4758.1	
788.63	4483	
788.8	3202.3	
788.98	5417.6	
789.15	4672.8	
789.33	3321.1	
789.5	4050.9	
789.68	5905	
789.86	6034	
790.03	4519.9	
790.21	3869.3	
790.38	5961.6	
790.56	5089.2	
790.73	3726.6	
790.91	3777.8	
791.09	4993.6	
791.26	5789.6	
791.44	4001.7	
791.61	3400.3	
791.79	4928.8	
791.96	5131.5	
792.14	3575.1	
792.32	3125.2	
792.49	5001.8	
792.67	5100.8	
792.84	3656.3	
793.02	3392.1	
793.19	5507.7	
793.37	6221	
793.54	3151.1	
793.72	3467.2	
793.89	6382.2	
794.07	5054.4	
794.25	4108.2	
794.42	3224.2	
794.6	6120	
794.77	5741.8	
794.95	4519.9	
795.12	3871.3	
795.3	5044.8	
795.47	5685.8	
795.65	4249.5	
795.82	4089.8	
796	4841.4	
796.17	6819.1	
796.35	3953.3	
796.52	4728.8	
796.7	5589.6	
796.87	5709.1	
797.05	4962.9	
797.22	4834.6	
797.4	5611.4	
797.57	6665.5	
797.75	4052.2	
797.92	3857	
798.1	5984.8	
798.27	5073.5	
798.45	3243.3	
798.62	3510.9	
798.8	5369.1	
798.97	5855.1	
799.15	4343.1	
799.32	4074.1	
799.5	4549.2	
799.67	5386.8	
799.85	4537.6	
800.02	3211.2	
800.2	4957.4	
800.37	5360.9	
800.55	4591.5	
800.72	3859.7	
800.9	5798.5	
801.07	6268.1	
801.25	5199.1	
801.42	4268.6	
801.6	5833.3	
801.77	5532.2	
801.95	3934.8	
802.12	3747.1	
802.29	5561.6	
802.47	5530.2	
802.64	4176.5	
802.82	3127.9	
802.99	4962.9	
803.17	6075.6	
803.34	4091.2	
803.52	3712.3	
803.69	6688.7	
803.87	4808.6	
804.04	4066.6	
804.21	4162.8	
804.39	6164.4	
804.56	5244.2	
804.74	3418.7	
804.91	4323.3	
805.09	5050.3	
805.26	5169.1	
805.44	3519.8	
805.61	3901.4	
805.78	5720	
805.96	5777.3	
806.13	4229.1	
806.31	4601.1	
806.48	4517.1	
806.66	5123.3	
806.83	4186	
807	4212	
807.18	4988.2	
807.35	5479.7	
807.53	4108.9	
807.7	3330	
807.87	6284.5	
808.05	5141.1	
808.22	4506.9	
808.4	3260.4	
808.57	5109.7	
808.74	4694.6	
808.92	3805.8	
809.09	4878.9	
809.27	4930.1	
809.44	5574.6	
809.61	3384.6	
809.79	3673.4	
809.96	6238.8	
810.14	5829.9	
810.31	3252.9	
810.48	3932.1	
810.66	5145.9	
810.83	6031.3	
811.01	3760.1	
811.18	4270.7	
811.35	5827.8	
811.53	4517.8	
811.7	4590.2	
811.87	4292.5	
812.05	5049.6	
812.22	4979.3	
812.39	3618.1	
812.57	3560.7	
812.74	5083.7	
812.92	6877.8	
813.09	3979.2	
813.26	4373.1	
813.44	6575.3	
813.61	5006.6	
813.78	3265.1	
813.96	4486.4	
814.13	5151.3	
814.3	4784.1	
814.48	4837.3	
814.65	3986.7	
814.82	6311.2	
815	4866.7	
815.17	4154	
815.34	4944.5	
815.52	5014.8	
815.69	5017.5	
815.87	4059.1	
816.04	3528	
816.21	5098.8	
816.38	4474.1	
816.56	3931.4	
816.73	3641.3	
816.9	6475.7	
817.08	5906.3	
817.25	3694.5	
817.42	4724.7	
817.6	4655	
817.77	5089.9	
817.94	4162.8	
818.12	3664.5	
818.29	4787.5	
818.46	7650.5	
818.64	3844.7	
818.81	3554.6	
818.98	4719.9	
819.16	7064.8	
819.33	4453	
819.5	4095.9	
819.67	5470.8	
819.85	6161.7	
820.02	4035.9	
820.19	4261.1	
820.37	5311.7	
820.54	4904.2	
820.71	4204.5	
820.88	5219.6	
821.06	5358.9	
821.23	4909	
821.4	4184.7	
821.58	4190.1	
821.75	5905	
821.92	5259.9	
822.09	3325.2	
822.27	3452.2	
822.44	5098.1	
822.61	5051.7	
822.79	3342.3	
822.96	6512.5	
823.13	5627.1	
823.3	4801.1	
823.48	3934.1	
823.65	3531.4	
823.82	5866.1	
823.99	4616.8	
824.17	5004.6	
824.34	3544.4	
824.51	6775.4	
824.68	5148.6	
824.86	3743	
825.03	4197	
825.2	5072.8	
825.37	6193.7	
825.55	3670	
825.72	4044.7	
825.89	6873	
826.06	6319.3	
826.24	4012.7	
826.41	4032.5	
826.58	6247.7	
826.75	5415.5	
826.92	3149.1	
827.1	3556	
827.27	8522.3	
827.44	6780.8	
827.61	3766.2	
827.79	4583.4	
827.96	4863.2	
828.13	5207.3	
828.3	3959.4	
828.47	3355.3	
828.65	5277.6	
828.82	5296	
828.99	5149.3	
829.16	4488.5	
829.34	5674.9	
829.51	5477	
829.68	4149.2	
829.85	4294.6	
830.02	5994.4	
830.2	5809.4	
830.37	3224.9	
830.54	5025.7	
830.71	6637.5	
830.88	5058.5	
831.05	3213.3	
831.23	3724.6	
831.4	6229.9	
831.57	7029.3	
831.74	3834.5	
831.91	3374.4	
832.09	5302.9	
832.26	5705.6	
832.43	3937.6	
832.6	4524	
832.77	5398.4	
832.94	6081.1	
833.12	3115	
833.29	3957.4	
833.46	5443.5	
833.63	7296.9	
833.8	4300.7	
833.97	3994.9	
834.15	5734.3	
834.32	5455.8	
834.49	4169.7	
834.66	4269.3	
834.83	5991.7	
835	4859.8	
835.17	3797.6	
835.35	3846.8	
835.52	5649.7	
835.69	5521.3	
835.86	4064.5	
836.03	3246	
836.2	5680.4	
836.37	5266.7	
836.55	3913.7	
836.72	3717.1	
836.89	5247.6	
837.06	5709.1	
837.23	4115.7	
837.4	4464.6	
837.57	6519.4	
837.75	7316.7	
837.92	3566.2	
838.09	3835.8	
838.26	5259.2	
838.43	6016.2	
838.6	4150.5	
838.77	3731.4	
838.94	6918.7	
839.11	6666.1	
839.29	3994.2	
839.46	3123.8	
839.63	5692	
839.8	5433.3	
839.97	3904.8	
840.14	3824.9	
840.31	5451.7	
840.48	5733.6	
840.65	3198.9	
840.82	3786	
841	5731.6	
841.17	5701.5	
841.34	3558	
841.51	3594.2	
841.68	5564.3	
841.85	5358.2	
842.02	3682.9	
842.19	3023.5	
842.36	5484.5	
842.53	5436.7	
842.7	3563.5	
842.87	4399	
843.05	7249.1	
843.22	5365	
843.39	3371	
843.56	3667.9	
843.73	5160.2	
843.9	5796.4	
844.07	5797.8	
844.24	4819.6	
844.41	8497.7	
844.58	4957.4	
844.75	3399.6	
844.92	3779.9	
845.09	5679.7	
845.26	5687.9	
845.43	3517.7	
845.6	3700	
845.77	5747.3	
845.94	5438	
846.12	3895.9	
846.29	4130.8	
846.46	5984.8	
846.63	5722.7	
846.8	3477.5	
846.97	4141	
847.14	6197.2	
847.31	5665.4	
847.48	4023.6	
847.65	4390.8	
847.82	6033.3	
847.99	5986.9	
848.16	4754	
848.33	4371	
848.5	5216.9	
848.67	6157.6	
848.84	3444.7	
849.01	3624.9	
849.18	5096.7	
849.35	4746.5	
849.52	4437.3	
849.69	3405.1	
849.86	5916.6	
850.03	6169.2	
850.2	3504.8	
850.37	4399.7	
850.54	6086.6	
850.71	5325.4	
850.88	4262.5	
851.05	3472	
851.22	5615.5	
851.39	6294.1	
851.56	3278.8	
851.73	4052.2	
851.9	5036	
852.07	5951.4	
852.24	3908.9	
852.41	3480.2	
852.58	5579.3	
852.75	5061.9	
852.92	3949.2	
853.09	3420.1	
853.26	5216.9	
853.43	6164.4	
853.6	3409.9	
853.77	3046.7	
853.94	6258.6	
854.11	5630.5	
854.28	5241.4	
854.44	3800.3	
854.61	6703	
854.78	5793.7	
854.95	3438.5	
855.12	4513	
855.29	4532.2	
855.46	6367.8	
855.63	3466.5	
855.8	4896.7	
855.97	5249.6	
856.14	5996.5	
856.31	5040.7	
856.48	3861.8	
856.65	5246.9	
856.82	4995	
856.99	3386	
857.16	3777.8	
857.33	6993.1	
857.49	5364.3	
857.66	3763.5	
857.83	4073.4	
858	5256.5	
858.17	5502.2	
858.34	3330.7	
858.51	3490.4	
858.68	6471.6	
858.85	6475.7	
859.02	4106.2	
859.19	4365.6	
859.36	4953.4	
859.52	5010	
859.69	3502	
859.86	4171	
860.03	5076.9	
860.2	6298.9	
860.37	3192.8	
860.54	3517	
860.71	5953.4	
860.88	6417	
861.05	3947.1	
861.21	4462.5	
861.38	6422.4	
861.55	4867.3	
861.72	3188	
861.89	3893.2	
862.06	5941.8	
862.23	6480.5	
862.4	3422.2	
862.56	3721.8	
862.73	5802.6	
862.9	5487.2	
863.07	4143.7	
863.24	3199.6	
863.41	4867.3	
863.58	5082.4	
863.75	3639.9	
863.91	4053.6	
864.08	6304.3	
864.25	5911.8	
864.42	4447.5	
864.59	4995.7	
864.76	6671.6	
864.93	5044.1	
865.09	3465.2	
865.26	3721.8	
865.43	6212.2	
865.6	6627.2	
865.77	3072.6	
865.94	3480.9	
866.1	6255.9	
866.27	5962.3	
866.44	5368.4	
866.61	3351.8	
866.78	5445.5	
866.95	5855.8	
867.11	3361.4	
867.28	3162.1	
867.45	6116.6	
867.62	5105.6	
867.79	4179.9	
867.96	3462.4	
868.12	5016.2	
868.29	6021.7	
868.46	3047.4	
868.63	4788.2	
868.8	6105	
868.97	5974.6	
869.13	3631	
869.3	3676.1	
869.47	5794.4	
869.64	5995.8	
869.81	3610.6	
869.97	3546.4	
870.14	5761.6	
870.31	6465.4	
870.48	3451.5	
870.65	4471.4	
870.81	5313.8	
870.98	5285.1	
871.15	3989.4	
871.32	3652.9	
871.48	5803.3	
871.65	6457.9	
871.82	3536.8	
871.99	3866.6	
872.16	6932.4	
872.32	6244.9	
872.49	3554.6	
872.66	3555.3	
872.83	5977.3	
872.99	5199.1	
873.16	4026.3	
873.33	3473.4	
873.5	5623.7	
873.67	5616.2	
873.83	3715.7	
874	4700.1	
874.17	5720.7	
874.34	6774	
874.5	4596.3	
874.67	4435.9	
874.84	6356.9	
875.01	5011.4	
875.17	5000.5	
875.34	3491.8	
875.51	5619.6	
875.68	6823.1	
875.84	4263.9	
876.01	5208.7	
876.18	5917.3	
876.34	5833.3	
876.51	3564.8	
876.68	3412.6	
876.85	5359.5	
877.01	6210.1	
877.18	5033.2	
877.35	3503.4	
877.52	5448.3	
877.68	4967.7	
877.85	3429	
878.02	3450.1	
878.18	5467.4	
878.35	5173.9	
878.52	2757.2	
878.69	3991.5	
878.85	6013.5	
879.02	5973.9	
879.19	5048.2	
879.35	3823.6	
879.52	5906.3	
879.69	6078.4	
879.86	2999.6	
880.02	3953.3	
880.19	5453.1	
880.36	6665.5	
880.52	4023.6	
880.69	4194.2	
880.86	5987.6	
881.02	6116.6	
881.19	3868.6	
881.36	3853.6	
881.52	5901.6	
881.69	5227.8	
881.86	3784.6	
882.02	3708.9	
882.19	6175.3	
882.36	7248.4	
882.52	3592.8	
882.69	4959.5	
882.86	5711.8	
883.02	5524.7	
883.19	4364.2	
883.36	4050.9	
883.52	6046.3	
883.69	6839.5	
883.86	3600.3	
884.02	3203.7	
884.19	6059.3	
884.36	5531.6	
884.52	4046.1	
884.69	3794.2	
884.86	5206.6	
885.02	6619.7	
885.19	3960.1	
885.36	4138.9	
885.52	5528.8	
885.69	5698.8	
885.86	5099.4	
886.02	4535.6	
886.19	5981.4	
886.35	5331.5	
886.52	3891.8	
886.69	4962.9	
886.85	5043.5	
887.02	6346.7	
887.19	6346.7	
887.35	6346.7	
887.52	6346.7	
887.68	6346.7	
887.85	6346.7	
888.02	6346.7	
888.18	6346.7	
888.35	6346.7	
888.51	6346.7	
888.68	6346.7	
888.85	6346.7	
889.01	6346.7	
889.18	6346.7	
889.35	6346.7	
889.51	6346.7	
889.68	6346.7	
889.84	6346.7	
890.01	6346.7	
890.17	6346.7	
890.34	6346.7	
890.51	6346.7	
890.67	6346.7	
890.84	6346.7	
891	6346.7	
891.17	6346.7	
891.34	6346.7	
891.5	6346.7	
891.67	6346.7	
891.83	6346.7	
892	6346.7	
892.16	6346.7	
892.33	6346.7	
892.5	6346.7	
892.66	6346.7	
892.83	6346.7	
892.99	6346.7	
893.16	6346.7	
893.32	6346.7	
893.49	6346.7	
893.65	6346.7	
893.82	6346.7	
893.99	6346.7	
894.15	6346.7	
894.32	6346.7	
894.48	6346.7	
894.65	6346.7	
894.81	6346.7	
894.98	6346.7	
895.14	6346.7	
895.31	6346.7	
895.47	6346.7	
895.64	6346.7	
895.81	6346.7	
895.97	6346.7	
896.14	6346.7	
896.3	6346.7	
896.47	6346.7	
896.63	6346.7	
896.8	6346.7	
896.96	6346.7	
897.13	6346.7	
897.29	6346.7	
897.46	6346.7	
897.62	6346.7	
897.79	6346.7	
897.95	6346.7	
898.12	6346.7	
898.28	6346.7	
898.45	6346.7	
898.61	6346.7	
898.78	6346.7	
898.94	6346.7	
899.11	6346.7	
899.27	6346.7	
899.44	6346.7	
899.6	6346.7	
899.77	6346.7	
899.93	6346.7	
900.1	6346.7	
900.26	6346.7	
900.43	6346.7	
900.59	6346.7	
900.76	6346.7	
900.92	6346.7	
901.09	6346.7	
901.25	6346.7	
901.42	6346.7	
901.58	6346.7	
901.75	6346.7	
901.91	6346.7	
902.07	6346.7	
902.24	6346.7	
902.4	6346.7	
902.57	6346.7	
902.73	6346.7	
902.9	6346.7	
903.06	6346.7	
903.23	6346.7	
903.39	6346.7	
903.56	6346.7	
903.72	6346.7	
903.88	6346.7	
904.05	6346.7	
904.21	6346.7	
904.38	6346.7	
904.54	6346.7	
904.71	6346.7	
904.87	6346.7	
905.03	6346.7	
905.2	6346.7	
905.36	6346.7	
905.53	6346.7	
905.69	6346.7	
905.86	6346.7	
906.02	6346.7	
906.18	6346.7	
906.35	6346.7	
906.51	6346.7	
906.68	6346.7	
906.84	6346.7	
907.01	6346.7	
907.17	6346.7	
907.33	6346.7	
907.5	6346.7	
907.66	6346.7	
907.83	6346.7	
907.99	6346.7	
908.15	6346.7	
908.32	6346.7	
908.48	6346.7	
908.65	6346.7	
908.81	6346.7	
908.97	6346.7	
909.14	6346.7	
909.3	6346.7	
909.47	6346.7	
909.63	6346.7	
909.79	6346.7	
909.96	6346.7	
910.12	6346.7	
910.28	6346.7	
910.45	6346.7	
910.61	6346.7	
910.78	6346.7	
910.94	6346.7	
911.1	6346.7	
911.27	6346.7	
911.43	6346.7	
911.59	6346.7	
911.76	6346.7	
911.92	6346.7	
912.08	6346.7	
912.25	6346.7	
912.41	6346.7	
912.57	6346.7	
912.74	6346.7	
912.9	6346.7	
913.07	6346.7	
913.23	6346.7	
913.39	6346.7	
913.56	6346.7	
913.72	6346.7	
913.88	6346.7	
914.05	6346.7	
914.21	6346.7	
914.37	6346.7	
914.54	6346.7	
914.7	6346.7	
914.86	6346.7	
915.03	6346.7	
915.19	6346.7	
