Wavelength	Intensities	
nm	a.u.	
179.22	1937.9	
179.44	1922	
179.65	1953.8	
179.86	1890.3	
180.08	1936	
180.29	5107.6	
180.51	3605.1	
180.72	5753.4	
180.94	6790.4	
181.15	3305.4	
181.37	3301.3	
181.58	5582.1	
181.79	5968.5	
182.01	3470.6	
182.22	3725.3	
182.44	5915.2	
182.65	4941.7	
182.87	4749.2	
183.08	4188.1	
183.29	6247	
183.51	5109	
183.72	3805.8	
183.94	5565.7	
184.15	5545.9	
184.37	5578.7	
184.58	3276.1	
184.79	4575.2	
185.01	5098.8	
185.22	5891.3	
185.44	4858.5	
185.65	4037.9	
185.86	5327.4	
186.08	5000.5	
186.29	3177.8	
186.51	3482.9	
186.72	5092.6	
186.94	6176.7	
187.15	3982.6	
187.36	4154	
187.58	7993.2	
187.79	5666.7	
188.01	4347.8	
188.22	6838.2	
188.43	6864.8	
188.65	5837.4	
188.86	3448.1	
189.08	4123.9	
189.29	5306.3	
189.5	5350.7	
189.72	3852.9	
189.93	3959.4	
190.15	6082.5	
190.36	7408.9	
190.57	4274.8	
190.79	4059.1	
191	6234.7	
191.22	6133.7	
191.43	4263.2	
191.64	3489.1	
191.86	6377.4	
192.07	6130.3	
192.29	3669.3	
192.5	3848.8	
192.71	6076.3	
192.93	5212.1	
193.14	3826.3	
193.35	3964.2	
193.57	5296	
193.78	6162.3	
194	3053.5	
194.21	3806.5	
194.42	5057.8	
194.64	5541.1	
194.85	4187.4	
195.07	4930.8	
195.28	5608.7	
195.49	4796.3	
195.71	5162.9	
195.92	3591.5	
196.13	5674.9	
196.35	5888.6	
196.56	5553.4	
196.78	4193.6	
196.99	7255.3	
197.2	6789	
197.42	4806.6	
197.63	4238.6	
197.84	4962.2	
198.06	5720	
198.27	3867.9	
198.48	5284.4	
198.7	5319.3	
198.91	5370.5	
199.13	4177.2	
199.34	4194.2	
199.55	5939.1	
199.77	4822.3	
199.98	3708.2	
200.19	4247.5	
200.41	5382.1	
200.62	5132.9	
200.83	4414.1	
201.05	4713.7	
201.26	5384.1	
201.47	5184.1	
201.69	3787.4	
201.9	3597.6	
202.11	5505.6	
202.33	6587	
202.54	3943.7	
202.76	4422.9	
202.97	5666	
203.18	5691.3	
203.4	4327.4	
203.61	4239.3	
203.82	5600.5	
204.04	5173.2	
204.25	4264.6	
204.46	4147.8	
204.68	5554.8	
204.89	5857.2	
205.1	4106.2	
205.32	3510.2	
205.53	6010.8	
205.74	6104.3	
205.96	3035.1	
206.17	4368.3	
206.38	5926.1	
206.6	6099.5	
206.81	4816.8	
207.02	3910.9	
207.24	5796.4	
207.45	6261.3	
207.66	3984.7	
207.88	3414	
208.09	5757.5	
208.3	5533.6	
208.52	3655.6	
208.73	3976.5	
208.94	5565	
209.15	6328.9	
209.37	3992.2	
209.58	4203.8	
209.79	6093.4	
210.01	5313.8	
210.22	3158.7	
210.43	3439.2	
210.65	5558.9	
210.86	6010.1	
211.07	4014	
211.29	3698.6	
211.5	5952.8	
211.71	5493.3	
211.93	3688.4	
212.14	3642	
212.35	5488.6	
212.56	5717.2	
212.78	4225	
212.99	3470.6	
213.2	6503	
213.42	5302.2	
213.63	3789.4	
213.84	4145.8	
214.06	4911	
214.27	4972.5	
214.48	3989.4	
214.69	4285.7	
214.91	6262.7	
215.12	6346.7	
215.33	4338.3	
215.55	4796.3	
215.76	6902.3	
215.97	5972.6	
216.18	4077.5	
216.4	4057.7	
216.61	5182	
216.82	6044.9	
217.04	3705.5	
217.25	3831.1	
217.46	6263.4	
217.67	6004.6	
217.89	3261	
218.1	3355.9	
218.31	5642.2	
218.53	5744.6	
218.74	3821.5	
218.95	3760.8	
219.16	5476.3	
219.38	6547.4	
219.59	3725.3	
219.8	4503.5	
220.01	7231.4	
220.23	5578	
220.44	4980.7	
220.65	3690.4	
220.87	5599.8	
221.08	6219	
221.29	3386	
221.5	4531.5	
221.72	7650.5	
221.93	5248.9	
222.14	4284.4	
222.35	5025.7	
222.57	5593.7	
222.78	5930.9	
222.99	4016.1	
223.2	4330.1	
223.42	5831.2	
223.63	5979.4	
223.84	3046	
224.05	3080.1	
224.27	7151.5	
224.48	6634.1	
224.69	4998.4	
224.9	4253.6	
225.12	5772.5	
225.33	5468.8	
225.54	3337.5	
225.75	3743.7	
225.97	5080.3	
226.18	5385.5	
226.39	4059.1	
226.6	3782.6	
226.82	5242.1	
227.03	5130.8	
227.24	4299.4	
227.45	3463.1	
227.67	5883.1	
227.88	6578.1	
228.09	4730.8	
228.3	4770.4	
228.52	6012.2	
228.73	5531.6	
228.94	3917.1	
229.15	3433.8	
229.36	5500.8	
229.58	5318.6	
229.79	3907.5	
230	4602.5	
230.21	6649.8	
230.43	5695.4	
230.64	4203.1	
230.85	4422.9	
231.06	5934.3	
231.28	6041.5	
231.49	3443.3	
231.7	4123.9	
231.91	5934.3	
232.12	5560.2	
232.34	3562.1	
232.55	4095.3	
232.76	6248.4	
232.97	5694	
233.18	3639.2	
233.4	4184	
233.61	5807.4	
233.82	5271.5	
234.03	3920.5	
234.25	3775.8	
234.46	7680.6	
234.67	5563	
234.88	4321.9	
235.09	3749.1	
235.31	5941.2	
235.52	5455.8	
235.73	4206.5	
235.94	3511.6	
236.15	5291.3	
236.37	6771.3	
236.58	3711.6	
236.79	4046.1	
237	5929.6	
237.21	5012.1	
237.43	4333.5	
237.64	3437.9	
237.85	10290	
238.06	5109.7	
238.27	4418.2	
238.48	3469.3	
238.7	5857.9	
238.91	5384.8	
239.12	4032.5	
239.33	4044.1	
239.54	5086.5	
239.76	5513.1	
239.97	4007.2	
240.18	4049.5	
240.39	6998.6	
240.6	5894.7	
240.82	4132.1	
241.03	3389.4	
241.24	5560.9	
241.45	6478.4	
241.66	3680.9	
241.87	4403.1	
242.09	6309.1	
242.3	6742.6	
242.51	4425	
242.72	4009.9	
242.93	5999.2	
243.14	5504.9	
243.36	4665.3	
243.57	5091.3	
243.78	6466.1	
243.99	5927.5	
244.2	4086.4	
244.41	3673.4	
244.63	5125.4	
244.84	5873.6	
245.05	4361.5	
245.26	4031.8	
245.47	5800.5	
245.68	6223.1	
245.9	5458.5	
246.11	4245.4	
246.32	5445.5	
246.53	5782.8	
246.74	6519.4	
246.95	3407.1	
247.16	4997	
247.38	5565.7	
247.59	3330.7	
247.8	4052.9	
248.01	5265.3	
248.22	5519.3	
248.43	3671.3	
248.64	3912.3	
248.86	4876.9	
249.07	5243.5	
249.28	3513.6	
249.49	4151.2	
249.7	6107.7	
249.91	6281.1	
250.12	3339.6	
250.34	3433.1	
250.55	5653.1	
250.76	5503.6	
250.97	4209.9	
251.18	4264.6	
251.39	6311.2	
251.6	5729.5	
251.81	4327.4	
252.03	4235.2	
252.24	5255.1	
252.45	6105.7	
252.66	3515.7	
252.87	4505.5	
253.08	5567.7	
253.29	7407.5	
253.5	3562.1	
253.72	4923.3	
253.93	5354.8	
254.14	6598.6	
254.35	3809.9	
254.56	3928	
254.77	5824.4	
254.98	5117.9	
255.19	3790.8	
255.41	4904.2	
255.62	5681.1	
255.83	6248.4	
256.04	4371	
256.25	4274.1	
256.46	6677.1	
256.67	5285.1	
256.88	4171	
257.09	4672.8	
257.31	5193	
257.52	5206.6	
257.73	5236.7	
257.94	3822.2	
258.15	5384.8	
258.36	5565.7	
258.57	4834.6	
258.78	2994.8	
258.99	6030.6	
259.2	5322	
259.41	3872.7	
259.63	3904.8	
259.84	6490.7	
260.05	6893.5	
260.26	5091.9	
260.47	3766.9	
260.68	6153.5	
260.89	5394.3	
261.1	4690.5	
261.31	3687.7	
261.52	6148.7	
261.73	6577.4	
261.95	5031.9	
262.16	4382.7	
262.37	6272.2	
262.58	6445	
262.79	4946.5	
263	3896.6	
263.21	5541.8	
263.42	5063.9	
263.63	4012	
263.84	3916.4	
264.05	6180.8	
264.26	6590.4	
264.47	4807.9	
264.69	4234.5	
264.9	6298.2	
265.11	5786.9	
265.32	3749.8	
265.53	3876.1	
265.74	5689.9	
265.95	4947.2	
266.16	4080.9	
266.37	4600.4	
266.58	5682.4	
266.79	5381.4	
267	3823.6	
267.21	3506.1	
267.42	5117.9	
267.63	5564.3	
267.84	4036.5	
268.06	3431.7	
268.27	6032	
268.48	6367.1	
268.69	3901.4	
268.9	4695.3	
269.11	6317.3	
269.32	4996.4	
269.53	4037.2	
269.74	3646.7	
269.95	5886.5	
270.16	4894	
270.37	4031.8	
270.58	4665.3	
270.79	5371.1	
271	6087.2	
271.21	4353.3	
271.42	4016.1	
271.63	5671.5	
271.84	5199.1	
272.05	3189.4	
272.26	3575.8	
272.47	5568.4	
272.68	5773.2	
272.89	3891.8	
273.11	4530.1	
273.32	5306.3	
273.53	6519.4	
273.74	4384	
273.95	4297.3	
274.16	6227.9	
274.37	5627.1	
274.58	4405.9	
274.79	3521.8	
275	5717.9	
275.21	6315.3	
275.42	5300.8	
275.63	4527.4	
275.84	5819	
276.05	7384.3	
276.26	4253.6	
276.47	3966.9	
276.68	5405.3	
276.89	6577.4	
277.1	4485.7	
277.31	3543	
277.52	5814.2	
277.73	5998.5	
277.94	3452.9	
278.15	3855.6	
278.36	5795.8	
278.57	5181.4	
278.78	3857.7	
278.99	4415.4	
279.2	5128.8	
279.41	5115.1	
279.62	5125.4	
279.83	3575.1	
280.04	6847	
280.25	5025.7	
280.46	5087.8	
280.67	4078.2	
280.88	5165	
281.09	6282.5	
281.3	4287.1	
281.51	5410.1	
281.72	5255.1	
281.93	6093.4	
282.14	3766.2	
282.35	4118.5	
282.56	6069.5	
282.77	5999.9	
282.98	3882.9	
283.19	4811.4	
283.4	7500.3	
283.61	5527.5	
283.82	3531.4	
284.03	5063.3	
284.24	5640.1	
284.45	6304.3	
284.66	5062.6	
284.87	4914.4	
285.08	6186.9	
285.29	6380.8	
285.5	3405.1	
285.71	3921.2	
285.92	6189.6	
286.12	6935.8	
286.33	4974.5	
286.54	3914.4	
286.75	6121.4	
286.96	5401.2	
287.17	3646.7	
287.38	4992.9	
287.59	5179.3	
287.8	5105.6	
288.01	3976.5	
288.22	4519.9	
288.43	6151.4	
288.64	5042.1	
288.85	4728.8	
289.06	4489.1	
289.27	6390.3	
289.48	6495.5	
289.69	5094	
289.9	4533.5	
290.11	6257.9	
290.32	5273.5	
290.53	4828.4	
290.74	4410.6	
290.94	6057.2	
291.15	6043.6	
291.36	3776.5	
291.57	4550.6	
291.78	5287.9	
291.99	4970.4	
292.2	3625.6	
292.41	4433.2	
292.62	6173.9	
292.83	5945.3	
293.04	5507	
293.25	3628.3	
293.46	5302.2	
293.67	6200.6	
293.88	3829	
294.09	3639.9	
294.29	5076.2	
294.5	5700.9	
294.71	4055.7	
294.92	3825.6	
295.13	5346.6	
295.34	6728.3	
295.55	3404.4	
295.76	3495.2	
295.97	5952.8	
296.18	6852.5	
296.39	3596.2	
296.6	3801	
296.81	5643.5	
297.01	6004	
297.22	3971.7	
297.43	3793.5	
297.64	5165.7	
297.85	5186.8	
298.06	3132.7	
298.27	3374.4	
298.48	5637.4	
298.69	5244.8	
298.9	4057.7	
299.11	3704.8	
299.31	5096.7	
299.52	5023.7	
299.73	4382.7	
299.94	4297.3	
300.15	5593.7	
300.36	5156.1	
300.57	4304.8	
300.78	4338.3	
300.99	5437.4	
301.2	5669.5	
301.4	3745.1	
301.61	4107.5	
301.82	5891.3	
302.03	5999.9	
302.24	4665.3	
302.45	3573	
302.66	5857.2	
302.87	6366.5	
303.08	3799	
303.29	5316.5	
303.49	5276.3	
303.7	5592.3	
303.91	3371	
304.12	4953.4	
304.33	5069.4	
304.54	5709.1	
304.75	3789.4	
304.96	3603.7	
305.16	5915.2	
305.37	6729.6	
305.58	3259.7	
305.79	3440.6	
306	5899.5	
306.21	4978.6	
306.42	3777.8	
306.63	5916.6	
306.83	5399.8	
307.04	6202.6	
307.25	4152.6	
307.46	4134.2	
307.67	4728.8	
307.88	6024.4	
308.09	3690.4	
308.29	3880.9	
308.5	5633.3	
308.71	6221.7	
308.92	4087.1	
309.13	3642.7	
309.34	5492.7	
309.55	5483.8	
309.75	4722.6	
309.96	4323.3	
310.17	6037.4	
310.38	5278.3	
310.59	4572.4	
310.8	4220.2	
311.01	5402.5	
311.21	5391.6	
311.42	3575.1	
311.63	3725.9	
311.84	5392.3	
312.05	5730.2	
312.26	4203.1	
312.46	4677.6	
312.67	5345.2	
312.88	5131.5	
313.09	3629	
313.3	3575.8	
313.51	6380.8	
313.71	6774	
313.92	3627	
314.13	3839.9	
314.34	5729.5	
314.55	5477.6	
314.76	4745.8	
314.96	4123.2	
315.17	5629.9	
315.38	6088.6	
315.59	3665.9	
315.8	3499.3	
316.01	6526.9	
316.21	6552.1	
316.42	3546.4	
316.63	4005.1	
316.84	5426.4	
317.05	6317.3	
317.26	4351.9	
317.46	3936.9	
317.67	5567.7	
317.88	5988.9	
318.09	4681.7	
318.3	3431.7	
318.5	5279.7	
318.71	5900.2	
318.92	5990.3	
319.13	4349.9	
319.34	6102.9	
319.54	6241.5	
319.75	3381.2	
319.96	3276.1	
320.17	5963.7	
320.38	6195.1	
320.58	3289.7	
320.79	4023.6	
321	6151.4	
321.21	6331.6	
321.42	4123.2	
321.62	3335.5	
321.83	5100.8	
322.04	5525.4	
322.25	3896.6	
322.46	3670	
322.66	5672.9	
322.87	5826.5	
323.08	4577.2	
323.29	3609.9	
323.5	6636.8	
323.7	5085.8	
323.91	5018.9	
324.12	4477.5	
324.33	5595.1	
324.53	5961.6	
324.74	4311	
324.95	4608.6	
325.16	4908.3	
325.37	5384.1	
325.57	3681.6	
325.78	3708.9	
325.99	5657.9	
326.2	5060.5	
326.4	5192.3	
326.61	3380.5	
326.82	5513.8	
327.03	5714.5	
327.24	5347.2	
327.44	4972.5	
327.65	5791	
327.86	4712.4	
328.07	4332.8	
328.27	3542.3	
328.48	6297.5	
328.69	5149.3	
328.9	5326.8	
329.1	3944.4	
329.31	5440.1	
329.52	6489.3	
329.73	3635.1	
329.93	4168.3	
330.14	5585.5	
330.35	5794.4	
330.56	6135.7	
330.76	4555.4	
330.97	5354.1	
331.18	5816.2	
331.39	4091.2	
331.59	3257	
331.8	6227.9	
332.01	6294.1	
332.22	3831.7	
332.42	4369	
332.63	5665.4	
332.84	5239.4	
333.05	4108.9	
333.25	3756	
333.46	5362.3	
333.67	5633.3	
333.88	3845.4	
334.08	4253.6	
334.29	7490.8	
334.5	6341.2	
334.7	3570.3	
334.91	5272.2	
335.12	5072.8	
335.33	5975.3	
335.53	4057	
335.74	6087.9	
335.95	5350.7	
336.16	5126.1	
336.36	4099.4	
336.57	4737.6	
336.78	5074.9	
336.98	6284.5	
337.19	5045.5	
337.4	4018.1	
337.61	6833.4	
337.81	5029.8	
338.02	3718.4	
338.23	4874.2	
338.43	6412.9	
338.64	5210	
338.85	3715	
339.05	4854.4	
339.26	6423.1	
339.47	5003.9	
339.68	3689.1	
339.88	5521.3	
340.09	5810.1	
340.3	6083.8	
340.5	4298	
340.71	3334.8	
340.92	5017.5	
341.13	6393.8	
341.33	3534.1	
341.54	4359.4	
341.75	5831.2	
341.95	5480.4	
342.16	4099.4	
342.37	4521.9	
342.57	5115.1	
342.78	5578.7	
342.99	4582.7	
343.19	3291.1	
343.4	5981.4	
343.61	5899.5	
343.81	3962.1	
344.02	3618.8	
344.23	6002.6	
344.43	6437.4	
344.64	4506.9	
344.85	4502.8	
345.06	5842.9	
345.26	6215.6	
345.47	4257.7	
345.68	5089.2	
345.88	4884.4	
346.09	6072.9	
346.3	4349.2	
346.5	3221.5	
346.71	5546.6	
346.92	5309	
347.12	3323.2	
347.33	4314.4	
347.54	6191.7	
347.74	6610.8	
347.95	4220.2	
348.16	3115	
348.36	5435.3	
348.57	5086.5	
348.78	4236.6	
348.98	4473.4	
349.19	5541.8	
349.39	5003.9	
349.6	3376.4	
349.81	3776.5	
350.01	5864.7	
350.22	5348.6	
350.43	3984	
350.63	5009.3	
350.84	5597.8	
351.05	5347.9	
351.25	3736.2	
351.46	3320.4	
351.67	6197.2	
351.87	5276.9	
352.08	3950.5	
352.29	4535.6	
352.49	6089.3	
352.7	5757.5	
352.9	3601.7	
353.11	4476.2	
353.32	6767.2	
353.52	5401.2	
353.73	3558.7	
353.94	4573.8	
354.14	5885.9	
354.35	5682.4	
354.55	3638.6	
354.76	4084.3	
354.97	5820.3	
355.17	5648.3	
355.38	3437.2	
355.59	4844.8	
355.79	5241.4	
356	5737.7	
356.2	4076.8	
356.41	3545.7	
356.62	4879.6	
356.82	5463.3	
357.03	4330.1	
357.24	3861.8	
357.44	5318.6	
357.65	5403.9	
357.85	5255.1	
358.06	4128	
358.27	4934.2	
358.47	5258.5	
358.68	3388.7	
358.88	4284.4	
359.09	5849.7	
359.3	6294.1	
359.5	5096.7	
359.71	4469.4	
359.91	6834.8	
360.12	5993	
360.33	4312.3	
360.53	4881	
360.74	5201.2	
360.94	5326.8	
361.15	4522.6	
361.36	3725.3	
361.56	6062	
361.77	5489.9	
361.97	5051	
362.18	3961.5	
362.38	6154.8	
362.59	5133.6	
362.8	3644.7	
363	3419.4	
363.21	4948.6	
363.41	5579.3	
363.62	4239.3	
363.83	5337.7	
364.03	5705.6	
364.24	6808.8	
364.44	5413.5	
364.65	5335	
364.85	5485.1	
365.06	5304.2	
365.27	3882.3	
365.47	3846.8	
365.68	6541.9	
365.88	5380	
366.09	4322.6	
366.29	3958.7	
366.5	5727.5	
366.71	6213.5	
366.91	5336.3	
367.12	4469.4	
367.32	6896.9	
367.53	6072.2	
367.73	4386.1	
367.94	5496.7	
368.14	5968.5	
368.35	6948.1	
368.56	4512.4	
368.76	3740.3	
368.97	6100.2	
369.17	8052.6	
369.38	3820.8	
369.58	4144.4	
369.79	5066	
369.99	6514.6	
370.2	5216.2	
370.4	4222.9	
370.61	5814.9	
370.82	7054.6	
371.02	4173.1	
371.23	3435.1	
371.43	5008	
371.64	6377.4	
371.84	4231.1	
372.05	5527.5	
372.25	7963.2	
372.46	6219	
372.66	4246.8	
372.87	4151.9	
373.07	6287.9	
373.28	7939.3	
373.48	5288.5	
373.69	5011.4	
373.9	5608	
374.1	5687.2	
374.31	5259.2	
374.51	4702.1	
374.72	6608.8	
374.92	5343.8	
375.13	5429.2	
375.33	4587.4	
375.54	6135.7	
375.74	5501.5	
375.95	4619.5	
376.15	6001.2	
376.36	6142.5	
376.56	5939.1	
376.77	4792.9	
376.97	5229.8	
377.18	7324.9	
377.38	6287.3	
377.59	5644.9	
377.79	4199	
378	6042.9	
378.2	6587.6	
378.41	4364.9	
378.61	4192.2	
378.82	6595.1	
379.02	5610.1	
379.23	4417.5	
379.43	5705.6	
379.64	6630.6	
379.84	6307.7	
380.05	4323.3	
380.25	4185.4	
380.46	6318	
380.66	5929.6	
380.87	5759.6	
381.07	6075.6	
381.28	7005.4	
381.48	6381.5	
381.69	4372.4	
381.89	4368.3	
382.1	5156.8	
382.3	6570.6	
382.51	5509.7	
382.71	6457.9	
382.91	6401.3	
383.12	6885.3	
383.32	4743.1	
383.53	4971.8	
383.73	6186.2	
383.94	5961	
384.14	4819.6	
384.35	3948.5	
384.55	5911.8	
384.76	6375.3	
384.96	4723.3	
385.17	5100.8	
385.37	6328.9	
385.58	5588.9	
385.78	5117.9	
385.98	3797.6	
386.19	5797.1	
386.39	6199.9	
386.6	4440.7	
386.8	4702.8	
387.01	6355.5	
387.21	6384.9	
387.42	5238.7	
387.62	5931.6	
387.83	5657.9	
388.03	6480.5	
388.23	4808.6	
388.44	5777.3	
388.64	5375.2	
388.85	5475.6	
389.05	5253.7	
389.26	5926.8	
389.46	7571.3	
389.67	6967.2	
389.87	5205.3	
390.07	5308.3	
390.28	6049.7	
390.48	5644.9	
390.69	4398.4	
390.89	4773.8	
391.1	5834.7	
391.3	6873	
391.5	6038.8	
391.71	6736.5	
391.91	6602	
392.12	7738.6	
392.32	6128.2	
392.53	5272.8	
392.73	5864	
392.93	6137.1	
393.14	4855.1	
393.34	5737	
393.55	6607.4	
393.75	6033.3	
393.95	4980	
394.16	4850.3	
394.36	5831.2	
394.57	6558.3	
394.77	4384	
394.98	4825	
395.18	5905	
395.38	5950	
395.59	5913.9	
395.79	4719.2	
396	5938.4	
396.2	6536.4	
396.4	5674.2	
396.61	5682.4	
396.81	6887.3	
397.02	6040.8	
397.22	5997.8	
397.42	5999.2	
397.63	6866.2	
397.83	5971.2	
398.04	4718.5	
398.24	5368.4	
398.44	6619	
398.65	5666	
398.85	4589.5	
399.05	4805.2	
399.26	6056.5	
399.46	7984.3	
399.67	5231.9	
399.87	4956.1	
400.07	6442.9	
400.28	6890.7	
400.48	5127.4	
400.69	6247	
400.89	7238.2	
401.09	7604.1	
401.3	4969.7	
401.5	6252.4	
401.7	8048.5	
401.91	8152.3	
402.11	5396.4	
402.32	5539.8	
402.52	7185	
402.72	6973.3	
402.93	5722.7	
403.13	4317.8	
403.33	7912	
403.54	6423.1	
403.74	5398.4	
403.94	6351.4	
404.15	6565.1	
404.35	7833.5	
404.56	5226.4	
404.76	7265.5	
404.96	7196.6	
405.17	6924.9	
405.37	6650.4	
405.57	5733.6	
405.78	7217.7	
405.98	6535.8	
406.18	5257.8	
406.39	6323.4	
406.59	7153.6	
406.79	6813.6	
407	5106.3	
407.2	5439.4	
407.4	7286	
407.61	7537.9	
407.81	5341.8	
408.01	7465.5	
408.22	6339.1	
408.42	8598.1	
408.62	6726.2	
408.83	6187.6	
409.03	7328.3	
409.23	6927.6	
409.44	6378.7	
409.64	6671.6	
409.84	8292.2	
410.05	8271.1	
410.25	6582.2	
410.45	6274.3	
410.66	7765.2	
410.86	10408	
411.06	6956.9	
411.27	6851.1	
411.47	10346	
411.67	8053.3	
411.88	7143.3	
412.08	7484.6	
412.28	8753	
412.49	9336.7	
412.69	6905.1	
412.89	6936.5	
413.09	9252.7	
413.3	9097.1	
413.5	7058	
413.7	6748.1	
413.91	8263.6	
414.11	9252.7	
414.31	6980.8	
414.52	7514	
414.72	8923.7	
414.92	8867.7	
415.12	7027.3	
415.33	7595.9	
415.53	9394	
415.73	9465	
415.94	8004.8	
416.14	7381.6	
416.34	8210.3	
416.55	8062.2	
416.75	8825.4	
416.95	8204.8	
417.15	9388.6	
417.36	10148	
417.56	9053.4	
417.76	8150.2	
417.97	9923.1	
418.17	9641.2	
418.37	7471.7	
418.57	7684.7	
418.78	9263.6	
418.98	8772.1	
419.18	8626.7	
419.38	8525	
419.59	9083.4	
419.79	8527.1	
419.99	7595.2	
420.2	7994.6	
420.4	9506.7	
420.6	9815.2	
420.8	7499.7	
421.01	7313.3	
421.21	9480	
421.41	9710.8	
421.61	7929.1	
421.82	7617.1	
422.02	8860.2	
422.22	9948.3	
422.42	8551.6	
422.63	7980.3	
422.83	9009.7	
423.03	10286	
423.23	8015.7	
423.44	6974	
423.64	9137.4	
423.84	8696.4	
424.04	7457.3	
424.25	7081.2	
424.45	10063	
424.65	10009	
424.85	6815	
425.06	7492.8	
425.26	9975.7	
425.46	8850.6	
425.66	8085.4	
425.87	7660.1	
426.07	9765.4	
426.27	9608.4	
426.47	7968	
426.67	7107.8	
426.88	9995.5	
427.08	9564.7	
427.28	8172.1	
427.48	6967.9	
427.69	8244.4	
427.89	9033.6	
428.09	8120.2	
428.29	7183.6	
428.5	9847.3	
428.7	9370.8	
428.9	7138.5	
429.1	7865.6	
429.3	9257.5	
429.51	9763.3	
429.71	7411.6	
429.91	8387.8	
430.11	9676.7	
430.31	9927.9	
430.52	7843.7	
430.72	8332.5	
430.92	10410	
431.12	9783.8	
431.32	7681.9	
431.53	8073.8	
431.73	8661.5	
431.93	10498	
432.13	7522.2	
432.33	7469.6	
432.54	9217.9	
432.74	9617.9	
432.94	7483.3	
433.14	8538.7	
433.34	9765.4	
433.55	9445.2	
433.75	8547.5	
433.95	10613	
434.15	9656.2	
434.35	9411.8	
434.56	7638.9	
434.76	7368.6	
434.96	9708.1	
435.16	10062	
435.36	7756.3	
435.56	9020.6	
435.77	9477.3	
435.97	9697.1	
436.17	9901.9	
436.37	8990.6	
436.57	9546.3	
436.78	9566.1	
436.98	10834	
437.18	9605.7	
437.38	10417	
437.58	9663	
437.78	9697.1	
437.99	8163.9	
438.19	10110	
438.39	11064	
438.59	8135.9	
438.79	7612.3	
438.99	11092	
439.2	9768.8	
439.4	7877.9	
439.6	7819.1	
439.8	10346	
440	11562	
440.2	9226.8	
440.4	9368.1	
440.61	10864	
440.81	11432	
441.01	8426	
441.21	9558.6	
441.41	11473	
441.61	10869	
441.81	9947.7	
442.02	10963	
442.22	12061	
442.42	11112	
442.62	8615.8	
442.82	8653.4	
443.02	11478	
443.22	10629	
443.43	9295.7	
443.63	8752.3	
443.83	10383	
444.03	10500	
444.23	10297	
444.43	9796.1	
444.63	10887	
444.83	12208	
445.04	8968.1	
445.24	10308	
445.44	11046	
445.64	11352	
445.84	9562	
446.04	9866.4	
446.24	10383	
446.44	11482	
446.65	8729.8	
446.85	9417.9	
447.05	10419	
447.25	11424	
447.45	9340.8	
447.65	8672.5	
447.85	10704	
448.05	10341	
448.25	9928.6	
448.46	9708.1	
448.66	10920	
448.86	10501	
449.06	8617.2	
449.26	9936.7	
449.46	11337	
449.66	10111	
449.86	9595.4	
450.06	9451.4	
450.26	10487	
450.47	11183	
450.67	9557.2	
450.87	10167	
451.07	11242	
451.27	11082	
451.47	8898.4	
451.67	9682.1	
451.87	10804	
452.07	11854	
452.27	9444.5	
452.47	9217.9	
452.67	11020	
452.88	11769	
453.08	8460.2	
453.28	10922	
453.48	12523	
453.68	10971	
453.88	9484.1	
454.08	9666.4	
454.28	11733	
454.48	11312	
454.68	10319	
454.88	10918	
455.08	11733	
455.28	11815	
455.48	9267.1	
455.68	10148	
455.89	12601	
456.09	12280	
456.29	9908.8	
456.49	10106	
456.69	12761	
456.89	11706	
457.09	10762	
457.29	11354	
457.49	12185	
457.69	12498	
457.89	10921	
458.09	10090	
458.29	12067	
458.49	13046	
458.69	11205	
458.89	10715	
459.09	13457	
459.29	13448	
459.49	10754	
459.69	11710	
459.9	12821	
460.1	12623	
460.3	10660	
460.5	10531	
460.7	12996	
460.9	12695	
461.1	10254	
461.3	11889	
461.5	13906	
461.7	13505	
461.9	11307	
462.1	11518	
462.3	13112	
462.5	13820	
462.7	11262	
462.9	11647	
463.1	15003	
463.3	14892	
463.5	11687	
463.7	13051	
463.9	13655	
464.1	14078	
464.3	12434	
464.5	12491	
464.7	14517	
464.9	14442	
465.1	14033	
465.3	13041	
465.5	14943	
465.7	15078	
465.9	13505	
466.1	13029	
466.3	15024	
466.5	14556	
466.7	14592	
466.9	12958	
467.1	14924	
467.3	15865	
467.5	14592	
467.7	13276	
467.9	16130	
468.1	17188	
468.3	14067	
468.5	14775	
468.7	15147	
468.9	15110	
469.1	13794	
469.3	14631	
469.5	17361	
469.7	14888	
469.9	14018	
470.1	13609	
470.3	15176	
470.5	15157	
470.7	14904	
470.9	13560	
471.1	15066	
471.3	15264	
471.5	13414	
471.69	15512	
471.89	14649	
472.09	14242	
472.29	14326	
472.49	14418	
472.69	14550	
472.89	15419	
473.09	13331	
473.29	13232	
473.49	14754	
473.69	14670	
473.89	14445	
474.09	13488	
474.29	16115	
474.49	15741	
474.69	14330	
474.89	13640	
475.09	14829	
475.29	14816	
475.49	12849	
475.69	13274	
475.88	16352	
476.08	15004	
476.28	13015	
476.48	13156	
476.68	15458	
476.88	15203	
477.08	13130	
477.28	13603	
477.48	14646	
477.68	15347	
477.88	12951	
478.08	13373	
478.28	15892	
478.48	14786	
478.67	13372	
478.87	12617	
479.07	15838	
479.27	15057	
479.47	13601	
479.67	13704	
479.87	15431	
480.07	16139	
480.27	12739	
480.47	14539	
480.67	15070	
480.87	15888	
481.06	13225	
481.26	14112	
481.46	15006	
481.66	14934	
481.86	13581	
482.06	14800	
482.26	14814	
482.46	15829	
482.66	13599	
482.86	13276	
483.05	15300	
483.25	14659	
483.45	16374	
483.65	13767	
483.85	14907	
484.05	15395	
484.25	14360	
484.45	15130	
484.65	16350	
484.84	16336	
485.04	13883	
485.24	13997	
485.44	16681	
485.64	15042	
485.84	13510	
486.04	15101	
486.24	15490	
486.44	15911	
486.63	13519	
486.83	14552	
487.03	15634	
487.23	16234	
487.43	13725	
487.63	16560	
487.83	16040	
488.02	17281	
488.22	15211	
488.42	16006	
488.62	17103	
488.82	16093	
489.02	14685	
489.22	15046	
489.41	17039	
489.61	16771	
489.81	14648	
490.01	14636	
490.21	16995	
490.41	17639	
490.61	14436	
490.8	14483	
491	16413	
491.2	15568	
491.4	15182	
491.6	14205	
491.8	16319	
491.99	16598	
492.19	14098	
492.39	14586	
492.59	17056	
492.79	17175	
492.99	15823	
493.18	14911	
493.38	17602	
493.58	18607	
493.78	16008	
493.98	15560	
494.18	17610	
494.37	17210	
494.57	16709	
494.77	16642	
494.97	18271	
495.17	18653	
495.37	16326	
495.56	16747	
495.76	19029	
495.96	18545	
496.16	17960	
496.36	16814	
496.55	19002	
496.75	18618	
496.95	17240	
497.15	17071	
497.35	18904	
497.54	19233	
497.74	16882	
497.94	19038	
498.14	20025	
498.34	19786	
498.53	16918	
498.73	17750	
498.93	18791	
499.13	19368	
499.33	17752	
499.52	18181	
499.72	19697	
499.92	19716	
500.12	17577	
500.32	17691	
500.51	19750	
500.71	19891	
500.91	18632	
501.11	18314	
501.31	19949	
501.5	20295	
501.7	19041	
501.9	17869	
502.1	19485	
502.29	19710	
502.49	18518	
502.69	18658	
502.89	19617	
503.09	19712	
503.28	17090	
503.48	17093	
503.68	18686	
503.88	18926	
504.07	18127	
504.27	17470	
504.47	19051	
504.67	18938	
504.86	17951	
505.06	17535	
505.26	18518	
505.46	20373	
505.65	17218	
505.85	17386	
506.05	18144	
506.25	18529	
506.44	16259	
506.64	17111	
506.84	17872	
507.04	18716	
507.23	16270	
507.43	16585	
507.63	19663	
507.83	17824	
508.02	16499	
508.22	16137	
508.42	19728	
508.62	17373	
508.81	16540	
509.01	17046	
509.21	17050	
509.4	17634	
509.6	16538	
509.8	15912	
510	17714	
510.19	19298	
510.39	15883	
510.59	16143	
510.79	17617	
510.98	19159	
511.18	16219	
511.38	16506	
511.57	18461	
511.77	18355	
511.97	17139	
512.17	15982	
512.36	18439	
512.56	18470	
512.76	16227	
512.95	15852	
513.15	18787	
513.35	17226	
513.55	17213	
513.74	16339	
513.94	18825	
514.14	17925	
514.33	17534	
514.53	17329	
514.73	18229	
514.92	18524	
515.12	16881	
515.32	16619	
515.51	18656	
515.71	19351	
515.91	18697	
516.11	16942	
516.3	20723	
516.5	18410	
516.7	17376	
516.89	18209	
517.09	18616	
517.29	18456	
517.48	17918	
517.68	17311	
517.88	18249	
518.07	19056	
518.27	17821	
518.47	16963	
518.66	19662	
518.86	18153	
519.06	16705	
519.25	17280	
519.45	18550	
519.65	20323	
519.84	17858	
520.04	18650	
520.24	20542	
520.43	19121	
520.63	17354	
520.83	17123	
521.02	18231	
521.22	18951	
521.42	17611	
521.61	18271	
521.81	18510	
522.01	18698	
522.2	17711	
522.4	17359	
522.6	19482	
522.79	18292	
522.99	17729	
523.18	17350	
523.38	19536	
523.58	19663	
523.77	19682	
523.97	17511	
524.17	22046	
524.36	21102	
524.56	19392	
524.76	18979	
524.95	20376	
525.15	19872	
525.34	18791	
525.54	18860	
525.74	20708	
525.93	19708	
526.13	20215	
526.33	19202	
526.52	21359	
526.72	20960	
526.91	20617	
527.11	19915	
527.31	21642	
527.5	22093	
527.7	19842	
527.89	18850	
528.09	20545	
528.29	21338	
528.48	20316	
528.68	19852	
528.87	21624	
529.07	21392	
529.27	19706	
529.46	19036	
529.66	20727	
529.85	21392	
530.05	18858	
530.25	19799	
530.44	22534	
530.64	20909	
530.83	19641	
531.03	19965	
531.23	21660	
531.42	21569	
531.62	20906	
531.81	20078	
532.01	22291	
532.21	22830	
532.4	20209	
532.6	20689	
532.79	23427	
532.99	22743	
533.18	20977	
533.38	21830	
533.58	22362	
533.77	23159	
533.97	20977	
534.16	21879	
534.36	23459	
534.55	22515	
534.75	22019	
534.95	21282	
535.14	23453	
535.34	22442	
535.53	20596	
535.73	22676	
535.92	23804	
536.12	22429	
536.31	20684	
536.51	21999	
536.71	22696	
536.9	22382	
537.1	20755	
537.29	21098	
537.49	23231	
537.68	22408	
537.88	21671	
538.07	20848	
538.27	22804	
538.46	23857	
538.66	20666	
538.86	21343	
539.05	22836	
539.25	23343	
539.44	21683	
539.64	20989	
539.83	22519	
540.03	23658	
540.22	20850	
540.42	20634	
540.61	22481	
540.81	22822	
541	21063	
541.2	21932	
541.39	21946	
541.59	22441	
541.78	21600	
541.98	20312	
542.18	21455	
542.37	21317	
542.57	20465	
542.76	21194	
542.96	21109	
543.15	21743	
543.35	20309	
543.54	19638	
543.74	21754	
543.93	21577	
544.13	19829	
544.32	21011	
544.52	21439	
544.71	20836	
544.91	18784	
545.1	20088	
545.3	20753	
545.49	21656	
545.69	18507	
545.88	19300	
546.08	22623	
546.27	21998	
546.47	20035	
546.66	19181	
546.86	21642	
547.05	22270	
547.24	19412	
547.44	19311	
547.63	20344	
547.83	21588	
548.02	19668	
548.22	19895	
548.41	20109	
548.61	21424	
548.8	19043	
549	18955	
549.19	20794	
549.39	21132	
549.58	18479	
549.78	19251	
549.97	21121	
550.17	20624	
550.36	19857	
550.55	21165	
550.75	20437	
550.94	21630	
551.14	18791	
551.33	18968	
551.53	19962	
551.72	21005	
551.92	19126	
552.11	18973	
552.31	20811	
552.5	20902	
552.69	20723	
552.89	18299	
553.08	20949	
553.28	20525	
553.47	19000	
553.67	20162	
553.86	21604	
554.06	19637	
554.25	18047	
554.44	18681	
554.64	22274	
554.83	21860	
555.03	18779	
555.22	19007	
555.42	20970	
555.61	20691	
555.8	18742	
556	19073	
556.19	19754	
556.39	21039	
556.58	18788	
556.78	18695	
556.97	20555	
557.16	20379	
557.36	20115	
557.55	18583	
557.75	19246	
557.94	21420	
558.13	18451	
558.33	18230	
558.52	21153	
558.72	19713	
558.91	18322	
559.1	18469	
559.3	19443	
559.49	18907	
559.69	17823	
559.88	18787	
560.07	20199	
560.27	20592	
560.46	18972	
560.66	18988	
560.85	19973	
561.04	19114	
561.24	18082	
561.43	18017	
561.63	19394	
561.82	19544	
562.01	19568	
562.21	18631	
562.4	20098	
562.59	21196	
562.79	18353	
562.98	18157	
563.18	19961	
563.37	21717	
563.56	19080	
563.76	18181	
563.95	19548	
564.14	19667	
564.34	18655	
564.53	18258	
564.73	20035	
564.92	20654	
565.11	18712	
565.31	18104	
565.5	20820	
565.69	19787	
565.89	18268	
566.08	18652	
566.27	20620	
566.47	21220	
566.66	19187	
566.85	17940	
567.05	20279	
567.24	19681	
567.44	18174	
567.63	19723	
567.82	20469	
568.02	20221	
568.21	18298	
568.4	18594	
568.6	20186	
568.79	20145	
568.98	17928	
569.18	18156	
569.37	19951	
569.56	21957	
569.76	18288	
569.95	19344	
570.14	19978	
570.34	20012	
570.53	17492	
570.72	17458	
570.91	20263	
571.11	19195	
571.3	17731	
571.49	18761	
571.69	19370	
571.88	18853	
572.07	18531	
572.27	18584	
572.46	19124	
572.65	20011	
572.85	17856	
573.04	18212	
573.23	20469	
573.43	19708	
573.62	17761	
573.81	18392	
574	19888	
574.2	19746	
574.39	18304	
574.58	18327	
574.78	21001	
574.97	20155	
575.16	18791	
575.36	19050	
575.55	20450	
575.74	20620	
575.93	17575	
576.13	19139	
576.32	19717	
576.51	20598	
576.71	18319	
576.9	19938	
577.09	20889	
577.28	20411	
577.48	18939	
577.67	17801	
577.86	20055	
578.05	20459	
578.25	18727	
578.44	18914	
578.63	20148	
578.83	21555	
579.02	18081	
579.21	19851	
579.4	20652	
579.6	20284	
579.79	19004	
579.98	21487	
580.17	21141	
580.37	21218	
580.56	18834	
580.75	19669	
580.94	21877	
581.14	21772	
581.33	20286	
581.52	19019	
581.71	21503	
581.91	22139	
582.1	18955	
582.29	19583	
582.48	21179	
582.68	21400	
582.87	20296	
583.06	20017	
583.25	21698	
583.45	20990	
583.64	20768	
583.83	21569	
584.02	21096	
584.21	21713	
584.41	20609	
584.6	19921	
584.79	21621	
584.98	22421	
585.18	19482	
585.37	19253	
585.56	20835	
585.75	21806	
585.94	19331	
586.14	20037	
586.33	21874	
586.52	21127	
586.71	19727	
586.91	19267	
587.1	19996	
587.29	21229	
587.48	18851	
587.67	18694	
587.87	20556	
588.06	20439	
588.25	19609	
588.44	18566	
588.63	19202	
588.83	19624	
589.02	17108	
589.21	16600	
589.4	17655	
589.59	17340	
589.78	14778	
589.98	14808	
590.17	16012	
590.36	16406	
590.55	13620	
590.74	14332	
590.94	17606	
591.13	15998	
591.32	14106	
591.51	13652	
591.7	16691	
591.89	16104	
592.09	13894	
592.28	14511	
592.47	15236	
592.66	17557	
592.85	14108	
593.05	14351	
593.24	16266	
593.43	17354	
593.62	14773	
593.81	15391	
594	16603	
594.19	16861	
594.39	14706	
594.58	14642	
594.77	16918	
594.96	17378	
595.15	14431	
595.34	15233	
595.54	16886	
595.73	15733	
595.92	13685	
596.11	15119	
596.3	17373	
596.49	15930	
596.68	14915	
596.88	15593	
597.07	17404	
597.26	16063	
597.45	14468	
597.64	16112	
597.83	16445	
598.02	17157	
598.22	14927	
598.41	15679	
598.6	17189	
598.79	16494	
598.98	15039	
599.17	16294	
599.36	17486	
599.55	18637	
599.74	17577	
599.94	17428	
600.13	18133	
600.32	16848	
600.51	15256	
600.7	15554	
600.89	18983	
601.08	19157	
601.27	15441	
601.47	16605	
601.66	18432	
601.85	19235	
602.04	16444	
602.23	16569	
602.42	17788	
602.61	18404	
602.8	16483	
602.99	16205	
603.18	18099	
603.37	18500	
603.57	16991	
603.76	17708	
603.95	19357	
604.14	19082	
604.33	16614	
604.52	17002	
604.71	18789	
604.9	18249	
605.09	17487	
605.28	17371	
605.47	19457	
605.66	18938	
605.86	17189	
606.05	16665	
606.24	19301	
606.43	17701	
606.62	16826	
606.81	17784	
607	19140	
607.19	18428	
607.38	16289	
607.57	16656	
607.76	18098	
607.95	17526	
608.14	16832	
608.33	17647	
608.52	18086	
608.72	19204	
608.91	16145	
609.1	16003	
609.29	18043	
609.48	17613	
609.67	17045	
609.86	15950	
610.05	17482	
610.24	17914	
610.43	15977	
610.62	15419	
610.81	19132	
611	18901	
611.19	16006	
611.38	16716	
611.57	18138	
611.76	19706	
611.95	15743	
612.14	15511	
612.33	18120	
612.52	17463	
612.71	16335	
612.9	15345	
613.09	17110	
613.28	19621	
613.47	15935	
613.66	17107	
613.85	18181	
614.04	17623	
614.24	16034	
614.43	15128	
614.62	18316	
614.81	18165	
615	16730	
615.19	16892	
615.38	17415	
615.57	17905	
615.76	16632	
615.95	17621	
616.14	18348	
616.33	17887	
616.52	17144	
616.71	17359	
616.9	18436	
617.09	18369	
617.28	16361	
617.47	17806	
617.66	17532	
617.85	17634	
618.04	17559	
618.22	16866	
618.41	18080	
618.6	19155	
618.79	16980	
618.98	16727	
619.17	19541	
619.36	17748	
619.55	16905	
619.74	16969	
619.93	18769	
620.12	18329	
620.31	17638	
620.5	17889	
620.69	19776	
620.88	20084	
621.07	18686	
621.26	17583	
621.45	19327	
621.64	19148	
621.83	17925	
622.02	16918	
622.21	19274	
622.4	19045	
622.59	18441	
622.78	18149	
622.97	18608	
623.16	19675	
623.35	17595	
623.54	16978	
623.72	18856	
623.91	19069	
624.1	17896	
624.29	16644	
624.48	19984	
624.67	19195	
624.86	17889	
625.05	16715	
625.24	20048	
625.43	18271	
625.62	19478	
625.81	16861	
626	19368	
626.19	18647	
626.38	17593	
626.56	16776	
626.75	17916	
626.94	18831	
627.13	17023	
627.32	15666	
627.51	18290	
627.7	19850	
627.89	15464	
628.08	16888	
628.27	17416	
628.46	17455	
628.65	15783	
628.83	15553	
629.02	18183	
629.21	17444	
629.4	16535	
629.59	16767	
629.78	17586	
629.97	18748	
630.16	17030	
630.35	16352	
630.54	19085	
630.72	18948	
630.91	16347	
631.1	16900	
631.29	18335	
631.48	18547	
631.67	17112	
631.86	16586	
632.05	17909	
632.24	17974	
632.42	16169	
632.61	16862	
632.8	18000	
632.99	17799	
633.18	16924	
633.37	17334	
633.56	18361	
633.75	18404	
633.93	17058	
634.12	16714	
634.31	19498	
634.5	19093	
634.69	16797	
634.88	17187	
635.07	18372	
635.25	19151	
635.44	17791	
635.63	18056	
635.82	18325	
636.01	17670	
636.2	17730	
636.39	17359	
636.57	19626	
636.76	19249	
636.95	16824	
637.14	18101	
637.33	18756	
637.52	19854	
637.7	16423	
637.89	17381	
638.08	18342	
638.27	19977	
638.46	17566	
638.65	17787	
638.83	19805	
639.02	18033	
639.21	17212	
639.4	17841	
639.59	18443	
639.78	17912	
639.96	16386	
640.15	16479	
640.34	18086	
640.53	18378	
640.72	15913	
640.91	16455	
641.09	17434	
641.28	18944	
641.47	16299	
641.66	17322	
641.85	18271	
642.03	18326	
642.22	16860	
642.41	16268	
642.6	17600	
642.79	16564	
642.97	15832	
643.16	16639	
643.35	17227	
643.54	16754	
643.73	15475	
643.91	16280	
644.1	16375	
644.29	16997	
644.48	14949	
644.67	14911	
644.85	16023	
645.04	16105	
645.23	13921	
645.42	14064	
645.6	15133	
645.79	16269	
645.98	13604	
646.17	12371	
646.36	14083	
646.54	14714	
646.73	13846	
646.92	12472	
647.11	14100	
647.29	15236	
647.48	12501	
647.67	12296	
647.86	15379	
648.05	15825	
648.23	13061	
648.42	14657	
648.61	15201	
648.8	15155	
648.98	13044	
649.17	13435	
649.36	14810	
649.55	14250	
649.73	13245	
649.92	14055	
650.11	14556	
650.3	14737	
650.48	13127	
650.67	12851	
650.86	14958	
651.05	13870	
651.23	13103	
651.42	13190	
651.61	14385	
651.79	14564	
651.98	13388	
652.17	13001	
652.36	15002	
652.54	14034	
652.73	13006	
652.92	12732	
653.11	14949	
653.29	14971	
653.48	11943	
653.67	12991	
653.85	14397	
654.04	15502	
654.23	12870	
654.42	12359	
654.6	13398	
654.79	14063	
654.98	11533	
655.16	12164	
655.35	12917	
655.54	13071	
655.73	11806	
655.91	11841	
656.1	14498	
656.29	13326	
656.47	11509	
656.66	13357	
656.85	13919	
657.03	13976	
657.22	12456	
657.41	12706	
657.59	14095	
657.78	13937	
657.97	12334	
658.16	13228	
658.34	14999	
658.53	15425	
658.72	14168	
658.9	14982	
659.09	14464	
659.28	14697	
659.46	13125	
659.65	13103	
659.84	14514	
660.02	14928	
660.21	12964	
660.4	13067	
660.58	15452	
660.77	14983	
660.96	13660	
661.14	12671	
661.33	16117	
661.52	15938	
661.7	12600	
661.89	16576	
662.08	14322	
662.26	13986	
662.45	12815	
662.64	13018	
662.82	15160	
663.01	14243	
663.2	12980	
663.38	13944	
663.57	14986	
663.75	14797	
663.94	13296	
664.13	14679	
664.31	14272	
664.5	14975	
664.69	13547	
664.87	14201	
665.06	13866	
665.25	14878	
665.43	14222	
665.62	14490	
665.8	15069	
665.99	14308	
666.18	13215	
666.36	13279	
666.55	15112	
666.74	14973	
666.92	12861	
667.11	14545	
667.29	14360	
667.48	15062	
667.67	14126	
667.85	13143	
668.04	14330	
668.22	14382	
668.41	13207	
668.6	13414	
668.78	14060	
668.97	14379	
669.15	13541	
669.34	12420	
669.53	14065	
669.71	14524	
669.9	12667	
670.08	13323	
670.27	14046	
670.46	14726	
670.64	13612	
670.83	13831	
671.01	13947	
671.2	14496	
671.38	12697	
671.57	12507	
671.76	15256	
671.94	16021	
672.13	12482	
672.31	13624	
672.5	14864	
672.69	13857	
672.87	12703	
673.06	13016	
673.24	14606	
673.43	14100	
673.61	13485	
673.8	12946	
673.98	14836	
674.17	14887	
674.36	13637	
674.54	13505	
674.73	14569	
674.91	14673	
675.1	13098	
675.28	12678	
675.47	14299	
675.65	14825	
675.84	12881	
676.03	13281	
676.21	14006	
676.4	13530	
676.58	13739	
676.77	13500	
676.95	15461	
677.14	13840	
677.32	12512	
677.51	12237	
677.69	14775	
677.88	13524	
678.06	12303	
678.25	12488	
678.44	14307	
678.62	13898	
678.81	12099	
678.99	13227	
679.18	15070	
679.36	14519	
679.55	12721	
679.73	13497	
679.92	14463	
680.1	13829	
680.29	14067	
680.47	12654	
680.66	13716	
680.84	14700	
681.03	11874	
681.21	13132	
681.4	13730	
681.58	13524	
681.77	12462	
681.95	12193	
682.14	14425	
682.32	14868	
682.51	13224	
682.69	11748	
682.88	13455	
683.06	14062	
683.25	12800	
683.43	13069	
683.62	13648	
683.8	13904	
683.99	12892	
684.17	11818	
684.36	14044	
684.54	12266	
684.73	10012	
684.91	10044	
685.1	11956	
685.28	11247	
685.46	10419	
685.65	10402	
685.83	11987	
686.02	11411	
686.2	9830.2	
686.39	10084	
686.57	11157	
686.76	12890	
686.94	10086	
687.13	10216	
687.31	12149	
687.5	11660	
687.68	9717.6	
687.86	11081	
688.05	13476	
688.23	11077	
688.42	11288	
688.6	10371	
688.79	11687	
688.97	11679	
689.16	10747	
689.34	9583.1	
689.52	12495	
689.71	12608	
689.89	10949	
690.08	9890.3	
690.26	11632	
690.45	11438	
690.63	10731	
690.81	9897.8	
691	10919	
691.18	10813	
691.37	9691	
691.55	12042	
691.74	10695	
691.92	12912	
692.1	9819.3	
692.29	9212.4	
692.47	11066	
692.66	10239	
692.84	9556.5	
693.02	10299	
693.21	10636	
693.39	11156	
693.58	10608	
693.76	10133	
693.94	12841	
694.13	12929	
694.31	10474	
694.5	11609	
694.68	11812	
694.86	12245	
695.05	11207	
695.23	11101	
695.42	12706	
695.6	15065	
695.78	11507	
695.97	10371	
696.15	12387	
696.34	11662	
696.52	9897.8	
696.7	10748	
696.89	11716	
697.07	11048	
697.25	10382	
697.44	12005	
697.62	11319	
697.81	11693	
697.99	9800.2	
698.17	10459	
698.36	10518	
698.54	11288	
698.72	10223	
698.91	9051.3	
699.09	10802	
699.28	10667	
699.46	9822.7	
699.64	9609.1	
699.83	10800	
700.01	12123	
700.19	10688	
700.38	9192.6	
700.56	12430	
700.74	11142	
700.93	9719	
701.11	10717	
701.29	11928	
701.48	13190	
701.66	10129	
701.84	10226	
702.03	11461	
702.21	12254	
702.39	9646.6	
702.58	10271	
702.76	11871	
702.94	11920	
703.13	9488.9	
703.31	12339	
703.49	11028	
703.68	12057	
703.86	9696.4	
704.04	10882	
704.23	11551	
704.41	12134	
704.59	9968.1	
704.78	11245	
704.96	12908	
705.14	12140	
705.33	9793.4	
705.51	10781	
705.69	11664	
705.87	12459	
706.06	11167	
706.24	9865.7	
706.42	12046	
706.61	12357	
706.79	11067	
706.97	9970.9	
707.16	11363	
707.34	11996	
707.52	11062	
707.7	10017	
707.89	11597	
708.07	11133	
708.25	11045	
708.44	11353	
708.62	11393	
708.8	12639	
708.98	11355	
709.17	10250	
709.35	11953	
709.53	11916	
709.72	9979.8	
709.9	9899.9	
710.08	12045	
710.26	12201	
710.45	11501	
710.63	10064	
710.81	11653	
710.99	11615	
711.18	10554	
711.36	9910.1	
711.54	11132	
711.72	11827	
711.91	9705.3	
712.09	8974.2	
712.27	11057	
712.45	11889	
712.64	9630.9	
712.82	8324.3	
713	9696.4	
713.18	9734	
713.37	7982.3	
713.55	8938	
713.73	10074	
713.91	8187.1	
714.1	7454.6	
714.28	6726.2	
714.46	8826.7	
714.64	7873.1	
714.83	5731.6	
715.01	6466.1	
715.19	7682.6	
715.37	7075	
715.55	6076.3	
715.74	6346	
715.92	8593.3	
716.1	6367.1	
716.28	7576.8	
716.47	6442.2	
716.65	7029.3	
716.83	7234.8	
717.01	6296.8	
717.19	6417.7	
717.38	9506	
717.56	7025.2	
717.74	6897.6	
717.92	6099.5	
718.1	8752.3	
718.29	7954.3	
718.47	5940.5	
718.65	6847.7	
718.83	9006.3	
719.01	9053.4	
719.2	6173.3	
719.38	7444.4	
719.56	8637	
719.74	10449	
719.92	6670.9	
720.11	7808.2	
720.29	8393.9	
720.47	7352.9	
720.65	5849	
720.83	6578.8	
721.02	7489.4	
721.2	7126.9	
721.38	6559	
721.56	5780.1	
721.74	6531.7	
721.92	6762.4	
722.11	7154.9	
722.29	6917.4	
722.47	8176.9	
722.65	7236.2	
722.83	5816.9	
723.01	6869.6	
723.2	7367.9	
723.38	7631.4	
723.56	5127.4	
723.74	6335.7	
723.92	6747.4	
724.1	8065.6	
724.29	5743.2	
724.47	6984.9	
724.65	6881.9	
724.83	6830.7	
725.01	5681.1	
725.19	6692.8	
725.37	6907.1	
725.56	7053.2	
725.74	5543.9	
725.92	5881.1	
726.1	6929	
726.28	7176.1	
726.46	6209.4	
726.64	5932.3	
726.83	7049.8	
727.01	7404.8	
727.19	5413.5	
727.37	6425.2	
727.55	7276.4	
727.73	7924.3	
727.91	5477	
728.09	5355.4	
728.28	8122.9	
728.46	8855.4	
728.64	6918.7	
728.82	6892.8	
729	9518.3	
729.18	8826.7	
729.36	6294.8	
729.54	8828.8	
729.72	10161	
729.91	8247.2	
730.09	8680.7	
730.27	7339.2	
730.45	8263.6	
730.63	9175.6	
730.81	8069.7	
730.99	7139.9	
731.17	9697.1	
731.35	8175.5	
731.53	7742	
731.71	7144	
731.9	9268.4	
732.08	9549	
732.26	7461.4	
732.44	6982.9	
732.62	9506.7	
732.8	8955.1	
732.98	7847.8	
733.16	6662	
733.34	8894.3	
733.52	7559.7	
733.7	7408.9	
733.88	7733.1	
734.07	8856.1	
734.25	8677.2	
734.43	6906.4	
734.61	8603.5	
734.79	10430	
734.97	8546.2	
735.15	7068.9	
735.33	7510.6	
735.51	8968.7	
735.69	8558.5	
735.87	9033.6	
736.05	7789.1	
736.23	8961.2	
736.41	8718.2	
736.59	7707.2	
736.77	7944.1	
736.95	9623.4	
737.13	8965.3	
737.32	7488.7	
737.5	7694.2	
737.68	10168	
737.86	8863.6	
738.04	7235.5	
738.22	9362.6	
738.4	8634.9	
738.58	9045.9	
738.76	7952.3	
738.94	6878.4	
739.12	8834.3	
739.3	8741.4	
739.48	8916.9	
739.66	8509.3	
739.84	9261.6	
740.02	9293.7	
740.2	7040.2	
740.38	7526.3	
740.56	9775	
740.74	8391.2	
740.92	8231.5	
741.1	8146.1	
741.28	9011.7	
741.46	8921	
741.64	7582.9	
741.82	8239.7	
742	9024	
742.18	9194	
742.36	7892.2	
742.54	7405.5	
742.72	9653.4	
742.9	8294.3	
743.08	8234.9	
743.26	7062.8	
743.44	9922.4	
743.62	9733.3	
743.8	8428.8	
743.98	7361.8	
744.16	9400.9	
744.34	9043.1	
744.52	8349.6	
744.7	8219.9	
744.88	9407	
745.06	8869.1	
745.24	8301.8	
745.42	8490.2	
745.6	9398.1	
745.78	9216.5	
745.96	6918	
746.14	7204.8	
746.32	10195	
746.5	9486.2	
746.68	8002.8	
746.86	7251.2	
747.03	9902.6	
747.21	7954.3	
747.39	7789.8	
747.57	7305.1	
747.75	8955.1	
747.93	9487.6	
748.11	7241.6	
748.29	7136.5	
748.47	10763	
748.65	8657.4	
748.83	8107.2	
749.01	7781.6	
749.19	9270.5	
749.37	8336.6	
749.55	7491.5	
749.73	7760.4	
749.91	8747.6	
750.09	8483.4	
750.26	7714.7	
750.44	7047.7	
750.62	8863.6	
750.8	8760.5	
750.98	6824.5	
751.16	7206.1	
751.34	8802.2	
751.52	8097.7	
751.7	8139.3	
751.88	6819.1	
752.06	9361.9	
752.24	9188.6	
752.42	6733	
752.59	7075.7	
752.77	8641.7	
752.95	10162	
753.13	7933.8	
753.31	7351.5	
753.49	8379.6	
753.67	8844.5	
753.85	7559.7	
754.03	7129	
754.21	9076.6	
754.38	9280.7	
754.56	7054.6	
754.74	5900.9	
754.92	7851.9	
755.1	8533.2	
755.28	5429.8	
755.46	5187.5	
755.64	8483.4	
755.82	8418.5	
755.99	4803.9	
756.17	4906.3	
756.35	5235.3	
756.53	6969.2	
756.71	3490.4	
756.89	4540.3	
757.07	6576.7	
757.25	5591.6	
757.42	5388.2	
757.6	6318	
757.78	6909.2	
757.96	5749.3	
758.14	5104.9	
758.32	4440.7	
758.5	5115.8	
758.67	6075.6	
758.85	4678.2	
759.03	4813.4	
759.21	6165.1	
759.39	5558.9	
759.57	4303.5	
759.75	5594.4	
759.92	6972	
760.1	6140.5	
760.28	6057.2	
760.46	6432.7	
760.64	6112.5	
760.82	5910.4	
760.99	6236.7	
761.17	5285.8	
761.35	7234.1	
761.53	6229.9	
761.71	5567.7	
761.89	6469.5	
762.06	7391.8	
762.24	6840.9	
762.42	6043.6	
762.6	5766.4	
762.78	7143.3	
762.96	7961.1	
763.13	6598.6	
763.31	6298.2	
763.49	8243.1	
763.67	7221.1	
763.85	7229.3	
764.02	7990.5	
764.2	8602.2	
764.38	7643	
764.56	6261.3	
764.74	7237.5	
764.91	8710	
765.09	7484	
765.27	5920.7	
765.45	5668.8	
765.63	8745.5	
765.8	8590.5	
765.98	5360.2	
766.16	5781.4	
766.34	6959	
766.52	6763.8	
766.69	6884.6	
766.87	5569.1	
767.05	7402	
767.23	8264.9	
767.41	5892	
767.58	6113.2	
767.76	7989.8	
767.94	8023.3	
768.12	5905	
768.29	6832	
768.47	7445	
768.65	8127	
768.83	5481	
769	6735.8	
769.18	6847	
769.36	7616.4	
769.54	6552.1	
769.72	5451	
769.89	7854	
770.07	8135.2	
770.25	5780.1	
770.43	7133.8	
770.6	8658.8	
770.78	9204.9	
770.96	5993.7	
771.14	6635.4	
771.31	7676.5	
771.49	7036.1	
771.67	4940.4	
771.85	5226.4	
772.02	6059.3	
772.2	6943.3	
772.38	6071.5	
772.55	5448.3	
772.73	7108.5	
772.91	6933.7	
773.09	5765	
773.26	5868.8	
773.44	7005.4	
773.62	6718	
773.8	5244.2	
773.97	4914.4	
774.15	7111.9	
774.33	6605.4	
774.5	5104.2	
774.68	5547.9	
774.86	7265.5	
775.04	6606.1	
775.21	5154.7	
775.39	5081.7	
775.57	6911.9	
775.74	7390.4	
775.92	4900.1	
776.1	4820.2	
776.27	6881.2	
776.45	8219.9	
776.63	5048.2	
776.81	4474.1	
776.98	6445	
777.16	7714.7	
777.34	5229.1	
777.51	5511.1	
777.69	6352.8	
777.87	6104.3	
778.04	5197.1	
778.22	5890	
778.4	6040.8	
778.57	6794.5	
778.75	4259.8	
778.93	4606.6	
779.1	5801.2	
779.28	5745.9	
779.46	4244.8	
779.64	4797.7	
779.81	6825.9	
779.99	7906.5	
780.17	5677	
780.34	5829.9	
780.52	6244.9	
780.69	6441.5	
780.87	5073.5	
781.05	4582	
781.22	6283.2	
781.4	6350.8	
781.58	4673.5	
781.75	3719.1	
781.93	6234.7	
782.11	5607.3	
782.28	5627.8	
782.46	4628.4	
782.64	5406	
782.81	6419.7	
782.99	4657.8	
783.17	4709.6	
783.34	6320	
783.52	5356.1	
783.69	4887.8	
783.87	5781.4	
784.05	5572.5	
784.22	5492.7	
784.4	5720.7	
784.58	4914.4	
784.75	6519.4	
784.93	5437.4	
785.1	4550.6	
785.28	5272.2	
785.46	6133.7	
785.63	5336.3	
785.81	4472.1	
785.99	4309.6	
786.16	5598.5	
786.34	6067.4	
786.51	4288.4	
786.69	4721.9	
786.87	5148.6	
787.04	5723.4	
787.22	3695.2	
787.39	5208	
787.57	5380	
787.75	6634.1	
787.92	5403.9	
788.1	5402.5	
788.27	5447.6	
788.45	5142.4	
788.63	5037.3	
788.8	3617.4	
788.98	5912.5	
789.15	5126.7	
789.33	3754.6	
789.5	4431.1	
789.68	6430.6	
789.86	6468.9	
790.03	4691.2	
790.21	4302.1	
790.38	6310.5	
790.56	5520.6	
790.73	4138.3	
790.91	4169.7	
791.09	5330.2	
791.26	6131.6	
791.44	4397	
791.61	3801	
791.79	5313.8	
791.96	5429.2	
792.14	3868.6	
792.32	3452.9	
792.49	5302.9	
792.67	5495.4	
792.84	3953.3	
793.02	3747.1	
793.19	5817.6	
793.37	6663.4	
793.54	3482.9	
793.72	3833.1	
793.89	6761.7	
794.07	5385.5	
794.25	4544.4	
794.42	3517.7	
794.6	6391	
794.77	6068.8	
794.95	4788.8	
795.12	4177.9	
795.3	5257.1	
795.47	6012.8	
795.65	4553.3	
795.82	4374.5	
796	5008.6	
796.17	7212.3	
796.35	4244.1	
796.52	4977.2	
796.7	5891.3	
796.87	5950	
797.05	5295.4	
797.22	5165.7	
797.4	5992.4	
797.57	7010.2	
797.75	4287.8	
797.92	4115.1	
798.1	6153.5	
798.27	5239.4	
798.45	3483.6	
798.62	3784	
798.8	5603.9	
798.97	6161	
799.15	4640	
799.32	4362.2	
799.5	4801.8	
799.67	5718.6	
799.85	4696.7	
800.02	3458.3	
800.2	5186.1	
800.37	5610.8	
800.55	4961.5	
800.72	4060.4	
800.9	6079.1	
801.07	6574	
801.25	5530.2	
801.42	4539.7	
801.6	6133.7	
801.77	5894.7	
801.95	4102.8	
802.12	3982.6	
802.29	5806.7	
802.47	5732.9	
802.64	4446.8	
802.82	3324.5	
802.99	5189.6	
803.17	6325.5	
803.34	4357.4	
803.52	3951.2	
803.69	6973.3	
803.87	4960.9	
804.04	4268	
804.21	4504.8	
804.39	6410.1	
804.56	5461.9	
804.74	3629.7	
804.91	4480.3	
805.09	5205.9	
805.26	5386.2	
805.44	3712.3	
805.61	4067.3	
805.78	5926.8	
805.96	6010.1	
806.13	4478.9	
806.31	4816.8	
806.48	4683	
806.66	5285.8	
806.83	4427.7	
807	4303.5	
807.18	5123.3	
807.35	5638.1	
807.53	4356	
807.7	3472.7	
807.87	6459.3	
808.05	5250.3	
808.22	4798.4	
808.4	3416	
808.57	5272.8	
808.74	4777.2	
808.92	3951.2	
809.09	4941.7	
809.27	5102.9	
809.44	5774.6	
809.61	3476.1	
809.79	3825.6	
809.96	6442.9	
810.14	6065.4	
810.31	3322.5	
810.48	4160.1	
810.66	5298.1	
810.83	6118.6	
811.01	3922.5	
811.18	4743.8	
811.35	6013.5	
811.53	4663.9	
811.7	4860.5	
811.87	4492.6	
812.05	5238	
812.22	5120.6	
812.39	3775.1	
812.57	3683.6	
812.74	5240.1	
812.92	7114.6	
813.09	4122.6	
813.26	4534.2	
813.44	6778.1	
813.61	5134.9	
813.78	3461.1	
813.96	4712.4	
814.13	5240.1	
814.3	4876.9	
814.48	5034.6	
814.65	4192.9	
814.82	6605.4	
815	5034.6	
815.17	4278.9	
815.34	5216.9	
815.52	5110.4	
815.69	5154.1	
815.87	4299.4	
816.04	3645.4	
816.21	5210.7	
816.38	4573.1	
816.56	4050.9	
816.73	3764.8	
816.9	6685.3	
817.08	6053.1	
817.25	3816.7	
817.42	4896.7	
817.6	4745.8	
817.77	5257.8	
817.94	4372.4	
818.12	3800.3	
818.29	4906.3	
818.46	7932.5	
818.64	3941	
818.81	3697.9	
818.98	4871.4	
819.16	7232.1	
819.33	4646.2	
819.5	4234.5	
819.67	5698.1	
819.85	6339.8	
820.02	4210.6	
820.19	4441.4	
820.37	5481	
820.54	4978.6	
820.71	4324.6	
820.88	5386.8	
821.06	5502.9	
821.23	4969.1	
821.4	4386.1	
821.58	4317.8	
821.75	6030.6	
821.92	5384.1	
822.09	3436.5	
822.27	3823.6	
822.44	5216.2	
822.61	5156.8	
822.79	3466.5	
822.96	6807.4	
823.13	5745.2	
823.3	4900.8	
823.48	4017.4	
823.65	3669.3	
823.82	5938.4	
823.99	4734.2	
824.17	5205.9	
824.34	3719.8	
824.51	6900.3	
824.68	5289.2	
824.86	3932.8	
825.03	4365.6	
825.2	5250.3	
825.37	6420.4	
825.55	3767.6	
825.72	4323.3	
825.89	7049.1	
826.06	6581.5	
826.24	4136.2	
826.41	4265.2	
826.58	6407.4	
826.75	5548.6	
826.92	3233.1	
827.1	3680.9	
827.27	8790.6	
827.44	7095.5	
827.61	3910.9	
827.79	4909	
827.96	4909	
828.13	5352	
828.3	4093.9	
828.47	3459.7	
828.65	5482.4	
828.82	5384.1	
828.99	5446.2	
829.16	4737	
829.34	5855.8	
829.51	5637.4	
829.68	4367.6	
829.85	4455.7	
830.02	6226.5	
830.2	5892.7	
830.37	3252.9	
830.54	5225.7	
830.71	6733.7	
830.88	5225.7	
831.05	3353.9	
831.23	3840.6	
831.4	6447	
831.57	7256.6	
831.74	4033.8	
831.91	3420.1	
832.09	5498.1	
832.26	5842.9	
832.43	4074.1	
832.6	4611.3	
832.77	5504.3	
832.94	6326.9	
833.12	3272.7	
833.29	4093.9	
833.46	5631.9	
833.63	7468.3	
833.8	4517.8	
833.97	4156.7	
834.15	5959.6	
834.32	5642.8	
834.49	4283	
834.66	4399.7	
834.83	6189.6	
835	4891.2	
835.17	4009.9	
835.35	4002.4	
835.52	5769.8	
835.69	5672.2	
835.86	4263.9	
836.03	3427.6	
836.2	5871.5	
836.37	5434.6	
836.55	4086.4	
836.72	3871.3	
836.89	5438.7	
837.06	5835.3	
837.23	4227	
837.4	4629.1	
837.57	6765.8	
837.75	7462.8	
837.92	3835.8	
838.09	4000.4	
838.26	5413.5	
838.43	6223.1	
838.6	4328.7	
838.77	3829.7	
838.94	7101	
839.11	6793.8	
839.29	4117.1	
839.46	3241.3	
839.63	5778	
839.8	5572.5	
839.97	3948.5	
840.14	4028.4	
840.31	5623	
840.48	5900.9	
840.65	3293.1	
840.82	3934.1	
841	5910.4	
841.17	5810.8	
841.34	3672.7	
841.51	3763.5	
841.68	5728.9	
841.85	5527.5	
842.02	3850.2	
842.19	3102.7	
842.36	5582.1	
842.53	5593.7	
842.7	3664.5	
842.87	4544.4	
843.05	7497.6	
843.22	5482.4	
843.39	3448.8	
843.56	3781.9	
843.73	5311.7	
843.9	5962.3	
844.07	6057.2	
844.24	4995.7	
844.41	8725	
844.58	5038.7	
844.75	3575.8	
844.92	3809.2	
845.09	5946.6	
845.26	5867.4	
845.43	3663.1	
845.6	3857.7	
845.77	5782.8	
845.94	5539.8	
846.12	4085	
846.29	4285	
846.46	6042.9	
846.63	5801.2	
846.8	3620.8	
846.97	4310.3	
847.14	6339.8	
847.31	5741.8	
847.48	4139.6	
847.65	4521.9	
847.82	6173.3	
847.99	6150.7	
848.16	4874.8	
848.33	4570.4	
848.5	5380.7	
848.67	6402.6	
848.84	3627.6	
849.01	3807.9	
849.18	5249.6	
849.35	4808.6	
849.52	4631.1	
849.69	3648.1	
849.86	6057.9	
850.03	6313.9	
850.2	3721.2	
850.37	4570.4	
850.54	6270.9	
850.71	5535	
850.88	4473.4	
851.05	3603.1	
851.22	5775.3	
851.39	6381.5	
851.56	3457.7	
851.73	4283	
851.9	5126.1	
852.07	6113.2	
852.24	4058.4	
852.41	3651.5	
852.58	5718.6	
852.75	5154.7	
852.92	4100	
853.09	3606.5	
853.26	5438	
853.43	6368.5	
853.6	3624.9	
853.77	3134.1	
853.94	6497.5	
854.11	5060.5	
854.28	5455.1	
854.44	3935.5	
854.61	6918.7	
854.78	5931.6	
854.95	3660.4	
855.12	4561.5	
855.29	4689.2	
855.46	6417	
855.63	3607.8	
855.8	5064.6	
855.97	5353.4	
856.14	6198.5	
856.31	5195.7	
856.48	3973.7	
856.65	5395.7	
856.82	5064.6	
856.99	3433.1	
857.16	3925.3	
857.33	7200	
857.49	5477.6	
857.66	3915	
857.83	4256.4	
858	5468.8	
858.17	5578.7	
858.34	3458.3	
858.51	3624.2	
858.68	6642.2	
858.85	6607.4	
859.02	4210.6	
859.19	4515.1	
859.36	5093.3	
859.52	5113.1	
859.69	3663.1	
859.86	4311	
860.03	5090.6	
860.2	6507.8	
860.37	3253.5	
860.54	3614	
860.71	6098.2	
860.88	6624.5	
861.05	4138.3	
861.21	4633.2	
861.38	6588.3	
861.55	4971.8	
861.72	3321.8	
861.89	4090.5	
862.06	6118	
862.23	6696.2	
862.4	3573.7	
862.56	3802.4	
862.73	5976.7	
862.9	5611.4	
863.07	4348.5	
863.24	3291.8	
863.41	5048.9	
863.58	5156.8	
863.75	3752.6	
863.91	4222.9	
864.08	6585.6	
864.25	6025.1	
864.42	4625.7	
864.59	5158.2	
864.76	6902.3	
864.93	5144.5	
865.09	3566.2	
865.26	3909.6	
865.43	6292	
865.6	6840.2	
865.77	3198.9	
865.94	3651.5	
866.1	6379.4	
866.27	6157.6	
866.44	5550.7	
866.61	3430.3	
866.78	5564.3	
866.95	5943.2	
867.11	3527.3	
867.28	3250.1	
867.45	6204	
867.62	5227.8	
867.79	4345.1	
867.96	3627	
868.12	5120.6	
868.29	6131.6	
868.46	3643.3	
868.63	4922.6	
868.8	6360.3	
868.97	6110.5	
869.13	3780.6	
869.3	3747.1	
869.47	5940.5	
869.64	6195.8	
869.81	3648.8	
869.97	3665.9	
870.14	5840.1	
870.31	6603.3	
870.48	3566.9	
870.65	4712.4	
870.81	5427.8	
870.98	5393	
871.15	4165.6	
871.32	3764.8	
871.48	5980.1	
871.65	6597.2	
871.82	3563.5	
871.99	4035.9	
872.16	7113.3	
872.32	6401.3	
872.49	3650.8	
872.66	3708.9	
872.83	6149.4	
872.99	5340.4	
873.16	4227.7	
873.33	3664.5	
873.5	5674.9	
873.67	5715.9	
873.83	3807.9	
874	4880.3	
874.17	5868.8	
874.34	7050.5	
874.5	4691.2	
874.67	4573.8	
874.84	6513.9	
875.01	5066.7	
875.17	5160.2	
875.34	3577.8	
875.51	5760.3	
875.68	6994.5	
875.84	4403.8	
876.01	5390.9	
876.18	6012.2	
876.34	5980.1	
876.51	3650.2	
876.68	3516.4	
876.85	5511.8	
877.01	6422.4	
877.18	5218.9	
877.35	3589.4	
877.52	5646.2	
877.68	5008.6	
877.85	3579.8	
878.02	3596.9	
878.18	5608.7	
878.35	5311.7	
878.52	2896.5	
878.69	4130.8	
878.85	6056.5	
879.02	6081.1	
879.19	5266.7	
879.35	3889.1	
879.52	6014.2	
879.69	6313.2	
879.86	3132	
880.02	4101.4	
880.19	5599.1	
880.36	6832	
880.52	4185.4	
880.69	4342.4	
880.86	6199.2	
881.02	6224.5	
881.19	4000.4	
881.36	3995.6	
881.52	6036	
881.69	5283.8	
881.86	3960.1	
882.02	3853.6	
882.19	6319.3	
882.36	7489.4	
882.52	3721.8	
882.69	5132.9	
882.86	5831.9	
883.02	5657.9	
883.19	4448.9	
883.36	4218.1	
883.52	6132.3	
883.69	7084.6	
883.86	3635.8	
884.02	3217.4	
884.19	6128.9	
884.36	5633.3	
884.52	4115.1	
884.69	3867.2	
884.86	5356.1	
885.02	6746.7	
885.19	4099.4	
885.36	4276.2	
885.52	5640.8	
885.69	5815.5	
885.86	5335.6	
886.02	4733.5	
886.19	6099.5	
886.35	5571.2	
886.52	4051.6	
886.69	5163.6	
886.85	5130.2	
887.02	6520.7	
887.19	6520.7	
887.35	6520.7	
887.52	6520.7	
887.68	6520.7	
887.85	6520.7	
888.02	6520.7	
888.18	6520.7	
888.35	6520.7	
888.51	6520.7	
888.68	6520.7	
888.85	6520.7	
889.01	6520.7	
889.18	6520.7	
889.35	6520.7	
889.51	6520.7	
889.68	6520.7	
889.84	6520.7	
890.01	6520.7	
890.17	6520.7	
890.34	6520.7	
890.51	6520.7	
890.67	6520.7	
890.84	6520.7	
891	6520.7	
891.17	6520.7	
891.34	6520.7	
891.5	6520.7	
891.67	6520.7	
891.83	6520.7	
892	6520.7	
892.16	6520.7	
892.33	6520.7	
892.5	6520.7	
892.66	6520.7	
892.83	6520.7	
892.99	6520.7	
893.16	6520.7	
893.32	6520.7	
893.49	6520.7	
893.65	6520.7	
893.82	6520.7	
893.99	6520.7	
894.15	6520.7	
894.32	6520.7	
894.48	6520.7	
894.65	6520.7	
894.81	6520.7	
894.98	6520.7	
895.14	6520.7	
895.31	6520.7	
895.47	6520.7	
895.64	6520.7	
895.81	6520.7	
895.97	6520.7	
896.14	6520.7	
896.3	6520.7	
896.47	6520.7	
896.63	6520.7	
896.8	6520.7	
896.96	6520.7	
897.13	6520.7	
897.29	6520.7	
897.46	6520.7	
897.62	6520.7	
897.79	6520.7	
897.95	6520.7	
898.12	6520.7	
898.28	6520.7	
898.45	6520.7	
898.61	6520.7	
898.78	6520.7	
898.94	6520.7	
899.11	6520.7	
899.27	6520.7	
899.44	6520.7	
899.6	6520.7	
899.77	6520.7	
899.93	6520.7	
900.1	6520.7	
900.26	6520.7	
900.43	6520.7	
900.59	6520.7	
900.76	6520.7	
900.92	6520.7	
901.09	6520.7	
901.25	6520.7	
901.42	6520.7	
901.58	6520.7	
901.75	6520.7	
901.91	6520.7	
902.07	6520.7	
902.24	6520.7	
902.4	6520.7	
902.57	6520.7	
902.73	6520.7	
902.9	6520.7	
903.06	6520.7	
903.23	6520.7	
903.39	6520.7	
903.56	6520.7	
903.72	6520.7	
903.88	6520.7	
904.05	6520.7	
904.21	6520.7	
904.38	6520.7	
904.54	6520.7	
904.71	6520.7	
904.87	6520.7	
905.03	6520.7	
905.2	6520.7	
905.36	6520.7	
905.53	6520.7	
905.69	6520.7	
905.86	6520.7	
906.02	6520.7	
906.18	6520.7	
906.35	6520.7	
906.51	6520.7	
906.68	6520.7	
906.84	6520.7	
907.01	6520.7	
907.17	6520.7	
907.33	6520.7	
907.5	6520.7	
907.66	6520.7	
907.83	6520.7	
907.99	6520.7	
908.15	6520.7	
908.32	6520.7	
908.48	6520.7	
908.65	6520.7	
908.81	6520.7	
908.97	6520.7	
909.14	6520.7	
909.3	6520.7	
909.47	6520.7	
909.63	6520.7	
909.79	6520.7	
909.96	6520.7	
910.12	6520.7	
910.28	6520.7	
910.45	6520.7	
910.61	6520.7	
910.78	6520.7	
910.94	6520.7	
911.1	6520.7	
911.27	6520.7	
911.43	6520.7	
911.59	6520.7	
911.76	6520.7	
911.92	6520.7	
912.08	6520.7	
912.25	6520.7	
912.41	6520.7	
912.57	6520.7	
912.74	6520.7	
912.9	6520.7	
913.07	6520.7	
913.23	6520.7	
913.39	6520.7	
913.56	6520.7	
913.72	6520.7	
913.88	6520.7	
914.05	6520.7	
914.21	6520.7	
914.37	6520.7	
914.54	6520.7	
914.7	6520.7	
914.86	6520.7	
915.03	6520.7	
915.19	6520.7	
