Wavelength	Intensities	
nm	a.u.	
179.22	1913.3	
179.44	1917.9	
179.65	1908.7	
179.86	1927.1	
180.08	1933.3	
180.29	4961.5	
180.51	3522.5	
180.72	5736.4	
180.94	6679.8	
181.15	3334.8	
181.37	3212.6	
181.58	5595.1	
181.79	5971.9	
182.01	3439.9	
182.22	3732.1	
182.44	5844.9	
182.65	4860.5	
182.87	4678.9	
183.08	4060.4	
183.29	6118	
183.51	5003.2	
183.72	3665.2	
183.94	5425.8	
184.15	5435.3	
184.37	5511.1	
184.58	3315	
184.79	4508.3	
185.01	5042.1	
185.22	5847.6	
185.44	4731.5	
185.65	4008.6	
185.86	5321.3	
186.08	4975.2	
186.29	3168.2	
186.51	3435.8	
186.72	5098.1	
186.94	6068.1	
187.15	3960.8	
187.36	4088.4	
187.58	7879.2	
187.79	5545.2	
188.01	4275.5	
188.22	6642.2	
188.43	6744	
188.65	5806.7	
188.86	3403.7	
189.08	4104.1	
189.29	5285.1	
189.5	5268.1	
189.72	3792.2	
189.93	3872	
190.15	6055.8	
190.36	7286	
190.57	4237.2	
190.79	4009.9	
191	6148	
191.22	6133.7	
191.43	4199	
191.64	3377.8	
191.86	6430.6	
192.07	6128.2	
192.29	3593.5	
192.5	3842.7	
192.71	6119.3	
192.93	5201.2	
193.14	3789.4	
193.35	3848.8	
193.57	5213.4	
193.78	6038.1	
194	2975	
194.21	3741	
194.42	5042.8	
194.64	5477	
194.85	4076.8	
195.07	4838	
195.28	5541.1	
195.49	4765.6	
195.71	5103.5	
195.92	3549.8	
196.13	5653.8	
196.35	5781.4	
196.56	5460.6	
196.78	4136.2	
196.99	7189.1	
197.2	6735.1	
197.42	4711	
197.63	4124.6	
197.84	4888.5	
198.06	5613.5	
198.27	3824.2	
198.48	5104.2	
198.7	5262.6	
198.91	5354.1	
199.13	4115.1	
199.34	4114.4	
199.55	5898.1	
199.77	4789.5	
199.98	3638.6	
200.19	4223.6	
200.41	5409.4	
200.62	5060.5	
200.83	4332.1	
201.05	4629.1	
201.26	5399.8	
201.47	5130.2	
201.69	3640.6	
201.9	3558.7	
202.11	5517.2	
202.33	6537.1	
202.54	3930.7	
202.76	4369.7	
202.97	5618.3	
203.18	5586.2	
203.4	4375.8	
203.61	4175.8	
203.82	5530.9	
204.04	5105.6	
204.25	4203.8	
204.46	4113	
204.68	5470.1	
204.89	5773.2	
205.1	4059.1	
205.32	3472.7	
205.53	5930.2	
205.74	6044.2	
205.96	2996.2	
206.17	4303.5	
206.38	5844.9	
206.6	6023.8	
206.81	4782	
207.02	3907.5	
207.24	5726.1	
207.45	6188.3	
207.66	3916.4	
207.88	3338.9	
208.09	5701.5	
208.3	5489.2	
208.52	3617.4	
208.73	4009.2	
208.94	5482.4	
209.15	6229.9	
209.37	3939.6	
209.58	4199	
209.79	6028.5	
210.01	5243.5	
210.22	3188	
210.43	3254.2	
210.65	5431.2	
210.86	5969.1	
211.07	4007.2	
211.29	3646.7	
211.5	5869.5	
211.71	5417.6	
211.93	3603.1	
212.14	3634.5	
212.35	5454.4	
212.56	5689.3	
212.78	4182	
212.99	3461.7	
213.2	6471.6	
213.42	5260.5	
213.63	3680.9	
213.84	4090.5	
214.06	4863.2	
214.27	4933.6	
214.48	3896.6	
214.69	4227.7	
214.91	6164.4	
215.12	6256.5	
215.33	4274.8	
215.55	4625.7	
215.76	6761.7	
215.97	5915.2	
216.18	4097.3	
216.4	4007.2	
216.61	5150	
216.82	5945.3	
217.04	3643.3	
217.25	3751.9	
217.46	6195.1	
217.67	5894.1	
217.89	3212.6	
218.1	3370.3	
218.31	5540.4	
218.53	5680.4	
218.74	3866.6	
218.95	3704.1	
219.16	5390.3	
219.38	6376.7	
219.59	3741.6	
219.8	4482.3	
220.01	7157.7	
220.23	5558.2	
220.44	4843.4	
220.65	3581.2	
220.87	5502.9	
221.08	6161	
221.29	3345	
221.5	4558.8	
221.72	7597.3	
221.93	5229.1	
222.14	4229.7	
222.35	4897.4	
222.57	5532.9	
222.78	5920	
222.99	3907.5	
223.2	4274.8	
223.42	5823.7	
223.63	5881.8	
223.84	3024.2	
224.05	2991.4	
224.27	7047.1	
224.48	6426.5	
224.69	4882.4	
224.9	4162.8	
225.12	5712.5	
225.33	5435.3	
225.54	3306.1	
225.75	3704.8	
225.97	4997.7	
226.18	5319.3	
226.39	4047.5	
226.6	3725.3	
226.82	5273.5	
227.03	5147.9	
227.24	4228.4	
227.45	3424.2	
227.67	5918.6	
227.88	6430.6	
228.09	4673.5	
228.3	4689.2	
228.52	5934.3	
228.73	5433.3	
228.94	3848.8	
229.15	3423.5	
229.36	5395	
229.58	5313.8	
229.79	3929.4	
230	4542.4	
230.21	6524.1	
230.43	5579.3	
230.64	4074.1	
230.85	4323.3	
231.06	5913.2	
231.28	5965.7	
231.49	3364.8	
231.7	4031.8	
231.91	5820.3	
232.12	5551.4	
232.34	3494.5	
232.55	4061.8	
232.76	6118.6	
232.97	5727.5	
233.18	3645.4	
233.4	4117.1	
233.61	5717.9	
233.82	5200.5	
234.03	3806.5	
234.25	3736.9	
234.46	7597.3	
234.67	5517.2	
234.88	4273.4	
235.09	3687.7	
235.31	5776	
235.52	5359.5	
235.73	4132.8	
235.94	3503.4	
236.15	5249.6	
236.37	6664.8	
236.58	3630.4	
236.79	3983.3	
237	5780.7	
237.21	4992.3	
237.43	4281.6	
237.64	3346.4	
237.85	10054	
238.06	5001.8	
238.27	4369.7	
238.48	3461.1	
238.7	5862	
238.91	5324	
239.12	3919.8	
239.33	4036.5	
239.54	5216.9	
239.76	5395	
239.97	3869.3	
240.18	3921.9	
240.39	6939.9	
240.6	5741.1	
240.82	4083.6	
241.03	3366.9	
241.24	5486.5	
241.45	6410.8	
241.66	3622.9	
241.87	4291.9	
242.09	6225.1	
242.3	6631.3	
242.51	4330.1	
242.72	4005.8	
242.93	6008.7	
243.14	5416.2	
243.36	4549.2	
243.57	5015.5	
243.78	6364.4	
243.99	5915.9	
244.2	3980.6	
244.41	3601.7	
244.63	5040.1	
244.84	5841.5	
245.05	4257.7	
245.26	4020.8	
245.47	5837.4	
245.68	6042.2	
245.9	5266	
246.11	4170.3	
246.32	5287.9	
246.53	5717.9	
246.74	6457.2	
246.95	3350.5	
247.16	4947.2	
247.38	5459.9	
247.59	3278.1	
247.8	4005.1	
248.01	5124	
248.22	5398.4	
248.43	3588	
248.64	3867.2	
248.86	4831.8	
249.07	5216.2	
249.28	3458.3	
249.49	4078.2	
249.7	6084.5	
249.91	6191	
250.12	3311.6	
250.34	3364.1	
250.55	5571.8	
250.76	5501.5	
250.97	4093.9	
251.18	4172.4	
251.39	6243.6	
251.6	5681.7	
251.81	4205.8	
252.03	4204.5	
252.24	5188.2	
252.45	5961	
252.66	3475.4	
252.87	4440	
253.08	5544.5	
253.29	7303.1	
253.5	3470.6	
253.72	4854.4	
253.93	5271.5	
254.14	6577.4	
254.35	3753.9	
254.56	3886.4	
254.77	5733.6	
254.98	5031.9	
255.19	3762.8	
255.41	4820.2	
255.62	5588.2	
255.83	6161.7	
256.04	4301.4	
256.25	4119.8	
256.46	6841.6	
256.67	5169.8	
256.88	4088.4	
257.09	4561.5	
257.31	5154.7	
257.52	5223	
257.73	5161.6	
257.94	3749.1	
258.15	5320.6	
258.36	5492	
258.57	4747.2	
258.78	2993.4	
258.99	5993	
259.2	5283.8	
259.41	3781.2	
259.63	3870	
259.84	6314.6	
260.05	6788.3	
260.26	5031.2	
260.47	3649.5	
260.68	6112.5	
260.89	5404.6	
261.1	4573.1	
261.31	3571.7	
261.52	6100.9	
261.73	6483.2	
261.95	4873.5	
262.16	4359.4	
262.37	6223.8	
262.58	6277	
262.79	4892.6	
263	3893.2	
263.21	5589.6	
263.42	5019.6	
263.63	3852.9	
263.84	3860.4	
264.05	6087.2	
264.26	6504.3	
264.47	4715.1	
264.69	4290.5	
264.9	6190.3	
265.11	5647.6	
265.32	3679.5	
265.53	3717.7	
265.74	5649	
265.95	4902.2	
266.16	4071.4	
266.37	4446.1	
266.58	5640.8	
266.79	5236.7	
267	3768.9	
267.21	3421.5	
267.42	5036.6	
267.63	5469.4	
267.84	3933.5	
268.06	3378.5	
268.27	5922	
268.48	6285.9	
268.69	3826.3	
268.9	4599.1	
269.11	6184.2	
269.32	4912.4	
269.53	4003.1	
269.74	3685.7	
269.95	5870.8	
270.16	4874.2	
270.37	3999.7	
270.58	4668	
270.79	5320.6	
271	6040.1	
271.21	4181.3	
271.42	4022.9	
271.63	5623.7	
271.84	5195	
272.05	3120.4	
272.26	3586	
272.47	5499.5	
272.68	5699.5	
272.89	3801	
273.11	4484.4	
273.32	5269.4	
273.53	6554.9	
273.74	4340.3	
273.95	4161.5	
274.16	6168.5	
274.37	5578.7	
274.58	4348.5	
274.79	3491.8	
275	5612.1	
275.21	6250.4	
275.42	5317.2	
275.63	4507.6	
275.84	5795.8	
276.05	7303.1	
276.26	4187.4	
276.47	3958.7	
276.68	5384.1	
276.89	6614.9	
277.1	4453.6	
277.31	3480.9	
277.52	5765	
277.73	5872.2	
277.94	3420.8	
278.15	3863.8	
278.36	5735.7	
278.57	5145.9	
278.78	3751.2	
278.99	4345.1	
279.2	5102.9	
279.41	5094	
279.62	5033.9	
279.83	3493.8	
280.04	6720.1	
280.25	4996.4	
280.46	4985.4	
280.67	4005.8	
280.88	5067.4	
281.09	6194.4	
281.3	4171	
281.51	5242.1	
281.72	5226.4	
281.93	6065.4	
282.14	3657.7	
282.35	3979.9	
282.56	5988.3	
282.77	6006.7	
282.98	3829	
283.19	4777.2	
283.4	7419.1	
283.61	5417.6	
283.82	3468.6	
284.03	4945.8	
284.24	5601.2	
284.45	6146	
284.66	4951.3	
284.87	4726	
285.08	6028.5	
285.29	6229.2	
285.5	3366.2	
285.71	3898	
285.92	6169.8	
286.12	6769.2	
286.33	4936.3	
286.54	3842	
286.75	5991.7	
286.96	5339.7	
287.17	3523.2	
287.38	4896.7	
287.59	5120.6	
287.8	5062.6	
288.01	3891.8	
288.22	4526.7	
288.43	6049.7	
288.64	5028.4	
288.85	4628.4	
289.06	4344.4	
289.27	5963	
289.48	6472.3	
289.69	4937	
289.9	4452.3	
290.11	6142.5	
290.32	5201.8	
290.53	4694.6	
290.74	4303.5	
290.94	5959.6	
291.15	6044.9	
291.36	3754.6	
291.57	4457.7	
291.78	5231.2	
291.99	4893.3	
292.2	3557.3	
292.41	4326	
292.62	6107.7	
292.83	5847	
293.04	5337.7	
293.25	3618.8	
293.46	5288.5	
293.67	6128.9	
293.88	3756	
294.09	3577.8	
294.29	5029.8	
294.5	5655.8	
294.71	3978.5	
294.92	3827	
295.13	5271.5	
295.34	6701.6	
295.55	3343	
295.76	3412.6	
295.97	5923.4	
296.18	6724.2	
296.39	3513.6	
296.6	3745.7	
296.81	5631.9	
297.01	5986.9	
297.22	3876.1	
297.43	3687.7	
297.64	5087.2	
297.85	5150.6	
298.06	3035.1	
298.27	3335.5	
298.48	5507.7	
298.69	5171.1	
298.9	4049.5	
299.11	3657	
299.31	5036	
299.52	5038.7	
299.73	4296.6	
299.94	4298	
300.15	5498.1	
300.36	5122.7	
300.57	4264.6	
300.78	4252.3	
300.99	5408	
301.2	5649.7	
301.4	3650.8	
301.61	4036.5	
301.82	5787.6	
302.03	5945.9	
302.24	4561.5	
302.45	3547.8	
302.66	5786.9	
302.87	6307.1	
303.08	3730.7	
303.29	5121.3	
303.49	5266	
303.7	5560.2	
303.91	3299.3	
304.12	4825	
304.33	5011.4	
304.54	5675.6	
304.75	3728	
304.96	3599.6	
305.16	5780.7	
305.37	6662	
305.58	3248.1	
305.79	3371	
306	5866.1	
306.21	4885.8	
306.42	3765.5	
306.63	5857.9	
306.83	5349.3	
307.04	6126.8	
307.25	4131.4	
307.46	4108.2	
307.67	4721.3	
307.88	5994.4	
308.09	3666.5	
308.29	3796.9	
308.5	5537	
308.71	6075	
308.92	4035.9	
309.13	3638.6	
309.34	5360.9	
309.55	5436.7	
309.75	4618.9	
309.96	4300.1	
310.17	5943.2	
310.38	5210	
310.59	4489.8	
310.8	4197.7	
311.01	5326.8	
311.21	5391.6	
311.42	3506.8	
311.63	3649.5	
311.84	5189.6	
312.05	5685.2	
312.26	4154.6	
312.46	4525.3	
312.67	5315.8	
312.88	5005.2	
313.09	3615.3	
313.3	3516.4	
313.51	6293.4	
313.71	6731.7	
313.92	3541.6	
314.13	3812.6	
314.34	5702.9	
314.55	5387.5	
314.76	4660.5	
314.96	4068.6	
315.17	5534.3	
315.38	5937.7	
315.59	3570.3	
315.8	3489.1	
316.01	6397.2	
316.21	6435.4	
316.42	3465.8	
316.63	3968.3	
316.84	5361.6	
317.05	6225.1	
317.26	4349.9	
317.46	3786	
317.67	5423	
317.88	5921.4	
318.09	4591.5	
318.3	3358	
318.5	5199.8	
318.71	5806.7	
318.92	5837.4	
319.13	4227.7	
319.34	5976	
319.54	6157.6	
319.75	3341.6	
319.96	3221.5	
320.17	5859.2	
320.38	6010.1	
320.58	3293.8	
320.79	3953.3	
321	6160.3	
321.21	6166.4	
321.42	4001	
321.62	3294.5	
321.83	5111	
322.04	5522.7	
322.25	3798.3	
322.46	3638.6	
322.66	5625.8	
322.87	5792.3	
323.08	4519.9	
323.29	3553.9	
323.5	6606.7	
323.7	5005.2	
323.91	4923.3	
324.12	4440	
324.33	5586.9	
324.53	5851	
324.74	4259.1	
324.95	4439.3	
325.16	4862.6	
325.37	5331.5	
325.57	3611.9	
325.78	3696.6	
325.99	5546.6	
326.2	5025.7	
326.4	5089.9	
326.61	3315.7	
326.82	5473.5	
327.03	5616.9	
327.24	5216.2	
327.44	4956.1	
327.65	5726.1	
327.86	4618.9	
328.07	4232.5	
328.27	3455.6	
328.48	6195.1	
328.69	5090.6	
328.9	5214.8	
329.1	3846.1	
329.31	5382.1	
329.52	6382.8	
329.73	3623.5	
329.93	4087.7	
330.14	5501.5	
330.35	5769.1	
330.56	6032.6	
330.76	4455	
330.97	5307	
331.18	5682.4	
331.39	3992.9	
331.59	3271.3	
331.8	6156.2	
332.01	6224.5	
332.22	3776.5	
332.42	4272.1	
332.63	5627.8	
332.84	5228.5	
333.05	4069.3	
333.25	3650.2	
333.46	5288.5	
333.67	5503.6	
333.88	3803.1	
334.08	4134.2	
334.29	7434.1	
334.5	6193.1	
334.7	3536.2	
334.91	5186.8	
335.12	5079.6	
335.33	5979.4	
335.53	3966.2	
335.74	5974.6	
335.95	5271.5	
336.16	5130.2	
336.36	3994.2	
336.57	4644.1	
336.78	5056.4	
336.98	6150.7	
337.19	4976.6	
337.4	3931.4	
337.61	6621.1	
337.81	5048.9	
338.02	3678.8	
338.23	4810	
338.43	6315.9	
338.64	5138.4	
338.85	3627	
339.05	4777.2	
339.26	6371.9	
339.47	4898.7	
339.68	3618.8	
339.88	5443.5	
340.09	5779.4	
340.3	5960.3	
340.5	4267.3	
340.71	3214.6	
340.92	4988.9	
341.13	6268.8	
341.33	3549.1	
341.54	4313	
341.75	5730.9	
341.95	5374.6	
342.16	4107.5	
342.37	4453.6	
342.57	5091.3	
342.78	5441.5	
342.99	4610	
343.19	3224.2	
343.4	5957.5	
343.61	5726.1	
343.81	3843.4	
344.02	3537.5	
344.23	5971.2	
344.43	6333.7	
344.64	4494.6	
344.85	4425	
345.06	5828.5	
345.26	6114.6	
345.47	4141	
345.68	4941.1	
345.88	4909.7	
346.09	6040.8	
346.3	4293.2	
346.5	3214.6	
346.71	5443.5	
346.92	5187.5	
347.12	3307.5	
347.33	4201.7	
347.54	6142.5	
347.74	6483.9	
347.95	4143.7	
348.16	3062.4	
348.36	5222.3	
348.57	5051.7	
348.78	4164.9	
348.98	4446.8	
349.19	5470.8	
349.39	4960.9	
349.6	3263.1	
349.81	3642.7	
350.01	5748	
350.22	5223.7	
350.43	3996.3	
350.63	4841.4	
350.84	5507.7	
351.05	5272.8	
351.25	3585.3	
351.46	3259.7	
351.67	6080.4	
351.87	5175.2	
352.08	3812.6	
352.29	4420.9	
352.49	5895.4	
352.7	5659.9	
352.9	3519.8	
353.11	4315.8	
353.32	6701	
353.52	5286.5	
353.73	3488.4	
353.94	4457.1	
354.14	5771.9	
354.35	5606.7	
354.55	3568.9	
354.76	3908.2	
354.97	5757.5	
355.17	5527.5	
355.38	3367.5	
355.59	4678.2	
355.79	5136.3	
356	5612.8	
356.2	3927.3	
356.41	3374.4	
356.62	4828.4	
356.82	5310.4	
357.03	4184	
357.24	3820.1	
357.44	5177.9	
357.65	5282.4	
357.85	5087.2	
358.06	3973.7	
358.27	4879.6	
358.47	5102.2	
358.68	3296.5	
358.88	4193.6	
359.09	5681.1	
359.3	6088.6	
359.5	4915.8	
359.71	4365.6	
359.91	6578.1	
360.12	5941.2	
360.33	4140.3	
360.53	4681.7	
360.74	5083.7	
360.94	5199.8	
361.15	4407.2	
361.36	3561.4	
361.56	5896.1	
361.77	5345.9	
361.97	4904.2	
362.18	3807.2	
362.38	5911.8	
362.59	4947.2	
362.8	3435.1	
363	3279.5	
363.21	4772.4	
363.41	5470.1	
363.62	4019.5	
363.83	5123.3	
364.03	5484.5	
364.24	6516.6	
364.44	5141.1	
364.65	4928.8	
364.85	5251	
365.06	4871.4	
365.27	3642.7	
365.47	3694.5	
365.68	6323.4	
365.88	5236	
366.09	4041.3	
366.29	3710.2	
366.5	5532.9	
366.71	5921.4	
366.91	5066	
367.12	4240	
367.32	6499.6	
367.53	5686.5	
367.73	4140.3	
367.94	5126.7	
368.14	5725.4	
368.35	6678.4	
368.56	4107.5	
368.76	3659.7	
368.97	5773.9	
369.17	7574.8	
369.38	3620.1	
369.58	3974.4	
369.79	4825.7	
369.99	6199.2	
370.2	4863.9	
370.4	4050.9	
370.61	5573.9	
370.82	6772.6	
371.02	3814	
371.23	3163.4	
371.43	4709.6	
371.64	6059.9	
371.84	3799.7	
372.05	5122.7	
372.25	7473.7	
372.46	5872.9	
372.66	3803.8	
372.87	3786	
373.07	5844.2	
373.28	7578.2	
373.48	4556	
373.69	4568.3	
373.9	5218.9	
374.1	5302.2	
374.31	4819.6	
374.51	4278.9	
374.72	6136.4	
374.92	4889.9	
375.13	4962.9	
375.33	4072.7	
375.54	5657.9	
375.74	4988.9	
375.95	4192.2	
376.15	5385.5	
376.36	5596.4	
376.56	5426.4	
376.77	4151.9	
376.97	4678.2	
377.18	6668.2	
377.38	5685.8	
377.59	4999.8	
377.79	3654.9	
378	5472.9	
378.2	5902.9	
378.41	3713	
378.61	3615.3	
378.82	5932.3	
379.02	4994.3	
379.23	3820.1	
379.43	5098.8	
379.64	6020.3	
379.84	5624.4	
380.05	3657	
380.25	3607.8	
380.46	5727.5	
380.66	5283.1	
380.87	5062.6	
381.07	5492	
381.28	6433.4	
381.48	5741.1	
381.69	3667.9	
381.89	3750.5	
382.1	4668	
382.3	5904.3	
382.51	4926.7	
382.71	5824.4	
382.91	5755.5	
383.12	6394.4	
383.32	4020.2	
383.53	4432.5	
383.73	5564.3	
383.94	5408	
384.14	4298.7	
384.35	3354.6	
384.55	5369.8	
384.76	5849.7	
384.96	4132.8	
385.17	4436.6	
385.37	5780.7	
385.58	5008	
385.78	4444.8	
385.98	3293.1	
386.19	5268.7	
386.39	5573.9	
386.6	3827	
386.8	4030.4	
387.01	5720.7	
387.21	5721.3	
387.42	4610	
387.62	5156.1	
387.83	5003.9	
388.03	5692.7	
388.23	4080.9	
388.44	4962.2	
388.64	4599.7	
388.85	4767.7	
389.05	4469.4	
389.26	5165.7	
389.46	6754.9	
389.67	6111.1	
389.87	4414.1	
390.07	4528.1	
390.28	5322.7	
390.48	4928.8	
390.69	3655.6	
390.89	3968.3	
391.1	5105.6	
391.3	6060.6	
391.5	5256.5	
391.71	5855.1	
391.91	5814.9	
392.12	6800.6	
392.32	5259.2	
392.53	4459.1	
392.73	5122.7	
392.93	5318.6	
393.14	4117.8	
393.34	4974.5	
393.55	5911.8	
393.75	5375.9	
393.95	4163.5	
394.16	4072.7	
394.36	5023	
394.57	5724.8	
394.77	3581.2	
394.98	4040.6	
395.18	4961.5	
395.38	5100.8	
395.59	4924	
395.79	3785.3	
396	5086.5	
396.2	5604.6	
396.4	4631.1	
396.61	4552	
396.81	5792.3	
397.02	4988.2	
397.22	4831.8	
397.42	4874.8	
397.63	5750	
397.83	4904.2	
398.04	3663.8	
398.24	4188.8	
398.44	5504.3	
398.65	4479.6	
398.85	3488.4	
399.05	3566.2	
399.26	4831.8	
399.46	6672.3	
399.67	4000.4	
399.87	3704.8	
400.07	5194.3	
400.28	5553.4	
400.48	3806.5	
400.69	4841.4	
400.89	5843.5	
401.09	6248.4	
401.3	3604.4	
401.5	4896.7	
401.7	6472.3	
401.91	6748.7	
402.11	3989.4	
402.32	4273.4	
402.52	5808.7	
402.72	5766.4	
402.93	4480.3	
403.13	3309.5	
403.33	6634.1	
403.54	5327.4	
403.74	4232.5	
403.94	5171.1	
404.15	5390.9	
404.35	6614.3	
404.56	4012.7	
404.76	5883.8	
404.96	5818.3	
405.17	5590.3	
405.37	5476.3	
405.57	4465.9	
405.78	5847	
405.98	5322.7	
406.18	3927.3	
406.39	4883.7	
406.59	5853.8	
406.79	5444.2	
407	3756	
407.2	3876.8	
407.4	5816.9	
407.61	6032.6	
407.81	3842	
408.01	6019.7	
408.22	4653	
408.42	6728.3	
408.62	4792.9	
408.83	4200.4	
409.03	5217.5	
409.23	5012.7	
409.44	4199.7	
409.64	4646.8	
409.84	6157.6	
410.05	5922	
410.25	4235.2	
410.45	4084.3	
410.66	5337	
410.86	7879.9	
411.06	4410.6	
411.27	4263.2	
411.47	7668.3	
411.67	5501.5	
411.88	4589.5	
412.08	4761.5	
412.28	6148	
412.49	6596.5	
412.69	4175.8	
412.89	4216.8	
413.09	6482.5	
413.3	6281.8	
413.5	4272.7	
413.7	3858.4	
413.91	5519.3	
414.11	6333.7	
414.31	4065.2	
414.52	4526.7	
414.72	6025.8	
414.92	5877	
415.12	4140.3	
415.33	4642.1	
415.53	6223.8	
415.73	6418.3	
415.94	4992.3	
416.14	4379.9	
416.34	5193.6	
416.55	4963.6	
416.75	5722.7	
416.95	5028.4	
417.15	6218.3	
417.36	6990.4	
417.56	5766.4	
417.76	4790.9	
417.97	6611.5	
418.17	6137.1	
418.37	4351.3	
418.57	4495.3	
418.78	6011.5	
418.98	5653.1	
419.18	5352	
419.38	5199.1	
419.59	5728.9	
419.79	5347.9	
419.99	4305.5	
420.2	4737	
420.4	6275	
420.6	6485.9	
420.8	4257.7	
421.01	4067.9	
421.21	6014.9	
421.41	6232.7	
421.61	4632.5	
421.82	4306.2	
422.02	5519.3	
422.22	6578.8	
422.42	5116.5	
422.63	4817.5	
422.83	5688.6	
423.03	6937.8	
423.23	4807.9	
423.44	3734.1	
423.64	5770.5	
423.84	5578.7	
424.04	4243.4	
424.25	3965.6	
424.45	6842.9	
424.65	6772.6	
424.85	3710.9	
425.06	4289.1	
425.26	6748.7	
425.46	5240.1	
425.66	4858.5	
425.87	4457.7	
426.07	6509.1	
426.27	6358.9	
426.47	4693.3	
426.67	3994.2	
426.88	6882.5	
427.08	6325.5	
427.28	4838	
427.48	3987.4	
427.69	5195	
427.89	5886.5	
428.09	4872.8	
428.29	4017.4	
428.5	6628.6	
428.7	6054.5	
428.9	3843.4	
429.1	4525.3	
429.3	5956.2	
429.51	6419	
429.71	4233.8	
429.91	5010.7	
430.11	6222.4	
430.31	6406.7	
430.52	4487.8	
430.72	4728.8	
430.92	6847	
431.12	6260.6	
431.32	4110.3	
431.53	4562.9	
431.73	5098.8	
431.93	6887.3	
432.13	4037.2	
432.33	3852.2	
432.54	5586.2	
432.74	6050.4	
432.94	3766.9	
433.14	4976.6	
433.34	6210.8	
433.55	5517.9	
433.75	4796.3	
433.95	6524.8	
434.15	5901.6	
434.35	5560.9	
434.56	4017.4	
434.76	3450.1	
434.96	5849	
435.16	6099.5	
435.36	3820.8	
435.56	4932.9	
435.77	5412.1	
435.97	5625.8	
436.17	5737	
436.37	4898.7	
436.57	5387.5	
436.78	5283.8	
436.98	6877.1	
437.18	5447.6	
437.38	6118	
437.58	5694	
437.78	5720.7	
437.99	4233.2	
438.19	6248.4	
438.39	7004.7	
438.59	4208.6	
438.79	3689.8	
438.99	6884.6	
439.2	5618.9	
439.4	3896.6	
439.6	3780.6	
439.8	5962.3	
440	7055.3	
440.2	4813.4	
440.4	4910.3	
440.61	6309.1	
440.81	6915.3	
441.01	3882.3	
441.21	4794.3	
441.41	6613.6	
441.61	6286.6	
441.81	5100.8	
442.02	6272.2	
442.22	7163.8	
442.42	6371.2	
442.62	3930.1	
442.82	4034.5	
443.02	6642.9	
443.22	5683.8	
443.43	4410	
443.63	3856.3	
443.83	5480.4	
444.03	5600.5	
444.23	5134.9	
444.43	4773.8	
444.63	5823.1	
444.83	7170.6	
445.04	3874.1	
445.24	5330.9	
445.44	6304.3	
445.64	6331.6	
445.84	4911.7	
446.04	4834.6	
446.24	5634	
446.44	6685.3	
446.65	4085	
446.85	4488.5	
447.05	6058.6	
447.25	6685.3	
447.45	4517.1	
447.65	3858.4	
447.85	5965.1	
448.05	5653.1	
448.25	5039.4	
448.46	4750.6	
448.66	5956.9	
448.86	5687.2	
449.06	3685.7	
449.26	4997	
449.46	6321.4	
449.66	5305.6	
449.86	4379.9	
450.06	4403.1	
450.26	5446.2	
450.47	6079.7	
450.67	4711	
450.87	5078.3	
451.07	6182.8	
451.27	6004	
451.47	3959.4	
451.67	4467.3	
451.87	5546.6	
452.07	6855.2	
452.27	4138.9	
452.47	4205.8	
452.67	5947.3	
452.88	6520.7	
453.08	3523.9	
453.28	5700.9	
453.48	7110.5	
453.68	5951.4	
453.88	4060.4	
454.08	4343.7	
454.28	6252.4	
454.48	5859.2	
454.68	4905.6	
454.88	5464	
455.08	6335	
455.28	5969.8	
455.48	3912.3	
455.68	4503.5	
455.89	6811.5	
456.09	6350.1	
456.29	4268.6	
456.49	4186	
456.69	6548	
456.89	5848.3	
457.09	4758.8	
457.29	5027.8	
457.49	6158.2	
457.69	6229.2	
457.89	4427.7	
458.09	3873.4	
458.29	5809.4	
458.49	6559.6	
458.69	4873.5	
458.89	4259.1	
459.09	6794.5	
459.29	6972	
459.49	4416.8	
459.69	5272.8	
459.9	6362.4	
460.1	5705.6	
460.3	4331.5	
460.5	4027	
460.7	6217	
460.9	5956.9	
461.1	3691.1	
461.3	5016.8	
461.5	6862.7	
461.7	6416.3	
461.9	3988.8	
462.1	4515.1	
462.3	5810.8	
462.5	6527.6	
462.7	4025.6	
462.9	4130.8	
463.1	7520.8	
463.3	7082.6	
463.5	4211.3	
463.7	5244.8	
463.9	5933.6	
464.1	6419	
464.3	4307.6	
464.5	4642.1	
464.7	6621.1	
464.9	6182.1	
465.1	6057.2	
465.3	4869.4	
465.5	7000.6	
465.7	6879.8	
465.9	5190.9	
466.1	5112.4	
466.3	6681.8	
466.5	6578.8	
466.7	5746.6	
466.9	4771.1	
467.1	6408.1	
467.3	7415	
467.5	5723.4	
467.7	4532.2	
467.9	7630.7	
468.1	8575.5	
468.3	5452.4	
468.5	5798.5	
468.7	6324.1	
468.9	6337.8	
469.1	4918.5	
469.3	5580.7	
469.5	8318.8	
469.7	5754.1	
469.9	5457.8	
470.1	4529.4	
470.3	6309.8	
470.5	6322.1	
470.7	5893.4	
470.9	4696.7	
471.1	5995.8	
471.3	6602	
471.5	4440.7	
471.69	6541.2	
471.89	6037.4	
472.09	5561.6	
472.29	5371.8	
472.49	5812.8	
472.69	5760.3	
472.89	6636.1	
473.09	4412.7	
473.29	4640.7	
473.49	5902.9	
473.69	6108.4	
473.89	5651	
474.09	4788.8	
474.29	7406.1	
474.49	7088	
474.69	5550.7	
474.89	4925.4	
475.09	6128.9	
475.29	6130.9	
475.49	4328.7	
475.69	4575.8	
475.88	7869	
476.08	6412.2	
476.28	4234.5	
476.48	4814.8	
476.68	6969.2	
476.88	6784.2	
477.08	4578.6	
477.28	4988.9	
477.48	6314.6	
477.68	7045	
477.88	4414.7	
478.08	4782	
478.28	7234.8	
478.48	6449.7	
478.67	4821.6	
478.87	4289.8	
479.07	7058.7	
479.27	6582.9	
479.47	5112.4	
479.67	5063.9	
479.87	6918	
480.07	7428	
480.27	4318.5	
480.47	6040.8	
480.67	6549.4	
480.87	7171.3	
481.06	4565.6	
481.26	5500.8	
481.46	6415.6	
481.66	6459.3	
481.86	5027.1	
482.06	6170.5	
482.26	6146.6	
482.46	7301	
482.66	5017.5	
482.86	4532.8	
483.05	6528.9	
483.25	5901.6	
483.45	7545.4	
483.65	4934.2	
483.85	6078.4	
484.05	6318.7	
484.25	5488.6	
484.45	5806.7	
484.65	7273.7	
484.84	7189.7	
485.04	4850.3	
485.24	4854.4	
485.44	7500.3	
485.64	5745.9	
485.84	4025.6	
486.04	5552	
486.24	6113.2	
486.44	6640.9	
486.63	3999	
486.83	4846.2	
487.03	5947.3	
487.23	6171.2	
487.43	4079.6	
487.63	6614.9	
487.83	6171.9	
488.02	7231.4	
488.22	5012.7	
488.42	5757.5	
488.62	7117.4	
488.82	6012.8	
489.02	4700.8	
489.22	4728.8	
489.41	7034.8	
489.61	6551.5	
489.81	4471.4	
490.01	4500.8	
490.21	6876.4	
490.41	7598.6	
490.61	4450.2	
490.8	4630.5	
491	6331.6	
491.2	5722	
491.4	5274.2	
491.6	4237.9	
491.8	6370.5	
491.99	6619.7	
492.19	4180.6	
492.39	4627	
492.59	6954.2	
492.79	6926.2	
492.99	5386.2	
493.18	4420.9	
493.38	6976.1	
493.58	7695.6	
493.78	5111	
493.98	4749.9	
494.18	6612.2	
494.37	6021	
494.57	5188.9	
494.77	5142.4	
494.97	6716	
495.17	6916.7	
495.37	4584.7	
495.56	4922.6	
495.76	7154.9	
495.96	6728.3	
496.16	5896.1	
496.36	4680.3	
496.55	6885.3	
496.75	6402.6	
496.95	5152.7	
497.15	4950.6	
497.35	6840.9	
497.54	6803.4	
497.74	4693.3	
497.94	6481.1	
498.14	7535.2	
498.34	7359	
498.53	4349.9	
498.73	5230.5	
498.93	6165.8	
499.13	6842.3	
499.33	4922	
499.52	5582.8	
499.72	6694.1	
499.92	7086.7	
500.12	4596.3	
500.32	4820.9	
500.51	6922.1	
500.71	6751.5	
500.91	5736.4	
501.11	5410.7	
501.31	6815	
501.5	7357.7	
501.7	6005.3	
501.9	4934.9	
502.1	6744.6	
502.29	7102.4	
502.49	5372.5	
502.69	6002.6	
502.89	6924.9	
503.09	6944.7	
503.28	4504.2	
503.48	4577.9	
503.68	6146.6	
503.88	6227.9	
504.07	5672.9	
504.27	5130.2	
504.47	6625.9	
504.67	6847	
504.86	5593	
505.06	5332.9	
505.26	6306.4	
505.46	8178.9	
505.65	5161.6	
505.85	5401.9	
506.05	6285.9	
506.25	6780.8	
506.44	4545.8	
506.64	5586.9	
506.84	6171.9	
507.04	7290.8	
507.23	4796.3	
507.43	5434.6	
507.63	8426	
507.83	6537.1	
508.02	5370.5	
508.22	5023	
508.42	8622.6	
508.62	6262	
508.81	5365.7	
509.01	5818.3	
509.21	6171.2	
509.4	6437.4	
509.6	5558.9	
509.8	4793.6	
510	6434.7	
510.19	7880.6	
510.39	4847.5	
510.59	4899.4	
510.79	6184.9	
510.98	7605.5	
511.18	4918.5	
511.38	5066.7	
511.57	6999.3	
511.77	6918	
511.97	5845.6	
512.17	4758.8	
512.36	7090.1	
512.56	7112.6	
512.76	4773.1	
512.95	4588.1	
513.15	7185.6	
513.35	5792.3	
513.55	5784.8	
513.74	4845.5	
513.94	7187	
514.14	6528.2	
514.33	5826.5	
514.53	5517.2	
514.73	6399.9	
514.92	6666.8	
515.12	5003.2	
515.32	4732.9	
515.51	6744.6	
515.71	7366.5	
515.91	6701	
516.11	4875.5	
516.3	8489.5	
516.5	6341.9	
516.7	5468.1	
516.89	6115.9	
517.09	6463.4	
517.29	6347.3	
517.48	5726.1	
517.68	5164.3	
517.88	6141.9	
518.07	6875.7	
518.27	5724.1	
518.47	4689.2	
518.66	7474.4	
518.86	6024.4	
519.06	4439.3	
519.25	5016.2	
519.45	6380.1	
519.65	7878.5	
519.84	5614.2	
520.04	6464.1	
520.24	8292.9	
520.43	7052.5	
520.63	5419.6	
520.83	5081.7	
521.02	6312.5	
521.22	6936.5	
521.42	5796.4	
521.61	6222.4	
521.81	6533	
522.01	6724.8	
522.2	5534.3	
522.4	5269.4	
522.6	7209.5	
522.79	5885.9	
522.99	5347.2	
523.18	4556	
523.38	6857.3	
523.58	6769.9	
523.77	6546	
523.97	4494.6	
524.17	8680.7	
524.36	7836.2	
524.56	5863.3	
524.76	5483.8	
524.95	6741.2	
525.15	6361	
525.34	5213.4	
525.54	5176.6	
525.74	7019.8	
525.93	5993	
526.13	6459.3	
526.33	5135.6	
526.52	7372	
526.72	6782.9	
526.91	6441.5	
527.11	5639.4	
527.31	7351.5	
527.5	7730.4	
527.7	5423.7	
527.89	4497.3	
528.09	6186.9	
528.29	6666.8	
528.48	5936.4	
528.68	5545.2	
528.87	7185.6	
529.07	7266.9	
529.27	5464.7	
529.46	4967.7	
529.66	6822.5	
529.85	7282.6	
530.05	4755.4	
530.25	5658.5	
530.44	8271.7	
530.64	6779.5	
530.83	5208	
531.03	5421.7	
531.23	7131.7	
531.42	7099.6	
531.62	6279.8	
531.81	5365	
532.01	7291.5	
532.21	7799.3	
532.4	5031.2	
532.6	5352.7	
532.79	8146.8	
532.99	7262.1	
533.18	5379.3	
533.38	6481.8	
533.58	6738.5	
533.77	7615	
533.97	5332.2	
534.16	6239.5	
534.36	7756.3	
534.55	6748.1	
534.75	6431.3	
534.95	5437.4	
535.14	7565.9	
535.34	6782.2	
535.53	5099.4	
535.73	7159.7	
535.92	8140.7	
536.12	6993.8	
536.31	5176.6	
536.51	6471.6	
536.71	7291.5	
536.9	6877.8	
537.1	5443.5	
537.29	5466	
537.49	7742.7	
537.68	6812.9	
537.88	6011.5	
538.07	5102.2	
538.27	6959.7	
538.46	8053.3	
538.66	5049.6	
538.86	5390.9	
539.05	7037.5	
539.25	7471.7	
539.44	5641.5	
539.64	5366.4	
539.83	6858.6	
540.03	7946.8	
540.22	5169.1	
540.42	5337.7	
540.61	7246.4	
540.81	7278.5	
541	5902.2	
541.2	6516.6	
541.39	6670.9	
541.59	7189.1	
541.78	6214.9	
541.98	5337	
542.18	6401.3	
542.37	6384.2	
542.57	5741.1	
542.76	6147.3	
542.96	6505	
543.15	7412.3	
543.35	5771.2	
543.54	5114.5	
543.74	7681.9	
543.93	7159.7	
544.13	5793	
544.32	7053.2	
544.52	7522.9	
544.71	6705.7	
544.91	4924	
545.1	6255.9	
545.3	6679.8	
545.49	7466.9	
545.69	4844.8	
545.88	5473.5	
546.08	8422.6	
546.27	8104.5	
546.47	6055.2	
546.66	5244.2	
546.86	7737.9	
547.05	8358.4	
547.24	5520	
547.44	5467.4	
547.63	6680.5	
547.83	7894.9	
548.02	5797.8	
548.22	5978	
548.41	6481.8	
548.61	7888.1	
548.8	5332.9	
549	5286.5	
549.19	7174.7	
549.39	7525.6	
549.58	5036.6	
549.78	5677	
549.97	7572.7	
550.17	7120.1	
550.36	6609.5	
550.55	7715.4	
550.75	7058	
550.94	8085.4	
551.14	5337.7	
551.33	5781.4	
551.53	6443.6	
551.72	7494.9	
551.92	5872.2	
552.11	5518.6	
552.31	7520.1	
552.5	7638.2	
552.69	7335.1	
552.89	5121.3	
553.08	7460.8	
553.28	7096.2	
553.47	5601.9	
553.67	6837.5	
553.86	8191.9	
554.06	6507.8	
554.25	4760.8	
554.44	5408	
554.64	8985.1	
554.83	8427.4	
555.03	5298.1	
555.22	5698.1	
555.42	7677.8	
555.61	7365.9	
555.8	5610.1	
556	5868.1	
556.19	6509.1	
556.39	7899.7	
556.58	5590.3	
556.78	5627.1	
556.97	7348.8	
557.16	7020.4	
557.36	6902.3	
557.55	5168.4	
557.75	6310.5	
557.94	8085.4	
558.13	5407.3	
558.33	5130.2	
558.52	7895.6	
558.72	6746.7	
558.91	5228.5	
559.1	5492.7	
559.3	6496.8	
559.49	6165.8	
559.69	4790.9	
559.88	5913.2	
560.07	7335.8	
560.27	7755.7	
560.46	5982.8	
560.66	6303.6	
560.85	7133.1	
561.04	6326.2	
561.24	5261.9	
561.43	5573.9	
561.63	6597.9	
561.82	6899.6	
562.01	6815.6	
562.21	5767.8	
562.4	7271	
562.59	8310	
562.79	5580	
562.98	5261.9	
563.18	7186.3	
563.37	8730.5	
563.56	6122.1	
563.76	5089.9	
563.95	6684.6	
564.14	6561	
564.34	5543.9	
564.53	5332.2	
564.73	7197.2	
564.92	7521.5	
565.11	5694	
565.31	5029.1	
565.5	7802.8	
565.69	6683.2	
565.89	5306.3	
566.08	5585.5	
566.27	7684	
566.47	8032.1	
566.66	6192.4	
566.85	4814.1	
567.05	7194.5	
567.24	6625.2	
567.44	5137	
567.63	6593.1	
567.82	7426.6	
568.02	7169.3	
568.21	5174.5	
568.4	5588.2	
568.6	6943.3	
568.79	6986.3	
568.98	5007.3	
569.18	5158.2	
569.37	6914.6	
569.56	9084.1	
569.76	5515.2	
569.95	6507.8	
570.14	7329.7	
570.34	7242.3	
570.53	5013.4	
570.72	5030.5	
570.91	7844.4	
571.11	6867.5	
571.3	5561.6	
571.49	6518.7	
571.69	6970.6	
571.88	6547.4	
572.07	5999.9	
572.27	6055.2	
572.46	6539.8	
572.65	7610.3	
572.85	5277.6	
573.04	5594.4	
573.23	7779.6	
573.43	7053.2	
573.62	4955.4	
573.81	5667.4	
574	6998.6	
574.2	6850.5	
574.39	5291.3	
574.58	5486.5	
574.78	7897	
574.97	7046.4	
575.16	5824.4	
575.36	6020.3	
575.55	7469.6	
575.74	7617.8	
575.93	4885.8	
576.13	5945.3	
576.32	6818.4	
576.51	7421.8	
576.71	5345.2	
576.9	6723.5	
577.09	7794.6	
577.28	7296.9	
577.48	5857.2	
577.67	4773.8	
577.86	6890	
578.05	7258	
578.25	5489.2	
578.44	5639.4	
578.63	6974	
578.83	8218.5	
579.02	4900.8	
579.21	6408.8	
579.4	7321.5	
579.6	6838.9	
579.79	5606	
579.98	7983	
580.17	7595.2	
580.37	7658.7	
580.56	5020.3	
580.75	5902.2	
580.94	8158.4	
581.14	7963.9	
581.33	6313.2	
581.52	5236	
581.71	7373.4	
581.91	8125.7	
582.1	4867.3	
582.29	5595.7	
582.48	7012.2	
582.68	6953.5	
582.87	6003.3	
583.06	5635.3	
583.25	7319.4	
583.45	6657.9	
583.64	6301.6	
583.83	6999.3	
584.02	6792.4	
584.21	7316.7	
584.41	6294.8	
584.6	5537	
584.79	6997.2	
584.98	7826	
585.18	4913.8	
585.37	4946.5	
585.56	6463.4	
585.75	7380.9	
585.94	5349.3	
586.14	5929.6	
586.33	8101.8	
586.52	6978.1	
586.71	5796.4	
586.91	5565	
587.1	6430.6	
587.29	7470.3	
587.48	5436.7	
587.67	5345.2	
587.87	7438.2	
588.06	7486.7	
588.25	6767.9	
588.44	6012.8	
588.63	7075	
588.83	7767.9	
589.02	5529.5	
589.21	5397.1	
589.4	6921.5	
589.59	6754.9	
589.78	4795	
589.98	5075.5	
590.17	6480.5	
590.36	7132.4	
590.55	4465.3	
590.74	5461.9	
590.94	8640.4	
591.13	7113.3	
591.32	5140.4	
591.51	4696.7	
591.7	7604.8	
591.89	7034.8	
592.09	4760.2	
592.28	5335.6	
592.47	6229.9	
592.66	8160.5	
592.85	4771.1	
593.05	5053	
593.24	6736.5	
593.43	7675.1	
593.62	5003.9	
593.81	5568.4	
594	6871.6	
594.19	7036.1	
594.39	4982.7	
594.58	5016.2	
594.77	7232.1	
594.96	7845.8	
595.15	4896	
595.34	5662	
595.54	7408.9	
595.73	6326.9	
595.92	4332.8	
596.11	5577.3	
596.3	7822.6	
596.49	6411.5	
596.68	5307.7	
596.88	5745.9	
597.07	7454.6	
597.26	6198.5	
597.45	4762.9	
597.64	6083.1	
597.83	6470.2	
598.02	7172	
598.22	4910.3	
598.41	5595.7	
598.6	6953.5	
598.79	6392.4	
598.98	4869.4	
599.17	5864.7	
599.36	6982.2	
599.55	8263.6	
599.74	7074.4	
599.94	6787.7	
600.13	7622.5	
600.32	6367.1	
600.51	4663.9	
600.7	4792.9	
600.89	8264.9	
601.08	8273.1	
601.27	4632.5	
601.47	5634	
601.66	7560.4	
601.85	8170.7	
602.04	5302.2	
602.23	5558.9	
602.42	6528.9	
602.61	7144	
602.8	5289.2	
602.99	5083.7	
603.18	6909.8	
603.37	7079.1	
603.57	5730.9	
603.76	6249	
603.95	7996	
604.14	7413.6	
604.33	5094.7	
604.52	5423	
604.71	7075	
604.9	6737.1	
605.09	6105.7	
605.28	5922.7	
605.47	7666.9	
605.66	7344	
605.86	5653.1	
606.05	5128.8	
606.24	7669.6	
606.43	6212.2	
606.62	5408.7	
606.81	6364.4	
607	7615	
607.19	6798.6	
607.38	4879.6	
607.57	5172.5	
607.76	6645	
607.95	6086.6	
608.14	5530.9	
608.33	6150.1	
608.52	6670.9	
608.72	7563.8	
608.91	4817.5	
609.1	4702.1	
609.29	6746.7	
609.48	6265.4	
609.67	5677	
609.86	4838	
610.05	6340.5	
610.24	6804.7	
610.43	4644.8	
610.62	4183.3	
610.81	7963.9	
611	7619.8	
611.19	4783.4	
611.38	5499.5	
611.57	7017.7	
611.76	8446.5	
611.95	4545.8	
612.14	4487.8	
612.33	6858	
612.52	6308.4	
612.71	5124	
612.9	4244.1	
613.09	5929.6	
613.28	8374.8	
613.47	4876.9	
613.66	5915.9	
613.85	6983.6	
614.04	6441.5	
614.24	4995.7	
614.43	4188.8	
614.62	7066.9	
614.81	6982.2	
615	5534.3	
615.19	5539.8	
615.38	6283.2	
615.57	6705	
615.76	5450.3	
615.95	6346	
616.14	7150.1	
616.33	6748.7	
616.52	5692.7	
616.71	6016.2	
616.9	7090.8	
617.09	6901	
617.28	5005.9	
617.47	6339.1	
617.66	6164.4	
617.85	6172.6	
618.04	5973.9	
618.22	5399.1	
618.41	6413.6	
618.6	7306.5	
618.79	5189.6	
618.98	4867.3	
619.17	7694.2	
619.36	5950	
619.55	5024.3	
619.74	5117.2	
619.93	6812.2	
620.12	6244.3	
620.31	5682.4	
620.5	5835.3	
620.69	7482.6	
620.88	7876.5	
621.07	6656.6	
621.26	5499.5	
621.45	7015.7	
621.64	7080.5	
621.83	5728.9	
622.02	4770.4	
622.21	7124.2	
622.4	6776.7	
622.59	6152.8	
622.78	5889.3	
622.97	6341.9	
623.16	7419.8	
623.35	5548.6	
623.54	4657.8	
623.72	6578.8	
623.91	6734.4	
624.1	5909.8	
624.29	4459.1	
624.48	7911.3	
624.67	7090.1	
624.86	5686.5	
625.05	4724	
625.24	7931.1	
625.43	6271.6	
625.62	7469.6	
625.81	4956.1	
626	7406.8	
626.19	6600.6	
626.38	5756.2	
626.56	5169.1	
626.75	6458.6	
626.94	7229.3	
627.13	5739.1	
627.32	4396.3	
627.51	7065.5	
627.7	8490.2	
627.89	4665.3	
628.08	5814.2	
628.27	6315.3	
628.46	6552.1	
628.65	4871.4	
628.83	4613.4	
629.02	7178.1	
629.21	6378.1	
629.4	5389.6	
629.59	5548.6	
629.78	6297.5	
629.97	7286.7	
630.16	5671.5	
630.35	5109.7	
630.54	7737.9	
630.72	7482.6	
630.91	4982	
631.1	5641.5	
631.29	7014.3	
631.48	7155.6	
631.67	5774.6	
631.86	5178.6	
632.05	6440.9	
632.24	6522.8	
632.42	4807.3	
632.61	5424.4	
632.8	6714.6	
632.99	6298.2	
633.18	5426.4	
633.37	5832.6	
633.56	6973.3	
633.75	6746	
633.93	5403.2	
634.12	5094.7	
634.31	7759.1	
634.5	7335.8	
634.69	5154.7	
634.88	5742.5	
635.07	6669.6	
635.25	7342	
635.44	6108.4	
635.63	6337.8	
635.82	6541.9	
636.01	6048.3	
636.2	6064	
636.39	5583.4	
636.57	7748.1	
636.76	7504.4	
636.95	4975.9	
637.14	6411.5	
637.33	6971.3	
637.52	7981.6	
637.7	4782.7	
637.89	5734.3	
638.08	6556.2	
638.27	8271.7	
638.46	5861.3	
638.65	6303	
638.83	8186.4	
639.02	6455.9	
639.21	5664.7	
639.4	6286.6	
639.59	6967.2	
639.78	6518	
639.96	5046.2	
640.15	5088.5	
640.34	6907.8	
640.53	6946.7	
640.72	4780	
640.91	5196.4	
641.09	6287.3	
641.28	7690.1	
641.47	5132.2	
641.66	5976.7	
641.85	6941.9	
642.03	7275.8	
642.22	5807.4	
642.41	5190.2	
642.6	6444.3	
642.79	5778	
642.97	4983.4	
643.16	5729.5	
643.35	6338.5	
643.54	6253.1	
643.73	4908.3	
643.91	5745.9	
644.1	6155.5	
644.29	6682.5	
644.48	5023.7	
644.67	5195	
644.85	6331	
645.04	6673.6	
645.23	4696	
645.42	4986.8	
645.6	6242.2	
645.79	7447.8	
645.98	5046.2	
646.17	4033.8	
646.36	5997.8	
646.54	6700.3	
646.73	5978.7	
646.92	4653	
647.11	6333.7	
647.29	7420.5	
647.48	4841.4	
647.67	4532.2	
647.86	7696.3	
648.05	7720.2	
648.23	5173.2	
648.42	6462	
648.61	7036.1	
648.8	6836.1	
648.98	4783.4	
649.17	5087.8	
649.36	6276.3	
649.55	5742.5	
649.73	4834.6	
649.92	5588.2	
650.11	6130.3	
650.3	6590.4	
650.48	4971.1	
650.67	4659.1	
650.86	6771.9	
651.05	5698.1	
651.23	4881	
651.42	4889.2	
651.61	6234.7	
651.79	6423.8	
651.98	5040.1	
652.17	4659.8	
652.36	6810.2	
652.54	5818.3	
652.73	4792.9	
652.92	4587.4	
653.11	6838.2	
653.29	6926.9	
653.48	4105.5	
653.67	5171.8	
653.85	6716	
654.04	7791.8	
654.23	5429.8	
654.42	4926.7	
654.6	6167.8	
654.79	6873	
654.98	4441.4	
655.16	5012.7	
655.35	5796.4	
655.54	5716.6	
655.73	4489.8	
655.91	4431.8	
656.1	6997.9	
656.29	5748.6	
656.47	3986	
656.66	5797.1	
656.85	6008.7	
657.03	5963.7	
657.22	4521.2	
657.41	4650.3	
657.59	6118	
657.78	5821.7	
657.97	4191.5	
658.16	4972.5	
658.34	6756.9	
658.53	7121.5	
658.72	5881.1	
658.9	6462.7	
659.09	6152.8	
659.28	6247	
659.46	4743.8	
659.65	4606.6	
659.84	5926.1	
660.02	6473.6	
660.21	4517.8	
660.4	4471.4	
660.58	6888.7	
660.77	6251.1	
660.96	5104.2	
661.14	4093.9	
661.33	7514	
661.52	7319.4	
661.7	4014.7	
661.89	8075.1	
662.08	5929.6	
662.26	5474.9	
662.45	4347.2	
662.64	4573.1	
662.82	6548	
663.01	5731.6	
663.2	4524.6	
663.38	5249.6	
663.57	6594.5	
663.75	6348	
663.94	4909	
664.13	6225.1	
664.31	5855.1	
664.5	6634.1	
664.69	5274.2	
664.87	5731.6	
665.06	5607.3	
665.25	6385.6	
665.43	5996.5	
665.62	6130.9	
665.8	6751.5	
665.99	6042.9	
666.18	4947.9	
666.36	5026.4	
666.55	6703	
666.74	6609.5	
666.92	4539.7	
667.11	6227.2	
667.29	6008.1	
667.48	6705.7	
667.67	5802.6	
667.85	4949.9	
668.04	6083.8	
668.22	6077	
668.41	4990.9	
668.6	5156.1	
668.78	5881.8	
668.97	6111.8	
669.15	5393	
669.34	4285	
669.53	5903.6	
669.71	6280.4	
669.9	4507.6	
670.08	5179.3	
670.27	5853.1	
670.46	6433.4	
670.64	5400.5	
670.83	5579.3	
671.01	5772.5	
671.2	6429.3	
671.38	4571.1	
671.57	4413.4	
671.76	7096.9	
671.94	7660.8	
672.13	4340.3	
672.31	5518.6	
672.5	6679.8	
672.69	5900.9	
672.87	4578.6	
673.06	4891.9	
673.24	6483.9	
673.43	5948.7	
673.61	5388.9	
673.8	4857.1	
673.98	6649.8	
674.17	6807.4	
674.36	5464	
674.54	5304.2	
674.73	6408.8	
674.91	6733.7	
675.1	4949.3	
675.28	4622.3	
675.47	6175.3	
675.65	6743.3	
675.84	4861.2	
676.03	5246.2	
676.21	5939.8	
676.4	5406.6	
676.58	5724.1	
676.77	5461.9	
676.95	7525.6	
677.14	5902.9	
677.32	4579.9	
677.51	4290.5	
677.69	6731.7	
677.88	5504.3	
678.06	4369	
678.25	4510.3	
678.44	6237.4	
678.62	5900.9	
678.81	4205.8	
678.99	5214.1	
679.18	7036.8	
679.36	6571.2	
679.55	4829.1	
679.73	5490.6	
679.92	6525.5	
680.1	5945.9	
680.29	6093.4	
680.47	4822.3	
680.66	5881.8	
680.84	6729.6	
681.03	4085.7	
681.21	5291.3	
681.4	5916.6	
681.58	5838.1	
681.77	4663.2	
681.95	4537.6	
682.14	6791.1	
682.32	7075	
682.51	5479	
682.69	4283.7	
682.88	5890	
683.06	6646.3	
683.25	5197.7	
683.43	5721.3	
683.62	6163.7	
683.8	6627.2	
683.99	5808	
684.17	5150.6	
684.36	7660.1	
684.54	6189	
684.73	4329.4	
684.91	4508.9	
685.1	6591.7	
685.28	5998.5	
685.46	5231.2	
685.65	5324	
685.83	6820.4	
686.02	6167.1	
686.2	4634.6	
686.39	4801.8	
686.57	6010.1	
686.76	7553.6	
686.94	4660.5	
687.13	4775.2	
687.31	6683.9	
687.5	6152.1	
687.68	4257.7	
687.86	5599.8	
688.05	7980.3	
688.23	5544.5	
688.42	5622.4	
688.6	4692.6	
688.79	6119.3	
688.97	6019	
689.16	5182	
689.34	4048.8	
689.52	6767.2	
689.71	7049.1	
689.89	5424.4	
690.08	4667.3	
690.26	6324.8	
690.45	6204	
690.63	5662.6	
690.81	4891.2	
691	6072.9	
691.18	6018.3	
691.37	5031.9	
691.55	7406.1	
691.74	5984.2	
691.92	8071	
692.1	5054.4	
692.29	4442.7	
692.47	6185.5	
692.66	5510.4	
692.84	4700.8	
693.02	5369.8	
693.21	5601.2	
693.39	6137.1	
693.58	5319.9	
693.76	4745.8	
693.94	7383.6	
694.13	7146.7	
694.31	4701.5	
694.5	5819.6	
694.68	5939.8	
694.86	6249.7	
695.05	5010	
695.23	5196.4	
695.42	6687.3	
695.6	9094.3	
695.78	5657.9	
695.97	4786.1	
696.15	6696.2	
696.34	6115.2	
696.52	4502.8	
696.7	5391.6	
696.89	6471.6	
697.07	5880.4	
697.25	5408	
697.44	7053.9	
697.62	6424.5	
697.81	6868.9	
697.99	5042.8	
698.17	5569.1	
698.36	5784.1	
698.54	6533.7	
698.72	5375.9	
698.91	4311	
699.09	6077.7	
699.28	5979.4	
699.46	5101.5	
699.64	4963.6	
699.83	5838.1	
700.01	7299.6	
700.19	5739.8	
700.38	4158.1	
700.56	7154.2	
700.74	6059.9	
700.93	4579.9	
701.11	5444.9	
701.29	6492.1	
701.48	7684.7	
701.66	4814.1	
701.84	4782.7	
702.03	6104.3	
702.21	6787	
702.39	4401.8	
702.58	4992.9	
702.76	6534.4	
702.94	6711.2	
703.13	4376.5	
703.31	6888.7	
703.49	5798.5	
703.68	6980.2	
703.86	4592.9	
704.04	5668.8	
704.23	6386.9	
704.41	6774.7	
704.59	4800.4	
704.78	6070.2	
704.96	7559.7	
705.14	6876.4	
705.33	4532.8	
705.51	5470.1	
705.69	6264.7	
705.87	7163.8	
706.06	5771.9	
706.24	4536.9	
706.42	6549.4	
706.61	6802	
706.79	5825.1	
706.97	4605.2	
707.16	5950.7	
707.34	6651.1	
707.52	5694.7	
707.7	4788.8	
707.89	6267.5	
708.07	5862.7	
708.25	5724.1	
708.44	5851	
708.62	6095.4	
708.8	7286	
708.98	5995.1	
709.17	4874.2	
709.35	6526.2	
709.53	6574	
709.72	4633.2	
709.9	4817.5	
710.08	6873.7	
710.26	6912.6	
710.45	6317.3	
710.63	4977.9	
710.81	6522.1	
710.99	6606.1	
711.18	5677.7	
711.36	5051.7	
711.54	6355.5	
711.72	7219.1	
711.91	5309.7	
712.09	4645.5	
712.27	6578.8	
712.45	7273.7	
712.64	5575.9	
712.82	4433.9	
713	5980.1	
713.18	6234.7	
713.37	4642.1	
713.55	5967.1	
713.73	7178.8	
713.91	5752.7	
714.1	5134.9	
714.28	4647.5	
714.46	6974.7	
714.64	6038.8	
714.83	4068.6	
715.01	5032.5	
715.19	6210.8	
715.37	5645.6	
715.55	4710.3	
715.74	5032.5	
715.92	7257.3	
716.1	5139	
716.28	6199.2	
716.47	5229.1	
716.65	5894.1	
716.83	6062.7	
717.01	5102.9	
717.19	5189.6	
717.38	8170.7	
717.56	5645.6	
717.74	5318.6	
717.92	4453.6	
718.1	6944	
718.29	6143.9	
718.47	3981.3	
718.65	4704.2	
718.83	6749.4	
719.01	6719.4	
719.2	3848.8	
719.38	5031.2	
719.56	6388.3	
719.74	8049.2	
719.92	4550.6	
720.11	5681.1	
720.29	6466.8	
720.47	5562.3	
720.65	4106.2	
720.83	5104.9	
721.02	6032	
721.2	5735	
721.38	5157.5	
721.56	4389.5	
721.74	5171.8	
721.92	5454.4	
722.11	5711.1	
722.29	5408.7	
722.47	6712.6	
722.65	5847.6	
722.83	4460.5	
723.01	5433.9	
723.2	5971.9	
723.38	6249.7	
723.56	3858.4	
723.74	5069.4	
723.92	5409.4	
724.1	6731.7	
724.29	4384.7	
724.47	5578	
724.65	5532.2	
724.83	5388.2	
725.01	4258.4	
725.19	5169.8	
725.37	5563.6	
725.56	5622.4	
725.74	4126.7	
725.92	4373.8	
726.1	5420.3	
726.28	5763.7	
726.46	4883	
726.64	4513.7	
726.83	5715.9	
727.01	6006.7	
727.19	4059.8	
727.37	5015.5	
727.55	6001.2	
727.73	6393.1	
727.91	4080.2	
728.09	3918.4	
728.28	6453.8	
728.46	7150.8	
728.64	5128.1	
728.82	5063.9	
729	7619.8	
729.18	6760.3	
729.36	4260.5	
729.54	6814.3	
729.72	7818.5	
729.91	6014.9	
730.09	6204.7	
730.27	4915.8	
730.45	5895.4	
730.63	6677.1	
730.81	5536.3	
730.99	4502.1	
731.17	7112.6	
731.35	5639.4	
731.53	5114.5	
731.71	4681.7	
731.9	6866.2	
732.08	7133.8	
732.26	4965	
732.44	4564.9	
732.62	7109.9	
732.8	6599.2	
732.98	5487.2	
733.16	4371.7	
733.34	6541.9	
733.52	5315.8	
733.7	4913.1	
733.88	5210	
734.07	6407.4	
734.25	6204	
734.43	4336.2	
734.61	6035.4	
734.79	7700.4	
734.97	6103.6	
735.15	4556.7	
735.33	4866.7	
735.51	6452.5	
735.69	6004.6	
735.87	6180.8	
736.05	5147.9	
736.23	6263.4	
736.41	6083.1	
736.59	4911	
736.77	5076.2	
736.95	6701	
737.13	6113.2	
737.32	4530.8	
737.5	4792.9	
737.68	7282.6	
737.86	6049.7	
738.04	4388.1	
738.22	6339.1	
738.4	5772.5	
738.58	6118	
738.76	5052.3	
738.94	3952.6	
739.12	5872.2	
739.3	5767.1	
739.48	5720	
739.66	5418.2	
739.84	6252.4	
740.02	6249	
740.2	4032.5	
740.38	4470	
740.56	6584.9	
740.74	5468.8	
740.92	5190.2	
741.1	5172.5	
741.28	6077.7	
741.46	5921.4	
741.64	4674.8	
741.82	5231.9	
742	6102.9	
742.18	6078.4	
742.36	4948.6	
742.54	4457.7	
742.72	6657.9	
742.9	5397.8	
743.08	5316.5	
743.26	4080.2	
743.44	6933.1	
743.62	6759.7	
743.8	5486.5	
743.98	4545.1	
744.16	6494.1	
744.34	6102.9	
744.52	5455.8	
744.7	5338.4	
744.88	6567.2	
745.06	6084.5	
745.24	5504.3	
745.42	5678.3	
745.6	6675	
745.78	6423.1	
745.96	4220.2	
746.14	4570.4	
746.32	7566.6	
746.5	6672.3	
746.68	5229.8	
746.86	4633.2	
747.03	7158.3	
747.21	5431.2	
747.39	5181.4	
747.57	4618.9	
747.75	6289.3	
747.93	6749.4	
748.11	4678.2	
748.29	4548.5	
748.47	7943.4	
748.65	5992.4	
748.83	5322	
749.01	5147.2	
749.19	6508.4	
749.37	5700.9	
749.55	4908.3	
749.73	5067.4	
749.91	6201.2	
750.09	5914.5	
750.26	5131.5	
750.44	4501.4	
750.62	6224.5	
750.8	6165.8	
750.98	4312.3	
751.16	4668.7	
751.34	6224.5	
751.52	5558.9	
751.7	5531.6	
751.88	4340.3	
752.06	6752.2	
752.24	6585.6	
752.42	4276.8	
752.59	4622.9	
752.77	6150.7	
752.95	7493.5	
753.13	5446.2	
753.31	4743.1	
753.49	5883.1	
753.67	6321.4	
753.85	5088.5	
754.03	4583.4	
754.21	6636.8	
754.38	6966.5	
754.56	4836.6	
754.74	3842	
754.92	5876.3	
755.1	6690.7	
755.28	3972.4	
755.46	3957.4	
755.64	7496.9	
755.82	7621.9	
755.99	4315.8	
756.17	4445.5	
756.35	4934.9	
756.53	6623.1	
756.71	3278.1	
756.89	4299.4	
757.07	6164.4	
757.25	5202.5	
757.42	4812.7	
757.6	5806	
757.78	6229.9	
757.96	5212.1	
758.14	4493.9	
758.32	3988.8	
758.5	4723.3	
758.67	5636	
758.85	4275.5	
759.03	4399.7	
759.21	5807.4	
759.39	5177.9	
759.57	3870.7	
759.75	5083.7	
759.92	6456.6	
760.1	5682.4	
760.28	5440.8	
760.46	5707	
760.64	5433.9	
760.82	5210.7	
760.99	5343.8	
761.17	4354	
761.35	6339.8	
761.53	5268.1	
761.71	4552	
761.89	5302.9	
762.06	6196.5	
762.24	5610.8	
762.42	4568.3	
762.6	4391.5	
762.78	5679	
762.96	6329.6	
763.13	5020.9	
763.31	4676.2	
763.49	6528.2	
763.67	5578.7	
763.85	5541.8	
764.02	6110.5	
764.2	6768.5	
764.38	5926.1	
764.56	4485.7	
764.74	5421.7	
764.91	6882.5	
765.09	5664	
765.27	4216.1	
765.45	3954.6	
765.63	6973.3	
765.8	6789	
765.98	3657	
766.16	4065.9	
766.34	5256.5	
766.52	5052.3	
766.69	5067.4	
766.87	3852.9	
767.05	5739.1	
767.23	6475.7	
767.41	4255.7	
767.58	4463.2	
767.76	6353.5	
767.94	6432	
768.12	4272.7	
768.29	5193	
768.47	5837.4	
768.65	6539.8	
768.83	3975.8	
769	5214.1	
769.18	5298.8	
769.36	6145.3	
769.54	5194.3	
769.72	3975.8	
769.89	6440.2	
770.07	6533.7	
770.25	4285.7	
770.43	5694	
770.6	7234.8	
770.78	7707.2	
770.96	4562.9	
771.14	4362.9	
771.31	6337.1	
771.49	5580.7	
771.67	3653.6	
771.85	3945.8	
772.02	4814.1	
772.2	5717.2	
772.38	4775.9	
772.55	4184.7	
772.73	5928.2	
772.91	5715.2	
773.09	4633.9	
773.26	4641.4	
773.44	5907.7	
773.62	5591	
773.8	4042.7	
773.97	3804.4	
774.15	5976	
774.33	5529.5	
774.5	3960.1	
774.68	4394.9	
774.86	6222.4	
775.04	5539.1	
775.21	4055	
775.39	4001	
775.57	5813.5	
775.74	6268.8	
775.92	3921.2	
776.1	3832.4	
776.27	5849	
776.45	7219.8	
776.63	4099.4	
776.81	3564.8	
776.98	5500.8	
777.16	6694.8	
777.34	4227.7	
777.51	4195.6	
777.69	5492.7	
777.87	5262.6	
778.04	4171	
778.22	4943.1	
778.4	5254.4	
778.57	6002.6	
778.75	3470.6	
778.93	3852.9	
779.1	5086.5	
779.28	4922	
779.46	3525.2	
779.64	4021.5	
779.81	6163.7	
779.99	7133.8	
780.17	4927.4	
780.34	5085.1	
780.52	5584.1	
780.69	5816.2	
780.87	4395.6	
781.05	3916.4	
781.22	5651.7	
781.4	5710.4	
781.58	4086.4	
781.75	3209.8	
781.93	5713.2	
782.11	5059.2	
782.28	5095.3	
782.46	4062.5	
782.64	4888.5	
782.81	5964.4	
782.99	4167.6	
783.17	4186.7	
783.34	5832.6	
783.52	4952	
783.69	4405.2	
783.87	5328.1	
784.05	5010	
784.22	5085.1	
784.4	5212.1	
784.58	4455.7	
784.75	6049	
784.93	5122	
785.1	4095.9	
785.28	4719.2	
785.46	5715.2	
785.63	5005.2	
785.81	4049.5	
785.99	3912.3	
786.16	5256.5	
786.34	5690.6	
786.51	3988.8	
786.69	4379.2	
786.87	4838.7	
787.04	5399.1	
787.22	3860.4	
787.39	4891.2	
787.57	5014.8	
787.75	6227.2	
787.92	5052.3	
788.1	4948.6	
788.27	5088.5	
788.45	4874.2	
788.63	4631.8	
788.8	3328.6	
788.98	5479	
789.15	4827.1	
789.33	3483.6	
789.5	4110.3	
789.68	6104.3	
789.86	6204	
790.03	4605.2	
790.21	4033.1	
790.38	6075.6	
790.56	5247.6	
790.73	3820.8	
790.91	3935.5	
791.09	5081.7	
791.26	5933.6	
791.44	4121.9	
791.61	3502.7	
791.79	5064.6	
791.96	5186.1	
792.14	3636.5	
792.32	3198.9	
792.49	5102.2	
792.67	5197.1	
792.84	3751.2	
793.02	3528.7	
793.19	5552	
793.37	6387.6	
793.54	3276.8	
793.72	3642.7	
793.89	6524.1	
794.07	5141.8	
794.25	4261.1	
794.42	3315	
794.6	6294.8	
794.77	5829.9	
794.95	4610	
795.12	3964.2	
795.3	5079.6	
795.47	5814.2	
795.65	4401.1	
795.82	4217.5	
796	4885.8	
796.17	6995.9	
796.35	4024.3	
796.52	4835.3	
796.7	5743.2	
796.87	5788.9	
797.05	5023.7	
797.22	4933.6	
797.4	5676.3	
797.57	6834.1	
797.75	4244.1	
797.92	4001	
798.1	6066.8	
798.27	5132.9	
798.45	3304.7	
798.62	3633.1	
798.8	5416.9	
798.97	5973.2	
799.15	4481	
799.32	4227	
799.5	4649.6	
799.67	5535	
799.85	4592.2	
800.02	3305.4	
800.2	5097.4	
800.37	5477	
800.55	4812	
800.72	3934.8	
800.9	5909.1	
801.07	6346	
801.25	5347.2	
801.42	4322.6	
801.6	6009.4	
801.77	5648.3	
801.95	4033.8	
802.12	3823.6	
802.29	5588.9	
802.47	5624.4	
802.64	4296.6	
802.82	3240.6	
802.99	5046.2	
803.17	6096.1	
803.34	4202.4	
803.52	3752.6	
803.69	6849.8	
803.87	4864.6	
804.04	4227	
804.21	4272.1	
804.39	6281.1	
804.56	5360.2	
804.74	3530	
804.91	4379.2	
805.09	5079	
805.26	5201.2	
805.44	3549.1	
805.61	4039.3	
805.78	5821.7	
805.96	5868.1	
806.13	4403.1	
806.31	4716.5	
806.48	4597	
806.66	5175.9	
806.83	4353.3	
807	4260.5	
807.18	5124.7	
807.35	5535.7	
807.53	4215.4	
807.7	3364.8	
807.87	6370.5	
808.05	5192.3	
808.22	4667.3	
808.4	3341.6	
808.57	5136.3	
808.74	4754	
808.92	3921.2	
809.09	4927.4	
809.27	5075.5	
809.44	5734.3	
809.61	3413.3	
809.79	3851.5	
809.96	6408.1	
810.14	5958.9	
810.31	3314.3	
810.48	4126	
810.66	5173.2	
810.83	5995.8	
811.01	3893.2	
811.18	4352.6	
811.35	6008.7	
811.53	4604.5	
811.7	4730.1	
811.87	4375.1	
812.05	5181.4	
812.22	5107.6	
812.39	3739.6	
812.57	3607.8	
812.74	5162.2	
812.92	6937.2	
813.09	4055.7	
813.26	4478.2	
813.44	6692.8	
813.61	5036	
813.78	3331.4	
813.96	4578.6	
814.13	5153.4	
814.3	4816.8	
814.48	4915.1	
814.65	4056.3	
814.82	6520.7	
815	4948.6	
815.17	4258.4	
815.34	5163.6	
815.52	5115.1	
815.69	5082.4	
815.87	4162.2	
816.04	3542.3	
816.21	5200.5	
816.38	4534.9	
816.56	4054.3	
816.73	3745.1	
816.9	6576	
817.08	6002.6	
817.25	3773	
817.42	4838	
817.6	4734.2	
817.77	5259.9	
817.94	4289.8	
818.12	3702	
818.29	4885.8	
818.46	7843.7	
818.64	3920.5	
818.81	3660.4	
818.98	4823.6	
819.16	7090.1	
819.33	4479.6	
819.5	4166.3	
819.67	5591.6	
819.85	6254.5	
820.02	4134.2	
820.19	4390.8	
820.37	5449	
820.54	4965.6	
820.71	4287.1	
820.88	5272.8	
821.06	5449	
821.23	4949.9	
821.4	4274.8	
821.58	4223.6	
821.75	5945.9	
821.92	5317.9	
822.09	3435.1	
822.27	3724.6	
822.44	5229.1	
822.61	5103.5	
822.79	3398.9	
822.96	6757.6	
823.13	5696.1	
823.3	4830.5	
823.48	4009.2	
823.65	3596.2	
823.82	5883.1	
823.99	4698	
824.17	5057.8	
824.34	3650.8	
824.51	6943.3	
824.68	5302.9	
824.86	3805.1	
825.03	4291.2	
825.2	5148.6	
825.37	6301.6	
825.55	3724.6	
825.72	4259.8	
825.89	7001.3	
826.06	6454.5	
826.24	4109.6	
826.41	4074.1	
826.58	6390.3	
826.75	5507.7	
826.92	3214.6	
827.1	3640.6	
827.27	8706.6	
827.44	6941.9	
827.61	3915	
827.79	4715.1	
827.96	4879.6	
828.13	5293.3	
828.3	4073.4	
828.47	3356.6	
828.65	5378	
828.82	5368.4	
828.99	5240.1	
829.16	4628.4	
829.34	5837.4	
829.51	5580	
829.68	4223.6	
829.85	4384.7	
830.02	6085.9	
830.2	5825.1	
830.37	3235.1	
830.54	5145.2	
830.71	6681.2	
830.88	5182	
831.05	3302	
831.23	3870	
831.4	6317.3	
831.57	7121.5	
831.74	3889.1	
831.91	3431.7	
832.09	5402.5	
832.26	5820.3	
832.43	4031.8	
832.6	4590.9	
832.77	5393.7	
832.94	6177.4	
833.12	3191.4	
833.29	3985.3	
833.46	5332.2	
833.63	7428	
833.8	4443.4	
833.97	4078.9	
834.15	5842.9	
834.32	5601.2	
834.49	4177.2	
834.66	4359.4	
834.83	6047	
835	4909.7	
835.17	3871.3	
835.35	3958	
835.52	5673.6	
835.69	5544.5	
835.86	4029.7	
836.03	3409.9	
836.2	5760.3	
836.37	5416.9	
836.55	4053.6	
836.72	3833.8	
836.89	5362.9	
837.06	5912.5	
837.23	4164.9	
837.4	4595.6	
837.57	6668.2	
837.75	7434.1	
837.92	3664.5	
838.09	3950.5	
838.26	5342.5	
838.43	6114.6	
838.6	4254.3	
838.77	3807.9	
838.94	7049.8	
839.11	6728.9	
839.29	3997	
839.46	3142.3	
839.63	5777.3	
839.8	5472.9	
839.97	3960.1	
840.14	3936.9	
840.31	5585.5	
840.48	5841.5	
840.65	3242.6	
840.82	3803.1	
841	5776.6	
841.17	5738.4	
841.34	3603.1	
841.51	3650.2	
841.68	5731.6	
841.85	5494.7	
842.02	3777.1	
842.19	3038.5	
842.36	5552.7	
842.53	5506.3	
842.7	3638.6	
842.87	4516.5	
843.05	7354.3	
843.22	5400.5	
843.39	3439.9	
843.56	3716.4	
843.73	5165	
843.9	5827.2	
844.07	5961	
844.24	4868.7	
844.41	8617.2	
844.58	4988.9	
844.75	3475.4	
844.92	3841.3	
845.09	5795.1	
845.26	5746.6	
845.43	3546.4	
845.6	3803.8	
845.77	5810.1	
845.94	5540.4	
846.12	4005.1	
846.29	4271.4	
846.46	6038.8	
846.63	5849	
846.8	3629.7	
846.97	4346.5	
847.14	6253.8	
847.31	5749.3	
847.48	4018.1	
847.65	4433.2	
847.82	6080.4	
847.99	6038.1	
848.16	4833.9	
848.33	4438.6	
848.5	5278.3	
848.67	6306.4	
848.84	3576.4	
849.01	3749.8	
849.18	5160.9	
849.35	4840.7	
849.52	4539.7	
849.69	3522.5	
849.86	5960.3	
850.03	6294.8	
850.2	3624.9	
850.37	4312.3	
850.54	6224.5	
850.71	5510.4	
850.88	4356	
851.05	3596.2	
851.22	5677	
851.39	6273.6	
851.56	3366.9	
851.73	4194.9	
851.9	5107.6	
852.07	6051.1	
852.24	3969.6	
852.41	3528	
852.58	5594.4	
852.75	5045.5	
852.92	4036.5	
853.09	3442.6	
853.26	5300.8	
853.43	6283.2	
853.6	3540.3	
853.77	3075.4	
853.94	6356.2	
854.11	5777.3	
854.28	5360.9	
854.44	3863.8	
854.61	6810.9	
854.78	6205.3	
854.95	3564.8	
855.12	4578.6	
855.29	4579.3	
855.46	6557.6	
855.63	3603.7	
855.8	5019.6	
855.97	5302.9	
856.14	6168.5	
856.31	5104.2	
856.48	3887.7	
856.65	5317.2	
856.82	5013.4	
856.99	3406.5	
857.16	3887	
857.33	7146.7	
857.49	5434.6	
857.66	3840.6	
857.83	4117.8	
858	5363.6	
858.17	5597.8	
858.34	3375.1	
858.51	3604.4	
858.68	6548	
858.85	6595.1	
859.02	4186	
859.19	4496	
859.36	5017.5	
859.52	5077.6	
859.69	3623.5	
859.86	4250.2	
860.03	5208	
860.2	6413.6	
860.37	3266.5	
860.54	3584.6	
860.71	6006.7	
860.88	6483.2	
861.05	4000.4	
861.21	4564.2	
861.38	6539.2	
861.55	5005.9	
861.72	3267.2	
861.89	4024.9	
862.06	6118	
862.23	6668.2	
862.4	3506.1	
862.56	3758	
862.73	5911.1	
862.9	5562.3	
863.07	4278.9	
863.24	3267.2	
863.41	4953.4	
863.58	5054.4	
863.75	3710.9	
863.91	4089.8	
864.08	6432.7	
864.25	5960.3	
864.42	4524	
864.59	5077.6	
864.76	6834.8	
864.93	5117.2	
865.09	3528	
865.26	3842.7	
865.43	6322.1	
865.6	6767.9	
865.77	3091.8	
865.94	3562.8	
866.1	6364.4	
866.27	6079.1	
866.44	5436	
866.61	3414	
866.78	5468.1	
866.95	5923.4	
867.11	3491.1	
867.28	3156.6	
867.45	6107	
867.62	5186.1	
867.79	4195.6	
867.96	3553.2	
868.12	5028.4	
868.29	6040.8	
868.46	3565.5	
868.63	4828.4	
868.8	6274.3	
868.97	5929.6	
869.13	3806.5	
869.3	3700.7	
869.47	5937.1	
869.64	6122.7	
869.81	3627	
869.97	3596.9	
870.14	5785.5	
870.31	6472.3	
870.48	3485.6	
870.65	4451.6	
870.81	5378	
870.98	5345.9	
871.15	4035.2	
871.32	3750.5	
871.48	5844.9	
871.65	6591	
871.82	3564.8	
871.99	3928	
872.16	6874.3	
872.32	6399.2	
872.49	3586.7	
872.66	3623.5	
872.83	5962.3	
872.99	5284.4	
873.16	4117.8	
873.33	3525.2	
873.5	5616.2	
873.67	5705.6	
873.83	3764.2	
874	4896	
874.17	5843.5	
874.34	6911.9	
874.5	4672.8	
874.67	4465.9	
874.84	6457.2	
875.01	5028.4	
875.17	5070.1	
875.34	3577.1	
875.51	5704.3	
875.68	6879.1	
875.84	4331.5	
876.01	5318.6	
876.18	5986.2	
876.34	5950.7	
876.51	3658.4	
876.68	3506.1	
876.85	5436.7	
877.01	6304.3	
877.18	5150.6	
877.35	3590.1	
877.52	5543.2	
877.68	4977.9	
877.85	3514.3	
878.02	3499.3	
878.18	5639.4	
878.35	5253.7	
878.52	2801.6	
878.69	4042	
878.85	6040.8	
879.02	5966.4	
879.19	5143.1	
879.35	3818.8	
879.52	5981.4	
879.69	6282.5	
879.86	3091.8	
880.02	4009.9	
880.19	5528.2	
880.36	6837.5	
880.52	4141	
880.69	4296.6	
880.86	6085.9	
881.02	6206.7	
881.19	3919.1	
881.36	3938.9	
881.52	5975.3	
881.69	5293.3	
881.86	3861.1	
882.02	3812.6	
882.19	6283.2	
882.36	7427.3	
882.52	3657	
882.69	5042.8	
882.86	5793.7	
883.02	5654.4	
883.19	4381.3	
883.36	4128.7	
883.52	6103.6	
883.69	6935.1	
883.86	3673.4	
884.02	3314.3	
884.19	6092.7	
884.36	5535	
884.52	4067.9	
884.69	3863.2	
884.86	5253.7	
885.02	6735.1	
885.19	4009.2	
885.36	4123.2	
885.52	5537.7	
885.69	5732.9	
885.86	5194.3	
886.02	4658.4	
886.19	6027.9	
886.35	5448.3	
886.52	4003.8	
886.69	5048.2	
886.85	5169.1	
887.02	6457.9	
887.19	6457.9	
887.35	6457.9	
887.52	6457.9	
887.68	6457.9	
887.85	6457.9	
888.02	6457.9	
888.18	6457.9	
888.35	6457.9	
888.51	6457.9	
888.68	6457.9	
888.85	6457.9	
889.01	6457.9	
889.18	6457.9	
889.35	6457.9	
889.51	6457.9	
889.68	6457.9	
889.84	6457.9	
890.01	6457.9	
890.17	6457.9	
890.34	6457.9	
890.51	6457.9	
890.67	6457.9	
890.84	6457.9	
891	6457.9	
891.17	6457.9	
891.34	6457.9	
891.5	6457.9	
891.67	6457.9	
891.83	6457.9	
892	6457.9	
892.16	6457.9	
892.33	6457.9	
892.5	6457.9	
892.66	6457.9	
892.83	6457.9	
892.99	6457.9	
893.16	6457.9	
893.32	6457.9	
893.49	6457.9	
893.65	6457.9	
893.82	6457.9	
893.99	6457.9	
894.15	6457.9	
894.32	6457.9	
894.48	6457.9	
894.65	6457.9	
894.81	6457.9	
894.98	6457.9	
895.14	6457.9	
895.31	6457.9	
895.47	6457.9	
895.64	6457.9	
895.81	6457.9	
895.97	6457.9	
896.14	6457.9	
896.3	6457.9	
896.47	6457.9	
896.63	6457.9	
896.8	6457.9	
896.96	6457.9	
897.13	6457.9	
897.29	6457.9	
897.46	6457.9	
897.62	6457.9	
897.79	6457.9	
897.95	6457.9	
898.12	6457.9	
898.28	6457.9	
898.45	6457.9	
898.61	6457.9	
898.78	6457.9	
898.94	6457.9	
899.11	6457.9	
899.27	6457.9	
899.44	6457.9	
899.6	6457.9	
899.77	6457.9	
899.93	6457.9	
900.1	6457.9	
900.26	6457.9	
900.43	6457.9	
900.59	6457.9	
900.76	6457.9	
900.92	6457.9	
901.09	6457.9	
901.25	6457.9	
901.42	6457.9	
901.58	6457.9	
901.75	6457.9	
901.91	6457.9	
902.07	6457.9	
902.24	6457.9	
902.4	6457.9	
902.57	6457.9	
902.73	6457.9	
902.9	6457.9	
903.06	6457.9	
903.23	6457.9	
903.39	6457.9	
903.56	6457.9	
903.72	6457.9	
903.88	6457.9	
904.05	6457.9	
904.21	6457.9	
904.38	6457.9	
904.54	6457.9	
904.71	6457.9	
904.87	6457.9	
905.03	6457.9	
905.2	6457.9	
905.36	6457.9	
905.53	6457.9	
905.69	6457.9	
905.86	6457.9	
906.02	6457.9	
906.18	6457.9	
906.35	6457.9	
906.51	6457.9	
906.68	6457.9	
906.84	6457.9	
907.01	6457.9	
907.17	6457.9	
907.33	6457.9	
907.5	6457.9	
907.66	6457.9	
907.83	6457.9	
907.99	6457.9	
908.15	6457.9	
908.32	6457.9	
908.48	6457.9	
908.65	6457.9	
908.81	6457.9	
908.97	6457.9	
909.14	6457.9	
909.3	6457.9	
909.47	6457.9	
909.63	6457.9	
909.79	6457.9	
909.96	6457.9	
910.12	6457.9	
910.28	6457.9	
910.45	6457.9	
910.61	6457.9	
910.78	6457.9	
910.94	6457.9	
911.1	6457.9	
911.27	6457.9	
911.43	6457.9	
911.59	6457.9	
911.76	6457.9	
911.92	6457.9	
912.08	6457.9	
912.25	6457.9	
912.41	6457.9	
912.57	6457.9	
912.74	6457.9	
912.9	6457.9	
913.07	6457.9	
913.23	6457.9	
913.39	6457.9	
913.56	6457.9	
913.72	6457.9	
913.88	6457.9	
914.05	6457.9	
914.21	6457.9	
914.37	6457.9	
914.54	6457.9	
914.7	6457.9	
914.86	6457.9	
915.03	6457.9	
915.19	6457.9	
