Wavelength	Intensities	
nm	a.u.	
179.22	1883.8	
179.44	1882.8	
179.65	1884.8	
179.86	1880.7	
180.08	1922.4	
180.29	4789.5	
180.51	3418.1	
180.72	5553.4	
180.94	6447.7	
181.15	3167.5	
181.37	3097.2	
181.58	5479.7	
181.79	5760.9	
182.01	3354.6	
182.22	3619.4	
182.44	5736.4	
182.65	4806.6	
182.87	4493.9	
183.08	3952.6	
183.29	5992.4	
183.51	4961.5	
183.72	3635.1	
183.94	5188.9	
184.15	5328.8	
184.37	5373.9	
184.58	3171.6	
184.79	4374.5	
185.01	5014.8	
185.22	5723.4	
185.44	4595	
185.65	3848.8	
185.86	5259.2	
186.08	4831.2	
186.29	3046.7	
186.51	3316.3	
186.72	5001.8	
186.94	5826.5	
187.15	3856.3	
187.36	3977.8	
187.58	7585.7	
187.79	5444.9	
188.01	4190.1	
188.22	6457.2	
188.43	6597.9	
188.65	5649.7	
188.86	3319.1	
189.08	3910.3	
189.29	5085.1	
189.5	5139	
189.72	3690.4	
189.93	3773.7	
190.15	5907.7	
190.36	7105.8	
190.57	4063.2	
190.79	3979.2	
191	5989.6	
191.22	5932.3	
191.43	4057.7	
191.64	3285.6	
191.86	6167.1	
192.07	6005.3	
192.29	3498.6	
192.5	3605.8	
192.71	5913.9	
192.93	5101.5	
193.14	3616	
193.35	3723.9	
193.57	5160.9	
193.78	5866.1	
194	2945	
194.21	3597.6	
194.42	4928.8	
194.64	5378.6	
194.85	3958	
195.07	4629.8	
195.28	5474.9	
195.49	4687.1	
195.71	4885.8	
195.92	3424.9	
196.13	5623	
196.35	5658.5	
196.56	5233.9	
196.78	3966.2	
196.99	6949.4	
197.2	6485.9	
197.42	4517.8	
197.63	4006.5	
197.84	4842.1	
198.06	5523.4	
198.27	3666.5	
198.48	4883	
198.7	5122	
198.91	5266	
199.13	3946.4	
199.34	4022.2	
199.55	5761.6	
199.77	4649.6	
199.98	3528	
200.19	4052.2	
200.41	5169.8	
200.62	4928.1	
200.83	4134.8	
201.05	4507.6	
201.26	5253	
201.47	5026.4	
201.69	3553.9	
201.9	3363.4	
202.11	5368.4	
202.33	6285.9	
202.54	3803.8	
202.76	4141	
202.97	5463.3	
203.18	5437.4	
203.4	4136.9	
203.61	4104.8	
203.82	5382.1	
204.04	5021.6	
204.25	4067.3	
204.46	3929.4	
204.68	5307	
204.89	5538.4	
205.1	3862.5	
205.32	3394.8	
205.53	5808	
205.74	5924.1	
205.96	2912.9	
206.17	4085.7	
206.38	5752.1	
206.6	5869.5	
206.81	4581.3	
207.02	3715	
207.24	5601.9	
207.45	5978.7	
207.66	3738.2	
207.88	3261	
208.09	5500.2	
208.3	5327.4	
208.52	3510.9	
208.73	3740.3	
208.94	5315.8	
209.15	6051.7	
209.37	3773.7	
209.58	3972.4	
209.79	5853.8	
210.01	5118.6	
210.22	3037.8	
210.43	3196.9	
210.65	5337.7	
210.86	5732.3	
211.07	3806.5	
211.29	3450.8	
211.5	5636	
211.71	5289.2	
211.93	3528.7	
212.14	3474	
212.35	5285.8	
212.56	5521.3	
212.78	3994.2	
212.99	3323.2	
213.2	6269.5	
213.42	5075.5	
213.63	3603.7	
213.84	3902.7	
214.06	4737.6	
214.27	4826.4	
214.48	3779.2	
214.69	4057.7	
214.91	5994.4	
215.12	6067.4	
215.33	4096.6	
215.55	4582.7	
215.76	6594.5	
215.97	5680.4	
216.18	3974.4	
216.4	3768.9	
216.61	5032.5	
216.82	5850.4	
217.04	3601	
217.25	3668.6	
217.46	6004	
217.67	5767.1	
217.89	3115	
218.1	3277.4	
218.31	5446.2	
218.53	5524.1	
218.74	3663.8	
218.95	3595.6	
219.16	5367	
219.38	6301.6	
219.59	3586.7	
219.8	4302.8	
220.01	6949.4	
220.23	5449	
220.44	4666	
220.65	3462.4	
220.87	5441.5	
221.08	5900.2	
221.29	3224.9	
221.5	4373.1	
221.72	7311.2	
221.93	5111	
222.14	4060.4	
222.35	4727.4	
222.57	5366.4	
222.78	5670.8	
222.99	3825.6	
223.2	4143	
223.42	5678.3	
223.63	5780.7	
223.84	2937.5	
224.05	2921.8	
224.27	6847.7	
224.48	6238.1	
224.69	4754	
224.9	4022.9	
225.12	5601.2	
225.33	5324.7	
225.54	3207.8	
225.75	3577.1	
225.97	4919.2	
226.18	5217.5	
226.39	3868.6	
226.6	3665.2	
226.82	5057.8	
227.03	4982.7	
227.24	4042.7	
227.45	3358	
227.67	5745.2	
227.88	6300.2	
228.09	4386.7	
228.3	4519.2	
228.52	5755.5	
228.73	5344.5	
228.94	3725.9	
229.15	3336.1	
229.36	5302.2	
229.58	5201.8	
229.79	3749.8	
230	4401.1	
230.21	6372.6	
230.43	5463.3	
230.64	3984.7	
230.85	4134.2	
231.06	5795.1	
231.28	5810.8	
231.49	3345	
231.7	3885.7	
231.91	5640.8	
232.12	5361.6	
232.34	3381.2	
232.55	3871.3	
232.76	6047	
232.97	5534.3	
233.18	3441.3	
233.4	3973.1	
233.61	5545.9	
233.82	5138.4	
234.03	3713.7	
234.25	3607.2	
234.46	7421.8	
234.67	5398.4	
234.88	4114.4	
235.09	3556	
235.31	5678.3	
235.52	5245.5	
235.73	3947.8	
235.94	3347.7	
236.15	5117.2	
236.37	6491.4	
236.58	3546.4	
236.79	3841.3	
237	5647.6	
237.21	4849.6	
237.43	4133.5	
237.64	3261.7	
237.85	9699.9	
238.06	4904.2	
238.27	4231.1	
238.48	3398.3	
238.7	5713.8	
238.91	5223.7	
239.12	3816	
239.33	3790.1	
239.54	4973.2	
239.76	5216.9	
239.97	3793.5	
240.18	3828.3	
240.39	6681.2	
240.6	5627.1	
240.82	3945.8	
241.03	3255.6	
241.24	5329.5	
241.45	6238.8	
241.66	3504.1	
241.87	4194.2	
242.09	6104.3	
242.3	6494.1	
242.51	4197	
242.72	3852.2	
242.93	5756.2	
243.14	5341.1	
243.36	4430.4	
243.57	4784.1	
243.78	6185.5	
243.99	5746.6	
244.2	3827	
244.41	3504.1	
244.63	4922.6	
244.84	5651	
245.05	4041.3	
245.26	3835.8	
245.47	5655.8	
245.68	5921.4	
245.9	5162.9	
246.11	4009.2	
246.32	5190.9	
246.53	5600.5	
246.74	6171.2	
246.95	3222.1	
247.16	4885.8	
247.38	5364.3	
247.59	3220.1	
247.8	3848.8	
248.01	5019.6	
248.22	5264	
248.43	3503.4	
248.64	3790.8	
248.86	4752	
249.07	5156.8	
249.28	3331.4	
249.49	3944.4	
249.7	5922.7	
249.91	5964.4	
250.12	3249.4	
250.34	3274.7	
250.55	5464	
250.76	5395.7	
250.97	4025.6	
251.18	4044.7	
251.39	6067.4	
251.6	5561.6	
251.81	4048.2	
252.03	4089.1	
252.24	5101.5	
252.45	5782.8	
252.66	3318.4	
252.87	4261.1	
253.08	5431.9	
253.29	7055.3	
253.5	3368.9	
253.72	4667.3	
253.93	5269.4	
254.14	6322.8	
254.35	3666.5	
254.56	3754.6	
254.77	5586.9	
254.98	4944.5	
255.19	3596.2	
255.41	4625.7	
255.62	5483.1	
255.83	6012.2	
256.04	4052.9	
256.25	4032.5	
256.46	6617.7	
256.67	5048.2	
256.88	3925.3	
257.09	4427	
257.31	5063.9	
257.52	5104.2	
257.73	4969.1	
257.94	3642.7	
258.15	5147.9	
258.36	5314.5	
258.57	4529.4	
258.78	2926.5	
258.99	5890	
259.2	5160.9	
259.41	3673.4	
259.63	3780.6	
259.84	6192.4	
260.05	6640.2	
260.26	4850.3	
260.47	3568.9	
260.68	5982.8	
260.89	5251	
261.1	4363.5	
261.31	3534.1	
261.52	5939.1	
261.73	6230.6	
261.95	4691.2	
262.16	4179.2	
262.37	6019	
262.58	6146.6	
262.79	4739	
263	3726.6	
263.21	5418.9	
263.42	4898.1	
263.63	3788.1	
263.84	3725.9	
264.05	5930.9	
264.26	6307.1	
264.47	4583.4	
264.69	4160.1	
264.9	6041.5	
265.11	5565	
265.32	3543	
265.53	3597.6	
265.74	5468.1	
265.95	4734.2	
266.16	3928	
266.37	4329.4	
266.58	5472.2	
266.79	5204.6	
267	3646.7	
267.21	3368.9	
267.42	4900.8	
267.63	5361.6	
267.84	3851.5	
268.06	3289.7	
268.27	5810.1	
268.48	6080.4	
268.69	3730	
268.9	4422.9	
269.11	6059.3	
269.32	4848.9	
269.53	3824.2	
269.74	3556.6	
269.95	5709.7	
270.16	4739.7	
270.37	3807.9	
270.58	4429.1	
270.79	5181.4	
271	5852.4	
271.21	4141.7	
271.42	3876.8	
271.63	5468.1	
271.84	4979.3	
272.05	3089.7	
272.26	3422.8	
272.47	5368.4	
272.68	5614.8	
272.89	3655.6	
273.11	4244.8	
273.32	5147.2	
273.53	6251.8	
273.74	4137.6	
273.95	4027.7	
274.16	6006.7	
274.37	5433.9	
274.58	4170.3	
274.79	3338.9	
275	5475.6	
275.21	6036	
275.42	5051.7	
275.63	4301.4	
275.84	5618.3	
276.05	7079.8	
276.26	4049.5	
276.47	3814	
276.68	5205.3	
276.89	6384.9	
277.1	4347.2	
277.31	3362.8	
277.52	5631.2	
277.73	5779.4	
277.94	3300	
278.15	3672	
278.36	5569.1	
278.57	5057.1	
278.78	3661.1	
278.99	4133.5	
279.2	5024.3	
279.41	4975.9	
279.62	4846.9	
279.83	3433.8	
280.04	6462	
280.25	4931.5	
280.46	4818.9	
280.67	3805.1	
280.88	5019.6	
281.09	6025.1	
281.3	4025.6	
281.51	5116.5	
281.72	5114.5	
281.93	5870.2	
282.14	3624.2	
282.35	3891.8	
282.56	5813.5	
282.77	5821	
282.98	3736.2	
283.19	4519.2	
283.4	7142.6	
283.61	5286.5	
283.82	3291.1	
284.03	4749.9	
284.24	5476.3	
284.45	5939.1	
284.66	4743.8	
284.87	4592.2	
285.08	5928.9	
285.29	6077.7	
285.5	3280.8	
285.71	3791.5	
285.92	6059.3	
286.12	6602.7	
286.33	4730.8	
286.54	3713	
286.75	5806	
286.96	5215.5	
287.17	3445.4	
287.38	4649.6	
287.59	4998.4	
287.8	4907.6	
288.01	3771.7	
288.22	4317.8	
288.43	5838.8	
288.64	4911.7	
288.85	4481	
289.06	4233.8	
289.27	5779.4	
289.48	6313.9	
289.69	4700.1	
289.9	4276.8	
290.11	6043.6	
290.32	5045.5	
290.53	4557.4	
290.74	4192.9	
290.94	5822.4	
291.15	5868.8	
291.36	3689.1	
291.57	4288.4	
291.78	5107	
291.99	4768.4	
292.2	3485.6	
292.41	4185.4	
292.62	5895.4	
292.83	5743.9	
293.04	5184.1	
293.25	3476.1	
293.46	5130.2	
293.67	5982.1	
293.88	3592.1	
294.09	3534.8	
294.29	4926.7	
294.5	5493.3	
294.71	3874.1	
294.92	3682.9	
295.13	5147.2	
295.34	6435.4	
295.55	3260.4	
295.76	3325.9	
295.97	5756.2	
296.18	6497.5	
296.39	3423.5	
296.6	3608.5	
296.81	5483.8	
297.01	5760.9	
297.22	3764.2	
297.43	3554.6	
297.64	4976.6	
297.85	4950.6	
298.06	3015.3	
298.27	3250.1	
298.48	5461.9	
298.69	5081.7	
298.9	3885.7	
299.11	3519.1	
299.31	4877.6	
299.52	4948.6	
299.73	4192.2	
299.94	4055	
300.15	5354.8	
300.36	5001.8	
300.57	4128	
300.78	4083.6	
300.99	5283.1	
301.2	5501.5	
301.4	3587.4	
301.61	3911.6	
301.82	5657.2	
302.03	5771.9	
302.24	4396.3	
302.45	3467.2	
302.66	5667.4	
302.87	6156.2	
303.08	3658.4	
303.29	4914.4	
303.49	5123.3	
303.7	5353.4	
303.91	3232.4	
304.12	4693.3	
304.33	4847.5	
304.54	5478.3	
304.75	3633.1	
304.96	3467.9	
305.16	5685.8	
305.37	6436.8	
305.58	3173.7	
305.79	3227.6	
306	5708.4	
306.21	4792.9	
306.42	3572.3	
306.63	5562.3	
306.83	5212.1	
307.04	5982.1	
307.25	4009.2	
307.46	3971	
307.67	4608.6	
307.88	5801.2	
308.09	3572.3	
308.29	3658.4	
308.5	5417.6	
308.71	5958.9	
308.92	3848.8	
309.13	3490.4	
309.34	5285.8	
309.55	5306.3	
309.75	4517.1	
309.96	4101.4	
310.17	5782.8	
310.38	5072.1	
310.59	4302.8	
310.8	4062.5	
311.01	6351.4	
311.21	5244.8	
311.42	3429	
311.63	3566.9	
311.84	5149.3	
312.05	5504.9	
312.26	3994.2	
312.46	4403.1	
312.67	5201.2	
312.88	4913.1	
313.09	3435.8	
313.3	3390.8	
313.51	6134.3	
313.71	6440.2	
313.92	3474.7	
314.13	3676.1	
314.34	5545.2	
314.55	5332.2	
314.76	4515.1	
314.96	3906.8	
315.17	5492	
315.38	5939.1	
315.59	3504.8	
315.8	3349.1	
316.01	6262.7	
316.21	6294.1	
316.42	3360	
316.63	3833.1	
316.84	5236.7	
317.05	6060.6	
317.26	4093.9	
317.46	3688.4	
317.67	5329.5	
317.88	5735	
318.09	4119.8	
318.3	3226.2	
318.5	5076.2	
318.71	5719.3	
318.92	5611.4	
319.13	4095.9	
319.34	5874.9	
319.54	5977.3	
319.75	3253.5	
319.96	3111.5	
320.17	5767.8	
320.38	5930.9	
320.58	3191.4	
320.79	3831.1	
321	5937.7	
321.21	6089.3	
321.42	3863.2	
321.62	3216	
321.83	4973.2	
322.04	5384.1	
322.25	3676.1	
322.46	3491.8	
322.66	5493.3	
322.87	5668.8	
323.08	4322.6	
323.29	3429	
323.5	6423.1	
323.7	4984.8	
323.91	4752.7	
324.12	4260.5	
324.33	5455.8	
324.53	5662	
324.74	4085	
324.95	4326.7	
325.16	4827.7	
325.37	5216.9	
325.57	3504.8	
325.78	3557.3	
325.99	5427.8	
326.2	4925.4	
326.4	5115.8	
326.61	3198.9	
326.82	5279	
327.03	5458.5	
327.24	4941.7	
327.44	4788.8	
327.65	5588.9	
327.86	4584	
328.07	4061.1	
328.27	3335.5	
328.48	6017.6	
328.69	4895.3	
328.9	5083.7	
329.1	3751.2	
329.31	5285.8	
329.52	6193.1	
329.73	3479.5	
329.93	3969.6	
330.14	5371.8	
330.35	5646.9	
330.56	5821.7	
330.76	4294.6	
330.97	5248.9	
331.18	5694.7	
331.39	3891.1	
331.59	3153.2	
331.8	5984.8	
332.01	6080.4	
332.22	3564.8	
332.42	4104.1	
332.63	5453.7	
332.84	5085.1	
333.05	3866.6	
333.25	3502.7	
333.46	5139	
333.67	5373.9	
333.88	3674.7	
334.08	4086.4	
334.29	7185	
334.5	6057.2	
334.7	3419.4	
334.91	4989.5	
335.12	4962.2	
335.33	5770.5	
335.53	3913	
335.74	5705.6	
335.95	5165	
336.16	5056.4	
336.36	3883.6	
336.57	4461.2	
336.78	4909	
336.98	5931.6	
337.19	4693.9	
337.4	3801	
337.61	6528.2	
337.81	4909	
338.02	3548.4	
338.23	4632.5	
338.43	6106.4	
338.64	4987.5	
338.85	3515.7	
339.05	4607.9	
339.26	6200.6	
339.47	4825.7	
339.68	3510.2	
339.88	5212.1	
340.09	5606.7	
340.3	5801.9	
340.5	4104.8	
340.71	3077.4	
340.92	4829.1	
341.13	6126.2	
341.33	3364.8	
341.54	4111.6	
341.75	5579.3	
341.95	5195.7	
342.16	3959.4	
342.37	4258.4	
342.57	4954.7	
342.78	5299.5	
342.99	4392.2	
343.19	3140.2	
343.4	5813.5	
343.61	5663.3	
343.81	3720.5	
344.02	3420.1	
344.23	5757.5	
344.43	6198.5	
344.64	4328	
344.85	4235.9	
345.06	5659.9	
345.26	6001.9	
345.47	4030.4	
345.68	4734.9	
345.88	4730.1	
346.09	5836	
346.3	4175.1	
346.5	3091.8	
346.71	5382.1	
346.92	5100.1	
347.12	3235.1	
347.33	4037.2	
347.54	5950.7	
347.74	6319.3	
347.95	3997.6	
348.16	3012.6	
348.36	5208.7	
348.57	4897.4	
348.78	3960.1	
348.98	4298.7	
349.19	5371.8	
349.39	4818.9	
349.6	3217.4	
349.81	3489.7	
350.01	5614.2	
350.22	5061.9	
350.43	3863.8	
350.63	4655.7	
350.84	5408.7	
351.05	5150.6	
351.25	3516.4	
351.46	3177.1	
351.67	5993.7	
351.87	5066	
352.08	3694.5	
352.29	4279.6	
352.49	5766.4	
352.7	5944.6	
352.9	3349.1	
353.11	4207.9	
353.32	6517.3	
353.52	5208	
353.73	3319.8	
353.94	4332.1	
354.14	5656.5	
354.35	5456.5	
354.55	3415.3	
354.76	3869.3	
354.97	5612.1	
355.17	5375.2	
355.38	3256.3	
355.59	4607.9	
355.79	4988.2	
356	5460.6	
356.2	3812	
356.41	3281.5	
356.62	4776.5	
356.82	5250.3	
357.03	4096.6	
357.24	3697.9	
357.44	5059.8	
357.65	5202.5	
357.85	4964.3	
358.06	3842.7	
358.27	4752.7	
358.47	5027.8	
358.68	3246	
358.88	4073.4	
359.09	5587.5	
359.3	5897.5	
359.5	4774.5	
359.71	4209.3	
359.91	6321.4	
360.12	5776.6	
360.33	3998.3	
360.53	4488.5	
360.74	5018.9	
360.94	5094	
361.15	4272.1	
361.36	3488.4	
361.56	5827.2	
361.77	5219.6	
361.97	4674.8	
362.18	3721.8	
362.38	5836	
362.59	4873.5	
362.8	3411.2	
363	3242.6	
363.21	4678.9	
363.41	5367	
363.62	3936.2	
363.83	4896	
364.03	5463.3	
364.24	6434	
364.44	5030.5	
364.65	5013.4	
364.85	5193.6	
365.06	5072.1	
365.27	3558.7	
365.47	3578.5	
365.68	6164.4	
365.88	5179.3	
366.09	3999.7	
366.29	3653.6	
366.5	5411.4	
366.71	5782.8	
366.91	4937.7	
367.12	4136.2	
367.32	6433.4	
367.53	5706.3	
367.73	4049.5	
367.94	5036	
368.14	5610.1	
368.35	6556.2	
368.56	4077.5	
368.76	3820.8	
368.97	5758.2	
369.17	7423.2	
369.38	3512.9	
369.58	3861.1	
369.79	4798.4	
369.99	6087.2	
370.2	4809.3	
370.4	3888.4	
370.61	5454.4	
370.82	6602	
371.02	3862.5	
371.23	3138.9	
371.43	4635.2	
371.64	6001.2	
371.84	3869.3	
372.05	4996.4	
372.25	7216.4	
372.46	5774.6	
372.66	3756	
372.87	3743.7	
373.07	5757.5	
373.28	7260.7	
373.48	4863.9	
373.69	4502.1	
373.9	5253	
374.1	5276.3	
374.31	4752.7	
374.51	4263.9	
374.72	6042.2	
374.92	4918.5	
375.13	4833.2	
375.33	4061.8	
375.54	5600.5	
375.74	5044.8	
375.95	4109.6	
376.15	5322.7	
376.36	5554.8	
376.56	5434.6	
376.77	4211.3	
376.97	4614.8	
377.18	6661.4	
377.38	5680.4	
377.59	4896	
377.79	3642.7	
378	5417.6	
378.2	5847	
378.41	3729.4	
378.61	3624.2	
378.82	5891.3	
379.02	4981.3	
379.23	3900	
379.43	4909	
379.64	5971.9	
379.84	5607.3	
380.05	3637.2	
380.25	3603.1	
380.46	5726.1	
380.66	5328.1	
380.87	4987.5	
381.07	5376.6	
381.28	6332.3	
381.48	5751.4	
381.69	3731.4	
381.89	3810.6	
382.1	4722.6	
382.3	5930.2	
382.51	4847.5	
382.71	5741.8	
382.91	5771.9	
383.12	6297.5	
383.32	4076.1	
383.53	4335.5	
383.73	5591	
383.94	5400.5	
384.14	4236.6	
384.35	3398.3	
384.55	5382.1	
384.76	5766.4	
384.96	4084.3	
385.17	4420.2	
385.37	5719.3	
385.58	5020.3	
385.78	4416.1	
385.98	3269.9	
386.19	5244.2	
386.39	5599.8	
386.6	3909.6	
386.8	4119.8	
387.01	5725.4	
387.21	5743.2	
387.42	4519.9	
387.62	5033.9	
387.83	5029.1	
388.03	5737	
388.23	4141	
388.44	4932.2	
388.64	4676.2	
388.85	4823.6	
389.05	4498	
389.26	5104.9	
389.46	6672.3	
389.67	6099.5	
389.87	4421.6	
390.07	4489.8	
390.28	5307	
390.48	4922.6	
390.69	3675.4	
390.89	4022.2	
391.1	5051.7	
391.3	6060.6	
391.5	5189.6	
391.71	5747.3	
391.91	5804.6	
392.12	6841.6	
392.32	5286.5	
392.53	4448.2	
392.73	5141.8	
392.93	5360.9	
393.14	4166.9	
393.34	4902.8	
393.55	5920	
393.75	5381.4	
393.95	4184	
394.16	4097.3	
394.36	5120.6	
394.57	5842.9	
394.77	3645.4	
394.98	4040	
395.18	5041.4	
395.38	5202.5	
395.59	4897.4	
395.79	3820.8	
396	5222.3	
396.2	5756.8	
396.4	4646.8	
396.61	4611.3	
396.81	5879.7	
397.02	5088.5	
397.22	4917.9	
397.42	5020.9	
397.63	5821	
397.83	5012.7	
398.04	3749.8	
398.24	4280.3	
398.44	5630.5	
398.65	4586.8	
398.85	3599	
399.05	3704.8	
399.26	4985.4	
399.46	6665.5	
399.67	4079.6	
399.87	3842	
400.07	5330.2	
400.28	5700.9	
400.48	3951.9	
400.69	5004.6	
400.89	5935.7	
401.09	6314.6	
401.3	3757.3	
401.5	4878.9	
401.7	6579.4	
401.91	6873.7	
402.11	4134.2	
402.32	4347.8	
402.52	5954.8	
402.72	5857.9	
402.93	4610	
403.13	3497.2	
403.33	6735.8	
403.54	5388.2	
403.74	4363.5	
403.94	5237.3	
404.15	5537	
404.35	6677.7	
404.56	4160.1	
404.76	5963.7	
404.96	5970.5	
405.17	5793	
405.37	4983.4	
405.57	4555.4	
405.78	5967.1	
405.98	5414.8	
406.18	4063.9	
406.39	5048.2	
406.59	5925.5	
406.79	5577.3	
407	3893.2	
407.2	4058.4	
407.4	5950	
407.61	6225.1	
407.81	3959.4	
408.01	6319.3	
408.22	4905.6	
408.42	6879.8	
408.62	5044.1	
408.83	4468	
409.03	5461.9	
409.23	5285.1	
409.44	4569.7	
409.64	4866.7	
409.84	6400.6	
410.05	6219	
410.25	4665.3	
410.45	4363.5	
410.66	5715.9	
410.86	8161.8	
411.06	4786.1	
411.27	4650.9	
411.47	7904.5	
411.67	5912.5	
411.88	4954.7	
412.08	5145.2	
412.28	6543.9	
412.49	7001.3	
412.69	4602.5	
412.89	4643.4	
413.09	6861.4	
413.3	6658.6	
413.5	4734.9	
413.7	4263.9	
413.91	5975.3	
414.11	6796.5	
414.31	4570.4	
414.52	4967.7	
414.72	6451.1	
414.92	6353.5	
415.12	4547.2	
415.33	5113.1	
415.53	6728.3	
415.73	7013.6	
415.94	5418.2	
416.14	4894.6	
416.34	5703.6	
416.55	5509	
416.75	6032.6	
416.95	5450.3	
417.15	6692.1	
417.36	7394.5	
417.56	6289.3	
417.76	5273.5	
417.97	7084.6	
418.17	6810.9	
418.37	4885.8	
418.57	4891.2	
418.78	6574.7	
418.98	6225.8	
419.18	5818.3	
419.38	5662	
419.59	6307.1	
419.79	5885.9	
419.99	4851.6	
420.2	5254.4	
420.4	6733.7	
420.6	6993.8	
420.8	4752	
421.01	4629.1	
421.21	6614.9	
421.41	6716	
421.61	5239.4	
421.82	4858.5	
422.02	6087.9	
422.22	7128.3	
422.42	5652.4	
422.63	5373.2	
422.83	6214.2	
423.03	7390.4	
423.23	5335.6	
423.44	4317.1	
423.64	6406	
423.84	6051.1	
424.04	4791.6	
424.25	4401.8	
424.45	7229.3	
424.65	7172	
424.85	4212	
425.06	4823.6	
425.26	7227.3	
425.46	6212.9	
425.66	5328.8	
425.87	4997.7	
426.07	7015	
426.27	6840.2	
426.47	5145.2	
426.67	4545.1	
426.88	7339.9	
427.08	6810.9	
427.28	5427.1	
427.48	4495.3	
427.69	5674.9	
427.89	6402	
428.09	5377.3	
428.29	4509.6	
428.5	7065.5	
428.7	6575.3	
428.9	4398.4	
429.1	5071.5	
429.3	6512.5	
429.51	6963.8	
429.71	4681.7	
429.91	5537	
430.11	6776	
430.31	6983.6	
430.52	5037.3	
430.72	5409.4	
430.92	7305.1	
431.12	6788.3	
431.32	4653	
431.53	5122.7	
431.73	5694.7	
431.93	7461.4	
432.13	4616.1	
432.33	4422.9	
432.54	6247	
432.74	6608.8	
432.94	4382	
433.14	5525.4	
433.34	6735.8	
433.55	6238.8	
433.75	5436	
433.95	7190.4	
434.15	6515.3	
434.35	6168.5	
434.56	4617.5	
434.76	4063.2	
434.96	6496.8	
435.16	6699.6	
435.36	4493.2	
435.56	5599.8	
435.77	6156.9	
435.97	6301.6	
436.17	6273.6	
436.37	5543.9	
436.57	6078.4	
436.78	5999.9	
436.98	6653.9	
437.18	6110.5	
437.38	6711.9	
437.58	6259.3	
437.78	6322.1	
437.99	4931.5	
438.19	6793.1	
438.39	7617.1	
438.59	4941.1	
438.79	4421.6	
438.99	7512.6	
439.2	6296.8	
439.4	4548.5	
439.6	4436.6	
439.8	6581.5	
440	7698.3	
440.2	5509	
440.4	5619.6	
440.61	7038.9	
440.81	7586.4	
441.01	4672.8	
441.21	5533.6	
441.41	7384.3	
441.61	6936.5	
441.81	5865.4	
442.02	6908.5	
442.22	7873.1	
442.42	7100.3	
442.62	4745.1	
442.82	4786.8	
443.02	7338.6	
443.22	6492.1	
443.43	5152.7	
443.63	4765.6	
443.83	6322.1	
444.03	6315.9	
444.23	5870.8	
444.43	5576.6	
444.63	6546	
444.83	7889.5	
445.04	4868.7	
445.24	6148	
445.44	7062.8	
445.64	7105.1	
445.84	5642.8	
446.04	5565.7	
446.24	6366.5	
446.44	7428	
446.65	4899.4	
446.85	5292.6	
447.05	6872.3	
447.25	7419.1	
447.45	5328.1	
447.65	4677.6	
447.85	6696.2	
448.05	6355.5	
448.25	5767.8	
448.46	5557.5	
448.66	6754.9	
448.86	6477.7	
449.06	4516.5	
449.26	5751.4	
449.46	7097.6	
449.66	6096.8	
449.86	5247.6	
450.06	5173.9	
450.26	6356.2	
450.47	6946.7	
450.67	5522	
450.87	5874.3	
451.07	7001.3	
451.27	6767.9	
451.47	4840	
451.67	5375.9	
451.87	6402	
452.07	7635.5	
452.27	5098.8	
452.47	4974.5	
452.67	6743.3	
452.88	7321.5	
453.08	4378.6	
453.28	6386.9	
453.48	7926.3	
453.68	6755.6	
453.88	4962.9	
454.08	5146.5	
454.28	7043	
454.48	6756.2	
454.68	5707.7	
454.88	6206	
455.08	7165.8	
455.28	6878.4	
455.48	4823	
455.68	5398.4	
455.89	7670.3	
456.09	7248.4	
456.29	5225.7	
456.49	5167	
456.69	7485.3	
456.89	6798.6	
457.09	5672.9	
457.29	6087.9	
457.49	7075.7	
457.69	7281.9	
457.89	5499.5	
458.09	4896	
458.29	6869.6	
458.49	7561.8	
458.69	5898.1	
458.89	5356.1	
459.09	7726.3	
459.29	7918.8	
459.49	5431.2	
459.69	6274.3	
459.9	7294.9	
460.1	6830	
460.3	5360.9	
460.5	5134.9	
460.7	7307.8	
460.9	7044.3	
461.1	4756.7	
461.3	6121.4	
461.5	7940	
461.7	7567.2	
461.9	5130.2	
462.1	5711.1	
462.3	7047.1	
462.5	7684	
462.7	5268.7	
462.9	5333.6	
463.1	8671.8	
463.3	8314.8	
463.5	5629.2	
463.7	6453.1	
463.9	7210.2	
464.1	7581.6	
464.3	5623.7	
464.5	5904.3	
464.7	7830.1	
464.9	7488.1	
465.1	7224.6	
465.3	6187.6	
465.5	8247.9	
465.7	8195.3	
465.9	6438.8	
466.1	6317.3	
466.3	7948.8	
466.5	7861.5	
466.7	7211.6	
466.9	6087.2	
467.1	7751.6	
467.3	8664.3	
467.5	7105.8	
467.7	5924.8	
467.9	8918.9	
468.1	9792	
468.3	6778.8	
468.5	7197.9	
468.7	7656	
468.9	7645.8	
469.1	6247	
469.3	6877.8	
469.5	9638.4	
469.7	7154.2	
469.9	6751.5	
470.1	6049.7	
470.3	7677.2	
470.5	7709.2	
470.7	7290.1	
470.9	6171.9	
471.1	7490.8	
471.3	8000.7	
471.5	5935	
471.69	7876.5	
471.89	7375.4	
472.09	6864.1	
472.29	6712.6	
472.49	7189.1	
472.69	7126.9	
472.89	7997.3	
473.09	5771.2	
473.29	5933	
473.49	7262.1	
473.69	7517.4	
473.89	6963.8	
474.09	6234	
474.29	8789.9	
474.49	8404.2	
474.69	6990.4	
474.89	6316.6	
475.09	7533.1	
475.29	7506.5	
475.49	5683.8	
475.69	5915.2	
475.88	9080	
476.08	7756.3	
476.28	5608	
476.48	6093.4	
476.68	8292.2	
476.88	8112.7	
477.08	5957.5	
477.28	6247.7	
477.48	7610.3	
477.68	8355.7	
477.88	5767.1	
478.08	6112.5	
478.28	8535.3	
478.48	7722.2	
478.67	6209.4	
478.87	5640.8	
479.07	8402.1	
479.27	7770	
479.47	6389	
479.67	6411.5	
479.87	8147.5	
480.07	8778.3	
480.27	5612.8	
480.47	7271.7	
480.67	7864.9	
480.87	8411	
481.06	5992.4	
481.26	6825.2	
481.46	7775.5	
481.66	7736.5	
481.86	6397.9	
482.06	7432.8	
482.26	7481.9	
482.46	8366	
482.66	6326.2	
482.86	5952.8	
483.05	7908.6	
483.25	7350.2	
483.45	8838.4	
483.65	6346.7	
483.85	7456	
484.05	7677.8	
484.25	6800.6	
484.45	7236.2	
484.65	8686.1	
484.84	8622.6	
485.04	6217	
485.24	6277.7	
485.44	8895	
485.64	7239.6	
485.84	5595.1	
486.04	6925.5	
486.24	7693.5	
486.44	8044.4	
486.63	5624.4	
486.83	6262	
487.03	7478.5	
487.23	7708.6	
487.43	5679.7	
487.63	7949.5	
487.83	7792.5	
488.02	8928.5	
488.22	6587.6	
488.42	7199.3	
488.62	8626.7	
488.82	7553.6	
489.02	6307.7	
489.22	6322.8	
489.41	8510	
489.61	8116.1	
489.81	6027.2	
490.01	6057.2	
490.21	8427.4	
490.41	9037.7	
490.61	5917.9	
490.8	6134.3	
491	7823.9	
491.2	7173.4	
491.4	6714.6	
491.6	5879	
491.8	7976.2	
491.99	8085.4	
492.19	5686.5	
492.39	6092	
492.59	8467	
492.79	8555.7	
492.99	6864.1	
493.18	5999.2	
493.38	8512	
493.58	9247.3	
493.78	6768.5	
493.98	6292	
494.18	8273.8	
494.37	7737.9	
494.57	6913.3	
494.77	6923.5	
494.97	8475.9	
495.17	8715.5	
495.37	6364.4	
495.56	6694.8	
495.76	8905.9	
495.96	8553	
496.16	7619.8	
496.36	6531.7	
496.55	8687.5	
496.75	8157.1	
496.95	6929	
497.15	6864.8	
497.35	8725	
497.54	8662.2	
497.74	6624.5	
497.94	8361.9	
498.14	9398.8	
498.34	9118.9	
498.53	6327.5	
498.73	7176.1	
498.93	8102.4	
499.13	8680	
499.33	6895.5	
499.52	7275.8	
499.72	8662.2	
499.92	9050	
500.12	6599.2	
500.32	6873.7	
500.51	8934.6	
500.71	8693.6	
500.91	7604.8	
501.11	7263.5	
501.31	8841.1	
501.5	9260.2	
501.7	7943.4	
501.9	6842.3	
502.1	8608.3	
502.29	9010.4	
502.49	7404.1	
502.69	7719.5	
502.89	8808.3	
503.09	8892.3	
503.28	6414.9	
503.48	6455.9	
503.68	8035.5	
503.88	8046.5	
504.07	7490.1	
504.27	6953.5	
504.47	8501.8	
504.67	8585.1	
504.86	7461.4	
505.06	7172.7	
505.26	8110.6	
505.46	10004	
505.65	7012.2	
505.85	7232.1	
506.05	8106.5	
506.25	8633.6	
506.44	6336.4	
506.64	7340.6	
506.84	8028	
507.04	8899.1	
507.23	6620.4	
507.43	7165.8	
507.63	9998.2	
507.83	8305.2	
508.02	7087.3	
508.22	6685.3	
508.42	10258	
508.62	7958.4	
508.81	7005.4	
509.01	7566.6	
509.21	7967.3	
509.4	8267.6	
509.6	7173.4	
509.8	6556.2	
510	8193.9	
510.19	9673.9	
510.39	6544.6	
510.59	6607.4	
510.79	7948.2	
510.98	9363.3	
511.18	6704.4	
511.38	6841.6	
511.57	8789.9	
511.77	8761.2	
511.97	7466.9	
512.17	6457.9	
512.36	8798.1	
512.56	8796.7	
512.76	6583.5	
512.95	6354.2	
513.15	9031.5	
513.35	7563.1	
513.55	7401.4	
513.74	6610.8	
513.94	8905.3	
514.14	8198	
514.33	7591.8	
514.53	7219.1	
514.73	8277.2	
514.92	8496.3	
515.12	6756.2	
515.32	6635.4	
515.51	8511.4	
515.71	9217.9	
515.91	8405.5	
516.11	6711.2	
516.3	10200	
516.5	8129.1	
516.7	7240.9	
516.89	7841	
517.09	8297	
517.29	8172.1	
517.48	7551.5	
517.68	6920.8	
517.88	8069.7	
518.07	8675.2	
518.27	7514	
518.47	6470.9	
518.66	9319.6	
518.86	7837.6	
519.06	6392.4	
519.25	6748.7	
519.45	8245.1	
519.65	9702.6	
519.84	7387	
520.04	8077.9	
520.24	10015	
520.43	8899.8	
520.63	7127.6	
520.83	6923.5	
521.02	8034.2	
521.22	8767.4	
521.42	7460.8	
521.61	7981.6	
521.81	8314.1	
522.01	8454.7	
522.2	7332.4	
522.4	7137.2	
522.6	9019.3	
522.79	7899	
522.99	7152.2	
523.18	6453.8	
523.38	8800.1	
523.58	8704.5	
523.77	8511.4	
523.97	6457.2	
524.17	10649	
524.36	9718.3	
524.56	7922.9	
524.76	7547.4	
524.95	8836.3	
525.15	8457.4	
525.34	7312.6	
525.54	7286.7	
525.74	9106.6	
525.93	8155	
526.13	8488.8	
526.33	7307.8	
526.52	9488.9	
526.72	8958.5	
526.91	8550.3	
527.11	7802.1	
527.31	9530.6	
527.5	9985.9	
527.7	7746.8	
527.89	6756.9	
528.09	8534.6	
528.29	9091.6	
528.48	8146.1	
528.68	7811.6	
528.87	9421.3	
529.07	9469.1	
529.27	7641	
529.46	7212.3	
529.66	9097.1	
529.85	9536.7	
530.05	6992.4	
530.25	7820.5	
530.44	10484	
530.64	8985.1	
530.83	7524.2	
531.03	7730.4	
531.23	9538.1	
531.42	9323.7	
531.62	8583.7	
531.81	7689.4	
532.01	9633	
532.21	10133	
532.4	7453.2	
532.6	7845.1	
532.79	10544	
532.99	9662.3	
533.18	7882.6	
533.38	8868.4	
533.58	9247.3	
533.77	10056	
533.97	7789.1	
534.16	8723	
534.36	10204	
534.55	9313.5	
534.75	8850.6	
534.95	7925	
535.14	10130	
535.34	9207.7	
535.53	7577.5	
535.73	9435.7	
535.92	10593	
536.12	9536	
536.31	7694.2	
536.51	8941.4	
536.71	9742.9	
536.9	9437	
537.1	7866.9	
537.29	7968	
537.49	10258	
537.68	9323.7	
537.88	8436.3	
538.07	7659.4	
538.27	9488.2	
538.46	10609	
538.66	7602.7	
538.86	7889.5	
539.05	9511.4	
539.25	9914.9	
539.44	8236.2	
539.64	7843.7	
539.83	9459.6	
540.03	10416	
540.22	7755	
540.42	7888.8	
540.61	9657.5	
540.81	9807.7	
541	8357.8	
541.2	9064.3	
541.39	9241.1	
541.59	9601.6	
541.78	8647.9	
541.98	7761.1	
542.18	8863.6	
542.37	8833.6	
542.57	8147.5	
542.76	8660.2	
542.96	8981.7	
543.15	9671.9	
543.35	8113.4	
543.54	7406.1	
543.74	9912.9	
543.93	9538.8	
544.13	8036.2	
544.32	9174.2	
544.52	9841.2	
544.71	9030.9	
544.91	7144	
545.1	8396.7	
545.3	9083.4	
545.49	9842.5	
545.69	7188.4	
545.88	7783	
546.08	10731	
546.27	10348	
546.47	8307.2	
546.66	7526.3	
546.86	10024	
547.05	10618	
547.24	7842.4	
547.44	7638.2	
547.63	8997.4	
547.83	10086	
548.02	8076.5	
548.22	8286.1	
548.41	8770.1	
548.61	10173	
548.8	7629.4	
549	7520.8	
549.19	9441.8	
549.39	9683.5	
549.58	7259.4	
549.78	7935.9	
549.97	9802.3	
550.17	9232.2	
550.36	8750.3	
550.55	9770.2	
550.75	9276.6	
550.94	10188	
551.14	7552.9	
551.33	8008.2	
551.53	8660.9	
551.72	9619.3	
551.92	7934.5	
552.11	7699	
552.31	9750.4	
552.5	9724.4	
552.69	9430.9	
552.89	7338.6	
553.08	9630.2	
553.28	9377	
553.47	7692.2	
553.67	8801.5	
553.86	10319	
554.06	8668.4	
554.25	6899.6	
554.44	7540.6	
554.64	11102	
554.83	10559	
555.03	7489.4	
555.22	7912.7	
555.42	9865.1	
555.61	9499.8	
555.8	7669.6	
556	7991.2	
556.19	8702.5	
556.39	9892.4	
556.58	7611.6	
556.78	7623.9	
556.97	9476.6	
557.16	9138	
557.36	8942.8	
557.55	7325.6	
557.75	8467.7	
557.94	10246	
558.13	7434.1	
558.33	7166.5	
558.52	9988.6	
558.72	8883.4	
558.91	7359.7	
559.1	7610.3	
559.3	8602.8	
559.49	8358.4	
559.69	6825.2	
559.88	7943.4	
560.07	9420	
560.27	9757.9	
560.46	8102.4	
560.66	8303.8	
560.85	9211.8	
561.04	8396	
561.24	7345.4	
561.43	7563.8	
561.63	8585.8	
561.82	9018.6	
562.01	8758.5	
562.21	7790.5	
562.4	9369.5	
562.59	10301	
562.79	7667.6	
562.98	7258	
563.18	9247.3	
563.37	10755	
563.56	8099.7	
563.76	7188.4	
563.95	8726.4	
564.14	8712.7	
564.34	7675.8	
564.53	7436.9	
564.73	9272.5	
564.92	9594.1	
565.11	7759.1	
565.31	7170.6	
565.5	9841.2	
565.69	8781	
565.89	7435.5	
566.08	7691.5	
566.27	9680.1	
566.47	10174	
566.66	8260.8	
566.85	6952.2	
567.05	9265.7	
567.24	8626	
567.44	7307.8	
567.63	8681.3	
567.82	9578.3	
568.02	9299.1	
568.21	7291.5	
568.4	7790.5	
568.6	9083.4	
568.79	9132.6	
568.98	7072.3	
569.18	7348.1	
569.37	9092.3	
569.56	11151	
569.76	7683.3	
569.95	8609.7	
570.14	9536.7	
570.34	9335.3	
570.53	7145.4	
570.72	7124.2	
570.91	9967.5	
571.11	9050	
571.3	7636.2	
571.49	8534.6	
571.69	9169.4	
571.88	8674.5	
572.07	8055.3	
572.27	8150.2	
572.46	8734.6	
572.65	9678.7	
572.85	7381.6	
573.04	7770.7	
573.23	9965.4	
573.43	9203.6	
573.62	7139.9	
573.81	7843	
574	9198.1	
574.2	9031.5	
574.39	7520.1	
574.58	7744.7	
574.78	10051	
574.97	9336	
575.16	8023.3	
575.36	8163.2	
575.55	9810.5	
575.74	9905.3	
575.93	7098.9	
576.13	8179.6	
576.32	9049.3	
576.51	9676	
576.71	7638.2	
576.9	8909.3	
577.09	10012	
577.28	9465	
577.48	8071.7	
577.67	7064.1	
577.86	9153.7	
578.05	9402.2	
578.25	7687.4	
578.44	7831.4	
578.63	9295.7	
578.83	10329	
579.02	7104.4	
579.21	8667.7	
579.4	9529.9	
579.6	9093.7	
579.79	8019.2	
579.98	10102	
580.17	9777	
580.37	9932	
580.56	7297.6	
580.75	8144.8	
580.94	10347	
581.14	10080	
581.33	8609	
581.52	7498.3	
581.71	9667.8	
581.91	10405	
582.1	7201.3	
582.29	7856	
582.48	9408.4	
582.68	9284.8	
582.87	8292.2	
583.06	7845.8	
583.25	9648.7	
583.45	8994.7	
583.64	8624.7	
583.83	9241.1	
584.02	9230.9	
584.21	9536.7	
584.41	8568.7	
584.6	7856	
584.79	9361.9	
584.98	10030	
585.18	7344	
585.37	7353.6	
585.56	8865	
585.75	9580.4	
585.94	7490.1	
586.14	8209.6	
586.33	10277	
586.52	9196.7	
586.71	8058.8	
586.91	7735.9	
587.1	8637	
587.29	9691	
587.48	7608.9	
587.67	7551.5	
587.87	9529.9	
588.06	9568.1	
588.25	8852.7	
588.44	8097	
588.63	9127.1	
588.83	9677.3	
589.02	7516.7	
589.21	7382.2	
589.4	8862.9	
589.59	8767.4	
589.78	6619	
589.98	6934.4	
590.17	8349.6	
590.36	8954.4	
590.55	6277	
590.74	7166.5	
590.94	10183	
591.13	8839	
591.32	6860.7	
591.51	6496.2	
591.7	9291	
591.89	8748.2	
592.09	6550.8	
592.28	7087.3	
592.47	8084.7	
592.66	9868.5	
592.85	6559	
593.05	6836.1	
593.24	8636.3	
593.43	9362.6	
593.62	6860	
593.81	7358.4	
594	8707.3	
594.19	8795.3	
594.39	6827.2	
594.58	6732.4	
594.77	8926.4	
594.96	9474.6	
595.15	6694.8	
595.34	7318.1	
595.54	8965.3	
595.73	8174.1	
595.92	6088.6	
596.11	7217.7	
596.3	9486.2	
596.49	8161.8	
596.68	7081.2	
596.88	7551.5	
597.07	9364.7	
597.26	7981.6	
597.45	6570.6	
597.64	7724.3	
597.83	8351.6	
598.02	8883.4	
598.22	6604.7	
598.41	7325.6	
598.6	8658.1	
598.79	8135.2	
598.98	6752.2	
599.17	7656	
599.36	8720.9	
599.55	9929.2	
599.74	8752.3	
599.94	8429.4	
600.13	9249.3	
600.32	8173.4	
600.51	6397.2	
600.7	6623.8	
600.89	9905.3	
601.08	9974.3	
601.27	6398.5	
601.47	7410.2	
601.66	9241.8	
601.85	9840.5	
602.04	7114.6	
602.23	7335.8	
602.42	8350.9	
602.61	8998.1	
602.8	6997.9	
602.99	6752.2	
603.18	8601.5	
603.37	8941.4	
603.57	7407.5	
603.76	7942.7	
603.95	9603.6	
604.14	9247.3	
604.33	6936.5	
604.52	7225.9	
604.71	8916.9	
604.9	8490.2	
605.09	7763.2	
605.28	7686.7	
605.47	9410.4	
605.66	9106.6	
605.86	7428	
606.05	6924.2	
606.24	9374.2	
606.43	8007.6	
606.62	7178.8	
606.81	7984.3	
607	9273.2	
607.19	8611.7	
607.38	6623.8	
607.57	6746	
607.76	8318.8	
607.95	7841	
608.14	7169.9	
608.33	7863.5	
608.52	8365.3	
608.72	9224.7	
608.91	6531.7	
609.1	6419.7	
609.29	8492.9	
609.48	7950.2	
609.67	7342.7	
609.86	6475.7	
610.05	8023.9	
610.24	8409.6	
610.43	6378.1	
610.62	6014.2	
610.81	9602.9	
611	9250.7	
611.19	6479.1	
611.38	7245	
611.57	8720.9	
611.76	10042	
611.95	6249	
612.14	6123.4	
612.33	8502.5	
612.52	8019.2	
612.71	6819.7	
612.9	6001.9	
613.09	7673.1	
613.28	10023	
613.47	6482.5	
613.66	7492.8	
613.85	8606.2	
614.04	8189.8	
614.24	6720.8	
614.43	5810.1	
614.62	8761.9	
614.81	8636.3	
615	7153.6	
615.19	7247.1	
615.38	8079.9	
615.57	8413.7	
615.76	7088.7	
615.95	7996	
616.14	8729.1	
616.33	8434.2	
616.52	7336.5	
616.71	7669.6	
616.9	8731.9	
617.09	8609	
617.28	6728.9	
617.47	7951.6	
617.66	7877.9	
617.85	7957.7	
618.04	7737.9	
618.22	7040.9	
618.41	8199.4	
618.6	9037	
618.79	6997.2	
618.98	6754.9	
619.17	9353.1	
619.36	7732.4	
619.55	6873.7	
619.74	6897.6	
619.93	8694.3	
620.12	8133.2	
620.31	7447.1	
620.5	7613.7	
620.69	9198.1	
620.88	9596.8	
621.07	8348.9	
621.26	7389.1	
621.45	8936.7	
621.64	8781	
621.83	7395.9	
622.02	6650.4	
622.21	8910.7	
622.4	8645.8	
622.59	8028.7	
622.78	7729	
622.97	8324.3	
623.16	9214.5	
623.35	7346.7	
623.54	6570.6	
623.72	8476.5	
623.91	8727.1	
624.1	7630.7	
624.29	6334.4	
624.48	9671.2	
624.67	8911.4	
624.86	7607.5	
625.05	6601.3	
625.24	9763.3	
625.43	8189.8	
625.62	9244.5	
625.81	6808.8	
626	9253.4	
626.19	8460.8	
626.38	7643.7	
626.56	6983.6	
626.75	8303.1	
626.94	9013.8	
627.13	7450.5	
627.32	6299.6	
627.51	8966	
627.7	10242	
627.89	6465.4	
628.08	7565.2	
628.27	8056	
628.46	8389.8	
628.65	6760.3	
628.83	6384.9	
629.02	8914.1	
629.21	8144.8	
629.4	7208.8	
629.59	7395.9	
629.78	8260.8	
629.97	9112.1	
630.16	7377.5	
630.35	6857.3	
630.54	9523.7	
630.72	9319.6	
630.91	6810.9	
631.1	7439.6	
631.29	8708	
631.48	8955.1	
631.67	7561.8	
631.86	7012.9	
632.05	8318.8	
632.24	8367.3	
632.42	6612.2	
632.61	7217.7	
632.8	8539.3	
632.99	8097	
633.18	7225.2	
633.37	7718.8	
633.56	8773.5	
633.75	8513.4	
633.93	7260.7	
634.12	6961	
634.31	9610.4	
634.5	9133.9	
634.69	6941.2	
634.88	7422.5	
635.07	8545.5	
635.25	9050	
635.44	7892.2	
635.63	8099	
635.82	8407.6	
636.01	7909.3	
636.2	7822.6	
636.39	7329.7	
636.57	9572.9	
636.76	9192.6	
636.95	6766.5	
637.14	8197.3	
637.33	8852	
637.52	9794.1	
637.7	6575.3	
637.89	7499.7	
638.08	8354.3	
638.27	9871.9	
638.46	7590.5	
638.65	8044.4	
638.83	9865.1	
639.02	8232.8	
639.21	7460.1	
639.4	7972.7	
639.59	8787.8	
639.78	8284.7	
639.96	6827.2	
640.15	6779.5	
640.34	8529.8	
640.53	8649.9	
640.72	6472.3	
640.91	6847.7	
641.09	8007.6	
641.28	9349	
641.47	7145.4	
641.66	7622.5	
641.85	8641.1	
642.03	8921.6	
642.22	7411.6	
642.41	6979.5	
642.6	8071	
642.79	7540.6	
642.97	6626.5	
643.16	7389.1	
643.35	8063.5	
643.54	7866.2	
643.73	6563.1	
643.91	7361.8	
644.1	7686	
644.29	8328.4	
644.48	6640.2	
644.67	6631.3	
644.85	7890.1	
645.04	8218.5	
645.23	6232	
645.42	6587	
645.6	7722.9	
645.79	8848.6	
645.98	6533.7	
646.17	5498.8	
646.36	7447.8	
646.54	8058.8	
646.73	7245.7	
646.92	6040.1	
647.11	7638.2	
647.29	8794.7	
647.48	6123.4	
647.67	5892.7	
647.86	8976.9	
648.05	8963.3	
648.23	6506.4	
648.42	7791.8	
648.61	8340	
648.8	8161.2	
648.98	6130.3	
649.17	6531	
649.36	7658.7	
649.55	7202.7	
649.73	6171.9	
649.92	6915.3	
650.11	7578.2	
650.3	7897	
650.48	6407.4	
650.67	5986.2	
650.86	8193.9	
651.05	7115.3	
651.23	6330.3	
651.42	6228.6	
651.61	7682.6	
651.79	7808.2	
651.98	6437.4	
652.17	6109.8	
652.36	8039	
652.54	7196.6	
652.73	6064.7	
652.92	5881.8	
653.11	8113.4	
653.29	8196	
653.48	5399.8	
653.67	6414.2	
653.85	7851.9	
654.04	8853.4	
654.23	6615.6	
654.42	6038.8	
654.6	7291.5	
654.79	8062.9	
654.98	5563	
655.16	6144.6	
655.35	6995.2	
655.54	6961	
655.73	5718.6	
655.91	5601.2	
656.1	8125.7	
656.29	6827.2	
656.47	5192.3	
656.66	6924.9	
656.85	7175.4	
657.03	7279.2	
657.22	5854.5	
657.41	5793.7	
657.59	7371.3	
657.78	7154.2	
657.97	5524.7	
658.16	6214.2	
658.34	8005.5	
658.53	8371.4	
658.72	7167.2	
658.9	7676.5	
659.09	7399.3	
659.28	7443.7	
659.46	5883.8	
659.65	5920.7	
659.84	7221.8	
660.02	7778.9	
660.21	5763	
660.4	5683.1	
660.58	8215.8	
660.77	7539.3	
660.96	6402.6	
661.14	5440.1	
661.33	8685.4	
661.52	8553	
661.7	5366.4	
661.89	9071.1	
662.08	7176.8	
662.26	6709.1	
662.45	5666	
662.64	5732.9	
662.82	7766.6	
663.01	7150.1	
663.2	5851.7	
663.38	6535.8	
663.57	7783	
663.75	7674.4	
663.94	6067.4	
664.13	7366.5	
664.31	7068.9	
664.5	7807.5	
664.69	6307.7	
664.87	6911.9	
665.06	6800.6	
665.25	7686	
665.43	7126.2	
665.62	7223.2	
665.8	8013	
665.99	7260.7	
666.18	6077.7	
666.36	6215.6	
666.55	7987.8	
666.74	7844.4	
666.92	5769.8	
667.11	7406.8	
667.29	7226.6	
667.48	7856.7	
667.67	7022.5	
667.85	6152.1	
668.04	7253.2	
668.22	7335.1	
668.41	6175.3	
668.6	6321.4	
668.78	7121.5	
668.97	7327.6	
669.15	6511.9	
669.34	5470.8	
669.53	7109.9	
669.71	7489.4	
669.9	5588.2	
670.08	6355.5	
670.27	7140.6	
670.46	7669	
670.64	6513.2	
670.83	6730.3	
671.01	6976.7	
671.2	7667.6	
671.38	5744.6	
671.57	5646.9	
671.76	8241.7	
671.94	8888.2	
672.13	5549.3	
672.31	6688.7	
672.5	7821.2	
672.69	7176.1	
672.87	5761.6	
673.06	5988.9	
673.24	7659.4	
673.43	7189.1	
673.61	6440.9	
673.8	5995.1	
673.98	7821.2	
674.17	8031.5	
674.36	6640.9	
674.54	6499.6	
674.73	7620.5	
674.91	7849.9	
675.1	6143.9	
675.28	5822.4	
675.47	7337.2	
675.65	7909.9	
675.84	6110.5	
676.03	6381.5	
676.21	7183.6	
676.4	6678.4	
676.58	6886.6	
676.77	6509.1	
676.95	8572.8	
677.14	7028.6	
677.32	5696.1	
677.51	5543.2	
677.69	7985	
677.88	6739.9	
678.06	5595.7	
678.25	5703.6	
678.44	7350.2	
678.62	7098.3	
678.81	5440.8	
678.99	6381.5	
679.18	8159.1	
679.36	7724.9	
679.55	5943.2	
679.73	6662	
679.92	7738.6	
680.1	7090.8	
680.29	7248.4	
680.47	6018.3	
680.66	7077.1	
680.84	7896.3	
681.03	5261.9	
681.21	6391	
681.4	7191.8	
681.58	6918	
681.77	5746.6	
681.95	5664	
682.14	7900.4	
682.32	8291.5	
682.51	6565.1	
682.69	5480.4	
682.88	7079.1	
683.06	7696.3	
683.25	6339.8	
683.43	6843.6	
683.62	7337.9	
683.8	7694.9	
683.99	6889.4	
684.17	6133.7	
684.36	8535.3	
684.54	7154.9	
684.73	5392.3	
684.91	5578	
685.1	7487.4	
685.28	6894.8	
685.46	6066.1	
685.65	6175.3	
685.83	7755.7	
686.02	7096.9	
686.2	5591.6	
686.39	5810.1	
686.57	6712.6	
686.76	8415.1	
686.94	5552.7	
687.13	5681.7	
687.31	7576.1	
687.5	7184.3	
687.68	5220.3	
687.86	6506.4	
688.05	8856.8	
688.23	6526.2	
688.42	6507.1	
688.6	5735.7	
688.79	7055.9	
688.97	7045	
689.16	6158.2	
689.34	5024.3	
689.52	7873.8	
689.71	7961.8	
689.89	6397.9	
690.08	5704.3	
690.26	7312.6	
690.45	7139.9	
690.63	6552.8	
690.81	5777.3	
691	7036.8	
691.18	6973.3	
691.37	6067.4	
691.55	8243.1	
691.74	6973.3	
691.92	8941.4	
692.1	6025.8	
692.29	5451.7	
692.47	7195.2	
692.66	6411.5	
692.84	5663.3	
693.02	6353.5	
693.21	6639.5	
693.39	7159.7	
693.58	6397.9	
693.76	5727.5	
693.94	8351.6	
694.13	8175.5	
694.31	5756.2	
694.5	6857.3	
694.68	7124.2	
694.86	7309.9	
695.05	6213.5	
695.23	6332.3	
695.42	7755.7	
695.6	10101	
695.78	6795.8	
695.97	5819.6	
696.15	7843	
696.34	7172	
696.52	5666.7	
696.7	6554.2	
696.89	7529.7	
697.07	6953.5	
697.25	6417	
697.44	8002.8	
697.62	7503.8	
697.81	7866.9	
697.99	6096.1	
698.17	6597.2	
698.36	6866.2	
698.54	7539.9	
698.72	6440.9	
698.91	5500.8	
699.09	7159	
699.28	7031.4	
699.46	6162.3	
699.64	5993.7	
699.83	7003.4	
700.01	8288.8	
700.19	6838.9	
700.38	5279.7	
700.56	8306.6	
700.74	7069.6	
700.93	5752.7	
701.11	6546	
701.29	7732.4	
701.48	8820.6	
701.66	5942.5	
701.84	5920	
702.03	7210.2	
702.21	7996	
702.39	5605.3	
702.58	6145.3	
702.76	7692.2	
702.94	7817.8	
703.13	5560.9	
703.31	7981.6	
703.49	7029.3	
703.68	8169.3	
703.86	5803.9	
704.04	6829.3	
704.23	7630.7	
704.41	7962.5	
704.59	5995.1	
704.78	7276.4	
704.96	8644.5	
705.14	8067.6	
705.33	5817.6	
705.51	6556.9	
705.69	7462.1	
705.87	8348.2	
706.06	6847	
706.24	5726.1	
706.42	7823.2	
706.61	8123.6	
706.79	6927.6	
706.97	5771.2	
707.16	7257.3	
707.34	7839.6	
707.52	6895.5	
707.7	6088.6	
707.89	7359.7	
708.07	7137.2	
708.25	6918	
708.44	7023.2	
708.62	7283.3	
708.8	8544.8	
708.98	7202.7	
709.17	6154.1	
709.35	7810.3	
709.53	7811	
709.72	5875.6	
709.9	6023.1	
710.08	8042.4	
710.26	8123.6	
710.45	7513.3	
710.63	6175.3	
710.81	7742.7	
710.99	7767.9	
711.18	6830	
711.36	6350.1	
711.54	7583.6	
711.72	8237.6	
711.91	6414.2	
712.09	5726.1	
712.27	7709.2	
712.45	8333.9	
712.64	6588.3	
712.82	5589.6	
713	7145.4	
713.18	7281.2	
713.37	5689.9	
713.55	6830.7	
713.73	8058.8	
713.91	6611.5	
714.1	5967.1	
714.28	5414.1	
714.46	7670.3	
714.64	6827.9	
714.83	4826.4	
715.01	5687.9	
715.19	6892.1	
715.37	6292.7	
715.55	5417.6	
715.74	5623.7	
715.92	7789.1	
716.1	5761.6	
716.28	6741.9	
716.47	5780.1	
716.65	6470.2	
716.83	6580.1	
717.01	5644.9	
717.19	5765	
717.38	8668.4	
717.56	6300.9	
717.74	6010.1	
717.92	5082.4	
718.1	7627.3	
718.29	6855.9	
718.47	4777.9	
718.65	5496.1	
718.83	7515.4	
719.01	7419.1	
719.2	4778.6	
719.38	5819.6	
719.56	7161.7	
719.74	8848.6	
719.92	5348.6	
720.11	6479.8	
720.29	7240.9	
720.47	6312.5	
720.65	4888.5	
720.83	5782.8	
721.02	6657.3	
721.2	6383.5	
721.38	5771.2	
721.56	5065.3	
721.74	5868.1	
721.92	6094.1	
722.11	6350.1	
722.29	6025.8	
722.47	7369.3	
722.65	6533.7	
722.83	5099.4	
723.01	6034	
723.2	6618.4	
723.38	6946.7	
723.56	4519.9	
723.74	5644.9	
723.92	6100.9	
724.1	7338.6	
724.29	5001.8	
724.47	6186.9	
724.65	6169.8	
724.83	6104.3	
725.01	4946.5	
725.19	5866.1	
725.37	6181.5	
725.56	6262.7	
725.74	4774.5	
725.92	5038.7	
726.1	6070.2	
726.28	6427.2	
726.46	5528.2	
726.64	5197.1	
726.83	6426.5	
727.01	6718	
727.19	4773.8	
727.37	5657.2	
727.55	6615.6	
727.73	7061.4	
727.91	4760.8	
728.09	4589.5	
728.28	7117.4	
728.46	7767.3	
728.64	5794.4	
728.82	5829.2	
729	8339.3	
729.18	7583.6	
729.36	5004.6	
729.54	7400	
729.72	8624	
729.91	6935.1	
730.09	7027.9	
730.27	5764.3	
730.45	6791.1	
730.63	7570.7	
730.81	6455.2	
730.99	5496.7	
731.17	8015.1	
731.35	6599.2	
731.53	6038.8	
731.71	5601.2	
731.9	7722.2	
732.08	7925.6	
732.26	5840.8	
732.44	5585.5	
732.62	8009.6	
732.8	7472.4	
732.98	6288.6	
733.16	5339.7	
733.34	7443.7	
733.52	6204	
733.7	5829.2	
733.88	6132.3	
734.07	7280.5	
734.25	7091.4	
734.43	5276.9	
734.61	6915.3	
734.79	8571.4	
734.97	6932.4	
735.15	5465.3	
735.33	5830.6	
735.51	7262.8	
735.69	6937.2	
735.87	6881.9	
736.05	6013.5	
736.23	7133.1	
736.41	6876.4	
736.59	5842.9	
736.77	5982.8	
736.95	7650.5	
737.13	7081.2	
737.32	5558.9	
737.5	5726.8	
737.68	8258.8	
737.86	6967.2	
738.04	5300.8	
738.22	7202	
738.4	6744.6	
738.58	7081.9	
738.76	5949.3	
738.94	4862.6	
739.12	6894.1	
739.3	6755.6	
739.48	6580.8	
739.66	6377.4	
739.84	7124.2	
740.02	7165.2	
740.2	5002.5	
740.38	5459.2	
740.56	7579.5	
740.74	6421.7	
740.92	6053.8	
741.1	6022.4	
741.28	6967.2	
741.46	6825.9	
741.64	5575.9	
741.82	6146	
742	6981.5	
742.18	7017	
742.36	5775.3	
742.54	5407.3	
742.72	7565.9	
742.9	6331	
743.08	6149.4	
743.26	4957.4	
743.44	7799.3	
743.62	7529	
743.8	6278.4	
743.98	5455.1	
744.16	7225.2	
744.34	6877.1	
744.52	6227.2	
744.7	6209.4	
744.88	7453.2	
745.06	6937.8	
745.24	6219.7	
745.42	6374.6	
745.6	7522.2	
745.78	7234.1	
745.96	5092.6	
746.14	5436.7	
746.32	8267	
746.5	7533.8	
746.68	5961.6	
746.86	5453.7	
747.03	7919.5	
747.21	6193.7	
747.39	5933	
747.57	5418.2	
747.75	7120.8	
747.93	7394.5	
748.11	5468.1	
748.29	5345.2	
748.47	8681.3	
748.65	6867.5	
748.83	6171.2	
749.01	5821	
749.19	7316	
749.37	6485.2	
749.55	5752.1	
749.73	5748.6	
749.91	6967.9	
750.09	6691.4	
750.26	5868.1	
750.44	5269.4	
750.62	7007.5	
750.8	6952.2	
750.98	5066	
751.16	5389.6	
751.34	6987	
751.52	6367.8	
751.7	6242.9	
751.88	5033.2	
752.06	7496.9	
752.24	7315.3	
752.42	4975.2	
752.59	5360.9	
752.77	6894.1	
752.95	8166.6	
753.13	6125.5	
753.31	5535.7	
753.49	6610.8	
753.67	7017	
753.85	5771.9	
754.03	5429.8	
754.21	7280.5	
754.38	7638.2	
754.56	5494	
754.74	4494.6	
754.92	6478.4	
755.1	7110.5	
755.28	4401.8	
755.46	4346.5	
755.64	7668.3	
755.82	7775.5	
755.99	4473.4	
756.17	4597.7	
756.35	5134.9	
756.53	6741.9	
756.71	3348.4	
756.89	4334.9	
757.07	6279.8	
757.25	5343.2	
757.42	4874.2	
757.6	5913.2	
757.78	6507.1	
757.96	5417.6	
758.14	4695.3	
758.32	4237.2	
758.5	4923.3	
758.67	5842.9	
758.85	4408.6	
759.03	4655	
759.21	5995.1	
759.39	5430.5	
759.57	4051.6	
759.75	5314.5	
759.92	6726.2	
760.1	5884.5	
760.28	5582.1	
760.46	5905.7	
760.64	5750.7	
760.82	5473.5	
760.99	5597.1	
761.17	4648.2	
761.35	6662.7	
761.53	5595.1	
761.71	4939.7	
761.89	5599.1	
762.06	6595.1	
762.24	6085.2	
762.42	4935.6	
762.6	4836.6	
762.78	6147.3	
762.96	6787	
763.13	5304.9	
763.31	5123.3	
763.49	6957.6	
763.67	6118	
763.85	5872.9	
764.02	6597.2	
764.2	7250.5	
764.38	6450.4	
764.56	4922	
764.74	5851.7	
764.91	7385	
765.09	6209.4	
765.27	4693.3	
765.45	4472.1	
765.63	7407.5	
765.8	7209.5	
765.98	4232.5	
766.16	4575.8	
766.34	5670.8	
766.52	5526.8	
766.69	5453.7	
766.87	4418.2	
767.05	6231.3	
767.23	6873	
767.41	4715.8	
767.58	4972.5	
767.76	6784.2	
767.94	6772.6	
768.12	4699.4	
768.29	5575.3	
768.47	6242.2	
768.65	6935.1	
768.83	4334.9	
769	5509	
769.18	5780.1	
769.36	6451.1	
769.54	5548.6	
769.72	4361.5	
769.89	6686.6	
770.07	6883.9	
770.25	4675.5	
770.43	6035.4	
770.6	7579.5	
770.78	7980.3	
770.96	4893.3	
771.14	4719.2	
771.31	6623.8	
771.49	6013.5	
771.67	3965.6	
771.85	4244.1	
772.02	5180	
772.2	5990.3	
772.38	5040.7	
772.55	4614.8	
772.73	6240.2	
772.91	6016.9	
773.09	4908.3	
773.26	4982	
773.44	6236.1	
773.62	5868.8	
773.8	4373.8	
773.97	4046.8	
774.15	6300.9	
774.33	5851.7	
774.5	4228.4	
774.68	4601.8	
774.86	6468.9	
775.04	5890.6	
775.21	4360.8	
775.39	4265.2	
775.57	6133.7	
775.74	6533.7	
775.92	4148.5	
776.1	4011.3	
776.27	6019.7	
776.45	7382.9	
776.63	4315.8	
776.81	3814	
776.98	5724.1	
777.16	6784.9	
777.34	4420.9	
777.51	4426.3	
777.69	5652.4	
777.87	5488.6	
778.04	4412.7	
778.22	5101.5	
778.4	5481	
778.57	6114.6	
778.75	3719.1	
778.93	4027.7	
779.1	5231.9	
779.28	5108.3	
779.46	3689.1	
779.64	4250.9	
779.81	6227.9	
779.99	7174.7	
780.17	5018.2	
780.34	5091.3	
780.52	5684.5	
780.69	5866.7	
780.87	4414.7	
781.05	4098.7	
781.22	5770.5	
781.4	5842.2	
781.58	4193.6	
781.75	3349.8	
781.93	5751.4	
782.11	5124	
782.28	4965.6	
782.46	4180.6	
782.64	5044.1	
782.81	6054.5	
782.99	4323.9	
783.17	4210.6	
783.34	5851	
783.52	5014.1	
783.69	4493.9	
783.87	5264	
784.05	5120.6	
784.22	5130.8	
784.4	5230.5	
784.58	4510.3	
784.75	6059.9	
784.93	5151.3	
785.1	4151.2	
785.28	4778.6	
785.46	5780.7	
785.63	5115.1	
785.81	4131.4	
785.99	3971	
786.16	5311.1	
786.34	5730.2	
786.51	4014	
786.69	4377.9	
786.87	4855.1	
787.04	5429.8	
787.22	3859.1	
787.39	4804.5	
787.57	5093.3	
787.75	6263.4	
787.92	5008	
788.1	4880.3	
788.27	5155.4	
788.45	4932.9	
788.63	4686.4	
788.8	3378.5	
788.98	5672.9	
789.15	4814.8	
789.33	3449.5	
789.5	4104.8	
789.68	6072.9	
789.86	6220.4	
790.03	4532.8	
790.21	3943	
790.38	5986.9	
790.56	5225.1	
790.73	3802.4	
790.91	3881.6	
791.09	5141.1	
791.26	5905	
791.44	4073.4	
791.61	3551.2	
791.79	5096.7	
791.96	5161.6	
792.14	3637.9	
792.32	3203.7	
792.49	5117.9	
792.67	5241.4	
792.84	3745.7	
793.02	3506.1	
793.19	5540.4	
793.37	6285.9	
793.54	3291.8	
793.72	3564.1	
793.89	6503	
794.07	5130.2	
794.25	4231.8	
794.42	3310.9	
794.6	6128.9	
794.77	5724.8	
794.95	4429.8	
795.12	3882.9	
795.3	5033.2	
795.47	5734.3	
795.65	4333.5	
795.82	4088.4	
796	4904.9	
796.17	6815	
796.35	4070.7	
796.52	4702.1	
796.7	5646.9	
796.87	5702.9	
797.05	4896	
797.22	4838	
797.4	5709.1	
797.57	6705.7	
797.75	4110.3	
797.92	3861.8	
798.1	6022.4	
798.27	5033.2	
798.45	3348.4	
798.62	3562.1	
798.8	5360.2	
798.97	5954.8	
799.15	4367.6	
799.32	4147.1	
799.5	4648.9	
799.67	5461.2	
799.85	4426.3	
800.02	3250.1	
800.2	5027.8	
800.37	5378	
800.55	4648.9	
800.72	3829	
800.9	5812.8	
801.07	6254.5	
801.25	5225.7	
801.42	4250.2	
801.6	5879	
801.77	5564.3	
801.95	3979.2	
802.12	3794.2	
802.29	5542.5	
802.47	5569.1	
802.64	4235.2	
802.82	3174.4	
802.99	4975.2	
803.17	6070.2	
803.34	4066.6	
803.52	3733.4	
803.69	6677.7	
803.87	4763.6	
804.04	4115.1	
804.21	4166.3	
804.39	6144.6	
804.56	5238	
804.74	3459.7	
804.91	4259.1	
805.09	5035.3	
805.26	5125.4	
805.44	3527.3	
805.61	3881.6	
805.78	5739.8	
805.96	5735.7	
806.13	4308.2	
806.31	4574.5	
806.48	4581.3	
806.66	5166.3	
806.83	4246.1	
807	4173.1	
807.18	5002.5	
807.35	5438	
807.53	4117.1	
807.7	3329.3	
807.87	6128.9	
808.05	5042.8	
808.22	4506.9	
808.4	3315	
808.57	5114.5	
808.74	4724	
808.92	3765.5	
809.09	4788.8	
809.27	4954	
809.44	5584.8	
809.61	3331.4	
809.79	3665.2	
809.96	6209.4	
810.14	5863.3	
810.31	3223.5	
810.48	3945.1	
810.66	5137.7	
810.83	5890.6	
811.01	3767.6	
811.18	4222.9	
811.35	5823.1	
811.53	4513	
811.7	4615.4	
811.87	4237.9	
812.05	5102.9	
812.22	5003.9	
812.39	3680.2	
812.57	3523.2	
812.74	5094	
812.92	6774.7	
813.09	4034.5	
813.26	4357.4	
813.44	6515.3	
813.61	4995.7	
813.78	3299.3	
813.96	4425.7	
814.13	5059.8	
814.3	4750.6	
814.48	4764.9	
814.65	3980.6	
814.82	6309.1	
815	4839.4	
815.17	4064.5	
815.34	5014.1	
815.52	5014.1	
815.69	4976.6	
815.87	4109.6	
816.04	3491.1	
816.21	5105.6	
816.38	4443.4	
816.56	3902.1	
816.73	3684.3	
816.9	6407.4	
817.08	5804.6	
817.25	3669.3	
817.42	4615.4	
817.6	4647.5	
817.77	5091.9	
817.94	4165.6	
818.12	3640.6	
818.29	4783.4	
818.46	7539.3	
818.64	3807.2	
818.81	3525.9	
818.98	4725.3	
819.16	6946.7	
819.33	4383.3	
819.5	4093.9	
819.67	5472.9	
819.85	6087.9	
820.02	4034.5	
820.19	4212.7	
820.37	5311.1	
820.54	4868.7	
820.71	4193.6	
820.88	5084.4	
821.06	5269.4	
821.23	4868	
821.4	4164.2	
821.58	4114.4	
821.75	5816.2	
821.92	5253.7	
822.09	3358	
822.27	3410.6	
822.44	5116.5	
822.61	4967	
822.79	3358	
822.96	6488	
823.13	5575.9	
823.3	4822.3	
823.48	3897.3	
823.65	3468.6	
823.82	5785.5	
823.99	4621.6	
824.17	4891.2	
824.34	3520.5	
824.51	6722.1	
824.68	5128.8	
824.86	3708.9	
825.03	4164.9	
825.2	5133.6	
825.37	6113.2	
825.55	3627	
825.72	4074.1	
825.89	6786.3	
826.06	6186.9	
826.24	3913	
826.41	4002.4	
826.58	6188.3	
826.75	5474.9	
826.92	3166.2	
827.1	3515.7	
827.27	8452	
827.44	6715.3	
827.61	3776.5	
827.79	4575.2	
827.96	4833.9	
828.13	5153.4	
828.3	3934.1	
828.47	3353.9	
828.65	5307.7	
828.82	5281.7	
828.99	5151.3	
829.16	4534.2	
829.34	5670.8	
829.51	5466	
829.68	4057.7	
829.85	4227.7	
830.02	5961.6	
830.2	5755.5	
830.37	3132.7	
830.54	4958.1	
830.71	6510.5	
830.88	5017.5	
831.05	3195.5	
831.23	3685	
831.4	6133	
831.57	7019.1	
831.74	3754.6	
831.91	3251.5	
832.09	5281.7	
832.26	5718.6	
832.43	3880.9	
832.6	4441.4	
832.77	5332.9	
832.94	6082.5	
833.12	3144.3	
833.29	3913	
833.46	4923.3	
833.63	7220.5	
833.8	4244.8	
833.97	3960.8	
834.15	5737	
834.32	5463.3	
834.49	4035.9	
834.66	4137.6	
834.83	5902.9	
835	4848.9	
835.17	3779.2	
835.35	3799.7	
835.52	5589.6	
835.69	5470.8	
835.86	4011.3	
836.03	3251.5	
836.2	5650.3	
836.37	5279.7	
836.55	3945.1	
836.72	3695.2	
836.89	5218.2	
837.06	5698.1	
837.23	4012	
837.4	4393.6	
837.57	6464.1	
837.75	7190.4	
837.92	3579.2	
838.09	3852.2	
838.26	5240.8	
838.43	5959.6	
838.6	4134.8	
838.77	3648.1	
838.94	6790.4	
839.11	6583.5	
839.29	3918.4	
839.46	3135.4	
839.63	5628.5	
839.8	5404.6	
839.97	3845.4	
840.14	3819.5	
840.31	5444.9	
840.48	5730.2	
840.65	3142.3	
840.82	3705.5	
841	5661.3	
841.17	5617.6	
841.34	3478.1	
841.51	3546.4	
841.68	5563.6	
841.85	5317.9	
842.02	3648.8	
842.19	2994.8	
842.36	5366.4	
842.53	5378.6	
842.7	3512.3	
842.87	4294.6	
843.05	7202	
843.22	5369.8	
843.39	3353.2	
843.56	3621.5	
843.73	5137.7	
843.9	5713.2	
844.07	5699.5	
844.24	4722.6	
844.41	8316.8	
844.58	4933.6	
844.75	3365.5	
844.92	3629	
845.09	5637.4	
845.26	5679	
845.43	3491.8	
845.6	3678.2	
845.77	5644.9	
845.94	5384.8	
846.12	3889.1	
846.29	4126	
846.46	5894.1	
846.63	5625.1	
846.8	3459.7	
846.97	4145.8	
847.14	6096.8	
847.31	5655.8	
847.48	3936.2	
847.65	4339.6	
847.82	5990.3	
847.99	5881.1	
848.16	4622.3	
848.33	4354	
848.5	5223	
848.67	6136.4	
848.84	3484.3	
849.01	3661.1	
849.18	5075.5	
849.35	4773.8	
849.52	4331.5	
849.69	3440.6	
849.86	5847	
850.03	6062.7	
850.2	3482.9	
850.37	4274.1	
850.54	6001.2	
850.71	5351.3	
850.88	4240	
851.05	3433.1	
851.22	5582.1	
851.39	6238.8	
851.56	3293.8	
851.73	4013.3	
851.9	4969.7	
852.07	5876.3	
852.24	3883.6	
852.41	3448.1	
852.58	5541.1	
852.75	5012.7	
852.92	3937.6	
853.09	3396.2	
853.26	5197.1	
853.43	6110.5	
853.6	3485.6	
853.77	2937.5	
853.94	6218.3	
854.11	5568.4	
854.28	5181.4	
854.44	3749.1	
854.61	6635.4	
854.78	5690.6	
854.95	3485.6	
855.12	4447.5	
855.29	4610.7	
855.46	6351.4	
855.63	3459	
855.8	4791.6	
855.97	5258.5	
856.14	6016.9	
856.31	4885.8	
856.48	3742.3	
856.65	5218.9	
856.82	4957.4	
856.99	3354.6	
857.16	3744.4	
857.33	6873	
857.49	5346.6	
857.66	3710.9	
857.83	4051.6	
858	5262.6	
858.17	5395	
858.34	3257.6	
858.51	3491.1	
858.68	6397.2	
858.85	6324.8	
859.02	4058.4	
859.19	4280.9	
859.36	4932.9	
859.52	4963.6	
859.69	3489.7	
859.86	4134.8	
860.03	5046.2	
860.2	6205.3	
860.37	3158	
860.54	3537.5	
860.71	5882.4	
860.88	6346.7	
861.05	3910.3	
861.21	4371	
861.38	6365.8	
861.55	4880.3	
861.72	3178.4	
861.89	3884.3	
862.06	5984.2	
862.23	6462.7	
862.4	3326.6	
862.56	3639.2	
862.73	5787.6	
862.9	5416.2	
863.07	4133.5	
863.24	3134.1	
863.41	4805.2	
863.58	5006.6	
863.75	3545	
863.91	3989.4	
864.08	6201.2	
864.25	5814.2	
864.42	4361.5	
864.59	4846.9	
864.76	6624.5	
864.93	4979.3	
865.09	3393.5	
865.26	3736.2	
865.43	6201.2	
865.6	6527.6	
865.77	3021.4	
865.94	3458.3	
866.1	6234.7	
866.27	5931.6	
866.44	5144.5	
866.61	3313.6	
866.78	5311.7	
866.95	5780.1	
867.11	3399.6	
867.28	3054.2	
867.45	6000.5	
867.62	5052.3	
867.79	4093.9	
867.96	3469.9	
868.12	4960.2	
868.29	5920.7	
868.46	3471.3	
868.63	4602.5	
868.8	6126.2	
868.97	5843.5	
869.13	3613.3	
869.3	3605.1	
869.47	5808	
869.64	6014.9	
869.81	3530.7	
869.97	3484.3	
870.14	5670.8	
870.31	6392.4	
870.48	3398.3	
870.65	4365.6	
870.81	5246.9	
870.98	5242.1	
871.15	3938.9	
871.32	3579.8	
871.48	5767.1	
871.65	6353.5	
871.82	3463.1	
871.99	3856.3	
872.16	6789	
872.32	6205.3	
872.49	3495.9	
872.66	3579.8	
872.83	5885.2	
872.99	5171.8	
873.16	3982.6	
873.33	3436.5	
873.5	5494	
873.67	5517.2	
873.83	3659.7	
874	4689.8	
874.17	5696.1	
874.34	6681.2	
874.5	4454.3	
874.67	4328.7	
874.84	6326.9	
875.01	4965.6	
875.17	4858.5	
875.34	3473.4	
875.51	5598.5	
875.68	6702.3	
875.84	4197.7	
876.01	5133.6	
876.18	5832.6	
876.34	5827.2	
876.51	3517.7	
876.68	3442	
876.85	5353.4	
877.01	6148.7	
877.18	5009.3	
877.35	3437.2	
877.52	5466	
877.68	4934.9	
877.85	3392.8	
878.02	3436.5	
878.18	5443.5	
878.35	5105.6	
878.52	2790	
878.69	3892.5	
878.85	5914.5	
879.02	5842.2	
879.19	4918.5	
879.35	3745.1	
879.52	5823.1	
879.69	6019.7	
879.86	3048.1	
880.02	3876.1	
880.19	5386.8	
880.36	6638.8	
880.52	4019.5	
880.69	4106.2	
880.86	5940.5	
881.02	5993	
881.19	3811.3	
881.36	3794.9	
881.52	5828.5	
881.69	5187.5	
881.86	3746.4	
882.02	3661.8	
882.19	6085.2	
882.36	7143.3	
882.52	3558.7	
882.69	4874.2	
882.86	5646.9	
883.02	5584.8	
883.19	4228.4	
883.36	4037.2	
883.52	5938.4	
883.69	6826.6	
883.86	3530	
884.02	3127.2	
884.19	5885.9	
884.36	5420.3	
884.52	3962.1	
884.69	3670.6	
884.86	5175.9	
885.02	6536.4	
885.19	3867.2	
885.36	4020.2	
885.52	5470.1	
885.69	5595.7	
885.86	5070.1	
886.02	4480.3	
886.19	5924.8	
886.35	5304.9	
886.52	3863.2	
886.69	4855.1	
886.85	4995	
887.02	6211.5	
887.19	6211.5	
887.35	6211.5	
887.52	6211.5	
887.68	6211.5	
887.85	6211.5	
888.02	6211.5	
888.18	6211.5	
888.35	6211.5	
888.51	6211.5	
888.68	6211.5	
888.85	6211.5	
889.01	6211.5	
889.18	6211.5	
889.35	6211.5	
889.51	6211.5	
889.68	6211.5	
889.84	6211.5	
890.01	6211.5	
890.17	6211.5	
890.34	6211.5	
890.51	6211.5	
890.67	6211.5	
890.84	6211.5	
891	6211.5	
891.17	6211.5	
891.34	6211.5	
891.5	6211.5	
891.67	6211.5	
891.83	6211.5	
892	6211.5	
892.16	6211.5	
892.33	6211.5	
892.5	6211.5	
892.66	6211.5	
892.83	6211.5	
892.99	6211.5	
893.16	6211.5	
893.32	6211.5	
893.49	6211.5	
893.65	6211.5	
893.82	6211.5	
893.99	6211.5	
894.15	6211.5	
894.32	6211.5	
894.48	6211.5	
894.65	6211.5	
894.81	6211.5	
894.98	6211.5	
895.14	6211.5	
895.31	6211.5	
895.47	6211.5	
895.64	6211.5	
895.81	6211.5	
895.97	6211.5	
896.14	6211.5	
896.3	6211.5	
896.47	6211.5	
896.63	6211.5	
896.8	6211.5	
896.96	6211.5	
897.13	6211.5	
897.29	6211.5	
897.46	6211.5	
897.62	6211.5	
897.79	6211.5	
897.95	6211.5	
898.12	6211.5	
898.28	6211.5	
898.45	6211.5	
898.61	6211.5	
898.78	6211.5	
898.94	6211.5	
899.11	6211.5	
899.27	6211.5	
899.44	6211.5	
899.6	6211.5	
899.77	6211.5	
899.93	6211.5	
900.1	6211.5	
900.26	6211.5	
900.43	6211.5	
900.59	6211.5	
900.76	6211.5	
900.92	6211.5	
901.09	6211.5	
901.25	6211.5	
901.42	6211.5	
901.58	6211.5	
901.75	6211.5	
901.91	6211.5	
902.07	6211.5	
902.24	6211.5	
902.4	6211.5	
902.57	6211.5	
902.73	6211.5	
902.9	6211.5	
903.06	6211.5	
903.23	6211.5	
903.39	6211.5	
903.56	6211.5	
903.72	6211.5	
903.88	6211.5	
904.05	6211.5	
904.21	6211.5	
904.38	6211.5	
904.54	6211.5	
904.71	6211.5	
904.87	6211.5	
905.03	6211.5	
905.2	6211.5	
905.36	6211.5	
905.53	6211.5	
905.69	6211.5	
905.86	6211.5	
906.02	6211.5	
906.18	6211.5	
906.35	6211.5	
906.51	6211.5	
906.68	6211.5	
906.84	6211.5	
907.01	6211.5	
907.17	6211.5	
907.33	6211.5	
907.5	6211.5	
907.66	6211.5	
907.83	6211.5	
907.99	6211.5	
908.15	6211.5	
908.32	6211.5	
908.48	6211.5	
908.65	6211.5	
908.81	6211.5	
908.97	6211.5	
909.14	6211.5	
909.3	6211.5	
909.47	6211.5	
909.63	6211.5	
909.79	6211.5	
909.96	6211.5	
910.12	6211.5	
910.28	6211.5	
910.45	6211.5	
910.61	6211.5	
910.78	6211.5	
910.94	6211.5	
911.1	6211.5	
911.27	6211.5	
911.43	6211.5	
911.59	6211.5	
911.76	6211.5	
911.92	6211.5	
912.08	6211.5	
912.25	6211.5	
912.41	6211.5	
912.57	6211.5	
912.74	6211.5	
912.9	6211.5	
913.07	6211.5	
913.23	6211.5	
913.39	6211.5	
913.56	6211.5	
913.72	6211.5	
913.88	6211.5	
914.05	6211.5	
914.21	6211.5	
914.37	6211.5	
914.54	6211.5	
914.7	6211.5	
914.86	6211.5	
915.03	6211.5	
915.19	6211.5	
