Wavelength	Intensities	
nm	a.u.	
179.22	1936.5	
179.44	1939.1	
179.65	1934	
179.86	1944.2	
180.08	1934.6	
180.29	5083.7	
180.51	3618.1	
180.72	5755.5	
180.94	6750.8	
181.15	3345	
181.37	3317.7	
181.58	5580	
181.79	5953.4	
182.01	3482.9	
182.22	3699.3	
182.44	5914.5	
182.65	4907.6	
182.87	4761.5	
183.08	4140.3	
183.29	6229.9	
183.51	5113.8	
183.72	3770.3	
183.94	5618.3	
184.15	5526.8	
184.37	5576.6	
184.58	3253.5	
184.79	4577.2	
185.01	5098.1	
185.22	5952.8	
185.44	4858.5	
185.65	4076.8	
185.86	5365.7	
186.08	4979.3	
186.29	3197.6	
186.51	3472.7	
186.72	5136.3	
186.94	6041.5	
187.15	4029	
187.36	4182	
187.58	7945.4	
187.79	5592.3	
188.01	4348.5	
188.22	6789.7	
188.43	6784.9	
188.65	5858.6	
188.86	3430.3	
189.08	4154.6	
189.29	5380	
189.5	5340.4	
189.72	3898	
189.93	3941	
190.15	6091.3	
190.36	7363.8	
190.57	4260.5	
190.79	4100.7	
191	6225.8	
191.22	6213.5	
191.43	4212.7	
191.64	3461.7	
191.86	6419.7	
192.07	6143.2	
192.29	3657.7	
192.5	3882.9	
192.71	6103.6	
192.93	5219.6	
193.14	3767.6	
193.35	3913.7	
193.57	5296	
193.78	6201.9	
194	3095.8	
194.21	3774.4	
194.42	5009.3	
194.64	5546.6	
194.85	4164.2	
195.07	4891.9	
195.28	5581.4	
195.49	4743.1	
195.71	5155.4	
195.92	3601	
196.13	5736.4	
196.35	5874.3	
196.56	5535.7	
196.78	4203.1	
196.99	7248.4	
197.2	6748.7	
197.42	4756.7	
197.63	4150.6	
197.84	4981.3	
198.06	5814.2	
198.27	3842	
198.48	5150	
198.7	5302.9	
198.91	5437.4	
199.13	4187.4	
199.34	4165.6	
199.55	5955.5	
199.77	4814.1	
199.98	3707.5	
200.19	4284.4	
200.41	5431.2	
200.62	5110.4	
200.83	4364.9	
201.05	4691.2	
201.26	5479	
201.47	5177.9	
201.69	3704.1	
201.9	3558	
202.11	5485.1	
202.33	6572.6	
202.54	3938.9	
202.76	4399	
202.97	5688.6	
203.18	5665.4	
203.4	4379.2	
203.61	4319.8	
203.82	5535	
204.04	5200.5	
204.25	4225	
204.46	4141	
204.68	5556.8	
204.89	5812.8	
205.1	4072.7	
205.32	3479.5	
205.53	5956.2	
205.74	6172.6	
205.96	2989.4	
206.17	4339.6	
206.38	5919.3	
206.6	6031.3	
206.81	4872.8	
207.02	3891.8	
207.24	5771.2	
207.45	6251.8	
207.66	3963.5	
207.88	3418.7	
208.09	5678.3	
208.3	5525.4	
208.52	3647.4	
208.73	4072.7	
208.94	5517.9	
209.15	6301.6	
209.37	3938.9	
209.58	4197	
209.79	6104.3	
210.01	5355.4	
210.22	3175	
210.43	3322.5	
210.65	5552.7	
210.86	5954.8	
211.07	4014.7	
211.29	3656.3	
211.5	5926.8	
211.71	5508.4	
211.93	3651.5	
212.14	3639.9	
212.35	5517.9	
212.56	5715.9	
212.78	4140.3	
212.99	3456.3	
213.2	6493.4	
213.42	5205.3	
213.63	3836.5	
213.84	4071.4	
214.06	4891.9	
214.27	5036	
214.48	3990.1	
214.69	4237.9	
214.91	6236.1	
215.12	6325.5	
215.33	4336.2	
215.55	4754	
215.76	6858	
215.97	5913.9	
216.18	4118.5	
216.4	4018.1	
216.61	5182.7	
216.82	6055.8	
217.04	3667.9	
217.25	3768.9	
217.46	6227.2	
217.67	5943.2	
217.89	3246.7	
218.1	3402.4	
218.31	5641.5	
218.53	5728.2	
218.74	3845.4	
218.95	3790.8	
219.16	5474.2	
219.38	6423.1	
219.59	3732.1	
219.8	4576.5	
220.01	7232.7	
220.23	5565	
220.44	4957.4	
220.65	3667.2	
220.87	5594.4	
221.08	6199.2	
221.29	3378.5	
221.5	4532.8	
221.72	7615	
221.93	5242.1	
222.14	4192.2	
222.35	4946.5	
222.57	5541.1	
222.78	5941.2	
222.99	3983.3	
223.2	4325.3	
223.42	5868.8	
223.63	6031.3	
223.84	3058.3	
224.05	2975	
224.27	7110.5	
224.48	6466.8	
224.69	5009.3	
224.9	4199.7	
225.12	5816.2	
225.33	5519.3	
225.54	3307.5	
225.75	3732.8	
225.97	5114.5	
226.18	5330.2	
226.39	4044.7	
226.6	3729.4	
226.82	5296.7	
227.03	5153.4	
227.24	4241.3	
227.45	3457	
227.67	5902.9	
227.88	6541.9	
228.09	4698.7	
228.3	4792.9	
228.52	5980.8	
228.73	5535.7	
228.94	3872.7	
229.15	3452.9	
229.36	5461.9	
229.58	5374.6	
229.79	3926	
230	4612	
230.21	6620.4	
230.43	5623.7	
230.64	4185.4	
230.85	4367.6	
231.06	5978	
231.28	5984.2	
231.49	3514.3	
231.7	4058.4	
231.91	5838.8	
232.12	5556.8	
232.34	3503.4	
232.55	4091.8	
232.76	6197.8	
232.97	5792.3	
233.18	3693.9	
233.4	4165.6	
233.61	5752.7	
233.82	5238	
234.03	3858.4	
234.25	3775.8	
234.46	7752.2	
234.67	5587.5	
234.88	4337.6	
235.09	3723.2	
235.31	5922	
235.52	5414.8	
235.73	4199	
235.94	3535.5	
236.15	5254.4	
236.37	6730.3	
236.58	3699.3	
236.79	4035.9	
237	5903.6	
237.21	4958.1	
237.43	4333.5	
237.64	3355.3	
237.85	10203	
238.06	5036.6	
238.27	4403.8	
238.48	3471.3	
238.7	5874.3	
238.91	5393.7	
239.12	4042.7	
239.33	4089.1	
239.54	5070.8	
239.76	5468.1	
239.97	4001	
240.18	3972.4	
240.39	7007.5	
240.6	5821	
240.82	4145.8	
241.03	3444	
241.24	5540.4	
241.45	6429.3	
241.66	3628.3	
241.87	4387.4	
242.09	6339.8	
242.3	6669.6	
242.51	4362.2	
242.72	4009.2	
242.93	6049	
243.14	5507.7	
243.36	4655	
243.57	5079.6	
243.78	6417.7	
243.99	5908.4	
244.2	4018.8	
244.41	3732.8	
244.63	5075.5	
244.84	5838.1	
245.05	4257.7	
245.26	4044.1	
245.47	5776	
245.68	6165.8	
245.9	5406	
246.11	4210.6	
246.32	5401.2	
246.53	5806.7	
246.74	6563.7	
246.95	3347.7	
247.16	4995	
247.38	5496.1	
247.59	3340.9	
247.8	4020.8	
248.01	5259.2	
248.22	5448.3	
248.43	3652.2	
248.64	3909.6	
248.86	4900.8	
249.07	5295.4	
249.28	3530.7	
249.49	4131.4	
249.7	6150.1	
249.91	6281.1	
250.12	3343.7	
250.34	3446	
250.55	5711.1	
250.76	5554.1	
250.97	4185.4	
251.18	4274.8	
251.39	6302.3	
251.6	5755.5	
251.81	4271.4	
252.03	4228.4	
252.24	5229.1	
252.45	6118	
252.66	3515.7	
252.87	4468.7	
253.08	5544.5	
253.29	7398.6	
253.5	3486.3	
253.72	4939.7	
253.93	5390.3	
254.14	6598.6	
254.35	3801.7	
254.56	3921.2	
254.77	5786.9	
254.98	5070.1	
255.19	3778.5	
255.41	4911	
255.62	5602.6	
255.83	6227.9	
256.04	4310.3	
256.25	4255.7	
256.46	6822.5	
256.67	5178.6	
256.88	4126.7	
257.09	4677.6	
257.31	5173.2	
257.52	5272.8	
257.73	5242.1	
257.94	3823.6	
258.15	5408.7	
258.36	5563.6	
258.57	4862.6	
258.78	3026.2	
258.99	6066.8	
259.2	5378	
259.41	3824.2	
259.63	3897.3	
259.84	6455.2	
260.05	6948.8	
260.26	5146.5	
260.47	3741	
260.68	6143.9	
260.89	5489.9	
261.1	4685.8	
261.31	3654.3	
261.52	6081.8	
261.73	6571.9	
261.95	4932.9	
262.16	4385.4	
262.37	6253.8	
262.58	6363	
262.79	4947.9	
263	3898	
263.21	5614.8	
263.42	5043.5	
263.63	3970.3	
263.84	3872.7	
264.05	6141.2	
264.26	6464.8	
264.47	4837.3	
264.69	4385.4	
264.9	6239.5	
265.11	5752.1	
265.32	3732.8	
265.53	3825.6	
265.74	5657.2	
265.95	4958.1	
266.16	4132.1	
266.37	4573.1	
266.58	5681.7	
266.79	5326.8	
267	3844	
267.21	3485	
267.42	5097.4	
267.63	5524.1	
267.84	4007.2	
268.06	3461.1	
268.27	5989.6	
268.48	6344.6	
268.69	3878.9	
268.9	4657.8	
269.11	6265.4	
269.32	4930.8	
269.53	4042	
269.74	3719.8	
269.95	5928.9	
270.16	4878.3	
270.37	3971	
270.58	4650.3	
270.79	5290.6	
271	6128.9	
271.21	4330.8	
271.42	4089.8	
271.63	5646.2	
271.84	5195	
272.05	3161.4	
272.26	3633.1	
272.47	5544.5	
272.68	5781.4	
272.89	3801	
273.11	4457.1	
273.32	5355.4	
273.53	6485.2	
273.74	4355.3	
273.95	4252.9	
274.16	6278.4	
274.37	5646.2	
274.58	4425	
274.79	3497.9	
275	5631.9	
275.21	6263.4	
275.42	5302.9	
275.63	4542.4	
275.84	5816.2	
276.05	7353.6	
276.26	4279.6	
276.47	3982.6	
276.68	5382.7	
276.89	6640.2	
277.1	4579.3	
277.31	3523.2	
277.52	5833.3	
277.73	5980.1	
277.94	3489.7	
278.15	3872	
278.36	5687.2	
278.57	5141.8	
278.78	3832.4	
278.99	4415.4	
279.2	5123.3	
279.41	5118.6	
279.62	5150.6	
279.83	3591.5	
280.04	6831.3	
280.25	5016.2	
280.46	5128.8	
280.67	4027	
280.88	5169.1	
281.09	6247	
281.3	4244.8	
281.51	5424.4	
281.72	6021	
281.93	6078.4	
282.14	3733.4	
282.35	4060.4	
282.56	6069.5	
282.77	6032.6	
282.98	3886.4	
283.19	4823.6	
283.4	7539.3	
283.61	5526.8	
283.82	3622.2	
284.03	5038	
284.24	5699.5	
284.45	6253.1	
284.66	4997.7	
284.87	4856.4	
285.08	6171.2	
285.29	6353.5	
285.5	3419.4	
285.71	3915.7	
285.92	6184.2	
286.12	6839.5	
286.33	4988.2	
286.54	3842	
286.75	6076.3	
286.96	5414.8	
287.17	3551.9	
287.38	4974.5	
287.59	5186.1	
287.8	5033.9	
288.01	4026.3	
288.22	4571.7	
288.43	6171.9	
288.64	5036.6	
288.85	4730.1	
289.06	4485.7	
289.27	6045.6	
289.48	6477	
289.69	5072.8	
289.9	4530.1	
290.11	6259.3	
290.32	5291.3	
290.53	4810	
290.74	4447.5	
290.94	6037.4	
291.15	6112.5	
291.36	3846.8	
291.57	4541.7	
291.78	5258.5	
291.99	4960.2	
292.2	3683.6	
292.41	4410	
292.62	6146.6	
292.83	5980.1	
293.04	5463.3	
293.25	3601	
293.46	5341.8	
293.67	6210.8	
293.88	3812	
294.09	3615.3	
294.29	5090.6	
294.5	5709.1	
294.71	4033.8	
294.92	3882.3	
295.13	5309.7	
295.34	6752.2	
295.55	3383.2	
295.76	3461.1	
295.97	5994.4	
296.18	6744.6	
296.39	3572.3	
296.6	3807.2	
296.81	5660.6	
297.01	6005.3	
297.22	3979.2	
297.43	3829	
297.64	5146.5	
297.85	5169.1	
298.06	3131.3	
298.27	3409.2	
298.48	5583.4	
298.69	5279	
298.9	4061.8	
299.11	3670	
299.31	5040.1	
299.52	5027.8	
299.73	4361.5	
299.94	4283	
300.15	5538.4	
300.36	5162.9	
300.57	4334.9	
300.78	4317.8	
300.99	5490.6	
301.2	5744.6	
301.4	3756.7	
301.61	4091.8	
301.82	5894.7	
302.03	5951.4	
302.24	4583.4	
302.45	3525.2	
302.66	5827.8	
302.87	6384.2	
303.08	3732.8	
303.29	5210	
303.49	5272.2	
303.7	5580.7	
303.91	3305.4	
304.12	4941.1	
304.33	5032.5	
304.54	5726.8	
304.75	3799	
304.96	3627	
305.16	5892.7	
305.37	6654.5	
305.58	3292.5	
305.79	3449.5	
306	5904.3	
306.21	4957.4	
306.42	3861.1	
306.63	5882.4	
306.83	5428.5	
307.04	6193.1	
307.25	4175.8	
307.46	4180.6	
307.67	4766.3	
307.88	6010.8	
308.09	3703.4	
308.29	3899.3	
308.5	5646.9	
308.71	6235.4	
308.92	4101.4	
309.13	3590.1	
309.34	5411.4	
309.55	5502.9	
309.75	4713.7	
309.96	4394.3	
310.17	6030.6	
310.38	5205.9	
310.59	4649.6	
310.8	4318.5	
311.01	5364.3	
311.21	5469.4	
311.42	3525.9	
311.63	3702	
311.84	5262.6	
312.05	5758.9	
312.26	4233.2	
312.46	4658.4	
312.67	5385.5	
312.88	5081	
313.09	3699.3	
313.3	3599.6	
313.51	6376	
313.71	6819.1	
313.92	3642.7	
314.13	3878.9	
314.34	5750.7	
314.55	5515.9	
314.76	4676.2	
314.96	4110.3	
315.17	5594.4	
315.38	6013.5	
315.59	3646.1	
315.8	3500	
316.01	6508.4	
316.21	6533.7	
316.42	3530.7	
316.63	4031.1	
316.84	5469.4	
317.05	6290	
317.26	4308.2	
317.46	3871.3	
317.67	5469.4	
317.88	6019	
318.09	4643.4	
318.3	3355.9	
318.5	5272.8	
318.71	5866.1	
318.92	6033.3	
319.13	4320.5	
319.34	6105.7	
319.54	6255.9	
319.75	3366.2	
319.96	3246.7	
320.17	5987.6	
320.38	6120.7	
320.58	3319.1	
320.79	3951.9	
321	6148	
321.21	6311.8	
321.42	4009.9	
321.62	3351.8	
321.83	5148.6	
322.04	5553.4	
322.25	3870	
322.46	3687	
322.66	5622.4	
322.87	5862.7	
323.08	4541	
323.29	3632.4	
323.5	6713.2	
323.7	5156.1	
323.91	4995.7	
324.12	4513.7	
324.33	5605.3	
324.53	5863.3	
324.74	4315.8	
324.95	4560.1	
325.16	4898.1	
325.37	5368.4	
325.57	3666.5	
325.78	3788.7	
325.99	5621.7	
326.2	4994.3	
326.4	5171.8	
326.61	3404.4	
326.82	5496.7	
327.03	5640.8	
327.24	5238.7	
327.44	5021.6	
327.65	5855.1	
327.86	4681.7	
328.07	4327.4	
328.27	3490.4	
328.48	6253.1	
328.69	5152	
328.9	5300.8	
329.1	3964.9	
329.31	5470.1	
329.52	6463.4	
329.73	3609.2	
329.93	4145.1	
330.14	5629.2	
330.35	5826.5	
330.56	6061.3	
330.76	4546.5	
330.97	5350	
331.18	5797.8	
331.39	4080.2	
331.59	3257.6	
331.8	6206	
332.01	6328.2	
332.22	3728	
332.42	4412	
332.63	5710.4	
332.84	5258.5	
333.05	4101.4	
333.25	3722.5	
333.46	5340.4	
333.67	5563.6	
333.88	3842.7	
334.08	4279.6	
334.29	7458.7	
334.5	6225.1	
334.7	3600.3	
334.91	5268.7	
335.12	5087.8	
335.33	6081.1	
335.53	4036.5	
335.74	6070.9	
335.95	5294	
336.16	5167	
336.36	4150.5	
336.57	4685.1	
336.78	5056.4	
336.98	6206.7	
337.19	4984.8	
337.4	4016.7	
337.61	6721.4	
337.81	5054.4	
338.02	3771.7	
338.23	4896	
338.43	6408.8	
338.64	5160.2	
338.85	3684.3	
339.05	4816.1	
339.26	6473.6	
339.47	4983.4	
339.68	3658.4	
339.88	5502.2	
340.09	5847	
340.3	6047	
340.5	4308.9	
340.71	3278.8	
340.92	5011.4	
341.13	6322.1	
341.33	3547.8	
341.54	4414.1	
341.75	5812.1	
341.95	5453.1	
342.16	4123.9	
342.37	4500.8	
342.57	5141.8	
342.78	5500.8	
342.99	4620.9	
343.19	3334.1	
343.4	5959.6	
343.61	5843.5	
343.81	3904.1	
344.02	3632.4	
344.23	6044.9	
344.43	6433.4	
344.64	4579.3	
344.85	4508.3	
345.06	5912.5	
345.26	6278.4	
345.47	4248.9	
345.68	4963.6	
345.88	4864.6	
346.09	6083.8	
346.3	4339	
346.5	3311.6	
346.71	5593.7	
346.92	5201.8	
347.12	3340.2	
347.33	4280.3	
347.54	6119.3	
347.74	6575.3	
347.95	4281.6	
348.16	3140.9	
348.36	5369.8	
348.57	5242.1	
348.78	4201.1	
348.98	4517.8	
349.19	5433.3	
349.39	4976.6	
349.6	3353.2	
349.81	3701.4	
350.01	5810.8	
350.22	5335	
350.43	4022.2	
350.63	4934.9	
350.84	5623	
351.05	5310.4	
351.25	3686.3	
351.46	3364.8	
351.67	6210.1	
351.87	5236	
352.08	3932.8	
352.29	4504.2	
352.49	6103.6	
352.7	6180.8	
352.9	3641.3	
353.11	4497.3	
353.32	6752.8	
353.52	5381.4	
353.73	3531.4	
353.94	4519.9	
354.14	5892.7	
354.35	5724.8	
354.55	3631	
354.76	4053.6	
354.97	5804.6	
355.17	5590.3	
355.38	3414.6	
355.59	4870.1	
355.79	5205.3	
356	5651	
356.2	4083.6	
356.41	3540.3	
356.62	4949.3	
356.82	5473.5	
357.03	4388.1	
357.24	3933.5	
357.44	5290.6	
357.65	5434.6	
357.85	5212.8	
358.06	4117.1	
358.27	4960.9	
358.47	5200.5	
358.68	3454.2	
358.88	4298	
359.09	5853.8	
359.3	6225.8	
359.5	5100.8	
359.71	4453.6	
359.91	6748.7	
360.12	6026.5	
360.33	4338.3	
360.53	4843.4	
360.74	5249.6	
360.94	5332.9	
361.15	4577.2	
361.36	3792.2	
361.56	6100.2	
361.77	5579.3	
361.97	5107.6	
362.18	3933.5	
362.38	6119.3	
362.59	5175.9	
362.8	3624.2	
363	3535.5	
363.21	5014.1	
363.41	5658.5	
363.62	4268	
363.83	5334.3	
364.03	5699.5	
364.24	6811.5	
364.44	5431.9	
364.65	5366.4	
364.85	5500.2	
365.06	5137.7	
365.27	3874.1	
365.47	3929.4	
365.68	6581.5	
365.88	5434.6	
366.09	4273.4	
366.29	3972.4	
366.5	5728.2	
366.71	6182.1	
366.91	5347.2	
367.12	4505.5	
367.32	6773.3	
367.53	5993.7	
367.73	4347.2	
367.94	5464	
368.14	6057.2	
368.35	6899.6	
368.56	4465.9	
368.76	3703.4	
368.97	6086.6	
369.17	7890.8	
369.38	3845.4	
369.58	4188.8	
369.79	5145.9	
369.99	6457.2	
370.2	5221	
370.4	4272.1	
370.61	5824.4	
370.82	7058	
371.02	4186	
371.23	3450.1	
371.43	4999.1	
371.64	6437.4	
371.84	4209.3	
372.05	5510.4	
372.25	7864.9	
372.46	6196.5	
372.66	4223.6	
372.87	4195.6	
373.07	6250.4	
373.28	7884.7	
373.48	5282.4	
373.69	4954	
373.9	5706.3	
374.1	5689.9	
374.31	5238	
374.51	4776.5	
374.72	6574	
374.92	5356.8	
375.13	5405.3	
375.33	4625.7	
375.54	6116.6	
375.74	5503.6	
375.95	4618.2	
376.15	5956.2	
376.36	6075.6	
376.56	5954.1	
376.77	4717.2	
376.97	5182.7	
377.18	7156.3	
377.38	6231.3	
377.59	5465.3	
377.79	4243.4	
378	6051.7	
378.2	6560.3	
378.41	4259.8	
378.61	4239.3	
378.82	6569.2	
379.02	5558.9	
379.23	4414.7	
379.43	5638.1	
379.64	6516	
379.84	6208.8	
380.05	4233.2	
380.25	4203.1	
380.46	6300.9	
380.66	5895.4	
380.87	5700.2	
381.07	6042.9	
381.28	6955.6	
381.48	6322.1	
381.69	4244.1	
381.89	4312.3	
382.1	5211.4	
382.3	6493.4	
382.51	5447.6	
382.71	6394.4	
382.91	6311.8	
383.12	6866.2	
383.32	4666.6	
383.53	4881.7	
383.73	6135.7	
383.94	5902.2	
384.14	4773.1	
384.35	3917.1	
384.55	5870.2	
384.76	6320	
384.96	4600.4	
385.17	5010	
385.37	6312.5	
385.58	5573.2	
385.78	5060.5	
385.98	3820.1	
386.19	5765	
386.39	6214.9	
386.6	4407.2	
386.8	4635.9	
387.01	6315.3	
387.21	6323.4	
387.42	5094	
387.62	5734.3	
387.83	5644.2	
388.03	6345.3	
388.23	4725.3	
388.44	5639.4	
388.64	5217.5	
388.85	5450.3	
389.05	5139.7	
389.26	5757.5	
389.46	7402.7	
389.67	6736.5	
389.87	5045.5	
390.07	5125.4	
390.28	6002.6	
390.48	5537	
390.69	4245.4	
390.89	4660.5	
391.1	5769.8	
391.3	6719.4	
391.5	5896.8	
391.71	6512.5	
391.91	6415.6	
392.12	7569.3	
392.32	5895.4	
392.53	5274.2	
392.73	5812.1	
392.93	5989.6	
393.14	4747.2	
393.34	5612.8	
393.55	6471.6	
393.75	5966.4	
393.95	4791.6	
394.16	4733.5	
394.36	5725.4	
394.57	6384.9	
394.77	4237.2	
394.98	4668.7	
395.18	5681.1	
395.38	5964.4	
395.59	5619.6	
395.79	4531.5	
396	5822.4	
396.2	6322.1	
396.4	5369.1	
396.61	5339.1	
396.81	6630.6	
397.02	5842.2	
397.22	5678.3	
397.42	5720	
397.63	6567.8	
397.83	5780.7	
398.04	4474.1	
398.24	5022.3	
398.44	6281.8	
398.65	5384.1	
398.85	4366.3	
399.05	4496	
399.26	5761.6	
399.46	7608.9	
399.67	4885.1	
399.87	4584	
400.07	6184.2	
400.28	6546.7	
400.48	4696.7	
400.69	5840.1	
400.89	6759.7	
401.09	7209.5	
401.3	4618.2	
401.5	5823.7	
401.7	7516.7	
401.91	7740.6	
402.11	5026.4	
402.32	5203.2	
402.52	6851.8	
402.72	6614.3	
402.93	5410.1	
403.13	4162.8	
403.33	7581.6	
403.54	6204.7	
403.74	5050.3	
403.94	5956.9	
404.15	6295.5	
404.35	7471.7	
404.56	4814.8	
404.76	6800.6	
404.96	6741.2	
405.17	6464.8	
405.37	6213.5	
405.57	5362.9	
405.78	6870.9	
405.98	6270.2	
406.18	4919.2	
406.39	5922.7	
406.59	6763.8	
406.79	6354.2	
407	4642.1	
407.2	4862.6	
407.4	6849.1	
407.61	7122.8	
407.81	4779.3	
408.01	6894.1	
408.22	5793	
408.42	7876.5	
408.62	6029.2	
408.83	5471.5	
409.03	6554.2	
409.23	6297.5	
409.44	5631.2	
409.64	5995.8	
409.84	7441	
410.05	7391.1	
410.25	5823.1	
410.45	5515.9	
410.66	6886	
410.86	9516.9	
411.06	6045.6	
411.27	5856.5	
411.47	9250.7	
411.67	7103.7	
411.88	6137.1	
412.08	6407.4	
412.28	7832.8	
412.49	8295.6	
412.69	5913.9	
412.89	5967.1	
413.09	8140	
413.3	8011.7	
413.5	6073.6	
413.7	5586.2	
413.91	7188.4	
414.11	8111.3	
414.31	5903.6	
414.52	6361.7	
414.72	7866.9	
414.92	7696.9	
415.12	5922.7	
415.33	6481.1	
415.53	8112.7	
415.73	8387.8	
415.94	6786.3	
416.14	6212.2	
416.34	7124.2	
416.55	6812.9	
416.75	7579.5	
416.95	6861.4	
417.15	8178.2	
417.36	8929.8	
417.56	7707.9	
417.76	6707.8	
417.97	8512.7	
418.17	8262.9	
418.37	6270.2	
418.57	6397.2	
418.78	7948.8	
418.98	7605.5	
419.18	7307.8	
419.38	7135.8	
419.59	7664.9	
419.79	7181.5	
419.99	6235.4	
420.2	6685.3	
420.4	8161.8	
420.6	8400.8	
420.8	6123.4	
421.01	5948.7	
421.21	7962.5	
421.41	8157.7	
421.61	6553.5	
421.82	6201.9	
422.02	7456.7	
422.22	8458.1	
422.42	7071	
422.63	6678.4	
422.83	7737.2	
423.03	8883.4	
423.23	6713.2	
423.44	5631.9	
423.64	7716.1	
423.84	7402.7	
424.04	6115.9	
424.25	5739.8	
424.45	8666.3	
424.65	8544.8	
424.85	5574.6	
425.06	6197.2	
425.26	8590.5	
425.46	7122.8	
425.66	6688	
425.87	6364.4	
426.07	8352.3	
426.27	8183	
426.47	6517.3	
426.67	5754.1	
426.88	8733.9	
427.08	8079.9	
427.28	6712.6	
427.48	5750	
427.69	6943.3	
427.89	7694.9	
428.09	6785.6	
428.29	5763	
428.5	8375.5	
428.7	7871	
428.9	5672.2	
429.1	6313.2	
429.3	7763.2	
429.51	8254	
429.71	5984.8	
429.91	6935.8	
430.11	8179.6	
430.31	8716.2	
430.52	6337.8	
430.72	6651.8	
430.92	8779	
431.12	8137.9	
431.32	6072.9	
431.53	6442.2	
431.73	6978.8	
431.93	8802.9	
432.13	5967.1	
432.33	5846.3	
432.54	7557.7	
432.74	7970.7	
432.94	5767.1	
433.14	6871.6	
433.34	8116.1	
433.55	7656	
433.75	6791.1	
433.95	8685.4	
434.15	7913.4	
434.35	7594.6	
434.56	5964.4	
434.76	5502.9	
434.96	7918.1	
435.16	8235.6	
435.36	5801.2	
435.56	7139.2	
435.77	7621.2	
435.97	7774.8	
436.17	7986.4	
436.37	7042.3	
436.57	7506.5	
436.78	7517.4	
436.98	8918.2	
437.18	7748.1	
437.38	8354.3	
437.58	7793.9	
437.78	7795.3	
437.99	6346	
438.19	8271.7	
438.39	9058.8	
438.59	6320.7	
438.79	5753.4	
438.99	9123	
439.2	7765.2	
439.4	5929.6	
439.6	5878.4	
439.8	8158.4	
440	9224.1	
440.2	6933.1	
440.4	7182.2	
440.61	8535.9	
440.81	9113.5	
441.01	6155.5	
441.21	7219.1	
441.41	9019.3	
441.61	8549.6	
441.81	7507.2	
442.02	8619.9	
442.22	9546.9	
442.42	8671.1	
442.62	6313.2	
442.82	6384.9	
443.02	9012.4	
443.22	8229.4	
443.43	6753.5	
443.63	6368.5	
443.83	7849.2	
444.03	8033.5	
444.23	7680.6	
444.43	7232.7	
444.63	8332.5	
444.83	9610.4	
445.04	6451.1	
445.24	7845.1	
445.44	8691.6	
445.64	8799.4	
445.84	7240.3	
446.04	7271	
446.24	7933.1	
446.44	9103.9	
446.65	6388.3	
446.85	6822.5	
447.05	8098.4	
447.25	9002.9	
447.45	6924.9	
447.65	6237.4	
447.85	8261.5	
448.05	7830.1	
448.25	7382.9	
448.46	7137.2	
448.66	8308.6	
448.86	7988.4	
449.06	6066.1	
449.26	7444.4	
449.46	8782.4	
449.66	7709.9	
449.86	6885.3	
450.06	6863.4	
450.26	7875.1	
450.47	8574.8	
450.67	7156.3	
450.87	7447.1	
451.07	8510	
451.27	8405.5	
451.47	6421.1	
451.67	7040.9	
451.87	7947.5	
452.07	9265	
452.27	6673.6	
452.47	6642.9	
452.67	8359.8	
452.88	8910.7	
453.08	5892.7	
453.28	8070.4	
453.48	9625.5	
453.68	8374.1	
453.88	6597.9	
454.08	6830.7	
454.28	8718.9	
454.48	8495.7	
454.68	7369.3	
454.88	7962.5	
455.08	8852	
455.28	8675.2	
455.48	6354.2	
455.68	7217	
455.89	9393.3	
456.09	9153.1	
456.29	6821.1	
456.49	6913.9	
456.69	9252	
456.89	8587.1	
457.09	7477.8	
457.29	7863.5	
457.49	8928.5	
457.69	9082.7	
457.89	7288	
458.09	6718.7	
458.29	8702.5	
458.49	9475.3	
458.69	7759.1	
458.89	7281.9	
459.09	9779.7	
459.29	9885.5	
459.49	7309.9	
459.69	8146.1	
459.9	9213.8	
460.1	8766.7	
460.3	7156.3	
460.5	6976.7	
460.7	9204.9	
460.9	8936.7	
461.1	6668.2	
461.3	8090.2	
461.5	9962	
461.7	9516.9	
461.9	7159.7	
462.1	7623.9	
462.3	9005.6	
462.5	9675.3	
462.7	7287.4	
462.9	7415.7	
463.1	10769	
463.3	10475	
463.5	7604.8	
463.7	8619.2	
463.9	9320.3	
464.1	9685.5	
464.3	7774.1	
464.5	7968.6	
464.7	9998.9	
464.9	9804.3	
465.1	9518.3	
465.3	8425.3	
465.5	10430	
465.7	10459	
465.9	8746.9	
466.1	8434.9	
466.3	10231	
466.5	9940.8	
466.7	9519	
466.9	8297	
467.1	10013	
467.3	11028	
467.5	9524.4	
467.7	8172.1	
467.9	11258	
468.1	12202	
468.3	9163.3	
468.5	9614.5	
468.7	9926.5	
468.9	9917.6	
469.1	8589.2	
469.3	9537.4	
469.5	12121	
469.7	9531.9	
469.9	9046.6	
470.1	8345.5	
470.3	10015	
470.5	10053	
470.7	9729.2	
470.9	8398.7	
471.1	9807	
471.3	10221	
471.5	8273.1	
471.69	10258	
471.89	9602.9	
472.09	9151.7	
472.29	9157.2	
472.49	9448.6	
472.69	9376.3	
472.89	10232	
473.09	8135.9	
473.29	8217.8	
473.49	9545.6	
473.69	9701.9	
473.89	9278	
474.09	8362.5	
474.29	11052	
474.49	10778	
474.69	9310.7	
474.89	8551.6	
475.09	9721	
475.29	9622.7	
475.49	7880.6	
475.69	8188.5	
475.88	11415	
476.08	10023	
476.28	7884.7	
476.48	8290.2	
476.68	10443	
476.88	10342	
477.08	8125.7	
477.28	8605.6	
477.48	9686.9	
477.68	10371	
477.88	7951.6	
478.08	8361.2	
478.28	10835	
478.48	9877.4	
478.67	8403.5	
478.87	7735.9	
479.07	10649	
479.27	10119	
479.47	8596.7	
479.67	8559.1	
479.87	10456	
480.07	11068	
480.27	7780.9	
480.47	9521.7	
480.67	10006	
480.87	10781	
481.06	8169.3	
481.26	8967.4	
481.46	10030	
481.66	9881.4	
481.86	8545.5	
482.06	9713.5	
482.26	9740.8	
482.46	10661	
482.66	8565.3	
482.86	8097.7	
483.05	10064	
483.25	9422.7	
483.45	11092	
483.65	8608.3	
483.85	9701.9	
484.05	10042	
484.25	8955.8	
484.45	9605	
484.65	10891	
484.84	10990	
485.04	8560.5	
485.24	8422.6	
485.44	11270	
485.64	9368.8	
485.84	7838.9	
486.04	9266.4	
486.24	9795.4	
486.44	10388	
486.63	7763.8	
486.83	8661.5	
487.03	9770.2	
487.23	10041	
487.43	7847.8	
487.63	10416	
487.83	10209	
488.02	11136	
488.22	9053.4	
488.42	9738.1	
488.62	10984	
488.82	9947.7	
489.02	8566	
489.22	8678.6	
489.41	10942	
489.61	10613	
489.81	8370.7	
490.01	8368	
490.21	10755	
490.41	11523	
490.61	8142	
490.8	8540	
491	10352	
491.2	9519	
491.4	9110.7	
491.6	8193.2	
491.8	10219	
491.99	10529	
492.19	7993.2	
492.39	8496.3	
492.59	10856	
492.79	10957	
492.99	9351	
493.18	8406.9	
493.38	10987	
493.58	11820	
493.78	9275.3	
493.98	8788.5	
494.18	10776	
494.37	10256	
494.57	9598.1	
494.77	9454.1	
494.97	11035	
495.17	11467	
495.37	8984.4	
495.56	9352.4	
495.76	11592	
495.96	11247	
496.16	10331	
496.36	9267.7	
496.55	11398	
496.75	11014	
496.95	9613.8	
497.15	9471.9	
497.35	11419	
497.54	11375	
497.74	9353.1	
497.94	11213	
498.14	12205	
498.34	11984	
498.53	9053.4	
498.73	9873.9	
498.93	10877	
499.13	11452	
499.33	9721	
499.52	10174	
499.72	11412	
499.92	11830	
500.12	9342.2	
500.32	9713.5	
500.51	11763	
500.71	11566	
500.91	10570	
501.11	10163	
501.31	11700	
501.5	12092	
501.7	10793	
501.9	9693	
502.1	11417	
502.29	11875	
502.49	10185	
502.69	10641	
502.89	11604	
503.09	11640	
503.28	9154.4	
503.48	9196.7	
503.68	10732	
503.88	10849	
504.07	10325	
504.27	9701.2	
504.47	11110	
504.67	11394	
504.86	10139	
505.06	9837.1	
505.26	10765	
505.46	12777	
505.65	9540.8	
505.85	9891	
506.05	10705	
506.25	11227	
506.44	8862.2	
506.64	9931.3	
506.84	10527	
507.04	11598	
507.23	9048.6	
507.43	9735.4	
507.63	12729	
507.83	10847	
508.02	9700.5	
508.22	9230.2	
508.42	12971	
508.62	10560	
508.81	9523.7	
509.01	10221	
509.21	10358	
509.4	10720	
509.6	9734	
509.8	9099.8	
510	10621	
510.19	12268	
510.39	9030.2	
510.59	9156.5	
510.79	10516	
510.98	11989	
511.18	9204.9	
511.38	9413.1	
511.57	11454	
511.77	11327	
511.97	10065	
512.17	8912.8	
512.36	11400	
512.56	11405	
512.76	9095.7	
512.95	8761.2	
513.15	11480	
513.35	10110	
513.55	9953.1	
513.74	8998.8	
513.94	11508	
514.14	10774	
514.33	10112	
514.53	9799.5	
514.73	10727	
514.92	10990	
515.12	9348.3	
515.32	9142.8	
515.51	11086	
515.71	11720	
515.91	10955	
516.11	9167.4	
516.3	12974	
516.5	10713	
516.7	9747.6	
516.89	10461	
517.09	10811	
517.29	10608	
517.48	10129	
517.68	9416.6	
517.88	10449	
518.07	11218	
518.27	10073	
518.47	9040.4	
518.66	11817	
518.86	10319	
519.06	8850.6	
519.25	9273.2	
519.45	10750	
519.65	12325	
519.84	9974.3	
520.04	10712	
520.24	12681	
520.43	11411	
520.63	9596.8	
520.83	9379.7	
521.02	10464	
521.22	11194	
521.42	9981.1	
521.61	10499	
521.81	10704	
522.01	10867	
522.2	9789.3	
522.4	9573.6	
522.6	11447	
522.79	10286	
522.99	9604.3	
523.18	8995.4	
523.38	11244	
523.58	11299	
523.77	11146	
523.97	9108.7	
524.17	13515	
524.36	12471	
524.56	10578	
524.76	10172	
524.95	11420	
525.15	11043	
525.34	9974.3	
525.54	9992	
525.74	11757	
525.93	10797	
526.13	11306	
526.33	10020	
526.52	12287	
526.72	11649	
526.91	11310	
527.11	10632	
527.31	12381	
527.5	12736	
527.7	10502	
527.89	9456.2	
528.09	11144	
528.29	11897	
528.48	10920	
528.68	10641	
528.87	12241	
529.07	12287	
529.27	10525	
529.46	9945.6	
529.66	11738	
529.85	12420	
530.05	9688.9	
530.25	10606	
530.44	13433	
530.64	11774	
530.83	10243	
531.03	10580	
531.23	12257	
531.42	12171	
531.62	11409	
531.81	10501	
532.01	12422	
532.21	12910	
532.4	10256	
532.6	10692	
532.79	13562	
532.99	12693	
533.18	10716	
533.38	11875	
533.58	12108	
533.77	12936	
533.97	10929	
534.16	11767	
534.36	13227	
534.55	12323	
534.75	11783	
534.95	10910	
535.14	13212	
535.34	12295	
535.53	10545	
535.73	12687	
535.92	13719	
536.12	12439	
536.31	10549	
536.51	11927	
536.71	12796	
536.9	12196	
537.1	10771	
537.29	10899	
537.49	13130	
537.68	12180	
537.88	11328	
538.07	10549	
538.27	12362	
538.46	13515	
538.66	10340	
538.86	10807	
539.05	12455	
539.25	12953	
539.44	11176	
539.64	10755	
539.83	12352	
540.03	13332	
540.22	10571	
540.42	10735	
540.61	12540	
540.81	12746	
541	11133	
541.2	11787	
541.39	11882	
541.59	12306	
541.78	11493	
541.98	10552	
542.18	11616	
542.37	11514	
542.57	10931	
542.76	11498	
542.96	11579	
543.15	12484	
543.35	10834	
543.54	10187	
543.74	12577	
543.93	12217	
544.13	10785	
544.32	11934	
544.52	12512	
544.71	11656	
544.91	9809.1	
545.1	11227	
545.3	11761	
545.49	12334	
545.69	9719	
545.88	10443	
546.08	13317	
546.27	12957	
546.47	10968	
546.66	10221	
546.86	12663	
547.05	13295	
547.24	10473	
547.44	10263	
547.63	11554	
547.83	12719	
548.02	10622	
548.22	10834	
548.41	11280	
548.61	12674	
548.8	10138	
549	10125	
549.19	11873	
549.39	12334	
549.58	9775	
549.78	10381	
549.97	12403	
550.17	11772	
550.36	11184	
550.55	12493	
550.75	11722	
550.94	12710	
551.14	9935.4	
551.33	10379	
551.53	11180	
551.72	12200	
551.92	10482	
552.11	10184	
552.31	12222	
552.5	12263	
552.69	11899	
552.89	9792	
553.08	12154	
553.28	11824	
553.47	10197	
553.67	11349	
553.86	12795	
554.06	10941	
554.25	9212.4	
554.44	9950.4	
554.64	13522	
554.83	12994	
555.03	9824.8	
555.22	10245	
555.42	12164	
555.61	11901	
555.8	9998.2	
556	10329	
556.19	10900	
556.39	12288	
556.58	10113	
556.78	10052	
556.97	11714	
557.16	11429	
557.36	11357	
557.55	9677.3	
557.75	10677	
557.94	12689	
558.13	9852.8	
558.33	9506	
558.52	12309	
558.72	11301	
558.91	9616.6	
559.1	9873.3	
559.3	10845	
559.49	10518	
559.69	9145.5	
559.88	10187	
560.07	11723	
560.27	12105	
560.46	10448	
560.66	10512	
560.85	11424	
561.04	10610	
561.24	9526.5	
561.43	9699.2	
561.63	10890	
561.82	11201	
562.01	11113	
562.21	10077	
562.4	11602	
562.59	12749	
562.79	9856.9	
562.98	9605	
563.18	11632	
563.37	13262	
563.56	10415	
563.76	9540.1	
563.95	11005	
564.14	10963	
564.34	9940.8	
564.53	9686.9	
564.73	11586	
564.92	12017	
565.11	10137	
565.31	9490.3	
565.5	12214	
565.69	11071	
565.89	9728.5	
566.08	9993.4	
566.27	12058	
566.47	12549	
566.66	10667	
566.85	9273.9	
567.05	11690	
567.24	11015	
567.44	9575.6	
567.63	11015	
567.82	11840	
568.02	11615	
568.21	9610.4	
568.4	9948.3	
568.6	11581	
568.79	11498	
568.98	9422	
569.18	9719	
569.37	11508	
569.56	13644	
569.76	10007	
569.95	11105	
570.14	11867	
570.34	11852	
570.53	9423.4	
570.72	9516.9	
570.91	12272	
571.11	11370	
571.3	9989.3	
571.49	11032	
571.69	11490	
571.88	10956	
572.07	10647	
572.27	10499	
572.46	11014	
572.65	12219	
572.85	9699.9	
573.04	10100	
573.23	12472	
573.43	11609	
573.62	9546.9	
573.81	10200	
574	11688	
574.2	11422	
574.39	9912.2	
574.58	10071	
574.78	12606	
574.97	11742	
575.16	10519	
575.36	10769	
575.55	12293	
575.74	12366	
575.93	9523.7	
576.13	10899	
576.32	11550	
576.51	12176	
576.71	10094	
576.9	11599	
577.09	12556	
577.28	11986	
577.48	10677	
577.67	9540.8	
577.86	11658	
578.05	12036	
578.25	10163	
578.44	10346	
578.63	11819	
578.83	13125	
579.02	9605	
579.21	11177	
579.4	11957	
579.6	11629	
579.79	10402	
579.98	12890	
580.17	12439	
580.37	12500	
580.56	9765.4	
580.75	10705	
580.94	12977	
581.14	12772	
581.33	11166	
581.52	9964.7	
581.71	12287	
581.91	12850	
582.1	9715.6	
582.29	10348	
582.48	11763	
582.68	11878	
582.87	10891	
583.06	10370	
583.25	12112	
583.45	12061	
583.64	11198	
583.83	12039	
584.02	11594	
584.21	12235	
584.41	11062	
584.6	10446	
584.79	11897	
584.98	12782	
585.18	9770.2	
585.37	9788.6	
585.56	11310	
585.75	12194	
585.94	10068	
586.14	10784	
586.33	12794	
586.52	11753	
586.71	10478	
586.91	10219	
587.1	11093	
587.29	12175	
587.48	10043	
587.67	9921.7	
587.87	11897	
588.06	12059	
588.25	11385	
588.44	10585	
588.63	11607	
588.83	12310	
589.02	9910.8	
589.21	9734.7	
589.4	11225	
589.59	11049	
589.78	8922.3	
589.98	9179.7	
590.17	10531	
590.36	11120	
590.55	8397.4	
590.74	9285.5	
590.94	12507	
591.13	10871	
591.32	8964	
591.51	8491.6	
591.7	11478	
591.89	11014	
592.09	8675.2	
592.28	9156.5	
592.47	10072	
592.66	12151	
592.85	8673.1	
593.05	9025.4	
593.24	10755	
593.43	11582	
593.62	9036.3	
593.81	9535.3	
594	10816	
594.19	11107	
594.39	8948.3	
594.58	8852.7	
594.77	11040	
594.96	11699	
595.15	8826.7	
595.34	9411.8	
595.54	11217	
595.73	10118	
595.92	8208.9	
596.11	9349.7	
596.3	11662	
596.49	10249	
596.68	9059.5	
596.88	9508.7	
597.07	11414	
597.26	10071	
597.45	8532.5	
597.64	9873.9	
597.83	10401	
598.02	11030	
598.22	8739.4	
598.41	9394.7	
598.6	10783	
598.79	10087	
598.98	8733.9	
599.17	9714.9	
599.36	10843	
599.55	12086	
599.74	10871	
599.94	10656	
600.13	11333	
600.32	10091	
600.51	8454.7	
600.7	8678.6	
600.89	12030	
601.08	12065	
601.27	8406.9	
601.47	9394	
601.66	11284	
601.85	11999	
602.04	9103.2	
602.23	9314.8	
602.42	10285	
602.61	11052	
602.8	9015.2	
602.99	8762.6	
603.18	10620	
603.37	10888	
603.57	9489.6	
603.76	10023	
603.95	11674	
604.14	11196	
604.33	8879.3	
604.52	9192.6	
604.71	10985	
604.9	10449	
605.09	9813.2	
605.28	9641.8	
605.47	11557	
605.66	11149	
605.86	9474.6	
606.05	8802.9	
606.24	11417	
606.43	9977.7	
606.62	9182.4	
606.81	9975.7	
607	11183	
607.19	10630	
607.38	8581	
607.57	8786.5	
607.76	10332	
607.95	9782.5	
608.14	9219.3	
608.33	9857.6	
608.52	10320	
608.72	11254	
608.91	8504.5	
609.1	8338.6	
609.29	10274	
609.48	9869.8	
609.67	9355.8	
609.86	8409	
610.05	10010	
610.24	10344	
610.43	8199.4	
610.62	7801.4	
610.81	11452	
611	11358	
611.19	8306.6	
611.38	9075.2	
611.57	10693	
611.76	12032	
611.95	8159.1	
612.14	7977.5	
612.33	10426	
612.52	9940.8	
612.71	8700.5	
612.9	7884.7	
613.09	9511.4	
613.28	11955	
613.47	8390.5	
613.66	9470.5	
613.85	10546	
614.04	10002	
614.24	8382.3	
614.43	7651.9	
614.62	10730	
614.81	10690	
615	9139.4	
615.19	9086.8	
615.38	9838.4	
615.57	10302	
615.76	8876.6	
615.95	10015	
616.14	10699	
616.33	10353	
616.52	9295	
616.71	9562.6	
616.9	10612	
617.09	10479	
617.28	8628.1	
617.47	10257	
617.66	9686.9	
617.85	9777.7	
618.04	9543.5	
618.22	8914.1	
618.41	10126	
618.6	11142	
618.79	8923	
618.98	8652	
619.17	11404	
619.36	9672.6	
619.55	8785.8	
619.74	8945.5	
619.93	10770	
620.12	10116	
620.31	9441.8	
620.5	9680.7	
620.69	11764	
620.88	11804	
621.07	10478	
621.26	9327.1	
621.45	10838	
621.64	10963	
621.83	9638.4	
622.02	8654	
622.21	10929	
622.4	10692	
622.59	10096	
622.78	9840.5	
622.97	10242	
623.16	11263	
623.35	9376.3	
623.54	8576.9	
623.72	10589	
623.91	10757	
624.1	9660.3	
624.29	8355	
624.48	11835	
624.67	10989	
624.86	9645.3	
625.05	8636.3	
625.24	11880	
625.43	10232	
625.62	11540	
625.81	8781.7	
626	11256	
626.19	10537	
626.38	9606.3	
626.56	8978.3	
626.75	10416	
626.94	10941	
627.13	9649.3	
627.32	8201.4	
627.51	11008	
627.7	12378	
627.89	8372.8	
628.08	9644.6	
628.27	10125	
628.46	10330	
628.65	8742.8	
628.83	8320.2	
629.02	10963	
629.21	10258	
629.4	9161.9	
629.59	9352.4	
629.78	10118	
629.97	11228	
630.16	9458.2	
630.35	8937.3	
630.54	11579	
630.72	11385	
630.91	8803.5	
631.1	9405	
631.29	10753	
631.48	11007	
631.67	9474.6	
631.86	9019.3	
632.05	10266	
632.24	10449	
632.42	8471.1	
632.61	9220.6	
632.8	10475	
632.99	10130	
633.18	9248.6	
633.37	9602.9	
633.56	10700	
633.75	10563	
633.93	9215.2	
634.12	8839.7	
634.31	11550	
634.5	11114	
634.69	8839	
634.88	9497.8	
635.07	10502	
635.25	11331	
635.44	9850	
635.63	10081	
635.82	10247	
636.01	9738.8	
636.2	9769.5	
636.39	9303.9	
636.57	11480	
636.76	11244	
636.95	8653.4	
637.14	10137	
637.33	10781	
637.52	11718	
637.7	8458.8	
637.89	9413.8	
638.08	10310	
638.27	11905	
638.46	9516.2	
638.65	9954.5	
638.83	11777	
639.02	10152	
639.21	9483.5	
639.4	9938.8	
639.59	10507	
639.78	10208	
639.96	8612.4	
640.15	8534.6	
640.34	10361	
640.53	10583	
640.72	8247.2	
640.91	8776.2	
641.09	9766.8	
641.28	11276	
641.47	8566.7	
641.66	9638.4	
641.85	10483	
642.03	10785	
642.22	9245.9	
642.41	8714.1	
642.6	9905.3	
642.79	9231.6	
642.97	8423.3	
643.16	9250.7	
643.35	9848	
643.54	9606.3	
643.73	8326.4	
643.91	9234.3	
644.1	9409.1	
644.29	10102	
644.48	8410.3	
644.67	8426	
644.85	9615.2	
645.04	9876	
645.23	7815.7	
645.42	8163.2	
645.6	9382.4	
645.79	10653	
645.98	8146.8	
646.17	7010.2	
646.36	8944.8	
646.54	9638.4	
646.73	8915.5	
646.92	7606.8	
647.11	9267.7	
647.29	10363	
647.48	7658.7	
647.67	7404.8	
647.86	10568	
648.05	10615	
648.23	8027.4	
648.42	9433.6	
648.61	9893.7	
648.8	9600.9	
648.98	7618.4	
649.17	8004.1	
649.36	9244.5	
649.55	8704.5	
649.73	7686.7	
649.92	8535.3	
650.11	9066.4	
650.3	9429.5	
650.48	7780.2	
650.67	7666.9	
650.86	9869.8	
651.05	8563.9	
651.23	7731.1	
651.42	7726.3	
651.61	9159.2	
651.79	9196.1	
651.98	7951.6	
652.17	7533.1	
652.36	9553.1	
652.54	8624	
652.73	7616.4	
652.92	7401.4	
653.11	9587.2	
653.29	9708.7	
653.48	6758.3	
653.67	7931.1	
653.85	9360.6	
654.04	10547	
654.23	8032.8	
654.42	7539.9	
654.6	8718.9	
654.79	9419.3	
654.98	6855.2	
655.16	7438.9	
655.35	8317.5	
655.54	8159.8	
655.73	6931	
655.91	6942.6	
656.1	9542.2	
656.29	8215.8	
656.47	6455.9	
656.66	8359.8	
656.85	8485.4	
657.03	8659.5	
657.22	7019.8	
657.41	7202	
657.59	8723	
657.78	8544.1	
657.97	6800.6	
658.16	7608.2	
658.34	9446.6	
658.53	9878	
658.72	8480.6	
658.9	9071.8	
659.09	8840.4	
659.28	8915.5	
659.46	7372	
659.65	7137.2	
659.84	8637.6	
660.02	9157.2	
660.21	7197.9	
660.4	7074.4	
660.58	9705.3	
660.77	9000.8	
660.96	7718.8	
661.14	6747.4	
661.33	10176	
661.52	10067	
661.7	6665.5	
661.89	10808	
662.08	8438.3	
662.26	8121.6	
662.45	6948.1	
662.64	7117.4	
662.82	9254.8	
663.01	8363.9	
663.2	7135.1	
663.38	7984.3	
663.57	9127.8	
663.75	8989.2	
663.94	7453.9	
664.13	8761.2	
664.31	8491.6	
664.5	9237	
664.69	7589.8	
664.87	8295	
665.06	8213.7	
665.25	8979	
665.43	8557.1	
665.62	8660.9	
665.8	9373.6	
665.99	8577.6	
666.18	7440.3	
666.36	7527	
666.55	9237	
666.74	9211.8	
666.92	6981.5	
667.11	8944.2	
667.29	8674.5	
667.48	9314.2	
667.67	8295	
667.85	7495.6	
668.04	8665	
668.22	8750.3	
668.41	7489.4	
668.6	7612.3	
668.78	8404.2	
668.97	8640.4	
669.15	7889.5	
669.34	6772.6	
669.53	8418.5	
669.71	8714.8	
669.9	6852.5	
670.08	7619.8	
670.27	8383	
670.46	9012.4	
670.64	7990.5	
670.83	8140	
671.01	8221.9	
671.2	8976.2	
671.38	6994.5	
671.57	6945.3	
671.76	9653.4	
671.94	10286	
672.13	6794.5	
672.31	8028.7	
672.5	9260.2	
672.69	8358.4	
672.87	6969.9	
673.06	7342	
673.24	8965.3	
673.43	8411	
673.61	7759.1	
673.8	7373.4	
673.98	9097.8	
674.17	9396.1	
674.36	7940	
674.54	7775.5	
674.73	8822	
674.91	9182.4	
675.1	7469.6	
675.28	7019.8	
675.47	8615.1	
675.65	9307.3	
675.84	7368.6	
676.03	7678.5	
676.21	8398.7	
676.4	7897	
676.58	8211.7	
676.77	7944.8	
676.95	9925.1	
677.14	8343.4	
677.32	6961	
677.51	6839.5	
677.69	9173.5	
677.88	8028	
678.06	6827.2	
678.25	7012.2	
678.44	8655.4	
678.62	8357.8	
678.81	6681.2	
678.99	7745.4	
679.18	9605	
679.36	9063.6	
679.55	7277.1	
679.73	7907.2	
679.92	9030.9	
680.1	8353	
680.29	8631.5	
680.47	7252.5	
680.66	8331.1	
680.84	9171.5	
681.03	6464.8	
681.21	7765.2	
681.4	8404.9	
681.58	8226	
681.77	7010.2	
681.95	6926.9	
682.14	9287.5	
682.32	9656.9	
682.51	8004.1	
682.69	6723.5	
682.88	8279.3	
683.06	8977.6	
683.25	7638.9	
683.43	8149.6	
683.62	8589.9	
683.8	9019.3	
683.99	8142	
684.17	7487.4	
684.36	9861.7	
684.54	8383	
684.73	6429.3	
684.91	6686.6	
685.1	8703.9	
685.28	8043.7	
685.46	7189.7	
685.65	7283.9	
685.83	8891.6	
686.02	8170	
686.2	6669.6	
686.39	6788.3	
686.57	7950.2	
686.76	9658.9	
686.94	6709.8	
687.13	6916.7	
687.31	8717.5	
687.5	8232.8	
687.68	6306.4	
687.86	7671.7	
688.05	9912.9	
688.23	7643.7	
688.42	7682.6	
688.6	6839.5	
688.79	8172.8	
688.97	8096.3	
689.16	7314	
689.34	6087.2	
689.52	9088.2	
689.71	9227.5	
689.89	7606.8	
690.08	6810.9	
690.26	8426	
690.45	8381.7	
690.63	7747.5	
690.81	6980.8	
691	8082	
691.18	8069	
691.37	7078.5	
691.55	9471.9	
691.74	8013	
691.92	10252	
692.1	7131	
692.29	6508.4	
692.47	8280.6	
692.66	7513.3	
692.84	6731	
693.02	7311.9	
693.21	7635.5	
693.39	8160.5	
693.58	7408.2	
693.76	6880.5	
693.94	9597.5	
694.13	9343.5	
694.31	6854.6	
694.5	8036.2	
694.68	8142.7	
694.86	8527.7	
695.05	7303.7	
695.23	7767.3	
695.42	8937.3	
695.6	11459	
695.78	7923.6	
695.97	7000	
696.15	8919.6	
696.34	8284.7	
696.52	6619.7	
696.7	7632.1	
696.89	8688.8	
697.07	8041.7	
697.25	7511.9	
697.44	9210.4	
697.62	8497	
697.81	8974.2	
697.99	7135.8	
698.17	7688.1	
698.36	7895.6	
698.54	8630.8	
698.72	7572.7	
698.91	6526.2	
699.09	8145.5	
699.28	8084.7	
699.46	7141.3	
699.64	6999.3	
699.83	7936.6	
700.01	9329.2	
700.19	7839.6	
700.38	6261.3	
700.56	9379.7	
700.74	8079.2	
700.93	6596.5	
701.11	7591.8	
701.29	8700.5	
701.48	9901.2	
701.66	6955.6	
701.84	6915.3	
702.03	8292.9	
702.21	9015.2	
702.39	6463.4	
702.58	7118.1	
702.76	8781	
702.94	8855.4	
703.13	6456.6	
703.31	9093.7	
703.49	7957	
703.68	9634.3	
703.86	6761	
704.04	7721.5	
704.23	8564.6	
704.41	8955.1	
704.59	6898.9	
704.78	8248.5	
704.96	9668.5	
705.14	9095.7	
705.33	6666.1	
705.51	7470.3	
705.69	8275.8	
705.87	9312.8	
706.06	7938.6	
706.24	6665.5	
706.42	8688.8	
706.61	8925	
706.79	7940	
706.97	6679.8	
707.16	8092.9	
707.34	8678.6	
707.52	7712	
707.7	6961.7	
707.89	8311.3	
708.07	7918.1	
708.25	7831.4	
708.44	7938.6	
708.62	8243.1	
708.8	9513.5	
708.98	8140.7	
709.17	6956.9	
709.35	8621.9	
709.53	8692.9	
709.72	6616.3	
709.9	6814.3	
710.08	8910	
710.26	8923.7	
710.45	8397.4	
710.63	6995.2	
710.81	8507.9	
710.99	8544.8	
711.18	7680.6	
711.36	7083.9	
711.54	8322.3	
711.72	9130.5	
711.91	7156.3	
712.09	6534.4	
712.27	8435.6	
712.45	9190.6	
712.64	7378.1	
712.82	6321.4	
713	7810.3	
713.18	8058.1	
713.37	6313.2	
713.55	7716.7	
713.73	8870.4	
713.91	7395.2	
714.1	6698.9	
714.28	6107	
714.46	8350.3	
714.64	7469.6	
714.83	5356.1	
715.01	6349.4	
715.19	7438.9	
715.37	6849.1	
715.55	5877	
715.74	6243.6	
715.92	8426	
716.1	6393.8	
716.28	7374.7	
716.47	6381.5	
716.65	6960.4	
716.83	7215	
717.01	6157.6	
717.19	6348.7	
717.38	9387.2	
717.56	6868.2	
717.74	6496.2	
717.92	5623	
718.1	8163.2	
718.29	7315.3	
718.47	5340.4	
718.65	6030.6	
718.83	8118.8	
719.01	8019.2	
719.2	5206.6	
719.38	6420.4	
719.56	7764.5	
719.74	9527.8	
719.92	5866.1	
720.11	7104.4	
720.29	7763.8	
720.47	6838.2	
720.65	5421.7	
720.83	6352.8	
721.02	7177.4	
721.2	6954.2	
721.38	6365.8	
721.56	5603.2	
721.74	6375.3	
721.92	6612.2	
722.11	6892.8	
722.29	6610.2	
722.47	7917.4	
722.65	7022.5	
722.83	5574.6	
723.01	6578.8	
723.2	7144	
723.38	7339.9	
723.56	5004.6	
723.74	6260.6	
723.92	6584.9	
724.1	7864.2	
724.29	5488.6	
724.47	6761.7	
724.65	6660.7	
724.83	6558.3	
725.01	5352	
725.19	6402.6	
725.37	6663.4	
725.56	6763.8	
725.74	5169.1	
725.92	5571.8	
726.1	6600.6	
726.28	6872.3	
726.46	5968.5	
726.64	5711.8	
726.83	6821.1	
727.01	7212.3	
727.19	5189.6	
727.37	6070.2	
727.55	6989	
727.73	7514	
727.91	5219.6	
728.09	4992.9	
728.28	7634.8	
728.46	8284.7	
728.64	6318	
728.82	6237.4	
729	8796.7	
729.18	8009.6	
729.36	5418.2	
729.54	7894.9	
729.72	9162.6	
729.91	7335.1	
730.09	7592.5	
730.27	6162.3	
730.45	7204.8	
730.63	7851.2	
730.81	6928.3	
730.99	5844.9	
731.17	8452	
731.35	6963.1	
731.53	6457.9	
731.71	6025.1	
731.9	8141.4	
732.08	8379.6	
732.26	6349.4	
732.44	5864	
732.62	8400.1	
732.8	7869.7	
732.98	6635.4	
733.16	5690.6	
733.34	7826.7	
733.52	6555.5	
733.7	6152.8	
733.88	6525.5	
734.07	7658.7	
734.25	7413.6	
734.43	5608	
734.61	7352.2	
734.79	9046.6	
734.97	7219.8	
735.15	5778	
735.33	6144.6	
735.51	7691.5	
735.69	7203.4	
735.87	7350.2	
736.05	6463.4	
736.23	7436.9	
736.41	7173.4	
736.59	6197.2	
736.77	6238.8	
736.95	7976.2	
737.13	7342	
737.32	5808.7	
737.5	6128.2	
737.68	8518.2	
737.86	7249.8	
738.04	5561.6	
738.22	7651.9	
738.4	6930.3	
738.58	7307.8	
738.76	6318	
738.94	5115.1	
739.12	7131.7	
739.3	7068.9	
739.48	6982.2	
739.66	6657.3	
739.84	7346.7	
740.02	7434.8	
740.2	5272.8	
740.38	5676.3	
740.56	7885.4	
740.74	6686.6	
740.92	6420.4	
741.1	6265.4	
741.28	7168.6	
741.46	6989	
741.64	5795.1	
741.82	6497.5	
742	7267.6	
742.18	7234.1	
742.36	6066.1	
742.54	5634.6	
742.72	7815	
742.9	6475	
743.08	6494.8	
743.26	5212.1	
743.44	8106.5	
743.62	7836.2	
743.8	6647	
743.98	5543.2	
744.16	7509.2	
744.34	7249.1	
744.52	6532.3	
744.7	6414.9	
744.88	7666.2	
745.06	7226.6	
745.24	6607.4	
745.42	6668.2	
745.6	7743.4	
745.78	7513.3	
745.96	5195	
746.14	5625.8	
746.32	8549.6	
746.5	7813.7	
746.68	6266.8	
746.86	5670.1	
747.03	8245.8	
747.21	6352.1	
747.39	6217	
747.57	5650.3	
747.75	7337.2	
747.93	7674.4	
748.11	5663.3	
748.29	5506.3	
748.47	9020.6	
748.65	6930.3	
748.83	6347.3	
749.01	6081.1	
749.19	7469.6	
749.37	6535.1	
749.55	5895.4	
749.73	6087.9	
749.91	7118.7	
750.09	6811.5	
750.26	6030.6	
750.44	5425.8	
750.62	7204.8	
750.8	7204.1	
750.98	5208	
751.16	5568.4	
751.34	7215.7	
751.52	6449.7	
751.7	6450.4	
751.88	5264	
752.06	7750.9	
752.24	7579.5	
752.42	5190.2	
752.59	5560.2	
752.77	7077.1	
752.95	8457.4	
753.13	6314.6	
753.31	5664	
753.49	6738.5	
753.67	7301	
753.85	5997.1	
754.03	5513.8	
754.21	7474.4	
754.38	7869.7	
754.56	5646.2	
754.74	4608.6	
754.92	6662.7	
755.1	7402.7	
755.28	4696	
755.46	4547.2	
755.64	7974.8	
755.82	8186.4	
755.99	4696.7	
756.17	4818.2	
756.35	5355.4	
756.53	7023.9	
756.71	3534.8	
756.89	4632.5	
757.07	6572.6	
757.25	5584.8	
757.42	5204.6	
757.6	6220.4	
757.78	6686.6	
757.96	5625.1	
758.14	5007.3	
758.32	4382.7	
758.5	5107	
758.67	6071.5	
758.85	4751.3	
759.03	4864.6	
759.21	6295.5	
759.39	5601.2	
759.57	4252.9	
759.75	5581.4	
759.92	6832.7	
760.1	6118.6	
760.28	5950	
760.46	6246.3	
760.64	5917.9	
760.82	5689.3	
760.99	5834.7	
761.17	4889.9	
761.35	6800.6	
761.53	5763.7	
761.71	5048.9	
761.89	5863.3	
762.06	6707.8	
762.24	6243.6	
762.42	5145.9	
762.6	4943.1	
762.78	6255.9	
762.96	7042.3	
763.13	5655.8	
763.31	5318.6	
763.49	7192.5	
763.67	6221	
763.85	6127.5	
764.02	6835.4	
764.2	7372	
764.38	6497.5	
764.56	5165.7	
764.74	6088.6	
764.91	7575.4	
765.09	6380.8	
765.27	4773.1	
765.45	4598.4	
765.63	7542.7	
765.8	7408.9	
765.98	4255	
766.16	4646.8	
766.34	5852.4	
766.52	5659.2	
766.69	5715.9	
766.87	4474.1	
767.05	6276.3	
767.23	7036.1	
767.41	4772.4	
767.58	5075.5	
767.76	6888.7	
767.94	6978.1	
768.12	4891.2	
768.29	5689.9	
768.47	6309.8	
768.65	7143.3	
768.83	4457.1	
769	5737.7	
769.18	5830.6	
769.36	6637.5	
769.54	5677.7	
769.72	4480.3	
769.89	6927.6	
770.07	7114	
770.25	4798.4	
770.43	6166.4	
770.6	7707.9	
770.78	8178.2	
770.96	4963.6	
771.14	5775.3	
771.31	6812.9	
771.49	6116.6	
771.67	4071.4	
771.85	4371	
772.02	5255.8	
772.2	6113.9	
772.38	5152.7	
772.55	4625	
772.73	6334.4	
772.91	6134.3	
773.09	4991.6	
773.26	5147.9	
773.44	6337.8	
773.62	5981.4	
773.8	4418.8	
773.97	4154.6	
774.15	6351.4	
774.33	5924.8	
774.5	4361.5	
774.68	4743.8	
774.86	6505.7	
775.04	5968.5	
775.21	4424.3	
775.39	4485.7	
775.57	6221	
775.74	6727.6	
775.92	4239.3	
776.1	4124.6	
776.27	6152.1	
776.45	7510.6	
776.63	4351.3	
776.81	3878.2	
776.98	5822.4	
777.16	7123.5	
777.34	4516.5	
777.51	4885.8	
777.69	5786.2	
777.87	5567.1	
778.04	4564.2	
778.22	5281	
778.4	5555.5	
778.57	6283.9	
778.75	3790.1	
778.93	4098	
779.1	5357.5	
779.28	5211.4	
779.46	3781.9	
779.64	4356.7	
779.81	6410.1	
779.99	7422.5	
780.17	5162.2	
780.34	5404.6	
780.52	5845.6	
780.69	6049.7	
780.87	4692.6	
781.05	4222.9	
781.22	5919.3	
781.4	6035.4	
781.58	4279.6	
781.75	3492.5	
781.93	5969.1	
782.11	5316.5	
782.28	5295.4	
782.46	4275.5	
782.64	5156.8	
782.81	6209.4	
782.99	4397.7	
783.17	4261.8	
783.34	6019	
783.52	5160.9	
783.69	4597.7	
783.87	5505.6	
784.05	5208.7	
784.22	5261.2	
784.4	5462.6	
784.58	4696	
784.75	6251.1	
784.93	5270.1	
785.1	4328	
785.28	5040.7	
785.46	5930.9	
785.63	5266.7	
785.81	4255.7	
785.99	4160.1	
786.16	5399.1	
786.34	5896.8	
786.51	4185.4	
786.69	4550.6	
786.87	4966.3	
787.04	5544.5	
787.22	3959.4	
787.39	5029.8	
787.57	5190.9	
787.75	6421.7	
787.92	5244.8	
788.1	5177.3	
788.27	5351.3	
788.45	5083.7	
788.63	4850.3	
788.8	3433.8	
788.98	5666	
789.15	4961.5	
789.33	3632.4	
789.5	4290.5	
789.68	6303.6	
789.86	6369.9	
790.03	4829.8	
790.21	4180.6	
790.38	6212.2	
790.56	5366.4	
790.73	4020.2	
790.91	3985.3	
791.09	5219.6	
791.26	6138.4	
791.44	4272.7	
791.61	3725.3	
791.79	5192.3	
791.96	5309.7	
792.14	3802.4	
792.32	3346.4	
792.49	5231.2	
792.67	5379.3	
792.84	3878.2	
793.02	3661.1	
793.19	5727.5	
793.37	6528.9	
793.54	3409.2	
793.72	3695.2	
793.89	6663.4	
794.07	5227.1	
794.25	4397.7	
794.42	3410.6	
794.6	6414.2	
794.77	5979.4	
794.95	4713.7	
795.12	4112.3	
795.3	5195	
795.47	5939.8	
795.65	4532.2	
795.82	4338.3	
796	5025	
796.17	7132.4	
796.35	4199	
796.52	4922.6	
796.7	5830.6	
796.87	5934.3	
797.05	5186.8	
797.22	5117.2	
797.4	5855.8	
797.57	6997.2	
797.75	4339.6	
797.92	4016.1	
798.1	6201.9	
798.27	5203.2	
798.45	3473.4	
798.62	3766.2	
798.8	5552.7	
798.97	6139.1	
799.15	4597	
799.32	4354.7	
799.5	4763.6	
799.67	5640.8	
799.85	4690.5	
800.02	3425.6	
800.2	5140.4	
800.37	5608	
800.55	4861.9	
800.72	4064.5	
800.9	6034	
801.07	6565.1	
801.25	5521.3	
801.42	4448.9	
801.6	6074.3	
801.77	5810.1	
801.95	4101.4	
802.12	3921.9	
802.29	5705.6	
802.47	5711.1	
802.64	4452.3	
802.82	3358	
802.99	5113.1	
803.17	6281.1	
803.34	4313.7	
803.52	3854.3	
803.69	6992.4	
803.87	4924	
804.04	4285	
804.21	4328.7	
804.39	6387.6	
804.56	5388.9	
804.74	3616.7	
804.91	4497.3	
805.09	5195.7	
805.26	5325.4	
805.44	3687.7	
805.61	4058.4	
805.78	5887.9	
805.96	5994.4	
806.13	4511	
806.31	4797	
806.48	4681.7	
806.66	5307.7	
806.83	4388.1	
807	4347.8	
807.18	5215.5	
807.35	5599.1	
807.53	4037.9	
807.7	3425.6	
807.87	6449.1	
808.05	5224.4	
808.22	4763.6	
808.4	3394.2	
808.57	5309	
808.74	4825	
808.92	3997.6	
809.09	5056.4	
809.27	5074.2	
809.44	5789.6	
809.61	3502	
809.79	3893.9	
809.96	6393.8	
810.14	6032	
810.31	3374.4	
810.48	4175.8	
810.66	5353.4	
810.83	6130.9	
811.01	3911.6	
811.18	4384.7	
811.35	6055.2	
811.53	4659.1	
811.7	4778.6	
811.87	4496.7	
812.05	5227.8	
812.22	5152	
812.39	3803.8	
812.57	3714.3	
812.74	5190.9	
812.92	7075	
813.09	4119.8	
813.26	4456.4	
813.44	6852.5	
813.61	5149.3	
813.78	3478.1	
813.96	4691.2	
814.13	5261.9	
814.3	4892.6	
814.48	5076.9	
814.65	4196.3	
814.82	6591	
815	4992.3	
815.17	4290.5	
815.34	5238	
815.52	5105.6	
815.69	5169.8	
815.87	4239.3	
816.04	4191.5	
816.21	5264	
816.38	4668	
816.56	4145.8	
816.73	3768.9	
816.9	6599.9	
817.08	6079.1	
817.25	3876.1	
817.42	4865.3	
817.6	4776.5	
817.77	5239.4	
817.94	4378.6	
818.12	3812.6	
818.29	4958.8	
818.46	7922.9	
818.64	3943	
818.81	3696.6	
818.98	4851.6	
819.16	7211.6	
819.33	4596.3	
819.5	4268	
819.67	5620.3	
819.85	6380.8	
820.02	4197	
820.19	4482.3	
820.37	5492.7	
820.54	5038	
820.71	4313	
820.88	5416.2	
821.06	5571.2	
821.23	4975.2	
821.4	4390.8	
821.58	4291.9	
821.75	6011.5	
821.92	5374.6	
822.09	3461.7	
822.27	3601	
822.44	5257.1	
822.61	5131.5	
822.79	3517.7	
822.96	6846.4	
823.13	5805.3	
823.3	4930.1	
823.48	4068.6	
823.65	3620.1	
823.82	5991	
823.99	4772.4	
824.17	5116.5	
824.34	3758.7	
824.51	6987.7	
824.68	5339.7	
824.86	3872	
825.03	4376.5	
825.2	5223	
825.37	6436.1	
825.55	3791.5	
825.72	4293.9	
825.89	7099.6	
826.06	6512.5	
826.24	4159.4	
826.41	4207.9	
826.58	6429.9	
826.75	5566.4	
826.92	3280.8	
827.1	3609.2	
827.27	8800.8	
827.44	7061.4	
827.61	3986	
827.79	4835.3	
827.96	4943.1	
828.13	5427.1	
828.3	4160.8	
828.47	3492.5	
828.65	5433.9	
828.82	5451.7	
828.99	5358.2	
829.16	4739	
829.34	6007.4	
829.51	5611.4	
829.68	4299.4	
829.85	4485.1	
830.02	6171.9	
830.2	5963.7	
830.37	3280.8	
830.54	5235.3	
830.71	6746.7	
830.88	5202.5	
831.05	3364.8	
831.23	3900.7	
831.4	6434	
831.57	7277.8	
831.74	3992.2	
831.91	3521.1	
832.09	5463.3	
832.26	5909.8	
832.43	4127.3	
832.6	4681	
832.77	5410.7	
832.94	6291.4	
833.12	3239.2	
833.29	4061.1	
833.46	5211.4	
833.63	7518.1	
833.8	4484.4	
833.97	4153.3	
834.15	5934.3	
834.32	5659.2	
834.49	4317.1	
834.66	4392.9	
834.83	6137.8	
835	4988.2	
835.17	3981.3	
835.35	3960.8	
835.52	5748.6	
835.69	5676.3	
835.86	4188.1	
836.03	3438.5	
836.2	5816.9	
836.37	5469.4	
836.55	4145.8	
836.72	3908.9	
836.89	5411.4	
837.06	5900.2	
837.23	4252.9	
837.4	4587.4	
837.57	6731.7	
837.75	7544	
837.92	3773	
838.09	4046.8	
838.26	5452.4	
838.43	6223.8	
838.6	4285.7	
838.77	3851.5	
838.94	7106.5	
839.11	6688	
839.29	4122.6	
839.46	3196.9	
839.63	5864.7	
839.8	5582.8	
839.97	4052.9	
840.14	3983.3	
840.31	5599.1	
840.48	5879	
840.65	3303.4	
840.82	3925.3	
841	5845.6	
841.17	5836	
841.34	3699.3	
841.51	3751.2	
841.68	5767.1	
841.85	5513.8	
842.02	3830.4	
842.19	3181.9	
842.36	5603.9	
842.53	5556.8	
842.7	3689.1	
842.87	4503.5	
843.05	7419.8	
843.22	5565	
843.39	3484.3	
843.56	3758	
843.73	5225.1	
843.9	5949.3	
844.07	5971.2	
844.24	4990.2	
844.41	8802.2	
844.58	5042.8	
844.75	3573	
844.92	3891.8	
845.09	5872.2	
845.26	5816.9	
845.43	3611.9	
845.6	3867.2	
845.77	5882.4	
845.94	5563	
846.12	4077.5	
846.29	4283	
846.46	6071.5	
846.63	5855.1	
846.8	3644.7	
846.97	4356	
847.14	6365.8	
847.31	5778.7	
847.48	4032.5	
847.65	4524.6	
847.82	6152.1	
847.99	6115.2	
848.16	4925.4	
848.33	4605.2	
848.5	5359.5	
848.67	6377.4	
848.84	3637.9	
849.01	3793.5	
849.18	5204.6	
849.35	4891.9	
849.52	4614.1	
849.69	3592.1	
849.86	6078.4	
850.03	6334.4	
850.2	3665.2	
850.37	4549.9	
850.54	6264.1	
850.71	5524.7	
850.88	4420.9	
851.05	3588.7	
851.22	5722.7	
851.39	6490	
851.56	3431.7	
851.73	4212.7	
851.9	5073.5	
852.07	6090.7	
852.24	4034.5	
852.41	3606.5	
852.58	5687.2	
852.75	5214.1	
852.92	4063.9	
853.09	3519.1	
853.26	5463.3	
853.43	6371.9	
853.6	3592.1	
853.77	3117	
853.94	6482.5	
854.11	5803.9	
854.28	5487.9	
854.44	3937.6	
854.61	6929.6	
854.78	6277	
854.95	3594.2	
855.12	4625.7	
855.29	4639.3	
855.46	6497.5	
855.63	3651.5	
855.8	5117.9	
855.97	5360.2	
856.14	6171.2	
856.31	5266	
856.48	3993.5	
856.65	5378.6	
856.82	5049.6	
856.99	3517	
857.16	3985.3	
857.33	7176.1	
857.49	5465.3	
857.66	3905.5	
857.83	4270	
858	5444.9	
858.17	5737	
858.34	3386.7	
858.51	3627	
858.68	6636.1	
858.85	6646.3	
859.02	4212	
859.19	4567.7	
859.36	5091.9	
859.52	5171.8	
859.69	3672	
859.86	4328	
860.03	5153.4	
860.2	6490.7	
860.37	3265.1	
860.54	3661.8	
860.71	6072.2	
860.88	6561	
861.05	4084.3	
861.21	4653	
861.38	6543.9	
861.55	5018.9	
861.72	3319.1	
861.89	4090.5	
862.06	6153.5	
862.23	6731.7	
862.4	3558.7	
862.56	3776.5	
862.73	5996.5	
862.9	5655.1	
863.07	4272.7	
863.24	3284.3	
863.41	5016.2	
863.58	5094.7	
863.75	3697.9	
863.91	4210.6	
864.08	6472.9	
864.25	6026.5	
864.42	4591.5	
864.59	5160.2	
864.76	6829.3	
864.93	5168.4	
865.09	3534.1	
865.26	3863.8	
865.43	6365.1	
865.6	6772.6	
865.77	3141.6	
865.94	3608.5	
866.1	6455.9	
866.27	6193.1	
866.44	5482.4	
866.61	3438.5	
866.78	5583.4	
866.95	5974.6	
867.11	3514.3	
867.28	3229	
867.45	6146	
867.62	5188.9	
867.79	4206.5	
867.96	3550.5	
868.12	5115.8	
868.29	6164.4	
868.46	3661.8	
868.63	4868.7	
868.8	6310.5	
868.97	6090	
869.13	3857.7	
869.3	3792.8	
869.47	6010.1	
869.64	6156.9	
869.81	3705.5	
869.97	3685.7	
870.14	5834	
870.31	6591.7	
870.48	3521.8	
870.65	4646.2	
870.81	5436.7	
870.98	5427.1	
871.15	4154.6	
871.32	3760.8	
871.48	5931.6	
871.65	6609.5	
871.82	3557.3	
871.99	4005.8	
872.16	7069.6	
872.32	6520	
872.49	3669.3	
872.66	3701.4	
872.83	6069.5	
872.99	5280.3	
873.16	4230.4	
873.33	3541.6	
873.5	5744.6	
873.67	5702.9	
873.83	3795.6	
874	4930.8	
874.17	5830.6	
874.34	6950.1	
874.5	4689.2	
874.67	4566.3	
874.84	6533	
875.01	5105.6	
875.17	5216.9	
875.34	3611.3	
875.51	5777.3	
875.68	7037.5	
875.84	4384.7	
876.01	5452.4	
876.18	6092.7	
876.34	5946.6	
876.51	3679.5	
876.68	3564.8	
876.85	5504.9	
877.01	6333	
877.18	5280.3	
877.35	3646.7	
877.52	5595.1	
877.68	5029.8	
877.85	3540.3	
878.02	3551.9	
878.18	5618.3	
878.35	5277.6	
878.52	2853.5	
878.69	4076.8	
878.85	6122.7	
879.02	6059.3	
879.19	5208	
879.35	3951.9	
879.52	6062.7	
879.69	6272.2	
879.86	3149.1	
880.02	4094.6	
880.19	5563.6	
880.36	6894.1	
880.52	4190.1	
880.69	4377.9	
880.86	6187.6	
881.02	6236.1	
881.19	4017.4	
881.36	3964.2	
881.52	6066.1	
881.69	5314.5	
881.86	3867.9	
882.02	3827.7	
882.19	6318	
882.36	7511.3	
882.52	3725.9	
882.69	5176.6	
882.86	5897.5	
883.02	5709.7	
883.19	4416.8	
883.36	4182.6	
883.52	6176	
883.69	7027.3	
883.86	3676.1	
884.02	3297.9	
884.19	6204	
884.36	5637.4	
884.52	4121.2	
884.69	3848.8	
884.86	5350.7	
885.02	6769.2	
885.19	4016.7	
885.36	4190.1	
885.52	5644.9	
885.69	5780.7	
885.86	5347.9	
886.02	4726	
886.19	6115.2	
886.35	5526.1	
886.52	3997	
886.69	5171.8	
886.85	5154.7	
887.02	6494.1	
887.19	6494.1	
887.35	6494.1	
887.52	6494.1	
887.68	6494.1	
887.85	6494.1	
888.02	6494.1	
888.18	6494.1	
888.35	6494.1	
888.51	6494.1	
888.68	6494.1	
888.85	6494.1	
889.01	6494.1	
889.18	6494.1	
889.35	6494.1	
889.51	6494.1	
889.68	6494.1	
889.84	6494.1	
890.01	6494.1	
890.17	6494.1	
890.34	6494.1	
890.51	6494.1	
890.67	6494.1	
890.84	6494.1	
891	6494.1	
891.17	6494.1	
891.34	6494.1	
891.5	6494.1	
891.67	6494.1	
891.83	6494.1	
892	6494.1	
892.16	6494.1	
892.33	6494.1	
892.5	6494.1	
892.66	6494.1	
892.83	6494.1	
892.99	6494.1	
893.16	6494.1	
893.32	6494.1	
893.49	6494.1	
893.65	6494.1	
893.82	6494.1	
893.99	6494.1	
894.15	6494.1	
894.32	6494.1	
894.48	6494.1	
894.65	6494.1	
894.81	6494.1	
894.98	6494.1	
895.14	6494.1	
895.31	6494.1	
895.47	6494.1	
895.64	6494.1	
895.81	6494.1	
895.97	6494.1	
896.14	6494.1	
896.3	6494.1	
896.47	6494.1	
896.63	6494.1	
896.8	6494.1	
896.96	6494.1	
897.13	6494.1	
897.29	6494.1	
897.46	6494.1	
897.62	6494.1	
897.79	6494.1	
897.95	6494.1	
898.12	6494.1	
898.28	6494.1	
898.45	6494.1	
898.61	6494.1	
898.78	6494.1	
898.94	6494.1	
899.11	6494.1	
899.27	6494.1	
899.44	6494.1	
899.6	6494.1	
899.77	6494.1	
899.93	6494.1	
900.1	6494.1	
900.26	6494.1	
900.43	6494.1	
900.59	6494.1	
900.76	6494.1	
900.92	6494.1	
901.09	6494.1	
901.25	6494.1	
901.42	6494.1	
901.58	6494.1	
901.75	6494.1	
901.91	6494.1	
902.07	6494.1	
902.24	6494.1	
902.4	6494.1	
902.57	6494.1	
902.73	6494.1	
902.9	6494.1	
903.06	6494.1	
903.23	6494.1	
903.39	6494.1	
903.56	6494.1	
903.72	6494.1	
903.88	6494.1	
904.05	6494.1	
904.21	6494.1	
904.38	6494.1	
904.54	6494.1	
904.71	6494.1	
904.87	6494.1	
905.03	6494.1	
905.2	6494.1	
905.36	6494.1	
905.53	6494.1	
905.69	6494.1	
905.86	6494.1	
906.02	6494.1	
906.18	6494.1	
906.35	6494.1	
906.51	6494.1	
906.68	6494.1	
906.84	6494.1	
907.01	6494.1	
907.17	6494.1	
907.33	6494.1	
907.5	6494.1	
907.66	6494.1	
907.83	6494.1	
907.99	6494.1	
908.15	6494.1	
908.32	6494.1	
908.48	6494.1	
908.65	6494.1	
908.81	6494.1	
908.97	6494.1	
909.14	6494.1	
909.3	6494.1	
909.47	6494.1	
909.63	6494.1	
909.79	6494.1	
909.96	6494.1	
910.12	6494.1	
910.28	6494.1	
910.45	6494.1	
910.61	6494.1	
910.78	6494.1	
910.94	6494.1	
911.1	6494.1	
911.27	6494.1	
911.43	6494.1	
911.59	6494.1	
911.76	6494.1	
911.92	6494.1	
912.08	6494.1	
912.25	6494.1	
912.41	6494.1	
912.57	6494.1	
912.74	6494.1	
912.9	6494.1	
913.07	6494.1	
913.23	6494.1	
913.39	6494.1	
913.56	6494.1	
913.72	6494.1	
913.88	6494.1	
914.05	6494.1	
914.21	6494.1	
914.37	6494.1	
914.54	6494.1	
914.7	6494.1	
914.86	6494.1	
915.03	6494.1	
915.19	6494.1	
