Wavelength	Intensities	
nm	a.u.	
179.22	1933.8	
179.44	1935.7	
179.65	1931.9	
179.86	1939.4	
180.08	1940.1	
180.29	5061.2	
180.51	3532.7	
180.72	5726.8	
180.94	6784.2	
181.15	3308.2	
181.37	3216	
181.58	5627.1	
181.79	5988.9	
182.01	3409.9	
182.22	3727.3	
182.44	5885.2	
182.65	4945.2	
182.87	4644.8	
183.08	4111.6	
183.29	6211.5	
183.51	5047.6	
183.72	3786	
183.94	5548.6	
184.15	5450.3	
184.37	5613.5	
184.58	3262.4	
184.79	4603.2	
185.01	5111.7	
185.22	5892.7	
185.44	4846.2	
185.65	4044.1	
185.86	5307.7	
186.08	4957.4	
186.29	3258.3	
186.51	3420.8	
186.72	5112.4	
186.94	6070.2	
187.15	4027	
187.36	4146.5	
187.58	7895.6	
187.79	5649.7	
188.01	4302.8	
188.22	6748.7	
188.43	6748.7	
188.65	5871.5	
188.86	3485	
189.08	4153.3	
189.29	5297.4	
189.5	5299.5	
189.72	3824.9	
189.93	3943.7	
190.15	6094.8	
190.36	7355.6	
190.57	4250.9	
190.79	4128	
191	6173.9	
191.22	6193.7	
191.43	4212	
191.64	3390.8	
191.86	6373.3	
192.07	6113.9	
192.29	3635.1	
192.5	3827.7	
192.71	6071.5	
192.93	5174.5	
193.14	3802.4	
193.35	3893.9	
193.57	5224.4	
193.78	6034	
194	3065.8	
194.21	3788.1	
194.42	4991.6	
194.64	5498.8	
194.85	4173.1	
195.07	4851	
195.28	5610.8	
195.49	4797.7	
195.71	5119.9	
195.92	3500.7	
196.13	5801.2	
196.35	5821	
196.56	5499.5	
196.78	4156.7	
196.99	7283.9	
197.2	6765.8	
197.42	4756.7	
197.63	4207.9	
197.84	4879.6	
198.06	5739.8	
198.27	3826.3	
198.48	5147.2	
198.7	5279.7	
198.91	5423.7	
199.13	4147.8	
199.34	4158.7	
199.55	5918.6	
199.77	4787.5	
199.98	3676.1	
200.19	4212.7	
200.41	5359.5	
200.62	5080.3	
200.83	4351.9	
201.05	4720.6	
201.26	5408	
201.47	5124.7	
201.69	3654.3	
201.9	3583.3	
202.11	5481	
202.33	6510.5	
202.54	3988.1	
202.76	4408.6	
202.97	5634	
203.18	5647.6	
203.4	4346.5	
203.61	4240.7	
203.82	5587.5	
204.04	5160.2	
204.25	4151.2	
204.46	4119.8	
204.68	5587.5	
204.89	5804.6	
205.1	4145.8	
205.32	3527.3	
205.53	5945.9	
205.74	6092.7	
205.96	3031.7	
206.17	4311.7	
206.38	5912.5	
206.6	6075.6	
206.81	4816.1	
207.02	3864.5	
207.24	5742.5	
207.45	6173.9	
207.66	4012.7	
207.88	3349.8	
208.09	5668.8	
208.3	5548.6	
208.52	3599.6	
208.73	4080.2	
208.94	5560.9	
209.15	6272.2	
209.37	3984.7	
209.58	4218.1	
209.79	6113.2	
210.01	5365.7	
210.22	3164.1	
210.43	3288.4	
210.65	5530.2	
210.86	5917.9	
211.07	3969.6	
211.29	3616	
211.5	5884.5	
211.71	5442.8	
211.93	3632.4	
212.14	3646.1	
212.35	5447.6	
212.56	5692.7	
212.78	4224.3	
212.99	3461.7	
213.2	6564.4	
213.42	5180.7	
213.63	3765.5	
213.84	4110.3	
214.06	4883.7	
214.27	4977.2	
214.48	3973.7	
214.69	4225	
214.91	6234	
215.12	6275.7	
215.33	4310.3	
215.55	4810	
215.76	6846.4	
215.97	5934.3	
216.18	4114.4	
216.4	4030.4	
216.61	5222.3	
216.82	5980.1	
217.04	3728.7	
217.25	3801	
217.46	6246.3	
217.67	5950	
217.89	3254.2	
218.1	3385.3	
218.31	5597.1	
218.53	5717.2	
218.74	3870.7	
218.95	3695.9	
219.16	5429.2	
219.38	6490.7	
219.59	3747.8	
219.8	4481	
220.01	7210.9	
220.23	5512.4	
220.44	4891.9	
220.65	3590.1	
220.87	5544.5	
221.08	6153.5	
221.29	3347.7	
221.5	4575.2	
221.72	7588.4	
221.93	5257.1	
222.14	4213.4	
222.35	4995	
222.57	5634.6	
222.78	5887.2	
222.99	4054.3	
223.2	4360.1	
223.42	5806	
223.63	5985.5	
223.84	3070.6	
224.05	3020.8	
224.27	7133.8	
224.48	6508.4	
224.69	4952	
224.9	4171	
225.12	5718.6	
225.33	5512.4	
225.54	3305.4	
225.75	3742.3	
225.97	5094	
226.18	5369.8	
226.39	4070.7	
226.6	3719.8	
226.82	5322.7	
227.03	5168.4	
227.24	4189.5	
227.45	3446	
227.67	5872.2	
227.88	6529.6	
228.09	4706.2	
228.3	4782.7	
228.52	5953.4	
228.73	5503.6	
228.94	3879.5	
229.15	3448.1	
229.36	5402.5	
229.58	5351.3	
229.79	3909.6	
230	4569	
230.21	6610.8	
230.43	5644.9	
230.64	4169.7	
230.85	4283	
231.06	5935	
231.28	5948.7	
231.49	3414	
231.7	4072	
231.91	5874.9	
232.12	5572.5	
232.34	3506.8	
232.55	4095.9	
232.76	6187.6	
232.97	5740.5	
233.18	3654.9	
233.4	4169	
233.61	5743.2	
233.82	5268.7	
234.03	3866.6	
234.25	3785.3	
234.46	7727.7	
234.67	5520	
234.88	4282.3	
235.09	3665.9	
235.31	5895.4	
235.52	5350	
235.73	4154	
235.94	3500	
236.15	5261.2	
236.37	6765.8	
236.58	3698.6	
236.79	4018.1	
237	5859.9	
237.21	4976.6	
237.43	4297.3	
237.64	3403.7	
237.85	10236	
238.06	5090.6	
238.27	4383.3	
238.48	3467.9	
238.7	5905	
238.91	5343.8	
239.12	3974.4	
239.33	4057	
239.54	5070.8	
239.76	5437.4	
239.97	4083	
240.18	3962.8	
240.39	7036.1	
240.6	5853.8	
240.82	4106.9	
241.03	3381.2	
241.24	5545.2	
241.45	6442.2	
241.66	3620.1	
241.87	4298.7	
242.09	6316.6	
242.3	6713.9	
242.51	4356.7	
242.72	4045.4	
242.93	5958.2	
243.14	5404.6	
243.36	4593.6	
243.57	5046.9	
243.78	6395.8	
243.99	5912.5	
244.2	4015.4	
244.41	3646.7	
244.63	5036.6	
244.84	5860.6	
245.05	4242.7	
245.26	3960.8	
245.47	5853.1	
245.68	6144.6	
245.9	5373.9	
246.11	4174.4	
246.32	5362.3	
246.53	5763	
246.74	6533.7	
246.95	3417.4	
247.16	4971.8	
247.38	5513.1	
247.59	3295.2	
247.8	4001.7	
248.01	5165	
248.22	5441.5	
248.43	3602.4	
248.64	3906.8	
248.86	4864.6	
249.07	5227.8	
249.28	3519.8	
249.49	4128	
249.7	6105.7	
249.91	6298.2	
250.12	3293.1	
250.34	3435.1	
250.55	5612.8	
250.76	5567.1	
250.97	4141	
251.18	4169.7	
251.39	6234.7	
251.6	5687.9	
251.81	4304.8	
252.03	4222.2	
252.24	5221.6	
252.45	6070.2	
252.66	3480.2	
252.87	4457.1	
253.08	5599.8	
253.29	7284.6	
253.5	3477.5	
253.72	4853	
253.93	5377.3	
254.14	6626.5	
254.35	3800.3	
254.56	3929.4	
254.77	5796.4	
254.98	5091.3	
255.19	3725.3	
255.41	4891.2	
255.62	5631.2	
255.83	6244.3	
256.04	4330.8	
256.25	4195.6	
256.46	6832	
256.67	5208.7	
256.88	4189.5	
257.09	4635.9	
257.31	5136.3	
257.52	5168.4	
257.73	5163.6	
257.94	3816	
258.15	5322.7	
258.36	5572.5	
258.57	4829.8	
258.78	3039.2	
258.99	6093.4	
259.2	5367.7	
259.41	3842.7	
259.63	3927.3	
259.84	6417.7	
260.05	6872.3	
260.26	5083.7	
260.47	3752.6	
260.68	6124.1	
260.89	5459.2	
261.1	4619.5	
261.31	3677.5	
261.52	6144.6	
261.73	6524.1	
261.95	4939.7	
262.16	4287.1	
262.37	6268.8	
262.58	6412.2	
262.79	4941.7	
263	3907.5	
263.21	5591	
263.42	5011.4	
263.63	3953.9	
263.84	3855	
264.05	6212.2	
264.26	6490	
264.47	4801.8	
264.69	4401.1	
264.9	6236.7	
265.11	5776.6	
265.32	3738.2	
265.53	3826.3	
265.74	5654.4	
265.95	4917.9	
266.16	4067.9	
266.37	4606.6	
266.58	5635.3	
266.79	5351.3	
267	3807.2	
267.21	3564.1	
267.42	5122	
267.63	5562.3	
267.84	4014.7	
268.06	3452.9	
268.27	6012.2	
268.48	6262.7	
268.69	3949.8	
268.9	4634.6	
269.11	6316.6	
269.32	4971.8	
269.53	3981.9	
269.74	3709.6	
269.95	5881.8	
270.16	4854.4	
270.37	4019.5	
270.58	4605.9	
270.79	5357.5	
271	6090	
271.21	4302.8	
271.42	4067.9	
271.63	5694.7	
271.84	5170.4	
272.05	3173	
272.26	3601	
272.47	5535.7	
272.68	5784.8	
272.89	3858.4	
273.11	4436.6	
273.32	5273.5	
273.53	6489.3	
273.74	4346.5	
273.95	4239.3	
274.16	6253.8	
274.37	5548.6	
274.58	4397.7	
274.79	3502.7	
275	5626.5	
275.21	6212.2	
275.42	5270.1	
275.63	4591.5	
275.84	5801.9	
276.05	7285.3	
276.26	4252.9	
276.47	4044.1	
276.68	5274.2	
276.89	6517.3	
277.1	4536.3	
277.31	3550.5	
277.52	5793	
277.73	5922.7	
277.94	3456.3	
278.15	3901.4	
278.36	5774.6	
278.57	5143.8	
278.78	3848.1	
278.99	4359.4	
279.2	5087.8	
279.41	5058.5	
279.62	5058.5	
279.83	3596.2	
280.04	6776	
280.25	5006.6	
280.46	5049.6	
280.67	4014.7	
280.88	5116.5	
281.09	6240.8	
281.3	4241.3	
281.51	5408.7	
281.72	6049	
281.93	6061.3	
282.14	3772.4	
282.35	4092.5	
282.56	6042.9	
282.77	6040.8	
282.98	3906.8	
283.19	4781.3	
283.4	7449.8	
283.61	5465.3	
283.82	3550.5	
284.03	5046.2	
284.24	5664	
284.45	6199.9	
284.66	4981.3	
284.87	4797	
285.08	6162.3	
285.29	6270.9	
285.5	3367.5	
285.71	3917.8	
285.92	6206.7	
286.12	6886	
286.33	4965.6	
286.54	3902.1	
286.75	6042.9	
286.96	5427.8	
287.17	3559.4	
287.38	4938.3	
287.59	5113.1	
287.8	5012.1	
288.01	3951.2	
288.22	4526.7	
288.43	6106.4	
288.64	5021.6	
288.85	4662.5	
289.06	4469.4	
289.27	5944.6	
289.48	6534.4	
289.69	5005.2	
289.9	4493.9	
290.11	6275.7	
290.32	5221	
290.53	4730.1	
290.74	4387.4	
290.94	5954.8	
291.15	6016.9	
291.36	3825.6	
291.57	4487.1	
291.78	5233.9	
291.99	4905.6	
292.2	3605.1	
292.41	4339.6	
292.62	6085.9	
292.83	5915.2	
293.04	5416.2	
293.25	3587.4	
293.46	5304.9	
293.67	6186.9	
293.88	3715	
294.09	3581.2	
294.29	5084.4	
294.5	5709.7	
294.71	4029.7	
294.92	3848.8	
295.13	5322	
295.34	6728.3	
295.55	3376.4	
295.76	3482.9	
295.97	5991	
296.18	6748.7	
296.39	3616	
296.6	3772.4	
296.81	5662	
297.01	5978.7	
297.22	3989.4	
297.43	3740.3	
297.64	5183.4	
297.85	5182	
298.06	3128.6	
298.27	3396.9	
298.48	5618.3	
298.69	5287.9	
298.9	4101.4	
299.11	3682.9	
299.31	5020.9	
299.52	5083.1	
299.73	4405.9	
299.94	4308.2	
300.15	5578	
300.36	5167	
300.57	4299.4	
300.78	4248.9	
300.99	5433.3	
301.2	5631.2	
301.4	3710.2	
301.61	4080.2	
301.82	5852.4	
302.03	5993.7	
302.24	4650.9	
302.45	3538.9	
302.66	5885.2	
302.87	6365.8	
303.08	3818.8	
303.29	5227.1	
303.49	5294	
303.7	5545.9	
303.91	3317.7	
304.12	4930.8	
304.33	5014.1	
304.54	5655.8	
304.75	3769.6	
304.96	3614	
305.16	5839.4	
305.37	6638.1	
305.58	3266.5	
305.79	3433.8	
306	5855.8	
306.21	4919.2	
306.42	3779.2	
306.63	5823.1	
306.83	5410.7	
307.04	6169.8	
307.25	4195.6	
307.46	4182	
307.67	4708.3	
307.88	6080.4	
308.09	3639.9	
308.29	3860.4	
308.5	5672.2	
308.71	6163	
308.92	4008.6	
309.13	3651.5	
309.34	5399.1	
309.55	5476.3	
309.75	4636.6	
309.96	4310.3	
310.17	5993	
310.38	5261.9	
310.59	4524.6	
310.8	3517.7	
311.01	5386.8	
311.21	5391.6	
311.42	3552.5	
311.63	3755.3	
311.84	5224.4	
312.05	5714.5	
312.26	4140.3	
312.46	4606.6	
312.67	5341.1	
312.88	5130.8	
313.09	3693.2	
313.3	3540.3	
313.51	6393.8	
313.71	6743.3	
313.92	3628.3	
314.13	3882.3	
314.34	5782.8	
314.55	5487.9	
314.76	4681.7	
314.96	4141.7	
315.17	5670.8	
315.38	5961.6	
315.59	3641.3	
315.8	3486.3	
316.01	6476.4	
316.21	6500.9	
316.42	3480.9	
316.63	4013.3	
316.84	5418.9	
317.05	6320.7	
317.26	4349.9	
317.46	3806.5	
317.67	5483.8	
317.88	5945.9	
318.09	4565.6	
318.3	3349.8	
318.5	5259.9	
318.71	5933.6	
318.92	5950.7	
319.13	4259.1	
319.34	6064	
319.54	6192.4	
319.75	3369.6	
319.96	3233.7	
320.17	5969.8	
320.38	6126.8	
320.58	3338.9	
320.79	3936.2	
321	6124.8	
321.21	6221	
321.42	4059.1	
321.62	3297.2	
321.83	5130.2	
322.04	5571.8	
322.25	3786.7	
322.46	3697.9	
322.66	5601.2	
322.87	5783.5	
323.08	4540.3	
323.29	3614.7	
323.5	6745.3	
323.7	5037.3	
323.91	4999.1	
324.12	4523.3	
324.33	5602.6	
324.53	5878.4	
324.74	4262.5	
324.95	4612	
325.16	4904.9	
325.37	5280.3	
325.57	3650.2	
325.78	3781.9	
325.99	5596.4	
326.2	5044.8	
326.4	5339.1	
326.61	3409.2	
326.82	5485.8	
327.03	5745.2	
327.24	5212.1	
327.44	4987.5	
327.65	5801.9	
327.86	4646.8	
328.07	4272.7	
328.27	3569.6	
328.48	6272.9	
328.69	5086.5	
328.9	5279.7	
329.1	3956	
329.31	5411.4	
329.52	6466.1	
329.73	3658.4	
329.93	4128.7	
330.14	5565.7	
330.35	5837.4	
330.56	6137.8	
330.76	4508.9	
330.97	5408	
331.18	5797.8	
331.39	4020.2	
331.59	3245.3	
331.8	6167.8	
332.01	6264.1	
332.22	3718.4	
332.42	4351.3	
332.63	5735.7	
332.84	5197.1	
333.05	4087.1	
333.25	3709.6	
333.46	5311.1	
333.67	5638.7	
333.88	3779.2	
334.08	4252.9	
334.29	7610.9	
334.5	6328.2	
334.7	3581.2	
334.91	5249.6	
335.12	5100.1	
335.33	5973.9	
335.53	4065.9	
335.74	6055.8	
335.95	5291.3	
336.16	5176.6	
336.36	3994.2	
336.57	4699.4	
336.78	5038	
336.98	6130.9	
337.19	4982	
337.4	3944.4	
337.61	6735.1	
337.81	5062.6	
338.02	3802.4	
338.23	4924	
338.43	6388.3	
338.64	5177.3	
338.85	3644.7	
339.05	4892.6	
339.26	6425.8	
339.47	4980	
339.68	3700.7	
339.88	5470.8	
340.09	5808.7	
340.3	6029.2	
340.5	4328	
340.71	3267.2	
340.92	5046.2	
341.13	6304.3	
341.33	3573	
341.54	4295.3	
341.75	5788.2	
341.95	5448.3	
342.16	4103.4	
342.37	4461.8	
342.57	5171.1	
342.78	5512.4	
342.99	4566.3	
343.19	3264.5	
343.4	5997.1	
343.61	5797.1	
343.81	3872	
344.02	3577.8	
344.23	5994.4	
344.43	6469.5	
344.64	4509.6	
344.85	4425	
345.06	5849.7	
345.26	6161	
345.47	4203.1	
345.68	4995.7	
345.88	4873.5	
346.09	6081.8	
346.3	4319.8	
346.5	3233.1	
346.71	5512.4	
346.92	5230.5	
347.12	3376.4	
347.33	4240	
347.54	6142.5	
347.74	6593.1	
347.95	4170.3	
348.16	3135.4	
348.36	5362.3	
348.57	5143.1	
348.78	4140.3	
348.98	4540.3	
349.19	5524.1	
349.39	5008	
349.6	3384.6	
349.81	3721.2	
350.01	5817.6	
350.22	5260.5	
350.43	4051.6	
350.63	4931.5	
350.84	5577.3	
351.05	5442.1	
351.25	3718.4	
351.46	3383.2	
351.67	6219.7	
351.87	5261.9	
352.08	3968.3	
352.29	4536.3	
352.49	6046.3	
352.7	6194.4	
352.9	3606.5	
353.11	4546.5	
353.32	6817.7	
353.52	5370.5	
353.73	3532.7	
353.94	4588.8	
354.14	5934.3	
354.35	5732.3	
354.55	3637.9	
354.76	4152.6	
354.97	5854.5	
355.17	5639.4	
355.38	3473.4	
355.59	4840.7	
355.79	5342.5	
356	5776.6	
356.2	4106.9	
356.41	3635.8	
356.62	5018.9	
356.82	5504.3	
357.03	4378.6	
357.24	3969	
357.44	5339.7	
357.65	5465.3	
357.85	5283.8	
358.06	4155.3	
358.27	5075.5	
358.47	5291.3	
358.68	3461.1	
358.88	4378.6	
359.09	5905	
359.3	6315.9	
359.5	5189.6	
359.71	4584.7	
359.91	6818.4	
360.12	6042.2	
360.33	4383.3	
360.53	4868	
360.74	5380.7	
360.94	5392.3	
361.15	4606.6	
361.36	3872	
361.56	6204	
361.77	5550.7	
361.97	5128.1	
362.18	4050.9	
362.38	6239.5	
362.59	5221	
362.8	3713.6	
363	3644	
363.21	5038.7	
363.41	5783.5	
363.62	4249.5	
363.83	5399.1	
364.03	5793	
364.24	6834.1	
364.44	5456.5	
364.65	5376.6	
364.85	5551.4	
365.06	5244.8	
365.27	3908.2	
365.47	3996.3	
365.68	6586.3	
365.88	5593.7	
366.09	4367.6	
366.29	4078.9	
366.5	5852.4	
366.71	6290	
366.91	5453.7	
367.12	4614.8	
367.32	6896.9	
367.53	6109.8	
367.73	4479.6	
367.94	5526.1	
368.14	6021	
368.35	7000.6	
368.56	4467.3	
368.76	4227.7	
368.97	6113.9	
369.17	7952.9	
369.38	3978.5	
369.58	4276.8	
369.79	5185.5	
369.99	6543.3	
370.2	5297.4	
370.4	4344.4	
370.61	5864	
370.82	7101.7	
371.02	4259.8	
371.23	3566.2	
371.43	5152	
371.64	6499.6	
371.84	4293.2	
372.05	5557.5	
372.25	7919.5	
372.46	6292	
372.66	4280.3	
372.87	4262.5	
373.07	6315.9	
373.28	7931.8	
373.48	5344.5	
373.69	5082.4	
373.9	5702.9	
374.1	5788.2	
374.31	5287.2	
374.51	4850.3	
374.72	6625.9	
374.92	5468.8	
375.13	5425.1	
375.33	4598.4	
375.54	6236.7	
375.74	5601.2	
375.95	4683	
376.15	5969.8	
376.36	6140.5	
376.56	6057.2	
376.77	4795.7	
376.97	5283.1	
377.18	7322.2	
377.38	6312.5	
377.59	5606.7	
377.79	4274.1	
378	6072.2	
378.2	6593.1	
378.41	4402.5	
378.61	4278.2	
378.82	6576	
379.02	5713.2	
379.23	4539.7	
379.43	5638.7	
379.64	6679.8	
379.84	6365.8	
380.05	4336.9	
380.25	4272.7	
380.46	6408.1	
380.66	5946.6	
380.87	5682.4	
381.07	6144.6	
381.28	7040.9	
381.48	6400.6	
381.69	4379.9	
381.89	4442	
382.1	5257.8	
382.3	6546	
382.51	5488.6	
382.71	6439.5	
382.91	6386.2	
383.12	6954.9	
383.32	4725.3	
383.53	4897.4	
383.73	6201.2	
383.94	6034.7	
384.14	4818.2	
384.35	4007.9	
384.55	5922.7	
384.76	6383.5	
384.96	4675.5	
385.17	5016.2	
385.37	6342.6	
385.58	5641.5	
385.78	5062.6	
385.98	3820.1	
386.19	5815.5	
386.39	6209.4	
386.6	4433.9	
386.8	4796.3	
387.01	6289.3	
387.21	6393.1	
387.42	5228.5	
387.62	5790.3	
387.83	5694	
388.03	6422.4	
388.23	4816.1	
388.44	5741.1	
388.64	5389.6	
388.85	5553.4	
389.05	5265.3	
389.26	5860.6	
389.46	7473.7	
389.67	6862.7	
389.87	5186.8	
390.07	5218.2	
390.28	6038.8	
390.48	5651.7	
390.69	4358.8	
390.89	4700.1	
391.1	5802.6	
391.3	6744.6	
391.5	5907.7	
391.71	6610.2	
391.91	6549.4	
392.12	7623.9	
392.32	6080.4	
392.53	5268.7	
392.73	5813.5	
392.93	6048.3	
393.14	4840	
393.34	5623.7	
393.55	6445.6	
393.75	6001.9	
393.95	4831.8	
394.16	4806.6	
394.36	5791.7	
394.57	6438.8	
394.77	4250.9	
394.98	4701.5	
395.18	5810.1	
395.38	5889.3	
395.59	5716.6	
395.79	4643.4	
396	5924.1	
396.2	6463.4	
396.4	5454.4	
396.61	5391.6	
396.81	6663.4	
397.02	5919.3	
397.22	5770.5	
397.42	5745.9	
397.63	6635.4	
397.83	5924.1	
398.04	4511.7	
398.24	5063.9	
398.44	6330.3	
398.65	5451.7	
398.85	4452.3	
399.05	4536.9	
399.26	5842.2	
399.46	7658.7	
399.67	4904.2	
399.87	4659.8	
400.07	6186.2	
400.28	6645	
400.48	4792.2	
400.69	5935	
400.89	6756.2	
401.09	7288	
401.3	4648.2	
401.5	5842.2	
401.7	7482.6	
401.91	7824.6	
402.11	5001.1	
402.32	5190.9	
402.52	6831.3	
402.72	6661.4	
402.93	5439.4	
403.13	4159.4	
403.33	7514.7	
403.54	6146.6	
403.74	5055.1	
403.94	5965.7	
404.15	6229.9	
404.35	7534.5	
404.56	4898.7	
404.76	6832.7	
404.96	6763.1	
405.17	6504.3	
405.37	6014.2	
405.57	5379.3	
405.78	6923.5	
405.98	6224.5	
406.18	4861.2	
406.39	5851	
406.59	6795.8	
406.79	6337.1	
407	4642.7	
407.2	4759.5	
407.4	6845.7	
407.61	6995.9	
407.81	4878.3	
408.01	7237.5	
408.22	5828.5	
408.42	7859.4	
408.62	6077	
408.83	5529.5	
409.03	6520.7	
409.23	6363.7	
409.44	5601.9	
409.64	5896.8	
409.84	7528.3	
410.05	7410.2	
410.25	5707.7	
410.45	5538.4	
410.66	6891.4	
410.86	9583.1	
411.06	6010.1	
411.27	5811.5	
411.47	9346.2	
411.67	7074.4	
411.88	6137.8	
412.08	6465.4	
412.28	7748.1	
412.49	8295	
412.69	5869.5	
412.89	5943.9	
413.09	8131.8	
413.3	8003.5	
413.5	6018.3	
413.7	5593	
413.91	7234.8	
414.11	8064.9	
414.31	5913.2	
414.52	6247.7	
414.72	7757.7	
414.92	7676.5	
415.12	5803.3	
415.33	6396.5	
415.53	7981.6	
415.73	8289.5	
415.94	6772.6	
416.14	6228.6	
416.34	6997.2	
416.55	6790.4	
416.75	7460.1	
416.95	6832	
417.15	8081.3	
417.36	8794.7	
417.56	7662.8	
417.76	6641.6	
417.97	8511.4	
418.17	8107.9	
418.37	6155.5	
418.57	6229.2	
418.78	7856	
418.98	7574.8	
419.18	7144	
419.38	7087.3	
419.59	7592.5	
419.79	7086.7	
419.99	6124.1	
420.2	6510.5	
420.4	8141.4	
420.6	8258.8	
420.8	5957.5	
421.01	5851	
421.21	7904.5	
421.41	8055.3	
421.61	6510.5	
421.82	6090	
422.02	7387.7	
422.22	8371.4	
422.42	7038.2	
422.63	6525.5	
422.83	7533.1	
423.03	8789.9	
423.23	6627.2	
423.44	5531.6	
423.64	7584.3	
423.84	7287.4	
424.04	5988.9	
424.25	5602.6	
424.45	8532.5	
424.65	8442.4	
424.85	5400.5	
425.06	6020.3	
425.26	8408.3	
425.46	7022.5	
425.66	6486.6	
425.87	6189.6	
426.07	8240.3	
426.27	8063.5	
426.47	6357.6	
426.67	5618.3	
426.88	8548.2	
427.08	7909.9	
427.28	6615.6	
427.48	5659.2	
427.69	6817	
427.89	7487.4	
428.09	6475	
428.29	5631.9	
428.5	8251.9	
428.7	7688.8	
428.9	5608.7	
429.1	6139.1	
429.3	7664.2	
429.51	8095.6	
429.71	5855.8	
429.91	6754.2	
430.11	8030.1	
430.31	8231.5	
430.52	6219	
430.72	6520	
430.92	8548.9	
431.12	7948.8	
431.32	5826.5	
431.53	6357.6	
431.73	6862.7	
431.93	8714.1	
432.13	5763	
432.33	5706.3	
432.54	7384.3	
432.74	7721.5	
432.94	5580.7	
433.14	6711.9	
433.34	7944.1	
433.55	7443.7	
433.75	6653.9	
433.95	8527.7	
434.15	7718.8	
434.35	7439.6	
434.56	5797.8	
434.76	5319.9	
434.96	7742	
435.16	7925.6	
435.36	5621.7	
435.56	6922.1	
435.77	7298.3	
435.97	7415.7	
436.17	7623.2	
436.37	6835.4	
436.57	7320.8	
436.78	7322.2	
436.98	7969.3	
437.18	7332.4	
437.38	8036.9	
437.58	7507.2	
437.78	7478.5	
437.99	6047.7	
438.19	7937.2	
438.39	9484.8	
438.59	5962.3	
438.79	5489.2	
438.99	8726.4	
439.2	7503.1	
439.4	5624.4	
439.6	5606	
439.8	7884.7	
440	9058.2	
440.2	6865.5	
440.4	6998.6	
440.61	8385.1	
440.81	8918.2	
441.01	5896.8	
441.21	6851.1	
441.41	8806.9	
441.61	8330.5	
441.81	7101.7	
442.02	8265.6	
442.22	9273.9	
442.42	8384.4	
442.62	5965.7	
442.82	6028.5	
443.02	8654	
443.22	7772	
443.43	6515.3	
443.63	6032.6	
443.83	7585	
444.03	7776.8	
444.23	7370	
444.43	6834.8	
444.63	7973.4	
444.83	9318.3	
445.04	6108.4	
445.24	7436.2	
445.44	8227.4	
445.64	8430.1	
445.84	6897.6	
446.04	6940.6	
446.24	7674.4	
446.44	8655.4	
446.65	6009.4	
446.85	6526.2	
447.05	7877.2	
447.25	8591.9	
447.45	6571.9	
447.65	5928.2	
447.85	7971.4	
448.05	7575.4	
448.25	7025.9	
448.46	6795.8	
448.66	7919.5	
448.86	7601.4	
449.06	5715.9	
449.26	7010.9	
449.46	8408.3	
449.66	7331	
449.86	6421.7	
450.06	6420.4	
450.26	7574.8	
450.47	8172.8	
450.67	6688.7	
450.87	7109.9	
451.07	8196.7	
451.27	8078.6	
451.47	5976.7	
451.67	6606.1	
451.87	7670.3	
452.07	8861.6	
452.27	6251.8	
452.47	6298.2	
452.67	7946.8	
452.88	8449.2	
453.08	5547.3	
453.28	7703.1	
453.48	9293	
453.68	7902.4	
453.88	6131.6	
454.08	6439.5	
454.28	8334.6	
454.48	7984.3	
454.68	7033.4	
454.88	7548.8	
455.08	8424.7	
455.28	8228.1	
455.48	6037.4	
455.68	6675.7	
455.89	8996	
456.09	8632.2	
456.29	6357.6	
456.49	6446.3	
456.69	8862.9	
456.89	7998	
457.09	6997.2	
457.29	7468.3	
457.49	8441	
457.69	8628.1	
457.89	6882.5	
458.09	6212.9	
458.29	8193.9	
458.49	9062.3	
458.69	7284.6	
458.89	6728.9	
459.09	9228.1	
459.29	9319.6	
459.49	6688.7	
459.69	7556.3	
459.9	8693.6	
460.1	8215.1	
460.3	6604.7	
460.5	6376	
460.7	8659.5	
460.9	8438.3	
461.1	6044.9	
461.3	7488.7	
461.5	9456.8	
461.7	9002.9	
461.9	6578.1	
462.1	7040.2	
462.3	8342.1	
462.5	9071.1	
462.7	6638.8	
462.9	6707.1	
463.1	10244	
463.3	9824.8	
463.5	6984.9	
463.7	8072.4	
463.9	8673.1	
464.1	9045.9	
464.3	7158.3	
464.5	7385.7	
464.7	9394.7	
464.9	8963.3	
465.1	8819.2	
465.3	7729.7	
465.5	9691.7	
465.7	9637.1	
465.9	8012.3	
466.1	7826.7	
466.3	9522.4	
466.5	9300.5	
466.7	8750.3	
466.9	7511.9	
467.1	9251.4	
467.3	10234	
467.5	8712.1	
467.7	7486	
467.9	10515	
468.1	11460	
468.3	8317.5	
468.5	8752.3	
468.7	9223.4	
468.9	9157.2	
469.1	7808.2	
469.3	8492.2	
469.5	11228	
469.7	8770.1	
469.9	8297.7	
470.1	7526.3	
470.3	9146.2	
470.5	9141.4	
470.7	8854.7	
470.9	7610.3	
471.1	8914.8	
471.3	9420	
471.5	7358.4	
471.69	9475.3	
471.89	8803.5	
472.09	8365.3	
472.29	8256	
472.49	8593.3	
472.69	8548.9	
472.89	9480	
473.09	7144.7	
473.29	7381.6	
473.49	8633.6	
473.69	8916.9	
473.89	8429.4	
474.09	7496.9	
474.29	10156	
474.49	9823.4	
474.69	8454	
474.89	7600.7	
475.09	8884.8	
475.29	8799.4	
475.49	7057.3	
475.69	7314	
475.88	10526	
476.08	9147.6	
476.28	6860	
476.48	7445.7	
476.68	9589.3	
476.88	9450	
477.08	7258.7	
477.28	7662.8	
477.48	8858.8	
477.68	9593.4	
477.88	7071	
478.08	7401.4	
478.28	9839.1	
478.48	9043.8	
478.67	7484	
478.87	6852.5	
479.07	9740.8	
479.27	9030.9	
479.47	7632.8	
479.67	7693.5	
479.87	9489.6	
480.07	10133	
480.27	6823.1	
480.47	8632.9	
480.67	9190.6	
480.87	9828.9	
481.06	7195.2	
481.26	8099	
481.46	9032.9	
481.66	8966.7	
481.86	7645.1	
482.06	8733.9	
482.26	8708	
482.46	9957.2	
482.66	7602.7	
482.86	7206.8	
483.05	9093.7	
483.25	8510	
483.45	10177	
483.65	7640.3	
483.85	8807.6	
484.05	9114.8	
484.25	8134.5	
484.45	8581.7	
484.65	10011	
484.84	9942.2	
485.04	7557.7	
485.24	7559.1	
485.44	10187	
485.64	8572.1	
485.84	6840.2	
486.04	8310.7	
486.24	8846.5	
486.44	9376.3	
486.63	6775.4	
486.83	7702.4	
487.03	8762.6	
487.23	9076.6	
487.43	6923.5	
487.63	9367.4	
487.83	9129.2	
488.02	10221	
488.22	7990.5	
488.42	8709.3	
488.62	9989.3	
488.82	8845.2	
489.02	7662.1	
489.22	7646.4	
489.41	9880.8	
489.61	9377.6	
489.81	7242.3	
490.01	7325.6	
490.21	9755.2	
490.41	10411	
490.61	7038.2	
490.8	7357.7	
491	9151	
491.2	8458.8	
491.4	8005.5	
491.6	7116.7	
491.8	9126.4	
491.99	9312.8	
492.19	6946.7	
492.39	7405.5	
492.59	9879.4	
492.79	9876	
492.99	8368.7	
493.18	7378.1	
493.38	9968.1	
493.58	10793	
493.78	8137.3	
493.98	7763.2	
494.18	9708.1	
494.37	8998.1	
494.57	8505.2	
494.77	8307.2	
494.97	9888.3	
495.17	10188	
495.37	7852.6	
495.56	8225.3	
495.76	10503	
495.96	9905.3	
496.16	9181.7	
496.36	8009.6	
496.55	10183	
496.75	9701.2	
496.95	8354.3	
497.15	8202.1	
497.35	10068	
497.54	10079	
497.74	7946.8	
497.94	9949.7	
498.14	10779	
498.34	10719	
498.53	7772	
498.73	8632.9	
498.93	9505.3	
499.13	10167	
499.33	8346.8	
499.52	8910	
499.72	10096	
499.92	10374	
500.12	8031.5	
500.32	8318.8	
500.51	10417	
500.71	10146	
500.91	9168.1	
501.11	8656.1	
501.31	10312	
501.5	10695	
501.7	9400.2	
501.9	8271.1	
502.1	10061	
502.29	10365	
502.49	8790.6	
502.69	9346.2	
502.89	10170	
503.09	10063	
503.28	7652.6	
503.48	7789.1	
503.68	9334.6	
503.88	9391.3	
504.07	8825.4	
504.27	8198.7	
504.47	9783.8	
504.67	9909.4	
504.86	8705.2	
505.06	8355.7	
505.26	9436.4	
505.46	11198	
505.65	8187.1	
505.85	8395.3	
506.05	9250.7	
506.25	9813.2	
506.44	7494.2	
506.64	8580.3	
506.84	9182.4	
507.04	10279	
507.23	7665.5	
507.43	8353.7	
507.63	11346	
507.83	9429.5	
508.02	8237.6	
508.22	7831.4	
508.42	11542	
508.62	9151	
508.81	8114.7	
509.01	8673.1	
509.21	8995.4	
509.4	9314.2	
509.6	8349.6	
509.8	7664.9	
510	9325.1	
510.19	10992	
510.39	7713.3	
510.59	7793.2	
510.79	9015.8	
510.98	10551	
511.18	7770.7	
511.38	7936.6	
511.57	9886.9	
511.77	9775.6	
511.97	8623.3	
512.17	7502.4	
512.36	9931.3	
512.56	9946.3	
512.76	7557	
512.95	7363.8	
513.15	10139	
513.35	8667	
513.55	8570.1	
513.74	7669	
513.94	9975.7	
514.14	9372.9	
514.33	8632.2	
514.53	8389.2	
514.73	9298.5	
514.92	9557.9	
515.12	7893.6	
515.32	7640.3	
515.51	9614.5	
515.71	10234	
515.91	9576.3	
516.11	7660.8	
516.3	11415	
516.5	9174.2	
516.7	8378.2	
516.89	8955.1	
517.09	9254.1	
517.29	9174.2	
517.48	8547.5	
517.68	7993.2	
517.88	9006.3	
518.07	9586.5	
518.27	8510.7	
518.47	7449.1	
518.66	10328	
518.86	8755.7	
519.06	7353.6	
519.25	7830.7	
519.45	9189.2	
519.65	10907	
519.84	8453.3	
520.04	9238.4	
520.24	11061	
520.43	9792.7	
520.63	8026.7	
520.83	7696.3	
521.02	8957.8	
521.22	9600.2	
521.42	8424	
521.61	9019.3	
521.81	9269.8	
522.01	9450	
522.2	8259.5	
522.4	8099.7	
522.6	10064	
522.79	8778.3	
522.99	8252.6	
523.18	7485.3	
523.38	9787.2	
523.58	9807.7	
523.77	9509.4	
523.97	7499	
524.17	11773	
524.36	10841	
524.56	8941.4	
524.76	8524.3	
524.95	9731.3	
525.15	9380.4	
525.34	8318.8	
525.54	8303.8	
525.74	10241	
525.93	9031.5	
526.13	9517.6	
526.33	8161.8	
526.52	10442	
526.72	9986.6	
526.91	9648	
527.11	8830.8	
527.31	10555	
527.5	10949	
527.7	8721.6	
527.89	7702.4	
528.09	9407	
528.29	10031	
528.48	9196.7	
528.68	8822.6	
528.87	10442	
529.07	10421	
529.27	8552.3	
529.46	7968	
529.66	9853.5	
529.85	10299	
530.05	7806.2	
530.25	8616.5	
530.44	11389	
530.64	9785.2	
530.83	8252.6	
531.03	8630.1	
531.23	10376	
531.42	10206	
531.62	9514.9	
531.81	8591.9	
532.01	10573	
532.21	11182	
532.4	8310	
532.6	8710	
532.79	11639	
532.99	10650	
533.18	8727.8	
533.38	9783.1	
533.58	10092	
533.77	11003	
533.97	8617.2	
534.16	9534	
534.36	11105	
534.55	10189	
534.75	9685.5	
534.95	8757.8	
535.14	10920	
535.34	10051	
535.53	8365.3	
535.73	10516	
535.92	11494	
536.12	10245	
536.31	8419.2	
536.51	9719	
536.71	10585	
536.9	10132	
537.1	8629.5	
537.29	8884.1	
537.49	11018	
537.68	10036	
537.88	9203.6	
538.07	8333.2	
538.27	10271	
538.46	11384	
538.66	8316.1	
538.86	8737.3	
539.05	10271	
539.25	10878	
539.44	9001.5	
539.64	8566.7	
539.83	10181	
540.03	11181	
540.22	8442.4	
540.42	8501.1	
540.61	10376	
540.81	10578	
541	9067	
541.2	9794.8	
541.39	9828.9	
541.59	10350	
541.78	9314.8	
541.98	8419.2	
542.18	9496.4	
542.37	9450	
542.57	8790.6	
542.76	9303.2	
542.96	9528.5	
543.15	10263	
543.35	8783.7	
543.54	7990.5	
543.74	10596	
543.93	10064	
544.13	8708	
544.32	9884.9	
544.52	10362	
544.71	9611.8	
544.91	7801.4	
545.1	9183.8	
545.3	9607.7	
545.49	10358	
545.69	7718.1	
545.88	8293.6	
546.08	11332	
546.27	10911	
546.47	8904.6	
546.66	8018.5	
546.86	10632	
547.05	11271	
547.24	8407.6	
547.44	8144.8	
547.63	9478	
547.83	10698	
548.02	8615.1	
548.22	8801.5	
548.41	9172.2	
548.61	10690	
548.8	8050.6	
549	8058.8	
549.19	9890.3	
549.39	10240	
549.58	7826.7	
549.78	8340	
549.97	10348	
550.17	9785.2	
550.36	9293.7	
550.55	10385	
550.75	9676	
550.94	10765	
551.14	7958.4	
551.33	8422.6	
551.53	9111.4	
551.72	10099	
551.92	8452	
552.11	8236.9	
552.31	10187	
552.5	10040	
552.69	9999.5	
552.89	7822.6	
553.08	10054	
553.28	9822.7	
553.47	8218.5	
553.67	9411.1	
553.86	10843	
554.06	9025.4	
554.25	7320.8	
554.44	7976.2	
554.64	11562	
554.83	11119	
555.03	7830.7	
555.22	8271.7	
555.42	10318	
555.61	9963.4	
555.8	8128.4	
556	8450.6	
556.19	9089.6	
556.39	10441	
556.58	8198	
556.78	8140.7	
556.97	9893.7	
557.16	9569.5	
557.36	9483.5	
557.55	7789.1	
557.75	8800.1	
557.94	10643	
558.13	7885.4	
558.33	7657.4	
558.52	10403	
558.72	9236.3	
558.91	7741.3	
559.1	7889.5	
559.3	8900.5	
559.49	8637	
559.69	7253.2	
559.88	8325.7	
560.07	9871.2	
560.27	10258	
560.46	8568.7	
560.66	8703.2	
560.85	9528.5	
561.04	8749.6	
561.24	7702.4	
561.43	7838.3	
561.63	9020.6	
561.82	9286.2	
562.01	9247.3	
562.21	8157.1	
562.4	9760.6	
562.59	10871	
562.79	8126.3	
562.98	7684	
563.18	9707.4	
563.37	11243	
563.56	8580.3	
563.76	7559.1	
563.95	9139.4	
564.14	8985.8	
564.34	8019.8	
564.53	7824.6	
564.73	9659.6	
564.92	10108	
565.11	8174.1	
565.31	7560.4	
565.5	10277	
565.69	9161.9	
565.89	7817.8	
566.08	8086.7	
566.27	10187	
566.47	10541	
566.66	8717.5	
566.85	7258.7	
567.05	9719.7	
567.24	8978.3	
567.44	7638.2	
567.63	9155.1	
567.82	9899.2	
568.02	9648.7	
568.21	7647.8	
568.4	8155	
568.6	9484.1	
568.79	9568.8	
568.98	7419.8	
569.18	7660.8	
569.37	9466.4	
569.56	11587	
569.76	7973.4	
569.95	9005.6	
570.14	9823.4	
570.34	9739.5	
570.53	7448.5	
570.72	7353.6	
570.91	10284	
571.11	9318.9	
571.3	7970.7	
571.49	8885.5	
571.69	9377	
571.88	8908.7	
572.07	8472.4	
572.27	8503.8	
572.46	9032.9	
572.65	10119	
572.85	7664.9	
573.04	8101.1	
573.23	10315	
573.43	9615.9	
573.62	7447.8	
573.81	8192.6	
574	9526.5	
574.2	9379	
574.39	7844.4	
574.58	8039.6	
574.78	10458	
574.97	9630.2	
575.16	8353.7	
575.36	8537.3	
575.55	10013	
575.74	10288	
575.93	7410.9	
576.13	8411.7	
576.32	9377.6	
576.51	9987.9	
576.71	7819.1	
576.9	9385.8	
577.09	10351	
577.28	9803.6	
577.48	8406.9	
577.67	7236.2	
577.86	9357.2	
578.05	9743.6	
578.25	8096.3	
578.44	8140	
578.63	9576.3	
578.83	10907	
579.02	7368.6	
579.21	9057.5	
579.4	9817.3	
579.6	9346.2	
579.79	8180.3	
579.98	10557	
580.17	10133	
580.37	10217	
580.56	7608.2	
580.75	8505.2	
580.94	10821	
581.14	10617	
581.33	8929.8	
581.52	7835.5	
581.71	10075	
581.91	10776	
582.1	7533.8	
582.29	8210.3	
582.48	9658.2	
582.68	9536.7	
582.87	8667.7	
583.06	8178.9	
583.25	10028	
583.45	9848.7	
583.64	8958.5	
583.83	9664.4	
584.02	9439.1	
584.21	9960	
584.41	8851.3	
584.6	8216.5	
584.79	9753.1	
584.98	10441	
585.18	7632.1	
585.37	7561.1	
585.56	9102.5	
585.75	9944.3	
585.94	7808.2	
586.14	8564.6	
586.33	10615	
586.52	9614.5	
586.71	8275.2	
586.91	8011.7	
587.1	8943.5	
587.29	9944.3	
587.48	7974.8	
587.67	7788.4	
587.87	9714.2	
588.06	9879.4	
588.25	9129.2	
588.44	8387.1	
588.63	9377	
588.83	9868.5	
589.02	7656.7	
589.21	7407.5	
589.4	8882	
589.59	8762.6	
589.78	6627.9	
589.98	6819.7	
590.17	8324.3	
590.36	8981.7	
590.55	6202.6	
590.74	7195.9	
590.94	10430	
591.13	8888.2	
591.32	7009.5	
591.51	6534.4	
591.7	9411.8	
591.89	8897.7	
592.09	6705	
592.28	7150.1	
592.47	8064.2	
592.66	9998.2	
592.85	6630	
593.05	6838.2	
593.24	8685.4	
593.43	9579.7	
593.62	6935.8	
593.81	7550.2	
594	8756.4	
594.19	9078	
594.39	6920.8	
594.58	6856.6	
594.77	9011.1	
594.96	9693	
595.15	6743.3	
595.34	7486.7	
595.54	9110.7	
595.73	8141.4	
595.92	6083.8	
596.11	7339.2	
596.3	9690.3	
596.49	8288.1	
596.68	7144.7	
596.88	7645.8	
597.07	9413.8	
597.26	8217.8	
597.45	6638.1	
597.64	7961.1	
597.83	8357.1	
598.02	9078.6	
598.22	6835.4	
598.41	7492.8	
598.6	8892.3	
598.79	8286.1	
598.98	6870.9	
599.17	7811.6	
599.36	8956.4	
599.55	10178	
599.74	8985.1	
599.94	8740.7	
600.13	9530.6	
600.32	8363.9	
600.51	6671.6	
600.7	6853.2	
600.89	10236	
601.08	10322	
601.27	6619.7	
601.47	7641.7	
601.66	9523.7	
601.85	10089	
602.04	7331.7	
602.23	7589.8	
602.42	8506.6	
602.61	9172.9	
602.8	7245	
602.99	7051.8	
603.18	8940.7	
603.37	9197.4	
603.57	7698.3	
603.76	8227.4	
603.95	10077	
604.14	9548.3	
604.33	7111.9	
604.52	7420.5	
604.71	9136.7	
604.9	8715.5	
605.09	8118.1	
605.28	7897.7	
605.47	9734	
605.66	9391.3	
605.86	7580.9	
606.05	7103	
606.24	9633.6	
606.43	8286.8	
606.62	7418.4	
606.81	8336.6	
607	9553.1	
607.19	8806.3	
607.38	6907.8	
607.57	7190.4	
607.76	8555	
607.95	8077.9	
608.14	7507.2	
608.33	8129.1	
608.52	8574.8	
608.72	9556.5	
608.91	6736.5	
609.1	6627.9	
609.29	8755.1	
609.48	8200.7	
609.67	7701.7	
609.86	6703.7	
610.05	8359.1	
610.24	8634.2	
610.43	6514.6	
610.62	6260	
610.81	9890.3	
611	9665	
611.19	6737.8	
611.38	7492.2	
611.57	8991.3	
611.76	10367	
611.95	6448.4	
612.14	6376	
612.33	8753.7	
612.52	8230.1	
612.71	6995.2	
612.9	6202.6	
613.09	7881.3	
613.28	10333	
613.47	6702.3	
613.66	7795.3	
613.85	8826.7	
614.04	8346.2	
614.24	6862.7	
614.43	5966.4	
614.62	8990.6	
614.81	8937.3	
615	7488.7	
615.19	7535.2	
615.38	8294.3	
615.57	8582.4	
615.76	7264.8	
615.95	8269	
616.14	9035.6	
616.33	8712.7	
616.52	7709.9	
616.71	7877.9	
616.9	9053.4	
617.09	8807.6	
617.28	6933.7	
617.47	8544.8	
617.66	8043.7	
617.85	8103.8	
618.04	8012.3	
618.22	7262.1	
618.41	8428.1	
618.6	9306	
618.79	7268.2	
618.98	6852.5	
619.17	9631.6	
619.36	8006.2	
619.55	7017	
619.74	7171.3	
619.93	8856.1	
620.12	8351.6	
620.31	7688.8	
620.5	7852.6	
620.69	9471.9	
620.88	9936.1	
621.07	8520.2	
621.26	7539.9	
621.45	9072.5	
621.64	9098.4	
621.83	7752.2	
622.02	6722.1	
622.21	9157.8	
622.4	8843.1	
622.59	8241.7	
622.78	7963.9	
622.97	8401.5	
623.16	9454.8	
623.35	7595.9	
623.54	6731.7	
623.72	8624	
623.91	8850.6	
624.1	7858.1	
624.29	6461.3	
624.48	9897.2	
624.67	9174.2	
624.86	7666.9	
625.05	6678.4	
625.24	10046	
625.43	8216.5	
625.62	9575.6	
625.81	6932.4	
626	9422.7	
626.19	8628.1	
626.38	7718.8	
626.56	7049.8	
626.75	8416.5	
626.94	8962.6	
627.13	7647.8	
627.32	6253.1	
627.51	8991.9	
627.7	10376	
627.89	6351.4	
628.08	7658	
628.27	8219.9	
628.46	8551.6	
628.65	6812.2	
628.83	6428.6	
629.02	9108	
629.21	8307.2	
629.4	7269.6	
629.59	7504.4	
629.78	8173.4	
629.97	9312.1	
630.16	7507.2	
630.35	7025.2	
630.54	9715.6	
630.72	9357.9	
630.91	6913.3	
631.1	7518.8	
631.29	8832.9	
631.48	9153.1	
631.67	7660.8	
631.86	7060.7	
632.05	8413.1	
632.24	8518.9	
632.42	6709.1	
632.61	7396.6	
632.8	8661.5	
632.99	8331.8	
633.18	7421.8	
633.37	7832.1	
633.56	8927.1	
633.75	8634.2	
633.93	7317.4	
634.12	7047.7	
634.31	9799.5	
634.5	9394	
634.69	7088	
634.88	7640.3	
635.07	8581	
635.25	9250.7	
635.44	8102.4	
635.63	8254.7	
635.82	8460.2	
636.01	7918.8	
636.2	8000	
636.39	7468.3	
636.57	9701.2	
636.76	9400.2	
636.95	6874.3	
637.14	8396	
637.33	8912.8	
637.52	9947.7	
637.7	6645	
637.89	7670.3	
638.08	8553	
638.27	10120	
638.46	7763.8	
638.65	8245.1	
638.83	10092	
639.02	8319.5	
639.21	7585.7	
639.4	8054.7	
639.59	8874.5	
639.78	8382.3	
639.96	6796.5	
640.15	6912.6	
640.34	8688.8	
640.53	8879.3	
640.72	6647.7	
640.91	6987.7	
641.09	8089.5	
641.28	9639.1	
641.47	6911.2	
641.66	7774.8	
641.85	8797.4	
642.03	9126.4	
642.22	7523.6	
642.41	6982.2	
642.6	8190.5	
642.79	7537.9	
642.97	6778.1	
643.16	7626	
643.35	8116.1	
643.54	7980.3	
643.73	6565.1	
643.91	7493.5	
644.1	7731.8	
644.29	8475.9	
644.48	6688	
644.67	6662.7	
644.85	7940.7	
645.04	8174.8	
645.23	6171.2	
645.42	6408.8	
645.6	7748.8	
645.79	8916.2	
645.98	6444.3	
646.17	5452.4	
646.36	7382.2	
646.54	8010.3	
646.73	7308.5	
646.92	5969.8	
647.11	7658.7	
647.29	8798.8	
647.48	6108.4	
647.67	5823.7	
647.86	9009.7	
648.05	9050.7	
648.23	6565.8	
648.42	7955.7	
648.61	8370	
648.8	8058.1	
648.98	6178.7	
649.17	6526.9	
649.36	7793.9	
649.55	7148.8	
649.73	6277	
649.92	7039.6	
650.11	7550.2	
650.3	7937.9	
650.48	6305.7	
650.67	6091.3	
650.86	8224.6	
651.05	7008.8	
651.23	6281.1	
651.42	6285.9	
651.61	7562.5	
651.79	7829.4	
651.98	6464.1	
652.17	6098.9	
652.36	8174.1	
652.54	7200	
652.73	6148	
652.92	5911.8	
653.11	8230.1	
653.29	8161.8	
653.48	5317.2	
653.67	6373.3	
653.85	7905.2	
654.04	8942.8	
654.23	6648.4	
654.42	6099.5	
654.6	7328.3	
654.79	7992.5	
654.98	5564.3	
655.16	6112.5	
655.35	6959	
655.54	6917.4	
655.73	5709.7	
655.91	5653.1	
656.1	8230.8	
656.29	6939.9	
656.47	5195.7	
656.66	7086.7	
656.85	7284.6	
657.03	7284.6	
657.22	5788.9	
657.41	5855.1	
657.59	7388.4	
657.78	7218.4	
657.97	5477.6	
658.16	6311.2	
658.34	8013.7	
658.53	8529.1	
658.72	7218.4	
658.9	7791.2	
659.09	7422.5	
659.28	7630	
659.46	5940.5	
659.65	6000.5	
659.84	7230.7	
660.02	7811.6	
660.21	5782.8	
660.4	5702.2	
660.58	8319.5	
660.77	7669.6	
660.96	6501.6	
661.14	5387.5	
661.33	8768	
661.52	8675.9	
661.7	5321.3	
661.89	9358.5	
662.08	7139.2	
662.26	6762.4	
662.45	5647.6	
662.64	5756.2	
662.82	7856.7	
663.01	7091.4	
663.2	5788.9	
663.38	6643.6	
663.57	7838.9	
663.75	7619.1	
663.94	6208.1	
664.13	7471	
664.31	7138.5	
664.5	7959.8	
664.69	6366.5	
664.87	7063.4	
665.06	6933.7	
665.25	7678.5	
665.43	7185.6	
665.62	7319.4	
665.8	8092.9	
665.99	7287.4	
666.18	6113.2	
666.36	6217.6	
666.55	8056.7	
666.74	7905.8	
666.92	5706.3	
667.11	7537.9	
667.29	7319.4	
667.48	7930.4	
667.67	7107.8	
667.85	6123.4	
668.04	7309.2	
668.22	7298.3	
668.41	6272.9	
668.6	6397.9	
668.78	7150.1	
668.97	7293.5	
669.15	6616.3	
669.34	5457.8	
669.53	7126.2	
669.71	7580.2	
669.9	5602.6	
670.08	6335.7	
670.27	7084.6	
670.46	7720.2	
670.64	6601.3	
670.83	6838.2	
671.01	6919.4	
671.2	7665.5	
671.38	5707	
671.57	5686.5	
671.76	8295	
671.94	8934.6	
672.13	5618.3	
672.31	6803.4	
672.5	7856	
672.69	7090.1	
672.87	5763	
673.06	6100.2	
673.24	7709.9	
673.43	7186.3	
673.61	6473.6	
673.8	6048.3	
673.98	7916.8	
674.17	8112.7	
674.36	6599.2	
674.54	6535.8	
674.73	7606.8	
674.91	7924.3	
675.1	6242.2	
675.28	5835.3	
675.47	7416.4	
675.65	8039	
675.84	6130.3	
676.03	6461.3	
676.21	7132.4	
676.4	6628.6	
676.58	6935.1	
676.77	6578.1	
676.95	8748.9	
677.14	7052.5	
677.32	5709.7	
677.51	5449	
677.69	7927.7	
677.88	6676.4	
678.06	5556.8	
678.25	5685.8	
678.44	7357	
678.62	7193.8	
678.81	5369.1	
678.99	6337.1	
679.18	8216.5	
679.36	7780.9	
679.55	6010.1	
679.73	6789	
679.92	7757	
680.1	7141.3	
680.29	7319.4	
680.47	6032	
680.66	7071.6	
680.84	8019.2	
681.03	5261.9	
681.21	6331.6	
681.4	7122.8	
681.58	6961.7	
681.77	5719.3	
681.95	5651	
682.14	7967.3	
682.32	8403.5	
682.51	6693.4	
682.69	5429.2	
682.88	7017.7	
683.06	7637.6	
683.25	6390.3	
683.43	6892.1	
683.62	7301.7	
683.8	7705.1	
683.99	6954.9	
684.17	6148	
684.36	8549.6	
684.54	7131	
684.73	5169.8	
684.91	5405.3	
685.1	7348.1	
685.28	6759.7	
685.46	5984.8	
685.65	6127.5	
685.83	7655.3	
686.02	7017.7	
686.2	5554.1	
686.39	5746.6	
686.57	6905.8	
686.76	8393.9	
686.94	5597.8	
687.13	5750.7	
687.31	7569.3	
687.5	7090.8	
687.68	5195.7	
687.86	6488.6	
688.05	8748.9	
688.23	6488.6	
688.42	6606.1	
688.6	5625.8	
688.79	7011.6	
688.97	6937.8	
689.16	6094.1	
689.34	4911.7	
689.52	7714.7	
689.71	7843.7	
689.89	6314.6	
690.08	5544.5	
690.26	7149.5	
690.45	7046.4	
690.63	6455.2	
690.81	5674.9	
691	6805.4	
691.18	6753.5	
691.37	5773.9	
691.55	8205.5	
691.74	6784.2	
691.92	8951.7	
692.1	5821.7	
692.29	5300.1	
692.47	7004.7	
692.66	6235.4	
692.84	5439.4	
693.02	6053.8	
693.21	6463.4	
693.39	7040.2	
693.58	6227.2	
693.76	5584.1	
693.94	8273.1	
694.13	8111.3	
694.31	5615.5	
694.5	6735.1	
694.68	6880.5	
694.86	7149.5	
695.05	6034	
695.23	6094.1	
695.42	7630	
695.6	10045	
695.78	6588.3	
695.97	5681.1	
696.15	7563.8	
696.34	6967.2	
696.52	5325.4	
696.7	6230.6	
696.89	7301	
697.07	6726.2	
697.25	6176.7	
697.44	7804.1	
697.62	7208.2	
697.81	7675.1	
697.99	5810.8	
698.17	6347.3	
698.36	6524.1	
698.54	7296.2	
698.72	6173.3	
698.91	5124.7	
699.09	6833.4	
699.28	6722.8	
699.46	5848.3	
699.64	5630.5	
699.83	6561.7	
700.01	8011.7	
700.19	6522.1	
700.38	4922.6	
700.56	7989.1	
700.74	6840.9	
700.93	5385.5	
701.11	6228.6	
701.29	7451.9	
701.48	8512.7	
701.66	5576.6	
701.84	5651.7	
702.03	6915.3	
702.21	7602.7	
702.39	5109	
702.58	5752.7	
702.76	7269.6	
702.94	7464.8	
703.13	5177.9	
703.31	7643	
703.49	6570.6	
703.68	7826	
703.86	5391.6	
704.04	6411.5	
704.23	7174	
704.41	7534.5	
704.59	5547.9	
704.78	6855.9	
704.96	8332.5	
705.14	7628.7	
705.33	5296.7	
705.51	6223.8	
705.69	6938.5	
705.87	7919.5	
706.06	6458.6	
706.24	5275.6	
706.42	7299	
706.61	7692.2	
706.79	6578.1	
706.97	5307	
707.16	6805.4	
707.34	7386.3	
707.52	6459.3	
707.7	5517.9	
707.89	6907.1	
708.07	6638.8	
708.25	6473.6	
708.44	6644.3	
708.62	6823.8	
708.8	8075.8	
708.98	6741.9	
709.17	5654.4	
709.35	7367.9	
709.53	7359.7	
709.72	5324.7	
709.9	5514.5	
710.08	7490.8	
710.26	7639.6	
710.45	7065.5	
710.63	5662	
710.81	7242.3	
710.99	7278.5	
711.18	6277	
711.36	5877	
711.54	7019.1	
711.72	7759.8	
711.91	5859.9	
712.09	5214.1	
712.27	7213.6	
712.45	7764.5	
712.64	6219	
712.82	4991.6	
713	6602	
713.18	6761.7	
713.37	5197.1	
713.55	6456.6	
713.73	7570	
713.91	6014.2	
714.1	5450.3	
714.28	4789.5	
714.46	7172	
714.64	6363	
714.83	4309.6	
715.01	5221	
715.19	6375.3	
715.37	5808.7	
715.55	4948.6	
715.74	5335	
715.92	7432.1	
716.1	5347.2	
716.28	6432	
716.47	5465.3	
716.65	6027.9	
716.83	6186.2	
717.01	5283.8	
717.19	5367	
717.38	8429.4	
717.56	5832.6	
717.74	5648.3	
717.92	4696	
718.1	7284.6	
718.29	6371.2	
718.47	4280.3	
718.65	5054.4	
718.83	7175.4	
719.01	7002	
719.2	4173.1	
719.38	5371.8	
719.56	6689.3	
719.74	8379.6	
719.92	4855.1	
720.11	6020.3	
720.29	6706.4	
720.47	5840.1	
720.65	4318.5	
720.83	5368.4	
721.02	6135	
721.2	5868.8	
721.38	5376.6	
721.56	4577.2	
721.74	5378.6	
721.92	5644.9	
722.11	5922.7	
722.29	5616.2	
722.47	6943.3	
722.65	6056.5	
722.83	4641.4	
723.01	5660.6	
723.2	6130.9	
723.38	6391	
723.56	4048.8	
723.74	5219.6	
723.92	5713.2	
724.1	6902.3	
724.29	4577.2	
724.47	5800.5	
724.65	5650.3	
724.83	5618.9	
725.01	4448.2	
725.19	5431.9	
725.37	5750.7	
725.56	5782.1	
725.74	4345.8	
725.92	4606.6	
726.1	5563	
726.28	5963.7	
726.46	5088.5	
726.64	4709	
726.83	5905	
727.01	6290	
727.19	4308.9	
727.37	5241.4	
727.55	6057.2	
727.73	6604	
727.91	4241.3	
728.09	4096.6	
728.28	6683.2	
728.46	7417.1	
728.64	5382.7	
728.82	5348.6	
729	7933.1	
729.18	7102.4	
729.36	4530.1	
729.54	7075.7	
729.72	8157.1	
729.91	6315.3	
730.09	6504.3	
730.27	5198.4	
730.45	6229.9	
730.63	6906.4	
730.81	5867.4	
730.99	4846.2	
731.17	7555.6	
731.35	6021	
731.53	5492	
731.71	5040.1	
731.9	7241.6	
732.08	7376.1	
732.26	5338.4	
732.44	4914.4	
732.62	7452.6	
732.8	6819.7	
732.98	5738.4	
733.16	4679.6	
733.34	6926.2	
733.52	5606	
733.7	5348.6	
733.88	5591.6	
734.07	6719.4	
734.25	6427.2	
734.43	4690.5	
734.61	6363.7	
734.79	8119.5	
734.97	6363.7	
735.15	4916.5	
735.33	5380.7	
735.51	6754.2	
735.69	6322.1	
735.87	6566.5	
736.05	5504.3	
736.23	6657.9	
736.41	6348	
736.59	5347.9	
736.77	5429.2	
736.95	7120.1	
737.13	6480.5	
737.32	4967	
737.5	5214.1	
737.68	7677.8	
737.86	6425.8	
738.04	4756.1	
738.22	6855.2	
738.4	6197.8	
738.58	6574	
738.76	5508.4	
738.94	4353.3	
739.12	6351.4	
739.3	6233.3	
739.48	6142.5	
739.66	5879.7	
739.84	6666.1	
740.02	6680.5	
740.2	4484.4	
740.38	4865.3	
740.56	7152.2	
740.74	5846.3	
740.92	5614.8	
741.1	5567.1	
741.28	6498.2	
741.46	6285.2	
741.64	5046.9	
741.82	5672.9	
742	6494.1	
742.18	6524.1	
742.36	5403.2	
742.54	4863.2	
742.72	7097.6	
742.9	5734.3	
743.08	5771.2	
743.26	4457.1	
743.44	7416.4	
743.62	7228	
743.8	5952.1	
743.98	4902.2	
744.16	6891.4	
744.34	6574.7	
744.52	5842.2	
744.7	5766.4	
744.88	7047.7	
745.06	6532.3	
745.24	5887.9	
745.42	5968.5	
745.6	7074.4	
745.78	6876.4	
745.96	4618.2	
746.14	4959.5	
746.32	7861.5	
746.5	7170.6	
746.68	5575.3	
746.86	5075.5	
747.03	7587	
747.21	5776	
747.39	5599.8	
747.57	4973.2	
747.75	6698.2	
747.93	7137.2	
748.11	5031.2	
748.29	4914.4	
748.47	8403.5	
748.65	6385.6	
748.83	5735	
749.01	5436	
749.19	6968.6	
749.37	6048.3	
749.55	5367	
749.73	5453.7	
749.91	6505.7	
750.09	6198.5	
750.26	5440.8	
750.44	4859.8	
750.62	6642.9	
750.8	6546	
750.98	4685.1	
751.16	5008	
751.34	6638.1	
751.52	5967.8	
751.7	5976	
751.88	4682.3	
752.06	7122.2	
752.24	7025.9	
752.42	4592.9	
752.59	5016.8	
752.77	6518	
752.95	7884.7	
753.13	5892	
753.31	5128.8	
753.49	6198.5	
753.67	6711.2	
753.85	5424.4	
754.03	4990.2	
754.21	7021.8	
754.38	7355.6	
754.56	5193	
754.74	4132.8	
754.92	6174.6	
755.1	6943.3	
755.28	4212.7	
755.46	4217.5	
755.64	7585	
755.82	7706.5	
755.99	4386.7	
756.17	4534.9	
756.35	4999.8	
756.53	6716.7	
756.71	3317.7	
756.89	4291.2	
757.07	6341.2	
757.25	5304.2	
757.42	4879.6	
757.6	5834.7	
757.78	6389	
757.96	5275.6	
758.14	4612.7	
758.32	4087.1	
758.5	4806.6	
758.67	5812.8	
758.85	4410.6	
759.03	4513	
759.21	5976	
759.39	5344.5	
759.57	3933.5	
759.75	5283.1	
759.92	6576.7	
760.1	5767.1	
760.28	5582.1	
760.46	5872.9	
760.64	5520.6	
760.82	5315.8	
760.99	5436.7	
761.17	4548.5	
761.35	6399.9	
761.53	5433.3	
761.71	4641.4	
761.89	5489.9	
762.06	6414.9	
762.24	5879.7	
762.42	4697.4	
762.6	4607.9	
762.78	5865.4	
762.96	6532.3	
763.13	5240.8	
763.31	4838	
763.49	6796.5	
763.67	5877	
763.85	5831.9	
764.02	6446.3	
764.2	7165.2	
764.38	6189.6	
764.56	4807.9	
764.74	5781.4	
764.91	7148.8	
765.09	5989.6	
765.27	4476.2	
765.45	4237.9	
765.63	7182.2	
765.8	7078.5	
765.98	3939.6	
766.16	4315.1	
766.34	5488.6	
766.52	5307.7	
766.69	5418.9	
766.87	4141.7	
767.05	5953.4	
767.23	6818.4	
767.41	4487.1	
767.58	4780	
767.76	6596.5	
767.94	6701.6	
768.12	4564.9	
768.29	5367	
768.47	6082.5	
768.65	6845	
768.83	4240	
769	5453.1	
769.18	5496.7	
769.36	6404	
769.54	5389.6	
769.72	4209.3	
769.89	6622.4	
770.07	6795.8	
770.25	4567	
770.43	6013.5	
770.6	7503.8	
770.78	7897.7	
770.96	4775.9	
771.14	5477	
771.31	6565.1	
771.49	5917.9	
771.67	3874.1	
771.85	4085	
772.02	5079.6	
772.2	5919.3	
772.38	4976.6	
772.55	4408.6	
772.73	6118.6	
772.91	5893.4	
773.09	4764.9	
773.26	4836.6	
773.44	6035.4	
773.62	5782.8	
773.8	4216.1	
773.97	3990.8	
774.15	6258.6	
774.33	5743.9	
774.5	4175.8	
774.68	4582	
774.86	6383.5	
775.04	5750.7	
775.21	4225.6	
775.39	4224.3	
775.57	6036.7	
775.74	6578.8	
775.92	4103.4	
776.1	3979.2	
776.27	6029.2	
776.45	7405.5	
776.63	4214	
776.81	3724.6	
776.98	5625.1	
777.16	6888	
777.34	4443.4	
777.51	4355.3	
777.69	5670.8	
777.87	5434.6	
778.04	4420.2	
778.22	5130.2	
778.4	5449.6	
778.57	6156.9	
778.75	3622.2	
778.93	3938.2	
779.1	5231.2	
779.28	5125.4	
779.46	3677.5	
779.64	4189.5	
779.81	6303	
779.99	7273	
780.17	5109.7	
780.34	5193	
780.52	5767.8	
780.69	6000.5	
780.87	4479.6	
781.05	4020.2	
781.22	5751.4	
781.4	5874.3	
781.58	4251.6	
781.75	3285.6	
781.93	5833.3	
782.11	5170.4	
782.28	5188.2	
782.46	4240	
782.64	4982.7	
782.81	6051.7	
782.99	4298	
783.17	4257.7	
783.34	5880.4	
783.52	5062.6	
783.69	4520.5	
783.87	5393.7	
784.05	5155.4	
784.22	5135.6	
784.4	5375.2	
784.58	4616.8	
784.75	6188.3	
784.93	5174.5	
785.1	4207.2	
785.28	4928.8	
785.46	5905.7	
785.63	5146.5	
785.81	4162.8	
785.99	4014.7	
786.16	5360.9	
786.34	5821.7	
786.51	4030.4	
786.69	4500.1	
786.87	4897.4	
787.04	5440.8	
787.22	3936.9	
787.39	4943.8	
787.57	5098.1	
787.75	6349.4	
787.92	5173.2	
788.1	5076.2	
788.27	5220.3	
788.45	4967.7	
788.63	4773.8	
788.8	3416	
788.98	5580	
789.15	4927.4	
789.33	3525.2	
789.5	4269.3	
789.68	6113.2	
789.86	6269.5	
790.03	4699.4	
790.21	4087.7	
790.38	6120.7	
790.56	5330.2	
790.73	3921.9	
790.91	3973.7	
791.09	5190.2	
791.26	5920	
791.44	4185.4	
791.61	3561.4	
791.79	5137	
791.96	5221	
792.14	3733.4	
792.32	3272	
792.49	5129.5	
792.67	5281.7	
792.84	3772.4	
793.02	3622.2	
793.19	5915.9	
793.37	6415.6	
793.54	3313.6	
793.72	3631	
793.89	6645.7	
794.07	5171.8	
794.25	4388.1	
794.42	3370.3	
794.6	6301.6	
794.77	5925.5	
794.95	4592.2	
795.12	4013.3	
795.3	5145.9	
795.47	5920.7	
795.65	4416.8	
795.82	4248.2	
796	4960.2	
796.17	7002	
796.35	4095.3	
796.52	4898.7	
796.7	5717.2	
796.87	5826.5	
797.05	5151.3	
797.22	5033.2	
797.4	5774.6	
797.57	6915.3	
797.75	4201.7	
797.92	3975.1	
798.1	6072.2	
798.27	5197.1	
798.45	3383.2	
798.62	3684.3	
798.8	5500.2	
798.97	6032.6	
799.15	4573.8	
799.32	4293.9	
799.5	4646.2	
799.67	5558.9	
799.85	4589.5	
800.02	3331.4	
800.2	5117.9	
800.37	5539.8	
800.55	4877.6	
800.72	4031.1	
800.9	5937.1	
801.07	6455.2	
801.25	5422.3	
801.42	4395.6	
801.6	6019	
801.77	5734.3	
801.95	3934.8	
802.12	3880.2	
802.29	5667.4	
802.47	5718.6	
802.64	4350.6	
802.82	3241.3	
802.99	5061.2	
803.17	6215.6	
803.34	4240.7	
803.52	3850.9	
803.69	6935.8	
803.87	4887.8	
804.04	4279.6	
804.21	4294.6	
804.39	6305	
804.56	5332.2	
804.74	3519.1	
804.91	4429.1	
805.09	5117.2	
805.26	5233.9	
805.44	3685	
805.61	4065.9	
805.78	5890	
805.96	5913.2	
806.13	4397	
806.31	4742.4	
806.48	4724	
806.66	5258.5	
806.83	4386.1	
807	4288.4	
807.18	5104.9	
807.35	5660.6	
807.53	4035.9	
807.7	3372.3	
807.87	6395.1	
808.05	5208.7	
808.22	4730.8	
808.4	3407.8	
808.57	5176.6	
808.74	4813.4	
808.92	3912.3	
809.09	5053.7	
809.27	5051	
809.44	5758.9	
809.61	3444.7	
809.79	3793.5	
809.96	6414.2	
810.14	5995.1	
810.31	3354.6	
810.48	4066.6	
810.66	5322.7	
810.83	6150.1	
811.01	3929.4	
811.18	4348.5	
811.35	5967.8	
811.53	4616.1	
811.7	4789.5	
811.87	4440.7	
812.05	5193.6	
812.22	5115.8	
812.39	3736.9	
812.57	3682.2	
812.74	5219.6	
812.92	7049.1	
813.09	4091.8	
813.26	4508.9	
813.44	6787	
813.61	5102.9	
813.78	3387.3	
813.96	4629.8	
814.13	5223	
814.3	4841.4	
814.48	4994.3	
814.65	4057	
814.82	6454.5	
815	5031.2	
815.17	4244.1	
815.34	5205.3	
815.52	5130.8	
815.69	5126.7	
815.87	4190.8	
816.04	4147.1	
816.21	5201.2	
816.38	4533.5	
816.56	4089.8	
816.73	3726.6	
816.9	6535.1	
817.08	6064	
817.25	3821.5	
817.42	4846.9	
817.6	4717.2	
817.77	5212.1	
817.94	4344.4	
818.12	3760.8	
818.29	4925.4	
818.46	7911.3	
818.64	3948.5	
818.81	3700.7	
818.98	4829.1	
819.16	7157.7	
819.33	4508.9	
819.5	4214.7	
819.67	5594.4	
819.85	6293.4	
820.02	4159.4	
820.19	4428.4	
820.37	5405.3	
820.54	4929.5	
820.71	4291.9	
820.88	5369.8	
821.06	5506.3	
821.23	4949.9	
821.4	4369.7	
821.58	4289.1	
821.75	6002.6	
821.92	5366.4	
822.09	3458.3	
822.27	3601	
822.44	5187.5	
822.61	5122	
822.79	3492.5	
822.96	6787	
823.13	5763.7	
823.3	4945.2	
823.48	4053.6	
823.65	3637.2	
823.82	5943.9	
823.99	4721.9	
824.17	5139	
824.34	3687.7	
824.51	6884.6	
824.68	5259.9	
824.86	3784	
825.03	4311	
825.2	5241.4	
825.37	6401.3	
825.55	3753.9	
825.72	4231.8	
825.89	6975.4	
826.06	6457.9	
826.24	4138.3	
826.41	4182.6	
826.58	6412.9	
826.75	5532.2	
826.92	3207.8	
827.1	3661.8	
827.27	8800.1	
827.44	6955.6	
827.61	3944.4	
827.79	4769	
827.96	4908.3	
828.13	5352	
828.3	4051.6	
828.47	3435.1	
828.65	5456.5	
828.82	5354.1	
828.99	5395.7	
829.16	4606.6	
829.34	5940.5	
829.51	5622.4	
829.68	4238.6	
829.85	4440.7	
830.02	6136.4	
830.2	5917.9	
830.37	3279.5	
830.54	5180.7	
830.71	6666.1	
830.88	5185.5	
831.05	3370.3	
831.23	3830.4	
831.4	6364.4	
831.57	7167.9	
831.74	3926.6	
831.91	3467.9	
832.09	5440.8	
832.26	5838.1	
832.43	4102.8	
832.6	4599.1	
832.77	5431.2	
832.94	6356.9	
833.12	3209.2	
833.29	4038.6	
833.46	5064.6	
833.63	7488.1	
833.8	4459.1	
833.97	4132.8	
834.15	5858.6	
834.32	5573.2	
834.49	4283	
834.66	4395.6	
834.83	6075	
835	4913.1	
835.17	3874.8	
835.35	3962.1	
835.52	5749.3	
835.69	5582.1	
835.86	4216.1	
836.03	3390.1	
836.2	5747.3	
836.37	5355.4	
836.55	4077.5	
836.72	3841.3	
836.89	5352	
837.06	5956.9	
837.23	4195.6	
837.4	4609.3	
837.57	6634.7	
837.75	7466.9	
837.92	3753.9	
838.09	3976.5	
838.26	5394.3	
838.43	6237.4	
838.6	4300.1	
838.77	3866.6	
838.94	7034.1	
839.11	6716	
839.29	4030.4	
839.46	3209.2	
839.63	5765.7	
839.8	5603.9	
839.97	3941.7	
840.14	3995.6	
840.31	5556.8	
840.48	5801.2	
840.65	3274	
840.82	3868.6	
841	5849	
841.17	5816.9	
841.34	3656.3	
841.51	3636.5	
841.68	5726.1	
841.85	5443.5	
842.02	3779.9	
842.19	3080.8	
842.36	5565	
842.53	5502.9	
842.7	3636.5	
842.87	4542.4	
843.05	7374.7	
843.22	5537.7	
843.39	3474.7	
843.56	3741.6	
843.73	5227.1	
843.9	5885.9	
844.07	6036	
844.24	4971.8	
844.41	8711.4	
844.58	5020.3	
844.75	3511.6	
844.92	3879.5	
845.09	5819	
845.26	5812.8	
845.43	3629.7	
845.6	3801	
845.77	5870.8	
845.94	5534.3	
846.12	4042	
846.29	4280.9	
846.46	6038.1	
846.63	5883.1	
846.8	3682.2	
846.97	4330.8	
847.14	6310.5	
847.31	5771.2	
847.48	4070	
847.65	4525.3	
847.82	6126.2	
847.99	6140.5	
848.16	4888.5	
848.33	4550.6	
848.5	5369.8	
848.67	6386.2	
848.84	3636.5	
849.01	3823.6	
849.18	5249.6	
849.35	4828.4	
849.52	4589.5	
849.69	3548.4	
849.86	6045.6	
850.03	6311.8	
850.2	3617.4	
850.37	4498	
850.54	6191.7	
850.71	5451	
850.88	4424.3	
851.05	3568.9	
851.22	5707	
851.39	6447	
851.56	3401.7	
851.73	4133.5	
851.9	5083.7	
852.07	6101.6	
852.24	4055.7	
852.41	3556	
852.58	5640.8	
852.75	5184.8	
852.92	4083.6	
853.09	3473.4	
853.26	5365	
853.43	6302.3	
853.6	3594.9	
853.77	3083.6	
853.94	6438.8	
854.11	5829.9	
854.28	5400.5	
854.44	3888.4	
854.61	6838.9	
854.78	6150.1	
854.95	3573	
855.12	4579.9	
855.29	4644.8	
855.46	6374.6	
855.63	3577.1	
855.8	5046.9	
855.97	5365.7	
856.14	6195.1	
856.31	5104.2	
856.48	3944.4	
856.65	5360.9	
856.82	5071.5	
856.99	3494.5	
857.16	3851.5	
857.33	7083.9	
857.49	5494	
857.66	3897.3	
857.83	4257	
858	5454.4	
858.17	5688.6	
858.34	3410.6	
858.51	3648.1	
858.68	6591	
858.85	6528.2	
859.02	4205.2	
859.19	4457.1	
859.36	5048.9	
859.52	5158.2	
859.69	3657	
859.86	4306.2	
860.03	5205.9	
860.2	6466.8	
860.37	3269.9	
860.54	3667.9	
860.71	6031.3	
860.88	6550.8	
861.05	4133.5	
861.21	4546.5	
861.38	6565.1	
861.55	4949.9	
861.72	3305.4	
861.89	4096.6	
862.06	6156.2	
862.23	6680.5	
862.4	3470.6	
862.56	3799	
862.73	5972.6	
862.9	5636.7	
863.07	4278.9	
863.24	3288.4	
863.41	4985.4	
863.58	5077.6	
863.75	3696.6	
863.91	4188.8	
864.08	6520.7	
864.25	5942.5	
864.42	4547.2	
864.59	5142.4	
864.76	6786.3	
864.93	5117.9	
865.09	3545.7	
865.26	3856.3	
865.43	6359.6	
865.6	6836.1	
865.77	3150.5	
865.94	3543	
866.1	6371.9	
866.27	6066.1	
866.44	5517.9	
866.61	3397.6	
866.78	5493.3	
866.95	5967.8	
867.11	3454.9	
867.28	3186.6	
867.45	6137.1	
867.62	5143.1	
867.79	4220.9	
867.96	3620.1	
868.12	5126.7	
868.29	6147.3	
868.46	3650.2	
868.63	4833.2	
868.8	6339.1	
868.97	6053.8	
869.13	3774.4	
869.3	3773	
869.47	5933.6	
869.64	6199.2	
869.81	3670.6	
869.97	3651.5	
870.14	5915.2	
870.31	6605.4	
870.48	3530	
870.65	4588.8	
870.81	5403.2	
870.98	5339.1	
871.15	4034.5	
871.32	3713	
871.48	5920.7	
871.65	6638.8	
871.82	3592.1	
871.99	4021.5	
872.16	7071	
872.32	6488.6	
872.49	3622.2	
872.66	3677.5	
872.83	6049	
872.99	5238.7	
873.16	4205.2	
873.33	3616.7	
873.5	5683.1	
873.67	5692.7	
873.83	3806.5	
874	4939	
874.17	5786.2	
874.34	6993.8	
874.5	4738.3	
874.67	4569	
874.84	6485.2	
875.01	5039.4	
875.17	5141.8	
875.34	3597.6	
875.51	5714.5	
875.68	6968.6	
875.84	4366.3	
876.01	5419.6	
876.18	5961	
876.34	5959.6	
876.51	3697.9	
876.68	3571.7	
876.85	5502.9	
877.01	6278.4	
877.18	5241.4	
877.35	3573	
877.52	5614.8	
877.68	4973.8	
877.85	3479.5	
878.02	3506.8	
878.18	5607.3	
878.35	5279.7	
878.52	2914.3	
878.69	4091.2	
878.85	6090.7	
879.02	6059.3	
879.19	5191.6	
879.35	3919.1	
879.52	5998.5	
879.69	6275.7	
879.86	3099.3	
880.02	4061.8	
880.19	5573.9	
880.36	6904.4	
880.52	4188.8	
880.69	4304.1	
880.86	6139.8	
881.02	6184.2	
881.19	3962.1	
881.36	3907.5	
881.52	6028.5	
881.69	5309	
881.86	3915	
882.02	3762.8	
882.19	6308.4	
882.36	7461.4	
882.52	3744.4	
882.69	5130.8	
882.86	5807.4	
883.02	5670.8	
883.19	4444.1	
883.36	4153.3	
883.52	6216.3	
883.69	7030	
883.86	3665.9	
884.02	3297.9	
884.19	6163	
884.36	5557.5	
884.52	4173.1	
884.69	3851.5	
884.86	5310.4	
885.02	6778.8	
885.19	4067.9	
885.36	4228.4	
885.52	5602.6	
885.69	5809.4	
885.86	5262.6	
886.02	4631.1	
886.19	6058.6	
886.35	5534.3	
886.52	4030.4	
886.69	5135.6	
886.85	5154.1	
887.02	6457.9	
887.19	6457.9	
887.35	6457.9	
887.52	6457.9	
887.68	6457.9	
887.85	6457.9	
888.02	6457.9	
888.18	6457.9	
888.35	6457.9	
888.51	6457.9	
888.68	6457.9	
888.85	6457.9	
889.01	6457.9	
889.18	6457.9	
889.35	6457.9	
889.51	6457.9	
889.68	6457.9	
889.84	6457.9	
890.01	6457.9	
890.17	6457.9	
890.34	6457.9	
890.51	6457.9	
890.67	6457.9	
890.84	6457.9	
891	6457.9	
891.17	6457.9	
891.34	6457.9	
891.5	6457.9	
891.67	6457.9	
891.83	6457.9	
892	6457.9	
892.16	6457.9	
892.33	6457.9	
892.5	6457.9	
892.66	6457.9	
892.83	6457.9	
892.99	6457.9	
893.16	6457.9	
893.32	6457.9	
893.49	6457.9	
893.65	6457.9	
893.82	6457.9	
893.99	6457.9	
894.15	6457.9	
894.32	6457.9	
894.48	6457.9	
894.65	6457.9	
894.81	6457.9	
894.98	6457.9	
895.14	6457.9	
895.31	6457.9	
895.47	6457.9	
895.64	6457.9	
895.81	6457.9	
895.97	6457.9	
896.14	6457.9	
896.3	6457.9	
896.47	6457.9	
896.63	6457.9	
896.8	6457.9	
896.96	6457.9	
897.13	6457.9	
897.29	6457.9	
897.46	6457.9	
897.62	6457.9	
897.79	6457.9	
897.95	6457.9	
898.12	6457.9	
898.28	6457.9	
898.45	6457.9	
898.61	6457.9	
898.78	6457.9	
898.94	6457.9	
899.11	6457.9	
899.27	6457.9	
899.44	6457.9	
899.6	6457.9	
899.77	6457.9	
899.93	6457.9	
900.1	6457.9	
900.26	6457.9	
900.43	6457.9	
900.59	6457.9	
900.76	6457.9	
900.92	6457.9	
901.09	6457.9	
901.25	6457.9	
901.42	6457.9	
901.58	6457.9	
901.75	6457.9	
901.91	6457.9	
902.07	6457.9	
902.24	6457.9	
902.4	6457.9	
902.57	6457.9	
902.73	6457.9	
902.9	6457.9	
903.06	6457.9	
903.23	6457.9	
903.39	6457.9	
903.56	6457.9	
903.72	6457.9	
903.88	6457.9	
904.05	6457.9	
904.21	6457.9	
904.38	6457.9	
904.54	6457.9	
904.71	6457.9	
904.87	6457.9	
905.03	6457.9	
905.2	6457.9	
905.36	6457.9	
905.53	6457.9	
905.69	6457.9	
905.86	6457.9	
906.02	6457.9	
906.18	6457.9	
906.35	6457.9	
906.51	6457.9	
906.68	6457.9	
906.84	6457.9	
907.01	6457.9	
907.17	6457.9	
907.33	6457.9	
907.5	6457.9	
907.66	6457.9	
907.83	6457.9	
907.99	6457.9	
908.15	6457.9	
908.32	6457.9	
908.48	6457.9	
908.65	6457.9	
908.81	6457.9	
908.97	6457.9	
909.14	6457.9	
909.3	6457.9	
909.47	6457.9	
909.63	6457.9	
909.79	6457.9	
909.96	6457.9	
910.12	6457.9	
910.28	6457.9	
910.45	6457.9	
910.61	6457.9	
910.78	6457.9	
910.94	6457.9	
911.1	6457.9	
911.27	6457.9	
911.43	6457.9	
911.59	6457.9	
911.76	6457.9	
911.92	6457.9	
912.08	6457.9	
912.25	6457.9	
912.41	6457.9	
912.57	6457.9	
912.74	6457.9	
912.9	6457.9	
913.07	6457.9	
913.23	6457.9	
913.39	6457.9	
913.56	6457.9	
913.72	6457.9	
913.88	6457.9	
914.05	6457.9	
914.21	6457.9	
914.37	6457.9	
914.54	6457.9	
914.7	6457.9	
914.86	6457.9	
915.03	6457.9	
915.19	6457.9	
