Wavelength	Intensities	
nm	a.u.	
179.22	1800	
179.44	1793	
179.65	1807	
179.86	1779	
180.08	1774.2	
180.29	4377.2	
180.51	3186	
180.72	5225.7	
180.94	5999.9	
181.15	2923.1	
181.37	2876.7	
181.58	5077.6	
181.79	5302.2	
182.01	3042.6	
182.22	3263.8	
182.44	5341.1	
182.65	4560.1	
182.87	4001	
183.08	3558	
183.29	5558.2	
183.51	4644.1	
183.72	3233.7	
183.94	4623.6	
184.15	4960.2	
184.37	5006.6	
184.58	2874.7	
184.79	3866.6	
185.01	4678.2	
185.22	5254.4	
185.44	4037.9	
185.65	3476.1	
185.86	4957.4	
186.08	4594.3	
186.29	2814.6	
186.51	3061	
186.72	4728.1	
186.94	5406	
187.15	3517	
187.36	3547.1	
187.58	6968.6	
187.79	5062.6	
188.01	3725.9	
188.22	5694	
188.43	6045.6	
188.65	5272.2	
188.86	2973	
189.08	3566.9	
189.29	4837.3	
189.5	4790.2	
189.72	3280.2	
189.93	3391.4	
190.15	5470.8	
190.36	6376.7	
190.57	3655.6	
190.79	3520.5	
191	5529.5	
191.22	5507	
191.43	3621.5	
191.64	3037.8	
191.86	5687.2	
192.07	5492.7	
192.29	3169.6	
192.5	3291.8	
192.71	5492	
192.93	4792.9	
193.14	3223.5	
193.35	3369.6	
193.57	4797.7	
193.78	5424.4	
194	2694.4	
194.21	3201	
194.42	4586.1	
194.64	5003.9	
194.85	3564.8	
195.07	4166.9	
195.28	5005.9	
195.49	4422.2	
195.71	4361.5	
195.92	3152.5	
196.13	5215.5	
196.35	5274.2	
196.56	4565.6	
196.78	3547.1	
196.99	6363	
197.2	6018.3	
197.42	3997.6	
197.63	3594.2	
197.84	4552.6	
198.06	5141.1	
198.27	3276.1	
198.48	4329.4	
198.7	4797	
198.91	4992.9	
199.13	3629.7	
199.34	3609.2	
199.55	5395	
199.77	4351.9	
199.98	3209.2	
200.19	3637.9	
200.41	4956.1	
200.62	4702.8	
200.83	3673.4	
201.05	3973.7	
201.26	4945.8	
201.47	4734.9	
201.69	3224.9	
201.9	3131.3	
202.11	4943.8	
202.33	5812.8	
202.54	3456.3	
202.76	3761.4	
202.97	5072.1	
203.18	5162.2	
203.4	3704.1	
203.61	3703.4	
203.82	5069.4	
204.04	4767	
204.25	3599.6	
204.46	3558.7	
204.68	5010.7	
204.89	5242.8	
205.1	3551.2	
205.32	3064.4	
205.53	5324	
205.74	5429.8	
205.96	2605	
206.17	3674.1	
206.38	5284.4	
206.6	5418.9	
206.81	4032.5	
207.02	3351.8	
207.24	5209.3	
207.45	5617.6	
207.66	3464.5	
207.88	2934.1	
208.09	5154.1	
208.3	4995	
208.52	3154.6	
208.73	3481.5	
208.94	4996.4	
209.15	5585.5	
209.37	3407.8	
209.58	3834.5	
209.79	5442.8	
210.01	4846.9	
210.22	2777.7	
210.43	2930.6	
210.65	5053	
210.86	5280.3	
211.07	3405.1	
211.29	3183.9	
211.5	5251	
211.71	4956.1	
211.93	3164.8	
212.14	3174.4	
212.35	4913.1	
212.56	5085.1	
212.78	3642	
212.99	2953.9	
213.2	5825.1	
213.42	4827.1	
213.63	3241.3	
213.84	3480.9	
214.06	4470	
214.27	4557.4	
214.48	3399.6	
214.69	3617.4	
214.91	5565	
215.12	5662	
215.33	3621.5	
215.55	3993.5	
215.76	6029.9	
215.97	5324	
216.18	3530	
216.4	3462.4	
216.61	4718.5	
216.82	5395	
217.04	3210.5	
217.25	3326.6	
217.46	5530.2	
217.67	5355.4	
217.89	2882.2	
218.1	2994.1	
218.31	5096	
218.53	5206.6	
218.74	3317.7	
218.95	3233.1	
219.16	4962.2	
219.38	5846.3	
219.59	3171.6	
219.8	3836.5	
220.01	6346.7	
220.23	4990.2	
220.44	4157.4	
220.65	3105.4	
220.87	5028.4	
221.08	5556.8	
221.29	2990.7	
221.5	3852.2	
221.72	6575.3	
221.93	4739.7	
222.14	3661.8	
222.35	4212.7	
222.57	4994.3	
222.78	5363.6	
222.99	3426.9	
223.2	3690.4	
223.42	5277.6	
223.63	5430.5	
223.84	2728.6	
224.05	2706.7	
224.27	6195.8	
224.48	5730.9	
224.69	4216.1	
224.9	3608.5	
225.12	5119.2	
225.33	4976.6	
225.54	2907.4	
225.75	3258.3	
225.97	4622.3	
226.18	4950.6	
226.39	3447.4	
226.6	3252.2	
226.82	4833.9	
227.03	4668	
227.24	3603.7	
227.45	3002.3	
227.67	5364.3	
227.88	5763	
228.09	4049.5	
228.3	4035.2	
228.52	5309.7	
228.73	4954	
228.94	3358	
229.15	2993.4	
229.36	4889.9	
229.58	4900.1	
229.79	3401	
230	3917.1	
230.21	5887.9	
230.43	5031.9	
230.64	3571.7	
230.85	3680.2	
231.06	5429.8	
231.28	5322.7	
231.49	2957.9	
231.7	3439.2	
231.91	5272.2	
232.12	5009.3	
232.34	3155.9	
232.55	3480.9	
232.76	5484.5	
232.97	5107.6	
233.18	3145.7	
233.4	3553.9	
233.61	5154.7	
233.82	4755.4	
234.03	3347.7	
234.25	3288.4	
234.46	6727.6	
234.67	4989.5	
234.88	3667.2	
235.09	3209.8	
235.31	5240.8	
235.52	4884.4	
235.73	3566.9	
235.94	3057.6	
236.15	4800.4	
236.37	5930.9	
236.58	3184.6	
236.79	3431	
237	5285.8	
237.21	4555.4	
237.43	3703.4	
237.64	2922.5	
237.85	8583.7	
238.06	4605.2	
238.27	3717.7	
238.48	3068.5	
238.7	5291.3	
238.91	4870.8	
239.12	3444.7	
239.33	3483.6	
239.54	4666.6	
239.76	4930.1	
239.97	3404.4	
240.18	3484.3	
240.39	6090.7	
240.6	5227.1	
240.82	3590.8	
241.03	3025.5	
241.24	4966.3	
241.45	5711.1	
241.66	3176.4	
241.87	3743	
242.09	5675.6	
242.3	5913.2	
242.51	3772.4	
242.72	3404.4	
242.93	5369.1	
243.14	4962.9	
243.36	4012.7	
243.57	4244.1	
243.78	5765	
243.99	5351.3	
244.2	3473.4	
244.41	3138.9	
244.63	4583.4	
244.84	5228.5	
245.05	3744.4	
245.26	3438.5	
245.47	5248.9	
245.68	5425.8	
245.9	4496.7	
246.11	3582.6	
246.32	4833.2	
246.53	5139	
246.74	5533.6	
246.95	2914.9	
247.16	4593.6	
247.38	4999.1	
247.59	2954.5	
247.8	3476.8	
248.01	4713.1	
248.22	4929.5	
248.43	3185.3	
248.64	3424.2	
248.86	4521.9	
249.07	4782	
249.28	3108.8	
249.49	3532.7	
249.7	5490.6	
249.91	5567.1	
250.12	2930	
250.34	2977.7	
250.55	5116.5	
250.76	4935.6	
250.97	3564.8	
251.18	3562.8	
251.39	5580	
251.6	5155.4	
251.81	3646.1	
252.03	3633.1	
252.24	4799.8	
252.45	5412.8	
252.66	3048.7	
252.87	3829.7	
253.08	5053	
253.29	6388.3	
253.5	3078.1	
253.72	4160.8	
253.93	4872.8	
254.14	5838.8	
254.35	3295.2	
254.56	3344.3	
254.77	5201.2	
254.98	4662.5	
255.19	3281.5	
255.41	4166.3	
255.62	5136.3	
255.83	5519.3	
256.04	3692.5	
256.25	3530.7	
256.46	5999.9	
256.67	4728.1	
256.88	3568.2	
257.09	3944.4	
257.31	4760.2	
257.52	4730.1	
257.73	4449.6	
257.94	3293.8	
258.15	4951.3	
258.36	4975.2	
258.57	4060.4	
258.78	2686.9	
258.99	5374.6	
259.2	4907.6	
259.41	3297.2	
259.63	3396.9	
259.84	5713.2	
260.05	6098.2	
260.26	4275.5	
260.47	3225.6	
260.68	5425.1	
260.89	4896.7	
261.1	3919.1	
261.31	3182.5	
261.52	5482.4	
261.73	5801.9	
261.95	4175.8	
262.16	3718.4	
262.37	5608	
262.58	5674.2	
262.79	4220.9	
263	3397.6	
263.21	5178.6	
263.42	4881	
263.63	3423.5	
263.84	3379.1	
264.05	5479.7	
264.26	5865.4	
264.47	4077.5	
264.69	3719.8	
264.9	5650.3	
265.11	5169.1	
265.32	3240.6	
265.53	3346.4	
265.74	5104.2	
265.95	4456.4	
266.16	3504.8	
266.37	3855.6	
266.58	5162.2	
266.79	4841.4	
267	3343.7	
267.21	3044.6	
267.42	4706.9	
267.63	4980	
267.84	3438.5	
268.06	2987.3	
268.27	5343.2	
268.48	5644.2	
268.69	3358	
268.9	3992.2	
269.11	5595.1	
269.32	4514.4	
269.53	3480.2	
269.74	3228.3	
269.95	5206.6	
270.16	4465.3	
270.37	3512.3	
270.58	4010.6	
270.79	4831.2	
271	5521.3	
271.21	3661.1	
271.42	3529.3	
271.63	5193	
271.84	4650.3	
272.05	2851.5	
272.26	3136.8	
272.47	5061.9	
272.68	5156.8	
272.89	3323.2	
273.11	3792.2	
273.32	4830.5	
273.53	5807.4	
273.74	3720.5	
273.95	3620.8	
274.16	5487.9	
274.37	5048.2	
274.58	3827.7	
274.79	3088.3	
275	5119.2	
275.21	5511.8	
275.42	4515.8	
275.63	3830.4	
275.84	5210.7	
276.05	6502.3	
276.26	3710.9	
276.47	3369.6	
276.68	4930.8	
276.89	5832.6	
277.1	3906.8	
277.31	3046	
277.52	5192.3	
277.73	5451	
277.94	3020.8	
278.15	3370.3	
278.36	5217.5	
278.57	4728.8	
278.78	3295.2	
278.99	3750.5	
279.2	4691.2	
279.41	4674.8	
279.62	4362.2	
279.83	3102.7	
280.04	6008.1	
280.25	4647.5	
280.46	4298	
280.67	3461.1	
280.88	4696	
281.09	5554.8	
281.3	3676.1	
281.51	4493.2	
281.72	4810	
281.93	5399.1	
282.14	3272.7	
282.35	3508.9	
282.56	5450.3	
282.77	5358.2	
282.98	3370.3	
283.19	4045.4	
283.4	6540.5	
283.61	4960.9	
283.82	3117.7	
284.03	4256.4	
284.24	5183.4	
284.45	5510.4	
284.66	4265.9	
284.87	4064.5	
285.08	5491.3	
285.29	5650.3	
285.5	2994.8	
285.71	3417.4	
285.92	5532.9	
286.12	6088.6	
286.33	4242	
286.54	3409.2	
286.75	5403.9	
286.96	4820.2	
287.17	3131.3	
287.38	4127.3	
287.59	4754	
287.8	4659.8	
288.01	3396.2	
288.22	3885.7	
288.43	5364.3	
288.64	4593.6	
288.85	4065.2	
289.06	3850.2	
289.27	5386.2	
289.48	5799.2	
289.69	4218.1	
289.9	3934.1	
290.11	5581.4	
290.32	4806.6	
290.53	4035.2	
290.74	3681.6	
290.94	5362.9	
291.15	5410.7	
291.36	3304.1	
291.57	3851.5	
291.78	4833.2	
291.99	4455	
292.2	3181.9	
292.41	3748.5	
292.62	5526.8	
292.83	5246.9	
293.04	4530.8	
293.25	3181.2	
293.46	4874.8	
293.67	5522.7	
293.88	3256.3	
294.09	3166.2	
294.29	4691.9	
294.5	5158.8	
294.71	3470.6	
294.92	3338.2	
295.13	4897.4	
295.34	5920.7	
295.55	2937.5	
295.76	2920.4	
295.97	5320.6	
296.18	5979.4	
296.39	3063.1	
296.6	3248.1	
296.81	5070.8	
297.01	5428.5	
297.22	3413.3	
297.43	3237.8	
297.64	4765.6	
297.85	4700.8	
298.06	2738.8	
298.27	2938.2	
298.48	5003.2	
298.69	4780	
298.9	3487	
299.11	3190.7	
299.31	4604.5	
299.52	4630.5	
299.73	3771	
299.94	3689.1	
300.15	5079.6	
300.36	4704.9	
300.57	3706.8	
300.78	3642	
300.99	4930.1	
301.2	5100.1	
301.4	3252.9	
301.61	3517.7	
301.82	5350.7	
302.03	5347.9	
302.24	3893.9	
302.45	3117.7	
302.66	5311.1	
302.87	5608	
303.08	3265.8	
303.29	4298.7	
303.49	4791.6	
303.7	5025.7	
303.91	2945.7	
304.12	4175.1	
304.33	4554.7	
304.54	5127.4	
304.75	3300	
304.96	3117	
305.16	5281.7	
305.37	5863.3	
305.58	2910.8	
305.79	2981.2	
306	5330.2	
306.21	4562.9	
306.42	3235.1	
306.63	4859.8	
306.83	4908.3	
307.04	5451.7	
307.25	3571.7	
307.46	3564.8	
307.67	4391.5	
307.88	5377.3	
308.09	3230.3	
308.29	3356.6	
308.5	5079.6	
308.71	5540.4	
308.92	3411.2	
309.13	3154.6	
309.34	4914.4	
309.55	4908.3	
309.75	3987.4	
309.96	3670.6	
310.17	5363.6	
310.38	4754	
310.59	3818.8	
310.8	3074	
311.01	5952.8	
311.21	4958.1	
311.42	3153.2	
311.63	3195.5	
311.84	4816.8	
312.05	5126.7	
312.26	3633.1	
312.46	3951.2	
312.67	4852.3	
312.88	4635.2	
313.09	3185.3	
313.3	3117	
313.51	5699.5	
313.71	5948	
313.92	3121.1	
314.13	3338.9	
314.34	5215.5	
314.55	4975.9	
314.76	3958.7	
314.96	3545	
315.17	5164.3	
315.38	5366.4	
315.59	3162.7	
315.8	3072.6	
316.01	5700.2	
316.21	5760.3	
316.42	3056.3	
316.63	3446	
316.84	4943.8	
317.05	5526.1	
317.26	3738.9	
317.46	3347.7	
317.67	4985.4	
317.88	5352	
318.09	3953.3	
318.3	2946.3	
318.5	4796.3	
318.71	5242.1	
318.92	4966.3	
319.13	3680.9	
319.34	5449	
319.54	5553.4	
319.75	2964.8	
319.96	2816.6	
320.17	5296.7	
320.38	5522.7	
320.58	2938.2	
320.79	3481.5	
321	5520.6	
321.21	5595.7	
321.42	3463.1	
321.62	2950.4	
321.83	4698.7	
322.04	5022.3	
322.25	3381.9	
322.46	3208.5	
322.66	5105.6	
322.87	5281.7	
323.08	3836.5	
323.29	3158	
323.5	5939.1	
323.7	4593.6	
323.91	4238.6	
324.12	3803.1	
324.33	5053.7	
324.53	5265.3	
324.74	3659	
324.95	3837.9	
325.16	4573.1	
325.37	4852.3	
325.57	3182.5	
325.78	3267.2	
325.99	5163.6	
326.2	4610.7	
326.4	4346.5	
326.61	2968.2	
326.82	4971.8	
327.03	5038	
327.24	4375.1	
327.44	4137.6	
327.65	5251.7	
327.86	4369.7	
328.07	3658.4	
328.27	3091.8	
328.48	5661.3	
328.69	4653	
328.9	4470.7	
329.1	3375.1	
329.31	4947.9	
329.52	5643.5	
329.73	3244	
329.93	3526.6	
330.14	5030.5	
330.35	5227.8	
330.56	5008.6	
330.76	3886.4	
330.97	4870.8	
331.18	5176.6	
331.39	3515.7	
331.59	2891	
331.8	5525.4	
332.01	5613.5	
332.22	3300.6	
332.42	3683.6	
332.63	5124	
332.84	4693.3	
333.05	3534.1	
333.25	3238.5	
333.46	4820.9	
333.67	5036.6	
333.88	3329.3	
334.08	3660.4	
334.29	6598.6	
334.5	5554.1	
334.7	3123.2	
334.91	4450.2	
335.12	4661.2	
335.33	5314.5	
335.53	3507.5	
335.74	5022.3	
335.95	4898.1	
336.16	4686.4	
336.36	3563.5	
336.57	4001	
336.78	4639.3	
336.98	5535	
337.19	4310.3	
337.4	3438.5	
337.61	5951.4	
337.81	4675.5	
338.02	3245.3	
338.23	4113	
338.43	5707.7	
338.64	4716.5	
338.85	3186	
339.05	4128	
339.26	5724.1	
339.47	4631.1	
339.68	3169.6	
339.88	4519.2	
340.09	5245.5	
340.3	5464	
340.5	3633.1	
340.71	2892.4	
340.92	4630.5	
341.13	5579.3	
341.33	3065.8	
341.54	3727.3	
341.75	5211.4	
341.95	4915.8	
342.16	3595.6	
342.37	3818.1	
342.57	4654.4	
342.78	4941.7	
342.99	3915	
343.19	2882.2	
343.4	5418.2	
343.61	5278.3	
343.81	3398.3	
344.02	3117	
344.23	5444.2	
344.43	5683.8	
344.64	3936.9	
344.85	3839.9	
345.06	5268.1	
345.26	5564.3	
345.47	3659.7	
345.68	4304.8	
345.88	4507.6	
346.09	5470.1	
346.3	3743.7	
346.5	2831.7	
346.71	4985.4	
346.92	4786.1	
347.12	2984.6	
347.33	3667.9	
347.54	5489.2	
347.74	5823.1	
347.95	3582.6	
348.16	2831.7	
348.36	4828.4	
348.57	4711	
348.78	3627.6	
348.98	3898	
349.19	5007.3	
349.39	4536.3	
349.6	2956.6	
349.81	3265.8	
350.01	5328.8	
350.22	4816.1	
350.43	3573	
350.63	4197.7	
350.84	5102.2	
351.05	4857.1	
351.25	3250.1	
351.46	2979.1	
351.67	5469.4	
351.87	4778.6	
352.08	3457	
352.29	3867.9	
352.49	5364.3	
352.7	5508.4	
352.9	3164.8	
353.11	3941	
353.32	5993.7	
353.52	4930.1	
353.73	3132	
353.94	3878.2	
354.14	5309.7	
354.35	5154.1	
354.55	3235.1	
354.76	3555.3	
354.97	5262.6	
355.17	5089.2	
355.38	3093.8	
355.59	4143.7	
355.79	4820.2	
356	5105.6	
356.2	3574.4	
356.41	3183.2	
356.62	4658.4	
356.82	4972.5	
357.03	3815.4	
357.24	3438.5	
357.44	4880.3	
357.65	4875.5	
357.85	4511.7	
358.06	3611.9	
358.27	4626.4	
358.47	4851.6	
358.68	3127.9	
358.88	3808.5	
359.09	5293.3	
359.3	5574.6	
359.5	4415.4	
359.71	3916.4	
359.91	5963.7	
360.12	5384.1	
360.33	3827.7	
360.53	4202.4	
360.74	4904.9	
360.94	4894.6	
361.15	3953.3	
361.36	3359.4	
361.56	5589.6	
361.77	5080.3	
361.97	4386.1	
362.18	3576.4	
362.38	5622.4	
362.59	4769	
362.8	3317	
363	3296.5	
363.21	4640.7	
363.41	5199.1	
363.62	3797.6	
363.83	4562.2	
364.03	5352	
364.24	6057.9	
364.44	4703.5	
364.65	4674.8	
364.85	5086.5	
365.06	4842.1	
365.27	3462.4	
365.47	3543	
365.68	5954.8	
365.88	5113.8	
366.09	3828.3	
366.29	3598.3	
366.5	5256.5	
366.71	5694.7	
366.91	4696.7	
367.12	4034.5	
367.32	6144.6	
367.53	5502.2	
367.73	3908.2	
367.94	4728.8	
368.14	5530.2	
368.35	6238.8	
368.56	3894.6	
368.76	3403.7	
368.97	5624.4	
369.17	6976.7	
369.38	3517	
369.58	3771	
369.79	4771.8	
369.99	5922	
370.2	4688.5	
370.4	3838.6	
370.61	5334.3	
370.82	6312.5	
371.02	3781.2	
371.23	3269.2	
371.43	4805.9	
371.64	5872.9	
371.84	3791.5	
372.05	4810.7	
372.25	6910.5	
372.46	5615.5	
372.66	3863.8	
372.87	3768.9	
373.07	5650.3	
373.28	6972.7	
373.48	4706.9	
373.69	4324.6	
373.9	5321.3	
374.1	5300.8	
374.31	4553.3	
374.51	4203.1	
374.72	5988.3	
374.92	5087.2	
375.13	4762.2	
375.33	4103.4	
375.54	5573.9	
375.74	5205.3	
375.95	4213.4	
376.15	5205.3	
376.36	5687.2	
376.56	5535	
376.77	4237.2	
376.97	4619.5	
377.18	6579.4	
377.38	5754.8	
377.59	4929.5	
377.79	3961.5	
378	5617.6	
378.2	5981.4	
378.41	3971	
378.61	3877.5	
378.82	6015.6	
379.02	5388.2	
379.23	4129.4	
379.43	5005.9	
379.64	6207.4	
379.84	5801.9	
380.05	3988.8	
380.25	3933.5	
380.46	5847	
380.66	5567.1	
380.87	5031.2	
381.07	5369.8	
381.28	6354.8	
381.48	5808.7	
381.69	3958.7	
381.89	4043.4	
382.1	4992.3	
382.3	5942.5	
382.51	4889.2	
382.71	5592.3	
382.91	5762.3	
383.12	6216.3	
383.32	4207.2	
383.53	4334.9	
383.73	5721.3	
383.94	5564.3	
384.14	4394.3	
384.35	3676.8	
384.55	5417.6	
384.76	5795.8	
384.96	4233.2	
385.17	4481.6	
385.37	5799.8	
385.58	5190.2	
385.78	4423.6	
385.98	3608.5	
386.19	5424.4	
386.39	5705.6	
386.6	4017.4	
386.8	4154	
387.01	5799.8	
387.21	5861.3	
387.42	4554	
387.62	5044.1	
387.83	5275.6	
388.03	5716.6	
388.23	4282.3	
388.44	4890.5	
388.64	5089.2	
388.85	5175.9	
389.05	4646.2	
389.26	5094.7	
389.46	6776.7	
389.67	6237.4	
389.87	4633.9	
390.07	4651.6	
390.28	5630.5	
390.48	5255.8	
390.69	4027	
390.89	4245.4	
391.1	5424.4	
391.3	6167.8	
391.5	5281	
391.71	5731.6	
391.91	5971.2	
392.12	6795.2	
392.32	5341.8	
392.53	4578.6	
392.73	5543.2	
392.93	5673.6	
393.14	4354	
393.34	4993.6	
393.55	5979.4	
393.75	5605.3	
393.95	4397.7	
394.16	4296.6	
394.36	5453.7	
394.57	5996.5	
394.77	3971.7	
394.98	4225	
395.18	5421.7	
395.38	5520	
395.59	5045.5	
395.79	4173.8	
396	5558.2	
396.2	5905	
396.4	4937	
396.61	4840	
396.81	6139.8	
397.02	5479.7	
397.22	5119.2	
397.42	5127.4	
397.63	6144.6	
397.83	5537	
398.04	4217.5	
398.24	4675.5	
398.44	5982.8	
398.65	5217.5	
398.85	4108.2	
399.05	4194.9	
399.26	5563.6	
399.46	6968.6	
399.67	4557.4	
399.87	4275.5	
400.07	5906.3	
400.28	6062.7	
400.48	4408.6	
400.69	5255.8	
400.89	6325.5	
401.09	6739.2	
401.3	4384.7	
401.5	5248.3	
401.7	6959	
401.91	7132.4	
402.11	4683	
402.32	4795.7	
402.52	6457.2	
402.72	6247	
402.93	5026.4	
403.13	4020.8	
403.33	6910.5	
403.54	5747.3	
403.74	4633.2	
403.94	5326.8	
404.15	5806	
404.35	6744.6	
404.56	4390.2	
404.76	5886.5	
404.96	6295.5	
405.17	6016.2	
405.37	5539.1	
405.57	4901.5	
405.78	6336.4	
405.98	5841.5	
406.18	4536.9	
406.39	5274.9	
406.59	6305.7	
406.79	5917.9	
407	4311.7	
407.2	4390.8	
407.4	6346	
407.61	6440.2	
407.81	4429.8	
408.01	5968.5	
408.22	5451.7	
408.42	7233.4	
408.62	5473.5	
408.83	5084.4	
409.03	6092	
409.23	6139.8	
409.44	5135.6	
409.64	5395.7	
409.84	7050.5	
410.05	7019.8	
410.25	5369.1	
410.45	5181.4	
410.66	6677.1	
410.86	8634.9	
411.06	5641.5	
411.27	5477.6	
411.47	8540.7	
411.67	6739.9	
411.88	5721.3	
412.08	6006.7	
412.28	7326.9	
412.49	7816.4	
412.69	5563.6	
412.89	5650.3	
413.09	7650.5	
413.3	7570	
413.5	5720.7	
413.7	5425.8	
413.91	6934.4	
414.11	7689.4	
414.31	5522	
414.52	6034.7	
414.72	7395.2	
414.92	7275.1	
415.12	5609.4	
415.33	6039.5	
415.53	7727.7	
415.73	7854	
415.94	6281.8	
416.14	5852.4	
416.34	6915.3	
416.55	6673	
416.75	6883.2	
416.95	6414.2	
417.15	7785	
417.36	8221.9	
417.56	7100.3	
417.76	6225.1	
417.97	8026.7	
418.17	7819.1	
418.37	6021	
418.57	6037.4	
418.78	7670.3	
418.98	7299	
419.18	6800.6	
419.38	6656.6	
419.59	7367.2	
419.79	6943.3	
419.99	5855.1	
420.2	6130.3	
420.4	7746.8	
420.6	7746.8	
420.8	5803.3	
421.01	5671.5	
421.21	7730.4	
421.41	7785	
421.61	6080.4	
421.82	5891.3	
422.02	7227.3	
422.22	7954.3	
422.42	6565.1	
422.63	6149.4	
422.83	7371.3	
423.03	8305.2	
423.23	6231.3	
423.44	5353.4	
423.64	7335.1	
423.84	7086	
424.04	5745.9	
424.25	5479.7	
424.45	8058.8	
424.65	7940.7	
424.85	5343.2	
425.06	5780.7	
425.26	8110	
425.46	7208.8	
425.66	6180.8	
425.87	5893.4	
426.07	7789.8	
426.27	7671.7	
426.47	6052.4	
426.67	5403.2	
426.88	8108.6	
427.08	7608.2	
427.28	6186.2	
427.48	5424.4	
427.69	6709.1	
427.89	7249.1	
428.09	6198.5	
428.29	5529.5	
428.5	7836.9	
428.7	7397.3	
428.9	5313.8	
429.1	5760.9	
429.3	7337.9	
429.51	7680.6	
429.71	5644.9	
429.91	6336.4	
430.11	7677.8	
430.31	7877.9	
430.52	5860.6	
430.72	6219.7	
430.92	8159.8	
431.12	7692.9	
431.32	5647.6	
431.53	5956.2	
431.73	6782.9	
431.93	8194.6	
432.13	5554.1	
432.33	5554.8	
432.54	7151.5	
432.74	7449.8	
432.94	5459.2	
433.14	6381.5	
433.34	7663.5	
433.55	7317.4	
433.75	6342.6	
433.95	7845.1	
434.15	7596.6	
434.35	7370	
434.56	5631.2	
434.76	5372.5	
434.96	7511.3	
435.16	7746.8	
435.36	5631.2	
435.56	6562.4	
435.77	7248.4	
435.97	7438.2	
436.17	7174	
436.37	6563.1	
436.57	7221.1	
436.78	7308.5	
436.98	6977.4	
437.18	6994.5	
437.38	7858.7	
437.58	7445.7	
437.78	7146.7	
437.99	6059.9	
438.19	7763.8	
438.39	9043.1	
438.59	5908.4	
438.79	5465.3	
438.99	8347.5	
439.2	7281.9	
439.4	5485.1	
439.6	5536.3	
439.8	7597.3	
440	8488.8	
440.2	6449.1	
440.4	6592.4	
440.61	8058.8	
440.81	8525.7	
441.01	5909.8	
441.21	6667.5	
441.41	8538	
441.61	8052.6	
441.81	7000.6	
442.02	7778.2	
442.22	8908	
442.42	8187.1	
442.62	6092	
442.82	6033.3	
443.02	8546.2	
443.22	7781.6	
443.43	6363	
443.63	6019.7	
443.83	7623.9	
444.03	7732.4	
444.23	7058	
444.43	6660	
444.63	8009.6	
444.83	8899.1	
445.04	6146	
445.24	7200	
445.44	8253.3	
445.64	8284	
445.84	6806.1	
446.04	6823.1	
446.24	7660.8	
446.44	8443.1	
446.65	6107.7	
446.85	6404.7	
447.05	7576.1	
447.25	8327.7	
447.45	6425.8	
447.65	5976	
447.85	7867.6	
448.05	7520.8	
448.25	6675.7	
448.46	6637.5	
448.66	7919.5	
448.86	7631.4	
449.06	5810.8	
449.26	6818.4	
449.46	8136.6	
449.66	7392.5	
449.86	6462	
450.06	6384.9	
450.26	7604.1	
450.47	8127	
450.67	6533	
450.87	6933.7	
451.07	8257.4	
451.27	7918.8	
451.47	6033.3	
451.67	6554.2	
451.87	7742.7	
452.07	8613.8	
452.27	6240.2	
452.47	6242.2	
452.67	7947.5	
452.88	8329.8	
453.08	5715.2	
453.28	7381.6	
453.48	9001.5	
453.68	7797.3	
453.88	6187.6	
454.08	6310.5	
454.28	8246.5	
454.48	7982.3	
454.68	6915.3	
454.88	7166.5	
455.08	8384.4	
455.28	8243.8	
455.48	6077.7	
455.68	6718	
455.89	8887.5	
456.09	8564.6	
456.29	6395.1	
456.49	6559	
456.69	8755.7	
456.89	8119.5	
457.09	7007.5	
457.29	7369.3	
457.49	8434.9	
457.69	8586.5	
457.89	6858.6	
458.09	6331.6	
458.29	8270.4	
458.49	8969.4	
458.69	7339.2	
458.89	6756.2	
459.09	9259.5	
459.29	9202.9	
459.49	6901	
459.69	7578.2	
459.9	8768	
460.1	8312.7	
460.3	6701	
460.5	6659.3	
460.7	8728.4	
460.9	8396.7	
461.1	6306.4	
461.3	7393.2	
461.5	9435.7	
461.7	9052	
461.9	6829.3	
462.1	7134.4	
462.3	8654	
462.5	9119.6	
462.7	6909.8	
462.9	6976.1	
463.1	10001	
463.3	9802.3	
463.5	7146.7	
463.7	8000	
463.9	8920.3	
464.1	9271.8	
464.3	7507.2	
464.5	7496.2	
464.7	9548.3	
464.9	9256.1	
465.1	8663.6	
465.3	7923.6	
465.5	9742.2	
465.7	9787.9	
465.9	8155.7	
466.1	7790.5	
466.3	9758.6	
466.5	9536.7	
466.7	8787.2	
466.9	7775.5	
467.1	9615.9	
467.3	10279	
467.5	8805.6	
467.7	7794.6	
467.9	10656	
468.1	11330	
468.3	8435.6	
468.5	8895	
468.7	9564	
468.9	9488.2	
469.1	8101.1	
469.3	8793.3	
469.5	11217	
469.7	9324.4	
469.9	8512	
470.1	8008.9	
470.3	9704.6	
470.5	9651.4	
470.7	9046.6	
470.9	7986.4	
471.1	9449.3	
471.3	9705.3	
471.5	7824.6	
471.69	9389.3	
471.89	9321	
472.09	8858.8	
472.29	8490.2	
472.49	8723	
472.69	9122.3	
472.89	9703.3	
473.09	7773.4	
473.29	7759.8	
473.49	9264.3	
473.69	9266.4	
473.89	8572.8	
474.09	7907.9	
474.29	10339	
474.49	10006	
474.69	8597.4	
474.89	7965.9	
475.09	9262.3	
475.29	9271.2	
475.49	7547.4	
475.69	7826.7	
475.88	10626	
476.08	9639.8	
476.28	7447.1	
476.48	7750.9	
476.68	9888.3	
476.88	9719	
477.08	7576.8	
477.28	8015.1	
477.48	9240.4	
477.68	9841.9	
477.88	7479.2	
478.08	7722.2	
478.28	10096	
478.48	9462.3	
478.67	7858.7	
478.87	7230	
479.07	9930.6	
479.27	9462.3	
479.47	7978.2	
479.67	8039	
479.87	9787.2	
480.07	10239	
480.27	7394.5	
480.47	8837	
480.67	9523.7	
480.87	10081	
481.06	7675.1	
481.26	8402.1	
481.46	9479.4	
481.66	9450	
481.86	8000.7	
482.06	8882	
482.26	9153.1	
482.46	9985.2	
482.66	7954.3	
482.86	7574.8	
483.05	9613.2	
483.25	8996	
483.45	9993.4	
483.65	7986.4	
483.85	9106.6	
484.05	9454.1	
484.25	8390.5	
484.45	8740	
484.65	10097	
484.84	10150	
485.04	8039.6	
485.24	7937.2	
485.44	10472	
485.64	9101.2	
485.84	7404.1	
486.04	8619.9	
486.24	9387.9	
486.44	9741.5	
486.63	7421.2	
486.83	8089.5	
487.03	9368.8	
487.23	9602.2	
487.43	7636.2	
487.63	9500.5	
487.83	9718.3	
488.02	10545	
488.22	8432.9	
488.42	8942.8	
488.62	10378	
488.82	9514.9	
489.02	8129.1	
489.22	8240.3	
489.41	10240	
489.61	10047	
489.81	7912.7	
490.01	7940.7	
490.21	10314	
490.41	10918	
490.61	7972.7	
490.8	8065.6	
491	9866.4	
491.2	9219.3	
491.4	8472.4	
491.6	7690.8	
491.8	9708.7	
491.99	9775	
492.19	7591.1	
492.39	7953.6	
492.59	10141	
492.79	10236	
492.99	8691.6	
493.18	7991.9	
493.38	10397	
493.58	11136	
493.78	8638.3	
493.98	8266.3	
494.18	10165	
494.37	9749	
494.57	8991.3	
494.77	8791.9	
494.97	10484	
495.17	10760	
495.37	8565.3	
495.56	8860.9	
495.76	11026	
495.96	10720	
496.16	9723.8	
496.36	8714.8	
496.55	10961	
496.75	10628	
496.95	9192	
497.15	8958.5	
497.35	10925	
497.54	10791	
497.74	8794	
497.94	10256	
498.14	11589	
498.34	11313	
498.53	8564.6	
498.73	9333.3	
498.93	10460	
499.13	10907	
499.33	9103.9	
499.52	9613.8	
499.72	11075	
499.92	11241	
500.12	8942.8	
500.32	9216.5	
500.51	11189	
500.71	11135	
500.91	9777.7	
501.11	9540.1	
501.31	11259	
501.5	11508	
501.7	10032	
501.9	9129.2	
502.1	10873	
502.29	11274	
502.49	9688.9	
502.69	9912.9	
502.89	11112	
503.09	11084	
503.28	8666.3	
503.48	8772.8	
503.68	10459	
503.88	10431	
504.07	9613.8	
504.27	9200.2	
504.47	10800	
504.67	10757	
504.86	9622	
505.06	9276.6	
505.26	10473	
505.46	11933	
505.65	9041.8	
505.85	9263	
506.05	10322	
506.25	10723	
506.44	8445.8	
506.64	9232.9	
506.84	10212	
507.04	10886	
507.23	8688.8	
507.43	9127.1	
507.63	11813	
507.83	10310	
508.02	9045.2	
508.22	8656.8	
508.42	11987	
508.62	10034	
508.81	8783.1	
509.01	9400.9	
509.21	9893.1	
509.4	10193	
509.6	8948.9	
509.8	8548.9	
510	10183	
510.19	11487	
510.39	8527.7	
510.59	8646.5	
510.79	10128	
510.98	11234	
511.18	8760.5	
511.38	8849.3	
511.57	10790	
511.77	10675	
511.97	9338.7	
512.17	8559.8	
512.36	10751	
512.56	10628	
512.76	8486.8	
512.95	8338	
513.15	10983	
513.35	9696.4	
513.55	9343.5	
513.74	8606.2	
513.94	10932	
514.14	10247	
514.33	9437	
514.53	9227.5	
514.73	10345	
514.92	10444	
515.12	8787.8	
515.32	8711.4	
515.51	10639	
515.71	11006	
515.91	10267	
516.11	8742.8	
516.3	12056	
516.5	10358	
516.7	9137.4	
516.89	9641.8	
517.09	10438	
517.29	10315	
517.48	9558.6	
517.68	8927.1	
517.88	10132	
518.07	10722	
518.27	9413.8	
518.47	8646.5	
518.66	11218	
518.86	10015	
519.06	8480	
519.25	8827.4	
519.45	10305	
519.65	11602	
519.84	9420	
520.04	10012	
520.24	11969	
520.43	10908	
520.63	9216.5	
520.83	8908	
521.02	10192	
521.22	10690	
521.42	9256.8	
521.61	9790.7	
521.81	10393	
522.01	10547	
522.2	9257.5	
522.4	8845.9	
522.6	10943	
522.79	9914.9	
522.99	9064.3	
523.18	8574.2	
523.38	10819	
523.58	10847	
523.77	10330	
523.97	8744.1	
524.17	12592	
524.36	11771	
524.56	9914.9	
524.76	9706	
524.95	11019	
525.15	10742	
525.34	9501.2	
525.54	9581.8	
525.74	11378	
525.93	10636	
526.13	10664	
526.33	9638.4	
526.52	11794	
526.72	11221	
526.91	10655	
527.11	10057	
527.31	11724	
527.5	12191	
527.7	10038	
527.89	9327.8	
528.09	11049	
528.29	11456	
528.48	10507	
528.68	10135	
528.87	11839	
529.07	11738	
529.27	9912.2	
529.46	9705.3	
529.66	11559	
529.85	11943	
530.05	9545.6	
530.25	10154	
530.44	12673	
530.64	11363	
530.83	9871.2	
531.03	10020	
531.23	11880	
531.42	11734	
531.62	10756	
531.81	9998.2	
532.01	12138	
532.21	12394	
532.4	10036	
532.6	10460	
532.79	12983	
532.99	12249	
533.18	10560	
533.38	11212	
533.58	11981	
533.77	12603	
533.97	10503	
534.16	11193	
534.36	12832	
534.55	12007	
534.75	11308	
534.95	10664	
535.14	12854	
535.34	12054	
535.53	10280	
535.73	11942	
535.92	13163	
536.12	12017	
536.31	10329	
536.51	11335	
536.71	12353	
536.9	11934	
537.1	10418	
537.29	10591	
537.49	12726	
537.68	11929	
537.88	10937	
538.07	10080	
538.27	12181	
538.46	13080	
538.66	10192	
538.86	10644	
539.05	12325	
539.25	12525	
539.44	10957	
539.64	10477	
539.83	12020	
540.03	12914	
540.22	10367	
540.42	10396	
540.61	12277	
540.81	12310	
541	10802	
541.2	11374	
541.39	11788	
541.59	12172	
541.78	11054	
541.98	10337	
542.18	11654	
542.37	11521	
542.57	10582	
542.76	11116	
542.96	11489	
543.15	12045	
543.35	10529	
543.54	9932	
543.74	12136	
543.93	11893	
544.13	10358	
544.32	11229	
544.52	12062	
544.71	11419	
544.91	9644.6	
545.1	10577	
545.3	11429	
545.49	12056	
545.69	9502.6	
545.88	9990	
546.08	12789	
546.27	12391	
546.47	10441	
546.66	9861.7	
546.86	12100	
547.05	12664	
547.24	10131	
547.44	9990	
547.63	11243	
547.83	12170	
548.02	10342	
548.22	10428	
548.41	11089	
548.61	12161	
548.8	9834.3	
549	9842.5	
549.19	11598	
549.39	12079	
549.58	9598.1	
549.78	9980.4	
549.97	11886	
550.17	11380	
550.36	10734	
550.55	11540	
550.75	11404	
550.94	12205	
551.14	9613.2	
551.33	9965.4	
551.53	10900	
551.72	11737	
551.92	10019	
552.11	9781.8	
552.31	11834	
552.5	11774	
552.69	11171	
552.89	9503.3	
553.08	11596	
553.28	11379	
553.47	9822.7	
553.67	10812	
553.86	12178	
554.06	10778	
554.25	9008.3	
554.44	9657.5	
554.64	12777	
554.83	12410	
555.03	9555.1	
555.22	9886.9	
555.42	11833	
555.61	11597	
555.8	9712.2	
556	9924.5	
556.19	10804	
556.39	11916	
556.58	9794.8	
556.78	9741.5	
556.97	11419	
557.16	11219	
557.36	10762	
557.55	9449.3	
557.75	10559	
557.94	12199	
558.13	9502.6	
558.33	9348.3	
558.52	11925	
558.72	10884	
558.91	9310.1	
559.1	9552.4	
559.3	10657	
559.49	10384	
559.69	8963.3	
559.88	9775.6	
560.07	11363	
560.27	11732	
560.46	9833.7	
560.66	10034	
560.85	11193	
561.04	10545	
561.24	9240.4	
561.43	9458.9	
561.63	10682	
561.82	10891	
562.01	10403	
562.21	9689.6	
562.4	11219	
562.59	12090	
562.79	9637.7	
562.98	9379.7	
563.18	11232	
563.37	12518	
563.56	10046	
563.76	9336	
563.95	10826	
564.14	10794	
564.34	9713.5	
564.53	9319.6	
564.73	11336	
564.92	11551	
565.11	9766.1	
565.31	9233.6	
565.5	11805	
565.69	10882	
565.89	9593.4	
566.08	9751.1	
566.27	11669	
566.47	12043	
566.66	10201	
566.85	9124.4	
567.05	11358	
567.24	10892	
567.44	9355.8	
567.63	10539	
567.82	11663	
568.02	11276	
568.21	9252.7	
568.4	9714.2	
568.6	11189	
568.79	11234	
568.98	9352.4	
569.18	9506	
569.37	11140	
569.56	12932	
569.76	9750.4	
569.95	10527	
570.14	11521	
570.34	11444	
570.53	9309.4	
570.72	9131.2	
570.91	11833	
571.11	11047	
571.3	9600.9	
571.49	10335	
571.69	11113	
571.88	10763	
572.07	10029	
572.27	10086	
572.46	10740	
572.65	11727	
572.85	9373.6	
573.04	9767.4	
573.23	11944	
573.43	11330	
573.62	9310.1	
573.81	9763.3	
574	11456	
574.2	11171	
574.39	9721.7	
574.58	9735.4	
574.78	12110	
574.97	11429	
575.16	10137	
575.36	10256	
575.55	11802	
575.74	12048	
575.93	9446.6	
576.13	10320	
576.32	11266	
576.51	11919	
576.71	9681.4	
576.9	10961	
577.09	12108	
577.28	11668	
577.48	10156	
577.67	9312.1	
577.86	11274	
578.05	11765	
578.25	9924.5	
578.44	9958.6	
578.63	11393	
578.83	12642	
579.02	9439.1	
579.21	10649	
579.4	11678	
579.6	11387	
579.79	10032	
579.98	11912	
580.17	11936	
580.37	11957	
580.56	9549	
580.75	10187	
580.94	12392	
581.14	12321	
581.33	10798	
581.52	9744.2	
581.71	11943	
581.91	12413	
582.1	9519	
582.29	9980.4	
582.48	11592	
582.68	11610	
582.87	10544	
583.06	10142	
583.25	11935	
583.45	11473	
583.64	10750	
583.83	11412	
584.02	11528	
584.21	12004	
584.41	10651	
584.6	10191	
584.79	11783	
584.98	12342	
585.18	9773.6	
585.37	9737.4	
585.56	11387	
585.75	12113	
585.94	9850	
586.14	10490	
586.33	12444	
586.52	11628	
586.71	10180	
586.91	9970.2	
587.1	11013	
587.29	11929	
587.48	9744.9	
587.67	9649.3	
587.87	11607	
588.06	11670	
588.25	10803	
588.44	10044	
588.63	11292	
588.83	11733	
589.02	9494.4	
589.21	9396.1	
589.4	10889	
589.59	10690	
589.78	8542.1	
589.98	8660.2	
590.17	10173	
590.36	10630	
590.55	8051.9	
590.74	8664.3	
590.94	11606	
591.13	10355	
591.32	8457.4	
591.51	8120.2	
591.7	10796	
591.89	10365	
592.09	8243.1	
592.28	8678.6	
592.47	9701.9	
592.66	11409	
592.85	8322.9	
593.05	8480.6	
593.24	10297	
593.43	11068	
593.62	8607.6	
593.81	8959.2	
594	10316	
594.19	10490	
594.39	8596	
594.58	8579.6	
594.77	10737	
594.96	11136	
595.15	8444.5	
595.34	8948.3	
595.54	10510	
595.73	9827.5	
595.92	7868.3	
596.11	8802.2	
596.3	10864	
596.49	9987.9	
596.68	8696.4	
596.88	9065	
597.07	10812	
597.26	9808.4	
597.45	8350.3	
597.64	9258.9	
597.83	10017	
598.02	10537	
598.22	8405.5	
598.41	8890.9	
598.6	10428	
598.79	9852.8	
598.98	8453.3	
599.17	9197.4	
599.36	10461	
599.55	11237	
599.74	10065	
599.94	9967.5	
600.13	10846	
600.32	9938.8	
600.51	8297	
600.7	8325	
600.89	11431	
601.08	11514	
601.27	8205.5	
601.47	9026.8	
601.66	10938	
601.85	11357	
602.04	8842.4	
602.23	8987.2	
602.42	10124	
602.61	10599	
602.8	8684.1	
602.99	8637.6	
603.18	10294	
603.37	10576	
603.57	9029.5	
603.76	9592	
603.95	11222	
604.14	10802	
604.33	8605.6	
604.52	8940.1	
604.71	10589	
604.9	10234	
605.09	9661	
605.28	9124.4	
605.47	11112	
605.66	10755	
605.86	9097.8	
606.05	8616.5	
606.24	10973	
606.43	9826.8	
606.62	8976.2	
606.81	9489.6	
607	10886	
607.19	10411	
607.38	8340	
607.57	8539.3	
607.76	10092	
607.95	9551	
608.14	8911.4	
608.33	9398.1	
608.52	10090	
608.72	10888	
608.91	8217.1	
609.1	8143.4	
609.29	10221	
609.48	9811.1	
609.67	8963.3	
609.86	8221.9	
610.05	9871.9	
610.24	10031	
610.43	8087.4	
610.62	7793.2	
610.81	10987	
611	10794	
611.19	8240.3	
611.38	8784.4	
611.57	10411	
611.76	11370	
611.95	7936.6	
612.14	7916.8	
612.33	10176	
612.52	9781.1	
612.71	8525	
612.9	7762.5	
613.09	9442.5	
613.28	11400	
613.47	8305.2	
613.66	8981.7	
613.85	10279	
614.04	9732.6	
614.24	8288.8	
614.43	7652.6	
614.62	10436	
614.81	10249	
615	8789.2	
615.19	8830.2	
615.38	9665.7	
615.57	10059	
615.76	8634.2	
615.95	9562	
616.14	10482	
616.33	10036	
616.52	8944.2	
616.71	9103.2	
616.9	10331	
617.09	10214	
617.28	8283.4	
617.47	9400.2	
617.66	9613.8	
617.85	9710.8	
618.04	9273.9	
618.22	8708.6	
618.41	9992.7	
618.6	10776	
618.79	8756.4	
618.98	8568.7	
619.17	11047	
619.36	9688.3	
619.55	8688.8	
619.74	8721.6	
619.93	10451	
620.12	9905.3	
620.31	9047.9	
620.5	9379.7	
620.69	11071	
620.88	11353	
621.07	10000	
621.26	9153.7	
621.45	10684	
621.64	10707	
621.83	9241.1	
622.02	8555	
622.21	10701	
622.4	10554	
622.59	9671.2	
622.78	9448	
622.97	10165	
623.16	11043	
623.35	9334.6	
623.54	8478.6	
623.72	10400	
623.91	10615	
624.1	9485.5	
624.29	8221.2	
624.48	11376	
624.67	10873	
624.86	9448	
625.05	8531.2	
625.24	11572	
625.43	10123	
625.62	10641	
625.81	8670.4	
626	11024	
626.19	10475	
626.38	9242.5	
626.56	8873.2	
626.75	10135	
626.94	11075	
627.13	9508.7	
627.32	8176.2	
627.51	10729	
627.7	11761	
627.89	8243.8	
628.08	9297.8	
628.27	10017	
628.46	10282	
628.65	8517.5	
628.83	8211	
629.02	10700	
629.21	10068	
629.4	8893	
629.59	9011.7	
629.78	10108	
629.97	10841	
630.16	9176.9	
630.35	8721.6	
630.54	11298	
630.72	11103	
630.91	8690.9	
631.1	9118.9	
631.29	10447	
631.48	10668	
631.67	9235.7	
631.86	8757.8	
632.05	10222	
632.24	10256	
632.42	8569.4	
632.61	8989.2	
632.8	10377	
632.99	10033	
633.18	9013.1	
633.37	9394.7	
633.56	10557	
633.75	10464	
633.93	9024.7	
634.12	8813.1	
634.31	11151	
634.5	10990	
634.69	8816.5	
634.88	9117.6	
635.07	10443	
635.25	10923	
635.44	9589.3	
635.63	9735.4	
635.82	10262	
636.01	9709.4	
636.2	9429.5	
636.39	9144.2	
636.57	11253	
636.76	10821	
636.95	8639	
637.14	9782.5	
637.33	10617	
637.52	11275	
637.7	8390.5	
637.89	9280	
638.08	10167	
638.27	11391	
638.46	9267.1	
638.65	9632.3	
638.83	11447	
639.02	10172	
639.21	9113.5	
639.4	9631.6	
639.59	10438	
639.78	10027	
639.96	8452	
640.15	8512	
640.34	10253	
640.53	10331	
640.72	8186.4	
640.91	8537.3	
641.09	9723.8	
641.28	10828	
641.47	8593.3	
641.66	9185.8	
641.85	10265	
642.03	10385	
642.22	8987.9	
642.41	8513.4	
642.6	9720.3	
642.79	9275.3	
642.97	8265.6	
643.16	8880.7	
643.35	9693	
643.54	9496.4	
643.73	8137.3	
643.91	8852.7	
644.1	9340.1	
644.29	9873.3	
644.48	8199.4	
644.67	8101.8	
644.85	9350.3	
645.04	9737.4	
645.23	7726.3	
645.42	7968.6	
645.6	9236.3	
645.79	10187	
645.98	7855.3	
646.17	6959	
646.36	8831.5	
646.54	9312.1	
646.73	8432.9	
646.92	7279.2	
647.11	8987.2	
647.29	9791.3	
647.48	7457.3	
647.67	7172	
647.86	9971.6	
648.05	10093	
648.23	7662.8	
648.42	8794	
648.61	9529.2	
648.8	9258.9	
648.98	7345.4	
649.17	7709.9	
649.36	8919.6	
649.55	8546.2	
649.73	7439.6	
649.92	8127	
650.11	8864.3	
650.3	9142.1	
650.48	7481.9	
650.67	7314.7	
650.86	9372.9	
651.05	8348.9	
651.23	7461.4	
651.42	7441	
651.61	8927.8	
651.79	8898.4	
651.98	7613	
652.17	7264.1	
652.36	9238.4	
652.54	8516.8	
652.73	7292.1	
652.92	7251.9	
653.11	9191.3	
653.29	9277.3	
653.48	6665.5	
653.67	7547.4	
653.85	8971.5	
654.04	9758.6	
654.23	7644.4	
654.42	7283.3	
654.6	8527.7	
654.79	9056.8	
654.98	6771.3	
655.16	7102.4	
655.35	8109.3	
655.54	8020.5	
655.73	6750.1	
655.91	6626.5	
656.1	8976.2	
656.29	7952.9	
656.47	6350.8	
656.66	7783	
656.85	8330.5	
657.03	8364.6	
657.22	6922.1	
657.41	6943.3	
657.59	8520.9	
657.78	8271.7	
657.97	6701.6	
658.16	7310.6	
658.34	9013.8	
658.53	9458.9	
658.72	8066.3	
658.9	8442.4	
659.09	8572.8	
659.28	8576.2	
659.46	7088.7	
659.65	7161.7	
659.84	8446.5	
660.02	8850	
660.21	6965.1	
660.4	6958.3	
660.58	9205.6	
660.77	8666.3	
660.96	7513.3	
661.14	6711.9	
661.33	9706	
661.52	9573.6	
661.7	6683.9	
661.89	9663	
662.08	8373.5	
662.26	7993.2	
662.45	6882.5	
662.64	6965.1	
662.82	8900.5	
663.01	8371.4	
663.2	6926.9	
663.38	7604.8	
663.57	8871.1	
663.75	8716.8	
663.94	7163.1	
664.13	8299.1	
664.31	8359.8	
664.5	8961.9	
664.69	7504.4	
664.87	7859.4	
665.06	8015.1	
665.25	8800.8	
665.43	8062.9	
665.62	8017.8	
665.8	8929.1	
665.99	8389.8	
666.18	7244.3	
666.36	7335.1	
666.55	9045.9	
666.74	8774.9	
666.92	6872.3	
667.11	8247.2	
667.29	8445.8	
667.48	8885.5	
667.67	7883.3	
667.85	7045.7	
668.04	8426.7	
668.22	8427.4	
668.41	7271	
668.6	7363.1	
668.78	8260.1	
668.97	8409.6	
669.15	7546.1	
669.34	6641.6	
669.53	8230.1	
669.71	8635.6	
669.9	6886.6	
670.08	7300.3	
670.27	8217.1	
670.46	8686.8	
670.64	7460.1	
670.83	7763.8	
671.01	7991.2	
671.2	8551	
671.38	6870.9	
671.57	6747.4	
671.76	9200.8	
671.94	9624.8	
672.13	6714.6	
672.31	7582.9	
672.5	8831.5	
672.69	8193.9	
672.87	6825.2	
673.06	7120.1	
673.24	8696.4	
673.43	8259.5	
673.61	7436.9	
673.8	7065.5	
673.98	8794.7	
674.17	8897.1	
674.36	7593.9	
674.54	7464.2	
674.73	8442.4	
674.91	8792.6	
675.1	7141.3	
675.28	6811.5	
675.47	8447.2	
675.65	8834.3	
675.84	7078.5	
676.03	7322.9	
676.21	8270.4	
676.4	7800	
676.58	7718.1	
676.77	7577.5	
676.95	9472.5	
677.14	8202.1	
677.32	6792.4	
677.51	6623.1	
677.69	8901.2	
677.88	7940	
678.06	6642.9	
678.25	6762.4	
678.44	8372.8	
678.62	8153.6	
678.81	6470.2	
678.99	7382.2	
679.18	9065.7	
679.36	8702.5	
679.55	7012.9	
679.73	7613	
679.92	8659.5	
680.1	8263.6	
680.29	8033.5	
680.47	6972.7	
680.66	8239	
680.84	8873.8	
681.03	6467.5	
681.21	7367.2	
681.4	8205.5	
681.58	8056	
681.77	6827.9	
681.95	6759	
682.14	8895	
682.32	9104.6	
682.51	7546.1	
682.69	6545.3	
682.88	8077.2	
683.06	8615.1	
683.25	7283.3	
683.43	7637.6	
683.62	8376.9	
683.8	8642.4	
683.99	7774.1	
684.17	7180.2	
684.36	9361.3	
684.54	8159.8	
684.73	6366.5	
684.91	6483.2	
685.1	8313.4	
685.28	7694.9	
685.46	6696.9	
685.65	6744	
685.83	8310	
686.02	7727.7	
686.2	6229.9	
686.39	6455.2	
686.57	7644.4	
686.76	8897.1	
686.94	6427.2	
687.13	6559.6	
687.31	8316.1	
687.5	7914.7	
687.68	6094.8	
687.86	7139.2	
688.05	9392.7	
688.23	7518.8	
688.42	7234.8	
688.6	6534.4	
688.79	7831.4	
688.97	7844.4	
689.16	6934.4	
689.34	6066.1	
689.52	8490.9	
689.71	8720.3	
689.89	7094.8	
690.08	6584.2	
690.26	8146.1	
690.45	8004.8	
690.63	7251.9	
690.81	6679.1	
691	7935.9	
691.18	7849.9	
691.37	6820.4	
691.55	8578.9	
691.74	7706.5	
691.92	9494.4	
692.1	6679.8	
692.29	6260.6	
692.47	8012.3	
692.66	7358.4	
692.84	6487.3	
693.02	6892.1	
693.21	7518.1	
693.39	7983.7	
693.58	7152.2	
693.76	6650.4	
693.94	9053.4	
694.13	8888.2	
694.31	6666.8	
694.5	7602.7	
694.68	7930.4	
694.86	8333.9	
695.05	6991.8	
695.23	7207.5	
695.42	8686.8	
695.6	10617	
695.78	7646.4	
695.97	6815.6	
696.15	8733.2	
696.34	8148.9	
696.52	6610.8	
696.7	7366.5	
696.89	8430.8	
697.07	7838.3	
697.25	7151.5	
697.44	8474.5	
697.62	8368.7	
697.81	8635.6	
697.99	6878.4	
698.17	7326.9	
698.36	7769.3	
698.54	8382.3	
698.72	7230.7	
698.91	6416.3	
699.09	8042.4	
699.28	7894.2	
699.46	6909.8	
699.64	6733.7	
699.83	7858.1	
700.01	8800.1	
700.19	7542.7	
700.38	6139.8	
700.56	8921.6	
700.74	8118.1	
700.93	6468.2	
701.11	7333.8	
701.29	8558.5	
701.48	9512.8	
701.66	6778.1	
701.84	6888.7	
702.03	8202.8	
702.21	8926.4	
702.39	6539.8	
702.58	6961.7	
702.76	8558.5	
702.94	8687.5	
703.13	6490	
703.31	8591.9	
703.49	8113.4	
703.68	9146.2	
703.86	6722.8	
704.04	7589.1	
704.23	8531.2	
704.41	8824	
704.59	6898.9	
704.78	7827.3	
704.96	9375.6	
705.14	8849.3	
705.33	6722.1	
705.51	7392.5	
705.69	8282	
705.87	9064.3	
706.06	7615.7	
706.24	6631.3	
706.42	8545.5	
706.61	8863.6	
706.79	7652.6	
706.97	6681.2	
707.16	8135.9	
707.34	8723.7	
707.52	7582.3	
707.7	6959.7	
707.89	8372.1	
708.07	8017.1	
708.25	7665.5	
708.44	7802.1	
708.62	8208.9	
708.8	9218.6	
708.98	7958.4	
709.17	7047.1	
709.35	8583	
709.53	8602.8	
709.72	6767.9	
709.9	7094.2	
710.08	8817.9	
710.26	8910.7	
710.45	8092.9	
710.63	7045.7	
710.81	8453.3	
710.99	8455.4	
711.18	7494.2	
711.36	7010.9	
711.54	8325	
711.72	9002.2	
711.91	7059.3	
712.09	6613.6	
712.27	8388.5	
712.45	9213.8	
712.64	7176.1	
712.82	6369.9	
713	7893.6	
713.18	7908.6	
713.37	6367.1	
713.55	7379.5	
713.73	8564.6	
713.91	7367.9	
714.1	6477	
714.28	5958.2	
714.46	8079.2	
714.64	7286.7	
714.83	5380	
715.01	5969.8	
715.19	7279.8	
715.37	6602.7	
715.55	5607.3	
715.74	5954.8	
715.92	7899.7	
716.1	6202.6	
716.28	6780.8	
716.47	5977.3	
716.65	6841.6	
716.83	6810.2	
717.01	5772.5	
717.19	5791.7	
717.38	8582.4	
717.56	6588.3	
717.74	6034	
717.92	5395	
718.1	7763.2	
718.29	7066.2	
718.47	5163.6	
718.65	5769.8	
718.83	7804.1	
719.01	7782.3	
719.2	5231.9	
719.38	6185.5	
719.56	7562.5	
719.74	8971.5	
719.92	5884.5	
720.11	6778.1	
720.29	7564.5	
720.47	6737.8	
720.65	5285.1	
720.83	5991.7	
721.02	7019.1	
721.2	6756.9	
721.38	5967.8	
721.56	5287.2	
721.74	6272.9	
721.92	6430.6	
722.11	6356.2	
722.29	6126.2	
722.47	7481.2	
722.65	6793.8	
722.83	5386.8	
723.01	6047.7	
723.2	6861.4	
723.38	7082.6	
723.56	4876.9	
723.74	5879.7	
723.92	6447.7	
724.1	7423.2	
724.29	5307.7	
724.47	6218.3	
724.65	6530.3	
724.83	6384.2	
725.01	5181.4	
725.19	5897.5	
725.37	6487.3	
725.56	6530.3	
725.74	5121.3	
725.92	5306.3	
726.1	6459.3	
726.28	6709.8	
726.46	5601.2	
726.64	5319.3	
726.83	6677.7	
727.01	6868.2	
727.19	5018.9	
727.37	5713.2	
727.55	6765.1	
727.73	7232.1	
727.91	5008	
728.09	4921.3	
728.28	7334.5	
728.46	7519.5	
728.64	5903.6	
728.82	5814.9	
729	8247.2	
729.18	7551.5	
729.36	5294.7	
729.54	7138.5	
729.72	8568	
729.91	7127.6	
730.09	6962.4	
730.27	5892.7	
730.45	7088.7	
730.63	7576.8	
730.81	6478.4	
730.99	5594.4	
731.17	8081.3	
731.35	6858.6	
731.53	6102.9	
731.71	5766.4	
731.9	7795.3	
732.08	7949.5	
732.26	5999.9	
732.44	5681.1	
732.62	8023.3	
732.8	7483.3	
732.98	6376.7	
733.16	5437.4	
733.34	7553.6	
733.52	6505.7	
733.7	5797.8	
733.88	6030.6	
734.07	7292.8	
734.25	7226.6	
734.43	5436	
734.61	6764.4	
734.79	8389.2	
734.97	6991.1	
735.15	5579.3	
735.33	5905	
735.51	7365.9	
735.69	6997.9	
735.87	6733.7	
736.05	6066.8	
736.23	7197.2	
736.41	7053.9	
736.59	5789.6	
736.77	5883.1	
736.95	7617.1	
737.13	7060	
737.32	5606.7	
737.5	5847	
737.68	8096.3	
737.86	6980.2	
738.04	5415.5	
738.22	6956.9	
738.4	6907.1	
738.58	7111.2	
738.76	5925.5	
738.94	5072.8	
739.12	6935.1	
739.3	6827.9	
739.48	6453.1	
739.66	6228.6	
739.84	7253.2	
740.02	7143.3	
740.2	5153.4	
740.38	5492.7	
740.56	7492.2	
740.74	6468.2	
740.92	6002.6	
741.1	5883.1	
741.28	6917.4	
741.46	6777.4	
741.64	5532.2	
741.82	6023.8	
742	6996.5	
742.18	6913.3	
742.36	5715.2	
742.54	5420.3	
742.72	7533.8	
742.9	6350.1	
743.08	6061.3	
743.26	4997.7	
743.44	7527.7	
743.62	7408.2	
743.8	6085.9	
743.98	5347.2	
744.16	7231.4	
744.34	6898.9	
744.52	6027.9	
744.7	5968.5	
744.88	7274.4	
745.06	6862.1	
745.24	6016.9	
745.42	6047	
745.6	7363.1	
745.78	7151.5	
745.96	5081.7	
746.14	5313.8	
746.32	7936.6	
746.5	7197.2	
746.68	5676.3	
746.86	5223	
747.03	7559.1	
747.21	6208.1	
747.39	5704.3	
747.57	5245.5	
747.75	6827.2	
747.93	7221.8	
748.11	5177.3	
748.29	5134.3	
748.47	8227.4	
748.65	6668.9	
748.83	5803.3	
749.01	5614.8	
749.19	7054.6	
749.37	6342.6	
749.55	5498.8	
749.73	5528.8	
749.91	6767.9	
750.09	6589	
750.26	5606	
750.44	5053.7	
750.62	6829.3	
750.8	6743.3	
750.98	4939.7	
751.16	5180.7	
751.34	6815.6	
751.52	6242.9	
751.7	5881.1	
751.88	4863.2	
752.06	7190.4	
752.24	6919.4	
752.42	4831.8	
752.59	5160.2	
752.77	6621.8	
752.95	7725.6	
753.13	5823.7	
753.31	5210	
753.49	6393.8	
753.67	6810.2	
753.85	5479.7	
754.03	4970.4	
754.21	6964.5	
754.38	7235.5	
754.56	5146.5	
754.74	4354.7	
754.92	6185.5	
755.1	6822.5	
755.28	4293.9	
755.46	4287.8	
755.64	7223.2	
755.82	7262.8	
755.99	4199	
756.17	4303.5	
756.35	4922	
756.53	6278.4	
756.71	3229.6	
756.89	4012	
757.07	5856.5	
757.25	5099.4	
757.42	4517.1	
757.6	5272.2	
757.78	6066.8	
757.96	5240.1	
758.14	4414.7	
758.32	3989.4	
758.5	4772.4	
758.67	5522	
758.85	4216.8	
759.03	4213.4	
759.21	5662	
759.39	5165	
759.57	3757.3	
759.75	4798.4	
759.92	6213.5	
760.1	5670.8	
760.28	5117.2	
760.46	5371.8	
760.64	5515.9	
760.82	5323.4	
760.99	5027.1	
761.17	4323.3	
761.35	6206	
761.53	5388.9	
761.71	4468	
761.89	5128.8	
762.06	6128.9	
762.24	5760.3	
762.42	4702.8	
762.6	4419.5	
762.78	5765.7	
762.96	6331	
763.13	4981.3	
763.31	4674.1	
763.49	6507.1	
763.67	5756.2	
763.85	5459.2	
764.02	5910.4	
764.2	6779.5	
764.38	6026.5	
764.56	4628.4	
764.74	5316.5	
764.91	6799.3	
765.09	5802.6	
765.27	4342.4	
765.45	4190.8	
765.63	6827.2	
765.8	6670.2	
765.98	3913	
766.16	4219.5	
766.34	5468.1	
766.52	5332.2	
766.69	4974.5	
766.87	4069.3	
767.05	5792.3	
767.23	6372.6	
767.41	4309.6	
767.58	4468.7	
767.76	6301.6	
767.94	6350.8	
768.12	4317.8	
768.29	4973.8	
768.47	5747.3	
768.65	6463.4	
768.83	3977.8	
769	5038	
769.18	5401.2	
769.36	6038.1	
769.54	4947.2	
769.72	4031.8	
769.89	6308.4	
770.07	6318	
770.25	4326.7	
770.43	5308.3	
770.6	6870.9	
770.78	7161.1	
770.96	4432.5	
771.14	4992.9	
771.31	6197.2	
771.49	5547.3	
771.67	3665.2	
771.85	3938.2	
772.02	4934.9	
772.2	5539.8	
772.38	4593.6	
772.55	4085	
772.73	5810.1	
772.91	5589.6	
773.09	4420.2	
773.26	4478.9	
773.44	5696.1	
773.62	5459.9	
773.8	3985.3	
773.97	3770.3	
774.15	5847	
774.33	5429.2	
774.5	3906.8	
774.68	4128.7	
774.86	5913.9	
775.04	5476.3	
775.21	3897.3	
775.39	3890.5	
775.57	5702.2	
775.74	5974.6	
775.92	3747.8	
776.1	3691.1	
776.27	5612.8	
776.45	6615.6	
776.63	3910.9	
776.81	3461.7	
776.98	5358.9	
777.16	6213.5	
777.34	3975.1	
777.51	4164.2	
777.69	5298.8	
777.87	5089.2	
778.04	4058.4	
778.22	4487.8	
778.4	5135.6	
778.57	5708.4	
778.75	3370.3	
778.93	3631	
779.1	4906.3	
779.28	4799.8	
779.46	3355.9	
779.64	3766.2	
779.81	5829.9	
779.99	6475	
780.17	4427	
780.34	4512.4	
780.52	5287.9	
780.69	5460.6	
780.87	4059.1	
781.05	3668.6	
781.22	5354.8	
781.4	5447.6	
781.58	3841.3	
781.75	3087.7	
781.93	5383.4	
782.11	4780	
782.28	4512.4	
782.46	3724.6	
782.64	4764.9	
782.81	5537	
782.99	3823.6	
783.17	3795.6	
783.34	5394.3	
783.52	4743.1	
783.69	3960.8	
783.87	4642.1	
784.05	4928.1	
784.22	4803.2	
784.4	4638	
784.58	4016.7	
784.75	5594.4	
784.93	4851	
785.1	3745.1	
785.28	4234.5	
785.46	5415.5	
785.63	4769.7	
785.81	3715	
785.99	3590.8	
786.16	5010	
786.34	5248.9	
786.51	3659	
786.69	3975.8	
786.87	4536.3	
787.04	5033.2	
787.22	3487.7	
787.39	4326	
787.57	4782.7	
787.75	5695.4	
787.92	4465.9	
788.1	4321.2	
788.27	4799.1	
788.45	4573.1	
788.63	4149.2	
788.8	3041.2	
788.98	5255.8	
789.15	4489.1	
789.33	3160	
789.5	3687	
789.68	5634.6	
789.86	5662	
790.03	4072.7	
790.21	3569.6	
790.38	5634	
790.56	4905.6	
790.73	3481.5	
790.91	3495.9	
791.09	4767	
791.26	5378.6	
791.44	3741.6	
791.61	3220.1	
791.79	4756.7	
791.96	4782	
792.14	3300	
792.32	2945.7	
792.49	4715.1	
792.67	4928.8	
792.84	3348.4	
793.02	3163.4	
793.19	5169.1	
793.37	5760.9	
793.54	2882.2	
793.72	3287	
793.89	5821	
794.07	4729.4	
794.25	3674.7	
794.42	2990.7	
794.6	5660.6	
794.77	5329.5	
794.95	4022.9	
795.12	3497.2	
795.3	4771.1	
795.47	5275.6	
795.65	3857	
795.82	3697.3	
796	4586.8	
796.17	6182.8	
796.35	3565.5	
796.52	4197	
796.7	5191.6	
796.87	5358.9	
797.05	3583.9	
797.22	4337.6	
797.4	5279.7	
797.57	6120	
797.75	3652.9	
797.92	3458.3	
798.1	5546.6	
798.27	4655	
798.45	3066.5	
798.62	3235.8	
798.8	5023	
798.97	5491.3	
799.15	3850.9	
799.32	3733.4	
799.5	4384.7	
799.67	5045.5	
799.85	4027	
800.02	2965.5	
800.2	4700.1	
800.37	4961.5	
800.55	4141.7	
800.72	3524.6	
800.9	5427.8	
801.07	5735.7	
801.25	4587.4	
801.42	3907.5	
801.6	5382.7	
801.77	5106.3	
801.95	3517.7	
802.12	3449.5	
802.29	5194.3	
802.47	5117.2	
802.64	3834.5	
802.82	2909.5	
802.99	4709	
803.17	5546.6	
803.34	3708.9	
803.52	3321.8	
803.69	6070.9	
803.87	4500.8	
804.04	3695.9	
804.21	3779.2	
804.39	5666	
804.56	4913.1	
804.74	3185.3	
804.91	3835.8	
805.09	4696.7	
805.26	4725.3	
805.44	3213.9	
805.61	3559.4	
805.78	5334.3	
805.96	5287.9	
806.13	3833.1	
806.31	4087.1	
806.48	4360.1	
806.66	4788.2	
806.83	3809.2	
807	3732.8	
807.18	4752	
807.35	5036	
807.53	3683.6	
807.7	2970.9	
807.87	5710.4	
808.05	4739.7	
808.22	4080.2	
808.4	3011.2	
808.57	4677.6	
808.74	4425	
808.92	3408.5	
809.09	4305.5	
809.27	4657.8	
809.44	5181.4	
809.61	3008.5	
809.79	3343	
809.96	5739.1	
810.14	5328.8	
810.31	2910.8	
810.48	3604.4	
810.66	4793.6	
810.83	5406	
811.01	3366.2	
811.18	3724.6	
811.35	5394.3	
811.53	4214	
811.7	4134.2	
811.87	3751.2	
812.05	4754	
812.22	4626.4	
812.39	3299.3	
812.57	3223.5	
812.74	4786.8	
812.92	6146.6	
813.09	3551.2	
813.26	3903.4	
813.44	5919.3	
813.61	4582	
813.78	3005.7	
813.96	3933.5	
814.13	4794.3	
814.3	4440.7	
814.48	4272.1	
814.65	3556.6	
814.82	5941.8	
815	4523.3	
815.17	3659	
815.34	4407.9	
815.52	4650.3	
815.69	4697.4	
815.87	3607.8	
816.04	3592.8	
816.21	4693.9	
816.38	4224.3	
816.56	3500.7	
816.73	3269.9	
816.9	5928.2	
817.08	5304.9	
817.25	3358	
817.42	4166.9	
817.6	4365.6	
817.77	4689.2	
817.94	3697.3	
818.12	3254.2	
818.29	4553.3	
818.46	6762.4	
818.64	3468.6	
818.81	3218.7	
818.98	4446.1	
819.16	6292.7	
819.33	3947.8	
819.5	3652.9	
819.67	5111.7	
819.85	5592.3	
820.02	3593.5	
820.19	3807.2	
820.37	4948.6	
820.54	4628.4	
820.71	3693.9	
820.88	4496.7	
821.06	4889.2	
821.23	4571.7	
821.4	3759.4	
821.58	3694.5	
821.75	5335.6	
821.92	4834.6	
822.09	3037.8	
822.27	3133.4	
822.44	4745.1	
822.61	4644.8	
822.79	3069.9	
822.96	5648.3	
823.13	5087.2	
823.3	4473.4	
823.48	3433.1	
823.65	3154.6	
823.82	5337	
823.99	4365.6	
824.17	4372.4	
824.34	3227.6	
824.51	6122.1	
824.68	4770.4	
824.86	3325.9	
825.03	3681.6	
825.2	4724	
825.37	5595.1	
825.55	3269.9	
825.72	3609.9	
825.89	6170.5	
826.06	5720	
826.24	3548.4	
826.41	3591.5	
826.58	5687.2	
826.75	4956.1	
826.92	2859.6	
827.1	3159.3	
827.27	7595.2	
827.44	6134.3	
827.61	3374.4	
827.79	4065.2	
827.96	4525.3	
828.13	4786.1	
828.3	3563.5	
828.47	2968.2	
828.65	4989.5	
828.82	4924	
828.99	4539	
829.16	3944.4	
829.34	5272.2	
829.51	5121.3	
829.68	3665.2	
829.85	3772.4	
830.02	5592.3	
830.2	5327.4	
830.37	2888.3	
830.54	4344.4	
830.71	5974.6	
830.88	4703.5	
831.05	2883.5	
831.23	3315.7	
831.4	5776	
831.57	6357.6	
831.74	3370.3	
831.91	3002.3	
832.09	5013.4	
832.26	5208.7	
832.43	3433.8	
832.6	3867.2	
832.77	4981.3	
832.94	5598.5	
833.12	2849.4	
833.29	3488.4	
833.46	5072.1	
833.63	6517.3	
833.8	3803.8	
833.97	3457	
834.15	5384.1	
834.32	5054.4	
834.49	3626.3	
834.66	3661.1	
834.83	5422.3	
835	4569	
835.17	3411.2	
835.35	3396.2	
835.52	5192.3	
835.69	5045.5	
835.86	3508.9	
836.03	2937.5	
836.2	5248.3	
836.37	4930.8	
836.55	3499.3	
836.72	3274	
836.89	4915.8	
837.06	5367	
837.23	3569.6	
837.4	3814.7	
837.57	5954.1	
837.75	6489.3	
837.92	3194.1	
838.09	3438.5	
838.26	4901.5	
838.43	5517.9	
838.6	3687	
838.77	3318.4	
838.94	6303.6	
839.11	5932.3	
839.29	3526.6	
839.46	2797.5	
839.63	5307.7	
839.8	4996.4	
839.97	3372.3	
840.14	3370.3	
840.31	5130.2	
840.48	5298.1	
840.65	2834.4	
840.82	3374.4	
841	5254.4	
841.17	5160.9	
841.34	3112.2	
841.51	3166.2	
841.68	5199.8	
841.85	4964.3	
842.02	3234.4	
842.19	2767.5	
842.36	5081.7	
842.53	5045.5	
842.7	3166.2	
842.87	3798.3	
843.05	6494.8	
843.22	5000.5	
843.39	2983.9	
843.56	3256.3	
843.73	4806.6	
843.9	5327.4	
844.07	5000.5	
844.24	4092.5	
844.41	7408.9	
844.58	4570.4	
844.75	3022.1	
844.92	3254.2	
845.09	5252.4	
845.26	5273.5	
845.43	3136.1	
845.6	3287.7	
845.77	5284.4	
845.94	5041.4	
846.12	3448.1	
846.29	3652.2	
846.46	5489.9	
846.63	5213.4	
846.8	3154.6	
846.97	3670	
847.14	5694	
847.31	5203.9	
847.48	3532.1	
847.65	3844	
847.82	5531.6	
847.99	5410.7	
848.16	4115.7	
848.33	3817.4	
848.5	4831.2	
848.67	5649.7	
848.84	3082.9	
849.01	3224.9	
849.18	4770.4	
849.35	4474.1	
849.52	3860.4	
849.69	3047.4	
849.86	5383.4	
850.03	5626.5	
850.2	3094.5	
850.37	3785.3	
850.54	5529.5	
850.71	4959.5	
850.88	3734.8	
851.05	3074	
851.22	5177.3	
851.39	5645.6	
851.56	2970.9	
851.73	3555.3	
851.9	4653	
852.07	5453.7	
852.24	3405.1	
852.41	3063.8	
852.58	5186.1	
852.75	4678.2	
852.92	3465.8	
853.09	3102	
853.26	4847.5	
853.43	5620.3	
853.6	3082.2	
853.77	2689.7	
853.94	5696.1	
854.11	5199.1	
854.28	4501.4	
854.44	3376.4	
854.61	6036.7	
854.78	5536.3	
854.95	3098.6	
855.12	3834.5	
855.29	4293.9	
855.46	5601.2	
855.63	3123.8	
855.8	4239.3	
855.97	4885.1	
856.14	5524.7	
856.31	4316.4	
856.48	3334.8	
856.65	4863.2	
856.82	4614.8	
856.99	2996.9	
857.16	3347.1	
857.33	6309.8	
857.49	4951.3	
857.66	3309.5	
857.83	3603.1	
858	4929.5	
858.17	5093.3	
858.34	2938.2	
858.51	3149.8	
858.68	5826.5	
858.85	5808	
859.02	3568.9	
859.19	3832.4	
859.36	4677.6	
859.52	4732.9	
859.69	3118.4	
859.86	3601	
860.03	4654.4	
860.2	5660.6	
860.37	2839.8	
860.54	3152.5	
860.71	5464.7	
860.88	5809.4	
861.05	3492.5	
861.21	3937.6	
861.38	5833.3	
861.55	4498	
861.72	2871.3	
861.89	3467.9	
862.06	5494	
862.23	5806	
862.4	3044	
862.56	3206.4	
862.73	5347.9	
862.9	5068	
863.07	3547.8	
863.24	2855.6	
863.41	4542.4	
863.58	4644.8	
863.75	3193.5	
863.91	3566.9	
864.08	5678.3	
864.25	5382.1	
864.42	3906.2	
864.59	4292.5	
864.76	6017.6	
864.93	4654.4	
865.09	3050.8	
865.26	3335.5	
865.43	5682.4	
865.6	5958.9	
865.77	2719.7	
865.94	3063.1	
866.1	5659.2	
866.27	5431.9	
866.44	4650.3	
866.61	2991.4	
866.78	4977.2	
866.95	5283.8	
867.11	3013.9	
867.28	2732	
867.45	5546.6	
867.62	4704.9	
867.79	3549.1	
867.96	3095.8	
868.12	4663.2	
868.29	5393.7	
868.46	2764.1	
868.63	4116.4	
868.8	5540.4	
868.97	5358.2	
869.13	3246.7	
869.3	3243.3	
869.47	5294	
869.64	5553.4	
869.81	3128.6	
869.97	3102.7	
870.14	5279.7	
870.31	5741.1	
870.48	3029.6	
870.65	3867.2	
870.81	4960.2	
870.98	4974.5	
871.15	3505.4	
871.32	3183.2	
871.48	5316.5	
871.65	5789.6	
871.82	3075.4	
871.99	3374.4	
872.16	6232.7	
872.32	5634	
872.49	3142.9	
872.66	3132.7	
872.83	5435.3	
872.99	4788.2	
873.16	3570.3	
873.33	3076	
873.5	5096.7	
873.67	5133.6	
873.83	3267.2	
874	4076.8	
874.17	5216.9	
874.34	6078.4	
874.5	3953.3	
874.67	3787.4	
874.84	5754.8	
875.01	4536.3	
875.17	4279.6	
875.34	3106.8	
875.51	5164.3	
875.68	6149.4	
875.84	3721.8	
876.01	4461.2	
876.18	5386.2	
876.34	5323.4	
876.51	3113.6	
876.68	3074.7	
876.85	4969.7	
877.01	5661.3	
877.18	4312.3	
877.35	3129.3	
877.52	5139.7	
877.68	4579.9	
877.85	3082.2	
878.02	3007.1	
878.18	4946.5	
878.35	4816.8	
878.52	2547.7	
878.69	3448.8	
878.85	5472.2	
879.02	5362.9	
879.19	4331.5	
879.35	3342.3	
879.52	5383.4	
879.69	5563	
879.86	2718.3	
880.02	3443.3	
880.19	5065.3	
880.36	6021	
880.52	3541.6	
880.69	3666.5	
880.86	5491.3	
881.02	5551.4	
881.19	3416	
881.36	3354.6	
881.52	5385.5	
881.69	4749.2	
881.86	3315	
882.02	3270.6	
882.19	5608	
882.36	6488.6	
882.52	3160	
882.69	4308.9	
882.86	5192.3	
883.02	5125.4	
883.19	3741.6	
883.36	3522.5	
883.52	5489.9	
883.69	6171.9	
883.86	3115.6	
884.02	2848.7	
884.19	5450.3	
884.36	5089.2	
884.52	3447.4	
884.69	3286.3	
884.86	4850.3	
885.02	5902.9	
885.19	3461.7	
885.36	3545	
885.52	5023.7	
885.69	5224.4	
885.86	4420.2	
886.02	3915	
886.19	5491.3	
886.35	4945.2	
886.52	3416	
886.69	4299.4	
886.85	4667.3	
887.02	5658.5	
887.19	5658.5	
887.35	5658.5	
887.52	5658.5	
887.68	5658.5	
887.85	5658.5	
888.02	5658.5	
888.18	5658.5	
888.35	5658.5	
888.51	5658.5	
888.68	5658.5	
888.85	5658.5	
889.01	5658.5	
889.18	5658.5	
889.35	5658.5	
889.51	5658.5	
889.68	5658.5	
889.84	5658.5	
890.01	5658.5	
890.17	5658.5	
890.34	5658.5	
890.51	5658.5	
890.67	5658.5	
890.84	5658.5	
891	5658.5	
891.17	5658.5	
891.34	5658.5	
891.5	5658.5	
891.67	5658.5	
891.83	5658.5	
892	5658.5	
892.16	5658.5	
892.33	5658.5	
892.5	5658.5	
892.66	5658.5	
892.83	5658.5	
892.99	5658.5	
893.16	5658.5	
893.32	5658.5	
893.49	5658.5	
893.65	5658.5	
893.82	5658.5	
893.99	5658.5	
894.15	5658.5	
894.32	5658.5	
894.48	5658.5	
894.65	5658.5	
894.81	5658.5	
894.98	5658.5	
895.14	5658.5	
895.31	5658.5	
895.47	5658.5	
895.64	5658.5	
895.81	5658.5	
895.97	5658.5	
896.14	5658.5	
896.3	5658.5	
896.47	5658.5	
896.63	5658.5	
896.8	5658.5	
896.96	5658.5	
897.13	5658.5	
897.29	5658.5	
897.46	5658.5	
897.62	5658.5	
897.79	5658.5	
897.95	5658.5	
898.12	5658.5	
898.28	5658.5	
898.45	5658.5	
898.61	5658.5	
898.78	5658.5	
898.94	5658.5	
899.11	5658.5	
899.27	5658.5	
899.44	5658.5	
899.6	5658.5	
899.77	5658.5	
899.93	5658.5	
900.1	5658.5	
900.26	5658.5	
900.43	5658.5	
900.59	5658.5	
900.76	5658.5	
900.92	5658.5	
901.09	5658.5	
901.25	5658.5	
901.42	5658.5	
901.58	5658.5	
901.75	5658.5	
901.91	5658.5	
902.07	5658.5	
902.24	5658.5	
902.4	5658.5	
902.57	5658.5	
902.73	5658.5	
902.9	5658.5	
903.06	5658.5	
903.23	5658.5	
903.39	5658.5	
903.56	5658.5	
903.72	5658.5	
903.88	5658.5	
904.05	5658.5	
904.21	5658.5	
904.38	5658.5	
904.54	5658.5	
904.71	5658.5	
904.87	5658.5	
905.03	5658.5	
905.2	5658.5	
905.36	5658.5	
905.53	5658.5	
905.69	5658.5	
905.86	5658.5	
906.02	5658.5	
906.18	5658.5	
906.35	5658.5	
906.51	5658.5	
906.68	5658.5	
906.84	5658.5	
907.01	5658.5	
907.17	5658.5	
907.33	5658.5	
907.5	5658.5	
907.66	5658.5	
907.83	5658.5	
907.99	5658.5	
908.15	5658.5	
908.32	5658.5	
908.48	5658.5	
908.65	5658.5	
908.81	5658.5	
908.97	5658.5	
909.14	5658.5	
909.3	5658.5	
909.47	5658.5	
909.63	5658.5	
909.79	5658.5	
909.96	5658.5	
910.12	5658.5	
910.28	5658.5	
910.45	5658.5	
910.61	5658.5	
910.78	5658.5	
910.94	5658.5	
911.1	5658.5	
911.27	5658.5	
911.43	5658.5	
911.59	5658.5	
911.76	5658.5	
911.92	5658.5	
912.08	5658.5	
912.25	5658.5	
912.41	5658.5	
912.57	5658.5	
912.74	5658.5	
912.9	5658.5	
913.07	5658.5	
913.23	5658.5	
913.39	5658.5	
913.56	5658.5	
913.72	5658.5	
913.88	5658.5	
914.05	5658.5	
914.21	5658.5	
914.37	5658.5	
914.54	5658.5	
914.7	5658.5	
914.86	5658.5	
915.03	5658.5	
915.19	5658.5	
