Wavelength	Intensities	
nm	a.u.	
179.22	1654.2	
179.44	1641.4	
179.65	1667	
179.86	1615.8	
180.08	1677.3	
180.29	3764.2	
180.51	2936.1	
180.72	4843.4	
180.94	5429.2	
181.15	2633	
181.37	2643.2	
181.58	4681.7	
181.79	4835.9	
182.01	2701.3	
182.22	2905.4	
182.44	4888.5	
182.65	4237.9	
182.87	3519.8	
183.08	3093.8	
183.29	5137	
183.51	4232.5	
183.72	2832.3	
183.94	3961.5	
184.15	4627	
184.37	4500.1	
184.58	2616.6	
184.79	3311.6	
185.01	4384	
185.22	4915.1	
185.44	3508.9	
185.65	3059	
185.86	4620.2	
186.08	4249.5	
186.29	2577	
186.51	2725.2	
186.72	4321.9	
186.94	5003.9	
187.15	3063.1	
187.36	3162.7	
187.58	6144.6	
187.79	4676.2	
188.01	3175	
188.22	4769	
188.43	5445.5	
188.65	4793.6	
188.86	2725.2	
189.08	3100.6	
189.29	4444.8	
189.5	4410.6	
189.72	2846	
189.93	3011.2	
190.15	5002.5	
190.36	5699.5	
190.57	3168.2	
190.79	3043.3	
191	4990.9	
191.22	4956.8	
191.43	3181.2	
191.64	2689	
191.86	5175.2	
192.07	4981.3	
192.29	2777.7	
192.5	2905.4	
192.71	4969.7	
192.93	4441.4	
193.14	2855.6	
193.35	3004.4	
193.57	4470.7	
193.78	4956.1	
194	2416.6	
194.21	2834.4	
194.42	4264.6	
194.64	4627	
194.85	3050.8	
195.07	3541.6	
195.28	4592.2	
195.49	4142.4	
195.71	3743	
195.92	2669.9	
196.13	4780	
196.35	4821.6	
196.56	3863.8	
196.78	3080.8	
196.99	5693.4	
197.2	5367.7	
197.42	3445.4	
197.63	3091.8	
197.84	4239.3	
198.06	4747.9	
198.27	2856.2	
198.48	3667.9	
198.7	4472.8	
198.91	4614.1	
199.13	3121.8	
199.34	3156.6	
199.55	4995.7	
199.77	4019.5	
199.98	2869.2	
200.19	3195.5	
200.41	4542.4	
200.62	4293.9	
200.83	3221.5	
201.05	3495.2	
201.26	4558.1	
201.47	4433.2	
201.69	2863.1	
201.9	2790	
202.11	4565.6	
202.33	5283.1	
202.54	2961.4	
202.76	3263.8	
202.97	4632.5	
203.18	4706.2	
203.4	3221.5	
203.61	3253.5	
203.82	4674.8	
204.04	4383.3	
204.25	3167.5	
204.46	3040.6	
204.68	4599.1	
204.89	4750.6	
205.1	3080.8	
205.32	2702.6	
205.53	4878.9	
205.74	4919.9	
205.96	2398.9	
206.17	3174.4	
206.38	4855.1	
206.6	5001.1	
206.81	3558.7	
207.02	2994.1	
207.24	4761.5	
207.45	5018.9	
207.66	2928.6	
207.88	2711.5	
208.09	4713.1	
208.3	4607.2	
208.52	2812.5	
208.73	3041.2	
208.94	4596.3	
209.15	5107	
209.37	2996.9	
209.58	3124.5	
209.79	4999.8	
210.01	4480.3	
210.22	2523.1	
210.43	2611.8	
210.65	4573.8	
210.86	4904.9	
211.07	3018	
211.29	2723.8	
211.5	4829.8	
211.71	4560.1	
211.93	2820.1	
212.14	2772.3	
212.35	4549.9	
212.56	4615.4	
212.78	3127.2	
212.99	2652.8	
213.2	5201.8	
213.42	4451.6	
213.63	2914.9	
213.84	3056.9	
214.06	4211.3	
214.27	4225	
214.48	2968.9	
214.69	3155.9	
214.91	5096	
215.12	5074.9	
215.33	3137.5	
215.55	3422.2	
215.76	5464	
215.97	4812	
216.18	3037.1	
216.4	3098.6	
216.61	4341	
216.82	4896.7	
217.04	2836.4	
217.25	2911.5	
217.46	4995.7	
217.67	4891.9	
217.89	2587.3	
218.1	2628.9	
218.31	4620.9	
218.53	4745.8	
218.74	2969.6	
218.95	2869.9	
219.16	4542.4	
219.38	5247.6	
219.59	2831.7	
219.8	3317.7	
220.01	5585.5	
220.23	4681	
220.44	3568.2	
220.65	2771.6	
220.87	4723.3	
221.08	4999.1	
221.29	2650.8	
221.5	3364.8	
221.72	5861.3	
221.93	4359.4	
222.14	3168.2	
222.35	3663.1	
222.57	4593.6	
222.78	4915.8	
222.99	3040.6	
223.2	3183.9	
223.42	4765.6	
223.63	4840	
223.84	2434.4	
224.05	2396.1	
224.27	5589.6	
224.48	5147.2	
224.69	3585.3	
224.9	3181.9	
225.12	4734.2	
225.33	4549.9	
225.54	2611.8	
225.75	2880.8	
225.97	4289.1	
226.18	4569.7	
226.39	3001.6	
226.6	2835.8	
226.82	4423.6	
227.03	4302.8	
227.24	3097.9	
227.45	2721.8	
227.67	4911	
227.88	5141.1	
228.09	3470.6	
228.3	3430.3	
228.52	4821.6	
228.73	4583.4	
228.94	2930	
229.15	2678.1	
229.36	4642.1	
229.58	4595.6	
229.79	2957.3	
230	3416	
230.21	5371.8	
230.43	4617.5	
230.64	3128.6	
230.85	3180.5	
231.06	4937.7	
231.28	4876.2	
231.49	2625.5	
231.7	3099.3	
231.91	4814.1	
232.12	4622.3	
232.34	2749.1	
232.55	2985.9	
232.76	5011.4	
232.97	4711	
233.18	2815.3	
233.4	3142.9	
233.61	4734.9	
233.82	4512.4	
234.03	2919	
234.25	2879.4	
234.46	5992.4	
234.67	4590.9	
234.88	3232.4	
235.09	2840.5	
235.31	4756.7	
235.52	4535.6	
235.73	3142.3	
235.94	2680.8	
236.15	4411.3	
236.37	5334.3	
236.58	2791.4	
236.79	2998.2	
237	4821.6	
237.21	4225.6	
237.43	3256.3	
237.64	2606.4	
237.85	7378.8	
238.06	4287.8	
238.27	3181.9	
238.48	2753.8	
238.7	4865.3	
238.91	4492.6	
239.12	3034.4	
239.33	3026.9	
239.54	4345.1	
239.76	4510.3	
239.97	3026.9	
240.18	3026.9	
240.39	5380	
240.6	4691.2	
240.82	3189.4	
241.03	2656.9	
241.24	4543.8	
241.45	5160.2	
241.66	2805.7	
241.87	3264.5	
242.09	5085.1	
242.3	5292.6	
242.51	3250.8	
242.72	2977.1	
242.93	4896	
243.14	4491.2	
243.36	3453.6	
243.57	3667.2	
243.78	5162.2	
243.99	4816.1	
244.2	2953.9	
244.41	2753.2	
244.63	4241.3	
244.84	4778.6	
245.05	3155.2	
245.26	2988.7	
245.47	4876.2	
245.68	4940.4	
245.9	3810.6	
246.11	3138.9	
246.32	4430.4	
246.53	4840.7	
246.74	4650.9	
246.95	2597.5	
247.16	4360.8	
247.38	4663.9	
247.59	2607.1	
247.8	3008.5	
248.01	4347.8	
248.22	4601.1	
248.43	2758.6	
248.64	3005.1	
248.86	4257.7	
249.07	4435.9	
249.28	2748.4	
249.49	3115.6	
249.7	4954	
249.91	4979.3	
250.12	2626.2	
250.34	2665.1	
250.55	4648.9	
250.76	4596.3	
250.97	3110.2	
251.18	3121.1	
251.39	4985.4	
251.6	4719.9	
251.81	3122.5	
252.03	3166.2	
252.24	4452.3	
252.45	4872.1	
252.66	2655.5	
252.87	3304.7	
253.08	4599.7	
253.29	5816.9	
253.5	2747.7	
253.72	3618.1	
253.93	4521.2	
254.14	5289.9	
254.35	2901.3	
254.56	2947	
254.77	4725.3	
254.98	4335.5	
255.19	2899.9	
255.41	3591.5	
255.62	4745.8	
255.83	5044.8	
256.04	3150.5	
256.25	3104.7	
256.46	5395.7	
256.67	4423.6	
256.88	3120.4	
257.09	3403.7	
257.31	4289.8	
257.52	4374.5	
257.73	3803.8	
257.94	2897.2	
258.15	4489.8	
258.36	4602.5	
258.57	3510.9	
258.78	2413.2	
258.99	4941.1	
259.2	4430.4	
259.41	2880.1	
259.63	2982.5	
259.84	5115.8	
260.05	5386.8	
260.26	3645.4	
260.47	2863.1	
260.68	4999.8	
260.89	4512.4	
261.1	3420.1	
261.31	2813.2	
261.52	5097.4	
261.73	5228.5	
261.95	3647.4	
262.16	3216.7	
262.37	5086.5	
262.58	5138.4	
262.79	3588.7	
263	2942.2	
263.21	4569.7	
263.42	4169.7	
263.63	3138.9	
263.84	2925.2	
264.05	4954.7	
264.26	5252.4	
264.47	3467.9	
264.69	3222.1	
264.9	5147.9	
265.11	4726	
265.32	2800.3	
265.53	2867.2	
265.74	4716.5	
265.95	4134.8	
266.16	3068.5	
266.37	3316.3	
266.58	4723.3	
266.79	4424.3	
267	2903.3	
267.21	2714.2	
267.42	4270.7	
267.63	4593.6	
267.84	2983.9	
268.06	2692.4	
268.27	4931.5	
268.48	5016.8	
268.69	3000.3	
268.9	3387.3	
269.11	5116.5	
269.32	4217.5	
269.53	3036.5	
269.74	2802.3	
269.95	4747.9	
270.16	4218.1	
270.37	3062.4	
270.58	3408.5	
270.79	4495.3	
271	4957.4	
271.21	3169.6	
271.42	3056.9	
271.63	4753.3	
271.84	4271.4	
272.05	2536.1	
272.26	2717	
272.47	4643.4	
272.68	4701.5	
272.89	2931.3	
273.11	3272.7	
273.32	4410	
273.53	5184.1	
273.74	3196.2	
273.95	3140.2	
274.16	4915.1	
274.37	4552.6	
274.58	3300.6	
274.79	2760.7	
275	4709	
275.21	4989.5	
275.42	3830.4	
275.63	3366.9	
275.84	4792.2	
276.05	5799.2	
276.26	3157.3	
276.47	2966.1	
276.68	4514.4	
276.89	5272.8	
277.1	3336.8	
277.31	2698.5	
277.52	4722.6	
277.73	5053.7	
277.94	2642.6	
278.15	2940.9	
278.36	4755.4	
278.57	4364.2	
278.78	2925.9	
278.99	3239.9	
279.2	4427.7	
279.41	4301.4	
279.62	3736.9	
279.83	2704	
280.04	5432.6	
280.25	4356	
280.46	3698.6	
280.67	3018	
280.88	4362.9	
281.09	5057.8	
281.3	3158.7	
281.51	3822.9	
281.72	4397.7	
281.93	4890.5	
282.14	2884.2	
282.35	3097.2	
282.56	4949.9	
282.77	4872.1	
282.98	2975	
283.19	3513.6	
283.4	5806.7	
283.61	4556.7	
283.82	2792.1	
284.03	3643.3	
284.24	4744.5	
284.45	5010.7	
284.66	3672.7	
284.87	3476.1	
285.08	4969.1	
285.29	5055.8	
285.5	2658.9	
285.71	2955.2	
285.92	4956.1	
286.12	5395	
286.33	3586	
286.54	3018.7	
286.75	4897.4	
286.96	4561.5	
287.17	2844.6	
287.38	3534.1	
287.59	4421.6	
287.8	4413.4	
288.01	2955.2	
288.22	3284.3	
288.43	4840.7	
288.64	4217.5	
288.85	3495.2	
289.06	3246.7	
289.27	4923.3	
289.48	5155.4	
289.69	3725.9	
289.9	3361.4	
290.11	5085.1	
290.32	4448.9	
290.53	3453.6	
290.74	3236.5	
290.94	4918.5	
291.15	4889.9	
291.36	2885.6	
291.57	3297.2	
291.78	4461.2	
291.99	4220.9	
292.2	2810.5	
292.41	3221.5	
292.62	4968.4	
292.83	4863.9	
293.04	3867.9	
293.25	2812.5	
293.46	4528.7	
293.67	4965	
293.88	2812.5	
294.09	2792.1	
294.29	4356.7	
294.5	4689.8	
294.71	3028.3	
294.92	2899.9	
295.13	4485.7	
295.34	5370.5	
295.55	2635.7	
295.76	2649.4	
295.97	4926.7	
296.18	5324	
296.39	2719	
296.6	2875.3	
296.81	4638	
297.01	4897.4	
297.22	2985.9	
297.43	2893.8	
297.64	4470.7	
297.85	4306.2	
298.06	2475.3	
298.27	2604.3	
298.48	4520.5	
298.69	4418.8	
298.9	3058.3	
299.11	2789.3	
299.31	4332.1	
299.52	4334.2	
299.73	3244.7	
299.94	3175	
300.15	4709	
300.36	4408.6	
300.57	3216.7	
300.78	3153.2	
300.99	4498.7	
301.2	4639.3	
301.4	2874	
301.61	3076	
301.82	4838.7	
302.03	4878.9	
302.24	3349.1	
302.45	2706.7	
302.66	4820.2	
302.87	4966.3	
303.08	2920.4	
303.29	3728	
303.49	4489.1	
303.7	4532.8	
303.91	2593.4	
304.12	3568.2	
304.33	4218.1	
304.54	4601.1	
304.75	2865.1	
304.96	2783.9	
305.16	4815.5	
305.37	5296.7	
305.58	2577	
305.79	2620	
306	4829.1	
306.21	4173.1	
306.42	2887	
306.63	4132.8	
306.83	4445.5	
307.04	4898.7	
307.25	3148.4	
307.46	3031	
307.67	4111.6	
307.88	4803.2	
308.09	2906.1	
308.29	2906.1	
308.5	4660.5	
308.71	4929.5	
308.92	3059.7	
309.13	2807.8	
309.34	4605.9	
309.55	4545.1	
309.75	3539.6	
309.96	3177.8	
310.17	4879.6	
310.38	4343.1	
310.59	3299.3	
310.8	2729.3	
311.01	5271.5	
311.21	4542.4	
311.42	2808.4	
311.63	2822.8	
311.84	4405.2	
312.05	4653.7	
312.26	3207.1	
312.46	3429.7	
312.67	4506.2	
312.88	4244.8	
313.09	2756.6	
313.3	2721.1	
313.51	5107.6	
313.71	5322	
313.92	2843.3	
314.13	2944.3	
314.34	4734.9	
314.55	4586.1	
314.76	3443.3	
314.96	3044.6	
315.17	4769	
315.38	4799.8	
315.59	2845.3	
315.8	2741.5	
316.01	5124	
316.21	5263.3	
316.42	2732.7	
316.63	3056.9	
316.84	4463.9	
317.05	4991.6	
317.26	3255.6	
317.46	2964.1	
317.67	4588.1	
317.88	4818.9	
318.09	3415.3	
318.3	2633.7	
318.5	4485.7	
318.71	4764.9	
318.92	4182.6	
319.13	3225.6	
319.34	4941.7	
319.54	5067.4	
319.75	2653.5	
319.96	2534.7	
320.17	4829.1	
320.38	4952.7	
320.58	2560.6	
320.79	3024.8	
321	5007.3	
321.21	5042.8	
321.42	3065.8	
321.62	2615.9	
321.83	4384	
322.04	4613.4	
322.25	2936.1	
322.46	2803	
322.66	4691.2	
322.87	4818.2	
323.08	3377.1	
323.29	2730.6	
323.5	5344.5	
323.7	4266.6	
323.91	3607.2	
324.12	3325.2	
324.33	4676.2	
324.53	4844.1	
324.74	3201	
324.95	3371.6	
325.16	4215.4	
325.37	4455	
325.57	2727.2	
325.78	2862.4	
325.99	4709	
326.2	4244.1	
326.4	3739.6	
326.61	2628.2	
326.82	4564.2	
327.03	4659.1	
327.24	3828.3	
327.44	3601	
327.65	4814.1	
327.86	4035.9	
328.07	3182.5	
328.27	2734.7	
328.48	5087.2	
328.69	4242.7	
328.9	3773.7	
329.1	2950.4	
329.31	4545.1	
329.52	5112.4	
329.73	2839.8	
329.93	3069.9	
330.14	4676.9	
330.35	4747.2	
330.56	4318.5	
330.76	3327.3	
330.97	4516.5	
331.18	4689.8	
331.39	3126.6	
331.59	2601.6	
331.8	5070.8	
332.01	5061.2	
332.22	2886.3	
332.42	3177.8	
332.63	4681.7	
332.84	4306.9	
333.05	3087	
333.25	2839.2	
333.46	4421.6	
333.67	4569	
333.88	2916.3	
334.08	3146.4	
334.29	5796.4	
334.5	4939.7	
334.7	2777.7	
334.91	3775.1	
335.12	4298.7	
335.33	4855.1	
335.53	3044	
335.74	4194.9	
335.95	4519.2	
336.16	4297.3	
336.36	3113.6	
336.57	3424.2	
336.78	4222.2	
336.98	4960.2	
337.19	3741.6	
337.4	3028.9	
337.61	5393.7	
337.81	4235.2	
338.02	2897.2	
338.23	3494.5	
338.43	5087.8	
338.64	4427.7	
338.85	2777	
339.05	3562.8	
339.26	5210	
339.47	4212	
339.68	2908.8	
339.88	3933.5	
340.09	4829.1	
340.3	4934.2	
340.5	3175	
340.71	2564.7	
340.92	4287.1	
341.13	5080.3	
341.33	2708.1	
341.54	3222.1	
341.75	4773.1	
341.95	4474.1	
342.16	3188	
342.37	3319.1	
342.57	4317.8	
342.78	4454.3	
342.99	3373	
343.19	2611.8	
343.4	4885.8	
343.61	4744.5	
343.81	3020.8	
344.02	2685.6	
344.23	4918.5	
344.43	5139.7	
344.64	3403.7	
344.85	3352.5	
345.06	4840	
345.26	5010	
345.47	3211.2	
345.68	3643.3	
345.88	4256.4	
346.09	4887.1	
346.3	3244.7	
346.5	2540.2	
346.71	4536.3	
346.92	4360.1	
347.12	2684.9	
347.33	3160.7	
347.54	4995.7	
347.74	5189.6	
347.95	3180.5	
348.16	2512.9	
348.36	4434.5	
348.57	4321.2	
348.78	3250.1	
348.98	3340.2	
349.19	4550.6	
349.39	4110.3	
349.6	2631	
349.81	2842.6	
350.01	4788.8	
350.22	4366.3	
350.43	3085.6	
350.63	3581.9	
350.84	4583.4	
351.05	4377.2	
351.25	2834.4	
351.46	2618	
351.67	4937.7	
351.87	4330.1	
352.08	2971.6	
352.29	3330	
352.49	4863.9	
352.7	4675.5	
352.9	2717.7	
353.11	3308.2	
353.32	5318.6	
353.52	4446.1	
353.73	2770.9	
353.94	3387.3	
354.14	4788.8	
354.35	4581.3	
354.55	2827.6	
354.76	3035.1	
354.97	4766.3	
355.17	4518.5	
355.38	2746.3	
355.59	3525.2	
355.79	4386.7	
356	4481	
356.2	2997.5	
356.41	2715.6	
356.62	4246.8	
356.82	4517.1	
357.03	3221.5	
357.24	2921.8	
357.44	4351.9	
357.65	4449.6	
357.85	3723.9	
358.06	3083.6	
358.27	4111.6	
358.47	4223.6	
358.68	2622.1	
358.88	3225.6	
359.09	4683.7	
359.3	4911.7	
359.5	3674.1	
359.71	3284.9	
359.91	5180	
360.12	4730.8	
360.33	3230.3	
360.53	3519.1	
360.74	4373.8	
360.94	4354.7	
361.15	3368.2	
361.36	2811.2	
361.56	4930.8	
361.77	4534.9	
361.97	3627	
362.18	2982.5	
362.38	4891.2	
362.59	4268	
362.8	2781.1	
363	2699.9	
363.21	4095.3	
363.41	4550.6	
363.62	3114.3	
363.83	3782.6	
364.03	4753.3	
364.24	5238	
364.44	3850.2	
364.65	3764.8	
364.85	4483	
365.06	4272.7	
365.27	2908.8	
365.47	2966.8	
365.68	5083.7	
365.88	4436.6	
366.09	3178.4	
366.29	2880.1	
366.5	4584.7	
366.71	4869.4	
366.91	3812.6	
367.12	3310.9	
367.32	5362.9	
367.53	4792.9	
367.73	3311.6	
367.94	3870.7	
368.14	4797	
368.35	5324	
368.56	3199.6	
368.76	3037.8	
368.97	4873.5	
369.17	5868.8	
369.38	2876	
369.58	3108.8	
369.79	4139.6	
369.99	5111	
370.2	3807.9	
370.4	3117	
370.61	4607.2	
370.82	5508.4	
371.02	3091.1	
371.23	2621.4	
371.43	4141	
371.64	5079	
371.84	3122.5	
372.05	3840.6	
372.25	5823.1	
372.46	4731.5	
372.66	3027.6	
372.87	3040.6	
373.07	4864.6	
373.28	5984.2	
373.48	3684.3	
373.69	3530.7	
373.9	4506.9	
374.1	4526.7	
374.31	3667.2	
374.51	3323.9	
374.72	5113.1	
374.92	4297.3	
375.13	3771.7	
375.33	3249.4	
375.54	4736.3	
375.74	4464.6	
375.95	3346.4	
376.15	4130.1	
376.36	4884.4	
376.56	4650.3	
376.77	3312.9	
376.97	3641.3	
377.18	5532.9	
377.38	4904.2	
377.59	3768.9	
377.79	3033	
378	4679.6	
378.2	4899.4	
378.41	3079.5	
378.61	2977.1	
378.82	4992.9	
379.02	4452.3	
379.23	3117.7	
379.43	3779.2	
379.64	5177.3	
379.84	4779.3	
380.05	3031	
380.25	3009.1	
380.46	4867.3	
380.66	4655.7	
380.87	3855	
381.07	4160.8	
381.28	5287.2	
381.48	4883	
381.69	3016.7	
381.89	3083.6	
382.1	4222.9	
382.3	4919.9	
382.51	3835.8	
382.71	4332.1	
382.91	4790.9	
383.12	5158.2	
383.32	3310.2	
383.53	3470.6	
383.73	4747.2	
383.94	4683	
384.14	3425.6	
384.35	2867.8	
384.55	4519.2	
384.76	4796.3	
384.96	3358.7	
385.17	3558.7	
385.37	4904.9	
385.58	4352.6	
385.78	3490.4	
385.98	2812.5	
386.19	4544.4	
386.39	4824.3	
386.6	3197.6	
386.8	3313.6	
387.01	4851.6	
387.21	4877.6	
387.42	3563.5	
387.62	3882.9	
387.83	4455	
388.03	4651.6	
388.23	3353.9	
388.44	3819.5	
388.64	4225.6	
388.85	4241.3	
389.05	3535.5	
389.26	3942.3	
389.46	5674.9	
389.67	5229.1	
389.87	3522.5	
390.07	3545	
390.28	4593.6	
390.48	4336.2	
390.69	3013.9	
390.89	3235.1	
391.1	4508.9	
391.3	5063.9	
391.5	4018.1	
391.71	4408.6	
391.91	5012.1	
392.12	5447.6	
392.32	4092.5	
392.53	3559.4	
392.73	4588.1	
392.93	4668.7	
393.14	3316.3	
393.34	3875.4	
393.55	4954	
393.75	4601.1	
393.95	3409.9	
394.16	3351.8	
394.36	4539	
394.57	4951.3	
394.77	3071.3	
394.98	3218.7	
395.18	4491.2	
395.38	4511	
395.59	3906.2	
395.79	3224.9	
396	4592.9	
396.2	4866	
396.4	3717.7	
396.61	3680.2	
396.81	4913.8	
397.02	4516.5	
397.22	3871.3	
397.42	3874.1	
397.63	5032.5	
397.83	4419.5	
398.04	3158.7	
398.24	3443.3	
398.44	4854.4	
398.65	4159.4	
398.85	3046.7	
399.05	3132	
399.26	4473.4	
399.46	5541.8	
399.67	3355.9	
399.87	3153.2	
400.07	4730.1	
400.28	4928.8	
400.48	3209.8	
400.69	3933.5	
400.89	5013.4	
401.09	5436.7	
401.3	3209.2	
401.5	3886.4	
401.7	5476.3	
401.91	5634.6	
402.11	3446	
402.32	3566.2	
402.52	5141.8	
402.72	5084.4	
402.93	3809.2	
403.13	2957.3	
403.33	5624.4	
403.54	4729.4	
403.74	3527.3	
403.94	4142.4	
404.15	4829.1	
404.35	5670.8	
404.56	3381.2	
404.76	4563.6	
404.96	5100.8	
405.17	4887.8	
405.37	4303.5	
405.57	3734.8	
405.78	5079	
405.98	4743.8	
406.18	3401.7	
406.39	3958.7	
406.59	5096.7	
406.79	4826.4	
407	3248.1	
407.2	3307.5	
407.4	5352.7	
407.61	5184.8	
407.81	3319.8	
408.01	4552.6	
408.22	4342.4	
408.42	5625.1	
408.62	3990.1	
408.83	3629.7	
409.03	4829.8	
409.23	4693.3	
409.44	3667.2	
409.64	3808.5	
409.84	5471.5	
410.05	5332.9	
410.25	3788.1	
410.45	3620.1	
410.66	5065.3	
410.86	6690.7	
411.06	3900.7	
411.27	3814.7	
411.47	6457.2	
411.67	5154.1	
411.88	4002.4	
412.08	4113	
412.28	5509.7	
412.49	5871.5	
412.69	3828.3	
412.89	3839.3	
413.09	5810.8	
413.3	5700.2	
413.5	3926	
413.7	3670.6	
413.91	5208	
414.11	5792.3	
414.31	3797.6	
414.52	4063.2	
414.72	5640.1	
414.92	5470.1	
415.12	3815.4	
415.33	4197	
415.53	5754.8	
415.73	5845.6	
415.94	4375.8	
416.14	4016.1	
416.34	5114.5	
416.55	4949.9	
416.75	4835.3	
416.95	4422.2	
417.15	5793.7	
417.36	6223.1	
417.56	4957.4	
417.76	4269.3	
417.97	5984.8	
418.17	5776.6	
418.37	4134.2	
418.57	4120.5	
418.78	5757.5	
418.98	5418.9	
419.18	4681	
419.38	4696.7	
419.59	5451	
419.79	5213.4	
419.99	4046.8	
420.2	4302.8	
420.4	5834	
420.6	5913.9	
420.8	3947.8	
421.01	3892.5	
421.21	5713.8	
421.41	5741.1	
421.61	4192.2	
421.82	4009.2	
422.02	5438	
422.22	6021.7	
422.42	4532.2	
422.63	4325.3	
422.83	5465.3	
423.03	6266.1	
423.23	4394.9	
423.44	3667.9	
423.64	5549.3	
423.84	5333.6	
424.04	3984	
424.25	3779.2	
424.45	6137.1	
424.65	6030.6	
424.85	3685	
425.06	4053.6	
425.26	6247.7	
425.46	5425.8	
425.66	4359.4	
425.87	4208.6	
426.07	5953.4	
426.27	5844.9	
426.47	4251.6	
426.67	3880.9	
426.88	6227.9	
427.08	5862	
427.28	4454.3	
427.48	3818.8	
427.69	5202.5	
427.89	5506.3	
428.09	4373.1	
428.29	3826.3	
428.5	5922	
428.7	5722	
428.9	3834.5	
429.1	4052.2	
429.3	5682.4	
429.51	5897.5	
429.71	3993.5	
429.91	4528.7	
430.11	5912.5	
430.31	6047	
430.52	4246.8	
430.72	4375.8	
430.92	6306.4	
431.12	5867.4	
431.32	4001	
431.53	4262.5	
431.73	5191.6	
431.93	6278.4	
432.13	3930.1	
432.33	3867.9	
432.54	5503.6	
432.74	5640.8	
432.94	3824.9	
433.14	4543.8	
433.34	6046.3	
433.55	5569.1	
433.75	4498	
433.95	5687.9	
434.15	5750.7	
434.35	5521.3	
434.56	4027	
434.76	3657.7	
434.96	5689.3	
435.16	5872.9	
435.36	3847.5	
435.56	4683	
435.77	5494.7	
435.97	5668.8	
436.17	5081	
436.37	4569	
436.57	5509	
436.78	5503.6	
436.98	5879.7	
437.18	4995	
437.38	5932.3	
437.58	5559.6	
437.78	5094	
437.99	4237.9	
438.19	6094.8	
438.39	6567.2	
438.59	4185.4	
438.79	3900	
438.99	6534.4	
439.2	5609.4	
439.4	3857.7	
439.6	3893.2	
439.8	5746.6	
440	6580.8	
440.2	4655	
440.4	4607.9	
440.61	6229.2	
440.81	6496.2	
441.01	4084.3	
441.21	4644.8	
441.41	6462	
441.61	6106.4	
441.81	4907.6	
442.02	5471.5	
442.22	6793.8	
442.42	6228.6	
442.62	4145.8	
442.82	4177.2	
443.02	6563.1	
443.22	5929.6	
443.43	4500.8	
443.63	4126.7	
443.83	5769.1	
444.03	5740.5	
444.23	4956.1	
444.43	4675.5	
444.63	6089.3	
444.83	6802	
445.04	4333.5	
445.24	5170.4	
445.44	6326.2	
445.64	6257.2	
445.84	4835.3	
446.04	4843.4	
446.24	5845.6	
446.44	6554.9	
446.65	4292.5	
446.85	4511	
447.05	6125.5	
447.25	6440.9	
447.45	4638	
447.65	4178.5	
447.85	6113.9	
448.05	5817.6	
448.25	4879.6	
448.46	4764.3	
448.66	6180.1	
448.86	5825.1	
449.06	4165.6	
449.26	4885.1	
449.46	6343.2	
449.66	5678.3	
449.86	4590.9	
450.06	4572.4	
450.26	5853.8	
450.47	6286.6	
450.67	4742.4	
450.87	4999.1	
451.07	6445.6	
451.27	6212.2	
451.47	4245.4	
451.67	4908.3	
451.87	5967.8	
452.07	6705.7	
452.27	4486.4	
452.47	4428.4	
452.67	6256.5	
452.88	6458.6	
453.08	4059.1	
453.28	5431.9	
453.48	7015.7	
453.68	6085.9	
453.88	4452.3	
454.08	4552.6	
454.28	6472.9	
454.48	6231.3	
454.68	4902.8	
454.88	5216.9	
455.08	6546.7	
455.28	6313.2	
455.48	4323.3	
455.68	4787.5	
455.89	6846.4	
456.09	6584.9	
456.29	4692.6	
456.49	4656.4	
456.69	6755.6	
456.89	6210.1	
457.09	5055.8	
457.29	5271.5	
457.49	6547.4	
457.69	6661.4	
457.89	4918.5	
458.09	4486.4	
458.29	6396.5	
458.49	6873.7	
458.69	5223.7	
458.89	4767	
459.09	7000	
459.29	7077.8	
459.49	4937.7	
459.69	5469.4	
459.9	6703.7	
460.1	6415.6	
460.3	4823.6	
460.5	4683.7	
460.7	6757.6	
460.9	6449.1	
461.1	4519.2	
461.3	5277.6	
461.5	7262.1	
461.7	6929.6	
461.9	4874.8	
462.1	5101.5	
462.3	6574	
462.5	6949.4	
462.7	4822.3	
462.9	4936.3	
463.1	7686.7	
463.3	7430.7	
463.5	5101.5	
463.7	5815.5	
463.9	6793.1	
464.1	7130.3	
464.3	5208.7	
464.5	5350.7	
464.7	7251.9	
464.9	6961	
465.1	6283.2	
465.3	5565.7	
465.5	7501	
465.7	7449.1	
465.9	5896.1	
466.1	5623	
466.3	7314.7	
466.5	7245	
466.7	6229.9	
466.9	5596.4	
467.1	7332.4	
467.3	7856	
467.5	6307.7	
467.7	5528.8	
467.9	8115.4	
468.1	8613.8	
468.3	5947.3	
468.5	6360.3	
468.7	7281.2	
468.9	7281.9	
469.1	5829.9	
469.3	6202.6	
469.5	8716.2	
469.7	6995.9	
469.9	6113.9	
470.1	5696.8	
470.3	7445	
470.5	7370	
470.7	6479.1	
470.9	5685.8	
471.1	7177.4	
471.3	7474.4	
471.5	5547.3	
471.69	6759.7	
471.89	7264.8	
472.09	6752.2	
472.29	6109.8	
472.49	6336.4	
472.69	6943.3	
472.89	7398.6	
473.09	5519.3	
473.29	5597.8	
473.49	7145.4	
473.69	7109.2	
473.89	6331	
474.09	5681.1	
474.29	8082.6	
474.49	7791.2	
474.69	6234.7	
474.89	5715.2	
475.09	7253.2	
475.29	7196.6	
475.49	5378	
475.69	5616.9	
475.88	8196	
476.08	7455.3	
476.28	5415.5	
476.48	5629.9	
476.68	7770	
476.88	7502.4	
477.08	5667.4	
477.28	5684.5	
477.48	7305.1	
477.68	7515.4	
477.88	5433.9	
478.08	5650.3	
478.28	7870.3	
478.48	7295.5	
478.67	5777.3	
478.87	5257.1	
479.07	7697.6	
479.27	7387.7	
479.47	5780.1	
479.67	5839.4	
479.87	7602.1	
480.07	8008.9	
480.27	5370.5	
480.47	6456.6	
480.67	7382.2	
480.87	7814.4	
481.06	5619.6	
481.26	6215.6	
481.46	7453.2	
481.66	7342.7	
481.86	5929.6	
482.06	6543.9	
482.26	7258.7	
482.46	7808.2	
482.66	5885.9	
482.86	5547.9	
483.05	7531.7	
483.25	7142.6	
483.45	7511.9	
483.65	5859.9	
483.85	7137.2	
484.05	7488.7	
484.25	6226.5	
484.45	6509.8	
484.65	7860.8	
484.84	7934.5	
485.04	5842.2	
485.24	5906.3	
485.44	8259.5	
485.64	7046.4	
485.84	5429.2	
486.04	6259.3	
486.24	7327.6	
486.44	7547.4	
486.63	5361.6	
486.83	5997.1	
487.03	7301.7	
487.23	7417.1	
487.43	5433.3	
487.63	7047.1	
487.83	7547.4	
488.02	7986.4	
488.22	6262.7	
488.42	6480.5	
488.62	8146.1	
488.82	7186.3	
489.02	5927.5	
489.22	6006	
489.41	7924.3	
489.61	7811	
489.81	5795.1	
490.01	5881.1	
490.21	7899	
490.41	8514.1	
490.61	5853.1	
490.8	5864.7	
491	7690.1	
491.2	7203.4	
491.4	6234	
491.6	5766.4	
491.8	7708.6	
491.99	7683.3	
492.19	5575.3	
492.39	5799.8	
492.59	7943.4	
492.79	8096.3	
492.99	6352.1	
493.18	5793	
493.38	8133.2	
493.58	8663.6	
493.78	6280.4	
493.98	6016.9	
494.18	7940.7	
494.37	7501	
494.57	6623.8	
494.77	6419	
494.97	8145.5	
495.17	8298.4	
495.37	6195.1	
495.56	6432	
495.76	8469.7	
495.96	8256	
496.16	7139.9	
496.36	6384.9	
496.55	8389.8	
496.75	8056.7	
496.95	6642.9	
497.15	6526.9	
497.35	8443.1	
497.54	8363.9	
497.74	6508.4	
497.94	7723.6	
498.14	8905.3	
498.34	8711.4	
498.53	6239.5	
498.73	6733.7	
498.93	7958.4	
499.13	8391.2	
499.33	6676.4	
499.52	6916.7	
499.72	8541.4	
499.92	8590.5	
500.12	6481.1	
500.32	6715.3	
500.51	8656.8	
500.71	8432.2	
500.91	7163.1	
501.11	7015.7	
501.31	8602.2	
501.5	8831.5	
501.7	7539.3	
501.9	6825.2	
502.1	8501.8	
502.29	8660.9	
502.49	7133.8	
502.69	7392.5	
502.89	8645.8	
503.09	8501.1	
503.28	6443.6	
503.48	6479.1	
503.68	8247.2	
503.88	8113.4	
504.07	7165.8	
504.27	6735.1	
504.47	8357.1	
504.67	8486.1	
504.86	7098.9	
505.06	6863.4	
505.26	8349.6	
505.46	9346.9	
505.65	6780.1	
505.85	6938.5	
506.05	8185.7	
506.25	8570.7	
506.44	6308.4	
506.64	6920.8	
506.84	8112	
507.04	8642.4	
507.23	6532.3	
507.43	6860	
507.63	9289.6	
507.83	8120.9	
508.02	6870.3	
508.22	6550.1	
508.42	9540.1	
508.62	8074.5	
508.81	6718	
509.01	7096.2	
509.21	7942.7	
509.4	8105.2	
509.6	6976.7	
509.8	6554.2	
510	8174.1	
510.19	9000.8	
510.39	6469.5	
510.59	6553.5	
510.79	8053.3	
510.98	9043.8	
511.18	6690.7	
511.38	6661.4	
511.57	8753	
511.77	8456.1	
511.97	7189.1	
512.17	6550.1	
512.36	8705.9	
512.56	8546.2	
512.76	6493.4	
512.95	6330.3	
513.15	8803.5	
513.35	7700.4	
513.55	7118.1	
513.74	6537.8	
513.94	8687.5	
514.14	8233.5	
514.33	7285.3	
514.53	6991.1	
514.73	8351.6	
514.92	8363.9	
515.12	6691.4	
515.32	6588.3	
515.51	8507.3	
515.71	8794.7	
515.91	7823.2	
516.11	6684.6	
516.3	9594.1	
516.5	8355.7	
516.7	7137.2	
516.89	7455.3	
517.09	8333.2	
517.29	8408.3	
517.48	7203.4	
517.68	6879.8	
517.88	8140	
518.07	8663.6	
518.27	7279.8	
518.47	6575.3	
518.66	9060.9	
518.86	8112	
519.06	6562.4	
519.25	6861.4	
519.45	8325	
519.65	9379.7	
519.84	7332.4	
520.04	7765.2	
520.24	9706	
520.43	8824	
520.63	7222.5	
520.83	7008.1	
521.02	8369.4	
521.22	8813.1	
521.42	7267.6	
521.61	7719.5	
521.81	8502.5	
522.01	8668.4	
522.2	7254.6	
522.4	7027.3	
522.6	9013.1	
522.79	8104.5	
522.99	7175.4	
523.18	6655.2	
523.38	8837.7	
523.58	8819.9	
523.77	8047.8	
523.97	6771.3	
524.17	10120	
524.36	9612.5	
524.56	7941.3	
524.76	7522.9	
524.95	8909.3	
525.15	8752.3	
525.34	7501.7	
525.54	7605.5	
525.74	9279.3	
525.93	8626.7	
526.13	8355	
526.33	7608.9	
526.52	9706.7	
526.72	9323	
526.91	8469.7	
527.11	7954.3	
527.31	9664.4	
527.5	9941.5	
527.7	8033.5	
527.89	7339.2	
528.09	9023.4	
528.29	9374.2	
528.48	8245.1	
528.68	8013	
528.87	9820.7	
529.07	9852.1	
529.27	8076.5	
529.46	7806.2	
529.66	9648.7	
529.85	9881.4	
530.05	7759.8	
530.25	8304.5	
530.44	10680	
530.64	9483.5	
530.83	8030.1	
531.03	8153	
531.23	10021	
531.42	9825.5	
531.62	8678.6	
531.81	8092.9	
532.01	10121	
532.21	10365	
532.4	8054.7	
532.6	8321.6	
532.79	10713	
532.99	10279	
533.18	8383	
533.38	9086.8	
533.58	9944.3	
533.77	10574	
533.97	8576.9	
534.16	9061.6	
534.36	10801	
534.55	10092	
534.75	9189.2	
534.95	8626	
535.14	10803	
535.34	10145	
535.53	8519.5	
535.73	9796.1	
535.92	11140	
536.12	10249	
536.31	8667.7	
536.51	9387.2	
536.71	10493	
536.9	10280	
537.1	8621.9	
537.29	8753	
537.49	10835	
537.68	10144	
537.88	9099.8	
538.07	8441	
538.27	10371	
538.46	11016	
538.66	8468.4	
538.86	8774.2	
539.05	10445	
539.25	10658	
539.44	9095	
539.64	8658.8	
539.83	10315	
540.03	11029	
540.22	8721.6	
540.42	8703.9	
540.61	10499	
540.81	10552	
541	9089.6	
541.2	9421.3	
541.39	10142	
541.59	10390	
541.78	9330.5	
541.98	8665.6	
542.18	9998.2	
542.37	9991.4	
542.57	8909.3	
542.76	9183.1	
542.96	9932.6	
543.15	10437	
543.35	8825.4	
543.54	8473.1	
543.74	10353	
543.93	10259	
544.13	8765.3	
544.32	9445.9	
544.52	10586	
544.71	9919.7	
544.91	8186.4	
545.1	8898.4	
545.3	10041	
545.49	10299	
545.69	8114.1	
545.88	8561.2	
546.08	11240	
546.27	10749	
546.47	8893	
546.66	8270.4	
546.86	10602	
547.05	10909	
547.24	8546.2	
547.44	8481.3	
547.63	9818.6	
547.83	10561	
548.02	8739.4	
548.22	8786.5	
548.41	9695.1	
548.61	10608	
548.8	8389.2	
549	8378.9	
549.19	10155	
549.39	10410	
549.58	8198	
549.78	8575.5	
549.97	10418	
550.17	10078	
550.36	9133.3	
550.55	9798.8	
550.75	10035	
550.94	10606	
551.14	8357.8	
551.33	8521.6	
551.53	9601.6	
551.72	10256	
551.92	8556.4	
552.11	8427.4	
552.31	10373	
552.5	10119	
552.69	9457.5	
552.89	8054.7	
553.08	10220	
553.28	10010	
553.47	8415.8	
553.67	9181.7	
553.86	10675	
554.06	9495.1	
554.25	7825.3	
554.44	8204.2	
554.64	11157	
554.83	10860	
555.03	8154.3	
555.22	8386.4	
555.42	10378	
555.61	10174	
555.8	8424.7	
556	8421.2	
556.19	9634.3	
556.39	10421	
556.58	8326.4	
556.78	8357.8	
556.97	10030	
557.16	9891.7	
557.36	9137.4	
557.55	8153	
557.75	9316.9	
557.94	10615	
558.13	8149.6	
558.33	8028.7	
558.52	10427	
558.72	9620.7	
558.91	8080.6	
559.1	8218.5	
559.3	9491	
559.49	9314.2	
559.69	8006.2	
559.88	8421.9	
560.07	9934	
560.27	10247	
560.46	8455.4	
560.66	8722.3	
560.85	9852.8	
561.04	9303.2	
561.24	7974.1	
561.43	8026.7	
561.63	9421.3	
561.82	9644.6	
562.01	8901.2	
562.21	8257.4	
562.4	9915.6	
562.59	10462	
562.79	8107.9	
562.98	8030.1	
563.18	9929.2	
563.37	10847	
563.56	8577.6	
563.76	7993.9	
563.95	9592.7	
564.14	9430.2	
564.34	8383.7	
564.53	8033.5	
564.73	9897.2	
564.92	10066	
565.11	8321.6	
565.31	7916.8	
565.5	10275	
565.69	9454.8	
565.89	8175.5	
566.08	8322.9	
566.27	10234	
566.47	10529	
566.66	8860.9	
566.85	7879.9	
567.05	10015	
567.24	9626.1	
567.44	8032.8	
567.63	9025.4	
567.82	10155	
568.02	9904.7	
568.21	8026.7	
568.4	8282	
568.6	9872.6	
568.79	9723.1	
568.98	7952.3	
569.18	8159.8	
569.37	9824.1	
569.56	11070	
569.76	8327	
569.95	8965.3	
570.14	10036	
570.34	9993.4	
570.53	7993.9	
570.72	8008.9	
570.91	10408	
571.11	9770.9	
571.3	8461.5	
571.49	8934.6	
571.69	9943.6	
571.88	9479.4	
572.07	8676.6	
572.27	8621.9	
572.46	9523.7	
572.65	10170	
572.85	8127	
573.04	8342.7	
573.23	10398	
573.43	10055	
573.62	7991.2	
573.81	8419.2	
574	10054	
574.2	9831.6	
574.39	8293.6	
574.58	8440.4	
574.78	10522	
574.97	10002	
575.16	8625.4	
575.36	8594	
575.55	10421	
575.74	10455	
575.93	8045.8	
576.13	8826.1	
576.32	9891	
576.51	10304	
576.71	8486.8	
576.9	9701.2	
577.09	10533	
577.28	10148	
577.48	8706.6	
577.67	8056	
577.86	10012	
578.05	10235	
578.25	8502.5	
578.44	8462.9	
578.63	9987.3	
578.83	11034	
579.02	8109.3	
579.21	9148.3	
579.4	10196	
579.6	10001	
579.79	8531.8	
579.98	10092	
580.17	10432	
580.37	10522	
580.56	8182.3	
580.75	8748.9	
580.94	10635	
581.14	10611	
581.33	9073.9	
581.52	8338	
581.71	10244	
581.91	10852	
582.1	8151.6	
582.29	8475.2	
582.48	10053	
582.68	10017	
582.87	8920.3	
583.06	8678.6	
583.25	10391	
583.45	9904.7	
583.64	9031.5	
583.83	9521	
584.02	10189	
584.21	10449	
584.41	9004.9	
584.6	8621.9	
584.79	10149	
584.98	10596	
585.18	8196.7	
585.37	8149.6	
585.56	9947.7	
585.75	10368	
585.94	8288.8	
586.14	8759.8	
586.33	10753	
586.52	10161	
586.71	8744.1	
586.91	8475.2	
587.1	9676	
587.29	10400	
587.48	8428.8	
587.67	8342.1	
587.87	10274	
588.06	10215	
588.25	9271.8	
588.44	8637.6	
588.63	9826.2	
588.83	10335	
589.02	8274.5	
589.21	8110	
589.4	9883.5	
589.59	9736	
589.78	7703.1	
589.98	7740	
590.17	9364	
590.36	9665	
590.55	7256.6	
590.74	7752.2	
590.94	10296	
591.13	9393.3	
591.32	7601.4	
591.51	7230	
591.7	9600.9	
591.89	9389.3	
592.09	7372.7	
592.28	7599.3	
592.47	8693.6	
592.66	10103	
592.85	7286.7	
593.05	7497.6	
593.24	9355.1	
593.43	9824.1	
593.62	7621.9	
593.81	7814.4	
594	9430.9	
594.19	9478.7	
594.39	7543.4	
594.58	7550.9	
594.77	9560.6	
594.96	9921.7	
595.15	7530.4	
595.34	7884.7	
595.54	9423.4	
595.73	8908	
595.92	7032	
596.11	7789.1	
596.3	9836.4	
596.49	9019.3	
596.68	7531.1	
596.88	7980.3	
597.07	9548.3	
597.26	8789.2	
597.45	7222.5	
597.64	8173.4	
597.83	9079.3	
598.02	9499.2	
598.22	7400.7	
598.41	7712	
598.6	9330.5	
598.79	8861.6	
598.98	7378.8	
599.17	7963.2	
599.36	9346.2	
599.55	10000	
599.74	8711.4	
599.94	8599.4	
600.13	9587.2	
600.32	8834.3	
600.51	7104.4	
600.7	7322.9	
600.89	10016	
601.08	10098	
601.27	7132.4	
601.47	7751.6	
601.66	9494.4	
601.85	9906.7	
602.04	7657.4	
602.23	7668.3	
602.42	8957.1	
602.61	9385.8	
602.8	7457.3	
602.99	7367.9	
603.18	9116.9	
603.37	9309.4	
603.57	7733.8	
603.76	8197.3	
603.95	9799.5	
604.14	9450	
604.33	7464.2	
604.52	7574.1	
604.71	9256.8	
604.9	8896.4	
605.09	8005.5	
605.28	7844.4	
605.47	9755.8	
605.66	9400.2	
605.86	7865.6	
606.05	7520.1	
606.24	9657.5	
606.43	8610.3	
606.62	7658	
606.81	8114.1	
607	9559.9	
607.19	9054.8	
607.38	7251.2	
607.57	7208.8	
607.76	8890.2	
607.95	8413.7	
608.14	7645.1	
608.33	8045.8	
608.52	8911.4	
608.72	9456.2	
608.91	7050.5	
609.1	7098.3	
609.29	9004.9	
609.48	8542.1	
609.67	7676.5	
609.86	7105.8	
610.05	8646.5	
610.24	8870.4	
610.43	7002	
610.62	6726.2	
610.81	9638.4	
611	9557.2	
611.19	7107.1	
611.38	7542	
611.57	9112.8	
611.76	9944.9	
611.95	6926.9	
612.14	6772.6	
612.33	8908	
612.52	8728.4	
612.71	7147.4	
612.9	6792.4	
613.09	8417.2	
613.28	9993.4	
613.47	7157.7	
613.66	7819.8	
613.85	9039.7	
614.04	8681.3	
614.24	7157	
614.43	6570.6	
614.62	9082.7	
614.81	9060.2	
615	7408.2	
615.19	7453.9	
615.38	8705.2	
615.57	8794.7	
615.76	7404.1	
615.95	8088.8	
616.14	9172.9	
616.33	8935.3	
616.52	7613.7	
616.71	7717.4	
616.9	9111.4	
617.09	9007.6	
617.28	7262.1	
617.47	7986.4	
617.66	8484.1	
617.85	8527.1	
618.04	7847.8	
618.22	7423.2	
618.41	8759.2	
618.6	9506	
618.79	7451.2	
618.98	7324.9	
619.17	9684.2	
619.36	8491.6	
619.55	7425.9	
619.74	7410.9	
619.93	9248.6	
620.12	8757.1	
620.31	7822.6	
620.5	7890.1	
620.69	9562.6	
620.88	9923.8	
621.07	8396	
621.26	7902.4	
621.45	9334.6	
621.64	9328.5	
621.83	7897	
622.02	7271.7	
622.21	9361.3	
622.4	9330.5	
622.59	8252.6	
622.78	8156.4	
622.97	9093	
623.16	9686.2	
623.35	7948.2	
623.54	7350.8	
623.72	9209.7	
623.91	9223.4	
624.1	8131.1	
624.29	7225.2	
624.48	10017	
624.67	9477.3	
624.86	8105.9	
625.05	7436.9	
625.24	10134	
625.43	9115.5	
625.62	9149.6	
625.81	7644.4	
626	9641.2	
626.19	9256.1	
626.38	8018.5	
626.56	7765.9	
626.75	9099.8	
626.94	9652.8	
627.13	8144.1	
627.32	7236.2	
627.51	9596.8	
627.7	10305	
627.89	7318.1	
628.08	8068.3	
628.27	8949.6	
628.46	9082.1	
628.65	7489.4	
628.83	7306.5	
629.02	9506	
629.21	9016.5	
629.4	7864.9	
629.59	7957.7	
629.78	8994.7	
629.97	9645.3	
630.16	7946.1	
630.35	7648.5	
630.54	10006	
630.72	9721	
630.91	7638.9	
631.1	7928.4	
631.29	9318.9	
631.48	9476.6	
631.67	8092.9	
631.86	7662.1	
632.05	9267.1	
632.24	9279.3	
632.42	7410.2	
632.61	7895.6	
632.8	9192.6	
632.99	9007	
633.18	7888.8	
633.37	8142.7	
633.56	9555.1	
633.75	9389.3	
633.93	7918.1	
634.12	7669.6	
634.31	10009	
634.5	9710.1	
634.69	7748.8	
634.88	8024.6	
635.07	9393.3	
635.25	9716.9	
635.44	8320.9	
635.63	8482	
635.82	9201.5	
636.01	8628.1	
636.2	8228.1	
636.39	7961.8	
636.57	9984.5	
636.76	9628.9	
636.95	7486.7	
637.14	8439	
637.33	9488.2	
637.52	9965.4	
637.7	7449.1	
637.89	8148.2	
638.08	9229.5	
638.27	10138	
638.46	8079.9	
638.65	8471.8	
638.83	10171	
639.02	8987.9	
639.21	7998	
639.4	8321.6	
639.59	9214.5	
639.78	9097.8	
639.96	7451.9	
640.15	7513.3	
640.34	9273.9	
640.53	9239.8	
640.72	7324.2	
640.91	7429.3	
641.09	8694.3	
641.28	9621.4	
641.47	7388.4	
641.66	8061.5	
641.85	9310.7	
642.03	9351	
642.22	7842.4	
642.41	7527	
642.6	8783.1	
642.79	8376.2	
642.97	7339.9	
643.16	7798	
643.35	8633.6	
643.54	8592.6	
643.73	7276.4	
643.91	7691.5	
644.1	8492.9	
644.29	8916.2	
644.48	7320.1	
644.67	7374.1	
644.85	8523.6	
645.04	8893	
645.23	6897.6	
645.42	7253.9	
645.6	8442.4	
645.79	9282.1	
645.98	6995.9	
646.17	6391.7	
646.36	8120.2	
646.54	8514.1	
646.73	7504.4	
646.92	6739.2	
647.11	8251.9	
647.29	8933.2	
647.48	6735.8	
647.67	6579.4	
647.86	9125.7	
648.05	9028.1	
648.23	6860	
648.42	7713.3	
648.61	8761.2	
648.8	8517.5	
648.98	6655.2	
649.17	6789	
649.36	8112.7	
649.55	7854	
649.73	6660	
649.92	7189.7	
650.11	8106.5	
650.3	8348.9	
650.48	6705	
650.67	6528.9	
650.86	8501.1	
651.05	7720.8	
651.23	6629.3	
651.42	6647.7	
651.61	8111.3	
651.79	8004.8	
651.98	6767.9	
652.17	6503	
652.36	8308.6	
652.54	7619.8	
652.73	6584.9	
652.92	6432	
653.11	8405.5	
653.29	8464.3	
653.48	6090	
653.67	6739.2	
653.85	8170	
654.04	8857.5	
654.23	6803.4	
654.42	6558.3	
654.6	7789.1	
654.79	8201.4	
654.98	6075.6	
655.16	6497.5	
655.35	7408.9	
655.54	7325.6	
655.73	6034	
655.91	5952.1	
656.1	8101.8	
656.29	7201.3	
656.47	5723.4	
656.66	6868.2	
656.85	7559.7	
657.03	7506.5	
657.22	6079.7	
657.41	6207.4	
657.59	7615.7	
657.78	7538.6	
657.97	5950.7	
658.16	6408.8	
658.34	8144.1	
658.53	8380.3	
658.72	6997.9	
658.9	7391.1	
659.09	7778.2	
659.28	7784.3	
659.46	6245.6	
659.65	6143.2	
659.84	7586.4	
660.02	8006.2	
660.21	6232.7	
660.4	6032	
660.58	8226	
660.77	7792.5	
660.96	6563.7	
661.14	5900.2	
661.33	8607.6	
661.52	8487.5	
661.7	5905.7	
661.89	8270.4	
662.08	7517.4	
662.26	7187.7	
662.45	6028.5	
662.64	6150.7	
662.82	8062.9	
663.01	7391.8	
663.2	6113.9	
663.38	6595.1	
663.57	7908.6	
663.75	7798.7	
663.94	6293.4	
664.13	7122.2	
664.31	7534.5	
664.5	8032.1	
664.69	6397.9	
664.87	6866.2	
665.06	7337.2	
665.25	7814.4	
665.43	7034.1	
665.62	6855.9	
665.8	7875.8	
665.99	7516	
666.18	6237.4	
666.36	6311.2	
666.55	8036.9	
666.74	7870.3	
666.92	6145.3	
667.11	7088	
667.29	7572.7	
667.48	7993.9	
667.67	6801.3	
667.85	6150.1	
668.04	7476.5	
668.22	7542.7	
668.41	6361.7	
668.6	6511.9	
668.78	7353.6	
668.97	7481.9	
669.15	6537.1	
669.34	5844.9	
669.53	7425.9	
669.71	7615	
669.9	5892	
670.08	6299.6	
670.27	7374.1	
670.46	7729	
670.64	6512.5	
670.83	6673.6	
671.01	7264.8	
671.2	7626.6	
671.38	6040.1	
671.57	5923.4	
671.76	8133.8	
671.94	8514.8	
672.13	5821	
672.31	6614.3	
672.5	7940	
672.69	7297.6	
672.87	5885.2	
673.06	6198.5	
673.24	7783.6	
673.43	7436.9	
673.61	6436.1	
673.8	6162.3	
673.98	7752.9	
674.17	7896.3	
674.36	6562.4	
674.54	6477	
674.73	7604.1	
674.91	7816.4	
675.1	6208.1	
675.28	5978	
675.47	7477.1	
675.65	7901.1	
675.84	6212.9	
676.03	6331.6	
676.21	7362.4	
676.4	7010.9	
676.58	6612.2	
676.77	6500.9	
676.95	8430.1	
677.14	7359	
677.32	5885.2	
677.51	5881.8	
677.69	7920.9	
677.88	7196.6	
678.06	5929.6	
678.25	6005.3	
678.44	7507.2	
678.62	7322.9	
678.81	5786.2	
678.99	6296.1	
679.18	8140	
679.36	7805.5	
679.55	6161	
679.73	6510.5	
679.92	7742	
680.1	7332.4	
680.29	6997.9	
680.47	6163	
680.66	7436.2	
680.84	7899	
681.03	5700.9	
681.21	6374.6	
681.4	7372.7	
681.58	7256	
681.77	6028.5	
681.95	6044.2	
682.14	7980.3	
682.32	8148.2	
682.51	6574.7	
682.69	5802.6	
682.88	7323.5	
683.06	7640.3	
683.25	6320	
683.43	6661.4	
683.62	7606.2	
683.8	7755	
683.99	6749.4	
684.17	6281.1	
684.36	8348.9	
684.54	7370.6	
684.73	5707.7	
684.91	5838.1	
685.1	7622.5	
685.28	7074.4	
685.46	6159.6	
685.65	6154.8	
685.83	7593.9	
686.02	7196.6	
686.2	5742.5	
686.39	5737.7	
686.57	6992.4	
686.76	8044.4	
686.94	5704.3	
687.13	5872.9	
687.31	7460.8	
687.5	7299.6	
687.68	5543.9	
687.86	6337.8	
688.05	8497.7	
688.23	6871.6	
688.42	6348	
688.6	5937.7	
688.79	7348.8	
688.97	7305.8	
689.16	6257.2	
689.34	5515.9	
689.52	7805.5	
689.71	8100.4	
689.89	6519.4	
690.08	5989.6	
690.26	7726.3	
690.45	7437.5	
690.63	6626.5	
690.81	6176	
691	7620.5	
691.18	7368.6	
691.37	6322.1	
691.55	7661.5	
691.74	7359	
691.92	8669.7	
692.1	6267.5	
692.29	6010.1	
692.47	7479.9	
692.66	7122.8	
692.84	6152.1	
693.02	6315.3	
693.21	7147.4	
693.39	7559.7	
693.58	6563.1	
693.76	6139.8	
693.94	8483.4	
694.13	8268.3	
694.31	6292.7	
694.5	6933.7	
694.68	7581.6	
694.86	7888.1	
695.05	6576.7	
695.23	6613.6	
695.42	8208.3	
695.6	9748.3	
695.78	7006.8	
695.97	6480.5	
696.15	8271.1	
696.34	7838.3	
696.52	6353.5	
696.7	6920.1	
696.89	8079.9	
697.07	7663.5	
697.25	6778.8	
697.44	7763.8	
697.62	8138.6	
697.81	8217.1	
697.99	6615.6	
698.17	6901	
698.36	7771.4	
698.54	8173.4	
698.72	6896.9	
698.91	6240.8	
699.09	7798	
699.28	7772.7	
699.46	6752.2	
699.64	6443.6	
699.83	7791.8	
700.01	8439.7	
700.19	7198.6	
700.38	6182.1	
700.56	8467.7	
700.74	7851.9	
700.93	6324.1	
701.11	6973.3	
701.29	8228.1	
701.48	9032.9	
701.66	6578.8	
701.84	6677.1	
702.03	8062.9	
702.21	8624.7	
702.39	6432.7	
702.58	6974	
702.76	8452	
702.94	8581	
703.13	6492.1	
703.31	8086.7	
703.49	7944.8	
703.68	8982.4	
703.86	6632	
704.04	7299	
704.23	8356.4	
704.41	8645.8	
704.59	6791.7	
704.78	7546.8	
704.96	9430.9	
705.14	8556.4	
705.33	6701	
705.51	7201.3	
705.69	8200.7	
705.87	8893.6	
706.06	7337.2	
706.24	6608.1	
706.42	8530.5	
706.61	8701.8	
706.79	7452.6	
706.97	6659.3	
707.16	8170	
707.34	8540	
707.52	7425.9	
707.7	6892.1	
707.89	8275.2	
708.07	8079.9	
708.25	7441	
708.44	7748.1	
708.62	8196	
708.8	8961.9	
708.98	7701	
709.17	6954.2	
709.35	8484.7	
709.53	8515.5	
709.72	6847	
709.9	6812.9	
710.08	8773.5	
710.26	8637.6	
710.45	7811	
710.63	7025.2	
710.81	8472.4	
710.99	8557.8	
711.18	7336.5	
711.36	7006.8	
711.54	8400.8	
711.72	8849.3	
711.91	7107.1	
712.09	6783.6	
712.27	8464.9	
712.45	8748.2	
712.64	7092.1	
712.82	6505.7	
713	7946.1	
713.18	8056	
713.37	6535.8	
713.55	7299.6	
713.73	8568.7	
713.91	7563.8	
714.1	6611.5	
714.28	6225.8	
714.46	8039	
714.64	7392.5	
714.83	5567.7	
715.01	6077	
715.19	7370.6	
715.37	6797.9	
715.55	5760.9	
715.74	5911.1	
715.92	7793.9	
716.1	6364.4	
716.28	6571.2	
716.47	5903.6	
716.65	6948.8	
716.83	6841.6	
717.01	5779.4	
717.19	5711.1	
717.38	8317.5	
717.56	6713.2	
717.74	5980.1	
717.92	5359.5	
718.1	7555.6	
718.29	7016.3	
718.47	5277.6	
718.65	5724.8	
718.83	7707.2	
719.01	7720.8	
719.2	5400.5	
719.38	6193.7	
719.56	7618.4	
719.74	8669.1	
719.92	6083.1	
720.11	6681.8	
720.29	7669	
720.47	7037.5	
720.65	5519.3	
720.83	6102.3	
721.02	7083.2	
721.2	6940.6	
721.38	5980.8	
721.56	5423.7	
721.74	6543.3	
721.92	6571.9	
722.11	6232	
722.29	6091.3	
722.47	7406.8	
722.65	6908.5	
722.83	5480.4	
723.01	5998.5	
723.2	6937.2	
723.38	7204.1	
723.56	5132.2	
723.74	5809.4	
723.92	6643.6	
724.1	7348.1	
724.29	5439.4	
724.47	6194.4	
724.65	6806.8	
724.83	6613.6	
725.01	5302.9	
725.19	5819	
725.37	6599.2	
725.56	6620.4	
725.74	5246.9	
725.92	5391.6	
726.1	6643.6	
726.28	6863.4	
726.46	5681.7	
726.64	5392.3	
726.83	6822.5	
727.01	6916	
727.19	5214.8	
727.37	5757.5	
727.55	6974	
727.73	7245.7	
727.91	5184.1	
728.09	5079	
728.28	7288.7	
728.46	7320.1	
728.64	5821.7	
728.82	5783.5	
729	7974.1	
729.18	7533.8	
729.36	5321.3	
729.54	6847.7	
729.72	8269	
729.91	7148.8	
730.09	6686.6	
730.27	5967.8	
730.45	7107.1	
730.63	7531.7	
730.81	6279.8	
730.99	5743.2	
731.17	7944.8	
731.35	6972	
731.53	5989.6	
731.71	5807.4	
731.9	7657.4	
732.08	7750.9	
732.26	5969.8	
732.44	5787.6	
732.62	7752.9	
732.8	7472.4	
732.98	6166.4	
733.16	5545.2	
733.34	7457.3	
733.52	6552.8	
733.7	5798.5	
733.88	5995.1	
734.07	7304.4	
734.25	7152.2	
734.43	5472.9	
734.61	6505	
734.79	8190.5	
734.97	7090.8	
735.15	5528.2	
735.33	5745.2	
735.51	7297.6	
735.69	7150.1	
735.87	6415.6	
736.05	5805.3	
736.23	7167.2	
736.41	6917.4	
736.59	5799.8	
736.77	5861.3	
736.95	7404.8	
737.13	7059.3	
737.32	5496.7	
737.5	5638.1	
737.68	7851.9	
737.86	6916.7	
738.04	5344.5	
738.22	6593.8	
738.4	6714.6	
738.58	6969.2	
738.76	5721.3	
738.94	5035.3	
739.12	6799.3	
739.3	6772.6	
739.48	6064	
739.66	5952.1	
739.84	6980.8	
740.02	6963.1	
740.2	5117.9	
740.38	5287.2	
740.56	7195.2	
740.74	6298.2	
740.92	5693.4	
741.1	5528.8	
741.28	6815.6	
741.46	6604.7	
741.64	5308.3	
741.82	5698.8	
742	6812.9	
742.18	6720.8	
742.36	5436	
742.54	5227.1	
742.72	7217.7	
742.9	6198.5	
743.08	5653.1	
743.26	4846.9	
743.44	7103	
743.62	6982.2	
743.8	5754.1	
743.98	5083.7	
744.16	6834.1	
744.34	6580.1	
744.52	5632.6	
744.7	5520	
744.88	6919.4	
745.06	6548.7	
745.24	5628.5	
745.42	5751.4	
745.6	6960.4	
745.78	6810.9	
745.96	4840	
746.14	4913.8	
746.32	7416.4	
746.5	6832	
746.68	5268.7	
746.86	4945.8	
747.03	7015	
747.21	6062.7	
747.39	5236	
747.57	4911	
747.75	6537.8	
747.93	6727.6	
748.11	4828.4	
748.29	4831.2	
748.47	7653.9	
748.65	6300.2	
748.83	5317.9	
749.01	5091.9	
749.19	6612.9	
749.37	6002.6	
749.55	5068.7	
749.73	5111	
749.91	6431.3	
750.09	6238.8	
750.26	5089.2	
750.44	4715.1	
750.62	6401.3	
750.8	6279.1	
750.98	4562.9	
751.16	4833.9	
751.34	6498.2	
751.52	5930.2	
751.7	5356.1	
751.88	4500.8	
752.06	6738.5	
752.24	6496.2	
752.42	4499.4	
752.59	4719.9	
752.77	6271.6	
752.95	7181.5	
753.13	5300.8	
753.31	4831.8	
753.49	6046.3	
753.67	6289.3	
753.85	4995.7	
754.03	4627	
754.21	6466.1	
754.38	6636.8	
754.56	4662.5	
754.74	4099.4	
754.92	5827.2	
755.1	6135.7	
755.28	3908.9	
755.46	3964.2	
755.64	6634.7	
755.82	6625.2	
755.99	3947.8	
756.17	3838.6	
756.35	4629.8	
756.53	5622.4	
756.71	2975	
756.89	3616.7	
757.07	5361.6	
757.25	4770.4	
757.42	4013.3	
757.6	4598.4	
757.78	5498.8	
757.96	4889.2	
758.14	3901.4	
758.32	3581.9	
758.5	4574.5	
758.67	5155.4	
758.85	3716.4	
759.03	3809.2	
759.21	5261.9	
759.39	4851	
759.57	3476.8	
759.75	4224.3	
759.92	5782.8	
760.1	5290.6	
760.28	4474.1	
760.46	4696.7	
760.64	5122.7	
760.82	5098.8	
760.99	4478.2	
761.17	3946.4	
761.35	5738.4	
761.53	4952.7	
761.71	4185.4	
761.89	4461.2	
762.06	5630.5	
762.24	5296.7	
762.42	4198.3	
762.6	3993.5	
762.78	5457.8	
762.96	5767.8	
763.13	4485.1	
763.31	4148.5	
763.49	5901.6	
763.67	5379.3	
763.85	4779.3	
764.02	5171.8	
764.2	6152.8	
764.38	5483.1	
764.56	4068.6	
764.74	4670.1	
764.91	6189.6	
765.09	5416.9	
765.27	3934.8	
765.45	3765.5	
765.63	6284.5	
765.8	6004.6	
765.98	3653.6	
766.16	3790.8	
766.34	5140.4	
766.52	4940.4	
766.69	4456.4	
766.87	3698.6	
767.05	5390.9	
767.23	5829.9	
767.41	3834.5	
767.58	4032.5	
767.76	5676.3	
767.94	5823.7	
768.12	3917.8	
768.29	4366.3	
768.47	5328.1	
768.65	5834.7	
768.83	3619.4	
769	4387.4	
769.18	5012.1	
769.36	5471.5	
769.54	4352.6	
769.72	3617.4	
769.89	5713.2	
770.07	5725.4	
770.25	3827.7	
770.43	4719.2	
770.6	6216.3	
770.78	6404	
770.96	3945.8	
771.14	4277.5	
771.31	5625.8	
771.49	5169.1	
771.67	3320.4	
771.85	3485.6	
772.02	4686.4	
772.2	5117.2	
772.38	4057.7	
772.55	3658.4	
772.73	5319.3	
772.91	5182	
773.09	3839.9	
773.26	3970.3	
773.44	5262.6	
773.62	5083.1	
773.8	3547.8	
773.97	3394.2	
774.15	5362.3	
774.33	5083.7	
774.5	3411.2	
774.68	3689.1	
774.86	5375.9	
775.04	5020.3	
775.21	3495.2	
775.39	3460.4	
775.57	5208	
775.74	5368.4	
775.92	3373	
776.1	3256.3	
776.27	5118.6	
776.45	5978	
776.63	3446	
776.81	3170.9	
776.98	4927.4	
777.16	5649.7	
777.34	3479.5	
777.51	3747.8	
777.69	4891.2	
777.87	4735.6	
778.04	3594.2	
778.22	3956	
778.4	4725.3	
778.57	5134.9	
778.75	3035.1	
778.93	3224.2	
779.1	4609.3	
779.28	4461.8	
779.46	3050.8	
779.64	3327.3	
779.81	5323.4	
779.99	5815.5	
780.17	3825.6	
780.34	3915.7	
780.52	4860.5	
780.69	4955.4	
780.87	3547.8	
781.05	3239.2	
781.22	4962.9	
781.4	4934.9	
781.58	3368.2	
781.75	2800.9	
781.93	4988.9	
782.11	4445.5	
782.28	3934.8	
782.46	3263.8	
782.64	4386.7	
782.81	5053	
782.99	3493.2	
783.17	3359.4	
783.34	4917.9	
783.52	4510.3	
783.69	3463.8	
783.87	4021.5	
784.05	4528.7	
784.22	4485.1	
784.4	4022.2	
784.58	3520.5	
784.75	5202.5	
784.93	4557.4	
785.1	3319.1	
785.28	3694.5	
785.46	4969.1	
785.63	4467.3	
785.81	3265.1	
785.99	3171.6	
786.16	4635.9	
786.34	4881.7	
786.51	3168.9	
786.69	3568.2	
786.87	4315.1	
787.04	4642.1	
787.22	3131.3	
787.39	3749.1	
787.57	4490.5	
787.75	5199.1	
787.92	3977.2	
788.1	3774.4	
788.27	4420.2	
788.45	4216.1	
788.63	3612.6	
788.8	2736.1	
788.98	4784.7	
789.15	4191.5	
789.33	2880.1	
789.5	3250.1	
789.68	5028.4	
789.86	5096	
790.03	3535.5	
790.21	3138.2	
790.38	5097.4	
790.56	4531.5	
790.73	3123.2	
790.91	3071.3	
791.09	4467.3	
791.26	4906.3	
791.44	3302.7	
791.61	2891	
791.79	4429.8	
791.96	4438.6	
792.14	2969.6	
792.32	2659.6	
792.49	4398.4	
792.67	4493.2	
792.84	3007.1	
793.02	2884.2	
793.19	4803.2	
793.37	5205.9	
793.54	2658.9	
793.72	2934.1	
793.89	5289.9	
794.07	4359.4	
794.25	3358	
794.42	2717	
794.6	5156.8	
794.77	4805.2	
794.95	3469.9	
795.12	3059.7	
795.3	4414.7	
795.47	4792.9	
795.65	3371	
795.82	3255.6	
796	4278.2	
796.17	5554.8	
796.35	3164.8	
796.52	3680.2	
796.7	4861.2	
796.87	4844.1	
797.05	3170.3	
797.22	3707.5	
797.4	4831.8	
797.57	5482.4	
797.75	3325.2	
797.92	3123.2	
798.1	5038	
798.27	4289.1	
798.45	2729.3	
798.62	2912.2	
798.8	4603.8	
798.97	4917.9	
799.15	3373.7	
799.32	3276.1	
799.5	4151.2	
799.67	4596.3	
799.85	3492.5	
800.02	2649.4	
800.2	4362.2	
800.37	4478.9	
800.55	3564.1	
800.72	3045.3	
800.9	4934.2	
801.07	5134.9	
801.25	3948.5	
801.42	3330.7	
801.6	4934.9	
801.77	4587.4	
801.95	3157.3	
802.12	2997.5	
802.29	4721.3	
802.47	4627	
802.64	3336.1	
802.82	2680.8	
802.99	4394.3	
803.17	5041.4	
803.34	3275.4	
803.52	2940.9	
803.69	5476.3	
803.87	4162.2	
804.04	3252.9	
804.21	3259	
804.39	5159.5	
804.56	4485.7	
804.74	2824.1	
804.91	3319.8	
805.09	4325.3	
805.26	4403.1	
805.44	2906.1	
805.61	3143.6	
805.78	4808.6	
805.96	4805.9	
806.13	3322.5	
806.31	3539.6	
806.48	4037.9	
806.66	4379.9	
806.83	3279.5	
807	3196.9	
807.18	4302.1	
807.35	4558.8	
807.53	3093.1	
807.7	2713.6	
807.87	5152	
808.05	4289.1	
808.22	3446.7	
808.4	2620	
808.57	4293.2	
808.74	4134.2	
808.92	2983.9	
809.09	3713.6	
809.27	4348.5	
809.44	4629.1	
809.61	2680.1	
809.79	2921.8	
809.96	5251	
810.14	4804.5	
810.31	2600.9	
810.48	3158.7	
810.66	4339	
810.83	4870.8	
811.01	2975.7	
811.18	3299.3	
811.35	4886.5	
811.53	3919.1	
811.7	3553.9	
811.87	3309.5	
812.05	4454.3	
812.22	4321.9	
812.39	2933.4	
812.57	2854.2	
812.74	4413.4	
812.92	5481	
813.09	3165.5	
813.26	3312.9	
813.44	5266	
813.61	4263.2	
813.78	2695.8	
813.96	3375.1	
814.13	4367.6	
814.3	4192.9	
814.48	3670	
814.65	3145	
814.82	5137.7	
815	4176.5	
815.17	3164.8	
815.34	3723.2	
815.52	4301.4	
815.69	4283.7	
815.87	3107.5	
816.04	3101.3	
816.21	4334.2	
816.38	3975.8	
816.56	3094.5	
816.73	2877.4	
816.9	5307	
817.08	4792.9	
817.25	2913.6	
817.42	3500.7	
817.6	4057	
817.77	4252.3	
817.94	3228.3	
818.12	2846.7	
818.29	4212	
818.46	5867.4	
818.64	3050.8	
818.81	2820.1	
818.98	4190.1	
819.16	5539.8	
819.33	3387.3	
819.5	3136.1	
819.67	4627.7	
819.85	5025	
820.02	3151.8	
820.19	3277.4	
820.37	4525.3	
820.54	4260.5	
820.71	3231.7	
820.88	3936.2	
821.06	4478.9	
821.23	4156	
821.4	3259.7	
821.58	3187.3	
821.75	4782.7	
821.92	4474.8	
822.09	2674	
822.27	2713.6	
822.44	4387.4	
822.61	4287.8	
822.79	2687.6	
822.96	4835.3	
823.13	4552.6	
823.3	4091.2	
823.48	2997.5	
823.65	2762.7	
823.82	4862.6	
823.99	4018.8	
824.17	3794.9	
824.34	2840.5	
824.51	5505.6	
824.68	4375.1	
824.86	2897.9	
825.03	3169.6	
825.2	4377.2	
825.37	5018.2	
825.55	2858.3	
825.72	3166.2	
825.89	5410.1	
826.06	5087.2	
826.24	3053.5	
826.41	3102.7	
826.58	5195.7	
826.75	4539.7	
826.92	2600.9	
827.1	2732	
827.27	6586.3	
827.44	5386.2	
827.61	2981.2	
827.79	3473.4	
827.96	4202.4	
828.13	4345.1	
828.3	3083.6	
828.47	2628.9	
828.65	4616.8	
828.82	4524.6	
828.99	3842	
829.16	3339.6	
829.34	4831.8	
829.51	4649.6	
829.68	3182.5	
829.85	3183.2	
830.02	5141.1	
830.2	4840	
830.37	2525.1	
830.54	3689.1	
830.71	5355.4	
830.88	4362.2	
831.05	2540.8	
831.23	2871.3	
831.4	5264.6	
831.57	5634.6	
831.74	2984.6	
831.91	2634.4	
832.09	4631.1	
832.26	4862.6	
832.43	2990	
832.6	3335.5	
832.77	4637.3	
832.94	5087.8	
833.12	2461.7	
833.29	2985.3	
833.46	4638	
833.63	5711.1	
833.8	3242.6	
833.97	2996.2	
834.15	4834.6	
834.32	4683.7	
834.49	3159.3	
834.66	3161.4	
834.83	4924.7	
835	4231.1	
835.17	2949.1	
835.35	2899.9	
835.52	4807.9	
835.69	4635.9	
835.86	3049.4	
836.03	2569.5	
836.2	4861.9	
836.37	4554.7	
836.55	2991.4	
836.72	2830.3	
836.89	4490.5	
837.06	4928.8	
837.23	3014.6	
837.4	3285.6	
837.57	5386.8	
837.75	5732.3	
837.92	2796.8	
838.09	2917	
838.26	4528.1	
838.43	4948.6	
838.6	3157.3	
838.77	2818	
838.94	5532.2	
839.11	5412.8	
839.29	3002.3	
839.46	2453.5	
839.63	4940.4	
839.8	4572.4	
839.97	2921.8	
840.14	2896.5	
840.31	4705.5	
840.48	4835.3	
840.65	2501.9	
840.82	2896.5	
841	4825.7	
841.17	4749.2	
841.34	2684.9	
841.51	2819.4	
841.68	4772.4	
841.85	4571.7	
842.02	2826.9	
842.19	2422.1	
842.36	4650.3	
842.53	4621.6	
842.7	2788	
842.87	3233.7	
843.05	5793.7	
843.22	4528.1	
843.39	2599.6	
843.56	2804.4	
843.73	4447.5	
843.9	4865.3	
844.07	4149.2	
844.24	3489.1	
844.41	6442.9	
844.58	4308.2	
844.75	2684.9	
844.92	2816	
845.09	4732.9	
845.26	4812	
845.43	2737.5	
845.6	2878.8	
845.77	4799.8	
845.94	4629.8	
846.12	2958.6	
846.29	3118.4	
846.46	4962.2	
846.63	4732.9	
846.8	2678.1	
846.97	3098.6	
847.14	5150.6	
847.31	4749.9	
847.48	3006.4	
847.65	3291.1	
847.82	4902.2	
847.99	4911	
848.16	3467.2	
848.33	3226.2	
848.5	4476.9	
848.67	5151.3	
848.84	2700.6	
849.01	2810.5	
849.18	4406.5	
849.35	4157.4	
849.52	3347.1	
849.69	2664.4	
849.86	4934.9	
850.03	4988.9	
850.2	2740.2	
850.37	3242.6	
850.54	4999.8	
850.71	4530.1	
850.88	3244	
851.05	2696.5	
851.22	4732.9	
851.39	5165	
851.56	2570.2	
851.73	3063.1	
851.9	4287.1	
852.07	4904.2	
852.24	2980.5	
852.41	2704.7	
852.58	4736.3	
852.75	4356.7	
852.92	3001.6	
853.09	2644.6	
853.26	4481	
853.43	5046.2	
853.6	2693.8	
853.77	2393.4	
853.94	5158.2	
854.11	4251.6	
854.28	3839.3	
854.44	2901.3	
854.61	5465.3	
854.78	4995	
854.95	2728.6	
855.12	3276.1	
855.29	3967.6	
855.46	5234.6	
855.63	2732.7	
855.8	3596.9	
855.97	4499.4	
856.14	5010	
856.31	3684.3	
856.48	2879.4	
856.65	4493.2	
856.82	4237.9	
856.99	2595.5	
857.16	2915.6	
857.33	5616.2	
857.49	4567	
857.66	2891.7	
857.83	3036.5	
858	4596.3	
858.17	4673.5	
858.34	2568.2	
858.51	2729.3	
858.68	5124.7	
858.85	5186.1	
859.02	3087.7	
859.19	3203.7	
859.36	4313	
859.52	4289.8	
859.69	2685.6	
859.86	3088.3	
860.03	4296	
860.2	5109	
860.37	2493.7	
860.54	2732	
860.71	4926.7	
860.88	5180	
861.05	2971.6	
861.21	3250.8	
861.38	5208	
861.55	4160.8	
861.72	2493.1	
861.89	2945	
862.06	4943.1	
862.23	5248.9	
862.4	2648	
862.56	2749.1	
862.73	4868	
862.9	4608.6	
863.07	3086.3	
863.24	2518.3	
863.41	4217.5	
863.58	4302.1	
863.75	2710.1	
863.91	3133.4	
864.08	5011.4	
864.25	4848.2	
864.42	3211.9	
864.59	3636.5	
864.76	5444.2	
864.93	4280.3	
865.09	2652.8	
865.26	2872.6	
865.43	5083.7	
865.6	5370.5	
865.77	2390	
865.94	2676.7	
866.1	5067.4	
866.27	4859.8	
866.44	3907.5	
866.61	2634.4	
866.78	4567.7	
866.95	4844.8	
867.11	2652.1	
867.28	2442.5	
867.45	5006.6	
867.62	4295.3	
867.79	3147.7	
867.96	2708.1	
868.12	4282.3	
868.29	4919.2	
868.46	2654.2	
868.63	3506.1	
868.8	5023	
868.97	4834.6	
869.13	2768.9	
869.3	2830.3	
869.47	4766.3	
869.64	4969.1	
869.81	2682.8	
869.97	2693.1	
870.14	4678.9	
870.31	5164.3	
870.48	2614.6	
870.65	3295.2	
870.81	4556	
870.98	4544.4	
871.15	3015.3	
871.32	2815.3	
871.48	4800.4	
871.65	5246.2	
871.82	2687.6	
871.99	2918.4	
872.16	5559.6	
872.32	5111.7	
872.49	2727.9	
872.66	2699.2	
872.83	4958.1	
872.99	4365.6	
873.16	3029.6	
873.33	2708.1	
873.5	4605.2	
873.67	4707.6	
873.83	2835.8	
874	3491.1	
874.17	4803.2	
874.34	5381.4	
874.5	3383.2	
874.67	3292.5	
874.84	5152.7	
875.01	4146.5	
875.17	3646.1	
875.34	2685.6	
875.51	4695.3	
875.68	5461.2	
875.84	3170.9	
876.01	3740.3	
876.18	4888.5	
876.34	4832.5	
876.51	2704	
876.68	2676	
876.85	4488.5	
877.01	5127.4	
877.18	3663.1	
877.35	2645.3	
877.52	4728.1	
877.68	4217.5	
877.85	2703.3	
878.02	2644.6	
878.18	4498.7	
878.35	4408.6	
878.52	2261	
878.69	3096.5	
878.85	4987.5	
879.02	4878.3	
879.19	3650.2	
879.35	2856.9	
879.52	4924.7	
879.69	4885.1	
879.86	2401.6	
880.02	3003	
880.19	4603.2	
880.36	5415.5	
880.52	3024.2	
880.69	3136.8	
880.86	4989.5	
881.02	4894.6	
881.19	2941.6	
881.36	2902	
881.52	4915.1	
881.69	4328	
881.86	2882.9	
882.02	2824.8	
882.19	5069.4	
882.36	5772.5	
882.52	2768.2	
882.69	3615.3	
882.86	4732.9	
883.02	4694.6	
883.19	3190.1	
883.36	2970.2	
883.52	4971.8	
883.69	5500.8	
883.86	2699.2	
884.02	2480.8	
884.19	4906.3	
884.36	4648.2	
884.52	3023.5	
884.69	2835.1	
884.86	4495.3	
885.02	5302.9	
885.19	3011.9	
885.36	3073.3	
885.52	4612	
885.69	4739	
885.86	3736.2	
886.02	3333.4	
886.19	4913.8	
886.35	4455	
886.52	2955.2	
886.69	3571.7	
886.85	4306.9	
887.02	5139.7	
887.19	5139.7	
887.35	5139.7	
887.52	5139.7	
887.68	5139.7	
887.85	5139.7	
888.02	5139.7	
888.18	5139.7	
888.35	5139.7	
888.51	5139.7	
888.68	5139.7	
888.85	5139.7	
889.01	5139.7	
889.18	5139.7	
889.35	5139.7	
889.51	5139.7	
889.68	5139.7	
889.84	5139.7	
890.01	5139.7	
890.17	5139.7	
890.34	5139.7	
890.51	5139.7	
890.67	5139.7	
890.84	5139.7	
891	5139.7	
891.17	5139.7	
891.34	5139.7	
891.5	5139.7	
891.67	5139.7	
891.83	5139.7	
892	5139.7	
892.16	5139.7	
892.33	5139.7	
892.5	5139.7	
892.66	5139.7	
892.83	5139.7	
892.99	5139.7	
893.16	5139.7	
893.32	5139.7	
893.49	5139.7	
893.65	5139.7	
893.82	5139.7	
893.99	5139.7	
894.15	5139.7	
894.32	5139.7	
894.48	5139.7	
894.65	5139.7	
894.81	5139.7	
894.98	5139.7	
895.14	5139.7	
895.31	5139.7	
895.47	5139.7	
895.64	5139.7	
895.81	5139.7	
895.97	5139.7	
896.14	5139.7	
896.3	5139.7	
896.47	5139.7	
896.63	5139.7	
896.8	5139.7	
896.96	5139.7	
897.13	5139.7	
897.29	5139.7	
897.46	5139.7	
897.62	5139.7	
897.79	5139.7	
897.95	5139.7	
898.12	5139.7	
898.28	5139.7	
898.45	5139.7	
898.61	5139.7	
898.78	5139.7	
898.94	5139.7	
899.11	5139.7	
899.27	5139.7	
899.44	5139.7	
899.6	5139.7	
899.77	5139.7	
899.93	5139.7	
900.1	5139.7	
900.26	5139.7	
900.43	5139.7	
900.59	5139.7	
900.76	5139.7	
900.92	5139.7	
901.09	5139.7	
901.25	5139.7	
901.42	5139.7	
901.58	5139.7	
901.75	5139.7	
901.91	5139.7	
902.07	5139.7	
902.24	5139.7	
902.4	5139.7	
902.57	5139.7	
902.73	5139.7	
902.9	5139.7	
903.06	5139.7	
903.23	5139.7	
903.39	5139.7	
903.56	5139.7	
903.72	5139.7	
903.88	5139.7	
904.05	5139.7	
904.21	5139.7	
904.38	5139.7	
904.54	5139.7	
904.71	5139.7	
904.87	5139.7	
905.03	5139.7	
905.2	5139.7	
905.36	5139.7	
905.53	5139.7	
905.69	5139.7	
905.86	5139.7	
906.02	5139.7	
906.18	5139.7	
906.35	5139.7	
906.51	5139.7	
906.68	5139.7	
906.84	5139.7	
907.01	5139.7	
907.17	5139.7	
907.33	5139.7	
907.5	5139.7	
907.66	5139.7	
907.83	5139.7	
907.99	5139.7	
908.15	5139.7	
908.32	5139.7	
908.48	5139.7	
908.65	5139.7	
908.81	5139.7	
908.97	5139.7	
909.14	5139.7	
909.3	5139.7	
909.47	5139.7	
909.63	5139.7	
909.79	5139.7	
909.96	5139.7	
910.12	5139.7	
910.28	5139.7	
910.45	5139.7	
910.61	5139.7	
910.78	5139.7	
910.94	5139.7	
911.1	5139.7	
911.27	5139.7	
911.43	5139.7	
911.59	5139.7	
911.76	5139.7	
911.92	5139.7	
912.08	5139.7	
912.25	5139.7	
912.41	5139.7	
912.57	5139.7	
912.74	5139.7	
912.9	5139.7	
913.07	5139.7	
913.23	5139.7	
913.39	5139.7	
913.56	5139.7	
913.72	5139.7	
913.88	5139.7	
914.05	5139.7	
914.21	5139.7	
914.37	5139.7	
914.54	5139.7	
914.7	5139.7	
914.86	5139.7	
915.03	5139.7	
915.19	5139.7	
