Wavelength	Intensities	
nm	a.u.	
179.22	1721.5	
179.44	1731.6	
179.65	1711.4	
179.86	1751.7	
180.08	1729.2	
180.29	4074.8	
180.51	2994.1	
180.72	5066.7	
180.94	5666.7	
181.15	2783.2	
181.37	2756.6	
181.58	4932.2	
181.79	5068.7	
182.01	2924.5	
182.22	3094.5	
182.44	5094.7	
182.65	4384	
182.87	3769.6	
183.08	3344.3	
183.29	5338.4	
183.51	4466.6	
183.72	3123.2	
183.94	4307.6	
184.15	4786.8	
184.37	4754.7	
184.58	2744.3	
184.79	3580.5	
185.01	4547.2	
185.22	5124.7	
185.44	3832.4	
185.65	3273.3	
185.86	4791.6	
186.08	4411.3	
186.29	2693.8	
186.51	2870.6	
186.72	4550.6	
186.94	5175.2	
187.15	3242.6	
187.36	3335.5	
187.58	6552.8	
187.79	4887.1	
188.01	3430.3	
188.22	5246.2	
188.43	5681.1	
188.65	5034.6	
188.86	2891.7	
189.08	3430.3	
189.29	4689.8	
189.5	4647.5	
189.72	3064.4	
189.93	3197.6	
190.15	5272.8	
190.36	6028.5	
190.57	3396.9	
190.79	3300	
191	5261.9	
191.22	5297.4	
191.43	3409.2	
191.64	2867.2	
191.86	5470.1	
192.07	5324	
192.29	3009.1	
192.5	3090.4	
192.71	5256.5	
192.93	4623.6	
193.14	3084.2	
193.35	3207.8	
193.57	4646.2	
193.78	5193.6	
194	2568.8	
194.21	3109.5	
194.42	4470.7	
194.64	4818.9	
194.85	3340.2	
195.07	3847.5	
195.28	4820.2	
195.49	4274.1	
195.71	4029.7	
195.92	2893.8	
196.13	4993.6	
196.35	5031.2	
196.56	4261.8	
196.78	3375.7	
196.99	6105	
197.2	5690.6	
197.42	3794.2	
197.63	3416.7	
197.84	4429.1	
198.06	4950.6	
198.27	3132.7	
198.48	4106.2	
198.7	4607.2	
198.91	4823	
199.13	3367.5	
199.34	3395.5	
199.55	5163.6	
199.77	4172.4	
199.98	2971.6	
200.19	3454.2	
200.41	4721.9	
200.62	4532.2	
200.83	3493.2	
201.05	3756.7	
201.26	4771.8	
201.47	4524	
201.69	3059.7	
201.9	2944.3	
202.11	4838	
202.33	5582.1	
202.54	3238.5	
202.76	3561.4	
202.97	4869.4	
203.18	4906.9	
203.4	3529.3	
203.61	3480.2	
203.82	4891.2	
204.04	4559.5	
204.25	3387.3	
204.46	3312.9	
204.68	4835.9	
204.89	4969.7	
205.1	3296.5	
205.32	2932	
205.53	5099.4	
205.74	5177.9	
205.96	2512.9	
206.17	3462.4	
206.38	5059.8	
206.6	5211.4	
206.81	3854.3	
207.02	3176.4	
207.24	4990.2	
207.45	5310.4	
207.66	3246.7	
207.88	2800.3	
208.09	4946.5	
208.3	4850.3	
208.52	2998.9	
208.73	3247.4	
208.94	4811.4	
209.15	5362.9	
209.37	3186	
209.58	3590.8	
209.79	5199.8	
210.01	4676.2	
210.22	2641.2	
210.43	2766.1	
210.65	4795.7	
210.86	5114.5	
211.07	3203	
211.29	2992.1	
211.5	4986.1	
211.71	4739	
211.93	3017.3	
212.14	3027.6	
212.35	4775.2	
212.56	4906.3	
212.78	3437.2	
212.99	2839.2	
213.2	5535.7	
213.42	4666.6	
213.63	3050.1	
213.84	3290.4	
214.06	4327.4	
214.27	4411.3	
214.48	3201	
214.69	3459.7	
214.91	5370.5	
215.12	5440.8	
215.33	3398.9	
215.55	3702.7	
215.76	5796.4	
215.97	5070.8	
216.18	3290.4	
216.4	3297.9	
216.61	4580.6	
216.82	5201.8	
217.04	3016	
217.25	3132	
217.46	5325.4	
217.67	5128.8	
217.89	2759.3	
218.1	2811.2	
218.31	4827.7	
218.53	4983.4	
218.74	3181.2	
218.95	3056.3	
219.16	4797	
219.38	5518.6	
219.59	3074	
219.8	3588	
220.01	5905.7	
220.23	4866	
220.44	3893.9	
220.65	2994.1	
220.87	4882.4	
221.08	5321.3	
221.29	2846.7	
221.5	3615.3	
221.72	6236.7	
221.93	4560.8	
222.14	3452.2	
222.35	3894.6	
222.57	4742.4	
222.78	5108.3	
222.99	3235.8	
223.2	3475.4	
223.42	5098.1	
223.63	5150	
223.84	2550.4	
224.05	2573.6	
224.27	5891.3	
224.48	5500.8	
224.69	3971.7	
224.9	3439.2	
225.12	4983.4	
225.33	4775.9	
225.54	2750.4	
225.75	3055.6	
225.97	4495.3	
226.18	4792.2	
226.39	3214.6	
226.6	3041.9	
226.82	4604.5	
227.03	4504.2	
227.24	3369.6	
227.45	2856.2	
227.67	5180.7	
227.88	5510.4	
228.09	3763.5	
228.3	3735.5	
228.52	5052.3	
228.73	4790.9	
228.94	3157.3	
229.15	2820.7	
229.36	4763.6	
229.58	4737.6	
229.79	3209.8	
230	3654.3	
230.21	5609.4	
230.43	4909.7	
230.64	3310.9	
230.85	3507.5	
231.06	5160.2	
231.28	5173.9	
231.49	2811.9	
231.7	3295.9	
231.91	5068	
232.12	4805.2	
232.34	2946.3	
232.55	3273.3	
232.76	5277.6	
232.97	4945.2	
233.18	3047.4	
233.4	3365.5	
233.61	4977.2	
233.82	4599.7	
234.03	3151.8	
234.25	3092.4	
234.46	6369.2	
234.67	4863.9	
234.88	3433.8	
235.09	3036.5	
235.31	4998.4	
235.52	4715.1	
235.73	3383.9	
235.94	2925.2	
236.15	4583.4	
236.37	5687.9	
236.58	2977.1	
236.79	3272.7	
237	5040.1	
237.21	4394.9	
237.43	3433.1	
237.64	2807.8	
237.85	8013	
238.06	4474.1	
238.27	3482.9	
238.48	2875.3	
238.7	5069.4	
238.91	4749.9	
239.12	3192.8	
239.33	3302.7	
239.54	4517.1	
239.76	4723.3	
239.97	3237.2	
240.18	3263.1	
240.39	5782.8	
240.6	4978.6	
240.82	3375.1	
241.03	2857.6	
241.24	4746.5	
241.45	5427.8	
241.66	3008.5	
241.87	3464.5	
242.09	5371.1	
242.3	5638.7	
242.51	3485.6	
242.72	3204.4	
242.93	5182.7	
243.14	4730.8	
243.36	3645.4	
243.57	3941.7	
243.78	5493.3	
243.99	4984.8	
244.2	3208.5	
244.41	2996.9	
244.63	4429.8	
244.84	4977.9	
245.05	3415.3	
245.26	3252.2	
245.47	5124.7	
245.68	5153.4	
245.9	4149.2	
246.11	3405.8	
246.32	4645.5	
246.53	4981.3	
246.74	5064.6	
246.95	2790.7	
247.16	4476.2	
247.38	4810.7	
247.59	2794.8	
247.8	3323.2	
248.01	4513	
248.22	4762.9	
248.43	2933.4	
248.64	3241.3	
248.86	4371.7	
249.07	4612.7	
249.28	2870.6	
249.49	3356.6	
249.7	5238	
249.91	5285.8	
250.12	2724.5	
250.34	2785.2	
250.55	4902.2	
250.76	4784.1	
250.97	3377.1	
251.18	3400.3	
251.39	5267.4	
251.6	4954	
251.81	3454.2	
252.03	3353.2	
252.24	4622.3	
252.45	5172.5	
252.66	2899.9	
252.87	3508.2	
253.08	4862.6	
253.29	6026.5	
253.5	2919	
253.72	3874.8	
253.93	4679.6	
254.14	5571.2	
254.35	3096.5	
254.56	3173.7	
254.77	4976.6	
254.98	4513	
255.19	3061.7	
255.41	3859.7	
255.62	4941.1	
255.83	5332.2	
256.04	3498.6	
256.25	3364.1	
256.46	5752.7	
256.67	4590.9	
256.88	3361.4	
257.09	3642.7	
257.31	4493.2	
257.52	4569	
257.73	4132.1	
257.94	3076.7	
258.15	4772.4	
258.36	4799.1	
258.57	3821.5	
258.78	2534	
258.99	5233.2	
259.2	4648.9	
259.41	3099.3	
259.63	3190.1	
259.84	5457.8	
260.05	5781.4	
260.26	3945.8	
260.47	3058.3	
260.68	5232.6	
260.89	4706.9	
261.1	3717.1	
261.31	2972.3	
261.52	5349.3	
261.73	5485.1	
261.95	3933.5	
262.16	3392.8	
262.37	5309	
262.58	5399.1	
262.79	3947.1	
263	3170.9	
263.21	4842.8	
263.42	4687.1	
263.63	3392.8	
263.84	3162.7	
264.05	5201.8	
264.26	5474.2	
264.47	3813.3	
264.69	3498.6	
264.9	5410.1	
265.11	4933.6	
265.32	2998.2	
265.53	3108.1	
265.74	4919.2	
265.95	4363.5	
266.16	3265.1	
266.37	3579.8	
266.58	4943.8	
266.79	4632.5	
267	3089	
267.21	2918.4	
267.42	4426.3	
267.63	4762.9	
267.84	3216.7	
268.06	2807.8	
268.27	5173.9	
268.48	5335.6	
268.69	3180.5	
268.9	3663.1	
269.11	5324	
269.32	4320.5	
269.53	3280.8	
269.74	3020.1	
269.95	5004.6	
270.16	4372.4	
270.37	3272.7	
270.58	3701.4	
270.79	4688.5	
271	5191.6	
271.21	3402.4	
271.42	3266.5	
271.63	4993.6	
271.84	4476.2	
272.05	2681.5	
272.26	2975.7	
272.47	4851	
272.68	4947.2	
272.89	3136.8	
273.11	3474.7	
273.32	4608.6	
273.53	5501.5	
273.74	3439.9	
273.95	3390.8	
274.16	5226.4	
274.37	4863.2	
274.58	3605.1	
274.79	2885.6	
275	4927.4	
275.21	5264.6	
275.42	4240	
275.63	3603.7	
275.84	5032.5	
276.05	6153.5	
276.26	3381.9	
276.47	3221.5	
276.68	4761.5	
276.89	5634	
277.1	3648.1	
277.31	2927.9	
277.52	4988.2	
277.73	5214.1	
277.94	2826.9	
278.15	3123.8	
278.36	4977.9	
278.57	4560.1	
278.78	3118.4	
278.99	3507.5	
279.2	4597.7	
279.41	4533.5	
279.62	4092.5	
279.83	2891.7	
280.04	5756.8	
280.25	4471.4	
280.46	3989.4	
280.67	3238.5	
280.88	4555.4	
281.09	5286.5	
281.3	3429	
281.51	4151.2	
281.72	4560.8	
281.93	5189.6	
282.14	3037.8	
282.35	3302	
282.56	5190.9	
282.77	5161.6	
282.98	3127.9	
283.19	3821.5	
283.4	6139.8	
283.61	4786.1	
283.82	2908.1	
284.03	3921.2	
284.24	4958.1	
284.45	5283.1	
284.66	3984.7	
284.87	3723.9	
285.08	5218.9	
285.29	5325.4	
285.5	2824.1	
285.71	3181.9	
285.92	5264.6	
286.12	5713.8	
286.33	3961.5	
286.54	3210.5	
286.75	5165	
286.96	4702.1	
287.17	2908.1	
287.38	3848.8	
287.59	4607.2	
287.8	4599.7	
288.01	3203	
288.22	3586.7	
288.43	5164.3	
288.64	4355.3	
288.85	3711.6	
289.06	3566.9	
289.27	5360.2	
289.48	5459.9	
289.69	3995.6	
289.9	3607.8	
290.11	5313.8	
290.32	4641.4	
290.53	3794.2	
290.74	3500	
290.94	5162.2	
291.15	5218.2	
291.36	3076.7	
291.57	3582.6	
291.78	4662.5	
291.99	4351.9	
292.2	3022.8	
292.41	3491.1	
292.62	5241.4	
292.83	5085.8	
293.04	4218.1	
293.25	3050.8	
293.46	4635.2	
293.67	5300.8	
293.88	3093.1	
294.09	2964.1	
294.29	4473.4	
294.5	4938.3	
294.71	3266.5	
294.92	3145.7	
295.13	4708.3	
295.34	5671.5	
295.55	2797.5	
295.76	2803	
295.97	5088.5	
296.18	5666	
296.39	2934.1	
296.6	3024.8	
296.81	4776.5	
297.01	5122	
297.22	3230.3	
297.43	3067.2	
297.64	4572.4	
297.85	4530.8	
298.06	2598.2	
298.27	2787.3	
298.48	4823.6	
298.69	4599.1	
298.9	3295.9	
299.11	3015.3	
299.31	4463.2	
299.52	4440.7	
299.73	3564.1	
299.94	3472.7	
300.15	4814.1	
300.36	4622.9	
300.57	3458.3	
300.78	3397.6	
300.99	4674.8	
301.2	4847.5	
301.4	3106.1	
301.61	3291.1	
301.82	5076.9	
302.03	5128.8	
302.24	3665.9	
302.45	2921.8	
302.66	5041.4	
302.87	5279.7	
303.08	3088.3	
303.29	4066.6	
303.49	4675.5	
303.7	4779.3	
303.91	2807.8	
304.12	3839.9	
304.33	4416.1	
304.54	4945.8	
304.75	3097.2	
304.96	2957.3	
305.16	5064.6	
305.37	5581.4	
305.58	2747	
305.79	2850.8	
306	5070.1	
306.21	4345.8	
306.42	3089.7	
306.63	4549.2	
306.83	4679.6	
307.04	5203.2	
307.25	3386.7	
307.46	3319.8	
307.67	4283.7	
307.88	5079	
308.09	3050.8	
308.29	3131.3	
308.5	4926.7	
308.71	5190.9	
308.92	3246	
309.13	2998.2	
309.34	4776.5	
309.55	4728.1	
309.75	3746.4	
309.96	3473.4	
310.17	5184.8	
310.38	4549.9	
310.59	3607.2	
310.8	2946.3	
311.01	5278.3	
311.21	4726	
311.42	2999.6	
311.63	3051.5	
311.84	4668	
312.05	4847.5	
312.26	3411.2	
312.46	3694.5	
312.67	4663.9	
312.88	4437.9	
313.09	2983.9	
313.3	2936.8	
313.51	5451.7	
313.71	5684.5	
313.92	2926.5	
314.13	3108.1	
314.34	4999.8	
314.55	4767.7	
314.76	3715	
314.96	3317.7	
315.17	4983.4	
315.38	5042.8	
315.59	3016.7	
315.8	2921.8	
316.01	5410.7	
316.21	5446.9	
316.42	2892.4	
316.63	3291.8	
316.84	4730.8	
317.05	5237.3	
317.26	3532.1	
317.46	3149.8	
317.67	4776.5	
317.88	5117.2	
318.09	3730	
318.3	2809.1	
318.5	4650.9	
318.71	5044.8	
318.92	4665.3	
319.13	3447.4	
319.34	5221.6	
319.54	5300.8	
319.75	2801.6	
319.96	2652.8	
320.17	5107.6	
320.38	5195	
320.58	2767.5	
320.79	3285.6	
321	5255.1	
321.21	5360.2	
321.42	3307.5	
321.62	2799.6	
321.83	4506.9	
322.04	4825.7	
322.25	3138.9	
322.46	2998.2	
322.66	4924.7	
322.87	5094.7	
323.08	3592.8	
323.29	2937.5	
323.5	5648.3	
323.7	4471.4	
323.91	3931.4	
324.12	3576.4	
324.33	4908.3	
324.53	5067.4	
324.74	3425.6	
324.95	3580.5	
325.16	4370.4	
325.37	4659.8	
325.57	2958.6	
325.78	3051.5	
325.99	4926.7	
326.2	4403.8	
326.4	4212	
326.61	2794.8	
326.82	4802.5	
327.03	4894	
327.24	4076.1	
327.44	3925.3	
327.65	5044.8	
327.86	4144.4	
328.07	3434.4	
328.27	2874	
328.48	5360.9	
328.69	4489.8	
328.9	4162.8	
329.1	3135.4	
329.31	4769.7	
329.52	5447.6	
329.73	3015.3	
329.93	3310.2	
330.14	4853.7	
330.35	5009.3	
330.56	4780	
330.76	3598.3	
330.97	4678.9	
331.18	4941.1	
331.39	3261.7	
331.59	2749.1	
331.8	5275.6	
332.01	5399.8	
332.22	3076.7	
332.42	3373	
332.63	4915.1	
332.84	4571.7	
333.05	3380.5	
333.25	3056.3	
333.46	4633.9	
333.67	4820.9	
333.88	3138.9	
334.08	3446.7	
334.29	6229.2	
334.5	5260.5	
334.7	2927.2	
334.91	4116.4	
335.12	4485.7	
335.33	5105.6	
335.53	3286.3	
335.74	4672.8	
335.95	4704.9	
336.16	4479.6	
336.36	3332.7	
336.57	3783.3	
336.78	4472.8	
336.98	5237.3	
337.19	3999.7	
337.4	3228.3	
337.61	5706.3	
337.81	4457.1	
338.02	3047.4	
338.23	3863.2	
338.43	5422.3	
338.64	4534.2	
338.85	2987.3	
339.05	3840.6	
339.26	5532.9	
339.47	4334.9	
339.68	3007.8	
339.88	4287.1	
340.09	5065.3	
340.3	5208	
340.5	3398.3	
340.71	2718.3	
340.92	4437.3	
341.13	5352	
341.33	2929.3	
341.54	3442	
341.75	5008	
341.95	4708.3	
342.16	3356.6	
342.37	3553.9	
342.57	4478.9	
342.78	4807.9	
342.99	3685.7	
343.19	2722.4	
343.4	5160.2	
343.61	5003.2	
343.81	3205.8	
344.02	2894.5	
344.23	5115.1	
344.43	5417.6	
344.64	3620.1	
344.85	3556	
345.06	5034.6	
345.26	5290.6	
345.47	3395.5	
345.68	3946.4	
345.88	4353.3	
346.09	5218.9	
346.3	3462.4	
346.5	2680.1	
346.71	4826.4	
346.92	4559.5	
347.12	2772.3	
347.33	3356.6	
347.54	5197.1	
347.74	5512.4	
347.95	3383.2	
348.16	2636.4	
348.36	4655.7	
348.57	4541.7	
348.78	3383.2	
348.98	3658.4	
349.19	4817.5	
349.39	4330.8	
349.6	2788.7	
349.81	3067.9	
350.01	5054.4	
350.22	4552.6	
350.43	3341.6	
350.63	3898.6	
350.84	4818.9	
351.05	4620.9	
351.25	3033	
351.46	2771.6	
351.67	5226.4	
351.87	4549.2	
352.08	3253.5	
352.29	3598.3	
352.49	5122	
352.7	5226.4	
352.9	2933.4	
353.11	3607.8	
353.32	5629.2	
353.52	4659.8	
353.73	2883.5	
353.94	3596.9	
354.14	5031.2	
354.35	4804.5	
354.55	3010.5	
354.76	3276.1	
354.97	4973.8	
355.17	4753.3	
355.38	2861	
355.59	3792.8	
355.79	4586.8	
356	4838	
356.2	3296.5	
356.41	2896.5	
356.62	4378.6	
356.82	4696.7	
357.03	3486.3	
357.24	3186.6	
357.44	4625	
357.65	4645.5	
357.85	4106.9	
358.06	3324.5	
358.27	4359.4	
358.47	4456.4	
358.68	2837.8	
358.88	3478.8	
359.09	5012.1	
359.3	5209.3	
359.5	4047.5	
359.71	3604.4	
359.91	5573.9	
360.12	5084.4	
360.33	3424.9	
360.53	3863.8	
360.74	4569	
360.94	4606.6	
361.15	3672	
361.36	3064.4	
361.56	5162.2	
361.77	4752	
361.97	4029.7	
362.18	3240.6	
362.38	5180	
362.59	4491.2	
362.8	3037.1	
363	2911.5	
363.21	4384.7	
363.41	4867.3	
363.62	3442.6	
363.83	4146.5	
364.03	4963.6	
364.24	5565.7	
364.44	4268.6	
364.65	4228.4	
364.85	4719.9	
365.06	4500.1	
365.27	3114.3	
365.47	3211.2	
365.68	5479.7	
365.88	4751.3	
366.09	3465.8	
366.29	3183.2	
366.5	4878.3	
366.71	5240.8	
366.91	4174.4	
367.12	3603.1	
367.32	5715.9	
367.53	5103.5	
367.73	3566.9	
367.94	4347.8	
368.14	5145.2	
368.35	5709.1	
368.56	3545	
368.76	3383.2	
368.97	5242.8	
369.17	6398.5	
369.38	3126.6	
369.58	3387.3	
369.79	4421.6	
369.99	5479.7	
370.2	4192.9	
370.4	3423.5	
370.61	4955.4	
370.82	5871.5	
371.02	3407.1	
371.23	2882.2	
371.43	4439.3	
371.64	5498.8	
371.84	3425.6	
372.05	4255.7	
372.25	6335.7	
372.46	5150	
372.66	3396.9	
372.87	3359.4	
373.07	5255.8	
373.28	6491.4	
373.48	4118.5	
373.69	3934.1	
373.9	4913.1	
374.1	4866.7	
374.31	4123.2	
374.51	3779.9	
374.72	5457.8	
374.92	4619.5	
375.13	4251.6	
375.33	3632.4	
375.54	5149.3	
375.74	4754	
375.95	3668.6	
376.15	4650.9	
376.36	5190.2	
376.56	5055.1	
376.77	3822.2	
376.97	4107.5	
377.18	6014.9	
377.38	5348.6	
377.59	4264.6	
377.79	3424.9	
378	5125.4	
378.2	5310.4	
378.41	3474	
378.61	3345.7	
378.82	5476.3	
379.02	4842.1	
379.23	3571	
379.43	4397.7	
379.64	5532.9	
379.84	5225.7	
380.05	3428.3	
380.25	3341.6	
380.46	5259.2	
380.66	4958.1	
380.87	4469.4	
381.07	4663.2	
381.28	5815.5	
381.48	5270.1	
381.69	3429.7	
381.89	3487.7	
382.1	4528.1	
382.3	5358.2	
382.51	4206.5	
382.71	4911	
382.91	5234.6	
383.12	5657.2	
383.32	3717.7	
383.53	3895.9	
383.73	5150.6	
383.94	5004.6	
384.14	3850.9	
384.35	3162.1	
384.55	4917.9	
384.76	5292	
384.96	3701.4	
385.17	3925.3	
385.37	5293.3	
385.58	4668.7	
385.78	3965.6	
385.98	3138.2	
386.19	4921.3	
386.39	5204.6	
386.6	3531.4	
386.8	3681.6	
387.01	5265.3	
387.21	5284.4	
387.42	3986.7	
387.62	4412	
387.83	4760.2	
388.03	5169.1	
388.23	3721.8	
388.44	4332.8	
388.64	4562.2	
388.85	4655.7	
389.05	3980.6	
389.26	4468.7	
389.46	5963.7	
389.67	5707.7	
389.87	4023.6	
390.07	4022.9	
390.28	4988.9	
390.48	4693.9	
390.69	3369.6	
390.89	3676.1	
391.1	4868	
391.3	5515.9	
391.5	4602.5	
391.71	4975.2	
391.91	5298.8	
392.12	6032	
392.32	4564.9	
392.53	4027	
392.73	4916.5	
392.93	4990.9	
393.14	3750.5	
393.34	4390.2	
393.55	5317.2	
393.75	4981.3	
393.95	3762.8	
394.16	3681.6	
394.36	4898.7	
394.57	5333.6	
394.77	3391.4	
394.98	3697.9	
395.18	4813.4	
395.38	5013.4	
395.59	4346.5	
395.79	3582.6	
396	4955.4	
396.2	5398.4	
396.4	4221.5	
396.61	4139.6	
396.81	5403.9	
397.02	4889.9	
397.22	4373.1	
397.42	4441.4	
397.63	5471.5	
397.83	4901.5	
398.04	3536.2	
398.24	3949.8	
398.44	5248.3	
398.65	4533.5	
398.85	3421.5	
399.05	3533.4	
399.26	4827.1	
399.46	6132.3	
399.67	3856.3	
399.87	3629.7	
400.07	5150.6	
400.28	5347.2	
400.48	3685.7	
400.69	4448.9	
400.89	5552.7	
401.09	5879	
401.3	3616.7	
401.5	4455	
401.7	6080.4	
401.91	6266.1	
402.11	3912.3	
402.32	4006.5	
402.52	5601.2	
402.72	5443.5	
402.93	4182.6	
403.13	3310.9	
403.33	6126.2	
403.54	5089.2	
403.74	3934.1	
403.94	4567.7	
404.15	5210	
404.35	6182.8	
404.56	3774.4	
404.76	5146.5	
404.96	5539.1	
405.17	5399.8	
405.37	4692.6	
405.57	4145.1	
405.78	5647.6	
405.98	5174.5	
406.18	3760.1	
406.39	4452.3	
406.59	5497.4	
406.79	5225.1	
407	3638.6	
407.2	3730.7	
407.4	5668.1	
407.61	5696.1	
407.81	3734.8	
408.01	5520.6	
408.22	4799.8	
408.42	6236.1	
408.62	4583.4	
408.83	4149.2	
409.03	5284.4	
409.23	5204.6	
409.44	4250.9	
409.64	4425	
409.84	6029.2	
410.05	5877.7	
410.25	4304.8	
410.45	4175.1	
410.66	5573.2	
410.86	7472.4	
411.06	4442	
411.27	4344.4	
411.47	7234.8	
411.67	5681.7	
411.88	4584.7	
412.08	4713.7	
412.28	6096.8	
412.49	6531	
412.69	4369.7	
412.89	4374.5	
413.09	6462.7	
413.3	6367.8	
413.5	4491.9	
413.7	4231.1	
413.91	5741.1	
414.11	6341.9	
414.31	4339	
414.52	4685.8	
414.72	6137.1	
414.92	6062.7	
415.12	4354.7	
415.33	4717.8	
415.53	6406.7	
415.73	6485.2	
415.94	5104.2	
416.14	4528.7	
416.34	5648.3	
416.55	5459.9	
416.75	5467.4	
416.95	5036	
417.15	6427.2	
417.36	6865.5	
417.56	5629.9	
417.76	4872.1	
417.97	6657.9	
418.17	6384.2	
418.37	4620.9	
418.57	4696.7	
418.78	6355.5	
418.98	5961	
419.18	5287.9	
419.38	5319.9	
419.59	5966.4	
419.79	5806.7	
419.99	4540.3	
420.2	4788.2	
420.4	6393.8	
420.6	6546.7	
420.8	4498.7	
421.01	4403.8	
421.21	6255.2	
421.41	6363.7	
421.61	4740.4	
421.82	4537.6	
422.02	5863.3	
422.22	6530.3	
422.42	5159.5	
422.63	4889.2	
422.83	5961	
423.03	6918	
423.23	4876.2	
423.44	4114.4	
423.64	5988.9	
423.84	5756.8	
424.04	4518.5	
424.25	4246.8	
424.45	6663.4	
424.65	6608.1	
424.85	4088.4	
425.06	4515.1	
425.26	6762.4	
425.46	6010.1	
425.66	4871.4	
425.87	4646.8	
426.07	6449.1	
426.27	6324.8	
426.47	4735.6	
426.67	4260.5	
426.88	6744.6	
427.08	6348.7	
427.28	4948.6	
427.48	4210.6	
427.69	5570.5	
427.89	6023.1	
428.09	4897.4	
428.29	4166.3	
428.5	6442.9	
428.7	6156.9	
428.9	4226.3	
429.1	4579.9	
429.3	6177.4	
429.51	6339.8	
429.71	4350.6	
429.91	5055.1	
430.11	6362.4	
430.31	6482.5	
430.52	4607.9	
430.72	4857.1	
430.92	6754.2	
431.12	6313.9	
431.32	4388.8	
431.53	4706.2	
431.73	5559.6	
431.93	6825.2	
432.13	4349.2	
432.33	4231.1	
432.54	5855.8	
432.74	6109.8	
432.94	4219.5	
433.14	4990.2	
433.34	6402.6	
433.55	6014.2	
433.75	4926	
433.95	6244.9	
434.15	6206	
434.35	5883.8	
434.56	4339	
434.76	4004.5	
434.96	6100.2	
435.16	6320	
435.36	4226.3	
435.56	5115.8	
435.77	5898.8	
435.97	6019.7	
436.17	5653.1	
436.37	4975.2	
436.57	5851	
436.78	5831.2	
436.98	5020.3	
437.18	5524.1	
437.38	6306.4	
437.58	5945.9	
437.78	5606.7	
437.99	4564.9	
438.19	6366.5	
438.39	6982.2	
438.59	4548.5	
438.79	4118.5	
438.99	6848.4	
439.2	5950	
439.4	4184.7	
439.6	4261.1	
439.8	6208.8	
440	6953.5	
440.2	4958.1	
440.4	5063.9	
440.61	6569.9	
440.81	6909.2	
441.01	4397	
441.21	5124	
441.41	6778.1	
441.61	6488.6	
441.81	5277.6	
442.02	5986.9	
442.22	7233.4	
442.42	6623.1	
442.62	4367	
442.82	4534.9	
443.02	6963.8	
443.22	6186.9	
443.43	4797	
443.63	4422.9	
443.83	6080.4	
444.03	6078.4	
444.23	5332.2	
444.43	5064.6	
444.63	6358.9	
444.83	7223.9	
445.04	4530.1	
445.24	5545.2	
445.44	6611.5	
445.64	6595.8	
445.84	5129.5	
446.04	5182	
446.24	6112.5	
446.44	6787.7	
446.65	4524.6	
446.85	4837.3	
447.05	6346	
447.25	6870.9	
447.45	4924	
447.65	4394.9	
447.85	6325.5	
448.05	6013.5	
448.25	5167.7	
448.46	5026.4	
448.66	6383.5	
448.86	6088.6	
449.06	4349.9	
449.26	5162.9	
449.46	6537.1	
449.66	5844.9	
449.86	4806.6	
450.06	4821.6	
450.26	6034.7	
450.47	6460.7	
450.67	4965	
450.87	5248.9	
451.07	6626.5	
451.27	6339.1	
451.47	4467.3	
451.67	4921.3	
451.87	6161.7	
452.07	7020.4	
452.27	4732.2	
452.47	4635.2	
452.67	6380.1	
452.88	6664.8	
453.08	4199.7	
453.28	5634.6	
453.48	7297.6	
453.68	6350.8	
453.88	4642.1	
454.08	4742.4	
454.28	6539.8	
454.48	6345.3	
454.68	5156.8	
454.88	5564.3	
455.08	6726.9	
455.28	6537.8	
455.48	4495.3	
455.68	4986.1	
455.89	7090.8	
456.09	6719.4	
456.29	4760.8	
456.49	4876.9	
456.69	6907.8	
456.89	6436.8	
457.09	5190.2	
457.29	5397.8	
457.49	6649.8	
457.69	6642.9	
457.89	5076.2	
458.09	4592.2	
458.29	6516.6	
458.49	7032.7	
458.69	5342.5	
458.89	4930.8	
459.09	7198.6	
459.29	7245.7	
459.49	4965.6	
459.69	5618.3	
459.9	6865.5	
460.1	6522.1	
460.3	4895.3	
460.5	4764.3	
460.7	6851.1	
460.9	6538.5	
461.1	4493.2	
461.3	5496.1	
461.5	7285.3	
461.7	6958.3	
461.9	4835.3	
462.1	5212.8	
462.3	6655.2	
462.5	7089.4	
462.7	4863.2	
462.9	4965	
463.1	7915.4	
463.3	7576.1	
463.5	5062.6	
463.7	5778	
463.9	6801.3	
464.1	7060	
464.3	5307.7	
464.5	5431.2	
464.7	7287.4	
464.9	7004.1	
465.1	6412.9	
465.3	5597.1	
465.5	7587	
465.7	7491.5	
465.9	5836	
466.1	5724.8	
466.3	7391.1	
466.5	7303.1	
466.7	6460	
466.9	5567.1	
467.1	7305.1	
467.3	7907.2	
467.5	6408.8	
467.7	5521.3	
467.9	8104.5	
468.1	8739.4	
468.3	6040.8	
468.5	6380.8	
468.7	7195.2	
468.9	7141.9	
469.1	5745.2	
469.3	6240.2	
469.5	8714.1	
469.7	6954.9	
469.9	6057.9	
470.1	5500.8	
470.3	7354.9	
470.5	7323.5	
470.7	6468.2	
470.9	5635.3	
471.1	7047.7	
471.3	7346.1	
471.5	5498.8	
471.69	6963.1	
471.89	7040.2	
472.09	6599.2	
472.29	6035.4	
472.49	6374.6	
472.69	6808.8	
472.89	7422.5	
473.09	5287.9	
473.29	5527.5	
473.49	6965.8	
473.69	7023.9	
473.89	6223.8	
474.09	5654.4	
474.29	7924.3	
474.49	7645.8	
474.69	6111.8	
474.89	5720	
475.09	7082.6	
475.29	7017.7	
475.49	5329.5	
475.69	5459.2	
475.88	8257.4	
476.08	7326.3	
476.28	5283.1	
476.48	5521.3	
476.68	7626.6	
476.88	7363.1	
477.08	5527.5	
477.28	5731.6	
477.48	7053.2	
477.68	7587	
477.88	5319.9	
478.08	5552	
478.28	7827.3	
478.48	7174	
478.67	5572.5	
478.87	5072.1	
479.07	7567.2	
479.27	7228.6	
479.47	5752.1	
479.67	5753.4	
479.87	7580.2	
480.07	7946.8	
480.27	5212.1	
480.47	6360.3	
480.67	7321.5	
480.87	7796.6	
481.06	5448.3	
481.26	6138.4	
481.46	7290.1	
481.66	7124.9	
481.86	5828.5	
482.06	6529.6	
482.26	7096.9	
482.46	7702.4	
482.66	5771.9	
482.86	5438	
483.05	7372.7	
483.25	6843.6	
483.45	7653.9	
483.65	5803.9	
483.85	6909.2	
484.05	7159.7	
484.25	6055.8	
484.45	6356.2	
484.65	7845.8	
484.84	7836.9	
485.04	5664	
485.24	5731.6	
485.44	8088.1	
485.64	6890.7	
485.84	5221	
486.04	6173.9	
486.24	7105.8	
486.44	7408.9	
486.63	5126.7	
486.83	5726.8	
487.03	7068.2	
487.23	7181.5	
487.43	5244.2	
487.63	6947.4	
487.83	7225.9	
488.02	7892.9	
488.22	5885.2	
488.42	6393.8	
488.62	7899	
488.82	7049.8	
489.02	5625.8	
489.22	5689.3	
489.41	7776.1	
489.61	7479.2	
489.81	5481	
490.01	5588.2	
490.21	7785.7	
490.41	8299.1	
490.61	5497.4	
490.8	5632.6	
491	7439.6	
491.2	6862.1	
491.4	6020.3	
491.6	5371.1	
491.8	7417.7	
491.99	7477.8	
492.19	5271.5	
492.39	5487.9	
492.59	7703.1	
492.79	7752.2	
492.99	6152.8	
493.18	5455.1	
493.38	7825.3	
493.58	8379.6	
493.78	6047	
493.98	5676.3	
494.18	7675.8	
494.37	7137.9	
494.57	6247.7	
494.77	6055.8	
494.97	7766.6	
495.17	8020.5	
495.37	5691.3	
495.56	6117.3	
495.76	8165.3	
495.96	7879.2	
496.16	6824.5	
496.36	5992.4	
496.55	8045.8	
496.75	7616.4	
496.95	6251.8	
497.15	6150.1	
497.35	8073.1	
497.54	8002.8	
497.74	6060.6	
497.94	7275.8	
498.14	8585.8	
498.34	8338.6	
498.53	5736.4	
498.73	6411.5	
498.93	7441	
499.13	7957	
499.33	6279.8	
499.52	6595.1	
499.72	8088.8	
499.92	8184.4	
500.12	5951.4	
500.32	6063.4	
500.51	8212.4	
500.71	7903.1	
500.91	6771.9	
501.11	6522.8	
501.31	8110.6	
501.5	8523	
501.7	7004.1	
501.9	6256.5	
502.1	7979.6	
502.29	8258.8	
502.49	6610.2	
502.69	6933.7	
502.89	8109.3	
503.09	8086.7	
503.28	5886.5	
503.48	5939.8	
503.68	7584.3	
503.88	7615.7	
504.07	6739.9	
504.27	6332.3	
504.47	7869	
504.67	7871.7	
504.86	6638.1	
505.06	6386.9	
505.26	7729.7	
505.46	8995.4	
505.65	6337.1	
505.85	6477.7	
506.05	7634.8	
506.25	7971.4	
506.44	5793	
506.64	6532.3	
506.84	7561.1	
507.04	8238.3	
507.23	5989.6	
507.43	6412.2	
507.63	8970.1	
507.83	7585	
508.02	6440.9	
508.22	6094.1	
508.42	9233.6	
508.62	7546.8	
508.81	6472.9	
509.01	6722.8	
509.21	7425.3	
509.4	7692.9	
509.6	6480.5	
509.8	5969.8	
510	7631.4	
510.19	8665.6	
510.39	5885.2	
510.59	6042.9	
510.79	7426.6	
510.98	8525.7	
511.18	6154.1	
511.38	6057.9	
511.57	8117.5	
511.77	7950.2	
511.97	6617.7	
512.17	5954.1	
512.36	8076.5	
512.56	7978.2	
512.76	5905.7	
512.95	5777.3	
513.15	8368.7	
513.35	7081.9	
513.55	6533	
513.74	5887.9	
513.94	8102.4	
514.14	7600.7	
514.33	6588.3	
514.53	6419	
514.73	7731.8	
514.92	7783	
515.12	6123.4	
515.32	5967.8	
515.51	7855.3	
515.71	8114.1	
515.91	7378.8	
516.11	5980.1	
516.3	9048.6	
516.5	7556.3	
516.7	6384.2	
516.89	6812.9	
517.09	7694.9	
517.29	7560.4	
517.48	6602.7	
517.68	6193.7	
517.88	7374.7	
518.07	7878.5	
518.27	6593.8	
518.47	5757.5	
518.66	8288.1	
518.86	7289.4	
519.06	5685.2	
519.25	6025.1	
519.45	7492.8	
519.65	8678.6	
519.84	6591.7	
520.04	7034.1	
520.24	9021.3	
520.43	7983	
520.63	6279.1	
520.83	6114.6	
521.02	7425.9	
521.22	8040.3	
521.42	6544.6	
521.61	6844.3	
521.81	7666.9	
522.01	7760.4	
522.2	6306.4	
522.4	6152.1	
522.6	8114.7	
522.79	7119.4	
522.99	6260	
523.18	5788.9	
523.38	7916.8	
523.58	7847.8	
523.77	7081.9	
523.97	5771.2	
524.17	9236.3	
524.36	8634.2	
524.56	6730.3	
524.76	6468.2	
524.95	7890.1	
525.15	7548.1	
525.34	6420.4	
525.54	6393.8	
525.74	8237.6	
525.93	7444.4	
526.13	7330.4	
526.33	6345.3	
526.52	8527.1	
526.72	8000.7	
526.91	7284.6	
527.11	6752.8	
527.31	8419.9	
527.5	8793.3	
527.7	6657.9	
527.89	5961.6	
528.09	7679.2	
528.29	8089.5	
528.48	6975.4	
528.68	6737.8	
528.87	8448.6	
529.07	8452	
529.27	6759.7	
529.46	6357.6	
529.66	8276.5	
529.85	8533.2	
530.05	6134.3	
530.25	6772.6	
530.44	9241.1	
530.64	8170.7	
530.83	6452.5	
531.03	6817	
531.23	8477.2	
531.42	8359.8	
531.62	7208.2	
531.81	6657.3	
532.01	8621.9	
532.21	8886.1	
532.4	6485.9	
532.6	6750.1	
532.79	9290.3	
532.99	8605.6	
533.18	6802.7	
533.38	7558.4	
533.58	8313.4	
533.77	8756.4	
533.97	6837.5	
534.16	7498.3	
534.36	9045.9	
534.55	8270.4	
534.75	7458	
534.95	6915.3	
535.14	9016.5	
535.34	8335.9	
535.53	6640.9	
535.73	8110.6	
535.92	9369.5	
536.12	8481.3	
536.31	6702.3	
536.51	7701.7	
536.71	8774.2	
536.9	8464.9	
537.1	6845.7	
537.29	6986.3	
537.49	9010.4	
537.68	8249.9	
537.88	7242.3	
538.07	6604.7	
538.27	8559.1	
538.46	9285.5	
538.66	6528.9	
538.86	6836.1	
539.05	8507.9	
539.25	8804.9	
539.44	7204.1	
539.64	6799.3	
539.83	8353	
540.03	9237.7	
540.22	6653.2	
540.42	6815	
540.61	8561.2	
540.81	8675.9	
541	7169.9	
541.2	7648.5	
541.39	8265.6	
541.59	8559.8	
541.78	7361.1	
541.98	6670.9	
542.18	8088.1	
542.37	7991.9	
542.57	6937.2	
542.76	7342.7	
542.96	8064.9	
543.15	8604.2	
543.35	7073.7	
543.54	6569.9	
543.74	8688.2	
543.93	8538.7	
544.13	7008.8	
544.32	7781.6	
544.52	8738.7	
544.71	8002.1	
544.91	6340.5	
545.1	7266.2	
545.3	8131.8	
545.49	8611	
545.69	6271.6	
545.88	6764.4	
546.08	9291	
546.27	8923	
546.47	7182.9	
546.66	6522.1	
546.86	8815.1	
547.05	9222	
547.24	6709.1	
547.44	6586.3	
547.63	8041.7	
547.83	8785.8	
548.02	6933.1	
548.22	6996.5	
548.41	7841	
548.61	8856.1	
548.8	6561.7	
549	6571.2	
549.19	8358.4	
549.39	8624.7	
549.58	6307.7	
549.78	6783.6	
549.97	8575.5	
550.17	8165.9	
550.36	7376.8	
550.55	8125	
550.75	8217.1	
550.94	8883.4	
551.14	6440.9	
551.33	6698.2	
551.53	7662.1	
551.72	8422.6	
551.92	6791.7	
552.11	6548	
552.31	8572.8	
552.5	8452.6	
552.69	7878.5	
552.89	6236.7	
553.08	8512	
553.28	8266.3	
553.47	6567.2	
553.67	7448.5	
553.86	8895	
554.06	7661.5	
554.25	5997.8	
554.44	6400.6	
554.64	9501.9	
554.83	9058.2	
555.03	6399.2	
555.22	6638.1	
555.42	8670.4	
555.61	8509.3	
555.8	6593.1	
556	6745.3	
556.19	7763.2	
556.39	8683.4	
556.58	6582.9	
556.78	6636.8	
556.97	8312.7	
557.16	8036.9	
557.36	7480.5	
557.55	6367.8	
557.75	7488.7	
557.94	8995.4	
558.13	6421.7	
558.33	6270.2	
558.52	8733.2	
558.72	7822.6	
558.91	6350.1	
559.1	6520	
559.3	7636.9	
559.49	7395.2	
559.69	6038.1	
559.88	6737.1	
560.07	8269.7	
560.27	8738.7	
560.46	6855.9	
560.66	7004.1	
560.85	8198	
561.04	7498.3	
561.24	6342.6	
561.43	6436.8	
561.63	7632.8	
561.82	7963.9	
562.01	7261.4	
562.21	6606.7	
562.4	8265.6	
562.59	8914.1	
562.79	6568.5	
562.98	6219	
563.18	8141.4	
563.37	9292.3	
563.56	6918	
563.76	6229.9	
563.95	7780.2	
564.14	7660.1	
564.34	6576	
564.53	6323.4	
564.73	8157.7	
564.92	8314.8	
565.11	6655.9	
565.31	6189	
565.5	8584.4	
565.69	7681.9	
565.89	6401.3	
566.08	6540.5	
566.27	8516.8	
566.47	8916.2	
566.66	7075	
566.85	6068.1	
567.05	8259.5	
567.24	7836.2	
567.44	6272.9	
567.63	7368.6	
567.82	8500.4	
568.02	8133.2	
568.21	6292.7	
568.4	6625.9	
568.6	8107.2	
568.79	8058.1	
568.98	6150.7	
569.18	6352.8	
569.37	8141.4	
569.56	9654.1	
569.76	6604	
569.95	7326.3	
570.14	8434.9	
570.34	8274.5	
570.53	6394.4	
570.72	6311.8	
570.91	8753.7	
571.11	8198	
571.3	6739.2	
571.49	7438.2	
571.69	8215.1	
571.88	7780.2	
572.07	7085.3	
572.27	7067.5	
572.46	7733.1	
572.65	8559.8	
572.85	6500.3	
573.04	6836.1	
573.23	8819.9	
573.43	8260.8	
573.62	6296.8	
573.81	6662.7	
574	8312	
574.2	8014.4	
574.39	6593.1	
574.58	6711.9	
574.78	8888.9	
574.97	8380.3	
575.16	6941.2	
575.36	7094.8	
575.55	8736	
575.74	8759.8	
575.93	6339.1	
576.13	7152.2	
576.32	8191.9	
576.51	8636.3	
576.71	6641.6	
576.9	7730.4	
577.09	8860.2	
577.28	8518.2	
577.48	6866.2	
577.67	6270.2	
577.86	8281.3	
578.05	8510	
578.25	6745.3	
578.44	6719.4	
578.63	8417.8	
578.83	9274.6	
579.02	6317.3	
579.21	7501.7	
579.4	8507.3	
579.6	8265.6	
579.79	6887.3	
579.98	8546.9	
580.17	8796	
580.37	8867.7	
580.56	6513.2	
580.75	7142.6	
580.94	9144.9	
581.14	9017.2	
581.33	7488.1	
581.52	6653.9	
581.71	8615.1	
581.91	9149	
582.1	6358.3	
582.29	6793.1	
582.48	8385.1	
582.68	8355.7	
582.87	7189.1	
583.06	6944	
583.25	8661.5	
583.45	8125.7	
583.64	7357.7	
583.83	7871.7	
584.02	8258.8	
584.21	8646.5	
584.41	7351.5	
584.6	6897.6	
584.79	8413.1	
584.98	8927.8	
585.18	6438.8	
585.37	6411.5	
585.56	8090.8	
585.75	8646.5	
585.94	6567.8	
586.14	7154.9	
586.33	9136.7	
586.52	8310	
586.71	6980.8	
586.91	6798.6	
587.1	7889.5	
587.29	8695	
587.48	6724.8	
587.67	6694.8	
587.87	8617.2	
588.06	8585.8	
588.25	7706.5	
588.44	7154.2	
588.63	8346.8	
588.83	8823.3	
589.02	6778.8	
589.21	6635.4	
589.4	8220.5	
589.59	8133.2	
589.78	6203.3	
589.98	6343.2	
590.17	7835.5	
590.36	8185	
590.55	5876.3	
590.74	6450.4	
590.94	9266.4	
591.13	8101.8	
591.32	6339.8	
591.51	5966.4	
591.7	8446.5	
591.89	8047.2	
592.09	5970.5	
592.28	6339.1	
592.47	7408.9	
592.66	8918.2	
592.85	6042.2	
593.05	6182.1	
593.24	7940.7	
593.43	8556.4	
593.62	6252.4	
593.81	6632	
594	8034.9	
594.19	8143.4	
594.39	6199.2	
594.58	6113.9	
594.77	8199.4	
594.96	8654	
595.15	6096.1	
595.34	6608.1	
595.54	8173.4	
595.73	7561.8	
595.92	5658.5	
596.11	6468.2	
596.3	8529.1	
596.49	7548.8	
596.68	6292	
596.88	6628.6	
597.07	8295.6	
597.26	7475.8	
597.45	5928.9	
597.64	6816.3	
597.83	7611.6	
598.02	8080.6	
598.22	6032.6	
598.41	6476.4	
598.6	7993.9	
598.79	7492.2	
598.98	6036	
599.17	6662	
599.36	8028	
599.55	8751	
599.74	7589.8	
599.94	7432.8	
600.13	8463.6	
600.32	7446.4	
600.51	5878.4	
600.7	5946.6	
600.89	8884.8	
601.08	8850.6	
601.27	5737.7	
601.47	6523.5	
601.66	8230.1	
601.85	8849.3	
602.04	6290.7	
602.23	6452.5	
602.42	7611.6	
602.61	8017.8	
602.8	6138.4	
602.99	5994.4	
603.18	7819.8	
603.37	7878.5	
603.57	6436.1	
603.76	6957.6	
603.95	8596	
604.14	8131.8	
604.33	6087.9	
604.52	6240.2	
604.71	8102.4	
604.9	7661.5	
605.09	6778.8	
605.28	6656.6	
605.47	8481.3	
605.66	8082.6	
605.86	6472.9	
606.05	6081.1	
606.24	8366.6	
606.43	7280.5	
606.62	6309.1	
606.81	6933.1	
607	8397.4	
607.19	7720.8	
607.38	5878.4	
607.57	6082.5	
607.76	7490.1	
607.95	7136.5	
608.14	6425.8	
608.33	6767.9	
608.52	7580.9	
608.72	8202.1	
608.91	5777.3	
609.1	5702.9	
609.29	7782.3	
609.48	7269.6	
609.67	6513.9	
609.86	5816.9	
610.05	7256.6	
610.24	7662.8	
610.43	5729.5	
610.62	5397.1	
610.81	8524.3	
611	8344.8	
611.19	5757.5	
611.38	6440.2	
611.57	7791.2	
611.76	8826.1	
611.95	5582.1	
612.14	5586.2	
612.33	7730.4	
612.52	7331	
612.71	6059.9	
612.9	5451	
613.09	7053.9	
613.28	8869.1	
613.47	6019	
613.66	6509.8	
613.85	7826.7	
614.04	7417.1	
614.24	5910.4	
614.43	5318.6	
614.62	7972.7	
614.81	7830.7	
615	6216.3	
615.19	6343.9	
615.38	7260	
615.57	7630.7	
615.76	6225.8	
615.95	6922.8	
616.14	7961.1	
616.33	7711.3	
616.52	6532.3	
616.71	6538.5	
616.9	7891.5	
617.09	7744.1	
617.28	5973.9	
617.47	6886.6	
617.66	7232.7	
617.85	7122.2	
618.04	6598.6	
618.22	6234	
618.41	7486.7	
618.6	8122.9	
618.79	6166.4	
618.98	5880.4	
619.17	8307.2	
619.36	7121.5	
619.55	6069.5	
619.74	6133	
619.93	7877.9	
620.12	7340.6	
620.31	6624.5	
620.5	6609.5	
620.69	8311.3	
620.88	8641.7	
621.07	7198.6	
621.26	6473.6	
621.45	8017.1	
621.64	7987.8	
621.83	6615.6	
622.02	5909.8	
622.21	8145.5	
622.4	7833.5	
622.59	6974	
622.78	6847	
622.97	7475.8	
623.16	8343.4	
623.35	6592.4	
623.54	5788.9	
623.72	7776.1	
623.91	7844.4	
624.1	6726.9	
624.29	5756.2	
624.48	8705.2	
624.67	8105.9	
624.86	6638.8	
625.05	5950	
625.24	8740.7	
625.43	7592.5	
625.62	7888.8	
625.81	6057.2	
626	8325	
626.19	7700.4	
626.38	6665.5	
626.56	6244.3	
626.75	7590.5	
626.94	8209.6	
627.13	6788.3	
627.32	5748.6	
627.51	8247.9	
627.7	8964.6	
627.89	5885.9	
628.08	6765.8	
628.27	7552.9	
628.46	7694.2	
628.65	6042.2	
628.83	5755.5	
629.02	8146.8	
629.21	7555	
629.4	6313.9	
629.59	6546.7	
629.78	7518.8	
629.97	8348.2	
630.16	6593.8	
630.35	6215.6	
630.54	8652	
630.72	8371.4	
630.91	6141.2	
631.1	6644.3	
631.29	7947.5	
631.48	8090.8	
631.67	6623.8	
631.86	6293.4	
632.05	7781.6	
632.24	7795.3	
632.42	5948.7	
632.61	6494.8	
632.8	7808.2	
632.99	7502.4	
633.18	6503	
633.37	6810.2	
633.56	8072.4	
633.75	7920.2	
633.93	6546.7	
634.12	6283.2	
634.31	8680.7	
634.5	8268.3	
634.69	6237.4	
634.88	6679.8	
635.07	7854.6	
635.25	8299.7	
635.44	6987	
635.63	7052.5	
635.82	7727	
636.01	7269.6	
636.2	6961.7	
636.39	6584.9	
636.57	8598.7	
636.76	8220.5	
636.95	6160.3	
637.14	7083.2	
637.33	8056.7	
637.52	8710.7	
637.7	5960.3	
637.89	6804.7	
638.08	7768.6	
638.27	8828.8	
638.46	6789.7	
638.65	7023.2	
638.83	8907.3	
639.02	7621.2	
639.21	6723.5	
639.4	6988.4	
639.59	8069	
639.78	7618.4	
639.96	6152.8	
640.15	6094.1	
640.34	7903.1	
640.53	7894.2	
640.72	5945.3	
640.91	6223.8	
641.09	7380.9	
641.28	8488.1	
641.47	6217	
641.66	6791.7	
641.85	7872.4	
642.03	8187.1	
642.22	6564.4	
642.41	6247	
642.6	7457.3	
642.79	7112.6	
642.97	6115.2	
643.16	6610.2	
643.35	7526.3	
643.54	7367.9	
643.73	5991	
643.91	6545.3	
644.1	7301.7	
644.29	7804.1	
644.48	6008.1	
644.67	6129.6	
644.85	7370	
645.04	7666.2	
645.23	5804.6	
645.42	6027.9	
645.6	7343.3	
645.79	8202.8	
645.98	5948	
646.17	5301.5	
646.36	7077.8	
646.54	7492.8	
646.73	6647.7	
646.92	5699.5	
647.11	7263.5	
647.29	8006.9	
647.48	5802.6	
647.67	5509.7	
647.86	8168	
648.05	8224	
648.23	5926.8	
648.42	6917.4	
648.61	7757.7	
648.8	7574.8	
648.98	5662.6	
649.17	5885.9	
649.36	7230	
649.55	6846.4	
649.73	5758.9	
649.92	6246.3	
650.11	7055.9	
650.3	7348.1	
650.48	5842.9	
650.67	5659.9	
650.86	7518.8	
651.05	6830.7	
651.23	5759.6	
651.42	5771.2	
651.61	7197.2	
651.79	7146.7	
651.98	5879	
652.17	5582.8	
652.36	7527	
652.54	6741.2	
652.73	5671.5	
652.92	5553.4	
653.11	7535.2	
653.29	7536.5	
653.48	5104.9	
653.67	5886.5	
653.85	7286	
654.04	8143.4	
654.23	6047	
654.42	5678.3	
654.6	7079.8	
654.79	7477.1	
654.98	5302.9	
655.16	5742.5	
655.35	6649.8	
655.54	6500.3	
655.73	5292.6	
655.91	5212.1	
656.1	7366.5	
656.29	6435.4	
656.47	4868	
656.66	6136.4	
656.85	6679.1	
657.03	6718.7	
657.22	5271.5	
657.41	5348.6	
657.59	6815.6	
657.78	6658.6	
657.97	5023	
658.16	5648.3	
658.34	7427.3	
658.53	7660.8	
658.72	6395.1	
658.9	6722.8	
659.09	6986.3	
659.28	6950.1	
659.46	5472.9	
659.65	5410.1	
659.84	6810.2	
660.02	7202	
660.21	5466	
660.4	5365	
660.58	7550.2	
660.77	7050.5	
660.96	5879	
661.14	5017.5	
661.33	8006.2	
661.52	7788.4	
661.7	5040.1	
661.89	7738.6	
662.08	6738.5	
662.26	6414.9	
662.45	5227.1	
662.64	5306.3	
662.82	7333.1	
663.01	6701.6	
663.2	5352.7	
663.38	5843.5	
663.57	7203.4	
663.75	7078.5	
663.94	5612.8	
664.13	6524.8	
664.31	6713.9	
664.5	7247.1	
664.69	5720	
664.87	6201.9	
665.06	6551.5	
665.25	7104.4	
665.43	6378.1	
665.62	6454.5	
665.8	7280.5	
665.99	6819.1	
666.18	5606.7	
666.36	5651	
666.55	7261.4	
666.74	7229.3	
666.92	5261.9	
667.11	6583.5	
667.29	6841.6	
667.48	7258	
667.67	6206.7	
667.85	5505.6	
668.04	6807.4	
668.22	6794.5	
668.41	5715.2	
668.6	5874.3	
668.78	6683.9	
668.97	6840.9	
669.15	5976.7	
669.34	5076.2	
669.53	6721.4	
669.71	6956.3	
669.9	5267.4	
670.08	5758.9	
670.27	6610.2	
670.46	7098.9	
670.64	5895.4	
670.83	6098.2	
671.01	6514.6	
671.2	6953.5	
671.38	5329.5	
671.57	5255.1	
671.76	7537.2	
671.94	7936.6	
672.13	5165	
672.31	6000.5	
672.5	7349.5	
672.69	6688	
672.87	5275.6	
673.06	5561.6	
673.24	7103	
673.43	6673.6	
673.61	5801.2	
673.8	5448.3	
673.98	7195.9	
674.17	7264.1	
674.36	5930.2	
674.54	5784.1	
674.73	6953.5	
674.91	7216.4	
675.1	5663.3	
675.28	5359.5	
675.47	6833.4	
675.65	7240.9	
675.84	5565.7	
676.03	5795.8	
676.21	6757.6	
676.4	6322.1	
676.58	6120	
676.77	5913.2	
676.95	7851.2	
677.14	6687.3	
677.32	5218.2	
677.51	5130.2	
677.69	7246.4	
677.88	6485.9	
678.06	5160.2	
678.25	5299.5	
678.44	6895.5	
678.62	6728.3	
678.81	5130.2	
678.99	5779.4	
679.18	7571.3	
679.36	7141.9	
679.55	5500.2	
679.73	6000.5	
679.92	7148.1	
680.1	6736.5	
680.29	6410.1	
680.47	5472.9	
680.66	6723.5	
680.84	7305.1	
681.03	4924.7	
681.21	5865.4	
681.4	6674.3	
681.58	6618.4	
681.77	5412.1	
681.95	5264.6	
682.14	7354.3	
682.32	7539.3	
682.51	5926.8	
682.69	5079	
682.88	6639.5	
683.06	7051.2	
683.25	5724.8	
683.43	5987.6	
683.62	6910.5	
683.8	7141.9	
683.99	6225.8	
684.17	5651.7	
684.36	7817.8	
684.54	6911.9	
684.73	5137	
684.91	5338.4	
685.1	7122.8	
685.28	6534.4	
685.46	5629.2	
685.65	5647.6	
685.83	7167.9	
686.02	6573.3	
686.2	5124.7	
686.39	5337	
686.57	6448.4	
686.76	7460.8	
686.94	5146.5	
687.13	5322.7	
687.31	6958.3	
687.5	6686.6	
687.68	4869.4	
687.86	5825.8	
688.05	8007.6	
688.23	6266.1	
688.42	5828.5	
688.6	5272.8	
688.79	6754.2	
688.97	6619	
689.16	5579.3	
689.34	4735.6	
689.52	7204.8	
689.71	7369.3	
689.89	5739.8	
690.08	5331.5	
690.26	6824.5	
690.45	6701.6	
690.63	5964.4	
690.81	5345.2	
691	6730.3	
691.18	6614.9	
691.37	5550	
691.55	7140.6	
691.74	6575.3	
691.92	8097	
692.1	5427.1	
692.29	5125.4	
692.47	6777.4	
692.66	6171.9	
692.84	5180.7	
693.02	5636	
693.21	6229.9	
693.39	6746	
693.58	5672.2	
693.76	5238.7	
693.94	7567.9	
694.13	7412.3	
694.31	5222.3	
694.5	6070.2	
694.68	6449.1	
694.86	6868.9	
695.05	5505.6	
695.23	5628.5	
695.42	7105.1	
695.6	8724.3	
695.78	6027.2	
695.97	5317.2	
696.15	7193.1	
696.34	6694.8	
696.52	5182	
696.7	5821.7	
696.89	7000.6	
697.07	6536.4	
697.25	5735.7	
697.44	6860.7	
697.62	6926.9	
697.81	7135.8	
697.99	5492.7	
698.17	5836	
698.36	6451.1	
698.54	6946.7	
698.72	5768.4	
698.91	4994.3	
699.09	6704.4	
699.28	6468.9	
699.46	5455.1	
699.64	5409.4	
699.83	6524.8	
700.01	7286	
700.19	5970.5	
700.38	4764.9	
700.56	7283.9	
700.74	6509.1	
700.93	5091.3	
701.11	5677	
701.29	6929	
701.48	7731.1	
701.66	5255.8	
701.84	5267.4	
702.03	6670.2	
702.21	7165.2	
702.39	4963.6	
702.58	5360.2	
702.76	6959	
702.94	7001.3	
703.13	4915.1	
703.31	6778.8	
703.49	6480.5	
703.68	7260	
703.86	5129.5	
704.04	5835.3	
704.23	6832.7	
704.41	6982.2	
704.59	5288.5	
704.78	6039.5	
704.96	8015.1	
705.14	7034.8	
705.33	5069.4	
705.51	5586.2	
705.69	6614.3	
705.87	7356.3	
706.06	5855.1	
706.24	4961.5	
706.42	6849.1	
706.61	7015.7	
706.79	5791.7	
706.97	4888.5	
707.16	6386.9	
707.34	6879.1	
707.52	5745.2	
707.7	5161.6	
707.89	6528.9	
708.07	6253.8	
708.25	5806	
708.44	6139.8	
708.62	6470.9	
708.8	7306.5	
708.98	6044.2	
709.17	5152	
709.35	6733.7	
709.53	6785.6	
709.72	4906.9	
709.9	5304.9	
710.08	6967.2	
710.26	6955.6	
710.45	6211.5	
710.63	5191.6	
710.81	6629.3	
710.99	6672.3	
711.18	5650.3	
711.36	5195.7	
711.54	6554.9	
711.72	7101.7	
711.91	5348.6	
712.09	4922.6	
712.27	6720.1	
712.45	7131.7	
712.64	5547.9	
712.82	4745.8	
713	6199.9	
713.18	6380.1	
713.37	4851	
713.55	5759.6	
713.73	7012.2	
713.91	6006.7	
714.1	5113.8	
714.28	4705.5	
714.46	6742.6	
714.64	6109.8	
714.83	4336.2	
715.01	4866.7	
715.19	6184.2	
715.37	5582.8	
715.55	4541	
715.74	4817.5	
715.92	6761.7	
716.1	5164.3	
716.28	5629.2	
716.47	4954.7	
716.65	5778	
716.83	5797.8	
717.01	4725.3	
717.19	4711.7	
717.38	7341.3	
717.56	5533.6	
717.74	4848.2	
717.92	4275.5	
718.1	6447.7	
718.29	5801.9	
718.47	3864.5	
718.65	4412.7	
718.83	6333.7	
719.01	6285.9	
719.2	3863.8	
719.38	4685.1	
719.56	6062	
719.74	7303.7	
719.92	4468.7	
720.11	5299.5	
720.29	6242.2	
720.47	5535	
720.65	4068.6	
720.83	4725.3	
721.02	5756.2	
721.2	5547.3	
721.38	4728.8	
721.56	4156	
721.74	5203.9	
721.92	5276.9	
722.11	5063.9	
722.29	4829.8	
722.47	6240.8	
722.65	5641.5	
722.83	4172.4	
723.01	4832.5	
723.2	5711.1	
723.38	5937.1	
723.56	3732.8	
723.74	4608.6	
723.92	5327.4	
724.1	6152.1	
724.29	4022.2	
724.47	4934.2	
724.65	5380	
724.83	5279.7	
725.01	3991.5	
725.19	4722.6	
725.37	5270.8	
725.56	5259.2	
725.74	3879.5	
725.92	4034.5	
726.1	5212.1	
726.28	5425.1	
726.46	4394.9	
726.64	4186.7	
726.83	5512.4	
727.01	5618.3	
727.19	3874.1	
727.37	4420.9	
727.55	5545.2	
727.73	5883.8	
727.91	3812.6	
728.09	3674.1	
728.28	6026.5	
728.46	6263.4	
728.64	4455	
728.82	4516.5	
729	6772.6	
729.18	6128.9	
729.36	3872.7	
729.54	5619.6	
729.72	6895.5	
729.91	5614.2	
730.09	5348.6	
730.27	4366.3	
730.45	5509.7	
730.63	5991	
730.81	4805.9	
730.99	4034.5	
731.17	6350.1	
731.35	5306.3	
731.53	4481	
731.71	4177.2	
731.9	6143.9	
732.08	6242.9	
732.26	4372.4	
732.44	4118.5	
732.62	6255.2	
732.8	5901.6	
732.98	4612.7	
733.16	3961.5	
733.34	5904.3	
733.52	4915.1	
733.7	4305.5	
733.88	4537.6	
734.07	5758.9	
734.25	5564.3	
734.43	3864.5	
734.61	5005.2	
734.79	6686.6	
734.97	5514.5	
735.15	3982.6	
735.33	4220.2	
735.51	5778.7	
735.69	5548.6	
735.87	5016.2	
736.05	4426.3	
736.23	5597.1	
736.41	5409.4	
736.59	4231.1	
736.77	4323.3	
736.95	6009.4	
737.13	5440.8	
737.32	3953.9	
737.5	4148.5	
737.68	6301.6	
737.86	5360.9	
738.04	3775.1	
738.22	5216.2	
738.4	5236.7	
738.58	5479	
738.76	4272.1	
738.94	3479.5	
739.12	5398.4	
739.3	5249.6	
739.48	4706.2	
739.66	4445.5	
739.84	5433.3	
740.02	5462.6	
740.2	3571	
740.38	3743	
740.56	5736.4	
740.74	4838.7	
740.92	4321.2	
741.1	4180.6	
741.28	5373.9	
741.46	5148.6	
741.64	3970.3	
741.82	4336.2	
742	5381.4	
742.18	5297.4	
742.36	4097.3	
742.54	3765.5	
742.72	5795.8	
742.9	4775.2	
743.08	4349.2	
743.26	3516.4	
743.44	5870.2	
743.62	5714.5	
743.8	4474.1	
743.98	3779.2	
744.16	5541.8	
744.34	5212.8	
744.52	4352.6	
744.7	4392.9	
744.88	5715.2	
745.06	5294.7	
745.24	4450.9	
745.42	4498	
745.6	5810.8	
745.78	5642.8	
745.96	3532.7	
746.14	3751.9	
746.32	6281.8	
746.5	5723.4	
746.68	4177.2	
746.86	3784	
747.03	5998.5	
747.21	4763.6	
747.39	4177.9	
747.57	3791.5	
747.75	5412.1	
747.93	5692.7	
748.11	3725.3	
748.29	3721.2	
748.47	6654.5	
748.65	5236	
748.83	4335.5	
749.01	4069.3	
749.19	5566.4	
749.37	4924	
749.55	4011.3	
749.73	4095.3	
749.91	5367.7	
750.09	5101.5	
750.26	4120.5	
750.44	3647.4	
750.62	5377.3	
750.8	5249.6	
750.98	3462.4	
751.16	3820.8	
751.34	5406	
751.52	4863.9	
751.7	4369	
751.88	3498.6	
752.06	5720	
752.24	5521.3	
752.42	3515.7	
752.59	3702	
752.77	5334.3	
752.95	6199.9	
753.13	4294.6	
753.31	3862.5	
753.49	5017.5	
753.67	5412.1	
753.85	4037.9	
754.03	3715	
754.21	5591.6	
754.38	5838.8	
754.56	3853.6	
754.74	3164.8	
754.92	5015.5	
755.1	5516.5	
755.28	3178.4	
755.46	3272	
755.64	6273.6	
755.82	6324.8	
755.99	3535.5	
756.17	3642	
756.35	4424.3	
756.53	5633.3	
756.71	2837.1	
756.89	3474.7	
757.07	5235.3	
757.25	4611.3	
757.42	3923.9	
757.6	4526.7	
757.78	5337.7	
757.96	4526.7	
758.14	3611.9	
758.32	3267.2	
758.5	4230.4	
758.67	4871.4	
758.85	3454.2	
759.03	3619.4	
759.21	5061.2	
759.39	4601.8	
759.57	3188	
759.75	4029.7	
759.92	5502.2	
760.1	5031.9	
760.28	4328.7	
760.46	4439.3	
760.64	4777.9	
760.82	4647.5	
760.99	4053.6	
761.17	3500.7	
761.35	5444.2	
761.53	4617.5	
761.71	3630.4	
761.89	4143.7	
762.06	5287.2	
762.24	4873.5	
762.42	3757.3	
762.6	3545.7	
762.78	4915.8	
762.96	5322.7	
763.13	3990.8	
763.31	3693.9	
763.49	5446.2	
763.67	4840	
763.85	4356	
764.02	4823	
764.2	5732.9	
764.38	5003.9	
764.56	3577.8	
764.74	4321.2	
764.91	5732.9	
765.09	4943.8	
765.27	3445.4	
765.45	3218	
765.63	5832.6	
765.8	5648.3	
765.98	3060.3	
766.16	3269.9	
766.34	4581.3	
766.52	4341.7	
766.69	3963.5	
766.87	3194.8	
767.05	4935.6	
767.23	5627.8	
767.41	3477.5	
767.58	3607.8	
767.76	5382.7	
767.94	5385.5	
768.12	3494.5	
768.29	4027.7	
768.47	4973.8	
768.65	5513.1	
768.83	3199.6	
769	4080.9	
769.18	4671.4	
769.36	5226.4	
769.54	4050.2	
769.72	3224.2	
769.89	5429.8	
770.07	5498.1	
770.25	3497.9	
770.43	4499.4	
770.6	6072.9	
770.78	6324.1	
770.96	3635.8	
771.14	4114.4	
771.31	5393	
771.49	4916.5	
771.67	3033.7	
771.85	3203	
772.02	4320.5	
772.2	4832.5	
772.38	3763.5	
772.55	3491.1	
772.73	5115.1	
772.91	4858.5	
773.09	3686.3	
773.26	3727.3	
773.44	5101.5	
773.62	4846.9	
773.8	3323.2	
773.97	3138.2	
774.15	5158.2	
774.33	4851.6	
774.5	3233.7	
774.68	3480.2	
774.86	5220.3	
775.04	4861.9	
775.21	3321.1	
775.39	3374.4	
775.57	5058.5	
775.74	5309	
775.92	3229.6	
776.1	3105.4	
776.27	5056.4	
776.45	6013.5	
776.63	3293.1	
776.81	3007.1	
776.98	4819.6	
777.16	5672.9	
777.34	3478.8	
777.51	3695.2	
777.69	4726	
777.87	4601.8	
778.04	3495.2	
778.22	3928	
778.4	4654.4	
778.57	5128.1	
778.75	2936.8	
778.93	3170.9	
779.1	4526	
779.28	4365.6	
779.46	2938.2	
779.64	3286.3	
779.81	5292	
779.99	6019	
780.17	3883.6	
780.34	4075.5	
780.52	4831.8	
780.69	4980.7	
780.87	3599	
781.05	3214.6	
781.22	4923.3	
781.4	4956.8	
781.58	3373	
781.75	2695.1	
781.93	4941.1	
782.11	4412	
782.28	4057	
782.46	3299.3	
782.64	4324.6	
782.81	5110.4	
782.99	3516.4	
783.17	3364.1	
783.34	4916.5	
783.52	4393.6	
783.69	3535.5	
783.87	4158.1	
784.05	4546.5	
784.22	4469.4	
784.4	4149.2	
784.58	3591.5	
784.75	5238	
784.93	4554.7	
785.1	3350.5	
785.28	3837.9	
785.46	4999.8	
785.63	4489.1	
785.81	3373	
785.99	3286.3	
786.16	4693.9	
786.34	4874.2	
786.51	3287	
786.69	3609.9	
786.87	4306.2	
787.04	4678.9	
787.22	3118.4	
787.39	3896.6	
787.57	4472.8	
787.75	5382.1	
787.92	4070	
788.1	3926	
788.27	4485.7	
788.45	4216.8	
788.63	3798.3	
788.8	2781.8	
788.98	4940.4	
789.15	4214	
789.33	2932.7	
789.5	3358.7	
789.68	5236.7	
789.86	5332.2	
790.03	3704.1	
790.21	3269.2	
790.38	5253.7	
790.56	4595	
790.73	3198.2	
790.91	3157.3	
791.09	4521.2	
791.26	5083.7	
791.44	3397.6	
791.61	2962	
791.79	4472.8	
791.96	4511	
792.14	2999.6	
792.32	2715.6	
792.49	4481	
792.67	4609.3	
792.84	3117.7	
793.02	2955.9	
793.19	4872.8	
793.37	5384.1	
793.54	2730.6	
793.72	3006.4	
793.89	5459.9	
794.07	4479.6	
794.25	3485	
794.42	2756.6	
794.6	5259.9	
794.77	4991.6	
794.95	3684.3	
795.12	3201.7	
795.3	4461.8	
795.47	4916.5	
795.65	3504.1	
795.82	3382.6	
796	4275.5	
796.17	5818.3	
796.35	3310.9	
796.52	3903.4	
796.7	4927.4	
796.87	5018.9	
797.05	3326.6	
797.22	3966.2	
797.4	5002.5	
797.57	5655.8	
797.75	3411.9	
797.92	3210.5	
798.1	5236.7	
798.27	4399.7	
798.45	2895.8	
798.62	2990	
798.8	4771.8	
798.97	5130.2	
799.15	3581.9	
799.32	3413.3	
799.5	4175.1	
799.67	4771.1	
799.85	3717.1	
800.02	2741.5	
800.2	4470	
800.37	4651.6	
800.55	3828.3	
800.72	3180.5	
800.9	5059.8	
801.07	5410.1	
801.25	4254.3	
801.42	3536.2	
801.6	5113.8	
801.77	4829.8	
801.95	3339.6	
802.12	3138.2	
802.29	4886.5	
802.47	4835.9	
802.64	3483.6	
802.82	2709.5	
802.99	4463.9	
803.17	5203.2	
803.34	3400.3	
803.52	3053.5	
803.69	5748.6	
803.87	4263.2	
804.04	3404.4	
804.21	3468.6	
804.39	5388.9	
804.56	4637.3	
804.74	2928.6	
804.91	3535.5	
805.09	4526.7	
805.26	4583.4	
805.44	2996.9	
805.61	3254.2	
805.78	5018.9	
805.96	5015.5	
806.13	3503.4	
806.31	3775.8	
806.48	4138.9	
806.66	4519.9	
806.83	3523.9	
807	3433.1	
807.18	4531.5	
807.35	4813.4	
807.53	3441.3	
807.7	2812.5	
807.87	5384.1	
808.05	4500.1	
808.22	3775.1	
808.4	2831.7	
808.57	4455	
808.74	4235.2	
808.92	3172.3	
809.09	3990.8	
809.27	4478.2	
809.44	4883.7	
809.61	2865.8	
809.79	3095.8	
809.96	5477	
810.14	5046.2	
810.31	2749.7	
810.48	3327.9	
810.66	4528.7	
810.83	5121.3	
811.01	3179.1	
811.18	3487.7	
811.35	5134.3	
811.53	4021.5	
811.7	3770.3	
811.87	3497.2	
812.05	4564.9	
812.22	4471.4	
812.39	3103.4	
812.57	2965.5	
812.74	4524.6	
812.92	5772.5	
813.09	3323.2	
813.26	3596.2	
813.44	5622.4	
813.61	4445.5	
813.78	2846	
813.96	3665.9	
814.13	4584.7	
814.3	4295.3	
814.48	3997	
814.65	3289	
814.82	5431.2	
815	4304.1	
815.17	3439.9	
815.34	4087.1	
815.52	4457.7	
815.69	4454.3	
815.87	3334.1	
816.04	3330.7	
816.21	4510.3	
816.38	4052.9	
816.56	3238.5	
816.73	3104.7	
816.9	5558.2	
817.08	5040.1	
817.25	3125.2	
817.42	3794.9	
817.6	4173.8	
817.77	4513.7	
817.94	3464.5	
818.12	3037.1	
818.29	4354.7	
818.46	6331.6	
818.64	3192.8	
818.81	2985.9	
818.98	4371	
819.16	5931.6	
819.33	3617.4	
819.5	3409.9	
819.67	4770.4	
819.85	5319.3	
820.02	3319.8	
820.19	3504.1	
820.37	4667.3	
820.54	4411.3	
820.71	3446.7	
820.88	4138.3	
821.06	4689.2	
821.23	4362.9	
821.4	3437.9	
821.58	3439.2	
821.75	5018.9	
821.92	4672.1	
822.09	2828.2	
822.27	2888.3	
822.44	4519.9	
822.61	4424.3	
822.79	2837.8	
822.96	5228.5	
823.13	4823	
823.3	4220.9	
823.48	3218	
823.65	2967.5	
823.82	5083.7	
823.99	4188.8	
824.17	4095.3	
824.34	3003	
824.51	5746.6	
824.68	4611.3	
824.86	3166.2	
825.03	3473.4	
825.2	4457.1	
825.37	5315.8	
825.55	3072.6	
825.72	3375.1	
825.89	5767.8	
826.06	5434.6	
826.24	3301.3	
826.41	3332	
826.58	5424.4	
826.75	4717.8	
826.92	2683.5	
827.1	2958.6	
827.27	7079.1	
827.44	5739.1	
827.61	3146.4	
827.79	3773.7	
827.96	4369	
828.13	4541	
828.3	3321.8	
828.47	2841.2	
828.65	4838	
828.82	4687.1	
828.99	4167.6	
829.16	3604.4	
829.34	5042.1	
829.51	4877.6	
829.68	3360	
829.85	3466.5	
830.02	5382.1	
830.2	5087.2	
830.37	2641.9	
830.54	4032.5	
830.71	5665.4	
830.88	4534.9	
831.05	2698.5	
831.23	3069.2	
831.4	5464	
831.57	5993.7	
831.74	3151.1	
831.91	2803.7	
832.09	4858.5	
832.26	5063.3	
832.43	3272	
832.6	3634.5	
832.77	4782.7	
832.94	5329.5	
833.12	2637.1	
833.29	3186.6	
833.46	4418.8	
833.63	6136.4	
833.8	3568.9	
833.97	3256.3	
834.15	5093.3	
834.32	4867.3	
834.49	3321.8	
834.66	3430.3	
834.83	5213.4	
835	4400.4	
835.17	3112.9	
835.35	3123.8	
835.52	4990.2	
835.69	4895.3	
835.86	3300.6	
836.03	2757.9	
836.2	5059.8	
836.37	4713.1	
836.55	3232.4	
836.72	3035.8	
836.89	4694.6	
837.06	5125.4	
837.23	3241.9	
837.4	3589.4	
837.57	5621	
837.75	6122.7	
837.92	2979.1	
838.09	3183.2	
838.26	4694.6	
838.43	5191.6	
838.6	3438.5	
838.77	3003.7	
838.94	5836	
839.11	5693.4	
839.29	3256.3	
839.46	2590	
839.63	5035.3	
839.8	4804.5	
839.97	3136.1	
840.14	3183.2	
840.31	4918.5	
840.48	5032.5	
840.65	2622.8	
840.82	3098.6	
841	5026.4	
841.17	4946.5	
841.34	2957.3	
841.51	3004.4	
841.68	4962.9	
841.85	4758.8	
842.02	3036.5	
842.19	2575.7	
842.36	4855.1	
842.53	4844.1	
842.7	2910.8	
842.87	3446.7	
843.05	6114.6	
843.22	4834.6	
843.39	2770.9	
843.56	3028.9	
843.73	4649.6	
843.9	5163.6	
844.07	4582	
844.24	3798.3	
844.41	6896.9	
844.58	4432.5	
844.75	2879.4	
844.92	3087.7	
845.09	5038	
845.26	5013.4	
845.43	2887	
845.6	3082.9	
845.77	5012.1	
845.94	4819.6	
846.12	3158	
846.29	3328.6	
846.46	5245.5	
846.63	4976.6	
846.8	2920.4	
846.97	3421.5	
847.14	5369.1	
847.31	4969.7	
847.48	3236.5	
847.65	3558	
847.82	5212.8	
847.99	5113.1	
848.16	3812	
848.33	3519.1	
848.5	4689.8	
848.67	5424.4	
848.84	2859.6	
849.01	3031.7	
849.18	4605.9	
849.35	4306.2	
849.52	3575.8	
849.69	2842.6	
849.86	5248.9	
850.03	5313.8	
850.2	2949.8	
850.37	3477.5	
850.54	5261.2	
850.71	4732.9	
850.88	3455.6	
851.05	2871.9	
851.22	4944.5	
851.39	5393.7	
851.56	2685.6	
851.73	3265.8	
851.9	4478.2	
852.07	5178.6	
852.24	3204.4	
852.41	2824.8	
852.58	4975.2	
852.75	4528.7	
852.92	3214.6	
853.09	2840.5	
853.26	4657.8	
853.43	5350	
853.6	2889	
853.77	2538.1	
853.94	5443.5	
854.11	4452.3	
854.28	4198.3	
854.44	3117.7	
854.61	5742.5	
854.78	5277.6	
854.95	2843.9	
855.12	3590.8	
855.29	4146.5	
855.46	5557.5	
855.63	2921.8	
855.8	3880.9	
855.97	4654.4	
856.14	5289.9	
856.31	4024.9	
856.48	3121.8	
856.65	4720.6	
856.82	4410	
856.99	2807.8	
857.16	3127.2	
857.33	5948	
857.49	4753.3	
857.66	3095.8	
857.83	3326.6	
858	4754.7	
858.17	4951.3	
858.34	2759.3	
858.51	2911.5	
858.68	5485.8	
858.85	5478.3	
859.02	3365.5	
859.19	3530.7	
859.36	4488.5	
859.52	4496	
859.69	2934.1	
859.86	3322.5	
860.03	4475.5	
860.2	5427.1	
860.37	2669.2	
860.54	2947.7	
860.71	5218.9	
860.88	5471.5	
861.05	3166.2	
861.21	3646.7	
861.38	5420.3	
861.55	4336.9	
861.72	2686.9	
861.89	3199.6	
862.06	5187.5	
862.23	5588.2	
862.4	2860.3	
862.56	2992.8	
862.73	5090.6	
862.9	4836.6	
863.07	3324.5	
863.24	2691.7	
863.41	4391.5	
863.58	4444.1	
863.75	2966.1	
863.91	3332	
864.08	5348.6	
864.25	5105.6	
864.42	3575.1	
864.59	3949.2	
864.76	5782.1	
864.93	4502.1	
865.09	2834.4	
865.26	3089.7	
865.43	5404.6	
865.6	5754.1	
865.77	2525.1	
865.94	2869.2	
866.1	5410.7	
866.27	5063.9	
866.44	4261.1	
866.61	2790	
866.78	4760.2	
866.95	5116.5	
867.11	2839.2	
867.28	2607.1	
867.45	5279.7	
867.62	4517.8	
867.79	3272.7	
867.96	2878.8	
868.12	4478.9	
868.29	5173.2	
868.46	2880.8	
868.63	3796.9	
868.8	5293.3	
868.97	5069.4	
869.13	3015.3	
869.3	3005.1	
869.47	5079	
869.64	5261.2	
869.81	2893.8	
869.97	2891	
870.14	4947.9	
870.31	5517.9	
870.48	2790	
870.65	3639.9	
870.81	4765.6	
870.98	4770.4	
871.15	3274	
871.32	2990	
871.48	5063.9	
871.65	5579.3	
871.82	2852.1	
871.99	3219.4	
872.16	5866.7	
872.32	5370.5	
872.49	2946.3	
872.66	2938.2	
872.83	5107.6	
872.99	4603.2	
873.16	3305.4	
873.33	2901.3	
873.5	4874.2	
873.67	4944.5	
873.83	3087.7	
874	3803.8	
874.17	4986.8	
874.34	5782.8	
874.5	3701.4	
874.67	3548.4	
874.84	5425.8	
875.01	4384	
875.17	3981.9	
875.34	2831.7	
875.51	4886.5	
875.68	5855.1	
875.84	3450.1	
876.01	4218.1	
876.18	5150	
876.34	5110.4	
876.51	2922.5	
876.68	2880.8	
876.85	4701.5	
877.01	5375.9	
877.18	4045.4	
877.35	2910.8	
877.52	4887.1	
877.68	4414.7	
877.85	2846	
878.02	2874	
878.18	4752.7	
878.35	4605.2	
878.52	2355.8	
878.69	3224.9	
878.85	5201.2	
879.02	5145.9	
879.19	4035.2	
879.35	3069.2	
879.52	5169.8	
879.69	5275.6	
879.86	2579.8	
880.02	3203.7	
880.19	4775.9	
880.36	5752.7	
880.52	3265.8	
880.69	3450.8	
880.86	5194.3	
881.02	5260.5	
881.19	3232.4	
881.36	3125.9	
881.52	5113.8	
881.69	4612	
881.86	3104.7	
882.02	3064.4	
882.19	5326.8	
882.36	6097.5	
882.52	2973	
882.69	3966.2	
882.86	4977.2	
883.02	4906.3	
883.19	3471.3	
883.36	3295.9	
883.52	5251	
883.69	5794.4	
883.86	2936.8	
884.02	2650.8	
884.19	5161.6	
884.36	4843.4	
884.52	3248.1	
884.69	3089.7	
884.86	4638	
885.02	5617.6	
885.19	3170.3	
885.36	3313.6	
885.52	4786.1	
885.69	5015.5	
885.86	4094.6	
886.02	3622.2	
886.19	5169.1	
886.35	4696	
886.52	3207.8	
886.69	3944.4	
886.85	4482.3	
887.02	5424.4	
887.19	5424.4	
887.35	5424.4	
887.52	5424.4	
887.68	5424.4	
887.85	5424.4	
888.02	5424.4	
888.18	5424.4	
888.35	5424.4	
888.51	5424.4	
888.68	5424.4	
888.85	5424.4	
889.01	5424.4	
889.18	5424.4	
889.35	5424.4	
889.51	5424.4	
889.68	5424.4	
889.84	5424.4	
890.01	5424.4	
890.17	5424.4	
890.34	5424.4	
890.51	5424.4	
890.67	5424.4	
890.84	5424.4	
891	5424.4	
891.17	5424.4	
891.34	5424.4	
891.5	5424.4	
891.67	5424.4	
891.83	5424.4	
892	5424.4	
892.16	5424.4	
892.33	5424.4	
892.5	5424.4	
892.66	5424.4	
892.83	5424.4	
892.99	5424.4	
893.16	5424.4	
893.32	5424.4	
893.49	5424.4	
893.65	5424.4	
893.82	5424.4	
893.99	5424.4	
894.15	5424.4	
894.32	5424.4	
894.48	5424.4	
894.65	5424.4	
894.81	5424.4	
894.98	5424.4	
895.14	5424.4	
895.31	5424.4	
895.47	5424.4	
895.64	5424.4	
895.81	5424.4	
895.97	5424.4	
896.14	5424.4	
896.3	5424.4	
896.47	5424.4	
896.63	5424.4	
896.8	5424.4	
896.96	5424.4	
897.13	5424.4	
897.29	5424.4	
897.46	5424.4	
897.62	5424.4	
897.79	5424.4	
897.95	5424.4	
898.12	5424.4	
898.28	5424.4	
898.45	5424.4	
898.61	5424.4	
898.78	5424.4	
898.94	5424.4	
899.11	5424.4	
899.27	5424.4	
899.44	5424.4	
899.6	5424.4	
899.77	5424.4	
899.93	5424.4	
900.1	5424.4	
900.26	5424.4	
900.43	5424.4	
900.59	5424.4	
900.76	5424.4	
900.92	5424.4	
901.09	5424.4	
901.25	5424.4	
901.42	5424.4	
901.58	5424.4	
901.75	5424.4	
901.91	5424.4	
902.07	5424.4	
902.24	5424.4	
902.4	5424.4	
902.57	5424.4	
902.73	5424.4	
902.9	5424.4	
903.06	5424.4	
903.23	5424.4	
903.39	5424.4	
903.56	5424.4	
903.72	5424.4	
903.88	5424.4	
904.05	5424.4	
904.21	5424.4	
904.38	5424.4	
904.54	5424.4	
904.71	5424.4	
904.87	5424.4	
905.03	5424.4	
905.2	5424.4	
905.36	5424.4	
905.53	5424.4	
905.69	5424.4	
905.86	5424.4	
906.02	5424.4	
906.18	5424.4	
906.35	5424.4	
906.51	5424.4	
906.68	5424.4	
906.84	5424.4	
907.01	5424.4	
907.17	5424.4	
907.33	5424.4	
907.5	5424.4	
907.66	5424.4	
907.83	5424.4	
907.99	5424.4	
908.15	5424.4	
908.32	5424.4	
908.48	5424.4	
908.65	5424.4	
908.81	5424.4	
908.97	5424.4	
909.14	5424.4	
909.3	5424.4	
909.47	5424.4	
909.63	5424.4	
909.79	5424.4	
909.96	5424.4	
910.12	5424.4	
910.28	5424.4	
910.45	5424.4	
910.61	5424.4	
910.78	5424.4	
910.94	5424.4	
911.1	5424.4	
911.27	5424.4	
911.43	5424.4	
911.59	5424.4	
911.76	5424.4	
911.92	5424.4	
912.08	5424.4	
912.25	5424.4	
912.41	5424.4	
912.57	5424.4	
912.74	5424.4	
912.9	5424.4	
913.07	5424.4	
913.23	5424.4	
913.39	5424.4	
913.56	5424.4	
913.72	5424.4	
913.88	5424.4	
914.05	5424.4	
914.21	5424.4	
914.37	5424.4	
914.54	5424.4	
914.7	5424.4	
914.86	5424.4	
915.03	5424.4	
915.19	5424.4	
