Wavelength	Intensities	
nm	a.u.	
179.22	1914.9	
179.44	1919.6	
179.65	1910.1	
179.86	1929.2	
180.08	1962	
180.29	5091.9	
180.51	3563.5	
180.72	5799.8	
180.94	6761	
181.15	3338.9	
181.37	3287	
181.58	5658.5	
181.79	5981.4	
182.01	3454.9	
182.22	3742.3	
182.44	5915.2	
182.65	4926.7	
182.87	4713.7	
183.08	4093.9	
183.29	6253.8	
183.51	5129.5	
183.72	3743.7	
183.94	5563	
184.15	5485.1	
184.37	5539.1	
184.58	3272	
184.79	4613.4	
185.01	5134.9	
185.22	5900.9	
185.44	4853	
185.65	4003.1	
185.86	5390.9	
186.08	5025	
186.29	3207.1	
186.51	3473.4	
186.72	5152	
186.94	6090	
187.15	3997	
187.36	4165.6	
187.58	7978.9	
187.79	5665.4	
188.01	4337.6	
188.22	6778.1	
188.43	6851.8	
188.65	5852.4	
188.86	3487	
189.08	4139.6	
189.29	5351.3	
189.5	5332.9	
189.72	3812.6	
189.93	3951.2	
190.15	6034.7	
190.36	7351.5	
190.57	4300.1	
190.79	4033.8	
191	6227.2	
191.22	6144.6	
191.43	4264.6	
191.64	3402.4	
191.86	6374.6	
192.07	6116.6	
192.29	3644.7	
192.5	3848.1	
192.71	6086.6	
192.93	5227.8	
193.14	3755.3	
193.35	3993.5	
193.57	5283.1	
193.78	6114.6	
194	3043.3	
194.21	3773.7	
194.42	5059.2	
194.64	5567.1	
194.85	4110.3	
195.07	4924.7	
195.28	5563.6	
195.49	4759.5	
195.71	5173.2	
195.92	3533.4	
196.13	5693.4	
196.35	5891.3	
196.56	5460.6	
196.78	4148.5	
196.99	7207.5	
197.2	6784.9	
197.42	4772.4	
197.63	4257	
197.84	4913.1	
198.06	5741.8	
198.27	3863.2	
198.48	5150.6	
198.7	5283.8	
198.91	5421.7	
199.13	4171	
199.34	4165.6	
199.55	5945.3	
199.77	4792.9	
199.98	3660.4	
200.19	4182.6	
200.41	5468.1	
200.62	5104.2	
200.83	4373.8	
201.05	4684.4	
201.26	5436.7	
201.47	5150	
201.69	3738.9	
201.9	3567.6	
202.11	5520	
202.33	6569.9	
202.54	4016.7	
202.76	4433.9	
202.97	5638.1	
203.18	5636.7	
203.4	4439.3	
203.61	4240	
203.82	5629.9	
204.04	5212.1	
204.25	4245.4	
204.46	4119.8	
204.68	5496.7	
204.89	5812.8	
205.1	4107.5	
205.32	3518.4	
205.53	5999.2	
205.74	6087.9	
205.96	3004.4	
206.17	4311.7	
206.38	5941.2	
206.6	6098.9	
206.81	4816.1	
207.02	3873.4	
207.24	5832.6	
207.45	6214.2	
207.66	4025.6	
207.88	3374.4	
208.09	5775.3	
208.3	5536.3	
208.52	3657.7	
208.73	4026.3	
208.94	5509	
209.15	6290	
209.37	3982.6	
209.58	4190.1	
209.79	6065.4	
210.01	5292	
210.22	3183.9	
210.43	3327.9	
210.65	5498.1	
210.86	6006	
211.07	3969.6	
211.29	3692.5	
211.5	5909.8	
211.71	5451	
211.93	3685.7	
212.14	3618.8	
212.35	5442.8	
212.56	5767.1	
212.78	4205.2	
212.99	3459.7	
213.2	6513.2	
213.42	5267.4	
213.63	3777.1	
213.84	4095.3	
214.06	4834.6	
214.27	5020.9	
214.48	4010.6	
214.69	4269.3	
214.91	6205.3	
215.12	6341.2	
215.33	4332.1	
215.55	4751.3	
215.76	6860	
215.97	5926.8	
216.18	4117.1	
216.4	4024.3	
216.61	5167	
216.82	6030.6	
217.04	3609.2	
217.25	3842.7	
217.46	6215.6	
217.67	5950.7	
217.89	3284.9	
218.1	3425.6	
218.31	5618.3	
218.53	5733.6	
218.74	3881.6	
218.95	3716.4	
219.16	5436	
219.38	6567.2	
219.59	3787.4	
219.8	4513.7	
220.01	7199.3	
220.23	5596.4	
220.44	4931.5	
220.65	3623.5	
220.87	5612.8	
221.08	6220.4	
221.29	3435.1	
221.5	4609.3	
221.72	7593.2	
221.93	5209.3	
222.14	4231.1	
222.35	4924.7	
222.57	5570.5	
222.78	5915.2	
222.99	3961.5	
223.2	4348.5	
223.42	5898.8	
223.63	6009.4	
223.84	3055.6	
224.05	3031.7	
224.27	7152.9	
224.48	6501.6	
224.69	5259.2	
224.9	4196.3	
225.12	5817.6	
225.33	5472.9	
225.54	3346.4	
225.75	3744.4	
225.97	5063.9	
226.18	5383.4	
226.39	4068.6	
226.6	3747.8	
226.82	5263.3	
227.03	5154.1	
227.24	4226.3	
227.45	3474.7	
227.67	5931.6	
227.88	6561	
228.09	4737	
228.3	4729.4	
228.52	5971.9	
228.73	5502.2	
228.94	3896.6	
229.15	3461.1	
229.36	5450.3	
229.58	5358.2	
229.79	3855	
230	4595.6	
230.21	6629.3	
230.43	5643.5	
230.64	4147.8	
230.85	4403.8	
231.06	6029.2	
231.28	5997.8	
231.49	3472.7	
231.7	4100	
231.91	5840.1	
232.12	5520.6	
232.34	3547.1	
232.55	4076.8	
232.76	6206.7	
232.97	5750.7	
233.18	3716.4	
233.4	4165.6	
233.61	5806	
233.82	5282.4	
234.03	3842.7	
234.25	3767.6	
234.46	7804.1	
234.67	5598.5	
234.88	4309.6	
235.09	3685	
235.31	5894.1	
235.52	5479	
235.73	4186	
235.94	3510.2	
236.15	5269.4	
236.37	6767.2	
236.58	3657.7	
236.79	4020.2	
237	5877	
237.21	5017.5	
237.43	4362.2	
237.64	3368.2	
237.85	10226	
238.06	5078.3	
238.27	4416.8	
238.48	3525.9	
238.7	5879.7	
238.91	5330.9	
239.12	3936.2	
239.33	4100	
239.54	5131.5	
239.76	5492.7	
239.97	3977.8	
240.18	4008.6	
240.39	7035.5	
240.6	5798.5	
240.82	4179.9	
241.03	3327.9	
241.24	5532.9	
241.45	6496.8	
241.66	3631.7	
241.87	4358.1	
242.09	6272.2	
242.3	6711.2	
242.51	4411.3	
242.72	4037.9	
242.93	6016.9	
243.14	5397.8	
243.36	4644.1	
243.57	5020.9	
243.78	6380.8	
243.99	5909.8	
244.2	4029.7	
244.41	3715.7	
244.63	5070.8	
244.84	5874.3	
245.05	4286.4	
245.26	3999.7	
245.47	5814.9	
245.68	6171.2	
245.9	5361.6	
246.11	4205.2	
246.32	5352.7	
246.53	5815.5	
246.74	6589	
246.95	3390.8	
247.16	4979.3	
247.38	5507.7	
247.59	3364.1	
247.8	4080.9	
248.01	5188.2	
248.22	5456.5	
248.43	3646.1	
248.64	3913.7	
248.86	4893.3	
249.07	5289.2	
249.28	3467.2	
249.49	4121.2	
249.7	6132.3	
249.91	6313.2	
250.12	3350.5	
250.34	3406.5	
250.55	5629.2	
250.76	5579.3	
250.97	4183.3	
251.18	4156	
251.39	6257.9	
251.6	5694	
251.81	4310.3	
252.03	4247.5	
252.24	5241.4	
252.45	6100.2	
252.66	3512.9	
252.87	4478.2	
253.08	5563.6	
253.29	7431.4	
253.5	3433.8	
253.72	4915.1	
253.93	5337	
254.14	6653.2	
254.35	3848.8	
254.56	3946.4	
254.77	5786.2	
254.98	5088.5	
255.19	3810.6	
255.41	4899.4	
255.62	5597.8	
255.83	6266.1	
256.04	4380.6	
256.25	4346.5	
256.46	6847	
256.67	5230.5	
256.88	4173.1	
257.09	4677.6	
257.31	5168.4	
257.52	5218.9	
257.73	5220.3	
257.94	3807.9	
258.15	5326.1	
258.36	5546.6	
258.57	4805.9	
258.78	3008.5	
258.99	6105	
259.2	5311.1	
259.41	3871.3	
259.63	3936.9	
259.84	6456.6	
260.05	6927.6	
260.26	5074.9	
260.47	3736.2	
260.68	6152.8	
260.89	5440.1	
261.1	4650.3	
261.31	3649.5	
261.52	6117.3	
261.73	6553.5	
261.95	5020.9	
262.16	4323.3	
262.37	6296.1	
262.58	6397.9	
262.79	4956.8	
263	3948.5	
263.21	5611.4	
263.42	5042.8	
263.63	3930.1	
263.84	3840.6	
264.05	6115.2	
264.26	6514.6	
264.47	4848.2	
264.69	4381.3	
264.9	6222.4	
265.11	5811.5	
265.32	3702.7	
265.53	3832.4	
265.74	5673.6	
265.95	5003.9	
266.16	4118.5	
266.37	4515.8	
266.58	5706.3	
266.79	5373.2	
267	3821.5	
267.21	3491.1	
267.42	5089.9	
267.63	5526.8	
267.84	4003.1	
268.06	3424.2	
268.27	5917.9	
268.48	6324.8	
268.69	3919.8	
268.9	4647.5	
269.11	6282.5	
269.32	5000.5	
269.53	3994.2	
269.74	3691.1	
269.95	5918.6	
270.16	4889.2	
270.37	4012	
270.58	4644.1	
270.79	5322.7	
271	6067.4	
271.21	4298.7	
271.42	4085	
271.63	5630.5	
271.84	5201.8	
272.05	3180.5	
272.26	3636.5	
272.47	5582.1	
272.68	5783.5	
272.89	3846.1	
273.11	4432.5	
273.32	5397.1	
273.53	6551.5	
273.74	4388.1	
273.95	4273.4	
274.16	6292	
274.37	5639.4	
274.58	4447.5	
274.79	3508.9	
275	5642.8	
275.21	6328.9	
275.42	5356.1	
275.63	4554	
275.84	5778.7	
276.05	7334.5	
276.26	4276.2	
276.47	4081.6	
276.68	5332.9	
276.89	6621.1	
277.1	4532.8	
277.31	3531.4	
277.52	5851.7	
277.73	5999.9	
277.94	3463.1	
278.15	3898.6	
278.36	5799.2	
278.57	5173.2	
278.78	3846.1	
278.99	4428.4	
279.2	5173.9	
279.41	5084.4	
279.62	5061.9	
279.83	3517	
280.04	6786.3	
280.25	5031.9	
280.46	5055.1	
280.67	4031.1	
280.88	5130.2	
281.09	6198.5	
281.3	4251.6	
281.51	5353.4	
281.72	6106.4	
281.93	6109.1	
282.14	3743.7	
282.35	4050.9	
282.56	6044.2	
282.77	6068.1	
282.98	3872.7	
283.19	4858.5	
283.4	7417.1	
283.61	5492	
283.82	3543	
284.03	5036.6	
284.24	5665.4	
284.45	6313.2	
284.66	5033.9	
284.87	4814.1	
285.08	6128.9	
285.29	6335	
285.5	3424.2	
285.71	4004.5	
285.92	6199.2	
286.12	6938.5	
286.33	5008	
286.54	3895.2	
286.75	6072.2	
286.96	5454.4	
287.17	3529.3	
287.38	4957.4	
287.59	5165.7	
287.8	5113.8	
288.01	3951.2	
288.22	4556.7	
288.43	6080.4	
288.64	5091.3	
288.85	4727.4	
289.06	4462.5	
289.27	5970.5	
289.48	6562.4	
289.69	5012.7	
289.9	4566.3	
290.11	6204	
290.32	5225.7	
290.53	4800.4	
290.74	4397	
290.94	6025.1	
291.15	6081.1	
291.36	3835.2	
291.57	4572.4	
291.78	5279	
291.99	4913.1	
292.2	3592.1	
292.41	4394.3	
292.62	6144.6	
292.83	5889.3	
293.04	5464.7	
293.25	3591.5	
293.46	5375.2	
293.67	6193.1	
293.88	3784	
294.09	3611.3	
294.29	5087.8	
294.5	5730.2	
294.71	4083.6	
294.92	3891.8	
295.13	5316.5	
295.34	6717.3	
295.55	3393.5	
295.76	3461.1	
295.97	5969.8	
296.18	6717.3	
296.39	3592.8	
296.6	3775.8	
296.81	5708.4	
297.01	5975.3	
297.22	3982.6	
297.43	3737.5	
297.64	5127.4	
297.85	5190.2	
298.06	3117.7	
298.27	3386	
298.48	5658.5	
298.69	5250.3	
298.9	4112.3	
299.11	3687.7	
299.31	5001.1	
299.52	5042.1	
299.73	4379.9	
299.94	4360.1	
300.15	5599.8	
300.36	5183.4	
300.57	4339	
300.78	4362.2	
300.99	5415.5	
301.2	5672.2	
301.4	3710.9	
301.61	4123.9	
301.82	5819	
302.03	6019	
302.24	4631.1	
302.45	3522.5	
302.66	5908.4	
302.87	6378.7	
303.08	3842.7	
303.29	5188.9	
303.49	5295.4	
303.7	5600.5	
303.91	3353.2	
304.12	4924	
304.33	5042.1	
304.54	5666	
304.75	3839.9	
304.96	3603.7	
305.16	5926.1	
305.37	6676.4	
305.58	3264.5	
305.79	3334.1	
306	5894.1	
306.21	4932.9	
306.42	3820.8	
306.63	5801.9	
306.83	5366.4	
307.04	6249	
307.25	4169	
307.46	4124.6	
307.67	4731.5	
307.88	6028.5	
308.09	3700.7	
308.29	3852.2	
308.5	5637.4	
308.71	6171.2	
308.92	4080.9	
309.13	3672	
309.34	5377.3	
309.55	5500.8	
309.75	4794.3	
309.96	4327.4	
310.17	6021	
310.38	5231.9	
310.59	4558.1	
310.8	4204.5	
311.01	6748.1	
311.21	5397.8	
311.42	3562.1	
311.63	3720.5	
311.84	5226.4	
312.05	5655.8	
312.26	4235.2	
312.46	4635.2	
312.67	5379.3	
312.88	5115.1	
313.09	3655.6	
313.3	3599	
313.51	6417	
313.71	6774.7	
313.92	3642.7	
314.13	3831.1	
314.34	5808.7	
314.55	5498.8	
314.76	4667.3	
314.96	4125.3	
315.17	5557.5	
315.38	5981.4	
315.59	3627	
315.8	3503.4	
316.01	6496.2	
316.21	6580.8	
316.42	3525.2	
316.63	4067.3	
316.84	5436	
317.05	6249	
317.26	4367.6	
317.46	3900.7	
317.67	5488.6	
317.88	5948	
318.09	4689.2	
318.3	3347.1	
318.5	5244.8	
318.71	5939.8	
318.92	5964.4	
319.13	4301.4	
319.34	6093.4	
319.54	6242.2	
319.75	3382.6	
319.96	3256.3	
320.17	5965.1	
320.38	6225.1	
320.58	3304.1	
320.79	4027.7	
321	6125.5	
321.21	6279.1	
321.42	4059.1	
321.62	3269.2	
321.83	5094.7	
322.04	5511.1	
322.25	3877.5	
322.46	3684.3	
322.66	5757.5	
322.87	5819.6	
323.08	4505.5	
323.29	3600.3	
323.5	6656.6	
323.7	5138.4	
323.91	4995.7	
324.12	4532.8	
324.33	5614.2	
324.53	5871.5	
324.74	4323.3	
324.95	4563.6	
325.16	4889.9	
325.37	5365	
325.57	3673.4	
325.78	3743.7	
325.99	5558.9	
326.2	5057.1	
326.4	5320.6	
326.61	3366.2	
326.82	5506.3	
327.03	5673.6	
327.24	5253.7	
327.44	5038	
327.65	5844.9	
327.86	4673.5	
328.07	4367.6	
328.27	3553.2	
328.48	6251.1	
328.69	5117.9	
328.9	5341.1	
329.1	3921.2	
329.31	5409.4	
329.52	6434.7	
329.73	3611.9	
329.93	4104.1	
330.14	5571.2	
330.35	5813.5	
330.56	6064.7	
330.76	4564.9	
330.97	5356.8	
331.18	5756.2	
331.39	4033.8	
331.59	3276.1	
331.8	6219.7	
332.01	6310.5	
332.22	3729.4	
332.42	4373.1	
332.63	5637.4	
332.84	5280.3	
333.05	4083.6	
333.25	3713	
333.46	5332.9	
333.67	5587.5	
333.88	3869.3	
334.08	4300.7	
334.29	7578.2	
334.5	6247.7	
334.7	3469.9	
334.91	5301.5	
335.12	5090.6	
335.33	5999.2	
335.53	4068.6	
335.74	6103.6	
335.95	5264	
336.16	5171.1	
336.36	4067.3	
336.57	4702.8	
336.78	5066.7	
336.98	6139.8	
337.19	4994.3	
337.4	3982.6	
337.61	6741.2	
337.81	5081	
338.02	3743	
338.23	4825.7	
338.43	6303	
338.64	5160.2	
338.85	3667.2	
339.05	4921.3	
339.26	6445	
339.47	4963.6	
339.68	3650.8	
339.88	5519.3	
340.09	5782.1	
340.3	6033.3	
340.5	4316.4	
340.71	3262.4	
340.92	4975.9	
341.13	6273.6	
341.33	3537.5	
341.54	4366.3	
341.75	5768.4	
341.95	5421.7	
342.16	4109.6	
342.37	4544.4	
342.57	5123.3	
342.78	5537	
342.99	4590.2	
343.19	3256.3	
343.4	5993	
343.61	5862	
343.81	3846.1	
344.02	3606.5	
344.23	6023.1	
344.43	6554.2	
344.64	4560.1	
344.85	4465.9	
345.06	5836.7	
345.26	6193.1	
345.47	4242.7	
345.68	4989.5	
345.88	4898.1	
346.09	6086.6	
346.3	4337.6	
346.5	3263.8	
346.71	5562.3	
346.92	5244.8	
347.12	3330.7	
347.33	4229.7	
347.54	6145.3	
347.74	6526.2	
347.95	4209.3	
348.16	3098.6	
348.36	5367	
348.57	5214.8	
348.78	4190.8	
348.98	4515.8	
349.19	5488.6	
349.39	4972.5	
349.6	3262.4	
349.81	3739.6	
350.01	5865.4	
350.22	5207.3	
350.43	4033.1	
350.63	4925.4	
350.84	5645.6	
351.05	5326.8	
351.25	3713	
351.46	3327.3	
351.67	6184.9	
351.87	5211.4	
352.08	3925.3	
352.29	4498	
352.49	6014.2	
352.7	6176	
352.9	3551.9	
353.11	4557.4	
353.32	6702.3	
353.52	5362.3	
353.73	3504.1	
353.94	4511	
354.14	5891.3	
354.35	5661.3	
354.55	3607.8	
354.76	4046.8	
354.97	5797.1	
355.17	5615.5	
355.38	3386	
355.59	4818.2	
355.79	5176.6	
356	5685.2	
356.2	4081.6	
356.41	3495.2	
356.62	4851.6	
356.82	5432.6	
357.03	4265.2	
357.24	3865.9	
357.44	5253	
357.65	5335.6	
357.85	5156.8	
358.06	4047.5	
358.27	4921.3	
358.47	5145.9	
358.68	3299.3	
358.88	4246.8	
359.09	5748.6	
359.3	6212.9	
359.5	4994.3	
359.71	4430.4	
359.91	6659.3	
360.12	5881.1	
360.33	4270	
360.53	4806.6	
360.74	5115.8	
360.94	5259.2	
361.15	4503.5	
361.36	3586	
361.56	6049.7	
361.77	5401.9	
361.97	4964.3	
362.18	3904.1	
362.38	6049.7	
362.59	5054.4	
362.8	3604.4	
363	3371.6	
363.21	4816.8	
363.41	5554.1	
363.62	4074.1	
363.83	5223.7	
364.03	5602.6	
364.24	6667.5	
364.44	5287.2	
364.65	5108.3	
364.85	5354.8	
365.06	4962.2	
365.27	3691.8	
365.47	3707.5	
365.68	6368.5	
365.88	5302.9	
366.09	4150.5	
366.29	3841.3	
366.5	5565	
366.71	6016.2	
366.91	5199.1	
367.12	4328	
367.32	6651.1	
367.53	5900.9	
367.73	4199.7	
367.94	5281.7	
368.14	5836	
368.35	6833.4	
368.56	4216.1	
368.76	3547.1	
368.97	5950	
369.17	7739.3	
369.38	3698.6	
369.58	3987.4	
369.79	4946.5	
369.99	6287.9	
370.2	5074.2	
370.4	4138.9	
370.61	5671.5	
370.82	6881.2	
371.02	3973.1	
371.23	3256.3	
371.43	4794.3	
371.64	6223.1	
371.84	3995.6	
372.05	5307	
372.25	7735.9	
372.46	5990.3	
372.66	4004.5	
372.87	3898.6	
373.07	6001.2	
373.28	7681.2	
373.48	5100.1	
373.69	4703.5	
373.9	5452.4	
374.1	5410.1	
374.31	4940.4	
374.51	4472.8	
374.72	6309.1	
374.92	5057.8	
375.13	5090.6	
375.33	4239.3	
375.54	5829.9	
375.74	5227.1	
375.95	4259.8	
376.15	5595.1	
376.36	5765	
376.56	5614.2	
376.77	4415.4	
376.97	4789.5	
377.18	6929	
377.38	5898.8	
377.59	5216.9	
377.79	3806.5	
378	5645.6	
378.2	6058.6	
378.41	3840.6	
378.61	3822.9	
378.82	6178.7	
379.02	5188.9	
379.23	3973.7	
379.43	5258.5	
379.64	6139.1	
379.84	5764.3	
380.05	3865.9	
380.25	3775.1	
380.46	5876.3	
380.66	5481.7	
380.87	5265.3	
381.07	5659.2	
381.28	6565.8	
381.48	5948.7	
381.69	3917.8	
381.89	3919.1	
382.1	4803.9	
382.3	6106.4	
382.51	5113.1	
382.71	6024.4	
382.91	5963	
383.12	6460.7	
383.32	4287.1	
383.53	4573.8	
383.73	5809.4	
383.94	5511.1	
384.14	4401.1	
384.35	3509.5	
384.55	5479	
384.76	6001.9	
384.96	4245.4	
385.17	4647.5	
385.37	5948	
385.58	5167	
385.78	4677.6	
385.98	3425.6	
386.19	5405.3	
386.39	5807.4	
386.6	4009.2	
386.8	4298	
387.01	5940.5	
387.21	5953.4	
387.42	4724.7	
387.62	5388.2	
387.83	5180.7	
388.03	5927.5	
388.23	4273.4	
388.44	5196.4	
388.64	4948.6	
388.85	4995	
389.05	4693.3	
389.26	5283.8	
389.46	6939.9	
389.67	6352.1	
389.87	4554.7	
390.07	4727.4	
390.28	5478.3	
390.48	5114.5	
390.69	3803.8	
390.89	4125.3	
391.1	5264	
391.3	6283.2	
391.5	5378.6	
391.71	6141.9	
391.91	5896.8	
392.12	7066.2	
392.32	5515.9	
392.53	4687.8	
392.73	5266	
392.93	5531.6	
393.14	4302.1	
393.34	5119.9	
393.55	6055.2	
393.75	5543.9	
393.95	4349.2	
394.16	4329.4	
394.36	5256.5	
394.57	5963.7	
394.77	3764.2	
394.98	4252.9	
395.18	5156.1	
395.38	5317.2	
395.59	5079	
395.79	4017.4	
396	5270.8	
396.2	5834	
396.4	4862.6	
396.61	4792.2	
396.81	6077	
397.02	5266	
397.22	5107	
397.42	5138.4	
397.63	5984.8	
397.83	5128.1	
398.04	3926.6	
398.24	4460.5	
398.44	5797.1	
398.65	4750.6	
398.85	3829	
399.05	3879.5	
399.26	5130.8	
399.46	6995.2	
399.67	4229.7	
399.87	3965.6	
400.07	5470.1	
400.28	5858.6	
400.48	4130.8	
400.69	5075.5	
400.89	6190.3	
401.09	6510.5	
401.3	3863.2	
401.5	5165	
401.7	6784.2	
401.91	7051.2	
402.11	4275.5	
402.32	4536.3	
402.52	6038.1	
402.72	6016.9	
402.93	4683.7	
403.13	3477.5	
403.33	6804.7	
403.54	5521.3	
403.74	4459.1	
403.94	5382.7	
404.15	5704.3	
404.35	6869.6	
404.56	4222.9	
404.76	6250.4	
404.96	6125.5	
405.17	5939.8	
405.37	5635.3	
405.57	4691.2	
405.78	6206	
405.98	5537	
406.18	4231.8	
406.39	5127.4	
406.59	6049.7	
406.79	5733.6	
407	3999.7	
407.2	4149.2	
407.4	6153.5	
407.61	6413.6	
407.81	4067.3	
408.01	6429.9	
408.22	5007.3	
408.42	7146.7	
408.62	5164.3	
408.83	4608.6	
409.03	5593	
409.23	5345.9	
409.44	4691.2	
409.64	4995	
409.84	6470.9	
410.05	6375.3	
410.25	4754.7	
410.45	4537.6	
410.66	5789.6	
410.86	8370	
411.06	4892.6	
411.27	4727.4	
411.47	8101.1	
411.67	5948.7	
411.88	5081	
412.08	5210	
412.28	6620.4	
412.49	7174	
412.69	4683.7	
412.89	4720.6	
413.09	6928.3	
413.3	6664.8	
413.5	4761.5	
413.7	4369	
413.91	5980.8	
414.11	6870.9	
414.31	4545.8	
414.52	4967	
414.72	6465.4	
414.92	6338.5	
415.12	4586.1	
415.33	5082.4	
415.53	6774.7	
415.73	6988.4	
415.94	5509	
416.14	4904.2	
416.34	5653.1	
416.55	5472.9	
416.75	6204.7	
416.95	5442.8	
417.15	6643.6	
417.36	7530.4	
417.56	6307.7	
417.76	5326.8	
417.97	7134.4	
418.17	6689.3	
418.37	4766.3	
418.57	4887.1	
418.78	6464.1	
418.98	6093.4	
419.18	5803.3	
419.38	5740.5	
419.59	6221.7	
419.79	5844.2	
419.99	4734.2	
420.2	5289.9	
420.4	6694.1	
420.6	6960.4	
420.8	4677.6	
421.01	4473.4	
421.21	6570.6	
421.41	6702.3	
421.61	5096	
421.82	4739	
422.02	5984.8	
422.22	7052.5	
422.42	5668.1	
422.63	5264	
422.83	6123.4	
423.03	7384.3	
423.23	5295.4	
423.44	4189.5	
423.64	6210.8	
423.84	6014.9	
424.04	4635.2	
424.25	4357.4	
424.45	7270.3	
424.65	7159.7	
424.85	4114.4	
425.06	4773.8	
425.26	7168.6	
425.46	5649	
425.66	5304.2	
425.87	4988.9	
426.07	6953.5	
426.27	6749.4	
426.47	5105.6	
426.67	4406.5	
426.88	7346.7	
427.08	6744.6	
427.28	5321.3	
427.48	4369.7	
427.69	5599.8	
427.89	6277.7	
428.09	5333.6	
428.29	4461.2	
428.5	7065.5	
428.7	6518.7	
428.9	4323.3	
429.1	4982.7	
429.3	6456.6	
429.51	6941.2	
429.71	4627.7	
429.91	5467.4	
430.11	6694.8	
430.31	6910.5	
430.52	4872.1	
430.72	5178.6	
430.92	7318.1	
431.12	6672.3	
431.32	4544.4	
431.53	5067.4	
431.73	5547.9	
431.93	7317.4	
432.13	4468.7	
432.33	4329.4	
432.54	6089.3	
432.74	6475.7	
432.94	4216.1	
433.14	5384.8	
433.34	6599.9	
433.55	6080.4	
433.75	5323.4	
433.95	7129	
434.15	6327.5	
434.35	6072.9	
434.56	4487.1	
434.76	3943.7	
434.96	6307.1	
435.16	6529.6	
435.36	4377.2	
435.56	5436.7	
435.77	5937.1	
435.97	6137.1	
436.17	6191.7	
436.37	5397.8	
436.57	5861.3	
436.78	5701.5	
436.98	7262.1	
437.18	6021.7	
437.38	6601.3	
437.58	6128.2	
437.78	6214.9	
437.99	4717.2	
438.19	6712.6	
438.39	7521.5	
438.59	4645.5	
438.79	4109.6	
438.99	7369.3	
439.2	6161	
439.4	4361.5	
439.6	4259.8	
439.8	6430.6	
440	7614.3	
440.2	5304.2	
440.4	5483.8	
440.61	6788.3	
440.81	7357	
441.01	4349.9	
441.21	5268.7	
441.41	7148.8	
441.61	6815	
441.81	5588.9	
442.02	6750.1	
442.22	7719.5	
442.42	6842.9	
442.62	4436.6	
442.82	4546.5	
443.02	7157.7	
443.22	6236.1	
443.43	4908.3	
443.63	4358.1	
443.83	5979.4	
444.03	6065.4	
444.23	5638.1	
444.43	5232.6	
444.63	6281.1	
444.83	7688.8	
445.04	4450.2	
445.24	5803.3	
445.44	6747.4	
445.64	6825.9	
445.84	5412.1	
446.04	5236.7	
446.24	6033.3	
446.44	7208.8	
446.65	4545.8	
446.85	4985.4	
447.05	6221.7	
447.25	7100.3	
447.45	5050.3	
447.65	4365.6	
447.85	6395.8	
448.05	6085.9	
448.25	5560.2	
448.46	5252.4	
448.66	6431.3	
448.86	6143.9	
449.06	4233.8	
449.26	5543.2	
449.46	6840.2	
449.66	5775.3	
449.86	4919.2	
450.06	4889.9	
450.26	5966.4	
450.47	6588.3	
450.67	5167.7	
450.87	5556.1	
451.07	6667.5	
451.27	6365.8	
451.47	4465.3	
451.67	5081	
451.87	6074.3	
452.07	7344.7	
452.27	4720.6	
452.47	4683.7	
452.67	6292.7	
452.88	6901	
453.08	4070.7	
453.28	6156.9	
453.48	7658	
453.68	6393.1	
453.88	4523.3	
454.08	4788.2	
454.28	6726.9	
454.48	6375.3	
454.68	5318.6	
454.88	5963.7	
455.08	6903	
455.28	6510.5	
455.48	4420.2	
455.68	5043.5	
455.89	7354.9	
456.09	6927.6	
456.29	4716.5	
456.49	4775.2	
456.69	7204.8	
456.89	6374	
457.09	5322	
457.29	5616.2	
457.49	6648.4	
457.69	6786.3	
457.89	5046.9	
458.09	4412	
458.29	6350.1	
458.49	7183.6	
458.69	5442.1	
458.89	4814.1	
459.09	7387	
459.29	7470.3	
459.49	4967.7	
459.69	5844.2	
459.9	6888	
460.1	6307.1	
460.3	4867.3	
460.5	4615.4	
460.7	6841.6	
460.9	6570.6	
461.1	4221.5	
461.3	5549.3	
461.5	7517.4	
461.7	7099.6	
461.9	4655.7	
462.1	5208.7	
462.3	6477.7	
462.5	7117.4	
462.7	4661.2	
462.9	4760.8	
463.1	8144.1	
463.3	7757	
463.5	4973.8	
463.7	5931.6	
463.9	6603.3	
464.1	6996.5	
464.3	4953.4	
464.5	5297.4	
464.7	7221.8	
464.9	6815.6	
465.1	6726.2	
465.3	5689.3	
465.5	7653.9	
465.7	7545.4	
465.9	5783.5	
466.1	5743.9	
466.3	7242.3	
466.5	7177.4	
466.7	6561.7	
466.9	5395	
467.1	7029.3	
467.3	8103.1	
467.5	6469.5	
467.7	5280.3	
467.9	8271.1	
468.1	9274.6	
468.3	6157.6	
468.5	6556.9	
468.7	6930.3	
468.9	6971.3	
469.1	5484.5	
469.3	6212.9	
469.5	9086.2	
469.7	6457.9	
469.9	6021	
470.1	5212.1	
470.3	6937.8	
470.5	7022.5	
470.7	6565.1	
470.9	5317.2	
471.1	6696.9	
471.3	7230	
471.5	5126.7	
471.69	7223.9	
471.89	6579.4	
472.09	6115.9	
472.29	6005.3	
472.49	6442.9	
472.69	6357.6	
472.89	7264.1	
473.09	5020.3	
473.29	5329.5	
473.49	6462.7	
473.69	6734.4	
473.89	6287.3	
474.09	5466	
474.29	8008.2	
474.49	7782.3	
474.69	6175.3	
474.89	5601.9	
475.09	6793.1	
475.29	6677.7	
475.49	4898.1	
475.69	5195.7	
475.88	8462.9	
476.08	7025.2	
476.28	4833.2	
476.48	5468.1	
476.68	7615	
476.88	7484.6	
477.08	5194.3	
477.28	5548.6	
477.48	6906.4	
477.68	7657.4	
477.88	5040.1	
478.08	5453.7	
478.28	7881.9	
478.48	7031.4	
478.67	5417.6	
478.87	4904.2	
479.07	7675.8	
479.27	7166.5	
479.47	5707	
479.67	5687.2	
479.87	7507.9	
480.07	8070.4	
480.27	4813.4	
480.47	6752.8	
480.67	7222.5	
480.87	7802.1	
481.06	5246.9	
481.26	6078.4	
481.46	7046.4	
481.66	7010.9	
481.86	5631.9	
482.06	6825.9	
482.26	6762.4	
482.46	7747.5	
482.66	5618.9	
482.86	5188.2	
483.05	7091.4	
483.25	6549.4	
483.45	8217.8	
483.65	5642.8	
483.85	6705	
484.05	7062.8	
484.25	6027.2	
484.45	6427.2	
484.65	7937.9	
484.84	7874.4	
485.04	5474.2	
485.24	5509.7	
485.44	8183	
485.64	6431.3	
485.84	4678.9	
486.04	6239.5	
486.24	6747.4	
486.44	7219.8	
486.63	4670.7	
486.83	5532.2	
487.03	6599.2	
487.23	6828.6	
487.43	4789.5	
487.63	7318.8	
487.83	6901	
488.02	7963.2	
488.22	5788.2	
488.42	6402	
488.62	7828	
488.82	6608.1	
489.02	5398.4	
489.22	5362.9	
489.41	7687.4	
489.61	7248.4	
489.81	5049.6	
490.01	5179.3	
490.21	7574.1	
490.41	8202.1	
490.61	4852.3	
490.8	5146.5	
491	6874.3	
491.2	6240.8	
491.4	5896.1	
491.6	4880.3	
491.8	6954.2	
491.99	7296.2	
492.19	4770.4	
492.39	5261.9	
492.59	7610.9	
492.79	7675.8	
492.99	6096.1	
493.18	5043.5	
493.38	7656	
493.58	8383.7	
493.78	5848.3	
493.98	5328.1	
494.18	7358.4	
494.37	6761	
494.57	6019	
494.77	5870.8	
494.97	7448.5	
495.17	7755	
495.37	5380.7	
495.56	5734.3	
495.76	7929.1	
495.96	7436.9	
496.16	6563.1	
496.36	5431.9	
496.55	7587	
496.75	7101.7	
496.95	5835.3	
497.15	5679.7	
497.35	7615	
497.54	7567.2	
497.74	5495.4	
497.94	7414.3	
498.14	8299.7	
498.34	8149.6	
498.53	5077.6	
498.73	5965.1	
498.93	6821.1	
499.13	7476.5	
499.33	5657.9	
499.52	6242.2	
499.72	7389.8	
499.92	7806.2	
500.12	5343.8	
500.32	5594.4	
500.51	7701.7	
500.71	7460.8	
500.91	6505	
501.11	6096.1	
501.31	7557	
501.5	8126.3	
501.7	6770.6	
501.9	5603.2	
502.1	7359.7	
502.29	7721.5	
502.49	6087.2	
502.69	6646.3	
502.89	7621.2	
503.09	7623.9	
503.28	5240.1	
503.48	5340.4	
503.68	6877.1	
503.88	6874.3	
504.07	6445	
504.27	5832.6	
504.47	7241.6	
504.67	7442.3	
504.86	6315.3	
505.06	5907	
505.26	6939.2	
505.46	8943.5	
505.65	5821.7	
505.85	6068.8	
506.05	6961.7	
506.25	7488.7	
506.44	5190.9	
506.64	6311.2	
506.84	6933.1	
507.04	7976.2	
507.23	5498.8	
507.43	6128.2	
507.63	9043.8	
507.83	7092.8	
508.02	5993	
508.22	5650.3	
508.42	9335.3	
508.62	6906.4	
508.81	6240.8	
509.01	6527.6	
509.21	6830	
509.4	7092.1	
509.6	6132.3	
509.8	5489.9	
510	7075.7	
510.19	8615.1	
510.39	5486.5	
510.59	5560.2	
510.79	6815.6	
510.98	8334.6	
511.18	5571.2	
511.38	5679	
511.57	7681.2	
511.77	7628.7	
511.97	6438.1	
512.17	5285.8	
512.36	7740	
512.56	7752.9	
512.76	5447.6	
512.95	5173.9	
513.15	7832.1	
513.35	6428.6	
513.55	6345.3	
513.74	5454.4	
513.94	7842.4	
514.14	7187	
514.33	6451.8	
514.53	6208.1	
514.73	7017.7	
514.92	7268.9	
515.12	5610.1	
515.32	5426.4	
515.51	7351.5	
515.71	8010.3	
515.91	7274.4	
516.11	5477	
516.3	9131.9	
516.5	6931	
516.7	6085.9	
516.89	6774.7	
517.09	7071.6	
517.29	6894.8	
517.48	6329.6	
517.68	5732.9	
517.88	6765.1	
518.07	7394.5	
518.27	6257.9	
518.47	5212.1	
518.66	8148.9	
518.86	6571.2	
519.06	5092.6	
519.25	5594.4	
519.45	6951.5	
519.65	8488.8	
519.84	6275	
520.04	6938.5	
520.24	8877.3	
520.43	7598.6	
520.63	5974.6	
520.83	5639.4	
521.02	6752.8	
521.22	7573.4	
521.42	6288.6	
521.61	6837.5	
521.81	7075.7	
522.01	7326.3	
522.2	6088.6	
522.4	5825.1	
522.6	7713.3	
522.79	6502.3	
522.99	5911.1	
523.18	5124.7	
523.38	7385	
523.58	7408.9	
523.77	7207.5	
523.97	5068.7	
524.17	9382.4	
524.36	8454	
524.56	6408.1	
524.76	6054.5	
524.95	7292.8	
525.15	6959.7	
525.34	5822.4	
525.54	5812.1	
525.74	7600.7	
525.93	6587	
526.13	7005.4	
526.33	5704.3	
526.52	7991.9	
526.72	7355.6	
526.91	7025.9	
527.11	6287.3	
527.31	7993.9	
527.5	8396.7	
527.7	6094.8	
527.89	5089.9	
528.09	6790.4	
528.29	7389.1	
528.48	6631.3	
528.68	6159.6	
528.87	7787.1	
529.07	7856	
529.27	6051.1	
529.46	5513.1	
529.66	7397.3	
529.85	7804.8	
530.05	5311.1	
530.25	6154.1	
530.44	8809.7	
530.64	7369.3	
530.83	5791.7	
531.03	6124.1	
531.23	7808.2	
531.42	7735.9	
531.62	6858	
531.81	5907	
532.01	7900.4	
532.21	8401.5	
532.4	5656.5	
532.6	6029.2	
532.79	8819.9	
532.99	7793.9	
533.18	5994.4	
533.38	7124.9	
533.58	7320.1	
533.77	8155.7	
533.97	5865.4	
534.16	6817.7	
534.36	8404.9	
534.55	7357.7	
534.75	6941.2	
534.95	5976.7	
535.14	8123.6	
535.34	7309.9	
535.53	5630.5	
535.73	7780.2	
535.92	8802.9	
536.12	7495.6	
536.31	5807.4	
536.51	7106.5	
536.71	7892.2	
536.9	7458	
537.1	5937.7	
537.29	6118	
537.49	8374.1	
537.68	7283.3	
537.88	6449.1	
538.07	5655.1	
538.27	7504.4	
538.46	8667.7	
538.66	5464	
538.86	6036.7	
539.05	7574.8	
539.25	8008.2	
539.44	6270.2	
539.64	5797.1	
539.83	7464.2	
540.03	8506.6	
540.22	5769.1	
540.42	5948.7	
540.61	7654.6	
540.81	7820.5	
541	6417	
541.2	7098.9	
541.39	7211.6	
541.59	7724.9	
541.78	6677.1	
541.98	5790.3	
542.18	6942.6	
542.37	6892.8	
542.57	6201.2	
542.76	6774	
542.96	6970.6	
543.15	7826	
543.35	6321.4	
543.54	5647.6	
543.74	8189.1	
543.93	7619.1	
544.13	6339.1	
544.32	7483.3	
544.52	8066.9	
544.71	7178.1	
544.91	5270.1	
545.1	6844.3	
545.3	7163.8	
545.49	8021.9	
545.69	5287.2	
545.88	5938.4	
546.08	8906.6	
546.27	8588.5	
546.47	6537.8	
546.66	5771.9	
546.86	8211.7	
547.05	8930.5	
547.24	6057.9	
547.44	5857.9	
547.63	7055.9	
547.83	8370	
548.02	6223.8	
548.22	6507.1	
548.41	6937.8	
548.61	8327	
548.8	5793.7	
549	5722.7	
549.19	7583.6	
549.39	8030.1	
549.58	5516.5	
549.78	6124.1	
549.97	8016.4	
550.17	7563.8	
550.36	7022.5	
550.55	8130.4	
550.75	7510.6	
550.94	8498.4	
551.14	5787.6	
551.33	6207.4	
551.53	6810.2	
551.72	7902.4	
551.92	6225.8	
552.11	5875.6	
552.31	7954.3	
552.5	7849.2	
552.69	7774.8	
552.89	5633.3	
553.08	7879.9	
553.28	7637.6	
553.47	5985.5	
553.67	7170.6	
553.86	8678.6	
554.06	6798.6	
554.25	5156.8	
554.44	5749.3	
554.64	9536	
554.83	8893	
555.03	5737	
555.22	6189	
555.42	8051.2	
555.61	7810.3	
555.8	5981.4	
556	6321.4	
556.19	6932.4	
556.39	8284	
556.58	6055.2	
556.78	6035.4	
556.97	7742.7	
557.16	7479.2	
557.36	7338.6	
557.55	5633.3	
557.75	6711.9	
557.94	8553.7	
558.13	5786.9	
558.33	5434.6	
558.52	8366	
558.72	7153.6	
558.91	5602.6	
559.1	5920	
559.3	6866.2	
559.49	6571.9	
559.69	5064.6	
559.88	6315.9	
560.07	7763.2	
560.27	8139.3	
560.46	6501.6	
560.66	6647.7	
560.85	7503.8	
561.04	6662	
561.24	5622.4	
561.43	5872.2	
561.63	6932.4	
561.82	7220.5	
562.01	7261.4	
562.21	6206	
562.4	7729.7	
562.59	8766.7	
562.79	6075.6	
562.98	5625.1	
563.18	7615.7	
563.37	9181.7	
563.56	6525.5	
563.76	5504.3	
563.95	7006.8	
564.14	6929.6	
564.34	5900.9	
564.53	5793	
564.73	7559.7	
564.92	7972.1	
565.11	6103.6	
565.31	5475.6	
565.5	8198.7	
565.69	7082.6	
565.89	5720	
566.08	5986.2	
566.27	8023.9	
566.47	8506.6	
566.66	6664.8	
566.85	5148.6	
567.05	7572	
567.24	6918.7	
567.44	5537	
567.63	7056.6	
567.82	7836.9	
568.02	7597.3	
568.21	5542.5	
568.4	6030.6	
568.6	7435.5	
568.79	7428.7	
568.98	5401.9	
569.18	5583.4	
569.37	7344.7	
569.56	9539.4	
569.76	5877	
569.95	6959.7	
570.14	7796.6	
570.34	7703.1	
570.53	5427.8	
570.72	5468.1	
570.91	8241.7	
571.11	7333.1	
571.3	5946.6	
571.49	6918	
571.69	7363.1	
571.88	6877.8	
572.07	6506.4	
572.27	6459.3	
572.46	7006.8	
572.65	8069.7	
572.85	5683.8	
573.04	6047.7	
573.23	8211.7	
573.43	7481.9	
573.62	5369.1	
573.81	6109.1	
574	7430	
574.2	7307.8	
574.39	5778.7	
574.58	6045.6	
574.78	8258.8	
574.97	7537.2	
575.16	6292	
575.36	6453.1	
575.55	7881.9	
575.74	8097	
575.93	5321.3	
576.13	6445.6	
576.32	7324.9	
576.51	7872.4	
576.71	5821.7	
576.9	7144	
577.09	8218.5	
577.28	7782.3	
577.48	6201.9	
577.67	5212.8	
577.86	7329.7	
578.05	7649.2	
578.25	5898.8	
578.44	6001.2	
578.63	7474.4	
578.83	8692.9	
579.02	5292.6	
579.21	6940.6	
579.4	7641	
579.6	7185	
579.79	6071.5	
579.98	8436.9	
580.17	7992.5	
580.37	8050.6	
580.56	5534.3	
580.75	6385.6	
580.94	8540.7	
581.14	8375.5	
581.33	6786.3	
581.52	5619.6	
581.71	7846.5	
581.91	8557.8	
582.1	5206.6	
582.29	5959.6	
582.48	7423.2	
582.68	7318.8	
582.87	6494.1	
583.06	6034.7	
583.25	7727	
583.45	7032.7	
583.64	6666.8	
583.83	7492.8	
584.02	7176.8	
584.21	7710.6	
584.41	6737.8	
584.6	5948.7	
584.79	7409.6	
584.98	8243.1	
585.18	5386.2	
585.37	5384.8	
585.56	6918	
585.75	7797.3	
585.94	5638.7	
586.14	6375.3	
586.33	8404.9	
586.52	7376.1	
586.71	6169.8	
586.91	5901.6	
587.1	6858	
587.29	7889.5	
587.48	5954.8	
587.67	5795.8	
587.87	7779.6	
588.06	7968	
588.25	7271	
588.44	6470.2	
588.63	7481.9	
588.83	8022.6	
589.02	5891.3	
589.21	5803.3	
589.4	7339.2	
589.59	7137.2	
589.78	5091.3	
589.98	5394.3	
590.17	6902.3	
590.36	7566.6	
590.55	4840	
590.74	5789.6	
590.94	9058.2	
591.13	7457.3	
591.32	5504.3	
591.51	5100.1	
591.7	7981.6	
591.89	7370.6	
592.09	5159.5	
592.28	5730.2	
592.47	6636.1	
592.66	8513.4	
592.85	5133.6	
593.05	5358.2	
593.24	7225.2	
593.43	7979.6	
593.62	5405.3	
593.81	6010.1	
594	7245.7	
594.19	7511.9	
594.39	5353.4	
594.58	5281	
594.77	7530.4	
594.96	8232.8	
595.15	5244.2	
595.34	6012.8	
595.54	7614.3	
595.73	6645.7	
595.92	4600.4	
596.11	5923.4	
596.3	8200.1	
596.49	6760.3	
596.68	5707	
596.88	6139.1	
597.07	7926.3	
597.26	6620.4	
597.45	5126.7	
597.64	6411.5	
597.83	6835.4	
598.02	7500.3	
598.22	5208.7	
598.41	5902.9	
598.6	7247.1	
598.79	6726.9	
598.98	5283.1	
599.17	6249.7	
599.36	7337.9	
599.55	8647.2	
599.74	7522.2	
599.94	7155.6	
600.13	7840.3	
600.32	6667.5	
600.51	5048.2	
600.7	5186.1	
600.89	8626	
601.08	8629.5	
601.27	4924	
601.47	5988.9	
601.66	7826	
601.85	8559.1	
602.04	5556.1	
602.23	5783.5	
602.42	6744	
602.61	7587.7	
602.8	5529.5	
602.99	5310.4	
603.18	7195.2	
603.37	7529	
603.57	5992.4	
603.76	6549.4	
603.95	8293.6	
604.14	7764.5	
604.33	5370.5	
604.52	5741.8	
604.71	7393.2	
604.9	7041.6	
605.09	6363	
605.28	6178	
605.47	7991.9	
605.66	7732.4	
605.86	5943.9	
606.05	5399.8	
606.24	7950.9	
606.43	6427.2	
606.62	5790.3	
606.81	6549.4	
607	7915.4	
607.19	7169.3	
607.38	5084.4	
607.57	5427.8	
607.76	6879.8	
607.95	6359.6	
608.14	5819.6	
608.33	6493.4	
608.52	6901	
608.72	7855.3	
608.91	5133.6	
609.1	4934.2	
609.29	7017	
609.48	6572.6	
609.67	6029.2	
609.86	5140.4	
610.05	6676.4	
610.24	7032	
610.43	4870.8	
610.62	4543.1	
610.81	8221.9	
611	8006.9	
611.19	5087.8	
611.38	5892	
611.57	7367.2	
611.76	8719.6	
611.95	4824.3	
612.14	4737.6	
612.33	7133.8	
612.52	6614.9	
612.71	5432.6	
612.9	4582.7	
613.09	6144.6	
613.28	8652.7	
613.47	5141.8	
613.66	6158.2	
613.85	7214.3	
614.04	6726.9	
614.24	5213.4	
614.43	4429.1	
614.62	7419.1	
614.81	7292.1	
615	5924.1	
615.19	5859.2	
615.38	6583.5	
615.57	6929.6	
615.76	5644.2	
615.95	6634.7	
616.14	7316.7	
616.33	6945.3	
616.52	6036.7	
616.71	6279.8	
616.9	7399.3	
617.09	7124.2	
617.28	5368.4	
617.47	6884.6	
617.66	6426.5	
617.85	6379.4	
618.04	6245.6	
618.22	5630.5	
618.41	6664.8	
618.6	7690.1	
618.79	5556.8	
618.98	5280.3	
619.17	8005.5	
619.36	6203.3	
619.55	5392.3	
619.74	5426.4	
619.93	7178.8	
620.12	6588.3	
620.31	5997.1	
620.5	6115.2	
620.69	8179.6	
620.88	8183	
621.07	6776	
621.26	5743.9	
621.45	7317.4	
621.64	7301.7	
621.83	5927.5	
622.02	4981.3	
622.21	7393.8	
622.4	7040.2	
622.59	6477.7	
622.78	6300.2	
622.97	6633.4	
623.16	7709.9	
623.35	5786.9	
623.54	4930.8	
623.72	6929.6	
623.91	7004.7	
624.1	6133	
624.29	4697.4	
624.48	8138.6	
624.67	7368.6	
624.86	5975.3	
625.05	4969.1	
625.24	8262.9	
625.43	6552.1	
625.62	7778.9	
625.81	5208.7	
626	7723.6	
626.19	6862.7	
626.38	6011.5	
626.56	5451.7	
626.75	6738.5	
626.94	7235.5	
627.13	6081.8	
627.32	4641.4	
627.51	7359	
627.7	8832.2	
627.89	4791.6	
628.08	6091.3	
628.27	6577.4	
628.46	6864.1	
628.65	5206.6	
628.83	4861.9	
629.02	7409.6	
629.21	6664.1	
629.4	5596.4	
629.59	5797.8	
629.78	6602.7	
629.97	7656	
630.16	5897.5	
630.35	5314.5	
630.54	8109.3	
630.72	7768.6	
630.91	5255.8	
631.1	5885.2	
631.29	7172.7	
631.48	7445.7	
631.67	5959.6	
631.86	5408.7	
632.05	6823.1	
632.24	6879.8	
632.42	5063.3	
632.61	5684.5	
632.8	6954.9	
632.99	6461.3	
633.18	5709.1	
633.37	6172.6	
633.56	7185	
633.75	6971.3	
633.93	5660.6	
634.12	5369.1	
634.31	7994.6	
634.5	7648.5	
634.69	5436	
634.88	5921.4	
635.07	6909.2	
635.25	7567.2	
635.44	6346	
635.63	6582.9	
635.82	6806.8	
636.01	6271.6	
636.2	6344.6	
636.39	5773.2	
636.57	8075.8	
636.76	7775.5	
636.95	5206.6	
637.14	6664.1	
637.33	7264.1	
637.52	8300.4	
637.7	5020.3	
637.89	6023.1	
638.08	6819.1	
638.27	8446.5	
638.46	6062	
638.65	6635.4	
638.83	8411.7	
639.02	6662.7	
639.21	5931.6	
639.4	6498.2	
639.59	7293.5	
639.78	6867.5	
639.96	5271.5	
640.15	5268.1	
640.34	7111.2	
640.53	7263.5	
640.72	4955.4	
640.91	5362.3	
641.09	6470.2	
641.28	7909.9	
641.47	5335.6	
641.66	6262.7	
641.85	7269.6	
642.03	7598	
642.22	6018.3	
642.41	5461.2	
642.6	6632.7	
642.79	5946.6	
642.97	5236.7	
643.16	6037.4	
643.35	6603.3	
643.54	6481.1	
643.73	5169.8	
643.91	6066.1	
644.1	6290	
644.29	6972.7	
644.48	5344.5	
644.67	5345.9	
644.85	6587	
645.04	6883.2	
645.23	4873.5	
645.42	5169.8	
645.6	6485.2	
645.79	7705.8	
645.98	5307	
646.17	4298	
646.36	6266.8	
646.54	6935.1	
646.73	6195.8	
646.92	4830.5	
647.11	6557.6	
647.29	7669	
647.48	4953.4	
647.67	4815.5	
647.86	7972.7	
648.05	7947.5	
648.23	5354.1	
648.42	6806.1	
648.61	7171.3	
648.8	6956.3	
648.98	5070.1	
649.17	5303.6	
649.36	6499.6	
649.55	5941.8	
649.73	5048.9	
649.92	5820.3	
650.11	6399.9	
650.3	6735.8	
650.48	5119.9	
650.67	4883.7	
650.86	7176.8	
651.05	5892	
651.23	5183.4	
651.42	5063.9	
651.61	6449.7	
651.79	6638.1	
651.98	5366.4	
652.17	4965	
652.36	7032.7	
652.54	6079.7	
652.73	4996.4	
652.92	4760.2	
653.11	7105.8	
653.29	7111.9	
653.48	4251.6	
653.67	5332.9	
653.85	6810.2	
654.04	7851.9	
654.23	5565	
654.42	5089.2	
654.6	6320	
654.79	7050.5	
654.98	4535.6	
655.16	5217.5	
655.35	5991.7	
655.54	5973.2	
655.73	4732.9	
655.91	4697.4	
656.1	7249.8	
656.29	5902.9	
656.47	4216.8	
656.66	5965.1	
656.85	6176	
657.03	6158.9	
657.22	4706.2	
657.41	4825.7	
657.59	6272.9	
657.78	6068.1	
657.97	4365.6	
658.16	5159.5	
658.34	6926.2	
658.53	7324.2	
658.72	6057.9	
658.9	6694.8	
659.09	6350.1	
659.28	6475	
659.46	4836.6	
659.65	4697.4	
659.84	6124.8	
660.02	6645.7	
660.21	4635.2	
660.4	4644.8	
660.58	7171.3	
660.77	6434	
660.96	5258.5	
661.14	4242	
661.33	7656.7	
661.52	7587	
661.7	4224.3	
661.89	8182.3	
662.08	6006.7	
662.26	5611.4	
662.45	4502.1	
662.64	4682.3	
662.82	6781.5	
663.01	5962.3	
663.2	4707.6	
663.38	5582.1	
663.57	6728.9	
663.75	6545.3	
663.94	5067.4	
664.13	6334.4	
664.31	5993.7	
664.5	6840.2	
664.69	5276.3	
664.87	5903.6	
665.06	5792.3	
665.25	6636.8	
665.43	6138.4	
665.62	6252.4	
665.8	6993.1	
665.99	6195.1	
666.18	5080.3	
666.36	5182	
666.55	6866.2	
666.74	6795.2	
666.92	4616.1	
667.11	6447.7	
667.29	6210.1	
667.48	6854.6	
667.67	6021	
667.85	5031.2	
668.04	6217.6	
668.22	6273.6	
668.41	5097.4	
668.6	5262.6	
668.78	6064	
668.97	6305.7	
669.15	5512.4	
669.34	4342.4	
669.53	6042.2	
669.71	6375.3	
669.9	4581.3	
670.08	5330.9	
670.27	5955.5	
670.46	6662	
670.64	5450.3	
670.83	5781.4	
671.01	5914.5	
671.2	6630.6	
671.38	4645.5	
671.57	4596.3	
671.76	7271.7	
671.94	7877.9	
672.13	4459.8	
672.31	5684.5	
672.5	6750.8	
672.69	6070.9	
672.87	4669.4	
673.06	4978.6	
673.24	6558.3	
673.43	6082.5	
673.61	5483.8	
673.8	5011.4	
673.98	6759	
674.17	6989	
674.36	5569.1	
674.54	5504.3	
674.73	6646.3	
674.91	6748.7	
675.1	5168.4	
675.28	4775.9	
675.47	6321.4	
675.65	6909.2	
675.84	4977.9	
676.03	5318.6	
676.21	6075.6	
676.4	5592.3	
676.58	5963	
676.77	5599.1	
676.95	7572	
677.14	6029.9	
677.32	4677.6	
677.51	4438.6	
677.69	6829.3	
677.88	5685.2	
678.06	4502.1	
678.25	4597.7	
678.44	6273.6	
678.62	6014.2	
678.81	4286.4	
678.99	5289.9	
679.18	7148.8	
679.36	6813.6	
679.55	4948.6	
679.73	5646.9	
679.92	6664.8	
680.1	6007.4	
680.29	6266.8	
680.47	4938.3	
680.66	5991.7	
680.84	6936.5	
681.03	4248.9	
681.21	5306.3	
681.4	6063.4	
681.58	5905.7	
681.77	4665.3	
681.95	4661.9	
682.14	6987.7	
682.32	7354.3	
682.51	5629.2	
682.69	4418.8	
682.88	5956.9	
683.06	6686.6	
683.25	5341.8	
683.43	5866.7	
683.62	6247.7	
683.8	6727.6	
683.99	5963	
684.17	5274.2	
684.36	7668.3	
684.54	6264.7	
684.73	4372.4	
684.91	4610.7	
685.1	6709.1	
685.28	6059.3	
685.46	5347.2	
685.65	5444.9	
685.83	6931	
686.02	6327.5	
686.2	4820.9	
686.39	4914.4	
686.57	6121.4	
686.76	7640.3	
686.94	4749.2	
687.13	4957.4	
687.31	6808.1	
687.5	6229.9	
687.68	4317.8	
687.86	5726.8	
688.05	7919.5	
688.23	5758.2	
688.42	5694.7	
688.6	4834.6	
688.79	6039.5	
688.97	6153.5	
689.16	5215.5	
689.34	4104.8	
689.52	7047.1	
689.71	7148.8	
689.89	5481	
690.08	4792.9	
690.26	6414.9	
690.45	6254.5	
690.63	5762.3	
690.81	4906.9	
691	6089.3	
691.18	6098.9	
691.37	5119.2	
691.55	7496.9	
691.74	6098.9	
691.92	8213.7	
692.1	5177.9	
692.29	4516.5	
692.47	6367.8	
692.66	5600.5	
692.84	4742.4	
693.02	5388.2	
693.21	5683.8	
693.39	6206.7	
693.58	5515.2	
693.76	4808.6	
693.94	7524.2	
694.13	7234.8	
694.31	4710.3	
694.5	5906.3	
694.68	6001.2	
694.86	6321.4	
695.05	5122	
695.23	5552.7	
695.42	6740.5	
695.6	9180.4	
695.78	5752.1	
695.97	4860.5	
696.15	6758.3	
696.34	6158.9	
696.52	4541.7	
696.7	5496.7	
696.89	6480.5	
697.07	5930.9	
697.25	5470.8	
697.44	7152.2	
697.62	6513.2	
697.81	6911.9	
697.99	5153.4	
698.17	5647.6	
698.36	5878.4	
698.54	6672.3	
698.72	5504.9	
698.91	4396.3	
699.09	6126.8	
699.28	6041.5	
699.46	5137.7	
699.64	5014.8	
699.83	5879	
700.01	7307.8	
700.19	5760.9	
700.38	4092.5	
700.56	7229.3	
700.74	6032	
700.93	4596.3	
701.11	5445.5	
701.29	6574.7	
701.48	7751.6	
701.66	4772.4	
701.84	4836.6	
702.03	6110.5	
702.21	6834.1	
702.39	4360.1	
702.58	4997	
702.76	6476.4	
702.94	6676.4	
703.13	4405.9	
703.31	6950.8	
703.49	5759.6	
703.68	6724.2	
703.86	4603.2	
704.04	5593.7	
704.23	6430.6	
704.41	6818.4	
704.59	4726.7	
704.78	6051.7	
704.96	7566.6	
705.14	6900.3	
705.33	4508.3	
705.51	5420.3	
705.69	6244.9	
705.87	7042.3	
706.06	5735	
706.24	4446.8	
706.42	6475.7	
706.61	6849.1	
706.79	5758.9	
706.97	4502.1	
707.16	5982.8	
707.34	6655.2	
707.52	5750	
707.7	4754	
707.89	6100.2	
708.07	5803.3	
708.25	5706.3	
708.44	5745.9	
708.62	6061.3	
708.8	7275.1	
708.98	5980.1	
709.17	4835.3	
709.35	6505	
709.53	6566.5	
709.72	4487.8	
709.9	4752	
710.08	6728.3	
710.26	6817	
710.45	6289.3	
710.63	4918.5	
710.81	6440.9	
710.99	6540.5	
711.18	5642.8	
711.36	5076.9	
711.54	6285.2	
711.72	7055.9	
711.91	5129.5	
712.09	4526	
712.27	6488	
712.45	7192.5	
712.64	5526.1	
712.82	4419.5	
713	5928.2	
713.18	6128.2	
713.37	4646.8	
713.55	5944.6	
713.73	7157	
713.91	5631.9	
714.1	5094.7	
714.28	4603.8	
714.46	6866.2	
714.64	6048.3	
714.83	4073.4	
715.01	5038.7	
715.19	6173.3	
715.37	5582.1	
715.55	4666.6	
715.74	5158.2	
715.92	7219.8	
716.1	5141.1	
716.28	6235.4	
716.47	5291.3	
716.65	5879.7	
716.83	5954.8	
717.01	5055.1	
717.19	5113.1	
717.38	8240.3	
717.56	5650.3	
717.74	5388.9	
717.92	4385.4	
718.1	6976.7	
718.29	6059.3	
718.47	3945.1	
718.65	4659.1	
718.83	6735.8	
719.01	6523.5	
719.2	3713	
719.38	4943.1	
719.56	6281.1	
719.74	7959.1	
719.92	4474.8	
720.11	5692	
720.29	6352.8	
720.47	5439.4	
720.65	4030.4	
720.83	5022.3	
721.02	5885.2	
721.2	5667.4	
721.38	5141.1	
721.56	4328	
721.74	5122	
721.92	5390.9	
722.11	5704.3	
722.29	5338.4	
722.47	6726.2	
722.65	5800.5	
722.83	4308.9	
723.01	5457.8	
723.2	5961.6	
723.38	6193.7	
723.56	3732.8	
723.74	4960.9	
723.92	5384.1	
724.1	6612.2	
724.29	4304.8	
724.47	5560.2	
724.65	5477.6	
724.83	5421	
725.01	4132.8	
725.19	5156.8	
725.37	5390.9	
725.56	5550	
725.74	3947.8	
725.92	4334.2	
726.1	5341.8	
726.28	5772.5	
726.46	4865.3	
726.64	4464.6	
726.83	5677	
727.01	5986.9	
727.19	3989.4	
727.37	4930.1	
727.55	5794.4	
727.73	6398.5	
727.91	3993.5	
728.09	3806.5	
728.28	6336.4	
728.46	7123.5	
728.64	5063.3	
728.82	4967	
729	7528.3	
729.18	6694.8	
729.36	4113	
729.54	6601.3	
729.72	7746.1	
729.91	5854.5	
730.09	6094.8	
730.27	4805.2	
730.45	5750	
730.63	6447	
730.81	5433.3	
730.99	4386.1	
731.17	7011.6	
731.35	5452.4	
731.53	4982	
731.71	4485.7	
731.9	6716.7	
732.08	6873.7	
732.26	4830.5	
732.44	4465.3	
732.62	6952.2	
732.8	6354.2	
732.98	5283.8	
733.16	4182	
733.34	6432.7	
733.52	5158.2	
733.7	4769	
733.88	5143.8	
734.07	6295.5	
734.25	6006.7	
734.43	4184.7	
734.61	5884.5	
734.79	7643.7	
734.97	5855.1	
735.15	4369	
735.33	4724	
735.51	6241.5	
735.69	5810.8	
735.87	6022.4	
736.05	4982.7	
736.23	6049.7	
736.41	5848.3	
736.59	4747.9	
736.77	4909.7	
736.95	6546.7	
737.13	5857.2	
737.32	4401.1	
737.5	4605.2	
737.68	7133.8	
737.86	5844.2	
738.04	4130.8	
738.22	6261.3	
738.4	5597.8	
738.58	5954.1	
738.76	4959.5	
738.94	3720.5	
739.12	5746.6	
739.3	5599.1	
739.48	5618.9	
739.66	5263.3	
739.84	6115.9	
740.02	6028.5	
740.2	3830.4	
740.38	4297.3	
740.56	6455.2	
740.74	5241.4	
740.92	4909.7	
741.1	4858.5	
741.28	5887.2	
741.46	5709.1	
741.64	4477.5	
741.82	5016.2	
742	5930.2	
742.18	5922.7	
742.36	4727.4	
742.54	4233.2	
742.72	6567.8	
742.9	5178.6	
743.08	5193.6	
743.26	3846.1	
743.44	6754.9	
743.62	6576.7	
743.8	5306.3	
743.98	4331.5	
744.16	6304.3	
744.34	5931.6	
744.52	5273.5	
744.7	5197.1	
744.88	6446.3	
745.06	5911.1	
745.24	5313.1	
745.42	5434.6	
745.6	6511.9	
745.78	6289.3	
745.96	4048.8	
746.14	4425	
746.32	7399.3	
746.5	6573.3	
746.68	5117.9	
746.86	4435.2	
747.03	6997.9	
747.21	5214.1	
747.39	5077.6	
747.57	4472.1	
747.75	6181.5	
747.93	6574	
748.11	4449.6	
748.29	4328.7	
748.47	7832.8	
748.65	5824.4	
748.83	5293.3	
749.01	4877.6	
749.19	6349.4	
749.37	5478.3	
749.55	4792.2	
749.73	4939	
749.91	6018.3	
750.09	5759.6	
750.26	4960.2	
750.44	4343.7	
750.62	6113.9	
750.8	6002.6	
750.98	4192.2	
751.16	4538.3	
751.34	6062.7	
751.52	5395	
751.7	5318.6	
751.88	4093.9	
752.06	6657.9	
752.24	6412.2	
752.42	4040	
752.59	4489.8	
752.77	6014.2	
752.95	7478.5	
753.13	5244.2	
753.31	4640.7	
753.49	5588.9	
753.67	6223.1	
753.85	4982.7	
754.03	4526.7	
754.21	6480.5	
754.38	6911.2	
754.56	4745.1	
754.74	3674.7	
754.92	5745.2	
755.1	6649.8	
755.28	3835.2	
755.46	3919.1	
755.64	7458	
755.82	7554.3	
755.99	4302.8	
756.17	4420.2	
756.35	4969.7	
756.53	6683.2	
756.71	3252.2	
756.89	4292.5	
757.07	6242.2	
757.25	5145.9	
757.42	4865.3	
757.6	5823.7	
757.78	6214.9	
757.96	5157.5	
758.14	4472.8	
758.32	3917.1	
758.5	4741.7	
758.67	5646.2	
758.85	4267.3	
759.03	4425	
759.21	5831.9	
759.39	5201.8	
759.57	3852.9	
759.75	5122	
759.92	6461.3	
760.1	5627.8	
760.28	5419.6	
760.46	5740.5	
760.64	5377.3	
760.82	5167	
760.99	5251	
761.17	4382.7	
761.35	6309.1	
761.53	5155.4	
761.71	4464.6	
761.89	5178.6	
762.06	6137.1	
762.24	5513.1	
762.42	4493.9	
762.6	4317.1	
762.78	5616.9	
762.96	6355.5	
763.13	4954.7	
763.31	4596.3	
763.49	6482.5	
763.67	5511.8	
763.85	5489.9	
764.02	6102.3	
764.2	6662.7	
764.38	5793.7	
764.56	4413.4	
764.74	5450.3	
764.91	6935.8	
765.09	5708.4	
765.27	4110.3	
765.45	3932.8	
765.63	6928.3	
765.8	6791.7	
765.98	3632.4	
766.16	3999	
766.34	5171.8	
766.52	4990.2	
766.69	5031.9	
766.87	3808.5	
767.05	5660.6	
767.23	6467.5	
767.41	4203.1	
767.58	4479.6	
767.76	6302.3	
767.94	6451.1	
768.12	4253.6	
768.29	5166.3	
768.47	5831.9	
768.65	6585.6	
768.83	3900	
769	5160.9	
769.18	5332.2	
769.36	6094.8	
769.54	5210	
769.72	4009.9	
769.89	6385.6	
770.07	6566.5	
770.25	4312.3	
770.43	5685.8	
770.6	7255.3	
770.78	7779.6	
770.96	4488.5	
771.14	5276.9	
771.31	6300.2	
771.49	5662.6	
771.67	3607.8	
771.85	3871.3	
772.02	4840.7	
772.2	5698.1	
772.38	4723.3	
772.55	4142.4	
772.73	5911.8	
772.91	5641.5	
773.09	4601.8	
773.26	4683.7	
773.44	5849.7	
773.62	5567.7	
773.8	4057	
773.97	3788.7	
774.15	6015.6	
774.33	5519.3	
774.5	4024.9	
774.68	4385.4	
774.86	5937.1	
775.04	5684.5	
775.21	4089.1	
775.39	3957.4	
775.57	5956.9	
775.74	6364.4	
775.92	3921.2	
776.1	3808.5	
776.27	5903.6	
776.45	7285.3	
776.63	4100	
776.81	3588	
776.98	5503.6	
777.16	6670.2	
777.34	4217.5	
777.51	4628.4	
777.69	5494.7	
777.87	5272.2	
778.04	4280.3	
778.22	5038.7	
778.4	5289.2	
778.57	5979.4	
778.75	3446.7	
778.93	3807.2	
779.1	5079	
779.28	4937	
779.46	3579.8	
779.64	4129.4	
779.81	6157.6	
779.99	7210.2	
780.17	4970.4	
780.34	5079	
780.52	5558.9	
780.69	5813.5	
780.87	4452.3	
781.05	4035.9	
781.22	5717.2	
781.4	5797.8	
781.58	4131.4	
781.75	3225.6	
781.93	5726.1	
782.11	5103.5	
782.28	5122.7	
782.46	4175.1	
782.64	4942.4	
782.81	5920	
782.99	4252.3	
783.17	4205.2	
783.34	5834.7	
783.52	4973.8	
783.69	4439.3	
783.87	5318.6	
784.05	5041.4	
784.22	5152	
784.4	5335	
784.58	4586.8	
784.75	6061.3	
784.93	5124.7	
785.1	4167.6	
785.28	4899.4	
785.46	5913.2	
785.63	5188.2	
785.81	4108.9	
785.99	3983.3	
786.16	5324	
786.34	5747.3	
786.51	3969	
786.69	4488.5	
786.87	4821.6	
787.04	5418.2	
787.22	3889.1	
787.39	4962.9	
787.57	5079	
787.75	6285.9	
787.92	5123.3	
788.1	5016.2	
788.27	5155.4	
788.45	4848.9	
788.63	4715.1	
788.8	3364.1	
788.98	5516.5	
789.15	4803.9	
789.33	3497.9	
789.5	4204.5	
789.68	6201.2	
789.86	6310.5	
790.03	4663.9	
790.21	4040.6	
790.38	6160.3	
790.56	5273.5	
790.73	3887.7	
790.91	3984	
791.09	5128.1	
791.26	6044.9	
791.44	4172.4	
791.61	3609.2	
791.79	5115.8	
791.96	5230.5	
792.14	3693.2	
792.32	3287.7	
792.49	5134.3	
792.67	5292	
792.84	3758	
793.02	3608.5	
793.19	5681.1	
793.37	6434.7	
793.54	3259	
793.72	3715.7	
793.89	6548.7	
794.07	5193.6	
794.25	4364.9	
794.42	3366.2	
794.6	6372.6	
794.77	5924.8	
794.95	4640	
795.12	4000.4	
795.3	5117.9	
795.47	5835.3	
795.65	4425.7	
795.82	4247.5	
796	4906.3	
796.17	7057.3	
796.35	4120.5	
796.52	4874.8	
796.7	5675.6	
796.87	5857.2	
797.05	5102.9	
797.22	5053.7	
797.4	5834	
797.57	6943.3	
797.75	4207.2	
797.92	3976.5	
798.1	6135	
798.27	5193	
798.45	3351.2	
798.62	3609.2	
798.8	5451.7	
798.97	6038.8	
799.15	4584.7	
799.32	4286.4	
799.5	4661.9	
799.67	5571.8	
799.85	4646.2	
800.02	3314.3	
800.2	5096	
800.37	5501.5	
800.55	4836.6	
800.72	4035.2	
800.9	5976.7	
801.07	6469.5	
801.25	5469.4	
801.42	4410	
801.6	6042.2	
801.77	5732.3	
801.95	4070.7	
802.12	3896.6	
802.29	5651	
802.47	5705	
802.64	4347.8	
802.82	3236.5	
802.99	5063.3	
803.17	6188.3	
803.34	4280.9	
803.52	3802.4	
803.69	6901	
803.87	4917.9	
804.04	4310.3	
804.21	4378.6	
804.39	6338.5	
804.56	5392.3	
804.74	3545	
804.91	4483.7	
805.09	5087.8	
805.26	5294.7	
805.44	3691.1	
805.61	4042.7	
805.78	5892.7	
805.96	5923.4	
806.13	4459.1	
806.31	4745.8	
806.48	4671.4	
806.66	5317.2	
806.83	4407.9	
807	4304.8	
807.18	5111.7	
807.35	5561.6	
807.53	4306.9	
807.7	3392.8	
807.87	6472.9	
808.05	5263.3	
808.22	4760.2	
808.4	3396.9	
808.57	5251	
808.74	4801.8	
808.92	3947.8	
809.09	5072.8	
809.27	5065.3	
809.44	5772.5	
809.61	3456.3	
809.79	3847.5	
809.96	6371.9	
810.14	6027.2	
810.31	3363.4	
810.48	4104.8	
810.66	5350	
810.83	6119.3	
811.01	3911.6	
811.18	4351.9	
811.35	6045.6	
811.53	4580.6	
811.7	4756.7	
811.87	4417.5	
812.05	5186.8	
812.22	5110.4	
812.39	3831.1	
812.57	3624.2	
812.74	5238	
812.92	7030.7	
813.09	4095.3	
813.26	4562.9	
813.44	6795.2	
813.61	5131.5	
813.78	3437.2	
813.96	4641.4	
814.13	5236	
814.3	4864.6	
814.48	4973.8	
814.65	4178.5	
814.82	6538.5	
815	4988.9	
815.17	4256.4	
815.34	5294.7	
815.52	5107	
815.69	5132.9	
815.87	4225	
816.04	4145.1	
816.21	5210.7	
816.38	4534.2	
816.56	4066.6	
816.73	3795.6	
816.9	6628.6	
817.08	6043.6	
817.25	3793.5	
817.42	4900.8	
817.6	4692.6	
817.77	5267.4	
817.94	4305.5	
818.12	3759.4	
818.29	4929.5	
818.46	7948.8	
818.64	3962.8	
818.81	3685.7	
818.98	4783.4	
819.16	7216.4	
819.33	4582.7	
819.5	4242.7	
819.67	5635.3	
819.85	6320	
820.02	4190.1	
820.19	4446.8	
820.37	5459.2	
820.54	4999.1	
820.71	4302.1	
820.88	5432.6	
821.06	5467.4	
821.23	4969.7	
821.4	4322.6	
821.58	4323.3	
821.75	5950.7	
821.92	5335.6	
822.09	3405.8	
822.27	3612.6	
822.44	5242.8	
822.61	5103.5	
822.79	3538.2	
822.96	6791.1	
823.13	5776.6	
823.3	4909.7	
823.48	4038.6	
823.65	3642.7	
823.82	5986.9	
823.99	4698.7	
824.17	5187.5	
824.34	3691.8	
824.51	7011.6	
824.68	5263.3	
824.86	3857.7	
825.03	4278.9	
825.2	5207.3	
825.37	6356.2	
825.55	3791.5	
825.72	4237.2	
825.89	7040.2	
826.06	6496.2	
826.24	4134.8	
826.41	4166.9	
826.58	6402	
826.75	5569.1	
826.92	3209.2	
827.1	3638.6	
827.27	8844.5	
827.44	7105.1	
827.61	3947.8	
827.79	4922	
827.96	4899.4	
828.13	5341.1	
828.3	4081.6	
828.47	3471.3	
828.65	5431.9	
828.82	5385.5	
828.99	5369.1	
829.16	4712.4	
829.34	5889.3	
829.51	5646.9	
829.68	4290.5	
829.85	4507.6	
830.02	6139.1	
830.2	5919.3	
830.37	3293.1	
830.54	5166.3	
830.71	6657.9	
830.88	5242.1	
831.05	3386	
831.23	3918.4	
831.4	6406.7	
831.57	7303.7	
831.74	3913	
831.91	3497.2	
832.09	5385.5	
832.26	5891.3	
832.43	4116.4	
832.6	4664.6	
832.77	5458.5	
832.94	6294.8	
833.12	3287	
833.29	4043.4	
833.46	5640.1	
833.63	7607.5	
833.8	4479.6	
833.97	4113.7	
834.15	5873.6	
834.32	5643.5	
834.49	4244.8	
834.66	4466.6	
834.83	6109.8	
835	4956.1	
835.17	3978.5	
835.35	3991.5	
835.52	5776.6	
835.69	5681.7	
835.86	4192.2	
836.03	3411.9	
836.2	5822.4	
836.37	5419.6	
836.55	4080.9	
836.72	3824.9	
836.89	5414.1	
837.06	6023.1	
837.23	4198.3	
837.4	4675.5	
837.57	6754.9	
837.75	7516	
837.92	3753.9	
838.09	4012	
838.26	5333.6	
838.43	6194.4	
838.6	4390.2	
838.77	3816.7	
838.94	7100.3	
839.11	6766.5	
839.29	4145.1	
839.46	3244	
839.63	5815.5	
839.8	5578.7	
839.97	3981.3	
840.14	3948.5	
840.31	5560.9	
840.48	5892	
840.65	3284.3	
840.82	3917.8	
841	5813.5	
841.17	5883.1	
841.34	3676.1	
841.51	3739.6	
841.68	5786.2	
841.85	5502.2	
842.02	3824.9	
842.19	3105.4	
842.36	5621	
842.53	5603.9	
842.7	3411.2	
842.87	4577.9	
843.05	7348.1	
843.22	5578.7	
843.39	3493.2	
843.56	3730.7	
843.73	5266	
843.9	5930.9	
844.07	6006.7	
844.24	4989.5	
844.41	8779.6	
844.58	4967	
844.75	3519.1	
844.92	3850.9	
845.09	5827.2	
845.26	5883.1	
845.43	3679.5	
845.6	3860.4	
845.77	5856.5	
845.94	5504.9	
846.12	4087.7	
846.29	4278.9	
846.46	6054.5	
846.63	5827.8	
846.8	3668.6	
846.97	4379.9	
847.14	6344.6	
847.31	5765	
847.48	4156	
847.65	4504.2	
847.82	6168.5	
847.99	6072.2	
848.16	4931.5	
848.33	4546.5	
848.5	5360.9	
848.67	6373.3	
848.84	3653.6	
849.01	3736.2	
849.18	5228.5	
849.35	4852.3	
849.52	4602.5	
849.69	3540.9	
849.86	6079.7	
850.03	6313.9	
850.2	3596.2	
850.37	4513	
850.54	6193.7	
850.71	5514.5	
850.88	4388.1	
851.05	3564.8	
851.22	5758.9	
851.39	6423.1	
851.56	3420.8	
851.73	4160.1	
851.9	5098.8	
852.07	6134.3	
852.24	4022.9	
852.41	3581.2	
852.58	5646.2	
852.75	5185.5	
852.92	4120.5	
853.09	3549.8	
853.26	5436	
853.43	6341.9	
853.6	3629	
853.77	3070.6	
853.94	6485.9	
854.11	5802.6	
854.28	5447.6	
854.44	3932.1	
854.61	6944	
854.78	6195.1	
854.95	3632.4	
855.12	4663.9	
855.29	4659.8	
855.46	6436.1	
855.63	3595.6	
855.8	5160.9	
855.97	5399.1	
856.14	6199.9	
856.31	5153.4	
856.48	3962.1	
856.65	5350	
856.82	5083.7	
856.99	3486.3	
857.16	3923.9	
857.33	7148.1	
857.49	5468.8	
857.66	3902.7	
857.83	4253.6	
858	5445.5	
858.17	5679.7	
858.34	3426.9	
858.51	3614	
858.68	6623.8	
858.85	6557.6	
859.02	4192.2	
859.19	4525.3	
859.36	5068.7	
859.52	5186.1	
859.69	3639.9	
859.86	4293.9	
860.03	5159.5	
860.2	6471.6	
860.37	3272.7	
860.54	3695.9	
860.71	6068.8	
860.88	6566.5	
861.05	4052.9	
861.21	4629.8	
861.38	6637.5	
861.55	5013.4	
861.72	3341.6	
861.89	4070	
862.06	6186.2	
862.23	6703	
862.4	3531.4	
862.56	3864.5	
862.73	5988.9	
862.9	5596.4	
863.07	4293.9	
863.24	3336.1	
863.41	5036	
863.58	5113.8	
863.75	3696.6	
863.91	4212	
864.08	6436.8	
864.25	5933	
864.42	4600.4	
864.59	5210.7	
864.76	6748.1	
864.93	5098.8	
865.09	3527.3	
865.26	3917.8	
865.43	6421.7	
865.6	6778.8	
865.77	3179.1	
865.94	3619.4	
866.1	6466.1	
866.27	6118.6	
866.44	5536.3	
866.61	3478.8	
866.78	5472.2	
866.95	5974.6	
867.11	3536.8	
867.28	3191.4	
867.45	6201.2	
867.62	5190.2	
867.79	4349.9	
867.96	3588	
868.12	5110.4	
868.29	6150.1	
868.46	3631.7	
868.63	4874.2	
868.8	6311.8	
868.97	6061.3	
869.13	3784	
869.3	3798.3	
869.47	5977.3	
869.64	6230.6	
869.81	3715	
869.97	3648.8	
870.14	5833.3	
870.31	6627.2	
870.48	3485.6	
870.65	4696.7	
870.81	5458.5	
870.98	5428.5	
871.15	4126	
871.32	3758.7	
871.48	5987.6	
871.65	6663.4	
871.82	3675.4	
871.99	3994.2	
872.16	6972.7	
872.32	6490.7	
872.49	3691.8	
872.66	3682.2	
872.83	6076.3	
872.99	5268.7	
873.16	4149.2	
873.33	3576.4	
873.5	5668.8	
873.67	5786.2	
873.83	3796.3	
874	4940.4	
874.17	5857.9	
874.34	7088.7	
874.5	4741	
874.67	4565.6	
874.84	6541.9	
875.01	5074.9	
875.17	5132.9	
875.34	3613.3	
875.51	5773.2	
875.68	7040.2	
875.84	4377.9	
876.01	5438.7	
876.18	6058.6	
876.34	5957.5	
876.51	3631	
876.68	3503.4	
876.85	5522.7	
877.01	6389	
877.18	5215.5	
877.35	3607.8	
877.52	5565.7	
877.68	5005.2	
877.85	3518.4	
878.02	3564.1	
878.18	5571.8	
878.35	5341.8	
878.52	2918.4	
878.69	4078.9	
878.85	6100.9	
879.02	6068.1	
879.19	5210	
879.35	4002.4	
879.52	6036	
879.69	6325.5	
879.86	3100.6	
880.02	4098.7	
880.19	5552	
880.36	6852.5	
880.52	4211.3	
880.69	4353.3	
880.86	6107.7	
881.02	6262.7	
881.19	4010.6	
881.36	3973.1	
881.52	6033.3	
881.69	5308.3	
881.86	3867.9	
882.02	3831.7	
882.19	6354.8	
882.36	7425.9	
882.52	3731.4	
882.69	5190.2	
882.86	5858.6	
883.02	5729.5	
883.19	4457.1	
883.36	4213.4	
883.52	6171.2	
883.69	7090.8	
883.86	3661.8	
884.02	3276.1	
884.19	6154.1	
884.36	5617.6	
884.52	4135.5	
884.69	3842	
884.86	5362.9	
885.02	6815	
885.19	4111.6	
885.36	3966.2	
885.52	5692	
885.69	5770.5	
885.86	5382.7	
886.02	4689.8	
886.19	6127.5	
886.35	5536.3	
886.52	4018.8	
886.69	5143.1	
886.85	5154.1	
887.02	6538.5	
887.19	6538.5	
887.35	6538.5	
887.52	6538.5	
887.68	6538.5	
887.85	6538.5	
888.02	6538.5	
888.18	6538.5	
888.35	6538.5	
888.51	6538.5	
888.68	6538.5	
888.85	6538.5	
889.01	6538.5	
889.18	6538.5	
889.35	6538.5	
889.51	6538.5	
889.68	6538.5	
889.84	6538.5	
890.01	6538.5	
890.17	6538.5	
890.34	6538.5	
890.51	6538.5	
890.67	6538.5	
890.84	6538.5	
891	6538.5	
891.17	6538.5	
891.34	6538.5	
891.5	6538.5	
891.67	6538.5	
891.83	6538.5	
892	6538.5	
892.16	6538.5	
892.33	6538.5	
892.5	6538.5	
892.66	6538.5	
892.83	6538.5	
892.99	6538.5	
893.16	6538.5	
893.32	6538.5	
893.49	6538.5	
893.65	6538.5	
893.82	6538.5	
893.99	6538.5	
894.15	6538.5	
894.32	6538.5	
894.48	6538.5	
894.65	6538.5	
894.81	6538.5	
894.98	6538.5	
895.14	6538.5	
895.31	6538.5	
895.47	6538.5	
895.64	6538.5	
895.81	6538.5	
895.97	6538.5	
896.14	6538.5	
896.3	6538.5	
896.47	6538.5	
896.63	6538.5	
896.8	6538.5	
896.96	6538.5	
897.13	6538.5	
897.29	6538.5	
897.46	6538.5	
897.62	6538.5	
897.79	6538.5	
897.95	6538.5	
898.12	6538.5	
898.28	6538.5	
898.45	6538.5	
898.61	6538.5	
898.78	6538.5	
898.94	6538.5	
899.11	6538.5	
899.27	6538.5	
899.44	6538.5	
899.6	6538.5	
899.77	6538.5	
899.93	6538.5	
900.1	6538.5	
900.26	6538.5	
900.43	6538.5	
900.59	6538.5	
900.76	6538.5	
900.92	6538.5	
901.09	6538.5	
901.25	6538.5	
901.42	6538.5	
901.58	6538.5	
901.75	6538.5	
901.91	6538.5	
902.07	6538.5	
902.24	6538.5	
902.4	6538.5	
902.57	6538.5	
902.73	6538.5	
902.9	6538.5	
903.06	6538.5	
903.23	6538.5	
903.39	6538.5	
903.56	6538.5	
903.72	6538.5	
903.88	6538.5	
904.05	6538.5	
904.21	6538.5	
904.38	6538.5	
904.54	6538.5	
904.71	6538.5	
904.87	6538.5	
905.03	6538.5	
905.2	6538.5	
905.36	6538.5	
905.53	6538.5	
905.69	6538.5	
905.86	6538.5	
906.02	6538.5	
906.18	6538.5	
906.35	6538.5	
906.51	6538.5	
906.68	6538.5	
906.84	6538.5	
907.01	6538.5	
907.17	6538.5	
907.33	6538.5	
907.5	6538.5	
907.66	6538.5	
907.83	6538.5	
907.99	6538.5	
908.15	6538.5	
908.32	6538.5	
908.48	6538.5	
908.65	6538.5	
908.81	6538.5	
908.97	6538.5	
909.14	6538.5	
909.3	6538.5	
909.47	6538.5	
909.63	6538.5	
909.79	6538.5	
909.96	6538.5	
910.12	6538.5	
910.28	6538.5	
910.45	6538.5	
910.61	6538.5	
910.78	6538.5	
910.94	6538.5	
911.1	6538.5	
911.27	6538.5	
911.43	6538.5	
911.59	6538.5	
911.76	6538.5	
911.92	6538.5	
912.08	6538.5	
912.25	6538.5	
912.41	6538.5	
912.57	6538.5	
912.74	6538.5	
912.9	6538.5	
913.07	6538.5	
913.23	6538.5	
913.39	6538.5	
913.56	6538.5	
913.72	6538.5	
913.88	6538.5	
914.05	6538.5	
914.21	6538.5	
914.37	6538.5	
914.54	6538.5	
914.7	6538.5	
914.86	6538.5	
915.03	6538.5	
915.19	6538.5	
