Wavelength	Intensities	
nm	a.u.	
179.22	1803.4	
179.44	1795	
179.65	1811.8	
179.86	1778.3	
180.08	1800.8	
180.29	4336.2	
180.51	3175.7	
180.72	5272.8	
180.94	6016.2	
181.15	2946.3	
181.37	2904	
181.58	5131.5	
181.79	5362.9	
182.01	3071.3	
182.22	3237.2	
182.44	5334.3	
182.65	4529.4	
182.87	4083	
183.08	3574.4	
183.29	5639.4	
183.51	4707.6	
183.72	3252.9	
183.94	4700.8	
184.15	4987.5	
184.37	5016.8	
184.58	2888.3	
184.79	3871.3	
185.01	4715.1	
185.22	5371.8	
185.44	4106.2	
185.65	3562.1	
185.86	4977.2	
186.08	4612	
186.29	2885.6	
186.51	3048.1	
186.72	4659.8	
186.94	5432.6	
187.15	3457	
187.36	3595.6	
187.58	6961	
187.79	5063.3	
188.01	3648.1	
188.22	5610.1	
188.43	6091.3	
188.65	5357.5	
188.86	3056.3	
189.08	3590.1	
189.29	4859.8	
189.5	4840	
189.72	3295.2	
189.93	3401.7	
190.15	5498.8	
190.36	6500.3	
190.57	3640.6	
190.79	3549.1	
191	5521.3	
191.22	5492.7	
191.43	3658.4	
191.64	3050.8	
191.86	5766.4	
192.07	5516.5	
192.29	3202.3	
192.5	3333.4	
192.71	5464.7	
192.93	4793.6	
193.14	3336.1	
193.35	3431.7	
193.57	4777.2	
193.78	5513.8	
194	2712.9	
194.21	3275.4	
194.42	4616.1	
194.64	4988.9	
194.85	3573.7	
195.07	4101.4	
195.28	4969.1	
195.49	4403.1	
195.71	4343.7	
195.92	3131.3	
196.13	5212.1	
196.35	5202.5	
196.56	4611.3	
196.78	3571.7	
196.99	6407.4	
197.2	6003.3	
197.42	3619.4	
197.63	3657.7	
197.84	4492.6	
198.06	5178.6	
198.27	3349.1	
198.48	4315.8	
198.7	4827.7	
198.91	5014.1	
199.13	3646.1	
199.34	3611.9	
199.55	5412.1	
199.77	4399.7	
199.98	3210.5	
200.19	3635.8	
200.41	4917.2	
200.62	4670.1	
200.83	3736.9	
201.05	4011.3	
201.26	4953.4	
201.47	4736.3	
201.69	3231.7	
201.9	3104.7	
202.11	5078.3	
202.33	5885.9	
202.54	3383.2	
202.76	3768.9	
202.97	5076.2	
203.18	5133.6	
203.4	3784	
203.61	3715	
203.82	5094	
204.04	4752.7	
204.25	3674.1	
204.46	3562.8	
204.68	4992.3	
204.89	5283.8	
205.1	3609.2	
205.32	3083.6	
205.53	5358.2	
205.74	5470.8	
205.96	2672.6	
206.17	3655.6	
206.38	5289.9	
206.6	5423.7	
206.81	4059.8	
207.02	3381.2	
207.24	5243.5	
207.45	5561.6	
207.66	3478.8	
207.88	3021.4	
208.09	5191.6	
208.3	5046.2	
208.52	3181.9	
208.73	3479.5	
208.94	5034.6	
209.15	5601.9	
209.37	3444	
209.58	3590.1	
209.79	5463.3	
210.01	4859.8	
210.22	2779.8	
210.43	2911.5	
210.65	5022.3	
210.86	5343.8	
211.07	3423.5	
211.29	3218	
211.5	5262.6	
211.71	4969.7	
211.93	3194.1	
212.14	3173	
212.35	4981.3	
212.56	5190.2	
212.78	3614	
212.99	2984.6	
213.2	5800.5	
213.42	4812.7	
213.63	3277.4	
213.84	3502	
214.06	4547.9	
214.27	4553.3	
214.48	3465.2	
214.69	3692.5	
214.91	5623	
215.12	5704.3	
215.33	3724.6	
215.55	3991.5	
215.76	6013.5	
215.97	5370.5	
216.18	3575.8	
216.4	3464.5	
216.61	4771.1	
216.82	5378	
217.04	3208.5	
217.25	3281.5	
217.46	5569.1	
217.67	5355.4	
217.89	2939.5	
218.1	2982.5	
218.31	5085.1	
218.53	5218.2	
218.74	3379.8	
218.95	3247.4	
219.16	4997	
219.38	5791	
219.59	3261	
219.8	3827.7	
220.01	6288.6	
220.23	5062.6	
220.44	4197.7	
220.65	3207.1	
220.87	5079.6	
221.08	5529.5	
221.29	3042.6	
221.5	3911.6	
221.72	6632	
221.93	4744.5	
222.14	3661.8	
222.35	4235.2	
222.57	5055.1	
222.78	5347.9	
222.99	3487.7	
223.2	3763.5	
223.42	5280.3	
223.63	5348.6	
223.84	2703.3	
224.05	2723.1	
224.27	6275	
224.48	5802.6	
224.69	4262.5	
224.9	3649.5	
225.12	5180	
225.33	4968.4	
225.54	2923.1	
225.75	3269.9	
225.97	4672.1	
226.18	4946.5	
226.39	3497.2	
226.6	3295.9	
226.82	4793.6	
227.03	4689.8	
227.24	3609.9	
227.45	3015.3	
227.67	5389.6	
227.88	5840.8	
228.09	4037.2	
228.3	3990.8	
228.52	5444.9	
228.73	4969.1	
228.94	3412.6	
229.15	3001.6	
229.36	4969.1	
229.58	4947.2	
229.79	3436.5	
230	3955.3	
230.21	5924.8	
230.43	5106.3	
230.64	3543.7	
230.85	3679.5	
231.06	5451.7	
231.28	5444.2	
231.49	2975	
231.7	3489.7	
231.91	5304.2	
232.12	5068	
232.34	3147.7	
232.55	3487.7	
232.76	5557.5	
232.97	5152	
233.18	3190.7	
233.4	3605.1	
233.61	5223.7	
233.82	4799.1	
234.03	3360.7	
234.25	3345.7	
234.46	6752.2	
234.67	5066.7	
234.88	3756	
235.09	3277.4	
235.31	5237.3	
235.52	4931.5	
235.73	3575.1	
235.94	3020.8	
236.15	4847.5	
236.37	6004.6	
236.58	3181.2	
236.79	3480.9	
237	5296.7	
237.21	4584.7	
237.43	3734.1	
237.64	2984.6	
237.85	8691.6	
238.06	4648.9	
238.27	3710.9	
238.48	3077.4	
238.7	5311.1	
238.91	4924.7	
239.12	3459	
239.33	3517	
239.54	4638	
239.76	4916.5	
239.97	3418.1	
240.18	3479.5	
240.39	6106.4	
240.6	5170.4	
240.82	3609.9	
241.03	3008.5	
241.24	5012.1	
241.45	5732.9	
241.66	3158	
241.87	3727.3	
242.09	5633.3	
242.3	5971.2	
242.51	3773.7	
242.72	3448.8	
242.93	5433.3	
243.14	5007.3	
243.36	4047.5	
243.57	4292.5	
243.78	5784.1	
243.99	5322.7	
244.2	3472.7	
244.41	3162.7	
244.63	4633.2	
244.84	5236.7	
245.05	3691.8	
245.26	3472.7	
245.47	5339.7	
245.68	5411.4	
245.9	4530.8	
246.11	3643.3	
246.32	4868	
246.53	5186.1	
246.74	5479	
246.95	2946.3	
247.16	4653	
247.38	5030.5	
247.59	2935.4	
247.8	3477.5	
248.01	4771.1	
248.22	4976.6	
248.43	3149.8	
248.64	3427.6	
248.86	4514.4	
249.07	4834.6	
249.28	3097.9	
249.49	3606.5	
249.7	5488.6	
249.91	5580	
250.12	2927.9	
250.34	2960	
250.55	5111.7	
250.76	5005.9	
250.97	3531.4	
251.18	3676.1	
251.39	5624.4	
251.6	5158.2	
251.81	3648.1	
252.03	3640.6	
252.24	4842.8	
252.45	5465.3	
252.66	3044.6	
252.87	3762.8	
253.08	5032.5	
253.29	6432	
253.5	3028.3	
253.72	4185.4	
253.93	4920.6	
254.14	5941.2	
254.35	3337.5	
254.56	3340.2	
254.77	5199.8	
254.98	4704.9	
255.19	3321.1	
255.41	4115.1	
255.62	5091.3	
255.83	5586.2	
256.04	3725.9	
256.25	3641.3	
256.46	6072.9	
256.67	4772.4	
256.88	3540.3	
257.09	3979.2	
257.31	4700.1	
257.52	4787.5	
257.73	4465.3	
257.94	3304.7	
258.15	4967	
258.36	5029.8	
258.57	4094.6	
258.78	2699.9	
258.99	5437.4	
259.2	4869.4	
259.41	3340.2	
259.63	3370.3	
259.84	5725.4	
260.05	6150.7	
260.26	4358.8	
260.47	3244.7	
260.68	5479	
260.89	4968.4	
261.1	3975.8	
261.31	3180.5	
261.52	5591	
261.73	5808	
261.95	4248.2	
262.16	3736.2	
262.37	5599.1	
262.58	5708.4	
262.79	4276.8	
263	3401.7	
263.21	5061.9	
263.42	4904.2	
263.63	3411.2	
263.84	3408.5	
264.05	5575.3	
264.26	5798.5	
264.47	4094.6	
264.69	3710.9	
264.9	5666.7	
265.11	5210	
265.32	3246.7	
265.53	3308.8	
265.74	5117.9	
265.95	4471.4	
266.16	3539.6	
266.37	3846.1	
266.58	5132.9	
266.79	4912.4	
267	3278.1	
267.21	3123.2	
267.42	4582.7	
267.63	5005.2	
267.84	3438.5	
268.06	3013.9	
268.27	5451	
268.48	5614.8	
268.69	3412.6	
268.9	3991.5	
269.11	5625.1	
269.32	4532.8	
269.53	3500	
269.74	3256.3	
269.95	5295.4	
270.16	4422.2	
270.37	3538.2	
270.58	4020.8	
270.79	4889.9	
271	5485.8	
271.21	3700.7	
271.42	3449.5	
271.63	5151.3	
271.84	4669.4	
272.05	2841.2	
272.26	3155.2	
272.47	5057.8	
272.68	5202.5	
272.89	3432.4	
273.11	3849.5	
273.32	4814.1	
273.53	5780.7	
273.74	3713	
273.95	3687	
274.16	5528.2	
274.37	5064.6	
274.58	3897.3	
274.79	3052.8	
275	5159.5	
275.21	5593	
275.42	4545.1	
275.63	3910.9	
275.84	5251	
276.05	6444.3	
276.26	3654.3	
276.47	3486.3	
276.68	4926.7	
276.89	5928.9	
277.1	3910.9	
277.31	3061	
277.52	5259.9	
277.73	5466.7	
277.94	3056.3	
278.15	3373	
278.36	5211.4	
278.57	4743.8	
278.78	3371.6	
278.99	3768.3	
279.2	4757.4	
279.41	4670.7	
279.62	4417.5	
279.83	3095.2	
280.04	6084.5	
280.25	4688.5	
280.46	4373.1	
280.67	3500	
280.88	4701.5	
281.09	5586.2	
281.3	3629.7	
281.51	4528.1	
281.72	4833.2	
281.93	5417.6	
282.14	3263.8	
282.35	3476.1	
282.56	5464.7	
282.77	5343.8	
282.98	3349.8	
283.19	4095.3	
283.4	6526.2	
283.61	4971.8	
283.82	3111.5	
284.03	4314.4	
284.24	5130.8	
284.45	5519.3	
284.66	4295.3	
284.87	4100	
285.08	5531.6	
285.29	5648.3	
285.5	2969.6	
285.71	3397.6	
285.92	5562.3	
286.12	6086.6	
286.33	4203.8	
286.54	3418.7	
286.75	5446.2	
286.96	4915.1	
287.17	3139.5	
287.38	4184	
287.59	4745.1	
287.8	4710.3	
288.01	3413.3	
288.22	3870.7	
288.43	5390.3	
288.64	4588.8	
288.85	4003.8	
289.06	3827	
289.27	5387.5	
289.48	5822.4	
289.69	4305.5	
289.9	3902.1	
290.11	5637.4	
290.32	4795	
290.53	4032.5	
290.74	3730.7	
290.94	5431.2	
291.15	5525.4	
291.36	3296.5	
291.57	3861.1	
291.78	4844.1	
291.99	4501.4	
292.2	3173.7	
292.41	3737.5	
292.62	5539.1	
292.83	5316.5	
293.04	4595.6	
293.25	3219.4	
293.46	4892.6	
293.67	5574.6	
293.88	3262.4	
294.09	3145	
294.29	4651.6	
294.5	5167	
294.71	3487.7	
294.92	3328.6	
295.13	4842.1	
295.34	5966.4	
295.55	2953.2	
295.76	2966.8	
295.97	5369.1	
296.18	6027.2	
296.39	3112.9	
296.6	3278.8	
296.81	5074.2	
297.01	5385.5	
297.22	3439.9	
297.43	3287.7	
297.64	4790.2	
297.85	4704.9	
298.06	2756.6	
298.27	2996.2	
298.48	5021.6	
298.69	4811.4	
298.9	3568.2	
299.11	3259	
299.31	4646.2	
299.52	4614.1	
299.73	3827	
299.94	3610.6	
300.15	5038	
300.36	4746.5	
300.57	3678.8	
300.78	3676.1	
300.99	4923.3	
301.2	5145.9	
301.4	3239.2	
301.61	3516.4	
301.82	5341.8	
302.03	5440.1	
302.24	3951.2	
302.45	3142.3	
302.66	5292.6	
302.87	5632.6	
303.08	3317	
303.29	4406.5	
303.49	4824.3	
303.7	5066.7	
303.91	2927.9	
304.12	4225.6	
304.33	4598.4	
304.54	5152	
304.75	3278.8	
304.96	3164.8	
305.16	5330.2	
305.37	5905.7	
305.58	2924.5	
305.79	2996.9	
306	5328.8	
306.21	4568.3	
306.42	3291.8	
306.63	4891.9	
306.83	4873.5	
307.04	5494	
307.25	3592.8	
307.46	3620.8	
307.67	4411.3	
307.88	5373.9	
308.09	3265.8	
308.29	3344.3	
308.5	5082.4	
308.71	5541.1	
308.92	3495.9	
309.13	3200.3	
309.34	4902.2	
309.55	4943.1	
309.75	4104.1	
309.96	3751.9	
310.17	5362.9	
310.38	4849.6	
310.59	3897.3	
310.8	3094.5	
311.01	4965.6	
311.21	4906.9	
311.42	3120.4	
311.63	3197.6	
311.84	4813.4	
312.05	5127.4	
312.26	3631.7	
312.46	4013.3	
312.67	4905.6	
312.88	4635.9	
313.09	3191.4	
313.3	3142.3	
313.51	5739.1	
313.71	6035.4	
313.92	3190.1	
314.13	3349.1	
314.34	5203.2	
314.55	4975.9	
314.76	4068.6	
314.96	3537.5	
315.17	5140.4	
315.38	5304.9	
315.59	3175.7	
315.8	3054.9	
316.01	5692	
316.21	5808	
316.42	3089.7	
316.63	3510.9	
316.84	5006.6	
317.05	5616.9	
317.26	3717.1	
317.46	3368.2	
317.67	5029.8	
317.88	5355.4	
318.09	3956	
318.3	2968.9	
318.5	4851	
318.71	5311.7	
318.92	5076.2	
319.13	3717.1	
319.34	5466	
319.54	5610.8	
319.75	3050.8	
319.96	2859.6	
320.17	5307	
320.38	5496.7	
320.58	2925.9	
320.79	3502	
321	5556.1	
321.21	5642.2	
321.42	3519.8	
321.62	2947.7	
321.83	4739.7	
322.04	5058.5	
322.25	3405.1	
322.46	3162.7	
322.66	5137.7	
322.87	5341.1	
323.08	3856.3	
323.29	3146.4	
323.5	5992.4	
323.7	4649.6	
323.91	4304.8	
324.12	3898.6	
324.33	5173.9	
324.53	5370.5	
324.74	3742.3	
324.95	3900.7	
325.16	4567	
325.37	4818.2	
325.57	3194.8	
325.78	3261.7	
325.99	5126.1	
326.2	4609.3	
326.4	4435.9	
326.61	2990	
326.82	4967	
327.03	5142.4	
327.24	4468.7	
327.44	4185.4	
327.65	5340.4	
327.86	4322.6	
328.07	3751.9	
328.27	3110.9	
328.48	5691.3	
328.69	4707.6	
328.9	4456.4	
329.1	3363.4	
329.31	4978.6	
329.52	5742.5	
329.73	3216.7	
329.93	3551.2	
330.14	5095.3	
330.35	5180	
330.56	5149.3	
330.76	3878.2	
330.97	4859.1	
331.18	5153.4	
331.39	3569.6	
331.59	2910.8	
331.8	5513.1	
332.01	5683.1	
332.22	3287.7	
332.42	3687	
332.63	5162.2	
332.84	4751.3	
333.05	3535.5	
333.25	3183.2	
333.46	4865.3	
333.67	5016.8	
333.88	3350.5	
334.08	3659.7	
334.29	6565.1	
334.5	5619.6	
334.7	3103.4	
334.91	4487.1	
335.12	4651.6	
335.33	5382.1	
335.53	3510.2	
335.74	5121.3	
335.95	4941.1	
336.16	4708.3	
336.36	3493.2	
336.57	4035.2	
336.78	4641.4	
336.98	5538.4	
337.19	4356.7	
337.4	3428.3	
337.61	6008.7	
337.81	4642.7	
338.02	3289.7	
338.23	4130.8	
338.43	5668.1	
338.64	4761.5	
338.85	3230.3	
339.05	4129.4	
339.26	5799.2	
339.47	4567	
339.68	3228.3	
339.88	4596.3	
340.09	5264	
340.3	5492	
340.5	3705.5	
340.71	2891.7	
340.92	4620.9	
341.13	5707	
341.33	3139.5	
341.54	3713	
341.75	5290.6	
341.95	4902.2	
342.16	3632.4	
342.37	3878.2	
342.57	4672.8	
342.78	4953.4	
342.99	3902.1	
343.19	2953.9	
343.4	5400.5	
343.61	5297.4	
343.81	3474.7	
344.02	3117.7	
344.23	5393.7	
344.43	5730.2	
344.64	3900.7	
344.85	3871.3	
345.06	5294	
345.26	5578	
345.47	3670	
345.68	4289.1	
345.88	4511.7	
346.09	5419.6	
346.3	3766.2	
346.5	2847.4	
346.71	4999.8	
346.92	4866	
347.12	2975	
347.33	3691.8	
347.54	5526.1	
347.74	5816.2	
347.95	3683.6	
348.16	2772.3	
348.36	4881.7	
348.57	4730.1	
348.78	3605.1	
348.98	3912.3	
349.19	5023	
349.39	4541	
349.6	3028.9	
349.81	3301.3	
350.01	5260.5	
350.22	4853	
350.43	3571.7	
350.63	4200.4	
350.84	5115.8	
351.05	4838.7	
351.25	3244.7	
351.46	2993.4	
351.67	5487.2	
351.87	4805.9	
352.08	3438.5	
352.29	3902.1	
352.49	5474.9	
352.7	5524.1	
352.9	3163.4	
353.11	3909.6	
353.32	6030.6	
353.52	4950.6	
353.73	3151.1	
353.94	3962.1	
354.14	5352.7	
354.35	5145.2	
354.55	3303.4	
354.76	3580.5	
354.97	5285.1	
355.17	5119.9	
355.38	3100.6	
355.59	4179.9	
355.79	4833.2	
356	5151.3	
356.2	3579.8	
356.41	3178.4	
356.62	4648.2	
356.82	5046.9	
357.03	3889.8	
357.24	3475.4	
357.44	4884.4	
357.65	4947.2	
357.85	4468	
358.06	3691.8	
358.27	4657.1	
358.47	4861.2	
358.68	3082.9	
358.88	3794.9	
359.09	5364.3	
359.3	5637.4	
359.5	4459.1	
359.71	3975.1	
359.91	5965.7	
360.12	5523.4	
360.33	3820.8	
360.53	4265.2	
360.74	4983.4	
360.94	4970.4	
361.15	4040.6	
361.36	3431.7	
361.56	5645.6	
361.77	5137	
361.97	4501.4	
362.18	3625.6	
362.38	5673.6	
362.59	4832.5	
362.8	3345	
363	3226.2	
363.21	4696	
363.41	5242.8	
363.62	3782.6	
363.83	4687.1	
364.03	5375.9	
364.24	6050.4	
364.44	4771.1	
364.65	4726	
364.85	5130.8	
365.06	4887.1	
365.27	3564.1	
365.47	3619.4	
365.68	6017.6	
365.88	5130.8	
366.09	3874.1	
366.29	3636.5	
366.5	5372.5	
366.71	5691.3	
366.91	4689.2	
367.12	4056.3	
367.32	6266.8	
367.53	5645.6	
367.73	4035.2	
367.94	4839.4	
368.14	5584.8	
368.35	6318.7	
368.56	3969	
368.76	3481.5	
368.97	5722.7	
369.17	7008.1	
369.38	3592.8	
369.58	3807.9	
369.79	4840	
369.99	5939.1	
370.2	4661.9	
370.4	3867.9	
370.61	5355.4	
370.82	6500.9	
371.02	3761.4	
371.23	3280.8	
371.43	4830.5	
371.64	5872.2	
371.84	3870	
372.05	4799.1	
372.25	6971.3	
372.46	5668.1	
372.66	3941	
372.87	3880.2	
373.07	5745.9	
373.28	7077.1	
373.48	4693.3	
373.69	4480.3	
373.9	5319.3	
374.1	5363.6	
374.31	4680.3	
374.51	4305.5	
374.72	5999.2	
374.92	5154.7	
375.13	4883.7	
375.33	4225.6	
375.54	5712.5	
375.74	5255.8	
375.95	4281.6	
376.15	5315.2	
376.36	5737	
376.56	5621.7	
376.77	4374.5	
376.97	4709	
377.18	6701	
377.38	5867.4	
377.59	4988.9	
377.79	3982.6	
378	5674.2	
378.2	6072.2	
378.41	4051.6	
378.61	3966.9	
378.82	6094.8	
379.02	5431.9	
379.23	4214.7	
379.43	5077.6	
379.64	6178	
379.84	5915.2	
380.05	4037.2	
380.25	3988.1	
380.46	5899.5	
380.66	5605.3	
380.87	5127.4	
381.07	5440.8	
381.28	6482.5	
381.48	5986.9	
381.69	4059.8	
381.89	4085	
382.1	5134.3	
382.3	6045.6	
382.51	4936.3	
382.71	5707.7	
382.91	5941.8	
383.12	6384.9	
383.32	4240	
383.53	4478.2	
383.73	5833.3	
383.94	5702.2	
384.14	4459.8	
384.35	3772.4	
384.55	5543.2	
384.76	5916.6	
384.96	4345.1	
385.17	4506.9	
385.37	5866.1	
385.58	5292.6	
385.78	4608.6	
385.98	3676.8	
386.19	5412.8	
386.39	5815.5	
386.6	4049.5	
386.8	4299.4	
387.01	5927.5	
387.21	5959.6	
387.42	4684.4	
387.62	5203.9	
387.83	5413.5	
388.03	5863.3	
388.23	4383.3	
388.44	5069.4	
388.64	5131.5	
388.85	5266.7	
389.05	4661.9	
389.26	5251.7	
389.46	6896.9	
389.67	6444.3	
389.87	4706.9	
390.07	4773.8	
390.28	5750	
390.48	5320.6	
390.69	4089.1	
390.89	4318.5	
391.1	5505.6	
391.3	6281.8	
391.5	5316.5	
391.71	5811.5	
391.91	6092	
392.12	6909.2	
392.32	5403.2	
392.53	4755.4	
392.73	5685.8	
392.93	5717.9	
393.14	4511	
393.34	5141.1	
393.55	6015.6	
393.75	5669.5	
393.95	4486.4	
394.16	4441.4	
394.36	5550.7	
394.57	6059.9	
394.77	4014.7	
394.98	4390.2	
395.18	5490.6	
395.38	5726.8	
395.59	5229.8	
395.79	4326	
396	5731.6	
396.2	6065.4	
396.4	5024.3	
396.61	4997	
396.81	6290	
397.02	5700.9	
397.22	5226.4	
397.42	5355.4	
397.63	6295.5	
397.83	5691.3	
398.04	4348.5	
398.24	4743.8	
398.44	6078.4	
398.65	5372.5	
398.85	4232.5	
399.05	4385.4	
399.26	5694.7	
399.46	7137.2	
399.67	4627.7	
399.87	4403.8	
400.07	5980.8	
400.28	6256.5	
400.48	4523.3	
400.69	5440.8	
400.89	6472.3	
401.09	6853.9	
401.3	4545.8	
401.5	5400.5	
401.7	7054.6	
401.91	7247.8	
402.11	4844.8	
402.32	4938.3	
402.52	6567.8	
402.72	6418.3	
402.93	5138.4	
403.13	4200.4	
403.33	7120.1	
403.54	5947.3	
403.74	4745.1	
403.94	5474.2	
404.15	5968.5	
404.35	6936.5	
404.56	4508.9	
404.76	6079.1	
404.96	6384.2	
405.17	6128.2	
405.37	5756.2	
405.57	5093.3	
405.78	6559.6	
405.98	5940.5	
406.18	4698.7	
406.39	5413.5	
406.59	6498.2	
406.79	6027.2	
407	4422.2	
407.2	4599.7	
407.4	6490.7	
407.61	6651.8	
407.81	4569	
408.01	6293.4	
408.22	5709.7	
408.42	7303.1	
408.62	5781.4	
408.83	5294.7	
409.03	6389.7	
409.23	6281.8	
409.44	5413.5	
409.64	5625.8	
409.84	7242.3	
410.05	7165.2	
410.25	5578	
410.45	5407.3	
410.66	6935.8	
410.86	8942.8	
411.06	5890.6	
411.27	5773.9	
411.47	8822.6	
411.67	7102.4	
411.88	5983.5	
412.08	6240.2	
412.28	7658.7	
412.49	8077.2	
412.69	5869.5	
412.89	5931.6	
413.09	7963.2	
413.3	7822.6	
413.5	5981.4	
413.7	5708.4	
413.91	7178.8	
414.11	8002.1	
414.31	5879	
414.52	6303.6	
414.72	7691.5	
414.92	7630.7	
415.12	5939.8	
415.33	6343.9	
415.53	7881.3	
415.73	8129.1	
415.94	6608.1	
416.14	6143.2	
416.34	7184.3	
416.55	6866.8	
416.75	7212.9	
416.95	6717.3	
417.15	8112.7	
417.36	8524.3	
417.56	7457.3	
417.76	6583.5	
417.97	8385.1	
418.17	8180.3	
418.37	6346	
418.57	6453.8	
418.78	7985	
418.98	7730.4	
419.18	7044.3	
419.38	7064.8	
419.59	7709.9	
419.79	7310.6	
419.99	6232.7	
420.2	6462	
420.4	8068.3	
420.6	8232.8	
420.8	6183.5	
421.01	6046.3	
421.21	8018.5	
421.41	8101.1	
421.61	6455.2	
421.82	6244.3	
422.02	7596.6	
422.22	8324.3	
422.42	6917.4	
422.63	6509.1	
422.83	7636.9	
423.03	8686.8	
423.23	6571.2	
423.44	5745.9	
423.64	7679.2	
423.84	7411.6	
424.04	6102.9	
424.25	5772.5	
424.45	8318.2	
424.65	8305.2	
424.85	5636	
425.06	6094.1	
425.26	8383	
425.46	7458	
425.66	6445.6	
425.87	6225.8	
426.07	8114.1	
426.27	8002.1	
426.47	6301.6	
426.67	5773.2	
426.88	8405.5	
427.08	7968.6	
427.28	6580.8	
427.48	5673.6	
427.69	6974.7	
427.89	7578.2	
428.09	6523.5	
428.29	5742.5	
428.5	8086.7	
428.7	7776.1	
428.9	5704.3	
429.1	6096.8	
429.3	7736.5	
429.51	8080.6	
429.71	5903.6	
429.91	6668.2	
430.11	8036.2	
430.31	8278.6	
430.52	6307.1	
430.72	6633.4	
430.92	8459.5	
431.12	8032.8	
431.32	5970.5	
431.53	6291.4	
431.73	7193.8	
431.93	8563.2	
432.13	5892	
432.33	5872.2	
432.54	7555.6	
432.74	7804.8	
432.94	5857.2	
433.14	6669.6	
433.34	8037.6	
433.55	7709.2	
433.75	6634.1	
433.95	8250.6	
434.15	7918.8	
434.35	7655.3	
434.56	6012.2	
434.76	5728.2	
434.96	7936.6	
435.16	8170.7	
435.36	5937.1	
435.56	6964.5	
435.77	7744.7	
435.97	7914	
436.17	7598	
436.37	6977.4	
436.57	7737.2	
436.78	7735.2	
436.98	8404.2	
437.18	7483.3	
437.38	8310	
437.58	7890.1	
437.78	7582.9	
437.99	6384.2	
438.19	8162.5	
438.39	8962.6	
438.59	6321.4	
438.79	5784.8	
438.99	8691.6	
439.2	7716.7	
439.4	5917.9	
439.6	5958.2	
439.8	8020.5	
440	8968.1	
440.2	6943.3	
440.4	6982.2	
440.61	8535.9	
440.81	8946.2	
441.01	6346	
441.21	7161.1	
441.41	9006.3	
441.61	8581.7	
441.81	7396.6	
442.02	8224.6	
442.22	9260.9	
442.42	8665.6	
442.62	6457.9	
442.82	6459.3	
443.02	8940.7	
443.22	8313.4	
443.43	6875.7	
443.63	6408.1	
443.83	8062.9	
444.03	8160.5	
444.23	7561.1	
444.43	7145.4	
444.63	8437.6	
444.83	9476.6	
445.04	6752.2	
445.24	7707.2	
445.44	8742.1	
445.64	8818.6	
445.84	7264.8	
446.04	7303.1	
446.24	8057.4	
446.44	8972.2	
446.65	6467.5	
446.85	6823.8	
447.05	8082.6	
447.25	8914.1	
447.45	6944.7	
447.65	6340.5	
447.85	8405.5	
448.05	7961.1	
448.25	7307.8	
448.46	7054.6	
448.66	8473.1	
448.86	8082.6	
449.06	6365.8	
449.26	7246.4	
449.46	8614.4	
449.66	7880.6	
449.86	6978.1	
450.06	6868.2	
450.26	8110.6	
450.47	8587.1	
450.67	7032.7	
450.87	7397.3	
451.07	8657.4	
451.27	8482	
451.47	6563.7	
451.67	7052.5	
451.87	8280.6	
452.07	9140.1	
452.27	6776.7	
452.47	6733	
452.67	8429.4	
452.88	8866.3	
453.08	6212.2	
453.28	7941.3	
453.48	9602.2	
453.68	8307.2	
453.88	6620.4	
454.08	6804.7	
454.28	8794.7	
454.48	8518.2	
454.68	7297.6	
454.88	7716.1	
455.08	8916.9	
455.28	8760.5	
455.48	6618.4	
455.68	7211.6	
455.89	9417.2	
456.09	9142.8	
456.29	7045.7	
456.49	7143.3	
456.69	9355.1	
456.89	8653.4	
457.09	7511.9	
457.29	7830.1	
457.49	9032.9	
457.69	9214.5	
457.89	7479.2	
458.09	6906.4	
458.29	8895	
458.49	9628.2	
458.69	7899.7	
458.89	7454.6	
459.09	9850.7	
459.29	10006	
459.49	7483.3	
459.69	8175.5	
459.9	9292.3	
460.1	8996	
460.3	7255.3	
460.5	7227.3	
460.7	9435	
460.9	9077.3	
461.1	7000	
461.3	8056.7	
461.5	10002	
461.7	9708.7	
461.9	7503.1	
462.1	7761.8	
462.3	9279.3	
462.5	9774.3	
462.7	7548.1	
462.9	7703.1	
463.1	10681	
463.3	10531	
463.5	7845.8	
463.7	8770.8	
463.9	9686.9	
464.1	9935.4	
464.3	8187.8	
464.5	8278.6	
464.7	10277	
464.9	9969.5	
465.1	9427.5	
465.3	8597.4	
465.5	10506	
465.7	10685	
465.9	8908.7	
466.1	8558.5	
466.3	10455	
466.5	10208	
466.7	9559.2	
466.9	8480	
467.1	10393	
467.3	11138	
467.5	9622	
467.7	8518.2	
467.9	11316	
468.1	12102	
468.3	9322.4	
468.5	9642.5	
468.7	10363	
468.9	10335	
469.1	8865	
469.3	9617.3	
469.5	12086	
469.7	10083	
469.9	9221.3	
470.1	8714.8	
470.3	10379	
470.5	10445	
470.7	9825.5	
470.9	8742.8	
471.1	10228	
471.3	10503	
471.5	8736.6	
471.69	10248	
471.89	10118	
472.09	9650.7	
472.29	9331.9	
472.49	9547.6	
472.69	9882.8	
472.89	10524	
473.09	8485.4	
473.29	8585.8	
473.49	9960	
473.69	10036	
473.89	9403.6	
474.09	8658.8	
474.29	11158	
474.49	10805	
474.69	9260.2	
474.89	8802.2	
475.09	10128	
475.29	10060	
475.49	8314.1	
475.69	8529.1	
475.88	11398	
476.08	10402	
476.28	8232.8	
476.48	8464.9	
476.68	10568	
476.88	10460	
477.08	8466.3	
477.28	8671.1	
477.48	9966.1	
477.68	10516	
477.88	8288.8	
478.08	8447.2	
478.28	10931	
478.48	10135	
478.67	8652	
478.87	8004.1	
479.07	10832	
479.27	10247	
479.47	8736	
479.67	8738.7	
479.87	10638	
480.07	11037	
480.27	8148.2	
480.47	9366.7	
480.67	10176	
480.87	10890	
481.06	8404.2	
481.26	9131.2	
481.46	10285	
481.66	10198	
481.86	8843.1	
482.06	9655.5	
482.26	9985.2	
482.46	10857	
482.66	8712.1	
482.86	8490.2	
483.05	10372	
483.25	9801.6	
483.45	10844	
483.65	8705.2	
483.85	10097	
484.05	10271	
484.25	9150.3	
484.45	9600.2	
484.65	10978	
484.84	11078	
485.04	8726.4	
485.24	8716.2	
485.44	11308	
485.64	9846.6	
485.84	8269	
486.04	9395.4	
486.24	10273	
486.44	10618	
486.63	8238.3	
486.83	9082.1	
487.03	10316	
487.23	10413	
487.43	8324.3	
487.63	10441	
487.83	10514	
488.02	11424	
488.22	9282.8	
488.42	9873.3	
488.62	11284	
488.82	10412	
489.02	8949.6	
489.22	9053.4	
489.41	11139	
489.61	10836	
489.81	8879.3	
490.01	8810.4	
490.21	11263	
490.41	11759	
490.61	8925.7	
490.8	9031.5	
491	10705	
491.2	10105	
491.4	9379.7	
491.6	8689.5	
491.8	10572	
491.99	10644	
492.19	8479.3	
492.39	8692.9	
492.59	11096	
492.79	11194	
492.99	9690.3	
493.18	8877.3	
493.38	11335	
493.58	12094	
493.78	9546.9	
493.98	9183.1	
494.18	11236	
494.37	10849	
494.57	9954.5	
494.77	9796.1	
494.97	11560	
495.17	11918	
495.37	9540.1	
495.56	9897.2	
495.76	12019	
495.96	11710	
496.16	10779	
496.36	9830.2	
496.55	12017	
496.75	11504	
496.95	10222	
497.15	10021	
497.35	11920	
497.54	11959	
497.74	9931.3	
497.94	11335	
498.14	12548	
498.34	12378	
498.53	9723.1	
498.73	10469	
498.93	11518	
499.13	12103	
499.33	10238	
499.52	10613	
499.72	12144	
499.92	12301	
500.12	10129	
500.32	10342	
500.51	12189	
500.71	12176	
500.91	10963	
501.11	10561	
501.31	12241	
501.5	12510	
501.7	11097	
501.9	10333	
502.1	12181	
502.29	12341	
502.49	10895	
502.69	11119	
502.89	12205	
503.09	12194	
503.28	9813.9	
503.48	9908.1	
503.68	11522	
503.88	11455	
504.07	10680	
504.27	10135	
504.47	11804	
504.67	11811	
504.86	10652	
505.06	10334	
505.26	11514	
505.46	12931	
505.65	10030	
505.85	10309	
506.05	11271	
506.25	11699	
506.44	9454.1	
506.64	10221	
506.84	11248	
507.04	11936	
507.23	9669.1	
507.43	10111	
507.63	12807	
507.83	11347	
508.02	10056	
508.22	9671.9	
508.42	13028	
508.62	11112	
508.81	9878.7	
509.01	10314	
509.21	10959	
509.4	11300	
509.6	10088	
509.8	9639.1	
510	11295	
510.19	12509	
510.39	9541.5	
510.59	9680.7	
510.79	11234	
510.98	12301	
511.18	9810.5	
511.38	9815.9	
511.57	11828	
511.77	11714	
511.97	10359	
512.17	9515.5	
512.36	11740	
512.56	11546	
512.76	9562.6	
512.95	9302.6	
513.15	11915	
513.35	10761	
513.55	10372	
513.74	9637.7	
513.94	11912	
514.14	11284	
514.33	10444	
514.53	10207	
514.73	11327	
514.92	11425	
515.12	9734.7	
515.32	9633.6	
515.51	11647	
515.71	12044	
515.91	11327	
516.11	9794.8	
516.3	13163	
516.5	11362	
516.7	10275	
516.89	10759	
517.09	11494	
517.29	11317	
517.48	10593	
517.68	10039	
517.88	11151	
518.07	11690	
518.27	10525	
518.47	9626.1	
518.66	12227	
518.86	11147	
519.06	9479.4	
519.25	9936.7	
519.45	11397	
519.65	12776	
519.84	10445	
520.04	11060	
520.24	12979	
520.43	12030	
520.63	10204	
520.83	9933.3	
521.02	11221	
521.22	11728	
521.42	10137	
521.61	10918	
521.81	11437	
522.01	11566	
522.2	10271	
522.4	10027	
522.6	11994	
522.79	10901	
522.99	10251	
523.18	9703.3	
523.38	11966	
523.58	12013	
523.77	11471	
523.97	9960.6	
524.17	13591	
524.36	13048	
524.56	11193	
524.76	10943	
524.95	12210	
525.15	11886	
525.34	10765	
525.54	10764	
525.74	12676	
525.93	11832	
526.13	11918	
526.33	10773	
526.52	13038	
526.72	12485	
526.91	11955	
527.11	11364	
527.31	13046	
527.5	13395	
527.7	11263	
527.89	10527	
528.09	12378	
528.29	12727	
528.48	11777	
528.68	11357	
528.87	13127	
529.07	12997	
529.27	11284	
529.46	10787	
529.66	12727	
529.85	13130	
530.05	10750	
530.25	11397	
530.44	14040	
530.64	12614	
530.83	11075	
531.03	11460	
531.23	13069	
531.42	13009	
531.62	12082	
531.81	11425	
532.01	13424	
532.21	13756	
532.4	11402	
532.6	11801	
532.79	14146	
532.99	13705	
533.18	11950	
533.38	12708	
533.58	13372	
533.77	13869	
533.97	11893	
534.16	12500	
534.36	14160	
534.55	13423	
534.75	12702	
534.95	12005	
535.14	14284	
535.34	13415	
535.53	11641	
535.73	13269	
535.92	14706	
536.12	13411	
536.31	11630	
536.51	12791	
536.71	13693	
536.9	13374	
537.1	11718	
537.29	11950	
537.49	14079	
537.68	13245	
537.88	12357	
538.07	11583	
538.27	13502	
538.46	14422	
538.66	11551	
538.86	12009	
539.05	13622	
539.25	14059	
539.44	12253	
539.64	11894	
539.83	13436	
540.03	14390	
540.22	11757	
540.42	11698	
540.61	13536	
540.81	13685	
541	12040	
541.2	12702	
541.39	13105	
541.59	13521	
541.78	12471	
541.98	11574	
542.18	12752	
542.37	12818	
542.57	11929	
542.76	12325	
542.96	12832	
543.15	13324	
543.35	11792	
543.54	11181	
543.74	13465	
543.93	13089	
544.13	11496	
544.32	12583	
544.52	13231	
544.71	12667	
544.91	10814	
545.1	11866	
545.3	12755	
545.49	13175	
545.69	10817	
545.88	11288	
546.08	14044	
546.27	13624	
546.47	11675	
546.66	11056	
546.86	13457	
547.05	13867	
547.24	11189	
547.44	11256	
547.63	12545	
547.83	13455	
548.02	11578	
548.22	11658	
548.41	12284	
548.61	13439	
548.8	10978	
549	11009	
549.19	12769	
549.39	13155	
549.58	10716	
549.78	11248	
549.97	13091	
550.17	12693	
550.36	11870	
550.55	12777	
550.75	12834	
550.94	13424	
551.14	10817	
551.33	11088	
551.53	12161	
551.72	12968	
551.92	11259	
552.11	10957	
552.31	12966	
552.5	13012	
552.69	12456	
552.89	10685	
553.08	12932	
553.28	12557	
553.47	11092	
553.67	11986	
553.86	13460	
554.06	11916	
554.25	10232	
554.44	10782	
554.64	14057	
554.83	13612	
555.03	10726	
555.22	11161	
555.42	13065	
555.61	12808	
555.8	10945	
556	10983	
556.19	11992	
556.39	12989	
556.58	10867	
556.78	10848	
556.97	12626	
557.16	12417	
557.36	11967	
557.55	10634	
557.75	11689	
557.94	13403	
558.13	10646	
558.33	10464	
558.52	13119	
558.72	12078	
558.91	10467	
559.1	10679	
559.3	11861	
559.49	11538	
559.69	10099	
559.88	11062	
560.07	12571	
560.27	12866	
560.46	11109	
560.66	11279	
560.85	12363	
561.04	11621	
561.24	10445	
561.43	10555	
561.63	11862	
561.82	12071	
562.01	11606	
562.21	10806	
562.4	12320	
562.59	13218	
562.79	10698	
562.98	10491	
563.18	12359	
563.37	13657	
563.56	11183	
563.76	10515	
563.95	12005	
564.14	11929	
564.34	10881	
564.53	10578	
564.73	12428	
564.92	12819	
565.11	10968	
565.31	10376	
565.5	12873	
565.69	12078	
565.89	10649	
566.08	10844	
566.27	12861	
566.47	13190	
566.66	11471	
566.85	10189	
567.05	12463	
567.24	11994	
567.44	10667	
567.63	11884	
567.82	12828	
568.02	12465	
568.21	10589	
568.4	10929	
568.6	12446	
568.79	12292	
568.98	10431	
569.18	10553	
569.37	12543	
569.56	14254	
569.76	10995	
569.95	11821	
570.14	12785	
570.34	12762	
570.53	10540	
570.72	10513	
570.91	13077	
571.11	12326	
571.3	10895	
571.49	11553	
571.69	12498	
571.88	12038	
572.07	11376	
572.27	11316	
572.46	11977	
572.65	12907	
572.85	10815	
573.04	11055	
573.23	13206	
573.43	12560	
573.62	10570	
573.81	11162	
574	12665	
574.2	12555	
574.39	10961	
574.58	11053	
574.78	13536	
574.97	12790	
575.16	11495	
575.36	11574	
575.55	13196	
575.74	13210	
575.93	10676	
576.13	11609	
576.32	12635	
576.51	13239	
576.71	11047	
576.9	12185	
577.09	13236	
577.28	12993	
577.48	11437	
577.67	10699	
577.86	12637	
578.05	12955	
578.25	11198	
578.44	11353	
578.63	12805	
578.83	13909	
579.02	10684	
579.21	12172	
579.4	12992	
579.6	12848	
579.79	11396	
579.98	13141	
580.17	13325	
580.37	13396	
580.56	10951	
580.75	11681	
580.94	13757	
581.14	13665	
581.33	12039	
581.52	11171	
581.71	13289	
581.91	13775	
582.1	10869	
582.29	11386	
582.48	13054	
582.68	13005	
582.87	11821	
583.06	11533	
583.25	13294	
583.45	13141	
583.64	12144	
583.83	12618	
584.02	13089	
584.21	13368	
584.41	12048	
584.6	11611	
584.79	13121	
584.98	13682	
585.18	11150	
585.37	11101	
585.56	12677	
585.75	13391	
585.94	11327	
586.14	11896	
586.33	13860	
586.52	12922	
586.71	11600	
586.91	11326	
587.1	12297	
587.29	13291	
587.48	11088	
587.67	11115	
587.87	13091	
588.06	12940	
588.25	12028	
588.44	11486	
588.63	12504	
588.83	13127	
589.02	10823	
589.21	10649	
589.4	12162	
589.59	12104	
589.78	9802.9	
589.98	9867.1	
590.17	11324	
590.36	11708	
590.55	9115.5	
590.74	9697.1	
590.94	12626	
591.13	11437	
591.32	9657.5	
591.51	9251.4	
591.7	11938	
591.89	11569	
592.09	9461.6	
592.28	9924.5	
592.47	10881	
592.66	12569	
592.85	9452.7	
593.05	9658.9	
593.24	11501	
593.43	12279	
593.62	9944.3	
593.81	10255	
594	11611	
594.19	11826	
594.39	9768.8	
594.58	9684.8	
594.77	11829	
594.96	12308	
595.15	9544.2	
595.34	10129	
595.54	11731	
595.73	10910	
595.92	8997.4	
596.11	9882.8	
596.3	12114	
596.49	11084	
596.68	9831.6	
596.88	10206	
597.07	11958	
597.26	10988	
597.45	9396.8	
597.64	10601	
597.83	11195	
598.02	11707	
598.22	9465	
598.41	10093	
598.6	11626	
598.79	11069	
598.98	9561.3	
599.17	10370	
599.36	11554	
599.55	12538	
599.74	11437	
599.94	11125	
600.13	12153	
600.32	11067	
600.51	9359.2	
600.7	9597.5	
600.89	12627	
601.08	12689	
601.27	9347.6	
601.47	10265	
601.66	11946	
601.85	12612	
602.04	9898.5	
602.23	10083	
602.42	11267	
602.61	11753	
602.8	9944.9	
602.99	9635	
603.18	11435	
603.37	11796	
603.57	10176	
603.76	10684	
603.95	12392	
604.14	11947	
604.33	9826.8	
604.52	9943.6	
604.71	11751	
604.9	11362	
605.09	10788	
605.28	10470	
605.47	12173	
605.66	11864	
605.86	10193	
606.05	9843.2	
606.24	12190	
606.43	10956	
606.62	10096	
606.81	10685	
607	12036	
607.19	11452	
607.38	9463.7	
607.57	9741.5	
607.76	11241	
607.95	10802	
608.14	10092	
608.33	10668	
608.52	11284	
608.72	12095	
608.91	9338.1	
609.1	9344.2	
609.29	11290	
609.48	10886	
609.67	10060	
609.86	9367.4	
610.05	10966	
610.24	11227	
610.43	9147.6	
610.62	8908	
610.81	12147	
611	11973	
611.19	9307.3	
611.38	10004	
611.57	11472	
611.76	12547	
611.95	9071.8	
612.14	9048.6	
612.33	11302	
612.52	10779	
612.71	9660.3	
612.9	8875.9	
613.09	10560	
613.28	12591	
613.47	9445.9	
613.66	10114	
613.85	11389	
614.04	10992	
614.24	9400.9	
614.43	8733.2	
614.62	11512	
614.81	11413	
615	9888.3	
615.19	9906.7	
615.38	10897	
615.57	11243	
615.76	9812.5	
615.95	10529	
616.14	11576	
616.33	11226	
616.52	10094	
616.71	10210	
616.9	11381	
617.09	11374	
617.28	9527.2	
617.47	10565	
617.66	10753	
617.85	10811	
618.04	10421	
618.22	9787.2	
618.41	11183	
618.6	12069	
618.79	9894.4	
618.98	9663	
619.17	12241	
619.36	10735	
619.55	9886.2	
619.74	9783.8	
619.93	11741	
620.12	11205	
620.31	10310	
620.5	10621	
620.69	12207	
620.88	12633	
621.07	11095	
621.26	10362	
621.45	11886	
621.64	11987	
621.83	10426	
622.02	9749	
622.21	12001	
622.4	11791	
622.59	10915	
622.78	10832	
622.97	11440	
623.16	12421	
623.35	10464	
623.54	9745.6	
623.72	11615	
623.91	11662	
624.1	10761	
624.29	9563.3	
624.48	12738	
624.67	11994	
624.86	10606	
625.05	9770.2	
625.24	12762	
625.43	11372	
625.62	12053	
625.81	10060	
626	12158	
626.19	11668	
626.38	10654	
626.56	10127	
626.75	11516	
626.94	12229	
627.13	10555	
627.32	9510.1	
627.51	12106	
627.7	12938	
627.89	9493.7	
628.08	10540	
628.27	11187	
628.46	11448	
628.65	9786.6	
628.83	9512.8	
629.02	11972	
629.21	11349	
629.4	10133	
629.59	10390	
629.78	11337	
629.97	12138	
630.16	10480	
630.35	9896.5	
630.54	12639	
630.72	12320	
630.91	10021	
631.1	10441	
631.29	11804	
631.48	11959	
631.67	10490	
631.86	9915.6	
632.05	11503	
632.24	11563	
632.42	9803.6	
632.61	10217	
632.8	11555	
632.99	11251	
633.18	10299	
633.37	10541	
633.56	11774	
633.75	11693	
633.93	10323	
634.12	9981.8	
634.31	12535	
634.5	12131	
634.69	10108	
634.88	10492	
635.07	11654	
635.25	12187	
635.44	10819	
635.63	11017	
635.82	11456	
636.01	10936	
636.2	10608	
636.39	10377	
636.57	12428	
636.76	12099	
636.95	9862.3	
637.14	11045	
637.33	11796	
637.52	12641	
637.7	9570.8	
637.89	10543	
638.08	11508	
638.27	12654	
638.46	10553	
638.65	10841	
638.83	12612	
639.02	11198	
639.21	10368	
639.4	10750	
639.59	11636	
639.78	11190	
639.96	9587.2	
640.15	9652.8	
640.34	11411	
640.53	11583	
640.72	9398.1	
640.91	9691	
641.09	10879	
641.28	12205	
641.47	9703.3	
641.66	10376	
641.85	11400	
642.03	11637	
642.22	10097	
642.41	9577.7	
642.6	10944	
642.79	10438	
642.97	9387.2	
643.16	10066	
643.35	10916	
643.54	10771	
643.73	9316.2	
643.91	10008	
644.1	10358	
644.29	11128	
644.48	9395.4	
644.67	9312.8	
644.85	10610	
645.04	10793	
645.23	8806.3	
645.42	9025.4	
645.6	10253	
645.79	11216	
645.98	8894.3	
646.17	8076.5	
646.36	9833	
646.54	10333	
646.73	9277.3	
646.92	8312	
647.11	9961.3	
647.29	10935	
647.48	8436.9	
647.67	8138.6	
647.86	11032	
648.05	11053	
648.23	8715.5	
648.42	9802.9	
648.61	10505	
648.8	10264	
648.98	8330.5	
649.17	8673.8	
649.36	9987.9	
649.55	9671.2	
649.73	8570.7	
649.92	9152.4	
650.11	9993.4	
650.3	10175	
650.48	8480.6	
650.67	8294.3	
650.86	10315	
651.05	9431.6	
651.23	8421.2	
651.42	8369.4	
651.61	9869.8	
651.79	9794.1	
651.98	8615.1	
652.17	8319.5	
652.36	10103	
652.54	9468.4	
652.73	8338	
652.92	8164.6	
653.11	10150	
653.29	10280	
653.48	7619.1	
653.67	8488.1	
653.85	9967.5	
654.04	10761	
654.23	8561.2	
654.42	8155.7	
654.6	9360.6	
654.79	9932	
654.98	7501.7	
655.16	7915.4	
655.35	8915.5	
655.54	8768	
655.73	7503.1	
655.91	7377.5	
656.1	9748.3	
656.29	8759.8	
656.47	7244.3	
656.66	8792.6	
656.85	9275.3	
657.03	9295.7	
657.22	7787.7	
657.41	7932.5	
657.59	9334.6	
657.78	9226.1	
657.97	7635.5	
658.16	8214.4	
658.34	9972.9	
658.53	10335	
658.72	8937.3	
658.9	9472.5	
659.09	9476	
659.28	9535.3	
659.46	8086.7	
659.65	8026.7	
659.84	9323.7	
660.02	9852.8	
660.21	7858.7	
660.4	7830.7	
660.58	10150	
660.77	9592	
660.96	8464.9	
661.14	7572.7	
661.33	10669	
661.52	10463	
661.7	7515.4	
661.89	10575	
662.08	9212.4	
662.26	8839	
662.45	7701	
662.64	7847.1	
662.82	9885.5	
663.01	9098.4	
663.2	7817.8	
663.38	8497	
663.57	9757.9	
663.75	9687.6	
663.94	8125	
664.13	9209	
664.31	9206.3	
664.5	9862.3	
664.69	8362.5	
664.87	8795.3	
665.06	9054.1	
665.25	9628.9	
665.43	8969.4	
665.62	9024.7	
665.8	9942.2	
665.99	9279.3	
666.18	8110.6	
666.36	8161.8	
666.55	9798.8	
666.74	9756.5	
666.92	7746.1	
667.11	9138	
667.29	9330.5	
667.48	9856.2	
667.67	8779.6	
667.85	7940	
668.04	9288.9	
668.22	9296.4	
668.41	8039.6	
668.6	8294.3	
668.78	9101.2	
668.97	9342.2	
669.15	8385.7	
669.34	7462.1	
669.53	9153.7	
669.71	9416.6	
669.9	7638.2	
670.08	8232.8	
670.27	9073.9	
670.46	9626.8	
670.64	8410.3	
670.83	8685.4	
671.01	9019.3	
671.2	9437	
671.38	7700.4	
671.57	7602.7	
671.76	10008	
671.94	10607	
672.13	7544	
672.31	8443.1	
672.5	9890.3	
672.69	9116.2	
672.87	7795.9	
673.06	7938.6	
673.24	9646.6	
673.43	9148.3	
673.61	8211	
673.8	8002.1	
673.98	9656.9	
674.17	9805	
674.36	8435.6	
674.54	8277.2	
674.73	9427.5	
674.91	9732.6	
675.1	8146.8	
675.28	7676.5	
675.47	9288.2	
675.65	9769.5	
675.84	8021.2	
676.03	8239	
676.21	9151.7	
676.4	8749.6	
676.58	8753.7	
676.77	8398.7	
676.95	10344	
677.14	9093	
677.32	7715.4	
677.51	7608.2	
677.69	9725.8	
677.88	8833.6	
678.06	7630	
678.25	7654.6	
678.44	9294.4	
678.62	9078	
678.81	7444.4	
678.99	8269.7	
679.18	10023	
679.36	9684.2	
679.55	7922.2	
679.73	8484.1	
679.92	9524.4	
680.1	9169.4	
680.29	9004.2	
680.47	7896.3	
680.66	9065	
680.84	9840.5	
681.03	7288	
681.21	8208.3	
681.4	9126.4	
681.58	8977.6	
681.77	7684	
681.95	7621.9	
682.14	9777.7	
682.32	10048	
682.51	8508.6	
682.69	7309.9	
682.88	8998.1	
683.06	9469.8	
683.25	8163.9	
683.43	8521.6	
683.62	9203.6	
683.8	9606.3	
683.99	8608.3	
684.17	8103.1	
684.36	10243	
684.54	9084.8	
684.73	7095.5	
684.91	7231.4	
685.1	9044.5	
685.28	8449.9	
685.46	7516	
685.65	7532.4	
685.83	9037.7	
686.02	8640.4	
686.2	7103.7	
686.39	7285.3	
686.57	8298.4	
686.76	9701.2	
686.94	7195.2	
687.13	7350.8	
687.31	9078	
687.5	8657.4	
687.68	6888.7	
687.86	7970.7	
688.05	10316	
688.23	8320.2	
688.42	7967.3	
688.6	7340.6	
688.79	8688.2	
688.97	8733.2	
689.16	7717.4	
689.34	6795.2	
689.52	9296.4	
689.71	9583.8	
689.89	8013	
690.08	7361.1	
690.26	9051.3	
690.45	8819.9	
690.63	8006.2	
690.81	7582.3	
691	8731.2	
691.18	8621.9	
691.37	7600.7	
691.55	9349	
691.74	8531.2	
691.92	10266	
692.1	7560.4	
692.29	7028.6	
692.47	8790.6	
692.66	8163.9	
692.84	7206.1	
693.02	7690.8	
693.21	8361.2	
693.39	8802.2	
693.58	7905.8	
693.76	7421.8	
693.94	9881.4	
694.13	9700.5	
694.31	7518.8	
694.5	8428.8	
694.68	8788.5	
694.86	9146.2	
695.05	7875.8	
695.23	8243.8	
695.42	9581.1	
695.6	11452	
695.78	8512.7	
695.97	7712	
696.15	9622.7	
696.34	8973.5	
696.52	7383.6	
696.7	8129.1	
696.89	9211.8	
697.07	8706.6	
697.25	7980.3	
697.44	9280.7	
697.62	9108	
697.81	9439.1	
697.99	7719.5	
698.17	8065.6	
698.36	8578.9	
698.54	9135.3	
698.72	7977.5	
698.91	7168.6	
699.09	8868.4	
699.28	8660.2	
699.46	7724.9	
699.64	7572.7	
699.83	8682	
700.01	9623.4	
700.19	8364.6	
700.38	6993.8	
700.56	9752.4	
700.74	8793.3	
700.93	7368.6	
701.11	8125	
701.29	9404.3	
701.48	10350	
701.66	7686	
701.84	7691.5	
702.03	9039.7	
702.21	9712.2	
702.39	7286.7	
702.58	7800	
702.76	9390.6	
702.94	9469.1	
703.13	7322.9	
703.31	9451.4	
703.49	8766	
703.68	9667.8	
703.86	7324.9	
704.04	8402.8	
704.23	9323.7	
704.41	9596.1	
704.59	7657.4	
704.78	8588.5	
704.96	10208	
705.14	9579.7	
705.33	7413.6	
705.51	8122.2	
705.69	9015.2	
705.87	9843.9	
706.06	8443.1	
706.24	7443.7	
706.42	9460.9	
706.61	9718.3	
706.79	8415.8	
706.97	7425.9	
707.16	8920.3	
707.34	9339.4	
707.52	8278.6	
707.7	7671	
707.89	9232.2	
708.07	8753.7	
708.25	8440.4	
708.44	8622.6	
708.62	8942.1	
708.8	9992	
708.98	8629.5	
709.17	7741.3	
709.35	9401.5	
709.53	9403.6	
709.72	7472.4	
709.9	7794.6	
710.08	9591.3	
710.26	9650.7	
710.45	8843.1	
710.63	7722.9	
710.81	9210.4	
710.99	9197.4	
711.18	8281.3	
711.36	7818.5	
711.54	9130.5	
711.72	9750.4	
711.91	7820.5	
712.09	7292.8	
712.27	9131.2	
712.45	9608.4	
712.64	7862.2	
712.82	7062.1	
713	8404.2	
713.18	8585.8	
713.37	7074.4	
713.55	8071	
713.73	9237.7	
713.91	7947.5	
714.1	7150.1	
714.28	6582.2	
714.46	8662.2	
714.64	7799.3	
714.83	5915.2	
715.01	6452.5	
715.19	7677.8	
715.37	7096.9	
715.55	6135	
715.74	6346	
715.92	8388.5	
716.1	6735.8	
716.28	7233.4	
716.47	6378.1	
716.65	7243	
716.83	7303.7	
717.01	6291.4	
717.19	6219.7	
717.38	9129.2	
717.56	6984.9	
717.74	6521.4	
717.92	5840.8	
718.1	8091.5	
718.29	7464.8	
718.47	5597.8	
718.65	6264.1	
718.83	8245.8	
719.01	8310.7	
719.2	5810.8	
719.38	6779.5	
719.56	8088.8	
719.74	9426.1	
719.92	6371.2	
720.11	7215.7	
720.29	8057.4	
720.47	7274.4	
720.65	5823.1	
720.83	6485.9	
721.02	7421.2	
721.2	7258.7	
721.38	6447	
721.56	5764.3	
721.74	6701	
721.92	6764.4	
722.11	6754.9	
722.29	6597.2	
722.47	7873.8	
722.65	7249.1	
722.83	5820.3	
723.01	6454.5	
723.2	7329.7	
723.38	7550.9	
723.56	5283.1	
723.74	6258.6	
723.92	6886.6	
724.1	7886	
724.29	5713.2	
724.47	6711.2	
724.65	6905.1	
724.83	6854.6	
725.01	5551.4	
725.19	6382.2	
725.37	6893.5	
725.56	6935.8	
725.74	5486.5	
725.92	5689.9	
726.1	6834.1	
726.28	7133.8	
726.46	5980.8	
726.64	5761.6	
726.83	7108.5	
727.01	7260.7	
727.19	5534.3	
727.37	6175.3	
727.55	7235.5	
727.73	7681.2	
727.91	5378.6	
728.09	5302.2	
728.28	7600	
728.46	8115.4	
728.64	6412.2	
728.82	6303.6	
729	8709.3	
729.18	8054	
729.36	5670.8	
729.54	7648.5	
729.72	8955.1	
729.91	7551.5	
730.09	7429.3	
730.27	6448.4	
730.45	7533.8	
730.63	8101.1	
730.81	6849.8	
730.99	6075	
731.17	8652	
731.35	7320.8	
731.53	6540.5	
731.71	6281.1	
731.9	8228.7	
732.08	8382.3	
732.26	6408.1	
732.44	6120.7	
732.62	8385.7	
732.8	7971.4	
732.98	6761	
733.16	5968.5	
733.34	7963.2	
733.52	6891.4	
733.7	6339.8	
733.88	6584.2	
734.07	7742	
734.25	7621.9	
734.43	5928.2	
734.61	7210.9	
734.79	8979	
734.97	7561.8	
735.15	6025.1	
735.33	6273.6	
735.51	7894.2	
735.69	7598	
735.87	7228	
736.05	6415.6	
736.23	7531.7	
736.41	7479.9	
736.59	6357.6	
736.77	6451.1	
736.95	7987.8	
737.13	7593.9	
737.32	6020.3	
737.5	6184.9	
737.68	8627.4	
737.86	7467.6	
738.04	5806	
738.22	7389.8	
738.4	7308.5	
738.58	7565.2	
738.76	6335	
738.94	5470.1	
739.12	7359.7	
739.3	7219.1	
739.48	6915.3	
739.66	6662.7	
739.84	7565.9	
740.02	7591.8	
740.2	5582.1	
740.38	5856.5	
740.56	7886	
740.74	6864.1	
740.92	6423.1	
741.1	6385.6	
741.28	7350.2	
741.46	7336.5	
741.64	5937.1	
741.82	6411.5	
742	7415	
742.18	7331.7	
742.36	6130.9	
742.54	5772.5	
742.72	7886	
742.9	6736.5	
743.08	6451.8	
743.26	5412.8	
743.44	7926.3	
743.62	7803.4	
743.8	6612.2	
743.98	5713.8	
744.16	7549.5	
744.34	7248.4	
744.52	6439.5	
744.7	6431.3	
744.88	7684	
745.06	7189.1	
745.24	6362.4	
745.42	6582.9	
745.6	7636.2	
745.78	7457.3	
745.96	5392.3	
746.14	5598.5	
746.32	8249.9	
746.5	7590.5	
746.68	6040.8	
746.86	5561.6	
747.03	7984.3	
747.21	6472.3	
747.39	6077	
747.57	5547.9	
747.75	7192.5	
747.93	7583.6	
748.11	5452.4	
748.29	5500.8	
748.47	8619.9	
748.65	6976.7	
748.83	6197.8	
749.01	5957.5	
749.19	7473.7	
749.37	6707.8	
749.55	5755.5	
749.73	5831.9	
749.91	7124.9	
750.09	6850.5	
750.26	5884.5	
750.44	5406	
750.62	7131	
750.8	6992.4	
750.98	5223	
751.16	5552	
751.34	7228.6	
751.52	6575.3	
751.7	6207.4	
751.88	5203.9	
752.06	7426.6	
752.24	7286	
752.42	5115.1	
752.59	5486.5	
752.77	6987.7	
752.95	8062.2	
753.13	6075	
753.31	5489.9	
753.49	6663.4	
753.67	7008.1	
753.85	5757.5	
754.03	5354.8	
754.21	7258	
754.38	7585.7	
754.56	5421	
754.74	4590.2	
754.92	6455.2	
755.1	7056.6	
755.28	4459.8	
755.46	4532.2	
755.64	7522.9	
755.82	7502.4	
755.99	4481	
756.17	4416.1	
756.35	5074.9	
756.53	6381.5	
756.71	3267.2	
756.89	4165.6	
757.07	5977.3	
757.25	5174.5	
757.42	4675.5	
757.6	5455.8	
757.78	6213.5	
757.96	5373.9	
758.14	4522.6	
758.32	4086.4	
758.5	4915.1	
758.67	5680.4	
758.85	4324.6	
759.03	4394.9	
759.21	5782.8	
759.39	5337.7	
759.57	3919.1	
759.75	4921.3	
759.92	6423.1	
760.1	5859.9	
760.28	5290.6	
760.46	5565.7	
760.64	5698.1	
760.82	5499.5	
760.99	5201.8	
761.17	4593.6	
761.35	6424.5	
761.53	5524.1	
761.71	4669.4	
761.89	5326.8	
762.06	6328.9	
762.24	5890	
762.42	4855.7	
762.6	4618.9	
762.78	5920.7	
762.96	6559	
763.13	5216.9	
763.31	4901.5	
763.49	6688	
763.67	5939.8	
763.85	5635.3	
764.02	6040.8	
764.2	6944	
764.38	6227.9	
764.56	4786.1	
764.74	5498.8	
764.91	7054.6	
765.09	6006.7	
765.27	4527.4	
765.45	4334.9	
765.63	7100.3	
765.8	6835.4	
765.98	4093.9	
766.16	4378.6	
766.34	5638.1	
766.52	5513.8	
766.69	5143.8	
766.87	4233.8	
767.05	5962.3	
767.23	6608.1	
767.41	4438.6	
767.58	4637.3	
767.76	6434	
767.94	6511.2	
768.12	4522.6	
768.29	5113.1	
768.47	5947.3	
768.65	6649.1	
768.83	4132.1	
769	5174.5	
769.18	5625.1	
769.36	6165.8	
769.54	5140.4	
769.72	4141.7	
769.89	6434.7	
770.07	6469.5	
770.25	4365.6	
770.43	5523.4	
770.6	7044.3	
770.78	7393.8	
770.96	4523.3	
771.14	5072.8	
771.31	6275	
771.49	5683.8	
771.67	3807.2	
771.85	4020.2	
772.02	5028.4	
772.2	5683.1	
772.38	4650.9	
772.55	4266.6	
772.73	5913.2	
772.91	5672.9	
773.09	4528.1	
773.26	4579.3	
773.44	5853.1	
773.62	5553.4	
773.8	4074.8	
773.97	3815.4	
774.15	5873.6	
774.33	5533.6	
774.5	3941	
774.68	4311	
774.86	6029.2	
775.04	5563	
775.21	4041.3	
775.39	4003.8	
775.57	5744.6	
775.74	6059.9	
775.92	3828.3	
776.1	3799	
776.27	5727.5	
776.45	6780.1	
776.63	3981.9	
776.81	3546.4	
776.98	5416.2	
777.16	6355.5	
777.34	4057	
777.51	4354	
777.69	5367	
777.87	5233.2	
778.04	4125.3	
778.22	4620.9	
778.4	5137.7	
778.57	5734.3	
778.75	3413.3	
778.93	3721.2	
779.1	4999.8	
779.28	4834.6	
779.46	3444	
779.64	3868.6	
779.81	5830.6	
779.99	6640.9	
780.17	4549.9	
780.34	4643.4	
780.52	5330.9	
780.69	5508.4	
780.87	4112.3	
781.05	3743.7	
781.22	5422.3	
781.4	5492	
781.58	3810.6	
781.75	3092.4	
781.93	5436.7	
782.11	4930.1	
782.28	4656.4	
782.46	3835.2	
782.64	4758.8	
782.81	5535.7	
782.99	3926.6	
783.17	3877.5	
783.34	5455.1	
783.52	4833.9	
783.69	4027.7	
783.87	4730.8	
784.05	4939	
784.22	4853	
784.4	4706.2	
784.58	4151.9	
784.75	5746.6	
784.93	4912.4	
785.1	3794.9	
785.28	4328	
785.46	5449	
785.63	4833.2	
785.81	3738.2	
785.99	3588	
786.16	4977.2	
786.34	5369.8	
786.51	3619.4	
786.69	4035.9	
786.87	4631.8	
787.04	5064.6	
787.22	3572.3	
787.39	4341	
787.57	4816.1	
787.75	5784.1	
787.92	4498.7	
788.1	4391.5	
788.27	4835.9	
788.45	4684.4	
788.63	4194.9	
788.8	3052.2	
788.98	5347.2	
789.15	4470.7	
789.33	3203	
789.5	3738.2	
789.68	5623.7	
789.86	5751.4	
790.03	4117.1	
790.21	3602.4	
790.38	5644.2	
790.56	4933.6	
790.73	3484.3	
790.91	3573	
791.09	4839.4	
791.26	5451	
791.44	3766.2	
791.61	3246	
791.79	4779.3	
791.96	4875.5	
792.14	3327.3	
792.32	3033.7	
792.49	4784.1	
792.67	4948.6	
792.84	3396.2	
793.02	3221.5	
793.19	5199.1	
793.37	5864	
793.54	3031.7	
793.72	3302	
793.89	5891.3	
794.07	4762.2	
794.25	3685.7	
794.42	3035.1	
794.6	5735.7	
794.77	5325.4	
794.95	4048.2	
795.12	3542.3	
795.3	4848.2	
795.47	5282.4	
795.65	3862.5	
795.82	3746.4	
796	4601.1	
796.17	6193.1	
796.35	3633.1	
796.52	4237.9	
796.7	5224.4	
796.87	5369.8	
797.05	3594.2	
797.22	4380.6	
797.4	5366.4	
797.57	6129.6	
797.75	3802.4	
797.92	3556.6	
798.1	5572.5	
798.27	4711	
798.45	3122.5	
798.62	3305.4	
798.8	5016.8	
798.97	5518.6	
799.15	3962.1	
799.32	3778.5	
799.5	4404.5	
799.67	5104.2	
799.85	4042	
800.02	2965.5	
800.2	4737.6	
800.37	4995.7	
800.55	4172.4	
800.72	3534.8	
800.9	5459.2	
801.07	5852.4	
801.25	4668.7	
801.42	3856.3	
801.6	5459.9	
801.77	5163.6	
801.95	3558.7	
802.12	3468.6	
802.29	5276.3	
802.47	5157.5	
802.64	3809.2	
802.82	2951.1	
802.99	4751.3	
803.17	5566.4	
803.34	3730	
803.52	3385.3	
803.69	6144.6	
803.87	4484.4	
804.04	3726.6	
804.21	3848.1	
804.39	5669.5	
804.56	4958.1	
804.74	3246	
804.91	3799	
805.09	4771.1	
805.26	4802.5	
805.44	3263.8	
805.61	3565.5	
805.78	5354.1	
805.96	5316.5	
806.13	3785.3	
806.31	4121.9	
806.48	4344.4	
806.66	4790.2	
806.83	3839.3	
807	3720.5	
807.18	4735.6	
807.35	5090.6	
807.53	3739.6	
807.7	3073.3	
807.87	5754.1	
808.05	4756.1	
808.22	4109.6	
808.4	3024.8	
808.57	4663.2	
808.74	4388.8	
808.92	3437.2	
809.09	4252.9	
809.27	4661.2	
809.44	5165.7	
809.61	3022.1	
809.79	3336.8	
809.96	5763	
810.14	5348.6	
810.31	2979.1	
810.48	3650.8	
810.66	4838	
810.83	5425.1	
811.01	3469.3	
811.18	3816	
811.35	5373.2	
811.53	4276.8	
811.7	4116.4	
811.87	3806.5	
812.05	4760.2	
812.22	4717.8	
812.39	3332.7	
812.57	3240.6	
812.74	4774.5	
812.92	6258.6	
813.09	3644	
813.26	3915	
813.44	5958.2	
813.61	4676.2	
813.78	3058.3	
813.96	4014	
814.13	4767.7	
814.3	4474.8	
814.48	4287.1	
814.65	3637.9	
814.82	5988.3	
815	4544.4	
815.17	3700.7	
815.34	4472.1	
815.52	4662.5	
815.69	4669.4	
815.87	3661.8	
816.04	3617.4	
816.21	4776.5	
816.38	4221.5	
816.56	3520.5	
816.73	3292.5	
816.9	5942.5	
817.08	5345.2	
817.25	3362.1	
817.42	4121.9	
817.6	4388.1	
817.77	4690.5	
817.94	3731.4	
818.12	3260.4	
818.29	4535.6	
818.46	6805.4	
818.64	3437.2	
818.81	3241.3	
818.98	4485.7	
819.16	6191.7	
819.33	3930.1	
819.5	3669.3	
819.67	5063.9	
819.85	5672.9	
820.02	3658.4	
820.19	3804.4	
820.37	4998.4	
820.54	4583.4	
820.71	3687.7	
820.88	4545.1	
821.06	4934.9	
821.23	4530.8	
821.4	3759.4	
821.58	3737.5	
821.75	5364.3	
821.92	4904.9	
822.09	3033.7	
822.27	3063.1	
822.44	4743.1	
822.61	4665.3	
822.79	3031.7	
822.96	5739.1	
823.13	5117.9	
823.3	4453	
823.48	3496.6	
823.65	3143.6	
823.82	5375.2	
823.99	4349.2	
824.17	4401.8	
824.34	3226.2	
824.51	6219	
824.68	4792.9	
824.86	3388.7	
825.03	3698.6	
825.2	4773.1	
825.37	5703.6	
825.55	3349.1	
825.72	3651.5	
825.89	6192.4	
826.06	5763.7	
826.24	3552.5	
826.41	3651.5	
826.58	5694.7	
826.75	5001.1	
826.92	2904.7	
827.1	3242.6	
827.27	7604.1	
827.44	6092.7	
827.61	3450.8	
827.79	4154	
827.96	4564.2	
828.13	4814.8	
828.3	3536.2	
828.47	3013.9	
828.65	4992.9	
828.82	4993.6	
828.99	4539.7	
829.16	3958.7	
829.34	5294.7	
829.51	5118.6	
829.68	3659	
829.85	3874.1	
830.02	5616.9	
830.2	5339.1	
830.37	2873.3	
830.54	4457.1	
830.71	6003.3	
830.88	4814.1	
831.05	2923.1	
831.23	3308.2	
831.4	5779.4	
831.57	6481.1	
831.74	3411.2	
831.91	3007.8	
832.09	5031.2	
832.26	5348.6	
832.43	3519.8	
832.6	3876.8	
832.77	4956.8	
832.94	5597.8	
833.12	2824.1	
833.29	3457.7	
833.46	5105.6	
833.63	6598.6	
833.8	3792.8	
833.97	3539.6	
834.15	5315.2	
834.32	5100.1	
834.49	3681.6	
834.66	3737.5	
834.83	5468.1	
835	4523.3	
835.17	3447.4	
835.35	3482.9	
835.52	5242.1	
835.69	5178.6	
835.86	3571.7	
836.03	2953.9	
836.2	5313.8	
836.37	4922.6	
836.55	3495.9	
836.72	3308.2	
836.89	4943.1	
837.06	5427.8	
837.23	3626.3	
837.4	3947.8	
837.57	6058.6	
837.75	6595.8	
837.92	3209.2	
838.09	3515.7	
838.26	4973.2	
838.43	5543.2	
838.6	3680.2	
838.77	3293.1	
838.94	6264.7	
839.11	6070.2	
839.29	3564.8	
839.46	2817.3	
839.63	5244.2	
839.8	5077.6	
839.97	3445.4	
840.14	3414	
840.31	5124	
840.48	5392.3	
840.65	2889.7	
840.82	3358	
841	5251	
841.17	5180.7	
841.34	3179.1	
841.51	3226.2	
841.68	5264.6	
841.85	5047.6	
842.02	3252.9	
842.19	2767.5	
842.36	5087.2	
842.53	5100.1	
842.7	3187.3	
842.87	3816.7	
843.05	6518	
843.22	5007.3	
843.39	2992.1	
843.56	3280.2	
843.73	4857.8	
843.9	5382.1	
844.07	5001.8	
844.24	4197	
844.41	7428.7	
844.58	4640	
844.75	3029.6	
844.92	3324.5	
845.09	5281.7	
845.26	5255.1	
845.43	3104	
845.6	3340.9	
845.77	5242.8	
845.94	5012.7	
846.12	3439.2	
846.29	3665.9	
846.46	5485.1	
846.63	5270.8	
846.8	3106.8	
846.97	3679.5	
847.14	5642.8	
847.31	5234.6	
847.48	3555.3	
847.65	3863.8	
847.82	5546.6	
847.99	5464.7	
848.16	4205.2	
848.33	3869.3	
848.5	4869.4	
848.67	5625.1	
848.84	3097.9	
849.01	3266.5	
849.18	4843.4	
849.35	4471.4	
849.52	3834.5	
849.69	3079.5	
849.86	5446.2	
850.03	5615.5	
850.2	3208.5	
850.37	3791.5	
850.54	5556.8	
850.71	4997	
850.88	3726.6	
851.05	3104	
851.22	5187.5	
851.39	5749.3	
851.56	2951.8	
851.73	3584.6	
851.9	4661.2	
852.07	5472.9	
852.24	3420.8	
852.41	3099.3	
852.58	5184.8	
852.75	4749.2	
852.92	3469.3	
853.09	3087	
853.26	4881	
853.43	5646.9	
853.6	3110.2	
853.77	2686.3	
853.94	5739.1	
854.11	5229.1	
854.28	4586.8	
854.44	3403	
854.61	6106.4	
854.78	5573.2	
854.95	3102.7	
855.12	3918.4	
855.29	4300.1	
855.46	5823.7	
855.63	3128.6	
855.8	4241.3	
855.97	4880.3	
856.14	5573.9	
856.31	4343.1	
856.48	3439.2	
856.65	4903.5	
856.82	4640.7	
856.99	2974.3	
857.16	3383.2	
857.33	6312.5	
857.49	4997	
857.66	3379.8	
857.83	3557.3	
858	4971.1	
858.17	5165.7	
858.34	2957.9	
858.51	3098.6	
858.68	5788.2	
858.85	5889.3	
859.02	3576.4	
859.19	3809.2	
859.36	4668.7	
859.52	4709	
859.69	3160	
859.86	3676.1	
860.03	4726	
860.2	5801.2	
860.37	2818.7	
860.54	3146.4	
860.71	5400.5	
860.88	5748	
861.05	3497.2	
861.21	3935.5	
861.38	5742.5	
861.55	4496	
861.72	2860.3	
861.89	3494.5	
862.06	5484.5	
862.23	5891.3	
862.4	3041.9	
862.56	3264.5	
862.73	5356.1	
862.9	5070.8	
863.07	3656.3	
863.24	2889	
863.41	4532.8	
863.58	4693.3	
863.75	3197.6	
863.91	3616.7	
864.08	5791.7	
864.25	5418.2	
864.42	3876.8	
864.59	4301.4	
864.76	6022.4	
864.93	4729.4	
865.09	3015.3	
865.26	3371	
865.43	5608.7	
865.6	5990.3	
865.77	2729.9	
865.94	3053.5	
866.1	5777.3	
866.27	5444.2	
866.44	4653	
866.61	2947	
866.78	5018.2	
866.95	5370.5	
867.11	3020.1	
867.28	2818	
867.45	5567.7	
867.62	4703.5	
867.79	3580.5	
867.96	3098.6	
868.12	4666	
868.29	5456.5	
868.46	2771.6	
868.63	4102.8	
868.8	5606	
868.97	5385.5	
869.13	3262.4	
869.3	3226.2	
869.47	5333.6	
869.64	5537.7	
869.81	3106.8	
869.97	3121.1	
870.14	5272.8	
870.31	5859.9	
870.48	3043.3	
870.65	3900	
870.81	4947.9	
870.98	4963.6	
871.15	3515.7	
871.32	3185.3	
871.48	5306.3	
871.65	5864	
871.82	3111.5	
871.99	3422.8	
872.16	6310.5	
872.32	5713.2	
872.49	3181.9	
872.66	3176.4	
872.83	5430.5	
872.99	4797	
873.16	3549.1	
873.33	3067.9	
873.5	5133.6	
873.67	5156.8	
873.83	3305.4	
874	4073.4	
874.17	5253	
874.34	6132.3	
874.5	3943	
874.67	3804.4	
874.84	5738.4	
875.01	4595	
875.17	4297.3	
875.34	3069.2	
875.51	5231.9	
875.68	6236.7	
875.84	3753.9	
876.01	4510.3	
876.18	5451	
876.34	5393	
876.51	3104	
876.68	3044	
876.85	4929.5	
877.01	5665.4	
877.18	4450.2	
877.35	3057.6	
877.52	5152.7	
877.68	4586.8	
877.85	3100.6	
878.02	3075.4	
878.18	5046.9	
878.35	4817.5	
878.52	2559.3	
878.69	3418.7	
878.85	5540.4	
879.02	5411.4	
879.19	4329.4	
879.35	3327.3	
879.52	5425.1	
879.69	5537	
879.86	2693.1	
880.02	3489.7	
880.19	5063.3	
880.36	6027.2	
880.52	3544.4	
880.69	3635.8	
880.86	5494.7	
881.02	5517.9	
881.19	3396.9	
881.36	3357.3	
881.52	5412.1	
881.69	4789.5	
881.86	3334.1	
882.02	3287.7	
882.19	5634.6	
882.36	6531.7	
882.52	3209.2	
882.69	4318.5	
882.86	5198.4	
883.02	5161.6	
883.19	3766.9	
883.36	3543.7	
883.52	5547.3	
883.69	6268.1	
883.86	3169.6	
884.02	2841.9	
884.19	5436.7	
884.36	5065.3	
884.52	3516.4	
884.69	3258.3	
884.86	4859.1	
885.02	6000.5	
885.19	3457	
885.36	3557.3	
885.52	5035.3	
885.69	5253	
885.86	4433.9	
886.02	3977.2	
886.19	5434.6	
886.35	4962.9	
886.52	3433.8	
886.69	4289.8	
886.85	4711	
887.02	5766.4	
887.19	5766.4	
887.35	5766.4	
887.52	5766.4	
887.68	5766.4	
887.85	5766.4	
888.02	5766.4	
888.18	5766.4	
888.35	5766.4	
888.51	5766.4	
888.68	5766.4	
888.85	5766.4	
889.01	5766.4	
889.18	5766.4	
889.35	5766.4	
889.51	5766.4	
889.68	5766.4	
889.84	5766.4	
890.01	5766.4	
890.17	5766.4	
890.34	5766.4	
890.51	5766.4	
890.67	5766.4	
890.84	5766.4	
891	5766.4	
891.17	5766.4	
891.34	5766.4	
891.5	5766.4	
891.67	5766.4	
891.83	5766.4	
892	5766.4	
892.16	5766.4	
892.33	5766.4	
892.5	5766.4	
892.66	5766.4	
892.83	5766.4	
892.99	5766.4	
893.16	5766.4	
893.32	5766.4	
893.49	5766.4	
893.65	5766.4	
893.82	5766.4	
893.99	5766.4	
894.15	5766.4	
894.32	5766.4	
894.48	5766.4	
894.65	5766.4	
894.81	5766.4	
894.98	5766.4	
895.14	5766.4	
895.31	5766.4	
895.47	5766.4	
895.64	5766.4	
895.81	5766.4	
895.97	5766.4	
896.14	5766.4	
896.3	5766.4	
896.47	5766.4	
896.63	5766.4	
896.8	5766.4	
896.96	5766.4	
897.13	5766.4	
897.29	5766.4	
897.46	5766.4	
897.62	5766.4	
897.79	5766.4	
897.95	5766.4	
898.12	5766.4	
898.28	5766.4	
898.45	5766.4	
898.61	5766.4	
898.78	5766.4	
898.94	5766.4	
899.11	5766.4	
899.27	5766.4	
899.44	5766.4	
899.6	5766.4	
899.77	5766.4	
899.93	5766.4	
900.1	5766.4	
900.26	5766.4	
900.43	5766.4	
900.59	5766.4	
900.76	5766.4	
900.92	5766.4	
901.09	5766.4	
901.25	5766.4	
901.42	5766.4	
901.58	5766.4	
901.75	5766.4	
901.91	5766.4	
902.07	5766.4	
902.24	5766.4	
902.4	5766.4	
902.57	5766.4	
902.73	5766.4	
902.9	5766.4	
903.06	5766.4	
903.23	5766.4	
903.39	5766.4	
903.56	5766.4	
903.72	5766.4	
903.88	5766.4	
904.05	5766.4	
904.21	5766.4	
904.38	5766.4	
904.54	5766.4	
904.71	5766.4	
904.87	5766.4	
905.03	5766.4	
905.2	5766.4	
905.36	5766.4	
905.53	5766.4	
905.69	5766.4	
905.86	5766.4	
906.02	5766.4	
906.18	5766.4	
906.35	5766.4	
906.51	5766.4	
906.68	5766.4	
906.84	5766.4	
907.01	5766.4	
907.17	5766.4	
907.33	5766.4	
907.5	5766.4	
907.66	5766.4	
907.83	5766.4	
907.99	5766.4	
908.15	5766.4	
908.32	5766.4	
908.48	5766.4	
908.65	5766.4	
908.81	5766.4	
908.97	5766.4	
909.14	5766.4	
909.3	5766.4	
909.47	5766.4	
909.63	5766.4	
909.79	5766.4	
909.96	5766.4	
910.12	5766.4	
910.28	5766.4	
910.45	5766.4	
910.61	5766.4	
910.78	5766.4	
910.94	5766.4	
911.1	5766.4	
911.27	5766.4	
911.43	5766.4	
911.59	5766.4	
911.76	5766.4	
911.92	5766.4	
912.08	5766.4	
912.25	5766.4	
912.41	5766.4	
912.57	5766.4	
912.74	5766.4	
912.9	5766.4	
913.07	5766.4	
913.23	5766.4	
913.39	5766.4	
913.56	5766.4	
913.72	5766.4	
913.88	5766.4	
914.05	5766.4	
914.21	5766.4	
914.37	5766.4	
914.54	5766.4	
914.7	5766.4	
914.86	5766.4	
915.03	5766.4	
915.19	5766.4	
