Wavelength	Intensities	
nm	a.u.	
179.22	1723.7	
179.44	1725.1	
179.65	1722.3	
179.86	1727.8	
180.08	1731.2	
180.29	4085	
180.51	3030.3	
180.72	5032.5	
180.94	5648.3	
181.15	2788.7	
181.37	2764.8	
181.58	4854.4	
181.79	5110.4	
182.01	2900.6	
182.22	3026.9	
182.44	5105.6	
182.65	4347.8	
182.87	3706.1	
183.08	3351.2	
183.29	5405.3	
183.51	4532.8	
183.72	3062.4	
183.94	4300.1	
184.15	4831.2	
184.37	4829.8	
184.58	2753.8	
184.79	3656.3	
185.01	4557.4	
185.22	5203.9	
185.44	3878.9	
185.65	3250.1	
185.86	4844.1	
186.08	4409.3	
186.29	2742.9	
186.51	2874	
186.72	4594.3	
186.94	5205.9	
187.15	3317	
187.36	3406.5	
187.58	6601.3	
187.79	4916.5	
188.01	3478.1	
188.22	5227.8	
188.43	5824.4	
188.65	5109	
188.86	2960	
189.08	3406.5	
189.29	4661.2	
189.5	4640.7	
189.72	3138.2	
189.93	3217.4	
190.15	5271.5	
190.36	6101.6	
190.57	3435.8	
190.79	3341.6	
191	5304.9	
191.22	5287.2	
191.43	3437.9	
191.64	2942.2	
191.86	5457.2	
192.07	5277.6	
192.29	2999.6	
192.5	3138.2	
192.71	5247.6	
192.93	4653	
193.14	3142.9	
193.35	3194.1	
193.57	4649.6	
193.78	5347.2	
194	2579.1	
194.21	3121.8	
194.42	4487.1	
194.64	4870.8	
194.85	3367.5	
195.07	3910.3	
195.28	4840.7	
195.49	4311.7	
195.71	4044.1	
195.92	2932.7	
196.13	5009.3	
196.35	5093.3	
196.56	4279.6	
196.78	3371.6	
196.99	6053.8	
197.2	5665.4	
197.42	3760.1	
197.63	3386.7	
197.84	4444.8	
198.06	4971.1	
198.27	3149.8	
198.48	4026.3	
198.7	4645.5	
198.91	4868	
199.13	3392.8	
199.34	3366.9	
199.55	5207.3	
199.77	4276.2	
199.98	3013.9	
200.19	3443.3	
200.41	4788.8	
200.62	4511	
200.83	3492.5	
201.05	3788.7	
201.26	4809.3	
201.47	4607.2	
201.69	3052.8	
201.9	2992.1	
202.11	4807.3	
202.33	5564.3	
202.54	3249.4	
202.76	3629.7	
202.97	4921.3	
203.18	4892.6	
203.4	3478.1	
203.61	3539.6	
203.82	4865.3	
204.04	4524.6	
204.25	3403.7	
204.46	3368.2	
204.68	4869.4	
204.89	4957.4	
205.1	3302.7	
205.32	2907.4	
205.53	5087.8	
205.74	5243.5	
205.96	2570.9	
206.17	3449.5	
206.38	5145.2	
206.6	5195	
206.81	3866.6	
207.02	3266.5	
207.24	5042.8	
207.45	5328.1	
207.66	3279.5	
207.88	2904	
208.09	4952	
208.3	4807.3	
208.52	3012.6	
208.73	3353.9	
208.94	4859.1	
209.15	5413.5	
209.37	3268.6	
209.58	3690.4	
209.79	5268.7	
210.01	4701.5	
210.22	2710.1	
210.43	2803	
210.65	4820.9	
210.86	5070.1	
211.07	3253.5	
211.29	3006.4	
211.5	5102.2	
211.71	4784.7	
211.93	3096.5	
212.14	3011.2	
212.35	4832.5	
212.56	4947.9	
212.78	3442	
212.99	2848	
213.2	5511.8	
213.42	4635.2	
213.63	3164.1	
213.84	3300	
214.06	4397	
214.27	4424.3	
214.48	3259	
214.69	3461.1	
214.91	5366.4	
215.12	5449	
215.33	3438.5	
215.55	3724.6	
215.76	5746.6	
215.97	5079	
216.18	3313.6	
216.4	3370.3	
216.61	4540.3	
216.82	5244.8	
217.04	3070.6	
217.25	3173.7	
217.46	5289.2	
217.67	5133.6	
217.89	2732.7	
218.1	2818.7	
218.31	4891.2	
218.53	4971.8	
218.74	3184.6	
218.95	3060.3	
219.16	4780.6	
219.38	5545.2	
219.59	3024.8	
219.8	3609.9	
220.01	5944.6	
220.23	4888.5	
220.44	3892.5	
220.65	3039.2	
220.87	4887.8	
221.08	5352.7	
221.29	2877.4	
221.5	3704.8	
221.72	6323.4	
221.93	4582.7	
222.14	3436.5	
222.35	3988.1	
222.57	4881.7	
222.78	5142.4	
222.99	3310.9	
223.2	3497.9	
223.42	5126.7	
223.63	5139.7	
223.84	2597.5	
224.05	2594.8	
224.27	5899.5	
224.48	5548.6	
224.69	3951.2	
224.9	3434.4	
225.12	4901.5	
225.33	4825.7	
225.54	2789.3	
225.75	3063.1	
225.97	4546.5	
226.18	4810.7	
226.39	3272	
226.6	3087.7	
226.82	4674.1	
227.03	4511	
227.24	3400.3	
227.45	2879.4	
227.67	5182.7	
227.88	5466.7	
228.09	3758	
228.3	3776.5	
228.52	5126.7	
228.73	4782	
228.94	3158.7	
229.15	2865.8	
229.36	4814.1	
229.58	4788.8	
229.79	3241.9	
230	3707.5	
230.21	5650.3	
230.43	4877.6	
230.64	3387.3	
230.85	3472.7	
231.06	5225.1	
231.28	5163.6	
231.49	2843.9	
231.7	3368.9	
231.91	5173.2	
232.12	4860.5	
232.34	2961.4	
232.55	3301.3	
232.76	5384.1	
232.97	4980	
233.18	2998.2	
233.4	3362.1	
233.61	4936.3	
233.82	4627.7	
234.03	3186	
234.25	3144.3	
234.46	6399.2	
234.67	4874.2	
234.88	3463.8	
235.09	3095.2	
235.31	4987.5	
235.52	4743.1	
235.73	3368.9	
235.94	2908.8	
236.15	4642.1	
236.37	5745.9	
236.58	3016	
236.79	3301.3	
237	5072.1	
237.21	4412	
237.43	3542.3	
237.64	2796.8	
237.85	7998	
238.06	4459.8	
238.27	3490.4	
238.48	2942.2	
238.7	5074.2	
238.91	4705.5	
239.12	3196.9	
239.33	3296.5	
239.54	4728.1	
239.76	4740.4	
239.97	3263.8	
240.18	3302	
240.39	5864	
240.6	5030.5	
240.82	3398.3	
241.03	2902.7	
241.24	4865.3	
241.45	5494.7	
241.66	3000.3	
241.87	3518.4	
242.09	5455.8	
242.3	5631.2	
242.51	3515	
242.72	3266.5	
242.93	5181.4	
243.14	4846.2	
243.36	3811.3	
243.57	4005.8	
243.78	5440.8	
243.99	5072.1	
244.2	3274	
244.41	2975.7	
244.63	4428.4	
244.84	5032.5	
245.05	3474.7	
245.26	3228.3	
245.47	5126.7	
245.68	5169.8	
245.9	4164.2	
246.11	3405.1	
246.32	4710.3	
246.53	4999.1	
246.74	5111	
246.95	2878.8	
247.16	4554.7	
247.38	4857.1	
247.59	2800.9	
247.8	3304.7	
248.01	4501.4	
248.22	4799.8	
248.43	3008.5	
248.64	3235.8	
248.86	4405.2	
249.07	4608.6	
249.28	2975	
249.49	3409.9	
249.7	5231.2	
249.91	5274.9	
250.12	2810.5	
250.34	2848.7	
250.55	4898.7	
250.76	4870.1	
250.97	3379.8	
251.18	3433.1	
251.39	5299.5	
251.6	4988.9	
251.81	3478.1	
252.03	3433.1	
252.24	4654.4	
252.45	5180	
252.66	2912.2	
252.87	3642	
253.08	4858.5	
253.29	6094.1	
253.5	2947	
253.72	3953.3	
253.93	4762.2	
254.14	5583.4	
254.35	3144.3	
254.56	3244.7	
254.77	5025.7	
254.98	4512.4	
255.19	3150.5	
255.41	3898	
255.62	4975.2	
255.83	5335.6	
256.04	3493.2	
256.25	3425.6	
256.46	5754.8	
256.67	4573.8	
256.88	3368.2	
257.09	3729.4	
257.31	4543.1	
257.52	4578.6	
257.73	4143.7	
257.94	3170.9	
258.15	4760.2	
258.36	4859.8	
258.57	3848.1	
258.78	2583.2	
258.99	5218.9	
259.2	4676.9	
259.41	3136.1	
259.63	3239.2	
259.84	5454.4	
260.05	5747.3	
260.26	4018.1	
260.47	3049.4	
260.68	5289.9	
260.89	4758.8	
261.1	3745.7	
261.31	3044	
261.52	5360.2	
261.73	5601.2	
261.95	3923.9	
262.16	3516.4	
262.37	5366.4	
262.58	5464.7	
262.79	4008.6	
263	3180.5	
263.21	4851	
263.42	4631.1	
263.63	3459	
263.84	3200.3	
264.05	5285.8	
264.26	5521.3	
264.47	3841.3	
264.69	3336.8	
264.9	5445.5	
265.11	4945.8	
265.32	3078.8	
265.53	3156.6	
265.74	4928.8	
265.95	4358.8	
266.16	3334.1	
266.37	3595.6	
266.58	4958.1	
266.79	4652.3	
267	3134.8	
267.21	2965.5	
267.42	4522.6	
267.63	4871.4	
267.84	3278.1	
268.06	2878.8	
268.27	5182.7	
268.48	5396.4	
268.69	3247.4	
268.9	3708.2	
269.11	5376.6	
269.32	4401.8	
269.53	3265.8	
269.74	3084.2	
269.95	5094	
270.16	4313.7	
270.37	3358.7	
270.58	3750.5	
270.79	4732.9	
271	5218.2	
271.21	3470.6	
271.42	3294.5	
271.63	4985.4	
271.84	4513.7	
272.05	2709.5	
272.26	2974.3	
272.47	4928.1	
272.68	4982.7	
272.89	3180.5	
273.11	3597.6	
273.32	4676.2	
273.53	5561.6	
273.74	3446.7	
273.95	3420.1	
274.16	5227.1	
274.37	4877.6	
274.58	3556.6	
274.79	2914.9	
275	4980	
275.21	5369.1	
275.42	4219.5	
275.63	3672	
275.84	5042.8	
276.05	6139.1	
276.26	3435.1	
276.47	3201.7	
276.68	4803.2	
276.89	5597.1	
277.1	3701.4	
277.31	2923.8	
277.52	5024.3	
277.73	5266.7	
277.94	2931.3	
278.15	3205.8	
278.36	4951.3	
278.57	4640.7	
278.78	3174.4	
278.99	3558	
279.2	4622.3	
279.41	4476.9	
279.62	4046.1	
279.83	2951.1	
280.04	5776.6	
280.25	4455	
280.46	4018.8	
280.67	3290.4	
280.88	4558.8	
281.09	5330.2	
281.3	3444	
281.51	4227	
281.72	4610	
281.93	5194.3	
282.14	3106.8	
282.35	3327.9	
282.56	5266	
282.77	5272.8	
282.98	3241.9	
283.19	3845.4	
283.4	6196.5	
283.61	4797	
283.82	2987.3	
284.03	4001	
284.24	5021.6	
284.45	5287.2	
284.66	4024.3	
284.87	3768.9	
285.08	5342.5	
285.29	5422.3	
285.5	2895.8	
285.71	3203.7	
285.92	5266	
286.12	5796.4	
286.33	3941	
286.54	3244	
286.75	5199.1	
286.96	4756.7	
287.17	2949.8	
287.38	3895.9	
287.59	4665.3	
287.8	4612.7	
288.01	3251.5	
288.22	3641.3	
288.43	5218.2	
288.64	4408.6	
288.85	3760.1	
289.06	3586	
289.27	5207.3	
289.48	5505.6	
289.69	4016.1	
289.9	3680.9	
290.11	5361.6	
290.32	4623.6	
290.53	3773.7	
290.74	3541.6	
290.94	5208.7	
291.15	5255.1	
291.36	3080.8	
291.57	3586.7	
291.78	4712.4	
291.99	4367	
292.2	3033.7	
292.41	3501.3	
292.62	5217.5	
292.83	5088.5	
293.04	4233.2	
293.25	3026.9	
293.46	4738.3	
293.67	5311.1	
293.88	3104.7	
294.09	3015.3	
294.29	4561.5	
294.5	4941.1	
294.71	3363.4	
294.92	3172.3	
295.13	4733.5	
295.34	5730.2	
295.55	2844.6	
295.76	2820.1	
295.97	5155.4	
296.18	5691.3	
296.39	2953.2	
296.6	3087	
296.81	4866.7	
297.01	5197.1	
297.22	3260.4	
297.43	3126.6	
297.64	4595.6	
297.85	4528.1	
298.06	2634.4	
298.27	2846.7	
298.48	4860.5	
298.69	4655.7	
298.9	3323.2	
299.11	3022.1	
299.31	4556.7	
299.52	4567.7	
299.73	3552.5	
299.94	3497.9	
300.15	4901.5	
300.36	4597.7	
300.57	3428.3	
300.78	3424.9	
300.99	4730.1	
301.2	4909	
301.4	3153.9	
301.61	3335.5	
301.82	5104.2	
302.03	5199.1	
302.24	3664.5	
302.45	2985.3	
302.66	5066.7	
302.87	5339.7	
303.08	3095.8	
303.29	4160.8	
303.49	4702.8	
303.7	4833.2	
303.91	2841.2	
304.12	3928.7	
304.33	4482.3	
304.54	4942.4	
304.75	3174.4	
304.96	2953.9	
305.16	5098.8	
305.37	5608	
305.58	2760	
305.79	2831	
306	5107	
306.21	4400.4	
306.42	3158	
306.63	4554	
306.83	4726.7	
307.04	5152.7	
307.25	3331.4	
307.46	3336.8	
307.67	4236.6	
307.88	5119.9	
308.09	3051.5	
308.29	3159.3	
308.5	4894.6	
308.71	5291.3	
308.92	3373	
309.13	3017.3	
309.34	4774.5	
309.55	4774.5	
309.75	3801	
309.96	3557.3	
310.17	5182	
310.38	4596.3	
310.59	3630.4	
310.8	2962	
311.01	4743.1	
311.21	4778.6	
311.42	3033	
311.63	3118.4	
311.84	4666	
312.05	4924.7	
312.26	3450.1	
312.46	3691.1	
312.67	4741	
312.88	4536.9	
313.09	3016	
313.3	3010.5	
313.51	5465.3	
313.71	5735.7	
313.92	3041.2	
314.13	3126.6	
314.34	5026.4	
314.55	4818.9	
314.76	3809.9	
314.96	3321.8	
315.17	4991.6	
315.38	5205.3	
315.59	3068.5	
315.8	2913.6	
316.01	5406	
316.21	5546.6	
316.42	2961.4	
316.63	3288.4	
316.84	4784.1	
317.05	5339.1	
317.26	3508.9	
317.46	3171.6	
317.67	4806.6	
317.88	5133.6	
318.09	3745.1	
318.3	2850.1	
318.5	4685.8	
318.71	5071.5	
318.92	4684.4	
319.13	3542.3	
319.34	5242.1	
319.54	5342.5	
319.75	2809.1	
319.96	2699.2	
320.17	5089.9	
320.38	5260.5	
320.58	2786.6	
320.79	3263.1	
321	5345.2	
321.21	5388.9	
321.42	3321.1	
321.62	2762	
321.83	4583.4	
322.04	4884.4	
322.25	3250.1	
322.46	3020.8	
322.66	4930.8	
322.87	5104.9	
323.08	3659	
323.29	2970.9	
323.5	5737	
323.7	4508.3	
323.91	4014.7	
324.12	3659	
324.33	4967	
324.53	5167	
324.74	3512.3	
324.95	3601	
325.16	4438.6	
325.37	4729.4	
325.57	3028.9	
325.78	3115	
325.99	4937.7	
326.2	4445.5	
326.4	4126	
326.61	2855.6	
326.82	4828.4	
327.03	4934.9	
327.24	4175.1	
327.44	3877.5	
327.65	5137	
327.86	4257	
328.07	3526.6	
328.27	2940.9	
328.48	5390.9	
328.69	4470.7	
328.9	4207.9	
329.1	3147	
329.31	4789.5	
329.52	5489.2	
329.73	3035.1	
329.93	3317.7	
330.14	4878.3	
330.35	5022.3	
330.56	4753.3	
330.76	3650.2	
330.97	4729.4	
331.18	4910.3	
331.39	3364.1	
331.59	2806.4	
331.8	5276.3	
332.01	5412.1	
332.22	3130	
332.42	3493.2	
332.63	5058.5	
332.84	4630.5	
333.05	3390.8	
333.25	3082.2	
333.46	4581.3	
333.67	4888.5	
333.88	3210.5	
334.08	3467.2	
334.29	6236.1	
334.5	5372.5	
334.7	2951.8	
334.91	4128.7	
335.12	4539.7	
335.33	5101.5	
335.53	3341.6	
335.74	4684.4	
335.95	4726	
336.16	4547.9	
336.36	3337.5	
336.57	3755.3	
336.78	4504.2	
336.98	5255.1	
337.19	4020.8	
337.4	3321.8	
337.61	5718.6	
337.81	4498	
338.02	3106.1	
338.23	3877.5	
338.43	5504.3	
338.64	4677.6	
338.85	3035.1	
339.05	3960.1	
339.26	5558.9	
339.47	4418.2	
339.68	3106.1	
339.88	4380.6	
340.09	5089.9	
340.3	5193	
340.5	3504.1	
340.71	2772.3	
340.92	4577.9	
341.13	5399.1	
341.33	2947	
341.54	3571	
341.75	5049.6	
341.95	4745.1	
342.16	3369.6	
342.37	3598.3	
342.57	4552.6	
342.78	4863.9	
342.99	3722.5	
343.19	2807.1	
343.4	5223	
343.61	5067.4	
343.81	3231.7	
344.02	2974.3	
344.23	5184.8	
344.43	5497.4	
344.64	3758	
344.85	3620.8	
345.06	5112.4	
345.26	5292.6	
345.47	3490.4	
345.68	3974.4	
345.88	4399.7	
346.09	5216.9	
346.3	3537.5	
346.5	2747	
346.71	4818.2	
346.92	4635.2	
347.12	2827.6	
347.33	3469.9	
347.54	5310.4	
347.74	5603.9	
347.95	3472.7	
348.16	2699.9	
348.36	4700.8	
348.57	4545.1	
348.78	3485	
348.98	3697.9	
349.19	4862.6	
349.39	4428.4	
349.6	2874.7	
349.81	3095.2	
350.01	5168.4	
350.22	4686.4	
350.43	3461.1	
350.63	3951.2	
350.84	4861.2	
351.05	4737.6	
351.25	3115.6	
351.46	2907.4	
351.67	5285.8	
351.87	4610	
352.08	3266.5	
352.29	3732.1	
352.49	5310.4	
352.7	5349.3	
352.9	3002.3	
353.11	3681.6	
353.32	5788.2	
353.52	4771.8	
353.73	3033	
353.94	3709.6	
354.14	5199.1	
354.35	4972.5	
354.55	3092.4	
354.76	3403	
354.97	5156.1	
355.17	4909.7	
355.38	3005.7	
355.59	3993.5	
355.79	4743.1	
356	4992.9	
356.2	3530	
356.41	3064.4	
356.62	4557.4	
356.82	4910.3	
357.03	3680.9	
357.24	3340.2	
357.44	4724	
357.65	4852.3	
357.85	4280.9	
358.06	3551.9	
358.27	4564.9	
358.47	4702.1	
358.68	3050.1	
358.88	3686.3	
359.09	5233.9	
359.3	5449.6	
359.5	4173.8	
359.71	3820.8	
359.91	5875.6	
360.12	5264	
360.33	3714.3	
360.53	4102.8	
360.74	4854.4	
360.94	4900.8	
361.15	3915	
361.36	3293.1	
361.56	5487.9	
361.77	5081	
361.97	4299.4	
362.18	3565.5	
362.38	5492	
362.59	4806.6	
362.8	3303.4	
363	3191.4	
363.21	4706.2	
363.41	5190.2	
363.62	3771.7	
363.83	4541.7	
364.03	5351.3	
364.24	5895.4	
364.44	4618.2	
364.65	4550.6	
364.85	5134.3	
365.06	4858.5	
365.27	3559.4	
365.47	3591.5	
365.68	5881.8	
365.88	5151.3	
366.09	3868.6	
366.29	3591.5	
366.5	5386.2	
366.71	5652.4	
366.91	4659.1	
367.12	4061.1	
367.32	6203.3	
367.53	5573.9	
367.73	4008.6	
367.94	4810.7	
368.14	5632.6	
368.35	6204	
368.56	3981.9	
368.76	3910.3	
368.97	5679.7	
369.17	6904.4	
369.38	3596.2	
369.58	3870	
369.79	4922	
369.99	6003.3	
370.2	4658.4	
370.4	3926	
370.61	5476.3	
370.82	6355.5	
371.02	3968.3	
371.23	3317.7	
371.43	4928.8	
371.64	6001.2	
371.84	3881.6	
372.05	4820.2	
372.25	6982.9	
372.46	5724.1	
372.66	4049.5	
372.87	3963.5	
373.07	5836	
373.28	7118.7	
373.48	4772.4	
373.69	4588.8	
373.9	5530.9	
374.1	5573.9	
374.31	4872.8	
374.51	4484.4	
374.72	6172.6	
374.92	5376.6	
375.13	5095.3	
375.33	4437.9	
375.54	5907.7	
375.74	5592.3	
375.95	4498	
376.15	5472.2	
376.36	6066.8	
376.56	5936.4	
376.77	4647.5	
376.97	5017.5	
377.18	6959.7	
377.38	6181.5	
377.59	5283.8	
377.79	4424.3	
378	6098.2	
378.2	6461.3	
378.41	4483.7	
378.61	4469.4	
378.82	6550.1	
379.02	5999.2	
379.23	4704.2	
379.43	5537.7	
379.64	6752.8	
379.84	6385.6	
380.05	4573.1	
380.25	4426.3	
380.46	6425.8	
380.66	6080.4	
380.87	5571.2	
381.07	5805.3	
381.28	6852.5	
381.48	6417	
381.69	4559.5	
381.89	4588.8	
382.1	5651.7	
382.3	6463.4	
382.51	5349.3	
382.71	6090.7	
382.91	6360.3	
383.12	6787	
383.32	4837.3	
383.53	4926.7	
383.73	6269.5	
383.94	6181.5	
384.14	5025	
384.35	4232.5	
384.55	6022.4	
384.76	6392.4	
384.96	4817.5	
385.17	5056.4	
385.37	6349.4	
385.58	5792.3	
385.78	5019.6	
385.98	4180.6	
386.19	5940.5	
386.39	6247	
386.6	4573.8	
386.8	4744.5	
387.01	6338.5	
387.21	6378.7	
387.42	5072.8	
387.62	5632.6	
387.83	5907.7	
388.03	6352.1	
388.23	4977.2	
388.44	5561.6	
388.64	5742.5	
388.85	5978	
389.05	5290.6	
389.26	5825.8	
389.46	7550.2	
389.67	7080.5	
389.87	5502.2	
390.07	5517.2	
390.28	6454.5	
390.48	6107	
390.69	4924	
390.89	5242.8	
391.1	6390.3	
391.3	7069.6	
391.5	6036.7	
391.71	6481.8	
391.91	6894.1	
392.12	7555.6	
392.32	6139.1	
392.53	5534.3	
392.73	6451.1	
392.93	6635.4	
393.14	5370.5	
393.34	6115.2	
393.55	6831.3	
393.75	6492.7	
393.95	5285.8	
394.16	5091.9	
394.36	6455.9	
394.57	6781.5	
394.77	4826.4	
394.98	5128.8	
395.18	6366.5	
395.38	6462	
395.59	5951.4	
395.79	5309	
396	6728.9	
396.2	7049.8	
396.4	6044.2	
396.61	5988.9	
396.81	7321.5	
397.02	6758.3	
397.22	6371.2	
397.42	6393.1	
397.63	7519.5	
397.83	6907.8	
398.04	5502.2	
398.24	6064	
398.44	7321.5	
398.65	6650.4	
398.85	5564.3	
399.05	5608	
399.26	7092.1	
399.46	8353	
399.67	6041.5	
399.87	5724.8	
400.07	7417.7	
400.28	7587.7	
400.48	5974.6	
400.69	6967.9	
400.89	7997.3	
401.09	8328.4	
401.3	6041.5	
401.5	6870.9	
401.7	8662.2	
401.91	8761.2	
402.11	6512.5	
402.32	6534.4	
402.52	8256	
402.72	8025.3	
402.93	6885.3	
403.13	5825.1	
403.33	8690.2	
403.54	7387.7	
403.74	6356.2	
403.94	6835.4	
404.15	7447.1	
404.35	8258.8	
404.56	5911.1	
404.76	7329	
404.96	7757	
405.17	7527	
405.37	7152.2	
405.57	6500.3	
405.78	8172.1	
405.98	7539.3	
406.18	6394.4	
406.39	6982.9	
406.59	8147.5	
406.79	7705.1	
407	6133.7	
407.2	6104.3	
407.4	8122.2	
407.61	8206.9	
407.81	6355.5	
408.01	7888.8	
408.22	7471.7	
408.42	9121	
408.62	7473.7	
408.83	7311.2	
409.03	8513.4	
409.23	8506.6	
409.44	7640.3	
409.64	7952.9	
409.84	9788.6	
410.05	9832.3	
410.25	8204.2	
410.45	8130.4	
410.66	9912.2	
410.86	11517	
411.06	8961.2	
411.27	8619.2	
411.47	11769	
411.67	10171	
411.88	9016.5	
412.08	9488.2	
412.28	10917	
412.49	11338	
412.69	9255.5	
412.89	9383.8	
413.09	11372	
413.3	11414	
413.5	9697.1	
413.7	9372.9	
413.91	10858	
414.11	11581	
414.31	9684.2	
414.52	10121	
414.72	11402	
414.92	11535	
415.12	9759.3	
415.33	10322	
415.53	11961	
415.73	12067	
415.94	10511	
416.14	10160	
416.34	11425	
416.55	11124	
416.75	11103	
416.95	10876	
417.15	12366	
417.36	12555	
417.56	11577	
417.76	10914	
417.97	12686	
418.17	12587	
418.37	10608	
418.57	10850	
418.78	12551	
418.98	12110	
419.18	11512	
419.38	11467	
419.59	12298	
419.79	11639	
419.99	10677	
420.2	10976	
420.4	12500	
420.6	12508	
420.8	10613	
421.01	10466	
421.21	12562	
421.41	12650	
421.61	10938	
421.82	10702	
422.02	12422	
422.22	12987	
422.42	11521	
422.63	10842	
422.83	12383	
423.03	13453	
423.23	11094	
423.44	10378	
423.64	12387	
423.84	11928	
424.04	10658	
424.25	10493	
424.45	12812	
424.65	12770	
424.85	10309	
425.06	10580	
425.26	12865	
425.46	12301	
425.66	11112	
425.87	10796	
426.07	12752	
426.27	12495	
426.47	10935	
426.67	10300	
426.88	12833	
427.08	12436	
427.28	11330	
427.48	10247	
427.69	11549	
427.89	12109	
428.09	11099	
428.29	10271	
428.5	12523	
428.7	12368	
428.9	10431	
429.1	10744	
429.3	12349	
429.51	12667	
429.71	10616	
429.91	11434	
430.11	12869	
430.31	13200	
430.52	11183	
430.72	11628	
430.92	13549	
431.12	13128	
431.32	11161	
431.53	11356	
431.73	12362	
431.93	13575	
432.13	11017	
432.33	11250	
432.54	12800	
432.74	13085	
432.94	11267	
433.14	11744	
433.34	13193	
433.55	13310	
433.75	11962	
433.95	13738	
434.15	13464	
434.35	13480	
434.56	11609	
434.76	11594	
434.96	13558	
435.16	14168	
435.36	11824	
435.56	12915	
435.77	13820	
435.97	13986	
436.17	13650	
436.37	12975	
436.57	13976	
436.78	14138	
436.98	14032	
437.18	13517	
437.38	14842	
437.58	13915	
437.78	13597	
437.99	12525	
438.19	14394	
438.39	14973	
438.59	12613	
438.79	11908	
438.99	14801	
439.2	13779	
439.4	11626	
439.6	11772	
439.8	13949	
440	14812	
440.2	12889	
440.4	13180	
440.61	14875	
440.81	15479	
441.01	13051	
441.21	14022	
441.41	16155	
441.61	15482	
441.81	14661	
442.02	15250	
442.22	16384	
442.42	15843	
442.62	13680	
442.82	13487	
443.02	16288	
443.22	15732	
443.43	14167	
443.63	13736	
443.83	15450	
444.03	15467	
444.23	15258	
444.43	14609	
444.63	16339	
444.83	17006	
445.04	14606	
445.24	15473	
445.44	16371	
445.64	16547	
445.84	14616	
446.04	14927	
446.24	15637	
446.44	16382	
446.65	13926	
446.85	14467	
447.05	15322	
447.25	16259	
447.45	14207	
447.65	13897	
447.85	15746	
448.05	15035	
448.25	14723	
448.46	14616	
448.66	15905	
448.86	15452	
449.06	14025	
449.26	14785	
449.46	16381	
449.66	15422	
449.86	14975	
450.06	14525	
450.26	15959	
450.47	16486	
450.67	14721	
450.87	15270	
451.07	16606	
451.27	16714	
451.47	14392	
451.67	15365	
451.87	16552	
452.07	16939	
452.27	15240	
452.47	14806	
452.67	16532	
452.88	17094	
453.08	14133	
453.28	16201	
453.48	17986	
453.68	16294	
453.88	15239	
454.08	15083	
454.28	17282	
454.48	17004	
454.68	15593	
454.88	15909	
455.08	17182	
455.28	17791	
455.48	14876	
455.68	16199	
455.89	18364	
456.09	18107	
456.29	15851	
456.49	16449	
456.69	18631	
456.89	17787	
457.09	16906	
457.29	17491	
457.49	18548	
457.69	18901	
457.89	17453	
458.09	16578	
458.29	18934	
458.49	19549	
458.69	17796	
458.89	17703	
459.09	20153	
459.29	20150	
459.49	17659	
459.69	18604	
459.9	19716	
460.1	19922	
460.3	17343	
460.5	17480	
460.7	19994	
460.9	19648	
461.1	17245	
461.3	18654	
461.5	20971	
461.7	20395	
461.9	18705	
462.1	18611	
462.3	20581	
462.5	21035	
462.7	18773	
462.9	19372	
463.1	22050	
463.3	22320	
463.5	19402	
463.7	21093	
463.9	21640	
464.1	22094	
464.3	20874	
464.5	20540	
464.7	22613	
464.9	23143	
465.1	21953	
465.3	21308	
465.5	22859	
465.7	23464	
465.9	22008	
466.1	20931	
466.3	23862	
466.5	22964	
466.7	23131	
466.9	21649	
467.1	23700	
467.3	24384	
467.5	23206	
467.7	22311	
467.9	24791	
468.1	25550	
468.3	22654	
468.5	23471	
468.7	24302	
468.9	24037	
469.1	23230	
469.3	23877	
469.5	26203	
469.7	24546	
469.9	23089	
470.1	23369	
470.3	24830	
470.5	24801	
470.7	24324	
470.9	23077	
471.1	25017	
471.3	24222	
471.5	23294	
471.69	24546	
471.89	24461	
472.09	23800	
472.29	23918	
472.49	23182	
472.69	24522	
472.89	24661	
473.09	23162	
473.29	22445	
473.49	24365	
473.69	24004	
473.89	23375	
474.09	22855	
474.29	25016	
474.49	24483	
474.69	23522	
474.89	22866	
475.09	24102	
475.29	24369	
475.49	22333	
475.69	23182	
475.88	24937	
476.08	24482	
476.28	22638	
476.48	22258	
476.68	24432	
476.88	24174	
477.08	22166	
477.28	22767	
477.48	23459	
477.68	23825	
477.88	22403	
478.08	22378	
478.28	24835	
478.48	23862	
478.67	22741	
478.87	21697	
479.07	25129	
479.27	23937	
479.47	22730	
479.67	22931	
479.87	24692	
480.07	25219	
480.27	22374	
480.47	23516	
480.67	24218	
480.87	25110	
481.06	22784	
481.26	23484	
481.46	24651	
481.66	24585	
481.86	23195	
482.06	24050	
482.26	24399	
482.46	24879	
482.66	23042	
482.86	22932	
483.05	24988	
483.25	24253	
483.45	25070	
483.65	23360	
483.85	24724	
484.05	25024	
484.25	23655	
484.45	24744	
484.65	25527	
484.84	26444	
485.04	23711	
485.24	23946	
485.44	26453	
485.64	25161	
485.84	23897	
486.04	25094	
486.24	25537	
486.44	25858	
486.63	23778	
486.83	24937	
487.03	26159	
487.23	26638	
487.43	24159	
487.63	26414	
487.83	26771	
488.02	27357	
488.22	25746	
488.42	26424	
488.62	27380	
488.82	26888	
489.02	25170	
489.22	26112	
489.41	27246	
489.61	27659	
489.81	25547	
490.01	25511	
490.21	27942	
490.41	28574	
490.61	25871	
490.8	26082	
491	27921	
491.2	26973	
491.4	26072	
491.6	25509	
491.8	27224	
491.99	26888	
492.19	24987	
492.39	25021	
492.59	27362	
492.79	27638	
492.99	26133	
493.18	25692	
493.38	27943	
493.58	29358	
493.78	26760	
493.98	26352	
494.18	28492	
494.37	28992	
494.57	28248	
494.77	28059	
494.97	30012	
495.17	30868	
495.37	28620	
495.56	29046	
495.76	31405	
495.96	31274	
496.16	30307	
496.36	29849	
496.55	31964	
496.75	31939	
496.95	30188	
497.15	30295	
497.35	31687	
497.54	32077	
497.74	29980	
497.94	31619	
498.14	32728	
498.34	32665	
498.53	30252	
498.73	30640	
498.93	32114	
499.13	32343	
499.33	31073	
499.52	31162	
499.72	33509	
499.92	32769	
500.12	31172	
500.32	31617	
500.51	33301	
500.71	33674	
500.91	32327	
501.11	31789	
501.31	33677	
501.5	33544	
501.7	32616	
501.9	31884	
502.1	33451	
502.29	33546	
502.49	32492	
502.69	32206	
502.89	33558	
503.09	33615	
503.28	30924	
503.48	30932	
503.68	32512	
503.88	32619	
504.07	31521	
504.27	30870	
504.47	32986	
504.67	32469	
504.86	31521	
505.06	30997	
505.26	32179	
505.46	33355	
505.65	30906	
505.85	30819	
506.05	31797	
506.25	31988	
506.44	29635	
506.64	29944	
506.84	31189	
507.04	31509	
507.23	29603	
507.43	29874	
507.63	32509	
507.83	31294	
508.02	29803	
508.22	29803	
508.42	32910	
508.62	31268	
508.81	29763	
509.01	30492	
509.21	30900	
509.4	31211	
509.6	29904	
509.8	29646	
510	31133	
510.19	32525	
510.39	29453	
510.59	29683	
510.79	31374	
510.98	32562	
511.18	30008	
511.38	30264	
511.57	31990	
511.77	31854	
511.97	30427	
512.17	29749	
512.36	32116	
512.56	31476	
512.76	29551	
512.95	29215	
513.15	31966	
513.35	30903	
513.55	30174	
513.74	29592	
513.94	31791	
514.14	31339	
514.33	30493	
514.53	30396	
514.73	31533	
514.92	31785	
515.12	30149	
515.32	30036	
515.51	32079	
515.71	32348	
515.91	31440	
516.11	30320	
516.3	33585	
516.5	31941	
516.7	30587	
516.89	31399	
517.09	32125	
517.29	32166	
517.48	31134	
517.68	30552	
517.88	31911	
518.07	32429	
518.27	31221	
518.47	30395	
518.66	32438	
518.86	31850	
519.06	29941	
519.25	30350	
519.45	31711	
519.65	33286	
519.84	30871	
520.04	31936	
520.24	33766	
520.43	32649	
520.63	30768	
520.83	30773	
521.02	31870	
521.22	32256	
521.42	30393	
521.61	31132	
521.81	31662	
522.01	31698	
522.2	30471	
522.4	29949	
522.6	32286	
522.79	31479	
522.99	30329	
523.18	30655	
523.38	32752	
523.58	32895	
523.77	32754	
523.97	31443	
524.17	35156	
524.36	34632	
524.56	33079	
524.76	33209	
524.95	34778	
525.15	34318	
525.34	33193	
525.54	33746	
525.74	35665	
525.93	35096	
526.13	35069	
526.33	34800	
526.52	36638	
526.72	36349	
526.91	35765	
527.11	35355	
527.31	36974	
527.5	37311	
527.7	35558	
527.89	34777	
528.09	36385	
528.29	37272	
528.48	35586	
528.68	35289	
528.87	37296	
529.07	36947	
529.27	35878	
529.46	35738	
529.66	37827	
529.85	38284	
530.05	36029	
530.25	36466	
530.44	38959	
530.64	37272	
530.83	35835	
531.03	36193	
531.23	37676	
531.42	37391	
531.62	36652	
531.81	36063	
532.01	38425	
532.21	38864	
532.4	36943	
532.6	37485	
532.79	39750	
532.99	40080	
533.18	38214	
533.38	38952	
533.58	40183	
533.77	40200	
533.97	39137	
534.16	39566	
534.36	41066	
534.55	40591	
534.75	39658	
534.95	39227	
535.14	41951	
535.34	40928	
535.53	39088	
535.73	40713	
535.92	42181	
536.12	40484	
536.31	38960	
536.51	39795	
536.71	40536	
536.9	40430	
537.1	38453	
537.29	39000	
537.49	40729	
537.68	40032	
537.88	39449	
538.07	38406	
538.27	40614	
538.46	41280	
538.66	38723	
538.86	39246	
539.05	40796	
539.25	40996	
539.44	40094	
539.64	38971	
539.83	40624	
540.03	41465	
540.22	39169	
540.42	38633	
540.61	40108	
540.81	40755	
541	38390	
541.2	39744	
541.39	39607	
541.59	40129	
541.78	39347	
541.98	38114	
542.18	39630	
542.37	39508	
542.57	38190	
542.76	39125	
542.96	39099	
543.15	39634	
543.35	37945	
543.54	37444	
543.74	39288	
543.93	39048	
544.13	36980	
544.32	37737	
544.52	38711	
544.71	37739	
544.91	36030	
545.1	37000	
545.3	38031	
545.49	38487	
545.69	35996	
545.88	36414	
546.08	39306	
546.27	38712	
546.47	36844	
546.66	36271	
546.86	38277	
547.05	38772	
547.24	36239	
547.44	36551	
547.63	37407	
547.83	38533	
548.02	36731	
548.22	36504	
548.41	36979	
548.61	38063	
548.8	35836	
549	35931	
549.19	37442	
549.39	37953	
549.58	35480	
549.78	35861	
549.97	37587	
550.17	37076	
550.36	35842	
550.55	36779	
550.75	36796	
550.94	37432	
551.14	35020	
551.33	34956	
551.53	36276	
551.72	37083	
551.92	35098	
552.11	35034	
552.31	36732	
552.5	36640	
552.69	36170	
552.89	34328	
553.08	36702	
553.28	36318	
553.47	34901	
553.67	35541	
553.86	36676	
554.06	35568	
554.25	33754	
554.44	34448	
554.64	37105	
554.83	36923	
555.03	34346	
555.22	34485	
555.42	36320	
555.61	36046	
555.8	33977	
556	34267	
556.19	35416	
556.39	36030	
556.58	33923	
556.78	34056	
556.97	35862	
557.16	35764	
557.36	34977	
557.55	33974	
557.75	34794	
557.94	36519	
558.13	33694	
558.33	33900	
558.52	36166	
558.72	35226	
558.91	33661	
559.1	33787	
559.3	35091	
559.49	34336	
559.69	33159	
559.88	33834	
560.07	35370	
560.27	35677	
560.46	33860	
560.66	33836	
560.85	35289	
561.04	34224	
561.24	33229	
561.43	32848	
561.63	34366	
561.82	34706	
562.01	34112	
562.21	33215	
562.4	34573	
562.59	35628	
562.79	33082	
562.98	33245	
563.18	34851	
563.37	36309	
563.56	34068	
563.76	33708	
563.95	34996	
564.14	35019	
564.34	33994	
564.53	33671	
564.73	35611	
564.92	36080	
565.11	34263	
565.31	34094	
565.5	36113	
565.69	35510	
565.89	34147	
566.08	34396	
566.27	36274	
566.47	36996	
566.66	35086	
566.85	34276	
567.05	36260	
567.24	35955	
567.44	34641	
567.63	35474	
567.82	36520	
568.02	36354	
568.21	34604	
568.4	34861	
568.6	36384	
568.79	36266	
568.98	34488	
569.18	35090	
569.37	36850	
569.56	38251	
569.76	35624	
569.95	36199	
570.14	37157	
570.34	37426	
570.53	35378	
570.72	35394	
570.91	37774	
571.11	37044	
571.3	35413	
571.49	36221	
571.69	37096	
571.88	36680	
572.07	36177	
572.27	35893	
572.46	36867	
572.65	37495	
572.85	35555	
573.04	36054	
573.23	38110	
573.43	37337	
573.62	35843	
573.81	36244	
574	37958	
574.2	37732	
574.39	36742	
574.58	36670	
574.78	39120	
574.97	38494	
575.16	37420	
575.36	37757	
575.55	39625	
575.74	39537	
575.93	37135	
576.13	38415	
576.32	38889	
576.51	39742	
576.71	37684	
576.9	38920	
577.09	39931	
577.28	39451	
577.48	38141	
577.67	37401	
577.86	39232	
578.05	39754	
578.25	37986	
578.44	38054	
578.63	39421	
578.83	40672	
579.02	37437	
579.21	39176	
579.4	39540	
579.6	39811	
579.79	38081	
579.98	39911	
580.17	40149	
580.37	40480	
580.56	37615	
580.75	38647	
580.94	40543	
581.14	40178	
581.33	38968	
581.52	37900	
581.71	40154	
581.91	40645	
582.1	38143	
582.29	38341	
582.48	40007	
582.68	40274	
582.87	38866	
583.06	38862	
583.25	40382	
583.45	40170	
583.64	39570	
583.83	40183	
584.02	40050	
584.21	40617	
584.41	39001	
584.6	38928	
584.79	40697	
584.98	41111	
585.18	38690	
585.37	38563	
585.56	40246	
585.75	41092	
585.94	38326	
586.14	39176	
586.33	40527	
586.52	40353	
586.71	38396	
586.91	38409	
587.1	39001	
587.29	39965	
587.48	37410	
587.67	37714	
587.87	39424	
588.06	39270	
588.25	38367	
588.44	37686	
588.63	38512	
588.83	39159	
589.02	36758	
589.21	36648	
589.4	37858	
589.59	38128	
589.78	35172	
589.98	35123	
590.17	36061	
590.36	36556	
590.55	33258	
590.74	33295	
590.94	36074	
591.13	34683	
591.32	32759	
591.51	32220	
591.7	34729	
591.89	34499	
592.09	32506	
592.28	33141	
592.47	34138	
592.66	36075	
592.85	32962	
593.05	33364	
593.24	34804	
593.43	35940	
593.62	33519	
593.81	33931	
594	35130	
594.19	35296	
594.39	33206	
594.58	33255	
594.77	35262	
594.96	35683	
595.15	33128	
595.34	33699	
595.54	34834	
595.73	34318	
595.92	32396	
596.11	32864	
596.3	34784	
596.49	34089	
596.68	32496	
596.88	32927	
597.07	34591	
597.26	33778	
597.45	32160	
597.64	33356	
597.83	34034	
598.02	34949	
598.22	32503	
598.41	32747	
598.6	34250	
598.79	33627	
598.98	32021	
599.17	32931	
599.36	34235	
599.55	34636	
599.74	33514	
599.94	33622	
600.13	34422	
600.32	33301	
600.51	31677	
600.7	32025	
600.89	34713	
601.08	34935	
601.27	31561	
601.47	32533	
601.66	34340	
601.85	34467	
602.04	32088	
602.23	32078	
602.42	33217	
602.61	33700	
602.8	31632	
602.99	31402	
603.18	33230	
603.37	33593	
603.57	31778	
603.76	32026	
603.95	34082	
604.14	33649	
604.33	31549	
604.52	31821	
604.71	33707	
604.9	33305	
605.09	32127	
605.28	32279	
605.47	34131	
605.66	33695	
605.86	32079	
606.05	31520	
606.24	33709	
606.43	32745	
606.62	31750	
606.81	32221	
607	33639	
607.19	33125	
607.38	31103	
607.57	31222	
607.76	32742	
607.95	32103	
608.14	31742	
608.33	31902	
608.52	32714	
608.72	33585	
608.91	30702	
609.1	30700	
609.29	32452	
609.48	31910	
609.67	31197	
609.86	30386	
610.05	31861	
610.24	32105	
610.43	30477	
610.62	29965	
610.81	32824	
611	32930	
611.19	30390	
611.38	30791	
611.57	32281	
611.76	33242	
611.95	29910	
612.14	29835	
612.33	32182	
612.52	31688	
612.71	30407	
612.9	29865	
613.09	31546	
613.28	33189	
613.47	30216	
613.66	31034	
613.85	32096	
614.04	31682	
614.24	30319	
614.43	29527	
614.62	32266	
614.81	31950	
615	30552	
615.19	30957	
615.38	31569	
615.57	32156	
615.76	30598	
615.95	31483	
616.14	32725	
616.33	32301	
616.52	31025	
616.71	31225	
616.9	32312	
617.09	32364	
617.28	30381	
617.47	31319	
617.66	31739	
617.85	31849	
618.04	31431	
618.22	31036	
618.41	32707	
618.6	33678	
618.79	31530	
618.98	31509	
619.17	33982	
619.36	32696	
619.55	31774	
619.74	31842	
619.93	33649	
620.12	33323	
620.31	32640	
620.5	33036	
620.69	34777	
620.88	35263	
621.07	33473	
621.26	32979	
621.45	34801	
621.64	34837	
621.83	33015	
622.02	32820	
622.21	34686	
622.4	34785	
622.59	33962	
622.78	33712	
622.97	34499	
623.16	35445	
623.35	33570	
623.54	32929	
623.72	34800	
623.91	34667	
624.1	33980	
624.29	32603	
624.48	35952	
624.67	35168	
624.86	33781	
625.05	33085	
625.24	35935	
625.43	34790	
625.62	34984	
625.81	33482	
626	35267	
626.19	35108	
626.38	34160	
626.56	33552	
626.75	34916	
626.94	35994	
627.13	33775	
627.32	33254	
627.51	35639	
627.7	36435	
627.89	32907	
628.08	34198	
628.27	34684	
628.46	34710	
628.65	32936	
628.83	32837	
629.02	35049	
629.21	34574	
629.4	33518	
629.59	33582	
629.78	34686	
629.97	35116	
630.16	33762	
630.35	33366	
630.54	35835	
630.72	35422	
630.91	33090	
631.1	33419	
631.29	34990	
631.48	35259	
631.67	33454	
631.86	32876	
632.05	34996	
632.24	34751	
632.42	32623	
632.61	33488	
632.8	34459	
632.99	34473	
633.18	33423	
633.37	33465	
633.56	34837	
633.75	34807	
633.93	33277	
634.12	33160	
634.31	35362	
634.5	35225	
634.69	33181	
634.88	33122	
635.07	34742	
635.25	34950	
635.44	33846	
635.63	34066	
635.82	34450	
636.01	33819	
636.2	33079	
636.39	33222	
636.57	35093	
636.76	34469	
636.95	32710	
637.14	33394	
637.33	34579	
637.52	35154	
637.7	32331	
637.89	33118	
638.08	34446	
638.27	35016	
638.46	33191	
638.65	33237	
638.83	34874	
639.02	33849	
639.21	32708	
639.4	33080	
639.59	33865	
639.78	33413	
639.96	31872	
640.15	31835	
640.34	33546	
640.53	33294	
640.72	31163	
640.91	31429	
641.09	32569	
641.28	33499	
641.47	31239	
641.66	32215	
641.85	33102	
642.03	32891	
642.22	31668	
642.41	31018	
642.6	32520	
642.79	31982	
642.97	30438	
643.16	31425	
643.35	32425	
643.54	31821	
643.73	30404	
643.91	30868	
644.1	31361	
644.29	32344	
644.48	29932	
644.67	30083	
644.85	31180	
645.04	31566	
645.23	29099	
645.42	29769	
645.6	30395	
645.79	31072	
645.98	28748	
646.17	27747	
646.36	29379	
646.54	29476	
646.73	28476	
646.92	27758	
647.11	29197	
647.29	29905	
647.48	27486	
647.67	27392	
647.86	29689	
648.05	30180	
648.23	27385	
648.42	28481	
648.61	29096	
648.8	29080	
648.98	26925	
649.17	27156	
649.36	28379	
649.55	28161	
649.73	26682	
649.92	27575	
650.11	28489	
650.3	28715	
650.48	26956	
650.67	26825	
650.86	28938	
651.05	27896	
651.23	26740	
651.42	26647	
651.61	28212	
651.79	27726	
651.98	26781	
652.17	26216	
652.36	27951	
652.54	27229	
652.73	26209	
652.92	26075	
653.11	28077	
653.29	27983	
653.48	25561	
653.67	26078	
653.85	27478	
654.04	28195	
654.23	25887	
654.42	25451	
654.6	26319	
654.79	26624	
654.98	24177	
655.16	24423	
655.35	25131	
655.54	24770	
655.73	23349	
655.91	23051	
656.1	25107	
656.29	24372	
656.47	22732	
656.66	24019	
656.85	24847	
657.03	25066	
657.22	23748	
657.41	24279	
657.59	25797	
657.78	25821	
657.97	24095	
658.16	24824	
658.34	26441	
658.53	27009	
658.72	25498	
658.9	25898	
659.09	26221	
659.28	26161	
659.46	24739	
659.65	24743	
659.84	25823	
660.02	26572	
660.21	24689	
660.4	24526	
660.58	26757	
660.77	26372	
660.96	25105	
661.14	24405	
661.33	27233	
661.52	26841	
661.7	24356	
661.89	26882	
662.08	25876	
662.26	25551	
662.45	24169	
662.64	24189	
662.82	26260	
663.01	25636	
663.2	24092	
663.38	24785	
663.57	25867	
663.75	25859	
663.94	24397	
664.13	25134	
664.31	25430	
664.5	25942	
664.69	24546	
664.87	24870	
665.06	25245	
665.25	25870	
665.43	24987	
665.62	24965	
665.8	25869	
665.99	25279	
666.18	24257	
666.36	24246	
666.55	25598	
666.74	25763	
666.92	23780	
667.11	24692	
667.29	25374	
667.48	25683	
667.67	24385	
667.85	23829	
668.04	25225	
668.22	25302	
668.41	23857	
668.6	24023	
668.78	25079	
668.97	25061	
669.15	24031	
669.34	23152	
669.53	25041	
669.71	25393	
669.9	23249	
670.08	23903	
670.27	24907	
670.46	25142	
670.64	23878	
670.83	24161	
671.01	24518	
671.2	25023	
671.38	23444	
671.57	23045	
671.76	25576	
671.94	25956	
672.13	23180	
672.31	23840	
672.5	25416	
672.69	24737	
672.87	23362	
673.06	23690	
673.24	25200	
673.43	24815	
673.61	23607	
673.8	23372	
673.98	25024	
674.17	25132	
674.36	23827	
674.54	23619	
674.73	24781	
674.91	25070	
675.1	23602	
675.28	23043	
675.47	24795	
675.65	25303	
675.84	23258	
676.03	23574	
676.21	24415	
676.4	24062	
676.58	23579	
676.77	23893	
676.95	25633	
677.14	24340	
677.32	22863	
677.51	22877	
677.69	24981	
677.88	24197	
678.06	22932	
678.25	22784	
678.44	24865	
678.62	24331	
678.81	22632	
678.99	23427	
679.18	25266	
679.36	24972	
679.55	23312	
679.73	23601	
679.92	24696	
680.1	24412	
680.29	24218	
680.47	23065	
680.66	24104	
680.84	24954	
681.03	22483	
681.21	23266	
681.4	24482	
681.58	24064	
681.77	22671	
681.95	22684	
682.14	24585	
682.32	24928	
682.51	23399	
682.69	22296	
682.88	23962	
683.06	24033	
683.25	23048	
683.43	23352	
683.62	24308	
683.8	24473	
683.99	23240	
684.17	22760	
684.36	24779	
684.54	23678	
684.73	21556	
684.91	21452	
685.1	22927	
685.28	22293	
685.46	20755	
685.65	20557	
685.83	21728	
686.02	21298	
686.2	19631	
686.39	19740	
686.57	20975	
686.76	22384	
686.94	19909	
687.13	20282	
687.31	21768	
687.5	21762	
687.68	19880	
687.86	20891	
688.05	23401	
688.23	21506	
688.42	20981	
688.6	20730	
688.79	22024	
688.97	22157	
689.16	21127	
689.34	20291	
689.52	22984	
689.71	23014	
689.89	21640	
690.08	21158	
690.26	22656	
690.45	22703	
690.63	21753	
690.81	21474	
691	22465	
691.18	22629	
691.37	21278	
691.55	22726	
691.74	22189	
691.92	23661	
692.1	20920	
692.29	20502	
692.47	22169	
692.66	21510	
692.84	20442	
693.02	20896	
693.21	21800	
693.39	21956	
693.58	21170	
693.76	20803	
693.94	23006	
694.13	23340	
694.31	21137	
694.5	21962	
694.68	22394	
694.86	22951	
695.05	21799	
695.23	21916	
695.42	23627	
695.6	25394	
695.78	22549	
695.97	21640	
696.15	23591	
696.34	22930	
696.52	21463	
696.7	22069	
696.89	23089	
697.07	22569	
697.25	21547	
697.44	22795	
697.62	22646	
697.81	22762	
697.99	21024	
698.17	21441	
698.36	21922	
698.54	22339	
698.72	21344	
698.91	20399	
699.09	22020	
699.28	21756	
699.46	20696	
699.64	20547	
699.83	21556	
700.01	22145	
700.19	21035	
700.38	19903	
700.56	22324	
700.74	21700	
700.93	20179	
701.11	20784	
701.29	22206	
701.48	23171	
701.66	20530	
701.84	20731	
702.03	21876	
702.21	22743	
702.39	20225	
702.58	20886	
702.76	22365	
702.94	22498	
703.13	20239	
703.31	22156	
703.49	21749	
703.68	23014	
703.86	20168	
704.04	21073	
704.23	21824	
704.41	22215	
704.59	20248	
704.78	20939	
704.96	23089	
705.14	22096	
705.33	20131	
705.51	20542	
705.69	21492	
705.87	22274	
706.06	20723	
706.24	19860	
706.42	21714	
706.61	22044	
706.79	20395	
706.97	19598	
707.16	21227	
707.34	21410	
707.52	20056	
707.7	19914	
707.89	21169	
708.07	20904	
708.25	20270	
708.44	20577	
708.62	20999	
708.8	21459	
708.98	20198	
709.17	19587	
709.35	20844	
709.53	20846	
709.72	19049	
709.9	19292	
710.08	20948	
710.26	20912	
710.45	19893	
710.63	19096	
710.81	20416	
710.99	20347	
711.18	19198	
711.36	18615	
711.54	20056	
711.72	20442	
711.91	18475	
712.09	17917	
712.27	19562	
712.45	19936	
712.64	18000	
712.82	17380	
713	18563	
713.18	18641	
713.37	16913	
713.55	17724	
713.73	18716	
713.91	17213	
714.1	16356	
714.28	15423	
714.46	17143	
714.64	16194	
714.83	14095	
715.01	14009	
715.19	15184	
715.37	14270	
715.55	13066	
715.74	13123	
715.92	15028	
716.1	13362	
716.28	13705	
716.47	12804	
716.65	13597	
716.83	13695	
717.01	12541	
717.19	12282	
717.38	15068	
717.56	13252	
717.74	12633	
717.92	11974	
718.1	14315	
718.29	13737	
718.47	11972	
718.65	12686	
718.83	15051	
719.01	15098	
719.2	12921	
719.38	13969	
719.56	15241	
719.74	16498	
719.92	13512	
720.11	14289	
720.29	15076	
720.47	14218	
720.65	12549	
720.83	12960	
721.02	13708	
721.2	13381	
721.38	12384	
721.56	11620	
721.74	12598	
721.92	12503	
722.11	12420	
722.29	12235	
722.47	13561	
722.65	12978	
722.83	11280	
723.01	11945	
723.2	12748	
723.38	13191	
723.56	10864	
723.74	11710	
723.92	12443	
724.1	13285	
724.29	11224	
724.47	12078	
724.65	12594	
724.83	12195	
725.01	10886	
725.19	11501	
725.37	12032	
725.56	12067	
725.74	10647	
725.92	10936	
726.1	12062	
726.28	12297	
726.46	10923	
726.64	10710	
726.83	12086	
727.01	12259	
727.19	10457	
727.37	11128	
727.55	12286	
727.73	12496	
727.91	10397	
728.09	10210	
728.28	12594	
728.46	12693	
728.64	11076	
728.82	10948	
729	13263	
729.18	12875	
729.36	10596	
729.54	12215	
729.72	13966	
729.91	12639	
730.09	12242	
730.27	11342	
730.45	12482	
730.63	13051	
730.81	11852	
730.99	11091	
731.17	13564	
731.35	12430	
731.53	11482	
731.71	11302	
731.9	13125	
732.08	13111	
732.26	11166	
732.44	10907	
732.62	13051	
732.8	12636	
732.98	11371	
733.16	10604	
733.34	12303	
733.52	11340	
733.7	10658	
733.88	11007	
734.07	12129	
734.25	12050	
734.43	10251	
734.61	11463	
734.79	13215	
734.97	11948	
735.15	10266	
735.33	10514	
735.51	12034	
735.69	11706	
735.87	11272	
736.05	10462	
736.23	11839	
736.41	11387	
736.59	10350	
736.77	10403	
736.95	12054	
737.13	11554	
737.32	9980.4	
737.5	10148	
737.68	12380	
737.86	11312	
738.04	9608.4	
738.22	10950	
738.4	11066	
738.58	11254	
738.76	10023	
738.94	9206.3	
739.12	11035	
739.3	11036	
739.48	10387	
739.66	10260	
739.84	11277	
740.02	11102	
740.2	9153.7	
740.38	9337.4	
740.56	11383	
740.74	10412	
740.92	9719.7	
741.1	9628.9	
741.28	10717	
741.46	10519	
741.64	9289.6	
741.82	9598.8	
742	10650	
742.18	10619	
742.36	9318.9	
742.54	8938.7	
742.72	10955	
742.9	9914.9	
743.08	9397.4	
743.26	8512.7	
743.44	10908	
743.62	10699	
743.8	9400.2	
743.98	8686.1	
744.16	10383	
744.34	10137	
744.52	9198.1	
744.7	9017.9	
744.88	10368	
745.06	9871.9	
745.24	9050.7	
745.42	9019.9	
745.6	10292	
745.78	10117	
745.96	7918.8	
746.14	8143.4	
746.32	10688	
746.5	10048	
746.68	8465.6	
746.86	8035.5	
747.03	10299	
747.21	9040.4	
747.39	8330.5	
747.57	7834.2	
747.75	9551.7	
747.93	9811.1	
748.11	7814.4	
748.29	7789.8	
748.47	10857	
748.65	9237.7	
748.83	8280.6	
749.01	8206.2	
749.19	9616.6	
749.37	8951	
749.55	7971.4	
749.73	7976.2	
749.91	9415.9	
750.09	8974.2	
750.26	7970	
750.44	7471.7	
750.62	9235.7	
750.8	9110	
750.98	7383.6	
751.16	7571.3	
751.34	9268.4	
751.52	8776.9	
751.7	8179.6	
751.88	7255.3	
752.06	9518.3	
752.24	9206.3	
752.42	7170.6	
752.59	7395.2	
752.77	8892.3	
752.95	9894.4	
753.13	8007.6	
753.31	7536.5	
753.49	8619.9	
753.67	8920.3	
753.85	7638.2	
754.03	7190.4	
754.21	8946.9	
754.38	9176.3	
754.56	7030	
754.74	6223.8	
754.92	7987.1	
755.1	8380.3	
755.28	5885.2	
755.46	5755.5	
755.64	8492.9	
755.82	8331.8	
755.99	5270.1	
756.17	5119.9	
756.35	5837.4	
756.53	6868.2	
756.71	3980.6	
756.89	4678.9	
757.07	6467.5	
757.25	5838.1	
757.42	5240.8	
757.6	5932.3	
757.78	6825.2	
757.96	6182.1	
758.14	5356.8	
758.32	4911.7	
758.5	5901.6	
758.67	6453.8	
758.85	5105.6	
759.03	5197.1	
759.21	6540.5	
759.39	6105	
759.57	4770.4	
759.75	5579.3	
759.92	7179.5	
760.1	6698.9	
760.28	6053.8	
760.46	6276.3	
760.64	6540.5	
760.82	6523.5	
760.99	5920	
761.17	5498.1	
761.35	7332.4	
761.53	6569.9	
761.71	5720	
761.89	6211.5	
762.06	7355.6	
762.24	7041.6	
762.42	5920	
762.6	5612.1	
762.78	7073.7	
762.96	7662.8	
763.13	6290.7	
763.31	5997.8	
763.49	7708.6	
763.67	7087.3	
763.85	6631.3	
764.02	6990.4	
764.2	7980.9	
764.38	7274.4	
764.56	5841.5	
764.74	6484.6	
764.91	7931.8	
765.09	7068.2	
765.27	5567.1	
765.45	5414.1	
765.63	8006.2	
765.8	7802.1	
765.98	5154.7	
766.16	5423.7	
766.34	6683.2	
766.52	6414.9	
766.69	6132.3	
766.87	5124.7	
767.05	6937.2	
767.23	7518.1	
767.41	5373.2	
767.58	5489.9	
767.76	7228	
767.94	7202	
768.12	5384.8	
768.29	5868.1	
768.47	6771.9	
768.65	7352.2	
768.83	5018.9	
769	5829.9	
769.18	6416.3	
769.36	6920.1	
769.54	5811.5	
769.72	4857.1	
769.89	7131.7	
770.07	7081.9	
770.25	5142.4	
770.43	6094.1	
770.6	7654.6	
770.78	7747.5	
770.96	5226.4	
771.14	5638.7	
771.31	6930.3	
771.49	6339.8	
771.67	4490.5	
771.85	4672.1	
772.02	5781.4	
772.2	6309.1	
772.38	5187.5	
772.55	4831.2	
772.73	6555.5	
772.91	6285.9	
773.09	5059.2	
773.26	5049.6	
773.44	6356.2	
773.62	6093.4	
773.8	4630.5	
773.97	4375.1	
774.15	6438.1	
774.33	6014.9	
774.5	4472.8	
774.68	4758.8	
774.86	6305	
775.04	6065.4	
775.21	4450.2	
775.39	4441.4	
775.57	6224.5	
775.74	6399.2	
775.92	4274.8	
776.1	4240.7	
776.27	6078.4	
776.45	7012.9	
776.63	4341	
776.81	3973.1	
776.98	5864	
777.16	6531.7	
777.34	4439.3	
777.51	4663.9	
777.69	5740.5	
777.87	5599.8	
778.04	4447.5	
778.22	4853.7	
778.4	5569.1	
778.57	6077	
778.75	3788.7	
778.93	4070	
779.1	5332.2	
779.28	5195.7	
779.46	3758.7	
779.64	4135.5	
779.81	6172.6	
779.99	6768.5	
780.17	4691.9	
780.34	4790.9	
780.52	5668.8	
780.69	5816.9	
780.87	4437.9	
781.05	4011.3	
781.22	5698.8	
781.4	5729.5	
781.58	4065.2	
781.75	3409.2	
781.93	5571.8	
782.11	5079.6	
782.28	4775.2	
782.46	3981.9	
782.64	5000.5	
782.81	5717.9	
782.99	4106.2	
783.17	4030.4	
783.34	5652.4	
783.52	5025.7	
783.69	4132.1	
783.87	4767.7	
784.05	5067.4	
784.22	5029.1	
784.4	4746.5	
784.58	4244.1	
784.75	5795.8	
784.93	5084.4	
785.1	3922.5	
785.28	4435.2	
785.46	5578.7	
785.63	5032.5	
785.81	3929.4	
785.99	3732.1	
786.16	5160.2	
786.34	5383.4	
786.51	3809.9	
786.69	4074.1	
786.87	4694.6	
787.04	5192.3	
787.22	3609.9	
787.39	4364.9	
787.57	4959.5	
787.75	5855.8	
787.92	4511	
788.1	4476.2	
788.27	4880.3	
788.45	4706.2	
788.63	4212.7	
788.8	3213.3	
788.98	5364.3	
789.15	4657.1	
789.33	3363.4	
789.5	3813.3	
789.68	5625.1	
789.86	5721.3	
790.03	4147.1	
790.21	3682.9	
790.38	5640.8	
790.56	5023	
790.73	3551.2	
790.91	3590.8	
791.09	4873.5	
791.26	5482.4	
791.44	3769.6	
791.61	3334.1	
791.79	4873.5	
791.96	4863.2	
792.14	3390.1	
792.32	3059.7	
792.49	4859.8	
792.67	4945.8	
792.84	3502.7	
793.02	3317.7	
793.19	5243.5	
793.37	5695.4	
793.54	3045.3	
793.72	3373	
793.89	5804.6	
794.07	4843.4	
794.25	3819.5	
794.42	3069.9	
794.6	5600.5	
794.77	5270.8	
794.95	3943.7	
795.12	3573.7	
795.3	4767	
795.47	5247.6	
795.65	3851.5	
795.82	3683.6	
796	4685.1	
796.17	6107.7	
796.35	3577.8	
796.52	4203.8	
796.7	5272.2	
796.87	5294.7	
797.05	3630.4	
797.22	4237.2	
797.4	5269.4	
797.57	6059.9	
797.75	3728	
797.92	3532.1	
798.1	5576.6	
798.27	4690.5	
798.45	3096.5	
798.62	3261	
798.8	5012.7	
798.97	5393.7	
799.15	3876.8	
799.32	3651.5	
799.5	4394.9	
799.67	5020.9	
799.85	3955.3	
800.02	3020.1	
800.2	4724.7	
800.37	4969.7	
800.55	4065.9	
800.72	3487.7	
800.9	5319.9	
801.07	5653.8	
801.25	4506.9	
801.42	3776.5	
801.6	5392.3	
801.77	5075.5	
801.95	3560.7	
802.12	3446	
802.29	5141.1	
802.47	5059.2	
802.64	3819.5	
802.82	2929.3	
802.99	4704.2	
803.17	5466.7	
803.34	3610.6	
803.52	3338.2	
803.69	5923.4	
803.87	4472.1	
804.04	3607.8	
804.21	3696.6	
804.39	5609.4	
804.56	4845.5	
804.74	3145	
804.91	3730.7	
805.09	4681.7	
805.26	4797	
805.44	3153.9	
805.61	3474	
805.78	5171.8	
805.96	5216.2	
806.13	3677.5	
806.31	3964.9	
806.48	4280.3	
806.66	4724	
806.83	3670	
807	3589.4	
807.18	4621.6	
807.35	5010	
807.53	3642	
807.7	2961.4	
807.87	5513.1	
808.05	4687.1	
808.22	3860.4	
808.4	2973.7	
808.57	4629.8	
808.74	4371.7	
808.92	3356.6	
809.09	4162.2	
809.27	4615.4	
809.44	5017.5	
809.61	2953.2	
809.79	3243.3	
809.96	5570.5	
810.14	5253.7	
810.31	2882.2	
810.48	3484.3	
810.66	4714.4	
810.83	5256.5	
811.01	3320.4	
811.18	3595.6	
811.35	5195	
811.53	4208.6	
811.7	3911.6	
811.87	3701.4	
812.05	4678.2	
812.22	4638	
812.39	3252.9	
812.57	3130	
812.74	4647.5	
812.92	5954.8	
813.09	3435.1	
813.26	3659	
813.44	5732.3	
813.61	4529.4	
813.78	2893.1	
813.96	3760.8	
814.13	4631.1	
814.3	4466.6	
814.48	4119.8	
814.65	3436.5	
814.82	5504.9	
815	4388.1	
815.17	3543.7	
815.34	4149.2	
815.52	4577.9	
815.69	4539.7	
815.87	3448.8	
816.04	3421.5	
816.21	4615.4	
816.38	4147.1	
816.56	3366.2	
816.73	3142.9	
816.9	5700.2	
817.08	5153.4	
817.25	3220.8	
817.42	3910.3	
817.6	4240.7	
817.77	4572.4	
817.94	3562.8	
818.12	3142.3	
818.29	4392.2	
818.46	6367.1	
818.64	3297.2	
818.81	3080.8	
818.98	4330.1	
819.16	6012.2	
819.33	3693.2	
819.5	3508.2	
819.67	4882.4	
819.85	5398.4	
820.02	3474.7	
820.19	3596.9	
820.37	4810.7	
820.54	4574.5	
820.71	3577.8	
820.88	4306.2	
821.06	4752.7	
821.23	4405.9	
821.4	3580.5	
821.58	3522.5	
821.75	5134.3	
821.92	4749.2	
822.09	2914.3	
822.27	3162.1	
822.44	4657.8	
822.61	4513.7	
822.79	2946.3	
822.96	5272.8	
823.13	4917.2	
823.3	4326	
823.48	3303.4	
823.65	2997.5	
823.82	5243.5	
823.99	4238.6	
824.17	4129.4	
824.34	3078.8	
824.51	5930.2	
824.68	4664.6	
824.86	3201	
825.03	3477.5	
825.2	4587.4	
825.37	5398.4	
825.55	3118.4	
825.72	3458.3	
825.89	5844.2	
826.06	5507	
826.24	3409.2	
826.41	3443.3	
826.58	5467.4	
826.75	4857.1	
826.92	2800.9	
827.1	3059	
827.27	7174	
827.44	5774.6	
827.61	3218	
827.79	3891.1	
827.96	4387.4	
828.13	4616.8	
828.3	3396.9	
828.47	2908.8	
828.65	4852.3	
828.82	4789.5	
828.99	4193.6	
829.16	3743	
829.34	5134.9	
829.51	4969.1	
829.68	3528	
829.85	3552.5	
830.02	5420.3	
830.2	5194.3	
830.37	2770.9	
830.54	4051.6	
830.71	5732.9	
830.88	4621.6	
831.05	2721.8	
831.23	3142.3	
831.4	5580.7	
831.57	6040.8	
831.74	3231.7	
831.91	2883.5	
832.09	4878.3	
832.26	5114.5	
832.43	3241.3	
832.6	3683.6	
832.77	4786.1	
832.94	5427.8	
833.12	2742.9	
833.29	3216.7	
833.46	4696.7	
833.63	6200.6	
833.8	3560.1	
833.97	3330	
834.15	5115.8	
834.32	4971.1	
834.49	3489.1	
834.66	3503.4	
834.83	5301.5	
835	4440.7	
835.17	3181.9	
835.35	3241.3	
835.52	5083.1	
835.69	4941.1	
835.86	3381.2	
836.03	2775.7	
836.2	5102.2	
836.37	4755.4	
836.55	3322.5	
836.72	3112.9	
836.89	4798.4	
837.06	5229.8	
837.23	3414	
837.4	3704.1	
837.57	5742.5	
837.75	6189.6	
837.92	3094.5	
838.09	3208.5	
838.26	4799.1	
838.43	5319.3	
838.6	3460.4	
838.77	3089.7	
838.94	5930.2	
839.11	5749.3	
839.29	3340.9	
839.46	2671.9	
839.63	5198.4	
839.8	4842.1	
839.97	3246.7	
840.14	3233.1	
840.31	4958.8	
840.48	5130.8	
840.65	2714.2	
840.82	3140.9	
841	5089.9	
841.17	5057.1	
841.34	2937.5	
841.51	3050.1	
841.68	5006.6	
841.85	4797	
842.02	3126.6	
842.19	2644.6	
842.36	4927.4	
842.53	4876.2	
842.7	3007.1	
842.87	3565.5	
843.05	6253.8	
843.22	4831.2	
843.39	2833	
843.56	3129.3	
843.73	4733.5	
843.9	5119.2	
844.07	4641.4	
844.24	3931.4	
844.41	6978.8	
844.58	4474.1	
844.75	2887	
844.92	3039.2	
845.09	5027.1	
845.26	5066	
845.43	2981.2	
845.6	3086.3	
845.77	5083.7	
845.94	4885.1	
846.12	3251.5	
846.29	3421.5	
846.46	5306.3	
846.63	5058.5	
846.8	2968.2	
846.97	3492.5	
847.14	5436	
847.31	5048.9	
847.48	3283.6	
847.65	3605.1	
847.82	5261.9	
847.99	5194.3	
848.16	3842.7	
848.33	3622.2	
848.5	4727.4	
848.67	5413.5	
848.84	2928.6	
849.01	3065.1	
849.18	4642.7	
849.35	4375.1	
849.52	3609.9	
849.69	2908.8	
849.86	5266	
850.03	5368.4	
850.2	2967.5	
850.37	3553.9	
850.54	5251.7	
850.71	4786.1	
850.88	3493.2	
851.05	2881.5	
851.22	4990.9	
851.39	5483.8	
851.56	2818.7	
851.73	3321.1	
851.9	4557.4	
852.07	5247.6	
852.24	3266.5	
852.41	2914.3	
852.58	5017.5	
852.75	4556.7	
852.92	3236.5	
853.09	2856.9	
853.26	4678.9	
853.43	5387.5	
853.6	2925.9	
853.77	2527.9	
853.94	5477	
854.11	4468	
854.28	4227	
854.44	3149.8	
854.61	5810.1	
854.78	5270.8	
854.95	2912.9	
855.12	3580.5	
855.29	4199	
855.46	5511.8	
855.63	2922.5	
855.8	3982.6	
855.97	4622.9	
856.14	5316.5	
856.31	4053.6	
856.48	3169.6	
856.65	4743.1	
856.82	4515.1	
856.99	2841.9	
857.16	3097.2	
857.33	5950	
857.49	4788.8	
857.66	3134.8	
857.83	3362.1	
858	4773.8	
858.17	4932.9	
858.34	2814.6	
858.51	2982.5	
858.68	5562.3	
858.85	5523.4	
859.02	3355.9	
859.19	3559.4	
859.36	4504.8	
859.52	4535.6	
859.69	2919.7	
859.86	3432.4	
860.03	4512.4	
860.2	5512.4	
860.37	2697.2	
860.54	2973.7	
860.71	5244.8	
860.88	5532.9	
861.05	3254.9	
861.21	3645.4	
861.38	5507.7	
861.55	4362.9	
861.72	2716.3	
861.89	3259.7	
862.06	5286.5	
862.23	5579.3	
862.4	2850.1	
862.56	3051.5	
862.73	5145.9	
862.9	4859.8	
863.07	3358	
863.24	2690.3	
863.41	4397.7	
863.58	4485.7	
863.75	2970.2	
863.91	3351.2	
864.08	5389.6	
864.25	5063.9	
864.42	3534.8	
864.59	3971	
864.76	5757.5	
864.93	4496.7	
865.09	2853.5	
865.26	3106.8	
865.43	5459.9	
865.6	5673.6	
865.77	2650.8	
865.94	2877.4	
866.1	5384.1	
866.27	5161.6	
866.44	4279.6	
866.61	2818.7	
866.78	4773.1	
866.95	5127.4	
867.11	2865.8	
867.28	2650.1	
867.45	5377.3	
867.62	4500.8	
867.79	3275.4	
867.96	2895.8	
868.12	4416.1	
868.29	5210	
868.46	2970.2	
868.63	3841.3	
868.8	5268.1	
868.97	5127.4	
869.13	3056.3	
869.3	3030.3	
869.47	5052.3	
869.64	5305.6	
869.81	2956.6	
869.97	2946.3	
870.14	4989.5	
870.31	5501.5	
870.48	2877.4	
870.65	3648.8	
870.81	4743.1	
870.98	4784.1	
871.15	3303.4	
871.32	3046.7	
871.48	5109.7	
871.65	5538.4	
871.82	2903.3	
871.99	3173	
872.16	5876.3	
872.32	5410.7	
872.49	2955.9	
872.66	2909.5	
872.83	5237.3	
872.99	4619.5	
873.16	3312.2	
873.33	2910.2	
873.5	4882.4	
873.67	4888.5	
873.83	3117	
874	3851.5	
874.17	4984.8	
874.34	5732.3	
874.5	3704.1	
874.67	3526.6	
874.84	5475.6	
875.01	4388.8	
875.17	3976.5	
875.34	2899.9	
875.51	4956.8	
875.68	5910.4	
875.84	3496.6	
876.01	4155.3	
876.18	5181.4	
876.34	5156.8	
876.51	2893.1	
876.68	2923.1	
876.85	4756.1	
877.01	5395	
877.18	4051.6	
877.35	2851.5	
877.52	4889.9	
877.68	4442.7	
877.85	2829.6	
878.02	2870.6	
878.18	4790.9	
878.35	4668	
878.52	2398.2	
878.69	3200.3	
878.85	5259.2	
879.02	5096	
879.19	4062.5	
879.35	3137.5	
879.52	5172.5	
879.69	5243.5	
879.86	2597.5	
880.02	3205.8	
880.19	4862.6	
880.36	5765	
880.52	3284.9	
880.69	3402.4	
880.86	5251.7	
881.02	5248.9	
881.19	3176.4	
881.36	3084.9	
881.52	5197.7	
881.69	4622.9	
881.86	3140.2	
882.02	3091.8	
882.19	5366.4	
882.36	6146	
882.52	2990.7	
882.69	3963.5	
882.86	4988.9	
883.02	4889.9	
883.19	3450.1	
883.36	3332.7	
883.52	5175.2	
883.69	5883.8	
883.86	2923.8	
884.02	2676	
884.19	5236.7	
884.36	4869.4	
884.52	3231.7	
884.69	3102	
884.86	4697.4	
885.02	5568.4	
885.19	3225.6	
885.36	3249.4	
885.52	4805.2	
885.69	5018.2	
885.86	4119.1	
886.02	3652.2	
886.19	5189.6	
886.35	4713.1	
886.52	3218	
886.69	3951.2	
886.85	4480.3	
887.02	5464	
887.19	5464	
887.35	5464	
887.52	5464	
887.68	5464	
887.85	5464	
888.02	5464	
888.18	5464	
888.35	5464	
888.51	5464	
888.68	5464	
888.85	5464	
889.01	5464	
889.18	5464	
889.35	5464	
889.51	5464	
889.68	5464	
889.84	5464	
890.01	5464	
890.17	5464	
890.34	5464	
890.51	5464	
890.67	5464	
890.84	5464	
891	5464	
891.17	5464	
891.34	5464	
891.5	5464	
891.67	5464	
891.83	5464	
892	5464	
892.16	5464	
892.33	5464	
892.5	5464	
892.66	5464	
892.83	5464	
892.99	5464	
893.16	5464	
893.32	5464	
893.49	5464	
893.65	5464	
893.82	5464	
893.99	5464	
894.15	5464	
894.32	5464	
894.48	5464	
894.65	5464	
894.81	5464	
894.98	5464	
895.14	5464	
895.31	5464	
895.47	5464	
895.64	5464	
895.81	5464	
895.97	5464	
896.14	5464	
896.3	5464	
896.47	5464	
896.63	5464	
896.8	5464	
896.96	5464	
897.13	5464	
897.29	5464	
897.46	5464	
897.62	5464	
897.79	5464	
897.95	5464	
898.12	5464	
898.28	5464	
898.45	5464	
898.61	5464	
898.78	5464	
898.94	5464	
899.11	5464	
899.27	5464	
899.44	5464	
899.6	5464	
899.77	5464	
899.93	5464	
900.1	5464	
900.26	5464	
900.43	5464	
900.59	5464	
900.76	5464	
900.92	5464	
901.09	5464	
901.25	5464	
901.42	5464	
901.58	5464	
901.75	5464	
901.91	5464	
902.07	5464	
902.24	5464	
902.4	5464	
902.57	5464	
902.73	5464	
902.9	5464	
903.06	5464	
903.23	5464	
903.39	5464	
903.56	5464	
903.72	5464	
903.88	5464	
904.05	5464	
904.21	5464	
904.38	5464	
904.54	5464	
904.71	5464	
904.87	5464	
905.03	5464	
905.2	5464	
905.36	5464	
905.53	5464	
905.69	5464	
905.86	5464	
906.02	5464	
906.18	5464	
906.35	5464	
906.51	5464	
906.68	5464	
906.84	5464	
907.01	5464	
907.17	5464	
907.33	5464	
907.5	5464	
907.66	5464	
907.83	5464	
907.99	5464	
908.15	5464	
908.32	5464	
908.48	5464	
908.65	5464	
908.81	5464	
908.97	5464	
909.14	5464	
909.3	5464	
909.47	5464	
909.63	5464	
909.79	5464	
909.96	5464	
910.12	5464	
910.28	5464	
910.45	5464	
910.61	5464	
910.78	5464	
910.94	5464	
911.1	5464	
911.27	5464	
911.43	5464	
911.59	5464	
911.76	5464	
911.92	5464	
912.08	5464	
912.25	5464	
912.41	5464	
912.57	5464	
912.74	5464	
912.9	5464	
913.07	5464	
913.23	5464	
913.39	5464	
913.56	5464	
913.72	5464	
913.88	5464	
914.05	5464	
914.21	5464	
914.37	5464	
914.54	5464	
914.7	5464	
914.86	5464	
915.03	5464	
915.19	5464	
