Wavelength	Intensities	
nm	a.u.	
179.22	1543.5	
179.44	1531.9	
179.65	1555.1	
179.86	1508.7	
180.08	1514.1	
180.29	3278.1	
180.51	2652.8	
180.72	4476.2	
180.94	4888.5	
181.15	2352.4	
181.37	2377.7	
181.58	4321.2	
181.79	4401.8	
182.01	2486.2	
182.22	2503.3	
182.44	4491.9	
182.65	3971.7	
182.87	3011.9	
183.08	2748.4	
183.29	4702.1	
183.51	4005.8	
183.72	2503.3	
183.94	3428.3	
184.15	4286.4	
184.37	4150.6	
184.58	2321.7	
184.79	2837.1	
185.01	4107.5	
185.22	4579.3	
185.44	2951.8	
185.65	2654.2	
185.86	4304.1	
186.08	4000.4	
186.29	2297.8	
186.51	2418.7	
186.72	4066.6	
186.94	4571.7	
187.15	2689.7	
187.36	2805	
187.58	5444.9	
187.79	4354	
188.01	2746.3	
188.22	3950.5	
188.43	4883	
188.65	4440.7	
188.86	2450.7	
189.08	2792.1	
189.29	4117.8	
189.5	4103.4	
189.72	2536.8	
189.93	2566.8	
190.15	4551.3	
190.36	5137.7	
190.57	2768.9	
190.79	2654.2	
191	4579.9	
191.22	4556.7	
191.43	2772.3	
191.64	2475.3	
191.86	4683	
192.07	4552	
192.29	2475.3	
192.5	2578.4	
192.71	4632.5	
192.93	4192.9	
193.14	2545.6	
193.35	2620.7	
193.57	4080.9	
193.78	4640.7	
194	2165.4	
194.21	2499.9	
194.42	3949.2	
194.64	4262.5	
194.85	2661.7	
195.07	3054.9	
195.28	4234.5	
195.49	3855	
195.71	3149.1	
195.92	2422.1	
196.13	4442.7	
196.35	4392.9	
196.56	3370.3	
196.78	2757.2	
196.99	5117.9	
197.2	4837.3	
197.42	2979.1	
197.63	2714.2	
197.84	3920.5	
198.06	4367	
198.27	2553.1	
198.48	3087.7	
198.7	4113	
198.91	4283	
199.13	2800.3	
199.34	2697.2	
199.55	4654.4	
199.77	3747.1	
199.98	2491.7	
200.19	2785.2	
200.41	4278.2	
200.62	4031.1	
200.83	2793.4	
201.05	3006.4	
201.26	4284.4	
201.47	4122.6	
201.69	2457.6	
201.9	2458.9	
202.11	4294.6	
202.33	4752	
202.54	2565.4	
202.76	2852.1	
202.97	4314.4	
203.18	4392.2	
203.4	2868.5	
203.61	2907.4	
203.82	4304.8	
204.04	4024.9	
204.25	2719	
204.46	2736.8	
204.68	4216.8	
204.89	4372.4	
205.1	2640.5	
205.32	2434.4	
205.53	4450.9	
205.74	4507.6	
205.96	2185.2	
206.17	2734.7	
206.38	4434.5	
206.6	4523.3	
206.81	2992.8	
207.02	2589.3	
207.24	4451.6	
207.45	4670.1	
207.66	2699.9	
207.88	2402.3	
208.09	4315.1	
208.3	4246.8	
208.52	2506	
208.73	2676.7	
208.94	4209.9	
209.15	4643.4	
209.37	2652.1	
209.58	2690.3	
209.79	4527.4	
210.01	4100.7	
210.22	2254.8	
210.43	2357.2	
210.65	4207.2	
210.86	4427	
211.07	2569.5	
211.29	2461	
211.5	4381.3	
211.71	4197.7	
211.93	2472.6	
212.14	2491	
212.35	4243.4	
212.56	4239.3	
212.78	2745.6	
212.99	2369.5	
213.2	4803.2	
213.42	4188.8	
213.63	2551.1	
213.84	2631	
214.06	3979.2	
214.27	3956.7	
214.48	2583.2	
214.69	2809.8	
214.91	4628.4	
215.12	4675.5	
215.33	2766.8	
215.55	2919	
215.76	4932.2	
215.97	4377.9	
216.18	2676.7	
216.4	2708.1	
216.61	4050.2	
216.82	4524	
217.04	2499.9	
217.25	2559.3	
217.46	4625.7	
217.67	4442.7	
217.89	2316.9	
218.1	2362.7	
218.31	4270.7	
218.53	4330.8	
218.74	2621.4	
218.95	2523.1	
219.16	4235.9	
219.38	4820.2	
219.59	2485.6	
219.8	2860.3	
220.01	4988.2	
220.23	4248.2	
220.44	3072	
220.65	2462.3	
220.87	4334.9	
221.08	4633.2	
221.29	2461.7	
221.5	2936.8	
221.72	5270.1	
221.93	4050.2	
222.14	2781.1	
222.35	3150.5	
222.57	4295.3	
222.78	4478.2	
222.99	2674	
223.2	2725.8	
223.42	4394.9	
223.63	4435.2	
223.84	2167.4	
224.05	2165.4	
224.27	4906.3	
224.48	4716.5	
224.69	3158	
224.9	2736.1	
225.12	4284.4	
225.33	4246.1	
225.54	2323.8	
225.75	2498.5	
225.97	4019.5	
226.18	4233.2	
226.39	2628.2	
226.6	2529.2	
226.82	4138.9	
227.03	3980.6	
227.24	2737.5	
227.45	2381.1	
227.67	4529.4	
227.88	4697.4	
228.09	3044.6	
228.3	2951.1	
228.52	4465.9	
228.73	4216.8	
228.94	2558.6	
229.15	2391.3	
229.36	4273.4	
229.58	4255.7	
229.79	2650.8	
230	2897.9	
230.21	4891.9	
230.43	4267.3	
230.64	2700.6	
230.85	2747	
231.06	4522.6	
231.28	4472.1	
231.49	2355.8	
231.7	2746.3	
231.91	4460.5	
232.12	4225	
232.34	2465.8	
232.55	2636.4	
232.76	4612.7	
232.97	4310.3	
233.18	2479.4	
233.4	2714.2	
233.61	4304.1	
233.82	4091.8	
234.03	2587.9	
234.25	2583.2	
234.46	5321.3	
234.67	4257	
234.88	2788	
235.09	2520.4	
235.31	4286.4	
235.52	4219.5	
235.73	2719	
235.94	2340.8	
236.15	4073.4	
236.37	4842.8	
236.58	2510.8	
236.79	2600.2	
237	4418.2	
237.21	3917.1	
237.43	2808.4	
237.64	2347	
237.85	6386.2	
238.06	4043.4	
238.27	2790.7	
238.48	2441.2	
238.7	4525.3	
238.91	4239.3	
239.12	2639.1	
239.33	2798.9	
239.54	4035.2	
239.76	4114.4	
239.97	2703.3	
240.18	2686.9	
240.39	4829.1	
240.6	4357.4	
240.82	2798.2	
241.03	2379.1	
241.24	4243.4	
241.45	4663.9	
241.66	2506	
241.87	2865.8	
242.09	4721.3	
242.3	4827.7	
242.51	2811.2	
242.72	2635.7	
242.93	4433.2	
243.14	4191.5	
243.36	3007.1	
243.57	3161.4	
243.78	4693.9	
243.99	4397.7	
244.2	2661	
244.41	2377	
244.63	3932.1	
244.84	4369.7	
245.05	2795.5	
245.26	2652.1	
245.47	4500.1	
245.68	4506.2	
245.9	3291.1	
246.11	2761.3	
246.32	4099.4	
246.53	4470	
246.74	4000.4	
246.95	2336	
247.16	4114.4	
247.38	4242.7	
247.59	2422.7	
247.8	2634.4	
248.01	3890.5	
248.22	4211.3	
248.43	2460.3	
248.64	2639.1	
248.86	3984	
249.07	4113	
249.28	2462.3	
249.49	2695.1	
249.7	4538.3	
249.91	4530.8	
250.12	2370.9	
250.34	2385.9	
250.55	4274.8	
250.76	4272.7	
250.97	2732	
251.18	2730.6	
251.39	4523.3	
251.6	4391.5	
251.81	2788	
252.03	2721.1	
252.24	4103.4	
252.45	4378.6	
252.66	2388.6	
252.87	2833	
253.08	4229.1	
253.29	5127.4	
253.5	2445.3	
253.72	3119.1	
253.93	4184.7	
254.14	4727.4	
254.35	2607.1	
254.56	2606.4	
254.77	4313	
254.98	4052.9	
255.19	2616.6	
255.41	3133.4	
255.62	4389.5	
255.83	4583.4	
256.04	2841.2	
256.25	2699.9	
256.46	4885.1	
256.67	4040	
256.88	2740.9	
257.09	2907.4	
257.31	3925.3	
257.52	4020.2	
257.73	3336.8	
257.94	2609.8	
258.15	4240	
258.36	4216.8	
258.57	3053.5	
258.78	2146.3	
258.99	4558.8	
259.2	4136.2	
259.41	2565.4	
259.63	2620.7	
259.84	4694.6	
260.05	4829.8	
260.26	3138.2	
260.47	2510.1	
260.68	4591.5	
260.89	4155.3	
261.1	2977.1	
261.31	2461.7	
261.52	4720.6	
261.73	4746.5	
261.95	3136.8	
262.16	2763.4	
262.37	4596.3	
262.58	4670.7	
262.79	3125.9	
263	2564.7	
263.21	4280.3	
263.42	4102.1	
263.63	2748.4	
263.84	2590.7	
264.05	4582	
264.26	4702.1	
264.47	3041.2	
264.69	2782.5	
264.9	4697.4	
265.11	4293.2	
265.32	2474.6	
265.53	2506	
265.74	4306.9	
265.95	3837.2	
266.16	2630.3	
266.37	2856.2	
266.58	4306.9	
266.79	4070	
267	2534.7	
267.21	2424.8	
267.42	4020.2	
267.63	4254.3	
267.84	2634.4	
268.06	2392.7	
268.27	4495.3	
268.48	4550.6	
268.69	2604.3	
268.9	2893.8	
269.11	4442	
269.32	3816.7	
269.53	2654.9	
269.74	2524.5	
269.95	4347.2	
270.16	3926.6	
270.37	2688.3	
270.58	3003	
270.79	4171.7	
271	4499.4	
271.21	2740.2	
271.42	2725.2	
271.63	4418.8	
271.84	3898	
272.05	2258.2	
272.26	2462.3	
272.47	4229.7	
272.68	4293.2	
272.89	2574.3	
273.11	2870.6	
273.32	4052.9	
273.53	4731.5	
273.74	2777	
273.95	2858.3	
274.16	4440	
274.37	4188.1	
274.58	2859	
274.79	2398.2	
275	4358.8	
275.21	4563.6	
275.42	3320.4	
275.63	2882.2	
275.84	4455	
276.05	5195.7	
276.26	2733.4	
276.47	2609.8	
276.68	4304.1	
276.89	4834.6	
277.1	2891.7	
277.31	2394.1	
277.52	4378.6	
277.73	4663.9	
277.94	2368.1	
278.15	2585.2	
278.36	4373.1	
278.57	4089.1	
278.78	2579.8	
278.99	2771.6	
279.2	4134.2	
279.41	4059.8	
279.62	3257.6	
279.83	2420	
280.04	4949.9	
280.25	4051.6	
280.46	3161.4	
280.67	2622.1	
280.88	4108.2	
281.09	4565.6	
281.3	2805.7	
281.51	3296.5	
281.72	4132.1	
281.93	4387.4	
282.14	2587.9	
282.35	2733.4	
282.56	4588.1	
282.77	4453	
282.98	2645.3	
283.19	2990	
283.4	5197.1	
283.61	4163.5	
283.82	2444.6	
284.03	3138.9	
284.24	4459.8	
284.45	4498.7	
284.66	3233.7	
284.87	2990	
285.08	4674.1	
285.29	4725.3	
285.5	2399.5	
285.71	2618	
285.92	4515.1	
286.12	4904.2	
286.33	3149.1	
286.54	2658.9	
286.75	4484.4	
286.96	4200.4	
287.17	2477.4	
287.38	2979.8	
287.59	4109.6	
287.8	4157.4	
288.01	2597.5	
288.22	2849.4	
288.43	4256.4	
288.64	3859.7	
288.85	3035.1	
289.06	2876.7	
289.27	4526.7	
289.48	4663.9	
289.69	3211.9	
289.9	2885.6	
290.11	4661.9	
290.32	4160.1	
290.53	2992.1	
290.74	2787.3	
290.94	4503.5	
291.15	4474.1	
291.36	2592	
291.57	2834.4	
291.78	4199	
291.99	3885	
292.2	2524.5	
292.41	2851.5	
292.62	4547.2	
292.83	4415.4	
293.04	3313.6	
293.25	2566.8	
293.46	4182	
293.67	4548.5	
293.88	2507.4	
294.09	2478	
294.29	4037.9	
294.5	4291.2	
294.71	2674	
294.92	2554.5	
295.13	4156.7	
295.34	4869.4	
295.55	2348.3	
295.76	2315.6	
295.97	4466.6	
296.18	4840	
296.39	2410.5	
296.6	2527.2	
296.81	4231.1	
297.01	4458.4	
297.22	2653.5	
297.43	2504.7	
297.64	4184.7	
297.85	4014.7	
298.06	2218	
298.27	2359.3	
298.48	4197	
298.69	4105.5	
298.9	2771.6	
299.11	2499.2	
299.31	4061.8	
299.52	4091.8	
299.73	2859.6	
299.94	2748.4	
300.15	4289.1	
300.36	4081.6	
300.57	2788.7	
300.78	2792.1	
300.99	4171	
301.2	4313	
301.4	2621.4	
301.61	2673.3	
301.82	4395.6	
302.03	4520.5	
302.24	2982.5	
302.45	2463	
302.66	4422.2	
302.87	4545.1	
303.08	2515.6	
303.29	3233.1	
303.49	4193.6	
303.7	4188.8	
303.91	2357.2	
304.12	3059	
304.33	3857.7	
304.54	4388.8	
304.75	2594.8	
304.96	2541.5	
305.16	4435.9	
305.37	4787.5	
305.58	2336.7	
305.79	2315.6	
306	4440	
306.21	3912.3	
306.42	2525.1	
306.63	3522.5	
306.83	4163.5	
307.04	4427.7	
307.25	2721.1	
307.46	2667.8	
307.67	3900	
307.88	4428.4	
308.09	2576.3	
308.29	2514.2	
308.5	4326	
308.71	4541	
308.92	2680.8	
309.13	2432.3	
309.34	4291.9	
309.55	4184	
309.75	3044.6	
309.96	2789.3	
310.17	4425.7	
310.38	4044.1	
310.59	2824.1	
310.8	2785.2	
311.01	4812.7	
311.21	4227.7	
311.42	2474.6	
311.63	2488.3	
311.84	4155.3	
312.05	4201.7	
312.26	2770.2	
312.46	2980.5	
312.67	4130.1	
312.88	3900	
313.09	2421.4	
313.3	2472.6	
313.51	4612.7	
313.71	4842.1	
313.92	2535.4	
314.13	2555.2	
314.34	4420.9	
314.55	4258.4	
314.76	2970.2	
314.96	2683.5	
315.17	4377.9	
315.38	4309.6	
315.59	2511.5	
315.8	2396.8	
316.01	4595.6	
316.21	4769	
316.42	2435	
316.63	2745.6	
316.84	4151.2	
317.05	4496	
317.26	2852.1	
317.46	2568.2	
317.67	4223.6	
317.88	4437.3	
318.09	2981.8	
318.3	2385.9	
318.5	4166.3	
318.71	4382.7	
318.92	3581.2	
319.13	2828.2	
319.34	4490.5	
319.54	4562.9	
319.75	2372.2	
319.96	2245.9	
320.17	4379.9	
320.38	4538.3	
320.58	2316.3	
320.79	2673.3	
321	4578.6	
321.21	4668	
321.42	2747.7	
321.62	2362.7	
321.83	4088.4	
322.04	4281.6	
322.25	2648.7	
322.46	2486.2	
322.66	4258.4	
322.87	4505.5	
323.08	2886.3	
323.29	2407.7	
323.5	4879.6	
323.7	3981.3	
323.91	3143.6	
324.12	2862.4	
324.33	4384.7	
324.53	4410	
324.74	2793.4	
324.95	2877.4	
325.16	3964.9	
325.37	4126	
325.57	2508.1	
325.78	2498.5	
325.99	4415.4	
326.2	3909.6	
326.4	3244	
326.61	2339.5	
326.82	4206.5	
327.03	4302.1	
327.24	3229.6	
327.44	3081.5	
327.65	4431.1	
327.86	3784	
328.07	2796.8	
328.27	2439.1	
328.48	4699.4	
328.69	3982.6	
328.9	3254.9	
329.1	2567.5	
329.31	4256.4	
329.52	4666.6	
329.73	2504.7	
329.93	2601.6	
330.14	4308.9	
330.35	4296	
330.56	3644	
330.76	2884.2	
330.97	4183.3	
331.18	4300.1	
331.39	2668.5	
331.59	2298.5	
331.8	4583.4	
332.01	4632.5	
332.22	2547	
332.42	2714.9	
332.63	4342.4	
332.84	4048.2	
333.05	2683.5	
333.25	2472.6	
333.46	4005.1	
333.67	4217.5	
333.88	2609.8	
334.08	2770.2	
334.29	5182.7	
334.5	4506.2	
334.7	2480.1	
334.91	3163.4	
335.12	3997.6	
335.33	4420.9	
335.53	2720.4	
335.74	3569.6	
335.95	4247.5	
336.16	3867.2	
336.36	2667.8	
336.57	2974.3	
336.78	3877.5	
336.98	4527.4	
337.19	3165.5	
337.4	2597.5	
337.61	4896.7	
337.81	3950.5	
338.02	2574.3	
338.23	2987.3	
338.43	4674.1	
338.64	4089.1	
338.85	2532.7	
339.05	3102.7	
339.26	4772.4	
339.47	3910.9	
339.68	2495.1	
339.88	3352.5	
340.09	4468	
340.3	4547.2	
340.5	2801.6	
340.71	2295.1	
340.92	4004.5	
341.13	4614.8	
341.33	2379.7	
341.54	2784.6	
341.75	4404.5	
341.95	4086.4	
342.16	2742.9	
342.37	2862.4	
342.57	3994.2	
342.78	4212.7	
342.99	2909.5	
343.19	2332	
343.4	4494.6	
343.61	4370.4	
343.81	2669.9	
344.02	2377.7	
344.23	4481.6	
344.43	4661.2	
344.64	2933.4	
344.85	2910.2	
345.06	4414.1	
345.26	4569.7	
345.47	2819.4	
345.68	3168.2	
345.88	3974.4	
346.09	4474.8	
346.3	2844.6	
346.5	2254.1	
346.71	4144.4	
346.92	4050.2	
347.12	2405	
347.33	2766.8	
347.54	4539	
347.74	4742.4	
347.95	2812.5	
348.16	2241.2	
348.36	4091.2	
348.57	3998.3	
348.78	2825.5	
348.98	2933.4	
349.19	4199.7	
349.39	3824.9	
349.6	2415.2	
349.81	2499.2	
350.01	4444.8	
350.22	4024.3	
350.43	2751.8	
350.63	3104.7	
350.84	4216.8	
351.05	4028.4	
351.25	2470.5	
351.46	2366.8	
351.67	4420.9	
351.87	4004.5	
352.08	2646.7	
352.29	2922.5	
352.49	4480.3	
352.7	4296	
352.9	2444.6	
353.11	2900.6	
353.32	4826.4	
353.52	4108.9	
353.73	2450.1	
353.94	2918.4	
354.14	4371	
354.35	4181.3	
354.55	2524.5	
354.76	2682.2	
354.97	4364.2	
355.17	4151.2	
355.38	2467.1	
355.59	3055.6	
355.79	4033.8	
356	4179.2	
356.2	2713.6	
356.41	2474.6	
356.62	3926	
356.82	4119.8	
357.03	2906.8	
357.24	2625.5	
357.44	3962.8	
357.65	4072.7	
357.85	3253.5	
358.06	2757.2	
358.27	3907.5	
358.47	3931.4	
358.68	2384.5	
358.88	2864.4	
359.09	4349.2	
359.3	4459.8	
359.5	3210.5	
359.71	2919.7	
359.91	4684.4	
360.12	4300.7	
360.33	2862.4	
360.53	3073.3	
360.74	4055	
360.94	4048.8	
361.15	2956.6	
361.36	2535.4	
361.56	4490.5	
361.77	4190.8	
361.97	3190.1	
362.18	2638.5	
362.38	4535.6	
362.59	3958	
362.8	2464.4	
363	2430.9	
363.21	3885.7	
363.41	4211.3	
363.62	2795.5	
363.83	3226.9	
364.03	4435.9	
364.24	4715.1	
364.44	3334.8	
364.65	3318.4	
364.85	4174.4	
365.06	3994.9	
365.27	2572.2	
365.47	2745.6	
365.68	4732.9	
365.88	4132.8	
366.09	2840.5	
366.29	2621.4	
366.5	4250.2	
366.71	4504.8	
366.91	3330	
367.12	2960.7	
367.32	4827.1	
367.53	4387.4	
367.73	2958.6	
367.94	3448.1	
368.14	4477.5	
368.35	4750.6	
368.56	2868.5	
368.76	2557.9	
368.97	4503.5	
369.17	5229.1	
369.38	2594.1	
369.58	2746.3	
369.79	3844.7	
369.99	4690.5	
370.2	3364.1	
370.4	2781.8	
370.61	4279.6	
370.82	5016.2	
371.02	2820.7	
371.23	2410.5	
371.43	4004.5	
371.64	4701.5	
371.84	2799.6	
372.05	3383.2	
372.25	5231.2	
372.46	4312.3	
372.66	2757.2	
372.87	2777.7	
373.07	4438.6	
373.28	5326.1	
373.48	3300	
373.69	3063.8	
373.9	4270.7	
374.1	4226.3	
374.31	3340.2	
374.51	3001	
374.72	4625.7	
374.92	4083	
375.13	3315	
375.33	2915.6	
375.54	4363.5	
375.74	4097.3	
375.95	3015.3	
376.15	3584.6	
376.36	4508.9	
376.56	4395.6	
376.77	2944.3	
376.97	3231.7	
377.18	5083.1	
377.38	4485.7	
377.59	3316.3	
377.79	2762.7	
378	4363.5	
378.2	4534.2	
378.41	2760	
378.61	2734.7	
378.82	4595.6	
379.02	4198.3	
379.23	2856.2	
379.43	3374.4	
379.64	4863.2	
379.84	4487.8	
380.05	2824.8	
380.25	2715.6	
380.46	4554.7	
380.66	4261.1	
380.87	3491.8	
381.07	3665.9	
381.28	4890.5	
381.48	4510.3	
381.69	2768.9	
381.89	2795.5	
382.1	3990.8	
382.3	4519.2	
382.51	3338.9	
382.71	3824.2	
382.91	4446.1	
383.12	4827.7	
383.32	2925.2	
383.53	3070.6	
383.73	4425.7	
383.94	4291.9	
384.14	3021.4	
384.35	2612.5	
384.55	4187.4	
384.76	4433.9	
384.96	3026.2	
385.17	3152.5	
385.37	4502.8	
385.58	4090.5	
385.78	3099.9	
385.98	2597.5	
386.19	4220.2	
386.39	4528.1	
386.6	2851.5	
386.8	2990	
387.01	4459.1	
387.21	4574.5	
387.42	3177.1	
387.62	3457	
387.83	4189.5	
388.03	4291.2	
388.23	3037.8	
388.44	3460.4	
388.64	3958.7	
388.85	3999.7	
389.05	3154.6	
389.26	3507.5	
389.46	5282.4	
389.67	4835.9	
389.87	3186.6	
390.07	3247.4	
390.28	4281.6	
390.48	4063.2	
390.69	2770.9	
390.89	3015.3	
391.1	4237.9	
391.3	4712.4	
391.5	3618.8	
391.71	3865.9	
391.91	4621.6	
392.12	4948.6	
392.32	3652.2	
392.53	3221.5	
392.73	4337.6	
392.93	4361.5	
393.14	3090.4	
393.34	3430.3	
393.55	4700.1	
393.75	4301.4	
393.95	3035.8	
394.16	2944.3	
394.36	4256.4	
394.57	4619.5	
394.77	2772.3	
394.98	2938.8	
395.18	4155.3	
395.38	4214.7	
395.59	3511.6	
395.79	2855.6	
396	4317.8	
396.2	4601.1	
396.4	3367.5	
396.61	3310.9	
396.81	4607.9	
397.02	4267.3	
397.22	3476.8	
397.42	3518.4	
397.63	4712.4	
397.83	4227	
398.04	2911.5	
398.24	3140.2	
398.44	4558.8	
398.65	3939.6	
398.85	2809.1	
399.05	2848	
399.26	4264.6	
399.46	5182	
399.67	3158	
399.87	2922.5	
400.07	4463.9	
400.28	4659.1	
400.48	3022.1	
400.69	3534.1	
400.89	4652.3	
401.09	5057.8	
401.3	2923.1	
401.5	3497.2	
401.7	5015.5	
401.91	5256.5	
402.11	3195.5	
402.32	3231	
402.52	4845.5	
402.72	4722.6	
402.93	3357.3	
403.13	2778.4	
403.33	5241.4	
403.54	4464.6	
403.74	3207.1	
403.94	3693.2	
404.15	4496.7	
404.35	5190.2	
404.56	3103.4	
404.76	3980.6	
404.96	4777.9	
405.17	4627.7	
405.37	3454.9	
405.57	3340.9	
405.78	4795.7	
405.98	4407.2	
406.18	3148.4	
406.39	3546.4	
406.59	4792.9	
406.79	4450.9	
407	2965.5	
407.2	3037.8	
407.4	4995.7	
407.61	4853.7	
407.81	3016	
408.01	4151.2	
408.22	4044.7	
408.42	5244.2	
408.62	3630.4	
408.83	3354.6	
409.03	4573.8	
409.23	4524.6	
409.44	3435.1	
409.64	3549.1	
409.84	5184.8	
410.05	5126.1	
410.25	3577.8	
410.45	3430.3	
410.66	4893.3	
410.86	6244.9	
411.06	3694.5	
411.27	3529.3	
411.47	6046.3	
411.67	4877.6	
411.88	3732.8	
412.08	3863.2	
412.28	5241.4	
412.49	5512.4	
412.69	3609.2	
412.89	3596.2	
413.09	5461.2	
413.3	5384.1	
413.5	3703.4	
413.7	3531.4	
413.91	4986.8	
414.11	5467.4	
414.31	3586	
414.52	3808.5	
414.72	5366.4	
414.92	5225.7	
415.12	3657.7	
415.33	3936.9	
415.53	5455.8	
415.73	5600.5	
415.94	4072	
416.14	3731.4	
416.34	5020.3	
416.55	4820.2	
416.75	4393.6	
416.95	4108.9	
417.15	5580.7	
417.36	5840.8	
417.56	4558.1	
417.76	4008.6	
417.97	5676.3	
418.17	5446.2	
418.37	3908.2	
418.57	3777.1	
418.78	5494.7	
418.98	5302.9	
419.18	4284.4	
419.38	4332.8	
419.59	5214.1	
419.79	5053.7	
419.99	3704.1	
420.2	3967.6	
420.4	5531.6	
420.6	5608.7	
420.8	3764.8	
421.01	3748.5	
421.21	5529.5	
421.41	5442.1	
421.61	3907.5	
421.82	3827.7	
422.02	5220.3	
422.22	5744.6	
422.42	4244.1	
422.63	4010.6	
422.83	5250.3	
423.03	5874.9	
423.23	4065.2	
423.44	3525.9	
423.64	5246.9	
423.84	5056.4	
424.04	3795.6	
424.25	3589.4	
424.45	5811.5	
424.65	5707.7	
424.85	3537.5	
425.06	3736.9	
425.26	5927.5	
425.46	5167	
425.66	4014	
425.87	3808.5	
426.07	5625.1	
426.27	5447.6	
426.47	3979.2	
426.67	3547.1	
426.88	5915.9	
427.08	5479.7	
427.28	4200.4	
427.48	3544.4	
427.69	4934.9	
427.89	5266	
428.09	3966.2	
428.29	3525.2	
428.5	5489.9	
428.7	5470.1	
428.9	3545.7	
429.1	3723.9	
429.3	5448.3	
429.51	5418.9	
429.71	3719.1	
429.91	4194.9	
430.11	5658.5	
430.31	5811.5	
430.52	3906.2	
430.72	3977.8	
430.92	5814.9	
431.12	5519.3	
431.32	3682.9	
431.53	3997	
431.73	4969.1	
431.93	5909.1	
432.13	3661.1	
432.33	3620.1	
432.54	5329.5	
432.74	5355.4	
432.94	3568.9	
433.14	4174.4	
433.34	5711.8	
433.55	5412.1	
433.75	4181.3	
433.95	5079	
434.15	5552	
434.35	5249.6	
434.56	3747.8	
434.76	3497.2	
434.96	5448.3	
435.16	5643.5	
435.36	3740.3	
435.56	4356.7	
435.77	5335.6	
435.97	5425.8	
436.17	4686.4	
436.37	4232.5	
436.57	5252.4	
436.78	5231.9	
436.98	4271.4	
437.18	4587.4	
437.38	5582.1	
437.58	5314.5	
437.78	4623.6	
437.99	3940.3	
438.19	5686.5	
438.39	6122.1	
438.59	3986	
438.79	3621.5	
438.99	5950	
439.2	5363.6	
439.4	3609.9	
439.6	3682.2	
439.8	5421.7	
440	6041.5	
440.2	4263.2	
440.4	4205.8	
440.61	5834.7	
440.81	6001.9	
441.01	3848.8	
441.21	4288.4	
441.41	6094.1	
441.61	5782.8	
441.81	4534.9	
442.02	5025	
442.22	6318	
442.42	5915.9	
442.62	3945.1	
442.82	3944.4	
443.02	6173.3	
443.22	5658.5	
443.43	4179.2	
443.63	3896.6	
443.83	5546.6	
444.03	5470.1	
444.23	4580.6	
444.43	4390.8	
444.63	5727.5	
444.83	6310.5	
445.04	4087.1	
445.24	4575.2	
445.44	5918.6	
445.64	5933	
445.84	4439.3	
446.04	4418.2	
446.24	5591	
446.44	6118.6	
446.65	3945.8	
446.85	4212.7	
447.05	5782.8	
447.25	6076.3	
447.45	4240	
447.65	3884.3	
447.85	5827.2	
448.05	5448.3	
448.25	4410	
448.46	4282.3	
448.66	5754.8	
448.86	5547.9	
449.06	3935.5	
449.26	4405.9	
449.46	5865.4	
449.66	5474.2	
449.86	4218.1	
450.06	4204.5	
450.26	5564.3	
450.47	5879.7	
450.67	4403.1	
450.87	4523.3	
451.07	6135	
451.27	5738.4	
451.47	4030.4	
451.67	4528.1	
451.87	5621	
452.07	6274.3	
452.27	4169	
452.47	4138.3	
452.67	5821.7	
452.88	5945.9	
453.08	3809.2	
453.28	4827.1	
453.48	6596.5	
453.68	5797.8	
453.88	4111	
454.08	4116.4	
454.28	5997.8	
454.48	5834	
454.68	4538.3	
454.88	4773.1	
455.08	6133.7	
455.28	5973.9	
455.48	4036.5	
455.68	4445.5	
455.89	6376	
456.09	6146.6	
456.29	4305.5	
456.49	4372.4	
456.69	6320.7	
456.89	5840.1	
457.09	4517.1	
457.29	4759.5	
457.49	6150.7	
457.69	6118.6	
457.89	4631.1	
458.09	4218.8	
458.29	5969.8	
458.49	6438.8	
458.69	4751.3	
458.89	4434.5	
459.09	6532.3	
459.29	6608.8	
459.49	4441.4	
459.69	4831.8	
459.9	6349.4	
460.1	6129.6	
460.3	4433.9	
460.5	4282.3	
460.7	6364.4	
460.9	6024.4	
461.1	4231.8	
461.3	4777.2	
461.5	6688.7	
461.7	6412.2	
461.9	4488.5	
462.1	4672.8	
462.3	6196.5	
462.5	6464.8	
462.7	4580.6	
462.9	4539	
463.1	7049.8	
463.3	6926.9	
463.5	4716.5	
463.7	5283.1	
463.9	6349.4	
464.1	6656.6	
464.3	4922.6	
464.5	4897.4	
464.7	6751.5	
464.9	6573.3	
465.1	5613.5	
465.3	5192.3	
465.5	6838.2	
465.7	7023.2	
465.9	5289.9	
466.1	5114.5	
466.3	6800.6	
466.5	6739.9	
466.7	5684.5	
466.9	5106.3	
467.1	6969.2	
467.3	7304.4	
467.5	5693.4	
467.7	5120.6	
467.9	7430.7	
468.1	7866.9	
468.3	5368.4	
468.5	5724.1	
468.7	6784.2	
468.9	6664.8	
469.1	5317.9	
469.3	5664	
469.5	7873.1	
469.7	6567.8	
469.9	5533.6	
470.1	5139.7	
470.3	6954.2	
470.5	6901	
470.7	5908.4	
470.9	5201.8	
471.1	6636.1	
471.3	7019.8	
471.5	5143.8	
471.69	6082.5	
471.89	6797.9	
472.09	6305	
472.29	5479	
472.49	5595.7	
472.69	6520.7	
472.89	6853.2	
473.09	5088.5	
473.29	5107.6	
473.49	6698.2	
473.69	6531	
473.89	5586.9	
474.09	5186.1	
474.29	7362.4	
474.49	7091.4	
474.69	5573.9	
474.89	5221	
475.09	6690.7	
475.29	6712.6	
475.49	4943.1	
475.69	5120.6	
475.88	7480.5	
476.08	6880.5	
476.28	4958.1	
476.48	5055.8	
476.68	7202.7	
476.88	6896.2	
477.08	5130.8	
477.28	5290.6	
477.48	6774	
477.68	6977.4	
477.88	4891.9	
478.08	5098.1	
478.28	7230.7	
478.48	6804.7	
478.67	5201.8	
478.87	4828.4	
479.07	7103	
479.27	6837.5	
479.47	5302.9	
479.67	5343.2	
479.87	7080.5	
480.07	7290.8	
480.27	4956.8	
480.47	5636	
480.67	6773.3	
480.87	7232.1	
481.06	5079	
481.26	5569.1	
481.46	6938.5	
481.66	6808.1	
481.86	5426.4	
482.06	5770.5	
482.26	6684.6	
482.46	7273	
482.66	5187.5	
482.86	5070.1	
483.05	7045	
483.25	6619	
483.45	6633.4	
483.65	5217.5	
483.85	6595.1	
484.05	6801.3	
484.25	5551.4	
484.45	5745.2	
484.65	7173.4	
484.84	7318.1	
485.04	5283.8	
485.24	5296	
485.44	7715.4	
485.64	6586.3	
485.84	4968.4	
486.04	5711.1	
486.24	6910.5	
486.44	6930.3	
486.63	4974.5	
486.83	5511.8	
487.03	6832	
487.23	6946.7	
487.43	5016.2	
487.63	6212.2	
487.83	7006.1	
488.02	7122.8	
488.22	5562.3	
488.42	5845.6	
488.62	7507.2	
488.82	6797.2	
489.02	5372.5	
489.22	5484.5	
489.41	7195.2	
489.61	7291.5	
489.81	5290.6	
490.01	5280.3	
490.21	7376.8	
490.41	7820.5	
490.61	5343.8	
490.8	5402.5	
491	7081.2	
491.2	6745.3	
491.4	5712.5	
491.6	5217.5	
491.8	7107.1	
491.99	7048.4	
492.19	5120.6	
492.39	5331.5	
492.59	7339.9	
492.79	7433.4	
492.99	5705.6	
493.18	5292.6	
493.38	7575.4	
493.58	7850.5	
493.78	5722	
493.98	5501.5	
494.18	7305.1	
494.37	6921.5	
494.57	5952.1	
494.77	5737.7	
494.97	7567.9	
495.17	7665.5	
495.37	5663.3	
495.56	5907	
495.76	7793.2	
495.96	7549.5	
496.16	6425.8	
496.36	5834	
496.55	7804.1	
496.75	7475.8	
496.95	6042.2	
497.15	6022.4	
497.35	7848.5	
497.54	7676.5	
497.74	5945.3	
497.94	6819.1	
498.14	8230.1	
498.34	8002.1	
498.53	5763	
498.73	6127.5	
498.93	7345.4	
499.13	7733.1	
499.33	6103.6	
499.52	6348	
499.72	8010.3	
499.92	7830.1	
500.12	5968.5	
500.32	6065.4	
500.51	7882.6	
500.71	7722.9	
500.91	6460	
501.11	6306.4	
501.31	7937.9	
501.5	8207.6	
501.7	6678.4	
501.9	6169.8	
502.1	7791.2	
502.29	8045.1	
502.49	6378.1	
502.69	6602.7	
502.89	7847.8	
503.09	7942.7	
503.28	5882.4	
503.48	5925.5	
503.68	7646.4	
503.88	7550.2	
504.07	6419	
504.27	6033.3	
504.47	7756.3	
504.67	7786.4	
504.86	6313.9	
505.06	6131.6	
505.26	7608.2	
505.46	8282	
505.65	6147.3	
505.85	6191.7	
506.05	7540.6	
506.25	7795.9	
506.44	5754.1	
506.64	6178.7	
506.84	7355.6	
507.04	7795.3	
507.23	5813.5	
507.43	6027.9	
507.63	8353	
507.83	7349.5	
508.02	6039.5	
508.22	5956.9	
508.42	8620.6	
508.62	7398.6	
508.81	5905	
509.01	6230.6	
509.21	7366.5	
509.4	7544.7	
509.6	6088.6	
509.8	5803.3	
510	7436.9	
510.19	8036.9	
510.39	5724.1	
510.59	5862	
510.79	7469.6	
510.98	8109.3	
511.18	5974.6	
511.38	5957.5	
511.57	7981.6	
511.77	7562.5	
511.97	6214.9	
512.17	5762.3	
512.36	7983.7	
512.56	7711.3	
512.76	5767.8	
512.95	5601.9	
513.15	7992.5	
513.35	7135.8	
513.55	6237.4	
513.74	5768.4	
513.94	7873.1	
514.14	7481.2	
514.33	6333	
514.53	6165.1	
514.73	7590.5	
514.92	7621.2	
515.12	5895.4	
515.32	5817.6	
515.51	7699.7	
515.71	7735.2	
515.91	6814.3	
516.11	5869.5	
516.3	8621.9	
516.5	7504.4	
516.7	6143.9	
516.89	6471.6	
517.09	7600	
517.29	7571.3	
517.48	6343.2	
517.68	6028.5	
517.88	7232.7	
518.07	7858.7	
518.27	6318	
518.47	5776	
518.66	8112.7	
518.86	7358.4	
519.06	5688.6	
519.25	5973.9	
519.45	7564.5	
519.65	8307.9	
519.84	6328.9	
520.04	6648.4	
520.24	8546.2	
520.43	7890.8	
520.63	6206	
520.83	5991.7	
521.02	7542	
521.22	7735.2	
521.42	6231.3	
521.61	6504.3	
521.81	7537.2	
522.01	7775.5	
522.2	6119.3	
522.4	6053.1	
522.6	7958.4	
522.79	7161.7	
522.99	6079.7	
523.18	5812.8	
523.38	7844.4	
523.58	7869	
523.77	6848.4	
523.97	5865.4	
524.17	8778.3	
524.36	8505.9	
524.56	6673	
524.76	6410.1	
524.95	7938.6	
525.15	7759.8	
525.34	6438.1	
525.54	6384.2	
525.74	8271.1	
525.93	7701.7	
526.13	7012.2	
526.33	6386.2	
526.52	8527.1	
526.72	8117.5	
526.91	7089.4	
527.11	6718	
527.31	8306.6	
527.5	8573.5	
527.7	6749.4	
527.89	6176.7	
528.09	7964.6	
528.29	8219.9	
528.48	6886	
528.68	6774	
528.87	8424	
529.07	8512.7	
529.27	6728.3	
529.46	6428.6	
529.66	8336.6	
529.85	8497	
530.05	6443.6	
530.25	6839.5	
530.44	9073.9	
530.64	8228.1	
530.83	6649.1	
531.03	6776	
531.23	8722.3	
531.42	8373.5	
531.62	7124.9	
531.81	6788.3	
532.01	8612.4	
532.21	8702.5	
532.4	6617.7	
532.6	6798.6	
532.79	9099.1	
532.99	8716.8	
533.18	6977.4	
533.38	7430	
533.58	8548.2	
533.77	8826.7	
533.97	7068.9	
534.16	7398.6	
534.36	9069.8	
534.55	8573.5	
534.75	7469.6	
534.95	7068.2	
535.14	9149.6	
535.34	8501.8	
535.53	6841.6	
535.73	7903.8	
535.92	9391.3	
536.12	8594.6	
536.31	6946.7	
536.51	7530.4	
536.71	8824.7	
536.9	8526.4	
537.1	6984.3	
537.29	6973.3	
537.49	9035.6	
537.68	8452	
537.88	7328.3	
538.07	6744.6	
538.27	8779.6	
538.46	9147.6	
538.66	6772.6	
538.86	7027.9	
539.05	8729.8	
539.25	8934.6	
539.44	7276.4	
539.64	6953.5	
539.83	8591.9	
540.03	9164.7	
540.22	6903.7	
540.42	6941.2	
540.61	8701.1	
540.81	8933.2	
541	7193.8	
541.2	7472.4	
541.39	8486.1	
541.59	8600.1	
541.78	7314.7	
541.98	6913.9	
542.18	8306.6	
542.37	8239.7	
542.57	7103	
542.76	7311.2	
542.96	8342.7	
543.15	8587.8	
543.35	7013.6	
543.54	6670.9	
543.74	8279.9	
543.93	8499.1	
544.13	6993.8	
544.32	7526.3	
544.52	8632.2	
544.71	8271.7	
544.91	6530.3	
545.1	7064.1	
545.3	8253.3	
545.49	8562.6	
545.69	6371.9	
545.88	6794.5	
546.08	9155.8	
546.27	8650.6	
546.47	6961	
546.66	6468.9	
546.86	8630.1	
547.05	8888.2	
547.24	6694.8	
547.44	6696.9	
547.63	8136.6	
547.83	8648.6	
548.02	6804	
548.22	6969.9	
548.41	7968	
548.61	8761.9	
548.8	6496.2	
549	6639.5	
549.19	8413.7	
549.39	8469.7	
549.58	6428.6	
549.78	6740.5	
549.97	8531.2	
550.17	8192.6	
550.36	7090.1	
550.55	7621.9	
550.75	8215.1	
550.94	8652.7	
551.14	6511.2	
551.33	6695.5	
551.53	7877.9	
551.72	8398.7	
551.92	6709.8	
552.11	6603.3	
552.31	8547.5	
552.5	8344.1	
552.69	7531.7	
552.89	6360.3	
553.08	8400.1	
553.28	8253.3	
553.47	6576.7	
553.67	7155.6	
553.86	8639.7	
554.06	7759.1	
554.25	6177.4	
554.44	6537.1	
554.64	9099.1	
554.83	8819.2	
555.03	6460	
555.22	6677.1	
555.42	8514.8	
555.61	8273.8	
555.8	6493.4	
556	6653.2	
556.19	7902.4	
556.39	8356.4	
556.58	6535.1	
556.78	6509.8	
556.97	8349.6	
557.16	8101.8	
557.36	7220.5	
557.55	6343.2	
557.75	7769.3	
557.94	8641.1	
558.13	6375.3	
558.33	6351.4	
558.52	8535.3	
558.72	7763.2	
558.91	6182.8	
559.1	6456.6	
559.3	7758.4	
559.49	7632.1	
559.69	6257.9	
559.88	6552.1	
560.07	8230.8	
560.27	8366	
560.46	6697.5	
560.66	6776.7	
560.85	8029.4	
561.04	7604.8	
561.24	6254.5	
561.43	6269.5	
561.63	7712	
561.82	7964.6	
562.01	6994.5	
562.21	6531.7	
562.4	8118.8	
562.59	8569.4	
562.79	6459.3	
562.98	6255.2	
563.18	8124.3	
563.37	8861.6	
563.56	6731	
563.76	6249	
563.95	7893.6	
564.14	7838.3	
564.34	6582.2	
564.53	6310.5	
564.73	8182.3	
564.92	8157.7	
565.11	6591	
565.31	6267.5	
565.5	8544.8	
565.69	7765.9	
565.89	6522.8	
566.08	6606.7	
566.27	8372.1	
566.47	8641.1	
566.66	6958.3	
566.85	6354.2	
567.05	8232.8	
567.24	7876.5	
567.44	6348.7	
567.63	7036.1	
567.82	8431.5	
568.02	8070.4	
568.21	6420.4	
568.4	6549.4	
568.6	8123.6	
568.79	8061.5	
568.98	6305	
569.18	6371.2	
569.37	8159.8	
569.56	9095	
569.76	6563.1	
569.95	7109.9	
570.14	8290.2	
570.34	8197.3	
570.53	6378.1	
570.72	6335	
570.91	8576.9	
571.11	8197.3	
571.3	6632.7	
571.49	7112.6	
571.69	8222.6	
571.88	7807.5	
572.07	6881.2	
572.27	6830.7	
572.46	7834.8	
572.65	8438.3	
572.85	6481.8	
573.04	6668.9	
573.23	8568.7	
573.43	8177.5	
573.62	6388.3	
573.81	6627.2	
574	8314.1	
574.2	8087.4	
574.39	6634.1	
574.58	6612.2	
574.78	8669.1	
574.97	8296.3	
575.16	7013.6	
575.36	6928.3	
575.55	8694.3	
575.74	8581.7	
575.93	6340.5	
576.13	7038.9	
576.32	8168.7	
576.51	8527.1	
576.71	6692.8	
576.9	7368.6	
577.09	8806.3	
577.28	8416.5	
577.48	6865.5	
577.67	6503	
577.86	8348.9	
578.05	8522.3	
578.25	6754.2	
578.44	6728.3	
578.63	8284	
578.83	9017.2	
579.02	6448.4	
579.21	7278.5	
579.4	8377.6	
579.6	8286.1	
579.79	6842.9	
579.98	8019.2	
580.17	8603.5	
580.37	8751	
580.56	6569.2	
580.75	6972	
580.94	8832.9	
581.14	8842.4	
581.33	7210.2	
581.52	6683.2	
581.71	8447.2	
581.91	8976.9	
582.1	6541.9	
582.29	6790.4	
582.48	8400.8	
582.68	8350.9	
582.87	7087.3	
583.06	6974	
583.25	8711.4	
583.45	8251.9	
583.64	7281.9	
583.83	7550.2	
584.02	8514.1	
584.21	8704.5	
584.41	7178.8	
584.6	6925.5	
584.79	8548.2	
584.98	8759.2	
585.18	6652.5	
585.37	6614.3	
585.56	8413.7	
585.75	8615.8	
585.94	6765.1	
586.14	7081.9	
586.33	8906.6	
586.52	8424.7	
586.71	7061.4	
586.91	6777.4	
587.1	8081.3	
587.29	8755.7	
587.48	6685.3	
587.67	6711.9	
587.87	8537.3	
588.06	8355	
588.25	7275.1	
588.44	6937.8	
588.63	8198	
588.83	8567.3	
589.02	6754.9	
589.21	6571.2	
589.4	8213	
589.59	8051.2	
589.78	6107.7	
589.98	6243.6	
590.17	7651.2	
590.36	7873.1	
590.55	5761.6	
590.74	6099.5	
590.94	8444.5	
591.13	7798	
591.32	6031.3	
591.51	5707	
591.7	7859.4	
591.89	7695.6	
592.09	5813.5	
592.28	6016.9	
592.47	7226.6	
592.66	8438.3	
592.85	5902.2	
593.05	6036	
593.24	7664.2	
593.43	8238.3	
593.62	6073.6	
593.81	6346.7	
594	7814.4	
594.19	7871.7	
594.39	6061.3	
594.58	5900.9	
594.77	7946.1	
594.96	8131.1	
595.15	5982.1	
595.34	6318.7	
595.54	7776.8	
595.73	7435.5	
595.92	5610.1	
596.11	6123.4	
596.3	8112	
596.49	7437.5	
596.68	6067.4	
596.88	6214.9	
597.07	7904.5	
597.26	7344.7	
597.45	5874.3	
597.64	6432	
597.83	7501.7	
598.02	7750.9	
598.22	5853.1	
598.41	6204.7	
598.6	7720.2	
598.79	7308.5	
598.98	5913.2	
599.17	6356.9	
599.36	7809.6	
599.55	8229.4	
599.74	6901	
599.94	6821.8	
600.13	8036.9	
600.32	7301	
600.51	5739.8	
600.7	5804.6	
600.89	8267.6	
601.08	8417.2	
601.27	5732.9	
601.47	6158.2	
601.66	7961.8	
601.85	8188.5	
602.04	6130.3	
602.23	6173.9	
602.42	7494.2	
602.61	7748.1	
602.8	5890.6	
602.99	5872.2	
603.18	7586.4	
603.37	7646.4	
603.57	6264.1	
603.76	6467.5	
603.95	8169.3	
604.14	7787.7	
604.33	6004.6	
604.52	6072.2	
604.71	7796.6	
604.9	7447.1	
605.09	6475	
605.28	6334.4	
605.47	8140.7	
605.66	7640.3	
605.86	6156.2	
606.05	6076.3	
606.24	8112	
606.43	7201.3	
606.62	6105.7	
606.81	6520	
607	7955.7	
607.19	7477.1	
607.38	5802.6	
607.57	5802.6	
607.76	7327.6	
607.95	7008.1	
608.14	6173.9	
608.33	6384.9	
608.52	7365.2	
608.72	7929.1	
608.91	5736.4	
609.1	5629.2	
609.29	7533.1	
609.48	7105.1	
609.67	6218.3	
609.86	5771.2	
610.05	7238.9	
610.24	7348.1	
610.43	5704.3	
610.62	5500.2	
610.81	8104.5	
611	7914.7	
611.19	5666.7	
611.38	6055.8	
611.57	7645.7	
611.76	8203.5	
611.95	5591.6	
612.14	5542.5	
612.33	7363.1	
612.52	7187.7	
612.71	5859.2	
612.9	5473.5	
613.09	7010.9	
613.28	8334.6	
613.47	5742.5	
613.66	6203.3	
613.85	7538.6	
614.04	7191.8	
614.24	5726.1	
614.43	5305.6	
614.62	7623.2	
614.81	7608.9	
615	5928.2	
615.19	6013.5	
615.38	7251.9	
615.57	7486	
615.76	5899.5	
615.95	6468.9	
616.14	7609.6	
616.33	7475.8	
616.52	6152.1	
616.71	6239.5	
616.9	7604.1	
617.09	7489.4	
617.28	5900.2	
617.47	6383.5	
617.66	7193.8	
617.85	7112.6	
618.04	6243.6	
618.22	5929.6	
618.41	7337.9	
618.6	7918.1	
618.79	5994.4	
618.98	5900.9	
619.17	8005.5	
619.36	7063.4	
619.55	5945.9	
619.74	6009.4	
619.93	7593.2	
620.12	7348.1	
620.31	6276.3	
620.5	6389	
620.69	8116.1	
620.88	8226.7	
621.07	6776.7	
621.26	6290.7	
621.45	7806.9	
621.64	7881.3	
621.83	6295.5	
622.02	5863.3	
622.21	7904.5	
622.4	7716.7	
622.59	6613.6	
622.78	6497.5	
622.97	7521.5	
623.16	8041.7	
623.35	6336.4	
623.54	5842.9	
623.72	7658.7	
623.91	7664.9	
624.1	6485.9	
624.29	5776	
624.48	8299.1	
624.67	7989.1	
624.86	6315.3	
625.05	5907.7	
625.24	8348.2	
625.43	7589.8	
625.62	7189.7	
625.81	6029.2	
626	8049.2	
626.19	7604.1	
626.38	6463.4	
626.56	6122.1	
626.75	7471.7	
626.94	7928.4	
627.13	6439.5	
627.32	5767.8	
627.51	7960.5	
627.7	8428.1	
627.89	5762.3	
628.08	6414.2	
628.27	7411.6	
628.46	7530.4	
628.65	5936.4	
628.83	5694	
629.02	7872.4	
629.21	7476.5	
629.4	6221.7	
629.59	6237.4	
629.78	7432.8	
629.97	7910.6	
630.16	6299.6	
630.35	6010.8	
630.54	8294.3	
630.72	8081.3	
630.91	6096.8	
631.1	6244.9	
631.29	7683.3	
631.48	7686	
631.67	6429.3	
631.86	6050.4	
632.05	7667.6	
632.24	7621.9	
632.42	5890.6	
632.61	6161	
632.8	7609.6	
632.99	7355.6	
633.18	6261.3	
633.37	6369.2	
633.56	7748.1	
633.75	7656	
633.93	6243.6	
634.12	6070.2	
634.31	8251.3	
634.5	7951.6	
634.69	6097.5	
634.88	6388.3	
635.07	7696.9	
635.25	7974.8	
635.44	6610.8	
635.63	6597.2	
635.82	7548.1	
636.01	6903.7	
636.2	6459.3	
636.39	6248.4	
636.57	8209.6	
636.76	7787.1	
636.95	5954.8	
637.14	6667.5	
637.33	7879.9	
637.52	8161.2	
637.7	5827.8	
637.89	6482.5	
638.08	7537.2	
638.27	8239	
638.46	6453.8	
638.65	6634.7	
638.83	8315.4	
639.02	7445.7	
639.21	6257.9	
639.4	6578.8	
639.59	7628.7	
639.78	7478.5	
639.96	5854.5	
640.15	5916.6	
640.34	7608.2	
640.53	7541.3	
640.72	5825.1	
640.91	5907.7	
641.09	7303.1	
641.28	7900.4	
641.47	6133.7	
641.66	6380.8	
641.85	7622.5	
642.03	7730.4	
642.22	6188.3	
642.41	5997.1	
642.6	7220.5	
642.79	6987.7	
642.97	5859.9	
643.16	6063.4	
643.35	7254.6	
643.54	7144	
643.73	5739.1	
643.91	6117.3	
644.1	7098.9	
644.29	7443	
644.48	5769.1	
644.67	5815.5	
644.85	7022.5	
645.04	7397.3	
645.23	5578	
645.42	5794.4	
645.6	6957.6	
645.79	7645.1	
645.98	5515.2	
646.17	5029.1	
646.36	6775.4	
646.54	7009.5	
646.73	5961	
646.92	5362.3	
647.11	6746.7	
647.29	7314.7	
647.48	5264.6	
647.67	5186.8	
647.86	7472.4	
648.05	7476.5	
648.23	5344.5	
648.42	6092.7	
648.61	7177.4	
648.8	7049.1	
648.98	5261.9	
649.17	5438.7	
649.36	6832.7	
649.55	6543.3	
649.73	5259.2	
649.92	5683.1	
650.11	6701.6	
650.3	6966.5	
650.48	5331.5	
650.67	5365.7	
650.86	7095.5	
651.05	6518.7	
651.23	5352.7	
651.42	5238	
651.61	6759	
651.79	6600.6	
651.98	5455.1	
652.17	5197.1	
652.36	7008.1	
652.54	6462.7	
652.73	5261.9	
652.92	5177.3	
653.11	6963.1	
653.29	7040.9	
653.48	4936.3	
653.67	5390.9	
653.85	6804.7	
654.04	7391.1	
654.23	5423.7	
654.42	5205.9	
654.6	6544.6	
654.79	6895.5	
654.98	4870.8	
655.16	5161.6	
655.35	6386.2	
655.54	6081.1	
655.73	4853.7	
655.91	4780.6	
656.1	6683.9	
656.29	6027.9	
656.47	4584	
656.66	5557.5	
656.85	6379.4	
657.03	6337.1	
657.22	4941.7	
657.41	5018.2	
657.59	6419	
657.78	6354.2	
657.97	4794.3	
658.16	5158.2	
658.34	6816.3	
658.53	7021.1	
658.72	5776	
658.9	5925.5	
659.09	6612.9	
659.28	6610.2	
659.46	5091.3	
659.65	4945.8	
659.84	6330.3	
660.02	6811.5	
660.21	5060.5	
660.4	4894.6	
660.58	6921.5	
660.77	6593.8	
660.96	5265.3	
661.14	4784.1	
661.33	7202	
661.52	7129	
661.7	4759.5	
661.89	6466.1	
662.08	6353.5	
662.26	6118	
662.45	4972.5	
662.64	4984.8	
662.82	6754.9	
663.01	6313.9	
663.2	4921.3	
663.38	5302.2	
663.57	6623.8	
663.75	6649.1	
663.94	5155.4	
664.13	5814.2	
664.31	6373.3	
664.5	6724.8	
664.69	5234.6	
664.87	5483.8	
665.06	6301.6	
665.25	6512.5	
665.43	5675.6	
665.62	5594.4	
665.8	6663.4	
665.99	6401.3	
666.18	5077.6	
666.36	5083.7	
666.55	6712.6	
666.74	6679.1	
666.92	4965	
667.11	5777.3	
667.29	6519.4	
667.48	6621.8	
667.67	5470.8	
667.85	5020.3	
668.04	6242.2	
668.22	6283.9	
668.41	5104.2	
668.6	5316.5	
668.78	6192.4	
668.97	6363.7	
669.15	5307	
669.34	4747.9	
669.53	6277.7	
669.71	6486.6	
669.9	4827.1	
670.08	5158.8	
670.27	6137.8	
670.46	6657.3	
670.64	5293.3	
670.83	5358.2	
671.01	6111.8	
671.2	6475	
671.38	4866.7	
671.57	4810.7	
671.76	6911.9	
671.94	6992.4	
672.13	4785.4	
672.31	5372.5	
672.5	6701.6	
672.69	6236.1	
672.87	4877.6	
673.06	4984.8	
673.24	6505	
673.43	6314.6	
673.61	5190.2	
673.8	4986.1	
673.98	6544.6	
674.17	6640.9	
674.36	5409.4	
674.54	5259.9	
674.73	6292	
674.91	6696.9	
675.1	5083.7	
675.28	4863.2	
675.47	6384.9	
675.65	6665.5	
675.84	5042.8	
676.03	5134.9	
676.21	6251.8	
676.4	5930.2	
676.58	5456.5	
676.77	5233.2	
676.95	7154.9	
677.14	6272.2	
677.32	4765.6	
677.51	4756.7	
677.69	6708.5	
677.88	6210.8	
678.06	4767.7	
678.25	4870.8	
678.44	6301.6	
678.62	6163.7	
678.81	4724	
678.99	5151.3	
679.18	6727.6	
679.36	6510.5	
679.55	5051.7	
679.73	5266	
679.92	6524.1	
680.1	6242.2	
680.29	5526.8	
680.47	4930.8	
680.66	6279.8	
680.84	6647.7	
681.03	4756.7	
681.21	5270.1	
681.4	6154.1	
681.58	6172.6	
681.77	4881.7	
681.95	4810	
682.14	6668.2	
682.32	6839.5	
682.51	5261.2	
682.69	4683.7	
682.88	6184.2	
683.06	6434	
683.25	5143.1	
683.43	5323.4	
683.62	6411.5	
683.8	6517.3	
683.99	5457.2	
684.17	4970.4	
684.36	6941.9	
684.54	6229.9	
684.73	4620.2	
684.91	4650.3	
685.1	6390.3	
685.28	5994.4	
685.46	4947.9	
685.65	4914.4	
685.83	6322.8	
686.02	5970.5	
686.2	4508.3	
686.39	4573.1	
686.57	5703.6	
686.76	6487.3	
686.94	4513.7	
687.13	4625	
687.31	6166.4	
687.5	6077	
687.68	4339.6	
687.86	4913.8	
688.05	6993.1	
688.23	5707	
688.42	5020.3	
688.6	4646.2	
688.79	5929.6	
688.97	5994.4	
689.16	4881	
689.34	4345.8	
689.52	6435.4	
689.71	6507.8	
689.89	5001.8	
690.08	4664.6	
690.26	6284.5	
690.45	6012.2	
690.63	5146.5	
690.81	4760.2	
691	6226.5	
691.18	5917.3	
691.37	4821.6	
691.55	5912.5	
691.74	6029.2	
691.92	7021.1	
692.1	4706.9	
692.29	4523.3	
692.47	6201.2	
692.66	5741.1	
692.84	4586.1	
693.02	4818.2	
693.21	5756.2	
693.39	6100.9	
693.58	4928.1	
693.76	4658.4	
693.94	6647	
694.13	6601.3	
694.31	4685.1	
694.5	5221.6	
694.68	5988.9	
694.86	6258.6	
695.05	4866.7	
695.23	5165	
695.42	6392.4	
695.6	7630.7	
695.78	5189.6	
695.97	4851	
696.15	6498.9	
696.34	6069.5	
696.52	4668	
696.7	5164.3	
696.89	6352.8	
697.07	5917.9	
697.25	4958.1	
697.44	5748.6	
697.62	6322.1	
697.81	6354.2	
697.99	4906.9	
698.17	5046.2	
698.36	6012.2	
698.54	6298.9	
698.72	4960.9	
698.91	4500.1	
699.09	6096.1	
699.28	5831.2	
699.46	4859.1	
699.64	4781.3	
699.83	6021.7	
700.01	6446.3	
700.19	5190.2	
700.38	4359.4	
700.56	6443.6	
700.74	5967.8	
700.93	4524.6	
701.11	4949.3	
701.29	6328.9	
701.48	6825.2	
701.66	4688.5	
701.84	4743.1	
702.03	6154.1	
702.21	6585.6	
702.39	4519.9	
702.58	4752	
702.76	6380.8	
702.94	6371.2	
703.13	4527.4	
703.31	5840.1	
703.49	6055.2	
703.68	6594.5	
703.86	4670.7	
704.04	5081.7	
704.23	6271.6	
704.41	6414.9	
704.59	4764.9	
704.78	5257.1	
704.96	7200.7	
705.14	6419.7	
705.33	4683	
705.51	5070.8	
705.69	6092	
705.87	6635.4	
706.06	5154.1	
706.24	4570.4	
706.42	6331	
706.61	6481.1	
706.79	5226.4	
706.97	4537.6	
707.16	6034.7	
707.34	6346.7	
707.52	5154.1	
707.7	4684.4	
707.89	6023.8	
708.07	5924.8	
708.25	5168.4	
708.44	5283.1	
708.62	6014.2	
708.8	6551.5	
708.98	5283.1	
709.17	4736.3	
709.35	6226.5	
709.53	6230.6	
709.72	4610.7	
709.9	4674.1	
710.08	6540.5	
710.26	6464.8	
710.45	5360.9	
710.63	4730.1	
710.81	6111.8	
710.99	6219.7	
711.18	5099.4	
711.36	4755.4	
711.54	6091.3	
711.72	6449.1	
711.91	4836.6	
712.09	4506.9	
712.27	6234.7	
712.45	6328.2	
712.64	4878.9	
712.82	4347.2	
713	5777.3	
713.18	5877	
713.37	4357.4	
713.55	4963.6	
713.73	6412.9	
713.91	5574.6	
714.1	4442	
714.28	4208.6	
714.46	5965.7	
714.64	5569.1	
714.83	3854.3	
715.01	4185.4	
715.19	5545.9	
715.37	5055.1	
715.55	3917.1	
715.74	4013.3	
715.92	5849.7	
716.1	4752.7	
716.28	4582.7	
716.47	4156.7	
716.65	5270.1	
716.83	5212.1	
717.01	3979.9	
717.19	4002.4	
717.38	6226.5	
717.56	4962.2	
717.74	4129.4	
717.92	3704.1	
718.1	5728.9	
718.29	5254.4	
718.47	3534.1	
718.65	3832.4	
718.83	5821.7	
719.01	5728.9	
719.2	3596.2	
719.38	4189.5	
719.56	5604.6	
719.74	6325.5	
719.92	4012.7	
720.11	4562.2	
720.29	5674.9	
720.47	5163.6	
720.65	3720.5	
720.83	4111.6	
721.02	5270.8	
721.2	5171.1	
721.38	4087.7	
721.56	3666.5	
721.74	4834.6	
721.92	4885.8	
722.11	4374.5	
722.29	4126	
722.47	5578	
722.65	5136.3	
722.83	3682.9	
723.01	4076.1	
723.2	5093.3	
723.38	5336.3	
723.56	3363.4	
723.74	3999	
723.92	4882.4	
724.1	5510.4	
724.29	3645.4	
724.47	4276.8	
724.65	5060.5	
724.83	4896	
725.01	3609.9	
725.19	4013.3	
725.37	4813.4	
725.56	4866	
725.74	3515.7	
725.92	3635.8	
726.1	4920.6	
726.28	5068.7	
726.46	3868.6	
726.64	3649.5	
726.83	5165.7	
727.01	5175.2	
727.19	3501.3	
727.37	3985.3	
727.55	5152.7	
727.73	5405.3	
727.91	3484.3	
728.09	3383.2	
728.28	5397.8	
728.46	5461.9	
728.64	3959.4	
728.82	3943.7	
729	5902.2	
729.18	5674.2	
729.36	3555.3	
729.54	4739.7	
729.72	6094.1	
729.91	5253	
730.09	4609.3	
730.27	3975.1	
730.45	5240.1	
730.63	5563.6	
730.81	4313.7	
730.99	3785.3	
731.17	5890.6	
731.35	5036	
731.53	3987.4	
731.71	3878.2	
731.9	5737	
732.08	5665.4	
732.26	4009.9	
732.44	3770.3	
732.62	5756.8	
732.8	5526.1	
732.98	4154.6	
733.16	3668.6	
733.34	5535	
733.52	4759.5	
733.7	3892.5	
733.88	4024.9	
734.07	5421.7	
734.25	5315.8	
734.43	3646.7	
734.61	4448.9	
734.79	6032	
734.97	5257.1	
735.15	3704.8	
735.33	3872.7	
735.51	5423.7	
735.69	5196.4	
735.87	4420.2	
736.05	3959.4	
736.23	5265.3	
736.41	5051	
736.59	4004.5	
736.77	3931.4	
736.95	5522	
737.13	5164.3	
737.32	3688.4	
737.5	3825.6	
737.68	5856.5	
737.86	5098.1	
738.04	3635.1	
738.22	4511	
738.4	5125.4	
738.58	5304.9	
738.76	3930.1	
738.94	3435.1	
739.12	5163.6	
739.3	5032.5	
739.48	4218.1	
739.66	4050.2	
739.84	5317.9	
740.02	5214.1	
740.2	3460.4	
740.38	3605.8	
740.56	5387.5	
740.74	4713.7	
740.92	3991.5	
741.1	3841.3	
741.28	5141.8	
741.46	4909.7	
741.64	3697.9	
741.82	3968.3	
742	5152	
742.18	5038	
742.36	3786.7	
742.54	3617.4	
742.72	5445.5	
742.9	4683.7	
743.08	3919.1	
743.26	3274	
743.44	5432.6	
743.62	5373.2	
743.8	4026.3	
743.98	3634.5	
744.16	5264	
744.34	4953.4	
744.52	3971.7	
744.7	3971	
744.88	5309.7	
745.06	5079	
745.24	3931.4	
745.42	4028.4	
745.6	5416.9	
745.78	5297.4	
745.96	3384.6	
746.14	3500	
746.32	5794.4	
746.5	5162.2	
746.68	3755.3	
746.86	3450.8	
747.03	5431.9	
747.21	4688.5	
747.39	3760.1	
747.57	3404.4	
747.75	5040.7	
747.93	5212.8	
748.11	3425.6	
748.29	3404.4	
748.47	5995.1	
748.65	4873.5	
748.83	3819.5	
749.01	3716.4	
749.19	5132.2	
749.37	4721.3	
749.55	3688.4	
749.73	3667.2	
749.91	5080.3	
750.09	4963.6	
750.26	3703.4	
750.44	3328.6	
750.62	5010.7	
750.8	4938.3	
750.98	3291.8	
751.16	3442	
751.34	5119.9	
751.52	4706.9	
751.7	3873.4	
751.88	3233.1	
752.06	5338.4	
752.24	5139.7	
752.42	3255.6	
752.59	3485.6	
752.77	4965.6	
752.95	5595.7	
753.13	3861.1	
753.31	3478.1	
753.49	4832.5	
753.67	5016.2	
753.85	3657.7	
754.03	3327.9	
754.21	5216.2	
754.38	5332.2	
754.56	3392.1	
754.74	2960.7	
754.92	4729.4	
755.1	4972.5	
755.28	2895.1	
755.46	2895.8	
755.64	5496.7	
755.82	5469.4	
755.99	3018	
756.17	2954.5	
756.35	3978.5	
756.53	4802.5	
756.71	2435	
756.89	3085.6	
757.07	4599.7	
757.25	4087.7	
757.42	3144.3	
757.6	3667.2	
757.78	4682.3	
757.96	4130.1	
758.14	3020.8	
758.32	2777	
758.5	3865.2	
758.67	4343.7	
758.85	2915.6	
759.03	2915.6	
759.21	4518.5	
759.39	4108.9	
759.57	2684.2	
759.75	3285.6	
759.92	4857.1	
760.1	4484.4	
760.28	3448.1	
760.46	3601.7	
760.64	4379.2	
760.82	4270	
760.99	3424.2	
761.17	3027.6	
761.35	4801.8	
761.53	4199	
761.71	3179.8	
761.89	3482.9	
762.06	4724	
762.24	4418.2	
762.42	3193.5	
762.6	3025.5	
762.78	4393.6	
762.96	4739	
763.13	3432.4	
763.31	3203	
763.49	4859.1	
763.67	4419.5	
763.85	3671.3	
764.02	3911.6	
764.2	5177.3	
764.38	4472.8	
764.56	3118.4	
764.74	3657.7	
764.91	5037.3	
765.09	4417.5	
765.27	2994.1	
765.45	2818.7	
765.63	5208.7	
765.8	4967.7	
765.98	2816.6	
766.16	2876	
766.34	4192.2	
766.52	4057.7	
766.69	3400.3	
766.87	2798.9	
767.05	4493.2	
767.23	4866	
767.41	2972.3	
767.58	3098.6	
767.76	4793.6	
767.94	4861.2	
768.12	3044	
768.29	3400.3	
768.47	4335.5	
768.65	4930.8	
768.83	2808.4	
769	3435.1	
769.18	4290.5	
769.36	4617.5	
769.54	3328.6	
769.72	2827.6	
769.89	4887.8	
770.07	4769	
770.25	3032.4	
770.43	3654.9	
770.6	5252.4	
770.78	5360.2	
770.96	3146.4	
771.14	3398.9	
771.31	4796.3	
771.49	4389.5	
771.67	2639.8	
771.85	2728.6	
772.02	3943	
772.2	4339	
772.38	3226.2	
772.55	2855.6	
772.73	4572.4	
772.91	4420.9	
773.09	3007.1	
773.26	3140.2	
773.44	4554.7	
773.62	4377.2	
773.8	2851.5	
773.97	2687.6	
774.15	4515.1	
774.33	4382.7	
774.5	2757.2	
774.68	2978.4	
774.86	4596.3	
775.04	4351.9	
775.21	2843.9	
775.39	2758.6	
775.57	4465.9	
775.74	4586.8	
775.92	2656.9	
776.1	2579.1	
776.27	4450.2	
776.45	5146.5	
776.63	2819.4	
776.81	2564.7	
776.98	4318.5	
777.16	4775.2	
777.34	2853.5	
777.51	3031.7	
777.69	4277.5	
777.87	4117.8	
778.04	2968.2	
778.22	3198.2	
778.4	4147.8	
778.57	4528.1	
778.75	2514.9	
778.93	2650.1	
779.1	4094.6	
779.28	3944.4	
779.46	2457.6	
779.64	2702	
779.81	4674.8	
779.99	5063.9	
780.17	3132.7	
780.34	3194.8	
780.52	4343.1	
780.69	4348.5	
780.87	2850.8	
781.05	2675.3	
781.22	4341.7	
781.4	4356.7	
781.58	2763.4	
781.75	2298.5	
781.93	4360.1	
782.11	3925.3	
782.28	3239.2	
782.46	2792.1	
782.64	3887	
782.81	4409.3	
782.99	2867.8	
783.17	2806.4	
783.34	4389.5	
783.52	4001.7	
783.69	2843.9	
783.87	3306.8	
784.05	4040.6	
784.22	4016.7	
784.4	3251.5	
784.58	2940.9	
784.75	4594.3	
784.93	4072	
785.1	2717.7	
785.28	3050.8	
785.46	4501.4	
785.63	3906.2	
785.81	2820.7	
785.99	2680.8	
786.16	4183.3	
786.34	4239.3	
786.51	2704	
786.69	2903.3	
786.87	3821.5	
787.04	4138.3	
787.22	2671.2	
787.39	3114.3	
787.57	4074.8	
787.75	4615.4	
787.92	3262.4	
788.1	3109.5	
788.27	3928.7	
788.45	3713	
788.63	3059	
788.8	2342.9	
788.98	4270.7	
789.15	3744.4	
789.33	2442.5	
789.5	2697.2	
789.68	4476.2	
789.86	4572.4	
790.03	2986.6	
790.21	2675.3	
790.38	4593.6	
790.56	4059.8	
790.73	2594.8	
790.91	2545.6	
791.09	4045.4	
791.26	4377.2	
791.44	2785.9	
791.61	2443.9	
791.79	4033.1	
791.96	4018.8	
792.14	2513.5	
792.32	2268.5	
792.49	4033.8	
792.67	4047.5	
792.84	2618	
793.02	2489	
793.19	4345.1	
793.37	4622.3	
793.54	2241.2	
793.72	2482.1	
793.89	4689.8	
794.07	3960.8	
794.25	2790.7	
794.42	2334.7	
794.6	4590.2	
794.77	4287.8	
794.95	2945	
795.12	2621.4	
795.3	4045.4	
795.47	4283.7	
795.65	2872.6	
795.82	2756.6	
796	3904.8	
796.17	4851	
796.35	2699.2	
796.52	3044	
796.7	4354	
796.87	4371.7	
797.05	2695.1	
797.22	3155.9	
797.4	4377.9	
797.57	4840.7	
797.75	2811.2	
797.92	2609.8	
798.1	4500.8	
798.27	3775.8	
798.45	2383.2	
798.62	2545.6	
798.8	4158.1	
798.97	4448.9	
799.15	2873.3	
799.32	2792.7	
799.5	3756.7	
799.67	4142.4	
799.85	2958.6	
800.02	2315.6	
800.2	3975.8	
800.37	4051.6	
800.55	3047.4	
800.72	2664.4	
800.9	4428.4	
801.07	4683	
801.25	3376.4	
801.42	2827.6	
801.6	4438.6	
801.77	4076.8	
801.95	2694.4	
802.12	2566.1	
802.29	4268	
802.47	4130.1	
802.64	2972.3	
802.82	2280.1	
802.99	3986	
803.17	4431.8	
803.34	2798.2	
803.52	2573.6	
803.69	4777.2	
803.87	3747.8	
804.04	2763.4	
804.21	2779.8	
804.39	4669.4	
804.56	4001.7	
804.74	2478.7	
804.91	2833	
805.09	3935.5	
805.26	3984.7	
805.44	2522.4	
805.61	2676.7	
805.78	4405.9	
805.96	4300.1	
806.13	2863.7	
806.31	3001	
806.48	3693.2	
806.66	3993.5	
806.83	2839.2	
807	2759.3	
807.18	3938.2	
807.35	4164.2	
807.53	2767.5	
807.7	2382.5	
807.87	4623.6	
808.05	3941	
808.22	2949.8	
808.4	2412.5	
808.57	3867.2	
808.74	3757.3	
808.92	2578.4	
809.09	3205.1	
809.27	4023.6	
809.44	4207.2	
809.61	2370.2	
809.79	2465.1	
809.96	4791.6	
810.14	4321.2	
810.31	2355.2	
810.48	2924.5	
810.66	4009.2	
810.83	4361.5	
811.01	2667.8	
811.18	2860.3	
811.35	4398.4	
811.53	3575.8	
811.7	2998.9	
811.87	2792.7	
812.05	4117.1	
812.22	3936.9	
812.39	2572.9	
812.57	2420.7	
812.74	4032.5	
812.92	4829.1	
813.09	2729.3	
813.26	2820.1	
813.44	4712.4	
813.61	3827	
813.78	2338.1	
813.96	2888.3	
814.13	4018.1	
814.3	3846.8	
814.48	3088.3	
814.65	2652.1	
814.82	4565.6	
815	3788.7	
815.17	2798.9	
815.34	3209.2	
815.52	3899.3	
815.69	3898	
815.87	2691	
816.04	2672.6	
816.21	3893.2	
816.38	3690.4	
816.56	2669.2	
816.73	2579.8	
816.9	4849.6	
817.08	4294.6	
817.25	2596.8	
817.42	2992.1	
817.6	3735.5	
817.77	3913.7	
817.94	2779.8	
818.12	2475.3	
818.29	3845.4	
818.46	5124.7	
818.64	2605.7	
818.81	2425.5	
818.98	3902.1	
819.16	4911	
819.33	2886.3	
819.5	2723.1	
819.67	4166.3	
819.85	4528.7	
820.02	2689.7	
820.19	2806.4	
820.37	4117.8	
820.54	3917.1	
820.71	2749.7	
820.88	3317.7	
821.06	4087.7	
821.23	3866.6	
821.4	2794.8	
821.58	2764.1	
821.75	4320.5	
821.92	4102.1	
822.09	2345.6	
822.27	2426.2	
822.44	3997	
822.61	3895.2	
822.79	2370.2	
822.96	4030.4	
823.13	4138.9	
823.3	3711.6	
823.48	2638.5	
823.65	2399.5	
823.82	4435.2	
823.99	3717.1	
824.17	3216.7	
824.34	2456.9	
824.51	4911	
824.68	4003.8	
824.86	2556.5	
825.03	2761.3	
825.2	4027.7	
825.37	4515.1	
825.55	2570.9	
825.72	2735.4	
825.89	4829.8	
826.06	4557.4	
826.24	2654.2	
826.41	2721.1	
826.58	4709.6	
826.75	4085	
826.92	2308.7	
827.1	2469.2	
827.27	5749.3	
827.44	4746.5	
827.61	2524.5	
827.79	2999.6	
827.96	3921.2	
828.13	3946.4	
828.3	2708.8	
828.47	2343.6	
828.65	4238.6	
828.82	4203.8	
828.99	3171.6	
829.16	2808.4	
829.34	4427	
829.51	4344.4	
829.68	2680.1	
829.85	2717.7	
830.02	4689.8	
830.2	4404.5	
830.37	2269.8	
830.54	3119.1	
830.71	4876.9	
830.88	4087.7	
831.05	2151.7	
831.23	2436.4	
831.4	4841.4	
831.57	4978.6	
831.74	2517.6	
831.91	2373.6	
832.09	4349.9	
832.26	4421.6	
832.43	2577	
832.6	2784.6	
832.77	4272.7	
832.94	4663.9	
833.12	2187.9	
833.29	2553.8	
833.46	4244.1	
833.63	5225.1	
833.8	2809.1	
833.97	2591.4	
834.15	4511.7	
834.32	4357.4	
834.49	2698.5	
834.66	2736.1	
834.83	4387.4	
835	3911.6	
835.17	2551.8	
835.35	2511.5	
835.52	4388.1	
835.69	4283	
835.86	2618	
836.03	2237.1	
836.2	4425	
836.37	4205.8	
836.55	2582.5	
836.72	2478	
836.89	4212.7	
837.06	4464.6	
837.23	2613.9	
837.4	2755.9	
837.57	4913.8	
837.75	5136.3	
837.92	2387.2	
838.09	2508.1	
838.26	4172.4	
838.43	4491.9	
838.6	2708.1	
838.77	2438.4	
838.94	4916.5	
839.11	4878.9	
839.29	2603	
839.46	2141.5	
839.63	4493.9	
839.8	4240.7	
839.97	2525.8	
840.14	2454.1	
840.31	4364.9	
840.48	4438.6	
840.65	2183.8	
840.82	2480.8	
841	4403.1	
841.17	4244.8	
841.34	2299.2	
841.51	2471.9	
841.68	4433.2	
841.85	4218.1	
842.02	2437.8	
842.19	2128.5	
842.36	4326	
842.53	4324.6	
842.7	2401.6	
842.87	2716.3	
843.05	5081	
843.22	4199.7	
843.39	2268.5	
843.56	2503.3	
843.73	4217.5	
843.9	4500.1	
844.07	3481.5	
844.24	2961.4	
844.41	5596.4	
844.58	3990.1	
844.75	2312.2	
844.92	2437.1	
845.09	4323.3	
845.26	4402.5	
845.43	2345.6	
845.6	2521.7	
845.77	4390.2	
845.94	4248.9	
846.12	2500.6	
846.29	2654.9	
846.46	4601.8	
846.63	4420.2	
846.8	2350.4	
846.97	2736.1	
847.14	4620.9	
847.31	4320.5	
847.48	2563.4	
847.65	2788	
847.82	4328	
847.99	4427.7	
848.16	2947	
848.33	2780.5	
848.5	4093.9	
848.67	4674.8	
848.84	2263.7	
849.01	2428.9	
849.18	4120.5	
849.35	3869.3	
849.52	2785.2	
849.69	2297.8	
849.86	4548.5	
850.03	4521.9	
850.2	2390.7	
850.37	2702.6	
850.54	4513	
850.71	4112.3	
850.88	2719.7	
851.05	2283.5	
851.22	4289.8	
851.39	4694.6	
851.56	2233.7	
851.73	2636.4	
851.9	3966.2	
852.07	4521.2	
852.24	2574.3	
852.41	2366.1	
852.58	4358.8	
852.75	4033.8	
852.92	2606.4	
853.09	2382.5	
853.26	4034.5	
853.43	4556.7	
853.6	2353.8	
853.77	2084.1	
853.94	4692.6	
854.11	3960.8	
854.28	3216	
854.44	2541.5	
854.61	4898.1	
854.78	4524.6	
854.95	2362.7	
855.12	2758.6	
855.29	3772.4	
855.46	4734.2	
855.63	2381.1	
855.8	3033	
855.97	4102.1	
856.14	4573.1	
856.31	3072	
856.48	2441.9	
856.65	4220.2	
856.82	3951.2	
856.99	2308.1	
857.16	2504.7	
857.33	5014.8	
857.49	4110.3	
857.66	2542.2	
857.83	2606.4	
858	4267.3	
858.17	4296	
858.34	2269.8	
858.51	2336	
858.68	4684.4	
858.85	4672.1	
859.02	2647.3	
859.19	2791.4	
859.36	3990.8	
859.52	3897.3	
859.69	2347	
859.86	2712.9	
860.03	3987.4	
860.2	4701.5	
860.37	2253.4	
860.54	2365.4	
860.71	4430.4	
860.88	4684.4	
861.05	2542.9	
861.21	2914.9	
861.38	4682.3	
861.55	3851.5	
861.72	2233	
861.89	2527.9	
862.06	4515.1	
862.23	4778.6	
862.4	2327.2	
862.56	2415.9	
862.73	4433.2	
862.9	4229.1	
863.07	2656.9	
863.24	2214.5	
863.41	3960.8	
863.58	3998.3	
863.75	2366.8	
863.91	2667.8	
864.08	4565.6	
864.25	4459.1	
864.42	2775.7	
864.59	3080.8	
864.76	4831.8	
864.93	4007.2	
865.09	2241.8	
865.26	2491	
865.43	4672.1	
865.6	4848.2	
865.77	2128.5	
865.94	2370.2	
866.1	4597	
866.27	4399	
866.44	3293.8	
866.61	2285.5	
866.78	4203.8	
866.95	4457.7	
867.11	2330.6	
867.28	2159.9	
867.45	4679.6	
867.62	3928	
867.79	2569.5	
867.96	2327.2	
868.12	3887	
868.29	4443.4	
868.46	2393.4	
868.63	2975	
868.8	4502.1	
868.97	4396.3	
869.13	2443.9	
869.3	2437.8	
869.47	4337.6	
869.64	4507.6	
869.81	2338.1	
869.97	2370.2	
870.14	4255	
870.31	4717.2	
870.48	2273.2	
870.65	2778.4	
870.81	4205.2	
870.98	4207.9	
871.15	2587.9	
871.32	2443.9	
871.48	4406.5	
871.65	4726.7	
871.82	2334.7	
871.99	2520.4	
872.16	4923.3	
872.32	4581.3	
872.49	2431.6	
872.66	2419.3	
872.83	4542.4	
872.99	4031.8	
873.16	2643.9	
873.33	2376.3	
873.5	4274.1	
873.67	4332.1	
873.83	2503.3	
874	2979.8	
874.17	4395.6	
874.34	4771.1	
874.5	2910.8	
874.67	2762.7	
874.84	4609.3	
875.01	3798.3	
875.17	3061.7	
875.34	2354.5	
875.51	4344.4	
875.68	4981.3	
875.84	2766.8	
876.01	3189.4	
876.18	4425.7	
876.34	4401.1	
876.51	2329.2	
876.68	2341.5	
876.85	4086.4	
877.01	4672.8	
877.18	3166.8	
877.35	2314.9	
877.52	4414.7	
877.68	3970.3	
877.85	2312.8	
878.02	2324.4	
878.18	4035.9	
878.35	4188.8	
878.52	1977	
878.69	2624.1	
878.85	4650.9	
879.02	4421.6	
879.19	3097.9	
879.35	2482.8	
879.52	4502.8	
879.69	4445.5	
879.86	2138.8	
880.02	2555.2	
880.19	4293.2	
880.36	4913.1	
880.52	2547	
880.69	2714.9	
880.86	4471.4	
881.02	4494.6	
881.19	2572.2	
881.36	2489.6	
881.52	4455	
881.69	4059.1	
881.86	2515.6	
882.02	2491.7	
882.19	4610.7	
882.36	5141.1	
882.52	2396.1	
882.69	3104	
882.86	4331.5	
883.02	4328.7	
883.19	2712.2	
883.36	2572.9	
883.52	4507.6	
883.69	4928.1	
883.86	2387.9	
884.02	2248	
884.19	4412.7	
884.36	4260.5	
884.52	2571.6	
884.69	2492.4	
884.86	4177.9	
885.02	4748.6	
885.19	2559.3	
885.36	2635.7	
885.52	4134.2	
885.69	4402.5	
885.86	3144.3	
886.02	2867.2	
886.19	4513	
886.35	4029.7	
886.52	2566.8	
886.69	3095.8	
886.85	3986.7	
887.02	4640.7	
887.19	4640.7	
887.35	4640.7	
887.52	4640.7	
887.68	4640.7	
887.85	4640.7	
888.02	4640.7	
888.18	4640.7	
888.35	4640.7	
888.51	4640.7	
888.68	4640.7	
888.85	4640.7	
889.01	4640.7	
889.18	4640.7	
889.35	4640.7	
889.51	4640.7	
889.68	4640.7	
889.84	4640.7	
890.01	4640.7	
890.17	4640.7	
890.34	4640.7	
890.51	4640.7	
890.67	4640.7	
890.84	4640.7	
891	4640.7	
891.17	4640.7	
891.34	4640.7	
891.5	4640.7	
891.67	4640.7	
891.83	4640.7	
892	4640.7	
892.16	4640.7	
892.33	4640.7	
892.5	4640.7	
892.66	4640.7	
892.83	4640.7	
892.99	4640.7	
893.16	4640.7	
893.32	4640.7	
893.49	4640.7	
893.65	4640.7	
893.82	4640.7	
893.99	4640.7	
894.15	4640.7	
894.32	4640.7	
894.48	4640.7	
894.65	4640.7	
894.81	4640.7	
894.98	4640.7	
895.14	4640.7	
895.31	4640.7	
895.47	4640.7	
895.64	4640.7	
895.81	4640.7	
895.97	4640.7	
896.14	4640.7	
896.3	4640.7	
896.47	4640.7	
896.63	4640.7	
896.8	4640.7	
896.96	4640.7	
897.13	4640.7	
897.29	4640.7	
897.46	4640.7	
897.62	4640.7	
897.79	4640.7	
897.95	4640.7	
898.12	4640.7	
898.28	4640.7	
898.45	4640.7	
898.61	4640.7	
898.78	4640.7	
898.94	4640.7	
899.11	4640.7	
899.27	4640.7	
899.44	4640.7	
899.6	4640.7	
899.77	4640.7	
899.93	4640.7	
900.1	4640.7	
900.26	4640.7	
900.43	4640.7	
900.59	4640.7	
900.76	4640.7	
900.92	4640.7	
901.09	4640.7	
901.25	4640.7	
901.42	4640.7	
901.58	4640.7	
901.75	4640.7	
901.91	4640.7	
902.07	4640.7	
902.24	4640.7	
902.4	4640.7	
902.57	4640.7	
902.73	4640.7	
902.9	4640.7	
903.06	4640.7	
903.23	4640.7	
903.39	4640.7	
903.56	4640.7	
903.72	4640.7	
903.88	4640.7	
904.05	4640.7	
904.21	4640.7	
904.38	4640.7	
904.54	4640.7	
904.71	4640.7	
904.87	4640.7	
905.03	4640.7	
905.2	4640.7	
905.36	4640.7	
905.53	4640.7	
905.69	4640.7	
905.86	4640.7	
906.02	4640.7	
906.18	4640.7	
906.35	4640.7	
906.51	4640.7	
906.68	4640.7	
906.84	4640.7	
907.01	4640.7	
907.17	4640.7	
907.33	4640.7	
907.5	4640.7	
907.66	4640.7	
907.83	4640.7	
907.99	4640.7	
908.15	4640.7	
908.32	4640.7	
908.48	4640.7	
908.65	4640.7	
908.81	4640.7	
908.97	4640.7	
909.14	4640.7	
909.3	4640.7	
909.47	4640.7	
909.63	4640.7	
909.79	4640.7	
909.96	4640.7	
910.12	4640.7	
910.28	4640.7	
910.45	4640.7	
910.61	4640.7	
910.78	4640.7	
910.94	4640.7	
911.1	4640.7	
911.27	4640.7	
911.43	4640.7	
911.59	4640.7	
911.76	4640.7	
911.92	4640.7	
912.08	4640.7	
912.25	4640.7	
912.41	4640.7	
912.57	4640.7	
912.74	4640.7	
912.9	4640.7	
913.07	4640.7	
913.23	4640.7	
913.39	4640.7	
913.56	4640.7	
913.72	4640.7	
913.88	4640.7	
914.05	4640.7	
914.21	4640.7	
914.37	4640.7	
914.54	4640.7	
914.7	4640.7	
914.86	4640.7	
915.03	4640.7	
915.19	4640.7	
