Wavelength	Intensities	
nm	a.u.	
179.22	1765.3	
179.44	1760.6	
179.65	1770.1	
179.86	1751	
180.08	1757.8	
180.29	4182.6	
180.51	3087.7	
180.72	5141.8	
180.94	5803.3	
181.15	2835.1	
181.37	2785.9	
181.58	4957.4	
181.79	5170.4	
182.01	2952.5	
182.22	3136.1	
182.44	5196.4	
182.65	4444.8	
182.87	3844.7	
183.08	3450.8	
183.29	5437.4	
183.51	4559.5	
183.72	3102.7	
183.94	4442.7	
184.15	4869.4	
184.37	4833.9	
184.58	2788	
184.79	3665.2	
185.01	4621.6	
185.22	5158.2	
185.44	3881.6	
185.65	3363.4	
185.86	4911.7	
186.08	4451.6	
186.29	2785.2	
186.51	2922.5	
186.72	4607.9	
186.94	5288.5	
187.15	3341.6	
187.36	3456.3	
187.58	6735.8	
187.79	4961.5	
188.01	3558.7	
188.22	5390.3	
188.43	5840.8	
188.65	5190.2	
188.86	2994.8	
189.08	3398.9	
189.29	4738.3	
189.5	4700.1	
189.72	3202.3	
189.93	3279.5	
190.15	5371.1	
190.36	6253.1	
190.57	3408.5	
190.79	3382.6	
191	5351.3	
191.22	5337	
191.43	3492.5	
191.64	2996.9	
191.86	5569.1	
192.07	5351.3	
192.29	3078.1	
192.5	3158	
192.71	5344.5	
192.93	4656.4	
193.14	3170.3	
193.35	3282.9	
193.57	4696	
193.78	5281.7	
194	2622.1	
194.21	3087.7	
194.42	4535.6	
194.64	4882.4	
194.85	3459	
195.07	3964.9	
195.28	4924.7	
195.49	4422.2	
195.71	4157.4	
195.92	2982.5	
196.13	5117.9	
196.35	5097.4	
196.56	4405.2	
196.78	3462.4	
196.99	6214.9	
197.2	5830.6	
197.42	3874.1	
197.63	3459.7	
197.84	4481.6	
198.06	5078.3	
198.27	3216	
198.48	4127.3	
198.7	4666.6	
198.91	4866	
199.13	3416	
199.34	3491.1	
199.55	5240.8	
199.77	4258.4	
199.98	3116.3	
200.19	3513.6	
200.41	4849.6	
200.62	4552.6	
200.83	3567.6	
201.05	3801.7	
201.26	4809.3	
201.47	4605.9	
201.69	3056.9	
201.9	3054.9	
202.11	4897.4	
202.33	5653.8	
202.54	3297.2	
202.76	3710.9	
202.97	4921.3	
203.18	5045.5	
203.4	3607.8	
203.61	3556.6	
203.82	4941.7	
204.04	4654.4	
204.25	3485	
204.46	3399.6	
204.68	4861.2	
204.89	5033.2	
205.1	3367.5	
205.32	2983.2	
205.53	5243.5	
205.74	5342.5	
205.96	2600.2	
206.17	3560.1	
206.38	5159.5	
206.6	5267.4	
206.81	3981.3	
207.02	3255.6	
207.24	5091.9	
207.45	5440.8	
207.66	3338.2	
207.88	2858.3	
208.09	5048.2	
208.3	4877.6	
208.52	3039.9	
208.73	3343.7	
208.94	4909.7	
209.15	5427.1	
209.37	3302.7	
209.58	3721.8	
209.79	5254.4	
210.01	4749.2	
210.22	2706.7	
210.43	2860.3	
210.65	4891.9	
210.86	5180	
211.07	3317	
211.29	3095.8	
211.5	5130.8	
211.71	4805.9	
211.93	3065.8	
212.14	3084.9	
212.35	4874.8	
212.56	4949.3	
212.78	3518.4	
212.99	2874	
213.2	5664	
213.42	4730.1	
213.63	3200.3	
213.84	3337.5	
214.06	4430.4	
214.27	4489.1	
214.48	3288.4	
214.69	3512.9	
214.91	5434.6	
215.12	5518.6	
215.33	3517	
215.55	3818.8	
215.76	5896.1	
215.97	5140.4	
216.18	3369.6	
216.4	3377.8	
216.61	4642.7	
216.82	5326.8	
217.04	3112.2	
217.25	3140.2	
217.46	5409.4	
217.67	5176.6	
217.89	2813.2	
218.1	2885.6	
218.31	4932.9	
218.53	5082.4	
218.74	3233.1	
218.95	3090.4	
219.16	4919.2	
219.38	5575.3	
219.59	3112.2	
219.8	3706.8	
220.01	6111.8	
220.23	4868.7	
220.44	3999	
220.65	3102.7	
220.87	4950.6	
221.08	5372.5	
221.29	2878.8	
221.5	3759.4	
221.72	6371.9	
221.93	4697.4	
222.14	3494.5	
222.35	4097.3	
222.57	4885.8	
222.78	5227.8	
222.99	3373	
223.2	3528.7	
223.42	5038	
223.63	5221	
223.84	2624.1	
224.05	2639.1	
224.27	6072.2	
224.48	5574.6	
224.69	4012	
224.9	3498.6	
225.12	5065.3	
225.33	4855.1	
225.54	2798.2	
225.75	3150.5	
225.97	4597.7	
226.18	4856.4	
226.39	3343	
226.6	3105.4	
226.82	4676.2	
227.03	4564.2	
227.24	3464.5	
227.45	2932	
227.67	5236.7	
227.88	5558.9	
228.09	3876.8	
228.3	3842.7	
228.52	5219.6	
228.73	4780	
228.94	3278.8	
229.15	2921.1	
229.36	4885.8	
229.58	4779.3	
229.79	3269.9	
230	3764.2	
230.21	5762.3	
230.43	4991.6	
230.64	3477.5	
230.85	3562.1	
231.06	5184.8	
231.28	5228.5	
231.49	2849.4	
231.7	3338.2	
231.91	5159.5	
232.12	4893.3	
232.34	2949.8	
232.55	3304.1	
232.76	5387.5	
232.97	5079	
233.18	3087.7	
233.4	3437.2	
233.61	5143.1	
233.82	4718.5	
234.03	3270.6	
234.25	3190.1	
234.46	6537.8	
234.67	4876.9	
234.88	3596.9	
235.09	3114.3	
235.31	5130.8	
235.52	4791.6	
235.73	3414	
235.94	2965.5	
236.15	4607.2	
236.37	5801.9	
236.58	3084.2	
236.79	3319.1	
237	5137.7	
237.21	4440.7	
237.43	3575.1	
237.64	2807.8	
237.85	8200.7	
238.06	4523.3	
238.27	3554.6	
238.48	2928.6	
238.7	5221	
238.91	4764.3	
239.12	3293.1	
239.33	3424.9	
239.54	4622.9	
239.76	4807.9	
239.97	3287.7	
240.18	3332	
240.39	5904.3	
240.6	5096.7	
240.82	3454.9	
241.03	2881.5	
241.24	4882.4	
241.45	5526.1	
241.66	3067.2	
241.87	3558	
242.09	5517.2	
242.3	5821	
242.51	3612.6	
242.72	3266.5	
242.93	5237.3	
243.14	4907.6	
243.36	3826.3	
243.57	4087.1	
243.78	5542.5	
243.99	5188.9	
244.2	3360.7	
244.41	2985.9	
244.63	4527.4	
244.84	5094	
245.05	3593.5	
245.26	3294.5	
245.47	5138.4	
245.68	5309.7	
245.9	4275.5	
246.11	3521.8	
246.32	4743.1	
246.53	5024.3	
246.74	5280.3	
246.95	2848.7	
247.16	4556.7	
247.38	4976.6	
247.59	2853.5	
247.8	3312.9	
248.01	4590.2	
248.22	4797	
248.43	3051.5	
248.64	3287.7	
248.86	4491.9	
249.07	4719.9	
249.28	2988.7	
249.49	3485.6	
249.7	5300.8	
249.91	5363.6	
250.12	2867.2	
250.34	2904	
250.55	5032.5	
250.76	4907.6	
250.97	3441.3	
251.18	3439.2	
251.39	5453.7	
251.6	5003.9	
251.81	3472.7	
252.03	3465.2	
252.24	4747.2	
252.45	5287.9	
252.66	2955.2	
252.87	3662.5	
253.08	4949.9	
253.29	6206	
253.5	3001	
253.72	4008.6	
253.93	4837.3	
254.14	5709.1	
254.35	3252.2	
254.56	3312.9	
254.77	5054.4	
254.98	4554	
255.19	3166.8	
255.41	3963.5	
255.62	4980	
255.83	5423	
256.04	3520.5	
256.25	3516.4	
256.46	5868.1	
256.67	4612	
256.88	3424.2	
257.09	3807.2	
257.31	4575.2	
257.52	4646.8	
257.73	4239.3	
257.94	3196.2	
258.15	4784.1	
258.36	4924.7	
258.57	3924.6	
258.78	2598.9	
258.99	5272.2	
259.2	4771.8	
259.41	3194.8	
259.63	3261	
259.84	5513.1	
260.05	5895.4	
260.26	4130.8	
260.47	3136.8	
260.68	5337.7	
260.89	4741.7	
261.1	3786	
261.31	3044	
261.52	5424.4	
261.73	5664.7	
261.95	4074.1	
262.16	3577.1	
262.37	5453.1	
262.58	5505.6	
262.79	4036.5	
263	3222.8	
263.21	4904.9	
263.42	4721.9	
263.63	3321.1	
263.84	3219.4	
264.05	5343.8	
264.26	5640.1	
264.47	3949.2	
264.69	3612.6	
264.9	5507.7	
265.11	5082.4	
265.32	3071.3	
265.53	3187.3	
265.74	4989.5	
265.95	4404.5	
266.16	3388.7	
266.37	3680.9	
266.58	5023	
266.79	4746.5	
267	3190.1	
267.21	2957.9	
267.42	4529.4	
267.63	4872.1	
267.84	3355.9	
268.06	2923.1	
268.27	5240.1	
268.48	5445.5	
268.69	3257	
268.9	3771.7	
269.11	5532.2	
269.32	4465.3	
269.53	3327.9	
269.74	3092.4	
269.95	5141.1	
270.16	4381.3	
270.37	3345.7	
270.58	3808.5	
270.79	4792.9	
271	5347.2	
271.21	3568.2	
271.42	3383.2	
271.63	5049.6	
271.84	4539	
272.05	2721.8	
272.26	3055.6	
272.47	4926	
272.68	5033.2	
272.89	3267.9	
273.11	3681.6	
273.32	4757.4	
273.53	5607.3	
273.74	3558.7	
273.95	3491.1	
274.16	5335.6	
274.37	5008.6	
274.58	3654.9	
274.79	2953.9	
275	5024.3	
275.21	5430.5	
275.42	4276.2	
275.63	3740.3	
275.84	5107.6	
276.05	6246.3	
276.26	3493.8	
276.47	3261	
276.68	4810	
276.89	5734.3	
277.1	3677.5	
277.31	2942.2	
277.52	5132.9	
277.73	5324.7	
277.94	2893.1	
278.15	3263.8	
278.36	5052.3	
278.57	4650.9	
278.78	3230.3	
278.99	3596.2	
279.2	4641.4	
279.41	4593.6	
279.62	4123.2	
279.83	3001	
280.04	5859.9	
280.25	4586.8	
280.46	4120.5	
280.67	3384.6	
280.88	4595.6	
281.09	5422.3	
281.3	3491.8	
281.51	4347.2	
281.72	4641.4	
281.93	5261.9	
282.14	3144.3	
282.35	3388.7	
282.56	5291.3	
282.77	5185.5	
282.98	3240.6	
283.19	3874.8	
283.4	6331.6	
283.61	4855.7	
283.82	2991.4	
284.03	4047.5	
284.24	5070.8	
284.45	5384.8	
284.66	4121.2	
284.87	3904.8	
285.08	5371.8	
285.29	5461.9	
285.5	2865.8	
285.71	3277.4	
285.92	5381.4	
286.12	5949.3	
286.33	4044.1	
286.54	3267.2	
286.75	5290.6	
286.96	4764.9	
287.17	3043.3	
287.38	3945.1	
287.59	4663.2	
287.8	4603.2	
288.01	3284.3	
288.22	3657	
288.43	5241.4	
288.64	4498.7	
288.85	3824.9	
289.06	3676.1	
289.27	5240.1	
289.48	5629.9	
289.69	4143.7	
289.9	3717.7	
290.11	5426.4	
290.32	4694.6	
290.53	3845.4	
290.74	3536.2	
290.94	5197.7	
291.15	5277.6	
291.36	3149.8	
291.57	3726.6	
291.78	4728.8	
291.99	4418.2	
292.2	3005.1	
292.41	3622.2	
292.62	5352	
292.83	5109	
293.04	4323.3	
293.25	3084.2	
293.46	4760.8	
293.67	5375.2	
293.88	3082.9	
294.09	3097.2	
294.29	4536.3	
294.5	5003.2	
294.71	3284.9	
294.92	3263.1	
295.13	4734.9	
295.34	5747.3	
295.55	2893.8	
295.76	2870.6	
295.97	5180.7	
296.18	5788.9	
296.39	3012.6	
296.6	3207.8	
296.81	4990.9	
297.01	5216.9	
297.22	3297.2	
297.43	3149.1	
297.64	4691.9	
297.85	4573.1	
298.06	2669.2	
298.27	2862.4	
298.48	4848.2	
298.69	4695.3	
298.9	3387.3	
299.11	3114.3	
299.31	4538.3	
299.52	4555.4	
299.73	3652.9	
299.94	3523.9	
300.15	4952.7	
300.36	4614.1	
300.57	3554.6	
300.78	3511.6	
300.99	4832.5	
301.2	4996.4	
301.4	3150.5	
301.61	3426.3	
301.82	5189.6	
302.03	5248.3	
302.24	3743	
302.45	3017.3	
302.66	5158.2	
302.87	5373.9	
303.08	3186.6	
303.29	4184.7	
303.49	4688.5	
303.7	4877.6	
303.91	2846.7	
304.12	4063.9	
304.33	4500.1	
304.54	5014.8	
304.75	3187.3	
304.96	3058.3	
305.16	5142.4	
305.37	5684.5	
305.58	2788.7	
305.79	2893.1	
306	5138.4	
306.21	4379.2	
306.42	3213.9	
306.63	4667.3	
306.83	4790.2	
307.04	5324	
307.25	3438.5	
307.46	3402.4	
307.67	4304.8	
307.88	5210	
308.09	3158	
308.29	3193.5	
308.5	4964.3	
308.71	5370.5	
308.92	3317.7	
309.13	3070.6	
309.34	4838.7	
309.55	4828.4	
309.75	3889.8	
309.96	3501.3	
310.17	5208	
310.38	4667.3	
310.59	3746.4	
310.8	3020.1	
311.01	5009.3	
311.21	4823.6	
311.42	3023.5	
311.63	3107.5	
311.84	4672.1	
312.05	4954.7	
312.26	3533.4	
312.46	3852.9	
312.67	4751.3	
312.88	4524	
313.09	3042.6	
313.3	3002.3	
313.51	5554.8	
313.71	5803.3	
313.92	3048.1	
314.13	3228.3	
314.34	5100.8	
314.55	4860.5	
314.76	3780.6	
314.96	3361.4	
315.17	4976.6	
315.38	5224.4	
315.59	3108.8	
315.8	2970.9	
316.01	5520.6	
316.21	5618.9	
316.42	2957.3	
316.63	3379.8	
316.84	4781.3	
317.05	5434.6	
317.26	3555.3	
317.46	3240.6	
317.67	4924	
317.88	5231.9	
318.09	3781.9	
318.3	2870.6	
318.5	4732.9	
318.71	5134.3	
318.92	4801.1	
319.13	3574.4	
319.34	5327.4	
319.54	5425.1	
319.75	2836.4	
319.96	2676	
320.17	5180.7	
320.38	5363.6	
320.58	2840.5	
320.79	3317.7	
321	5376.6	
321.21	5454.4	
321.42	3396.2	
321.62	2873.3	
321.83	4578.6	
322.04	4920.6	
322.25	3239.9	
322.46	3046	
322.66	4971.8	
322.87	5152.7	
323.08	3738.9	
323.29	3003	
323.5	5770.5	
323.7	4586.8	
323.91	4083.6	
324.12	3666.5	
324.33	4995.7	
324.53	5179.3	
324.74	3515	
324.95	3745.7	
325.16	4444.1	
325.37	4747.2	
325.57	3074	
325.78	3160	
325.99	5048.2	
326.2	4455	
326.4	4291.2	
326.61	2886.3	
326.82	4829.8	
327.03	4986.1	
327.24	4271.4	
327.44	3984	
327.65	5111.7	
327.86	4213.4	
328.07	3527.3	
328.27	2953.9	
328.48	5467.4	
328.69	4545.8	
328.9	4287.1	
329.1	3259	
329.31	4846.2	
329.52	5508.4	
329.73	3050.8	
329.93	3390.8	
330.14	4892.6	
330.35	5085.1	
330.56	4820.9	
330.76	3773	
330.97	4764.3	
331.18	5063.3	
331.39	3379.8	
331.59	2786.6	
331.8	5411.4	
332.01	5548.6	
332.22	3190.1	
332.42	3534.1	
332.63	5022.3	
332.84	4639.3	
333.05	3421.5	
333.25	3132.7	
333.46	4701.5	
333.67	4890.5	
333.88	3212.6	
334.08	3538.2	
334.29	6322.1	
334.5	5467.4	
334.7	2967.5	
334.91	4253.6	
335.12	4551.3	
335.33	5266	
335.53	3360	
335.74	4821.6	
335.95	4855.7	
336.16	4536.3	
336.36	3353.2	
336.57	3822.2	
336.78	4485.7	
336.98	5423	
337.19	4085.7	
337.4	3302	
337.61	5764.3	
337.81	4545.1	
338.02	3179.8	
338.23	3919.8	
338.43	5526.1	
338.64	4579.9	
338.85	3145	
339.05	4041.3	
339.26	5580.7	
339.47	4552.6	
339.68	3087.7	
339.88	4398.4	
340.09	5097.4	
340.3	5244.2	
340.5	3514.3	
340.71	2760	
340.92	4513	
341.13	5477	
341.33	3069.9	
341.54	3590.1	
341.75	5085.8	
341.95	4783.4	
342.16	3463.8	
342.37	3677.5	
342.57	4582.7	
342.78	4807.9	
342.99	3708.9	
343.19	2832.3	
343.4	5255.8	
343.61	5161.6	
343.81	3247.4	
344.02	2990	
344.23	5229.1	
344.43	5504.9	
344.64	3790.8	
344.85	3712.3	
345.06	5155.4	
345.26	5410.1	
345.47	3519.1	
345.68	4069.3	
345.88	4433.9	
346.09	5322	
346.3	3558.7	
346.5	2752.5	
346.71	4883.7	
346.92	4668	
347.12	2902.7	
347.33	3447.4	
347.54	5335.6	
347.74	5619.6	
347.95	3495.9	
348.16	2695.1	
348.36	4764.9	
348.57	4621.6	
348.78	3581.9	
348.98	3764.8	
349.19	4902.8	
349.39	4427	
349.6	2880.1	
349.81	3091.1	
350.01	5183.4	
350.22	4615.4	
350.43	3416	
350.63	4028.4	
350.84	4981.3	
351.05	4734.2	
351.25	3119.1	
351.46	2888.3	
351.67	5309.7	
351.87	4655.7	
352.08	3291.1	
352.29	3775.1	
352.49	5343.2	
352.7	5357.5	
352.9	3031.7	
353.11	3752.6	
353.32	5816.2	
353.52	4767	
353.73	2979.1	
353.94	3774.4	
354.14	5117.2	
354.35	4977.9	
354.55	3075.4	
354.76	3410.6	
354.97	5153.4	
355.17	4870.1	
355.38	2968.9	
355.59	3926.6	
355.79	4650.9	
356	4965	
356.2	3465.8	
356.41	3043.3	
356.62	4470.7	
356.82	4893.3	
357.03	3634.5	
357.24	3307.5	
357.44	4666	
357.65	4789.5	
357.85	4255.7	
358.06	3513.6	
358.27	4461.2	
358.47	4614.8	
358.68	2895.8	
358.88	3599	
359.09	5127.4	
359.3	5397.8	
359.5	4205.2	
359.71	3732.1	
359.91	5847.6	
360.12	5219.6	
360.33	3629	
360.53	3977.8	
360.74	4699.4	
360.94	4795.7	
361.15	3777.1	
361.36	3183.9	
361.56	5362.9	
361.77	4906.3	
361.97	4184	
362.18	3350.5	
362.38	5408	
362.59	4625	
362.8	3175	
363	3020.8	
363.21	4440.7	
363.41	5026.4	
363.62	3543	
363.83	4377.9	
364.03	5092.6	
364.24	5787.6	
364.44	4487.1	
364.65	4396.3	
364.85	4940.4	
365.06	4605.9	
365.27	3320.4	
365.47	3385.3	
365.68	5688.6	
365.88	4874.2	
366.09	3729.4	
366.29	3424.2	
366.5	5128.1	
366.71	5420.3	
366.91	4446.8	
367.12	3794.2	
367.32	5959.6	
367.53	5334.3	
367.73	3758	
367.94	4528.7	
368.14	5304.2	
368.35	5900.2	
368.56	3777.1	
368.76	3217.4	
368.97	5456.5	
369.17	6703	
369.38	3314.3	
369.58	3546.4	
369.79	4591.5	
369.99	5748	
370.2	4354	
370.4	3666.5	
370.61	5187.5	
370.82	6105.7	
371.02	3617.4	
371.23	3003	
371.43	4526.7	
371.64	5595.1	
371.84	3609.9	
372.05	4523.3	
372.25	6690	
372.46	5395	
372.66	3624.2	
372.87	3596.9	
373.07	5457.2	
373.28	6746.7	
373.48	4455	
373.69	4179.9	
373.9	5080.3	
374.1	5102.2	
374.31	4376.5	
374.51	4012	
374.72	5819.6	
374.92	4795.7	
375.13	4605.2	
375.33	3936.2	
375.54	5455.8	
375.74	4992.3	
375.95	3993.5	
376.15	4945.2	
376.36	5498.8	
376.56	5279.7	
376.77	4115.1	
376.97	4398.4	
377.18	6330.3	
377.38	5616.9	
377.59	4622.9	
377.79	3643.3	
378	5358.2	
378.2	5750	
378.41	3748.5	
378.61	3637.2	
378.82	5894.1	
379.02	5117.2	
379.23	3909.6	
379.43	4772.4	
379.64	5967.8	
379.84	5615.5	
380.05	3766.2	
380.25	3702.7	
380.46	5670.1	
380.66	5296.7	
380.87	4854.4	
381.07	5098.8	
381.28	6133.7	
381.48	5633.3	
381.69	3700.7	
381.89	3813.3	
382.1	4762.9	
382.3	5679	
382.51	4716.5	
382.71	5371.1	
382.91	5607.3	
383.12	6082.5	
383.32	4073.4	
383.53	4213.4	
383.73	5558.2	
383.94	5417.6	
384.14	4159.4	
384.35	3426.9	
384.55	5343.8	
384.76	5637.4	
384.96	4079.6	
385.17	4276.8	
385.37	5616.2	
385.58	5014.8	
385.78	4308.9	
385.98	3363.4	
386.19	5215.5	
386.39	5552	
386.6	3848.8	
386.8	4060.4	
387.01	5616.2	
387.21	5662	
387.42	4390.8	
387.62	4890.5	
387.83	5143.1	
388.03	5593	
388.23	4136.9	
388.44	4703.5	
388.64	4904.2	
388.85	4985.4	
389.05	4474.1	
389.26	4941.1	
389.46	6666.8	
389.67	6092.7	
389.87	4474.1	
390.07	4526	
390.28	5448.3	
390.48	5094.7	
390.69	3889.1	
390.89	4124.6	
391.1	5225.1	
391.3	5981.4	
391.5	5066	
391.71	5554.8	
391.91	5872.2	
392.12	6647	
392.32	5113.8	
392.53	4515.8	
392.73	5423	
392.93	5558.9	
393.14	4327.4	
393.34	5134.3	
393.55	5829.2	
393.75	5528.8	
393.95	4261.1	
394.16	4214.7	
394.36	5247.6	
394.57	5789.6	
394.77	3767.6	
394.98	4112.3	
395.18	5227.1	
395.38	5281.7	
395.59	4881.7	
395.79	4057	
396	5446.9	
396.2	5962.3	
396.4	4799.1	
396.61	4723.3	
396.81	6102.9	
397.02	5422.3	
397.22	5069.4	
397.42	5119.2	
397.63	6178.7	
397.83	5446.2	
398.04	4092.5	
398.24	4601.1	
398.44	5879.7	
398.65	5147.2	
398.85	4048.2	
399.05	4112.3	
399.26	5424.4	
399.46	6741.2	
399.67	4483.7	
399.87	4151.2	
400.07	5812.1	
400.28	6077	
400.48	4341.7	
400.69	5259.9	
400.89	6357.6	
401.09	6651.8	
401.3	4285.7	
401.5	5181.4	
401.7	6833.4	
401.91	7070.3	
402.11	4702.8	
402.32	4835.9	
402.52	6438.8	
402.72	6309.8	
402.93	5055.1	
403.13	4048.8	
403.33	7010.2	
403.54	5804.6	
403.74	4699.4	
403.94	5281	
404.15	5784.1	
404.35	6759	
404.56	4360.1	
404.76	5816.9	
404.96	6112.5	
405.17	5978.7	
405.37	5687.9	
405.57	4888.5	
405.78	6328.2	
405.98	5958.2	
406.18	4683	
406.39	5379.3	
406.59	6402.6	
406.79	6016.9	
407	4378.6	
407.2	4427.7	
407.4	6412.2	
407.61	6480.5	
407.81	4475.5	
408.01	6209.4	
408.22	5444.2	
408.42	7177.4	
408.62	5525.4	
408.83	5164.3	
409.03	6336.4	
409.23	6218.3	
409.44	5335.6	
409.64	5509.7	
409.84	7225.9	
410.05	7175.4	
410.25	5590.3	
410.45	5367	
410.66	6876.4	
410.86	8862.9	
411.06	5931.6	
411.27	5697.4	
411.47	8739.4	
411.67	7078.5	
411.88	5968.5	
412.08	6225.1	
412.28	7724.3	
412.49	8071.7	
412.69	5924.8	
412.89	5976.7	
413.09	8047.2	
413.3	7888.8	
413.5	6081.1	
413.7	5749.3	
413.91	7355.6	
414.11	8017.8	
414.31	6048.3	
414.52	6400.6	
414.72	7821.2	
414.92	7813	
415.12	6014.2	
415.33	6490.7	
415.53	8079.9	
415.73	8288.1	
415.94	6720.8	
416.14	6281.8	
416.34	7338.6	
416.55	7124.9	
416.75	7294.2	
416.95	6879.8	
417.15	8264.2	
417.36	8726.4	
417.56	7545.4	
417.76	6796.5	
417.97	8491.6	
418.17	8387.1	
418.37	6479.8	
418.57	6543.9	
418.78	8102.4	
418.98	7815	
419.18	7277.1	
419.38	7210.2	
419.59	7894.9	
419.79	7537.2	
419.99	6393.1	
420.2	6758.3	
420.4	8232.2	
420.6	8292.9	
420.8	6389	
421.01	6150.7	
421.21	8273.1	
421.41	8318.2	
421.61	6721.4	
421.82	6481.1	
422.02	7934.5	
422.22	8645.8	
422.42	7212.9	
422.63	6720.1	
422.83	7952.9	
423.03	8923.7	
423.23	6905.8	
423.44	6059.3	
423.64	7952.9	
423.84	7555.6	
424.04	6398.5	
424.25	6131.6	
424.45	8568.7	
424.65	8497.7	
424.85	5930.9	
425.06	6329.6	
425.26	8658.8	
425.46	7819.8	
425.66	6760.3	
425.87	6572.6	
426.07	8450.6	
426.27	8297	
426.47	6640.2	
426.67	6036.7	
426.88	8669.7	
427.08	8246.5	
427.28	6871.6	
427.48	6047.7	
427.69	7348.8	
427.89	7903.8	
428.09	6748.1	
428.29	6025.8	
428.5	8350.9	
428.7	8065.6	
428.9	6021.7	
429.1	6380.1	
429.3	8048.5	
429.51	8316.1	
429.71	6216.3	
429.91	7035.5	
430.11	8441.7	
430.31	8615.8	
430.52	6617	
430.72	6935.8	
430.92	8989.9	
431.12	8537.3	
431.32	6548.7	
431.53	6836.1	
431.73	7651.9	
431.93	8941.4	
432.13	6381.5	
432.33	6361.7	
432.54	8019.2	
432.74	8306.6	
432.94	6350.8	
433.14	7110.5	
433.34	8494.3	
433.55	8242.4	
433.75	7257.3	
433.95	8748.9	
434.15	8436.3	
434.35	8164.6	
434.56	6583.5	
434.76	6305	
434.96	8456.7	
435.16	8794.7	
435.36	6567.2	
435.56	7548.8	
435.77	8297	
435.97	8467.7	
436.17	8137.3	
436.37	7492.2	
436.57	8312	
436.78	8317.5	
436.98	8462.2	
437.18	8069.7	
437.38	8992.6	
437.58	8525.7	
437.78	8151.6	
437.99	7057.3	
438.19	8956.4	
438.39	10119	
438.59	6951.5	
438.79	6543.9	
438.99	9372.2	
439.2	8327	
439.4	6479.1	
439.6	6458.6	
439.8	8509.3	
440	9509.4	
440.2	7384.3	
440.4	7571.3	
440.61	9127.1	
440.81	9661.6	
441.01	7127.6	
441.21	7894.2	
441.41	9849.4	
441.61	9299.8	
441.81	8289.5	
442.02	9041.8	
442.22	10096	
442.42	9534	
442.62	7358.4	
442.82	7276.4	
443.02	9833	
443.22	9187.9	
443.43	7666.9	
443.63	7278.5	
443.83	8873.2	
444.03	8832.2	
444.23	8524.3	
444.43	8045.8	
444.63	9482.8	
444.83	10361	
445.04	7719.5	
445.24	8637	
445.44	9617.9	
445.64	9742.2	
445.84	8125.7	
446.04	8288.8	
446.24	9014.5	
446.44	9918.3	
446.65	7370.6	
446.85	7773.4	
447.05	9171.5	
447.25	9728.5	
447.45	7756.3	
447.65	7215.7	
447.85	9189.2	
448.05	8879.3	
448.25	8193.9	
448.46	7959.1	
448.66	9346.2	
448.86	8867	
449.06	7294.2	
449.26	8082	
449.46	9669.8	
449.66	8796	
449.86	7920.9	
450.06	7891.5	
450.26	9041.1	
450.47	9679.4	
450.67	8091.5	
450.87	8380.3	
451.07	9655.5	
451.27	9570.2	
451.47	7558.4	
451.67	8206.9	
451.87	9374.9	
452.07	10213	
452.27	7957	
452.47	7886.7	
452.67	9461.6	
452.88	10012	
453.08	7322.9	
453.28	8966	
453.48	10700	
453.68	9592.7	
453.88	7832.8	
454.08	7964.6	
454.28	9905.3	
454.48	9666.4	
454.68	8430.8	
454.88	8723	
455.08	9997.5	
455.28	9987.9	
455.48	7705.8	
455.68	8433.5	
455.89	10599	
456.09	10355	
456.29	8240.3	
456.49	8424.7	
456.69	10710	
456.89	9925.1	
457.09	8802.2	
457.29	9239.1	
457.49	10341	
457.69	10555	
457.89	8963.3	
458.09	8303.8	
458.29	10371	
458.49	10961	
458.69	9339.4	
458.89	8812.4	
459.09	11394	
459.29	11328	
459.49	9010.4	
459.69	9720.3	
459.9	10965	
460.1	10765	
460.3	8808.3	
460.5	8618.5	
460.7	10920	
460.9	10669	
461.1	8558.5	
461.3	9653.4	
461.5	11534	
461.7	11332	
461.9	9267.1	
462.1	9474.6	
462.3	11107	
462.5	11426	
462.7	9176.3	
462.9	9375.6	
463.1	12336	
463.3	12293	
463.5	9583.1	
463.7	10734	
463.9	11562	
464.1	11777	
464.3	10155	
464.5	10232	
464.7	12110	
464.9	12120	
465.1	11338	
465.3	10588	
465.5	12544	
465.7	12656	
465.9	10934	
466.1	10591	
466.3	12571	
466.5	12250	
466.7	11675	
466.9	10630	
467.1	12452	
467.3	13249	
467.5	11682	
467.7	10825	
467.9	13392	
468.1	14061	
468.3	11301	
468.5	11880	
468.7	12614	
468.9	12476	
469.1	11135	
469.3	11918	
469.5	14283	
469.7	12511	
469.9	11496	
470.1	11163	
470.3	12819	
470.5	12856	
470.7	12144	
470.9	11170	
471.1	12646	
471.3	12710	
471.5	11098	
471.69	12538	
471.89	12504	
472.09	11946	
472.29	11740	
472.49	11664	
472.69	12295	
472.89	12927	
473.09	11052	
473.29	10869	
473.49	12415	
473.69	12433	
473.89	11656	
474.09	11167	
474.29	13284	
474.49	13056	
474.69	11745	
474.89	11112	
475.09	12428	
475.29	12524	
475.49	10630	
475.69	11060	
475.88	13662	
476.08	12833	
476.28	10741	
476.48	10806	
476.68	12979	
476.88	12824	
477.08	10796	
477.28	11032	
477.48	12282	
477.68	12615	
477.88	10702	
478.08	10740	
478.28	13254	
478.48	12462	
478.67	11011	
478.87	10387	
479.07	13235	
479.27	12603	
479.47	11021	
479.67	11209	
479.87	12995	
480.07	13484	
480.27	10711	
480.47	11792	
480.67	12603	
480.87	13250	
481.06	10846	
481.26	11635	
481.46	12904	
481.66	12682	
481.86	11311	
482.06	12172	
482.26	12654	
482.46	13101	
482.66	11175	
482.86	10950	
483.05	12846	
483.25	12357	
483.45	13220	
483.65	11176	
483.85	12486	
484.05	12907	
484.25	11599	
484.45	12325	
484.65	13495	
484.84	13829	
485.04	11364	
485.24	11376	
485.44	13926	
485.64	12451	
485.84	11135	
486.04	12124	
486.24	13001	
486.44	13197	
486.63	11071	
486.83	11830	
487.03	13067	
487.23	13301	
487.43	11178	
487.63	13192	
487.83	13345	
488.02	14154	
488.22	12230	
488.42	12754	
488.62	14063	
488.82	13356	
489.02	11779	
489.22	12114	
489.41	14128	
489.61	13928	
489.81	11755	
490.01	11867	
490.21	14184	
490.41	14756	
490.61	11920	
490.8	12084	
491	14001	
491.2	13364	
491.4	12594	
491.6	11770	
491.8	13664	
491.99	13664	
492.19	11359	
492.39	11685	
492.59	13820	
492.79	13905	
492.99	12313	
493.18	11696	
493.38	14163	
493.58	15173	
493.78	12680	
493.98	12381	
494.18	14311	
494.37	14175	
494.57	13263	
494.77	13145	
494.97	14878	
495.17	15189	
495.37	12990	
495.56	13302	
495.76	15549	
495.96	15303	
496.16	14136	
496.36	13477	
496.55	15776	
496.75	15296	
496.95	14018	
497.15	13834	
497.35	15625	
497.54	15623	
497.74	13731	
497.94	14712	
498.14	16203	
498.34	16004	
498.53	13504	
498.73	14089	
498.93	15275	
499.13	15730	
499.33	14173	
499.52	14396	
499.72	16247	
499.92	16062	
500.12	13964	
500.32	14330	
500.51	16348	
500.71	16227	
500.91	14875	
501.11	14693	
501.31	16440	
501.5	16458	
501.7	15252	
501.9	14354	
502.1	15994	
502.29	16306	
502.49	14788	
502.69	15043	
502.89	16300	
503.09	16346	
503.28	13803	
503.48	13892	
503.68	15500	
503.88	15634	
504.07	14627	
504.27	14029	
504.47	15839	
504.67	15705	
504.86	14489	
505.06	14264	
505.26	15541	
505.46	16799	
505.65	14079	
505.85	14192	
506.05	15186	
506.25	15624	
506.44	13293	
506.64	13869	
506.84	14947	
507.04	15568	
507.23	13422	
507.43	13852	
507.63	16432	
507.83	15116	
508.02	13762	
508.22	13585	
508.42	16802	
508.62	15021	
508.81	13763	
509.01	14290	
509.21	14827	
509.4	15177	
509.6	13851	
509.8	13439	
510	14969	
510.19	16209	
510.39	13382	
510.59	13454	
510.79	15126	
510.98	16178	
511.18	13711	
511.38	13854	
511.57	15754	
511.77	15614	
511.97	14340	
512.17	13505	
512.36	15823	
512.56	15430	
512.76	13506	
512.95	13274	
513.15	15762	
513.35	14533	
513.55	14046	
513.74	13429	
513.94	15574	
514.14	15254	
514.33	14351	
514.53	14108	
514.73	15223	
514.92	15304	
515.12	13739	
515.32	13609	
515.51	15644	
515.71	15765	
515.91	15059	
516.11	13659	
516.3	16918	
516.5	15276	
516.7	14154	
516.89	14781	
517.09	15444	
517.29	15461	
517.48	14786	
517.68	13879	
517.88	15141	
518.07	15767	
518.27	14407	
518.47	13447	
518.66	16143	
518.86	15056	
519.06	13399	
519.25	13792	
519.45	15303	
519.65	16608	
519.84	14423	
520.04	15010	
520.24	17023	
520.43	15878	
520.63	14296	
520.83	13962	
521.02	15374	
521.22	15756	
521.42	14181	
521.61	14743	
521.81	15319	
522.01	15345	
522.2	13919	
522.4	13824	
522.6	15905	
522.79	14947	
522.99	14060	
523.18	13684	
523.38	15898	
523.58	15905	
523.77	15498	
523.97	14005	
524.17	17723	
524.36	16965	
524.56	15335	
524.76	15119	
524.95	16569	
525.15	16353	
525.34	15010	
525.54	15318	
525.74	17277	
525.93	16448	
526.13	16397	
526.33	15661	
526.52	17525	
526.72	17225	
526.91	16694	
527.11	15954	
527.31	17698	
527.5	17996	
527.7	15996	
527.89	15312	
528.09	17027	
528.29	17626	
528.48	16246	
528.68	15827	
528.87	17784	
529.07	17669	
529.27	16156	
529.46	15653	
529.66	17862	
529.85	18192	
530.05	15709	
530.25	16468	
530.44	19064	
530.64	17438	
530.83	16134	
531.03	16208	
531.23	17801	
531.42	17541	
531.62	16630	
531.81	15995	
532.01	18029	
532.21	18352	
532.4	16288	
532.6	16814	
532.79	19075	
532.99	18679	
533.18	16911	
533.38	17796	
533.58	18496	
533.77	19114	
533.97	17229	
534.16	17854	
534.36	19361	
534.55	18594	
534.75	17930	
534.95	17224	
535.14	19712	
535.34	18883	
535.53	16965	
535.73	18621	
535.92	19903	
536.12	18746	
536.31	17073	
536.51	17956	
536.71	18908	
536.9	18445	
537.1	16858	
537.29	17108	
537.49	19085	
537.68	18376	
537.88	17464	
538.07	16817	
538.27	18912	
538.46	19703	
538.66	16822	
538.86	17221	
539.05	18756	
539.25	19237	
539.44	17772	
539.64	17094	
539.83	18768	
540.03	19597	
540.22	17146	
540.42	16935	
540.61	18723	
540.81	18961	
541	17111	
541.2	17905	
541.39	18150	
541.59	18714	
541.78	17606	
541.98	16750	
542.18	18110	
542.37	18076	
542.57	16991	
542.76	17802	
542.96	17862	
543.15	18551	
543.35	16960	
543.54	16367	
543.74	18361	
543.93	18200	
544.13	16241	
544.32	17251	
544.52	18140	
544.71	17524	
544.91	15784	
545.1	16713	
545.3	17592	
545.49	18155	
545.69	15724	
545.88	16176	
546.08	18938	
546.27	18559	
546.47	16562	
546.66	15882	
546.86	18260	
547.05	18588	
547.24	16096	
547.44	16134	
547.63	17329	
547.83	18326	
548.02	16435	
548.22	16516	
548.41	17092	
548.61	18248	
548.8	15890	
549	15899	
549.19	17608	
549.39	17992	
549.58	15495	
549.78	16142	
549.97	17923	
550.17	17426	
550.36	16443	
550.55	17508	
550.75	17163	
550.94	18094	
551.14	15427	
551.33	15675	
551.53	16759	
551.72	17609	
551.92	15730	
552.11	15547	
552.31	17486	
552.5	17361	
552.69	16887	
552.89	15130	
553.08	17451	
553.28	17240	
553.47	15616	
553.67	16315	
553.86	17772	
554.06	16546	
554.25	14806	
554.44	15172	
554.64	18405	
554.83	17914	
555.03	15186	
555.22	15551	
555.42	17322	
555.61	17096	
555.8	15216	
556	15472	
556.19	16467	
556.39	17279	
556.58	15338	
556.78	15186	
556.97	17009	
557.16	16726	
557.36	16278	
557.55	14980	
557.75	16137	
557.94	17854	
558.13	15082	
558.33	14843	
558.52	17456	
558.72	16569	
558.91	14949	
559.1	15118	
559.3	16363	
559.49	15982	
559.69	14550	
559.88	15343	
560.07	16748	
560.27	17242	
560.46	15429	
560.66	15619	
560.85	16636	
561.04	15837	
561.24	14832	
561.43	14773	
561.63	16092	
561.82	16387	
562.01	15842	
562.21	15067	
562.4	16685	
562.59	17517	
562.79	15000	
562.98	14728	
563.18	16651	
563.37	17783	
563.56	15565	
563.76	14894	
563.95	16406	
564.14	16494	
564.34	15392	
564.53	14971	
564.73	16937	
564.92	17137	
565.11	15412	
565.31	15010	
565.5	17456	
565.69	16520	
565.89	15319	
566.08	15436	
566.27	17218	
566.47	17797	
566.66	15884	
566.85	14990	
567.05	17199	
567.24	16752	
567.44	15221	
567.63	16301	
567.82	17359	
568.02	17098	
568.21	15210	
568.4	15642	
568.6	17137	
568.79	17135	
568.98	14997	
569.18	15315	
569.37	17230	
569.56	18846	
569.76	15573	
569.95	16597	
570.14	17451	
570.34	17659	
570.53	15484	
570.72	15403	
570.91	18005	
571.11	17241	
571.3	15677	
571.49	16419	
571.69	17362	
571.88	16846	
572.07	16298	
572.27	16266	
572.46	16993	
572.65	17860	
572.85	15734	
573.04	16027	
573.23	18119	
573.43	17495	
573.62	15509	
573.81	16173	
574	17728	
574.2	17413	
574.39	16124	
574.58	16181	
574.78	18664	
574.97	18152	
575.16	16617	
575.36	16879	
575.55	18526	
575.74	18426	
575.93	16019	
576.13	17095	
576.32	18066	
576.51	18566	
576.71	16483	
576.9	17675	
577.09	18676	
577.28	18287	
577.48	16832	
577.67	16120	
577.86	18153	
578.05	18551	
578.25	16670	
578.44	16655	
578.63	18094	
578.83	19290	
579.02	16171	
579.21	17584	
579.4	18418	
579.6	18329	
579.79	16817	
579.98	18669	
580.17	18631	
580.37	18890	
580.56	16392	
580.75	17034	
580.94	19006	
581.14	18924	
581.33	17581	
581.52	16459	
581.71	18525	
581.91	19140	
582.1	16452	
582.29	16831	
582.48	18394	
582.68	18555	
582.87	17193	
583.06	17001	
583.25	18679	
583.45	18168	
583.64	17772	
583.83	18196	
584.02	18357	
584.21	18837	
584.41	17474	
584.6	17109	
584.79	18581	
584.98	19254	
585.18	16482	
585.37	16606	
585.56	18237	
585.75	18891	
585.94	16468	
586.14	17405	
586.33	19097	
586.52	18335	
586.71	17034	
586.91	16929	
587.1	17703	
587.29	18622	
587.48	16352	
587.67	16524	
587.87	18319	
588.06	18220	
588.25	17357	
588.44	16701	
588.63	17804	
588.83	18242	
589.02	16202	
589.21	16036	
589.4	17493	
589.59	17598	
589.78	15088	
589.98	15176	
590.17	16621	
590.36	16898	
590.55	14198	
590.74	14497	
590.94	17384	
591.13	16128	
591.32	14361	
591.51	13794	
591.7	16548	
591.89	16173	
592.09	14159	
592.28	14552	
592.47	15616	
592.66	17542	
592.85	14355	
593.05	14727	
593.24	16398	
593.43	17010	
593.62	14768	
593.81	15041	
594	16401	
594.19	16446	
594.39	14511	
594.58	14481	
594.77	16624	
594.96	17109	
595.15	14341	
595.34	15044	
595.54	16494	
595.73	15728	
595.92	13805	
596.11	14586	
596.3	16787	
596.49	15686	
596.68	14412	
596.88	14798	
597.07	16394	
597.26	15541	
597.45	13907	
597.64	15011	
597.83	15885	
598.02	16292	
598.22	14158	
598.41	14594	
598.6	16113	
598.79	15617	
598.98	14089	
599.17	14797	
599.36	16107	
599.55	16925	
599.74	15689	
599.94	15468	
600.13	16492	
600.32	15519	
600.51	13725	
600.7	14123	
600.89	16849	
601.08	16993	
601.27	13730	
601.47	14504	
601.66	16261	
601.85	16701	
602.04	14174	
602.23	14357	
602.42	15418	
602.61	16143	
602.8	14106	
602.99	13831	
603.18	15617	
603.37	15879	
603.57	14298	
603.76	14747	
603.95	16392	
604.14	16029	
604.33	13945	
604.52	14239	
604.71	16013	
604.9	15588	
605.09	14726	
605.28	14616	
605.47	16380	
605.66	16068	
605.86	14425	
606.05	13970	
606.24	16359	
606.43	15117	
606.62	14354	
606.81	14717	
607	16099	
607.19	15512	
607.38	13596	
607.57	13822	
607.76	15348	
607.95	14943	
608.14	14048	
608.33	14584	
608.52	15424	
608.72	16069	
608.91	13494	
609.1	13365	
609.29	15278	
609.48	14958	
609.67	14184	
609.86	13222	
610.05	14889	
610.24	15227	
610.43	13278	
610.62	12996	
610.81	16123	
611	15864	
611.19	13329	
611.38	13904	
611.57	15478	
611.76	16423	
611.95	13271	
612.14	13013	
612.33	15155	
612.52	14820	
612.71	13559	
612.9	12985	
613.09	14503	
613.28	16521	
613.47	13421	
613.66	14151	
613.85	15313	
614.04	14937	
614.24	13374	
614.43	12788	
614.62	15497	
614.81	15336	
615	13807	
615.19	13860	
615.38	14764	
615.57	15254	
615.76	13695	
615.95	14632	
616.14	15569	
616.33	15292	
616.52	14038	
616.71	14146	
616.9	15474	
617.09	15459	
617.28	13535	
617.47	14549	
617.66	14776	
617.85	14757	
618.04	14435	
618.22	13848	
618.41	15291	
618.6	16097	
618.79	14011	
618.98	13949	
619.17	16450	
619.36	14940	
619.55	14100	
619.74	14052	
619.93	16034	
620.12	15571	
620.31	14805	
620.5	14827	
620.69	16813	
620.88	16881	
621.07	15482	
621.26	14834	
621.45	16391	
621.64	16448	
621.83	14969	
622.02	14240	
622.21	16470	
622.4	16334	
622.59	15426	
622.78	15256	
622.97	16083	
623.16	16759	
623.35	15052	
623.54	14333	
623.72	16233	
623.91	16279	
624.1	15085	
624.29	14137	
624.48	17190	
624.67	16492	
624.86	15184	
625.05	14497	
625.24	17314	
625.43	16043	
625.62	16298	
625.81	14507	
626	16692	
626.19	16313	
626.38	15296	
626.56	14815	
626.75	16272	
626.94	16784	
627.13	15274	
627.32	14298	
627.51	16703	
627.7	17569	
627.89	14198	
628.08	15270	
628.27	15953	
628.46	15935	
628.65	14392	
628.83	14041	
629.02	16513	
629.21	15823	
629.4	14710	
629.59	14946	
629.78	15928	
629.97	16496	
630.16	14959	
630.35	14529	
630.54	17048	
630.72	16777	
630.91	14508	
631.1	14841	
631.29	16352	
631.48	16383	
631.67	15029	
631.86	14581	
632.05	16017	
632.24	16050	
632.42	14114	
632.61	14638	
632.8	16011	
632.99	15755	
633.18	14702	
633.37	15003	
633.56	16172	
633.75	16195	
633.93	14556	
634.12	14449	
634.31	16744	
634.5	16527	
634.69	14420	
634.88	14813	
635.07	16034	
635.25	16477	
635.44	15122	
635.63	15364	
635.82	15725	
636.01	15354	
636.2	14945	
636.39	14628	
636.57	16677	
636.76	16016	
636.95	14097	
637.14	15107	
637.33	16049	
637.52	16687	
637.7	13891	
637.89	14738	
638.08	15801	
638.27	16791	
638.46	14582	
638.65	14960	
638.83	16679	
639.02	15389	
639.21	14412	
639.4	14820	
639.59	15801	
639.78	15372	
639.96	13689	
640.15	13650	
640.34	15466	
640.53	15606	
640.72	13479	
640.91	13646	
641.09	14803	
641.28	16011	
641.47	13662	
641.66	14332	
641.85	15369	
642.03	15515	
642.22	13996	
642.41	13736	
642.6	14904	
642.79	14362	
642.97	13235	
643.16	13885	
643.35	14842	
643.54	14545	
643.73	13230	
643.91	13733	
644.1	14290	
644.29	14963	
644.48	13042	
644.67	13052	
644.85	14358	
645.04	14647	
645.23	12615	
645.42	12841	
645.6	14091	
645.79	15068	
645.98	12615	
646.17	11731	
646.36	13553	
646.54	13894	
646.73	12913	
646.92	12055	
647.11	13517	
647.29	14331	
647.48	12083	
647.67	11778	
647.86	14418	
648.05	14994	
648.23	12318	
648.42	13240	
648.61	13992	
648.8	13825	
648.98	11787	
649.17	11978	
649.36	13235	
649.55	13001	
649.73	11830	
649.92	12463	
650.11	13485	
650.3	13643	
650.48	12003	
650.67	11757	
650.86	13890	
651.05	12871	
651.23	11794	
651.42	11752	
651.61	13198	
651.79	13061	
651.98	11921	
652.17	11525	
652.36	13437	
652.54	12781	
652.73	11669	
652.92	11355	
653.11	13445	
653.29	13530	
653.48	11047	
653.67	11809	
653.85	13256	
654.04	14035	
654.23	11753	
654.42	11397	
654.6	12501	
654.79	13017	
654.98	10636	
655.16	11041	
655.35	11894	
655.54	11700	
655.73	10387	
655.91	10189	
656.1	12426	
656.29	11607	
656.47	10035	
656.66	11336	
656.85	11960	
657.03	12090	
657.22	10527	
657.41	10881	
657.59	12378	
657.78	12314	
657.97	10679	
658.16	11170	
658.34	12923	
658.53	13257	
658.72	11817	
658.9	12366	
659.09	12567	
659.28	12594	
659.46	10996	
659.65	10829	
659.84	12319	
660.02	12766	
660.21	10956	
660.4	10875	
660.58	13166	
660.77	12562	
660.96	11503	
661.14	10694	
661.33	13545	
661.52	13328	
661.7	10578	
661.89	13448	
662.08	12245	
662.26	11873	
662.45	10742	
662.64	10891	
662.82	12781	
663.01	12086	
663.2	10727	
663.38	11279	
663.57	12494	
663.75	12491	
663.94	11017	
664.13	12030	
664.31	12099	
664.5	12649	
664.69	11318	
664.87	11648	
665.06	11813	
665.25	12555	
665.43	11837	
665.62	11792	
665.8	12697	
665.99	12192	
666.18	11028	
666.36	11044	
666.55	12497	
666.74	12517	
666.92	10587	
667.11	11746	
667.29	12183	
667.48	12557	
667.67	11572	
667.85	10785	
668.04	12030	
668.22	12128	
668.41	11002	
668.6	11013	
668.78	11932	
668.97	12026	
669.15	11060	
669.34	10353	
669.53	11953	
669.71	12180	
669.9	10361	
670.08	10953	
670.27	11841	
670.46	12332	
670.64	11131	
670.83	11247	
671.01	11647	
671.2	12131	
671.38	10505	
671.57	10305	
671.76	12811	
671.94	13117	
672.13	10268	
672.31	11251	
672.5	12519	
672.69	11808	
672.87	10501	
673.06	10772	
673.24	12363	
673.43	11910	
673.61	10918	
673.8	10528	
673.98	12354	
674.17	12470	
674.36	11181	
674.54	10975	
674.73	12099	
674.91	12375	
675.1	10778	
675.28	10326	
675.47	11972	
675.65	12468	
675.84	10660	
676.03	10884	
676.21	11885	
676.4	11335	
676.58	11247	
676.77	11032	
676.95	12852	
677.14	11637	
677.32	10238	
677.51	10144	
677.69	12397	
677.88	11486	
678.06	10295	
678.25	10238	
678.44	11923	
678.62	11663	
678.81	10099	
678.99	10858	
679.18	12660	
679.36	12259	
679.55	10555	
679.73	10942	
679.92	12192	
680.1	11630	
680.29	11537	
680.47	10438	
680.66	11652	
680.84	12275	
681.03	9974.3	
681.21	10656	
681.4	11746	
681.58	11576	
681.77	10263	
681.95	10226	
682.14	12261	
682.32	12478	
682.51	10977	
682.69	10064	
682.88	11523	
683.06	11879	
683.25	10655	
683.43	10932	
683.62	11850	
683.8	12013	
683.99	10970	
684.17	10495	
684.36	12737	
684.54	11635	
684.73	9643.2	
684.91	9734	
685.1	11456	
685.28	10905	
685.46	9802.9	
685.65	9752.4	
685.83	11131	
686.02	10617	
686.2	9204.3	
686.39	9300.5	
686.57	10669	
686.76	11905	
686.94	9409.7	
687.13	9548.3	
687.31	11268	
687.5	10916	
687.68	9123	
687.86	10204	
688.05	12350	
688.23	10611	
688.42	10205	
688.6	9581.8	
688.79	10984	
688.97	10927	
689.16	9917.6	
689.34	9148.3	
689.52	11731	
689.71	11785	
689.89	10359	
690.08	9607.7	
690.26	11424	
690.45	11211	
690.63	10441	
690.81	9884.2	
691	11101	
691.18	10955	
691.37	9915.6	
691.55	11507	
691.74	10840	
691.92	12437	
692.1	9726.5	
692.29	9279.3	
692.47	11055	
692.66	10482	
692.84	9463	
693.02	9863.7	
693.21	10649	
693.39	11036	
693.58	10114	
693.76	9524.4	
693.94	11933	
694.13	11914	
694.31	9713.5	
694.5	10583	
694.68	10933	
694.86	11395	
695.05	10170	
695.23	10502	
695.42	11795	
695.6	13469	
695.78	10624	
695.97	9882.8	
696.15	11813	
696.34	11347	
696.52	9713.5	
696.7	10240	
696.89	11464	
697.07	10955	
697.25	10142	
697.44	11310	
697.62	11320	
697.81	11434	
697.99	9785.9	
698.17	10224	
698.36	10690	
698.54	11279	
698.72	10062	
698.91	9174.2	
699.09	10956	
699.28	10720	
699.46	9691	
699.64	9614.5	
699.83	10684	
700.01	11493	
700.19	10198	
700.38	9016.5	
700.56	11649	
700.74	10780	
700.93	9269.8	
701.11	10022	
701.29	11261	
701.48	12178	
701.66	9594.7	
701.84	9565.4	
702.03	11038	
702.21	11656	
702.39	9263	
702.58	9877.4	
702.76	11372	
702.94	11400	
703.13	9207	
703.31	11237	
703.49	10767	
703.68	11604	
703.86	9353.1	
704.04	10183	
704.23	11158	
704.41	11400	
704.59	9515.5	
704.78	10421	
704.96	12066	
705.14	11348	
705.33	9313.5	
705.51	9855.5	
705.69	11004	
705.87	11607	
706.06	10242	
706.24	9236.3	
706.42	11161	
706.61	11355	
706.79	10108	
706.97	9129.2	
707.16	10735	
707.34	11071	
707.52	9982.5	
707.7	9344.9	
707.89	10854	
708.07	10499	
708.25	10066	
708.44	10114	
708.62	10620	
708.8	11483	
708.98	10187	
709.17	9365.4	
709.35	10880	
709.53	10967	
709.72	9033.6	
709.9	9392.7	
710.08	11189	
710.26	11175	
710.45	10295	
710.63	9407.7	
710.81	10700	
710.99	10760	
711.18	9742.9	
711.36	9224.7	
711.54	10585	
711.72	11045	
711.91	9258.2	
712.09	8680	
712.27	10518	
712.45	11008	
712.64	9237.7	
712.82	8401.5	
713	9978.4	
713.18	9990	
713.37	8408.3	
713.55	9325.1	
713.73	10534	
713.91	9299.1	
714.1	8444.5	
714.28	7879.9	
714.46	9871.9	
714.64	8958.5	
714.83	7055.9	
715.01	7587	
715.19	8721.6	
715.37	8098.4	
715.55	6991.1	
715.74	7206.8	
715.92	9221.3	
716.1	7605.5	
716.28	8025.3	
716.47	7156.3	
716.65	8095.6	
716.83	8137.9	
717.01	6988.4	
717.19	6950.1	
717.38	9784.5	
717.56	7880.6	
717.74	7187.7	
717.92	6576	
718.1	8774.2	
718.29	8190.5	
718.47	6367.1	
718.65	7000.6	
718.83	9099.8	
719.01	8991.9	
719.2	6604.7	
719.38	7529	
719.56	8972.8	
719.74	10233	
719.92	7160.4	
720.11	8109.3	
720.29	8968.7	
720.47	8206.9	
720.65	6705	
720.83	7284.6	
721.02	8218.5	
721.2	7939.3	
721.38	7075	
721.56	6478.4	
721.74	7449.1	
721.92	7606.2	
722.11	7454.6	
722.29	7242.3	
722.47	8561.9	
722.65	7920.9	
722.83	6468.2	
723.01	7018.4	
723.2	7894.9	
723.38	8201.4	
723.56	5944.6	
723.74	6872.3	
723.92	7450.5	
724.1	8400.1	
724.29	6260.6	
724.47	7216.4	
724.65	7595.9	
724.83	7471.7	
725.01	6187.6	
725.19	6798.6	
725.37	7371.3	
725.56	7417.7	
725.74	6016.9	
725.92	6227.9	
726.1	7490.8	
726.28	7608.9	
726.46	6495.5	
726.64	6244.9	
726.83	7547.4	
727.01	7728.4	
727.19	5963.7	
727.37	6639.5	
727.55	7730.4	
727.73	8180.3	
727.91	5797.1	
728.09	5773.2	
728.28	8071	
728.46	8369.4	
728.64	6685.3	
728.82	6625.2	
729	8948.3	
729.18	8403.5	
729.36	6023.1	
729.54	7821.9	
729.72	9351	
729.91	7896.3	
730.09	7691.5	
730.27	6752.8	
730.45	7872.4	
730.63	8417.2	
730.81	7211.6	
730.99	6458.6	
731.17	8789.2	
731.35	7625.3	
731.53	6918.7	
731.71	6601.3	
731.9	8649.9	
732.08	8688.8	
732.26	6735.1	
732.44	6388.3	
732.62	8695	
732.8	8275.2	
732.98	7021.1	
733.16	6199.2	
733.34	8211	
733.52	7172.7	
733.7	6497.5	
733.88	6694.8	
734.07	7970.7	
734.25	7808.9	
734.43	6182.1	
734.61	7322.9	
734.79	9045.9	
734.97	7721.5	
735.15	6225.8	
735.33	6516.6	
735.51	7992.5	
735.69	7664.2	
735.87	7321.5	
736.05	6670.9	
736.23	7701	
736.41	7542.7	
736.59	6406.7	
736.77	6599.9	
736.95	8101.1	
737.13	7692.2	
737.32	6032.6	
737.5	6300.2	
737.68	8609	
737.86	7555	
738.04	5892	
738.22	7445.7	
738.4	7352.9	
738.58	7551.5	
738.76	6325.5	
738.94	5528.2	
739.12	7448.5	
739.3	7370	
739.48	6815	
739.66	6643.6	
739.84	7583.6	
740.02	7630	
740.2	5539.8	
740.38	5905.7	
740.56	7765.9	
740.74	6921.5	
740.92	6298.9	
741.1	6241.5	
741.28	7320.8	
741.46	7210.2	
741.64	5874.3	
741.82	6346	
742	7324.9	
742.18	7265.5	
742.36	6022.4	
742.54	5687.2	
742.72	7755.7	
742.9	6664.1	
743.08	6285.9	
743.26	5304.2	
743.44	7823.2	
743.62	7671	
743.8	6419.7	
743.98	5720.7	
744.16	7393.2	
744.34	7125.6	
744.52	6240.2	
744.7	6150.1	
744.88	7492.8	
745.06	7066.9	
745.24	6161.7	
745.42	6297.5	
745.6	7494.2	
745.78	7318.1	
745.96	5248.3	
746.14	5404.6	
746.32	8053.3	
746.5	7350.2	
746.68	5823.7	
746.86	5424.4	
747.03	7767.3	
747.21	6268.8	
747.39	5816.9	
747.57	5386.8	
747.75	7004.7	
747.93	7294.9	
748.11	5272.8	
748.29	5241.4	
748.47	8325	
748.65	6643.6	
748.83	5917.9	
749.01	5668.1	
749.19	7158.3	
749.37	6348	
749.55	5482.4	
749.73	5622.4	
749.91	6823.8	
750.09	6614.3	
750.26	5619.6	
750.44	5107.6	
750.62	6876.4	
750.8	6805.4	
750.98	5060.5	
751.16	5293.3	
751.34	6935.8	
751.52	6320.7	
751.7	5889.3	
751.88	4930.8	
752.06	7284.6	
752.24	7006.8	
752.42	4900.8	
752.59	5222.3	
752.77	6692.1	
752.95	7702.4	
753.13	5865.4	
753.31	5271.5	
753.49	6365.1	
753.67	6662	
753.85	5511.8	
754.03	5100.1	
754.21	6951.5	
754.38	7245	
754.56	5200.5	
754.74	4393.6	
754.92	6255.9	
755.1	6785.6	
755.28	4302.8	
755.46	4219.5	
755.64	7236.2	
755.82	7224.6	
755.99	4263.9	
756.17	4330.8	
756.35	4971.8	
756.53	6182.8	
756.71	3172.3	
756.89	3984	
757.07	5771.9	
757.25	5012.1	
757.42	4534.2	
757.6	5167	
757.78	5962.3	
757.96	5123.3	
758.14	4268.6	
758.32	3891.8	
758.5	4790.2	
758.67	5510.4	
758.85	4177.2	
759.03	4243.4	
759.21	5634	
759.39	5089.9	
759.57	3726.6	
759.75	4746.5	
759.92	6204.7	
760.1	5650.3	
760.28	5022.3	
760.46	5282.4	
760.64	5403.2	
760.82	5225.1	
760.99	4793.6	
761.17	4300.1	
761.35	6176	
761.53	5264.6	
761.71	4388.1	
761.89	5018.2	
762.06	6077.7	
762.24	5627.8	
762.42	4541	
762.6	4362.9	
762.78	5692.7	
762.96	6172.6	
763.13	4866.7	
763.31	4588.1	
763.49	6326.2	
763.67	5627.1	
763.85	5246.9	
764.02	5771.2	
764.2	6653.9	
764.38	5877	
764.56	4497.3	
764.74	5208	
764.91	6688	
765.09	5679	
765.27	4254.3	
765.45	3979.9	
765.63	6752.8	
765.8	6528.2	
765.98	3813.3	
766.16	4058.4	
766.34	5343.2	
766.52	5160.9	
766.69	4800.4	
766.87	3940.3	
767.05	5694	
767.23	6277.7	
767.41	4095.3	
767.58	4373.1	
767.76	6111.1	
767.94	6139.8	
768.12	4226.3	
768.29	4788.2	
768.47	5662.6	
768.65	6251.8	
768.83	3783.3	
769	4777.2	
769.18	5255.1	
769.36	5867.4	
769.54	4775.9	
769.72	3777.8	
769.89	6126.2	
770.07	6178.7	
770.25	4139.6	
770.43	5205.9	
770.6	6666.1	
770.78	6949.4	
770.96	4285	
771.14	4787.5	
771.31	5995.8	
771.49	5388.2	
771.67	3601	
771.85	3737.5	
772.02	4775.9	
772.2	5348.6	
772.38	4326	
772.55	3870	
772.73	5603.9	
772.91	5478.3	
773.09	4191.5	
773.26	4271.4	
773.44	5507.7	
773.62	5259.2	
773.8	3815.4	
773.97	3584.6	
774.15	5616.9	
774.33	5281.7	
774.5	3673.4	
774.68	4051.6	
774.86	5735	
775.04	5254.4	
775.21	3734.8	
775.39	3704.8	
775.57	5539.8	
775.74	5787.6	
775.92	3553.9	
776.1	3528	
776.27	5414.1	
776.45	6457.2	
776.63	3749.1	
776.81	3306.1	
776.98	5152	
777.16	6038.8	
777.34	3823.6	
777.51	4081.6	
777.69	5151.3	
777.87	4945.8	
778.04	3872	
778.22	4354.7	
778.4	5001.8	
778.57	5567.7	
778.75	3196.2	
778.93	3457	
779.1	4767	
779.28	4661.9	
779.46	3241.9	
779.64	3573.7	
779.81	5593.7	
779.99	6294.8	
780.17	4234.5	
780.34	4361.5	
780.52	5173.9	
780.69	5320.6	
780.87	3921.9	
781.05	3523.2	
781.22	5233.9	
781.4	5296	
781.58	3616.7	
781.75	2908.1	
781.93	5257.8	
782.11	4683	
782.28	4338.3	
782.46	3635.1	
782.64	4594.3	
782.81	5345.2	
782.99	3743.7	
783.17	3609.9	
783.34	5302.2	
783.52	4647.5	
783.69	3822.2	
783.87	4440.7	
784.05	4685.1	
784.22	4757.4	
784.4	4399	
784.58	3889.8	
784.75	5543.2	
784.93	4762.9	
785.1	3599.6	
785.28	4134.8	
785.46	5277.6	
785.63	4678.2	
785.81	3643.3	
785.99	3443.3	
786.16	4838.7	
786.34	5079.6	
786.51	3472.7	
786.69	3829	
786.87	4463.2	
787.04	4947.9	
787.22	3352.5	
787.39	4157.4	
787.57	4721.9	
787.75	5573.9	
787.92	4290.5	
788.1	4223.6	
788.27	4637.3	
788.45	4500.1	
788.63	4025.6	
788.8	2949.8	
788.98	5031.9	
789.15	4359.4	
789.33	3140.2	
789.5	3551.2	
789.68	5391.6	
789.86	5504.9	
790.03	3941	
790.21	3504.1	
790.38	5445.5	
790.56	4756.7	
790.73	3354.6	
790.91	3279.5	
791.09	4674.1	
791.26	5335.6	
791.44	3603.1	
791.61	3103.4	
791.79	4670.1	
791.96	4676.9	
792.14	3233.1	
792.32	2859.6	
792.49	4661.2	
792.67	4789.5	
792.84	3256.3	
793.02	3079.5	
793.19	5059.2	
793.37	5591.6	
793.54	2858.3	
793.72	3122.5	
793.89	5665.4	
794.07	4625.7	
794.25	3558.7	
794.42	2931.3	
794.6	5510.4	
794.77	5147.9	
794.95	3858.4	
795.12	3394.8	
795.3	4651.6	
795.47	5161.6	
795.65	3744.4	
795.82	3545	
796	4487.8	
796.17	6004.6	
796.35	3437.9	
796.52	4069.3	
796.7	5090.6	
796.87	5190.2	
797.05	3454.2	
797.22	4164.2	
797.4	5141.8	
797.57	6010.1	
797.75	3537.5	
797.92	3412.6	
798.1	5446.9	
798.27	4521.2	
798.45	2940.9	
798.62	3167.5	
798.8	4921.3	
798.97	5227.8	
799.15	3778.5	
799.32	3611.3	
799.5	4322.6	
799.67	4928.8	
799.85	3932.8	
800.02	2864.4	
800.2	4623.6	
800.37	4840	
800.55	3977.2	
800.72	3418.7	
800.9	5207.3	
801.07	5629.2	
801.25	4510.3	
801.42	3651.5	
801.6	5340.4	
801.77	5022.3	
801.95	3431.7	
802.12	3269.2	
802.29	5119.9	
802.47	4993.6	
802.64	3700	
802.82	2871.9	
802.99	4606.6	
803.17	5409.4	
803.34	3612.6	
803.52	3262.4	
803.69	5913.2	
803.87	4360.8	
804.04	3504.8	
804.21	3610.6	
804.39	5536.3	
804.56	4758.1	
804.74	3094.5	
804.91	3660.4	
805.09	4644.1	
805.26	4679.6	
805.44	3143.6	
805.61	3401.7	
805.78	5225.1	
805.96	5143.8	
806.13	3658.4	
806.31	3897.3	
806.48	4238.6	
806.66	4590.2	
806.83	3710.2	
807	3637.9	
807.18	4627	
807.35	4927.4	
807.53	3534.8	
807.7	2936.1	
807.87	5537.7	
808.05	4636.6	
808.22	3877.5	
808.4	2889.7	
808.57	4586.8	
808.74	4306.9	
808.92	3250.8	
809.09	4117.8	
809.27	4552	
809.44	5010.7	
809.61	2901.3	
809.79	3233.1	
809.96	5644.2	
810.14	5137	
810.31	2827.6	
810.48	3433.8	
810.66	4677.6	
810.83	5293.3	
811.01	3310.2	
811.18	3612.6	
811.35	5243.5	
811.53	4151.9	
811.7	3917.1	
811.87	3663.8	
812.05	4693.3	
812.22	4570.4	
812.39	3207.8	
812.57	3117.7	
812.74	4663.2	
812.92	5992.4	
813.09	3480.2	
813.26	3638.6	
813.44	5760.9	
813.61	4539.7	
813.78	2894.5	
813.96	3730	
814.13	4625.7	
814.3	4347.2	
814.48	4128.7	
814.65	3410.6	
814.82	5540.4	
815	4374.5	
815.17	3488.4	
815.34	4254.3	
815.52	4588.8	
815.69	4485.1	
815.87	3444.7	
816.04	3421.5	
816.21	4623.6	
816.38	4190.8	
816.56	3431.7	
816.73	3186	
816.9	5780.1	
817.08	5270.1	
817.25	3253.5	
817.42	3953.9	
817.6	4273.4	
817.77	4601.8	
817.94	3631.7	
818.12	3151.1	
818.29	4418.8	
818.46	6546.7	
818.64	3345.7	
818.81	3099.9	
818.98	4355.3	
819.16	6068.8	
819.33	3788.7	
819.5	3488.4	
819.67	4891.9	
819.85	5445.5	
820.02	3479.5	
820.19	3624.9	
820.37	4803.2	
820.54	4547.2	
820.71	3552.5	
820.88	4335.5	
821.06	4823	
821.23	4417.5	
821.4	3568.9	
821.58	3595.6	
821.75	5186.1	
821.92	4775.2	
822.09	2920.4	
822.27	3140.2	
822.44	4664.6	
822.61	4503.5	
822.79	2954.5	
822.96	5414.8	
823.13	4984.8	
823.3	4306.9	
823.48	3362.1	
823.65	3017.3	
823.82	5223.7	
823.99	4286.4	
824.17	4179.2	
824.34	3065.8	
824.51	5911.1	
824.68	4678.2	
824.86	3250.8	
825.03	3576.4	
825.2	4680.3	
825.37	5452.4	
825.55	3261.7	
825.72	3566.9	
825.89	5956.9	
826.06	5579.3	
826.24	3405.8	
826.41	3476.8	
826.58	5537.7	
826.75	4829.8	
826.92	2811.2	
827.1	3068.5	
827.27	7293.5	
827.44	5850.4	
827.61	3295.2	
827.79	3882.3	
827.96	4395.6	
828.13	4645.5	
828.3	3487.7	
828.47	2846.7	
828.65	4881.7	
828.82	4783.4	
828.99	4268	
829.16	3791.5	
829.34	5208	
829.51	4966.3	
829.68	3491.1	
829.85	3585.3	
830.02	5436	
830.2	5156.1	
830.37	2751.8	
830.54	4231.1	
830.71	5797.1	
830.88	4645.5	
831.05	2781.8	
831.23	3211.9	
831.4	5634	
831.57	6124.1	
831.74	3297.2	
831.91	2931.3	
832.09	4905.6	
832.26	5154.1	
832.43	3334.8	
832.6	3764.8	
832.77	4887.1	
832.94	5441.5	
833.12	2711.5	
833.29	3312.2	
833.46	4971.1	
833.63	6308.4	
833.8	3633.8	
833.97	3392.1	
834.15	5195	
834.32	5023.7	
834.49	3529.3	
834.66	3566.9	
834.83	5278.3	
835	4465.9	
835.17	3257.6	
835.35	3286.3	
835.52	5088.5	
835.69	4988.9	
835.86	3395.5	
836.03	2843.3	
836.2	5107.6	
836.37	4810.7	
836.55	3355.3	
836.72	3155.9	
836.89	4788.2	
837.06	5210.7	
837.23	3398.3	
837.4	3667.9	
837.57	5832.6	
837.75	6289.3	
837.92	3152.5	
838.09	3289	
838.26	4828.4	
838.43	5354.1	
838.6	3523.9	
838.77	3164.8	
838.94	6010.1	
839.11	5806	
839.29	3359.4	
839.46	2690.3	
839.63	5150	
839.8	4920.6	
839.97	3256.3	
840.14	3244.7	
840.31	4953.4	
840.48	5160.2	
840.65	2735.4	
840.82	3164.8	
841	5097.4	
841.17	5096	
841.34	3009.8	
841.51	3089.7	
841.68	5089.9	
841.85	4885.1	
842.02	3126.6	
842.19	2663	
842.36	4947.9	
842.53	4902.8	
842.7	3033.7	
842.87	3657	
843.05	6210.8	
843.22	4879.6	
843.39	2832.3	
843.56	3148.4	
843.73	4791.6	
843.9	5224.4	
844.07	4758.1	
844.24	4019.5	
844.41	7153.6	
844.58	4516.5	
844.75	2881.5	
844.92	3155.9	
845.09	5116.5	
845.26	5137.7	
845.43	3033	
845.6	3200.3	
845.77	5165	
845.94	4909	
846.12	3247.4	
846.29	3465.8	
846.46	5287.2	
846.63	5079	
846.8	3026.2	
846.97	3508.2	
847.14	5472.2	
847.31	5078.3	
847.48	3361.4	
847.65	3702.7	
847.82	5354.8	
847.99	5358.2	
848.16	3943	
848.33	3633.1	
848.5	4713.7	
848.67	5482.4	
848.84	2952.5	
849.01	3149.1	
849.18	4683.7	
849.35	4416.1	
849.52	3659	
849.69	3003.7	
849.86	5328.8	
850.03	5392.3	
850.2	3024.2	
850.37	3573	
850.54	5390.3	
850.71	4842.8	
850.88	3556.6	
851.05	2957.3	
851.22	5029.8	
851.39	5530.9	
851.56	2825.5	
851.73	3392.8	
851.9	4513.7	
852.07	5317.2	
852.24	3276.1	
852.41	2990	
852.58	5018.2	
852.75	4615.4	
852.92	3389.4	
853.09	2919	
853.26	4773.8	
853.43	5452.4	
853.6	2995.5	
853.77	2607.1	
853.94	5567.1	
854.11	4531.5	
854.28	4315.8	
854.44	3213.3	
854.61	5896.8	
854.78	5421.7	
854.95	2978.4	
855.12	3654.3	
855.29	4198.3	
855.46	5713.8	
855.63	3003	
855.8	4017.4	
855.97	4717.8	
856.14	5432.6	
856.31	4143	
856.48	3284.9	
856.65	4798.4	
856.82	4508.9	
856.99	2903.3	
857.16	3218.7	
857.33	6107	
857.49	4823	
857.66	3199.6	
857.83	3389.4	
858	4856.4	
858.17	5012.7	
858.34	2903.3	
858.51	2983.2	
858.68	5549.3	
858.85	5682.4	
859.02	3412.6	
859.19	3635.8	
859.36	4513.7	
859.52	4496	
859.69	3007.1	
859.86	3474.7	
860.03	4619.5	
860.2	5555.5	
860.37	2723.8	
860.54	3075.4	
860.71	5303.6	
860.88	5624.4	
861.05	3319.1	
861.21	3744.4	
861.38	5600.5	
861.55	4429.8	
861.72	2758.6	
861.89	3330	
862.06	5330.9	
862.23	5736.4	
862.4	2938.2	
862.56	3130.7	
862.73	5208.7	
862.9	4906.3	
863.07	3462.4	
863.24	2719.7	
863.41	4416.1	
863.58	4476.2	
863.75	3012.6	
863.91	3472	
864.08	5477	
864.25	5223	
864.42	3727.3	
864.59	4139.6	
864.76	5812.1	
864.93	4582.7	
865.09	2910.2	
865.26	3132	
865.43	5478.3	
865.6	5780.1	
865.77	2656.2	
865.94	2923.8	
866.1	5515.9	
866.27	5230.5	
866.44	4384.7	
866.61	2811.9	
866.78	4868.7	
866.95	5169.1	
867.11	2872.6	
867.28	2693.1	
867.45	5408.7	
867.62	4567	
867.79	3400.3	
867.96	3001.6	
868.12	4500.1	
868.29	5353.4	
868.46	3003.7	
868.63	3949.2	
868.8	5389.6	
868.97	5221	
869.13	3129.3	
869.3	3189.4	
869.47	5141.8	
869.64	5282.4	
869.81	3008.5	
869.97	2983.2	
870.14	5063.9	
870.31	5627.1	
870.48	2904	
870.65	3713.6	
870.81	4795	
870.98	4818.9	
871.15	3341.6	
871.32	3105.4	
871.48	5161.6	
871.65	5668.1	
871.82	2979.8	
871.99	3297.9	
872.16	6001.9	
872.32	5458.5	
872.49	3009.1	
872.66	2988.7	
872.83	5300.1	
872.99	4635.2	
873.16	3345	
873.33	2979.8	
873.5	4976.6	
873.67	4985.4	
873.83	3173	
874	3908.9	
874.17	5059.8	
874.34	5916.6	
874.5	3779.2	
874.67	3663.1	
874.84	5608	
875.01	4482.3	
875.17	4115.7	
875.34	2989.4	
875.51	5066.7	
875.68	5941.8	
875.84	3573.7	
876.01	4280.9	
876.18	5227.1	
876.34	5204.6	
876.51	3024.8	
876.68	2927.2	
876.85	4840	
877.01	5479.7	
877.18	4197	
877.35	2997.5	
877.52	5030.5	
877.68	4508.3	
877.85	2942.2	
878.02	2911.5	
878.18	4889.9	
878.35	4722.6	
878.52	2410.5	
878.69	3355.9	
878.85	5384.8	
879.02	5184.1	
879.19	4194.2	
879.35	3233.1	
879.52	5248.3	
879.69	5385.5	
879.86	2585.9	
880.02	3345	
880.19	4893.3	
880.36	5874.3	
880.52	3426.9	
880.69	3448.1	
880.86	5326.8	
881.02	5354.1	
881.19	3250.8	
881.36	3215.3	
881.52	5233.2	
881.69	4648.2	
881.86	3205.8	
882.02	3196.2	
882.19	5439.4	
882.36	6219	
882.52	3043.3	
882.69	4109.6	
882.86	5048.9	
883.02	5019.6	
883.19	3557.3	
883.36	3425.6	
883.52	5336.3	
883.69	5982.1	
883.86	2983.2	
884.02	2756.6	
884.19	5276.3	
884.36	4928.8	
884.52	3365.5	
884.69	3152.5	
884.86	4755.4	
885.02	5728.9	
885.19	3303.4	
885.36	3414	
885.52	4881	
885.69	5075.5	
885.86	4226.3	
886.02	3758	
886.19	5276.9	
886.35	4766.3	
886.52	3256.3	
886.69	4117.8	
886.85	4582	
887.02	5552.7	
887.19	5552.7	
887.35	5552.7	
887.52	5552.7	
887.68	5552.7	
887.85	5552.7	
888.02	5552.7	
888.18	5552.7	
888.35	5552.7	
888.51	5552.7	
888.68	5552.7	
888.85	5552.7	
889.01	5552.7	
889.18	5552.7	
889.35	5552.7	
889.51	5552.7	
889.68	5552.7	
889.84	5552.7	
890.01	5552.7	
890.17	5552.7	
890.34	5552.7	
890.51	5552.7	
890.67	5552.7	
890.84	5552.7	
891	5552.7	
891.17	5552.7	
891.34	5552.7	
891.5	5552.7	
891.67	5552.7	
891.83	5552.7	
892	5552.7	
892.16	5552.7	
892.33	5552.7	
892.5	5552.7	
892.66	5552.7	
892.83	5552.7	
892.99	5552.7	
893.16	5552.7	
893.32	5552.7	
893.49	5552.7	
893.65	5552.7	
893.82	5552.7	
893.99	5552.7	
894.15	5552.7	
894.32	5552.7	
894.48	5552.7	
894.65	5552.7	
894.81	5552.7	
894.98	5552.7	
895.14	5552.7	
895.31	5552.7	
895.47	5552.7	
895.64	5552.7	
895.81	5552.7	
895.97	5552.7	
896.14	5552.7	
896.3	5552.7	
896.47	5552.7	
896.63	5552.7	
896.8	5552.7	
896.96	5552.7	
897.13	5552.7	
897.29	5552.7	
897.46	5552.7	
897.62	5552.7	
897.79	5552.7	
897.95	5552.7	
898.12	5552.7	
898.28	5552.7	
898.45	5552.7	
898.61	5552.7	
898.78	5552.7	
898.94	5552.7	
899.11	5552.7	
899.27	5552.7	
899.44	5552.7	
899.6	5552.7	
899.77	5552.7	
899.93	5552.7	
900.1	5552.7	
900.26	5552.7	
900.43	5552.7	
900.59	5552.7	
900.76	5552.7	
900.92	5552.7	
901.09	5552.7	
901.25	5552.7	
901.42	5552.7	
901.58	5552.7	
901.75	5552.7	
901.91	5552.7	
902.07	5552.7	
902.24	5552.7	
902.4	5552.7	
902.57	5552.7	
902.73	5552.7	
902.9	5552.7	
903.06	5552.7	
903.23	5552.7	
903.39	5552.7	
903.56	5552.7	
903.72	5552.7	
903.88	5552.7	
904.05	5552.7	
904.21	5552.7	
904.38	5552.7	
904.54	5552.7	
904.71	5552.7	
904.87	5552.7	
905.03	5552.7	
905.2	5552.7	
905.36	5552.7	
905.53	5552.7	
905.69	5552.7	
905.86	5552.7	
906.02	5552.7	
906.18	5552.7	
906.35	5552.7	
906.51	5552.7	
906.68	5552.7	
906.84	5552.7	
907.01	5552.7	
907.17	5552.7	
907.33	5552.7	
907.5	5552.7	
907.66	5552.7	
907.83	5552.7	
907.99	5552.7	
908.15	5552.7	
908.32	5552.7	
908.48	5552.7	
908.65	5552.7	
908.81	5552.7	
908.97	5552.7	
909.14	5552.7	
909.3	5552.7	
909.47	5552.7	
909.63	5552.7	
909.79	5552.7	
909.96	5552.7	
910.12	5552.7	
910.28	5552.7	
910.45	5552.7	
910.61	5552.7	
910.78	5552.7	
910.94	5552.7	
911.1	5552.7	
911.27	5552.7	
911.43	5552.7	
911.59	5552.7	
911.76	5552.7	
911.92	5552.7	
912.08	5552.7	
912.25	5552.7	
912.41	5552.7	
912.57	5552.7	
912.74	5552.7	
912.9	5552.7	
913.07	5552.7	
913.23	5552.7	
913.39	5552.7	
913.56	5552.7	
913.72	5552.7	
913.88	5552.7	
914.05	5552.7	
914.21	5552.7	
914.37	5552.7	
914.54	5552.7	
914.7	5552.7	
914.86	5552.7	
915.03	5552.7	
915.19	5552.7	
