Wavelength	Intensities	
nm	a.u.	
179.22	1894.2	
179.44	1908.4	
179.65	1880	
179.86	1936.7	
180.08	1878.7	
180.29	4947.9	
180.51	3487.7	
180.72	5651.7	
180.94	6601.3	
181.15	3266.5	
181.37	3183.9	
181.58	5489.2	
181.79	5786.2	
182.01	3396.9	
182.22	3629.7	
182.44	5745.9	
182.65	4843.4	
182.87	4528.1	
183.08	3981.3	
183.29	6021.7	
183.51	4939.7	
183.72	3635.8	
183.94	5328.8	
184.15	5377.3	
184.37	5425.1	
184.58	3199.6	
184.79	4448.2	
185.01	4955.4	
185.22	5756.2	
185.44	4615.4	
185.65	3927.3	
185.86	5281.7	
186.08	4892.6	
186.29	3096.5	
186.51	3343.7	
186.72	5009.3	
186.94	5945.3	
187.15	3923.9	
187.36	4006.5	
187.58	7621.9	
187.79	5507.7	
188.01	4162.2	
188.22	6457.2	
188.43	6593.8	
188.65	5707	
188.86	3284.9	
189.08	4049.5	
189.29	5205.9	
189.5	5162.9	
189.72	3657	
189.93	3746.4	
190.15	5862.7	
190.36	7075.7	
190.57	4135.5	
190.79	3937.6	
191	5995.1	
191.22	5973.9	
191.43	4102.8	
191.64	3345.7	
191.86	6271.6	
192.07	5952.8	
192.29	3497.2	
192.5	3733.4	
192.71	5979.4	
192.93	5077.6	
193.14	3635.8	
193.35	3789.4	
193.57	5176.6	
193.78	5922	
194	2955.9	
194.21	3637.9	
194.42	4935.6	
194.64	5415.5	
194.85	4013.3	
195.07	4683	
195.28	5464	
195.49	4678.2	
195.71	4941.7	
195.92	3445.4	
196.13	5611.4	
196.35	5724.1	
196.56	5263.3	
196.78	3979.2	
196.99	7011.6	
197.2	6557.6	
197.42	4550.6	
197.63	4022.9	
197.84	4806.6	
198.06	5537	
198.27	3703.4	
198.48	5009.3	
198.7	5160.2	
198.91	5302.9	
199.13	4039.3	
199.34	3986	
199.55	5784.8	
199.77	4683.7	
199.98	3533.4	
200.19	4105.5	
200.41	5269.4	
200.62	4995.7	
200.83	4153.3	
201.05	4502.1	
201.26	5299.5	
201.47	5035.3	
201.69	3594.9	
201.9	3455.6	
202.11	5346.6	
202.33	6360.3	
202.54	3794.2	
202.76	4219.5	
202.97	5518.6	
203.18	5511.8	
203.4	4183.3	
203.61	4144.4	
203.82	5440.8	
204.04	5060.5	
204.25	4043.4	
204.46	3946.4	
204.68	5434.6	
204.89	5646.9	
205.1	3902.1	
205.32	3423.5	
205.53	5811.5	
205.74	5953.4	
205.96	2929.3	
206.17	4089.8	
206.38	5735.7	
206.6	5907	
206.81	4629.8	
207.02	3820.8	
207.24	5657.2	
207.45	6094.8	
207.66	3829.7	
207.88	3302	
208.09	5546.6	
208.3	5418.9	
208.52	3552.5	
208.73	3795.6	
208.94	5360.2	
209.15	6134.3	
209.37	3860.4	
209.58	4115.7	
209.79	5902.2	
210.01	5223	
210.22	3024.2	
210.43	3210.5	
210.65	5431.2	
210.86	5864.7	
211.07	3846.1	
211.29	3502.7	
211.5	5761.6	
211.71	5271.5	
211.93	3514.3	
212.14	3478.1	
212.35	5294	
212.56	5524.7	
212.78	4068.6	
212.99	3345	
213.2	6332.3	
213.42	5150.6	
213.63	3678.8	
213.84	3867.2	
214.06	4787.5	
214.27	4941.1	
214.48	3803.1	
214.69	4102.8	
214.91	6124.8	
215.12	6188.3	
215.33	4179.9	
215.55	4584.7	
215.76	6599.9	
215.97	5778.7	
216.18	4021.5	
216.4	3884.3	
216.61	5083.7	
216.82	5896.1	
217.04	3508.9	
217.25	3648.8	
217.46	6003.3	
217.67	5799.2	
217.89	3183.2	
218.1	3289	
218.31	5481	
218.53	5569.1	
218.74	3695.2	
218.95	3592.1	
219.16	5339.7	
219.38	6334.4	
219.59	3611.9	
219.8	4318.5	
220.01	6934.4	
220.23	5449.6	
220.44	4771.8	
220.65	3520.5	
220.87	5490.6	
221.08	5998.5	
221.29	3293.1	
221.5	4460.5	
221.72	7428	
221.93	5118.6	
222.14	4089.8	
222.35	4804.5	
222.57	5401.9	
222.78	5737.7	
222.99	3913.7	
223.2	4110.3	
223.42	5751.4	
223.63	5844.2	
223.84	2951.8	
224.05	2950.4	
224.27	6875.7	
224.48	6272.2	
224.69	4801.1	
224.9	4112.3	
225.12	5657.9	
225.33	5344.5	
225.54	3250.1	
225.75	3624.2	
225.97	4960.9	
226.18	5259.9	
226.39	3912.3	
226.6	3620.1	
226.82	5124.7	
227.03	4969.7	
227.24	3975.1	
227.45	3320.4	
227.67	5820.3	
227.88	6292	
228.09	4499.4	
228.3	4510.3	
228.52	5804.6	
228.73	5311.1	
228.94	3750.5	
229.15	3338.2	
229.36	5311.1	
229.58	5261.2	
229.79	3829	
230	4392.2	
230.21	6432.7	
230.43	5518.6	
230.64	3985.3	
230.85	4203.8	
231.06	5768.4	
231.28	5827.2	
231.49	3334.8	
231.7	3932.1	
231.91	5720.7	
232.12	5408	
232.34	3456.3	
232.55	3881.6	
232.76	6009.4	
232.97	5603.2	
233.18	3576.4	
233.4	3977.2	
233.61	5642.8	
233.82	5178.6	
234.03	3738.9	
234.25	3688.4	
234.46	7478.5	
234.67	5370.5	
234.88	4124.6	
235.09	3579.8	
235.31	5710.4	
235.52	5338.4	
235.73	4005.1	
235.94	3397.6	
236.15	5143.8	
236.37	6597.9	
236.58	3570.3	
236.79	3923.9	
237	5694	
237.21	4897.4	
237.43	4158.7	
237.64	3274.7	
237.85	9835.7	
238.06	4965	
238.27	4285	
238.48	3408.5	
238.7	5742.5	
238.91	5248.9	
239.12	3811.3	
239.33	3845.4	
239.54	4956.8	
239.76	5339.1	
239.97	3841.3	
240.18	3885.7	
240.39	6692.1	
240.6	5695.4	
240.82	4061.8	
241.03	3257	
241.24	5324	
241.45	6268.1	
241.66	3536.2	
241.87	4198.3	
242.09	6140.5	
242.3	6453.1	
242.51	4179.2	
242.72	3857.7	
242.93	5872.9	
243.14	5369.1	
243.36	4504.2	
243.57	4845.5	
243.78	6204	
243.99	5750	
244.2	3933.5	
244.41	3560.7	
244.63	4942.4	
244.84	5724.1	
245.05	4143	
245.26	3931.4	
245.47	5674.9	
245.68	5997.8	
245.9	5152	
246.11	4074.1	
246.32	5249.6	
246.53	5623	
246.74	6365.1	
246.95	3280.8	
247.16	4886.5	
247.38	5345.2	
247.59	3224.2	
247.8	3918.4	
248.01	5098.8	
248.22	5371.1	
248.43	3544.4	
248.64	3821.5	
248.86	4799.8	
249.07	5217.5	
249.28	3415.3	
249.49	3988.8	
249.7	5975.3	
249.91	6057.9	
250.12	3259.7	
250.34	3272	
250.55	5551.4	
250.76	5413.5	
250.97	3997.6	
251.18	4084.3	
251.39	6081.8	
251.6	5546.6	
251.81	4126.7	
252.03	4083	
252.24	5110.4	
252.45	5960.3	
252.66	3398.9	
252.87	4287.8	
253.08	5432.6	
253.29	7078.5	
253.5	3411.9	
253.72	4687.1	
253.93	5219.6	
254.14	6365.1	
254.35	3717.1	
254.56	3760.8	
254.77	5654.4	
254.98	5057.8	
255.19	3623.5	
255.41	4694.6	
255.62	5513.8	
255.83	6070.2	
256.04	4149.2	
256.25	4079.6	
256.46	6620.4	
256.67	5085.8	
256.88	3997.6	
257.09	4509.6	
257.31	5026.4	
257.52	5072.8	
257.73	5023.7	
257.94	3599	
258.15	5290.6	
258.36	5359.5	
258.57	4604.5	
258.78	2914.3	
258.99	5894.1	
259.2	5256.5	
259.41	3743.7	
259.63	3810.6	
259.84	6279.8	
260.05	6728.9	
260.26	4838.7	
260.47	3568.9	
260.68	5965.7	
260.89	5292.6	
261.1	4465.9	
261.31	3540.9	
261.52	5949.3	
261.73	6323.4	
261.95	4791.6	
262.16	4133.5	
262.37	6131.6	
262.58	6217	
262.79	4788.2	
263	3781.9	
263.21	5515.2	
263.42	4932.9	
263.63	3817.4	
263.84	3740.3	
264.05	5968.5	
264.26	6317.3	
264.47	4633.2	
264.69	4154	
264.9	6085.9	
265.11	5601.9	
265.32	3545.7	
265.53	3696.6	
265.74	5534.3	
265.95	4805.9	
266.16	3981.3	
266.37	4388.8	
266.58	5519.3	
266.79	5255.1	
267	3651.5	
267.21	3414	
267.42	4922	
267.63	5396.4	
267.84	3834.5	
268.06	3355.9	
268.27	5810.1	
268.48	6214.2	
268.69	3756.7	
268.9	4493.9	
269.11	6079.7	
269.32	4851	
269.53	3921.9	
269.74	3589.4	
269.95	5726.1	
270.16	4780.6	
270.37	3926	
270.58	4540.3	
270.79	5285.1	
271	5935	
271.21	4132.8	
271.42	3945.8	
271.63	5533.6	
271.84	5031.2	
272.05	3118.4	
272.26	3476.8	
272.47	5427.8	
272.68	5662.6	
272.89	3722.5	
273.11	4250.2	
273.32	5140.4	
273.53	6380.8	
273.74	4149.2	
273.95	4066.6	
274.16	5993.7	
274.37	5537	
274.58	4318.5	
274.79	3375.7	
275	5504.3	
275.21	6079.7	
275.42	5124.7	
275.63	4340.3	
275.84	5677.7	
276.05	7079.1	
276.26	4171	
276.47	3801.7	
276.68	5199.8	
276.89	6418.3	
277.1	4427.7	
277.31	3388.7	
277.52	5618.9	
277.73	5879.7	
277.94	3319.1	
278.15	3788.1	
278.36	5646.2	
278.57	4986.1	
278.78	3703.4	
278.99	4196.3	
279.2	5075.5	
279.41	4994.3	
279.62	4943.1	
279.83	3462.4	
280.04	6614.9	
280.25	4934.9	
280.46	4803.9	
280.67	3878.2	
280.88	5059.2	
281.09	6065.4	
281.3	4085.7	
281.51	5203.9	
281.72	5126.7	
281.93	5977.3	
282.14	3619.4	
282.35	3882.3	
282.56	5952.8	
282.77	5904.3	
282.98	3771.7	
283.19	4583.4	
283.4	7303.1	
283.61	5393	
283.82	3373.7	
284.03	4795.7	
284.24	5567.1	
284.45	6087.2	
284.66	4788.8	
284.87	4652.3	
285.08	5985.5	
285.29	6173.3	
285.5	3272.7	
285.71	3799	
285.92	5975.3	
286.12	6748.7	
286.33	4798.4	
286.54	3822.9	
286.75	5885.2	
286.96	5312.4	
287.17	3399.6	
287.38	4654.4	
287.59	5008.6	
287.8	4997.7	
288.01	3807.2	
288.22	4404.5	
288.43	5955.5	
288.64	4889.2	
288.85	4513	
289.06	4305.5	
289.27	5879.7	
289.48	6320	
289.69	4767.7	
289.9	4336.9	
290.11	6010.8	
290.32	5115.8	
290.53	4612.7	
290.74	4204.5	
290.94	5842.9	
291.15	5916.6	
291.36	3675.4	
291.57	4296	
291.78	5123.3	
291.99	4868.7	
292.2	3465.2	
292.41	4225.6	
292.62	5986.2	
292.83	5799.2	
293.04	5197.1	
293.25	3583.9	
293.46	5197.1	
293.67	5995.1	
293.88	3638.6	
294.09	3530	
294.29	4988.2	
294.5	5530.2	
294.71	3947.1	
294.92	3748.5	
295.13	5212.8	
295.34	6420.4	
295.55	3270.6	
295.76	3404.4	
295.97	5869.5	
296.18	6554.2	
296.39	3398.9	
296.6	3667.9	
296.81	5505.6	
297.01	5815.5	
297.22	3823.6	
297.43	3564.1	
297.64	5019.6	
297.85	5039.4	
298.06	3048.1	
298.27	3266.5	
298.48	5410.7	
298.69	5126.1	
298.9	3927.3	
299.11	3575.1	
299.31	4938.3	
299.52	4943.1	
299.73	4209.3	
299.94	4154	
300.15	5384.1	
300.36	4997	
300.57	4164.9	
300.78	4142.4	
300.99	5286.5	
301.2	5558.9	
301.4	3629.7	
301.61	3977.2	
301.82	5705	
302.03	5881.1	
302.24	4419.5	
302.45	3446.7	
302.66	5763.7	
302.87	6158.2	
303.08	3612.6	
303.29	4952.7	
303.49	5144.5	
303.7	5423.7	
303.91	3217.4	
304.12	4756.1	
304.33	4980.7	
304.54	5547.3	
304.75	3676.8	
304.96	3529.3	
305.16	5716.6	
305.37	6485.9	
305.58	3172.3	
305.79	3338.2	
306	5745.9	
306.21	4848.9	
306.42	3725.3	
306.63	5584.1	
306.83	5256.5	
307.04	6042.2	
307.25	4006.5	
307.46	3980.6	
307.67	4645.5	
307.88	5911.8	
308.09	3553.2	
308.29	3725.9	
308.5	5502.2	
308.71	6025.1	
308.92	3939.6	
309.13	3515.7	
309.34	5320.6	
309.55	5314.5	
309.75	4524	
309.96	4145.8	
310.17	5816.2	
310.38	5143.1	
310.59	4410.6	
310.8	3411.9	
311.01	5257.8	
311.21	5301.5	
311.42	3467.9	
311.63	3605.1	
311.84	5180	
312.05	5527.5	
312.26	4064.5	
312.46	4442.7	
312.67	5246.2	
312.88	4958.1	
313.09	3515	
313.3	3471.3	
313.51	6208.1	
313.71	6591	
313.92	3467.9	
314.13	3669.3	
314.34	5578	
314.55	5283.1	
314.76	4568.3	
314.96	3957.4	
315.17	5511.8	
315.38	5796.4	
315.59	3517	
315.8	3344.3	
316.01	6315.9	
316.21	6345.3	
316.42	3371	
316.63	3814.7	
316.84	5307	
317.05	6070.2	
317.26	4158.7	
317.46	3726.6	
317.67	5362.9	
317.88	5802.6	
318.09	4448.2	
318.3	3320.4	
318.5	5124.7	
318.71	5778	
318.92	5735	
319.13	4184.7	
319.34	5909.8	
319.54	6021.7	
319.75	3261	
319.96	3121.8	
320.17	5791.7	
320.38	5968.5	
320.58	3213.3	
320.79	3813.3	
321	5995.1	
321.21	6154.1	
321.42	3898.6	
321.62	3218.7	
321.83	4999.1	
322.04	5460.6	
322.25	3768.3	
322.46	3532.7	
322.66	5609.4	
322.87	5681.7	
323.08	4339	
323.29	3502.7	
323.5	6505.7	
323.7	5005.2	
323.91	4801.1	
324.12	4301.4	
324.33	5464	
324.53	5795.8	
324.74	4203.8	
324.95	4298.7	
325.16	4825	
325.37	5210	
325.57	3588	
325.78	3603.7	
325.99	5470.8	
326.2	4918.5	
326.4	4941.7	
326.61	3260.4	
326.82	5364.3	
327.03	5554.8	
327.24	5055.1	
327.44	4807.9	
327.65	5651	
327.86	4614.8	
328.07	4163.5	
328.27	3353.2	
328.48	6071.5	
328.69	5036	
328.9	5139	
329.1	3784	
329.31	5296.7	
329.52	6217	
329.73	3506.1	
329.93	3949.8	
330.14	5416.9	
330.35	5672.2	
330.56	5801.2	
330.76	4394.3	
330.97	5223	
331.18	5624.4	
331.39	3906.8	
331.59	3173	
331.8	6006.7	
332.01	6074.3	
332.22	3665.2	
332.42	4137.6	
332.63	5537.7	
332.84	5083.7	
333.05	3966.9	
333.25	3634.5	
333.46	5168.4	
333.67	5427.1	
333.88	3668.6	
334.08	4093.2	
334.29	7252.5	
334.5	6041.5	
334.7	3474	
334.91	5016.2	
335.12	4941.1	
335.33	5863.3	
335.53	3952.6	
335.74	5777.3	
335.95	5182	
336.16	4974.5	
336.36	3936.2	
336.57	4541	
336.78	4968.4	
336.98	6056.5	
337.19	4832.5	
337.4	3889.1	
337.61	6522.1	
337.81	4967	
338.02	3601.7	
338.23	4680.3	
338.43	6155.5	
338.64	5038.7	
338.85	3537.5	
339.05	4633.9	
339.26	6285.2	
339.47	4886.5	
339.68	3558.7	
339.88	5300.8	
340.09	5663.3	
340.3	5930.9	
340.5	4183.3	
340.71	3168.2	
340.92	4873.5	
341.13	6130.9	
341.33	3371.6	
341.54	4199.7	
341.75	5627.8	
341.95	5253	
342.16	3986.7	
342.37	4285.7	
342.57	4973.8	
342.78	5372.5	
342.99	4434.5	
343.19	3192.8	
343.4	5825.8	
343.61	5716.6	
343.81	3796.9	
344.02	3480.2	
344.23	5862	
344.43	6253.8	
344.64	4357.4	
344.85	4298	
345.06	5661.3	
345.26	6003.3	
345.47	4076.8	
345.68	4843.4	
345.88	4769.7	
346.09	5897.5	
346.3	4212.7	
346.5	3130	
346.71	5423.7	
346.92	5105.6	
347.12	3196.9	
347.33	4087.1	
347.54	5962.3	
347.74	6314.6	
347.95	4087.1	
348.16	3020.1	
348.36	5211.4	
348.57	4994.3	
348.78	4016.1	
348.98	4353.3	
349.19	5309.7	
349.39	4889.9	
349.6	3234.4	
349.81	3588	
350.01	5743.2	
350.22	5094	
350.43	3812	
350.63	4728.1	
350.84	5533.6	
351.05	5192.3	
351.25	3596.2	
351.46	3190.7	
351.67	5985.5	
351.87	5096	
352.08	3788.1	
352.29	4339.6	
352.49	5898.1	
352.7	5984.8	
352.9	3470.6	
353.11	4340.3	
353.32	6525.5	
353.52	5292	
353.73	3408.5	
353.94	4355.3	
354.14	5707	
354.35	5557.5	
354.55	3522.5	
354.76	3910.9	
354.97	5657.2	
355.17	5466	
355.38	3351.8	
355.59	4739.7	
355.79	5124	
356	5546.6	
356.2	3904.8	
356.41	3405.1	
356.62	4851.6	
356.82	5328.1	
357.03	4232.5	
357.24	3764.8	
357.44	5149.3	
357.65	5262.6	
357.85	5005.9	
358.06	4000.4	
358.27	4863.2	
358.47	5027.8	
358.68	3261.7	
358.88	4166.3	
359.09	5702.9	
359.3	6087.9	
359.5	4928.1	
359.71	4244.1	
359.91	6475	
360.12	5870.2	
360.33	4175.1	
360.53	4620.2	
360.74	5188.9	
360.94	5198.4	
361.15	4405.2	
361.36	3593.5	
361.56	5896.1	
361.77	5376.6	
361.97	4889.2	
362.18	3874.8	
362.38	5917.9	
362.59	5017.5	
362.8	3517.7	
363	3366.9	
363.21	4819.6	
363.41	5535	
363.62	4119.8	
363.83	5091.3	
364.03	5585.5	
364.24	6571.2	
364.44	5255.8	
364.65	5155.4	
364.85	5318.6	
365.06	5182	
365.27	3753.9	
365.47	3786.7	
365.68	6315.3	
365.88	5297.4	
366.09	4174.4	
366.29	3770.3	
366.5	5612.1	
366.71	6045.6	
366.91	5130.2	
367.12	4354	
367.32	6672.3	
367.53	5859.9	
367.73	4277.5	
367.94	5202.5	
368.14	5784.1	
368.35	6750.1	
368.56	4239.3	
368.76	3963.5	
368.97	5934.3	
369.17	7614.3	
369.38	3749.8	
369.58	4009.9	
369.79	4986.1	
369.99	6319.3	
370.2	5059.8	
370.4	4100.7	
370.61	5664	
370.82	6896.9	
371.02	4051.6	
371.23	3360	
371.43	4949.3	
371.64	6228.6	
371.84	4119.8	
372.05	5248.3	
372.25	7553.6	
372.46	6055.8	
372.66	4102.8	
372.87	3987.4	
373.07	6066.8	
373.28	7639.6	
373.48	5123.3	
373.69	4763.6	
373.9	5535.7	
374.1	5584.8	
374.31	5045.5	
374.51	4593.6	
374.72	6367.1	
374.92	5266.7	
375.13	5238.7	
375.33	4453	
375.54	5898.1	
375.74	5439.4	
375.95	4520.5	
376.15	5755.5	
376.36	5939.8	
376.56	5816.2	
376.77	4577.9	
376.97	4966.3	
377.18	7075	
377.38	6044.9	
377.59	5431.2	
377.79	4099.4	
378	5886.5	
378.2	6326.2	
378.41	4151.9	
378.61	4024.3	
378.82	6378.1	
379.02	5489.2	
379.23	4351.9	
379.43	5445.5	
379.64	6427.9	
379.84	6115.2	
380.05	4140.3	
380.25	4081.6	
380.46	6180.1	
380.66	5725.4	
380.87	5495.4	
381.07	5816.2	
381.28	6798.6	
381.48	6167.1	
381.69	4209.9	
381.89	4205.2	
382.1	5119.2	
382.3	6309.8	
382.51	5168.4	
382.71	6191.7	
382.91	6162.3	
383.12	6633.4	
383.32	4478.9	
383.53	4679.6	
383.73	6054.5	
383.94	5810.1	
384.14	4622.3	
384.35	3786.7	
384.55	5682.4	
384.76	6102.3	
384.96	4499.4	
385.17	4795	
385.37	6193.7	
385.58	5409.4	
385.78	4851.6	
385.98	3680.2	
386.19	5665.4	
386.39	6034.7	
386.6	4271.4	
386.8	4542.4	
387.01	6137.8	
387.21	6159.6	
387.42	4945.8	
387.62	5587.5	
387.83	5536.3	
388.03	6145.3	
388.23	4625	
388.44	5494.7	
388.64	5235.3	
388.85	5350.7	
389.05	4954	
389.26	5539.1	
389.46	6946	
389.67	6645	
389.87	4940.4	
390.07	5011.4	
390.28	5844.2	
390.48	5446.2	
390.69	4197	
390.89	4511.7	
391.1	5572.5	
391.3	6612.9	
391.5	5664.7	
391.71	6315.3	
391.91	6281.1	
392.12	7281.2	
392.32	5759.6	
392.53	4960.9	
392.73	5692	
392.93	5895.4	
393.14	4616.1	
393.34	5429.8	
393.55	6438.8	
393.75	5866.7	
393.95	4688.5	
394.16	4618.2	
394.36	5698.8	
394.57	6370.5	
394.77	4145.8	
394.98	4614.8	
395.18	5654.4	
395.38	5825.8	
395.59	5508.4	
395.79	4455.7	
396	5853.8	
396.2	6282.5	
396.4	5295.4	
396.61	5171.1	
396.81	6496.2	
397.02	5724.8	
397.22	5515.2	
397.42	5604.6	
397.63	6479.1	
397.83	5689.9	
398.04	4389.5	
398.24	5023	
398.44	6281.1	
398.65	5341.1	
398.85	4343.1	
399.05	4429.1	
399.26	5746.6	
399.46	7460.1	
399.67	4855.1	
399.87	4571.1	
400.07	6092	
400.28	6520	
400.48	4681.7	
400.69	5744.6	
400.89	6763.1	
401.09	7197.9	
401.3	4572.4	
401.5	5702.9	
401.7	7353.6	
401.91	7574.8	
402.11	4916.5	
402.32	5155.4	
402.52	6739.9	
402.72	6592.4	
402.93	5304.2	
403.13	4164.9	
403.33	7321.5	
403.54	6044.2	
403.74	4986.8	
403.94	5883.1	
404.15	6164.4	
404.35	7380.2	
404.56	4812	
404.76	6683.2	
404.96	6594.5	
405.17	6479.8	
405.37	6298.9	
405.57	5337	
405.78	6823.8	
405.98	6206	
406.18	4890.5	
406.39	5765	
406.59	6710.5	
406.79	6329.6	
407	4618.2	
407.2	4708.3	
407.4	6750.1	
407.61	6976.1	
407.81	4842.1	
408.01	7046.4	
408.22	5841.5	
408.42	7818.5	
408.62	6034	
408.83	5568.4	
409.03	6560.3	
409.23	6310.5	
409.44	5638.7	
409.64	5942.5	
409.84	7527.7	
410.05	7501	
410.25	5782.1	
410.45	5609.4	
410.66	7047.1	
410.86	9495.1	
411.06	6093.4	
411.27	5938.4	
411.47	9331.2	
411.67	7251.9	
411.88	6235.4	
412.08	6495.5	
412.28	7880.6	
412.49	8352.3	
412.69	6019.7	
412.89	6039.5	
413.09	8256.7	
413.3	7980.3	
413.5	6169.2	
413.7	5770.5	
413.91	7361.1	
414.11	8167.3	
414.31	5980.1	
414.52	6490.7	
414.72	7857.4	
414.92	7804.1	
415.12	5961	
415.33	6536.4	
415.53	8224	
415.73	8445.8	
415.94	6934.4	
416.14	6404.7	
416.34	7250.5	
416.55	6991.1	
416.75	7578.8	
416.95	6937.8	
417.15	8279.3	
417.36	8912.8	
417.56	7843	
417.76	6847.7	
417.97	8647.2	
418.17	8391.9	
418.37	6434.7	
418.57	6569.9	
418.78	8051.2	
418.98	7713.3	
419.18	7437.5	
419.38	7277.1	
419.59	7789.8	
419.79	7331.7	
419.99	6320	
420.2	6735.1	
420.4	8279.3	
420.6	8501.1	
420.8	6320.7	
421.01	6183.5	
421.21	8160.5	
421.41	8386.4	
421.61	6781.5	
421.82	6324.1	
422.02	7685.3	
422.22	8514.1	
422.42	7099.6	
422.63	6728.9	
422.83	7817.1	
423.03	8974.2	
423.23	6780.8	
423.44	5724.1	
423.64	7814.4	
423.84	7466.2	
424.04	6275.7	
424.25	5851.7	
424.45	8684.8	
424.65	8751	
424.85	5696.1	
425.06	6366.5	
425.26	8719.6	
425.46	7720.8	
425.66	6748.1	
425.87	6384.2	
426.07	8462.9	
426.27	8297	
426.47	6559	
426.67	5882.4	
426.88	8777.6	
427.08	8217.1	
427.28	6868.2	
427.48	5782.8	
427.69	7103.7	
427.89	7724.3	
428.09	6892.1	
428.29	5929.6	
428.5	8432.9	
428.7	8027.4	
428.9	5891.3	
429.1	6491.4	
429.3	7990.5	
429.51	8345.5	
429.71	6127.5	
429.91	7043	
430.11	8293.6	
430.31	8551.6	
430.52	6557.6	
430.72	6915.3	
430.92	8837.7	
431.12	8328.4	
431.32	6328.9	
431.53	6702.3	
431.73	7243.7	
431.93	8986.5	
432.13	6175.3	
432.33	5995.8	
432.54	7750.2	
432.74	8155	
432.94	6001.2	
433.14	7073	
433.34	8383.7	
433.55	7912.7	
433.75	7018.4	
433.95	8799.4	
434.15	8135.9	
434.35	7906.5	
434.56	6277	
434.76	5753.4	
434.96	8195.3	
435.16	8451.3	
435.36	6118	
435.56	7339.9	
435.77	7838.9	
435.97	7992.5	
436.17	8101.8	
436.37	7243	
436.57	7855.3	
436.78	7729.7	
436.98	8457.4	
437.18	7875.1	
437.38	8598.1	
437.58	7981.6	
437.78	7997.3	
437.99	6520.7	
438.19	8505.9	
438.39	9970.9	
438.59	6532.3	
438.79	5948	
438.99	9130.5	
439.2	7993.9	
439.4	6166.4	
439.6	6219	
439.8	8357.1	
440	9536.7	
440.2	7215	
440.4	7385	
440.61	8903.2	
440.81	9448	
441.01	6480.5	
441.21	7439.6	
441.41	9366	
441.61	8849.3	
441.81	7786.4	
442.02	8710.7	
442.22	9704.6	
442.42	8977.6	
442.62	6657.3	
442.82	6693.4	
443.02	9334	
443.22	8480	
443.43	7110.5	
443.63	6677.7	
443.83	8215.1	
444.03	8274.5	
444.23	7976.8	
444.43	7494.9	
444.63	8582.4	
444.83	9848	
445.04	6842.3	
445.24	8147.5	
445.44	8973.5	
445.64	9059.5	
445.84	7503.8	
446.04	7453.2	
446.24	8264.9	
446.44	9322.4	
446.65	6709.8	
446.85	7111.2	
447.05	8565.3	
447.25	9297.1	
447.45	7159.7	
447.65	6634.7	
447.85	8592.6	
448.05	8144.8	
448.25	7737.2	
448.46	7471.7	
448.66	8619.9	
448.86	8297	
449.06	6412.2	
449.26	7610.9	
449.46	9084.1	
449.66	8019.2	
449.86	7256	
450.06	7107.1	
450.26	8236.2	
450.47	8911.4	
450.67	7423.9	
450.87	7824.6	
451.07	8891.6	
451.27	8770.8	
451.47	6780.1	
451.67	7351.5	
451.87	8428.1	
452.07	9529.2	
452.27	7021.8	
452.47	6935.8	
452.67	8720.9	
452.88	9352.4	
453.08	6350.8	
453.28	8413.7	
453.48	10012	
453.68	8674.5	
453.88	6992.4	
454.08	7137.2	
454.28	9183.1	
454.48	8825.4	
454.68	7797.3	
454.88	8379.6	
455.08	9156.5	
455.28	9105.3	
455.48	6882.5	
455.68	7568.6	
455.89	9854.8	
456.09	9516.2	
456.29	7261.4	
456.49	7391.8	
456.69	9695.8	
456.89	8910	
457.09	7963.2	
457.29	8301.8	
457.49	9385.8	
457.69	9577.7	
457.89	7931.1	
458.09	7240.9	
458.29	9214.5	
458.49	10019	
458.69	8294.3	
458.89	7821.2	
459.09	10234	
459.29	10419	
459.49	7789.8	
459.69	8604.2	
459.9	9757.2	
460.1	9402.2	
460.3	7705.1	
460.5	7479.2	
460.7	9768.1	
460.9	9506	
461.1	7238.9	
461.3	8602.8	
461.5	10617	
461.7	10097	
461.9	7829.4	
462.1	8181.6	
462.3	9673.2	
462.5	10324	
462.7	7862.2	
462.9	8073.8	
463.1	11397	
463.3	11080	
463.5	8254.7	
463.7	9321.7	
463.9	10032	
464.1	10379	
464.3	8526.4	
464.5	8686.8	
464.7	10766	
464.9	10473	
465.1	10056	
465.3	9118.2	
465.5	10995	
465.7	11116	
465.9	9565.4	
466.1	9125.1	
466.3	10934	
466.5	10726	
466.7	10285	
466.9	9039.7	
467.1	10811	
467.3	11733	
467.5	10197	
467.7	9003.6	
467.9	11957	
468.1	12899	
468.3	9876.7	
468.5	10245	
468.7	10831	
468.9	10805	
469.1	9357.2	
469.3	10181	
469.5	12875	
469.7	10474	
469.9	9670.5	
470.1	9192.6	
470.3	10806	
470.5	10826	
470.7	10342	
470.9	9181.7	
471.1	10675	
471.3	11024	
471.5	9047.9	
471.69	10950	
471.89	10413	
472.09	9979.8	
472.29	9919.7	
472.49	10122	
472.69	10219	
472.89	10975	
473.09	8953.7	
473.29	8969.4	
473.49	10339	
473.69	10568	
473.89	10030	
474.09	9222.7	
474.29	11752	
474.49	11468	
474.69	10003	
474.89	9304.6	
475.09	10527	
475.29	10457	
475.49	8582.4	
475.69	8995.4	
475.88	12098	
476.08	10801	
476.28	8512.7	
476.48	9093.7	
476.68	11166	
476.88	10913	
477.08	8875.2	
477.28	9282.1	
477.48	10510	
477.68	11107	
477.88	8708	
478.08	9062.3	
478.28	11555	
478.48	10684	
478.67	9129.8	
478.87	8470.4	
479.07	11333	
479.27	10758	
479.47	9250.7	
479.67	9278	
479.87	11106	
480.07	11611	
480.27	8651.3	
480.47	10204	
480.67	10824	
480.87	11447	
481.06	8851.3	
481.26	9771.5	
481.46	10750	
481.66	10707	
481.86	9328.5	
482.06	10385	
482.26	10477	
482.46	11499	
482.66	9310.1	
482.86	8886.8	
483.05	10895	
483.25	10307	
483.45	11793	
483.65	9312.8	
483.85	10559	
484.05	10802	
484.25	9850	
484.45	10335	
484.65	11647	
484.84	11673	
485.04	9250	
485.24	9198.8	
485.44	12053	
485.64	10432	
485.84	8608.3	
486.04	10165	
486.24	10780	
486.44	11254	
486.63	8733.9	
486.83	9503.9	
487.03	10669	
487.23	11038	
487.43	8819.9	
487.63	11345	
487.83	10989	
488.02	12237	
488.22	10010	
488.42	10568	
488.62	11934	
488.82	10813	
489.02	9557.2	
489.22	9764	
489.41	11802	
489.61	11568	
489.81	9267.1	
490.01	9358.5	
490.21	11637	
490.41	12359	
490.61	9319.6	
490.8	9410.4	
491	11211	
491.2	10503	
491.4	9937.4	
491.6	9078	
491.8	11188	
491.99	11368	
492.19	8918.9	
492.39	9418.6	
492.59	11685	
492.79	12011	
492.99	10344	
493.18	9429.5	
493.38	11962	
493.58	12899	
493.78	10269	
493.98	9835.7	
494.18	11856	
494.37	11468	
494.57	10703	
494.77	10522	
494.97	12309	
495.17	12538	
495.37	10189	
495.56	10589	
495.76	12822	
495.96	12377	
496.16	11558	
496.36	10455	
496.55	12709	
496.75	12221	
496.95	10691	
497.15	10750	
497.35	12635	
497.54	12721	
497.74	10506	
497.94	12253	
498.14	13368	
498.34	13115	
498.53	10334	
498.73	11111	
498.93	12086	
499.13	12693	
499.33	10965	
499.52	11420	
499.72	12734	
499.92	13117	
500.12	10675	
500.32	10983	
500.51	13052	
500.71	12943	
500.91	11791	
501.11	11381	
501.31	12895	
501.5	13274	
501.7	12037	
501.9	11000	
502.1	12596	
502.29	13091	
502.49	11407	
502.69	11784	
502.89	12777	
503.09	12934	
503.28	10313	
503.48	10415	
503.68	11955	
503.88	12063	
504.07	11397	
504.27	10850	
504.47	12429	
504.67	12495	
504.86	11315	
505.06	11062	
505.26	11949	
505.46	13848	
505.65	10722	
505.85	10982	
506.05	11810	
506.25	12131	
506.44	10011	
506.64	10897	
506.84	11684	
507.04	12579	
507.23	10217	
507.43	10824	
507.63	13549	
507.83	11890	
508.02	10669	
508.22	10325	
508.42	13903	
508.62	11528	
508.81	10803	
509.01	11243	
509.21	11456	
509.4	11778	
509.6	10748	
509.8	10196	
510	11840	
510.19	13421	
510.39	10208	
510.59	10303	
510.79	11654	
510.98	13084	
511.18	10268	
511.38	10390	
511.57	12362	
511.77	12377	
511.97	11077	
512.17	10001	
512.36	12444	
512.56	12365	
512.76	10119	
512.95	9815.2	
513.15	12598	
513.35	11279	
513.55	11077	
513.74	10218	
513.94	12602	
514.14	11863	
514.33	11224	
514.53	11002	
514.73	11918	
514.92	12082	
515.12	10421	
515.32	10349	
515.51	12192	
515.71	12831	
515.91	12078	
516.11	10451	
516.3	14040	
516.5	11850	
516.7	10912	
516.89	11585	
517.09	12125	
517.29	11938	
517.48	11145	
517.68	10698	
517.88	11736	
518.07	12366	
518.27	11194	
518.47	10282	
518.66	13012	
518.86	11614	
519.06	9967.5	
519.25	10530	
519.45	11954	
519.65	13510	
519.84	11170	
520.04	11880	
520.24	13820	
520.43	12559	
520.63	10678	
520.83	10479	
521.02	11712	
521.22	12271	
521.42	10920	
521.61	11665	
521.81	11913	
522.01	12083	
522.2	10892	
522.4	10718	
522.6	12671	
522.79	11540	
522.99	10926	
523.18	10292	
523.38	12549	
523.58	12615	
523.77	12487	
523.97	10455	
524.17	14536	
524.36	13732	
524.56	11964	
524.76	11635	
524.95	12910	
525.15	12441	
525.34	11379	
525.54	11401	
525.74	13185	
525.93	12268	
526.13	12594	
526.33	11509	
526.52	13663	
526.72	13127	
526.91	12685	
527.11	11906	
527.31	13673	
527.5	14257	
527.7	11979	
527.89	10985	
528.09	12792	
528.29	13358	
528.48	12344	
528.68	11996	
528.87	13682	
529.07	13674	
529.27	11915	
529.46	11269	
529.66	13183	
529.85	13605	
530.05	11069	
530.25	11865	
530.44	14644	
530.64	13146	
530.83	11676	
531.03	11974	
531.23	13748	
531.42	13596	
531.62	12803	
531.81	11891	
532.01	13943	
532.21	14467	
532.4	11852	
532.6	12292	
532.79	15021	
532.99	14180	
533.18	12383	
533.38	13339	
533.58	13816	
533.77	14518	
533.97	12362	
534.16	13154	
534.36	14812	
534.55	13834	
534.75	13338	
534.95	12541	
535.14	14635	
535.34	13741	
535.53	12011	
535.73	14104	
535.92	15123	
536.12	13868	
536.31	12073	
536.51	13350	
536.71	14099	
536.9	13735	
537.1	12304	
537.29	12473	
537.49	14556	
537.68	13665	
537.88	12757	
538.07	12052	
538.27	13996	
538.46	15056	
538.66	11996	
538.86	12384	
539.05	14101	
539.25	14509	
539.44	12666	
539.64	12108	
539.83	13848	
540.03	14846	
540.22	12045	
540.42	12226	
540.61	13924	
540.81	14080	
541	12632	
541.2	13225	
541.39	13422	
541.59	14018	
541.78	12884	
541.98	11998	
542.18	13032	
542.37	12981	
542.57	12199	
542.76	12772	
542.96	13031	
543.15	13760	
543.35	12184	
543.54	11540	
543.74	13879	
543.93	13528	
544.13	12075	
544.32	13112	
544.52	13764	
544.71	13032	
544.91	11122	
545.1	12324	
545.3	13045	
545.49	13688	
545.69	11123	
545.88	11598	
546.08	14590	
546.27	14204	
546.47	12185	
546.66	11451	
546.86	13829	
547.05	14562	
547.24	11581	
547.44	11492	
547.63	12761	
547.83	13956	
548.02	11884	
548.22	12021	
548.41	12530	
548.61	13907	
548.8	11370	
549	11409	
549.19	13123	
549.39	13478	
549.58	10954	
549.78	11537	
549.97	13566	
550.17	13036	
550.36	12348	
550.55	13406	
550.75	12903	
550.94	13962	
551.14	11129	
551.33	11634	
551.53	12283	
551.72	13347	
551.92	11657	
552.11	11341	
552.31	13355	
552.5	13437	
552.69	13007	
552.89	10911	
553.08	13234	
553.28	13024	
553.47	11282	
553.67	12609	
553.86	13885	
554.06	12215	
554.25	10540	
554.44	11082	
554.64	14708	
554.83	14129	
555.03	10961	
555.22	11474	
555.42	13372	
555.61	13015	
555.8	11172	
556	11473	
556.19	12286	
556.39	13403	
556.58	11311	
556.78	11222	
556.97	13031	
557.16	12731	
557.36	12566	
557.55	10925	
557.75	11946	
557.94	13785	
558.13	10966	
558.33	10721	
558.52	13518	
558.72	12337	
558.91	10828	
559.1	10953	
559.3	11985	
559.49	11759	
559.69	10417	
559.88	11346	
560.07	12978	
560.27	13196	
560.46	11452	
560.66	11729	
560.85	12658	
561.04	11679	
561.24	10678	
561.43	10777	
561.63	12016	
561.82	12321	
562.01	12101	
562.21	11257	
562.4	12809	
562.59	13780	
562.79	11087	
562.98	10757	
563.18	12762	
563.37	14219	
563.56	11693	
563.76	10751	
563.95	12239	
564.14	12147	
564.34	11134	
564.53	10828	
564.73	12801	
564.92	13170	
565.11	11277	
565.31	10672	
565.5	13387	
565.69	12341	
565.89	10905	
566.08	11263	
566.27	13265	
566.47	13748	
566.66	11856	
566.85	10485	
567.05	12662	
567.24	12233	
567.44	10883	
567.63	12245	
567.82	13124	
568.02	12808	
568.21	10813	
568.4	11308	
568.6	12711	
568.79	12720	
568.98	10686	
569.18	10935	
569.37	12800	
569.56	14848	
569.76	11168	
569.95	12219	
570.14	13056	
570.34	12837	
570.53	10679	
570.72	10615	
570.91	13426	
571.11	12476	
571.3	11099	
571.49	12078	
571.69	12524	
571.88	12150	
572.07	11704	
572.27	11703	
572.46	12157	
572.65	13249	
572.85	10967	
573.04	11295	
573.23	13521	
573.43	12802	
573.62	10723	
573.81	11493	
574	12752	
574.2	12666	
574.39	11060	
574.58	11356	
574.78	13816	
574.97	13001	
575.16	11714	
575.36	12004	
575.55	13387	
575.74	13448	
575.93	10750	
576.13	12065	
576.32	12849	
576.51	13356	
576.71	11234	
576.9	12673	
577.09	13697	
577.28	13201	
577.48	11914	
577.67	10725	
577.86	12898	
578.05	13216	
578.25	11487	
578.44	11611	
578.63	12994	
578.83	14194	
579.02	10935	
579.21	12462	
579.4	13263	
579.6	12917	
579.79	11728	
579.98	13868	
580.17	13616	
580.37	13747	
580.56	11159	
580.75	11927	
580.94	14212	
581.14	14137	
581.33	12478	
581.52	11319	
581.71	13570	
581.91	14203	
582.1	11222	
582.29	11701	
582.48	13250	
582.68	13172	
582.87	12222	
583.06	11850	
583.25	13611	
583.45	12981	
583.64	12532	
583.83	13257	
584.02	13063	
584.21	13515	
584.41	12498	
584.6	11742	
584.79	13298	
584.98	14166	
585.18	11166	
585.37	11278	
585.56	12747	
585.75	13719	
585.94	11468	
586.14	12041	
586.33	14186	
586.52	13115	
586.71	11820	
586.91	11512	
587.1	12494	
587.29	13407	
587.48	11268	
587.67	11082	
587.87	13250	
588.06	13199	
588.25	12366	
588.44	11744	
588.63	12607	
588.83	13170	
589.02	10830	
589.21	10559	
589.4	12056	
589.59	11905	
589.78	9583.1	
589.98	9767.4	
590.17	11210	
590.36	11694	
590.55	8983.8	
590.74	9777.7	
590.94	13068	
591.13	11592	
591.32	9633.6	
591.51	9253.4	
591.7	12106	
591.89	11616	
592.09	9374.9	
592.28	9846.6	
592.47	10893	
592.66	12750	
592.85	9431.6	
593.05	9667.1	
593.24	11501	
593.43	12312	
593.62	9792	
593.81	10294	
594	11640	
594.19	11851	
594.39	9663	
594.58	9665.7	
594.77	11821	
594.96	12500	
595.15	9469.1	
595.34	10200	
595.54	11832	
595.73	10895	
595.92	8875.9	
596.11	10094	
596.3	12343	
596.49	11041	
596.68	9760.6	
596.88	10223	
597.07	12119	
597.26	10955	
597.45	9379	
597.64	10712	
597.83	11166	
598.02	11883	
598.22	9552.4	
598.41	10176	
598.6	11613	
598.79	11047	
598.98	9662.3	
599.17	10548	
599.36	11660	
599.55	12904	
599.74	11703	
599.94	11437	
600.13	12240	
600.32	11073	
600.51	9387.9	
600.7	9707.4	
600.89	13015	
601.08	13017	
601.27	9402.2	
601.47	10478	
601.66	12256	
601.85	13026	
602.04	10175	
602.23	10402	
602.42	11300	
602.61	11906	
602.8	10041	
602.99	9750.4	
603.18	11647	
603.37	12103	
603.57	10353	
603.76	11118	
603.95	12704	
604.14	12243	
604.33	9886.9	
604.52	10205	
604.71	12039	
604.9	11598	
605.09	10885	
605.28	10716	
605.47	12583	
605.66	12170	
605.86	10558	
606.05	9906.7	
606.24	12486	
606.43	11051	
606.62	10172	
606.81	10966	
607	12280	
607.19	11664	
607.38	9695.1	
607.57	9953.8	
607.76	11427	
607.95	10813	
608.14	10241	
608.33	10780	
608.52	11382	
608.72	12309	
608.91	9391.3	
609.1	9445.2	
609.29	11413	
609.48	10918	
609.67	10498	
609.86	9524.4	
610.05	11084	
610.24	11432	
610.43	9328.5	
610.62	8863.6	
610.81	12542	
611	12245	
611.19	9473.9	
611.38	10166	
611.57	11764	
611.76	13033	
611.95	9234.3	
612.14	9051.3	
612.33	11385	
612.52	10918	
612.71	9833.7	
612.9	8959.9	
613.09	10479	
613.28	12913	
613.47	9391.3	
613.66	10352	
613.85	11533	
614.04	11019	
614.24	9473.2	
614.43	8697	
614.62	11691	
614.81	11687	
615	10185	
615.19	10149	
615.38	10897	
615.57	11372	
615.76	9968.8	
615.95	10993	
616.14	11684	
616.33	11333	
616.52	10330	
616.71	10630	
616.9	11733	
617.09	11596	
617.28	9669.1	
617.47	11024	
617.66	10880	
617.85	10908	
618.04	10677	
618.22	10187	
618.41	11289	
618.6	12255	
618.79	10125	
618.98	9790.7	
619.17	12594	
619.36	10833	
619.55	9996.8	
619.74	10041	
619.93	11883	
620.12	11280	
620.31	10648	
620.5	10832	
620.69	12437	
620.88	12925	
621.07	11508	
621.26	10436	
621.45	12045	
621.64	12136	
621.83	10670	
622.02	9832.3	
622.21	12134	
622.4	11936	
622.59	11252	
622.78	11120	
622.97	11501	
623.16	12493	
623.35	10583	
623.54	9896.5	
623.72	11765	
623.91	11899	
624.1	10865	
624.29	9546.9	
624.48	12983	
624.67	12150	
624.86	10771	
625.05	9861.7	
625.24	13134	
625.43	11333	
625.62	12511	
625.81	10084	
626	12372	
626.19	11742	
626.38	10803	
626.56	10198	
626.75	11471	
626.94	12310	
627.13	10628	
627.32	9314.8	
627.51	12093	
627.7	13347	
627.89	9431.6	
628.08	10623	
628.27	11087	
628.46	11386	
628.65	9735.4	
628.83	9418.6	
629.02	12041	
629.21	11326	
629.4	10162	
629.59	10412	
629.78	11247	
629.97	12308	
630.16	10623	
630.35	10006	
630.54	12702	
630.72	12464	
630.91	9895.8	
631.1	10443	
631.29	11879	
631.48	12036	
631.67	10560	
631.86	10142	
632.05	11467	
632.24	11566	
632.42	9654.1	
632.61	10365	
632.8	11557	
632.99	11315	
633.18	10337	
633.37	10671	
633.56	11942	
633.75	11662	
633.93	10308	
634.12	10083	
634.31	12674	
634.5	12260	
634.69	10112	
634.88	10545	
635.07	11713	
635.25	12190	
635.44	11060	
635.63	11166	
635.82	11542	
636.01	10977	
636.2	10873	
636.39	10450	
636.57	12635	
636.76	12327	
636.95	9837.1	
637.14	11308	
637.33	11958	
637.52	12874	
637.7	9655.5	
637.89	10589	
638.08	11516	
638.27	12992	
638.46	10616	
638.65	11016	
638.83	12827	
639.02	11270	
639.21	10468	
639.4	10930	
639.59	11776	
639.78	11218	
639.96	9716.2	
640.15	9715.6	
640.34	11530	
640.53	11664	
640.72	9326.4	
640.91	9650.7	
641.09	10847	
641.28	12233	
641.47	9971.6	
641.66	10522	
641.85	11598	
642.03	11785	
642.22	10324	
642.41	9751.1	
642.6	10939	
642.79	10359	
642.97	9405	
643.16	10208	
643.35	10897	
643.54	10525	
643.73	9241.8	
643.91	10094	
644.1	10423	
644.29	11013	
644.48	9276.6	
644.67	9229.5	
644.85	10445	
645.04	10793	
645.23	8732.5	
645.42	8961.9	
645.6	10079	
645.79	11243	
645.98	8798.1	
646.17	7825.3	
646.36	9691	
646.54	10314	
646.73	9518.3	
646.92	8148.9	
647.11	9873.3	
647.29	10852	
647.48	8359.1	
647.67	8051.9	
647.86	11131	
648.05	11245	
648.23	8727.1	
648.42	9974.3	
648.61	10596	
648.8	10356	
648.98	8329.8	
649.17	8778.3	
649.36	9918.3	
649.55	9488.2	
649.73	8458.1	
649.92	9158.5	
650.11	9903.3	
650.3	10180	
650.48	8499.1	
650.67	8125	
650.86	10424	
651.05	9296.4	
651.23	8501.8	
651.42	8411	
651.61	9795.4	
651.79	9891.7	
651.98	8718.2	
652.17	8221.2	
652.36	10271	
652.54	9310.1	
652.73	8229.4	
652.92	8059.4	
653.11	10285	
653.29	10260	
653.48	7501	
653.67	8510	
653.85	9976.3	
654.04	10954	
654.23	8574.2	
654.42	8042.4	
654.6	9276.6	
654.79	9914.9	
654.98	7507.2	
655.16	8014.4	
655.35	8791.9	
655.54	8772.8	
655.73	7553.6	
655.91	7513.3	
656.1	10099	
656.29	8938	
656.47	7169.3	
656.66	9001.5	
656.85	9204.3	
657.03	9267.7	
657.22	7799.3	
657.41	7866.9	
657.59	9474.6	
657.78	9233.6	
657.97	7510.6	
658.16	8414.4	
658.34	10121	
658.53	10537	
658.72	9146.2	
658.9	9807.7	
659.09	9491	
659.28	9567.4	
659.46	8100.4	
659.65	8042.4	
659.84	9399.5	
660.02	9837.8	
660.21	7918.1	
660.4	7959.1	
660.58	10309	
660.77	9663.7	
660.96	8564.6	
661.14	7473	
661.33	10885	
661.52	10689	
661.7	7435.5	
661.89	11140	
662.08	9174.9	
662.26	8881.4	
662.45	7743.4	
662.64	7774.8	
662.82	9916.9	
663.01	9110	
663.2	7879.2	
663.38	8620.6	
663.57	9878.7	
663.75	9680.7	
663.94	8138.6	
664.13	9422.7	
664.31	9226.1	
664.5	9896.5	
664.69	8523.6	
664.87	8999.5	
665.06	8891.6	
665.25	9707.4	
665.43	9247.9	
665.62	9275.9	
665.8	10063	
665.99	9281.4	
666.18	8178.9	
666.36	8218.5	
666.55	9941.5	
666.74	9890.3	
666.92	7731.1	
667.11	9405	
667.29	9321.7	
667.48	9936.1	
667.67	8998.8	
667.85	8193.2	
668.04	9268.4	
668.22	9369.5	
668.41	8146.8	
668.6	8372.8	
668.78	9184.5	
668.97	9295	
669.15	8541.4	
669.34	7408.2	
669.53	9133.3	
669.71	9552.4	
669.9	7643	
670.08	8282.7	
670.27	9082.7	
670.46	9699.9	
670.64	8533.9	
670.83	8800.1	
671.01	8985.8	
671.2	9544.9	
671.38	7635.5	
671.57	7613	
671.76	10265	
671.94	10777	
672.13	7583.6	
672.31	8728.4	
672.5	9783.1	
672.69	9096.4	
672.87	7723.6	
673.06	7942.7	
673.24	9639.1	
673.43	9101.9	
673.61	8446.5	
673.8	8077.9	
673.98	9833.7	
674.17	10038	
674.36	8519.5	
674.54	8410.3	
674.73	9504.6	
674.91	9839.8	
675.1	8204.2	
675.28	7759.1	
675.47	9313.5	
675.65	9897.2	
675.84	7989.1	
676.03	8329.1	
676.21	9052	
676.4	8615.8	
676.58	8734.6	
676.77	8591.9	
676.95	10643	
677.14	9000.8	
677.32	7617.1	
677.51	7433.4	
677.69	9839.1	
677.88	8718.2	
678.06	7484	
678.25	7638.2	
678.44	9369.5	
678.62	9052	
678.81	7361.1	
678.99	8391.9	
679.18	10170	
679.36	9699.9	
679.55	7959.1	
679.73	8570.1	
679.92	9668.5	
680.1	9055.4	
680.29	9230.2	
680.47	7927.7	
680.66	8962.6	
680.84	9839.8	
681.03	7163.8	
681.21	8286.8	
681.4	9100.5	
681.58	8936.7	
681.77	7608.2	
681.95	7464.2	
682.14	9850	
682.32	10175	
682.51	8547.5	
682.69	7275.1	
682.88	8871.1	
683.06	9542.9	
683.25	8193.2	
683.43	8616.5	
683.62	9110.7	
683.8	9484.8	
683.99	8552.3	
684.17	7849.2	
684.36	10189	
684.54	8736.6	
684.73	6815	
684.91	7042.3	
685.1	8893	
685.28	8286.8	
685.46	7446.4	
685.65	7500.3	
685.83	9084.8	
686.02	8456.1	
686.2	7051.2	
686.39	7225.2	
686.57	8325	
686.76	9900.6	
686.94	7072.3	
687.13	7238.2	
687.31	9013.1	
687.5	8633.6	
687.68	6707.1	
687.86	8017.1	
688.05	10393	
688.23	8076.5	
688.42	8050.6	
688.6	7188.4	
688.79	8541.4	
688.97	8547.5	
689.16	7671.7	
689.34	6576	
689.52	9375.6	
689.71	9463.7	
689.89	7872.4	
690.08	7154.9	
690.26	8776.9	
690.45	8613.1	
690.63	7944.1	
690.81	7164.5	
691	8312.7	
691.18	8285.4	
691.37	7354.9	
691.55	9552.4	
691.74	8233.5	
691.92	10320	
692.1	7274.4	
692.29	6691.4	
692.47	8480.6	
692.66	7770.7	
692.84	6983.6	
693.02	7635.5	
693.21	8040.3	
693.39	8533.9	
693.58	7683.3	
693.76	7159.7	
693.94	9802.9	
694.13	9665	
694.31	7204.8	
694.5	8391.9	
694.68	8541.4	
694.86	8913.4	
695.05	7706.5	
695.23	7792.5	
695.42	9278.7	
695.6	11639	
695.78	8242.4	
695.97	7273	
696.15	9259.5	
696.34	8546.9	
696.52	7036.8	
696.7	7844.4	
696.89	8964	
697.07	8249.9	
697.25	7610.3	
697.44	9261.6	
697.62	8844.5	
697.81	9197.4	
697.99	7309.9	
698.17	7801.4	
698.36	8026.7	
698.54	8841.1	
698.72	7650.5	
698.91	6552.1	
699.09	8364.6	
699.28	8206.2	
699.46	7328.3	
699.64	7139.2	
699.83	8215.1	
700.01	9513.5	
700.19	7970.7	
700.38	6483.2	
700.56	9504.6	
700.74	8314.1	
700.93	6819.7	
701.11	7865.6	
701.29	8970.1	
701.48	10096	
701.66	7185.6	
701.84	7221.8	
702.03	8531.8	
702.21	9235.7	
702.39	6746.7	
702.58	7408.9	
702.76	8966.7	
702.94	9066.4	
703.13	6681.8	
703.31	9284.1	
703.49	8219.2	
703.68	9243.8	
703.86	6865.5	
704.04	7885.4	
704.23	8727.1	
704.41	9181.7	
704.59	7096.9	
704.78	8439	
704.96	9912.2	
705.14	9153.1	
705.33	6796.5	
705.51	7632.1	
705.69	8567.3	
705.87	9348.3	
706.06	8039.6	
706.24	6942.6	
706.42	8944.2	
706.61	9131.2	
706.79	8110.6	
706.97	6886.6	
707.16	8329.8	
707.34	8952.4	
707.52	8015.1	
707.7	7073	
707.89	8454	
708.07	8142	
708.25	7954.3	
708.44	8145.5	
708.62	8492.9	
708.8	9527.2	
708.98	8204.2	
709.17	7182.9	
709.35	8822.6	
709.53	8976.9	
709.72	6867.5	
709.9	7068.9	
710.08	9020.6	
710.26	9058.8	
710.45	8535.3	
710.63	7165.8	
710.81	8650.6	
710.99	8725	
711.18	7780.2	
711.36	7195.9	
711.54	8462.2	
711.72	9146.2	
711.91	7301.7	
712.09	6647.7	
712.27	8484.1	
712.45	9171.5	
712.64	7452.6	
712.82	6241.5	
713	7744.1	
713.18	7864.2	
713.37	6330.3	
713.55	7491.5	
713.73	8645.8	
713.91	7099.6	
714.1	6406.7	
714.28	5839.4	
714.46	8000	
714.64	7189.7	
714.83	5182.7	
715.01	5879	
715.19	7163.1	
715.37	6492.1	
715.55	5609.4	
715.74	5851.7	
715.92	7961.8	
716.1	6042.2	
716.28	7019.8	
716.47	6037.4	
716.65	6711.9	
716.83	6836.8	
717.01	5803.3	
717.19	5970.5	
717.38	9050	
717.56	6532.3	
717.74	6283.9	
717.92	5365.7	
718.1	7913.4	
718.29	7183.6	
718.47	5091.3	
718.65	5838.8	
718.83	7937.2	
719.01	7843.7	
719.2	5096.7	
719.38	6202.6	
719.56	7526.3	
719.74	9181.7	
719.92	5766.4	
720.11	6689.3	
720.29	7436.2	
720.47	6514.6	
720.65	5042.1	
720.83	6003.3	
721.02	6822.5	
721.2	6535.1	
721.38	6053.1	
721.56	5194.3	
721.74	6068.8	
721.92	6286.6	
722.11	6578.1	
722.29	6197.2	
722.47	7524.2	
722.65	6703.7	
722.83	5246.9	
723.01	6150.1	
723.2	6728.3	
723.38	7075.7	
723.56	4645.5	
723.74	5945.3	
723.92	6255.2	
724.1	7531.7	
724.29	5160.2	
724.47	6376.7	
724.65	6305.7	
724.83	6255.9	
725.01	5094.7	
725.19	6054.5	
725.37	6331	
725.56	6473.6	
725.74	4926	
725.92	5149.3	
726.1	6328.9	
726.28	6558.3	
726.46	5675.6	
726.64	5364.3	
726.83	6530.3	
727.01	6808.8	
727.19	4945.8	
727.37	5745.9	
727.55	6669.6	
727.73	7216.4	
727.91	4846.9	
728.09	4774.5	
728.28	7237.5	
728.46	7941.3	
728.64	6008.1	
728.82	5973.9	
729	8473.1	
729.18	7746.1	
729.36	5227.1	
729.54	7658	
729.72	8877.9	
729.91	7128.3	
730.09	7248.4	
730.27	6032	
730.45	7012.9	
730.63	7720.8	
730.81	6645	
730.99	5603.2	
731.17	8288.1	
731.35	6825.2	
731.53	6237.4	
731.71	5784.1	
731.9	7959.1	
732.08	8194.6	
732.26	6006.7	
732.44	5689.9	
732.62	8185.7	
732.8	7686	
732.98	6462	
733.16	5543.9	
733.34	7647.1	
733.52	6407.4	
733.7	6055.2	
733.88	6296.1	
734.07	7459.4	
734.25	7198.6	
734.43	5513.8	
734.61	7114	
734.79	8755.1	
734.97	7144.7	
735.15	5662	
735.33	6065.4	
735.51	7498.3	
735.69	7145.4	
735.87	7193.8	
736.05	6146.6	
736.23	7377.5	
736.41	7144.7	
736.59	6069.5	
736.77	6255.9	
736.95	7847.1	
737.13	7273.7	
737.32	5726.8	
737.5	5973.9	
737.68	8415.1	
737.86	7162.4	
738.04	5514.5	
738.22	7366.5	
738.4	6936.5	
738.58	7282.6	
738.76	6208.1	
738.94	5146.5	
739.12	7087.3	
739.3	7025.2	
739.48	6840.2	
739.66	6571.9	
739.84	7363.8	
740.02	7353.6	
740.2	5223	
740.38	5608.7	
740.56	7825.3	
740.74	6647.7	
740.92	6318	
741.1	6247	
741.28	7240.3	
741.46	7076.4	
741.64	5849.7	
741.82	6318	
742	7210.9	
742.18	7193.1	
742.36	6072.2	
742.54	5639.4	
742.72	7772	
742.9	6498.2	
743.08	6452.5	
743.26	5182	
743.44	8043.1	
743.62	7904.5	
743.8	6643.6	
743.98	5627.8	
744.16	7527.7	
744.34	7207.5	
744.52	6526.9	
744.7	6376	
744.88	7597.3	
745.06	7176.8	
745.24	6462	
745.42	6506.4	
745.6	7713.3	
745.78	7482.6	
745.96	5225.7	
746.14	5619.6	
746.32	8465.6	
746.5	7642.3	
746.68	6232.7	
746.86	5612.8	
747.03	8154.3	
747.21	6408.8	
747.39	6109.1	
747.57	5646.2	
747.75	7286	
747.93	7750.2	
748.11	5575.3	
748.29	5481	
748.47	8818.6	
748.65	7006.8	
748.83	6364.4	
749.01	6082.5	
749.19	7490.8	
749.37	6707.8	
749.55	5840.1	
749.73	5973.2	
749.91	7136.5	
750.09	6909.2	
750.26	6021.7	
750.44	5466	
750.62	7180.2	
750.8	7028.6	
750.98	5261.9	
751.16	5612.1	
751.34	7195.2	
751.52	6560.3	
751.7	6430.6	
751.88	5318.6	
752.06	7640.3	
752.24	7493.5	
752.42	5110.4	
752.59	5547.9	
752.77	7133.1	
752.95	8290.9	
753.13	6321.4	
753.31	5750.7	
753.49	6817	
753.67	7247.1	
753.85	5988.3	
754.03	5474.9	
754.21	7486.7	
754.38	7822.6	
754.56	5664.7	
754.74	4687.1	
754.92	6581.5	
755.1	7410.9	
755.28	4529.4	
755.46	4476.9	
755.64	7845.1	
755.82	7773.4	
755.99	4500.8	
756.17	4549.2	
756.35	5060.5	
756.53	6729.6	
756.71	3355.3	
756.89	4311.7	
757.07	6270.9	
757.25	5346.6	
757.42	4979.3	
757.6	5915.2	
757.78	6496.8	
757.96	5451	
758.14	4760.2	
758.32	4184.7	
758.5	4939.7	
758.67	5844.9	
758.85	4517.1	
759.03	4642.1	
759.21	5981.4	
759.39	5443.5	
759.57	4123.9	
759.75	5272.2	
759.92	6724.8	
760.1	5896.8	
760.28	5623	
760.46	5930.9	
760.64	5750.7	
760.82	5510.4	
760.99	5407.3	
761.17	4754	
761.35	6717.3	
761.53	5689.9	
761.71	4904.2	
761.89	5743.9	
762.06	6724.8	
762.24	6168.5	
762.42	5104.9	
762.6	4881.7	
762.78	6146	
762.96	6870.3	
763.13	5519.3	
763.31	5257.8	
763.49	7106.5	
763.67	6221.7	
763.85	6124.8	
764.02	6669.6	
764.2	7466.2	
764.38	6556.9	
764.56	5103.5	
764.74	5999.2	
764.91	7479.9	
765.09	6365.1	
765.27	4833.9	
765.45	4607.9	
765.63	7536.5	
765.8	7427.3	
765.98	4316.4	
766.16	4677.6	
766.34	5831.2	
766.52	5629.2	
766.69	5629.9	
766.87	4552	
767.05	6357.6	
767.23	7137.9	
767.41	4858.5	
767.58	5088.5	
767.76	6805.4	
767.94	6974	
768.12	4833.9	
768.29	5683.8	
768.47	6346.7	
768.65	7100.3	
768.83	4485.1	
769	5713.8	
769.18	5898.2	
769.36	6575.3	
769.54	5656.5	
769.72	4498	
769.89	6869.6	
770.07	7003.4	
770.25	4822.3	
770.43	6109.8	
770.6	7555.6	
770.78	8092.9	
770.96	4943.1	
771.14	5614.8	
771.31	6737.1	
771.49	6084.5	
771.67	4109.6	
771.85	4369.7	
772.02	5302.9	
772.2	6082.5	
772.38	5180	
772.55	4627	
772.73	6357.6	
772.91	6122.1	
773.09	4957.4	
773.26	5059.2	
773.44	6262.7	
773.62	5957.5	
773.8	4470.7	
773.97	4132.1	
774.15	6348.7	
774.33	5886.5	
774.5	4355.3	
774.68	4768.4	
774.86	6504.3	
775.04	5964.4	
775.21	4388.8	
775.39	4404.5	
775.57	6184.9	
775.74	6596.5	
775.92	4228.4	
776.1	4107.5	
776.27	6135	
776.45	7382.2	
776.63	4403.1	
776.81	3865.2	
776.98	5728.9	
777.16	6892.1	
777.34	4521.9	
777.51	4413.4	
777.69	5710.4	
777.87	5526.8	
778.04	4519.2	
778.22	5182	
778.4	5539.8	
778.57	6263.4	
778.75	3728.7	
778.93	4053.6	
779.1	5247.6	
779.28	5167	
779.46	3803.8	
779.64	4244.1	
779.81	6328.2	
779.99	7264.8	
780.17	5107	
780.34	5165	
780.52	5714.5	
780.69	5960.3	
780.87	4515.8	
781.05	4175.8	
781.22	5778.7	
781.4	5846.3	
781.58	4219.5	
781.75	3404.4	
781.93	5839.4	
782.11	5214.8	
782.28	5113.8	
782.46	4177.9	
782.64	5027.1	
782.81	6105	
782.99	4238.6	
783.17	4343.7	
783.34	5967.1	
783.52	5080.3	
783.69	4463.9	
783.87	5360.9	
784.05	5190.9	
784.22	5199.8	
784.4	5302.9	
784.58	4565.6	
784.75	6123.4	
784.93	5210	
785.1	4207.9	
785.28	4842.8	
785.46	5803.9	
785.63	5167	
785.81	4129.4	
785.99	3971	
786.16	5335	
786.34	5689.9	
786.51	4037.2	
786.69	4500.8	
786.87	4916.5	
787.04	5441.5	
787.22	3847.5	
787.39	4919.9	
787.57	5150	
787.75	6236.1	
787.92	5006.6	
788.1	4947.9	
788.27	5156.8	
788.45	4982	
788.63	4671.4	
788.8	3408.5	
788.98	5502.2	
789.15	4854.4	
789.33	3540.9	
789.5	4162.2	
789.68	6106.4	
789.86	6186.9	
790.03	4563.6	
790.21	4002.4	
790.38	6082.5	
790.56	5237.3	
790.73	3856.3	
790.91	3861.1	
791.09	5138.4	
791.26	5936.4	
791.44	4160.1	
791.61	3591.5	
791.79	5130.2	
791.96	5212.1	
792.14	3688.4	
792.32	3212.6	
792.49	5100.8	
792.67	5261.2	
792.84	3732.8	
793.02	3543.7	
793.19	5550	
793.37	6318	
793.54	3260.4	
793.72	3622.9	
793.89	6487.3	
794.07	5151.3	
794.25	4252.9	
794.42	3324.5	
794.6	6221	
794.77	5793.7	
794.95	4489.8	
795.12	3919.8	
795.3	5122.7	
795.47	5758.9	
795.65	4317.8	
795.82	4194.2	
796	4895.3	
796.17	6919.4	
796.35	3983.3	
796.52	4751.3	
796.7	5636.7	
796.87	5788.2	
797.05	5005.2	
797.22	4901.5	
797.4	5714.5	
797.57	6694.8	
797.75	4127.3	
797.92	3933.5	
798.1	6001.9	
798.27	5055.1	
798.45	3296.5	
798.62	3599.6	
798.8	5442.1	
798.97	5874.9	
799.15	4386.7	
799.32	4160.8	
799.5	4657.8	
799.67	5459.2	
799.85	4460.5	
800.02	3287.7	
800.2	5032.5	
800.37	5352.7	
800.55	4665.3	
800.72	3936.2	
800.9	5860.6	
801.07	6255.2	
801.25	5244.2	
801.42	4203.8	
801.6	5917.3	
801.77	5624.4	
801.95	4027	
802.12	3779.2	
802.29	5612.8	
802.47	5519.3	
802.64	4205.8	
802.82	3192.8	
802.99	5011.4	
803.17	6148.7	
803.34	4192.2	
803.52	3740.3	
803.69	6737.8	
803.87	4784.7	
804.04	4089.8	
804.21	4244.8	
804.39	6167.8	
804.56	5318.6	
804.74	3487.7	
804.91	4234.5	
805.09	5050.3	
805.26	5180.7	
805.44	3536.8	
805.61	3886.4	
805.78	5694.7	
805.96	5762.3	
806.13	4307.6	
806.31	4610	
806.48	4616.1	
806.66	5223.7	
806.83	4224.3	
807	4149.9	
807.18	5006.6	
807.35	5452.4	
807.53	4151.2	
807.7	3246	
807.87	6250.4	
808.05	5056.4	
808.22	4587.4	
808.4	3334.1	
808.57	5089.2	
808.74	4728.8	
808.92	3807.2	
809.09	4807.9	
809.27	4993.6	
809.44	5559.6	
809.61	3311.6	
809.79	3734.1	
809.96	6305	
810.14	5842.2	
810.31	3262.4	
810.48	3988.1	
810.66	5220.3	
810.83	5957.5	
811.01	3758.7	
811.18	4220.9	
811.35	5890	
811.53	4525.3	
811.7	4595	
811.87	4286.4	
812.05	5080.3	
812.22	5026.4	
812.39	3661.1	
812.57	3542.3	
812.74	5063.3	
812.92	6720.8	
813.09	3969	
813.26	4360.8	
813.44	6550.8	
813.61	4995	
813.78	3293.8	
813.96	4426.3	
814.13	5116.5	
814.3	4753.3	
814.48	4795.7	
814.65	3975.1	
814.82	6305.7	
815	4862.6	
815.17	4063.9	
815.34	5003.2	
815.52	5021.6	
815.69	4976.6	
815.87	4098	
816.04	3466.5	
816.21	5091.9	
816.38	4485.7	
816.56	3922.5	
816.73	3650.8	
816.9	6482.5	
817.08	5842.9	
817.25	3712.3	
817.42	4659.1	
817.6	4602.5	
817.77	5168.4	
817.94	4202.4	
818.12	3629	
818.29	4827.1	
818.46	7617.1	
818.64	3852.2	
818.81	3511.6	
818.98	4693.3	
819.16	6953.5	
819.33	4398.4	
819.5	4072	
819.67	5451	
819.85	6154.8	
820.02	4010.6	
820.19	4272.1	
820.37	5366.4	
820.54	4860.5	
820.71	4145.1	
820.88	5181.4	
821.06	5335	
821.23	4824.3	
821.4	4180.6	
821.58	4173.8	
821.75	5847	
821.92	5274.9	
822.09	3336.8	
822.27	3661.1	
822.44	5083.7	
822.61	5010	
822.79	3362.8	
822.96	6491.4	
823.13	5584.1	
823.3	4820.9	
823.48	3894.6	
823.65	3491.1	
823.82	5853.1	
823.99	4653	
824.17	4962.9	
824.34	3585.3	
824.51	6746.7	
824.68	5185.5	
824.86	3774.4	
825.03	4201.1	
825.2	5093.3	
825.37	6222.4	
825.55	3604.4	
825.72	4064.5	
825.89	6815.6	
826.06	6268.1	
826.24	4011.3	
826.41	3993.5	
826.58	6229.9	
826.75	5433.3	
826.92	3168.9	
827.1	3471.3	
827.27	8535.9	
827.44	6669.6	
827.61	3768.3	
827.79	4604.5	
827.96	4841.4	
828.13	5159.5	
828.3	3950.5	
828.47	3330	
828.65	5302.2	
828.82	5287.9	
828.99	5201.8	
829.16	4503.5	
829.34	5711.1	
829.51	5530.9	
829.68	4102.1	
829.85	4312.3	
830.02	6011.5	
830.2	5737.7	
830.37	3168.9	
830.54	4962.2	
830.71	6520.7	
830.88	5048.2	
831.05	3218.7	
831.23	3752.6	
831.4	6223.8	
831.57	7021.8	
831.74	3718.4	
831.91	3358.7	
832.09	5348.6	
832.26	5685.8	
832.43	3929.4	
832.6	4483	
832.77	5308.3	
832.94	6122.1	
833.12	3101.3	
833.29	3874.1	
833.46	4937.7	
833.63	7238.9	
833.8	4300.7	
833.97	4011.3	
834.15	5704.3	
834.32	5474.9	
834.49	4113.7	
834.66	4168.3	
834.83	5952.8	
835	4840	
835.17	3808.5	
835.35	3829	
835.52	5640.8	
835.69	5497.4	
835.86	4060.4	
836.03	3319.8	
836.2	5685.2	
836.37	5284.4	
836.55	4006.5	
836.72	3700	
836.89	5288.5	
837.06	5696.8	
837.23	4098.7	
837.4	4361.5	
837.57	6506.4	
837.75	7206.8	
837.92	3597.6	
838.09	3837.9	
838.26	5292	
838.43	5989.6	
838.6	4123.2	
838.77	3710.2	
838.94	6817	
839.11	6599.2	
839.29	3893.9	
839.46	3072.6	
839.63	5630.5	
839.8	5356.1	
839.97	3812.6	
840.14	3814.7	
840.31	5455.8	
840.48	5670.8	
840.65	3170.3	
840.82	3758	
841	5629.9	
841.17	5646.2	
841.34	3514.3	
841.51	3582.6	
841.68	5677	
841.85	5350	
842.02	3672.7	
842.19	3022.1	
842.36	5403.2	
842.53	5408	
842.7	3508.9	
842.87	4349.9	
843.05	7212.9	
843.22	5334.3	
843.39	3388.7	
843.56	3747.1	
843.73	5139	
843.9	5786.9	
844.07	5750.7	
844.24	4757.4	
844.41	8351.6	
844.58	4969.7	
844.75	3376.4	
844.92	3712.3	
845.09	5743.2	
845.26	5672.9	
845.43	3505.4	
845.6	3716.4	
845.77	5708.4	
845.94	5412.8	
846.12	3888.4	
846.29	4130.1	
846.46	5893.4	
846.63	5730.2	
846.8	3467.9	
846.97	4175.8	
847.14	6184.2	
847.31	5622.4	
847.48	3929.4	
847.65	4332.8	
847.82	5951.4	
847.99	5986.9	
848.16	4696	
848.33	4326	
848.5	5237.3	
848.67	6150.7	
848.84	3453.6	
849.01	3668.6	
849.18	5112.4	
849.35	4798.4	
849.52	4362.2	
849.69	3397.6	
849.86	5902.2	
850.03	6122.7	
850.2	3493.2	
850.37	4316.4	
850.54	6087.9	
850.71	5385.5	
850.88	4245.4	
851.05	3499.3	
851.22	5615.5	
851.39	6194.4	
851.56	3341.6	
851.73	4029	
851.9	4950.6	
852.07	5942.5	
852.24	3877.5	
852.41	3469.9	
852.58	5593	
852.75	5060.5	
852.92	3943	
853.09	3432.4	
853.26	5268.7	
853.43	6116.6	
853.6	3468.6	
853.77	2950.4	
853.94	6210.1	
854.11	5610.1	
854.28	5180.7	
854.44	3747.1	
854.61	6629.3	
854.78	5709.1	
854.95	3500	
855.12	4429.8	
855.29	4544.4	
855.46	6489.3	
855.63	3474	
855.8	4899.4	
855.97	5254.4	
856.14	6018.3	
856.31	4961.5	
856.48	3762.1	
856.65	5199.1	
856.82	4955.4	
856.99	3380.5	
857.16	3711.6	
857.33	6887.3	
857.49	5313.8	
857.66	3764.2	
857.83	4029.7	
858	5272.8	
858.17	5490.6	
858.34	3310.2	
858.51	3534.1	
858.68	6431.3	
858.85	6424.5	
859.02	4062.5	
859.19	4288.4	
859.36	5007.3	
859.52	5016.8	
859.69	3480.9	
859.86	4151.9	
860.03	5010.7	
860.2	6213.5	
860.37	3147	
860.54	3573.7	
860.71	5840.1	
860.88	6354.2	
861.05	3961.5	
861.21	4373.1	
861.38	6389.7	
861.55	4830.5	
861.72	3186	
861.89	3954.6	
862.06	5937.1	
862.23	6475.7	
862.4	3382.6	
862.56	3716.4	
862.73	5798.5	
862.9	5402.5	
863.07	4075.5	
863.24	3136.8	
863.41	4853	
863.58	5049.6	
863.75	3522.5	
863.91	4059.8	
864.08	6354.2	
864.25	5885.9	
864.42	4429.8	
864.59	4900.8	
864.76	6598.6	
864.93	4980.7	
865.09	3386.7	
865.26	3723.9	
865.43	6129.6	
865.6	6560.3	
865.77	3070.6	
865.94	3403.7	
866.1	6223.1	
866.27	5944.6	
866.44	5271.5	
866.61	3274.7	
866.78	5416.9	
866.95	5793	
867.11	3406.5	
867.28	3100.6	
867.45	5998.5	
867.62	5103.5	
867.79	4074.1	
867.96	3450.1	
868.12	4960.2	
868.29	5967.1	
868.46	3444	
868.63	4656.4	
868.8	6183.5	
868.97	5836	
869.13	3635.1	
869.3	3650.8	
869.47	5769.1	
869.64	6021	
869.81	3549.1	
869.97	3545.7	
870.14	5698.1	
870.31	6437.4	
870.48	3394.8	
870.65	4407.9	
870.81	5309	
870.98	5236.7	
871.15	3945.1	
871.32	3667.2	
871.48	5745.2	
871.65	6373.3	
871.82	3476.1	
871.99	3858.4	
872.16	6821.1	
872.32	6167.1	
872.49	3509.5	
872.66	3498.6	
872.83	5984.2	
872.99	5154.7	
873.16	3985.3	
873.33	3471.3	
873.5	5544.5	
873.67	5521.3	
873.83	3634.5	
874	4663.9	
874.17	5657.9	
874.34	6774.7	
874.5	4450.2	
874.67	4335.5	
874.84	6374	
875.01	4956.8	
875.17	5006.6	
875.34	3515	
875.51	5630.5	
875.68	6748.7	
875.84	4257.7	
876.01	5150.6	
876.18	5920.7	
876.34	5836	
876.51	3519.1	
876.68	3454.2	
876.85	5302.9	
877.01	6148	
877.18	4988.2	
877.35	3495.2	
877.52	5485.8	
877.68	4880.3	
877.85	3414.6	
878.02	3433.8	
878.18	5403.9	
878.35	5126.7	
878.52	2800.3	
878.69	3929.4	
878.85	5885.9	
879.02	5868.1	
879.19	5055.8	
879.35	3759.4	
879.52	5847.6	
879.69	6116.6	
879.86	2994.1	
880.02	3971.7	
880.19	5467.4	
880.36	6612.2	
880.52	4080.9	
880.69	4166.9	
880.86	5920.7	
881.02	6030.6	
881.19	3882.3	
881.36	3804.4	
881.52	5845.6	
881.69	5148.6	
881.86	3857.7	
882.02	3695.2	
882.19	6101.6	
882.36	7243	
882.52	3568.9	
882.69	4962.9	
882.86	5668.1	
883.02	5581.4	
883.19	4280.9	
883.36	4028.4	
883.52	6032	
883.69	6890.7	
883.86	3588.7	
884.02	3173	
884.19	5860.6	
884.36	5509.7	
884.52	3976.5	
884.69	3691.8	
884.86	5193.6	
885.02	6546.7	
885.19	3903.4	
885.36	4043.4	
885.52	5446.9	
885.69	5592.3	
885.86	5086.5	
886.02	4558.8	
886.19	5890.6	
886.35	5384.8	
886.52	3837.2	
886.69	4909.7	
886.85	5066.7	
887.02	6275.7	
887.19	6275.7	
887.35	6275.7	
887.52	6275.7	
887.68	6275.7	
887.85	6275.7	
888.02	6275.7	
888.18	6275.7	
888.35	6275.7	
888.51	6275.7	
888.68	6275.7	
888.85	6275.7	
889.01	6275.7	
889.18	6275.7	
889.35	6275.7	
889.51	6275.7	
889.68	6275.7	
889.84	6275.7	
890.01	6275.7	
890.17	6275.7	
890.34	6275.7	
890.51	6275.7	
890.67	6275.7	
890.84	6275.7	
891	6275.7	
891.17	6275.7	
891.34	6275.7	
891.5	6275.7	
891.67	6275.7	
891.83	6275.7	
892	6275.7	
892.16	6275.7	
892.33	6275.7	
892.5	6275.7	
892.66	6275.7	
892.83	6275.7	
892.99	6275.7	
893.16	6275.7	
893.32	6275.7	
893.49	6275.7	
893.65	6275.7	
893.82	6275.7	
893.99	6275.7	
894.15	6275.7	
894.32	6275.7	
894.48	6275.7	
894.65	6275.7	
894.81	6275.7	
894.98	6275.7	
895.14	6275.7	
895.31	6275.7	
895.47	6275.7	
895.64	6275.7	
895.81	6275.7	
895.97	6275.7	
896.14	6275.7	
896.3	6275.7	
896.47	6275.7	
896.63	6275.7	
896.8	6275.7	
896.96	6275.7	
897.13	6275.7	
897.29	6275.7	
897.46	6275.7	
897.62	6275.7	
897.79	6275.7	
897.95	6275.7	
898.12	6275.7	
898.28	6275.7	
898.45	6275.7	
898.61	6275.7	
898.78	6275.7	
898.94	6275.7	
899.11	6275.7	
899.27	6275.7	
899.44	6275.7	
899.6	6275.7	
899.77	6275.7	
899.93	6275.7	
900.1	6275.7	
900.26	6275.7	
900.43	6275.7	
900.59	6275.7	
900.76	6275.7	
900.92	6275.7	
901.09	6275.7	
901.25	6275.7	
901.42	6275.7	
901.58	6275.7	
901.75	6275.7	
901.91	6275.7	
902.07	6275.7	
902.24	6275.7	
902.4	6275.7	
902.57	6275.7	
902.73	6275.7	
902.9	6275.7	
903.06	6275.7	
903.23	6275.7	
903.39	6275.7	
903.56	6275.7	
903.72	6275.7	
903.88	6275.7	
904.05	6275.7	
904.21	6275.7	
904.38	6275.7	
904.54	6275.7	
904.71	6275.7	
904.87	6275.7	
905.03	6275.7	
905.2	6275.7	
905.36	6275.7	
905.53	6275.7	
905.69	6275.7	
905.86	6275.7	
906.02	6275.7	
906.18	6275.7	
906.35	6275.7	
906.51	6275.7	
906.68	6275.7	
906.84	6275.7	
907.01	6275.7	
907.17	6275.7	
907.33	6275.7	
907.5	6275.7	
907.66	6275.7	
907.83	6275.7	
907.99	6275.7	
908.15	6275.7	
908.32	6275.7	
908.48	6275.7	
908.65	6275.7	
908.81	6275.7	
908.97	6275.7	
909.14	6275.7	
909.3	6275.7	
909.47	6275.7	
909.63	6275.7	
909.79	6275.7	
909.96	6275.7	
910.12	6275.7	
910.28	6275.7	
910.45	6275.7	
910.61	6275.7	
910.78	6275.7	
910.94	6275.7	
911.1	6275.7	
911.27	6275.7	
911.43	6275.7	
911.59	6275.7	
911.76	6275.7	
911.92	6275.7	
912.08	6275.7	
912.25	6275.7	
912.41	6275.7	
912.57	6275.7	
912.74	6275.7	
912.9	6275.7	
913.07	6275.7	
913.23	6275.7	
913.39	6275.7	
913.56	6275.7	
913.72	6275.7	
913.88	6275.7	
914.05	6275.7	
914.21	6275.7	
914.37	6275.7	
914.54	6275.7	
914.7	6275.7	
914.86	6275.7	
915.03	6275.7	
915.19	6275.7	
