Wavelength	Intensities	
nm	a.u.	
179.22	1690.6	
179.44	1688.9	
179.65	1692.3	
179.86	1685.5	
180.08	1780.4	
180.29	3949.2	
180.51	3049.4	
180.72	4968.4	
180.94	5649.7	
181.15	2735.4	
181.37	2725.2	
181.58	4806.6	
181.79	5051	
182.01	2821.4	
182.22	2958.6	
182.44	5079	
182.65	4373.1	
182.87	3633.8	
183.08	3271.3	
183.29	5272.8	
183.51	4356.7	
183.72	2982.5	
183.94	4184	
184.15	4738.3	
184.37	4661.2	
184.58	2663	
184.79	3501.3	
185.01	4481	
185.22	5070.1	
185.44	3684.3	
185.65	3202.3	
185.86	4728.8	
186.08	4340.3	
186.29	2646	
186.51	2828.9	
186.72	4446.8	
186.94	5146.5	
187.15	3195.5	
187.36	3272.7	
187.58	6391	
187.79	4764.3	
188.01	3411.2	
188.22	5055.1	
188.43	5582.1	
188.65	4988.2	
188.86	2809.8	
189.08	3277.4	
189.29	4585.4	
189.5	4540.3	
189.72	2970.9	
189.93	3099.3	
190.15	5133.6	
190.36	5967.1	
190.57	3308.2	
190.79	3199.6	
191	5182.7	
191.22	5147.9	
191.43	3370.3	
191.64	2841.2	
191.86	5335	
192.07	5215.5	
192.29	2869.2	
192.5	3010.5	
192.71	5173.9	
192.93	4538.3	
193.14	2953.9	
193.35	3096.5	
193.57	4547.2	
193.78	5134.9	
194	2501.9	
194.21	2977.1	
194.42	4373.1	
194.64	4743.1	
194.85	3231	
195.07	3741	
195.28	4748.6	
195.49	4187.4	
195.71	3964.2	
195.92	2856.9	
196.13	4941.1	
196.35	4932.2	
196.56	4117.8	
196.78	3295.2	
196.99	5975.3	
197.2	5573.2	
197.42	3618.1	
197.63	3308.2	
197.84	4286.4	
198.06	4941.7	
198.27	3059	
198.48	3912.3	
198.7	4573.8	
198.91	4798.4	
199.13	3315.7	
199.34	3323.2	
199.55	5087.2	
199.77	4161.5	
199.98	2962	
200.19	3280.2	
200.41	4695.3	
200.62	4429.8	
200.83	3422.2	
201.05	3659	
201.26	4729.4	
201.47	4485.7	
201.69	2922.5	
201.9	2869.2	
202.11	4768.4	
202.33	5476.3	
202.54	3104	
202.76	3430.3	
202.97	4811.4	
203.18	4841.4	
203.4	3397.6	
203.61	3430.3	
203.82	4806.6	
204.04	4506.2	
204.25	3313.6	
204.46	3210.5	
204.68	4767	
204.89	4872.8	
205.1	3203	
205.32	2831.7	
205.53	4977.2	
205.74	5134.9	
205.96	2478	
206.17	3341.6	
206.38	4939	
206.6	5101.5	
206.81	3728.7	
207.02	3069.2	
207.24	4918.5	
207.45	5218.9	
207.66	3162.1	
207.88	2713.6	
208.09	4881.7	
208.3	4759.5	
208.52	2917	
208.73	3218	
208.94	4702.8	
209.15	5279	
209.37	3158.7	
209.58	3473.4	
209.79	5145.9	
210.01	4584.7	
210.22	2601.6	
210.43	2674.6	
210.65	4782.7	
210.86	4999.1	
211.07	3177.8	
211.29	2888.3	
211.5	4912.4	
211.71	4691.9	
211.93	2926.5	
212.14	2887.6	
212.35	4733.5	
212.56	4793.6	
212.78	3317	
212.99	2770.9	
213.2	5444.9	
213.42	4607.9	
213.63	3007.8	
213.84	3159.3	
214.06	4286.4	
214.27	4354.7	
214.48	3145	
214.69	3311.6	
214.91	5232.6	
215.12	5279	
215.33	3330.7	
215.55	3585.3	
215.76	5664.7	
215.97	5016.8	
216.18	3223.5	
216.4	3198.2	
216.61	4492.6	
216.82	5133.6	
217.04	2921.1	
217.25	3022.8	
217.46	5197.1	
217.67	4949.3	
217.89	2689	
218.1	2732.7	
218.31	4788.8	
218.53	4885.8	
218.74	3091.8	
218.95	2938.8	
219.16	4685.8	
219.38	5427.1	
219.59	2995.5	
219.8	3511.6	
220.01	5874.9	
220.23	4754.7	
220.44	3760.8	
220.65	2854.9	
220.87	4780	
221.08	5176.6	
221.29	2810.5	
221.5	3532.1	
221.72	6161.7	
221.93	4530.1	
222.14	3288.4	
222.35	3864.5	
222.57	4761.5	
222.78	5008.6	
222.99	3159.3	
223.2	3331.4	
223.42	4978.6	
223.63	5053	
223.84	2504	
224.05	2535.4	
224.27	5791	
224.48	5377.3	
224.69	3835.8	
224.9	3287.7	
225.12	4873.5	
225.33	4697.4	
225.54	2703.3	
225.75	2975	
225.97	4401.8	
226.18	4685.1	
226.39	3153.9	
226.6	2995.5	
226.82	4539	
227.03	4412.7	
227.24	3325.2	
227.45	2784.6	
227.67	4983.4	
227.88	5358.2	
228.09	3624.2	
228.3	3654.3	
228.52	5026.4	
228.73	4686.4	
228.94	3034.4	
229.15	2763.4	
229.36	4734.9	
229.58	4692.6	
229.79	3115	
230	3571.7	
230.21	5538.4	
230.43	4695.3	
230.64	3310.9	
230.85	3355.3	
231.06	5111.7	
231.28	5087.8	
231.49	2791.4	
231.7	3250.1	
231.91	4971.1	
232.12	4694.6	
232.34	2867.2	
232.55	3224.9	
232.76	5192.3	
232.97	4827.7	
233.18	2947.7	
233.4	3244.7	
233.61	4851.6	
233.82	4594.3	
234.03	3091.8	
234.25	3064.4	
234.46	6218.3	
234.67	4746.5	
234.88	3334.8	
235.09	2962	
235.31	4907.6	
235.52	4620.2	
235.73	3231.7	
235.94	2806.4	
236.15	4545.1	
236.37	5542.5	
236.58	2903.3	
236.79	3169.6	
237	4920.6	
237.21	4330.1	
237.43	3418.7	
237.64	2704.7	
237.85	7811.6	
238.06	4405.2	
238.27	3355.3	
238.48	2833.7	
238.7	5054.4	
238.91	4616.1	
239.12	3127.2	
239.33	3187.3	
239.54	4557.4	
239.76	4659.8	
239.97	3138.2	
240.18	3132	
240.39	5651.7	
240.6	4871.4	
240.82	3295.2	
241.03	2753.8	
241.24	4745.8	
241.45	5350.7	
241.66	2972.3	
241.87	3431	
242.09	5313.1	
242.3	5526.8	
242.51	3396.9	
242.72	3166.2	
242.93	5034.6	
243.14	4699.4	
243.36	3692.5	
243.57	3856.3	
243.78	5324	
243.99	4982.7	
244.2	3135.4	
244.41	2881.5	
244.63	4399.7	
244.84	4986.8	
245.05	3349.8	
245.26	3161.4	
245.47	4992.9	
245.68	5026.4	
245.9	4091.8	
246.11	3321.1	
246.32	4537.6	
246.53	4945.8	
246.74	4947.2	
246.95	2695.8	
247.16	4451.6	
247.38	4752.7	
247.59	2761.3	
247.8	3205.8	
248.01	4400.4	
248.22	4690.5	
248.43	2895.1	
248.64	3106.1	
248.86	4321.9	
249.07	4588.1	
249.28	2869.2	
249.49	3297.2	
249.7	5146.5	
249.91	5199.8	
250.12	2699.9	
250.34	2757.9	
250.55	4838	
250.76	4771.8	
250.97	3276.8	
251.18	3277.4	
251.39	5219.6	
251.6	4894.6	
251.81	3356.6	
252.03	3275.4	
252.24	4543.1	
252.45	5045.5	
252.66	2782.5	
252.87	3444	
253.08	4776.5	
253.29	5933	
253.5	2806.4	
253.72	3743	
253.93	4670.7	
254.14	5460.6	
254.35	3041.9	
254.56	3097.9	
254.77	4885.8	
254.98	4468.7	
255.19	3052.8	
255.41	3804.4	
255.62	4889.2	
255.83	5224.4	
256.04	3381.9	
256.25	3289	
256.46	5681.7	
256.67	4541.7	
256.88	3254.2	
257.09	3628.3	
257.31	4468	
257.52	4500.1	
257.73	4036.5	
257.94	3048.1	
258.15	4649.6	
258.36	4677.6	
258.57	3670	
258.78	2465.8	
258.99	5098.8	
259.2	4606.6	
259.41	3013.9	
259.63	3173.7	
259.84	5384.1	
260.05	5661.3	
260.26	3884.3	
260.47	3016	
260.68	5167.7	
260.89	4640	
261.1	3598.3	
261.31	2919	
261.52	5292.6	
261.73	5439.4	
261.95	3874.8	
262.16	3407.1	
262.37	5217.5	
262.58	5377.3	
262.79	3809.9	
263	3081.5	
263.21	4712.4	
263.42	4316.4	
263.63	3327.3	
263.84	3067.2	
264.05	5148.6	
264.26	5373.2	
264.47	3668.6	
264.69	3254.9	
264.9	5328.8	
265.11	4857.1	
265.32	2931.3	
265.53	2970.9	
265.74	4805.9	
265.95	4267.3	
266.16	3226.2	
266.37	3482.2	
266.58	4831.8	
266.79	4541.7	
267	3034.4	
267.21	2788.7	
267.42	4382.7	
267.63	4714.4	
267.84	3175	
268.06	2749.7	
268.27	5134.3	
268.48	5217.5	
268.69	3091.1	
268.9	3558.7	
269.11	5268.1	
269.32	4317.8	
269.53	3163.4	
269.74	2992.1	
269.95	4969.1	
270.16	4272.7	
270.37	3165.5	
270.58	3629.7	
270.79	4677.6	
271	5129.5	
271.21	3308.8	
271.42	3241.3	
271.63	4931.5	
271.84	4409.3	
272.05	2605.7	
272.26	2909.5	
272.47	4794.3	
272.68	4882.4	
272.89	3063.8	
273.11	3453.6	
273.32	4535.6	
273.53	5395	
273.74	3383.2	
273.95	3323.9	
274.16	5146.5	
274.37	4745.1	
274.58	3445.4	
274.79	2871.9	
275	4881.7	
275.21	5159.5	
275.42	4072.7	
275.63	3492.5	
275.84	4977.9	
276.05	6044.9	
276.26	3315	
276.47	3101.3	
276.68	4661.9	
276.89	5502.2	
277.1	3521.8	
277.31	2803	
277.52	4895.3	
277.73	5177.3	
277.94	2771.6	
278.15	3047.4	
278.36	4913.1	
278.57	4517.1	
278.78	3106.8	
278.99	3366.2	
279.2	4502.8	
279.41	4435.9	
279.62	3905.5	
279.83	2847.4	
280.04	5575.9	
280.25	4421.6	
280.46	3893.9	
280.67	3181.9	
280.88	4448.2	
281.09	5221.6	
281.3	3336.1	
281.51	4096.6	
281.72	4540.3	
281.93	5074.2	
282.14	2960.7	
282.35	3235.8	
282.56	5124.7	
282.77	5041.4	
282.98	3113.6	
283.19	3706.8	
283.4	6110.5	
283.61	4679.6	
283.82	2859.6	
284.03	3812	
284.24	4915.1	
284.45	5180	
284.66	3888.4	
284.87	3697.3	
285.08	5190.2	
285.29	5259.2	
285.5	2782.5	
285.71	3108.8	
285.92	5148.6	
286.12	5598.5	
286.33	3889.1	
286.54	3148.4	
286.75	5085.8	
286.96	4622.9	
287.17	2897.2	
287.38	3780.6	
287.59	4533.5	
287.8	4495.3	
288.01	3130	
288.22	3472	
288.43	4952	
288.64	4364.2	
288.85	3617.4	
289.06	3452.2	
289.27	5051.7	
289.48	5396.4	
289.69	3870.7	
289.9	3522.5	
290.11	5246.9	
290.32	4577.2	
290.53	3663.1	
290.74	3354.6	
290.94	5025.7	
291.15	5036.6	
291.36	3039.9	
291.57	3508.9	
291.78	4585.4	
291.99	4315.1	
292.2	2950.4	
292.41	3404.4	
292.62	5115.8	
292.83	4978.6	
293.04	4163.5	
293.25	2930	
293.46	4660.5	
293.67	5170.4	
293.88	2964.1	
294.09	2912.9	
294.29	4405.2	
294.5	4779.3	
294.71	3205.8	
294.92	3011.2	
295.13	4604.5	
295.34	5568.4	
295.55	2740.9	
295.76	2730.6	
295.97	5050.3	
296.18	5579.3	
296.39	2906.1	
296.6	3000.3	
296.81	4782	
297.01	5102.2	
297.22	3120.4	
297.43	2991.4	
297.64	4554.7	
297.85	4420.9	
298.06	2536.1	
298.27	2727.2	
298.48	4689.8	
298.69	4573.8	
298.9	3264.5	
299.11	2949.8	
299.31	4409.3	
299.52	4411.3	
299.73	3450.1	
299.94	3366.2	
300.15	4790.9	
300.36	4498	
300.57	3390.8	
300.78	3351.2	
300.99	4584	
301.2	4811.4	
301.4	3048.7	
301.61	3167.5	
301.82	4993.6	
302.03	5048.2	
302.24	3594.2	
302.45	2882.2	
302.66	4955.4	
302.87	5206.6	
303.08	3025.5	
303.29	3975.1	
303.49	4547.9	
303.7	4678.9	
303.91	2785.2	
304.12	3785.3	
304.33	4340.3	
304.54	4823.6	
304.75	3020.8	
304.96	2893.1	
305.16	4967.7	
305.37	5485.1	
305.58	2666.5	
305.79	2774.3	
306	4965	
306.21	4327.4	
306.42	2988.7	
306.63	4440	
306.83	4658.4	
307.04	5052.3	
307.25	3302	
307.46	3218.7	
307.67	4204.5	
307.88	4974.5	
308.09	3000.3	
308.29	3024.2	
308.5	4816.8	
308.71	5188.9	
308.92	3182.5	
309.13	2891	
309.34	4673.5	
309.55	4724.7	
309.75	3695.2	
309.96	3342.3	
310.17	5086.5	
310.38	4484.4	
310.59	3524.6	
310.8	2843.3	
311.01	4619.5	
311.21	4696.7	
311.42	2899.2	
311.63	2978.4	
311.84	4579.9	
312.05	4855.7	
312.26	3327.3	
312.46	3587.4	
312.67	4613.4	
312.88	4403.8	
313.09	2884.9	
313.3	2908.1	
313.51	5303.6	
313.71	5553.4	
313.92	2947.7	
314.13	3017.3	
314.34	4960.2	
314.55	4675.5	
314.76	3575.8	
314.96	3220.1	
315.17	4881.7	
315.38	4973.2	
315.59	2987.3	
315.8	2790	
316.01	5352.7	
316.21	5372.5	
316.42	2841.2	
316.63	3194.8	
316.84	4664.6	
317.05	5184.8	
317.26	3366.9	
317.46	3070.6	
317.67	4702.8	
317.88	4959.5	
318.09	3616.7	
318.3	2753.2	
318.5	4549.9	
318.71	4904.2	
318.92	4483.7	
319.13	3361.4	
319.34	5100.8	
319.54	5188.2	
319.75	2755.2	
319.96	2626.2	
320.17	4963.6	
320.38	5165.7	
320.58	2702.6	
320.79	3179.1	
321	5190.9	
321.21	5296.7	
321.42	3216.7	
321.62	2713.6	
321.83	4479.6	
322.04	4752.7	
322.25	3083.6	
322.46	2932	
322.66	4763.6	
322.87	4962.2	
323.08	3534.1	
323.29	2863.1	
323.5	5536.3	
323.7	4374.5	
323.91	3866.6	
324.12	3459	
324.33	4853.7	
324.53	5034.6	
324.74	3358	
324.95	3529.3	
325.16	4320.5	
325.37	4608.6	
325.57	2875.3	
325.78	2965.5	
325.99	4870.1	
326.2	4336.2	
326.4	3982.6	
326.61	2750.4	
326.82	4690.5	
327.03	4784.1	
327.24	3994.9	
327.44	3763.5	
327.65	4970.4	
327.86	4110.3	
328.07	3313.6	
328.27	2800.3	
328.48	5277.6	
328.69	4400.4	
328.9	4041.3	
329.1	3055.6	
329.31	4646.8	
329.52	5331.5	
329.73	2947	
329.93	3146.4	
330.14	4807.3	
330.35	4889.9	
330.56	4564.9	
330.76	3506.1	
330.97	4653.7	
331.18	4831.2	
331.39	3266.5	
331.59	2689.7	
331.8	5206.6	
332.01	5239.4	
332.22	3052.2	
332.42	3348.4	
332.63	4840	
332.84	4543.1	
333.05	3231.7	
333.25	2955.2	
333.46	4566.3	
333.67	4764.3	
333.88	3054.2	
334.08	3336.8	
334.29	6027.2	
334.5	5119.9	
334.7	2821.4	
334.91	4050.2	
335.12	4371.7	
335.33	5029.1	
335.53	3217.4	
335.74	4496	
335.95	4622.9	
336.16	4394.3	
336.36	3130	
336.57	3625.6	
336.78	4382.7	
336.98	5132.2	
337.19	3838.6	
337.4	3168.9	
337.61	5647.6	
337.81	4368.3	
338.02	3056.9	
338.23	3717.7	
338.43	5300.8	
338.64	4515.1	
338.85	2941.6	
339.05	3735.5	
339.26	5372.5	
339.47	4353.3	
339.68	2963.4	
339.88	4152.6	
340.09	4959.5	
340.3	5063.9	
340.5	3375.1	
340.71	2675.3	
340.92	4436.6	
341.13	5271.5	
341.33	2859.6	
341.54	3379.8	
341.75	4947.2	
341.95	4536.9	
342.16	3263.8	
342.37	3494.5	
342.57	4402.5	
342.78	4736.3	
342.99	3536.2	
343.19	2697.9	
343.4	4982	
343.61	4944.5	
343.81	3186	
344.02	2861.7	
344.23	5023.7	
344.43	5298.1	
344.64	3590.8	
344.85	3507.5	
345.06	4938.3	
345.26	5226.4	
345.47	3364.8	
345.68	3846.1	
345.88	4272.7	
346.09	5096	
346.3	3390.1	
346.5	2628.9	
346.71	4688.5	
346.92	4538.3	
347.12	2776.4	
347.33	3336.8	
347.54	5149.3	
347.74	5485.8	
347.95	3336.8	
348.16	2581.1	
348.36	4579.3	
348.57	4443.4	
348.78	3391.4	
348.98	3557.3	
349.19	4730.8	
349.39	4334.2	
349.6	2755.9	
349.81	3005.1	
350.01	4986.1	
350.22	4531.5	
350.43	3229	
350.63	3827	
350.84	4801.1	
351.05	4576.5	
351.25	2972.3	
351.46	2739.5	
351.67	5138.4	
351.87	4514.4	
352.08	3146.4	
352.29	3519.1	
352.49	5155.4	
352.7	5171.1	
352.9	2889.7	
353.11	3538.2	
353.32	5656.5	
353.52	4639.3	
353.73	2940.9	
353.94	3623.5	
354.14	4998.4	
354.35	4787.5	
354.55	2979.8	
354.76	3280.2	
354.97	4985.4	
355.17	4763.6	
355.38	2891.7	
355.59	3777.1	
355.79	4561.5	
356	4810.7	
356.2	3311.6	
356.41	2954.5	
356.62	4412	
356.82	4753.3	
357.03	3523.9	
357.24	3189.4	
357.44	4580.6	
357.65	4653.7	
357.85	4078.2	
358.06	3304.1	
358.27	4375.1	
358.47	4572.4	
358.68	2843.3	
358.88	3511.6	
359.09	5018.9	
359.3	5206.6	
359.5	4016.1	
359.71	3646.1	
359.91	5586.2	
360.12	5130.2	
360.33	3590.1	
360.53	3912.3	
360.74	4638.6	
360.94	4663.2	
361.15	3715	
361.36	3148.4	
361.56	5251.7	
361.77	4822.3	
361.97	4113.7	
362.18	3347.7	
362.38	5313.1	
362.59	4569.7	
362.8	3084.9	
363	2964.8	
363.21	4384	
363.41	4924.7	
363.62	3547.8	
363.83	4231.8	
364.03	5052.3	
364.24	5709.1	
364.44	4367	
364.65	4291.9	
364.85	4835.3	
365.06	4600.4	
365.27	3270.6	
365.47	3294.5	
365.68	5578.7	
365.88	4800.4	
366.09	3617.4	
366.29	3318.4	
366.5	5043.5	
366.71	5395.7	
366.91	4345.8	
367.12	3730	
367.32	5824.4	
367.53	5270.8	
367.73	3775.8	
367.94	4471.4	
368.14	5232.6	
368.35	5797.1	
368.56	3624.9	
368.76	3502.7	
368.97	5350	
369.17	6507.8	
369.38	3291.8	
369.58	3519.8	
369.79	4543.1	
369.99	5585.5	
370.2	4298.7	
370.4	3598.3	
370.61	5115.1	
370.82	6025.1	
371.02	3590.8	
371.23	2986.6	
371.43	4587.4	
371.64	5578.7	
371.84	3620.1	
372.05	4470	
372.25	6517.3	
372.46	5332.2	
372.66	3594.2	
372.87	3536.8	
373.07	5380.7	
373.28	6619	
373.48	4347.8	
373.69	4188.8	
373.9	5096	
374.1	5110.4	
374.31	4327.4	
374.51	3990.1	
374.72	5763.7	
374.92	4868	
375.13	4542.4	
375.33	3856.3	
375.54	5420.3	
375.74	5025	
375.95	4035.2	
376.15	4863.2	
376.36	5446.2	
376.56	5360.9	
376.77	4090.5	
376.97	4386.1	
377.18	6358.9	
377.38	5539.8	
377.59	4623.6	
377.79	3749.1	
378	5443.5	
378.2	5739.1	
378.41	3833.1	
378.61	3661.1	
378.82	5845.6	
379.02	5221	
379.23	3921.9	
379.43	4788.8	
379.64	5852.4	
379.84	5570.5	
380.05	3764.8	
380.25	3721.2	
380.46	5715.2	
380.66	5345.2	
380.87	4825.7	
381.07	5031.9	
381.28	6178	
381.48	5628.5	
381.69	3770.3	
381.89	3817.4	
382.1	4825	
382.3	5714.5	
382.51	4595.6	
382.71	5292.6	
382.91	5593	
383.12	5947.3	
383.32	4014	
383.53	4146.5	
383.73	5442.1	
383.94	5305.6	
384.14	4162.2	
384.35	3410.6	
384.55	5215.5	
384.76	5597.8	
384.96	4013.3	
385.17	4211.3	
385.37	5569.8	
385.58	4952	
385.78	4214	
385.98	3347.1	
386.19	5143.8	
386.39	5495.4	
386.6	3807.2	
386.8	4017.4	
387.01	5584.1	
387.21	5661.3	
387.42	4367	
387.62	4745.1	
387.83	5106.3	
388.03	5434.6	
388.23	4099.4	
388.44	4695.3	
388.64	4958.8	
388.85	5000.5	
389.05	4410.6	
389.26	4840.7	
389.46	6588.3	
389.67	6107	
389.87	4440.7	
390.07	4419.5	
390.28	5425.8	
390.48	5071.5	
390.69	3822.9	
390.89	4067.3	
391.1	5251	
391.3	5939.8	
391.5	5020.3	
391.71	5412.1	
391.91	5930.2	
392.12	6441.5	
392.32	5059.2	
392.53	4463.2	
392.73	5337	
392.93	5381.4	
393.14	4187.4	
393.34	4633.9	
393.55	5727.5	
393.75	5285.8	
393.95	4080.2	
394.16	3999	
394.36	5285.8	
394.57	5749.3	
394.77	3719.8	
394.98	3962.8	
395.18	5205.9	
395.38	5355.4	
395.59	4817.5	
395.79	4022.9	
396	5428.5	
396.2	5810.1	
396.4	4696.7	
396.61	4711.7	
396.81	5916.6	
397.02	5383.4	
397.22	4982	
397.42	4951.3	
397.63	6006.7	
397.83	5343.2	
398.04	4073.4	
398.24	4511	
398.44	5793.7	
398.65	5038.7	
398.85	3920.5	
399.05	3902.1	
399.26	5399.8	
399.46	6651.8	
399.67	4355.3	
399.87	4174.4	
400.07	5755.5	
400.28	5976.7	
400.48	4287.1	
400.69	5146.5	
400.89	6204.7	
401.09	6524.1	
401.3	4237.2	
401.5	5049.6	
401.7	6716.7	
401.91	6880.5	
402.11	4528.7	
402.32	4615.4	
402.52	6272.2	
402.72	6054.5	
402.93	4771.1	
403.13	3813.3	
403.33	6627.9	
403.54	5537.7	
403.74	4325.3	
403.94	4950.6	
404.15	5619.6	
404.35	6536.4	
404.56	4196.3	
404.76	5606.7	
404.96	6111.8	
405.17	5907.7	
405.37	5499.5	
405.57	4706.9	
405.78	6193.7	
405.98	5670.8	
406.18	4425	
406.39	4982	
406.59	6031.3	
406.79	5666.7	
407	3985.3	
407.2	4080.9	
407.4	6092.7	
407.61	6251.1	
407.81	4260.5	
408.01	5840.8	
408.22	5502.9	
408.42	6969.9	
408.62	5286.5	
408.83	4993.6	
409.03	6270.9	
409.23	5945.9	
409.44	5037.3	
409.64	5220.3	
409.84	6888.7	
410.05	6846.4	
410.25	5224.4	
410.45	5033.9	
410.66	6578.8	
410.86	8367.3	
411.06	5585.5	
411.27	5386.8	
411.47	8226.7	
411.67	6709.8	
411.88	5652.4	
412.08	5760.9	
412.28	7273.7	
412.49	7608.2	
412.69	5554.8	
412.89	5478.3	
413.09	7545.4	
413.3	7353.6	
413.5	5586.2	
413.7	5276.3	
413.91	6853.9	
414.11	7536.5	
414.31	5464	
414.52	5881.1	
414.72	7284.6	
414.92	7249.8	
415.12	5473.5	
415.33	5890	
415.53	7559.7	
415.73	7707.9	
415.94	6164.4	
416.14	5641.5	
416.34	6796.5	
416.55	6521.4	
416.75	6656.6	
416.95	6251.1	
417.15	7651.9	
417.36	8021.2	
417.56	6869.6	
417.76	6172.6	
417.97	7811	
418.17	7677.2	
418.37	5894.1	
418.57	5891.3	
418.78	7484.6	
418.98	7184.3	
419.18	6503.7	
419.38	6361	
419.59	7102.4	
419.79	6840.2	
419.99	5695.4	
420.2	5984.2	
420.4	7613.7	
420.6	7695.6	
420.8	5682.4	
421.01	5548.6	
421.21	7556.3	
421.41	7548.8	
421.61	6001.9	
421.82	5728.2	
422.02	7150.1	
422.22	7780.9	
422.42	6295.5	
422.63	5945.9	
422.83	7174.7	
423.03	8071	
423.23	6014.2	
423.44	5180	
423.64	7171.3	
423.84	6866.8	
424.04	5572.5	
424.25	5319.9	
424.45	7716.7	
424.65	7615.7	
424.85	5108.3	
425.06	5502.9	
425.26	7847.8	
425.46	6933.7	
425.66	5903.6	
425.87	5724.1	
426.07	7468.3	
426.27	7335.8	
426.47	5752.7	
426.67	5199.8	
426.88	7757.7	
427.08	7310.6	
427.28	5924.1	
427.48	5118.6	
427.69	6488.6	
427.89	6954.9	
428.09	5842.2	
428.29	5126.1	
428.5	7443	
428.7	7039.6	
428.9	5098.1	
429.1	5509	
429.3	7088	
429.51	7325.6	
429.71	5362.9	
429.91	6051.1	
430.11	7393.8	
430.31	7636.2	
430.52	5678.3	
430.72	5847.6	
430.92	7783.6	
431.12	7277.1	
431.32	5341.8	
431.53	5640.1	
431.73	6531.7	
431.93	7746.1	
432.13	5285.1	
432.33	5197.1	
432.54	6965.8	
432.74	7171.3	
432.94	5191.6	
433.14	6044.9	
433.34	7422.5	
433.55	7077.1	
433.75	6040.1	
433.95	7253.9	
434.15	7247.8	
434.35	6983.6	
434.56	5442.1	
434.76	5020.9	
434.96	7212.3	
435.16	7436.9	
435.36	5313.8	
435.56	6278.4	
435.77	7028.6	
435.97	7176.8	
436.17	6723.5	
436.37	6191	
436.57	6953.5	
436.78	6922.1	
436.98	7433.4	
437.18	6619.7	
437.38	7595.2	
437.58	7061.4	
437.78	6685.9	
437.99	5595.1	
438.19	7410.2	
438.39	8478.6	
438.59	5561.6	
438.79	5053.7	
438.99	7755	
439.2	6829.3	
439.4	5152	
439.6	5171.8	
439.8	7324.2	
440	8122.9	
440.2	6152.1	
440.4	6240.2	
440.61	7812.3	
440.81	8093.6	
441.01	5588.9	
441.21	6234	
441.41	8019.8	
441.61	7699.7	
441.81	6530.3	
442.02	7157.7	
442.22	8322.9	
442.42	7772.7	
442.62	5631.2	
442.82	5580	
443.02	8087.4	
443.22	7380.2	
443.43	6013.5	
443.63	5571.2	
443.83	7252.5	
444.03	7228	
444.23	6648.4	
444.43	6355.5	
444.63	7641.7	
444.83	8374.1	
445.04	5825.1	
445.24	6708.5	
445.44	7766.6	
445.64	7834.2	
445.84	6184.2	
446.04	6261.3	
446.24	7153.6	
446.44	7877.9	
446.65	5516.5	
446.85	5914.5	
447.05	7325.6	
447.25	7858.1	
447.45	5980.8	
447.65	5480.4	
447.85	7471.7	
448.05	7064.1	
448.25	6290	
448.46	6060.6	
448.66	7359	
448.86	7090.1	
449.06	5383.4	
449.26	6260.6	
449.46	7736.5	
449.66	6888	
449.86	5954.1	
450.06	5913.2	
450.26	7164.5	
450.47	7611.6	
450.67	6075	
450.87	6356.2	
451.07	7718.1	
451.27	7453.2	
451.47	5551.4	
451.67	5965.1	
451.87	7182.2	
452.07	8008.9	
452.27	5741.8	
452.47	5685.8	
452.67	7473.7	
452.88	7713.3	
453.08	5183.4	
453.28	6681.8	
453.48	8299.7	
453.68	7250.5	
453.88	5567.1	
454.08	5756.8	
454.28	7643	
454.48	7387.7	
454.68	6237.4	
454.88	6569.2	
455.08	7808.9	
455.28	7649.2	
455.48	5498.8	
455.68	6126.2	
455.89	8170	
456.09	7843.7	
456.29	5840.1	
456.49	5935.7	
456.69	8122.9	
456.89	7472.4	
457.09	6312.5	
457.29	6633.4	
457.49	7856.7	
457.69	7965.9	
457.89	6287.9	
458.09	5803.9	
458.29	7688.8	
458.49	8200.1	
458.69	6519.4	
458.89	6136.4	
459.09	8466.3	
459.29	8425.3	
459.49	6102.9	
459.69	6684.6	
459.9	7976.8	
460.1	7644.4	
460.3	6094.1	
460.5	5836	
460.7	8082	
460.9	7761.8	
461.1	5688.6	
461.3	6651.1	
461.5	8531.8	
461.7	8278.6	
461.9	6111.8	
462.1	6422.4	
462.3	7903.8	
462.5	8273.8	
462.7	6150.7	
462.9	6178.7	
463.1	9121.7	
463.3	8963.3	
463.5	6469.5	
463.7	7127.6	
463.9	8142.7	
464.1	8367.3	
464.3	6608.8	
464.5	6608.1	
464.7	8598.7	
464.9	8342.7	
465.1	7623.2	
465.3	7020.4	
465.5	8847.9	
465.7	8850.6	
465.9	7236.2	
466.1	6884.6	
466.3	8716.8	
466.5	8537.3	
466.7	7814.4	
466.9	6842.9	
467.1	8714.1	
467.3	9291.6	
467.5	7750.9	
467.7	6799.9	
467.9	9437.7	
468.1	10076	
468.3	7381.6	
468.5	7697.6	
468.7	8555.7	
468.9	8475.2	
469.1	7059.3	
469.3	7593.9	
469.5	9996.1	
469.7	8322.9	
469.9	7380.2	
470.1	6889.4	
470.3	8598.1	
470.5	8596.7	
470.7	7843	
470.9	6892.8	
471.1	8353.7	
471.3	8663.6	
471.5	6813.6	
471.69	8082.6	
471.89	8338	
472.09	7745.4	
472.29	7329	
472.49	7591.8	
472.69	8022.6	
472.89	8600.1	
473.09	6614.3	
473.29	6667.5	
473.49	8137.9	
473.69	8113.4	
473.89	7431.4	
474.09	6753.5	
474.29	9076.6	
474.49	8777.6	
474.69	7470.3	
474.89	6843.6	
475.09	8185	
475.29	8176.2	
475.49	6445	
475.69	6587	
475.88	9331.2	
476.08	8458.1	
476.28	6378.7	
476.48	6573.3	
476.68	8697	
476.88	8452	
477.08	6480.5	
477.28	6707.1	
477.48	8134.5	
477.68	8569.4	
477.88	6393.8	
478.08	6596.5	
478.28	8942.8	
478.48	8231.5	
478.67	6659.3	
478.87	6120.7	
479.07	8703.9	
479.27	8196	
479.47	6749.4	
479.67	6764.4	
479.87	8599.4	
480.07	8900.5	
480.27	6220.4	
480.47	7408.9	
480.67	8314.8	
480.87	8728.4	
481.06	6444.3	
481.26	7021.1	
481.46	8327.7	
481.66	8152.3	
481.86	6763.1	
482.06	7423.2	
482.26	7984.3	
482.46	8660.9	
482.66	6626.5	
482.86	6386.9	
483.05	8325.7	
483.25	7685.3	
483.45	8505.2	
483.65	6687.3	
483.85	7827.3	
484.05	8106.5	
484.25	7040.9	
484.45	7315.3	
484.65	8743.5	
484.84	8852.7	
485.04	6588.3	
485.24	6676.4	
485.44	8990.6	
485.64	7764.5	
485.84	6148.7	
486.04	7166.5	
486.24	8083.3	
486.44	8307.9	
486.63	6079.7	
486.83	6722.8	
487.03	8091.5	
487.23	8173.4	
487.43	6255.2	
487.63	7957.7	
487.83	8191.9	
488.02	8823.3	
488.22	6980.8	
488.42	7417.7	
488.62	8977.6	
488.82	8058.1	
489.02	6694.8	
489.22	6726.2	
489.41	8688.8	
489.61	8606.9	
489.81	6491.4	
490.01	6562.4	
490.21	8761.2	
490.41	9281.4	
490.61	6485.2	
490.8	6552.1	
491	8353.7	
491.2	7860.8	
491.4	6954.2	
491.6	6239.5	
491.8	8273.8	
491.99	8277.9	
492.19	6125.5	
492.39	6372.6	
492.59	8626.7	
492.79	8702.5	
492.99	7060	
493.18	6471.6	
493.38	8929.8	
493.58	9393.4	
493.78	7024.5	
493.98	6682.5	
494.18	8501.8	
494.37	8157.7	
494.57	7211.6	
494.77	7122.2	
494.97	8785.8	
495.17	8988.5	
495.37	6817	
495.56	7111.2	
495.76	9275.3	
495.96	8973.5	
496.16	7864.9	
496.36	7083.9	
496.55	9158.5	
496.75	8706.6	
496.95	7189.1	
497.15	7193.1	
497.35	9067.7	
497.54	8918.2	
497.74	6994.5	
497.94	8194.6	
498.14	9565.4	
498.34	9426.1	
498.53	6834.8	
498.73	7408.2	
498.93	8505.2	
499.13	8965.3	
499.33	7245.7	
499.52	7650.5	
499.72	9101.9	
499.92	9192.6	
500.12	7037.5	
500.32	7318.8	
500.51	9338.1	
500.71	9081.4	
500.91	7804.1	
501.11	7591.1	
501.31	9136	
501.5	9422	
501.7	8056	
501.9	7204.8	
502.1	9014.5	
502.29	9225.4	
502.49	7638.9	
502.69	7878.5	
502.89	9178.3	
503.09	9068.4	
503.28	6719.4	
503.48	6804.7	
503.68	8543.4	
503.88	8396	
504.07	7513.3	
504.27	7161.1	
504.47	8788.5	
504.67	8828.8	
504.86	7537.9	
505.06	7219.1	
505.26	8559.1	
505.46	9760.6	
505.65	7116	
505.85	7268.9	
506.05	8411	
506.25	8866.3	
506.44	6617	
506.64	7277.1	
506.84	8335.2	
507.04	8860.2	
507.23	6711.2	
507.43	7126.9	
507.63	9697.1	
507.83	8291.5	
508.02	7189.7	
508.22	6801.3	
508.42	9854.1	
508.62	8142	
508.81	6815.6	
509.01	7355.6	
509.21	8011.7	
509.4	8258.1	
509.6	7047.1	
509.8	6626.5	
510	8392.6	
510.19	9278.7	
510.39	6599.9	
510.59	6739.9	
510.79	8153.6	
510.98	9184.5	
511.18	6728.3	
511.38	6877.1	
511.57	8802.9	
511.77	8501.1	
511.97	7260.7	
512.17	6572.6	
512.36	8701.1	
512.56	8639.7	
512.76	6480.5	
512.95	6309.8	
513.15	8813.8	
513.35	7746.1	
513.55	7228.6	
513.74	6557.6	
513.94	8817.9	
514.14	8229.4	
514.33	7294.9	
514.53	6971.3	
514.73	8247.9	
514.92	8305.2	
515.12	6645.7	
515.32	6473.6	
515.51	8440.4	
515.71	8798.1	
515.91	7807.5	
516.11	6548	
516.3	9722.4	
516.5	8089.5	
516.7	7031.4	
516.89	7397.3	
517.09	8176.9	
517.29	8178.9	
517.48	7213.6	
517.68	6664.8	
517.88	8043.1	
518.07	8527.1	
518.27	7093.5	
518.47	6363	
518.66	8819.9	
518.86	7916.1	
519.06	6311.8	
519.25	6649.8	
519.45	8099	
519.65	9222.7	
519.84	7137.2	
520.04	7608.9	
520.24	9498.5	
520.43	8521.6	
520.63	6868.9	
520.83	6592.4	
521.02	7967.3	
521.22	8375.5	
521.42	6793.8	
521.61	7368.6	
521.81	8054.7	
522.01	8213.7	
522.2	6933.7	
522.4	6741.9	
522.6	8584.4	
522.79	7668.3	
522.99	6744.6	
523.18	6285.9	
523.38	8446.5	
523.58	8405.5	
523.77	7686.7	
523.97	6338.5	
524.17	9819.3	
524.36	9361.9	
524.56	7257.3	
524.76	7092.1	
524.95	8417.2	
525.15	8176.2	
525.34	6940.6	
525.54	6929	
525.74	8759.8	
525.93	7995.3	
526.13	7831.4	
526.33	6898.9	
526.52	8898.4	
526.72	8518.2	
526.91	7786.4	
527.11	7284.6	
527.31	8920.3	
527.5	9247.3	
527.7	7209.5	
527.89	6513.2	
528.09	8287.4	
528.29	8706.6	
528.48	7608.2	
528.68	7207.5	
528.87	9036.3	
529.07	9054.8	
529.27	7099.6	
529.46	6791.1	
529.66	8688.2	
529.85	9012.4	
530.05	6735.8	
530.25	7245.7	
530.44	9669.8	
530.64	8512.7	
530.83	7012.9	
531.03	7144	
531.23	9004.9	
531.42	8792.6	
531.62	7669	
531.81	7085.3	
532.01	9189.9	
532.21	9331.2	
532.4	7059.3	
532.6	7299.6	
532.79	9699.2	
532.99	9163.3	
533.18	7320.1	
533.38	7972.1	
533.58	8844.5	
533.77	9323	
533.97	7331.7	
534.16	7863.5	
534.36	9622.7	
534.55	8842.4	
534.75	8007.6	
534.95	7371.3	
535.14	9456.2	
535.34	8772.8	
535.53	7033.4	
535.73	8497.7	
535.92	9719.7	
536.12	8906.6	
536.31	7139.2	
536.51	8000.7	
536.71	9001.5	
536.9	8850.6	
537.1	7112.6	
537.29	7335.1	
537.49	9416.6	
537.68	8744.1	
537.88	7686	
538.07	6976.1	
538.27	8931.2	
538.46	9639.1	
538.66	6958.3	
538.86	7288.7	
539.05	8953	
539.25	9183.8	
539.44	7477.8	
539.64	7210.2	
539.83	8850.6	
540.03	9441.1	
540.22	7071.6	
540.42	7193.8	
540.61	8945.5	
540.81	9015.8	
541	7477.1	
541.2	7852.6	
541.39	8640.4	
541.59	8792.6	
541.78	7767.3	
541.98	7009.5	
542.18	8298.4	
542.37	8284	
542.57	7286.7	
542.76	7658.7	
542.96	8368.7	
543.15	8717.5	
543.35	7238.9	
543.54	6805.4	
543.74	8937.3	
543.93	8698.4	
544.13	7219.8	
544.32	8053.3	
544.52	8929.8	
544.71	8373.5	
544.91	6638.8	
545.1	7441.6	
545.3	8392.6	
545.49	8798.8	
545.69	6413.6	
545.88	6991.8	
546.08	9538.1	
546.27	9187.9	
546.47	7258.7	
546.66	6731	
546.86	8936.7	
547.05	9319.6	
547.24	6881.2	
547.44	6856.6	
547.63	8163.9	
547.83	8983.1	
548.02	7111.9	
548.22	7230.7	
548.41	8029.4	
548.61	8951.7	
548.8	6727.6	
549	6690.7	
549.19	8507.3	
549.39	8856.1	
549.58	6489.3	
549.78	6923.5	
549.97	8720.9	
550.17	8355.7	
550.36	7479.2	
550.55	8234.2	
550.75	8361.9	
550.94	9134.6	
551.14	6585.6	
551.33	6858	
551.53	7847.8	
551.72	8600.8	
551.92	6903.7	
552.11	6756.2	
552.31	8667.7	
552.5	8680.7	
552.69	7931.1	
552.89	6515.3	
553.08	8565.3	
553.28	8365.3	
553.47	6693.4	
553.67	7621.9	
553.86	9043.1	
554.06	7791.8	
554.25	6137.8	
554.44	6565.8	
554.64	9633.6	
554.83	9185.8	
555.03	6458.6	
555.22	6803.4	
555.42	8755.7	
555.61	8476.5	
555.8	6589.7	
556	6823.1	
556.19	7862.8	
556.39	8576.9	
556.58	6655.9	
556.78	6757.6	
556.97	8449.9	
557.16	8196.7	
557.36	7529.7	
557.55	6417.7	
557.75	7621.9	
557.94	9029.5	
558.13	6497.5	
558.33	6268.8	
558.52	8761.9	
558.72	7780.9	
558.91	6412.9	
559.1	6521.4	
559.3	7690.1	
559.49	7515.4	
559.69	6054.5	
559.88	6745.3	
560.07	8265.6	
560.27	8623.3	
560.46	6931.7	
560.66	6959.7	
560.85	8177.5	
561.04	7474.4	
561.24	6318	
561.43	6428.6	
561.63	7673.1	
561.82	7946.1	
562.01	7303.7	
562.21	6642.9	
562.4	8213	
562.59	8913.4	
562.79	6567.8	
562.98	6316.6	
563.18	8189.1	
563.37	9230.9	
563.56	6804.7	
563.76	6186.2	
563.95	7821.9	
564.14	7778.2	
564.34	6550.1	
564.53	6271.6	
564.73	8254.7	
564.92	8348.9	
565.11	6584.9	
565.31	6170.5	
565.5	8598.1	
565.69	7741.3	
565.89	6410.1	
566.08	6584.9	
566.27	8506.6	
566.47	8740	
566.66	7043.6	
566.85	6021.7	
567.05	8193.2	
567.24	7746.1	
567.44	6254.5	
567.63	7216.4	
567.82	8321.6	
568.02	8089.5	
568.21	6300.9	
568.4	6517.3	
568.6	8052.6	
568.79	8008.9	
568.98	6232	
569.18	6264.7	
569.37	8051.9	
569.56	9583.8	
569.76	6568.5	
569.95	7211.6	
570.14	8315.4	
570.34	8100.4	
570.53	6115.2	
570.72	6130.9	
570.91	8619.2	
571.11	8039.6	
571.3	6479.1	
571.49	7162.4	
571.69	8106.5	
571.88	7710.6	
572.07	6956.3	
572.27	6849.1	
572.46	7681.2	
572.65	8414.4	
572.85	6350.1	
573.04	6606.1	
573.23	8649.9	
573.43	8121.6	
573.62	6173.3	
573.81	6628.6	
574	8127.7	
574.2	7923.6	
574.39	6447.7	
574.58	6592.4	
574.78	8738.7	
574.97	8116.8	
575.16	6754.9	
575.36	6925.5	
575.55	8527.1	
575.74	8568	
575.93	6142.5	
576.13	6898.9	
576.32	7971.4	
576.51	8387.1	
576.71	6564.4	
576.9	7407.5	
577.09	8643.1	
577.28	8298.4	
577.48	6728.9	
577.67	6070.9	
577.86	8027.4	
578.05	8301.8	
578.25	6503	
578.44	6625.9	
578.63	8248.5	
578.83	9023.4	
579.02	6178.7	
579.21	7240.3	
579.4	8279.9	
579.6	7993.2	
579.79	6599.9	
579.98	8297.7	
580.17	8471.8	
580.37	8630.8	
580.56	6223.8	
580.75	6920.8	
580.94	8823.3	
581.14	8808.3	
581.33	7140.6	
581.52	6429.3	
581.71	8424.7	
581.91	8951.7	
582.1	6213.5	
582.29	6567.2	
582.48	8144.8	
582.68	8165.9	
582.87	6991.8	
583.06	6646.3	
583.25	8543.4	
583.45	7823.9	
583.64	7251.2	
583.83	7694.9	
584.02	8120.2	
584.21	8517.5	
584.41	7154.9	
584.6	6731.7	
584.79	8224.6	
584.98	8617.9	
585.18	6310.5	
585.37	6324.8	
585.56	7916.1	
585.75	8486.1	
585.94	6523.5	
586.14	6888.7	
586.33	8830.8	
586.52	8213.7	
586.71	6763.1	
586.91	6520	
587.1	7628.7	
587.29	8411	
587.48	6501.6	
587.67	6321.4	
587.87	8333.9	
588.06	8254	
588.25	7320.8	
588.44	6864.8	
588.63	8083.3	
588.83	8423.3	
589.02	6385.6	
589.21	6243.6	
589.4	7920.9	
589.59	7765.2	
589.78	5754.8	
589.98	5892	
590.17	7421.2	
590.36	7764.5	
590.55	5388.9	
590.74	5936.4	
590.94	8669.7	
591.13	7621.2	
591.32	5806.7	
591.51	5521.3	
591.7	8002.8	
591.89	7608.9	
592.09	5654.4	
592.28	6009.4	
592.47	7058.7	
592.66	8511.4	
592.85	5659.2	
593.05	5746.6	
593.24	7505.8	
593.43	8086.1	
593.62	5870.2	
593.81	6150.7	
594	7630.7	
594.19	7677.8	
594.39	5737	
594.58	5740.5	
594.77	7773.4	
594.96	8163.2	
595.15	5659.9	
595.34	6085.9	
595.54	7759.8	
595.73	7101	
595.92	5196.4	
596.11	5989.6	
596.3	8094.9	
596.49	7243	
596.68	5857.9	
596.88	6239.5	
597.07	7895.6	
597.26	7077.1	
597.45	5554.1	
597.64	6358.3	
597.83	7283.9	
598.02	7742	
598.22	5642.8	
598.41	6085.9	
598.6	7546.1	
598.79	7122.8	
598.98	5640.8	
599.17	6318	
599.36	7555	
599.55	8393.9	
599.74	7086	
599.94	6948.1	
600.13	8002.8	
600.32	7077.8	
600.51	5481.7	
600.7	5479.7	
600.89	8410.3	
601.08	8453.3	
601.27	5427.8	
601.47	6143.2	
601.66	7905.2	
601.85	8322.3	
602.04	5906.3	
602.23	6094.8	
602.42	7187	
602.61	7701.7	
602.8	5803.9	
602.99	5640.1	
603.18	7403.4	
603.37	7564.5	
603.57	6133	
603.76	6550.1	
603.95	8247.2	
604.14	7847.1	
604.33	5771.9	
604.52	5915.9	
604.71	7586.4	
604.9	7271.7	
605.09	6387.6	
605.28	6226.5	
605.47	8105.9	
605.66	7684.7	
605.86	6108.4	
606.05	5717.2	
606.24	8097	
606.43	6886.6	
606.62	5961.6	
606.81	6416.3	
607	7950.9	
607.19	7382.2	
607.38	5486.5	
607.57	5670.8	
607.76	7217.7	
607.95	6763.8	
608.14	6054.5	
608.33	6408.8	
608.52	7174.7	
608.72	7879.9	
608.91	5470.1	
609.1	5320.6	
609.29	7345.4	
609.48	6916.7	
609.67	6096.1	
609.86	5382.1	
610.05	7040.9	
610.24	7210.2	
610.43	5315.8	
610.62	5144.5	
610.81	8116.1	
611	7930.4	
611.19	5442.8	
611.38	5996.5	
611.57	7535.2	
611.76	8318.2	
611.95	5249.6	
612.14	5149.3	
612.33	7314	
612.52	6969.2	
612.71	5625.1	
612.9	5153.4	
613.09	6662.7	
613.28	8378.2	
613.47	5636.7	
613.66	6167.8	
613.85	7408.9	
614.04	7011.6	
614.24	5504.9	
614.43	4952	
614.62	7503.1	
614.81	7407.5	
615	5963	
615.19	6004.6	
615.38	6950.1	
615.57	7235.5	
615.76	5810.1	
615.95	6548.7	
616.14	7498.3	
616.33	7279.2	
616.52	6013.5	
616.71	6208.8	
616.9	7489.4	
617.09	7247.1	
617.28	5615.5	
617.47	6475.7	
617.66	6904.4	
617.85	6833.4	
618.04	6165.1	
618.22	5799.2	
618.41	7088	
618.6	7763.2	
618.79	5692	
618.98	5532.2	
619.17	7888.1	
619.36	6628.6	
619.55	5626.5	
619.74	5739.1	
619.93	7420.5	
620.12	7046.4	
620.31	6109.8	
620.5	6225.8	
620.69	7807.5	
620.88	8193.9	
621.07	6695.5	
621.26	5950	
621.45	7533.1	
621.64	7495.6	
621.83	6146.6	
622.02	5435.3	
622.21	7621.9	
622.4	7492.2	
622.59	6477	
622.78	6323.4	
622.97	7126.9	
623.16	7792.5	
623.35	6044.9	
623.54	5416.9	
623.72	7345.4	
623.91	7323.5	
624.1	6209.4	
624.29	5273.5	
624.48	8188.5	
624.67	7572.7	
624.86	6101.6	
625.05	5461.9	
625.24	8374.8	
625.43	7089.4	
625.62	7379.5	
625.81	5538.4	
626	7790.5	
626.19	7261.4	
626.38	6155.5	
626.56	5750.7	
626.75	7167.9	
626.94	7704.5	
627.13	6223.8	
627.32	5283.8	
627.51	7675.1	
627.7	8348.2	
627.89	5351.3	
628.08	6064	
628.27	6900.3	
628.46	7256.6	
628.65	5585.5	
628.83	5252.4	
629.02	7615.7	
629.21	7010.9	
629.4	5825.8	
629.59	6049.7	
629.78	7038.2	
629.97	7663.5	
630.16	6029.2	
630.35	5599.8	
630.54	8066.9	
630.72	7916.1	
630.91	5646.9	
631.1	6058.6	
631.29	7339.2	
631.48	7473	
631.67	6159.6	
631.86	5709.7	
632.05	7263.5	
632.24	7225.9	
632.42	5515.9	
632.61	5933	
632.8	7264.8	
632.99	6939.2	
633.18	5939.8	
633.37	6170.5	
633.56	7490.1	
633.75	7357.7	
633.93	5984.2	
634.12	5678.3	
634.31	8092.2	
634.5	7776.8	
634.69	5795.8	
634.88	6199.2	
635.07	7324.2	
635.25	7789.1	
635.44	6382.8	
635.63	6488.6	
635.82	7141.9	
636.01	6683.9	
636.2	6383.5	
636.39	6066.1	
636.57	8082	
636.76	7679.2	
636.95	5674.2	
637.14	6632.7	
637.33	7514.7	
637.52	8165.9	
637.7	5419.6	
637.89	6214.2	
638.08	7280.5	
638.27	8243.8	
638.46	6227.9	
638.65	6454.5	
638.83	8251.3	
639.02	7157.7	
639.21	6144.6	
639.4	6504.3	
639.59	7483.3	
639.78	7180.2	
639.96	5539.8	
640.15	5588.9	
640.34	7282.6	
640.53	7365.2	
640.72	5309.7	
640.91	5664	
641.09	6866.8	
641.28	7921.5	
641.47	5629.2	
641.66	6210.8	
641.85	7334.5	
642.03	7479.9	
642.22	5997.8	
642.41	5705	
642.6	7027.9	
642.79	6484.6	
642.97	5537	
643.16	5918.6	
643.35	6869.6	
643.54	6707.8	
643.73	5390.9	
643.91	5949.3	
644.1	6683.9	
644.29	7130.3	
644.48	5518.6	
644.67	5535	
644.85	6755.6	
645.04	7082.6	
645.23	5164.3	
645.42	5445.5	
645.6	6735.8	
645.79	7533.1	
645.98	5424.4	
646.17	4647.5	
646.36	6472.3	
646.54	6931	
646.73	5976	
646.92	5017.5	
647.11	6513.9	
647.29	7316	
647.48	5102.9	
647.67	4926.7	
647.86	7525.6	
648.05	7505.8	
648.23	5345.9	
648.42	6221.7	
648.61	7083.9	
648.8	6931.7	
648.98	5070.8	
649.17	5283.1	
649.36	6622.4	
649.55	6271.6	
649.73	5095.3	
649.92	5656.5	
650.11	6492.1	
650.3	6791.1	
650.48	5189.6	
650.67	4933.6	
650.86	6951.5	
651.05	6179.4	
651.23	5177.3	
651.42	5147.2	
651.61	6621.8	
651.79	6587	
651.98	5295.4	
652.17	4980.7	
652.36	6900.3	
652.54	6215.6	
652.73	5101.5	
652.92	4901.5	
653.11	6926.9	
653.29	7008.1	
653.48	4479.6	
653.67	5194.3	
653.85	6664.1	
654.04	7384.3	
654.23	5406	
654.42	5126.1	
654.6	6338.5	
654.79	6787.7	
654.98	4656.4	
655.16	5040.1	
655.35	6085.9	
655.54	5900.2	
655.73	4655	
655.91	4612	
656.1	6816.3	
656.29	5937.1	
656.47	4379.9	
656.66	5584.8	
656.85	6309.1	
657.03	6230.6	
657.22	4802.5	
657.41	4812	
657.59	6319.3	
657.78	6141.9	
657.97	4586.1	
658.16	5011.4	
658.34	6719.4	
658.53	7094.8	
658.72	5670.8	
658.9	6085.9	
659.09	6431.3	
659.28	6440.2	
659.46	4904.9	
659.65	4874.8	
659.84	6201.2	
660.02	6676.4	
660.21	4886.5	
660.4	4673.5	
660.58	6872.3	
660.77	6360.3	
660.96	5223	
661.14	4480.3	
661.33	7302.4	
661.52	7210.2	
661.7	4468	
661.89	7027.9	
662.08	6121.4	
662.26	5733.6	
662.45	4687.1	
662.64	4805.9	
662.82	6696.9	
663.01	6038.8	
663.2	4769.7	
663.38	5304.9	
663.57	6559	
663.75	6582.9	
663.94	5028.4	
664.13	5857.2	
664.31	6173.3	
664.5	6610.2	
664.69	5281	
664.87	5509	
665.06	5982.1	
665.25	6492.7	
665.43	5734.3	
665.62	5806	
665.8	6588.3	
665.99	6170.5	
666.18	5045.5	
666.36	5039.4	
666.55	6739.2	
666.74	6604.7	
666.92	4683	
667.11	5931.6	
667.29	6267.5	
667.48	6555.5	
667.67	5643.5	
667.85	4872.8	
668.04	6239.5	
668.22	6244.3	
668.41	5104.2	
668.6	5203.9	
668.78	6051.1	
668.97	6232	
669.15	5265.3	
669.34	4511.7	
669.53	6094.8	
669.71	6373.3	
669.9	4743.1	
670.08	5114.5	
670.27	6115.2	
670.46	6571.2	
670.64	5321.3	
670.83	5480.4	
671.01	5996.5	
671.2	6361.7	
671.38	4711.7	
671.57	4607.9	
671.76	7004.7	
671.94	7307.8	
672.13	4539	
672.31	5354.1	
672.5	6675.7	
672.69	6073.6	
672.87	4676.9	
673.06	4925.4	
673.24	6548	
673.43	6106.4	
673.61	5151.3	
673.8	4839.4	
673.98	6543.3	
674.17	6670.2	
674.36	5336.3	
674.54	5272.8	
674.73	6343.9	
674.91	6580.8	
675.1	5001.1	
675.28	4717.2	
675.47	6193.7	
675.65	6685.9	
675.84	4912.4	
676.03	5210.7	
676.21	6169.2	
676.4	5615.5	
676.58	5520.6	
676.77	5340.4	
676.95	7212.9	
677.14	6127.5	
677.32	4659.8	
677.51	4519.9	
677.69	6704.4	
677.88	5831.2	
678.06	4567	
678.25	4661.2	
678.44	6251.1	
678.62	6036.7	
678.81	4487.8	
678.99	5144.5	
679.18	6878.4	
679.36	6556.2	
679.55	4879.6	
679.73	5345.2	
679.92	6509.8	
680.1	6085.2	
680.29	5785.5	
680.47	4803.9	
680.66	6076.3	
680.84	6660	
681.03	4378.6	
681.21	5229.1	
681.4	6130.3	
681.58	5984.2	
681.77	4712.4	
681.95	4645.5	
682.14	6662.7	
682.32	6920.8	
682.51	5412.1	
682.69	4504.8	
682.88	6038.8	
683.06	6380.8	
683.25	5154.1	
683.43	5434.6	
683.62	6299.6	
683.8	6545.3	
683.99	5538.4	
684.17	4969.1	
684.36	7188.4	
684.54	6176	
684.73	4416.1	
684.91	4552.6	
685.1	6330.3	
685.28	5856.5	
685.46	4964.3	
685.65	4928.1	
685.83	6470.9	
686.02	6048.3	
686.2	4630.5	
686.39	4653	
686.57	5730.9	
686.76	6957.6	
686.94	4592.2	
687.13	4718.5	
687.31	6371.2	
687.5	6150.7	
687.68	4284.4	
687.86	5134.3	
688.05	7292.1	
688.23	5767.1	
688.42	5240.8	
688.6	4650.3	
688.79	5926.8	
688.97	5966.4	
689.16	4980	
689.34	4141.7	
689.52	6508.4	
689.71	6797.2	
689.89	5147.9	
690.08	4614.1	
690.26	6252.4	
690.45	6100.9	
690.63	5273.5	
690.81	4746.5	
691	6102.3	
691.18	5917.3	
691.37	4896.7	
691.55	6467.5	
691.74	5898.2	
691.92	7393.8	
692.1	4881.7	
692.29	4488.5	
692.47	6081.1	
692.66	5575.9	
692.84	4571.7	
693.02	5003.9	
693.21	5638.7	
693.39	6109.1	
693.58	5137.7	
693.76	4609.3	
693.94	6946.7	
694.13	6789.7	
694.31	4629.8	
694.5	5466	
694.68	5910.4	
694.86	6175.3	
695.05	4949.9	
695.23	5012.7	
695.42	6467.5	
695.6	8097	
695.78	5371.1	
695.97	4681	
696.15	6530.3	
696.34	6019.7	
696.52	4547.2	
696.7	5107.6	
696.89	6292.7	
697.07	5894.7	
697.25	5020.3	
697.44	6063.4	
697.62	6277	
697.81	6430.6	
697.99	4861.2	
698.17	5203.9	
698.36	5789.6	
698.54	6354.8	
698.72	5051.7	
698.91	4335.5	
699.09	5973.9	
699.28	5826.5	
699.46	4898.7	
699.64	4704.9	
699.83	5867.4	
700.01	6673.6	
700.19	5378	
700.38	4158.1	
700.56	6701	
700.74	5943.2	
700.93	4457.7	
701.11	5070.8	
701.29	6387.6	
701.48	7088.7	
701.66	4589.5	
701.84	4714.4	
702.03	6119.3	
702.21	6573.3	
702.39	4314.4	
702.58	4849.6	
702.76	6383.5	
702.94	6375.3	
703.13	4315.1	
703.31	6068.8	
703.49	5916.6	
703.68	6587.6	
703.86	4541.7	
704.04	5236	
704.23	6186.2	
704.41	6489.3	
704.59	4610	
704.78	5489.2	
704.96	7363.8	
705.14	6489.3	
705.33	4399.7	
705.51	5083.7	
705.69	6075.6	
705.87	6647	
706.06	5202.5	
706.24	4440	
706.42	6243.6	
706.61	6489.3	
706.79	5370.5	
706.97	4407.2	
707.16	5829.9	
707.34	6307.7	
707.52	5163.6	
707.7	4636.6	
707.89	5954.1	
708.07	5694.7	
708.25	5233.2	
708.44	5388.2	
708.62	5878.4	
708.8	6766.5	
708.98	5458.5	
709.17	4685.1	
709.35	6199.9	
709.53	6228.6	
709.72	4486.4	
709.9	4831.2	
710.08	6464.8	
710.26	6473.6	
710.45	5664	
710.63	4667.3	
710.81	6155.5	
710.99	6145.3	
711.18	5087.2	
711.36	4708.3	
711.54	6021	
711.72	6559	
711.91	4810.7	
712.09	4405.9	
712.27	6180.8	
712.45	6899.6	
712.64	5027.8	
712.82	4224.3	
713	5808.7	
713.18	5911.8	
713.37	4323.9	
713.55	5236	
713.73	6566.5	
713.91	5494	
714.1	4571.1	
714.28	4205.8	
714.46	6291.4	
714.64	5595.7	
714.83	3775.1	
715.01	4422.9	
715.19	5704.3	
715.37	5221	
715.55	4225	
715.74	4380.6	
715.92	6311.2	
716.1	4832.5	
716.28	5160.9	
716.47	4456.4	
716.65	5438.7	
716.83	5407.3	
717.01	4338.3	
717.19	4373.8	
717.38	7034.1	
717.56	5188.9	
717.74	4533.5	
717.92	3900.7	
718.1	6163	
718.29	5504.3	
718.47	3678.2	
718.65	4111	
718.83	6023.8	
719.01	5993.7	
719.2	3561.4	
719.38	4377.2	
719.56	5797.1	
719.74	6963.1	
719.92	4111	
720.11	4935.6	
720.29	5898.8	
720.47	5155.4	
720.65	3739.6	
720.83	4375.8	
721.02	5429.8	
721.2	5253.7	
721.38	4491.9	
721.56	3917.8	
721.74	4910.3	
721.92	5022.3	
722.11	4787.5	
722.29	4597	
722.47	5943.2	
722.65	5337.7	
722.83	3859.7	
723.01	4426.3	
723.2	5474.9	
723.38	5683.8	
723.56	3464.5	
723.74	4309.6	
723.92	5116.5	
724.1	5900.9	
724.29	3827	
724.47	4631.1	
724.65	5138.4	
724.83	4975.9	
725.01	3743	
725.19	4414.7	
725.37	5098.8	
725.56	5085.8	
725.74	3663.8	
725.92	3853.6	
726.1	5098.8	
726.28	5300.1	
726.46	4173.1	
726.64	3932.8	
726.83	5314.5	
727.01	5440.8	
727.19	3629	
727.37	4247.5	
727.55	5412.8	
727.73	5749.3	
727.91	3635.1	
728.09	3536.8	
728.28	5751.4	
728.46	5991	
728.64	4334.2	
728.82	4263.9	
729	6472.9	
729.18	5965.1	
729.36	3734.1	
729.54	5384.8	
729.72	6649.8	
729.91	5433.9	
730.09	5142.4	
730.27	4206.5	
730.45	5385.5	
730.63	5884.5	
730.81	4601.1	
730.99	3948.5	
731.17	6331.6	
731.35	5169.8	
731.53	4375.1	
731.71	4100	
731.9	6063.4	
732.08	6118	
732.26	4302.1	
732.44	3962.1	
732.62	6160.3	
732.8	5814.2	
732.98	4594.3	
733.16	3870	
733.34	5873.6	
733.52	4873.5	
733.7	4201.1	
733.88	4433.9	
734.07	5641.5	
734.25	5541.1	
734.43	3855.6	
734.61	4957.4	
734.79	6568.5	
734.97	5433.3	
735.15	3923.2	
735.33	4169	
735.51	5746.6	
735.69	5428.5	
735.87	5231.2	
736.05	4360.8	
736.23	5652.4	
736.41	5318.6	
736.59	4194.2	
736.77	4273.4	
736.95	5892.7	
737.13	5373.9	
737.32	3930.7	
737.5	4104.1	
737.68	6288.6	
737.86	5311.1	
738.04	3822.2	
738.22	5143.1	
738.4	5296	
738.58	5533.6	
738.76	4332.1	
738.94	3519.8	
739.12	5341.8	
739.3	5239.4	
739.48	4721.3	
739.66	4507.6	
739.84	5518.6	
740.02	5520.6	
740.2	3582.6	
740.38	3844.7	
740.56	5825.8	
740.74	4894.6	
740.92	4315.8	
741.1	4276.2	
741.28	5405.3	
741.46	5212.1	
741.64	3981.3	
741.82	4405.9	
742	5465.3	
742.18	5345.9	
742.36	4099.4	
742.54	3876.8	
742.72	5862	
742.9	4855.7	
743.08	4423.6	
743.26	3530	
743.44	5986.9	
743.62	5840.8	
743.8	4514.4	
743.98	3824.2	
744.16	5599.1	
744.34	5347.2	
744.52	4465.3	
744.7	4446.1	
744.88	5717.2	
745.06	5370.5	
745.24	4492.6	
745.42	4555.4	
745.6	5840.8	
745.78	5616.9	
745.96	3606.5	
746.14	3830.4	
746.32	6298.9	
746.5	5719.3	
746.68	4260.5	
746.86	3854.3	
747.03	6040.1	
747.21	4869.4	
747.39	4265.9	
747.57	3841.3	
747.75	5537.7	
747.93	5747.3	
748.11	3831.7	
748.29	3766.9	
748.47	6700.3	
748.65	5262.6	
748.83	4362.9	
749.01	4192.2	
749.19	5603.9	
749.37	4960.9	
749.55	4103.4	
749.73	4134.8	
749.91	5505.6	
750.09	5218.9	
750.26	4148.5	
750.44	3686.3	
750.62	5429.8	
750.8	5385.5	
750.98	3653.6	
751.16	3889.8	
751.34	5486.5	
751.52	4986.8	
751.7	4450.2	
751.88	3571.7	
752.06	5859.2	
752.24	5640.1	
752.42	3577.8	
752.59	3849.5	
752.77	5380.7	
752.95	6292	
753.13	4441.4	
753.31	3886.4	
753.49	5145.9	
753.67	5460.6	
753.85	4133.5	
754.03	3822.9	
754.21	5720	
754.38	5920	
754.56	3942.3	
754.74	3227.6	
754.92	5089.2	
755.1	5610.1	
755.28	3322.5	
755.46	3312.2	
755.64	6212.2	
755.82	6315.9	
755.99	3574.4	
756.17	3627.6	
756.35	4369	
756.53	5515.9	
756.71	2775	
756.89	3426.3	
757.07	5170.4	
757.25	4516.5	
757.42	3814.7	
757.6	4435.9	
757.78	5287.9	
757.96	4554	
758.14	3616.7	
758.32	3241.3	
758.5	4162.2	
758.67	4829.1	
758.85	3459	
759.03	3594.9	
759.21	4974.5	
759.39	4569.7	
759.57	3155.2	
759.75	4008.6	
759.92	5458.5	
760.1	5019.6	
760.28	4246.8	
760.46	4414.1	
760.64	4777.2	
760.82	4609.3	
760.99	4128	
761.17	3482.2	
761.35	5356.8	
761.53	4559.5	
761.71	3548.4	
761.89	4132.8	
762.06	5287.9	
762.24	4819.6	
762.42	3718.4	
762.6	3505.4	
762.78	4874.8	
762.96	5307.7	
763.13	4008.6	
763.31	3677.5	
763.49	5430.5	
763.67	4851.6	
763.85	4339	
764.02	4721.3	
764.2	5640.1	
764.38	5036	
764.56	3585.3	
764.74	4332.8	
764.91	5798.5	
765.09	4859.1	
765.27	3435.1	
765.45	3260.4	
765.63	5879	
765.8	5627.8	
765.98	3099.3	
766.16	3319.1	
766.34	4612.7	
766.52	4475.5	
766.69	4062.5	
766.87	3181.2	
767.05	4947.2	
767.23	5414.1	
767.41	3484.3	
767.58	3645.4	
767.76	5334.3	
767.94	5429.2	
768.12	3546.4	
768.29	4035.2	
768.47	4965	
768.65	5473.5	
768.83	3203	
769	4022.2	
769.18	4685.8	
769.36	5151.3	
769.54	4050.2	
769.72	3242.6	
769.89	5479	
770.07	5483.8	
770.25	3486.3	
770.43	4508.9	
770.6	6015.6	
770.78	6237.4	
770.96	3613.3	
771.14	4138.3	
771.31	5378.6	
771.49	4831.8	
771.67	2983.9	
771.85	3213.3	
772.02	4277.5	
772.2	4853.7	
772.38	3779.2	
772.55	3347.7	
772.73	5112.4	
772.91	4882.4	
773.09	3657	
773.26	3708.2	
773.44	5055.1	
773.62	4749.2	
773.8	3308.8	
773.97	3081.5	
774.15	5060.5	
774.33	4789.5	
774.5	3280.2	
774.68	3486.3	
774.86	5193	
775.04	4833.9	
775.21	3279.5	
775.39	3245.3	
775.57	5029.8	
775.74	5336.3	
775.92	3153.9	
776.1	3058.3	
776.27	5010.7	
776.45	5872.9	
776.63	3310.2	
776.81	2942.9	
776.98	4721.3	
777.16	5497.4	
777.34	3345.7	
777.51	3594.9	
777.69	4759.5	
777.87	4520.5	
778.04	3495.2	
778.22	3839.9	
778.4	4627	
778.57	5055.1	
778.75	2853.5	
778.93	3091.1	
779.1	4468.7	
779.28	4342.4	
779.46	2906.8	
779.64	3209.8	
779.81	5289.2	
779.99	5797.1	
780.17	3836.5	
780.34	3906.8	
780.52	4798.4	
780.69	4883	
780.87	3533.4	
781.05	3182.5	
781.22	4913.1	
781.4	4877.6	
781.58	3269.2	
781.75	2668.5	
781.93	4878.3	
782.11	4380.6	
782.28	3917.8	
782.46	3273.3	
782.64	4305.5	
782.81	4965.6	
782.99	3378.5	
783.17	3286.3	
783.34	4873.5	
783.52	4367	
783.69	3447.4	
783.87	4083	
784.05	4471.4	
784.22	4407.9	
784.4	4094.6	
784.58	3534.1	
784.75	5190.9	
784.93	4492.6	
785.1	3284.3	
785.28	3773.7	
785.46	4939.7	
785.63	4365.6	
785.81	3273.3	
785.99	3124.5	
786.16	4594.3	
786.34	4837.3	
786.51	3174.4	
786.69	3497.2	
786.87	4198.3	
787.04	4577.9	
787.22	3093.8	
787.39	3766.2	
787.57	4415.4	
787.75	5225.1	
787.92	3947.1	
788.1	3858.4	
788.27	4433.9	
788.45	4200.4	
788.63	3648.1	
788.8	2696.5	
788.98	4755.4	
789.15	4160.8	
789.33	2836.4	
789.5	3287.7	
789.68	5100.1	
789.86	5139.7	
790.03	3621.5	
790.21	3170.3	
790.38	5210	
790.56	4507.6	
790.73	3083.6	
790.91	3090.4	
791.09	4440.7	
791.26	4999.8	
791.44	3327.9	
791.61	2909.5	
791.79	4447.5	
791.96	4433.2	
792.14	2945	
792.32	2620.7	
792.49	4453.6	
792.67	4582	
792.84	3044.6	
793.02	2834.4	
793.19	5041.4	
793.37	5274.9	
793.54	2630.3	
793.72	2951.8	
793.89	5347.2	
794.07	4366.3	
794.25	3283.6	
794.42	2713.6	
794.6	5186.1	
794.77	4853.7	
794.95	3562.1	
795.12	3151.8	
795.3	4494.6	
795.47	4861.9	
795.65	3440.6	
795.82	3300.6	
796	4326.7	
796.17	5668.8	
796.35	3266.5	
796.52	3716.4	
796.7	4855.7	
796.87	4889.9	
797.05	3217.4	
797.22	3823.6	
797.4	4925.4	
797.57	5593.7	
797.75	3291.1	
797.92	3163.4	
798.1	5167.7	
798.27	4369.7	
798.45	2729.3	
798.62	2968.2	
798.8	4665.3	
798.97	5016.8	
799.15	3460.4	
799.32	3340.9	
799.5	4098	
799.67	4623.6	
799.85	3562.1	
800.02	2683.5	
800.2	4386.7	
800.37	4617.5	
800.55	3688.4	
800.72	3136.1	
800.9	5003.9	
801.07	5362.3	
801.25	4039.3	
801.42	3469.9	
801.6	5049.6	
801.77	4772.4	
801.95	3210.5	
802.12	3075.4	
802.29	4799.1	
802.47	4769	
802.64	3447.4	
802.82	2621.4	
802.99	4412.7	
803.17	5068.7	
803.34	3352.5	
803.52	3072	
803.69	5615.5	
803.87	4216.1	
804.04	3343.7	
804.21	3313.6	
804.39	5225.1	
804.56	4491.9	
804.74	2889	
804.91	3452.9	
805.09	4424.3	
805.26	4476.9	
805.44	2927.9	
805.61	3180.5	
805.78	4968.4	
805.96	4932.9	
806.13	3380.5	
806.31	3629	
806.48	4070	
806.66	4470	
806.83	3422.8	
807	3340.2	
807.18	4399.7	
807.35	4681	
807.53	3327.9	
807.7	2758.6	
807.87	5312.4	
808.05	4418.8	
808.22	3588.7	
808.4	2734.7	
808.57	4409.3	
808.74	4139.6	
808.92	3108.8	
809.09	3885.7	
809.27	4418.2	
809.44	4839.4	
809.61	2766.8	
809.79	3022.1	
809.96	5365	
810.14	4973.2	
810.31	2743.6	
810.48	3228.3	
810.66	4498.7	
810.83	4996.4	
811.01	3117.7	
811.18	3400.3	
811.35	5048.9	
811.53	3961.5	
811.7	3679.5	
811.87	3422.8	
812.05	4532.2	
812.22	4388.8	
812.39	2953.9	
812.57	2912.2	
812.74	4481	
812.92	5644.9	
813.09	3273.3	
813.26	3439.9	
813.44	5526.1	
813.61	4329.4	
813.78	2790	
813.96	3543	
814.13	4508.3	
814.3	4242.7	
814.48	3836.5	
814.65	3158	
814.82	5296	
815	4242.7	
815.17	3269.2	
815.34	4002.4	
815.52	4364.2	
815.69	4352.6	
815.87	3276.1	
816.04	3227.6	
816.21	4405.9	
816.38	3994.9	
816.56	3213.3	
816.73	3001	
816.9	5513.1	
817.08	5026.4	
817.25	3083.6	
817.42	3670.6	
817.6	4085.7	
817.77	4401.1	
817.94	3358.7	
818.12	2956.6	
818.29	4237.2	
818.46	6167.8	
818.64	3121.1	
818.81	2885.6	
818.98	4239.3	
819.16	5784.8	
819.33	3500.7	
819.5	3339.6	
819.67	4716.5	
819.85	5233.9	
820.02	3258.3	
820.19	3419.4	
820.37	4546.5	
820.54	4375.1	
820.71	3368.9	
820.88	4081.6	
821.06	4590.2	
821.23	4274.8	
821.4	3401	
821.58	3319.1	
821.75	4919.9	
821.92	4562.2	
822.09	2753.8	
822.27	2882.9	
822.44	4447.5	
822.61	4354.7	
822.79	2777	
822.96	5096	
823.13	4759.5	
823.3	4144.4	
823.48	3169.6	
823.65	2869.2	
823.82	4992.3	
823.99	4141.7	
824.17	3918.4	
824.34	2945	
824.51	5706.3	
824.68	4478.9	
824.86	3042.6	
825.03	3305.4	
825.2	4427.7	
825.37	5229.1	
825.55	3001.6	
825.72	3309.5	
825.89	5659.9	
826.06	5302.2	
826.24	3221.5	
826.41	3181.9	
826.58	5319.3	
826.75	4657.1	
826.92	2632.3	
827.1	2895.1	
827.27	6914.6	
827.44	5595.7	
827.61	3074	
827.79	3693.9	
827.96	4291.9	
828.13	4443.4	
828.3	3171.6	
828.47	2740.2	
828.65	4679.6	
828.82	4646.2	
828.99	4001	
829.16	3485	
829.34	4958.1	
829.51	4811.4	
829.68	3304.1	
829.85	3280.2	
830.02	5243.5	
830.2	4977.2	
830.37	2592	
830.54	3875.4	
830.71	5590.3	
830.88	4467.3	
831.05	2658.9	
831.23	3020.1	
831.4	5378	
831.57	5828.5	
831.74	3099.3	
831.91	2693.8	
832.09	4801.8	
832.26	4962.2	
832.43	3132.7	
832.6	3467.9	
832.77	4696	
832.94	5284.4	
833.12	2603	
833.29	3080.8	
833.46	4823.6	
833.63	5963.7	
833.8	3409.2	
833.97	3120.4	
834.15	4980	
834.32	4805.2	
834.49	3305.4	
834.66	3317.7	
834.83	5044.8	
835	4296	
835.17	3068.5	
835.35	3061	
835.52	4900.1	
835.69	4782.7	
835.86	3228.3	
836.03	2711.5	
836.2	4976.6	
836.37	4591.5	
836.55	3124.5	
836.72	2977.1	
836.89	4644.1	
837.06	5032.5	
837.23	3216	
837.4	3435.8	
837.57	5573.9	
837.75	6023.8	
837.92	2926.5	
838.09	3065.8	
838.26	4661.9	
838.43	5117.2	
838.6	3286.3	
838.77	2980.5	
838.94	5727.5	
839.11	5584.1	
839.29	3128.6	
839.46	2536.1	
839.63	5016.2	
839.8	4743.8	
839.97	3106.8	
840.14	3033.7	
840.31	4801.8	
840.48	5016.8	
840.65	2641.2	
840.82	2996.2	
841	4962.2	
841.17	4866	
841.34	2815.3	
841.51	2951.8	
841.68	4880.3	
841.85	4667.3	
842.02	2956.6	
842.19	2513.5	
842.36	4803.9	
842.53	4809.3	
842.7	2843.3	
842.87	3362.8	
843.05	6004.6	
843.22	4696	
843.39	2674	
843.56	2977.7	
843.73	4622.9	
843.9	4999.1	
844.07	4387.4	
844.24	3698.6	
844.41	6713.2	
844.58	4388.1	
844.75	2723.8	
844.92	2955.2	
845.09	4926.7	
845.26	4917.9	
845.43	2841.9	
845.6	2998.9	
845.77	4963.6	
845.94	4732.9	
846.12	3116.3	
846.29	3304.1	
846.46	5129.5	
846.63	4919.2	
846.8	2852.1	
846.97	3316.3	
847.14	5272.8	
847.31	4844.1	
847.48	3150.5	
847.65	3502	
847.82	5119.2	
847.99	5117.9	
848.16	3696.6	
848.33	3457	
848.5	4577.9	
848.67	5310.4	
848.84	2820.1	
849.01	2942.9	
849.18	4528.1	
849.35	4268	
849.52	3496.6	
849.69	2727.9	
849.86	5149.3	
850.03	5252.4	
850.2	2844.6	
850.37	3401.7	
850.54	5163.6	
850.71	4663.9	
850.88	3318.4	
851.05	2742.9	
851.22	4834.6	
851.39	5304.2	
851.56	2678.7	
851.73	3198.9	
851.9	4382	
852.07	5100.1	
852.24	3095.2	
852.41	2779.8	
852.58	4891.9	
852.75	4425.7	
852.92	3156.6	
853.09	2818	
853.26	4554	
853.43	5244.2	
853.6	2804.4	
853.77	2425.5	
853.94	5408.7	
854.11	4358.1	
854.28	4060.4	
854.44	3102.7	
854.61	5612.1	
854.78	5165.7	
854.95	2827.6	
855.12	3480.9	
855.29	4111	
855.46	5444.9	
855.63	2775.7	
855.8	3824.9	
855.97	4607.2	
856.14	5172.5	
856.31	3962.8	
856.48	3001	
856.65	4646.2	
856.82	4365.6	
856.99	2699.2	
857.16	3063.8	
857.33	5787.6	
857.49	4709	
857.66	3023.5	
857.83	3222.1	
858	4717.2	
858.17	4827.7	
858.34	2721.1	
858.51	2899.2	
858.68	5382.7	
858.85	5462.6	
859.02	3272.7	
859.19	3418.1	
859.36	4427	
859.52	4399	
859.69	2891	
859.86	3295.9	
860.03	4442	
860.2	5420.3	
860.37	2636.4	
860.54	2885.6	
860.71	5098.8	
860.88	5365	
861.05	3134.1	
861.21	3517	
861.38	5453.7	
861.55	4284.4	
861.72	2628.2	
861.89	3191.4	
862.06	5145.2	
862.23	5473.5	
862.4	2770.2	
862.56	2920.4	
862.73	4988.2	
862.9	4750.6	
863.07	3308.2	
863.24	2596.1	
863.41	4351.3	
863.58	4397.7	
863.75	2851.5	
863.91	3226.2	
864.08	5277.6	
864.25	5016.8	
864.42	3495.2	
864.59	3842	
864.76	5537.7	
864.93	4413.4	
865.09	2780.5	
865.26	3023.5	
865.43	5278.3	
865.6	5565	
865.77	2521	
865.94	2824.1	
866.1	5271.5	
866.27	5010.7	
866.44	4098	
866.61	2662.4	
866.78	4674.1	
866.95	4999.1	
867.11	2759.3	
867.28	2568.8	
867.45	5223.7	
867.62	4406.5	
867.79	3208.5	
867.96	2785.9	
868.12	4422.2	
868.29	5124	
868.46	2796.2	
868.63	3704.8	
868.8	5196.4	
868.97	5049.6	
869.13	2933.4	
869.3	2965.5	
869.47	4913.8	
869.64	5128.1	
869.81	2846	
869.97	2834.4	
870.14	4876.9	
870.31	5347.2	
870.48	2775	
870.65	3508.2	
870.81	4689.2	
870.98	4711	
871.15	3150.5	
871.32	2923.8	
871.48	4956.8	
871.65	5418.9	
871.82	2784.6	
871.99	3080.1	
872.16	5767.1	
872.32	5215.5	
872.49	2880.8	
872.66	2847.4	
872.83	5073.5	
872.99	4534.9	
873.16	3229.6	
873.33	2755.9	
873.5	4743.1	
873.67	4810.7	
873.83	2946.3	
874	3696.6	
874.17	4907.6	
874.34	5599.1	
874.5	3618.1	
874.67	3489.7	
874.84	5309.7	
875.01	4291.2	
875.17	3875.4	
875.34	2812.5	
875.51	4837.3	
875.68	5783.5	
875.84	3404.4	
876.01	4003.8	
876.18	5079.6	
876.34	5018.9	
876.51	2867.8	
876.68	2734.7	
876.85	4728.1	
877.01	5340.4	
877.18	3952.6	
877.35	2753.8	
877.52	4870.8	
877.68	4416.8	
877.85	2796.8	
878.02	2794.1	
878.18	4675.5	
878.35	4519.2	
878.52	2354.5	
878.69	3145.7	
878.85	5147.2	
879.02	5001.8	
879.19	3932.1	
879.35	3059	
879.52	5068.7	
879.69	5184.8	
879.86	2480.8	
880.02	3134.1	
880.19	4764.9	
880.36	5668.1	
880.52	3159.3	
880.69	3304.7	
880.86	5156.1	
881.02	5156.1	
881.19	3067.2	
881.36	3059.7	
881.52	5087.8	
881.69	4500.1	
881.86	3089.7	
882.02	2923.8	
882.19	5244.8	
882.36	5996.5	
882.52	2903.3	
882.69	3873.4	
882.86	4869.4	
883.02	4835.9	
883.19	3328.6	
883.36	3214.6	
883.52	5164.3	
883.69	5721.3	
883.86	2909.5	
884.02	2574.3	
884.19	5072.8	
884.36	4773.8	
884.52	3145.7	
884.69	3005.7	
884.86	4614.1	
885.02	5440.8	
885.19	3117.7	
885.36	3200.3	
885.52	4689.2	
885.69	4944.5	
885.86	3977.8	
886.02	3491.1	
886.19	5164.3	
886.35	4672.8	
886.52	3133.4	
886.69	3866.6	
886.85	4446.1	
887.02	5335	
887.19	5335	
887.35	5335	
887.52	5335	
887.68	5335	
887.85	5335	
888.02	5335	
888.18	5335	
888.35	5335	
888.51	5335	
888.68	5335	
888.85	5335	
889.01	5335	
889.18	5335	
889.35	5335	
889.51	5335	
889.68	5335	
889.84	5335	
890.01	5335	
890.17	5335	
890.34	5335	
890.51	5335	
890.67	5335	
890.84	5335	
891	5335	
891.17	5335	
891.34	5335	
891.5	5335	
891.67	5335	
891.83	5335	
892	5335	
892.16	5335	
892.33	5335	
892.5	5335	
892.66	5335	
892.83	5335	
892.99	5335	
893.16	5335	
893.32	5335	
893.49	5335	
893.65	5335	
893.82	5335	
893.99	5335	
894.15	5335	
894.32	5335	
894.48	5335	
894.65	5335	
894.81	5335	
894.98	5335	
895.14	5335	
895.31	5335	
895.47	5335	
895.64	5335	
895.81	5335	
895.97	5335	
896.14	5335	
896.3	5335	
896.47	5335	
896.63	5335	
896.8	5335	
896.96	5335	
897.13	5335	
897.29	5335	
897.46	5335	
897.62	5335	
897.79	5335	
897.95	5335	
898.12	5335	
898.28	5335	
898.45	5335	
898.61	5335	
898.78	5335	
898.94	5335	
899.11	5335	
899.27	5335	
899.44	5335	
899.6	5335	
899.77	5335	
899.93	5335	
900.1	5335	
900.26	5335	
900.43	5335	
900.59	5335	
900.76	5335	
900.92	5335	
901.09	5335	
901.25	5335	
901.42	5335	
901.58	5335	
901.75	5335	
901.91	5335	
902.07	5335	
902.24	5335	
902.4	5335	
902.57	5335	
902.73	5335	
902.9	5335	
903.06	5335	
903.23	5335	
903.39	5335	
903.56	5335	
903.72	5335	
903.88	5335	
904.05	5335	
904.21	5335	
904.38	5335	
904.54	5335	
904.71	5335	
904.87	5335	
905.03	5335	
905.2	5335	
905.36	5335	
905.53	5335	
905.69	5335	
905.86	5335	
906.02	5335	
906.18	5335	
906.35	5335	
906.51	5335	
906.68	5335	
906.84	5335	
907.01	5335	
907.17	5335	
907.33	5335	
907.5	5335	
907.66	5335	
907.83	5335	
907.99	5335	
908.15	5335	
908.32	5335	
908.48	5335	
908.65	5335	
908.81	5335	
908.97	5335	
909.14	5335	
909.3	5335	
909.47	5335	
909.63	5335	
909.79	5335	
909.96	5335	
910.12	5335	
910.28	5335	
910.45	5335	
910.61	5335	
910.78	5335	
910.94	5335	
911.1	5335	
911.27	5335	
911.43	5335	
911.59	5335	
911.76	5335	
911.92	5335	
912.08	5335	
912.25	5335	
912.41	5335	
912.57	5335	
912.74	5335	
912.9	5335	
913.07	5335	
913.23	5335	
913.39	5335	
913.56	5335	
913.72	5335	
913.88	5335	
914.05	5335	
914.21	5335	
914.37	5335	
914.54	5335	
914.7	5335	
914.86	5335	
915.03	5335	
915.19	5335	
