Wavelength	Intensities	
nm	a.u.	
179.22	1915.4	
179.44	1920	
179.65	1910.8	
179.86	1929.2	
180.08	1923.7	
180.29	5015.5	
180.51	3554.6	
180.72	5658.5	
180.94	6718	
181.15	3336.1	
181.37	3203.7	
181.58	5580	
181.79	5928.2	
182.01	3396.2	
182.22	3719.8	
182.44	5885.2	
182.65	4869.4	
182.87	4642.7	
183.08	4080.2	
183.29	6203.3	
183.51	5072.1	
183.72	3720.5	
183.94	5485.8	
184.15	5446.9	
184.37	5491.3	
184.58	3263.8	
184.79	4592.9	
185.01	4992.9	
185.22	5815.5	
185.44	4847.5	
185.65	4014.7	
185.86	5346.6	
186.08	4949.3	
186.29	3208.5	
186.51	3416.7	
186.72	5152.7	
186.94	6044.9	
187.15	3994.2	
187.36	4126.7	
187.58	7949.5	
187.79	5613.5	
188.01	4296.6	
188.22	6756.2	
188.43	6715.3	
188.65	5801.9	
188.86	3426.3	
189.08	4126.7	
189.29	5256.5	
189.5	5331.5	
189.72	3865.9	
189.93	3924.6	
190.15	6113.2	
190.36	7281.9	
190.57	4257.7	
190.79	4072.7	
191	6185.5	
191.22	6133.7	
191.43	4178.5	
191.64	3408.5	
191.86	6378.7	
192.07	6101.6	
192.29	3646.1	
192.5	3850.2	
192.71	6095.4	
192.93	5218.2	
193.14	3776.5	
193.35	3858.4	
193.57	5270.1	
193.78	5971.9	
194	3078.1	
194.21	3719.1	
194.42	5048.9	
194.64	5547.9	
194.85	4146.5	
195.07	4838.7	
195.28	5563	
195.49	4782	
195.71	5101.5	
195.92	3542.3	
196.13	5677.7	
196.35	5790.3	
196.56	5481.7	
196.78	4115.1	
196.99	7243	
197.2	6714.6	
197.42	4674.8	
197.63	4107.5	
197.84	4927.4	
198.06	5738.4	
198.27	3745.1	
198.48	5161.6	
198.7	5200.5	
198.91	5360.2	
199.13	4141	
199.34	4121.2	
199.55	5914.5	
199.77	4777.9	
199.98	3685.7	
200.19	4225	
200.41	5392.3	
200.62	5102.2	
200.83	4348.5	
201.05	4638	
201.26	5360.2	
201.47	5098.1	
201.69	3659	
201.9	3553.2	
202.11	5473.5	
202.33	6490.7	
202.54	3928	
202.76	4462.5	
202.97	5673.6	
203.18	5552.7	
203.4	4338.3	
203.61	4218.8	
203.82	5520.6	
204.04	5102.9	
204.25	4186.7	
204.46	4142.4	
204.68	5464.7	
204.89	5694	
205.1	4075.5	
205.32	3518.4	
205.53	5931.6	
205.74	6072.9	
205.96	3020.1	
206.17	4278.9	
206.38	5860.6	
206.6	6064.7	
206.81	4810.7	
207.02	3895.9	
207.24	5727.5	
207.45	6199.2	
207.66	3974.4	
207.88	3344.3	
208.09	5724.8	
208.3	5506.3	
208.52	3649.5	
208.73	4080.2	
208.94	5461.2	
209.15	6244.9	
209.37	3938.2	
209.58	4122.6	
209.79	6008.1	
210.01	5339.1	
210.22	3183.2	
210.43	3302.7	
210.65	5476.3	
210.86	5977.3	
211.07	3975.8	
211.29	3607.8	
211.5	5859.9	
211.71	5443.5	
211.93	3625.6	
212.14	3669.3	
212.35	5358.9	
212.56	5671.5	
212.78	4169.7	
212.99	3504.1	
213.2	6533.7	
213.42	5302.9	
213.63	3717.7	
213.84	4012	
214.06	4858.5	
214.27	4963.6	
214.48	3988.8	
214.69	4244.1	
214.91	6238.8	
215.12	6330.3	
215.33	4291.9	
215.55	4704.9	
215.76	6829.3	
215.97	5907.7	
216.18	4101.4	
216.4	3985.3	
216.61	5156.1	
216.82	6054.5	
217.04	3631.7	
217.25	3807.2	
217.46	6228.6	
217.67	5862	
217.89	3301.3	
218.1	3411.9	
218.31	5629.2	
218.53	5686.5	
218.74	3824.9	
218.95	3717.1	
219.16	5451	
219.38	6452.5	
219.59	3747.8	
219.8	4514.4	
220.01	7139.2	
220.23	5504.9	
220.44	4945.2	
220.65	3642	
220.87	5567.1	
221.08	6161	
221.29	3341.6	
221.5	4483.7	
221.72	7517.4	
221.93	5216.9	
222.14	4209.9	
222.35	4940.4	
222.57	5514.5	
222.78	5886.5	
222.99	3945.1	
223.2	4264.6	
223.42	5774.6	
223.63	5976	
223.84	3105.4	
224.05	3052.2	
224.27	7098.3	
224.48	6481.8	
224.69	4947.2	
224.9	4179.2	
225.12	5687.2	
225.33	5459.9	
225.54	3339.6	
225.75	3753.2	
225.97	5025.7	
226.18	5395.7	
226.39	4010.6	
226.6	3751.2	
226.82	5272.2	
227.03	5128.8	
227.24	4121.9	
227.45	3434.4	
227.67	5906.3	
227.88	6462.7	
228.09	4716.5	
228.3	4783.4	
228.52	5978	
228.73	5483.1	
228.94	3849.5	
229.15	3387.3	
229.36	5405.3	
229.58	5283.1	
229.79	3897.3	
230	4547.2	
230.21	6563.1	
230.43	5608	
230.64	4203.1	
230.85	4319.2	
231.06	5948.7	
231.28	5916.6	
231.49	3434.4	
231.7	4014.7	
231.91	5838.1	
232.12	5512.4	
232.34	3515.7	
232.55	4045.4	
232.76	6163	
232.97	5686.5	
233.18	3678.8	
233.4	4070.7	
233.61	5773.2	
233.82	5272.2	
234.03	3831.7	
234.25	3786	
234.46	7696.3	
234.67	5602.6	
234.88	4222.2	
235.09	3707.5	
235.31	5834	
235.52	5397.8	
235.73	4192.2	
235.94	3446	
236.15	5193.6	
236.37	6688.7	
236.58	3655.6	
236.79	4007.2	
237	5863.3	
237.21	5013.4	
237.43	4271.4	
237.64	3400.3	
237.85	10217	
238.06	5054.4	
238.27	4394.9	
238.48	3465.2	
238.7	5881.1	
238.91	5347.9	
239.12	4004.5	
239.33	3951.2	
239.54	5056.4	
239.76	5452.4	
239.97	3956	
240.18	4039.3	
240.39	6945.3	
240.6	5822.4	
240.82	4159.4	
241.03	3362.8	
241.24	5455.1	
241.45	6421.1	
241.66	3624.2	
241.87	4314.4	
242.09	6217.6	
242.3	6678.4	
242.51	4375.1	
242.72	3991.5	
242.93	5969.8	
243.14	5423.7	
243.36	4644.8	
243.57	5008	
243.78	6427.2	
243.99	5897.5	
244.2	4051.6	
244.41	3631.7	
244.63	5077.6	
244.84	5812.8	
245.05	4312.3	
245.26	4017.4	
245.47	5742.5	
245.68	6008.1	
245.9	5378	
246.11	4305.5	
246.32	5364.3	
246.53	5705.6	
246.74	6511.9	
246.95	3379.8	
247.16	4900.8	
247.38	5506.3	
247.59	3269.9	
247.8	4092.5	
248.01	5221.6	
248.22	5423	
248.43	3636.5	
248.64	3906.8	
248.86	4846.9	
249.07	5243.5	
249.28	3488.4	
249.49	4078.2	
249.7	6043.6	
249.91	6281.1	
250.12	3345	
250.34	3367.5	
250.55	5655.8	
250.76	5567.1	
250.97	4150.5	
251.18	4164.9	
251.39	6240.8	
251.6	5653.1	
251.81	4225	
252.03	4216.1	
252.24	5223	
252.45	6068.1	
252.66	3439.2	
252.87	4463.2	
253.08	5564.3	
253.29	7331.7	
253.5	3440.6	
253.72	4943.1	
253.93	5311.1	
254.14	6595.1	
254.35	3786.7	
254.56	3938.2	
254.77	5726.8	
254.98	5102.9	
255.19	3768.9	
255.41	4888.5	
255.62	5626.5	
255.83	6170.5	
256.04	4340.3	
256.25	4151.9	
256.46	6752.2	
256.67	5143.8	
256.88	4162.2	
257.09	4623.6	
257.31	5136.3	
257.52	5195	
257.73	5182	
257.94	3786	
258.15	5345.2	
258.36	5500.8	
258.57	4811.4	
258.78	2996.2	
258.99	6127.5	
259.2	5358.2	
259.41	3799	
259.63	3963.5	
259.84	6329.6	
260.05	6944.7	
260.26	5013.4	
260.47	3708.2	
260.68	6156.2	
260.89	5447.6	
261.1	4610.7	
261.31	3644.7	
261.52	6085.2	
261.73	6465.4	
261.95	4900.1	
262.16	4275.5	
262.37	6262.7	
262.58	6365.8	
262.79	4977.9	
263	3947.1	
263.21	5580.7	
263.42	5049.6	
263.63	3913	
263.84	3825.6	
264.05	6052.4	
264.26	6507.8	
264.47	4827.7	
264.69	4369	
264.9	6237.4	
265.11	5765.7	
265.32	3677.5	
265.53	3764.8	
265.74	5626.5	
265.95	4913.1	
266.16	4102.1	
266.37	4536.3	
266.58	5637.4	
266.79	5358.9	
267	3775.1	
267.21	3482.9	
267.42	5082.4	
267.63	5479	
267.84	3983.3	
268.06	3411.2	
268.27	5992.4	
268.48	6331.6	
268.69	3856.3	
268.9	4579.9	
269.11	6221.7	
269.32	4947.2	
269.53	3966.9	
269.74	3775.1	
269.95	5840.8	
270.16	4851.6	
270.37	3939.6	
270.58	4627.7	
270.79	5328.1	
271	6078.4	
271.21	4253.6	
271.42	4068.6	
271.63	5626.5	
271.84	5096.7	
272.05	3203.7	
272.26	3564.8	
272.47	5533.6	
272.68	5750.7	
272.89	3822.2	
273.11	4451.6	
273.32	5294	
273.53	6531	
273.74	4334.2	
273.95	4259.8	
274.16	6173.9	
274.37	5520.6	
274.58	4397.7	
274.79	3508.2	
275	5657.2	
275.21	6230.6	
275.42	5261.9	
275.63	4557.4	
275.84	5813.5	
276.05	7284.6	
276.26	4299.4	
276.47	3974.4	
276.68	5337	
276.89	6616.3	
277.1	4526	
277.31	3553.2	
277.52	5782.1	
277.73	5965.7	
277.94	3469.9	
278.15	3858.4	
278.36	5712.5	
278.57	5152	
278.78	3801	
278.99	4355.3	
279.2	5113.1	
279.41	5081.7	
279.62	5044.8	
279.83	3567.6	
280.04	6810.2	
280.25	5081	
280.46	5041.4	
280.67	3951.9	
280.88	5154.7	
281.09	6206	
281.3	4208.6	
281.51	5325.4	
281.72	6047	
281.93	6066.1	
282.14	3741	
282.35	4035.9	
282.56	6018.3	
282.77	6015.6	
282.98	3837.2	
283.19	4815.5	
283.4	7412.3	
283.61	5489.9	
283.82	3559.4	
284.03	4991.6	
284.24	5636.7	
284.45	6227.9	
284.66	4995	
284.87	4818.2	
285.08	6044.9	
285.29	6280.4	
285.5	3366.2	
285.71	3894.6	
285.92	6165.8	
286.12	6898.9	
286.33	4966.3	
286.54	3923.9	
286.75	6029.2	
286.96	5380.7	
287.17	3518.4	
287.38	4853.7	
287.59	5087.2	
287.8	5027.1	
288.01	3937.6	
288.22	4579.3	
288.43	6042.9	
288.64	5034.6	
288.85	4633.2	
289.06	4436.6	
289.27	5963.7	
289.48	6550.1	
289.69	4937.7	
289.9	4501.4	
290.11	6225.1	
290.32	5266.7	
290.53	4784.7	
290.74	4308.2	
290.94	5965.1	
291.15	6025.8	
291.36	3781.9	
291.57	4453.6	
291.78	5225.1	
291.99	4947.2	
292.2	3532.7	
292.41	4403.8	
292.62	6080.4	
292.83	5873.6	
293.04	5400.5	
293.25	3611.3	
293.46	5280.3	
293.67	6132.3	
293.88	3779.2	
294.09	3602.4	
294.29	5008.6	
294.5	5703.6	
294.71	4038.6	
294.92	3856.3	
295.13	5332.9	
295.34	6670.9	
295.55	3332	
295.76	3578.5	
295.97	5907	
296.18	6851.1	
296.39	3566.2	
296.6	3786	
296.81	5589.6	
297.01	5957.5	
297.22	3902.1	
297.43	3743	
297.64	5104.2	
297.85	5195	
298.06	3089.7	
298.27	3378.5	
298.48	5544.5	
298.69	5149.3	
298.9	4057	
299.11	3710.9	
299.31	5013.4	
299.52	5037.3	
299.73	4328.7	
299.94	4304.1	
300.15	5536.3	
300.36	5173.9	
300.57	4294.6	
300.78	4265.9	
300.99	5350.7	
301.2	5677.7	
301.4	3687.7	
301.61	4104.8	
301.82	5851.7	
302.03	5993.7	
302.24	4502.1	
302.45	3534.8	
302.66	5864.7	
302.87	6328.2	
303.08	3732.1	
303.29	5154.7	
303.49	5261.9	
303.7	5556.8	
303.91	3340.2	
304.12	4896	
304.33	4984.8	
304.54	5696.1	
304.75	3773.7	
304.96	3558	
305.16	5811.5	
305.37	6610.8	
305.58	3227.6	
305.79	3423.5	
306	5823.7	
306.21	4926	
306.42	3786	
306.63	5721.3	
306.83	5431.9	
307.04	6169.8	
307.25	4138.9	
307.46	4098.7	
307.67	4660.5	
307.88	6031.3	
308.09	3661.1	
308.29	3888.4	
308.5	5674.2	
308.71	6142.5	
308.92	4016.1	
309.13	3568.9	
309.34	5382.1	
309.55	5476.3	
309.75	4719.9	
309.96	4315.1	
310.17	5990.3	
310.38	5233.2	
310.59	4490.5	
310.8	4250.2	
311.01	6700.3	
311.21	5406	
311.42	3562.8	
311.63	3659	
311.84	5214.8	
312.05	5639.4	
312.26	4192.2	
312.46	4593.6	
312.67	5390.9	
312.88	5088.5	
313.09	3605.1	
313.3	3538.2	
313.51	6374	
313.71	6731.7	
313.92	3592.1	
314.13	3790.8	
314.34	5726.8	
314.55	5400.5	
314.76	4671.4	
314.96	4070	
315.17	5534.3	
315.38	5965.1	
315.59	3602.4	
315.8	3457.7	
316.01	6466.1	
316.21	6483.2	
316.42	3503.4	
316.63	3972.4	
316.84	5403.2	
317.05	6295.5	
317.26	4315.1	
317.46	3799.7	
317.67	5445.5	
317.88	5907.7	
318.09	4615.4	
318.3	3370.3	
318.5	5259.9	
318.71	5866.7	
318.92	5957.5	
319.13	4337.6	
319.34	6032.6	
319.54	6218.3	
319.75	3370.3	
319.96	3179.8	
320.17	5943.9	
320.38	6143.9	
320.58	3304.7	
320.79	3919.1	
321	6117.3	
321.21	6193.7	
321.42	4014	
321.62	3280.2	
321.83	5138.4	
322.04	5550.7	
322.25	3852.9	
322.46	3699.3	
322.66	5653.8	
322.87	5859.9	
323.08	4464.6	
323.29	3573	
323.5	6667.5	
323.7	5057.1	
323.91	4962.2	
324.12	4407.9	
324.33	5574.6	
324.53	5856.5	
324.74	4333.5	
324.95	4594.3	
325.16	4913.8	
325.37	5365.7	
325.57	3619.4	
325.78	3687	
325.99	5534.3	
326.2	4987.5	
326.4	5173.9	
326.61	3353.2	
326.82	5449	
327.03	5623	
327.24	5180	
327.44	4870.8	
327.65	5771.2	
327.86	4717.8	
328.07	4220.9	
328.27	3490.4	
328.48	6214.2	
328.69	5068	
328.9	5226.4	
329.1	3951.9	
329.31	5433.3	
329.52	6364.4	
329.73	3654.3	
329.93	4143.7	
330.14	5492	
330.35	5811.5	
330.56	6096.1	
330.76	4521.2	
330.97	5338.4	
331.18	5799.2	
331.39	4054.3	
331.59	3295.9	
331.8	6129.6	
332.01	6292.7	
332.22	3721.2	
332.42	4314.4	
332.63	5648.3	
332.84	5223	
333.05	4093.2	
333.25	3678.2	
333.46	5262.6	
333.67	5543.2	
333.88	3827	
334.08	4171	
334.29	7436.9	
334.5	6197.8	
334.7	3541.6	
334.91	5301.5	
335.12	5072.8	
335.33	5979.4	
335.53	4042	
335.74	6029.2	
335.95	5300.1	
336.16	5102.9	
336.36	3993.5	
336.57	4650.9	
336.78	5027.1	
336.98	6190.3	
337.19	4947.9	
337.4	3931.4	
337.61	6686.6	
337.81	5009.3	
338.02	3726.6	
338.23	4828.4	
338.43	6329.6	
338.64	5199.1	
338.85	3674.1	
339.05	4878.3	
339.26	6386.9	
339.47	4995	
339.68	3643.3	
339.88	5464	
340.09	5804.6	
340.3	6025.8	
340.5	4283.7	
340.71	3237.8	
340.92	4982.7	
341.13	6345.3	
341.33	3509.5	
341.54	4336.9	
341.75	5797.8	
341.95	5405.3	
342.16	4169	
342.37	4454.3	
342.57	5103.5	
342.78	5457.2	
342.99	4560.8	
343.19	3287	
343.4	5985.5	
343.61	5801.2	
343.81	3842.7	
344.02	3568.2	
344.23	5959.6	
344.43	6399.2	
344.64	4579.9	
344.85	4491.9	
345.06	5754.1	
345.26	6170.5	
345.47	4276.8	
345.68	4941.1	
345.88	4883.7	
346.09	6005.3	
346.3	4258.4	
346.5	3205.1	
346.71	5571.8	
346.92	5200.5	
347.12	3293.8	
347.33	4187.4	
347.54	6131.6	
347.74	6563.1	
347.95	4209.9	
348.16	3061.7	
348.36	5344.5	
348.57	5100.1	
348.78	4130.8	
348.98	4528.7	
349.19	5584.1	
349.39	5015.5	
349.6	3325.2	
349.81	3685	
350.01	5770.5	
350.22	5261.9	
350.43	4065.9	
350.63	4885.8	
350.84	5545.2	
351.05	5309.7	
351.25	3703.4	
351.46	3304.1	
351.67	6092	
351.87	5192.3	
352.08	3937.6	
352.29	4500.1	
352.49	5997.8	
352.7	5726.1	
352.9	3530	
353.11	4410	
353.32	6723.5	
353.52	5326.8	
353.73	3482.9	
353.94	4483	
354.14	5808.7	
354.35	5652.4	
354.55	3599	
354.76	4093.9	
354.97	5797.1	
355.17	5642.2	
355.38	3355.3	
355.59	4777.9	
355.79	5220.3	
356	5648.3	
356.2	4001	
356.41	3491.8	
356.62	4924	
356.82	5429.2	
357.03	4308.2	
357.24	3852.2	
357.44	5252.4	
357.65	5354.8	
357.85	5197.7	
358.06	4048.8	
358.27	4965	
358.47	5211.4	
358.68	3344.3	
358.88	4308.2	
359.09	5739.8	
359.3	6126.2	
359.5	5029.1	
359.71	4430.4	
359.91	6578.1	
360.12	5981.4	
360.33	4257.7	
360.53	4751.3	
360.74	5160.2	
360.94	5257.8	
361.15	4472.8	
361.36	3672	
361.56	5993.7	
361.77	5419.6	
361.97	4991.6	
362.18	3895.9	
362.38	6032	
362.59	5068.7	
362.8	3650.8	
363	3371.6	
363.21	4820.9	
363.41	5647.6	
363.62	4125.3	
363.83	5241.4	
364.03	5630.5	
364.24	6737.1	
364.44	5292.6	
364.65	5203.2	
364.85	5358.2	
365.06	4988.9	
365.27	3812	
365.47	3743	
365.68	6350.1	
365.88	5311.7	
366.09	4197	
366.29	3869.3	
366.5	5644.2	
366.71	6152.8	
366.91	5236.7	
367.12	4358.8	
367.32	6787	
367.53	5966.4	
367.73	4338.3	
367.94	5350	
368.14	5801.2	
368.35	6836.1	
368.56	4162.2	
368.76	3999	
368.97	5916.6	
369.17	7744.7	
369.38	3758.7	
369.58	4050.9	
369.79	4996.4	
369.99	6331	
370.2	5108.3	
370.4	4135.5	
370.61	5670.1	
370.82	6941.2	
371.02	4076.8	
371.23	3338.2	
371.43	4846.9	
371.64	6237.4	
371.84	4037.9	
372.05	5353.4	
372.25	7800	
372.46	6031.3	
372.66	4063.2	
372.87	3937.6	
373.07	6061.3	
373.28	7748.1	
373.48	5115.1	
373.69	4778.6	
373.9	5483.8	
374.1	5473.5	
374.31	5045.5	
374.51	4551.3	
374.72	6317.3	
374.92	5120.6	
375.13	5230.5	
375.33	4322.6	
375.54	5923.4	
375.74	5283.8	
375.95	4407.2	
376.15	5728.2	
376.36	5905	
376.56	5653.1	
376.77	4488.5	
376.97	4926	
377.18	7006.8	
377.38	5988.3	
377.59	5317.9	
377.79	3935.5	
378	5753.4	
378.2	6210.8	
378.41	4048.2	
378.61	3869.3	
378.82	6253.1	
379.02	5285.1	
379.23	4138.3	
379.43	5388.9	
379.64	6298.2	
379.84	5946.6	
380.05	3969	
380.25	3933.5	
380.46	5949.3	
380.66	5582.8	
380.87	5367	
381.07	5821	
381.28	6675	
381.48	5994.4	
381.69	4042.7	
381.89	3996.3	
382.1	4919.9	
382.3	6273.6	
382.51	5205.9	
382.71	6175.3	
382.91	6093.4	
383.12	6666.1	
383.32	4388.8	
383.53	4666	
383.73	5943.2	
383.94	5711.8	
384.14	4531.5	
384.35	3548.4	
384.55	5597.8	
384.76	6190.3	
384.96	4418.8	
385.17	4721.3	
385.37	6016.9	
385.58	5287.2	
385.78	4755.4	
385.98	3622.9	
386.19	5515.9	
386.39	5927.5	
386.6	4147.1	
386.8	4377.9	
387.01	6083.1	
387.21	6107	
387.42	4849.6	
387.62	5492.7	
387.83	5290.6	
388.03	6016.2	
388.23	4424.3	
388.44	5324	
388.64	4995.7	
388.85	5188.2	
389.05	4870.8	
389.26	5480.4	
389.46	7174	
389.67	6486.6	
389.87	4752.7	
390.07	4891.2	
390.28	5675.6	
390.48	5271.5	
390.69	4024.9	
390.89	4325.3	
391.1	5427.1	
391.3	6453.8	
391.5	5622.4	
391.71	6272.2	
391.91	6145.3	
392.12	7271.7	
392.32	5687.2	
392.53	4868.7	
392.73	5453.7	
392.93	5707.7	
393.14	4561.5	
393.34	5343.8	
393.55	6254.5	
393.75	5665.4	
393.95	4491.2	
394.16	4512.4	
394.36	5361.6	
394.57	6125.5	
394.77	3938.9	
394.98	4466.6	
395.18	5401.2	
395.38	5498.1	
395.59	5299.5	
395.79	4189.5	
396	5501.5	
396.2	6057.9	
396.4	5124	
396.61	4959.5	
396.81	6234	
397.02	5437.4	
397.22	5373.2	
397.42	5354.1	
397.63	6221	
397.83	5306.3	
398.04	4130.1	
398.24	4664.6	
398.44	6000.5	
398.65	4971.1	
398.85	3892.5	
399.05	4011.3	
399.26	5313.8	
399.46	7187.7	
399.67	4541	
399.87	4204.5	
400.07	5710.4	
400.28	6094.8	
400.48	4346.5	
400.69	5380	
400.89	6391	
401.09	6793.8	
401.3	4199.7	
401.5	5441.5	
401.7	7071	
401.91	7325.6	
402.11	4578.6	
402.32	4782.7	
402.52	6408.1	
402.72	6282.5	
402.93	5016.8	
403.13	3826.3	
403.33	7120.1	
403.54	5795.8	
403.74	4712.4	
403.94	5680.4	
404.15	5904.3	
404.35	7152.9	
404.56	4479.6	
404.76	6431.3	
404.96	6403.3	
405.17	6140.5	
405.37	5862	
405.57	5023.7	
405.78	6411.5	
405.98	5862.7	
406.18	4444.8	
406.39	5512.4	
406.59	6452.5	
406.79	5964.4	
407	4180.6	
407.2	4446.1	
407.4	6399.9	
407.61	6640.9	
407.81	4369.7	
408.01	6881.2	
408.22	5336.3	
408.42	7444.4	
408.62	5472.9	
408.83	4967.7	
409.03	5935.7	
409.23	5760.9	
409.44	5080.3	
409.64	5455.8	
409.84	6879.8	
410.05	6869.6	
410.25	5169.8	
410.45	4969.1	
410.66	6262.7	
410.86	8901.8	
411.06	5372.5	
411.27	5255.1	
411.47	8660.9	
411.67	6393.8	
411.88	5601.9	
412.08	5778	
412.28	7141.9	
412.49	7647.1	
412.69	5197.1	
412.89	5243.5	
413.09	7458.7	
413.3	7313.3	
413.5	5289.9	
413.7	4897.4	
413.91	6479.1	
414.11	7427.3	
414.31	5165	
414.52	5613.5	
414.72	7065.5	
414.92	6933.1	
415.12	5159.5	
415.33	5711.1	
415.53	7443	
415.73	7580.2	
415.94	6158.9	
416.14	5508.4	
416.34	6255.9	
416.55	6078.4	
416.75	6765.1	
416.95	6133.7	
417.15	7356.3	
417.36	8200.7	
417.56	7047.1	
417.76	6022.4	
417.97	7802.8	
418.17	7488.7	
418.37	5484.5	
418.57	5593	
418.78	7166.5	
418.98	6850.5	
419.18	6491.4	
419.38	6447	
419.59	6961.7	
419.79	6477.7	
419.99	5522	
420.2	5863.3	
420.4	7442.3	
420.6	7580.2	
420.8	5392.3	
421.01	5207.3	
421.21	7166.5	
421.41	7508.5	
421.61	5814.2	
421.82	5453.1	
422.02	6694.1	
422.22	7752.2	
422.42	6232.7	
422.63	5977.3	
422.83	6890	
423.03	8159.8	
423.23	5987.6	
423.44	4876.9	
423.64	6980.2	
423.84	6675.7	
424.04	5350.7	
424.25	5008.6	
424.45	7972.1	
424.65	7912.7	
424.85	4776.5	
425.06	5459.2	
425.26	7828	
425.46	6367.8	
425.66	5995.8	
425.87	5652.4	
426.07	7613.7	
426.27	7490.8	
426.47	5843.5	
426.67	5123.3	
426.88	7949.5	
427.08	7434.8	
427.28	6021.7	
427.48	5011.4	
427.69	6259.3	
427.89	6972.7	
428.09	6044.9	
428.29	5108.3	
428.5	7676.5	
428.7	7146	
428.9	5003.9	
429.1	5509	
429.3	7122.8	
429.51	7537.9	
429.71	5237.3	
429.91	6192.4	
430.11	7451.2	
430.31	7730.4	
430.52	5622.4	
430.72	5990.3	
430.92	8050.6	
431.12	7478.5	
431.32	5273.5	
431.53	5758.9	
431.73	6287.9	
431.93	8206.9	
432.13	5266	
432.33	5094.7	
432.54	6795.8	
432.74	7233.4	
432.94	5034.6	
433.14	6149.4	
433.34	7374.7	
433.55	6858	
433.75	6081.8	
433.95	7937.9	
434.15	7191.8	
434.35	6848.4	
434.56	5289.2	
434.76	4758.1	
434.96	7191.8	
435.16	7393.2	
435.36	5121.3	
435.56	6327.5	
435.77	6728.3	
435.97	6913.9	
436.17	7150.8	
436.37	6241.5	
436.57	6777.4	
436.78	6646.3	
436.98	8112.7	
437.18	6916.7	
437.38	7504.4	
437.58	7002	
437.78	7031.4	
437.99	5575.9	
438.19	7559.7	
438.39	8381	
438.59	5495.4	
438.79	4956.1	
438.99	8240.3	
439.2	6967.2	
439.4	5184.1	
439.6	5066	
439.8	7290.8	
440	8475.2	
440.2	6225.8	
440.4	6392.4	
440.61	7732.4	
440.81	8295.6	
441.01	5357.5	
441.21	6332.3	
441.41	8084	
441.61	7835.5	
441.81	6566.5	
442.02	7713.3	
442.22	8772.8	
442.42	7877.2	
442.62	5402.5	
442.82	5500.2	
443.02	8107.9	
443.22	7199.3	
443.43	5958.9	
443.63	5442.1	
443.83	7045.7	
444.03	7047.1	
444.23	6768.5	
444.43	6321.4	
444.63	7378.1	
444.83	8730.5	
445.04	5552	
445.24	6996.5	
445.44	7839.6	
445.64	7927	
445.84	6417	
446.04	6402.6	
446.24	7077.8	
446.44	8165.3	
446.65	5522.7	
446.85	5954.8	
447.05	7209.5	
447.25	8132.5	
447.45	6050.4	
447.65	5352	
447.85	7466.2	
448.05	7083.9	
448.25	6550.1	
448.46	6247.7	
448.66	7550.2	
448.86	7191.8	
449.06	5244.2	
449.26	6501.6	
449.46	7792.5	
449.66	6847.7	
449.86	6014.9	
450.06	5996.5	
450.26	6988.4	
450.47	7662.1	
450.67	6310.5	
450.87	6597.2	
451.07	7772	
451.27	7494.2	
451.47	5498.8	
451.67	6118	
451.87	7185.6	
452.07	8429.4	
452.27	5803.9	
452.47	5740.5	
452.67	7501.7	
452.88	8019.2	
453.08	5066	
453.28	7264.1	
453.48	8798.8	
453.68	7380.2	
453.88	5658.5	
454.08	5974.6	
454.28	7916.8	
454.48	7561.8	
454.68	6506.4	
454.88	7077.1	
455.08	7972.1	
455.28	7765.9	
455.48	5560.9	
455.68	6181.5	
455.89	8540	
456.09	8116.8	
456.29	5945.9	
456.49	6019	
456.69	8392.6	
456.89	7548.8	
457.09	6519.4	
457.29	6962.4	
457.49	7902.4	
457.69	8055.3	
457.89	6352.8	
458.09	5692.7	
458.29	7651.2	
458.49	8433.5	
458.69	6832	
458.89	6207.4	
459.09	8762.6	
459.29	8891.6	
459.49	6344.6	
459.69	7110.5	
459.9	8282	
460.1	7679.9	
460.3	6201.2	
460.5	6037.4	
460.7	8277.9	
460.9	7901.1	
461.1	5598.5	
461.3	7038.2	
461.5	8935.3	
461.7	8452.6	
461.9	6055.2	
462.1	6585.6	
462.3	7935.9	
462.5	8570.1	
462.7	6152.1	
462.9	6270.2	
463.1	9755.8	
463.3	9308	
463.5	6423.8	
463.7	7473	
463.9	8180.3	
464.1	8603.5	
464.3	6615.6	
464.5	6871.6	
464.7	8890.2	
464.9	8561.9	
465.1	8338.6	
465.3	7352.2	
465.5	9241.8	
465.7	9154.4	
465.9	7514	
466.1	7433.4	
466.3	8992.6	
466.5	8851.3	
466.7	8382.3	
466.9	7048.4	
467.1	8708.6	
467.3	9800.9	
467.5	8224.6	
467.7	7041.6	
467.9	9995.5	
468.1	10981	
468.3	7913.4	
468.5	8372.1	
468.7	8732.5	
468.9	8763.9	
469.1	7261.4	
469.3	8100.4	
469.5	10816	
469.7	8256.7	
469.9	7897	
470.1	7157	
470.3	8745.5	
470.5	8753.7	
470.7	8439	
470.9	7233.4	
471.1	8569.4	
471.3	8929.8	
471.5	7034.8	
471.69	8998.1	
471.89	8415.8	
472.09	7934.5	
472.29	7841.7	
472.49	8251.9	
472.69	8169.3	
472.89	9061.6	
473.09	6873.7	
473.29	7120.1	
473.49	8272.4	
473.69	8582.4	
473.89	8045.1	
474.09	7192.5	
474.29	9810.5	
474.49	9542.2	
474.69	7985.7	
474.89	7343.3	
475.09	8508.6	
475.29	8613.8	
475.49	6750.8	
475.69	6970.6	
475.88	10245	
476.08	8796.7	
476.28	6660	
476.48	7139.9	
476.68	9334.6	
476.88	9230.9	
477.08	6909.8	
477.28	7361.8	
477.48	8622.6	
477.68	9252.7	
477.88	6825.9	
478.08	7126.9	
478.28	9580.4	
478.48	8675.9	
478.67	7314	
478.87	6619.7	
479.07	9422.7	
479.27	8815.8	
479.47	7395.9	
479.67	7346.1	
479.87	9374.2	
480.07	9738.1	
480.27	6667.5	
480.47	8335.9	
480.67	8915.5	
480.87	9602.9	
481.06	6986.3	
481.26	7889.5	
481.46	8855.4	
481.66	8810.4	
481.86	7446.4	
482.06	8609	
482.26	8604.9	
482.46	9557.2	
482.66	7394.5	
482.86	6924.2	
483.05	8959.9	
483.25	8412.4	
483.45	9968.8	
483.65	7460.8	
483.85	8475.9	
484.05	8832.2	
484.25	7888.8	
484.45	8367.3	
484.65	9783.8	
484.84	9863.7	
485.04	7318.8	
485.24	7324.2	
485.44	10085	
485.64	8234.9	
485.84	6583.5	
486.04	8051.2	
486.24	8677.9	
486.44	9091.6	
486.63	6505.7	
486.83	7372.7	
487.03	8571.4	
487.23	8908.7	
487.43	6700.3	
487.63	9260.9	
487.83	8877.3	
488.02	9854.1	
488.22	7793.9	
488.42	8542.8	
488.62	9788.6	
488.82	8703.2	
489.02	7405.5	
489.22	7410.2	
489.41	9680.1	
489.61	9288.9	
489.81	7221.1	
490.01	7210.9	
490.21	9592	
490.41	10274	
490.61	7085.3	
490.8	7276.4	
491	9053.4	
491.2	8286.8	
491.4	7920.2	
491.6	6879.1	
491.8	9083.4	
491.99	9242.5	
492.19	6694.8	
492.39	7165.2	
492.59	9602.2	
492.79	9679.4	
492.99	8121.6	
493.18	7161.1	
493.38	9847.3	
493.58	10608	
493.78	7966.6	
493.98	7559.7	
494.18	9494.4	
494.37	8904.6	
494.57	8219.9	
494.77	8097.7	
494.97	9775.6	
495.17	10069	
495.37	7649.2	
495.56	8084.7	
495.76	10260	
495.96	9797.5	
496.16	8928.5	
496.36	7830.1	
496.55	10052	
496.75	9520.3	
496.95	8287.4	
497.15	8116.1	
497.35	10045	
497.54	10030	
497.74	7889.5	
497.94	9712.2	
498.14	10689	
498.34	10609	
498.53	7601.4	
498.73	8383.7	
498.93	9366	
499.13	9887.6	
499.33	8193.2	
499.52	8869.1	
499.72	10081	
499.92	10323	
500.12	7894.2	
500.32	8172.1	
500.51	10309	
500.71	10093	
500.91	9024.7	
501.11	8591.2	
501.31	10253	
501.5	10698	
501.7	9333.3	
501.9	8202.8	
502.1	10034	
502.29	10319	
502.49	8738.7	
502.69	9210.4	
502.89	10210	
503.09	10104	
503.28	7594.6	
503.48	7830.1	
503.68	9329.9	
503.88	9445.2	
504.07	8816.5	
504.27	8245.8	
504.47	9833.7	
504.67	9948.3	
504.86	8681.3	
505.06	8484.1	
505.26	9437	
505.46	11439	
505.65	8269	
505.85	8450.6	
506.05	9394.7	
506.25	9896.5	
506.44	7539.9	
506.64	8567.3	
506.84	9192.6	
507.04	10281	
507.23	7834.8	
507.43	8393.3	
507.63	11375	
507.83	9553.8	
508.02	8455.4	
508.22	8045.8	
508.42	11645	
508.62	9288.2	
508.81	8213	
509.01	8821.3	
509.21	9215.9	
509.4	9537.4	
509.6	8503.2	
509.8	7737.9	
510	9405.6	
510.19	10991	
510.39	7793.9	
510.59	7942.7	
510.79	9228.1	
510.98	10721	
511.18	7844.4	
511.38	8053.3	
511.57	10070	
511.77	10016	
511.97	8799.4	
512.17	7756.3	
512.36	10111	
512.56	10051	
512.76	7822.6	
512.95	7599.3	
513.15	10180	
513.35	8783.1	
513.55	8604.2	
513.74	7864.9	
513.94	10203	
514.14	9503.9	
514.33	8794.7	
514.53	8506.6	
514.73	9495.1	
514.92	9606.3	
515.12	7976.2	
515.32	7815	
515.51	9751.1	
515.71	10407	
515.91	9678	
516.11	7894.9	
516.3	11561	
516.5	9379.7	
516.7	8498.4	
516.89	9158.5	
517.09	9519.6	
517.29	9402.9	
517.48	8725	
517.68	8159.1	
517.88	9153.7	
518.07	9832.3	
518.27	8680.7	
518.47	7722.2	
518.66	10513	
518.86	8988.5	
519.06	7542.7	
519.25	7901.1	
519.45	9318.3	
519.65	10978	
519.84	8737.3	
520.04	9548.3	
520.24	11310	
520.43	10043	
520.63	8393.3	
520.83	8140	
521.02	9171.5	
521.22	9938.1	
521.42	8679.3	
521.61	9172.2	
521.81	9449.3	
522.01	9633.6	
522.2	8473.1	
522.4	8262.2	
522.6	10155	
522.79	8918.2	
522.99	8244.4	
523.18	7703.8	
523.38	9973.6	
523.58	9971.6	
523.77	9840.5	
523.97	7690.8	
524.17	11962	
524.36	10957	
524.56	9204.3	
524.76	8687.5	
524.95	10051	
525.15	9659.6	
525.34	8580.3	
525.54	8505.2	
525.74	10407	
525.93	9315.5	
526.13	9923.8	
526.33	8618.5	
526.52	10743	
526.72	10243	
526.91	9970.2	
527.11	9116.9	
527.31	10860	
527.5	11364	
527.7	8951.7	
527.89	7984.3	
528.09	9739.5	
528.29	10288	
528.48	9436.4	
528.68	9022.7	
528.87	10692	
529.07	10838	
529.27	8943.5	
529.46	8413.1	
529.66	10361	
529.85	10785	
530.05	8219.9	
530.25	9108.7	
530.44	11792	
530.64	10258	
530.83	8598.7	
531.03	8901.2	
531.23	10659	
531.42	10519	
531.62	9755.8	
531.81	9005.6	
532.01	10877	
532.21	11471	
532.4	8738	
532.6	9080.7	
532.79	11856	
532.99	11046	
533.18	9228.1	
533.38	10143	
533.58	10471	
533.77	11458	
533.97	9135.3	
534.16	10004	
534.36	11605	
534.55	10527	
534.75	10064	
534.95	9194	
535.14	11404	
535.34	10588	
535.53	8875.9	
535.73	11039	
535.92	12047	
536.12	10797	
536.31	8905.3	
536.51	10168	
536.71	11010	
536.9	10559	
537.1	9110	
537.29	9216.5	
537.49	11437	
537.68	10447	
537.88	9622	
538.07	8781	
538.27	10710	
538.46	11946	
538.66	8675.2	
538.86	9235.7	
539.05	10852	
539.25	11281	
539.44	9527.2	
539.64	9147.6	
539.83	10618	
540.03	11698	
540.22	8987.9	
540.42	9045.2	
540.61	10849	
540.81	11024	
541	9505.3	
541.2	10185	
541.39	10361	
541.59	10782	
541.78	9880.1	
541.98	8929.8	
542.18	10028	
542.37	10038	
542.57	9329.2	
542.76	9882.8	
542.96	9958.6	
543.15	10873	
543.35	9314.2	
543.54	8622.6	
543.74	11058	
543.93	10689	
544.13	9304.6	
544.32	10444	
544.52	10966	
544.71	10084	
544.91	8301.8	
545.1	9572.2	
545.3	10137	
545.49	10946	
545.69	8253.3	
545.88	8834.9	
546.08	11813	
546.27	11465	
546.47	9355.8	
546.66	8662.9	
546.86	11129	
547.05	11792	
547.24	8902.5	
547.44	8747.6	
547.63	9957.9	
547.83	11266	
548.02	9125.1	
548.22	9403.6	
548.41	9778.4	
548.61	11270	
548.8	8606.2	
549	8568	
549.19	10391	
549.39	10750	
549.58	8299.7	
549.78	8897.7	
549.97	10829	
550.17	10310	
550.36	9896.5	
550.55	10891	
550.75	10259	
550.94	11219	
551.14	8418.5	
551.33	8938.7	
551.53	9688.3	
551.72	10757	
551.92	8970.1	
552.11	8671.8	
552.31	10756	
552.5	10755	
552.69	10584	
552.89	8348.2	
553.08	10684	
553.28	10316	
553.47	8757.1	
553.67	9987.9	
553.86	11347	
554.06	9521.7	
554.25	7876.5	
554.44	8419.2	
554.64	12160	
554.83	11574	
555.03	8387.8	
555.22	8881.4	
555.42	10790	
555.61	10419	
555.8	8654	
556	9031.5	
556.19	9571.5	
556.39	10997	
556.58	8819.2	
556.78	8654.7	
556.97	10351	
557.16	10126	
557.36	9995.5	
557.55	8303.8	
557.75	9342.2	
557.94	11277	
558.13	8490.2	
558.33	8171.4	
558.52	11039	
558.72	9762.7	
558.91	8273.8	
559.1	8529.1	
559.3	9457.5	
559.49	9213.1	
559.69	7677.8	
559.88	8933.9	
560.07	10349	
560.27	10789	
560.46	9025.4	
560.66	9269.8	
560.85	10075	
561.04	9257.5	
561.24	8228.1	
561.43	8522.3	
561.63	9428.2	
561.82	9821.4	
562.01	9725.8	
562.21	8675.2	
562.4	10242	
562.59	11360	
562.79	8553.7	
562.98	8209.6	
563.18	10225	
563.37	11710	
563.56	9243.2	
563.76	8077.9	
563.95	9725.8	
564.14	9583.8	
564.34	8636.3	
564.53	8284	
564.73	10245	
564.92	10613	
565.11	8848.6	
565.31	8071	
565.5	10898	
565.69	9800.2	
565.89	8338.6	
566.08	8619.2	
566.27	10757	
566.47	11254	
566.66	9318.3	
566.85	7907.9	
567.05	10277	
567.24	9719	
567.44	8293.6	
567.63	9799.5	
567.82	10478	
568.02	10178	
568.21	8253.3	
568.4	8721.6	
568.6	10143	
568.79	10314	
568.98	8077.9	
569.18	8336.6	
569.37	10186	
569.56	12227	
569.76	8630.8	
569.95	9747.6	
570.14	10538	
570.34	10494	
570.53	8194.6	
570.72	8097	
570.91	11006	
571.11	10062	
571.3	8687.5	
571.49	9669.8	
571.69	10090	
571.88	9626.1	
572.07	9291	
572.27	9280.7	
572.46	9725.8	
572.65	10816	
572.85	8501.8	
573.04	8840.4	
573.23	11016	
573.43	10249	
573.62	8234.9	
573.81	8898.4	
574	10325	
574.2	10136	
574.39	8621.9	
574.58	8777.6	
574.78	11244	
574.97	10455	
575.16	9189.2	
575.36	9396.1	
575.55	10780	
575.74	11060	
575.93	8279.3	
576.13	9454.8	
576.32	10157	
576.51	10865	
576.71	8743.5	
576.9	10082	
577.09	11200	
577.28	10561	
577.48	9210.4	
577.67	8073.1	
577.86	10253	
578.05	10553	
578.25	8856.8	
578.44	8974.9	
578.63	10319	
578.83	11720	
579.02	8187.8	
579.21	9926.5	
579.4	10565	
579.6	10295	
579.79	9095.7	
579.98	11309	
580.17	10968	
580.37	11180	
580.56	8513.4	
580.75	9207.7	
580.94	11532	
581.14	11402	
581.33	9665	
581.52	8581.7	
581.71	10845	
581.91	11651	
582.1	8382.3	
582.29	8987.9	
582.48	10485	
582.68	10415	
582.87	9442.5	
583.06	9038.4	
583.25	10755	
583.45	10000	
583.64	9792.7	
583.83	10526	
584.02	10193	
584.21	10883	
584.41	9790.7	
584.6	9081.4	
584.79	10492	
584.98	11292	
585.18	8423.3	
585.37	8436.9	
585.56	9992.7	
585.75	10882	
585.94	8654	
586.14	9458.9	
586.33	11498	
586.52	10420	
586.71	9198.8	
586.91	8920.3	
587.1	9741.5	
587.29	10950	
587.48	8841.1	
587.67	8621.9	
587.87	10676	
588.06	10789	
588.25	10122	
588.44	9325.8	
588.63	10344	
588.83	11033	
589.02	8641.7	
589.21	8484.7	
589.4	9981.8	
589.59	9805.7	
589.78	7603.4	
589.98	8008.2	
590.17	9357.2	
590.36	9962.7	
590.55	7248.4	
590.74	8043.7	
590.94	11372	
591.13	9786.6	
591.32	7858.7	
591.51	7391.1	
591.7	10337	
591.89	9802.9	
592.09	7578.8	
592.28	8115.4	
592.47	9004.9	
592.66	11013	
592.85	7504.4	
593.05	7809.6	
593.24	9601.6	
593.43	10461	
593.62	7841.7	
593.81	8449.9	
594	9676.7	
594.19	9962.7	
594.39	7828	
594.58	7610.9	
594.77	10040	
594.96	10600	
595.15	7625.3	
595.34	8408.3	
595.54	10024	
595.73	9019.3	
595.92	6993.8	
596.11	8255.4	
596.3	10589	
596.49	9112.8	
596.68	8008.9	
596.88	8471.1	
597.07	10220	
597.26	9050	
597.45	7481.2	
597.64	8772.1	
597.83	9185.1	
598.02	9996.1	
598.22	7533.1	
598.41	8352.3	
598.6	9663	
598.79	9057.5	
598.98	7662.1	
599.17	8690.2	
599.36	9767.4	
599.55	10999	
599.74	9764	
599.94	9531.9	
600.13	10215	
600.32	9019.9	
600.51	7367.2	
600.7	7496.2	
600.89	10963	
601.08	11087	
601.27	7198.6	
601.47	8393.9	
601.66	10223	
601.85	10832	
602.04	7946.8	
602.23	8247.9	
602.42	9194	
602.61	9870.5	
602.8	7895.6	
602.99	7680.6	
603.18	9502.6	
603.37	9761.3	
603.57	8349.6	
603.76	8984.4	
603.95	10639	
604.14	10130	
604.33	7811.6	
604.52	8129.1	
604.71	9749	
604.9	9374.2	
605.09	8854.1	
605.28	8509.3	
605.47	10392	
605.66	10149	
605.86	8397.4	
606.05	7681.9	
606.24	10435	
606.43	8868.4	
606.62	8062.9	
606.81	8929.8	
607	10217	
607.19	9566.1	
607.38	7432.8	
607.57	7737.9	
607.76	9347.6	
607.95	8744.1	
608.14	8119.5	
608.33	8871.1	
608.52	9218.6	
608.72	10169	
608.91	7406.8	
609.1	7363.8	
609.29	9344.9	
609.48	8800.1	
609.67	8423.3	
609.86	7397.9	
610.05	8945.5	
610.24	9264.3	
610.43	7165.2	
610.62	6789.7	
610.81	10443	
611	10289	
611.19	7327.6	
611.38	8112.7	
611.57	9585.9	
611.76	11050	
611.95	7047.1	
612.14	6901.7	
612.33	9361.9	
612.52	8852.7	
612.71	7664.2	
612.9	6845.7	
613.09	8480.6	
613.28	10903	
613.47	7445.7	
613.66	8282	
613.85	9560.6	
614.04	9028.1	
614.24	7464.2	
614.43	6644.3	
614.62	9637.7	
614.81	9568.1	
615	8136.6	
615.19	8174.1	
615.38	8778.3	
615.57	9208.4	
615.76	7942	
615.95	8960.5	
616.14	9653.4	
616.33	9288.9	
616.52	8265.6	
616.71	8472.4	
616.9	9528.5	
617.09	9496.4	
617.28	7520.8	
617.47	9221.3	
617.66	8720.3	
617.85	8710.7	
618.04	8590.5	
618.22	7972.1	
618.41	9099.8	
618.6	9949.7	
618.79	7853.3	
618.98	7494.2	
619.17	10293	
619.36	8581.7	
619.55	7782.3	
619.74	7804.1	
619.93	9655.5	
620.12	9090.3	
620.31	8447.9	
620.5	8515.5	
620.69	10213	
620.88	10644	
621.07	9396.8	
621.26	8202.1	
621.45	9799.5	
621.64	9851.4	
621.83	8420.6	
622.02	7481.9	
622.21	9862.3	
622.4	9638.4	
622.59	8978.3	
622.78	8725	
622.97	9103.9	
623.16	10120	
623.35	8313.4	
623.54	7469.6	
623.72	9440.5	
623.91	9545.6	
624.1	8578.9	
624.29	7256	
624.48	10733	
624.67	9850	
624.86	8477.2	
625.05	7501	
625.24	10761	
625.43	9071.1	
625.62	10232	
625.81	7709.2	
626	10192	
626.19	9453.4	
626.38	8602.2	
626.56	7870.3	
626.75	9211.8	
626.94	10159	
627.13	8447.9	
627.32	7221.1	
627.51	9944.3	
627.7	11252	
627.89	7273.7	
628.08	8497	
628.27	9103.9	
628.46	9257.5	
628.65	7566.6	
628.83	7280.5	
629.02	9974.3	
629.21	9074.5	
629.4	8048.5	
629.59	8318.2	
629.78	9108	
629.97	10108	
630.16	8325	
630.35	7783	
630.54	10539	
630.72	10225	
630.91	7767.3	
631.1	8338.6	
631.29	9624.1	
631.48	9786.6	
631.67	8378.9	
631.86	7851.2	
632.05	9258.9	
632.24	9312.8	
632.42	7460.8	
632.61	8127.7	
632.8	9469.1	
632.99	9043.8	
633.18	8209.6	
633.37	8519.6	
633.56	9566.7	
633.75	9534	
633.93	8185	
634.12	7755	
634.31	10436	
634.5	10122	
634.69	7806.9	
634.88	8331.8	
635.07	9286.9	
635.25	10027	
635.44	8755.1	
635.63	8940.7	
635.82	9196.7	
636.01	8665	
636.2	8574.8	
636.39	8284.7	
636.57	10462	
636.76	10114	
636.95	7552.2	
637.14	9135.3	
637.33	9656.2	
637.52	10805	
637.7	7422.5	
637.89	8354.3	
638.08	9311.4	
638.27	10749	
638.46	8366.6	
638.65	8933.9	
638.83	10773	
639.02	9032.9	
639.21	8258.8	
639.4	8888.9	
639.59	9652.1	
639.78	9117.6	
639.96	7522.2	
640.15	7564.5	
640.34	9282.1	
640.53	9507.4	
640.72	7195.9	
640.91	7631.4	
641.09	8695	
641.28	10188	
641.47	7585	
641.66	8419.9	
641.85	9498.5	
642.03	9725.1	
642.22	8118.8	
642.41	7561.1	
642.6	8900.5	
642.79	8213.7	
642.97	7370	
643.16	8237.6	
643.35	8865.7	
643.54	8577.6	
643.73	7309.9	
643.91	8185	
644.1	8355.7	
644.29	9056.8	
644.48	7296.9	
644.67	7421.8	
644.85	8589.2	
645.04	8892.3	
645.23	6881.9	
645.42	7166.5	
645.6	8348.9	
645.79	9666.4	
645.98	7237.5	
646.17	6194.4	
646.36	8075.8	
646.54	8841.1	
646.73	7999.4	
646.92	6720.1	
647.11	8312.7	
647.29	9520.3	
647.48	6835.4	
647.67	6582.9	
647.86	9751.7	
648.05	9752.4	
648.23	7172.7	
648.42	8497	
648.61	9069.1	
648.8	8759.2	
648.98	6718	
649.17	7180.9	
649.36	8353.7	
649.55	7818.5	
649.73	6814.3	
649.92	7583.6	
650.11	8271.1	
650.3	8586.5	
650.48	6989	
650.67	6678.4	
650.86	8822	
651.05	7728.4	
651.23	6836.1	
651.42	6857.3	
651.61	8200.7	
651.79	8394.6	
651.98	7124.9	
652.17	6677.7	
652.36	8682	
652.54	7789.1	
652.73	6726.2	
652.92	6621.1	
653.11	8822	
653.29	8789.9	
653.48	5956.2	
653.67	7062.1	
653.85	8585.1	
654.04	9553.1	
654.23	7234.1	
654.42	6696.9	
654.6	7933.1	
654.79	8700.5	
654.98	6137.8	
655.16	6677.1	
655.35	7541.3	
655.54	7464.2	
655.73	6213.5	
655.91	6141.2	
656.1	8706.6	
656.29	7413	
656.47	5672.9	
656.66	7557	
656.85	7821.9	
657.03	7847.8	
657.22	6321.4	
657.41	6367.1	
657.59	7905.2	
657.78	7722.9	
657.97	5988.9	
658.16	6761.7	
658.34	8573.5	
658.53	8981.7	
658.72	7758.4	
658.9	8196.7	
659.09	7980.9	
659.28	8030.8	
659.46	6554.9	
659.65	6486.6	
659.84	7813.7	
660.02	8303.1	
660.21	6298.2	
660.4	6274.3	
660.58	8743.5	
660.77	8064.2	
660.96	6952.2	
661.14	5891.3	
661.33	9377	
661.52	9190.6	
661.7	5834.7	
661.89	9851.4	
662.08	7662.1	
662.26	7234.8	
662.45	6126.8	
662.64	6288.6	
662.82	8412.4	
663.01	7555	
663.2	6236.1	
663.38	7163.8	
663.57	8270.4	
663.75	8166.6	
663.94	6623.1	
664.13	8061.5	
664.31	7675.1	
664.5	8420.6	
664.69	6795.2	
664.87	7466.2	
665.06	7295.5	
665.25	8116.1	
665.43	7695.6	
665.62	7835.5	
665.8	8471.1	
665.99	7830.1	
666.18	6591.7	
666.36	6761	
666.55	8443.8	
666.74	8381.7	
666.92	6197.2	
667.11	7929.1	
667.29	7714	
667.48	8413.1	
667.67	7585.7	
667.85	6494.1	
668.04	7883.3	
668.22	7851.2	
668.41	6679.8	
668.6	6823.8	
668.78	7528.3	
668.97	7889.5	
669.15	7051.2	
669.34	5938.4	
669.53	7651.9	
669.71	7894.9	
669.9	6130.9	
670.08	6901	
670.27	7604.1	
670.46	8084	
670.64	7009.5	
670.83	7309.9	
671.01	7452.6	
671.2	8105.9	
671.38	6202.6	
671.57	6083.1	
671.76	8784.4	
671.94	9476.6	
672.13	6034	
672.31	7111.9	
672.5	8383.7	
672.69	7544.7	
672.87	6219	
673.06	6582.9	
673.24	8159.1	
673.43	7560.4	
673.61	7015	
673.8	6483.2	
673.98	8267	
674.17	8544.8	
674.36	7129.7	
674.54	6904.4	
674.73	8125.7	
674.91	8249.2	
675.1	6722.1	
675.28	6239.5	
675.47	7792.5	
675.65	8458.1	
675.84	6528.2	
676.03	6889.4	
676.21	7599.3	
676.4	7069.6	
676.58	7398.6	
676.77	7027.3	
676.95	9187.9	
677.14	7537.9	
677.32	6238.1	
677.51	5938.4	
677.69	8320.2	
677.88	7121.5	
678.06	6085.9	
678.25	6129.6	
678.44	7894.2	
678.62	7546.8	
678.81	5844.2	
678.99	6890	
679.18	8652.7	
679.36	8202.1	
679.55	6430.6	
679.73	7161.1	
679.92	8269	
680.1	7578.8	
680.29	7727.7	
680.47	6429.9	
680.66	7534.5	
680.84	8431.5	
681.03	5685.8	
681.21	6965.1	
681.4	7593.9	
681.58	7393.2	
681.77	6213.5	
681.95	6182.8	
682.14	8392.6	
682.32	8845.9	
682.51	7136.5	
682.69	5836	
682.88	7425.3	
683.06	8247.2	
683.25	6728.3	
683.43	7204.8	
683.62	7739.3	
683.8	8257.4	
683.99	7397.9	
684.17	6619	
684.36	9073.9	
684.54	7611.6	
684.73	5722.7	
684.91	5935.7	
685.1	7960.5	
685.28	7301	
685.46	6494.1	
685.65	6604	
685.83	8208.9	
686.02	7564.5	
686.2	6011.5	
686.39	6125.5	
686.57	7143.3	
686.76	8906.6	
686.94	6045.6	
687.13	6181.5	
687.31	8048.5	
687.5	7572	
687.68	5591	
687.86	7015	
688.05	9370.8	
688.23	6906.4	
688.42	6989	
688.6	6107	
688.79	7427.3	
688.97	7448.5	
689.16	6596.5	
689.34	5356.1	
689.52	8228.1	
689.71	8411	
689.89	6797.9	
690.08	6090.7	
690.26	7673.7	
690.45	7624.6	
690.63	7014.3	
690.81	6211.5	
691	7410.2	
691.18	7413.6	
691.37	6360.3	
691.55	8600.1	
691.74	7258	
691.92	9484.1	
692.1	6442.2	
692.29	5755.5	
692.47	7545.4	
692.66	6774	
692.84	6004.6	
693.02	6578.8	
693.21	6941.2	
693.39	7400	
693.58	6712.6	
693.76	6055.8	
693.94	8791.9	
694.13	8553.7	
694.31	5972.6	
694.5	7165.8	
694.68	7292.1	
694.86	7682.6	
695.05	6438.8	
695.23	6596.5	
695.42	8166.6	
695.6	10557	
695.78	7131.7	
695.97	6096.1	
696.15	8081.3	
696.34	7494.9	
696.52	5899.5	
696.7	6791.7	
696.89	7776.1	
697.07	7138.5	
697.25	6606.7	
697.44	8310.7	
697.62	7785	
697.81	8220.5	
697.99	6305.7	
698.17	6813.6	
698.36	7106.5	
698.54	7828	
698.72	6718.7	
698.91	5619.6	
699.09	7345.4	
699.28	7210.2	
699.46	6354.8	
699.64	6135	
699.83	7109.9	
700.01	8506.6	
700.19	7032	
700.38	5375.2	
700.56	8383	
700.74	7282.6	
700.93	5807.4	
701.11	6640.9	
701.29	7866.9	
701.48	9017.9	
701.66	6026.5	
701.84	6043.6	
702.03	7484	
702.21	8079.9	
702.39	5631.9	
702.58	6295.5	
702.76	7793.2	
702.94	7984.3	
703.13	5642.8	
703.31	8265.6	
703.49	7069.6	
703.68	8649.9	
703.86	5838.1	
704.04	6831.3	
704.23	7648.5	
704.41	8056	
704.59	6004	
704.78	7356.3	
704.96	8846.5	
705.14	8124.3	
705.33	5736.4	
705.51	6679.1	
705.69	7481.9	
705.87	8415.1	
706.06	6941.2	
706.24	5719.3	
706.42	7772	
706.61	8146.8	
706.79	7000	
706.97	5784.1	
707.16	7192.5	
707.34	7845.1	
707.52	6975.4	
707.7	5942.5	
707.89	7413.6	
708.07	7066.2	
708.25	6924.2	
708.44	7095.5	
708.62	7260.7	
708.8	8471.8	
708.98	7215.7	
709.17	6034	
709.35	7603.4	
709.53	7718.8	
709.72	5808.7	
709.9	6204.7	
710.08	8057.4	
710.26	8088.8	
710.45	7498.3	
710.63	6118.6	
710.81	7632.8	
710.99	7670.3	
711.18	6784.9	
711.36	6290.7	
711.54	7430	
711.72	8286.8	
711.91	6301.6	
712.09	5677.7	
712.27	7563.8	
712.45	8783.1	
712.64	6602	
712.82	5449	
713	7000.6	
713.18	7251.9	
713.37	5666	
713.55	6920.8	
713.73	8097	
713.91	6539.2	
714.1	6016.9	
714.28	5437.4	
714.46	7643.7	
714.64	6851.8	
714.83	4742.4	
715.01	5681.7	
715.19	6894.1	
715.37	6268.8	
715.55	5336.3	
715.74	5632.6	
715.92	7879.9	
716.1	5782.1	
716.28	6877.8	
716.47	5855.1	
716.65	6444.3	
716.83	6609.5	
717.01	5662.6	
717.19	5751.4	
717.38	8851.3	
717.56	6294.1	
717.74	5943.2	
717.92	5085.8	
718.1	7630	
718.29	6744.6	
718.47	4648.9	
718.65	5419.6	
718.83	7516	
719.01	7376.8	
719.2	4521.9	
719.38	5731.6	
719.56	7058	
719.74	8725	
719.92	5244.8	
720.11	6326.2	
720.29	7206.1	
720.47	6126.8	
720.65	4767	
720.83	5672.9	
721.02	6593.1	
721.2	6241.5	
721.38	5803.9	
721.56	4980	
721.74	5766.4	
721.92	6027.9	
722.11	6291.4	
722.29	5998.5	
722.47	7252.5	
722.65	6397.2	
722.83	5006.6	
723.01	5870.2	
723.2	6510.5	
723.38	6713.2	
723.56	4329.4	
723.74	5663.3	
723.92	6001.9	
724.1	7256	
724.29	4918.5	
724.47	6145.3	
724.65	6030.6	
724.83	5982.8	
725.01	4867.3	
725.19	5800.5	
725.37	6057.2	
725.56	6171.2	
725.74	4627.7	
725.92	4919.2	
726.1	5972.6	
726.28	6320	
726.46	5484.5	
726.64	5099.4	
726.83	6268.1	
727.01	6605.4	
727.19	4596.3	
727.37	5571.8	
727.55	6398.5	
727.73	7027.9	
727.91	4588.8	
728.09	4385.4	
728.28	6961	
728.46	7653.9	
728.64	5688.6	
728.82	5677.7	
729	8267	
729.18	7399.3	
729.36	4743.8	
729.54	7346.7	
729.72	8508.6	
729.91	6645	
730.09	6928.3	
730.27	5507.7	
730.45	6507.8	
730.63	7300.3	
730.81	6195.1	
730.99	5119.9	
731.17	7793.2	
731.35	6201.9	
731.53	5802.6	
731.71	5264	
731.9	7492.8	
732.08	7673.1	
732.26	5543.2	
732.44	5233.9	
732.62	7742.7	
732.8	7157	
732.98	5980.8	
733.16	4963.6	
733.34	7170.6	
733.52	5788.9	
733.7	5479.7	
733.88	5889.3	
734.07	6964.5	
734.25	6718.7	
734.43	4949.3	
734.61	6726.9	
734.79	8344.1	
734.97	6594.5	
735.15	5162.2	
735.33	5458.5	
735.51	7029.3	
735.69	6602.7	
735.87	6897.6	
736.05	5705	
736.23	6870.9	
736.41	6531.7	
736.59	5485.1	
736.77	5638.1	
736.95	7344.7	
737.13	6679.8	
737.32	5225.7	
737.5	5374.6	
737.68	7886	
737.86	6591.7	
738.04	4967	
738.22	6945.3	
738.4	6356.2	
738.58	6685.3	
738.76	5703.6	
738.94	4556	
739.12	6491.4	
739.3	6350.8	
739.48	6358.9	
739.66	6019.7	
739.84	6774	
740.02	6719.4	
740.2	4595	
740.38	5023.7	
740.56	7238.9	
740.74	5996.5	
740.92	5715.2	
741.1	5595.1	
741.28	6586.3	
741.46	6429.3	
741.64	5191.6	
741.82	5752.1	
742	6640.9	
742.18	6634.1	
742.36	5427.8	
742.54	5007.3	
742.72	7296.2	
742.9	5860.6	
743.08	5863.3	
743.26	4584	
743.44	7443	
743.62	7264.1	
743.8	6075.6	
743.98	5007.3	
744.16	6989.7	
744.34	6636.1	
744.52	5928.9	
744.7	5830.6	
744.88	7147.4	
745.06	6597.9	
745.24	5977.3	
745.42	6227.9	
745.6	7171.3	
745.78	6883.2	
745.96	4732.2	
746.14	5061.9	
746.32	8015.7	
746.5	7232.1	
746.68	5623.7	
746.86	5158.8	
747.03	7673.1	
747.21	5874.9	
747.39	5571.2	
747.57	5097.4	
747.75	6816.3	
747.93	7274.4	
748.11	5090.6	
748.29	4913.1	
748.47	8402.1	
748.65	6427.2	
748.83	5899.5	
749.01	5553.4	
749.19	7006.8	
749.37	6115.2	
749.55	5401.9	
749.73	5521.3	
749.91	6581.5	
750.09	6300.2	
750.26	5598.5	
750.44	4898.1	
750.62	6686.6	
750.8	6672.3	
750.98	4751.3	
751.16	5141.1	
751.34	6679.1	
751.52	6007.4	
751.7	5984.2	
751.88	4733.5	
752.06	7272.3	
752.24	6949.4	
752.42	4661.9	
752.59	5074.9	
752.77	6524.1	
752.95	7972.1	
753.13	5899.5	
753.31	5128.1	
753.49	6251.1	
753.67	6765.1	
753.85	5541.1	
754.03	5082.4	
754.21	7078.5	
754.38	7428	
754.56	5241.4	
754.74	4201.7	
754.92	6289.3	
755.1	7030	
755.28	4270.7	
755.46	4241.3	
755.64	7776.1	
755.82	7851.2	
755.99	4541.7	
756.17	4603.2	
756.35	5075.5	
756.53	6803.4	
756.71	3393.5	
756.89	4383.3	
757.07	6350.1	
757.25	5388.9	
757.42	4992.3	
757.6	5902.9	
757.78	6489.3	
757.96	5384.8	
758.14	4722.6	
758.32	4218.8	
758.5	4922.6	
758.67	5816.2	
758.85	4541	
759.03	4625.7	
759.21	6057.2	
759.39	5410.7	
759.57	4054.3	
759.75	5321.3	
759.92	6703	
760.1	5836.7	
760.28	5645.6	
760.46	5965.1	
760.64	5654.4	
760.82	5348.6	
760.99	5580.7	
761.17	4630.5	
761.35	6561	
761.53	5475.6	
761.71	4818.9	
761.89	5575.9	
762.06	6474.3	
762.24	5892	
762.42	4896	
762.6	4653	
762.78	5911.1	
762.96	6690	
763.13	5279	
763.31	4992.9	
763.49	6846.4	
763.67	5884.5	
763.85	5914.5	
764.02	6504.3	
764.2	7115.3	
764.38	6220.4	
764.56	4823	
764.74	5736.4	
764.91	7215.7	
765.09	6038.1	
765.27	4390.2	
765.45	4247.5	
765.63	7321.5	
765.8	7127.6	
765.98	3880.9	
766.16	4298.7	
766.34	5537.7	
766.52	5320.6	
766.69	5365	
766.87	4162.8	
767.05	5920	
767.23	6863.4	
767.41	4427.7	
767.58	4797	
767.76	6554.2	
767.94	6685.3	
768.12	4576.5	
768.29	5444.2	
768.47	6050.4	
768.65	6877.8	
768.83	4149.2	
769	5450.3	
769.18	5528.8	
769.36	6407.4	
769.54	5432.6	
769.72	4203.1	
769.89	6675.7	
770.07	6787.7	
770.25	4536.3	
770.43	5917.9	
770.6	7492.2	
770.78	8039	
770.96	4766.3	
771.14	5498.8	
771.31	6518	
771.49	5862	
771.67	3827.7	
771.85	4159.4	
772.02	5033.2	
772.2	5904.3	
772.38	4982.7	
772.55	4403.1	
772.73	6124.8	
772.91	5930.2	
773.09	4816.1	
773.26	4901.5	
773.44	6040.1	
773.62	5735	
773.8	4245.4	
773.97	3936.2	
774.15	6186.9	
774.33	5663.3	
774.5	4117.1	
774.68	4491.2	
774.86	6385.6	
775.04	5756.2	
775.21	4257.7	
775.39	4234.5	
775.57	6040.8	
775.74	6493.4	
775.92	4011.3	
776.1	3891.1	
776.27	6016.9	
776.45	7308.5	
776.63	4163.5	
776.81	3641.3	
776.98	5546.6	
777.16	6798.6	
777.34	4339	
777.51	4731.5	
777.69	5603.2	
777.87	5379.3	
778.04	4345.8	
778.22	5053.7	
778.4	5451	
778.57	6155.5	
778.75	3573.7	
778.93	3900	
779.1	5205.9	
779.28	5074.9	
779.46	3622.9	
779.64	4175.8	
779.81	6268.1	
779.99	7236.2	
780.17	5088.5	
780.34	5210.7	
780.52	5705.6	
780.69	5915.2	
780.87	4568.3	
781.05	4022.2	
781.22	5734.3	
781.4	5827.2	
781.58	4228.4	
781.75	3300.6	
781.93	5778.7	
782.11	5150	
782.28	5132.9	
782.46	4155.3	
782.64	4999.1	
782.81	5915.9	
782.99	4299.4	
783.17	4216.1	
783.34	5856.5	
783.52	5031.9	
783.69	4471.4	
783.87	5328.1	
784.05	5143.8	
784.22	5146.5	
784.4	5325.4	
784.58	4604.5	
784.75	6166.4	
784.93	5132.2	
785.1	4245.4	
785.28	4830.5	
785.46	5826.5	
785.63	5156.1	
785.81	4198.3	
785.99	3975.1	
786.16	5289.2	
786.34	5717.2	
786.51	4074.8	
786.69	4518.5	
786.87	4863.2	
787.04	5402.5	
787.22	3895.9	
787.39	4944.5	
787.57	5085.1	
787.75	6339.1	
787.92	5130.8	
788.1	5049.6	
788.27	5163.6	
788.45	4926	
788.63	4791.6	
788.8	3364.8	
788.98	5707	
789.15	4803.9	
789.33	3538.9	
789.5	4210.6	
789.68	6197.8	
789.86	6313.2	
790.03	4733.5	
790.21	4072.7	
790.38	6064	
790.56	5305.6	
790.73	3951.2	
790.91	3929.4	
791.09	5162.9	
791.26	6014.2	
791.44	4247.5	
791.61	3537.5	
791.79	5115.1	
791.96	5268.1	
792.14	3732.1	
792.32	3235.1	
792.49	5149.3	
792.67	5267.4	
792.84	3797.6	
793.02	3549.1	
793.19	5579.3	
793.37	6451.1	
793.54	3223.5	
793.72	3641.3	
793.89	6630	
794.07	5251.7	
794.25	4201.7	
794.42	3334.8	
794.6	6286.6	
794.77	5866.1	
794.95	4566.3	
795.12	3968.3	
795.3	5126.7	
795.47	5829.9	
795.65	4380.6	
795.82	4257	
796	4941.7	
796.17	7004.7	
796.35	4037.2	
796.52	4844.8	
796.7	5724.8	
796.87	5897.5	
797.05	5091.3	
797.22	5008	
797.4	5765.7	
797.57	6864.1	
797.75	4260.5	
797.92	4222.2	
798.1	6118	
798.27	5168.4	
798.45	3350.5	
798.62	3715	
798.8	5466.7	
798.97	6021.7	
799.15	4496	
799.32	4262.5	
799.5	4705.5	
799.67	5509	
799.85	4605.9	
800.02	3317	
800.2	5087.8	
800.37	5464	
800.55	4829.1	
800.72	3984.7	
800.9	5928.2	
801.07	6511.2	
801.25	5393.7	
801.42	4438.6	
801.6	5976.7	
801.77	5723.4	
801.95	4093.9	
802.12	3880.9	
802.29	5728.9	
802.47	5713.8	
802.64	4346.5	
802.82	3260.4	
802.99	5078.3	
803.17	6208.8	
803.34	4301.4	
803.52	3768.3	
803.69	6860	
803.87	4870.1	
804.04	4165.6	
804.21	4347.2	
804.39	6219.7	
804.56	5356.8	
804.74	3563.5	
804.91	4444.1	
805.09	5146.5	
805.26	5286.5	
805.44	3669.3	
805.61	4044.7	
805.78	5845.6	
805.96	5902.9	
806.13	4438.6	
806.31	4754	
806.48	4653.7	
806.66	5216.9	
806.83	4359.4	
807	4274.8	
807.18	5073.5	
807.35	5571.8	
807.53	4281.6	
807.7	3407.1	
807.87	6347.3	
808.05	5184.1	
808.22	4747.9	
808.4	3383.9	
808.57	5260.5	
808.74	4776.5	
808.92	3872.7	
809.09	4969.1	
809.27	5032.5	
809.44	5739.1	
809.61	3409.9	
809.79	3859.1	
809.96	6383.5	
810.14	6019	
810.31	3308.8	
810.48	4082.3	
810.66	5298.8	
810.83	6006	
811.01	3889.8	
811.18	4376.5	
811.35	5984.2	
811.53	4591.5	
811.7	4747.9	
811.87	4401.8	
812.05	5160.2	
812.22	5094.7	
812.39	3818.1	
812.57	3633.1	
812.74	5218.9	
812.92	7110.5	
813.09	4111	
813.26	4493.2	
813.44	6717.3	
813.61	5116.5	
813.78	3431	
813.96	4690.5	
814.13	5182.7	
814.3	4846.9	
814.48	5048.2	
814.65	4108.2	
814.82	6503.7	
815	4999.1	
815.17	4206.5	
815.34	5180.7	
815.52	5076.9	
815.69	5149.3	
815.87	4196.3	
816.04	3618.1	
816.21	5203.2	
816.38	4487.8	
816.56	4017.4	
816.73	3743	
816.9	6604.7	
817.08	5998.5	
817.25	3831.1	
817.42	4788.2	
817.6	4775.9	
817.77	5224.4	
817.94	4297.3	
818.12	3740.3	
818.29	4922.6	
818.46	7888.8	
818.64	3926.6	
818.81	3636.5	
818.98	4878.9	
819.16	7143.3	
819.33	4571.7	
819.5	4201.7	
819.67	5626.5	
819.85	6307.1	
820.02	4137.6	
820.19	4424.3	
820.37	5445.5	
820.54	4979.3	
820.71	4252.3	
820.88	5393	
821.06	5461.9	
821.23	4972.5	
821.4	4310.3	
821.58	4233.8	
821.75	5995.8	
821.92	5352	
822.09	3377.1	
822.27	3500	
822.44	5286.5	
822.61	5049.6	
822.79	3478.8	
822.96	6769.9	
823.13	5715.9	
823.3	5016.2	
823.48	3977.2	
823.65	3573	
823.82	5930.9	
823.99	4730.1	
824.17	5067.4	
824.34	3644.7	
824.51	6886.6	
824.68	5282.4	
824.86	3788.7	
825.03	4266.6	
825.2	5218.9	
825.37	6391.7	
825.55	3768.3	
825.72	4285.7	
825.89	6936.5	
826.06	6462	
826.24	4105.5	
826.41	4200.4	
826.58	6283.2	
826.75	5592.3	
826.92	3230.3	
827.1	3561.4	
827.27	8757.1	
827.44	6948.8	
827.61	3948.5	
827.79	4792.9	
827.96	4876.9	
828.13	5341.8	
828.3	4069.3	
828.47	3426.9	
828.65	5447.6	
828.82	5356.1	
828.99	5332.2	
829.16	4672.1	
829.34	5797.8	
829.51	5657.9	
829.68	4240.7	
829.85	4412	
830.02	6108.4	
830.2	5827.8	
830.37	3284.9	
830.54	5183.4	
830.71	6724.8	
830.88	5138.4	
831.05	3333.4	
831.23	3818.8	
831.4	6395.8	
831.57	7204.8	
831.74	3945.8	
831.91	3418.7	
832.09	5444.2	
832.26	5849	
832.43	4057	
832.6	4603.2	
832.77	5442.1	
832.94	6201.2	
833.12	3260.4	
833.29	3977.8	
833.46	5077.6	
833.63	7443	
833.8	4460.5	
833.97	4072.7	
834.15	5828.5	
834.32	5565.7	
834.49	4215.4	
834.66	4418.8	
834.83	6100.2	
835	4889.2	
835.17	3842	
835.35	3932.1	
835.52	5715.9	
835.69	5587.5	
835.86	4146.5	
836.03	3388.7	
836.2	5782.1	
836.37	5367	
836.55	4123.2	
836.72	3829.7	
836.89	5386.8	
837.06	5961	
837.23	4151.2	
837.4	4528.7	
837.57	6696.2	
837.75	7446.4	
837.92	3697.9	
838.09	3965.6	
838.26	5390.9	
838.43	6170.5	
838.6	4273.4	
838.77	3845.4	
838.94	7053.2	
839.11	6740.5	
839.29	4080.2	
839.46	3243.3	
839.63	5717.9	
839.8	5552.7	
839.97	3977.8	
840.14	3997	
840.31	5532.9	
840.48	5827.8	
840.65	3293.1	
840.82	4024.9	
841	5816.2	
841.17	5778.7	
841.34	3596.9	
841.51	3646.1	
841.68	5723.4	
841.85	5548.6	
842.02	3778.5	
842.19	3123.2	
842.36	5541.8	
842.53	5556.8	
842.7	3611.9	
842.87	4491.9	
843.05	7377.5	
843.22	5492.7	
843.39	3409.9	
843.56	3731.4	
843.73	5272.8	
843.9	5850.4	
844.07	5961	
844.24	4967	
844.41	8809	
844.58	4989.5	
844.75	3562.8	
844.92	3857	
845.09	5820.3	
845.26	5817.6	
845.43	3616	
845.6	3816.7	
845.77	5814.2	
845.94	5488.6	
846.12	4055	
846.29	4231.8	
846.46	6035.4	
846.63	5842.9	
846.8	3554.6	
846.97	4277.5	
847.14	6355.5	
847.31	5801.2	
847.48	4091.2	
847.65	4508.9	
847.82	6130.3	
847.99	6106.4	
848.16	4853.7	
848.33	4496	
848.5	5335.6	
848.67	6240.2	
848.84	3589.4	
849.01	3726.6	
849.18	5157.5	
849.35	4836.6	
849.52	4551.3	
849.69	3591.5	
849.86	5988.3	
850.03	6335	
850.2	3624.2	
850.37	4429.1	
850.54	6161	
850.71	5526.1	
850.88	4365.6	
851.05	3616.7	
851.22	5651.7	
851.39	6399.9	
851.56	3424.9	
851.73	4130.1	
851.9	5084.4	
852.07	6084.5	
852.24	4058.4	
852.41	3551.9	
852.58	5649	
852.75	5169.1	
852.92	4052.9	
853.09	3544.4	
853.26	5328.1	
853.43	6244.9	
853.6	3550.5	
853.77	3101.3	
853.94	6374	
854.11	5732.3	
854.28	5354.1	
854.44	3914.4	
854.61	6686.6	
854.78	6130.3	
854.95	3525.9	
855.12	4532.8	
855.29	4630.5	
855.46	6449.1	
855.63	3583.9	
855.8	5036.6	
855.97	5337.7	
856.14	6121.4	
856.31	5192.3	
856.48	3910.9	
856.65	5337	
856.82	5126.1	
856.99	3431	
857.16	3880.2	
857.33	7135.8	
857.49	5493.3	
857.66	3887.7	
857.83	4166.9	
858	5408.7	
858.17	5671.5	
858.34	3409.9	
858.51	3567.6	
858.68	6497.5	
858.85	6559	
859.02	4247.5	
859.19	4518.5	
859.36	5034.6	
859.52	5108.3	
859.69	3569.6	
859.86	4316.4	
860.03	5114.5	
860.2	6393.1	
860.37	3249.4	
860.54	3615.3	
860.71	6036	
860.88	6532.3	
861.05	4149.9	
861.21	4569	
861.38	6562.4	
861.55	4956.8	
861.72	3264.5	
861.89	3992.9	
862.06	6137.1	
862.23	6645.7	
862.4	3482.2	
862.56	3748.5	
862.73	5888.6	
862.9	5566.4	
863.07	4289.1	
863.24	3297.9	
863.41	4941.1	
863.58	5087.2	
863.75	3717.7	
863.91	4139.6	
864.08	6442.2	
864.25	5955.5	
864.42	4569.7	
864.59	5059.2	
864.76	6757.6	
864.93	5086.5	
865.09	3503.4	
865.26	3865.2	
865.43	6311.8	
865.6	6728.3	
865.77	3110.2	
865.94	3517.7	
866.1	6387.6	
866.27	6121.4	
866.44	5512.4	
866.61	3371.6	
866.78	5483.8	
866.95	5990.3	
867.11	3487.7	
867.28	3200.3	
867.45	6163	
867.62	5122.7	
867.79	4279.6	
867.96	3564.8	
868.12	5143.8	
868.29	6113.9	
868.46	3078.8	
868.63	4805.2	
868.8	6272.9	
868.97	6029.2	
869.13	3765.5	
869.3	3768.9	
869.47	5916.6	
869.64	6236.7	
869.81	3689.1	
869.97	3588	
870.14	5860.6	
870.31	6506.4	
870.48	3627	
870.65	4629.1	
870.81	5384.1	
870.98	5383.4	
871.15	4114.4	
871.32	3747.1	
871.48	5909.8	
871.65	6537.8	
871.82	3620.8	
871.99	3985.3	
872.16	7095.5	
872.32	6323.4	
872.49	3648.8	
872.66	3643.3	
872.83	6015.6	
872.99	5251.7	
873.16	4168.3	
873.33	3560.7	
873.5	5672.9	
873.67	5632.6	
873.83	3751.2	
874	4847.5	
874.17	5777.3	
874.34	6950.1	
874.5	4723.3	
874.67	4458.4	
874.84	6490.7	
875.01	5103.5	
875.17	5060.5	
875.34	3551.2	
875.51	5664.7	
875.68	6865.5	
875.84	4377.9	
876.01	5372.5	
876.18	5961.6	
876.34	6040.1	
876.51	3599.6	
876.68	3493.8	
876.85	5440.8	
877.01	6272.9	
877.18	5227.1	
877.35	3620.1	
877.52	5571.8	
877.68	5007.3	
877.85	3479.5	
878.02	3525.9	
878.18	5565.7	
878.35	5268.1	
878.52	2835.8	
878.69	4073.4	
878.85	6041.5	
879.02	6021	
879.19	5194.3	
879.35	3913.7	
879.52	5988.9	
879.69	6247.7	
879.86	3093.1	
880.02	4077.5	
880.19	5549.3	
880.36	6893.5	
880.52	4190.8	
880.69	4304.8	
880.86	6091.3	
881.02	6229.9	
881.19	4012.7	
881.36	3923.9	
881.52	5971.2	
881.69	5306.3	
881.86	3880.2	
882.02	3810.6	
882.19	6294.1	
882.36	7443	
882.52	3623.5	
882.69	5083.7	
882.86	5800.5	
883.02	5695.4	
883.19	4445.5	
883.36	4191.5	
883.52	6135.7	
883.69	6987	
883.86	3653.6	
884.02	3244	
884.19	6055.8	
884.36	5586.2	
884.52	4093.9	
884.69	3798.3	
884.86	5320.6	
885.02	6761.7	
885.19	4049.5	
885.36	4189.5	
885.52	5596.4	
885.69	5765	
885.86	5247.6	
886.02	4646.8	
886.19	6126.2	
886.35	5455.1	
886.52	4043.4	
886.69	5118.6	
886.85	5111.7	
887.02	6474.3	
887.19	6474.3	
887.35	6474.3	
887.52	6474.3	
887.68	6474.3	
887.85	6474.3	
888.02	6474.3	
888.18	6474.3	
888.35	6474.3	
888.51	6474.3	
888.68	6474.3	
888.85	6474.3	
889.01	6474.3	
889.18	6474.3	
889.35	6474.3	
889.51	6474.3	
889.68	6474.3	
889.84	6474.3	
890.01	6474.3	
890.17	6474.3	
890.34	6474.3	
890.51	6474.3	
890.67	6474.3	
890.84	6474.3	
891	6474.3	
891.17	6474.3	
891.34	6474.3	
891.5	6474.3	
891.67	6474.3	
891.83	6474.3	
892	6474.3	
892.16	6474.3	
892.33	6474.3	
892.5	6474.3	
892.66	6474.3	
892.83	6474.3	
892.99	6474.3	
893.16	6474.3	
893.32	6474.3	
893.49	6474.3	
893.65	6474.3	
893.82	6474.3	
893.99	6474.3	
894.15	6474.3	
894.32	6474.3	
894.48	6474.3	
894.65	6474.3	
894.81	6474.3	
894.98	6474.3	
895.14	6474.3	
895.31	6474.3	
895.47	6474.3	
895.64	6474.3	
895.81	6474.3	
895.97	6474.3	
896.14	6474.3	
896.3	6474.3	
896.47	6474.3	
896.63	6474.3	
896.8	6474.3	
896.96	6474.3	
897.13	6474.3	
897.29	6474.3	
897.46	6474.3	
897.62	6474.3	
897.79	6474.3	
897.95	6474.3	
898.12	6474.3	
898.28	6474.3	
898.45	6474.3	
898.61	6474.3	
898.78	6474.3	
898.94	6474.3	
899.11	6474.3	
899.27	6474.3	
899.44	6474.3	
899.6	6474.3	
899.77	6474.3	
899.93	6474.3	
900.1	6474.3	
900.26	6474.3	
900.43	6474.3	
900.59	6474.3	
900.76	6474.3	
900.92	6474.3	
901.09	6474.3	
901.25	6474.3	
901.42	6474.3	
901.58	6474.3	
901.75	6474.3	
901.91	6474.3	
902.07	6474.3	
902.24	6474.3	
902.4	6474.3	
902.57	6474.3	
902.73	6474.3	
902.9	6474.3	
903.06	6474.3	
903.23	6474.3	
903.39	6474.3	
903.56	6474.3	
903.72	6474.3	
903.88	6474.3	
904.05	6474.3	
904.21	6474.3	
904.38	6474.3	
904.54	6474.3	
904.71	6474.3	
904.87	6474.3	
905.03	6474.3	
905.2	6474.3	
905.36	6474.3	
905.53	6474.3	
905.69	6474.3	
905.86	6474.3	
906.02	6474.3	
906.18	6474.3	
906.35	6474.3	
906.51	6474.3	
906.68	6474.3	
906.84	6474.3	
907.01	6474.3	
907.17	6474.3	
907.33	6474.3	
907.5	6474.3	
907.66	6474.3	
907.83	6474.3	
907.99	6474.3	
908.15	6474.3	
908.32	6474.3	
908.48	6474.3	
908.65	6474.3	
908.81	6474.3	
908.97	6474.3	
909.14	6474.3	
909.3	6474.3	
909.47	6474.3	
909.63	6474.3	
909.79	6474.3	
909.96	6474.3	
910.12	6474.3	
910.28	6474.3	
910.45	6474.3	
910.61	6474.3	
910.78	6474.3	
910.94	6474.3	
911.1	6474.3	
911.27	6474.3	
911.43	6474.3	
911.59	6474.3	
911.76	6474.3	
911.92	6474.3	
912.08	6474.3	
912.25	6474.3	
912.41	6474.3	
912.57	6474.3	
912.74	6474.3	
912.9	6474.3	
913.07	6474.3	
913.23	6474.3	
913.39	6474.3	
913.56	6474.3	
913.72	6474.3	
913.88	6474.3	
914.05	6474.3	
914.21	6474.3	
914.37	6474.3	
914.54	6474.3	
914.7	6474.3	
914.86	6474.3	
915.03	6474.3	
915.19	6474.3	
