Wavelength	Intensities	
nm	a.u.	
179.22	1956.2	
179.44	1947.6	
179.65	1964.7	
179.86	1930.6	
180.08	1946.3	
180.29	5044.1	
180.51	3547.1	
180.72	5654.4	
180.94	6647.7	
181.15	3263.8	
181.37	3201	
181.58	5599.8	
181.79	5835.3	
182.01	3394.2	
182.22	3679.5	
182.44	5823.7	
182.65	4840	
182.87	4597	
183.08	4037.9	
183.29	6100.2	
183.51	5022.3	
183.72	3721.2	
183.94	5483.1	
184.15	5431.9	
184.37	5477.6	
184.58	3185.3	
184.79	4488.5	
185.01	5042.1	
185.22	5834.7	
185.44	4747.2	
185.65	3932.1	
185.86	5312.4	
186.08	4900.1	
186.29	3146.4	
186.51	3404.4	
186.72	5049.6	
186.94	5977.3	
187.15	3918.4	
187.36	4074.1	
187.58	7819.8	
187.79	5507	
188.01	4308.9	
188.22	6608.8	
188.43	6707.8	
188.65	5806	
188.86	3387.3	
189.08	4047.5	
189.29	5247.6	
189.5	5265.3	
189.72	3785.3	
189.93	3878.2	
190.15	5958.2	
190.36	7238.2	
190.57	4128.7	
190.79	4000.4	
191	6133	
191.22	6045.6	
191.43	4229.1	
191.64	3416.7	
191.86	6355.5	
192.07	6063.4	
192.29	3553.2	
192.5	3797.6	
192.71	6024.4	
192.93	5137.7	
193.14	3719.1	
193.35	3847.5	
193.57	5201.2	
193.78	5997.8	
194	3008.5	
194.21	3664.5	
194.42	5021.6	
194.64	5453.1	
194.85	4075.5	
195.07	4738.3	
195.28	5545.9	
195.49	4742.4	
195.71	5048.2	
195.92	3519.1	
196.13	5651	
196.35	5801.2	
196.56	5425.1	
196.78	4116.4	
196.99	7068.2	
197.2	6726.9	
197.42	4724.7	
197.63	4114.4	
197.84	4914.4	
198.06	5684.5	
198.27	3755.3	
198.48	5058.5	
198.7	5218.9	
198.91	5362.3	
199.13	4146.5	
199.34	4094.6	
199.55	5819	
199.77	4762.2	
199.98	3596.9	
200.19	4195.6	
200.41	5390.3	
200.62	5080.3	
200.83	4298	
201.05	4627	
201.26	5305.6	
201.47	5076.2	
201.69	3630.4	
201.9	3506.1	
202.11	5427.1	
202.33	6478.4	
202.54	3872	
202.76	4310.3	
202.97	5548.6	
203.18	5532.9	
203.4	4310.3	
203.61	4209.9	
203.82	5533.6	
204.04	5098.1	
204.25	4182.6	
204.46	4093.9	
204.68	5450.3	
204.89	5712.5	
205.1	4000.4	
205.32	3450.8	
205.53	5864.7	
205.74	6057.2	
205.96	2916.3	
206.17	4240.7	
206.38	5851.7	
206.6	5999.2	
206.81	4722.6	
207.02	3835.2	
207.24	5703.6	
207.45	6153.5	
207.66	3952.6	
207.88	3266.5	
208.09	5678.3	
208.3	5416.9	
208.52	3566.2	
208.73	4026.3	
208.94	5485.1	
209.15	6189.6	
209.37	3887.7	
209.58	4126.7	
209.79	5988.9	
210.01	5216.2	
210.22	3155.2	
210.43	3259	
210.65	5479.7	
210.86	5897.5	
211.07	3917.1	
211.29	3550.5	
211.5	5817.6	
211.71	5404.6	
211.93	3539.6	
212.14	3594.9	
212.35	5426.4	
212.56	5650.3	
212.78	4146.5	
212.99	3341.6	
213.2	6424.5	
213.42	5186.8	
213.63	3730.7	
213.84	3994.2	
214.06	4833.2	
214.27	4919.9	
214.48	3940.3	
214.69	4159.4	
214.91	6150.1	
215.12	6199.9	
215.33	4257.7	
215.55	4658.4	
215.76	6761	
215.97	5819.6	
216.18	4083	
216.4	4001.7	
216.61	5126.7	
216.82	5969.8	
217.04	3609.9	
217.25	3773	
217.46	6101.6	
217.67	5939.1	
217.89	3182.5	
218.1	3365.5	
218.31	5545.2	
218.53	5608	
218.74	3806.5	
218.95	3695.9	
219.16	5416.9	
219.38	6401.3	
219.59	3667.2	
219.8	4407.9	
220.01	7107.8	
220.23	5414.1	
220.44	4808.6	
220.65	3592.8	
220.87	5507.7	
221.08	6132.3	
221.29	3332	
221.5	4468.7	
221.72	7487.4	
221.93	5180	
222.14	4144.4	
222.35	4792.2	
222.57	5507.7	
222.78	5842.2	
222.99	3919.8	
223.2	4280.3	
223.42	5783.5	
223.63	5981.4	
223.84	3029.6	
224.05	2967.5	
224.27	6990.4	
224.48	6378.7	
224.69	4928.8	
224.9	4150.5	
225.12	5698.8	
225.33	5444.9	
225.54	3308.2	
225.75	3687.7	
225.97	5066	
226.18	5272.8	
226.39	3990.1	
226.6	3680.2	
226.82	5199.1	
227.03	5035.3	
227.24	4123.2	
227.45	3381.2	
227.67	5838.1	
227.88	6429.3	
228.09	4651.6	
228.3	4663.9	
228.52	5897.5	
228.73	5443.5	
228.94	3785.3	
229.15	3375.7	
229.36	5399.1	
229.58	5270.8	
229.79	3854.3	
230	4515.8	
230.21	6562.4	
230.43	5528.2	
230.64	4063.9	
230.85	4272.1	
231.06	5888.6	
231.28	5928.2	
231.49	3394.8	
231.7	4011.3	
231.91	5809.4	
232.12	5515.9	
232.34	3494.5	
232.55	3992.9	
232.76	6125.5	
232.97	5672.9	
233.18	3568.2	
233.4	4055	
233.61	5655.8	
233.82	5238	
234.03	3737.5	
234.25	3704.8	
234.46	7640.3	
234.67	5466	
234.88	4186	
235.09	3694.5	
235.31	5826.5	
235.52	5330.9	
235.73	4121.2	
235.94	3429	
236.15	5177.9	
236.37	6655.9	
236.58	3583.9	
236.79	3922.5	
237	5766.4	
237.21	4938.3	
237.43	4271.4	
237.64	3333.4	
237.85	10019	
238.06	5041.4	
238.27	4299.4	
238.48	3448.1	
238.7	5837.4	
238.91	5355.4	
239.12	3990.1	
239.33	3902.1	
239.54	5272.2	
239.76	5379.3	
239.97	3859.1	
240.18	4013.3	
240.39	6865.5	
240.6	5745.9	
240.82	4070	
241.03	3358	
241.24	5417.6	
241.45	6406	
241.66	3576.4	
241.87	4199.7	
242.09	6193.1	
242.3	6625.2	
242.51	4307.6	
242.72	3952.6	
242.93	5865.4	
243.14	5402.5	
243.36	4571.1	
243.57	4982	
243.78	6347.3	
243.99	5713.2	
244.2	3966.9	
244.41	3600.3	
244.63	4986.1	
244.84	5754.1	
245.05	4222.9	
245.26	3999	
245.47	5741.1	
245.68	6049.7	
245.9	5292.6	
246.11	4194.2	
246.32	5329.5	
246.53	5679	
246.74	6356.9	
246.95	3320.4	
247.16	4928.8	
247.38	5453.1	
247.59	3293.8	
247.8	3940.3	
248.01	5139	
248.22	5339.7	
248.43	3530.7	
248.64	3888.4	
248.86	4739.7	
249.07	5231.2	
249.28	3415.3	
249.49	4078.2	
249.7	6062	
249.91	6181.5	
250.12	3286.3	
250.34	3383.9	
250.55	5609.4	
250.76	5486.5	
250.97	4080.9	
251.18	4102.8	
251.39	6223.8	
251.6	5652.4	
251.81	4237.9	
252.03	4169.7	
252.24	5180	
252.45	6017.6	
252.66	3431	
252.87	4390.8	
253.08	5532.9	
253.29	7226.6	
253.5	3461.1	
253.72	4801.8	
253.93	5267.4	
254.14	6488	
254.35	3772.4	
254.56	3859.7	
254.77	5728.2	
254.98	5033.2	
255.19	3683.6	
255.41	4812	
255.62	5496.7	
255.83	6118.6	
256.04	4229.7	
256.25	4188.1	
256.46	6775.4	
256.67	5112.4	
256.88	4049.5	
257.09	4502.8	
257.31	5109.7	
257.52	5139	
257.73	5162.9	
257.94	3743.7	
258.15	5333.6	
258.36	5468.8	
258.57	4723.3	
258.78	2950.4	
258.99	5971.9	
259.2	5270.8	
259.41	3788.7	
259.63	3862.5	
259.84	6355.5	
260.05	6750.1	
260.26	4958.8	
260.47	3611.9	
260.68	6069.5	
260.89	5342.5	
261.1	4543.8	
261.31	3564.1	
261.52	6014.9	
261.73	6409.5	
261.95	4871.4	
262.16	4244.1	
262.37	6212.9	
262.58	6280.4	
262.79	4906.3	
263	3807.2	
263.21	5571.8	
263.42	4949.9	
263.63	3936.9	
263.84	3740.3	
264.05	6018.3	
264.26	6432	
264.47	4784.1	
264.69	4253.6	
264.9	6210.8	
265.11	5675.6	
265.32	3710.2	
265.53	3729.4	
265.74	5550.7	
265.95	4864.6	
266.16	3997	
266.37	4468.7	
266.58	5656.5	
266.79	5309.7	
267	3822.9	
267.21	3454.2	
267.42	4986.1	
267.63	5479.7	
267.84	3885.7	
268.06	3336.1	
268.27	5868.8	
268.48	6137.1	
268.69	3874.1	
268.9	4566.3	
269.11	6159.6	
269.32	4894.6	
269.53	3979.2	
269.74	3670.6	
269.95	5817.6	
270.16	4827.1	
270.37	3977.2	
270.58	4548.5	
270.79	5280.3	
271	6003.3	
271.21	4233.2	
271.42	4009.9	
271.63	5556.1	
271.84	5074.2	
272.05	3182.5	
272.26	3547.8	
272.47	5505.6	
272.68	5659.9	
272.89	3787.4	
273.11	4376.5	
273.32	5285.1	
273.53	6494.8	
273.74	4277.5	
273.95	4155.3	
274.16	6137.8	
274.37	5599.1	
274.58	4285	
274.79	3433.8	
275	5611.4	
275.21	6135.7	
275.42	5237.3	
275.63	4501.4	
275.84	5730.2	
276.05	7273.7	
276.26	4192.2	
276.47	3872.7	
276.68	5289.2	
276.89	6538.5	
277.1	4465.9	
277.31	3449.5	
277.52	5772.5	
277.73	5907	
277.94	3402.4	
278.15	3801	
278.36	5640.1	
278.57	5103.5	
278.78	3770.3	
278.99	4290.5	
279.2	5109.7	
279.41	5023	
279.62	4997	
279.83	3485.6	
280.04	6711.9	
280.25	4978.6	
280.46	4998.4	
280.67	3967.6	
280.88	5108.3	
281.09	6119.3	
281.3	4130.1	
281.51	5246.2	
281.72	6006.7	
281.93	6016.2	
282.14	3698.6	
282.35	3967.6	
282.56	5986.2	
282.77	5971.2	
282.98	3875.4	
283.19	4694.6	
283.4	7346.1	
283.61	5405.3	
283.82	3399.6	
284.03	4935.6	
284.24	5621	
284.45	6128.2	
284.66	4941.1	
284.87	4740.4	
285.08	6076.3	
285.29	6250.4	
285.5	3345	
285.71	3894.6	
285.92	6100.2	
286.12	6824.5	
286.33	4876.9	
286.54	3828.3	
286.75	5967.1	
286.96	5315.8	
287.17	3526.6	
287.38	4847.5	
287.59	5093.3	
287.8	5012.7	
288.01	3868.6	
288.22	4528.1	
288.43	5993.7	
288.64	5027.8	
288.85	4598.4	
289.06	4417.5	
289.27	6004.6	
289.48	6477.7	
289.69	4965.6	
289.9	4463.9	
290.11	6191.7	
290.32	5158.8	
290.53	4695.3	
290.74	4329.4	
290.94	5927.5	
291.15	5911.1	
291.36	3756.7	
291.57	4424.3	
291.78	5218.9	
291.99	4845.5	
292.2	3505.4	
292.41	4319.2	
292.62	6077	
292.83	5726.1	
293.04	5324.7	
293.25	3562.1	
293.46	5307.7	
293.67	6103.6	
293.88	3712.3	
294.09	3599	
294.29	5076.2	
294.5	5601.9	
294.71	3978.5	
294.92	3777.8	
295.13	5206.6	
295.34	6580.8	
295.55	3338.2	
295.76	3550.5	
295.97	5900.9	
296.18	6699.6	
296.39	3523.9	
296.6	3761.4	
296.81	5563	
297.01	5925.5	
297.22	3864.5	
297.43	3691.8	
297.64	5098.1	
297.85	5093.3	
298.06	3074	
298.27	3346.4	
298.48	5526.8	
298.69	5161.6	
298.9	4024.9	
299.11	3636.5	
299.31	4985.4	
299.52	4970.4	
299.73	4335.5	
299.94	4147.1	
300.15	5455.1	
300.36	5049.6	
300.57	4220.2	
300.78	4178.5	
300.99	5375.2	
301.2	5588.2	
301.4	3620.1	
301.61	4052.9	
301.82	5841.5	
302.03	5945.3	
302.24	4518.5	
302.45	3454.2	
302.66	5754.1	
302.87	6231.3	
303.08	3674.1	
303.29	5038	
303.49	5242.8	
303.7	5509	
303.91	3261	
304.12	4857.8	
304.33	4962.2	
304.54	5629.9	
304.75	3715.7	
304.96	3586	
305.16	5823.7	
305.37	6523.5	
305.58	3219.4	
305.79	3315	
306	5753.4	
306.21	4902.8	
306.42	3712.3	
306.63	5696.1	
306.83	5381.4	
307.04	6112.5	
307.25	4112.3	
307.46	4081.6	
307.67	4724.7	
307.88	5947.3	
308.09	3640.6	
308.29	3749.1	
308.5	5490.6	
308.71	6103.6	
308.92	3960.1	
309.13	3562.8	
309.34	5326.8	
309.55	5367	
309.75	4603.8	
309.96	4187.4	
310.17	5918.6	
310.38	5165.7	
310.59	4486.4	
310.8	3405.8	
311.01	5276.3	
311.21	5367	
311.42	3528.7	
311.63	3644	
311.84	5251.7	
312.05	5605.3	
312.26	4177.2	
312.46	4552	
312.67	5337	
312.88	4988.9	
313.09	3588.7	
313.3	3520.5	
313.51	6313.9	
313.71	6675.7	
313.92	3549.1	
314.13	3840.6	
314.34	5696.1	
314.55	5360.2	
314.76	4628.4	
314.96	3984.7	
315.17	5555.5	
315.38	5878.4	
315.59	3579.8	
315.8	3407.8	
316.01	6327.5	
316.21	6405.4	
316.42	3399.6	
316.63	3950.5	
316.84	5304.2	
317.05	6191	
317.26	4255.7	
317.46	3792.8	
317.67	5418.9	
317.88	5877	
318.09	4577.9	
318.3	3359.4	
318.5	5134.3	
318.71	5834	
318.92	5850.4	
319.13	4207.9	
319.34	6008.7	
319.54	6110.5	
319.75	3306.1	
319.96	3157.3	
320.17	5899.5	
320.38	6061.3	
320.58	3251.5	
320.79	3955.3	
321	6116.6	
321.21	6356.2	
321.42	4037.9	
321.62	3237.8	
321.83	5091.3	
322.04	5474.9	
322.25	3782.6	
322.46	3632.4	
322.66	5631.2	
322.87	5713.8	
323.08	4419.5	
323.29	3515.7	
323.5	6603.3	
323.7	5025.7	
323.91	4876.9	
324.12	4418.8	
324.33	5573.9	
324.53	5819.6	
324.74	4233.2	
324.95	4433.2	
325.16	4875.5	
325.37	5329.5	
325.57	3541.6	
325.78	3682.2	
325.99	5479	
326.2	4974.5	
326.4	5103.5	
326.61	3306.8	
326.82	5447.6	
327.03	5599.1	
327.24	5133.6	
327.44	4915.1	
327.65	5784.1	
327.86	4618.2	
328.07	4184.7	
328.27	3416.7	
328.48	6230.6	
328.69	5074.2	
328.9	5212.8	
329.1	3898.6	
329.31	5330.9	
329.52	6353.5	
329.73	3572.3	
329.93	4067.3	
330.14	5488.6	
330.35	5715.2	
330.56	5904.3	
330.76	4418.8	
330.97	5292.6	
331.18	5869.5	
331.39	4040	
331.59	3196.2	
331.8	6106.4	
332.01	6173.9	
332.22	3738.2	
332.42	4298	
332.63	5563	
332.84	5186.8	
333.05	4021.5	
333.25	3680.9	
333.46	5216.2	
333.67	5512.4	
333.88	3764.8	
334.08	4216.8	
334.29	7332.4	
334.5	6171.2	
334.7	3452.2	
334.91	5150.6	
335.12	5054.4	
335.33	5899.5	
335.53	3973.7	
335.74	5924.1	
335.95	5247.6	
336.16	5136.3	
336.36	4050.9	
336.57	4583.4	
336.78	4965	
336.98	6100.2	
337.19	4942.4	
337.4	3900.7	
337.61	6657.3	
337.81	5005.2	
338.02	3667.9	
338.23	4764.3	
338.43	6262	
338.64	5102.2	
338.85	3614.7	
339.05	4764.3	
339.26	6399.9	
339.47	4939.7	
339.68	3580.5	
339.88	5474.9	
340.09	5759.6	
340.3	5956.9	
340.5	4219.5	
340.71	3174.4	
340.92	4938.3	
341.13	6238.1	
341.33	3532.1	
341.54	4266.6	
341.75	5694.7	
341.95	5328.1	
342.16	4059.1	
342.37	4403.1	
342.57	5046.9	
342.78	5491.3	
342.99	4407.9	
343.19	3177.8	
343.4	5924.1	
343.61	5700.2	
343.81	3861.1	
344.02	3543.7	
344.23	5881.8	
344.43	6366.5	
344.64	4492.6	
344.85	4354.7	
345.06	5720.7	
345.26	6131.6	
345.47	4147.8	
345.68	4897.4	
345.88	4833.9	
346.09	6057.2	
346.3	4234.5	
346.5	3189.4	
346.71	5473.5	
346.92	5174.5	
347.12	3275.4	
347.33	4125.3	
347.54	6027.9	
347.74	6444.3	
347.95	4117.1	
348.16	3034.4	
348.36	5251.7	
348.57	5006.6	
348.78	4041.3	
348.98	4412.7	
349.19	5371.8	
349.39	4920.6	
349.6	3272	
349.81	3701.4	
350.01	5709.1	
350.22	5166.3	
350.43	3999.7	
350.63	4816.1	
350.84	5518.6	
351.05	5284.4	
351.25	3583.9	
351.46	3248.1	
351.67	6057.9	
351.87	5154.1	
352.08	3885	
352.29	4403.8	
352.49	5944.6	
352.7	6047	
352.9	3514.3	
353.11	4389.5	
353.32	6607.4	
353.52	5223	
353.73	3432.4	
353.94	4456.4	
354.14	5765.7	
354.35	5580.7	
354.55	3563.5	
354.76	3952.6	
354.97	5688.6	
355.17	5541.8	
355.38	3320.4	
355.59	4711	
355.79	5085.1	
356	5519.3	
356.2	3922.5	
356.41	3394.8	
356.62	4844.8	
356.82	5395.7	
357.03	4163.5	
357.24	3716.4	
357.44	5114.5	
357.65	5253.7	
357.85	5070.8	
358.06	4017.4	
358.27	4827.7	
358.47	5082.4	
358.68	3277.4	
358.88	4150.6	
359.09	5696.1	
359.3	6028.5	
359.5	4895.3	
359.71	4358.1	
359.91	6524.1	
360.12	5778.7	
360.33	4121.9	
360.53	4600.4	
360.74	5109	
360.94	5177.9	
361.15	4397	
361.36	3558.7	
361.56	5903.6	
361.77	5286.5	
361.97	4887.1	
362.18	3802.4	
362.38	5897.5	
362.59	4952.7	
362.8	3451.5	
363	3317	
363.21	4741	
363.41	5442.8	
363.62	4055	
363.83	5096.7	
364.03	5427.8	
364.24	6522.8	
364.44	5152.7	
364.65	5189.6	
364.85	5259.9	
365.06	4896	
365.27	3666.5	
365.47	3724.6	
365.68	6334.4	
365.88	5187.5	
366.09	4103.4	
366.29	3695.2	
366.5	5457.8	
366.71	5936.4	
366.91	5036.6	
367.12	4250.2	
367.32	6485.9	
367.53	5769.1	
367.73	4130.8	
367.94	5148.6	
368.14	5700.2	
368.35	6713.2	
368.56	4166.9	
368.76	3904.1	
368.97	5801.9	
369.17	7541.3	
369.38	3596.2	
369.58	3867.9	
369.79	4806.6	
369.99	6191.7	
370.2	4952.7	
370.4	3954.6	
370.61	5515.9	
370.82	6772.6	
371.02	3859.1	
371.23	3184.6	
371.43	4738.3	
371.64	6118.6	
371.84	3884.3	
372.05	5150	
372.25	7430.7	
372.46	5800.5	
372.66	3880.2	
372.87	3773.7	
373.07	5891.3	
373.28	7495.6	
373.48	4896	
373.69	4579.9	
373.9	5306.3	
374.1	5264.6	
374.31	4718.5	
374.51	4288.4	
374.72	6127.5	
374.92	4937.7	
375.13	4885.1	
375.33	4128	
375.54	5703.6	
375.74	5032.5	
375.95	4149.9	
376.15	5465.3	
376.36	5651.7	
376.56	5447.6	
376.77	4227.7	
376.97	4691.9	
377.18	6623.8	
377.38	5728.9	
377.59	5015.5	
377.79	3658.4	
378	5484.5	
378.2	5896.8	
378.41	3729.4	
378.61	3570.3	
378.82	5976	
379.02	5008	
379.23	3891.8	
379.43	4982.7	
379.64	6029.9	
379.84	5595.1	
380.05	3674.7	
380.25	3658.4	
380.46	5653.1	
380.66	5286.5	
380.87	5044.1	
381.07	5444.9	
381.28	6337.8	
381.48	5730.9	
381.69	3671.3	
381.89	3805.1	
382.1	4668.7	
382.3	5977.3	
382.51	4921.3	
382.71	5728.2	
382.91	5771.2	
383.12	6350.8	
383.32	4141.7	
383.53	4405.9	
383.73	5628.5	
383.94	5459.9	
384.14	4230.4	
384.35	3388.7	
384.55	5342.5	
384.76	5790.3	
384.96	4096.6	
385.17	4476.2	
385.37	5743.9	
385.58	5107.6	
385.78	4457.7	
385.98	3298.6	
386.19	5283.8	
386.39	5667.4	
386.6	3816	
386.8	4160.1	
387.01	5799.8	
387.21	5811.5	
387.42	4564.2	
387.62	5173.9	
387.83	5052.3	
388.03	5756.8	
388.23	4145.8	
388.44	5014.8	
388.64	4681.7	
388.85	4832.5	
389.05	4504.2	
389.26	5113.8	
389.46	6679.1	
389.67	6097.5	
389.87	4418.2	
390.07	4547.2	
390.28	5255.8	
390.48	4918.5	
390.69	3633.1	
390.89	3908.2	
391.1	5068	
391.3	6081.1	
391.5	5247.6	
391.71	5832.6	
391.91	5724.1	
392.12	6791.7	
392.32	5306.3	
392.53	4484.4	
392.73	5150.6	
392.93	5410.7	
393.14	4099.4	
393.34	4949.9	
393.55	5932.3	
393.75	5334.3	
393.95	4203.8	
394.16	4073.4	
394.36	5083.1	
394.57	5789.6	
394.77	3594.9	
394.98	4044.1	
395.18	4997.7	
395.38	5113.8	
395.59	4891.9	
395.79	3793.5	
396	5115.8	
396.2	5659.9	
396.4	4550.6	
396.61	4582	
396.81	5813.5	
397.02	5058.5	
397.22	4847.5	
397.42	4918.5	
397.63	5739.8	
397.83	4958.8	
398.04	3738.2	
398.24	4228.4	
398.44	5581.4	
398.65	4499.4	
398.85	3524.6	
399.05	3631	
399.26	4824.3	
399.46	6657.3	
399.67	4021.5	
399.87	3713	
400.07	5238	
400.28	5591	
400.48	3774.4	
400.69	4878.9	
400.89	5784.8	
401.09	6243.6	
401.3	3607.8	
401.5	4846.2	
401.7	6493.4	
401.91	6768.5	
402.11	4013.3	
402.32	4300.1	
402.52	5870.8	
402.72	5752.7	
402.93	4480.3	
403.13	3330.7	
403.33	6623.1	
403.54	5391.6	
403.74	4258.4	
403.94	5110.4	
404.15	5438	
404.35	6603.3	
404.56	4028.4	
404.76	5909.1	
404.96	5823.1	
405.17	5644.2	
405.37	4865.3	
405.57	4481.6	
405.78	5881.8	
405.98	5310.4	
406.18	4001	
406.39	4845.5	
406.59	5832.6	
406.79	5472.9	
407	3705.5	
407.2	3825.6	
407.4	5862.7	
407.61	5988.9	
407.81	3831.1	
408.01	6227.2	
408.22	4713.1	
408.42	6729.6	
408.62	4767.7	
408.83	4248.9	
409.03	5296	
409.23	5008	
409.44	4316.4	
409.64	4574.5	
409.84	6148.7	
410.05	5984.8	
410.25	4334.9	
410.45	4115.1	
410.66	5339.7	
410.86	7949.5	
411.06	4379.2	
411.27	4320.5	
411.47	7606.2	
411.67	5489.2	
411.88	4598.4	
412.08	4733.5	
412.28	6166.4	
412.49	6638.8	
412.69	4209.9	
412.89	4207.9	
413.09	6447	
413.3	6285.2	
413.5	4319.8	
413.7	3882.9	
413.91	5499.5	
414.11	6372.6	
414.31	4151.2	
414.52	4489.1	
414.72	6024.4	
414.92	5897.5	
415.12	4098	
415.33	4667.3	
415.53	6223.1	
415.73	6552.8	
415.94	4990.9	
416.14	4449.6	
416.34	5246.2	
416.55	5033.9	
416.75	5614.8	
416.95	4999.1	
417.15	6204	
417.36	6993.8	
417.56	5810.8	
417.76	4788.2	
417.97	6627.2	
418.17	6229.2	
418.37	4336.2	
418.57	4468	
418.78	6006.7	
418.98	5685.2	
419.18	5311.7	
419.38	5248.3	
419.59	5784.1	
419.79	5378	
419.99	4229.1	
420.2	4694.6	
420.4	6263.4	
420.6	6499.6	
420.8	4199	
421.01	4126	
421.21	6008.7	
421.41	6195.8	
421.61	4653	
421.82	4316.4	
422.02	5622.4	
422.22	6565.1	
422.42	5154.1	
422.63	4807.3	
422.83	5726.1	
423.03	6949.4	
423.23	4865.3	
423.44	3762.1	
423.64	5821	
423.84	5603.2	
424.04	4241.3	
424.25	3921.2	
424.45	6843.6	
424.65	6748.1	
424.85	3702	
425.06	4304.1	
425.26	6750.8	
425.46	5250.3	
425.66	4866	
425.87	4508.3	
426.07	6523.5	
426.27	6352.1	
426.47	4665.3	
426.67	3984.7	
426.88	6903.7	
427.08	6319.3	
427.28	4824.3	
427.48	3978.5	
427.69	5171.1	
427.89	5802.6	
428.09	4882.4	
428.29	3969.6	
428.5	6571.9	
428.7	6012.8	
428.9	3879.5	
429.1	4526.7	
429.3	5946.6	
429.51	6441.5	
429.71	4221.5	
429.91	5011.4	
430.11	6228.6	
430.31	6460	
430.52	4439.3	
430.72	4738.3	
430.92	6842.9	
431.12	6272.2	
431.32	4156	
431.53	4543.8	
431.73	5113.8	
431.93	6926.2	
432.13	4067.9	
432.33	3868.6	
432.54	5606	
432.74	5934.3	
432.94	3735.5	
433.14	4846.2	
433.34	6088.6	
433.55	5523.4	
433.75	4787.5	
433.95	6557.6	
434.15	5945.3	
434.35	5481	
434.56	4038.6	
434.76	3413.3	
434.96	5848.3	
435.16	6103.6	
435.36	3846.8	
435.56	4960.9	
435.77	5356.8	
435.97	5593.7	
436.17	5633.3	
436.37	4845.5	
436.57	5421.7	
436.78	5239.4	
436.98	6795.8	
437.18	5455.8	
437.38	6012.8	
437.58	5611.4	
437.78	5677.7	
437.99	4250.9	
438.19	6222.4	
438.39	6991.1	
438.59	4173.1	
438.79	3702.7	
438.99	6873	
439.2	5640.8	
439.4	3857	
439.6	3706.1	
439.8	5875.6	
440	7008.1	
440.2	4783.4	
440.4	4843.4	
440.61	6295.5	
440.81	6789	
441.01	3824.9	
441.21	4741	
441.41	6551.5	
441.61	6206.7	
441.81	4962.2	
442.02	6075.6	
442.22	7120.8	
442.42	6283.9	
442.62	3849.5	
442.82	3928	
443.02	6596.5	
443.22	5644.9	
443.43	4338.3	
443.63	3883.6	
443.83	5481	
444.03	5531.6	
444.23	5096	
444.43	4728.1	
444.63	5792.3	
444.83	7052.5	
445.04	3943	
445.24	5311.7	
445.44	6185.5	
445.64	6327.5	
445.84	4910.3	
446.04	4814.8	
446.24	5604.6	
446.44	6641.6	
446.65	4037.2	
446.85	4405.9	
447.05	5768.4	
447.25	6520.7	
447.45	4456.4	
447.65	3865.2	
447.85	5935.7	
448.05	5606.7	
448.25	4928.1	
448.46	4767	
448.66	5857.9	
448.86	5649.7	
449.06	3669.3	
449.26	4865.3	
449.46	6299.6	
449.66	5250.3	
449.86	4336.2	
450.06	4329.4	
450.26	5433.9	
450.47	6043.6	
450.67	4631.1	
450.87	4990.2	
451.07	6116.6	
451.27	5882.4	
451.47	3885	
451.67	4453.6	
451.87	5484.5	
452.07	6737.8	
452.27	4087.7	
452.47	4189.5	
452.67	5930.9	
452.88	6495.5	
453.08	3528.7	
453.28	5570.5	
453.48	7047.7	
453.68	5831.9	
453.88	3966.2	
454.08	4318.5	
454.28	6138.4	
454.48	5776	
454.68	4846.2	
454.88	5246.2	
455.08	6286.6	
455.28	5915.2	
455.48	3871.3	
455.68	4439.3	
455.89	6664.1	
456.09	6327.5	
456.29	4141	
456.49	4145.8	
456.69	6501.6	
456.89	5781.4	
457.09	4638.6	
457.29	4978.6	
457.49	6044.9	
457.69	6141.2	
457.89	4330.8	
458.09	3844.7	
458.29	5820.3	
458.49	6505.7	
458.69	4850.3	
458.89	4146.5	
459.09	6628.6	
459.29	6782.2	
459.49	4352.6	
459.69	5158.2	
459.9	6283.9	
460.1	5686.5	
460.3	4181.3	
460.5	4009.2	
460.7	6169.8	
460.9	5862.7	
461.1	3595.6	
461.3	4855.1	
461.5	6784.2	
461.7	6358.3	
461.9	3892.5	
462.1	4469.4	
462.3	5756.8	
462.5	6435.4	
462.7	3900	
462.9	4037.9	
463.1	7372	
463.3	6992.4	
463.5	4223.6	
463.7	5083.1	
463.9	5786.2	
464.1	6271.6	
464.3	4199.7	
464.5	4520.5	
464.7	6498.2	
464.9	6057.2	
465.1	5848.3	
465.3	4814.8	
465.5	6839.5	
465.7	6715.3	
465.9	5058.5	
466.1	5023.7	
466.3	6545.3	
466.5	6365.1	
466.7	5631.9	
466.9	4536.9	
467.1	6260	
467.3	7256.6	
467.5	5622.4	
467.7	4430.4	
467.9	7501	
468.1	8286.8	
468.3	5343.2	
468.5	5632.6	
468.7	6092.7	
468.9	6124.1	
469.1	4647.5	
469.3	5395	
469.5	8141.4	
469.7	5654.4	
469.9	5299.5	
470.1	4389.5	
470.3	6122.7	
470.5	6192.4	
470.7	5717.2	
470.9	4524	
471.1	5874.9	
471.3	6468.9	
471.5	4300.1	
471.69	6403.3	
471.89	5856.5	
472.09	5359.5	
472.29	5135.6	
472.49	5755.5	
472.69	5563	
472.89	6444.3	
473.09	4258.4	
473.29	4499.4	
473.49	5747.3	
473.69	5976.7	
473.89	5509	
474.09	4683.7	
474.29	7298.3	
474.49	6952.2	
474.69	5417.6	
474.89	4790.9	
475.09	6037.4	
475.29	5993.7	
475.49	4304.1	
475.69	4415.4	
475.88	7757	
476.08	6292.7	
476.28	4083.6	
476.48	4706.2	
476.68	6850.5	
476.88	6720.8	
477.08	4459.1	
477.28	4814.1	
477.48	6107.7	
477.68	6789	
477.88	4300.1	
478.08	4631.8	
478.28	7076.4	
478.48	6260.6	
478.67	4732.9	
478.87	4204.5	
479.07	6840.2	
479.27	6406	
479.47	4962.9	
479.67	4924	
479.87	6683.2	
480.07	7295.5	
480.27	4084.3	
480.47	5832.6	
480.67	6405.4	
480.87	6991.8	
481.06	4374.5	
481.26	5272.8	
481.46	6279.1	
481.66	6284.5	
481.86	4915.1	
482.06	5971.9	
482.26	6009.4	
482.46	6948.8	
482.66	4888.5	
482.86	4420.9	
483.05	6330.3	
483.25	5704.3	
483.45	7359.7	
483.65	4817.5	
483.85	5955.5	
484.05	6162.3	
484.25	5246.2	
484.45	5670.8	
484.65	7122.2	
484.84	7137.9	
485.04	4674.8	
485.24	4705.5	
485.44	7325.6	
485.64	5652.4	
485.84	3871.3	
486.04	5375.9	
486.24	5944.6	
486.44	6347.3	
486.63	3879.5	
486.83	4663.2	
487.03	5822.4	
487.23	5964.4	
487.43	3955.3	
487.63	6410.8	
487.83	6043.6	
488.02	7040.2	
488.22	4872.8	
488.42	5485.1	
488.62	7054.6	
488.82	5803.9	
489.02	4560.8	
489.22	4547.9	
489.41	6817.7	
489.61	6397.9	
489.81	4296.6	
490.01	4231.1	
490.21	6664.8	
490.41	7393.8	
490.61	4248.2	
490.8	4444.8	
491	6147.3	
491.2	5569.8	
491.4	5048.2	
491.6	4114.4	
491.8	6212.9	
491.99	6410.8	
492.19	3925.3	
492.39	4367.6	
492.59	6753.5	
492.79	6731	
492.99	5154.7	
493.18	4219.5	
493.38	6816.3	
493.58	7447.8	
493.78	4892.6	
493.98	4482.3	
494.18	6357.6	
494.37	5722	
494.57	4987.5	
494.77	4896	
494.97	6531.7	
495.17	6793.1	
495.37	4393.6	
495.56	4755.4	
495.76	6821.8	
495.96	6466.1	
496.16	5662	
496.36	4466.6	
496.55	6661.4	
496.75	6138.4	
496.95	4942.4	
497.15	4725.3	
497.35	6680.5	
497.54	6565.8	
497.74	4551.3	
497.94	6286.6	
498.14	7346.7	
498.34	7172.7	
498.53	4175.8	
498.73	4984.1	
498.93	5933.6	
499.13	6513.2	
499.33	4721.3	
499.52	5068	
499.72	6392.4	
499.92	6787.7	
500.12	4382	
500.32	4616.8	
500.51	6680.5	
500.71	6438.8	
500.91	5418.2	
501.11	5103.5	
501.31	6668.9	
501.5	7134.4	
501.7	5760.3	
501.9	4663.9	
502.1	6491.4	
502.29	6767.2	
502.49	5167.7	
502.69	5730.9	
502.89	6732.4	
503.09	6627.9	
503.28	4276.2	
503.48	4394.3	
503.68	5898.8	
503.88	5980.8	
504.07	5410.7	
504.27	4904.9	
504.47	6356.9	
504.67	6533.7	
504.86	5251	
505.06	5079	
505.26	6126.2	
505.46	7969.3	
505.65	4960.2	
505.85	5191.6	
506.05	6120	
506.25	6522.1	
506.44	4300.1	
506.64	5335.6	
506.84	6032	
507.04	6991.1	
507.23	4607.2	
507.43	5251.7	
507.63	8105.9	
507.83	6289.3	
508.02	5246.2	
508.22	4831.2	
508.42	8344.8	
508.62	6034	
508.81	5078.3	
509.01	5586.2	
509.21	6017.6	
509.4	6189	
509.6	5350.7	
509.8	4499.4	
510	6195.1	
510.19	7692.9	
510.39	4603.2	
510.59	4715.1	
510.79	5966.4	
510.98	7376.8	
511.18	4710.3	
511.38	4760.2	
511.57	6857.3	
511.77	6734.4	
511.97	5575.3	
512.17	4420.2	
512.36	6827.2	
512.56	6871.6	
512.76	4565.6	
512.95	4285	
513.15	6940.6	
513.35	5537	
513.55	5484.5	
513.74	4610	
513.94	6918	
514.14	6230.6	
514.33	5557.5	
514.53	5264.6	
514.73	6210.1	
514.92	6406	
515.12	4735.6	
515.32	4452.3	
515.51	6491.4	
515.71	7059.3	
515.91	6363.7	
516.11	4600.4	
516.3	8183	
516.5	6027.9	
516.7	5128.8	
516.89	5768.4	
517.09	6178	
517.29	6098.2	
517.48	5452.4	
517.68	4853.7	
517.88	5856.5	
518.07	6524.1	
518.27	5339.1	
518.47	4379.9	
518.66	7190.4	
518.86	5664	
519.06	4274.1	
519.25	4675.5	
519.45	6029.9	
519.65	7559.1	
519.84	5355.4	
520.04	6081.1	
520.24	8052.6	
520.43	6764.4	
520.63	5117.9	
520.83	4820.9	
521.02	5938.4	
521.22	6685.3	
521.42	5398.4	
521.61	5948.7	
521.81	6217	
522.01	6477.7	
522.2	5210.7	
522.4	4947.2	
522.6	6840.2	
522.79	5651	
522.99	5021.6	
523.18	4220.9	
523.38	6472.9	
523.58	6418.3	
523.77	6215.6	
523.97	4168.3	
524.17	8419.9	
524.36	7483.3	
524.56	5603.9	
524.76	5143.1	
524.95	6360.3	
525.15	6003.3	
525.34	4889.2	
525.54	4854.4	
525.74	6597.9	
525.93	5646.9	
526.13	5985.5	
526.33	4744.5	
526.52	7025.9	
526.72	6440.2	
526.91	6032.6	
527.11	5213.4	
527.31	7016.3	
527.5	7350.2	
527.7	5152.7	
527.89	4156	
528.09	5797.1	
528.29	6335	
528.48	5479.7	
528.68	5215.5	
528.87	6750.1	
529.07	6903.7	
529.27	5081	
529.46	4584.7	
529.66	6443.6	
529.85	6943.3	
530.05	4401.1	
530.25	5264	
530.44	7820.5	
530.64	6417	
530.83	4863.2	
531.03	5020.3	
531.23	6763.8	
531.42	6661.4	
531.62	5812.8	
531.81	4995	
532.01	6810.2	
532.21	7273	
532.4	4549.2	
532.6	4945.8	
532.79	7608.2	
532.99	6825.2	
533.18	4983.4	
533.38	6043.6	
533.58	6312.5	
533.77	7136.5	
533.97	4914.4	
534.16	5690.6	
534.36	7223.2	
534.55	6266.8	
534.75	5828.5	
534.95	4900.1	
535.14	7083.9	
535.34	6326.2	
535.53	4595	
535.73	6670.2	
535.92	7757	
536.12	6601.3	
536.31	4797.7	
536.51	6047.7	
536.71	6806.8	
536.9	6401.3	
537.1	4915.1	
537.29	4968.4	
537.49	7310.6	
537.68	6275	
537.88	5436.7	
538.07	4583.4	
538.27	6496.8	
538.46	7553.6	
538.66	4601.1	
538.86	4869.4	
539.05	6560.3	
539.25	6911.9	
539.44	5198.4	
539.64	4842.1	
539.83	6432.7	
540.03	7430.7	
540.22	4715.1	
540.42	4913.8	
540.61	6770.6	
540.81	6787	
541	5453.1	
541.2	6017.6	
541.39	6202.6	
541.59	6632.7	
541.78	5689.3	
541.98	4816.8	
542.18	5935	
542.37	5997.1	
542.57	5274.9	
542.76	5742.5	
542.96	6078.4	
543.15	6872.3	
543.35	5403.9	
543.54	4595.6	
543.74	7208.2	
543.93	6726.9	
544.13	5287.9	
544.32	6475	
544.52	7129.7	
544.71	6257.2	
544.91	4476.9	
545.1	5817.6	
545.3	6318	
545.49	7097.6	
545.69	4464.6	
545.88	5066	
546.08	7832.8	
546.27	7548.1	
546.47	5599.1	
546.66	4791.6	
546.86	7318.8	
547.05	7967.3	
547.24	5117.2	
547.44	4919.2	
547.63	6233.3	
547.83	7385.7	
548.02	5382.7	
548.22	5507	
548.41	6077	
548.61	7418.4	
548.8	4877.6	
549	4844.8	
549.19	6755.6	
549.39	6984.3	
549.58	4592.9	
549.78	5207.3	
549.97	7172	
550.17	6668.2	
550.36	6959.7	
550.55	7251.2	
550.75	6706.4	
550.94	7623.9	
551.14	4894	
551.33	5375.2	
551.53	5926.1	
551.72	6981.5	
551.92	5340.4	
552.11	5048.2	
552.31	7053.2	
552.5	7201.3	
552.69	6908.5	
552.89	4794.3	
553.08	7053.2	
553.28	6752.8	
553.47	5176.6	
553.67	6322.8	
553.86	7824.6	
554.06	6072.2	
554.25	4295.3	
554.44	4969.1	
554.64	8632.2	
554.83	8049.2	
555.03	4902.2	
555.22	5328.1	
555.42	7310.6	
555.61	6974	
555.8	5106.3	
556	5446.2	
556.19	6128.9	
556.39	7430	
556.58	5183.4	
556.78	5225.7	
556.97	6873.7	
557.16	6604	
557.36	6461.3	
557.55	4838	
557.75	5873.6	
557.94	7774.1	
558.13	4939.7	
558.33	4741.7	
558.52	7537.9	
558.72	6360.3	
558.91	4823.6	
559.1	5086.5	
559.3	6100.2	
559.49	5789.6	
559.69	4435.9	
559.88	5459.9	
560.07	6909.8	
560.27	7342.7	
560.46	5706.3	
560.66	5832.6	
560.85	6757.6	
561.04	5980.8	
561.24	4825.7	
561.43	5096.7	
561.63	6181.5	
561.82	6431.3	
562.01	6409.5	
562.21	5410.7	
562.4	6907.8	
562.59	7875.8	
562.79	5240.8	
562.98	4820.9	
563.18	6782.2	
563.37	8348.2	
563.56	5685.8	
563.76	4753.3	
563.95	6252.4	
564.14	6161.7	
564.34	5091.9	
564.53	4930.8	
564.73	6781.5	
564.92	7103	
565.11	5247.6	
565.31	4625.7	
565.5	7381.6	
565.69	6318	
565.89	4906.3	
566.08	5111.7	
566.27	7208.2	
566.47	7567.9	
566.66	5819	
566.85	4437.9	
567.05	6780.1	
567.24	6171.2	
567.44	4767	
567.63	6199.9	
567.82	7019.8	
568.02	6785.6	
568.21	4769	
568.4	5160.9	
568.6	6610.2	
568.79	6599.2	
568.98	4554.7	
569.18	4777.2	
569.37	6482.5	
569.56	8696.4	
569.76	5110.4	
569.95	6108.4	
570.14	6989.7	
570.34	6916.7	
570.53	4627.7	
570.72	4612.7	
570.91	7422.5	
571.11	6563.1	
571.3	5144.5	
571.49	6125.5	
571.69	6524.1	
571.88	6171.9	
572.07	5681.1	
572.27	5683.1	
572.46	6163	
572.65	7125.6	
572.85	4799.8	
573.04	5242.1	
573.23	7387	
573.43	6670.9	
573.62	4540.3	
573.81	5267.4	
574	6614.9	
574.2	6413.6	
574.39	4861.2	
574.58	5080.3	
574.78	7495.6	
574.97	6705.7	
575.16	5437.4	
575.36	5663.3	
575.55	7023.2	
575.74	7262.1	
575.93	4507.6	
576.13	5571.8	
576.32	6510.5	
576.51	6984.9	
576.71	4858.5	
576.9	6257.9	
577.09	7426.6	
577.28	6845	
577.48	5489.9	
577.67	4422.2	
577.86	6470.9	
578.05	6754.9	
578.25	5041.4	
578.44	5211.4	
578.63	6584.2	
578.83	7800	
579.02	4484.4	
579.21	6053.8	
579.4	6800.6	
579.6	6440.9	
579.79	5235.3	
579.98	7428.7	
580.17	7164.5	
580.37	7221.8	
580.56	4730.8	
580.75	5470.1	
580.94	7626.6	
581.14	7513.3	
581.33	5890.6	
581.52	4793.6	
581.71	6950.8	
581.91	7699	
582.1	4403.1	
582.29	5120.6	
582.48	6658.6	
582.68	6513.9	
582.87	5608.7	
583.06	5134.3	
583.25	6867.5	
583.45	6255.2	
583.64	5846.3	
583.83	6621.8	
584.02	6482.5	
584.21	6835.4	
584.41	5876.3	
584.6	5120.6	
584.79	6591.7	
584.98	7414.3	
585.18	4536.3	
585.37	4641.4	
585.56	6136.4	
585.75	6993.8	
585.94	4861.9	
586.14	5496.1	
586.33	7655.3	
586.52	6588.3	
586.71	5345.2	
586.91	5074.9	
587.1	6021	
587.29	7191.8	
587.48	5134.3	
587.67	4934.2	
587.87	7038.9	
588.06	7197.9	
588.25	6432.7	
588.44	5670.8	
588.63	6718	
588.83	7363.1	
589.02	5179.3	
589.21	5070.8	
589.4	6551.5	
589.59	6448.4	
589.78	4433.2	
589.98	4751.3	
590.17	6181.5	
590.36	6823.8	
590.55	4208.6	
590.74	5194.3	
590.94	8241	
591.13	6807.4	
591.32	4843.4	
591.51	4379.2	
591.7	7210.2	
591.89	6602	
592.09	4476.9	
592.28	4975.9	
592.47	5906.3	
592.66	7748.8	
592.85	4454.3	
593.05	4730.1	
593.24	6530.3	
593.43	7243.7	
593.62	4662.5	
593.81	5253	
594	6464.8	
594.19	6758.3	
594.39	4696	
594.58	4623.6	
594.77	6830.7	
594.96	7462.8	
595.15	4582	
595.34	5292.6	
595.54	6951.5	
595.73	6070.9	
595.92	3970.3	
596.11	5220.3	
596.3	7494.9	
596.49	6107.7	
596.68	4984.8	
596.88	5468.1	
597.07	7219.8	
597.26	5932.3	
597.45	4440.7	
597.64	5728.9	
597.83	6203.3	
598.02	6842.3	
598.22	4522.6	
598.41	5292	
598.6	6673	
598.79	6141.2	
598.98	4592.9	
599.17	5550.7	
599.36	6588.3	
599.55	7948.2	
599.74	6781.5	
599.94	6475	
600.13	7287.4	
600.32	5985.5	
600.51	4368.3	
600.7	4506.2	
600.89	7976.8	
601.08	7987.1	
601.27	4308.9	
601.47	5323.4	
601.66	7154.9	
601.85	7832.1	
602.04	4973.8	
602.23	5253.7	
602.42	6290.7	
602.61	6901	
602.8	4990.9	
602.99	4692.6	
603.18	6552.1	
603.37	6843.6	
603.57	5415.5	
603.76	5946.6	
603.95	7586.4	
604.14	7182.9	
604.33	4783.4	
604.52	5154.7	
604.71	6833.4	
604.9	6367.8	
605.09	5763	
605.28	5578	
605.47	7354.9	
605.66	7103.7	
605.86	5394.3	
606.05	4868.7	
606.24	7361.1	
606.43	5905	
606.62	5100.1	
606.81	5957.5	
607	7221.8	
607.19	6533	
607.38	4564.2	
607.57	4783.4	
607.76	6293.4	
607.95	5810.8	
608.14	5279.7	
608.33	5922	
608.52	6363.7	
608.72	7172	
608.91	4507.6	
609.1	4468	
609.29	6498.2	
609.48	5970.5	
609.67	5477.6	
609.86	4523.3	
610.05	6062	
610.24	6468.9	
610.43	4301.4	
610.62	4020.2	
610.81	7661.5	
611	7313.3	
611.19	4442	
611.38	5290.6	
611.57	6760.3	
611.76	8112	
611.95	4252.3	
612.14	4177.9	
612.33	6531	
612.52	6044.9	
612.71	4838.7	
612.9	4024.9	
613.09	5627.8	
613.28	8041	
613.47	4579.9	
613.66	5612.1	
613.85	6673.6	
614.04	6219	
614.24	4692.6	
614.43	3888.4	
614.62	6875	
614.81	6768.5	
615	5264.6	
615.19	5244.2	
615.38	6041.5	
615.57	6399.2	
615.76	5165.7	
615.95	6046.3	
616.14	6809.5	
616.33	6438.1	
616.52	5474.2	
616.71	5724.1	
616.9	6707.1	
617.09	6640.2	
617.28	4710.3	
617.47	5974.6	
617.66	5840.8	
617.85	5840.8	
618.04	5665.4	
618.22	5053.7	
618.41	6196.5	
618.6	7033.4	
618.79	4948.6	
618.98	4575.8	
619.17	7337.9	
619.36	5640.8	
619.55	4817.5	
619.74	4811.4	
619.93	6538.5	
620.12	5944.6	
620.31	5328.8	
620.5	5515.2	
620.69	7279.8	
620.88	7535.2	
621.07	6313.2	
621.26	5219.6	
621.45	6748.7	
621.64	6715.3	
621.83	5324.7	
622.02	4491.9	
622.21	6782.9	
622.4	6478.4	
622.59	5893.4	
622.78	5590.3	
622.97	6085.2	
623.16	7172	
623.35	5150.6	
623.54	4352.6	
623.72	6386.2	
623.91	6506.4	
624.1	5543.9	
624.29	4074.8	
624.48	7580.2	
624.67	6771.9	
624.86	5365.7	
625.05	4414.7	
625.24	7663.5	
625.43	5978.7	
625.62	7165.2	
625.81	4635.9	
626	7126.2	
626.19	6257.9	
626.38	5429.8	
626.56	4799.1	
626.75	6169.2	
626.94	6903.7	
627.13	5471.5	
627.32	4100	
627.51	6836.8	
627.7	8137.9	
627.89	4323.3	
628.08	5450.3	
628.27	6009.4	
628.46	6244.9	
628.65	4659.1	
628.83	4220.2	
629.02	6804	
629.21	6064	
629.4	5055.1	
629.59	5216.2	
629.78	6062	
629.97	7015.7	
630.16	5309.7	
630.35	4719.2	
630.54	7342.7	
630.72	7143.3	
630.91	4714.4	
631.1	5365.7	
631.29	6619	
631.48	6821.8	
631.67	5438.7	
631.86	4836.6	
632.05	6181.5	
632.24	6232.7	
632.42	4461.8	
632.61	5111.7	
632.8	6359.6	
632.99	5971.2	
633.18	5078.3	
633.37	5555.5	
633.56	6567.2	
633.75	6440.9	
633.93	5109.7	
634.12	4758.8	
634.31	7509.2	
634.5	7051.8	
634.69	4906.3	
634.88	5444.2	
635.07	6316.6	
635.25	7027.9	
635.44	5805.3	
635.63	5989.6	
635.82	6186.2	
636.01	5714.5	
636.2	5739.8	
636.39	5229.8	
636.57	7422.5	
636.76	7169.3	
636.95	4620.2	
637.14	6132.3	
637.33	6772.6	
637.52	7669	
637.7	4450.2	
637.89	5455.1	
638.08	6284.5	
638.27	7844.4	
638.46	5520	
638.65	6014.2	
638.83	7847.8	
639.02	6116.6	
639.21	5424.4	
639.4	5997.1	
639.59	6701.6	
639.78	6206	
639.96	4697.4	
640.15	4730.1	
640.34	6517.3	
640.53	6716	
640.72	4493.2	
640.91	4853	
641.09	5905	
641.28	7336.5	
641.47	4790.2	
641.66	5614.2	
641.85	6689.3	
642.03	7043.6	
642.22	5480.4	
642.41	4926	
642.6	6136.4	
642.79	5524.7	
642.97	4786.8	
643.16	5523.4	
643.35	6096.1	
643.54	6002.6	
643.73	4705.5	
643.91	5563.6	
644.1	5817.6	
644.29	6520.7	
644.48	4771.8	
644.67	4900.1	
644.85	6074.3	
645.04	6457.9	
645.23	4434.5	
645.42	4742.4	
645.6	5999.9	
645.79	7187	
645.98	4732.2	
646.17	3838.6	
646.36	5777.3	
646.54	6478.4	
646.73	5685.2	
646.92	4442.7	
647.11	6132.3	
647.29	7159	
647.48	4595	
647.67	4412.7	
647.86	7445	
648.05	7439.6	
648.23	4886.5	
648.42	6211.5	
648.61	6771.9	
648.8	6506.4	
648.98	4588.8	
649.17	4846.9	
649.36	6102.9	
649.55	5556.1	
649.73	4591.5	
649.92	5367.7	
650.11	5933.6	
650.3	6378.7	
650.48	4792.2	
650.67	4429.1	
650.86	6649.8	
651.05	5479.7	
651.23	4655.7	
651.42	4606.6	
651.61	6006.7	
651.79	6201.2	
651.98	4812	
652.17	4511	
652.36	6600.6	
652.54	5594.4	
652.73	4579.3	
652.92	4362.2	
653.11	6567.8	
653.29	6737.1	
653.48	3867.2	
653.67	5014.8	
653.85	6446.3	
654.04	7516	
654.23	5233.9	
654.42	4733.5	
654.6	6066.1	
654.79	6688.7	
654.98	4248.9	
655.16	4823	
655.35	5606.7	
655.54	5620.3	
655.73	4354	
655.91	4303.5	
656.1	6774.7	
656.29	5493.3	
656.47	3828.3	
656.66	5622.4	
656.85	5759.6	
657.03	5855.1	
657.22	4355.3	
657.41	4393.6	
657.59	5881.1	
657.78	5679	
657.97	3989.4	
658.16	4816.1	
658.34	6556.9	
658.53	7000	
658.72	5699.5	
658.9	6311.8	
659.09	5889.3	
659.28	6057.9	
659.46	4497.3	
659.65	4444.8	
659.84	5790.3	
660.02	6298.9	
660.21	4339	
660.4	4282.3	
660.58	6711.9	
660.77	6096.1	
660.96	4904.2	
661.14	3880.9	
661.33	7305.8	
661.52	7168.6	
661.7	3863.2	
661.89	7718.1	
662.08	5679	
662.26	5267.4	
662.45	4211.3	
662.64	4379.2	
662.82	6475.7	
663.01	5629.2	
663.2	4416.1	
663.38	5109	
663.57	6349.4	
663.75	6178.7	
663.94	4696	
664.13	5996.5	
664.31	5713.8	
664.5	6460	
664.69	5077.6	
664.87	5547.9	
665.06	5474.2	
665.25	6221.7	
665.43	5803.9	
665.62	5891.3	
665.8	6624.5	
665.99	5939.1	
666.18	4658.4	
666.36	4839.4	
666.55	6619	
666.74	6447	
666.92	4345.8	
667.11	6070.2	
667.29	5891.3	
667.48	6462	
667.67	5653.1	
667.85	4758.1	
668.04	5924.8	
668.22	5967.1	
668.41	4792.9	
668.6	4943.8	
668.78	5716.6	
668.97	5978.7	
669.15	5153.4	
669.34	4121.2	
669.53	5691.3	
669.71	6129.6	
669.9	4341.7	
670.08	5020.3	
670.27	5744.6	
670.46	6329.6	
670.64	5193.6	
670.83	5529.5	
671.01	5613.5	
671.2	6372.6	
671.38	4317.8	
671.57	4200.4	
671.76	6997.9	
671.94	7525.6	
672.13	4200.4	
672.31	5442.8	
672.5	6485.2	
672.69	5758.2	
672.87	4354	
673.06	4741	
673.24	6333.7	
673.43	5782.8	
673.61	5197.1	
673.8	4682.3	
673.98	6517.3	
674.17	6685.3	
674.36	5314.5	
674.54	5171.1	
674.73	6312.5	
674.91	6466.8	
675.1	4861.9	
675.28	4483.7	
675.47	6036	
675.65	6574	
675.84	4694.6	
676.03	5063.3	
676.21	5787.6	
676.4	5329.5	
676.58	5582.1	
676.77	5210.7	
676.95	7256.6	
677.14	5782.1	
677.32	4374.5	
677.51	4154.6	
677.69	6525.5	
677.88	5396.4	
678.06	4216.8	
678.25	4380.6	
678.44	6024.4	
678.62	5744.6	
678.81	4064.5	
678.99	5064.6	
679.18	6849.1	
679.36	6444.3	
679.55	4685.1	
679.73	5330.9	
679.92	6357.6	
680.1	5800.5	
680.29	5988.3	
680.47	4737.6	
680.66	5732.9	
680.84	6547.4	
681.03	3870	
681.21	5110.4	
681.4	5828.5	
681.58	5621.7	
681.77	4496	
681.95	4382	
682.14	6609.5	
682.32	6991.1	
682.51	5369.1	
682.69	4249.5	
682.88	5711.8	
683.06	6449.7	
683.25	5010.7	
683.43	5522	
683.62	5992.4	
683.8	6468.2	
683.99	5661.3	
684.17	5007.3	
684.36	7520.1	
684.54	5993	
684.73	4175.8	
684.91	4474.1	
685.1	6457.2	
685.28	5786.2	
685.46	5085.8	
685.65	5155.4	
685.83	6711.2	
686.02	6074.3	
686.2	4517.1	
686.39	4646.8	
686.57	5869.5	
686.76	7385	
686.94	4491.9	
687.13	4706.2	
687.31	6513.2	
687.5	5937.7	
687.68	4070.7	
687.86	5393	
688.05	7815	
688.23	5471.5	
688.42	5411.4	
688.6	4532.8	
688.79	5860.6	
688.97	5820.3	
689.16	4967.7	
689.34	3835.8	
689.52	6626.5	
689.71	6887.3	
689.89	5233.2	
690.08	4528.7	
690.26	6100.9	
690.45	5930.2	
690.63	5463.3	
690.81	4644.1	
691	5878.4	
691.18	5803.9	
691.37	4814.8	
691.55	7034.8	
691.74	5806.7	
691.92	7894.9	
692.1	4881	
692.29	4307.6	
692.47	6012.8	
692.66	5313.1	
692.84	4454.3	
693.02	5043.5	
693.21	5384.1	
693.39	5941.8	
693.58	5106.3	
693.76	4552.6	
693.94	7146.7	
694.13	6905.8	
694.31	4454.3	
694.5	5541.8	
694.68	5710.4	
694.86	6036	
695.05	4812.7	
695.23	4881	
695.42	6389	
695.6	8891.6	
695.78	5464.7	
695.97	4514.4	
696.15	6449.7	
696.34	5893.4	
696.52	4285	
696.7	5185.5	
696.89	6234.7	
697.07	5643.5	
697.25	5122	
697.44	6737.8	
697.62	6212.2	
697.81	6602.7	
697.99	4842.8	
698.17	5281	
698.36	5531.6	
698.54	6264.1	
698.72	5102.9	
698.91	4090.5	
699.09	5798.5	
699.28	5743.2	
699.46	4851.6	
699.64	4714.4	
699.83	5615.5	
700.01	7032.7	
700.19	5520	
700.38	3915	
700.56	6940.6	
700.74	5725.4	
700.93	4230.4	
701.11	5087.8	
701.29	6323.4	
701.48	7385.7	
701.66	4447.5	
701.84	4486.4	
702.03	5819.6	
702.21	6472.9	
702.39	4061.1	
702.58	4664.6	
702.76	6279.1	
702.94	6443.6	
703.13	4097.3	
703.31	6640.9	
703.49	5535.7	
703.68	7061.4	
703.86	4287.8	
704.04	5272.8	
704.23	6120.7	
704.41	6519.4	
704.59	4431.1	
704.78	5720.7	
704.96	7155.6	
705.14	6556.9	
705.33	4187.4	
705.51	5156.1	
705.69	5855.1	
705.87	6741.2	
706.06	5413.5	
706.24	4161.5	
706.42	6234.7	
706.61	6520	
706.79	5392.3	
706.97	4227	
707.16	5614.2	
707.34	6341.9	
707.52	5437.4	
707.7	4463.9	
707.89	5920	
708.07	5539.1	
708.25	5373.9	
708.44	5508.4	
708.62	5722.7	
708.8	6996.5	
708.98	5658.5	
709.17	4560.8	
709.35	6217.6	
709.53	6245.6	
709.72	4255	
709.9	4470	
710.08	6526.9	
710.26	6537.1	
710.45	6051.7	
710.63	4592.9	
710.81	6147.3	
710.99	6152.8	
711.18	5319.3	
711.36	4791.6	
711.54	6027.9	
711.72	6836.1	
711.91	4928.8	
712.09	4345.1	
712.27	6272.9	
712.45	7043.6	
712.64	5201.8	
712.82	4185.4	
713	5714.5	
713.18	5922	
713.37	4394.3	
713.55	5643.5	
713.73	6886.6	
713.91	5481	
714.1	4842.1	
714.28	4379.2	
714.46	6642.2	
714.64	5809.4	
714.83	3900.7	
715.01	4784.1	
715.19	5953.4	
715.37	5326.1	
715.55	4472.1	
715.74	4811.4	
715.92	6979.5	
716.1	4924	
716.28	5958.9	
716.47	4986.1	
716.65	5625.8	
716.83	5739.8	
717.01	4792.9	
717.19	4881	
717.38	7901.7	
717.56	5358.9	
717.74	5087.2	
717.92	4131.4	
718.1	6662	
718.29	5731.6	
718.47	3690.4	
718.65	4415.4	
718.83	6418.3	
719.01	6249	
719.2	3528.7	
719.38	4605.2	
719.56	5976	
719.74	7645.8	
719.92	4215.4	
720.11	5356.8	
720.29	6149.4	
720.47	5236	
720.65	3895.2	
720.83	4859.8	
721.02	5677	
721.2	5444.9	
721.38	4876.9	
721.56	4107.5	
721.74	4934.2	
721.92	5185.5	
722.11	5472.2	
722.29	5128.8	
722.47	6407.4	
722.65	5601.2	
722.83	4169.7	
723.01	5144.5	
723.2	5658.5	
723.38	5948.7	
723.56	3521.8	
723.74	4743.1	
723.92	5201.2	
724.1	6414.9	
724.29	4065.9	
724.47	5310.4	
724.65	5200.5	
724.83	5147.2	
725.01	3975.8	
725.19	4919.2	
725.37	5225.7	
725.56	5325.4	
725.74	3819.5	
725.92	4107.5	
726.1	5086.5	
726.28	5433.3	
726.46	4567.7	
726.64	4258.4	
726.83	5403.9	
727.01	5709.7	
727.19	3792.2	
727.37	4653	
727.55	5525.4	
727.73	6152.1	
727.91	3706.8	
728.09	3583.9	
728.28	6135.7	
728.46	6792.4	
728.64	4801.1	
728.82	4685.8	
729	7223.9	
729.18	6440.9	
729.36	3790.8	
729.54	6361	
729.72	7447.8	
729.91	5649	
730.09	5841.5	
730.27	4513.7	
730.45	5532.2	
730.63	6186.2	
730.81	5139.7	
730.99	4093.9	
731.17	6722.1	
731.35	5221.6	
731.53	4734.9	
731.71	4334.9	
731.9	6462	
732.08	6739.9	
732.26	4624.3	
732.44	4197.7	
732.62	6709.1	
732.8	6150.7	
732.98	5023	
733.16	3988.8	
733.34	6221.7	
733.52	4901.5	
733.7	4578.6	
733.88	4872.8	
734.07	5991.7	
734.25	5711.8	
734.43	3931.4	
734.61	5648.3	
734.79	7351.5	
734.97	5588.9	
735.15	4164.2	
735.33	4531.5	
735.51	6036	
735.69	5648.3	
735.87	6008.1	
736.05	4767	
736.23	5825.8	
736.41	5616.2	
736.59	4544.4	
736.77	4653	
736.95	6343.2	
737.13	5667.4	
737.32	4173.8	
737.5	4363.5	
737.68	6826.6	
737.86	5591	
738.04	3951.2	
738.22	5991	
738.4	5375.9	
738.58	5664	
738.76	4721.3	
738.94	3547.1	
739.12	5548.6	
739.3	5379.3	
739.48	5314.5	
739.66	5016.8	
739.84	5842.9	
740.02	5827.2	
740.2	3661.1	
740.38	4049.5	
740.56	6242.9	
740.74	5004.6	
740.92	4711.7	
741.1	4665.3	
741.28	5607.3	
741.46	5414.8	
741.64	4244.1	
741.82	4806.6	
742	5739.1	
742.18	5618.3	
742.36	4513.7	
742.54	4044.7	
742.72	6214.9	
742.9	4938.3	
743.08	4906.3	
743.26	3651.5	
743.44	6558.3	
743.62	6306.4	
743.8	5073.5	
743.98	4087.7	
744.16	6059.9	
744.34	5748	
744.52	4988.2	
744.7	4959.5	
744.88	6201.2	
745.06	5670.1	
745.24	5086.5	
745.42	5223.7	
745.6	6244.3	
745.78	6065.4	
745.96	3869.3	
746.14	4194.9	
746.32	7079.1	
746.5	6276.3	
746.68	4808.6	
746.86	4245.4	
747.03	6787.7	
747.21	5017.5	
747.39	4839.4	
747.57	4249.5	
747.75	5868.1	
747.93	6359.6	
748.11	4193.6	
748.29	4192.9	
748.47	7550.2	
748.65	5638.1	
748.83	4973.8	
749.01	4593.6	
749.19	6108.4	
749.37	5234.6	
749.55	4499.4	
749.73	4625.7	
749.91	5763	
750.09	5496.7	
750.26	4723.3	
750.44	4050.2	
750.62	5798.5	
750.8	5783.5	
750.98	3886.4	
751.16	4268	
751.34	5864	
751.52	5193	
751.7	5107	
751.88	3878.2	
752.06	6384.2	
752.24	6177.4	
752.42	3790.1	
752.59	4211.3	
752.77	5748.6	
752.95	7126.9	
753.13	4991.6	
753.31	4358.1	
753.49	5422.3	
753.67	5974.6	
753.85	4699.4	
754.03	4244.8	
754.21	6201.9	
754.38	6636.8	
754.56	4473.4	
754.74	3456.3	
754.92	5540.4	
755.1	6264.7	
755.28	3621.5	
755.46	3674.1	
755.64	7191.1	
755.82	7350.2	
755.99	4160.1	
756.17	4259.1	
756.35	4810	
756.53	6542.6	
756.71	3156.6	
756.89	4127.3	
757.07	6113.2	
757.25	5102.2	
757.42	4633.2	
757.6	5573.2	
757.78	6061.3	
757.96	4967	
758.14	4255.7	
758.32	3711.6	
758.5	4554.7	
758.67	5436	
758.85	4110.3	
759.03	4264.6	
759.21	5659.9	
759.39	5047.6	
759.57	3693.9	
759.75	4917.9	
759.92	6300.9	
760.1	5445.5	
760.28	5157.5	
760.46	5485.1	
760.64	5188.2	
760.82	4940.4	
760.99	4998.4	
761.17	4104.8	
761.35	5981.4	
761.53	4932.2	
761.71	4206.5	
761.89	4930.8	
762.06	5905	
762.24	5303.6	
762.42	4303.5	
762.6	4037.9	
762.78	5340.4	
762.96	5991	
763.13	4655.7	
763.31	4307.6	
763.49	6218.3	
763.67	5229.8	
763.85	5130.2	
764.02	5777.3	
764.2	6480.5	
764.38	5612.1	
764.56	4218.8	
764.74	5214.1	
764.91	6539.8	
765.09	5426.4	
765.27	3843.4	
765.45	3703.4	
765.63	6593.8	
765.8	6464.1	
765.98	3363.4	
766.16	3788.7	
766.34	5003.9	
766.52	4702.8	
766.69	4773.8	
766.87	3609.2	
767.05	5429.8	
767.23	6242.9	
767.41	3934.1	
767.58	4214	
767.76	6051.1	
767.94	6099.5	
768.12	4030.4	
768.29	4887.1	
768.47	5528.2	
768.65	6358.3	
768.83	3662.5	
769	4872.1	
769.18	5038.7	
769.36	5802.6	
769.54	4916.5	
769.72	3682.2	
769.89	6125.5	
770.07	6255.9	
770.25	4109.6	
770.43	5468.8	
770.6	7005.4	
770.78	7406.1	
770.96	4298	
771.14	4965.6	
771.31	6064	
771.49	5397.1	
771.67	3399.6	
771.85	3776.5	
772.02	4574.5	
772.2	5427.1	
772.38	4558.8	
772.55	3938.9	
772.73	5677.7	
772.91	5501.5	
773.09	4360.1	
773.26	4446.8	
773.44	5644.2	
773.62	5380.7	
773.8	3845.4	
773.97	3571.7	
774.15	5825.8	
774.33	5371.8	
774.5	3725.9	
774.68	4143	
774.86	5922	
775.04	5412.1	
775.21	3880.9	
775.39	3897.3	
775.57	5672.2	
775.74	6213.5	
775.92	3697.9	
776.1	3594.2	
776.27	5700.9	
776.45	7018.4	
776.63	3871.3	
776.81	3377.1	
776.98	5276.3	
777.16	6464.8	
777.34	4061.8	
777.51	4055.7	
777.69	5270.1	
777.87	5091.3	
778.04	4121.2	
778.22	4756.7	
778.4	5159.5	
778.57	5812.1	
778.75	3349.8	
778.93	3624.2	
779.1	4931.5	
779.28	4773.1	
779.46	3422.2	
779.64	3921.9	
779.81	5991.7	
779.99	6972	
780.17	4708.3	
780.34	4904.9	
780.52	5381.4	
780.69	5696.1	
780.87	4341.7	
781.05	3828.3	
781.22	5444.2	
781.4	5624.4	
781.58	3968.3	
781.75	3084.2	
781.93	5569.1	
782.11	4904.2	
782.28	4938.3	
782.46	3978.5	
782.64	4794.3	
782.81	5838.8	
782.99	4059.1	
783.17	4022.9	
783.34	5687.9	
783.52	4870.1	
783.69	4255	
783.87	5080.3	
784.05	5016.2	
784.22	5005.9	
784.4	5111	
784.58	4381.3	
784.75	5948.7	
784.93	5046.2	
785.1	4018.1	
785.28	4704.9	
785.46	5663.3	
785.63	4960.2	
785.81	3928.7	
785.99	3819.5	
786.16	5156.8	
786.34	5522.7	
786.51	3901.4	
786.69	4296.6	
786.87	4721.9	
787.04	5307	
787.22	3721.8	
787.39	4797	
787.57	4935.6	
787.75	6167.8	
787.92	4931.5	
788.1	4840.7	
788.27	5081	
788.45	4761.5	
788.63	4597	
788.8	3252.2	
788.98	5397.1	
789.15	4658.4	
789.33	3289	
789.5	4054.3	
789.68	5941.2	
789.86	6135	
790.03	4589.5	
790.21	3923.2	
790.38	5933.6	
790.56	5200.5	
790.73	3802.4	
790.91	3807.2	
791.09	4975.9	
791.26	5872.9	
791.44	4055	
791.61	3468.6	
791.79	5031.9	
791.96	5131.5	
792.14	3611.3	
792.32	3177.8	
792.49	5034.6	
792.67	5156.8	
792.84	3686.3	
793.02	3483.6	
793.19	5513.8	
793.37	6333	
793.54	3209.8	
793.72	3524.6	
793.89	6445	
794.07	5027.8	
794.25	4212.7	
794.42	3312.9	
794.6	6208.1	
794.77	5798.5	
794.95	4476.9	
795.12	3881.6	
795.3	5081.7	
795.47	5721.3	
795.65	4294.6	
795.82	4128.7	
796	4861.9	
796.17	6887.3	
796.35	4008.6	
796.52	4732.2	
796.7	5622.4	
796.87	5741.8	
797.05	5059.2	
797.22	4894.6	
797.4	5631.9	
797.57	6719.4	
797.75	4113	
797.92	3809.2	
798.1	6027.2	
798.27	5049.6	
798.45	3263.8	
798.62	3519.8	
798.8	5369.1	
798.97	5947.3	
799.15	4371.7	
799.32	4179.9	
799.5	4642.1	
799.67	5464	
799.85	4545.8	
800.02	3222.8	
800.2	5071.5	
800.37	5362.9	
800.55	4678.2	
800.72	3922.5	
800.9	5854.5	
801.07	6360.3	
801.25	5304.9	
801.42	4294.6	
801.6	5932.3	
801.77	5626.5	
801.95	3984.7	
802.12	3775.8	
802.29	5566.4	
802.47	5589.6	
802.64	4257	
802.82	3181.2	
802.99	5048.9	
803.17	6145.3	
803.34	4123.9	
803.52	3717.7	
803.69	6803.4	
803.87	4821.6	
804.04	4104.1	
804.21	4243.4	
804.39	6194.4	
804.56	5294.7	
804.74	3493.8	
804.91	4323.9	
805.09	5079	
805.26	5212.8	
805.44	3598.3	
805.61	3893.9	
805.78	5788.2	
805.96	5810.8	
806.13	4315.8	
806.31	4637.3	
806.48	4592.9	
806.66	5131.5	
806.83	4264.6	
807	4175.1	
807.18	5017.5	
807.35	5460.6	
807.53	4083.6	
807.7	3332	
807.87	6304.3	
808.05	5184.8	
808.22	4667.3	
808.4	3292.5	
808.57	5218.2	
808.74	4753.3	
808.92	3826.3	
809.09	4911.7	
809.27	4994.3	
809.44	5625.1	
809.61	3363.4	
809.79	3790.8	
809.96	6287.3	
810.14	5920.7	
810.31	3291.1	
810.48	4051.6	
810.66	5219.6	
810.83	6008.1	
811.01	3805.1	
811.18	4297.3	
811.35	5910.4	
811.53	4502.1	
811.7	4714.4	
811.87	4284.4	
812.05	5090.6	
812.22	5038	
812.39	3693.2	
812.57	3620.1	
812.74	5093.3	
812.92	6933.7	
813.09	4027	
813.26	4452.3	
813.44	6654.5	
813.61	5046.9	
813.78	3358.7	
813.96	4584	
814.13	5150	
814.3	4771.8	
814.48	4829.8	
814.65	4005.1	
814.82	6442.9	
815	4926.7	
815.17	4132.1	
815.34	5074.9	
815.52	5044.8	
815.69	5039.4	
815.87	4085.7	
816.04	3521.8	
816.21	5169.8	
816.38	4528.7	
816.56	3997.6	
816.73	3697.3	
816.9	6518.7	
817.08	5964.4	
817.25	3801	
817.42	4752	
817.6	4692.6	
817.77	5189.6	
817.94	4225	
818.12	3713	
818.29	4861.2	
818.46	7767.3	
818.64	3887	
818.81	3611.9	
818.98	4780	
819.16	7077.1	
819.33	4429.8	
819.5	4134.2	
819.67	5536.3	
819.85	6196.5	
820.02	4071.4	
820.19	4312.3	
820.37	5381.4	
820.54	4944.5	
820.71	4229.1	
820.88	5218.9	
821.06	5433.9	
821.23	4892.6	
821.4	4228.4	
821.58	4190.1	
821.75	5881.1	
821.92	5378	
822.09	3358.7	
822.27	3538.9	
822.44	5141.1	
822.61	5057.1	
822.79	3378.5	
822.96	6627.2	
823.13	5753.4	
823.3	4902.8	
823.48	3959.4	
823.65	3535.5	
823.82	5890	
823.99	4670.1	
824.17	5058.5	
824.34	3624.9	
824.51	6832.7	
824.68	5159.5	
824.86	3751.9	
825.03	4254.3	
825.2	5162.9	
825.37	6305.7	
825.55	3722.5	
825.72	4182	
825.89	6867.5	
826.06	6385.6	
826.24	4089.8	
826.41	4055	
826.58	6267.5	
826.75	5491.3	
826.92	3237.8	
827.1	3562.1	
827.27	8631.5	
827.44	6877.1	
827.61	3838.6	
827.79	4736.3	
827.96	4892.6	
828.13	5249.6	
828.3	4035.2	
828.47	3398.9	
828.65	5377.3	
828.82	5280.3	
828.99	5350	
829.16	4601.1	
829.34	5826.5	
829.51	5548.6	
829.68	4194.2	
829.85	4333.5	
830.02	6092.7	
830.2	5763.7	
830.37	3190.7	
830.54	5098.8	
830.71	6620.4	
830.88	5109	
831.05	3259.7	
831.23	3790.1	
831.4	6350.1	
831.57	7122.8	
831.74	3846.8	
831.91	3377.8	
832.09	5383.4	
832.26	5728.2	
832.43	3927.3	
832.6	4530.8	
832.77	5387.5	
832.94	6187.6	
833.12	3183.9	
833.29	3970.3	
833.46	5596.4	
833.63	7323.5	
833.8	4342.4	
833.97	4046.1	
834.15	5786.2	
834.32	5541.1	
834.49	4177.2	
834.66	4282.3	
834.83	6009.4	
835	4825.7	
835.17	3895.9	
835.35	3924.6	
835.52	5657.9	
835.69	5578.7	
835.86	4035.2	
836.03	3364.1	
836.2	5741.8	
836.37	5321.3	
836.55	4043.4	
836.72	3779.2	
836.89	5311.7	
837.06	5837.4	
837.23	4114.4	
837.4	4484.4	
837.57	6671.6	
837.75	7367.2	
837.92	3638.6	
838.09	3912.3	
838.26	5330.9	
838.43	6060.6	
838.6	4243.4	
838.77	3762.1	
838.94	7034.8	
839.11	6721.4	
839.29	4018.1	
839.46	3213.9	
839.63	5748.6	
839.8	5447.6	
839.97	3898	
840.14	3932.1	
840.31	5520	
840.48	5802.6	
840.65	3220.1	
840.82	3815.4	
841	5740.5	
841.17	5754.1	
841.34	3628.3	
841.51	3689.8	
841.68	5696.1	
841.85	5454.4	
842.02	3673.4	
842.19	3026.2	
842.36	5481.7	
842.53	5546.6	
842.7	3575.1	
842.87	4414.1	
843.05	7213.6	
843.22	5416.2	
843.39	3357.3	
843.56	3629.7	
843.73	5176.6	
843.9	5831.2	
844.07	5750	
844.24	4820.2	
844.41	8644.5	
844.58	4948.6	
844.75	3465.8	
844.92	3801.7	
845.09	5781.4	
845.26	5756.2	
845.43	3522.5	
845.6	3779.9	
845.77	5792.3	
845.94	5479	
846.12	3947.1	
846.29	4209.3	
846.46	5958.2	
846.63	5748.6	
846.8	3551.9	
846.97	4237.9	
847.14	6217	
847.31	5675.6	
847.48	4033.8	
847.65	4385.4	
847.82	6050.4	
847.99	6006	
848.16	4756.1	
848.33	4476.9	
848.5	5294.7	
848.67	6275.7	
848.84	3553.2	
849.01	3736.2	
849.18	5188.2	
849.35	4836.6	
849.52	4501.4	
849.69	3487	
849.86	5984.8	
850.03	6200.6	
850.2	3588	
850.37	4391.5	
850.54	6169.8	
850.71	5356.1	
850.88	4306.2	
851.05	3540.9	
851.22	5641.5	
851.39	6324.8	
851.56	3369.6	
851.73	4060.4	
851.9	4971.1	
852.07	6014.2	
852.24	3991.5	
852.41	3542.3	
852.58	5606.7	
852.75	5158.8	
852.92	4027	
853.09	3527.3	
853.26	5289.2	
853.43	6246.3	
853.6	3596.2	
853.77	3069.9	
853.94	6291.4	
854.11	5675.6	
854.28	5373.2	
854.44	3876.1	
854.61	6748.7	
854.78	6072.2	
854.95	3561.4	
855.12	4552.6	
855.29	4618.2	
855.46	6462	
855.63	3518.4	
855.8	5001.8	
855.97	5311.1	
856.14	6092.7	
856.31	5050.3	
856.48	3890.5	
856.65	5295.4	
856.82	4990.9	
856.99	3390.1	
857.16	3875.4	
857.33	7079.1	
857.49	5382.1	
857.66	3848.8	
857.83	4192.2	
858	5350	
858.17	5584.8	
858.34	3347.7	
858.51	3500	
858.68	6472.9	
858.85	6488	
859.02	4114.4	
859.19	4468.7	
859.36	4998.4	
859.52	4989.5	
859.69	3544.4	
859.86	4206.5	
860.03	5130.2	
860.2	6347.3	
860.37	3203.7	
860.54	3571.7	
860.71	5965.1	
860.88	6421.7	
861.05	4007.2	
861.21	4483	
861.38	6460.7	
861.55	4883.7	
861.72	3207.8	
861.89	4004.5	
862.06	6070.2	
862.23	6608.8	
862.4	3472	
862.56	3736.9	
862.73	5828.5	
862.9	5557.5	
863.07	4194.9	
863.24	3210.5	
863.41	4962.9	
863.58	5045.5	
863.75	3588.7	
863.91	4068.6	
864.08	6397.2	
864.25	5888.6	
864.42	4492.6	
864.59	4974.5	
864.76	6754.2	
864.93	5039.4	
865.09	3452.9	
865.26	3793.5	
865.43	6292.7	
865.6	6700.3	
865.77	3117	
865.94	3532.7	
866.1	6336.4	
866.27	6088.6	
866.44	5380	
866.61	3355.9	
866.78	5504.9	
866.95	5848.3	
867.11	3431	
867.28	3173.7	
867.45	6086.6	
867.62	5183.4	
867.79	4117.8	
867.96	3541.6	
868.12	5032.5	
868.29	6077	
868.46	3563.5	
868.63	4826.4	
868.8	6186.9	
868.97	6012.8	
869.13	3695.9	
869.3	3749.1	
869.47	5937.1	
869.64	6079.1	
869.81	3652.2	
869.97	3560.7	
870.14	5778.7	
870.31	6495.5	
870.48	3446	
870.65	4540.3	
870.81	5357.5	
870.98	5316.5	
871.15	4037.2	
871.32	3712.3	
871.48	5835.3	
871.65	6535.8	
871.82	3552.5	
871.99	3915.7	
872.16	6980.8	
872.32	6393.1	
872.49	3530.7	
872.66	3602.4	
872.83	6007.4	
872.99	5285.1	
873.16	4126.7	
873.33	3503.4	
873.5	5621	
873.67	5666	
873.83	3761.4	
874	4817.5	
874.17	5771.2	
874.34	6950.8	
874.5	4559.5	
874.67	4407.2	
874.84	6434.7	
875.01	5052.3	
875.17	5072.1	
875.34	3513.6	
875.51	5724.8	
875.68	6838.2	
875.84	4299.4	
876.01	5261.9	
876.18	5980.8	
876.34	5843.5	
876.51	3594.9	
876.68	3464.5	
876.85	5423.7	
877.01	6273.6	
877.18	5124	
877.35	3538.9	
877.52	5507.7	
877.68	4960.2	
877.85	3496.6	
878.02	3512.9	
878.18	5514.5	
878.35	5223.7	
878.52	2794.8	
878.69	4010.6	
878.85	5961.6	
879.02	5954.1	
879.19	5026.4	
879.35	3894.6	
879.52	5953.4	
879.69	6161.7	
879.86	3068.5	
880.02	4038.6	
880.19	5526.8	
880.36	6767.9	
880.52	4107.5	
880.69	4274.8	
880.86	6086.6	
881.02	6178	
881.19	3885	
881.36	3887.7	
881.52	5963.7	
881.69	5259.9	
881.86	3815.4	
882.02	3756	
882.19	6259.3	
882.36	7335.1	
882.52	3633.8	
882.69	5004.6	
882.86	5715.2	
883.02	5617.6	
883.19	4265.9	
883.36	4089.8	
883.52	6075	
883.69	6976.1	
883.86	3547.8	
884.02	3210.5	
884.19	6032.6	
884.36	5529.5	
884.52	4083	
884.69	3710.9	
884.86	5244.2	
885.02	6670.2	
885.19	3985.3	
885.36	4087.7	
885.52	5561.6	
885.69	5732.3	
885.86	5164.3	
886.02	4564.9	
886.19	5973.2	
886.35	5487.2	
886.52	3942.3	
886.69	5034.6	
886.85	5142.4	
887.02	6380.8	
887.19	6380.8	
887.35	6380.8	
887.52	6380.8	
887.68	6380.8	
887.85	6380.8	
888.02	6380.8	
888.18	6380.8	
888.35	6380.8	
888.51	6380.8	
888.68	6380.8	
888.85	6380.8	
889.01	6380.8	
889.18	6380.8	
889.35	6380.8	
889.51	6380.8	
889.68	6380.8	
889.84	6380.8	
890.01	6380.8	
890.17	6380.8	
890.34	6380.8	
890.51	6380.8	
890.67	6380.8	
890.84	6380.8	
891	6380.8	
891.17	6380.8	
891.34	6380.8	
891.5	6380.8	
891.67	6380.8	
891.83	6380.8	
892	6380.8	
892.16	6380.8	
892.33	6380.8	
892.5	6380.8	
892.66	6380.8	
892.83	6380.8	
892.99	6380.8	
893.16	6380.8	
893.32	6380.8	
893.49	6380.8	
893.65	6380.8	
893.82	6380.8	
893.99	6380.8	
894.15	6380.8	
894.32	6380.8	
894.48	6380.8	
894.65	6380.8	
894.81	6380.8	
894.98	6380.8	
895.14	6380.8	
895.31	6380.8	
895.47	6380.8	
895.64	6380.8	
895.81	6380.8	
895.97	6380.8	
896.14	6380.8	
896.3	6380.8	
896.47	6380.8	
896.63	6380.8	
896.8	6380.8	
896.96	6380.8	
897.13	6380.8	
897.29	6380.8	
897.46	6380.8	
897.62	6380.8	
897.79	6380.8	
897.95	6380.8	
898.12	6380.8	
898.28	6380.8	
898.45	6380.8	
898.61	6380.8	
898.78	6380.8	
898.94	6380.8	
899.11	6380.8	
899.27	6380.8	
899.44	6380.8	
899.6	6380.8	
899.77	6380.8	
899.93	6380.8	
900.1	6380.8	
900.26	6380.8	
900.43	6380.8	
900.59	6380.8	
900.76	6380.8	
900.92	6380.8	
901.09	6380.8	
901.25	6380.8	
901.42	6380.8	
901.58	6380.8	
901.75	6380.8	
901.91	6380.8	
902.07	6380.8	
902.24	6380.8	
902.4	6380.8	
902.57	6380.8	
902.73	6380.8	
902.9	6380.8	
903.06	6380.8	
903.23	6380.8	
903.39	6380.8	
903.56	6380.8	
903.72	6380.8	
903.88	6380.8	
904.05	6380.8	
904.21	6380.8	
904.38	6380.8	
904.54	6380.8	
904.71	6380.8	
904.87	6380.8	
905.03	6380.8	
905.2	6380.8	
905.36	6380.8	
905.53	6380.8	
905.69	6380.8	
905.86	6380.8	
906.02	6380.8	
906.18	6380.8	
906.35	6380.8	
906.51	6380.8	
906.68	6380.8	
906.84	6380.8	
907.01	6380.8	
907.17	6380.8	
907.33	6380.8	
907.5	6380.8	
907.66	6380.8	
907.83	6380.8	
907.99	6380.8	
908.15	6380.8	
908.32	6380.8	
908.48	6380.8	
908.65	6380.8	
908.81	6380.8	
908.97	6380.8	
909.14	6380.8	
909.3	6380.8	
909.47	6380.8	
909.63	6380.8	
909.79	6380.8	
909.96	6380.8	
910.12	6380.8	
910.28	6380.8	
910.45	6380.8	
910.61	6380.8	
910.78	6380.8	
910.94	6380.8	
911.1	6380.8	
911.27	6380.8	
911.43	6380.8	
911.59	6380.8	
911.76	6380.8	
911.92	6380.8	
912.08	6380.8	
912.25	6380.8	
912.41	6380.8	
912.57	6380.8	
912.74	6380.8	
912.9	6380.8	
913.07	6380.8	
913.23	6380.8	
913.39	6380.8	
913.56	6380.8	
913.72	6380.8	
913.88	6380.8	
914.05	6380.8	
914.21	6380.8	
914.37	6380.8	
914.54	6380.8	
914.7	6380.8	
914.86	6380.8	
915.03	6380.8	
915.19	6380.8	
