Wavelength	Intensities	
nm	a.u.	
179.22	1947.1	
179.44	1945.9	
179.65	1948.3	
179.86	1943.5	
180.08	1906	
180.29	5072.1	
180.51	3569.6	
180.72	5782.8	
180.94	6738.5	
181.15	3323.2	
181.37	3254.9	
181.58	5621.7	
181.79	5963.7	
182.01	3427.6	
182.22	3732.1	
182.44	5862	
182.65	4872.8	
182.87	4747.9	
183.08	4160.1	
183.29	6214.9	
183.51	5134.9	
183.72	3769.6	
183.94	5590.3	
184.15	5519.3	
184.37	5564.3	
184.58	3324.5	
184.79	4599.1	
185.01	5081	
185.22	5881.1	
185.44	4876.9	
185.65	4052.9	
185.86	5358.9	
186.08	4979.3	
186.29	3217.4	
186.51	3425.6	
186.72	5180	
186.94	6078.4	
187.15	4035.2	
187.36	4163.5	
187.58	7988.4	
187.79	5629.2	
188.01	4371.7	
188.22	6883.9	
188.43	6750.1	
188.65	5800.5	
188.86	3419.4	
189.08	4164.9	
189.29	5333.6	
189.5	5320.6	
189.72	3900	
189.93	3888.4	
190.15	6118.6	
190.36	7368.6	
190.57	4293.2	
190.79	4190.1	
191	6238.1	
191.22	6210.8	
191.43	4230.4	
191.64	3450.1	
191.86	6436.8	
192.07	6122.7	
192.29	3625.6	
192.5	3876.1	
192.71	6124.8	
192.93	5261.9	
193.14	3818.8	
193.35	3919.8	
193.57	5286.5	
193.78	6117.3	
194	3047.4	
194.21	3821.5	
194.42	5075.5	
194.64	5570.5	
194.85	4199.7	
195.07	4868	
195.28	5606	
195.49	4814.8	
195.71	5147.9	
195.92	3571	
196.13	5745.2	
196.35	5897.5	
196.56	5500.2	
196.78	4108.9	
196.99	7283.9	
197.2	6766.5	
197.42	4795.7	
197.63	4280.9	
197.84	4966.3	
198.06	5754.1	
198.27	3855	
198.48	5176.6	
198.7	5225.7	
198.91	5420.3	
199.13	4184.7	
199.34	4168.3	
199.55	5909.8	
199.77	4868.7	
199.98	3640.6	
200.19	4238.6	
200.41	5352.7	
200.62	5118.6	
200.83	4374.5	
201.05	4750.6	
201.26	5446.9	
201.47	5155.4	
201.69	3775.8	
201.9	3605.8	
202.11	5503.6	
202.33	6573.3	
202.54	3968.3	
202.76	4469.4	
202.97	5674.2	
203.18	5674.9	
203.4	4405.9	
203.61	4296.6	
203.82	5611.4	
204.04	5214.8	
204.25	4240.7	
204.46	4100.7	
204.68	5579.3	
204.89	5788.2	
205.1	4095.3	
205.32	3534.1	
205.53	5954.8	
205.74	6114.6	
205.96	2992.8	
206.17	4290.5	
206.38	5916.6	
206.6	6057.2	
206.81	4817.5	
207.02	3906.2	
207.24	5799.8	
207.45	6183.5	
207.66	4012	
207.88	3346.4	
208.09	5720	
208.3	5541.8	
208.52	3638.6	
208.73	4074.8	
208.94	5474.9	
209.15	6285.9	
209.37	3996.3	
209.58	4247.5	
209.79	6089.3	
210.01	5311.1	
210.22	3182.5	
210.43	3345	
210.65	5578.7	
210.86	6032.6	
211.07	4018.1	
211.29	3687.7	
211.5	5862.7	
211.71	5496.1	
211.93	3654.9	
212.14	3685.7	
212.35	5467.4	
212.56	5743.2	
212.78	4193.6	
212.99	3540.9	
213.2	6627.2	
213.42	5243.5	
213.63	3831.1	
213.84	4100	
214.06	4865.3	
214.27	4983.4	
214.48	3917.1	
214.69	4285	
214.91	6247.7	
215.12	6408.8	
215.33	4383.3	
215.55	4787.5	
215.76	6840.9	
215.97	5973.2	
216.18	4170.3	
216.4	4048.2	
216.61	5238	
216.82	6066.1	
217.04	3680.2	
217.25	3850.2	
217.46	6247	
217.67	5898.8	
217.89	3280.2	
218.1	3395.5	
218.31	5630.5	
218.53	5792.3	
218.74	3863.8	
218.95	3662.5	
219.16	5526.1	
219.38	6446.3	
219.59	3777.1	
219.8	4497.3	
220.01	7231.4	
220.23	5556.8	
220.44	4956.1	
220.65	3673.4	
220.87	5570.5	
221.08	6193.7	
221.29	3391.4	
221.5	4581.3	
221.72	7686.7	
221.93	5244.2	
222.14	4245.4	
222.35	5043.5	
222.57	5614.8	
222.78	5939.1	
222.99	3988.1	
223.2	4346.5	
223.42	5870.2	
223.63	6040.1	
223.84	3023.5	
224.05	3051.5	
224.27	7201.3	
224.48	6502.3	
224.69	5010.7	
224.9	4166.3	
225.12	5775.3	
225.33	5501.5	
225.54	3338.2	
225.75	3765.5	
225.97	5068.7	
226.18	5377.3	
226.39	4048.2	
226.6	3801.7	
226.82	5276.3	
227.03	5144.5	
227.24	4239.3	
227.45	3497.9	
227.67	5919.3	
227.88	6567.8	
228.09	4706.9	
228.3	4769	
228.52	5958.9	
228.73	5486.5	
228.94	3951.9	
229.15	3486.3	
229.36	5448.3	
229.58	5382.7	
229.79	3956.7	
230	4603.8	
230.21	6580.1	
230.43	5659.9	
230.64	4178.5	
230.85	4384	
231.06	5953.4	
231.28	5965.1	
231.49	3459.7	
231.7	4090.5	
231.91	5865.4	
232.12	5545.2	
232.34	3559.4	
232.55	4128	
232.76	6237.4	
232.97	5722.7	
233.18	3671.3	
233.4	4136.9	
233.61	5797.8	
233.82	5246.9	
234.03	3861.1	
234.25	3833.8	
234.46	7761.8	
234.67	5593	
234.88	4293.9	
235.09	3680.2	
235.31	5862.7	
235.52	5478.3	
235.73	4138.9	
235.94	3528	
236.15	5251.7	
236.37	6728.9	
236.58	3665.9	
236.79	4091.2	
237	5804.6	
237.21	5034.6	
237.43	4313	
237.64	3404.4	
237.85	10226	
238.06	5077.6	
238.27	4455.7	
238.48	3522.5	
238.7	5910.4	
238.91	5365.7	
239.12	4014	
239.33	4111	
239.54	5036	
239.76	5477.6	
239.97	3979.2	
240.18	4003.1	
240.39	7032.7	
240.6	5825.1	
240.82	4195.6	
241.03	3426.9	
241.24	5598.5	
241.45	6429.9	
241.66	3643.3	
241.87	4302.1	
242.09	6259.3	
242.3	6771.9	
242.51	4394.3	
242.72	4049.5	
242.93	6063.4	
243.14	5511.1	
243.36	4654.4	
243.57	5113.8	
243.78	6489.3	
243.99	5949.3	
244.2	4056.3	
244.41	3651.5	
244.63	5060.5	
244.84	5881.8	
245.05	4342.4	
245.26	4048.8	
245.47	5831.9	
245.68	6165.8	
245.9	5417.6	
246.11	4237.9	
246.32	5370.5	
246.53	5823.1	
246.74	6592.4	
246.95	3379.8	
247.16	4969.7	
247.38	5511.1	
247.59	3349.8	
247.8	4078.9	
248.01	5197.1	
248.22	5506.3	
248.43	3675.4	
248.64	3930.7	
248.86	4908.3	
249.07	5331.5	
249.28	3530.7	
249.49	4200.4	
249.7	6155.5	
249.91	6363	
250.12	3368.2	
250.34	3375.7	
250.55	5663.3	
250.76	5518.6	
250.97	4175.8	
251.18	4215.4	
251.39	6306.4	
251.6	5777.3	
251.81	4291.2	
252.03	4222.9	
252.24	5220.3	
252.45	6105	
252.66	3536.8	
252.87	4486.4	
253.08	5556.8	
253.29	7398.6	
253.5	3444	
253.72	4917.2	
253.93	5365.7	
254.14	6618.4	
254.35	3835.8	
254.56	3960.8	
254.77	5791.7	
254.98	5188.2	
255.19	3803.8	
255.41	4905.6	
255.62	5629.9	
255.83	6272.9	
256.04	4321.2	
256.25	4269.3	
256.46	6879.1	
256.67	5174.5	
256.88	4138.3	
257.09	4622.3	
257.31	5277.6	
257.52	5227.8	
257.73	5251.7	
257.94	3773.7	
258.15	5423.7	
258.36	5590.3	
258.57	4859.1	
258.78	3027.6	
258.99	6128.9	
259.2	5408.7	
259.41	3846.8	
259.63	3914.4	
259.84	6428.6	
260.05	6920.1	
260.26	5110.4	
260.47	3741.6	
260.68	6167.1	
260.89	5524.1	
261.1	4662.5	
261.31	3648.8	
261.52	6113.9	
261.73	6568.5	
261.95	5012.7	
262.16	4349.9	
262.37	6313.9	
262.58	6406.7	
262.79	5002.5	
263	3965.6	
263.21	5597.1	
263.42	5001.8	
263.63	3950.5	
263.84	3944.4	
264.05	6161	
264.26	6545.3	
264.47	4878.9	
264.69	4371.7	
264.9	6273.6	
265.11	5786.2	
265.32	3729.4	
265.53	3820.1	
265.74	5674.2	
265.95	4945.2	
266.16	4113	
266.37	4527.4	
266.58	5700.2	
266.79	5355.4	
267	3759.4	
267.21	3521.1	
267.42	5108.3	
267.63	5480.4	
267.84	4053.6	
268.06	3422.8	
268.27	6035.4	
268.48	6318	
268.69	3928.7	
268.9	4648.2	
269.11	6270.2	
269.32	4978.6	
269.53	4020.2	
269.74	3738.9	
269.95	5890.6	
270.16	4880.3	
270.37	4016.1	
270.58	4686.4	
270.79	5369.1	
271	6183.5	
271.21	4339.6	
271.42	4059.8	
271.63	5698.1	
271.84	5188.9	
272.05	3215.3	
272.26	3622.2	
272.47	5558.2	
272.68	5771.9	
272.89	3777.1	
273.11	4515.1	
273.32	5307	
273.53	6540.5	
273.74	4345.1	
273.95	4268	
274.16	6249.7	
274.37	5583.4	
274.58	4427.7	
274.79	3522.5	
275	5648.3	
275.21	6299.6	
275.42	5344.5	
275.63	4537.6	
275.84	5814.2	
276.05	7344.7	
276.26	4268	
276.47	3990.8	
276.68	5365.7	
276.89	6649.1	
277.1	4562.2	
277.31	3560.1	
277.52	5791.7	
277.73	6010.1	
277.94	3459.7	
278.15	3891.1	
278.36	5810.1	
278.57	5184.1	
278.78	3753.9	
278.99	4371.7	
279.2	5179.3	
279.41	5121.3	
279.62	5092.6	
279.83	3553.2	
280.04	6828.6	
280.25	4988.2	
280.46	5074.2	
280.67	4001	
280.88	5121.3	
281.09	6251.1	
281.3	4253.6	
281.51	5363.6	
281.72	6078.4	
281.93	6146	
282.14	3801	
282.35	4024.9	
282.56	6119.3	
282.77	6085.2	
282.98	3886.4	
283.19	4779.3	
283.4	7526.3	
283.61	5517.2	
283.82	3537.5	
284.03	4997.7	
284.24	5678.3	
284.45	6253.8	
284.66	5033.9	
284.87	4868.7	
285.08	6111.8	
285.29	6353.5	
285.5	3444	
285.71	3957.4	
285.92	6184.2	
286.12	6913.9	
286.33	4960.2	
286.54	3930.1	
286.75	6072.9	
286.96	5428.5	
287.17	3581.9	
287.38	4917.9	
287.59	5153.4	
287.8	5100.1	
288.01	3926	
288.22	4594.3	
288.43	6110.5	
288.64	5080.3	
288.85	4722.6	
289.06	4467.3	
289.27	6001.9	
289.48	6614.9	
289.69	5064.6	
289.9	4532.2	
290.11	6207.4	
290.32	5247.6	
290.53	4796.3	
290.74	4405.9	
290.94	6033.3	
291.15	6083.1	
291.36	3803.8	
291.57	4559.5	
291.78	5300.1	
291.99	4937.7	
292.2	3628.3	
292.41	4412	
292.62	6189	
292.83	5877.7	
293.04	5461.9	
293.25	3663.1	
293.46	5262.6	
293.67	6171.9	
293.88	3821.5	
294.09	3667.2	
294.29	5102.9	
294.5	5701.5	
294.71	4147.8	
294.92	3917.8	
295.13	5319.3	
295.34	6720.8	
295.55	3377.8	
295.76	3494.5	
295.97	5996.5	
296.18	6743.3	
296.39	3603.1	
296.6	3791.5	
296.81	5640.8	
297.01	6013.5	
297.22	3963.5	
297.43	3728	
297.64	5175.2	
297.85	5243.5	
298.06	3121.8	
298.27	3392.1	
298.48	5581.4	
298.69	5270.1	
298.9	4101.4	
299.11	3736.2	
299.31	4997	
299.52	5081.7	
299.73	4354.7	
299.94	4302.8	
300.15	5492	
300.36	5150.6	
300.57	4323.3	
300.78	4323.3	
300.99	5444.9	
301.2	5666.7	
301.4	3756.7	
301.61	4113	
301.82	5898.1	
302.03	6030.6	
302.24	4625	
302.45	3618.8	
302.66	5896.1	
302.87	6399.2	
303.08	3779.2	
303.29	5236	
303.49	5326.1	
303.7	5612.8	
303.91	3320.4	
304.12	4997	
304.33	5096.7	
304.54	5701.5	
304.75	3824.9	
304.96	3577.1	
305.16	5885.2	
305.37	6636.1	
305.58	3310.9	
305.79	3444.7	
306	5917.9	
306.21	4943.8	
306.42	3799	
306.63	5821	
306.83	5406.6	
307.04	6227.9	
307.25	4225	
307.46	4219.5	
307.67	4743.1	
307.88	6041.5	
308.09	3681.6	
308.29	3859.7	
308.5	5637.4	
308.71	6197.2	
308.92	4029	
309.13	3633.1	
309.34	5423.7	
309.55	5500.2	
309.75	4721.9	
309.96	4336.9	
310.17	6054.5	
310.38	5227.8	
310.59	4557.4	
310.8	3513.6	
311.01	5418.2	
311.21	5423	
311.42	3538.2	
311.63	3798.3	
311.84	5262.6	
312.05	5702.9	
312.26	4197.7	
312.46	4703.5	
312.67	5392.3	
312.88	5052.3	
313.09	3656.3	
313.3	3608.5	
313.51	6377.4	
313.71	6782.9	
313.92	3663.1	
314.13	3884.3	
314.34	5767.8	
314.55	5502.2	
314.76	4745.8	
314.96	4089.8	
315.17	5606.7	
315.38	6054.5	
315.59	3685.7	
315.8	3547.8	
316.01	6520	
316.21	6480.5	
316.42	3517	
316.63	4019.5	
316.84	5410.1	
317.05	6321.4	
317.26	4306.9	
317.46	3844	
317.67	5519.3	
317.88	5930.9	
318.09	4681.7	
318.3	3376.4	
318.5	5313.1	
318.71	5870.8	
318.92	5933	
319.13	4298.7	
319.34	6116.6	
319.54	6217.6	
319.75	3424.2	
319.96	3279.5	
320.17	5963.7	
320.38	6166.4	
320.58	3280.2	
320.79	4007.2	
321	6154.8	
321.21	6300.2	
321.42	4049.5	
321.62	3304.1	
321.83	5148.6	
322.04	5574.6	
322.25	3865.9	
322.46	3648.1	
322.66	5684.5	
322.87	5827.2	
323.08	4552	
323.29	3609.9	
323.5	6690	
323.7	5059.2	
323.91	4995.7	
324.12	4538.3	
324.33	5603.9	
324.53	5929.6	
324.74	4345.1	
324.95	4542.4	
325.16	4896	
325.37	5410.7	
325.57	3667.9	
325.78	3702	
325.99	5644.2	
326.2	5040.1	
326.4	5154.7	
326.61	3401	
326.82	5516.5	
327.03	5702.2	
327.24	5297.4	
327.44	5057.1	
327.65	5816.9	
327.86	4717.8	
328.07	4338.3	
328.27	3528	
328.48	6325.5	
328.69	5097.4	
328.9	5334.3	
329.1	3950.5	
329.31	5463.3	
329.52	6399.2	
329.73	3618.1	
329.93	4141.7	
330.14	5594.4	
330.35	5814.9	
330.56	6125.5	
330.76	4563.6	
330.97	5347.9	
331.18	5816.2	
331.39	4143	
331.59	3300	
331.8	6173.9	
332.01	6382.8	
332.22	3790.1	
332.42	4385.4	
332.63	5750.7	
332.84	5225.7	
333.05	4095.3	
333.25	3770.3	
333.46	5331.5	
333.67	5582.1	
333.88	3819.5	
334.08	4296	
334.29	7545.4	
334.5	6347.3	
334.7	3553.9	
334.91	5292	
335.12	5081.7	
335.33	6084.5	
335.53	4103.4	
335.74	6064	
335.95	5311.1	
336.16	5193.6	
336.36	4076.1	
336.57	4749.9	
336.78	5059.8	
336.98	6229.2	
337.19	5055.1	
337.4	4031.1	
337.61	6715.3	
337.81	5091.9	
338.02	3814	
338.23	4843.4	
338.43	6378.7	
338.64	5193.6	
338.85	3652.9	
339.05	4883	
339.26	6495.5	
339.47	4988.9	
339.68	3675.4	
339.88	5503.6	
340.09	5880.4	
340.3	6073.6	
340.5	4333.5	
340.71	3295.9	
340.92	5032.5	
341.13	6324.8	
341.33	3596.2	
341.54	4341	
341.75	5769.1	
341.95	5444.9	
342.16	4152.6	
342.37	4495.3	
342.57	5114.5	
342.78	5552.7	
342.99	4653.7	
343.19	3325.2	
343.4	6008.7	
343.61	5854.5	
343.81	3956.7	
344.02	3631.7	
344.23	6026.5	
344.43	6490	
344.64	4616.1	
344.85	4468.7	
345.06	5842.2	
345.26	6277	
345.47	4259.8	
345.68	4981.3	
345.88	4918.5	
346.09	6058.6	
346.3	4360.1	
346.5	3247.4	
346.71	5557.5	
346.92	5285.1	
347.12	3340.2	
347.33	4205.8	
347.54	6143.9	
347.74	6563.7	
347.95	4193.6	
348.16	3087	
348.36	5422.3	
348.57	5148.6	
348.78	4235.2	
348.98	4488.5	
349.19	5578.7	
349.39	5018.9	
349.6	3362.1	
349.81	3743.7	
350.01	5810.1	
350.22	5224.4	
350.43	4106.2	
350.63	4926.7	
350.84	5603.9	
351.05	5343.8	
351.25	3717.1	
351.46	3351.2	
351.67	6214.2	
351.87	5236.7	
352.08	3962.8	
352.29	4490.5	
352.49	6004	
352.7	5704.3	
352.9	3586.7	
353.11	4499.4	
353.32	6729.6	
353.52	5337	
353.73	3487	
353.94	4552.6	
354.14	5904.3	
354.35	5682.4	
354.55	3634.5	
354.76	4108.9	
354.97	5790.3	
355.17	5576.6	
355.38	3418.1	
355.59	4827.7	
355.79	5175.2	
356	5658.5	
356.2	4055.7	
356.41	3473.4	
356.62	4949.3	
356.82	5461.9	
357.03	4320.5	
357.24	3872	
357.44	5261.9	
357.65	5366.4	
357.85	5220.3	
358.06	4085.7	
358.27	4906.3	
358.47	5158.2	
358.68	3368.2	
358.88	4284.4	
359.09	5742.5	
359.3	6206.7	
359.5	5035.3	
359.71	4386.1	
359.91	6726.9	
360.12	5947.3	
360.33	4214.7	
360.53	4759.5	
360.74	5215.5	
360.94	5284.4	
361.15	4446.8	
361.36	3638.6	
361.56	6083.8	
361.77	5436.7	
361.97	4902.2	
362.18	3915.7	
362.38	6033.3	
362.59	5044.1	
362.8	3575.8	
363	3429.7	
363.21	4833.2	
363.41	5571.2	
363.62	4182.6	
363.83	5321.3	
364.03	5618.3	
364.24	6716.7	
364.44	5246.2	
364.65	5365	
364.85	5377.3	
365.06	5048.9	
365.27	3794.2	
365.47	3725.9	
365.68	6450.4	
365.88	5350	
366.09	4200.4	
366.29	3911.6	
366.5	5666	
366.71	6169.2	
366.91	5262.6	
367.12	4406.5	
367.32	6782.2	
367.53	5956.2	
367.73	4263.9	
367.94	5390.3	
368.14	5881.1	
368.35	6873	
368.56	4380.6	
368.76	3661.1	
368.97	5988.3	
369.17	7804.1	
369.38	3756	
369.58	4045.4	
369.79	5023	
369.99	6358.3	
370.2	5107.6	
370.4	4152.6	
370.61	5705	
370.82	6929	
371.02	3994.2	
371.23	3318.4	
371.43	4848.2	
371.64	6291.4	
371.84	4042.7	
372.05	5344.5	
372.25	7662.1	
372.46	6072.2	
372.66	4029.7	
372.87	3975.1	
373.07	6050.4	
373.28	7717.4	
373.48	5085.8	
373.69	4768.4	
373.9	5431.2	
374.1	5524.7	
374.31	5048.2	
374.51	4564.2	
374.72	6286.6	
374.92	5087.8	
375.13	5223	
375.33	4317.8	
375.54	5874.9	
375.74	5228.5	
375.95	4347.8	
376.15	5707	
376.36	5816.2	
376.56	5657.9	
376.77	4430.4	
376.97	4918.5	
377.18	6877.8	
377.38	5913.2	
377.59	5285.8	
377.79	3855.6	
378	5710.4	
378.2	6201.2	
378.41	3962.1	
378.61	3888.4	
378.82	6225.8	
379.02	5254.4	
379.23	4091.8	
379.43	5402.5	
379.64	6308.4	
379.84	5923.4	
380.05	3943.7	
380.25	3872.7	
380.46	6066.8	
380.66	5557.5	
380.87	5396.4	
381.07	5700.9	
381.28	6714.6	
381.48	6047	
381.69	3979.9	
381.89	4072.7	
382.1	4874.2	
382.3	6213.5	
382.51	5159.5	
382.71	6095.4	
382.91	6092	
383.12	6593.8	
383.32	4458.4	
383.53	4638.6	
383.73	5877.7	
383.94	5647.6	
384.14	4491.9	
384.35	3606.5	
384.55	5603.9	
384.76	6094.1	
384.96	4342.4	
385.17	4713.1	
385.37	5965.7	
385.58	5364.3	
385.78	4769	
385.98	3534.1	
386.19	5512.4	
386.39	5877.7	
386.6	4117.8	
386.8	4310.3	
387.01	6043.6	
387.21	6065.4	
387.42	4847.5	
387.62	5495.4	
387.83	5309	
388.03	6003.3	
388.23	4422.9	
388.44	5253.7	
388.64	4946.5	
388.85	5117.2	
389.05	4807.3	
389.26	5438	
389.46	7074.4	
389.67	6451.8	
389.87	4678.2	
390.07	4856.4	
390.28	5710.4	
390.48	5218.2	
390.69	3972.4	
390.89	4278.2	
391.1	5380	
391.3	6434	
391.5	5508.4	
391.71	6179.4	
391.91	6062.7	
392.12	7165.2	
392.32	5643.5	
392.53	4752	
392.73	5522	
392.93	5664	
393.14	4417.5	
393.34	5244.8	
393.55	6225.1	
393.75	5640.8	
393.95	4437.9	
394.16	4441.4	
394.36	5376.6	
394.57	6118.6	
394.77	3864.5	
394.98	4337.6	
395.18	5286.5	
395.38	5622.4	
395.59	5321.3	
395.79	4078.9	
396	5434.6	
396.2	5984.2	
396.4	4982	
396.61	4921.3	
396.81	6219.7	
397.02	5431.2	
397.22	5295.4	
397.42	5345.2	
397.63	6124.1	
397.83	5311.7	
398.04	4049.5	
398.24	4653.7	
398.44	5924.8	
398.65	4939.7	
398.85	3917.8	
399.05	4072.7	
399.26	5265.3	
399.46	7088	
399.67	4468	
399.87	4117.1	
400.07	5658.5	
400.28	6111.8	
400.48	4222.2	
400.69	5356.8	
400.89	6488	
401.09	6713.9	
401.3	4100.7	
401.5	5279	
401.7	6967.9	
401.91	7305.1	
402.11	4508.9	
402.32	4784.1	
402.52	6366.5	
402.72	6288.6	
402.93	5015.5	
403.13	3749.1	
403.33	7172.7	
403.54	5744.6	
403.74	4637.3	
403.94	5625.8	
404.15	5811.5	
404.35	7083.2	
404.56	4404.5	
404.76	6442.2	
404.96	6266.8	
405.17	6038.8	
405.37	5363.6	
405.57	4900.1	
405.78	6257.9	
405.98	5657.2	
406.18	4394.3	
406.39	5382.7	
406.59	6309.8	
406.79	5954.8	
407	4259.8	
407.2	4397	
407.4	6303.6	
407.61	6546	
407.81	4307.6	
408.01	6536.4	
408.22	5165.7	
408.42	7285.3	
408.62	5419.6	
408.83	4799.8	
409.03	5818.3	
409.23	5578.7	
409.44	4961.5	
409.64	5227.8	
409.84	6795.2	
410.05	6626.5	
410.25	5036.6	
410.45	4757.4	
410.66	6098.9	
410.86	8708.6	
411.06	5205.9	
411.27	5095.3	
411.47	8462.2	
411.67	6232	
411.88	5376.6	
412.08	5613.5	
412.28	6960.4	
412.49	7491.5	
412.69	5097.4	
412.89	5027.8	
413.09	7325.6	
413.3	7135.1	
413.5	5169.1	
413.7	4780.6	
413.91	6305.7	
414.11	7240.9	
414.31	5046.9	
414.52	5517.2	
414.72	6922.8	
414.92	6801.3	
415.12	5072.8	
415.33	5543.9	
415.53	7335.1	
415.73	7432.1	
415.94	5987.6	
416.14	5346.6	
416.34	6165.1	
416.55	5836	
416.75	6597.9	
416.95	6032	
417.15	7183.6	
417.36	8044.4	
417.56	6810.9	
417.76	5797.1	
417.97	7639.6	
418.17	7289.4	
418.37	5311.7	
418.57	5492.7	
418.78	7051.2	
418.98	6725.5	
419.18	6402.6	
419.38	6326.2	
419.59	6821.8	
419.79	6331	
419.99	5328.1	
420.2	5704.3	
420.4	7243	
420.6	7438.2	
420.8	5206.6	
421.01	5042.1	
421.21	7068.9	
421.41	7406.1	
421.61	5698.8	
421.82	5360.2	
422.02	6582.2	
422.22	7595.2	
422.42	6304.3	
422.63	5855.8	
422.83	6796.5	
423.03	8079.2	
423.23	5873.6	
423.44	4745.1	
423.64	6905.8	
423.84	6630.6	
424.04	5296.7	
424.25	4910.3	
424.45	7856	
424.65	7749.5	
424.85	4730.8	
425.06	5369.8	
425.26	7740	
425.46	6299.6	
425.66	5848.3	
425.87	5538.4	
426.07	7546.1	
426.27	7443.7	
426.47	5696.8	
426.67	5038	
426.88	7919.5	
427.08	7324.2	
427.28	5957.5	
427.48	4932.2	
427.69	6178	
427.89	6873.7	
428.09	5944.6	
428.29	4963.6	
428.5	7644.4	
428.7	7115.3	
428.9	4903.5	
429.1	5438.7	
429.3	7031.4	
429.51	7499	
429.71	5187.5	
429.91	6066.8	
430.11	7386.3	
430.31	7578.8	
430.52	5584.8	
430.72	5918.6	
430.92	7903.8	
431.12	7340.6	
431.32	5187.5	
431.53	5704.3	
431.73	6201.2	
431.93	8002.8	
432.13	5109.7	
432.33	5031.2	
432.54	6674.3	
432.74	7204.1	
432.94	4940.4	
433.14	6064	
433.34	7224.6	
433.55	6745.3	
433.75	6016.9	
433.95	7831.4	
434.15	7107.8	
434.35	6723.5	
434.56	5182.7	
434.76	4711	
434.96	7098.9	
435.16	7294.2	
435.36	5000.5	
435.56	6250.4	
435.77	6651.1	
435.97	6842.3	
436.17	7079.1	
436.37	6199.2	
436.57	6653.2	
436.78	6684.6	
436.98	6156.2	
437.18	6819.7	
437.38	7420.5	
437.58	6965.8	
437.78	6991.1	
437.99	5551.4	
438.19	7536.5	
438.39	9097.1	
438.59	5384.8	
438.79	4927.4	
438.99	8131.1	
439.2	6908.5	
439.4	5053	
439.6	4980.7	
439.8	7281.2	
440	8350.9	
440.2	6103.6	
440.4	6219.7	
440.61	7655.3	
440.81	8226	
441.01	5267.4	
441.21	6339.8	
441.41	8074.5	
441.61	7735.9	
441.81	6580.8	
442.02	7757.7	
442.22	8660.2	
442.42	7748.1	
442.62	5362.3	
442.82	5487.2	
443.02	8060.8	
443.22	7201.3	
443.43	5864	
443.63	5410.7	
443.83	6961.7	
444.03	6997.2	
444.23	6733	
444.43	6221.7	
444.63	7345.4	
444.83	8680.7	
445.04	5386.8	
445.24	6956.9	
445.44	7801.4	
445.64	7921.5	
445.84	6490	
446.04	6429.9	
446.24	7091.4	
446.44	8228.1	
446.65	5585.5	
446.85	5986.9	
447.05	7535.2	
447.25	8189.8	
447.45	6038.8	
447.65	5371.8	
447.85	7423.2	
448.05	7137.9	
448.25	6543.3	
448.46	6267.5	
448.66	7440.3	
448.86	7132.4	
449.06	5192.3	
449.26	6507.8	
449.46	7862.8	
449.66	6785.6	
449.86	5984.2	
450.06	6007.4	
450.26	7047.7	
450.47	7650.5	
450.67	6226.5	
450.87	6595.8	
451.07	7746.8	
451.27	7574.1	
451.47	5556.8	
451.67	6094.8	
451.87	7215.7	
452.07	8454	
452.27	5796.4	
452.47	5812.8	
452.67	7558.4	
452.88	8068.3	
453.08	5109	
453.28	7316	
453.48	8789.2	
453.68	7478.5	
453.88	5713.8	
454.08	5924.8	
454.28	7836.9	
454.48	7533.8	
454.68	6544.6	
454.88	7075.7	
455.08	7983.7	
455.28	7696.9	
455.48	5557.5	
455.68	6211.5	
455.89	8540.7	
456.09	8132.5	
456.29	5951.4	
456.49	6057.2	
456.69	8368	
456.89	7554.3	
457.09	6568.5	
457.29	6918.7	
457.49	7940.7	
457.69	8079.9	
457.89	6337.8	
458.09	5769.8	
458.29	7705.1	
458.49	8520.2	
458.69	6902.3	
458.89	6195.8	
459.09	8793.3	
459.29	9013.8	
459.49	6338.5	
459.69	7193.8	
459.9	8275.2	
460.1	7798.7	
460.3	6226.5	
460.5	6010.8	
460.7	8341.4	
460.9	7957	
461.1	5610.8	
461.3	7053.9	
461.5	8955.1	
461.7	8518.9	
461.9	6214.2	
462.1	6619.7	
462.3	7993.2	
462.5	8619.9	
462.7	6175.3	
462.9	6305	
463.1	9729.2	
463.3	9375.6	
463.5	6471.6	
463.7	7548.1	
463.9	8262.2	
464.1	8647.2	
464.3	6666.8	
464.5	7016.3	
464.7	8938	
464.9	8559.8	
465.1	8419.2	
465.3	7315.3	
465.5	9393.4	
465.7	9308	
465.9	7598.6	
466.1	7521.5	
466.3	9148.3	
466.5	8981.7	
466.7	8458.8	
466.9	7185.6	
467.1	8770.8	
467.3	9809.1	
467.5	8393.9	
467.7	7111.9	
467.9	10075	
468.1	11123	
468.3	8008.2	
468.5	8425.3	
468.7	8832.2	
468.9	8932.6	
469.1	7512.6	
469.3	8245.1	
469.5	10987	
469.7	8471.8	
469.9	8001.4	
470.1	7277.1	
470.3	8911.4	
470.5	8938	
470.7	8660.9	
470.9	7323.5	
471.1	8758.5	
471.3	9196.1	
471.5	7195.2	
471.69	9286.2	
471.89	8580.3	
472.09	8103.8	
472.29	8014.4	
472.49	8418.5	
472.69	8338	
472.89	9280	
473.09	7071.6	
473.29	7204.1	
473.49	8535.9	
473.69	8736	
473.89	8354.3	
474.09	7368.6	
474.29	9907.4	
474.49	9696.4	
474.69	8180.3	
474.89	7567.2	
475.09	8736	
475.29	8703.9	
475.49	6968.6	
475.69	7144.7	
475.88	10434	
476.08	9091.6	
476.28	6896.2	
476.48	7390.4	
476.68	9527.2	
476.88	9353.1	
477.08	7281.2	
477.28	7520.1	
477.48	8813.1	
477.68	9642.5	
477.88	6949.4	
478.08	7391.8	
478.28	9846	
478.48	8966	
478.67	7453.2	
478.87	6787	
479.07	9766.1	
479.27	9080.7	
479.47	7684.7	
479.67	7777.5	
479.87	9527.2	
480.07	10089	
480.27	6868.9	
480.47	8627.4	
480.67	9140.8	
480.87	9822.7	
481.06	7143.3	
481.26	8084	
481.46	9098.4	
481.66	9030.2	
481.86	7730.4	
482.06	8821.3	
482.26	8841.8	
482.46	9949.7	
482.66	7687.4	
482.86	7262.8	
483.05	9164.7	
483.25	8557.8	
483.45	10264	
483.65	7668.3	
483.85	8766	
484.05	9028.1	
484.25	8145.5	
484.45	8557.8	
484.65	10126	
484.84	9992.7	
485.04	7616.4	
485.24	7612.3	
485.44	10385	
485.64	8568.7	
485.84	6804.7	
486.04	8290.2	
486.24	8953	
486.44	9389.9	
486.63	6836.8	
486.83	7751.6	
487.03	8871.1	
487.23	9121.7	
487.43	6976.1	
487.63	9579.7	
487.83	9179	
488.02	10187	
488.22	8074.5	
488.42	8804.9	
488.62	10153	
488.82	8986.5	
489.02	7669	
489.22	7690.1	
489.41	9959.3	
489.61	9529.2	
489.81	7435.5	
490.01	7533.8	
490.21	9895.1	
490.41	10636	
490.61	7446.4	
490.8	7570.7	
491	9435	
491.2	8694.3	
491.4	8310	
491.6	7243.7	
491.8	9243.8	
491.99	9593.4	
492.19	7062.1	
492.39	7514.7	
492.59	9870.5	
492.79	9991.4	
492.99	8356.4	
493.18	7434.1	
493.38	10003	
493.58	10989	
493.78	8266.3	
493.98	7782.3	
494.18	9778.4	
494.37	9279.3	
494.57	8568	
494.77	8447.2	
494.97	10124	
495.17	10324	
495.37	8022.6	
495.56	8328.4	
495.76	10618	
495.96	10151	
496.16	9395.4	
496.36	8197.3	
496.55	10482	
496.75	10019	
496.95	8761.2	
497.15	8536.6	
497.35	10501	
497.54	10451	
497.74	8297.7	
497.94	10191	
498.14	11210	
498.34	11062	
498.53	7993.9	
498.73	8943.5	
498.93	9828.9	
499.13	10440	
499.33	8792.6	
499.52	9286.2	
499.72	10488	
499.92	10798	
500.12	8339.3	
500.32	8660.2	
500.51	10789	
500.71	10661	
500.91	9609.8	
501.11	9227.5	
501.31	10786	
501.5	11191	
501.7	9953.8	
501.9	8834.9	
502.1	10456	
502.29	10812	
502.49	9151	
502.69	9778.4	
502.89	10810	
503.09	10768	
503.28	8222.6	
503.48	8414.4	
503.68	9916.3	
503.88	9926.5	
504.07	9506.7	
504.27	8721.6	
504.47	10331	
504.67	10504	
504.86	9235	
505.06	8990.6	
505.26	10013	
505.46	11907	
505.65	8856.1	
505.85	9112.8	
506.05	9964.7	
506.25	10546	
506.44	8145.5	
506.64	9052	
506.84	9917.6	
507.04	10789	
507.23	8323.6	
507.43	9007	
507.63	11962	
507.83	10058	
508.02	8893	
508.22	8609	
508.42	12250	
508.62	9884.2	
508.81	9169.4	
509.01	9473.2	
509.21	9723.8	
509.4	10048	
509.6	9153.7	
509.8	8344.1	
510	10008	
510.19	11686	
510.39	8295.6	
510.59	8531.8	
510.79	9865.1	
510.98	11345	
511.18	8618.5	
511.38	8699.8	
511.57	10703	
511.77	10706	
511.97	9428.8	
512.17	8228.1	
512.36	10696	
512.56	10690	
512.76	8400.1	
512.95	8120.9	
513.15	10887	
513.35	9387.2	
513.55	9228.8	
513.74	8443.8	
513.94	10836	
514.14	10125	
514.33	9469.8	
514.53	9180.4	
514.73	10013	
514.92	10381	
515.12	8548.2	
515.32	8439	
515.51	10327	
515.71	11064	
515.91	10406	
516.11	8529.1	
516.3	12228	
516.5	10000	
516.7	9159.2	
516.89	9802.3	
517.09	10264	
517.29	10097	
517.48	9592.7	
517.68	8896.4	
517.88	9906.7	
518.07	10628	
518.27	9458.9	
518.47	8407.6	
518.66	11293	
518.86	9693.7	
519.06	8200.7	
519.25	8786.5	
519.45	10099	
519.65	11718	
519.84	9387.9	
520.04	10177	
520.24	12166	
520.43	10793	
520.63	9097.8	
520.83	8821.3	
521.02	9971.6	
521.22	10750	
521.42	9316.9	
521.61	10012	
521.81	10215	
522.01	10422	
522.2	9213.1	
522.4	9062.9	
522.6	10906	
522.79	9745.6	
522.99	9146.2	
523.18	8442.4	
523.38	10647	
523.58	10734	
523.77	10500	
523.97	8473.8	
524.17	12738	
524.36	11828	
524.56	9940.2	
524.76	9545.6	
524.95	10842	
525.15	10471	
525.34	9437.7	
525.54	9503.9	
525.74	11297	
525.93	10351	
526.13	10789	
526.33	9478.7	
526.52	11695	
526.72	11237	
526.91	10804	
527.11	10010	
527.31	11781	
527.5	12321	
527.7	10017	
527.89	8983.8	
528.09	10708	
528.29	11295	
528.48	10413	
528.68	10031	
528.87	11708	
529.07	11840	
529.27	9934	
529.46	9479.4	
529.66	11393	
529.85	12008	
530.05	9368.1	
530.25	10218	
530.44	12975	
530.64	11142	
530.83	9787.9	
531.03	10054	
531.23	11782	
531.42	11662	
531.62	10794	
531.81	9986.6	
532.01	11978	
532.21	12628	
532.4	9780.4	
532.6	10198	
532.79	13186	
532.99	12201	
533.18	10400	
533.38	11518	
533.58	11804	
533.77	12577	
533.97	10543	
534.16	11236	
534.36	12889	
534.55	11780	
534.75	11508	
534.95	10596	
535.14	12772	
535.34	11881	
535.53	10061	
535.73	12315	
535.92	13457	
536.12	12012	
536.31	10176	
536.51	11493	
536.71	12364	
536.9	11862	
537.1	10425	
537.29	10567	
537.49	12821	
537.68	11860	
537.88	10995	
538.07	10183	
538.27	12127	
538.46	13177	
538.66	10034	
538.86	10660	
539.05	12149	
539.25	12611	
539.44	10912	
539.64	10452	
539.83	12032	
540.03	13177	
540.22	10395	
540.42	10511	
540.61	12293	
540.81	12514	
541	10925	
541.2	11652	
541.39	11776	
541.59	12232	
541.78	11375	
541.98	10251	
542.18	11419	
542.37	11491	
542.57	10776	
542.76	11361	
542.96	11475	
543.15	12276	
543.35	10672	
543.54	10090	
543.74	12576	
543.93	12095	
544.13	10669	
544.32	11783	
544.52	12360	
544.71	11554	
544.91	9746.3	
545.1	11019	
545.3	11609	
545.49	12368	
545.69	9641.8	
545.88	10297	
546.08	13342	
546.27	12959	
546.47	10860	
546.66	10051	
546.86	12392	
547.05	13254	
547.24	10372	
547.44	10241	
547.63	11440	
547.83	12680	
548.02	10574	
548.22	10860	
548.41	11258	
548.61	12685	
548.8	10062	
549	10019	
549.19	11858	
549.39	12207	
549.58	9658.9	
549.78	10312	
549.97	12265	
550.17	11842	
550.36	11264	
550.55	12420	
550.75	11667	
550.94	12693	
551.14	9912.9	
551.33	10288	
551.53	11158	
551.72	12174	
551.92	10309	
552.11	10051	
552.31	12056	
552.5	12171	
552.69	11980	
552.89	9747	
553.08	12131	
553.28	11832	
553.47	10174	
553.67	11415	
553.86	12826	
554.06	10929	
554.25	9194	
554.44	9904.7	
554.64	13562	
554.83	13075	
555.03	9968.8	
555.22	10297	
555.42	12297	
555.61	12000	
555.8	10101	
556	10325	
556.19	10963	
556.39	12567	
556.58	10116	
556.78	10023	
556.97	11785	
557.16	11566	
557.36	11494	
557.55	9678	
557.75	10755	
557.94	12713	
558.13	9919.7	
558.33	9536	
558.52	12385	
558.72	11258	
558.91	9744.2	
559.1	9969.5	
559.3	10918	
559.49	10597	
559.69	9290.3	
559.88	10335	
560.07	11806	
560.27	12258	
560.46	10452	
560.66	10624	
560.85	11607	
561.04	10726	
561.24	9669.8	
561.43	9852.8	
561.63	10947	
561.82	11256	
562.01	11205	
562.21	10305	
562.4	11704	
562.59	12787	
562.79	10057	
562.98	9670.5	
563.18	11639	
563.37	13260	
563.56	10531	
563.76	9613.2	
563.95	11084	
564.14	11105	
564.34	10120	
564.53	9835	
564.73	11638	
564.92	12139	
565.11	10357	
565.31	9624.1	
565.5	12373	
565.69	11234	
565.89	9777.7	
566.08	10178	
566.27	12267	
566.47	12716	
566.66	10755	
566.85	9427.5	
567.05	11899	
567.24	11209	
567.44	9723.8	
567.63	11271	
567.82	12002	
568.02	11785	
568.21	9812.5	
568.4	10334	
568.6	11697	
568.79	11761	
568.98	9680.1	
569.18	9925.8	
569.37	11755	
569.56	13949	
569.76	10317	
569.95	11340	
570.14	12196	
570.34	12029	
570.53	9818	
570.72	9781.1	
570.91	12620	
571.11	11690	
571.3	10244	
571.49	11284	
571.69	11788	
571.88	11348	
572.07	10970	
572.27	10834	
572.46	11278	
572.65	12394	
572.85	10162	
573.04	10467	
573.23	12756	
573.43	11863	
573.62	9874.6	
573.81	10643	
574	12001	
574.2	11736	
574.39	10228	
574.58	10464	
574.78	12928	
574.97	12208	
575.16	10953	
575.36	11262	
575.55	12595	
575.74	12757	
575.93	10005	
576.13	11197	
576.32	11985	
576.51	12494	
576.71	10460	
576.9	11901	
577.09	12960	
577.28	12410	
577.48	10987	
577.67	9951.8	
577.86	12143	
578.05	12443	
578.25	10610	
578.44	10791	
578.63	12179	
578.83	13463	
579.02	10030	
579.21	11714	
579.4	12297	
579.6	11995	
579.79	10928	
579.98	13179	
580.17	12747	
580.37	12818	
580.56	10218	
580.75	11074	
580.94	13356	
581.14	13134	
581.33	11557	
581.52	10408	
581.71	12714	
581.91	13314	
582.1	10137	
582.29	10714	
582.48	12251	
582.68	12288	
582.87	11350	
583.06	10871	
583.25	12494	
583.45	11987	
583.64	11695	
583.83	12381	
584.02	12076	
584.21	12557	
584.41	11538	
584.6	10768	
584.79	12344	
584.98	13174	
585.18	10198	
585.37	10303	
585.56	11809	
585.75	12754	
585.94	10525	
586.14	11232	
586.33	13313	
586.52	12340	
586.71	10922	
586.91	10656	
587.1	11539	
587.29	12830	
587.48	10651	
587.67	10542	
587.87	12383	
588.06	12647	
588.25	11906	
588.44	11099	
588.63	12020	
588.83	12809	
589.02	10514	
589.21	10344	
589.4	11774	
589.59	11509	
589.78	9473.2	
589.98	9783.1	
590.17	11165	
590.36	11821	
590.55	8959.9	
590.74	9874.6	
590.94	13067	
591.13	11499	
591.32	9601.6	
591.51	9061.6	
591.7	12065	
591.89	11510	
592.09	9254.1	
592.28	9843.9	
592.47	10701	
592.66	12803	
592.85	9291	
593.05	9577	
593.24	11356	
593.43	12136	
593.62	9661	
593.81	10148	
594	11378	
594.19	11666	
594.39	9471.2	
594.58	9468.4	
594.77	11861	
594.96	12420	
595.15	9377.6	
595.34	10017	
595.54	11803	
595.73	10748	
595.92	8652.7	
596.11	9997.5	
596.3	12282	
596.49	10860	
596.68	9621.4	
596.88	10190	
597.07	11983	
597.26	10730	
597.45	9172.2	
597.64	10559	
597.83	10969	
598.02	11553	
598.22	9194	
598.41	9867.1	
598.6	11421	
598.79	10792	
598.98	9299.8	
599.17	10163	
599.36	11329	
599.55	12552	
599.74	11463	
599.94	11153	
600.13	11899	
600.32	10663	
600.51	8989.2	
600.7	9170.8	
600.89	12528	
601.08	12654	
601.27	8818.6	
601.47	10034	
601.66	11818	
601.85	12552	
602.04	9542.2	
602.23	9837.8	
602.42	10811	
602.61	11489	
602.8	9452.7	
602.99	9262.3	
603.18	11087	
603.37	11375	
603.57	9861.7	
603.76	10547	
603.95	12180	
604.14	11680	
604.33	9342.8	
604.52	9692.4	
604.71	11383	
604.9	10983	
605.09	10322	
605.28	10157	
605.47	12057	
605.66	11739	
605.86	9937.4	
606.05	9364.7	
606.24	12122	
606.43	10477	
606.62	9604.3	
606.81	10569	
607	11779	
607.19	11123	
607.38	9031.5	
607.57	9413.1	
607.76	10908	
607.95	10314	
608.14	9772.9	
608.33	10509	
608.52	10776	
608.72	11865	
608.91	8942.1	
609.1	8869.1	
609.29	10907	
609.48	10359	
609.67	9962.7	
609.86	8847.9	
610.05	10480	
610.24	11001	
610.43	8707.3	
610.62	8335.2	
610.81	12018	
611	11830	
611.19	8871.1	
611.38	9652.8	
611.57	11128	
611.76	12667	
611.95	8690.9	
612.14	8558.5	
612.33	10888	
612.52	10331	
612.71	9329.2	
612.9	8428.8	
613.09	10003	
613.28	12536	
613.47	8948.9	
613.66	9931.3	
613.85	11068	
614.04	10574	
614.24	9023.4	
614.43	8120.9	
614.62	11202	
614.81	11166	
615	9695.8	
615.19	9738.8	
615.38	10430	
615.57	10868	
615.76	9433.6	
615.95	10484	
616.14	11370	
616.33	10959	
616.52	9811.8	
616.71	10096	
616.9	11194	
617.09	11006	
617.28	9174.2	
617.47	10696	
617.66	10292	
617.85	10391	
618.04	10236	
618.22	9540.1	
618.41	10685	
618.6	11650	
618.79	9455.5	
618.98	9136	
619.17	12082	
619.36	10268	
619.55	9406.3	
619.74	9482.1	
619.93	11290	
620.12	10722	
620.31	10076	
620.5	10166	
620.69	11962	
620.88	12335	
621.07	10987	
621.26	10004	
621.45	11570	
621.64	11593	
621.83	10183	
622.02	9302.6	
622.21	11516	
622.4	11353	
622.59	10890	
622.78	10469	
622.97	10948	
623.16	12041	
623.35	10082	
623.54	9236.3	
623.72	11239	
623.91	11416	
624.1	10496	
624.29	9053.4	
624.48	12583	
624.67	11660	
624.86	10402	
625.05	9218.6	
625.24	12620	
625.43	10913	
625.62	12143	
625.81	9540.1	
626	12162	
626.19	11325	
626.38	10431	
626.56	9675.3	
626.75	10999	
626.94	11788	
627.13	10354	
627.32	9022	
627.51	11889	
627.7	13315	
627.89	9224.1	
628.08	10481	
628.27	10884	
628.46	11090	
628.65	9436.4	
628.83	9166.7	
629.02	11720	
629.21	11029	
629.4	9909.4	
629.59	10202	
629.78	10922	
629.97	11989	
630.16	10216	
630.35	9621.4	
630.54	12488	
630.72	12029	
630.91	9553.1	
631.1	10248	
631.29	11568	
631.48	11821	
631.67	10239	
631.86	9722.4	
632.05	11161	
632.24	11323	
632.42	9286.2	
632.61	10060	
632.8	11316	
632.99	10847	
633.18	10080	
633.37	10447	
633.56	11479	
633.75	11391	
633.93	9925.1	
634.12	9663.7	
634.31	12283	
634.5	11913	
634.69	9636.4	
634.88	10120	
635.07	11185	
635.25	11838	
635.44	10684	
635.63	10997	
635.82	11057	
636.01	10549	
636.2	10528	
636.39	10099	
636.57	12328	
636.76	11995	
636.95	9465	
637.14	10992	
637.33	11606	
637.52	12630	
637.7	9164.7	
637.89	10227	
638.08	11116	
638.27	12689	
638.46	10340	
638.65	10764	
638.83	12637	
639.02	10863	
639.21	10260	
639.4	10695	
639.59	11462	
639.78	10872	
639.96	9425.4	
640.15	9345.6	
640.34	11258	
640.53	11357	
640.72	9087.5	
640.91	9435	
641.09	10568	
641.28	12110	
641.47	9407.7	
641.66	10308	
641.85	11308	
642.03	11547	
642.22	10112	
642.41	9559.9	
642.6	10534	
642.79	10060	
642.97	9222.7	
643.16	10097	
643.35	10550	
643.54	10426	
643.73	9052.7	
643.91	9900.6	
644.1	10287	
644.29	10998	
644.48	9207	
644.67	9116.9	
644.85	10479	
645.04	10737	
645.23	8768	
645.42	9065.7	
645.6	10137	
645.79	11460	
645.98	8912.8	
646.17	7915.4	
646.36	9872.6	
646.54	10497	
646.73	9620.7	
646.92	8482	
647.11	10092	
647.29	11204	
647.48	8539.3	
647.67	8312.7	
647.86	11439	
648.05	11539	
648.23	8750.3	
648.42	10180	
648.61	10805	
648.8	10486	
648.98	8359.1	
649.17	8851.3	
649.36	9944.3	
649.55	9443.9	
649.73	8344.1	
649.92	9338.7	
650.11	9783.1	
650.3	10281	
650.48	8587.8	
650.67	8368.7	
650.86	10577	
651.05	9357.2	
651.23	8546.9	
651.42	8453.3	
651.61	9871.9	
651.79	10075	
651.98	8744.1	
652.17	8272.4	
652.36	10387	
652.54	9381.1	
652.73	8335.2	
652.92	8117.5	
653.11	10416	
653.29	10342	
653.48	7583.6	
653.67	8654	
653.85	10025	
654.04	11261	
654.23	8852	
654.42	8310.7	
654.6	9534.7	
654.79	10114	
654.98	7691.5	
655.16	8202.1	
655.35	8964	
655.54	8893	
655.73	7694.2	
655.91	7507.9	
656.1	10060	
656.29	8707.3	
656.47	7096.2	
656.66	9046.6	
656.85	9192.6	
657.03	9275.3	
657.22	7759.1	
657.41	7941.3	
657.59	9369.5	
657.78	9196.7	
657.97	7574.1	
658.16	8247.2	
658.34	10091	
658.53	10473	
658.72	9257.5	
658.9	9837.1	
659.09	9397.4	
659.28	9639.1	
659.46	8097	
659.65	7959.8	
659.84	9190.6	
660.02	9887.6	
660.21	7812.3	
660.4	7784.3	
660.58	10372	
660.77	9650	
660.96	8432.2	
661.14	7492.2	
661.33	10888	
661.52	10740	
661.7	7374.7	
661.89	11479	
662.08	9177.6	
662.26	8761.2	
662.45	7643	
662.64	7800.7	
662.82	9914.2	
663.01	9071.8	
663.2	7821.2	
663.38	8656.1	
663.57	9775	
663.75	9657.5	
663.94	8151.6	
664.13	9516.9	
664.31	9069.8	
664.5	9853.5	
664.69	8226	
664.87	8929.8	
665.06	8812.4	
665.25	9657.5	
665.43	9164.7	
665.62	9383.8	
665.8	9991.4	
665.99	9265.7	
666.18	8097	
666.36	8177.5	
666.55	9886.2	
666.74	9944.9	
666.92	7721.5	
667.11	9418.6	
667.29	9234.3	
667.48	9848.7	
667.67	9007.6	
667.85	7974.8	
668.04	9278	
668.22	9270.5	
668.41	8163.2	
668.6	8258.8	
668.78	9103.9	
668.97	9270.5	
669.15	8464.9	
669.34	7287.4	
669.53	9026.8	
669.71	9440.5	
669.9	7504.4	
670.08	8238.3	
670.27	9057.5	
670.46	9620	
670.64	8458.1	
670.83	8781	
671.01	8857.5	
671.2	9516.2	
671.38	7593.9	
671.57	7562.5	
671.76	10146	
671.94	10829	
672.13	7421.8	
672.31	8702.5	
672.5	9802.3	
672.69	9067.7	
672.87	7653.9	
673.06	7998	
673.24	9608.4	
673.43	9159.9	
673.61	8428.1	
673.8	7934.5	
673.98	9885.5	
674.17	10043	
674.36	8584.4	
674.54	8461.5	
674.73	9461.6	
674.91	9769.5	
675.1	8101.1	
675.28	7746.1	
675.47	9299.8	
675.65	9893.1	
675.84	7932.5	
676.03	8280.6	
676.21	8982.4	
676.4	8539.3	
676.58	8817.2	
676.77	8544.8	
676.95	10617	
677.14	8995.4	
677.32	7653.9	
677.51	7447.1	
677.69	9830.2	
677.88	8660.9	
678.06	7480.5	
678.25	7647.1	
678.44	9310.7	
678.62	8957.8	
678.81	7262.8	
678.99	8332.5	
679.18	10139	
679.36	9639.8	
679.55	7887.4	
679.73	8597.4	
679.92	9665.7	
680.1	9103.2	
680.29	9354.4	
680.47	7938.6	
680.66	9011.7	
680.84	9901.9	
681.03	7177.4	
681.21	8363.9	
681.4	8995.4	
681.58	8908	
681.77	7632.8	
681.95	7604.8	
682.14	10005	
682.32	10315	
682.51	8544.1	
682.69	7350.2	
682.88	8872.5	
683.06	9650	
683.25	8268.3	
683.43	8820.6	
683.62	9280.7	
683.8	9753.1	
683.99	8895.7	
684.17	8150.2	
684.36	10557	
684.54	9169.4	
684.73	7247.1	
684.91	7450.5	
685.1	9394	
685.28	8739.4	
685.46	8012.3	
685.65	7985	
685.83	9561.3	
686.02	8885.5	
686.2	7340.6	
686.39	7557	
686.57	8622.6	
686.76	10365	
686.94	7497.6	
687.13	7554.3	
687.31	9495.1	
687.5	9032.2	
687.68	7001.3	
687.86	8398.7	
688.05	10877	
688.23	8496.3	
688.42	8479.3	
688.6	7626	
688.79	8936.7	
688.97	8966.7	
689.16	8111.3	
689.34	6896.2	
689.52	9868.5	
689.71	10017	
689.89	8439.7	
690.08	7748.8	
690.26	9428.2	
690.45	9188.6	
690.63	8662.9	
690.81	7886	
691	9014.5	
691.18	9076.6	
691.37	7905.8	
691.55	10369	
691.74	8949.6	
691.92	11160	
692.1	7985	
692.29	7401.4	
692.47	9202.2	
692.66	8357.8	
692.84	7658.7	
693.02	8217.8	
693.21	8659.5	
693.39	9135.3	
693.58	8332.5	
693.76	7808.9	
693.94	10494	
694.13	10218	
694.31	7807.5	
694.5	8998.8	
694.68	9006.3	
694.86	9479.4	
695.05	8242.4	
695.23	8698.4	
695.42	9978.4	
695.6	12425	
695.78	8942.8	
695.97	7909.9	
696.15	10081	
696.34	9370.1	
696.52	7720.2	
696.7	8643.1	
696.89	9705.3	
697.07	9104.6	
697.25	8578.9	
697.44	10060	
697.62	9600.2	
697.81	10061	
697.99	8144.8	
698.17	8761.2	
698.36	8944.8	
698.54	9704.6	
698.72	8583.7	
698.91	7480.5	
699.09	9245.2	
699.28	9072.5	
699.46	8245.1	
699.64	8042.4	
699.83	8986.5	
700.01	10409	
700.19	8938	
700.38	7271	
700.56	10341	
700.74	9112.8	
700.93	7713.3	
701.11	8628.1	
701.29	9704	
701.48	10942	
701.66	7875.8	
701.84	8069	
702.03	9299.8	
702.21	10187	
702.39	7580.9	
702.58	8262.9	
702.76	9748.3	
702.94	9910.8	
703.13	7621.9	
703.31	10337	
703.49	9121	
703.68	10799	
703.86	7864.2	
704.04	8956.4	
704.23	9609.8	
704.41	10094	
704.59	8025.3	
704.78	9124.4	
704.96	10897	
705.14	10137	
705.33	7755.7	
705.51	8612.4	
705.69	9529.2	
705.87	10331	
706.06	8982.4	
706.24	7744.7	
706.42	9851.4	
706.61	10228	
706.79	8979.7	
706.97	7792.5	
707.16	9209	
707.34	9900.6	
707.52	8995.4	
707.7	8079.9	
707.89	9564.7	
708.07	9045.9	
708.25	9015.8	
708.44	9093.7	
708.62	9346.2	
708.8	10574	
708.98	9172.9	
709.17	8158.4	
709.35	9828.9	
709.53	9812.5	
709.72	7783.6	
709.9	7988.4	
710.08	10081	
710.26	10046	
710.45	9521.7	
710.63	8243.1	
710.81	9684.8	
710.99	9708.1	
711.18	8736.6	
711.36	8250.6	
711.54	9463	
711.72	10209	
711.91	8267.6	
712.09	7662.1	
712.27	9616.6	
712.45	10318	
712.64	8517.5	
712.82	7369.3	
713	8888.9	
713.18	9073.2	
713.37	7496.9	
713.55	8793.3	
713.73	9956.5	
713.91	8346.2	
714.1	7782.3	
714.28	7106.5	
714.46	9424.8	
714.64	8349.6	
714.83	6333	
715.01	7222.5	
715.19	8400.8	
715.37	7707.2	
715.55	6769.9	
715.74	7155.6	
715.92	9288.2	
716.1	7111.2	
716.28	8269.7	
716.47	7196.6	
716.65	7817.1	
716.83	8013	
717.01	7083.2	
717.19	7155.6	
717.38	10275	
717.56	7597.3	
717.74	7387	
717.92	6445	
718.1	8981	
718.29	8165.3	
718.47	6130.9	
718.65	6853.2	
718.83	9072.5	
719.01	8979.7	
719.2	6141.9	
719.38	7258	
719.56	8650.6	
719.74	10434	
719.92	6798.6	
720.11	7936.6	
720.29	8632.2	
720.47	7668.3	
720.65	6255.2	
720.83	7239.6	
721.02	7931.1	
721.2	7725.6	
721.38	7139.2	
721.56	6343.2	
721.74	7131	
721.92	7406.1	
722.11	7567.2	
722.29	7327.6	
722.47	8701.8	
722.65	7757.7	
722.83	6312.5	
723.01	7329	
723.2	7846.5	
723.38	8211.7	
723.56	5780.7	
723.74	7046.4	
723.92	7331.7	
724.1	8598.7	
724.29	6347.3	
724.47	7509.9	
724.65	7396.6	
724.83	7337.9	
725.01	6125.5	
725.19	7041.6	
725.37	7389.1	
725.56	7433.4	
725.74	5973.9	
725.92	6364.4	
726.1	7254.6	
726.28	7710.6	
726.46	6670.9	
726.64	6359.6	
726.83	7516.7	
727.01	7985	
727.19	5928.2	
727.37	6925.5	
727.55	7704.5	
727.73	8247.2	
727.91	5857.9	
728.09	5714.5	
728.28	8359.8	
728.46	9044.5	
728.64	7005.4	
728.82	6892.1	
729	9512.8	
729.18	8718.2	
729.36	6117.3	
729.54	8606.9	
729.72	9801.6	
729.91	7987.1	
730.09	8262.2	
730.27	6921.5	
730.45	7824.6	
730.63	8639.7	
730.81	7607.5	
730.99	6550.1	
731.17	9193.3	
731.35	7592.5	
731.53	7113.3	
731.71	6720.8	
731.9	8848.6	
732.08	9066.4	
732.26	7038.2	
732.44	6543.9	
732.62	9058.8	
732.8	8497	
732.98	7370.6	
733.16	6397.9	
733.34	8591.2	
733.52	7185.6	
733.7	6783.6	
733.88	7183.6	
734.07	8338.6	
734.25	8071.7	
734.43	6191.7	
734.61	7956.4	
734.79	9637.1	
734.97	7933.1	
735.15	6393.1	
735.33	6776	
735.51	8281.3	
735.69	7925	
735.87	8004.1	
736.05	6931	
736.23	8111.3	
736.41	7903.8	
736.59	6784.2	
736.77	6908.5	
736.95	8610.3	
737.13	7993.9	
737.32	6379.4	
737.5	6599.2	
737.68	9061.6	
737.86	7800.7	
738.04	6107	
738.22	8261.5	
738.4	7561.1	
738.58	7840.3	
738.76	6818.4	
738.94	5760.3	
739.12	7690.8	
739.3	7568.6	
739.48	7419.8	
739.66	7157	
739.84	7984.3	
740.02	7965.2	
740.2	5734.3	
740.38	6161.7	
740.56	8363.2	
740.74	7121.5	
740.92	6821.8	
741.1	6795.8	
741.28	7735.9	
741.46	7595.2	
741.64	6309.1	
741.82	6839.5	
742	7766.6	
742.18	7699.7	
742.36	6539.8	
742.54	6043.6	
742.72	8372.8	
742.9	6925.5	
743.08	7062.1	
743.26	5672.9	
743.44	8529.8	
743.62	8363.9	
743.8	7155.6	
743.98	6074.3	
744.16	8038.3	
744.34	7647.1	
744.52	7052.5	
744.7	6987	
744.88	8128.4	
745.06	7495.6	
745.24	6975.4	
745.42	7161.1	
745.6	8185	
745.78	7901.7	
745.96	5636.7	
746.14	6032.6	
746.32	9045.2	
746.5	8134.5	
746.68	6627.9	
746.86	6006.7	
747.03	8696.4	
747.21	6849.1	
747.39	6568.5	
747.57	6019	
747.75	7664.2	
747.93	8133.8	
748.11	5961	
748.29	5883.1	
748.47	9425.4	
748.65	7370.6	
748.83	6815	
749.01	6403.3	
749.19	7923.6	
749.37	7048.4	
749.55	6293.4	
749.73	6365.1	
749.91	7542.7	
750.09	7161.1	
750.26	6482.5	
750.44	5770.5	
750.62	7569.3	
750.8	7484	
750.98	5597.8	
751.16	5995.8	
751.34	7633.5	
751.52	6853.9	
751.7	6826.6	
751.88	5653.1	
752.06	8101.8	
752.24	7906.5	
752.42	5554.1	
752.59	5919.3	
752.77	7429.3	
752.95	8755.1	
753.13	6699.6	
753.31	6042.9	
753.49	7036.8	
753.67	7559.1	
753.85	6366.5	
754.03	5897.5	
754.21	7829.4	
754.38	8240.3	
754.56	6005.3	
754.74	4957.4	
754.92	6992.4	
755.1	7610.9	
755.28	4927.4	
755.46	4844.8	
755.64	8346.2	
755.82	8368	
755.99	4911	
756.17	4967.7	
756.35	5502.9	
756.53	7151.5	
756.71	3708.9	
756.89	4726.7	
757.07	6749.4	
757.25	5755.5	
757.42	5337	
757.6	6412.9	
757.78	6946	
757.96	5951.4	
758.14	5261.9	
758.32	4737.6	
758.5	5352.7	
758.67	6245.6	
758.85	4897.4	
759.03	5085.8	
759.21	6481.8	
759.39	5836	
759.57	4444.1	
759.75	5799.8	
759.92	6972.7	
760.1	6404	
760.28	6192.4	
760.46	6538.5	
760.64	6177.4	
760.82	5939.1	
760.99	6147.3	
761.17	5114.5	
761.35	7058	
761.53	6073.6	
761.71	5335.6	
761.89	6128.2	
762.06	7049.8	
762.24	6476.4	
762.42	5474.9	
762.6	5215.5	
762.78	6550.1	
762.96	7258.7	
763.13	5920	
763.31	5612.8	
763.49	7432.8	
763.67	6451.8	
763.85	6485.2	
764.02	7102.4	
764.2	7745.4	
764.38	6772.6	
764.56	5464.7	
764.74	6335.1	
764.91	7847.1	
765.09	6610.8	
765.27	4949.9	
765.45	4887.8	
765.63	7830.1	
765.8	7647.8	
765.98	4505.5	
766.16	4894.6	
766.34	6137.8	
766.52	5882.4	
766.69	5917.3	
766.87	4743.8	
767.05	6508.4	
767.23	7479.2	
767.41	5014.1	
767.58	5305.6	
767.76	7098.3	
767.94	7199.3	
768.12	5079.6	
768.29	5931.6	
768.47	6611.5	
768.65	7376.1	
768.83	4636.6	
769	5860.6	
769.18	6085.9	
769.36	6881.2	
769.54	5840.8	
769.72	4718.5	
769.89	7089.4	
770.07	7270.3	
770.25	5003.9	
770.43	6436.1	
770.6	7918.8	
770.78	8335.2	
770.96	5292	
771.14	5877.7	
771.31	6982.9	
771.49	6281.8	
771.67	4259.1	
771.85	4522.6	
772.02	5473.5	
772.2	6270.2	
772.38	5378	
772.55	4782	
772.73	6492.7	
772.91	6268.1	
773.09	5171.1	
773.26	5259.2	
773.44	6524.8	
773.62	6118	
773.8	4591.5	
773.97	4358.8	
774.15	6488	
774.33	6066.1	
774.5	4470	
774.68	4876.9	
774.86	6774	
775.04	6086.6	
775.21	4553.3	
775.39	4579.9	
775.57	6317.3	
775.74	6912.6	
775.92	4370.4	
776.1	4266.6	
776.27	6340.5	
776.45	7742	
776.63	4483	
776.81	4069.3	
776.98	5909.1	
777.16	7113.3	
777.34	4664.6	
777.51	5046.2	
777.69	5899.5	
777.87	5662.6	
778.04	4632.5	
778.22	5472.9	
778.4	5635.3	
778.57	6420.4	
778.75	3885	
778.93	4250.9	
779.1	5446.2	
779.28	5377.3	
779.46	3922.5	
779.64	4481	
779.81	6605.4	
779.99	7461.4	
780.17	5281.7	
780.34	5457.2	
780.52	5967.1	
780.69	6186.9	
780.87	4812	
781.05	4274.8	
781.22	5963	
781.4	6176	
781.58	4472.1	
781.75	3564.8	
781.93	6026.5	
782.11	5405.3	
782.28	5440.1	
782.46	4437.9	
782.64	5154.7	
782.81	6206.7	
782.99	4517.1	
783.17	4544.4	
783.34	6123.4	
783.52	5226.4	
783.69	4787.5	
783.87	5536.3	
784.05	5427.8	
784.22	5390.9	
784.4	5508.4	
784.58	4742.4	
784.75	6315.9	
784.93	5341.1	
785.1	4417.5	
785.28	5071.5	
785.46	6055.2	
785.63	5332.9	
785.81	4397	
785.99	4166.9	
786.16	5474.9	
786.34	5945.3	
786.51	4254.3	
786.69	4705.5	
786.87	5085.1	
787.04	5643.5	
787.22	4070	
787.39	5148.6	
787.57	5293.3	
787.75	6556.9	
787.92	5312.4	
788.1	5276.9	
788.27	5380	
788.45	5135.6	
788.63	4939	
788.8	3528.7	
788.98	5904.3	
789.15	5036	
789.33	3662.5	
789.5	4367.6	
789.68	6309.8	
789.86	6445	
790.03	4866	
790.21	4203.1	
790.38	6285.2	
790.56	5477	
790.73	4070	
790.91	4154.6	
791.09	5299.5	
791.26	6139.8	
791.44	4304.1	
791.61	3737.5	
791.79	5290.6	
791.96	5392.3	
792.14	3824.9	
792.32	3424.9	
792.49	5280.3	
792.67	5410.7	
792.84	3897.3	
793.02	3752.6	
793.19	5788.2	
793.37	6525.5	
793.54	3350.5	
793.72	3822.2	
793.89	6681.2	
794.07	5313.8	
794.25	4469.4	
794.42	3512.3	
794.6	6472.3	
794.77	5994.4	
794.95	4690.5	
795.12	4098.7	
795.3	5227.8	
795.47	5988.9	
795.65	4530.1	
795.82	4367	
796	5080.3	
796.17	7231.4	
796.35	4285	
796.52	4971.8	
796.7	5838.1	
796.87	5941.8	
797.05	5278.3	
797.22	5104.2	
797.4	5958.9	
797.57	7002	
797.75	4298.7	
797.92	4049.5	
798.1	6253.1	
798.27	5229.8	
798.45	3490.4	
798.62	3770.3	
798.8	5616.2	
798.97	6198.5	
799.15	4582	
799.32	4358.8	
799.5	4814.1	
799.67	5665.4	
799.85	4756.7	
800.02	3379.8	
800.2	5178.6	
800.37	5565	
800.55	4913.8	
800.72	4073.4	
800.9	6085.2	
801.07	6590.4	
801.25	5539.8	
801.42	4519.2	
801.6	6108.4	
801.77	5866.1	
801.95	4141.7	
802.12	3991.5	
802.29	5810.8	
802.47	5767.1	
802.64	4472.1	
802.82	3311.6	
802.99	5196.4	
803.17	6240.2	
803.34	4372.4	
803.52	3910.3	
803.69	7018.4	
803.87	4974.5	
804.04	4328	
804.21	4412	
804.39	6384.2	
804.56	5492.7	
804.74	3628.3	
804.91	4481	
805.09	5252.4	
805.26	5332.2	
805.44	3704.1	
805.61	4128	
805.78	5949.3	
805.96	6012.8	
806.13	4478.2	
806.31	4832.5	
806.48	4756.1	
806.66	5324	
806.83	4482.3	
807	4323.9	
807.18	5180.7	
807.35	5647.6	
807.53	4377.9	
807.7	3418.1	
807.87	6485.2	
808.05	5268.7	
808.22	4798.4	
808.4	3459	
808.57	5308.3	
808.74	4883.7	
808.92	3910.9	
809.09	5154.7	
809.27	5052.3	
809.44	5803.9	
809.61	3468.6	
809.79	3876.8	
809.96	6472.9	
810.14	6049	
810.31	3359.4	
810.48	4164.9	
810.66	5351.3	
810.83	6173.9	
811.01	3949.8	
811.18	4479.6	
811.35	6012.2	
811.53	4688.5	
811.7	4852.3	
811.87	4477.5	
812.05	5263.3	
812.22	5187.5	
812.39	3786	
812.57	3695.9	
812.74	5242.8	
812.92	7133.1	
813.09	4187.4	
813.26	4613.4	
813.44	6831.3	
813.61	5171.1	
813.78	3484.3	
813.96	4736.3	
814.13	5300.8	
814.3	4879.6	
814.48	5066.7	
814.65	4173.8	
814.82	6587.6	
815	5008.6	
815.17	4278.9	
815.34	5229.8	
815.52	5148.6	
815.69	5189.6	
815.87	4270	
816.04	4223.6	
816.21	5256.5	
816.38	4583.4	
816.56	4095.3	
816.73	3797.6	
816.9	6700.3	
817.08	6075.6	
817.25	3869.3	
817.42	4946.5	
817.6	4788.2	
817.77	5279.7	
817.94	4398.4	
818.12	3785.3	
818.29	4997.7	
818.46	8011	
818.64	4006.5	
818.81	3751.9	
818.98	4920.6	
819.16	7281.2	
819.33	4728.1	
819.5	4345.8	
819.67	5631.2	
819.85	6398.5	
820.02	4205.8	
820.19	4519.9	
820.37	5500.2	
820.54	5016.8	
820.71	4380.6	
820.88	5403.9	
821.06	5543.2	
821.23	5065.3	
821.4	4453	
821.58	4360.8	
821.75	6090	
821.92	5398.4	
822.09	3489.7	
822.27	3572.3	
822.44	5304.9	
822.61	5158.8	
822.79	3530	
822.96	6798.6	
823.13	5792.3	
823.3	4972.5	
823.48	4074.8	
823.65	3666.5	
823.82	5997.8	
823.99	4775.2	
824.17	5188.2	
824.34	3671.3	
824.51	6967.9	
824.68	5292	
824.86	3847.5	
825.03	4341	
825.2	5306.3	
825.37	6506.4	
825.55	3846.8	
825.72	4341.7	
825.89	7113.3	
826.06	6543.3	
826.24	4194.2	
826.41	4201.1	
826.58	6404	
826.75	5629.9	
826.92	3259.7	
827.1	3659	
827.27	8817.9	
827.44	7068.9	
827.61	3955.3	
827.79	4814.8	
827.96	4965	
828.13	5361.6	
828.3	4115.1	
828.47	3467.9	
828.65	5439.4	
828.82	5472.2	
828.99	5407.3	
829.16	4720.6	
829.34	5919.3	
829.51	5664.7	
829.68	4346.5	
829.85	4480.3	
830.02	6173.9	
830.2	5900.9	
830.37	3293.1	
830.54	5225.7	
830.71	6795.2	
830.88	5184.8	
831.05	3366.9	
831.23	3913	
831.4	6494.1	
831.57	7331.7	
831.74	4020.2	
831.91	3457.7	
832.09	5521.3	
832.26	5886.5	
832.43	4129.4	
832.6	4729.4	
832.77	5468.1	
832.94	6346	
833.12	3250.1	
833.29	4085	
833.46	5696.1	
833.63	7575.4	
833.8	4550.6	
833.97	4134.8	
834.15	5909.8	
834.32	5601.9	
834.49	4321.9	
834.66	4347.8	
834.83	6167.1	
835	4941.1	
835.17	3990.1	
835.35	3975.1	
835.52	5806	
835.69	5644.2	
835.86	4232.5	
836.03	3450.1	
836.2	5844.2	
836.37	5428.5	
836.55	4101.4	
836.72	3891.8	
836.89	5415.5	
837.06	5958.9	
837.23	4192.2	
837.4	4621.6	
837.57	6719.4	
837.75	7507.9	
837.92	3800.3	
838.09	4028.4	
838.26	5386.2	
838.43	6184.9	
838.6	4370.4	
838.77	3915.7	
838.94	7111.2	
839.11	6804.7	
839.29	4127.3	
839.46	3252.9	
839.63	5834	
839.8	5598.5	
839.97	4003.8	
840.14	3968.3	
840.31	5664	
840.48	5881.8	
840.65	3321.8	
840.82	3882.9	
841	5841.5	
841.17	5796.4	
841.34	3782.6	
841.51	3707.5	
841.68	5827.2	
841.85	5511.8	
842.02	3857.7	
842.19	3166.8	
842.36	5591	
842.53	5557.5	
842.7	3634.5	
842.87	4499.4	
843.05	7406.1	
843.22	5537.7	
843.39	3528.7	
843.56	3863.2	
843.73	5221	
843.9	5946.6	
844.07	6079.1	
844.24	5073.5	
844.41	8834.3	
844.58	5074.2	
844.75	3527.3	
844.92	3831.7	
845.09	5872.2	
845.26	5874.9	
845.43	3598.3	
845.6	3860.4	
845.77	5808.7	
845.94	5588.2	
846.12	4124.6	
846.29	4377.9	
846.46	6066.8	
846.63	5849.7	
846.8	3609.2	
846.97	4373.8	
847.14	6371.2	
847.31	5768.4	
847.48	4157.4	
847.65	4556.7	
847.82	6183.5	
847.99	6208.1	
848.16	4926	
848.33	4569	
848.5	5408	
848.67	6384.9	
848.84	3651.5	
849.01	3813.3	
849.18	5241.4	
849.35	4911	
849.52	4602.5	
849.69	3547.1	
849.86	6070.9	
850.03	6329.6	
850.2	3664.5	
850.37	4484.4	
850.54	6275	
850.71	5497.4	
850.88	4354	
851.05	3613.3	
851.22	5756.2	
851.39	6451.1	
851.56	3468.6	
851.73	4203.1	
851.9	5118.6	
852.07	6124.1	
852.24	4061.8	
852.41	3686.3	
852.58	5726.8	
852.75	5236	
852.92	4047.5	
853.09	3568.9	
853.26	5371.8	
853.43	6361	
853.6	3609.9	
853.77	3092.4	
853.94	6423.8	
854.11	5791.7	
854.28	5412.1	
854.44	3954.6	
854.61	6762.4	
854.78	6333	
854.95	3675.4	
855.12	4654.4	
855.29	4649.6	
855.46	6614.3	
855.63	3594.2	
855.8	5119.2	
855.97	5365	
856.14	6212.9	
856.31	5198.4	
856.48	3959.4	
856.65	5399.8	
856.82	5119.9	
856.99	3460.4	
857.16	3927.3	
857.33	7256	
857.49	5521.3	
857.66	3969.6	
857.83	4256.4	
858	5429.2	
858.17	5700.2	
858.34	3497.2	
858.51	3673.4	
858.68	6595.8	
858.85	6699.6	
859.02	4267.3	
859.19	4550.6	
859.36	5099.4	
859.52	5168.4	
859.69	3643.3	
859.86	4298.7	
860.03	5225.1	
860.2	6466.8	
860.37	3288.4	
860.54	3661.1	
860.71	6077	
860.88	6533	
861.05	4100.7	
861.21	4660.5	
861.38	6598.6	
861.55	4995.7	
861.72	3319.8	
861.89	4044.7	
862.06	6196.5	
862.23	6765.1	
862.4	3525.2	
862.56	3762.8	
862.73	5935.7	
862.9	5637.4	
863.07	4284.4	
863.24	3276.8	
863.41	4977.2	
863.58	5124	
863.75	3718.4	
863.91	4212	
864.08	6501.6	
864.25	6022.4	
864.42	4608.6	
864.59	5137	
864.76	6868.2	
864.93	5158.8	
865.09	3555.3	
865.26	3926.6	
865.43	6356.9	
865.6	6806.1	
865.77	3194.1	
865.94	3634.5	
866.1	6404	
866.27	6189	
866.44	5586.2	
866.61	3496.6	
866.78	5548.6	
866.95	6014.9	
867.11	3581.9	
867.28	3231.7	
867.45	6186.9	
867.62	5195.7	
867.79	4237.2	
867.96	3641.3	
868.12	5115.8	
868.29	6222.4	
868.46	3605.1	
868.63	4910.3	
868.8	6353.5	
868.97	6064.7	
869.13	3848.1	
869.3	3812.6	
869.47	6002.6	
869.64	6215.6	
869.81	3687	
869.97	3676.8	
870.14	5836	
870.31	6619	
870.48	3515	
870.65	4586.8	
870.81	5423.7	
870.98	5450.3	
871.15	4114.4	
871.32	3777.8	
871.48	5988.3	
871.65	6607.4	
871.82	3664.5	
871.99	4019.5	
872.16	7066.9	
872.32	6422.4	
872.49	3662.5	
872.66	3706.8	
872.83	6091.3	
872.99	5317.2	
873.16	4162.2	
873.33	3609.9	
873.5	5732.3	
873.67	5741.1	
873.83	3812	
874	4936.3	
874.17	5943.2	
874.34	7010.9	
874.5	4767.7	
874.67	4617.5	
874.84	6627.2	
875.01	5108.3	
875.17	5224.4	
875.34	3608.5	
875.51	5784.1	
875.68	6959.7	
875.84	4496.7	
876.01	5460.6	
876.18	6068.8	
876.34	5993	
876.51	3654.9	
876.68	3600.3	
876.85	5523.4	
877.01	6299.6	
877.18	5254.4	
877.35	3627.6	
877.52	5638.7	
877.68	5044.8	
877.85	3510.2	
878.02	3609.9	
878.18	5603.2	
878.35	5343.8	
878.52	2882.9	
878.69	4094.6	
878.85	6122.7	
879.02	6029.9	
879.19	5254.4	
879.35	3864.5	
879.52	6049.7	
879.69	6276.3	
879.86	3081.5	
880.02	4085	
880.19	5614.8	
880.36	6875	
880.52	4237.9	
880.69	4314.4	
880.86	6167.1	
881.02	6236.7	
881.19	4027	
881.36	4034.5	
881.52	5996.5	
881.69	5319.9	
881.86	3931.4	
882.02	3804.4	
882.19	6374.6	
882.36	7601.4	
882.52	3756	
882.69	5177.9	
882.86	5797.1	
883.02	5703.6	
883.19	4495.3	
883.36	4216.1	
883.52	6134.3	
883.69	7047.1	
883.86	3657.7	
884.02	3300.6	
884.19	6127.5	
884.36	5606	
884.52	4142.4	
884.69	3846.8	
884.86	5345.2	
885.02	6832	
885.19	4052.2	
885.36	4221.5	
885.52	5631.9	
885.69	5739.1	
885.86	5309	
886.02	4697.4	
886.19	6122.1	
886.35	5606	
886.52	3996.3	
886.69	5144.5	
886.85	5233.9	
887.02	6579.4	
887.19	6579.4	
887.35	6579.4	
887.52	6579.4	
887.68	6579.4	
887.85	6579.4	
888.02	6579.4	
888.18	6579.4	
888.35	6579.4	
888.51	6579.4	
888.68	6579.4	
888.85	6579.4	
889.01	6579.4	
889.18	6579.4	
889.35	6579.4	
889.51	6579.4	
889.68	6579.4	
889.84	6579.4	
890.01	6579.4	
890.17	6579.4	
890.34	6579.4	
890.51	6579.4	
890.67	6579.4	
890.84	6579.4	
891	6579.4	
891.17	6579.4	
891.34	6579.4	
891.5	6579.4	
891.67	6579.4	
891.83	6579.4	
892	6579.4	
892.16	6579.4	
892.33	6579.4	
892.5	6579.4	
892.66	6579.4	
892.83	6579.4	
892.99	6579.4	
893.16	6579.4	
893.32	6579.4	
893.49	6579.4	
893.65	6579.4	
893.82	6579.4	
893.99	6579.4	
894.15	6579.4	
894.32	6579.4	
894.48	6579.4	
894.65	6579.4	
894.81	6579.4	
894.98	6579.4	
895.14	6579.4	
895.31	6579.4	
895.47	6579.4	
895.64	6579.4	
895.81	6579.4	
895.97	6579.4	
896.14	6579.4	
896.3	6579.4	
896.47	6579.4	
896.63	6579.4	
896.8	6579.4	
896.96	6579.4	
897.13	6579.4	
897.29	6579.4	
897.46	6579.4	
897.62	6579.4	
897.79	6579.4	
897.95	6579.4	
898.12	6579.4	
898.28	6579.4	
898.45	6579.4	
898.61	6579.4	
898.78	6579.4	
898.94	6579.4	
899.11	6579.4	
899.27	6579.4	
899.44	6579.4	
899.6	6579.4	
899.77	6579.4	
899.93	6579.4	
900.1	6579.4	
900.26	6579.4	
900.43	6579.4	
900.59	6579.4	
900.76	6579.4	
900.92	6579.4	
901.09	6579.4	
901.25	6579.4	
901.42	6579.4	
901.58	6579.4	
901.75	6579.4	
901.91	6579.4	
902.07	6579.4	
902.24	6579.4	
902.4	6579.4	
902.57	6579.4	
902.73	6579.4	
902.9	6579.4	
903.06	6579.4	
903.23	6579.4	
903.39	6579.4	
903.56	6579.4	
903.72	6579.4	
903.88	6579.4	
904.05	6579.4	
904.21	6579.4	
904.38	6579.4	
904.54	6579.4	
904.71	6579.4	
904.87	6579.4	
905.03	6579.4	
905.2	6579.4	
905.36	6579.4	
905.53	6579.4	
905.69	6579.4	
905.86	6579.4	
906.02	6579.4	
906.18	6579.4	
906.35	6579.4	
906.51	6579.4	
906.68	6579.4	
906.84	6579.4	
907.01	6579.4	
907.17	6579.4	
907.33	6579.4	
907.5	6579.4	
907.66	6579.4	
907.83	6579.4	
907.99	6579.4	
908.15	6579.4	
908.32	6579.4	
908.48	6579.4	
908.65	6579.4	
908.81	6579.4	
908.97	6579.4	
909.14	6579.4	
909.3	6579.4	
909.47	6579.4	
909.63	6579.4	
909.79	6579.4	
909.96	6579.4	
910.12	6579.4	
910.28	6579.4	
910.45	6579.4	
910.61	6579.4	
910.78	6579.4	
910.94	6579.4	
911.1	6579.4	
911.27	6579.4	
911.43	6579.4	
911.59	6579.4	
911.76	6579.4	
911.92	6579.4	
912.08	6579.4	
912.25	6579.4	
912.41	6579.4	
912.57	6579.4	
912.74	6579.4	
912.9	6579.4	
913.07	6579.4	
913.23	6579.4	
913.39	6579.4	
913.56	6579.4	
913.72	6579.4	
913.88	6579.4	
914.05	6579.4	
914.21	6579.4	
914.37	6579.4	
914.54	6579.4	
914.7	6579.4	
914.86	6579.4	
915.03	6579.4	
915.19	6579.4	
