Wavelength	Intensities	
nm	a.u.	
179.22	1914.9	
179.44	1914.9	
179.65	1914.9	
179.86	1914.9	
180.08	1948.3	
180.29	5068.7	
180.51	3530	
180.72	5764.3	
180.94	6808.8	
181.15	3297.2	
181.37	3249.4	
181.58	5571.2	
181.79	5931.6	
182.01	3472	
182.22	3691.1	
182.44	5869.5	
182.65	4922.6	
182.87	4714.4	
183.08	4028.4	
183.29	6197.2	
183.51	5111.7	
183.72	3796.3	
183.94	5485.8	
184.15	5492	
184.37	5530.9	
184.58	3278.8	
184.79	4540.3	
185.01	5110.4	
185.22	5844.9	
185.44	4823	
185.65	4052.2	
185.86	5380.7	
186.08	4984.8	
186.29	3153.2	
186.51	3426.3	
186.72	5131.5	
186.94	6115.9	
187.15	4019.5	
187.36	4170.3	
187.58	7961.8	
187.79	5628.5	
188.01	4323.3	
188.22	6767.2	
188.43	6724.2	
188.65	5858.6	
188.86	3453.6	
189.08	4152.6	
189.29	5355.4	
189.5	5287.2	
189.72	3887.7	
189.93	3951.9	
190.15	6075.6	
190.36	7358.4	
190.57	4218.8	
190.79	4100	
191	6228.6	
191.22	6074.3	
191.43	4228.4	
191.64	3420.8	
191.86	6449.1	
192.07	6187.6	
192.29	3602.4	
192.5	3887.7	
192.71	6124.1	
192.93	5234.6	
193.14	3783.3	
193.35	3916.4	
193.57	5309	
193.78	6081.8	
194	3105.4	
194.21	3824.9	
194.42	5036.6	
194.64	5524.7	
194.85	4178.5	
195.07	4860.5	
195.28	5560.2	
195.49	4807.3	
195.71	5152	
195.92	3633.1	
196.13	5687.9	
196.35	5800.5	
196.56	5480.4	
196.78	4126	
196.99	7215.7	
197.2	6797.2	
197.42	4768.4	
197.63	4219.5	
197.84	4942.4	
198.06	5696.1	
198.27	3850.9	
198.48	5218.2	
198.7	5255.1	
198.91	5370.5	
199.13	4196.3	
199.34	4164.2	
199.55	5929.6	
199.77	4805.2	
199.98	3638.6	
200.19	4224.3	
200.41	5285.1	
200.62	5102.2	
200.83	4419.5	
201.05	4746.5	
201.26	5402.5	
201.47	5147.2	
201.69	3690.4	
201.9	3562.1	
202.11	5461.2	
202.33	6540.5	
202.54	3979.9	
202.76	4404.5	
202.97	5648.3	
203.18	5662.6	
203.4	4361.5	
203.61	4239.3	
203.82	5601.2	
204.04	5212.1	
204.25	4283.7	
204.46	4137.6	
204.68	5547.9	
204.89	5810.1	
205.1	4054.3	
205.32	3496.6	
205.53	5929.6	
205.74	6110.5	
205.96	3000.3	
206.17	4279.6	
206.38	5891.3	
206.6	6075	
206.81	4886.5	
207.02	3919.1	
207.24	5800.5	
207.45	6183.5	
207.66	3962.8	
207.88	3395.5	
208.09	5736.4	
208.3	5527.5	
208.52	3625.6	
208.73	4031.1	
208.94	5523.4	
209.15	6289.3	
209.37	3996.3	
209.58	4173.8	
209.79	6087.9	
210.01	5341.1	
210.22	3162.7	
210.43	3285.6	
210.65	5494	
210.86	5992.4	
211.07	3968.3	
211.29	3585.3	
211.5	5940.5	
211.71	5444.9	
211.93	3631	
212.14	3657.7	
212.35	5357.5	
212.56	5685.2	
212.78	4225.6	
212.99	3454.9	
213.2	6597.2	
213.42	5234.6	
213.63	3805.8	
213.84	4036.5	
214.06	4904.9	
214.27	5002.5	
214.48	3891.1	
214.69	4283	
214.91	6195.8	
215.12	6333.7	
215.33	4322.6	
215.55	4758.1	
215.76	6817.7	
215.97	5921.4	
216.18	4143	
216.4	4040.6	
216.61	5142.4	
216.82	6078.4	
217.04	3714.3	
217.25	3810.6	
217.46	6182.1	
217.67	5973.2	
217.89	3311.6	
218.1	3441.3	
218.31	5650.3	
218.53	5707.7	
218.74	3867.2	
218.95	3702.7	
219.16	5479.7	
219.38	6488.6	
219.59	3737.5	
219.8	4470.7	
220.01	7209.5	
220.23	5532.2	
220.44	4918.5	
220.65	3654.9	
220.87	5575.3	
221.08	6202.6	
221.29	3348.4	
221.5	4564.9	
221.72	7650.5	
221.93	5238.7	
222.14	4225.6	
222.35	4944.5	
222.57	5565	
222.78	5916.6	
222.99	4033.8	
223.2	4285	
223.42	5866.7	
223.63	6042.2	
223.84	3025.5	
224.05	3058.3	
224.27	7075	
224.48	6423.1	
224.69	5013.4	
224.9	4218.1	
225.12	5733.6	
225.33	5486.5	
225.54	3325.2	
225.75	3769.6	
225.97	5086.5	
226.18	5351.3	
226.39	4048.2	
226.6	3767.6	
226.82	5231.9	
227.03	5094	
227.24	4243.4	
227.45	3462.4	
227.67	5941.2	
227.88	6511.9	
228.09	4669.4	
228.3	4698.7	
228.52	5972.6	
228.73	5470.1	
228.94	3865.2	
229.15	3450.1	
229.36	5437.4	
229.58	5296	
229.79	3908.2	
230	4625	
230.21	6543.9	
230.43	5670.8	
230.64	4126	
230.85	4364.9	
231.06	5965.1	
231.28	5988.3	
231.49	3418.1	
231.7	4073.4	
231.91	5911.1	
232.12	5582.8	
232.34	3523.9	
232.55	4070	
232.76	6152.8	
232.97	5709.7	
233.18	3668.6	
233.4	4207.2	
233.61	5755.5	
233.82	5306.3	
234.03	3870.7	
234.25	3756	
234.46	7739.3	
234.67	5526.8	
234.88	4314.4	
235.09	3719.8	
235.31	5847	
235.52	5411.4	
235.73	4169.7	
235.94	3560.7	
236.15	5176.6	
236.37	6737.1	
236.58	3690.4	
236.79	4013.3	
237	5837.4	
237.21	5048.9	
237.43	4322.6	
237.64	3392.8	
237.85	10213	
238.06	5093.3	
238.27	4417.5	
238.48	3449.5	
238.7	5850.4	
238.91	5304.9	
239.12	3974.4	
239.33	4013.3	
239.54	5096	
239.76	5449.6	
239.97	3896.6	
240.18	4022.9	
240.39	7005.4	
240.6	5796.4	
240.82	4174.4	
241.03	3401	
241.24	5526.8	
241.45	6437.4	
241.66	3648.8	
241.87	4360.1	
242.09	6261.3	
242.3	6724.2	
242.51	4358.8	
242.72	4029	
242.93	6049	
243.14	5439.4	
243.36	4646.2	
243.57	5006.6	
243.78	6480.5	
243.99	5944.6	
244.2	4059.8	
244.41	3620.1	
244.63	5059.8	
244.84	5896.8	
245.05	4356.7	
245.26	4024.3	
245.47	5794.4	
245.68	6103.6	
245.9	5401.9	
246.11	4188.8	
246.32	5340.4	
246.53	5790.3	
246.74	6563.1	
246.95	3340.2	
247.16	4992.9	
247.38	5489.2	
247.59	3323.9	
247.8	4042.7	
248.01	5206.6	
248.22	5456.5	
248.43	3687	
248.64	3930.1	
248.86	4884.4	
249.07	5257.8	
249.28	3467.9	
249.49	4129.4	
249.7	6089.3	
249.91	6317.3	
250.12	3317.7	
250.34	3366.2	
250.55	5612.8	
250.76	5585.5	
250.97	4177.2	
251.18	4192.2	
251.39	6256.5	
251.6	5730.9	
251.81	4289.1	
252.03	4261.1	
252.24	5241.4	
252.45	6068.1	
252.66	3530	
252.87	4460.5	
253.08	5556.1	
253.29	7367.2	
253.5	3485.6	
253.72	4890.5	
253.93	5365	
254.14	6597.2	
254.35	3867.2	
254.56	3969.6	
254.77	5797.8	
254.98	5089.9	
255.19	3809.9	
255.41	4940.4	
255.62	5604.6	
255.83	6185.5	
256.04	4325.3	
256.25	4218.1	
256.46	6847.7	
256.67	5126.7	
256.88	4194.2	
257.09	4682.3	
257.31	5175.2	
257.52	5160.9	
257.73	5208	
257.94	3802.4	
258.15	5350	
258.36	5558.9	
258.57	4880.3	
258.78	2980.5	
258.99	6082.5	
259.2	5373.9	
259.41	3863.8	
259.63	3940.3	
259.84	6436.8	
260.05	6907.1	
260.26	5029.8	
260.47	3717.7	
260.68	6142.5	
260.89	5451	
261.1	4659.8	
261.31	3693.2	
261.52	6121.4	
261.73	6489.3	
261.95	4952	
262.16	4358.1	
262.37	6297.5	
262.58	6376	
262.79	4980	
263	3909.6	
263.21	5528.8	
263.42	5042.1	
263.63	3957.4	
263.84	3859.1	
264.05	6154.1	
264.26	6513.9	
264.47	4818.2	
264.69	4365.6	
264.9	6281.8	
265.11	5724.1	
265.32	3672	
265.53	3854.3	
265.74	5653.1	
265.95	4952.7	
266.16	4129.4	
266.37	4603.8	
266.58	5645.6	
266.79	5361.6	
267	3827	
267.21	3461.1	
267.42	5081	
267.63	5585.5	
267.84	4001	
268.06	3411.9	
268.27	5988.9	
268.48	6315.3	
268.69	3915.7	
268.9	4678.2	
269.11	6294.1	
269.32	4959.5	
269.53	4043.4	
269.74	3725.9	
269.95	5910.4	
270.16	4818.2	
270.37	4017.4	
270.58	4730.8	
270.79	5352.7	
271	6109.8	
271.21	4291.9	
271.42	4063.2	
271.63	5662.6	
271.84	5150	
272.05	3123.2	
272.26	3565.5	
272.47	5520	
272.68	5742.5	
272.89	3893.2	
273.11	4494.6	
273.32	5312.4	
273.53	6542.6	
273.74	4367	
273.95	4234.5	
274.16	6206.7	
274.37	5618.3	
274.58	4421.6	
274.79	3496.6	
275	5644.9	
275.21	6285.2	
275.42	5337	
275.63	4521.2	
275.84	5786.2	
276.05	7392.5	
276.26	4283	
276.47	3985.3	
276.68	5373.9	
276.89	6608.8	
277.1	4634.6	
277.31	3502	
277.52	5790.3	
277.73	5973.2	
277.94	3484.3	
278.15	3881.6	
278.36	5732.3	
278.57	5171.8	
278.78	3809.2	
278.99	4397	
279.2	5175.9	
279.41	5159.5	
279.62	5129.5	
279.83	3545.7	
280.04	6778.8	
280.25	5021.6	
280.46	5068.7	
280.67	4042.7	
280.88	5120.6	
281.09	6239.5	
281.3	4273.4	
281.51	5410.1	
281.72	5262.6	
281.93	6104.3	
282.14	3725.9	
282.35	4032.5	
282.56	5999.2	
282.77	6032.6	
282.98	3893.2	
283.19	4819.6	
283.4	7460.1	
283.61	5471.5	
283.82	3516.4	
284.03	5071.5	
284.24	5633.3	
284.45	6205.3	
284.66	4980	
284.87	4770.4	
285.08	6098.2	
285.29	6312.5	
285.5	3413.3	
285.71	3923.2	
285.92	6209.4	
286.12	6879.8	
286.33	4949.3	
286.54	3930.7	
286.75	6027.9	
286.96	5425.8	
287.17	3548.4	
287.38	4914.4	
287.59	5177.3	
287.8	5113.1	
288.01	3998.3	
288.22	4558.1	
288.43	6130.9	
288.64	5043.5	
288.85	4682.3	
289.06	4482.3	
289.27	5967.1	
289.48	6531	
289.69	5031.9	
289.9	4498	
290.11	6265.4	
290.32	5220.3	
290.53	4805.2	
290.74	4364.9	
290.94	5957.5	
291.15	6053.8	
291.36	3820.1	
291.57	4539.7	
291.78	5236	
291.99	4933.6	
292.2	3624.2	
292.41	4403.8	
292.62	6140.5	
292.83	5834.7	
293.04	5467.4	
293.25	3672.7	
293.46	5279.7	
293.67	6161.7	
293.88	3816	
294.09	3601	
294.29	5091.3	
294.5	5688.6	
294.71	4124.6	
294.92	3913.7	
295.13	5387.5	
295.34	6743.3	
295.55	3386.7	
295.76	3491.8	
295.97	5909.1	
296.18	6847	
296.39	3547.1	
296.6	3809.2	
296.81	5648.3	
297.01	6032.6	
297.22	3950.5	
297.43	3775.8	
297.64	5164.3	
297.85	5126.1	
298.06	3096.5	
298.27	3388	
298.48	5626.5	
298.69	5227.8	
298.9	4061.8	
299.11	3687	
299.31	5029.8	
299.52	5072.8	
299.73	4404.5	
299.94	4302.8	
300.15	5532.2	
300.36	5193.6	
300.57	4305.5	
300.78	4308.9	
300.99	5401.2	
301.2	5686.5	
301.4	3695.9	
301.61	4048.2	
301.82	5868.8	
302.03	6006.7	
302.24	4549.9	
302.45	3603.1	
302.66	5802.6	
302.87	6392.4	
303.08	3743	
303.29	5205.3	
303.49	5270.8	
303.7	5591	
303.91	3324.5	
304.12	4890.5	
304.33	5075.5	
304.54	5554.1	
304.75	3831.1	
304.96	3633.8	
305.16	5929.6	
305.37	6718	
305.58	3250.1	
305.79	3411.9	
306	5855.8	
306.21	4945.8	
306.42	3714.3	
306.63	5846.3	
306.83	5382.1	
307.04	6165.1	
307.25	4169	
307.46	4132.8	
307.67	4749.2	
307.88	6059.9	
308.09	3673.4	
308.29	3862.5	
308.5	5608.7	
308.71	6195.8	
308.92	4044.7	
309.13	3597.6	
309.34	5444.9	
309.55	5468.1	
309.75	4649.6	
309.96	4284.4	
310.17	5961.6	
310.38	5234.6	
310.59	4574.5	
310.8	3553.9	
311.01	6711.9	
311.21	5367.7	
311.42	3602.4	
311.63	3685	
311.84	5311.7	
312.05	5700.2	
312.26	4180.6	
312.46	4639.3	
312.67	5372.5	
312.88	5055.1	
313.09	3677.5	
313.3	3553.2	
313.51	6356.9	
313.71	6852.5	
313.92	3663.8	
314.13	3889.1	
314.34	5784.8	
314.55	5375.2	
314.76	4710.3	
314.96	4124.6	
315.17	5600.5	
315.38	5999.9	
315.59	3625.6	
315.8	3466.5	
316.01	6477.7	
316.21	6524.1	
316.42	3534.1	
316.63	4055	
316.84	5438	
317.05	6347.3	
317.26	4275.5	
317.46	3863.2	
317.67	5503.6	
317.88	5965.7	
318.09	4642.7	
318.3	3345	
318.5	5269.4	
318.71	5943.9	
318.92	5874.3	
319.13	4240	
319.34	6065.4	
319.54	6229.9	
319.75	3383.9	
319.96	3244.7	
320.17	5954.8	
320.38	6182.1	
320.58	3278.1	
320.79	3959.4	
321	6196.5	
321.21	6217	
321.42	4031.8	
321.62	3315.7	
321.83	5083.1	
322.04	5534.3	
322.25	3841.3	
322.46	3652.2	
322.66	5751.4	
322.87	5825.8	
323.08	4545.8	
323.29	3618.1	
323.5	6686.6	
323.7	5132.2	
323.91	4985.4	
324.12	4451.6	
324.33	5597.1	
324.53	5941.8	
324.74	4301.4	
324.95	4512.4	
325.16	4914.4	
325.37	5421.7	
325.57	3627	
325.78	3709.6	
325.99	5537	
326.2	5018.2	
326.4	5208	
326.61	3398.9	
326.82	5498.8	
327.03	5651	
327.24	5193.6	
327.44	5057.1	
327.65	5831.9	
327.86	4696	
328.07	4334.9	
328.27	3440.6	
328.48	6292.7	
328.69	5066	
328.9	5324.7	
329.1	3941.7	
329.31	5451.7	
329.52	6393.8	
329.73	3663.8	
329.93	4175.1	
330.14	5496.1	
330.35	5779.4	
330.56	6059.3	
330.76	4588.1	
330.97	5334.3	
331.18	5769.8	
331.39	4037.2	
331.59	3288.4	
331.8	6136.4	
332.01	6354.2	
332.22	3725.3	
332.42	4330.8	
332.63	5712.5	
332.84	5285.1	
333.05	4078.2	
333.25	3745.1	
333.46	5351.3	
333.67	5545.9	
333.88	3815.4	
334.08	4258.4	
334.29	7443.7	
334.5	6256.5	
334.7	3575.8	
334.91	5286.5	
335.12	5081	
335.33	6001.9	
335.53	4028.4	
335.74	6081.8	
335.95	5289.2	
336.16	5183.4	
336.36	4022.2	
336.57	4718.5	
336.78	5014.8	
336.98	6171.2	
337.19	5001.8	
337.4	3965.6	
337.61	6679.1	
337.81	5050.3	
338.02	3708.9	
338.23	4853.7	
338.43	6399.9	
338.64	5192.3	
338.85	3590.8	
339.05	4885.8	
339.26	6461.3	
339.47	4919.2	
339.68	3650.2	
339.88	5483.1	
340.09	5824.4	
340.3	6063.4	
340.5	4307.6	
340.71	3321.8	
340.92	4986.8	
341.13	6365.8	
341.33	3519.1	
341.54	4304.8	
341.75	5772.5	
341.95	5405.3	
342.16	4073.4	
342.37	4498.7	
342.57	5094	
342.78	5573.9	
342.99	4603.8	
343.19	3262.4	
343.4	5929.6	
343.61	5769.8	
343.81	3910.9	
344.02	3572.3	
344.23	6057.9	
344.43	6475	
344.64	4641.4	
344.85	4433.9	
345.06	5830.6	
345.26	6257.2	
345.47	4235.9	
345.68	5041.4	
345.88	4891.9	
346.09	6078.4	
346.3	4296.6	
346.5	3257.6	
346.71	5532.2	
346.92	5269.4	
347.12	3386	
347.33	4284.4	
347.54	6141.9	
347.74	6563.1	
347.95	4192.2	
348.16	3130.7	
348.36	5379.3	
348.57	5214.8	
348.78	4121.2	
348.98	4571.7	
349.19	5512.4	
349.39	5040.7	
349.6	3308.2	
349.81	3730.7	
350.01	5825.1	
350.22	5219.6	
350.43	4017.4	
350.63	4963.6	
350.84	5597.8	
351.05	5357.5	
351.25	3736.9	
351.46	3336.1	
351.67	6173.3	
351.87	5261.2	
352.08	3971.7	
352.29	4483.7	
352.49	6092	
352.7	5722	
352.9	3592.1	
353.11	4531.5	
353.32	6727.6	
353.52	5408	
353.73	3604.4	
353.94	4578.6	
354.14	5874.9	
354.35	5720	
354.55	3615.3	
354.76	4012	
354.97	5853.8	
355.17	5618.9	
355.38	3479.5	
355.59	4872.8	
355.79	5210	
356	5705	
356.2	4007.9	
356.41	3505.4	
356.62	4945.2	
356.82	5487.2	
357.03	4358.8	
357.24	3929.4	
357.44	5265.3	
357.65	5438.7	
357.85	5221.6	
358.06	4106.9	
358.27	4989.5	
358.47	5203.9	
358.68	3435.1	
358.88	4341	
359.09	5944.6	
359.3	6274.3	
359.5	5103.5	
359.71	4497.3	
359.91	6718	
360.12	6009.4	
360.33	4282.3	
360.53	4828.4	
360.74	5273.5	
360.94	5315.8	
361.15	4575.8	
361.36	3751.2	
361.56	6120	
361.77	5551.4	
361.97	5092.6	
362.18	4037.9	
362.38	6148	
362.59	5133.6	
362.8	3675.4	
363	3462.4	
363.21	4901.5	
363.41	5621.7	
363.62	4264.6	
363.83	5302.9	
364.03	5696.1	
364.24	6714.6	
364.44	5435.3	
364.65	5333.6	
364.85	5477	
365.06	5059.2	
365.27	3816.7	
365.47	3865.2	
365.68	6465.4	
365.88	5395.7	
366.09	4234.5	
366.29	3932.1	
366.5	5753.4	
366.71	6212.9	
366.91	5276.3	
367.12	4483	
367.32	6808.8	
367.53	6004.6	
367.73	4383.3	
367.94	5405.3	
368.14	5951.4	
368.35	6942.6	
368.56	4353.3	
368.76	4160.8	
368.97	6047.7	
369.17	7920.9	
369.38	3799	
369.58	4119.1	
369.79	5001.8	
369.99	6530.3	
370.2	5180	
370.4	4277.5	
370.61	5806.7	
370.82	7052.5	
371.02	4115.1	
371.23	3455.6	
371.43	4896.7	
371.64	6353.5	
371.84	4212	
372.05	5414.8	
372.25	7843.7	
372.46	6154.1	
372.66	4217.5	
372.87	4095.3	
373.07	6225.8	
373.28	7822.6	
373.48	5195.7	
373.69	4913.1	
373.9	5616.9	
374.1	5541.1	
374.31	5192.3	
374.51	4681	
374.72	6503.7	
374.92	5260.5	
375.13	5360.9	
375.33	4483.7	
375.54	6055.8	
375.74	5409.4	
375.95	4585.4	
376.15	5838.8	
376.36	5999.9	
376.56	5765.7	
376.77	4597	
376.97	5166.3	
377.18	7210.9	
377.38	6173.3	
377.59	5450.3	
377.79	4043.4	
378	5862	
378.2	6365.8	
378.41	4167.6	
378.61	4064.5	
378.82	6410.8	
379.02	5455.8	
379.23	4313	
379.43	5529.5	
379.64	6403.3	
379.84	6072.2	
380.05	4059.8	
380.25	4025.6	
380.46	6207.4	
380.66	5784.1	
380.87	5500.2	
381.07	5958.9	
381.28	6799.3	
381.48	6198.5	
381.69	4188.8	
381.89	4179.9	
382.1	5040.7	
382.3	6322.1	
382.51	5384.8	
382.71	6319.3	
382.91	6236.7	
383.12	6765.1	
383.32	4509.6	
383.53	4807.9	
383.73	6026.5	
383.94	5801.9	
384.14	4651.6	
384.35	3722.5	
384.55	5672.9	
384.76	6224.5	
384.96	4447.5	
385.17	4856.4	
385.37	6161.7	
385.58	5428.5	
385.78	4894.6	
385.98	3597.6	
386.19	5586.9	
386.39	6106.4	
386.6	4326	
386.8	4554.7	
387.01	6175.3	
387.21	6199.9	
387.42	4994.3	
387.62	5638.7	
387.83	5439.4	
388.03	6232.7	
388.23	4511.7	
388.44	5540.4	
388.64	5076.9	
388.85	5227.8	
389.05	5037.3	
389.26	5677	
389.46	7238.9	
389.67	6626.5	
389.87	4865.3	
390.07	4981.3	
390.28	5805.3	
390.48	5329.5	
390.69	4181.3	
390.89	4481	
391.1	5480.4	
391.3	6524.8	
391.5	5754.8	
391.71	6384.2	
391.91	6283.2	
392.12	7486	
392.32	5822.4	
392.53	4982.7	
392.73	5595.7	
392.93	5833.3	
393.14	4577.2	
393.34	5364.3	
393.55	6454.5	
393.75	5769.8	
393.95	4573.8	
394.16	4522.6	
394.36	5552.7	
394.57	6293.4	
394.77	4115.7	
394.98	4540.3	
395.18	5575.3	
395.38	5696.1	
395.59	5564.3	
395.79	4318.5	
396	5642.8	
396.2	6211.5	
396.4	5255.1	
396.61	5148.6	
396.81	6374.6	
397.02	5590.3	
397.22	5470.1	
397.42	5574.6	
397.63	6347.3	
397.83	5502.2	
398.04	4263.2	
398.24	4815.5	
398.44	6109.1	
398.65	5100.1	
398.85	4127.3	
399.05	4207.2	
399.26	5429.8	
399.46	7321.5	
399.67	4656.4	
399.87	4377.9	
400.07	5880.4	
400.28	6335	
400.48	4446.1	
400.69	5593.7	
400.89	6546.7	
401.09	6930.3	
401.3	4327.4	
401.5	5580.7	
401.7	7250.5	
401.91	7618.4	
402.11	4677.6	
402.32	4911	
402.52	6502.3	
402.72	6365.8	
402.93	5111.7	
403.13	3861.1	
403.33	7178.8	
403.54	5848.3	
403.74	4782	
403.94	5739.1	
404.15	6072.2	
404.35	7265.5	
404.56	4674.8	
404.76	6634.1	
404.96	6526.2	
405.17	6324.1	
405.37	5664.7	
405.57	5195.7	
405.78	6545.3	
405.98	5905.7	
406.18	4571.7	
406.39	5541.8	
406.59	6425.8	
406.79	6053.8	
407	4404.5	
407.2	4508.9	
407.4	6493.4	
407.61	6789	
407.81	4603.2	
408.01	6687.3	
408.22	5531.6	
408.42	7686	
408.62	5793.7	
408.83	5137.7	
409.03	6169.2	
409.23	5977.3	
409.44	5300.1	
409.64	5568.4	
409.84	7070.3	
410.05	6976.1	
410.25	5339.1	
410.45	5033.9	
410.66	6466.8	
410.86	9122.3	
411.06	5603.9	
411.27	5443.5	
411.47	8871.1	
411.67	6587.6	
411.88	5706.3	
412.08	5953.4	
412.28	7337.9	
412.49	7905.2	
412.69	5380	
412.89	5496.1	
413.09	7686.7	
413.3	7531.1	
413.5	5597.1	
413.7	5075.5	
413.91	6697.5	
414.11	7608.9	
414.31	5373.2	
414.52	5760.3	
414.72	7239.6	
414.92	7224.6	
415.12	5352.7	
415.33	5866.1	
415.53	7622.5	
415.73	7749.5	
415.94	6316.6	
416.14	5731.6	
416.34	6428.6	
416.55	6068.1	
416.75	7043	
416.95	6320.7	
417.15	7537.9	
417.36	8375.5	
417.56	7129.7	
417.76	6219	
417.97	7998	
418.17	7585.7	
418.37	5654.4	
418.57	5773.9	
418.78	7367.9	
418.98	6967.2	
419.18	6685.3	
419.38	6605.4	
419.59	7069.6	
419.79	6614.9	
419.99	5668.8	
420.2	6056.5	
420.4	7616.4	
420.6	7873.8	
420.8	5550	
421.01	5404.6	
421.21	7421.2	
421.41	7651.2	
421.61	5950.7	
421.82	5592.3	
422.02	6858.6	
422.22	7858.1	
422.42	6434	
422.63	6066.8	
422.83	6974	
423.03	8221.2	
423.23	6130.3	
423.44	4967	
423.64	7080.5	
423.84	6809.5	
424.04	5522.7	
424.25	5107.6	
424.45	8119.5	
424.65	8008.9	
424.85	4934.9	
425.06	5556.8	
425.26	8001.4	
425.46	6486.6	
425.66	6120	
425.87	5773.9	
426.07	7793.2	
426.27	7619.1	
426.47	5870.8	
426.67	5188.9	
426.88	8211.7	
427.08	7541.3	
427.28	6145.3	
427.48	5109	
427.69	6313.2	
427.89	7108.5	
428.09	6140.5	
428.29	5234.6	
428.5	7854	
428.7	7237.5	
428.9	5138.4	
429.1	5602.6	
429.3	7227.3	
429.51	7630.7	
429.71	5485.8	
429.91	6320	
430.11	7542	
430.31	7805.5	
430.52	5771.9	
430.72	6032	
430.92	8161.8	
431.12	7516	
431.32	5421.7	
431.53	5819.6	
431.73	6397.2	
431.93	8229.4	
432.13	5274.2	
432.33	5164.3	
432.54	6926.9	
432.74	7337.9	
432.94	5138.4	
433.14	6266.8	
433.34	7472.4	
433.55	6975.4	
433.75	6182.1	
433.95	8074.5	
434.15	7250.5	
434.35	6989.7	
434.56	5371.1	
434.76	4803.9	
434.96	7264.8	
435.16	7577.5	
435.36	5264.6	
435.56	6418.3	
435.77	6825.2	
435.97	7103.7	
436.17	7205.4	
436.37	6327.5	
436.57	6893.5	
436.78	6783.6	
436.98	6969.9	
437.18	6894.8	
437.38	7631.4	
437.58	7105.8	
437.78	7062.8	
437.99	5627.8	
438.19	7561.8	
438.39	8335.9	
438.59	5523.4	
438.79	5010	
438.99	8251.3	
439.2	7051.8	
439.4	5285.8	
439.6	5248.3	
439.8	7528.3	
440	8658.1	
440.2	6460	
440.4	6496.8	
440.61	7796.6	
440.81	8426.7	
441.01	5466.7	
441.21	6460	
441.41	8317.5	
441.61	7796.6	
441.81	6705.7	
442.02	7759.8	
442.22	8746.2	
442.42	7918.8	
442.62	5491.3	
442.82	5560.2	
443.02	8187.1	
443.22	7330.4	
443.43	6046.3	
443.63	5550	
443.83	7083.2	
444.03	7157	
444.23	6832.7	
444.43	6335.7	
444.63	7454.6	
444.83	8751.7	
445.04	5517.9	
445.24	6883.9	
445.44	7828	
445.64	7881.9	
445.84	6431.3	
446.04	6430.6	
446.24	7135.1	
446.44	8226	
446.65	5592.3	
446.85	5980.1	
447.05	7261.4	
447.25	8249.9	
447.45	6111.1	
447.65	5466.7	
447.85	7443	
448.05	7063.4	
448.25	6663.4	
448.46	6339.1	
448.66	7565.9	
448.86	7148.8	
449.06	5253	
449.26	6619	
449.46	7921.5	
449.66	6863.4	
449.86	5994.4	
450.06	6042.2	
450.26	7088.7	
450.47	7722.9	
450.67	6272.2	
450.87	6674.3	
451.07	7690.1	
451.27	7590.5	
451.47	5524.7	
451.67	6187.6	
451.87	7223.9	
452.07	8466.3	
452.27	5847	
452.47	5804.6	
452.67	7501.7	
452.88	8070.4	
453.08	5079	
453.28	7296.2	
453.48	8813.1	
453.68	7413.6	
453.88	5700.2	
454.08	6051.7	
454.28	7905.2	
454.48	7603.4	
454.68	6636.8	
454.88	7159.7	
455.08	8062.9	
455.28	7736.5	
455.48	5613.5	
455.68	6227.2	
455.89	8452	
456.09	8153.6	
456.29	5928.2	
456.49	6019.7	
456.69	8400.1	
456.89	7667.6	
457.09	6536.4	
457.29	6968.6	
457.49	8052.6	
457.69	8098.4	
457.89	6369.2	
458.09	5779.4	
458.29	7708.6	
458.49	8454.7	
458.69	6802.7	
458.89	6133.7	
459.09	8652.7	
459.29	8829.5	
459.49	6288.6	
459.69	7103.7	
459.9	8233.5	
460.1	7735.2	
460.3	6114.6	
460.5	5919.3	
460.7	8137.9	
460.9	7947.5	
461.1	5543.9	
461.3	7094.2	
461.5	8916.2	
461.7	8492.9	
461.9	6003.3	
462.1	6559.6	
462.3	7939.3	
462.5	8588.5	
462.7	6157.6	
462.9	6300.2	
463.1	9716.2	
463.3	9366.7	
463.5	6503	
463.7	7528.3	
463.9	8168	
464.1	8553	
464.3	6662	
464.5	6857.3	
464.7	8873.2	
464.9	8436.9	
465.1	8359.1	
465.3	7118.7	
465.5	9224.7	
465.7	9177.6	
465.9	7505.8	
466.1	7329.7	
466.3	9037	
466.5	8794	
466.7	8236.9	
466.9	6979.5	
467.1	8663.6	
467.3	9787.9	
467.5	8137.9	
467.7	7010.2	
467.9	9916.9	
468.1	10808	
468.3	7813	
468.5	8295.6	
468.7	8759.8	
468.9	8743.5	
469.1	7223.2	
469.3	8040.3	
469.5	10866	
469.7	8172.8	
469.9	7673.1	
470.1	6971.3	
470.3	8667.7	
470.5	8672.5	
470.7	7668.3	
470.9	7077.8	
471.1	8417.2	
471.3	8862.9	
471.5	6862.1	
471.69	8908	
471.89	8327	
472.09	7836.2	
472.29	7736.5	
472.49	8105.2	
472.69	7974.8	
472.89	8886.1	
473.09	6744	
473.29	6852.5	
473.49	8146.8	
473.69	8507.3	
473.89	7955.7	
474.09	6999.3	
474.29	9706.7	
474.49	9442.5	
474.69	7912.7	
474.89	7212.9	
475.09	8410.3	
475.29	8338.6	
475.49	6623.1	
475.69	6862.7	
475.88	10077	
476.08	8766.7	
476.28	6518	
476.48	6978.8	
476.68	9173.5	
476.88	9080	
477.08	6877.1	
477.28	7271	
477.48	8523	
477.68	9246.6	
477.88	6634.7	
478.08	7008.8	
478.28	9542.2	
478.48	8638.3	
478.67	7090.8	
478.87	6450.4	
479.07	9322.4	
479.27	8783.1	
479.47	7318.8	
479.67	7326.9	
479.87	9082.7	
480.07	9691	
480.27	6494.8	
480.47	8268.3	
480.67	8826.1	
480.87	9466.4	
481.06	6759.7	
481.26	7707.2	
481.46	8622.6	
481.66	8557.1	
481.86	7247.8	
482.06	8416.5	
482.26	8369.4	
482.46	9445.9	
482.66	7281.9	
482.86	6771.9	
483.05	8766	
483.25	8156.4	
483.45	9839.1	
483.65	7257.3	
483.85	8383.7	
484.05	8766	
484.25	7708.6	
484.45	8193.2	
484.65	9656.2	
484.84	9577	
485.04	7148.1	
485.24	7204.8	
485.44	9867.8	
485.64	8027.4	
485.84	6460	
486.04	7975.5	
486.24	8464.9	
486.44	8888.2	
486.63	6386.2	
486.83	7321.5	
487.03	8359.1	
487.23	8743.5	
487.43	6523.5	
487.63	9008.3	
487.83	8688.2	
488.02	9735.4	
488.22	7511.3	
488.42	8236.2	
488.62	9648.7	
488.82	8499.1	
489.02	7163.8	
489.22	7271.7	
489.41	9470.5	
489.61	9106	
489.81	7036.1	
490.01	7013.6	
490.21	9473.2	
490.41	10085	
490.61	6787	
490.8	6939.2	
491	8761.2	
491.2	8026	
491.4	7591.1	
491.6	6663.4	
491.8	8827.4	
491.99	9022.7	
492.19	6587.6	
492.39	7029.3	
492.59	9494.4	
492.79	9506	
492.99	7982.3	
493.18	7034.1	
493.38	9650.7	
493.58	10411	
493.78	7827.3	
493.98	7411.6	
494.18	9261.6	
494.37	8761.9	
494.57	7959.8	
494.77	7899	
494.97	9562.6	
495.17	9858.2	
495.37	7407.5	
495.56	7735.9	
495.76	9977.7	
495.96	9538.8	
496.16	8754.4	
496.36	7552.2	
496.55	9725.1	
496.75	9252.7	
496.95	7940.7	
497.15	7773.4	
497.35	9693	
497.54	9756.5	
497.74	7673.7	
497.94	9472.5	
498.14	10451	
498.34	10346	
498.53	7299	
498.73	8262.2	
498.93	9085.5	
499.13	9800.9	
499.33	8039	
499.52	8544.8	
499.72	9661	
499.92	10069	
500.12	7627.3	
500.32	7760.4	
500.51	9893.7	
500.71	9697.1	
500.91	8652.7	
501.11	8305.2	
501.31	9892.4	
501.5	10362	
501.7	8948.9	
501.9	7926.3	
502.1	9658.9	
502.29	9990.7	
502.49	8380.3	
502.69	8843.8	
502.89	9811.1	
503.09	9772.9	
503.28	7324.2	
503.48	7453.9	
503.68	8922.3	
503.88	9144.9	
504.07	8499.1	
504.27	7947.5	
504.47	9371.5	
504.67	9574.3	
504.86	8406.9	
505.06	7963.9	
505.26	9048.6	
505.46	11091	
505.65	7845.8	
505.85	8092.9	
506.05	9017.9	
506.25	9569.5	
506.44	7230	
506.64	8255.4	
506.84	8921.6	
507.04	10069	
507.23	7443.7	
507.43	8094.9	
507.63	11124	
507.83	9092.3	
508.02	8006.2	
508.22	7711.3	
508.42	11219	
508.62	8927.1	
508.81	7849.2	
509.01	8529.1	
509.21	8840.4	
509.4	9123.7	
509.6	8183	
509.8	7567.9	
510	9117.6	
510.19	10800	
510.39	7449.1	
510.59	7542	
510.79	8846.5	
510.98	10394	
511.18	7483.3	
511.38	7630	
511.57	9725.1	
511.77	9624.1	
511.97	8387.8	
512.17	7228.6	
512.36	9668.5	
512.56	9673.9	
512.76	7385	
512.95	7206.8	
513.15	9866.4	
513.35	8372.1	
513.55	8263.6	
513.74	7515.4	
513.94	9890.3	
514.14	9067	
514.33	8413.1	
514.53	8089.5	
514.73	9099.1	
514.92	9362.6	
515.12	7593.2	
515.32	7516	
515.51	9465.7	
515.71	10038	
515.91	9202.2	
516.11	7561.1	
516.3	11263	
516.5	9013.8	
516.7	8125	
516.89	8702.5	
517.09	9077.3	
517.29	8996	
517.48	8298.4	
517.68	7730.4	
517.88	8854.7	
518.07	9490.3	
518.27	8251.3	
518.47	7155.6	
518.66	10064	
518.86	8643.8	
519.06	7110.5	
519.25	7677.2	
519.45	9022	
519.65	10578	
519.84	8284.7	
520.04	9064.3	
520.24	10952	
520.43	9570.8	
520.63	7872.4	
520.83	7540.6	
521.02	8679.3	
521.22	9392	
521.42	8135.2	
521.61	8846.5	
521.81	9005.6	
522.01	9284.8	
522.2	8179.6	
522.4	7899	
522.6	9890.3	
522.79	8538.7	
522.99	8049.2	
523.18	7320.1	
523.38	9578.3	
523.58	9604.3	
523.77	9371.5	
523.97	7251.9	
524.17	11560	
524.36	10514	
524.56	8662.2	
524.76	8284.7	
524.95	9521.7	
525.15	9215.9	
525.34	8174.1	
525.54	8051.9	
525.74	9923.8	
525.93	8852.7	
526.13	9226.1	
526.33	7979.6	
526.52	10180	
526.72	9667.8	
526.91	9378.3	
527.11	8613.8	
527.31	10424	
527.5	10817	
527.7	8582.4	
527.89	7411.6	
528.09	9258.2	
528.29	9839.1	
528.48	8990.6	
528.68	8589.9	
528.87	10236	
529.07	10190	
529.27	8409.6	
529.46	7809.6	
529.66	9642.5	
529.85	10066	
530.05	7528.3	
530.25	8409	
530.44	11230	
530.64	9534.7	
530.83	8224.6	
531.03	8526.4	
531.23	10201	
531.42	10089	
531.62	9345.6	
531.81	8492.2	
532.01	10359	
532.21	10950	
532.4	8228.7	
532.6	8543.4	
532.79	11557	
532.99	10436	
533.18	8545.5	
533.38	9766.8	
533.58	9951.1	
533.77	10799	
533.97	8510.7	
534.16	9393.4	
534.36	10958	
534.55	9946.3	
534.75	9604.3	
534.95	8607.6	
535.14	10763	
535.34	9977	
535.53	8165.9	
535.73	10327	
535.92	11325	
536.12	10193	
536.31	8228.7	
536.51	9559.2	
536.71	10498	
536.9	10041	
537.1	8425.3	
537.29	8705.2	
537.49	10954	
537.68	9871.9	
537.88	9004.9	
538.07	8166.6	
538.27	10180	
538.46	11202	
538.66	8163.2	
538.86	8579.6	
539.05	10173	
539.25	10585	
539.44	8794.7	
539.64	8408.3	
539.83	9980.4	
540.03	11071	
540.22	8327.7	
540.42	8405.5	
540.61	10241	
540.81	10357	
541	8888.9	
541.2	9596.8	
541.39	9798.8	
541.59	10213	
541.78	9168.8	
541.98	8250.6	
542.18	9426.8	
542.37	9263.6	
542.57	8613.8	
542.76	9215.9	
542.96	9372.2	
543.15	10140	
543.35	8598.7	
543.54	7861.5	
543.74	10512	
543.93	10048	
544.13	8673.1	
544.32	9836.4	
544.52	10378	
544.71	9531.9	
544.91	7722.2	
545.1	9179	
545.3	9555.1	
545.49	10305	
545.69	7644.4	
545.88	8227.4	
546.08	11249	
546.27	10855	
546.47	8904.6	
546.66	8092.2	
546.86	10579	
547.05	11253	
547.24	8387.8	
547.44	8173.4	
547.63	9355.1	
547.83	10582	
548.02	8537.3	
548.22	8800.8	
548.41	9147.6	
548.61	10591	
548.8	8081.3	
549	7994.6	
549.19	9775.6	
549.39	10144	
549.58	7671.7	
549.78	8296.3	
549.97	10232	
550.17	9701.2	
550.36	9224.1	
550.55	10378	
550.75	9708.1	
550.94	10600	
551.14	7892.9	
551.33	8371.4	
551.53	8996	
551.72	10107	
551.92	8471.8	
552.11	8129.1	
552.31	10139	
552.5	10183	
552.69	10029	
552.89	7769.3	
553.08	10063	
553.28	9739.5	
553.47	8112	
553.67	9308.7	
553.86	10776	
554.06	8967.4	
554.25	7222.5	
554.44	7920.2	
554.64	11577	
554.83	11004	
555.03	7795.3	
555.22	8218.5	
555.42	10270	
555.61	9925.8	
555.8	7946.8	
556	8322.9	
556.19	8965.3	
556.39	10514	
556.58	8249.2	
556.78	8079.9	
556.97	9805.7	
557.16	9438.4	
557.36	9448	
557.55	7670.3	
557.75	8675.9	
557.94	10619	
558.13	7856	
558.33	7606.2	
558.52	10324	
558.72	9230.2	
558.91	7702.4	
559.1	7985	
559.3	8888.2	
559.49	8677.9	
559.69	7145.4	
559.88	8366.6	
560.07	9880.1	
560.27	10195	
560.46	8476.5	
560.66	8619.2	
560.85	9465.7	
561.04	8632.9	
561.24	7629.4	
561.43	7768.6	
561.63	8930.5	
561.82	9284.1	
562.01	9229.5	
562.21	8175.5	
562.4	9711.5	
562.59	10832	
562.79	8118.8	
562.98	7699.7	
563.18	9613.2	
563.37	11255	
563.56	8586.5	
563.76	7520.1	
563.95	9058.2	
564.14	8948.3	
564.34	7989.1	
564.53	7678.5	
564.73	9606.3	
564.92	10093	
565.11	8231.5	
565.31	7434.1	
565.5	10211	
565.69	9167.4	
565.89	7804.8	
566.08	8090.8	
566.27	10137	
566.47	10552	
566.66	8757.1	
566.85	7286.7	
567.05	9703.3	
567.24	9070.5	
567.44	7638.2	
567.63	9156.5	
567.82	9912.9	
568.02	9628.9	
568.21	7606.2	
568.4	8086.1	
568.6	9467.8	
568.79	9594.7	
568.98	7546.8	
569.18	7719.5	
569.37	9514.2	
569.56	11630	
569.76	8094.9	
569.95	8948.9	
570.14	9878.7	
570.34	9766.8	
570.53	7499.7	
570.72	7448.5	
570.91	10382	
571.11	9370.1	
571.3	8000	
571.49	8977.6	
571.69	9402.9	
571.88	9066.4	
572.07	8592.6	
572.27	8726.4	
572.46	9042.5	
572.65	10219	
572.85	7738.6	
573.04	8189.8	
573.23	10379	
573.43	9690.3	
573.62	7466.2	
573.81	8260.8	
574	9632.3	
574.2	9469.1	
574.39	7918.1	
574.58	8099.7	
574.78	10503	
574.97	9768.1	
575.16	8476.5	
575.36	8740.7	
575.55	10104	
575.74	10230	
575.93	7527.7	
576.13	8675.9	
576.32	9432.3	
576.51	10094	
576.71	7990.5	
576.9	9419.3	
577.09	10447	
577.28	9982.5	
577.48	8436.9	
577.67	7410.2	
577.86	9688.3	
578.05	9818.6	
578.25	8130.4	
578.44	8288.8	
578.63	9674.6	
578.83	10980	
579.02	7524.9	
579.21	9121	
579.4	9906.7	
579.6	9573.6	
579.79	8314.8	
579.98	10676	
580.17	10292	
580.37	10358	
580.56	7815	
580.75	8610.3	
580.94	10899	
581.14	10767	
581.33	9113.5	
581.52	7990.5	
581.71	10193	
581.91	10888	
582.1	7620.5	
582.29	8350.3	
582.48	9813.9	
582.68	9698.5	
582.87	8750.3	
583.06	8353.7	
583.25	10113	
583.45	9333.3	
583.64	9035.6	
583.83	9992	
584.02	9571.5	
584.21	10039	
584.41	9020.6	
584.6	8163.2	
584.79	9753.8	
584.98	10583	
585.18	7595.2	
585.37	7686.7	
585.56	9284.8	
585.75	10182	
585.94	7950.9	
586.14	8606.9	
586.33	10653	
586.52	9676.7	
586.71	8398	
586.91	8210.3	
587.1	9000.8	
587.29	10057	
587.48	7996	
587.67	7924.3	
587.87	9987.3	
588.06	10139	
588.25	9303.2	
588.44	8481.3	
588.63	9553.1	
588.83	10157	
589.02	7760.4	
589.21	7686.7	
589.4	9200.8	
589.59	8933.9	
589.78	6830	
589.98	7103	
590.17	8430.1	
590.36	9200.2	
590.55	6537.8	
590.74	7464.8	
590.94	10647	
591.13	9092.3	
591.32	7211.6	
591.51	6765.1	
591.7	9747.6	
591.89	9159.9	
592.09	6901	
592.28	7428.7	
592.47	8322.9	
592.66	10218	
592.85	6894.1	
593.05	7110.5	
593.24	8931.9	
593.43	9757.9	
593.62	7235.5	
593.81	7759.8	
594	8973.5	
594.19	9292.3	
594.39	7147.4	
594.58	7059.3	
594.77	9353.8	
594.96	9856.9	
595.15	6921.5	
595.34	7664.2	
595.54	9299.1	
595.73	8359.8	
595.92	6360.3	
596.11	7569.3	
596.3	9964.7	
596.49	8538.7	
596.68	7412.3	
596.88	7950.2	
597.07	9727.9	
597.26	8439	
597.45	6933.1	
597.64	8202.8	
597.83	8600.8	
598.02	9288.9	
598.22	6903.7	
598.41	7648.5	
598.6	9009	
598.79	8557.1	
598.98	7004.1	
599.17	8008.9	
599.36	9059.5	
599.55	10462	
599.74	9307.3	
599.94	9035.6	
600.13	9684.8	
600.32	8370	
600.51	6824.5	
600.7	6947.4	
600.89	10447	
601.08	10412	
601.27	6717.3	
601.47	7709.2	
601.66	9665	
601.85	10290	
602.04	7384.3	
602.23	7720.8	
602.42	8622.6	
602.61	9383.8	
602.8	7419.8	
602.99	7204.1	
603.18	8964.6	
603.37	9316.9	
603.57	7830.7	
603.76	8413.1	
603.95	10069	
604.14	9564.7	
604.33	7265.5	
604.52	7581.6	
604.71	9150.3	
604.9	8802.2	
605.09	8101.1	
605.28	7978.9	
605.47	9840.5	
605.66	9484.1	
605.86	7721.5	
606.05	7208.8	
606.24	9781.1	
606.43	8249.9	
606.62	7499.7	
606.81	8282.7	
607	9691	
607.19	8958.5	
607.38	6938.5	
607.57	7127.6	
607.76	8657.4	
607.95	8185	
608.14	7607.5	
608.33	8234.9	
608.52	8655.4	
608.72	9573.6	
608.91	6776	
609.1	6696.2	
609.29	8765.3	
609.48	8284	
609.67	7744.1	
609.86	6821.8	
610.05	8450.6	
610.24	8753.7	
610.43	6579.4	
610.62	6260.6	
610.81	9880.8	
611	9671.2	
611.19	6722.1	
611.38	7522.2	
611.57	9028.8	
611.76	10542	
611.95	6569.2	
612.14	6379.4	
612.33	8791.2	
612.52	8305.9	
612.71	7095.5	
612.9	6247.7	
613.09	7916.8	
613.28	10370	
613.47	6822.5	
613.66	7833.5	
613.85	8899.8	
614.04	8369.4	
614.24	6906.4	
614.43	6068.8	
614.62	9080.7	
614.81	8981	
615	7565.2	
615.19	7632.8	
615.38	8309.3	
615.57	8700.5	
615.76	7324.9	
615.95	8420.6	
616.14	9047.2	
616.33	8690.2	
616.52	7662.8	
616.71	7944.8	
616.9	9000.1	
617.09	8858.8	
617.28	7055.3	
617.47	8591.9	
617.66	8101.1	
617.85	8203.5	
618.04	8053.3	
618.22	7397.3	
618.41	8494.3	
618.6	9491.7	
618.79	7377.5	
618.98	6934.4	
619.17	9773.6	
619.36	8019.2	
619.55	7116.7	
619.74	7243	
619.93	8939.4	
620.12	8394.6	
620.31	7798	
620.5	7931.8	
620.69	9635	
620.88	9958.6	
621.07	8731.2	
621.26	7593.2	
621.45	9161.9	
621.64	9179	
621.83	7828	
622.02	6886	
622.21	9128.5	
622.4	8957.1	
622.59	8334.6	
622.78	8112	
622.97	8607.6	
623.16	9624.1	
623.35	7608.2	
623.54	6787	
623.72	8715.5	
623.91	8902.5	
624.1	7948.8	
624.29	6477	
624.48	10014	
624.67	9269.8	
624.86	7843	
625.05	6841.6	
625.24	10062	
625.43	8408.3	
625.62	9688.9	
625.81	7023.9	
626	9540.8	
626.19	8796	
626.38	7873.1	
626.56	7202.7	
626.75	8583	
626.94	9364	
627.13	7769.3	
627.32	6430.6	
627.51	9215.2	
627.7	10600	
627.89	6606.7	
628.08	7897.7	
628.27	8403.5	
628.46	8593.3	
628.65	6959	
628.83	6553.5	
629.02	9183.8	
629.21	8469	
629.4	7396.6	
629.59	7605.5	
629.78	8434.2	
629.97	9435.7	
630.16	7719.5	
630.35	7168.6	
630.54	9884.9	
630.72	9517.6	
630.91	7044.3	
631.1	7698.3	
631.29	9025.4	
631.48	9263	
631.67	7802.1	
631.86	7174.7	
632.05	8615.1	
632.24	8686.1	
632.42	6846.4	
632.61	7546.8	
632.8	8750.3	
632.99	8359.1	
633.18	7528.3	
633.37	7947.5	
633.56	9016.5	
633.75	8819.2	
633.93	7393.8	
634.12	7193.8	
634.31	9823.4	
634.5	9494.4	
634.69	7261.4	
634.88	7747.5	
635.07	8701.8	
635.25	9374.9	
635.44	8133.2	
635.63	8335.9	
635.82	8571.4	
636.01	8099	
636.2	8099	
636.39	7580.9	
636.57	9794.8	
636.76	9467.8	
636.95	7035.5	
637.14	8512.7	
637.33	9065	
637.52	10142	
637.7	6794.5	
637.89	7868.3	
638.08	8574.8	
638.27	10258	
638.46	7901.7	
638.65	8335.2	
638.83	10084	
639.02	8462.2	
639.21	7688.8	
639.4	8314.8	
639.59	8983.1	
639.78	8533.9	
639.96	7038.9	
640.15	7004.1	
640.34	8787.2	
640.53	8912.8	
640.72	6655.9	
640.91	6979.5	
641.09	8167.3	
641.28	9663	
641.47	6993.1	
641.66	7935.9	
641.85	8945.5	
642.03	9284.8	
642.22	7725.6	
642.41	7114.6	
642.6	8304.5	
642.79	7653.9	
642.97	6898.9	
643.16	7646.4	
643.35	8324.3	
643.54	8068.3	
643.73	6786.3	
643.91	7688.8	
644.1	7845.8	
644.29	8499.8	
644.48	6854.6	
644.67	6892.1	
644.85	8103.8	
645.04	8473.8	
645.23	6268.8	
645.42	6668.2	
645.6	7877.2	
645.79	9106	
645.98	6703.7	
646.17	5596.4	
646.36	7530.4	
646.54	8229.4	
646.73	7577.5	
646.92	6181.5	
647.11	7780.2	
647.29	8937.3	
647.48	6343.9	
647.67	6078.4	
647.86	9267.1	
648.05	9282.1	
648.23	6591	
648.42	8127.7	
648.61	8504.5	
648.8	8315.4	
648.98	6309.1	
649.17	6663.4	
649.36	7911.3	
649.55	7333.1	
649.73	6328.2	
649.92	7158.3	
650.11	7698.3	
650.3	8062.9	
650.48	6464.1	
650.67	6217.6	
650.86	8365.3	
651.05	7232.1	
651.23	6524.1	
651.42	6456.6	
651.61	7819.1	
651.79	8000.7	
651.98	6608.8	
652.17	6266.8	
652.36	8251.9	
652.54	7281.2	
652.73	6234	
652.92	6019.7	
653.11	8297.7	
653.29	8314.8	
653.48	5451	
653.67	6501.6	
653.85	7991.2	
654.04	9050	
654.23	6718.7	
654.42	6154.8	
654.6	7462.8	
654.79	8190.5	
654.98	5682.4	
655.16	6335	
655.35	7131.7	
655.54	7032	
655.73	5832.6	
655.91	5778	
656.1	8383	
656.29	7025.9	
656.47	5355.4	
656.66	7126.2	
656.85	7370	
657.03	7421.8	
657.22	5945.9	
657.41	5971.9	
657.59	7463.5	
657.78	7275.8	
657.97	5565	
658.16	6506.4	
658.34	8123.6	
658.53	8545.5	
658.72	7309.2	
658.9	7887.4	
659.09	7511.3	
659.28	7646.4	
659.46	6113.9	
659.65	6007.4	
659.84	7243	
660.02	7841	
660.21	5966.4	
660.4	5887.2	
660.58	8322.3	
660.77	7752.9	
660.96	6518	
661.14	5461.9	
661.33	8862.2	
661.52	8766	
661.7	5340.4	
661.89	9420.7	
662.08	7191.1	
662.26	6733.7	
662.45	5722.7	
662.64	5897.5	
662.82	8000	
663.01	7071.6	
663.2	5829.2	
663.38	6736.5	
663.57	7921.5	
663.75	7711.3	
663.94	6150.1	
664.13	7449.8	
664.31	7131	
664.5	7961.8	
664.69	6442.9	
664.87	7059.3	
665.06	6935.8	
665.25	7782.3	
665.43	7348.1	
665.62	7391.8	
665.8	8165.3	
665.99	7339.9	
666.18	6149.4	
666.36	6310.5	
666.55	8043.1	
666.74	7866.2	
666.92	5700.2	
667.11	7526.3	
667.29	7287.4	
667.48	7985	
667.67	7188.4	
667.85	6044.9	
668.04	7349.5	
668.22	7342.7	
668.41	6225.8	
668.6	6410.1	
668.78	7161.7	
668.97	7388.4	
669.15	6597.9	
669.34	5536.3	
669.53	7144.7	
669.71	7502.4	
669.9	5698.8	
670.08	6459.3	
670.27	7190.4	
670.46	7804.8	
670.64	6691.4	
670.83	6878.4	
671.01	7049.1	
671.2	7720.8	
671.38	5801.2	
671.57	5711.8	
671.76	8339.3	
671.94	9011.7	
672.13	5564.3	
672.31	6779.5	
672.5	7912	
672.69	7134.4	
672.87	5799.8	
673.06	6073.6	
673.24	7718.1	
673.43	7135.1	
673.61	6590.4	
673.8	6028.5	
673.98	7922.9	
674.17	8006.2	
674.36	6685.3	
674.54	6599.9	
674.73	7659.4	
674.91	7940	
675.1	6236.1	
675.28	5855.8	
675.47	7410.2	
675.65	7985	
675.84	6090.7	
676.03	6449.7	
676.21	7174	
676.4	6670.2	
676.58	7002.7	
676.77	6657.3	
676.95	8676.6	
677.14	7074.4	
677.32	5718.6	
677.51	5482.4	
677.69	7930.4	
677.88	6688	
678.06	5612.8	
678.25	5756.8	
678.44	7406.1	
678.62	7056.6	
678.81	5425.1	
678.99	6445	
679.18	8311.3	
679.36	7758.4	
679.55	6036.7	
679.73	6677.1	
679.92	7761.1	
680.1	7174.7	
680.29	7352.2	
680.47	6081.1	
680.66	7090.8	
680.84	7987.8	
681.03	5210	
681.21	6443.6	
681.4	7124.9	
681.58	6880.5	
681.77	5769.1	
681.95	5664	
682.14	8011	
682.32	8377.6	
682.51	6799.9	
682.69	5464	
682.88	6997.9	
683.06	7699	
683.25	6391.7	
683.43	6861.4	
683.62	7233.4	
683.8	7664.2	
683.99	7004.7	
684.17	6242.2	
684.36	8535.9	
684.54	7103.7	
684.73	5229.1	
684.91	5519.3	
685.1	7518.1	
685.28	6840.9	
685.46	6073.6	
685.65	6270.9	
685.83	7758.4	
686.02	7246.4	
686.2	5698.8	
686.39	5803.9	
686.57	7001.3	
686.76	8541.4	
686.94	5601.9	
687.13	5855.1	
687.31	7699.7	
687.5	7123.5	
687.68	5182.7	
687.86	6645	
688.05	9063.6	
688.23	6508.4	
688.42	6668.9	
688.6	5713.2	
688.79	7146.7	
688.97	7025.2	
689.16	6158.2	
689.34	4994.3	
689.52	7886	
689.71	8095.6	
689.89	6428.6	
690.08	5634.6	
690.26	7273	
690.45	7110.5	
690.63	6634.1	
690.81	5724.1	
691	6904.4	
691.18	6828.6	
691.37	5959.6	
691.55	8240.3	
691.74	6779.5	
691.92	9026.1	
692.1	5898.8	
692.29	5350.7	
692.47	7086.7	
692.66	6384.2	
692.84	5606.7	
693.02	6219	
693.21	6500.9	
693.39	7004.1	
693.58	6335.7	
693.76	5687.9	
693.94	8337.3	
694.13	8161.8	
694.31	5658.5	
694.5	6903	
694.68	6857.3	
694.86	7223.9	
695.05	6008.7	
695.23	6206	
695.42	7605.5	
695.6	10109	
695.78	6694.1	
695.97	5709.1	
696.15	7617.8	
696.34	7033.4	
696.52	5439.4	
696.7	6311.2	
696.89	7387.7	
697.07	6741.9	
697.25	6308.4	
697.44	7847.8	
697.62	7336.5	
697.81	7709.9	
697.99	5908.4	
698.17	6456.6	
698.36	6631.3	
698.54	7333.8	
698.72	6278.4	
698.91	5227.8	
699.09	6900.3	
699.28	6819.7	
699.46	5970.5	
699.64	5772.5	
699.83	6660	
700.01	8178.9	
700.19	6670.9	
700.38	4948.6	
700.56	7977.5	
700.74	6873	
700.93	5442.1	
701.11	6271.6	
701.29	7454.6	
701.48	8568.7	
701.66	5615.5	
701.84	5620.3	
702.03	6911.2	
702.21	7651.9	
702.39	5162.2	
702.58	5828.5	
702.76	7291.5	
702.94	7425.9	
703.13	5162.9	
703.31	7791.2	
703.49	6595.1	
703.68	8307.9	
703.86	5367	
704.04	6414.9	
704.23	7169.9	
704.41	7567.2	
704.59	5561.6	
704.78	6847.7	
704.96	8355.7	
705.14	7690.8	
705.33	5250.3	
705.51	6207.4	
705.69	6980.8	
705.87	7905.2	
706.06	6537.8	
706.24	5304.9	
706.42	7310.6	
706.61	7661.5	
706.79	6535.8	
706.97	5267.4	
707.16	6746	
707.34	7376.8	
707.52	6506.4	
707.7	5511.1	
707.89	7074.4	
708.07	6544.6	
708.25	6473.6	
708.44	6640.9	
708.62	6831.3	
708.8	8056.7	
708.98	6733	
709.17	5589.6	
709.35	7397.9	
709.53	7296.9	
709.72	5294.7	
709.9	5460.6	
710.08	7490.1	
710.26	7542.7	
710.45	7085.3	
710.63	5621.7	
710.81	7175.4	
710.99	7210.2	
711.18	6412.2	
711.36	5827.2	
711.54	6949.4	
711.72	7692.9	
711.91	5789.6	
712.09	5173.2	
712.27	7151.5	
712.45	7911.3	
712.64	6133.7	
712.82	4985.4	
713	6510.5	
713.18	6686.6	
713.37	5115.8	
713.55	6414.2	
713.73	7549.5	
713.91	6038.8	
714.1	5468.8	
714.28	4916.5	
714.46	7170.6	
714.64	6367.8	
714.83	4376.5	
715.01	5317.2	
715.19	6496.8	
715.37	5886.5	
715.55	5008.6	
715.74	5253.7	
715.92	7514	
716.1	5355.4	
716.28	6486.6	
716.47	5483.8	
716.65	6177.4	
716.83	6259.3	
717.01	5309.7	
717.19	5489.2	
717.38	8493.6	
717.56	5948	
717.74	5728.2	
717.92	4717.2	
718.1	7323.5	
718.29	6469.5	
718.47	4328	
718.65	5148.6	
718.83	7194.5	
719.01	7036.8	
719.2	4212	
719.38	5326.1	
719.56	6658.6	
719.74	8455.4	
719.92	4859.1	
720.11	5978	
720.29	6691.4	
720.47	5740.5	
720.65	4337.6	
720.83	5276.9	
721.02	6172.6	
721.2	5935	
721.38	5448.3	
721.56	4642.1	
721.74	5472.9	
721.92	5694	
722.11	5930.9	
722.29	5638.7	
722.47	6968.6	
722.65	6105.7	
722.83	4628.4	
723.01	5650.3	
723.2	6227.9	
723.38	6492.1	
723.56	4003.1	
723.74	5330.9	
723.92	5701.5	
724.1	6918.7	
724.29	4504.8	
724.47	5814.9	
724.65	5689.9	
724.83	5621.7	
725.01	4473.4	
725.19	5511.1	
725.37	5780.1	
725.56	5819	
725.74	4326.7	
725.92	4562.9	
726.1	5638.1	
726.28	6036.7	
726.46	5055.8	
726.64	4711	
726.83	6013.5	
727.01	6259.3	
727.19	4252.9	
727.37	5193	
727.55	6075.6	
727.73	6619	
727.91	4267.3	
728.09	4080.9	
728.28	6746.7	
728.46	7318.8	
728.64	5380.7	
728.82	5272.2	
729	7880.6	
729.18	7060	
729.36	4420.2	
729.54	7044.3	
729.72	8129.8	
729.91	6308.4	
730.09	6499.6	
730.27	5204.6	
730.45	6180.1	
730.63	6959	
730.81	5889.3	
730.99	4785.4	
731.17	7470.3	
731.35	5881.8	
731.53	5378.6	
731.71	4922	
731.9	7135.1	
732.08	7333.1	
732.26	5306.3	
732.44	4866	
732.62	7390.4	
732.8	6837.5	
732.98	5634.6	
733.16	4629.8	
733.34	6804.7	
733.52	5531.6	
733.7	5264	
733.88	5604.6	
734.07	6696.2	
734.25	6383.5	
734.43	4644.1	
734.61	6419	
734.79	8092.2	
734.97	6282.5	
735.15	4826.4	
735.33	5212.8	
735.51	6734.4	
735.69	6353.5	
735.87	6424.5	
736.05	5417.6	
736.23	6494.8	
736.41	6321.4	
736.59	5280.3	
736.77	5298.8	
736.95	6943.3	
737.13	6423.8	
737.32	4904.9	
737.5	5109.7	
737.68	7615	
737.86	6272.9	
738.04	4667.3	
738.22	6718	
738.4	6090.7	
738.58	6445.6	
738.76	5484.5	
738.94	4227	
739.12	6311.2	
739.3	6113.2	
739.48	6069.5	
739.66	5855.8	
739.84	6526.2	
740.02	6490	
740.2	4356.7	
740.38	4801.8	
740.56	6933.7	
740.74	5717.2	
740.92	5511.1	
741.1	5478.3	
741.28	6341.2	
741.46	6209.4	
741.64	5023.7	
741.82	5592.3	
742	6389	
742.18	6358.3	
742.36	5276.3	
742.54	4774.5	
742.72	7033.4	
742.9	5681.1	
743.08	5685.8	
743.26	4390.8	
743.44	7299.6	
743.62	7128.3	
743.8	5843.5	
743.98	4846.2	
744.16	6873.7	
744.34	6476.4	
744.52	5805.3	
744.7	5699.5	
744.88	6909.8	
745.06	6444.3	
745.24	5829.9	
745.42	5942.5	
745.6	6999.3	
745.78	6733	
745.96	4590.2	
746.14	4926.7	
746.32	7853.3	
746.5	7072.3	
746.68	5527.5	
746.86	4994.3	
747.03	7582.3	
747.21	5653.1	
747.39	5536.3	
747.57	4997	
747.75	6640.2	
747.93	7122.8	
748.11	4952	
748.29	4813.4	
748.47	8334.6	
748.65	6331	
748.83	5722.7	
749.01	5449.6	
749.19	6888.7	
749.37	5925.5	
749.55	5328.8	
749.73	5337	
749.91	6524.8	
750.09	6161.7	
750.26	5414.8	
750.44	4830.5	
750.62	6584.9	
750.8	6510.5	
750.98	4608.6	
751.16	5020.9	
751.34	6595.1	
751.52	5935.7	
751.7	5924.8	
751.88	4672.8	
752.06	7199.3	
752.24	6894.8	
752.42	4566.3	
752.59	4995.7	
752.77	6524.8	
752.95	7840.3	
753.13	5737.7	
753.31	5133.6	
753.49	6165.8	
753.67	6735.8	
753.85	5505.6	
754.03	4998.4	
754.21	7002	
754.38	7350.8	
754.56	5247.6	
754.74	4138.3	
754.92	6197.8	
755.1	6967.2	
755.28	4231.1	
755.46	4167.6	
755.64	7684	
755.82	7768.6	
755.99	4436.6	
756.17	4569.7	
756.35	5062.6	
756.53	6896.2	
756.71	3342.3	
756.89	4328	
757.07	6304.3	
757.25	5322	
757.42	4949.9	
757.6	5913.9	
757.78	6497.5	
757.96	5310.4	
758.14	4646.8	
758.32	4166.9	
758.5	4809.3	
758.67	5737	
758.85	4460.5	
759.03	4622.3	
759.21	5980.1	
759.39	5332.2	
759.57	4016.7	
759.75	5218.9	
759.92	6475.7	
760.1	5852.4	
760.28	5723.4	
760.46	5937.1	
760.64	5618.9	
760.82	5410.1	
760.99	5537	
761.17	4610	
761.35	6586.3	
761.53	5435.3	
761.71	4799.1	
761.89	5549.3	
762.06	6488	
762.24	5842.2	
762.42	4838	
762.6	4644.8	
762.78	5940.5	
762.96	6715.3	
763.13	5346.6	
763.31	4955.4	
763.49	6808.8	
763.67	5909.8	
763.85	5860.6	
764.02	6443.6	
764.2	7111.2	
764.38	6285.2	
764.56	4859.8	
764.74	5810.1	
764.91	7293.5	
765.09	6044.2	
765.27	4517.1	
765.45	4354.7	
765.63	7309.2	
765.8	7163.8	
765.98	4058.4	
766.16	4339.6	
766.34	5573.2	
766.52	5355.4	
766.69	5453.1	
766.87	4161.5	
767.05	6047.7	
767.23	6981.5	
767.41	4562.9	
767.58	4756.1	
767.76	6668.2	
767.94	6775.4	
768.12	4663.2	
768.29	5533.6	
768.47	6146.6	
768.65	6877.8	
768.83	4188.8	
769	5593.7	
769.18	5646.2	
769.36	6408.8	
769.54	5494	
769.72	4255.7	
769.89	6685.9	
770.07	6890.7	
770.25	4555.4	
770.43	5995.8	
770.6	7530.4	
770.78	8002.1	
770.96	4846.9	
771.14	5591.6	
771.31	6542.6	
771.49	5926.8	
771.67	3880.2	
771.85	4261.1	
772.02	5074.9	
772.2	5923.4	
772.38	4823.6	
772.55	4508.3	
772.73	6144.6	
772.91	5952.1	
773.09	4893.3	
773.26	4951.3	
773.44	6123.4	
773.62	5758.2	
773.8	4315.1	
773.97	3977.2	
774.15	6257.2	
774.33	5821	
774.5	4189.5	
774.68	4635.2	
774.86	6434	
775.04	5816.9	
775.21	4314.4	
775.39	4293.2	
775.57	6100.2	
775.74	6636.8	
775.92	4151.9	
776.1	3987.4	
776.27	6109.8	
776.45	7460.1	
776.63	4292.5	
776.81	3764.8	
776.98	5693.4	
777.16	6851.1	
777.34	4432.5	
777.51	4770.4	
777.69	5658.5	
777.87	5441.5	
778.04	4450.9	
778.22	5142.4	
778.4	5494.7	
778.57	6221	
778.75	3653.6	
778.93	3966.9	
779.1	5225.1	
779.28	5113.8	
779.46	3689.8	
779.64	4259.8	
779.81	6393.1	
779.99	7316	
780.17	5075.5	
780.34	5315.8	
780.52	5767.1	
780.69	5924.1	
780.87	4640.7	
781.05	4141.7	
781.22	5786.2	
781.4	5882.4	
781.58	4201.7	
781.75	3320.4	
781.93	5818.3	
782.11	5229.8	
782.28	5192.3	
782.46	4218.1	
782.64	5018.2	
782.81	6027.9	
782.99	4418.8	
783.17	4291.2	
783.34	5936.4	
783.52	5057.8	
783.69	4596.3	
783.87	5398.4	
784.05	5118.6	
784.22	5233.2	
784.4	5416.9	
784.58	4630.5	
784.75	6176	
784.93	5192.3	
785.1	4281.6	
785.28	4898.1	
785.46	5927.5	
785.63	5179.3	
785.81	4164.9	
785.99	4083.6	
786.16	5358.2	
786.34	5813.5	
786.51	4122.6	
786.69	4541.7	
786.87	4907.6	
787.04	5486.5	
787.22	3932.8	
787.39	4913.1	
787.57	5124.7	
787.75	6390.3	
787.92	5130.2	
788.1	5165.7	
788.27	5240.8	
788.45	4957.4	
788.63	4814.8	
788.8	3398.3	
788.98	5552.7	
789.15	4852.3	
789.33	3549.8	
789.5	4209.3	
789.68	6189.6	
789.86	6337.1	
790.03	4687.1	
790.21	4100.7	
790.38	6120	
790.56	5383.4	
790.73	3971	
790.91	3971	
791.09	5122.7	
791.26	5969.1	
791.44	4281.6	
791.61	3596.9	
791.79	5112.4	
791.96	5294.7	
792.14	3730.7	
792.32	3288.4	
792.49	5183.4	
792.67	5283.8	
792.84	3822.2	
793.02	3580.5	
793.19	5657.2	
793.37	6470.9	
793.54	3269.2	
793.72	3694.5	
793.89	6760.3	
794.07	5207.3	
794.25	4202.4	
794.42	3399.6	
794.6	6358.9	
794.77	5928.9	
794.95	4658.4	
795.12	4031.8	
795.3	5154.1	
795.47	5875.6	
795.65	4477.5	
795.82	4247.5	
796	4962.9	
796.17	7038.2	
796.35	4144.4	
796.52	4893.3	
796.7	5795.8	
796.87	5874.9	
797.05	5202.5	
797.22	5096	
797.4	5784.1	
797.57	6862.7	
797.75	4280.3	
797.92	4009.9	
798.1	6122.7	
798.27	5170.4	
798.45	3409.2	
798.62	3663.8	
798.8	5548.6	
798.97	6054.5	
799.15	4554.7	
799.32	4216.1	
799.5	4712.4	
799.67	5603.9	
799.85	4705.5	
800.02	3350.5	
800.2	5123.3	
800.37	5509.7	
800.55	4848.2	
800.72	4039.3	
800.9	5982.8	
801.07	6429.9	
801.25	5416.2	
801.42	4359.4	
801.6	6124.1	
801.77	5782.1	
801.95	4071.4	
802.12	3863.8	
802.29	5715.9	
802.47	5702.9	
802.64	4407.2	
802.82	3267.9	
802.99	5155.4	
803.17	6182.1	
803.34	4251.6	
803.52	3871.3	
803.69	6933.7	
803.87	4920.6	
804.04	4206.5	
804.21	4345.8	
804.39	6273.6	
804.56	5401.9	
804.74	3574.4	
804.91	4504.2	
805.09	5162.9	
805.26	5243.5	
805.44	3674.1	
805.61	4055.7	
805.78	5923.4	
805.96	5937.7	
806.13	4489.1	
806.31	4700.1	
806.48	4690.5	
806.66	5265.3	
806.83	4474.8	
807	4356.7	
807.18	5150	
807.35	5577.3	
807.53	4300.1	
807.7	3424.2	
807.87	6425.2	
808.05	5205.3	
808.22	4797.7	
808.4	3415.3	
808.57	5317.9	
808.74	4816.8	
808.92	3885	
809.09	5046.9	
809.27	5020.9	
809.44	5767.8	
809.61	3466.5	
809.79	3833.8	
809.96	6431.3	
810.14	6029.9	
810.31	3337.5	
810.48	4103.4	
810.66	5345.2	
810.83	6145.3	
811.01	3900	
811.18	4407.2	
811.35	5980.1	
811.53	4634.6	
811.7	4799.1	
811.87	4472.8	
812.05	5231.9	
812.22	5129.5	
812.39	3804.4	
812.57	3649.5	
812.74	5162.2	
812.92	7047.7	
813.09	4135.5	
813.26	4557.4	
813.44	6711.9	
813.61	5140.4	
813.78	3390.8	
813.96	4669.4	
814.13	5204.6	
814.3	4840.7	
814.48	5005.2	
814.65	4149.2	
814.82	6564.4	
815	4954.7	
815.17	4258.4	
815.34	5255.8	
815.52	5171.8	
815.69	5135.6	
815.87	4275.5	
816.04	4186.7	
816.21	5287.2	
816.38	4540.3	
816.56	4097.3	
816.73	3837.2	
816.9	6660	
817.08	6034	
817.25	3792.2	
817.42	4825.7	
817.6	4698.7	
817.77	5283.8	
817.94	4394.3	
818.12	3781.2	
818.29	4871.4	
818.46	7886	
818.64	3921.2	
818.81	3695.2	
818.98	4863.9	
819.16	7185	
819.33	4655	
819.5	4212	
819.67	5650.3	
819.85	6358.9	
820.02	4129.4	
820.19	4468.7	
820.37	5405.3	
820.54	5046.2	
820.71	4326	
820.88	5411.4	
821.06	5469.4	
821.23	4969.7	
821.4	4287.1	
821.58	4259.8	
821.75	6031.3	
821.92	5437.4	
822.09	3466.5	
822.27	3556.6	
822.44	5279	
822.61	5094	
822.79	3496.6	
822.96	6758.3	
823.13	5760.9	
823.3	4943.8	
823.48	4019.5	
823.65	3665.9	
823.82	5940.5	
823.99	4713.7	
824.17	5186.8	
824.34	3623.5	
824.51	6953.5	
824.68	5251	
824.86	3777.8	
825.03	4398.4	
825.2	5208	
825.37	6469.5	
825.55	3807.2	
825.72	4296.6	
825.89	7047.7	
826.06	6520	
826.24	4185.4	
826.41	4164.9	
826.58	6511.9	
826.75	5550.7	
826.92	3244	
827.1	3632.4	
827.27	8829.5	
827.44	6920.1	
827.61	3958.7	
827.79	4828.4	
827.96	4965	
828.13	5350	
828.3	4067.3	
828.47	3480.9	
828.65	5410.1	
828.82	5386.8	
828.99	5418.2	
829.16	4732.9	
829.34	5869.5	
829.51	5597.1	
829.68	4306.9	
829.85	4451.6	
830.02	6186.9	
830.2	5909.1	
830.37	3281.5	
830.54	5185.5	
830.71	6750.8	
830.88	5225.1	
831.05	3312.2	
831.23	3931.4	
831.4	6364.4	
831.57	7270.3	
831.74	3958.7	
831.91	3437.9	
832.09	5497.4	
832.26	5874.9	
832.43	4105.5	
832.6	4655	
832.77	5487.9	
832.94	6275.7	
833.12	3290.4	
833.29	4051.6	
833.46	5638.1	
833.63	7524.9	
833.8	4473.4	
833.97	4134.8	
834.15	5927.5	
834.32	5638.7	
834.49	4235.9	
834.66	4375.1	
834.83	6063.4	
835	4949.3	
835.17	3898	
835.35	3949.8	
835.52	5778.7	
835.69	5689.3	
835.86	4221.5	
836.03	3444	
836.2	5806.7	
836.37	5406.6	
836.55	4080.9	
836.72	3867.9	
836.89	5427.1	
837.06	5979.4	
837.23	4178.5	
837.4	4586.1	
837.57	6681.8	
837.75	7524.9	
837.92	3753.2	
838.09	3999.7	
838.26	5365	
838.43	6211.5	
838.6	4344.4	
838.77	3842	
838.94	7067.5	
839.11	6778.1	
839.29	4055.7	
839.46	3248.8	
839.63	5810.8	
839.8	5586.2	
839.97	3977.2	
840.14	4008.6	
840.31	5617.6	
840.48	5881.8	
840.65	3252.2	
840.82	3895.2	
841	5867.4	
841.17	5797.1	
841.34	3636.5	
841.51	3702	
841.68	5747.3	
841.85	5427.8	
842.02	3821.5	
842.19	3103.4	
842.36	5567.7	
842.53	5511.1	
842.7	3684.3	
842.87	4535.6	
843.05	7367.9	
843.22	5524.1	
843.39	3481.5	
843.56	3806.5	
843.73	5253.7	
843.9	5960.3	
844.07	5938.4	
844.24	4998.4	
844.41	8761.2	
844.58	5046.2	
844.75	3540.3	
844.92	3809.2	
845.09	5857.2	
845.26	5859.2	
845.43	3626.3	
845.6	3845.4	
845.77	5851	
845.94	5588.2	
846.12	3991.5	
846.29	4329.4	
846.46	6035.4	
846.63	5847	
846.8	3614.7	
846.97	4370.4	
847.14	6312.5	
847.31	5816.9	
847.48	4098.7	
847.65	4546.5	
847.82	6166.4	
847.99	6186.9	
848.16	4914.4	
848.33	4561.5	
848.5	5358.2	
848.67	6334.4	
848.84	3651.5	
849.01	3793.5	
849.18	5251	
849.35	4908.3	
849.52	4552	
849.69	3536.2	
849.86	6053.1	
850.03	6321.4	
850.2	3705.5	
850.37	4494.6	
850.54	6225.1	
850.71	5498.1	
850.88	4361.5	
851.05	3545	
851.22	5742.5	
851.39	6428.6	
851.56	3399.6	
851.73	4225.6	
851.9	5096	
852.07	6053.8	
852.24	4100	
852.41	3648.8	
852.58	5732.9	
852.75	5178.6	
852.92	4066.6	
853.09	3551.2	
853.26	5385.5	
853.43	6307.7	
853.6	3677.5	
853.77	3058.3	
853.94	6411.5	
854.11	5828.5	
854.28	5500.2	
854.44	3934.1	
854.61	6721.4	
854.78	6148.7	
854.95	3614	
855.12	4618.9	
855.29	4661.2	
855.46	6547.4	
855.63	3592.8	
855.8	5096.7	
855.97	5430.5	
856.14	6195.8	
856.31	5243.5	
856.48	3958	
856.65	5332.9	
856.82	5078.3	
856.99	3474.7	
857.16	3977.8	
857.33	7116	
857.49	5436.7	
857.66	3977.8	
857.83	4207.2	
858	5406	
858.17	5710.4	
858.34	3422.8	
858.51	3639.2	
858.68	6653.2	
858.85	6630.6	
859.02	4226.3	
859.19	4576.5	
859.36	5021.6	
859.52	5121.3	
859.69	3684.3	
859.86	4283.7	
860.03	5201.8	
860.2	6460.7	
860.37	3283.6	
860.54	3636.5	
860.71	6082.5	
860.88	6536.4	
861.05	4121.2	
861.21	4606.6	
861.38	6607.4	
861.55	4990.2	
861.72	3297.9	
861.89	4071.4	
862.06	6180.8	
862.23	6683.9	
862.4	3525.2	
862.56	3823.6	
862.73	5963.7	
862.9	5605.3	
863.07	4329.4	
863.24	3247.4	
863.41	5007.3	
863.58	5104.9	
863.75	3719.8	
863.91	4231.1	
864.08	6495.5	
864.25	5993.7	
864.42	4596.3	
864.59	5108.3	
864.76	6918.7	
864.93	5181.4	
865.09	3560.7	
865.26	3841.3	
865.43	6374	
865.6	6823.1	
865.77	3155.9	
865.94	3622.2	
866.1	6447.7	
866.27	6178	
866.44	5561.6	
866.61	3407.1	
866.78	5509	
866.95	5976.7	
867.11	3540.3	
867.28	3217.4	
867.45	6217	
867.62	5259.9	
867.79	4259.1	
867.96	3616	
868.12	5055.8	
868.29	6135.7	
868.46	3633.8	
868.63	4893.3	
868.8	6341.2	
868.97	6045.6	
869.13	3816	
869.3	3804.4	
869.47	5981.4	
869.64	6154.1	
869.81	3626.3	
869.97	3691.1	
870.14	5850.4	
870.31	6619.7	
870.48	3497.2	
870.65	4620.9	
870.81	5464	
870.98	5406.6	
871.15	4145.8	
871.32	3735.5	
871.48	6012.8	
871.65	6610.8	
871.82	3640.6	
871.99	4051.6	
872.16	7145.4	
872.32	6453.8	
872.49	3680.9	
872.66	3658.4	
872.83	6053.1	
872.99	5305.6	
873.16	4191.5	
873.33	3573	
873.5	5653.8	
873.67	5755.5	
873.83	3774.4	
874	4855.7	
874.17	5864.7	
874.34	7010.9	
874.5	4746.5	
874.67	4540.3	
874.84	6529.6	
875.01	5089.2	
875.17	5167.7	
875.34	3657	
875.51	5771.2	
875.68	6928.3	
875.84	4370.4	
876.01	5367	
876.18	6034.7	
876.34	5913.9	
876.51	3682.9	
876.68	3506.1	
876.85	5524.7	
877.01	6338.5	
877.18	5245.5	
877.35	3590.8	
877.52	5543.9	
877.68	5084.4	
877.85	3495.2	
878.02	3620.1	
878.18	5597.8	
878.35	5270.1	
878.52	2943.6	
878.69	4083.6	
878.85	5998.5	
879.02	6020.3	
879.19	5238	
879.35	3876.8	
879.52	5958.2	
879.69	6272.9	
879.86	3119.7	
880.02	4096.6	
880.19	5515.9	
880.36	6987.7	
880.52	4231.1	
880.69	4315.1	
880.86	6133.7	
881.02	6292	
881.19	4009.9	
881.36	3922.5	
881.52	6014.2	
881.69	5299.5	
881.86	3855.6	
882.02	3875.4	
882.19	6337.8	
882.36	7466.2	
882.52	3646.1	
882.69	5184.8	
882.86	5850.4	
883.02	5702.2	
883.19	4470	
883.36	4209.9	
883.52	6159.6	
883.69	7024.5	
883.86	3711.6	
884.02	3288.4	
884.19	6098.2	
884.36	5603.2	
884.52	4120.5	
884.69	3901.4	
884.86	5350	
885.02	6767.2	
885.19	4061.1	
885.36	4254.3	
885.52	5642.2	
885.69	5827.8	
885.86	5292	
886.02	4674.8	
886.19	6134.3	
886.35	5539.8	
886.52	4033.1	
886.69	5139.7	
886.85	5126.1	
887.02	6492.7	
887.19	6492.7	
887.35	6492.7	
887.52	6492.7	
887.68	6492.7	
887.85	6492.7	
888.02	6492.7	
888.18	6492.7	
888.35	6492.7	
888.51	6492.7	
888.68	6492.7	
888.85	6492.7	
889.01	6492.7	
889.18	6492.7	
889.35	6492.7	
889.51	6492.7	
889.68	6492.7	
889.84	6492.7	
890.01	6492.7	
890.17	6492.7	
890.34	6492.7	
890.51	6492.7	
890.67	6492.7	
890.84	6492.7	
891	6492.7	
891.17	6492.7	
891.34	6492.7	
891.5	6492.7	
891.67	6492.7	
891.83	6492.7	
892	6492.7	
892.16	6492.7	
892.33	6492.7	
892.5	6492.7	
892.66	6492.7	
892.83	6492.7	
892.99	6492.7	
893.16	6492.7	
893.32	6492.7	
893.49	6492.7	
893.65	6492.7	
893.82	6492.7	
893.99	6492.7	
894.15	6492.7	
894.32	6492.7	
894.48	6492.7	
894.65	6492.7	
894.81	6492.7	
894.98	6492.7	
895.14	6492.7	
895.31	6492.7	
895.47	6492.7	
895.64	6492.7	
895.81	6492.7	
895.97	6492.7	
896.14	6492.7	
896.3	6492.7	
896.47	6492.7	
896.63	6492.7	
896.8	6492.7	
896.96	6492.7	
897.13	6492.7	
897.29	6492.7	
897.46	6492.7	
897.62	6492.7	
897.79	6492.7	
897.95	6492.7	
898.12	6492.7	
898.28	6492.7	
898.45	6492.7	
898.61	6492.7	
898.78	6492.7	
898.94	6492.7	
899.11	6492.7	
899.27	6492.7	
899.44	6492.7	
899.6	6492.7	
899.77	6492.7	
899.93	6492.7	
900.1	6492.7	
900.26	6492.7	
900.43	6492.7	
900.59	6492.7	
900.76	6492.7	
900.92	6492.7	
901.09	6492.7	
901.25	6492.7	
901.42	6492.7	
901.58	6492.7	
901.75	6492.7	
901.91	6492.7	
902.07	6492.7	
902.24	6492.7	
902.4	6492.7	
902.57	6492.7	
902.73	6492.7	
902.9	6492.7	
903.06	6492.7	
903.23	6492.7	
903.39	6492.7	
903.56	6492.7	
903.72	6492.7	
903.88	6492.7	
904.05	6492.7	
904.21	6492.7	
904.38	6492.7	
904.54	6492.7	
904.71	6492.7	
904.87	6492.7	
905.03	6492.7	
905.2	6492.7	
905.36	6492.7	
905.53	6492.7	
905.69	6492.7	
905.86	6492.7	
906.02	6492.7	
906.18	6492.7	
906.35	6492.7	
906.51	6492.7	
906.68	6492.7	
906.84	6492.7	
907.01	6492.7	
907.17	6492.7	
907.33	6492.7	
907.5	6492.7	
907.66	6492.7	
907.83	6492.7	
907.99	6492.7	
908.15	6492.7	
908.32	6492.7	
908.48	6492.7	
908.65	6492.7	
908.81	6492.7	
908.97	6492.7	
909.14	6492.7	
909.3	6492.7	
909.47	6492.7	
909.63	6492.7	
909.79	6492.7	
909.96	6492.7	
910.12	6492.7	
910.28	6492.7	
910.45	6492.7	
910.61	6492.7	
910.78	6492.7	
910.94	6492.7	
911.1	6492.7	
911.27	6492.7	
911.43	6492.7	
911.59	6492.7	
911.76	6492.7	
911.92	6492.7	
912.08	6492.7	
912.25	6492.7	
912.41	6492.7	
912.57	6492.7	
912.74	6492.7	
912.9	6492.7	
913.07	6492.7	
913.23	6492.7	
913.39	6492.7	
913.56	6492.7	
913.72	6492.7	
913.88	6492.7	
914.05	6492.7	
914.21	6492.7	
914.37	6492.7	
914.54	6492.7	
914.7	6492.7	
914.86	6492.7	
915.03	6492.7	
915.19	6492.7	
