Wavelength	Intensities	
nm	a.u.	
179.22	1520.4	
179.44	1527.4	
179.65	1513.4	
179.86	1541.4	
180.08	1540.1	
180.29	3375.1	
180.51	2717	
180.72	4545.8	
180.94	4982	
181.15	2392.7	
181.37	2413.2	
181.58	4368.3	
181.79	4509.6	
182.01	2476	
182.22	2605	
182.44	4569	
182.65	4042	
182.87	3095.2	
183.08	2791.4	
183.29	4841.4	
183.51	4057.7	
183.72	2548.4	
183.94	3476.1	
184.15	4368.3	
184.37	4244.8	
184.58	2357.9	
184.79	2963.4	
185.01	4110.3	
185.22	4618.9	
185.44	3045.3	
185.65	2778.4	
185.86	4373.8	
186.08	4062.5	
186.29	2353.1	
186.51	2484.2	
186.72	4132.1	
186.94	4642.1	
187.15	2822.8	
187.36	2808.4	
187.58	5637.4	
187.79	4402.5	
188.01	2819.4	
188.22	4151.2	
188.43	5048.9	
188.65	4539	
188.86	2511.5	
189.08	2831	
189.29	4199.7	
189.5	4173.1	
189.72	2622.1	
189.93	2680.8	
190.15	4631.8	
190.36	5234.6	
190.57	2851.5	
190.79	2760	
191	4641.4	
191.22	4639.3	
191.43	2894.5	
191.64	2470.5	
191.86	4834.6	
192.07	4580.6	
192.29	2564.1	
192.5	2605.7	
192.71	4671.4	
192.93	4224.3	
193.14	2588.6	
193.35	2692.4	
193.57	4207.9	
193.78	4728.8	
194	2233	
194.21	2581.1	
194.42	4061.1	
194.64	4341.7	
194.85	2834.4	
195.07	3144.3	
195.28	4309.6	
195.49	3961.5	
195.71	3229	
195.92	2467.8	
196.13	4490.5	
196.35	4485.1	
196.56	3458.3	
196.78	2884.2	
196.99	5238.7	
197.2	4904.2	
197.42	3107.5	
197.63	2816	
197.84	4013.3	
198.06	4467.3	
198.27	2626.9	
198.48	3281.5	
198.7	4217.5	
198.91	4354.7	
199.13	2840.5	
199.34	2772.3	
199.55	4761.5	
199.77	3836.5	
199.98	2555.2	
200.19	2865.8	
200.41	4382.7	
200.62	4078.2	
200.83	2867.8	
201.05	3097.9	
201.26	4349.2	
201.47	4203.8	
201.69	2572.2	
201.9	2546.3	
202.11	4401.8	
202.33	4949.3	
202.54	2744.3	
202.76	2936.1	
202.97	4347.2	
203.18	4502.1	
203.4	2874.7	
203.61	2992.1	
203.82	4386.7	
204.04	4138.9	
204.25	2850.8	
204.46	2785.2	
204.68	4305.5	
204.89	4501.4	
205.1	2779.1	
205.32	2461.7	
205.53	4590.9	
205.74	4663.2	
205.96	2213.9	
206.17	2858.3	
206.38	4509.6	
206.6	4581.3	
206.81	3052.2	
207.02	2667.1	
207.24	4471.4	
207.45	4671.4	
207.66	2764.8	
207.88	2424.8	
208.09	4420.9	
208.3	4340.3	
208.52	2625.5	
208.73	2725.2	
208.94	4405.2	
209.15	4715.8	
209.37	2719.7	
209.58	2790	
209.79	4619.5	
210.01	4246.8	
210.22	2337.4	
210.43	2418	
210.65	4344.4	
210.86	4577.9	
211.07	2702.6	
211.29	2484.9	
211.5	4446.1	
211.71	4324.6	
211.93	2560	
212.14	2563.4	
212.35	4347.8	
212.56	4305.5	
212.78	2835.1	
212.99	2392.7	
213.2	4878.3	
213.42	4235.9	
213.63	2633	
213.84	2766.1	
214.06	4046.1	
214.27	4067.9	
214.48	2699.9	
214.69	2884.9	
214.91	4743.1	
215.12	4745.8	
215.33	2847.4	
215.55	2957.9	
215.76	4995	
215.97	4534.2	
216.18	2755.9	
216.4	2794.8	
216.61	4112.3	
216.82	4568.3	
217.04	2575.7	
217.25	2693.8	
217.46	4647.5	
217.67	4590.9	
217.89	2418.7	
218.1	2487.6	
218.31	4351.9	
218.53	4467.3	
218.74	2734	
218.95	2582.5	
219.16	4308.2	
219.38	4889.2	
219.59	2577	
219.8	2968.2	
220.01	5127.4	
220.23	4404.5	
220.44	3177.8	
220.65	2497.8	
220.87	4368.3	
221.08	4703.5	
221.29	2511.5	
221.5	3028.9	
221.72	5366.4	
221.93	4169.7	
222.14	2871.9	
222.35	3236.5	
222.57	4332.1	
222.78	4601.1	
222.99	2757.9	
223.2	2878.8	
223.42	4481	
223.63	4528.7	
223.84	2235	
224.05	2224.8	
224.27	5074.9	
224.48	4798.4	
224.69	3229	
224.9	2814.6	
225.12	4371	
225.33	4306.2	
225.54	2350.4	
225.75	2598.2	
225.97	4140.3	
226.18	4310.3	
226.39	2702.6	
226.6	2579.1	
226.82	4217.5	
227.03	4055.7	
227.24	2832.3	
227.45	2438.4	
227.67	4650.3	
227.88	4807.3	
228.09	3124.5	
228.3	3095.2	
228.52	4565.6	
228.73	4242	
228.94	2646	
229.15	2456.2	
229.36	4300.1	
229.58	4351.3	
229.79	2723.8	
230	3013.9	
230.21	4995.7	
230.43	4315.8	
230.64	2798.9	
230.85	2910.8	
231.06	4629.8	
231.28	4625	
231.49	2467.8	
231.7	2820.1	
231.91	4561.5	
232.12	4306.2	
232.34	2560.6	
232.55	2728.6	
232.76	4668	
232.97	4327.4	
233.18	2581.8	
233.4	2861	
233.61	4468	
233.82	4143.7	
234.03	2661	
234.25	2665.8	
234.46	5503.6	
234.67	4318.5	
234.88	2899.2	
235.09	2617.3	
235.31	4403.1	
235.52	4274.1	
235.73	2793.4	
235.94	2461	
236.15	4205.8	
236.37	4965	
236.58	2525.1	
236.79	2739.5	
237	4486.4	
237.21	3969	
237.43	2914.9	
237.64	2405	
237.85	6637.5	
238.06	4136.2	
238.27	2883.5	
238.48	2513.5	
238.7	4555.4	
238.91	4265.2	
239.12	2689.7	
239.33	2818.7	
239.54	4084.3	
239.76	4259.8	
239.97	2733.4	
240.18	2705.4	
240.39	4870.8	
240.6	4406.5	
240.82	2921.8	
241.03	2478	
241.24	4334.9	
241.45	4772.4	
241.66	2553.1	
241.87	2943.6	
242.09	4766.3	
242.3	4916.5	
242.51	2936.1	
242.72	2721.1	
242.93	4526.7	
243.14	4278.9	
243.36	3031.7	
243.57	3244.7	
243.78	4860.5	
243.99	4493.2	
244.2	2735.4	
244.41	2484.9	
244.63	4013.3	
244.84	4461.2	
245.05	2863.7	
245.26	2703.3	
245.47	4595	
245.68	4577.2	
245.9	3422.2	
246.11	2843.3	
246.32	4201.7	
246.53	4532.8	
246.74	4068.6	
246.95	2415.2	
247.16	4168.3	
247.38	4332.8	
247.59	2521.7	
247.8	2755.9	
248.01	4024.9	
248.22	4341	
248.43	2556.5	
248.64	2734.7	
248.86	4055.7	
249.07	4220.2	
249.28	2527.9	
249.49	2874	
249.7	4624.3	
249.91	4611.3	
250.12	2418	
250.34	2470.5	
250.55	4425.7	
250.76	4347.2	
250.97	2864.4	
251.18	2832.3	
251.39	4638.6	
251.6	4425	
251.81	2831.7	
252.03	2841.9	
252.24	4214	
252.45	4524.6	
252.66	2493.7	
252.87	2938.2	
253.08	4316.4	
253.29	5285.8	
253.5	2484.9	
253.72	3238.5	
253.93	4358.8	
254.14	4882.4	
254.35	2678.1	
254.56	2688.3	
254.77	4498	
254.98	4118.5	
255.19	2628.2	
255.41	3212.6	
255.62	4468.7	
255.83	4649.6	
256.04	2954.5	
256.25	2758.6	
256.46	4993.6	
256.67	4138.3	
256.88	2838.5	
257.09	3046.7	
257.31	4065.9	
257.52	4083.6	
257.73	3376.4	
257.94	2668.5	
258.15	4321.2	
258.36	4280.9	
258.57	3106.1	
258.78	2241.8	
258.99	4589.5	
259.2	4176.5	
259.41	2637.1	
259.63	2745	
259.84	4735.6	
260.05	4922	
260.26	3184.6	
260.47	2581.8	
260.68	4675.5	
260.89	4250.2	
261.1	3074.7	
261.31	2504	
261.52	4767	
261.73	4872.1	
261.95	3239.2	
262.16	2887.6	
262.37	4702.1	
262.58	4760.2	
262.79	3244	
263	2690.3	
263.21	4390.8	
263.42	4158.1	
263.63	2859.6	
263.84	2699.9	
264.05	4642.7	
264.26	4805.9	
264.47	3102	
264.69	2883.5	
264.9	4838.7	
265.11	4379.9	
265.32	2564.7	
265.53	2594.8	
265.74	4344.4	
265.95	3936.9	
266.16	2749.7	
266.37	2940.2	
266.58	4406.5	
266.79	4149.2	
267	2640.5	
267.21	2479.4	
267.42	4067.3	
267.63	4327.4	
267.84	2713.6	
268.06	2461.7	
268.27	4633.2	
268.48	4687.8	
268.69	2671.2	
268.9	3052.2	
269.11	4625	
269.32	3952.6	
269.53	2715.6	
269.74	2555.2	
269.95	4407.9	
270.16	3981.3	
270.37	2749.1	
270.58	3101.3	
270.79	4286.4	
271	4587.4	
271.21	2877.4	
271.42	3905.5	
271.63	4481.6	
271.84	4001	
272.05	2357.9	
272.26	2521.7	
272.47	4311.7	
272.68	4427	
272.89	2678.7	
273.11	2950.4	
273.32	4132.1	
273.53	4855.7	
273.74	2883.5	
273.95	2885.6	
274.16	4547.9	
274.37	4319.8	
274.58	3022.8	
274.79	2526.5	
275	4494.6	
275.21	4610	
275.42	3440.6	
275.63	2979.8	
275.84	4562.2	
276.05	5286.5	
276.26	2843.9	
276.47	2693.8	
276.68	4339.6	
276.89	4934.2	
277.1	3011.9	
277.31	2470.5	
277.52	4444.8	
277.73	4741	
277.94	2434.4	
278.15	2678.7	
278.36	4495.3	
278.57	4118.5	
278.78	2620	
278.99	2904.7	
279.2	4205.2	
279.41	4115.7	
279.62	3316.3	
279.83	2478	
280.04	5040.7	
280.25	4117.1	
280.46	3291.1	
280.67	2736.8	
280.88	4175.8	
281.09	4663.2	
281.3	2882.2	
281.51	3406.5	
281.72	4188.1	
281.93	4539	
282.14	2598.9	
282.35	2819.4	
282.56	4691.2	
282.77	4563.6	
282.98	2692.4	
283.19	3093.8	
283.4	5346.6	
283.61	4315.1	
283.82	2545.6	
284.03	3225.6	
284.24	4556.7	
284.45	4605.2	
284.66	3338.2	
284.87	3107.5	
285.08	4686.4	
285.29	4735.6	
285.5	2447.3	
285.71	2684.9	
285.92	4606.6	
286.12	5070.8	
286.33	3225.6	
286.54	2772.3	
286.75	4542.4	
286.96	4261.1	
287.17	2557.9	
287.38	3115.6	
287.59	4223.6	
287.8	4236.6	
288.01	2678.1	
288.22	2940.9	
288.43	4464.6	
288.64	3954.6	
288.85	3106.1	
289.06	2988	
289.27	4638	
289.48	4773.1	
289.69	3290.4	
289.9	3069.9	
290.11	4735.6	
290.32	4260.5	
290.53	3082.9	
290.74	2848	
290.94	4594.3	
291.15	4618.9	
291.36	2641.9	
291.57	2968.9	
291.78	4242	
291.99	3943.7	
292.2	2568.2	
292.41	2876	
292.62	4627.7	
292.83	4476.9	
293.04	3445.4	
293.25	2590	
293.46	4297.3	
293.67	4656.4	
293.88	2590.7	
294.09	2579.8	
294.29	4115.7	
294.5	4404.5	
294.71	2763.4	
294.92	2654.2	
295.13	4256.4	
295.34	4984.1	
295.55	2425.5	
295.76	2400.9	
295.97	4534.2	
296.18	4896	
296.39	2490.3	
296.6	2610.5	
296.81	4362.9	
297.01	4556	
297.22	2729.9	
297.43	2615.9	
297.64	4253.6	
297.85	4124.6	
298.06	2291.7	
298.27	2393.4	
298.48	4292.5	
298.69	4141	
298.9	2789.3	
299.11	2577	
299.31	4122.6	
299.52	4110.3	
299.73	2937.5	
299.94	2844.6	
300.15	4391.5	
300.36	4166.9	
300.57	2926.5	
300.78	2831.7	
300.99	4251.6	
301.2	4353.3	
301.4	2670.6	
301.61	2774.3	
301.82	4492.6	
302.03	4570.4	
302.24	3056.9	
302.45	2510.1	
302.66	4494.6	
302.87	4659.1	
303.08	2594.1	
303.29	3345	
303.49	4244.1	
303.7	4229.7	
303.91	2385.2	
304.12	3204.4	
304.33	3978.5	
304.54	4407.9	
304.75	2609.8	
304.96	2615.9	
305.16	4554.7	
305.37	4937	
305.58	2407	
305.79	2433.7	
306	4499.4	
306.21	3990.8	
306.42	2619.4	
306.63	3625.6	
306.83	4225	
307.04	4439.3	
307.25	2794.1	
307.46	2833.7	
307.67	3915	
307.88	4552.6	
308.09	2691.7	
308.29	2654.2	
308.5	4367.6	
308.71	4586.8	
308.92	2732.7	
309.13	2542.2	
309.34	4403.1	
309.55	4251.6	
309.75	3142.3	
309.96	2930.6	
310.17	4543.1	
310.38	4091.2	
310.59	2955.9	
310.8	2865.1	
311.01	4250.2	
311.21	4331.5	
311.42	2579.8	
311.63	2603.7	
311.84	4258.4	
312.05	4310.3	
312.26	2881.5	
312.46	3011.9	
312.67	4272.1	
312.88	4002.4	
313.09	2514.2	
313.3	2542.9	
313.51	4812	
313.71	4998.4	
313.92	2537.4	
314.13	2640.5	
314.34	4479.6	
314.55	4402.5	
314.76	3048.7	
314.96	2766.8	
315.17	4493.9	
315.38	4432.5	
315.59	2594.1	
315.8	2467.8	
316.01	4739.7	
316.21	4885.8	
316.42	2547	
316.63	2755.2	
316.84	4309.6	
317.05	4629.1	
317.26	2928.6	
317.46	2673.3	
317.67	4381.3	
317.88	4548.5	
318.09	3056.3	
318.3	2456.9	
318.5	4202.4	
318.71	4450.9	
318.92	3770.3	
319.13	2922.5	
319.34	4631.8	
319.54	4664.6	
319.75	2424.8	
319.96	2337.4	
320.17	4524.6	
320.38	4653.7	
320.58	2428.9	
320.79	2769.5	
321	4669.4	
321.21	4756.1	
321.42	2760.7	
321.62	2401.6	
321.83	4172.4	
322.04	4369	
322.25	2746.3	
322.46	2576.3	
322.66	4360.8	
322.87	4556.7	
323.08	2994.1	
323.29	2498.5	
323.5	4958.1	
323.7	4032.5	
323.91	3259	
324.12	2957.9	
324.33	4407.9	
324.53	4528.7	
324.74	2852.8	
324.95	3005.7	
325.16	4085	
325.37	4208.6	
325.57	2566.8	
325.78	2540.2	
325.99	4520.5	
326.2	4032.5	
326.4	3371.6	
326.61	2434.4	
326.82	4273.4	
327.03	4420.9	
327.24	3381.2	
327.44	3171.6	
327.65	4495.3	
327.86	3879.5	
328.07	2895.8	
328.27	2536.8	
328.48	4795.7	
328.69	4028.4	
328.9	3433.8	
329.1	2645.3	
329.31	4301.4	
329.52	4776.5	
329.73	2622.1	
329.93	2740.9	
330.14	4402.5	
330.35	4484.4	
330.56	3756.7	
330.76	3039.2	
330.97	4203.1	
331.18	4362.2	
331.39	2816	
331.59	2365.4	
331.8	4676.2	
332.01	4743.1	
332.22	2639.8	
332.42	2842.6	
332.63	4422.9	
332.84	4120.5	
333.05	2803.7	
333.25	2590.7	
333.46	4115.7	
333.67	4305.5	
333.88	2741.5	
334.08	2844.6	
334.29	5375.9	
334.5	4675.5	
334.7	2540.2	
334.91	3366.2	
335.12	4069.3	
335.33	4520.5	
335.53	2768.2	
335.74	3711.6	
335.95	4230.4	
336.16	4019.5	
336.36	2775.7	
336.57	3110.9	
336.78	3941.7	
336.98	4627.7	
337.19	3227.6	
337.4	2725.2	
337.61	5059.2	
337.81	4054.3	
338.02	2635.1	
338.23	3174.4	
338.43	4765.6	
338.64	4157.4	
338.85	2601.6	
339.05	3229	
339.26	4872.1	
339.47	4037.2	
339.68	2608.4	
339.88	3427.6	
340.09	4569.7	
340.3	4647.5	
340.5	2899.2	
340.71	2351.8	
340.92	4079.6	
341.13	4720.6	
341.33	2460.3	
341.54	2881.5	
341.75	4513	
341.95	4164.9	
342.16	2798.2	
342.37	3013.9	
342.57	4070.7	
342.78	4243.4	
342.99	3003.7	
343.19	2437.1	
343.4	4567	
343.61	4459.1	
343.81	2725.8	
344.02	2435.7	
344.23	4543.8	
344.43	4787.5	
344.64	3020.8	
344.85	3001.6	
345.06	4521.2	
345.26	4670.7	
345.47	2921.8	
345.68	3276.8	
345.88	4000.4	
346.09	4597.7	
346.3	2922.5	
346.5	2326.5	
346.71	4242	
346.92	4127.3	
347.12	2506.7	
347.33	2861	
347.54	4621.6	
347.74	4811.4	
347.95	2861	
348.16	2329.2	
348.36	4231.8	
348.57	4085	
348.78	2951.1	
348.98	2981.8	
349.19	4293.2	
349.39	3928	
349.6	2455.5	
349.81	2628.2	
350.01	4552.6	
350.22	4145.1	
350.43	2850.1	
350.63	3254.2	
350.84	4263.9	
351.05	4150.6	
351.25	2604.3	
351.46	2471.9	
351.67	4596.3	
351.87	4086.4	
352.08	2736.1	
352.29	2964.8	
352.49	4594.3	
352.7	4402.5	
352.9	2502.6	
353.11	3005.7	
353.32	4938.3	
353.52	4200.4	
353.73	2582.5	
353.94	3054.2	
354.14	4518.5	
354.35	4304.1	
354.55	2581.8	
354.76	2828.2	
354.97	4477.5	
355.17	4255.7	
355.38	2574.3	
355.59	3189.4	
355.79	4153.3	
356	4226.3	
356.2	2805.7	
356.41	2540.8	
356.62	4031.8	
356.82	4288.4	
357.03	3057.6	
357.24	2725.8	
357.44	4105.5	
357.65	4230.4	
357.85	3322.5	
358.06	2864.4	
358.27	3992.2	
358.47	4038.6	
358.68	2532	
358.88	2989.4	
359.09	4438.6	
359.3	4639.3	
359.5	3306.1	
359.71	3072	
359.91	4788.8	
360.12	4476.9	
360.33	2985.3	
360.53	3203	
360.74	4189.5	
360.94	4233.8	
361.15	3045.3	
361.36	2658.9	
361.56	4630.5	
361.77	4335.5	
361.97	3364.8	
362.18	2779.8	
362.38	4702.8	
362.59	4093.2	
362.8	2635.7	
363	2571.6	
363.21	4002.4	
363.41	4306.2	
363.62	2911.5	
363.83	3418.1	
364.03	4588.8	
364.24	4891.2	
364.44	3585.3	
364.65	3507.5	
364.85	4303.5	
365.06	4181.3	
365.27	2747	
365.47	2848	
365.68	4844.8	
365.88	4334.2	
366.09	2955.2	
366.29	2766.8	
366.5	4378.6	
366.71	4637.3	
366.91	3539.6	
367.12	3086.3	
367.32	5055.8	
367.53	4573.8	
367.73	3102	
367.94	3567.6	
368.14	4651.6	
368.35	4914.4	
368.56	3050.8	
368.76	2832.3	
368.97	4683	
369.17	5464	
369.38	2800.9	
369.58	2930.6	
369.79	4049.5	
369.99	4883	
370.2	3551.9	
370.4	3037.1	
370.61	4461.8	
370.82	5261.2	
371.02	2991.4	
371.23	2609.1	
371.43	4188.1	
371.64	4959.5	
371.84	2977.7	
372.05	3562.1	
372.25	5457.2	
372.46	4600.4	
372.66	2945.7	
372.87	2992.1	
373.07	4581.3	
373.28	5627.1	
373.48	3505.4	
373.69	3334.8	
373.9	4437.9	
374.1	4479.6	
374.31	3544.4	
374.51	3205.8	
374.72	4846.9	
374.92	4307.6	
375.13	3522.5	
375.33	3150.5	
375.54	4586.8	
375.74	4374.5	
375.95	3312.9	
376.15	3923.9	
376.36	4739.7	
376.56	4653	
376.77	3264.5	
376.97	3461.1	
377.18	5387.5	
377.38	4780.6	
377.59	3615.3	
377.79	3001.6	
378	4600.4	
378.2	4803.2	
378.41	3064.4	
378.61	2939.5	
378.82	4960.2	
379.02	4533.5	
379.23	3120.4	
379.43	3674.1	
379.64	5098.8	
379.84	4726.7	
380.05	3147.7	
380.25	3022.8	
380.46	4829.1	
380.66	4558.8	
380.87	3779.9	
381.07	3975.1	
381.28	5102.9	
381.48	4797	
381.69	3054.9	
381.89	3102.7	
382.1	4233.8	
382.3	4838	
382.51	3711.6	
382.71	4125.3	
382.91	4743.1	
383.12	5050.3	
383.32	3218	
383.53	3319.8	
383.73	4702.1	
383.94	4700.1	
384.14	3349.1	
384.35	2890.4	
384.55	4526.7	
384.76	4744.5	
384.96	3285.6	
385.17	3423.5	
385.37	4803.2	
385.58	4372.4	
385.78	3411.2	
385.98	2918.4	
386.19	4491.9	
386.39	4767	
386.6	3125.9	
386.8	3241.9	
387.01	4764.3	
387.21	4839.4	
387.42	3495.9	
387.62	3823.6	
387.83	4504.2	
388.03	4629.1	
388.23	3312.2	
388.44	3757.3	
388.64	4415.4	
388.85	4393.6	
389.05	3452.2	
389.26	3828.3	
389.46	5559.6	
389.67	5131.5	
389.87	3507.5	
390.07	3570.3	
390.28	4656.4	
390.48	4421.6	
390.69	3140.2	
390.89	3321.1	
391.1	4607.9	
391.3	5023	
391.5	3984	
391.71	4270	
391.91	4975.9	
392.12	5345.2	
392.32	3957.4	
392.53	3540.3	
392.73	4607.2	
392.93	4725.3	
393.14	3420.1	
393.34	3788.1	
393.55	5038	
393.75	4652.3	
393.95	3429	
394.16	3272	
394.36	4676.2	
394.57	4965.6	
394.77	3187.3	
394.98	3371.6	
395.18	4620.9	
395.38	4646.2	
395.59	3847.5	
395.79	3324.5	
396	4709.6	
396.2	4998.4	
396.4	3773	
396.61	3671.3	
396.81	5016.8	
397.02	4682.3	
397.22	3937.6	
397.42	4007.9	
397.63	5124.7	
397.83	4669.4	
398.04	3355.9	
398.24	3613.3	
398.44	4999.1	
398.65	4390.2	
398.85	3276.8	
399.05	3294.5	
399.26	4759.5	
399.46	5605.3	
399.67	3569.6	
399.87	3453.6	
400.07	4988.2	
400.28	5092.6	
400.48	3475.4	
400.69	4087.1	
400.89	5201.8	
401.09	5528.2	
401.3	3497.2	
401.5	4018.8	
401.7	5578.7	
401.91	5804.6	
402.11	3790.8	
402.32	3736.9	
402.52	5338.4	
402.72	5182.7	
402.93	3943.7	
403.13	3306.8	
403.33	5707.7	
403.54	4983.4	
403.74	3762.1	
403.94	4209.3	
404.15	5025	
404.35	5679	
404.56	3594.9	
404.76	4578.6	
404.96	5292.6	
405.17	5150.6	
405.37	4005.1	
405.57	3928.7	
405.78	5329.5	
405.98	4965.6	
406.18	3657	
406.39	4099.4	
406.59	5414.1	
406.79	5013.4	
407	3513.6	
407.2	3591.5	
407.4	5636.7	
407.61	5481.7	
407.81	3654.9	
408.01	4902.2	
408.22	4713.7	
408.42	5902.2	
408.62	4363.5	
408.83	4073.4	
409.03	5275.6	
409.23	5266.7	
409.44	4065.9	
409.64	4256.4	
409.84	5872.2	
410.05	5874.9	
410.25	4341	
410.45	4201.1	
410.66	5741.8	
410.86	7033.4	
411.06	4555.4	
411.27	4475.5	
411.47	6929	
411.67	5791.7	
411.88	4534.2	
412.08	4786.8	
412.28	6130.3	
412.49	6404	
412.69	4531.5	
412.89	4554	
413.09	6391.7	
413.3	6410.8	
413.5	4645.5	
413.7	4511.7	
413.91	5898.8	
414.11	6487.3	
414.31	4517.1	
414.52	4902.2	
414.72	6251.8	
414.92	6218.3	
415.12	4514.4	
415.33	4917.2	
415.53	6504.3	
415.73	6574.7	
415.94	5152.7	
416.14	4784.1	
416.34	5983.5	
416.55	5845.6	
416.75	5449.6	
416.95	5157.5	
417.15	6726.9	
417.36	6907.8	
417.56	5638.7	
417.76	5100.8	
417.97	6746	
418.17	6642.9	
418.37	4963.6	
418.57	4942.4	
418.78	6619.7	
418.98	6337.1	
419.18	5502.9	
419.38	5350	
419.59	6326.2	
419.79	6103.6	
419.99	4926	
420.2	5018.9	
420.4	6712.6	
420.6	6576	
420.8	4932.2	
421.01	4771.8	
421.21	6685.9	
421.41	6494.1	
421.61	5014.1	
421.82	4922.6	
422.02	6395.1	
422.22	6839.5	
422.42	5300.1	
422.63	5092.6	
422.83	6328.2	
423.03	7163.1	
423.23	5195	
423.44	4563.6	
423.64	6372.6	
423.84	6115.2	
424.04	4846.9	
424.25	4657.8	
424.45	6826.6	
424.65	6860	
424.85	4543.8	
425.06	4900.8	
425.26	7058	
425.46	6365.8	
425.66	5144.5	
425.87	5031.9	
426.07	6731	
426.27	6599.2	
426.47	5046.2	
426.67	4638.6	
426.88	7019.8	
427.08	6629.3	
427.28	5298.1	
427.48	4657.1	
427.69	6102.3	
427.89	6335.7	
428.09	5221	
428.29	4668	
428.5	6713.2	
428.7	6553.5	
428.9	4686.4	
429.1	4936.3	
429.3	6662	
429.51	6694.8	
429.71	4877.6	
429.91	5369.1	
430.11	6827.2	
430.31	6885.3	
430.52	5063.9	
430.72	5289.2	
430.92	7098.9	
431.12	6754.2	
431.32	5010	
431.53	5203.9	
431.73	6166.4	
431.93	7153.6	
432.13	4887.1	
432.33	4909	
432.54	6597.9	
432.74	6645.7	
432.94	4973.8	
433.14	5434.6	
433.34	6960.4	
433.55	6679.1	
433.75	5438.7	
433.95	6382.2	
434.15	6876.4	
434.35	6608.8	
434.56	5054.4	
434.76	4944.5	
434.96	6838.9	
435.16	7044.3	
435.36	5048.9	
435.56	5821.7	
435.77	6753.5	
435.97	6867.5	
436.17	6123.4	
436.37	5715.9	
436.57	6733	
436.78	6705	
436.98	6645	
437.18	6062.7	
437.38	7047.1	
437.58	6774.7	
437.78	6072.2	
437.99	5338.4	
438.19	7103.7	
438.39	7566.6	
438.59	5349.3	
438.79	5033.9	
438.99	7437.5	
439.2	6757.6	
439.4	4988.2	
439.6	5076.9	
439.8	6937.2	
440	7605.5	
440.2	5797.1	
440.4	5842.2	
440.61	7373.4	
440.81	7636.9	
441.01	5382.1	
441.21	5902.9	
441.41	7767.3	
441.61	7323.5	
441.81	6189.6	
442.02	6682.5	
442.22	7959.1	
442.42	7555.6	
442.62	5545.9	
442.82	5454.4	
443.02	7935.9	
443.22	7318.1	
443.43	5922	
443.63	5498.8	
443.83	7209.5	
444.03	7223.9	
444.23	6359.6	
444.43	6070.2	
444.63	7522.9	
444.83	8147.5	
445.04	5825.1	
445.24	6436.8	
445.44	7690.8	
445.64	7636.2	
445.84	6195.1	
446.04	6143.2	
446.24	7160.4	
446.44	7836.9	
446.65	5604.6	
446.85	5967.1	
447.05	7323.5	
447.25	7817.8	
447.45	5955.5	
447.65	5582.1	
447.85	7479.9	
448.05	7114	
448.25	6204.7	
448.46	6013.5	
448.66	7450.5	
448.86	7225.9	
449.06	5702.2	
449.26	6177.4	
449.46	7736.5	
449.66	7202	
449.86	6128.2	
450.06	6019.7	
450.26	7373.4	
450.47	7714.7	
450.67	6042.2	
450.87	6303	
451.07	7931.1	
451.27	7592.5	
451.47	5803.3	
451.67	6384.2	
451.87	7513.3	
452.07	8129.1	
452.27	6090.7	
452.47	5995.8	
452.67	7767.9	
452.88	7873.1	
453.08	5616.2	
453.28	6707.8	
453.48	8493.6	
453.68	7509.2	
453.88	6112.5	
454.08	6002.6	
454.28	8078.6	
454.48	7820.5	
454.68	6417.7	
454.88	6653.9	
455.08	8125.7	
455.28	7977.5	
455.48	5932.3	
455.68	6511.9	
455.89	8476.5	
456.09	8329.8	
456.29	6375.3	
456.49	6500.9	
456.69	8534.6	
456.89	7850.5	
457.09	6793.8	
457.29	7112.6	
457.49	8335.9	
457.69	8335.2	
457.89	6884.6	
458.09	6359.6	
458.29	8327	
458.49	8723	
458.69	7069.6	
458.89	6714.6	
459.09	8910	
459.29	8860.2	
459.49	6693.4	
459.69	7180.9	
459.9	8594.6	
460.1	8565.3	
460.3	6756.2	
460.5	6612.2	
460.7	8781.7	
460.9	8378.9	
461.1	6611.5	
461.3	7251.2	
461.5	9282.8	
461.7	8899.1	
461.9	7029.3	
462.1	7124.2	
462.3	8833.6	
462.5	9149.6	
462.7	7070.3	
462.9	7204.1	
463.1	9739.5	
463.3	9683.5	
463.5	7281.9	
463.7	8052.6	
463.9	9252	
464.1	9415.2	
464.3	7710.6	
464.5	7686	
464.7	9568.1	
464.9	9510.8	
465.1	8475.2	
465.3	8004.1	
465.5	9764	
465.7	9936.7	
465.9	8271.1	
466.1	7905.8	
466.3	9901.9	
466.5	9632.3	
466.7	8781.7	
466.9	8111.3	
467.1	9955.9	
467.3	10282	
467.5	8802.2	
467.7	8133.2	
467.9	10553	
468.1	11000	
468.3	8507.3	
468.5	8897.1	
468.7	9865.1	
468.9	9805.7	
469.1	8484.7	
469.3	8926.4	
469.5	11141	
469.7	9832.3	
469.9	8577.6	
470.1	8325.7	
470.3	10200	
470.5	10123	
470.7	9072.5	
470.9	8384.4	
471.1	9982.5	
471.3	10044	
471.5	8326.4	
471.69	9253.4	
471.89	9892.4	
472.09	9542.9	
472.29	8802.2	
472.49	8747.6	
472.69	9774.3	
472.89	9985.9	
473.09	8383	
473.29	8127	
473.49	9830.2	
473.69	9691	
473.89	8679.3	
474.09	8318.2	
474.29	10558	
474.49	10285	
474.69	8884.8	
474.89	8338.6	
475.09	9874.6	
475.29	9869.2	
475.49	8137.3	
475.69	8342.7	
475.88	10662	
476.08	10129	
476.28	8150.9	
476.48	8084.7	
476.68	10359	
476.88	10031	
477.08	8224.6	
477.28	8353	
477.48	9805.7	
477.68	9978.4	
477.88	8085.4	
478.08	8230.8	
478.28	10490	
478.48	9928.6	
478.67	8412.4	
478.87	7860.8	
479.07	10434	
479.27	10047	
479.47	8411	
479.67	8529.8	
479.87	10351	
480.07	10511	
480.27	8149.6	
480.47	9036.3	
480.67	9949.7	
480.87	10412	
481.06	8333.9	
481.26	8850.6	
481.46	10185	
481.66	10015	
481.86	8659.5	
482.06	9099.8	
482.26	9949.7	
482.46	10434	
482.66	8587.1	
482.86	8402.1	
483.05	10431	
483.25	9894.4	
483.45	10123	
483.65	8622.6	
483.85	10032	
484.05	10275	
484.25	8918.2	
484.45	9228.8	
484.65	10647	
484.84	10961	
485.04	8771.5	
485.24	8677.2	
485.44	11145	
485.64	10103	
485.84	8591.9	
486.04	9209.7	
486.24	10308	
486.44	10462	
486.63	8552.3	
486.83	9161.9	
487.03	10529	
487.23	10615	
487.43	8732.5	
487.63	9958.6	
487.83	10753	
488.02	10879	
488.22	9273.2	
488.42	9688.3	
488.62	11232	
488.82	10522	
489.02	9209.7	
489.22	9328.5	
489.41	11104	
489.61	11099	
489.81	8970.1	
490.01	9111.4	
490.21	11307	
490.41	11709	
490.61	9110	
490.8	9271.2	
491	10993	
491.2	10596	
491.4	9476.6	
491.6	8977.6	
491.8	10902	
491.99	10829	
492.19	8815.1	
492.39	9050	
492.59	11214	
492.79	11313	
492.99	9751.7	
493.18	9360.6	
493.38	11548	
493.58	12093	
493.78	9864.4	
493.98	9619.3	
494.18	11520	
494.37	11140	
494.57	10255	
494.77	10054	
494.97	11873	
495.17	12094	
495.37	10094	
495.56	10257	
495.76	12258	
495.96	12282	
496.16	11031	
496.36	10359	
496.55	12390	
496.75	12065	
496.95	10643	
497.15	10576	
497.35	12338	
497.54	12367	
497.74	10465	
497.94	11611	
498.14	12771	
498.34	12674	
498.53	10531	
498.73	10822	
498.93	12170	
499.13	12477	
499.33	10954	
499.52	11028	
499.72	12880	
499.92	12661	
500.12	10808	
500.32	10956	
500.51	12740	
500.71	12693	
500.91	11390	
501.11	11181	
501.31	12884	
501.5	13111	
501.7	11555	
501.9	11067	
502.1	12544	
502.29	12966	
502.49	11291	
502.69	11479	
502.89	12891	
503.09	12917	
503.28	10564	
503.48	10770	
503.68	12424	
503.88	12311	
504.07	11229	
504.27	10887	
504.47	12544	
504.67	12581	
504.86	11202	
505.06	10967	
505.26	12344	
505.46	13106	
505.65	10873	
505.85	10802	
506.05	12217	
506.25	12446	
506.44	10369	
506.64	10728	
506.84	11959	
507.04	12419	
507.23	10563	
507.43	10666	
507.63	13006	
507.83	12093	
508.02	10782	
508.22	10415	
508.42	13292	
508.62	12001	
508.81	10554	
509.01	10963	
509.21	11878	
509.4	12219	
509.6	10660	
509.8	10408	
510	12146	
510.19	12789	
510.39	10335	
510.59	10498	
510.79	12162	
510.98	12983	
511.18	10604	
511.38	10651	
511.57	12659	
511.77	12271	
511.97	11036	
512.17	10416	
512.36	12658	
512.56	12366	
512.76	10499	
512.95	10223	
513.15	12749	
513.35	11810	
513.55	11110	
513.74	10535	
513.94	12689	
514.14	12269	
514.33	11143	
514.53	11000	
514.73	12303	
514.92	12521	
515.12	10715	
515.32	10645	
515.51	12461	
515.71	12527	
515.91	11656	
516.11	10665	
516.3	13537	
516.5	12370	
516.7	11079	
516.89	11349	
517.09	12405	
517.29	12450	
517.48	11181	
517.68	10749	
517.88	12159	
518.07	12691	
518.27	11263	
518.47	10655	
518.66	12945	
518.86	12224	
519.06	10661	
519.25	10825	
519.45	12426	
519.65	13297	
519.84	11303	
520.04	11650	
520.24	13721	
520.43	12856	
520.63	11101	
520.83	10988	
521.02	12516	
521.22	12676	
521.42	10978	
521.61	11414	
521.81	12553	
522.01	12613	
522.2	11230	
522.4	10944	
522.6	13054	
522.79	12276	
522.99	11140	
523.18	10972	
523.38	13014	
523.58	13093	
523.77	12071	
523.97	11143	
524.17	14166	
524.36	13972	
524.56	12076	
524.76	11884	
524.95	13478	
525.15	13255	
525.34	11974	
525.54	11929	
525.74	13902	
525.93	13334	
526.13	12819	
526.33	12076	
526.52	14231	
526.72	13885	
526.91	12940	
527.11	12624	
527.31	14185	
527.5	14511	
527.7	12637	
527.89	12122	
528.09	13902	
528.29	14248	
528.48	12925	
528.68	12677	
528.87	14394	
529.07	14323	
529.27	12768	
529.46	12428	
529.66	14425	
529.85	14625	
530.05	12383	
530.25	12865	
530.44	15208	
530.64	14224	
530.83	12719	
531.03	12730	
531.23	14790	
531.42	14420	
531.62	13327	
531.81	12605	
532.01	14873	
532.21	14998	
532.4	12996	
532.6	13277	
532.79	15512	
532.99	15265	
533.18	13504	
533.38	14149	
533.58	15112	
533.77	15428	
533.97	13607	
534.16	13984	
534.36	15831	
534.55	15197	
534.75	14296	
534.95	13727	
535.14	16014	
535.34	15212	
535.53	13541	
535.73	14629	
535.92	16075	
536.12	15160	
536.31	13488	
536.51	14240	
536.71	15468	
536.9	15142	
537.1	13432	
537.29	13858	
537.49	15640	
537.68	15143	
537.88	14059	
538.07	13310	
538.27	15397	
538.46	15914	
538.66	13579	
538.86	13802	
539.05	15440	
539.25	15816	
539.44	14197	
539.64	13697	
539.83	15274	
540.03	15801	
540.22	13588	
540.42	13614	
540.61	15173	
540.81	15460	
541	13654	
541.2	14190	
541.39	14963	
541.59	15193	
541.78	14048	
541.98	13424	
542.18	14748	
542.37	14747	
542.57	13583	
542.76	14025	
542.96	14780	
543.15	15200	
543.35	13475	
543.54	13217	
543.74	14567	
543.93	14834	
544.13	13212	
544.32	13912	
544.52	14982	
544.71	14474	
544.91	12809	
545.1	13424	
545.3	14592	
545.49	14853	
545.69	12675	
545.88	13046	
546.08	15574	
546.27	15083	
546.47	13254	
546.66	12863	
546.86	14948	
547.05	15201	
547.24	13013	
547.44	12990	
547.63	14394	
547.83	14906	
548.02	13206	
548.22	13046	
548.41	14222	
548.61	14829	
548.8	12678	
549	12706	
549.19	14496	
549.39	14625	
549.58	12468	
549.78	12917	
549.97	14705	
550.17	14235	
550.36	13170	
550.55	13675	
550.75	14240	
550.94	14769	
551.14	12519	
551.33	12590	
551.53	13833	
551.72	14519	
551.92	12662	
552.11	12616	
552.31	14566	
552.5	14257	
552.69	13533	
552.89	12349	
553.08	14452	
553.28	14242	
553.47	12572	
553.67	13177	
553.86	14643	
554.06	13732	
554.25	12050	
554.44	12546	
554.64	15007	
554.83	14766	
555.03	12383	
555.22	12555	
555.42	14410	
555.61	14212	
555.8	12407	
556	12519	
556.19	13779	
556.39	14244	
556.58	12325	
556.78	12362	
556.97	14133	
557.16	14063	
557.36	13086	
557.55	12222	
557.75	13420	
557.94	14723	
558.13	12262	
558.33	12301	
558.52	14516	
558.72	13762	
558.91	12011	
559.1	12196	
559.3	13570	
559.49	13304	
559.69	11977	
559.88	12514	
560.07	14171	
560.27	14293	
560.46	12474	
560.66	12663	
560.85	13933	
561.04	13349	
561.24	12026	
561.43	12010	
561.63	13521	
561.82	13792	
562.01	12814	
562.21	12327	
562.4	13928	
562.59	14493	
562.79	12418	
562.98	12076	
563.18	13872	
563.37	14818	
563.56	12534	
563.76	12314	
563.95	13803	
564.14	13738	
564.34	12430	
564.53	12350	
564.73	14197	
564.92	14288	
565.11	12631	
565.31	12280	
565.5	14483	
565.69	13801	
565.89	12447	
566.08	12581	
566.27	14411	
566.47	14718	
566.66	13026	
566.85	12270	
567.05	14356	
567.24	14057	
567.44	12469	
567.63	13160	
567.82	14569	
568.02	14132	
568.21	12499	
568.4	12591	
568.6	14271	
568.79	14100	
568.98	12557	
569.18	12579	
569.37	14369	
569.56	15504	
569.76	12940	
569.95	13434	
570.14	14593	
570.34	14653	
570.53	12678	
570.72	12554	
570.91	14911	
571.11	14386	
571.3	12869	
571.49	13475	
571.69	14560	
571.88	14171	
572.07	13104	
572.27	13274	
572.46	14169	
572.65	14790	
572.85	12738	
573.04	12993	
573.23	15074	
573.43	14680	
573.62	12816	
573.81	13171	
574	14958	
574.2	14674	
574.39	13183	
574.58	13349	
574.78	15348	
574.97	14937	
575.16	13663	
575.36	13799	
575.55	15443	
575.74	15333	
575.93	13022	
576.13	13727	
576.32	14982	
576.51	15410	
576.71	13353	
576.9	14220	
577.09	15668	
577.28	15232	
577.48	13628	
577.67	13171	
577.86	15096	
578.05	15423	
578.25	13637	
578.44	13629	
578.63	15132	
578.83	15796	
579.02	13304	
579.21	14293	
579.4	15199	
579.6	15307	
579.79	13725	
579.98	14899	
580.17	15480	
580.37	15711	
580.56	13237	
580.75	14035	
580.94	15732	
581.14	15741	
581.33	14227	
581.52	13470	
581.71	15414	
581.91	15801	
582.1	13609	
582.29	13775	
582.48	15419	
582.68	15493	
582.87	14111	
583.06	13975	
583.25	15696	
583.45	15444	
583.64	14311	
583.83	14730	
584.02	15558	
584.21	15825	
584.41	14202	
584.6	13979	
584.79	15627	
584.98	15808	
585.18	13789	
585.37	13708	
585.56	15476	
585.75	15846	
585.94	13697	
586.14	14229	
586.33	15855	
586.52	15464	
586.71	14046	
586.91	13671	
587.1	14900	
587.29	15507	
587.48	13472	
587.67	13536	
587.87	15362	
588.06	15135	
588.25	14125	
588.44	13781	
588.63	14904	
588.83	15182	
589.02	13252	
589.21	13085	
589.4	14725	
589.59	14625	
589.78	12359	
589.98	12482	
590.17	13798	
590.36	13979	
590.55	11671	
590.74	12013	
590.94	14506	
591.13	13682	
591.32	11821	
591.51	11572	
591.7	13815	
591.89	13799	
592.09	11690	
592.28	12103	
592.47	13340	
592.66	14540	
592.85	11871	
593.05	12050	
593.24	13635	
593.43	14264	
593.62	12095	
593.81	12272	
594	13831	
594.19	13862	
594.39	12082	
594.58	12002	
594.77	13992	
594.96	14092	
595.15	12016	
595.34	12193	
595.54	13753	
595.73	13236	
595.92	11458	
596.11	12006	
596.3	13984	
596.49	13264	
596.68	11847	
596.88	12194	
597.07	13914	
597.26	13179	
597.45	11709	
597.64	12472	
597.83	13357	
598.02	13808	
598.22	11682	
598.41	12149	
598.6	13614	
598.79	13280	
598.98	11677	
599.17	12195	
599.36	13700	
599.55	14197	
599.74	12859	
599.94	12643	
600.13	13847	
600.32	13169	
600.51	11583	
600.7	11625	
600.89	14227	
601.08	14272	
601.27	11363	
601.47	11894	
601.66	13801	
601.85	14003	
602.04	11940	
602.23	11926	
602.42	13154	
602.61	13496	
602.8	11619	
602.99	11698	
603.18	13433	
603.37	13517	
603.57	11925	
603.76	12230	
603.95	13941	
604.14	13579	
604.33	11632	
604.52	11831	
604.71	13639	
604.9	13310	
605.09	12152	
605.28	12119	
605.47	13945	
605.66	13631	
605.86	12017	
606.05	11764	
606.24	13869	
606.43	12919	
606.62	11982	
606.81	12104	
607	13645	
607.19	13227	
607.38	11433	
607.57	11661	
607.76	13099	
607.95	12790	
608.14	11873	
608.33	12073	
608.52	13033	
608.72	13713	
608.91	11365	
609.1	11224	
609.29	13065	
609.48	12785	
609.67	11726	
609.86	11248	
610.05	12837	
610.24	12979	
610.43	11260	
610.62	10964	
610.81	13637	
611	13472	
611.19	11265	
611.38	11637	
611.57	13159	
611.76	13870	
611.95	11186	
612.14	11011	
612.33	13066	
612.52	12876	
612.71	11318	
612.9	11088	
613.09	12598	
613.28	13906	
613.47	11310	
613.66	11844	
613.85	13167	
614.04	12699	
614.24	11237	
614.43	10769	
614.62	13266	
614.81	13214	
615	11566	
615.19	11714	
615.38	12777	
615.57	13164	
615.76	11551	
615.95	12161	
616.14	13353	
616.33	13112	
616.52	11706	
616.71	11812	
616.9	13231	
617.09	13217	
617.28	11432	
617.47	12010	
617.66	12855	
617.85	12936	
618.04	12093	
618.22	11744	
618.41	13093	
618.6	13789	
618.79	11770	
618.98	11689	
619.17	14064	
619.36	12907	
619.55	11820	
619.74	11968	
619.93	13631	
620.12	13304	
620.31	12276	
620.5	12379	
620.69	13997	
620.88	14554	
621.07	12867	
621.26	12409	
621.45	14014	
621.64	13979	
621.83	12567	
622.02	12027	
622.21	14080	
622.4	13977	
622.59	12838	
622.78	12667	
622.97	13837	
623.16	14401	
623.35	12598	
623.54	12008	
623.72	13877	
623.91	13984	
624.1	12615	
624.29	11953	
624.48	14754	
624.67	14235	
624.86	12694	
625.05	12218	
625.24	14784	
625.43	13936	
625.62	13685	
625.81	12465	
626	14270	
626.19	14075	
626.38	12785	
626.56	12445	
626.75	13973	
626.94	14448	
627.13	12725	
627.32	12102	
627.51	14461	
627.7	14798	
627.89	12082	
628.08	12742	
628.27	13716	
628.46	13940	
628.65	12157	
628.83	12007	
629.02	14108	
629.21	13650	
629.4	12405	
629.59	12512	
629.78	13657	
629.97	14161	
630.16	12632	
630.35	12253	
630.54	14731	
630.72	14322	
630.91	12325	
631.1	12544	
631.29	14130	
631.48	14143	
631.67	12725	
631.86	12220	
632.05	13963	
632.24	13975	
632.42	12192	
632.61	12497	
632.8	13900	
632.99	13760	
633.18	12550	
633.37	12712	
633.56	14117	
633.75	14131	
633.93	12524	
634.12	12456	
634.31	14639	
634.5	14302	
634.69	12486	
634.88	12658	
635.07	14074	
635.25	14365	
635.44	12854	
635.63	13071	
635.82	13866	
636.01	13184	
636.2	12751	
636.39	12537	
636.57	14680	
636.76	14228	
636.95	12131	
637.14	12969	
637.33	14096	
637.52	14388	
637.7	11997	
637.89	12760	
638.08	13967	
638.27	14661	
638.46	12598	
638.65	12786	
638.83	14396	
639.02	13687	
639.21	12568	
639.4	12660	
639.59	13753	
639.78	13595	
639.96	11908	
640.15	12013	
640.34	13730	
640.53	13649	
640.72	11800	
640.91	11815	
641.09	13255	
641.28	14012	
641.47	11953	
641.66	12316	
641.85	13667	
642.03	13553	
642.22	12044	
642.41	11884	
642.6	13188	
642.79	12818	
642.97	11593	
643.16	12110	
643.35	13082	
643.54	13053	
643.73	11543	
643.91	11877	
644.1	12764	
644.29	13269	
644.48	11327	
644.67	11496	
644.85	12668	
645.04	13022	
645.23	11096	
645.42	11314	
645.6	12517	
645.79	13207	
645.98	10916	
646.17	10312	
646.36	12062	
646.54	12110	
646.73	11091	
646.92	10438	
647.11	11964	
647.29	12523	
647.48	10427	
647.67	10259	
647.86	12639	
648.05	12781	
648.23	10574	
648.42	11256	
648.61	12205	
648.8	12243	
648.98	10295	
649.17	10479	
649.36	11823	
649.55	11697	
649.73	10320	
649.92	10731	
650.11	11893	
650.3	12007	
650.48	10361	
650.67	10389	
650.86	12082	
651.05	11531	
651.23	10361	
651.42	10329	
651.61	11742	
651.79	11561	
651.98	10346	
652.17	10134	
652.36	11920	
652.54	11408	
652.73	10235	
652.92	10053	
653.11	11696	
653.29	11994	
653.48	9637.1	
653.67	10183	
653.85	11577	
654.04	12256	
654.23	10084	
654.42	9936.1	
654.6	11085	
654.79	11521	
654.98	9359.2	
655.16	9615.2	
655.35	10690	
655.54	10428	
655.73	9232.2	
655.91	8963.3	
656.1	11109	
656.29	10483	
656.47	9074.5	
656.66	9997.5	
656.85	10819	
657.03	10875	
657.22	9445.9	
657.41	9530.6	
657.59	11055	
657.78	10948	
657.97	9405	
658.16	9762	
658.34	11542	
658.53	11738	
658.72	10432	
658.9	10636	
659.09	11324	
659.28	11234	
659.46	9742.2	
659.65	9611.1	
659.84	11073	
660.02	11452	
660.21	9693.7	
660.4	9661.6	
660.58	11674	
660.77	11282	
660.96	9975.7	
661.14	9443.9	
661.33	11884	
661.52	11842	
661.7	9360.6	
661.89	11296	
662.08	11072	
662.26	10781	
662.45	9607	
662.64	9620.7	
662.82	11385	
663.01	11054	
663.2	9606.3	
663.38	9965.4	
663.57	11292	
663.75	11259	
663.94	9730.6	
664.13	10328	
664.31	10896	
664.5	11263	
664.69	9875.3	
664.87	10076	
665.06	10850	
665.25	11211	
665.43	10292	
665.62	10275	
665.8	11256	
665.99	10925	
666.18	9648	
666.36	9669.1	
666.55	11304	
666.74	11169	
666.92	9538.8	
667.11	10355	
667.29	11064	
667.48	11284	
667.67	10128	
667.85	9488.2	
668.04	10917	
668.22	10861	
668.41	9687.6	
668.6	9753.1	
668.78	10751	
668.97	10937	
669.15	9770.2	
669.34	9291	
669.53	10845	
669.71	11065	
669.9	9324.4	
670.08	9602.2	
670.27	10707	
670.46	11065	
670.64	9839.1	
670.83	9964.1	
671.01	10540	
671.2	10929	
671.38	9489.6	
671.57	9269.1	
671.76	11369	
671.94	11688	
672.13	9212.4	
672.31	9787.9	
672.5	11215	
672.69	10713	
672.87	9429.5	
673.06	9628.2	
673.24	11114	
673.43	10902	
673.61	9609.1	
673.8	9460.9	
673.98	10933	
674.17	11145	
674.36	9808.4	
674.54	9822.1	
674.73	10740	
674.91	11222	
675.1	9613.8	
675.28	9291	
675.47	10853	
675.65	11202	
675.84	9435	
676.03	9651.4	
676.21	10811	
676.4	10348	
676.58	9982.5	
676.77	9784.5	
676.95	11607	
677.14	10673	
677.32	9157.8	
677.51	9222	
677.69	11188	
677.88	10638	
678.06	9192	
678.25	9379	
678.44	10903	
678.62	10739	
678.81	9192	
678.99	9757.2	
679.18	11348	
679.36	11075	
679.55	9503.3	
679.73	9680.1	
679.92	10976	
680.1	10707	
680.29	10144	
680.47	9357.9	
680.66	10810	
680.84	11100	
681.03	9065.7	
681.21	9719.7	
681.4	10747	
681.58	10593	
681.77	9204.3	
681.95	9242.5	
682.14	11043	
682.32	11220	
682.51	9721.7	
682.69	9012.4	
682.88	10548	
683.06	10701	
683.25	9545.6	
683.43	9764	
683.62	10761	
683.8	10966	
683.99	9707.4	
684.17	9341.5	
684.36	11331	
684.54	10421	
684.73	8698.4	
684.91	8725	
685.1	10406	
685.28	9788.6	
685.46	8617.2	
685.65	8553.7	
685.83	9895.1	
686.02	9553.1	
686.2	8110.6	
686.39	8196.7	
686.57	9474.6	
686.76	10370	
686.94	8310.7	
687.13	8427.4	
687.31	10043	
687.5	9783.1	
687.68	8136.6	
687.86	8791.9	
688.05	10948	
688.23	9572.9	
688.42	8857.5	
688.6	8551	
688.79	9957.9	
688.97	9865.7	
689.16	8780.3	
689.34	8197.3	
689.52	10497	
689.71	10631	
689.89	9097.8	
690.08	8785.1	
690.26	10337	
690.45	10203	
690.63	9067	
690.81	8794.7	
691	10216	
691.18	10124	
691.37	8903.9	
691.55	9941.5	
691.74	9897.2	
691.92	11097	
692.1	8739.4	
692.29	8357.1	
692.47	10154	
692.66	9678	
692.84	8512	
693.02	8694.3	
693.21	9732.6	
693.39	10078	
693.58	9000.8	
693.76	8638.3	
693.94	10779	
694.13	10683	
694.31	8852.7	
694.5	9372.9	
694.68	10090	
694.86	10423	
695.05	9206.3	
695.23	9316.2	
695.42	10764	
695.6	11934	
695.78	9503.9	
695.97	8910	
696.15	10727	
696.34	10359	
696.52	8825.4	
696.7	9235.7	
696.89	10445	
697.07	10049	
697.25	9133.3	
697.44	9925.1	
697.62	10415	
697.81	10426	
697.99	8837	
698.17	9184.5	
698.36	9883.5	
698.54	10400	
698.72	9094.3	
698.91	8383.7	
699.09	10092	
699.28	9812.5	
699.46	8760.5	
699.64	8660.9	
699.83	9985.2	
700.01	10359	
700.19	9131.9	
700.38	8314.8	
700.56	10440	
700.74	9978.4	
700.93	8437.6	
701.11	8947.6	
701.29	10288	
701.48	10981	
701.66	8671.1	
701.84	8788.5	
702.03	10238	
702.21	10696	
702.39	8434.2	
702.58	8958.5	
702.76	10514	
702.94	10487	
703.13	8442.4	
703.31	9945.6	
703.49	10113	
703.68	10585	
703.86	8605.6	
704.04	9127.1	
704.23	10277	
704.41	10515	
704.59	8747.6	
704.78	9310.7	
704.96	11238	
705.14	10330	
705.33	8626.7	
705.51	8976.9	
705.69	10064	
705.87	10589	
706.06	9148.3	
706.24	8534.6	
706.42	10255	
706.61	10475	
706.79	9058.8	
706.97	8383	
707.16	9900.6	
707.34	10266	
707.52	9021.3	
707.7	8556.4	
707.89	9998.9	
708.07	9785.9	
708.25	9090.3	
708.44	9127.1	
708.62	9853.5	
708.8	10539	
708.98	9166.7	
709.17	8600.1	
709.35	10019	
709.53	9997.5	
709.72	8396	
709.9	8359.8	
710.08	10181	
710.26	10182	
710.45	9127.8	
710.63	8348.2	
710.81	9812.5	
710.99	9947.7	
711.18	8692.3	
711.36	8303.1	
711.54	9721	
711.72	9981.8	
711.91	8359.1	
712.09	7942	
712.27	9615.9	
712.45	9891.7	
712.64	8284	
712.82	7648.5	
713	9142.1	
713.18	9095.7	
713.37	7565.9	
713.55	8118.8	
713.73	9423.4	
713.91	8531.2	
714.1	7468.9	
714.28	6997.2	
714.46	8716.2	
714.64	8178.2	
714.83	6367.1	
715.01	6599.9	
715.19	7917.4	
715.37	7335.8	
715.55	6148.7	
715.74	6251.8	
715.92	8118.1	
716.1	6935.1	
716.28	6889.4	
716.47	6223.1	
716.65	7343.3	
716.83	7322.2	
717.01	6078.4	
717.19	6120.7	
717.38	8451.3	
717.56	6987.7	
717.74	6234.7	
717.92	5737.7	
718.1	7886	
718.29	7448.5	
718.47	5685.2	
718.65	6113.9	
718.83	8076.5	
719.01	8084	
719.2	5961.6	
719.38	6582.9	
719.56	8135.2	
719.74	8930.5	
719.92	6481.8	
720.11	6998.6	
720.29	8093.6	
720.47	7482.6	
720.65	5954.8	
720.83	6370.5	
721.02	7497.6	
721.2	7310.6	
721.38	6160.3	
721.56	5646.2	
721.74	6838.2	
721.92	6910.5	
722.11	6300.2	
722.29	6168.5	
722.47	7548.1	
722.65	7151.5	
722.83	5633.3	
723.01	6106.4	
723.2	7088	
723.38	7322.2	
723.56	5260.5	
723.74	5909.8	
723.92	6790.4	
724.1	7397.3	
724.29	5638.1	
724.47	6251.1	
724.65	6970.6	
724.83	6764.4	
725.01	5517.2	
725.19	5891.3	
725.37	6769.2	
725.56	6769.9	
725.74	5396.4	
725.92	5503.6	
726.1	6797.2	
726.28	6939.9	
726.46	5699.5	
726.64	5486.5	
726.83	6939.9	
727.01	6993.8	
727.19	5399.8	
727.37	5801.9	
727.55	7052.5	
727.73	7301.7	
727.91	5349.3	
728.09	5203.2	
728.28	7275.8	
728.46	7288.7	
728.64	5815.5	
728.82	5753.4	
729	7843	
729.18	7573.4	
729.36	5427.1	
729.54	6680.5	
729.72	8116.8	
729.91	7184.3	
730.09	6630.6	
730.27	5997.8	
730.45	7191.1	
730.63	7572.7	
730.81	6234	
730.99	5847	
731.17	7990.5	
731.35	7084.6	
731.53	6118.6	
731.71	5913.9	
731.9	7638.9	
732.08	7728.4	
732.26	6015.6	
732.44	5674.2	
732.62	7762.5	
732.8	7381.6	
732.98	6133.7	
733.16	5644.2	
733.34	7376.8	
733.52	6615.6	
733.7	5774.6	
733.88	5924.8	
734.07	7210.9	
734.25	7144	
734.43	5498.1	
734.61	6324.8	
734.79	8081.3	
734.97	7038.2	
735.15	5560.2	
735.33	5728.2	
735.51	7211.6	
735.69	7068.2	
735.87	6326.2	
736.05	5840.1	
736.23	7141.9	
736.41	6886	
736.59	5698.8	
736.77	5756.8	
736.95	7336.5	
737.13	6993.1	
737.32	5560.9	
737.5	5612.1	
737.68	7710.6	
737.86	6881.2	
738.04	5420.3	
738.22	6284.5	
738.4	6763.1	
738.58	6990.4	
738.76	5636	
738.94	5055.8	
739.12	6821.8	
739.3	6795.2	
739.48	5963.7	
739.66	5814.2	
739.84	6934.4	
740.02	6906.4	
740.2	5188.2	
740.38	5250.3	
740.56	7089.4	
740.74	6378.7	
740.92	5631.9	
741.1	5467.4	
741.28	6754.9	
741.46	6595.8	
741.64	5323.4	
741.82	5576.6	
742	6715.3	
742.18	6609.5	
742.36	5324.7	
742.54	5156.8	
742.72	6998.6	
742.9	6141.9	
743.08	5493.3	
743.26	4816.1	
743.44	6974.7	
743.62	6820.4	
743.8	5599.1	
743.98	4999.1	
744.16	6686.6	
744.34	6513.2	
744.52	5383.4	
744.7	5409.4	
744.88	6710.5	
745.06	6459.3	
745.24	5444.2	
745.42	5370.5	
745.6	6809.5	
745.78	6599.2	
745.96	4695.3	
746.14	4848.9	
746.32	7096.9	
746.5	6515.3	
746.68	5085.1	
746.86	4770.4	
747.03	6678.4	
747.21	5898.1	
747.39	5080.3	
747.57	4758.8	
747.75	6314.6	
747.93	6483.9	
748.11	4728.1	
748.29	4664.6	
748.47	7312.6	
748.65	6124.1	
748.83	5070.1	
749.01	4913.1	
749.19	6426.5	
749.37	5896.1	
749.55	4827.7	
749.73	4916.5	
749.91	6290	
750.09	6146	
750.26	4872.8	
750.44	4474.8	
750.62	6219	
750.8	6192.4	
750.98	4494.6	
751.16	4644.1	
751.34	6315.9	
751.52	5803.3	
751.7	5116.5	
751.88	4451.6	
752.06	6535.8	
752.24	6305.7	
752.42	4354	
752.59	4590.9	
752.77	6075.6	
752.95	6767.2	
753.13	4978.6	
753.31	4716.5	
753.49	5870.2	
753.67	6145.3	
753.85	4728.8	
754.03	4434.5	
754.21	6191.7	
754.38	6325.5	
754.56	4463.9	
754.74	3859.7	
754.92	5666.7	
755.1	5905.7	
755.28	3734.8	
755.46	3698.6	
755.64	6247.7	
755.82	6184.9	
755.99	3540.9	
756.17	3497.2	
756.35	4470.7	
756.53	5193	
756.71	2730.6	
756.89	3519.1	
757.07	4967	
757.25	4524	
757.42	3645.4	
757.6	4154	
757.78	5162.2	
757.96	4664.6	
758.14	3550.5	
758.32	3296.5	
758.5	4343.7	
758.67	4792.9	
758.85	3381.9	
759.03	3465.2	
759.21	4965.6	
759.39	4530.1	
759.57	3160.7	
759.75	3836.5	
759.92	5384.1	
760.1	5001.8	
760.28	4104.1	
760.46	4206.5	
760.64	4964.3	
760.82	4862.6	
760.99	4106.2	
761.17	3646.7	
761.35	5484.5	
761.53	4816.1	
761.71	3845.4	
761.89	4198.3	
762.06	5421.7	
762.24	5111.7	
762.42	3863.2	
762.6	3775.8	
762.78	5195	
762.96	5508.4	
763.13	4169.7	
763.31	3932.8	
763.49	5631.2	
763.67	5154.7	
763.85	4409.3	
764.02	4706.2	
764.2	5890	
764.38	5219.6	
764.56	3861.1	
764.74	4349.2	
764.91	5799.2	
765.09	5111	
765.27	3754.6	
765.45	3564.1	
765.63	5897.5	
765.8	5723.4	
765.98	3476.1	
766.16	3586	
766.34	4859.1	
766.52	4723.3	
766.69	4111.6	
766.87	3526.6	
767.05	5164.3	
767.23	5539.1	
767.41	3704.8	
767.58	3812.6	
767.76	5495.4	
767.94	5477	
768.12	3677.5	
768.29	4040.6	
768.47	5043.5	
768.65	5537.7	
768.83	3386	
769	4035.9	
769.18	4891.9	
769.36	5219.6	
769.54	3992.9	
769.72	3398.9	
769.89	5459.9	
770.07	5388.9	
770.25	3643.3	
770.43	4263.9	
770.6	5796.4	
770.78	5974.6	
770.96	3658.4	
771.14	3952.6	
771.31	5332.9	
771.49	4935.6	
771.67	3183.9	
771.85	3269.9	
772.02	4452.3	
772.2	4873.5	
772.38	3711.6	
772.55	3355.3	
772.73	5069.4	
772.91	4858.5	
773.09	3575.1	
773.26	3678.2	
773.44	4998.4	
773.62	4836.6	
773.8	3334.8	
773.97	3194.1	
774.15	4975.9	
774.33	4810.7	
774.5	3240.6	
774.68	3396.9	
774.86	5102.2	
775.04	4825.7	
775.21	3281.5	
775.39	3220.1	
775.57	4945.8	
775.74	5049.6	
775.92	3130	
776.1	3057.6	
776.27	4853	
776.45	5573.2	
776.63	3264.5	
776.81	2980.5	
776.98	4716.5	
777.16	5263.3	
777.34	3276.8	
777.51	3407.8	
777.69	4702.8	
777.87	4481	
778.04	3332	
778.22	3498.6	
778.4	4563.6	
778.57	4884.4	
778.75	2883.5	
778.93	2979.8	
779.1	4477.5	
779.28	4283	
779.46	2866.5	
779.64	3064.4	
779.81	4961.5	
779.99	5410.7	
780.17	3478.1	
780.34	3595.6	
780.52	4648.2	
780.69	4747.9	
780.87	3288.4	
781.05	3046	
781.22	4732.2	
781.4	4653	
781.58	3117.7	
781.75	2584.5	
781.93	4717.8	
782.11	4177.9	
782.28	3610.6	
782.46	3074	
782.64	4172.4	
782.81	4805.2	
782.99	3183.2	
783.17	3024.2	
783.34	4623.6	
783.52	4325.3	
783.69	3113.6	
783.87	3595.6	
784.05	4358.8	
784.22	4252.9	
784.4	3636.5	
784.58	3194.8	
784.75	4924.7	
784.93	4385.4	
785.1	3025.5	
785.28	3323.2	
785.46	4715.8	
785.63	4233.2	
785.81	2987.3	
785.99	2904.7	
786.16	4432.5	
786.34	4504.2	
786.51	2949.1	
786.69	3198.9	
786.87	4079.6	
787.04	4380.6	
787.22	2845.3	
787.39	3416	
787.57	4265.9	
787.75	4815.5	
787.92	3549.1	
788.1	3429.7	
788.27	4179.9	
788.45	3930.7	
788.63	3300	
788.8	2548.4	
788.98	4485.1	
789.15	3913.7	
789.33	2707.4	
789.5	2924.5	
789.68	4717.8	
789.86	4831.8	
790.03	3254.2	
790.21	2874	
790.38	4825.7	
790.56	4336.9	
790.73	2850.8	
790.91	2818	
791.09	4257	
791.26	4575.2	
791.44	3054.2	
791.61	2624.8	
791.79	4199.7	
791.96	4198.3	
792.14	2682.2	
792.32	2513.5	
792.49	4207.9	
792.67	4298	
792.84	2781.1	
793.02	2635.1	
793.19	4501.4	
793.37	4823	
793.54	2517	
793.72	2659.6	
793.89	4872.1	
794.07	4182	
794.25	3022.1	
794.42	2514.2	
794.6	4734.2	
794.77	4495.3	
794.95	3162.7	
795.12	2801.6	
795.3	4190.8	
795.47	4481	
795.65	3113.6	
795.82	2902	
796	4028.4	
796.17	5087.2	
796.35	2903.3	
796.52	3319.8	
796.7	4534.2	
796.87	4549.9	
797.05	2912.9	
797.22	3277.4	
797.4	4558.8	
797.57	5081.7	
797.75	3016.7	
797.92	2799.6	
798.1	4775.9	
798.27	3975.8	
798.45	2538.8	
798.62	2658.3	
798.8	4323.9	
798.97	4571.7	
799.15	3041.2	
799.32	2957.9	
799.5	3905.5	
799.67	4280.9	
799.85	3151.1	
800.02	2451.4	
800.2	4134.2	
800.37	4246.1	
800.55	3188.7	
800.72	2805.7	
800.9	4599.1	
801.07	4809.3	
801.25	3525.2	
801.42	3060.3	
801.6	4633.2	
801.77	4253.6	
801.95	2883.5	
802.12	2756.6	
802.29	4433.9	
802.47	4323.9	
802.64	3020.1	
802.82	2463.7	
802.99	4088.4	
803.17	4584	
803.34	2977.7	
803.52	2739.5	
803.69	4973.8	
803.87	3967.6	
804.04	2913.6	
804.21	2905.4	
804.39	4786.1	
804.56	4154.6	
804.74	2594.8	
804.91	2966.8	
805.09	4122.6	
805.26	4090.5	
805.44	2631	
805.61	2805.7	
805.78	4486.4	
805.96	4490.5	
806.13	3003.7	
806.31	3144.3	
806.48	3805.1	
806.66	4151.2	
806.83	3002.3	
807	2891.7	
807.18	4113.7	
807.35	4290.5	
807.53	2869.2	
807.7	2467.1	
807.87	4771.8	
808.05	4057.7	
808.22	3067.2	
808.4	2480.8	
808.57	4009.9	
808.74	3855	
808.92	2723.1	
809.09	3319.1	
809.27	4082.3	
809.44	4369	
809.61	2471.2	
809.79	2637.8	
809.96	4880.3	
810.14	4382.7	
810.31	2400.9	
810.48	3084.9	
810.66	4138.3	
810.83	4468	
811.01	2728.6	
811.18	2919.7	
811.35	4544.4	
811.53	3724.6	
811.7	3157.3	
811.87	2988.7	
812.05	4233.2	
812.22	4077.5	
812.39	2662.4	
812.57	2594.8	
812.74	4169	
812.92	5046.2	
813.09	2902.7	
813.26	2962	
813.44	4911.7	
813.61	4020.2	
813.78	2435	
813.96	3065.1	
814.13	4151.9	
814.3	3974.4	
814.48	3233.7	
814.65	2790	
814.82	4820.9	
815	3867.2	
815.17	2841.2	
815.34	3296.5	
815.52	4014.7	
815.69	3996.3	
815.87	2780.5	
816.04	2785.9	
816.21	4054.3	
816.38	3786	
816.56	2788.7	
816.73	2629.6	
816.9	4973.8	
817.08	4468	
817.25	2676.7	
817.42	3108.1	
817.6	3861.1	
817.77	4009.2	
817.94	2887	
818.12	2631	
818.29	3939.6	
818.46	5330.9	
818.64	2742.9	
818.81	2542.2	
818.98	3990.1	
819.16	5094.7	
819.33	3065.8	
819.5	2867.2	
819.67	4257	
819.85	4633.2	
820.02	2845.3	
820.19	2877.4	
820.37	4246.8	
820.54	4018.1	
820.71	2866.5	
820.88	3468.6	
821.06	4207.9	
821.23	3940.3	
821.4	2919	
821.58	2855.6	
821.75	4464.6	
821.92	4173.1	
822.09	2471.9	
822.27	2603	
822.44	4063.2	
822.61	4033.8	
822.79	2465.8	
822.96	4098.7	
823.13	4259.1	
823.3	3870.7	
823.48	2721.1	
823.65	2472.6	
823.82	4553.3	
823.99	3921.9	
824.17	3347.1	
824.34	2527.2	
824.51	5037.3	
824.68	4080.2	
824.86	2669.9	
825.03	2885.6	
825.2	4067.3	
825.37	4698	
825.55	2649.4	
825.72	2811.2	
825.89	4942.4	
826.06	4700.8	
826.24	2762	
826.41	2814.6	
826.58	4758.8	
826.75	4266.6	
826.92	2347.7	
827.1	2525.8	
827.27	6025.8	
827.44	4987.5	
827.61	2689.7	
827.79	3104.7	
827.96	4041.3	
828.13	3999	
828.3	2818.7	
828.47	2423.4	
828.65	4371	
828.82	4290.5	
828.99	3312.2	
829.16	2969.6	
829.34	4590.2	
829.51	4456.4	
829.68	2775	
829.85	2835.8	
830.02	4823	
830.2	4547.2	
830.37	2301.2	
830.54	3220.8	
830.71	4995	
830.88	4150.5	
831.05	2271.9	
831.23	2606.4	
831.4	4883	
831.57	5141.1	
831.74	2684.2	
831.91	2377.7	
832.09	4430.4	
832.26	4510.3	
832.43	2639.1	
832.6	2984.6	
832.77	4319.2	
832.94	4777.2	
833.12	2275.3	
833.29	2652.1	
833.46	4379.2	
833.63	5291.3	
833.8	2921.1	
833.97	2686.3	
834.15	4595.6	
834.32	4493.2	
834.49	2800.3	
834.66	2824.1	
834.83	4515.1	
835	4000.4	
835.17	2634.4	
835.35	2626.9	
835.52	4504.8	
835.69	4373.1	
835.86	2750.4	
836.03	2345.6	
836.2	4531.5	
836.37	4302.1	
836.55	2678.7	
836.72	2480.8	
836.89	4296	
837.06	4593.6	
837.23	2704	
837.4	2904	
837.57	5018.9	
837.75	5309	
837.92	2524.5	
838.09	2619.4	
838.26	4304.1	
838.43	4642.1	
838.6	2794.1	
838.77	2560	
838.94	5077.6	
839.11	4971.1	
839.29	2729.3	
839.46	2211.1	
839.63	4595.6	
839.8	4358.1	
839.97	2663	
840.14	2568.8	
840.31	4474.1	
840.48	4566.3	
840.65	2304	
840.82	2633.7	
841	4500.1	
841.17	4378.6	
841.34	2413.2	
841.51	2529.2	
841.68	4461.2	
841.85	4308.2	
842.02	2521	
842.19	2170.8	
842.36	4375.8	
842.53	4425	
842.7	2508.8	
842.87	2835.8	
843.05	5347.2	
843.22	4321.2	
843.39	2400.2	
843.56	2512.9	
843.73	4283	
843.9	4607.2	
844.07	3619.4	
844.24	3057.6	
844.41	5724.1	
844.58	4064.5	
844.75	2378.4	
844.92	2540.2	
845.09	4512.4	
845.26	4558.1	
845.43	2446	
845.6	2610.5	
845.77	4510.3	
845.94	4312.3	
846.12	2643.9	
846.29	2748.4	
846.46	4693.9	
846.63	4498.7	
846.8	2468.5	
846.97	2861	
847.14	4738.3	
847.31	4493.9	
847.48	2672.6	
847.65	2884.9	
847.82	4461.8	
847.99	4588.8	
848.16	3044	
848.33	2873.3	
848.5	4143.7	
848.67	4767.7	
848.84	2424.8	
849.01	2534.7	
849.18	4212	
849.35	4011.3	
849.52	2957.3	
849.69	2393.4	
849.86	4666.6	
850.03	4644.8	
850.2	2506.7	
850.37	2823.5	
850.54	4657.1	
850.71	4222.2	
850.88	2853.5	
851.05	2385.2	
851.22	4414.7	
851.39	4780	
851.56	2299.2	
851.73	2740.9	
851.9	4062.5	
852.07	4605.9	
852.24	2698.5	
852.41	2433	
852.58	4450.2	
852.75	4143	
852.92	2633.7	
853.09	2387.9	
853.26	4066.6	
853.43	4709	
853.6	2501.9	
853.77	2151.7	
853.94	4749.2	
854.11	3979.2	
854.28	3355.9	
854.44	2570.9	
854.61	4992.9	
854.78	4633.9	
854.95	2400.2	
855.12	2923.1	
855.29	3803.8	
855.46	4907.6	
855.63	2452.8	
855.8	3190.1	
855.97	4183.3	
856.14	4707.6	
856.31	3276.8	
856.48	2620	
856.65	4286.4	
856.82	3990.8	
856.99	2402.9	
857.16	2626.2	
857.33	5150.6	
857.49	4303.5	
857.66	2533.3	
857.83	2692.4	
858	4334.2	
858.17	4396.3	
858.34	2329.2	
858.51	2463.7	
858.68	4851	
858.85	4827.1	
859.02	2719.7	
859.19	2819.4	
859.36	4082.3	
859.52	3989.4	
859.69	2435	
859.86	2768.2	
860.03	4052.2	
860.2	4791.6	
860.37	2273.9	
860.54	2447.3	
860.71	4539	
860.88	4827.7	
861.05	2562	
861.21	2950.4	
861.38	4782.7	
861.55	3874.1	
861.72	2299.9	
861.89	2684.9	
862.06	4560.1	
862.23	4820.2	
862.4	2377.7	
862.56	2471.2	
862.73	4536.3	
862.9	4358.1	
863.07	2731.3	
863.24	2316.3	
863.41	4018.1	
863.58	4031.8	
863.75	2450.1	
863.91	2718.3	
864.08	4721.3	
864.25	4567.7	
864.42	2908.1	
864.59	3166.2	
864.76	4954.7	
864.93	4053.6	
865.09	2355.8	
865.26	2577.7	
865.43	4771.1	
865.6	4963.6	
865.77	2225.5	
865.94	2407.7	
866.1	4737	
866.27	4483.7	
866.44	3404.4	
866.61	2334	
866.78	4285	
866.95	4557.4	
867.11	2429.6	
867.28	2236.4	
867.45	4758.8	
867.62	4016.7	
867.79	2687.6	
867.96	2387.9	
868.12	4015.4	
868.29	4526	
868.46	2458.9	
868.63	3078.1	
868.8	4675.5	
868.97	4509.6	
869.13	2511.5	
869.3	2522.4	
869.47	4444.1	
869.64	4633.2	
869.81	2416.6	
869.97	2446	
870.14	4390.8	
870.31	4786.1	
870.48	2371.5	
870.65	2889	
870.81	4338.3	
870.98	4257	
871.15	2674	
871.32	2517.6	
871.48	4517.8	
871.65	4887.8	
871.82	2388.6	
871.99	2609.8	
872.16	5083.1	
872.32	4730.1	
872.49	2487.6	
872.66	2452.1	
872.83	4566.3	
872.99	4078.9	
873.16	2731.3	
873.33	2494.4	
873.5	4354	
873.67	4440	
873.83	2617.3	
874	3093.1	
874.17	4475.5	
874.34	4953.4	
874.5	2987.3	
874.67	2863.1	
874.84	4741.7	
875.01	3889.1	
875.17	3173	
875.34	2408.4	
875.51	4388.1	
875.68	5128.8	
875.84	2831.7	
876.01	3274	
876.18	4513.7	
876.34	4502.1	
876.51	2410.5	
876.68	2387.2	
876.85	4161.5	
877.01	4794.3	
877.18	3248.1	
877.35	2383.8	
877.52	4471.4	
877.68	4032.5	
877.85	2435.7	
878.02	2410.5	
878.18	4197.7	
878.35	4175.1	
878.52	2050	
878.69	2792.7	
878.85	4655.7	
879.02	4467.3	
879.19	3223.5	
879.35	2564.1	
879.52	4573.1	
879.69	4541.7	
879.86	2160.6	
880.02	2657.6	
880.19	4300.1	
880.36	5000.5	
880.52	2650.8	
880.69	2792.7	
880.86	4625.7	
881.02	4597	
881.19	2638.5	
881.36	2542.2	
881.52	4519.9	
881.69	4158.7	
881.86	2670.6	
882.02	2568.2	
882.19	4695.3	
882.36	5253	
882.52	2453.5	
882.69	3187.3	
882.86	4401.8	
883.02	4419.5	
883.19	2816.6	
883.36	2674.6	
883.52	4578.6	
883.69	5066.7	
883.86	2454.1	
884.02	2228.9	
884.19	4515.1	
884.36	4367.6	
884.52	2672.6	
884.69	2594.1	
884.86	4268	
885.02	4819.6	
885.19	2572.9	
885.36	2694.4	
885.52	4217.5	
885.69	4450.2	
885.86	3274	
886.02	2953.2	
886.19	4589.5	
886.35	4173.8	
886.52	2631.6	
886.69	3177.1	
886.85	4104.1	
887.02	4681	
887.19	4681	
887.35	4681	
887.52	4681	
887.68	4681	
887.85	4681	
888.02	4681	
888.18	4681	
888.35	4681	
888.51	4681	
888.68	4681	
888.85	4681	
889.01	4681	
889.18	4681	
889.35	4681	
889.51	4681	
889.68	4681	
889.84	4681	
890.01	4681	
890.17	4681	
890.34	4681	
890.51	4681	
890.67	4681	
890.84	4681	
891	4681	
891.17	4681	
891.34	4681	
891.5	4681	
891.67	4681	
891.83	4681	
892	4681	
892.16	4681	
892.33	4681	
892.5	4681	
892.66	4681	
892.83	4681	
892.99	4681	
893.16	4681	
893.32	4681	
893.49	4681	
893.65	4681	
893.82	4681	
893.99	4681	
894.15	4681	
894.32	4681	
894.48	4681	
894.65	4681	
894.81	4681	
894.98	4681	
895.14	4681	
895.31	4681	
895.47	4681	
895.64	4681	
895.81	4681	
895.97	4681	
896.14	4681	
896.3	4681	
896.47	4681	
896.63	4681	
896.8	4681	
896.96	4681	
897.13	4681	
897.29	4681	
897.46	4681	
897.62	4681	
897.79	4681	
897.95	4681	
898.12	4681	
898.28	4681	
898.45	4681	
898.61	4681	
898.78	4681	
898.94	4681	
899.11	4681	
899.27	4681	
899.44	4681	
899.6	4681	
899.77	4681	
899.93	4681	
900.1	4681	
900.26	4681	
900.43	4681	
900.59	4681	
900.76	4681	
900.92	4681	
901.09	4681	
901.25	4681	
901.42	4681	
901.58	4681	
901.75	4681	
901.91	4681	
902.07	4681	
902.24	4681	
902.4	4681	
902.57	4681	
902.73	4681	
902.9	4681	
903.06	4681	
903.23	4681	
903.39	4681	
903.56	4681	
903.72	4681	
903.88	4681	
904.05	4681	
904.21	4681	
904.38	4681	
904.54	4681	
904.71	4681	
904.87	4681	
905.03	4681	
905.2	4681	
905.36	4681	
905.53	4681	
905.69	4681	
905.86	4681	
906.02	4681	
906.18	4681	
906.35	4681	
906.51	4681	
906.68	4681	
906.84	4681	
907.01	4681	
907.17	4681	
907.33	4681	
907.5	4681	
907.66	4681	
907.83	4681	
907.99	4681	
908.15	4681	
908.32	4681	
908.48	4681	
908.65	4681	
908.81	4681	
908.97	4681	
909.14	4681	
909.3	4681	
909.47	4681	
909.63	4681	
909.79	4681	
909.96	4681	
910.12	4681	
910.28	4681	
910.45	4681	
910.61	4681	
910.78	4681	
910.94	4681	
911.1	4681	
911.27	4681	
911.43	4681	
911.59	4681	
911.76	4681	
911.92	4681	
912.08	4681	
912.25	4681	
912.41	4681	
912.57	4681	
912.74	4681	
912.9	4681	
913.07	4681	
913.23	4681	
913.39	4681	
913.56	4681	
913.72	4681	
913.88	4681	
914.05	4681	
914.21	4681	
914.37	4681	
914.54	4681	
914.7	4681	
914.86	4681	
915.03	4681	
915.19	4681	
