Wavelength	Intensities	
nm	a.u.	
179.22	1908.7	
179.44	1912.1	
179.65	1905.3	
179.86	1918.9	
180.08	1928.5	
180.29	5102.9	
180.51	3545	
180.72	5682.4	
180.94	6688.7	
181.15	3305.4	
181.37	3268.6	
181.58	5569.8	
181.79	5909.8	
182.01	3438.5	
182.22	3721.2	
182.44	5892.7	
182.65	4916.5	
182.87	4668.7	
183.08	4106.9	
183.29	6179.4	
183.51	5117.2	
183.72	3778.5	
183.94	5464.7	
184.15	5543.2	
184.37	5543.9	
184.58	3221.5	
184.79	4546.5	
185.01	5145.2	
185.22	5934.3	
185.44	4786.1	
185.65	4002.4	
185.86	5436	
186.08	5018.2	
186.29	3198.9	
186.51	3499.3	
186.72	5147.2	
186.94	6102.9	
187.15	4037.9	
187.36	4211.3	
187.58	8007.6	
187.79	5556.8	
188.01	4319.2	
188.22	6728.3	
188.43	6786.3	
188.65	5890	
188.86	3447.4	
189.08	4126.7	
189.29	5354.1	
189.5	5354.1	
189.72	3826.3	
189.93	3925.3	
190.15	6112.5	
190.36	7314	
190.57	4199	
190.79	4130.1	
191	6238.1	
191.22	6201.2	
191.43	4243.4	
191.64	3447.4	
191.86	6406.7	
192.07	6182.8	
192.29	3593.5	
192.5	3858.4	
192.71	6152.8	
192.93	5224.4	
193.14	3821.5	
193.35	3893.9	
193.57	5291.3	
193.78	6068.8	
194	3136.1	
194.21	3725.3	
194.42	5033.9	
194.64	5498.1	
194.85	4164.2	
195.07	4891.2	
195.28	5540.4	
195.49	4830.5	
195.71	5133.6	
195.92	3612.6	
196.13	5696.1	
196.35	5846.3	
196.56	5504.9	
196.78	4163.5	
196.99	7249.1	
197.2	6820.4	
197.42	4785.4	
197.63	4171	
197.84	4977.9	
198.06	5731.6	
198.27	3820.1	
198.48	5156.8	
198.7	5326.1	
198.91	5423	
199.13	4189.5	
199.34	4198.3	
199.55	5961.6	
199.77	4777.2	
199.98	3723.9	
200.19	4261.1	
200.41	5416.2	
200.62	5096	
200.83	4360.8	
201.05	4709	
201.26	5414.8	
201.47	5151.3	
201.69	3657.7	
201.9	3589.4	
202.11	5469.4	
202.33	6565.1	
202.54	3960.8	
202.76	4482.3	
202.97	5616.9	
203.18	5677.7	
203.4	4413.4	
203.61	4283.7	
203.82	5536.3	
204.04	5190.2	
204.25	4300.1	
204.46	4172.4	
204.68	5567.7	
204.89	5876.3	
205.1	4078.9	
205.32	3532.1	
205.53	5973.9	
205.74	6129.6	
205.96	3052.2	
206.17	4312.3	
206.38	5868.1	
206.6	6047.7	
206.81	4805.9	
207.02	3878.2	
207.24	5776	
207.45	6251.1	
207.66	3975.8	
207.88	3371.6	
208.09	5759.6	
208.3	5577.3	
208.52	3654.3	
208.73	4065.2	
208.94	5530.2	
209.15	6272.2	
209.37	4009.9	
209.58	4192.9	
209.79	6069.5	
210.01	5315.2	
210.22	3210.5	
210.43	3408.5	
210.65	5584.8	
210.86	5979.4	
211.07	4018.8	
211.29	3738.2	
211.5	5907	
211.71	5471.5	
211.93	3659	
212.14	3607.2	
212.35	5402.5	
212.56	5726.1	
212.78	4280.9	
212.99	3502.7	
213.2	6587	
213.42	5316.5	
213.63	3788.7	
213.84	4061.1	
214.06	4851.6	
214.27	5010.7	
214.48	3965.6	
214.69	4261.8	
214.91	6184.2	
215.12	6338.5	
215.33	4383.3	
215.55	4764.3	
215.76	6853.2	
215.97	5911.8	
216.18	4103.4	
216.4	4054.3	
216.61	5220.3	
216.82	6067.4	
217.04	3670	
217.25	3813.3	
217.46	6158.9	
217.67	5990.3	
217.89	3340.9	
218.1	3390.1	
218.31	5644.9	
218.53	5722.7	
218.74	3859.7	
218.95	3740.3	
219.16	5468.1	
219.38	6484.6	
219.59	3725.3	
219.8	4526.7	
220.01	7199.3	
220.23	5584.1	
220.44	4991.6	
220.65	3640.6	
220.87	5649.7	
221.08	6172.6	
221.29	3418.7	
221.5	4610	
221.72	7655.3	
221.93	5244.8	
222.14	4270.7	
222.35	4960.2	
222.57	5578.7	
222.78	5917.9	
222.99	3999	
223.2	4375.1	
223.42	5905.7	
223.63	5951.4	
223.84	3056.3	
224.05	3052.2	
224.27	7100.3	
224.48	6477	
224.69	4979.3	
224.9	4283	
225.12	5748	
225.33	5502.2	
225.54	3365.5	
225.75	3801	
225.97	5083.1	
226.18	5406.6	
226.39	4119.1	
226.6	3781.2	
226.82	5205.3	
227.03	5179.3	
227.24	4225.6	
227.45	3481.5	
227.67	5889.3	
227.88	6552.1	
228.09	4746.5	
228.3	4678.9	
228.52	5938.4	
228.73	5434.6	
228.94	3895.2	
229.15	3454.2	
229.36	5433.9	
229.58	5353.4	
229.79	3893.9	
230	4625	
230.21	6608.8	
230.43	5644.9	
230.64	4173.8	
230.85	4315.1	
231.06	5938.4	
231.28	5986.9	
231.49	3469.9	
231.7	4064.5	
231.91	5834	
232.12	5606.7	
232.34	3556	
232.55	4077.5	
232.76	6201.9	
232.97	5702.2	
233.18	3680.2	
233.4	4118.5	
233.61	5811.5	
233.82	5322.7	
234.03	3863.2	
234.25	3848.1	
234.46	7668.3	
234.67	5641.5	
234.88	4261.1	
235.09	3732.1	
235.31	5847	
235.52	5376.6	
235.73	4224.3	
235.94	3534.1	
236.15	5239.4	
236.37	6686.6	
236.58	3734.1	
236.79	4037.9	
237	5852.4	
237.21	5017.5	
237.43	4269.3	
237.64	3370.3	
237.85	10189	
238.06	5060.5	
238.27	4436.6	
238.48	3509.5	
238.7	5825.8	
238.91	5410.1	
239.12	4007.9	
239.33	4025.6	
239.54	5085.8	
239.76	5440.1	
239.97	3956.7	
240.18	4015.4	
240.39	6948.8	
240.6	5834.7	
240.82	4141.7	
241.03	3440.6	
241.24	5519.3	
241.45	6382.2	
241.66	3653.6	
241.87	4257.7	
242.09	6268.8	
242.3	6668.9	
242.51	4333.5	
242.72	4078.9	
242.93	5997.1	
243.14	5508.4	
243.36	4603.2	
243.57	5070.8	
243.78	6448.4	
243.99	5980.8	
244.2	4027.7	
244.41	3689.8	
244.63	5009.3	
244.84	5859.2	
245.05	4312.3	
245.26	3997	
245.47	5784.8	
245.68	6100.9	
245.9	5410.1	
246.11	4345.1	
246.32	5386.2	
246.53	5836	
246.74	6533.7	
246.95	3376.4	
247.16	4988.9	
247.38	5476.3	
247.59	3337.5	
247.8	4067.9	
248.01	5255.8	
248.22	5485.8	
248.43	3631.7	
248.64	3880.2	
248.86	4891.9	
249.07	5244.2	
249.28	3533.4	
249.49	4146.5	
249.7	6120.7	
249.91	6233.3	
250.12	3317.7	
250.34	3433.1	
250.55	5680.4	
250.76	5526.1	
250.97	4124.6	
251.18	4246.1	
251.39	6313.9	
251.6	5728.2	
251.81	4288.4	
252.03	4272.7	
252.24	5233.2	
252.45	6121.4	
252.66	3443.3	
252.87	4441.4	
253.08	5543.9	
253.29	7314	
253.5	3562.8	
253.72	4906.3	
253.93	5350.7	
254.14	6627.9	
254.35	3830.4	
254.56	3947.1	
254.77	5770.5	
254.98	5124	
255.19	3768.9	
255.41	4859.1	
255.62	5657.9	
255.83	6259.3	
256.04	4340.3	
256.25	4273.4	
256.46	6821.1	
256.67	5186.1	
256.88	4183.3	
257.09	4648.2	
257.31	5172.5	
257.52	5191.6	
257.73	5221.6	
257.94	3850.2	
258.15	5386.8	
258.36	5572.5	
258.57	4887.1	
258.78	2994.8	
258.99	6145.3	
259.2	5398.4	
259.41	3881.6	
259.63	3968.3	
259.84	6434	
260.05	6918	
260.26	5132.9	
260.47	3702	
260.68	6187.6	
260.89	5434.6	
261.1	4687.8	
261.31	3678.2	
261.52	6132.3	
261.73	6504.3	
261.95	4971.1	
262.16	4379.2	
262.37	6272.2	
262.58	6390.3	
262.79	4971.1	
263	3955.3	
263.21	5541.1	
263.42	5070.8	
263.63	3989.4	
263.84	3897.3	
264.05	6085.2	
264.26	6569.2	
264.47	4853.7	
264.69	4307.6	
264.9	6225.8	
265.11	5795.1	
265.32	3693.9	
265.53	3806.5	
265.74	5698.8	
265.95	4944.5	
266.16	4094.6	
266.37	4584	
266.58	5668.1	
266.79	5390.3	
267	3852.9	
267.21	3508.9	
267.42	5084.4	
267.63	5523.4	
267.84	4061.1	
268.06	3426.3	
268.27	5997.1	
268.48	6277	
268.69	3957.4	
268.9	4622.9	
269.11	6239.5	
269.32	5058.5	
269.53	4014	
269.74	3692.5	
269.95	5898.1	
270.16	4897.4	
270.37	4050.9	
270.58	4685.1	
270.79	5387.5	
271	6086.6	
271.21	4326	
271.42	4080.2	
271.63	5652.4	
271.84	5160.9	
272.05	3237.8	
272.26	3660.4	
272.47	5586.9	
272.68	5791	
272.89	3850.9	
273.11	4485.1	
273.32	5425.1	
273.53	6522.1	
273.74	4347.8	
273.95	4269.3	
274.16	6172.6	
274.37	5597.1	
274.58	4370.4	
274.79	3532.7	
275	5728.9	
275.21	6276.3	
275.42	5283.1	
275.63	4526.7	
275.84	5776	
276.05	7355.6	
276.26	4308.9	
276.47	3990.8	
276.68	5397.1	
276.89	6567.8	
277.1	4599.1	
277.31	3552.5	
277.52	5821.7	
277.73	6006.7	
277.94	3419.4	
278.15	3906.8	
278.36	5724.1	
278.57	5248.3	
278.78	3833.1	
278.99	4303.5	
279.2	5124	
279.41	5145.2	
279.62	5035.3	
279.83	3538.2	
280.04	6855.2	
280.25	5101.5	
280.46	5010	
280.67	4020.2	
280.88	5120.6	
281.09	6290	
281.3	4240	
281.51	5344.5	
281.72	6130.9	
281.93	6149.4	
282.14	3752.6	
282.35	4099.4	
282.56	6036	
282.77	6070.9	
282.98	3899.3	
283.19	4795	
283.4	7492.2	
283.61	5489.9	
283.82	3586	
284.03	5033.9	
284.24	5651.7	
284.45	6238.1	
284.66	4965	
284.87	4849.6	
285.08	6122.1	
285.29	6298.2	
285.5	3433.8	
285.71	4019.5	
285.92	6197.2	
286.12	6878.4	
286.33	4977.2	
286.54	3953.3	
286.75	6119.3	
286.96	5419.6	
287.17	3579.8	
287.38	4905.6	
287.59	5215.5	
287.8	5009.3	
288.01	3948.5	
288.22	4601.1	
288.43	6141.9	
288.64	5120.6	
288.85	4683.7	
289.06	4463.9	
289.27	5988.9	
289.48	6563.7	
289.69	4984.1	
289.9	4539.7	
290.11	6229.9	
290.32	5265.3	
290.53	4815.5	
290.74	4421.6	
290.94	6041.5	
291.15	6051.7	
291.36	3836.5	
291.57	4582.7	
291.78	5335.6	
291.99	4976.6	
292.2	3613.3	
292.41	4428.4	
292.62	6133	
292.83	5883.8	
293.04	5481	
293.25	3641.3	
293.46	5309	
293.67	6189.6	
293.88	3772.4	
294.09	3657	
294.29	5101.5	
294.5	5720.7	
294.71	4076.8	
294.92	3861.1	
295.13	5356.8	
295.34	6669.6	
295.55	3422.8	
295.76	3545	
295.97	6006.7	
296.18	6769.9	
296.39	3631.7	
296.6	3806.5	
296.81	5688.6	
297.01	5997.8	
297.22	3962.8	
297.43	3779.9	
297.64	5196.4	
297.85	5217.5	
298.06	3115	
298.27	3413.3	
298.48	5543.2	
298.69	5296	
298.9	4057.7	
299.11	3687.7	
299.31	5124.7	
299.52	5127.4	
299.73	4422.9	
299.94	4335.5	
300.15	5574.6	
300.36	5225.1	
300.57	4321.9	
300.78	4326.7	
300.99	5441.5	
301.2	5702.2	
301.4	3769.6	
301.61	4083.6	
301.82	5880.4	
302.03	5993	
302.24	4628.4	
302.45	3588.7	
302.66	5849.7	
302.87	6335.1	
303.08	3785.3	
303.29	5182.7	
303.49	5295.4	
303.7	5596.4	
303.91	3368.2	
304.12	4971.1	
304.33	5074.9	
304.54	5694.7	
304.75	3829.7	
304.96	3624.2	
305.16	5879	
305.37	6688.7	
305.58	3287.7	
305.79	3435.1	
306	5909.8	
306.21	4919.2	
306.42	3864.5	
306.63	5803.9	
306.83	5447.6	
307.04	6163.7	
307.25	4225	
307.46	4156.7	
307.67	4830.5	
307.88	6133	
308.09	3721.8	
308.29	3970.3	
308.5	5651.7	
308.71	6227.9	
308.92	4157.4	
309.13	3683.6	
309.34	5431.2	
309.55	5441.5	
309.75	4700.1	
309.96	4352.6	
310.17	5962.3	
310.38	5326.1	
310.59	4594.3	
310.8	4327.4	
311.01	5405.3	
311.21	5428.5	
311.42	3566.9	
311.63	3735.5	
311.84	5251.7	
312.05	5723.4	
312.26	4238.6	
312.46	4626.4	
312.67	5376.6	
312.88	5083.7	
313.09	3657.7	
313.3	3616.7	
313.51	6375.3	
313.71	6735.1	
313.92	3660.4	
314.13	3881.6	
314.34	5776	
314.55	5541.8	
314.76	4708.3	
314.96	4110.3	
315.17	5573.9	
315.38	6020.3	
315.59	3687.7	
315.8	3504.1	
316.01	6552.8	
316.21	6552.1	
316.42	3533.4	
316.63	4014	
316.84	5437.4	
317.05	6294.8	
317.26	4360.1	
317.46	3888.4	
317.67	5479.7	
317.88	5947.3	
318.09	4691.9	
318.3	3445.4	
318.5	5275.6	
318.71	5936.4	
318.92	5960.3	
319.13	4339.6	
319.34	6056.5	
319.54	6210.1	
319.75	3390.1	
319.96	3239.2	
320.17	5986.2	
320.38	6157.6	
320.58	3364.8	
320.79	4012.7	
321	6163.7	
321.21	6290	
321.42	4090.5	
321.62	3352.5	
321.83	5111.7	
322.04	5558.2	
322.25	3865.9	
322.46	3724.6	
322.66	5700.9	
322.87	5850.4	
323.08	4594.3	
323.29	3600.3	
323.5	6731	
323.7	5076.9	
323.91	5025.7	
324.12	4493.9	
324.33	5625.1	
324.53	5888.6	
324.74	4310.3	
324.95	4564.9	
325.16	4942.4	
325.37	5384.8	
325.57	3721.8	
325.78	3784.6	
325.99	5594.4	
326.2	5105.6	
326.4	5197.7	
326.61	3405.8	
326.82	5500.2	
327.03	5644.9	
327.24	5269.4	
327.44	4949.9	
327.65	5825.8	
327.86	4741	
328.07	4341.7	
328.27	3536.2	
328.48	6304.3	
328.69	5210	
328.9	5309	
329.1	3945.8	
329.31	5418.9	
329.52	6479.8	
329.73	3690.4	
329.93	4158.1	
330.14	5563.6	
330.35	5794.4	
330.56	6138.4	
330.76	4635.9	
330.97	5381.4	
331.18	5799.8	
331.39	4079.6	
331.59	3301.3	
331.8	6268.1	
332.01	6305.7	
332.22	3787.4	
332.42	4346.5	
332.63	5745.9	
332.84	5269.4	
333.05	4092.5	
333.25	3732.1	
333.46	5378	
333.67	5608	
333.88	3852.9	
334.08	4267.3	
334.29	7443	
334.5	6247.7	
334.7	3609.2	
334.91	5307.7	
335.12	5062.6	
335.33	6002.6	
335.53	4087.7	
335.74	6117.3	
335.95	5337.7	
336.16	5206.6	
336.36	4054.3	
336.57	4744.5	
336.78	5079.6	
336.98	6195.1	
337.19	4977.2	
337.4	4018.1	
337.61	6765.1	
337.81	5118.6	
338.02	3787.4	
338.23	4891.2	
338.43	6385.6	
338.64	5162.9	
338.85	3731.4	
339.05	4827.1	
339.26	6461.3	
339.47	5037.3	
339.68	3729.4	
339.88	5492.7	
340.09	5838.8	
340.3	6040.8	
340.5	4292.5	
340.71	3341.6	
340.92	5063.9	
341.13	6384.9	
341.33	3592.1	
341.54	4410.6	
341.75	5850.4	
341.95	5442.8	
342.16	4172.4	
342.37	4483.7	
342.57	5222.3	
342.78	5515.2	
342.99	4538.3	
343.19	3343.7	
343.4	5988.9	
343.61	5879	
343.81	3936.2	
344.02	3631.7	
344.23	6057.2	
344.43	6513.2	
344.64	4584.7	
344.85	4528.7	
345.06	5937.1	
345.26	6218.3	
345.47	4301.4	
345.68	5032.5	
345.88	4930.8	
346.09	6084.5	
346.3	4289.8	
346.5	3263.1	
346.71	5613.5	
346.92	5298.8	
347.12	3377.1	
347.33	4259.8	
347.54	6167.1	
347.74	6622.4	
347.95	4302.1	
348.16	3124.5	
348.36	5416.9	
348.57	5195	
348.78	4220.2	
348.98	4564.2	
349.19	5560.9	
349.39	5128.8	
349.6	3415.3	
349.81	3826.3	
350.01	5893.4	
350.22	5285.1	
350.43	4125.3	
350.63	4933.6	
350.84	5649.7	
351.05	5374.6	
351.25	3792.2	
351.46	3374.4	
351.67	6225.1	
351.87	5310.4	
352.08	4056.3	
352.29	4528.7	
352.49	6110.5	
352.7	6298.2	
352.9	3664.5	
353.11	4526	
353.32	6810.2	
353.52	5417.6	
353.73	3665.9	
353.94	4601.1	
354.14	5976.7	
354.35	5800.5	
354.55	3702	
354.76	4147.1	
354.97	5961.6	
355.17	5737.7	
355.38	3525.2	
355.59	4956.8	
355.79	5313.1	
356	5765.7	
356.2	4100	
356.41	3633.8	
356.62	5083.1	
356.82	5612.8	
357.03	4442	
357.24	4044.7	
357.44	5400.5	
357.65	5519.3	
357.85	5375.2	
358.06	4249.5	
358.27	5142.4	
358.47	5388.2	
358.68	3551.9	
358.88	4508.9	
359.09	6035.4	
359.3	6396.5	
359.5	5208.7	
359.71	4689.8	
359.91	6857.3	
360.12	6228.6	
360.33	4534.2	
360.53	5050.3	
360.74	5449	
360.94	5529.5	
361.15	4752.7	
361.36	3975.1	
361.56	6352.1	
361.77	5702.9	
361.97	5175.9	
362.18	4198.3	
362.38	6329.6	
362.59	5413.5	
362.8	3934.8	
363	3777.1	
363.21	5229.8	
363.41	5949.3	
363.62	4472.1	
363.83	5504.3	
364.03	5997.1	
364.24	6995.2	
364.44	5775.3	
364.65	5669.5	
364.85	5743.2	
365.06	5379.3	
365.27	4200.4	
365.47	4173.8	
365.68	6822.5	
365.88	5762.3	
366.09	4544.4	
366.29	4307.6	
366.5	6057.9	
366.71	6552.8	
366.91	5648.3	
367.12	4841.4	
367.32	7140.6	
367.53	6341.2	
367.73	4776.5	
367.94	5763.7	
368.14	6292	
368.35	7296.9	
368.56	4705.5	
368.76	4077.5	
368.97	6429.9	
369.17	8235.6	
369.38	4259.1	
369.58	4586.8	
369.79	5490.6	
369.99	6846.4	
370.2	5520	
370.4	4675.5	
370.61	6112.5	
370.82	7399.3	
371.02	4569.7	
371.23	3837.2	
371.43	5479.7	
371.64	6845	
371.84	4685.1	
372.05	5903.6	
372.25	8274.5	
372.46	6640.9	
372.66	4704.2	
372.87	4621.6	
373.07	6689.3	
373.28	8387.1	
373.48	5747.3	
373.69	5550.7	
373.9	6156.9	
374.1	6199.2	
374.31	5723.4	
374.51	5246.2	
374.72	7169.9	
374.92	5930.2	
375.13	6072.9	
375.33	5138.4	
375.54	6733	
375.74	6079.7	
375.95	5248.9	
376.15	6547.4	
376.36	6728.3	
376.56	6642.9	
376.77	5429.2	
376.97	5908.4	
377.18	7965.9	
377.38	7008.1	
377.59	6333.7	
377.79	4993.6	
378	6744.6	
378.2	7289.4	
378.41	5024.3	
378.61	5029.1	
378.82	7268.9	
379.02	6419.7	
379.23	5239.4	
379.43	6414.9	
379.64	7392.5	
379.84	7040.2	
380.05	5085.8	
380.25	4988.9	
380.46	7124.2	
380.66	6677.1	
380.87	6440.9	
381.07	6807.4	
381.28	7806.2	
381.48	7136.5	
381.69	5042.1	
381.89	5126.7	
382.1	6004	
382.3	7253.9	
382.51	6307.1	
382.71	7186.3	
382.91	7067.5	
383.12	7630	
383.32	5465.3	
383.53	5588.9	
383.73	6942.6	
383.94	6736.5	
384.14	5574.6	
384.35	4653.7	
384.55	6558.3	
384.76	7132.4	
384.96	5373.9	
385.17	5681.1	
385.37	7024.5	
385.58	6252.4	
385.78	5727.5	
385.98	4579.3	
386.19	6481.8	
386.39	6926.2	
386.6	5160.9	
386.8	5408.7	
387.01	7147.4	
387.21	7086.7	
387.42	5880.4	
387.62	6580.8	
387.83	6395.8	
388.03	7176.1	
388.23	5621	
388.44	6469.5	
388.64	6173.9	
388.85	6390.3	
389.05	6072.2	
389.26	6718.7	
389.46	8328.4	
389.67	7821.9	
389.87	6104.3	
390.07	6173.9	
390.28	7037.5	
390.48	6490	
390.69	5298.8	
390.89	5602.6	
391.1	6771.3	
391.3	7781.6	
391.5	6935.1	
391.71	7655.3	
391.91	7485.3	
392.12	8533.2	
392.32	6956.3	
392.53	6193.1	
392.73	6782.2	
392.93	7087.3	
393.14	5864	
393.34	6686.6	
393.55	7499.7	
393.75	7086	
393.95	5801.9	
394.16	5737.7	
394.36	6765.8	
394.57	7508.5	
394.77	5313.8	
394.98	5702.9	
395.18	6826.6	
395.38	7066.9	
395.59	6845	
395.79	5706.3	
396	7114.6	
396.2	7565.9	
396.4	6812.2	
396.61	6660.7	
396.81	7801.4	
397.02	7150.1	
397.22	7112.6	
397.42	7144.7	
397.63	8075.1	
397.83	7285.3	
398.04	5918.6	
398.24	6615.6	
398.44	7757.7	
398.65	6905.1	
398.85	5762.3	
399.05	5939.1	
399.26	7240.9	
399.46	9041.1	
399.67	6358.9	
399.87	6168.5	
400.07	7800	
400.28	8174.8	
400.48	6236.1	
400.69	7468.3	
400.89	8474.5	
401.09	8957.1	
401.3	6262	
401.5	7496.2	
401.7	9286.9	
401.91	9552.4	
402.11	6735.8	
402.32	6867.5	
402.52	8503.8	
402.72	8361.9	
402.93	7070.3	
403.13	5782.1	
403.33	9125.1	
403.54	7542.7	
403.74	6547.4	
403.94	7433.4	
404.15	7673.1	
404.35	8972.2	
404.56	6355.5	
404.76	8329.8	
404.96	8316.1	
405.17	8056	
405.37	7878.5	
405.57	7008.8	
405.78	8566.7	
405.98	7805.5	
406.18	6671.6	
406.39	7653.3	
406.59	8425.3	
406.79	8083.3	
407	6392.4	
407.2	6434	
407.4	8465.6	
407.61	8815.1	
407.81	6640.9	
408.01	9026.1	
408.22	7727.7	
408.42	10035	
408.62	8177.5	
408.83	7662.8	
409.03	8755.1	
409.23	8643.1	
409.44	8056.7	
409.64	8396.7	
409.84	10094	
410.05	10162	
410.25	8463.6	
410.45	8234.9	
410.66	9759.3	
410.86	12392	
411.06	9090.3	
411.27	8817.9	
411.47	12453	
411.67	10219	
411.88	9100.5	
412.08	9682.8	
412.28	11011	
412.49	11574	
412.69	9215.2	
412.89	9273.2	
413.09	11540	
413.3	11336	
413.5	9564.7	
413.7	9172.9	
413.91	10574	
414.11	11753	
414.31	9500.5	
414.52	10028	
414.72	11324	
414.92	11424	
415.12	9493	
415.33	10105	
415.53	11824	
415.73	12119	
415.94	10538	
416.14	9974.3	
416.34	10873	
416.55	10587	
416.75	11439	
416.95	10699	
417.15	12037	
417.36	12773	
417.56	11729	
417.76	10834	
417.97	12538	
418.17	12316	
418.37	10357	
418.57	10492	
418.78	12065	
418.98	11692	
419.18	11482	
419.38	11077	
419.59	11856	
419.79	11272	
419.99	10277	
420.2	10692	
420.4	12246	
420.6	12361	
420.8	10184	
421.01	10039	
421.21	12253	
421.41	12471	
421.61	10618	
421.82	10376	
422.02	11654	
422.22	12621	
422.42	11231	
422.63	10516	
422.83	11873	
423.03	13061	
423.23	10759	
423.44	9650.7	
423.64	11933	
423.84	11388	
424.04	10236	
424.25	9869.2	
424.45	12649	
424.65	12527	
424.85	9529.2	
425.06	10189	
425.26	12692	
425.46	11064	
425.66	10591	
425.87	10410	
426.07	12426	
426.27	12178	
426.47	10497	
426.67	9805	
426.88	12754	
427.08	12143	
427.28	10979	
427.48	9705.3	
427.69	10819	
427.89	11661	
428.09	10796	
428.29	9751.1	
428.5	12415	
428.7	11966	
428.9	9854.8	
429.1	10258	
429.3	11896	
429.51	12332	
429.71	10008	
429.91	11091	
430.11	12284	
430.31	12806	
430.52	10504	
430.72	11137	
430.92	13108	
431.12	12590	
431.32	10405	
431.53	10705	
431.73	11531	
431.93	13158	
432.13	10324	
432.33	10282	
432.54	11950	
432.74	12398	
432.94	10419	
433.14	11408	
433.34	12708	
433.55	12332	
433.75	11413	
433.95	13617	
434.15	12680	
434.35	12339	
434.56	10716	
434.76	10497	
434.96	12740	
435.16	13269	
435.36	10776	
435.56	12131	
435.77	12709	
435.97	12871	
436.17	13185	
436.37	12314	
436.57	12730	
436.78	12914	
436.98	13254	
437.18	12738	
437.38	13781	
437.58	12934	
437.78	13111	
437.99	11426	
438.19	13202	
438.39	14844	
438.59	11360	
438.79	10638	
438.99	13929	
439.2	12774	
439.4	10694	
439.6	10895	
439.8	13291	
440	14556	
440.2	12246	
440.4	12531	
440.61	14026	
440.81	14799	
441.01	11861	
441.21	13008	
441.41	15087	
441.61	14373	
441.81	13474	
442.02	14476	
442.22	15357	
442.42	14581	
442.62	12181	
442.82	12062	
443.02	15063	
443.22	14311	
443.43	12842	
443.63	12357	
443.83	13918	
444.03	13973	
444.23	13996	
444.43	13457	
444.63	14663	
444.83	15894	
445.04	12855	
445.24	14215	
445.44	14847	
445.64	14971	
445.84	13254	
446.04	13578	
446.24	13941	
446.44	15196	
446.65	12196	
446.85	12975	
447.05	13730	
447.25	14972	
447.45	12868	
447.65	12190	
447.85	14198	
448.05	13628	
448.25	13473	
448.46	13216	
448.66	14316	
448.86	13823	
449.06	12375	
449.26	13477	
449.46	15044	
449.66	13825	
449.86	13289	
450.06	13172	
450.26	14291	
450.47	14899	
450.67	13251	
450.87	13835	
451.07	14944	
451.27	14986	
451.47	12613	
451.67	13703	
451.87	14732	
452.07	15548	
452.27	13468	
452.47	13166	
452.67	14827	
452.88	15428	
453.08	12134	
453.28	14638	
453.48	16449	
453.68	14579	
453.88	13273	
454.08	13450	
454.28	15544	
454.48	15194	
454.68	14096	
454.88	14567	
455.08	15597	
455.28	15827	
455.48	13183	
455.68	14224	
455.89	16614	
456.09	16282	
456.29	13988	
456.49	14367	
456.69	16701	
456.89	15722	
457.09	14915	
457.29	15362	
457.49	16399	
457.69	16800	
457.89	15209	
458.09	14439	
458.29	16642	
458.49	17320	
458.69	15779	
458.89	15332	
459.09	18104	
459.29	17960	
459.49	15239	
459.69	16275	
459.9	17276	
460.1	17202	
460.3	14995	
460.5	14984	
460.7	17400	
460.9	17349	
461.1	14875	
461.3	16513	
461.5	18613	
461.7	18002	
461.9	16008	
462.1	16167	
462.3	17772	
462.5	18441	
462.7	16090	
462.9	16419	
463.1	19800	
463.3	19916	
463.5	16712	
463.7	18413	
463.9	18855	
464.1	19222	
464.3	17830	
464.5	17542	
464.7	19747	
464.9	19872	
465.1	19330	
465.3	18311	
465.5	20106	
465.7	20474	
465.9	18956	
466.1	18257	
466.3	20639	
466.5	19891	
466.7	20129	
466.9	18432	
467.1	20298	
467.3	21450	
467.5	20072	
467.7	18952	
467.9	21676	
468.1	22883	
468.3	19482	
468.5	20558	
468.7	20837	
468.9	20741	
469.1	19532	
469.3	20455	
469.5	23042	
469.7	20806	
469.9	19731	
470.1	19489	
470.3	21091	
470.5	21158	
470.7	20826	
470.9	19427	
471.1	21069	
471.3	20754	
471.5	19279	
471.69	21190	
471.89	20462	
472.09	19921	
472.29	20362	
472.49	19999	
472.69	20470	
472.89	21125	
473.09	19259	
473.29	18971	
473.49	20463	
473.69	20325	
473.89	20097	
474.09	19109	
474.29	21707	
474.49	21316	
474.69	20162	
474.89	19248	
475.09	20536	
475.29	20607	
475.49	18610	
475.69	19138	
475.88	21891	
476.08	20622	
476.28	18610	
476.48	18744	
476.68	20873	
476.88	20672	
477.08	18553	
477.28	19143	
477.48	19985	
477.68	20747	
477.88	18476	
478.08	18874	
478.28	21450	
478.48	20313	
478.67	19134	
478.87	18183	
479.07	21444	
479.27	20557	
479.47	19151	
479.67	19407	
479.87	21113	
480.07	21708	
480.27	18639	
480.47	20285	
480.67	20770	
480.87	21677	
481.06	18880	
481.26	19917	
481.46	20919	
481.66	20723	
481.86	19478	
482.06	20688	
482.26	20570	
482.46	21382	
482.66	19413	
482.86	19155	
483.05	21218	
483.25	20485	
483.45	22240	
483.65	19825	
483.85	20794	
484.05	21224	
484.25	20059	
484.45	20958	
484.65	22129	
484.84	22482	
485.04	19825	
485.24	20005	
485.44	22706	
485.64	20938	
485.84	19761	
486.04	20975	
486.24	21446	
486.44	21824	
486.63	19405	
486.83	20788	
487.03	21751	
487.23	22416	
487.43	19772	
487.63	22528	
487.83	22246	
488.02	23500	
488.22	21598	
488.42	22210	
488.62	23093	
488.82	22327	
489.02	20835	
489.22	21504	
489.41	23086	
489.61	23116	
489.81	20812	
490.01	21007	
490.21	23404	
490.41	24103	
490.61	21175	
490.8	21211	
491	23128	
491.2	21995	
491.4	21457	
491.6	20516	
491.8	22444	
491.99	22641	
492.19	20325	
492.39	20701	
492.59	23250	
492.79	23309	
492.99	21925	
493.18	20996	
493.38	23760	
493.58	25147	
493.78	22352	
493.98	21921	
494.18	24000	
494.37	24054	
494.57	23432	
494.77	23284	
494.97	25069	
495.17	25742	
495.37	23386	
495.56	23827	
495.76	26225	
495.96	25891	
496.16	25214	
496.36	24231	
496.55	26380	
496.75	25981	
496.95	24724	
497.15	24360	
497.35	26144	
497.54	26684	
497.74	24130	
497.94	26233	
498.14	27360	
498.34	27219	
498.53	24380	
498.73	25272	
498.93	26325	
499.13	27015	
499.33	25348	
499.52	25785	
499.72	27406	
499.92	27344	
500.12	25242	
500.32	25580	
500.51	27440	
500.71	27585	
500.91	26466	
501.11	25959	
501.31	27741	
501.5	27874	
501.7	26778	
501.9	25682	
502.1	27254	
502.29	27730	
502.49	26458	
502.69	26326	
502.89	27332	
503.09	27381	
503.28	24690	
503.48	24776	
503.68	26205	
503.88	26557	
504.07	25958	
504.27	25092	
504.47	26755	
504.67	26585	
504.86	25680	
505.06	25162	
505.26	26111	
505.46	28056	
505.65	24971	
505.85	25023	
506.05	25703	
506.25	26209	
506.44	23694	
506.64	24536	
506.84	25185	
507.04	26181	
507.23	23875	
507.43	24356	
507.63	27492	
507.83	25739	
508.02	24544	
508.22	23898	
508.42	27867	
508.62	25434	
508.81	23994	
509.01	24954	
509.21	24910	
509.4	25677	
509.6	24499	
509.8	23995	
510	25195	
510.19	27236	
510.39	23866	
510.59	24173	
510.79	25398	
510.98	27161	
511.18	24152	
511.38	24518	
511.57	26359	
511.77	26364	
511.97	24887	
512.17	23760	
512.36	26482	
512.56	26024	
512.76	23746	
512.95	23553	
513.15	26258	
513.35	24980	
513.55	24840	
513.74	23908	
513.94	26229	
514.14	25785	
514.33	25045	
514.53	24903	
514.73	25661	
514.92	25990	
515.12	24303	
515.32	24062	
515.51	26303	
515.71	26673	
515.91	26131	
516.11	24539	
516.3	28242	
516.5	25917	
516.7	24959	
516.89	25946	
517.09	26024	
517.29	26166	
517.48	25260	
517.68	24657	
517.88	25997	
518.07	26329	
518.27	25416	
518.47	24187	
518.66	26934	
518.86	25525	
519.06	24008	
519.25	24656	
519.45	25972	
519.65	27868	
519.84	25267	
520.04	26144	
520.24	28105	
520.43	26623	
520.63	24696	
520.83	24629	
521.02	25649	
521.22	26168	
521.42	24741	
521.61	25531	
521.81	25727	
522.01	25865	
522.2	24902	
522.4	24509	
522.6	26678	
522.79	25576	
522.99	24874	
523.18	24596	
523.38	26926	
523.58	27312	
523.77	27243	
523.97	25276	
524.17	29730	
524.36	28788	
524.56	27105	
524.76	27044	
524.95	28244	
525.15	27705	
525.34	27102	
525.54	27237	
525.74	29057	
525.93	28227	
526.13	28533	
526.33	27627	
526.52	29853	
526.72	29291	
526.91	28986	
527.11	28596	
527.31	30273	
527.5	30627	
527.7	28545	
527.89	27634	
528.09	29389	
528.29	30322	
528.48	29052	
528.68	28567	
528.87	30558	
529.07	30317	
529.27	28739	
529.46	28189	
529.66	30048	
529.85	30609	
530.05	28059	
530.25	28865	
530.44	31838	
530.64	29900	
530.83	28481	
531.03	28945	
531.23	30498	
531.42	30270	
531.62	29774	
531.81	29104	
532.01	31221	
532.21	31993	
532.4	29614	
532.6	30175	
532.79	32778	
532.99	32367	
533.18	30610	
533.38	31441	
533.58	32253	
533.77	32816	
533.97	31002	
534.16	31883	
534.36	33474	
534.55	32601	
534.75	31931	
534.95	31186	
535.14	33739	
535.34	32558	
535.53	30778	
535.73	32858	
535.92	33796	
536.12	32508	
536.31	30487	
536.51	31889	
536.71	32447	
536.9	32121	
537.1	30568	
537.29	31058	
537.49	32930	
537.68	32167	
537.88	31486	
538.07	30441	
538.27	32617	
538.46	33635	
538.66	30669	
538.86	31213	
539.05	32795	
539.25	33203	
539.44	31961	
539.64	30979	
539.83	32309	
540.03	33527	
540.22	30756	
540.42	30603	
540.61	32258	
540.81	32756	
541	30813	
541.2	31907	
541.39	31599	
541.59	32267	
541.78	31430	
541.98	30355	
542.18	31308	
542.37	31176	
542.57	30247	
542.76	31247	
542.96	30978	
543.15	31582	
543.35	29958	
543.54	29499	
543.74	31333	
543.93	31158	
544.13	29515	
544.32	30651	
544.52	31144	
544.71	30363	
544.91	28530	
545.1	29868	
545.3	30529	
545.49	31289	
545.69	28518	
545.88	29046	
546.08	31731	
546.27	31488	
546.47	29502	
546.66	28937	
546.86	31149	
547.05	31814	
547.24	28827	
547.44	29030	
547.63	30020	
547.83	31347	
548.02	29219	
548.22	29436	
548.41	29638	
548.61	31027	
548.8	28497	
549	28375	
549.19	30169	
549.39	30593	
549.58	28007	
549.78	28661	
549.97	30537	
550.17	29777	
550.36	29074	
550.55	30300	
550.75	29581	
550.94	30650	
551.14	27685	
551.33	27826	
551.53	28923	
551.72	30154	
551.92	28291	
552.11	27897	
552.31	29822	
552.5	29713	
552.69	29495	
552.89	27202	
553.08	29917	
553.28	29270	
553.47	27854	
553.67	28936	
553.86	30216	
554.06	28392	
554.25	26570	
554.44	27511	
554.64	30982	
554.83	30466	
555.03	27348	
555.22	27641	
555.42	29668	
555.61	29232	
555.8	27037	
556	27461	
556.19	28334	
556.39	29533	
556.58	27306	
556.78	27204	
556.97	28895	
557.16	28799	
557.36	28469	
557.55	26921	
557.75	27927	
557.94	29905	
558.13	26823	
558.33	26944	
558.52	29749	
558.72	28335	
558.91	26684	
559.1	26925	
559.3	27966	
559.49	27284	
559.69	26199	
559.88	27202	
560.07	28536	
560.27	28928	
560.46	27443	
560.66	27620	
560.85	28344	
561.04	27282	
561.24	26376	
561.43	26502	
561.63	27590	
561.82	27846	
562.01	27816	
562.21	26793	
562.4	28182	
562.59	29588	
562.79	26683	
562.98	26551	
563.18	28433	
563.37	30269	
563.56	27482	
563.76	26727	
563.95	28257	
564.14	28205	
564.34	27213	
564.53	26995	
564.73	28714	
564.92	29180	
565.11	27563	
565.31	27026	
565.5	29485	
565.69	28639	
565.89	27050	
566.08	27510	
566.27	29530	
566.47	30313	
566.66	28177	
566.85	26925	
567.05	29302	
567.24	28562	
567.44	27459	
567.63	28837	
567.82	29562	
568.02	29280	
568.21	27416	
568.4	27714	
568.6	29351	
568.79	29521	
568.98	27383	
569.18	27850	
569.37	29687	
569.56	31643	
569.76	28202	
569.95	29382	
570.14	29814	
570.34	30119	
570.53	27682	
570.72	27835	
570.91	30503	
571.11	29726	
571.3	28138	
571.49	29100	
571.69	29911	
571.88	29237	
572.07	28955	
572.27	28560	
572.46	29239	
572.65	30406	
572.85	28199	
573.04	28695	
573.23	30912	
573.43	30038	
573.62	28177	
573.81	28959	
574	30508	
574.2	30188	
574.39	29031	
574.58	29326	
574.78	31875	
574.97	31040	
575.16	29782	
575.36	30299	
575.55	31780	
575.74	31787	
575.93	29026	
576.13	30591	
576.32	31006	
576.51	31801	
576.71	29541	
576.9	31257	
577.09	32177	
577.28	31504	
577.48	30061	
577.67	29039	
577.86	31232	
578.05	31793	
578.25	30052	
578.44	30025	
578.63	31341	
578.83	32916	
579.02	29218	
579.21	31324	
579.4	31751	
579.6	31753	
579.79	30253	
579.98	32587	
580.17	32162	
580.37	32361	
580.56	29478	
580.75	30664	
580.94	32751	
581.14	32531	
581.33	31318	
581.52	29954	
581.71	32323	
581.91	32806	
582.1	29912	
582.29	30161	
582.48	31983	
582.68	31967	
582.87	31001	
583.06	30534	
583.25	32349	
583.45	31581	
583.64	31511	
583.83	32152	
584.02	31690	
584.21	32279	
584.41	31320	
584.6	30664	
584.79	32217	
584.98	33140	
585.18	30249	
585.37	30141	
585.56	31332	
585.75	32699	
585.94	30010	
586.14	31015	
586.33	32629	
586.52	31741	
586.71	30326	
586.91	29991	
587.1	30666	
587.29	31767	
587.48	29248	
587.67	29504	
587.87	31285	
588.06	31363	
588.25	30532	
588.44	29807	
588.63	30658	
588.83	31154	
589.02	28744	
589.21	28480	
589.4	29586	
589.59	29752	
589.78	26733	
589.98	26934	
590.17	28127	
590.36	28674	
590.55	25445	
590.74	25811	
590.94	29274	
591.13	27563	
591.32	25674	
591.51	25258	
591.7	28245	
591.89	27709	
592.09	25636	
592.28	26260	
592.47	27194	
592.66	29410	
592.85	25834	
593.05	26189	
593.24	27910	
593.43	28787	
593.62	26539	
593.81	26826	
594	27873	
594.19	28212	
594.39	26099	
594.58	26029	
594.77	28134	
594.96	28557	
595.15	25775	
595.34	26339	
595.54	27897	
595.73	26934	
595.92	24924	
596.11	26025	
596.3	28280	
596.49	26865	
596.68	25565	
596.88	26342	
597.07	27961	
597.26	26800	
597.45	25028	
597.64	26491	
597.83	26988	
598.02	27645	
598.22	25260	
598.41	25871	
598.6	27323	
598.79	26704	
598.98	25241	
599.17	26274	
599.36	27263	
599.55	28425	
599.74	27277	
599.94	27140	
600.13	27831	
600.32	26401	
600.51	24881	
600.7	24983	
600.89	28248	
601.08	28501	
601.27	24754	
601.47	25952	
601.66	27397	
601.85	28287	
602.04	25257	
602.23	25528	
602.42	26510	
602.61	27198	
602.8	25090	
602.99	24632	
603.18	26680	
603.37	26946	
603.57	25303	
603.76	25966	
603.95	27803	
604.14	27463	
604.33	25012	
604.52	25522	
604.71	27254	
604.9	26774	
605.09	25903	
605.28	25856	
605.47	27738	
605.66	26948	
605.86	25661	
606.05	25017	
606.24	27448	
606.43	26021	
606.62	25187	
606.81	26022	
607	27153	
607.19	26532	
607.38	24500	
607.57	24684	
607.76	26376	
607.95	25664	
608.14	25022	
608.33	25628	
608.52	26277	
608.72	27217	
608.91	23920	
609.1	24172	
609.29	26131	
609.48	25456	
609.67	24834	
609.86	23869	
610.05	25553	
610.24	25727	
610.43	23736	
610.62	23373	
610.81	26666	
611	26877	
611.19	23976	
611.38	24511	
611.57	26092	
611.76	27775	
611.95	23525	
612.14	23356	
612.33	26015	
612.52	25185	
612.71	24234	
612.9	23199	
613.09	24952	
613.28	27389	
613.47	23745	
613.66	24908	
613.85	25954	
614.04	25336	
614.24	23939	
614.43	23112	
614.62	26080	
614.81	25859	
615	24405	
615.19	24579	
615.38	25071	
615.57	25802	
615.76	24427	
615.95	25427	
616.14	26186	
616.33	25721	
616.52	24653	
616.71	25081	
616.9	25958	
617.09	26133	
617.28	23985	
617.47	25531	
617.66	25314	
617.85	25413	
618.04	25598	
618.22	24847	
618.41	26044	
618.6	27386	
618.79	25128	
618.98	24978	
619.17	27773	
619.36	25908	
619.55	25097	
619.74	25206	
619.93	27206	
620.12	26745	
620.31	26032	
620.5	26469	
620.69	28383	
620.88	28768	
621.07	27030	
621.26	26196	
621.45	27863	
621.64	27942	
621.83	26366	
622.02	25682	
622.21	27848	
622.4	27798	
622.59	27207	
622.78	26807	
622.97	27399	
623.16	28575	
623.35	26514	
623.54	25646	
623.72	27673	
623.91	27923	
624.1	26891	
624.29	25547	
624.48	29138	
624.67	28272	
624.86	26863	
625.05	26001	
625.24	29055	
625.43	27433	
625.62	28850	
625.81	26052	
626	28429	
626.19	28125	
626.38	27271	
626.56	26254	
626.75	27834	
626.94	28941	
627.13	26884	
627.32	25734	
627.51	28443	
627.7	29823	
627.89	25585	
628.08	27035	
628.27	27506	
628.46	27615	
628.65	25697	
628.83	25678	
629.02	28121	
629.21	27554	
629.4	26544	
629.59	26660	
629.78	27685	
629.97	28324	
630.16	26824	
630.35	26256	
630.54	28975	
630.72	28603	
630.91	26140	
631.1	26728	
631.29	28007	
631.48	28277	
631.67	26663	
631.86	25895	
632.05	27919	
632.24	27733	
632.42	25669	
632.61	26500	
632.8	27480	
632.99	27323	
633.18	26570	
633.37	26644	
633.56	27979	
633.75	27831	
633.93	26374	
634.12	26286	
634.31	28667	
634.5	28505	
634.69	26138	
634.88	26273	
635.07	27688	
635.25	28208	
635.44	26899	
635.63	27355	
635.82	27251	
636.01	26927	
636.2	26746	
636.39	26337	
636.57	28354	
636.76	27874	
636.95	25589	
637.14	26929	
637.33	27747	
637.52	28754	
637.7	25380	
637.89	26266	
638.08	27305	
638.27	28741	
638.46	26392	
638.65	26572	
638.83	28323	
639.02	26764	
639.21	25745	
639.4	26399	
639.59	27060	
639.78	26699	
639.96	24787	
640.15	24817	
640.34	26590	
640.53	26910	
640.72	24399	
640.91	24609	
641.09	25943	
641.28	27370	
641.47	24643	
641.66	25426	
641.85	26770	
642.03	26679	
642.22	25203	
642.41	24572	
642.6	25753	
642.79	25069	
642.97	23917	
643.16	24985	
643.35	25749	
643.54	25208	
643.73	23907	
643.91	24658	
644.1	24607	
644.29	25815	
644.48	23535	
644.67	23696	
644.85	24834	
645.04	25224	
645.23	22827	
645.42	23052	
645.6	24103	
645.79	25227	
645.98	22531	
646.17	21246	
646.36	23245	
646.54	23752	
646.73	22587	
646.92	21687	
647.11	23015	
647.29	24267	
647.48	21544	
647.67	21184	
647.86	24220	
648.05	24520	
648.23	21848	
648.42	23038	
648.61	23585	
648.8	23354	
648.98	21215	
649.17	21649	
649.36	22900	
649.55	22558	
649.73	21259	
649.92	22285	
650.11	22958	
650.3	23186	
650.48	21417	
650.67	21218	
650.86	23201	
651.05	22167	
651.23	21229	
651.42	21084	
651.61	22528	
651.79	22532	
651.98	21369	
652.17	20818	
652.36	22821	
652.54	21872	
652.73	20951	
652.92	20480	
653.11	22701	
653.29	22776	
653.48	19861	
653.67	20752	
653.85	22220	
654.04	23345	
654.23	20654	
654.42	19996	
654.6	20897	
654.79	21617	
654.98	18948	
655.16	19193	
655.35	19862	
655.54	19764	
655.73	18566	
655.91	18335	
656.1	20986	
656.29	19934	
656.47	18170	
656.66	20190	
656.85	20476	
657.03	20848	
657.22	19259	
657.41	19539	
657.59	20926	
657.78	20890	
657.97	19228	
658.16	20119	
658.34	21795	
658.53	22304	
658.72	20807	
658.9	21351	
659.09	21125	
659.28	21635	
659.46	19858	
659.65	19828	
659.84	21074	
660.02	21745	
660.21	19555	
660.4	19533	
660.58	22051	
660.77	21447	
660.96	20285	
661.14	19267	
661.33	22640	
661.52	22620	
661.7	19122	
661.89	23155	
662.08	20849	
662.26	20405	
662.45	19174	
662.64	19254	
662.82	21430	
663.01	20830	
663.2	19400	
663.38	20298	
663.57	21310	
663.75	21126	
663.94	19611	
664.13	20818	
664.31	20536	
664.5	21380	
664.69	19771	
664.87	20512	
665.06	20302	
665.25	21145	
665.43	20730	
665.62	20654	
665.8	21264	
665.99	20629	
666.18	19475	
666.36	19746	
666.55	21179	
666.74	21231	
666.92	19086	
667.11	20585	
667.29	20540	
667.48	21194	
667.67	20193	
667.85	19282	
668.04	20678	
668.22	20704	
668.41	19263	
668.6	19480	
668.78	20291	
668.97	20572	
669.15	19749	
669.34	18578	
669.53	20362	
669.71	20733	
669.9	18667	
670.08	19455	
670.27	20267	
670.46	20867	
670.64	19499	
670.83	19998	
671.01	20037	
671.2	20573	
671.38	18904	
671.57	18513	
671.76	21362	
671.94	22042	
672.13	18641	
672.31	19648	
672.5	21121	
672.69	20122	
672.87	18773	
673.06	19215	
673.24	20598	
673.43	20269	
673.61	19622	
673.8	19134	
673.98	20905	
674.17	21099	
674.36	19731	
674.54	19480	
674.73	20476	
674.91	20792	
675.1	19344	
675.28	18822	
675.47	20343	
675.65	21094	
675.84	18991	
676.03	19329	
676.21	20051	
676.4	19617	
676.58	19656	
676.77	19569	
676.95	21599	
677.14	19923	
677.32	18561	
677.51	18445	
677.69	20769	
677.88	19678	
678.06	18385	
678.25	18521	
678.44	20379	
678.62	20078	
678.81	18231	
678.99	19347	
679.18	21115	
679.36	20665	
679.55	18910	
679.73	19650	
679.92	20588	
680.1	19923	
680.29	20271	
680.47	18919	
680.66	19941	
680.84	20912	
681.03	18105	
681.21	19342	
681.4	19932	
681.58	19738	
681.77	18572	
681.95	18419	
682.14	20727	
682.32	21157	
682.51	19495	
682.69	17989	
682.88	19583	
683.06	20147	
683.25	19002	
683.43	19329	
683.62	19861	
683.8	20474	
683.99	19411	
684.17	18686	
684.36	20863	
684.54	19235	
684.73	17047	
684.91	17182	
685.1	18981	
685.28	18058	
685.46	17064	
685.65	17095	
685.83	18525	
686.02	17866	
686.2	16375	
686.39	16599	
686.57	17841	
686.76	19676	
686.94	16707	
687.13	17074	
687.31	18734	
687.5	18430	
687.68	16454	
687.86	17857	
688.05	20361	
688.23	18062	
688.42	17907	
688.6	17426	
688.79	18677	
688.97	18614	
689.16	17701	
689.34	16666	
689.52	19644	
689.71	19691	
689.89	18176	
690.08	17415	
690.26	19099	
690.45	18891	
690.63	18129	
690.81	17727	
691	18540	
691.18	18745	
691.37	17495	
691.55	19611	
691.74	18409	
691.92	20583	
692.1	17492	
692.29	16683	
692.47	18602	
692.66	17740	
692.84	17094	
693.02	17514	
693.21	18189	
693.39	18525	
693.58	17858	
693.76	17368	
693.94	20072	
694.13	19956	
694.31	17599	
694.5	18820	
694.68	18959	
694.86	19387	
695.05	18252	
695.23	18549	
695.42	20175	
695.6	22312	
695.78	19031	
695.97	17878	
696.15	19887	
696.34	19224	
696.52	17532	
696.7	18372	
696.89	19441	
697.07	18637	
697.25	18040	
697.44	19790	
697.62	19187	
697.81	19436	
697.99	17459	
698.17	18297	
698.36	18386	
698.54	18997	
698.72	17932	
698.91	16638	
699.09	18332	
699.28	18363	
699.46	17313	
699.64	17215	
699.83	18182	
700.01	19346	
700.19	18041	
700.38	16465	
700.56	19459	
700.74	18531	
700.93	16997	
701.11	17897	
701.29	19035	
701.48	20430	
701.66	17202	
701.84	17494	
702.03	18684	
702.21	19684	
702.39	16793	
702.58	17555	
702.76	19076	
702.94	19364	
703.13	16881	
703.31	19542	
703.49	18398	
703.68	20086	
703.86	17045	
704.04	18169	
704.23	18814	
704.41	19235	
704.59	17218	
704.78	18256	
704.96	20111	
705.14	19164	
705.33	16925	
705.51	17662	
705.69	18613	
705.87	19520	
706.06	18000	
706.24	16853	
706.42	18898	
706.61	19241	
706.79	17867	
706.97	16782	
707.16	18262	
707.34	18747	
707.52	17663	
707.7	16910	
707.89	18284	
708.07	17942	
708.25	17712	
708.44	18009	
708.62	18028	
708.8	19152	
708.98	17840	
709.17	16924	
709.35	18497	
709.53	18476	
709.72	16294	
709.9	16776	
710.08	18558	
710.26	18588	
710.45	17789	
710.63	16478	
710.81	18039	
710.99	17902	
711.18	17166	
711.36	16527	
711.54	17712	
711.72	18418	
711.91	16201	
712.09	15634	
712.27	17375	
712.45	18622	
712.64	16179	
712.82	15072	
713	16376	
713.18	16510	
713.37	14872	
713.55	15736	
713.73	16888	
713.91	15121	
714.1	14225	
714.28	13430	
714.46	15494	
714.64	14239	
714.83	12023	
715.01	12582	
715.19	13718	
715.37	12839	
715.55	11886	
715.74	12119	
715.92	14178	
716.1	12027	
716.28	13177	
716.47	11820	
716.65	12543	
716.83	12772	
717.01	11654	
717.19	11720	
717.38	15041	
717.56	12390	
717.74	12095	
717.92	11312	
718.1	13827	
718.29	13310	
718.47	11355	
718.65	12244	
718.83	14508	
719.01	14627	
719.2	11723	
719.38	13089	
719.56	14434	
719.74	16051	
719.92	12457	
720.11	13454	
720.29	14078	
720.47	13011	
720.65	11470	
720.83	12161	
721.02	12742	
721.2	12404	
721.38	11873	
721.56	10934	
721.74	11865	
721.92	11931	
722.11	12268	
722.29	11953	
722.47	13260	
722.65	12342	
722.83	10787	
723.01	11720	
723.2	12333	
723.38	12635	
723.56	10258	
723.74	11443	
723.92	11806	
724.1	13081	
724.29	10701	
724.47	11910	
724.65	11799	
724.83	11693	
725.01	10333	
725.19	11325	
725.37	11652	
725.56	11905	
725.74	10193	
725.92	10626	
726.1	11637	
726.28	11891	
726.46	10868	
726.64	10546	
726.83	11828	
727.01	12067	
727.19	10081	
727.37	11030	
727.55	11923	
727.73	12562	
727.91	10119	
728.09	9828.2	
728.28	12525	
728.46	13155	
728.64	11339	
728.82	11294	
729	13760	
729.18	13122	
729.36	10483	
729.54	12856	
729.72	14324	
729.91	12666	
730.09	12587	
730.27	11574	
730.45	12515	
730.63	13355	
730.81	12194	
730.99	11213	
731.17	13820	
731.35	12195	
731.53	11800	
731.71	11231	
731.9	13388	
732.08	13532	
732.26	11312	
732.44	11065	
732.62	13504	
732.8	13011	
732.98	11716	
733.16	10663	
733.34	12712	
733.52	11465	
733.7	11085	
733.88	11417	
734.07	12466	
734.25	12263	
734.43	10586	
734.61	12222	
734.79	13943	
734.97	12151	
735.15	10604	
735.33	11001	
735.51	12520	
735.69	12151	
735.87	11996	
736.05	11139	
736.23	12161	
736.41	11936	
736.59	10852	
736.77	11071	
736.95	12766	
737.13	12085	
737.32	10531	
737.5	10770	
737.68	13111	
737.86	11883	
738.04	10127	
738.22	12035	
738.4	11455	
738.58	11813	
738.76	10733	
738.94	9653.4	
739.12	11615	
739.3	11419	
739.48	11374	
739.66	11173	
739.84	11870	
740.02	11883	
740.2	9598.8	
740.38	10004	
740.56	12289	
740.74	10960	
740.92	10664	
741.1	10499	
741.28	11439	
741.46	11262	
741.64	10009	
741.82	10568	
742	11462	
742.18	11476	
742.36	10199	
742.54	9691.7	
742.72	11909	
742.9	10477	
743.08	10475	
743.26	9194.7	
743.44	12069	
743.62	11820	
743.8	10518	
743.98	9417.2	
744.16	11413	
744.34	11156	
744.52	10303	
744.7	10238	
744.88	11388	
745.06	10873	
745.24	10101	
745.42	10320	
745.6	11350	
745.78	11030	
745.96	8745.5	
746.14	9092.3	
746.32	11907	
746.5	11226	
746.68	9602.2	
746.86	9006.3	
747.03	11632	
747.21	9739.5	
747.39	9462.3	
747.57	8918.9	
747.75	10596	
747.93	11044	
748.11	8922.3	
748.29	8798.8	
748.47	12319	
748.65	10213	
748.83	9673.2	
749.01	9339.4	
749.19	10790	
749.37	9929.9	
749.55	9114.8	
749.73	9241.8	
749.91	10357	
750.09	9960.6	
750.26	9179.7	
750.44	8552.3	
750.62	10348	
750.8	10307	
750.98	8273.8	
751.16	8714.1	
751.34	10349	
751.52	9549	
751.7	9542.2	
751.88	8260.8	
752.06	10813	
752.24	10482	
752.42	8163.2	
752.59	8570.7	
752.77	10053	
752.95	11428	
753.13	9255.5	
753.31	8617.9	
753.49	9702.6	
753.67	10165	
753.85	8786.5	
754.03	8401.5	
754.21	10236	
754.38	10564	
754.56	8305.2	
754.74	7154.9	
754.92	9090.9	
755.1	9747.6	
755.28	6801.3	
755.46	6625.9	
755.64	9807.7	
755.82	9667.8	
755.99	6077	
756.17	5963.7	
756.35	6384.2	
756.53	7991.2	
756.71	4524.6	
756.89	5552.7	
757.07	7417.1	
757.25	6696.2	
757.42	6374	
757.6	7472.4	
757.78	8043.7	
757.96	7079.8	
758.14	6336.4	
758.32	5890	
758.5	6513.2	
758.67	7443	
758.85	6065.4	
759.03	6128.2	
759.21	7563.1	
759.39	7004.7	
759.57	5524.7	
759.75	6873	
759.92	8301.1	
760.1	7527	
760.28	7388.4	
760.46	7718.8	
760.64	7471.7	
760.82	7251.9	
760.99	7163.8	
761.17	6474.3	
761.35	8558.5	
761.53	7443	
761.71	6767.9	
761.89	7617.1	
762.06	8518.2	
762.24	8016.4	
762.42	6929	
762.6	6780.8	
762.78	8084	
762.96	8895	
763.13	7591.1	
763.31	7136.5	
763.49	9093.7	
763.67	8146.8	
763.85	8043.1	
764.02	8694.3	
764.2	9280.7	
764.38	8381	
764.56	6985.6	
764.74	7996	
764.91	9362.6	
765.09	8160.5	
765.27	6655.9	
765.45	6410.8	
765.63	9300.5	
765.8	9254.1	
765.98	6083.8	
766.16	6358.3	
766.34	7596.6	
766.52	7276.4	
766.69	7405.5	
766.87	6196.5	
767.05	7955	
767.23	8783.1	
767.41	6369.9	
767.58	6724.8	
767.76	8499.1	
767.94	8598.1	
768.12	6430.6	
768.29	7242.3	
768.47	7817.8	
768.65	8667	
768.83	6006.7	
769	7131	
769.18	7286.7	
769.36	8101.8	
769.54	7140.6	
769.72	5882.4	
769.89	8305.2	
770.07	8467.7	
770.25	6152.8	
770.43	7456.7	
770.6	9057.5	
770.78	9553.1	
770.96	6297.5	
771.14	6176	
771.31	8000	
771.49	7303.1	
771.67	5248.9	
771.85	5575.3	
772.02	6516.6	
772.2	7288	
772.38	6330.3	
772.55	5774.6	
772.73	7501.7	
772.91	7265.5	
773.09	6122.7	
773.26	6242.2	
773.44	7461.4	
773.62	7053.9	
773.8	5545.2	
773.97	5317.2	
774.15	7459.4	
774.33	6963.8	
774.5	5390.3	
774.68	5778.7	
774.86	7519.5	
775.04	7022.5	
775.21	5445.5	
775.39	5421.7	
775.57	7213.6	
775.74	7679.2	
775.92	5148.6	
776.1	5025.7	
776.27	7133.8	
776.45	8452.6	
776.63	5276.9	
776.81	4810	
776.98	6671.6	
777.16	7796.6	
777.34	5488.6	
777.51	5763	
777.69	6584.9	
777.87	6406.7	
778.04	5393.7	
778.22	6055.2	
778.4	6376.7	
778.57	7107.8	
778.75	4517.8	
778.93	4918.5	
779.1	6158.2	
779.28	5939.1	
779.46	4547.2	
779.64	5047.6	
779.81	7155.6	
779.99	8107.9	
780.17	5905.7	
780.34	6023.8	
780.52	6539.8	
780.69	6722.1	
780.87	5421	
781.05	4907.6	
781.22	6519.4	
781.4	6610.2	
781.58	4957.4	
781.75	4094.6	
781.93	6550.1	
782.11	5892	
782.28	5941.2	
782.46	4926	
782.64	5723.4	
782.81	6596.5	
782.99	4953.4	
783.17	4969.7	
783.34	6539.2	
783.52	5738.4	
783.69	5148.6	
783.87	5976.7	
784.05	5699.5	
784.22	5792.3	
784.4	5932.3	
784.58	5176.6	
784.75	6787.7	
784.93	5762.3	
785.1	4747.2	
785.28	5451.7	
785.46	6471.6	
785.63	5719.3	
785.81	4727.4	
785.99	4567.7	
786.16	5851.7	
786.34	6243.6	
786.51	4584	
786.69	5011.4	
786.87	5365	
787.04	5958.9	
787.22	4409.3	
787.39	5475.6	
787.57	5591.6	
787.75	6865.5	
787.92	5603.9	
788.1	5599.1	
788.27	5713.2	
788.45	5409.4	
788.63	5242.8	
788.8	3872	
788.98	6054.5	
789.15	5315.8	
789.33	4025.6	
789.5	4686.4	
789.68	6659.3	
789.86	6723.5	
790.03	5109.7	
790.21	4505.5	
790.38	6455.2	
790.56	5769.1	
790.73	4269.3	
790.91	4383.3	
791.09	5559.6	
791.26	6380.1	
791.44	4607.2	
791.61	4090.5	
791.79	5609.4	
791.96	5662	
792.14	4095.9	
792.32	3665.9	
792.49	5561.6	
792.67	5681.7	
792.84	4221.5	
793.02	3941	
793.19	5967.8	
793.37	6847	
793.54	3670.6	
793.72	4016.7	
793.89	6940.6	
794.07	5486.5	
794.25	4589.5	
794.42	3732.8	
794.6	6636.8	
794.77	6217	
794.95	4958.8	
795.12	4333.5	
795.3	5433.9	
795.47	6135.7	
795.65	4738.3	
795.82	4560.1	
796	5316.5	
796.17	7337.2	
796.35	4328	
796.52	5180.7	
796.7	6014.2	
796.87	6162.3	
797.05	5388.9	
797.22	5382.7	
797.4	6097.5	
797.57	7207.5	
797.75	4545.8	
797.92	4500.1	
798.1	6410.8	
798.27	5480.4	
798.45	3689.1	
798.62	3981.3	
798.8	5838.1	
798.97	6324.1	
799.15	4784.7	
799.32	4498.7	
799.5	5004.6	
799.67	5879	
799.85	4889.9	
800.02	3567.6	
800.2	5393	
800.37	5752.7	
800.55	5094	
800.72	4222.9	
800.9	6170.5	
801.07	6748.7	
801.25	5666	
801.42	4681.7	
801.6	6313.2	
801.77	5905	
801.95	4324.6	
802.12	4104.8	
802.29	5950.7	
802.47	5951.4	
802.64	4521.9	
802.82	3493.2	
802.99	5348.6	
803.17	6388.3	
803.34	4474.1	
803.52	4044.1	
803.69	7058.7	
803.87	5163.6	
804.04	4443.4	
804.21	4560.1	
804.39	6535.8	
804.56	5580.7	
804.74	3822.9	
804.91	4624.3	
805.09	5339.7	
805.26	5570.5	
805.44	3878.9	
805.61	4301.4	
805.78	6037.4	
805.96	6032	
806.13	4573.8	
806.31	4956.1	
806.48	4878.9	
806.66	5437.4	
806.83	4556	
807	4483.7	
807.18	5266	
807.35	5735.7	
807.53	4437.3	
807.7	3563.5	
807.87	6565.8	
808.05	5369.1	
808.22	4867.3	
808.4	3564.1	
808.57	5357.5	
808.74	4969.1	
808.92	4056.3	
809.09	5131.5	
809.27	5199.8	
809.44	5865.4	
809.61	3567.6	
809.79	3962.1	
809.96	6570.6	
810.14	6187.6	
810.31	3469.9	
810.48	4184.7	
810.66	5393	
810.83	6208.1	
811.01	3999	
811.18	4446.8	
811.35	6072.9	
811.53	4768.4	
811.7	4861.9	
811.87	4555.4	
812.05	5259.2	
812.22	5218.9	
812.39	3960.8	
812.57	3798.3	
812.74	5354.8	
812.92	7103.7	
813.09	4205.8	
813.26	4597	
813.44	6816.3	
813.61	5285.1	
813.78	3551.9	
813.96	4769	
814.13	5341.8	
814.3	4967	
814.48	5129.5	
814.65	4233.8	
814.82	6613.6	
815	5073.5	
815.17	4373.8	
815.34	5296.7	
815.52	5244.2	
815.69	5290.6	
815.87	4301.4	
816.04	3777.1	
816.21	5429.2	
816.38	4681.7	
816.56	4111	
816.73	3878.2	
816.9	6738.5	
817.08	6100.2	
817.25	3890.5	
817.42	4957.4	
817.6	4872.1	
817.77	5367.7	
817.94	4448.2	
818.12	3850.2	
818.29	5089.2	
818.46	7977.5	
818.64	4042	
818.81	3800.3	
818.98	4928.1	
819.16	7280.5	
819.33	4610.7	
819.5	4367	
819.67	5796.4	
819.85	6404.7	
820.02	4201.1	
820.19	4502.1	
820.37	5552	
820.54	5112.4	
820.71	4433.9	
820.88	5485.8	
821.06	5613.5	
821.23	5085.8	
821.4	4406.5	
821.58	4390.8	
821.75	6090	
821.92	5431.2	
822.09	3571.7	
822.27	3661.1	
822.44	5336.3	
822.61	5238.7	
822.79	3553.9	
822.96	6842.9	
823.13	5800.5	
823.3	5073.5	
823.48	4158.1	
823.65	3658.4	
823.82	5999.2	
823.99	4814.1	
824.17	5199.8	
824.34	3738.2	
824.51	7034.8	
824.68	5399.1	
824.86	3885	
825.03	4368.3	
825.2	5310.4	
825.37	6481.1	
825.55	3930.7	
825.72	4313	
825.89	7154.9	
826.06	6561	
826.24	4154.6	
826.41	4260.5	
826.58	6467.5	
826.75	5590.3	
826.92	3340.9	
827.1	3717.1	
827.27	8828.8	
827.44	7018.4	
827.61	3997	
827.79	4895.3	
827.96	4997	
828.13	5379.3	
828.3	4150.6	
828.47	3534.8	
828.65	5541.8	
828.82	5418.9	
828.99	5465.3	
829.16	4722.6	
829.34	5928.2	
829.51	5822.4	
829.68	4328.7	
829.85	4545.8	
830.02	6197.8	
830.2	5907.7	
830.37	3362.1	
830.54	5147.9	
830.71	6789.7	
830.88	5292.6	
831.05	3423.5	
831.23	3904.8	
831.4	6441.5	
831.57	7259.4	
831.74	4039.3	
831.91	3542.3	
832.09	5521.3	
832.26	5943.9	
832.43	4124.6	
832.6	4683	
832.77	5568.4	
832.94	6364.4	
833.12	3334.1	
833.29	4169.7	
833.46	5146.5	
833.63	7527.7	
833.8	4563.6	
833.97	4181.3	
834.15	5971.9	
834.32	5666	
834.49	4369	
834.66	4450.9	
834.83	6206	
835	4993.6	
835.17	3990.1	
835.35	4064.5	
835.52	5787.6	
835.69	5721.3	
835.86	4234.5	
836.03	3493.2	
836.2	5884.5	
836.37	5509.7	
836.55	4192.9	
836.72	3880.9	
836.89	5479	
837.06	5995.8	
837.23	4271.4	
837.4	4648.2	
837.57	6758.3	
837.75	7524.9	
837.92	3812.6	
838.09	4056.3	
838.26	5505.6	
838.43	6306.4	
838.6	4334.2	
838.77	3874.8	
838.94	7118.1	
839.11	6788.3	
839.29	4135.5	
839.46	3268.6	
839.63	5842.2	
839.8	5608.7	
839.97	4018.8	
840.14	4014.7	
840.31	5685.8	
840.48	5981.4	
840.65	3352.5	
840.82	4076.1	
841	5891.3	
841.17	5923.4	
841.34	3756	
841.51	3730.7	
841.68	5797.8	
841.85	5548.6	
842.02	3845.4	
842.19	3137.5	
842.36	5640.8	
842.53	5584.1	
842.7	3690.4	
842.87	4515.1	
843.05	7414.3	
843.22	5560.9	
843.39	3453.6	
843.56	3701.4	
843.73	5278.3	
843.9	5956.9	
844.07	5916.6	
844.24	5022.3	
844.41	8795.3	
844.58	5078.3	
844.75	3590.1	
844.92	3871.3	
845.09	5890	
845.26	5856.5	
845.43	3640.6	
845.6	3846.8	
845.77	5870.8	
845.94	5517.2	
846.12	4031.8	
846.29	4246.1	
846.46	6092.7	
846.63	5856.5	
846.8	3674.7	
846.97	4343.1	
847.14	6369.9	
847.31	5773.9	
847.48	4151.9	
847.65	4598.4	
847.82	6232	
847.99	6182.1	
848.16	5010.7	
848.33	4588.1	
848.5	5379.3	
848.67	6390.3	
848.84	3689.8	
849.01	3889.1	
849.18	5287.9	
849.35	4934.9	
849.52	4615.4	
849.69	3547.1	
849.86	6021.7	
850.03	6318.7	
850.2	3683.6	
850.37	4496.7	
850.54	6249	
850.71	5510.4	
850.88	4426.3	
851.05	3660.4	
851.22	5792.3	
851.39	6451.8	
851.56	3444.7	
851.73	4174.4	
851.9	5061.9	
852.07	6161	
852.24	4108.9	
852.41	3618.8	
852.58	5715.2	
852.75	5165	
852.92	4138.3	
853.09	3573	
853.26	5450.3	
853.43	6283.2	
853.6	3657.7	
853.77	3121.1	
853.94	6483.9	
854.11	5768.4	
854.28	5447.6	
854.44	3988.8	
854.61	6767.2	
854.78	6255.2	
854.95	3659.7	
855.12	4590.2	
855.29	4721.9	
855.46	6498.2	
855.63	3647.4	
855.8	5005.9	
855.97	5315.2	
856.14	6165.8	
856.31	5210.7	
856.48	3968.3	
856.65	5359.5	
856.82	5122	
856.99	3491.8	
857.16	3951.9	
857.33	7147.4	
857.49	5441.5	
857.66	3921.9	
857.83	4265.2	
858	5451	
858.17	5686.5	
858.34	3475.4	
858.51	3639.9	
858.68	6580.8	
858.85	6654.5	
859.02	4320.5	
859.19	4548.5	
859.36	5097.4	
859.52	5203.2	
859.69	3638.6	
859.86	4336.2	
860.03	5210.7	
860.2	6398.5	
860.37	3268.6	
860.54	3706.1	
860.71	6148	
860.88	6565.8	
861.05	4119.1	
861.21	4622.3	
861.38	6630.6	
861.55	5013.4	
861.72	3278.8	
861.89	4069.3	
862.06	6146	
862.23	6753.5	
862.4	3527.3	
862.56	3816	
862.73	5939.1	
862.9	5670.8	
863.07	4302.8	
863.24	3336.8	
863.41	4976.6	
863.58	5130.2	
863.75	3687	
863.91	4186	
864.08	6517.3	
864.25	6065.4	
864.42	4614.1	
864.59	5150.6	
864.76	6855.9	
864.93	5105.6	
865.09	3571.7	
865.26	3894.6	
865.43	6351.4	
865.6	6757.6	
865.77	3160	
865.94	3636.5	
866.1	6477.7	
866.27	6146.6	
866.44	5511.8	
866.61	3390.1	
866.78	5498.8	
866.95	5993.7	
867.11	3477.5	
867.28	3213.9	
867.45	6161	
867.62	5175.2	
867.79	4354.7	
867.96	3657	
868.12	5136.3	
868.29	6143.9	
868.46	3108.8	
868.63	4843.4	
868.8	6315.3	
868.97	6079.7	
869.13	3852.9	
869.3	3792.2	
869.47	5967.1	
869.64	6222.4	
869.81	3635.1	
869.97	3677.5	
870.14	5889.3	
870.31	6591.7	
870.48	3612.6	
870.65	4601.1	
870.81	5463.3	
870.98	5371.8	
871.15	4114.4	
871.32	3777.8	
871.48	5934.3	
871.65	6594.5	
871.82	3633.1	
871.99	4048.2	
872.16	7072.3	
872.32	6399.2	
872.49	3640.6	
872.66	3675.4	
872.83	6118	
872.99	5324	
873.16	4192.9	
873.33	3590.1	
873.5	5666	
873.67	5708.4	
873.83	3846.1	
874	4863.2	
874.17	5767.8	
874.34	6959	
874.5	4703.5	
874.67	4525.3	
874.84	6597.2	
875.01	5116.5	
875.17	5208.7	
875.34	3585.3	
875.51	5773.9	
875.68	6982.2	
875.84	4388.1	
876.01	5414.8	
876.18	6085.2	
876.34	5937.1	
876.51	3655.6	
876.68	3552.5	
876.85	5533.6	
877.01	6397.9	
877.18	5178.6	
877.35	3597.6	
877.52	5646.2	
877.68	5008.6	
877.85	3522.5	
878.02	3532.7	
878.18	5637.4	
878.35	5328.8	
878.52	2948.4	
878.69	4071.4	
878.85	6038.8	
879.02	6024.4	
879.19	5159.5	
879.35	3923.2	
879.52	5982.8	
879.69	6274.3	
879.86	3176.4	
880.02	4059.1	
880.19	5590.3	
880.36	6925.5	
880.52	4190.8	
880.69	4328.7	
880.86	6118	
881.02	6216.3	
881.19	3988.1	
881.36	4024.9	
881.52	5999.9	
881.69	5290.6	
881.86	3892.5	
882.02	3839.9	
882.19	6348.7	
882.36	7426.6	
882.52	3738.9	
882.69	5139	
882.86	5825.1	
883.02	5698.1	
883.19	4437.3	
883.36	4229.1	
883.52	6150.7	
883.69	7038.2	
883.86	3646.7	
884.02	3293.1	
884.19	6127.5	
884.36	5640.1	
884.52	4080.9	
884.69	3912.3	
884.86	5345.2	
885.02	6731.7	
885.19	3999	
885.36	4244.8	
885.52	5663.3	
885.69	5741.1	
885.86	5282.4	
886.02	4668	
886.19	6102.3	
886.35	5535	
886.52	4008.6	
886.69	5082.4	
886.85	5096.7	
887.02	6478.4	
887.19	6478.4	
887.35	6478.4	
887.52	6478.4	
887.68	6478.4	
887.85	6478.4	
888.02	6478.4	
888.18	6478.4	
888.35	6478.4	
888.51	6478.4	
888.68	6478.4	
888.85	6478.4	
889.01	6478.4	
889.18	6478.4	
889.35	6478.4	
889.51	6478.4	
889.68	6478.4	
889.84	6478.4	
890.01	6478.4	
890.17	6478.4	
890.34	6478.4	
890.51	6478.4	
890.67	6478.4	
890.84	6478.4	
891	6478.4	
891.17	6478.4	
891.34	6478.4	
891.5	6478.4	
891.67	6478.4	
891.83	6478.4	
892	6478.4	
892.16	6478.4	
892.33	6478.4	
892.5	6478.4	
892.66	6478.4	
892.83	6478.4	
892.99	6478.4	
893.16	6478.4	
893.32	6478.4	
893.49	6478.4	
893.65	6478.4	
893.82	6478.4	
893.99	6478.4	
894.15	6478.4	
894.32	6478.4	
894.48	6478.4	
894.65	6478.4	
894.81	6478.4	
894.98	6478.4	
895.14	6478.4	
895.31	6478.4	
895.47	6478.4	
895.64	6478.4	
895.81	6478.4	
895.97	6478.4	
896.14	6478.4	
896.3	6478.4	
896.47	6478.4	
896.63	6478.4	
896.8	6478.4	
896.96	6478.4	
897.13	6478.4	
897.29	6478.4	
897.46	6478.4	
897.62	6478.4	
897.79	6478.4	
897.95	6478.4	
898.12	6478.4	
898.28	6478.4	
898.45	6478.4	
898.61	6478.4	
898.78	6478.4	
898.94	6478.4	
899.11	6478.4	
899.27	6478.4	
899.44	6478.4	
899.6	6478.4	
899.77	6478.4	
899.93	6478.4	
900.1	6478.4	
900.26	6478.4	
900.43	6478.4	
900.59	6478.4	
900.76	6478.4	
900.92	6478.4	
901.09	6478.4	
901.25	6478.4	
901.42	6478.4	
901.58	6478.4	
901.75	6478.4	
901.91	6478.4	
902.07	6478.4	
902.24	6478.4	
902.4	6478.4	
902.57	6478.4	
902.73	6478.4	
902.9	6478.4	
903.06	6478.4	
903.23	6478.4	
903.39	6478.4	
903.56	6478.4	
903.72	6478.4	
903.88	6478.4	
904.05	6478.4	
904.21	6478.4	
904.38	6478.4	
904.54	6478.4	
904.71	6478.4	
904.87	6478.4	
905.03	6478.4	
905.2	6478.4	
905.36	6478.4	
905.53	6478.4	
905.69	6478.4	
905.86	6478.4	
906.02	6478.4	
906.18	6478.4	
906.35	6478.4	
906.51	6478.4	
906.68	6478.4	
906.84	6478.4	
907.01	6478.4	
907.17	6478.4	
907.33	6478.4	
907.5	6478.4	
907.66	6478.4	
907.83	6478.4	
907.99	6478.4	
908.15	6478.4	
908.32	6478.4	
908.48	6478.4	
908.65	6478.4	
908.81	6478.4	
908.97	6478.4	
909.14	6478.4	
909.3	6478.4	
909.47	6478.4	
909.63	6478.4	
909.79	6478.4	
909.96	6478.4	
910.12	6478.4	
910.28	6478.4	
910.45	6478.4	
910.61	6478.4	
910.78	6478.4	
910.94	6478.4	
911.1	6478.4	
911.27	6478.4	
911.43	6478.4	
911.59	6478.4	
911.76	6478.4	
911.92	6478.4	
912.08	6478.4	
912.25	6478.4	
912.41	6478.4	
912.57	6478.4	
912.74	6478.4	
912.9	6478.4	
913.07	6478.4	
913.23	6478.4	
913.39	6478.4	
913.56	6478.4	
913.72	6478.4	
913.88	6478.4	
914.05	6478.4	
914.21	6478.4	
914.37	6478.4	
914.54	6478.4	
914.7	6478.4	
914.86	6478.4	
915.03	6478.4	
915.19	6478.4	
