Wavelength	Intensities	
nm	a.u.	
179.22	1848	
179.44	1865	
179.65	1830.9	
179.86	1899.1	
180.08	1884.1	
180.29	4846.2	
180.51	3453.6	
180.72	5530.9	
180.94	6475.7	
181.15	3183.2	
181.37	3121.8	
181.58	5369.1	
181.79	5691.3	
182.01	3315	
182.22	3543	
182.44	5666.7	
182.65	4761.5	
182.87	4421.6	
183.08	3908.2	
183.29	5972.6	
183.51	4928.8	
183.72	3571.7	
183.94	5181.4	
184.15	5350.7	
184.37	5298.8	
184.58	3139.5	
184.79	4320.5	
185.01	4934.9	
185.22	5745.2	
185.44	4629.1	
185.65	3789.4	
185.86	5195.7	
186.08	4831.2	
186.29	3102.7	
186.51	3298.6	
186.72	4975.2	
186.94	5868.8	
187.15	3833.1	
187.36	3913.7	
187.58	7582.9	
187.79	5431.9	
188.01	4117.1	
188.22	6335.1	
188.43	6522.1	
188.65	5626.5	
188.86	3282.2	
189.08	3971	
189.29	5153.4	
189.5	5175.9	
189.72	3607.2	
189.93	3705.5	
190.15	5866.1	
190.36	7013.6	
190.57	4005.1	
190.79	3893.9	
191	5948.7	
191.22	5906.3	
191.43	4005.8	
191.64	3271.3	
191.86	6080.4	
192.07	5956.9	
192.29	3466.5	
192.5	3647.4	
192.71	5912.5	
192.93	5069.4	
193.14	3646.7	
193.35	3706.1	
193.57	5087.2	
193.78	5824.4	
194	2922.5	
194.21	3538.9	
194.42	4902.8	
194.64	5313.1	
194.85	3973.7	
195.07	4596.3	
195.28	5364.3	
195.49	4662.5	
195.71	4874.2	
195.92	3373	
196.13	5536.3	
196.35	5586.2	
196.56	5202.5	
196.78	4013.3	
196.99	6903	
197.2	6504.3	
197.42	4469.4	
197.63	3947.1	
197.84	4763.6	
198.06	5527.5	
198.27	3652.9	
198.48	4855.7	
198.7	5143.8	
198.91	5292	
199.13	3975.1	
199.34	4036.5	
199.55	5728.9	
199.77	4625	
199.98	3489.7	
200.19	3963.5	
200.41	5197.7	
200.62	4915.8	
200.83	4102.8	
201.05	4501.4	
201.26	5249.6	
201.47	5016.2	
201.69	3525.9	
201.9	3380.5	
202.11	5286.5	
202.33	6331.6	
202.54	3762.8	
202.76	4165.6	
202.97	5485.8	
203.18	5436	
203.4	4135.5	
203.61	4013.3	
203.82	5364.3	
204.04	5050.3	
204.25	4061.1	
204.46	3917.8	
204.68	5341.8	
204.89	5605.3	
205.1	3885.7	
205.32	3353.9	
205.53	5740.5	
205.74	5842.9	
205.96	2866.5	
206.17	4040	
206.38	5683.1	
206.6	5855.8	
206.81	4597	
207.02	3731.4	
207.24	5583.4	
207.45	5986.2	
207.66	3827.7	
207.88	3213.3	
208.09	5569.8	
208.3	5361.6	
208.52	3486.3	
208.73	3822.2	
208.94	5307.7	
209.15	6047.7	
209.37	3820.1	
209.58	3990.8	
209.79	5877	
210.01	5107.6	
210.22	3100.6	
210.43	3210.5	
210.65	5331.5	
210.86	5737.7	
211.07	3773.7	
211.29	3479.5	
211.5	5715.2	
211.71	5254.4	
211.93	3478.8	
212.14	3474	
212.35	5280.3	
212.56	5440.1	
212.78	3989.4	
212.99	3294.5	
213.2	6260	
213.42	5158.2	
213.63	3627	
213.84	3834.5	
214.06	4742.4	
214.27	4807.9	
214.48	3834.5	
214.69	4063.2	
214.91	6006	
215.12	6079.1	
215.33	4057	
215.55	4460.5	
215.76	6533.7	
215.97	5761.6	
216.18	3913	
216.4	3833.1	
216.61	5010	
216.82	5792.3	
217.04	3563.5	
217.25	3680.2	
217.46	5929.6	
217.67	5688.6	
217.89	3126.6	
218.1	3235.8	
218.31	5452.4	
218.53	5481	
218.74	3639.9	
218.95	3547.1	
219.16	5270.8	
219.38	6190.3	
219.59	3562.1	
219.8	4233.8	
220.01	6876.4	
220.23	5386.8	
220.44	4692.6	
220.65	3527.3	
220.87	5402.5	
221.08	5973.2	
221.29	3237.8	
221.5	4299.4	
221.72	7283.3	
221.93	5066	
222.14	4045.4	
222.35	4738.3	
222.57	5349.3	
222.78	5713.2	
222.99	3816.7	
223.2	4138.9	
223.42	5638.1	
223.63	5727.5	
223.84	2924.5	
224.05	2948.4	
224.27	6804.7	
224.48	6214.2	
224.69	4704.9	
224.9	3976.5	
225.12	5498.8	
225.33	5310.4	
225.54	3222.1	
225.75	3576.4	
225.97	4937.7	
226.18	5221.6	
226.39	3796.9	
226.6	3549.1	
226.82	5100.8	
227.03	4953.4	
227.24	3951.2	
227.45	3308.8	
227.67	5712.5	
227.88	6251.1	
228.09	4381.3	
228.3	4518.5	
228.52	5762.3	
228.73	5250.3	
228.94	3734.1	
229.15	3309.5	
229.36	5281	
229.58	5200.5	
229.79	3730	
230	4287.8	
230.21	6312.5	
230.43	5414.8	
230.64	4020.8	
230.85	4139.6	
231.06	5733.6	
231.28	5786.2	
231.49	3269.9	
231.7	3824.2	
231.91	5609.4	
232.12	5384.8	
232.34	3373.7	
232.55	3917.8	
232.76	5927.5	
232.97	5476.3	
233.18	3496.6	
233.4	3884.3	
233.61	5608.7	
233.82	5191.6	
234.03	3680.9	
234.25	3592.1	
234.46	7410.2	
234.67	5358.9	
234.88	4036.5	
235.09	3512.3	
235.31	5642.2	
235.52	5267.4	
235.73	3950.5	
235.94	3339.6	
236.15	5096.7	
236.37	6466.8	
236.58	3518.4	
236.79	3823.6	
237	5689.9	
237.21	4897.4	
237.43	4072	
237.64	3232.4	
237.85	9618.6	
238.06	4931.5	
238.27	4158.7	
238.48	3345.7	
238.7	5659.2	
238.91	5146.5	
239.12	3805.1	
239.33	3812.6	
239.54	5044.8	
239.76	5222.3	
239.97	3747.8	
240.18	3808.5	
240.39	6682.5	
240.6	5608	
240.82	3955.3	
241.03	3229	
241.24	5345.2	
241.45	6221.7	
241.66	3519.8	
241.87	4102.8	
242.09	6044.2	
242.3	6420.4	
242.51	4146.5	
242.72	3846.8	
242.93	5817.6	
243.14	5269.4	
243.36	4420.9	
243.57	4778.6	
243.78	6219	
243.99	5668.1	
244.2	3831.7	
244.41	3480.2	
244.63	4904.9	
244.84	5625.1	
245.05	4072	
245.26	3811.3	
245.47	5631.9	
245.68	5892.7	
245.9	5130.8	
246.11	3991.5	
246.32	5193	
246.53	5554.1	
246.74	6206	
246.95	3230.3	
247.16	4887.1	
247.38	5412.1	
247.59	3188.7	
247.8	3860.4	
248.01	5005.9	
248.22	5285.1	
248.43	3465.8	
248.64	3741	
248.86	4743.1	
249.07	5082.4	
249.28	3360.7	
249.49	3956.7	
249.7	5855.8	
249.91	6031.3	
250.12	3196.2	
250.34	3237.8	
250.55	5444.9	
250.76	5350	
250.97	3947.8	
251.18	4007.2	
251.39	6044.9	
251.6	5517.2	
251.81	4048.2	
252.03	4022.9	
252.24	5122	
252.45	5810.8	
252.66	3328.6	
252.87	4285	
253.08	5341.1	
253.29	7032	
253.5	3321.1	
253.72	4668.7	
253.93	5217.5	
254.14	6378.1	
254.35	3613.3	
254.56	3748.5	
254.77	5573.2	
254.98	4944.5	
255.19	3536.8	
255.41	4623.6	
255.62	5428.5	
255.83	5991	
256.04	4134.2	
256.25	4048.8	
256.46	6527.6	
256.67	5033.9	
256.88	3906.8	
257.09	4406.5	
257.31	4986.1	
257.52	5074.2	
257.73	4977.2	
257.94	3581.2	
258.15	5207.3	
258.36	5320.6	
258.57	4593.6	
258.78	2900.6	
258.99	5797.1	
259.2	5179.3	
259.41	3694.5	
259.63	3779.9	
259.84	6220.4	
260.05	6556.9	
260.26	4801.1	
260.47	3498.6	
260.68	5924.8	
260.89	5257.1	
261.1	4367	
261.31	3439.2	
261.52	5926.8	
261.73	6255.9	
261.95	4709.6	
262.16	4119.1	
262.37	6032	
262.58	6199.2	
262.79	4714.4	
263	3717.7	
263.21	5317.9	
263.42	4893.3	
263.63	3761.4	
263.84	3697.9	
264.05	5876.3	
264.26	6195.1	
264.47	4608.6	
264.69	4116.4	
264.9	5988.9	
265.11	5522.7	
265.32	3552.5	
265.53	3671.3	
265.74	5492.7	
265.95	4820.2	
266.16	3857.7	
266.37	4346.5	
266.58	5453.7	
266.79	5165.7	
267	3628.3	
267.21	3340.2	
267.42	4937.7	
267.63	5370.5	
267.84	3803.1	
268.06	3248.8	
268.27	5746.6	
268.48	6045.6	
268.69	3728.7	
268.9	4356.7	
269.11	6018.3	
269.32	4835.3	
269.53	3804.4	
269.74	3519.8	
269.95	5688.6	
270.16	4745.8	
270.37	3865.2	
270.58	4371.7	
270.79	5190.2	
271	5838.8	
271.21	4179.9	
271.42	3870.7	
271.63	5462.6	
271.84	4942.4	
272.05	3037.1	
272.26	3475.4	
272.47	5354.1	
272.68	5604.6	
272.89	3649.5	
273.11	4222.2	
273.32	5153.4	
273.53	6274.3	
273.74	4144.4	
273.95	4017.4	
274.16	5975.3	
274.37	5399.8	
274.58	4176.5	
274.79	3313.6	
275	5480.4	
275.21	6032	
275.42	5069.4	
275.63	4371	
275.84	5611.4	
276.05	7154.2	
276.26	4107.5	
276.47	3771.7	
276.68	5196.4	
276.89	6326.9	
277.1	4321.9	
277.31	3413.3	
277.52	5618.3	
277.73	5797.8	
277.94	3332	
278.15	3686.3	
278.36	5565	
278.57	5013.4	
278.78	3646.1	
278.99	4110.3	
279.2	5000.5	
279.41	4918.5	
279.62	4833.9	
279.83	3409.2	
280.04	6494.1	
280.25	4842.8	
280.46	4736.3	
280.67	3805.8	
280.88	4952	
281.09	5980.8	
281.3	3960.8	
281.51	5089.2	
281.72	5115.8	
281.93	5873.6	
282.14	3587.4	
282.35	3830.4	
282.56	5827.8	
282.77	5806	
282.98	3646.7	
283.19	4517.1	
283.4	7212.3	
283.61	5298.8	
283.82	3349.1	
284.03	4737	
284.24	5461.2	
284.45	6009.4	
284.66	4685.8	
284.87	4582	
285.08	5957.5	
285.29	6066.1	
285.5	3302.7	
285.71	3747.1	
285.92	5917.9	
286.12	6571.2	
286.33	4730.8	
286.54	3716.4	
286.75	5838.1	
286.96	5208	
287.17	3414.6	
287.38	4648.9	
287.59	4992.3	
287.8	4921.3	
288.01	3785.3	
288.22	4325.3	
288.43	5859.9	
288.64	4904.9	
288.85	4392.2	
289.06	4218.8	
289.27	5814.9	
289.48	6252.4	
289.69	4682.3	
289.9	4319.8	
290.11	6007.4	
290.32	5042.1	
290.53	4571.1	
290.74	4094.6	
290.94	5765.7	
291.15	5838.8	
291.36	3674.7	
291.57	4261.1	
291.78	5126.7	
291.99	4816.1	
292.2	3480.2	
292.41	4118.5	
292.62	5927.5	
292.83	5681.7	
293.04	5132.2	
293.25	3480.9	
293.46	5134.3	
293.67	5937.7	
293.88	3532.1	
294.09	3426.9	
294.29	4872.1	
294.5	5516.5	
294.71	3796.3	
294.92	3691.1	
295.13	5144.5	
295.34	6402	
295.55	3220.8	
295.76	3380.5	
295.97	5724.1	
296.18	6495.5	
296.39	3381.2	
296.6	3572.3	
296.81	5477.6	
297.01	5763.7	
297.22	3725.9	
297.43	3588	
297.64	5090.6	
297.85	5005.9	
298.06	2983.2	
298.27	3190.7	
298.48	5408.7	
298.69	5082.4	
298.9	3905.5	
299.11	3528.7	
299.31	4886.5	
299.52	4945.2	
299.73	4145.8	
299.94	4093.2	
300.15	5415.5	
300.36	4983.4	
300.57	4107.5	
300.78	4049.5	
300.99	5259.2	
301.2	5541.8	
301.4	3540.9	
301.61	3872	
301.82	5717.2	
302.03	5780.1	
302.24	4371.7	
302.45	3386.7	
302.66	5620.3	
302.87	6042.2	
303.08	3557.3	
303.29	4874.8	
303.49	5093.3	
303.7	5357.5	
303.91	3181.2	
304.12	4679.6	
304.33	4857.1	
304.54	5528.2	
304.75	3644	
304.96	3402.4	
305.16	5702.9	
305.37	6408.8	
305.58	3167.5	
305.79	3294.5	
306	5667.4	
306.21	4803.2	
306.42	3614	
306.63	5485.1	
306.83	5252.4	
307.04	5951.4	
307.25	3969.6	
307.46	3917.1	
307.67	4597	
307.88	5821	
308.09	3511.6	
308.29	3685	
308.5	5489.2	
308.71	5942.5	
308.92	3814	
309.13	3451.5	
309.34	5297.4	
309.55	5294	
309.75	4488.5	
309.96	4070.7	
310.17	5784.8	
310.38	5074.2	
310.59	4305.5	
310.8	4029.7	
311.01	6412.9	
311.21	5255.8	
311.42	3442	
311.63	3534.8	
311.84	5144.5	
312.05	5511.8	
312.26	3976.5	
312.46	4398.4	
312.67	5201.8	
312.88	4918.5	
313.09	3493.2	
313.3	3447.4	
313.51	6126.2	
313.71	6480.5	
313.92	3422.8	
314.13	3659.7	
314.34	5555.5	
314.55	5242.1	
314.76	4444.8	
314.96	3915.7	
315.17	5427.8	
315.38	5697.4	
315.59	3498.6	
315.8	3373.7	
316.01	6184.9	
316.21	6206	
316.42	3373.7	
316.63	3812.6	
316.84	5254.4	
317.05	6042.9	
317.26	4106.2	
317.46	3603.1	
317.67	5284.4	
317.88	5761.6	
318.09	4386.7	
318.3	3217.4	
318.5	5104.2	
318.71	5726.1	
318.92	5581.4	
319.13	4063.2	
319.34	5856.5	
319.54	5954.8	
319.75	3302	
319.96	3080.1	
320.17	5703.6	
320.38	6006	
320.58	3168.2	
320.79	3806.5	
321	5957.5	
321.21	6070.2	
321.42	3824.9	
321.62	3168.2	
321.83	5008.6	
322.04	5323.4	
322.25	3713	
322.46	3470.6	
322.66	5475.6	
322.87	5620.3	
323.08	4306.2	
323.29	3415.3	
323.5	6392.4	
323.7	4924.7	
323.91	4717.2	
324.12	4244.8	
324.33	5411.4	
324.53	5683.8	
324.74	4101.4	
324.95	4290.5	
325.16	4796.3	
325.37	5202.5	
325.57	3517.7	
325.78	3581.2	
325.99	5451.7	
326.2	4884.4	
326.4	5029.1	
326.61	3251.5	
326.82	5259.9	
327.03	5483.8	
327.24	4991.6	
327.44	4704.2	
327.65	5630.5	
327.86	4536.3	
328.07	4150.6	
328.27	3353.9	
328.48	6019	
328.69	4971.1	
328.9	4950.6	
329.1	3673.4	
329.31	5215.5	
329.52	6128.9	
329.73	3446	
329.93	3861.8	
330.14	5339.7	
330.35	5607.3	
330.56	5682.4	
330.76	4355.3	
330.97	5182.7	
331.18	5594.4	
331.39	3838.6	
331.59	3122.5	
331.8	5935.7	
332.01	6095.4	
332.22	3579.2	
332.42	4085.7	
332.63	5494	
332.84	5008.6	
333.05	3893.9	
333.25	3564.8	
333.46	5149.3	
333.67	5384.1	
333.88	3699.3	
334.08	4058.4	
334.29	7310.6	
334.5	5992.4	
334.7	3383.9	
334.91	4984.8	
335.12	4948.6	
335.33	5801.2	
335.53	3879.5	
335.74	5701.5	
335.95	5137	
336.16	4999.1	
336.36	3973.1	
336.57	4401.8	
336.78	4878.9	
336.98	5933	
337.19	4745.1	
337.4	3775.8	
337.61	6492.7	
337.81	4893.3	
338.02	3583.3	
338.23	4577.9	
338.43	6107.7	
338.64	5044.1	
338.85	3523.2	
339.05	4573.8	
339.26	6230.6	
339.47	4797.7	
339.68	3478.8	
339.88	5175.2	
340.09	5622.4	
340.3	5807.4	
340.5	4052.9	
340.71	3121.8	
340.92	4872.1	
341.13	6127.5	
341.33	3379.8	
341.54	4082.3	
341.75	5593	
341.95	5269.4	
342.16	3904.1	
342.37	4289.1	
342.57	4972.5	
342.78	5327.4	
342.99	4357.4	
343.19	3130	
343.4	5735	
343.61	5594.4	
343.81	3678.2	
344.02	3382.6	
344.23	5747.3	
344.43	6191.7	
344.64	4330.1	
344.85	4220.9	
345.06	5645.6	
345.26	5922.7	
345.47	4042.7	
345.68	4701.5	
345.88	4745.1	
346.09	5793.7	
346.3	4137.6	
346.5	3093.1	
346.71	5368.4	
346.92	5027.8	
347.12	3151.8	
347.33	4016.7	
347.54	5920.7	
347.74	6324.8	
347.95	4045.4	
348.16	2963.4	
348.36	5203.9	
348.57	4903.5	
348.78	3942.3	
348.98	4271.4	
349.19	5290.6	
349.39	4872.8	
349.6	3244.7	
349.81	3587.4	
350.01	5619.6	
350.22	5001.1	
350.43	3839.9	
350.63	4676.2	
350.84	5373.2	
351.05	5203.9	
351.25	3535.5	
351.46	3170.3	
351.67	5931.6	
351.87	5104.9	
352.08	3760.8	
352.29	4268.6	
352.49	5793.7	
352.7	5913.2	
352.9	3344.3	
353.11	4210.6	
353.32	6473.6	
353.52	5207.3	
353.73	3355.9	
353.94	4287.8	
354.14	5652.4	
354.35	5505.6	
354.55	3474.7	
354.76	3867.2	
354.97	5599.1	
355.17	5339.7	
355.38	3305.4	
355.59	4486.4	
355.79	5011.4	
356	5455.1	
356.2	3842	
356.41	3324.5	
356.62	4792.9	
356.82	5262.6	
357.03	4070	
357.24	3670	
357.44	5092.6	
357.65	5189.6	
357.85	4943.1	
358.06	3902.1	
358.27	4730.8	
358.47	4987.5	
358.68	3235.8	
358.88	4083.6	
359.09	5636.7	
359.3	5939.8	
359.5	4737	
359.71	4231.1	
359.91	6387.6	
360.12	5711.8	
360.33	4046.8	
360.53	4549.2	
360.74	5078.3	
360.94	5078.3	
361.15	4262.5	
361.36	3500.7	
361.56	5829.9	
361.77	5309.7	
361.97	4700.8	
362.18	3743	
362.38	5853.8	
362.59	4904.2	
362.8	3388.7	
363	3266.5	
363.21	4720.6	
363.41	5388.9	
363.62	3941.7	
363.83	5001.8	
364.03	5451.7	
364.24	6389.7	
364.44	5077.6	
364.65	4974.5	
364.85	5216.9	
365.06	5061.2	
365.27	3555.3	
365.47	3626.3	
365.68	6201.2	
365.88	5188.2	
366.09	4055	
366.29	3702	
366.5	5492	
366.71	5927.5	
366.91	4975.9	
367.12	4266.6	
367.32	6404.7	
367.53	5759.6	
367.73	4105.5	
367.94	5080.3	
368.14	5730.2	
368.35	6576	
368.56	4187.4	
368.76	3509.5	
368.97	5836	
369.17	7468.9	
369.38	3627.6	
369.58	3876.1	
369.79	4848.9	
369.99	6178.7	
370.2	4922	
370.4	4020.2	
370.61	5505.6	
370.82	6641.6	
371.02	3870.7	
371.23	3180.5	
371.43	4770.4	
371.64	6072.2	
371.84	3913	
372.05	5114.5	
372.25	7393.8	
372.46	5848.3	
372.66	3885	
372.87	3863.2	
373.07	5861.3	
373.28	7399.3	
373.48	4960.9	
373.69	4566.3	
373.9	5314.5	
374.1	5382.7	
374.31	4868	
374.51	4371.7	
374.72	6119.3	
374.92	5064.6	
375.13	4999.8	
375.33	4218.1	
375.54	5746.6	
375.74	5188.9	
375.95	4280.3	
376.15	5426.4	
376.36	5804.6	
376.56	5627.8	
376.77	4281.6	
376.97	4820.2	
377.18	6774.7	
377.38	5845.6	
377.59	5129.5	
377.79	3836.5	
378	5675.6	
378.2	6092	
378.41	4016.1	
378.61	3841.3	
378.82	6249	
379.02	5243.5	
379.23	4102.1	
379.43	5227.1	
379.64	6296.8	
379.84	5860.6	
380.05	3914.4	
380.25	3865.2	
380.46	5956.9	
380.66	5510.4	
380.87	5276.3	
381.07	5550	
381.28	6533.7	
381.48	5943.9	
381.69	3899.3	
381.89	4023.6	
382.1	4917.2	
382.3	6100.9	
382.51	5122	
382.71	5898.1	
382.91	6109.1	
383.12	6491.4	
383.32	4345.1	
383.53	4573.8	
383.73	5764.3	
383.94	5648.3	
384.14	4483	
384.35	3628.3	
384.55	5545.2	
384.76	6010.1	
384.96	4288.4	
385.17	4677.6	
385.37	5976	
385.58	5253.7	
385.78	4678.2	
385.98	3571.7	
386.19	5468.8	
386.39	5862.7	
386.6	4094.6	
386.8	4311	
387.01	5956.9	
387.21	6006	
387.42	4754.7	
387.62	5302.2	
387.83	5305.6	
388.03	5969.1	
388.23	4311	
388.44	5147.9	
388.64	4958.8	
388.85	5058.5	
389.05	4668.7	
389.26	5312.4	
389.46	7007.5	
389.67	6344.6	
389.87	4705.5	
390.07	4807.9	
390.28	5663.3	
390.48	5261.2	
390.69	3949.2	
390.89	4312.3	
391.1	5431.9	
391.3	6322.8	
391.5	5436.7	
391.71	6065.4	
391.91	6062	
392.12	7017.7	
392.32	5588.2	
392.53	4753.3	
392.73	5426.4	
392.93	5671.5	
393.14	4465.3	
393.34	5485.8	
393.55	6033.3	
393.75	5636.7	
393.95	4461.8	
394.16	4341.7	
394.36	5345.9	
394.57	6062.7	
394.77	3824.2	
394.98	4304.8	
395.18	5315.2	
395.38	5424.4	
395.59	5186.1	
395.79	4100.7	
396	5394.3	
396.2	5982.1	
396.4	4994.3	
396.61	4958.8	
396.81	6189.6	
397.02	5448.3	
397.22	5255.8	
397.42	5283.1	
397.63	6182.8	
397.83	5427.8	
398.04	4117.8	
398.24	4661.9	
398.44	5923.4	
398.65	5025.7	
398.85	4009.2	
399.05	4058.4	
399.26	5336.3	
399.46	7132.4	
399.67	4526.7	
399.87	4166.9	
400.07	5744.6	
400.28	6121.4	
400.48	4360.8	
400.69	5330.2	
400.89	6374.6	
401.09	6754.2	
401.3	4278.2	
401.5	5343.2	
401.7	7037.5	
401.91	7301.7	
402.11	4593.6	
402.32	4816.1	
402.52	6457.9	
402.72	6365.1	
402.93	5140.4	
403.13	3999	
403.33	7197.9	
403.54	5863.3	
403.74	4773.1	
403.94	5557.5	
404.15	5887.9	
404.35	7098.9	
404.56	4461.8	
404.76	6244.3	
404.96	6310.5	
405.17	6103.6	
405.37	5696.8	
405.57	4952	
405.78	6417.7	
405.98	5904.3	
406.18	4524	
406.39	5477.6	
406.59	6451.8	
406.79	6062	
407	4397	
407.2	4456.4	
407.4	6412.9	
407.61	6521.4	
407.81	4311	
408.01	6378.7	
408.22	5252.4	
408.42	7255.3	
408.62	5427.1	
408.83	4894	
409.03	5950.7	
409.23	5795.1	
409.44	5116.5	
409.64	5341.1	
409.84	6912.6	
410.05	6855.2	
410.25	5302.2	
410.45	5090.6	
410.66	6367.1	
410.86	8824	
411.06	5515.9	
411.27	5408	
411.47	8617.9	
411.67	6590.4	
411.88	5672.9	
412.08	5947.3	
412.28	7243	
412.49	7716.7	
412.69	5417.6	
412.89	5554.1	
413.09	7598	
413.3	7477.8	
413.5	5610.1	
413.7	5257.1	
413.91	6692.1	
414.11	7583.6	
414.31	5417.6	
414.52	5826.5	
414.72	7239.6	
414.92	7201.3	
415.12	5391.6	
415.33	6017.6	
415.53	7617.1	
415.73	7812.3	
415.94	6298.9	
416.14	5811.5	
416.34	6503	
416.55	6365.8	
416.75	6899.6	
416.95	6363	
417.15	7582.3	
417.36	8361.2	
417.56	7112.6	
417.76	6261.3	
417.97	7989.1	
418.17	7693.5	
418.37	5763.7	
418.57	5882.4	
418.78	7418.4	
418.98	7167.2	
419.18	6720.1	
419.38	6716	
419.59	7259.4	
419.79	6842.9	
419.99	5773.2	
420.2	6149.4	
420.4	7661.5	
420.6	7821.9	
420.8	5696.1	
421.01	5476.3	
421.21	7507.2	
421.41	7696.9	
421.61	6013.5	
421.82	5733.6	
422.02	7081.2	
422.22	8029.4	
422.42	6614.3	
422.63	6215.6	
422.83	7182.9	
423.03	8371.4	
423.23	6221	
423.44	5201.2	
423.64	7217.7	
423.84	6948.8	
424.04	5676.3	
424.25	5367	
424.45	8168.7	
424.65	8094.9	
424.85	5154.1	
425.06	5715.2	
425.26	8040.3	
425.46	7094.2	
425.66	6150.7	
425.87	5866.7	
426.07	7892.2	
426.27	7665.5	
426.47	6016.9	
426.67	5367	
426.88	8137.9	
427.08	7675.8	
427.28	6270.9	
427.48	5261.9	
427.69	6449.7	
427.89	7150.8	
428.09	6182.1	
428.29	5298.1	
428.5	7851.9	
428.7	7335.1	
428.9	5251	
429.1	5763	
429.3	7295.5	
429.51	7651.2	
429.71	5621	
429.91	6319.3	
430.11	7480.5	
430.31	7788.4	
430.52	5904.3	
430.72	6148.7	
430.92	8235.6	
431.12	7692.2	
431.32	5554.8	
431.53	5978.7	
431.73	6513.2	
431.93	8269	
432.13	5516.5	
432.33	5276.9	
432.54	7027.9	
432.74	7408.2	
432.94	5273.5	
433.14	6275.7	
433.34	7572	
433.55	7113.3	
433.75	6337.8	
433.95	8109.3	
434.15	7399.3	
434.35	7154.9	
434.56	5515.2	
434.76	5063.3	
434.96	7368.6	
435.16	7618.4	
435.36	5380.7	
435.56	6556.9	
435.77	7112.6	
435.97	7170.6	
436.17	7277.8	
436.37	6449.1	
436.57	7088.7	
436.78	6974.7	
436.98	8265.6	
437.18	7068.9	
437.38	7805.5	
437.58	7281.2	
437.78	7286.7	
437.99	5924.1	
438.19	7848.5	
438.39	8688.8	
438.59	5823.1	
438.79	5373.2	
438.99	8507.3	
439.2	7197.2	
439.4	5287.2	
439.6	5278.3	
439.8	7381.6	
440	8591.2	
440.2	6260.6	
440.4	6309.1	
440.61	7914	
440.81	8441	
441.01	5610.1	
441.21	6614.3	
441.41	8402.1	
441.61	7998	
441.81	6865.5	
442.02	7991.9	
442.22	9013.8	
442.42	8165.3	
442.62	5766.4	
442.82	5806.7	
443.02	8419.2	
443.22	7562.5	
443.43	6272.9	
443.63	5708.4	
443.83	7361.1	
444.03	7365.9	
444.23	7070.3	
444.43	6583.5	
444.63	7791.2	
444.83	8927.1	
445.04	5875.6	
445.24	7189.7	
445.44	8211.7	
445.64	8248.5	
445.84	6722.8	
446.04	6699.6	
446.24	7541.3	
446.44	8564.6	
446.65	5958.9	
446.85	6349.4	
447.05	7727	
447.25	8393.3	
447.45	6290.7	
447.65	5723.4	
447.85	7738.6	
448.05	7391.1	
448.25	6791.7	
448.46	6611.5	
448.66	7785.7	
448.86	7449.1	
449.06	5508.4	
449.26	6693.4	
449.46	8161.8	
449.66	7131	
449.86	6249.7	
450.06	6279.8	
450.26	7335.1	
450.47	7929.1	
450.67	6564.4	
450.87	6862.7	
451.07	8051.9	
451.27	7853.3	
451.47	5864.7	
451.67	6434.7	
451.87	7548.8	
452.07	8531.2	
452.27	6139.1	
452.47	6093.4	
452.67	7772.7	
452.88	8492.9	
453.08	5358.2	
453.28	7466.9	
453.48	9009	
453.68	7718.8	
453.88	6033.3	
454.08	6150.1	
454.28	8163.2	
454.48	7796.6	
454.68	6640.9	
454.88	7235.5	
455.08	8230.1	
455.28	8084.7	
455.48	5816.2	
455.68	6485.9	
455.89	8796	
456.09	8396	
456.29	6238.1	
456.49	6284.5	
456.69	8686.1	
456.89	7855.3	
457.09	6800.6	
457.29	7223.2	
457.49	8237.6	
457.69	8363.2	
457.89	6631.3	
458.09	6032	
458.29	7993.9	
458.49	8743.5	
458.69	7101	
458.89	6626.5	
459.09	9015.2	
459.29	9228.8	
459.49	6670.2	
459.69	7449.8	
459.9	8724.3	
460.1	8212.4	
460.3	6561.7	
460.5	6313.9	
460.7	8583	
460.9	8282	
461.1	5925.5	
461.3	7270.3	
461.5	9185.8	
461.7	8800.1	
461.9	6500.9	
462.1	6918.7	
462.3	8397.4	
462.5	8918.2	
462.7	6548.7	
462.9	6656.6	
463.1	9916.3	
463.3	9540.1	
463.5	6770.6	
463.7	7840.3	
463.9	8520.9	
464.1	8952.4	
464.3	7098.3	
464.5	7350.8	
464.7	9235.7	
464.9	8959.9	
465.1	8669.7	
465.3	7677.8	
465.5	9634.3	
465.7	9654.1	
465.9	7966.6	
466.1	7734.5	
466.3	9482.8	
466.5	9228.1	
466.7	8722.3	
466.9	7534.5	
467.1	9272.5	
467.3	10165	
467.5	8656.8	
467.7	7466.9	
467.9	10353	
468.1	11195	
468.3	8260.1	
468.5	8755.1	
468.7	9286.9	
468.9	9247.3	
469.1	7799.3	
469.3	8505.2	
469.5	11279	
469.7	8933.2	
469.9	8342.7	
470.1	7692.2	
470.3	9471.9	
470.5	9344.2	
470.7	8900.5	
470.9	7781.6	
471.1	9170.1	
471.3	9628.2	
471.5	7500.3	
471.69	9377.6	
471.89	8962.6	
472.09	8535.9	
472.29	8361.9	
472.49	8748.2	
472.69	8705.9	
472.89	9529.2	
473.09	7404.1	
473.29	7650.5	
473.49	8924.4	
473.69	9106	
473.89	8477.2	
474.09	7690.8	
474.29	10322	
474.49	9988.6	
474.69	8465.6	
474.89	7774.1	
475.09	9114.8	
475.29	8981.7	
475.49	7281.9	
475.69	7463.5	
475.88	10631	
476.08	9320.3	
476.28	7179.5	
476.48	7699.7	
476.68	9785.2	
476.88	9624.8	
477.08	7468.9	
477.28	7758.4	
477.48	9019.9	
477.68	9643.9	
477.88	7219.8	
478.08	7478.5	
478.28	9933.3	
478.48	9096.4	
478.67	7587.7	
478.87	7004.1	
479.07	9869.2	
479.27	9329.9	
479.47	7880.6	
479.67	7860.8	
479.87	9700.5	
480.07	10032	
480.27	7077.8	
480.47	8693.6	
480.67	9318.3	
480.87	9944.3	
481.06	7431.4	
481.26	8211	
481.46	9271.2	
481.66	9221.3	
481.86	7916.8	
482.06	8882.7	
482.26	8983.8	
482.46	9931.3	
482.66	7798.7	
482.86	7405.5	
483.05	9251.4	
483.25	8746.9	
483.45	10308	
483.65	7756.3	
483.85	8882	
484.05	9168.8	
484.25	8216.5	
484.45	8705.2	
484.65	10082	
484.84	10160	
485.04	7611.6	
485.24	7665.5	
485.44	10399	
485.64	8758.5	
485.84	7024.5	
486.04	8431.5	
486.24	9112.1	
486.44	9503.9	
486.63	7066.2	
486.83	7808.2	
487.03	9036.3	
487.23	9179.7	
487.43	7181.5	
487.63	9460.9	
487.83	9236.3	
488.02	10263	
488.22	8120.9	
488.42	8771.5	
488.62	10066	
488.82	9108.7	
489.02	7750.2	
489.22	7833.5	
489.41	10039	
489.61	9645.9	
489.81	7496.9	
490.01	7570.7	
490.21	9908.8	
490.41	10646	
490.61	7574.1	
490.8	7757	
491	9472.5	
491.2	8826.7	
491.4	8303.8	
491.6	7454.6	
491.8	9553.1	
491.99	9634.3	
492.19	7264.1	
492.39	7528.3	
492.59	9894.4	
492.79	9927.2	
492.99	8356.4	
493.18	7413.6	
493.38	9954.5	
493.58	10708	
493.78	8197.3	
493.98	7835.5	
494.18	9811.8	
494.37	9312.1	
494.57	8589.9	
494.77	8335.9	
494.97	10095	
495.17	10301	
495.37	8033.5	
495.56	8307.2	
495.76	10589	
495.96	10234	
496.16	9267.7	
496.36	8258.8	
496.55	10454	
496.75	10030	
496.95	8737.3	
497.15	8551.6	
497.35	10419	
497.54	10509	
497.74	8373.5	
497.94	10078	
498.14	11127	
498.34	11049	
498.53	8101.8	
498.73	8814.5	
498.93	9867.1	
499.13	10417	
499.33	8674.5	
499.52	9199.5	
499.72	10459	
499.92	10703	
500.12	8480.6	
500.32	8684.1	
500.51	10785	
500.71	10505	
500.91	9497.8	
501.11	9129.2	
501.31	10714	
501.5	11072	
501.7	9705.3	
501.9	8808.3	
502.1	10434	
502.29	10744	
502.49	9245.9	
502.69	9622	
502.89	10757	
503.09	10783	
503.28	8202.1	
503.48	8323.6	
503.68	9846	
503.88	9959.3	
504.07	9294.4	
504.27	8697.7	
504.47	10163	
504.67	10348	
504.86	9168.8	
505.06	8867	
505.26	9949.7	
505.46	11714	
505.65	8835.6	
505.85	9004.2	
506.05	9935.4	
506.25	10368	
506.44	8067.6	
506.64	9000.1	
506.84	9729.9	
507.04	10507	
507.23	8129.8	
507.43	8804.9	
507.63	11704	
507.83	9957.2	
508.02	8665	
508.22	8363.2	
508.42	11903	
508.62	9784.5	
508.81	8548.2	
509.01	9202.2	
509.21	9567.4	
509.4	9850.7	
509.6	8765.3	
509.8	8115.4	
510	9819.3	
510.19	11170	
510.39	8175.5	
510.59	8215.1	
510.79	9583.8	
510.98	10955	
511.18	8331.8	
511.38	8443.8	
511.57	10549	
511.77	10265	
511.97	9082.1	
512.17	8004.8	
512.36	10460	
512.56	10342	
512.76	8161.2	
512.95	7862.2	
513.15	10435	
513.35	9108.7	
513.55	8819.9	
513.74	8060.1	
513.94	10399	
514.14	9777	
514.33	9038.4	
514.53	8839	
514.73	9800.2	
514.92	10066	
515.12	8327.7	
515.32	8181	
515.51	10043	
515.71	10586	
515.91	9820.7	
516.11	8133.2	
516.3	11720	
516.5	9714.2	
516.7	8791.2	
516.89	9297.8	
517.09	9835	
517.29	9645.3	
517.48	8978.3	
517.68	8424.7	
517.88	9457.5	
518.07	10135	
518.27	8997.4	
518.47	7915.4	
518.66	10610	
518.86	9323	
519.06	7796.6	
519.25	8219.9	
519.45	9654.1	
519.65	11166	
519.84	8763.9	
520.04	9589.3	
520.24	11536	
520.43	10311	
520.63	8619.9	
520.83	8424	
521.02	9663.7	
521.22	10268	
521.42	8901.8	
521.61	9439.8	
521.81	9712.8	
522.01	9920.4	
522.2	8569.4	
522.4	8426.7	
522.6	10400	
522.79	9157.2	
522.99	8428.1	
523.18	7864.9	
523.38	10010	
523.58	10134	
523.77	9776.3	
523.97	7894.9	
524.17	11956	
524.36	11144	
524.56	9364.7	
524.76	8809.7	
524.95	10106	
525.15	9883.5	
525.34	8662.9	
525.54	8692.9	
525.74	10626	
525.93	9711.5	
526.13	9940.8	
526.33	8805.6	
526.52	11034	
526.72	10404	
526.91	10073	
527.11	9277.3	
527.31	10992	
527.5	11352	
527.7	9083.4	
527.89	8213	
528.09	9859.6	
528.29	10504	
528.48	9522.4	
528.68	9149	
528.87	10866	
529.07	10923	
529.27	9222.7	
529.46	8625.4	
529.66	10647	
529.85	11063	
530.05	8575.5	
530.25	9420.7	
530.44	11985	
530.64	10505	
530.83	8936	
531.03	9260.2	
531.23	10826	
531.42	10763	
531.62	9710.1	
531.81	9060.9	
532.01	10897	
532.21	11505	
532.4	8850.6	
532.6	9275.9	
532.79	11985	
532.99	11086	
533.18	9303.9	
533.38	10294	
533.58	10744	
533.77	11484	
533.97	9366.7	
534.16	10109	
534.36	11648	
534.55	10725	
534.75	10281	
534.95	9415.9	
535.14	11604	
535.34	10796	
535.53	9097.1	
535.73	11128	
535.92	12246	
536.12	10924	
536.31	9162.6	
536.51	10447	
536.71	11223	
536.9	10795	
537.1	9281.4	
537.29	9437	
537.49	11583	
537.68	10670	
537.88	9749.7	
538.07	8936	
538.27	10811	
538.46	11985	
538.66	9020.6	
538.86	9386.5	
539.05	10994	
539.25	11377	
539.44	9688.3	
539.64	9296.4	
539.83	10904	
540.03	11916	
540.22	9273.2	
540.42	9276.6	
540.61	11137	
540.81	11135	
541	9747.6	
541.2	10387	
541.39	10526	
541.59	10933	
541.78	9932.6	
541.98	9113.5	
542.18	10177	
542.37	10206	
542.57	9503.9	
542.76	10018	
542.96	10415	
543.15	10912	
543.35	9505.3	
543.54	8882.7	
543.74	11269	
543.93	10733	
544.13	9477.3	
544.32	10426	
544.52	11168	
544.71	10226	
544.91	8489.5	
545.1	9709.4	
545.3	10314	
545.49	11117	
545.69	8386.4	
545.88	8904.6	
546.08	11837	
546.27	11510	
546.47	9584.5	
546.66	8871.1	
546.86	11266	
547.05	11742	
547.24	8962.6	
547.44	8828.1	
547.63	10028	
547.83	11285	
548.02	9143.5	
548.22	9411.8	
548.41	9940.2	
548.61	11256	
548.8	8694.3	
549	8700.5	
549.19	10584	
549.39	10920	
549.58	8461.5	
549.78	9049.3	
549.97	10890	
550.17	10426	
550.36	9796.1	
550.55	10757	
550.75	10403	
550.94	11314	
551.14	8613.1	
551.33	8933.2	
551.53	9706	
551.72	10699	
551.92	8895.7	
552.11	8755.1	
552.31	10646	
552.5	10878	
552.69	10361	
552.89	8435.6	
553.08	10697	
553.28	10400	
553.47	8815.1	
553.67	9823.4	
553.86	11398	
554.06	9613.2	
554.25	7929.1	
554.44	8508.6	
554.64	12071	
554.83	11572	
555.03	8525.7	
555.22	8809.7	
555.42	10738	
555.61	10501	
555.8	8679.3	
556	8922.3	
556.19	9646.6	
556.39	10852	
556.58	8672.5	
556.78	8725.7	
556.97	10355	
557.16	10112	
557.36	9852.1	
557.55	8279.9	
557.75	9394	
557.94	11095	
558.13	8391.2	
558.33	8060.8	
558.52	10960	
558.72	9822.7	
558.91	8333.9	
559.1	8457.4	
559.3	9505.3	
559.49	9212.4	
559.69	7879.2	
559.88	8818.6	
560.07	10247	
560.27	10708	
560.46	9049.3	
560.66	9163.3	
560.85	10148	
561.04	9265	
561.24	8173.4	
561.43	8447.2	
561.63	9490.3	
561.82	9780.4	
562.01	9583.1	
562.21	8714.8	
562.4	10208	
562.59	11198	
562.79	8411.7	
562.98	8163.9	
563.18	10116	
563.37	11553	
563.56	8999.5	
563.76	8150.2	
563.95	9541.5	
564.14	9548.3	
564.34	8468.4	
564.53	8239.7	
564.73	10082	
564.92	10584	
565.11	8597.4	
565.31	7978.9	
565.5	10789	
565.69	9630.2	
565.89	8189.8	
566.08	8535.3	
566.27	10548	
566.47	11035	
566.66	9181	
566.85	7883.3	
567.05	10173	
567.24	9587.2	
567.44	8161.8	
567.63	9583.8	
567.82	10427	
568.02	10161	
568.21	8178.9	
568.4	8670.4	
568.6	10077	
568.79	10116	
568.98	8071	
569.18	8148.2	
569.37	9963.4	
569.56	12037	
569.76	8628.1	
569.95	9476.6	
570.14	10387	
570.34	10305	
570.53	8104.5	
570.72	8080.6	
570.91	10857	
571.11	9945.6	
571.3	8529.8	
571.49	9463.7	
571.69	10060	
571.88	9615.9	
572.07	9118.9	
572.27	9073.9	
572.46	9524.4	
572.65	10662	
572.85	8331.1	
573.04	8586.5	
573.23	10914	
573.43	10142	
573.62	8051.2	
573.81	8694.3	
574	10187	
574.2	9902.6	
574.39	8381.7	
574.58	8600.8	
574.78	10922	
574.97	10305	
575.16	8943.5	
575.36	9129.2	
575.55	10602	
575.74	10779	
575.93	8074.5	
576.13	9256.8	
576.32	10039	
576.51	10638	
576.71	8535.9	
576.9	9877.4	
577.09	10971	
577.28	10529	
577.48	9050.7	
577.67	8026.7	
577.86	10149	
578.05	10483	
578.25	8671.1	
578.44	8794	
578.63	10220	
578.83	11404	
579.02	8007.6	
579.21	9625.5	
579.4	10430	
579.6	10167	
579.79	8868.4	
579.98	10983	
580.17	10717	
580.37	10877	
580.56	8257.4	
580.75	8918.9	
580.94	11224	
581.14	11095	
581.33	9497.1	
581.52	8462.9	
581.71	10643	
581.91	11230	
582.1	8079.2	
582.29	8768.7	
582.48	10374	
582.68	10302	
582.87	9241.8	
583.06	8931.2	
583.25	10578	
583.45	9960.6	
583.64	9529.9	
583.83	10243	
584.02	10124	
584.21	10569	
584.41	9475.3	
584.6	8802.2	
584.79	10376	
584.98	11087	
585.18	8292.9	
585.37	8297	
585.56	9846.6	
585.75	10728	
585.94	8486.1	
586.14	9125.7	
586.33	11280	
586.52	10260	
586.71	9055.4	
586.91	8731.9	
587.1	9677.3	
587.29	10667	
587.48	8662.2	
587.67	8557.1	
587.87	10509	
588.06	10683	
588.25	9781.1	
588.44	9108	
588.63	10122	
588.83	10708	
589.02	8573.5	
589.21	8360.5	
589.4	9916.3	
589.59	9729.2	
589.78	7763.2	
589.98	8011.7	
590.17	9422	
590.36	9929.2	
590.55	7342.7	
590.74	8071	
590.94	11115	
591.13	9652.8	
591.32	7817.1	
591.51	7389.8	
591.7	10065	
591.89	9498.5	
592.09	7344.7	
592.28	7875.1	
592.47	8861.6	
592.66	10757	
592.85	7574.1	
593.05	7748.1	
593.24	9408.4	
593.43	10213	
593.62	7860.8	
593.81	8224.6	
594	9509.4	
594.19	9783.8	
594.39	7639.6	
594.58	7531.7	
594.77	9861.7	
594.96	10432	
595.15	7594.6	
595.34	8219.2	
595.54	9904.7	
595.73	8902.5	
595.92	6988.4	
596.11	8140.7	
596.3	10335	
596.49	9103.2	
596.68	7808.2	
596.88	8279.9	
597.07	10045	
597.26	8837.7	
597.45	7264.8	
597.64	8550.3	
597.83	9136	
598.02	9722.4	
598.22	7486.7	
598.41	8128.4	
598.6	9568.8	
598.79	8979	
598.98	7505.1	
599.17	8499.8	
599.36	9476.6	
599.55	10658	
599.74	9386.5	
599.94	9216.5	
600.13	10109	
600.32	8826.7	
600.51	7222.5	
600.7	7247.1	
600.89	10689	
601.08	10735	
601.27	7083.9	
601.47	8120.2	
601.66	10002	
601.85	10634	
602.04	7720.8	
602.23	7869	
602.42	8961.9	
602.61	9704.6	
602.8	7660.1	
602.99	7498.3	
603.18	9374.2	
603.37	9641.8	
603.57	8060.1	
603.76	8606.9	
603.95	10258	
604.14	9781.8	
604.33	7447.8	
604.52	7950.2	
604.71	9594.1	
604.9	9191.3	
605.09	8425.3	
605.28	8338.6	
605.47	10145	
605.66	9771.5	
605.86	8204.8	
606.05	7480.5	
606.24	10163	
606.43	8669.7	
606.62	7798.7	
606.81	8708	
607	9963.4	
607.19	9230.9	
607.38	7220.5	
607.57	7514.7	
607.76	9013.8	
607.95	8538	
608.14	7875.8	
608.33	8546.2	
608.52	9018.6	
608.72	9927.9	
608.91	7219.8	
609.1	7113.3	
609.29	9130.5	
609.48	8613.1	
609.67	8173.4	
609.86	7196.6	
610.05	8706.6	
610.24	9035.6	
610.43	7010.2	
610.62	6657.3	
610.81	10206	
611	9919	
611.19	7121.5	
611.38	7753.6	
611.57	9298.5	
611.76	10556	
611.95	6982.9	
612.14	6761	
612.33	9099.8	
612.52	8690.9	
612.71	7470.3	
612.9	6621.1	
613.09	8275.8	
613.28	10553	
613.47	7220.5	
613.66	8148.2	
613.85	9325.8	
614.04	8843.1	
614.24	7351.5	
614.43	6408.8	
614.62	9398.8	
614.81	9274.6	
615	7830.1	
615.19	7819.8	
615.38	8641.7	
615.57	9073.2	
615.76	7696.3	
615.95	8645.2	
616.14	9407	
616.33	8999.5	
616.52	7972.7	
616.71	8312	
616.9	9332.6	
617.09	9258.9	
617.28	7352.2	
617.47	8505.9	
617.66	8488.8	
617.85	8445.1	
618.04	8367.3	
618.22	7682.6	
618.41	8826.1	
618.6	9697.8	
618.79	7647.8	
618.98	7299	
619.17	9997.5	
619.36	8492.2	
619.55	7507.2	
619.74	7626.6	
619.93	9255.5	
620.12	8725.7	
620.31	8101.1	
620.5	8219.9	
620.69	9907.4	
620.88	10294	
621.07	8976.2	
621.26	8062.9	
621.45	9548.3	
621.64	9600.9	
621.83	8099.7	
622.02	7305.8	
622.21	9529.2	
622.4	9376.3	
622.59	8623.3	
622.78	8439.7	
622.97	8931.9	
623.16	9818	
623.35	8022.6	
623.54	7243	
623.72	9213.1	
623.91	9324.4	
624.1	8297	
624.29	6981.5	
624.48	10388	
624.67	9654.8	
624.86	8207.6	
625.05	7269.6	
625.24	10485	
625.43	8878.6	
625.62	9815.9	
625.81	7490.8	
626	9897.2	
626.19	9161.2	
626.38	8188.5	
626.56	7649.2	
626.75	8966	
626.94	9681.4	
627.13	8185.7	
627.32	6962.4	
627.51	9709.4	
627.7	10895	
627.89	7091.4	
628.08	8226.7	
628.27	8766.7	
628.46	9075.2	
628.65	7400.7	
628.83	7082.6	
629.02	9610.4	
629.21	8861.6	
629.4	7833.5	
629.59	8005.5	
629.78	8791.2	
629.97	9781.1	
630.16	8079.9	
630.35	7574.1	
630.54	10218	
630.72	9970.2	
630.91	7527.7	
631.1	8059.4	
631.29	9470.5	
631.48	9625.5	
631.67	8221.9	
631.86	7628	
632.05	9032.9	
632.24	9070.5	
632.42	7277.8	
632.61	7826	
632.8	9130.5	
632.99	8808.3	
633.18	7916.8	
633.37	8231.5	
633.56	9448	
633.75	9155.1	
633.93	7831.4	
634.12	7550.2	
634.31	10161	
634.5	9784.5	
634.69	7572	
634.88	8029.4	
635.07	9230.9	
635.25	9793.4	
635.44	8477.2	
635.63	8761.9	
635.82	9062.3	
636.01	8453.3	
636.2	8369.4	
636.39	8017.1	
636.57	10155	
636.76	9813.9	
636.95	7321.5	
637.14	8764.6	
637.33	9484.1	
637.52	10395	
637.7	7232.7	
637.89	8141.4	
638.08	9099.1	
638.27	10517	
638.46	8224.6	
638.65	8684.8	
638.83	10460	
639.02	8872.5	
639.21	8032.1	
639.4	8580.3	
639.59	9328.5	
639.78	8845.9	
639.96	7343.3	
640.15	7415.7	
640.34	9136.7	
640.53	9373.6	
640.72	7064.8	
640.91	7399.3	
641.09	8594.6	
641.28	9958.6	
641.47	7377.5	
641.66	8211.7	
641.85	9298.5	
642.03	9580.4	
642.22	8038.3	
642.41	7539.9	
642.6	8712.7	
642.79	8083.3	
642.97	7247.8	
643.16	8036.9	
643.35	8626	
643.54	8417.2	
643.73	7101.7	
643.91	8094.9	
644.1	8222.6	
644.29	8943.5	
644.48	7295.5	
644.67	7291.5	
644.85	8512.7	
645.04	8844.5	
645.23	6737.8	
645.42	7067.5	
645.6	8292.9	
645.79	9456.8	
645.98	7113.3	
646.17	6144.6	
646.36	8071.7	
646.54	8611.7	
646.73	7896.3	
646.92	6701.6	
647.11	8278.6	
647.29	9325.8	
647.48	6733	
647.67	6480.5	
647.86	9566.1	
648.05	9505.3	
648.23	7092.1	
648.42	8355	
648.61	9036.3	
648.8	8668.4	
648.98	6666.1	
649.17	6989.7	
649.36	8327.7	
649.55	7778.2	
649.73	6685.9	
649.92	7463.5	
650.11	8114.1	
650.3	8480	
650.48	6878.4	
650.67	6728.9	
650.86	8807.6	
651.05	7686.7	
651.23	6787.7	
651.42	6838.9	
651.61	8101.8	
651.79	8311.3	
651.98	6981.5	
652.17	6632	
652.36	8624.7	
652.54	7638.2	
652.73	6639.5	
652.92	6437.4	
653.11	8574.8	
653.29	8733.9	
653.48	5938.4	
653.67	6886	
653.85	8449.9	
654.04	9441.1	
654.23	7144.7	
654.42	6568.5	
654.6	7965.9	
654.79	8636.3	
654.98	6165.1	
655.16	6726.2	
655.35	7476.5	
655.54	7431.4	
655.73	6227.9	
655.91	6077	
656.1	8525	
656.29	7309.9	
656.47	5692.7	
656.66	7370	
656.85	7675.8	
657.03	7684.7	
657.22	6250.4	
657.41	6296.1	
657.59	7879.2	
657.78	7537.9	
657.97	5887.2	
658.16	6711.2	
658.34	8453.3	
658.53	8783.7	
658.72	7560.4	
658.9	8084.7	
659.09	7878.5	
659.28	7991.9	
659.46	6491.4	
659.65	6386.2	
659.84	7739.3	
660.02	8275.8	
660.21	6311.8	
660.4	6201.2	
660.58	8607.6	
660.77	8036.9	
660.96	6784.9	
661.14	5945.9	
661.33	9185.8	
661.52	9132.6	
661.7	5840.8	
661.89	9549	
662.08	7590.5	
662.26	7200	
662.45	6184.2	
662.64	6294.8	
662.82	8376.2	
663.01	7621.2	
663.2	6309.8	
663.38	7020.4	
663.57	8198	
663.75	8005.5	
663.94	6557.6	
664.13	7892.9	
664.31	7636.2	
664.5	8328.4	
664.69	6962.4	
664.87	7378.1	
665.06	7387	
665.25	8096.3	
665.43	7609.6	
665.62	7667.6	
665.8	8408.3	
665.99	7770	
666.18	6606.1	
666.36	6649.1	
666.55	8443.1	
666.74	8316.1	
666.92	6194.4	
667.11	7845.8	
667.29	7644.4	
667.48	8273.1	
667.67	7447.8	
667.85	6546	
668.04	7748.8	
668.22	7753.6	
668.41	6589	
668.6	6763.8	
668.78	7597.3	
668.97	7723.6	
669.15	7016.3	
669.34	5914.5	
669.53	7529	
669.71	7903.1	
669.9	6080.4	
670.08	6724.2	
670.27	7569.3	
670.46	8185	
670.64	6983.6	
670.83	7232.1	
671.01	7386.3	
671.2	8047.2	
671.38	6200.6	
671.57	6064	
671.76	8736.6	
671.94	9235	
672.13	6023.1	
672.31	7021.8	
672.5	8312	
672.69	7530.4	
672.87	6208.8	
673.06	6490	
673.24	8018.5	
673.43	7669.6	
673.61	6873.7	
673.8	6428.6	
673.98	8279.9	
674.17	8445.8	
674.36	7014.3	
674.54	6879.8	
674.73	8040.3	
674.91	8260.1	
675.1	6616.3	
675.28	6280.4	
675.47	7780.9	
675.65	8398	
675.84	6453.1	
676.03	6769.9	
676.21	7624.6	
676.4	7203.4	
676.58	7281.9	
676.77	7079.1	
676.95	9026.1	
677.14	7492.2	
677.32	6169.8	
677.51	5986.9	
677.69	8261.5	
677.88	7214.3	
678.06	5996.5	
678.25	6129.6	
678.44	7701	
678.62	7489.4	
678.81	5793.7	
678.99	6757.6	
679.18	8512.7	
679.36	8153.6	
679.55	6435.4	
679.73	7053.2	
679.92	8131.8	
680.1	7587	
680.29	7593.2	
680.47	6451.8	
680.66	7413	
680.84	8295.6	
681.03	5713.2	
681.21	6821.8	
681.4	7546.8	
681.58	7374.7	
681.77	6232.7	
681.95	6141.2	
682.14	8344.1	
682.32	8649.3	
682.51	7038.2	
682.69	5932.3	
682.88	7342.7	
683.06	8041	
683.25	6734.4	
683.43	7183.6	
683.62	7665.5	
683.8	8144.1	
683.99	7220.5	
684.17	6479.8	
684.36	8915.5	
684.54	7561.1	
684.73	5702.9	
684.91	5958.2	
685.1	7843	
685.28	7275.1	
685.46	6471.6	
685.65	6503.7	
685.83	8112.7	
686.02	7365.2	
686.2	5902.2	
686.39	6049.7	
686.57	7030.7	
686.76	8650.6	
686.94	5909.8	
687.13	6064.7	
687.31	7925.6	
687.5	7415.7	
687.68	5524.1	
687.86	6916	
688.05	9226.1	
688.23	6901.7	
688.42	6838.2	
688.6	5955.5	
688.79	7459.4	
688.97	7432.1	
689.16	6459.3	
689.34	5312.4	
689.52	8030.8	
689.71	8308.6	
689.89	6651.1	
690.08	6016.2	
690.26	7602.1	
690.45	7458.7	
690.63	6853.9	
690.81	6105.7	
691	7312.6	
691.18	7288.7	
691.37	6199.2	
691.55	8512.7	
691.74	7256.6	
691.92	9273.9	
692.1	6317.3	
692.29	5683.1	
692.47	7412.3	
692.66	6733.7	
692.84	5959.6	
693.02	6626.5	
693.21	6857.3	
693.39	7387.7	
693.58	6565.1	
693.76	5926.1	
693.94	8581.7	
694.13	8381.7	
694.31	6029.9	
694.5	7068.2	
694.68	7147.4	
694.86	7564.5	
695.05	6358.9	
695.23	6463.4	
695.42	8004.1	
695.6	10255	
695.78	7008.8	
695.97	6020.3	
696.15	7881.3	
696.34	7362.4	
696.52	5788.2	
696.7	6576	
696.89	7682.6	
697.07	7078.5	
697.25	6580.8	
697.44	8009.6	
697.62	7641	
697.81	7972.1	
697.99	6238.8	
698.17	6724.8	
698.36	6956.3	
698.54	7677.2	
698.72	6501.6	
698.91	5492.7	
699.09	7235.5	
699.28	7101.7	
699.46	6178.7	
699.64	6008.7	
699.83	7050.5	
700.01	8254	
700.19	6920.8	
700.38	5312.4	
700.56	8259.5	
700.74	7176.1	
700.93	5664.7	
701.11	6510.5	
701.29	7673.1	
701.48	8749.6	
701.66	5917.9	
701.84	5929.6	
702.03	7244.3	
702.21	7852.6	
702.39	5431.2	
702.58	6059.9	
702.76	7641	
702.94	7744.1	
703.13	5482.4	
703.31	7974.8	
703.49	6922.8	
703.68	7835.5	
703.86	5720.7	
704.04	6642.9	
704.23	7422.5	
704.41	7941.3	
704.59	5823.7	
704.78	7027.3	
704.96	8510.7	
705.14	7895.6	
705.33	5593.7	
705.51	6475.7	
705.69	7296.9	
705.87	8159.8	
706.06	6688	
706.24	5541.8	
706.42	7587	
706.61	7862.2	
706.79	6726.9	
706.97	5584.1	
707.16	7013.6	
707.34	7576.1	
707.52	6638.8	
707.7	5760.9	
707.89	7194.5	
708.07	6826.6	
708.25	6646.3	
708.44	6751.5	
708.62	7103.7	
708.8	8246.5	
708.98	6909.2	
709.17	5893.4	
709.35	7510.6	
709.53	7526.3	
709.72	5564.3	
709.9	5727.5	
710.08	7681.9	
710.26	7765.2	
710.45	7145.4	
710.63	5833.3	
710.81	7393.8	
710.99	7440.3	
711.18	6482.5	
711.36	5937.1	
711.54	7254.6	
711.72	7871	
711.91	6006	
712.09	5444.2	
712.27	7346.7	
712.45	7925.6	
712.64	6202.6	
712.82	5224.4	
713	6803.4	
713.18	6875.7	
713.37	5268.1	
713.55	6655.2	
713.73	7745.4	
713.91	6264.7	
714.1	5715.9	
714.28	5180.7	
714.46	7303.7	
714.64	6626.5	
714.83	4543.1	
715.01	5423	
715.19	6606.7	
715.37	6040.1	
715.55	5020.9	
715.74	5408.7	
715.92	7560.4	
716.1	5582.1	
716.28	6433.4	
716.47	5557.5	
716.65	6303.6	
716.83	6384.2	
717.01	5466.7	
717.19	5524.7	
717.38	8392.6	
717.56	6013.5	
717.74	5720.7	
717.92	4829.8	
718.1	7230.7	
718.29	6408.8	
718.47	4418.2	
718.65	5079.6	
718.83	7154.2	
719.01	7049.8	
719.2	4261.8	
719.38	5385.5	
719.56	6784.9	
719.74	8289.5	
719.92	4978.6	
720.11	6058.6	
720.29	6830	
720.47	5885.9	
720.65	4501.4	
720.83	5372.5	
721.02	6207.4	
721.2	6042.9	
721.38	5444.2	
721.56	4693.9	
721.74	5526.1	
721.92	5742.5	
722.11	5942.5	
722.29	5589.6	
722.47	6909.8	
722.65	6160.3	
722.83	4678.2	
723.01	5593.7	
723.2	6219	
723.38	6516.6	
723.56	4124.6	
723.74	5270.1	
723.92	5748.6	
724.1	6913.3	
724.29	4644.1	
724.47	5761.6	
724.65	5783.5	
724.83	5672.2	
725.01	4567.7	
725.19	5427.8	
725.37	5827.8	
725.56	5847.6	
725.74	4388.1	
725.92	4586.1	
726.1	5632.6	
726.28	5952.1	
726.46	5044.1	
726.64	4727.4	
726.83	5989.6	
727.01	6239.5	
727.19	4340.3	
727.37	5169.1	
727.55	6053.8	
727.73	6638.1	
727.91	4333.5	
728.09	4126	
728.28	6656.6	
728.46	7284.6	
728.64	5250.3	
728.82	5245.5	
729	7802.1	
729.18	7006.1	
729.36	4442.7	
729.54	6761.7	
729.72	7972.1	
729.91	6326.2	
730.09	6371.9	
730.27	5080.3	
730.45	6161	
730.63	6794.5	
730.81	5723.4	
730.99	4740.4	
731.17	7294.2	
731.35	5915.2	
731.53	5345.9	
731.71	4852.3	
731.9	7017	
732.08	7204.8	
732.26	5197.7	
732.44	4863.2	
732.62	7301.7	
732.8	6696.9	
732.98	5513.8	
733.16	4598.4	
733.34	6712.6	
733.52	5553.4	
733.7	5078.3	
733.88	5384.8	
734.07	6599.9	
734.25	6352.8	
734.43	4478.9	
734.61	6175.3	
734.79	7740	
734.97	6261.3	
735.15	4739.7	
735.33	4999.8	
735.51	6509.8	
735.69	6275	
735.87	6509.1	
736.05	5266	
736.23	6459.3	
736.41	6172.6	
736.59	5112.4	
736.77	5245.5	
736.95	6827.2	
737.13	6275.7	
737.32	4752.7	
737.5	4941.7	
737.68	7357.7	
737.86	6187.6	
738.04	4581.3	
738.22	6399.9	
738.4	5985.5	
738.58	6315.3	
738.76	5205.3	
738.94	4131.4	
739.12	6139.8	
739.3	6004	
739.48	5872.9	
739.66	5540.4	
739.84	6358.9	
740.02	6375.3	
740.2	4278.2	
740.38	4590.9	
740.56	6778.1	
740.74	5629.9	
740.92	5340.4	
741.1	5124	
741.28	6232	
741.46	6031.3	
741.64	4809.3	
741.82	5316.5	
742	6233.3	
742.18	6203.3	
742.36	5038.7	
742.54	4587.4	
742.72	6789.7	
742.9	5570.5	
743.08	5399.8	
743.26	4242.7	
743.44	7002.7	
743.62	6846.4	
743.8	5604.6	
743.98	4642.1	
744.16	6519.4	
744.34	6219	
744.52	5557.5	
744.7	5457.2	
744.88	6701	
745.06	6202.6	
745.24	5485.1	
745.42	5668.1	
745.6	6793.8	
745.78	6573.3	
745.96	4396.3	
746.14	4636.6	
746.32	7549.5	
746.5	6741.9	
746.68	5251.7	
746.86	4730.8	
747.03	7214.3	
747.21	5500.2	
747.39	5276.9	
747.57	4747.2	
747.75	6388.3	
747.93	6754.9	
748.11	4726	
748.29	4593.6	
748.47	7950.2	
748.65	6136.4	
748.83	5437.4	
749.01	5190.2	
749.19	6614.9	
749.37	5770.5	
749.55	5030.5	
749.73	5030.5	
749.91	6302.3	
750.09	5962.3	
750.26	5143.8	
750.44	4525.3	
750.62	6262.7	
750.8	6300.2	
750.98	4423.6	
751.16	4807.3	
751.34	6350.1	
751.52	5763.7	
751.7	5567.1	
751.88	4396.3	
752.06	6837.5	
752.24	6658.6	
752.42	4323.9	
752.59	4732.2	
752.77	6221.7	
752.95	7467.6	
753.13	5453.1	
753.31	4844.8	
753.49	5902.9	
753.67	6348.7	
753.85	5124.7	
754.03	4729.4	
754.21	6666.1	
754.38	7012.2	
754.56	4894	
754.74	3910.9	
754.92	5982.8	
755.1	6651.1	
755.28	3980.6	
755.46	3977.2	
755.64	7269.6	
755.82	7452.6	
755.99	4205.2	
756.17	4244.1	
756.35	4942.4	
756.53	6440.2	
756.71	3249.4	
756.89	4123.2	
757.07	6134.3	
757.25	5209.3	
757.42	4698	
757.6	5583.4	
757.78	6167.8	
757.96	5168.4	
758.14	4442	
758.32	3933.5	
758.5	4655.7	
758.67	5547.9	
758.85	4208.6	
759.03	4272.1	
759.21	5696.1	
759.39	5159.5	
759.57	3826.3	
759.75	4974.5	
759.92	6445.6	
760.1	5713.2	
760.28	5329.5	
760.46	5591.6	
760.64	5445.5	
760.82	5163.6	
760.99	5272.8	
761.17	4388.8	
761.35	6289.3	
761.53	5229.1	
761.71	4425.7	
761.89	5237.3	
762.06	6164.4	
762.24	5649.7	
762.42	4560.8	
762.6	4354.7	
762.78	5663.3	
762.96	6305	
763.13	4947.2	
763.31	4628.4	
763.49	6521.4	
763.67	5655.8	
763.85	5482.4	
764.02	6070.2	
764.2	6738.5	
764.38	5912.5	
764.56	4541	
764.74	5472.2	
764.91	6814.3	
765.09	5768.4	
765.27	4257.7	
765.45	4048.2	
765.63	6883.9	
765.8	6767.2	
765.98	3767.6	
766.16	4031.8	
766.34	5333.6	
766.52	5128.8	
766.69	5015.5	
766.87	3878.2	
767.05	5720.7	
767.23	6491.4	
767.41	4209.9	
767.58	4567.7	
767.76	6356.2	
767.94	6339.1	
768.12	4353.3	
768.29	5152.7	
768.47	5860.6	
768.65	6607.4	
768.83	3963.5	
769	5166.3	
769.18	5322	
769.36	6146	
769.54	5144.5	
769.72	3976.5	
769.89	6382.8	
770.07	6525.5	
770.25	4356.7	
770.43	5576.6	
770.6	7151.5	
770.78	7589.1	
770.96	4513.7	
771.14	5156.1	
771.31	6256.5	
771.49	5662	
771.67	3654.9	
771.85	3941.7	
772.02	4894.6	
772.2	5608.7	
772.38	4629.1	
772.55	4146.5	
772.73	5925.5	
772.91	5728.2	
773.09	4514.4	
773.26	4661.9	
773.44	5849	
773.62	5559.6	
773.8	4057.7	
773.97	3813.3	
774.15	5980.8	
774.33	5554.8	
774.5	3958.7	
774.68	4337.6	
774.86	6153.5	
775.04	5574.6	
775.21	4052.2	
775.39	4063.2	
775.57	5803.9	
775.74	6251.1	
775.92	3885.7	
776.1	3821.5	
776.27	5797.1	
776.45	7057.3	
776.63	4084.3	
776.81	3518.4	
776.98	5416.2	
777.16	6599.9	
777.34	4192.9	
777.51	4180.6	
777.69	5390.3	
777.87	5238	
778.04	4208.6	
778.22	4792.9	
778.4	5253	
778.57	5936.4	
778.75	3497.2	
778.93	3780.6	
779.1	5102.2	
779.28	4902.8	
779.46	3547.8	
779.64	4040	
779.81	6107	
779.99	6952.2	
780.17	4804.5	
780.34	4909.7	
780.52	5464.7	
780.69	5724.8	
780.87	4328	
781.05	3858.4	
781.22	5556.8	
781.4	5720	
781.58	3997.6	
781.75	3203.7	
781.93	5590.3	
782.11	5029.1	
782.28	4868.7	
782.46	3986	
782.64	4846.2	
782.81	5855.8	
782.99	4111.6	
783.17	4071.4	
783.34	5690.6	
783.52	4894	
783.69	4236.6	
783.87	5065.3	
784.05	5014.1	
784.22	5036.6	
784.4	5033.2	
784.58	4398.4	
784.75	5975.3	
784.93	5024.3	
785.1	4025.6	
785.28	4721.3	
785.46	5674.9	
785.63	5024.3	
785.81	4042.7	
785.99	3853.6	
786.16	5147.9	
786.34	5552.7	
786.51	3920.5	
786.69	4294.6	
786.87	4749.9	
787.04	5341.8	
787.22	3715	
787.39	4674.8	
787.57	4987.5	
787.75	6195.8	
787.92	4888.5	
788.1	4889.2	
788.27	5024.3	
788.45	4774.5	
788.63	4517.1	
788.8	3238.5	
788.98	5500.8	
789.15	4698	
789.33	3379.1	
789.5	4012.7	
789.68	5898.1	
789.86	6094.1	
790.03	4458.4	
790.21	3818.1	
790.38	5891.3	
790.56	5175.9	
790.73	3764.8	
790.91	3774.4	
791.09	5025.7	
791.26	5722	
791.44	4027	
791.61	3443.3	
791.79	4970.4	
791.96	5068	
792.14	3559.4	
792.32	3173.7	
792.49	5000.5	
792.67	5159.5	
792.84	3639.9	
793.02	3414.6	
793.19	5837.4	
793.37	6171.9	
793.54	3202.3	
793.72	3521.8	
793.89	6385.6	
794.07	4986.8	
794.25	4222.2	
794.42	3262.4	
794.6	6085.2	
794.77	5668.8	
794.95	4379.9	
795.12	3799	
795.3	5012.7	
795.47	5633.3	
795.65	4286.4	
795.82	4033.1	
796	4830.5	
796.17	6747.4	
796.35	3897.3	
796.52	4645.5	
796.7	5528.8	
796.87	5653.8	
797.05	4786.8	
797.22	4820.2	
797.4	5633.3	
797.57	6611.5	
797.75	4016.1	
797.92	3782.6	
798.1	5911.1	
798.27	5012.1	
798.45	3249.4	
798.62	3540.3	
798.8	5298.8	
798.97	5831.9	
799.15	4238.6	
799.32	4062.5	
799.5	4620.2	
799.67	5380	
799.85	4411.3	
800.02	3188	
800.2	4970.4	
800.37	5363.6	
800.55	4631.1	
800.72	3831.1	
800.9	5771.2	
801.07	6212.2	
801.25	5113.1	
801.42	4153.3	
801.6	5823.1	
801.77	5522.7	
801.95	3896.6	
802.12	3748.5	
802.29	5508.4	
802.47	5558.2	
802.64	4132.1	
802.82	3143.6	
802.99	4932.9	
803.17	5981.4	
803.34	4087.1	
803.52	3644	
803.69	6624.5	
803.87	4741.7	
804.04	3990.8	
804.21	4098.7	
804.39	6082.5	
804.56	5230.5	
804.74	3452.9	
804.91	4314.4	
805.09	4998.4	
805.26	5106.3	
805.44	3510.2	
805.61	3859.7	
805.78	5627.1	
805.96	5666.7	
806.13	4225	
806.31	4497.3	
806.48	4552	
806.66	5110.4	
806.83	4165.6	
807	4105.5	
807.18	5016.8	
807.35	5405.3	
807.53	4029	
807.7	3237.8	
807.87	6224.5	
808.05	5020.9	
808.22	4506.9	
808.4	3237.2	
808.57	5060.5	
808.74	4686.4	
808.92	3732.8	
809.09	4764.9	
809.27	4909.7	
809.44	5518.6	
809.61	3273.3	
809.79	3700.7	
809.96	6218.3	
810.14	5812.1	
810.31	3170.3	
810.48	3945.1	
810.66	5110.4	
810.83	5877.7	
811.01	3736.2	
811.18	4136.2	
811.35	5834	
811.53	4459.8	
811.7	4561.5	
811.87	4246.1	
812.05	5023	
812.22	4977.2	
812.39	3566.2	
812.57	3478.1	
812.74	5068.7	
812.92	6677.1	
813.09	3928.7	
813.26	4353.3	
813.44	6452.5	
813.61	4956.8	
813.78	3265.1	
813.96	4390.2	
814.13	5042.8	
814.3	4725.3	
814.48	4739	
814.65	3965.6	
814.82	6216.3	
815	4826.4	
815.17	4035.9	
815.34	4925.4	
815.52	4996.4	
815.69	4947.2	
815.87	4039.3	
816.04	3477.5	
816.21	5042.1	
816.38	4470.7	
816.56	3840.6	
816.73	3600.3	
816.9	6343.9	
817.08	5847.6	
817.25	3644	
817.42	4651.6	
817.6	4621.6	
817.77	5096	
817.94	4100	
818.12	3584.6	
818.29	4773.8	
818.46	7495.6	
818.64	3738.2	
818.81	3547.1	
818.98	4742.4	
819.16	6802	
819.33	4329.4	
819.5	4018.8	
819.67	5419.6	
819.85	6094.8	
820.02	3963.5	
820.19	4197.7	
820.37	5228.5	
820.54	4827.7	
820.71	4131.4	
820.88	5072.1	
821.06	5246.9	
821.23	4847.5	
821.4	4123.2	
821.58	4072.7	
821.75	5817.6	
821.92	5202.5	
822.09	3278.8	
822.27	3646.1	
822.44	5082.4	
822.61	4969.7	
822.79	3361.4	
822.96	6348.7	
823.13	5567.1	
823.3	4754	
823.48	3799.7	
823.65	3414	
823.82	5754.1	
823.99	4642.1	
824.17	4832.5	
824.34	3533.4	
824.51	6663.4	
824.68	5094.7	
824.86	3722.5	
825.03	4104.1	
825.2	5044.8	
825.37	6094.8	
825.55	3583.3	
825.72	4062.5	
825.89	6713.2	
826.06	6234	
826.24	3973.1	
826.41	3914.4	
826.58	6182.8	
826.75	5276.9	
826.92	3115.6	
827.1	3422.2	
827.27	8354.3	
827.44	6687.3	
827.61	3788.7	
827.79	4558.8	
827.96	4769	
828.13	5184.1	
828.3	3936.9	
828.47	3274	
828.65	5318.6	
828.82	5236.7	
828.99	5128.1	
829.16	4414.7	
829.34	5644.2	
829.51	5408	
829.68	4052.2	
829.85	4223.6	
830.02	5965.1	
830.2	5724.8	
830.37	3112.9	
830.54	4907.6	
830.71	6515.3	
830.88	5048.9	
831.05	3164.8	
831.23	3657	
831.4	6191.7	
831.57	6886.6	
831.74	3795.6	
831.91	3231	
832.09	5266	
832.26	5666.7	
832.43	3888.4	
832.6	4370.4	
832.77	5250.3	
832.94	6078.4	
833.12	3116.3	
833.29	3837.2	
833.46	5502.9	
833.63	7161.1	
833.8	4280.9	
833.97	3891.1	
834.15	5743.9	
834.32	5434.6	
834.49	3999	
834.66	4110.3	
834.83	5909.1	
835	4791.6	
835.17	3707.5	
835.35	3749.8	
835.52	5593	
835.69	5460.6	
835.86	3916.4	
836.03	3218.7	
836.2	5603.2	
836.37	5240.1	
836.55	3894.6	
836.72	3621.5	
836.89	5216.2	
837.06	5728.9	
837.23	3942.3	
837.4	4382	
837.57	6453.1	
837.75	7107.1	
837.92	3574.4	
838.09	3747.8	
838.26	5203.2	
838.43	5939.8	
838.6	4072.7	
838.77	3619.4	
838.94	6655.2	
839.11	6451.1	
839.29	3911.6	
839.46	3097.9	
839.63	5630.5	
839.8	5367.7	
839.97	3766.9	
840.14	3737.5	
840.31	5446.9	
840.48	5759.6	
840.65	3136.1	
840.82	3704.1	
841	5680.4	
841.17	5580	
841.34	3499.3	
841.51	3507.5	
841.68	5535.7	
841.85	5299.5	
842.02	3646.7	
842.19	3011.9	
842.36	5377.3	
842.53	5411.4	
842.7	3487	
842.87	4309.6	
843.05	7110.5	
843.22	5319.9	
843.39	3333.4	
843.56	3647.4	
843.73	5160.2	
843.9	5738.4	
844.07	5653.8	
844.24	4638.6	
844.41	8328.4	
844.58	4918.5	
844.75	3339.6	
844.92	3646.1	
845.09	5646.9	
845.26	5642.2	
845.43	3476.8	
845.6	3667.2	
845.77	5661.3	
845.94	5393	
846.12	3849.5	
846.29	4061.8	
846.46	5859.9	
846.63	5606	
846.8	3464.5	
846.97	4155.3	
847.14	6093.4	
847.31	5618.9	
847.48	3868.6	
847.65	4304.1	
847.82	5898.8	
847.99	5874.9	
848.16	4615.4	
848.33	4283	
848.5	5189.6	
848.67	6055.8	
848.84	3442	
849.01	3642.7	
849.18	5067.4	
849.35	4730.8	
849.52	4302.8	
849.69	3398.3	
849.86	5864	
850.03	6023.1	
850.2	3447.4	
850.37	4274.1	
850.54	5983.5	
850.71	5324	
850.88	4169	
851.05	3431.7	
851.22	5470.1	
851.39	6142.5	
851.56	3207.8	
851.73	4028.4	
851.9	4915.8	
852.07	5883.8	
852.24	3787.4	
852.41	3437.9	
852.58	5459.2	
852.75	5059.2	
852.92	3868.6	
853.09	3331.4	
853.26	5241.4	
853.43	6067.4	
853.6	3430.3	
853.77	2942.9	
853.94	6201.2	
854.11	5563.6	
854.28	5058.5	
854.44	3722.5	
854.61	6615.6	
854.78	5753.4	
854.95	3398.3	
855.12	4403.8	
855.29	4545.1	
855.46	6365.8	
855.63	3431	
855.8	4758.8	
855.97	5225.7	
856.14	5950.7	
856.31	4819.6	
856.48	3710.9	
856.65	5217.5	
856.82	4939	
856.99	3311.6	
857.16	3771.7	
857.33	6862.1	
857.49	5298.1	
857.66	3725.3	
857.83	4022.2	
858	5281.7	
858.17	5378.6	
858.34	3293.8	
858.51	3429.7	
858.68	6395.8	
858.85	6372.6	
859.02	3949.2	
859.19	4213.4	
859.36	4898.1	
859.52	4973.8	
859.69	3465.2	
859.86	4112.3	
860.03	5010.7	
860.2	6217	
860.37	3104.7	
860.54	3458.3	
860.71	5819.6	
860.88	6320	
861.05	3872	
861.21	4370.4	
861.38	6300.9	
861.55	4853.7	
861.72	3133.4	
861.89	3876.1	
862.06	5942.5	
862.23	6377.4	
862.4	3366.2	
862.56	3596.9	
862.73	5760.9	
862.9	5392.3	
863.07	4035.2	
863.24	3149.8	
863.41	4829.1	
863.58	4911	
863.75	3480.2	
863.91	3945.1	
864.08	6275	
864.25	5803.9	
864.42	4341.7	
864.59	4839.4	
864.76	6543.9	
864.93	4953.4	
865.09	3353.9	
865.26	3652.9	
865.43	6158.9	
865.6	6461.3	
865.77	3007.8	
865.94	3470.6	
866.1	6074.3	
866.27	5825.8	
866.44	5180.7	
866.61	3249.4	
866.78	5356.1	
866.95	5777.3	
867.11	3320.4	
867.28	3037.1	
867.45	5939.1	
867.62	4972.5	
867.79	4003.8	
867.96	3442	
868.12	4958.8	
868.29	5915.9	
868.46	3408.5	
868.63	4590.9	
868.8	6066.8	
868.97	5801.9	
869.13	3583.9	
869.3	3612.6	
869.47	5701.5	
869.64	5973.2	
869.81	3507.5	
869.97	3511.6	
870.14	5640.1	
870.31	6328.9	
870.48	3361.4	
870.65	4398.4	
870.81	5299.5	
870.98	5266.7	
871.15	3945.8	
871.32	3611.9	
871.48	5726.8	
871.65	6297.5	
871.82	3409.2	
871.99	3801.7	
872.16	6748.7	
872.32	6129.6	
872.49	3429	
872.66	3497.9	
872.83	5935.7	
872.99	5117.2	
873.16	3998.3	
873.33	3426.9	
873.5	5530.2	
873.67	5509.7	
873.83	3639.9	
874	4653.7	
874.17	5653.8	
874.34	6686.6	
874.5	4413.4	
874.67	4272.1	
874.84	6242.2	
875.01	4909	
875.17	4855.7	
875.34	3394.2	
875.51	5520	
875.68	6675	
875.84	4169	
876.01	5025	
876.18	5799.2	
876.34	5731.6	
876.51	3440.6	
876.68	3366.9	
876.85	5298.8	
877.01	6176.7	
877.18	4857.1	
877.35	3411.2	
877.52	5410.1	
877.68	4835.9	
877.85	3414.6	
878.02	3370.3	
878.18	5413.5	
878.35	5104.2	
878.52	2750.4	
878.69	3852.2	
878.85	5855.8	
879.02	5816.9	
879.19	4921.3	
879.35	3726.6	
879.52	5823.1	
879.69	6004	
879.86	2991.4	
880.02	3888.4	
880.19	5381.4	
880.36	6607.4	
880.52	3951.9	
880.69	4110.3	
880.86	5909.8	
881.02	5988.9	
881.19	3761.4	
881.36	3728.7	
881.52	5838.1	
881.69	5175.2	
881.86	3790.1	
882.02	3666.5	
882.19	6049.7	
882.36	7136.5	
882.52	3553.2	
882.69	4851	
882.86	5602.6	
883.02	5502.2	
883.19	4226.3	
883.36	3972.4	
883.52	5920	
883.69	6766.5	
883.86	3467.2	
884.02	3095.8	
884.19	5889.3	
884.36	5433.3	
884.52	3831.1	
884.69	3631	
884.86	5215.5	
885.02	6486.6	
885.19	3880.2	
885.36	4055.7	
885.52	5459.9	
885.69	5620.3	
885.86	4961.5	
886.02	4438.6	
886.19	5880.4	
886.35	5317.9	
886.52	3820.8	
886.69	4829.8	
886.85	5038.7	
887.02	6305	
887.19	6305	
887.35	6305	
887.52	6305	
887.68	6305	
887.85	6305	
888.02	6305	
888.18	6305	
888.35	6305	
888.51	6305	
888.68	6305	
888.85	6305	
889.01	6305	
889.18	6305	
889.35	6305	
889.51	6305	
889.68	6305	
889.84	6305	
890.01	6305	
890.17	6305	
890.34	6305	
890.51	6305	
890.67	6305	
890.84	6305	
891	6305	
891.17	6305	
891.34	6305	
891.5	6305	
891.67	6305	
891.83	6305	
892	6305	
892.16	6305	
892.33	6305	
892.5	6305	
892.66	6305	
892.83	6305	
892.99	6305	
893.16	6305	
893.32	6305	
893.49	6305	
893.65	6305	
893.82	6305	
893.99	6305	
894.15	6305	
894.32	6305	
894.48	6305	
894.65	6305	
894.81	6305	
894.98	6305	
895.14	6305	
895.31	6305	
895.47	6305	
895.64	6305	
895.81	6305	
895.97	6305	
896.14	6305	
896.3	6305	
896.47	6305	
896.63	6305	
896.8	6305	
896.96	6305	
897.13	6305	
897.29	6305	
897.46	6305	
897.62	6305	
897.79	6305	
897.95	6305	
898.12	6305	
898.28	6305	
898.45	6305	
898.61	6305	
898.78	6305	
898.94	6305	
899.11	6305	
899.27	6305	
899.44	6305	
899.6	6305	
899.77	6305	
899.93	6305	
900.1	6305	
900.26	6305	
900.43	6305	
900.59	6305	
900.76	6305	
900.92	6305	
901.09	6305	
901.25	6305	
901.42	6305	
901.58	6305	
901.75	6305	
901.91	6305	
902.07	6305	
902.24	6305	
902.4	6305	
902.57	6305	
902.73	6305	
902.9	6305	
903.06	6305	
903.23	6305	
903.39	6305	
903.56	6305	
903.72	6305	
903.88	6305	
904.05	6305	
904.21	6305	
904.38	6305	
904.54	6305	
904.71	6305	
904.87	6305	
905.03	6305	
905.2	6305	
905.36	6305	
905.53	6305	
905.69	6305	
905.86	6305	
906.02	6305	
906.18	6305	
906.35	6305	
906.51	6305	
906.68	6305	
906.84	6305	
907.01	6305	
907.17	6305	
907.33	6305	
907.5	6305	
907.66	6305	
907.83	6305	
907.99	6305	
908.15	6305	
908.32	6305	
908.48	6305	
908.65	6305	
908.81	6305	
908.97	6305	
909.14	6305	
909.3	6305	
909.47	6305	
909.63	6305	
909.79	6305	
909.96	6305	
910.12	6305	
910.28	6305	
910.45	6305	
910.61	6305	
910.78	6305	
910.94	6305	
911.1	6305	
911.27	6305	
911.43	6305	
911.59	6305	
911.76	6305	
911.92	6305	
912.08	6305	
912.25	6305	
912.41	6305	
912.57	6305	
912.74	6305	
912.9	6305	
913.07	6305	
913.23	6305	
913.39	6305	
913.56	6305	
913.72	6305	
913.88	6305	
914.05	6305	
914.21	6305	
914.37	6305	
914.54	6305	
914.7	6305	
914.86	6305	
915.03	6305	
915.19	6305	
