Wavelength	Intensities	
nm	a.u.	
179.22	1890.3	
179.44	1888.9	
179.65	1891.6	
179.86	1886.2	
180.08	1860.2	
180.29	4815.5	
180.51	3438.5	
180.72	5557.5	
180.94	6486.6	
181.15	3175	
181.37	3139.5	
181.58	5397.8	
181.79	5660.6	
182.01	3262.4	
182.22	3516.4	
182.44	5668.8	
182.65	4769	
182.87	4421.6	
183.08	3926	
183.29	5902.2	
183.51	4861.2	
183.72	3547.1	
183.94	5154.7	
184.15	5287.9	
184.37	5294	
184.58	3121.1	
184.79	4246.8	
185.01	4896.7	
185.22	5646.2	
185.44	4502.8	
185.65	3816	
185.86	5165.7	
186.08	4773.8	
186.29	3007.1	
186.51	3302	
186.72	4974.5	
186.94	5823.1	
187.15	3768.3	
187.36	3886.4	
187.58	7596.6	
187.79	5390.3	
188.01	4029	
188.22	6347.3	
188.43	6466.8	
188.65	5614.2	
188.86	3287.7	
189.08	3874.8	
189.29	5116.5	
189.5	5094	
189.72	3563.5	
189.93	3711.6	
190.15	5800.5	
190.36	6914.6	
190.57	4016.7	
190.79	3856.3	
191	5939.8	
191.22	5909.1	
191.43	3913.7	
191.64	3277.4	
191.86	6155.5	
192.07	5875.6	
192.29	3485	
192.5	3710.2	
192.71	5874.3	
192.93	5088.5	
193.14	3576.4	
193.35	3665.2	
193.57	5063.9	
193.78	5780.1	
194	2942.9	
194.21	3578.5	
194.42	4904.9	
194.64	5317.9	
194.85	3906.8	
195.07	4619.5	
195.28	5338.4	
195.49	4636.6	
195.71	4856.4	
195.92	3362.1	
196.13	5495.4	
196.35	5602.6	
196.56	5173.2	
196.78	3882.3	
196.99	6940.6	
197.2	6475.7	
197.42	4479.6	
197.63	3958.7	
197.84	4777.2	
198.06	5476.3	
198.27	3637.9	
198.48	4829.8	
198.7	5121.3	
198.91	5184.1	
199.13	3956	
199.34	3988.1	
199.55	5728.2	
199.77	4615.4	
199.98	3436.5	
200.19	3991.5	
200.41	5231.9	
200.62	4964.3	
200.83	4140.3	
201.05	4386.1	
201.26	5214.8	
201.47	5029.1	
201.69	3516.4	
201.9	3359.4	
202.11	5255.8	
202.33	6260	
202.54	3764.2	
202.76	4119.1	
202.97	5455.8	
203.18	5421.7	
203.4	4057	
203.61	4048.2	
203.82	5375.9	
204.04	4952.7	
204.25	4001.7	
204.46	3852.9	
204.68	5339.1	
204.89	5559.6	
205.1	3848.8	
205.32	3351.8	
205.53	5728.9	
205.74	5850.4	
205.96	2916.3	
206.17	4083.6	
206.38	5650.3	
206.6	5752.7	
206.81	4538.3	
207.02	3667.9	
207.24	5547.9	
207.45	5943.9	
207.66	3778.5	
207.88	3259.7	
208.09	5477.6	
208.3	5251.7	
208.52	3479.5	
208.73	3848.1	
208.94	5332.9	
209.15	6021.7	
209.37	3727.3	
209.58	3975.8	
209.79	5790.3	
210.01	5124.7	
210.22	3074.7	
210.43	3215.3	
210.65	5307	
210.86	5757.5	
211.07	3756.7	
211.29	3450.8	
211.5	5620.3	
211.71	5262.6	
211.93	3444.7	
212.14	3448.8	
212.35	5253	
212.56	5435.3	
212.78	3934.8	
212.99	3295.2	
213.2	6268.8	
213.42	5101.5	
213.63	3521.1	
213.84	3873.4	
214.06	4718.5	
214.27	4851.6	
214.48	3717.1	
214.69	4045.4	
214.91	5952.1	
215.12	6036	
215.33	4058.4	
215.55	4498.7	
215.76	6536.4	
215.97	5647.6	
216.18	3874.8	
216.4	3797.6	
216.61	4966.3	
216.82	5788.9	
217.04	3514.3	
217.25	3566.2	
217.46	5931.6	
217.67	5662	
217.89	3109.5	
218.1	3237.2	
218.31	5401.9	
218.53	5515.9	
218.74	3641.3	
218.95	3561.4	
219.16	5291.3	
219.38	6235.4	
219.59	3590.1	
219.8	4246.8	
220.01	6902.3	
220.23	5323.4	
220.44	4603.8	
220.65	3435.8	
220.87	5408	
221.08	5956.9	
221.29	3217.4	
221.5	4357.4	
221.72	7213.6	
221.93	5017.5	
222.14	3999.7	
222.35	4652.3	
222.57	5320.6	
222.78	5704.3	
222.99	3781.2	
223.2	4050.2	
223.42	5611.4	
223.63	5810.8	
223.84	2890.4	
224.05	2876.7	
224.27	6739.9	
224.48	6140.5	
224.69	4672.8	
224.9	4005.1	
225.12	5516.5	
225.33	5269.4	
225.54	3163.4	
225.75	3581.2	
225.97	4910.3	
226.18	5202.5	
226.39	3809.2	
226.6	3545.7	
226.82	5050.3	
227.03	4920.6	
227.24	3949.2	
227.45	3344.3	
227.67	5670.1	
227.88	6184.2	
228.09	4394.9	
228.3	4448.2	
228.52	5732.9	
228.73	5281	
228.94	3689.8	
229.15	3298.6	
229.36	5266.7	
229.58	5223.7	
229.79	3693.9	
230	4345.1	
230.21	6290	
230.43	5421	
230.64	3923.2	
230.85	4103.4	
231.06	5740.5	
231.28	5711.8	
231.49	3261.7	
231.7	3838.6	
231.91	5641.5	
232.12	5297.4	
232.34	3360.7	
232.55	3864.5	
232.76	5909.1	
232.97	5475.6	
233.18	3459	
233.4	3881.6	
233.61	5521.3	
233.82	5055.8	
234.03	3663.8	
234.25	3609.9	
234.46	7305.8	
234.67	5364.3	
234.88	4014.7	
235.09	3494.5	
235.31	5619.6	
235.52	5180	
235.73	3905.5	
235.94	3321.8	
236.15	5034.6	
236.37	6426.5	
236.58	3493.8	
236.79	3781.9	
237	5631.9	
237.21	4810.7	
237.43	4041.3	
237.64	3166.8	
237.85	9504.6	
238.06	4890.5	
238.27	4153.3	
238.48	3309.5	
238.7	5619.6	
238.91	5175.2	
239.12	3732.8	
239.33	3779.2	
239.54	4919.2	
239.76	5277.6	
239.97	3747.1	
240.18	3808.5	
240.39	6543.9	
240.6	5682.4	
240.82	3944.4	
241.03	3224.9	
241.24	5296.7	
241.45	6128.9	
241.66	3454.9	
241.87	4072	
242.09	6059.9	
242.3	6374.6	
242.51	4087.1	
242.72	3731.4	
242.93	5791.7	
243.14	5285.1	
243.36	4398.4	
243.57	4728.1	
243.78	6182.1	
243.99	5500.2	
244.2	3877.5	
244.41	3491.8	
244.63	4902.8	
244.84	5574.6	
245.05	4078.9	
245.26	3814	
245.47	5571.2	
245.68	5799.8	
245.9	5082.4	
246.11	3960.8	
246.32	5198.4	
246.53	5539.1	
246.74	6126.8	
246.95	3242.6	
247.16	4825.7	
247.38	5310.4	
247.59	3197.6	
247.8	3857	
248.01	4999.1	
248.22	5270.8	
248.43	3457.7	
248.64	3680.2	
248.86	4738.3	
249.07	5085.8	
249.28	3287	
249.49	3880.9	
249.7	5911.8	
249.91	5937.1	
250.12	3208.5	
250.34	3217.4	
250.55	5374.6	
250.76	5362.3	
250.97	3876.1	
251.18	3921.9	
251.39	5969.1	
251.6	5513.1	
251.81	4006.5	
252.03	3980.6	
252.24	5056.4	
252.45	5804.6	
252.66	3336.1	
252.87	4197	
253.08	5339.7	
253.29	6976.1	
253.5	3347.1	
253.72	4593.6	
253.93	5116.5	
254.14	6236.1	
254.35	3571	
254.56	3723.2	
254.77	5515.9	
254.98	4997	
255.19	3544.4	
255.41	4578.6	
255.62	5419.6	
255.83	5954.1	
256.04	4036.5	
256.25	4018.8	
256.46	6516.6	
256.67	5008	
256.88	3908.2	
257.09	4399	
257.31	4973.8	
257.52	5027.1	
257.73	4930.8	
257.94	3591.5	
258.15	5154.7	
258.36	5311.1	
258.57	4508.9	
258.78	2919	
258.99	5742.5	
259.2	5123.3	
259.41	3648.1	
259.63	3706.8	
259.84	6121.4	
260.05	6492.7	
260.26	4756.1	
260.47	3520.5	
260.68	5951.4	
260.89	5199.1	
261.1	4342.4	
261.31	3435.1	
261.52	5876.3	
261.73	6272.9	
261.95	4607.2	
262.16	4091.8	
262.37	5973.2	
262.58	6124.8	
262.79	4615.4	
263	3655.6	
263.21	5435.3	
263.42	5233.2	
263.63	3780.6	
263.84	3692.5	
264.05	5895.4	
264.26	6289.3	
264.47	4534.2	
264.69	4078.2	
264.9	6012.8	
265.11	5507	
265.32	3510.2	
265.53	3606.5	
265.74	5436.7	
265.95	4711.7	
266.16	3848.8	
266.37	4278.2	
266.58	5450.3	
266.79	5128.8	
267	3580.5	
267.21	3310.2	
267.42	4892.6	
267.63	5274.2	
267.84	3741.6	
268.06	3220.1	
268.27	5740.5	
268.48	6055.8	
268.69	3670.6	
268.9	4351.3	
269.11	5992.4	
269.32	4765.6	
269.53	3752.6	
269.74	3489.1	
269.95	5597.8	
270.16	4737.6	
270.37	3736.2	
270.58	4354.7	
270.79	5191.6	
271	5843.5	
271.21	4017.4	
271.42	3813.3	
271.63	5454.4	
271.84	4946.5	
272.05	3076	
272.26	3419.4	
272.47	5324.7	
272.68	5506.3	
272.89	3702.7	
273.11	4220.2	
273.32	5074.2	
273.53	6262	
273.74	4070	
273.95	4024.3	
274.16	5892	
274.37	5381.4	
274.58	4160.8	
274.79	3288.4	
275	5418.2	
275.21	5985.5	
275.42	4917.2	
275.63	4333.5	
275.84	5560.2	
276.05	7021.1	
276.26	3995.6	
276.47	3695.9	
276.68	5170.4	
276.89	6254.5	
277.1	4289.1	
277.31	3311.6	
277.52	5582.1	
277.73	5699.5	
277.94	3281.5	
278.15	3671.3	
278.36	5542.5	
278.57	4988.9	
278.78	3602.4	
278.99	4149.2	
279.2	5006.6	
279.41	4876.9	
279.62	4769.7	
279.83	3365.5	
280.04	6488.6	
280.25	4907.6	
280.46	4756.1	
280.67	3820.1	
280.88	4969.7	
281.09	6017.6	
281.3	3977.8	
281.51	5046.9	
281.72	5018.2	
281.93	5775.3	
282.14	3515	
282.35	3858.4	
282.56	5814.9	
282.77	5717.2	
282.98	3670	
283.19	4460.5	
283.4	7077.1	
283.61	5279	
283.82	3392.8	
284.03	4698.7	
284.24	5411.4	
284.45	5944.6	
284.66	4680.3	
284.87	4463.2	
285.08	5921.4	
285.29	6065.4	
285.5	3156.6	
285.71	3706.8	
285.92	6001.9	
286.12	6571.9	
286.33	4659.1	
286.54	3681.6	
286.75	5811.5	
286.96	5177.3	
287.17	3354.6	
287.38	4591.5	
287.59	5016.2	
287.8	4920.6	
288.01	3760.8	
288.22	4250.9	
288.43	5819	
288.64	4849.6	
288.85	4422.2	
289.06	4245.4	
289.27	5811.5	
289.48	6205.3	
289.69	4680.3	
289.9	4323.3	
290.11	5958.2	
290.32	5051.7	
290.53	4478.2	
290.74	4107.5	
290.94	5747.3	
291.15	5797.8	
291.36	3639.9	
291.57	4225.6	
291.78	5105.6	
291.99	4773.1	
292.2	3374.4	
292.41	4144.4	
292.62	5903.6	
292.83	5635.3	
293.04	5085.1	
293.25	3495.2	
293.46	5160.2	
293.67	5902.2	
293.88	3568.2	
294.09	3399.6	
294.29	4868	
294.5	5461.2	
294.71	3847.5	
294.92	3632.4	
295.13	5171.8	
295.34	6341.2	
295.55	3164.1	
295.76	3452.2	
295.97	5735	
296.18	6497.5	
296.39	3362.1	
296.6	3543.7	
296.81	5459.9	
297.01	5783.5	
297.22	3762.8	
297.43	3538.9	
297.64	4962.2	
297.85	5014.1	
298.06	2925.9	
298.27	3209.2	
298.48	5368.4	
298.69	5074.2	
298.9	3863.2	
299.11	3485.6	
299.31	4849.6	
299.52	4865.3	
299.73	4129.4	
299.94	4072.7	
300.15	5337.7	
300.36	4949.9	
300.57	4060.4	
300.78	4148.5	
300.99	5221.6	
301.2	5395	
301.4	3594.9	
301.61	3848.8	
301.82	5615.5	
302.03	5707.7	
302.24	4300.7	
302.45	3366.9	
302.66	5599.8	
302.87	6013.5	
303.08	3558	
303.29	4856.4	
303.49	5070.8	
303.7	5373.9	
303.91	3162.7	
304.12	4611.3	
304.33	4944.5	
304.54	5405.3	
304.75	3618.8	
304.96	3413.3	
305.16	5655.8	
305.37	6335	
305.58	3142.9	
305.79	3247.4	
306	5594.4	
306.21	4787.5	
306.42	3568.2	
306.63	5399.1	
306.83	5235.3	
307.04	5879	
307.25	3938.9	
307.46	3910.3	
307.67	4614.1	
307.88	5754.1	
308.09	3508.2	
308.29	3652.9	
308.5	5438.7	
308.71	5930.2	
308.92	3780.6	
309.13	3458.3	
309.34	5159.5	
309.55	5246.9	
309.75	4399.7	
309.96	4095.3	
310.17	5780.1	
310.38	5007.3	
310.59	4284.4	
310.8	3315.7	
311.01	5565	
311.21	5227.1	
311.42	3410.6	
311.63	3531.4	
311.84	5082.4	
312.05	5429.2	
312.26	3935.5	
312.46	4246.8	
312.67	5156.8	
312.88	4861.2	
313.09	3444	
313.3	3372.3	
313.51	6100.2	
313.71	6408.8	
313.92	3433.1	
314.13	3614	
314.34	5541.8	
314.55	5253	
314.76	4465.9	
314.96	3873.4	
315.17	5423.7	
315.38	5709.1	
315.59	3447.4	
315.8	3339.6	
316.01	6157.6	
316.21	6223.8	
316.42	3319.8	
316.63	3820.1	
316.84	5216.9	
317.05	6063.4	
317.26	4100.7	
317.46	3674.1	
317.67	5209.3	
317.88	5714.5	
318.09	4371.7	
318.3	3220.1	
318.5	5036.6	
318.71	5621	
318.92	5643.5	
319.13	4033.1	
319.34	5844.9	
319.54	5945.9	
319.75	3220.1	
319.96	3055.6	
320.17	5698.8	
320.38	5904.3	
320.58	3115	
320.79	3729.4	
321	5897.5	
321.21	5957.5	
321.42	3803.1	
321.62	3162.1	
321.83	4965	
322.04	5345.9	
322.25	3627.6	
322.46	3478.8	
322.66	5456.5	
322.87	5620.3	
323.08	4273.4	
323.29	3366.9	
323.5	6371.2	
323.7	4911.7	
323.91	4672.1	
324.12	4222.2	
324.33	5423	
324.53	5688.6	
324.74	4057.7	
324.95	4212	
325.16	4728.8	
325.37	5167	
325.57	3463.1	
325.78	3502.7	
325.99	5368.4	
326.2	4878.9	
326.4	4858.5	
326.61	3241.3	
326.82	5274.9	
327.03	5498.1	
327.24	4967	
327.44	4570.4	
327.65	5567.7	
327.86	4534.9	
328.07	4048.2	
328.27	3305.4	
328.48	5985.5	
328.69	4910.3	
328.9	4958.8	
329.1	3708.9	
329.31	5238.7	
329.52	6109.1	
329.73	3491.1	
329.93	3846.8	
330.14	5287.2	
330.35	5601.9	
330.56	5678.3	
330.76	4286.4	
330.97	5141.8	
331.18	5513.1	
331.39	3820.8	
331.59	3087	
331.8	5855.1	
332.01	6039.5	
332.22	3505.4	
332.42	4112.3	
332.63	5461.9	
332.84	5011.4	
333.05	3902.7	
333.25	3538.9	
333.46	5048.2	
333.67	5310.4	
333.88	3592.1	
334.08	4020.2	
334.29	7084.6	
334.5	5972.6	
334.7	3332	
334.91	4932.2	
335.12	4898.7	
335.33	5730.2	
335.53	3764.2	
335.74	5651.7	
335.95	5189.6	
336.16	4999.1	
336.36	3943	
336.57	4400.4	
336.78	4848.2	
336.98	5907.7	
337.19	4714.4	
337.4	3764.2	
337.61	6445	
337.81	4932.2	
338.02	3505.4	
338.23	4522.6	
338.43	6078.4	
338.64	4975.2	
338.85	3491.8	
339.05	4515.8	
339.26	6167.1	
339.47	4768.4	
339.68	3488.4	
339.88	5144.5	
340.09	5537.7	
340.3	5788.2	
340.5	4073.4	
340.71	3107.5	
340.92	4810.7	
341.13	6014.2	
341.33	3359.4	
341.54	4083	
341.75	5572.5	
341.95	5188.2	
342.16	3944.4	
342.37	4244.8	
342.57	4991.6	
342.78	5370.5	
342.99	4293.9	
343.19	3109.5	
343.4	5766.4	
343.61	5604.6	
343.81	3678.8	
344.02	3360.7	
344.23	5717.9	
344.43	6089.3	
344.64	4289.8	
344.85	4194.2	
345.06	5592.3	
345.26	5962.3	
345.47	4005.1	
345.68	4692.6	
345.88	4777.9	
346.09	5782.8	
346.3	4075.5	
346.5	3082.9	
346.71	5277.6	
346.92	5109	
347.12	3168.9	
347.33	4008.6	
347.54	5824.4	
347.74	6260	
347.95	4045.4	
348.16	2932.7	
348.36	5123.3	
348.57	4956.8	
348.78	3928	
348.98	4237.2	
349.19	5253	
349.39	4797	
349.6	3157.3	
349.81	3513.6	
350.01	5578.7	
350.22	4996.4	
350.43	3789.4	
350.63	4625	
350.84	5362.9	
351.05	5134.9	
351.25	3510.2	
351.46	3173.7	
351.67	5859.2	
351.87	5018.2	
352.08	3725.3	
352.29	4188.1	
352.49	5780.7	
352.7	5397.8	
352.9	3346.4	
353.11	4185.4	
353.32	6324.8	
353.52	5105.6	
353.73	3306.1	
353.94	4219.5	
354.14	5596.4	
354.35	5414.1	
354.55	3416	
354.76	3813.3	
354.97	5601.9	
355.17	5330.9	
355.38	3239.9	
355.59	4481.6	
355.79	4974.5	
356	5408	
356.2	3844	
356.41	3312.9	
356.62	4756.1	
356.82	5255.8	
357.03	4065.9	
357.24	3671.3	
357.44	4997.7	
357.65	5102.2	
357.85	4915.8	
358.06	3810.6	
358.27	4676.9	
358.47	4886.5	
358.68	3187.3	
358.88	4056.3	
359.09	5537.7	
359.3	5980.1	
359.5	4703.5	
359.71	4187.4	
359.91	6352.1	
360.12	5671.5	
360.33	4021.5	
360.53	4517.1	
360.74	5007.3	
360.94	5075.5	
361.15	4203.1	
361.36	3454.9	
361.56	5837.4	
361.77	5243.5	
361.97	4756.1	
362.18	3730	
362.38	5770.5	
362.59	4883	
362.8	3385.3	
363	3278.8	
363.21	4699.4	
363.41	5345.9	
363.62	3938.9	
363.83	4922.6	
364.03	5390.3	
364.24	6404.7	
364.44	4992.3	
364.65	5014.1	
364.85	5197.7	
365.06	4842.8	
365.27	3589.4	
365.47	3563.5	
365.68	6169.2	
365.88	5154.7	
366.09	4037.2	
366.29	3649.5	
366.5	5438.7	
366.71	5831.2	
366.91	4958.1	
367.12	4128.7	
367.32	6413.6	
367.53	5692	
367.73	4031.1	
367.94	5021.6	
368.14	5674.9	
368.35	6567.2	
368.56	4111	
368.76	3444	
368.97	5745.9	
369.17	7366.5	
369.38	3489.7	
369.58	3875.4	
369.79	4835.9	
369.99	6095.4	
370.2	4849.6	
370.4	3926.6	
370.61	5472.9	
370.82	6604	
371.02	3826.3	
371.23	3200.3	
371.43	4758.1	
371.64	6026.5	
371.84	3817.4	
372.05	5031.2	
372.25	7259.4	
372.46	5718.6	
372.66	3822.2	
372.87	3771	
373.07	5750.7	
373.28	7382.2	
373.48	4796.3	
373.69	4580.6	
373.9	5257.8	
374.1	5308.3	
374.31	4733.5	
374.51	4313.7	
374.72	6117.3	
374.92	4944.5	
375.13	4902.2	
375.33	4102.8	
375.54	5625.1	
375.74	5066.7	
375.95	4151.9	
376.15	5419.6	
376.36	5672.9	
376.56	5532.9	
376.77	4246.8	
376.97	4693.9	
377.18	6695.5	
377.38	5726.8	
377.59	5060.5	
377.79	3785.3	
378	5496.1	
378.2	5980.8	
378.41	3812	
378.61	3672	
378.82	5958.2	
379.02	5151.3	
379.23	3902.1	
379.43	5067.4	
379.64	6041.5	
379.84	5687.2	
380.05	3773	
380.25	3685	
380.46	5843.5	
380.66	5410.7	
380.87	5100.8	
381.07	5362.3	
381.28	6440.2	
381.48	5773.2	
381.69	3814	
381.89	3899.3	
382.1	4852.3	
382.3	5924.8	
382.51	4896.7	
382.71	5788.2	
382.91	5790.3	
383.12	6300.9	
383.32	4147.8	
383.53	4362.2	
383.73	5642.2	
383.94	5407.3	
384.14	4316.4	
384.35	3390.1	
384.55	5312.4	
384.76	5802.6	
384.96	4101.4	
385.17	4452.3	
385.37	5809.4	
385.58	5089.2	
385.78	4455.7	
385.98	3433.8	
386.19	5317.2	
386.39	5655.8	
386.6	3937.6	
386.8	4123.2	
387.01	5767.1	
387.21	5862	
387.42	4587.4	
387.62	5188.2	
387.83	5094	
388.03	5761.6	
388.23	4147.1	
388.44	4948.6	
388.64	4816.8	
388.85	4937	
389.05	4493.2	
389.26	5107	
389.46	6776	
389.67	6229.2	
389.87	4511	
390.07	4516.5	
390.28	5408	
390.48	4992.9	
390.69	3777.8	
390.89	4070.7	
391.1	5191.6	
391.3	6111.8	
391.5	5233.2	
391.71	5766.4	
391.91	5838.8	
392.12	6781.5	
392.32	5222.3	
392.53	4506.2	
392.73	5238	
392.93	5434.6	
393.14	4216.1	
393.34	4924	
393.55	5864	
393.75	5353.4	
393.95	4229.1	
394.16	4158.7	
394.36	5175.2	
394.57	5798.5	
394.77	3702.7	
394.98	4059.8	
395.18	5158.2	
395.38	5218.2	
395.59	4985.4	
395.79	3908.2	
396	5268.1	
396.2	5720.7	
396.4	4857.1	
396.61	4625	
396.81	5909.8	
397.02	5128.8	
397.22	4943.8	
397.42	4949.9	
397.63	5876.3	
397.83	5110.4	
398.04	3866.6	
398.24	4340.3	
398.44	5698.1	
398.65	4773.8	
398.85	3686.3	
399.05	3794.9	
399.26	5103.5	
399.46	6771.3	
399.67	4190.1	
399.87	3945.8	
400.07	5463.3	
400.28	5732.9	
400.48	3946.4	
400.69	4994.3	
400.89	5984.2	
401.09	6455.2	
401.3	3849.5	
401.5	4963.6	
401.7	6575.3	
401.91	6862.1	
402.11	4237.2	
402.32	4444.1	
402.52	6001.2	
402.72	5839.4	
402.93	4590.2	
403.13	3452.9	
403.33	6722.8	
403.54	5469.4	
403.74	4333.5	
403.94	5203.2	
404.15	5552	
404.35	6675.7	
404.56	4158.7	
404.76	5887.9	
404.96	6021	
405.17	5750	
405.37	5318.6	
405.57	4669.4	
405.78	5962.3	
405.98	5477.6	
406.18	4116.4	
406.39	5008.6	
406.59	5933	
406.79	5599.8	
407	3976.5	
407.2	4069.3	
407.4	5987.6	
407.61	6262.7	
407.81	4074.1	
408.01	6118	
408.22	4965.6	
408.42	6905.1	
408.62	5100.8	
408.83	4573.8	
409.03	5623	
409.23	5365.7	
409.44	4575.2	
409.64	4924	
409.84	6388.3	
410.05	6286.6	
410.25	4704.9	
410.45	4446.1	
410.66	5767.8	
410.86	8193.2	
411.06	4809.3	
411.27	4702.8	
411.47	7869	
411.67	5908.4	
411.88	4912.4	
412.08	5169.8	
412.28	6591.7	
412.49	6955.6	
412.69	4695.3	
412.89	4668	
413.09	6853.9	
413.3	6657.9	
413.5	4764.3	
413.7	4363.5	
413.91	5900.9	
414.11	6763.8	
414.31	4613.4	
414.52	4945.2	
414.72	6441.5	
414.92	6331	
415.12	4569.7	
415.33	5090.6	
415.53	6696.9	
415.73	6873	
415.94	5414.8	
416.14	4847.5	
416.34	5736.4	
416.55	5530.2	
416.75	6006.7	
416.95	5438	
417.15	6692.8	
417.36	7438.9	
417.56	6126.2	
417.76	5266.7	
417.97	7066.2	
418.17	6685.3	
418.37	4888.5	
418.57	4954.7	
418.78	6473.6	
418.98	6190.3	
419.18	5708.4	
419.38	5684.5	
419.59	6313.2	
419.79	5882.4	
419.99	4747.2	
420.2	5137.7	
420.4	6690.7	
420.6	6874.3	
420.8	4644.8	
421.01	4591.5	
421.21	6480.5	
421.41	6651.8	
421.61	5027.1	
421.82	4792.9	
422.02	6027.2	
422.22	7000	
422.42	5533.6	
422.63	5195.7	
422.83	6108.4	
423.03	7392.5	
423.23	5282.4	
423.44	4248.9	
423.64	6206.7	
423.84	5982.8	
424.04	4695.3	
424.25	4367	
424.45	7135.1	
424.65	7111.2	
424.85	4182.6	
425.06	4773.8	
425.26	7137.2	
425.46	5666.7	
425.66	5156.8	
425.87	4926	
426.07	6912.6	
426.27	6736.5	
426.47	5004.6	
426.67	4382	
426.88	7238.2	
427.08	6730.3	
427.28	5240.1	
427.48	4396.3	
427.69	5607.3	
427.89	6265.4	
428.09	5201.2	
428.29	4491.2	
428.5	7017	
428.7	6433.4	
428.9	4326	
429.1	4821.6	
429.3	6384.2	
429.51	6808.1	
429.71	4590.2	
429.91	5464	
430.11	6590.4	
430.31	7130.3	
430.52	4941.1	
430.72	5146.5	
430.92	7156.3	
431.12	6599.2	
431.32	4474.8	
431.53	5010	
431.73	5602.6	
431.93	7275.8	
432.13	4464.6	
432.33	4273.4	
432.54	6044.9	
432.74	6427.9	
432.94	4284.4	
433.14	5361.6	
433.34	6597.2	
433.55	6029.2	
433.75	5255.1	
433.95	6864.1	
434.15	6362.4	
434.35	6048.3	
434.56	4500.1	
434.76	3937.6	
434.96	6287.3	
435.16	6503.7	
435.36	4291.2	
435.56	5400.5	
435.77	5927.5	
435.97	6070.2	
436.17	6095.4	
436.37	5359.5	
436.57	5937.1	
436.78	5864.7	
436.98	7121.5	
437.18	5938.4	
437.38	6551.5	
437.58	6093.4	
437.78	6044.9	
437.99	4765.6	
438.19	6700.3	
438.39	8047.2	
438.59	4646.8	
438.79	4162.2	
438.99	7247.1	
439.2	6210.1	
439.4	4318.5	
439.6	4318.5	
439.8	6451.1	
440	7487.4	
440.2	5223.7	
440.4	5337	
440.61	6645	
440.81	7262.1	
441.01	4429.8	
441.21	5382.7	
441.41	7129	
441.61	6746.7	
441.81	5530.2	
442.02	6636.8	
442.22	7565.2	
442.42	6753.5	
442.62	4512.4	
442.82	4569.7	
443.02	7085.3	
443.22	6317.3	
443.43	4962.2	
443.63	4465.9	
443.83	6141.9	
444.03	6055.8	
444.23	5607.3	
444.43	5268.1	
444.63	6377.4	
444.83	7572.7	
445.04	4513	
445.24	5795.8	
445.44	6793.1	
445.64	6759.7	
445.84	5324	
446.04	5326.8	
446.24	6139.8	
446.44	7193.1	
446.65	4661.9	
446.85	4955.4	
447.05	6496.8	
447.25	7110.5	
447.45	5119.2	
447.65	4375.8	
447.85	6479.1	
448.05	6060.6	
448.25	5497.4	
448.46	5247.6	
448.66	6421.7	
448.86	6206	
449.06	4256.4	
449.26	5398.4	
449.46	6790.4	
449.66	5859.9	
449.86	4931.5	
450.06	4919.9	
450.26	6095.4	
450.47	6625.2	
450.67	5178.6	
450.87	5496.1	
451.07	6701	
451.27	6426.5	
451.47	4564.9	
451.67	5110.4	
451.87	6149.4	
452.07	7273	
452.27	4698.7	
452.47	4820.2	
452.67	6486.6	
452.88	6925.5	
453.08	4127.3	
453.28	6061.3	
453.48	7608.2	
453.68	6421.1	
453.88	4617.5	
454.08	4872.1	
454.28	6694.8	
454.48	6403.3	
454.68	5353.4	
454.88	5879.7	
455.08	6860	
455.28	6532.3	
455.48	4479.6	
455.68	5082.4	
455.89	7223.9	
456.09	6935.8	
456.29	4740.4	
456.49	4810	
456.69	7118.7	
456.89	6376	
457.09	5341.1	
457.29	5623.7	
457.49	6688.7	
457.69	6796.5	
457.89	5051	
458.09	4562.2	
458.29	6449.1	
458.49	7187.7	
458.69	5450.3	
458.89	4891.2	
459.09	7256.6	
459.29	7451.9	
459.49	5016.2	
459.69	5772.5	
459.9	6961	
460.1	6410.1	
460.3	4865.3	
460.5	4722.6	
460.7	6861.4	
460.9	6482.5	
461.1	4410.6	
461.3	5587.5	
461.5	7473	
461.7	7058.7	
461.9	4739.7	
462.1	5291.3	
462.3	6554.2	
462.5	7144.7	
462.7	4854.4	
462.9	4842.8	
463.1	8141.4	
463.3	7769.3	
463.5	4990.2	
463.7	5910.4	
463.9	6713.9	
464.1	7065.5	
464.3	5075.5	
464.5	5428.5	
464.7	7313.3	
464.9	6962.4	
465.1	6697.5	
465.3	5667.4	
465.5	7603.4	
465.7	7621.2	
465.9	5961.6	
466.1	5788.9	
466.3	7408.9	
466.5	7333.8	
466.7	6477.7	
466.9	5489.2	
467.1	7165.8	
467.3	8055.3	
467.5	6530.3	
467.7	5451.7	
467.9	8234.9	
468.1	9181	
468.3	6197.2	
468.5	6515.3	
468.7	7129	
468.9	7083.9	
469.1	5685.8	
469.3	6298.2	
469.5	8946.9	
469.7	6617.7	
469.9	6183.5	
470.1	5391.6	
470.3	7162.4	
470.5	7168.6	
470.7	6620.4	
470.9	5524.1	
471.1	6849.1	
471.3	7487.4	
471.5	5316.5	
471.69	7184.3	
471.89	6804	
472.09	6383.5	
472.29	6104.3	
472.49	6552.8	
472.69	6597.9	
472.89	7372.7	
473.09	5251	
473.29	5466	
473.49	6728.3	
473.69	6961	
473.89	6466.1	
474.09	5500.8	
474.29	8137.3	
474.49	7854.6	
474.69	6329.6	
474.89	5651	
475.09	7017.7	
475.29	6919.4	
475.49	5190.2	
475.69	5423.7	
475.88	8519.5	
476.08	7221.1	
476.28	5098.1	
476.48	5613.5	
476.68	7714	
476.88	7561.1	
477.08	5397.1	
477.28	5664.7	
477.48	7028.6	
477.68	7671.7	
477.88	5255.1	
478.08	5560.2	
478.28	7916.8	
478.48	7076.4	
478.67	5541.1	
478.87	5005.2	
479.07	7835.5	
479.27	7262.1	
479.47	5795.8	
479.67	5756.8	
479.87	7609.6	
480.07	8190.5	
480.27	5040.1	
480.47	6662.7	
480.67	7283.3	
480.87	7857.4	
481.06	5324.7	
481.26	6141.2	
481.46	7243	
481.66	7129.7	
481.86	5739.1	
482.06	6777.4	
482.26	6930.3	
482.46	7646.4	
482.66	5786.9	
482.86	5371.8	
483.05	7322.2	
483.25	6723.5	
483.45	8110	
483.65	5673.6	
483.85	6899.6	
484.05	7173.4	
484.25	6150.7	
484.45	6546	
484.65	8056	
484.84	7926.3	
485.04	5582.1	
485.24	5607.3	
485.44	8234.2	
485.64	6613.6	
485.84	4953.4	
486.04	6270.9	
486.24	7002	
486.44	7344.7	
486.63	4934.9	
486.83	5705	
487.03	6854.6	
487.23	6974.7	
487.43	4977.9	
487.63	7217.7	
487.83	7054.6	
488.02	8010.3	
488.22	5951.4	
488.42	6462.7	
488.62	7933.1	
488.82	6845	
489.02	5657.9	
489.22	5592.3	
489.41	7849.2	
489.61	7441	
489.81	5300.1	
490.01	5347.9	
490.21	7712.7	
490.41	8376.9	
490.61	5218.9	
490.8	5443.5	
491	7225.9	
491.2	6666.8	
491.4	6038.1	
491.6	5176.6	
491.8	7240.9	
491.99	7507.9	
492.19	5014.1	
492.39	5406	
492.59	7710.6	
492.79	7777.5	
492.99	6163	
493.18	5276.3	
493.38	7858.1	
493.58	8499.8	
493.78	6040.1	
493.98	5597.1	
494.18	7522.9	
494.37	7009.5	
494.57	6136.4	
494.77	6051.1	
494.97	7627.3	
495.17	7971.4	
495.37	5621	
495.56	6011.5	
495.76	8069	
495.96	7679.9	
496.16	6810.9	
496.36	5696.8	
496.55	7923.6	
496.75	7441.6	
496.95	6184.9	
497.15	5971.2	
497.35	7885.4	
497.54	7846.5	
497.74	5801.9	
497.94	7437.5	
498.14	8546.2	
498.34	8424	
498.53	5422.3	
498.73	6294.8	
498.93	7249.8	
499.13	7776.8	
499.33	6051.1	
499.52	6575.3	
499.72	7783.6	
499.92	8078.6	
500.12	5627.8	
500.32	5928.2	
500.51	7973.4	
500.71	7748.8	
500.91	6776	
501.11	6343.9	
501.31	7877.2	
501.5	8428.1	
501.7	7040.9	
501.9	6027.9	
502.1	7845.1	
502.29	8123.6	
502.49	6449.1	
502.69	6931	
502.89	8033.5	
503.09	7938.6	
503.28	5613.5	
503.48	5705.6	
503.68	7291.5	
503.88	7274.4	
504.07	6648.4	
504.27	6165.8	
504.47	7653.9	
504.67	7809.6	
504.86	6548.7	
505.06	6349.4	
505.26	7380.2	
505.46	9106.6	
505.65	6195.1	
505.85	6407.4	
506.05	7309.9	
506.25	7819.1	
506.44	5593.7	
506.64	6559.6	
506.84	7265.5	
507.04	8261.5	
507.23	5784.1	
507.43	6335.7	
507.63	9167.4	
507.83	7580.2	
508.02	6356.2	
508.22	6011.5	
508.42	9432.9	
508.62	7284.6	
508.81	6272.9	
509.01	6787.7	
509.21	7204.1	
509.4	7499	
509.6	6384.9	
509.8	5853.1	
510	7460.1	
510.19	8844.5	
510.39	5763.7	
510.59	5926.1	
510.79	7224.6	
510.98	8553.7	
511.18	5982.1	
511.38	6057.2	
511.57	8032.1	
511.77	7916.8	
511.97	6701	
512.17	5659.2	
512.36	8085.4	
512.56	8085.4	
512.76	5861.3	
512.95	5554.1	
513.15	8137.3	
513.35	6784.9	
513.55	6553.5	
513.74	5806	
513.94	8085.4	
514.14	7479.9	
514.33	6737.8	
514.53	6404.7	
514.73	7442.3	
514.92	7628.7	
515.12	5913.9	
515.32	5758.9	
515.51	7702.4	
515.71	8286.8	
515.91	7285.3	
516.11	5781.4	
516.3	9319.6	
516.5	7302.4	
516.7	6337.8	
516.89	6955.6	
517.09	7443	
517.29	7394.5	
517.48	6660.7	
517.68	6085.9	
517.88	7157	
518.07	7833.5	
518.27	6580.1	
518.47	5591	
518.66	8391.2	
518.86	6946.7	
519.06	5545.2	
519.25	5934.3	
519.45	7311.9	
519.65	8816.5	
519.84	6548.7	
520.04	7217.7	
520.24	9194.7	
520.43	8007.6	
520.63	6255.9	
520.83	6034	
521.02	7312.6	
521.22	7904.5	
521.42	6604	
521.61	7211.6	
521.81	7422.5	
522.01	7677.2	
522.2	6422.4	
522.4	6201.9	
522.6	8107.2	
522.79	6877.8	
522.99	6251.8	
523.18	5554.8	
523.38	7804.8	
523.58	7838.3	
523.77	7414.3	
523.97	5546.6	
524.17	9464.3	
524.36	8757.1	
524.56	6825.2	
524.76	6528.9	
524.95	7703.1	
525.15	7432.1	
525.34	6285.9	
525.54	6303.6	
525.74	8040.3	
525.93	7095.5	
526.13	7417.7	
526.33	6200.6	
526.52	8422.6	
526.72	7886	
526.91	7431.4	
527.11	6716	
527.31	8533.2	
527.5	8925.7	
527.7	6513.2	
527.89	5658.5	
528.09	7421.8	
528.29	7791.8	
528.48	7053.9	
528.68	6694.1	
528.87	8289.5	
529.07	8358.4	
529.27	6655.9	
529.46	6164.4	
529.66	8016.4	
529.85	8421.9	
530.05	6004.6	
530.25	6774.7	
530.44	9330.5	
530.64	7886	
530.83	6425.8	
531.03	6635.4	
531.23	8348.2	
531.42	8274.5	
531.62	7382.2	
531.81	6462.7	
532.01	8375.5	
532.21	8851.3	
532.4	6213.5	
532.6	6578.1	
532.79	9373.6	
532.99	8470.4	
533.18	6565.1	
533.38	7641	
533.58	8104.5	
533.77	8803.5	
533.97	6615.6	
534.16	7375.4	
534.36	9074.5	
534.55	8013.7	
534.75	7541.3	
534.95	6646.3	
535.14	8877.9	
535.34	8017.1	
535.53	6347.3	
535.73	8312	
535.92	9389.3	
536.12	8258.1	
536.31	6501.6	
536.51	7711.3	
536.71	8575.5	
536.9	8198	
537.1	6733	
537.29	6750.8	
537.49	8927.1	
537.68	8028	
537.88	7102.4	
538.07	6346.7	
538.27	8245.8	
538.46	9254.8	
538.66	6320.7	
538.86	6698.9	
539.05	8302.5	
539.25	8673.8	
539.44	6975.4	
539.64	6599.2	
539.83	8157.1	
540.03	9137.4	
540.22	6505	
540.42	6671.6	
540.61	8469.7	
540.81	8575.5	
541	7073	
541.2	7706.5	
541.39	7984.3	
541.59	8275.2	
541.78	7332.4	
541.98	6540.5	
542.18	7669	
542.37	7695.6	
542.57	6961	
542.76	7456	
542.96	7801.4	
543.15	8537.3	
543.35	6987.7	
543.54	6334.4	
543.74	8804.2	
543.93	8354.3	
544.13	7002.7	
544.32	8076.5	
544.52	8641.7	
544.71	7935.2	
544.91	6068.1	
545.1	7245.7	
545.3	7939.3	
545.49	8721.6	
545.69	6060.6	
545.88	6691.4	
546.08	9525.1	
546.27	9086.8	
546.47	7080.5	
546.66	6380.1	
546.86	8881.4	
547.05	9463.7	
547.24	6694.1	
547.44	6449.7	
547.63	7816.4	
547.83	8918.9	
548.02	6895.5	
548.22	7193.8	
548.41	7685.3	
548.61	8914.8	
548.8	6470.2	
549	6406.7	
549.19	8292.9	
549.39	8637	
549.58	6231.3	
549.78	6663.4	
549.97	8740.7	
550.17	8180.3	
550.36	7599.3	
550.55	8628.1	
550.75	8189.1	
550.94	9054.1	
551.14	6449.1	
551.33	6821.8	
551.53	7554.3	
551.72	8516.8	
551.92	6815	
552.11	6600.6	
552.31	8573.5	
552.5	8653.4	
552.69	8290.2	
552.89	6187.6	
553.08	8470.4	
553.28	8241	
553.47	6683.2	
553.67	7709.2	
553.86	9168.8	
554.06	7604.8	
554.25	5786.9	
554.44	6438.1	
554.64	9899.2	
554.83	9454.8	
555.03	6374	
555.22	6776	
555.42	8772.1	
555.61	8419.9	
555.8	6641.6	
556	6901	
556.19	7600	
556.39	8884.1	
556.58	6576	
556.78	6673.6	
556.97	8439	
557.16	8036.2	
557.36	7850.5	
557.55	6382.8	
557.75	7375.4	
557.94	9149	
558.13	6445	
558.33	6231.3	
558.52	8963.3	
558.72	7826	
558.91	6365.1	
559.1	6576	
559.3	7523.6	
559.49	7361.8	
559.69	5943.2	
559.88	6900.3	
560.07	8327	
560.27	8766	
560.46	7068.2	
560.66	7154.9	
560.85	8166.6	
561.04	7373.4	
561.24	6365.8	
561.43	6645.7	
561.63	7722.2	
561.82	7855.3	
562.01	7742	
562.21	6745.3	
562.4	8267	
562.59	9323.7	
562.79	6621.1	
562.98	6268.8	
563.18	8268.3	
563.37	9626.1	
563.56	7129	
563.76	6192.4	
563.95	7741.3	
564.14	7762.5	
564.34	6578.8	
564.53	6425.2	
564.73	8239	
564.92	8641.7	
565.11	6802.7	
565.31	6204.7	
565.5	8813.1	
565.69	7855.3	
565.89	6424.5	
566.08	6617.7	
566.27	8633.6	
566.47	9084.1	
566.66	7305.8	
566.85	6008.1	
567.05	8333.2	
567.24	7760.4	
567.44	6360.3	
567.63	7705.1	
567.82	8612.4	
568.02	8301.8	
568.21	6426.5	
568.4	6731.7	
568.6	8129.1	
568.79	8260.8	
568.98	6163	
569.18	6354.8	
569.37	8179.6	
569.56	10095	
569.76	6715.3	
569.95	7643	
570.14	8544.8	
570.34	8489.5	
570.53	6275	
570.72	6158.9	
570.91	9012.4	
571.11	8122.2	
571.3	6695.5	
571.49	7625.3	
571.69	8189.1	
571.88	7735.9	
572.07	7178.8	
572.27	7254.6	
572.46	7763.8	
572.65	8800.1	
572.85	6432.7	
573.04	6849.8	
573.23	8963.3	
573.43	8339.3	
573.62	6296.8	
573.81	6866.8	
574	8291.5	
574.2	8171.4	
574.39	6558.3	
574.58	6750.1	
574.78	9118.9	
574.97	8402.8	
575.16	7069.6	
575.36	7284.6	
575.55	8770.8	
575.74	8928.5	
575.93	6233.3	
576.13	7321.5	
576.32	8204.2	
576.51	8686.1	
576.71	6668.2	
576.9	8155.7	
577.09	9114.8	
577.28	8611	
577.48	7155.6	
577.67	6139.8	
577.86	8202.1	
578.05	8574.8	
578.25	6791.1	
578.44	6873.7	
578.63	8359.1	
578.83	9557.9	
579.02	6290.7	
579.21	7706.5	
579.4	8591.9	
579.6	8211	
579.79	7020.4	
579.98	9031.5	
580.17	8854.1	
580.37	8953	
580.56	6537.8	
580.75	7148.8	
580.94	9385.8	
581.14	9243.8	
581.33	7606.8	
581.52	6639.5	
581.71	8765.3	
581.91	9374.9	
582.1	6270.2	
582.29	6871.6	
582.48	8377.6	
582.68	8275.8	
582.87	7307.2	
583.06	6946	
583.25	8778.3	
583.45	8207.6	
583.64	7656.7	
583.83	8357.1	
584.02	8239.7	
584.21	8678.6	
584.41	7589.1	
584.6	6945.3	
584.79	8461.5	
584.98	9125.1	
585.18	6415.6	
585.37	6421.1	
585.56	8002.8	
585.75	8783.7	
585.94	6689.3	
586.14	7380.2	
586.33	9355.1	
586.52	8398.7	
586.71	7186.3	
586.91	6907.8	
587.1	7864.2	
587.29	8955.8	
587.48	6817.7	
587.67	6735.1	
587.87	8814.5	
588.06	8854.7	
588.25	7983	
588.44	7318.8	
588.63	8426.7	
588.83	9037	
589.02	6833.4	
589.21	6781.5	
589.4	8299.7	
589.59	8158.4	
589.78	6219.7	
589.98	6420.4	
590.17	7946.8	
590.36	8383	
590.55	5868.8	
590.74	6682.5	
590.94	9769.5	
591.13	8355.7	
591.32	6423.8	
591.51	5866.1	
591.7	8761.2	
591.89	8127	
592.09	6064.7	
592.28	6462.7	
592.47	7516	
592.66	9281.4	
592.85	6047	
593.05	6306.4	
593.24	8058.8	
593.43	8811.7	
593.62	6322.1	
593.81	6789.7	
594	8072.4	
594.19	8368	
594.39	6319.3	
594.58	6216.3	
594.77	8384.4	
594.96	9011.1	
595.15	6230.6	
595.34	6865.5	
595.54	8529.1	
595.73	7636.2	
595.92	5616.9	
596.11	6701.6	
596.3	8994	
596.49	7642.3	
596.68	6541.9	
596.88	6929.6	
597.07	8629.5	
597.26	7505.1	
597.45	6037.4	
597.64	7197.2	
597.83	7797.3	
598.02	8373.5	
598.22	6113.2	
598.41	6806.8	
598.6	8136.6	
598.79	7604.1	
598.98	6148.7	
599.17	7055.9	
599.36	8165.3	
599.55	9280.7	
599.74	8271.1	
599.94	7791.8	
600.13	8779.6	
600.32	7518.1	
600.51	5846.3	
600.7	6035.4	
600.89	9340.8	
601.08	9389.3	
601.27	5813.5	
601.47	6796.5	
601.66	8632.2	
601.85	9161.2	
602.04	6450.4	
602.23	6658.6	
602.42	7699.7	
602.61	8304.5	
602.8	6394.4	
602.99	6144.6	
603.18	8033.5	
603.37	8198	
603.57	6777.4	
603.76	7248.4	
603.95	8932.6	
604.14	8512.7	
604.33	6285.2	
604.52	6644.3	
604.71	8265.6	
604.9	7899.7	
605.09	7389.8	
605.28	6963.1	
605.47	8699.1	
605.66	8439.7	
605.86	6740.5	
606.05	6260	
606.24	8748.2	
606.43	7436.2	
606.62	6526.9	
606.81	7374.1	
607	8727.8	
607.19	7931.8	
607.38	6057.2	
607.57	6202.6	
607.76	7738.6	
607.95	7292.8	
608.14	6699.6	
608.33	7263.5	
608.52	7787.7	
608.72	8577.6	
608.91	5935.7	
609.1	5803.9	
609.29	7959.1	
609.48	7447.1	
609.67	6898.2	
609.86	5921.4	
610.05	7500.3	
610.24	7864.2	
610.43	5767.1	
610.62	5474.9	
610.81	9002.2	
611	8738	
611.19	5956.2	
611.38	6720.1	
611.57	8097	
611.76	9436.4	
611.95	5674.9	
612.14	5595.1	
612.33	7920.9	
612.52	7544	
612.71	6212.9	
612.9	5483.8	
613.09	7122.2	
613.28	9372.9	
613.47	6061.3	
613.66	6877.8	
613.85	8107.2	
614.04	7615.7	
614.24	6040.8	
614.43	5390.9	
614.62	8195.3	
614.81	8074.5	
615	6575.3	
615.19	6715.3	
615.38	7395.2	
615.57	7817.1	
615.76	6521.4	
615.95	7391.8	
616.14	8217.8	
616.33	7876.5	
616.52	6817.7	
616.71	7107.8	
616.9	8188.5	
617.09	7951.6	
617.28	6230.6	
617.47	7405.5	
617.66	7314	
617.85	7259.4	
618.04	7010.9	
618.22	6560.3	
618.41	7601.4	
618.6	8551.6	
618.79	6442.2	
618.98	6094.8	
619.17	8789.9	
619.36	7181.5	
619.55	6279.8	
619.74	6342.6	
619.93	8148.2	
620.12	7516	
620.31	6888.7	
620.5	7021.8	
620.69	8690.9	
620.88	9045.2	
621.07	7665.5	
621.26	6766.5	
621.45	8267	
621.64	8294.3	
621.83	6834.1	
622.02	6102.9	
622.21	8433.5	
622.4	8085.4	
622.59	7395.2	
622.78	7195.9	
622.97	7742.7	
623.16	8703.9	
623.35	6779.5	
623.54	5975.3	
623.72	7911.3	
623.91	8076.5	
624.1	7065.5	
624.29	5759.6	
624.48	9016.5	
624.67	8342.7	
624.86	6950.8	
625.05	6023.8	
625.24	9235.7	
625.43	7721.5	
625.62	8630.1	
625.81	6279.8	
626	8699.1	
626.19	7882.6	
626.38	6977.4	
626.56	6417.7	
626.75	7746.1	
626.94	8517.5	
627.13	7060	
627.32	5782.1	
627.51	8394.6	
627.7	9657.5	
627.89	5971.9	
628.08	7096.9	
628.27	7676.5	
628.46	7911.3	
628.65	6195.8	
628.83	5976.7	
629.02	8346.2	
629.21	7708.6	
629.4	6617	
629.59	6821.1	
629.78	7669	
629.97	8645.8	
630.16	6927.6	
630.35	6289.3	
630.54	9026.8	
630.72	8794	
630.91	6365.1	
631.1	6834.1	
631.29	8218.5	
631.48	8391.9	
631.67	6924.9	
631.86	6402.6	
632.05	7906.5	
632.24	7957.7	
632.42	6141.2	
632.61	6810.9	
632.8	8013	
632.99	7590.5	
633.18	6750.8	
633.37	7102.4	
633.56	8176.2	
633.75	8031.5	
633.93	6742.6	
634.12	6411.5	
634.31	9003.6	
634.5	8568.7	
634.69	6414.9	
634.88	7031.4	
635.07	7983.7	
635.25	8607.6	
635.44	7298.3	
635.63	7499	
635.82	7914.7	
636.01	7373.4	
636.2	7225.2	
636.39	6767.2	
636.57	8958.5	
636.76	8673.1	
636.95	6292	
637.14	7587.7	
637.33	8338	
637.52	9374.2	
637.7	6098.9	
637.89	7015	
638.08	7918.1	
638.27	9318.3	
638.46	7058	
638.65	7478.5	
638.83	9288.9	
639.02	7845.1	
639.21	6963.8	
639.4	7473	
639.59	8211.7	
639.78	7847.1	
639.96	6332.3	
640.15	6345.3	
640.34	8126.3	
640.53	8204.2	
640.72	6003.3	
640.91	6400.6	
641.09	7511.9	
641.28	8870.4	
641.47	6437.4	
641.66	7175.4	
641.85	8247.9	
642.03	8424	
642.22	6949.4	
642.41	6487.3	
642.6	7666.9	
642.79	7048.4	
642.97	6130.9	
643.16	6979.5	
643.35	7703.1	
643.54	7494.9	
643.73	6191.7	
643.91	7010.9	
644.1	7259.4	
644.29	7889.5	
644.48	6320	
644.67	6379.4	
644.85	7651.2	
645.04	7904.5	
645.23	5859.9	
645.42	6264.7	
645.6	7524.2	
645.79	8607.6	
645.98	6261.3	
646.17	5221.6	
646.36	7202	
646.54	7779.6	
646.73	7011.6	
646.92	5874.9	
647.11	7477.1	
647.29	8443.1	
647.48	5977.3	
647.67	5758.2	
647.86	8774.2	
648.05	8754.4	
648.23	6313.2	
648.42	7548.1	
648.61	8158.4	
648.8	7818.5	
648.98	5857.2	
649.17	6194.4	
649.36	7411.6	
649.55	6960.4	
649.73	5952.8	
649.92	6625.2	
650.11	7347.4	
650.3	7722.9	
650.48	6071.5	
650.67	5864.7	
650.86	7973.4	
651.05	6890	
651.23	6024.4	
651.42	6029.9	
651.61	7367.2	
651.79	7560.4	
651.98	6241.5	
652.17	5853.1	
652.36	7880.6	
652.54	6969.9	
652.73	5853.1	
652.92	5732.9	
653.11	7927.7	
653.29	7963.2	
653.48	5254.4	
653.67	6166.4	
653.85	7632.8	
654.04	8736	
654.23	6539.2	
654.42	6049.7	
654.6	7215	
654.79	7880.6	
654.98	5440.1	
655.16	6040.8	
655.35	6830.7	
655.54	6752.2	
655.73	5509.7	
655.91	5407.3	
656.1	7823.2	
656.29	6682.5	
656.47	4977.2	
656.66	6667.5	
656.85	6943.3	
657.03	6892.1	
657.22	5466	
657.41	5605.3	
657.59	7118.1	
657.78	6918	
657.97	5303.6	
658.16	6021	
658.34	7740	
658.53	8090.2	
658.72	6950.1	
658.9	7368.6	
659.09	7133.1	
659.28	7342	
659.46	5735	
659.65	5699.5	
659.84	7047.1	
660.02	7486.7	
660.21	5571.8	
660.4	5567.7	
660.58	8011	
660.77	7320.1	
660.96	6105	
661.14	5216.2	
661.33	8473.8	
661.52	8368.7	
661.7	5133.6	
661.89	8725	
662.08	6975.4	
662.26	6571.2	
662.45	5399.1	
662.64	5611.4	
662.82	7624.6	
663.01	6862.7	
663.2	5571.2	
663.38	6275.7	
663.57	7523.6	
663.75	7460.8	
663.94	5871.5	
664.13	7059.3	
664.31	6875	
664.5	7591.1	
664.69	6054.5	
664.87	6749.4	
665.06	6649.8	
665.25	7371.3	
665.43	6927.6	
665.62	7002	
665.8	7662.1	
665.99	7050.5	
666.18	5859.2	
666.36	5960.3	
666.55	7692.2	
666.74	7563.1	
666.92	5507	
667.11	7088.7	
667.29	7073.7	
667.48	7649.2	
667.67	6748.7	
667.85	5769.8	
668.04	7063.4	
668.22	7068.9	
668.41	5980.1	
668.6	6032	
668.78	6879.1	
668.97	7090.8	
669.15	6238.8	
669.34	5270.8	
669.53	6967.9	
669.71	7251.9	
669.9	5443.5	
670.08	6098.2	
670.27	6858.6	
670.46	7507.2	
670.64	6307.1	
670.83	6463.4	
671.01	6756.9	
671.2	7413	
671.38	5516.5	
671.57	5464.7	
671.76	8028	
671.94	8665.6	
672.13	5342.5	
672.31	6429.9	
672.5	7578.2	
672.69	6864.1	
672.87	5556.1	
673.06	5855.1	
673.24	7440.3	
673.43	6915.3	
673.61	6287.3	
673.8	5791	
673.98	7648.5	
674.17	7736.5	
674.36	6455.2	
674.54	6240.2	
674.73	7430	
674.91	7561.8	
675.1	5971.9	
675.28	5610.8	
675.47	7211.6	
675.65	7707.9	
675.84	5785.5	
676.03	6190.3	
676.21	7007.5	
676.4	6495.5	
676.58	6606.1	
676.77	6377.4	
676.95	8409.6	
677.14	6892.8	
677.32	5487.9	
677.51	5314.5	
677.69	7673.7	
677.88	6574	
678.06	5371.1	
678.25	5586.9	
678.44	7226.6	
678.62	6836.8	
678.81	5210	
678.99	6255.9	
679.18	7981.6	
679.36	7544.7	
679.55	5784.8	
679.73	6409.5	
679.92	7579.5	
680.1	6923.5	
680.29	7014.3	
680.47	5806	
680.66	6855.2	
680.84	7739.3	
681.03	5143.8	
681.21	6283.2	
681.4	6954.2	
681.58	6802.7	
681.77	5602.6	
681.95	5539.1	
682.14	7757.7	
682.32	8107.2	
682.51	6431.3	
682.69	5315.2	
682.88	6879.8	
683.06	7435.5	
683.25	6153.5	
683.43	6649.1	
683.62	7145.4	
683.8	7598.6	
683.99	6746	
684.17	6083.1	
684.36	8406.9	
684.54	7159.7	
684.73	5312.4	
684.91	5559.6	
685.1	7445	
685.28	6933.7	
685.46	6039.5	
685.65	6180.1	
685.83	7694.9	
686.02	7026.6	
686.2	5540.4	
686.39	5615.5	
686.57	6766.5	
686.76	8173.4	
686.94	5517.2	
687.13	5607.3	
687.31	7463.5	
687.5	7002	
687.68	5126.7	
687.86	6311.8	
688.05	8734.6	
688.23	6496.8	
688.42	6343.2	
688.6	5618.3	
688.79	6969.2	
688.97	6905.8	
689.16	6043.6	
689.34	4995	
689.52	7626.6	
689.71	7832.1	
689.89	6275.7	
690.08	5610.8	
690.26	7215.7	
690.45	7148.1	
690.63	6414.9	
690.81	5759.6	
691	7029.3	
691.18	6873	
691.37	5913.9	
691.55	8017.1	
691.74	6853.2	
691.92	8877.9	
692.1	5928.2	
692.29	5269.4	
692.47	7176.8	
692.66	6455.9	
692.84	5584.8	
693.02	6121.4	
693.21	6531.7	
693.39	6974	
693.58	6181.5	
693.76	5655.1	
693.94	8102.4	
694.13	7890.1	
694.31	5575.3	
694.5	6636.1	
694.68	6805.4	
694.86	7088	
695.05	5930.9	
695.23	6318.7	
695.42	7481.9	
695.6	9793.4	
695.78	6496.2	
695.97	5616.2	
696.15	7634.1	
696.34	7065.5	
696.52	5537	
696.7	6362.4	
696.89	7447.1	
697.07	6814.3	
697.25	6257.9	
697.44	7759.1	
697.62	7317.4	
697.81	7656.7	
697.99	5859.2	
698.17	6349.4	
698.36	6737.8	
698.54	7402.7	
698.72	6255.9	
698.91	5253.7	
699.09	6937.2	
699.28	6818.4	
699.46	5937.7	
699.64	5752.1	
699.83	6728.3	
700.01	8056.7	
700.19	6526.9	
700.38	4955.4	
700.56	7920.9	
700.74	6842.3	
700.93	5355.4	
701.11	6221	
701.29	7372.7	
701.48	8467.7	
701.66	5664	
701.84	5611.4	
702.03	6944.7	
702.21	7574.8	
702.39	5221.6	
702.58	5850.4	
702.76	7450.5	
702.94	7537.9	
703.13	5261.2	
703.31	7582.9	
703.49	6741.9	
703.68	8212.4	
703.86	5395.7	
704.04	6381.5	
704.23	7241.6	
704.41	7582.3	
704.59	5474.2	
704.78	6699.6	
704.96	8258.1	
705.14	7537.9	
705.33	5360.2	
705.51	6183.5	
705.69	7030	
705.87	7813	
706.06	6524.8	
706.24	5326.1	
706.42	7321.5	
706.61	7643	
706.79	6335.1	
706.97	5343.2	
707.16	6786.3	
707.34	7350.8	
707.52	6417.7	
707.7	5570.5	
707.89	6937.8	
708.07	6662	
708.25	6447	
708.44	6500.9	
708.62	6833.4	
708.8	8015.7	
708.98	6625.2	
709.17	5641.5	
709.35	7274.4	
709.53	7223.9	
709.72	5356.8	
709.9	5821.7	
710.08	7423.2	
710.26	7527	
710.45	6978.8	
710.63	5614.2	
710.81	7201.3	
710.99	7186.3	
711.18	6266.1	
711.36	5728.9	
711.54	6983.6	
711.72	7715.4	
711.91	5817.6	
712.09	5358.9	
712.27	7180.2	
712.45	7797.3	
712.64	6103.6	
712.82	5084.4	
713	6709.8	
713.18	6825.9	
713.37	5229.1	
713.55	6561	
713.73	7725.6	
713.91	6325.5	
714.1	5667.4	
714.28	5225.1	
714.46	7370.6	
714.64	6614.9	
714.83	4604.5	
715.01	5391.6	
715.19	6666.1	
715.37	6060.6	
715.55	5107.6	
715.74	5410.1	
715.92	7514.7	
716.1	5585.5	
716.28	6503.7	
716.47	5589.6	
716.65	6244.9	
716.83	6313.9	
717.01	5397.8	
717.19	5354.1	
717.38	8361.2	
717.56	5961.6	
717.74	5642.8	
717.92	4686.4	
718.1	7118.7	
718.29	6383.5	
718.47	4312.3	
718.65	4971.1	
718.83	6987	
719.01	6878.4	
719.2	4260.5	
719.38	5292	
719.56	6680.5	
719.74	8331.8	
719.92	4859.8	
720.11	5988.9	
720.29	6808.8	
720.47	5958.2	
720.65	4514.4	
720.83	5330.9	
721.02	6249	
721.2	6114.6	
721.38	5419.6	
721.56	4691.9	
721.74	5537.7	
721.92	5749.3	
722.11	5864	
722.29	5568.4	
722.47	6993.1	
722.65	6092	
722.83	4690.5	
723.01	5595.7	
723.2	6197.8	
723.38	6479.8	
723.56	4085	
723.74	5259.2	
723.92	5681.1	
724.1	6916	
724.29	4535.6	
724.47	5668.1	
724.65	5821	
724.83	5696.8	
725.01	4476.2	
725.19	5341.8	
725.37	5754.1	
725.56	5854.5	
725.74	4349.2	
725.92	4589.5	
726.1	5664.7	
726.28	5986.2	
726.46	4998.4	
726.64	4748.6	
726.83	5982.8	
727.01	6233.3	
727.19	4240.7	
727.37	5177.9	
727.55	6043.6	
727.73	6578.1	
727.91	4289.8	
728.09	4194.2	
728.28	6587.6	
728.46	7120.1	
728.64	5298.1	
728.82	5149.3	
729	7634.8	
729.18	6851.8	
729.36	4348.5	
729.54	6648.4	
729.72	7772.7	
729.91	6120	
730.09	6264.1	
730.27	4996.4	
730.45	5977.3	
730.63	6639.5	
730.81	5565.7	
730.99	4603.8	
731.17	7135.8	
731.35	5790.3	
731.53	5134.9	
731.71	4778.6	
731.9	6873	
732.08	7107.1	
732.26	5060.5	
732.44	4648.2	
732.62	7111.9	
732.8	6606.1	
732.98	5427.8	
733.16	4476.2	
733.34	6586.3	
733.52	5372.5	
733.7	4980.7	
733.88	5148.6	
734.07	6487.3	
734.25	6168.5	
734.43	4418.2	
734.61	5922	
734.79	7643.7	
734.97	6043.6	
735.15	4639.3	
735.33	4883.7	
735.51	6393.1	
735.69	6026.5	
735.87	6276.3	
736.05	5085.1	
736.23	6241.5	
736.41	5993	
736.59	4901.5	
736.77	4987.5	
736.95	6669.6	
737.13	6108.4	
737.32	4630.5	
737.5	4741	
737.68	7115.3	
737.86	5950.7	
738.04	4332.8	
738.22	6162.3	
738.4	5790.3	
738.58	5986.9	
738.76	5012.1	
738.94	3971	
739.12	5858.6	
739.3	5803.3	
739.48	5550.7	
739.66	5278.3	
739.84	6127.5	
740.02	6122.7	
740.2	4033.8	
740.38	4358.1	
740.56	6503.7	
740.74	5344.5	
740.92	5044.8	
741.1	4935.6	
741.28	5935	
741.46	5798.5	
741.64	4586.1	
741.82	5092.6	
742	5982.1	
742.18	5994.4	
742.36	4728.1	
742.54	4365.6	
742.72	6569.2	
742.9	5328.1	
743.08	5177.9	
743.26	3994.2	
743.44	6639.5	
743.62	6571.2	
743.8	5290.6	
743.98	4351.3	
744.16	6303.6	
744.34	5984.8	
744.52	5149.3	
744.7	5102.2	
744.88	6382.8	
745.06	5903.6	
745.24	5188.9	
745.42	5340.4	
745.6	6449.7	
745.78	6253.8	
745.96	4112.3	
746.14	4416.1	
746.32	7233.4	
746.5	6473.6	
746.68	4945.8	
746.86	4421.6	
747.03	6929.6	
747.21	5272.2	
747.39	4939	
747.57	4463.2	
747.75	6075.6	
747.93	6477.7	
748.11	4409.3	
748.29	4272.7	
748.47	7694.9	
748.65	5844.9	
748.83	5096.7	
749.01	4828.4	
749.19	6227.2	
749.37	5377.3	
749.55	4718.5	
749.73	4856.4	
749.91	5936.4	
750.09	5722.7	
750.26	4855.7	
750.44	4263.9	
750.62	5959.6	
750.8	5947.3	
750.98	4016.1	
751.16	4446.8	
751.34	6047.7	
751.52	5378.6	
751.7	5220.3	
751.88	4123.9	
752.06	6494.8	
752.24	6254.5	
752.42	4035.2	
752.59	4324.6	
752.77	5952.8	
752.95	7086.7	
753.13	5097.4	
753.31	4469.4	
753.49	5657.9	
753.67	6027.9	
753.85	4856.4	
754.03	4388.8	
754.21	6394.4	
754.38	6685.3	
754.56	4608.6	
754.74	3650.8	
754.92	5524.1	
755.1	6388.3	
755.28	3756.7	
755.46	3783.3	
755.64	7139.9	
755.82	7292.1	
755.99	4166.9	
756.17	4272.7	
756.35	4839.4	
756.53	6424.5	
756.71	3166.2	
756.89	4079.6	
757.07	6024.4	
757.25	5115.8	
757.42	4681	
757.6	5485.8	
757.78	6036	
757.96	5022.3	
758.14	4289.1	
758.32	3810.6	
758.5	4604.5	
758.67	5497.4	
758.85	4143	
759.03	4260.5	
759.21	5657.2	
759.39	5021.6	
759.57	3706.8	
759.75	4814.1	
759.92	6251.8	
760.1	5489.9	
760.28	5235.3	
760.46	5417.6	
760.64	5252.4	
760.82	4984.1	
760.99	5066	
761.17	4134.8	
761.35	6087.2	
761.53	5070.8	
761.71	4280.9	
761.89	4975.9	
762.06	5913.9	
762.24	5435.3	
762.42	4307.6	
762.6	4097.3	
762.78	5442.1	
762.96	6051.1	
763.13	4720.6	
763.31	4336.2	
763.49	6212.2	
763.67	5354.8	
763.85	5183.4	
764.02	5773.2	
764.2	6486.6	
764.38	5618.9	
764.56	4259.8	
764.74	5078.3	
764.91	6576.7	
765.09	5474.2	
765.27	3904.8	
765.45	3749.8	
765.63	6607.4	
765.8	6496.8	
765.98	3450.8	
766.16	3886.4	
766.34	5055.8	
766.52	4870.1	
766.69	4801.1	
766.87	3672.7	
767.05	5494.7	
767.23	6137.1	
767.41	3985.3	
767.58	4281.6	
767.76	6059.3	
767.94	6096.1	
768.12	4108.2	
768.29	4787.5	
768.47	5590.3	
768.65	6315.9	
768.83	3661.8	
769	4901.5	
769.18	5180	
769.36	5829.9	
769.54	4857.1	
769.72	3765.5	
769.89	6119.3	
770.07	6231.3	
770.25	4038.6	
770.43	5369.1	
770.6	6901.7	
770.78	7305.1	
770.96	4289.8	
771.14	4920.6	
771.31	6086.6	
771.49	5406	
771.67	3478.8	
771.85	3738.2	
772.02	4666.6	
772.2	5397.1	
772.38	4482.3	
772.55	3922.5	
772.73	5704.3	
772.91	5474.2	
773.09	4331.5	
773.26	4448.2	
773.44	5665.4	
773.62	5334.3	
773.8	3872	
773.97	3633.8	
774.15	5764.3	
774.33	5378.6	
774.5	3756.7	
774.68	4131.4	
774.86	5900.2	
775.04	5418.2	
775.21	3837.2	
775.39	3813.3	
775.57	5644.9	
775.74	6072.2	
775.92	3719.1	
776.1	3588.7	
776.27	5605.3	
776.45	6877.8	
776.63	3887	
776.81	3421.5	
776.98	5311.7	
777.16	6404.7	
777.34	4015.4	
777.51	4317.1	
777.69	5285.1	
777.87	5055.8	
778.04	3979.2	
778.22	4646.2	
778.4	5132.9	
778.57	5826.5	
778.75	3355.9	
778.93	3613.3	
779.1	4932.2	
779.28	4789.5	
779.46	3370.3	
779.64	3773.7	
779.81	5971.2	
779.99	6778.1	
780.17	4679.6	
780.34	4764.9	
780.52	5424.4	
780.69	5625.8	
780.87	4175.8	
781.05	3771.7	
781.22	5451	
781.4	5533.6	
781.58	3936.2	
781.75	3077.4	
781.93	5500.2	
782.11	4917.9	
782.28	4796.3	
782.46	3867.9	
782.64	4754	
782.81	5649	
782.99	3996.3	
783.17	3979.2	
783.34	5558.2	
783.52	4816.1	
783.69	4159.4	
783.87	4924	
784.05	4928.1	
784.22	4958.8	
784.4	4947.9	
784.58	4291.9	
784.75	5851.7	
784.93	4964.3	
785.1	3965.6	
785.28	4571.7	
785.46	5610.8	
785.63	4898.1	
785.81	3934.8	
785.99	3805.8	
786.16	5120.6	
786.34	5449	
786.51	3790.8	
786.69	4209.9	
786.87	4671.4	
787.04	5169.1	
787.22	3646.1	
787.39	4670.7	
787.57	4932.2	
787.75	6009.4	
787.92	4769.7	
788.1	4734.2	
788.27	4982	
788.45	4711.7	
788.63	4425.7	
788.8	3196.9	
788.98	5315.8	
789.15	4704.9	
789.33	3343	
789.5	3887.7	
789.68	5930.2	
789.86	5949.3	
790.03	4368.3	
790.21	3833.8	
790.38	5803.3	
790.56	5067.4	
790.73	3670	
790.91	3741.6	
791.09	4999.1	
791.26	5717.9	
791.44	3975.8	
791.61	3419.4	
791.79	4937.7	
791.96	4988.2	
792.14	3549.8	
792.32	3103.4	
792.49	4949.9	
792.67	5029.1	
792.84	3585.3	
793.02	3377.1	
793.19	5409.4	
793.37	6148.7	
793.54	3105.4	
793.72	3487.7	
793.89	6225.1	
794.07	4992.3	
794.25	4149.9	
794.42	3189.4	
794.6	6064.7	
794.77	5677	
794.95	4339.6	
795.12	3711.6	
795.3	4997	
795.47	5545.2	
795.65	4138.3	
795.82	3954.6	
796	4741.7	
796.17	6681.2	
796.35	3860.4	
796.52	4567	
796.7	5440.1	
796.87	5584.1	
797.05	4797	
797.22	4756.7	
797.4	5597.1	
797.57	6537.8	
797.75	3990.8	
797.92	3738.9	
798.1	5904.3	
798.27	4927.4	
798.45	3216.7	
798.62	3478.8	
798.8	5312.4	
798.97	5824.4	
799.15	4207.2	
799.32	4063.9	
799.5	4541	
799.67	5360.2	
799.85	4375.1	
800.02	3123.8	
800.2	4966.3	
800.37	5293.3	
800.55	4528.7	
800.72	3786.7	
800.9	5710.4	
801.07	6164.4	
801.25	5055.8	
801.42	4169.7	
801.6	5806	
801.77	5467.4	
801.95	3811.3	
802.12	3688.4	
802.29	5458.5	
802.47	5500.8	
802.64	4071.4	
802.82	3125.9	
802.99	4899.4	
803.17	5945.3	
803.34	4052.2	
803.52	3687	
803.69	6545.3	
803.87	4671.4	
804.04	3967.6	
804.21	4077.5	
804.39	6051.7	
804.56	5165.7	
804.74	3391.4	
804.91	4149.9	
805.09	4917.9	
805.26	5096.7	
805.44	3424.2	
805.61	3814	
805.78	5618.3	
805.96	5644.2	
806.13	4143	
806.31	4484.4	
806.48	4530.1	
806.66	5028.4	
806.83	4152.6	
807	4042	
807.18	4896	
807.35	5375.2	
807.53	4045.4	
807.7	3235.8	
807.87	6102.3	
808.05	4995	
808.22	4453.6	
808.4	3210.5	
808.57	4992.9	
808.74	4609.3	
808.92	3708.9	
809.09	4668.7	
809.27	4863.2	
809.44	5486.5	
809.61	3253.5	
809.79	3633.8	
809.96	6143.2	
810.14	5773.2	
810.31	3121.1	
810.48	3873.4	
810.66	5075.5	
810.83	5873.6	
811.01	3663.8	
811.18	4121.9	
811.35	5726.1	
811.53	4506.9	
811.7	4491.2	
811.87	4136.2	
812.05	5012.1	
812.22	4936.3	
812.39	3558.7	
812.57	3455.6	
812.74	5020.9	
812.92	6662	
813.09	3887.7	
813.26	4255.7	
813.44	6427.9	
813.61	4900.1	
813.78	3231	
813.96	4276.2	
814.13	5024.3	
814.3	4656.4	
814.48	4676.9	
814.65	3948.5	
814.82	6251.8	
815	4775.2	
815.17	3999	
815.34	4879.6	
815.52	4954	
815.69	4904.9	
815.87	3967.6	
816.04	3443.3	
816.21	5048.9	
816.38	4368.3	
816.56	3856.3	
816.73	3560.1	
816.9	6287.9	
817.08	5723.4	
817.25	3622.9	
817.42	4563.6	
817.6	4572.4	
817.77	4987.5	
817.94	4097.3	
818.12	3536.2	
818.29	4728.8	
818.46	7431.4	
818.64	3752.6	
818.81	3487	
818.98	4637.3	
819.16	6852.5	
819.33	4323.9	
819.5	3999	
819.67	5345.9	
819.85	6019.7	
820.02	3909.6	
820.19	4155.3	
820.37	5229.1	
820.54	4773.8	
820.71	4029	
820.88	5061.9	
821.06	5233.2	
821.23	4848.9	
821.4	4091.2	
821.58	4068.6	
821.75	5751.4	
821.92	5169.8	
822.09	3295.2	
822.27	3413.3	
822.44	4972.5	
822.61	4856.4	
822.79	3282.9	
822.96	6243.6	
823.13	5461.9	
823.3	4706.2	
823.48	3820.1	
823.65	3473.4	
823.82	5702.2	
823.99	4566.3	
824.17	4838	
824.34	3436.5	
824.51	6617.7	
824.68	5101.5	
824.86	3627	
825.03	4023.6	
825.2	5037.3	
825.37	6078.4	
825.55	3607.8	
825.72	3991.5	
825.89	6668.2	
826.06	6122.7	
826.24	3893.2	
826.41	3916.4	
826.58	6135.7	
826.75	5331.5	
826.92	3100.6	
827.1	3435.1	
827.27	8272.4	
827.44	6642.2	
827.61	3709.6	
827.79	4506.2	
827.96	4780	
828.13	5099.4	
828.3	3866.6	
828.47	3284.9	
828.65	5283.8	
828.82	5193	
828.99	4961.5	
829.16	4394.9	
829.34	5631.9	
829.51	5392.3	
829.68	4030.4	
829.85	4190.1	
830.02	5930.9	
830.2	5629.9	
830.37	3071.3	
830.54	4806.6	
830.71	6361	
830.88	5052.3	
831.05	3134.1	
831.23	3682.9	
831.4	6104.3	
831.57	6886	
831.74	3738.2	
831.91	3287.7	
832.09	5276.3	
832.26	5618.9	
832.43	3818.8	
832.6	4305.5	
832.77	5268.7	
832.94	6052.4	
833.12	3080.8	
833.29	3770.3	
833.46	4935.6	
833.63	7029.3	
833.8	4229.1	
833.97	3848.1	
834.15	5632.6	
834.32	5409.4	
834.49	4003.8	
834.66	4133.5	
834.83	5831.2	
835	4743.8	
835.17	3691.8	
835.35	3697.9	
835.52	5530.9	
835.69	5457.8	
835.86	3937.6	
836.03	3229.6	
836.2	5563	
836.37	5200.5	
836.55	3782.6	
836.72	3566.9	
836.89	5186.1	
837.06	5731.6	
837.23	3905.5	
837.4	4339	
837.57	6392.4	
837.75	7090.8	
837.92	3516.4	
838.09	3808.5	
838.26	5192.3	
838.43	5863.3	
838.6	3997.6	
838.77	3605.1	
838.94	6739.9	
839.11	6471.6	
839.29	3870.7	
839.46	3005.7	
839.63	5599.1	
839.8	5393	
839.97	3732.1	
840.14	3744.4	
840.31	5371.1	
840.48	5625.1	
840.65	3005.1	
840.82	3769.6	
841	5603.9	
841.17	5502.9	
841.34	3470.6	
841.51	3468.6	
841.68	5520.6	
841.85	5301.5	
842.02	3571	
842.19	2970.2	
842.36	5330.9	
842.53	5321.3	
842.7	3485.6	
842.87	4165.6	
843.05	7044.3	
843.22	5316.5	
843.39	3272.7	
843.56	3545.7	
843.73	5028.4	
843.9	5670.1	
844.07	5591	
844.24	4659.1	
844.41	8241.7	
844.58	4908.3	
844.75	3325.9	
844.92	3586.7	
845.09	5649	
845.26	5583.4	
845.43	3386	
845.6	3566.9	
845.77	5574.6	
845.94	5371.8	
846.12	3770.3	
846.29	3999	
846.46	5832.6	
846.63	5591	
846.8	3402.4	
846.97	4067.3	
847.14	6049	
847.31	5559.6	
847.48	3889.1	
847.65	4240.7	
847.82	5862.7	
847.99	5837.4	
848.16	4607.2	
848.33	4250.2	
848.5	5125.4	
848.67	6045.6	
848.84	3394.2	
849.01	3577.1	
849.18	5063.3	
849.35	4692.6	
849.52	4245.4	
849.69	3345	
849.86	5820.3	
850.03	5991.7	
850.2	3447.4	
850.37	4201.7	
850.54	6023.8	
850.71	5280.3	
850.88	4143	
851.05	3398.3	
851.22	5487.2	
851.39	6150.1	
851.56	3204.4	
851.73	3946.4	
851.9	4925.4	
852.07	5816.9	
852.24	3792.2	
852.41	3401	
852.58	5496.1	
852.75	4939.7	
852.92	3846.1	
853.09	3276.8	
853.26	5161.6	
853.43	6071.5	
853.6	3376.4	
853.77	2895.8	
853.94	6122.1	
854.11	4935.6	
854.28	5067.4	
854.44	3700	
854.61	6561.7	
854.78	5920.7	
854.95	3418.1	
855.12	4318.5	
855.29	4476.2	
855.46	6367.8	
855.63	3382.6	
855.8	4767.7	
855.97	5184.8	
856.14	5963	
856.31	4840.7	
856.48	3693.2	
856.65	5129.5	
856.82	4896.7	
856.99	3276.1	
857.16	3676.1	
857.33	6776.7	
857.49	5255.8	
857.66	3704.8	
857.83	4024.3	
858	5225.7	
858.17	5472.2	
858.34	3240.6	
858.51	3360	
858.68	6274.3	
858.85	6287.9	
859.02	3986.7	
859.19	4250.9	
859.36	4894.6	
859.52	4943.1	
859.69	3430.3	
859.86	4067.9	
860.03	4995.7	
860.2	6113.2	
860.37	3108.1	
860.54	3448.8	
860.71	5757.5	
860.88	6141.9	
861.05	3838.6	
861.21	4343.1	
861.38	6228.6	
861.55	4775.2	
861.72	3084.2	
861.89	3825.6	
862.06	5898.1	
862.23	6339.1	
862.4	3304.1	
862.56	3571	
862.73	5721.3	
862.9	5373.9	
863.07	3990.8	
863.24	3107.5	
863.41	4792.9	
863.58	4947.9	
863.75	3480.9	
863.91	3962.1	
864.08	6193.7	
864.25	5825.1	
864.42	4267.3	
864.59	4747.9	
864.76	6477	
864.93	4893.3	
865.09	3354.6	
865.26	3654.9	
865.43	6126.8	
865.6	6300.9	
865.77	2998.9	
865.94	3398.9	
866.1	6139.8	
866.27	5821.7	
866.44	5114.5	
866.61	3267.9	
866.78	5290.6	
866.95	5724.1	
867.11	3327.3	
867.28	3028.3	
867.45	5854.5	
867.62	4967.7	
867.79	4025.6	
867.96	3428.3	
868.12	4909.7	
868.29	5823.1	
868.46	2978.4	
868.63	4595.6	
868.8	6025.8	
868.97	5724.8	
869.13	3576.4	
869.3	3556	
869.47	5752.7	
869.64	5871.5	
869.81	3409.2	
869.97	3427.6	
870.14	5556.8	
870.31	6282.5	
870.48	3279.5	
870.65	4227	
870.81	5233.9	
870.98	5203.9	
871.15	3864.5	
871.32	3530	
871.48	5662	
871.65	6354.2	
871.82	3398.9	
871.99	3720.5	
872.16	6716.7	
872.32	6158.9	
872.49	3490.4	
872.66	3467.2	
872.83	5838.8	
872.99	5094	
873.16	3900	
873.33	3383.9	
873.5	5482.4	
873.67	5496.1	
873.83	3587.4	
874	4572.4	
874.17	5621	
874.34	6613.6	
874.5	4404.5	
874.67	4274.1	
874.84	6231.3	
875.01	4894	
875.17	4764.9	
875.34	3390.8	
875.51	5532.2	
875.68	6669.6	
875.84	4117.8	
876.01	5064.6	
876.18	5786.2	
876.34	5681.7	
876.51	3407.1	
876.68	3290.4	
876.85	5291.3	
877.01	6052.4	
877.18	4883	
877.35	3419.4	
877.52	5378	
877.68	4805.9	
877.85	3287.7	
878.02	3349.1	
878.18	5356.1	
878.35	5108.3	
878.52	2747	
878.69	3853.6	
878.85	5845.6	
879.02	5775.3	
879.19	4831.8	
879.35	3695.2	
879.52	5717.2	
879.69	5985.5	
879.86	2975	
880.02	3844	
880.19	5345.2	
880.36	6556.9	
880.52	3867.2	
880.69	4104.1	
880.86	5884.5	
881.02	5942.5	
881.19	3732.1	
881.36	3705.5	
881.52	5752.7	
881.69	5078.3	
881.86	3703.4	
882.02	3623.5	
882.19	6019.7	
882.36	7040.9	
882.52	3512.3	
882.69	4756.7	
882.86	5623	
883.02	5455.8	
883.19	4171	
883.36	3921.2	
883.52	5903.6	
883.69	6683.2	
883.86	3467.2	
884.02	3089.7	
884.19	5838.1	
884.36	5352	
884.52	3873.4	
884.69	3620.8	
884.86	5128.8	
885.02	6441.5	
885.19	3823.6	
885.36	3953.9	
885.52	5398.4	
885.69	5569.1	
885.86	4952.7	
886.02	4368.3	
886.19	5827.2	
886.35	5243.5	
886.52	3760.8	
886.69	4835.3	
886.85	4911	
887.02	6200.6	
887.19	6200.6	
887.35	6200.6	
887.52	6200.6	
887.68	6200.6	
887.85	6200.6	
888.02	6200.6	
888.18	6200.6	
888.35	6200.6	
888.51	6200.6	
888.68	6200.6	
888.85	6200.6	
889.01	6200.6	
889.18	6200.6	
889.35	6200.6	
889.51	6200.6	
889.68	6200.6	
889.84	6200.6	
890.01	6200.6	
890.17	6200.6	
890.34	6200.6	
890.51	6200.6	
890.67	6200.6	
890.84	6200.6	
891	6200.6	
891.17	6200.6	
891.34	6200.6	
891.5	6200.6	
891.67	6200.6	
891.83	6200.6	
892	6200.6	
892.16	6200.6	
892.33	6200.6	
892.5	6200.6	
892.66	6200.6	
892.83	6200.6	
892.99	6200.6	
893.16	6200.6	
893.32	6200.6	
893.49	6200.6	
893.65	6200.6	
893.82	6200.6	
893.99	6200.6	
894.15	6200.6	
894.32	6200.6	
894.48	6200.6	
894.65	6200.6	
894.81	6200.6	
894.98	6200.6	
895.14	6200.6	
895.31	6200.6	
895.47	6200.6	
895.64	6200.6	
895.81	6200.6	
895.97	6200.6	
896.14	6200.6	
896.3	6200.6	
896.47	6200.6	
896.63	6200.6	
896.8	6200.6	
896.96	6200.6	
897.13	6200.6	
897.29	6200.6	
897.46	6200.6	
897.62	6200.6	
897.79	6200.6	
897.95	6200.6	
898.12	6200.6	
898.28	6200.6	
898.45	6200.6	
898.61	6200.6	
898.78	6200.6	
898.94	6200.6	
899.11	6200.6	
899.27	6200.6	
899.44	6200.6	
899.6	6200.6	
899.77	6200.6	
899.93	6200.6	
900.1	6200.6	
900.26	6200.6	
900.43	6200.6	
900.59	6200.6	
900.76	6200.6	
900.92	6200.6	
901.09	6200.6	
901.25	6200.6	
901.42	6200.6	
901.58	6200.6	
901.75	6200.6	
901.91	6200.6	
902.07	6200.6	
902.24	6200.6	
902.4	6200.6	
902.57	6200.6	
902.73	6200.6	
902.9	6200.6	
903.06	6200.6	
903.23	6200.6	
903.39	6200.6	
903.56	6200.6	
903.72	6200.6	
903.88	6200.6	
904.05	6200.6	
904.21	6200.6	
904.38	6200.6	
904.54	6200.6	
904.71	6200.6	
904.87	6200.6	
905.03	6200.6	
905.2	6200.6	
905.36	6200.6	
905.53	6200.6	
905.69	6200.6	
905.86	6200.6	
906.02	6200.6	
906.18	6200.6	
906.35	6200.6	
906.51	6200.6	
906.68	6200.6	
906.84	6200.6	
907.01	6200.6	
907.17	6200.6	
907.33	6200.6	
907.5	6200.6	
907.66	6200.6	
907.83	6200.6	
907.99	6200.6	
908.15	6200.6	
908.32	6200.6	
908.48	6200.6	
908.65	6200.6	
908.81	6200.6	
908.97	6200.6	
909.14	6200.6	
909.3	6200.6	
909.47	6200.6	
909.63	6200.6	
909.79	6200.6	
909.96	6200.6	
910.12	6200.6	
910.28	6200.6	
910.45	6200.6	
910.61	6200.6	
910.78	6200.6	
910.94	6200.6	
911.1	6200.6	
911.27	6200.6	
911.43	6200.6	
911.59	6200.6	
911.76	6200.6	
911.92	6200.6	
912.08	6200.6	
912.25	6200.6	
912.41	6200.6	
912.57	6200.6	
912.74	6200.6	
912.9	6200.6	
913.07	6200.6	
913.23	6200.6	
913.39	6200.6	
913.56	6200.6	
913.72	6200.6	
913.88	6200.6	
914.05	6200.6	
914.21	6200.6	
914.37	6200.6	
914.54	6200.6	
914.7	6200.6	
914.86	6200.6	
915.03	6200.6	
915.19	6200.6	
