Wavelength	Intensities	
nm	a.u.	
179.22	1766.9	
179.44	1771.8	
179.65	1761.9	
179.86	1781.7	
180.08	1791.3	
180.29	4241.3	
180.51	3201	
180.72	5284.4	
180.94	5963.7	
181.15	2953.2	
181.37	2873.3	
181.58	5023.7	
181.79	5306.3	
182.01	3077.4	
182.22	3222.1	
182.44	5316.5	
182.65	4537.6	
182.87	4010.6	
183.08	3568.2	
183.29	5561.6	
183.51	4637.3	
183.72	3251.5	
183.94	4589.5	
184.15	5009.3	
184.37	4948.6	
184.58	2880.1	
184.79	3860.4	
185.01	4682.3	
185.22	5315.2	
185.44	4014.7	
185.65	3461.1	
185.86	4947.2	
186.08	4539	
186.29	2794.8	
186.51	3011.2	
186.72	4696.7	
186.94	5416.9	
187.15	3424.2	
187.36	3545.7	
187.58	6840.9	
187.79	5057.8	
188.01	3652.9	
188.22	5603.2	
188.43	6000.5	
188.65	5307	
188.86	2999.6	
189.08	3509.5	
189.29	4827.7	
189.5	4792.2	
189.72	3241.3	
189.93	3324.5	
190.15	5449.6	
190.36	6362.4	
190.57	3582.6	
190.79	3468.6	
191	5536.3	
191.22	5537.7	
191.43	3600.3	
191.64	3089.7	
191.86	5694.7	
192.07	5393.7	
192.29	3124.5	
192.5	3261	
192.71	5531.6	
192.93	4771.1	
193.14	3261.7	
193.35	3350.5	
193.57	4789.5	
193.78	5540.4	
194	2699.9	
194.21	3184.6	
194.42	4597.7	
194.64	5044.8	
194.85	3534.8	
195.07	4109.6	
195.28	4971.1	
195.49	4383.3	
195.71	4306.9	
195.92	3070.6	
196.13	5170.4	
196.35	5223.7	
196.56	4528.1	
196.78	3539.6	
196.99	6290	
197.2	5946.6	
197.42	3992.9	
197.63	3558.7	
197.84	4518.5	
198.06	5111	
198.27	3276.8	
198.48	4305.5	
198.7	4816.8	
198.91	4938.3	
199.13	3538.2	
199.34	3592.1	
199.55	5380	
199.77	4337.6	
199.98	3183.2	
200.19	3614.7	
200.41	4932.2	
200.62	4617.5	
200.83	3648.8	
201.05	3976.5	
201.26	4915.8	
201.47	4662.5	
201.69	3254.2	
201.9	3093.1	
202.11	4955.4	
202.33	5872.2	
202.54	3349.1	
202.76	3707.5	
202.97	5108.3	
203.18	5086.5	
203.4	3720.5	
203.61	3660.4	
203.82	5034.6	
204.04	4722.6	
204.25	3579.8	
204.46	3493.8	
204.68	5030.5	
204.89	5191.6	
205.1	3496.6	
205.32	3080.1	
205.53	5309.7	
205.74	5419.6	
205.96	2642.6	
206.17	3627.6	
206.38	5255.1	
206.6	5387.5	
206.81	4151.9	
207.02	3349.1	
207.24	5187.5	
207.45	5533.6	
207.66	3363.4	
207.88	2932	
208.09	5172.5	
208.3	4948.6	
208.52	3170.3	
208.73	3452.9	
208.94	4983.4	
209.15	5556.8	
209.37	3418.1	
209.58	3845.4	
209.79	5457.8	
210.01	4863.2	
210.22	2778.4	
210.43	2936.1	
210.65	4973.8	
210.86	5355.4	
211.07	3371.6	
211.29	3185.3	
211.5	5208.7	
211.71	4986.8	
211.93	3168.2	
212.14	3099.9	
212.35	4945.8	
212.56	5072.1	
212.78	3578.5	
212.99	2936.8	
213.2	5714.5	
213.42	4768.4	
213.63	3297.2	
213.84	3470.6	
214.06	4474.1	
214.27	4597	
214.48	3330	
214.69	3650.8	
214.91	5561.6	
215.12	5659.2	
215.33	3637.2	
215.55	4028.4	
215.76	5993	
215.97	5287.9	
216.18	3463.1	
216.4	3421.5	
216.61	4682.3	
216.82	5396.4	
217.04	3136.8	
217.25	3302	
217.46	5505.6	
217.67	5317.9	
217.89	2841.9	
218.1	2936.1	
218.31	5025	
218.53	5138.4	
218.74	3329.3	
218.95	3218.7	
219.16	4948.6	
219.38	5784.1	
219.59	3206.4	
219.8	3788.7	
220.01	6208.8	
220.23	5021.6	
220.44	4134.2	
220.65	3115.6	
220.87	5066.7	
221.08	5523.4	
221.29	2955.2	
221.5	3835.2	
221.72	6609.5	
221.93	4744.5	
222.14	3599	
222.35	4179.2	
222.57	5014.8	
222.78	5283.8	
222.99	3424.2	
223.2	3641.3	
223.42	5186.8	
223.63	5324.7	
223.84	2686.9	
224.05	2636.4	
224.27	6255.2	
224.48	5739.1	
224.69	4243.4	
224.9	3612.6	
225.12	5127.4	
225.33	4906.3	
225.54	2930	
225.75	3229.6	
225.97	4642.1	
226.18	4945.8	
226.39	3458.3	
226.6	3206.4	
226.82	4780	
227.03	4613.4	
227.24	3596.9	
227.45	2976.4	
227.67	5302.2	
227.88	5710.4	
228.09	4000.4	
228.3	4007.9	
228.52	5294	
228.73	4879.6	
228.94	3347.7	
229.15	2990.7	
229.36	4958.1	
229.58	4873.5	
229.79	3406.5	
230	3860.4	
230.21	5866.7	
230.43	5116.5	
230.64	3528	
230.85	3674.1	
231.06	5360.2	
231.28	5358.9	
231.49	2933.4	
231.7	3491.8	
231.91	5268.1	
232.12	4990.9	
232.34	3070.6	
232.55	3456.3	
232.76	5432.6	
232.97	5070.1	
233.18	3132	
233.4	3539.6	
233.61	5141.1	
233.82	4765.6	
234.03	3345	
234.25	3274	
234.46	6656.6	
234.67	5000.5	
234.88	3652.2	
235.09	3205.8	
235.31	5227.1	
235.52	4951.3	
235.73	3545.7	
235.94	3046	
236.15	4791.6	
236.37	5947.3	
236.58	3186	
236.79	3403	
237	5233.9	
237.21	4523.3	
237.43	3631	
237.64	2934.1	
237.85	8522.3	
238.06	4621.6	
238.27	3672	
238.48	3026.9	
238.7	5288.5	
238.91	4829.1	
239.12	3426.3	
239.33	3445.4	
239.54	4597	
239.76	4854.4	
239.97	3437.9	
240.18	3415.3	
240.39	6073.6	
240.6	5218.9	
240.82	3579.8	
241.03	2945	
241.24	5012.1	
241.45	5718.6	
241.66	3177.8	
241.87	3706.1	
242.09	5551.4	
242.3	5902.2	
242.51	3662.5	
242.72	3409.9	
242.93	5358.2	
243.14	4955.4	
243.36	3969	
243.57	4265.2	
243.78	5670.8	
243.99	5235.3	
244.2	3424.9	
244.41	3117.7	
244.63	4578.6	
244.84	5227.1	
245.05	3666.5	
245.26	3462.4	
245.47	5235.3	
245.68	5339.7	
245.9	4387.4	
246.11	3596.9	
246.32	4812	
246.53	5167.7	
246.74	5492	
246.95	2947	
247.16	4613.4	
247.38	4997.7	
247.59	2900.6	
247.8	3504.8	
248.01	4693.3	
248.22	4900.8	
248.43	3102	
248.64	3362.1	
248.86	4506.2	
249.07	4826.4	
249.28	3054.2	
249.49	3498.6	
249.7	5399.8	
249.91	5430.5	
250.12	2942.9	
250.34	2965.5	
250.55	5113.8	
250.76	4941.1	
250.97	3544.4	
251.18	3577.8	
251.39	5580	
251.6	5154.7	
251.81	3586	
252.03	3642	
252.24	4816.8	
252.45	5389.6	
252.66	3052.2	
252.87	3733.4	
253.08	5021.6	
253.29	6343.9	
253.5	3068.5	
253.72	4121.9	
253.93	4841.4	
254.14	5777.3	
254.35	3255.6	
254.56	3359.4	
254.77	5176.6	
254.98	4655.7	
255.19	3280.2	
255.41	4118.5	
255.62	5127.4	
255.83	5537.7	
256.04	3652.9	
256.25	3577.1	
256.46	6019	
256.67	4732.2	
256.88	3517.7	
257.09	3882.9	
257.31	4686.4	
257.52	4706.9	
257.73	4368.3	
257.94	3248.8	
258.15	4797.7	
258.36	4954	
258.57	4073.4	
258.78	2649.4	
258.99	5387.5	
259.2	4836.6	
259.41	3292.5	
259.63	3325.9	
259.84	5651	
260.05	6067.4	
260.26	4222.2	
260.47	3205.8	
260.68	5444.9	
260.89	4870.1	
261.1	3855	
261.31	3150.5	
261.52	5509.7	
261.73	5799.2	
261.95	4199.7	
262.16	3629.7	
262.37	5564.3	
262.58	5625.1	
262.79	4130.1	
263	3381.2	
263.21	5147.9	
263.42	4846.9	
263.63	3388.7	
263.84	3307.5	
264.05	5453.1	
264.26	5750	
264.47	4044.7	
264.69	3650.8	
264.9	5591.6	
265.11	5147.2	
265.32	3223.5	
265.53	3257	
265.74	5097.4	
265.95	4475.5	
266.16	3437.2	
266.37	3806.5	
266.58	5062.6	
266.79	4811.4	
267	3255.6	
267.21	3033.7	
267.42	4618.9	
267.63	5006.6	
267.84	3386.7	
268.06	2975.7	
268.27	5347.9	
268.48	5541.1	
268.69	3339.6	
268.9	3905.5	
269.11	5579.3	
269.32	4503.5	
269.53	3464.5	
269.74	3203.7	
269.95	5257.1	
270.16	4476.9	
270.37	3451.5	
270.58	3958.7	
270.79	4901.5	
271	5429.2	
271.21	3646.7	
271.42	3427.6	
271.63	5180	
271.84	4659.8	
272.05	2792.7	
272.26	3071.3	
272.47	4987.5	
272.68	5093.3	
272.89	3327.3	
273.11	3777.1	
273.32	4777.9	
273.53	5773.2	
273.74	3704.1	
273.95	3652.2	
274.16	5481	
274.37	4998.4	
274.58	3773.7	
274.79	3031.7	
275	5134.3	
275.21	5510.4	
275.42	4465.3	
275.63	3841.3	
275.84	5216.2	
276.05	6434	
276.26	3657.7	
276.47	3444	
276.68	4888.5	
276.89	5859.9	
277.1	3849.5	
277.31	3046	
277.52	5124	
277.73	5429.8	
277.94	2989.4	
278.15	3317.7	
278.36	5176.6	
278.57	4683.7	
278.78	3311.6	
278.99	3671.3	
279.2	4711	
279.41	4672.8	
279.62	4325.3	
279.83	3098.6	
280.04	5987.6	
280.25	4624.3	
280.46	4285	
280.67	3436.5	
280.88	4662.5	
281.09	5561.6	
281.3	3646.1	
281.51	4485.1	
281.72	4732.9	
281.93	5459.2	
282.14	3218.7	
282.35	3497.9	
282.56	5403.2	
282.77	5374.6	
282.98	3345.7	
283.19	4015.4	
283.4	6539.8	
283.61	4926	
283.82	3093.1	
284.03	4244.1	
284.24	5162.2	
284.45	5451.7	
284.66	4192.2	
284.87	4040	
285.08	5475.6	
285.29	5621.7	
285.5	2973	
285.71	3346.4	
285.92	5491.3	
286.12	6014.9	
286.33	4173.8	
286.54	3353.2	
286.75	5414.8	
286.96	4846.2	
287.17	3119.7	
287.38	4101.4	
287.59	4734.2	
287.8	4697.4	
288.01	3396.2	
288.22	3803.8	
288.43	5371.8	
288.64	4571.7	
288.85	3956.7	
289.06	3831.7	
289.27	5363.6	
289.48	5771.9	
289.69	4253.6	
289.9	3857	
290.11	5560.9	
290.32	4764.3	
290.53	4017.4	
290.74	3701.4	
290.94	5370.5	
291.15	5431.2	
291.36	3274	
291.57	3833.1	
291.78	4780.6	
291.99	4460.5	
292.2	3112.2	
292.41	3694.5	
292.62	5482.4	
292.83	5279	
293.04	4536.9	
293.25	3199.6	
293.46	4881.7	
293.67	5461.2	
293.88	3259.7	
294.09	3117	
294.29	4643.4	
294.5	5091.3	
294.71	3452.9	
294.92	3332.7	
295.13	4856.4	
295.34	5948.7	
295.55	2935.4	
295.76	2888.3	
295.97	5300.1	
296.18	5915.2	
296.39	3061.7	
296.6	3263.1	
296.81	5081	
297.01	5328.8	
297.22	3391.4	
297.43	3306.8	
297.64	4749.9	
297.85	4655	
298.06	2738.8	
298.27	2975.7	
298.48	4978.6	
298.69	4728.1	
298.9	3514.3	
299.11	3200.3	
299.31	4612	
299.52	4638	
299.73	3719.1	
299.94	3669.3	
300.15	4993.6	
300.36	4701.5	
300.57	3641.3	
300.78	3599	
300.99	4898.7	
301.2	5076.2	
301.4	3261	
301.61	3510.9	
301.82	5280.3	
302.03	5371.8	
302.24	3833.1	
302.45	3134.8	
302.66	5203.9	
302.87	5573.9	
303.08	3180.5	
303.29	4347.8	
303.49	4789.5	
303.7	4955.4	
303.91	2910.2	
304.12	4201.7	
304.33	4537.6	
304.54	5152.7	
304.75	3287.7	
304.96	3175	
305.16	5287.2	
305.37	5898.8	
305.58	2891	
305.79	2968.2	
306	5247.6	
306.21	4490.5	
306.42	3209.2	
306.63	4814.8	
306.83	4862.6	
307.04	5430.5	
307.25	3568.2	
307.46	3562.8	
307.67	4377.2	
307.88	5337.7	
308.09	3181.9	
308.29	3269.2	
308.5	5041.4	
308.71	5496.1	
308.92	3477.5	
309.13	3117.7	
309.34	4891.9	
309.55	4884.4	
309.75	4003.8	
309.96	3646.7	
310.17	5343.2	
310.38	4719.9	
310.59	3835.2	
310.8	3016	
311.01	4874.8	
311.21	4924.7	
311.42	3146.4	
311.63	3175	
311.84	4782.7	
312.05	5073.5	
312.26	3588.7	
312.46	3949.8	
312.67	4833.2	
312.88	4592.9	
313.09	3156.6	
313.3	3077.4	
313.51	5661.3	
313.71	5971.9	
313.92	3189.4	
314.13	3303.4	
314.34	5120.6	
314.55	4924.7	
314.76	3975.8	
314.96	3531.4	
315.17	5077.6	
315.38	5254.4	
315.59	3186	
315.8	2984.6	
316.01	5713.2	
316.21	5763.7	
316.42	3039.9	
316.63	3460.4	
316.84	4897.4	
317.05	5440.8	
317.26	3702.7	
317.46	3355.9	
317.67	4911.7	
317.88	5290.6	
318.09	3886.4	
318.3	2966.8	
318.5	4790.9	
318.71	5247.6	
318.92	4971.1	
319.13	3723.9	
319.34	5390.3	
319.54	5554.8	
319.75	2970.9	
319.96	2837.8	
320.17	5251	
320.38	5535	
320.58	2897.9	
320.79	3436.5	
321	5530.2	
321.21	5538.4	
321.42	3423.5	
321.62	2878.1	
321.83	4680.3	
322.04	5023	
322.25	3375.7	
322.46	3122.5	
322.66	5088.5	
322.87	5307	
323.08	3823.6	
323.29	3091.8	
323.5	5882.4	
323.7	4601.1	
323.91	4223.6	
324.12	3805.1	
324.33	5061.9	
324.53	5324	
324.74	3663.1	
324.95	3829	
325.16	4475.5	
325.37	4892.6	
325.57	3119.7	
325.78	3227.6	
325.99	5093.3	
326.2	4590.2	
326.4	4351.3	
326.61	2961.4	
326.82	4961.5	
327.03	5109.7	
327.24	4411.3	
327.44	4080.2	
327.65	5212.8	
327.86	4289.1	
328.07	3607.2	
328.27	3007.1	
328.48	5563.6	
328.69	4607.2	
328.9	4433.2	
329.1	3287	
329.31	4941.7	
329.52	5674.2	
329.73	3173	
329.93	3512.3	
330.14	5003.9	
330.35	5226.4	
330.56	5051	
330.76	3867.2	
330.97	4853.7	
331.18	5119.9	
331.39	3543.7	
331.59	2889.7	
331.8	5524.1	
332.01	5666	
332.22	3212.6	
332.42	3652.2	
332.63	5167.7	
332.84	4718.5	
333.05	3484.3	
333.25	3222.8	
333.46	4800.4	
333.67	5024.3	
333.88	3313.6	
334.08	3573	
334.29	6464.1	
334.5	5542.5	
334.7	3063.8	
334.91	4391.5	
335.12	4653	
335.33	5393	
335.53	3506.1	
335.74	5015.5	
335.95	4881	
336.16	4658.4	
336.36	3450.8	
336.57	3980.6	
336.78	4547.9	
336.98	5442.1	
337.19	4278.2	
337.4	3390.1	
337.61	5940.5	
337.81	4603.8	
338.02	3262.4	
338.23	4078.9	
338.43	5622.4	
338.64	4687.8	
338.85	3183.9	
339.05	4092.5	
339.26	5707.7	
339.47	4521.2	
339.68	3127.9	
339.88	4565.6	
340.09	5233.2	
340.3	5433.3	
340.5	3639.2	
340.71	2885.6	
340.92	4605.9	
341.13	5599.1	
341.33	3050.1	
341.54	3682.2	
341.75	5218.2	
341.95	4852.3	
342.16	3553.2	
342.37	3837.2	
342.57	4662.5	
342.78	4999.8	
342.99	3921.9	
343.19	2901.3	
343.4	5393.7	
343.61	5210.7	
343.81	3373	
344.02	3104.7	
344.23	5341.8	
344.43	5727.5	
344.64	3872.7	
344.85	3786.7	
345.06	5206.6	
345.26	5552.7	
345.47	3632.4	
345.68	4156.7	
345.88	4501.4	
346.09	5398.4	
346.3	3696.6	
346.5	2807.1	
346.71	4986.8	
346.92	4749.2	
347.12	2967.5	
347.33	3632.4	
347.54	5461.9	
347.74	5762.3	
347.95	3636.5	
348.16	2732.7	
348.36	4816.1	
348.57	4616.1	
348.78	3631.7	
348.98	3890.5	
349.19	4955.4	
349.39	4505.5	
349.6	2978.4	
349.81	3177.1	
350.01	5259.9	
350.22	4729.4	
350.43	3500	
350.63	4192.2	
350.84	5022.3	
351.05	4778.6	
351.25	3201	
351.46	2912.2	
351.67	5428.5	
351.87	4790.9	
352.08	3381.2	
352.29	3805.8	
352.49	5384.8	
352.7	5181.4	
352.9	3116.3	
353.11	3756.7	
353.32	5908.4	
353.52	4857.1	
353.73	3003.7	
353.94	3899.3	
354.14	5253	
354.35	5055.1	
354.55	3194.1	
354.76	3516.4	
354.97	5218.2	
355.17	4996.4	
355.38	2967.5	
355.59	4136.2	
355.79	4758.8	
356	5002.5	
356.2	3448.8	
356.41	3078.1	
356.62	4545.1	
356.82	4874.8	
357.03	3695.9	
357.24	3363.4	
357.44	4727.4	
357.65	4908.3	
357.85	4367.6	
358.06	3512.9	
358.27	4518.5	
358.47	4703.5	
358.68	2964.1	
358.88	3743	
359.09	5224.4	
359.3	5497.4	
359.5	4259.8	
359.71	3811.3	
359.91	5912.5	
360.12	5347.2	
360.33	3717.7	
360.53	4046.8	
360.74	4737.6	
360.94	4815.5	
361.15	3889.1	
361.36	3235.1	
361.56	5472.9	
361.77	5025	
361.97	4341	
362.18	3438.5	
362.38	5493.3	
362.59	4664.6	
362.8	3226.2	
363	3060.3	
363.21	4477.5	
363.41	5150	
363.62	3665.2	
363.83	4464.6	
364.03	5182	
364.24	5907.7	
364.44	4628.4	
364.65	4616.1	
364.85	4956.8	
365.06	4680.3	
365.27	3355.3	
365.47	3423.5	
365.68	5875.6	
365.88	4958.1	
366.09	3680.9	
366.29	3401	
366.5	5094	
366.71	5529.5	
366.91	4539.7	
367.12	3850.9	
367.32	6005.3	
367.53	5421.7	
367.73	3846.1	
367.94	4636.6	
368.14	5409.4	
368.35	6083.1	
368.56	3832.4	
368.76	3278.1	
368.97	5451.7	
369.17	6804.7	
369.38	3385.3	
369.58	3633.8	
369.79	4664.6	
369.99	5760.9	
370.2	4462.5	
370.4	3676.8	
370.61	5233.2	
370.82	6177.4	
371.02	3619.4	
371.23	3058.3	
371.43	4661.9	
371.64	5718.6	
371.84	3663.8	
372.05	4611.3	
372.25	6748.1	
372.46	5447.6	
372.66	3708.9	
372.87	3571.7	
373.07	5481.7	
373.28	6846.4	
373.48	4536.9	
373.69	4281.6	
373.9	5089.2	
374.1	5097.4	
374.31	4418.8	
374.51	4044.1	
374.72	5791	
374.92	4878.3	
375.13	4637.3	
375.33	3935.5	
375.54	5373.9	
375.74	5018.9	
375.95	4018.8	
376.15	4993.6	
376.36	5530.9	
376.56	5341.8	
376.77	4044.1	
376.97	4393.6	
377.18	6427.9	
377.38	5556.8	
377.59	4681.7	
377.79	3679.5	
378	5404.6	
378.2	5669.5	
378.41	3775.8	
378.61	3682.9	
378.82	5812.8	
379.02	5132.9	
379.23	3850.9	
379.43	4747.9	
379.64	5952.1	
379.84	5583.4	
380.05	3773.7	
380.25	3652.9	
380.46	5634	
380.66	5301.5	
380.87	4876.2	
381.07	5117.9	
381.28	6219.7	
381.48	5642.8	
381.69	3728	
381.89	3841.3	
382.1	4764.9	
382.3	5763	
382.51	4717.2	
382.71	5419.6	
382.91	5612.1	
383.12	6083.8	
383.32	4102.8	
383.53	4226.3	
383.73	5552	
383.94	5403.2	
384.14	4185.4	
384.35	3480.9	
384.55	5332.9	
384.76	5689.9	
384.96	4084.3	
385.17	4285.7	
385.37	5605.3	
385.58	5003.2	
385.78	4357.4	
385.98	3350.5	
386.19	5218.9	
386.39	5517.2	
386.6	3846.1	
386.8	4004.5	
387.01	5577.3	
387.21	5657.9	
387.42	4362.2	
387.62	4855.7	
387.83	5111	
388.03	5513.1	
388.23	4143.7	
388.44	4790.2	
388.64	4853.7	
388.85	4901.5	
389.05	4404.5	
389.26	4899.4	
389.46	6584.2	
389.67	6062.7	
389.87	4341.7	
390.07	4443.4	
390.28	5436	
390.48	5094	
390.69	3806.5	
390.89	4056.3	
391.1	5200.5	
391.3	5937.1	
391.5	4996.4	
391.71	5511.1	
391.91	5780.7	
392.12	6583.5	
392.32	5117.2	
392.53	4429.1	
392.73	5268.7	
392.93	5456.5	
393.14	4218.8	
393.34	4878.9	
393.55	5801.2	
393.75	5408.7	
393.95	4187.4	
394.16	4109.6	
394.36	5241.4	
394.57	5730.2	
394.77	3767.6	
394.98	4060.4	
395.18	5214.1	
395.38	5223	
395.59	4855.1	
395.79	3976.5	
396	5291.3	
396.2	5730.2	
396.4	4656.4	
396.61	4586.1	
396.81	5866.7	
397.02	5268.7	
397.22	4890.5	
397.42	4916.5	
397.63	5952.8	
397.83	5330.2	
398.04	3992.9	
398.24	4476.2	
398.44	5700.9	
398.65	4996.4	
398.85	3875.4	
399.05	3995.6	
399.26	5316.5	
399.46	6612.9	
399.67	4285.7	
399.87	4022.9	
400.07	5632.6	
400.28	5849.7	
400.48	4143.7	
400.69	5051.7	
400.89	6107	
401.09	6477.7	
401.3	4052.2	
401.5	5040.1	
401.7	6698.9	
401.91	6916	
402.11	4429.8	
402.32	4547.2	
402.52	6237.4	
402.72	6122.1	
402.93	4812	
403.13	3852.9	
403.33	6781.5	
403.54	5651	
403.74	4422.2	
403.94	5200.5	
404.15	5694	
404.35	6623.1	
404.56	4242.7	
404.76	5757.5	
404.96	6107.7	
405.17	5856.5	
405.37	5281	
405.57	4677.6	
405.78	6132.3	
405.98	5627.8	
406.18	4304.8	
406.39	4992.3	
406.59	6163.7	
406.79	5795.1	
407	4166.3	
407.2	4274.1	
407.4	6109.8	
407.61	6219.7	
407.81	4217.5	
408.01	6068.8	
408.22	5204.6	
408.42	6909.8	
408.62	5182	
408.83	4759.5	
409.03	5861.3	
409.23	5729.5	
409.44	4864.6	
409.64	5134.9	
409.84	6657.9	
410.05	6619	
410.25	5102.2	
410.45	4953.4	
410.66	6240.2	
410.86	8287.4	
411.06	5288.5	
411.27	5226.4	
411.47	8238.3	
411.67	6503.7	
411.88	5366.4	
412.08	5670.1	
412.28	7074.4	
412.49	7503.8	
412.69	5268.7	
412.89	5335	
413.09	7362.4	
413.3	7334.5	
413.5	5421	
413.7	5091.3	
413.91	6707.8	
414.11	7370	
414.31	5329.5	
414.52	5682.4	
414.72	7144.7	
414.92	7061.4	
415.12	5332.9	
415.33	5830.6	
415.53	7466.2	
415.73	7673.1	
415.94	6036.7	
416.14	5600.5	
416.34	6582.2	
416.55	6383.5	
416.75	6668.9	
416.95	6140.5	
417.15	7446.4	
417.36	8107.9	
417.56	6888.7	
417.76	6049.7	
417.97	7767.3	
418.17	7508.5	
418.37	5722.7	
418.57	5794.4	
418.78	7331.7	
418.98	7065.5	
419.18	6561.7	
419.38	6454.5	
419.59	7077.1	
419.79	6862.1	
419.99	5625.8	
420.2	6054.5	
420.4	7611.6	
420.6	7682.6	
420.8	5622.4	
421.01	5486.5	
421.21	7397.3	
421.41	7561.1	
421.61	5926.1	
421.82	5640.8	
422.02	7084.6	
422.22	7889.5	
422.42	6416.3	
422.63	5965.1	
422.83	7155.6	
423.03	8185.7	
423.23	6169.8	
423.44	5218.2	
423.64	7174	
423.84	6864.1	
424.04	5619.6	
424.25	5354.1	
424.45	7858.7	
424.65	7854.6	
424.85	5160.9	
425.06	5567.1	
425.26	7923.6	
425.46	6949.4	
425.66	6024.4	
425.87	5715.2	
426.07	7607.5	
426.27	7498.3	
426.47	5964.4	
426.67	5285.1	
426.88	7873.1	
427.08	7409.6	
427.28	6137.1	
427.48	5258.5	
427.69	6555.5	
427.89	7110.5	
428.09	6001.2	
428.29	5284.4	
428.5	7703.1	
428.7	7250.5	
428.9	5148.6	
429.1	5646.9	
429.3	7207.5	
429.51	7509.9	
429.71	5461.9	
429.91	6236.7	
430.11	7512.6	
430.31	7903.1	
430.52	5735	
430.72	6024.4	
430.92	8045.8	
431.12	7548.1	
431.32	5607.3	
431.53	5863.3	
431.73	6673	
431.93	8066.3	
432.13	5484.5	
432.33	5339.1	
432.54	7088.7	
432.74	7335.8	
432.94	5384.1	
433.14	6126.8	
433.34	7563.8	
433.55	7219.1	
433.75	6187.6	
433.95	7675.8	
434.15	7447.8	
434.35	7198.6	
434.56	5537	
434.76	5204.6	
434.96	7354.3	
435.16	7672.4	
435.36	5482.4	
435.56	6544.6	
435.77	7167.2	
435.97	7346.7	
436.17	7101	
436.37	6418.3	
436.57	7209.5	
436.78	7157	
436.98	6829.3	
437.18	6868.9	
437.38	7712.7	
437.58	7333.1	
437.78	7122.8	
437.99	5894.1	
438.19	7802.1	
438.39	9066.4	
438.59	5911.8	
438.79	5440.1	
438.99	8274.5	
439.2	7256.6	
439.4	5378	
439.6	5350.7	
439.8	7565.9	
440	8383	
440.2	6301.6	
440.4	6408.1	
440.61	7820.5	
440.81	8411.7	
441.01	5715.9	
441.21	6485.9	
441.41	8370.7	
441.61	7981.6	
441.81	6827.9	
442.02	7709.2	
442.22	8848.6	
442.42	8164.6	
442.62	5963	
442.82	5929.6	
443.02	8424.7	
443.22	7726.3	
443.43	6297.5	
443.63	5879.7	
443.83	7448.5	
444.03	7515.4	
444.23	6951.5	
444.43	6607.4	
444.63	7881.3	
444.83	8810.4	
445.04	6137.8	
445.24	7167.9	
445.44	8271.1	
445.64	8235.6	
445.84	6711.9	
446.04	6771.3	
446.24	7567.2	
446.44	8433.5	
446.65	5968.5	
446.85	6430.6	
447.05	7564.5	
447.25	8307.2	
447.45	6432	
447.65	5870.2	
447.85	7863.5	
448.05	7445	
448.25	6734.4	
448.46	6581.5	
448.66	7775.5	
448.86	7556.3	
449.06	5825.1	
449.26	6747.4	
449.46	8101.1	
449.66	7349.5	
449.86	6488.6	
450.06	6323.4	
450.26	7527.7	
450.47	8053.3	
450.67	6507.1	
450.87	6834.8	
451.07	8172.1	
451.27	7989.8	
451.47	5963	
451.67	6479.8	
451.87	7646.4	
452.07	8583	
452.27	6309.1	
452.47	6199.9	
452.67	7888.1	
452.88	8391.9	
453.08	5663.3	
453.28	7283.9	
453.48	9031.5	
453.68	7760.4	
453.88	6194.4	
454.08	6243.6	
454.28	8234.9	
454.48	7888.8	
454.68	6744	
454.88	7126.9	
455.08	8238.3	
455.28	8163.2	
455.48	5968.5	
455.68	6626.5	
455.89	8812.4	
456.09	8466.3	
456.29	6384.2	
456.49	6541.2	
456.69	8764.6	
456.89	8061.5	
457.09	6877.8	
457.29	7287.4	
457.49	8364.6	
457.69	8505.2	
457.89	6933.1	
458.09	6321.4	
458.29	8229.4	
458.49	8884.8	
458.69	7187	
458.89	6668.9	
459.09	9085.5	
459.29	9141.4	
459.49	6819.1	
459.69	7520.1	
459.9	8697.7	
460.1	8438.3	
460.3	6808.8	
460.5	6560.3	
460.7	8634.9	
460.9	8409.6	
461.1	6253.1	
461.3	7400.7	
461.5	9323.7	
461.7	8936.7	
461.9	6753.5	
462.1	7060.7	
462.3	8510	
462.5	9067.7	
462.7	6862.7	
462.9	6916.7	
463.1	9981.8	
463.3	9684.2	
463.5	7097.6	
463.7	8015.1	
463.9	8882.7	
464.1	9223.4	
464.3	7347.4	
464.5	7584.3	
464.7	9426.8	
464.9	9223.4	
465.1	8741.4	
465.3	7898.3	
465.5	9776.3	
465.7	9778.4	
465.9	8181	
466.1	7914.7	
466.3	9693.7	
466.5	9414.5	
466.7	8772.8	
466.9	7755	
467.1	9575.6	
467.3	10297	
467.5	8732.5	
467.7	7777.5	
467.9	10536	
468.1	11222	
468.3	8447.2	
468.5	8894.3	
468.7	9584.5	
468.9	9498.5	
469.1	8120.9	
469.3	8668.4	
469.5	11209	
469.7	9291	
469.9	8462.2	
470.1	7910.6	
470.3	9679.4	
470.5	9752.4	
470.7	9029.5	
470.9	7965.2	
471.1	9463	
471.3	9728.5	
471.5	7882.6	
471.69	9386.5	
471.89	9396.8	
472.09	8972.8	
472.29	8548.2	
472.49	8794.7	
472.69	9109.4	
472.89	9811.8	
473.09	7823.2	
473.29	7761.1	
473.49	9213.1	
473.69	9262.3	
473.89	8568.7	
474.09	7962.5	
474.29	10388	
474.49	10114	
474.69	8569.4	
474.89	7965.2	
475.09	9350.3	
475.29	9274.6	
475.49	7548.8	
475.69	7779.6	
475.88	10568	
476.08	9632.3	
476.28	7539.9	
476.48	7788.4	
476.68	9818	
476.88	9793.4	
477.08	7731.8	
477.28	8023.3	
477.48	9342.2	
477.68	9832.3	
477.88	7574.1	
478.08	7749.5	
478.28	10092	
478.48	9324.4	
478.67	7784.3	
478.87	7314	
479.07	10007	
479.27	9478.7	
479.47	7991.2	
479.67	8031.5	
479.87	9810.5	
480.07	10243	
480.27	7409.6	
480.47	8754.4	
480.67	9545.6	
480.87	10131	
481.06	7629.4	
481.26	8335.9	
481.46	9502.6	
481.66	9435	
481.86	8083.3	
482.06	8938	
482.26	9293.7	
482.46	9939.5	
482.66	7918.1	
482.86	7598.6	
483.05	9698.5	
483.25	9041.1	
483.45	9934	
483.65	8016.4	
483.85	9132.6	
484.05	9420	
484.25	8376.9	
484.45	8821.3	
484.65	10182	
484.84	10229	
485.04	7960.5	
485.24	7945.4	
485.44	10525	
485.64	9146.2	
485.84	7496.9	
486.04	8708.6	
486.24	9437	
486.44	9780.4	
486.63	7363.1	
486.83	8087.4	
487.03	9382.4	
487.23	9648.7	
487.43	7548.8	
487.63	9556.5	
487.83	9600.2	
488.02	10553	
488.22	8359.1	
488.42	8925.7	
488.62	10443	
488.82	9516.2	
489.02	8111.3	
489.22	8167.3	
489.41	10254	
489.61	9992	
489.81	7930.4	
490.01	7955.7	
490.21	10239	
490.41	10913	
490.61	8051.9	
490.8	8067.6	
491	9877.4	
491.2	9385.2	
491.4	8493.6	
491.6	7798.7	
491.8	9764	
491.99	9936.7	
492.19	7649.8	
492.39	7908.6	
492.59	10139	
492.79	10163	
492.99	8652.7	
493.18	7862.8	
493.38	10340	
493.58	10944	
493.78	8505.9	
493.98	8157.7	
494.18	10140	
494.37	9687.6	
494.57	8921	
494.77	8728.4	
494.97	10471	
495.17	10759	
495.37	8496.3	
495.56	8768.7	
495.76	10970	
495.96	10720	
496.16	9667.1	
496.36	8690.2	
496.55	10893	
496.75	10452	
496.95	9097.8	
497.15	9072.5	
497.35	10862	
497.54	10935	
497.74	8903.2	
497.94	10220	
498.14	11468	
498.34	11269	
498.53	8671.8	
498.73	9199.5	
498.93	10446	
499.13	11021	
499.33	9114.8	
499.52	9498.5	
499.72	11009	
499.92	11167	
500.12	8939.4	
500.32	9130.5	
500.51	11172	
500.71	10949	
500.91	9908.1	
501.11	9579	
501.31	11109	
501.5	11519	
501.7	10122	
501.9	9211.1	
502.1	10903	
502.29	11168	
502.49	9579	
502.69	9907.4	
502.89	11090	
503.09	11145	
503.28	8816.5	
503.48	8902.5	
503.68	10426	
503.88	10487	
504.07	9706	
504.27	9133.3	
504.47	10807	
504.67	10817	
504.86	9630.2	
505.06	9211.1	
505.26	10521	
505.46	11931	
505.65	9136	
505.85	9383.1	
506.05	10311	
506.25	10770	
506.44	8571.4	
506.64	9234.3	
506.84	10152	
507.04	10859	
507.23	8590.5	
507.43	9092.3	
507.63	11884	
507.83	10389	
508.02	9095	
508.22	8680	
508.42	11960	
508.62	10090	
508.81	8833.6	
509.01	9474.6	
509.21	10019	
509.4	10273	
509.6	9059.5	
509.8	8611.7	
510	10294	
510.19	11415	
510.39	8497	
510.59	8675.2	
510.79	10131	
510.98	11277	
511.18	8685.4	
511.38	8906.6	
511.57	10871	
511.77	10611	
511.97	9310.7	
512.17	8508.6	
512.36	10768	
512.56	10669	
512.76	8510.7	
512.95	8262.9	
513.15	10840	
513.35	9630.9	
513.55	9206.3	
513.74	8598.1	
513.94	10735	
514.14	10221	
514.33	9370.8	
514.53	9061.6	
514.73	10342	
514.92	10386	
515.12	8626.7	
515.32	8576.9	
515.51	10506	
515.71	10854	
515.91	10084	
516.11	8561.2	
516.3	11885	
516.5	10165	
516.7	9116.9	
516.89	9671.9	
517.09	10277	
517.29	10252	
517.48	9396.1	
517.68	8842.4	
517.88	10089	
518.07	10600	
518.27	9282.8	
518.47	8375.5	
518.66	10929	
518.86	9926.5	
519.06	8251.3	
519.25	8546.9	
519.45	10180	
519.65	11414	
519.84	9238.4	
520.04	9908.8	
520.24	11690	
520.43	10776	
520.63	9009	
520.83	8793.3	
521.02	10035	
521.22	10553	
521.42	9110.7	
521.61	9632.3	
521.81	10210	
522.01	10389	
522.2	9022.7	
522.4	8922.3	
522.6	10733	
522.79	9630.2	
522.99	8921.6	
523.18	8314.1	
523.38	10558	
523.58	10534	
523.77	10019	
523.97	8385.1	
524.17	12040	
524.36	11570	
524.56	9620	
524.76	9361.3	
524.95	10703	
525.15	10349	
525.34	9155.8	
525.54	9278	
525.74	11209	
525.93	10260	
526.13	10409	
526.33	9400.2	
526.52	11459	
526.72	11062	
526.91	10359	
527.11	9757.9	
527.31	11477	
527.5	11804	
527.7	9728.5	
527.89	8990.6	
528.09	10670	
528.29	11113	
528.48	9979.1	
528.68	9576.3	
528.87	11482	
529.07	11376	
529.27	9756.5	
529.46	9351	
529.66	11292	
529.85	11702	
530.05	9316.2	
530.25	9931.3	
530.44	12446	
530.64	11126	
530.83	9613.8	
531.03	9759.3	
531.23	11555	
531.42	11387	
531.62	10340	
531.81	9710.8	
532.01	11630	
532.21	11893	
532.4	9521.7	
532.6	9813.2	
532.79	12558	
532.99	11792	
533.18	9969.5	
533.38	10843	
533.58	11509	
533.77	12101	
533.97	10056	
534.16	10731	
534.36	12352	
534.55	11598	
534.75	10873	
534.95	10150	
535.14	12306	
535.34	11675	
535.53	9886.9	
535.73	11450	
535.92	12766	
536.12	11682	
536.31	9925.1	
536.51	10985	
536.71	11957	
536.9	11587	
537.1	9947.7	
537.29	10194	
537.49	12388	
537.68	11449	
537.88	10522	
538.07	9648.7	
538.27	11729	
538.46	12496	
538.66	9680.7	
538.86	10095	
539.05	11650	
539.25	12167	
539.44	10399	
539.64	9922.4	
539.83	11566	
540.03	12458	
540.22	9838.4	
540.42	9989.3	
540.61	11780	
540.81	11897	
541	10263	
541.2	10818	
541.39	11332	
541.59	11635	
541.78	10574	
541.98	9855.5	
542.18	11034	
542.37	11077	
542.57	10099	
542.76	10581	
542.96	11025	
543.15	11652	
543.35	10036	
543.54	9610.4	
543.74	11725	
543.93	11383	
544.13	9917.6	
544.32	10839	
544.52	11608	
544.71	10914	
544.91	9019.9	
545.1	10130	
545.3	11056	
545.49	11442	
545.69	9096.4	
545.88	9574.9	
546.08	12305	
546.27	11908	
546.47	9962.7	
546.66	9329.9	
546.86	11757	
547.05	12129	
547.24	9548.3	
547.44	9422.7	
547.63	10733	
547.83	11735	
548.02	9775	
548.22	9938.8	
548.41	10647	
548.61	11774	
548.8	9356.5	
549	9256.8	
549.19	11143	
549.39	11445	
549.58	9022.7	
549.78	9501.2	
549.97	11413	
550.17	10939	
550.36	10230	
550.55	10925	
550.75	10886	
550.94	11725	
551.14	9107.3	
551.33	9469.1	
551.53	10381	
551.72	11198	
551.92	9469.8	
552.11	9301.9	
552.31	11110	
552.5	11194	
552.69	10598	
552.89	8832.2	
553.08	11144	
553.28	10922	
553.47	9239.1	
553.67	10120	
553.86	11632	
554.06	10259	
554.25	8437.6	
554.44	9107.3	
554.64	12258	
554.83	11847	
555.03	9009.7	
555.22	9333.3	
555.42	11228	
555.61	11008	
555.8	9101.2	
556	9398.1	
556.19	10253	
556.39	11211	
556.58	9123	
556.78	9129.8	
556.97	10808	
557.16	10639	
557.36	10081	
557.55	8801.5	
557.75	9968.1	
557.94	11622	
558.13	8887.5	
558.33	8645.2	
558.52	11480	
558.72	10409	
558.91	8785.8	
559.1	8908.7	
559.3	10094	
559.49	9893.1	
559.69	8447.2	
559.88	9214.5	
560.07	10771	
560.27	11140	
560.46	9334.6	
560.66	9492.3	
560.85	10614	
561.04	9860.3	
561.24	8748.9	
561.43	8792.6	
561.63	10104	
561.82	10368	
562.01	9929.2	
562.21	9036.3	
562.4	10632	
562.59	11511	
562.79	9013.8	
562.98	8728.4	
563.18	10584	
563.37	11765	
563.56	9387.9	
563.76	8662.2	
563.95	10222	
564.14	10169	
564.34	8893.6	
564.53	8783.1	
564.73	10572	
564.92	10974	
565.11	9242.5	
565.31	8602.8	
565.5	11094	
565.69	10256	
565.89	8847.9	
566.08	9123	
566.27	11033	
566.47	11427	
566.66	9607	
566.85	8551	
567.05	10710	
567.24	10242	
567.44	8749.6	
567.63	9870.5	
567.82	11033	
568.02	10722	
568.21	8804.2	
568.4	9069.1	
568.6	10621	
568.79	10532	
568.98	8688.2	
569.18	8720.9	
569.37	10654	
569.56	12280	
569.76	9147.6	
569.95	9900.6	
570.14	10978	
570.34	10771	
570.53	8657.4	
570.72	8673.1	
570.91	11327	
571.11	10575	
571.3	9054.1	
571.49	9883.5	
571.69	10689	
571.88	10264	
572.07	9540.1	
572.27	9509.4	
572.46	10261	
572.65	11100	
572.85	8834.3	
573.04	9171.5	
573.23	11244	
573.43	10699	
573.62	8805.6	
573.81	9262.3	
574	10753	
574.2	10574	
574.39	8999.5	
574.58	9261.6	
574.78	11434	
574.97	10784	
575.16	9542.2	
575.36	9689.6	
575.55	11230	
575.74	11394	
575.93	8806.3	
576.13	9783.8	
576.32	10641	
576.51	11320	
576.71	9153.7	
576.9	10335	
577.09	11514	
577.28	11100	
577.48	9537.4	
577.67	8752.3	
577.86	10746	
578.05	10955	
578.25	9342.8	
578.44	9380.4	
578.63	10851	
578.83	11908	
579.02	8824.7	
579.21	10115	
579.4	11049	
579.6	10803	
579.79	9492.3	
579.98	11248	
580.17	11411	
580.37	11381	
580.56	9066.4	
580.75	9643.2	
580.94	11743	
581.14	11623	
581.33	10001	
581.52	9058.8	
581.71	11120	
581.91	11813	
582.1	8949.6	
582.29	9348.3	
582.48	10940	
582.68	10894	
582.87	9724.4	
583.06	9476	
583.25	11260	
583.45	10674	
583.64	10088	
583.83	10625	
584.02	10843	
584.21	11317	
584.41	10017	
584.6	9470.5	
584.79	10975	
584.98	11480	
585.18	8925.7	
585.37	8994	
585.56	10610	
585.75	11373	
585.94	9172.9	
586.14	9805.7	
586.33	11769	
586.52	10911	
586.71	9521.7	
586.91	9254.8	
587.1	10356	
587.29	11142	
587.48	9229.5	
587.67	9118.9	
587.87	11047	
588.06	11046	
588.25	10234	
588.44	9593.4	
588.63	10720	
588.83	11181	
589.02	9108.7	
589.21	8961.2	
589.4	10535	
589.59	10387	
589.78	8221.2	
589.98	8453.3	
590.17	9910.1	
590.36	10364	
590.55	7841.7	
590.74	8390.5	
590.94	11232	
591.13	10028	
591.32	8230.1	
591.51	7799.3	
591.7	10336	
591.89	9943.6	
592.09	7836.9	
592.28	8210.3	
592.47	9316.2	
592.66	10905	
592.85	7906.5	
593.05	8144.8	
593.24	9777.7	
593.43	10572	
593.62	8222.6	
593.81	8612.4	
594	9909.4	
594.19	10075	
594.39	8061.5	
594.58	7978.2	
594.77	10144	
594.96	10633	
595.15	8004.8	
595.34	8602.2	
595.54	10088	
595.73	9375.6	
595.92	7362.4	
596.11	8426.7	
596.3	10513	
596.49	9415.9	
596.68	8161.8	
596.88	8518.2	
597.07	10262	
597.26	9322.4	
597.45	7634.1	
597.64	8758.5	
597.83	9560.6	
598.02	10051	
598.22	7824.6	
598.41	8380.3	
598.6	9878	
598.79	9478.7	
598.98	7927	
599.17	8733.2	
599.36	9959.3	
599.55	10788	
599.74	9667.8	
599.94	9358.5	
600.13	10332	
600.32	9324.4	
600.51	7655.3	
600.7	7721.5	
600.89	10872	
601.08	10819	
601.27	7544	
601.47	8404.9	
601.66	10275	
601.85	10720	
602.04	8262.2	
602.23	8388.5	
602.42	9412.5	
602.61	10036	
602.8	7940.7	
602.99	7840.3	
603.18	9698.5	
603.37	9859.6	
603.57	8390.5	
603.76	8785.8	
603.95	10503	
604.14	10112	
604.33	8011	
604.52	8270.4	
604.71	9846	
604.9	9439.1	
605.09	8892.3	
605.28	8497.7	
605.47	10398	
605.66	10036	
605.86	8469.7	
606.05	7875.1	
606.24	10327	
606.43	9078	
606.62	8227.4	
606.81	8826.7	
607	10231	
607.19	9557.9	
607.38	7684.7	
607.57	7864.9	
607.76	9472.5	
607.95	8959.2	
608.14	8239	
608.33	8630.8	
608.52	9383.8	
608.72	10076	
608.91	7570.7	
609.1	7520.1	
609.29	9459.6	
609.48	9052.7	
609.67	8347.5	
609.86	7511.9	
610.05	9123.7	
610.24	9370.1	
610.43	7422.5	
610.62	7121.5	
610.81	10338	
611	10157	
611.19	7536.5	
611.38	8166.6	
611.57	9612.5	
611.76	10688	
611.95	7407.5	
612.14	7201.3	
612.33	9479.4	
612.52	9007	
612.71	7720.8	
612.9	7047.7	
613.09	8699.8	
613.28	10694	
613.47	7660.1	
613.66	8323.6	
613.85	9582.4	
614.04	9115.5	
614.24	7603.4	
614.43	6923.5	
614.62	9650.7	
614.81	9521	
615	8137.9	
615.19	8110.6	
615.38	9024.7	
615.57	9310.1	
615.76	7937.9	
615.95	8766.7	
616.14	9746.3	
616.33	9373.6	
616.52	8259.5	
616.71	8334.6	
616.9	9608.4	
617.09	9510.1	
617.28	7586.4	
617.47	8705.2	
617.66	8895.7	
617.85	8935.3	
618.04	8444.5	
618.22	7901.7	
618.41	9169.4	
618.6	10006	
618.79	7974.8	
618.98	7653.3	
619.17	10299	
619.36	8819.2	
619.55	7822.6	
619.74	7957.7	
619.93	9650	
620.12	9104.6	
620.31	8352.3	
620.5	8525.7	
620.69	10163	
620.88	10436	
621.07	9036.3	
621.26	8191.2	
621.45	9741.5	
621.64	9827.5	
621.83	8397.4	
622.02	7731.1	
622.21	9828.2	
622.4	9824.1	
622.59	8834.9	
622.78	8668.4	
622.97	9389.3	
623.16	10191	
623.35	8269.7	
623.54	7645.1	
623.72	9543.5	
623.91	9664.4	
624.1	8692.3	
624.29	7589.1	
624.48	10574	
624.67	9910.8	
624.86	8471.1	
625.05	7690.1	
625.24	10650	
625.43	9278	
625.62	9979.1	
625.81	7913.4	
626	10201	
626.19	9592	
626.38	8583	
626.56	8092.9	
626.75	9310.7	
626.94	10043	
627.13	8555	
627.32	7489.4	
627.51	9947	
627.7	10987	
627.89	7372.7	
628.08	8602.8	
628.27	9308.7	
628.46	9420	
628.65	7826	
628.83	7508.5	
629.02	9893.7	
629.21	9280.7	
629.4	8103.8	
629.59	8182.3	
629.78	9195.4	
629.97	10096	
630.16	8353.7	
630.35	8021.9	
630.54	10508	
630.72	10176	
630.91	7967.3	
631.1	8379.6	
631.29	9718.3	
631.48	9794.8	
631.67	8371.4	
631.86	7887.4	
632.05	9482.8	
632.24	9465.7	
632.42	7600	
632.61	8184.4	
632.8	9542.2	
632.99	9092.3	
633.18	8168.7	
633.37	8364.6	
633.56	9684.2	
633.75	9580.4	
633.93	8204.2	
634.12	7889.5	
634.31	10333	
634.5	9955.9	
634.69	7907.9	
634.88	8364.6	
635.07	9508.7	
635.25	10031	
635.44	8764.6	
635.63	8779.6	
635.82	9287.5	
636.01	8890.2	
636.2	8614.4	
636.39	8212.4	
636.57	10395	
636.76	9927.9	
636.95	7716.1	
637.14	8811.7	
637.33	9645.3	
637.52	10401	
637.7	7501	
637.89	8376.2	
638.08	9455.5	
638.27	10563	
638.46	8352.3	
638.65	8808.3	
638.83	10531	
639.02	9226.8	
639.21	8288.1	
639.4	8740.7	
639.59	9536	
639.78	9260.2	
639.96	7648.5	
640.15	7688.1	
640.34	9428.8	
640.53	9430.2	
640.72	7437.5	
640.91	7709.2	
641.09	8945.5	
641.28	10025	
641.47	7662.1	
641.66	8325.7	
641.85	9383.1	
642.03	9674.6	
642.22	8017.1	
642.41	7742.7	
642.6	9039.1	
642.79	8483.4	
642.97	7616.4	
643.16	8069.7	
643.35	8954.4	
643.54	8770.8	
643.73	7502.4	
643.91	8060.1	
644.1	8703.2	
644.29	9232.2	
644.48	7563.1	
644.67	7539.9	
644.85	8757.1	
645.04	9058.2	
645.23	7097.6	
645.42	7379.5	
645.6	8660.2	
645.79	9531.2	
645.98	7217	
646.17	6395.8	
646.36	8250.6	
646.54	8695	
646.73	7847.1	
646.92	6816.3	
647.11	8396.7	
647.29	9267.1	
647.48	6920.8	
647.67	6696.2	
647.86	9472.5	
648.05	9548.3	
648.23	7118.1	
648.42	8180.3	
648.61	8908.7	
648.8	8776.9	
648.98	6851.1	
649.17	7023.2	
649.36	8310.7	
649.55	7982.3	
649.73	6894.1	
649.92	7507.9	
650.11	8337.3	
650.3	8521.6	
650.48	6948.8	
650.67	6740.5	
650.86	8744.1	
651.05	7783	
651.23	6906.4	
651.42	6836.1	
651.61	8281.3	
651.79	8299.7	
651.98	7019.1	
652.17	6621.1	
652.36	8608.3	
652.54	7784.3	
652.73	6765.1	
652.92	6617.7	
653.11	8647.9	
653.29	8757.8	
653.48	6165.1	
653.67	6946.7	
653.85	8392.6	
654.04	9329.2	
654.23	7113.3	
654.42	6758.3	
654.6	7986.4	
654.79	8579.6	
654.98	6153.5	
655.16	6625.2	
655.35	7562.5	
655.54	7514	
655.73	6221	
655.91	6124.8	
656.1	8368	
656.29	7399.3	
656.47	5801.2	
656.66	7177.4	
656.85	7721.5	
657.03	7665.5	
657.22	6296.8	
657.41	6311.8	
657.59	7803.4	
657.78	7616.4	
657.97	6065.4	
658.16	6694.1	
658.34	8404.9	
658.53	8738.7	
658.72	7450.5	
658.9	7867.6	
659.09	8135.9	
659.28	8021.9	
659.46	6546.7	
659.65	6453.1	
659.84	7770.7	
660.02	8227.4	
660.21	6205.3	
660.4	6274.3	
660.58	8595.3	
660.77	8050.6	
660.96	6838.9	
661.14	6081.8	
661.33	8936	
661.52	8953	
661.7	6000.5	
661.89	8982.4	
662.08	7724.9	
662.26	7283.3	
662.45	6250.4	
662.64	6370.5	
662.82	8315.4	
663.01	7587.7	
663.2	6291.4	
663.38	6976.7	
663.57	8183.7	
663.75	8053.3	
663.94	6608.8	
664.13	7643.7	
664.31	7659.4	
664.5	8184.4	
664.69	6878.4	
664.87	7169.3	
665.06	7550.2	
665.25	7995.3	
665.43	7404.8	
665.62	7439.6	
665.8	8400.8	
665.99	7799.3	
666.18	6453.1	
666.36	6569.9	
666.55	8274.5	
666.74	8175.5	
666.92	6239.5	
667.11	7540.6	
667.29	7740.6	
667.48	8196.7	
667.67	7247.1	
667.85	6383.5	
668.04	7693.5	
668.22	7740	
668.41	6503	
668.6	6701.6	
668.78	7598.6	
668.97	7735.2	
669.15	6830.7	
669.34	5990.3	
669.53	7650.5	
669.71	7921.5	
669.9	6101.6	
670.08	6638.8	
670.27	7617.8	
670.46	8023.9	
670.64	6909.8	
670.83	7055.3	
671.01	7421.2	
671.2	7979.6	
671.38	6234.7	
671.57	6085.2	
671.76	8511.4	
671.94	8913.4	
672.13	6003.3	
672.31	6965.1	
672.5	8209.6	
672.69	7486.7	
672.87	6189	
673.06	6509.1	
673.24	7998.7	
673.43	7625.3	
673.61	6889.4	
673.8	6417.7	
673.98	8111.3	
674.17	8241.7	
674.36	6899.6	
674.54	6711.9	
674.73	7907.9	
674.91	8109.3	
675.1	6511.9	
675.28	6175.3	
675.47	7742	
675.65	8144.1	
675.84	6331	
676.03	6640.9	
676.21	7519.5	
676.4	7148.1	
676.58	7027.9	
676.77	6797.9	
676.95	8708	
677.14	7535.2	
677.32	6016.9	
677.51	5977.3	
677.69	8202.1	
677.88	7215	
678.06	6040.1	
678.25	6114.6	
678.44	7735.2	
678.62	7450.5	
678.81	5902.2	
678.99	6726.9	
679.18	8341.4	
679.36	8021.2	
679.55	6331.6	
679.73	6815.6	
679.92	8005.5	
680.1	7564.5	
680.29	7365.2	
680.47	6327.5	
680.66	7419.1	
680.84	8198	
681.03	5743.2	
681.21	6709.8	
681.4	7402	
681.58	7432.8	
681.77	6152.1	
681.95	5984.2	
682.14	8215.1	
682.32	8495	
682.51	6825.2	
682.69	5886.5	
682.88	7381.6	
683.06	7886	
683.25	6642.9	
683.43	6937.2	
683.62	7697.6	
683.8	7942	
683.99	7028.6	
684.17	6483.9	
684.36	8674.5	
684.54	7545.4	
684.73	5790.3	
684.91	5906.3	
685.1	7723.6	
685.28	7273.7	
685.46	6310.5	
685.65	6320.7	
685.83	7806.9	
686.02	7237.5	
686.2	5821	
686.39	5801.2	
686.57	7175.4	
686.76	8300.4	
686.94	5773.2	
687.13	5943.2	
687.31	7653.9	
687.5	7507.9	
687.68	5516.5	
687.86	6518.7	
688.05	8769.4	
688.23	6877.8	
688.42	6542.6	
688.6	5895.4	
688.79	7198.6	
688.97	7191.8	
689.16	6229.9	
689.34	5367	
689.52	7843.7	
689.71	7996.6	
689.89	6521.4	
690.08	5895.4	
690.26	7543.4	
690.45	7344	
690.63	6584.9	
690.81	6051.7	
691	7304.4	
691.18	7249.1	
691.37	6135	
691.55	7978.2	
691.74	7069.6	
691.92	8822.6	
692.1	6109.8	
692.29	5612.8	
692.47	7219.1	
692.66	6742.6	
692.84	5751.4	
693.02	6165.8	
693.21	6808.1	
693.39	7241.6	
693.58	6354.2	
693.76	5839.4	
693.94	8263.6	
694.13	8088.1	
694.31	5838.1	
694.5	6819.7	
694.68	7156.3	
694.86	7405.5	
695.05	6138.4	
695.23	6253.1	
695.42	7778.2	
695.6	9733.3	
695.78	6767.9	
695.97	5954.8	
696.15	7853.3	
696.34	7312.6	
696.52	5769.8	
696.7	6489.3	
696.89	7643.7	
697.07	7095.5	
697.25	6347.3	
697.44	7576.1	
697.62	7531.7	
697.81	7808.2	
697.99	6078.4	
698.17	6457.2	
698.36	6928.3	
698.54	7558.4	
698.72	6404	
698.91	5433.9	
699.09	7245	
699.28	7024.5	
699.46	6059.9	
699.64	5904.3	
699.83	6950.1	
700.01	7886	
700.19	6581.5	
700.38	5276.3	
700.56	8026.7	
700.74	7060	
700.93	5543.2	
701.11	6255.9	
701.29	7552.9	
701.48	8442.4	
701.66	5731.6	
701.84	5859.2	
702.03	7195.9	
702.21	7778.9	
702.39	5476.3	
702.58	5965.7	
702.76	7570	
702.94	7659.4	
703.13	5482.4	
703.31	7486.7	
703.49	6974	
703.68	7825.3	
703.86	5666	
704.04	6425.8	
704.23	7342.7	
704.41	7667.6	
704.59	5752.1	
704.78	6724.2	
704.96	8350.3	
705.14	7707.2	
705.33	5575.9	
705.51	6282.5	
705.69	7218.4	
705.87	7875.1	
706.06	6498.2	
706.24	5550.7	
706.42	7496.2	
706.61	7699	
706.79	6526.2	
706.97	5520.6	
707.16	6984.3	
707.34	7391.1	
707.52	6385.6	
707.7	5672.9	
707.89	7049.8	
708.07	6761	
708.25	6379.4	
708.44	6516.6	
708.62	7008.8	
708.8	7989.1	
708.98	6640.2	
709.17	5720.7	
709.35	7326.3	
709.53	7406.1	
709.72	5509	
709.9	5855.1	
710.08	7499	
710.26	7611.6	
710.45	6881.9	
710.63	5769.8	
710.81	7204.1	
710.99	7266.9	
711.18	6209.4	
711.36	5806.7	
711.54	7120.1	
711.72	7703.1	
711.91	5828.5	
712.09	5386.2	
712.27	7213.6	
712.45	7628	
712.64	5973.9	
712.82	5210	
713	6677.7	
713.18	6884.6	
713.37	5380	
713.55	6330.3	
713.73	7593.9	
713.91	6353.5	
714.1	5552	
714.28	5121.3	
714.46	7124.9	
714.64	6467.5	
714.83	4569	
715.01	5253.7	
715.19	6468.9	
715.37	5853.8	
715.55	4872.8	
715.74	5118.6	
715.92	7109.2	
716.1	5427.1	
716.28	5971.2	
716.47	5190.9	
716.65	6072.9	
716.83	6102.3	
717.01	5038	
717.19	5071.5	
717.38	7709.9	
717.56	5751.4	
717.74	5286.5	
717.92	4484.4	
718.1	6807.4	
718.29	6161	
718.47	4169.7	
718.65	4812.7	
718.83	6776	
719.01	6752.8	
719.2	4156	
719.38	5147.2	
719.56	6479.8	
719.74	7890.1	
719.92	4780	
720.11	5750.7	
720.29	6614.3	
720.47	5852.4	
720.65	4437.9	
720.83	5149.3	
721.02	6085.9	
721.2	5860.6	
721.38	5108.3	
721.56	4474.1	
721.74	5329.5	
721.92	5558.2	
722.11	5477.6	
722.29	5210	
722.47	6601.3	
722.65	5902.2	
722.83	4440	
723.01	5266	
723.2	6011.5	
723.38	6212.9	
723.56	3969	
723.74	5035.3	
723.92	5582.8	
724.1	6485.2	
724.29	4375.1	
724.47	5332.9	
724.65	5626.5	
724.83	5485.1	
725.01	4292.5	
725.19	4955.4	
725.37	5528.8	
725.56	5661.3	
725.74	4192.9	
725.92	4375.1	
726.1	5558.9	
726.28	5817.6	
726.46	4745.8	
726.64	4481.6	
726.83	5774.6	
727.01	5960.3	
727.19	4139.6	
727.37	4808.6	
727.55	5878.4	
727.73	6305	
727.91	4134.8	
728.09	3949.8	
728.28	6355.5	
728.46	6643.6	
728.64	4879.6	
728.82	4840.7	
729	7180.9	
729.18	6565.1	
729.36	4136.9	
729.54	6171.2	
729.72	7346.1	
729.91	6014.9	
730.09	5799.8	
730.27	4838.7	
730.45	5867.4	
730.63	6395.8	
730.81	5328.8	
730.99	4426.3	
731.17	6946	
731.35	5681.1	
731.53	4945.2	
731.71	4620.9	
731.9	6632.7	
732.08	6806.8	
732.26	4895.3	
732.44	4530.1	
732.62	6812.2	
732.8	6323.4	
732.98	5190.9	
733.16	4379.2	
733.34	6417	
733.52	5289.9	
733.7	4758.8	
733.88	4952	
734.07	6222.4	
734.25	5997.1	
734.43	4308.2	
734.61	5687.2	
734.79	7287.4	
734.97	5930.2	
735.15	4409.3	
735.33	4698	
735.51	6193.1	
735.69	5892.7	
735.87	5603.2	
736.05	4832.5	
736.23	6100.2	
736.41	5786.9	
736.59	4737	
736.77	4814.1	
736.95	6372.6	
737.13	5902.2	
737.32	4460.5	
737.5	4609.3	
737.68	6944	
737.86	5820.3	
738.04	4272.7	
738.22	5771.2	
738.4	5597.1	
738.58	5947.3	
738.76	4749.9	
738.94	3880.2	
739.12	5743.2	
739.3	5655.1	
739.48	5323.4	
739.66	5042.8	
739.84	5941.2	
740.02	5969.1	
740.2	3919.1	
740.38	4204.5	
740.56	6282.5	
740.74	5225.1	
740.92	4824.3	
741.1	4668	
741.28	5750.7	
741.46	5594.4	
741.64	4345.1	
741.82	4863.9	
742	5816.2	
742.18	5761.6	
742.36	4577.2	
742.54	4222.2	
742.72	6287.9	
742.9	5223.7	
743.08	4878.3	
743.26	3833.1	
743.44	6399.9	
743.62	6294.8	
743.8	5059.2	
743.98	4168.3	
744.16	6057.2	
744.34	5784.8	
744.52	4889.2	
744.7	4884.4	
744.88	6169.8	
745.06	5722.7	
745.24	4962.2	
745.42	4987.5	
745.6	6236.1	
745.78	6066.8	
745.96	3934.1	
746.14	4212.7	
746.32	6866.2	
746.5	6154.8	
746.68	4633.2	
746.86	4207.2	
747.03	6474.3	
747.21	5124.7	
747.39	4685.8	
747.57	4229.7	
747.75	5874.9	
747.93	6217.6	
748.11	4202.4	
748.29	4080.9	
748.47	7198.6	
748.65	5631.9	
748.83	4773.8	
749.01	4610	
749.19	6038.8	
749.37	5314.5	
749.55	4496.7	
749.73	4557.4	
749.91	5775.3	
750.09	5550.7	
750.26	4533.5	
750.44	4029	
750.62	5838.8	
750.8	5693.4	
750.98	3930.1	
751.16	4250.9	
751.34	5790.3	
751.52	5203.2	
751.7	4874.2	
751.88	3827	
752.06	6249	
752.24	5954.8	
752.42	3880.2	
752.59	4172.4	
752.77	5633.3	
752.95	6801.3	
753.13	4802.5	
753.31	4230.4	
753.49	5399.8	
753.67	5828.5	
753.85	4494.6	
754.03	4199.7	
754.21	6049.7	
754.38	6347.3	
754.56	4345.1	
754.74	3521.1	
754.92	5365.7	
755.1	6005.3	
755.28	3568.9	
755.46	3500.7	
755.64	6670.9	
755.82	6771.3	
755.99	3829	
756.17	3920.5	
756.35	4665.3	
756.53	5946.6	
756.71	2900.6	
756.89	3768.3	
757.07	5537	
757.25	4847.5	
757.42	4182.6	
757.6	4942.4	
757.78	5659.9	
757.96	4715.8	
758.14	3949.2	
758.32	3471.3	
758.5	4377.9	
758.67	5143.1	
758.85	3777.1	
759.03	3851.5	
759.21	5280.3	
759.39	4782	
759.57	3416.7	
759.75	4402.5	
759.92	5847.6	
760.1	5248.9	
760.28	4679.6	
760.46	4883.7	
760.64	5014.1	
760.82	4807.3	
760.99	4366.3	
761.17	3813.3	
761.35	5681.7	
761.53	4801.1	
761.71	3932.1	
761.89	4483	
762.06	5594.4	
762.24	5162.2	
762.42	4053.6	
762.6	3837.9	
762.78	5145.2	
762.96	5663.3	
763.13	4336.9	
763.31	4024.3	
763.49	5831.9	
763.67	5057.8	
763.85	4730.8	
764.02	5228.5	
764.2	6057.9	
764.38	5325.4	
764.56	3951.9	
764.74	4634.6	
764.91	6077	
765.09	5133.6	
765.27	3685.7	
765.45	3501.3	
765.63	6169.2	
765.8	6012.2	
765.98	3302	
766.16	3607.8	
766.34	4842.1	
766.52	4658.4	
766.69	4366.3	
766.87	3409.9	
767.05	5173.9	
767.23	5815.5	
767.41	3724.6	
767.58	3878.2	
767.76	5675.6	
767.94	5762.3	
768.12	3775.8	
768.29	4401.8	
768.47	5195.7	
768.65	5890	
768.83	3445.4	
769	4470.7	
769.18	4862.6	
769.36	5448.3	
769.54	4363.5	
769.72	3430.3	
769.89	5757.5	
770.07	5803.9	
770.25	3768.3	
770.43	4870.8	
770.6	6363.7	
770.78	6746	
770.96	3955.3	
771.14	4531.5	
771.31	5643.5	
771.49	5055.8	
771.67	3191.4	
771.85	3424.9	
772.02	4496.7	
772.2	5123.3	
772.38	4002.4	
772.55	3586	
772.73	5371.1	
772.91	5167.7	
773.09	3991.5	
773.26	4092.5	
773.44	5369.1	
773.62	5005.9	
773.8	3546.4	
773.97	3345	
774.15	5384.8	
774.33	5045.5	
774.5	3478.8	
774.68	3739.6	
774.86	5539.1	
775.04	5042.8	
775.21	3558	
775.39	3511.6	
775.57	5347.9	
775.74	5549.3	
775.92	3360	
776.1	3296.5	
776.27	5263.3	
776.45	6287.3	
776.63	3500.7	
776.81	3136.8	
776.98	4943.1	
777.16	5882.4	
777.34	3652.2	
777.51	3928.7	
777.69	4928.1	
777.87	4747.2	
778.04	3686.3	
778.22	4247.5	
778.4	4819.6	
778.57	5329.5	
778.75	3087.7	
778.93	3323.9	
779.1	4648.9	
779.28	4482.3	
779.46	2996.9	
779.64	3486.3	
779.81	5489.9	
779.99	6227.2	
780.17	4156	
780.34	4321.2	
780.52	5065.3	
780.69	5193	
780.87	3804.4	
781.05	3450.8	
781.22	5066	
781.4	5139.7	
781.58	3546.4	
781.75	2808.4	
781.93	5181.4	
782.11	4670.7	
782.28	4277.5	
782.46	3549.8	
782.64	4481	
782.81	5231.9	
782.99	3603.1	
783.17	3577.1	
783.34	5178.6	
783.52	4543.8	
783.69	3732.1	
783.87	4441.4	
784.05	4620.2	
784.22	4599.1	
784.4	4448.9	
784.58	3857.7	
784.75	5462.6	
784.93	4657.1	
785.1	3599	
785.28	4077.5	
785.46	5210	
785.63	4608.6	
785.81	3567.6	
785.99	3408.5	
786.16	4803.9	
786.34	5046.2	
786.51	3428.3	
786.69	3836.5	
786.87	4371.7	
787.04	4771.1	
787.22	3374.4	
787.39	4107.5	
787.57	4663.9	
787.75	5565	
787.92	4329.4	
788.1	4241.3	
788.27	4727.4	
788.45	4420.2	
788.63	3944.4	
788.8	2934.7	
788.98	5024.3	
789.15	4392.2	
789.33	2988	
789.5	3547.8	
789.68	5388.2	
789.86	5497.4	
790.03	3898	
790.21	3452.2	
790.38	5466	
790.56	4747.9	
790.73	3339.6	
790.91	3339.6	
791.09	4657.8	
791.26	5287.9	
791.44	3636.5	
791.61	3059	
791.79	4623.6	
791.96	4679.6	
792.14	3205.8	
792.32	2826.2	
792.49	4646.2	
792.67	4773.1	
792.84	3227.6	
793.02	3102.7	
793.19	5036.6	
793.37	5645.6	
793.54	2855.6	
793.72	3148.4	
793.89	5679	
794.07	4624.3	
794.25	3594.2	
794.42	2904.7	
794.6	5520	
794.77	5222.3	
794.95	3865.2	
795.12	3363.4	
795.3	4645.5	
795.47	5159.5	
795.65	3776.5	
795.82	3571	
796	4487.8	
796.17	6044.2	
796.35	3492.5	
796.52	4104.8	
796.7	5091.3	
796.87	5188.2	
797.05	3470.6	
797.22	4250.2	
797.4	5154.7	
797.57	6062.7	
797.75	3607.8	
797.92	3395.5	
798.1	5470.8	
798.27	4570.4	
798.45	2968.9	
798.62	3177.8	
798.8	4857.8	
798.97	5340.4	
799.15	3768.9	
799.32	3591.5	
799.5	4279.6	
799.67	4930.8	
799.85	3928	
800.02	2820.1	
800.2	4640	
800.37	4866.7	
800.55	4050.9	
800.72	3415.3	
800.9	5276.3	
801.07	5634	
801.25	4501.4	
801.42	3702	
801.6	5337.7	
801.77	5025.7	
801.95	3492.5	
802.12	3353.9	
802.29	5077.6	
802.47	5032.5	
802.64	3683.6	
802.82	2839.8	
802.99	4606.6	
803.17	5487.2	
803.34	3622.2	
803.52	3293.1	
803.69	5988.9	
803.87	4425	
804.04	3614.7	
804.21	3689.8	
804.39	5626.5	
804.56	4780	
804.74	3110.2	
804.91	3753.9	
805.09	4620.9	
805.26	4722.6	
805.44	3130.7	
805.61	3431.7	
805.78	5216.9	
805.96	5220.3	
806.13	3760.1	
806.31	3992.2	
806.48	4225	
806.66	4674.8	
806.83	3745.7	
807	3654.3	
807.18	4606.6	
807.35	4964.3	
807.53	3596.9	
807.7	2919	
807.87	5618.3	
808.05	4670.1	
808.22	4009.9	
808.4	2919	
808.57	4646.8	
808.74	4315.1	
808.92	3369.6	
809.09	4195.6	
809.27	4655	
809.44	5123.3	
809.61	2966.8	
809.79	3288.4	
809.96	5705.6	
810.14	5248.9	
810.31	2875.3	
810.48	3565.5	
810.66	4693.9	
810.83	5352	
811.01	3387.3	
811.18	3685	
811.35	5298.1	
811.53	4154	
811.7	4019.5	
811.87	3762.1	
812.05	4692.6	
812.22	4620.2	
812.39	3250.1	
812.57	3158	
812.74	4696	
812.92	6072.2	
813.09	3466.5	
813.26	3773	
813.44	5907.7	
813.61	4659.8	
813.78	2912.9	
813.96	3900.7	
814.13	4710.3	
814.3	4425.7	
814.48	4182.6	
814.65	3492.5	
814.82	5864.7	
815	4432.5	
815.17	3580.5	
815.34	4339	
815.52	4549.9	
815.69	4619.5	
815.87	3567.6	
816.04	3548.4	
816.21	4687.8	
816.38	4179.9	
816.56	3437.2	
816.73	3265.1	
816.9	5846.3	
817.08	5324	
817.25	3320.4	
817.42	4095.9	
817.6	4334.9	
817.77	4644.8	
817.94	3702.7	
818.12	3238.5	
818.29	4502.1	
818.46	6688.7	
818.64	3392.1	
818.81	3147.7	
818.98	4369	
819.16	6217.6	
819.33	3829	
819.5	3579.2	
819.67	5024.3	
819.85	5502.9	
820.02	3549.1	
820.19	3772.4	
820.37	4839.4	
820.54	4595	
820.71	3590.8	
820.88	4548.5	
821.06	4857.1	
821.23	4468	
821.4	3659	
821.58	3652.2	
821.75	5264	
821.92	4841.4	
822.09	2928.6	
822.27	3201.7	
822.44	4677.6	
822.61	4572.4	
822.79	2960	
822.96	5509	
823.13	5001.1	
823.3	4407.2	
823.48	3407.8	
823.65	3110.2	
823.82	5300.8	
823.99	4326.7	
824.17	4390.8	
824.34	3119.7	
824.51	5993.7	
824.68	4716.5	
824.86	3305.4	
825.03	3663.1	
825.2	4698	
825.37	5625.8	
825.55	3259	
825.72	3575.1	
825.89	6083.8	
826.06	5664.7	
826.24	3525.9	
826.41	3525.2	
826.58	5616.2	
826.75	4930.8	
826.92	2857.6	
827.1	3074.7	
827.27	7499	
827.44	6007.4	
827.61	3293.8	
827.79	4035.9	
827.96	4475.5	
828.13	4696.7	
828.3	3480.2	
828.47	2959.3	
828.65	4878.3	
828.82	4850.3	
828.99	4360.1	
829.16	3878.2	
829.34	5198.4	
829.51	5066.7	
829.68	3583.9	
829.85	3747.1	
830.02	5529.5	
830.2	5302.9	
830.37	2805	
830.54	4325.3	
830.71	5917.9	
830.88	4723.3	
831.05	2789.3	
831.23	3316.3	
831.4	5683.1	
831.57	6236.1	
831.74	3332	
831.91	2958.6	
832.09	4977.9	
832.26	5256.5	
832.43	3467.9	
832.6	3832.4	
832.77	4922.6	
832.94	5592.3	
833.12	2794.1	
833.29	3390.1	
833.46	5072.8	
833.63	6455.2	
833.8	3725.9	
833.97	3506.1	
834.15	5251	
834.32	5111	
834.49	3578.5	
834.66	3672.7	
834.83	5338.4	
835	4505.5	
835.17	3323.2	
835.35	3343.7	
835.52	5158.8	
835.69	5074.9	
835.86	3439.2	
836.03	2889.7	
836.2	5228.5	
836.37	4918.5	
836.55	3421.5	
836.72	3221.5	
836.89	4885.8	
837.06	5353.4	
837.23	3530.7	
837.4	3744.4	
837.57	5902.9	
837.75	6437.4	
837.92	3115.6	
838.09	3349.8	
838.26	4866.7	
838.43	5443.5	
838.6	3624.2	
838.77	3246	
838.94	6134.3	
839.11	5915.2	
839.29	3457.7	
839.46	2750.4	
839.63	5205.3	
839.8	4975.2	
839.97	3365.5	
840.14	3288.4	
840.31	5070.8	
840.48	5257.1	
840.65	2833	
840.82	3276.8	
841	5167	
841.17	5165	
841.34	3158	
841.51	3153.9	
841.68	5130.8	
841.85	4980.7	
842.02	3222.1	
842.19	2702	
842.36	5003.2	
842.53	5002.5	
842.7	3099.9	
842.87	3758	
843.05	6465.4	
843.22	4933.6	
843.39	2943.6	
843.56	3160.7	
843.73	4756.7	
843.9	5298.1	
844.07	4913.8	
844.24	4121.9	
844.41	7372	
844.58	4579.9	
844.75	2970.9	
844.92	3216.7	
845.09	5187.5	
845.26	5185.5	
845.43	3041.9	
845.6	3309.5	
845.77	5222.3	
845.94	5008	
846.12	3387.3	
846.29	3622.2	
846.46	5417.6	
846.63	5201.2	
846.8	3077.4	
846.97	3599	
847.14	5600.5	
847.31	5132.2	
847.48	3455.6	
847.65	3775.1	
847.82	5411.4	
847.99	5393	
848.16	4031.1	
848.33	3798.3	
848.5	4838	
848.67	5605.3	
848.84	3066.5	
849.01	3181.9	
849.18	4719.9	
849.35	4418.2	
849.52	3758.7	
849.69	2982.5	
849.86	5399.1	
850.03	5552	
850.2	3066.5	
850.37	3685.7	
850.54	5477	
850.71	4906.9	
850.88	3652.9	
851.05	2990	
851.22	5134.3	
851.39	5664.7	
851.56	2882.2	
851.73	3566.9	
851.9	4612	
852.07	5391.6	
852.24	3433.1	
852.41	3031	
852.58	5071.5	
852.75	4701.5	
852.92	3414.6	
853.09	3064.4	
853.26	4852.3	
853.43	5570.5	
853.6	3053.5	
853.77	2648.7	
853.94	5679.7	
854.11	5119.9	
854.28	4414.7	
854.44	3338.2	
854.61	5984.2	
854.78	5444.2	
854.95	3036.5	
855.12	3761.4	
855.29	4258.4	
855.46	5720.7	
855.63	3069.9	
855.8	4203.8	
855.97	4805.9	
856.14	5558.2	
856.31	4331.5	
856.48	3336.1	
856.65	4832.5	
856.82	4595.6	
856.99	2893.8	
857.16	3300	
857.33	6270.9	
857.49	4889.2	
857.66	3330.7	
857.83	3558.7	
858	4891.9	
858.17	5076.9	
858.34	2907.4	
858.51	3044.6	
858.68	5698.1	
858.85	5767.1	
859.02	3541.6	
859.19	3697.9	
859.36	4616.8	
859.52	4620.9	
859.69	3125.9	
859.86	3573.7	
860.03	4670.1	
860.2	5664	
860.37	2794.1	
860.54	3099.3	
860.71	5342.5	
860.88	5722	
861.05	3478.8	
861.21	3864.5	
861.38	5773.9	
861.55	4531.5	
861.72	2759.3	
861.89	3431	
862.06	5448.3	
862.23	5846.3	
862.4	2989.4	
862.56	3161.4	
862.73	5253	
862.9	5018.2	
863.07	3611.9	
863.24	2787.3	
863.41	4530.1	
863.58	4612.7	
863.75	3105.4	
863.91	3538.2	
864.08	5645.6	
864.25	5375.2	
864.42	3841.3	
864.59	4243.4	
864.76	5976.7	
864.93	4625.7	
865.09	2937.5	
865.26	3254.2	
865.43	5558.2	
865.6	5899.5	
865.77	2693.8	
865.94	3098.6	
866.1	5646.9	
866.27	5389.6	
866.44	4552.6	
866.61	2906.1	
866.78	4949.9	
866.95	5281	
867.11	2953.9	
867.28	2740.9	
867.45	5500.8	
867.62	4561.5	
867.79	3616	
867.96	3072	
868.12	4564.9	
868.29	5444.2	
868.46	2678.7	
868.63	4054.3	
868.8	5505.6	
868.97	5340.4	
869.13	3172.3	
869.3	3197.6	
869.47	5270.8	
869.64	5437.4	
869.81	3102	
869.97	3051.5	
870.14	5131.5	
870.31	5751.4	
870.48	2992.1	
870.65	3789.4	
870.81	4954	
870.98	4939	
871.15	3496.6	
871.32	3194.1	
871.48	5270.1	
871.65	5821.7	
871.82	3033	
871.99	3319.1	
872.16	6148	
872.32	5591	
872.49	3093.8	
872.66	3087	
872.83	5429.2	
872.99	4759.5	
873.16	3542.3	
873.33	3076.7	
873.5	5086.5	
873.67	5089.9	
873.83	3225.6	
874	4108.2	
874.17	5202.5	
874.34	5993	
874.5	3977.8	
874.67	3737.5	
874.84	5758.9	
875.01	4554	
875.17	4253.6	
875.34	3048.7	
875.51	5156.1	
875.68	6085.9	
875.84	3674.1	
876.01	4392.9	
876.18	5361.6	
876.34	5267.4	
876.51	3070.6	
876.68	2983.9	
876.85	4887.8	
877.01	5579.3	
877.18	4253.6	
877.35	3020.1	
877.52	5033.9	
877.68	4591.5	
877.85	3004.4	
878.02	3041.9	
878.18	4945.2	
878.35	4748.6	
878.52	2476.7	
878.69	3427.6	
878.85	5420.3	
879.02	5307.7	
879.19	4326.7	
879.35	3299.3	
879.52	5366.4	
879.69	5464	
879.86	2653.5	
880.02	3457.7	
880.19	5036	
880.36	6009.4	
880.52	3468.6	
880.69	3601.7	
880.86	5403.9	
881.02	5496.7	
881.19	3346.4	
881.36	3291.8	
881.52	5339.1	
881.69	4803.2	
881.86	3280.8	
882.02	3280.2	
882.19	5528.8	
882.36	6436.1	
882.52	3132.7	
882.69	4258.4	
882.86	5139.7	
883.02	5074.9	
883.19	3672.7	
883.36	3526.6	
883.52	5492.7	
883.69	6131.6	
883.86	3050.8	
884.02	2803.7	
884.19	5397.1	
884.36	5008.6	
884.52	3444	
884.69	3220.8	
884.86	4804.5	
885.02	5901.6	
885.19	3399.6	
885.36	3508.9	
885.52	4950.6	
885.69	5160.2	
885.86	4391.5	
886.02	3870.7	
886.19	5421	
886.35	4916.5	
886.52	3377.1	
886.69	4223.6	
886.85	4602.5	
887.02	5741.8	
887.19	5741.8	
887.35	5741.8	
887.52	5741.8	
887.68	5741.8	
887.85	5741.8	
888.02	5741.8	
888.18	5741.8	
888.35	5741.8	
888.51	5741.8	
888.68	5741.8	
888.85	5741.8	
889.01	5741.8	
889.18	5741.8	
889.35	5741.8	
889.51	5741.8	
889.68	5741.8	
889.84	5741.8	
890.01	5741.8	
890.17	5741.8	
890.34	5741.8	
890.51	5741.8	
890.67	5741.8	
890.84	5741.8	
891	5741.8	
891.17	5741.8	
891.34	5741.8	
891.5	5741.8	
891.67	5741.8	
891.83	5741.8	
892	5741.8	
892.16	5741.8	
892.33	5741.8	
892.5	5741.8	
892.66	5741.8	
892.83	5741.8	
892.99	5741.8	
893.16	5741.8	
893.32	5741.8	
893.49	5741.8	
893.65	5741.8	
893.82	5741.8	
893.99	5741.8	
894.15	5741.8	
894.32	5741.8	
894.48	5741.8	
894.65	5741.8	
894.81	5741.8	
894.98	5741.8	
895.14	5741.8	
895.31	5741.8	
895.47	5741.8	
895.64	5741.8	
895.81	5741.8	
895.97	5741.8	
896.14	5741.8	
896.3	5741.8	
896.47	5741.8	
896.63	5741.8	
896.8	5741.8	
896.96	5741.8	
897.13	5741.8	
897.29	5741.8	
897.46	5741.8	
897.62	5741.8	
897.79	5741.8	
897.95	5741.8	
898.12	5741.8	
898.28	5741.8	
898.45	5741.8	
898.61	5741.8	
898.78	5741.8	
898.94	5741.8	
899.11	5741.8	
899.27	5741.8	
899.44	5741.8	
899.6	5741.8	
899.77	5741.8	
899.93	5741.8	
900.1	5741.8	
900.26	5741.8	
900.43	5741.8	
900.59	5741.8	
900.76	5741.8	
900.92	5741.8	
901.09	5741.8	
901.25	5741.8	
901.42	5741.8	
901.58	5741.8	
901.75	5741.8	
901.91	5741.8	
902.07	5741.8	
902.24	5741.8	
902.4	5741.8	
902.57	5741.8	
902.73	5741.8	
902.9	5741.8	
903.06	5741.8	
903.23	5741.8	
903.39	5741.8	
903.56	5741.8	
903.72	5741.8	
903.88	5741.8	
904.05	5741.8	
904.21	5741.8	
904.38	5741.8	
904.54	5741.8	
904.71	5741.8	
904.87	5741.8	
905.03	5741.8	
905.2	5741.8	
905.36	5741.8	
905.53	5741.8	
905.69	5741.8	
905.86	5741.8	
906.02	5741.8	
906.18	5741.8	
906.35	5741.8	
906.51	5741.8	
906.68	5741.8	
906.84	5741.8	
907.01	5741.8	
907.17	5741.8	
907.33	5741.8	
907.5	5741.8	
907.66	5741.8	
907.83	5741.8	
907.99	5741.8	
908.15	5741.8	
908.32	5741.8	
908.48	5741.8	
908.65	5741.8	
908.81	5741.8	
908.97	5741.8	
909.14	5741.8	
909.3	5741.8	
909.47	5741.8	
909.63	5741.8	
909.79	5741.8	
909.96	5741.8	
910.12	5741.8	
910.28	5741.8	
910.45	5741.8	
910.61	5741.8	
910.78	5741.8	
910.94	5741.8	
911.1	5741.8	
911.27	5741.8	
911.43	5741.8	
911.59	5741.8	
911.76	5741.8	
911.92	5741.8	
912.08	5741.8	
912.25	5741.8	
912.41	5741.8	
912.57	5741.8	
912.74	5741.8	
912.9	5741.8	
913.07	5741.8	
913.23	5741.8	
913.39	5741.8	
913.56	5741.8	
913.72	5741.8	
913.88	5741.8	
914.05	5741.8	
914.21	5741.8	
914.37	5741.8	
914.54	5741.8	
914.7	5741.8	
914.86	5741.8	
915.03	5741.8	
915.19	5741.8	
