Wavelength	Intensities	
nm	a.u.	
179.22	1950.5	
179.44	1955.5	
179.65	1945.6	
179.86	1965.4	
180.08	1935.3	
180.29	5064.6	
180.51	3641.3	
180.72	5740.5	
180.94	6858.6	
181.15	3288.4	
181.37	3287	
181.58	5601.2	
181.79	5881.8	
182.01	3491.1	
182.22	3762.1	
182.44	5866.1	
182.65	4913.1	
182.87	4727.4	
183.08	4173.8	
183.29	6266.8	
183.51	5132.9	
183.72	3794.2	
183.94	5575.9	
184.15	5533.6	
184.37	5544.5	
184.58	3302	
184.79	4576.5	
185.01	5134.3	
185.22	5896.1	
185.44	4857.1	
185.65	4050.2	
185.86	5375.2	
186.08	4994.3	
186.29	3150.5	
186.51	3483.6	
186.72	5106.3	
186.94	6095.4	
187.15	4036.5	
187.36	4218.1	
187.58	7969.3	
187.79	5653.1	
188.01	4334.9	
188.22	6879.8	
188.43	6808.8	
188.65	5923.4	
188.86	3442.6	
189.08	4160.1	
189.29	5348.6	
189.5	5333.6	
189.72	3846.8	
189.93	3968.3	
190.15	6116.6	
190.36	7390.4	
190.57	4249.5	
190.79	4137.6	
191	6201.9	
191.22	6214.2	
191.43	4184	
191.64	3446	
191.86	6422.4	
192.07	6166.4	
192.29	3583.9	
192.5	3879.5	
192.71	6154.8	
192.93	5211.4	
193.14	3831.7	
193.35	3882.9	
193.57	5258.5	
193.78	6080.4	
194	3097.2	
194.21	3753.9	
194.42	5026.4	
194.64	5598.5	
194.85	4126	
195.07	4887.1	
195.28	5667.4	
195.49	4818.9	
195.71	5187.5	
195.92	3562.8	
196.13	5683.8	
196.35	5945.3	
196.56	5463.3	
196.78	4138.9	
196.99	7239.6	
197.2	6770.6	
197.42	4771.1	
197.63	4225	
197.84	4944.5	
198.06	5770.5	
198.27	3871.3	
198.48	5189.6	
198.7	5317.2	
198.91	5412.1	
199.13	4185.4	
199.34	4242.7	
199.55	6006	
199.77	4790.2	
199.98	3671.3	
200.19	4246.1	
200.41	5378.6	
200.62	5110.4	
200.83	4386.7	
201.05	4737	
201.26	5370.5	
201.47	5160.2	
201.69	3762.1	
201.9	3537.5	
202.11	5481.7	
202.33	6558.3	
202.54	3975.1	
202.76	4487.8	
202.97	5620.3	
203.18	5588.9	
203.4	4404.5	
203.61	4241.3	
203.82	5589.6	
204.04	5163.6	
204.25	4232.5	
204.46	4169	
204.68	5576.6	
204.89	5781.4	
205.1	4169	
205.32	3562.8	
205.53	5984.2	
205.74	6092.7	
205.96	2983.2	
206.17	4328	
206.38	5939.1	
206.6	6120	
206.81	4845.5	
207.02	3917.1	
207.24	5797.1	
207.45	6262	
207.66	3990.1	
207.88	3411.9	
208.09	5738.4	
208.3	5515.2	
208.52	3661.1	
208.73	4057	
208.94	5482.4	
209.15	6290.7	
209.37	4024.9	
209.58	4235.9	
209.79	6057.2	
210.01	5358.9	
210.22	3183.2	
210.43	3337.5	
210.65	5597.8	
210.86	5978	
211.07	4018.1	
211.29	3721.8	
211.5	5950	
211.71	5446.9	
211.93	3606.5	
212.14	3637.9	
212.35	5444.9	
212.56	5752.1	
212.78	4237.9	
212.99	3469.9	
213.2	6560.3	
213.42	5264	
213.63	3831.7	
213.84	4121.9	
214.06	4870.8	
214.27	4960.2	
214.48	4005.1	
214.69	4278.9	
214.91	6233.3	
215.12	6364.4	
215.33	4368.3	
215.55	4802.5	
215.76	6839.5	
215.97	5902.2	
216.18	4209.9	
216.4	4061.1	
216.61	5194.3	
216.82	6097.5	
217.04	3667.2	
217.25	3804.4	
217.46	6225.8	
217.67	5979.4	
217.89	3308.2	
218.1	3418.1	
218.31	5702.2	
218.53	5769.1	
218.74	3885.7	
218.95	3744.4	
219.16	5465.3	
219.38	6493.4	
219.59	3754.6	
219.8	4503.5	
220.01	7244.3	
220.23	5571.8	
220.44	4933.6	
220.65	3659.7	
220.87	5624.4	
221.08	6214.2	
221.29	3411.9	
221.5	4657.8	
221.72	7625.3	
221.93	5255.1	
222.14	4270	
222.35	5040.7	
222.57	5599.1	
222.78	5937.7	
222.99	3971.7	
223.2	4326	
223.42	5926.1	
223.63	6019	
223.84	3084.2	
224.05	3039.9	
224.27	7163.8	
224.48	6481.8	
224.69	4990.2	
224.9	4204.5	
225.12	5711.1	
225.33	5529.5	
225.54	3358.7	
225.75	3744.4	
225.97	5121.3	
226.18	5356.8	
226.39	4083.6	
226.6	3766.2	
226.82	5246.9	
227.03	5186.8	
227.24	4261.8	
227.45	3454.2	
227.67	5935.7	
227.88	6592.4	
228.09	4748.6	
228.3	4729.4	
228.52	5999.2	
228.73	5547.3	
228.94	3919.8	
229.15	3490.4	
229.36	5433.9	
229.58	5332.9	
229.79	3904.8	
230	4590.9	
230.21	6660.7	
230.43	5605.3	
230.64	4166.3	
230.85	4359.4	
231.06	5945.3	
231.28	5998.5	
231.49	3489.7	
231.7	4115.7	
231.91	5921.4	
232.12	5543.9	
232.34	3533.4	
232.55	4088.4	
232.76	6213.5	
232.97	5757.5	
233.18	3706.1	
233.4	4158.1	
233.61	5812.8	
233.82	5270.1	
234.03	3898.6	
234.25	3829.7	
234.46	7767.3	
234.67	5553.4	
234.88	4333.5	
235.09	3718.4	
235.31	5913.2	
235.52	5461.2	
235.73	4188.8	
235.94	3461.1	
236.15	5290.6	
236.37	6779.5	
236.58	3685	
236.79	4034.5	
237	5911.1	
237.21	5055.1	
237.43	4355.3	
237.64	3435.8	
237.85	10269	
238.06	5091.3	
238.27	4427	
238.48	3500	
238.7	5964.4	
238.91	5362.9	
239.12	3972.4	
239.33	4055	
239.54	5114.5	
239.76	5458.5	
239.97	3991.5	
240.18	4079.6	
240.39	6920.8	
240.6	5829.2	
240.82	4147.8	
241.03	3424.2	
241.24	5583.4	
241.45	6461.3	
241.66	3686.3	
241.87	4335.5	
242.09	6336.4	
242.3	6685.3	
242.51	4412.7	
242.72	4063.9	
242.93	6029.2	
243.14	5502.2	
243.36	4682.3	
243.57	5029.1	
243.78	6441.5	
243.99	6004	
244.2	4068.6	
244.41	3642	
244.63	5073.5	
244.84	5902.9	
245.05	4332.1	
245.26	4014	
245.47	5803.3	
245.68	6150.7	
245.9	5376.6	
246.11	4212.7	
246.32	5396.4	
246.53	5784.1	
246.74	6590.4	
246.95	3392.8	
247.16	4998.4	
247.38	5608	
247.59	3373.7	
247.8	4027.7	
248.01	5284.4	
248.22	5412.1	
248.43	3663.8	
248.64	4005.1	
248.86	4868.7	
249.07	5302.2	
249.28	3493.2	
249.49	4166.3	
249.7	6142.5	
249.91	6300.9	
250.12	3336.1	
250.34	3384.6	
250.55	5635.3	
250.76	5560.2	
250.97	4211.3	
251.18	4261.8	
251.39	6260.6	
251.6	5711.1	
251.81	4346.5	
252.03	4296	
252.24	5257.8	
252.45	6109.8	
252.66	3517	
252.87	4510.3	
253.08	5563	
253.29	7482.6	
253.5	3497.2	
253.72	4907.6	
253.93	5395.7	
254.14	6653.2	
254.35	3816	
254.56	4011.3	
254.77	5831.2	
254.98	5115.1	
255.19	3782.6	
255.41	4853	
255.62	5603.9	
255.83	6257.9	
256.04	4398.4	
256.25	4269.3	
256.46	6935.8	
256.67	5184.8	
256.88	4161.5	
257.09	4672.1	
257.31	5227.1	
257.52	5250.3	
257.73	5241.4	
257.94	3885.7	
258.15	5337	
258.36	5535	
258.57	4900.8	
258.78	3011.2	
258.99	6104.3	
259.2	5414.1	
259.41	3854.3	
259.63	3990.1	
259.84	6438.8	
260.05	6879.8	
260.26	5124	
260.47	3754.6	
260.68	6105.7	
260.89	5415.5	
261.1	4652.3	
261.31	3651.5	
261.52	6139.8	
261.73	6591	
261.95	5025	
262.16	4341.7	
262.37	6369.9	
262.58	6420.4	
262.79	4990.2	
263	3926.6	
263.21	5517.2	
263.42	5083.7	
263.63	3941	
263.84	3873.4	
264.05	6168.5	
264.26	6541.2	
264.47	4861.2	
264.69	4351.3	
264.9	6356.9	
265.11	5780.1	
265.32	3736.9	
265.53	3773.7	
265.74	5741.8	
265.95	4919.2	
266.16	4120.5	
266.37	4644.8	
266.58	5702.9	
266.79	5386.8	
267	3779.2	
267.21	3517.7	
267.42	5066.7	
267.63	5504.3	
267.84	4024.9	
268.06	3391.4	
268.27	5966.4	
268.48	6309.8	
268.69	3921.9	
268.9	4676.2	
269.11	6287.3	
269.32	5048.9	
269.53	4023.6	
269.74	3724.6	
269.95	5909.1	
270.16	4891.2	
270.37	4106.2	
270.58	4650.3	
270.79	5442.8	
271	6119.3	
271.21	4317.8	
271.42	4136.2	
271.63	5747.3	
271.84	5215.5	
272.05	3201.7	
272.26	3680.9	
272.47	5618.3	
272.68	5815.5	
272.89	3903.4	
273.11	4496.7	
273.32	5378.6	
273.53	6589	
273.74	4358.8	
273.95	4270	
274.16	6268.1	
274.37	5625.8	
274.58	4455.7	
274.79	3525.9	
275	5689.9	
275.21	6320	
275.42	5310.4	
275.63	4567.7	
275.84	5802.6	
276.05	7386.3	
276.26	4274.8	
276.47	3957.4	
276.68	5411.4	
276.89	6627.2	
277.1	4555.4	
277.31	3498.6	
277.52	5835.3	
277.73	5989.6	
277.94	3538.9	
278.15	3947.8	
278.36	5804.6	
278.57	5163.6	
278.78	3854.3	
278.99	4461.2	
279.2	5094	
279.41	5139	
279.62	5171.8	
279.83	3595.6	
280.04	6847.7	
280.25	5059.8	
280.46	5136.3	
280.67	4032.5	
280.88	5153.4	
281.09	6207.4	
281.3	4244.8	
281.51	5447.6	
281.72	6013.5	
281.93	6100.9	
282.14	3749.8	
282.35	4046.8	
282.56	6002.6	
282.77	6055.2	
282.98	3906.2	
283.19	4825	
283.4	7471	
283.61	5518.6	
283.82	3570.3	
284.03	5081	
284.24	5687.2	
284.45	6272.9	
284.66	5074.2	
284.87	4858.5	
285.08	6158.2	
285.29	6355.5	
285.5	3383.2	
285.71	4021.5	
285.92	6254.5	
286.12	6952.2	
286.33	4982	
286.54	3855.6	
286.75	6096.8	
286.96	5435.3	
287.17	3583.9	
287.38	4891.9	
287.59	5205.3	
287.8	5056.4	
288.01	4024.3	
288.22	4585.4	
288.43	6076.3	
288.64	5083.7	
288.85	4710.3	
289.06	4491.9	
289.27	6344.6	
289.48	6563.7	
289.69	5066	
289.9	4500.8	
290.11	6223.8	
290.32	5199.8	
290.53	4792.9	
290.74	4412.7	
290.94	6007.4	
291.15	6065.4	
291.36	3837.2	
291.57	4592.9	
291.78	5289.9	
291.99	4909	
292.2	3612.6	
292.41	4389.5	
292.62	6176.7	
292.83	5953.4	
293.04	5418.9	
293.25	3681.6	
293.46	5352.7	
293.67	6212.9	
293.88	3713.6	
294.09	3629	
294.29	5055.1	
294.5	5753.4	
294.71	4079.6	
294.92	3852.2	
295.13	5347.2	
295.34	6792.4	
295.55	3396.9	
295.76	3523.2	
295.97	5997.8	
296.18	6788.3	
296.39	3606.5	
296.6	3765.5	
296.81	5692.7	
297.01	5993	
297.22	3947.8	
297.43	3717.1	
297.64	5167.7	
297.85	5208.7	
298.06	3104.7	
298.27	3366.9	
298.48	5669.5	
298.69	5224.4	
298.9	4129.4	
299.11	3689.8	
299.31	5049.6	
299.52	5155.4	
299.73	4377.9	
299.94	4367	
300.15	5517.9	
300.36	5160.2	
300.57	4328	
300.78	4328	
300.99	5487.2	
301.2	5744.6	
301.4	3710.2	
301.61	4137.6	
301.82	5880.4	
302.03	6021.7	
302.24	4605.2	
302.45	3560.7	
302.66	5894.1	
302.87	6376.7	
303.08	3762.1	
303.29	5218.2	
303.49	5317.2	
303.7	5663.3	
303.91	3345.7	
304.12	4958.8	
304.33	5017.5	
304.54	5723.4	
304.75	3812.6	
304.96	3599	
305.16	5907	
305.37	6683.2	
305.58	3281.5	
305.79	3405.1	
306	5865.4	
306.21	4931.5	
306.42	3777.1	
306.63	5876.3	
306.83	5434.6	
307.04	6195.1	
307.25	4179.9	
307.46	4185.4	
307.67	4760.2	
307.88	6061.3	
308.09	3704.1	
308.29	3929.4	
308.5	5640.1	
308.71	6263.4	
308.92	4068.6	
309.13	3656.3	
309.34	5399.8	
309.55	5510.4	
309.75	4721.3	
309.96	4330.1	
310.17	6010.8	
310.38	5230.5	
310.59	4609.3	
310.8	3512.3	
311.01	5377.3	
311.21	5458.5	
311.42	3534.8	
311.63	3725.3	
311.84	5257.8	
312.05	5738.4	
312.26	4220.2	
312.46	4693.9	
312.67	5372.5	
312.88	5033.9	
313.09	3638.6	
313.3	3575.1	
313.51	6399.9	
313.71	6824.5	
313.92	3655.6	
314.13	3869.3	
314.34	5746.6	
314.55	5421.7	
314.76	4715.1	
314.96	4100	
315.17	5666.7	
315.38	6016.2	
315.59	3697.3	
315.8	3468.6	
316.01	6548	
316.21	6554.2	
316.42	3528.7	
316.63	4035.9	
316.84	5384.1	
317.05	6318	
317.26	4353.3	
317.46	3928.7	
317.67	5475.6	
317.88	5995.1	
318.09	4648.2	
318.3	3365.5	
318.5	5259.2	
318.71	5927.5	
318.92	6024.4	
319.13	4311.7	
319.34	6120.7	
319.54	6280.4	
319.75	3398.3	
319.96	3254.2	
320.17	5935.7	
320.38	6134.3	
320.58	3323.9	
320.79	4042	
321	6232	
321.21	6213.5	
321.42	4037.9	
321.62	3329.3	
321.83	5093.3	
322.04	5600.5	
322.25	3908.9	
322.46	3699.3	
322.66	5687.9	
322.87	5855.8	
323.08	4560.8	
323.29	3566.9	
323.5	6720.8	
323.7	5048.2	
323.91	5047.6	
324.12	4557.4	
324.33	5572.5	
324.53	5962.3	
324.74	4366.3	
324.95	4517.1	
325.16	4917.2	
325.37	5348.6	
325.57	3678.2	
325.78	3718.4	
325.99	5638.1	
326.2	5097.4	
326.4	5430.5	
326.61	3405.1	
326.82	5453.7	
327.03	5627.8	
327.24	5296	
327.44	5029.1	
327.65	5852.4	
327.86	4702.8	
328.07	4353.3	
328.27	3526.6	
328.48	6298.9	
328.69	5193.6	
328.9	5323.4	
329.1	3985.3	
329.31	5450.3	
329.52	6516	
329.73	3628.3	
329.93	4121.9	
330.14	5579.3	
330.35	5820.3	
330.56	6103.6	
330.76	4568.3	
330.97	5360.9	
331.18	5820.3	
331.39	4117.8	
331.59	3295.9	
331.8	6205.3	
332.01	6321.4	
332.22	3745.1	
332.42	4322.6	
332.63	5646.9	
332.84	5260.5	
333.05	4123.2	
333.25	3736.2	
333.46	5369.1	
333.67	5582.1	
333.88	3831.7	
334.08	4272.7	
334.29	7680.6	
334.5	6364.4	
334.7	3555.3	
334.91	5326.1	
335.12	5152.7	
335.33	6014.2	
335.53	4082.3	
335.74	6047	
335.95	5268.1	
336.16	5157.5	
336.36	4070	
336.57	4698	
336.78	5057.1	
336.98	6205.3	
337.19	5072.1	
337.4	3975.1	
337.61	6732.4	
337.81	5119.2	
338.02	3699.3	
338.23	4915.8	
338.43	6326.2	
338.64	5222.3	
338.85	3671.3	
339.05	4866.7	
339.26	6406	
339.47	4965	
339.68	3713.7	
339.88	5451.7	
340.09	5820.3	
340.3	6078.4	
340.5	4301.4	
340.71	3274.7	
340.92	4944.5	
341.13	6344.6	
341.33	3595.6	
341.54	4325.3	
341.75	5811.5	
341.95	5489.9	
342.16	4107.5	
342.37	4499.4	
342.57	5144.5	
342.78	5468.8	
342.99	4664.6	
343.19	3282.2	
343.4	6019.7	
343.61	5844.2	
343.81	3936.9	
344.02	3659	
344.23	6017.6	
344.43	6503.7	
344.64	4568.3	
344.85	4506.2	
345.06	5822.4	
345.26	6225.8	
345.47	4279.6	
345.68	5006.6	
345.88	4883.7	
346.09	6100.2	
346.3	4384.7	
346.5	3246.7	
346.71	5591.6	
346.92	5223.7	
347.12	3340.2	
347.33	4245.4	
347.54	6165.8	
347.74	6581.5	
347.95	4278.2	
348.16	3068.5	
348.36	5373.2	
348.57	5092.6	
348.78	4162.8	
348.98	4558.1	
349.19	5541.8	
349.39	4990.2	
349.6	3349.8	
349.81	3749.1	
350.01	5797.8	
350.22	5227.8	
350.43	4032.5	
350.63	4947.2	
350.84	5609.4	
351.05	5347.9	
351.25	3775.8	
351.46	3351.2	
351.67	6178.7	
351.87	5227.1	
352.08	3971	
352.29	4511	
352.49	6040.1	
352.7	5748	
352.9	3580.5	
353.11	4410	
353.32	6748.7	
353.52	5352.7	
353.73	3540.3	
353.94	4515.8	
354.14	5883.1	
354.35	5665.4	
354.55	3603.1	
354.76	4124.6	
354.97	5812.8	
355.17	5613.5	
355.38	3384.6	
355.59	4849.6	
355.79	5183.4	
356	5681.1	
356.2	3993.5	
356.41	3559.4	
356.62	4943.8	
356.82	5469.4	
357.03	4326	
357.24	3889.1	
357.44	5283.1	
357.65	5383.4	
357.85	5200.5	
358.06	4074.1	
358.27	4919.2	
358.47	5203.2	
358.68	3328.6	
358.88	4271.4	
359.09	5861.3	
359.3	6203.3	
359.5	5046.9	
359.71	4373.8	
359.91	6711.2	
360.12	5956.2	
360.33	4183.3	
360.53	4811.4	
360.74	5158.8	
360.94	5263.3	
361.15	4531.5	
361.36	3658.4	
361.56	6011.5	
361.77	5458.5	
361.97	5068.7	
362.18	3874.1	
362.38	6016.9	
362.59	5044.8	
362.8	3581.9	
363	3397.6	
363.21	4849.6	
363.41	5593.7	
363.62	4186.7	
363.83	5261.2	
364.03	5608	
364.24	6715.3	
364.44	5332.2	
364.65	5259.2	
364.85	5396.4	
365.06	5012.7	
365.27	3781.2	
365.47	3762.8	
365.68	6426.5	
365.88	5354.1	
366.09	4194.9	
366.29	3885.7	
366.5	5659.9	
366.71	6115.2	
366.91	5275.6	
367.12	4390.8	
367.32	6703	
367.53	5950.7	
367.73	4244.1	
367.94	5310.4	
368.14	5877	
368.35	6886.6	
368.56	4319.8	
368.76	3575.1	
368.97	6015.6	
369.17	7841	
369.38	3747.1	
369.58	4055.7	
369.79	5027.1	
369.99	6419	
370.2	5126.7	
370.4	4070	
370.61	5665.4	
370.82	6952.2	
371.02	4051.6	
371.23	3317	
371.43	4888.5	
371.64	6238.8	
371.84	4048.2	
372.05	5323.4	
372.25	7677.2	
372.46	6047	
372.66	3996.3	
372.87	3946.4	
373.07	6040.8	
373.28	7754.3	
373.48	5107	
373.69	4812.7	
373.9	5459.9	
374.1	5470.1	
374.31	4999.1	
374.51	4520.5	
374.72	6353.5	
374.92	5175.2	
375.13	5178.6	
375.33	4355.3	
375.54	5842.9	
375.74	5237.3	
375.95	4380.6	
376.15	5714.5	
376.36	5860.6	
376.56	5670.8	
376.77	4474.1	
376.97	4946.5	
377.18	7011.6	
377.38	5920.7	
377.59	5294	
377.79	3869.3	
378	5681.1	
378.2	6179.4	
378.41	3927.3	
378.61	3824.9	
378.82	6186.2	
379.02	5215.5	
379.23	4074.8	
379.43	5272.2	
379.64	6214.2	
379.84	5891.3	
380.05	3925.3	
380.25	3837.2	
380.46	6012.2	
380.66	5535	
380.87	5305.6	
381.07	5627.1	
381.28	6648.4	
381.48	5999.9	
381.69	3952.6	
381.89	4038.6	
382.1	4871.4	
382.3	6169.8	
382.51	5145.9	
382.71	6064.7	
382.91	6029.2	
383.12	6581.5	
383.32	4364.9	
383.53	4563.6	
383.73	5853.1	
383.94	5662	
384.14	4453.6	
384.35	3553.9	
384.55	5541.1	
384.76	5996.5	
384.96	4343.7	
385.17	4689.2	
385.37	6044.2	
385.58	5255.1	
385.78	4712.4	
385.98	3459	
386.19	5478.3	
386.39	5866.7	
386.6	4113	
386.8	4448.2	
387.01	6006	
387.21	6047.7	
387.42	4861.2	
387.62	5392.3	
387.83	5253	
388.03	6035.4	
388.23	4369	
388.44	5272.8	
388.64	4937	
388.85	5080.3	
389.05	4766.3	
389.26	5390.9	
389.46	7023.9	
389.67	6441.5	
389.87	4657.8	
390.07	4810	
390.28	5581.4	
390.48	5100.8	
390.69	3870.7	
390.89	4243.4	
391.1	5265.3	
391.3	6286.6	
391.5	5515.2	
391.71	6177.4	
391.91	6056.5	
392.12	7129	
392.32	5567.1	
392.53	4851.6	
392.73	5326.8	
392.93	5631.9	
393.14	4336.2	
393.34	5156.1	
393.55	6174.6	
393.75	5589.6	
393.95	4383.3	
394.16	4339	
394.36	5324.7	
394.57	6090	
394.77	3822.2	
394.98	4369	
395.18	5286.5	
395.38	5449.6	
395.59	5203.9	
395.79	4132.1	
396	5392.3	
396.2	5874.9	
396.4	4913.1	
396.61	4923.3	
396.81	6077	
397.02	5327.4	
397.22	5160.9	
397.42	5264.6	
397.63	6077	
397.83	5209.3	
398.04	3980.6	
398.24	4566.3	
398.44	5797.8	
398.65	4884.4	
398.85	3814	
399.05	3939.6	
399.26	5141.8	
399.46	7017.7	
399.67	4362.2	
399.87	4038.6	
400.07	5578	
400.28	5947.3	
400.48	4130.1	
400.69	5287.2	
400.89	6232.7	
401.09	6696.9	
401.3	4039.3	
401.5	5276.9	
401.7	6933.1	
401.91	7143.3	
402.11	4349.9	
402.32	4594.3	
402.52	6141.2	
402.72	6122.1	
402.93	4793.6	
403.13	3678.8	
403.33	6939.9	
403.54	5636	
403.74	4469.4	
403.94	5551.4	
404.15	5799.2	
404.35	7030	
404.56	4326.7	
404.76	6266.1	
404.96	6187.6	
405.17	6019.7	
405.37	5737	
405.57	4743.8	
405.78	6209.4	
405.98	5649.7	
406.18	4268.6	
406.39	5242.8	
406.59	6163.7	
406.79	5797.8	
407	4137.6	
407.2	4202.4	
407.4	6148	
407.61	6436.1	
407.81	4244.1	
408.01	6953.5	
408.22	5148.6	
408.42	7202	
408.62	5352	
408.83	4749.2	
409.03	5722	
409.23	5477	
409.44	4783.4	
409.64	5040.7	
409.84	6606.1	
410.05	6478.4	
410.25	4920.6	
410.45	4649.6	
410.66	5921.4	
410.86	8545.5	
411.06	4983.4	
411.27	4913.1	
411.47	8247.2	
411.67	6112.5	
411.88	5173.9	
412.08	5462.6	
412.28	6722.1	
412.49	7290.8	
412.69	4830.5	
412.89	4879.6	
413.09	7080.5	
413.3	6946	
413.5	4958.8	
413.7	4501.4	
413.91	6043.6	
414.11	6995.9	
414.31	4732.2	
414.52	5128.8	
414.72	6664.8	
414.92	6533.7	
415.12	4688.5	
415.33	5292	
415.53	6884.6	
415.73	7178.8	
415.94	5636	
416.14	5083.7	
416.34	5820.3	
416.55	5522	
416.75	6333	
416.95	5615.5	
417.15	6896.2	
417.36	7724.3	
417.56	6522.1	
417.76	5550	
417.97	7331	
418.17	6896.2	
418.37	5038	
418.57	5066.7	
418.78	6625.2	
418.98	6225.1	
419.18	6021.7	
419.38	5871.5	
419.59	6386.9	
419.79	5928.9	
419.99	4966.3	
420.2	5324	
420.4	6836.1	
420.6	7132.4	
420.8	4820.2	
421.01	4704.2	
421.21	6670.9	
421.41	6879.1	
421.61	5259.9	
421.82	4896	
422.02	6066.8	
422.22	7187	
422.42	5821.7	
422.63	5455.1	
422.83	6307.7	
423.03	7628	
423.23	5403.2	
423.44	4320.5	
423.64	6380.8	
423.84	6112.5	
424.04	4775.2	
424.25	4481.6	
424.45	7365.2	
424.65	7320.1	
424.85	4248.9	
425.06	4903.5	
425.26	7314	
425.46	5810.8	
425.66	5447.6	
425.87	5103.5	
426.07	7027.3	
426.27	6933.1	
426.47	5270.8	
426.67	4530.8	
426.88	7419.1	
427.08	6851.8	
427.28	5435.3	
427.48	4441.4	
427.69	5748	
427.89	6505	
428.09	5500.8	
428.29	4583.4	
428.5	7243.7	
428.7	6651.8	
428.9	4385.4	
429.1	5005.9	
429.3	6507.1	
429.51	7019.1	
429.71	4827.1	
429.91	5670.8	
430.11	6840.2	
430.31	7058.7	
430.52	5091.9	
430.72	5379.3	
430.92	7445	
431.12	6914.6	
431.32	4688.5	
431.53	5125.4	
431.73	5684.5	
431.93	7580.2	
432.13	4638	
432.33	4533.5	
432.54	6166.4	
432.74	6604	
432.94	4360.8	
433.14	5526.8	
433.34	6769.2	
433.55	6157.6	
433.75	5425.1	
433.95	7315.3	
434.15	6513.9	
434.35	6192.4	
434.56	4588.8	
434.76	4052.2	
434.96	6480.5	
435.16	6672.3	
435.36	4358.1	
435.56	5595.1	
435.77	6141.9	
435.97	6270.9	
436.17	6378.1	
436.37	5528.8	
436.57	5994.4	
436.78	5926.8	
436.98	7493.5	
437.18	6183.5	
437.38	6713.9	
437.58	6247	
437.78	6282.5	
437.99	4814.8	
438.19	6716	
438.39	7571.3	
438.59	4746.5	
438.79	4258.4	
438.99	7571.3	
439.2	6261.3	
439.4	4582	
439.6	4454.3	
439.8	6648.4	
440	7841.7	
440.2	5516.5	
440.4	5643.5	
440.61	6966.5	
440.81	7545.4	
441.01	4591.5	
441.21	5549.3	
441.41	7250.5	
441.61	6899.6	
441.81	5740.5	
442.02	6895.5	
442.22	7873.8	
442.42	7017.7	
442.62	4588.1	
442.82	4661.9	
443.02	7324.9	
443.22	6405.4	
443.43	5081.7	
443.63	4625	
443.83	6185.5	
444.03	6146	
444.23	5865.4	
444.43	5416.9	
444.63	6499.6	
444.83	7786.4	
445.04	4582	
445.24	6016.2	
445.44	6801.3	
445.64	7017.7	
445.84	5584.1	
446.04	5489.2	
446.24	6261.3	
446.44	7314.7	
446.65	4754	
446.85	5015.5	
447.05	6679.8	
447.25	7272.3	
447.45	5224.4	
447.65	4539.7	
447.85	6546.7	
448.05	6231.3	
448.25	5651.7	
448.46	5451	
448.66	6554.2	
448.86	6253.8	
449.06	4272.1	
449.26	5597.8	
449.46	7027.3	
449.66	5952.1	
449.86	4986.1	
450.06	5059.2	
450.26	6111.1	
450.47	6750.1	
450.67	5341.8	
450.87	5712.5	
451.07	6864.8	
451.27	6541.9	
451.47	4640.7	
451.67	5213.4	
451.87	6189	
452.07	7506.5	
452.27	4848.2	
452.47	4827.7	
452.67	6571.2	
452.88	7053.2	
453.08	4170.3	
453.28	6278.4	
453.48	7790.5	
453.68	6513.2	
453.88	4614.8	
454.08	4969.7	
454.28	6870.9	
454.48	6593.8	
454.68	5591.6	
454.88	6152.1	
455.08	7017.7	
455.28	6722.8	
455.48	4542.4	
455.68	5215.5	
455.89	7481.9	
456.09	7098.9	
456.29	4915.8	
456.49	4860.5	
456.69	7359.7	
456.89	6470.2	
457.09	5479.7	
457.29	5735	
457.49	6866.2	
457.69	6956.9	
457.89	5228.5	
458.09	4605.9	
458.29	6511.9	
458.49	7241.6	
458.69	5643.5	
458.89	5004.6	
459.09	7455.3	
459.29	7628.7	
459.49	5158.8	
459.69	5934.3	
459.9	7157	
460.1	6486.6	
460.3	5074.2	
460.5	4829.1	
460.7	7004.7	
460.9	6634.7	
461.1	4350.6	
461.3	5728.9	
461.5	7622.5	
461.7	7216.4	
461.9	4782.7	
462.1	5290.6	
462.3	6623.8	
462.5	7271	
462.7	4835.9	
462.9	4973.2	
463.1	8434.9	
463.3	7946.8	
463.5	5161.6	
463.7	6100.2	
463.9	6759	
464.1	7236.2	
464.3	5147.9	
464.5	5468.8	
464.7	7375.4	
464.9	7026.6	
465.1	6877.8	
465.3	5766.4	
465.5	7884	
465.7	7737.2	
465.9	6128.9	
466.1	5906.3	
466.3	7461.4	
466.5	7339.2	
466.7	6670.9	
466.9	5591	
467.1	7152.9	
467.3	8232.8	
467.5	6612.9	
467.7	5426.4	
467.9	8523	
468.1	9399.5	
468.3	6373.3	
468.5	6765.8	
468.7	7161.1	
468.9	7171.3	
469.1	5714.5	
469.3	6364.4	
469.5	9256.1	
469.7	6636.8	
469.9	6222.4	
470.1	5433.9	
470.3	7070.3	
470.5	7174.7	
470.7	6794.5	
470.9	5541.8	
471.1	6847	
471.3	7455.3	
471.5	5283.8	
471.69	7361.1	
471.89	6761	
472.09	6253.1	
472.29	6219	
472.49	6614.9	
472.69	6511.9	
472.89	7419.8	
473.09	5154.1	
473.29	5479	
473.49	6695.5	
473.69	6904.4	
473.89	6459.3	
474.09	5638.1	
474.29	8260.1	
474.49	7899.7	
474.69	6389.7	
474.89	5705.6	
475.09	6928.3	
475.29	6884.6	
475.49	5125.4	
475.69	5298.1	
475.88	8660.9	
476.08	7196.6	
476.28	5074.2	
476.48	5589.6	
476.68	7768.6	
476.88	7703.8	
477.08	5419.6	
477.28	5760.9	
477.48	7097.6	
477.68	7808.9	
477.88	5237.3	
478.08	5617.6	
478.28	8067.6	
478.48	7141.3	
478.67	5560.2	
478.87	5028.4	
479.07	7779.6	
479.27	7307.8	
479.47	5844.9	
479.67	5887.9	
479.87	7718.8	
480.07	8254	
480.27	5062.6	
480.47	6745.3	
480.67	7340.6	
480.87	8021.9	
481.06	5330.9	
481.26	6203.3	
481.46	7214.3	
481.66	7174	
481.86	5862	
482.06	6963.8	
482.26	6938.5	
482.46	8004.1	
482.66	5808.7	
482.86	5309	
483.05	7244.3	
483.25	6694.1	
483.45	8413.7	
483.65	5750.7	
483.85	6842.9	
484.05	7172	
484.25	6262	
484.45	6664.1	
484.65	8164.6	
484.84	8090.2	
485.04	5678.3	
485.24	5633.3	
485.44	8333.2	
485.64	6548	
485.84	4823	
486.04	6433.4	
486.24	6909.8	
486.44	7346.7	
486.63	4777.2	
486.83	5692	
487.03	6770.6	
487.23	7036.8	
487.43	4924.7	
487.63	7446.4	
487.83	6977.4	
488.02	8013	
488.22	5891.3	
488.42	6633.4	
488.62	7938.6	
488.82	6825.2	
489.02	5505.6	
489.22	5526.1	
489.41	7735.9	
489.61	7369.3	
489.81	5253	
490.01	5292	
490.21	7673.7	
490.41	8369.4	
490.61	5169.1	
490.8	5347.9	
491	7080.5	
491.2	6349.4	
491.4	6027.9	
491.6	5071.5	
491.8	7144	
491.99	7331	
492.19	4968.4	
492.39	5458.5	
492.59	7837.6	
492.79	7876.5	
492.99	6273.6	
493.18	5356.8	
493.38	7852.6	
493.58	8527.7	
493.78	5956.2	
493.98	5549.3	
494.18	7443.7	
494.37	6863.4	
494.57	6120.7	
494.77	6038.1	
494.97	7662.1	
495.17	7852.6	
495.37	5537	
495.56	5864.7	
495.76	8056.7	
495.96	7690.8	
496.16	6811.5	
496.36	5625.1	
496.55	7759.8	
496.75	7336.5	
496.95	6019.7	
497.15	5852.4	
497.35	7750.2	
497.54	7671	
497.74	5637.4	
497.94	7514	
498.14	8467	
498.34	8302.5	
498.53	5256.5	
498.73	6130.3	
498.93	7002.7	
499.13	7677.2	
499.33	5836.7	
499.52	6567.2	
499.72	7605.5	
499.92	8073.8	
500.12	5476.3	
500.32	5822.4	
500.51	7903.1	
500.71	7573.4	
500.91	6647	
501.11	6211.5	
501.31	7865.6	
501.5	8271.7	
501.7	6924.2	
501.9	5861.3	
502.1	7615	
502.29	7920.9	
502.49	6253.8	
502.69	6791.7	
502.89	7761.8	
503.09	7834.8	
503.28	5304.9	
503.48	5472.2	
503.68	6987	
503.88	7045.7	
504.07	6559.6	
504.27	5990.3	
504.47	7435.5	
504.67	7552.2	
504.86	6502.3	
505.06	6141.2	
505.26	7083.9	
505.46	9104.6	
505.65	6007.4	
505.85	6254.5	
506.05	7101	
506.25	7635.5	
506.44	5365	
506.64	6424.5	
506.84	6984.9	
507.04	8184.4	
507.23	5638.1	
507.43	6274.3	
507.63	9285.5	
507.83	7286.7	
508.02	6219.7	
508.22	5819	
508.42	9430.9	
508.62	7094.2	
508.81	6209.4	
509.01	6703	
509.21	7025.9	
509.4	7311.2	
509.6	6300.9	
509.8	5630.5	
510	7294.2	
510.19	8811	
510.39	5598.5	
510.59	5683.8	
510.79	7009.5	
510.98	8554.4	
511.18	5606.7	
511.38	5809.4	
511.57	7882.6	
511.77	7834.8	
511.97	6558.3	
512.17	5506.3	
512.36	7847.8	
512.56	7829.4	
512.76	5649	
512.95	5326.1	
513.15	7989.1	
513.35	6488	
513.55	6444.3	
513.74	5586.2	
513.94	8030.8	
514.14	7205.4	
514.33	6560.3	
514.53	6256.5	
514.73	7198.6	
514.92	7419.1	
515.12	5765.7	
515.32	5524.1	
515.51	7477.8	
515.71	8125.7	
515.91	7389.8	
516.11	5628.5	
516.3	9180.4	
516.5	7010.9	
516.7	6180.1	
516.89	6763.8	
517.09	7156.3	
517.29	7000	
517.48	6566.5	
517.68	5787.6	
517.88	6959	
518.07	7504.4	
518.27	6343.2	
518.47	5369.8	
518.66	8179.6	
518.86	6625.9	
519.06	5208	
519.25	5684.5	
519.45	7062.8	
519.65	8645.2	
519.84	6376.7	
520.04	7060.7	
520.24	8979.7	
520.43	7677.2	
520.63	6000.5	
520.83	5707	
521.02	6852.5	
521.22	7577.5	
521.42	6409.5	
521.61	6997.9	
521.81	7222.5	
522.01	7411.6	
522.2	6198.5	
522.4	6019	
522.6	7830.7	
522.79	6616.3	
522.99	6115.9	
523.18	5279.7	
523.38	7570.7	
523.58	7616.4	
523.77	7288	
523.97	5235.3	
524.17	9353.1	
524.36	8609.7	
524.56	6560.3	
524.76	6152.8	
524.95	7413	
525.15	7098.9	
525.34	5952.8	
525.54	5950.7	
525.74	7722.9	
525.93	6710.5	
526.13	7160.4	
526.33	5807.4	
526.52	8068.3	
526.72	7486.7	
526.91	7180.2	
527.11	6417.7	
527.31	8131.1	
527.5	8541.4	
527.7	6199.2	
527.89	5162.9	
528.09	6851.1	
528.29	7511.3	
528.48	6673.6	
528.68	6305	
528.87	7888.1	
529.07	7966.6	
529.27	6232	
529.46	5623.7	
529.66	7474.4	
529.85	7854	
530.05	5403.2	
530.25	6258.6	
530.44	8894.3	
530.64	7410.9	
530.83	5890.6	
531.03	6105	
531.23	7810.3	
531.42	7838.3	
531.62	6954.2	
531.81	6079.7	
532.01	7986.4	
532.21	8508.6	
532.4	5813.5	
532.6	6178	
532.79	8680.7	
532.99	7941.3	
533.18	6074.3	
533.38	7211.6	
533.58	7402.7	
533.77	8339.3	
533.97	5976.7	
534.16	7010.9	
534.36	8441	
534.55	7414.3	
534.75	7032.7	
534.95	6089.3	
535.14	8308.6	
535.34	7434.1	
535.53	5649	
535.73	7815.7	
535.92	8879.3	
536.12	7647.8	
536.31	5820.3	
536.51	7108.5	
536.71	7985.7	
536.9	7605.5	
537.1	6039.5	
537.29	6156.9	
537.49	8427.4	
537.68	7449.1	
537.88	6621.1	
538.07	5719.3	
538.27	7637.6	
538.46	8753.7	
538.66	5580	
538.86	6025.1	
539.05	7643	
539.25	8206.9	
539.44	6356.2	
539.64	5932.3	
539.83	7434.1	
540.03	8632.9	
540.22	5787.6	
540.42	5973.2	
540.61	7800.7	
540.81	7892.9	
541	6572.6	
541.2	7101.7	
541.39	7291.5	
541.59	7753.6	
541.78	6768.5	
541.98	5884.5	
542.18	6950.1	
542.37	6911.9	
542.57	6339.8	
542.76	6827.2	
542.96	7087.3	
543.15	7899.7	
543.35	6336.4	
543.54	5672.9	
543.74	8219.2	
543.93	7733.8	
544.13	6370.5	
544.32	7574.1	
544.52	8095.6	
544.71	7290.8	
544.91	5481	
545.1	6759	
545.3	7321.5	
545.49	8064.2	
545.69	5384.8	
545.88	6014.2	
546.08	8983.1	
546.27	8609.7	
546.47	6637.5	
546.66	5819.6	
546.86	8234.9	
547.05	8956.4	
547.24	6059.3	
547.44	5900.9	
547.63	7131	
547.83	8348.9	
548.02	6305	
548.22	6552.1	
548.41	6959.7	
548.61	8334.6	
548.8	5895.4	
549	5823.1	
549.19	7669.6	
549.39	8030.1	
549.58	5547.3	
549.78	6176	
549.97	8084	
550.17	7467.6	
550.36	7068.9	
550.55	8120.9	
550.75	7608.2	
550.94	8604.9	
551.14	5814.9	
551.33	6229.9	
551.53	6841.6	
551.72	7841.7	
551.92	6299.6	
552.11	5985.5	
552.31	7925	
552.5	8103.1	
552.69	7846.5	
552.89	5601.2	
553.08	7955.7	
553.28	7698.3	
553.47	6124.1	
553.67	7265.5	
553.86	8652.7	
554.06	6862.1	
554.25	5161.6	
554.44	5827.8	
554.64	9547.6	
554.83	8939.4	
555.03	5784.1	
555.22	6228.6	
555.42	8189.1	
555.61	7829.4	
555.8	5991.7	
556	6297.5	
556.19	6920.8	
556.39	8454	
556.58	6090	
556.78	6001.9	
556.97	7741.3	
557.16	7354.3	
557.36	7386.3	
557.55	5703.6	
557.75	6683.9	
557.94	8577.6	
558.13	5863.3	
558.33	5523.4	
558.52	8321.6	
558.72	7141.3	
558.91	5605.3	
559.1	5966.4	
559.3	6880.5	
559.49	6580.8	
559.69	5177.9	
559.88	6348	
560.07	7750.9	
560.27	8143.4	
560.46	6474.3	
560.66	6663.4	
560.85	7490.1	
561.04	6716.7	
561.24	5679.7	
561.43	5904.3	
561.63	6947.4	
561.82	7317.4	
562.01	7186.3	
562.21	6243.6	
562.4	7771.4	
562.59	8744.8	
562.79	6080.4	
562.98	5696.8	
563.18	7610.3	
563.37	9177.6	
563.56	6513.9	
563.76	5542.5	
563.95	7030.7	
564.14	6961	
564.34	5969.1	
564.53	5750.7	
564.73	7620.5	
564.92	8004.8	
565.11	6099.5	
565.31	5472.9	
565.5	8256.7	
565.69	7122.2	
565.89	5706.3	
566.08	6061.3	
566.27	8111.3	
566.47	8472.4	
566.66	6675	
566.85	5227.1	
567.05	7628.7	
567.24	6935.8	
567.44	5614.8	
567.63	7139.9	
567.82	7931.8	
568.02	7529	
568.21	5655.8	
568.4	6092.7	
568.6	7425.9	
568.79	7522.2	
568.98	5440.1	
569.18	5478.3	
569.37	7494.2	
569.56	9574.9	
569.76	5922.7	
569.95	6963.1	
570.14	7837.6	
570.34	7695.6	
570.53	5402.5	
570.72	5451.7	
570.91	8255.4	
571.11	7276.4	
571.3	6028.5	
571.49	6961.7	
571.69	7389.8	
571.88	6945.3	
572.07	6537.8	
572.27	6488.6	
572.46	6948.1	
572.65	8077.2	
572.85	5756.2	
573.04	6068.1	
573.23	8237.6	
573.43	7523.6	
573.62	5406.6	
573.81	6160.3	
574	7448.5	
574.2	7308.5	
574.39	5699.5	
574.58	5987.6	
574.78	8394.6	
574.97	7546.1	
575.16	6236.7	
575.36	6518	
575.55	7900.4	
575.74	8133.8	
575.93	5387.5	
576.13	6496.2	
576.32	7177.4	
576.51	7868.3	
576.71	5767.1	
576.9	7240.9	
577.09	8286.8	
577.28	7778.2	
577.48	6298.2	
577.67	5264.6	
577.86	7395.9	
578.05	7713.3	
578.25	6005.3	
578.44	6147.3	
578.63	7468.3	
578.83	8659.5	
579.02	5286.5	
579.21	6860	
579.4	7680.6	
579.6	7352.9	
579.79	6082.5	
579.98	8456.1	
580.17	8019.8	
580.37	8084.7	
580.56	5500.2	
580.75	6356.2	
580.94	8617.2	
581.14	8445.1	
581.33	6803.4	
581.52	5698.1	
581.71	7781.6	
581.91	8598.1	
582.1	5279.7	
582.29	5942.5	
582.48	7450.5	
582.68	7402	
582.87	6468.9	
583.06	6062.7	
583.25	7772	
583.45	7209.5	
583.64	6770.6	
583.83	7469.6	
584.02	7264.1	
584.21	7669.6	
584.41	6782.2	
584.6	5966.4	
584.79	7421.8	
584.98	8328.4	
585.18	5428.5	
585.37	5434.6	
585.56	6920.1	
585.75	7816.4	
585.94	5682.4	
586.14	6340.5	
586.33	8507.9	
586.52	7464.2	
586.71	6127.5	
586.91	5877	
587.1	6842.3	
587.29	7962.5	
587.48	5941.2	
587.67	5700.2	
587.87	7899.7	
588.06	7916.1	
588.25	7202	
588.44	6505	
588.63	7565.9	
588.83	8099.7	
589.02	5952.8	
589.21	5808.7	
589.4	7355.6	
589.59	7088.7	
589.78	5102.2	
589.98	5411.4	
590.17	6873.7	
590.36	7465.5	
590.55	4820.9	
590.74	5905	
590.94	9097.8	
591.13	7564.5	
591.32	5589.6	
591.51	5165.7	
591.7	8008.2	
591.89	7426.6	
592.09	5132.2	
592.28	5672.2	
592.47	6589	
592.66	8548.9	
592.85	5161.6	
593.05	5401.2	
593.24	7295.5	
593.43	8041	
593.62	5487.9	
593.81	6032.6	
594	7201.3	
594.19	7443	
594.39	5332.9	
594.58	5292.6	
594.77	7593.2	
594.96	8237.6	
595.15	5217.5	
595.34	5994.4	
595.54	7688.8	
595.73	6668.9	
595.92	4650.3	
596.11	6010.1	
596.3	8230.8	
596.49	6773.3	
596.68	5668.8	
596.88	6120.7	
597.07	7923.6	
597.26	6625.9	
597.45	5160.9	
597.64	6444.3	
597.83	6860.7	
598.02	7555	
598.22	5253.7	
598.41	5963.7	
598.6	7267.6	
598.79	6713.2	
598.98	5178.6	
599.17	6299.6	
599.36	7273	
599.55	8657.4	
599.74	7494.9	
599.94	7169.3	
600.13	7938.6	
600.32	6663.4	
600.51	4978.6	
600.7	5116.5	
600.89	8695.7	
601.08	8624	
601.27	4838	
601.47	5964.4	
601.66	7804.8	
601.85	8469	
602.04	5563	
602.23	5978.7	
602.42	6815	
602.61	7537.2	
602.8	5540.4	
602.99	5358.2	
603.18	7196.6	
603.37	7484	
603.57	5985.5	
603.76	6585.6	
603.95	8284	
604.14	7789.8	
604.33	5405.3	
604.52	5706.3	
604.71	7413	
604.9	7021.1	
605.09	6383.5	
605.28	6159.6	
605.47	8086.1	
605.66	7731.1	
605.86	5993	
606.05	5363.6	
606.24	8002.1	
606.43	6451.8	
606.62	5740.5	
606.81	6542.6	
607	7868.3	
607.19	7161.1	
607.38	5131.5	
607.57	5447.6	
607.76	6875	
607.95	6347.3	
608.14	5866.1	
608.33	6530.3	
608.52	6855.2	
608.72	7890.1	
608.91	5092.6	
609.1	4980	
609.29	7040.2	
609.48	6537.8	
609.67	6040.8	
609.86	5103.5	
610.05	6594.5	
610.24	7072.3	
610.43	4810	
610.62	4528.7	
610.81	8236.2	
611	7934.5	
611.19	5015.5	
611.38	5847.6	
611.57	7295.5	
611.76	8681.3	
611.95	4835.3	
612.14	4696	
612.33	7105.8	
612.52	6586.3	
612.71	5530.2	
612.9	4500.8	
613.09	6167.8	
613.28	8650.6	
613.47	5108.3	
613.66	6249.7	
613.85	7228	
614.04	6791.1	
614.24	5300.1	
614.43	4432.5	
614.62	7400	
614.81	7294.9	
615	5882.4	
615.19	5814.2	
615.38	6576	
615.57	6932.4	
615.76	5650.3	
615.95	6720.1	
616.14	7434.8	
616.33	7027.9	
616.52	6085.9	
616.71	6298.9	
616.9	7338.6	
617.09	7212.9	
617.28	5304.2	
617.47	6899.6	
617.66	6381.5	
617.85	6402	
618.04	6239.5	
618.22	5715.2	
618.41	6664.1	
618.6	7620.5	
618.79	5513.8	
618.98	5207.3	
619.17	7942.7	
619.36	6132.3	
619.55	5313.8	
619.74	5413.5	
619.93	7205.4	
620.12	6501.6	
620.31	5930.2	
620.5	6111.1	
620.69	7790.5	
620.88	8106.5	
621.07	6866.2	
621.26	5789.6	
621.45	7388.4	
621.64	7284.6	
621.83	5877.7	
622.02	5042.1	
622.21	7397.9	
622.4	7134.4	
622.59	6515.3	
622.78	6179.4	
622.97	6639.5	
623.16	7688.8	
623.35	5709.7	
623.54	4966.3	
623.72	6828.6	
623.91	6976.7	
624.1	6128.9	
624.29	4689.2	
624.48	8192.6	
624.67	7317.4	
624.86	5944.6	
625.05	4961.5	
625.24	8271.1	
625.43	6496.8	
625.62	7836.2	
625.81	5173.9	
626	7702.4	
626.19	6900.3	
626.38	5957.5	
626.56	5388.2	
626.75	6758.3	
626.94	7215	
627.13	6012.2	
627.32	4661.2	
627.51	7425.9	
627.7	8802.2	
627.89	4822.3	
628.08	6019	
628.27	6564.4	
628.46	6724.8	
628.65	5158.2	
628.83	4771.1	
629.02	7403.4	
629.21	6695.5	
629.4	5688.6	
629.59	5838.8	
629.78	6505.7	
629.97	7616.4	
630.16	5875.6	
630.35	5321.3	
630.54	7997.3	
630.72	7802.1	
630.91	5294	
631.1	5883.8	
631.29	7180.2	
631.48	7359.7	
631.67	5991	
631.86	5436	
632.05	6789.7	
632.24	6776.7	
632.42	5044.1	
632.61	5657.2	
632.8	6901.7	
632.99	6580.1	
633.18	5665.4	
633.37	6135	
633.56	7137.9	
633.75	6987.7	
633.93	5710.4	
634.12	5333.6	
634.31	8055.3	
634.5	7565.9	
634.69	5380.7	
634.88	5931.6	
635.07	6910.5	
635.25	7554.3	
635.44	6464.1	
635.63	6589.7	
635.82	6756.9	
636.01	6250.4	
636.2	6296.1	
636.39	5764.3	
636.57	7910.6	
636.76	7703.8	
636.95	5157.5	
637.14	6701.6	
637.33	7236.8	
637.52	8278.6	
637.7	4964.3	
637.89	5980.8	
638.08	6761	
638.27	8452.6	
638.46	6092.7	
638.65	6587	
638.83	8402.1	
639.02	6622.4	
639.21	5984.8	
639.4	6598.6	
639.59	7179.5	
639.78	6881.2	
639.96	5216.2	
640.15	5307.7	
640.34	7015	
640.53	7273	
640.72	4953.4	
640.91	5406	
641.09	6446.3	
641.28	7857.4	
641.47	5337.7	
641.66	6196.5	
641.85	7154.2	
642.03	7443	
642.22	5963	
642.41	5392.3	
642.6	6592.4	
642.79	5978.7	
642.97	5251	
643.16	5969.8	
643.35	6634.7	
643.54	6436.8	
643.73	5115.8	
643.91	6003.3	
644.1	6288.6	
644.29	6898.2	
644.48	5316.5	
644.67	5387.5	
644.85	6536.4	
645.04	6895.5	
645.23	4812.7	
645.42	5165	
645.6	6439.5	
645.79	7667.6	
645.98	5258.5	
646.17	4302.1	
646.36	6226.5	
646.54	6949.4	
646.73	6249.7	
646.92	4888.5	
647.11	6548.7	
647.29	7689.4	
647.48	4960.9	
647.67	4802.5	
647.86	7918.8	
648.05	7889.5	
648.23	5386.8	
648.42	6765.1	
648.61	7187.7	
648.8	6995.2	
648.98	4929.5	
649.17	5324.7	
649.36	6464.8	
649.55	5938.4	
649.73	5005.9	
649.92	5796.4	
650.11	6367.8	
650.3	6640.2	
650.48	5102.9	
650.67	4964.3	
650.86	6997.9	
651.05	5928.2	
651.23	5169.1	
651.42	5068	
651.61	6541.2	
651.79	6713.2	
651.98	5294	
652.17	4927.4	
652.36	6967.2	
652.54	5978.7	
652.73	4961.5	
652.92	4766.3	
653.11	6998.6	
653.29	7084.6	
653.48	4186.7	
653.67	5266.7	
653.85	6789	
654.04	7923.6	
654.23	5588.9	
654.42	5011.4	
654.6	6382.8	
654.79	7073	
654.98	4561.5	
655.16	5136.3	
655.35	5956.2	
655.54	5952.1	
655.73	4677.6	
655.91	4705.5	
656.1	7198.6	
656.29	5902.9	
656.47	4173.8	
656.66	5973.9	
656.85	6129.6	
657.03	6210.8	
657.22	4707.6	
657.41	4844.1	
657.59	6189	
657.78	5975.3	
657.97	4360.1	
658.16	5166.3	
658.34	6936.5	
658.53	7372	
658.72	6065.4	
658.9	6640.2	
659.09	6192.4	
659.28	6377.4	
659.46	4815.5	
659.65	4755.4	
659.84	6154.1	
660.02	6568.5	
660.21	4607.9	
660.4	4633.9	
660.58	7118.1	
660.77	6439.5	
660.96	5276.3	
661.14	4276.8	
661.33	7670.3	
661.52	7477.1	
661.7	4177.2	
661.89	8235.6	
662.08	5965.1	
662.26	5620.3	
662.45	4482.3	
662.64	4723.3	
662.82	6675.7	
663.01	5864.7	
663.2	4693.9	
663.38	5433.3	
663.57	6705	
663.75	6600.6	
663.94	5008.6	
664.13	6427.2	
664.31	5973.9	
664.5	6787	
664.69	5172.5	
664.87	5903.6	
665.06	5726.1	
665.25	6559	
665.43	6186.9	
665.62	6283.9	
665.8	6890	
665.99	6156.2	
666.18	5010.7	
666.36	5144.5	
666.55	6851.1	
666.74	6737.1	
666.92	4617.5	
667.11	6381.5	
667.29	6135	
667.48	6866.8	
667.67	5975.3	
667.85	5012.7	
668.04	6251.8	
668.22	6249.7	
668.41	5143.1	
668.6	5166.3	
668.78	5948.7	
668.97	6266.8	
669.15	5507	
669.34	4336.9	
669.53	6071.5	
669.71	6390.3	
669.9	4649.6	
670.08	5274.9	
670.27	6055.8	
670.46	6692.8	
670.64	5551.4	
670.83	5796.4	
671.01	5891.3	
671.2	6640.9	
671.38	4633.9	
671.57	4528.7	
671.76	7193.8	
671.94	7794.6	
672.13	4457.1	
672.31	5662	
672.5	6778.1	
672.69	5981.4	
672.87	4668	
673.06	4949.3	
673.24	6630	
673.43	6036.7	
673.61	5425.1	
673.8	4961.5	
673.98	6723.5	
674.17	6992.4	
674.36	5527.5	
674.54	5397.1	
674.73	6516	
674.91	6721.4	
675.1	5135.6	
675.28	4745.8	
675.47	6238.8	
675.65	6808.1	
675.84	4997	
676.03	5354.1	
676.21	6060.6	
676.4	5495.4	
676.58	5861.3	
676.77	5524.1	
676.95	7666.2	
677.14	5997.8	
677.32	4653	
677.51	4346.5	
677.69	6862.1	
677.88	5584.8	
678.06	4476.9	
678.25	4586.1	
678.44	6224.5	
678.62	6020.3	
678.81	4285	
678.99	5317.2	
679.18	7146	
679.36	6677.7	
679.55	4898.1	
679.73	5615.5	
679.92	6662.7	
680.1	5954.1	
680.29	6257.9	
680.47	4945.2	
680.66	5970.5	
680.84	6858.6	
681.03	4233.8	
681.21	5387.5	
681.4	6032.6	
681.58	5855.1	
681.77	4643.4	
681.95	4579.9	
682.14	6928.3	
682.32	7330.4	
682.51	5644.2	
682.69	4369.7	
682.88	5973.9	
683.06	6787	
683.25	5295.4	
683.43	5816.2	
683.62	6228.6	
683.8	6707.1	
683.99	5965.7	
684.17	5156.8	
684.36	7652.6	
684.54	6251.8	
684.73	4362.2	
684.91	4556	
685.1	6662	
685.28	6071.5	
685.46	5301.5	
685.65	5476.3	
685.83	7003.4	
686.02	6354.8	
686.2	4742.4	
686.39	4959.5	
686.57	6140.5	
686.76	7632.8	
686.94	4719.2	
687.13	4862.6	
687.31	6797.2	
687.5	6223.1	
687.68	4285.7	
687.86	5717.2	
688.05	8097.7	
688.23	5688.6	
688.42	5702.2	
688.6	4797.7	
688.79	6102.9	
688.97	6064	
689.16	5241.4	
689.34	4081.6	
689.52	6838.9	
689.71	7114.6	
689.89	5500.8	
690.08	4713.7	
690.26	6363.7	
690.45	6287.3	
690.63	5779.4	
690.81	4909.7	
691	6105	
691.18	5997.8	
691.37	5137	
691.55	7436.9	
691.74	6010.8	
691.92	8284	
692.1	5145.2	
692.29	4468	
692.47	6267.5	
692.66	5510.4	
692.84	4744.5	
693.02	5386.2	
693.21	5623	
693.39	6158.9	
693.58	5403.2	
693.76	4777.2	
693.94	7417.7	
694.13	7146.7	
694.31	4649.6	
694.5	5891.3	
694.68	5944.6	
694.86	6316.6	
695.05	5031.9	
695.23	5558.2	
695.42	6634.1	
695.6	9233.6	
695.78	5705	
695.97	4788.8	
696.15	6750.1	
696.34	6129.6	
696.52	4505.5	
696.7	5426.4	
696.89	6504.3	
697.07	5886.5	
697.25	5409.4	
697.44	7128.3	
697.62	6412.9	
697.81	6916.7	
697.99	5075.5	
698.17	5586.9	
698.36	5758.2	
698.54	6546.7	
698.72	5399.8	
698.91	4412	
699.09	6056.5	
699.28	5928.2	
699.46	5040.1	
699.64	4902.2	
699.83	5833.3	
700.01	7274.4	
700.19	5759.6	
700.38	4034.5	
700.56	7238.2	
700.74	5958.2	
700.93	4497.3	
701.11	5327.4	
701.29	6495.5	
701.48	7683.3	
701.66	4629.8	
701.84	4729.4	
702.03	6009.4	
702.21	6747.4	
702.39	4227.7	
702.58	4874.2	
702.76	6463.4	
702.94	6537.8	
703.13	4347.8	
703.31	6905.8	
703.49	5659.9	
703.68	6701.6	
703.86	4496.7	
704.04	5598.5	
704.23	6306.4	
704.41	6705.7	
704.59	4658.4	
704.78	6052.4	
704.96	7445.7	
705.14	6823.1	
705.33	4392.9	
705.51	5342.5	
705.69	6086.6	
705.87	7059.3	
706.06	5597.1	
706.24	4336.2	
706.42	6369.9	
706.61	6701.6	
706.79	5693.4	
706.97	4413.4	
707.16	5842.2	
707.34	6541.9	
707.52	5642.2	
707.7	4663.2	
707.89	6139.8	
708.07	5664.7	
708.25	5613.5	
708.44	5638.1	
708.62	5981.4	
708.8	7167.2	
708.98	5820.3	
709.17	4735.6	
709.35	6420.4	
709.53	6454.5	
709.72	4373.1	
709.9	4693.3	
710.08	6627.2	
710.26	6751.5	
710.45	6223.8	
710.63	4775.2	
710.81	6324.1	
710.99	6361	
711.18	5449	
711.36	4917.2	
711.54	6140.5	
711.72	6948.1	
711.91	5086.5	
712.09	4437.9	
712.27	6410.1	
712.45	7131.7	
712.64	5404.6	
712.82	4287.1	
713	5815.5	
713.18	6107	
713.37	4528.1	
713.55	5820.3	
713.73	7087.3	
713.91	5567.1	
714.1	5055.1	
714.28	4524.6	
714.46	6858.6	
714.64	5982.8	
714.83	4012	
715.01	4934.9	
715.19	6131.6	
715.37	5557.5	
715.55	4645.5	
715.74	5008.6	
715.92	7286.7	
716.1	5074.9	
716.28	6208.1	
716.47	5198.4	
716.65	5777.3	
716.83	5862.7	
717.01	4957.4	
717.19	5133.6	
717.38	8174.8	
717.56	5588.2	
717.74	5338.4	
717.92	4301.4	
718.1	6859.3	
718.29	5963	
718.47	3904.1	
718.65	4573.1	
718.83	6580.1	
719.01	6520	
719.2	3635.8	
719.38	4823.6	
719.56	6261.3	
719.74	7935.2	
719.92	4397.7	
720.11	5589.6	
720.29	6266.1	
720.47	5308.3	
720.65	3990.8	
720.83	4913.1	
721.02	5765	
721.2	5560.9	
721.38	5096.7	
721.56	4223.6	
721.74	5131.5	
721.92	5296	
722.11	5649	
722.29	5288.5	
722.47	6588.3	
722.65	5756.2	
722.83	4329.4	
723.01	5363.6	
723.2	5830.6	
723.38	6096.1	
723.56	3684.3	
723.74	4947.2	
723.92	5309	
724.1	6542.6	
724.29	4234.5	
724.47	5456.5	
724.65	5345.9	
724.83	5305.6	
725.01	4105.5	
725.19	5098.1	
725.37	5432.6	
725.56	5466.7	
725.74	3984	
725.92	4196.3	
726.1	5280.3	
726.28	5619.6	
726.46	4707.6	
726.64	4395.6	
726.83	5608	
727.01	5983.5	
727.19	3917.8	
727.37	4841.4	
727.55	5707.7	
727.73	6261.3	
727.91	3937.6	
728.09	3723.2	
728.28	6356.9	
728.46	7002	
728.64	4972.5	
728.82	4907.6	
729	7466.2	
729.18	6625.2	
729.36	3959.4	
729.54	6579.4	
729.72	7688.8	
729.91	5784.1	
730.09	6105	
730.27	4670.7	
730.45	5663.3	
730.63	6365.8	
730.81	5339.7	
730.99	4296.6	
731.17	6927.6	
731.35	5347.2	
731.53	4917.9	
731.71	4369.7	
731.9	6597.9	
732.08	6796.5	
732.26	4689.2	
732.44	4372.4	
732.62	6917.4	
732.8	6256.5	
732.98	5176.6	
733.16	4096.6	
733.34	6352.8	
733.52	5047.6	
733.7	4699.4	
733.88	5065.3	
734.07	6147.3	
734.25	5866.7	
734.43	4091.2	
734.61	5856.5	
734.79	7514	
734.97	5730.9	
735.15	4288.4	
735.33	4659.1	
735.51	6160.3	
735.69	5756.2	
735.87	5883.8	
736.05	4941.7	
736.23	5969.8	
736.41	5743.2	
736.59	4698	
736.77	4817.5	
736.95	6451.8	
737.13	5844.9	
737.32	4334.2	
737.5	4543.1	
737.68	7006.8	
737.86	5732.9	
738.04	4057	
738.22	6193.7	
738.4	5535	
738.58	5851.7	
738.76	4838.7	
738.94	3644.7	
739.12	5659.2	
739.3	5489.2	
739.48	5424.4	
739.66	5168.4	
739.84	5962.3	
740.02	5877.7	
740.2	3727.3	
740.38	4175.8	
740.56	6325.5	
740.74	5086.5	
740.92	4873.5	
741.1	4757.4	
741.28	5714.5	
741.46	5678.3	
741.64	4414.7	
741.82	5004.6	
742	5788.9	
742.18	5724.1	
742.36	4658.4	
742.54	4192.9	
742.72	6414.9	
742.9	5098.1	
743.08	5113.8	
743.26	3788.7	
743.44	6651.1	
743.62	6518.7	
743.8	5272.8	
743.98	4289.8	
744.16	6207.4	
744.34	5844.9	
744.52	5193.6	
744.7	5102.9	
744.88	6346	
745.06	5850.4	
745.24	5215.5	
745.42	5388.9	
745.6	6480.5	
745.78	6193.7	
745.96	3985.3	
746.14	4399	
746.32	7245	
746.5	6515.3	
746.68	4974.5	
746.86	4378.6	
747.03	6986.3	
747.21	5127.4	
747.39	4904.9	
747.57	4400.4	
747.75	6036.7	
747.93	6439.5	
748.11	4412.7	
748.29	4305.5	
748.47	7759.1	
748.65	5773.9	
748.83	5182.7	
749.01	4911.7	
749.19	6269.5	
749.37	5386.2	
749.55	4693.3	
749.73	4807.9	
749.91	5930.2	
750.09	5666.7	
750.26	4853	
750.44	4182.6	
750.62	5973.9	
750.8	5953.4	
750.98	4022.2	
751.16	4442.7	
751.34	6068.8	
751.52	5291.3	
751.7	5315.2	
751.88	4052.2	
752.06	6565.1	
752.24	6356.2	
752.42	3972.4	
752.59	4347.2	
752.77	5929.6	
752.95	7245	
753.13	5192.3	
753.31	4548.5	
753.49	5572.5	
753.67	6173.3	
753.85	4932.2	
754.03	4427.7	
754.21	6410.1	
754.38	6889.4	
754.56	4719.2	
754.74	3584.6	
754.92	5714.5	
755.1	6562.4	
755.28	3747.1	
755.46	3829	
755.64	7413.6	
755.82	7557	
755.99	4280.3	
756.17	4448.9	
756.35	4943.1	
756.53	6725.5	
756.71	3293.1	
756.89	4271.4	
757.07	6305.7	
757.25	5205.3	
757.42	4831.2	
757.6	5816.9	
757.78	6250.4	
757.96	5100.8	
758.14	4423.6	
758.32	3947.8	
758.5	4702.1	
758.67	5538.4	
758.85	4287.8	
759.03	4446.1	
759.21	5783.5	
759.39	5160.2	
759.57	3851.5	
759.75	5082.4	
759.92	6441.5	
760.1	5582.8	
760.28	5461.9	
760.46	5744.6	
760.64	5383.4	
760.82	5053	
760.99	5214.8	
761.17	4297.3	
761.35	6284.5	
761.53	5085.1	
761.71	4452.3	
761.89	5148.6	
762.06	6103.6	
762.24	5494	
762.42	4500.1	
762.6	4222.2	
762.78	5487.2	
762.96	6225.1	
763.13	4850.3	
763.31	4517.1	
763.49	6440.2	
763.67	5465.3	
763.85	5467.4	
764.02	6120	
764.2	6659.3	
764.38	5773.2	
764.56	4463.9	
764.74	5402.5	
764.91	6821.1	
765.09	5582.8	
765.27	4023.6	
765.45	3852.2	
765.63	6842.3	
765.8	6706.4	
765.98	3551.2	
766.16	3992.9	
766.34	5138.4	
766.52	4870.8	
766.69	5005.9	
766.87	3772.4	
767.05	5610.1	
767.23	6447.7	
767.41	4142.4	
767.58	4439.3	
767.76	6256.5	
767.94	6341.9	
768.12	4241.3	
768.29	5076.2	
768.47	5741.1	
768.65	6557.6	
768.83	3875.4	
769	5172.5	
769.18	5263.3	
769.36	6040.8	
769.54	5150	
769.72	3933.5	
769.89	6392.4	
770.07	6524.1	
770.25	4281.6	
770.43	5642.8	
770.6	7217.7	
770.78	7684	
770.96	4494.6	
771.14	5212.8	
771.31	6292	
771.49	5521.3	
771.67	3577.8	
771.85	3882.3	
772.02	4777.9	
772.2	5603.9	
772.38	4697.4	
772.55	4105.5	
772.73	5926.8	
772.91	5638.7	
773.09	4593.6	
773.26	4631.8	
773.44	5952.8	
773.62	5499.5	
773.8	4032.5	
773.97	3691.1	
774.15	5984.8	
774.33	5541.8	
774.5	3914.4	
774.68	4344.4	
774.86	6163	
775.04	5539.1	
775.21	4065.9	
775.39	4084.3	
775.57	5913.2	
775.74	6372.6	
775.92	3895.2	
776.1	3820.8	
776.27	5901.6	
776.45	7240.9	
776.63	4007.2	
776.81	3514.3	
776.98	5474.9	
777.16	6737.1	
777.34	4194.9	
777.51	4528.1	
777.69	5423.7	
777.87	5249.6	
778.04	4204.5	
778.22	4986.1	
778.4	5260.5	
778.57	6001.9	
778.75	3458.3	
778.93	3821.5	
779.1	5028.4	
779.28	4878.9	
779.46	3472.7	
779.64	4079.6	
779.81	6268.1	
779.99	7232.1	
780.17	4955.4	
780.34	5124.7	
780.52	5623	
780.69	5815.5	
780.87	4424.3	
781.05	3958	
781.22	5704.3	
781.4	5806.7	
781.58	4085.7	
781.75	3211.2	
781.93	5739.8	
782.11	5070.1	
782.28	5101.5	
782.46	4104.8	
782.64	4875.5	
782.81	5894.1	
782.99	4237.2	
783.17	4170.3	
783.34	5809.4	
783.52	4949.9	
783.69	4433.2	
783.87	5291.3	
784.05	5010	
784.22	5038	
784.4	5304.2	
784.58	4578.6	
784.75	6106.4	
784.93	5123.3	
785.1	4223.6	
785.28	4878.3	
785.46	5851.7	
785.63	5124	
785.81	4080.9	
785.99	3975.1	
786.16	5244.8	
786.34	5725.4	
786.51	4004.5	
786.69	4435.9	
786.87	4803.9	
787.04	5404.6	
787.22	3874.1	
787.39	4917.9	
787.57	5048.2	
787.75	6268.8	
787.92	5084.4	
788.1	5063.9	
788.27	5169.8	
788.45	4837.3	
788.63	4681.7	
788.8	3345.7	
788.98	5700.9	
789.15	4845.5	
789.33	3542.3	
789.5	4156.7	
789.68	6169.8	
789.86	6277	
790.03	4691.9	
790.21	4027.7	
790.38	6064	
790.56	5276.3	
790.73	3864.5	
790.91	3958.7	
791.09	5076.2	
791.26	5994.4	
791.44	4177.2	
791.61	3558	
791.79	5139	
791.96	5227.8	
792.14	3677.5	
792.32	3213.9	
792.49	5151.3	
792.67	5268.7	
792.84	3779.2	
793.02	3559.4	
793.19	5599.1	
793.37	6438.1	
793.54	3263.8	
793.72	3662.5	
793.89	6602	
794.07	5158.2	
794.25	4330.8	
794.42	3332	
794.6	6299.6	
794.77	5879.7	
794.95	4623.6	
795.12	4023.6	
795.3	5124	
795.47	5899.5	
795.65	4351.9	
795.82	4258.4	
796	4880.3	
796.17	7051.8	
796.35	4049.5	
796.52	4859.1	
796.7	5748	
796.87	5860.6	
797.05	5175.9	
797.22	5014.1	
797.4	5737.7	
797.57	6913.3	
797.75	4276.8	
797.92	3949.8	
798.1	6093.4	
798.27	5181.4	
798.45	3393.5	
798.62	3684.3	
798.8	5522	
798.97	6048.3	
799.15	4554.7	
799.32	4318.5	
799.5	4706.2	
799.67	5600.5	
799.85	4597	
800.02	3315	
800.2	5113.1	
800.37	5520	
800.55	4816.8	
800.72	3989.4	
800.9	5945.9	
801.07	6462.7	
801.25	5418.9	
801.42	4408.6	
801.6	6005.3	
801.77	5714.5	
801.95	4074.8	
802.12	3872.7	
802.29	5729.5	
802.47	5671.5	
802.64	4359.4	
802.82	3259	
802.99	5067.4	
803.17	6265.4	
803.34	4313.7	
803.52	3838.6	
803.69	6866.2	
803.87	4927.4	
804.04	4259.8	
804.21	4341	
804.39	6350.1	
804.56	5341.1	
804.74	3635.8	
804.91	4411.3	
805.09	5144.5	
805.26	5276.3	
805.44	3678.2	
805.61	4050.9	
805.78	5901.6	
805.96	5980.8	
806.13	4470.7	
806.31	4747.9	
806.48	4732.9	
806.66	5304.2	
806.83	4433.2	
807	4315.8	
807.18	5157.5	
807.35	5632.6	
807.53	4316.4	
807.7	3398.9	
807.87	6438.1	
808.05	5209.3	
808.22	4790.2	
808.4	3401	
808.57	5222.3	
808.74	4844.8	
808.92	3895.2	
809.09	5072.1	
809.27	5066	
809.44	5799.8	
809.61	3477.5	
809.79	3864.5	
809.96	6371.2	
810.14	6069.5	
810.31	3324.5	
810.48	4169.7	
810.66	5324	
810.83	6182.1	
811.01	3900.7	
811.18	4403.1	
811.35	5984.2	
811.53	4631.1	
811.7	4831.8	
811.87	4502.8	
812.05	5210	
812.22	5163.6	
812.39	3723.9	
812.57	3673.4	
812.74	5198.4	
812.92	7046.4	
813.09	4131.4	
813.26	4582.7	
813.44	6732.4	
813.61	5157.5	
813.78	3438.5	
813.96	4673.5	
814.13	5259.2	
814.3	4859.1	
814.48	5033.2	
814.65	4112.3	
814.82	6580.1	
815	5029.1	
815.17	4265.2	
815.34	5231.2	
815.52	5119.2	
815.69	5142.4	
815.87	4258.4	
816.04	4141.7	
816.21	5260.5	
816.38	4552.6	
816.56	4111	
816.73	3806.5	
816.9	6621.8	
817.08	6040.8	
817.25	3853.6	
817.42	4928.1	
817.6	4818.2	
817.77	5298.8	
817.94	4365.6	
818.12	3736.9	
818.29	4986.1	
818.46	7975.5	
818.64	3936.2	
818.81	3697.3	
818.98	4831.8	
819.16	7234.8	
819.33	4604.5	
819.5	4271.4	
819.67	5625.1	
819.85	6326.9	
820.02	4177.2	
820.19	4468.7	
820.37	5485.1	
820.54	5009.3	
820.71	4404.5	
820.88	5423	
821.06	5521.3	
821.23	4973.2	
821.4	4416.8	
821.58	4336.2	
821.75	6078.4	
821.92	5339.1	
822.09	3428.3	
822.27	3820.1	
822.44	5225.1	
822.61	5143.1	
822.79	3513.6	
822.96	6864.8	
823.13	5823.7	
823.3	4923.3	
823.48	4102.1	
823.65	3638.6	
823.82	6004.6	
823.99	4757.4	
824.17	5160.9	
824.34	3682.2	
824.51	7020.4	
824.68	5304.2	
824.86	3866.6	
825.03	4317.1	
825.2	5189.6	
825.37	6427.2	
825.55	3820.1	
825.72	4308.2	
825.89	7083.9	
826.06	6462.7	
826.24	4154.6	
826.41	4207.2	
826.58	6385.6	
826.75	5549.3	
826.92	3236.5	
827.1	3680.9	
827.27	8813.1	
827.44	7032	
827.61	3924.6	
827.79	4891.9	
827.96	4945.8	
828.13	5328.8	
828.3	4145.1	
828.47	3451.5	
828.65	5445.5	
828.82	5407.3	
828.99	5358.9	
829.16	4706.9	
829.34	5774.6	
829.51	5634.6	
829.68	4306.2	
829.85	4519.9	
830.02	6169.2	
830.2	5943.9	
830.37	3331.4	
830.54	5251.7	
830.71	6761.7	
830.88	5195.7	
831.05	3385.3	
831.23	3883.6	
831.4	6438.8	
831.57	7283.9	
831.74	3979.2	
831.91	3483.6	
832.09	5563	
832.26	5886.5	
832.43	4131.4	
832.6	4652.3	
832.77	5453.7	
832.94	6337.8	
833.12	3265.1	
833.29	4041.3	
833.46	5679.7	
833.63	7606.2	
833.8	4519.2	
833.97	4119.1	
834.15	5901.6	
834.32	5666	
834.49	4312.3	
834.66	4386.7	
834.83	6140.5	
835	4960.2	
835.17	3929.4	
835.35	3955.3	
835.52	5735	
835.69	5653.8	
835.86	4233.2	
836.03	3425.6	
836.2	5769.1	
836.37	5436	
836.55	4127.3	
836.72	3814.7	
836.89	5392.3	
837.06	5920.7	
837.23	4287.1	
837.4	4646.2	
837.57	6731	
837.75	7553.6	
837.92	3801.7	
838.09	4003.1	
838.26	5419.6	
838.43	6240.2	
838.6	4360.8	
838.77	3812.6	
838.94	7134.4	
839.11	6777.4	
839.29	4100.7	
839.46	3248.1	
839.63	5824.4	
839.8	5554.8	
839.97	4017.4	
840.14	3971	
840.31	5612.1	
840.48	5832.6	
840.65	3313.6	
840.82	3881.6	
841	5863.3	
841.17	5799.8	
841.34	3672.7	
841.51	3785.3	
841.68	5794.4	
841.85	5556.1	
842.02	3857	
842.19	3162.7	
842.36	5578.7	
842.53	5591	
842.7	3729.4	
842.87	4536.3	
843.05	7501	
843.22	5517.2	
843.39	3500	
843.56	3811.3	
843.73	5317.2	
843.9	5916.6	
844.07	6111.8	
844.24	4961.5	
844.41	8841.1	
844.58	5034.6	
844.75	3566.2	
844.92	3924.6	
845.09	5892.7	
845.26	5826.5	
845.43	3603.1	
845.6	3858.4	
845.77	5887.2	
845.94	5521.3	
846.12	4059.1	
846.29	4299.4	
846.46	6024.4	
846.63	5903.6	
846.8	3700	
846.97	4388.1	
847.14	6373.3	
847.31	5765.7	
847.48	4163.5	
847.65	4578.6	
847.82	6151.4	
847.99	6199.2	
848.16	4853.7	
848.33	4540.3	
848.5	5498.1	
848.67	6371.2	
848.84	3672	
849.01	3820.1	
849.18	5216.2	
849.35	4896.7	
849.52	4594.3	
849.69	3633.1	
849.86	6044.9	
850.03	6327.5	
850.2	3713	
850.37	4530.1	
850.54	6294.8	
850.71	5513.8	
850.88	4360.8	
851.05	3620.8	
851.22	5807.4	
851.39	6510.5	
851.56	3419.4	
851.73	4250.9	
851.9	5086.5	
852.07	6109.8	
852.24	4024.9	
852.41	3601.7	
852.58	5743.2	
852.75	5182.7	
852.92	4141.7	
853.09	3575.1	
853.26	5464.7	
853.43	6315.9	
853.6	3661.8	
853.77	3135.4	
853.94	6406.7	
854.11	5717.2	
854.28	5487.9	
854.44	3952.6	
854.61	6869.6	
854.78	6260	
854.95	3600.3	
855.12	4625.7	
855.29	4640.7	
855.46	6761	
855.63	3651.5	
855.8	5144.5	
855.97	5388.2	
856.14	6201.9	
856.31	5227.1	
856.48	4019.5	
856.65	5396.4	
856.82	5051.7	
856.99	3455.6	
857.16	3939.6	
857.33	7206.8	
857.49	5464	
857.66	3961.5	
857.83	4324.6	
858	5491.3	
858.17	5670.8	
858.34	3456.3	
858.51	3627.6	
858.68	6662.7	
858.85	6658.6	
859.02	4250.2	
859.19	4530.1	
859.36	5053	
859.52	5215.5	
859.69	3616.7	
859.86	4337.6	
860.03	5169.1	
860.2	6479.1	
860.37	3291.1	
860.54	3702.7	
860.71	6087.9	
860.88	6546.7	
861.05	4147.1	
861.21	4645.5	
861.38	6599.2	
861.55	5063.3	
861.72	3312.2	
861.89	4091.2	
862.06	6210.1	
862.23	6683.2	
862.4	3557.3	
862.56	3748.5	
862.73	6057.9	
862.9	5624.4	
863.07	4335.5	
863.24	3323.9	
863.41	5015.5	
863.58	5131.5	
863.75	3740.3	
863.91	4170.3	
864.08	6524.1	
864.25	6043.6	
864.42	4665.3	
864.59	5125.4	
864.76	6935.8	
864.93	5146.5	
865.09	3555.3	
865.26	3913	
865.43	6390.3	
865.6	6774	
865.77	3169.6	
865.94	3607.2	
866.1	6486.6	
866.27	6199.9	
866.44	5547.3	
866.61	3475.4	
866.78	5532.9	
866.95	5945.9	
867.11	3508.9	
867.28	3224.2	
867.45	6162.3	
867.62	5287.9	
867.79	4284.4	
867.96	3599.6	
868.12	5129.5	
868.29	6193.1	
868.46	3695.9	
868.63	4920.6	
868.8	6350.8	
868.97	6150.7	
869.13	3797.6	
869.3	3790.1	
869.47	5982.8	
869.64	6143.2	
869.81	3754.6	
869.97	3659.7	
870.14	5846.3	
870.31	6661.4	
870.48	3536.8	
870.65	4670.7	
870.81	5478.3	
870.98	5401.9	
871.15	4158.1	
871.32	3744.4	
871.48	5948	
871.65	6641.6	
871.82	3686.3	
871.99	3991.5	
872.16	7119.4	
872.32	6492.7	
872.49	3646.1	
872.66	3686.3	
872.83	6051.1	
872.99	5376.6	
873.16	4209.3	
873.33	3615.3	
873.5	5713.8	
873.67	5802.6	
873.83	3845.4	
874	4940.4	
874.17	5862.7	
874.34	7012.2	
874.5	4805.9	
874.67	4536.9	
874.84	6591	
875.01	5180	
875.17	5181.4	
875.34	3570.3	
875.51	5721.3	
875.68	7084.6	
875.84	4399.7	
876.01	5481.7	
876.18	6050.4	
876.34	6005.3	
876.51	3701.4	
876.68	3606.5	
876.85	5582.8	
877.01	6380.8	
877.18	5264.6	
877.35	3620.8	
877.52	5606	
877.68	4977.9	
877.85	3577.8	
878.02	3569.6	
878.18	5567.7	
878.35	5283.8	
878.52	2956.6	
878.69	4143.7	
878.85	6059.9	
879.02	6049.7	
879.19	5247.6	
879.35	3941.7	
879.52	6011.5	
879.69	6324.1	
879.86	3105.4	
880.02	4108.9	
880.19	5627.1	
880.36	6905.1	
880.52	4220.9	
880.69	4326	
880.86	6162.3	
881.02	6299.6	
881.19	4024.9	
881.36	3991.5	
881.52	6042.2	
881.69	5322.7	
881.86	3904.8	
882.02	3885	
882.19	6376.7	
882.36	7475.8	
882.52	3753.9	
882.69	5147.2	
882.86	5851	
883.02	5737.7	
883.19	4413.4	
883.36	4215.4	
883.52	6172.6	
883.69	7088	
883.86	3689.1	
884.02	3274	
884.19	6183.5	
884.36	5610.1	
884.52	4139.6	
884.69	3892.5	
884.86	5326.1	
885.02	6786.3	
885.19	4154	
885.36	4257.7	
885.52	5671.5	
885.69	5827.2	
885.86	5305.6	
886.02	4690.5	
886.19	6075.6	
886.35	5588.9	
886.52	4067.3	
886.69	5147.2	
886.85	5134.9	
887.02	6522.8	
887.19	6522.8	
887.35	6522.8	
887.52	6522.8	
887.68	6522.8	
887.85	6522.8	
888.02	6522.8	
888.18	6522.8	
888.35	6522.8	
888.51	6522.8	
888.68	6522.8	
888.85	6522.8	
889.01	6522.8	
889.18	6522.8	
889.35	6522.8	
889.51	6522.8	
889.68	6522.8	
889.84	6522.8	
890.01	6522.8	
890.17	6522.8	
890.34	6522.8	
890.51	6522.8	
890.67	6522.8	
890.84	6522.8	
891	6522.8	
891.17	6522.8	
891.34	6522.8	
891.5	6522.8	
891.67	6522.8	
891.83	6522.8	
892	6522.8	
892.16	6522.8	
892.33	6522.8	
892.5	6522.8	
892.66	6522.8	
892.83	6522.8	
892.99	6522.8	
893.16	6522.8	
893.32	6522.8	
893.49	6522.8	
893.65	6522.8	
893.82	6522.8	
893.99	6522.8	
894.15	6522.8	
894.32	6522.8	
894.48	6522.8	
894.65	6522.8	
894.81	6522.8	
894.98	6522.8	
895.14	6522.8	
895.31	6522.8	
895.47	6522.8	
895.64	6522.8	
895.81	6522.8	
895.97	6522.8	
896.14	6522.8	
896.3	6522.8	
896.47	6522.8	
896.63	6522.8	
896.8	6522.8	
896.96	6522.8	
897.13	6522.8	
897.29	6522.8	
897.46	6522.8	
897.62	6522.8	
897.79	6522.8	
897.95	6522.8	
898.12	6522.8	
898.28	6522.8	
898.45	6522.8	
898.61	6522.8	
898.78	6522.8	
898.94	6522.8	
899.11	6522.8	
899.27	6522.8	
899.44	6522.8	
899.6	6522.8	
899.77	6522.8	
899.93	6522.8	
900.1	6522.8	
900.26	6522.8	
900.43	6522.8	
900.59	6522.8	
900.76	6522.8	
900.92	6522.8	
901.09	6522.8	
901.25	6522.8	
901.42	6522.8	
901.58	6522.8	
901.75	6522.8	
901.91	6522.8	
902.07	6522.8	
902.24	6522.8	
902.4	6522.8	
902.57	6522.8	
902.73	6522.8	
902.9	6522.8	
903.06	6522.8	
903.23	6522.8	
903.39	6522.8	
903.56	6522.8	
903.72	6522.8	
903.88	6522.8	
904.05	6522.8	
904.21	6522.8	
904.38	6522.8	
904.54	6522.8	
904.71	6522.8	
904.87	6522.8	
905.03	6522.8	
905.2	6522.8	
905.36	6522.8	
905.53	6522.8	
905.69	6522.8	
905.86	6522.8	
906.02	6522.8	
906.18	6522.8	
906.35	6522.8	
906.51	6522.8	
906.68	6522.8	
906.84	6522.8	
907.01	6522.8	
907.17	6522.8	
907.33	6522.8	
907.5	6522.8	
907.66	6522.8	
907.83	6522.8	
907.99	6522.8	
908.15	6522.8	
908.32	6522.8	
908.48	6522.8	
908.65	6522.8	
908.81	6522.8	
908.97	6522.8	
909.14	6522.8	
909.3	6522.8	
909.47	6522.8	
909.63	6522.8	
909.79	6522.8	
909.96	6522.8	
910.12	6522.8	
910.28	6522.8	
910.45	6522.8	
910.61	6522.8	
910.78	6522.8	
910.94	6522.8	
911.1	6522.8	
911.27	6522.8	
911.43	6522.8	
911.59	6522.8	
911.76	6522.8	
911.92	6522.8	
912.08	6522.8	
912.25	6522.8	
912.41	6522.8	
912.57	6522.8	
912.74	6522.8	
912.9	6522.8	
913.07	6522.8	
913.23	6522.8	
913.39	6522.8	
913.56	6522.8	
913.72	6522.8	
913.88	6522.8	
914.05	6522.8	
914.21	6522.8	
914.37	6522.8	
914.54	6522.8	
914.7	6522.8	
914.86	6522.8	
915.03	6522.8	
915.19	6522.8	
