Wavelength	Intensities	
nm	a.u.	
179.22	1823	
179.44	1820.6	
179.65	1825.4	
179.86	1815.9	
180.08	1874.6	
180.29	4575.2	
180.51	3334.8	
180.72	5360.2	
180.94	6248.4	
181.15	3011.9	
181.37	3032.4	
181.58	5288.5	
181.79	5573.2	
182.01	3163.4	
182.22	3436.5	
182.44	5526.1	
182.65	4623.6	
182.87	4297.3	
183.08	3725.9	
183.29	5885.9	
183.51	4824.3	
183.72	3442	
183.94	4987.5	
184.15	5236.7	
184.37	5205.9	
184.58	3050.1	
184.79	4078.9	
185.01	4814.1	
185.22	5526.1	
185.44	4308.2	
185.65	3683.6	
185.86	5091.9	
186.08	4745.8	
186.29	2970.9	
186.51	3168.2	
186.72	4811.4	
186.94	5614.2	
187.15	3715.7	
187.36	3781.9	
187.58	7289.4	
187.79	5251	
188.01	3910.9	
188.22	6079.7	
188.43	6315.3	
188.65	5525.4	
188.86	3203	
189.08	3783.3	
189.29	5029.8	
189.5	4984.1	
189.72	3519.1	
189.93	3538.9	
190.15	5720	
190.36	6777.4	
190.57	3851.5	
190.79	3736.9	
191	5813.5	
191.22	5683.1	
191.43	3826.3	
191.64	3198.2	
191.86	5974.6	
192.07	5709.1	
192.29	3364.8	
192.5	3542.3	
192.71	5626.5	
192.93	4988.2	
193.14	3454.2	
193.35	3572.3	
193.57	4977.2	
193.78	5659.2	
194	2860.3	
194.21	3461.7	
194.42	4764.3	
194.64	5192.3	
194.85	3743	
195.07	4417.5	
195.28	5270.1	
195.49	4499.4	
195.71	4623.6	
195.92	3305.4	
196.13	5385.5	
196.35	5536.3	
196.56	4913.1	
196.78	3839.3	
196.99	6657.9	
197.2	6257.2	
197.42	4256.4	
197.63	3791.5	
197.84	4653.7	
198.06	5352	
198.27	3531.4	
198.48	4622.3	
198.7	4971.8	
198.91	5113.1	
199.13	3801.7	
199.34	3838.6	
199.55	5544.5	
199.77	4545.8	
199.98	3358.7	
200.19	3861.8	
200.41	5091.9	
200.62	4873.5	
200.83	3958.7	
201.05	4219.5	
201.26	5122	
201.47	4851.6	
201.69	3436.5	
201.9	3303.4	
202.11	5212.1	
202.33	6075	
202.54	3607.8	
202.76	4009.2	
202.97	5330.2	
203.18	5273.5	
203.4	3986.7	
203.61	3879.5	
203.82	5239.4	
204.04	4859.8	
204.25	3900.7	
204.46	3824.9	
204.68	5188.2	
204.89	5335	
205.1	3680.9	
205.32	3226.2	
205.53	5601.2	
205.74	5673.6	
205.96	2809.8	
206.17	3926.6	
206.38	5543.9	
206.6	5638.7	
206.81	4361.5	
207.02	3566.2	
207.24	5452.4	
207.45	5828.5	
207.66	3606.5	
207.88	3159.3	
208.09	5358.2	
208.3	5182.7	
208.52	3336.8	
208.73	3707.5	
208.94	5190.2	
209.15	5832.6	
209.37	3638.6	
209.58	3781.2	
209.79	5726.8	
210.01	4983.4	
210.22	2921.8	
210.43	3089.7	
210.65	5173.9	
210.86	5551.4	
211.07	3687.7	
211.29	3306.1	
211.5	5508.4	
211.71	5133.6	
211.93	3358.7	
212.14	3350.5	
212.35	5186.1	
212.56	5341.8	
212.78	3871.3	
212.99	3162.1	
213.2	6084.5	
213.42	4983.4	
213.63	3459	
213.84	3650.2	
214.06	4603.8	
214.27	4733.5	
214.48	3635.8	
214.69	3881.6	
214.91	5915.9	
215.12	5862	
215.33	3923.2	
215.55	4336.2	
215.76	6326.2	
215.97	5522.7	
216.18	3794.2	
216.4	3652.9	
216.61	4848.2	
216.82	5618.9	
217.04	3358.7	
217.25	3504.8	
217.46	5778.7	
217.67	5578.7	
217.89	3010.5	
218.1	3142.9	
218.31	5240.1	
218.53	5378	
218.74	3505.4	
218.95	3434.4	
219.16	5096.7	
219.38	6021	
219.59	3465.2	
219.8	4068.6	
220.01	6635.4	
220.23	5216.9	
220.44	4435.2	
220.65	3348.4	
220.87	5240.8	
221.08	5794.4	
221.29	3102	
221.5	4130.8	
221.72	7029.3	
221.93	4913.1	
222.14	3859.1	
222.35	4452.3	
222.57	5214.8	
222.78	5549.3	
222.99	3648.1	
223.2	3942.3	
223.42	5467.4	
223.63	5588.9	
223.84	2829.6	
224.05	2819.4	
224.27	6529.6	
224.48	6028.5	
224.69	4562.9	
224.9	3801	
225.12	5396.4	
225.33	5214.1	
225.54	3050.1	
225.75	3456.3	
225.97	4814.1	
226.18	5082.4	
226.39	3655.6	
226.6	3430.3	
226.82	4976.6	
227.03	4805.2	
227.24	3859.7	
227.45	3195.5	
227.67	5539.8	
227.88	6053.8	
228.09	4282.3	
228.3	4268.6	
228.52	5616.2	
228.73	5170.4	
228.94	3532.7	
229.15	3207.8	
229.36	5134.9	
229.58	5081.7	
229.79	3584.6	
230	4143	
230.21	6137.8	
230.43	5240.8	
230.64	3796.9	
230.85	3961.5	
231.06	5567.7	
231.28	5606	
231.49	3173	
231.7	3704.8	
231.91	5533.6	
232.12	5203.2	
232.34	3282.9	
232.55	3721.8	
232.76	5752.7	
232.97	5322.7	
233.18	3427.6	
233.4	3828.3	
233.61	5370.5	
233.82	4969.1	
234.03	3532.1	
234.25	3470.6	
234.46	7094.2	
234.67	5261.2	
234.88	3936.9	
235.09	3424.2	
235.31	5512.4	
235.52	5089.2	
235.73	3795.6	
235.94	3203.7	
236.15	4922	
236.37	6292.7	
236.58	3353.9	
236.79	3794.2	
237	5414.8	
237.21	4752	
237.43	3978.5	
237.64	3132	
237.85	9193.3	
238.06	4813.4	
238.27	3969	
238.48	3223.5	
238.7	5563	
238.91	5085.1	
239.12	3624.9	
239.33	3704.8	
239.54	4860.5	
239.76	5197.7	
239.97	3639.2	
240.18	3648.1	
240.39	6444.3	
240.6	5434.6	
240.82	3741	
241.03	3143.6	
241.24	5251	
241.45	5958.2	
241.66	3315.7	
241.87	3986.7	
242.09	5922.7	
242.3	6218.3	
242.51	4020.2	
242.72	3732.1	
242.93	5593	
243.14	5147.9	
243.36	4257.7	
243.57	4558.8	
243.78	5939.8	
243.99	5526.1	
244.2	3689.8	
244.41	3287	
244.63	4818.9	
244.84	5454.4	
245.05	3907.5	
245.26	3648.8	
245.47	5488.6	
245.68	5642.8	
245.9	4840	
246.11	3879.5	
246.32	5034.6	
246.53	5444.9	
246.74	5864.7	
246.95	3125.9	
247.16	4795	
247.38	5179.3	
247.59	3117	
247.8	3687.7	
248.01	4911.7	
248.22	5167.7	
248.43	3340.9	
248.64	3570.3	
248.86	4666	
249.07	4986.8	
249.28	3248.8	
249.49	3793.5	
249.7	5672.9	
249.91	5764.3	
250.12	3065.8	
250.34	3109.5	
250.55	5319.3	
250.76	5227.1	
250.97	3831.1	
251.18	3878.9	
251.39	5877.7	
251.6	5392.3	
251.81	3844.7	
252.03	3796.9	
252.24	4968.4	
252.45	5672.2	
252.66	3207.1	
252.87	4014.7	
253.08	5203.9	
253.29	6787.7	
253.5	3207.1	
253.72	4395.6	
253.93	5109	
254.14	6141.2	
254.35	3515	
254.56	3642.7	
254.77	5462.6	
254.98	4818.2	
255.19	3435.8	
255.41	4405.2	
255.62	5301.5	
255.83	5819.6	
256.04	3934.8	
256.25	3878.9	
256.46	6362.4	
256.67	4915.1	
256.88	3780.6	
257.09	4220.9	
257.31	4851	
257.52	4975.2	
257.73	4712.4	
257.94	3452.9	
258.15	5096	
258.36	5187.5	
258.57	4381.3	
258.78	2841.2	
258.99	5644.2	
259.2	5067.4	
259.41	3517.7	
259.63	3591.5	
259.84	5962.3	
260.05	6352.1	
260.26	4599.1	
260.47	3385.3	
260.68	5715.2	
260.89	5068	
261.1	4222.2	
261.31	3404.4	
261.52	5720.7	
261.73	6119.3	
261.95	4474.8	
262.16	3953.9	
262.37	5847.6	
262.58	5936.4	
262.79	4492.6	
263	3596.9	
263.21	5322	
263.42	5128.1	
263.63	3655.6	
263.84	3520.5	
264.05	5726.8	
264.26	6019.7	
264.47	4333.5	
264.69	4012.7	
264.9	5880.4	
265.11	5403.9	
265.32	3392.1	
265.53	3433.8	
265.74	5289.2	
265.95	4661.2	
266.16	3758	
266.37	4128	
266.58	5324	
266.79	5032.5	
267	3505.4	
267.21	3254.9	
267.42	4828.4	
267.63	5177.3	
267.84	3622.2	
268.06	3192.1	
268.27	5606.7	
268.48	5877	
268.69	3558.7	
268.9	4217.5	
269.11	5850.4	
269.32	4712.4	
269.53	3639.9	
269.74	3439.2	
269.95	5476.3	
270.16	4607.9	
270.37	3646.1	
270.58	4254.3	
270.79	5098.1	
271	5677.7	
271.21	3922.5	
271.42	3657.7	
271.63	5391.6	
271.84	4913.1	
272.05	2966.1	
272.26	3304.7	
272.47	5266	
272.68	5403.9	
272.89	3459	
273.11	4055.7	
273.32	4995.7	
273.53	6041.5	
273.74	3950.5	
273.95	3846.1	
274.16	5782.8	
274.37	5254.4	
274.58	4035.9	
274.79	3244.7	
275	5347.2	
275.21	5819	
275.42	4788.2	
275.63	4106.2	
275.84	5459.9	
276.05	6798.6	
276.26	3839.3	
276.47	3628.3	
276.68	5036.6	
276.89	6142.5	
277.1	4149.2	
277.31	3238.5	
277.52	5420.3	
277.73	5664	
277.94	3178.4	
278.15	3538.9	
278.36	5406.6	
278.57	4870.1	
278.78	3528.7	
278.99	3953.3	
279.2	4914.4	
279.41	4903.5	
279.62	4615.4	
279.83	3295.2	
280.04	6323.4	
280.25	4771.1	
280.46	4678.2	
280.67	3724.6	
280.88	4878.3	
281.09	5853.1	
281.3	3852.2	
281.51	4788.8	
281.72	4967.7	
281.93	5713.2	
282.14	3470.6	
282.35	3675.4	
282.56	5703.6	
282.77	5586.2	
282.98	3549.8	
283.19	4345.1	
283.4	6840.9	
283.61	5221.6	
283.82	3272	
284.03	4559.5	
284.24	5333.6	
284.45	5756.8	
284.66	4502.8	
284.87	4307.6	
285.08	5725.4	
285.29	5900.2	
285.5	3104	
285.71	3629.7	
285.92	5741.1	
286.12	6335	
286.33	4514.4	
286.54	3588.7	
286.75	5689.3	
286.96	5093.3	
287.17	3312.9	
287.38	4395.6	
287.59	4922	
287.8	4830.5	
288.01	3592.8	
288.22	4136.2	
288.43	5670.1	
288.64	4704.2	
288.85	4280.3	
289.06	4089.8	
289.27	5621	
289.48	6054.5	
289.69	4455	
289.9	4080.9	
290.11	5849	
290.32	4956.1	
290.53	4287.1	
290.74	4037.2	
290.94	5593	
291.15	5619.6	
291.36	3480.2	
291.57	4113	
291.78	4975.9	
291.99	4681.7	
292.2	3334.1	
292.41	3963.5	
292.62	5752.1	
292.83	5557.5	
293.04	4872.8	
293.25	3293.8	
293.46	5029.8	
293.67	5749.3	
293.88	3439.9	
294.09	3358.7	
294.29	4787.5	
294.5	5362.3	
294.71	3738.9	
294.92	3495.2	
295.13	5078.3	
295.34	6244.9	
295.55	3114.3	
295.76	3207.8	
295.97	5591	
296.18	6302.3	
296.39	3265.1	
296.6	3457.7	
296.81	5281	
297.01	5628.5	
297.22	3548.4	
297.43	3440.6	
297.64	4913.8	
297.85	4883	
298.06	2888.3	
298.27	3154.6	
298.48	5233.2	
298.69	4977.2	
298.9	3743	
299.11	3386	
299.31	4786.1	
299.52	4819.6	
299.73	4016.7	
299.94	3891.8	
300.15	5230.5	
300.36	4923.3	
300.57	3883.6	
300.78	3876.1	
300.99	5072.1	
301.2	5307	
301.4	3410.6	
301.61	3741	
301.82	5485.1	
302.03	5633.3	
302.24	4184.7	
302.45	3251.5	
302.66	5481	
302.87	5867.4	
303.08	3461.7	
303.29	4704.9	
303.49	5082.4	
303.7	5245.5	
303.91	3100.6	
304.12	4440	
304.33	4790.2	
304.54	5311.1	
304.75	3489.7	
304.96	3273.3	
305.16	5498.8	
305.37	6186.2	
305.58	3078.8	
305.79	3190.1	
306	5530.2	
306.21	4702.8	
306.42	3441.3	
306.63	5276.3	
306.83	5052.3	
307.04	5740.5	
307.25	3802.4	
307.46	3790.1	
307.67	4434.5	
307.88	5636.7	
308.09	3428.3	
308.29	3538.2	
308.5	5336.3	
308.71	5750.7	
308.92	3579.2	
309.13	3317	
309.34	5104.2	
309.55	5159.5	
309.75	4266.6	
309.96	3943	
310.17	5550.7	
310.38	4962.9	
310.59	4136.9	
310.8	3206.4	
311.01	5038.7	
311.21	5098.1	
311.42	3257.6	
311.63	3420.1	
311.84	5039.4	
312.05	5297.4	
312.26	3871.3	
312.46	4246.8	
312.67	5056.4	
312.88	4777.9	
313.09	3352.5	
313.3	3233.1	
313.51	5920.7	
313.71	6242.2	
313.92	3317	
314.13	3502	
314.34	5372.5	
314.55	5167.7	
314.76	4243.4	
314.96	3688.4	
315.17	5289.9	
315.38	5659.9	
315.59	3358	
315.8	3293.8	
316.01	5948.7	
316.21	6049.7	
316.42	3232.4	
316.63	3753.9	
316.84	5067.4	
317.05	5788.2	
317.26	3959.4	
317.46	3526.6	
317.67	5157.5	
317.88	5576.6	
318.09	4242.7	
318.3	3107.5	
318.5	4972.5	
318.71	5486.5	
318.92	5400.5	
319.13	3898.6	
319.34	5657.9	
319.54	5817.6	
319.75	3095.8	
319.96	2966.1	
320.17	5547.9	
320.38	5729.5	
320.58	3087.7	
320.79	3652.2	
321	5751.4	
321.21	5870.8	
321.42	3674.1	
321.62	3064.4	
321.83	4843.4	
322.04	5216.2	
322.25	3598.3	
322.46	3353.2	
322.66	5319.9	
322.87	5502.2	
323.08	4115.1	
323.29	3267.2	
323.5	6218.3	
323.7	4843.4	
323.91	4496.7	
324.12	4046.1	
324.33	5292	
324.53	5511.8	
324.74	3967.6	
324.95	4078.2	
325.16	4648.2	
325.37	5037.3	
325.57	3373	
325.78	3395.5	
325.99	5302.9	
326.2	4753.3	
326.4	4801.1	
326.61	3142.9	
326.82	5152	
327.03	5319.3	
327.24	4648.2	
327.44	4446.1	
327.65	5453.7	
327.86	4451.6	
328.07	3938.2	
328.27	3184.6	
328.48	5823.7	
328.69	4838.7	
328.9	4776.5	
329.1	3604.4	
329.31	5109.7	
329.52	5980.1	
329.73	3343.7	
329.93	3749.1	
330.14	5216.9	
330.35	5430.5	
330.56	5400.5	
330.76	4085.7	
330.97	5036.6	
331.18	5328.1	
331.39	3750.5	
331.59	3033.7	
331.8	5735	
332.01	5896.1	
332.22	3472.7	
332.42	3951.2	
332.63	5300.1	
332.84	4931.5	
333.05	3759.4	
333.25	3398.3	
333.46	4998.4	
333.67	5246.9	
333.88	3516.4	
334.08	3865.2	
334.29	6899.6	
334.5	5854.5	
334.7	3272.7	
334.91	4698.7	
335.12	4789.5	
335.33	5617.6	
335.53	3700.7	
335.74	5408.7	
335.95	4985.4	
336.16	4919.2	
336.36	3746.4	
336.57	4250.9	
336.78	4805.2	
336.98	5754.1	
337.19	4584	
337.4	3654.3	
337.61	6296.8	
337.81	4751.3	
338.02	3461.1	
338.23	4394.3	
338.43	5967.8	
338.64	4904.9	
338.85	3388.7	
339.05	4437.3	
339.26	5986.2	
339.47	4683.7	
339.68	3418.1	
339.88	4969.7	
340.09	5461.9	
340.3	5656.5	
340.5	3986	
340.71	3022.8	
340.92	4749.9	
341.13	5897.5	
341.33	3220.1	
341.54	3953.3	
341.75	5446.2	
341.95	5081.7	
342.16	3765.5	
342.37	4083	
342.57	4857.8	
342.78	5181.4	
342.99	4196.3	
343.19	3046.7	
343.4	5636	
343.61	5485.8	
343.81	3608.5	
344.02	3252.9	
344.23	5573.2	
344.43	5952.8	
344.64	4162.8	
344.85	4070	
345.06	5473.5	
345.26	5750	
345.47	3874.8	
345.68	4528.1	
345.88	4697.4	
346.09	5628.5	
346.3	3915.7	
346.5	2989.4	
346.71	5188.9	
346.92	4941.1	
347.12	3122.5	
347.33	3830.4	
347.54	5751.4	
347.74	6105.7	
347.95	3865.9	
348.16	2887.6	
348.36	5079	
348.57	4864.6	
348.78	3819.5	
348.98	4107.5	
349.19	5182.7	
349.39	4704.9	
349.6	3113.6	
349.81	3435.1	
350.01	5406.6	
350.22	4930.8	
350.43	3685.7	
350.63	4350.6	
350.84	5219.6	
351.05	5038.7	
351.25	3355.3	
351.46	3080.1	
351.67	5724.1	
351.87	4924.7	
352.08	3619.4	
352.29	4076.1	
352.49	5668.8	
352.7	5765	
352.9	3269.9	
353.11	4044.7	
353.32	6143.9	
353.52	5045.5	
353.73	3199.6	
353.94	4075.5	
354.14	5506.3	
354.35	5268.7	
354.55	3390.8	
354.76	3706.8	
354.97	5440.8	
355.17	5206.6	
355.38	3140.9	
355.59	4326.7	
355.79	4908.3	
356	5307.7	
356.2	3662.5	
356.41	3261	
356.62	4686.4	
356.82	5130.8	
357.03	3906.8	
357.24	3542.3	
357.44	4903.5	
357.65	4993.6	
357.85	4698	
358.06	3747.1	
358.27	4684.4	
358.47	4872.1	
358.68	3094.5	
358.88	3913	
359.09	5427.8	
359.3	5774.6	
359.5	4570.4	
359.71	4017.4	
359.91	6113.9	
360.12	5512.4	
360.33	3919.1	
360.53	4307.6	
360.74	4879.6	
360.94	4954.7	
361.15	4074.1	
361.36	3323.9	
361.56	5620.3	
361.77	5175.2	
361.97	4543.1	
362.18	3553.9	
362.38	5735.7	
362.59	4762.9	
362.8	3263.8	
363	3148.4	
363.21	4573.1	
363.41	5182	
363.62	3820.8	
363.83	4699.4	
364.03	5339.1	
364.24	6208.1	
364.44	4802.5	
364.65	4786.1	
364.85	5081.7	
365.06	4753.3	
365.27	3462.4	
365.47	3512.3	
365.68	5993.7	
365.88	5010.7	
366.09	3863.2	
366.29	3511.6	
366.5	5241.4	
366.71	5661.3	
366.91	4736.3	
367.12	4009.9	
367.32	6171.9	
367.53	5487.9	
367.73	3968.3	
367.94	4862.6	
368.14	5491.3	
368.35	6343.9	
368.56	3986.7	
368.76	3327.9	
368.97	5588.2	
369.17	7146.7	
369.38	3465.8	
369.58	3733.4	
369.79	4724.7	
369.99	5945.3	
370.2	4693.9	
370.4	3779.9	
370.61	5302.2	
370.82	6470.2	
371.02	3685.7	
371.23	3069.2	
371.43	4635.2	
371.64	5840.8	
371.84	3742.3	
372.05	4777.2	
372.25	7011.6	
372.46	5588.9	
372.66	3679.5	
372.87	3639.9	
373.07	5634	
373.28	7103.7	
373.48	4676.9	
373.69	4296.6	
373.9	5143.1	
374.1	5137.7	
374.31	4469.4	
374.51	4095.9	
374.72	5892	
374.92	4907.6	
375.13	4691.9	
375.33	3971	
375.54	5520	
375.74	4988.2	
375.95	4029	
376.15	5209.3	
376.36	5489.9	
376.56	5358.9	
376.77	4030.4	
376.97	4502.1	
377.18	6483.2	
377.38	5546.6	
377.59	4747.9	
377.79	3551.9	
378	5358.9	
378.2	5773.9	
378.41	3678.2	
378.61	3571	
378.82	5801.9	
379.02	5025.7	
379.23	3865.2	
379.43	4906.3	
379.64	5967.8	
379.84	5482.4	
380.05	3689.1	
380.25	3580.5	
380.46	5667.4	
380.66	5197.1	
380.87	4853	
381.07	5270.1	
381.28	6212.9	
381.48	5602.6	
381.69	3670.6	
381.89	3713	
382.1	4714.4	
382.3	5750	
382.51	4759.5	
382.71	5527.5	
382.91	5651	
383.12	6149.4	
383.32	3978.5	
383.53	4185.4	
383.73	5555.5	
383.94	5340.4	
384.14	4146.5	
384.35	3381.9	
384.55	5252.4	
384.76	5722	
384.96	4029.7	
385.17	4390.2	
385.37	5646.2	
385.58	4942.4	
385.78	4292.5	
385.98	3366.2	
386.19	5178.6	
386.39	5555.5	
386.6	3847.5	
386.8	4042.7	
387.01	5685.2	
387.21	5634.6	
387.42	4414.7	
387.62	4863.9	
387.83	5009.3	
388.03	5636	
388.23	4044.1	
388.44	4814.8	
388.64	4663.9	
388.85	4857.1	
389.05	4389.5	
389.26	4951.3	
389.46	6608.1	
389.67	6014.9	
389.87	4336.2	
390.07	4442.7	
390.28	5281	
390.48	4894	
390.69	3654.3	
390.89	3939.6	
391.1	5065.3	
391.3	5943.9	
391.5	5081.7	
391.71	5612.8	
391.91	5772.5	
392.12	6593.8	
392.32	5104.9	
392.53	4370.4	
392.73	5157.5	
392.93	5287.2	
393.14	4078.2	
393.34	4792.9	
393.55	5720.7	
393.75	5335	
393.95	4106.2	
394.16	4032.5	
394.36	5068	
394.57	5800.5	
394.77	3616.7	
394.98	4018.8	
395.18	5092.6	
395.38	5266	
395.59	4707.6	
395.79	3859.1	
396	5173.2	
396.2	5628.5	
396.4	4627.7	
396.61	4511	
396.81	5752.7	
397.02	5120.6	
397.22	4835.3	
397.42	4849.6	
397.63	5802.6	
397.83	5063.3	
398.04	3766.9	
398.24	4284.4	
398.44	5601.9	
398.65	5179.3	
398.85	3624.9	
399.05	3716.4	
399.26	4990.9	
399.46	6640.9	
399.67	4087.7	
399.87	3816	
400.07	5414.1	
400.28	5687.2	
400.48	3950.5	
400.69	4891.9	
400.89	6143.9	
401.09	6322.1	
401.3	3809.2	
401.5	4928.8	
401.7	6583.5	
401.91	6768.5	
402.11	4199.7	
402.32	4368.3	
402.52	5961	
402.72	5882.4	
402.93	4610	
403.13	3547.8	
403.33	6666.1	
403.54	5422.3	
403.74	4362.9	
403.94	5120.6	
404.15	5558.2	
404.35	6556.2	
404.56	4061.1	
404.76	5734.3	
404.96	5922	
405.17	5741.1	
405.37	5363.6	
405.57	4568.3	
405.78	5967.8	
405.98	5439.4	
406.18	4129.4	
406.39	5005.9	
406.59	5952.1	
406.79	5547.9	
407	3977.8	
407.2	3992.9	
407.4	5969.8	
407.61	6103.6	
407.81	3988.1	
408.01	5874.3	
408.22	4956.8	
408.42	6813.6	
408.62	4969.7	
408.83	4515.1	
409.03	5545.9	
409.23	5390.9	
409.44	4493.9	
409.64	4827.7	
409.84	6379.4	
410.05	6283.2	
410.25	4698.7	
410.45	4456.4	
410.66	5814.2	
410.86	8190.5	
411.06	4875.5	
411.27	4782	
411.47	7823.2	
411.67	6030.6	
411.88	4966.3	
412.08	5145.9	
412.28	6583.5	
412.49	7003.4	
412.69	4706.9	
412.89	4775.2	
413.09	6841.6	
413.3	6727.6	
413.5	4846.9	
413.7	4449.6	
413.91	6027.9	
414.11	6855.2	
414.31	4743.8	
414.52	5134.3	
414.72	6567.2	
414.92	6410.8	
415.12	4692.6	
415.33	5143.1	
415.53	6826.6	
415.73	7043	
415.94	5499.5	
416.14	4973.8	
416.34	5909.8	
416.55	5606	
416.75	6163.7	
416.95	5597.8	
417.15	6855.2	
417.36	7522.2	
417.56	6250.4	
417.76	5433.9	
417.97	7225.2	
418.17	6869.6	
418.37	5008.6	
418.57	5111.7	
418.78	6713.9	
418.98	6450.4	
419.18	5904.3	
419.38	5778.7	
419.59	6431.3	
419.79	6062.7	
419.99	4977.2	
420.2	5376.6	
420.4	6969.2	
420.6	7070.3	
420.8	4889.9	
421.01	4782.7	
421.21	6718	
421.41	6936.5	
421.61	5284.4	
421.82	4965.6	
422.02	6314.6	
422.22	7195.2	
422.42	5780.7	
422.63	5438.7	
422.83	6462	
423.03	7540.6	
423.23	5483.8	
423.44	4463.2	
423.64	6507.1	
423.84	6230.6	
424.04	4989.5	
424.25	4566.3	
424.45	7372.7	
424.65	7240.3	
424.85	4483	
425.06	4967	
425.26	7378.1	
425.46	6331.6	
425.66	5478.3	
425.87	5200.5	
426.07	7152.2	
426.27	6897.6	
426.47	5332.9	
426.67	4714.4	
426.88	7414.3	
427.08	6932.4	
427.28	5601.9	
427.48	4646.8	
427.69	5936.4	
427.89	6499.6	
428.09	5507	
428.29	4707.6	
428.5	7184.3	
428.7	6742.6	
428.9	4619.5	
429.1	5099.4	
429.3	6657.3	
429.51	7034.8	
429.71	4890.5	
429.91	5709.7	
430.11	6968.6	
430.31	7167.9	
430.52	5210.7	
430.72	5455.8	
430.92	7432.1	
431.12	6940.6	
431.32	4932.2	
431.53	5304.2	
431.73	5995.1	
431.93	7587.7	
432.13	4853.7	
432.33	4724	
432.54	6447	
432.74	6778.8	
432.94	4666	
433.14	5657.2	
433.34	6948.1	
433.55	6482.5	
433.75	5640.8	
433.95	7202	
434.15	6762.4	
434.35	6505	
434.56	4869.4	
434.76	4410.6	
434.96	6741.9	
435.16	6984.9	
435.36	4815.5	
435.56	5844.2	
435.77	6445.6	
435.97	6670.2	
436.17	6476.4	
436.37	5744.6	
436.57	6366.5	
436.78	6343.2	
436.98	7388.4	
437.18	6376.7	
437.38	7053.2	
437.58	6650.4	
437.78	6436.8	
437.99	5232.6	
438.19	7139.9	
438.39	7853.3	
438.59	5161.6	
438.79	4686.4	
438.99	7700.4	
439.2	6604.7	
439.4	4820.2	
439.6	4751.3	
439.8	6920.1	
440	7953.6	
440.2	5728.2	
440.4	5847	
440.61	7282.6	
440.81	7709.2	
441.01	4953.4	
441.21	5833.3	
441.41	7602.1	
441.61	7319.4	
441.81	6124.1	
442.02	6984.9	
442.22	8175.5	
442.42	7398.6	
442.62	5127.4	
442.82	5122.7	
443.02	7784.3	
443.22	6875.7	
443.43	5561.6	
443.63	5126.1	
443.83	6681.2	
444.03	6695.5	
444.23	6256.5	
444.43	5903.6	
444.63	7002	
444.83	8208.9	
445.04	5302.2	
445.24	6354.8	
445.44	7407.5	
445.64	7458.7	
445.84	6006.7	
446.04	6040.8	
446.24	6806.8	
446.44	7786.4	
446.65	5212.1	
446.85	5670.1	
447.05	6868.9	
447.25	7723.6	
447.45	5728.9	
447.65	5213.4	
447.85	7131.7	
448.05	6736.5	
448.25	6085.9	
448.46	5944.6	
448.66	7084.6	
448.86	6884.6	
449.06	5053	
449.26	6064.7	
449.46	7496.2	
449.66	6572.6	
449.86	5613.5	
450.06	5646.9	
450.26	6793.8	
450.47	7325.6	
450.67	5844.2	
450.87	6210.8	
451.07	7391.8	
451.27	7215.7	
451.47	5261.2	
451.67	5769.1	
451.87	6942.6	
452.07	7955	
452.27	5550.7	
452.47	5458.5	
452.67	7314.7	
452.88	7677.8	
453.08	4872.1	
453.28	6785.6	
453.48	8312.7	
453.68	7172	
453.88	5388.9	
454.08	5719.3	
454.28	7565.2	
454.48	7235.5	
454.68	6160.3	
454.88	6567.8	
455.08	7628	
455.28	7379.5	
455.48	5288.5	
455.68	5871.5	
455.89	8116.1	
456.09	7770.7	
456.29	5610.1	
456.49	5724.1	
456.69	8018.5	
456.89	7304.4	
457.09	6170.5	
457.29	6537.8	
457.49	7632.8	
457.69	7758.4	
457.89	6059.9	
458.09	5445.5	
458.29	7394.5	
458.49	8094.9	
458.69	6443.6	
458.89	5994.4	
459.09	8346.2	
459.29	8488.8	
459.49	5966.4	
459.69	6794.5	
459.9	7984.3	
460.1	7446.4	
460.3	5909.1	
460.5	5772.5	
460.7	7972.1	
460.9	7651.9	
461.1	5425.8	
461.3	6662.7	
461.5	8484.7	
461.7	8189.1	
461.9	5824.4	
462.1	6299.6	
462.3	7740.6	
462.5	8229.4	
462.7	6058.6	
462.9	5999.2	
463.1	9247.9	
463.3	8950.3	
463.5	6224.5	
463.7	7079.1	
463.9	7925.6	
464.1	8342.1	
464.3	6448.4	
464.5	6664.1	
464.7	8639.7	
464.9	8275.2	
465.1	7872.4	
465.3	7049.1	
465.5	8919.6	
465.7	8906.6	
465.9	7233.4	
466.1	7039.6	
466.3	8736	
466.5	8511.4	
466.7	7888.1	
466.9	6947.4	
467.1	8526.4	
467.3	9491	
467.5	7954.3	
467.7	6781.5	
467.9	9684.8	
468.1	10460	
468.3	7582.9	
468.5	8041	
468.7	8559.8	
468.9	8529.1	
469.1	7141.3	
469.3	7769.3	
469.5	10448	
469.7	8220.5	
469.9	7535.8	
470.1	6963.1	
470.3	8621.3	
470.5	8675.2	
470.7	8191.2	
470.9	6995.9	
471.1	8400.1	
471.3	8752.3	
471.5	6841.6	
471.69	8624.7	
471.89	8444.5	
472.09	7901.1	
472.29	7601.4	
472.49	7976.2	
472.69	8096.3	
472.89	8835.6	
473.09	6762.4	
473.29	6920.1	
473.49	8315.4	
473.69	8341.4	
473.89	7817.8	
474.09	7058	
474.29	9601.6	
474.49	9297.8	
474.69	7743.4	
474.89	7198.6	
475.09	8480.6	
475.29	8456.7	
475.49	6664.8	
475.69	6894.8	
475.88	9923.1	
476.08	8662.2	
476.28	6638.1	
476.48	6982.9	
476.68	9206.3	
476.88	8976.9	
477.08	6836.1	
477.28	7136.5	
477.48	8533.9	
477.68	9084.1	
477.88	6748.7	
478.08	7033.4	
478.28	9368.8	
478.48	8626.7	
478.67	7111.9	
478.87	6529.6	
479.07	9331.2	
479.27	8725.7	
479.47	7294.2	
479.67	7280.5	
479.87	9036.3	
480.07	9550.4	
480.27	6597.9	
480.47	8147.5	
480.67	8847.9	
480.87	9422	
481.06	6938.5	
481.26	7692.2	
481.46	8711.4	
481.66	8706.6	
481.86	7226.6	
482.06	8299.1	
482.26	8508.6	
482.46	9472.5	
482.66	7301.7	
482.86	6869.6	
483.05	8773.5	
483.25	8312	
483.45	9557.2	
483.65	7367.9	
483.85	8436.9	
484.05	8742.1	
484.25	7748.8	
484.45	8192.6	
484.65	9553.1	
484.84	9535.3	
485.04	7210.9	
485.24	7197.2	
485.44	9835	
485.64	8244.4	
485.84	6621.8	
486.04	8037.6	
486.24	8694.3	
486.44	8976.9	
486.63	6564.4	
486.83	7421.8	
487.03	8606.2	
487.23	8831.5	
487.43	6738.5	
487.63	8934.6	
487.83	8852	
488.02	9723.8	
488.22	7714.7	
488.42	8208.9	
488.62	9775.6	
488.82	8718.9	
489.02	7382.2	
489.22	7431.4	
489.41	9569.5	
489.61	9232.2	
489.81	7187.7	
490.01	7095.5	
490.21	9519	
490.41	10140	
490.61	7135.8	
490.8	7277.1	
491	9138.7	
491.2	8434.9	
491.4	7834.2	
491.6	7004.7	
491.8	9018.6	
491.99	9138	
492.19	6887.3	
492.39	7273	
492.59	9555.8	
492.79	9586.5	
492.99	8011	
493.18	7226.6	
493.38	9658.9	
493.58	10312	
493.78	7828	
493.98	7499.7	
494.18	9351	
494.37	9028.1	
494.57	8111.3	
494.77	8072.4	
494.97	9761.3	
495.17	10015	
495.37	7645.8	
495.56	8075.1	
495.76	10232	
495.96	9858.2	
496.16	8920.3	
496.36	7974.1	
496.55	10084	
496.75	9593.4	
496.95	8304.5	
497.15	8219.9	
497.35	10030	
497.54	10086	
497.74	8050.6	
497.94	9486.9	
498.14	10729	
498.34	10557	
498.53	7787.1	
498.73	8465.6	
498.93	9564.7	
499.13	10206	
499.33	8350.3	
499.52	8869.1	
499.72	10075	
499.92	10341	
500.12	8072.4	
500.32	8291.5	
500.51	10381	
500.71	10186	
500.91	9033.6	
501.11	8703.2	
501.31	10389	
501.5	10711	
501.7	9454.1	
501.9	8359.1	
502.1	10196	
502.29	10426	
502.49	8804.9	
502.69	9269.8	
502.89	10363	
503.09	10457	
503.28	7958.4	
503.48	8083.3	
503.68	9601.6	
503.88	9599.5	
504.07	9005.6	
504.27	8430.1	
504.47	10021	
504.67	10113	
504.86	8880	
505.06	8514.8	
505.26	9723.8	
505.46	11372	
505.65	8398	
505.85	8739.4	
506.05	9710.1	
506.25	10081	
506.44	7952.9	
506.64	8778.3	
506.84	9601.6	
507.04	10402	
507.23	8065.6	
507.43	8569.4	
507.63	11460	
507.83	9821.4	
508.02	8519.5	
508.22	8293.6	
508.42	11684	
508.62	9611.8	
508.81	8480	
509.01	8980.3	
509.21	9572.9	
509.4	9819.3	
509.6	8697	
509.8	8087.4	
510	9717.6	
510.19	11067	
510.39	8059.4	
510.59	8153	
510.79	9637.1	
510.98	10892	
511.18	8306.6	
511.38	8434.2	
511.57	10445	
511.77	10233	
511.97	9014.5	
512.17	8009.6	
512.36	10370	
512.56	10376	
512.76	8207.6	
512.95	7929.7	
513.15	10614	
513.35	9318.9	
513.55	9031.5	
513.74	8179.6	
513.94	10491	
514.14	9994.8	
514.33	9201.5	
514.53	8923.7	
514.73	9936.1	
514.92	10147	
515.12	8474.5	
515.32	8221.9	
515.51	10279	
515.71	10887	
515.91	9897.2	
516.11	8370	
516.3	11828	
516.5	9979.8	
516.7	8977.6	
516.89	9565.4	
517.09	10104	
517.29	10009	
517.48	9406.3	
517.68	8658.8	
517.88	9905.3	
518.07	10464	
518.27	9208.4	
518.47	8296.3	
518.66	10966	
518.86	9835.7	
519.06	8219.9	
519.25	8660.2	
519.45	10183	
519.65	11458	
519.84	9268.4	
520.04	9886.9	
520.24	11787	
520.43	10740	
520.63	8999.5	
520.83	8763.9	
521.02	9995.5	
521.22	10748	
521.42	9361.3	
521.61	9858.9	
521.81	10277	
522.01	10530	
522.2	9309.4	
522.4	9039.1	
522.6	11031	
522.79	9879.4	
522.99	9153.7	
523.18	8662.2	
523.38	10836	
523.58	10794	
523.77	10533	
523.97	8720.3	
524.17	12671	
524.36	11911	
524.56	9998.2	
524.76	9781.1	
524.95	11068	
525.15	10867	
525.34	9660.3	
525.54	9749	
525.74	11592	
525.93	10713	
526.13	10945	
526.33	9846	
526.52	12058	
526.72	11616	
526.91	11114	
527.11	10371	
527.31	12142	
527.5	12587	
527.7	10405	
527.89	9452.1	
528.09	11263	
528.29	11784	
528.48	10793	
528.68	10422	
528.87	12158	
529.07	12207	
529.27	10570	
529.46	10061	
529.66	12060	
529.85	12370	
530.05	9987.3	
530.25	10738	
530.44	13268	
530.64	11895	
530.83	10427	
531.03	10589	
531.23	12410	
531.42	12308	
531.62	11506	
531.81	10715	
532.01	12737	
532.21	13093	
532.4	10647	
532.6	11061	
532.79	13758	
532.99	12919	
533.18	11205	
533.38	12063	
533.58	12573	
533.77	13269	
533.97	11216	
534.16	12117	
534.36	13656	
534.55	12771	
534.75	12301	
534.95	11375	
535.14	13660	
535.34	12871	
535.53	11057	
535.73	12957	
535.92	14164	
536.12	13003	
536.31	11218	
536.51	12288	
536.71	13309	
536.9	12994	
537.1	11401	
537.29	11558	
537.49	13738	
537.68	12965	
537.88	11954	
538.07	11059	
538.27	13120	
538.46	14092	
538.66	11157	
538.86	11679	
539.05	13246	
539.25	13667	
539.44	12030	
539.64	11531	
539.83	13062	
540.03	14030	
540.22	11509	
540.42	11558	
540.61	13349	
540.81	13476	
541	11847	
541.2	12665	
541.39	13004	
541.59	13346	
541.78	12448	
541.98	11428	
542.18	12624	
542.37	12530	
542.57	11684	
542.76	12316	
542.96	12639	
543.15	13346	
543.35	11838	
543.54	11103	
543.74	13463	
543.93	13173	
544.13	11741	
544.32	12756	
544.52	13392	
544.71	12699	
544.91	10904	
545.1	11947	
545.3	12800	
545.49	13347	
545.69	10768	
545.88	11329	
546.08	14385	
546.27	13795	
546.47	11815	
546.66	11010	
546.86	13592	
547.05	14065	
547.24	11391	
547.44	11323	
547.63	12645	
547.83	13618	
548.02	11650	
548.22	11775	
548.41	12477	
548.61	13587	
548.8	11204	
549	11196	
549.19	12979	
549.39	13345	
549.58	10787	
549.78	11528	
549.97	13405	
550.17	12814	
550.36	12168	
550.55	13087	
550.75	12795	
550.94	13702	
551.14	11029	
551.33	11398	
551.53	12169	
551.72	13157	
551.92	11379	
552.11	11168	
552.31	13111	
552.5	13153	
552.69	12766	
552.89	10800	
553.08	13015	
553.28	12879	
553.47	11192	
553.67	12209	
553.86	13669	
554.06	12073	
554.25	10406	
554.44	11039	
554.64	14448	
554.83	13933	
555.03	10910	
555.22	11316	
555.42	13254	
555.61	12936	
555.8	11171	
556	11379	
556.19	12058	
556.39	13286	
556.58	11183	
556.78	11064	
556.97	12807	
557.16	12522	
557.36	12353	
557.55	10821	
557.75	11863	
557.94	13604	
558.13	10848	
558.33	10639	
558.52	13349	
558.72	12344	
558.91	10776	
559.1	10977	
559.3	12032	
559.49	11739	
559.69	10379	
559.88	11266	
560.07	12719	
560.27	13153	
560.46	11396	
560.66	11485	
560.85	12462	
561.04	11704	
561.24	10619	
561.43	10691	
561.63	11900	
561.82	12252	
562.01	12032	
562.21	11099	
562.4	12704	
562.59	13523	
562.79	10907	
562.98	10694	
563.18	12539	
563.37	14034	
563.56	11356	
563.76	10623	
563.95	12239	
564.14	12092	
564.34	10927	
564.53	10583	
564.73	12709	
564.92	12922	
565.11	11123	
565.31	10572	
565.5	13212	
565.69	12260	
565.89	10750	
566.08	11030	
566.27	13005	
566.47	13482	
566.66	11771	
566.85	10482	
567.05	12765	
567.24	12136	
567.44	10761	
567.63	11991	
567.82	12903	
568.02	12737	
568.21	10710	
568.4	11152	
568.6	12623	
568.79	12507	
568.98	10627	
569.18	10781	
569.37	12616	
569.56	14534	
569.76	11167	
569.95	12035	
570.14	12902	
570.34	12837	
570.53	10645	
570.72	10700	
570.91	13336	
571.11	12492	
571.3	10979	
571.49	11831	
571.69	12628	
571.88	12213	
572.07	11563	
572.27	11469	
572.46	12144	
572.65	13059	
572.85	10879	
573.04	11091	
573.23	13267	
573.43	12632	
573.62	10634	
573.81	11305	
574	12692	
574.2	12561	
574.39	11021	
574.58	11204	
574.78	13594	
574.97	12938	
575.16	11679	
575.36	11828	
575.55	13302	
575.74	13377	
575.93	10817	
576.13	11944	
576.32	12649	
576.51	13227	
576.71	11200	
576.9	12433	
577.09	13551	
577.28	12989	
577.48	11508	
577.67	10744	
577.86	12609	
578.05	12996	
578.25	11359	
578.44	11411	
578.63	12853	
578.83	13975	
579.02	10688	
579.21	12213	
579.4	12946	
579.6	12681	
579.79	11359	
579.98	13337	
580.17	13276	
580.37	13390	
580.56	10811	
580.75	11609	
580.94	13872	
581.14	13640	
581.33	12114	
581.52	11028	
581.71	13059	
581.91	13676	
582.1	10728	
582.29	11217	
582.48	12800	
582.68	12728	
582.87	11796	
583.06	11482	
583.25	13108	
583.45	12546	
583.64	11927	
583.83	12693	
584.02	12705	
584.21	13125	
584.41	11793	
584.6	11248	
584.79	12834	
584.98	13510	
585.18	10870	
585.37	10788	
585.56	12391	
585.75	13053	
585.94	10948	
586.14	11656	
586.33	13568	
586.52	12763	
586.71	11394	
586.91	11130	
587.1	12080	
587.29	13087	
587.48	10925	
587.67	10896	
587.87	12755	
588.06	12896	
588.25	12048	
588.44	11489	
588.63	12512	
588.83	13032	
589.02	10797	
589.21	10606	
589.4	12228	
589.59	12090	
589.78	9924.5	
589.98	10120	
590.17	11528	
590.36	12066	
590.55	9432.9	
590.74	10133	
590.94	13122	
591.13	11871	
591.32	9865.7	
591.51	9477.3	
591.7	12237	
591.89	11658	
592.09	9507.4	
592.28	9974.3	
592.47	10970	
592.66	12754	
592.85	9596.8	
593.05	9878.7	
593.24	11659	
593.43	12380	
593.62	10001	
593.81	10341	
594	11743	
594.19	11878	
594.39	9669.8	
594.58	9626.8	
594.77	11970	
594.96	12402	
595.15	9695.8	
595.34	10312	
595.54	11896	
595.73	11055	
595.92	9092.3	
596.11	10068	
596.3	12447	
596.49	11237	
596.68	9994.1	
596.88	10321	
597.07	12118	
597.26	10933	
597.45	9379.7	
597.64	10598	
597.83	11092	
598.02	11721	
598.22	9427.5	
598.41	10191	
598.6	11620	
598.79	10999	
598.98	9599.5	
599.17	10391	
599.36	11481	
599.55	12534	
599.74	11379	
599.94	11135	
600.13	12072	
600.32	10890	
600.51	9154.4	
600.7	9343.5	
600.89	12495	
601.08	12564	
601.27	9155.8	
601.47	10012	
601.66	11868	
601.85	12446	
602.04	9806.4	
602.23	9736.7	
602.42	11011	
602.61	11494	
602.8	9603.6	
602.99	9383.1	
603.18	11338	
603.37	11480	
603.57	10003	
603.76	10396	
603.95	12226	
604.14	11803	
604.33	9450.7	
604.52	9761.3	
604.71	11421	
604.9	11158	
605.09	10546	
605.28	10206	
605.47	12020	
605.66	11746	
605.86	10028	
606.05	9544.9	
606.24	11961	
606.43	10535	
606.62	9708.1	
606.81	10488	
607	11785	
607.19	11210	
607.38	9172.9	
607.57	9548.3	
607.76	11050	
607.95	10487	
608.14	9803.6	
608.33	10402	
608.52	10890	
608.72	11678	
608.91	9009.7	
609.1	8979	
609.29	10922	
609.48	10490	
609.67	9929.2	
609.86	8972.8	
610.05	10664	
610.24	10881	
610.43	8930.5	
610.62	8494.3	
610.81	11885	
611	11647	
611.19	8938.7	
611.38	9617.9	
611.57	11153	
611.76	12327	
611.95	8733.9	
612.14	8559.8	
612.33	10938	
612.52	10461	
612.71	9277.3	
612.9	8520.2	
613.09	10090	
613.28	12296	
613.47	9069.1	
613.66	9887.6	
613.85	11043	
614.04	10556	
614.24	9045.2	
614.43	8274.5	
614.62	11138	
614.81	11021	
615	9506.7	
615.19	9555.8	
615.38	10408	
615.57	10781	
615.76	9401.5	
615.95	10322	
616.14	11087	
616.33	10840	
616.52	9716.2	
616.71	9936.7	
616.9	11169	
617.09	10970	
617.28	9110	
617.47	10226	
617.66	10320	
617.85	10330	
618.04	10021	
618.22	9563.3	
618.41	10553	
618.6	11497	
618.79	9450	
618.98	9153.1	
619.17	11921	
619.36	10267	
619.55	9389.3	
619.74	9396.8	
619.93	11273	
620.12	10738	
620.31	9823.4	
620.5	10163	
620.69	11680	
620.88	12067	
621.07	10726	
621.26	9807	
621.45	11542	
621.64	11353	
621.83	9996.1	
622.02	9232.9	
622.21	11422	
622.4	11324	
622.59	10509	
622.78	10297	
622.97	10867	
623.16	11889	
623.35	9984.5	
623.54	9288.9	
623.72	11148	
623.91	11313	
624.1	10266	
624.29	8923.7	
624.48	12383	
624.67	11602	
624.86	10142	
625.05	9294.4	
625.24	12402	
625.43	10940	
625.62	11712	
625.81	9442.5	
626	11744	
626.19	11229	
626.38	10297	
626.56	9602.2	
626.75	11090	
626.94	11817	
627.13	10213	
627.32	9019.9	
627.51	11732	
627.7	12921	
627.89	9069.1	
628.08	10300	
628.27	10899	
628.46	11092	
628.65	9493	
628.83	9198.1	
629.02	11577	
629.21	10910	
629.4	9935.4	
629.59	9966.1	
629.78	10969	
629.97	11736	
630.16	10135	
630.35	9544.2	
630.54	12273	
630.72	11898	
630.91	9637.7	
631.1	10117	
631.29	11452	
631.48	11673	
631.67	10201	
631.86	9628.2	
632.05	11101	
632.24	11118	
632.42	9303.9	
632.61	9966.1	
632.8	11138	
632.99	10786	
633.18	9931.3	
633.37	10273	
633.56	11389	
633.75	11209	
633.93	9894.4	
634.12	9611.1	
634.31	12204	
634.5	11903	
634.69	9578.3	
634.88	10144	
635.07	11216	
635.25	11757	
635.44	10507	
635.63	10687	
635.82	11027	
636.01	10522	
636.2	10376	
636.39	9901.9	
636.57	12086	
636.76	11717	
636.95	9312.1	
637.14	10673	
637.33	11417	
637.52	12330	
637.7	9159.2	
637.89	10137	
638.08	11077	
638.27	12431	
638.46	10159	
638.65	10413	
638.83	12336	
639.02	10792	
639.21	10021	
639.4	10506	
639.59	11207	
639.78	10879	
639.96	9133.3	
640.15	9306	
640.34	11086	
640.53	11230	
640.72	9043.8	
640.91	9257.5	
641.09	10447	
641.28	11731	
641.47	9226.8	
641.66	10074	
641.85	11060	
642.03	11232	
642.22	9759.3	
642.41	9224.7	
642.6	10439	
642.79	9928.6	
642.97	8938.7	
643.16	9722.4	
643.35	10474	
643.54	10193	
643.73	8891.6	
643.91	9682.8	
644.1	10028	
644.29	10675	
644.48	8974.9	
644.67	8972.8	
644.85	10170	
645.04	10510	
645.23	8433.5	
645.42	8738	
645.6	10019	
645.79	11034	
645.98	8648.6	
646.17	7750.2	
646.36	9659.6	
646.54	10212	
646.73	9412.5	
646.92	8317.5	
647.11	9805	
647.29	10920	
647.48	8240.3	
647.67	8039.6	
647.86	10993	
648.05	11090	
648.23	8501.1	
648.42	9779.1	
648.61	10402	
648.8	10116	
648.98	8070.4	
649.17	8464.3	
649.36	9703.3	
649.55	9200.2	
649.73	8232.2	
649.92	8876.6	
650.11	9593.4	
650.3	9878.7	
650.48	8299.1	
650.67	7970.7	
650.86	10173	
651.05	9152.4	
651.23	8236.2	
651.42	8101.8	
651.61	9565.4	
651.79	9621.4	
651.98	8399.4	
652.17	8030.1	
652.36	9904	
652.54	9089.6	
652.73	8003.5	
652.92	7864.2	
653.11	9912.9	
653.29	10038	
653.48	7299.6	
653.67	8254	
653.85	9797.5	
654.04	10621	
654.23	8448.6	
654.42	7950.9	
654.6	9200.2	
654.79	9679.4	
654.98	7425.3	
655.16	7940	
655.35	8708	
655.54	8630.1	
655.73	7274.4	
655.91	7308.5	
656.1	9651.4	
656.29	8585.8	
656.47	6865.5	
656.66	8424	
656.85	8837.7	
657.03	8933.9	
657.22	7380.2	
657.41	7541.3	
657.59	8969.4	
657.78	8790.6	
657.97	7167.2	
658.16	7858.7	
658.34	9681.4	
658.53	9926.5	
658.72	8682.7	
658.9	9151	
659.09	9093	
659.28	9101.9	
659.46	7678.5	
659.65	7648.5	
659.84	8902.5	
660.02	9352.4	
660.21	7370	
660.4	7422.5	
660.58	9711.5	
660.77	9077.3	
660.96	7942.7	
661.14	7062.1	
661.33	10199	
661.52	10071	
661.7	6959	
661.89	10400	
662.08	8762.6	
662.26	8350.3	
662.45	7278.5	
662.64	7303.7	
662.82	9386.5	
663.01	8631.5	
663.2	7415.7	
663.38	8101.8	
663.57	9310.1	
663.75	9102.5	
663.94	7637.6	
664.13	8861.6	
664.31	8622.6	
664.5	9379.7	
664.69	7786.4	
664.87	8419.9	
665.06	8383	
665.25	9157.8	
665.43	8613.8	
665.62	8641.1	
665.8	9353.1	
665.99	8703.2	
666.18	7555	
666.36	7610.9	
666.55	9354.4	
666.74	9359.9	
666.92	7251.9	
667.11	8760.5	
667.29	8774.9	
667.48	9357.9	
667.67	8338	
667.85	7427.3	
668.04	8766.7	
668.22	8768.7	
668.41	7534.5	
668.6	7733.8	
668.78	8523	
668.97	8788.5	
669.15	7863.5	
669.34	6911.9	
669.53	8663.6	
669.71	8903.2	
669.9	7086	
670.08	7750.9	
670.27	8516.8	
670.46	9118.2	
670.64	7806.9	
670.83	8065.6	
671.01	8425.3	
671.2	8959.9	
671.38	7197.9	
671.57	7136.5	
671.76	9527.2	
671.94	10064	
672.13	7000.6	
672.31	7922.9	
672.5	9202.9	
672.69	8559.8	
672.87	7124.2	
673.06	7434.8	
673.24	8955.8	
673.43	8563.2	
673.61	7795.9	
673.8	7416.4	
673.98	9179.7	
674.17	9293.7	
674.36	7907.2	
674.54	7789.8	
674.73	8921.6	
674.91	9153.1	
675.1	7611.6	
675.28	7201.3	
675.47	8780.3	
675.65	9245.2	
675.84	7380.9	
676.03	7786.4	
676.21	8590.5	
676.4	8129.8	
676.58	8123.6	
676.77	7918.1	
676.95	9895.8	
677.14	8414.4	
677.32	7094.8	
677.51	6877.8	
677.69	9335.3	
677.88	8181.6	
678.06	7040.9	
678.25	7217.7	
678.44	8753.7	
678.62	8507.3	
678.81	6825.2	
678.99	7888.8	
679.18	9505.3	
679.36	9097.8	
679.55	7378.8	
679.73	8005.5	
679.92	9186.5	
680.1	8552.3	
680.29	8591.9	
680.47	7391.1	
680.66	8507.9	
680.84	9299.1	
681.03	6750.8	
681.21	7826	
681.4	8578.3	
681.58	8456.1	
681.77	7196.6	
681.95	7073	
682.14	9372.2	
682.32	9671.2	
682.51	7985.7	
682.69	6920.1	
682.88	8463.6	
683.06	9079.3	
683.25	7694.2	
683.43	8134.5	
683.62	8744.1	
683.8	9161.9	
683.99	8243.8	
684.17	7613	
684.36	9937.4	
684.54	8764.6	
684.73	6790.4	
684.91	7023.9	
685.1	8981	
685.28	8341.4	
685.46	7501.7	
685.65	7556.3	
685.83	9022	
686.02	8488.1	
686.2	6995.9	
686.39	7115.3	
686.57	8162.5	
686.76	9716.9	
686.94	7128.3	
687.13	7259.4	
687.31	8963.3	
687.5	8641.1	
687.68	6787.7	
687.86	7902.4	
688.05	10238	
688.23	8186.4	
688.42	8124.3	
688.6	7319.4	
688.79	8632.2	
688.97	8729.8	
689.16	7750.2	
689.34	6816.3	
689.52	9345.6	
689.71	9582.4	
689.89	8146.8	
690.08	7422.5	
690.26	9050	
690.45	8862.2	
690.63	8245.1	
690.81	7654.6	
691	8901.8	
691.18	8822.6	
691.37	7821.2	
691.55	9871.9	
691.74	8791.9	
691.92	10733	
692.1	7852.6	
692.29	7299	
692.47	9169.4	
692.66	8462.9	
692.84	7561.1	
693.02	8149.6	
693.21	8699.1	
693.39	9050	
693.58	8312.7	
693.76	7721.5	
693.94	10297	
694.13	10166	
694.31	7806.2	
694.5	8884.8	
694.68	9127.8	
694.86	9637.7	
695.05	8319.5	
695.23	8376.9	
695.42	10017	
695.6	12154	
695.78	8983.1	
695.97	8107.9	
696.15	10101	
696.34	9604.3	
696.52	8033.5	
696.7	8806.3	
696.89	9968.8	
697.07	9344.9	
697.25	8673.8	
697.44	10146	
697.62	9977	
697.81	10198	
697.99	8446.5	
698.17	9014.5	
698.36	9361.9	
698.54	10019	
698.72	8813.1	
698.91	7940	
699.09	9669.1	
699.28	9572.9	
699.46	8651.3	
699.64	8432.2	
699.83	9543.5	
700.01	10697	
700.19	9261.6	
700.38	7877.2	
700.56	10744	
700.74	9838.4	
700.93	8357.8	
701.11	9105.3	
701.29	10305	
701.48	11381	
701.66	8596.7	
701.84	8716.8	
702.03	10075	
702.21	10637	
702.39	8346.8	
702.58	8951.7	
702.76	10537	
702.94	10733	
703.13	8372.1	
703.31	10769	
703.49	9898.5	
703.68	11355	
703.86	8618.5	
704.04	9582.4	
704.23	10492	
704.41	10858	
704.59	8879.3	
704.78	9979.1	
704.96	11619	
705.14	10830	
705.33	8673.8	
705.51	9418.6	
705.69	10419	
705.87	11254	
706.06	9783.1	
706.24	8688.2	
706.42	10796	
706.61	11022	
706.79	9864.4	
706.97	8782.4	
707.16	10190	
707.34	10788	
707.52	9770.9	
707.7	9050.7	
707.89	10462	
708.07	10178	
708.25	9915.6	
708.44	10129	
708.62	10445	
708.8	11461	
708.98	10081	
709.17	9175.6	
709.35	10793	
709.53	10784	
709.72	8941.4	
709.9	9366	
710.08	11085	
710.26	11144	
710.45	10455	
710.63	9245.9	
710.81	10787	
710.99	10770	
711.18	9749	
711.36	9420	
711.54	10582	
711.72	11124	
711.91	9452.1	
712.09	8817.2	
712.27	10809	
712.45	11268	
712.64	9546.3	
712.82	8543.4	
713	10058	
713.18	10194	
713.37	8629.5	
713.55	9822.1	
713.73	10960	
713.91	9523.7	
714.1	8852	
714.28	8299.1	
714.46	10308	
714.64	9467.8	
714.83	7379.5	
715.01	8028.7	
715.19	9318.3	
715.37	8678.6	
715.55	7544.7	
715.74	7815	
715.92	9878.7	
716.1	8043.7	
716.28	8858.1	
716.47	7918.8	
716.65	8650.6	
716.83	8721.6	
717.01	7791.2	
717.19	7781.6	
717.38	10691	
717.56	8473.8	
717.74	8097.7	
717.92	7180.2	
718.1	9682.1	
718.29	8874.5	
718.47	7042.3	
718.65	7633.5	
718.83	9821.4	
719.01	9807	
719.2	7178.1	
719.38	8314.1	
719.56	9699.2	
719.74	11293	
719.92	7902.4	
720.11	8839.7	
720.29	9691	
720.47	8821.3	
720.65	7400.7	
720.83	8072.4	
721.02	8914.8	
721.2	8626.7	
721.38	7975.5	
721.56	7184.3	
721.74	8144.1	
721.92	8286.8	
722.11	8310	
722.29	8094.3	
722.47	9422	
722.65	8662.9	
722.83	7167.2	
723.01	7978.2	
723.2	8680.7	
723.38	8980.3	
723.56	6702.3	
723.74	7653.9	
723.92	8338	
724.1	9318.9	
724.29	7186.3	
724.47	8340	
724.65	8318.8	
724.83	8353	
725.01	7075.7	
725.19	7819.8	
725.37	8189.8	
725.56	8312	
725.74	6803.4	
725.92	7162.4	
726.1	8254.7	
726.28	8447.9	
726.46	7487.4	
726.64	7234.8	
726.83	8510.7	
727.01	8685.4	
727.19	6820.4	
727.37	7645.1	
727.55	8549.6	
727.73	9110	
727.91	6838.9	
728.09	6589.7	
728.28	9122.3	
728.46	9592	
728.64	7692.9	
728.82	7703.1	
729	10116	
729.18	9432.3	
729.36	7078.5	
729.54	9091.6	
729.72	10484	
729.91	8926.4	
730.09	8923.7	
730.27	7751.6	
730.45	8901.2	
730.63	9419.3	
730.81	8359.8	
730.99	7457.3	
731.17	9993.4	
731.35	8617.9	
731.53	8003.5	
731.71	7630.7	
731.9	9700.5	
732.08	9732.6	
732.26	7709.9	
732.44	7484	
732.62	9833.7	
732.8	9339.4	
732.98	8112	
733.16	7234.8	
733.34	9224.1	
733.52	8219.2	
733.7	7675.1	
733.88	7902.4	
734.07	9084.1	
734.25	8874.5	
734.43	7034.8	
734.61	8550.3	
734.79	10299	
734.97	8742.1	
735.15	7213.6	
735.33	7502.4	
735.51	8957.1	
735.69	8680.7	
735.87	8583	
736.05	7645.7	
736.23	8858.1	
736.41	8531.8	
736.59	7471.7	
736.77	7642.3	
736.95	9259.5	
737.13	8665.6	
737.32	7056.6	
737.5	7327.6	
737.68	9779.7	
737.86	8478.6	
738.04	6851.1	
738.22	8607.6	
738.4	8275.8	
738.58	8588.5	
738.76	7419.8	
738.94	6453.8	
739.12	8395.3	
739.3	8250.6	
739.48	7952.3	
739.66	7628	
739.84	8614.4	
740.02	8652	
740.2	6518	
740.38	6789.7	
740.56	8983.8	
740.74	7867.6	
740.92	7481.9	
741.1	7264.8	
741.28	8274.5	
741.46	8196.7	
741.64	6843.6	
741.82	7378.8	
742	8283.4	
742.18	8307.2	
742.36	7055.9	
742.54	6673	
742.72	8796.7	
742.9	7548.1	
743.08	7371.3	
743.26	6198.5	
743.44	8862.2	
743.62	8790.6	
743.8	7478.5	
743.98	6597.2	
744.16	8438.3	
744.34	8217.8	
744.52	7327.6	
744.7	7262.1	
744.88	8577.6	
745.06	7998.7	
745.24	7297.6	
745.42	7289.4	
745.6	8555.7	
745.78	7978.9	
745.96	6077	
746.14	6383.5	
746.32	9178.3	
746.5	8344.8	
746.68	6833.4	
746.86	6280.4	
747.03	8763.3	
747.21	7214.3	
747.39	6791.7	
747.57	6241.5	
747.75	8036.2	
747.93	8273.1	
748.11	6262.7	
748.29	6158.9	
748.47	9360.6	
748.65	7593.9	
748.83	6890.7	
749.01	6661.4	
749.19	8159.8	
749.37	7396.6	
749.55	6489.3	
749.73	6547.4	
749.91	7851.9	
750.09	7507.2	
750.26	6623.8	
750.44	5997.1	
750.62	7744.1	
750.8	7756.3	
750.98	5898.8	
751.16	6182.1	
751.34	7830.7	
751.52	7136.5	
751.7	6877.1	
751.88	5838.1	
752.06	8249.9	
752.24	7959.8	
752.42	5767.8	
752.59	6059.9	
752.77	7642.3	
752.95	8756.4	
753.13	6703	
753.31	6248.4	
753.49	7314	
753.67	7744.7	
753.85	6434.7	
754.03	5977.3	
754.21	7795.9	
754.38	8207.6	
754.56	6079.1	
754.74	5091.9	
754.92	7009.5	
755.1	7683.3	
755.28	5030.5	
755.46	4937	
755.64	8049.2	
755.82	8097	
755.99	4892.6	
756.17	4887.8	
756.35	5493.3	
756.53	6873	
756.71	3697.3	
756.89	4612.7	
757.07	6522.1	
757.25	5651	
757.42	5266.7	
757.6	6141.9	
757.78	6721.4	
757.96	5760.3	
758.14	5066	
758.32	4593.6	
758.5	5380.7	
758.67	6148.7	
758.85	4796.3	
759.03	4959.5	
759.21	6368.5	
759.39	5828.5	
759.57	4434.5	
759.75	5592.3	
759.92	6993.8	
760.1	6245.6	
760.28	5930.2	
760.46	6186.2	
760.64	6083.1	
760.82	5908.4	
760.99	5886.5	
761.17	5066.7	
761.35	6979.5	
761.53	5944.6	
761.71	5225.1	
761.89	5938.4	
762.06	6881.9	
762.24	6468.2	
762.42	5400.5	
762.6	5188.2	
762.78	6432	
762.96	7118.1	
763.13	5746.6	
763.31	5499.5	
763.49	7281.2	
763.67	6412.2	
763.85	6225.1	
764.02	6745.3	
764.2	7430.7	
764.38	6642.2	
764.56	5319.3	
764.74	6076.3	
764.91	7596.6	
765.09	6513.9	
765.27	5072.8	
765.45	4792.2	
765.63	7565.9	
765.8	7367.9	
765.98	4472.1	
766.16	4771.8	
766.34	6040.8	
766.52	5799.8	
766.69	5739.1	
766.87	4618.2	
767.05	6423.1	
767.23	7061.4	
767.41	4889.2	
767.58	5141.1	
767.76	6880.5	
767.94	6891.4	
768.12	4933.6	
768.29	5571.2	
768.47	6453.8	
768.65	7094.8	
768.83	4537.6	
769	5630.5	
769.18	5956.9	
769.36	6619	
769.54	5580	
769.72	4493.2	
769.89	6866.8	
770.07	6978.8	
770.25	4788.2	
770.43	5923.4	
770.6	7526.3	
770.78	7876.5	
770.96	4965	
771.14	5606.7	
771.31	6664.1	
771.49	6092	
771.67	4179.9	
771.85	4395.6	
772.02	5347.9	
772.2	6049.7	
772.38	5057.1	
772.55	4510.3	
772.73	6333	
772.91	6098.9	
773.09	4887.8	
773.26	4959.5	
773.44	6173.3	
773.62	5784.1	
773.8	4429.1	
773.97	4182	
774.15	6197.8	
774.33	5885.2	
774.5	4270.7	
774.68	4665.3	
774.86	6391.7	
775.04	5883.1	
775.21	4336.2	
775.39	4275.5	
775.57	6086.6	
775.74	6426.5	
775.92	4197	
776.1	4095.3	
776.27	6017.6	
776.45	7281.9	
776.63	4231.1	
776.81	3805.1	
776.98	5735	
777.16	6779.5	
777.34	4376.5	
777.51	4725.3	
777.69	5610.1	
777.87	5430.5	
778.04	4448.9	
778.22	5023.7	
778.4	5490.6	
778.57	6087.9	
778.75	3728	
778.93	4007.2	
779.1	5245.5	
779.28	5154.1	
779.46	3690.4	
779.64	4141	
779.81	6224.5	
779.99	6995.9	
780.17	4887.1	
780.34	5050.3	
780.52	5675.6	
780.69	5866.1	
780.87	4453.6	
781.05	4038.6	
781.22	5776.6	
781.4	5758.2	
781.58	4136.9	
781.75	3385.3	
781.93	5737	
782.11	5192.3	
782.28	4945.8	
782.46	4106.9	
782.64	4988.2	
782.81	5864.7	
782.99	4212	
783.17	4147.1	
783.34	5791.7	
783.52	5010	
783.69	4402.5	
783.87	5108.3	
784.05	5135.6	
784.22	5107.6	
784.4	5122	
784.58	4441.4	
784.75	6040.8	
784.93	5147.2	
785.1	4098	
785.28	4641.4	
785.46	5776	
785.63	5043.5	
785.81	4085.7	
785.99	3944.4	
786.16	5257.8	
786.34	5640.1	
786.51	3929.4	
786.69	4319.8	
786.87	4842.1	
787.04	5354.1	
787.22	3797.6	
787.39	4723.3	
787.57	4956.8	
787.75	6110.5	
787.92	4884.4	
788.1	4850.3	
788.27	5126.1	
788.45	4845.5	
788.63	4521.9	
788.8	3310.2	
788.98	5572.5	
789.15	4798.4	
789.33	3472	
789.5	4007.9	
789.68	5985.5	
789.86	6068.8	
790.03	4435.2	
790.21	3896.6	
790.38	5900.9	
790.56	5193	
790.73	3768.3	
790.91	3777.8	
791.09	5042.8	
791.26	5726.1	
791.44	4033.8	
791.61	3516.4	
791.79	5032.5	
791.96	5039.4	
792.14	3588.7	
792.32	3210.5	
792.49	5002.5	
792.67	5145.9	
792.84	3655.6	
793.02	3459	
793.19	5482.4	
793.37	6137.8	
793.54	3201.7	
793.72	3509.5	
793.89	6178	
794.07	4971.8	
794.25	4000.4	
794.42	3259	
794.6	6085.2	
794.77	5715.2	
794.95	4331.5	
795.12	3847.5	
795.3	5020.9	
795.47	5595.7	
795.65	4185.4	
795.82	4063.9	
796	4805.2	
796.17	6619.7	
796.35	3901.4	
796.52	4575.2	
796.7	5527.5	
796.87	5600.5	
797.05	4855.1	
797.22	4721.3	
797.4	5575.9	
797.57	6526.9	
797.75	4040.6	
797.92	3809.2	
798.1	5874.3	
798.27	4911	
798.45	3265.8	
798.62	3447.4	
798.8	5292.6	
798.97	5795.1	
799.15	4257	
799.32	4047.5	
799.5	4577.2	
799.67	5315.2	
799.85	4341.7	
800.02	3186	
800.2	4962.9	
800.37	5227.1	
800.55	4472.8	
800.72	3748.5	
800.9	5685.8	
801.07	6169.8	
801.25	4987.5	
801.42	4190.8	
801.6	5721.3	
801.77	5473.5	
801.95	3840.6	
802.12	3660.4	
802.29	5532.9	
802.47	5372.5	
802.64	4107.5	
802.82	3138.9	
802.99	4917.2	
803.17	5859.9	
803.34	3997.6	
803.52	3602.4	
803.69	6453.8	
803.87	4736.3	
804.04	3955.3	
804.21	4031.8	
804.39	6032	
804.56	5163.6	
804.74	3373.7	
804.91	4148.5	
805.09	5000.5	
805.26	5018.9	
805.44	3470.6	
805.61	3796.3	
805.78	5573.9	
805.96	5657.2	
806.13	4111.6	
806.31	4407.9	
806.48	4508.9	
806.66	5055.1	
806.83	4118.5	
807	4020.2	
807.18	4906.9	
807.35	5265.3	
807.53	3717.1	
807.7	3295.2	
807.87	6088.6	
808.05	4966.3	
808.22	4352.6	
808.4	3213.3	
808.57	4958.8	
808.74	4588.8	
808.92	3661.1	
809.09	4620.2	
809.27	4888.5	
809.44	5433.3	
809.61	3235.1	
809.79	3566.9	
809.96	6109.1	
810.14	5684.5	
810.31	3091.8	
810.48	3851.5	
810.66	5057.8	
810.83	5711.1	
811.01	3676.8	
811.18	4077.5	
811.35	5687.2	
811.53	4448.2	
811.7	4413.4	
811.87	4072	
812.05	4972.5	
812.22	4902.2	
812.39	3555.3	
812.57	3422.8	
812.74	4959.5	
812.92	6493.4	
813.09	3785.3	
813.26	4130.1	
813.44	6301.6	
813.61	4867.3	
813.78	3193.5	
813.96	4248.9	
814.13	4947.9	
814.3	4662.5	
814.48	4607.2	
814.65	3837.2	
814.82	6339.8	
815	4771.8	
815.17	3920.5	
815.34	4768.4	
815.52	4846.9	
815.69	4898.7	
815.87	3898.6	
816.04	3360	
816.21	4974.5	
816.38	4381.3	
816.56	3786.7	
816.73	3533.4	
816.9	6224.5	
817.08	5612.1	
817.25	3554.6	
817.42	4463.2	
817.6	4533.5	
817.77	4961.5	
817.94	3960.8	
818.12	3513.6	
818.29	4741	
818.46	7207.5	
818.64	3644.7	
818.81	3402.4	
818.98	4718.5	
819.16	6713.9	
819.33	4201.7	
819.5	3908.9	
819.67	5365	
819.85	5910.4	
820.02	3867.9	
820.19	4118.5	
820.37	5204.6	
820.54	4741.7	
820.71	3951.9	
820.88	4905.6	
821.06	5141.8	
821.23	4737.6	
821.4	3986.7	
821.58	4009.2	
821.75	5604.6	
821.92	5156.1	
822.09	3244	
822.27	3337.5	
822.44	4917.2	
822.61	4827.7	
822.79	3242.6	
822.96	6096.1	
823.13	5373.2	
823.3	4684.4	
823.48	3719.8	
823.65	3373	
823.82	5586.2	
823.99	4523.3	
824.17	4679.6	
824.34	3436.5	
824.51	6380.8	
824.68	5026.4	
824.86	3585.3	
825.03	4049.5	
825.2	4898.7	
825.37	6006	
825.55	3512.9	
825.72	3926.6	
825.89	6440.9	
826.06	6031.3	
826.24	3819.5	
826.41	3835.8	
826.58	6014.9	
826.75	5210.7	
826.92	3024.2	
827.1	3362.1	
827.27	8077.9	
827.44	6455.2	
827.61	3608.5	
827.79	4386.7	
827.96	4736.3	
828.13	5027.1	
828.3	3744.4	
828.47	3173.7	
828.65	5241.4	
828.82	5149.3	
828.99	4887.8	
829.16	4268	
829.34	5481	
829.51	5275.6	
829.68	3931.4	
829.85	4017.4	
830.02	5773.9	
830.2	5559.6	
830.37	3103.4	
830.54	4711.7	
830.71	6310.5	
830.88	4930.8	
831.05	3061.7	
831.23	3596.2	
831.4	6008.7	
831.57	6746.7	
831.74	3687	
831.91	3181.9	
832.09	5229.1	
832.26	5546.6	
832.43	3768.9	
832.6	4205.8	
832.77	5160.2	
832.94	5920.7	
833.12	2983.9	
833.29	3674.7	
833.46	4810.7	
833.63	6915.3	
833.8	4080.9	
833.97	3788.1	
834.15	5567.1	
834.32	5330.9	
834.49	3897.3	
834.66	3990.8	
834.83	5653.8	
835	4726.7	
835.17	3590.8	
835.35	3634.5	
835.52	5412.8	
835.69	5334.3	
835.86	3835.2	
836.03	3147.7	
836.2	5459.2	
836.37	5133.6	
836.55	3756	
836.72	3497.9	
836.89	5128.1	
837.06	5591	
837.23	3866.6	
837.4	4166.9	
837.57	6260.6	
837.75	6883.2	
837.92	3390.1	
838.09	3654.3	
838.26	5159.5	
838.43	5774.6	
838.6	3910.9	
838.77	3538.9	
838.94	6630.6	
839.11	6300.9	
839.29	3733.4	
839.46	2996.9	
839.63	5476.3	
839.8	5220.3	
839.97	3647.4	
840.14	3569.6	
840.31	5286.5	
840.48	5496.1	
840.65	3046	
840.82	3531.4	
841	5511.8	
841.17	5444.2	
841.34	3340.9	
841.51	3403.7	
841.68	5458.5	
841.85	5218.9	
842.02	3510.9	
842.19	2876	
842.36	5322.7	
842.53	5278.3	
842.7	3383.9	
842.87	4078.2	
843.05	6845.7	
843.22	5182.7	
843.39	3231.7	
843.56	3470.6	
843.73	4992.3	
843.9	5589.6	
844.07	5350.7	
844.24	4503.5	
844.41	8026.7	
844.58	4801.8	
844.75	3262.4	
844.92	3491.1	
845.09	5529.5	
845.26	5492	
845.43	3311.6	
845.6	3566.9	
845.77	5501.5	
845.94	5230.5	
846.12	3766.9	
846.29	3869.3	
846.46	5715.9	
846.63	5493.3	
846.8	3364.1	
846.97	3987.4	
847.14	5911.8	
847.31	5434.6	
847.48	3779.9	
847.65	4141	
847.82	5785.5	
847.99	5724.8	
848.16	4484.4	
848.33	4142.4	
848.5	5084.4	
848.67	5869.5	
848.84	3334.1	
849.01	3425.6	
849.18	5001.1	
849.35	4601.8	
849.52	4128.7	
849.69	3258.3	
849.86	5672.9	
850.03	5915.9	
850.2	3381.9	
850.37	4117.8	
850.54	5831.9	
850.71	5150.6	
850.88	3975.8	
851.05	3243.3	
851.22	5345.2	
851.39	6005.3	
851.56	3118.4	
851.73	3762.8	
851.9	4827.1	
852.07	5714.5	
852.24	3695.9	
852.41	3300.6	
852.58	5372.5	
852.75	4946.5	
852.92	3730	
853.09	3218.7	
853.26	5096.7	
853.43	5937.7	
853.6	3312.2	
853.77	2833	
853.94	5987.6	
854.11	5436	
854.28	4852.3	
854.44	3626.3	
854.61	6414.9	
854.78	5801.2	
854.95	3335.5	
855.12	4100	
855.29	4453.6	
855.46	6135	
855.63	3321.8	
855.8	4567	
855.97	5038.7	
856.14	5853.8	
856.31	4671.4	
856.48	3558.7	
856.65	5107.6	
856.82	4737	
856.99	3192.1	
857.16	3548.4	
857.33	6606.1	
857.49	5213.4	
857.66	3576.4	
857.83	3864.5	
858	5148.6	
858.17	5379.3	
858.34	3134.8	
858.51	3275.4	
858.68	6142.5	
858.85	6179.4	
859.02	3792.8	
859.19	4066.6	
859.36	4861.2	
859.52	4910.3	
859.69	3259.7	
859.86	3913	
860.03	4880.3	
860.2	5989.6	
860.37	3015.3	
860.54	3395.5	
860.71	5720.7	
860.88	6079.1	
861.05	3710.9	
861.21	4189.5	
861.38	6154.1	
861.55	4672.1	
861.72	3078.8	
861.89	3696.6	
862.06	5737.7	
862.23	6232.7	
862.4	3238.5	
862.56	3423.5	
862.73	5504.9	
862.9	5255.1	
863.07	3853.6	
863.24	3046.7	
863.41	4744.5	
863.58	4858.5	
863.75	3394.8	
863.91	3883.6	
864.08	5960.3	
864.25	5638.1	
864.42	4148.5	
864.59	4615.4	
864.76	6355.5	
864.93	4840.7	
865.09	3246	
865.26	3502	
865.43	5920	
865.6	6307.1	
865.77	2967.5	
865.94	3297.2	
866.1	5982.8	
866.27	5745.2	
866.44	4977.9	
866.61	3132	
866.78	5227.1	
866.95	5590.3	
867.11	3220.1	
867.28	2884.9	
867.45	5829.2	
867.62	4946.5	
867.79	3837.9	
867.96	3288.4	
868.12	4897.4	
868.29	5756.8	
868.46	2885.6	
868.63	4413.4	
868.8	5895.4	
868.97	5606.7	
869.13	3515	
869.3	3498.6	
869.47	5531.6	
869.64	5756.8	
869.81	3341.6	
869.97	3343	
870.14	5382.7	
870.31	6088.6	
870.48	3217.4	
870.65	4229.7	
870.81	5173.2	
870.98	5151.3	
871.15	3730	
871.32	3422.8	
871.48	5597.8	
871.65	6117.3	
871.82	3302	
871.99	3609.9	
872.16	6478.4	
872.32	5921.4	
872.49	3359.4	
872.66	3377.1	
872.83	5683.8	
872.99	5060.5	
873.16	3835.8	
873.33	3264.5	
873.5	5373.9	
873.67	5363.6	
873.83	3443.3	
874	4415.4	
874.17	5473.5	
874.34	6417	
874.5	4272.7	
874.67	4084.3	
874.84	6068.1	
875.01	4795	
875.17	4605.9	
875.34	3245.3	
875.51	5381.4	
875.68	6421.1	
875.84	4024.3	
876.01	4801.8	
876.18	5618.9	
876.34	5586.2	
876.51	3297.9	
876.68	3253.5	
876.85	5150	
877.01	5926.8	
877.18	4685.1	
877.35	3317.7	
877.52	5271.5	
877.68	4742.4	
877.85	3261	
878.02	3263.8	
878.18	5303.6	
878.35	4986.1	
878.52	2638.5	
878.69	3689.8	
878.85	5657.2	
879.02	5587.5	
879.19	4702.1	
879.35	3558.7	
879.52	5614.2	
879.69	5840.8	
879.86	2906.8	
880.02	3735.5	
880.19	5238.7	
880.36	6389.7	
880.52	3764.2	
880.69	3849.5	
880.86	5683.8	
881.02	5815.5	
881.19	3695.9	
881.36	3570.3	
881.52	5646.2	
881.69	5008.6	
881.86	3545	
882.02	3512.9	
882.19	5887.9	
882.36	6815.6	
882.52	3373	
882.69	4673.5	
882.86	5452.4	
883.02	5434.6	
883.19	4021.5	
883.36	3765.5	
883.52	5769.8	
883.69	6561.7	
883.86	3326.6	
884.02	3012.6	
884.19	5756.8	
884.36	5289.9	
884.52	3750.5	
884.69	3547.8	
884.86	5033.2	
885.02	6244.9	
885.19	3679.5	
885.36	3845.4	
885.52	5246.2	
885.69	5467.4	
885.86	4694.6	
886.02	4167.6	
886.19	5668.1	
886.35	5158.2	
886.52	3688.4	
886.69	4622.3	
886.85	4877.6	
887.02	6010.1	
887.19	6010.1	
887.35	6010.1	
887.52	6010.1	
887.68	6010.1	
887.85	6010.1	
888.02	6010.1	
888.18	6010.1	
888.35	6010.1	
888.51	6010.1	
888.68	6010.1	
888.85	6010.1	
889.01	6010.1	
889.18	6010.1	
889.35	6010.1	
889.51	6010.1	
889.68	6010.1	
889.84	6010.1	
890.01	6010.1	
890.17	6010.1	
890.34	6010.1	
890.51	6010.1	
890.67	6010.1	
890.84	6010.1	
891	6010.1	
891.17	6010.1	
891.34	6010.1	
891.5	6010.1	
891.67	6010.1	
891.83	6010.1	
892	6010.1	
892.16	6010.1	
892.33	6010.1	
892.5	6010.1	
892.66	6010.1	
892.83	6010.1	
892.99	6010.1	
893.16	6010.1	
893.32	6010.1	
893.49	6010.1	
893.65	6010.1	
893.82	6010.1	
893.99	6010.1	
894.15	6010.1	
894.32	6010.1	
894.48	6010.1	
894.65	6010.1	
894.81	6010.1	
894.98	6010.1	
895.14	6010.1	
895.31	6010.1	
895.47	6010.1	
895.64	6010.1	
895.81	6010.1	
895.97	6010.1	
896.14	6010.1	
896.3	6010.1	
896.47	6010.1	
896.63	6010.1	
896.8	6010.1	
896.96	6010.1	
897.13	6010.1	
897.29	6010.1	
897.46	6010.1	
897.62	6010.1	
897.79	6010.1	
897.95	6010.1	
898.12	6010.1	
898.28	6010.1	
898.45	6010.1	
898.61	6010.1	
898.78	6010.1	
898.94	6010.1	
899.11	6010.1	
899.27	6010.1	
899.44	6010.1	
899.6	6010.1	
899.77	6010.1	
899.93	6010.1	
900.1	6010.1	
900.26	6010.1	
900.43	6010.1	
900.59	6010.1	
900.76	6010.1	
900.92	6010.1	
901.09	6010.1	
901.25	6010.1	
901.42	6010.1	
901.58	6010.1	
901.75	6010.1	
901.91	6010.1	
902.07	6010.1	
902.24	6010.1	
902.4	6010.1	
902.57	6010.1	
902.73	6010.1	
902.9	6010.1	
903.06	6010.1	
903.23	6010.1	
903.39	6010.1	
903.56	6010.1	
903.72	6010.1	
903.88	6010.1	
904.05	6010.1	
904.21	6010.1	
904.38	6010.1	
904.54	6010.1	
904.71	6010.1	
904.87	6010.1	
905.03	6010.1	
905.2	6010.1	
905.36	6010.1	
905.53	6010.1	
905.69	6010.1	
905.86	6010.1	
906.02	6010.1	
906.18	6010.1	
906.35	6010.1	
906.51	6010.1	
906.68	6010.1	
906.84	6010.1	
907.01	6010.1	
907.17	6010.1	
907.33	6010.1	
907.5	6010.1	
907.66	6010.1	
907.83	6010.1	
907.99	6010.1	
908.15	6010.1	
908.32	6010.1	
908.48	6010.1	
908.65	6010.1	
908.81	6010.1	
908.97	6010.1	
909.14	6010.1	
909.3	6010.1	
909.47	6010.1	
909.63	6010.1	
909.79	6010.1	
909.96	6010.1	
910.12	6010.1	
910.28	6010.1	
910.45	6010.1	
910.61	6010.1	
910.78	6010.1	
910.94	6010.1	
911.1	6010.1	
911.27	6010.1	
911.43	6010.1	
911.59	6010.1	
911.76	6010.1	
911.92	6010.1	
912.08	6010.1	
912.25	6010.1	
912.41	6010.1	
912.57	6010.1	
912.74	6010.1	
912.9	6010.1	
913.07	6010.1	
913.23	6010.1	
913.39	6010.1	
913.56	6010.1	
913.72	6010.1	
913.88	6010.1	
914.05	6010.1	
914.21	6010.1	
914.37	6010.1	
914.54	6010.1	
914.7	6010.1	
914.86	6010.1	
915.03	6010.1	
915.19	6010.1	
