Wavelength	Intensities	
nm	a.u.	
179.22	1806	
179.44	1788.6	
179.65	1823.4	
179.86	1753.7	
180.08	1848	
180.29	4339	
180.51	3173.7	
180.72	5260.5	
180.94	6012.8	
181.15	2962	
181.37	2888.3	
181.58	5098.8	
181.79	5378	
182.01	3033	
182.22	3304.7	
182.44	5373.2	
182.65	4478.9	
182.87	4019.5	
183.08	3543	
183.29	5592.3	
183.51	4646.8	
183.72	3267.9	
183.94	4636.6	
184.15	4984.1	
184.37	4977.9	
184.58	2903.3	
184.79	3818.8	
185.01	4657.1	
185.22	5309	
185.44	4085.7	
185.65	3453.6	
185.86	4940.4	
186.08	4590.2	
186.29	2826.2	
186.51	3032.4	
186.72	4726	
186.94	5468.8	
187.15	3492.5	
187.36	3633.1	
187.58	6940.6	
187.79	5132.9	
188.01	3680.9	
188.22	5695.4	
188.43	6045.6	
188.65	5367	
188.86	3061.7	
189.08	3589.4	
189.29	4868.7	
189.5	4789.5	
189.72	3317.7	
189.93	3364.8	
190.15	5483.1	
190.36	6530.3	
190.57	3629.7	
190.79	3460.4	
191	5545.2	
191.22	5518.6	
191.43	3639.2	
191.64	3093.8	
191.86	5724.8	
192.07	5512.4	
192.29	3140.2	
192.5	3303.4	
192.71	5523.4	
192.93	4782.7	
193.14	3245.3	
193.35	3384.6	
193.57	4867.3	
193.78	5475.6	
194	2680.1	
194.21	3239.2	
194.42	4638.6	
194.64	5029.8	
194.85	3526.6	
195.07	4178.5	
195.28	5009.3	
195.49	4414.1	
195.71	4371.7	
195.92	3104	
196.13	5192.3	
196.35	5292	
196.56	4625	
196.78	3591.5	
196.99	6384.9	
197.2	6005.3	
197.42	4059.1	
197.63	3641.3	
197.84	4572.4	
198.06	5166.3	
198.27	3336.1	
198.48	4346.5	
198.7	4836.6	
198.91	5008.6	
199.13	3589.4	
199.34	3629	
199.55	5384.1	
199.77	4366.3	
199.98	3186.6	
200.19	3689.8	
200.41	4964.3	
200.62	4695.3	
200.83	3758.7	
201.05	4009.9	
201.26	4935.6	
201.47	4766.3	
201.69	3229	
201.9	3162.1	
202.11	5028.4	
202.33	5816.2	
202.54	3416	
202.76	3809.2	
202.97	5050.3	
203.18	5118.6	
203.4	3801.7	
203.61	3735.5	
203.82	5072.8	
204.04	4728.1	
204.25	3650.8	
204.46	3484.3	
204.68	5062.6	
204.89	5213.4	
205.1	3480.2	
205.32	3080.1	
205.53	5328.8	
205.74	5466	
205.96	2672.6	
206.17	3654.9	
206.38	5313.1	
206.6	5441.5	
206.81	4069.3	
207.02	3390.8	
207.24	5255.8	
207.45	5574.6	
207.66	3478.8	
207.88	2987.3	
208.09	5171.1	
208.3	5053.7	
208.52	3221.5	
208.73	3488.4	
208.94	5033.9	
209.15	5604.6	
209.37	3417.4	
209.58	3659	
209.79	5461.9	
210.01	4838.7	
210.22	2814.6	
210.43	2867.2	
210.65	5037.3	
210.86	5354.1	
211.07	3422.8	
211.29	3160.7	
211.5	5322.7	
211.71	4908.3	
211.93	3150.5	
212.14	3199.6	
212.35	4995.7	
212.56	5153.4	
212.78	3604.4	
212.99	3035.1	
213.2	5760.9	
213.42	4868	
213.63	3288.4	
213.84	3491.1	
214.06	4519.9	
214.27	4650.9	
214.48	3421.5	
214.69	3677.5	
214.91	5555.5	
215.12	5694.7	
215.33	3630.4	
215.55	4063.2	
215.76	6040.1	
215.97	5318.6	
216.18	3507.5	
216.4	3476.1	
216.61	4786.1	
216.82	5375.9	
217.04	3186.6	
217.25	3336.1	
217.46	5569.1	
217.67	5356.8	
217.89	2880.1	
218.1	2947	
218.31	5079	
218.53	5231.9	
218.74	3347.1	
218.95	3256.3	
219.16	5007.3	
219.38	5754.1	
219.59	3234.4	
219.8	3761.4	
220.01	6287.3	
220.23	5059.2	
220.44	4194.9	
220.65	3222.8	
220.87	5094	
221.08	5629.9	
221.29	2983.9	
221.5	3924.6	
221.72	6638.1	
221.93	4762.2	
222.14	3616	
222.35	4274.1	
222.57	5036	
222.78	5341.1	
222.99	3385.3	
223.2	3689.8	
223.42	5294	
223.63	5406	
223.84	2712.9	
224.05	2745	
224.27	6242.2	
224.48	5753.4	
224.69	4290.5	
224.9	3657.7	
225.12	5192.3	
225.33	4973.8	
225.54	2950.4	
225.75	3249.4	
225.97	4710.3	
226.18	4949.3	
226.39	3391.4	
226.6	3266.5	
226.82	4828.4	
227.03	4676.2	
227.24	3616.7	
227.45	3025.5	
227.67	5322	
227.88	5752.1	
228.09	4038.6	
228.3	4007.9	
228.52	5362.3	
228.73	4977.9	
228.94	3383.2	
229.15	3053.5	
229.36	5003.2	
229.58	4922	
229.79	3390.8	
230	3873.4	
230.21	5972.6	
230.43	5117.2	
230.64	3619.4	
230.85	3728	
231.06	5434.6	
231.28	5381.4	
231.49	3005.7	
231.7	3485.6	
231.91	5302.9	
232.12	5063.9	
232.34	3149.8	
232.55	3515	
232.76	5553.4	
232.97	5185.5	
233.18	3194.1	
233.4	3575.8	
233.61	5227.1	
233.82	4829.1	
234.03	3378.5	
234.25	3293.1	
234.46	6776	
234.67	5062.6	
234.88	3685	
235.09	3237.2	
235.31	5281.7	
235.52	4870.1	
235.73	3579.8	
235.94	3056.3	
236.15	4779.3	
236.37	5967.8	
236.58	3187.3	
236.79	3492.5	
237	5253.7	
237.21	4612	
237.43	3730.7	
237.64	2938.2	
237.85	8666.3	
238.06	4700.8	
238.27	3733.4	
238.48	3082.9	
238.7	5289.9	
238.91	4912.4	
239.12	3437.9	
239.33	3542.3	
239.54	4740.4	
239.76	4916.5	
239.97	3435.1	
240.18	3494.5	
240.39	6118	
240.6	5227.1	
240.82	3590.1	
241.03	3004.4	
241.24	5050.3	
241.45	5731.6	
241.66	3167.5	
241.87	3722.5	
242.09	5642.2	
242.3	5945.3	
242.51	3796.3	
242.72	3417.4	
242.93	5404.6	
243.14	4961.5	
243.36	4040.6	
243.57	4355.3	
243.78	5726.8	
243.99	5322	
244.2	3409.9	
244.41	3162.7	
244.63	4657.8	
244.84	5286.5	
245.05	3685.7	
245.26	3457	
245.47	5264.6	
245.68	5429.8	
245.9	4517.1	
246.11	3642	
246.32	4915.1	
246.53	5186.8	
246.74	5477	
246.95	2994.8	
247.16	4646.8	
247.38	5014.1	
247.59	2985.9	
247.8	3484.3	
248.01	4737	
248.22	4992.3	
248.43	3203.7	
248.64	3393.5	
248.86	4545.8	
249.07	4805.2	
249.28	3167.5	
249.49	3528.7	
249.7	5487.9	
249.91	5574.6	
250.12	2942.9	
250.34	3014.6	
250.55	5139	
250.76	5054.4	
250.97	3577.1	
251.18	3616.7	
251.39	5632.6	
251.6	5134.9	
251.81	3668.6	
252.03	3676.8	
252.24	4799.8	
252.45	5421.7	
252.66	3063.8	
252.87	3782.6	
253.08	5034.6	
253.29	6361	
253.5	3088.3	
253.72	4194.2	
253.93	4898.7	
254.14	5856.5	
254.35	3283.6	
254.56	3477.5	
254.77	5245.5	
254.98	4691.9	
255.19	3293.1	
255.41	4142.4	
255.62	5128.1	
255.83	5566.4	
256.04	3701.4	
256.25	3642.7	
256.46	6121.4	
256.67	4767	
256.88	3625.6	
257.09	3992.2	
257.31	4661.2	
257.52	4713.1	
257.73	4442.7	
257.94	3319.8	
258.15	4945.8	
258.36	5020.3	
258.57	4148.5	
258.78	2681.5	
258.99	5467.4	
259.2	4883.7	
259.41	3355.3	
259.63	3460.4	
259.84	5746.6	
260.05	6045.6	
260.26	4314.4	
260.47	3268.6	
260.68	5552.7	
260.89	4939	
261.1	4025.6	
261.31	3202.3	
261.52	5511.1	
261.73	5831.2	
261.95	4228.4	
262.16	3671.3	
262.37	5627.8	
262.58	5705.6	
262.79	4221.5	
263	3454.2	
263.21	5025	
263.42	4891.9	
263.63	3460.4	
263.84	3368.2	
264.05	5534.3	
264.26	5787.6	
264.47	4102.1	
264.69	3732.8	
264.9	5702.9	
265.11	5185.5	
265.32	3218.7	
265.53	3302	
265.74	5154.7	
265.95	4545.8	
266.16	3512.3	
266.37	3853.6	
266.58	5099.4	
266.79	4838.7	
267	3301.3	
267.21	3083.6	
267.42	4667.3	
267.63	5036.6	
267.84	3544.4	
268.06	2990.7	
268.27	5467.4	
268.48	5654.4	
268.69	3427.6	
268.9	3931.4	
269.11	5610.8	
269.32	4612.7	
269.53	3463.1	
269.74	3207.8	
269.95	5354.1	
270.16	4495.3	
270.37	3508.2	
270.58	4034.5	
270.79	4928.8	
271	5491.3	
271.21	3675.4	
271.42	3505.4	
271.63	5218.9	
271.84	4689.2	
272.05	2818.7	
272.26	3128.6	
272.47	5065.3	
272.68	5170.4	
272.89	3343	
273.11	3845.4	
273.32	4827.7	
273.53	5778	
273.74	3706.1	
273.95	3702	
274.16	5459.2	
274.37	5035.3	
274.58	3863.2	
274.79	3119.7	
275	5199.1	
275.21	5607.3	
275.42	4554	
275.63	3936.9	
275.84	5288.5	
276.05	6535.8	
276.26	3643.3	
276.47	3459	
276.68	4909	
276.89	5948	
277.1	3875.4	
277.31	3104	
277.52	5264	
277.73	5459.9	
277.94	3044	
278.15	3371.6	
278.36	5225.7	
278.57	4765.6	
278.78	3351.2	
278.99	3784	
279.2	4782	
279.41	4672.8	
279.62	4282.3	
279.83	3108.1	
280.04	6038.1	
280.25	4696.7	
280.46	4243.4	
280.67	3506.8	
280.88	4745.1	
281.09	5594.4	
281.3	3607.8	
281.51	4571.7	
281.72	4800.4	
281.93	5493.3	
282.14	3274	
282.35	3530	
282.56	5479.7	
282.77	5362.3	
282.98	3375.1	
283.19	4108.9	
283.4	6593.8	
283.61	4971.1	
283.82	3151.8	
284.03	4251.6	
284.24	5196.4	
284.45	5570.5	
284.66	4317.1	
284.87	4120.5	
285.08	5513.1	
285.29	5657.2	
285.5	3028.3	
285.71	3418.7	
285.92	5564.3	
286.12	6110.5	
286.33	4255	
286.54	3424.2	
286.75	5449	
286.96	4905.6	
287.17	3169.6	
287.38	4124.6	
287.59	4753.3	
287.8	4667.3	
288.01	3468.6	
288.22	3895.9	
288.43	5468.8	
288.64	4556.7	
288.85	4041.3	
289.06	3826.3	
289.27	5443.5	
289.48	5831.2	
289.69	4220.2	
289.9	3918.4	
290.11	5593	
290.32	4802.5	
290.53	4106.2	
290.74	3747.8	
290.94	5388.9	
291.15	5418.2	
291.36	3347.1	
291.57	3847.5	
291.78	4890.5	
291.99	4572.4	
292.2	3212.6	
292.41	3676.8	
292.62	5501.5	
292.83	5315.8	
293.04	4569.7	
293.25	3231	
293.46	4865.3	
293.67	5558.2	
293.88	3212.6	
294.09	3197.6	
294.29	4650.9	
294.5	5091.3	
294.71	3517.7	
294.92	3308.2	
295.13	4828.4	
295.34	5980.1	
295.55	3003.7	
295.76	2906.8	
295.97	5392.3	
296.18	5978.7	
296.39	3136.1	
296.6	3298.6	
296.81	5125.4	
297.01	5439.4	
297.22	3414	
297.43	3295.2	
297.64	4794.3	
297.85	4721.9	
298.06	2765.4	
298.27	2979.1	
298.48	5104.9	
298.69	4784.7	
298.9	3549.8	
299.11	3222.8	
299.31	4697.4	
299.52	4655.7	
299.73	3804.4	
299.94	3686.3	
300.15	5025	
300.36	4754	
300.57	3637.9	
300.78	3697.9	
300.99	4922	
301.2	5146.5	
301.4	3253.5	
301.61	3535.5	
301.82	5335	
302.03	5412.1	
302.24	3931.4	
302.45	3104	
302.66	5229.8	
302.87	5664.7	
303.08	3294.5	
303.29	4448.9	
303.49	4879.6	
303.7	5050.3	
303.91	2967.5	
304.12	4129.4	
304.33	4586.1	
304.54	5152.7	
304.75	3326.6	
304.96	3177.8	
305.16	5331.5	
305.37	5973.9	
305.58	2925.9	
305.79	2989.4	
306	5345.2	
306.21	4520.5	
306.42	3290.4	
306.63	4865.3	
306.83	4890.5	
307.04	5539.8	
307.25	3607.8	
307.46	3579.8	
307.67	4372.4	
307.88	5428.5	
308.09	3280.2	
308.29	3360.7	
308.5	5143.8	
308.71	5547.3	
308.92	3435.8	
309.13	3188.7	
309.34	4973.2	
309.55	4991.6	
309.75	4036.5	
309.96	3713	
310.17	5395.7	
310.38	4796.3	
310.59	3880.2	
310.8	3098.6	
311.01	4906.9	
311.21	4891.9	
311.42	3181.2	
311.63	3246.7	
311.84	4816.8	
312.05	5134.3	
312.26	3609.2	
312.46	3961.5	
312.67	4900.1	
312.88	4666	
313.09	3179.8	
313.3	3129.3	
313.51	5705	
313.71	5997.8	
313.92	3166.8	
314.13	3323.2	
314.34	5221.6	
314.55	4891.9	
314.76	4027.7	
314.96	3545.7	
315.17	5176.6	
315.38	5285.8	
315.59	3220.8	
315.8	3050.8	
316.01	5780.1	
316.21	5808.7	
316.42	3118.4	
316.63	3458.3	
316.84	4924	
317.05	5643.5	
317.26	3731.4	
317.46	3379.8	
317.67	5000.5	
317.88	5387.5	
318.09	3951.9	
318.3	2944.3	
318.5	4831.2	
318.71	5279	
318.92	5022.3	
319.13	3754.6	
319.34	5482.4	
319.54	5612.1	
319.75	3003.7	
319.96	2841.2	
320.17	5266.7	
320.38	5573.9	
320.58	2930.6	
320.79	3494.5	
321	5561.6	
321.21	5626.5	
321.42	3511.6	
321.62	2953.9	
321.83	4734.2	
322.04	5006.6	
322.25	3403.7	
322.46	3198.9	
322.66	5170.4	
322.87	5221.6	
323.08	3919.8	
323.29	3140.2	
323.5	5942.5	
323.7	4634.6	
323.91	4242	
324.12	3872.7	
324.33	5145.2	
324.53	5313.1	
324.74	3699.3	
324.95	3865.9	
325.16	4577.9	
325.37	4859.8	
325.57	3186.6	
325.78	3262.4	
325.99	5079.6	
326.2	4582	
326.4	4533.5	
326.61	2966.1	
326.82	4994.3	
327.03	5111	
327.24	4413.4	
327.44	4263.2	
327.65	5282.4	
327.86	4344.4	
328.07	3692.5	
328.27	3046	
328.48	5610.1	
328.69	4663.2	
328.9	4543.1	
329.1	3393.5	
329.31	4973.2	
329.52	5674.2	
329.73	3190.1	
329.93	3543	
330.14	5074.2	
330.35	5270.1	
330.56	5124	
330.76	3873.4	
330.97	4889.2	
331.18	5253.7	
331.39	3560.7	
331.59	2903.3	
331.8	5584.1	
332.01	5650.3	
332.22	3321.8	
332.42	3644	
332.63	5158.2	
332.84	4744.5	
333.05	3543.7	
333.25	3274	
333.46	4810	
333.67	5000.5	
333.88	3350.5	
334.08	3670.6	
334.29	6563.1	
334.5	5627.8	
334.7	3154.6	
334.91	4480.3	
335.12	4659.8	
335.33	5357.5	
335.53	3556	
335.74	5062.6	
335.95	4917.9	
336.16	4696.7	
336.36	3458.3	
336.57	4027.7	
336.78	4603.8	
336.98	5597.1	
337.19	4307.6	
337.4	3482.9	
337.61	6006.7	
337.81	4675.5	
338.02	3266.5	
338.23	4089.8	
338.43	5696.8	
338.64	4800.4	
338.85	3195.5	
339.05	4143.7	
339.26	5759.6	
339.47	4540.3	
339.68	3222.8	
339.88	4702.8	
340.09	5343.8	
340.3	5489.9	
340.5	3728	
340.71	2857.6	
340.92	4664.6	
341.13	5661.3	
341.33	3064.4	
341.54	3696.6	
341.75	5259.9	
341.95	4883.7	
342.16	3571.7	
342.37	3863.2	
342.57	4719.2	
342.78	5027.1	
342.99	3941	
343.19	2918.4	
343.4	5395.7	
343.61	5244.2	
343.81	3403.7	
344.02	3127.9	
344.23	5433.3	
344.43	5719.3	
344.64	3928	
344.85	3855.6	
345.06	5326.1	
345.26	5615.5	
345.47	3672	
345.68	4261.1	
345.88	4500.1	
346.09	5416.9	
346.3	3784	
346.5	2869.2	
346.71	5025.7	
346.92	4764.9	
347.12	3013.2	
347.33	3665.2	
347.54	5488.6	
347.74	5832.6	
347.95	3693.9	
348.16	2773.6	
348.36	4917.2	
348.57	4719.9	
348.78	3712.3	
348.98	3961.5	
349.19	5036.6	
349.39	4548.5	
349.6	2980.5	
349.81	3263.1	
350.01	5300.1	
350.22	4783.4	
350.43	3600.3	
350.63	4198.3	
350.84	5104.9	
351.05	4844.8	
351.25	3237.8	
351.46	2985.9	
351.67	5517.2	
351.87	4788.2	
352.08	3463.8	
352.29	3940.3	
352.49	5427.1	
352.7	5525.4	
352.9	3133.4	
353.11	3828.3	
353.32	5954.1	
353.52	4914.4	
353.73	3108.1	
353.94	3941	
354.14	5355.4	
354.35	5169.1	
354.55	3293.1	
354.76	3622.9	
354.97	5323.4	
355.17	5077.6	
355.38	3097.9	
355.59	4217.5	
355.79	4833.2	
356	5138.4	
356.2	3612.6	
356.41	3124.5	
356.62	4618.9	
356.82	5076.9	
357.03	3880.2	
357.24	3496.6	
357.44	4859.8	
357.65	4996.4	
357.85	4556.7	
358.06	3663.8	
358.27	4627	
358.47	4834.6	
358.68	3095.2	
358.88	3895.2	
359.09	5433.9	
359.3	5685.8	
359.5	4471.4	
359.71	4030.4	
359.91	6108.4	
360.12	5504.9	
360.33	3886.4	
360.53	4337.6	
360.74	4930.1	
360.94	5018.9	
361.15	4135.5	
361.36	3424.2	
361.56	5756.2	
361.77	5172.5	
361.97	4559.5	
362.18	3654.9	
362.38	5740.5	
362.59	4898.1	
362.8	3446.7	
363	3289.7	
363.21	4765.6	
363.41	5367.7	
363.62	3988.1	
363.83	4780.6	
364.03	5508.4	
364.24	6219.7	
364.44	4880.3	
364.65	4858.5	
364.85	5277.6	
365.06	5003.9	
365.27	3676.8	
365.47	3711.6	
365.68	6210.8	
365.88	5251	
366.09	4065.2	
366.29	3746.4	
366.5	5481	
366.71	5928.2	
366.91	4865.3	
367.12	4205.2	
367.32	6417.7	
367.53	5793	
367.73	4231.1	
367.94	5041.4	
368.14	5835.3	
368.35	6490.7	
368.56	4222.2	
368.76	3671.3	
368.97	5905	
369.17	7251.9	
369.38	3798.3	
369.58	4036.5	
369.79	5040.7	
369.99	6170.5	
370.2	4951.3	
370.4	4044.1	
370.61	5611.4	
370.82	6666.8	
371.02	4014	
371.23	3388	
371.43	4996.4	
371.64	6203.3	
371.84	4162.2	
372.05	5050.3	
372.25	7336.5	
372.46	6050.4	
372.66	4217.5	
372.87	4169	
373.07	6068.8	
373.28	7517.4	
373.48	5122.7	
373.69	4856.4	
373.9	5657.2	
374.1	5704.3	
374.31	5152.7	
374.51	4709	
374.72	6488	
374.92	5406	
375.13	5371.1	
375.33	4579.9	
375.54	6191	
375.74	5681.7	
375.95	4739.7	
376.15	5835.3	
376.36	6263.4	
376.56	6101.6	
376.77	4886.5	
376.97	5266	
377.18	7224.6	
377.38	6477.7	
377.59	5539.1	
377.79	4468.7	
378	6293.4	
378.2	6692.1	
378.41	4622.9	
378.61	4595	
378.82	6759	
379.02	6117.3	
379.23	4812.7	
379.43	5801.9	
379.64	6962.4	
379.84	6546.7	
380.05	4726.7	
380.25	4597.7	
380.46	6642.2	
380.66	6218.3	
380.87	5845.6	
381.07	6040.1	
381.28	7116.7	
381.48	6589	
381.69	4646.8	
381.89	4711.7	
382.1	5659.2	
382.3	6625.9	
382.51	5602.6	
382.71	6464.8	
382.91	6550.1	
383.12	6974	
383.32	4913.1	
383.53	5103.5	
383.73	6385.6	
383.94	6261.3	
384.14	5136.3	
384.35	4248.2	
384.55	6090.7	
384.76	6502.3	
384.96	4851	
385.17	5170.4	
385.37	6589.7	
385.58	5764.3	
385.78	5173.2	
385.98	4111	
386.19	5963.7	
386.39	6380.8	
386.6	4702.8	
386.8	4798.4	
387.01	6442.2	
387.21	6408.8	
387.42	5225.7	
387.62	5718.6	
387.83	5924.8	
388.03	6431.3	
388.23	4922	
388.44	5720	
388.64	5616.2	
388.85	5854.5	
389.05	5321.3	
389.26	5988.9	
389.46	7576.8	
389.67	7077.8	
389.87	5488.6	
390.07	5501.5	
390.28	6402.6	
390.48	5968.5	
390.69	4821.6	
390.89	5136.3	
391.1	6202.6	
391.3	7023.9	
391.5	6079.7	
391.71	6651.8	
391.91	6827.9	
392.12	7662.1	
392.32	6221	
392.53	5429.8	
392.73	6240.2	
392.93	6468.9	
393.14	5247.6	
393.34	5859.9	
393.55	6753.5	
393.75	6382.8	
393.95	5187.5	
394.16	5100.1	
394.36	6197.8	
394.57	6735.1	
394.77	4662.5	
394.98	5002.5	
395.18	6150.1	
395.38	6334.4	
395.59	5853.1	
395.79	5067.4	
396	6492.7	
396.2	6789	
396.4	5993.7	
396.61	5861.3	
396.81	7081.9	
397.02	6542.6	
397.22	6220.4	
397.42	6203.3	
397.63	7238.2	
397.83	6544.6	
398.04	5196.4	
398.24	5804.6	
398.44	7002	
398.65	6298.2	
398.85	5197.1	
399.05	5306.3	
399.26	6620.4	
399.46	8153.6	
399.67	5655.8	
399.87	5401.2	
400.07	7000.6	
400.28	7327.6	
400.48	5617.6	
400.69	6506.4	
400.89	7565.9	
401.09	7958.4	
401.3	5614.8	
401.5	6508.4	
401.7	8304.5	
401.91	8527.1	
402.11	6105.7	
402.32	6139.1	
402.52	7780.9	
402.72	7553.6	
402.93	6328.9	
403.13	5224.4	
403.33	8350.9	
403.54	6919.4	
403.74	5902.9	
403.94	6573.3	
404.15	7079.8	
404.35	7976.2	
404.56	5509.7	
404.76	7075.7	
404.96	7395.2	
405.17	7232.7	
405.37	6701.6	
405.57	6115.9	
405.78	7596.6	
405.98	7040.2	
406.18	5818.3	
406.39	6627.2	
406.59	7629.4	
406.79	7262.8	
407	5662	
407.2	5643.5	
407.4	7738.6	
407.61	7772	
407.81	5722	
408.01	7494.2	
408.22	6798.6	
408.42	8624	
408.62	6965.8	
408.83	6601.3	
409.03	7761.1	
409.23	7589.8	
409.44	6893.5	
409.64	7154.9	
409.84	8897.7	
410.05	8863.6	
410.25	7284.6	
410.45	7025.2	
410.66	8680	
410.86	10751	
411.06	7765.9	
411.27	7605.5	
411.47	10915	
411.67	8974.9	
411.88	7877.9	
412.08	8355	
412.28	9724.4	
412.49	10139	
412.69	8038.3	
412.89	8096.3	
413.09	9990	
413.3	10000	
413.5	8307.2	
413.7	7834.2	
413.91	9352.4	
414.11	10238	
414.31	8101.8	
414.52	8662.9	
414.72	9928.6	
414.92	10061	
415.12	8185	
415.33	8696.4	
415.53	10340	
415.73	10501	
415.94	8970.1	
416.14	8434.2	
416.34	9613.8	
416.55	9179.7	
416.75	9560.6	
416.95	9165.3	
417.15	10508	
417.36	10927	
417.56	9929.2	
417.76	9025.4	
417.97	10843	
418.17	10608	
418.37	8701.8	
418.57	8799.4	
418.78	10428	
418.98	10069	
419.18	9622	
419.38	9425.4	
419.59	10235	
419.79	9661.6	
419.99	8646.5	
420.2	8944.2	
420.4	10587	
420.6	10559	
420.8	8595.3	
421.01	8430.1	
421.21	10473	
421.41	10638	
421.61	8799.4	
421.82	8700.5	
422.02	10106	
422.22	10775	
422.42	9371.5	
422.63	8750.3	
422.83	10119	
423.03	11153	
423.23	8918.2	
423.44	8088.8	
423.64	10059	
423.84	9658.9	
424.04	8553.7	
424.25	8063.5	
424.45	10728	
424.65	10676	
424.85	7828	
425.06	8268.3	
425.26	10745	
425.46	9749	
425.66	8776.9	
425.87	8459.5	
426.07	10402	
426.27	10134	
426.47	8567.3	
426.67	8001.4	
426.88	10593	
427.08	10131	
427.28	8912.1	
427.48	7894.9	
427.69	9116.9	
427.89	9740.1	
428.09	8806.9	
428.29	7970	
428.5	10335	
428.7	9968.1	
428.9	7888.1	
429.1	8300.4	
429.3	9833.7	
429.51	10243	
429.71	8061.5	
429.91	8875.2	
430.11	10236	
430.31	10862	
430.52	8500.4	
430.72	8846.5	
430.92	10787	
431.12	10375	
431.32	8351.6	
431.53	8546.9	
431.73	9447.3	
431.93	10819	
432.13	8206.2	
432.33	8224.6	
432.54	9935.4	
432.74	10196	
432.94	8178.9	
433.14	8896.4	
433.34	10322	
433.55	10203	
433.75	9018.6	
433.95	10679	
434.15	10246	
434.35	10154	
434.56	8389.2	
434.76	8189.8	
434.96	10320	
435.16	10776	
435.36	8514.8	
435.56	9611.8	
435.77	10274	
435.97	10428	
436.17	10248	
436.37	9523.7	
436.57	10244	
436.78	10355	
436.98	10928	
437.18	9970.2	
437.38	11045	
437.58	10511	
437.78	10128	
437.99	8960.5	
438.19	10701	
438.39	12002	
438.59	8973.5	
438.79	8329.8	
438.99	11346	
439.2	10212	
439.4	8238.3	
439.6	8236.2	
439.8	10376	
440	11456	
440.2	9448	
440.4	9468.4	
440.61	11112	
440.81	11547	
441.01	8864.3	
441.21	9816.6	
441.41	11776	
441.61	11262	
441.81	10294	
442.02	11079	
442.22	12133	
442.42	11508	
442.62	9163.3	
442.82	9183.1	
443.02	11832	
443.22	11202	
443.43	9682.8	
443.63	9137.4	
443.83	10738	
444.03	10872	
444.23	10468	
444.43	9976.3	
444.63	11450	
444.83	12309	
445.04	9594.1	
445.24	10569	
445.44	11521	
445.64	11770	
445.84	10046	
446.04	10235	
446.24	10879	
446.44	11802	
446.65	9190.6	
446.85	9745.6	
447.05	10651	
447.25	11642	
447.45	9629.5	
447.65	9114.8	
447.85	11040	
448.05	10512	
448.25	9988.6	
448.46	9878.7	
448.66	10984	
448.86	10617	
449.06	9004.2	
449.26	9856.2	
449.46	11496	
449.66	10508	
449.86	9757.2	
450.06	9644.6	
450.26	10873	
450.47	11278	
450.67	9609.1	
450.87	10094	
451.07	11494	
451.27	11344	
451.47	9176.3	
451.67	9859.6	
451.87	11099	
452.07	11790	
452.27	9645.3	
452.47	9525.8	
452.67	11202	
452.88	11517	
453.08	8886.1	
453.28	10694	
453.48	12436	
453.68	11127	
453.88	9543.5	
454.08	9653.4	
454.28	11652	
454.48	11172	
454.68	10164	
454.88	10499	
455.08	11617	
455.28	11708	
455.48	9239.8	
455.68	10039	
455.89	12285	
456.09	11998	
456.29	9822.7	
456.49	10159	
456.69	12226	
456.89	11516	
457.09	10563	
457.29	10984	
457.49	12039	
457.69	12239	
457.89	10717	
458.09	9973.6	
458.29	12027	
458.49	12745	
458.69	10920	
458.89	10651	
459.09	13079	
459.29	13084	
459.49	10733	
459.69	11325	
459.9	12693	
460.1	12465	
460.3	10413	
460.5	10347	
460.7	12686	
460.9	12464	
461.1	10162	
461.3	11418	
461.5	13509	
461.7	13028	
461.9	10894	
462.1	11103	
462.3	12682	
462.5	13233	
462.7	10938	
462.9	11210	
463.1	14266	
463.3	14113	
463.5	11364	
463.7	12496	
463.9	13261	
464.1	13510	
464.3	11856	
464.5	11875	
464.7	13944	
464.9	13977	
465.1	13229	
465.3	12397	
465.5	14186	
465.7	14467	
465.9	12732	
466.1	12272	
466.3	14375	
466.5	14003	
466.7	13629	
466.9	12366	
467.1	14249	
467.3	14917	
467.5	13658	
467.7	12617	
467.9	15117	
468.1	16030	
468.3	13080	
468.5	13751	
468.7	14406	
468.9	14199	
469.1	12971	
469.3	13728	
469.5	16285	
469.7	14240	
469.9	13245	
470.1	13002	
470.3	14619	
470.5	14571	
470.7	13923	
470.9	12788	
471.1	14445	
471.3	14487	
471.5	12764	
471.69	14224	
471.89	14063	
472.09	13659	
472.29	13300	
472.49	13322	
472.69	13861	
472.89	14471	
473.09	12512	
473.29	12347	
473.49	13949	
473.69	13842	
473.89	13112	
474.09	12394	
474.29	14974	
474.49	14678	
474.69	13250	
474.89	12575	
475.09	13695	
475.29	13896	
475.49	12054	
475.69	12381	
475.88	15049	
476.08	14183	
476.28	12037	
476.48	12063	
476.68	14254	
476.88	14135	
477.08	12050	
477.28	12316	
477.48	13538	
477.68	14033	
477.88	11796	
478.08	12043	
478.28	14562	
478.48	13710	
478.67	12111	
478.87	11372	
479.07	14474	
479.27	13671	
479.47	12337	
479.67	12441	
479.87	14171	
480.07	14638	
480.27	11797	
480.47	13141	
480.67	13808	
480.87	14370	
481.06	11916	
481.26	12731	
481.46	13863	
481.66	13795	
481.86	12431	
482.06	13201	
482.26	13568	
482.46	14361	
482.66	12281	
482.86	12053	
483.05	13923	
483.25	13366	
483.45	14397	
483.65	12323	
483.85	13554	
484.05	13822	
484.25	12668	
484.45	13154	
484.65	14493	
484.84	14787	
485.04	12351	
485.24	12298	
485.44	15043	
485.64	13411	
485.84	11981	
486.04	13218	
486.24	13941	
486.44	14240	
486.63	11883	
486.83	12704	
487.03	13966	
487.23	14312	
487.43	12015	
487.63	14218	
487.83	14347	
488.02	15212	
488.22	13188	
488.42	13798	
488.62	15022	
488.82	14209	
489.02	12864	
489.22	13109	
489.41	14968	
489.61	14864	
489.81	12682	
490.01	12816	
490.21	15138	
490.41	15674	
490.61	12862	
490.8	12951	
491	14719	
491.2	14046	
491.4	13402	
491.6	12572	
491.8	14521	
491.99	14409	
492.19	12217	
492.39	12613	
492.59	14820	
492.79	14977	
492.99	13381	
493.18	12560	
493.38	15049	
493.58	16001	
493.78	13351	
493.98	13146	
494.18	15103	
494.37	14773	
494.57	13971	
494.77	13840	
494.97	15664	
495.17	16162	
495.37	13766	
495.56	14034	
495.76	16168	
495.96	15943	
496.16	14941	
496.36	14222	
496.55	16385	
496.75	16070	
496.95	14590	
497.15	14453	
497.35	16277	
497.54	16346	
497.74	14345	
497.94	15853	
498.14	17033	
498.34	16821	
498.53	14197	
498.73	14870	
498.93	15834	
499.13	16404	
499.33	14825	
499.52	15234	
499.72	16679	
499.92	16711	
500.12	14580	
500.32	14840	
500.51	16780	
500.71	16815	
500.91	15524	
501.11	15240	
501.31	16956	
501.5	17092	
501.7	15839	
501.9	14912	
502.1	16487	
502.29	16963	
502.49	15438	
502.69	15543	
502.89	16668	
503.09	16824	
503.28	14151	
503.48	14324	
503.68	15857	
503.88	16021	
504.07	15124	
504.27	14513	
504.47	16215	
504.67	16086	
504.86	14851	
505.06	14586	
505.26	15813	
505.46	17324	
505.65	14467	
505.85	14511	
506.05	15554	
506.25	15746	
506.44	13628	
506.64	14251	
506.84	15275	
507.04	15926	
507.23	13635	
507.43	14070	
507.63	16773	
507.83	15273	
508.02	14052	
508.22	13628	
508.42	17047	
508.62	15118	
508.81	13938	
509.01	14387	
509.21	14751	
509.4	15132	
509.6	13926	
509.8	13382	
510	15005	
510.19	16231	
510.39	13265	
510.59	13452	
510.79	15006	
510.98	16139	
511.18	13586	
511.38	13773	
511.57	15685	
511.77	15425	
511.97	14259	
512.17	13372	
512.36	15631	
512.56	15446	
512.76	13306	
512.95	13006	
513.15	15568	
513.35	14413	
513.55	13986	
513.74	13248	
513.94	15530	
514.14	14986	
514.33	14150	
514.53	13956	
514.73	15038	
514.92	15259	
515.12	13442	
515.32	13377	
515.51	15382	
515.71	15756	
515.91	14937	
516.11	13489	
516.3	16826	
516.5	15076	
516.7	14017	
516.89	14496	
517.09	15251	
517.29	15205	
517.48	14401	
517.68	13728	
517.88	14980	
518.07	15543	
518.27	14169	
518.47	13433	
518.66	16009	
518.86	14689	
519.06	13128	
519.25	13536	
519.45	14997	
519.65	16513	
519.84	14173	
520.04	14815	
520.24	16828	
520.43	15593	
520.63	13949	
520.83	13663	
521.02	14899	
521.22	15480	
521.42	13846	
521.61	14362	
521.81	15020	
522.01	15173	
522.2	13859	
522.4	13505	
522.6	15603	
522.79	14508	
522.99	13608	
523.18	13248	
523.38	15554	
523.58	15453	
523.77	15122	
523.97	13440	
524.17	17319	
524.36	16546	
524.56	14866	
524.76	14578	
524.95	15833	
525.15	15670	
525.34	14460	
525.54	14718	
525.74	16507	
525.93	15735	
526.13	15709	
526.33	14737	
526.52	17000	
526.72	16543	
526.91	15944	
527.11	15384	
527.31	17027	
527.5	17440	
527.7	15349	
527.89	14388	
528.09	16252	
528.29	16831	
528.48	15608	
528.68	15124	
528.87	17012	
529.07	17068	
529.27	15363	
529.46	14994	
529.66	16944	
529.85	17292	
530.05	14995	
530.25	15593	
530.44	18256	
530.64	16790	
530.83	15186	
531.03	15418	
531.23	17274	
531.42	17009	
531.62	16123	
531.81	15330	
532.01	17488	
532.21	17848	
532.4	15389	
532.6	15872	
532.79	18449	
532.99	17887	
533.18	16109	
533.38	17069	
533.58	17740	
533.77	18151	
533.97	16226	
534.16	17043	
534.36	18627	
534.55	17772	
534.75	17088	
534.95	16447	
535.14	18682	
535.34	17730	
535.53	16080	
535.73	17840	
535.92	19152	
536.12	17895	
536.31	16197	
536.51	17089	
536.71	18025	
536.9	17670	
537.1	16166	
537.29	16326	
537.49	18417	
537.68	17527	
537.88	16677	
538.07	15831	
538.27	17842	
538.46	18715	
538.66	15859	
538.86	16375	
539.05	17992	
539.25	18322	
539.44	16838	
539.64	16070	
539.83	17686	
540.03	18482	
540.22	16091	
540.42	15985	
540.61	17784	
540.81	18143	
541	16165	
541.2	16954	
541.39	17389	
541.59	17767	
541.78	16707	
541.98	15735	
542.18	16923	
542.37	16960	
542.57	16040	
542.76	16518	
542.96	16887	
543.15	17462	
543.35	15887	
543.54	15347	
543.74	17372	
543.93	17238	
544.13	15672	
544.32	16439	
544.52	17213	
544.71	16438	
544.91	14599	
545.1	15728	
545.3	16528	
545.49	17169	
545.69	14487	
545.88	15063	
546.08	17916	
546.27	17397	
546.47	15552	
546.66	14870	
546.86	17208	
547.05	17602	
547.24	14947	
547.44	14903	
547.63	16191	
547.83	17110	
548.02	15186	
548.22	15288	
548.41	15949	
548.61	17199	
548.8	14626	
549	14756	
549.19	16423	
549.39	16918	
549.58	14217	
549.78	14799	
549.97	16782	
550.17	16195	
550.36	15350	
550.55	16313	
550.75	16148	
550.94	16901	
551.14	14424	
551.33	14614	
551.53	15603	
551.72	16453	
551.92	14640	
552.11	14474	
552.31	16412	
552.5	16457	
552.69	15872	
552.89	14061	
553.08	16365	
553.28	16102	
553.47	14469	
553.67	15425	
553.86	16793	
554.06	15304	
554.25	13667	
554.44	14177	
554.64	17253	
554.83	16972	
555.03	14171	
555.22	14358	
555.42	16374	
555.61	15991	
555.8	14190	
556	14406	
556.19	15330	
556.39	16276	
556.58	14109	
556.78	14223	
556.97	15902	
557.16	15786	
557.36	15201	
557.55	13799	
557.75	14898	
557.94	16632	
558.13	13734	
558.33	13714	
558.52	16360	
558.72	15385	
558.91	13652	
559.1	13951	
559.3	14978	
559.49	14619	
559.69	13257	
559.88	14192	
560.07	15716	
560.27	16042	
560.46	14202	
560.66	14321	
560.85	15443	
561.04	14541	
561.24	13516	
561.43	13453	
561.63	14784	
561.82	15118	
562.01	14608	
562.21	13791	
562.4	15418	
562.59	16280	
562.79	13635	
562.98	13494	
563.18	15356	
563.37	16617	
563.56	14148	
563.76	13472	
563.95	14993	
564.14	14949	
564.34	13771	
564.53	13609	
564.73	15418	
564.92	15728	
565.11	14003	
565.31	13460	
565.5	15870	
565.69	15031	
565.89	13653	
566.08	13781	
566.27	15790	
566.47	16292	
566.66	14381	
566.85	13332	
567.05	15538	
567.24	15055	
567.44	13614	
567.63	14659	
567.82	15739	
568.02	15457	
568.21	13525	
568.4	13859	
568.6	15476	
568.79	15307	
568.98	13496	
569.18	13581	
569.37	15509	
569.56	17120	
569.76	13947	
569.95	14661	
570.14	15636	
570.34	15494	
570.53	13445	
570.72	13400	
570.91	16103	
571.11	15232	
571.3	13702	
571.49	14473	
571.69	15392	
571.88	14795	
572.07	14253	
572.27	14046	
572.46	14836	
572.65	15657	
572.85	13444	
573.04	13865	
573.23	16059	
573.43	15334	
573.62	13431	
573.81	14079	
574	15418	
574.2	15212	
574.39	13809	
574.58	14048	
574.78	16255	
574.97	15640	
575.16	14272	
575.36	14526	
575.55	16115	
575.74	15975	
575.93	13528	
576.13	14571	
576.32	15352	
576.51	15960	
576.71	14068	
576.9	15326	
577.09	16377	
577.28	15822	
577.48	14383	
577.67	13515	
577.86	15492	
578.05	15920	
578.25	14060	
578.44	14107	
578.63	15720	
578.83	16656	
579.02	13517	
579.21	15044	
579.4	15775	
579.6	15615	
579.79	14302	
579.98	15994	
580.17	16175	
580.37	16323	
580.56	13773	
580.75	14515	
580.94	16592	
581.14	16535	
581.33	14904	
581.52	13966	
581.71	16199	
581.91	16662	
582.1	13781	
582.29	14296	
582.48	15933	
582.68	15900	
582.87	14758	
583.06	14461	
583.25	16196	
583.45	15602	
583.64	15001	
583.83	15664	
584.02	15702	
584.21	16279	
584.41	14823	
584.6	14456	
584.79	16019	
584.98	16597	
585.18	13943	
585.37	13908	
585.56	15546	
585.75	16106	
585.94	13903	
586.14	14668	
586.33	16483	
586.52	15784	
586.71	14351	
586.91	14102	
587.1	15068	
587.29	15959	
587.48	13708	
587.67	13786	
587.87	15658	
588.06	15616	
588.25	14650	
588.44	14045	
588.63	15067	
588.83	15563	
589.02	13343	
589.21	13123	
589.4	14570	
589.59	14458	
589.78	12095	
589.98	12126	
590.17	13601	
590.36	13945	
590.55	11227	
590.74	11731	
590.94	14655	
591.13	13489	
591.32	11325	
591.51	11010	
591.7	13499	
591.89	13216	
592.09	11118	
592.28	11590	
592.47	12538	
592.66	14317	
592.85	11264	
593.05	11489	
593.24	13094	
593.43	13921	
593.62	11672	
593.81	11961	
594	13297	
594.19	13598	
594.39	11441	
594.58	11478	
594.77	13591	
594.96	14104	
595.15	11402	
595.34	11950	
595.54	13431	
595.73	12768	
595.92	10748	
596.11	11654	
596.3	13852	
596.49	12798	
596.68	11546	
596.88	11888	
597.07	13608	
597.26	12656	
597.45	11148	
597.64	12135	
597.83	12892	
598.02	13442	
598.22	11172	
598.41	11847	
598.6	13341	
598.79	12809	
598.98	11261	
599.17	12150	
599.36	13373	
599.55	14328	
599.74	13155	
599.94	12996	
600.13	13824	
600.32	12800	
600.51	11241	
600.7	11326	
600.89	14368	
601.08	14437	
601.27	11197	
601.47	12024	
601.66	13889	
601.85	14372	
602.04	11825	
602.23	11927	
602.42	13042	
602.61	13500	
602.8	11765	
602.99	11506	
603.18	13298	
603.37	13663	
603.57	11937	
603.76	12416	
603.95	14149	
604.14	13893	
604.33	11603	
604.52	11871	
604.71	13624	
604.9	13089	
605.09	12635	
605.28	12214	
605.47	14123	
605.66	13696	
605.86	12087	
606.05	11551	
606.24	14055	
606.43	12675	
606.62	11799	
606.81	12403	
607	13820	
607.19	13297	
607.38	11276	
607.57	11404	
607.76	13061	
607.95	12502	
608.14	11803	
608.33	12380	
608.52	12953	
608.72	13800	
608.91	11160	
609.1	11168	
609.29	12914	
609.48	12594	
609.67	11804	
609.86	10948	
610.05	12605	
610.24	12925	
610.43	10900	
610.62	10547	
610.81	13736	
611	13545	
611.19	11118	
611.38	11569	
611.57	13078	
611.76	14283	
611.95	10831	
612.14	10637	
612.33	12902	
612.52	12533	
612.71	11250	
612.9	10501	
613.09	12101	
613.28	14072	
613.47	10995	
613.66	11773	
613.85	12874	
614.04	12552	
614.24	10890	
614.43	10245	
614.62	13037	
614.81	12798	
615	11359	
615.19	11457	
615.38	12330	
615.57	12727	
615.76	11208	
615.95	12125	
616.14	13123	
616.33	12684	
616.52	11570	
616.71	11798	
616.9	12962	
617.09	12859	
617.28	11028	
617.47	12007	
617.66	12205	
617.85	12284	
618.04	11829	
618.22	11226	
618.41	12685	
618.6	13333	
618.79	11450	
618.98	11193	
619.17	13753	
619.36	12238	
619.55	11309	
619.74	11298	
619.93	13121	
620.12	12618	
620.31	11805	
620.5	12110	
620.69	13675	
620.88	14091	
621.07	12551	
621.26	11770	
621.45	13437	
621.64	13375	
621.83	11925	
622.02	11241	
622.21	13400	
622.4	13213	
622.59	12412	
622.78	12149	
622.97	12882	
623.16	13804	
623.35	12010	
623.54	11159	
623.72	13035	
623.91	13214	
624.1	12078	
624.29	10983	
624.48	14140	
624.67	13450	
624.86	12091	
625.05	11233	
625.24	14089	
625.43	12843	
625.62	13482	
625.81	11430	
626	13746	
626.19	13125	
626.38	11994	
626.56	11467	
626.75	12830	
626.94	13519	
627.13	11934	
627.32	10801	
627.51	13282	
627.7	14472	
627.89	10848	
628.08	11835	
628.27	12571	
628.46	12781	
628.65	11040	
628.83	10804	
629.02	13160	
629.21	12575	
629.4	11419	
629.59	11523	
629.78	12514	
629.97	13274	
630.16	11645	
630.35	11191	
630.54	13787	
630.72	13553	
630.91	11079	
631.1	11580	
631.29	12985	
631.48	13163	
631.67	11736	
631.86	11284	
632.05	12777	
632.24	12728	
632.42	10886	
632.61	11497	
632.8	12722	
632.99	12437	
633.18	11546	
633.37	11820	
633.56	12919	
633.75	12909	
633.93	11561	
634.12	11231	
634.31	13670	
634.5	13453	
634.69	11312	
634.88	11729	
635.07	12912	
635.25	13390	
635.44	11955	
635.63	12268	
635.82	12615	
636.01	12179	
636.2	11906	
636.39	11543	
636.57	13665	
636.76	13190	
636.95	11078	
637.14	12174	
637.33	12939	
637.52	13833	
637.7	10828	
637.89	11739	
638.08	12696	
638.27	13849	
638.46	11739	
638.65	12031	
638.83	13771	
639.02	12519	
639.21	11548	
639.4	12032	
639.59	12742	
639.78	12396	
639.96	10897	
640.15	10826	
640.34	12600	
640.53	12756	
640.72	10583	
640.91	10868	
641.09	12016	
641.28	13191	
641.47	10735	
641.66	11361	
641.85	12594	
642.03	12754	
642.22	11230	
642.41	10820	
642.6	12127	
642.79	11571	
642.97	10574	
643.16	11138	
643.35	11873	
643.54	11718	
643.73	10316	
643.91	11143	
644.1	11533	
644.29	12013	
644.48	10359	
644.67	10312	
644.85	11484	
645.04	11813	
645.23	9749.7	
645.42	9975.7	
645.6	11254	
645.79	12127	
645.98	9717.6	
646.17	8921	
646.36	10726	
646.54	11137	
646.73	10113	
646.92	9251.4	
647.11	10681	
647.29	11513	
647.48	9141.4	
647.67	8824	
647.86	11742	
648.05	11694	
648.23	9323	
648.42	10417	
648.61	11209	
648.8	10978	
648.98	9032.9	
649.17	9357.9	
649.36	10559	
649.55	10309	
649.73	9156.5	
649.92	9736	
650.11	10668	
650.3	10862	
650.48	9232.2	
650.67	9013.1	
650.86	11064	
651.05	10088	
651.23	9165.3	
651.42	9109.4	
651.61	10467	
651.79	10563	
651.98	9275.3	
652.17	8887.5	
652.36	10932	
652.54	10109	
652.73	8938.7	
652.92	8864.3	
653.11	10863	
653.29	11054	
653.48	8282	
653.67	9109.4	
653.85	10593	
654.04	11462	
654.23	9159.9	
654.42	8900.5	
654.6	10060	
654.79	10587	
654.98	8227.4	
655.16	8566	
655.35	9505.3	
655.54	9447.3	
655.73	8064.9	
655.91	8054.7	
656.1	10322	
656.29	9397.4	
656.47	7724.9	
656.66	9210.4	
656.85	9752.4	
657.03	9791.3	
657.22	8345.5	
657.41	8466.3	
657.59	9921.7	
657.78	9841.2	
657.97	8230.8	
658.16	8804.2	
658.34	10559	
658.53	10988	
658.72	9592.7	
658.9	10102	
659.09	10220	
659.28	10255	
659.46	8607.6	
659.65	8634.2	
659.84	10025	
660.02	10468	
660.21	8486.8	
660.4	8386.4	
660.58	10791	
660.77	10262	
660.96	9059.5	
661.14	8165.3	
661.33	11258	
661.52	11164	
661.7	8124.3	
661.89	11158	
662.08	9979.8	
662.26	9574.9	
662.45	8464.3	
662.64	8445.8	
662.82	10376	
663.01	9833.7	
663.2	8529.1	
663.38	9086.2	
663.57	10428	
663.75	10210	
663.94	8641.1	
664.13	9712.8	
664.31	9814.5	
664.5	10334	
664.69	8978.3	
664.87	9366.7	
665.06	9502.6	
665.25	10206	
665.43	9569.5	
665.62	9656.2	
665.8	10431	
665.99	9856.2	
666.18	8598.1	
666.36	8763.9	
666.55	10410	
666.74	10236	
666.92	8316.1	
667.11	9643.2	
667.29	9960	
667.48	10318	
667.67	9274.6	
667.85	8573.5	
668.04	9847.3	
668.22	9919.7	
668.41	8596	
668.6	8772.8	
668.78	9626.8	
668.97	9960	
669.15	8802.2	
669.34	8099.7	
669.53	9594.1	
669.71	9916.9	
669.9	8151.6	
670.08	8737.3	
670.27	9639.8	
670.46	10050	
670.64	8873.8	
670.83	9105.3	
671.01	9452.1	
671.2	9980.4	
671.38	8247.2	
671.57	8074.5	
671.76	10521	
671.94	11015	
672.13	8006.2	
672.31	8896.4	
672.5	10217	
672.69	9564.7	
672.87	8160.5	
673.06	8421.2	
673.24	10076	
673.43	9615.2	
673.61	8852.7	
673.8	8394.6	
673.98	10122	
674.17	10290	
674.36	8895.7	
674.54	8725.7	
674.73	9939.5	
674.91	10081	
675.1	8568	
675.28	8160.5	
675.47	9628.2	
675.65	10178	
675.84	8398	
676.03	8679.3	
676.21	9528.5	
676.4	9052	
676.58	9032.9	
676.77	8828.1	
676.95	10863	
677.14	9439.8	
677.32	8000.7	
677.51	7878.5	
677.69	10153	
677.88	9204.9	
678.06	7991.9	
678.25	8024.6	
678.44	9721	
678.62	9424.1	
678.81	7785	
678.99	8628.1	
679.18	10383	
679.36	10017	
679.55	8351.6	
679.73	8818.6	
679.92	9982.5	
680.1	9510.8	
680.29	9355.1	
680.47	8303.1	
680.66	9390.6	
680.84	10109	
681.03	7703.1	
681.21	8731.9	
681.4	9469.8	
681.58	9344.2	
681.77	8005.5	
681.95	7846.5	
682.14	10080	
682.32	10384	
682.51	8780.3	
682.69	7714	
682.88	9274.6	
683.06	9719	
683.25	8459.5	
683.43	8830.2	
683.62	9600.9	
683.8	9823.4	
683.99	8905.9	
684.17	8244.4	
684.36	10490	
684.54	9376.3	
684.73	7413.6	
684.91	7572	
685.1	9331.2	
685.28	8761.9	
685.46	7736.5	
685.65	7700.4	
685.83	9316.2	
686.02	8750.3	
686.2	7161.1	
686.39	7388.4	
686.57	8396.7	
686.76	9884.2	
686.94	7184.3	
687.13	7322.2	
687.31	9168.1	
687.5	8759.8	
687.68	6864.8	
687.86	8049.9	
688.05	10337	
688.23	8416.5	
688.42	8077.9	
688.6	7406.8	
688.79	8813.1	
688.97	8765.3	
689.16	7845.1	
689.34	6858	
689.52	9511.4	
689.71	9643.2	
689.89	7998.7	
690.08	7443.7	
690.26	9035.6	
690.45	8881.4	
690.63	8070.4	
690.81	7517.4	
691	8738	
691.18	8562.6	
691.37	7539.9	
691.55	9335.3	
691.74	8454.7	
691.92	10215	
692.1	7452.6	
692.29	6883.2	
692.47	8641.1	
692.66	8082	
692.84	7145.4	
693.02	7585.7	
693.21	8202.1	
693.39	8586.5	
693.58	7776.8	
693.76	7292.8	
693.94	9740.8	
694.13	9615.9	
694.31	7348.8	
694.5	8187.1	
694.68	8648.6	
694.86	9088.2	
695.05	7826	
695.23	8181.6	
695.42	9437.7	
695.6	11472	
695.78	8404.2	
695.97	7604.1	
696.15	9545.6	
696.34	8934.6	
696.52	7392.5	
696.7	8056.7	
696.89	9228.1	
697.07	8598.1	
697.25	7927	
697.44	9207	
697.62	9097.1	
697.81	9298.5	
697.99	7561.8	
698.17	8016.4	
698.36	8348.2	
698.54	8947.6	
698.72	7776.1	
698.91	6980.8	
699.09	8572.1	
699.28	8407.6	
699.46	7479.9	
699.64	7337.9	
699.83	8415.1	
700.01	9422	
700.19	8077.9	
700.38	6765.8	
700.56	9452.7	
700.74	8617.9	
700.93	7113.3	
701.11	7858.7	
701.29	9186.5	
701.48	10052	
701.66	7432.8	
701.84	7508.5	
702.03	8846.5	
702.21	9447.3	
702.39	7148.1	
702.58	7687.4	
702.76	9275.3	
702.94	9267.7	
703.13	7135.8	
703.31	9179.7	
703.49	8573.5	
703.68	9824.8	
703.86	7182.2	
704.04	8104.5	
704.23	9077.3	
704.41	9366	
704.59	7376.8	
704.78	8445.8	
704.96	10146	
705.14	9357.9	
705.33	7276.4	
705.51	7916.8	
705.69	8946.9	
705.87	9706	
706.06	8222.6	
706.24	7247.8	
706.42	9280.7	
706.61	9337.4	
706.79	8219.2	
706.97	7265.5	
707.16	8759.8	
707.34	9239.8	
707.52	8174.1	
707.7	7571.3	
707.89	8961.9	
708.07	8604.9	
708.25	8168.7	
708.44	8503.8	
708.62	8789.2	
708.8	9775.6	
708.98	8445.1	
709.17	7558.4	
709.35	9180.4	
709.53	9229.5	
709.72	7343.3	
709.9	7645.8	
710.08	9419.3	
710.26	9473.9	
710.45	8724.3	
710.63	7578.8	
710.81	9039.1	
710.99	8998.1	
711.18	8010.3	
711.36	7491.5	
711.54	8800.8	
711.72	9374.2	
711.91	7674.4	
712.09	6965.8	
712.27	8859.5	
712.45	9664.4	
712.64	7614.3	
712.82	6738.5	
713	8193.9	
713.18	8312.7	
713.37	6728.9	
713.55	7634.8	
713.73	8832.2	
713.91	7560.4	
714.1	6685.3	
714.28	6152.1	
714.46	8209.6	
714.64	7291.5	
714.83	5312.4	
715.01	6001.9	
715.19	7185	
715.37	6584.2	
715.55	5542.5	
715.74	5744.6	
715.92	7806.9	
716.1	6074.3	
716.28	6686.6	
716.47	5896.1	
716.65	6651.1	
716.83	6709.1	
717.01	5748.6	
717.19	5728.2	
717.38	8507.9	
717.56	6384.9	
717.74	5937.1	
717.92	5281.7	
718.1	7559.7	
718.29	6907.1	
718.47	5063.9	
718.65	5702.2	
718.83	7781.6	
719.01	7791.8	
719.2	5223	
719.38	6320.7	
719.56	7616.4	
719.74	8936	
719.92	5942.5	
720.11	6738.5	
720.29	7639.6	
720.47	6866.8	
720.65	5383.4	
720.83	6013.5	
721.02	6923.5	
721.2	6655.9	
721.38	5949.3	
721.56	5221	
721.74	6173.9	
721.92	6331.6	
722.11	6311.8	
722.29	6069.5	
722.47	7432.1	
722.65	6711.9	
722.83	5289.2	
723.01	5993	
723.2	6766.5	
723.38	7025.2	
723.56	4762.9	
723.74	5758.9	
723.92	6315.3	
724.1	7341.3	
724.29	5223	
724.47	6149.4	
724.65	6442.9	
724.83	6328.9	
725.01	5095.3	
725.19	5791	
725.37	6393.1	
725.56	6411.5	
725.74	5063.9	
725.92	5220.3	
726.1	6370.5	
726.28	6636.1	
726.46	5583.4	
726.64	5344.5	
726.83	6621.1	
727.01	6745.3	
727.19	4967	
727.37	5690.6	
727.55	6959.7	
727.73	7098.9	
727.91	4960.2	
728.09	4784.1	
728.28	7227.3	
728.46	7550.2	
728.64	5791	
728.82	5786.9	
729	8189.8	
729.18	7703.1	
729.36	5274.2	
729.54	7238.2	
729.72	8589.9	
729.91	7185	
730.09	7039.6	
730.27	5990.3	
730.45	7134.4	
730.63	7669.6	
730.81	6544.6	
730.99	5819	
731.17	8249.2	
731.35	7049.1	
731.53	6217.6	
731.71	5923.4	
731.9	7957.7	
732.08	7982.3	
732.26	6138.4	
732.44	5775.3	
732.62	8088.1	
732.8	7626	
732.98	6390.3	
733.16	5580.7	
733.34	7587	
733.52	6515.3	
733.7	5997.8	
733.88	6155.5	
734.07	7462.1	
734.25	7260	
734.43	5554.8	
734.61	6961	
734.79	8623.3	
734.97	7232.1	
735.15	5688.6	
735.33	5907	
735.51	7522.2	
735.69	7245	
735.87	6908.5	
736.05	6173.3	
736.23	7232.1	
736.41	7124.2	
736.59	6056.5	
736.77	6165.8	
736.95	7841.7	
737.13	7290.1	
737.32	5769.8	
737.5	5984.2	
737.68	8335.9	
737.86	7272.3	
738.04	5539.8	
738.22	7249.8	
738.4	7000.6	
738.58	7318.8	
738.76	6101.6	
738.94	5244.8	
739.12	7136.5	
739.3	7004.7	
739.48	6621.8	
739.66	6489.3	
739.84	7404.8	
740.02	7388.4	
740.2	5323.4	
740.38	5666.7	
740.56	7737.2	
740.74	6683.2	
740.92	6280.4	
741.1	6054.5	
741.28	7106.5	
741.46	7001.3	
741.64	5732.3	
741.82	6242.9	
742	7106.5	
742.18	7116.7	
742.36	5944.6	
742.54	5581.4	
742.72	7702.4	
742.9	6576.7	
743.08	6265.4	
743.26	5216.9	
743.44	7724.3	
743.62	7598	
743.8	6386.9	
743.98	5573.9	
744.16	7405.5	
744.34	7132.4	
744.52	6309.1	
744.7	6130.3	
744.88	7457.3	
745.06	6982.9	
745.24	6183.5	
745.42	6307.7	
745.6	7537.2	
745.78	7236.2	
745.96	5173.9	
746.14	5358.2	
746.32	8143.4	
746.5	7438.9	
746.68	5879	
746.86	5482.4	
747.03	7792.5	
747.21	6314.6	
747.39	5817.6	
747.57	5401.2	
747.75	7040.2	
747.93	7305.8	
748.11	5334.3	
748.29	5225.1	
748.47	8409	
748.65	6791.1	
748.83	5996.5	
749.01	5717.9	
749.19	7229.3	
749.37	6451.1	
749.55	5637.4	
749.73	5707	
749.91	6939.2	
750.09	6634.1	
750.26	5635.3	
750.44	5152.7	
750.62	6859.3	
750.8	6903.7	
750.98	5090.6	
751.16	5289.9	
751.34	6966.5	
751.52	6376	
751.7	5937.1	
751.88	4962.2	
752.06	7326.3	
752.24	7024.5	
752.42	4987.5	
752.59	5233.9	
752.77	6792.4	
752.95	7856	
753.13	5888.6	
753.31	5307.7	
753.49	6451.8	
753.67	6858	
753.85	5515.9	
754.03	5197.7	
754.21	7066.9	
754.38	7310.6	
754.56	5184.1	
754.74	4446.8	
754.92	6310.5	
755.1	6855.9	
755.28	4305.5	
755.46	4270.7	
755.64	7329	
755.82	7291.5	
755.99	4271.4	
756.17	4246.1	
756.35	4962.9	
756.53	6267.5	
756.71	3162.7	
756.89	3956	
757.07	5823.7	
757.25	5086.5	
757.42	4525.3	
757.6	5266	
757.78	5995.8	
757.96	5174.5	
758.14	4341.7	
758.32	3915	
758.5	4771.8	
758.67	5557.5	
758.85	4131.4	
759.03	4175.1	
759.21	5555.5	
759.39	5109.7	
759.57	3714.3	
759.75	4807.9	
759.92	6232	
760.1	5657.2	
760.28	5099.4	
760.46	5389.6	
760.64	5482.4	
760.82	5229.8	
760.99	5036.6	
761.17	4375.8	
761.35	6290	
761.53	5324	
761.71	4507.6	
761.89	5087.8	
762.06	6203.3	
762.24	5728.9	
762.42	4629.1	
762.6	4490.5	
762.78	5737.7	
762.96	6406.7	
763.13	5048.2	
763.31	4697.4	
763.49	6556.9	
763.67	5722.7	
763.85	5431.9	
764.02	5966.4	
764.2	6783.6	
764.38	5964.4	
764.56	4614.8	
764.74	5383.4	
764.91	6842.3	
765.09	5894.7	
765.27	4292.5	
765.45	4171.7	
765.63	6892.1	
765.8	6651.1	
765.98	3949.8	
766.16	4227.7	
766.34	5494.7	
766.52	5309	
766.69	4990.2	
766.87	4059.1	
767.05	5867.4	
767.23	6443.6	
767.41	4358.8	
767.58	4498	
767.76	6249	
767.94	6341.2	
768.12	4379.2	
768.29	4984.8	
768.47	5771.9	
768.65	6470.9	
768.83	4029	
769	5063.3	
769.18	5428.5	
769.36	6030.6	
769.54	4988.9	
769.72	4063.2	
769.89	6263.4	
770.07	6378.7	
770.25	4339	
770.43	5412.1	
770.6	6923.5	
770.78	7235.5	
770.96	4398.4	
771.14	4970.4	
771.31	6158.2	
771.49	5568.4	
771.67	3702	
771.85	3938.2	
772.02	4898.1	
772.2	5662.6	
772.38	4593.6	
772.55	4089.1	
772.73	5825.1	
772.91	5597.1	
773.09	4378.6	
773.26	4528.1	
773.44	5743.9	
773.62	5407.3	
773.8	3936.2	
773.97	3721.2	
774.15	5765	
774.33	5430.5	
774.5	3917.8	
774.68	4197.7	
774.86	5920.7	
775.04	5479.7	
775.21	3872.7	
775.39	3944.4	
775.57	5715.2	
775.74	6001.9	
775.92	3775.8	
776.1	3695.9	
776.27	5616.2	
776.45	6685.3	
776.63	3902.1	
776.81	3519.1	
776.98	5296	
777.16	6230.6	
777.34	3998.3	
777.51	4287.1	
777.69	5268.7	
777.87	5077.6	
778.04	3992.9	
778.22	4556.7	
778.4	5171.1	
778.57	5709.7	
778.75	3423.5	
778.93	3634.5	
779.1	4926.7	
779.28	4811.4	
779.46	3394.2	
779.64	3764.2	
779.81	5809.4	
779.99	6529.6	
780.17	4483.7	
780.34	4522.6	
780.52	5321.3	
780.69	5472.2	
780.87	4115.1	
781.05	3654.3	
781.22	5351.3	
781.4	5475.6	
781.58	3788.1	
781.75	3061	
781.93	5406	
782.11	4812.7	
782.28	4612.7	
782.46	3711.6	
782.64	4636.6	
782.81	5472.2	
782.99	3824.9	
783.17	3771.7	
783.34	5361.6	
783.52	4746.5	
783.69	3981.3	
783.87	4687.8	
784.05	4814.1	
784.22	4769	
784.4	4631.1	
784.58	4056.3	
784.75	5672.9	
784.93	4902.2	
785.1	3703.4	
785.28	4298.7	
785.46	5386.2	
785.63	4687.1	
785.81	3698.6	
785.99	3539.6	
786.16	4961.5	
786.34	5241.4	
786.51	3584.6	
786.69	4009.2	
786.87	4589.5	
787.04	5000.5	
787.22	3469.3	
787.39	4303.5	
787.57	4788.8	
787.75	5741.1	
787.92	4506.9	
788.1	4419.5	
788.27	4768.4	
788.45	4567.7	
788.63	4185.4	
788.8	3030.3	
788.98	5270.1	
789.15	4500.8	
789.33	3231.7	
789.5	3695.9	
789.68	5616.2	
789.86	5713.2	
790.03	4097.3	
790.21	3599	
790.38	5584.1	
790.56	4911	
790.73	3498.6	
790.91	3516.4	
791.09	4760.2	
791.26	5415.5	
791.44	3701.4	
791.61	3235.8	
791.79	4730.8	
791.96	4782.7	
792.14	3310.9	
792.32	2989.4	
792.49	4779.3	
792.67	4930.8	
792.84	3416.7	
793.02	3168.9	
793.19	5176.6	
793.37	5799.2	
793.54	3032.4	
793.72	3326.6	
793.89	5805.3	
794.07	4685.1	
794.25	3684.3	
794.42	3074	
794.6	5686.5	
794.77	5292.6	
794.95	4003.8	
795.12	3522.5	
795.3	4792.2	
795.47	5210	
795.65	3901.4	
795.82	3726.6	
796	4642.1	
796.17	6270.9	
796.35	3679.5	
796.52	4235.9	
796.7	5190.2	
796.87	5342.5	
797.05	3616.7	
797.22	4332.8	
797.4	5309.7	
797.57	6115.9	
797.75	3674.7	
797.92	3547.8	
798.1	5612.8	
798.27	4655	
798.45	3069.9	
798.62	3239.9	
798.8	5010	
798.97	5437.4	
799.15	3928	
799.32	3716.4	
799.5	4425	
799.67	5018.2	
799.85	4033.1	
800.02	2981.2	
800.2	4766.3	
800.37	5006.6	
800.55	4139.6	
800.72	3528.7	
800.9	5384.8	
801.07	5847	
801.25	4676.9	
801.42	3868.6	
801.6	5494	
801.77	5128.8	
801.95	3630.4	
802.12	3364.8	
802.29	5166.3	
802.47	5119.9	
802.64	3833.1	
802.82	2887	
802.99	4725.3	
803.17	5515.2	
803.34	3691.8	
803.52	3374.4	
803.69	6078.4	
803.87	4487.8	
804.04	3650.2	
804.21	3762.1	
804.39	5722.7	
804.56	4905.6	
804.74	3166.8	
804.91	3821.5	
805.09	4724.7	
805.26	4799.1	
805.44	3198.9	
805.61	3524.6	
805.78	5311.7	
805.96	5308.3	
806.13	3845.4	
806.31	4104.8	
806.48	4308.9	
806.66	4782	
806.83	3833.8	
807	3731.4	
807.18	4719.2	
807.35	5072.1	
807.53	3706.1	
807.7	3007.8	
807.87	5646.9	
808.05	4753.3	
808.22	4019.5	
808.4	3020.1	
808.57	4711	
808.74	4399	
808.92	3442.6	
809.09	4352.6	
809.27	4664.6	
809.44	5158.8	
809.61	3056.3	
809.79	3363.4	
809.96	5752.7	
810.14	5362.9	
810.31	2945.7	
810.48	3596.9	
810.66	4790.2	
810.83	5418.9	
811.01	3420.8	
811.18	3824.2	
811.35	5364.3	
811.53	4189.5	
811.7	4104.1	
811.87	3827.7	
812.05	4769.7	
812.22	4670.1	
812.39	3312.2	
812.57	3198.2	
812.74	4767	
812.92	6196.5	
813.09	3611.3	
813.26	3865.9	
813.44	5907.7	
813.61	4646.2	
813.78	2970.2	
813.96	3988.1	
814.13	4758.8	
814.3	4467.3	
814.48	4255.7	
814.65	3574.4	
814.82	5964.4	
815	4509.6	
815.17	3659	
815.34	4407.2	
815.52	4682.3	
815.69	4661.9	
815.87	3556	
816.04	3569.6	
816.21	4774.5	
816.38	4230.4	
816.56	3556	
816.73	3295.9	
816.9	5902.2	
817.08	5428.5	
817.25	3315	
817.42	4117.8	
817.6	4401.8	
817.77	4668	
817.94	3685.7	
818.12	3270.6	
818.29	4530.8	
818.46	6779.5	
818.64	3448.1	
818.81	3216	
818.98	4472.8	
819.16	6291.4	
819.33	3912.3	
819.5	3674.1	
819.67	5066	
819.85	5614.2	
820.02	3611.9	
820.19	3809.9	
820.37	4924	
820.54	4535.6	
820.71	3704.1	
820.88	4564.9	
821.06	4954	
821.23	4560.8	
821.4	3759.4	
821.58	3670.6	
821.75	5371.8	
821.92	4853.7	
822.09	2955.9	
822.27	3106.1	
822.44	4777.2	
822.61	4602.5	
822.79	3052.8	
822.96	5682.4	
823.13	5106.3	
823.3	4467.3	
823.48	3532.7	
823.65	3203.7	
823.82	5313.8	
823.99	4374.5	
824.17	4413.4	
824.34	3160	
824.51	6141.2	
824.68	4783.4	
824.86	3383.2	
825.03	3670	
825.2	4754	
825.37	5694.7	
825.55	3332.7	
825.72	3613.3	
825.89	6118	
826.06	5748.6	
826.24	3563.5	
826.41	3610.6	
826.58	5721.3	
826.75	4982	
826.92	2860.3	
827.1	3153.9	
827.27	7621.2	
827.44	6108.4	
827.61	3426.9	
827.79	4059.1	
827.96	4545.8	
828.13	4757.4	
828.3	3556	
828.47	3046	
828.65	5004.6	
828.82	4927.4	
828.99	4504.2	
829.16	3945.8	
829.34	5298.1	
829.51	5161.6	
829.68	3604.4	
829.85	3781.9	
830.02	5538.4	
830.2	5355.4	
830.37	2860.3	
830.54	4325.3	
830.71	5956.2	
830.88	4711	
831.05	2932.7	
831.23	3324.5	
831.4	5731.6	
831.57	6363	
831.74	3489.1	
831.91	3009.8	
832.09	5034.6	
832.26	5321.3	
832.43	3493.2	
832.6	3894.6	
832.77	5018.9	
832.94	5693.4	
833.12	2843.9	
833.29	3435.8	
833.46	5135.6	
833.63	6534.4	
833.8	3859.7	
833.97	3521.1	
834.15	5309.7	
834.32	5156.1	
834.49	3645.4	
834.66	3736.9	
834.83	5479.7	
835	4546.5	
835.17	3359.4	
835.35	3354.6	
835.52	5186.1	
835.69	5130.8	
835.86	3558	
836.03	2941.6	
836.2	5292	
836.37	4923.3	
836.55	3495.2	
836.72	3304.1	
836.89	4835.9	
837.06	5355.4	
837.23	3560.7	
837.4	3873.4	
837.57	6016.2	
837.75	6613.6	
837.92	3218	
838.09	3443.3	
838.26	4922.6	
838.43	5513.1	
838.6	3732.8	
838.77	3257	
838.94	6214.2	
839.11	5978.7	
839.29	3497.2	
839.46	2819.4	
839.63	5253	
839.8	5023.7	
839.97	3414	
840.14	3381.9	
840.31	5127.4	
840.48	5313.1	
840.65	2866.5	
840.82	3416.7	
841	5279.7	
841.17	5253.7	
841.34	3124.5	
841.51	3185.3	
841.68	5240.8	
841.85	4974.5	
842.02	3261	
842.19	2728.6	
842.36	5004.6	
842.53	5084.4	
842.7	3164.8	
842.87	3786.7	
843.05	6500.3	
843.22	5028.4	
843.39	3016.7	
843.56	3223.5	
843.73	4816.8	
843.9	5303.6	
844.07	5024.3	
844.24	4150.6	
844.41	7498.3	
844.58	4658.4	
844.75	3046	
844.92	3314.3	
845.09	5274.2	
845.26	5251.7	
845.43	3130.7	
845.6	3338.9	
845.77	5309	
845.94	5000.5	
846.12	3472	
846.29	3624.9	
846.46	5555.5	
846.63	5274.2	
846.8	3154.6	
846.97	3736.9	
847.14	5724.1	
847.31	5255.8	
847.48	3482.9	
847.65	3824.2	
847.82	5464.7	
847.99	5472.9	
848.16	4112.3	
848.33	3831.1	
848.5	4931.5	
848.67	5672.9	
848.84	3104.7	
849.01	3252.9	
849.18	4784.7	
849.35	4519.9	
849.52	3926.6	
849.69	3098.6	
849.86	5433.3	
850.03	5657.9	
850.2	3155.9	
850.37	3822.9	
850.54	5530.2	
850.71	4988.2	
850.88	3749.8	
851.05	3075.4	
851.22	5117.2	
851.39	5729.5	
851.56	2919	
851.73	3578.5	
851.9	4619.5	
852.07	5424.4	
852.24	3442.6	
852.41	3095.2	
852.58	5180.7	
852.75	4724	
852.92	3496.6	
853.09	3058.3	
853.26	4926.7	
853.43	5616.2	
853.6	3123.2	
853.77	2671.9	
853.94	5759.6	
854.11	5210	
854.28	4517.1	
854.44	3390.1	
854.61	6081.1	
854.78	5487.2	
854.95	3101.3	
855.12	3872.7	
855.29	4292.5	
855.46	5859.2	
855.63	3179.8	
855.8	4259.8	
855.97	4867.3	
856.14	5571.8	
856.31	4351.9	
856.48	3407.8	
856.65	4870.8	
856.82	4589.5	
856.99	3013.9	
857.16	3319.1	
857.33	6292.7	
857.49	4954	
857.66	3354.6	
857.83	3570.3	
858	4971.1	
858.17	5149.3	
858.34	2981.8	
858.51	3092.4	
858.68	5801.2	
858.85	5872.2	
859.02	3605.1	
859.19	3832.4	
859.36	4682.3	
859.52	4670.7	
859.69	3123.8	
859.86	3681.6	
860.03	4758.8	
860.2	5732.9	
860.37	2828.9	
860.54	3175.7	
860.71	5479.7	
860.88	5754.8	
861.05	3422.2	
861.21	3910.9	
861.38	5772.5	
861.55	4491.9	
861.72	2876.7	
861.89	3516.4	
862.06	5533.6	
862.23	5868.1	
862.4	3061	
862.56	3253.5	
862.73	5337.7	
862.9	5057.8	
863.07	3600.3	
863.24	2869.9	
863.41	4593.6	
863.58	4700.1	
863.75	3152.5	
863.91	3650.8	
864.08	5738.4	
864.25	5389.6	
864.42	3901.4	
864.59	4306.9	
864.76	6085.9	
864.93	4654.4	
865.09	3024.8	
865.26	3364.1	
865.43	5665.4	
865.6	6037.4	
865.77	2772.9	
865.94	3047.4	
866.1	5644.2	
866.27	5455.8	
866.44	4603.8	
866.61	2931.3	
866.78	4996.4	
866.95	5371.1	
867.11	3015.3	
867.28	2760.7	
867.45	5558.9	
867.62	4658.4	
867.79	3576.4	
867.96	3064.4	
868.12	4627	
868.29	5459.9	
868.46	2749.7	
868.63	4109.6	
868.8	5612.1	
868.97	5441.5	
869.13	3277.4	
869.3	3239.2	
869.47	5394.3	
869.64	5495.4	
869.81	3128.6	
869.97	3148.4	
870.14	5214.8	
870.31	5791	
870.48	3025.5	
870.65	3927.3	
870.81	4965.6	
870.98	4990.2	
871.15	3489.7	
871.32	3224.9	
871.48	5346.6	
871.65	5852.4	
871.82	3102.7	
871.99	3398.9	
872.16	6197.2	
872.32	5645.6	
872.49	3166.2	
872.66	3146.4	
872.83	5433.3	
872.99	4792.9	
873.16	3612.6	
873.33	3091.8	
873.5	5123.3	
873.67	5194.3	
873.83	3286.3	
874	4100.7	
874.17	5279.7	
874.34	6134.3	
874.5	3975.8	
874.67	3834.5	
874.84	5737.7	
875.01	4591.5	
875.17	4307.6	
875.34	3080.1	
875.51	5237.3	
875.68	6163.7	
875.84	3704.8	
876.01	4439.3	
876.18	5451.7	
876.34	5337	
876.51	3153.9	
876.68	3066.5	
876.85	5016.2	
877.01	5684.5	
877.18	4386.1	
877.35	3108.8	
877.52	5112.4	
877.68	4609.3	
877.85	3075.4	
878.02	3054.2	
878.18	5076.2	
878.35	4855.7	
878.52	2503.3	
878.69	3407.1	
878.85	5476.3	
879.02	5425.8	
879.19	4362.9	
879.35	3347.1	
879.52	5417.6	
879.69	5531.6	
879.86	2709.5	
880.02	3487	
880.19	5016.2	
880.36	6101.6	
880.52	3593.5	
880.69	3723.9	
880.86	5444.9	
881.02	5543.2	
881.19	3364.1	
881.36	3389.4	
881.52	5367.7	
881.69	4799.1	
881.86	3380.5	
882.02	3272	
882.19	5662.6	
882.36	6511.2	
882.52	3203	
882.69	4280.9	
882.86	5219.6	
883.02	5159.5	
883.19	3749.1	
883.36	3507.5	
883.52	5514.5	
883.69	6198.5	
883.86	3199.6	
884.02	2832.3	
884.19	5426.4	
884.36	5091.3	
884.52	3471.3	
884.69	3304.7	
884.86	4865.3	
885.02	5917.9	
885.19	3455.6	
885.36	3510.9	
885.52	5070.1	
885.69	5236.7	
885.86	4431.8	
886.02	3960.8	
886.19	5458.5	
886.35	4959.5	
886.52	3408.5	
886.69	4317.1	
886.85	4681	
887.02	5826.5	
887.19	5826.5	
887.35	5826.5	
887.52	5826.5	
887.68	5826.5	
887.85	5826.5	
888.02	5826.5	
888.18	5826.5	
888.35	5826.5	
888.51	5826.5	
888.68	5826.5	
888.85	5826.5	
889.01	5826.5	
889.18	5826.5	
889.35	5826.5	
889.51	5826.5	
889.68	5826.5	
889.84	5826.5	
890.01	5826.5	
890.17	5826.5	
890.34	5826.5	
890.51	5826.5	
890.67	5826.5	
890.84	5826.5	
891	5826.5	
891.17	5826.5	
891.34	5826.5	
891.5	5826.5	
891.67	5826.5	
891.83	5826.5	
892	5826.5	
892.16	5826.5	
892.33	5826.5	
892.5	5826.5	
892.66	5826.5	
892.83	5826.5	
892.99	5826.5	
893.16	5826.5	
893.32	5826.5	
893.49	5826.5	
893.65	5826.5	
893.82	5826.5	
893.99	5826.5	
894.15	5826.5	
894.32	5826.5	
894.48	5826.5	
894.65	5826.5	
894.81	5826.5	
894.98	5826.5	
895.14	5826.5	
895.31	5826.5	
895.47	5826.5	
895.64	5826.5	
895.81	5826.5	
895.97	5826.5	
896.14	5826.5	
896.3	5826.5	
896.47	5826.5	
896.63	5826.5	
896.8	5826.5	
896.96	5826.5	
897.13	5826.5	
897.29	5826.5	
897.46	5826.5	
897.62	5826.5	
897.79	5826.5	
897.95	5826.5	
898.12	5826.5	
898.28	5826.5	
898.45	5826.5	
898.61	5826.5	
898.78	5826.5	
898.94	5826.5	
899.11	5826.5	
899.27	5826.5	
899.44	5826.5	
899.6	5826.5	
899.77	5826.5	
899.93	5826.5	
900.1	5826.5	
900.26	5826.5	
900.43	5826.5	
900.59	5826.5	
900.76	5826.5	
900.92	5826.5	
901.09	5826.5	
901.25	5826.5	
901.42	5826.5	
901.58	5826.5	
901.75	5826.5	
901.91	5826.5	
902.07	5826.5	
902.24	5826.5	
902.4	5826.5	
902.57	5826.5	
902.73	5826.5	
902.9	5826.5	
903.06	5826.5	
903.23	5826.5	
903.39	5826.5	
903.56	5826.5	
903.72	5826.5	
903.88	5826.5	
904.05	5826.5	
904.21	5826.5	
904.38	5826.5	
904.54	5826.5	
904.71	5826.5	
904.87	5826.5	
905.03	5826.5	
905.2	5826.5	
905.36	5826.5	
905.53	5826.5	
905.69	5826.5	
905.86	5826.5	
906.02	5826.5	
906.18	5826.5	
906.35	5826.5	
906.51	5826.5	
906.68	5826.5	
906.84	5826.5	
907.01	5826.5	
907.17	5826.5	
907.33	5826.5	
907.5	5826.5	
907.66	5826.5	
907.83	5826.5	
907.99	5826.5	
908.15	5826.5	
908.32	5826.5	
908.48	5826.5	
908.65	5826.5	
908.81	5826.5	
908.97	5826.5	
909.14	5826.5	
909.3	5826.5	
909.47	5826.5	
909.63	5826.5	
909.79	5826.5	
909.96	5826.5	
910.12	5826.5	
910.28	5826.5	
910.45	5826.5	
910.61	5826.5	
910.78	5826.5	
910.94	5826.5	
911.1	5826.5	
911.27	5826.5	
911.43	5826.5	
911.59	5826.5	
911.76	5826.5	
911.92	5826.5	
912.08	5826.5	
912.25	5826.5	
912.41	5826.5	
912.57	5826.5	
912.74	5826.5	
912.9	5826.5	
913.07	5826.5	
913.23	5826.5	
913.39	5826.5	
913.56	5826.5	
913.72	5826.5	
913.88	5826.5	
914.05	5826.5	
914.21	5826.5	
914.37	5826.5	
914.54	5826.5	
914.7	5826.5	
914.86	5826.5	
915.03	5826.5	
915.19	5826.5	
