Wavelength	Intensities	
nm	a.u.	
179.22	1645.7	
179.44	1637.4	
179.65	1654.1	
179.86	1620.6	
180.08	1611.1	
180.29	3712.3	
180.51	2884.9	
180.72	4846.9	
180.94	5326.8	
181.15	2608.4	
181.37	2619.4	
181.58	4640.7	
181.79	4818.2	
182.01	2715.6	
182.22	2807.1	
182.44	4887.1	
182.65	4228.4	
182.87	3381.2	
183.08	3050.1	
183.29	5045.5	
183.51	4277.5	
183.72	2809.8	
183.94	3840.6	
184.15	4580.6	
184.37	4480.3	
184.58	2558.6	
184.79	3248.1	
185.01	4339	
185.22	4871.4	
185.44	3435.1	
185.65	2979.1	
185.86	4612	
186.08	4261.8	
186.29	2544.9	
186.51	2686.9	
186.72	4349.2	
186.94	4917.9	
187.15	3000.3	
187.36	3093.8	
187.58	6023.8	
187.79	4604.5	
188.01	3156.6	
188.22	4642.1	
188.43	5332.9	
188.65	4793.6	
188.86	2675.3	
189.08	3097.2	
189.29	4407.9	
189.5	4358.1	
189.72	2828.2	
189.93	2899.2	
190.15	4958.8	
190.36	5609.4	
190.57	3132	
190.79	3006.4	
191	4886.5	
191.22	4969.7	
191.43	3117	
191.64	2732	
191.86	5091.3	
192.07	4929.5	
192.29	2745.6	
192.5	2820.7	
192.71	4985.4	
192.93	4403.8	
193.14	2836.4	
193.35	2922.5	
193.57	4364.2	
193.78	4980.7	
194	2407.7	
194.21	2837.1	
194.42	4273.4	
194.64	4584	
194.85	3070.6	
195.07	3490.4	
195.28	4549.2	
195.49	4104.1	
195.71	3614.7	
195.92	2717	
196.13	4739.7	
196.35	4727.4	
196.56	3781.9	
196.78	3085.6	
196.99	5623.7	
197.2	5244.8	
197.42	3392.8	
197.63	3116.3	
197.84	4193.6	
198.06	4727.4	
198.27	2852.1	
198.48	3634.5	
198.7	4397	
198.91	4571.1	
199.13	3097.9	
199.34	3065.8	
199.55	4928.1	
199.77	4061.1	
199.98	2798.9	
200.19	3097.2	
200.41	4579.9	
200.62	4280.3	
200.83	3173	
201.05	3398.9	
201.26	4578.6	
201.47	4362.2	
201.69	2793.4	
201.9	2697.9	
202.11	4548.5	
202.33	5210	
202.54	2972.3	
202.76	3196.2	
202.97	4612	
203.18	4667.3	
203.4	3170.9	
203.61	3174.4	
203.82	4654.4	
204.04	4343.7	
204.25	3094.5	
204.46	3015.3	
204.68	4586.8	
204.89	4691.9	
205.1	3002.3	
205.32	2698.5	
205.53	4820.9	
205.74	4999.8	
205.96	2391.3	
206.17	3121.1	
206.38	4777.2	
206.6	4881.7	
206.81	3553.2	
207.02	2934.7	
207.24	4717.8	
207.45	5045.5	
207.66	2968.2	
207.88	2618.7	
208.09	4727.4	
208.3	4618.2	
208.52	2740.2	
208.73	2927.9	
208.94	4560.1	
209.15	5010.7	
209.37	2951.8	
209.58	3101.3	
209.79	4881.7	
210.01	4472.8	
210.22	2471.9	
210.43	2634.4	
210.65	4552	
210.86	4793.6	
211.07	2973	
211.29	2738.1	
211.5	4799.1	
211.71	4520.5	
211.93	2780.5	
212.14	2776.4	
212.35	4555.4	
212.56	4534.2	
212.78	3094.5	
212.99	2585.2	
213.2	5204.6	
213.42	4410	
213.63	2820.7	
213.84	2936.1	
214.06	4180.6	
214.27	4182	
214.48	2865.1	
214.69	3119.7	
214.91	5085.1	
215.12	5062.6	
215.33	3091.8	
215.55	3400.3	
215.76	5307.7	
215.97	4727.4	
216.18	3035.8	
216.4	3011.2	
216.61	4284.4	
216.82	4878.9	
217.04	2779.8	
217.25	2852.8	
217.46	4969.7	
217.67	4747.2	
217.89	2529.9	
218.1	2620.7	
218.31	4655	
218.53	4726.7	
218.74	2920.4	
218.95	2770.9	
219.16	4532.8	
219.38	5171.1	
219.59	2822.8	
219.8	3235.1	
220.01	5561.6	
220.23	4612	
220.44	3474	
220.65	2711.5	
220.87	4601.1	
221.08	5002.5	
221.29	2671.9	
221.5	3302.7	
221.72	5771.9	
221.93	4356.7	
222.14	3085.6	
222.35	3566.2	
222.57	4606.6	
222.78	4875.5	
222.99	2963.4	
223.2	3138.9	
223.42	4765.6	
223.63	4849.6	
223.84	2399.5	
224.05	2437.8	
224.27	5482.4	
224.48	5104.2	
224.69	3608.5	
224.9	3096.5	
225.12	4653	
225.33	4530.1	
225.54	2609.8	
225.75	2848	
225.97	4288.4	
226.18	4552	
226.39	2948.4	
226.6	2818.7	
226.82	4406.5	
227.03	4244.1	
227.24	3048.7	
227.45	2655.5	
227.67	4857.1	
227.88	5107	
228.09	3439.2	
228.3	3366.9	
228.52	4802.5	
228.73	4478.9	
228.94	2871.9	
229.15	2627.5	
229.36	4536.9	
229.58	4507.6	
229.79	2938.2	
230	3267.2	
230.21	5261.9	
230.43	4579.3	
230.64	3088.3	
230.85	3165.5	
231.06	4926.7	
231.28	4908.3	
231.49	2600.9	
231.7	3040.6	
231.91	4838	
232.12	4535.6	
232.34	2702	
232.55	2990	
232.76	4995	
232.97	4622.9	
233.18	2757.2	
233.4	3059	
233.61	4700.8	
233.82	4348.5	
234.03	2930	
234.25	2867.8	
234.46	5932.3	
234.67	4595	
234.88	3149.1	
235.09	2834.4	
235.31	4638.6	
235.52	4484.4	
235.73	3046.7	
235.94	2687.6	
236.15	4377.2	
236.37	5280.3	
236.58	2757.2	
236.79	2923.1	
237	4792.2	
237.21	4174.4	
237.43	3202.3	
237.64	2546.3	
237.85	7181.5	
238.06	4293.9	
238.27	3124.5	
238.48	2652.1	
238.7	4773.8	
238.91	4490.5	
239.12	2888.3	
239.33	3041.2	
239.54	4274.8	
239.76	4470.7	
239.97	2960.7	
240.18	2965.5	
240.39	5373.2	
240.6	4717.8	
240.82	3076.7	
241.03	2605	
241.24	4564.9	
241.45	5109.7	
241.66	2745	
241.87	3187.3	
242.09	5070.8	
242.3	5261.9	
242.51	3196.2	
242.72	2961.4	
242.93	4830.5	
243.14	4500.8	
243.36	3380.5	
243.57	3607.2	
243.78	5134.9	
243.99	4806.6	
244.2	2951.1	
244.41	2710.8	
244.63	4259.1	
244.84	4692.6	
245.05	3128.6	
245.26	2992.8	
245.47	4838	
245.68	4926.7	
245.9	3784	
246.11	3119.7	
246.32	4407.2	
246.53	4685.8	
246.74	4607.2	
246.95	2594.8	
247.16	4277.5	
247.38	4599.1	
247.59	2557.9	
247.8	2980.5	
248.01	4256.4	
248.22	4570.4	
248.43	2727.9	
248.64	2932.7	
248.86	4220.9	
249.07	4393.6	
249.28	2727.2	
249.49	3054.2	
249.7	4878.3	
249.91	4894.6	
250.12	2557.9	
250.34	2651.4	
250.55	4655	
250.76	4590.2	
250.97	3052.2	
251.18	3110.9	
251.39	4929.5	
251.6	4676.2	
251.81	3120.4	
252.03	3044.6	
252.24	4408.6	
252.45	4790.9	
252.66	2682.8	
252.87	3214.6	
253.08	4588.1	
253.29	5686.5	
253.5	2689	
253.72	3500	
253.93	4483	
254.14	5229.1	
254.35	2871.3	
254.56	2926.5	
254.77	4667.3	
254.98	4239.3	
255.19	2893.8	
255.41	3510.9	
255.62	4685.1	
255.83	4971.1	
256.04	3137.5	
256.25	3039.9	
256.46	5367	
256.67	4338.3	
256.88	3097.9	
257.09	3360	
257.31	4257	
257.52	4325.3	
257.73	3715.7	
257.94	2868.5	
258.15	4481.6	
258.36	4500.1	
258.57	3488.4	
258.78	2375	
258.99	4911	
259.2	4431.8	
259.41	2835.8	
259.63	2972.3	
259.84	5122	
260.05	5307	
260.26	3599.6	
260.47	2793.4	
260.68	4992.9	
260.89	4414.1	
261.1	3381.9	
261.31	2754.5	
261.52	5044.8	
261.73	5167.7	
261.95	3551.9	
262.16	3187.3	
262.37	4944.5	
262.58	5094.7	
262.79	3616	
263	2926.5	
263.21	4566.3	
263.42	4169.7	
263.63	3125.9	
263.84	2882.9	
264.05	4898.1	
264.26	5073.5	
264.47	3497.9	
264.69	3184.6	
264.9	5048.9	
265.11	4672.1	
265.32	2777	
265.53	2856.9	
265.74	4620.9	
265.95	4149.2	
266.16	3018.7	
266.37	3287.7	
266.58	4639.3	
266.79	4350.6	
267	2831.7	
267.21	2706	
267.42	4210.6	
267.63	4530.1	
267.84	2885.6	
268.06	2587.9	
268.27	4878.9	
268.48	4979.3	
268.69	2868.5	
268.9	3336.1	
269.11	5050.3	
269.32	4147.1	
269.53	2962	
269.74	2759.3	
269.95	4723.3	
270.16	4104.1	
270.37	3026.9	
270.58	3330	
270.79	4447.5	
271	4902.8	
271.21	3069.9	
271.42	3015.3	
271.63	4735.6	
271.84	4217.5	
272.05	2533.3	
272.26	2739.5	
272.47	4538.3	
272.68	4680.3	
272.89	2891	
273.11	3188.7	
273.32	4396.3	
273.53	5154.7	
273.74	3183.2	
273.95	3117	
274.16	4822.3	
274.37	4542.4	
274.58	3210.5	
274.79	2719	
275	4704.9	
275.21	4892.6	
275.42	3809.2	
275.63	3265.1	
275.84	4759.5	
276.05	5631.2	
276.26	3140.2	
276.47	2941.6	
276.68	4536.3	
276.89	5262.6	
277.1	3297.2	
277.31	2658.3	
277.52	4691.2	
277.73	5012.7	
277.94	2639.1	
278.15	2831	
278.36	4760.8	
278.57	4348.5	
278.78	2893.8	
278.99	3183.2	
279.2	4418.8	
279.41	4291.2	
279.62	3697.9	
279.83	2696.5	
280.04	5333.6	
280.25	4194.2	
280.46	3617.4	
280.67	2994.1	
280.88	4326.7	
281.09	4978.6	
281.3	3087	
281.51	3819.5	
281.72	4374.5	
281.93	4881	
282.14	2806.4	
282.35	2977.7	
282.56	4949.3	
282.77	4860.5	
282.98	2938.2	
283.19	3484.3	
283.4	5720	
283.61	4493.9	
283.82	2751.1	
284.03	3575.8	
284.24	4675.5	
284.45	4912.4	
284.66	3612.6	
284.87	3473.4	
285.08	5012.7	
285.29	5083.7	
285.5	2627.5	
285.71	2917.7	
285.92	4853	
286.12	5400.5	
286.33	3519.1	
286.54	2921.1	
286.75	4877.6	
286.96	4479.6	
287.17	2750.4	
287.38	3423.5	
287.59	4375.1	
287.8	4369.7	
288.01	2867.2	
288.22	3254.9	
288.43	4783.4	
288.64	4139.6	
288.85	3422.8	
289.06	3227.6	
289.27	4848.9	
289.48	5085.8	
289.69	3581.2	
289.9	3252.2	
290.11	5074.9	
290.32	4423.6	
290.53	3343	
290.74	3136.8	
290.94	4854.4	
291.15	4906.3	
291.36	2819.4	
291.57	3262.4	
291.78	4414.1	
291.99	4179.9	
292.2	2739.5	
292.41	3205.8	
292.62	4911.7	
292.83	4732.9	
293.04	3832.4	
293.25	2839.2	
293.46	4444.8	
293.67	4866.7	
293.88	2781.8	
294.09	2718.3	
294.29	4299.4	
294.5	4683	
294.71	3000.3	
294.92	2816.6	
295.13	4437.9	
295.34	5330.9	
295.55	2579.8	
295.76	2544.9	
295.97	4836.6	
296.18	5276.9	
296.39	2673.3	
296.6	2856.9	
296.81	4592.2	
297.01	4869.4	
297.22	2960.7	
297.43	2861	
297.64	4446.8	
297.85	4300.7	
298.06	2388.6	
298.27	2600.9	
298.48	4502.1	
298.69	4300.7	
298.9	3072.6	
299.11	2811.9	
299.31	4321.9	
299.52	4305.5	
299.73	3203.7	
299.94	3091.1	
300.15	4615.4	
300.36	4311.7	
300.57	3112.9	
300.78	3055.6	
300.99	4438.6	
301.2	4590.2	
301.4	2863.7	
301.61	3007.8	
301.82	4760.8	
302.03	4854.4	
302.24	3337.5	
302.45	2711.5	
302.66	4760.8	
302.87	4949.9	
303.08	2834.4	
303.29	3719.1	
303.49	4442.7	
303.7	4491.9	
303.91	2574.3	
304.12	3553.2	
304.33	4169.7	
304.54	4642.1	
304.75	2857.6	
304.96	2749.1	
305.16	4780.6	
305.37	5263.3	
305.58	2564.7	
305.79	2618	
306	4797	
306.21	4173.8	
306.42	2833	
306.63	4044.1	
306.83	4474.1	
307.04	4870.8	
307.25	3078.8	
307.46	2983.2	
307.67	4087.1	
307.88	4818.2	
308.09	2807.8	
308.29	2843.9	
308.5	4622.9	
308.71	4902.8	
308.92	2993.4	
309.13	2741.5	
309.34	4560.1	
309.55	4487.8	
309.75	3414.6	
309.96	3197.6	
310.17	4807.9	
310.38	4327.4	
310.59	3252.2	
310.8	3110.9	
311.01	4622.3	
311.21	4493.2	
311.42	2740.2	
311.63	2749.7	
311.84	4382.7	
312.05	4553.3	
312.26	3069.2	
312.46	3361.4	
312.67	4480.3	
312.88	4189.5	
313.09	2721.1	
313.3	2728.6	
313.51	5066.7	
313.71	5307.7	
313.92	2740.2	
314.13	2858.3	
314.34	4739.7	
314.55	4587.4	
314.76	3338.2	
314.96	2992.8	
315.17	4680.3	
315.38	4668.7	
315.59	2818.7	
315.8	2643.2	
316.01	5029.1	
316.21	5185.5	
316.42	2698.5	
316.63	2998.9	
316.84	4472.8	
317.05	4913.1	
317.26	3162.7	
317.46	2886.3	
317.67	4556.7	
317.88	4784.7	
318.09	3362.1	
318.3	2605.7	
318.5	4388.1	
318.71	4721.9	
318.92	4201.7	
319.13	3189.4	
319.34	4904.9	
319.54	4962.9	
319.75	2613.2	
319.96	2490.3	
320.17	4774.5	
320.38	4908.3	
320.58	2568.2	
320.79	2959.3	
321	4924.7	
321.21	5036	
321.42	3018	
321.62	2555.9	
321.83	4329.4	
322.04	4570.4	
322.25	2922.5	
322.46	2778.4	
322.66	4606.6	
322.87	4812	
323.08	3248.8	
323.29	2684.2	
323.5	5221.6	
323.7	4234.5	
323.91	3523.2	
324.12	3246.7	
324.33	4649.6	
324.53	4736.3	
324.74	3178.4	
324.95	3282.9	
325.16	4249.5	
325.37	4441.4	
325.57	2754.5	
325.78	2738.8	
325.99	4658.4	
326.2	4226.3	
326.4	3802.4	
326.61	2554.5	
326.82	4519.9	
327.03	4631.8	
327.24	3728.7	
327.44	3549.8	
327.65	4739.7	
327.86	3984.7	
328.07	3166.2	
328.27	2658.9	
328.48	5026.4	
328.69	4253.6	
328.9	3742.3	
329.1	2872.6	
329.31	4474.1	
329.52	5061.2	
329.73	2764.1	
329.93	3028.3	
330.14	4604.5	
330.35	4687.8	
330.56	4194.9	
330.76	3287.7	
330.97	4437.9	
331.18	4602.5	
331.39	3048.1	
331.59	2523.1	
331.8	4957.4	
332.01	5040.7	
332.22	2783.9	
332.42	3119.1	
332.63	4650.3	
332.84	4315.1	
333.05	3104	
333.25	2794.8	
333.46	4330.1	
333.67	4548.5	
333.88	2898.6	
334.08	3087	
334.29	5717.2	
334.5	4937	
334.7	2691	
334.91	3700	
335.12	4242.7	
335.33	4751.3	
335.53	3022.1	
335.74	4118.5	
335.95	4488.5	
336.16	4218.1	
336.36	3001	
336.57	3340.9	
336.78	4209.9	
336.98	4961.5	
337.19	3600.3	
337.4	2981.8	
337.61	5313.1	
337.81	4249.5	
338.02	2887.6	
338.23	3483.6	
338.43	5086.5	
338.64	4315.1	
338.85	2779.1	
339.05	3507.5	
339.26	5151.3	
339.47	4176.5	
339.68	2777.7	
339.88	3855	
340.09	4805.9	
340.3	4870.1	
340.5	3125.9	
340.71	2529.2	
340.92	4250.2	
341.13	5021.6	
341.33	2649.4	
341.54	3078.8	
341.75	4683	
341.95	4401.1	
342.16	3072.6	
342.37	3319.8	
342.57	4302.8	
342.78	4468	
342.99	3327.9	
343.19	2533.3	
343.4	4833.2	
343.61	4676.9	
343.81	2905.4	
344.02	2704	
344.23	4891.2	
344.43	4969.1	
344.64	3385.3	
344.85	3241.3	
345.06	4726	
345.26	4917.9	
345.47	3180.5	
345.68	3579.8	
345.88	4167.6	
346.09	4844.8	
346.3	3133.4	
346.5	2449.4	
346.71	4459.8	
346.92	4366.3	
347.12	2659.6	
347.33	3134.8	
347.54	4859.8	
347.74	5141.1	
347.95	3127.2	
348.16	2421.4	
348.36	4428.4	
348.57	4219.5	
348.78	3170.3	
348.98	3308.8	
349.19	4504.2	
349.39	4164.9	
349.6	2598.9	
349.81	2808.4	
350.01	4754	
350.22	4323.3	
350.43	3037.1	
350.63	3501.3	
350.84	4524.6	
351.05	4345.1	
351.25	2768.2	
351.46	2575	
351.67	4854.4	
351.87	4308.2	
352.08	2940.9	
352.29	3252.2	
352.49	4820.2	
352.7	4558.8	
352.9	2710.8	
353.11	3228.3	
353.32	5270.1	
353.52	4422.2	
353.73	2703.3	
353.94	3308.2	
354.14	4687.8	
354.35	4536.3	
354.55	2818.7	
354.76	3038.5	
354.97	4709	
355.17	4465.9	
355.38	2676.7	
355.59	3468.6	
355.79	4327.4	
356	4515.8	
356.2	2985.9	
356.41	2691.7	
356.62	4191.5	
356.82	4476.9	
357.03	3201.7	
357.24	2917	
357.44	4341	
357.65	4358.8	
357.85	3736.9	
358.06	3080.8	
358.27	4162.8	
358.47	4175.1	
358.68	2607.7	
358.88	3213.9	
359.09	4683.7	
359.3	4854.4	
359.5	3616.7	
359.71	3306.8	
359.91	5147.9	
360.12	4692.6	
360.33	3188	
360.53	3489.1	
360.74	4310.3	
360.94	4416.8	
361.15	3354.6	
361.36	2816.6	
361.56	4863.2	
361.77	4515.1	
361.97	3631	
362.18	2944.3	
362.38	4926.7	
362.59	4253.6	
362.8	2816	
363	2702	
363.21	4048.8	
363.41	4586.1	
363.62	3097.9	
363.83	3743	
364.03	4711	
364.24	5227.1	
364.44	3923.2	
364.65	3810.6	
364.85	4472.8	
365.06	4259.8	
365.27	2831.7	
365.47	2970.2	
365.68	5109	
365.88	4456.4	
366.09	3144.3	
366.29	2868.5	
366.5	4554.7	
366.71	4897.4	
366.91	3743.7	
367.12	3281.5	
367.32	5292.6	
367.53	4777.9	
367.73	3333.4	
367.94	3882.9	
368.14	4818.9	
368.35	5300.8	
368.56	3211.2	
368.76	3096.5	
368.97	4893.3	
369.17	5860.6	
369.38	2824.1	
369.58	3046	
369.79	4160.8	
369.99	5104.2	
370.2	3860.4	
370.4	3166.8	
370.61	4591.5	
370.82	5524.1	
371.02	3126.6	
371.23	2647.3	
371.43	4203.1	
371.64	5105.6	
371.84	3140.9	
372.05	3837.2	
372.25	5806	
372.46	4798.4	
372.66	3088.3	
372.87	3068.5	
373.07	4874.8	
373.28	5898.2	
373.48	3737.5	
373.69	3537.5	
373.9	4543.8	
374.1	4597.7	
374.31	3727.3	
374.51	3358.7	
374.72	5047.6	
374.92	4255	
375.13	3789.4	
375.33	3246.7	
375.54	4773.8	
375.74	4468.7	
375.95	3373.7	
376.15	4126	
376.36	4831.2	
376.56	4640	
376.77	3367.5	
376.97	3639.2	
377.18	5563	
377.38	4889.2	
377.59	3784	
377.79	3104	
378	4725.3	
378.2	4911	
378.41	3121.8	
378.61	2961.4	
378.82	5081.7	
379.02	4503.5	
379.23	3192.1	
379.43	3891.1	
379.64	5194.3	
379.84	4831.8	
380.05	3115.6	
380.25	3058.3	
380.46	4927.4	
380.66	4620.2	
380.87	4014.7	
381.07	4204.5	
381.28	5353.4	
381.48	4843.4	
381.69	3092.4	
381.89	3160.7	
382.1	4186.7	
382.3	4917.2	
382.51	3857.7	
382.71	4422.9	
382.91	4807.3	
383.12	5212.1	
383.32	3362.1	
383.53	3472.7	
383.73	4799.1	
383.94	4677.6	
384.14	3489.7	
384.35	2899.9	
384.55	4574.5	
384.76	4852.3	
384.96	3345	
385.17	3510.2	
385.37	4943.1	
385.58	4346.5	
385.78	3548.4	
385.98	2818.7	
386.19	4563.6	
386.39	4893.3	
386.6	3100.6	
386.8	3244	
387.01	4859.8	
387.21	4965	
387.42	3616	
387.62	3927.3	
387.83	4488.5	
388.03	4691.2	
388.23	3401.7	
388.44	3909.6	
388.64	4265.2	
388.85	4289.8	
389.05	3614.7	
389.26	3987.4	
389.46	5750.7	
389.67	5245.5	
389.87	3596.2	
390.07	3614	
390.28	4605.2	
390.48	4388.1	
390.69	3099.9	
390.89	3390.8	
391.1	4556.7	
391.3	5171.8	
391.5	4147.8	
391.71	4498.7	
391.91	5017.5	
392.12	5534.3	
392.32	4102.8	
392.53	3642.7	
392.73	4569.7	
392.93	4687.8	
393.14	3476.8	
393.34	3965.6	
393.55	5057.8	
393.75	4672.1	
393.95	3386	
394.16	3379.1	
394.36	4560.1	
394.57	5005.9	
394.77	3098.6	
394.98	3320.4	
395.18	4475.5	
395.38	4608.6	
395.59	3947.8	
395.79	3231	
396	4631.1	
396.2	4967	
396.4	3773.7	
396.61	3748.5	
396.81	5022.3	
397.02	4519.2	
397.22	3966.2	
397.42	3907.5	
397.63	5141.8	
397.83	4557.4	
398.04	3181.9	
398.24	3565.5	
398.44	4943.8	
398.65	4231.1	
398.85	3147.7	
399.05	3158.7	
399.26	4606.6	
399.46	5674.9	
399.67	3459	
399.87	3269.9	
400.07	4766.3	
400.28	4990.2	
400.48	3332.7	
400.69	4049.5	
400.89	5152.7	
401.09	5475.6	
401.3	3258.3	
401.5	3976.5	
401.7	5554.1	
401.91	5750	
402.11	3553.2	
402.32	3630.4	
402.52	5203.9	
402.72	5123.3	
402.93	3810.6	
403.13	3085.6	
403.33	5672.9	
403.54	4798.4	
403.74	3575.8	
403.94	4193.6	
404.15	4939	
404.35	5673.6	
404.56	3434.4	
404.76	4624.3	
404.96	5172.5	
405.17	4981.3	
405.37	4216.1	
405.57	3800.3	
405.78	5231.2	
405.98	4858.5	
406.18	3515.7	
406.39	3992.9	
406.59	5244.2	
406.79	4863.2	
407	3359.4	
407.2	3388.7	
407.4	5449.6	
407.61	5318.6	
407.81	3420.8	
408.01	4902.8	
408.22	4435.2	
408.42	5767.8	
408.62	4162.8	
408.83	3763.5	
409.03	4987.5	
409.23	4822.3	
409.44	3903.4	
409.64	4001	
409.84	5655.1	
410.05	5567.7	
410.25	3924.6	
410.45	3818.1	
410.66	5184.8	
410.86	6853.9	
411.06	4098	
411.27	3979.9	
411.47	6765.1	
411.67	5348.6	
411.88	4168.3	
412.08	4335.5	
412.28	5719.3	
412.49	6112.5	
412.69	4069.3	
412.89	4103.4	
413.09	6027.9	
413.3	5924.1	
413.5	4201.7	
413.7	3912.3	
413.91	5501.5	
414.11	6043.6	
414.31	4071.4	
414.52	4337.6	
414.72	5847	
414.92	5735	
415.12	4082.3	
415.33	4421.6	
415.53	5935.7	
415.73	6079.7	
415.94	4651.6	
416.14	4193.6	
416.34	5403.9	
416.55	5205.9	
416.75	5036	
416.95	4715.1	
417.15	6052.4	
417.36	6434.7	
417.56	5175.2	
417.76	4561.5	
417.97	6219.7	
418.17	5997.1	
418.37	4348.5	
418.57	4336.2	
418.78	6071.5	
418.98	5718.6	
419.18	4927.4	
419.38	4871.4	
419.59	5757.5	
419.79	5498.8	
419.99	4253.6	
420.2	4523.3	
420.4	6129.6	
420.6	6215.6	
420.8	4192.2	
421.01	4160.8	
421.21	5988.9	
421.41	5999.9	
421.61	4459.1	
421.82	4289.8	
422.02	5738.4	
422.22	6324.8	
422.42	4838.7	
422.63	4612	
422.83	5665.4	
423.03	6546	
423.23	4618.2	
423.44	3930.1	
423.64	5769.1	
423.84	5502.2	
424.04	4248.9	
424.25	4009.2	
424.45	6337.1	
424.65	6247	
424.85	3920.5	
425.06	4241.3	
425.26	6472.3	
425.46	5643.5	
425.66	4607.2	
425.87	4358.1	
426.07	6177.4	
426.27	6027.2	
426.47	4422.9	
426.67	4019.5	
426.88	6434	
427.08	6012.8	
427.28	4729.4	
427.48	3903.4	
427.69	5345.9	
427.89	5766.4	
428.09	4561.5	
428.29	4052.9	
428.5	6124.8	
428.7	5885.9	
428.9	3965.6	
429.1	4283	
429.3	5912.5	
429.51	6081.8	
429.71	4231.8	
429.91	4751.3	
430.11	6102.3	
430.31	6453.8	
430.52	4361.5	
430.72	4572.4	
430.92	6473.6	
431.12	6100.9	
431.32	4134.8	
431.53	4476.9	
431.73	5380.7	
431.93	6520.7	
432.13	4194.9	
432.33	4014	
432.54	5789.6	
432.74	5905	
432.94	3966.2	
433.14	4679.6	
433.34	6197.2	
433.55	5830.6	
433.75	4702.8	
433.95	5833.3	
434.15	6032.6	
434.35	5761.6	
434.56	4210.6	
434.76	3885	
434.96	5962.3	
435.16	6157.6	
435.36	4106.2	
435.56	4910.3	
435.77	5767.1	
435.97	5890.6	
436.17	5332.9	
436.37	4833.9	
436.57	5780.1	
436.78	5684.5	
436.98	5991	
437.18	5257.8	
437.38	6185.5	
437.58	5850.4	
437.78	5316.5	
437.99	4456.4	
438.19	6251.1	
438.39	7202	
438.59	4501.4	
438.79	3984	
438.99	6583.5	
439.2	5763	
439.4	4149.9	
439.6	4133.5	
439.8	5969.8	
440	6720.8	
440.2	4820.2	
440.4	4918.5	
440.61	6365.1	
440.81	6657.9	
441.01	4302.1	
441.21	4935.6	
441.41	6701	
441.61	6368.5	
441.81	5153.4	
442.02	5709.7	
442.22	7010.9	
442.42	6477.7	
442.62	4327.4	
442.82	4411.3	
443.02	6806.1	
443.22	6088.6	
443.43	4726.7	
443.63	4321.2	
443.83	6032	
444.03	6025.8	
444.23	5270.1	
444.43	4967.7	
444.63	6334.4	
444.83	7004.7	
445.04	4501.4	
445.24	5382.7	
445.44	6455.2	
445.64	6556.2	
445.84	5010.7	
446.04	5042.1	
446.24	6023.1	
446.44	6728.9	
446.65	4427.7	
446.85	4795	
447.05	6045.6	
447.25	6722.1	
447.45	4827.7	
447.65	4347.8	
447.85	6342.6	
448.05	6029.2	
448.25	5046.9	
448.46	4879.6	
448.66	6288.6	
448.86	6066.8	
449.06	4335.5	
449.26	5059.2	
449.46	6526.9	
449.66	5913.2	
449.86	4846.9	
450.06	4728.1	
450.26	6019.7	
450.47	6404.7	
450.67	4901.5	
450.87	5137	
451.07	6674.3	
451.27	6361.7	
451.47	4496.7	
451.67	5123.3	
451.87	6129.6	
452.07	6901	
452.27	4663.2	
452.47	4670.1	
452.67	6399.9	
452.88	6623.8	
453.08	4308.9	
453.28	5522.7	
453.48	7125.6	
453.68	6293.4	
453.88	4681	
454.08	4702.8	
454.28	6563.7	
454.48	6331.6	
454.68	5115.1	
454.88	5439.4	
455.08	6731.7	
455.28	6455.2	
455.48	4538.3	
455.68	5024.3	
455.89	7059.3	
456.09	6787.7	
456.29	4814.1	
456.49	4943.1	
456.69	6987.7	
456.89	6381.5	
457.09	5209.3	
457.29	5424.4	
457.49	6728.9	
457.69	6804	
457.89	5156.1	
458.09	4691.9	
458.29	6606.1	
458.49	7049.8	
458.69	5386.2	
458.89	5012.1	
459.09	7256	
459.29	7243.7	
459.49	5076.9	
459.69	5645.6	
459.9	6906.4	
460.1	6608.8	
460.3	5037.3	
460.5	4896	
460.7	6960.4	
460.9	6669.6	
461.1	4721.9	
461.3	5499.5	
461.5	7378.1	
461.7	7148.1	
461.9	5042.1	
462.1	5318.6	
462.3	6816.3	
462.5	7217	
462.7	5057.1	
462.9	5172.5	
463.1	7829.4	
463.3	7640.3	
463.5	5255.8	
463.7	6036.7	
463.9	6989.7	
464.1	7252.5	
464.3	5504.3	
464.5	5613.5	
464.7	7404.8	
464.9	7273.7	
465.1	6477	
465.3	5913.9	
465.5	7619.1	
465.7	7774.8	
465.9	6046.3	
466.1	5866.1	
466.3	7549.5	
466.5	7468.3	
466.7	6576	
466.9	5642.8	
467.1	7567.9	
467.3	8034.2	
467.5	6528.9	
467.7	5765	
467.9	8273.1	
468.1	8803.5	
468.3	6238.1	
468.5	6624.5	
468.7	7541.3	
468.9	7399.3	
469.1	6025.8	
469.3	6455.9	
469.5	8819.2	
469.7	7300.3	
469.9	6333.7	
470.1	5957.5	
470.3	7654.6	
470.5	7572	
470.7	6659.3	
470.9	5924.1	
471.1	7434.1	
471.3	7619.1	
471.5	5832.6	
471.69	7043	
471.89	7353.6	
472.09	6982.2	
472.29	6423.1	
472.49	6528.2	
472.69	7151.5	
472.89	7688.1	
473.09	5791.7	
473.29	5829.9	
473.49	7218.4	
473.69	7275.8	
473.89	6412.2	
474.09	5883.8	
474.29	8265.6	
474.49	7894.2	
474.69	6425.2	
474.89	5993.7	
475.09	7360.4	
475.29	7348.1	
475.49	5587.5	
475.69	5793.7	
475.88	8414.4	
476.08	7609.6	
476.28	5548.6	
476.48	5778.7	
476.68	7957.7	
476.88	7690.8	
477.08	5827.8	
477.28	5827.8	
477.48	7458	
477.68	7731.8	
477.88	5644.2	
478.08	5770.5	
478.28	8057.4	
478.48	7417.7	
478.67	5894.1	
478.87	5549.3	
479.07	7892.9	
479.27	7579.5	
479.47	6038.1	
479.67	6030.6	
479.87	7836.9	
480.07	8116.1	
480.27	5592.3	
480.47	6606.1	
480.67	7509.9	
480.87	8053.3	
481.06	5796.4	
481.26	6349.4	
481.46	7642.3	
481.66	7476.5	
481.86	6077	
482.06	6660.7	
482.26	7379.5	
482.46	7989.8	
482.66	6041.5	
482.86	5705.6	
483.05	7743.4	
483.25	7202.7	
483.45	7707.2	
483.65	6035.4	
483.85	7280.5	
484.05	7548.8	
484.25	6337.8	
484.45	6662.7	
484.65	8076.5	
484.84	8137.9	
485.04	6058.6	
485.24	6035.4	
485.44	8414.4	
485.64	7265.5	
485.84	5676.3	
486.04	6460	
486.24	7503.1	
486.44	7676.5	
486.63	5611.4	
486.83	6176.7	
487.03	7595.9	
487.23	7649.2	
487.43	5708.4	
487.63	7202	
487.83	7682.6	
488.02	8176.2	
488.22	6395.8	
488.42	6675.7	
488.62	8303.8	
488.82	7496.9	
489.02	6219	
489.22	6196.5	
489.41	8163.2	
489.61	8036.9	
489.81	6002.6	
490.01	6037.4	
490.21	8160.5	
490.41	8640.4	
490.61	6074.3	
490.8	6053.1	
491	7884.7	
491.2	7438.2	
491.4	6533	
491.6	5909.1	
491.8	7882.6	
491.99	7888.1	
492.19	5799.8	
492.39	5915.2	
492.59	8119.5	
492.79	8209.6	
492.99	6577.4	
493.18	5910.4	
493.38	8312.7	
493.58	8753	
493.78	6451.1	
493.98	6260	
494.18	8165.3	
494.37	7671.7	
494.57	6756.9	
494.77	6578.1	
494.97	8343.4	
495.17	8539.3	
495.37	6431.3	
495.56	6692.1	
495.76	8682.7	
495.96	8486.8	
496.16	7339.9	
496.36	6629.3	
496.55	8686.8	
496.75	8305.2	
496.95	6894.1	
497.15	6903.7	
497.35	8645.2	
497.54	8583	
497.74	6710.5	
497.94	7845.1	
498.14	9136.7	
498.34	8931.2	
498.53	6333.7	
498.73	6982.2	
498.93	8180.3	
499.13	8682.7	
499.33	6954.2	
499.52	7187.7	
499.72	8789.2	
499.92	8778.3	
500.12	6784.2	
500.32	6980.2	
500.51	8822	
500.71	8759.8	
500.91	7433.4	
501.11	7219.8	
501.31	8860.9	
501.5	9069.8	
501.7	7709.2	
501.9	6987.7	
502.1	8702.5	
502.29	8959.2	
502.49	7346.1	
502.69	7582.9	
502.89	8882.7	
503.09	8833.6	
503.28	6652.5	
503.48	6705	
503.68	8345.5	
503.88	8195.3	
504.07	7260.7	
504.27	6955.6	
504.47	8507.9	
504.67	8614.4	
504.86	7256	
505.06	7017	
505.26	8447.9	
505.46	9524.4	
505.65	6934.4	
505.85	7032.7	
506.05	8303.1	
506.25	8583.7	
506.44	6520	
506.64	7090.1	
506.84	8178.9	
507.04	8641.1	
507.23	6604.7	
507.43	7003.4	
507.63	9303.2	
507.83	8189.1	
508.02	6987.7	
508.22	6621.8	
508.42	9637.7	
508.62	8187.1	
508.81	6817.7	
509.01	7208.8	
509.21	8067.6	
509.4	8264.2	
509.6	6944.7	
509.8	6491.4	
510	8244.4	
510.19	9080.7	
510.39	6472.3	
510.59	6585.6	
510.79	8163.2	
510.98	9080	
511.18	6724.2	
511.38	6771.9	
511.57	8803.5	
511.77	8587.8	
511.97	7139.9	
512.17	6582.2	
512.36	8697	
512.56	8609	
512.76	6607.4	
512.95	6345.3	
513.15	8839	
513.35	7730.4	
513.55	7168.6	
513.74	6649.1	
513.94	8743.5	
514.14	8285.4	
514.33	7294.9	
514.53	7124.9	
514.73	8376.9	
514.92	8409	
515.12	6747.4	
515.32	6566.5	
515.51	8541.4	
515.71	8729.1	
515.91	7787.1	
516.11	6600.6	
516.3	9590.6	
516.5	8350.3	
516.7	7000.6	
516.89	7444.4	
517.09	8313.4	
517.29	8322.3	
517.48	7174	
517.68	6771.9	
517.88	8168	
518.07	8575.5	
518.27	7281.2	
518.47	6582.2	
518.66	9023.4	
518.86	8126.3	
519.06	6492.1	
519.25	6774.7	
519.45	8328.4	
519.65	9248.6	
519.84	7193.1	
520.04	7691.5	
520.24	9566.1	
520.43	8714.1	
520.63	6993.8	
520.83	6912.6	
521.02	8286.1	
521.22	8660.2	
521.42	7144	
521.61	7509.2	
521.81	8328.4	
522.01	8519.6	
522.2	7006.8	
522.4	6785.6	
522.6	8868.4	
522.79	8006.9	
522.99	6969.2	
523.18	6595.1	
523.38	8762.6	
523.58	8730.5	
523.77	7795.9	
523.97	6641.6	
524.17	9951.8	
524.36	9447.3	
524.56	7507.9	
524.76	7342	
524.95	8766.7	
525.15	8573.5	
525.34	7304.4	
525.54	7312.6	
525.74	9125.7	
525.93	8400.1	
526.13	8098.4	
526.33	7339.9	
526.52	9449.3	
526.72	8888.2	
526.91	8124.3	
527.11	7696.3	
527.31	9318.3	
527.5	9605.7	
527.7	7666.9	
527.89	7047.1	
528.09	8693.6	
528.29	9115.5	
528.48	7944.1	
528.68	7696.9	
528.87	9419.3	
529.07	9354.4	
529.27	7643	
529.46	7338.6	
529.66	9211.8	
529.85	9403.6	
530.05	7309.9	
530.25	7819.8	
530.44	10100	
530.64	9005.6	
530.83	7510.6	
531.03	7588.4	
531.23	9552.4	
531.42	9266.4	
531.62	8135.2	
531.81	7533.1	
532.01	9546.3	
532.21	9821.4	
532.4	7633.5	
532.6	7800	
532.79	10214	
532.99	9685.5	
533.18	8001.4	
533.38	8613.8	
533.58	9546.3	
533.77	9862.3	
533.97	7989.1	
534.16	8505.9	
534.36	10127	
534.55	9454.1	
534.75	8624	
534.95	8035.5	
535.14	10136	
535.34	9597.5	
535.53	7820.5	
535.73	8989.9	
535.92	10383	
536.12	9502.6	
536.31	7847.8	
536.51	8665	
536.71	9805.7	
536.9	9460.3	
537.1	7888.8	
537.29	8049.9	
537.49	9960.6	
537.68	9346.2	
537.88	8326.4	
538.07	7706.5	
538.27	9731.3	
538.46	10292	
538.66	7636.2	
538.86	8074.5	
539.05	9674.6	
539.25	10017	
539.44	8327.7	
539.64	7946.1	
539.83	9582.4	
540.03	10288	
540.22	7880.6	
540.42	7891.5	
540.61	9766.1	
540.81	9886.9	
541	8135.9	
541.2	8658.1	
541.39	9386.5	
541.59	9592.7	
541.78	8447.9	
541.98	7845.8	
542.18	9215.2	
542.37	9125.7	
542.57	8059.4	
542.76	8450.6	
542.96	9188.6	
543.15	9565.4	
543.35	7991.2	
543.54	7648.5	
543.74	9508.7	
543.93	9398.8	
544.13	7908.6	
544.32	8653.4	
544.52	9596.8	
544.71	9080	
544.91	7335.8	
545.1	8115.4	
545.3	9123.7	
545.49	9534.7	
545.69	7276.4	
545.88	7668.3	
546.08	10251	
546.27	9915.6	
546.47	7955.7	
546.66	7509.9	
546.86	9697.8	
547.05	9993.4	
547.24	7627.3	
547.44	7619.8	
547.63	9008.3	
547.83	9605	
548.02	7897	
548.22	7996.6	
548.41	8874.5	
548.61	9852.8	
548.8	7559.1	
549	7458	
549.19	9280.7	
549.39	9594.7	
549.58	7232.1	
549.78	7649.2	
549.97	9551	
550.17	9106.6	
550.36	8181	
550.55	8785.1	
550.75	9102.5	
550.94	9809.8	
551.14	7402	
551.33	7640.3	
551.53	8662.9	
551.72	9321.7	
551.92	7684	
552.11	7524.2	
552.31	9456.8	
552.5	9256.8	
552.69	8677.9	
552.89	7290.1	
553.08	9344.2	
553.28	9066.4	
553.47	7425.3	
553.67	8175.5	
553.86	9755.2	
554.06	8675.9	
554.25	7002.7	
554.44	7401.4	
554.64	10234	
554.83	9892.4	
555.03	7247.1	
555.22	7578.2	
555.42	9503.9	
555.61	9213.8	
555.8	7459.4	
556	7585	
556.19	8720.9	
556.39	9332.6	
556.58	7511.3	
556.78	7523.6	
556.97	9230.2	
557.16	8933.9	
557.36	8251.9	
557.55	7193.1	
557.75	8400.8	
557.94	9755.8	
558.13	7247.1	
558.33	7197.9	
558.52	9602.9	
558.72	8634.9	
558.91	7211.6	
559.1	7311.9	
559.3	8631.5	
559.49	8421.9	
559.69	7061.4	
559.88	7537.9	
560.07	9080	
560.27	9278.7	
560.46	7664.2	
560.66	7747.5	
560.85	8978.3	
561.04	8393.9	
561.24	7166.5	
561.43	7289.4	
561.63	8576.9	
561.82	8774.9	
562.01	8012.3	
562.21	7410.9	
562.4	9024.7	
562.59	9605.7	
562.79	7275.1	
562.98	7117.4	
563.18	9017.9	
563.37	9919	
563.56	7607.5	
563.76	7107.8	
563.95	8698.4	
564.14	8688.2	
564.34	7359	
564.53	7180.2	
564.73	9139.4	
564.92	9198.1	
565.11	7505.1	
565.31	7084.6	
565.5	9455.5	
565.69	8675.2	
565.89	7318.8	
566.08	7488.7	
566.27	9344.2	
566.47	9587.2	
566.66	7912	
566.85	7047.1	
567.05	9140.8	
567.24	8700.5	
567.44	7225.9	
567.63	8169.3	
567.82	9254.1	
568.02	9028.8	
568.21	7244.3	
568.4	7394.5	
568.6	9130.5	
568.79	8929.8	
568.98	7236.2	
569.18	7240.3	
569.37	9077.3	
569.56	10286	
569.76	7533.1	
569.95	8168.7	
570.14	9301.9	
570.34	9187.2	
570.53	7234.1	
570.72	7187.7	
570.91	9594.7	
571.11	9067	
571.3	7496.9	
571.49	8097.7	
571.69	9095.7	
571.88	8686.8	
572.07	7836.2	
572.27	7817.8	
572.46	8618.5	
572.65	9458.2	
572.85	7354.3	
573.04	7545.4	
573.23	9537.4	
573.43	9149	
573.62	7210.9	
573.81	7561.1	
574	9233.6	
574.2	8928.5	
574.39	7514	
574.58	7542.7	
574.78	9754.5	
574.97	9288.2	
575.16	7958.4	
575.36	8039.6	
575.55	9574.9	
575.74	9755.2	
575.93	7267.6	
576.13	7878.5	
576.32	9159.2	
576.51	9573.6	
576.71	7662.1	
576.9	8509.3	
577.09	9765.4	
577.28	9391.3	
577.48	7789.1	
577.67	7255.3	
577.86	9271.2	
578.05	9445.9	
578.25	7731.1	
578.44	7694.9	
578.63	9246.6	
578.83	10067	
579.02	7337.9	
579.21	8329.1	
579.4	9401.5	
579.6	9273.2	
579.79	7812.3	
579.98	9284.1	
580.17	9645.3	
580.37	9856.9	
580.56	7524.9	
580.75	7931.8	
580.94	9867.1	
581.14	9966.8	
581.33	8254.7	
581.52	7577.5	
581.71	9546.3	
581.91	10091	
582.1	7470.3	
582.29	7774.1	
582.48	9425.4	
582.68	9368.8	
582.87	8070.4	
583.06	7925.6	
583.25	9643.2	
583.45	9123	
583.64	8411	
583.83	8746.9	
584.02	9359.2	
584.21	9618.6	
584.41	8348.2	
584.6	7929.7	
584.79	9470.5	
584.98	9932	
585.18	7596.6	
585.37	7588.4	
585.56	9189.9	
585.75	9648	
585.94	7712	
586.14	8127.7	
586.33	10042	
586.52	9380.4	
586.71	8000.7	
586.91	7774.1	
587.1	9009	
587.29	9716.9	
587.48	7671.7	
587.67	7638.9	
587.87	9572.9	
588.06	9441.8	
588.25	8469	
588.44	7901.1	
588.63	9193.3	
588.83	9602.2	
589.02	7712	
589.21	7490.1	
589.4	9216.5	
589.59	9037	
589.78	7020.4	
589.98	7093.5	
590.17	8540	
590.36	8957.1	
590.55	6644.3	
590.74	7068.2	
590.94	9656.9	
591.13	8624.7	
591.32	6909.2	
591.51	6553.5	
591.7	8847.2	
591.89	8675.2	
592.09	6684.6	
592.28	6953.5	
592.47	8093.6	
592.66	9529.2	
592.85	6784.2	
593.05	6911.9	
593.24	8603.5	
593.43	9284.8	
593.62	6989.7	
593.81	7222.5	
594	8646.5	
594.19	8715.5	
594.39	6876.4	
594.58	6827.2	
594.77	8842.4	
594.96	9123	
595.15	6790.4	
595.34	7305.1	
595.54	8748.2	
595.73	8177.5	
595.92	6403.3	
596.11	6980.8	
596.3	9109.4	
596.49	8233.5	
596.68	6985.6	
596.88	7210.2	
597.07	8947.6	
597.26	8168.7	
597.45	6612.2	
597.64	7450.5	
597.83	8416.5	
598.02	8741.4	
598.22	6648.4	
598.41	7166.5	
598.6	8685.4	
598.79	8213	
598.98	6756.9	
599.17	7275.8	
599.36	8604.2	
599.55	9340.8	
599.74	7933.8	
599.94	7871.7	
600.13	9026.8	
600.32	8175.5	
600.51	6516	
600.7	6741.2	
600.89	9282.1	
601.08	9372.9	
601.27	6509.1	
601.47	7030	
601.66	8874.5	
601.85	9205.6	
602.04	6887.3	
602.23	7016.3	
602.42	8249.9	
602.61	8763.3	
602.8	6945.3	
602.99	6703.7	
603.18	8543.4	
603.37	8597.4	
603.57	7105.8	
603.76	7420.5	
603.95	9185.8	
604.14	8797.4	
604.33	6811.5	
604.52	6982.9	
604.71	8683.4	
604.9	8331.1	
605.09	7415.7	
605.28	7178.1	
605.47	9022.7	
605.66	8646.5	
605.86	7176.1	
606.05	6837.5	
606.24	8950.3	
606.43	7996	
606.62	6883.2	
606.81	7435.5	
607	8952.4	
607.19	8431.5	
607.38	6617.7	
607.57	6671.6	
607.76	8228.1	
607.95	7927	
608.14	7109.9	
608.33	7409.6	
608.52	8249.9	
608.72	8824.7	
608.91	6448.4	
609.1	6459.3	
609.29	8290.2	
609.48	7976.2	
609.67	6984.3	
609.86	6483.2	
610.05	8039.6	
610.24	8232.8	
610.43	6414.2	
610.62	6148.7	
610.81	9041.8	
611	8898.4	
611.19	6479.8	
611.38	6953.5	
611.57	8501.1	
611.76	9227.5	
611.95	6309.1	
612.14	6244.3	
612.33	8221.2	
612.52	7937.2	
612.71	6676.4	
612.9	6150.1	
613.09	7722.9	
613.28	9293.7	
613.47	6491.4	
613.66	7042.3	
613.85	8466.3	
614.04	8018.5	
614.24	6589	
614.43	5985.5	
614.62	8477.9	
614.81	8383.7	
615	6914.6	
615.19	6840.9	
615.38	7961.1	
615.57	8357.8	
615.76	6802	
615.95	7474.4	
616.14	8545.5	
616.33	8344.1	
616.52	7040.9	
616.71	7074.4	
616.9	8495.7	
617.09	8308.6	
617.28	6630.6	
617.47	7305.1	
617.66	7902.4	
617.85	7949.5	
618.04	7224.6	
618.22	6840.2	
618.41	8088.1	
618.6	8858.1	
618.79	6778.8	
618.98	6691.4	
619.17	9050.7	
619.36	7863.5	
619.55	6812.9	
619.74	6893.5	
619.93	8603.5	
620.12	8185.7	
620.31	7225.2	
620.5	7245	
620.69	9112.1	
620.88	9215.2	
621.07	7741.3	
621.26	7104.4	
621.45	8757.8	
621.64	8727.1	
621.83	7277.1	
622.02	6635.4	
622.21	8838.4	
622.4	8645.2	
622.59	7527.7	
622.78	7545.4	
622.97	8367.3	
623.16	9002.9	
623.35	7347.4	
623.54	6703	
623.72	8406.9	
623.91	8531.8	
624.1	7445	
624.29	6564.4	
624.48	9346.2	
624.67	8944.2	
624.86	7323.5	
625.05	6719.4	
625.24	9444.5	
625.43	8451.3	
625.62	8446.5	
625.81	6883.9	
626	8919.6	
626.19	8577.6	
626.38	7279.2	
626.56	7051.2	
626.75	8419.2	
626.94	8921	
627.13	7425.9	
627.32	6591.7	
627.51	8910	
627.7	9500.5	
627.89	6576.7	
628.08	7397.3	
628.27	8200.1	
628.46	8353.7	
628.65	6822.5	
628.83	6516.6	
629.02	8788.5	
629.21	8260.8	
629.4	7023.9	
629.59	7181.5	
629.78	8295.6	
629.97	8929.1	
630.16	7254.6	
630.35	6863.4	
630.54	9326.4	
630.72	9067	
630.91	6945.3	
631.1	7225.2	
631.29	8610.3	
631.48	8595.3	
631.67	7311.2	
631.86	6889.4	
632.05	8525.7	
632.24	8497	
632.42	6737.8	
632.61	7187.7	
632.8	8428.8	
632.99	8190.5	
633.18	7197.2	
633.37	7309.9	
633.56	8617.2	
633.75	8574.2	
633.93	7105.1	
634.12	6965.8	
634.31	9245.2	
634.5	8889.5	
634.69	6948.1	
634.88	7253.9	
635.07	8581	
635.25	8860.9	
635.44	7581.6	
635.63	7633.5	
635.82	8370	
636.01	7854.6	
636.2	7480.5	
636.39	7180.9	
636.57	9251.4	
636.76	8901.8	
636.95	6914.6	
637.14	7666.9	
637.33	8684.1	
637.52	9206.3	
637.7	6675	
637.89	7326.9	
638.08	8398	
638.27	9269.1	
638.46	7339.9	
638.65	7635.5	
638.83	9345.6	
639.02	8267.6	
639.21	7277.1	
639.4	7532.4	
639.59	8548.2	
639.78	8327.7	
639.96	6624.5	
640.15	6812.2	
640.34	8565.3	
640.53	8400.8	
640.72	6542.6	
640.91	6577.4	
641.09	8049.9	
641.28	8943.5	
641.47	6744.6	
641.66	7214.3	
641.85	8479.3	
642.03	8645.8	
642.22	7012.9	
642.41	6804.7	
642.6	8046.5	
642.79	7734.5	
642.97	6636.8	
643.16	6993.8	
643.35	8004.8	
643.54	8019.2	
643.73	6519.4	
643.91	7006.1	
644.1	7783	
644.29	8250.6	
644.48	6596.5	
644.67	6555.5	
644.85	7790.5	
645.04	8163.9	
645.23	6303.6	
645.42	6494.8	
645.6	7754.3	
645.79	8529.8	
645.98	6363.7	
646.17	5696.1	
646.36	7509.9	
646.54	7826	
646.73	6848.4	
646.92	6041.5	
647.11	7603.4	
647.29	8231.5	
647.48	6079.1	
647.67	5864.7	
647.86	8456.7	
648.05	8394.6	
648.23	6246.3	
648.42	7135.8	
648.61	7996	
648.8	7782.3	
648.98	6062.7	
649.17	6261.3	
649.36	7561.8	
649.55	7239.6	
649.73	6063.4	
649.92	6522.8	
650.11	7464.8	
650.3	7689.4	
650.48	6126.8	
650.67	6026.5	
650.86	7858.1	
651.05	7118.1	
651.23	6159.6	
651.42	5998.5	
651.61	7471	
651.79	7417.1	
651.98	6175.3	
652.17	5941.8	
652.36	7761.1	
652.54	7154.9	
652.73	6048.3	
652.92	5935.7	
653.11	7819.8	
653.29	7826	
653.48	5474.9	
653.67	6176	
653.85	7624.6	
654.04	8272.4	
654.23	6244.9	
654.42	5935.7	
654.6	7231.4	
654.79	7650.5	
654.98	5573.2	
655.16	5896.1	
655.35	6989	
655.54	6770.6	
655.73	5541.1	
655.91	5414.1	
656.1	7435.5	
656.29	6694.8	
656.47	5229.8	
656.66	6302.3	
656.85	7075	
657.03	6993.8	
657.22	5571.2	
657.41	5656.5	
657.59	7083.2	
657.78	6939.2	
657.97	5375.9	
658.16	5939.1	
658.34	7574.1	
658.53	7915.4	
658.72	6463.4	
658.9	6877.8	
659.09	7293.5	
659.28	7326.9	
659.46	5758.9	
659.65	5713.2	
659.84	7126.2	
660.02	7492.8	
660.21	5786.9	
660.4	5590.3	
660.58	7788.4	
660.77	7333.8	
660.96	6051.1	
661.14	5380.7	
661.33	8071	
661.52	7912.7	
661.7	5483.1	
661.89	7651.9	
662.08	7037.5	
662.26	6727.6	
662.45	5587.5	
662.64	5617.6	
662.82	7536.5	
663.01	6959.7	
663.2	5637.4	
663.38	6109.8	
663.57	7423.9	
663.75	7341.3	
663.94	5842.9	
664.13	6588.3	
664.31	7096.9	
664.5	7387.7	
664.69	5974.6	
664.87	6333	
665.06	6866.8	
665.25	7389.1	
665.43	6417	
665.62	6522.8	
665.8	7517.4	
665.99	7033.4	
666.18	5803.3	
666.36	5859.9	
666.55	7483.3	
666.74	7403.4	
666.92	5617.6	
667.11	6629.3	
667.29	7151.5	
667.48	7487.4	
667.67	6293.4	
667.85	5672.9	
668.04	7087.3	
668.22	7023.9	
668.41	5783.5	
668.6	6024.4	
668.78	6875	
668.97	7075	
669.15	5972.6	
669.34	5395	
669.53	6963.1	
669.71	7163.8	
669.9	5509	
670.08	5844.9	
670.27	6810.9	
670.46	7350.8	
670.64	6042.2	
670.83	6206	
671.01	6814.3	
671.2	7181.5	
671.38	5554.8	
671.57	5433.3	
671.76	7643.7	
671.94	7982.3	
672.13	5447.6	
672.31	6081.8	
672.5	7475.8	
672.69	6939.2	
672.87	5551.4	
673.06	5707.7	
673.24	7321.5	
673.43	6932.4	
673.61	5945.9	
673.8	5764.3	
673.98	7318.1	
674.17	7400	
674.36	6102.9	
674.54	5970.5	
674.73	7090.1	
674.91	7349.5	
675.1	5753.4	
675.28	5508.4	
675.47	7057.3	
675.65	7442.3	
675.84	5770.5	
676.03	5825.8	
676.21	6984.9	
676.4	6571.2	
676.58	6236.7	
676.77	6051.1	
676.95	7961.8	
677.14	6834.8	
677.32	5455.8	
677.51	5454.4	
677.69	7424.6	
677.88	6703	
678.06	5392.3	
678.25	5477	
678.44	7051.8	
678.62	6889.4	
678.81	5328.1	
678.99	5896.1	
679.18	7567.2	
679.36	7323.5	
679.55	5707.7	
679.73	6027.2	
679.92	7246.4	
680.1	6811.5	
680.29	6441.5	
680.47	5644.2	
680.66	6929.6	
680.84	7395.2	
681.03	5233.9	
681.21	5988.9	
681.4	6850.5	
681.58	6823.1	
681.77	5539.1	
681.95	5490.6	
682.14	7429.3	
682.32	7713.3	
682.51	6112.5	
682.69	5284.4	
682.88	6842.9	
683.06	7141.9	
683.25	5844.9	
683.43	6164.4	
683.62	7029.3	
683.8	7298.3	
683.99	6318	
684.17	5705	
684.36	7787.1	
684.54	6922.1	
684.73	5250.3	
684.91	5337.7	
685.1	7121.5	
685.28	6631.3	
685.46	5556.8	
685.65	5539.8	
685.83	6967.9	
686.02	6651.8	
686.2	5061.9	
686.39	5226.4	
686.57	6378.7	
686.76	7448.5	
686.94	5160.9	
687.13	5330.9	
687.31	6891.4	
687.5	6665.5	
687.68	4967	
687.86	5698.8	
688.05	7859.4	
688.23	6372.6	
688.42	5761.6	
688.6	5292	
688.79	6582.9	
688.97	6683.2	
689.16	5666	
689.34	4880.3	
689.52	7085.3	
689.71	7311.9	
689.89	5786.9	
690.08	5303.6	
690.26	6904.4	
690.45	6796.5	
690.63	5810.8	
690.81	5439.4	
691	6871.6	
691.18	6630	
691.37	5522.7	
691.55	6883.9	
691.74	6624.5	
691.92	7923.6	
692.1	5500.8	
692.29	5125.4	
692.47	6769.9	
692.66	6315.3	
692.84	5253	
693.02	5580	
693.21	6317.3	
693.39	6742.6	
693.58	5724.1	
693.76	5221.6	
693.94	7499.7	
694.13	7437.5	
694.31	5304.9	
694.5	6043.6	
694.68	6589.7	
694.86	6890	
695.05	5628.5	
695.23	5730.2	
695.42	7161.1	
695.6	8609.7	
695.78	6064	
695.97	5466.7	
696.15	7235.5	
696.34	6791.1	
696.52	5318.6	
696.7	5918.6	
696.89	7040.9	
697.07	6614.3	
697.25	5792.3	
697.44	6623.8	
697.62	7077.8	
697.81	7114	
697.99	5554.8	
698.17	5812.1	
698.36	6624.5	
698.54	6993.1	
698.72	5747.3	
698.91	5103.5	
699.09	6772.6	
699.28	6475.7	
699.46	5570.5	
699.64	5389.6	
699.83	6614.9	
700.01	7257.3	
700.19	5997.8	
700.38	5000.5	
700.56	7238.9	
700.74	6582.2	
700.93	5164.3	
701.11	5724.1	
701.29	7028.6	
701.48	7734.5	
701.66	5270.8	
701.84	5398.4	
702.03	6774	
702.21	7262.1	
702.39	5056.4	
702.58	5586.9	
702.76	7096.9	
702.94	7139.9	
703.13	5029.8	
703.31	6647.7	
703.49	6716.7	
703.68	7634.8	
703.86	5316.5	
704.04	5786.2	
704.23	6982.9	
704.41	7165.8	
704.59	5345.2	
704.78	6083.1	
704.96	7923.6	
705.14	7089.4	
705.33	5193	
705.51	5725.4	
705.69	6748.7	
705.87	7320.8	
706.06	5869.5	
706.24	5164.3	
706.42	7050.5	
706.61	7183.6	
706.79	5917.3	
706.97	5141.1	
707.16	6716.7	
707.34	6989	
707.52	5780.1	
707.7	5293.3	
707.89	6625.2	
708.07	6500.9	
708.25	5882.4	
708.44	6018.3	
708.62	6606.7	
708.8	7320.8	
708.98	5981.4	
709.17	5332.9	
709.35	6878.4	
709.53	6934.4	
709.72	5167	
709.9	5216.9	
710.08	7144.7	
710.26	7062.1	
710.45	6257.9	
710.63	5408	
710.81	6793.8	
710.99	6865.5	
711.18	5807.4	
711.36	5421	
711.54	6726.9	
711.72	7152.9	
711.91	5503.6	
712.09	5112.4	
712.27	6799.3	
712.45	7096.2	
712.64	5567.7	
712.82	4892.6	
713	6454.5	
713.18	6562.4	
713.37	4912.4	
713.55	5703.6	
713.73	7049.8	
713.91	6139.1	
714.1	5158.2	
714.28	4748.6	
714.46	6549.4	
714.64	6107.7	
714.83	4319.2	
715.01	4874.8	
715.19	6102.3	
715.37	5526.8	
715.55	4515.8	
715.74	4620.2	
715.92	6535.1	
716.1	5147.9	
716.28	5377.3	
716.47	4758.8	
716.65	5834	
716.83	5801.9	
717.01	4610.7	
717.19	4621.6	
717.38	7146	
717.56	5490.6	
717.74	4758.1	
717.92	4255.7	
718.1	6348.7	
718.29	5756.8	
718.47	3938.9	
718.65	4453	
718.83	6397.9	
719.01	6326.2	
719.2	4031.8	
719.38	4756.1	
719.56	6161.7	
719.74	7148.8	
719.92	4534.9	
720.11	5186.1	
720.29	6236.7	
720.47	5584.8	
720.65	4231.1	
720.83	4734.2	
721.02	5879	
721.2	5665.4	
721.38	4657.8	
721.56	4199.7	
721.74	5307	
721.92	5289.9	
722.11	4988.9	
722.29	4831.8	
722.47	6191.7	
722.65	5638.7	
722.83	4221.5	
723.01	4836.6	
723.2	5675.6	
723.38	5905.7	
723.56	3812.6	
723.74	4616.8	
723.92	5339.1	
724.1	6107.7	
724.29	4111	
724.47	4827.1	
724.65	5558.9	
724.83	5368.4	
725.01	4120.5	
725.19	4599.7	
725.37	5390.3	
725.56	5324	
725.74	3910.3	
725.92	4132.1	
726.1	5364.3	
726.28	5545.9	
726.46	4375.1	
726.64	4217.5	
726.83	5584.1	
727.01	5594.4	
727.19	3977.8	
727.37	4485.7	
727.55	5635.3	
727.73	5967.8	
727.91	3943	
728.09	3852.2	
728.28	6027.2	
728.46	6111.8	
728.64	4556.7	
728.82	4515.1	
729	6615.6	
729.18	6189	
729.36	3940.3	
729.54	5487.2	
729.72	6808.8	
729.91	5763.7	
730.09	5328.1	
730.27	4445.5	
730.45	5759.6	
730.63	6064.7	
730.81	4891.9	
730.99	4233.2	
731.17	6525.5	
731.35	5535.7	
731.53	4565.6	
731.71	4382.7	
731.9	6307.1	
732.08	6350.1	
732.26	4496.7	
732.44	4285.7	
732.62	6382.2	
732.8	6028.5	
732.98	4747.9	
733.16	4162.8	
733.34	6046.3	
733.52	5200.5	
733.7	4418.2	
733.88	4609.3	
734.07	5901.6	
734.25	5752.1	
734.43	4122.6	
734.61	5104.9	
734.79	6716	
734.97	5666	
735.15	4198.3	
735.33	4367	
735.51	5943.9	
735.69	5778	
735.87	5051	
736.05	4518.5	
736.23	5839.4	
736.41	5561.6	
736.59	4415.4	
736.77	4493.9	
736.95	6055.2	
737.13	5708.4	
737.32	4181.3	
737.5	4348.5	
737.68	6572.6	
737.86	5507	
738.04	4040	
738.22	5308.3	
738.4	5509	
738.58	5776	
738.76	4369	
738.94	3778.5	
739.12	5557.5	
739.3	5473.5	
739.48	4843.4	
739.66	4631.8	
739.84	5707	
740.02	5658.5	
740.2	3847.5	
740.38	4029.7	
740.56	5912.5	
740.74	5154.7	
740.92	4420.9	
741.1	4364.2	
741.28	5550.7	
741.46	5425.1	
741.64	4151.2	
741.82	4526	
742	5603.9	
742.18	5480.4	
742.36	4268.6	
742.54	3959.4	
742.72	5973.2	
742.9	5086.5	
743.08	4477.5	
743.26	3679.5	
743.44	5924.8	
743.62	5881.8	
743.8	4611.3	
743.98	3943	
744.16	5734.3	
744.34	5495.4	
744.52	4537.6	
744.7	4472.8	
744.88	5818.3	
745.06	5474.9	
745.24	4504.2	
745.42	4570.4	
745.6	5934.3	
745.78	5783.5	
745.96	3743	
746.14	3965.6	
746.32	6294.8	
746.5	5751.4	
746.68	4242.7	
746.86	3928	
747.03	6006	
747.21	4962.9	
747.39	4252.3	
747.57	3936.2	
747.75	5526.8	
747.93	5808.7	
748.11	3938.9	
748.29	3816	
748.47	6668.9	
748.65	5340.4	
748.83	4415.4	
749.01	4149.9	
749.19	5601.2	
749.37	5103.5	
749.55	4094.6	
749.73	4151.9	
749.91	5491.3	
750.09	5250.3	
750.26	4118.5	
750.44	3768.9	
750.62	5449	
750.8	5390.9	
750.98	3654.3	
751.16	3872.7	
751.34	5517.2	
751.52	5022.3	
751.7	4369.7	
751.88	3611.3	
752.06	5791	
752.24	5612.1	
752.42	3585.3	
752.59	3860.4	
752.77	5429.8	
752.95	6190.3	
753.13	4410.6	
753.31	3851.5	
753.49	5199.1	
753.67	5446.9	
753.85	4164.2	
754.03	3809.2	
754.21	5626.5	
754.38	5847	
754.56	3848.8	
754.74	3315.7	
754.92	5037.3	
755.1	5474.2	
755.28	3258.3	
755.46	3235.1	
755.64	6084.5	
755.82	6042.2	
755.99	3378.5	
756.17	3423.5	
756.35	4292.5	
756.53	5309	
756.71	2646	
756.89	3265.1	
757.07	4966.3	
757.25	4451.6	
757.42	3603.1	
757.6	4243.4	
757.78	5127.4	
757.96	4463.2	
758.14	3415.3	
758.32	3139.5	
758.5	4123.9	
758.67	4734.9	
758.85	3375.1	
759.03	3399.6	
759.21	4883	
759.39	4426.3	
759.57	3009.8	
759.75	3811.3	
759.92	5278.3	
760.1	4870.8	
760.28	3999	
760.46	4196.3	
760.64	4753.3	
760.82	4537.6	
760.99	3931.4	
761.17	3455.6	
761.35	5266	
761.53	4471.4	
761.71	3624.2	
761.89	3967.6	
762.06	5126.7	
762.24	4806.6	
762.42	3606.5	
762.6	3388.7	
762.78	4831.2	
762.96	5254.4	
763.13	3875.4	
763.31	3588.7	
763.49	5371.1	
763.67	4780	
763.85	4220.2	
764.02	4607.2	
764.2	5562.3	
764.38	4913.8	
764.56	3553.2	
764.74	4054.3	
764.91	5571.2	
765.09	4830.5	
765.27	3439.9	
765.45	3151.8	
765.63	5653.8	
765.8	5488.6	
765.98	3046	
766.16	3223.5	
766.34	4535.6	
766.52	4341	
766.69	3857.7	
766.87	3130	
767.05	4846.2	
767.23	5318.6	
767.41	3354.6	
767.58	3532.1	
767.76	5189.6	
767.94	5227.8	
768.12	3392.8	
768.29	3816	
768.47	4789.5	
768.65	5314.5	
768.83	3168.9	
769	3852.2	
769.18	4594.3	
769.36	5010.7	
769.54	3865.9	
769.72	3166.8	
769.89	5297.4	
770.07	5326.8	
770.25	3377.8	
770.43	4258.4	
770.6	5784.1	
770.78	5961	
770.96	3552.5	
771.14	3860.4	
771.31	5223.7	
771.49	4732.2	
771.67	2963.4	
771.85	3142.3	
772.02	4235.2	
772.2	4666.6	
772.38	3624.2	
772.55	3217.4	
772.73	4921.3	
772.91	4757.4	
773.09	3476.8	
773.26	3607.8	
773.44	4943.8	
773.62	4659.1	
773.8	3209.8	
773.97	2979.1	
774.15	4941.7	
774.33	4700.8	
774.5	3108.8	
774.68	3290.4	
774.86	5051.7	
775.04	4679.6	
775.21	3188.7	
775.39	3097.2	
775.57	4893.3	
775.74	5056.4	
775.92	3002.3	
776.1	2906.1	
776.27	4786.8	
776.45	5663.3	
776.63	3142.3	
776.81	2882.2	
776.98	4606.6	
777.16	5203.2	
777.34	3177.8	
777.51	3394.2	
777.69	4644.1	
777.87	4421.6	
778.04	3308.2	
778.22	3651.5	
778.4	4442	
778.57	4896.7	
778.75	2783.9	
778.93	2917	
779.1	4389.5	
779.28	4183.3	
779.46	2764.1	
779.64	3071.3	
779.81	5033.9	
779.99	5609.4	
780.17	3543	
780.34	3661.1	
780.52	4606.6	
780.69	4710.3	
780.87	3334.8	
781.05	3025.5	
781.22	4701.5	
781.4	4703.5	
781.58	3162.1	
781.75	2565.4	
781.93	4723.3	
782.11	4235.2	
782.28	3760.1	
782.46	3111.5	
782.64	4138.3	
782.81	4753.3	
782.99	3195.5	
783.17	3128.6	
783.34	4718.5	
783.52	4296	
783.69	3255.6	
783.87	3790.8	
784.05	4345.1	
784.22	4241.3	
784.4	3775.1	
784.58	3360.7	
784.75	5001.8	
784.93	4357.4	
785.1	3103.4	
785.28	3454.9	
785.46	4749.9	
785.63	4251.6	
785.81	3098.6	
785.99	2953.9	
786.16	4441.4	
786.34	4702.1	
786.51	3008.5	
786.69	3315.7	
786.87	4132.1	
787.04	4416.8	
787.22	2914.9	
787.39	3595.6	
787.57	4284.4	
787.75	4967	
787.92	3701.4	
788.1	3601	
788.27	4241.3	
788.45	3999.7	
788.63	3485	
788.8	2583.2	
788.98	4630.5	
789.15	3989.4	
789.33	2663	
789.5	3097.2	
789.68	4898.7	
789.86	4992.9	
790.03	3407.1	
790.21	3016.7	
790.38	4997	
790.56	4367	
790.73	2938.8	
790.91	2921.1	
791.09	4304.1	
791.26	4734.2	
791.44	3094.5	
791.61	2717	
791.79	4269.3	
791.96	4272.7	
792.14	2783.9	
792.32	2552.5	
792.49	4227.7	
792.67	4332.1	
792.84	2857.6	
793.02	2744.3	
793.19	4611.3	
793.37	5032.5	
793.54	2502.6	
793.72	2747	
793.89	5056.4	
794.07	4229.1	
794.25	3177.1	
794.42	2565.4	
794.6	4937	
794.77	4689.8	
794.95	3354.6	
795.12	2937.5	
795.3	4337.6	
795.47	4673.5	
795.65	3254.2	
795.82	3132	
796	4170.3	
796.17	5384.8	
796.35	3072.6	
796.52	3521.8	
796.7	4635.9	
796.87	4766.3	
797.05	3048.1	
797.22	3564.1	
797.4	4706.9	
797.57	5317.9	
797.75	3159.3	
797.92	2997.5	
798.1	4954.7	
798.27	4162.8	
798.45	2627.5	
798.62	2775	
798.8	4511.7	
798.97	4860.5	
799.15	3321.8	
799.32	3134.8	
799.5	3943	
799.67	4472.8	
799.85	3349.8	
800.02	2564.1	
800.2	4246.1	
800.37	4432.5	
800.55	3426.9	
800.72	2982.5	
800.9	4788.8	
801.07	5107.6	
801.25	3841.3	
801.42	3241.9	
801.6	4819.6	
801.77	4439.3	
801.95	3041.9	
802.12	2957.9	
802.29	4578.6	
802.47	4569	
802.64	3201.7	
802.82	2514.2	
802.99	4280.9	
803.17	4859.1	
803.34	3127.2	
803.52	2829.6	
803.69	5304.9	
803.87	4085	
804.04	3166.2	
804.21	3124.5	
804.39	5038.7	
804.56	4336.9	
804.74	2706.7	
804.91	3232.4	
805.09	4236.6	
805.26	4323.3	
805.44	2819.4	
805.61	2957.9	
805.78	4758.8	
805.96	4732.2	
806.13	3201	
806.31	3432.4	
806.48	3997	
806.66	4296	
806.83	3224.2	
807	3105.4	
807.18	4273.4	
807.35	4501.4	
807.53	2964.8	
807.7	2633.7	
807.87	5005.2	
808.05	4288.4	
808.22	3355.3	
808.4	2580.4	
808.57	4217.5	
808.74	4057.7	
808.92	2902	
809.09	3539.6	
809.27	4278.2	
809.44	4653	
809.61	2557.9	
809.79	2894.5	
809.96	5201.2	
810.14	4730.1	
810.31	2572.9	
810.48	3056.3	
810.66	4332.8	
810.83	4827.7	
811.01	2893.8	
811.18	3164.1	
811.35	4732.9	
811.53	3822.9	
811.7	3402.4	
811.87	3252.9	
812.05	4313.7	
812.22	4203.8	
812.39	2843.9	
812.57	2781.1	
812.74	4282.3	
812.92	5378.6	
813.09	3068.5	
813.26	3206.4	
813.44	5175.9	
813.61	4103.4	
813.78	2567.5	
813.96	3317	
814.13	4382.7	
814.3	4126	
814.48	3590.1	
814.65	3033	
814.82	5010.7	
815	4046.1	
815.17	3080.1	
815.34	3679.5	
815.52	4192.9	
815.69	4242	
815.87	2996.2	
816.04	3003.7	
816.21	4261.1	
816.38	3934.1	
816.56	3009.1	
816.73	2808.4	
816.9	5255.8	
817.08	4760.8	
817.25	2794.1	
817.42	3451.5	
817.6	3938.9	
817.77	4242.7	
817.94	3162.7	
818.12	2850.8	
818.29	4080.2	
818.46	5750	
818.64	2941.6	
818.81	2737.5	
818.98	4108.9	
819.16	5473.5	
819.33	3327.3	
819.5	3080.8	
819.67	4568.3	
819.85	4965	
820.02	3021.4	
820.19	3182.5	
820.37	4425	
820.54	4113	
820.71	3155.9	
820.88	3835.8	
821.06	4368.3	
821.23	4108.2	
821.4	3132	
821.58	3136.1	
821.75	4711	
821.92	4380.6	
822.09	2646	
822.27	2648	
822.44	4283	
822.61	4187.4	
822.79	2625.5	
822.96	4685.1	
823.13	4502.1	
823.3	4067.9	
823.48	2948.4	
823.65	2669.9	
823.82	4775.9	
823.99	4025.6	
824.17	3682.2	
824.34	2792.7	
824.51	5401.2	
824.68	4299.4	
824.86	2845.3	
825.03	3130	
825.2	4306.2	
825.37	4920.6	
825.55	2837.1	
825.72	3054.2	
825.89	5315.8	
826.06	5050.3	
826.24	2974.3	
826.41	2996.9	
826.58	5081.7	
826.75	4497.3	
826.92	2519	
827.1	2704.7	
827.27	6454.5	
827.44	5297.4	
827.61	2889	
827.79	3397.6	
827.96	4200.4	
828.13	4261.1	
828.3	3030.3	
828.47	2619.4	
828.65	4578.6	
828.82	4506.2	
828.99	3710.9	
829.16	3246.7	
829.34	4778.6	
829.51	4666.6	
829.68	3082.2	
829.85	3072	
830.02	5030.5	
830.2	4795	
830.37	2485.6	
830.54	3516.4	
830.71	5251	
830.88	4304.8	
831.05	2437.1	
831.23	2845.3	
831.4	5137	
831.57	5522.7	
831.74	2889.7	
831.91	2564.7	
832.09	4587.4	
832.26	4795	
832.43	2885.6	
832.6	3326.6	
832.77	4558.8	
832.94	5025	
833.12	2402.3	
833.29	2856.2	
833.46	4538.3	
833.63	5715.9	
833.8	3192.1	
833.97	2960.7	
834.15	4838	
834.32	4629.8	
834.49	3078.8	
834.66	3115	
834.83	4799.1	
835	4142.4	
835.17	2886.3	
835.35	2849.4	
835.52	4759.5	
835.69	4583.4	
835.86	2983.2	
836.03	2502.6	
836.2	4723.3	
836.37	4509.6	
836.55	2942.9	
836.72	2771.6	
836.89	4498.7	
837.06	4859.1	
837.23	2988.7	
837.4	3198.9	
837.57	5341.1	
837.75	5741.8	
837.92	2670.6	
838.09	2868.5	
838.26	4493.9	
838.43	4839.4	
838.6	3033	
838.77	2770.9	
838.94	5427.1	
839.11	5320.6	
839.29	2999.6	
839.46	2381.8	
839.63	4847.5	
839.8	4558.8	
839.97	2837.1	
840.14	2850.1	
840.31	4673.5	
840.48	4772.4	
840.65	2471.2	
840.82	2820.1	
841	4752	
841.17	4618.2	
841.34	2597.5	
841.51	2783.9	
841.68	4736.3	
841.85	4554.7	
842.02	2746.3	
842.19	2339.5	
842.36	4659.1	
842.53	4622.3	
842.7	2680.1	
842.87	3131.3	
843.05	5655.1	
843.22	4554	
843.39	2556.5	
843.56	2742.9	
843.73	4451.6	
843.9	4854.4	
844.07	4126	
844.24	3416.7	
844.41	6292	
844.58	4243.4	
844.75	2581.8	
844.92	2755.2	
845.09	4698.7	
845.26	4701.5	
845.43	2649.4	
845.6	2833	
845.77	4768.4	
845.94	4530.8	
846.12	2927.2	
846.29	3050.1	
846.46	4955.4	
846.63	4743.1	
846.8	2736.1	
846.97	3094.5	
847.14	5035.3	
847.31	4660.5	
847.48	2970.9	
847.65	3217.4	
847.82	4850.3	
847.99	4872.1	
848.16	3396.9	
848.33	3205.1	
848.5	4371.7	
848.67	5045.5	
848.84	2617.3	
849.01	2729.9	
849.18	4358.8	
849.35	4148.5	
849.52	3266.5	
849.69	2566.1	
849.86	4940.4	
850.03	4943.1	
850.2	2665.8	
850.37	3196.2	
850.54	4909.7	
850.71	4466.6	
850.88	3164.1	
851.05	2625.5	
851.22	4656.4	
851.39	5042.1	
851.56	2508.8	
851.73	2989.4	
851.9	4206.5	
852.07	4896.7	
852.24	2893.1	
852.41	2587.3	
852.58	4670.1	
852.75	4332.1	
852.92	2983.2	
853.09	2583.9	
853.26	4391.5	
853.43	4977.2	
853.6	2669.9	
853.77	2265.7	
853.94	5058.5	
854.11	4222.2	
854.28	3721.2	
854.44	2827.6	
854.61	5317.2	
854.78	4913.8	
854.95	2628.9	
855.12	3221.5	
855.29	3884.3	
855.46	5106.3	
855.63	2659.6	
855.8	3504.1	
855.97	4392.9	
856.14	4995	
856.31	3586	
856.48	2824.1	
856.65	4436.6	
856.82	4230.4	
856.99	2540.8	
857.16	2819.4	
857.33	5535	
857.49	4491.2	
857.66	2792.1	
857.83	3028.3	
858	4524	
858.17	4603.2	
858.34	2497.2	
858.51	2639.8	
858.68	5115.8	
858.85	5122	
859.02	2981.8	
859.19	3145.7	
859.36	4267.3	
859.52	4213.4	
859.69	2669.2	
859.86	3056.3	
860.03	4298	
860.2	5113.1	
860.37	2464.4	
860.54	2696.5	
860.71	4823.6	
860.88	5155.4	
861.05	2897.2	
861.21	3302.7	
861.38	5135.6	
861.55	4078.2	
861.72	2432.3	
861.89	2941.6	
862.06	4952	
862.23	5218.2	
862.4	2618	
862.56	2738.1	
862.73	4802.5	
862.9	4564.9	
863.07	3048.7	
863.24	2419.3	
863.41	4226.3	
863.58	4288.4	
863.75	2604.3	
863.91	3041.2	
864.08	5006.6	
864.25	4863.9	
864.42	3229.6	
864.59	3600.3	
864.76	5323.4	
864.93	4242.7	
865.09	2594.8	
865.26	2770.9	
865.43	5072.1	
865.6	5308.3	
865.77	2409.8	
865.94	2665.1	
866.1	4997.7	
866.27	4842.8	
866.44	3831.1	
866.61	2534.7	
866.78	4524	
866.95	4771.1	
867.11	2641.9	
867.28	2363.4	
867.45	5014.1	
867.62	4264.6	
867.79	3034.4	
867.96	2623.4	
868.12	4176.5	
868.29	4855.1	
868.46	2638.5	
868.63	3461.1	
868.8	4996.4	
868.97	4866	
869.13	2728.6	
869.3	2776.4	
869.47	4745.8	
869.64	4915.1	
869.81	2653.5	
869.97	2628.9	
870.14	4649.6	
870.31	5111	
870.48	2552.5	
870.65	3252.2	
870.81	4523.3	
870.98	4497.3	
871.15	2939.5	
871.32	2729.3	
871.48	4775.9	
871.65	5156.1	
871.82	2635.7	
871.99	2857.6	
872.16	5478.3	
872.32	5077.6	
872.49	2699.9	
872.66	2706	
872.83	4881	
872.99	4360.8	
873.16	3004.4	
873.33	2589.3	
873.5	4581.3	
873.67	4640	
873.83	2749.7	
874	3438.5	
874.17	4693.9	
874.34	5317.2	
874.5	3355.9	
874.67	3109.5	
874.84	5091.3	
875.01	4113	
875.17	3558	
875.34	2678.1	
875.51	4635.9	
875.68	5463.3	
875.84	3111.5	
876.01	3660.4	
876.18	4912.4	
876.34	4799.1	
876.51	2683.5	
876.68	2617.3	
876.85	4422.2	
877.01	5038.7	
877.18	3643.3	
877.35	2615.3	
877.52	4709	
877.68	4229.1	
877.85	2631	
878.02	2614.6	
878.18	4416.8	
878.35	4420.2	
878.52	2158.6	
878.69	3038.5	
878.85	4945.8	
879.02	4814.8	
879.19	3621.5	
879.35	2826.2	
879.52	4793.6	
879.69	4917.2	
879.86	2424.1	
880.02	2893.1	
880.19	4515.8	
880.36	5316.5	
880.52	2988	
880.69	3095.8	
880.86	4872.1	
881.02	4865.3	
881.19	2896.5	
881.36	2868.5	
881.52	4803.2	
881.69	4308.9	
881.86	2854.2	
882.02	2810.5	
882.19	5055.1	
882.36	5682.4	
882.52	2685.6	
882.69	3583.3	
882.86	4655	
883.02	4626.4	
883.19	3086.3	
883.36	2979.1	
883.52	4901.5	
883.69	5446.2	
883.86	2699.2	
884.02	2433.7	
884.19	4798.4	
884.36	4584.7	
884.52	2896.5	
884.69	2837.1	
884.86	4417.5	
885.02	5176.6	
885.19	2920.4	
885.36	2985.9	
885.52	4500.8	
885.69	4650.3	
885.86	3668.6	
886.02	3265.1	
886.19	4877.6	
886.35	4393.6	
886.52	2871.9	
886.69	3538.2	
886.85	4240.7	
887.02	5066.7	
887.19	5066.7	
887.35	5066.7	
887.52	5066.7	
887.68	5066.7	
887.85	5066.7	
888.02	5066.7	
888.18	5066.7	
888.35	5066.7	
888.51	5066.7	
888.68	5066.7	
888.85	5066.7	
889.01	5066.7	
889.18	5066.7	
889.35	5066.7	
889.51	5066.7	
889.68	5066.7	
889.84	5066.7	
890.01	5066.7	
890.17	5066.7	
890.34	5066.7	
890.51	5066.7	
890.67	5066.7	
890.84	5066.7	
891	5066.7	
891.17	5066.7	
891.34	5066.7	
891.5	5066.7	
891.67	5066.7	
891.83	5066.7	
892	5066.7	
892.16	5066.7	
892.33	5066.7	
892.5	5066.7	
892.66	5066.7	
892.83	5066.7	
892.99	5066.7	
893.16	5066.7	
893.32	5066.7	
893.49	5066.7	
893.65	5066.7	
893.82	5066.7	
893.99	5066.7	
894.15	5066.7	
894.32	5066.7	
894.48	5066.7	
894.65	5066.7	
894.81	5066.7	
894.98	5066.7	
895.14	5066.7	
895.31	5066.7	
895.47	5066.7	
895.64	5066.7	
895.81	5066.7	
895.97	5066.7	
896.14	5066.7	
896.3	5066.7	
896.47	5066.7	
896.63	5066.7	
896.8	5066.7	
896.96	5066.7	
897.13	5066.7	
897.29	5066.7	
897.46	5066.7	
897.62	5066.7	
897.79	5066.7	
897.95	5066.7	
898.12	5066.7	
898.28	5066.7	
898.45	5066.7	
898.61	5066.7	
898.78	5066.7	
898.94	5066.7	
899.11	5066.7	
899.27	5066.7	
899.44	5066.7	
899.6	5066.7	
899.77	5066.7	
899.93	5066.7	
900.1	5066.7	
900.26	5066.7	
900.43	5066.7	
900.59	5066.7	
900.76	5066.7	
900.92	5066.7	
901.09	5066.7	
901.25	5066.7	
901.42	5066.7	
901.58	5066.7	
901.75	5066.7	
901.91	5066.7	
902.07	5066.7	
902.24	5066.7	
902.4	5066.7	
902.57	5066.7	
902.73	5066.7	
902.9	5066.7	
903.06	5066.7	
903.23	5066.7	
903.39	5066.7	
903.56	5066.7	
903.72	5066.7	
903.88	5066.7	
904.05	5066.7	
904.21	5066.7	
904.38	5066.7	
904.54	5066.7	
904.71	5066.7	
904.87	5066.7	
905.03	5066.7	
905.2	5066.7	
905.36	5066.7	
905.53	5066.7	
905.69	5066.7	
905.86	5066.7	
906.02	5066.7	
906.18	5066.7	
906.35	5066.7	
906.51	5066.7	
906.68	5066.7	
906.84	5066.7	
907.01	5066.7	
907.17	5066.7	
907.33	5066.7	
907.5	5066.7	
907.66	5066.7	
907.83	5066.7	
907.99	5066.7	
908.15	5066.7	
908.32	5066.7	
908.48	5066.7	
908.65	5066.7	
908.81	5066.7	
908.97	5066.7	
909.14	5066.7	
909.3	5066.7	
909.47	5066.7	
909.63	5066.7	
909.79	5066.7	
909.96	5066.7	
910.12	5066.7	
910.28	5066.7	
910.45	5066.7	
910.61	5066.7	
910.78	5066.7	
910.94	5066.7	
911.1	5066.7	
911.27	5066.7	
911.43	5066.7	
911.59	5066.7	
911.76	5066.7	
911.92	5066.7	
912.08	5066.7	
912.25	5066.7	
912.41	5066.7	
912.57	5066.7	
912.74	5066.7	
912.9	5066.7	
913.07	5066.7	
913.23	5066.7	
913.39	5066.7	
913.56	5066.7	
913.72	5066.7	
913.88	5066.7	
914.05	5066.7	
914.21	5066.7	
914.37	5066.7	
914.54	5066.7	
914.7	5066.7	
914.86	5066.7	
915.03	5066.7	
915.19	5066.7	
