Wavelength	Intensities	
nm	a.u.	
179.22	1804.4	
179.44	1798.5	
179.65	1810.4	
179.86	1786.5	
180.08	1788.6	
180.29	4315.8	
180.51	3222.8	
180.72	5232.6	
180.94	5993.7	
181.15	2939.5	
181.37	2884.2	
181.58	5051	
181.79	5296	
182.01	3085.6	
182.22	3246	
182.44	5390.3	
182.65	4532.8	
182.87	4007.2	
183.08	3583.9	
183.29	5602.6	
183.51	4653	
183.72	3241.9	
183.94	4648.9	
184.15	5015.5	
184.37	4958.8	
184.58	2889	
184.79	3885	
185.01	4687.1	
185.22	5296	
185.44	4058.4	
185.65	3474.7	
185.86	4950.6	
186.08	4586.8	
186.29	2839.2	
186.51	2979.1	
186.72	4699.4	
186.94	5407.3	
187.15	3504.8	
187.36	3580.5	
187.58	6946	
187.79	5041.4	
188.01	3709.6	
188.22	5701.5	
188.43	5971.9	
188.65	5270.1	
188.86	3044	
189.08	3608.5	
189.29	4884.4	
189.5	4794.3	
189.72	3328.6	
189.93	3389.4	
190.15	5490.6	
190.36	6503	
190.57	3609.2	
190.79	3504.1	
191	5541.8	
191.22	5503.6	
191.43	3678.2	
191.64	3057.6	
191.86	5675.6	
192.07	5497.4	
192.29	3138.9	
192.5	3298.6	
192.71	5506.3	
192.93	4807.9	
193.14	3276.8	
193.35	3344.3	
193.57	4774.5	
193.78	5459.2	
194	2719.7	
194.21	3231	
194.42	4620.2	
194.64	4992.9	
194.85	3642.7	
195.07	4073.4	
195.28	5025.7	
195.49	4389.5	
195.71	4431.1	
195.92	3102.7	
196.13	5149.3	
196.35	5216.2	
196.56	4587.4	
196.78	3603.1	
196.99	6350.1	
197.2	5986.2	
197.42	4005.8	
197.63	3657	
197.84	4532.8	
198.06	5169.1	
198.27	3313.6	
198.48	4370.4	
198.7	4804.5	
198.91	4977.9	
199.13	3608.5	
199.34	3642	
199.55	5390.3	
199.77	4398.4	
199.98	3186	
200.19	3655.6	
200.41	4962.9	
200.62	4696.7	
200.83	3755.3	
201.05	4034.5	
201.26	4993.6	
201.47	4737	
201.69	3209.8	
201.9	3125.2	
202.11	5020.9	
202.33	5795.8	
202.54	3411.2	
202.76	3831.1	
202.97	5035.3	
203.18	5124.7	
203.4	3745.1	
203.61	3705.5	
203.82	5107	
204.04	4706.2	
204.25	3603.1	
204.46	3549.8	
204.68	5013.4	
204.89	5242.1	
205.1	3511.6	
205.32	3088.3	
205.53	5313.1	
205.74	5447.6	
205.96	2637.8	
206.17	3663.1	
206.38	5269.4	
206.6	5434.6	
206.81	4031.8	
207.02	3352.5	
207.24	5253.7	
207.45	5580	
207.66	3423.5	
207.88	3012.6	
208.09	5152	
208.3	5016.2	
208.52	3138.9	
208.73	3516.4	
208.94	5010	
209.15	5646.2	
209.37	3396.9	
209.58	3612.6	
209.79	5472.2	
210.01	4874.8	
210.22	2785.9	
210.43	2985.9	
210.65	4991.6	
210.86	5365	
211.07	3428.3	
211.29	3192.1	
211.5	5270.8	
211.71	4919.2	
211.93	3168.2	
212.14	3186	
212.35	4949.3	
212.56	5107.6	
212.78	3625.6	
212.99	3044	
213.2	5843.5	
213.42	4807.3	
213.63	3349.1	
213.84	3497.9	
214.06	4527.4	
214.27	4589.5	
214.48	3409.2	
214.69	3698.6	
214.91	5560.2	
215.12	5629.9	
215.33	3728.7	
215.55	3992.2	
215.76	6073.6	
215.97	5294.7	
216.18	3521.8	
216.4	3484.3	
216.61	4747.9	
216.82	5330.9	
217.04	3248.1	
217.25	3373.7	
217.46	5534.3	
217.67	5361.6	
217.89	2848	
218.1	2975.7	
218.31	5072.8	
218.53	5151.3	
218.74	3357.3	
218.95	3243.3	
219.16	5003.2	
219.38	5782.8	
219.59	3288.4	
219.8	3827	
220.01	6281.1	
220.23	5020.3	
220.44	4202.4	
220.65	3134.8	
220.87	5050.3	
221.08	5529.5	
221.29	2972.3	
221.5	3881.6	
221.72	6671.6	
221.93	4738.3	
222.14	3601.7	
222.35	4188.8	
222.57	5023.7	
222.78	5296.7	
222.99	3430.3	
223.2	3691.1	
223.42	5244.2	
223.63	5408	
223.84	2713.6	
224.05	2690.3	
224.27	6294.8	
224.48	5751.4	
224.69	4237.2	
224.9	3618.1	
225.12	5198.4	
225.33	4932.9	
225.54	2943.6	
225.75	3214.6	
225.97	4610	
226.18	4887.1	
226.39	3446.7	
226.6	3253.5	
226.82	4809.3	
227.03	4675.5	
227.24	3605.1	
227.45	3027.6	
227.67	5345.2	
227.88	5759.6	
228.09	4024.3	
228.3	4025.6	
228.52	5404.6	
228.73	4969.1	
228.94	3398.3	
229.15	2965.5	
229.36	4983.4	
229.58	4939	
229.79	3388	
230	3902.1	
230.21	5909.8	
230.43	5109.7	
230.64	3594.2	
230.85	3750.5	
231.06	5402.5	
231.28	5395	
231.49	2985.3	
231.7	3551.2	
231.91	5311.1	
232.12	5021.6	
232.34	3078.8	
232.55	3527.3	
232.76	5545.9	
232.97	5176.6	
233.18	3163.4	
233.4	3623.5	
233.61	5199.8	
233.82	4782	
234.03	3326.6	
234.25	3271.3	
234.46	6709.8	
234.67	5043.5	
234.88	3702	
235.09	3193.5	
235.31	5212.8	
235.52	4883	
235.73	3573.7	
235.94	3069.9	
236.15	4747.2	
236.37	5993	
236.58	3192.8	
236.79	3416	
237	5236	
237.21	4642.1	
237.43	3742.3	
237.64	2905.4	
237.85	8628.1	
238.06	4650.3	
238.27	3697.3	
238.48	3027.6	
238.7	5292	
238.91	4863.9	
239.12	3439.9	
239.33	3523.9	
239.54	4650.9	
239.76	4914.4	
239.97	3419.4	
240.18	3414	
240.39	6102.3	
240.6	5242.8	
240.82	3567.6	
241.03	2955.9	
241.24	4997.7	
241.45	5709.1	
241.66	3160.7	
241.87	3744.4	
242.09	5642.8	
242.3	5885.9	
242.51	3705.5	
242.72	3433.8	
242.93	5380	
243.14	4992.9	
243.36	4046.1	
243.57	4278.9	
243.78	5710.4	
243.99	5275.6	
244.2	3486.3	
244.41	3182.5	
244.63	4570.4	
244.84	5227.8	
245.05	3681.6	
245.26	3422.8	
245.47	5258.5	
245.68	5456.5	
245.9	4524.6	
246.11	3642	
246.32	4866.7	
246.53	5176.6	
246.74	5515.2	
246.95	2930	
247.16	4663.9	
247.38	5023.7	
247.59	2927.2	
247.8	3429	
248.01	4659.8	
248.22	4959.5	
248.43	3172.3	
248.64	3386	
248.86	4520.5	
249.07	4863.9	
249.28	3103.4	
249.49	3549.1	
249.7	5506.3	
249.91	5585.5	
250.12	2893.8	
250.34	2999.6	
250.55	5087.2	
250.76	5023	
250.97	3563.5	
251.18	3605.1	
251.39	5532.9	
251.6	5199.1	
251.81	3606.5	
252.03	3614.7	
252.24	4829.8	
252.45	5454.4	
252.66	3011.9	
252.87	3820.8	
253.08	5014.1	
253.29	6399.2	
253.5	3087	
253.72	4182	
253.93	4861.9	
254.14	5836	
254.35	3285.6	
254.56	3401	
254.77	5225.7	
254.98	4661.2	
255.19	3324.5	
255.41	4085	
255.62	5095.3	
255.83	5600.5	
256.04	3706.8	
256.25	3578.5	
256.46	6074.3	
256.67	4745.1	
256.88	3562.8	
257.09	3979.2	
257.31	4724	
257.52	4735.6	
257.73	4417.5	
257.94	3303.4	
258.15	4930.8	
258.36	4999.1	
258.57	4134.8	
258.78	2653.5	
258.99	5419.6	
259.2	4832.5	
259.41	3292.5	
259.63	3476.1	
259.84	5677	
260.05	6028.5	
260.26	4310.3	
260.47	3243.3	
260.68	5500.8	
260.89	4901.5	
261.1	3910.9	
261.31	3200.3	
261.52	5554.8	
261.73	5872.2	
261.95	4269.3	
262.16	3752.6	
262.37	5596.4	
262.58	5728.9	
262.79	4211.3	
263	3384.6	
263.21	5048.9	
263.42	4920.6	
263.63	3391.4	
263.84	3304.1	
264.05	5508.4	
264.26	5786.2	
264.47	4073.4	
264.69	3697.9	
264.9	5689.3	
265.11	5162.2	
265.32	3226.2	
265.53	3274	
265.74	5128.8	
265.95	4513	
266.16	3551.9	
266.37	3913	
266.58	5117.2	
266.79	4878.9	
267	3265.8	
267.21	3009.8	
267.42	4670.1	
267.63	4982	
267.84	3469.3	
268.06	3046	
268.27	5381.4	
268.48	5568.4	
268.69	3376.4	
268.9	3960.8	
269.11	5672.2	
269.32	4577.9	
269.53	3455.6	
269.74	3242.6	
269.95	5254.4	
270.16	4499.4	
270.37	3538.9	
270.58	3949.8	
270.79	4883	
271	5493.3	
271.21	3717.1	
271.42	3466.5	
271.63	5121.3	
271.84	4635.9	
272.05	2820.1	
272.26	3090.4	
272.47	4973.2	
272.68	5208	
272.89	3359.4	
273.11	3806.5	
273.32	4821.6	
273.53	5788.9	
273.74	3697.9	
273.95	3663.8	
274.16	5540.4	
274.37	5050.3	
274.58	3790.1	
274.79	3045.3	
275	5194.3	
275.21	5550	
275.42	4460.5	
275.63	3847.5	
275.84	5257.1	
276.05	6426.5	
276.26	3620.1	
276.47	3467.2	
276.68	4954.7	
276.89	5883.1	
277.1	3896.6	
277.31	3039.2	
277.52	5264.6	
277.73	5466.7	
277.94	2993.4	
278.15	3343.7	
278.36	5175.2	
278.57	4733.5	
278.78	3322.5	
278.99	3768.3	
279.2	4754.7	
279.41	4618.9	
279.62	4341	
279.83	3105.4	
280.04	6025.8	
280.25	4642.1	
280.46	4245.4	
280.67	3495.9	
280.88	4741	
281.09	5589.6	
281.3	3654.9	
281.51	4545.8	
281.72	4712.4	
281.93	5440.1	
282.14	3257.6	
282.35	3585.3	
282.56	5386.2	
282.77	5404.6	
282.98	3329.3	
283.19	4083.6	
283.4	6584.9	
283.61	4940.4	
283.82	3136.1	
284.03	4266.6	
284.24	5131.5	
284.45	5541.1	
284.66	4234.5	
284.87	4080.9	
285.08	5528.8	
285.29	5627.1	
285.5	2988	
285.71	3420.8	
285.92	5559.6	
286.12	6107	
286.33	4206.5	
286.54	3428.3	
286.75	5431.2	
286.96	4875.5	
287.17	3123.2	
287.38	4109.6	
287.59	4748.6	
287.8	4733.5	
288.01	3391.4	
288.22	3858.4	
288.43	5407.3	
288.64	4570.4	
288.85	4024.9	
289.06	3824.9	
289.27	5400.5	
289.48	5767.1	
289.69	4263.9	
289.9	3938.2	
290.11	5604.6	
290.32	4805.9	
290.53	4063.9	
290.74	3736.9	
290.94	5483.8	
291.15	5460.6	
291.36	3290.4	
291.57	3882.3	
291.78	4816.8	
291.99	4515.1	
292.2	3164.8	
292.41	3735.5	
292.62	5520.6	
292.83	5311.1	
293.04	4567.7	
293.25	3206.4	
293.46	4871.4	
293.67	5476.3	
293.88	3223.5	
294.09	3114.3	
294.29	4674.8	
294.5	5163.6	
294.71	3504.1	
294.92	3341.6	
295.13	4874.2	
295.34	5986.9	
295.55	2971.6	
295.76	2923.8	
295.97	5371.8	
296.18	5973.9	
296.39	3106.8	
296.6	3233.7	
296.81	5053.7	
297.01	5388.2	
297.22	3394.2	
297.43	3307.5	
297.64	4760.2	
297.85	4660.5	
298.06	2759.3	
298.27	2957.3	
298.48	5017.5	
298.69	4813.4	
298.9	3499.3	
299.11	3190.1	
299.31	4644.1	
299.52	4671.4	
299.73	3716.4	
299.94	3693.2	
300.15	5033.2	
300.36	4738.3	
300.57	3725.9	
300.78	3675.4	
300.99	4911	
301.2	5076.2	
301.4	3285.6	
301.61	3538.2	
301.82	5316.5	
302.03	5366.4	
302.24	3934.1	
302.45	3087.7	
302.66	5229.8	
302.87	5609.4	
303.08	3267.9	
303.29	4436.6	
303.49	4829.8	
303.7	5022.3	
303.91	2926.5	
304.12	4228.4	
304.33	4629.8	
304.54	5165.7	
304.75	3252.2	
304.96	3134.8	
305.16	5339.1	
305.37	5861.3	
305.58	2854.9	
305.79	3019.4	
306	5352	
306.21	4470.7	
306.42	3249.4	
306.63	4880.3	
306.83	4887.8	
307.04	5452.4	
307.25	3579.2	
307.46	3521.8	
307.67	4358.1	
307.88	5372.5	
308.09	3280.2	
308.29	3360	
308.5	5060.5	
308.71	5504.3	
308.92	3465.2	
309.13	3158	
309.34	4896.7	
309.55	4993.6	
309.75	3994.9	
309.96	3692.5	
310.17	5413.5	
310.38	4815.5	
310.59	3834.5	
310.8	3099.9	
311.01	5912.5	
311.21	4918.5	
311.42	3146.4	
311.63	3241.3	
311.84	4850.3	
312.05	5101.5	
312.26	3665.2	
312.46	3930.7	
312.67	4937.7	
312.88	4607.9	
313.09	3159.3	
313.3	3073.3	
313.51	5681.1	
313.71	5894.1	
313.92	3159.3	
314.13	3328.6	
314.34	5178.6	
314.55	4980	
314.76	3978.5	
314.96	3484.3	
315.17	5144.5	
315.38	5276.3	
315.59	3181.2	
315.8	3037.1	
316.01	5768.4	
316.21	5787.6	
316.42	3091.8	
316.63	3456.3	
316.84	4855.1	
317.05	5605.3	
317.26	3741	
317.46	3352.5	
317.67	5003.2	
317.88	5382.1	
318.09	3969	
318.3	2968.2	
318.5	4849.6	
318.71	5251.7	
318.92	5070.1	
319.13	3715	
319.34	5444.2	
319.54	5557.5	
319.75	2920.4	
319.96	2853.5	
320.17	5281	
320.38	5521.3	
320.58	2925.2	
320.79	3478.1	
321	5528.2	
321.21	5634	
321.42	3474	
321.62	2929.3	
321.83	4676.2	
322.04	4993.6	
322.25	3361.4	
322.46	3168.9	
322.66	5124.7	
322.87	5302.2	
323.08	3844	
323.29	3104.7	
323.5	5898.8	
323.7	4624.3	
323.91	4291.9	
324.12	3814.7	
324.33	5107	
324.53	5308.3	
324.74	3688.4	
324.95	3836.5	
325.16	4560.8	
325.37	4916.5	
325.57	3178.4	
325.78	3272	
325.99	5088.5	
326.2	4559.5	
326.4	4359.4	
326.61	2913.6	
326.82	4985.4	
327.03	5077.6	
327.24	4490.5	
327.44	4141.7	
327.65	5266.7	
327.86	4344.4	
328.07	3715.7	
328.27	3058.3	
328.48	5588.9	
328.69	4668.7	
328.9	4435.2	
329.1	3390.8	
329.31	4952.7	
329.52	5677	
329.73	3205.1	
329.93	3571	
330.14	5012.7	
330.35	5206.6	
330.56	5057.1	
330.76	3842	
330.97	4855.7	
331.18	5244.8	
331.39	3513.6	
331.59	2927.9	
331.8	5495.4	
332.01	5644.2	
332.22	3280.2	
332.42	3713.6	
332.63	5104.9	
332.84	4726.7	
333.05	3528.7	
333.25	3238.5	
333.46	4799.1	
333.67	5038	
333.88	3303.4	
334.08	3624.2	
334.29	6550.1	
334.5	5573.9	
334.7	3115.6	
334.91	4464.6	
335.12	4700.1	
335.33	5356.1	
335.53	3535.5	
335.74	5042.8	
335.95	4855.1	
336.16	4649.6	
336.36	3534.1	
336.57	3984	
336.78	4646.8	
336.98	5524.7	
337.19	4326.7	
337.4	3400.3	
337.61	6024.4	
337.81	4618.9	
338.02	3267.2	
338.23	4116.4	
338.43	5632.6	
338.64	4772.4	
338.85	3254.2	
339.05	4123.2	
339.26	5751.4	
339.47	4495.3	
339.68	3209.2	
339.88	4612	
340.09	5276.9	
340.3	5403.9	
340.5	3688.4	
340.71	2846	
340.92	4620.2	
341.13	5631.2	
341.33	3063.8	
341.54	3713.6	
341.75	5236.7	
341.95	4891.9	
342.16	3536.8	
342.37	3852.9	
342.57	4661.9	
342.78	4971.8	
342.99	3914.4	
343.19	2932	
343.4	5365	
343.61	5193.6	
343.81	3375.7	
344.02	3093.8	
344.23	5418.9	
344.43	5711.1	
344.64	3953.9	
344.85	3762.8	
345.06	5212.8	
345.26	5589.6	
345.47	3653.6	
345.68	4251.6	
345.88	4494.6	
346.09	5431.2	
346.3	3743.7	
346.5	2856.2	
346.71	4995.7	
346.92	4770.4	
347.12	2966.8	
347.33	3570.3	
347.54	5504.9	
347.74	5807.4	
347.95	3659	
348.16	2766.8	
348.36	4860.5	
348.57	4693.9	
348.78	3651.5	
348.98	3837.9	
349.19	4974.5	
349.39	4569.7	
349.6	2977.7	
349.81	3216.7	
350.01	5248.9	
350.22	4819.6	
350.43	3549.8	
350.63	4189.5	
350.84	5064.6	
351.05	4870.1	
351.25	3252.9	
351.46	2886.3	
351.67	5452.4	
351.87	4739.7	
352.08	3412.6	
352.29	3821.5	
352.49	5461.9	
352.7	5432.6	
352.9	3112.9	
353.11	3835.2	
353.32	5930.2	
353.52	4857.1	
353.73	3113.6	
353.94	3834.5	
354.14	5277.6	
354.35	5098.8	
354.55	3160	
354.76	3464.5	
354.97	5243.5	
355.17	5020.9	
355.38	3005.1	
355.59	4077.5	
355.79	4733.5	
356	5050.3	
356.2	3487.7	
356.41	3056.9	
356.62	4515.8	
356.82	4934.9	
357.03	3734.1	
357.24	3342.3	
357.44	4746.5	
357.65	4885.1	
357.85	4352.6	
358.06	3514.3	
358.27	4524	
358.47	4709.6	
358.68	3012.6	
358.88	3682.9	
359.09	5227.1	
359.3	5551.4	
359.5	4219.5	
359.71	3801	
359.91	5872.9	
360.12	5288.5	
360.33	3668.6	
360.53	4078.9	
360.74	4759.5	
360.94	4783.4	
361.15	3859.1	
361.36	3239.9	
361.56	5456.5	
361.77	4985.4	
361.97	4246.8	
362.18	3421.5	
362.38	5454.4	
362.59	4646.2	
362.8	3204.4	
363	3015.3	
363.21	4408.6	
363.41	5012.7	
363.62	3604.4	
363.83	4423.6	
364.03	5092.6	
364.24	5857.9	
364.44	4604.5	
364.65	4455	
364.85	4836.6	
365.06	4595.6	
365.27	3287	
365.47	3355.3	
365.68	5705	
365.88	4835.3	
366.09	3634.5	
366.29	3368.2	
366.5	5083.1	
366.71	5483.1	
366.91	4407.2	
367.12	3788.1	
367.32	5977.3	
367.53	5333.6	
367.73	3715.7	
367.94	4590.9	
368.14	5266.7	
368.35	5983.5	
368.56	3670	
368.76	3170.3	
368.97	5397.1	
369.17	6725.5	
369.38	3311.6	
369.58	3506.8	
369.79	4588.8	
369.99	5697.4	
370.2	4420.9	
370.4	3633.8	
370.61	5114.5	
370.82	6164.4	
371.02	3507.5	
371.23	2975	
371.43	4531.5	
371.64	5681.7	
371.84	3556.6	
372.05	4511	
372.25	6667.5	
372.46	5332.9	
372.66	3606.5	
372.87	3520.5	
373.07	5388.2	
373.28	6782.9	
373.48	4343.7	
373.69	4134.2	
373.9	4990.2	
374.1	5002.5	
374.31	4279.6	
374.51	3947.8	
374.72	5659.9	
374.92	4716.5	
375.13	4410.6	
375.33	3700.7	
375.54	5274.2	
375.74	4835.3	
375.95	3862.5	
376.15	4886.5	
376.36	5272.2	
376.56	5193	
376.77	3835.2	
376.97	4259.1	
377.18	6182.8	
377.38	5406	
377.59	4521.9	
377.79	3487.7	
378	5171.8	
378.2	5486.5	
378.41	3517.7	
378.61	3436.5	
378.82	5532.2	
379.02	4878.3	
379.23	3651.5	
379.43	4513.7	
379.64	5730.9	
379.84	5291.3	
380.05	3536.2	
380.25	3429.7	
380.46	5460.6	
380.66	5095.3	
380.87	4608.6	
381.07	4905.6	
381.28	5973.2	
381.48	5460.6	
381.69	3519.1	
381.89	3540.9	
382.1	4612.7	
382.3	5530.2	
382.51	4415.4	
382.71	5210	
382.91	5396.4	
383.12	5853.1	
383.32	3791.5	
383.53	4022.2	
383.73	5324.7	
383.94	5130.8	
384.14	3997	
384.35	3232.4	
384.55	5091.9	
384.76	5455.1	
384.96	3857	
385.17	4094.6	
385.37	5484.5	
385.58	4855.1	
385.78	4087.7	
385.98	3183.2	
386.19	5037.3	
386.39	5292.6	
386.6	3630.4	
386.8	3864.5	
387.01	5408.7	
387.21	5451	
387.42	4132.8	
387.62	4676.2	
387.83	4885.8	
388.03	5259.9	
388.23	3909.6	
388.44	4534.2	
388.64	4610.7	
388.85	4734.2	
389.05	4121.2	
389.26	4625.7	
389.46	6143.2	
389.67	5828.5	
389.87	4105.5	
390.07	4142.4	
390.28	5132.2	
390.48	4784.1	
390.69	3481.5	
390.89	3805.1	
391.1	4965.6	
391.3	5743.9	
391.5	4769.7	
391.71	5230.5	
391.91	5532.9	
392.12	6267.5	
392.32	4836.6	
392.53	4166.3	
392.73	5029.8	
392.93	5150.6	
393.14	3936.2	
393.34	4551.3	
393.55	5523.4	
393.75	5152.7	
393.95	3962.1	
394.16	3886.4	
394.36	5006.6	
394.57	5474.2	
394.77	3463.8	
394.98	3785.3	
395.18	4926.7	
395.38	5038	
395.59	4556	
395.79	3662.5	
396	5128.1	
396.2	5449	
396.4	4431.1	
396.61	4302.8	
396.81	5580.7	
397.02	4982.7	
397.22	4507.6	
397.42	4554.7	
397.63	5659.2	
397.83	4993.6	
398.04	3661.1	
398.24	4018.8	
398.44	5416.9	
398.65	4594.3	
398.85	3525.2	
399.05	3571	
399.26	4913.1	
399.46	6355.5	
399.67	3887	
399.87	3708.9	
400.07	5197.7	
400.28	5517.9	
400.48	3771	
400.69	4592.9	
400.89	6087.2	
401.09	6051.7	
401.3	3686.3	
401.5	4649.6	
401.7	6227.9	
401.91	6384.2	
402.11	4063.9	
402.32	4153.3	
402.52	5739.8	
402.72	5745.2	
402.93	4365.6	
403.13	3418.1	
403.33	6326.2	
403.54	5304.2	
403.74	4106.9	
403.94	4829.1	
404.15	5304.2	
404.35	6316.6	
404.56	3909.6	
404.76	5455.8	
404.96	5686.5	
405.17	5524.7	
405.37	4906.9	
405.57	4276.2	
405.78	5737.7	
405.98	5292.6	
406.18	3908.9	
406.39	4706.2	
406.59	5720	
406.79	5423	
407	3794.2	
407.2	3872	
407.4	5747.3	
407.61	5926.8	
407.81	3825.6	
408.01	5452.4	
408.22	4827.1	
408.42	6496.8	
408.62	4689.8	
408.83	4260.5	
409.03	5369.8	
409.23	5292	
409.44	4357.4	
409.64	4641.4	
409.84	6174.6	
410.05	6041.5	
410.25	4420.2	
410.45	4267.3	
410.66	5664	
410.86	7671	
411.06	4640	
411.27	4546.5	
411.47	7465.5	
411.67	5782.8	
411.88	4749.9	
412.08	4924.7	
412.28	6298.9	
412.49	6785.6	
412.69	4588.1	
412.89	4576.5	
413.09	6584.2	
413.3	6544.6	
413.5	4702.8	
413.7	4364.9	
413.91	5932.3	
414.11	6634.1	
414.31	4526	
414.52	4805.2	
414.72	6309.1	
414.92	6308.4	
415.12	4549.9	
415.33	5004.6	
415.53	6537.1	
415.73	6741.2	
415.94	5331.5	
416.14	4793.6	
416.34	5802.6	
416.55	5546.6	
416.75	5819.6	
416.95	5324	
417.15	6655.9	
417.36	7243	
417.56	5961.6	
417.76	5122.7	
417.97	6909.2	
418.17	6622.4	
418.37	4804.5	
418.57	4868	
418.78	6498.2	
418.98	6184.2	
419.18	5672.9	
419.38	5524.7	
419.59	6200.6	
419.79	5934.3	
419.99	4790.2	
420.2	5073.5	
420.4	6607.4	
420.6	6762.4	
420.8	4684.4	
421.01	4528.1	
421.21	6540.5	
421.41	6610.2	
421.61	5022.3	
421.82	4761.5	
422.02	6115.9	
422.22	6918	
422.42	5490.6	
422.63	5198.4	
422.83	6264.1	
423.03	7264.1	
423.23	5220.3	
423.44	4363.5	
423.64	6256.5	
423.84	6004	
424.04	4769	
424.25	4436.6	
424.45	7033.4	
424.65	6961.7	
424.85	4350.6	
425.06	4718.5	
425.26	7069.6	
425.46	6165.8	
425.66	5203.2	
425.87	4939	
426.07	6858	
426.27	6691.4	
426.47	5012.1	
426.67	4558.1	
426.88	7120.1	
427.08	6685.9	
427.28	5277.6	
427.48	4498.7	
427.69	5763	
427.89	6283.2	
428.09	5263.3	
428.29	4510.3	
428.5	6884.6	
428.7	6470.9	
428.9	4425	
429.1	4840.7	
429.3	6417.7	
429.51	6708.5	
429.71	4693.3	
429.91	5358.2	
430.11	6687.3	
430.31	7204.1	
430.52	4957.4	
430.72	5251	
430.92	7163.1	
431.12	6697.5	
431.32	4702.1	
431.53	5066.7	
431.73	5844.2	
431.93	7171.3	
432.13	4602.5	
432.33	4517.1	
432.54	6258.6	
432.74	6410.1	
432.94	4464.6	
433.14	5314.5	
433.34	6662.7	
433.55	6269.5	
433.75	5305.6	
433.95	6817.7	
434.15	6550.8	
434.35	6298.9	
434.56	4641.4	
434.76	4354	
434.96	6485.9	
435.16	6649.1	
435.36	4544.4	
435.56	5530.2	
435.77	6194.4	
435.97	6350.8	
436.17	6109.8	
436.37	5489.2	
436.57	6206.7	
436.78	6152.1	
436.98	6952.9	
437.18	6004.6	
437.38	6746.7	
437.58	6337.1	
437.78	6064	
437.99	4899.4	
438.19	6862.7	
438.39	8058.1	
438.59	4877.6	
438.79	4541	
438.99	7331	
439.2	6337.1	
439.4	4493.9	
439.6	4519.2	
439.8	6599.9	
440	7395.9	
440.2	5408.7	
440.4	5451.7	
440.61	6927.6	
440.81	7365.9	
441.01	4799.8	
441.21	5519.3	
441.41	7292.1	
441.61	7053.9	
441.81	5796.4	
442.02	6626.5	
442.22	7823.2	
442.42	7125.6	
442.62	4876.9	
442.82	4931.5	
443.02	7352.2	
443.22	6654.5	
443.43	5285.1	
443.63	4850.3	
443.83	6447.7	
444.03	6494.1	
444.23	5939.1	
444.43	5602.6	
444.63	6761	
444.83	7729.7	
445.04	5054.4	
445.24	6113.2	
445.44	7091.4	
445.64	7176.8	
445.84	5723.4	
446.04	5737.7	
446.24	6599.9	
446.44	7468.9	
446.65	4959.5	
446.85	5300.1	
447.05	6617.7	
447.25	7345.4	
447.45	5452.4	
447.65	4850.3	
447.85	6783.6	
448.05	6560.3	
448.25	5743.9	
448.46	5594.4	
448.66	6836.8	
448.86	6614.9	
449.06	4829.1	
449.26	5706.3	
449.46	7133.1	
449.66	6364.4	
449.86	5360.2	
450.06	5339.7	
450.26	6483.2	
450.47	7036.8	
450.67	5579.3	
450.87	5857.2	
451.07	7150.1	
451.27	6974.7	
451.47	5036.6	
451.67	5477.6	
451.87	6671.6	
452.07	7582.3	
452.27	5169.8	
452.47	5190.9	
452.67	6996.5	
452.88	7271	
453.08	4597.7	
453.28	6315.9	
453.48	7923.6	
453.68	6823.8	
453.88	5130.2	
454.08	5342.5	
454.28	7185	
454.48	6896.9	
454.68	5702.2	
454.88	6217	
455.08	7345.4	
455.28	7083.9	
455.48	5007.3	
455.68	5681.7	
455.89	7714	
456.09	7494.9	
456.29	5349.3	
456.49	5497.4	
456.69	7608.9	
456.89	7073	
457.09	5894.7	
457.29	6157.6	
457.49	7292.1	
457.69	7498.3	
457.89	5775.3	
458.09	5227.8	
458.29	7141.3	
458.49	7741.3	
458.69	6009.4	
458.89	5568.4	
459.09	7983.7	
459.29	8023.3	
459.49	5646.9	
459.69	6416.3	
459.9	7601.4	
460.1	7170.6	
460.3	5599.8	
460.5	5398.4	
460.7	7553.6	
460.9	7233.4	
461.1	5165.7	
461.3	6238.8	
461.5	8084	
461.7	7760.4	
461.9	5563.6	
462.1	5913.2	
462.3	7395.2	
462.5	7832.8	
462.7	5604.6	
462.9	5759.6	
463.1	8731.9	
463.3	8449.9	
463.5	5942.5	
463.7	6707.1	
463.9	7643	
464.1	7933.1	
464.3	5952.8	
464.5	6272.2	
464.7	8182.3	
464.9	7895.6	
465.1	7386.3	
465.3	6535.8	
465.5	8535.3	
465.7	8484.1	
465.9	6819.1	
466.1	6530.3	
466.3	8357.8	
466.5	8196.7	
466.7	7398.6	
466.9	6464.8	
467.1	8205.5	
467.3	8852	
467.5	7299.6	
467.7	6380.1	
467.9	9166	
468.1	9838.4	
468.3	7120.1	
468.5	7463.5	
468.7	8174.1	
468.9	8124.3	
469.1	6672.3	
469.3	7285.3	
469.5	9899.2	
469.7	7921.5	
469.9	7118.7	
470.1	6456.6	
470.3	8245.8	
470.5	8261.5	
470.7	7649.2	
470.9	6610.2	
471.1	8073.1	
471.3	8406.2	
471.5	6514.6	
471.69	8107.9	
471.89	7927	
472.09	7546.8	
472.29	7189.7	
472.49	7377.5	
472.69	7753.6	
472.89	8400.1	
473.09	6457.2	
473.29	6413.6	
473.49	7871	
473.69	7959.1	
473.89	7259.4	
474.09	6597.2	
474.29	9110	
474.49	8809	
474.69	7286.7	
474.89	6812.9	
475.09	8028	
475.29	8018.5	
475.49	6309.1	
475.69	6482.5	
475.88	9359.2	
476.08	8462.9	
476.28	6279.1	
476.48	6567.2	
476.68	8725	
476.88	8471.8	
477.08	6494.1	
477.28	6774	
477.48	8132.5	
477.68	8529.1	
477.88	6216.3	
478.08	6592.4	
478.28	8989.9	
478.48	8151.6	
478.67	6561	
478.87	6115.2	
479.07	8895.7	
479.27	8330.5	
479.47	6805.4	
479.67	6869.6	
479.87	8680	
480.07	9090.3	
480.27	6194.4	
480.47	7527.7	
480.67	8338	
480.87	8989.2	
481.06	6481.8	
481.26	7142.6	
481.46	8303.8	
481.66	8221.2	
481.86	6859.3	
482.06	7711.3	
482.26	8101.1	
482.46	8807.6	
482.66	6775.4	
482.86	6487.3	
483.05	8456.1	
483.25	7906.5	
483.45	8857.5	
483.65	6785.6	
483.85	8060.1	
484.05	8288.1	
484.25	7189.1	
484.45	7611.6	
484.65	8918.9	
484.84	9072.5	
485.04	6830	
485.24	6789	
485.44	9328.5	
485.64	7894.2	
485.84	6221.7	
486.04	7433.4	
486.24	8217.1	
486.44	8512	
486.63	6303	
486.83	6944	
487.03	8163.2	
487.23	8422.6	
487.43	6328.9	
487.63	8353.7	
487.83	8414.4	
488.02	9263	
488.22	7202.7	
488.42	7777.5	
488.62	9148.3	
488.82	8264.9	
489.02	6930.3	
489.22	6928.3	
489.41	9007.6	
489.61	8823.3	
489.81	6707.1	
490.01	6800.6	
490.21	9035	
490.41	9626.1	
490.61	6731.7	
490.8	6863.4	
491	8673.1	
491.2	8145.5	
491.4	7394.5	
491.6	6718.7	
491.8	8617.9	
491.99	8702.5	
492.19	6432.7	
492.39	6737.1	
492.59	8959.9	
492.79	9057.5	
492.99	7448.5	
493.18	6776.7	
493.38	9121.7	
493.58	9820.7	
493.78	7333.1	
493.98	7050.5	
494.18	8898.4	
494.37	8476.5	
494.57	7559.7	
494.77	7574.1	
494.97	9107.3	
495.17	9456.2	
495.37	7206.1	
495.56	7464.2	
495.76	9664.4	
495.96	9339.4	
496.16	8361.9	
496.36	7569.3	
496.55	9628.9	
496.75	9177.6	
496.95	7783	
497.15	7713.3	
497.35	9518.3	
497.54	9525.8	
497.74	7487.4	
497.94	8960.5	
498.14	10150	
498.34	9874.6	
498.53	7214.3	
498.73	7925.6	
498.93	8938	
499.13	9524.4	
499.33	7826	
499.52	8231.5	
499.72	9655.5	
499.92	9715.6	
500.12	7532.4	
500.32	7804.1	
500.51	9708.7	
500.71	9569.5	
500.91	8505.2	
501.11	8149.6	
501.31	9764.7	
501.5	10059	
501.7	8781.7	
501.9	7854	
502.1	9624.1	
502.29	9978.4	
502.49	8333.9	
502.69	8635.6	
502.89	9863	
503.09	9866.4	
503.28	7440.3	
503.48	7512.6	
503.68	9146.2	
503.88	9142.8	
504.07	8344.8	
504.27	7959.8	
504.47	9478.7	
504.67	9594.7	
504.86	8282.7	
505.06	7974.8	
505.26	9232.2	
505.46	10694	
505.65	7841	
505.85	8086.7	
506.05	9161.2	
506.25	9491.7	
506.44	7283.9	
506.64	8007.6	
506.84	8927.1	
507.04	9856.2	
507.23	7546.8	
507.43	7871.7	
507.63	10630	
507.83	9220	
508.02	7993.9	
508.22	7709.9	
508.42	10869	
508.62	9047.9	
508.81	7828.7	
509.01	8386.4	
509.21	8908	
509.4	9227.5	
509.6	8013.7	
509.8	7468.9	
510	9127.8	
510.19	10314	
510.39	7484	
510.59	7596.6	
510.79	8937.3	
510.98	10264	
511.18	7598.6	
511.38	7729.7	
511.57	9749.7	
511.77	9510.8	
511.97	8312.7	
512.17	7520.1	
512.36	9742.2	
512.56	9635	
512.76	7496.9	
512.95	7267.6	
513.15	9938.8	
513.35	8587.8	
513.55	8281.3	
513.74	7508.5	
513.94	9624.1	
514.14	9296.4	
514.33	8403.5	
514.53	8054	
514.73	9325.1	
514.92	9366.7	
515.12	7714	
515.32	7491.5	
515.51	9471.9	
515.71	9843.2	
515.91	8919.6	
516.11	7570	
516.3	10956	
516.5	9117.6	
516.7	8017.1	
516.89	8509.3	
517.09	9303.9	
517.29	9202.2	
517.48	8537.3	
517.68	7837.6	
517.88	9050.7	
518.07	9641.2	
518.27	8212.4	
518.47	7431.4	
518.66	9924.5	
518.86	8801.5	
519.06	7335.8	
519.25	7639.6	
519.45	9164.7	
519.65	10372	
519.84	8230.8	
520.04	8875.2	
520.24	10681	
520.43	9766.8	
520.63	8007.6	
520.83	7843	
521.02	9149.6	
521.22	9651.4	
521.42	8180.3	
521.61	8692.3	
521.81	9264.3	
522.01	9377.6	
522.2	8088.1	
522.4	7813	
522.6	9822.7	
522.79	8781	
522.99	7922.9	
523.18	7288	
523.38	9613.2	
523.58	9538.8	
523.77	9088.9	
523.97	7584.3	
524.17	11239	
524.36	10509	
524.56	8636.3	
524.76	8368	
524.95	9705.3	
525.15	9466.4	
525.34	8241	
525.54	8348.2	
525.74	10088	
525.93	9315.5	
526.13	9488.9	
526.33	8330.5	
526.52	10490	
526.72	10060	
526.91	9363.3	
527.11	8719.6	
527.31	10602	
527.5	10801	
527.7	8670.4	
527.89	7854.6	
528.09	9568.8	
528.29	10129	
528.48	9000.1	
528.68	8626.7	
528.87	10416	
529.07	10387	
529.27	8796	
529.46	8357.1	
529.66	10309	
529.85	10709	
530.05	8210.3	
530.25	8942.1	
530.44	11442	
530.64	10046	
530.83	8580.3	
531.03	8768.7	
531.23	10554	
531.42	10251	
531.62	9372.2	
531.81	8759.8	
532.01	10558	
532.21	10901	
532.4	8413.1	
532.6	8811.7	
532.79	11536	
532.99	10768	
533.18	9027.4	
533.38	9875.3	
533.58	10340	
533.77	11013	
533.97	9029.5	
534.16	9788.6	
534.36	11263	
534.55	10454	
534.75	9750.4	
534.95	8995.4	
535.14	11283	
535.34	10606	
535.53	8781	
535.73	10431	
535.92	11646	
536.12	10677	
536.31	8927.8	
536.51	9884.2	
536.71	10884	
536.9	10557	
537.1	8946.9	
537.29	9060.2	
537.49	11276	
537.68	10404	
537.88	9521	
538.07	8708.6	
538.27	10672	
538.46	11482	
538.66	8665	
538.86	9015.8	
539.05	10738	
539.25	11068	
539.44	9536	
539.64	8964	
539.83	10584	
540.03	11411	
540.22	8927.1	
540.42	9077.3	
540.61	10770	
540.81	10901	
541	9322.4	
541.2	9872.6	
541.39	10385	
541.59	10628	
541.78	9572.9	
541.98	8880.7	
542.18	10056	
542.37	10155	
542.57	9213.1	
542.76	9675.3	
542.96	10094	
543.15	10707	
543.35	9159.9	
543.54	8573.5	
543.74	10875	
543.93	10519	
544.13	9093	
544.32	9994.1	
544.52	10836	
544.71	10111	
544.91	8166.6	
545.1	9305.3	
545.3	10145	
545.49	10690	
545.69	8211	
545.88	8888.2	
546.08	11482	
546.27	11081	
546.47	9204.3	
546.66	8529.8	
546.86	10834	
547.05	11348	
547.24	8716.8	
547.44	8676.6	
547.63	9968.8	
547.83	10916	
548.02	9061.6	
548.22	9149	
548.41	9758.6	
548.61	10989	
548.8	8619.2	
549	8560.5	
549.19	10363	
549.39	10651	
549.58	8268.3	
549.78	8787.2	
549.97	10691	
550.17	10295	
550.36	9429.5	
550.55	10277	
550.75	10231	
550.94	11008	
551.14	8395.3	
551.33	8770.8	
551.53	9578.3	
551.72	10516	
551.92	8797.4	
552.11	8556.4	
552.31	10607	
552.5	10409	
552.69	9973.6	
552.89	8288.8	
553.08	10400	
553.28	10225	
553.47	8649.3	
553.67	9443.9	
553.86	10995	
554.06	9498.5	
554.25	7859.4	
554.44	8398	
554.64	11646	
554.83	11224	
555.03	8329.8	
555.22	8604.2	
555.42	10553	
555.61	10306	
555.8	8510	
556	8788.5	
556.19	9704	
556.39	10703	
556.58	8454.7	
556.78	8442.4	
556.97	10193	
557.16	9960	
557.36	9637.1	
557.55	8222.6	
557.75	9388.6	
557.94	10840	
558.13	8362.5	
558.33	8170.7	
558.52	10713	
558.72	9749.7	
558.91	8187.1	
559.1	8452.6	
559.3	9497.1	
559.49	9230.9	
559.69	7815	
559.88	8629.5	
560.07	10133	
560.27	10589	
560.46	8832.9	
560.66	8965.3	
560.85	9981.8	
561.04	9206.3	
561.24	8044.4	
561.43	8262.2	
561.63	9463	
561.82	9734.7	
562.01	9334.6	
562.21	8439.7	
562.4	10064	
562.59	10912	
562.79	8305.2	
562.98	8060.1	
563.18	10101	
563.37	11340	
563.56	8771.5	
563.76	8149.6	
563.95	9686.9	
564.14	9590	
564.34	8514.1	
564.53	8220.5	
564.73	10121	
564.92	10341	
565.11	8627.4	
565.31	8085.4	
565.5	10643	
565.69	9627.5	
565.89	8271.1	
566.08	8454	
566.27	10449	
566.47	10885	
566.66	9117.6	
566.85	7974.1	
567.05	10237	
567.24	9710.8	
567.44	8220.5	
567.63	9392	
567.82	10385	
568.02	10106	
568.21	8230.1	
568.4	8475.2	
568.6	10139	
568.79	10030	
568.98	8079.2	
569.18	8316.8	
569.37	10017	
569.56	11725	
569.76	8666.3	
569.95	9389.3	
570.14	10410	
570.34	10388	
570.53	8232.2	
570.72	8189.1	
570.91	10754	
571.11	10102	
571.3	8656.8	
571.49	9410.4	
571.69	10187	
571.88	9750.4	
572.07	9178.3	
572.27	9123.7	
572.46	9810.5	
572.65	10649	
572.85	8434.2	
573.04	8774.9	
573.23	10895	
573.43	10344	
573.62	8228.7	
573.81	8683.4	
574	10335	
574.2	10075	
574.39	8575.5	
574.58	8791.9	
574.78	11119	
574.97	10540	
575.16	9201.5	
575.36	9383.8	
575.55	10834	
575.74	10959	
575.93	8376.2	
576.13	9378.3	
576.32	10195	
576.51	10824	
576.71	8806.9	
576.9	9957.9	
577.09	11168	
577.28	10641	
577.48	9159.9	
577.67	8353	
577.86	10432	
578.05	10626	
578.25	8937.3	
578.44	8974.2	
578.63	10430	
578.83	11518	
579.02	8435.6	
579.21	9771.5	
579.4	10629	
579.6	10483	
579.79	9118.9	
579.98	10884	
580.17	10944	
580.37	11062	
580.56	8576.2	
580.75	9366.7	
580.94	11296	
581.14	11319	
581.33	9712.2	
581.52	8766.7	
581.71	10896	
581.91	11471	
582.1	8535.9	
582.29	8976.9	
582.48	10618	
582.68	10514	
582.87	9346.2	
583.06	9029.5	
583.25	10834	
583.45	10722	
583.64	9720.3	
583.83	10365	
584.02	10389	
584.21	10870	
584.41	9587.9	
584.6	9007.6	
584.79	10657	
584.98	11201	
585.18	8598.7	
585.37	8624.7	
585.56	10311	
585.75	10916	
585.94	8825.4	
586.14	9385.2	
586.33	11297	
586.52	10534	
586.71	9130.5	
586.91	9077.3	
587.1	9965.4	
587.29	10914	
587.48	8748.2	
587.67	8761.2	
587.87	10854	
588.06	10724	
588.25	9930.6	
588.44	9282.8	
588.63	10434	
588.83	10899	
589.02	8718.2	
589.21	8672.5	
589.4	10268	
589.59	10118	
589.78	8034.2	
589.98	8196	
590.17	9719.7	
590.36	10170	
590.55	7573.4	
590.74	8172.8	
590.94	11138	
591.13	9853.5	
591.32	8026.7	
591.51	7691.5	
591.7	10155	
591.89	9798.8	
592.09	7755.7	
592.28	8206.2	
592.47	9180.4	
592.66	10864	
592.85	7861.5	
593.05	7993.9	
593.24	9699.9	
593.43	10311	
593.62	8044.4	
593.81	8490.9	
594	9828.9	
594.19	9992	
594.39	7942.7	
594.58	7852.6	
594.77	10018	
594.96	10508	
595.15	7831.4	
595.34	8442.4	
595.54	9993.4	
595.73	9222	
595.92	7215.7	
596.11	8288.1	
596.3	10474	
596.49	9358.5	
596.68	8036.9	
596.88	8421.9	
597.07	10228	
597.26	9187.9	
597.45	7628	
597.64	8729.1	
597.83	9390.6	
598.02	9911.5	
598.22	7679.2	
598.41	8279.3	
598.6	9723.8	
598.79	9232.2	
598.98	7725.6	
599.17	8624.7	
599.36	9762.7	
599.55	10606	
599.74	9387.9	
599.94	9266.4	
600.13	10193	
600.32	9170.8	
600.51	7466.9	
600.7	7593.9	
600.89	10794	
601.08	10745	
601.27	7376.8	
601.47	8260.8	
601.66	10047	
601.85	10620	
602.04	8010.3	
602.23	8071	
602.42	9286.2	
602.61	9822.1	
602.8	7819.1	
602.99	7777.5	
603.18	9626.1	
603.37	9742.2	
603.57	8196	
603.76	8660.9	
603.95	10393	
604.14	9938.1	
604.33	7773.4	
604.52	7974.8	
604.71	9661	
604.9	9269.1	
605.09	8811	
605.28	8384.4	
605.47	10241	
605.66	9857.6	
605.86	8303.8	
606.05	7786.4	
606.24	10132	
606.43	8945.5	
606.62	8050.6	
606.81	8588.5	
607	10131	
607.19	9468.4	
607.38	7600	
607.57	7641	
607.76	9243.2	
607.95	8820.6	
608.14	8087.4	
608.33	8620.6	
608.52	9230.2	
608.72	10086	
608.91	7416.4	
609.1	7356.3	
609.29	9360.6	
609.48	8756.4	
609.67	8077.2	
609.86	7449.8	
610.05	8987.9	
610.24	9235	
610.43	7277.8	
610.62	6974	
610.81	10147	
611	9986.6	
611.19	7316.7	
611.38	8054	
611.57	9485.5	
611.76	10613	
611.95	7152.2	
612.14	7092.1	
612.33	9338.1	
612.52	8918.9	
612.71	7704.5	
612.9	7082.6	
613.09	8597.4	
613.28	10632	
613.47	7520.8	
613.66	8211.7	
613.85	9459.6	
614.04	9041.1	
614.24	7509.2	
614.43	6793.8	
614.62	9577.7	
614.81	9471.2	
615	7984.3	
615.19	7941.3	
615.38	8800.1	
615.57	9268.4	
615.76	7960.5	
615.95	8686.1	
616.14	9652.8	
616.33	9294.4	
616.52	8137.9	
616.71	8324.3	
616.9	9522.4	
617.09	9342.8	
617.28	7576.8	
617.47	8622.6	
617.66	8774.2	
617.85	8770.1	
618.04	8386.4	
618.22	7805.5	
618.41	9102.5	
618.6	9908.8	
618.79	7848.5	
618.98	7680.6	
619.17	10162	
619.36	8719.6	
619.55	7758.4	
619.74	7795.9	
619.93	9582.4	
620.12	9123.7	
620.31	8264.2	
620.5	8393.3	
620.69	10040	
620.88	10435	
621.07	9026.1	
621.26	8256.7	
621.45	9896.5	
621.64	9809.8	
621.83	8434.9	
622.02	7637.6	
622.21	10032	
622.4	9620	
622.59	8734.6	
622.78	8592.6	
622.97	9293.7	
623.16	10120	
623.35	8226.7	
623.54	7649.2	
623.72	9509.4	
623.91	9650	
624.1	8505.2	
624.29	7381.6	
624.48	10589	
624.67	9927.2	
624.86	8477.2	
625.05	7673.1	
625.24	10687	
625.43	9273.2	
625.62	9857.6	
625.81	7838.3	
626	10258	
626.19	9558.6	
626.38	8531.2	
626.56	8064.2	
626.75	9450.7	
626.94	10124	
627.13	8557.8	
627.32	7335.1	
627.51	10025	
627.7	11083	
627.89	7606.2	
628.08	8544.1	
628.27	9241.8	
628.46	9417.9	
628.65	7839.6	
628.83	7534.5	
629.02	9933.3	
629.21	9252.7	
629.4	8173.4	
629.59	8339.3	
629.78	9256.8	
629.97	10073	
630.16	8343.4	
630.35	7937.9	
630.54	10503	
630.72	10171	
630.91	7911.3	
631.1	8335.9	
631.29	9764.7	
631.48	9814.5	
631.67	8383	
631.86	7961.8	
632.05	9473.9	
632.24	9547.6	
632.42	7679.2	
632.61	8258.1	
632.8	9531.2	
632.99	9252.7	
633.18	8196	
633.37	8523.6	
633.56	9669.1	
633.75	9622.7	
633.93	8236.2	
634.12	7939.3	
634.31	10434	
634.5	10032	
634.69	7944.8	
634.88	8421.2	
635.07	9554.5	
635.25	9947	
635.44	8711.4	
635.63	8889.5	
635.82	9359.9	
636.01	8945.5	
636.2	8601.5	
636.39	8189.8	
636.57	10352	
636.76	10036	
636.95	7735.9	
637.14	8923	
637.33	9841.2	
637.52	10525	
637.7	7578.8	
637.89	8460.2	
638.08	9391.3	
638.27	10615	
638.46	8425.3	
638.65	8857.5	
638.83	10488	
639.02	9331.2	
639.21	8350.3	
639.4	8750.3	
639.59	9493.7	
639.78	9157.2	
639.96	7699	
640.15	7711.3	
640.34	9556.5	
640.53	9538.8	
640.72	7427.3	
640.91	7615	
641.09	8979	
641.28	10083	
641.47	7746.1	
641.66	8387.1	
641.85	9526.5	
642.03	9734.7	
642.22	8148.2	
642.41	7793.9	
642.6	9057.5	
642.79	8468.4	
642.97	7543.4	
643.16	8058.1	
643.35	8987.9	
643.54	8785.1	
643.73	7500.3	
643.91	8205.5	
644.1	8651.3	
644.29	9301.2	
644.48	7392.5	
644.67	7548.8	
644.85	8754.4	
645.04	9150.3	
645.23	7206.1	
645.42	7391.1	
645.6	8672.5	
645.79	9646.6	
645.98	7254.6	
646.17	6568.5	
646.36	8428.1	
646.54	8789.2	
646.73	7952.3	
646.92	6924.2	
647.11	8538	
647.29	9467.1	
647.48	7024.5	
647.67	6749.4	
647.86	9566.1	
648.05	9579.7	
648.23	7228	
648.42	8414.4	
648.61	9131.2	
648.8	8859.5	
648.98	6865.5	
649.17	7223.9	
649.36	8414.4	
649.55	8075.8	
649.73	6922.1	
649.92	7544	
650.11	8327	
650.3	8695.7	
650.48	7121.5	
650.67	6825.2	
650.86	8873.8	
651.05	7920.2	
651.23	6990.4	
651.42	6947.4	
651.61	8470.4	
651.79	8413.1	
651.98	7165.8	
652.17	6771.3	
652.36	8725.7	
652.54	8015.1	
652.73	6772.6	
652.92	6672.3	
653.11	8822	
653.29	8845.2	
653.48	6190.3	
653.67	6961	
653.85	8550.3	
654.04	9467.1	
654.23	7191.8	
654.42	6728.3	
654.6	8125	
654.79	8628.1	
654.98	6346	
655.16	6808.8	
655.35	7732.4	
655.54	7509.9	
655.73	6297.5	
655.91	6201.2	
656.1	8443.1	
656.29	7479.2	
656.47	5799.8	
656.66	7314.7	
656.85	7760.4	
657.03	7761.1	
657.22	6376.7	
657.41	6471.6	
657.59	7952.3	
657.78	7743.4	
657.97	6161	
658.16	6821.1	
658.34	8471.8	
658.53	8763.3	
658.72	7587	
658.9	7995.3	
659.09	8053.3	
659.28	8122.2	
659.46	6599.9	
659.65	6443.6	
659.84	7798.7	
660.02	8374.1	
660.21	6503.7	
660.4	6374.6	
660.58	8705.2	
660.77	8153	
660.96	6881.2	
661.14	6087.2	
661.33	9056.8	
661.52	8894.3	
661.7	6009.4	
661.89	9163.3	
662.08	7856.7	
662.26	7428	
662.45	6285.9	
662.64	6386.9	
662.82	8412.4	
663.01	7728.4	
663.2	6444.3	
663.38	7056.6	
663.57	8208.3	
663.75	8175.5	
663.94	6634.7	
664.13	7656.7	
664.31	7795.3	
664.5	8333.9	
664.69	7051.8	
664.87	7357	
665.06	7575.4	
665.25	8163.2	
665.43	7559.7	
665.62	7608.9	
665.8	8403.5	
665.99	7914	
666.18	6627.9	
666.36	6720.1	
666.55	8408.3	
666.74	8248.5	
666.92	6312.5	
667.11	7720.8	
667.29	7885.4	
667.48	8357.8	
667.67	7402	
667.85	6520	
668.04	7869.7	
668.22	7838.3	
668.41	6664.8	
668.6	6877.8	
668.78	7696.3	
668.97	7869	
669.15	6954.9	
669.34	6051.1	
669.53	7735.2	
669.71	7965.9	
669.9	6108.4	
670.08	6746.7	
670.27	7626	
670.46	8221.9	
670.64	6954.2	
670.83	7200	
671.01	7487.4	
671.2	8021.9	
671.38	6298.9	
671.57	6185.5	
671.76	8613.1	
671.94	9031.5	
672.13	6148.7	
672.31	7017.7	
672.5	8260.1	
672.69	7643	
672.87	6199.2	
673.06	6472.9	
673.24	8127.7	
673.43	7660.8	
673.61	6917.4	
673.8	6487.3	
673.98	8220.5	
674.17	8321.6	
674.36	7030	
674.54	6809.5	
674.73	7955	
674.91	8403.5	
675.1	6657.9	
675.28	6240.8	
675.47	7838.9	
675.65	8348.2	
675.84	6512.5	
676.03	6847.7	
676.21	7688.8	
676.4	7213.6	
676.58	7173.4	
676.77	6922.8	
676.95	8946.9	
677.14	7644.4	
677.32	6217.6	
677.51	6112.5	
677.69	8332.5	
677.88	7404.1	
678.06	6169.2	
678.25	6191.7	
678.44	7824.6	
678.62	7624.6	
678.81	5954.8	
678.99	6824.5	
679.18	8495.7	
679.36	8164.6	
679.55	6434	
679.73	6954.2	
679.92	8083.3	
680.1	7601.4	
680.29	7484	
680.47	6419	
680.66	7616.4	
680.84	8263.6	
681.03	5916.6	
681.21	6807.4	
681.4	7638.9	
681.58	7590.5	
681.77	6268.8	
681.95	6196.5	
682.14	8389.8	
682.32	8555.7	
682.51	7002	
682.69	6035.4	
682.88	7468.9	
683.06	8052.6	
683.25	6668.9	
683.43	7090.8	
683.62	7769.3	
683.8	8131.8	
683.99	7262.1	
684.17	6593.1	
684.36	8826.7	
684.54	7660.1	
684.73	5877	
684.91	6101.6	
685.1	8046.5	
685.28	7342	
685.46	6392.4	
685.65	6495.5	
685.83	7954.3	
686.02	7429.3	
686.2	5997.8	
686.39	6126.8	
686.57	7321.5	
686.76	8557.8	
686.94	5973.9	
687.13	6211.5	
687.31	7819.8	
687.5	7580.9	
687.68	5702.2	
687.86	6745.3	
688.05	9046.6	
688.23	7089.4	
688.42	6819.7	
688.6	6138.4	
688.79	7501.7	
688.97	7478.5	
689.16	6517.3	
689.34	5546.6	
689.52	7993.9	
689.71	8258.1	
689.89	6709.1	
690.08	6043.6	
690.26	7692.2	
690.45	7567.9	
690.63	6822.5	
690.81	6313.2	
691	7499	
691.18	7426.6	
691.37	6432	
691.55	8194.6	
691.74	7288	
691.92	8998.1	
692.1	6272.2	
692.29	5864	
692.47	7501	
692.66	6956.3	
692.84	5934.3	
693.02	6372.6	
693.21	6982.2	
693.39	7384.3	
693.58	6557.6	
693.76	5997.8	
693.94	8437.6	
694.13	8239	
694.31	6067.4	
694.5	7021.1	
694.68	7341.3	
694.86	7677.2	
695.05	6383.5	
695.23	6643.6	
695.42	7968	
695.6	9999.5	
695.78	6920.1	
695.97	6139.8	
696.15	8100.4	
696.34	7515.4	
696.52	5935.7	
696.7	6642.2	
696.89	7811.6	
697.07	7279.8	
697.25	6564.4	
697.44	7870.3	
697.62	7715.4	
697.81	7997.3	
697.99	6300.2	
698.17	6762.4	
698.36	7148.1	
698.54	7677.2	
698.72	6543.3	
698.91	5681.7	
699.09	7407.5	
699.28	7281.2	
699.46	6225.8	
699.64	6161.7	
699.83	7124.9	
700.01	8204.2	
700.19	6776	
700.38	5535	
700.56	8225.3	
700.74	7307.8	
700.93	5813.5	
701.11	6485.2	
701.29	7670.3	
701.48	8620.6	
701.66	5985.5	
701.84	6056.5	
702.03	7408.2	
702.21	8032.8	
702.39	5634.6	
702.58	6079.1	
702.76	7671	
702.94	7840.3	
703.13	5674.2	
703.31	7618.4	
703.49	7203.4	
703.68	7959.8	
703.86	5829.9	
704.04	6675.7	
704.23	7514.7	
704.41	7802.1	
704.59	5881.8	
704.78	6913.9	
704.96	8631.5	
705.14	7966.6	
705.33	5740.5	
705.51	6406	
705.69	7354.9	
705.87	8144.1	
706.06	6575.3	
706.24	5705	
706.42	7661.5	
706.61	7735.9	
706.79	6720.1	
706.97	5672.9	
707.16	7160.4	
707.34	7675.8	
707.52	6638.8	
707.7	5930.2	
707.89	7300.3	
708.07	7015.7	
708.25	6617	
708.44	6739.9	
708.62	7174.7	
708.8	8107.9	
708.98	6836.8	
709.17	5895.4	
709.35	7497.6	
709.53	7564.5	
709.72	5674.9	
709.9	6079.1	
710.08	7724.9	
710.26	7793.2	
710.45	6966.5	
710.63	5938.4	
710.81	7313.3	
710.99	7405.5	
711.18	6386.2	
711.36	5937.7	
711.54	7317.4	
711.72	7892.2	
711.91	6125.5	
712.09	5595.1	
712.27	7376.8	
712.45	8018.5	
712.64	6099.5	
712.82	5379.3	
713	6931.7	
713.18	7053.9	
713.37	5494.7	
713.55	6485.2	
713.73	7694.2	
713.91	6514.6	
714.1	5703.6	
714.28	5289.9	
714.46	7340.6	
714.64	6680.5	
714.83	4765.6	
715.01	5444.2	
715.19	6620.4	
715.37	6062	
715.55	5104.2	
715.74	5328.8	
715.92	7367.9	
716.1	5629.2	
716.28	6263.4	
716.47	5463.3	
716.65	6281.8	
716.83	6160.3	
717.01	5270.8	
717.19	5321.3	
717.38	8028	
717.56	5961.6	
717.74	5435.3	
717.92	4711.7	
718.1	6993.1	
718.29	6367.1	
718.47	4390.2	
718.65	4983.4	
718.83	6905.8	
719.01	6924.2	
719.2	4375.8	
719.38	5306.3	
719.56	6647.7	
719.74	8021.2	
719.92	4981.3	
720.11	5834	
720.29	6842.3	
720.47	5975.3	
720.65	4567	
720.83	5314.5	
721.02	6271.6	
721.2	6027.2	
721.38	5337.7	
721.56	4689.2	
721.74	5627.1	
721.92	5750.7	
722.11	5745.9	
722.29	5484.5	
722.47	6903	
722.65	6068.1	
722.83	4644.1	
723.01	5455.8	
723.2	6129.6	
723.38	6428.6	
723.56	4171.7	
723.74	5194.3	
723.92	5711.1	
724.1	6681.2	
724.29	4545.8	
724.47	5558.9	
724.65	5808.7	
724.83	5714.5	
725.01	4465.9	
725.19	5175.2	
725.37	5759.6	
725.56	5739.1	
725.74	4400.4	
725.92	4524	
726.1	5678.3	
726.28	5926.1	
726.46	4880.3	
726.64	4691.9	
726.83	5918.6	
727.01	6205.3	
727.19	4306.9	
727.37	5018.2	
727.55	6079.7	
727.73	6493.4	
727.91	4267.3	
728.09	4181.3	
728.28	6424.5	
728.46	6742.6	
728.64	5079.6	
728.82	5067.4	
729	7389.8	
729.18	6789	
729.36	4371	
729.54	6300.9	
729.72	7585.7	
729.91	6098.9	
730.09	5999.2	
730.27	5008	
730.45	6059.9	
730.63	6635.4	
730.81	5433.3	
730.99	4726.7	
731.17	7025.9	
731.35	5816.9	
731.53	5106.3	
731.71	4836.6	
731.9	6765.8	
732.08	6926.2	
732.26	5008	
732.44	4606.6	
732.62	6987.7	
732.8	6534.4	
732.98	5293.3	
733.16	4441.4	
733.34	6526.9	
733.52	5513.1	
733.7	4919.9	
733.88	5183.4	
734.07	6326.9	
734.25	6123.4	
734.43	4482.3	
734.61	5783.5	
734.79	7474.4	
734.97	6065.4	
735.15	4569.7	
735.33	4966.3	
735.51	6358.9	
735.69	6103.6	
735.87	5701.5	
736.05	5044.8	
736.23	6150.1	
736.41	5978	
736.59	4855.7	
736.77	4959.5	
736.95	6537.8	
737.13	6096.8	
737.32	4579.3	
737.5	4727.4	
737.68	7030.7	
737.86	6023.1	
738.04	4336.2	
738.22	5969.1	
738.4	5829.9	
738.58	6026.5	
738.76	4913.1	
738.94	4128	
739.12	5943.9	
739.3	5839.4	
739.48	5341.8	
739.66	5136.3	
739.84	6163.7	
740.02	6152.1	
740.2	4100.7	
740.38	4450.2	
740.56	6454.5	
740.74	5427.8	
740.92	5001.1	
741.1	4863.9	
741.28	5901.6	
741.46	5786.9	
741.64	4586.1	
741.82	4974.5	
742	6029.9	
742.18	5926.8	
742.36	4688.5	
742.54	4390.2	
742.72	6468.2	
742.9	5369.1	
743.08	5061.9	
743.26	4031.8	
743.44	6488.6	
743.62	6443.6	
743.8	5160.2	
743.98	4359.4	
744.16	6249.7	
744.34	5933	
744.52	5040.7	
744.7	4982.7	
744.88	6345.3	
745.06	5847	
745.24	5098.1	
745.42	5204.6	
745.6	6442.9	
745.78	6233.3	
745.96	4074.8	
746.14	4392.2	
746.32	7045	
746.5	6343.2	
746.68	4861.9	
746.86	4394.3	
747.03	6666.8	
747.21	5311.7	
747.39	4864.6	
747.57	4423.6	
747.75	5998.5	
747.93	6332.3	
748.11	4372.4	
748.29	4293.9	
748.47	7362.4	
748.65	5784.8	
748.83	4952.7	
749.01	4782.7	
749.19	6165.8	
749.37	5471.5	
749.55	4635.9	
749.73	4668	
749.91	5922	
750.09	5683.8	
750.26	4732.9	
750.44	4247.5	
750.62	5905	
750.8	5887.2	
750.98	4091.2	
751.16	4287.1	
751.34	6060.6	
751.52	5368.4	
751.7	5005.9	
751.88	4040	
752.06	6413.6	
752.24	6160.3	
752.42	3991.5	
752.59	4347.8	
752.77	5884.5	
752.95	6908.5	
753.13	4921.3	
753.31	4425.7	
753.49	5586.9	
753.67	5975.3	
753.85	4683	
754.03	4377.9	
754.21	6212.9	
754.38	6473.6	
754.56	4453	
754.74	3740.3	
754.92	5613.5	
755.1	6160.3	
755.28	3668.6	
755.46	3715.7	
755.64	6832.7	
755.82	6933.7	
755.99	3956.7	
756.17	4007.9	
756.35	4774.5	
756.53	6021	
756.71	3055.6	
756.89	3794.2	
757.07	5694	
757.25	4977.9	
757.42	4295.3	
757.6	4963.6	
757.78	5739.8	
757.96	4912.4	
758.14	4071.4	
758.32	3663.1	
758.5	4597.7	
758.67	5257.8	
758.85	3908.2	
759.03	3988.8	
759.21	5400.5	
759.39	4896.7	
759.57	3511.6	
759.75	4507.6	
759.92	5957.5	
760.1	5386.2	
760.28	4820.2	
760.46	5058.5	
760.64	5167	
760.82	4941.7	
760.99	4754.7	
761.17	4018.8	
761.35	5887.2	
761.53	4981.3	
761.71	4035.2	
761.89	4669.4	
762.06	5753.4	
762.24	5300.1	
762.42	4212.7	
762.6	3960.1	
762.78	5299.5	
762.96	5812.8	
763.13	4474.1	
763.31	4201.1	
763.49	6012.8	
763.67	5301.5	
763.85	4919.2	
764.02	5420.3	
764.2	6212.9	
764.38	5541.1	
764.56	4065.2	
764.74	4804.5	
764.91	6285.9	
765.09	5339.1	
765.27	3816	
765.45	3629.7	
765.63	6363	
765.8	6174.6	
765.98	3472	
766.16	3654.3	
766.34	4979.3	
766.52	4835.3	
766.69	4500.8	
766.87	3605.8	
767.05	5401.9	
767.23	6059.3	
767.41	3807.2	
767.58	4033.1	
767.76	5853.8	
767.94	5836.7	
768.12	3886.4	
768.29	4449.6	
768.47	5365	
768.65	6038.8	
768.83	3646.7	
769	4561.5	
769.18	4988.9	
769.36	5627.8	
769.54	4505.5	
769.72	3650.2	
769.89	5886.5	
770.07	5934.3	
770.25	3887	
770.43	4992.3	
770.6	6569.2	
770.78	6874.3	
770.96	4113.7	
771.14	4559.5	
771.31	5802.6	
771.49	5181.4	
771.67	3383.9	
771.85	3560.7	
772.02	4571.1	
772.2	5248.9	
772.38	4161.5	
772.55	3734.8	
772.73	5414.8	
772.91	5257.8	
773.09	4036.5	
773.26	4160.1	
773.44	5433.9	
773.62	5165	
773.8	3648.1	
773.97	3431.7	
774.15	5453.7	
774.33	5158.2	
774.5	3542.3	
774.68	3875.4	
774.86	5637.4	
775.04	5184.8	
775.21	3678.2	
775.39	3590.8	
775.57	5352.7	
775.74	5668.1	
775.92	3506.1	
776.1	3392.1	
776.27	5330.9	
776.45	6433.4	
776.63	3610.6	
776.81	3233.7	
776.98	5055.8	
777.16	5986.9	
777.34	3773.7	
777.51	3970.3	
777.69	5081	
777.87	4859.8	
778.04	3808.5	
778.22	4255.7	
778.4	4896.7	
778.57	5469.4	
778.75	3141.6	
778.93	3397.6	
779.1	4776.5	
779.28	4619.5	
779.46	3175	
779.64	3608.5	
779.81	5634.6	
779.99	6276.3	
780.17	4267.3	
780.34	4347.2	
780.52	5141.1	
780.69	5312.4	
780.87	3828.3	
781.05	3489.7	
781.22	5231.9	
781.4	5177.9	
781.58	3577.1	
781.75	2896.5	
781.93	5151.3	
782.11	4702.8	
782.28	4449.6	
782.46	3586	
782.64	4604.5	
782.81	5311.7	
782.99	3697.3	
783.17	3612.6	
783.34	5261.2	
783.52	4635.2	
783.69	3844	
783.87	4552.6	
784.05	4724.7	
784.22	4678.2	
784.4	4478.2	
784.58	3968.3	
784.75	5540.4	
784.93	4746.5	
785.1	3612.6	
785.28	4186	
785.46	5273.5	
785.63	4677.6	
785.81	3631	
785.99	3485.6	
786.16	4833.9	
786.34	5128.1	
786.51	3519.8	
786.69	3868.6	
786.87	4495.3	
787.04	4916.5	
787.22	3404.4	
787.39	4185.4	
787.57	4699.4	
787.75	5651.7	
787.92	4358.8	
788.1	4304.1	
788.27	4696	
788.45	4504.8	
788.63	4055.7	
788.8	2986.6	
788.98	5199.8	
789.15	4465.3	
789.33	3101.3	
789.5	3642.7	
789.68	5509.7	
789.86	5653.8	
790.03	4002.4	
790.21	3494.5	
790.38	5547.9	
790.56	4862.6	
790.73	3426.3	
790.91	3387.3	
791.09	4719.2	
791.26	5308.3	
791.44	3627.6	
791.61	3144.3	
791.79	4634.6	
791.96	4736.3	
792.14	3265.1	
792.32	2843.3	
792.49	4730.8	
792.67	4828.4	
792.84	3316.3	
793.02	3154.6	
793.19	5094	
793.37	5772.5	
793.54	2865.8	
793.72	3140.2	
793.89	5779.4	
794.07	4669.4	
794.25	3616	
794.42	2979.8	
794.6	5638.1	
794.77	5259.9	
794.95	3872	
795.12	3493.2	
795.3	4704.2	
795.47	5214.1	
795.65	3818.1	
795.82	3650.2	
796	4480.3	
796.17	6163.7	
796.35	3548.4	
796.52	4174.4	
796.7	5136.3	
796.87	5294	
797.05	3502	
797.22	4228.4	
797.4	5259.2	
797.57	6096.1	
797.75	3689.8	
797.92	3463.1	
798.1	5478.3	
798.27	4602.5	
798.45	3015.3	
798.62	3188.7	
798.8	4962.9	
798.97	5385.5	
799.15	3837.2	
799.32	3673.4	
799.5	4358.1	
799.67	4990.2	
799.85	3941.7	
800.02	2938.8	
800.2	4676.9	
800.37	4906.9	
800.55	4110.3	
800.72	3461.7	
800.9	5391.6	
801.07	5727.5	
801.25	4558.8	
801.42	3814	
801.6	5391.6	
801.77	5098.1	
801.95	3494.5	
802.12	3401.7	
802.29	5136.3	
802.47	5079.6	
802.64	3737.5	
802.82	2927.9	
802.99	4703.5	
803.17	5462.6	
803.34	3697.3	
803.52	3294.5	
803.69	6047.7	
803.87	4491.2	
804.04	3645.4	
804.21	3701.4	
804.39	5688.6	
804.56	4827.7	
804.74	3177.1	
804.91	3725.9	
805.09	4709.6	
805.26	4820.2	
805.44	3167.5	
805.61	3426.3	
805.78	5268.7	
805.96	5300.1	
806.13	3779.2	
806.31	4042.7	
806.48	4359.4	
806.66	4767	
806.83	3766.2	
807	3696.6	
807.18	4681.7	
807.35	4958.1	
807.53	3633.8	
807.7	3017.3	
807.87	5651.7	
808.05	4730.8	
808.22	3948.5	
808.4	2970.2	
808.57	4694.6	
808.74	4367.6	
808.92	3385.3	
809.09	4262.5	
809.27	4687.8	
809.44	5111	
809.61	2977.7	
809.79	3307.5	
809.96	5702.2	
810.14	5369.8	
810.31	2935.4	
810.48	3549.8	
810.66	4813.4	
810.83	5409.4	
811.01	3395.5	
811.18	3726.6	
811.35	5343.2	
811.53	4213.4	
811.7	4077.5	
811.87	3763.5	
812.05	4769.7	
812.22	4681	
812.39	3233.1	
812.57	3201.7	
812.74	4752.7	
812.92	6180.1	
813.09	3566.2	
813.26	3859.7	
813.44	5893.4	
813.61	4652.3	
813.78	2977.7	
813.96	3939.6	
814.13	4732.2	
814.3	4511	
814.48	4263.9	
814.65	3512.9	
814.82	5909.8	
815	4502.1	
815.17	3607.8	
815.34	4378.6	
815.52	4690.5	
815.69	4677.6	
815.87	3592.8	
816.04	3504.8	
816.21	4717.2	
816.38	4253.6	
816.56	3501.3	
816.73	3295.9	
816.9	5936.4	
817.08	5319.3	
817.25	3353.9	
817.42	4101.4	
817.6	4330.1	
817.77	4676.2	
817.94	3688.4	
818.12	3300.6	
818.29	4507.6	
818.46	6847	
818.64	3380.5	
818.81	3186.6	
818.98	4467.3	
819.16	6307.7	
819.33	3869.3	
819.5	3650.2	
819.67	5055.1	
819.85	5555.5	
820.02	3610.6	
820.19	3780.6	
820.37	4947.9	
820.54	4571.7	
820.71	3686.3	
820.88	4587.4	
821.06	4912.4	
821.23	4572.4	
821.4	3761.4	
821.58	3654.3	
821.75	5292	
821.92	4847.5	
822.09	3036.5	
822.27	3056.3	
822.44	4775.9	
822.61	4630.5	
822.79	3016	
822.96	5590.3	
823.13	5076.9	
823.3	4460.5	
823.48	3444	
823.65	3176.4	
823.82	5371.8	
823.99	4327.4	
824.17	4356.7	
824.34	3179.8	
824.51	6097.5	
824.68	4769.7	
824.86	3334.1	
825.03	3649.5	
825.2	4681	
825.37	5549.3	
825.55	3294.5	
825.72	3562.8	
825.89	6107	
826.06	5745.9	
826.24	3592.1	
826.41	3592.8	
826.58	5711.1	
826.75	4955.4	
826.92	2894.5	
827.1	3142.9	
827.27	7585.7	
827.44	6110.5	
827.61	3338.2	
827.79	4048.8	
827.96	4485.7	
828.13	4751.3	
828.3	3528.7	
828.47	2972.3	
828.65	5002.5	
828.82	4945.2	
828.99	4474.1	
829.16	3931.4	
829.34	5278.3	
829.51	5145.2	
829.68	3631.7	
829.85	3749.1	
830.02	5593.7	
830.2	5285.1	
830.37	2830.3	
830.54	4353.3	
830.71	5951.4	
830.88	4766.3	
831.05	2859	
831.23	3353.9	
831.4	5767.1	
831.57	6341.9	
831.74	3375.1	
831.91	3016	
832.09	4993.6	
832.26	5376.6	
832.43	3452.2	
832.6	3936.2	
832.77	4941.7	
832.94	5578	
833.12	2823.5	
833.29	3403	
833.46	4633.2	
833.63	6584.2	
833.8	3819.5	
833.97	3503.4	
834.15	5309.7	
834.32	5048.9	
834.49	3603.7	
834.66	3691.8	
834.83	5456.5	
835	4537.6	
835.17	3388	
835.35	3367.5	
835.52	5170.4	
835.69	5063.9	
835.86	3575.8	
836.03	2966.8	
836.2	5213.4	
836.37	4891.9	
836.55	3432.4	
836.72	3315	
836.89	4879.6	
837.06	5401.9	
837.23	3556	
837.4	3842	
837.57	5986.9	
837.75	6554.9	
837.92	3205.8	
838.09	3372.3	
838.26	4902.2	
838.43	5520.6	
838.6	3678.8	
838.77	3249.4	
838.94	6232.7	
839.11	6033.3	
839.29	3528.7	
839.46	2773.6	
839.63	5319.9	
839.8	5031.9	
839.97	3336.1	
840.14	3426.3	
840.31	5091.3	
840.48	5257.1	
840.65	2796.2	
840.82	3320.4	
841	5252.4	
841.17	5148.6	
841.34	3131.3	
841.51	3204.4	
841.68	5252.4	
841.85	4977.9	
842.02	3272.7	
842.19	2695.1	
842.36	5075.5	
842.53	5055.1	
842.7	3142.9	
842.87	3803.8	
843.05	6511.9	
843.22	5046.2	
843.39	2967.5	
843.56	3184.6	
843.73	4824.3	
843.9	5328.8	
844.07	4978.6	
844.24	4174.4	
844.41	7437.5	
844.58	4605.9	
844.75	3039.9	
844.92	3277.4	
845.09	5243.5	
845.26	5266	
845.43	3130	
845.6	3226.9	
845.77	5289.9	
845.94	5073.5	
846.12	3420.8	
846.29	3607.2	
846.46	5455.8	
846.63	5209.3	
846.8	3131.3	
846.97	3625.6	
847.14	5649	
847.31	5242.1	
847.48	3479.5	
847.65	3779.9	
847.82	5482.4	
847.99	5474.9	
848.16	4143.7	
848.33	3819.5	
848.5	4870.1	
848.67	5625.8	
848.84	3087	
849.01	3209.8	
849.18	4757.4	
849.35	4466.6	
849.52	3867.9	
849.69	3052.8	
849.86	5380.7	
850.03	5599.8	
850.2	3148.4	
850.37	3790.8	
850.54	5541.1	
850.71	4986.1	
850.88	3710.2	
851.05	3041.9	
851.22	5115.8	
851.39	5691.3	
851.56	2968.2	
851.73	3577.8	
851.9	4642.7	
852.07	5496.7	
852.24	3391.4	
852.41	3110.9	
852.58	5151.3	
852.75	4664.6	
852.92	3564.8	
853.09	3022.8	
853.26	4884.4	
853.43	5530.2	
853.6	3108.8	
853.77	2676.7	
853.94	5793	
854.11	5136.3	
854.28	4494.6	
854.44	3390.1	
854.61	6137.1	
854.78	5485.1	
854.95	3125.2	
855.12	3866.6	
855.29	4323.9	
855.46	5818.3	
855.63	3044.6	
855.8	4221.5	
855.97	4868.7	
856.14	5515.9	
856.31	4431.8	
856.48	3349.1	
856.65	4863.2	
856.82	4624.3	
856.99	3015.3	
857.16	3317	
857.33	6253.1	
857.49	4941.1	
857.66	3358.7	
857.83	3581.9	
858	4947.2	
858.17	5132.9	
858.34	2924.5	
858.51	3125.9	
858.68	5810.1	
858.85	5857.2	
859.02	3555.3	
859.19	3776.5	
859.36	4644.8	
859.52	4702.8	
859.69	3131.3	
859.86	3652.9	
860.03	4690.5	
860.2	5706.3	
860.37	2825.5	
860.54	3145	
860.71	5415.5	
860.88	5729.5	
861.05	3454.2	
861.21	3884.3	
861.38	5772.5	
861.55	4519.9	
861.72	2815.3	
861.89	3433.1	
862.06	5464	
862.23	5968.5	
862.4	3009.8	
862.56	3276.1	
862.73	5347.2	
862.9	5048.2	
863.07	3646.7	
863.24	2870.6	
863.41	4587.4	
863.58	4713.7	
863.75	3173.7	
863.91	3563.5	
864.08	5673.6	
864.25	5383.4	
864.42	3812	
864.59	4301.4	
864.76	6023.8	
864.93	4643.4	
865.09	2981.2	
865.26	3329.3	
865.43	5689.9	
865.6	6050.4	
865.77	2763.4	
865.94	3040.6	
866.1	5662.6	
866.27	5486.5	
866.44	4639.3	
866.61	2972.3	
866.78	5036.6	
866.95	5324	
867.11	3031	
867.28	2772.9	
867.45	5563.6	
867.62	4637.3	
867.79	3545	
867.96	3084.9	
868.12	4608.6	
868.29	5506.3	
868.46	2768.2	
868.63	4086.4	
868.8	5629.2	
868.97	5390.3	
869.13	3254.9	
869.3	3236.5	
869.47	5304.2	
869.64	5537	
869.81	3102.7	
869.97	3150.5	
870.14	5214.1	
870.31	5810.1	
870.48	3018.7	
870.65	3842	
870.81	4914.4	
870.98	4960.9	
871.15	3466.5	
871.32	3220.8	
871.48	5277.6	
871.65	5858.6	
871.82	3138.9	
871.99	3370.3	
872.16	6199.9	
872.32	5671.5	
872.49	3153.9	
872.66	3096.5	
872.83	5440.8	
872.99	4758.8	
873.16	3562.1	
873.33	3093.1	
873.5	5094.7	
873.67	5161.6	
873.83	3260.4	
874	4165.6	
874.17	5227.1	
874.34	6148.7	
874.5	3999.7	
874.67	3822.9	
874.84	5727.5	
875.01	4582.7	
875.17	4241.3	
875.34	3112.2	
875.51	5167	
875.68	6222.4	
875.84	3670.6	
876.01	4446.1	
876.18	5395	
876.34	5359.5	
876.51	3102	
876.68	3064.4	
876.85	4980.7	
877.01	5658.5	
877.18	4362.9	
877.35	3133.4	
877.52	5125.4	
877.68	4593.6	
877.85	3049.4	
878.02	3095.8	
878.18	4984.1	
878.35	4758.1	
878.52	2534	
878.69	3464.5	
878.85	5453.7	
879.02	5358.2	
879.19	4325.3	
879.35	3320.4	
879.52	5421.7	
879.69	5527.5	
879.86	2664.4	
880.02	3486.3	
880.19	5027.8	
880.36	6077.7	
880.52	3562.8	
880.69	3651.5	
880.86	5531.6	
881.02	5526.8	
881.19	3394.8	
881.36	3327.9	
881.52	5414.8	
881.69	4807.9	
881.86	3355.3	
882.02	3258.3	
882.19	5650.3	
882.36	6496.8	
882.52	3163.4	
882.69	4291.2	
882.86	5188.9	
883.02	5139.7	
883.19	3691.1	
883.36	3503.4	
883.52	5490.6	
883.69	6149.4	
883.86	3114.3	
884.02	2821.4	
884.19	5450.3	
884.36	5048.2	
884.52	3490.4	
884.69	3246	
884.86	4897.4	
885.02	5895.4	
885.19	3408.5	
885.36	3481.5	
885.52	4988.2	
885.69	5261.2	
885.86	4468.7	
886.02	3905.5	
886.19	5449	
886.35	4945.8	
886.52	3396.2	
886.69	4313	
886.85	4668.7	
887.02	5792.3	
887.19	5792.3	
887.35	5792.3	
887.52	5792.3	
887.68	5792.3	
887.85	5792.3	
888.02	5792.3	
888.18	5792.3	
888.35	5792.3	
888.51	5792.3	
888.68	5792.3	
888.85	5792.3	
889.01	5792.3	
889.18	5792.3	
889.35	5792.3	
889.51	5792.3	
889.68	5792.3	
889.84	5792.3	
890.01	5792.3	
890.17	5792.3	
890.34	5792.3	
890.51	5792.3	
890.67	5792.3	
890.84	5792.3	
891	5792.3	
891.17	5792.3	
891.34	5792.3	
891.5	5792.3	
891.67	5792.3	
891.83	5792.3	
892	5792.3	
892.16	5792.3	
892.33	5792.3	
892.5	5792.3	
892.66	5792.3	
892.83	5792.3	
892.99	5792.3	
893.16	5792.3	
893.32	5792.3	
893.49	5792.3	
893.65	5792.3	
893.82	5792.3	
893.99	5792.3	
894.15	5792.3	
894.32	5792.3	
894.48	5792.3	
894.65	5792.3	
894.81	5792.3	
894.98	5792.3	
895.14	5792.3	
895.31	5792.3	
895.47	5792.3	
895.64	5792.3	
895.81	5792.3	
895.97	5792.3	
896.14	5792.3	
896.3	5792.3	
896.47	5792.3	
896.63	5792.3	
896.8	5792.3	
896.96	5792.3	
897.13	5792.3	
897.29	5792.3	
897.46	5792.3	
897.62	5792.3	
897.79	5792.3	
897.95	5792.3	
898.12	5792.3	
898.28	5792.3	
898.45	5792.3	
898.61	5792.3	
898.78	5792.3	
898.94	5792.3	
899.11	5792.3	
899.27	5792.3	
899.44	5792.3	
899.6	5792.3	
899.77	5792.3	
899.93	5792.3	
900.1	5792.3	
900.26	5792.3	
900.43	5792.3	
900.59	5792.3	
900.76	5792.3	
900.92	5792.3	
901.09	5792.3	
901.25	5792.3	
901.42	5792.3	
901.58	5792.3	
901.75	5792.3	
901.91	5792.3	
902.07	5792.3	
902.24	5792.3	
902.4	5792.3	
902.57	5792.3	
902.73	5792.3	
902.9	5792.3	
903.06	5792.3	
903.23	5792.3	
903.39	5792.3	
903.56	5792.3	
903.72	5792.3	
903.88	5792.3	
904.05	5792.3	
904.21	5792.3	
904.38	5792.3	
904.54	5792.3	
904.71	5792.3	
904.87	5792.3	
905.03	5792.3	
905.2	5792.3	
905.36	5792.3	
905.53	5792.3	
905.69	5792.3	
905.86	5792.3	
906.02	5792.3	
906.18	5792.3	
906.35	5792.3	
906.51	5792.3	
906.68	5792.3	
906.84	5792.3	
907.01	5792.3	
907.17	5792.3	
907.33	5792.3	
907.5	5792.3	
907.66	5792.3	
907.83	5792.3	
907.99	5792.3	
908.15	5792.3	
908.32	5792.3	
908.48	5792.3	
908.65	5792.3	
908.81	5792.3	
908.97	5792.3	
909.14	5792.3	
909.3	5792.3	
909.47	5792.3	
909.63	5792.3	
909.79	5792.3	
909.96	5792.3	
910.12	5792.3	
910.28	5792.3	
910.45	5792.3	
910.61	5792.3	
910.78	5792.3	
910.94	5792.3	
911.1	5792.3	
911.27	5792.3	
911.43	5792.3	
911.59	5792.3	
911.76	5792.3	
911.92	5792.3	
912.08	5792.3	
912.25	5792.3	
912.41	5792.3	
912.57	5792.3	
912.74	5792.3	
912.9	5792.3	
913.07	5792.3	
913.23	5792.3	
913.39	5792.3	
913.56	5792.3	
913.72	5792.3	
913.88	5792.3	
914.05	5792.3	
914.21	5792.3	
914.37	5792.3	
914.54	5792.3	
914.7	5792.3	
914.86	5792.3	
915.03	5792.3	
915.19	5792.3	
