Wavelength	Intensities	
nm	a.u.	
179.22	1952.1	
179.44	1952.4	
179.65	1951.7	
179.86	1953.1	
180.08	1958.5	
180.29	5056.4	
180.51	3581.9	
180.72	5710.4	
180.94	6713.2	
181.15	3334.1	
181.37	3211.9	
181.58	5584.8	
181.79	5823.7	
182.01	3418.7	
182.22	3766.9	
182.44	5900.2	
182.65	4872.8	
182.87	4693.9	
183.08	4102.8	
183.29	6208.8	
183.51	5049.6	
183.72	3758	
183.94	5429.2	
184.15	5485.8	
184.37	5509.7	
184.58	3252.2	
184.79	4565.6	
185.01	5109	
185.22	5787.6	
185.44	4795.7	
185.65	4014.7	
185.86	5371.1	
186.08	4979.3	
186.29	3179.8	
186.51	3375.1	
186.72	5100.8	
186.94	6016.9	
187.15	3971	
187.36	4127.3	
187.58	7918.8	
187.79	5621.7	
188.01	4338.3	
188.22	6696.9	
188.43	6769.2	
188.65	5834.7	
188.86	3418.1	
189.08	4121.9	
189.29	5339.7	
189.5	5255.8	
189.72	3877.5	
189.93	3854.3	
190.15	6077.7	
190.36	7299	
190.57	4197.7	
190.79	4070	
191	6161	
191.22	6104.3	
191.43	4185.4	
191.64	3391.4	
191.86	6249	
192.07	6146.6	
192.29	3616	
192.5	3797.6	
192.71	6034	
192.93	5266	
193.14	3753.2	
193.35	3842.7	
193.57	5239.4	
193.78	6016.9	
194	3009.8	
194.21	3765.5	
194.42	5018.2	
194.64	5500.8	
194.85	4137.6	
195.07	4818.2	
195.28	5556.1	
195.49	4742.4	
195.71	5142.4	
195.92	3573	
196.13	5672.2	
196.35	5788.2	
196.56	5464.7	
196.78	4098	
196.99	7184.3	
197.2	6719.4	
197.42	4723.3	
197.63	4194.2	
197.84	4906.3	
198.06	5744.6	
198.27	3796.9	
198.48	5151.3	
198.7	5195	
198.91	5358.9	
199.13	4124.6	
199.34	4167.6	
199.55	5894.7	
199.77	4803.9	
199.98	3648.1	
200.19	4201.7	
200.41	5425.8	
200.62	5053.7	
200.83	4344.4	
201.05	4713.1	
201.26	5384.8	
201.47	5090.6	
201.69	3702.7	
201.9	3512.9	
202.11	5467.4	
202.33	6569.2	
202.54	3929.4	
202.76	4354.7	
202.97	5612.8	
203.18	5623.7	
203.4	4349.9	
203.61	4220.2	
203.82	5537	
204.04	5135.6	
204.25	4207.9	
204.46	4166.9	
204.68	5517.2	
204.89	5778	
205.1	4070.7	
205.32	3536.8	
205.53	5957.5	
205.74	6142.5	
205.96	2947	
206.17	4192.9	
206.38	5884.5	
206.6	6036.7	
206.81	4796.3	
207.02	3852.2	
207.24	5752.7	
207.45	6122.1	
207.66	4034.5	
207.88	3348.4	
208.09	5722.7	
208.3	5457.2	
208.52	3652.9	
208.73	4052.2	
208.94	5504.9	
209.15	6277	
209.37	3921.2	
209.58	4175.1	
209.79	6087.2	
210.01	5360.9	
210.22	3156.6	
210.43	3330	
210.65	5502.9	
210.86	5995.1	
211.07	3935.5	
211.29	3601.7	
211.5	5896.8	
211.71	5369.1	
211.93	3634.5	
212.14	3661.8	
212.35	5376.6	
212.56	5659.9	
212.78	4187.4	
212.99	3460.4	
213.2	6520.7	
213.42	5306.3	
213.63	3764.8	
213.84	4050.9	
214.06	4889.2	
214.27	4920.6	
214.48	3984.7	
214.69	4225.6	
214.91	6199.9	
215.12	6272.2	
215.33	4275.5	
215.55	4820.2	
215.76	6832	
215.97	5901.6	
216.18	4083.6	
216.4	3982.6	
216.61	5177.9	
216.82	5999.2	
217.04	3657.7	
217.25	3791.5	
217.46	6194.4	
217.67	5899.5	
217.89	3260.4	
218.1	3395.5	
218.31	5571.8	
218.53	5680.4	
218.74	3838.6	
218.95	3766.9	
219.16	5416.2	
219.38	6472.3	
219.59	3758	
219.8	4468.7	
220.01	7130.3	
220.23	5477	
220.44	4896	
220.65	3583.9	
220.87	5517.2	
221.08	6138.4	
221.29	3390.1	
221.5	4562.9	
221.72	7502.4	
221.93	5190.9	
222.14	4223.6	
222.35	4953.4	
222.57	5483.1	
222.78	5903.6	
222.99	3978.5	
223.2	4294.6	
223.42	5805.3	
223.63	5971.2	
223.84	3046.7	
224.05	3041.9	
224.27	7114	
224.48	6460.7	
224.69	4943.8	
224.9	4150.6	
225.12	5688.6	
225.33	5491.3	
225.54	3365.5	
225.75	3713	
225.97	5040.1	
226.18	5347.2	
226.39	3966.9	
226.6	3705.5	
226.82	5268.1	
227.03	5077.6	
227.24	4173.1	
227.45	3451.5	
227.67	5917.3	
227.88	6449.7	
228.09	4652.3	
228.3	4700.8	
228.52	5956.9	
228.73	5463.3	
228.94	3838.6	
229.15	3407.1	
229.36	5418.2	
229.58	5309	
229.79	3893.9	
230	4600.4	
230.21	6586.3	
230.43	5612.8	
230.64	4070	
230.85	4356	
231.06	5954.1	
231.28	5933	
231.49	3406.5	
231.7	4063.2	
231.91	5828.5	
232.12	5574.6	
232.34	3534.1	
232.55	4087.7	
232.76	6136.4	
232.97	5735	
233.18	3670.6	
233.4	4112.3	
233.61	5773.2	
233.82	5251.7	
234.03	3836.5	
234.25	3711.6	
234.46	7699.7	
234.67	5573.2	
234.88	4307.6	
235.09	3732.8	
235.31	5829.9	
235.52	5372.5	
235.73	4120.5	
235.94	3481.5	
236.15	5198.4	
236.37	6725.5	
236.58	3571.7	
236.79	3960.1	
237	5835.3	
237.21	4960.9	
237.43	4251.6	
237.64	3351.8	
237.85	10089	
238.06	5057.8	
238.27	4378.6	
238.48	3456.3	
238.7	5850.4	
238.91	5360.2	
239.12	3874.8	
239.33	4040.6	
239.54	5068.7	
239.76	5406.6	
239.97	3949.8	
240.18	3973.1	
240.39	6914.6	
240.6	5773.9	
240.82	4098	
241.03	3392.1	
241.24	5544.5	
241.45	6417	
241.66	3621.5	
241.87	4294.6	
242.09	6266.8	
242.3	6668.2	
242.51	4367.6	
242.72	3995.6	
242.93	5977.3	
243.14	5430.5	
243.36	4631.1	
243.57	5031.9	
243.78	6378.1	
243.99	5857.9	
244.2	4005.1	
244.41	3630.4	
244.63	5067.4	
244.84	5819	
245.05	4269.3	
245.26	4012	
245.47	5798.5	
245.68	6101.6	
245.9	5284.4	
246.11	4175.8	
246.32	5322.7	
246.53	5706.3	
246.74	6500.3	
246.95	3341.6	
247.16	5023.7	
247.38	5466	
247.59	3323.2	
247.8	3999	
248.01	5202.5	
248.22	5439.4	
248.43	3618.8	
248.64	3896.6	
248.86	4861.9	
249.07	5238.7	
249.28	3508.9	
249.49	4059.8	
249.7	6133.7	
249.91	6281.1	
250.12	3342.3	
250.34	3351.2	
250.55	5586.2	
250.76	5481.7	
250.97	4091.2	
251.18	4170.3	
251.39	6206	
251.6	5701.5	
251.81	4283	
252.03	4203.1	
252.24	5208	
252.45	6049	
252.66	3482.2	
252.87	4435.9	
253.08	5534.3	
253.29	7323.5	
253.5	3514.3	
253.72	4881	
253.93	5330.2	
254.14	6520.7	
254.35	3767.6	
254.56	3932.8	
254.77	5758.2	
254.98	5079.6	
255.19	3743	
255.41	4827.7	
255.62	5588.2	
255.83	6288.6	
256.04	4349.9	
256.25	4200.4	
256.46	6753.5	
256.67	5136.3	
256.88	4164.2	
257.09	4602.5	
257.31	5253	
257.52	5199.1	
257.73	5251	
257.94	3749.1	
258.15	5341.8	
258.36	5527.5	
258.57	4789.5	
258.78	3037.8	
258.99	6089.3	
259.2	5352.7	
259.41	3816.7	
259.63	3937.6	
259.84	6380.1	
260.05	6876.4	
260.26	5070.8	
260.47	3723.2	
260.68	6150.7	
260.89	5431.2	
261.1	4606.6	
261.31	3588.7	
261.52	6078.4	
261.73	6460	
261.95	4932.9	
262.16	4302.1	
262.37	6254.5	
262.58	6428.6	
262.79	4922.6	
263	3822.9	
263.21	5517.9	
263.42	5033.9	
263.63	3938.2	
263.84	3870	
264.05	6072.9	
264.26	6485.9	
264.47	4793.6	
264.69	4270.7	
264.9	6281.8	
265.11	5760.3	
265.32	3687.7	
265.53	3785.3	
265.74	5593.7	
265.95	4853	
266.16	4011.3	
266.37	4541	
266.58	5634	
266.79	5293.3	
267	3760.8	
267.21	3512.9	
267.42	5084.4	
267.63	5517.2	
267.84	4016.1	
268.06	3406.5	
268.27	5948	
268.48	6293.4	
268.69	3853.6	
268.9	4646.2	
269.11	6243.6	
269.32	5025.7	
269.53	3956	
269.74	3688.4	
269.95	5908.4	
270.16	4818.2	
270.37	3988.1	
270.58	4663.2	
270.79	5335	
271	6100.9	
271.21	4275.5	
271.42	4045.4	
271.63	5623.7	
271.84	5143.1	
272.05	3177.8	
272.26	3582.6	
272.47	5556.8	
272.68	5735	
272.89	3843.4	
273.11	4420.2	
273.32	5332.2	
273.53	6473.6	
273.74	4337.6	
273.95	4212.7	
274.16	6193.1	
274.37	5653.1	
274.58	4440.7	
274.79	3442.6	
275	5611.4	
275.21	6309.8	
275.42	5261.9	
275.63	4527.4	
275.84	5771.9	
276.05	7221.1	
276.26	4199	
276.47	3962.8	
276.68	5277.6	
276.89	6535.8	
277.1	4554.7	
277.31	3515.7	
277.52	5824.4	
277.73	5913.2	
277.94	3450.8	
278.15	3832.4	
278.36	5711.1	
278.57	5193	
278.78	3846.1	
278.99	4339	
279.2	5122	
279.41	5081	
279.62	5074.9	
279.83	3532.7	
280.04	6766.5	
280.25	5060.5	
280.46	5005.2	
280.67	4047.5	
280.88	5098.1	
281.09	6257.9	
281.3	4236.6	
281.51	5375.2	
281.72	5249.6	
281.93	6049	
282.14	3749.1	
282.35	4027.7	
282.56	6051.7	
282.77	6032	
282.98	3861.8	
283.19	4733.5	
283.4	7520.1	
283.61	5425.8	
283.82	3505.4	
284.03	5008	
284.24	5626.5	
284.45	6180.1	
284.66	4964.3	
284.87	4774.5	
285.08	6156.2	
285.29	6272.9	
285.5	3423.5	
285.71	3953.9	
285.92	6154.8	
286.12	6867.5	
286.33	4908.3	
286.54	3855	
286.75	6011.5	
286.96	5431.2	
287.17	3580.5	
287.38	4945.8	
287.59	5163.6	
287.8	5042.1	
288.01	3916.4	
288.22	4515.1	
288.43	6100.9	
288.64	5046.9	
288.85	4729.4	
289.06	4440.7	
289.27	5981.4	
289.48	6484.6	
289.69	4952	
289.9	4536.3	
290.11	6288.6	
290.32	5187.5	
290.53	4758.1	
290.74	4264.6	
290.94	5990.3	
291.15	6038.1	
291.36	3818.1	
291.57	4454.3	
291.78	5279.7	
291.99	4942.4	
292.2	3536.2	
292.41	4346.5	
292.62	6102.3	
292.83	5898.1	
293.04	5369.1	
293.25	3581.9	
293.46	5254.4	
293.67	6158.9	
293.88	3736.9	
294.09	3575.8	
294.29	5085.1	
294.5	5696.8	
294.71	4036.5	
294.92	3855	
295.13	5274.2	
295.34	6671.6	
295.55	3352.5	
295.76	3424.9	
295.97	5908.4	
296.18	6741.2	
296.39	3521.8	
296.6	3758.7	
296.81	5607.3	
297.01	5980.8	
297.22	3916.4	
297.43	3765.5	
297.64	5126.1	
297.85	5128.1	
298.06	3041.2	
298.27	3355.9	
298.48	5598.5	
298.69	5212.8	
298.9	4085	
299.11	3676.8	
299.31	5013.4	
299.52	5085.1	
299.73	4313	
299.94	4223.6	
300.15	5550	
300.36	5095.3	
300.57	4320.5	
300.78	4244.8	
300.99	5382.7	
301.2	5650.3	
301.4	3730.7	
301.61	4065.9	
301.82	5907	
302.03	6021	
302.24	4621.6	
302.45	3512.3	
302.66	5843.5	
302.87	6313.9	
303.08	3760.1	
303.29	5100.8	
303.49	5272.2	
303.7	5558.9	
303.91	3303.4	
304.12	4864.6	
304.33	4969.7	
304.54	5602.6	
304.75	3762.1	
304.96	3630.4	
305.16	5877.7	
305.37	6624.5	
305.58	3259	
305.79	3390.1	
306	5829.9	
306.21	4937.7	
306.42	3793.5	
306.63	5748	
306.83	5351.3	
307.04	6176.7	
307.25	4104.8	
307.46	4129.4	
307.67	4694.6	
307.88	6024.4	
308.09	3628.3	
308.29	3838.6	
308.5	5608.7	
308.71	6174.6	
308.92	4031.8	
309.13	3566.9	
309.34	5359.5	
309.55	5398.4	
309.75	4655.7	
309.96	4251.6	
310.17	5954.8	
310.38	5216.9	
310.59	4463.2	
310.8	4164.9	
311.01	5368.4	
311.21	5390.3	
311.42	3530.7	
311.63	3678.8	
311.84	5224.4	
312.05	5703.6	
312.26	4122.6	
312.46	4624.3	
312.67	5366.4	
312.88	5087.8	
313.09	3619.4	
313.3	3494.5	
313.51	6356.2	
313.71	6727.6	
313.92	3568.2	
314.13	3822.9	
314.34	5665.4	
314.55	5379.3	
314.76	4698	
314.96	4074.8	
315.17	5560.9	
315.38	6095.4	
315.59	3616.7	
315.8	3468.6	
316.01	6479.1	
316.21	6421.7	
316.42	3493.8	
316.63	4044.1	
316.84	5434.6	
317.05	6255.9	
317.26	4246.8	
317.46	3834.5	
317.67	5473.5	
317.88	5984.2	
318.09	4606.6	
318.3	3348.4	
318.5	5210.7	
318.71	5877.7	
318.92	6010.8	
319.13	4238.6	
319.34	6086.6	
319.54	6229.2	
319.75	3417.4	
319.96	3196.2	
320.17	5920	
320.38	6150.7	
320.58	3327.3	
320.79	4008.6	
321	6109.8	
321.21	6208.8	
321.42	4032.5	
321.62	3273.3	
321.83	5083.7	
322.04	5558.2	
322.25	3882.9	
322.46	3661.1	
322.66	5636	
322.87	5831.9	
323.08	4460.5	
323.29	3596.9	
323.5	6647	
323.7	5031.9	
323.91	4979.3	
324.12	4476.9	
324.33	5625.1	
324.53	5847.6	
324.74	4270.7	
324.95	4514.4	
325.16	4878.3	
325.37	5339.7	
325.57	3587.4	
325.78	3768.9	
325.99	5563	
326.2	5042.8	
326.4	5134.3	
326.61	3382.6	
326.82	5429.8	
327.03	5610.1	
327.24	5171.1	
327.44	4947.2	
327.65	5847	
327.86	4669.4	
328.07	4273.4	
328.27	3450.1	
328.48	6230.6	
328.69	5102.9	
328.9	5298.1	
329.1	3909.6	
329.31	5424.4	
329.52	6380.8	
329.73	3627	
329.93	4082.3	
330.14	5513.1	
330.35	5779.4	
330.56	6029.9	
330.76	4536.9	
330.97	5360.9	
331.18	5788.2	
331.39	4061.8	
331.59	3259.7	
331.8	6127.5	
332.01	6286.6	
332.22	3734.1	
332.42	4308.9	
332.63	5636.7	
332.84	5244.2	
333.05	4065.2	
333.25	3689.1	
333.46	5294.7	
333.67	5542.5	
333.88	3807.9	
334.08	4233.2	
334.29	7634.8	
334.5	6255.9	
334.7	3523.9	
334.91	5251.7	
335.12	5129.5	
335.33	5946.6	
335.53	4021.5	
335.74	6067.4	
335.95	5332.9	
336.16	5158.2	
336.36	4104.8	
336.57	4632.5	
336.78	5030.5	
336.98	6167.1	
337.19	4998.4	
337.4	4026.3	
337.61	6711.9	
337.81	5046.2	
338.02	3736.9	
338.23	4827.7	
338.43	6266.1	
338.64	5156.1	
338.85	3707.5	
339.05	4784.7	
339.26	6444.3	
339.47	4952	
339.68	3616	
339.88	5384.8	
340.09	5791.7	
340.3	6060.6	
340.5	4244.1	
340.71	3282.2	
340.92	4961.5	
341.13	6323.4	
341.33	3581.2	
341.54	4332.8	
341.75	5791.7	
341.95	5411.4	
342.16	4113.7	
342.37	4459.1	
342.57	5050.3	
342.78	5547.9	
342.99	4543.8	
343.19	3317	
343.4	6015.6	
343.61	5849	
343.81	3873.4	
344.02	3571.7	
344.23	5961.6	
344.43	6378.7	
344.64	4524.6	
344.85	4437.3	
345.06	5849	
345.26	6176.7	
345.47	4224.3	
345.68	5004.6	
345.88	4863.9	
346.09	6054.5	
346.3	4343.1	
346.5	3270.6	
346.71	5561.6	
346.92	5222.3	
347.12	3346.4	
347.33	4203.8	
347.54	6154.1	
347.74	6548	
347.95	4242.7	
348.16	3087.7	
348.36	5316.5	
348.57	5133.6	
348.78	4151.9	
348.98	4536.9	
349.19	5536.3	
349.39	4974.5	
349.6	3276.1	
349.81	3704.1	
350.01	5791.7	
350.22	5268.1	
350.43	4052.9	
350.63	4923.3	
350.84	5569.8	
351.05	5356.1	
351.25	3617.4	
351.46	3313.6	
351.67	6102.9	
351.87	5184.8	
352.08	3930.7	
352.29	4519.9	
352.49	6039.5	
352.7	5718.6	
352.9	3534.1	
353.11	4459.8	
353.32	6748.1	
353.52	5339.7	
353.73	3544.4	
353.94	4499.4	
354.14	5871.5	
354.35	5758.2	
354.55	3655.6	
354.76	4072	
354.97	5795.8	
355.17	5598.5	
355.38	3434.4	
355.59	4814.8	
355.79	5241.4	
356	5708.4	
356.2	4067.9	
356.41	3547.1	
356.62	4943.1	
356.82	5451.7	
357.03	4362.9	
357.24	3863.8	
357.44	5301.5	
357.65	5348.6	
357.85	5178.6	
358.06	4037.9	
358.27	5006.6	
358.47	5170.4	
358.68	3403.7	
358.88	4371	
359.09	5803.3	
359.3	6192.4	
359.5	5055.1	
359.71	4440	
359.91	6763.1	
360.12	6028.5	
360.33	4323.9	
360.53	4783.4	
360.74	5272.2	
360.94	5268.1	
361.15	4548.5	
361.36	3736.9	
361.56	6117.3	
361.77	5451	
361.97	5053	
362.18	3949.8	
362.38	6157.6	
362.59	5156.8	
362.8	3672.7	
363	3439.2	
363.21	4937	
363.41	5601.9	
363.62	4261.8	
363.83	5311.1	
364.03	5639.4	
364.24	6776	
364.44	5372.5	
364.65	5218.2	
364.85	5416.2	
365.06	5016.2	
365.27	3876.8	
365.47	3822.2	
365.68	6510.5	
365.88	5404.6	
366.09	4199	
366.29	3885.7	
366.5	5766.4	
366.71	6126.8	
366.91	5255.1	
367.12	4444.8	
367.32	6749.4	
367.53	6001.9	
367.73	4345.8	
367.94	5399.8	
368.14	5888.6	
368.35	6916	
368.56	4345.1	
368.76	3772.4	
368.97	6019.7	
369.17	7828	
369.38	3850.9	
369.58	4124.6	
369.79	5000.5	
369.99	6407.4	
370.2	5216.9	
370.4	4196.3	
370.61	5737.7	
370.82	6928.3	
371.02	4115.1	
371.23	3371	
371.43	4975.2	
371.64	6362.4	
371.84	4108.2	
372.05	5473.5	
372.25	7737.2	
372.46	6135.7	
372.66	4115.1	
372.87	4065.9	
373.07	6107.7	
373.28	7767.3	
373.48	5170.4	
373.69	4889.2	
373.9	5557.5	
374.1	5663.3	
374.31	5114.5	
374.51	4694.6	
374.72	6490	
374.92	5156.1	
375.13	5382.1	
375.33	4401.8	
375.54	6055.2	
375.74	5394.3	
375.95	4564.9	
376.15	5905.7	
376.36	6012.8	
376.56	5807.4	
376.77	4622.3	
376.97	5059.2	
377.18	7182.9	
377.38	6082.5	
377.59	5459.2	
377.79	4065.2	
378	5892.7	
378.2	6345.3	
378.41	4144.4	
378.61	4020.2	
378.82	6402.6	
379.02	5468.1	
379.23	4264.6	
379.43	5490.6	
379.64	6421.7	
379.84	6054.5	
380.05	4121.9	
380.25	4038.6	
380.46	6098.9	
380.66	5766.4	
380.87	5496.7	
381.07	5862	
381.28	6842.3	
381.48	6171.2	
381.69	4121.2	
381.89	4137.6	
382.1	5021.6	
382.3	6354.2	
382.51	5304.2	
382.71	6274.3	
382.91	6210.8	
383.12	6758.3	
383.32	4529.4	
383.53	4726	
383.73	5986.2	
383.94	5776.6	
384.14	4666	
384.35	3692.5	
384.55	5732.9	
384.76	6204.7	
384.96	4487.1	
385.17	4810.7	
385.37	6128.2	
385.58	5390.9	
385.78	4915.1	
385.98	3579.8	
386.19	5609.4	
386.39	6013.5	
386.6	4287.8	
386.8	4554.7	
387.01	6184.2	
387.21	6172.6	
387.42	5033.9	
387.62	5611.4	
387.83	5401.2	
388.03	6207.4	
388.23	4556	
388.44	5479	
388.64	5137.7	
388.85	5247.6	
389.05	4959.5	
389.26	5608	
389.46	7175.4	
389.67	6619.7	
389.87	4891.9	
390.07	4997	
390.28	5808	
390.48	5333.6	
390.69	4138.3	
390.89	4446.1	
391.1	5523.4	
391.3	6565.8	
391.5	5745.9	
391.71	6345.3	
391.91	6280.4	
392.12	7383.6	
392.32	5812.1	
392.53	4910.3	
392.73	5588.9	
392.93	5845.6	
393.14	4601.8	
393.34	5459.9	
393.55	6313.2	
393.75	5732.9	
393.95	4534.2	
394.16	4584	
394.36	5500.2	
394.57	6251.1	
394.77	4012	
394.98	4536.3	
395.18	5515.9	
395.38	5631.9	
395.59	5504.3	
395.79	4309.6	
396	5625.8	
396.2	6186.9	
396.4	5375.9	
396.61	5083.7	
396.81	6400.6	
397.02	5611.4	
397.22	5445.5	
397.42	5496.1	
397.63	6396.5	
397.83	5461.2	
398.04	4250.2	
398.24	4825.7	
398.44	6086.6	
398.65	5177.3	
398.85	4090.5	
399.05	4271.4	
399.26	5510.4	
399.46	7348.1	
399.67	4685.1	
399.87	4373.1	
400.07	5870.8	
400.28	6236.7	
400.48	4443.4	
400.69	5594.4	
400.89	6517.3	
401.09	6973.3	
401.3	4340.3	
401.5	5561.6	
401.7	7286	
401.91	7448.5	
402.11	4686.4	
402.32	4860.5	
402.52	6429.3	
402.72	6355.5	
402.93	5030.5	
403.13	3822.9	
403.33	7163.1	
403.54	5803.9	
403.74	4743.8	
403.94	5726.1	
404.15	5976	
404.35	7204.8	
404.56	4660.5	
404.76	6577.4	
404.96	6480.5	
405.17	6257.2	
405.37	6151.4	
405.57	5132.2	
405.78	6451.1	
405.98	5955.5	
406.18	4519.2	
406.39	5539.1	
406.59	6434	
406.79	6023.8	
407	4300.7	
407.2	4485.7	
407.4	6468.2	
407.61	6764.4	
407.81	4562.9	
408.01	6759.7	
408.22	5543.2	
408.42	7557.7	
408.62	5711.8	
408.83	5102.2	
409.03	6080.4	
409.23	5890.6	
409.44	5229.1	
409.64	5586.2	
409.84	7102.4	
410.05	6933.1	
410.25	5311.7	
410.45	5096	
410.66	6412.2	
410.86	8987.9	
411.06	5513.1	
411.27	5386.2	
411.47	8915.5	
411.67	6588.3	
411.88	5655.1	
412.08	5896.1	
412.28	7296.2	
412.49	7827.3	
412.69	5374.6	
412.89	5373.9	
413.09	7593.2	
413.3	7390.4	
413.5	5483.8	
413.7	5020.3	
413.91	6633.4	
414.11	7523.6	
414.31	5265.3	
414.52	5795.8	
414.72	7233.4	
414.92	7137.2	
415.12	5295.4	
415.33	5873.6	
415.53	7542.7	
415.73	7736.5	
415.94	6253.1	
416.14	5563	
416.34	6465.4	
416.55	6239.5	
416.75	6931.7	
416.95	6217	
417.15	7530.4	
417.36	8227.4	
417.56	7081.2	
417.76	6126.8	
417.97	7931.8	
418.17	7618.4	
418.37	5644.2	
418.57	5666.7	
418.78	7253.2	
418.98	6944.7	
419.18	6614.3	
419.38	6466.8	
419.59	7005.4	
419.79	6557.6	
419.99	5542.5	
420.2	5951.4	
420.4	7574.1	
420.6	7791.8	
420.8	5423	
421.01	5276.9	
421.21	7308.5	
421.41	7544	
421.61	5890.6	
421.82	5494	
422.02	6825.2	
422.22	7766.6	
422.42	6317.3	
422.63	5955.5	
422.83	6940.6	
423.03	8242.4	
423.23	5980.8	
423.44	4949.9	
423.64	6959.7	
423.84	6772.6	
424.04	5463.3	
424.25	5085.8	
424.45	8027.4	
424.65	7973.4	
424.85	4892.6	
425.06	5556.8	
425.26	7881.3	
425.46	6298.9	
425.66	5993	
425.87	5738.4	
426.07	7709.2	
426.27	7499.7	
426.47	5784.1	
426.67	5172.5	
426.88	8055.3	
427.08	7443.7	
427.28	6173.3	
427.48	5115.1	
427.69	6294.8	
427.89	7004.7	
428.09	6051.1	
428.29	5195	
428.5	7686.7	
428.7	7249.1	
428.9	5007.3	
429.1	5655.1	
429.3	7139.2	
429.51	7623.9	
429.71	5365	
429.91	6168.5	
430.11	7456	
430.31	7716.7	
430.52	5674.2	
430.72	6013.5	
430.92	8017.8	
431.12	7449.8	
431.32	5276.9	
431.53	5730.2	
431.73	6318.7	
431.93	8145.5	
432.13	5232.6	
432.33	5094	
432.54	6828.6	
432.74	7256	
432.94	5072.1	
433.14	6117.3	
433.34	7395.2	
433.55	6861.4	
433.75	6109.1	
433.95	8021.2	
434.15	7167.2	
434.35	6890.7	
434.56	5307	
434.76	4752	
434.96	7213.6	
435.16	7424.6	
435.36	5149.3	
435.56	6239.5	
435.77	6812.2	
435.97	6986.3	
436.17	7118.1	
436.37	6272.9	
436.57	6844.3	
436.78	6677.1	
436.98	8143.4	
437.18	6896.2	
437.38	7418.4	
437.58	6959.7	
437.78	7082.6	
437.99	5546.6	
438.19	7513.3	
438.39	8226.7	
438.59	5497.4	
438.79	4902.8	
438.99	8117.5	
439.2	6973.3	
439.4	5209.3	
439.6	5120.6	
439.8	7425.9	
440	8487.5	
440.2	6315.9	
440.4	6404.7	
440.61	7710.6	
440.81	8273.8	
441.01	5365	
441.21	6356.9	
441.41	8160.5	
441.61	7724.9	
441.81	6485.2	
442.02	7621.9	
442.22	8596	
442.42	7860.8	
442.62	5402.5	
442.82	5417.6	
443.02	8114.7	
443.22	7202.7	
443.43	5838.8	
443.63	5408.7	
443.83	7019.1	
444.03	7074.4	
444.23	6648.4	
444.43	6239.5	
444.63	7333.1	
444.83	8748.2	
445.04	5441.5	
445.24	6824.5	
445.44	7732.4	
445.64	7856.7	
445.84	6299.6	
446.04	6348.7	
446.24	7056.6	
446.44	8043.1	
446.65	5481	
446.85	5894.7	
447.05	7101.7	
447.25	8163.2	
447.45	6026.5	
447.65	5272.8	
447.85	7374.1	
448.05	7041.6	
448.25	6464.8	
448.46	6149.4	
448.66	7425.9	
448.86	7060.7	
449.06	5145.2	
449.26	6448.4	
449.46	7744.1	
449.66	6749.4	
449.86	5862	
450.06	5821.7	
450.26	6940.6	
450.47	7486	
450.67	6126.8	
450.87	6542.6	
451.07	7642.3	
451.27	7447.8	
451.47	5453.7	
451.67	6073.6	
451.87	7040.9	
452.07	8266.3	
452.27	5668.1	
452.47	5594.4	
452.67	7354.3	
452.88	7853.3	
453.08	5033.9	
453.28	7073	
453.48	8620.6	
453.68	7343.3	
453.88	5524.7	
454.08	5894.7	
454.28	7819.1	
454.48	7352.2	
454.68	6402	
454.88	7037.5	
455.08	7827.3	
455.28	7574.8	
455.48	5391.6	
455.68	6015.6	
455.89	8283.4	
456.09	7953.6	
456.29	5787.6	
456.49	5925.5	
456.69	8224	
456.89	7398.6	
457.09	6405.4	
457.29	6791.7	
457.49	7827.3	
457.69	7950.2	
457.89	6192.4	
458.09	5567.1	
458.29	7501	
458.49	8245.8	
458.69	6613.6	
458.89	6023.1	
459.09	8530.5	
459.29	8600.1	
459.49	6087.2	
459.69	6974	
459.9	8040.3	
460.1	7528.3	
460.3	5986.9	
460.5	5776	
460.7	8022.6	
460.9	7690.8	
461.1	5431.9	
461.3	6875.7	
461.5	8667.7	
461.7	8230.8	
461.9	5879.7	
462.1	6338.5	
462.3	7684	
462.5	8359.8	
462.7	5965.7	
462.9	6134.3	
463.1	9461.6	
463.3	9033.6	
463.5	6281.8	
463.7	7290.1	
463.9	7894.9	
464.1	8378.2	
464.3	6304.3	
464.5	6646.3	
464.7	8629.5	
464.9	8161.2	
465.1	8068.3	
465.3	6918.7	
465.5	8994	
465.7	9024	
465.9	7286.7	
466.1	7062.1	
466.3	8751.7	
466.5	8502.5	
466.7	8028	
466.9	6698.9	
467.1	8424	
467.3	9500.5	
467.5	7907.9	
467.7	6679.8	
467.9	9655.5	
468.1	10570	
468.3	7563.1	
468.5	7976.8	
468.7	8413.7	
468.9	8393.9	
469.1	6981.5	
469.3	7664.2	
469.5	10484	
469.7	7947.5	
469.9	7471.7	
470.1	6650.4	
470.3	8419.9	
470.5	8388.5	
470.7	7999.4	
470.9	6776.7	
471.1	8129.8	
471.3	8611.7	
471.5	6518	
471.69	8612.4	
471.89	8042.4	
472.09	7585	
472.29	7447.1	
472.49	7848.5	
472.69	7843	
472.89	8594	
473.09	6377.4	
473.29	6671.6	
473.49	7913.4	
473.69	8157.1	
473.89	7758.4	
474.09	6836.1	
474.29	9433.6	
474.49	9152.4	
474.69	7555	
474.89	6927.6	
475.09	8157.7	
475.29	8086.1	
475.49	6258.6	
475.69	6579.4	
475.88	9729.9	
476.08	8456.1	
476.28	6220.4	
476.48	6734.4	
476.68	8850	
476.88	8783.1	
477.08	6541.2	
477.28	6909.2	
477.48	8155	
477.68	8975.6	
477.88	6465.4	
478.08	6808.8	
478.28	9236.3	
478.48	8366	
478.67	6802.7	
478.87	6229.9	
479.07	9024	
479.27	8400.1	
479.47	7020.4	
479.67	6966.5	
479.87	8838.4	
480.07	9430.2	
480.27	6236.7	
480.47	7955.7	
480.67	8413.7	
480.87	9073.9	
481.06	6537.1	
481.26	7490.1	
481.46	8424	
481.66	8363.2	
481.86	7060	
482.06	8063.5	
482.26	8120.2	
482.46	9141.4	
482.66	6991.1	
482.86	6499.6	
483.05	8433.5	
483.25	7884.7	
483.45	9564	
483.65	6992.4	
483.85	8048.5	
484.05	8409.6	
484.25	7355.6	
484.45	7941.3	
484.65	9320.3	
484.84	9308.7	
485.04	6854.6	
485.24	6854.6	
485.44	9535.3	
485.64	7798	
485.84	6090	
486.04	7628	
486.24	8172.8	
486.44	8574.2	
486.63	6086.6	
486.83	6907.8	
487.03	8004.1	
487.23	8271.1	
487.43	6231.3	
487.63	8672.5	
487.83	8386.4	
488.02	9330.5	
488.22	7191.1	
488.42	7817.1	
488.62	9177.6	
488.82	8126.3	
489.02	6838.9	
489.22	6905.8	
489.41	9202.2	
489.61	8720.3	
489.81	6560.3	
490.01	6553.5	
490.21	8966	
490.41	9665.7	
490.61	6527.6	
490.8	6673	
491	8417.8	
491.2	7649.8	
491.4	7244.3	
491.6	6290	
491.8	8432.2	
491.99	8600.8	
492.19	6171.9	
492.39	6653.9	
492.59	9220.6	
492.79	9185.1	
492.99	7535.2	
493.18	6599.2	
493.38	9245.9	
493.58	9971.6	
493.78	7324.9	
493.98	6906.4	
494.18	8834.3	
494.37	8294.3	
494.57	7533.1	
494.77	7521.5	
494.97	9088.2	
495.17	9454.8	
495.37	6980.8	
495.56	7250.5	
495.76	9566.7	
495.96	9094.3	
496.16	8282	
496.36	7141.9	
496.55	9252.7	
496.75	8811.7	
496.95	7457.3	
497.15	7418.4	
497.35	9253.4	
497.54	9334	
497.74	7043	
497.94	9066.4	
498.14	10095	
498.34	9785.2	
498.53	6918.7	
498.73	7748.1	
498.93	8684.1	
499.13	9310.7	
499.33	7464.2	
499.52	7925.6	
499.72	9218.6	
499.92	9645.3	
500.12	7193.8	
500.32	7396.6	
500.51	9456.8	
500.71	9258.2	
500.91	8239	
501.11	7879.2	
501.31	9317.6	
501.5	9928.6	
501.7	8602.2	
501.9	7380.9	
502.1	9164	
502.29	9471.2	
502.49	7955.7	
502.69	8426.7	
502.89	9351.7	
503.09	9263	
503.28	6856.6	
503.48	6994.5	
503.68	8483.4	
503.88	8602.8	
504.07	8122.2	
504.27	7428.7	
504.47	8941.4	
504.67	9121.7	
504.86	7924.3	
505.06	7658.7	
505.26	8574.8	
505.46	10637	
505.65	7491.5	
505.85	7622.5	
506.05	8559.1	
506.25	9113.5	
506.44	6789	
506.64	7828.7	
506.84	8542.1	
507.04	9566.7	
507.23	6989	
507.43	7671	
507.63	10645	
507.83	8745.5	
508.02	7563.8	
508.22	7161.7	
508.42	10855	
508.62	8452.6	
508.81	7432.8	
509.01	7972.7	
509.21	8310	
509.4	8609	
509.6	7811	
509.8	7005.4	
510	8727.8	
510.19	10158	
510.39	7017.7	
510.59	7086	
510.79	8430.1	
510.98	9879.4	
511.18	7043	
511.38	7204.8	
511.57	9266.4	
511.77	9232.2	
511.97	7926.3	
512.17	6838.2	
512.36	9260.2	
512.56	9210.4	
512.76	6944.7	
512.95	6713.2	
513.15	9405	
513.35	7940.7	
513.55	7940	
513.74	6909.2	
513.94	9403.6	
514.14	8660.2	
514.33	8000.7	
514.53	7650.5	
514.73	8636.3	
514.92	8861.6	
515.12	7184.3	
515.32	6937.8	
515.51	8942.1	
515.71	9521	
515.91	8779	
516.11	6982.9	
516.3	10623	
516.5	8535.9	
516.7	7677.8	
516.89	8278.6	
517.09	8615.8	
517.29	8396.7	
517.48	7929.1	
517.68	7208.2	
517.88	8316.1	
518.07	8991.3	
518.27	7871	
518.47	6736.5	
518.66	9602.9	
518.86	8073.1	
519.06	6659.3	
519.25	7147.4	
519.45	8572.1	
519.65	10071	
519.84	7806.2	
520.04	8547.5	
520.24	10413	
520.43	9207.7	
520.63	7415.7	
520.83	7082.6	
521.02	8233.5	
521.22	8980.3	
521.42	7750.2	
521.61	8305.9	
521.81	8583.7	
522.01	8804.2	
522.2	7542	
522.4	7423.2	
522.6	9272.5	
522.79	8078.6	
522.99	7409.6	
523.18	6748.1	
523.38	8961.2	
523.58	9010.4	
523.77	8718.9	
523.97	6733.7	
524.17	10899	
524.36	9980.4	
524.56	8138.6	
524.76	7733.8	
524.95	8987.2	
525.15	8562.6	
525.34	7434.8	
525.54	7549.5	
525.74	9360.6	
525.93	8339.3	
526.13	8791.9	
526.33	7475.1	
526.52	9626.8	
526.72	9091.6	
526.91	8757.1	
527.11	7936.6	
527.31	9740.8	
527.5	10268	
527.7	7847.1	
527.89	6815	
528.09	8538.7	
528.29	9195.4	
528.48	8359.8	
528.68	7946.1	
528.87	9555.8	
529.07	9624.1	
529.27	7774.8	
529.46	7294.2	
529.66	9165.3	
529.85	9549.7	
530.05	7030.7	
530.25	7898.3	
530.44	10592	
530.64	9069.1	
530.83	7494.2	
531.03	7794.6	
531.23	9571.5	
531.42	9445.9	
531.62	8692.3	
531.81	7659.4	
532.01	9656.2	
532.21	10142	
532.4	7541.3	
532.6	7867.6	
532.79	10686	
532.99	9811.8	
533.18	7806.9	
533.38	8933.9	
533.58	9226.1	
533.77	10056	
533.97	7874.4	
534.16	8764.6	
534.36	10224	
534.55	9208.4	
534.75	8819.9	
534.95	7920.2	
535.14	10082	
535.34	9185.8	
535.53	7424.6	
535.73	9604.3	
535.92	10572	
536.12	9332.6	
536.31	7563.1	
536.51	8760.5	
536.71	9708.1	
536.9	9277.3	
537.1	7771.4	
537.29	7985.7	
537.49	10164	
537.68	9140.8	
537.88	8319.5	
538.07	7537.2	
538.27	9335.3	
538.46	10507	
538.66	7382.2	
538.86	7873.8	
539.05	9443.2	
539.25	9940.8	
539.44	8065.6	
539.64	7700.4	
539.83	9200.2	
540.03	10387	
540.22	7542.7	
540.42	7668.3	
540.61	9626.8	
540.81	9573.6	
541	8288.1	
541.2	8919.6	
541.39	9052.7	
541.59	9424.1	
541.78	8499.8	
541.98	7523.6	
542.18	8708	
542.37	8559.1	
542.57	7917.4	
542.76	8428.8	
542.96	8680.7	
543.15	9499.2	
543.35	7933.8	
543.54	7267.6	
543.74	9765.4	
543.93	9357.2	
544.13	7832.1	
544.32	9125.1	
544.52	9604.3	
544.71	8826.1	
544.91	6993.8	
545.1	8394.6	
545.3	8910.7	
545.49	9668.5	
545.69	6869.6	
545.88	7589.1	
546.08	10589	
546.27	10181	
546.47	8039	
546.66	7406.8	
546.86	9836.4	
547.05	10601	
547.24	7626.6	
547.44	7422.5	
547.63	8680	
547.83	9918.3	
548.02	7901.7	
548.22	8034.2	
548.41	8587.8	
548.61	9961.3	
548.8	7387.7	
549	7294.2	
549.19	9192	
549.39	9519	
549.58	7077.1	
549.78	7612.3	
549.97	9605	
550.17	9107.3	
550.36	8422.6	
550.55	9670.5	
550.75	9049.3	
550.94	10046	
551.14	7249.1	
551.33	7757	
551.53	8314.8	
551.72	9493	
551.92	7765.2	
552.11	7406.1	
552.31	9521	
552.5	9448	
552.69	9289.6	
552.89	7143.3	
553.08	9467.1	
553.28	9071.1	
553.47	7492.2	
553.67	8606.9	
553.86	10180	
554.06	8304.5	
554.25	6625.9	
554.44	7206.1	
554.64	10851	
554.83	10347	
555.03	7140.6	
555.22	7577.5	
555.42	9577.7	
555.61	9222.7	
555.8	7339.2	
556	7713.3	
556.19	8376.2	
556.39	9802.9	
556.58	7539.3	
556.78	7425.3	
556.97	9206.3	
557.16	8834.9	
557.36	8828.8	
557.55	6982.2	
557.75	8189.8	
557.94	9977.7	
558.13	7159	
558.33	6890.7	
558.52	9746.3	
558.72	8526.4	
558.91	7132.4	
559.1	7358.4	
559.3	8275.2	
559.49	7978.9	
559.69	6533	
559.88	7714.7	
560.07	9141.4	
560.27	9536	
560.46	7844.4	
560.66	8084.7	
560.85	8930.5	
561.04	8079.9	
561.24	7022.5	
561.43	7315.3	
561.63	8379.6	
561.82	8516.8	
562.01	8593.3	
562.21	7578.2	
562.4	9064.3	
562.59	10130	
562.79	7449.8	
562.98	7035.5	
563.18	9027.4	
563.37	10577	
563.56	7942	
563.76	6847	
563.95	8438.3	
564.14	8381.7	
564.34	7347.4	
564.53	7140.6	
564.73	8991.9	
564.92	9389.9	
565.11	7542	
565.31	6846.4	
565.5	9597.5	
565.69	8428.8	
565.89	6989.7	
566.08	7356.3	
566.27	9459.6	
566.47	9846.6	
566.66	8039.6	
566.85	6649.1	
567.05	8978.3	
567.24	8387.8	
567.44	6966.5	
567.63	8432.2	
567.82	9243.2	
568.02	9085.5	
568.21	6890	
568.4	7403.4	
568.6	8833.6	
568.79	8862.2	
568.98	6787.7	
569.18	7062.1	
569.37	8882	
569.56	10963	
569.76	7303.7	
569.95	8370.7	
570.14	9267.7	
570.34	9126.4	
570.53	6755.6	
570.72	6827.9	
570.91	9724.4	
571.11	8741.4	
571.3	7326.9	
571.49	8404.2	
571.69	8799.4	
571.88	8409	
572.07	7937.2	
572.27	8006.9	
572.46	8327.7	
572.65	9449.3	
572.85	7056.6	
573.04	7485.3	
573.23	9706.7	
573.43	8847.2	
573.62	6797.2	
573.81	7596.6	
574	8931.2	
574.2	8747.6	
574.39	7192.5	
574.58	7351.5	
574.78	9866.4	
574.97	9079.3	
575.16	7763.8	
575.36	8017.8	
575.55	9470.5	
575.74	9602.2	
575.93	6787	
576.13	7920.9	
576.32	8726.4	
576.51	9413.8	
576.71	7322.2	
576.9	8552.3	
577.09	9709.4	
577.28	9195.4	
577.48	7779.6	
577.67	6739.9	
577.86	8864.3	
578.05	9255.5	
578.25	7454.6	
578.44	7603.4	
578.63	8998.1	
578.83	10281	
579.02	6810.9	
579.21	8379.6	
579.4	9289.6	
579.6	8813.1	
579.79	7600.7	
579.98	9981.8	
580.17	9638.4	
580.37	9559.2	
580.56	7078.5	
580.75	7845.8	
580.94	10140	
581.14	9918.3	
581.33	8302.5	
581.52	7185	
581.71	9433.6	
581.91	10101	
582.1	6822.5	
582.29	7437.5	
582.48	8999.5	
582.68	9062.9	
582.87	7972.1	
583.06	7510.6	
583.25	9324.4	
583.45	8602.2	
583.64	8440.4	
583.83	9082.7	
584.02	8743.5	
584.21	9293	
584.41	8268.3	
584.6	7547.4	
584.79	8913.4	
584.98	9772.9	
585.18	6966.5	
585.37	6926.9	
585.56	8523.6	
585.75	9372.2	
585.94	7174	
586.14	7875.1	
586.33	9943.6	
586.52	8957.1	
586.71	7628	
586.91	7499	
587.1	8341.4	
587.29	9390.6	
587.48	7338.6	
587.67	7240.9	
587.87	9219.3	
588.06	9413.8	
588.25	8649.9	
588.44	7864.9	
588.63	8890.2	
588.83	9476.6	
589.02	7251.2	
589.21	7043.6	
589.4	8581	
589.59	8484.7	
589.78	6369.9	
589.98	6595.1	
590.17	8080.6	
590.36	8690.2	
590.55	6021	
590.74	6907.8	
590.94	10159	
591.13	8613.1	
591.32	6737.8	
591.51	6290	
591.7	9176.9	
591.89	8599.4	
592.09	6411.5	
592.28	6906.4	
592.47	7785	
592.66	9674.6	
592.85	6346.7	
593.05	6577.4	
593.24	8395.3	
593.43	9196.7	
593.62	6658.6	
593.81	7223.9	
594	8434.9	
594.19	8695.7	
594.39	6576.7	
594.58	6507.8	
594.77	8791.9	
594.96	9380.4	
595.15	6420.4	
595.34	7163.1	
595.54	8781	
595.73	7814.4	
595.92	5812.8	
596.11	7084.6	
596.3	9320.3	
596.49	7981.6	
596.68	6858	
596.88	7318.8	
597.07	9069.8	
597.26	7780.9	
597.45	6292.7	
597.64	7565.9	
597.83	8096.3	
598.02	8751.7	
598.22	6350.8	
598.41	7179.5	
598.6	8501.1	
598.79	7894.9	
598.98	6529.6	
599.17	7393.8	
599.36	8588.5	
599.55	9722.4	
599.74	8615.8	
599.94	8345.5	
600.13	9122.3	
600.32	7960.5	
600.51	6229.2	
600.7	6422.4	
600.89	9907.4	
601.08	9757.2	
601.27	6088.6	
601.47	7141.9	
601.66	9054.8	
601.85	9707.4	
602.04	6787	
602.23	7124.9	
602.42	7974.8	
602.61	8737.3	
602.8	6716.7	
602.99	6422.4	
603.18	8366.6	
603.37	8704.5	
603.57	7286	
603.76	7870.3	
603.95	9474.6	
604.14	8911.4	
604.33	6600.6	
604.52	6849.8	
604.71	8610.3	
604.9	8236.9	
605.09	7533.1	
605.28	7315.3	
605.47	9219.3	
605.66	8871.1	
605.86	7240.3	
606.05	6638.1	
606.24	9138.7	
606.43	7644.4	
606.62	6938.5	
606.81	7798	
607	9009	
607.19	8368.7	
607.38	6256.5	
607.57	6556.2	
607.76	8081.3	
607.95	7484.6	
608.14	6943.3	
608.33	7602.7	
608.52	8147.5	
608.72	8863.6	
608.91	6201.2	
609.1	6029.2	
609.29	8148.9	
609.48	7669	
609.67	7176.1	
609.86	6213.5	
610.05	7790.5	
610.24	8073.1	
610.43	6067.4	
610.62	5659.9	
610.81	9394.7	
611	9007	
611.19	6171.9	
611.38	6918	
611.57	8319.5	
611.76	9841.2	
611.95	5957.5	
612.14	5789.6	
612.33	8215.1	
612.52	7682.6	
612.71	6503.7	
612.9	5650.3	
613.09	7339.2	
613.28	9796.1	
613.47	6382.2	
613.66	7277.8	
613.85	8239.7	
614.04	7895.6	
614.24	6315.3	
614.43	5567.1	
614.62	8440.4	
614.81	8391.2	
615	6925.5	
615.19	7008.8	
615.38	7685.3	
615.57	8127	
615.76	6765.1	
615.95	7774.1	
616.14	8528.4	
616.33	8110	
616.52	7124.2	
616.71	7294.2	
616.9	8452	
617.09	8288.1	
617.28	6421.7	
617.47	7970.7	
617.66	7453.9	
617.85	7508.5	
618.04	7359.7	
618.22	6810.2	
618.41	7867.6	
618.6	8774.9	
618.79	6659.3	
618.98	6248.4	
619.17	9138	
619.36	7367.2	
619.55	6476.4	
619.74	6612.2	
619.93	8306.6	
620.12	7748.1	
620.31	7190.4	
620.5	7235.5	
620.69	8989.2	
620.88	9355.1	
621.07	8157.1	
621.26	6962.4	
621.45	8541.4	
621.64	8507.9	
621.83	7051.8	
622.02	6238.1	
622.21	8627.4	
622.4	8239.7	
622.59	7755.7	
622.78	7401.4	
622.97	7801.4	
623.16	8892.3	
623.35	6923.5	
623.54	6110.5	
623.72	8105.9	
623.91	8331.8	
624.1	7297.6	
624.29	5878.4	
624.48	9402.9	
624.67	8591.2	
624.86	7224.6	
625.05	6168.5	
625.24	9506.7	
625.43	7744.7	
625.62	9017.2	
625.81	6322.1	
626	8936.7	
626.19	8114.1	
626.38	7311.2	
626.56	6542.6	
626.75	7983.7	
626.94	8699.8	
627.13	7239.6	
627.32	5847	
627.51	8561.2	
627.7	9987.3	
627.89	6012.8	
628.08	7139.9	
628.27	7759.8	
628.46	7976.8	
628.65	6374	
628.83	5963.7	
629.02	8525	
629.21	7771.4	
629.4	6812.9	
629.59	6941.2	
629.78	7795.3	
629.97	8894.3	
630.16	7107.1	
630.35	6573.3	
630.54	9241.8	
630.72	8905.3	
630.91	6485.2	
631.1	7120.8	
631.29	8383.7	
631.48	8606.9	
631.67	7053.2	
631.86	6575.3	
632.05	7946.1	
632.24	8026.7	
632.42	6256.5	
632.61	6909.2	
632.8	8137.3	
632.99	7715.4	
633.18	6877.8	
633.37	7268.2	
633.56	8357.8	
633.75	8210.3	
633.93	6797.2	
634.12	6522.8	
634.31	9189.9	
634.5	8720.9	
634.69	6572.6	
634.88	7081.2	
635.07	8124.3	
635.25	8864.3	
635.44	7522.9	
635.63	7787.7	
635.82	7921.5	
636.01	7466.2	
636.2	7503.1	
636.39	6962.4	
636.57	9144.2	
636.76	8873.2	
636.95	6350.1	
637.14	7847.8	
637.33	8481.3	
637.52	9564	
637.7	6113.2	
637.89	7068.2	
638.08	7881.9	
638.27	9596.8	
638.46	7219.8	
638.65	7751.6	
638.83	9531.9	
639.02	7819.8	
639.21	7177.4	
639.4	7630	
639.59	8441	
639.78	7934.5	
639.96	6436.8	
640.15	6463.4	
640.34	8101.8	
640.53	8320.9	
640.72	6087.2	
640.91	6369.9	
641.09	7625.3	
641.28	9045.2	
641.47	6400.6	
641.66	7315.3	
641.85	8341.4	
642.03	8584.4	
642.22	7083.2	
642.41	6500.9	
642.6	7736.5	
642.79	7066.9	
642.97	6295.5	
643.16	7031.4	
643.35	7694.9	
643.54	7453.9	
643.73	6177.4	
643.91	7055.3	
644.1	7303.1	
644.29	8030.1	
644.48	6298.9	
644.67	6360.3	
644.85	7552.2	
645.04	7894.9	
645.23	5855.1	
645.42	6170.5	
645.6	7393.8	
645.79	8633.6	
645.98	6220.4	
646.17	5189.6	
646.36	7129	
646.54	7802.8	
646.73	7049.8	
646.92	5804.6	
647.11	7339.2	
647.29	8586.5	
647.48	5845.6	
647.67	5646.9	
647.86	8739.4	
648.05	8759.2	
648.23	6188.3	
648.42	7703.1	
648.61	8146.8	
648.8	7790.5	
648.98	5871.5	
649.17	6277	
649.36	7364.5	
649.55	6924.9	
649.73	5953.4	
649.92	6757.6	
650.11	7262.1	
650.3	7648.5	
650.48	6011.5	
650.67	5770.5	
650.86	7883.3	
651.05	6747.4	
651.23	5909.1	
651.42	5984.2	
651.61	7355.6	
651.79	7534.5	
651.98	6176	
652.17	5807.4	
652.36	7839.6	
652.54	6845	
652.73	5796.4	
652.92	5653.1	
653.11	7817.8	
653.29	7986.4	
653.48	5061.2	
653.67	6157.6	
653.85	7576.8	
654.04	8714.1	
654.23	6380.8	
654.42	5860.6	
654.6	7152.2	
654.79	7793.2	
654.98	5328.8	
655.16	5886.5	
655.35	6704.4	
655.54	6688	
655.73	5442.1	
655.91	5366.4	
656.1	7914	
656.29	6687.3	
656.47	4939	
656.66	6750.8	
656.85	6921.5	
657.03	6978.8	
657.22	5442.8	
657.41	5492.7	
657.59	7045.7	
657.78	6801.3	
657.97	5168.4	
658.16	5987.6	
658.34	7660.1	
658.53	8156.4	
658.72	6847.7	
658.9	7371.3	
659.09	6956.3	
659.28	7211.6	
659.46	5691.3	
659.65	5576.6	
659.84	6905.8	
660.02	7446.4	
660.21	5483.1	
660.4	5377.3	
660.58	7871.7	
660.77	7193.1	
660.96	6071.5	
661.14	5073.5	
661.33	8393.9	
661.52	8318.8	
661.7	5013.4	
661.89	8901.8	
662.08	6808.8	
662.26	6419	
662.45	5296	
662.64	5421	
662.82	7534.5	
663.01	6683.2	
663.2	5410.7	
663.38	6330.3	
663.57	7391.1	
663.75	7375.4	
663.94	5813.5	
664.13	7194.5	
664.31	6771.3	
664.5	7503.8	
664.69	5964.4	
664.87	6696.2	
665.06	6543.9	
665.25	7290.8	
665.43	6888.7	
665.62	7025.2	
665.8	7699.7	
665.99	6946	
666.18	5711.8	
666.36	5854.5	
666.55	7571.3	
666.74	7488.1	
666.92	5381.4	
667.11	7098.9	
667.29	6928.3	
667.48	7575.4	
667.67	6725.5	
667.85	5697.4	
668.04	6988.4	
668.22	6969.2	
668.41	5760.9	
668.6	6006.7	
668.78	6735.1	
668.97	6972.7	
669.15	6253.8	
669.34	5074.2	
669.53	6798.6	
669.71	7109.2	
669.9	5309.7	
670.08	5996.5	
670.27	6810.9	
670.46	7405.5	
670.64	6291.4	
670.83	6442.9	
671.01	6668.9	
671.2	7363.8	
671.38	5341.1	
671.57	5361.6	
671.76	7959.8	
671.94	8602.8	
672.13	5285.1	
672.31	6450.4	
672.5	7486	
672.69	6561	
672.87	5429.8	
673.06	5732.9	
673.24	7366.5	
673.43	6815.6	
673.61	6227.9	
673.8	5685.2	
673.98	7507.9	
674.17	7712	
674.36	6327.5	
674.54	6219.7	
674.73	7277.1	
674.91	7475.8	
675.1	5872.2	
675.28	5511.1	
675.47	6999.3	
675.65	7548.1	
675.84	5715.9	
676.03	6090	
676.21	6741.2	
676.4	6305	
676.58	6479.8	
676.77	6261.3	
676.95	8363.2	
677.14	6764.4	
677.32	5406.6	
677.51	5182	
677.69	7590.5	
677.88	6350.1	
678.06	5228.5	
678.25	5356.8	
678.44	7118.1	
678.62	6739.2	
678.81	4999.8	
678.99	6035.4	
679.18	7873.8	
679.36	7455.3	
679.55	5642.2	
679.73	6264.7	
679.92	7305.8	
680.1	6701	
680.29	6910.5	
680.47	5624.4	
680.66	6655.9	
680.84	7600.7	
681.03	4888.5	
681.21	6013.5	
681.4	6759	
681.58	6566.5	
681.77	5379.3	
681.95	5315.8	
682.14	7626	
682.32	8026.7	
682.51	6377.4	
682.69	5076.9	
682.88	6672.3	
683.06	7383.6	
683.25	5958.9	
683.43	6548.7	
683.62	6948.1	
683.8	7391.8	
683.99	6581.5	
684.17	5758.9	
684.36	8232.8	
684.54	6851.8	
684.73	4988.9	
684.91	5268.7	
685.1	7184.3	
685.28	6599.9	
685.46	5806	
685.65	5961	
685.83	7455.3	
686.02	6946	
686.2	5380	
686.39	5543.9	
686.57	6755.6	
686.76	8155	
686.94	5332.9	
687.13	5513.8	
687.31	7415.7	
687.5	6816.3	
687.68	4881	
687.86	6326.9	
688.05	8603.5	
688.23	6275.7	
688.42	6298.9	
688.6	5371.1	
688.79	6709.8	
688.97	6721.4	
689.16	5837.4	
689.34	4705.5	
689.52	7535.2	
689.71	7659.4	
689.89	6104.3	
690.08	5393	
690.26	6992.4	
690.45	6783.6	
690.63	6305	
690.81	5526.8	
691	6671.6	
691.18	6611.5	
691.37	5699.5	
691.55	7959.1	
691.74	6600.6	
691.92	8697	
692.1	5646.2	
692.29	5019.6	
692.47	6886	
692.66	6113.9	
692.84	5347.9	
693.02	5900.9	
693.21	6178.7	
693.39	6748.1	
693.58	5925.5	
693.76	5391.6	
693.94	8066.9	
694.13	7770.7	
694.31	5311.7	
694.5	6556.2	
694.68	6555.5	
694.86	6858	
695.05	5650.3	
695.23	6069.5	
695.42	7359.7	
695.6	9654.8	
695.78	6299.6	
695.97	5326.8	
696.15	7277.1	
696.34	6619	
696.52	5123.3	
696.7	6032	
696.89	7015.7	
697.07	6393.8	
697.25	5852.4	
697.44	7477.8	
697.62	6955.6	
697.81	7412.3	
697.99	5547.9	
698.17	6023.8	
698.36	6303.6	
698.54	7070.3	
698.72	5871.5	
698.91	4926	
699.09	6613.6	
699.28	6525.5	
699.46	5566.4	
699.64	5423	
699.83	6363	
700.01	7762.5	
700.19	6280.4	
700.38	4664.6	
700.56	7718.8	
700.74	6460.7	
700.93	5067.4	
701.11	5887.2	
701.29	7060.7	
701.48	8132.5	
701.66	5241.4	
701.84	5227.1	
702.03	6563.1	
702.21	7237.5	
702.39	4767	
702.58	5450.3	
702.76	6970.6	
702.94	7074.4	
703.13	4767.7	
703.31	7380.9	
703.49	6257.2	
703.68	7395.2	
703.86	4995	
704.04	6070.2	
704.23	6771.9	
704.41	7234.1	
704.59	5152	
704.78	6538.5	
704.96	7943.4	
705.14	7357.7	
705.33	4931.5	
705.51	5879	
705.69	6584.9	
705.87	7449.1	
706.06	6183.5	
706.24	4902.2	
706.42	6950.8	
706.61	7180.9	
706.79	6180.1	
706.97	4926	
707.16	6291.4	
707.34	6978.8	
707.52	6044.2	
707.7	5101.5	
707.89	6458.6	
708.07	6206.7	
708.25	6079.1	
708.44	6550.1	
708.62	6426.5	
708.8	7673.1	
708.98	6318	
709.17	5145.2	
709.35	6837.5	
709.53	6883.9	
709.72	4865.3	
709.9	5375.9	
710.08	7103.7	
710.26	6970.6	
710.45	6673.6	
710.63	5251	
710.81	6763.1	
710.99	6784.2	
711.18	6019.7	
711.36	5387.5	
711.54	6611.5	
711.72	7382.9	
711.91	5432.6	
712.09	4920.6	
712.27	6788.3	
712.45	7407.5	
712.64	5813.5	
712.82	4663.9	
713	6211.5	
713.18	6446.3	
713.37	4877.6	
713.55	6126.8	
713.73	7344	
713.91	5844.9	
714.1	5238.7	
714.28	4775.2	
714.46	6980.8	
714.64	6159.6	
714.83	4234.5	
715.01	5143.1	
715.19	6305.7	
715.37	5744.6	
715.55	4816.1	
715.74	5082.4	
715.92	7325.6	
716.1	5216.2	
716.28	6339.8	
716.47	5356.8	
716.65	5980.1	
716.83	6114.6	
717.01	5214.8	
717.19	5305.6	
717.38	8315.4	
717.56	5735.7	
717.74	5538.4	
717.92	4590.9	
718.1	7072.3	
718.29	6234.7	
718.47	4158.7	
718.65	4898.1	
718.83	6847	
719.01	6770.6	
719.2	3914.4	
719.38	5070.8	
719.56	6410.8	
719.74	8010.3	
719.92	4615.4	
720.11	5722	
720.29	6470.2	
720.47	5597.1	
720.65	4232.5	
720.83	5068	
721.02	5972.6	
721.2	5694	
721.38	5186.8	
721.56	4401.8	
721.74	5244.8	
721.92	5490.6	
722.11	5758.2	
722.29	5346.6	
722.47	6793.1	
722.65	5953.4	
722.83	4482.3	
723.01	5517.2	
723.2	6002.6	
723.38	6272.9	
723.56	3848.8	
723.74	5187.5	
723.92	5507.7	
724.1	6782.9	
724.29	4402.5	
724.47	5596.4	
724.65	5477.6	
724.83	5483.1	
725.01	4278.2	
725.19	5233.2	
725.37	5522	
725.56	5622.4	
725.74	4144.4	
725.92	4364.9	
726.1	5431.9	
726.28	5808	
726.46	4887.8	
726.64	4531.5	
726.83	5748.6	
727.01	6074.3	
727.19	4057.7	
727.37	5006.6	
727.55	5941.8	
727.73	6449.7	
727.91	4089.8	
728.09	3877.5	
728.28	6438.1	
728.46	7185.6	
728.64	5105.6	
728.82	4991.6	
729	7598.6	
729.18	6748.7	
729.36	4218.1	
729.54	6767.2	
729.72	7825.3	
729.91	6006.7	
730.09	6238.8	
730.27	4820.2	
730.45	5887.2	
730.63	6591	
730.81	5498.1	
730.99	4502.8	
731.17	7079.1	
731.35	5627.8	
731.53	5064.6	
731.71	4670.7	
731.9	6750.1	
732.08	7047.1	
732.26	4942.4	
732.44	4573.8	
732.62	7101.7	
732.8	6522.1	
732.98	5354.8	
733.16	4363.5	
733.34	6562.4	
733.52	5239.4	
733.7	4947.9	
733.88	5223	
734.07	6371.9	
734.25	6109.8	
734.43	4341.7	
734.61	6037.4	
734.79	7678.5	
734.97	5934.3	
735.15	4541	
735.33	4870.1	
735.51	6441.5	
735.69	6012.2	
735.87	6067.4	
736.05	5132.9	
736.23	6221	
736.41	5937.7	
736.59	4928.1	
736.77	5058.5	
736.95	6700.3	
737.13	6059.9	
737.32	4584	
737.5	4754	
737.68	7264.1	
737.86	5999.9	
738.04	4354.7	
738.22	6310.5	
738.4	5779.4	
738.58	6123.4	
738.76	5121.3	
738.94	3864.5	
739.12	5912.5	
739.3	5769.8	
739.48	5708.4	
739.66	5387.5	
739.84	6193.1	
740.02	6199.2	
740.2	4050.9	
740.38	4364.2	
740.56	6612.2	
740.74	5411.4	
740.92	5113.1	
741.1	5094.7	
741.28	6019	
741.46	5844.9	
741.64	4625	
741.82	5212.1	
742	6096.1	
742.18	6028.5	
742.36	4867.3	
742.54	4427.7	
742.72	6673	
742.9	5333.6	
743.08	5305.6	
743.26	4048.8	
743.44	6946.7	
743.62	6736.5	
743.8	5504.3	
743.98	4508.9	
744.16	6464.8	
744.34	6087.9	
744.52	5446.9	
744.7	5313.8	
744.88	6637.5	
745.06	6053.1	
745.24	5414.1	
745.42	5666.7	
745.6	6610.8	
745.78	6492.7	
745.96	4185.4	
746.14	4569.7	
746.32	7461.4	
746.5	6728.9	
746.68	5116.5	
746.86	4602.5	
747.03	7182.2	
747.21	5344.5	
747.39	5196.4	
747.57	4607.2	
747.75	6305.7	
747.93	6731	
748.11	4602.5	
748.29	4544.4	
748.47	8046.5	
748.65	5998.5	
748.83	5340.4	
749.01	5043.5	
749.19	6481.1	
749.37	5605.3	
749.55	4961.5	
749.73	5059.8	
749.91	6150.1	
750.09	5874.9	
750.26	5137.7	
750.44	4403.1	
750.62	6257.9	
750.8	6206.7	
750.98	4263.2	
751.16	4704.2	
751.34	6290.7	
751.52	5547.9	
751.7	5520	
751.88	4283.7	
752.06	6819.7	
752.24	6523.5	
752.42	4197.7	
752.59	4597.7	
752.77	6146.6	
752.95	7452.6	
753.13	5461.2	
753.31	4826.4	
753.49	5881.1	
753.67	6358.9	
753.85	5102.9	
754.03	4670.7	
754.21	6637.5	
754.38	7040.2	
754.56	4759.5	
754.74	3809.9	
754.92	5857.9	
755.1	6647	
755.28	3960.8	
755.46	3981.9	
755.64	7491.5	
755.82	7602.7	
755.99	4250.2	
756.17	4441.4	
756.35	4959.5	
756.53	6756.9	
756.71	3325.2	
756.89	4298.7	
757.07	6240.8	
757.25	5274.2	
757.42	4851.6	
757.6	5827.2	
757.78	6281.8	
757.96	5194.3	
758.14	4500.8	
758.32	4024.9	
758.5	4732.2	
758.67	5661.3	
758.85	4330.8	
759.03	4439.3	
759.21	5808.7	
759.39	5214.8	
759.57	3915.7	
759.75	5132.9	
759.92	6517.3	
760.1	5653.8	
760.28	5474.9	
760.46	5797.8	
760.64	5448.3	
760.82	5212.8	
760.99	5268.7	
761.17	4407.9	
761.35	6332.3	
761.53	5286.5	
761.71	4573.8	
761.89	5289.2	
762.06	6162.3	
762.24	5657.2	
762.42	4591.5	
762.6	4394.9	
762.78	5716.6	
762.96	6332.3	
763.13	5016.8	
763.31	4706.9	
763.49	6571.2	
763.67	5597.1	
763.85	5569.8	
764.02	6234.7	
764.2	6833.4	
764.38	5986.2	
764.56	4611.3	
764.74	5444.2	
764.91	6926.2	
765.09	5820.3	
765.27	4242	
765.45	4005.1	
765.63	6987	
765.8	6857.3	
765.98	3686.3	
766.16	4123.9	
766.34	5328.1	
766.52	5150.6	
766.69	5166.3	
766.87	3990.8	
767.05	5732.9	
767.23	6579.4	
767.41	4322.6	
767.58	4574.5	
767.76	6417	
767.94	6445	
768.12	4420.9	
768.29	5203.2	
768.47	5848.3	
768.65	6635.4	
768.83	3999	
769	5287.2	
769.18	5330.9	
769.36	6193.1	
769.54	5253	
769.72	4020.8	
769.89	6399.9	
770.07	6581.5	
770.25	4344.4	
770.43	5793	
770.6	7295.5	
770.78	7841	
770.96	4566.3	
771.14	5300.1	
771.31	6365.1	
771.49	5687.2	
771.67	3683.6	
771.85	4027.7	
772.02	4887.1	
772.2	5718.6	
772.38	4792.9	
772.55	4216.8	
772.73	5969.1	
772.91	5773.9	
773.09	4633.2	
773.26	4756.1	
773.44	5971.9	
773.62	5618.9	
773.8	4128	
773.97	3824.2	
774.15	6049.7	
774.33	5579.3	
774.5	4028.4	
774.68	4385.4	
774.86	6185.5	
775.04	5655.1	
775.21	4111.6	
775.39	4113.7	
775.57	5982.1	
775.74	6408.8	
775.92	3932.8	
776.1	3906.2	
776.27	5941.2	
776.45	7259.4	
776.63	4206.5	
776.81	3640.6	
776.98	5475.6	
777.16	6695.5	
777.34	4347.8	
777.51	4614.8	
777.69	5543.2	
777.87	5337.7	
778.04	4307.6	
778.22	4973.8	
778.4	5361.6	
778.57	6014.9	
778.75	3542.3	
778.93	3813.3	
779.1	5117.9	
779.28	4980.7	
779.46	3596.2	
779.64	4120.5	
779.81	6277.7	
779.99	7212.9	
780.17	4990.2	
780.34	5109.7	
780.52	5558.9	
780.69	5879	
780.87	4426.3	
781.05	3971.7	
781.22	5671.5	
781.4	5801.2	
781.58	4107.5	
781.75	3269.2	
781.93	5754.1	
782.11	5128.8	
782.28	5103.5	
782.46	4146.5	
782.64	4918.5	
782.81	5920.7	
782.99	4248.9	
783.17	4134.2	
783.34	5784.8	
783.52	4925.4	
783.69	4480.3	
783.87	5309.7	
784.05	5106.3	
784.22	5152.7	
784.4	5261.2	
784.58	4482.3	
784.75	6078.4	
784.93	5115.8	
785.1	4233.8	
785.28	4820.9	
785.46	5847.6	
785.63	5118.6	
785.81	4072	
785.99	3963.5	
786.16	5281	
786.34	5681.1	
786.51	3990.8	
786.69	4388.1	
786.87	4832.5	
787.04	5422.3	
787.22	3779.2	
787.39	4909.7	
787.57	5048.9	
787.75	6296.8	
787.92	5074.9	
788.1	5032.5	
788.27	5150.6	
788.45	4874.2	
788.63	4690.5	
788.8	3291.8	
788.98	5683.1	
789.15	4844.8	
789.33	3495.9	
789.5	4168.3	
789.68	6122.1	
789.86	6217	
790.03	4642.7	
790.21	4045.4	
790.38	6064	
790.56	5292	
790.73	3839.3	
790.91	3928	
791.09	5117.2	
791.26	6053.1	
791.44	4118.5	
791.61	3540.3	
791.79	5117.9	
791.96	5263.3	
792.14	3737.5	
792.32	3235.1	
792.49	5126.7	
792.67	5220.3	
792.84	3799.7	
793.02	3510.2	
793.19	5585.5	
793.37	6380.8	
793.54	3240.6	
793.72	3661.8	
793.89	6595.8	
794.07	5162.2	
794.25	4162.8	
794.42	3341.6	
794.6	6258.6	
794.77	5921.4	
794.95	4605.2	
795.12	4003.8	
795.3	5038	
795.47	5803.9	
795.65	4416.8	
795.82	4164.9	
796	4919.9	
796.17	7011.6	
796.35	4069.3	
796.52	4862.6	
796.7	5719.3	
796.87	5798.5	
797.05	5029.1	
797.22	4994.3	
797.4	5835.3	
797.57	6878.4	
797.75	4214	
797.92	4152.6	
798.1	6128.9	
798.27	5167	
798.45	3358.7	
798.62	3672.7	
798.8	5499.5	
798.97	6014.2	
799.15	4495.3	
799.32	4230.4	
799.5	4735.6	
799.67	5550.7	
799.85	4582.7	
800.02	3305.4	
800.2	5113.8	
800.37	5500.8	
800.55	4869.4	
800.72	3977.8	
800.9	5975.3	
801.07	6430.6	
801.25	5375.2	
801.42	4369	
801.6	5999.2	
801.77	5746.6	
801.95	4053.6	
802.12	3859.1	
802.29	5704.3	
802.47	5697.4	
802.64	4319.8	
802.82	3250.8	
802.99	5083.1	
803.17	6197.8	
803.34	4248.2	
803.52	3779.9	
803.69	6878.4	
803.87	4855.7	
804.04	4230.4	
804.21	4281.6	
804.39	6307.1	
804.56	5339.7	
804.74	3608.5	
804.91	4405.2	
805.09	5145.9	
805.26	5210	
805.44	3573	
805.61	4003.8	
805.78	5846.3	
805.96	5835.3	
806.13	4403.8	
806.31	4751.3	
806.48	4700.1	
806.66	5221.6	
806.83	4404.5	
807	4317.1	
807.18	5072.1	
807.35	5537	
807.53	4242	
807.7	3409.2	
807.87	6393.1	
808.05	5180	
808.22	4698	
808.4	3386	
808.57	5221.6	
808.74	4792.9	
808.92	3876.8	
809.09	5016.2	
809.27	5035.3	
809.44	5766.4	
809.61	3399.6	
809.79	3835.8	
809.96	6352.1	
810.14	5965.1	
810.31	3331.4	
810.48	4086.4	
810.66	5269.4	
810.83	6107.7	
811.01	3890.5	
811.18	4294.6	
811.35	5988.3	
811.53	4615.4	
811.7	4768.4	
811.87	4425.7	
812.05	5173.2	
812.22	5155.4	
812.39	3784.6	
812.57	3559.4	
812.74	5219.6	
812.92	6932.4	
813.09	4094.6	
813.26	4483	
813.44	6623.8	
813.61	5120.6	
813.78	3421.5	
813.96	4610.7	
814.13	5189.6	
814.3	4859.1	
814.48	4959.5	
814.65	4126	
814.82	6546.7	
815	4973.8	
815.17	4248.2	
815.34	5193	
815.52	5122.7	
815.69	5102.9	
815.87	4229.7	
816.04	3590.8	
816.21	5185.5	
816.38	4530.1	
816.56	4087.7	
816.73	3748.5	
816.9	6576.7	
817.08	5950	
817.25	3764.2	
817.42	4810.7	
817.6	4697.4	
817.77	5294.7	
817.94	4332.8	
818.12	3803.8	
818.29	4925.4	
818.46	7900.4	
818.64	3889.1	
818.81	3643.3	
818.98	4810.7	
819.16	7163.1	
819.33	4569	
819.5	4197.7	
819.67	5700.9	
819.85	6283.2	
820.02	4158.1	
820.19	4352.6	
820.37	5429.2	
820.54	4960.2	
820.71	4268	
820.88	5427.8	
821.06	5481	
821.23	4969.1	
821.4	4331.5	
821.58	4209.9	
821.75	6025.8	
821.92	5369.8	
822.09	3425.6	
822.27	3541.6	
822.44	5202.5	
822.61	5104.2	
822.79	3456.3	
822.96	6672.3	
823.13	5763.7	
823.3	4866.7	
823.48	4072	
823.65	3587.4	
823.82	5909.1	
823.99	4698.7	
824.17	5102.9	
824.34	3622.2	
824.51	6885.3	
824.68	5231.9	
824.86	3798.3	
825.03	4302.1	
825.2	5223	
825.37	6459.3	
825.55	3773.7	
825.72	4241.3	
825.89	7008.1	
826.06	6484.6	
826.24	4035.9	
826.41	4141	
826.58	6352.1	
826.75	5535	
826.92	3226.9	
827.1	3543	
827.27	8801.5	
827.44	6934.4	
827.61	3919.1	
827.79	4733.5	
827.96	4924.7	
828.13	5322	
828.3	4009.2	
828.47	3411.9	
828.65	5402.5	
828.82	5352	
828.99	5345.2	
829.16	4610.7	
829.34	5837.4	
829.51	5595.1	
829.68	4291.9	
829.85	4486.4	
830.02	6087.9	
830.2	5816.9	
830.37	3298.6	
830.54	5148.6	
830.71	6774.7	
830.88	5171.8	
831.05	3365.5	
831.23	3877.5	
831.4	6383.5	
831.57	7260.7	
831.74	3935.5	
831.91	3425.6	
832.09	5390.3	
832.26	5770.5	
832.43	4070	
832.6	4666.6	
832.77	5449.6	
832.94	6191.7	
833.12	3239.2	
833.29	4037.9	
833.46	5097.4	
833.63	7471.7	
833.8	4428.4	
833.97	4130.8	
834.15	5857.9	
834.32	5581.4	
834.49	4235.9	
834.66	4313.7	
834.83	6122.7	
835	4902.8	
835.17	3891.1	
835.35	3937.6	
835.52	5790.3	
835.69	5687.2	
835.86	4132.8	
836.03	3422.2	
836.2	5774.6	
836.37	5356.1	
836.55	4042.7	
836.72	3833.1	
836.89	5372.5	
837.06	5948.7	
837.23	4128	
837.4	4547.2	
837.57	6699.6	
837.75	7452.6	
837.92	3734.8	
838.09	3979.2	
838.26	5338.4	
838.43	6177.4	
838.6	4244.8	
838.77	3817.4	
838.94	7066.9	
839.11	6741.9	
839.29	4069.3	
839.46	3168.9	
839.63	5773.9	
839.8	5545.9	
839.97	3980.6	
840.14	3960.8	
840.31	5584.8	
840.48	5803.9	
840.65	3261	
840.82	3987.4	
841	5816.2	
841.17	5760.3	
841.34	3606.5	
841.51	3690.4	
841.68	5760.3	
841.85	5515.2	
842.02	3833.8	
842.19	3076	
842.36	5557.5	
842.53	5473.5	
842.7	3637.9	
842.87	4474.8	
843.05	7348.1	
843.22	5482.4	
843.39	3371.6	
843.56	3706.8	
843.73	5252.4	
843.9	5894.7	
844.07	5958.9	
844.24	4947.2	
844.41	8652	
844.58	5001.1	
844.75	3486.3	
844.92	3819.5	
845.09	5808.7	
845.26	5803.3	
845.43	3618.8	
845.6	3818.1	
845.77	5823.1	
845.94	5520	
846.12	4040	
846.29	4203.8	
846.46	6001.9	
846.63	5814.9	
846.8	3622.9	
846.97	4271.4	
847.14	6219	
847.31	5789.6	
847.48	4038.6	
847.65	4504.2	
847.82	6135.7	
847.99	6057.9	
848.16	4917.2	
848.33	4538.3	
848.5	5320.6	
848.67	6350.8	
848.84	3581.2	
849.01	3710.9	
849.18	5205.3	
849.35	4844.8	
849.52	4605.9	
849.69	3565.5	
849.86	6025.8	
850.03	6229.9	
850.2	3633.8	
850.37	4478.9	
850.54	6113.2	
850.71	5450.3	
850.88	4318.5	
851.05	3631.7	
851.22	5728.2	
851.39	6330.3	
851.56	3392.8	
851.73	4153.3	
851.9	5068	
852.07	6025.1	
852.24	4008.6	
852.41	3598.3	
852.58	5667.4	
852.75	5126.1	
852.92	4072.7	
853.09	3526.6	
853.26	5405.3	
853.43	6275	
853.6	3615.3	
853.77	3056.9	
853.94	6388.3	
854.11	5758.9	
854.28	5435.3	
854.44	3953.3	
854.61	6725.5	
854.78	6090.7	
854.95	3546.4	
855.12	4616.1	
855.29	4635.2	
855.46	6434.7	
855.63	3594.2	
855.8	5034.6	
855.97	5300.8	
856.14	6169.2	
856.31	5141.8	
856.48	3899.3	
856.65	5334.3	
856.82	5055.1	
856.99	3453.6	
857.16	3847.5	
857.33	7193.8	
857.49	5440.8	
857.66	3958	
857.83	4237.9	
858	5385.5	
858.17	5699.5	
858.34	3360	
858.51	3624.2	
858.68	6580.8	
858.85	6608.1	
859.02	4202.4	
859.19	4466.6	
859.36	5032.5	
859.52	5149.3	
859.69	3647.4	
859.86	4295.3	
860.03	5138.4	
860.2	6453.1	
860.37	3196.9	
860.54	3680.2	
860.71	6055.8	
860.88	6518	
861.05	4074.8	
861.21	4593.6	
861.38	6466.8	
861.55	4960.2	
861.72	3263.8	
861.89	4108.2	
862.06	6125.5	
862.23	6602	
862.4	3548.4	
862.56	3822.2	
862.73	5935.7	
862.9	5575.9	
863.07	4285	
863.24	3238.5	
863.41	4928.8	
863.58	5120.6	
863.75	3670	
863.91	4253.6	
864.08	6469.5	
864.25	5939.1	
864.42	4554	
864.59	5135.6	
864.76	6806.8	
864.93	5100.1	
865.09	3476.8	
865.26	3882.3	
865.43	6364.4	
865.6	6733	
865.77	3130	
865.94	3554.6	
866.1	6326.2	
866.27	6053.1	
866.44	5463.3	
866.61	3426.9	
866.78	5509.7	
866.95	5861.3	
867.11	3467.2	
867.28	3191.4	
867.45	6134.3	
867.62	5112.4	
867.79	4184	
867.96	3534.8	
868.12	5068	
868.29	6100.2	
868.46	3102	
868.63	4806.6	
868.8	6297.5	
868.97	6020.3	
869.13	3762.1	
869.3	3799.7	
869.47	5906.3	
869.64	6201.9	
869.81	3657.7	
869.97	3633.8	
870.14	5879.7	
870.31	6564.4	
870.48	3584.6	
870.65	4551.3	
870.81	5409.4	
870.98	5374.6	
871.15	4084.3	
871.32	3762.8	
871.48	5945.3	
871.65	6539.2	
871.82	3616	
871.99	3939.6	
872.16	7058	
872.32	6361.7	
872.49	3606.5	
872.66	3673.4	
872.83	6023.8	
872.99	5285.8	
873.16	4147.1	
873.33	3587.4	
873.5	5672.9	
873.67	5668.8	
873.83	3789.4	
874	4962.9	
874.17	5775.3	
874.34	6952.9	
874.5	4698.7	
874.67	4540.3	
874.84	6495.5	
875.01	5087.8	
875.17	5096.7	
875.34	3621.5	
875.51	5709.1	
875.68	6954.9	
875.84	4352.6	
876.01	5337.7	
876.18	6006	
876.34	5930.2	
876.51	3610.6	
876.68	3530	
876.85	5447.6	
877.01	6283.9	
877.18	5191.6	
877.35	3574.4	
877.52	5569.1	
877.68	5026.4	
877.85	3528.7	
878.02	3525.2	
878.18	5653.8	
878.35	5283.8	
878.52	2829.6	
878.69	4058.4	
878.85	6079.7	
879.02	5991	
879.19	5195	
879.35	3876.8	
879.52	5980.8	
879.69	6274.3	
879.86	3070.6	
880.02	4055	
880.19	5500.8	
880.36	6862.1	
880.52	4151.9	
880.69	4319.8	
880.86	6110.5	
881.02	6218.3	
881.19	3936.2	
881.36	3926	
881.52	6014.2	
881.69	5317.9	
881.86	3928	
882.02	3821.5	
882.19	6313.2	
882.36	7444.4	
882.52	3652.2	
882.69	5104.2	
882.86	5790.3	
883.02	5670.1	
883.19	4403.1	
883.36	4152.6	
883.52	6120	
883.69	6978.1	
883.86	3707.5	
884.02	3295.2	
884.19	6046.3	
884.36	5558.9	
884.52	4084.3	
884.69	3795.6	
884.86	5269.4	
885.02	6710.5	
885.19	4026.3	
885.36	4174.4	
885.52	5618.3	
885.69	5801.9	
885.86	5258.5	
886.02	4656.4	
886.19	6075.6	
886.35	5365.7	
886.52	3910.3	
886.69	5102.2	
886.85	5072.8	
887.02	6455.2	
887.19	6455.2	
887.35	6455.2	
887.52	6455.2	
887.68	6455.2	
887.85	6455.2	
888.02	6455.2	
888.18	6455.2	
888.35	6455.2	
888.51	6455.2	
888.68	6455.2	
888.85	6455.2	
889.01	6455.2	
889.18	6455.2	
889.35	6455.2	
889.51	6455.2	
889.68	6455.2	
889.84	6455.2	
890.01	6455.2	
890.17	6455.2	
890.34	6455.2	
890.51	6455.2	
890.67	6455.2	
890.84	6455.2	
891	6455.2	
891.17	6455.2	
891.34	6455.2	
891.5	6455.2	
891.67	6455.2	
891.83	6455.2	
892	6455.2	
892.16	6455.2	
892.33	6455.2	
892.5	6455.2	
892.66	6455.2	
892.83	6455.2	
892.99	6455.2	
893.16	6455.2	
893.32	6455.2	
893.49	6455.2	
893.65	6455.2	
893.82	6455.2	
893.99	6455.2	
894.15	6455.2	
894.32	6455.2	
894.48	6455.2	
894.65	6455.2	
894.81	6455.2	
894.98	6455.2	
895.14	6455.2	
895.31	6455.2	
895.47	6455.2	
895.64	6455.2	
895.81	6455.2	
895.97	6455.2	
896.14	6455.2	
896.3	6455.2	
896.47	6455.2	
896.63	6455.2	
896.8	6455.2	
896.96	6455.2	
897.13	6455.2	
897.29	6455.2	
897.46	6455.2	
897.62	6455.2	
897.79	6455.2	
897.95	6455.2	
898.12	6455.2	
898.28	6455.2	
898.45	6455.2	
898.61	6455.2	
898.78	6455.2	
898.94	6455.2	
899.11	6455.2	
899.27	6455.2	
899.44	6455.2	
899.6	6455.2	
899.77	6455.2	
899.93	6455.2	
900.1	6455.2	
900.26	6455.2	
900.43	6455.2	
900.59	6455.2	
900.76	6455.2	
900.92	6455.2	
901.09	6455.2	
901.25	6455.2	
901.42	6455.2	
901.58	6455.2	
901.75	6455.2	
901.91	6455.2	
902.07	6455.2	
902.24	6455.2	
902.4	6455.2	
902.57	6455.2	
902.73	6455.2	
902.9	6455.2	
903.06	6455.2	
903.23	6455.2	
903.39	6455.2	
903.56	6455.2	
903.72	6455.2	
903.88	6455.2	
904.05	6455.2	
904.21	6455.2	
904.38	6455.2	
904.54	6455.2	
904.71	6455.2	
904.87	6455.2	
905.03	6455.2	
905.2	6455.2	
905.36	6455.2	
905.53	6455.2	
905.69	6455.2	
905.86	6455.2	
906.02	6455.2	
906.18	6455.2	
906.35	6455.2	
906.51	6455.2	
906.68	6455.2	
906.84	6455.2	
907.01	6455.2	
907.17	6455.2	
907.33	6455.2	
907.5	6455.2	
907.66	6455.2	
907.83	6455.2	
907.99	6455.2	
908.15	6455.2	
908.32	6455.2	
908.48	6455.2	
908.65	6455.2	
908.81	6455.2	
908.97	6455.2	
909.14	6455.2	
909.3	6455.2	
909.47	6455.2	
909.63	6455.2	
909.79	6455.2	
909.96	6455.2	
910.12	6455.2	
910.28	6455.2	
910.45	6455.2	
910.61	6455.2	
910.78	6455.2	
910.94	6455.2	
911.1	6455.2	
911.27	6455.2	
911.43	6455.2	
911.59	6455.2	
911.76	6455.2	
911.92	6455.2	
912.08	6455.2	
912.25	6455.2	
912.41	6455.2	
912.57	6455.2	
912.74	6455.2	
912.9	6455.2	
913.07	6455.2	
913.23	6455.2	
913.39	6455.2	
913.56	6455.2	
913.72	6455.2	
913.88	6455.2	
914.05	6455.2	
914.21	6455.2	
914.37	6455.2	
914.54	6455.2	
914.7	6455.2	
914.86	6455.2	
915.03	6455.2	
915.19	6455.2	
