Wavelength	Intensities	
nm	a.u.	
179.22	1402	
179.44	1392.3	
179.65	1411.7	
179.86	1372.8	
180.08	1390.6	
180.29	2945	
180.51	2400.2	
180.72	4214.7	
180.94	4469.4	
181.15	2133.3	
181.37	2174.3	
181.58	3943.7	
181.79	3960.8	
182.01	2250	
182.22	2248	
182.44	4136.2	
182.65	3685	
182.87	2657.6	
183.08	2490.3	
183.29	4317.1	
183.51	3760.8	
183.72	2235.7	
183.94	2876.7	
184.15	4009.2	
184.37	3840.6	
184.58	2129.2	
184.79	2466.4	
185.01	3823.6	
185.22	4326	
185.44	2639.1	
185.65	2379.1	
185.86	4119.8	
186.08	3674.7	
186.29	2080.1	
186.51	2209.1	
186.72	3870	
186.94	4217.5	
187.15	2484.2	
187.36	2439.1	
187.58	4979.3	
187.79	4093.9	
188.01	2442.5	
188.22	3482.9	
188.43	4491.2	
188.65	4166.9	
188.86	2235.7	
189.08	2494.4	
189.29	3865.2	
189.5	3761.4	
189.72	2297.1	
189.93	2301.2	
190.15	4231.8	
190.36	4695.3	
190.57	2446.6	
190.79	2376.3	
191	4173.8	
191.22	4289.8	
191.43	2460.3	
191.64	2243.9	
191.86	4324.6	
192.07	4205.8	
192.29	2214.5	
192.5	2264.4	
192.71	4270.7	
192.93	3893.9	
193.14	2301.2	
193.35	2347	
193.57	3903.4	
193.78	4257.7	
194	1991.3	
194.21	2227.5	
194.42	3565.5	
194.64	3989.4	
194.85	2396.1	
195.07	2679.4	
195.28	3903.4	
195.49	3687.7	
195.71	2811.9	
195.92	2166.1	
196.13	4083.6	
196.35	3963.5	
196.56	2884.2	
196.78	2404.3	
196.99	4706.9	
197.2	4429.1	
197.42	2607.1	
197.63	2416.6	
197.84	3731.4	
198.06	4093.9	
198.27	2263.7	
198.48	2715.6	
198.7	3896.6	
198.91	4096.6	
199.13	2504	
199.34	2476.7	
199.55	4346.5	
199.77	3457.7	
199.98	2252.1	
200.19	2419.3	
200.41	4050.2	
200.62	3786.7	
200.83	2439.8	
201.05	2648	
201.26	4020.8	
201.47	3899.3	
201.69	2258.2	
201.9	2241.8	
202.11	4100.7	
202.33	4439.3	
202.54	2309.4	
202.76	2551.1	
202.97	3949.8	
203.18	4141	
203.4	2501.9	
203.61	2598.2	
203.82	4048.8	
204.04	3756	
204.25	2442.5	
204.46	2379.7	
204.68	3957.4	
204.89	4081.6	
205.1	2338.1	
205.32	2178.4	
205.53	4133.5	
205.74	4240	
205.96	2005	
206.17	2428.2	
206.38	4063.9	
206.6	4213.4	
206.81	2612.5	
207.02	2304	
207.24	4108.2	
207.45	4291.9	
207.66	2372.9	
207.88	2172.2	
208.09	4072.7	
208.3	3934.8	
208.52	2233.7	
208.73	2360.6	
208.94	3986	
209.15	4269.3	
209.37	2332	
209.58	2405.7	
209.79	4087.7	
210.01	3931.4	
210.22	2099.2	
210.43	2135.3	
210.65	3829	
210.86	4102.1	
211.07	2279.4	
211.29	2229.6	
211.5	4038.6	
211.71	3949.2	
211.93	2235.7	
212.14	2222	
212.35	3953.9	
212.56	3932.8	
212.78	2448	
212.99	2135.3	
213.2	4373.8	
213.42	3928.7	
213.63	2263.7	
213.84	2346.3	
214.06	3794.9	
214.27	3622.2	
214.48	2309.4	
214.69	2436.4	
214.91	4327.4	
215.12	4234.5	
215.33	2400.2	
215.55	2540.2	
215.76	4537.6	
215.97	4100.7	
216.18	2373.6	
216.4	2407.7	
216.61	3831.1	
216.82	4164.9	
217.04	2255.5	
217.25	2288.9	
217.46	4227	
217.67	4145.8	
217.89	2112.8	
218.1	2147.6	
218.31	3949.2	
218.53	4117.8	
218.74	2377	
218.95	2273.2	
219.16	4015.4	
219.38	4379.9	
219.59	2294.4	
219.8	2538.1	
220.01	4595	
220.23	4003.1	
220.44	2613.9	
220.65	2174.3	
220.87	4040.6	
221.08	4319.2	
221.29	2231.6	
221.5	2598.9	
221.72	4749.2	
221.93	3675.4	
222.14	2441.2	
222.35	2784.6	
222.57	4038.6	
222.78	4209.3	
222.99	2405.7	
223.2	2405	
223.42	4019.5	
223.63	4050.2	
223.84	1954.4	
224.05	2014.5	
224.27	4397	
224.48	4372.4	
224.69	2792.1	
224.9	2495.1	
225.12	4018.8	
225.33	3981.3	
225.54	2071.2	
225.75	2286.2	
225.97	3820.8	
226.18	3968.3	
226.39	2293	
226.6	2233	
226.82	3887	
227.03	3703.4	
227.24	2428.2	
227.45	2167.4	
227.67	4240	
227.88	4257.7	
228.09	2693.8	
228.3	2625.5	
228.52	4070.7	
228.73	3988.8	
228.94	2311.5	
229.15	2162	
229.36	4007.9	
229.58	4052.9	
229.79	2392.7	
230	2461.7	
230.21	4475.5	
230.43	3980.6	
230.64	2424.1	
230.85	2439.8	
231.06	4178.5	
231.28	4190.8	
231.49	2154.5	
231.7	2450.1	
231.91	4180.6	
232.12	3929.4	
232.34	2277.3	
232.55	2403.6	
232.76	4248.2	
232.97	3997	
233.18	2271.2	
233.4	2443.2	
233.61	3891.8	
233.82	3813.3	
234.03	2366.1	
234.25	2332.6	
234.46	4860.5	
234.67	4033.1	
234.88	2465.1	
235.09	2288.9	
235.31	3941	
235.52	3846.1	
235.73	2392.7	
235.94	2150.4	
236.15	3805.1	
236.37	4478.2	
236.58	2214.5	
236.79	2329.2	
237	4102.8	
237.21	3713.6	
237.43	2515.6	
237.64	2120.3	
237.85	5631.9	
238.06	3835.8	
238.27	2447.3	
238.48	2202.2	
238.7	4131.4	
238.91	3981.9	
239.12	2275.3	
239.33	2453.5	
239.54	3742.3	
239.76	3845.4	
239.97	2425.5	
240.18	2401.6	
240.39	4395.6	
240.6	4026.3	
240.82	2523.1	
241.03	2213.2	
241.24	3916.4	
241.45	4225.6	
241.66	2209.1	
241.87	2551.1	
242.09	4336.9	
242.3	4285.7	
242.51	2459.6	
242.72	2309.4	
242.93	4115.7	
243.14	3704.8	
243.36	2651.4	
243.57	2770.2	
243.78	4378.6	
243.99	4030.4	
244.2	2338.8	
244.41	2113.5	
244.63	3625.6	
244.84	3943.7	
245.05	2448.7	
245.26	2302.6	
245.47	4160.8	
245.68	4110.3	
245.9	2832.3	
246.11	2458.2	
246.32	3737.5	
246.53	4093.9	
246.74	3367.5	
246.95	2110.8	
247.16	3906.2	
247.38	3975.1	
247.59	2230.9	
247.8	2670.6	
248.01	3443.3	
248.22	3993.5	
248.43	2223.4	
248.64	2356.5	
248.86	3715	
249.07	3805.1	
249.28	2265.1	
249.49	2451.4	
249.7	4078.9	
249.91	4146.5	
250.12	2154.5	
250.34	2214.5	
250.55	3979.9	
250.76	3881.6	
250.97	2389.3	
251.18	2401.6	
251.39	4152.6	
251.6	4040.6	
251.81	2466.4	
252.03	2410.5	
252.24	3702	
252.45	4071.4	
252.66	2148.3	
252.87	2483.5	
253.08	3907.5	
253.29	4574.5	
253.5	2228.2	
253.72	2754.5	
253.93	3845.4	
254.14	4396.3	
254.35	2273.2	
254.56	2344.2	
254.77	4029	
254.98	3782.6	
255.19	2328.5	
255.41	2676	
255.62	4101.4	
255.83	4224.3	
256.04	2542.2	
256.25	2405.7	
256.46	4469.4	
256.67	3725.3	
256.88	2447.3	
257.09	2616.6	
257.31	3603.1	
257.52	3734.8	
257.73	2873.3	
257.94	2337.4	
258.15	4027.7	
258.36	3884.3	
258.57	2643.2	
258.78	1964.7	
258.99	4267.3	
259.2	3879.5	
259.41	2316.3	
259.63	2411.8	
259.84	4293.2	
260.05	4453.6	
260.26	2708.1	
260.47	2271.2	
260.68	4278.2	
260.89	3928.7	
261.1	2628.9	
261.31	2230.2	
261.52	4405.2	
261.73	4328	
261.95	2766.8	
262.16	2409.8	
262.37	4213.4	
262.58	4235.2	
262.79	2749.1	
263	2312.2	
263.21	3973.1	
263.42	3807.2	
263.63	2488.3	
263.84	2308.7	
264.05	4057	
264.26	4366.3	
264.47	2707.4	
264.69	2484.9	
264.9	4388.1	
265.11	3898	
265.32	2237.7	
265.53	2225.5	
265.74	4045.4	
265.95	3625.6	
266.16	2405	
266.37	2516.3	
266.58	4016.7	
266.79	3857	
267	2292.4	
267.21	2191.3	
267.42	3716.4	
267.63	3978.5	
267.84	2332.6	
268.06	2144.9	
268.27	4153.3	
268.48	4202.4	
268.69	2340.8	
268.9	2587.3	
269.11	3863.8	
269.32	3597.6	
269.53	2366.8	
269.74	2212.5	
269.95	3921.2	
270.16	3674.1	
270.37	2402.3	
270.58	2682.2	
270.79	3979.2	
271	4246.8	
271.21	2387.9	
271.42	2338.8	
271.63	4158.1	
271.84	3663.8	
272.05	2084.1	
272.26	2228.9	
272.47	3997.6	
272.68	3985.3	
272.89	2349	
273.11	2506.7	
273.32	3788.7	
273.53	4321.9	
273.74	2467.8	
273.95	2480.8	
274.16	3938.9	
274.37	3928	
274.58	2611.8	
274.79	2237.7	
275	4018.1	
275.21	4132.1	
275.42	2923.8	
275.63	2510.1	
275.84	4186	
276.05	4683.7	
276.26	2458.9	
276.47	2321	
276.68	4012	
276.89	4425	
277.1	2525.8	
277.31	2189.3	
277.52	3994.2	
277.73	4387.4	
277.94	2168.8	
278.15	2250.7	
278.36	4060.4	
278.57	3833.8	
278.78	2321.7	
278.99	2421.4	
279.2	3865.9	
279.41	3770.3	
279.62	2832.3	
279.83	2198.8	
280.04	4520.5	
280.25	3809.2	
280.46	2788.7	
280.67	2385.2	
280.88	3875.4	
281.09	4247.5	
281.3	2419.3	
281.51	2842.6	
281.72	3809.9	
281.93	3878.9	
282.14	2301.2	
282.35	2432.3	
282.56	4273.4	
282.77	4083	
282.98	2360.6	
283.19	2707.4	
283.4	4753.3	
283.61	3910.9	
283.82	2231.6	
284.03	2741.5	
284.24	4162.8	
284.45	4055.7	
284.66	2813.9	
284.87	2603	
285.08	4244.8	
285.29	4288.4	
285.5	2194.7	
285.71	2340.1	
285.92	4119.8	
286.12	4515.8	
286.33	2833	
286.54	2343.6	
286.75	4114.4	
286.96	3919.1	
287.17	2258.9	
287.38	2639.8	
287.59	3913.7	
287.8	3913.7	
288.01	2295.8	
288.22	2488.3	
288.43	3889.1	
288.64	3678.2	
288.85	2669.2	
289.06	2522.4	
289.27	4173.1	
289.48	4205.2	
289.69	2802.3	
289.9	2582.5	
290.11	4307.6	
290.32	3908.2	
290.53	2570.9	
290.74	2405	
290.94	4161.5	
291.15	4226.3	
291.36	2267.1	
291.57	2504	
291.78	3950.5	
291.99	3674.7	
292.2	2258.2	
292.41	2482.1	
292.62	4184.7	
292.83	4117.8	
293.04	2914.3	
293.25	2301.2	
293.46	3951.2	
293.67	4178.5	
293.88	2216.6	
294.09	2211.8	
294.29	3817.4	
294.5	4099.4	
294.71	2435	
294.92	2243.2	
295.13	3911.6	
295.34	4505.5	
295.55	2130.6	
295.76	2140.8	
295.97	4152.6	
296.18	4320.5	
296.39	2131.3	
296.6	2252.8	
296.81	3796.3	
297.01	4166.9	
297.22	2338.8	
297.43	2326.5	
297.64	3949.8	
297.85	3744.4	
298.06	2000.2	
298.27	2157.2	
298.48	3863.8	
298.69	3813.3	
298.9	2414.6	
299.11	2254.1	
299.31	3839.3	
299.52	3804.4	
299.73	2562.7	
299.94	2485.6	
300.15	4024.3	
300.36	3868.6	
300.57	2486.2	
300.78	2442.5	
300.99	3851.5	
301.2	4000.4	
301.4	2367.5	
301.61	2380.4	
301.82	3991.5	
302.03	4185.4	
302.24	2608.4	
302.45	2152.4	
302.66	4132.1	
302.87	3973.1	
303.08	2293	
303.29	2772.3	
303.49	3945.1	
303.7	3661.8	
303.91	2126.5	
304.12	2725.2	
304.33	3583.3	
304.54	4120.5	
304.75	2315.6	
304.96	2316.3	
305.16	4133.5	
305.37	4427	
305.58	2135.3	
305.79	2107.4	
306	4088.4	
306.21	3702	
306.42	2286.2	
306.63	3091.8	
306.83	3819.5	
307.04	4018.1	
307.25	2420	
307.46	2392.7	
307.67	3671.3	
307.88	4024.9	
308.09	2349.7	
308.29	2247.3	
308.5	4013.3	
308.71	4106.9	
308.92	2345.6	
309.13	2212.5	
309.34	4097.3	
309.55	3870.7	
309.75	2676.7	
309.96	2458.2	
310.17	4158.1	
310.38	3725.9	
310.59	2519.7	
310.8	2464.4	
311.01	3930.7	
311.21	3988.1	
311.42	2271.9	
311.63	2276.7	
311.84	3872.7	
312.05	3914.4	
312.26	2523.8	
312.46	2600.2	
312.67	3891.8	
312.88	3558	
313.09	2185.2	
313.3	2189.3	
313.51	4336.2	
313.71	4472.8	
313.92	2243.9	
314.13	2312.8	
314.34	4111	
314.55	3979.9	
314.76	2639.1	
314.96	2343.6	
315.17	4178.5	
315.38	3848.1	
315.59	2256.2	
315.8	2218.6	
316.01	4237.2	
316.21	4276.8	
316.42	2218	
316.63	2422.7	
316.84	3914.4	
317.05	4126.7	
317.26	2525.1	
317.46	2271.9	
317.67	3956.7	
317.88	4049.5	
318.09	2629.6	
318.3	2147	
318.5	3934.1	
318.71	4008.6	
318.92	3113.6	
319.13	2542.9	
319.34	4164.9	
319.54	4269.3	
319.75	2135.3	
319.96	2049.3	
320.17	4032.5	
320.38	4142.4	
320.58	2071.9	
320.79	2365.4	
321	4225.6	
321.21	4342.4	
321.42	2414.6	
321.62	2085.5	
321.83	3867.2	
322.04	3930.7	
322.25	2408.4	
322.46	2183.8	
322.66	4026.3	
322.87	4175.1	
323.08	2546.3	
323.29	2138.1	
323.5	4465.3	
323.7	3734.1	
323.91	2791.4	
324.12	2538.8	
324.33	4090.5	
324.53	4140.3	
324.74	2482.8	
324.95	2508.1	
325.16	3717.1	
325.37	3883.6	
325.57	2228.9	
325.78	2241.8	
325.99	4160.1	
326.2	3710.9	
326.4	2861.7	
326.61	2183.1	
326.82	3906.8	
327.03	4019.5	
327.24	2836.4	
327.44	2663.7	
327.65	4117.8	
327.86	3591.5	
328.07	2480.8	
328.27	2233.7	
328.48	4328.7	
328.69	3688.4	
328.9	2853.5	
329.1	2244.6	
329.31	3934.1	
329.52	4268	
329.73	2284.9	
329.93	2308.1	
330.14	4079.6	
330.35	4052.9	
330.56	3146.4	
330.76	2559.3	
330.97	3890.5	
331.18	3941.7	
331.39	2437.1	
331.59	2070.5	
331.8	4200.4	
332.01	4261.8	
332.22	2329.2	
332.42	2426.8	
332.63	3937.6	
332.84	3702.7	
333.05	2456.9	
333.25	2247.3	
333.46	3693.2	
333.67	3937.6	
333.88	2390	
334.08	2392	
334.29	4727.4	
334.5	4116.4	
334.7	2224.8	
334.91	2767.5	
335.12	3625.6	
335.33	4035.9	
335.53	2421.4	
335.74	3077.4	
335.95	3991.5	
336.16	3561.4	
336.36	2400.2	
336.57	2642.6	
336.78	3322.5	
336.98	4169	
337.19	2725.8	
337.4	2356.5	
337.61	4327.4	
337.81	3687	
338.02	2295.1	
338.23	2647.3	
338.43	4323.3	
338.64	3869.3	
338.85	2231.6	
339.05	2761.3	
339.26	4429.8	
339.47	3743.7	
339.68	2231.6	
339.88	2892.4	
340.09	4143.7	
340.3	4252.9	
340.5	2464.4	
340.71	2058.2	
340.92	3774.4	
341.13	4225	
341.33	2121	
341.54	2474.6	
341.75	4080.2	
341.95	3851.5	
342.16	2460.3	
342.37	2507.4	
342.57	3744.4	
342.78	3842	
342.99	2580.4	
343.19	2138.1	
343.4	4060.4	
343.61	4103.4	
343.81	2325.8	
344.02	2213.9	
344.23	4121.2	
344.43	4252.9	
344.64	2613.9	
344.85	2577.7	
345.06	4061.1	
345.26	4168.3	
345.47	2529.9	
345.68	2775	
345.88	3673.4	
346.09	4136.2	
346.3	2527.9	
346.5	2037	
346.71	3831.1	
346.92	3899.3	
347.12	2226.1	
347.33	2424.8	
347.54	4171	
347.74	4302.1	
347.95	2473.9	
348.16	2066.4	
348.36	3880.2	
348.57	3708.2	
348.78	2620	
348.98	2544.9	
349.19	3878.9	
349.39	3582.6	
349.6	2219.3	
349.81	2248	
350.01	4171	
350.22	3753.2	
350.43	2529.2	
350.63	2701.3	
350.84	3821.5	
351.05	3713.7	
351.25	2258.2	
351.46	2139.4	
351.67	3943	
351.87	3694.5	
352.08	2379.1	
352.29	2572.9	
352.49	4123.2	
352.7	4083	
352.9	2179.7	
353.11	2562	
353.32	4311.7	
353.52	3868.6	
353.73	2292.4	
353.94	2634.4	
354.14	4066.6	
354.35	3747.8	
354.55	2281.4	
354.76	2401.6	
354.97	4043.4	
355.17	3814.7	
355.38	2239.1	
355.59	2666.5	
355.79	3758	
356	3920.5	
356.2	2418	
356.41	2287.6	
356.62	3713.6	
356.82	3913.7	
357.03	2529.9	
357.24	2325.1	
357.44	3715	
357.65	3784.6	
357.85	2839.2	
358.06	2503.3	
358.27	3626.3	
358.47	3649.5	
358.68	2186.5	
358.88	2526.5	
359.09	4013.3	
359.3	4072	
359.5	2757.9	
359.71	2548.4	
359.91	4175.8	
360.12	3928.7	
360.33	2630.3	
360.53	2744.3	
360.74	3794.9	
360.94	3838.6	
361.15	2626.2	
361.36	2286.2	
361.56	4149.9	
361.77	3993.5	
361.97	2788.7	
362.18	2364.7	
362.38	4196.3	
362.59	3717.7	
362.8	2258.2	
363	2250	
363.21	3666.5	
363.41	3789.4	
363.62	2463.7	
363.83	2796.8	
364.03	4154.6	
364.24	4239.3	
364.44	3023.5	
364.65	2944.3	
364.85	3895.2	
365.06	3819.5	
365.27	2330.6	
365.47	2450.7	
365.68	4304.1	
365.88	3895.2	
366.09	2565.4	
366.29	2308.1	
366.5	3773.7	
366.71	4153.3	
366.91	2884.9	
367.12	2618	
367.32	4461.2	
367.53	3952.6	
367.73	2680.1	
367.94	3035.8	
368.14	4184	
368.35	4089.1	
368.56	2523.8	
368.76	2279.4	
368.97	3935.5	
369.17	4727.4	
369.38	2398.2	
369.58	2426.8	
369.79	3591.5	
369.99	4339.6	
370.2	2990	
370.4	2507.4	
370.61	4033.8	
370.82	4602.5	
371.02	2497.8	
371.23	2196.1	
371.43	3796.9	
371.64	4405.2	
371.84	2557.9	
372.05	2961.4	
372.25	4747.9	
372.46	3873.4	
372.66	2501.3	
372.87	2508.1	
373.07	3928.7	
373.28	4891.9	
373.48	2904.7	
373.69	2826.2	
373.9	3946.4	
374.1	3901.4	
374.31	2949.1	
374.51	2620.7	
374.72	4203.1	
374.92	3800.3	
375.13	3027.6	
375.33	2633.7	
375.54	4089.8	
375.74	3885.7	
375.95	2698.5	
376.15	3194.1	
376.36	4244.8	
376.56	4129.4	
376.77	2706	
376.97	2859.6	
377.18	4684.4	
377.38	4145.1	
377.59	2884.9	
377.79	2503.3	
378	4050.9	
378.2	4151.2	
378.41	2505.3	
378.61	2460.3	
378.82	4339	
379.02	4012	
379.23	2603	
379.43	2960	
379.64	4526.7	
379.84	4198.3	
380.05	2588.6	
380.25	2501.9	
380.46	4216.1	
380.66	4019.5	
380.87	3099.3	
381.07	3302.7	
381.28	4477.5	
381.48	4106.2	
381.69	2498.5	
381.89	2528.6	
382.1	3798.3	
382.3	4074.8	
382.51	3032.4	
382.71	3321.1	
382.91	3973.7	
383.12	4343.7	
383.32	2679.4	
383.53	2695.8	
383.73	4130.1	
383.94	4091.2	
384.14	2781.1	
384.35	2365.4	
384.55	3670	
384.76	4078.2	
384.96	2712.2	
385.17	2816.6	
385.37	4224.3	
385.58	3721.2	
385.78	2781.8	
385.98	2408.4	
386.19	4025.6	
386.39	4174.4	
386.6	2575.7	
386.8	2667.8	
387.01	4162.8	
387.21	4293.9	
387.42	2868.5	
387.62	2964.8	
387.83	4035.2	
388.03	3929.4	
388.23	2803.7	
388.44	3006.4	
388.64	3839.3	
388.85	3705.5	
389.05	2834.4	
389.26	3078.1	
389.46	4859.8	
389.67	4468.7	
389.87	2925.2	
390.07	2882.2	
390.28	4024.9	
390.48	3841.3	
390.69	2551.8	
390.89	2691.7	
391.1	3988.8	
391.3	4348.5	
391.5	3230.3	
391.71	3425.6	
391.91	4301.4	
392.12	4530.8	
392.32	3246	
392.53	2853.5	
392.73	4000.4	
392.93	4080.9	
393.14	2788	
393.34	3057.6	
393.55	4312.3	
393.75	4025.6	
393.95	2768.9	
394.16	2740.2	
394.36	4046.1	
394.57	4338.3	
394.77	2540.2	
394.98	2624.1	
395.18	3907.5	
395.38	4042.7	
395.59	3099.3	
395.79	2638.5	
396	4100	
396.2	4341.7	
396.4	3025.5	
396.61	2975	
396.81	4220.9	
397.02	4007.2	
397.22	3131.3	
397.42	3123.2	
397.63	4470	
397.83	4037.9	
398.04	2681.5	
398.24	2848	
398.44	4244.8	
398.65	3734.1	
398.85	2636.4	
399.05	2611.8	
399.26	4121.9	
399.46	4725.3	
399.67	2899.9	
399.87	2705.4	
400.07	4227	
400.28	4302.1	
400.48	2715.6	
400.69	3184.6	
400.89	4472.8	
401.09	4726	
401.3	2757.2	
401.5	3200.3	
401.7	4652.3	
401.91	4792.2	
402.11	2962.7	
402.32	2964.1	
402.52	4530.1	
402.72	4424.3	
402.93	3097.2	
403.13	2572.9	
403.33	4898.7	
403.54	4220.9	
403.74	2895.8	
403.94	3302	
404.15	4132.8	
404.35	4841.4	
404.56	2823.5	
404.76	3566.9	
404.96	4476.2	
405.17	4306.9	
405.37	3391.4	
405.57	3046.7	
405.78	4484.4	
405.98	4059.1	
406.18	2887	
406.39	3147	
406.59	4266.6	
406.79	4169	
407	2779.1	
407.2	2724.5	
407.4	4747.9	
407.61	4580.6	
407.81	2819.4	
408.01	3687	
408.22	3768.3	
408.42	4763.6	
408.62	3311.6	
408.83	3099.3	
409.03	4263.9	
409.23	4268	
409.44	3111.5	
409.64	3251.5	
409.84	4804.5	
410.05	4851.6	
410.25	3328.6	
410.45	3190.1	
410.66	4617.5	
410.86	5707.7	
411.06	3393.5	
411.27	3292.5	
411.47	5552.7	
411.67	4648.2	
411.88	3414.6	
412.08	3479.5	
412.28	4900.1	
412.49	5201.8	
412.69	3366.2	
412.89	3385.3	
413.09	5117.9	
413.3	5068.7	
413.5	3422.2	
413.7	3344.3	
413.91	4431.1	
414.11	5081	
414.31	3377.1	
414.52	3560.1	
414.72	4977.9	
414.92	4904.2	
415.12	3361.4	
415.33	3646.7	
415.53	4861.2	
415.73	5239.4	
415.94	3789.4	
416.14	3517.7	
416.34	4828.4	
416.55	4531.5	
416.75	4030.4	
416.95	3823.6	
417.15	5295.4	
417.36	5440.8	
417.56	4242	
417.76	3724.6	
417.97	5342.5	
418.17	5183.4	
418.37	3656.3	
418.57	3535.5	
418.78	5296	
418.98	5010	
419.18	3971.7	
419.38	3941.7	
419.59	4947.9	
419.79	4836.6	
419.99	3515	
420.2	3588	
420.4	5292	
420.6	5154.7	
420.8	3481.5	
421.01	3487.7	
421.21	5225.1	
421.41	5128.8	
421.61	3583.3	
421.82	3478.8	
422.02	5089.2	
422.22	5367	
422.42	3809.9	
422.63	3761.4	
422.83	4950.6	
423.03	5504.3	
423.23	3760.1	
423.44	3278.1	
423.64	4938.3	
423.84	4749.9	
424.04	3530	
424.25	3313.6	
424.45	5338.4	
424.65	5316.5	
424.85	3294.5	
425.06	3523.2	
425.26	5624.4	
425.46	4976.6	
425.66	3779.9	
425.87	3556	
426.07	5236.7	
426.27	5119.2	
426.47	3648.1	
426.67	3323.2	
426.88	5503.6	
427.08	5204.6	
427.28	3844	
427.48	3289	
427.69	4812.7	
427.89	5005.9	
428.09	3650.8	
428.29	3312.9	
428.5	5140.4	
428.7	5134.9	
428.9	3349.8	
429.1	3459.7	
429.3	5115.8	
429.51	5180	
429.71	3474	
429.91	3844	
430.11	5352.7	
430.31	5338.4	
430.52	3635.1	
430.72	3670.6	
430.92	5425.8	
431.12	5184.8	
431.32	3479.5	
431.53	3744.4	
431.73	4855.1	
431.93	5467.4	
432.13	3467.2	
432.33	3462.4	
432.54	5145.2	
432.74	5051.7	
432.94	3367.5	
433.14	3859.1	
433.34	5457.2	
433.55	5176.6	
433.75	3836.5	
433.95	4603.8	
434.15	5319.9	
434.35	5029.1	
434.56	3560.7	
434.76	3328.6	
434.96	5125.4	
435.16	5351.3	
435.36	3454.9	
435.56	4027.7	
435.77	5147.2	
435.97	5126.7	
436.17	4201.7	
436.37	3910.3	
436.57	5002.5	
436.78	5001.1	
436.98	4683	
437.18	4252.9	
437.38	5084.4	
437.58	5003.2	
437.78	4245.4	
437.99	3645.4	
438.19	5356.8	
438.39	6029.2	
438.59	3708.9	
438.79	3462.4	
438.99	5689.3	
439.2	5030.5	
439.4	3427.6	
439.6	3448.1	
439.8	4971.8	
440	5689.3	
440.2	3952.6	
440.4	3984	
440.61	5514.5	
440.81	5635.3	
441.01	3703.4	
441.21	4055	
441.41	5774.6	
441.61	5489.9	
441.81	4179.9	
442.02	4528.1	
442.22	5889.3	
442.42	5567.7	
442.62	3751.2	
442.82	3796.3	
443.02	5808.7	
443.22	5431.2	
443.43	3943	
443.63	3603.7	
443.83	5332.9	
444.03	5233.9	
444.23	4263.9	
444.43	4067.9	
444.63	5552	
444.83	5943.2	
445.04	3859.7	
445.24	4299.4	
445.44	5650.3	
445.64	5629.2	
445.84	4106.2	
446.04	4148.5	
446.24	5341.8	
446.44	5776.6	
446.65	3779.2	
446.85	3962.1	
447.05	5470.1	
447.25	5625.1	
447.45	4046.8	
447.65	3662.5	
447.85	5637.4	
448.05	5267.4	
448.25	4111.6	
448.46	4019.5	
448.66	5382.1	
448.86	5278.3	
449.06	3771	
449.26	4098	
449.46	5700.9	
449.66	5321.3	
449.86	4027.7	
450.06	3960.8	
450.26	5305.6	
450.47	5588.9	
450.67	4154	
450.87	4145.1	
451.07	5904.3	
451.27	5408.7	
451.47	3810.6	
451.67	4145.8	
451.87	5486.5	
452.07	5959.6	
452.27	3958	
452.47	3912.3	
452.67	5543.9	
452.88	5494.7	
453.08	3710.2	
453.28	4403.8	
453.48	6210.8	
453.68	5499.5	
453.88	3994.9	
454.08	3979.2	
454.28	5840.1	
454.48	5649	
454.68	4223.6	
454.88	4397.7	
455.08	5897.5	
455.28	5657.2	
455.48	3891.1	
455.68	4145.1	
455.89	6025.8	
456.09	5898.8	
456.29	4108.9	
456.49	4219.5	
456.69	6067.4	
456.89	5575.9	
457.09	4326.7	
457.29	4577.9	
457.49	5836	
457.69	5902.9	
457.89	4390.8	
458.09	4135.5	
458.29	5767.8	
458.49	6252.4	
458.69	4569.7	
458.89	4220.9	
459.09	6300.9	
459.29	6233.3	
459.49	4301.4	
459.69	4663.2	
459.9	6028.5	
460.1	5881.1	
460.3	4300.7	
460.5	4134.8	
460.7	6144.6	
460.9	5769.1	
461.1	4047.5	
461.3	4603.2	
461.5	6432.7	
461.7	6163	
461.9	4305.5	
462.1	4448.9	
462.3	6138.4	
462.5	6182.8	
462.7	4377.9	
462.9	4468	
463.1	6739.2	
463.3	6598.6	
463.5	4576.5	
463.7	4993.6	
463.9	6225.8	
464.1	6374.6	
464.3	4680.3	
464.5	4683.7	
464.7	6482.5	
464.9	6297.5	
465.1	5246.9	
465.3	4907.6	
465.5	6622.4	
465.7	6792.4	
465.9	5137.7	
466.1	4735.6	
466.3	6524.1	
466.5	6397.2	
466.7	5380	
466.9	4898.1	
467.1	6847	
467.3	6916.7	
467.5	5428.5	
467.7	4990.9	
467.9	7148.1	
468.1	7424.6	
468.3	5175.2	
468.5	5402.5	
468.7	6445.6	
468.9	6479.8	
469.1	5111.7	
469.3	5327.4	
469.5	7449.1	
469.7	6475.7	
469.9	5267.4	
470.1	4926.7	
470.3	6888	
470.5	6634.7	
470.7	5544.5	
470.9	5020.9	
471.1	6537.1	
471.3	6776.7	
471.5	5031.2	
471.69	5685.2	
471.89	6554.2	
472.09	6184.9	
472.29	5279	
472.49	5302.2	
472.69	6369.9	
472.89	6638.8	
473.09	4910.3	
473.29	4939	
473.49	6488	
473.69	6233.3	
473.89	5294.7	
474.09	4973.8	
474.29	6993.1	
474.49	6733	
474.69	5309.7	
474.89	4973.2	
475.09	6408.1	
475.29	6448.4	
475.49	4864.6	
475.69	4919.2	
475.88	7060.7	
476.08	6634.1	
476.28	4673.5	
476.48	4794.3	
476.68	6944.7	
476.88	6554.2	
477.08	4958.8	
477.28	4997.7	
477.48	6539.8	
477.68	6584.2	
477.88	4827.7	
478.08	4913.8	
478.28	6895.5	
478.48	6510.5	
478.67	5034.6	
478.87	4646.8	
479.07	6701	
479.27	6606.7	
479.47	5063.3	
479.67	5102.9	
479.87	6759	
480.07	6924.2	
480.27	4825	
480.47	5366.4	
480.67	6487.3	
480.87	6965.8	
481.06	4863.9	
481.26	5184.8	
481.46	6696.9	
481.66	6493.4	
481.86	5198.4	
482.06	5404.6	
482.26	6535.1	
482.46	6720.1	
482.66	5046.9	
482.86	4889.9	
483.05	6907.8	
483.25	6358.9	
483.45	6090.7	
483.65	5035.3	
483.85	6287.9	
484.05	6549.4	
484.25	5275.6	
484.45	5380.7	
484.65	6600.6	
484.84	7078.5	
485.04	5159.5	
485.24	5102.2	
485.44	7182.9	
485.64	6435.4	
485.84	4872.1	
486.04	5412.1	
486.24	6598.6	
486.44	6645.7	
486.63	4847.5	
486.83	5243.5	
487.03	6762.4	
487.23	6660.7	
487.43	4897.4	
487.63	5857.2	
487.83	6741.9	
488.02	6519.4	
488.22	5302.9	
488.42	5619.6	
488.62	7121.5	
488.82	6596.5	
489.02	5208.7	
489.22	5266	
489.41	6716	
489.61	7027.9	
489.81	5067.4	
490.01	5116.5	
490.21	7120.1	
490.41	7488.1	
490.61	5178.6	
490.8	5149.3	
491	6813.6	
491.2	6621.1	
491.4	5393	
491.6	5027.1	
491.8	6841.6	
491.99	6800.6	
492.19	4987.5	
492.39	5067.4	
492.59	6957.6	
492.79	7179.5	
492.99	5571.8	
493.18	5177.3	
493.38	7374.7	
493.58	7580.9	
493.78	5518.6	
493.98	5352.7	
494.18	7019.1	
494.37	6580.1	
494.57	5670.8	
494.77	5563	
494.97	7268.9	
495.17	7492.2	
495.37	5518.6	
495.56	5558.2	
495.76	7256.6	
495.96	7462.8	
496.16	6127.5	
496.36	5771.2	
496.55	7615	
496.75	7242.3	
496.95	5835.3	
497.15	5846.3	
497.35	7662.8	
497.54	7572.7	
497.74	5708.4	
497.94	6533.7	
498.14	7946.1	
498.34	7545.4	
498.53	5641.5	
498.73	5929.6	
498.93	7229.3	
499.13	7602.1	
499.33	5995.1	
499.52	6056.5	
499.72	7832.1	
499.92	7588.4	
500.12	5736.4	
500.32	5997.1	
500.51	7559.1	
500.71	7571.3	
500.91	6268.1	
501.11	6072.2	
501.31	7709.9	
501.5	8005.5	
501.7	6472.3	
501.9	6021	
502.1	7595.9	
502.29	7818.5	
502.49	6239.5	
502.69	6338.5	
502.89	7699	
503.09	7713.3	
503.28	5786.9	
503.48	5690.6	
503.68	7512.6	
503.88	7288	
504.07	6107	
504.27	5933.6	
504.47	7534.5	
504.67	7524.9	
504.86	6154.8	
505.06	5948.7	
505.26	7512.6	
505.46	7972.7	
505.65	5902.2	
505.85	5921.4	
506.05	7478.5	
506.25	7598.6	
506.44	5616.2	
506.64	5884.5	
506.84	7259.4	
507.04	7531.1	
507.23	5705.6	
507.43	5793	
507.63	7922.9	
507.83	7102.4	
508.02	5896.1	
508.22	5625.8	
508.42	8146.1	
508.62	7102.4	
508.81	5748	
509.01	5950	
509.21	7111.9	
509.4	7432.1	
509.6	5833.3	
509.8	5616.9	
510	7236.2	
510.19	7533.1	
510.39	5490.6	
510.59	5643.5	
510.79	7194.5	
510.98	7798.7	
511.18	5843.5	
511.38	5790.3	
511.57	7755.7	
511.77	7308.5	
511.97	6000.5	
512.17	5611.4	
512.36	7673.1	
512.56	7448.5	
512.76	5616.2	
512.95	5452.4	
513.15	7731.8	
513.35	6889.4	
513.55	5950.7	
513.74	5602.6	
513.94	7601.4	
514.14	7271.7	
514.33	6045.6	
514.53	5934.3	
514.73	7436.2	
514.92	7397.3	
515.12	5600.5	
515.32	5617.6	
515.51	7484.6	
515.71	7325.6	
515.91	6479.1	
516.11	5688.6	
516.3	8191.2	
516.5	7348.8	
516.7	6014.9	
516.89	6109.1	
517.09	7363.8	
517.29	7490.1	
517.48	6221.7	
517.68	5783.5	
517.88	6819.7	
518.07	7503.1	
518.27	6016.9	
518.47	5612.8	
518.66	7748.1	
518.86	7314	
519.06	5674.2	
519.25	5827.8	
519.45	7331	
519.65	7925	
519.84	6120.7	
520.04	6337.1	
520.24	8178.9	
520.43	7636.2	
520.63	5909.1	
520.83	5917.3	
521.02	7364.5	
521.22	7490.8	
521.42	5971.9	
521.61	6237.4	
521.81	7280.5	
522.01	7595.2	
522.2	6047	
522.4	5850.4	
522.6	7832.1	
522.79	7073.7	
522.99	5866.7	
523.18	5668.8	
523.38	7628.7	
523.58	7628	
523.77	6509.8	
523.97	5725.4	
524.17	8409	
524.36	8312.7	
524.56	6419.7	
524.76	6297.5	
524.95	7836.9	
525.15	7632.8	
525.34	6223.8	
525.54	6337.8	
525.74	8049.2	
525.93	7565.9	
526.13	6825.2	
526.33	6281.1	
526.52	8297.7	
526.72	7938.6	
526.91	6875	
527.11	6567.8	
527.31	8153	
527.5	8279.3	
527.7	6585.6	
527.89	6126.2	
528.09	7772	
528.29	8099.7	
528.48	6730.3	
528.68	6490.7	
528.87	8269.7	
529.07	8220.5	
529.27	6648.4	
529.46	6279.8	
529.66	8094.3	
529.85	8270.4	
530.05	6384.9	
530.25	6642.9	
530.44	8773.5	
530.64	8109.3	
530.83	6636.8	
531.03	6578.8	
531.23	8595.3	
531.42	8197.3	
531.62	6877.1	
531.81	6578.8	
532.01	8172.1	
532.21	8378.2	
532.4	6599.9	
532.6	6716	
532.79	8837.7	
532.99	8490.9	
533.18	6908.5	
533.38	7189.1	
533.58	8423.3	
533.77	8499.8	
533.97	6813.6	
534.16	7150.1	
534.36	8865	
534.55	8452.6	
534.75	7217.7	
534.95	6924.9	
535.14	8826.7	
535.34	8380.3	
535.53	6756.2	
535.73	7476.5	
535.92	9080.7	
536.12	8310.7	
536.31	6767.2	
536.51	7337.2	
536.71	8723.7	
536.9	8387.8	
537.1	6789	
537.29	6956.9	
537.49	8774.2	
537.68	8387.8	
537.88	7205.4	
538.07	6624.5	
538.27	8645.8	
538.46	8964	
538.66	6750.8	
538.86	6922.1	
539.05	8682	
539.25	8830.2	
539.44	7210.2	
539.64	6819.7	
539.83	8549.6	
540.03	8897.1	
540.22	6794.5	
540.42	6779.5	
540.61	8641.1	
540.81	8695.7	
541	6883.2	
541.2	7230.7	
541.39	8358.4	
541.59	8432.2	
541.78	7174.7	
541.98	6793.8	
542.18	8211	
542.37	8181	
542.57	6843.6	
542.76	7032.7	
542.96	8190.5	
543.15	8351.6	
543.35	6797.2	
543.54	6476.4	
543.74	7745.4	
543.93	8354.3	
544.13	6687.3	
544.32	7231.4	
544.52	8584.4	
544.71	8128.4	
544.91	6367.1	
545.1	6812.9	
545.3	8125.7	
545.49	8280.6	
545.69	6293.4	
545.88	6648.4	
546.08	8861.6	
546.27	8471.1	
546.47	6791.1	
546.66	6400.6	
546.86	8391.2	
547.05	8559.1	
547.24	6550.1	
547.44	6555.5	
547.63	7993.9	
547.83	8329.8	
548.02	6675	
548.22	6727.6	
548.41	7890.1	
548.61	8424.7	
548.8	6478.4	
549	6440.9	
549.19	8271.1	
549.39	8362.5	
549.58	6294.8	
549.78	6559	
549.97	8288.1	
550.17	7905.8	
550.36	6890	
550.55	7225.2	
550.75	8027.4	
550.94	8499.8	
551.14	6414.9	
551.33	6451.8	
551.53	7692.9	
551.72	8051.2	
551.92	6519.4	
552.11	6401.3	
552.31	8305.2	
552.5	8097.7	
552.69	7085.3	
552.89	6173.3	
553.08	8177.5	
553.28	7975.5	
553.47	6371.2	
553.67	6822.5	
553.86	8284.7	
554.06	7475.8	
554.25	6137.1	
554.44	6324.1	
554.64	8751.7	
554.83	8473.8	
555.03	6236.7	
555.22	6453.1	
555.42	8359.8	
555.61	8156.4	
555.8	6362.4	
556	6438.8	
556.19	7780.9	
556.39	7957.7	
556.58	6303.6	
556.78	6397.9	
556.97	8058.1	
557.16	7845.8	
557.36	6897.6	
557.55	6238.8	
557.75	7531.1	
557.94	8449.9	
558.13	6238.8	
558.33	6094.8	
558.52	8314.8	
558.72	7456.7	
558.91	6227.9	
559.1	6180.8	
559.3	7557.7	
559.49	7559.1	
559.69	6096.8	
559.88	6324.1	
560.07	7931.8	
560.27	8179.6	
560.46	6477.7	
560.66	6465.4	
560.85	7870.3	
561.04	7397.9	
561.24	6066.1	
561.43	6191.7	
561.63	7613	
561.82	7822.6	
562.01	6619.7	
562.21	6297.5	
562.4	7805.5	
562.59	8231.5	
562.79	6215.6	
562.98	6045.6	
563.18	7926.3	
563.37	8466.3	
563.56	6327.5	
563.76	6163.7	
563.95	7630.7	
564.14	7686.7	
564.34	6326.2	
564.53	6085.2	
564.73	8011.7	
564.92	7955	
565.11	6331.6	
565.31	6049.7	
565.5	8256	
565.69	7649.8	
565.89	6204.7	
566.08	6357.6	
566.27	7972.1	
566.47	8259.5	
566.66	6665.5	
566.85	6008.7	
567.05	7847.1	
567.24	7712	
567.44	6151.4	
567.63	6722.1	
567.82	8052.6	
568.02	7901.1	
568.21	6183.5	
568.4	6350.8	
568.6	7951.6	
568.79	7864.9	
568.98	6173.9	
569.18	6181.5	
569.37	7884	
569.56	8571.4	
569.76	6407.4	
569.95	6729.6	
570.14	8097.7	
570.34	7774.8	
570.53	6232	
570.72	6105.7	
570.91	8284	
571.11	7931.1	
571.3	6457.9	
571.49	6698.9	
571.69	8014.4	
571.88	7645.1	
572.07	6572.6	
572.27	6495.5	
572.46	7653.9	
572.65	8086.1	
572.85	6253.8	
573.04	6436.8	
573.23	8251.3	
573.43	7985.7	
573.62	6193.7	
573.81	6489.3	
574	8139.3	
574.2	7879.9	
574.39	6470.9	
574.58	6369.9	
574.78	8316.1	
574.97	8115.4	
575.16	6578.1	
575.36	6754.2	
575.55	8390.5	
575.74	8363.9	
575.93	6242.9	
576.13	6765.1	
576.32	8176.9	
576.51	8303.1	
576.71	6598.6	
576.9	7057.3	
577.09	8415.1	
577.28	8227.4	
577.48	6595.1	
577.67	6237.4	
577.86	8260.8	
578.05	8173.4	
578.25	6557.6	
578.44	6506.4	
578.63	8151.6	
578.83	8625.4	
579.02	6350.8	
579.21	7030.7	
579.4	8221.2	
579.6	8148.9	
579.79	6658.6	
579.98	7491.5	
580.17	8357.8	
580.37	8487.5	
580.56	6427.9	
580.75	6821.8	
580.94	8332.5	
581.14	8740.7	
581.33	6946	
581.52	6492.1	
581.71	8319.5	
581.91	8709.3	
582.1	6489.3	
582.29	6607.4	
582.48	8094.3	
582.68	8267	
582.87	6812.9	
583.06	6746	
583.25	8510.7	
583.45	8008.9	
583.64	7040.9	
583.83	7301	
584.02	8311.3	
584.21	8555	
584.41	6896.2	
584.6	6645.7	
584.79	8320.2	
584.98	8425.3	
585.18	6494.8	
585.37	6451.1	
585.56	8249.2	
585.75	8529.8	
585.94	6632.7	
586.14	6823.8	
586.33	8595.3	
586.52	8237.6	
586.71	6805.4	
586.91	6581.5	
587.1	7864.2	
587.29	8383	
587.48	6500.3	
587.67	6492.7	
587.87	8376.9	
588.06	8114.7	
588.25	7018.4	
588.44	6634.1	
588.63	7964.6	
588.83	8291.5	
589.02	6486.6	
589.21	6343.2	
589.4	7974.1	
589.59	7952.3	
589.78	5978	
589.98	5987.6	
590.17	7437.5	
590.36	7580.9	
590.55	5571.8	
590.74	5944.6	
590.94	7960.5	
591.13	7439.6	
591.32	5866.1	
591.51	5519.3	
591.7	7493.5	
591.89	7462.1	
592.09	5588.9	
592.28	5794.4	
592.47	6961.7	
592.66	7963.2	
592.85	5651	
593.05	5741.8	
593.24	7432.1	
593.43	7874.4	
593.62	5812.8	
593.81	6004	
594	7514	
594.19	7515.4	
594.39	5802.6	
594.58	5774.6	
594.77	7638.9	
594.96	7788.4	
595.15	5760.9	
595.34	6029.9	
595.54	7430	
595.73	7131	
595.92	5522	
596.11	5905.7	
596.3	7731.8	
596.49	7206.8	
596.68	5838.1	
596.88	5933	
597.07	7638.9	
597.26	7206.1	
597.45	5623	
597.64	6032.6	
597.83	7268.2	
598.02	7484.6	
598.22	5707	
598.41	5935	
598.6	7389.8	
598.79	7197.9	
598.98	5732.3	
599.17	6100.9	
599.36	7545.4	
599.55	7842.4	
599.74	6522.8	
599.94	6397.2	
600.13	7630.7	
600.32	7093.5	
600.51	5531.6	
600.7	5603.2	
600.89	7905.8	
601.08	8039.6	
601.27	5626.5	
601.47	5988.9	
601.66	7552.2	
601.85	7761.8	
602.04	5934.3	
602.23	5901.6	
602.42	7242.3	
602.61	7442.3	
602.8	5769.8	
602.99	5593.7	
603.18	7436.2	
603.37	7424.6	
603.57	5893.4	
603.76	6206	
603.95	7801.4	
604.14	7499.7	
604.33	5883.8	
604.52	5847.6	
604.71	7531.1	
604.9	7193.8	
605.09	6150.1	
605.28	6023.8	
605.47	7837.6	
605.66	7372.7	
605.86	5930.9	
606.05	5694.7	
606.24	7898.3	
606.43	7050.5	
606.62	5922.7	
606.81	6122.7	
607	7679.9	
607.19	7275.1	
607.38	5563.6	
607.57	5689.9	
607.76	7232.1	
607.95	6829.3	
608.14	5948	
608.33	6126.8	
608.52	7180.9	
608.72	7593.9	
608.91	5463.3	
609.1	5511.8	
609.29	7295.5	
609.48	6935.1	
609.67	5987.6	
609.86	5522	
610.05	7036.8	
610.24	6997.9	
610.43	5440.1	
610.62	5309.7	
610.81	7707.9	
611	7661.5	
611.19	5531.6	
611.38	5875.6	
611.57	7430	
611.76	7766.6	
611.95	5400.5	
612.14	5315.2	
612.33	7209.5	
612.52	6798.6	
612.71	5683.1	
612.9	5386.8	
613.09	6875.7	
613.28	7958.4	
613.47	5547.3	
613.66	5907	
613.85	7255.3	
614.04	6994.5	
614.24	5552	
614.43	5229.8	
614.62	7320.8	
614.81	7342.7	
615	5717.9	
615.19	5778	
615.38	6997.2	
615.57	7228.6	
615.76	5825.1	
615.95	6128.2	
616.14	7481.9	
616.33	7238.2	
616.52	5862.7	
616.71	5890	
616.9	7333.1	
617.09	7073.7	
617.28	5604.6	
617.47	6015.6	
617.66	7031.4	
617.85	7019.1	
618.04	5906.3	
618.22	5679.7	
618.41	6903.7	
618.6	7675.1	
618.79	5834.7	
618.98	5692.7	
619.17	7760.4	
619.36	6915.3	
619.55	5814.2	
619.74	5851.7	
619.93	7453.2	
620.12	7169.3	
620.31	6045.6	
620.5	6075.6	
620.69	7580.9	
620.88	7984.3	
621.07	6432	
621.26	6057.2	
621.45	7591.8	
621.64	7550.2	
621.83	6047.7	
622.02	5753.4	
622.21	7503.8	
622.4	7548.8	
622.59	6331.6	
622.78	6253.1	
622.97	7346.7	
623.16	7731.8	
623.35	6206	
623.54	5713.2	
623.72	7452.6	
623.91	7465.5	
624.1	6167.1	
624.29	5666.7	
624.48	8037.6	
624.67	7667.6	
624.86	6166.4	
625.05	5744.6	
625.24	8157.7	
625.43	7456.7	
625.62	6815.6	
625.81	5864.7	
626	7669.6	
626.19	7453.9	
626.38	6054.5	
626.56	5952.1	
626.75	7161.7	
626.94	7672.4	
627.13	6238.1	
627.32	5613.5	
627.51	7694.9	
627.7	8093.6	
627.89	5695.4	
628.08	6198.5	
628.27	7133.8	
628.46	7331	
628.65	5710.4	
628.83	5574.6	
629.02	7551.5	
629.21	7176.1	
629.4	5978	
629.59	6025.8	
629.78	7186.3	
629.97	7636.2	
630.16	6020.3	
630.35	5867.4	
630.54	8127	
630.72	7845.1	
630.91	5844.2	
631.1	6069.5	
631.29	7369.3	
631.48	7416.4	
631.67	6135	
631.86	5871.5	
632.05	7567.2	
632.24	7434.1	
632.42	5709.7	
632.61	5994.4	
632.8	7264.8	
632.99	7009.5	
633.18	5995.1	
633.37	6105.7	
633.56	7497.6	
633.75	7619.8	
633.93	6062	
634.12	5926.1	
634.31	8028.7	
634.5	7671	
634.69	5981.4	
634.88	6090.7	
635.07	7466.2	
635.25	7770.7	
635.44	6361.7	
635.63	6352.1	
635.82	7444.4	
636.01	6534.4	
636.2	6240.2	
636.39	6066.1	
636.57	7948.8	
636.76	7357.7	
636.95	5816.9	
637.14	6315.3	
637.33	7627.3	
637.52	7836.9	
637.7	5730.2	
637.89	6221.7	
638.08	7480.5	
638.27	7998	
638.46	6096.1	
638.65	6238.8	
638.83	7950.9	
639.02	7261.4	
639.21	6063.4	
639.4	6231.3	
639.59	7428.7	
639.78	7277.8	
639.96	5667.4	
640.15	5739.8	
640.34	7477.8	
640.53	7144.7	
640.72	5659.9	
640.91	5792.3	
641.09	7070.3	
641.28	7676.5	
641.47	5870.8	
641.66	6069.5	
641.85	7322.9	
642.03	7405.5	
642.22	5922.7	
642.41	5760.9	
642.6	7075.7	
642.79	6829.3	
642.97	5707.7	
643.16	5918.6	
643.35	7061.4	
643.54	6983.6	
643.73	5611.4	
643.91	5879.7	
644.1	6855.2	
644.29	7279.2	
644.48	5524.1	
644.67	5528.8	
644.85	6513.9	
645.04	7137.9	
645.23	5377.3	
645.42	5561.6	
645.6	6829.3	
645.79	7270.3	
645.98	5356.8	
646.17	4930.8	
646.36	6331.6	
646.54	6743.3	
646.73	5588.2	
646.92	5227.8	
647.11	6585.6	
647.29	6948.1	
647.48	5107.6	
647.67	5031.2	
647.86	7178.1	
648.05	7092.1	
648.23	5187.5	
648.42	5694.7	
648.61	6929	
648.8	6863.4	
648.98	5098.8	
649.17	5265.3	
649.36	6591.7	
649.55	6334.4	
649.73	5180	
649.92	5442.8	
650.11	6533.7	
650.3	6627.2	
650.48	5155.4	
650.67	5056.4	
650.86	6813.6	
651.05	6322.1	
651.23	5063.9	
651.42	5104.2	
651.61	6578.8	
651.79	6453.8	
651.98	5143.8	
652.17	5012.1	
652.36	6782.2	
652.54	6232.7	
652.73	5100.8	
652.92	5044.1	
653.11	6666.8	
653.29	6826.6	
653.48	4756.1	
653.67	5111.7	
653.85	6501.6	
654.04	6982.2	
654.23	5226.4	
654.42	5002.5	
654.6	6409.5	
654.79	6580.1	
654.98	4707.6	
655.16	4967	
655.35	6136.4	
655.54	5801.9	
655.73	4704.2	
655.91	4580.6	
656.1	6384.9	
656.29	5837.4	
656.47	4500.8	
656.66	5150.6	
656.85	6182.1	
657.03	6079.1	
657.22	4700.1	
657.41	4821.6	
657.59	6122.7	
657.78	6156.2	
657.97	4663.9	
658.16	4933.6	
658.34	6573.3	
658.53	6769.2	
658.72	5287.2	
658.9	5500.8	
659.09	6441.5	
659.28	6358.9	
659.46	4840.7	
659.65	4863.9	
659.84	6207.4	
660.02	6664.1	
660.21	4883.7	
660.4	4788.8	
660.58	6712.6	
660.77	6219	
660.96	5064.6	
661.14	4638	
661.33	6899.6	
661.52	6829.3	
661.7	4627	
661.89	5958.9	
662.08	6226.5	
662.26	5815.5	
662.45	4797	
662.64	4780	
662.82	6664.8	
663.01	6096.8	
663.2	4730.1	
663.38	5104.2	
663.57	6464.8	
663.75	6328.9	
663.94	4894	
664.13	5380.7	
664.31	6232.7	
664.5	6450.4	
664.69	5150	
664.87	5242.1	
665.06	6005.3	
665.25	6345.3	
665.43	5351.3	
665.62	5295.4	
665.8	6363.7	
665.99	6175.3	
666.18	4928.1	
666.36	4868.7	
666.55	6442.9	
666.74	6313.2	
666.92	4772.4	
667.11	5437.4	
667.29	6328.2	
667.48	6389	
667.67	5247.6	
667.85	4789.5	
668.04	6166.4	
668.22	6121.4	
668.41	4977.2	
668.6	5085.1	
668.78	6020.3	
668.97	6204	
669.15	5010.7	
669.34	4569.7	
669.53	6055.2	
669.71	6209.4	
669.9	4644.8	
670.08	4902.8	
670.27	6028.5	
670.46	6317.3	
670.64	4992.9	
670.83	5107	
671.01	5846.3	
671.2	6168.5	
671.38	4795.7	
671.57	4752.7	
671.76	6602	
671.94	6775.4	
672.13	4579.3	
672.31	4988.2	
672.5	6470.9	
672.69	6067.4	
672.87	4728.8	
673.06	4885.1	
673.24	6253.1	
673.43	6158.2	
673.61	4917.9	
673.8	4786.1	
673.98	6301.6	
674.17	6306.4	
674.36	5083.7	
674.54	5029.1	
674.73	5838.8	
674.91	6464.8	
675.1	4844.8	
675.28	4625	
675.47	6128.9	
675.65	6406	
675.84	4906.3	
676.03	4898.7	
676.21	6156.2	
676.4	5767.8	
676.58	5155.4	
676.77	5047.6	
676.95	6828.6	
677.14	6079.7	
677.32	4568.3	
677.51	4635.2	
677.69	6383.5	
677.88	6000.5	
678.06	4678.9	
678.25	4724.7	
678.44	6169.8	
678.62	6030.6	
678.81	4620.2	
678.99	4958.1	
679.18	6502.3	
679.36	6234.7	
679.55	4732.9	
679.73	5010.7	
679.92	6251.8	
680.1	6031.3	
680.29	5278.3	
680.47	4696	
680.66	6063.4	
680.84	6332.3	
681.03	4530.1	
681.21	5046.9	
681.4	5926.1	
681.58	6031.3	
681.77	4702.8	
681.95	4683.7	
682.14	6378.7	
682.32	6431.3	
682.51	5045.5	
682.69	4505.5	
682.88	5978.7	
683.06	6071.5	
683.25	4891.9	
683.43	5042.8	
683.62	6241.5	
683.8	6356.9	
683.99	5223	
684.17	4811.4	
684.36	6565.8	
684.54	5887.2	
684.73	4427.7	
684.91	4439.3	
685.1	6082.5	
685.28	5669.5	
685.46	4636.6	
685.65	4519.9	
685.83	5947.3	
686.02	5663.3	
686.2	4256.4	
686.39	4257.7	
686.57	5529.5	
686.76	6100.2	
686.94	4323.3	
687.13	4442.7	
687.31	5881.1	
687.5	5849	
687.68	4248.9	
687.86	4633.2	
688.05	6595.8	
688.23	5572.5	
688.42	4682.3	
688.6	4427.7	
688.79	5711.8	
688.97	5756.8	
689.16	4581.3	
689.34	4185.4	
689.52	5928.9	
689.71	6285.2	
689.89	4673.5	
690.08	4414.1	
690.26	5918.6	
690.45	5688.6	
690.63	4792.2	
690.81	4573.1	
691	5992.4	
691.18	5814.9	
691.37	4672.1	
691.55	5340.4	
691.74	5712.5	
691.92	6557.6	
692.1	4498.7	
692.29	4347.2	
692.47	5895.4	
692.66	5634.6	
692.84	4369	
693.02	4616.8	
693.21	5550	
693.39	5817.6	
693.58	4688.5	
693.76	4407.2	
693.94	6320.7	
694.13	6236.1	
694.31	4517.8	
694.5	4941.1	
694.68	5778.7	
694.86	6131.6	
695.05	4741	
695.23	4847.5	
695.42	6061.3	
695.6	7035.5	
695.78	4904.9	
695.97	4624.3	
696.15	6290.7	
696.34	5915.2	
696.52	4571.1	
696.7	4805.9	
696.89	6068.1	
697.07	5734.3	
697.25	4704.2	
697.44	5316.5	
697.62	6040.8	
697.81	6016.2	
697.99	4612	
698.17	4785.4	
698.36	5817.6	
698.54	6055.2	
698.72	4696	
698.91	4277.5	
699.09	5858.6	
699.28	5677.7	
699.46	4621.6	
699.64	4523.3	
699.83	5821	
700.01	6110.5	
700.19	4889.2	
700.38	4226.3	
700.56	5968.5	
700.74	5856.5	
700.93	4318.5	
701.11	4764.9	
701.29	5997.1	
701.48	6515.3	
701.66	4486.4	
701.84	4594.3	
702.03	5994.4	
702.21	6343.2	
702.39	4453.6	
702.58	4629.8	
702.76	6268.8	
702.94	6158.9	
703.13	4296.6	
703.31	5430.5	
703.49	5951.4	
703.68	6281.1	
703.86	4414.1	
704.04	4890.5	
704.23	6193.1	
704.41	6178	
704.59	4615.4	
704.78	4980	
704.96	6866.8	
705.14	6130.3	
705.33	4444.1	
705.51	4758.1	
705.69	5846.3	
705.87	6253.8	
706.06	4887.8	
706.24	4424.3	
706.42	5980.1	
706.61	6236.1	
706.79	4892.6	
706.97	4374.5	
707.16	5786.9	
707.34	6053.1	
707.52	4853.7	
707.7	4436.6	
707.89	5578.7	
708.07	5808	
708.25	4948.6	
708.44	4907.6	
708.62	5806	
708.8	6320.7	
708.98	4955.4	
709.17	4567.7	
709.35	5888.6	
709.53	6083.1	
709.72	4404.5	
709.9	4469.4	
710.08	6291.4	
710.26	6249	
710.45	5104.2	
710.63	4554.7	
710.81	5870.2	
710.99	6009.4	
711.18	4889.9	
711.36	4513	
711.54	5831.9	
711.72	6205.3	
711.91	4610	
712.09	4444.1	
712.27	5915.9	
712.45	6213.5	
712.64	4595	
712.82	4164.9	
713	5655.1	
713.18	5605.3	
713.37	4160.1	
713.55	4595.6	
713.73	6008.7	
713.91	5400.5	
714.1	4194.9	
714.28	3947.8	
714.46	5627.8	
714.64	5299.5	
714.83	3730	
715.01	3865.9	
715.19	5304.9	
715.37	4823.6	
715.55	3703.4	
715.74	3740.3	
715.92	5396.4	
716.1	4468.7	
716.28	4229.1	
716.47	3774.4	
716.65	5070.8	
716.83	4904.9	
717.01	3614	
717.19	3648.8	
717.38	5758.9	
717.56	4742.4	
717.74	3796.9	
717.92	3433.8	
718.1	5355.4	
718.29	5033.9	
718.47	3296.5	
718.65	3592.8	
718.83	5382.7	
719.01	5384.8	
719.2	3435.8	
719.38	3922.5	
719.56	5319.3	
719.74	5978.7	
719.92	3824.2	
720.11	4209.3	
720.29	5388.2	
720.47	4955.4	
720.65	3538.9	
720.83	3855.6	
721.02	5096	
721.2	5011.4	
721.38	3796.3	
721.56	3523.9	
721.74	4668.7	
721.92	4684.4	
722.11	3851.5	
722.29	3872	
722.47	5278.3	
722.65	4898.7	
722.83	3493.2	
723.01	3736.9	
723.2	4627.7	
723.38	4942.4	
723.56	3251.5	
723.74	3649.5	
723.92	4479.6	
724.1	5102.9	
724.29	3358	
724.47	3888.4	
724.65	4802.5	
724.83	4676.9	
725.01	3627	
725.19	3611.9	
725.37	4674.1	
725.56	4605.9	
725.74	3346.4	
725.92	3459.7	
726.1	4592.9	
726.28	4918.5	
726.46	3532.7	
726.64	3466.5	
726.83	4949.9	
727.01	4902.8	
727.19	3347.1	
727.37	3648.8	
727.55	4914.4	
727.73	5152.7	
727.91	3297.2	
728.09	3258.3	
728.28	4773.8	
728.46	5139	
728.64	3627	
728.82	3614	
729	5497.4	
729.18	5375.2	
729.36	3266.5	
729.54	4271.4	
729.72	5719.3	
729.91	4948.6	
730.09	4265.2	
730.27	3680.2	
730.45	5051.7	
730.63	5183.4	
730.81	3918.4	
730.99	3632.4	
731.17	5593	
731.35	4869.4	
731.53	3808.5	
731.71	3663.1	
731.9	5409.4	
732.08	5337.7	
732.26	3721.2	
732.44	3562.1	
732.62	5408	
732.8	5255.1	
732.98	3929.4	
733.16	3557.3	
733.34	5230.5	
733.52	4526	
733.7	3674.7	
733.88	3781.9	
734.07	5152	
734.25	5058.5	
734.43	3446	
734.61	4031.1	
734.79	5599.8	
734.97	4956.1	
735.15	3553.2	
735.33	3656.3	
735.51	5179.3	
735.69	4926.7	
735.87	4099.4	
736.05	3733.4	
736.23	5050.3	
736.41	4856.4	
736.59	3706.1	
736.77	3715	
736.95	5227.1	
737.13	4904.9	
737.32	3532.1	
737.5	3623.5	
737.68	5597.1	
737.86	4933.6	
738.04	3461.7	
738.22	4171.7	
738.4	4939	
738.58	5040.7	
738.76	3696.6	
738.94	3250.1	
739.12	4890.5	
739.3	4898.1	
739.48	3897.3	
739.66	3743.7	
739.84	5026.4	
740.02	4894.6	
740.2	3258.3	
740.38	3381.9	
740.56	5124.7	
740.74	4375.1	
740.92	3730.7	
741.1	3596.2	
741.28	4955.4	
741.46	4769	
741.64	3515.7	
741.82	3723.9	
742	4999.8	
742.18	4833.9	
742.36	3476.8	
742.54	3392.1	
742.72	5188.9	
742.9	4489.1	
743.08	3664.5	
743.26	3157.3	
743.44	5121.3	
743.62	5054.4	
743.8	3753.9	
743.98	3404.4	
744.16	4924	
744.34	4756.7	
744.52	3609.2	
744.7	3689.8	
744.88	5049.6	
745.06	4804.5	
745.24	3711.6	
745.42	3737.5	
745.6	5094	
745.78	5025.7	
745.96	3144.3	
746.14	3297.2	
746.32	5323.4	
746.5	4713.1	
746.68	3465.8	
746.86	3295.2	
747.03	5079	
747.21	4444.8	
747.39	3508.9	
747.57	3196.2	
747.75	4737	
747.93	4905.6	
748.11	3189.4	
748.29	3220.8	
748.47	5654.4	
748.65	4805.9	
748.83	3509.5	
749.01	3431.7	
749.19	4950.6	
749.37	4401.1	
749.55	3416.7	
749.73	3374.4	
749.91	4818.9	
750.09	4771.1	
750.26	3381.9	
750.44	3181.2	
750.62	4718.5	
750.8	4654.4	
750.98	3159.3	
751.16	3251.5	
751.34	4851.6	
751.52	4465.9	
751.7	3601.7	
751.88	3094.5	
752.06	4999.8	
752.24	4854.4	
752.42	3044	
752.59	3213.3	
752.77	4788.8	
752.95	5285.1	
753.13	3539.6	
753.31	3266.5	
753.49	4588.8	
753.67	4709.6	
753.85	3434.4	
754.03	3145.7	
754.21	4849.6	
754.38	4980	
754.56	3168.9	
754.74	2770.9	
754.92	4481.6	
755.1	4659.1	
755.28	2695.8	
755.46	2700.6	
755.64	5058.5	
755.82	5017.5	
755.99	2745	
756.17	2702.6	
756.35	3763.5	
756.53	4435.9	
756.71	2169.5	
756.89	2759.3	
757.07	4238.6	
757.25	3827	
757.42	2875.3	
757.6	3255.6	
757.78	4342.4	
757.96	3869.3	
758.14	2674	
758.32	2522.4	
758.5	3652.9	
758.67	4152.6	
758.85	2652.1	
759.03	2631	
759.21	4177.2	
759.39	3751.2	
759.57	2411.8	
759.75	2888.3	
759.92	4521.2	
760.1	4231.8	
760.28	3102	
760.46	3185.3	
760.64	4130.1	
760.82	4015.4	
760.99	3043.3	
761.17	2758.6	
761.35	4570.4	
761.53	3984	
761.71	2877.4	
761.89	3067.2	
762.06	4300.7	
762.24	4251.6	
762.42	2949.8	
762.6	2747	
762.78	4200.4	
762.96	4135.5	
763.13	3099.9	
763.31	2853.5	
763.49	4539.7	
763.67	4237.9	
763.85	3257.6	
764.02	3515.7	
764.2	4761.5	
764.38	4057	
764.56	2886.3	
764.74	3274	
764.91	4650.9	
765.09	4185.4	
765.27	2753.2	
765.45	2682.2	
765.63	4876.9	
765.8	4481	
765.98	2624.1	
766.16	2678.1	
766.34	3816.7	
766.52	3872	
766.69	3032.4	
766.87	2626.2	
767.05	4287.1	
767.23	4601.8	
767.41	2720.4	
767.58	2833	
767.76	4519.2	
767.94	4463.2	
768.12	2830.3	
768.29	3048.1	
768.47	3938.9	
768.65	4508.9	
768.83	2615.9	
769	3054.2	
769.18	3973.1	
769.36	4337.6	
769.54	3083.6	
769.72	2575	
769.89	4556	
770.07	4422.9	
770.25	2767.5	
770.43	3351.2	
770.6	4652.3	
770.78	4724.7	
770.96	2880.1	
771.14	3048.1	
771.31	4437.9	
771.49	4177.9	
771.67	2499.2	
771.85	2551.8	
772.02	3768.3	
772.2	4096.6	
772.38	2872.6	
772.55	2654.9	
772.73	4253.6	
772.91	4126.7	
773.09	2790	
773.26	2857.6	
773.44	4220.2	
773.62	4128	
773.8	2663	
773.97	2521	
774.15	4235.2	
774.33	4186.7	
774.5	2538.1	
774.68	2646.7	
774.86	4234.5	
775.04	4083	
775.21	2577.7	
775.39	2526.5	
775.57	4125.3	
775.74	4201.7	
775.92	2422.1	
776.1	2340.8	
776.27	4190.8	
776.45	4668	
776.63	2560.6	
776.81	2382.5	
776.98	4064.5	
777.16	4455.7	
777.34	2581.8	
777.51	2723.8	
777.69	4079.6	
777.87	3898.6	
778.04	2734.7	
778.22	2835.8	
778.4	3904.8	
778.57	4210.6	
778.75	2348.3	
778.93	2443.2	
779.1	3891.8	
779.28	3650.2	
779.46	2280.8	
779.64	2433.7	
779.81	4320.5	
779.99	4619.5	
780.17	2761.3	
780.34	2800.3	
780.52	4042	
780.69	4077.5	
780.87	2633.7	
781.05	2425.5	
781.22	4192.9	
781.4	4085.7	
781.58	2523.1	
781.75	2169.5	
781.93	4132.8	
782.11	3682.9	
782.28	2828.2	
782.46	2510.8	
782.64	3690.4	
782.81	4193.6	
782.99	2590	
783.17	2467.1	
783.34	3863.8	
783.52	3886.4	
783.69	2550.4	
783.87	2936.1	
784.05	3876.1	
784.22	3744.4	
784.4	2921.8	
784.58	2622.8	
784.75	4302.1	
784.93	3930.1	
785.1	2458.2	
785.28	2836.4	
785.46	4213.4	
785.63	3707.5	
785.81	2506	
785.99	2385.9	
786.16	3999.7	
786.34	3941	
786.51	2430.9	
786.69	2596.1	
786.87	3664.5	
787.04	3810.6	
787.22	2370.9	
787.39	2715.6	
787.57	3794.9	
787.75	4215.4	
787.92	2944.3	
788.1	2793.4	
788.27	3724.6	
788.45	3325.2	
788.63	2745.6	
788.8	2095.8	
788.98	3987.4	
789.15	3438.5	
789.33	2229.6	
789.5	2413.2	
789.68	4072	
789.86	4225	
790.03	2690.3	
790.21	2379.1	
790.38	4260.5	
790.56	3872.7	
790.73	2368.1	
790.91	2281.4	
791.09	3743	
791.26	4055	
791.44	2471.2	
791.61	2250	
791.79	3848.8	
791.96	3709.6	
792.14	2440.5	
792.32	2050.7	
792.49	3687	
792.67	3849.5	
792.84	2323.8	
793.02	2230.2	
793.19	4042	
793.37	4177.9	
793.54	2111.5	
793.72	2213.2	
793.89	4275.5	
794.07	3665.9	
794.25	2492.4	
794.42	2107.4	
794.6	4169	
794.77	3990.8	
794.95	2616.6	
795.12	2328.5	
795.3	3669.3	
795.47	3992.9	
795.65	2562.7	
795.82	2428.2	
796	3668.6	
796.17	4399.7	
796.35	2429.6	
796.52	2741.5	
796.7	4004.5	
796.87	4015.4	
797.05	2394.8	
797.22	2766.8	
797.4	4065.9	
797.57	4399	
797.75	2527.2	
797.92	2424.8	
798.1	4271.4	
798.27	3482.2	
798.45	2181.1	
798.62	2233.7	
798.8	3889.1	
798.97	4083	
799.15	2544.9	
799.32	2491	
799.5	3543	
799.67	3793.5	
799.85	2581.8	
800.02	2136.7	
800.2	3781.2	
800.37	3768.3	
800.55	2637.8	
800.72	2340.1	
800.9	4135.5	
801.07	4205.2	
801.25	2946.3	
801.42	2531.3	
801.6	4131.4	
801.77	3727.3	
801.95	2369.5	
802.12	2332.6	
802.29	3949.8	
802.47	3829	
802.64	2564.7	
802.82	2103.3	
802.99	3738.9	
803.17	4105.5	
803.34	2471.9	
803.52	2272.6	
803.69	4276.2	
803.87	3560.1	
804.04	2473.3	
804.21	2422.1	
804.39	4282.3	
804.56	3714.3	
804.74	2154.5	
804.91	2529.2	
805.09	3697.9	
805.26	3718.4	
805.44	2275.3	
805.61	2373.6	
805.78	4106.2	
805.96	3850.2	
806.13	2520.4	
806.31	2593.4	
806.48	3447.4	
806.66	3697.3	
806.83	2552.5	
807	2449.4	
807.18	3716.4	
807.35	3836.5	
807.53	2413.9	
807.7	2207.7	
807.87	4174.4	
808.05	3734.8	
808.22	2584.5	
808.4	2141.5	
808.57	3550.5	
808.74	3533.4	
808.92	2349	
809.09	2804.4	
809.27	3835.8	
809.44	3867.9	
809.61	2089.6	
809.79	2263	
809.96	4441.4	
810.14	3951.9	
810.31	2068.4	
810.48	2584.5	
810.66	3749.1	
810.83	4016.1	
811.01	2352.4	
811.18	2448	
811.35	4066.6	
811.53	3370.3	
811.7	2681.5	
811.87	2494.4	
812.05	3863.2	
812.22	3673.4	
812.39	2343.6	
812.57	2191.3	
812.74	3785.3	
812.92	4382.7	
813.09	2409.8	
813.26	2463	
813.44	4330.1	
813.61	3608.5	
813.78	2091.7	
813.96	2553.8	
814.13	3750.5	
814.3	3640.6	
814.48	2749.1	
814.65	2378.4	
814.82	4019.5	
815	3504.8	
815.17	2458.2	
815.34	2799.6	
815.52	3624.9	
815.69	3704.1	
815.87	2376.3	
816.04	2364	
816.21	3494.5	
816.38	3509.5	
816.56	2374.3	
816.73	2263	
816.9	4435.9	
817.08	3915.7	
817.25	2352.4	
817.42	2632.3	
817.6	3532.1	
817.77	3586.7	
817.94	2451.4	
818.12	2276.7	
818.29	3638.6	
818.46	4605.9	
818.64	2359.3	
818.81	2180.4	
818.98	3623.5	
819.16	4379.2	
819.33	2581.1	
819.5	2406.4	
819.67	3892.5	
819.85	4170.3	
820.02	2419.3	
820.19	2493.7	
820.37	3806.5	
820.54	3627	
820.71	2424.8	
820.88	2869.2	
821.06	3775.1	
821.23	3650.8	
821.4	2449.4	
821.58	2474.6	
821.75	3977.8	
821.92	3829	
822.09	2156.5	
822.27	2213.9	
822.44	3695.2	
822.61	3652.9	
822.79	2134.7	
822.96	3497.2	
823.13	3704.1	
823.3	3497.2	
823.48	2313.5	
823.65	2172.9	
823.82	4132.1	
823.99	3549.8	
824.17	2831.7	
824.34	2172.2	
824.51	4442	
824.68	3704.1	
824.86	2289.6	
825.03	2395.4	
825.2	3712.3	
825.37	4111	
825.55	2300.6	
825.72	2369.5	
825.89	4407.2	
826.06	4201.1	
826.24	2437.1	
826.41	2394.8	
826.58	4249.5	
826.75	3750.5	
826.92	2094.4	
827.1	2239.1	
827.27	5172.5	
827.44	4292.5	
827.61	2274.6	
827.79	2573.6	
827.96	3695.2	
828.13	3652.9	
828.3	2411.8	
828.47	2112.8	
828.65	4020.8	
828.82	3893.2	
828.99	2734	
829.16	2453.5	
829.34	3999.7	
829.51	4065.2	
829.68	2422.1	
829.85	2367.5	
830.02	4429.8	
830.2	4123.2	
830.37	1984.5	
830.54	2648	
830.71	4478.2	
830.88	3816.7	
831.05	1916.2	
831.23	2154.5	
831.4	4446.8	
831.57	4513.7	
831.74	2255.5	
831.91	2052.1	
832.09	4116.4	
832.26	4123.9	
832.43	2263.7	
832.6	2465.8	
832.77	3998.3	
832.94	4397.7	
833.12	1974.9	
833.29	2241.2	
833.46	3592.1	
833.63	4635.2	
833.8	2433.7	
833.97	2225.5	
834.15	4252.3	
834.32	4098.7	
834.49	2385.9	
834.66	2370.9	
834.83	3997.6	
835	3705.5	
835.17	2272.6	
835.35	2233	
835.52	4111	
835.69	3942.3	
835.86	2315.6	
836.03	1969.5	
836.2	4145.1	
836.37	3960.8	
836.55	2235	
836.72	2151.7	
836.89	3942.3	
837.06	4151.9	
837.23	2295.1	
837.4	2378.4	
837.57	4440.7	
837.75	4655	
837.92	2065	
838.09	2282.1	
838.26	3960.1	
838.43	4090.5	
838.6	2358.6	
838.77	2154.5	
838.94	4478.9	
839.11	4498.7	
839.29	2336	
839.46	1951.7	
839.63	4237.9	
839.8	3898	
839.97	2196.1	
840.14	2213.2	
840.31	4115.1	
840.48	4188.1	
840.65	2001.5	
840.82	2176.3	
841	4100	
841.17	3922.5	
841.34	2097.1	
841.51	2243.2	
841.68	4137.6	
841.85	3932.1	
842.02	2174.3	
842.19	1941.5	
842.36	4098.7	
842.53	4076.8	
842.7	2092.3	
842.87	2314.2	
843.05	4647.5	
843.22	3918.4	
843.39	2053.4	
843.56	2222	
843.73	3930.7	
843.9	4225.6	
844.07	2921.8	
844.24	2463	
844.41	5035.3	
844.58	3701.4	
844.75	2099.2	
844.92	2181.8	
845.09	3919.1	
845.26	4044.7	
845.43	2112.1	
845.6	2208.4	
845.77	4084.3	
845.94	3970.3	
846.12	2315.6	
846.29	2326.5	
846.46	4252.9	
846.63	4036.5	
846.8	2138.8	
846.97	2397.5	
847.14	4123.9	
847.31	4115.7	
847.48	2300.6	
847.65	2415.9	
847.82	3731.4	
847.99	4078.2	
848.16	2517	
848.33	2478	
848.5	3844	
848.67	4319.2	
848.84	2052.7	
849.01	2129.9	
849.18	3859.7	
849.35	3505.4	
849.52	2449.4	
849.69	2037	
849.86	4208.6	
850.03	4089.1	
850.2	2103.3	
850.37	2387.9	
850.54	4160.8	
850.71	3614	
850.88	2376.3	
851.05	2090.3	
851.22	3958.7	
851.39	4218.1	
851.56	1974.9	
851.73	2316.3	
851.9	3715.7	
852.07	4182	
852.24	2273.2	
852.41	2053.4	
852.58	4107.5	
852.75	3814	
852.92	2254.8	
853.09	2060.3	
853.26	3469.9	
853.43	4167.6	
853.6	2090.3	
853.77	1903.9	
853.94	4315.8	
854.11	3691.8	
854.28	2753.8	
854.44	2234.3	
854.61	4475.5	
854.78	4145.1	
854.95	2049.3	
855.12	2385.2	
855.29	3500	
855.46	4330.1	
855.63	2111.5	
855.8	2649.4	
855.97	3796.3	
856.14	4265.2	
856.31	2710.1	
856.48	2229.6	
856.65	3942.3	
856.82	3627.6	
856.99	2057.5	
857.16	2261.6	
857.33	4554	
857.49	3863.8	
857.66	2206.3	
857.83	2255.5	
858	4065.2	
858.17	4022.2	
858.34	2026.8	
858.51	2093.7	
858.68	4335.5	
858.85	4234.5	
859.02	2334	
859.19	2411.8	
859.36	3852.2	
859.52	3450.1	
859.69	2106	
859.86	2347	
860.03	3496.6	
860.2	4344.4	
860.37	1992.7	
860.54	2125.1	
860.71	4075.5	
860.88	4280.3	
861.05	2222	
861.21	2481.5	
861.38	4255.7	
861.55	3571.7	
861.72	2011.1	
861.89	2251.4	
862.06	4205.8	
862.23	4372.4	
862.4	2013.2	
862.56	2122.4	
862.73	4102.1	
862.9	4027.7	
863.07	2316.3	
863.24	2009.7	
863.41	3622.9	
863.58	3765.5	
863.75	2116.9	
863.91	2379.7	
864.08	4078.9	
864.25	4056.3	
864.42	2494.4	
864.59	2685.6	
864.76	4353.3	
864.93	3683.6	
865.09	1992	
865.26	2234.3	
865.43	4246.8	
865.6	4396.3	
865.77	1903.2	
865.94	2067.8	
866.1	4179.9	
866.27	4009.2	
866.44	2783.9	
866.61	1992.7	
866.78	3886.4	
866.95	4131.4	
867.11	2103.3	
867.28	1962	
867.45	4264.6	
867.62	3721.2	
867.79	2269.8	
867.96	2053.4	
868.12	3654.9	
868.29	4113	
868.46	2101.9	
868.63	2575	
868.8	4160.1	
868.97	4125.3	
869.13	2178.4	
869.3	2210.4	
869.47	4018.1	
869.64	4162.2	
869.81	2099.9	
869.97	2108	
870.14	3893.2	
870.31	4306.9	
870.48	2063	
870.65	2495.8	
870.81	3994.2	
870.98	3950.5	
871.15	2229.6	
871.32	2192	
871.48	4047.5	
871.65	4370.4	
871.82	2078.7	
871.99	2233.7	
872.16	4487.1	
872.32	4317.1	
872.49	2167.4	
872.66	2096.4	
872.83	4203.1	
872.99	3805.8	
873.16	2284.2	
873.33	2116.2	
873.5	3971	
873.67	3970.3	
873.83	2183.1	
874	2585.2	
874.17	4097.3	
874.34	4222.9	
874.5	2549.7	
874.67	2433	
874.84	4194.9	
875.01	3553.2	
875.17	2674.6	
875.34	2095.1	
875.51	4031.1	
875.68	4617.5	
875.84	2424.8	
876.01	2721.8	
876.18	4104.8	
876.34	4065.2	
876.51	2103.3	
876.68	2077.3	
876.85	3787.4	
877.01	4317.8	
877.18	2654.2	
877.35	2042.5	
877.52	4108.9	
877.68	3809.2	
877.85	2078	
878.02	2076	
878.18	3472.7	
878.35	3875.4	
878.52	1809	
878.69	2343.6	
878.85	4336.2	
879.02	4098	
879.19	2714.9	
879.35	2172.2	
879.52	4146.5	
879.69	4049.5	
879.86	1895.1	
880.02	2343.6	
880.19	3990.1	
880.36	4495.3	
880.52	2266.4	
880.69	2344.2	
880.86	4169.7	
881.02	4144.4	
881.19	2220	
881.36	2171.5	
881.52	4141.7	
881.69	3814	
881.86	2293.7	
882.02	2181.8	
882.19	4209.9	
882.36	4635.9	
882.52	2123.1	
882.69	2636.4	
882.86	3894.6	
883.02	4052.9	
883.19	2380.4	
883.36	2258.9	
883.52	4182	
883.69	4494.6	
883.86	2137.4	
884.02	1984.5	
884.19	4074.1	
884.36	3988.8	
884.52	2252.1	
884.69	2261	
884.86	3889.1	
885.02	4283	
885.19	2265.7	
885.36	2306	
885.52	3747.8	
885.69	4079.6	
885.86	2766.1	
886.02	2542.9	
886.19	4089.8	
886.35	3713	
886.52	2278	
886.69	2650.8	
886.85	3668.6	
887.02	4214.7	
887.19	4214.7	
887.35	4214.7	
887.52	4214.7	
887.68	4214.7	
887.85	4214.7	
888.02	4214.7	
888.18	4214.7	
888.35	4214.7	
888.51	4214.7	
888.68	4214.7	
888.85	4214.7	
889.01	4214.7	
889.18	4214.7	
889.35	4214.7	
889.51	4214.7	
889.68	4214.7	
889.84	4214.7	
890.01	4214.7	
890.17	4214.7	
890.34	4214.7	
890.51	4214.7	
890.67	4214.7	
890.84	4214.7	
891	4214.7	
891.17	4214.7	
891.34	4214.7	
891.5	4214.7	
891.67	4214.7	
891.83	4214.7	
892	4214.7	
892.16	4214.7	
892.33	4214.7	
892.5	4214.7	
892.66	4214.7	
892.83	4214.7	
892.99	4214.7	
893.16	4214.7	
893.32	4214.7	
893.49	4214.7	
893.65	4214.7	
893.82	4214.7	
893.99	4214.7	
894.15	4214.7	
894.32	4214.7	
894.48	4214.7	
894.65	4214.7	
894.81	4214.7	
894.98	4214.7	
895.14	4214.7	
895.31	4214.7	
895.47	4214.7	
895.64	4214.7	
895.81	4214.7	
895.97	4214.7	
896.14	4214.7	
896.3	4214.7	
896.47	4214.7	
896.63	4214.7	
896.8	4214.7	
896.96	4214.7	
897.13	4214.7	
897.29	4214.7	
897.46	4214.7	
897.62	4214.7	
897.79	4214.7	
897.95	4214.7	
898.12	4214.7	
898.28	4214.7	
898.45	4214.7	
898.61	4214.7	
898.78	4214.7	
898.94	4214.7	
899.11	4214.7	
899.27	4214.7	
899.44	4214.7	
899.6	4214.7	
899.77	4214.7	
899.93	4214.7	
900.1	4214.7	
900.26	4214.7	
900.43	4214.7	
900.59	4214.7	
900.76	4214.7	
900.92	4214.7	
901.09	4214.7	
901.25	4214.7	
901.42	4214.7	
901.58	4214.7	
901.75	4214.7	
901.91	4214.7	
902.07	4214.7	
902.24	4214.7	
902.4	4214.7	
902.57	4214.7	
902.73	4214.7	
902.9	4214.7	
903.06	4214.7	
903.23	4214.7	
903.39	4214.7	
903.56	4214.7	
903.72	4214.7	
903.88	4214.7	
904.05	4214.7	
904.21	4214.7	
904.38	4214.7	
904.54	4214.7	
904.71	4214.7	
904.87	4214.7	
905.03	4214.7	
905.2	4214.7	
905.36	4214.7	
905.53	4214.7	
905.69	4214.7	
905.86	4214.7	
906.02	4214.7	
906.18	4214.7	
906.35	4214.7	
906.51	4214.7	
906.68	4214.7	
906.84	4214.7	
907.01	4214.7	
907.17	4214.7	
907.33	4214.7	
907.5	4214.7	
907.66	4214.7	
907.83	4214.7	
907.99	4214.7	
908.15	4214.7	
908.32	4214.7	
908.48	4214.7	
908.65	4214.7	
908.81	4214.7	
908.97	4214.7	
909.14	4214.7	
909.3	4214.7	
909.47	4214.7	
909.63	4214.7	
909.79	4214.7	
909.96	4214.7	
910.12	4214.7	
910.28	4214.7	
910.45	4214.7	
910.61	4214.7	
910.78	4214.7	
910.94	4214.7	
911.1	4214.7	
911.27	4214.7	
911.43	4214.7	
911.59	4214.7	
911.76	4214.7	
911.92	4214.7	
912.08	4214.7	
912.25	4214.7	
912.41	4214.7	
912.57	4214.7	
912.74	4214.7	
912.9	4214.7	
913.07	4214.7	
913.23	4214.7	
913.39	4214.7	
913.56	4214.7	
913.72	4214.7	
913.88	4214.7	
914.05	4214.7	
914.21	4214.7	
914.37	4214.7	
914.54	4214.7	
914.7	4214.7	
914.86	4214.7	
915.03	4214.7	
915.19	4214.7	
