Wavelength	Intensities	
nm	a.u.	
179.22	1933.1	
179.44	1924.7	
179.65	1941.5	
179.86	1908	
180.08	1921.7	
180.29	4995	
180.51	3560.1	
180.72	5700.9	
180.94	6679.1	
181.15	3272	
181.37	3235.8	
181.58	5569.8	
181.79	5842.2	
182.01	3420.1	
182.22	3706.1	
182.44	5814.9	
182.65	4913.8	
182.87	4686.4	
183.08	4055.7	
183.29	6184.2	
183.51	5096.7	
183.72	3721.2	
183.94	5505.6	
184.15	5505.6	
184.37	5463.3	
184.58	3237.2	
184.79	4465.9	
185.01	5089.9	
185.22	5768.4	
185.44	4794.3	
185.65	3955.3	
185.86	5352	
186.08	4940.4	
186.29	3176.4	
186.51	3473.4	
186.72	5095.3	
186.94	6040.1	
187.15	3984	
187.36	4105.5	
187.58	7894.9	
187.79	5584.1	
188.01	4305.5	
188.22	6705.7	
188.43	6728.9	
188.65	5794.4	
188.86	3376.4	
189.08	4102.8	
189.29	5310.4	
189.5	5296	
189.72	3808.5	
189.93	3829	
190.15	6074.3	
190.36	7302.4	
190.57	4205.2	
190.79	4055.7	
191	6176.7	
191.22	6131.6	
191.43	4205.2	
191.64	3418.7	
191.86	6275	
192.07	6101.6	
192.29	3574.4	
192.5	3760.8	
192.71	6101.6	
192.93	5210	
193.14	3710.2	
193.35	3858.4	
193.57	5246.2	
193.78	6090	
194	3027.6	
194.21	3780.6	
194.42	5016.2	
194.64	5516.5	
194.85	4158.1	
195.07	4828.4	
195.28	5564.3	
195.49	4805.2	
195.71	5059.2	
195.92	3572.3	
196.13	5670.8	
196.35	5846.3	
196.56	5457.2	
196.78	4047.5	
196.99	7168.6	
197.2	6740.5	
197.42	4690.5	
197.63	4193.6	
197.84	4918.5	
198.06	5684.5	
198.27	3813.3	
198.48	5091.9	
198.7	5253	
198.91	5386.8	
199.13	4120.5	
199.34	4124.6	
199.55	5892.7	
199.77	4784.1	
199.98	3649.5	
200.19	4231.8	
200.41	5414.8	
200.62	5053.7	
200.83	4317.8	
201.05	4642.1	
201.26	5376.6	
201.47	5063.9	
201.69	3690.4	
201.9	3528.7	
202.11	5405.3	
202.33	6504.3	
202.54	3944.4	
202.76	4296	
202.97	5600.5	
203.18	5552	
203.4	4280.3	
203.61	4194.2	
203.82	5474.9	
204.04	5151.3	
204.25	4183.3	
204.46	4067.9	
204.68	5504.3	
204.89	5723.4	
205.1	4096.6	
205.32	3506.1	
205.53	5929.6	
205.74	6093.4	
205.96	2949.8	
206.17	4225	
206.38	5890.6	
206.6	5989.6	
206.81	4762.2	
207.02	3875.4	
207.24	5739.8	
207.45	6193.1	
207.66	3939.6	
207.88	3351.2	
208.09	5730.9	
208.3	5515.2	
208.52	3637.9	
208.73	3927.3	
208.94	5539.8	
209.15	6208.1	
209.37	3892.5	
209.58	4114.4	
209.79	6031.3	
210.01	5328.1	
210.22	3117.7	
210.43	3287.7	
210.65	5491.3	
210.86	5971.2	
211.07	3959.4	
211.29	3592.1	
211.5	5881.8	
211.71	5425.1	
211.93	3546.4	
212.14	3648.1	
212.35	5409.4	
212.56	5616.9	
212.78	4201.7	
212.99	3413.3	
213.2	6512.5	
213.42	5238	
213.63	3736.9	
213.84	4044.7	
214.06	4842.8	
214.27	4943.1	
214.48	3922.5	
214.69	4269.3	
214.91	6199.9	
215.12	6284.5	
215.33	4314.4	
215.55	4677.6	
215.76	6840.9	
215.97	5913.9	
216.18	4132.1	
216.4	4025.6	
216.61	5119.9	
216.82	5984.2	
217.04	3652.9	
217.25	3767.6	
217.46	6168.5	
217.67	5889.3	
217.89	3190.1	
218.1	3363.4	
218.31	5595.7	
218.53	5652.4	
218.74	3815.4	
218.95	3675.4	
219.16	5453.1	
219.38	6376	
219.59	3726.6	
219.8	4437.3	
220.01	7092.1	
220.23	5475.6	
220.44	4885.8	
220.65	3545.7	
220.87	5546.6	
221.08	6133	
221.29	3345	
221.5	4526.7	
221.72	7562.5	
221.93	5176.6	
222.14	4246.8	
222.35	4915.8	
222.57	5498.1	
222.78	5862.7	
222.99	3899.3	
223.2	4240	
223.42	5818.3	
223.63	5963.7	
223.84	3014.6	
224.05	3013.2	
224.27	7028.6	
224.48	6412.9	
224.69	5087.2	
224.9	4177.9	
225.12	5649	
225.33	5447.6	
225.54	3331.4	
225.75	3718.4	
225.97	5017.5	
226.18	5363.6	
226.39	4020.8	
226.6	3720.5	
226.82	5198.4	
227.03	5059.2	
227.24	4176.5	
227.45	3431	
227.67	5852.4	
227.88	6482.5	
228.09	4708.3	
228.3	4695.3	
228.52	5966.4	
228.73	5486.5	
228.94	3827	
229.15	3443.3	
229.36	5363.6	
229.58	5305.6	
229.79	3846.1	
230	4556	
230.21	6544.6	
230.43	5605.3	
230.64	4171.7	
230.85	4330.1	
231.06	5857.9	
231.28	5945.9	
231.49	3455.6	
231.7	4037.9	
231.91	5780.1	
232.12	5557.5	
232.34	3499.3	
232.55	4035.9	
232.76	6118	
232.97	5668.1	
233.18	3680.9	
233.4	4123.9	
233.61	5681.1	
233.82	5270.1	
234.03	3807.9	
234.25	3799.7	
234.46	7681.2	
234.67	5507.7	
234.88	4271.4	
235.09	3613.3	
235.31	5760.9	
235.52	5369.8	
235.73	4142.4	
235.94	3491.1	
236.15	5254.4	
236.37	6721.4	
236.58	3650.8	
236.79	4036.5	
237	5837.4	
237.21	4962.2	
237.43	4258.4	
237.64	3411.2	
237.85	10093	
238.06	5026.4	
238.27	4358.1	
238.48	3442.6	
238.7	5831.9	
238.91	5313.8	
239.12	3986	
239.33	3939.6	
239.54	5053.7	
239.76	5442.1	
239.97	3895.9	
240.18	3963.5	
240.39	6919.4	
240.6	5778	
240.82	4108.2	
241.03	3336.1	
241.24	5473.5	
241.45	6407.4	
241.66	3624.9	
241.87	4294.6	
242.09	6216.3	
242.3	6669.6	
242.51	4332.1	
242.72	3962.1	
242.93	6026.5	
243.14	5382.1	
243.36	4640.7	
243.57	4957.4	
243.78	6358.9	
243.99	5936.4	
244.2	4046.8	
244.41	3604.4	
244.63	5013.4	
244.84	5810.1	
245.05	4270.7	
245.26	3994.9	
245.47	5752.1	
245.68	6089.3	
245.9	5334.3	
246.11	4242	
246.32	5328.8	
246.53	5755.5	
246.74	6504.3	
246.95	3346.4	
247.16	4968.4	
247.38	5524.1	
247.59	3232.4	
247.8	3993.5	
248.01	5199.1	
248.22	5404.6	
248.43	3611.9	
248.64	3891.1	
248.86	4873.5	
249.07	5247.6	
249.28	3469.9	
249.49	4119.8	
249.7	6001.2	
249.91	6195.1	
250.12	3268.6	
250.34	3331.4	
250.55	5584.8	
250.76	5467.4	
250.97	4103.4	
251.18	4137.6	
251.39	6219	
251.6	5740.5	
251.81	4183.3	
252.03	4184.7	
252.24	5167	
252.45	6034.7	
252.66	3487	
252.87	4450.2	
253.08	5548.6	
253.29	7316.7	
253.5	3484.3	
253.72	4785.4	
253.93	5332.2	
254.14	6542.6	
254.35	3812	
254.56	3862.5	
254.77	5791.7	
254.98	5091.3	
255.19	3705.5	
255.41	4850.3	
255.62	5534.3	
255.83	6160.3	
256.04	4291.2	
256.25	4194.2	
256.46	6767.9	
256.67	5171.1	
256.88	4146.5	
257.09	4633.2	
257.31	5159.5	
257.52	5167.7	
257.73	5232.6	
257.94	3746.4	
258.15	5328.1	
258.36	5495.4	
258.57	4752.7	
258.78	2998.2	
258.99	5982.8	
259.2	5332.9	
259.41	3820.8	
259.63	3898	
259.84	6355.5	
260.05	6842.9	
260.26	4970.4	
260.47	3730	
260.68	6116.6	
260.89	5432.6	
261.1	4595	
261.31	3594.2	
261.52	6105	
261.73	6420.4	
261.95	4944.5	
262.16	4308.9	
262.37	6226.5	
262.58	6294.1	
262.79	4958.1	
263	3848.1	
263.21	5472.9	
263.42	4995	
263.63	3916.4	
263.84	3798.3	
264.05	6036	
264.26	6494.1	
264.47	4867.3	
264.69	4377.2	
264.9	6310.5	
265.11	5704.3	
265.32	3680.2	
265.53	3786	
265.74	5600.5	
265.95	4882.4	
266.16	4044.7	
266.37	4500.1	
266.58	5640.8	
266.79	5326.8	
267	3825.6	
267.21	3469.3	
267.42	5113.8	
267.63	5498.8	
267.84	3993.5	
268.06	3362.1	
268.27	5922.7	
268.48	6290.7	
268.69	3904.1	
268.9	4605.2	
269.11	6197.2	
269.32	4968.4	
269.53	3945.1	
269.74	3680.2	
269.95	5789.6	
270.16	4849.6	
270.37	3951.9	
270.58	4659.1	
270.79	5339.7	
271	6042.9	
271.21	4328.7	
271.42	3975.1	
271.63	5656.5	
271.84	5152.7	
272.05	3146.4	
272.26	3543.7	
272.47	5518.6	
272.68	5708.4	
272.89	3810.6	
273.11	4426.3	
273.32	5335	
273.53	6530.3	
273.74	4296	
273.95	4234.5	
274.16	6193.1	
274.37	5577.3	
274.58	4442.7	
274.79	3487	
275	5624.4	
275.21	6223.8	
275.42	5252.4	
275.63	4502.1	
275.84	5753.4	
276.05	7324.9	
276.26	4149.2	
276.47	3924.6	
276.68	5280.3	
276.89	6549.4	
277.1	4526.7	
277.31	3523.2	
277.52	5784.1	
277.73	5963.7	
277.94	3424.2	
278.15	3832.4	
278.36	5665.4	
278.57	5146.5	
278.78	3795.6	
278.99	4287.8	
279.2	5110.4	
279.41	5096	
279.62	5017.5	
279.83	3525.2	
280.04	6754.9	
280.25	4970.4	
280.46	5008.6	
280.67	3971	
280.88	5116.5	
281.09	6143.9	
281.3	4258.4	
281.51	5356.1	
281.72	5176.6	
281.93	6070.9	
282.14	3685	
282.35	4052.2	
282.56	5963	
282.77	5995.1	
282.98	3847.5	
283.19	4787.5	
283.4	7464.2	
283.61	5407.3	
283.82	3439.2	
284.03	4979.3	
284.24	5583.4	
284.45	6096.1	
284.66	5027.8	
284.87	4738.3	
285.08	6105	
285.29	6212.9	
285.5	3338.9	
285.71	3902.7	
285.92	6160.3	
286.12	6836.1	
286.33	4922	
286.54	3801	
286.75	6014.2	
286.96	5360.9	
287.17	3548.4	
287.38	4919.2	
287.59	5126.7	
287.8	5032.5	
288.01	3949.8	
288.22	4544.4	
288.43	6075	
288.64	4987.5	
288.85	4650.9	
289.06	4412	
289.27	6013.5	
289.48	6439.5	
289.69	4991.6	
289.9	4472.1	
290.11	6154.8	
290.32	5177.3	
290.53	4718.5	
290.74	4306.9	
290.94	5969.8	
291.15	6041.5	
291.36	3756.7	
291.57	4490.5	
291.78	5248.9	
291.99	4902.8	
292.2	3572.3	
292.41	4362.9	
292.62	6060.6	
292.83	5788.2	
293.04	5306.3	
293.25	3611.3	
293.46	5296	
293.67	6098.9	
293.88	3737.5	
294.09	3634.5	
294.29	4995	
294.5	5666	
294.71	3939.6	
294.92	3828.3	
295.13	5242.1	
295.34	6633.4	
295.55	3351.2	
295.76	3493.2	
295.97	5911.8	
296.18	6677.7	
296.39	3555.3	
296.6	3747.1	
296.81	5608	
297.01	5958.9	
297.22	3930.1	
297.43	3740.3	
297.64	5116.5	
297.85	5112.4	
298.06	3082.2	
298.27	3367.5	
298.48	5563	
298.69	5231.9	
298.9	4057	
299.11	3654.3	
299.31	5023.7	
299.52	5063.9	
299.73	4326	
299.94	4191.5	
300.15	5544.5	
300.36	5117.2	
300.57	4269.3	
300.78	4211.3	
300.99	5441.5	
301.2	5610.1	
301.4	3715.7	
301.61	4068.6	
301.82	5791	
302.03	5949.3	
302.24	4549.2	
302.45	3556	
302.66	5825.8	
302.87	6304.3	
303.08	3713.6	
303.29	5124	
303.49	5209.3	
303.7	5524.7	
303.91	3293.8	
304.12	4886.5	
304.33	4990.9	
304.54	5655.8	
304.75	3766.9	
304.96	3586.7	
305.16	5883.1	
305.37	6656.6	
305.58	3238.5	
305.79	3400.3	
306	5885.9	
306.21	4954.7	
306.42	3686.3	
306.63	5841.5	
306.83	5382.7	
307.04	6146.6	
307.25	4154.6	
307.46	4035.2	
307.67	4674.8	
307.88	6017.6	
308.09	3697.9	
308.29	3827	
308.5	5578.7	
308.71	6099.5	
308.92	3989.4	
309.13	3569.6	
309.34	5345.2	
309.55	5361.6	
309.75	4648.9	
309.96	4281.6	
310.17	5936.4	
310.38	5205.9	
310.59	4470	
310.8	3540.9	
311.01	5312.4	
311.21	5387.5	
311.42	3501.3	
311.63	3659.7	
311.84	5249.6	
312.05	5647.6	
312.26	4154	
312.46	4571.1	
312.67	5285.8	
312.88	5050.3	
313.09	3611.9	
313.3	3512.3	
313.51	6324.8	
313.71	6713.9	
313.92	3540.3	
314.13	3807.9	
314.34	5666	
314.55	5474.2	
314.76	4616.8	
314.96	4006.5	
315.17	5567.1	
315.38	5943.2	
315.59	3605.1	
315.8	3460.4	
316.01	6406	
316.21	6458.6	
316.42	3442	
316.63	4001.7	
316.84	5400.5	
317.05	6217.6	
317.26	4251.6	
317.46	3835.2	
317.67	5434.6	
317.88	5822.4	
318.09	4605.9	
318.3	3345	
318.5	5195.7	
318.71	5844.9	
318.92	5845.6	
319.13	4201.7	
319.34	6063.4	
319.54	6141.9	
319.75	3364.1	
319.96	3239.9	
320.17	5903.6	
320.38	6095.4	
320.58	3289.7	
320.79	3935.5	
321	6055.8	
321.21	6167.1	
321.42	4019.5	
321.62	3251.5	
321.83	5059.2	
322.04	5547.3	
322.25	3833.1	
322.46	3624.2	
322.66	5655.8	
322.87	5803.3	
323.08	4524	
323.29	3622.9	
323.5	6537.8	
323.7	5059.8	
323.91	4945.2	
324.12	4408.6	
324.33	5588.2	
324.53	5825.1	
324.74	4266.6	
324.95	4474.1	
325.16	4896.7	
325.37	5303.6	
325.57	3635.1	
325.78	3666.5	
325.99	5541.1	
326.2	4963.6	
326.4	5158.2	
326.61	3269.2	
326.82	5474.9	
327.03	5629.9	
327.24	5162.2	
327.44	4938.3	
327.65	5753.4	
327.86	4630.5	
328.07	4309.6	
328.27	3490.4	
328.48	6270.9	
328.69	5061.2	
328.9	5257.8	
329.1	3867.9	
329.31	5410.1	
329.52	6358.9	
329.73	3607.8	
329.93	4107.5	
330.14	5457.2	
330.35	5771.9	
330.56	5932.3	
330.76	4469.4	
330.97	5355.4	
331.18	5694.7	
331.39	4053.6	
331.59	3205.8	
331.8	6132.3	
332.01	6295.5	
332.22	3695.2	
332.42	4295.3	
332.63	5606	
332.84	5241.4	
333.05	4000.4	
333.25	3649.5	
333.46	5302.2	
333.67	5492	
333.88	3812	
334.08	4194.9	
334.29	7944.8	
334.5	6230.6	
334.7	3530	
334.91	5212.1	
335.12	5067.4	
335.33	5940.5	
335.53	4015.4	
335.74	6009.4	
335.95	5275.6	
336.16	5154.7	
336.36	4061.1	
336.57	4669.4	
336.78	4977.9	
336.98	6114.6	
337.19	4988.2	
337.4	3957.4	
337.61	6681.8	
337.81	5090.6	
338.02	3663.1	
338.23	4828.4	
338.43	6304.3	
338.64	5124	
338.85	3601.7	
339.05	4795	
339.26	6361	
339.47	4972.5	
339.68	3650.2	
339.88	5466.7	
340.09	5728.2	
340.3	5958.9	
340.5	4256.4	
340.71	3223.5	
340.92	4997	
341.13	6223.1	
341.33	3523.2	
341.54	4261.8	
341.75	5795.1	
341.95	5413.5	
342.16	4119.8	
342.37	4486.4	
342.57	5061.2	
342.78	5520	
342.99	4553.3	
343.19	3228.3	
343.4	5968.5	
343.61	5788.2	
343.81	3848.1	
344.02	3530	
344.23	5947.3	
344.43	6331	
344.64	4516.5	
344.85	4420.2	
345.06	5782.8	
345.26	6179.4	
345.47	4203.1	
345.68	4879.6	
345.88	4882.4	
346.09	6047	
346.3	4355.3	
346.5	3203.7	
346.71	5508.4	
346.92	5230.5	
347.12	3284.3	
347.33	4212.7	
347.54	6046.3	
347.74	6557.6	
347.95	4187.4	
348.16	3087.7	
348.36	5327.4	
348.57	5012.7	
348.78	4119.1	
348.98	4473.4	
349.19	5519.3	
349.39	4946.5	
349.6	3324.5	
349.81	3643.3	
350.01	5789.6	
350.22	5193	
350.43	3993.5	
350.63	4854.4	
350.84	5524.1	
351.05	5320.6	
351.25	3694.5	
351.46	3285.6	
351.67	6089.3	
351.87	5203.2	
352.08	3939.6	
352.29	4486.4	
352.49	6006	
352.7	5621	
352.9	3508.9	
353.11	4392.2	
353.32	6666.8	
353.52	5309	
353.73	3470.6	
353.94	4448.9	
354.14	5790.3	
354.35	5632.6	
354.55	3564.1	
354.76	4003.8	
354.97	5745.9	
355.17	5552.7	
355.38	3325.9	
355.59	4745.1	
355.79	5165.7	
356	5722.7	
356.2	3956	
356.41	3461.1	
356.62	4931.5	
356.82	5408	
357.03	4288.4	
357.24	3805.8	
357.44	5158.2	
357.65	5316.5	
357.85	5111.7	
358.06	3970.3	
358.27	4868.7	
358.47	5145.2	
358.68	3307.5	
358.88	4255.7	
359.09	5776.6	
359.3	6206	
359.5	4975.9	
359.71	4376.5	
359.91	6609.5	
360.12	5995.8	
360.33	4116.4	
360.53	4715.8	
360.74	5162.2	
360.94	5248.9	
361.15	4384.7	
361.36	3619.4	
361.56	5936.4	
361.77	5362.3	
361.97	4958.1	
362.18	3833.8	
362.38	6009.4	
362.59	5012.7	
362.8	3514.3	
363	3345	
363.21	4756.1	
363.41	5483.1	
363.62	4110.3	
363.83	5195.7	
364.03	5592.3	
364.24	6622.4	
364.44	5222.3	
364.65	5246.2	
364.85	5300.1	
365.06	4951.3	
365.27	3647.4	
365.47	3752.6	
365.68	6357.6	
365.88	5271.5	
366.09	4129.4	
366.29	3807.9	
366.5	5552.7	
366.71	6029.2	
366.91	5181.4	
367.12	4293.9	
367.32	6627.9	
367.53	5867.4	
367.73	4220.9	
367.94	5227.1	
368.14	5862.7	
368.35	6764.4	
368.56	4134.8	
368.76	3519.8	
368.97	5905	
369.17	7712	
369.38	3678.8	
369.58	3963.5	
369.79	4999.1	
369.99	6326.9	
370.2	5040.7	
370.4	4094.6	
370.61	5551.4	
370.82	6858.6	
371.02	3915.7	
371.23	3292.5	
371.43	4815.5	
371.64	6208.1	
371.84	3969.6	
372.05	5259.9	
372.25	7568.6	
372.46	5922.7	
372.66	3951.2	
372.87	3944.4	
373.07	5889.3	
373.28	7615	
373.48	4982.7	
373.69	4661.9	
373.9	5416.9	
374.1	5438.7	
374.31	4965	
374.51	4464.6	
374.72	6210.8	
374.92	5066	
375.13	5048.2	
375.33	4265.2	
375.54	5803.3	
375.74	5238.7	
375.95	4258.4	
376.15	5649	
376.36	5743.9	
376.56	5579.3	
376.77	4356.7	
376.97	4809.3	
377.18	6794.5	
377.38	5838.1	
377.59	5122.7	
377.79	3786.7	
378	5601.2	
378.2	6087.9	
378.41	3837.9	
378.61	3691.8	
378.82	6150.1	
379.02	5165.7	
379.23	4000.4	
379.43	5180.7	
379.64	6235.4	
379.84	5783.5	
380.05	3837.2	
380.25	3803.8	
380.46	5876.3	
380.66	5478.3	
380.87	5248.3	
381.07	5604.6	
381.28	6574.7	
381.48	5936.4	
381.69	3943.7	
381.89	3944.4	
382.1	4840.7	
382.3	6052.4	
382.51	5065.3	
382.71	5960.3	
382.91	5971.9	
383.12	6440.9	
383.32	4285.7	
383.53	4509.6	
383.73	5722.7	
383.94	5595.1	
384.14	4401.8	
384.35	3529.3	
384.55	5482.4	
384.76	5972.6	
384.96	4226.3	
385.17	4601.1	
385.37	6003.3	
385.58	5159.5	
385.78	4661.2	
385.98	3445.4	
386.19	5440.1	
386.39	5771.2	
386.6	3992.2	
386.8	4242.7	
387.01	5896.8	
387.21	5935.7	
387.42	4689.8	
387.62	5339.7	
387.83	5165	
388.03	5836.7	
388.23	4219.5	
388.44	5208	
388.64	4814.1	
388.85	4971.1	
389.05	4615.4	
389.26	5316.5	
389.46	6658.6	
389.67	6280.4	
389.87	4574.5	
390.07	4607.2	
390.28	5475.6	
390.48	5118.6	
390.69	3749.8	
390.89	4078.2	
391.1	5296	
391.3	6229.9	
391.5	5362.3	
391.71	5987.6	
391.91	5916.6	
392.12	6977.4	
392.32	5467.4	
392.53	4625.7	
392.73	5348.6	
392.93	5508.4	
393.14	4323.3	
393.34	5113.1	
393.55	6060.6	
393.75	5487.2	
393.95	4304.1	
394.16	4270.7	
394.36	5224.4	
394.57	5995.1	
394.77	3715	
394.98	4170.3	
395.18	5159.5	
395.38	5314.5	
395.59	5058.5	
395.79	3997	
396	5303.6	
396.2	5759.6	
396.4	4922	
396.61	4674.1	
396.81	6016.9	
397.02	5217.5	
397.22	5046.2	
397.42	5198.4	
397.63	5972.6	
397.83	5134.9	
398.04	3835.8	
398.24	4420.2	
398.44	5723.4	
398.65	4816.8	
398.85	3751.2	
399.05	3855	
399.26	5040.7	
399.46	6827.9	
399.67	4246.8	
399.87	3959.4	
400.07	5423.7	
400.28	5837.4	
400.48	4029.7	
400.69	5082.4	
400.89	6062.7	
401.09	6483.9	
401.3	3888.4	
401.5	5002.5	
401.7	6705.7	
401.91	6978.8	
402.11	4203.1	
402.32	4451.6	
402.52	6088.6	
402.72	6038.1	
402.93	4681	
403.13	3506.8	
403.33	6815.6	
403.54	5557.5	
403.74	4334.9	
403.94	5373.2	
404.15	5640.1	
404.35	6848.4	
404.56	4207.2	
404.76	6161.7	
404.96	6084.5	
405.17	5797.1	
405.37	5725.4	
405.57	4727.4	
405.78	6090.7	
405.98	5525.4	
406.18	4171	
406.39	5096	
406.59	6049	
406.79	5643.5	
407	3991.5	
407.2	4134.8	
407.4	6045.6	
407.61	6242.9	
407.81	4059.1	
408.01	6149.4	
408.22	4909.7	
408.42	7017	
408.62	5113.1	
408.83	4481	
409.03	5412.1	
409.23	5344.5	
409.44	4540.3	
409.64	4869.4	
409.84	6414.9	
410.05	6262.7	
410.25	4685.1	
410.45	4435.2	
410.66	5710.4	
410.86	8234.2	
411.06	4815.5	
411.27	4688.5	
411.47	8023.9	
411.67	5923.4	
411.88	4994.3	
412.08	5147.9	
412.28	6477.7	
412.49	6996.5	
412.69	4542.4	
412.89	4663.2	
413.09	6794.5	
413.3	6636.8	
413.5	4659.1	
413.7	4272.1	
413.91	5928.9	
414.11	6802	
414.31	4508.9	
414.52	4921.3	
414.72	6434	
414.92	6295.5	
415.12	4485.1	
415.33	5017.5	
415.53	6566.5	
415.73	6923.5	
415.94	5420.3	
416.14	4827.1	
416.34	5668.1	
416.55	5398.4	
416.75	5989.6	
416.95	5396.4	
417.15	6711.2	
417.36	7456.7	
417.56	6223.8	
417.76	5216.2	
417.97	7015.7	
418.17	6705	
418.37	4775.9	
418.57	4826.4	
418.78	6431.3	
418.98	6066.8	
419.18	5750.7	
419.38	5670.8	
419.59	6189	
419.79	5793.7	
419.99	4693.3	
420.2	5134.9	
420.4	6617	
420.6	6899.6	
420.8	4577.2	
421.01	4461.8	
421.21	6505.7	
421.41	6716.7	
421.61	5063.3	
421.82	4648.9	
422.02	5989.6	
422.22	6953.5	
422.42	5574.6	
422.63	5330.2	
422.83	6139.1	
423.03	7318.8	
423.23	5195	
423.44	4190.1	
423.64	6196.5	
423.84	5996.5	
424.04	4618.9	
424.25	4291.9	
424.45	7185.6	
424.65	7117.4	
424.85	4075.5	
425.06	4650.9	
425.26	7128.3	
425.46	5689.3	
425.66	5279.7	
425.87	4885.8	
426.07	6901	
426.27	6676.4	
426.47	5027.1	
426.67	4354.7	
426.88	7260.7	
427.08	6698.2	
427.28	5238	
427.48	4326.7	
427.69	5516.5	
427.89	6225.1	
428.09	5302.2	
428.29	4410.6	
428.5	6982.9	
428.7	6468.9	
428.9	4216.1	
429.1	4901.5	
429.3	6328.2	
429.51	6771.3	
429.71	4648.2	
429.91	5345.9	
430.11	6588.3	
430.31	6787.7	
430.52	4897.4	
430.72	5081	
430.92	7203.4	
431.12	6658.6	
431.32	4469.4	
431.53	4990.2	
431.73	5470.1	
431.93	7278.5	
432.13	4412.7	
432.33	4274.1	
432.54	6014.9	
432.74	6378.1	
432.94	4237.2	
433.14	5330.2	
433.34	6559	
433.55	5966.4	
433.75	5223	
433.95	6971.3	
434.15	6232	
434.35	5980.1	
434.56	4416.1	
434.76	3874.8	
434.96	6236.1	
435.16	6496.2	
435.36	4204.5	
435.56	5428.5	
435.77	5894.7	
435.97	6023.1	
436.17	6081.8	
436.37	5276.3	
436.57	5814.9	
436.78	5742.5	
436.98	7176.8	
437.18	5881.1	
437.38	6479.1	
437.58	6081.1	
437.78	6084.5	
437.99	4719.2	
438.19	6523.5	
438.39	7374.7	
438.59	4590.9	
438.79	4115.1	
438.99	7309.9	
439.2	6026.5	
439.4	4319.2	
439.6	4212.7	
439.8	6400.6	
440	7517.4	
440.2	5255.1	
440.4	5288.5	
440.61	6746	
440.81	7210.2	
441.01	4276.8	
441.21	5242.1	
441.41	7036.1	
441.61	6693.4	
441.81	5539.1	
442.02	6627.9	
442.22	7565.2	
442.42	6739.9	
442.62	4376.5	
442.82	4520.5	
443.02	7078.5	
443.22	6122.1	
443.43	4839.4	
443.63	4337.6	
443.83	5940.5	
444.03	6009.4	
444.23	5609.4	
444.43	5165	
444.63	6251.1	
444.83	7531.1	
445.04	4396.3	
445.24	5711.1	
445.44	6670.9	
445.64	6803.4	
445.84	5341.8	
446.04	5230.5	
446.24	6058.6	
446.44	7068.9	
446.65	4512.4	
446.85	4886.5	
447.05	6221.7	
447.25	6995.2	
447.45	4960.2	
447.65	4304.1	
447.85	6348	
448.05	6102.3	
448.25	5456.5	
448.46	5156.8	
448.66	6326.2	
448.86	6054.5	
449.06	4164.2	
449.26	5459.2	
449.46	6768.5	
449.66	5737.7	
449.86	4795.7	
450.06	4823.6	
450.26	5929.6	
450.47	6532.3	
450.67	5139.7	
450.87	5407.3	
451.07	6524.8	
451.27	6411.5	
451.47	4467.3	
451.67	4967	
451.87	5957.5	
452.07	7192.5	
452.27	4590.2	
452.47	4638	
452.67	6342.6	
452.88	6900.3	
453.08	3985.3	
453.28	6068.1	
453.48	7558.4	
453.68	6333.7	
453.88	4459.8	
454.08	4807.3	
454.28	6655.9	
454.48	6342.6	
454.68	5325.4	
454.88	5871.5	
455.08	6771.9	
455.28	6500.3	
455.48	4337.6	
455.68	4891.9	
455.89	7165.8	
456.09	6827.2	
456.29	4639.3	
456.49	4668.7	
456.69	7051.2	
456.89	6238.8	
457.09	5172.5	
457.29	5516.5	
457.49	6595.1	
457.69	6658.6	
457.89	4980.7	
458.09	4341	
458.29	6259.3	
458.49	7030.7	
458.69	5319.9	
458.89	4782.7	
459.09	7286	
459.29	7354.3	
459.49	4916.5	
459.69	5780.1	
459.9	6823.1	
460.1	6181.5	
460.3	4788.2	
460.5	4573.8	
460.7	6774	
460.9	6364.4	
461.1	4209.3	
461.3	5489.2	
461.5	7332.4	
461.7	6894.1	
461.9	4499.4	
462.1	5025.7	
462.3	6335	
462.5	6993.1	
462.7	4639.3	
462.9	4639.3	
463.1	8058.1	
463.3	7587	
463.5	4882.4	
463.7	5747.3	
463.9	6470.9	
464.1	6845	
464.3	4886.5	
464.5	5214.8	
464.7	7159.7	
464.9	6720.8	
465.1	6543.9	
465.3	5501.5	
465.5	7561.1	
465.7	7380.2	
465.9	5767.1	
466.1	5548.6	
466.3	7180.9	
466.5	7111.2	
466.7	6404	
466.9	5315.8	
467.1	6913.9	
467.3	7922.2	
467.5	6348.7	
467.7	5139	
467.9	8172.8	
468.1	9008.3	
468.3	5975.3	
468.5	6391.7	
468.7	6836.1	
468.9	6903.7	
469.1	5433.9	
469.3	6084.5	
469.5	8930.5	
469.7	6312.5	
469.9	5912.5	
470.1	5134.9	
470.3	6831.3	
470.5	6849.8	
470.7	6406.7	
470.9	5200.5	
471.1	6620.4	
471.3	7167.9	
471.5	5079	
471.69	7136.5	
471.89	6532.3	
472.09	6102.9	
472.29	5883.1	
472.49	6351.4	
472.69	6273.6	
472.89	7155.6	
473.09	4915.1	
473.29	5231.9	
473.49	6479.8	
473.69	6674.3	
473.89	6182.8	
474.09	5276.9	
474.29	7916.1	
474.49	7618.4	
474.69	6096.1	
474.89	5518.6	
475.09	6604.7	
475.29	6648.4	
475.49	4883.7	
475.69	5083.7	
475.88	8316.8	
476.08	6943.3	
476.28	4678.2	
476.48	5341.1	
476.68	7446.4	
476.88	7299.6	
477.08	5160.2	
477.28	5474.2	
477.48	6829.3	
477.68	7530.4	
477.88	4885.1	
478.08	5359.5	
478.28	7763.2	
478.48	6967.2	
478.67	5373.2	
478.87	4814.8	
479.07	7524.9	
479.27	7014.3	
479.47	5578.7	
479.67	5560.9	
479.87	7436.9	
480.07	7875.8	
480.27	4735.6	
480.47	6503	
480.67	7045.7	
480.87	7687.4	
481.06	5136.3	
481.26	5958.2	
481.46	6931.7	
481.66	6964.5	
481.86	5574.6	
482.06	6690.7	
482.26	6685.3	
482.46	7806.2	
482.66	5509	
482.86	5094.7	
483.05	7032	
483.25	6420.4	
483.45	8021.9	
483.65	5455.8	
483.85	6614.3	
484.05	6897.6	
484.25	5960.3	
484.45	6371.9	
484.65	7907.9	
484.84	7770.7	
485.04	5367.7	
485.24	5309.7	
485.44	8047.8	
485.64	6298.9	
485.84	4555.4	
486.04	6075	
486.24	6665.5	
486.44	7104.4	
486.63	4554	
486.83	5388.2	
487.03	6515.3	
487.23	6821.1	
487.43	4698	
487.63	7101.7	
487.83	6864.1	
488.02	7817.1	
488.22	5606	
488.42	6265.4	
488.62	7756.3	
488.82	6621.8	
489.02	5332.9	
489.22	5334.3	
489.41	7537.9	
489.61	7139.2	
489.81	4996.4	
490.01	5006.6	
490.21	7407.5	
490.41	8123.6	
490.61	5001.1	
490.8	5091.3	
491	6882.5	
491.2	6282.5	
491.4	5773.2	
491.6	4776.5	
491.8	6896.9	
491.99	7170.6	
492.19	4741	
492.39	5136.3	
492.59	7497.6	
492.79	7438.9	
492.99	5913.2	
493.18	5001.8	
493.38	7527	
493.58	8249.9	
493.78	5754.1	
493.98	5242.1	
494.18	7176.8	
494.37	6599.9	
494.57	5873.6	
494.77	5738.4	
494.97	7370	
495.17	7647.1	
495.37	5195.7	
495.56	5517.9	
495.76	7735.9	
495.96	7405.5	
496.16	6499.6	
496.36	5335.6	
496.55	7492.8	
496.75	7014.3	
496.95	5713.8	
497.15	5539.1	
497.35	7471.7	
497.54	7456.7	
497.74	5315.2	
497.94	7234.8	
498.14	8142.7	
498.34	8002.8	
498.53	5031.2	
498.73	5920.7	
498.93	6741.2	
499.13	7357.7	
499.33	5563.6	
499.52	6229.9	
499.72	7329	
499.92	7775.5	
500.12	5221.6	
500.32	5493.3	
500.51	7644.4	
500.71	7422.5	
500.91	6333.7	
501.11	6023.1	
501.31	7399.3	
501.5	8016.4	
501.7	6555.5	
501.9	5593.7	
502.1	7281.9	
502.29	7616.4	
502.49	5986.9	
502.69	6516.6	
502.89	7549.5	
503.09	7539.3	
503.28	5103.5	
503.48	5279.7	
503.68	6830.7	
503.88	6789.7	
504.07	6208.1	
504.27	5782.1	
504.47	7199.3	
504.67	7406.1	
504.86	6134.3	
505.06	5902.9	
505.26	6850.5	
505.46	8832.9	
505.65	5754.1	
505.85	6003.3	
506.05	6947.4	
506.25	7317.4	
506.44	5124.7	
506.64	6182.8	
506.84	6774.7	
507.04	7860.1	
507.23	5304.9	
507.43	5938.4	
507.63	8927.8	
507.83	7046.4	
508.02	5903.6	
508.22	5558.9	
508.42	9110.7	
508.62	6813.6	
508.81	6148	
509.01	6399.2	
509.21	6683.2	
509.4	6999.3	
509.6	6053.1	
509.8	5368.4	
510	6998.6	
510.19	8484.1	
510.39	5382.7	
510.59	5457.8	
510.79	6726.9	
510.98	8123.6	
511.18	5434.6	
511.38	5601.2	
511.57	7627.3	
511.77	7492.8	
511.97	6343.9	
512.17	5292	
512.36	7587.7	
512.56	7635.5	
512.76	5312.4	
512.95	5094	
513.15	7735.2	
513.35	6341.2	
513.55	6253.1	
513.74	5295.4	
513.94	7752.2	
514.14	7000	
514.33	6341.9	
514.53	6133	
514.73	7040.9	
514.92	7165.2	
515.12	5547.3	
515.32	5289.9	
515.51	7275.1	
515.71	7846.5	
515.91	7225.2	
516.11	5429.2	
516.3	8980.3	
516.5	6793.1	
516.7	5971.2	
516.89	6625.9	
517.09	7040.2	
517.29	6801.3	
517.48	6459.3	
517.68	5672.9	
517.88	6733	
518.07	7408.2	
518.27	6182.1	
518.47	5229.8	
518.66	7986.4	
518.86	6563.7	
519.06	5035.3	
519.25	5567.7	
519.45	6893.5	
519.65	8419.2	
519.84	6270.2	
520.04	6853.9	
520.24	8822	
520.43	7561.8	
520.63	5864.7	
520.83	5648.3	
521.02	6782.2	
521.22	7468.9	
521.42	6219	
521.61	6752.2	
521.81	6976.1	
522.01	7231.4	
522.2	6046.3	
522.4	5786.9	
522.6	7617.1	
522.79	6456.6	
522.99	5838.1	
523.18	5119.9	
523.38	7298.3	
523.58	7361.1	
523.77	7150.1	
523.97	5019.6	
524.17	9213.1	
524.36	8346.2	
524.56	6365.1	
524.76	5987.6	
524.95	7253.9	
525.15	6891.4	
525.34	5784.1	
525.54	5717.9	
525.74	7621.9	
525.93	6574	
526.13	6947.4	
526.33	5702.2	
526.52	7892.9	
526.72	7331.7	
526.91	6886	
527.11	6141.2	
527.31	7948.2	
527.5	8306.6	
527.7	6023.8	
527.89	5089.2	
528.09	6722.1	
528.29	7370.6	
528.48	6479.1	
528.68	6164.4	
528.87	7785	
529.07	7823.2	
529.27	5980.8	
529.46	5477	
529.66	7320.8	
529.85	7797.3	
530.05	5332.9	
530.25	6126.2	
530.44	8811.7	
530.64	7296.9	
530.83	5758.9	
531.03	6001.2	
531.23	7662.8	
531.42	7591.1	
531.62	6810.9	
531.81	5976	
532.01	7843	
532.21	8214.4	
532.4	5608	
532.6	5992.4	
532.79	8800.8	
532.99	7773.4	
533.18	5952.1	
533.38	7053.9	
533.58	7248.4	
533.77	8120.9	
533.97	5920	
534.16	6762.4	
534.36	8297.7	
534.55	7325.6	
534.75	6886.6	
534.95	5900.2	
535.14	8155	
535.34	7339.2	
535.53	5588.2	
535.73	7699.7	
535.92	8685.4	
536.12	7564.5	
536.31	5732.3	
536.51	7056.6	
536.71	7860.1	
536.9	7524.2	
537.1	5949.3	
537.29	6004	
537.49	8304.5	
537.68	7276.4	
537.88	6435.4	
538.07	5624.4	
538.27	7486	
538.46	8609	
538.66	5517.2	
538.86	5928.2	
539.05	7524.2	
539.25	8071	
539.44	6251.1	
539.64	5931.6	
539.83	7448.5	
540.03	8386.4	
540.22	5790.3	
540.42	5873.6	
540.61	7772.7	
540.81	7783.6	
541	6470.9	
541.2	7039.6	
541.39	7283.9	
541.59	7617.8	
541.78	6718.7	
541.98	5819.6	
542.18	6830.7	
542.37	6866.2	
542.57	6191	
542.76	6761	
542.96	6993.1	
543.15	7899.7	
543.35	6321.4	
543.54	5630.5	
543.74	8122.9	
543.93	7736.5	
544.13	6287.9	
544.32	7490.8	
544.52	8058.1	
544.71	7175.4	
544.91	5317.9	
545.1	6709.1	
545.3	7271.7	
545.49	7946.1	
545.69	5338.4	
545.88	5949.3	
546.08	8862.2	
546.27	8543.4	
546.47	6548	
546.66	5758.2	
546.86	8190.5	
547.05	8875.2	
547.24	6008.7	
547.44	5831.2	
547.63	7090.1	
547.83	8274.5	
548.02	6262.7	
548.22	6485.9	
548.41	7012.2	
548.61	8382.3	
548.8	5826.5	
549	5803.9	
549.19	7645.1	
549.39	7898.3	
549.58	5509.7	
549.78	6125.5	
549.97	8137.9	
550.17	7604.8	
550.36	7045.7	
550.55	8073.8	
550.75	7608.9	
550.94	8544.8	
551.14	5839.4	
551.33	6187.6	
551.53	6931.7	
551.72	7824.6	
551.92	6264.7	
552.11	5973.2	
552.31	7914.7	
552.5	8020.5	
552.69	7711.3	
552.89	5640.1	
553.08	7931.8	
553.28	7654.6	
553.47	6037.4	
553.67	7177.4	
553.86	8699.8	
554.06	6894.1	
554.25	5217.5	
554.44	5840.1	
554.64	9458.2	
554.83	8909.3	
555.03	5829.2	
555.22	6229.9	
555.42	8142.7	
555.61	7798.7	
555.8	6041.5	
556	6270.2	
556.19	6965.8	
556.39	8249.2	
556.58	6150.7	
556.78	5963	
556.97	7739.3	
557.16	7510.6	
557.36	7339.2	
557.55	5741.1	
557.75	6737.1	
557.94	8515.5	
558.13	5829.9	
558.33	5616.2	
558.52	8364.6	
558.72	7280.5	
558.91	5643.5	
559.1	5983.5	
559.3	6975.4	
559.49	6759	
559.69	5268.7	
559.88	6291.4	
560.07	7802.1	
560.27	8191.9	
560.46	6466.1	
560.66	6650.4	
560.85	7494.2	
561.04	6774.7	
561.24	5706.3	
561.43	5945.9	
561.63	6980.8	
561.82	7327.6	
562.01	7200	
562.21	6250.4	
562.4	7799.3	
562.59	8642.4	
562.79	6102.9	
562.98	5723.4	
563.18	7593.2	
563.37	9192	
563.56	6557.6	
563.76	5547.9	
563.95	7118.1	
564.14	7063.4	
564.34	5952.1	
564.53	5816.2	
564.73	7578.8	
564.92	8099	
565.11	6136.4	
565.31	5519.3	
565.5	8276.5	
565.69	7131	
565.89	5760.9	
566.08	6008.7	
566.27	8087.4	
566.47	8433.5	
566.66	6724.2	
566.85	5248.3	
567.05	7610.9	
567.24	7057.3	
567.44	5647.6	
567.63	7060	
567.82	7896.3	
568.02	7616.4	
568.21	5670.1	
568.4	6113.9	
568.6	7472.4	
568.79	7585	
568.98	5489.9	
569.18	5580.7	
569.37	7397.9	
569.56	9531.9	
569.76	6064	
569.95	6911.9	
570.14	7883.3	
570.34	7797.3	
570.53	5505.6	
570.72	5399.1	
570.91	8382.3	
571.11	7392.5	
571.3	6007.4	
571.49	6959	
571.69	7473.7	
571.88	7013.6	
572.07	6552.8	
572.27	6553.5	
572.46	7013.6	
572.65	8124.3	
572.85	5713.8	
573.04	6159.6	
573.23	8333.2	
573.43	7582.9	
573.62	5420.3	
573.81	6173.3	
574	7580.9	
574.2	7311.2	
574.39	5853.1	
574.58	5999.9	
574.78	8393.9	
574.97	7615	
575.16	6300.2	
575.36	6478.4	
575.55	7897	
575.74	8140	
575.93	5452.4	
576.13	6498.2	
576.32	7423.2	
576.51	7876.5	
576.71	5862	
576.9	7220.5	
577.09	8301.8	
577.28	7780.9	
577.48	6476.4	
577.67	5315.2	
577.86	7377.5	
578.05	7775.5	
578.25	5973.9	
578.44	6072.2	
578.63	7572.7	
578.83	8787.2	
579.02	5391.6	
579.21	6916.7	
579.4	7761.8	
579.6	7412.3	
579.79	6208.8	
579.98	8421.9	
580.17	8051.2	
580.37	8138.6	
580.56	5610.1	
580.75	6431.3	
580.94	8700.5	
581.14	8445.8	
581.33	6957.6	
581.52	5747.3	
581.71	7899.7	
581.91	8596	
582.1	5438.7	
582.29	6017.6	
582.48	7616.4	
582.68	7501.7	
582.87	6593.1	
583.06	6181.5	
583.25	7920.9	
583.45	7797.3	
583.64	6850.5	
583.83	7645.7	
584.02	7331	
584.21	7889.5	
584.41	6850.5	
584.6	6104.3	
584.79	7535.8	
584.98	8409	
585.18	5567.7	
585.37	5508.4	
585.56	7060.7	
585.75	7959.8	
585.94	5775.3	
586.14	6512.5	
586.33	8560.5	
586.52	7509.9	
586.71	6350.8	
586.91	6113.9	
587.1	6991.8	
587.29	8027.4	
587.48	6010.1	
587.67	5909.1	
587.87	7966.6	
588.06	8037.6	
588.25	7256.6	
588.44	6568.5	
588.63	7556.3	
588.83	8123.6	
589.02	5964.4	
589.21	5822.4	
589.4	7435.5	
589.59	7213.6	
589.78	5155.4	
589.98	5421	
590.17	6955.6	
590.36	7611.6	
590.55	4903.5	
590.74	5841.5	
590.94	8957.1	
591.13	7428	
591.32	5479.7	
591.51	5141.1	
591.7	7986.4	
591.89	7431.4	
592.09	5201.8	
592.28	5771.2	
592.47	6634.1	
592.66	8528.4	
592.85	5109	
593.05	5406.6	
593.24	7293.5	
593.43	7994.6	
593.62	5493.3	
593.81	6034.7	
594	7223.9	
594.19	7539.3	
594.39	5461.9	
594.58	5326.1	
594.77	7609.6	
594.96	8202.8	
595.15	5287.2	
595.34	6097.5	
595.54	7696.9	
595.73	6783.6	
595.92	4737.6	
596.11	5898.8	
596.3	8178.9	
596.49	6893.5	
596.68	5763	
596.88	6219	
597.07	7983	
597.26	6765.1	
597.45	5250.3	
597.64	6489.3	
597.83	6995.2	
598.02	7634.8	
598.22	5289.2	
598.41	6009.4	
598.6	7416.4	
598.79	6842.9	
598.98	5416.2	
599.17	6382.2	
599.36	7404.8	
599.55	8748.9	
599.74	7515.4	
599.94	7247.1	
600.13	8049.2	
600.32	6841.6	
600.51	5121.3	
600.7	5221	
600.89	8696.4	
601.08	8737.3	
601.27	5062.6	
601.47	6065.4	
601.66	8004.1	
601.85	8710	
602.04	5778.7	
602.23	6143.9	
602.42	7026.6	
602.61	7685.3	
602.8	5670.8	
602.99	5489.2	
603.18	7359.7	
603.37	7636.9	
603.57	6128.9	
603.76	6726.9	
603.95	8473.1	
604.14	7974.8	
604.33	5526.8	
604.52	5978	
604.71	7528.3	
604.9	7187	
605.09	6630.6	
605.28	6333	
605.47	8150.2	
605.66	7932.5	
605.86	6237.4	
606.05	5598.5	
606.24	8316.8	
606.43	6715.3	
606.62	5932.3	
606.81	6807.4	
607	8018.5	
607.19	7368.6	
607.38	5358.2	
607.57	5535	
607.76	7073	
607.95	6571.2	
608.14	6109.1	
608.33	6685.3	
608.52	7079.8	
608.72	7979.6	
608.91	5319.9	
609.1	5171.1	
609.29	7271	
609.48	6778.1	
609.67	6277	
609.86	5304.9	
610.05	6887.3	
610.24	7222.5	
610.43	5084.4	
610.62	4734.2	
610.81	8458.8	
611	8184.4	
611.19	5270.1	
611.38	5962.3	
611.57	7511.9	
611.76	8985.1	
611.95	5076.9	
612.14	4909.7	
612.33	7324.9	
612.52	6825.9	
612.71	5627.1	
612.9	4827.7	
613.09	6434.7	
613.28	8938.7	
613.47	5305.6	
613.66	6382.8	
613.85	7434.1	
614.04	6995.9	
614.24	5517.2	
614.43	4683.7	
614.62	7589.8	
614.81	7615.7	
615	5972.6	
615.19	6096.1	
615.38	6891.4	
615.57	7235.5	
615.76	5875.6	
615.95	6881.9	
616.14	7587.7	
616.33	7209.5	
616.52	6217	
616.71	6436.8	
616.9	7586.4	
617.09	7414.3	
617.28	5573.2	
617.47	6885.3	
617.66	6630	
617.85	6682.5	
618.04	6483.2	
618.22	5922.7	
618.41	6931.7	
618.6	7931.8	
618.79	5746.6	
618.98	5423	
619.17	8245.8	
619.36	6500.9	
619.55	5685.8	
619.74	5687.2	
619.93	7394.5	
620.12	6796.5	
620.31	6191.7	
620.5	6354.2	
620.69	8038.3	
620.88	8483.4	
621.07	7126.2	
621.26	6059.9	
621.45	7645.8	
621.64	7630	
621.83	6207.4	
622.02	5359.5	
622.21	7650.5	
622.4	7361.1	
622.59	6754.9	
622.78	6526.9	
622.97	6903	
623.16	8086.1	
623.35	6083.1	
623.54	5213.4	
623.72	7163.8	
623.91	7251.2	
624.1	6377.4	
624.29	5096.7	
624.48	8400.1	
624.67	7712	
624.86	6268.1	
625.05	5245.5	
625.24	8613.8	
625.43	6846.4	
625.62	8011.7	
625.81	5488.6	
626	8025.3	
626.19	7165.8	
626.38	6296.8	
626.56	5701.5	
626.75	6939.9	
626.94	7793.9	
627.13	6248.4	
627.32	5025.7	
627.51	7665.5	
627.7	8998.1	
627.89	5113.8	
628.08	6241.5	
628.27	6877.1	
628.46	7018.4	
628.65	5432.6	
628.83	5092.6	
629.02	7636.2	
629.21	6895.5	
629.4	5870.8	
629.59	6049	
629.78	6758.3	
629.97	7845.1	
630.16	6144.6	
630.35	5579.3	
630.54	8257.4	
630.72	8041.7	
630.91	5578	
631.1	6356.2	
631.29	7529	
631.48	7617.8	
631.67	6268.1	
631.86	5675.6	
632.05	7056.6	
632.24	7147.4	
632.42	5313.8	
632.61	5953.4	
632.8	7243	
632.99	6831.3	
633.18	6030.6	
633.37	6437.4	
633.56	7406.8	
633.75	7311.2	
633.93	5962.3	
634.12	5599.8	
634.31	8228.7	
634.5	7840.3	
634.69	5707.7	
634.88	6208.8	
635.07	7272.3	
635.25	7890.1	
635.44	6650.4	
635.63	6844.3	
635.82	7014.3	
636.01	6614.3	
636.2	6568.5	
636.39	6085.2	
636.57	8343.4	
636.76	7975.5	
636.95	5452.4	
637.14	7027.9	
637.33	7542	
637.52	8567.3	
637.7	5343.8	
637.89	6276.3	
638.08	7090.8	
638.27	8656.1	
638.46	6322.8	
638.65	6873.7	
638.83	8701.1	
639.02	6919.4	
639.21	6317.3	
639.4	6865.5	
639.59	7507.9	
639.78	7091.4	
639.96	5618.9	
640.15	5655.8	
640.34	7363.1	
640.53	7591.8	
640.72	5309	
640.91	5649.7	
641.09	6771.3	
641.28	8136.6	
641.47	5633.3	
641.66	6552.1	
641.85	7495.6	
642.03	7810.3	
642.22	6343.2	
642.41	5831.9	
642.6	6851.8	
642.79	6365.1	
642.97	5515.9	
643.16	6256.5	
643.35	6965.8	
643.54	6792.4	
643.73	5481.7	
643.91	6343.9	
644.1	6573.3	
644.29	7284.6	
644.48	5562.3	
644.67	5561.6	
644.85	6838.9	
645.04	7137.2	
645.23	5125.4	
645.42	5419.6	
645.6	6707.1	
645.79	7879.9	
645.98	5441.5	
646.17	4532.2	
646.36	6483.2	
646.54	7043	
646.73	6397.9	
646.92	5031.9	
647.11	6736.5	
647.29	7759.8	
647.48	5180	
647.67	4971.1	
647.86	8137.3	
648.05	8091.5	
648.23	5539.8	
648.42	6939.9	
648.61	7449.8	
648.8	7163.8	
648.98	5199.8	
649.17	5489.2	
649.36	6681.8	
649.55	6183.5	
649.73	5328.1	
649.92	6025.1	
650.11	6594.5	
650.3	6910.5	
650.48	5408.7	
650.67	5162.2	
650.86	7248.4	
651.05	6148.7	
651.23	5355.4	
651.42	5367.7	
651.61	6719.4	
651.79	6945.3	
651.98	5564.3	
652.17	5157.5	
652.36	7193.8	
652.54	6315.3	
652.73	5258.5	
652.92	4992.9	
653.11	7247.1	
653.29	7286	
653.48	4448.2	
653.67	5581.4	
653.85	7021.1	
654.04	8096.3	
654.23	5782.8	
654.42	5321.3	
654.6	6589.7	
654.79	7305.8	
654.98	4801.1	
655.16	5406.6	
655.35	6185.5	
655.54	6162.3	
655.73	4969.7	
655.91	4801.1	
656.1	7368.6	
656.29	6107	
656.47	4413.4	
656.66	6206.7	
656.85	6390.3	
657.03	6438.1	
657.22	4955.4	
657.41	5091.3	
657.59	6500.9	
657.78	6320.7	
657.97	4658.4	
658.16	5434.6	
658.34	7230	
658.53	7615	
658.72	6311.8	
658.9	6806.1	
659.09	6583.5	
659.28	6665.5	
659.46	5145.2	
659.65	5056.4	
659.84	6322.8	
660.02	6955.6	
660.21	4987.5	
660.4	4874.8	
660.58	7377.5	
660.77	6670.9	
660.96	5568.4	
661.14	4634.6	
661.33	7997.3	
661.52	7860.8	
661.7	4505.5	
661.89	8481.3	
662.08	6311.8	
662.26	5924.1	
662.45	4870.1	
662.64	4980	
662.82	7146	
663.01	6197.2	
663.2	5058.5	
663.38	5726.8	
663.57	7046.4	
663.75	6809.5	
663.94	5363.6	
664.13	6688	
664.31	6346.7	
664.5	7070.3	
664.69	5712.5	
664.87	6182.1	
665.06	6121.4	
665.25	6832.7	
665.43	6440.2	
665.62	6496.2	
665.8	7180.9	
665.99	6493.4	
666.18	5289.2	
666.36	5425.8	
666.55	7150.8	
666.74	7055.9	
666.92	4912.4	
667.11	6795.8	
667.29	6530.3	
667.48	7162.4	
667.67	6235.4	
667.85	5418.2	
668.04	6596.5	
668.22	6556.2	
668.41	5393.7	
668.6	5566.4	
668.78	6302.3	
668.97	6565.8	
669.15	5814.9	
669.34	4723.3	
669.53	6290.7	
669.71	6724.2	
669.9	4883.7	
670.08	5608.7	
670.27	6337.8	
670.46	6949.4	
670.64	5830.6	
670.83	6093.4	
671.01	6228.6	
671.2	6830.7	
671.38	4960.2	
671.57	4864.6	
671.76	7494.9	
671.94	8065.6	
672.13	4814.8	
672.31	5982.8	
672.5	7014.3	
672.69	6327.5	
672.87	4985.4	
673.06	5287.9	
673.24	6879.8	
673.43	6395.1	
673.61	5794.4	
673.8	5312.4	
673.98	7078.5	
674.17	7317.4	
674.36	5924.8	
674.54	5738.4	
674.73	6899.6	
674.91	7179.5	
675.1	5464	
675.28	5069.4	
675.47	6615.6	
675.65	7150.1	
675.84	5280.3	
676.03	5741.8	
676.21	6423.1	
676.4	5842.9	
676.58	6192.4	
676.77	5834.7	
676.95	7845.1	
677.14	6341.2	
677.32	4974.5	
677.51	4797.7	
677.69	7111.9	
677.88	5947.3	
678.06	4837.3	
678.25	4924	
678.44	6628.6	
678.62	6396.5	
678.81	4654.4	
678.99	5745.9	
679.18	7491.5	
679.36	7015.7	
679.55	5226.4	
679.73	5851	
679.92	6938.5	
680.1	6327.5	
680.29	6571.2	
680.47	5255.8	
680.66	6392.4	
680.84	7192.5	
681.03	4541.7	
681.21	5672.9	
681.4	6373.3	
681.58	6240.2	
681.77	5054.4	
681.95	4989.5	
682.14	7263.5	
682.32	7602.7	
682.51	5971.2	
682.69	4761.5	
682.88	6222.4	
683.06	7047.7	
683.25	5665.4	
683.43	6112.5	
683.62	6571.9	
683.8	6995.2	
683.99	6188.3	
684.17	5459.2	
684.36	7920.9	
684.54	6523.5	
684.73	4720.6	
684.91	4918.5	
685.1	6821.1	
685.28	6301.6	
685.46	5484.5	
685.65	5646.9	
685.83	7171.3	
686.02	6503.7	
686.2	4985.4	
686.39	5167	
686.57	6330.3	
686.76	7941.3	
686.94	5064.6	
687.13	5097.4	
687.31	7015.7	
687.5	6603.3	
687.68	4568.3	
687.86	5900.9	
688.05	8163.2	
688.23	5943.9	
688.42	5969.8	
688.6	5021.6	
688.79	6350.1	
688.97	6346	
689.16	5485.8	
689.34	4422.2	
689.52	7185	
689.71	7327.6	
689.89	5712.5	
690.08	5035.3	
690.26	6672.3	
690.45	6478.4	
690.63	5935	
690.81	5097.4	
691	6246.3	
691.18	6298.9	
691.37	5289.9	
691.55	7572	
691.74	6307.7	
691.92	8360.5	
692.1	5385.5	
692.29	4739.7	
692.47	6496.2	
692.66	5774.6	
692.84	4999.8	
693.02	5578	
693.21	5885.2	
693.39	6410.1	
693.58	5606	
693.76	5046.2	
693.94	7663.5	
694.13	7415.7	
694.31	4960.2	
694.5	6145.3	
694.68	6195.1	
694.86	6557.6	
695.05	5397.8	
695.23	5495.4	
695.42	7030	
695.6	9305.3	
695.78	6053.1	
695.97	5129.5	
696.15	7020.4	
696.34	6392.4	
696.52	4868	
696.7	5677	
696.89	6769.2	
697.07	6218.3	
697.25	5612.1	
697.44	7283.3	
697.62	6727.6	
697.81	7129.7	
697.99	5320.6	
698.17	5795.8	
698.36	6011.5	
698.54	6734.4	
698.72	5707	
698.91	4625.7	
699.09	6355.5	
699.28	6244.3	
699.46	5342.5	
699.64	5223	
699.83	6086.6	
700.01	7524.9	
700.19	5995.1	
700.38	4445.5	
700.56	7467.6	
700.74	6247	
700.93	4790.9	
701.11	5687.2	
701.29	6900.3	
701.48	7922.2	
701.66	4980.7	
701.84	5090.6	
702.03	6346.7	
702.21	7045.7	
702.39	4579.3	
702.58	5249.6	
702.76	6804	
702.94	6909.2	
703.13	4629.8	
703.31	7092.8	
703.49	6085.9	
703.68	7286.7	
703.86	4890.5	
704.04	5818.3	
704.23	6608.8	
704.41	7101.7	
704.59	4959.5	
704.78	6321.4	
704.96	7775.5	
705.14	7097.6	
705.33	4714.4	
705.51	5681.7	
705.69	6440.2	
705.87	7376.1	
706.06	5882.4	
706.24	4708.3	
706.42	6756.2	
706.61	7087.3	
706.79	6003.3	
706.97	4782.7	
707.16	6216.3	
707.34	6866.8	
707.52	5989.6	
707.7	5036.6	
707.89	6335.1	
708.07	6080.4	
708.25	5999.9	
708.44	6048.3	
708.62	6378.7	
708.8	7588.4	
708.98	6221.7	
709.17	5111.7	
709.35	6715.3	
709.53	6847.7	
709.72	4847.5	
709.9	5008	
710.08	7079.8	
710.26	7066.9	
710.45	6575.3	
710.63	5192.3	
710.81	6752.8	
710.99	6757.6	
711.18	5868.1	
711.36	5214.1	
711.54	6567.2	
711.72	7309.9	
711.91	5428.5	
712.09	4820.2	
712.27	6714.6	
712.45	7426.6	
712.64	5684.5	
712.82	4571.1	
713	6155.5	
713.18	6328.2	
713.37	4808.6	
713.55	6124.8	
713.73	7317.4	
713.91	5765	
714.1	5274.2	
714.28	4673.5	
714.46	6954.2	
714.64	6210.8	
714.83	4108.2	
715.01	5048.2	
715.19	6297.5	
715.37	5598.5	
715.55	4719.2	
715.74	5092.6	
715.92	7292.8	
716.1	5162.9	
716.28	6225.1	
716.47	5292.6	
716.65	5916.6	
716.83	6078.4	
717.01	5087.8	
717.19	5188.2	
717.38	8235.6	
717.56	5662.6	
717.74	5399.8	
717.92	4444.8	
718.1	6980.8	
718.29	6076.3	
718.47	3951.9	
718.65	4769.7	
718.83	6711.2	
719.01	6690.7	
719.2	3902.1	
719.38	5079	
719.56	6346	
719.74	8032.1	
719.92	4613.4	
720.11	5781.4	
720.29	6475	
720.47	5562.3	
720.65	4155.3	
720.83	5106.3	
721.02	5986.2	
721.2	5668.1	
721.38	5233.2	
721.56	4362.2	
721.74	5231.9	
721.92	5439.4	
722.11	5698.8	
722.29	5347.9	
722.47	6784.2	
722.65	5864	
722.83	4412.7	
723.01	5391.6	
723.2	5958.2	
723.38	6236.1	
723.56	3781.9	
723.74	5071.5	
723.92	5457.2	
724.1	6657.3	
724.29	4307.6	
724.47	5554.8	
724.65	5491.3	
724.83	5482.4	
725.01	4207.2	
725.19	5137.7	
725.37	5457.2	
725.56	5589.6	
725.74	4113.7	
725.92	4396.3	
726.1	5442.1	
726.28	5794.4	
726.46	4865.3	
726.64	4543.1	
726.83	5743.2	
727.01	6035.4	
727.19	4070	
727.37	4927.4	
727.55	5807.4	
727.73	6406	
727.91	4069.3	
728.09	3926	
728.28	6431.3	
728.46	7155.6	
728.64	5083.1	
728.82	5003.2	
729	7486	
729.18	6758.3	
729.36	4165.6	
729.54	6741.9	
729.72	7902.4	
729.91	5952.1	
730.09	6124.8	
730.27	4868.7	
730.45	5888.6	
730.63	6598.6	
730.81	5490.6	
730.99	4513	
731.17	7092.8	
731.35	5617.6	
731.53	5042.1	
731.71	4646.2	
731.9	6854.6	
732.08	7081.9	
732.26	4976.6	
732.44	4592.9	
732.62	7071.6	
732.8	6642.2	
732.98	5358.2	
733.16	4432.5	
733.34	6526.9	
733.52	5257.1	
733.7	4896	
733.88	5224.4	
734.07	6441.5	
734.25	6099.5	
734.43	4314.4	
734.61	6000.5	
734.79	7662.1	
734.97	6004	
735.15	4523.3	
735.33	4877.6	
735.51	6402	
735.69	6051.7	
735.87	6605.4	
736.05	5117.2	
736.23	6229.2	
736.41	5988.3	
736.59	4868	
736.77	5079.6	
736.95	6739.9	
737.13	6090	
737.32	4582.7	
737.5	4801.1	
737.68	7294.2	
737.86	5995.8	
738.04	4348.5	
738.22	6334.4	
738.4	5780.7	
738.58	6122.1	
738.76	5122	
738.94	3956.7	
739.12	5905	
739.3	5797.8	
739.48	5634	
739.66	5451	
739.84	6266.8	
740.02	6199.2	
740.2	4052.9	
740.38	4446.8	
740.56	6612.9	
740.74	5390.9	
740.92	5173.9	
741.1	5091.9	
741.28	5984.2	
741.46	5857.9	
741.64	4645.5	
741.82	5271.5	
742	6066.8	
742.18	5987.6	
742.36	4917.2	
742.54	4448.9	
742.72	6627.9	
742.9	5393	
743.08	5290.6	
743.26	4075.5	
743.44	6965.1	
743.62	6746.7	
743.8	5502.9	
743.98	4483	
744.16	6490.7	
744.34	6139.1	
744.52	5452.4	
744.7	5394.3	
744.88	6549.4	
745.06	6085.9	
745.24	5429.2	
745.42	5494	
745.6	6685.3	
745.78	6417	
745.96	4190.8	
746.14	4507.6	
746.32	7462.1	
746.5	6639.5	
746.68	5152.7	
746.86	4564.9	
747.03	7202.7	
747.21	5367.7	
747.39	5130.2	
747.57	4642.7	
747.75	6300.9	
747.93	6732.4	
748.11	4592.2	
748.29	4500.8	
748.47	7944.8	
748.65	5978.7	
748.83	5319.3	
749.01	5020.9	
749.19	6459.3	
749.37	5600.5	
749.55	4919.9	
749.73	5047.6	
749.91	6124.8	
750.09	5859.9	
750.26	5104.2	
750.44	4373.8	
750.62	6156.2	
750.8	6117.3	
750.98	4250.9	
751.16	4610.7	
751.34	6251.8	
751.52	5549.3	
751.7	5436	
751.88	4301.4	
752.06	6688.7	
752.24	6543.3	
752.42	4199	
752.59	4542.4	
752.77	6091.3	
752.95	7469.6	
753.13	5382.1	
753.31	4743.1	
753.49	5776	
753.67	6247	
753.85	4985.4	
754.03	4588.1	
754.21	6578.1	
754.38	6952.9	
754.56	4828.4	
754.74	3835.8	
754.92	5771.9	
755.1	6653.2	
755.28	3850.9	
755.46	3944.4	
755.64	7390.4	
755.82	7533.8	
755.99	4268	
756.17	4360.8	
756.35	4891.2	
756.53	6627.9	
756.71	3272	
756.89	4289.8	
757.07	6192.4	
757.25	5250.3	
757.42	4826.4	
757.6	5664.7	
757.78	6201.9	
757.96	5099.4	
758.14	4432.5	
758.32	3891.1	
758.5	4733.5	
758.67	5589.6	
758.85	4234.5	
759.03	4404.5	
759.21	5801.9	
759.39	5150.6	
759.57	3775.1	
759.75	5099.4	
759.92	6378.7	
760.1	5640.1	
760.28	5451	
760.46	5635.3	
760.64	5375.2	
760.82	5104.9	
760.99	5234.6	
761.17	4363.5	
761.35	6214.2	
761.53	5203.2	
761.71	4472.8	
761.89	5195.7	
762.06	6117.3	
762.24	5580	
762.42	4476.2	
762.6	4323.9	
762.78	5555.5	
762.96	6300.2	
763.13	4898.1	
763.31	4573.8	
763.49	6388.3	
763.67	5575.3	
763.85	5496.7	
764.02	6110.5	
764.2	6721.4	
764.38	5845.6	
764.56	4435.9	
764.74	5392.3	
764.91	6835.4	
765.09	5684.5	
765.27	4168.3	
765.45	3938.9	
765.63	6924.9	
765.8	6741.2	
765.98	3607.2	
766.16	4035.9	
766.34	5241.4	
766.52	5059.2	
766.69	5057.1	
766.87	3817.4	
767.05	5674.9	
767.23	6441.5	
767.41	4205.2	
767.58	4472.8	
767.76	6305	
767.94	6414.9	
768.12	4268	
768.29	5142.4	
768.47	5749.3	
768.65	6516	
768.83	3878.2	
769	5134.3	
769.18	5283.1	
769.36	6117.3	
769.54	5174.5	
769.72	3951.2	
769.89	6319.3	
770.07	6537.8	
770.25	4280.9	
770.43	5629.2	
770.6	7202.7	
770.78	7698.3	
770.96	4556	
771.14	4331.5	
771.31	6266.8	
771.49	5543.9	
771.67	3609.2	
771.85	3921.9	
772.02	4764.9	
772.2	5654.4	
772.38	4728.8	
772.55	4159.4	
772.73	5898.1	
772.91	5696.8	
773.09	4544.4	
773.26	4643.4	
773.44	5855.8	
773.62	5575.9	
773.8	4025.6	
773.97	3714.3	
774.15	5978.7	
774.33	5552.7	
774.5	3938.9	
774.68	4332.8	
774.86	6159.6	
775.04	5543.9	
775.21	4018.1	
775.39	4055.7	
775.57	5883.8	
775.74	6363.7	
775.92	3854.3	
776.1	3759.4	
776.27	5879	
776.45	7144.7	
776.63	4003.1	
776.81	3530	
776.98	5451.7	
777.16	6686.6	
777.34	4263.9	
777.51	4102.8	
777.69	5458.5	
777.87	5182	
778.04	4268	
778.22	4928.8	
778.4	5287.9	
778.57	6013.5	
778.75	3503.4	
778.93	3794.9	
779.1	5113.8	
779.28	4930.1	
779.46	3501.3	
779.64	4035.2	
779.81	6161	
779.99	7117.4	
780.17	4845.5	
780.34	5102.9	
780.52	5492	
780.69	5769.8	
780.87	4437.3	
781.05	3934.8	
781.22	5547.3	
781.4	5729.5	
781.58	4057.7	
781.75	3203	
781.93	5708.4	
782.11	5101.5	
782.28	5012.7	
782.46	4101.4	
782.64	4848.2	
782.81	5870.2	
782.99	4154	
783.17	4163.5	
783.34	5815.5	
783.52	4928.1	
783.69	4350.6	
783.87	5308.3	
784.05	4998.4	
784.22	5029.1	
784.4	5192.3	
784.58	4501.4	
784.75	6083.1	
784.93	5124.7	
785.1	4142.4	
785.28	4838	
785.46	5737	
785.63	5038	
785.81	4078.2	
785.99	3904.8	
786.16	5214.1	
786.34	5651.7	
786.51	4016.7	
786.69	4427.7	
786.87	4829.1	
787.04	5367.7	
787.22	3872.7	
787.39	4903.5	
787.57	5008	
787.75	6214.2	
787.92	5012.7	
788.1	4989.5	
788.27	5128.8	
788.45	4834.6	
788.63	4626.4	
788.8	3271.3	
788.98	5530.2	
789.15	4755.4	
789.33	3507.5	
789.5	4233.2	
789.68	6061.3	
789.86	6159.6	
790.03	4629.8	
790.21	3982.6	
790.38	6060.6	
790.56	5189.6	
790.73	3827	
790.91	3818.1	
791.09	5100.8	
791.26	5913.9	
791.44	4166.3	
791.61	3535.5	
791.79	5110.4	
791.96	5181.4	
792.14	3642	
792.32	3267.9	
792.49	5147.9	
792.67	5245.5	
792.84	3751.2	
793.02	3477.5	
793.19	5581.4	
793.37	6414.9	
793.54	3201.7	
793.72	3675.4	
793.89	6490	
794.07	5101.5	
794.25	4309.6	
794.42	3324.5	
794.6	6230.6	
794.77	5862	
794.95	4579.9	
795.12	3939.6	
795.3	5038	
795.47	5836.7	
795.65	4364.9	
795.82	4205.2	
796	4937.7	
796.17	6895.5	
796.35	4071.4	
796.52	4820.2	
796.7	5684.5	
796.87	5717.2	
797.05	5136.3	
797.22	4976.6	
797.4	5756.2	
797.57	6855.2	
797.75	4178.5	
797.92	3913	
798.1	6083.1	
798.27	5153.4	
798.45	3343	
798.62	3583.3	
798.8	5436	
798.97	5956.9	
799.15	4452.3	
799.32	4195.6	
799.5	4634.6	
799.67	5525.4	
799.85	4590.9	
800.02	3291.8	
800.2	4997	
800.37	5421.7	
800.55	4762.2	
800.72	3927.3	
800.9	5962.3	
801.07	6405.4	
801.25	5302.9	
801.42	4344.4	
801.6	5963.7	
801.77	5718.6	
801.95	4017.4	
802.12	3821.5	
802.29	5548.6	
802.47	5670.1	
802.64	4329.4	
802.82	3250.1	
802.99	5069.4	
803.17	6106.4	
803.34	4151.2	
803.52	3759.4	
803.69	6793.8	
803.87	4852.3	
804.04	4150.6	
804.21	4264.6	
804.39	6281.1	
804.56	5268.7	
804.74	3547.1	
804.91	4419.5	
805.09	5054.4	
805.26	5188.9	
805.44	3609.9	
805.61	4060.4	
805.78	5792.3	
805.96	5900.2	
806.13	4363.5	
806.31	4730.1	
806.48	4608.6	
806.66	5245.5	
806.83	4322.6	
807	4230.4	
807.18	5043.5	
807.35	5594.4	
807.53	4258.4	
807.7	3362.1	
807.87	6408.1	
808.05	5172.5	
808.22	4739	
808.4	3376.4	
808.57	5147.2	
808.74	4749.2	
808.92	3872.7	
809.09	4980	
809.27	5047.6	
809.44	5712.5	
809.61	3442	
809.79	3844	
809.96	6324.1	
810.14	5931.6	
810.31	3328.6	
810.48	4097.3	
810.66	5279.7	
810.83	6015.6	
811.01	3858.4	
811.18	4362.2	
811.35	5979.4	
811.53	4588.1	
811.7	4730.1	
811.87	4380.6	
812.05	5089.9	
812.22	5059.2	
812.39	3743.7	
812.57	3622.2	
812.74	5120.6	
812.92	6923.5	
813.09	4054.3	
813.26	4438.6	
813.44	6596.5	
813.61	5094	
813.78	3360.7	
813.96	4534.9	
814.13	5189.6	
814.3	4807.3	
814.48	5012.7	
814.65	4095.3	
814.82	6485.2	
815	4965.6	
815.17	4194.2	
815.34	5090.6	
815.52	5076.2	
815.69	5089.2	
815.87	4169.7	
816.04	3577.8	
816.21	5172.5	
816.38	4492.6	
816.56	4000.4	
816.73	3782.6	
816.9	6601.3	
817.08	6008.7	
817.25	3843.4	
817.42	4799.8	
817.6	4695.3	
817.77	5255.8	
817.94	4319.2	
818.12	3705.5	
818.29	4919.2	
818.46	7748.8	
818.64	3944.4	
818.81	3664.5	
818.98	4795	
819.16	7091.4	
819.33	4499.4	
819.5	4150.5	
819.67	5530.2	
819.85	6281.8	
820.02	4148.5	
820.19	4347.8	
820.37	5473.5	
820.54	4928.1	
820.71	4272.7	
820.88	5324.7	
821.06	5382.7	
821.23	4907.6	
821.4	4250.9	
821.58	4269.3	
821.75	5984.8	
821.92	5304.2	
822.09	3427.6	
822.27	3575.1	
822.44	5190.9	
822.61	5068.7	
822.79	3454.9	
822.96	6746.7	
823.13	5681.1	
823.3	4861.2	
823.48	4009.2	
823.65	3560.1	
823.82	5862.7	
823.99	4702.1	
824.17	5090.6	
824.34	3634.5	
824.51	6913.3	
824.68	5246.9	
824.86	3772.4	
825.03	4282.3	
825.2	5157.5	
825.37	6385.6	
825.55	3743	
825.72	4237.2	
825.89	7002	
826.06	6472.9	
826.24	4134.8	
826.41	4159.4	
826.58	6358.3	
826.75	5482.4	
826.92	3222.8	
827.1	3568.2	
827.27	8706.6	
827.44	6930.3	
827.61	3914.4	
827.79	4786.8	
827.96	4874.2	
828.13	5328.8	
828.3	4057.7	
828.47	3371	
828.65	5400.5	
828.82	5364.3	
828.99	5321.3	
829.16	4581.3	
829.34	5796.4	
829.51	5546.6	
829.68	4233.8	
829.85	4440.7	
830.02	6068.1	
830.2	5889.3	
830.37	3217.4	
830.54	5080.3	
830.71	6675.7	
830.88	5147.2	
831.05	3272	
831.23	3815.4	
831.4	6293.4	
831.57	7245	
831.74	3908.9	
831.91	3422.2	
832.09	5369.1	
832.26	5831.2	
832.43	4059.8	
832.6	4596.3	
832.77	5389.6	
832.94	6206	
833.12	3216	
833.29	3984.7	
833.46	5573.2	
833.63	7442.3	
833.8	4452.3	
833.97	4091.2	
834.15	5857.2	
834.32	5534.3	
834.49	4235.9	
834.66	4287.8	
834.83	6110.5	
835	4871.4	
835.17	3898	
835.35	3902.1	
835.52	5696.1	
835.69	5593	
835.86	4085.7	
836.03	3388	
836.2	5729.5	
836.37	5417.6	
836.55	4046.8	
836.72	3789.4	
836.89	5329.5	
837.06	5903.6	
837.23	4138.9	
837.4	4549.9	
837.57	6734.4	
837.75	7456	
837.92	3639.2	
838.09	3928.7	
838.26	5388.9	
838.43	6129.6	
838.6	4301.4	
838.77	3803.1	
838.94	7060.7	
839.11	6689.3	
839.29	4091.2	
839.46	3209.2	
839.63	5742.5	
839.8	5537	
839.97	3940.3	
840.14	3967.6	
840.31	5527.5	
840.48	5768.4	
840.65	3213.9	
840.82	3812.6	
841	5819	
841.17	5780.7	
841.34	3586.7	
841.51	3616.7	
841.68	5696.8	
841.85	5482.4	
842.02	3749.8	
842.19	3087.7	
842.36	5540.4	
842.53	5517.2	
842.7	3646.7	
842.87	4461.2	
843.05	7359	
843.22	5451.7	
843.39	3412.6	
843.56	3708.2	
843.73	5182.7	
843.9	5870.2	
844.07	5986.2	
844.24	4917.2	
844.41	8634.2	
844.58	5019.6	
844.75	3448.8	
844.92	3857.7	
845.09	5845.6	
845.26	5734.3	
845.43	3525.2	
845.6	3749.1	
845.77	5801.9	
845.94	5517.9	
846.12	4052.9	
846.29	4253.6	
846.46	5999.9	
846.63	5793	
846.8	3624.9	
846.97	4337.6	
847.14	6311.2	
847.31	5766.4	
847.48	4024.9	
847.65	4464.6	
847.82	6131.6	
847.99	6004	
848.16	4835.9	
848.33	4465.9	
848.5	5335.6	
848.67	6294.1	
848.84	3594.9	
849.01	3803.1	
849.18	5216.2	
849.35	4825	
849.52	4538.3	
849.69	3489.7	
849.86	6010.8	
850.03	6242.9	
850.2	3629	
850.37	4454.3	
850.54	6212.9	
850.71	5435.3	
850.88	4322.6	
851.05	3582.6	
851.22	5653.1	
851.39	6402.6	
851.56	3373.7	
851.73	4127.3	
851.9	5025.7	
852.07	6075	
852.24	4015.4	
852.41	3575.8	
852.58	5614.2	
852.75	5152	
852.92	4064.5	
853.09	3505.4	
853.26	5372.5	
853.43	6264.7	
853.6	3545.7	
853.77	3041.2	
853.94	6363	
854.11	5757.5	
854.28	5363.6	
854.44	3938.9	
854.61	6825.2	
854.78	6138.4	
854.95	3591.5	
855.12	4528.7	
855.29	4662.5	
855.46	6408.8	
855.63	3562.1	
855.8	5046.2	
855.97	5368.4	
856.14	6152.1	
856.31	5086.5	
856.48	3904.1	
856.65	5328.8	
856.82	4990.2	
856.99	3468.6	
857.16	3910.9	
857.33	7160.4	
857.49	5461.2	
857.66	3870.7	
857.83	4132.8	
858	5363.6	
858.17	5614.2	
858.34	3307.5	
858.51	3558.7	
858.68	6555.5	
858.85	6565.8	
859.02	4201.7	
859.19	4497.3	
859.36	5028.4	
859.52	5115.1	
859.69	3581.2	
859.86	4302.1	
860.03	5151.3	
860.2	6442.9	
860.37	3259	
860.54	3578.5	
860.71	5989.6	
860.88	6432.7	
861.05	4042	
861.21	4531.5	
861.38	6494.8	
861.55	4966.3	
861.72	3222.8	
861.89	4050.2	
862.06	6122.7	
862.23	6664.8	
862.4	3424.9	
862.56	3749.1	
862.73	5866.1	
862.9	5508.4	
863.07	4231.1	
863.24	3239.2	
863.41	4931.5	
863.58	5100.8	
863.75	3700.7	
863.91	4149.9	
864.08	6444.3	
864.25	5977.3	
864.42	4545.1	
864.59	5074.9	
864.76	6780.1	
864.93	5094.7	
865.09	3462.4	
865.26	3792.2	
865.43	6237.4	
865.6	6741.2	
865.77	3132.7	
865.94	3541.6	
866.1	6367.1	
866.27	6128.2	
866.44	5449.6	
866.61	3416.7	
866.78	5483.1	
866.95	5928.9	
867.11	3465.8	
867.28	3155.2	
867.45	6156.9	
867.62	5176.6	
867.79	4152.6	
867.96	3574.4	
868.12	5084.4	
868.29	6084.5	
868.46	3644	
868.63	4873.5	
868.8	6250.4	
868.97	6044.9	
869.13	3810.6	
869.3	3741.6	
869.47	5893.4	
869.64	6160.3	
869.81	3570.3	
869.97	3668.6	
870.14	5829.2	
870.31	6585.6	
870.48	3500.7	
870.65	4506.9	
870.81	5304.2	
870.98	5361.6	
871.15	4117.8	
871.32	3700.7	
871.48	5905	
871.65	6581.5	
871.82	3580.5	
871.99	3940.3	
872.16	7004.1	
872.32	6419	
872.49	3590.1	
872.66	3638.6	
872.83	6050.4	
872.99	5315.8	
873.16	4150.5	
873.33	3512.9	
873.5	5662	
873.67	5686.5	
873.83	3808.5	
874	4870.1	
874.17	5812.1	
874.34	6954.9	
874.5	4691.9	
874.67	4487.8	
874.84	6492.7	
875.01	5064.6	
875.17	5154.7	
875.34	3613.3	
875.51	5708.4	
875.68	6922.1	
875.84	4373.8	
876.01	5309.7	
876.18	6068.1	
876.34	5937.1	
876.51	3633.1	
876.68	3525.2	
876.85	5472.2	
877.01	6374.6	
877.18	5133.6	
877.35	3564.1	
877.52	5588.2	
877.68	5010.7	
877.85	3446	
878.02	3547.1	
878.18	5572.5	
878.35	5232.6	
878.52	2922.5	
878.69	4040.6	
878.85	6016.2	
879.02	5939.8	
879.19	5113.8	
879.35	3881.6	
879.52	5976	
879.69	6219	
879.86	3076.7	
880.02	4004.5	
880.19	5507	
880.36	6819.7	
880.52	4141.7	
880.69	4311	
880.86	6135	
881.02	6205.3	
881.19	3975.8	
881.36	3885	
881.52	5976.7	
881.69	5268.1	
881.86	3865.2	
882.02	3805.1	
882.19	6350.8	
882.36	7375.4	
882.52	3683.6	
882.69	5067.4	
882.86	5790.3	
883.02	5634.6	
883.19	4397.7	
883.36	4069.3	
883.52	6099.5	
883.69	7017.7	
883.86	3680.9	
884.02	3246	
884.19	6091.3	
884.36	5590.3	
884.52	4059.1	
884.69	3815.4	
884.86	5283.1	
885.02	6718.7	
885.19	4025.6	
885.36	4128	
885.52	5535.7	
885.69	5753.4	
885.86	5204.6	
886.02	4605.9	
886.19	6029.2	
886.35	5408.7	
886.52	3994.9	
886.69	5079	
886.85	5167	
887.02	6442.9	
887.19	6442.9	
887.35	6442.9	
887.52	6442.9	
887.68	6442.9	
887.85	6442.9	
888.02	6442.9	
888.18	6442.9	
888.35	6442.9	
888.51	6442.9	
888.68	6442.9	
888.85	6442.9	
889.01	6442.9	
889.18	6442.9	
889.35	6442.9	
889.51	6442.9	
889.68	6442.9	
889.84	6442.9	
890.01	6442.9	
890.17	6442.9	
890.34	6442.9	
890.51	6442.9	
890.67	6442.9	
890.84	6442.9	
891	6442.9	
891.17	6442.9	
891.34	6442.9	
891.5	6442.9	
891.67	6442.9	
891.83	6442.9	
892	6442.9	
892.16	6442.9	
892.33	6442.9	
892.5	6442.9	
892.66	6442.9	
892.83	6442.9	
892.99	6442.9	
893.16	6442.9	
893.32	6442.9	
893.49	6442.9	
893.65	6442.9	
893.82	6442.9	
893.99	6442.9	
894.15	6442.9	
894.32	6442.9	
894.48	6442.9	
894.65	6442.9	
894.81	6442.9	
894.98	6442.9	
895.14	6442.9	
895.31	6442.9	
895.47	6442.9	
895.64	6442.9	
895.81	6442.9	
895.97	6442.9	
896.14	6442.9	
896.3	6442.9	
896.47	6442.9	
896.63	6442.9	
896.8	6442.9	
896.96	6442.9	
897.13	6442.9	
897.29	6442.9	
897.46	6442.9	
897.62	6442.9	
897.79	6442.9	
897.95	6442.9	
898.12	6442.9	
898.28	6442.9	
898.45	6442.9	
898.61	6442.9	
898.78	6442.9	
898.94	6442.9	
899.11	6442.9	
899.27	6442.9	
899.44	6442.9	
899.6	6442.9	
899.77	6442.9	
899.93	6442.9	
900.1	6442.9	
900.26	6442.9	
900.43	6442.9	
900.59	6442.9	
900.76	6442.9	
900.92	6442.9	
901.09	6442.9	
901.25	6442.9	
901.42	6442.9	
901.58	6442.9	
901.75	6442.9	
901.91	6442.9	
902.07	6442.9	
902.24	6442.9	
902.4	6442.9	
902.57	6442.9	
902.73	6442.9	
902.9	6442.9	
903.06	6442.9	
903.23	6442.9	
903.39	6442.9	
903.56	6442.9	
903.72	6442.9	
903.88	6442.9	
904.05	6442.9	
904.21	6442.9	
904.38	6442.9	
904.54	6442.9	
904.71	6442.9	
904.87	6442.9	
905.03	6442.9	
905.2	6442.9	
905.36	6442.9	
905.53	6442.9	
905.69	6442.9	
905.86	6442.9	
906.02	6442.9	
906.18	6442.9	
906.35	6442.9	
906.51	6442.9	
906.68	6442.9	
906.84	6442.9	
907.01	6442.9	
907.17	6442.9	
907.33	6442.9	
907.5	6442.9	
907.66	6442.9	
907.83	6442.9	
907.99	6442.9	
908.15	6442.9	
908.32	6442.9	
908.48	6442.9	
908.65	6442.9	
908.81	6442.9	
908.97	6442.9	
909.14	6442.9	
909.3	6442.9	
909.47	6442.9	
909.63	6442.9	
909.79	6442.9	
909.96	6442.9	
910.12	6442.9	
910.28	6442.9	
910.45	6442.9	
910.61	6442.9	
910.78	6442.9	
910.94	6442.9	
911.1	6442.9	
911.27	6442.9	
911.43	6442.9	
911.59	6442.9	
911.76	6442.9	
911.92	6442.9	
912.08	6442.9	
912.25	6442.9	
912.41	6442.9	
912.57	6442.9	
912.74	6442.9	
912.9	6442.9	
913.07	6442.9	
913.23	6442.9	
913.39	6442.9	
913.56	6442.9	
913.72	6442.9	
913.88	6442.9	
914.05	6442.9	
914.21	6442.9	
914.37	6442.9	
914.54	6442.9	
914.7	6442.9	
914.86	6442.9	
915.03	6442.9	
915.19	6442.9	
