Wavelength	Intensities	
nm	a.u.	
179.22	1722.2	
179.44	1718.6	
179.65	1725.8	
179.86	1711.4	
180.08	1671.1	
180.29	3994.9	
180.51	3069.2	
180.72	4929.5	
180.94	5637.4	
181.15	2736.1	
181.37	2749.7	
181.58	4807.9	
181.79	5087.2	
182.01	2846.7	
182.22	2991.4	
182.44	5044.1	
182.65	4302.1	
182.87	3697.3	
183.08	3244.7	
183.29	5332.9	
183.51	4467.3	
183.72	3060.3	
183.94	4253.6	
184.15	4758.1	
184.37	4745.1	
184.58	2762.7	
184.79	3565.5	
185.01	4461.2	
185.22	5104.9	
185.44	3706.1	
185.65	3237.8	
185.86	4737.6	
186.08	4358.8	
186.29	2712.9	
186.51	2865.8	
186.72	4562.9	
186.94	5126.7	
187.15	3227.6	
187.36	3329.3	
187.58	6496.2	
187.79	4868	
188.01	3411.2	
188.22	5150.6	
188.43	5750.7	
188.65	5110.4	
188.86	2839.8	
189.08	3377.1	
189.29	4586.8	
189.5	4572.4	
189.72	3057.6	
189.93	3136.1	
190.15	5176.6	
190.36	6047	
190.57	3352.5	
190.79	3263.1	
191	5215.5	
191.22	5233.2	
191.43	3426.3	
191.64	2865.8	
191.86	5422.3	
192.07	5212.1	
192.29	2965.5	
192.5	3082.2	
192.71	5265.3	
192.93	4629.8	
193.14	3061	
193.35	3136.1	
193.57	4559.5	
193.78	5188.2	
194	2544.9	
194.21	3014.6	
194.42	4453.6	
194.64	4773.8	
194.85	3358.7	
195.07	3801	
195.28	4796.3	
195.49	4250.2	
195.71	4003.8	
195.92	2927.2	
196.13	4927.4	
196.35	5011.4	
196.56	4220.9	
196.78	3321.1	
196.99	6023.8	
197.2	5634	
197.42	3701.4	
197.63	3340.9	
197.84	4374.5	
198.06	4960.2	
198.27	3093.8	
198.48	3967.6	
198.7	4620.2	
198.91	4804.5	
199.13	3371.6	
199.34	3375.1	
199.55	5193	
199.77	4216.8	
199.98	2994.8	
200.19	3405.8	
200.41	4724	
200.62	4500.1	
200.83	3464.5	
201.05	3702	
201.26	4741.7	
201.47	4528.1	
201.69	2977.1	
201.9	2924.5	
202.11	4782	
202.33	5547.3	
202.54	3167.5	
202.76	3508.2	
202.97	4832.5	
203.18	4891.2	
203.4	3452.9	
203.61	3385.3	
203.82	4830.5	
204.04	4565.6	
204.25	3412.6	
204.46	3319.8	
204.68	4792.9	
204.89	4909	
205.1	3235.8	
205.32	2856.9	
205.53	5076.2	
205.74	5199.8	
205.96	2534.7	
206.17	3394.2	
206.38	5044.8	
206.6	5188.9	
206.81	3786.7	
207.02	3169.6	
207.24	4998.4	
207.45	5320.6	
207.66	3224.2	
207.88	2817.3	
208.09	4939.7	
208.3	4782	
208.52	2982.5	
208.73	3244	
208.94	4804.5	
209.15	5289.2	
209.37	3196.9	
209.58	3534.1	
209.79	5218.2	
210.01	4651.6	
210.22	2606.4	
210.43	2720.4	
210.65	4704.2	
210.86	5002.5	
211.07	3186.6	
211.29	2955.2	
211.5	4957.4	
211.71	4725.3	
211.93	2964.1	
212.14	2992.8	
212.35	4687.8	
212.56	4821.6	
212.78	3351.2	
212.99	2809.1	
213.2	5464.7	
213.42	4616.8	
213.63	3065.8	
213.84	3220.8	
214.06	4317.1	
214.27	4379.9	
214.48	3190.7	
214.69	3378.5	
214.91	5321.3	
215.12	5349.3	
215.33	3407.1	
215.55	3679.5	
215.76	5698.1	
215.97	5027.8	
216.18	3280.2	
216.4	3187.3	
216.61	4511.7	
216.82	5168.4	
217.04	3003	
217.25	3115	
217.46	5250.3	
217.67	5029.1	
217.89	2704	
218.1	2781.8	
218.31	4862.6	
218.53	4907.6	
218.74	3149.8	
218.95	2988.7	
219.16	4753.3	
219.38	5517.2	
219.59	2992.1	
219.8	3508.9	
220.01	5858.6	
220.23	4758.1	
220.44	3873.4	
220.65	2899.2	
220.87	4829.1	
221.08	5281.7	
221.29	2814.6	
221.5	3549.8	
221.72	6197.8	
221.93	4498.7	
222.14	3375.7	
222.35	3871.3	
222.57	4764.3	
222.78	5134.3	
222.99	3227.6	
223.2	3404.4	
223.42	4986.8	
223.63	5102.2	
223.84	2538.8	
224.05	2572.9	
224.27	5760.3	
224.48	5444.2	
224.69	3863.2	
224.9	3329.3	
225.12	4937.7	
225.33	4764.9	
225.54	2802.3	
225.75	3085.6	
225.97	4498.7	
226.18	4732.9	
226.39	3167.5	
226.6	3027.6	
226.82	4555.4	
227.03	4473.4	
227.24	3401	
227.45	2807.8	
227.67	5128.8	
227.88	5435.3	
228.09	3721.8	
228.3	3664.5	
228.52	5070.8	
228.73	4683	
228.94	3107.5	
229.15	2793.4	
229.36	4767	
229.58	4687.1	
229.79	3118.4	
230	3601.7	
230.21	5560.2	
230.43	4861.2	
230.64	3304.1	
230.85	3404.4	
231.06	5206.6	
231.28	5148.6	
231.49	2824.8	
231.7	3261.7	
231.91	4995.7	
232.12	4811.4	
232.34	2905.4	
232.55	3247.4	
232.76	5268.1	
232.97	4927.4	
233.18	2949.1	
233.4	3303.4	
233.61	4984.8	
233.82	4545.8	
234.03	3156.6	
234.25	3027.6	
234.46	6336.4	
234.67	4822.3	
234.88	3373	
235.09	2983.2	
235.31	4949.3	
235.52	4651.6	
235.73	3312.2	
235.94	2835.8	
236.15	4580.6	
236.37	5638.7	
236.58	2979.1	
236.79	3209.2	
237	5018.9	
237.21	4382.7	
237.43	3403	
237.64	2759.3	
237.85	7920.2	
238.06	4472.1	
238.27	3460.4	
238.48	2872.6	
238.7	5063.9	
238.91	4655	
239.12	3145.7	
239.33	3292.5	
239.54	4481.6	
239.76	4686.4	
239.97	3170.3	
240.18	3225.6	
240.39	5638.1	
240.6	4915.1	
240.82	3309.5	
241.03	2862.4	
241.24	4743.1	
241.45	5401.9	
241.66	2945	
241.87	3457.7	
242.09	5393.7	
242.3	5570.5	
242.51	3465.2	
242.72	3181.2	
242.93	5074.2	
243.14	4723.3	
243.36	3697.3	
243.57	3938.9	
243.78	5401.2	
243.99	5036	
244.2	3162.1	
244.41	2940.9	
244.63	4472.1	
244.84	4990.9	
245.05	3361.4	
245.26	3220.1	
245.47	5014.1	
245.68	5106.3	
245.9	4143.7	
246.11	3367.5	
246.32	4654.4	
246.53	4982.7	
246.74	4992.3	
246.95	2753.2	
247.16	4468	
247.38	4755.4	
247.59	2777.7	
247.8	3214.6	
248.01	4489.8	
248.22	4704.9	
248.43	2997.5	
248.64	3192.8	
248.86	4385.4	
249.07	4560.8	
249.28	2857.6	
249.49	3376.4	
249.7	5225.7	
249.91	5257.8	
250.12	2788.7	
250.34	2815.3	
250.55	4893.3	
250.76	4773.1	
250.97	3240.6	
251.18	3341.6	
251.39	5261.2	
251.6	4926.7	
251.81	3370.3	
252.03	3344.3	
252.24	4613.4	
252.45	5097.4	
252.66	2884.9	
252.87	3491.8	
253.08	4782.7	
253.29	6053.8	
253.5	2837.1	
253.72	3876.8	
253.93	4656.4	
254.14	5524.1	
254.35	3070.6	
254.56	3116.3	
254.77	4956.8	
254.98	4505.5	
255.19	3035.8	
255.41	3791.5	
255.62	4884.4	
255.83	5256.5	
256.04	3398.3	
256.25	3217.4	
256.46	5701.5	
256.67	4562.2	
256.88	3305.4	
257.09	3637.9	
257.31	4401.8	
257.52	4558.1	
257.73	4077.5	
257.94	3091.8	
258.15	4678.9	
258.36	4786.1	
258.57	3825.6	
258.78	2489.6	
258.99	5197.1	
259.2	4617.5	
259.41	3054.9	
259.63	3172.3	
259.84	5358.2	
260.05	5651	
260.26	3961.5	
260.47	3028.9	
260.68	5218.9	
260.89	4650.9	
261.1	3643.3	
261.31	2942.2	
261.52	5292	
261.73	5496.1	
261.95	3873.4	
262.16	3410.6	
262.37	5307	
262.58	5402.5	
262.79	3904.1	
263	3108.1	
263.21	4856.4	
263.42	4608.6	
263.63	3377.1	
263.84	3170.3	
264.05	5165	
264.26	5439.4	
264.47	3759.4	
264.69	3297.9	
264.9	5410.1	
265.11	4920.6	
265.32	3027.6	
265.53	2985.9	
265.74	4907.6	
265.95	4339	
266.16	3209.2	
266.37	3545.7	
266.58	4901.5	
266.79	4619.5	
267	3085.6	
267.21	2918.4	
267.42	4462.5	
267.63	4800.4	
267.84	3183.2	
268.06	2803.7	
268.27	5115.1	
268.48	5296.7	
268.69	3162.1	
268.9	3650.8	
269.11	5344.5	
269.32	4350.6	
269.53	3233.7	
269.74	2953.2	
269.95	4985.4	
270.16	4322.6	
270.37	3255.6	
270.58	3694.5	
270.79	4705.5	
271	5167	
271.21	3378.5	
271.42	3291.1	
271.63	4938.3	
271.84	4495.3	
272.05	2683.5	
272.26	2904.7	
272.47	4814.8	
272.68	4923.3	
272.89	3073.3	
273.11	3442	
273.32	4626.4	
273.53	5480.4	
273.74	3433.1	
273.95	3392.8	
274.16	5218.2	
274.37	4754.7	
274.58	3562.8	
274.79	2886.3	
275	4959.5	
275.21	5238	
275.42	4119.8	
275.63	3571	
275.84	5068	
276.05	6069.5	
276.26	3358	
276.47	3166.2	
276.68	4734.9	
276.89	5580.7	
277.1	3646.7	
277.31	2860.3	
277.52	4930.8	
277.73	5220.3	
277.94	2792.7	
278.15	3072.6	
278.36	4959.5	
278.57	4498	
278.78	3088.3	
278.99	3431.7	
279.2	4583.4	
279.41	4447.5	
279.62	4002.4	
279.83	2938.8	
280.04	5672.9	
280.25	4485.1	
280.46	3963.5	
280.67	3222.1	
280.88	4561.5	
281.09	5241.4	
281.3	3336.8	
281.51	4136.9	
281.72	4599.1	
281.93	5100.1	
282.14	3076.7	
282.35	3287	
282.56	5195	
282.77	5145.2	
282.98	3135.4	
283.19	3752.6	
283.4	6140.5	
283.61	4708.3	
283.82	2931.3	
284.03	3916.4	
284.24	4934.2	
284.45	5185.5	
284.66	3981.9	
284.87	3730.7	
285.08	5253.7	
285.29	5304.2	
285.5	2806.4	
285.71	3160	
285.92	5207.3	
286.12	5736.4	
286.33	3886.4	
286.54	3167.5	
286.75	5158.8	
286.96	4688.5	
287.17	2953.2	
287.38	3792.8	
287.59	4556	
287.8	4573.8	
288.01	3164.8	
288.22	3586	
288.43	5103.5	
288.64	4408.6	
288.85	3674.7	
289.06	3495.9	
289.27	5115.8	
289.48	5425.1	
289.69	3964.2	
289.9	3548.4	
290.11	5324	
290.32	4596.3	
290.53	3700.7	
290.74	3487.7	
290.94	5080.3	
291.15	5150.6	
291.36	3079.5	
291.57	3585.3	
291.78	4674.1	
291.99	4334.9	
292.2	3018.7	
292.41	3444.7	
292.62	5175.9	
292.83	5080.3	
293.04	4169	
293.25	2991.4	
293.46	4653	
293.67	5219.6	
293.88	3078.8	
294.09	2955.2	
294.29	4453	
294.5	4897.4	
294.71	3261	
294.92	3123.8	
295.13	4678.2	
295.34	5652.4	
295.55	2783.9	
295.76	2760.7	
295.97	5114.5	
296.18	5601.9	
296.39	2884.9	
296.6	3059	
296.81	4830.5	
297.01	5068.7	
297.22	3202.3	
297.43	3048.7	
297.64	4605.2	
297.85	4461.2	
298.06	2613.9	
298.27	2805.7	
298.48	4762.9	
298.69	4556	
298.9	3243.3	
299.11	3026.9	
299.31	4496.7	
299.52	4496	
299.73	3489.7	
299.94	3429.7	
300.15	4805.2	
300.36	4545.1	
300.57	3421.5	
300.78	3420.8	
300.99	4706.9	
301.2	4909.7	
301.4	3032.4	
301.61	3237.8	
301.82	5052.3	
302.03	5119.2	
302.24	3577.1	
302.45	2940.2	
302.66	4992.3	
302.87	5326.8	
303.08	3084.9	
303.29	4021.5	
303.49	4612	
303.7	4739.7	
303.91	2791.4	
304.12	3884.3	
304.33	4412.7	
304.54	4908.3	
304.75	3080.8	
304.96	2990.7	
305.16	5023	
305.37	5541.1	
305.58	2740.9	
305.79	2809.8	
306	5077.6	
306.21	4330.8	
306.42	3050.1	
306.63	4469.4	
306.83	4617.5	
307.04	5156.8	
307.25	3346.4	
307.46	3295.2	
307.67	4229.1	
307.88	5053	
308.09	3022.1	
308.29	3096.5	
308.5	4851	
308.71	5193.6	
308.92	3170.3	
309.13	2947	
309.34	4717.8	
309.55	4721.3	
309.75	3747.8	
309.96	3437.2	
310.17	5125.4	
310.38	4538.3	
310.59	3492.5	
310.8	3402.4	
311.01	4668.7	
311.21	4713.7	
311.42	2990	
311.63	3048.7	
311.84	4605.2	
312.05	4855.7	
312.26	3414	
312.46	3631.7	
312.67	4711.7	
312.88	4480.3	
313.09	2915.6	
313.3	2914.3	
313.51	5399.8	
313.71	5640.8	
313.92	2975.7	
314.13	3087	
314.34	4917.2	
314.55	4790.9	
314.76	3670	
314.96	3284.3	
315.17	4960.2	
315.38	5092.6	
315.59	2968.2	
315.8	2882.2	
316.01	5369.1	
316.21	5470.1	
316.42	2864.4	
316.63	3242.6	
316.84	4659.1	
317.05	5210.7	
317.26	3383.9	
317.46	3169.6	
317.67	4744.5	
317.88	5029.8	
318.09	3656.3	
318.3	2872.6	
318.5	4627.7	
318.71	5015.5	
318.92	4556	
319.13	3454.9	
319.34	5163.6	
319.54	5246.2	
319.75	2786.6	
319.96	2663	
320.17	5012.1	
320.38	5256.5	
320.58	2783.9	
320.79	3237.8	
321	5268.7	
321.21	5294.7	
321.42	3295.9	
321.62	2750.4	
321.83	4569.7	
322.04	4816.1	
322.25	3166.8	
322.46	2983.9	
322.66	4878.3	
322.87	5085.1	
323.08	3547.1	
323.29	2900.6	
323.5	5636	
323.7	4457.1	
323.91	3879.5	
324.12	3564.1	
324.33	4906.9	
324.53	4977.9	
324.74	3375.7	
324.95	3642.7	
325.16	4323.9	
325.37	4712.4	
325.57	2971.6	
325.78	3012.6	
325.99	4922	
326.2	4385.4	
326.4	4044.1	
326.61	2762	
326.82	4747.9	
327.03	4904.2	
327.24	4040.6	
327.44	3777.8	
327.65	5004.6	
327.86	4193.6	
328.07	3361.4	
328.27	2902.7	
328.48	5302.2	
328.69	4457.1	
328.9	4084.3	
329.1	3130	
329.31	4762.2	
329.52	5358.2	
329.73	3026.2	
329.93	3297.2	
330.14	4855.7	
330.35	4977.9	
330.56	4611.3	
330.76	3567.6	
330.97	4681.7	
331.18	4886.5	
331.39	3265.8	
331.59	2734	
331.8	5175.9	
332.01	5277.6	
332.22	3079.5	
332.42	3377.1	
332.63	4878.3	
332.84	4532.8	
333.05	3306.1	
333.25	3008.5	
333.46	4579.9	
333.67	4777.2	
333.88	3158.7	
334.08	3386	
334.29	6117.3	
334.5	5283.1	
334.7	2914.3	
334.91	4102.1	
335.12	4478.2	
335.33	5062.6	
335.53	3262.4	
335.74	4542.4	
335.95	4683	
336.16	4457.1	
336.36	3244	
336.57	3674.1	
336.78	4459.1	
336.98	5199.1	
337.19	3941	
337.4	3216.7	
337.61	5734.3	
337.81	4418.2	
338.02	3051.5	
338.23	3802.4	
338.43	5369.1	
338.64	4520.5	
338.85	3024.8	
339.05	3827.7	
339.26	5433.3	
339.47	4350.6	
339.68	2951.8	
339.88	4190.1	
340.09	5008	
340.3	5145.2	
340.5	3450.8	
340.71	2710.8	
340.92	4433.2	
341.13	5323.4	
341.33	2901.3	
341.54	3465.8	
341.75	4942.4	
341.95	4675.5	
342.16	3311.6	
342.37	3583.3	
342.57	4505.5	
342.78	4695.3	
342.99	3620.8	
343.19	2768.2	
343.4	5115.1	
343.61	4977.9	
343.81	3158	
344.02	2957.9	
344.23	5135.6	
344.43	5344.5	
344.64	3579.2	
344.85	3538.2	
345.06	4970.4	
345.26	5289.2	
345.47	3412.6	
345.68	3947.8	
345.88	4367.6	
346.09	5154.1	
346.3	3425.6	
346.5	2693.8	
346.71	4722.6	
346.92	4568.3	
347.12	2803	
347.33	3387.3	
347.54	5238	
347.74	5489.9	
347.95	3381.2	
348.16	2653.5	
348.36	4661.9	
348.57	4536.3	
348.78	3398.3	
348.98	3597.6	
349.19	4758.1	
349.39	4364.2	
349.6	2833	
349.81	3022.1	
350.01	5102.9	
350.22	4567	
350.43	3318.4	
350.63	3833.8	
350.84	4846.9	
351.05	4622.9	
351.25	3009.1	
351.46	2783.2	
351.67	5180	
351.87	4536.9	
352.08	3196.9	
352.29	3576.4	
352.49	5210.7	
352.7	4910.3	
352.9	2902.7	
353.11	3624.2	
353.32	5638.7	
353.52	4679.6	
353.73	2941.6	
353.94	3627.6	
354.14	5041.4	
354.35	4813.4	
354.55	3065.1	
354.76	3334.8	
354.97	5012.7	
355.17	4820.2	
355.38	2957.3	
355.59	3814.7	
355.79	4578.6	
356	4855.7	
356.2	3287.7	
356.41	2948.4	
356.62	4489.8	
356.82	4769.7	
357.03	3533.4	
357.24	3236.5	
357.44	4625.7	
357.65	4735.6	
357.85	4227	
358.06	3399.6	
358.27	4438.6	
358.47	4585.4	
358.68	2941.6	
358.88	3536.2	
359.09	5057.1	
359.3	5282.4	
359.5	4050.9	
359.71	3643.3	
359.91	5603.9	
360.12	5104.9	
360.33	3587.4	
360.53	3896.6	
360.74	4686.4	
360.94	4796.3	
361.15	3753.2	
361.36	3216	
361.56	5319.3	
361.77	4898.7	
361.97	4073.4	
362.18	3349.8	
362.38	5365	
362.59	4668	
362.8	3138.9	
363	3101.3	
363.21	4495.3	
363.41	5018.2	
363.62	3594.9	
363.83	4278.9	
364.03	5084.4	
364.24	5747.3	
364.44	4468	
364.65	4349.2	
364.85	4892.6	
365.06	4677.6	
365.27	3317.7	
365.47	3418.1	
365.68	5604.6	
365.88	4898.7	
366.09	3562.8	
366.29	3415.3	
366.5	5086.5	
366.71	5379.3	
366.91	4379.9	
367.12	3753.9	
367.32	5853.8	
367.53	5266.7	
367.73	3794.9	
367.94	4484.4	
368.14	5326.8	
368.35	5961	
368.56	3760.1	
368.76	3262.4	
368.97	5362.9	
369.17	6559.6	
369.38	3364.8	
369.58	3608.5	
369.79	4620.2	
369.99	5618.9	
370.2	4291.2	
370.4	3600.3	
370.61	5154.1	
370.82	6015.6	
371.02	3591.5	
371.23	3164.1	
371.43	4688.5	
371.64	5713.2	
371.84	3665.9	
372.05	4379.9	
372.25	6551.5	
372.46	5342.5	
372.66	3682.9	
372.87	3673.4	
373.07	5383.4	
373.28	6688.7	
373.48	4393.6	
373.69	4103.4	
373.9	5121.3	
374.1	5190.9	
374.31	4357.4	
374.51	3968.3	
374.72	5663.3	
374.92	4946.5	
375.13	4551.3	
375.33	3975.1	
375.54	5472.2	
375.74	5142.4	
375.95	4100.7	
376.15	4903.5	
376.36	5510.4	
376.56	5380.7	
376.77	4111.6	
376.97	4407.9	
377.18	6375.3	
377.38	5651	
377.59	4660.5	
377.79	3867.9	
378	5540.4	
378.2	5809.4	
378.41	3872	
378.61	3827	
378.82	5924.8	
379.02	5347.2	
379.23	4070.7	
379.43	4783.4	
379.64	5950	
379.84	5707.7	
380.05	3872	
380.25	3868.6	
380.46	5707.7	
380.66	5458.5	
380.87	4855.7	
381.07	5087.2	
381.28	6257.9	
381.48	5716.6	
381.69	3901.4	
381.89	3979.2	
382.1	5031.2	
382.3	5745.9	
382.51	4733.5	
382.71	5388.9	
382.91	5683.8	
383.12	6096.1	
383.32	4135.5	
383.53	4355.3	
383.73	5583.4	
383.94	5525.4	
384.14	4266.6	
384.35	3676.1	
384.55	5360.9	
384.76	5741.8	
384.96	4155.3	
385.17	4272.1	
385.37	5716.6	
385.58	5106.3	
385.78	4281.6	
385.98	3547.8	
386.19	5310.4	
386.39	5605.3	
386.6	3923.9	
386.8	4119.8	
387.01	5749.3	
387.21	5725.4	
387.42	4405.9	
387.62	4894.6	
387.83	5315.8	
388.03	5627.1	
388.23	4257	
388.44	4838.7	
388.64	5169.8	
388.85	5201.2	
389.05	4593.6	
389.26	4947.9	
389.46	6774.7	
389.67	6236.1	
389.87	4557.4	
390.07	4575.2	
390.28	5571.8	
390.48	5341.1	
390.69	4095.3	
390.89	4284.4	
391.1	5474.9	
391.3	6163.7	
391.5	5099.4	
391.71	5558.9	
391.91	5963	
392.12	6576	
392.32	5245.5	
392.53	4615.4	
392.73	5602.6	
392.93	5629.9	
393.14	4457.1	
393.34	4920.6	
393.55	5929.6	
393.75	5606.7	
393.95	4374.5	
394.16	4313.7	
394.36	5487.9	
394.57	5944.6	
394.77	3997.6	
394.98	4220.9	
395.18	5421.7	
395.38	5586.9	
395.59	5005.9	
395.79	4192.9	
396	5644.2	
396.2	6081.8	
396.4	4912.4	
396.61	4889.9	
396.81	6190.3	
397.02	5687.9	
397.22	5150	
397.42	5193.6	
397.63	6258.6	
397.83	5766.4	
398.04	4371	
398.24	4825.7	
398.44	6055.2	
398.65	5442.1	
398.85	4308.9	
399.05	4423.6	
399.26	5799.2	
399.46	7030	
399.67	4691.2	
399.87	4500.8	
400.07	6103.6	
400.28	6302.3	
400.48	4603.2	
400.69	5356.8	
400.89	6783.6	
401.09	6865.5	
401.3	4629.8	
401.5	5470.8	
401.7	7062.1	
401.91	7269.6	
402.11	5027.1	
402.32	5023	
402.52	6703	
402.72	6535.8	
402.93	5214.1	
403.13	4345.1	
403.33	7117.4	
403.54	6008.7	
403.74	4850.3	
403.94	5404.6	
404.15	6055.8	
404.35	6889.4	
404.56	4563.6	
404.76	6007.4	
404.96	6376	
405.17	6172.6	
405.37	5283.8	
405.57	5013.4	
405.78	6589.7	
405.98	6170.5	
406.18	5406.6	
406.39	5480.4	
406.59	6599.2	
406.79	6204.7	
407	4616.1	
407.2	4557.4	
407.4	6590.4	
407.61	6657.9	
407.81	4693.3	
408.01	6410.8	
408.22	5849	
408.42	7319.4	
408.62	5705	
408.83	5429.8	
409.03	6541.2	
409.23	6503.7	
409.44	5564.3	
409.64	5819	
409.84	7493.5	
410.05	7473	
410.25	5905	
410.45	5724.1	
410.66	7195.9	
410.86	9000.8	
411.06	6257.9	
411.27	6059.3	
411.47	9080	
411.67	7578.8	
411.88	6367.8	
412.08	6697.5	
412.28	8030.8	
412.49	8458.1	
412.69	6384.9	
412.89	6412.9	
413.09	8322.9	
413.3	8283.4	
413.5	6498.9	
413.7	6270.9	
413.91	7720.8	
414.11	8398	
414.31	6419.7	
414.52	6806.8	
414.72	8192.6	
414.92	8230.8	
415.12	6520	
415.33	6939.2	
415.53	8545.5	
415.73	8699.8	
415.94	7200.7	
416.14	6720.8	
416.34	7900.4	
416.55	7711.3	
416.75	7735.2	
416.95	7309.9	
417.15	8772.8	
417.36	9138	
417.56	7918.1	
417.76	7381.6	
417.97	8957.1	
418.17	8815.1	
418.37	7035.5	
418.57	7088	
418.78	8766	
418.98	8475.9	
419.18	7780.2	
419.38	7614.3	
419.59	8381	
419.79	8129.1	
419.99	6882.5	
420.2	7165.8	
420.4	8727.8	
420.6	8856.1	
420.8	6935.1	
421.01	6820.4	
421.21	8759.8	
421.41	8853.4	
421.61	7209.5	
421.82	7038.9	
422.02	8463.6	
422.22	9071.8	
422.42	7729	
422.63	7259.4	
422.83	8427.4	
423.03	9372.9	
423.23	7387.7	
423.44	6624.5	
423.64	8427.4	
423.84	8156.4	
424.04	6838.9	
424.25	6593.1	
424.45	9053.4	
424.65	8981	
424.85	6455.9	
425.06	6936.5	
425.26	9164.7	
425.46	8270.4	
425.66	7296.2	
425.87	7027.9	
426.07	8853.4	
426.27	8704.5	
426.47	7079.1	
426.67	6535.8	
426.88	9067	
427.08	8652.7	
427.28	7321.5	
427.48	6564.4	
427.69	7789.1	
427.89	8293.6	
428.09	7221.8	
428.29	6617.7	
428.5	8877.3	
428.7	8419.2	
428.9	6574.7	
429.1	6847.7	
429.3	8518.2	
429.51	8665.6	
429.71	6706.4	
429.91	7446.4	
430.11	8837.7	
430.31	9050.7	
430.52	7150.8	
430.72	7358.4	
430.92	9237.7	
431.12	8930.5	
431.32	6990.4	
431.53	7159	
431.73	8170.7	
431.93	9286.2	
432.13	6797.9	
432.33	6801.3	
432.54	8548.9	
432.74	8710.7	
432.94	6830.7	
433.14	7539.3	
433.34	8947.6	
433.55	8748.2	
433.75	7584.3	
433.95	9074.5	
434.15	8961.9	
434.35	8735.3	
434.56	7096.9	
434.76	6871.6	
434.96	8902.5	
435.16	9258.9	
435.36	7138.5	
435.56	8051.2	
435.77	8906.6	
435.97	8927.8	
436.17	8602.8	
436.37	7985.7	
436.57	8914.8	
436.78	8895	
436.98	8960.5	
437.18	8457.4	
437.38	9538.1	
437.58	8957.8	
437.78	8578.3	
437.99	7561.1	
438.19	9367.4	
438.39	10512	
438.59	7497.6	
438.79	7027.3	
438.99	9723.8	
439.2	8742.8	
439.4	6867.5	
439.6	7034.8	
439.8	9147.6	
440	9972.9	
440.2	7960.5	
440.4	8099	
440.61	9632.3	
440.81	10164	
441.01	7683.3	
441.21	8409	
441.41	10357	
441.61	9882.8	
441.81	8733.2	
442.02	9496.4	
442.22	10639	
442.42	10109	
442.62	7909.9	
442.82	7841.7	
443.02	10435	
443.22	9779.7	
443.43	8316.8	
443.63	7993.9	
443.83	9478.7	
444.03	9562.6	
444.23	9043.1	
444.43	8765.3	
444.63	10155	
444.83	10884	
445.04	8420.6	
445.24	9278.7	
445.44	10192	
445.64	10391	
445.84	8777.6	
446.04	8766.7	
446.24	9631.6	
446.44	10332	
446.65	7902.4	
446.85	8312.7	
447.05	9626.1	
447.25	10271	
447.45	8357.1	
447.65	7900.4	
447.85	9741.5	
448.05	9356.5	
448.25	8738.7	
448.46	8532.5	
448.66	9830.9	
448.86	9538.1	
449.06	7940.7	
449.26	8743.5	
449.46	10124	
449.66	9445.2	
449.86	8501.1	
450.06	8414.4	
450.26	9613.2	
450.47	10217	
450.67	8463.6	
450.87	9003.6	
451.07	10290	
451.27	10081	
451.47	8136.6	
451.67	8651.3	
451.87	9802.9	
452.07	10666	
452.27	8474.5	
452.47	8313.4	
452.67	10150	
452.88	10331	
453.08	7826	
453.28	9252	
453.48	11092	
453.68	9881.4	
453.88	8424.7	
454.08	8486.1	
454.28	10507	
454.48	10146	
454.68	8905.9	
454.88	9424.8	
455.08	10504	
455.28	10565	
455.48	8327.7	
455.68	8916.9	
455.89	11153	
456.09	10849	
456.29	8690.9	
456.49	9011.7	
456.69	11104	
456.89	10443	
457.09	9353.1	
457.29	9718.3	
457.49	10890	
457.69	11185	
457.89	9497.8	
458.09	8858.1	
458.29	11015	
458.49	11552	
458.69	9917.6	
458.89	9594.1	
459.09	11979	
459.29	11917	
459.49	9615.2	
459.69	10232	
459.9	11438	
460.1	11353	
460.3	9454.8	
460.5	9340.8	
460.7	11584	
460.9	11256	
461.1	9111.4	
461.3	10089	
461.5	12218	
461.7	11764	
461.9	9743.6	
462.1	9856.9	
462.3	11612	
462.5	12195	
462.7	9876	
462.9	10106	
463.1	12932	
463.3	12946	
463.5	10145	
463.7	11269	
463.9	12144	
464.1	12420	
464.3	10826	
464.5	10841	
464.7	12822	
464.9	12827	
465.1	11974	
465.3	11185	
465.5	13013	
465.7	13231	
465.9	11675	
466.1	11073	
466.3	13165	
466.5	12854	
466.7	12377	
466.9	11245	
467.1	13174	
467.3	13645	
467.5	12409	
467.7	11537	
467.9	14003	
468.1	14758	
468.3	11919	
468.5	12458	
468.7	13318	
468.9	13122	
469.1	11932	
469.3	12624	
469.5	14877	
469.7	13235	
469.9	12126	
470.1	11876	
470.3	13672	
470.5	13519	
470.7	12812	
470.9	11822	
471.1	13472	
471.3	13316	
471.5	11692	
471.69	12990	
471.89	13106	
472.09	12650	
472.29	12405	
472.49	12301	
472.69	13080	
472.89	13518	
473.09	11710	
473.29	11378	
473.49	13174	
473.69	12996	
473.89	12168	
474.09	11628	
474.29	14042	
474.49	13701	
474.69	12211	
474.89	11755	
475.09	13045	
475.29	12959	
475.49	11325	
475.69	11558	
475.88	14136	
476.08	13338	
476.28	11215	
476.48	11396	
476.68	13583	
476.88	13239	
477.08	11254	
477.28	11582	
477.48	12822	
477.68	13355	
477.88	11056	
478.08	11379	
478.28	13741	
478.48	12935	
478.67	11456	
478.87	10813	
479.07	13700	
479.27	13056	
479.47	11596	
479.67	11659	
479.87	13523	
480.07	13926	
480.27	11152	
480.47	12241	
480.67	13222	
480.87	13833	
481.06	11373	
481.26	12125	
481.46	13340	
481.66	13063	
481.86	11729	
482.06	12486	
482.26	12994	
482.46	13568	
482.66	11559	
482.86	11527	
483.05	13422	
483.25	12775	
483.45	13644	
483.65	11719	
483.85	13123	
484.05	13377	
484.25	12083	
484.45	12548	
484.65	13780	
484.84	14149	
485.04	11864	
485.24	11898	
485.44	14415	
485.64	13106	
485.84	11510	
486.04	12605	
486.24	13439	
486.44	13582	
486.63	11524	
486.83	12277	
487.03	13637	
487.23	13929	
487.43	11689	
487.63	13505	
487.83	13871	
488.02	14452	
488.22	12645	
488.42	13150	
488.62	14590	
488.82	13681	
489.02	12280	
489.22	12621	
489.41	14458	
489.61	14382	
489.81	12185	
490.01	12297	
490.21	14648	
490.41	15156	
490.61	12464	
490.8	12521	
491	14371	
491.2	13640	
491.4	12796	
491.6	12155	
491.8	13997	
491.99	13982	
492.19	11841	
492.39	12074	
492.59	14302	
492.79	14446	
492.99	12868	
493.18	12292	
493.38	14576	
493.58	15469	
493.78	12998	
493.98	12758	
494.18	14700	
494.37	14619	
494.57	13468	
494.77	13579	
494.97	15268	
495.17	15538	
495.37	13465	
495.56	13791	
495.76	15963	
495.96	15690	
496.16	14727	
496.36	13978	
496.55	16081	
496.75	15655	
496.95	14261	
497.15	14244	
497.35	15950	
497.54	16144	
497.74	14105	
497.94	15520	
498.14	16595	
498.34	16438	
498.53	13943	
498.73	14603	
498.93	15704	
499.13	16272	
499.33	14694	
499.52	14764	
499.72	16482	
499.92	16535	
500.12	14472	
500.32	14645	
500.51	16612	
500.71	16539	
500.91	15390	
501.11	15048	
501.31	16728	
501.5	16986	
501.7	15558	
501.9	14753	
502.1	16421	
502.29	16709	
502.49	15328	
502.69	15393	
502.89	16640	
503.09	16574	
503.28	14222	
503.48	14272	
503.68	15833	
503.88	15892	
504.07	14938	
504.27	14431	
504.47	16392	
504.67	16135	
504.86	14919	
505.06	14498	
505.26	15803	
505.46	17086	
505.65	14390	
505.85	14442	
506.05	15547	
506.25	15927	
506.44	13674	
506.64	14316	
506.84	15283	
507.04	15886	
507.23	13695	
507.43	13997	
507.63	16769	
507.83	15408	
508.02	14114	
508.22	13874	
508.42	17014	
508.62	15390	
508.81	13887	
509.01	14467	
509.21	15051	
509.4	15337	
509.6	14244	
509.8	13684	
510	15250	
510.19	16470	
510.39	13620	
510.59	13840	
510.79	15381	
510.98	16388	
511.18	13863	
511.38	14095	
511.57	16009	
511.77	15771	
511.97	14432	
512.17	13749	
512.36	15879	
512.56	15638	
512.76	13752	
512.95	13334	
513.15	15858	
513.35	14972	
513.55	14267	
513.74	13679	
513.94	15819	
514.14	15375	
514.33	14421	
514.53	14173	
514.73	15266	
514.92	15640	
515.12	13893	
515.32	13779	
515.51	15694	
515.71	15933	
515.91	15218	
516.11	13669	
516.3	16991	
516.5	15453	
516.7	14356	
516.89	14913	
517.09	15449	
517.29	15621	
517.48	14429	
517.68	14090	
517.88	15361	
518.07	15817	
518.27	14541	
518.47	13672	
518.66	16257	
518.86	15216	
519.06	13570	
519.25	13917	
519.45	15496	
519.65	16819	
519.84	14303	
520.04	15029	
520.24	16986	
520.43	15933	
520.63	14239	
520.83	14014	
521.02	15306	
521.22	15680	
521.42	14136	
521.61	14702	
521.81	15426	
522.01	15350	
522.2	14100	
522.4	13844	
522.6	15956	
522.79	14910	
522.99	14063	
523.18	13607	
523.38	15911	
523.58	16114	
523.77	15376	
523.97	14125	
524.17	17606	
524.36	17059	
524.56	15205	
524.76	14976	
524.95	16550	
525.15	16189	
525.34	15086	
525.54	15225	
525.74	16976	
525.93	16371	
526.13	16186	
526.33	15498	
526.52	17586	
526.72	17196	
526.91	16506	
527.11	15969	
527.31	17584	
527.5	18030	
527.7	15991	
527.89	15353	
528.09	17023	
528.29	17610	
528.48	16262	
528.68	15930	
528.87	17769	
529.07	17731	
529.27	16039	
529.46	15724	
529.66	17740	
529.85	18065	
530.05	15782	
530.25	16158	
530.44	18725	
530.64	17608	
530.83	15845	
531.03	16265	
531.23	17933	
531.42	17694	
531.62	16687	
531.81	16132	
532.01	18218	
532.21	18495	
532.4	16294	
532.6	16756	
532.79	19106	
532.99	18738	
533.18	16991	
533.38	17689	
533.58	18559	
533.77	18918	
533.97	17248	
534.16	17741	
534.36	19381	
534.55	18759	
534.75	18161	
534.95	17438	
535.14	19587	
535.34	18865	
535.53	16974	
535.73	18492	
535.92	19875	
536.12	18775	
536.31	17055	
536.51	17941	
536.71	18995	
536.9	18536	
537.1	17055	
537.29	17161	
537.49	19117	
537.68	18477	
537.88	17490	
538.07	16739	
538.27	18895	
538.46	19682	
538.66	16972	
538.86	17358	
539.05	18994	
539.25	19219	
539.44	17684	
539.64	17101	
539.83	18665	
540.03	19579	
540.22	17105	
540.42	17105	
540.61	18738	
540.81	18917	
541	17222	
541.2	17847	
541.39	18245	
541.59	18713	
541.78	17665	
541.98	16807	
542.18	18150	
542.37	18146	
542.57	16913	
542.76	17580	
542.96	18050	
543.15	18368	
543.35	16789	
543.54	16323	
543.74	18232	
543.93	18232	
544.13	16433	
544.32	17328	
544.52	18327	
544.71	17563	
544.91	15895	
545.1	16610	
545.3	17628	
545.49	18132	
545.69	15714	
545.88	16134	
546.08	18850	
546.27	18503	
546.47	16531	
546.66	15954	
546.86	18140	
547.05	18507	
547.24	16169	
547.44	16102	
547.63	17323	
547.83	18122	
548.02	16314	
548.22	16404	
548.41	17146	
548.61	18191	
548.8	15834	
549	15866	
549.19	17480	
549.39	17922	
549.58	15363	
549.78	16094	
549.97	17847	
550.17	17286	
550.36	16444	
550.55	17165	
550.75	17236	
550.94	17866	
551.14	15438	
551.33	15598	
551.53	16711	
551.72	17468	
551.92	15702	
552.11	15409	
552.31	17432	
552.5	17120	
552.69	16691	
552.89	15130	
553.08	17385	
553.28	17097	
553.47	15482	
553.67	16236	
553.86	17707	
554.06	16401	
554.25	14625	
554.44	15165	
554.64	18035	
554.83	17841	
555.03	15152	
555.22	15400	
555.42	17371	
555.61	17030	
555.8	15113	
556	15360	
556.19	16415	
556.39	17276	
556.58	15113	
556.78	15036	
556.97	16852	
557.16	16661	
557.36	16026	
557.55	14847	
557.75	15990	
557.94	17651	
558.13	14983	
558.33	14764	
558.52	17461	
558.72	16322	
558.91	14897	
559.1	14859	
559.3	16245	
559.49	15882	
559.69	14511	
559.88	15107	
560.07	16516	
560.27	17006	
560.46	15307	
560.66	15298	
560.85	16514	
561.04	15801	
561.24	14569	
561.43	14597	
561.63	16041	
561.82	16244	
562.01	15568	
562.21	14830	
562.4	16397	
562.59	17185	
562.79	14773	
562.98	14561	
563.18	16480	
563.37	17703	
563.56	15107	
563.76	14611	
563.95	16177	
564.14	16194	
564.34	14950	
564.53	14637	
564.73	16596	
564.92	16879	
565.11	15199	
565.31	14790	
565.5	17051	
565.69	16251	
565.89	14948	
566.08	15166	
566.27	16827	
566.47	17449	
566.66	15627	
566.85	14693	
567.05	16928	
567.24	16459	
567.44	14994	
567.63	16029	
567.82	17083	
568.02	16681	
568.21	14930	
568.4	15182	
568.6	16841	
568.79	16756	
568.98	14813	
569.18	15026	
569.37	16918	
569.56	18422	
569.76	15427	
569.95	16082	
570.14	17043	
570.34	17257	
570.53	15060	
570.72	15021	
570.91	17562	
571.11	16851	
571.3	15307	
571.49	16133	
571.69	17094	
571.88	16519	
572.07	15838	
572.27	15621	
572.46	16615	
572.65	17358	
572.85	15219	
573.04	15658	
573.23	17677	
573.43	17073	
573.62	15280	
573.81	15700	
574	17281	
574.2	17107	
574.39	15716	
574.58	15740	
574.78	18077	
574.97	17585	
575.16	16167	
575.36	16401	
575.55	18062	
575.74	17940	
575.93	15567	
576.13	16527	
576.32	17471	
576.51	17960	
576.71	15881	
576.9	17027	
577.09	18256	
577.28	17845	
577.48	16291	
577.67	15657	
577.86	17530	
578.05	17927	
578.25	16175	
578.44	16199	
578.63	17619	
578.83	18763	
579.02	15655	
579.21	17060	
579.4	17927	
579.6	17696	
579.79	16257	
579.98	17877	
580.17	18042	
580.37	18344	
580.56	15670	
580.75	16429	
580.94	18409	
581.14	18402	
581.33	16894	
581.52	16037	
581.71	18172	
581.91	18522	
582.1	15894	
582.29	16270	
582.48	17898	
582.68	17976	
582.87	16635	
583.06	16393	
583.25	18168	
583.45	17544	
583.64	17027	
583.83	17504	
584.02	17793	
584.21	18155	
584.41	16789	
584.6	16425	
584.79	18053	
584.98	18443	
585.18	16049	
585.37	15989	
585.56	17711	
585.75	18103	
585.94	16031	
586.14	16649	
586.33	18456	
586.52	17875	
586.71	16351	
586.91	16153	
587.1	17077	
587.29	18113	
587.48	15730	
587.67	15892	
587.87	17762	
588.06	17557	
588.25	16623	
588.44	16033	
588.63	17165	
588.83	17588	
589.02	15677	
589.21	15558	
589.4	17015	
589.59	16891	
589.78	14496	
589.98	14589	
590.17	15928	
590.36	16412	
590.55	13671	
590.74	14128	
590.94	16905	
591.13	15666	
591.32	13859	
591.51	13521	
591.7	16023	
591.89	15796	
592.09	13772	
592.28	14117	
592.47	15137	
592.66	16777	
592.85	13827	
593.05	13996	
593.24	15671	
593.43	16411	
593.62	14225	
593.81	14468	
594	15803	
594.19	15958	
594.39	14012	
594.58	13917	
594.77	16007	
594.96	16424	
595.15	13896	
595.34	14322	
595.54	15851	
595.73	15101	
595.92	13275	
596.11	14007	
596.3	16162	
596.49	15159	
596.68	13871	
596.88	14073	
597.07	15741	
597.26	15077	
597.45	13423	
597.64	14499	
597.83	15167	
598.02	15715	
598.22	13481	
598.41	13991	
598.6	15507	
598.79	14983	
598.98	13438	
599.17	14192	
599.36	15563	
599.55	16187	
599.74	15040	
599.94	14717	
600.13	15886	
600.32	14848	
600.51	13261	
600.7	13258	
600.89	16129	
601.08	16189	
601.27	13099	
601.47	13897	
601.66	15548	
601.85	16038	
602.04	13741	
602.23	13594	
602.42	14872	
602.61	15261	
602.8	13477	
602.99	13133	
603.18	15008	
603.37	15143	
603.57	13642	
603.76	14123	
603.95	15903	
604.14	15363	
604.33	13345	
604.52	13601	
604.71	15319	
604.9	14797	
605.09	13970	
605.28	13792	
605.47	15654	
605.66	15193	
605.86	13810	
606.05	13207	
606.24	15597	
606.43	14319	
606.62	13525	
606.81	14018	
607	15477	
607.19	14910	
607.38	12936	
607.57	13128	
607.76	14591	
607.95	14175	
608.14	13366	
608.33	13839	
608.52	14641	
608.72	15230	
608.91	12807	
609.1	12675	
609.29	14586	
609.48	14177	
609.67	13280	
609.86	12657	
610.05	14329	
610.24	14444	
610.43	12665	
610.62	12308	
610.81	15345	
611	15128	
611.19	12630	
611.38	13254	
611.57	14748	
611.76	15515	
611.95	12461	
612.14	12278	
612.33	14508	
612.52	14161	
612.71	12856	
612.9	12248	
613.09	13955	
613.28	15573	
613.47	12628	
613.66	13337	
613.85	14636	
614.04	13997	
614.24	12580	
614.43	12049	
614.62	14644	
614.81	14563	
615	13100	
615.19	13087	
615.38	13986	
615.57	14413	
615.76	12994	
615.95	13803	
616.14	14728	
616.33	14450	
616.52	13197	
616.71	13337	
616.9	14642	
617.09	14492	
617.28	12696	
617.47	13542	
617.66	14009	
617.85	14109	
618.04	13644	
618.22	13102	
618.41	14521	
618.6	15220	
618.79	13209	
618.98	13063	
619.17	15554	
619.36	14195	
619.55	13206	
619.74	13270	
619.93	15048	
620.12	14611	
620.31	13762	
620.5	14016	
620.69	15902	
620.88	15930	
621.07	14483	
621.26	13848	
621.45	15530	
621.64	15344	
621.83	14015	
622.02	13296	
622.21	15298	
622.4	15323	
622.59	14367	
622.78	14259	
622.97	14995	
623.16	15893	
623.35	13957	
623.54	13158	
623.72	15275	
623.91	15339	
624.1	14141	
624.29	13162	
624.48	16234	
624.67	15552	
624.86	14151	
625.05	13469	
625.24	16331	
625.43	15018	
625.62	15479	
625.81	13799	
626	15754	
626.19	15321	
626.38	14288	
626.56	13816	
626.75	15253	
626.94	15820	
627.13	14201	
627.32	13265	
627.51	15642	
627.7	16593	
627.89	13117	
628.08	14076	
628.27	15039	
628.46	15232	
628.65	13420	
628.83	13312	
629.02	15504	
629.21	15019	
629.4	13827	
629.59	13973	
629.78	15100	
629.97	15698	
630.16	13926	
630.35	13562	
630.54	16138	
630.72	16014	
630.91	13646	
631.1	13978	
631.29	15401	
631.48	15489	
631.67	14039	
631.86	13637	
632.05	15188	
632.24	15194	
632.42	13253	
632.61	13842	
632.8	15091	
632.99	14977	
633.18	13901	
633.37	14088	
633.56	15344	
633.75	15192	
633.93	13864	
634.12	13564	
634.31	15989	
634.5	15639	
634.69	13575	
634.88	13830	
635.07	15205	
635.25	15634	
635.44	14261	
635.63	14448	
635.82	14977	
636.01	14488	
636.2	14091	
636.39	13734	
636.57	15883	
636.76	15452	
636.95	13406	
637.14	14412	
637.33	15414	
637.52	15878	
637.7	13106	
637.89	13905	
638.08	15024	
638.27	16076	
638.46	13859	
638.65	14201	
638.83	15844	
639.02	14728	
639.21	13712	
639.4	14063	
639.59	14998	
639.78	14640	
639.96	12990	
640.15	13059	
640.34	14840	
640.53	14859	
640.72	12761	
640.91	12876	
641.09	14232	
641.28	15129	
641.47	13004	
641.66	13519	
641.85	14746	
642.03	14788	
642.22	13257	
642.41	12831	
642.6	14298	
642.79	13738	
642.97	12599	
643.16	13276	
643.35	14154	
643.54	13892	
643.73	12514	
643.91	13081	
644.1	13832	
644.29	14301	
644.48	12504	
644.67	12411	
644.85	13623	
645.04	13961	
645.23	11972	
645.42	12327	
645.6	13479	
645.79	14268	
645.98	11940	
646.17	11289	
646.36	13057	
646.54	13372	
646.73	12249	
646.92	11475	
647.11	12957	
647.29	13768	
647.48	11441	
647.67	11192	
647.86	13808	
648.05	13949	
648.23	11635	
648.42	12517	
648.61	13453	
648.8	13174	
648.98	11247	
649.17	11490	
649.36	12689	
649.55	12510	
649.73	11282	
649.92	11752	
650.11	12764	
650.3	12942	
650.48	11269	
650.67	11264	
650.86	13168	
651.05	12250	
651.23	11232	
651.42	11127	
651.61	12581	
651.79	12483	
651.98	11323	
652.17	10944	
652.36	12868	
652.54	12153	
652.73	11067	
652.92	10893	
653.11	12820	
653.29	12861	
653.48	10382	
653.67	11066	
653.85	12486	
654.04	13329	
654.23	11103	
654.42	10605	
654.6	11858	
654.79	12424	
654.98	10074	
655.16	10368	
655.35	11349	
655.54	11081	
655.73	9835	
655.91	9849.4	
656.1	11973	
656.29	11163	
656.47	9554.5	
656.66	10882	
656.85	11572	
657.03	11507	
657.22	10096	
657.41	10286	
657.59	11746	
657.78	11566	
657.97	10034	
658.16	10671	
658.34	12235	
658.53	12637	
658.72	11202	
658.9	11533	
659.09	12014	
659.28	11938	
659.46	10354	
659.65	10316	
659.84	11727	
660.02	12069	
660.21	10362	
660.4	10187	
660.58	12450	
660.77	11946	
660.96	10843	
661.14	9936.7	
661.33	12828	
661.52	12725	
661.7	9920.4	
661.89	12562	
662.08	11656	
662.26	11236	
662.45	10188	
662.64	10241	
662.82	12218	
663.01	11577	
663.2	10146	
663.38	10755	
663.57	11762	
663.75	11944	
663.94	10344	
664.13	11179	
664.31	11559	
664.5	11938	
664.69	10391	
664.87	10956	
665.06	11189	
665.25	11963	
665.43	11013	
665.62	11140	
665.8	11985	
665.99	11477	
666.18	10198	
666.36	10340	
666.55	11909	
666.74	11815	
666.92	9940.2	
667.11	11131	
667.29	11446	
667.48	11890	
667.67	10842	
667.85	10109	
668.04	11418	
668.22	11465	
668.41	10152	
668.6	10415	
668.78	11300	
668.97	11524	
669.15	10421	
669.34	9618.6	
669.53	11308	
669.71	11488	
669.9	9751.7	
670.08	10293	
670.27	11146	
670.46	11686	
670.64	10307	
670.83	10622	
671.01	11088	
671.2	11557	
671.38	9843.9	
671.57	9638.4	
671.76	12039	
671.94	12426	
672.13	9781.1	
672.31	10470	
672.5	11810	
672.69	11240	
672.87	9784.5	
673.06	10070	
673.24	11613	
673.43	11374	
673.61	10243	
673.8	9978.4	
673.98	11597	
674.17	11665	
674.36	10493	
674.54	10230	
674.73	11356	
674.91	11693	
675.1	10116	
675.28	9773.6	
675.47	11403	
675.65	11742	
675.84	10018	
676.03	10276	
676.21	11161	
676.4	10837	
676.58	10617	
676.77	10357	
676.95	12344	
677.14	11055	
677.32	9555.1	
677.51	9694.4	
677.69	11733	
677.88	10910	
678.06	9645.9	
678.25	9734	
678.44	11355	
678.62	11125	
678.81	9435	
678.99	10151	
679.18	11830	
679.36	11569	
679.55	9885.5	
679.73	10387	
679.92	11472	
680.1	11172	
680.29	10722	
680.47	9788.6	
680.66	11015	
680.84	11703	
681.03	9355.8	
681.21	10217	
681.4	11116	
681.58	11054	
681.77	9729.9	
681.95	9705.3	
682.14	11783	
682.32	11981	
682.51	10316	
682.69	9355.8	
682.88	10911	
683.06	11244	
683.25	10076	
683.43	10322	
683.62	11200	
683.8	11524	
683.99	10392	
684.17	9871.9	
684.36	12017	
684.54	10988	
684.73	9041.8	
684.91	9182.4	
685.1	10956	
685.28	10299	
685.46	9301.9	
685.65	9218.6	
685.83	10606	
686.02	10127	
686.2	8600.1	
686.39	8740	
686.57	10014	
686.76	11118	
686.94	8770.8	
687.13	9105.3	
687.31	10573	
687.5	10428	
687.68	8540.7	
687.86	9498.5	
688.05	11852	
688.23	10007	
688.42	9599.5	
688.6	9128.5	
688.79	10463	
688.97	10509	
689.16	9460.9	
689.34	8606.9	
689.52	11045	
689.71	11340	
689.89	9781.8	
690.08	9223.4	
690.26	10890	
690.45	10694	
690.63	9883.5	
690.81	9407	
691	10729	
691.18	10574	
691.37	9454.8	
691.55	10986	
691.74	10343	
691.92	11925	
692.1	9314.2	
692.29	8839.7	
692.47	10598	
692.66	9983.2	
692.84	9187.2	
693.02	9431.6	
693.21	10185	
693.39	10532	
693.58	9578.3	
693.76	9164.7	
693.94	11501	
694.13	11461	
694.31	9323.7	
694.5	10013	
694.68	10573	
694.86	10953	
695.05	9647.3	
695.23	9711.5	
695.42	11328	
695.6	13035	
695.78	10269	
695.97	9518.3	
696.15	11467	
696.34	10922	
696.52	9309.4	
696.7	9885.5	
696.89	11060	
697.07	10542	
697.25	9714.9	
697.44	10943	
697.62	11079	
697.81	11213	
697.99	9489.6	
698.17	10038	
698.36	10456	
698.54	10922	
698.72	9637.7	
698.91	8893.6	
699.09	10533	
699.28	10486	
699.46	9506	
699.64	9213.8	
699.83	10434	
700.01	11190	
700.19	9950.4	
700.38	8879.3	
700.56	11353	
700.74	10529	
700.93	9033.6	
701.11	9644.6	
701.29	10988	
701.48	11736	
701.66	9259.5	
701.84	9375.6	
702.03	10735	
702.21	11347	
702.39	9052	
702.58	9607	
702.76	11080	
702.94	11135	
703.13	9049.3	
703.31	10902	
703.49	10606	
703.68	11343	
703.86	9122.3	
704.04	9908.8	
704.23	10953	
704.41	11256	
704.59	9302.6	
704.78	10076	
704.96	12149	
705.14	11138	
705.33	9164	
705.51	9644.6	
705.69	10817	
705.87	11281	
706.06	9916.9	
706.24	9126.4	
706.42	10916	
706.61	11161	
706.79	9877.4	
706.97	8974.9	
707.16	10556	
707.34	10945	
707.52	9747.6	
707.7	9261.6	
707.89	10546	
708.07	10393	
708.25	9888.3	
708.44	10127	
708.62	10383	
708.8	11274	
708.98	9925.1	
709.17	9207	
709.35	10710	
709.53	10775	
709.72	8930.5	
709.9	9228.1	
710.08	11056	
710.26	10985	
710.45	10020	
710.63	9174.2	
710.81	10589	
710.99	10559	
711.18	9594.7	
711.36	9140.8	
711.54	10419	
711.72	10968	
711.91	9161.9	
712.09	8717.5	
712.27	10389	
712.45	10834	
712.64	9136.7	
712.82	8338	
713	9802.3	
713.18	9925.8	
713.37	8316.8	
713.55	9106	
713.73	10362	
713.91	9215.2	
714.1	8291.5	
714.28	7763.8	
714.46	9710.8	
714.64	8916.2	
714.83	6987	
715.01	7451.9	
715.19	8746.2	
715.37	8083.3	
715.55	6966.5	
715.74	7176.1	
715.92	9093	
716.1	7549.5	
716.28	7940.7	
716.47	7136.5	
716.65	8047.2	
716.83	8045.8	
717.01	7016.3	
717.19	6908.5	
717.38	9635	
717.56	7816.4	
717.74	7292.1	
717.92	6539.8	
718.1	8802.9	
718.29	8164.6	
718.47	6346	
718.65	6942.6	
718.83	8957.8	
719.01	9059.5	
719.2	6662	
719.38	7540.6	
719.56	8873.8	
719.74	10140	
719.92	7240.9	
720.11	8016.4	
720.29	8899.8	
720.47	8219.2	
720.65	6679.8	
720.83	7231.4	
721.02	8277.2	
721.2	7885.4	
721.38	7062.8	
721.56	6506.4	
721.74	7412.3	
721.92	7561.8	
722.11	7296.9	
722.29	7023.2	
722.47	8556.4	
722.65	7935.9	
722.83	6393.1	
723.01	6956.9	
723.2	7863.5	
723.38	8144.8	
723.56	5995.8	
723.74	6898.2	
723.92	7471.7	
724.1	8389.2	
724.29	6318.7	
724.47	7137.9	
724.65	7649.8	
724.83	7473	
725.01	6210.8	
725.19	6879.8	
725.37	7432.1	
725.56	7468.9	
725.74	6085.2	
725.92	6309.8	
726.1	7544.7	
726.28	7645.1	
726.46	6533.7	
726.64	6266.8	
726.83	7660.1	
727.01	7804.1	
727.19	6109.1	
727.37	6647.7	
727.55	7737.9	
727.73	8159.8	
727.91	6001.9	
728.09	5877	
728.28	8155.7	
728.46	8394.6	
728.64	6642.9	
728.82	6711.2	
729	8927.8	
729.18	8389.8	
729.36	6101.6	
729.54	7795.3	
729.72	9330.5	
729.91	8004.8	
730.09	7731.1	
730.27	6718	
730.45	7987.1	
730.63	8437.6	
730.81	7201.3	
730.99	6625.9	
731.17	8931.9	
731.35	7809.6	
731.53	6986.3	
731.71	6636.8	
731.9	8570.1	
732.08	8706.6	
732.26	6709.1	
732.44	6595.8	
732.62	8744.1	
732.8	8406.9	
732.98	7116.7	
733.16	6310.5	
733.34	8327.7	
733.52	7273	
733.7	6632	
733.88	6816.3	
734.07	8144.8	
734.25	7908.6	
734.43	6212.9	
734.61	7357	
734.79	9138.7	
734.97	7800	
735.15	6248.4	
735.33	6492.1	
735.51	7988.4	
735.69	7778.2	
735.87	7386.3	
736.05	6619.7	
736.23	7892.2	
736.41	7617.1	
736.59	6497.5	
736.77	6591	
736.95	8161.8	
737.13	7649.8	
737.32	6187.6	
737.5	6389	
737.68	8607.6	
737.86	7681.2	
738.04	6016.9	
738.22	7413	
738.4	7448.5	
738.58	7721.5	
738.76	6442.2	
738.94	5689.3	
739.12	7552.2	
739.3	7518.1	
739.48	6794.5	
739.66	6632	
739.84	7707.9	
740.02	7606.8	
740.2	5760.9	
740.38	5990.3	
740.56	7957.7	
740.74	6988.4	
740.92	6497.5	
741.1	6269.5	
741.28	7463.5	
741.46	7311.2	
741.64	5989.6	
741.82	6393.1	
742	7406.8	
742.18	7323.5	
742.36	6165.1	
742.54	5810.1	
742.72	7843.7	
742.9	6840.2	
743.08	6305	
743.26	5457.8	
743.44	7850.5	
743.62	7658.7	
743.8	6446.3	
743.98	5696.8	
744.16	7500.3	
744.34	7244.3	
744.52	6378.1	
744.7	6163.7	
744.88	7625.3	
745.06	7120.8	
745.24	6248.4	
745.42	6356.9	
745.6	7644.4	
745.78	7409.6	
745.96	5375.2	
746.14	5480.4	
746.32	8023.9	
746.5	7363.8	
746.68	5898.8	
746.86	5489.9	
747.03	7730.4	
747.21	6464.8	
747.39	5937.7	
747.57	5463.3	
747.75	7126.2	
747.93	7400	
748.11	5367	
748.29	5372.5	
748.47	8298.4	
748.65	6888.7	
748.83	5945.3	
749.01	5780.1	
749.19	7182.9	
749.37	6536.4	
749.55	5628.5	
749.73	5678.3	
749.91	7049.8	
750.09	6703	
750.26	5644.9	
750.44	5234.6	
750.62	6862.7	
750.8	6931	
750.98	5127.4	
751.16	5350.7	
751.34	6995.2	
751.52	6467.5	
751.7	5842.2	
751.88	5103.5	
752.06	7304.4	
752.24	7052.5	
752.42	5014.1	
752.59	5314.5	
752.77	6850.5	
752.95	7748.8	
753.13	5796.4	
753.31	5376.6	
753.49	6566.5	
753.67	6901.7	
753.85	5530.2	
754.03	5164.3	
754.21	7001.3	
754.38	7191.8	
754.56	5264	
754.74	4476.2	
754.92	6256.5	
755.1	6701	
755.28	4401.1	
755.46	4258.4	
755.64	7114	
755.82	7129.7	
755.99	4222.9	
756.17	4203.1	
756.35	4976.6	
756.53	6077	
756.71	3295.9	
756.89	3985.3	
757.07	5741.8	
757.25	5109.7	
757.42	4379.2	
757.6	5126.1	
757.78	5922.7	
757.96	5254.4	
758.14	4255	
758.32	3941.7	
758.5	4897.4	
758.67	5554.1	
758.85	4138.9	
759.03	4213.4	
759.21	5707.7	
759.39	5222.3	
759.57	3802.4	
759.75	4747.2	
759.92	6167.8	
760.1	5731.6	
760.28	5006.6	
760.46	5194.3	
760.64	5532.9	
760.82	5394.3	
760.99	4965.6	
761.17	4461.8	
761.35	6160.3	
761.53	5406.6	
761.71	4440	
761.89	4960.9	
762.06	6148	
762.24	5765	
762.42	4640.7	
762.6	4415.4	
762.78	5871.5	
762.96	6307.7	
763.13	4978.6	
763.31	4650.3	
763.49	6406.7	
763.67	5793.7	
763.85	5313.8	
764.02	5720	
764.2	6655.2	
764.38	5963.7	
764.56	4542.4	
764.74	5180	
764.91	6696.2	
765.09	5877.7	
765.27	4300.1	
765.45	4098.7	
765.63	6671.6	
765.8	6565.1	
765.98	4035.9	
766.16	4175.1	
766.34	5475.6	
766.52	5281	
766.69	4835.9	
766.87	4044.1	
767.05	5740.5	
767.23	6321.4	
767.41	4312.3	
767.58	4473.4	
767.76	6104.3	
767.94	6145.3	
768.12	4342.4	
768.29	4752	
768.47	5732.9	
768.65	6325.5	
768.83	3966.2	
769	4747.2	
769.18	5393.7	
769.36	5932.3	
769.54	4808.6	
769.72	3975.8	
769.89	6132.3	
770.07	6100.2	
770.25	4228.4	
770.43	5182.7	
770.6	6645	
770.78	6978.8	
770.96	4307.6	
771.14	4733.5	
771.31	6022.4	
771.49	5512.4	
771.67	3695.9	
771.85	3848.8	
772.02	4969.7	
772.2	5450.3	
772.38	4392.9	
772.55	4004.5	
772.73	5709.7	
772.91	5496.7	
773.09	4223.6	
773.26	4303.5	
773.44	5596.4	
773.62	5417.6	
773.8	3819.5	
773.97	3683.6	
774.15	5676.3	
774.33	5388.9	
774.5	3776.5	
774.68	4029	
774.86	5674.9	
775.04	5273.5	
775.21	3801.7	
775.39	3715	
775.57	5513.8	
775.74	5770.5	
775.92	3710.9	
776.1	3562.1	
776.27	5472.2	
776.45	6363.7	
776.63	3736.9	
776.81	3482.2	
776.98	5196.4	
777.16	6022.4	
777.34	3805.1	
777.51	4031.1	
777.69	5187.5	
777.87	4958.8	
778.04	3862.5	
778.22	4269.3	
778.4	5043.5	
778.57	5478.3	
778.75	3288.4	
778.93	3489.1	
779.1	4857.8	
779.28	4668.7	
779.46	3337.5	
779.64	3636.5	
779.81	5618.9	
779.99	6233.3	
780.17	4207.9	
780.34	4305.5	
780.52	5213.4	
780.69	5230.5	
780.87	3895.9	
781.05	3531.4	
781.22	5253	
781.4	5259.2	
781.58	3636.5	
781.75	3002.3	
781.93	5288.5	
782.11	4671.4	
782.28	4295.3	
782.46	3590.8	
782.64	4616.1	
782.81	5296	
782.99	3704.1	
783.17	3618.1	
783.34	5167	
783.52	4717.8	
783.69	3729.4	
783.87	4368.3	
784.05	4807.9	
784.22	4658.4	
784.4	4369	
784.58	3855	
784.75	5487.2	
784.93	4768.4	
785.1	3579.2	
785.28	4033.1	
785.46	5175.2	
785.63	4670.7	
785.81	3605.1	
785.99	3416.7	
786.16	4857.8	
786.34	5082.4	
786.51	3424.2	
786.69	3734.1	
786.87	4446.8	
787.04	4862.6	
787.22	3347.1	
787.39	4023.6	
787.57	4655.7	
787.75	5494	
787.92	4251.6	
788.1	4095.9	
788.27	4691.2	
788.45	4463.2	
788.63	3901.4	
788.8	2977.7	
788.98	5071.5	
789.15	4326.7	
789.33	3095.8	
789.5	3514.3	
789.68	5317.2	
789.86	5444.2	
790.03	3813.3	
790.21	3331.4	
790.38	5377.3	
790.56	4768.4	
790.73	3298.6	
790.91	3300.6	
791.09	4649.6	
791.26	5148.6	
791.44	3547.1	
791.61	3083.6	
791.79	4659.8	
791.96	4721.3	
792.14	3156.6	
792.32	2870.6	
792.49	4670.1	
792.67	4757.4	
792.84	3273.3	
793.02	3075.4	
793.19	4955.4	
793.37	5464	
793.54	2812.5	
793.72	3115.6	
793.89	5536.3	
794.07	4599.7	
794.25	3505.4	
794.42	2889	
794.6	5406.6	
794.77	5107.6	
794.95	3793.5	
795.12	3324.5	
795.3	4587.4	
795.47	5128.1	
795.65	3545.7	
795.82	3475.4	
796	4497.3	
796.17	5826.5	
796.35	3416.7	
796.52	3950.5	
796.7	5014.1	
796.87	5102.2	
797.05	3373	
797.22	4059.1	
797.4	5096	
797.57	5800.5	
797.75	3501.3	
797.92	3244.7	
798.1	5285.8	
798.27	4521.2	
798.45	2914.9	
798.62	3091.1	
798.8	4855.7	
798.97	5210.7	
799.15	3599	
799.32	3473.4	
799.5	4337.6	
799.67	4848.2	
799.85	3766.9	
800.02	2874	
800.2	4530.8	
800.37	4750.6	
800.55	3850.9	
800.72	3308.8	
800.9	5132.2	
801.07	5440.1	
801.25	4252.3	
801.42	3623.5	
801.6	5197.7	
801.77	4868	
801.95	3363.4	
802.12	3232.4	
802.29	4940.4	
802.47	4894.6	
802.64	3581.2	
802.82	2817.3	
802.99	4538.3	
803.17	5223.7	
803.34	3455.6	
803.52	3150.5	
803.69	5802.6	
803.87	4392.9	
804.04	3465.8	
804.21	3497.2	
804.39	5436.7	
804.56	4683.7	
804.74	3027.6	
804.91	3523.2	
805.09	4603.2	
805.26	4635.9	
805.44	3003.7	
805.61	3293.1	
805.78	5065.3	
805.96	5038	
806.13	3567.6	
806.31	3788.1	
806.48	4197.7	
806.66	4576.5	
806.83	3575.1	
807	3459	
807.18	4529.4	
807.35	4825.7	
807.53	3409.9	
807.7	2822.1	
807.87	5428.5	
808.05	4557.4	
808.22	3777.8	
808.4	2829.6	
808.57	4541.7	
808.74	4290.5	
808.92	3183.2	
809.09	3874.1	
809.27	4555.4	
809.44	4939	
809.61	2914.9	
809.79	3151.8	
809.96	5470.1	
810.14	5091.9	
810.31	2810.5	
810.48	3360.7	
810.66	4553.3	
810.83	5093.3	
811.01	3203	
811.18	3508.2	
811.35	5091.3	
811.53	4086.4	
811.7	3799.7	
811.87	3522.5	
812.05	4577.2	
812.22	4453	
812.39	3112.2	
812.57	2998.2	
812.74	4593.6	
812.92	5810.8	
813.09	3343.7	
813.26	3599	
813.44	5622.4	
813.61	4450.9	
813.78	2818.7	
813.96	3642	
814.13	4578.6	
814.3	4308.2	
814.48	3974.4	
814.65	3293.1	
814.82	5412.8	
815	4288.4	
815.17	3406.5	
815.34	4068.6	
815.52	4474.1	
815.69	4442	
815.87	3333.4	
816.04	3300	
816.21	4531.5	
816.38	4071.4	
816.56	3308.8	
816.73	3060.3	
816.9	5604.6	
817.08	5044.1	
817.25	3129.3	
817.42	3805.8	
817.6	4190.8	
817.77	4536.9	
817.94	3420.8	
818.12	3038.5	
818.29	4313	
818.46	6273.6	
818.64	3254.2	
818.81	3013.9	
818.98	4300.1	
819.16	5894.1	
819.33	3640.6	
819.5	3418.7	
819.67	4827.7	
819.85	5346.6	
820.02	3322.5	
820.19	3504.1	
820.37	4721.9	
820.54	4448.2	
820.71	3477.5	
820.88	4203.8	
821.06	4734.2	
821.23	4341	
821.4	3454.2	
821.58	3418.1	
821.75	5051.7	
821.92	4697.4	
822.09	2841.2	
822.27	2932.7	
822.44	4524.6	
822.61	4446.8	
822.79	2844.6	
822.96	5213.4	
823.13	4805.9	
823.3	4269.3	
823.48	3258.3	
823.65	2914.3	
823.82	5130.8	
823.99	4208.6	
824.17	4066.6	
824.34	2970.9	
824.51	5726.1	
824.68	4600.4	
824.86	3105.4	
825.03	3418.1	
825.2	4552	
825.37	5292	
825.55	3095.2	
825.72	3347.7	
825.89	5783.5	
826.06	5377.3	
826.24	3339.6	
826.41	3297.9	
826.58	5361.6	
826.75	4693.9	
826.92	2692.4	
827.1	2959.3	
827.27	7015	
827.44	5698.1	
827.61	3160	
827.79	3776.5	
827.96	4353.3	
828.13	4530.1	
828.3	3304.1	
828.47	2815.3	
828.65	4780	
828.82	4704.9	
828.99	4126	
829.16	3595.6	
829.34	5031.9	
829.51	4904.2	
829.68	3407.8	
829.85	3414	
830.02	5313.1	
830.2	5078.3	
830.37	2729.3	
830.54	3958	
830.71	5680.4	
830.88	4569	
831.05	2688.3	
831.23	3046.7	
831.4	5455.8	
831.57	5910.4	
831.74	3197.6	
831.91	2846.7	
832.09	4902.8	
832.26	5021.6	
832.43	3177.8	
832.6	3630.4	
832.77	4778.6	
832.94	5410.7	
833.12	2595.5	
833.29	3121.1	
833.46	4442.7	
833.63	6075	
833.8	3511.6	
833.97	3245.3	
834.15	5064.6	
834.32	4924	
834.49	3379.1	
834.66	3415.3	
834.83	5158.2	
835	4332.1	
835.17	3129.3	
835.35	3138.9	
835.52	4997	
835.69	4846.2	
835.86	3351.2	
836.03	2797.5	
836.2	5041.4	
836.37	4712.4	
836.55	3219.4	
836.72	3085.6	
836.89	4741.7	
837.06	5107.6	
837.23	3293.1	
837.4	3594.9	
837.57	5705.6	
837.75	6144.6	
837.92	2988	
838.09	3183.2	
838.26	4681	
838.43	5183.4	
838.6	3399.6	
838.77	3073.3	
838.94	5739.8	
839.11	5659.2	
839.29	3196.2	
839.46	2626.2	
839.63	5048.2	
839.8	4829.1	
839.97	3153.2	
840.14	3100.6	
840.31	4850.3	
840.48	5100.1	
840.65	2678.1	
840.82	3116.3	
841	5050.3	
841.17	4906.3	
841.34	2813.9	
841.51	2955.2	
841.68	4965	
841.85	4771.8	
842.02	3026.9	
842.19	2563.4	
842.36	4870.8	
842.53	4860.5	
842.7	2895.8	
842.87	3494.5	
843.05	6068.1	
843.22	4764.3	
843.39	2798.9	
843.56	2999.6	
843.73	4635.2	
843.9	5104.2	
844.07	4507.6	
844.24	3755.3	
844.41	6823.1	
844.58	4418.8	
844.75	2788	
844.92	3080.1	
845.09	4982	
845.26	5026.4	
845.43	2867.8	
845.6	3065.8	
845.77	4959.5	
845.94	4789.5	
846.12	3196.2	
846.29	3359.4	
846.46	5211.4	
846.63	4999.1	
846.8	2941.6	
846.97	3419.4	
847.14	5395	
847.31	4956.8	
847.48	3203	
847.65	3509.5	
847.82	5196.4	
847.99	5124.7	
848.16	3775.8	
848.33	3488.4	
848.5	4633.2	
848.67	5322	
848.84	2878.8	
849.01	3003	
849.18	4583.4	
849.35	4355.3	
849.52	3537.5	
849.69	2894.5	
849.86	5161.6	
850.03	5246.9	
850.2	2944.3	
850.37	3500.7	
850.54	5236	
850.71	4716.5	
850.88	3377.1	
851.05	2801.6	
851.22	4925.4	
851.39	5379.3	
851.56	2715.6	
851.73	3299.3	
851.9	4465.9	
852.07	5188.9	
852.24	3196.9	
852.41	2863.1	
852.58	4969.1	
852.75	4545.1	
852.92	3224.2	
853.09	2869.2	
853.26	4681.7	
853.43	5318.6	
853.6	2902.7	
853.77	2464.4	
853.94	5440.1	
854.11	4418.2	
854.28	4106.2	
854.44	3091.8	
854.61	5725.4	
854.78	5233.9	
854.95	2899.2	
855.12	3545	
855.29	4087.1	
855.46	5552.7	
855.63	2875.3	
855.8	3873.4	
855.97	4588.1	
856.14	5240.1	
856.31	3883.6	
856.48	3076	
856.65	4704.9	
856.82	4433.2	
856.99	2793.4	
857.16	3108.1	
857.33	5919.3	
857.49	4746.5	
857.66	3087	
857.83	3305.4	
858	4780	
858.17	4917.2	
858.34	2760	
858.51	2904.7	
858.68	5472.9	
858.85	5455.8	
859.02	3275.4	
859.19	3463.1	
859.36	4456.4	
859.52	4436.6	
859.69	2891.7	
859.86	3385.3	
860.03	4525.3	
860.2	5433.9	
860.37	2659.6	
860.54	2906.1	
860.71	5113.1	
860.88	5477	
861.05	3232.4	
861.21	3606.5	
861.38	5431.9	
861.55	4330.8	
861.72	2710.1	
861.89	3164.1	
862.06	5175.2	
862.23	5498.1	
862.4	2824.8	
862.56	2994.1	
862.73	5010	
862.9	4812	
863.07	3360.7	
863.24	2627.5	
863.41	4360.8	
863.58	4465.3	
863.75	2927.2	
863.91	3320.4	
864.08	5283.1	
864.25	5090.6	
864.42	3513.6	
864.59	3912.3	
864.76	5652.4	
864.93	4454.3	
865.09	2825.5	
865.26	3054.9	
865.43	5335.6	
865.6	5634	
865.77	2557.9	
865.94	2842.6	
866.1	5350	
866.27	5025	
866.44	4205.2	
866.61	2755.9	
866.78	4780.6	
866.95	5076.9	
867.11	2828.2	
867.28	2609.8	
867.45	5269.4	
867.62	4453	
867.79	3290.4	
867.96	2871.3	
868.12	4466.6	
868.29	5139	
868.46	2893.8	
868.63	3734.8	
868.8	5257.8	
868.97	5085.1	
869.13	2997.5	
869.3	3021.4	
869.47	5013.4	
869.64	5201.2	
869.81	2906.8	
869.97	2902.7	
870.14	4941.7	
870.31	5491.3	
870.48	2784.6	
870.65	3549.1	
870.81	4725.3	
870.98	4721.3	
871.15	3234.4	
871.32	2974.3	
871.48	5034.6	
871.65	5493.3	
871.82	2902	
871.99	3163.4	
872.16	5844.2	
872.32	5304.9	
872.49	2922.5	
872.66	2916.3	
872.83	5149.3	
872.99	4549.2	
873.16	3247.4	
873.33	2849.4	
873.5	4797	
873.67	4890.5	
873.83	3074.7	
874	3792.2	
874.17	4915.8	
874.34	5657.2	
874.5	3630.4	
874.67	3508.9	
874.84	5358.9	
875.01	4411.3	
875.17	3888.4	
875.34	2867.8	
875.51	4917.2	
875.68	5784.1	
875.84	3409.9	
876.01	4068.6	
876.18	5089.2	
876.34	5055.1	
876.51	2878.8	
876.68	2824.1	
876.85	4731.5	
877.01	5362.9	
877.18	3950.5	
877.35	2882.2	
877.52	4909	
877.68	4424.3	
877.85	2873.3	
878.02	2794.8	
878.18	4739.7	
878.35	4564.9	
878.52	2340.8	
878.69	3179.1	
878.85	5221	
879.02	5036	
879.19	3954.6	
879.35	3080.1	
879.52	5115.8	
879.69	5223	
879.86	2486.2	
880.02	3175	
880.19	4798.4	
880.36	5700.2	
880.52	3194.1	
880.69	3377.1	
880.86	5165	
881.02	5236.7	
881.19	3112.2	
881.36	3069.2	
881.52	5074.9	
881.69	4567.7	
881.86	3112.2	
882.02	2993.4	
882.19	5335.6	
882.36	6022.4	
882.52	2955.9	
882.69	3964.2	
882.86	4937	
883.02	4908.3	
883.19	3440.6	
883.36	3229.6	
883.52	5164.3	
883.69	5829.2	
883.86	2907.4	
884.02	2649.4	
884.19	5159.5	
884.36	4858.5	
884.52	3236.5	
884.69	3045.3	
884.86	4663.9	
885.02	5526.1	
885.19	3151.8	
885.36	3270.6	
885.52	4775.2	
885.69	4942.4	
885.86	4007.2	
886.02	3552.5	
886.19	5162.9	
886.35	4678.2	
886.52	3160	
886.69	3934.8	
886.85	4459.8	
887.02	5441.5	
887.19	5441.5	
887.35	5441.5	
887.52	5441.5	
887.68	5441.5	
887.85	5441.5	
888.02	5441.5	
888.18	5441.5	
888.35	5441.5	
888.51	5441.5	
888.68	5441.5	
888.85	5441.5	
889.01	5441.5	
889.18	5441.5	
889.35	5441.5	
889.51	5441.5	
889.68	5441.5	
889.84	5441.5	
890.01	5441.5	
890.17	5441.5	
890.34	5441.5	
890.51	5441.5	
890.67	5441.5	
890.84	5441.5	
891	5441.5	
891.17	5441.5	
891.34	5441.5	
891.5	5441.5	
891.67	5441.5	
891.83	5441.5	
892	5441.5	
892.16	5441.5	
892.33	5441.5	
892.5	5441.5	
892.66	5441.5	
892.83	5441.5	
892.99	5441.5	
893.16	5441.5	
893.32	5441.5	
893.49	5441.5	
893.65	5441.5	
893.82	5441.5	
893.99	5441.5	
894.15	5441.5	
894.32	5441.5	
894.48	5441.5	
894.65	5441.5	
894.81	5441.5	
894.98	5441.5	
895.14	5441.5	
895.31	5441.5	
895.47	5441.5	
895.64	5441.5	
895.81	5441.5	
895.97	5441.5	
896.14	5441.5	
896.3	5441.5	
896.47	5441.5	
896.63	5441.5	
896.8	5441.5	
896.96	5441.5	
897.13	5441.5	
897.29	5441.5	
897.46	5441.5	
897.62	5441.5	
897.79	5441.5	
897.95	5441.5	
898.12	5441.5	
898.28	5441.5	
898.45	5441.5	
898.61	5441.5	
898.78	5441.5	
898.94	5441.5	
899.11	5441.5	
899.27	5441.5	
899.44	5441.5	
899.6	5441.5	
899.77	5441.5	
899.93	5441.5	
900.1	5441.5	
900.26	5441.5	
900.43	5441.5	
900.59	5441.5	
900.76	5441.5	
900.92	5441.5	
901.09	5441.5	
901.25	5441.5	
901.42	5441.5	
901.58	5441.5	
901.75	5441.5	
901.91	5441.5	
902.07	5441.5	
902.24	5441.5	
902.4	5441.5	
902.57	5441.5	
902.73	5441.5	
902.9	5441.5	
903.06	5441.5	
903.23	5441.5	
903.39	5441.5	
903.56	5441.5	
903.72	5441.5	
903.88	5441.5	
904.05	5441.5	
904.21	5441.5	
904.38	5441.5	
904.54	5441.5	
904.71	5441.5	
904.87	5441.5	
905.03	5441.5	
905.2	5441.5	
905.36	5441.5	
905.53	5441.5	
905.69	5441.5	
905.86	5441.5	
906.02	5441.5	
906.18	5441.5	
906.35	5441.5	
906.51	5441.5	
906.68	5441.5	
906.84	5441.5	
907.01	5441.5	
907.17	5441.5	
907.33	5441.5	
907.5	5441.5	
907.66	5441.5	
907.83	5441.5	
907.99	5441.5	
908.15	5441.5	
908.32	5441.5	
908.48	5441.5	
908.65	5441.5	
908.81	5441.5	
908.97	5441.5	
909.14	5441.5	
909.3	5441.5	
909.47	5441.5	
909.63	5441.5	
909.79	5441.5	
909.96	5441.5	
910.12	5441.5	
910.28	5441.5	
910.45	5441.5	
910.61	5441.5	
910.78	5441.5	
910.94	5441.5	
911.1	5441.5	
911.27	5441.5	
911.43	5441.5	
911.59	5441.5	
911.76	5441.5	
911.92	5441.5	
912.08	5441.5	
912.25	5441.5	
912.41	5441.5	
912.57	5441.5	
912.74	5441.5	
912.9	5441.5	
913.07	5441.5	
913.23	5441.5	
913.39	5441.5	
913.56	5441.5	
913.72	5441.5	
913.88	5441.5	
914.05	5441.5	
914.21	5441.5	
914.37	5441.5	
914.54	5441.5	
914.7	5441.5	
914.86	5441.5	
915.03	5441.5	
915.19	5441.5	
