Wavelength	Intensities	
nm	a.u.	
179.22	1711.4	
179.44	1707.3	
179.65	1715.5	
179.86	1699.1	
180.08	1683.4	
180.29	3972.4	
180.51	3019.4	
180.72	4956.8	
180.94	5559.6	
181.15	2730.6	
181.37	2706	
181.58	4828.4	
181.79	5006.6	
182.01	2816	
182.22	2929.3	
182.44	5023	
182.65	4358.1	
182.87	3622.2	
183.08	3265.1	
183.29	5187.5	
183.51	4457.7	
183.72	2968.9	
183.94	4177.2	
184.15	4721.3	
184.37	4675.5	
184.58	2649.4	
184.79	3482.2	
185.01	4426.3	
185.22	5053.7	
185.44	3650.8	
185.65	3138.9	
185.86	4700.1	
186.08	4351.9	
186.29	2658.3	
186.51	2753.8	
186.72	4456.4	
186.94	5087.8	
187.15	3220.8	
187.36	3265.1	
187.58	6341.9	
187.79	4756.1	
188.01	3310.9	
188.22	5007.3	
188.43	5546.6	
188.65	4969.1	
188.86	2808.4	
189.08	3280.2	
189.29	4504.8	
189.5	4512.4	
189.72	3016.7	
189.93	3070.6	
190.15	5129.5	
190.36	5872.9	
190.57	3263.8	
190.79	3193.5	
191	5103.5	
191.22	5128.1	
191.43	3254.2	
191.64	2800.9	
191.86	5305.6	
192.07	5126.1	
192.29	2922.5	
192.5	2968.9	
192.71	5083.1	
192.93	4525.3	
193.14	3016	
193.35	3096.5	
193.57	4538.3	
193.78	5144.5	
194	2505.3	
194.21	2966.8	
194.42	4396.3	
194.64	4732.2	
194.85	3165.5	
195.07	3711.6	
195.28	4743.8	
195.49	4166.3	
195.71	3899.3	
195.92	2858.3	
196.13	4897.4	
196.35	4901.5	
196.56	4020.2	
196.78	3246.7	
196.99	5859.9	
197.2	5494.7	
197.42	3530.7	
197.63	3252.9	
197.84	4289.1	
198.06	4868.7	
198.27	3010.5	
198.48	3876.8	
198.7	4500.1	
198.91	4713.1	
199.13	3297.2	
199.34	3250.8	
199.55	5084.4	
199.77	4146.5	
199.98	2886.3	
200.19	3355.9	
200.41	4701.5	
200.62	4428.4	
200.83	3342.3	
201.05	3601.7	
201.26	4666	
201.47	4444.8	
201.69	2934.1	
201.9	2852.8	
202.11	4732.9	
202.33	5434.6	
202.54	3124.5	
202.76	3422.8	
202.97	4737.6	
203.18	4851	
203.4	3358	
203.61	3417.4	
203.82	4756.1	
204.04	4483.7	
204.25	3283.6	
204.46	3175.7	
204.68	4650.9	
204.89	4881	
205.1	3209.2	
205.32	2820.1	
205.53	4988.2	
205.74	5115.8	
205.96	2471.2	
206.17	3340.2	
206.38	4954	
206.6	5069.4	
206.81	3661.1	
207.02	3060.3	
207.24	4867.3	
207.45	5234.6	
207.66	3110.2	
207.88	2692.4	
208.09	4832.5	
208.3	4695.3	
208.52	2967.5	
208.73	3115	
208.94	4660.5	
209.15	5238	
209.37	3171.6	
209.58	3290.4	
209.79	5137	
210.01	4507.6	
210.22	2584.5	
210.43	2708.8	
210.65	4699.4	
210.86	4999.1	
211.07	3132	
211.29	2938.8	
211.5	4952	
211.71	4619.5	
211.93	2937.5	
212.14	2969.6	
212.35	4703.5	
212.56	4749.9	
212.78	3275.4	
212.99	2736.1	
213.2	5384.8	
213.42	4539	
213.63	2976.4	
213.84	3123.2	
214.06	4263.9	
214.27	4316.4	
214.48	3089	
214.69	3287	
214.91	5227.1	
215.12	5249.6	
215.33	3320.4	
215.55	3576.4	
215.76	5610.8	
215.97	4895.3	
216.18	3187.3	
216.4	3150.5	
216.61	4450.9	
216.82	5051	
217.04	2937.5	
217.25	3050.8	
217.46	5173.2	
217.67	5014.8	
217.89	2676.7	
218.1	2744.3	
218.31	4728.8	
218.53	4820.9	
218.74	3028.9	
218.95	2928.6	
219.16	4657.8	
219.38	5398.4	
219.59	2981.8	
219.8	3493.8	
220.01	5788.9	
220.23	4696	
220.44	3733.4	
220.65	2839.2	
220.87	4749.9	
221.08	5160.2	
221.29	2763.4	
221.5	3492.5	
221.72	6028.5	
221.93	4415.4	
222.14	3284.3	
222.35	3788.7	
222.57	4713.7	
222.78	5029.1	
222.99	3142.9	
223.2	3325.2	
223.42	4851.6	
223.63	5025.7	
223.84	2541.5	
224.05	2509.4	
224.27	5750.7	
224.48	5349.3	
224.69	3829.7	
224.9	3283.6	
225.12	4848.9	
225.33	4698.7	
225.54	2715.6	
225.75	2948.4	
225.97	4382	
226.18	4676.9	
226.39	3188.7	
226.6	2930	
226.82	4566.3	
227.03	4423.6	
227.24	3240.6	
227.45	2753.2	
227.67	5015.5	
227.88	5275.6	
228.09	3669.3	
228.3	3611.3	
228.52	5025.7	
228.73	4688.5	
228.94	3063.1	
229.15	2776.4	
229.36	4649.6	
229.58	4713.1	
229.79	3089.7	
230	3510.2	
230.21	5506.3	
230.43	4749.2	
230.64	3220.8	
230.85	3310.2	
231.06	5032.5	
231.28	5044.1	
231.49	2772.3	
231.7	3209.8	
231.91	4944.5	
232.12	4749.2	
232.34	2877.4	
232.55	3127.9	
232.76	5147.9	
232.97	4801.8	
233.18	2828.9	
233.4	3225.6	
233.61	4835.9	
233.82	4471.4	
234.03	3072.6	
234.25	3019.4	
234.46	6207.4	
234.67	4758.1	
234.88	3323.9	
235.09	2964.1	
235.31	4884.4	
235.52	4670.7	
235.73	3236.5	
235.94	2806.4	
236.15	4519.2	
236.37	5524.1	
236.58	2934.1	
236.79	3147.7	
237	4905.6	
237.21	4304.1	
237.43	3338.2	
237.64	2675.3	
237.85	7771.4	
238.06	4415.4	
238.27	3340.2	
238.48	2783.2	
238.7	4957.4	
238.91	4608.6	
239.12	3124.5	
239.33	3192.1	
239.54	4425	
239.76	4639.3	
239.97	3142.9	
240.18	3153.9	
240.39	5608.7	
240.6	4881.7	
240.82	3315	
241.03	2714.9	
241.24	4635.2	
241.45	5335	
241.66	2932.7	
241.87	3325.9	
242.09	5290.6	
242.3	5475.6	
242.51	3395.5	
242.72	3140.2	
242.93	5023	
243.14	4685.1	
243.36	3590.1	
243.57	3797.6	
243.78	5310.4	
243.99	4974.5	
244.2	3117	
244.41	2869.9	
244.63	4378.6	
244.84	4920.6	
245.05	3305.4	
245.26	3140.2	
245.47	4962.2	
245.68	4995.7	
245.9	4025.6	
246.11	3276.1	
246.32	4510.3	
246.53	4896.7	
246.74	4838	
246.95	2710.8	
247.16	4435.2	
247.38	4736.3	
247.59	2697.2	
247.8	3140.2	
248.01	4384.7	
248.22	4713.7	
248.43	2896.5	
248.64	3093.1	
248.86	4283	
249.07	4606.6	
249.28	2850.1	
249.49	3218.7	
249.7	5096.7	
249.91	5129.5	
250.12	2730.6	
250.34	2745.6	
250.55	4833.9	
250.76	4743.1	
250.97	3252.9	
251.18	3287	
251.39	5182.7	
251.6	4803.2	
251.81	3363.4	
252.03	3280.8	
252.24	4487.8	
252.45	5005.2	
252.66	2803	
252.87	3393.5	
253.08	4715.8	
253.29	5840.8	
253.5	2822.8	
253.72	3782.6	
253.93	4616.8	
254.14	5382.7	
254.35	2975	
254.56	3112.2	
254.77	4846.2	
254.98	4396.3	
255.19	3022.8	
255.41	3722.5	
255.62	4824.3	
255.83	5184.8	
256.04	3312.2	
256.25	3254.2	
256.46	5545.9	
256.67	4474.8	
256.88	3237.8	
257.09	3543.7	
257.31	4433.9	
257.52	4415.4	
257.73	4001	
257.94	3021.4	
258.15	4651.6	
258.36	4675.5	
258.57	3675.4	
258.78	2500.6	
258.99	5077.6	
259.2	4591.5	
259.41	3003	
259.63	3115	
259.84	5313.1	
260.05	5551.4	
260.26	3799	
260.47	2917	
260.68	5127.4	
260.89	4691.2	
261.1	3558.7	
261.31	2926.5	
261.52	5160.2	
261.73	5367.7	
261.95	3837.9	
262.16	3330	
262.37	5203.9	
262.58	5194.3	
262.79	3736.2	
263	3051.5	
263.21	4724.7	
263.42	4311	
263.63	3263.8	
263.84	3044.6	
264.05	5059.2	
264.26	5335.6	
264.47	3649.5	
264.69	3234.4	
264.9	5247.6	
265.11	4834.6	
265.32	2873.3	
265.53	2973	
265.74	4803.2	
265.95	4277.5	
266.16	3154.6	
266.37	3481.5	
266.58	4793.6	
266.79	4549.9	
267	2993.4	
267.21	2805.7	
267.42	4393.6	
267.63	4659.1	
267.84	3119.1	
268.06	2753.8	
268.27	5098.1	
268.48	5191.6	
268.69	3064.4	
268.9	3551.2	
269.11	5204.6	
269.32	4277.5	
269.53	3153.9	
269.74	2904	
269.95	4845.5	
270.16	4266.6	
270.37	3181.9	
270.58	3575.8	
270.79	4592.9	
271	5031.9	
271.21	3299.3	
271.42	3144.3	
271.63	4883	
271.84	4368.3	
272.05	2562.7	
272.26	2804.4	
272.47	4709	
272.68	4818.9	
272.89	3085.6	
273.11	3364.8	
273.32	4570.4	
273.53	5373.2	
273.74	3365.5	
273.95	3298.6	
274.16	5087.2	
274.37	4726	
274.58	3497.2	
274.79	2778.4	
275	4870.1	
275.21	5153.4	
275.42	4001.7	
275.63	3446.7	
275.84	4949.9	
276.05	5958.9	
276.26	3259	
276.47	3112.2	
276.68	4622.3	
276.89	5429.8	
277.1	3544.4	
277.31	2841.9	
277.52	4861.9	
277.73	5081.7	
277.94	2748.4	
278.15	3061	
278.36	4878.9	
278.57	4433.2	
278.78	3021.4	
278.99	3364.8	
279.2	4461.8	
279.41	4406.5	
279.62	3884.3	
279.83	2860.3	
280.04	5591.6	
280.25	4403.8	
280.46	3847.5	
280.67	3179.8	
280.88	4455.7	
281.09	5184.1	
281.3	3290.4	
281.51	4007.2	
281.72	4482.3	
281.93	5059.2	
282.14	2962.7	
282.35	3196.2	
282.56	5115.1	
282.77	5031.9	
282.98	3052.8	
283.19	3680.9	
283.4	6094.8	
283.61	4661.2	
283.82	2831.7	
284.03	3792.2	
284.24	4874.2	
284.45	5124	
284.66	3865.9	
284.87	3689.1	
285.08	5147.9	
285.29	5266	
285.5	2725.8	
285.71	3106.1	
285.92	5158.8	
286.12	5643.5	
286.33	3802.4	
286.54	3106.1	
286.75	5070.1	
286.96	4614.8	
287.17	2887.6	
287.38	3669.3	
287.59	4476.9	
287.8	4462.5	
288.01	3066.5	
288.22	3486.3	
288.43	4939.7	
288.64	4310.3	
288.85	3630.4	
289.06	3470.6	
289.27	5040.1	
289.48	5347.9	
289.69	3797.6	
289.9	3527.3	
290.11	5240.1	
290.32	4533.5	
290.53	3564.8	
290.74	3361.4	
290.94	5012.7	
291.15	5071.5	
291.36	3031	
291.57	3425.6	
291.78	4574.5	
291.99	4250.9	
292.2	2917.7	
292.41	3429.7	
292.62	5115.1	
292.83	4965	
293.04	4088.4	
293.25	2904.7	
293.46	4585.4	
293.67	5153.4	
293.88	2854.9	
294.09	2900.6	
294.29	4428.4	
294.5	4833.9	
294.71	3136.1	
294.92	2998.2	
295.13	4558.1	
295.34	5567.1	
295.55	2747	
295.76	2706.7	
295.97	5028.4	
296.18	5527.5	
296.39	2788	
296.6	2950.4	
296.81	4734.2	
297.01	4964.3	
297.22	3072	
297.43	3016	
297.64	4497.3	
297.85	4443.4	
298.06	2506	
298.27	2728.6	
298.48	4726.7	
298.69	4504.8	
298.9	3167.5	
299.11	2900.6	
299.31	4359.4	
299.52	4416.1	
299.73	3432.4	
299.94	3364.8	
300.15	4756.7	
300.36	4455	
300.57	3333.4	
300.78	3329.3	
300.99	4544.4	
301.2	4773.8	
301.4	2996.2	
301.61	3190.7	
301.82	4956.8	
302.03	4969.1	
302.24	3493.2	
302.45	2825.5	
302.66	4924.7	
302.87	5212.1	
303.08	3004.4	
303.29	3931.4	
303.49	4564.9	
303.7	4661.2	
303.91	2712.9	
304.12	3737.5	
304.33	4338.3	
304.54	4814.1	
304.75	2991.4	
304.96	2848.7	
305.16	4961.5	
305.37	5466.7	
305.58	2686.9	
305.79	2736.8	
306	4928.1	
306.21	4264.6	
306.42	3033	
306.63	4342.4	
306.83	4599.1	
307.04	5051.7	
307.25	3262.4	
307.46	3229	
307.67	4172.4	
307.88	4957.4	
308.09	2993.4	
308.29	2987.3	
308.5	4773.1	
308.71	5142.4	
308.92	3115	
309.13	2854.2	
309.34	4652.3	
309.55	4666	
309.75	3642.7	
309.96	3292.5	
310.17	4986.1	
310.38	4455.7	
310.59	3529.3	
310.8	2869.9	
311.01	4578.6	
311.21	4678.2	
311.42	2925.9	
311.63	2938.2	
311.84	4570.4	
312.05	4767.7	
312.26	3315.7	
312.46	3579.2	
312.67	4624.3	
312.88	4369	
313.09	2874.7	
313.3	2824.1	
313.51	5340.4	
313.71	5578.7	
313.92	2922.5	
314.13	3049.4	
314.34	4885.8	
314.55	4676.9	
314.76	3607.8	
314.96	3167.5	
315.17	4797	
315.38	4906.9	
315.59	2908.1	
315.8	2818	
316.01	5278.3	
316.21	5363.6	
316.42	2826.9	
316.63	3153.9	
316.84	4597	
317.05	5132.9	
317.26	3375.1	
317.46	3050.1	
317.67	4650.9	
317.88	5040.7	
318.09	3566.2	
318.3	2787.3	
318.5	4556.7	
318.71	4878.3	
318.92	4457.1	
319.13	3324.5	
319.34	5051	
319.54	5158.8	
319.75	2723.8	
319.96	2608.4	
320.17	4939.7	
320.38	5124.7	
320.58	2677.4	
320.79	3152.5	
321	5120.6	
321.21	5257.8	
321.42	3138.9	
321.62	2682.8	
321.83	4431.8	
322.04	4743.8	
322.25	3083.6	
322.46	2904	
322.66	4772.4	
322.87	4917.9	
323.08	3486.3	
323.29	2796.2	
323.5	5458.5	
323.7	4371	
323.91	3867.2	
324.12	3464.5	
324.33	4800.4	
324.53	5004.6	
324.74	3335.5	
324.95	3446.7	
325.16	4347.2	
325.37	4576.5	
325.57	2792.1	
325.78	2947	
325.99	4863.9	
326.2	4332.8	
326.4	3896.6	
326.61	2704.7	
326.82	4700.8	
327.03	4764.3	
327.24	3996.3	
327.44	3727.3	
327.65	4944.5	
327.86	4099.4	
328.07	3325.2	
328.27	2800.3	
328.48	5233.9	
328.69	4397.7	
328.9	3941.7	
329.1	3042.6	
329.31	4634.6	
329.52	5299.5	
329.73	2887.6	
329.93	3149.1	
330.14	4730.8	
330.35	4868.7	
330.56	4491.2	
330.76	3436.5	
330.97	4506.9	
331.18	4860.5	
331.39	3230.3	
331.59	2652.8	
331.8	5175.2	
332.01	5257.1	
332.22	2983.2	
332.42	3332.7	
332.63	4762.9	
332.84	4468	
333.05	3190.1	
333.25	2962	
333.46	4474.8	
333.67	4737	
333.88	2980.5	
334.08	3280.2	
334.29	7103.7	
334.5	5180.7	
334.7	2834.4	
334.91	3944.4	
335.12	4319.8	
335.33	4949.3	
335.53	3193.5	
335.74	4433.2	
335.95	4640.7	
336.16	4397.7	
336.36	3159.3	
336.57	3633.1	
336.78	4359.4	
336.98	5136.3	
337.19	3822.2	
337.4	3127.9	
337.61	5584.1	
337.81	4390.2	
338.02	2986.6	
338.23	3672.7	
338.43	5274.9	
338.64	4501.4	
338.85	2963.4	
339.05	3705.5	
339.26	5369.1	
339.47	4294.6	
339.68	2946.3	
339.88	4080.9	
340.09	4949.9	
340.3	5070.8	
340.5	3371.6	
340.71	2670.6	
340.92	4367	
341.13	5208.7	
341.33	2791.4	
341.54	3304.1	
341.75	4849.6	
341.95	4566.3	
342.16	3224.9	
342.37	3469.9	
342.57	4433.2	
342.78	4646.2	
342.99	3512.3	
343.19	2695.8	
343.4	5090.6	
343.61	4871.4	
343.81	3072	
344.02	2806.4	
344.23	4999.8	
344.43	5257.8	
344.64	3546.4	
344.85	3453.6	
345.06	4927.4	
345.26	5130.8	
345.47	3372.3	
345.68	3824.2	
345.88	4310.3	
346.09	5074.9	
346.3	3373.7	
346.5	2613.9	
346.71	4666.6	
346.92	4459.1	
347.12	2714.9	
347.33	3281.5	
347.54	5099.4	
347.74	5362.9	
347.95	3322.5	
348.16	2542.9	
348.36	4607.2	
348.57	4404.5	
348.78	3310.2	
348.98	3435.8	
349.19	4642.1	
349.39	4298	
349.6	2725.8	
349.81	2961.4	
350.01	4936.3	
350.22	4452.3	
350.43	3253.5	
350.63	3762.1	
350.84	4716.5	
351.05	4498	
351.25	2880.1	
351.46	2713.6	
351.67	5073.5	
351.87	4442.7	
352.08	3088.3	
352.29	3510.9	
352.49	4970.4	
352.7	4998.4	
352.9	2831	
353.11	3429	
353.32	5513.1	
353.52	4501.4	
353.73	2813.2	
353.94	3453.6	
354.14	4870.1	
354.35	4742.4	
354.55	2910.8	
354.76	3125.9	
354.97	4819.6	
355.17	4704.2	
355.38	2741.5	
355.59	3747.1	
355.79	4456.4	
356	4638	
356.2	3188.7	
356.41	2826.2	
356.62	4284.4	
356.82	4569.7	
357.03	3386	
357.24	3043.3	
357.44	4426.3	
357.65	4507.6	
357.85	3898	
358.06	3181.2	
358.27	4250.9	
358.47	4385.4	
358.68	2716.3	
358.88	3340.9	
359.09	4849.6	
359.3	5025.7	
359.5	3803.8	
359.71	3431.7	
359.91	5358.2	
360.12	4847.5	
360.33	3377.8	
360.53	3659.7	
360.74	4439.3	
360.94	4446.1	
361.15	3459.7	
361.36	2925.9	
361.56	5031.9	
361.77	4605.9	
361.97	3830.4	
362.18	3087	
362.38	5044.8	
362.59	4333.5	
362.8	2843.3	
363	2763.4	
363.21	4136.2	
363.41	4715.1	
363.62	3226.9	
363.83	3910.9	
364.03	4775.9	
364.24	5341.1	
364.44	4052.2	
364.65	4035.9	
364.85	4584.7	
365.06	4326	
365.27	3032.4	
365.47	3038.5	
365.68	5289.2	
365.88	4552.6	
366.09	3299.3	
366.29	3033.7	
366.5	4617.5	
366.71	5038.7	
366.91	3941	
367.12	3400.3	
367.32	5473.5	
367.53	4936.3	
367.73	3385.3	
367.94	4065.9	
368.14	4909.7	
368.35	5483.8	
368.56	3358.7	
368.76	2864.4	
368.97	5020.9	
369.17	6138.4	
369.38	2984.6	
369.58	3153.2	
369.79	4240	
369.99	5298.8	
370.2	3907.5	
370.4	3260.4	
370.61	4806.6	
370.82	5664	
371.02	3217.4	
371.23	2694.4	
371.43	4247.5	
371.64	5191.6	
371.84	3214.6	
372.05	3953.9	
372.25	6023.8	
372.46	4907.6	
372.66	3147.7	
372.87	3116.3	
373.07	5003.9	
373.28	6130.9	
373.48	3840.6	
373.69	3660.4	
373.9	4647.5	
374.1	4648.9	
374.31	3829	
374.51	3443.3	
374.72	5126.1	
374.92	4334.2	
375.13	3954.6	
375.33	3322.5	
375.54	4851.6	
375.74	4487.1	
375.95	3394.8	
376.15	4323.3	
376.36	4902.8	
376.56	4771.8	
376.77	3438.5	
376.97	3734.1	
377.18	5726.1	
377.38	4870.1	
377.59	3995.6	
377.79	3088.3	
378	4789.5	
378.2	5063.9	
378.41	3110.2	
378.61	3013.2	
378.82	5111	
379.02	4527.4	
379.23	3212.6	
379.43	4018.8	
379.64	5302.2	
379.84	4874.2	
380.05	3151.8	
380.25	3039.2	
380.46	4949.3	
380.66	4670.7	
380.87	4035.9	
381.07	4343.1	
381.28	5395.7	
381.48	4924.7	
381.69	3076	
381.89	3140.2	
382.1	4229.1	
382.3	5051.7	
382.51	3902.1	
382.71	4600.4	
382.91	4975.2	
383.12	5341.8	
383.32	3422.8	
383.53	3568.2	
383.73	4892.6	
383.94	4769	
384.14	3542.3	
384.35	2859	
384.55	4634.6	
384.76	4921.3	
384.96	3465.8	
385.17	3606.5	
385.37	5014.1	
385.58	4425	
385.78	3577.1	
385.98	2849.4	
386.19	4622.3	
386.39	4899.4	
386.6	3221.5	
386.8	3381.9	
387.01	4960.2	
387.21	4937.7	
387.42	3655.6	
387.62	4076.8	
387.83	4552.6	
388.03	4772.4	
388.23	3455.6	
388.44	3976.5	
388.64	4306.2	
388.85	4343.7	
389.05	3621.5	
389.26	4013.3	
389.46	5798.5	
389.67	5319.3	
389.87	3627.6	
390.07	3659.7	
390.28	4672.1	
390.48	4358.1	
390.69	3111.5	
390.89	3346.4	
391.1	4534.2	
391.3	5157.5	
391.5	4164.2	
391.71	4564.2	
391.91	5044.8	
392.12	5642.2	
392.32	4244.1	
392.53	3650.8	
392.73	4562.2	
392.93	4758.8	
393.14	3412.6	
393.34	3999	
393.55	5044.8	
393.75	4624.3	
393.95	3484.3	
394.16	3439.9	
394.36	4560.8	
394.57	5088.5	
394.77	3042.6	
394.98	3295.9	
395.18	4522.6	
395.38	4588.8	
395.59	3964.2	
395.79	3199.6	
396	4590.9	
396.2	4977.2	
396.4	3816	
396.61	3733.4	
396.81	5048.2	
397.02	4496	
397.22	3972.4	
397.42	3940.3	
397.63	5052.3	
397.83	4470	
398.04	3140.2	
398.24	3485	
398.44	4872.1	
398.65	4103.4	
398.85	3087	
399.05	3067.2	
399.26	4446.8	
399.46	5668.1	
399.67	3354.6	
399.87	3199.6	
400.07	4691.9	
400.28	4924.7	
400.48	3265.1	
400.69	4011.3	
400.89	5056.4	
401.09	5430.5	
401.3	3169.6	
401.5	3948.5	
401.7	5502.9	
401.91	5732.3	
402.11	3493.8	
402.32	3619.4	
402.52	5167.7	
402.72	5086.5	
402.93	3799.7	
403.13	2906.1	
403.33	5748.6	
403.54	4768.4	
403.74	3500.7	
403.94	4198.3	
404.15	4872.1	
404.35	5664	
404.56	3391.4	
404.76	4663.9	
404.96	5114.5	
405.17	4995.7	
405.37	4119.8	
405.57	3722.5	
405.78	5156.8	
405.98	4777.2	
406.18	3375.7	
406.39	3999.7	
406.59	5141.1	
406.79	4781.3	
407	3252.2	
407.2	3271.3	
407.4	5378	
407.61	5221	
407.81	3250.8	
408.01	4943.1	
408.22	4289.8	
408.42	5700.9	
408.62	3980.6	
408.83	3601.7	
409.03	4740.4	
409.23	4639.3	
409.44	3629	
409.64	3882.3	
409.84	5473.5	
410.05	5276.3	
410.25	3785.3	
410.45	3573	
410.66	4967	
410.86	6761.7	
411.06	3906.8	
411.27	3749.8	
411.47	6549.4	
411.67	5096.7	
411.88	3926	
412.08	4112.3	
412.28	5502.9	
412.49	5861.3	
412.69	3807.2	
412.89	3834.5	
413.09	5803.9	
413.3	5623	
413.5	3845.4	
413.7	3571.7	
413.91	5124.7	
414.11	5709.7	
414.31	3716.4	
414.52	3994.2	
414.72	5481	
414.92	5344.5	
415.12	3695.9	
415.33	4123.2	
415.53	5650.3	
415.73	5829.9	
415.94	4397.7	
416.14	3918.4	
416.34	4995.7	
416.55	4677.6	
416.75	4811.4	
416.95	4346.5	
417.15	5756.2	
417.36	6205.3	
417.56	4950.6	
417.76	4192.9	
417.97	5917.9	
418.17	5694	
418.37	3969	
418.57	3961.5	
418.78	5595.7	
418.98	5301.5	
419.18	4618.9	
419.38	4543.1	
419.59	5329.5	
419.79	5119.2	
419.99	3889.1	
420.2	4067.3	
420.4	5696.1	
420.6	5745.9	
420.8	3850.2	
421.01	3686.3	
421.21	5535	
421.41	5597.8	
421.61	4106.2	
421.82	3891.1	
422.02	5238.7	
422.22	5943.9	
422.42	4490.5	
422.63	4260.5	
422.83	5310.4	
423.03	6147.3	
423.23	4263.9	
423.44	3493.8	
423.64	5352	
423.84	5120.6	
424.04	3839.9	
424.25	3554.6	
424.45	6092	
424.65	5957.5	
424.85	3401.7	
425.06	3898.6	
425.26	6134.3	
425.46	5295.4	
425.66	4240	
425.87	3970.3	
426.07	5782.8	
426.27	5672.9	
426.47	4156	
426.67	3631	
426.88	6153.5	
427.08	5692	
427.28	4266.6	
427.48	3520.5	
427.69	4912.4	
427.89	5339.1	
428.09	4250.2	
428.29	3561.4	
428.5	5815.5	
428.7	5576.6	
428.9	3520.5	
429.1	3901.4	
429.3	5449.6	
429.51	5587.5	
429.71	3822.9	
429.91	4357.4	
430.11	5711.8	
430.31	5837.4	
430.52	4016.7	
430.72	4097.3	
430.92	6040.8	
431.12	5685.8	
431.32	3678.8	
431.53	4061.1	
431.73	4868.7	
431.93	6094.8	
432.13	3628.3	
432.33	3558	
432.54	5292.6	
432.74	5445.5	
432.94	3548.4	
433.14	4277.5	
433.34	5727.5	
433.55	5327.4	
433.75	4234.5	
433.95	5443.5	
434.15	5550	
434.35	5214.8	
434.56	3659	
434.76	3270.6	
434.96	5447.6	
435.16	5650.3	
435.36	3579.8	
435.56	4372.4	
435.77	5208	
435.97	5270.1	
436.17	4875.5	
436.37	4250.2	
436.57	5104.2	
436.78	5081	
436.98	5608.7	
437.18	4809.3	
437.38	5615.5	
437.58	5315.2	
437.78	4898.1	
437.99	3926	
438.19	5773.9	
438.39	6255.9	
438.59	3861.1	
438.79	3508.9	
438.99	6115.9	
439.2	5247.6	
439.4	3543	
439.6	3496.6	
439.8	5401.9	
440	6307.7	
440.2	4225.6	
440.4	4295.3	
440.61	5798.5	
440.81	6142.5	
441.01	3640.6	
441.21	4267.3	
441.41	6119.3	
441.61	5797.8	
441.81	4526	
442.02	5242.8	
442.22	6445	
442.42	5897.5	
442.62	3706.1	
442.82	3787.4	
443.02	6156.9	
443.22	5454.4	
443.43	4071.4	
443.63	3654.3	
443.83	5266.7	
444.03	5287.2	
444.23	4567.7	
444.43	4252.3	
444.63	5602.6	
444.83	6334.4	
445.04	3765.5	
445.24	4732.9	
445.44	5865.4	
445.64	5877	
445.84	4403.8	
446.04	4377.9	
446.24	5367.7	
446.44	6038.1	
446.65	3797.6	
446.85	4081.6	
447.05	5646.2	
447.25	6061.3	
447.45	4164.2	
447.65	3625.6	
447.85	5612.8	
448.05	5316.5	
448.25	4441.4	
448.46	4233.2	
448.66	5642.2	
448.86	5337	
449.06	3618.8	
449.26	4391.5	
449.46	5849	
449.66	5110.4	
449.86	4058.4	
450.06	4024.9	
450.26	5294	
450.47	5715.2	
450.67	4297.3	
450.87	4516.5	
451.07	5880.4	
451.27	5518.6	
451.47	3730	
451.67	4207.2	
451.87	5334.3	
452.07	6212.9	
452.27	3926.6	
452.47	3837.2	
452.67	5661.3	
452.88	5838.8	
453.08	3446	
453.28	4871.4	
453.48	6466.1	
453.68	5519.3	
453.88	3804.4	
454.08	4030.4	
454.28	5794.4	
454.48	5539.8	
454.68	4341.7	
454.88	4712.4	
455.08	5906.3	
455.28	5664	
455.48	3730	
455.68	4127.3	
455.89	6255.2	
456.09	5876.3	
456.29	4012	
456.49	3994.9	
456.69	6076.3	
456.89	5585.5	
457.09	4354.7	
457.29	4525.3	
457.49	5816.9	
457.69	5843.5	
457.89	4157.4	
458.09	3693.2	
458.29	5642.8	
458.49	6159.6	
458.69	4461.8	
458.89	4042.7	
459.09	6264.1	
459.29	6315.9	
459.49	4073.4	
459.69	4701.5	
459.9	6021.7	
460.1	5584.1	
460.3	4098	
460.5	3926.6	
460.7	5967.8	
460.9	5640.8	
461.1	3638.6	
461.3	4559.5	
461.5	6364.4	
461.7	6099.5	
461.9	3893.2	
462.1	4290.5	
462.3	5692	
462.5	6100.9	
462.7	3945.1	
462.9	4072.7	
463.1	6877.1	
463.3	6503.7	
463.5	4192.2	
463.7	4769.7	
463.9	5872.2	
464.1	6121.4	
464.3	4194.9	
464.5	4407.9	
464.7	6346	
464.9	5979.4	
465.1	5378	
465.3	4639.3	
465.5	6501.6	
465.7	6535.8	
465.9	4847.5	
466.1	4663.9	
466.3	6282.5	
466.5	6303	
466.7	5290.6	
466.9	4496.7	
467.1	6257.2	
467.3	6828.6	
467.5	5255.1	
467.7	4387.4	
467.9	6980.2	
468.1	7511.3	
468.3	4965.6	
468.5	5272.2	
468.7	6083.8	
468.9	6042.9	
469.1	4631.8	
469.3	5086.5	
469.5	7546.1	
469.7	5780.1	
469.9	5033.9	
470.1	4445.5	
470.3	6237.4	
470.5	6195.1	
470.7	5446.9	
470.9	4550.6	
471.1	5999.2	
471.3	6340.5	
471.5	4437.9	
471.69	5710.4	
471.89	5988.9	
472.09	5580	
472.29	4957.4	
472.49	5256.5	
472.69	5657.9	
472.89	6214.9	
473.09	4330.8	
473.29	4472.8	
473.49	5852.4	
473.69	5950.7	
473.89	5173.9	
474.09	4514.4	
474.29	6911.9	
474.49	6547.4	
474.69	5119.9	
474.89	4638	
475.09	6039.5	
475.29	5922	
475.49	4275.5	
475.69	4382	
475.88	7208.2	
476.08	6276.3	
476.28	4173.8	
476.48	4514.4	
476.68	6611.5	
476.88	6381.5	
477.08	4517.1	
477.28	4704.9	
477.48	6175.3	
477.68	6515.3	
477.88	4193.6	
478.08	4493.9	
478.28	6757.6	
478.48	6226.5	
478.67	4637.3	
478.87	4156	
479.07	6591.7	
479.27	6195.8	
479.47	4704.9	
479.67	4702.8	
479.87	6479.8	
480.07	6786.3	
480.27	4159.4	
480.47	5304.9	
480.67	6239.5	
480.87	6709.8	
481.06	4364.2	
481.26	4994.3	
481.46	6314.6	
481.66	6104.3	
481.86	4719.9	
482.06	5403.9	
482.26	6050.4	
482.46	6731	
482.66	4632.5	
482.86	4324.6	
483.05	6298.2	
483.25	5820.3	
483.45	6395.1	
483.65	4651.6	
483.85	5835.3	
484.05	6092.7	
484.25	4981.3	
484.45	5205.9	
484.65	6689.3	
484.84	6688	
485.04	4553.3	
485.24	4539	
485.44	7023.9	
485.64	5719.3	
485.84	4076.8	
486.04	5099.4	
486.24	5977.3	
486.44	6251.1	
486.63	4042.7	
486.83	4668.7	
487.03	5941.2	
487.23	6002.6	
487.43	4166.3	
487.63	5698.1	
487.83	6133.7	
488.02	6707.8	
488.22	4693.3	
488.42	5199.8	
488.62	6765.8	
488.82	5961.6	
489.02	4573.8	
489.22	4520.5	
489.41	6617.7	
489.61	6342.6	
489.81	4291.9	
490.01	4379.9	
490.21	6526.9	
490.41	7051.2	
490.61	4355.3	
490.8	4392.9	
491	6236.1	
491.2	5760.3	
491.4	4922	
491.6	4181.3	
491.8	6210.8	
491.99	6292.7	
492.19	4115.7	
492.39	4377.9	
492.59	6550.8	
492.79	6553.5	
492.99	4983.4	
493.18	4334.9	
493.38	6670.9	
493.58	7187.7	
493.78	4785.4	
493.98	4519.9	
494.18	6384.9	
494.37	5922.7	
494.57	4929.5	
494.77	4831.8	
494.97	6483.9	
495.17	6711.9	
495.37	4529.4	
495.56	4817.5	
495.76	6793.8	
495.96	6541.2	
496.16	5408	
496.36	4693.3	
496.55	6752.8	
496.75	6294.8	
496.95	4913.8	
497.15	4803.9	
497.35	6665.5	
497.54	6587.6	
497.74	4727.4	
497.94	5870.2	
498.14	7164.5	
498.34	6913.9	
498.53	4463.9	
498.73	4999.8	
498.93	6208.1	
499.13	6571.2	
499.33	4862.6	
499.52	5214.1	
499.72	6608.8	
499.92	6800.6	
500.12	4565.6	
500.32	4830.5	
500.51	6772.6	
500.71	6580.1	
500.91	5429.2	
501.11	5141.8	
501.31	6679.1	
501.5	7043.6	
501.7	5641.5	
501.9	4864.6	
502.1	6558.3	
502.29	6848.4	
502.49	5187.5	
502.69	5500.2	
502.89	6825.2	
503.09	6709.8	
503.28	4534.2	
503.48	4584.7	
503.68	6356.2	
503.88	6228.6	
504.07	5251.7	
504.27	4900.8	
504.47	6492.7	
504.67	6571.9	
504.86	5231.2	
505.06	5007.3	
505.26	6402.6	
505.46	7484	
505.65	4934.9	
505.85	5104.2	
506.05	6248.4	
506.25	6649.8	
506.44	4428.4	
506.64	5141.8	
506.84	6207.4	
507.04	6810.9	
507.23	4667.3	
507.43	5033.2	
507.63	7542.7	
507.83	6336.4	
508.02	5102.9	
508.22	4792.2	
508.42	7797.3	
508.62	6193.7	
508.81	4965.6	
509.01	5318.6	
509.21	6106.4	
509.4	6363	
509.6	5075.5	
509.8	4625	
510	6280.4	
510.19	7161.1	
510.39	4586.1	
510.59	4701.5	
510.79	6172.6	
510.98	7104.4	
511.18	4796.3	
511.38	4856.4	
511.57	6815.6	
511.77	6537.1	
511.97	5301.5	
512.17	4577.9	
512.36	6780.8	
512.56	6667.5	
512.76	4674.1	
512.95	4433.9	
513.15	6860.7	
513.35	5784.8	
513.55	5265.3	
513.74	4566.3	
513.94	6774	
514.14	6286.6	
514.33	5313.1	
514.53	5101.5	
514.73	6343.9	
514.92	6384.9	
515.12	4705.5	
515.32	4579.3	
515.51	6538.5	
515.71	6696.2	
515.91	5828.5	
516.11	4569	
516.3	7647.1	
516.5	6244.9	
516.7	5072.8	
516.89	5482.4	
517.09	6341.9	
517.29	6245.6	
517.48	5525.4	
517.68	4815.5	
517.88	6015.6	
518.07	6522.1	
518.27	5210.7	
518.47	4512.4	
518.66	7015	
518.86	6025.8	
519.06	4437.9	
519.25	4793.6	
519.45	6305	
519.65	7311.2	
519.84	5193	
520.04	5622.4	
520.24	7590.5	
520.43	6683.9	
520.63	5018.9	
520.83	4840	
521.02	6181.5	
521.22	6629.3	
521.42	5167.7	
521.61	5523.4	
521.81	6335	
522.01	6495.5	
522.2	5083.1	
522.4	4945.8	
522.6	6819.1	
522.79	5876.3	
522.99	4900.1	
523.18	4448.2	
523.38	6662.7	
523.58	6524.1	
523.77	5777.3	
523.97	4394.9	
524.17	7776.8	
524.36	7224.6	
524.56	5419.6	
524.76	5081.7	
524.95	6474.3	
525.15	6296.8	
525.34	5050.3	
525.54	4917.2	
525.74	6736.5	
525.93	6040.8	
526.13	5856.5	
526.33	4911	
526.52	7012.2	
526.72	6593.8	
526.91	5795.8	
527.11	5244.2	
527.31	6972	
527.5	7142.6	
527.7	5165	
527.89	4498.7	
528.09	6274.3	
528.29	6563.7	
528.48	5449	
528.68	5249.6	
528.87	6904.4	
529.07	6935.8	
529.27	5209.3	
529.46	4801.1	
529.66	6612.2	
529.85	6913.3	
530.05	4683.7	
530.25	5280.3	
530.44	7609.6	
530.64	6554.2	
530.83	4946.5	
531.03	5219.6	
531.23	7038.2	
531.42	6828.6	
531.62	5649.7	
531.81	5087.2	
532.01	7010.9	
532.21	7208.2	
532.4	4969.1	
532.6	5122.7	
532.79	7636.9	
532.99	6884.6	
533.18	5203.2	
533.38	5847.6	
533.58	6623.8	
533.77	7169.3	
533.97	5198.4	
534.16	5696.1	
534.36	7273.7	
534.55	6635.4	
534.75	5808.7	
534.95	5179.3	
535.14	7256	
535.34	6625.9	
535.53	4958.1	
535.73	6369.2	
535.92	7617.1	
536.12	6746.7	
536.31	5027.8	
536.51	5922	
536.71	7043	
536.9	6668.9	
537.1	5115.1	
537.29	5271.5	
537.49	7344	
537.68	6664.1	
537.88	5477.6	
538.07	4904.9	
538.27	6856.6	
538.46	7529	
538.66	4874.8	
538.86	5128.8	
539.05	6797.2	
539.25	7234.8	
539.44	5356.1	
539.64	5075.5	
539.83	6746.7	
540.03	7462.1	
540.22	5007.3	
540.42	5146.5	
540.61	6991.8	
540.81	6953.5	
541	5471.5	
541.2	5763.7	
541.39	6618.4	
541.59	6750.1	
541.78	5665.4	
541.98	5005.2	
542.18	6252.4	
542.37	6296.8	
542.57	5390.3	
542.76	5690.6	
542.96	6459.3	
543.15	6881.9	
543.35	5371.8	
543.54	4872.8	
543.74	7060	
543.93	6861.4	
544.13	5302.2	
544.32	6093.4	
544.52	7047.1	
544.71	6528.2	
544.91	4706.2	
545.1	5522	
545.3	6538.5	
545.49	6954.9	
545.69	4624.3	
545.88	5218.9	
546.08	7690.8	
546.27	7280.5	
546.47	5497.4	
546.66	4915.1	
546.86	7157	
547.05	7552.2	
547.24	5098.1	
547.44	5047.6	
547.63	6490.7	
547.83	7169.9	
548.02	5261.9	
548.22	5419.6	
548.41	6350.8	
548.61	7204.1	
548.8	4995.7	
549	4853.7	
549.19	6888	
549.39	6972	
549.58	4764.3	
549.78	5160.9	
549.97	6968.6	
550.17	6673	
550.36	5822.4	
550.55	6554.9	
550.75	6677.1	
550.94	7320.1	
551.14	4949.3	
551.33	5259.2	
551.53	6156.9	
551.72	6848.4	
551.92	5167.7	
552.11	5005.9	
552.31	6987	
552.5	6872.3	
552.69	6286.6	
552.89	4820.2	
553.08	6920.1	
553.28	6722.1	
553.47	5045.5	
553.67	5923.4	
553.86	7325.6	
554.06	6156.2	
554.25	4513.7	
554.44	4943.1	
554.64	7907.2	
554.83	7652.6	
555.03	4824.3	
555.22	5161.6	
555.42	7064.8	
555.61	6894.8	
555.8	5048.2	
556	5222.3	
556.19	6289.3	
556.39	7133.1	
556.58	5088.5	
556.78	5091.9	
556.97	6838.9	
557.16	6589.7	
557.36	5961.6	
557.55	4812.7	
557.75	6128.2	
557.94	7354.3	
558.13	4951.3	
558.33	4748.6	
558.52	7269.6	
558.72	6232.7	
558.91	4892.6	
559.1	4983.4	
559.3	6149.4	
559.49	6029.2	
559.69	4539	
559.88	5186.8	
560.07	6797.9	
560.27	7061.4	
560.46	5333.6	
560.66	5517.2	
560.85	6721.4	
561.04	6059.9	
561.24	4800.4	
561.43	4952	
561.63	6159.6	
561.82	6435.4	
562.01	5839.4	
562.21	5139	
562.4	6700.3	
562.59	7324.2	
562.79	5061.2	
562.98	4717.2	
563.18	6632	
563.37	7689.4	
563.56	5402.5	
563.76	4741.7	
563.95	6307.7	
564.14	6247	
564.34	5082.4	
564.53	4814.1	
564.73	6709.1	
564.92	6862.1	
565.11	5118.6	
565.31	4656.4	
565.5	7103	
565.69	6297.5	
565.89	4885.8	
566.08	4982.7	
566.27	6952.9	
566.47	7286.7	
566.66	5512.4	
566.85	4539	
567.05	6768.5	
567.24	6317.3	
567.44	4770.4	
567.63	5770.5	
567.82	6880.5	
568.02	6602	
568.21	4788.8	
568.4	5053.7	
568.6	6567.8	
568.79	6562.4	
568.98	4730.8	
569.18	4719.9	
569.37	6448.4	
569.56	7922.9	
569.76	5072.1	
569.95	5797.1	
570.14	6862.1	
570.34	6640.2	
570.53	4763.6	
570.72	4632.5	
570.91	7171.3	
571.11	6580.1	
571.3	5109	
571.49	5724.1	
571.69	6660	
571.88	6180.1	
572.07	5434.6	
572.27	5378	
572.46	6212.2	
572.65	6937.8	
572.85	4870.1	
573.04	5049.6	
573.23	7140.6	
573.43	6668.9	
573.62	4684.4	
573.81	5153.4	
574	6655.9	
574.2	6472.3	
574.39	4920.6	
574.58	5055.1	
574.78	7277.8	
574.97	6694.1	
575.16	5307	
575.36	5415.5	
575.55	6920.1	
575.74	7089.4	
575.93	4675.5	
576.13	5423	
576.32	6555.5	
576.51	6926.2	
576.71	5019.6	
576.9	5934.3	
577.09	7092.8	
577.28	6761.7	
577.48	5327.4	
577.67	4620.9	
577.86	6515.3	
578.05	6718	
578.25	5111.7	
578.44	5167	
578.63	6634.1	
578.83	7499.7	
579.02	4640.7	
579.21	5758.9	
579.4	6775.4	
579.6	6509.8	
579.79	5198.4	
579.98	6738.5	
580.17	7015.7	
580.37	7088	
580.56	4795.7	
580.75	5352	
580.94	7266.9	
581.14	7268.9	
581.33	5705	
581.52	4926	
581.71	6885.3	
581.91	7413.6	
582.1	4764.9	
582.29	5265.3	
582.48	6624.5	
582.68	6560.3	
582.87	5383.4	
583.06	5136.3	
583.25	6935.1	
583.45	6331.6	
583.64	5648.3	
583.83	6131.6	
584.02	6595.1	
584.21	6902.3	
584.41	5634.6	
584.6	5132.9	
584.79	6626.5	
584.98	7193.1	
585.18	4780.6	
585.37	4760.2	
585.56	6407.4	
585.75	6900.3	
585.94	4953.4	
586.14	5380	
586.33	7246.4	
586.52	6544.6	
586.71	5376.6	
586.91	5081	
587.1	6165.8	
587.29	6972.7	
587.48	5074.9	
587.67	4913.1	
587.87	6853.9	
588.06	6838.9	
588.25	5890.6	
588.44	5436.7	
588.63	6683.2	
588.83	7105.8	
589.02	5156.1	
589.21	4977.2	
589.4	6659.3	
589.59	6517.3	
589.78	4498	
589.98	4760.2	
590.17	6208.8	
590.36	6584.9	
590.55	4287.1	
590.74	4888.5	
590.94	7537.9	
591.13	6546	
591.32	4747.9	
591.51	4444.8	
591.7	6827.9	
591.89	6447.7	
592.09	4489.1	
592.28	4805.9	
592.47	5901.6	
592.66	7308.5	
592.85	4509.6	
593.05	4629.8	
593.24	6399.9	
593.43	6987	
593.62	4825.7	
593.81	4952.7	
594	6453.1	
594.19	6522.1	
594.39	4630.5	
594.58	4562.9	
594.77	6681.8	
594.96	6976.7	
595.15	4543.8	
595.34	5029.8	
595.54	6618.4	
595.73	6025.1	
595.92	4138.9	
596.11	4935.6	
596.3	7071	
596.49	6075.6	
596.68	4853.7	
596.88	5107.6	
597.07	6793.8	
597.26	5988.3	
597.45	4508.3	
597.64	5332.2	
597.83	6141.2	
598.02	6600.6	
598.22	4527.4	
598.41	5014.1	
598.6	6466.1	
598.79	6056.5	
598.98	4544.4	
599.17	5222.3	
599.36	6452.5	
599.55	7260	
599.74	5970.5	
599.94	5840.8	
600.13	6888.7	
600.32	5952.1	
600.51	4402.5	
600.7	4411.3	
600.89	7283.9	
601.08	7373.4	
601.27	4290.5	
601.47	5038	
601.66	6696.2	
601.85	7176.8	
602.04	4829.8	
602.23	4925.4	
602.42	6156.9	
602.61	6631.3	
602.8	4608.6	
602.99	4573.1	
603.18	6344.6	
603.37	6516	
603.57	5015.5	
603.76	5448.3	
603.95	7042.3	
604.14	6720.8	
604.33	4672.8	
604.52	4883.7	
604.71	6546.7	
604.9	6163.7	
605.09	5302.9	
605.28	5158.2	
605.47	6969.9	
605.66	6671.6	
605.86	5079	
606.05	4609.3	
606.24	6968.6	
606.43	5845.6	
606.62	4859.1	
606.81	5355.4	
607	6798.6	
607.19	6239.5	
607.38	4483.7	
607.57	4612	
607.76	6102.9	
607.95	5763.7	
608.14	4956.1	
608.33	5335.6	
608.52	6122.1	
608.72	6793.1	
608.91	4375.1	
609.1	4313.7	
609.29	6255.2	
609.48	5866.7	
609.67	5004.6	
609.86	4409.3	
610.05	5993.7	
610.24	6163	
610.43	4302.1	
610.62	4044.1	
610.81	6964.5	
611	6750.1	
611.19	4421.6	
611.38	4899.4	
611.57	6433.4	
611.76	7291.5	
611.95	4228.4	
612.14	4144.4	
612.33	6262	
612.52	5926.1	
612.71	4668	
612.9	4108.9	
613.09	5641.5	
613.28	7283.3	
613.47	4520.5	
613.66	5070.8	
613.85	6400.6	
614.04	5990.3	
614.24	4530.1	
614.43	3958.7	
614.62	6438.8	
614.81	6421.1	
615	4916.5	
615.19	4896.7	
615.38	5926.8	
615.57	6160.3	
615.76	4855.7	
615.95	5477.6	
616.14	6506.4	
616.33	6267.5	
616.52	5043.5	
616.71	5065.3	
616.9	6456.6	
617.09	6316.6	
617.28	4606.6	
617.47	5430.5	
617.66	5841.5	
617.85	5812.8	
618.04	5189.6	
618.22	4825.7	
618.41	6025.1	
618.6	6725.5	
618.79	4672.1	
618.98	4524.6	
619.17	6837.5	
619.36	5652.4	
619.55	4629.8	
619.74	4721.3	
619.93	6393.1	
620.12	5922	
620.31	4988.9	
620.5	5079.6	
620.69	6735.1	
620.88	7066.9	
621.07	5602.6	
621.26	4935.6	
621.45	6482.5	
621.64	6447.7	
621.83	5010.7	
622.02	4457.1	
622.21	6548.7	
622.4	6353.5	
622.59	5384.1	
622.78	5245.5	
622.97	6026.5	
623.16	6767.9	
623.35	5010	
623.54	4359.4	
623.72	6136.4	
623.91	6256.5	
624.1	5196.4	
624.29	4216.8	
624.48	7040.2	
624.67	6526.9	
624.86	5087.2	
625.05	4481	
625.24	7228.6	
625.43	6113.2	
625.62	6279.1	
625.81	4592.9	
626	6763.1	
626.19	6234.7	
626.38	5062.6	
626.56	4760.2	
626.75	6009.4	
626.94	6567.8	
627.13	5150.6	
627.32	4223.6	
627.51	6595.1	
627.7	7435.5	
627.89	4373.8	
628.08	5203.9	
628.27	5973.2	
628.46	6226.5	
628.65	4577.2	
628.83	4294.6	
629.02	6609.5	
629.21	5970.5	
629.4	4859.1	
629.59	5018.2	
629.78	6011.5	
629.97	6648.4	
630.16	5025.7	
630.35	4627	
630.54	7133.8	
630.72	6867.5	
630.91	4668	
631.1	4985.4	
631.29	6384.9	
631.48	6490.7	
631.67	5183.4	
631.86	4775.9	
632.05	6224.5	
632.24	6248.4	
632.42	4472.8	
632.61	4894.6	
632.8	6305	
632.99	5908.4	
633.18	4947.9	
633.37	5093.3	
633.56	6426.5	
633.75	6301.6	
633.93	4939.7	
634.12	4715.1	
634.31	7001.3	
634.5	6709.1	
634.69	4721.9	
634.88	5065.3	
635.07	6356.2	
635.25	6641.6	
635.44	5287.9	
635.63	5459.2	
635.82	6178	
636.01	5689.3	
636.2	5279.7	
636.39	5002.5	
636.57	7054.6	
636.76	6612.9	
636.95	4601.8	
637.14	5553.4	
637.33	6509.8	
637.52	7086.7	
637.7	4437.3	
637.89	5226.4	
638.08	6202.6	
638.27	7187	
638.46	5154.1	
638.65	5447.6	
638.83	7245	
639.02	6110.5	
639.21	5145.2	
639.4	5505.6	
639.59	6474.3	
639.78	6189	
639.96	4616.8	
640.15	4627.7	
640.34	6395.1	
640.53	6414.2	
640.72	4428.4	
640.91	4647.5	
641.09	5955.5	
641.28	6866.2	
641.47	4640	
641.66	5236	
641.85	6433.4	
642.03	6587.6	
642.22	5082.4	
642.41	4767	
642.6	6014.9	
642.79	5541.8	
642.97	4605.2	
643.16	5029.1	
643.35	6041.5	
643.54	5879	
643.73	4502.8	
643.91	5103.5	
644.1	5854.5	
644.29	6185.5	
644.48	4624.3	
644.67	4614.8	
644.85	5862.7	
645.04	6326.2	
645.23	4379.9	
645.42	4558.8	
645.6	5973.2	
645.79	6718.7	
645.98	4590.2	
646.17	3939.6	
646.36	5713.8	
646.54	6137.1	
646.73	5166.3	
646.92	4318.5	
647.11	5853.1	
647.29	6571.2	
647.48	4312.3	
647.67	4219.5	
647.86	6812.2	
648.05	6717.3	
648.23	4575.2	
648.42	5427.1	
648.61	6303.6	
648.8	6115.9	
648.98	4336.9	
649.17	4530.8	
649.36	5810.1	
649.55	5493.3	
649.73	4386.1	
649.92	4879.6	
650.11	5756.2	
650.3	5980.1	
650.48	4492.6	
650.67	4390.2	
650.86	6236.7	
651.05	5426.4	
651.23	4396.3	
651.42	4364.9	
651.61	5815.5	
651.79	5779.4	
651.98	4504.8	
652.17	4249.5	
652.36	6133	
652.54	5519.3	
652.73	4322.6	
652.92	4199.7	
653.11	6197.8	
653.29	6224.5	
653.48	3876.8	
653.67	4586.8	
653.85	6023.1	
654.04	6769.2	
654.23	4770.4	
654.42	4431.1	
654.6	5687.9	
654.79	6220.4	
654.98	4067.3	
655.16	4430.4	
655.35	5467.4	
655.54	5270.8	
655.73	4064.5	
655.91	4021.5	
656.1	6162.3	
656.29	5296.7	
656.47	3760.1	
656.66	4928.8	
656.85	5559.6	
657.03	5554.1	
657.22	4117.8	
657.41	4192.9	
657.59	5612.1	
657.78	5532.9	
657.97	3919.8	
658.16	4336.2	
658.34	6129.6	
658.53	6422.4	
658.72	5106.3	
658.9	5381.4	
659.09	5712.5	
659.28	5773.9	
659.46	4296.6	
659.65	4091.8	
659.84	5532.9	
660.02	5963	
660.21	4181.3	
660.4	4059.8	
660.58	6189.6	
660.77	5813.5	
660.96	4554	
661.14	3790.1	
661.33	6642.2	
661.52	6518.7	
661.7	3819.5	
661.89	6352.1	
662.08	5519.3	
662.26	5119.9	
662.45	4031.1	
662.64	4089.8	
662.82	6049	
663.01	5361.6	
663.2	4046.8	
663.38	4631.8	
663.57	5958.2	
663.75	5807.4	
663.94	4317.1	
664.13	5261.9	
664.31	5485.1	
664.5	5976	
664.69	4644.1	
664.87	4909	
665.06	5307.7	
665.25	5868.1	
665.43	5032.5	
665.62	5111	
665.8	6031.3	
665.99	5592.3	
666.18	4388.1	
666.36	4379.9	
666.55	6054.5	
666.74	5949.3	
666.92	4083.6	
667.11	5221	
667.29	5671.5	
667.48	6048.3	
667.67	4975.9	
667.85	4248.2	
668.04	5580	
668.22	5602.6	
668.41	4429.1	
668.6	4592.2	
668.78	5456.5	
668.97	5694.7	
669.15	4652.3	
669.34	3883.6	
669.53	5477	
669.71	5705	
669.9	4044.1	
670.08	4513.7	
670.27	5429.2	
670.46	5917.3	
670.64	4690.5	
670.83	4835.9	
671.01	5325.4	
671.2	5778	
671.38	4104.1	
671.57	4037.9	
671.76	6337.1	
671.94	6638.1	
672.13	3962.8	
672.31	4709.6	
672.5	5987.6	
672.69	5410.7	
672.87	4074.1	
673.06	4295.3	
673.24	5883.8	
673.43	5511.8	
673.61	4571.1	
673.8	4291.2	
673.98	5935	
674.17	6036	
674.36	4783.4	
674.54	4592.9	
674.73	5744.6	
674.91	6017.6	
675.1	4415.4	
675.28	4071.4	
675.47	5649.7	
675.65	6040.1	
675.84	4369	
676.03	4486.4	
676.21	5449.6	
676.4	5097.4	
676.58	4827.1	
676.77	4599.7	
676.95	6608.1	
677.14	5472.9	
677.32	4024.9	
677.51	3934.1	
677.69	6042.2	
677.88	5356.8	
678.06	4033.8	
678.25	4131.4	
678.44	5627.8	
678.62	5435.3	
678.81	3878.9	
678.99	4572.4	
679.18	6193.7	
679.36	5976.7	
679.55	4289.1	
679.73	4715.8	
679.92	5920.7	
680.1	5430.5	
680.29	5169.1	
680.47	4237.9	
680.66	5526.1	
680.84	6032.6	
681.03	3816	
681.21	4616.1	
681.4	5482.4	
681.58	5395	
681.77	4154	
681.95	4036.5	
682.14	6069.5	
682.32	6326.9	
682.51	4755.4	
682.69	3928	
682.88	5406	
683.06	5852.4	
683.25	4540.3	
683.43	4894	
683.62	5709.1	
683.8	5896.8	
683.99	4999.1	
684.17	4407.2	
684.36	6563.7	
684.54	5675.6	
684.73	3953.3	
684.91	4055	
685.1	5842.2	
685.28	5436.7	
685.46	4487.1	
685.65	4534.2	
685.83	6025.1	
686.02	5578.7	
686.2	4091.8	
686.39	4204.5	
686.57	5421	
686.76	6352.8	
686.94	4072.7	
687.13	4201.1	
687.31	5865.4	
687.5	5613.5	
687.68	3801	
687.86	4607.2	
688.05	6883.2	
688.23	5139.7	
688.42	4640.7	
688.6	4160.8	
688.79	5434.6	
688.97	5434.6	
689.16	4445.5	
689.34	3714.3	
689.52	5929.6	
689.71	6241.5	
689.89	4579.9	
690.08	4106.9	
690.26	5759.6	
690.45	5508.4	
690.63	4760.2	
690.81	4305.5	
691	5617.6	
691.18	5403.2	
691.37	4425.7	
691.55	5831.9	
691.74	5429.2	
691.92	6808.1	
692.1	4395.6	
692.29	3969	
692.47	5610.8	
692.66	5100.8	
692.84	4073.4	
693.02	4492.6	
693.21	5128.8	
693.39	5540.4	
693.58	4499.4	
693.76	4059.8	
693.94	6348	
694.13	6186.9	
694.31	4099.4	
694.5	4807.3	
694.68	5335	
694.86	5603.9	
695.05	4373.8	
695.23	4405.9	
695.42	5842.9	
695.6	7520.1	
695.78	4704.9	
695.97	4118.5	
696.15	5948	
696.34	5429.2	
696.52	4024.3	
696.7	4602.5	
696.89	5736.4	
697.07	5345.9	
697.25	4529.4	
697.44	5581.4	
697.62	5770.5	
697.81	5892.7	
697.99	4319.2	
698.17	4622.3	
698.36	5360.2	
698.54	5795.1	
698.72	4581.3	
698.91	3870.7	
699.09	5446.9	
699.28	5279	
699.46	4316.4	
699.64	4213.4	
699.83	5296.7	
700.01	6171.2	
700.19	4782	
700.38	3644	
700.56	6148.7	
700.74	5409.4	
700.93	3928	
701.11	4464.6	
701.29	5756.2	
701.48	6479.8	
701.66	4056.3	
701.84	4115.1	
702.03	5477	
702.21	5943.9	
702.39	3837.2	
702.58	4214.7	
702.76	5821	
702.94	5880.4	
703.13	3734.1	
703.31	5584.1	
703.49	5338.4	
703.68	6021.7	
703.86	3921.2	
704.04	4633.9	
704.23	5625.8	
704.41	5894.1	
704.59	4062.5	
704.78	4902.8	
704.96	6799.9	
705.14	5893.4	
705.33	3914.4	
705.51	4518.5	
705.69	5456.5	
705.87	6060.6	
706.06	4638.6	
706.24	3879.5	
706.42	5709.7	
706.61	5887.9	
706.79	4715.8	
706.97	3851.5	
707.16	5274.9	
707.34	5698.1	
707.52	4640.7	
707.7	4025.6	
707.89	5348.6	
708.07	5166.3	
708.25	4664.6	
708.44	4928.1	
708.62	5287.9	
708.8	6173.3	
708.98	4800.4	
709.17	4085	
709.35	5615.5	
709.53	5690.6	
709.72	3841.3	
709.9	4167.6	
710.08	5900.9	
710.26	5853.1	
710.45	5085.8	
710.63	4092.5	
710.81	5552.7	
710.99	5630.5	
711.18	4555.4	
711.36	4181.3	
711.54	5462.6	
711.72	6029.2	
711.91	4312.3	
712.09	3900.7	
712.27	5674.2	
712.45	5974.6	
712.64	4466.6	
712.82	3741.6	
713	5240.1	
713.18	5398.4	
713.37	3882.9	
713.55	4853	
713.73	6000.5	
713.91	5067.4	
714.1	4165.6	
714.28	3781.9	
714.46	5829.9	
714.64	5302.2	
714.83	3463.8	
715.01	4028.4	
715.19	5415.5	
715.37	4810	
715.55	3784.6	
715.74	4045.4	
715.92	6009.4	
716.1	4546.5	
716.28	4921.3	
716.47	4128.7	
716.65	5130.8	
716.83	5130.8	
717.01	4070	
717.19	4087.7	
717.38	6666.1	
717.56	4881.7	
717.74	4264.6	
717.92	3614	
718.1	5743.9	
718.29	5170.4	
718.47	3308.8	
718.65	3742.3	
718.83	5660.6	
719.01	5586.9	
719.2	3218	
719.38	3997	
719.56	5347.9	
719.74	6475.7	
719.92	3753.9	
720.11	4500.1	
720.29	5547.3	
720.47	4788.8	
720.65	3397.6	
720.83	4056.3	
721.02	5149.3	
721.2	4941.1	
721.38	4081.6	
721.56	3510.2	
721.74	4599.7	
721.92	4714.4	
722.11	4436.6	
722.29	4229.1	
722.47	5640.8	
722.65	5055.1	
722.83	3570.3	
723.01	4253.6	
723.2	5115.8	
723.38	5317.9	
723.56	3211.9	
723.74	3952.6	
723.92	4735.6	
724.1	5492.7	
724.29	3467.2	
724.47	4349.2	
724.65	4871.4	
724.83	4712.4	
725.01	3428.3	
725.19	4076.8	
725.37	4792.2	
725.56	4768.4	
725.74	3358	
725.92	3459.7	
726.1	4756.7	
726.28	4906.9	
726.46	3828.3	
726.64	3578.5	
726.83	4965	
727.01	5081.7	
727.19	3368.9	
727.37	3850.2	
727.55	5139	
727.73	5360.9	
727.91	3305.4	
728.09	3125.2	
728.28	5451	
728.46	5557.5	
728.64	3954.6	
728.82	3943.7	
729	6111.1	
729.18	5611.4	
729.36	3324.5	
729.54	4982.7	
729.72	6324.8	
729.91	5040.7	
730.09	4735.6	
730.27	3796.9	
730.45	5025	
730.63	5454.4	
730.81	4233.2	
730.99	3502.7	
731.17	5828.5	
731.35	4803.9	
731.53	3870.7	
731.71	3652.9	
731.9	5642.8	
732.08	5692.7	
732.26	3863.2	
732.44	3559.4	
732.62	5797.8	
732.8	5388.2	
732.98	4108.9	
733.16	3409.2	
733.34	5470.8	
733.52	4476.9	
733.7	3834.5	
733.88	3997.6	
734.07	5269.4	
734.25	5096.7	
734.43	3414.6	
734.61	4523.3	
734.79	6199.2	
734.97	5003.2	
735.15	3536.8	
735.33	3801	
735.51	5257.8	
735.69	5070.8	
735.87	4880.3	
736.05	3883.6	
736.23	5148.6	
736.41	4946.5	
736.59	3777.8	
736.77	3940.3	
736.95	5393.7	
737.13	5025.7	
737.32	3536.2	
737.5	3670	
737.68	5959.6	
737.86	4969.7	
738.04	3355.9	
738.22	4734.2	
738.4	4913.8	
738.58	5137	
738.76	3916.4	
738.94	3075.4	
739.12	4965	
739.3	4859.8	
739.48	4296.6	
739.66	4031.1	
739.84	5150	
740.02	5118.6	
740.2	3220.1	
740.38	3474.7	
740.56	5378	
740.74	4507.6	
740.92	3928	
741.1	3865.2	
741.28	5036.6	
741.46	4806.6	
741.64	3631	
741.82	3943	
742	5060.5	
742.18	4975.2	
742.36	3714.3	
742.54	3426.9	
742.72	5489.2	
742.9	4526.7	
743.08	4036.5	
743.26	3097.2	
743.44	5552.7	
743.62	5474.9	
743.8	4173.8	
743.98	3446.7	
744.16	5297.4	
744.34	4986.1	
744.52	4085.7	
744.7	4009.2	
744.88	5379.3	
745.06	5040.1	
745.24	4067.9	
745.42	4205.2	
745.6	5424.4	
745.78	5300.8	
745.96	3257.6	
746.14	3507.5	
746.32	5990.3	
746.5	5393	
746.68	3865.2	
746.86	3519.8	
747.03	5699.5	
747.21	4514.4	
747.39	3991.5	
747.57	3498.6	
747.75	5112.4	
747.93	5435.3	
748.11	3528.7	
748.29	3457	
748.47	6361	
748.65	4977.9	
748.83	4028.4	
749.01	3822.2	
749.19	5325.4	
749.37	4671.4	
749.55	3752.6	
749.73	3831.1	
749.91	5136.3	
750.09	4936.3	
750.26	3879.5	
750.44	3398.9	
750.62	5098.1	
750.8	5051	
750.98	3295.2	
751.16	3487	
751.34	5191.6	
751.52	4653	
751.7	4121.2	
751.88	3302	
752.06	5512.4	
752.24	5300.8	
752.42	3297.9	
752.59	3592.8	
752.77	5027.8	
752.95	5936.4	
753.13	4066.6	
753.31	3605.1	
753.49	4856.4	
753.67	5143.8	
753.85	3829.7	
754.03	3528	
754.21	5380.7	
754.38	5672.9	
754.56	3725.9	
754.74	3024.2	
754.92	4833.9	
755.1	5330.2	
755.28	3069.9	
755.46	3073.3	
755.64	6037.4	
755.82	6096.1	
755.99	3409.9	
756.17	3459	
756.35	4293.9	
756.53	5393	
756.71	2680.1	
756.89	3461.7	
757.07	5095.3	
757.25	4414.1	
757.42	3716.4	
757.6	4351.9	
757.78	5164.3	
757.96	4380.6	
758.14	3458.3	
758.32	3095.2	
758.5	4074.1	
758.67	4728.8	
758.85	3338.9	
759.03	3417.4	
759.21	4860.5	
759.39	4412.7	
759.57	3021.4	
759.75	3915	
759.92	5330.2	
760.1	4853	
760.28	4121.9	
760.46	4285	
760.64	4619.5	
760.82	4512.4	
760.99	3929.4	
761.17	3408.5	
761.35	5278.3	
761.53	4376.5	
761.71	3439.9	
761.89	3923.2	
762.06	5087.2	
762.24	4700.8	
762.42	3510.2	
762.6	3337.5	
762.78	4674.1	
762.96	5122	
763.13	3796.9	
763.31	3442.6	
763.49	5237.3	
763.67	4655	
763.85	4091.8	
764.02	4543.8	
764.2	5502.2	
764.38	4825.7	
764.56	3423.5	
764.74	4076.8	
764.91	5577.3	
765.09	4700.1	
765.27	3235.1	
765.45	3085.6	
765.63	5717.9	
765.8	5427.1	
765.98	2938.2	
766.16	3092.4	
766.34	4434.5	
766.52	4242	
766.69	3791.5	
766.87	3020.8	
767.05	4757.4	
767.23	5305.6	
767.41	3280.8	
767.58	3450.8	
767.76	5156.1	
767.94	5251	
768.12	3278.8	
768.29	3848.1	
768.47	4809.3	
768.65	5352	
768.83	3028.9	
769	3824.9	
769.18	4444.1	
769.36	5010	
769.54	3884.3	
769.72	3093.8	
769.89	5274.2	
770.07	5372.5	
770.25	3391.4	
770.43	4336.2	
770.6	5814.2	
770.78	6081.1	
770.96	3519.8	
771.14	3372.3	
771.31	5199.8	
771.49	4752	
771.67	2927.2	
771.85	3051.5	
772.02	4155.3	
772.2	4652.3	
772.38	3614.7	
772.55	3166.2	
772.73	4941.1	
772.91	4720.6	
773.09	3515.7	
773.26	3603.1	
773.44	4885.1	
773.62	4635.9	
773.8	3229.6	
773.97	2991.4	
774.15	5022.3	
774.33	4679.6	
774.5	3084.9	
774.68	3405.1	
774.86	5073.5	
775.04	4735.6	
775.21	3152.5	
775.39	3125.9	
775.57	4867.3	
775.74	5139	
775.92	3031	
776.1	2925.2	
776.27	4838	
776.45	5780.1	
776.63	3136.8	
776.81	2854.9	
776.98	4669.4	
777.16	5397.8	
777.34	3275.4	
777.51	3465.2	
777.69	4655	
777.87	4469.4	
778.04	3326.6	
778.22	3689.1	
778.4	4504.2	
778.57	4993.6	
778.75	2745	
778.93	3012.6	
779.1	4439.3	
779.28	4216.8	
779.46	2838.5	
779.64	3164.1	
779.81	5092.6	
779.99	5728.9	
780.17	3749.1	
780.34	3814	
780.52	4715.8	
780.69	4832.5	
780.87	3452.9	
781.05	3031.7	
781.22	4797.7	
781.4	4828.4	
781.58	3203	
781.75	2583.9	
781.93	4863.9	
782.11	4304.1	
782.28	3843.4	
782.46	3205.1	
782.64	4209.9	
782.81	4974.5	
782.99	3339.6	
783.17	3201.7	
783.34	4856.4	
783.52	4312.3	
783.69	3364.8	
783.87	4001.7	
784.05	4434.5	
784.22	4316.4	
784.4	3946.4	
784.58	3458.3	
784.75	5053	
784.93	4414.1	
785.1	3225.6	
785.28	3674.1	
785.46	4895.3	
785.63	4336.2	
785.81	3160	
785.99	3080.1	
786.16	4506.9	
786.34	4737.6	
786.51	3158.7	
786.69	3441.3	
786.87	4123.9	
787.04	4528.1	
787.22	2996.2	
787.39	3695.9	
787.57	4386.1	
787.75	5122	
787.92	3867.2	
788.1	3759.4	
788.27	4347.8	
788.45	4131.4	
788.63	3618.1	
788.8	2639.8	
788.98	4839.4	
789.15	4046.8	
789.33	2734.7	
789.5	3203	
789.68	5029.8	
789.86	5113.8	
790.03	3557.3	
790.21	3123.2	
790.38	5098.8	
790.56	4539	
790.73	3047.4	
790.91	3016.7	
791.09	4368.3	
791.26	4890.5	
791.44	3275.4	
791.61	2815.3	
791.79	4410	
791.96	4400.4	
792.14	2917.7	
792.32	2573.6	
792.49	4416.8	
792.67	4481.6	
792.84	3021.4	
793.02	2831	
793.19	4754	
793.37	5199.8	
793.54	2628.2	
793.72	2899.2	
793.89	5297.4	
794.07	4366.3	
794.25	3211.2	
794.42	2688.3	
794.6	5133.6	
794.77	4829.8	
794.95	3488.4	
795.12	3061.7	
795.3	4384	
795.47	4773.8	
795.65	3382.6	
795.82	3217.4	
796	4265.9	
796.17	5571.8	
796.35	3143.6	
796.52	3707.5	
796.7	4761.5	
796.87	4902.2	
797.05	3162.7	
797.22	3785.3	
797.4	4816.8	
797.57	5538.4	
797.75	3273.3	
797.92	3104.7	
798.1	5104.2	
798.27	4319.8	
798.45	2748.4	
798.62	2835.8	
798.8	4638	
798.97	5042.1	
799.15	3450.1	
799.32	3307.5	
799.5	4093.2	
799.67	4550.6	
799.85	3515.7	
800.02	2633.7	
800.2	4374.5	
800.37	4554	
800.55	3665.2	
800.72	3028.3	
800.9	4903.5	
801.07	5263.3	
801.25	4059.8	
801.42	3366.2	
801.6	4978.6	
801.77	4627	
801.95	3187.3	
802.12	3065.8	
802.29	4801.8	
802.47	4700.1	
802.64	3388.7	
802.82	2609.1	
802.99	4356	
803.17	5079.6	
803.34	3269.2	
803.52	2951.1	
803.69	5541.1	
803.87	4212.7	
804.04	3285.6	
804.21	3308.2	
804.39	5233.2	
804.56	4459.8	
804.74	2811.9	
804.91	3391.4	
805.09	4381.3	
805.26	4495.3	
805.44	2891	
805.61	3105.4	
805.78	4884.4	
805.96	4810	
806.13	3386.7	
806.31	3618.8	
806.48	4042	
806.66	4422.2	
806.83	3375.1	
807	3278.1	
807.18	4410	
807.35	4668.7	
807.53	3261	
807.7	2768.2	
807.87	5276.9	
808.05	4383.3	
808.22	3571.7	
808.4	2710.8	
808.57	4402.5	
808.74	4122.6	
808.92	3088.3	
809.09	3827.7	
809.27	4377.9	
809.44	4735.6	
809.61	2715.6	
809.79	2990	
809.96	5261.2	
810.14	4909.7	
810.31	2714.2	
810.48	3241.3	
810.66	4428.4	
810.83	5014.8	
811.01	3013.2	
811.18	3325.9	
811.35	4960.9	
811.53	3941	
811.7	3650.8	
811.87	3411.2	
812.05	4471.4	
812.22	4328	
812.39	2967.5	
812.57	2902	
812.74	4489.8	
812.92	5625.1	
813.09	3255.6	
813.26	3369.6	
813.44	5433.9	
813.61	4296.6	
813.78	2713.6	
813.96	3532.1	
814.13	4394.3	
814.3	4175.8	
814.48	3788.7	
814.65	3209.8	
814.82	5210.7	
815	4175.1	
815.17	3269.2	
815.34	3916.4	
815.52	4377.2	
815.69	4363.5	
815.87	3180.5	
816.04	3185.3	
816.21	4379.9	
816.38	4028.4	
816.56	3151.1	
816.73	2934.1	
816.9	5404.6	
817.08	4969.7	
817.25	3002.3	
817.42	3672	
817.6	4165.6	
817.77	4367.6	
817.94	3358	
818.12	2912.9	
818.29	4247.5	
818.46	6087.2	
818.64	3118.4	
818.81	2908.8	
818.98	4227.7	
819.16	5752.7	
819.33	3446.7	
819.5	3242.6	
819.67	4687.1	
819.85	5192.3	
820.02	3183.2	
820.19	3339.6	
820.37	4572.4	
820.54	4359.4	
820.71	3285.6	
820.88	4055.7	
821.06	4603.2	
821.23	4244.1	
821.4	3348.4	
821.58	3284.3	
821.75	4920.6	
821.92	4518.5	
822.09	2738.8	
822.27	2811.9	
822.44	4405.2	
822.61	4359.4	
822.79	2788	
822.96	4971.1	
823.13	4702.8	
823.3	4207.9	
823.48	3127.9	
823.65	2836.4	
823.82	4928.8	
823.99	4130.1	
824.17	3941.7	
824.34	2885.6	
824.51	5651.7	
824.68	4427.7	
824.86	3002.3	
825.03	3306.1	
825.2	4405.2	
825.37	5163.6	
825.55	2991.4	
825.72	3267.9	
825.89	5564.3	
826.06	5240.8	
826.24	3213.3	
826.41	3213.3	
826.58	5263.3	
826.75	4674.1	
826.92	2614.6	
827.1	2865.1	
827.27	6801.3	
827.44	5561.6	
827.61	3078.1	
827.79	3619.4	
827.96	4332.1	
828.13	4418.8	
828.3	3161.4	
828.47	2720.4	
828.65	4695.3	
828.82	4607.9	
828.99	3974.4	
829.16	3454.2	
829.34	4957.4	
829.51	4792.9	
829.68	3228.3	
829.85	3345.7	
830.02	5187.5	
830.2	4960.9	
830.37	2605.7	
830.54	3841.3	
830.71	5467.4	
830.88	4465.3	
831.05	2559.3	
831.23	2993.4	
831.4	5378	
831.57	5786.9	
831.74	3080.8	
831.91	2764.8	
832.09	4787.5	
832.26	4985.4	
832.43	3108.1	
832.6	3472.7	
832.77	4640.7	
832.94	5230.5	
833.12	2523.8	
833.29	3093.1	
833.46	4783.4	
833.63	5948.7	
833.8	3339.6	
833.97	3111.5	
834.15	4993.6	
834.32	4739	
834.49	3282.2	
834.66	3294.5	
834.83	5076.2	
835	4264.6	
835.17	3044	
835.35	3046	
835.52	4890.5	
835.69	4784.7	
835.86	3201	
836.03	2654.9	
836.2	4911.7	
836.37	4647.5	
836.55	3089	
836.72	2969.6	
836.89	4612.7	
837.06	5012.7	
837.23	3128.6	
837.4	3402.4	
837.57	5606.7	
837.75	5909.8	
837.92	2863.7	
838.09	3055.6	
838.26	4671.4	
838.43	5074.2	
838.6	3243.3	
838.77	2945	
838.94	5700.9	
839.11	5512.4	
839.29	3162.7	
839.46	2521	
839.63	4967.7	
839.8	4717.2	
839.97	3031.7	
840.14	2961.4	
840.31	4746.5	
840.48	4955.4	
840.65	2556.5	
840.82	3008.5	
841	4904.9	
841.17	4802.5	
841.34	2839.8	
841.51	2884.9	
841.68	4902.8	
841.85	4650.3	
842.02	2940.9	
842.19	2478	
842.36	4788.2	
842.53	4790.9	
842.7	2833.7	
842.87	3373	
843.05	5948.7	
843.22	4657.8	
843.39	2703.3	
843.56	2982.5	
843.73	4547.9	
843.9	5014.8	
844.07	4418.8	
844.24	3624.9	
844.41	6682.5	
844.58	4343.1	
844.75	2783.9	
844.92	2938.2	
845.09	4940.4	
845.26	4878.9	
845.43	2824.1	
845.6	2983.9	
845.77	4949.9	
845.94	4715.1	
846.12	3143.6	
846.29	3244	
846.46	5139	
846.63	4851.6	
846.8	2777.7	
846.97	3311.6	
847.14	5136.3	
847.31	4833.9	
847.48	3108.8	
847.65	3476.1	
847.82	5057.8	
847.99	5066	
848.16	3664.5	
848.33	3420.8	
848.5	4534.9	
848.67	5235.3	
848.84	2785.2	
849.01	2944.3	
849.18	4542.4	
849.35	4251.6	
849.52	3452.9	
849.69	2770.2	
849.86	5102.9	
850.03	5134.9	
850.2	2836.4	
850.37	3323.9	
850.54	5142.4	
850.71	4654.4	
850.88	3315	
851.05	2770.2	
851.22	4803.2	
851.39	5312.4	
851.56	2652.1	
851.73	3153.2	
851.9	4363.5	
852.07	5044.8	
852.24	3114.3	
852.41	2742.2	
852.58	4844.8	
852.75	4449.6	
852.92	3098.6	
853.09	2710.1	
853.26	4556	
853.43	5180.7	
853.6	2835.1	
853.77	2450.1	
853.94	5266.7	
854.11	4341.7	
854.28	3945.8	
854.44	3052.2	
854.61	5554.1	
854.78	5124	
854.95	2759.3	
855.12	3436.5	
855.29	4089.1	
855.46	5410.1	
855.63	2854.2	
855.8	3794.2	
855.97	4578.6	
856.14	5169.8	
856.31	3818.1	
856.48	3059.7	
856.65	4582.7	
856.82	4327.4	
856.99	2673.3	
857.16	3005.7	
857.33	5846.3	
857.49	4650.3	
857.66	2951.8	
857.83	3149.1	
858	4657.1	
858.17	4802.5	
858.34	2671.9	
858.51	2800.9	
858.68	5378	
858.85	5339.7	
859.02	3246.7	
859.19	3358	
859.36	4420.9	
859.52	4375.1	
859.69	2816.6	
859.86	3265.1	
860.03	4407.2	
860.2	5279.7	
860.37	2547	
860.54	2809.1	
860.71	5047.6	
860.88	5348.6	
861.05	3116.3	
861.21	3454.2	
861.38	5375.2	
861.55	4222.9	
861.72	2628.9	
861.89	3083.6	
862.06	5104.2	
862.23	5423.7	
862.4	2708.8	
862.56	2884.2	
862.73	4979.3	
862.9	4784.7	
863.07	3224.9	
863.24	2628.2	
863.41	4297.3	
863.58	4424.3	
863.75	2820.1	
863.91	3202.3	
864.08	5274.2	
864.25	5024.3	
864.42	3428.3	
864.59	3833.8	
864.76	5554.8	
864.93	4357.4	
865.09	2716.3	
865.26	2983.2	
865.43	5270.1	
865.6	5550.7	
865.77	2532	
865.94	2796.8	
866.1	5296.7	
866.27	5006.6	
866.44	4123.2	
866.61	2658.3	
866.78	4659.1	
866.95	5005.2	
867.11	2767.5	
867.28	2519.7	
867.45	5154.7	
867.62	4405.2	
867.79	3170.9	
867.96	2816	
868.12	4341	
868.29	5016.8	
868.46	2835.1	
868.63	3601	
868.8	5129.5	
868.97	5059.2	
869.13	2959.3	
869.3	2913.6	
869.47	4889.2	
869.64	5158.2	
869.81	2803	
869.97	2839.2	
870.14	4811.4	
870.31	5395	
870.48	2795.5	
870.65	3433.8	
870.81	4625	
870.98	4677.6	
871.15	3127.2	
871.32	2938.2	
871.48	4980	
871.65	5393	
871.82	2782.5	
871.99	3091.8	
872.16	5661.3	
872.32	5187.5	
872.49	2836.4	
872.66	2842.6	
872.83	5084.4	
872.99	4483.7	
873.16	3179.8	
873.33	2792.7	
873.5	4748.6	
873.67	4819.6	
873.83	2942.2	
874	3637.2	
874.17	4904.2	
874.34	5537	
874.5	3528	
874.67	3406.5	
874.84	5300.1	
875.01	4248.9	
875.17	3804.4	
875.34	2778.4	
875.51	4816.8	
875.68	5695.4	
875.84	3315	
876.01	3935.5	
876.18	5029.8	
876.34	4952	
876.51	2779.8	
876.68	2780.5	
876.85	4622.3	
877.01	5291.3	
877.18	3824.9	
877.35	2755.2	
877.52	4868	
877.68	4330.8	
877.85	2785.9	
878.02	2736.8	
878.18	4608.6	
878.35	4540.3	
878.52	2300.6	
878.69	3102	
878.85	5138.4	
879.02	5048.9	
879.19	3880.2	
879.35	2986.6	
879.52	5040.7	
879.69	5104.9	
879.86	2475.3	
880.02	3102	
880.19	4742.4	
880.36	5608.7	
880.52	3127.9	
880.69	3281.5	
880.86	5118.6	
881.02	5124	
881.19	3048.7	
881.36	2975.7	
881.52	4953.4	
881.69	4464.6	
881.86	2973.7	
882.02	2954.5	
882.19	5216.9	
882.36	5969.8	
882.52	2886.3	
882.69	3853.6	
882.86	4827.1	
883.02	4795.7	
883.19	3342.3	
883.36	3157.3	
883.52	5089.2	
883.69	5705	
883.86	2835.8	
884.02	2592.7	
884.19	4997.7	
884.36	4733.5	
884.52	3123.8	
884.69	2964.8	
884.86	4558.1	
885.02	5480.4	
885.19	3128.6	
885.36	3160.7	
885.52	4729.4	
885.69	4884.4	
885.86	3910.9	
886.02	3505.4	
886.19	5104.2	
886.35	4561.5	
886.52	3132	
886.69	3818.1	
886.85	4353.3	
887.02	5293.3	
887.19	5293.3	
887.35	5293.3	
887.52	5293.3	
887.68	5293.3	
887.85	5293.3	
888.02	5293.3	
888.18	5293.3	
888.35	5293.3	
888.51	5293.3	
888.68	5293.3	
888.85	5293.3	
889.01	5293.3	
889.18	5293.3	
889.35	5293.3	
889.51	5293.3	
889.68	5293.3	
889.84	5293.3	
890.01	5293.3	
890.17	5293.3	
890.34	5293.3	
890.51	5293.3	
890.67	5293.3	
890.84	5293.3	
891	5293.3	
891.17	5293.3	
891.34	5293.3	
891.5	5293.3	
891.67	5293.3	
891.83	5293.3	
892	5293.3	
892.16	5293.3	
892.33	5293.3	
892.5	5293.3	
892.66	5293.3	
892.83	5293.3	
892.99	5293.3	
893.16	5293.3	
893.32	5293.3	
893.49	5293.3	
893.65	5293.3	
893.82	5293.3	
893.99	5293.3	
894.15	5293.3	
894.32	5293.3	
894.48	5293.3	
894.65	5293.3	
894.81	5293.3	
894.98	5293.3	
895.14	5293.3	
895.31	5293.3	
895.47	5293.3	
895.64	5293.3	
895.81	5293.3	
895.97	5293.3	
896.14	5293.3	
896.3	5293.3	
896.47	5293.3	
896.63	5293.3	
896.8	5293.3	
896.96	5293.3	
897.13	5293.3	
897.29	5293.3	
897.46	5293.3	
897.62	5293.3	
897.79	5293.3	
897.95	5293.3	
898.12	5293.3	
898.28	5293.3	
898.45	5293.3	
898.61	5293.3	
898.78	5293.3	
898.94	5293.3	
899.11	5293.3	
899.27	5293.3	
899.44	5293.3	
899.6	5293.3	
899.77	5293.3	
899.93	5293.3	
900.1	5293.3	
900.26	5293.3	
900.43	5293.3	
900.59	5293.3	
900.76	5293.3	
900.92	5293.3	
901.09	5293.3	
901.25	5293.3	
901.42	5293.3	
901.58	5293.3	
901.75	5293.3	
901.91	5293.3	
902.07	5293.3	
902.24	5293.3	
902.4	5293.3	
902.57	5293.3	
902.73	5293.3	
902.9	5293.3	
903.06	5293.3	
903.23	5293.3	
903.39	5293.3	
903.56	5293.3	
903.72	5293.3	
903.88	5293.3	
904.05	5293.3	
904.21	5293.3	
904.38	5293.3	
904.54	5293.3	
904.71	5293.3	
904.87	5293.3	
905.03	5293.3	
905.2	5293.3	
905.36	5293.3	
905.53	5293.3	
905.69	5293.3	
905.86	5293.3	
906.02	5293.3	
906.18	5293.3	
906.35	5293.3	
906.51	5293.3	
906.68	5293.3	
906.84	5293.3	
907.01	5293.3	
907.17	5293.3	
907.33	5293.3	
907.5	5293.3	
907.66	5293.3	
907.83	5293.3	
907.99	5293.3	
908.15	5293.3	
908.32	5293.3	
908.48	5293.3	
908.65	5293.3	
908.81	5293.3	
908.97	5293.3	
909.14	5293.3	
909.3	5293.3	
909.47	5293.3	
909.63	5293.3	
909.79	5293.3	
909.96	5293.3	
910.12	5293.3	
910.28	5293.3	
910.45	5293.3	
910.61	5293.3	
910.78	5293.3	
910.94	5293.3	
911.1	5293.3	
911.27	5293.3	
911.43	5293.3	
911.59	5293.3	
911.76	5293.3	
911.92	5293.3	
912.08	5293.3	
912.25	5293.3	
912.41	5293.3	
912.57	5293.3	
912.74	5293.3	
912.9	5293.3	
913.07	5293.3	
913.23	5293.3	
913.39	5293.3	
913.56	5293.3	
913.72	5293.3	
913.88	5293.3	
914.05	5293.3	
914.21	5293.3	
914.37	5293.3	
914.54	5293.3	
914.7	5293.3	
914.86	5293.3	
915.03	5293.3	
915.19	5293.3	
