Wavelength	Intensities	
nm	a.u.	
179.22	1884.8	
179.44	1882.8	
179.65	1886.9	
179.86	1878.7	
180.08	1900.5	
180.29	4784.7	
180.51	3497.9	
180.72	5523.4	
180.94	6498.2	
181.15	3153.2	
181.37	3153.9	
181.58	5446.2	
181.79	5722	
182.01	3301.3	
182.22	3561.4	
182.44	5739.8	
182.65	4771.1	
182.87	4440.7	
183.08	3857.7	
183.29	5950.7	
183.51	4890.5	
183.72	3575.1	
183.94	5218.9	
184.15	5313.8	
184.37	5314.5	
184.58	3144.3	
184.79	4358.1	
185.01	4964.3	
185.22	5692	
185.44	4549.2	
185.65	3844.7	
185.86	5225.1	
186.08	4870.1	
186.29	3127.2	
186.51	3348.4	
186.72	5012.1	
186.94	5829.2	
187.15	3819.5	
187.36	3958	
187.58	7598.6	
187.79	5455.8	
188.01	4134.8	
188.22	6415.6	
188.43	6530.3	
188.65	5696.8	
188.86	3325.2	
189.08	3943	
189.29	5150	
189.5	5147.9	
189.72	3708.9	
189.93	3740.3	
190.15	5878.4	
190.36	7044.3	
190.57	4056.3	
190.79	3925.3	
191	5904.3	
191.22	5868.1	
191.43	4104.1	
191.64	3332	
191.86	6233.3	
192.07	5940.5	
192.29	3454.9	
192.5	3652.2	
192.71	5898.8	
192.93	5089.9	
193.14	3682.2	
193.35	3730.7	
193.57	5150.6	
193.78	5910.4	
194	2968.9	
194.21	3581.2	
194.42	4877.6	
194.64	5419.6	
194.85	3946.4	
195.07	4616.1	
195.28	5368.4	
195.49	4696.7	
195.71	4865.3	
195.92	3422.2	
196.13	5572.5	
196.35	5678.3	
196.56	5221	
196.78	3968.3	
196.99	6970.6	
197.2	6466.1	
197.42	4509.6	
197.63	4033.1	
197.84	4795.7	
198.06	5532.2	
198.27	3662.5	
198.48	4914.4	
198.7	5100.1	
198.91	5251.7	
199.13	3915	
199.34	3903.4	
199.55	5759.6	
199.77	4681	
199.98	3515.7	
200.19	4061.8	
200.41	5253	
200.62	4965.6	
200.83	4169.7	
201.05	4437.9	
201.26	5263.3	
201.47	4997.7	
201.69	3530.7	
201.9	3438.5	
202.11	5363.6	
202.33	6309.1	
202.54	3756	
202.76	4201.1	
202.97	5408.7	
203.18	5437.4	
203.4	4117.8	
203.61	4061.1	
203.82	5467.4	
204.04	5042.1	
204.25	4036.5	
204.46	3946.4	
204.68	5372.5	
204.89	5597.1	
205.1	3905.5	
205.32	3353.2	
205.53	5787.6	
205.74	5869.5	
205.96	2862.4	
206.17	4085	
206.38	5655.1	
206.6	5838.8	
206.81	4524.6	
207.02	3716.4	
207.24	5586.9	
207.45	5969.8	
207.66	3835.2	
207.88	3218.7	
208.09	5544.5	
208.3	5373.9	
208.52	3497.2	
208.73	3799	
208.94	5352.7	
209.15	6018.3	
209.37	3824.2	
209.58	4029.7	
209.79	5831.2	
210.01	5227.8	
210.22	3043.3	
210.43	3183.9	
210.65	5356.1	
210.86	5733.6	
211.07	3814	
211.29	3432.4	
211.5	5660.6	
211.71	5312.4	
211.93	3528.7	
212.14	3496.6	
212.35	5292.6	
212.56	5531.6	
212.78	4009.2	
212.99	3325.2	
213.2	6302.3	
213.42	5116.5	
213.63	3626.3	
213.84	3889.1	
214.06	4720.6	
214.27	4810	
214.48	3839.3	
214.69	4001	
214.91	6002.6	
215.12	6108.4	
215.33	4090.5	
215.55	4485.7	
215.76	6582.2	
215.97	5691.3	
216.18	3988.1	
216.4	3884.3	
216.61	5057.1	
216.82	5847	
217.04	3566.2	
217.25	3681.6	
217.46	5984.8	
217.67	5746.6	
217.89	3168.2	
218.1	3241.9	
218.31	5412.1	
218.53	5492	
218.74	3613.3	
218.95	3537.5	
219.16	5368.4	
219.38	6217	
219.59	3564.8	
219.8	4261.8	
220.01	6935.8	
220.23	5387.5	
220.44	4659.8	
220.65	3444	
220.87	5393	
221.08	6032	
221.29	3224.2	
221.5	4377.9	
221.72	7311.2	
221.93	5029.1	
222.14	4013.3	
222.35	4736.3	
222.57	5426.4	
222.78	5720.7	
222.99	3808.5	
223.2	4061.1	
223.42	5616.2	
223.63	5740.5	
223.84	2973	
224.05	2942.2	
224.27	6813.6	
224.48	6265.4	
224.69	4702.1	
224.9	4023.6	
225.12	5558.2	
225.33	5291.3	
225.54	3243.3	
225.75	3607.2	
225.97	4944.5	
226.18	5187.5	
226.39	3856.3	
226.6	3569.6	
226.82	5137.7	
227.03	4991.6	
227.24	3942.3	
227.45	3326.6	
227.67	5720.7	
227.88	6244.3	
228.09	4451.6	
228.3	4378.6	
228.52	5728.2	
228.73	5305.6	
228.94	3680.9	
229.15	3269.2	
229.36	5259.9	
229.58	5168.4	
229.79	3747.8	
230	4319.8	
230.21	6389.7	
230.43	5423.7	
230.64	3973.1	
230.85	4182	
231.06	5812.1	
231.28	5754.8	
231.49	3324.5	
231.7	3917.8	
231.91	5700.9	
232.12	5354.1	
232.34	3400.3	
232.55	3851.5	
232.76	5967.1	
232.97	5547.3	
233.18	3491.1	
233.4	3962.1	
233.61	5578	
233.82	5148.6	
234.03	3665.2	
234.25	3642.7	
234.46	7352.2	
234.67	5475.6	
234.88	4071.4	
235.09	3578.5	
235.31	5674.2	
235.52	5227.8	
235.73	3926	
235.94	3374.4	
236.15	5048.2	
236.37	6511.9	
236.58	3535.5	
236.79	3882.9	
237	5689.9	
237.21	4896	
237.43	4149.2	
237.64	3209.2	
237.85	9573.6	
238.06	4939.7	
238.27	4214.7	
238.48	3325.2	
238.7	5661.3	
238.91	5186.8	
239.12	3781.9	
239.33	3906.8	
239.54	4947.2	
239.76	5268.1	
239.97	3806.5	
240.18	3823.6	
240.39	6675.7	
240.6	5618.3	
240.82	3889.8	
241.03	3236.5	
241.24	5373.2	
241.45	6219	
241.66	3487.7	
241.87	4169	
242.09	6061.3	
242.3	6426.5	
242.51	4148.5	
242.72	3837.9	
242.93	5831.2	
243.14	5244.8	
243.36	4408.6	
243.57	4766.3	
243.78	6237.4	
243.99	5655.8	
244.2	3860.4	
244.41	3491.1	
244.63	4909	
244.84	5690.6	
245.05	4160.8	
245.26	3818.1	
245.47	5625.8	
245.68	5886.5	
245.9	5046.9	
246.11	3956	
246.32	5155.4	
246.53	5572.5	
246.74	6197.2	
246.95	3246	
247.16	4829.8	
247.38	5352	
247.59	3173	
247.8	3880.9	
248.01	5018.9	
248.22	5309	
248.43	3477.5	
248.64	3771	
248.86	4780	
249.07	5106.3	
249.28	3383.2	
249.49	3934.8	
249.7	5854.5	
249.91	6078.4	
250.12	3196.2	
250.34	3274	
250.55	5493.3	
250.76	5353.4	
250.97	4012.7	
251.18	3997.6	
251.39	6063.4	
251.6	5533.6	
251.81	4067.9	
252.03	3984	
252.24	5063.9	
252.45	5855.1	
252.66	3332.7	
252.87	4260.5	
253.08	5393	
253.29	7035.5	
253.5	3363.4	
253.72	4675.5	
253.93	5184.8	
254.14	6364.4	
254.35	3639.2	
254.56	3779.9	
254.77	5537.7	
254.98	4935.6	
255.19	3601.7	
255.41	4637.3	
255.62	5470.1	
255.83	5976.7	
256.04	4177.9	
256.25	4014	
256.46	6597.9	
256.67	5063.3	
256.88	3956.7	
257.09	4336.9	
257.31	5057.8	
257.52	5088.5	
257.73	4912.4	
257.94	3611.3	
258.15	5232.6	
258.36	5385.5	
258.57	4619.5	
258.78	2932	
258.99	5840.1	
259.2	5254.4	
259.41	3673.4	
259.63	3788.7	
259.84	6131.6	
260.05	6649.1	
260.26	4859.1	
260.47	3535.5	
260.68	5943.9	
260.89	5285.8	
261.1	4443.4	
261.31	3459	
261.52	5941.2	
261.73	6353.5	
261.95	4719.9	
262.16	4108.2	
262.37	6058.6	
262.58	6209.4	
262.79	4730.1	
263	3780.6	
263.21	5431.2	
263.42	4814.1	
263.63	3756.7	
263.84	3678.8	
264.05	5939.8	
264.26	6307.7	
264.47	4518.5	
264.69	4199	
264.9	6075.6	
265.11	5524.7	
265.32	3573	
265.53	3638.6	
265.74	5453.7	
265.95	4764.3	
266.16	3913.7	
266.37	4370.4	
266.58	5465.3	
266.79	5145.2	
267	3621.5	
267.21	3345	
267.42	4957.4	
267.63	5322	
267.84	3736.9	
268.06	3276.8	
268.27	5859.9	
268.48	6098.2	
268.69	3768.9	
268.9	4463.2	
269.11	6077.7	
269.32	4827.1	
269.53	3840.6	
269.74	3574.4	
269.95	5685.8	
270.16	4769.7	
270.37	3837.9	
270.58	4422.9	
270.79	5234.6	
271	5905	
271.21	4095.9	
271.42	3902.7	
271.63	5557.5	
271.84	5001.1	
272.05	3042.6	
272.26	3379.8	
272.47	5381.4	
272.68	5616.9	
272.89	3689.8	
273.11	4334.2	
273.32	5185.5	
273.53	6281.8	
273.74	4133.5	
273.95	4068.6	
274.16	5950	
274.37	5449	
274.58	4241.3	
274.79	3340.2	
275	5499.5	
275.21	6025.8	
275.42	4990.9	
275.63	4349.9	
275.84	5677	
276.05	7105.1	
276.26	4031.1	
276.47	3827	
276.68	5187.5	
276.89	6362.4	
277.1	4289.8	
277.31	3420.8	
277.52	5645.6	
277.73	5763.7	
277.94	3332	
278.15	3715.7	
278.36	5578	
278.57	5011.4	
278.78	3633.8	
278.99	4126.7	
279.2	5048.9	
279.41	4968.4	
279.62	4830.5	
279.83	3470.6	
280.04	6539.2	
280.25	4894	
280.46	4791.6	
280.67	3820.8	
280.88	4919.2	
281.09	5991.7	
281.3	4022.9	
281.51	5096	
281.72	5083.7	
281.93	5852.4	
282.14	3603.1	
282.35	3925.3	
282.56	5816.9	
282.77	5814.9	
282.98	3730.7	
283.19	4549.9	
283.4	7155.6	
283.61	5315.2	
283.82	3403.7	
284.03	4655	
284.24	5474.9	
284.45	5998.5	
284.66	4691.9	
284.87	4541	
285.08	5931.6	
285.29	6104.3	
285.5	3296.5	
285.71	3745.1	
285.92	5896.8	
286.12	6606.1	
286.33	4741.7	
286.54	3728	
286.75	5836	
286.96	5272.2	
287.17	3448.1	
287.38	4624.3	
287.59	5001.1	
287.8	4958.1	
288.01	3788.7	
288.22	4317.8	
288.43	5842.9	
288.64	4891.2	
288.85	4505.5	
289.06	4212.7	
289.27	5775.3	
289.48	6275.7	
289.69	4732.2	
289.9	4300.1	
290.11	6004.6	
290.32	5084.4	
290.53	4575.8	
290.74	4188.1	
290.94	5821	
291.15	5875.6	
291.36	3673.4	
291.57	4288.4	
291.78	5122	
291.99	4776.5	
292.2	3473.4	
292.41	4201.7	
292.62	5950	
292.83	5667.4	
293.04	5201.2	
293.25	3470.6	
293.46	5160.2	
293.67	5922.7	
293.88	3685.7	
294.09	3525.9	
294.29	4954	
294.5	5504.3	
294.71	3883.6	
294.92	3648.1	
295.13	5150.6	
295.34	6388.3	
295.55	3232.4	
295.76	3336.1	
295.97	5793	
296.18	6532.3	
296.39	3427.6	
296.6	3604.4	
296.81	5429.8	
297.01	5793	
297.22	3763.5	
297.43	3579.2	
297.64	5020.3	
297.85	5035.3	
298.06	2984.6	
298.27	3247.4	
298.48	5427.1	
298.69	5079.6	
298.9	3924.6	
299.11	3527.3	
299.31	4887.8	
299.52	4915.1	
299.73	4183.3	
299.94	4080.2	
300.15	5356.1	
300.36	5005.2	
300.57	4150.5	
300.78	4040.6	
300.99	5228.5	
301.2	5498.8	
301.4	3569.6	
301.61	3902.7	
301.82	5684.5	
302.03	5781.4	
302.24	4371.7	
302.45	3432.4	
302.66	5699.5	
302.87	6079.1	
303.08	3611.3	
303.29	4922.6	
303.49	5147.9	
303.7	5362.3	
303.91	3185.3	
304.12	4715.1	
304.33	4852.3	
304.54	5484.5	
304.75	3605.8	
304.96	3406.5	
305.16	5693.4	
305.37	6367.8	
305.58	3146.4	
305.79	3249.4	
306	5683.8	
306.21	4759.5	
306.42	3543.7	
306.63	5534.3	
306.83	5195	
307.04	5967.1	
307.25	4009.2	
307.46	3941.7	
307.67	4652.3	
307.88	5772.5	
308.09	3492.5	
308.29	3706.8	
308.5	5404.6	
308.71	5965.1	
308.92	3857.7	
309.13	3476.8	
309.34	5226.4	
309.55	5320.6	
309.75	4442	
309.96	4128	
310.17	5767.1	
310.38	5043.5	
310.59	4328.7	
310.8	3387.3	
311.01	5218.2	
311.21	5283.8	
311.42	3442	
311.63	3516.4	
311.84	5132.2	
312.05	5431.2	
312.26	4012	
312.46	4392.2	
312.67	5175.9	
312.88	4898.7	
313.09	3490.4	
313.3	3403	
313.51	6197.8	
313.71	6492.7	
313.92	3485	
314.13	3677.5	
314.34	5520.6	
314.55	5272.2	
314.76	4505.5	
314.96	3885	
315.17	5418.9	
315.38	5819	
315.59	3519.1	
315.8	3372.3	
316.01	6171.2	
316.21	6253.1	
316.42	3364.8	
316.63	3886.4	
316.84	5218.9	
317.05	5999.9	
317.26	4050.9	
317.46	3697.9	
317.67	5324	
317.88	5728.2	
318.09	4421.6	
318.3	3302	
318.5	5133.6	
318.71	5640.1	
318.92	5645.6	
319.13	4111	
319.34	5814.9	
319.54	6021	
319.75	3196.2	
319.96	3103.4	
320.17	5718.6	
320.38	5954.8	
320.58	3154.6	
320.79	3835.8	
321	5928.9	
321.21	6042.9	
321.42	3849.5	
321.62	3184.6	
321.83	4997	
322.04	5378	
322.25	3679.5	
322.46	3523.2	
322.66	5551.4	
322.87	5678.3	
323.08	4343.7	
323.29	3430.3	
323.5	6380.1	
323.7	4941.7	
323.91	4743.8	
324.12	4277.5	
324.33	5456.5	
324.53	5674.9	
324.74	4044.1	
324.95	4292.5	
325.16	4749.9	
325.37	5158.2	
325.57	3488.4	
325.78	3572.3	
325.99	5431.9	
326.2	4871.4	
326.4	4980	
326.61	3185.3	
326.82	5347.9	
327.03	5530.2	
327.24	4986.1	
327.44	4624.3	
327.65	5625.8	
327.86	4586.1	
328.07	4087.1	
328.27	3387.3	
328.48	6064	
328.69	4937.7	
328.9	5011.4	
329.1	3777.1	
329.31	5225.7	
329.52	6150.1	
329.73	3474	
329.93	3923.2	
330.14	5448.3	
330.35	5586.2	
330.56	5713.8	
330.76	4258.4	
330.97	5199.8	
331.18	5513.1	
331.39	3869.3	
331.59	3218.7	
331.8	5983.5	
332.01	6085.2	
332.22	3615.3	
332.42	4105.5	
332.63	5496.7	
332.84	5125.4	
333.05	3896.6	
333.25	3478.1	
333.46	5161.6	
333.67	5444.2	
333.88	3672.7	
334.08	4042	
334.29	7150.8	
334.5	6032.6	
334.7	3399.6	
334.91	4960.2	
335.12	4957.4	
335.33	5797.8	
335.53	3872.7	
335.74	5708.4	
335.95	5155.4	
336.16	5014.8	
336.36	3874.1	
336.57	4487.8	
336.78	4893.3	
336.98	5936.4	
337.19	4793.6	
337.4	3808.5	
337.61	6464.1	
337.81	4914.4	
338.02	3543.7	
338.23	4616.8	
338.43	6161	
338.64	5040.1	
338.85	3519.1	
339.05	4728.1	
339.26	6227.9	
339.47	4829.8	
339.68	3517	
339.88	5172.5	
340.09	5588.9	
340.3	5801.2	
340.5	4063.2	
340.71	3145.7	
340.92	4848.2	
341.13	6105	
341.33	3407.1	
341.54	4102.8	
341.75	5606.7	
341.95	5217.5	
342.16	3936.2	
342.37	4300.7	
342.57	4960.9	
342.78	5363.6	
342.99	4354	
343.19	3181.2	
343.4	5807.4	
343.61	5681.1	
343.81	3721.8	
344.02	3398.9	
344.23	5835.3	
344.43	6183.5	
344.64	4370.4	
344.85	4214.7	
345.06	5614.2	
345.26	5966.4	
345.47	4006.5	
345.68	4752	
345.88	4759.5	
346.09	5808	
346.3	4152.6	
346.5	3181.2	
346.71	5323.4	
346.92	5061.2	
347.12	3246.7	
347.33	4055.7	
347.54	5889.3	
347.74	6293.4	
347.95	3999	
348.16	3022.1	
348.36	5182.7	
348.57	5005.9	
348.78	3962.8	
348.98	4302.8	
349.19	5320.6	
349.39	4859.8	
349.6	3224.9	
349.81	3551.9	
350.01	5602.6	
350.22	5051	
350.43	3913	
350.63	4659.8	
350.84	5383.4	
351.05	5190.9	
351.25	3478.8	
351.46	3218	
351.67	5950	
351.87	5106.3	
352.08	3762.1	
352.29	4299.4	
352.49	5776	
352.7	5972.6	
352.9	3389.4	
353.11	4268.6	
353.32	6406.7	
353.52	5181.4	
353.73	3377.8	
353.94	4311	
354.14	5702.9	
354.35	5483.1	
354.55	3467.9	
354.76	3902.7	
354.97	5585.5	
355.17	5394.3	
355.38	3309.5	
355.59	4539.7	
355.79	5051.7	
356	5501.5	
356.2	3843.4	
356.41	3301.3	
356.62	4837.3	
356.82	5300.8	
357.03	4148.5	
357.24	3730.7	
357.44	5061.9	
357.65	5185.5	
357.85	4962.9	
358.06	3990.8	
358.27	4827.7	
358.47	5022.3	
358.68	3197.6	
358.88	4084.3	
359.09	5574.6	
359.3	5977.3	
359.5	4828.4	
359.71	4229.7	
359.91	6382.2	
360.12	5730.9	
360.33	4091.2	
360.53	4567	
360.74	5012.7	
360.94	5147.9	
361.15	4272.7	
361.36	3562.8	
361.56	5845.6	
361.77	5255.1	
361.97	4816.1	
362.18	3784	
362.38	5851.7	
362.59	4954.7	
362.8	3528.7	
363	3358.7	
363.21	4761.5	
363.41	5392.3	
363.62	3934.1	
363.83	4973.8	
364.03	5511.1	
364.24	6442.9	
364.44	5056.4	
364.65	4994.3	
364.85	5194.3	
365.06	5126.7	
365.27	3620.8	
365.47	3676.1	
365.68	6307.7	
365.88	5260.5	
366.09	4060.4	
366.29	3727.3	
366.5	5510.4	
366.71	5949.3	
366.91	5032.5	
367.12	4235.9	
367.32	6474.3	
367.53	5774.6	
367.73	4177.9	
367.94	5079	
368.14	5737.7	
368.35	6625.9	
368.56	4155.3	
368.76	3509.5	
368.97	5863.3	
369.17	7413	
369.38	3659.7	
369.58	3938.9	
369.79	4861.9	
369.99	6161	
370.2	4911	
370.4	4011.3	
370.61	5502.2	
370.82	6698.2	
371.02	3933.5	
371.23	3225.6	
371.43	4797	
371.64	6076.3	
371.84	3893.9	
372.05	5126.1	
372.25	7393.8	
372.46	5914.5	
372.66	3938.9	
372.87	3878.2	
373.07	5934.3	
373.28	7457.3	
373.48	4855.1	
373.69	4627	
373.9	5318.6	
374.1	5390.3	
374.31	4826.4	
374.51	4379.2	
374.72	6137.8	
374.92	4991.6	
375.13	4931.5	
375.33	4177.2	
375.54	5655.1	
375.74	5126.7	
375.95	4281.6	
376.15	5474.2	
376.36	5760.9	
376.56	5599.8	
376.77	4315.8	
376.97	4759.5	
377.18	6798.6	
377.38	5793.7	
377.59	5070.1	
377.79	3863.8	
378	5585.5	
378.2	6044.9	
378.41	3863.8	
378.61	3786	
378.82	6091.3	
379.02	5248.9	
379.23	4070.7	
379.43	5194.3	
379.64	6190.3	
379.84	5742.5	
380.05	3892.5	
380.25	3767.6	
380.46	5889.3	
380.66	5467.4	
380.87	5144.5	
381.07	5557.5	
381.28	6516.6	
381.48	5928.2	
381.69	3938.9	
381.89	3947.1	
382.1	4889.9	
382.3	6024.4	
382.51	4940.4	
382.71	5922	
382.91	5911.1	
383.12	6492.1	
383.32	4282.3	
383.53	4512.4	
383.73	5748.6	
383.94	5585.5	
384.14	4418.8	
384.35	3599.6	
384.55	5459.9	
384.76	5995.1	
384.96	4298	
385.17	4682.3	
385.37	5971.2	
385.58	5231.9	
385.78	4648.2	
385.98	3531.4	
386.19	5401.2	
386.39	5808.7	
386.6	4050.9	
386.8	4257.7	
387.01	5869.5	
387.21	5923.4	
387.42	4682.3	
387.62	5223	
387.83	5220.3	
388.03	5893.4	
388.23	4324.6	
388.44	5130.2	
388.64	4982.7	
388.85	5034.6	
389.05	4625.7	
389.26	5257.8	
389.46	6886.6	
389.67	6327.5	
389.87	4625	
390.07	4777.9	
390.28	5543.2	
390.48	5199.8	
390.69	3951.2	
390.89	4198.3	
391.1	5326.8	
391.3	6260.6	
391.5	5396.4	
391.71	5969.1	
391.91	6058.6	
392.12	6989.7	
392.32	5447.6	
392.53	4699.4	
392.73	5443.5	
392.93	5636	
393.14	4390.2	
393.34	5346.6	
393.55	6072.2	
393.75	5591	
393.95	4504.2	
394.16	4296.6	
394.36	5356.8	
394.57	6038.1	
394.77	3844	
394.98	4312.3	
395.18	5294	
395.38	5388.2	
395.59	5197.1	
395.79	4093.2	
396	5427.1	
396.2	5926.1	
396.4	5069.4	
396.61	4808.6	
396.81	6160.3	
397.02	5373.2	
397.22	5094	
397.42	5193.6	
397.63	6129.6	
397.83	5304.9	
398.04	4095.3	
398.24	4627.7	
398.44	5872.2	
398.65	4956.1	
398.85	3956	
399.05	4117.8	
399.26	5271.5	
399.46	7006.8	
399.67	4390.8	
399.87	4119.8	
400.07	5668.1	
400.28	6043.6	
400.48	4184.7	
400.69	5262.6	
400.89	6695.5	
401.09	6724.2	
401.3	4153.3	
401.5	5276.3	
401.7	6923.5	
401.91	7154.9	
402.11	4447.5	
402.32	4713.7	
402.52	6325.5	
402.72	6220.4	
402.93	4971.8	
403.13	3844	
403.33	7039.6	
403.54	5798.5	
403.74	4648.9	
403.94	5477.6	
404.15	5865.4	
404.35	6980.8	
404.56	4376.5	
404.76	6178.7	
404.96	6169.8	
405.17	6023.1	
405.37	5558.9	
405.57	4841.4	
405.78	6348.7	
405.98	5723.4	
406.18	4449.6	
406.39	5339.7	
406.59	6302.3	
406.79	5930.9	
407	4264.6	
407.2	4341	
407.4	6279.8	
407.61	6509.8	
407.81	4314.4	
408.01	6432	
408.22	5184.1	
408.42	7201.3	
408.62	5307.7	
408.83	4887.1	
409.03	5908.4	
409.23	5731.6	
409.44	4967.7	
409.64	5212.1	
409.84	6769.2	
410.05	6756.9	
410.25	5094	
410.45	4912.4	
410.66	6247.7	
410.86	8621.3	
411.06	5365.7	
411.27	5138.4	
411.47	8447.2	
411.67	6427.2	
411.88	5442.8	
412.08	5677	
412.28	7080.5	
412.49	7557	
412.69	5218.2	
412.89	5257.1	
413.09	7390.4	
413.3	7286.7	
413.5	5367	
413.7	4911.7	
413.91	6472.9	
414.11	7429.3	
414.31	5170.4	
414.52	5684.5	
414.72	7034.1	
414.92	7028.6	
415.12	5165	
415.33	5769.1	
415.53	7447.8	
415.73	7549.5	
415.94	6098.9	
416.14	5531.6	
416.34	6368.5	
416.55	6227.2	
416.75	6722.1	
416.95	6111.1	
417.15	7389.1	
417.36	8204.8	
417.56	6896.9	
417.76	5999.2	
417.97	7866.2	
418.17	7472.4	
418.37	5551.4	
418.57	5678.3	
418.78	7320.1	
418.98	6970.6	
419.18	6584.9	
419.38	6509.8	
419.59	7076.4	
419.79	6561.7	
419.99	5566.4	
420.2	5993	
420.4	7455.3	
420.6	7722.9	
420.8	5412.8	
421.01	5358.9	
421.21	7342.7	
421.41	7560.4	
421.61	5860.6	
421.82	5552.7	
422.02	6911.9	
422.22	7831.4	
422.42	6395.1	
422.63	6140.5	
422.83	7066.9	
423.03	8212.4	
423.23	6141.9	
423.44	5053	
423.64	7091.4	
423.84	6866.2	
424.04	5541.1	
424.25	5191.6	
424.45	8097.7	
424.65	7883.3	
424.85	5027.1	
425.06	5614.2	
425.26	7962.5	
425.46	6504.3	
425.66	6115.2	
425.87	5876.3	
426.07	7785	
426.27	7627.3	
426.47	5920.7	
426.67	5328.1	
426.88	8132.5	
427.08	7569.3	
427.28	6198.5	
427.48	5257.1	
427.69	6494.8	
427.89	7105.1	
428.09	6161.7	
428.29	5297.4	
428.5	7823.9	
428.7	7292.8	
428.9	5259.2	
429.1	5717.2	
429.3	7325.6	
429.51	7726.3	
429.71	5549.3	
429.91	6264.7	
430.11	7628	
430.31	7756.3	
430.52	5808.7	
430.72	6176.7	
430.92	8202.8	
431.12	7608.2	
431.32	5565.7	
431.53	6015.6	
431.73	6589	
431.93	8344.1	
432.13	5447.6	
432.33	5390.3	
432.54	6994.5	
432.74	7407.5	
432.94	5374.6	
433.14	6354.8	
433.34	7586.4	
433.55	7150.1	
433.75	6268.8	
433.95	8058.8	
434.15	7436.9	
434.35	7186.3	
434.56	5558.2	
434.76	5118.6	
434.96	7452.6	
435.16	7670.3	
435.36	5435.3	
435.56	6647.7	
435.77	7238.2	
435.97	7372	
436.17	7214.3	
436.37	6546.7	
436.57	7075	
436.78	7060.7	
436.98	8219.2	
437.18	7169.9	
437.38	7850.5	
437.58	7372	
437.78	7311.2	
437.99	6037.4	
438.19	7968	
438.39	8665	
438.59	5922.7	
438.79	5406	
438.99	8527.1	
439.2	7339.2	
439.4	5431.2	
439.6	5361.6	
439.8	7589.8	
440	8645.8	
440.2	6571.9	
440.4	6602	
440.61	8041	
440.81	8648.6	
441.01	5769.8	
441.21	6754.9	
441.41	8540	
441.61	8172.8	
441.81	7012.2	
442.02	7976.2	
442.22	9065	
442.42	8292.9	
442.62	5937.1	
442.82	6012.2	
443.02	8520.9	
443.22	7712.7	
443.43	6419.7	
443.63	5969.8	
443.83	7551.5	
444.03	7596.6	
444.23	7206.1	
444.43	6786.3	
444.63	7920.9	
444.83	9156.5	
445.04	6142.5	
445.24	7406.1	
445.44	8367.3	
445.64	8488.1	
445.84	6922.8	
446.04	6987	
446.24	7763.2	
446.44	8775.5	
446.65	6124.1	
446.85	6479.1	
447.05	7750.2	
447.25	8680.7	
447.45	6518	
447.65	6001.2	
447.85	8105.2	
448.05	7576.1	
448.25	6996.5	
448.46	6830	
448.66	7993.2	
448.86	7724.3	
449.06	5831.2	
449.26	7003.4	
449.46	8391.2	
449.66	7500.3	
449.86	6615.6	
450.06	6549.4	
450.26	7677.2	
450.47	8273.8	
450.67	6800.6	
450.87	7144.7	
451.07	8314.8	
451.27	8185.7	
451.47	6164.4	
451.67	6753.5	
451.87	7887.4	
452.07	9031.5	
452.27	6523.5	
452.47	6411.5	
452.67	8183.7	
452.88	8676.6	
453.08	5749.3	
453.28	7851.2	
453.48	9401.5	
453.68	8083.3	
453.88	6415.6	
454.08	6563.1	
454.28	8560.5	
454.48	8219.2	
454.68	7210.9	
454.88	7657.4	
455.08	8761.9	
455.28	8512	
455.48	6236.7	
455.68	6922.1	
455.89	9275.3	
456.09	8883.4	
456.29	6685.3	
456.49	6762.4	
456.69	9083.4	
456.89	8310	
457.09	7334.5	
457.29	7573.4	
457.49	8765.3	
457.69	8890.9	
457.89	7197.2	
458.09	6643.6	
458.29	8505.2	
458.49	9347.6	
458.69	7673.7	
458.89	7160.4	
459.09	9672.6	
459.29	9794.1	
459.49	7242.3	
459.69	8017.8	
459.9	9165.3	
460.1	8754.4	
460.3	7141.3	
460.5	6948.8	
460.7	9136	
460.9	8874.5	
461.1	6625.2	
461.3	7863.5	
461.5	9916.9	
461.7	9453.4	
461.9	7126.2	
462.1	7578.2	
462.3	8996	
462.5	9633	
462.7	7322.9	
462.9	7375.4	
463.1	10574	
463.3	10361	
463.5	7533.1	
463.7	8622.6	
463.9	9303.2	
464.1	9739.5	
464.3	7865.6	
464.5	8109.3	
464.7	9997.5	
464.9	9794.8	
465.1	9419.3	
465.3	8535.9	
465.5	10437	
465.7	10385	
465.9	8740.7	
466.1	8519.5	
466.3	10367	
466.5	9991.4	
466.7	9482.1	
466.9	8310.7	
467.1	10167	
467.3	11039	
467.5	9546.9	
467.7	8392.6	
467.9	11432	
468.1	12052	
468.3	9124.4	
468.5	9664.4	
468.7	10116	
468.9	10102	
469.1	8770.8	
469.3	9536.7	
469.5	12175	
469.7	9857.6	
469.9	9179.7	
470.1	8598.7	
470.3	10277	
470.5	10419	
470.7	9923.1	
470.9	8621.9	
471.1	10142	
471.3	10507	
471.5	8517.5	
471.69	10510	
471.89	9926.5	
472.09	9525.1	
472.29	9361.3	
472.49	9726.5	
472.69	9826.2	
472.89	10546	
473.09	8523	
473.29	8525.7	
473.49	9959.3	
473.69	10087	
473.89	9452.1	
474.09	8680	
474.29	11178	
474.49	10886	
474.69	9420	
474.89	8901.2	
475.09	10172	
475.29	10118	
475.49	8298.4	
475.69	8544.1	
475.88	11552	
476.08	10373	
476.28	8308.6	
476.48	8624.7	
476.68	10817	
476.88	10672	
477.08	8527.1	
477.28	8904.6	
477.48	10058	
477.68	10761	
477.88	8398	
478.08	8634.9	
478.28	11148	
478.48	10190	
478.67	8727.8	
478.87	8105.2	
479.07	11186	
479.27	10394	
479.47	8948.3	
479.67	9092.3	
479.87	10804	
480.07	11338	
480.27	8286.1	
480.47	9904.7	
480.67	10393	
480.87	11185	
481.06	8512	
481.26	9456.2	
481.46	10493	
481.66	10366	
481.86	9128.5	
482.06	10129	
482.26	10342	
482.46	11234	
482.66	8997.4	
482.86	8673.8	
483.05	10649	
483.25	10051	
483.45	11516	
483.65	9058.8	
483.85	10234	
484.05	10613	
484.25	9463	
484.45	10117	
484.65	11455	
484.84	11557	
485.04	9014.5	
485.24	9092.3	
485.44	11765	
485.64	10086	
485.84	8480	
486.04	10018	
486.24	10544	
486.44	11016	
486.63	8569.4	
486.83	9346.2	
487.03	10557	
487.23	10851	
487.43	8606.9	
487.63	11015	
487.83	10882	
488.02	11811	
488.22	9823.4	
488.42	10363	
488.62	11750	
488.82	10720	
489.02	9379.7	
489.22	9567.4	
489.41	11678	
489.61	11415	
489.81	9160.6	
490.01	9292.3	
490.21	11725	
490.41	12390	
490.61	9305.3	
490.8	9455.5	
491	11305	
491.2	10589	
491.4	10187	
491.6	9227.5	
491.8	11209	
491.99	11381	
492.19	8923.7	
492.39	9195.4	
492.59	11667	
492.79	11645	
492.99	10006	
493.18	9196.1	
493.38	11774	
493.58	12653	
493.78	10158	
493.98	9802.9	
494.18	11756	
494.37	11272	
494.57	10509	
494.77	10445	
494.97	12134	
495.17	12301	
495.37	10156	
495.56	10499	
495.76	12693	
495.96	12464	
496.16	11512	
496.36	10542	
496.55	12733	
496.75	12288	
496.95	11044	
497.15	10886	
497.35	12676	
497.54	12754	
497.74	10553	
497.94	12319	
498.14	13347	
498.34	13315	
498.53	10350	
498.73	11188	
498.93	12197	
499.13	12826	
499.33	11063	
499.52	11594	
499.72	12956	
499.92	13089	
500.12	10780	
500.32	11185	
500.51	13201	
500.71	13082	
500.91	12094	
501.11	11525	
501.31	13183	
501.5	13506	
501.7	12278	
501.9	11287	
502.1	12930	
502.29	13257	
502.49	11790	
502.69	12213	
502.89	13246	
503.09	13415	
503.28	10805	
503.48	10821	
503.68	12456	
503.88	12432	
504.07	11734	
504.27	11184	
504.47	12741	
504.67	12857	
504.86	11680	
505.06	11477	
505.26	12380	
505.46	14395	
505.65	11234	
505.85	11456	
506.05	12469	
506.25	12868	
506.44	10423	
506.64	11453	
506.84	12262	
507.04	13074	
507.23	10712	
507.43	11209	
507.63	14176	
507.83	12503	
508.02	11220	
508.22	11027	
508.42	14498	
508.62	12366	
508.81	11560	
509.01	11798	
509.21	11990	
509.4	12496	
509.6	11298	
509.8	10703	
510	12306	
510.19	13815	
510.39	10729	
510.59	10869	
510.79	12228	
510.98	13629	
511.18	11052	
511.38	11203	
511.57	13161	
511.77	13104	
511.97	11749	
512.17	10728	
512.36	13128	
512.56	13025	
512.76	10761	
512.95	10565	
513.15	13204	
513.35	11737	
513.55	11625	
513.74	10759	
513.94	13177	
514.14	12544	
514.33	11875	
514.53	11570	
514.73	12572	
514.92	12752	
515.12	11068	
515.32	10972	
515.51	12797	
515.71	13461	
515.91	12743	
516.11	11112	
516.3	14762	
516.5	12600	
516.7	11619	
516.89	12147	
517.09	12749	
517.29	12670	
517.48	11934	
517.68	11332	
517.88	12540	
518.07	13103	
518.27	11806	
518.47	10899	
518.66	13657	
518.86	12353	
519.06	10740	
519.25	11159	
519.45	12582	
519.65	14168	
519.84	11957	
520.04	12666	
520.24	14656	
520.43	13418	
520.63	11690	
520.83	11540	
521.02	12689	
521.22	13328	
521.42	11878	
521.61	12353	
521.81	12594	
522.01	12833	
522.2	11716	
522.4	11320	
522.6	13416	
522.79	12138	
522.99	11536	
523.18	10979	
523.38	13328	
523.58	13249	
523.77	13021	
523.97	11152	
524.17	15309	
524.36	14506	
524.56	12577	
524.76	12382	
524.95	13839	
525.15	13399	
525.34	12280	
525.54	12310	
525.74	14304	
525.93	13273	
526.13	13693	
526.33	12534	
526.52	14731	
526.72	14234	
526.91	13843	
527.11	13192	
527.31	14821	
527.5	15253	
527.7	13007	
527.89	12157	
528.09	13844	
528.29	14544	
528.48	13461	
528.68	13053	
528.87	14847	
529.07	14896	
529.27	13139	
529.46	12725	
529.66	14786	
529.85	15319	
530.05	12790	
530.25	13536	
530.44	16027	
530.64	14588	
530.83	13026	
531.03	13422	
531.23	15012	
531.42	14726	
531.62	14055	
531.81	13174	
532.01	15214	
532.21	15771	
532.4	13154	
532.6	13582	
532.79	16423	
532.99	15702	
533.18	13928	
533.38	14975	
533.58	15461	
533.77	16124	
533.97	14046	
534.16	14777	
534.36	16310	
534.55	15447	
534.75	15030	
534.95	14085	
535.14	16414	
535.34	15653	
535.53	13825	
535.73	15896	
535.92	17129	
536.12	15741	
536.31	14109	
536.51	15058	
536.71	15937	
536.9	15574	
537.1	13796	
537.29	14244	
537.49	16343	
537.68	15354	
537.88	14613	
538.07	13801	
538.27	15697	
538.46	16759	
538.66	13721	
538.86	14201	
539.05	15854	
539.25	16320	
539.44	14812	
539.64	14218	
539.83	15884	
540.03	16908	
540.22	14186	
540.42	14151	
540.61	15921	
540.81	16156	
541	14461	
541.2	15112	
541.39	15388	
541.59	15894	
541.78	14901	
541.98	13842	
542.18	15059	
542.37	15199	
542.57	14338	
542.76	15004	
542.96	15134	
543.15	16017	
543.35	14269	
543.54	13603	
543.74	16025	
543.93	15522	
544.13	14143	
544.32	15141	
544.52	15748	
544.71	14943	
544.91	13252	
545.1	14390	
545.3	15081	
545.49	15778	
545.69	13201	
545.88	13769	
546.08	16852	
546.27	16255	
546.47	14384	
546.66	13544	
546.86	15892	
547.05	16510	
547.24	13771	
547.44	13682	
547.63	14885	
547.83	16291	
548.02	14094	
548.22	14233	
548.41	14806	
548.61	16096	
548.8	13517	
549	13674	
549.19	15452	
549.39	15696	
549.58	13179	
549.78	13781	
549.97	15821	
550.17	15246	
550.36	14683	
550.55	15717	
550.75	15185	
550.94	16137	
551.14	13341	
551.33	13720	
551.53	14415	
551.72	15484	
551.92	13725	
552.11	13439	
552.31	15486	
552.5	15538	
552.69	15205	
552.89	13083	
553.08	15449	
553.28	15218	
553.47	13480	
553.67	14668	
553.86	16054	
554.06	14346	
554.25	12656	
554.44	13418	
554.64	16696	
554.83	16345	
555.03	13334	
555.22	13730	
555.42	15718	
555.61	15379	
555.8	13453	
556	13658	
556.19	14392	
556.39	15767	
556.58	13510	
556.78	13362	
556.97	15177	
557.16	15046	
557.36	14727	
557.55	13165	
557.75	14192	
557.94	16055	
558.13	13292	
558.33	13035	
558.52	15882	
558.72	14691	
558.91	13107	
559.1	13334	
559.3	14451	
559.49	14063	
559.69	12652	
559.88	13762	
560.07	15169	
560.27	15622	
560.46	13832	
560.66	13970	
560.85	14895	
561.04	14057	
561.24	13097	
561.43	13260	
561.63	14225	
561.82	14676	
562.01	14420	
562.21	13502	
562.4	14919	
562.59	16171	
562.79	13501	
562.98	13106	
563.18	15005	
563.37	16548	
563.56	14004	
563.76	13165	
563.95	14797	
564.14	14541	
564.34	13672	
564.53	13211	
564.73	15289	
564.92	15574	
565.11	13736	
565.31	13162	
565.5	15848	
565.69	14771	
565.89	13436	
566.08	13841	
566.27	15686	
566.47	16204	
566.66	14487	
566.85	13106	
567.05	15461	
567.24	14919	
567.44	13556	
567.63	14932	
567.82	15760	
568.02	15576	
568.21	13596	
568.4	13976	
568.6	15448	
568.79	15358	
568.98	13496	
569.18	13682	
569.37	15531	
569.56	17436	
569.76	14130	
569.95	15195	
570.14	16040	
570.34	16023	
570.53	13573	
570.72	13818	
570.91	16574	
571.11	15584	
571.3	14197	
571.49	15111	
571.69	15773	
571.88	15216	
572.07	14918	
572.27	14818	
572.46	15438	
572.65	16361	
572.85	14110	
573.04	14487	
573.23	16586	
573.43	15963	
573.62	13993	
573.81	14508	
574	16005	
574.2	15778	
574.39	14474	
574.58	14502	
574.78	17206	
574.97	16404	
575.16	15092	
575.36	15513	
575.55	16778	
575.74	17048	
575.93	14351	
576.13	15441	
576.32	16199	
576.51	17053	
576.71	14829	
576.9	16218	
577.09	17257	
577.28	16759	
577.48	15233	
577.67	14245	
577.86	16400	
578.05	16828	
578.25	15117	
578.44	15062	
578.63	16633	
578.83	17921	
579.02	14438	
579.21	16204	
579.4	16901	
579.6	16553	
579.79	15349	
579.98	17533	
580.17	17191	
580.37	17348	
580.56	14638	
580.75	15588	
580.94	17535	
581.14	17746	
581.33	15880	
581.52	14955	
581.71	17127	
581.91	17900	
582.1	14767	
582.29	15302	
582.48	16701	
582.68	16851	
582.87	15803	
583.06	15408	
583.25	17167	
583.45	16488	
583.64	16165	
583.83	16923	
584.02	16767	
584.21	17248	
584.41	16135	
584.6	15471	
584.79	17092	
584.98	17961	
585.18	14963	
585.37	15082	
585.56	16652	
585.75	17615	
585.94	15250	
586.14	15918	
586.33	17869	
586.52	17060	
586.71	15724	
586.91	15448	
587.1	16309	
587.29	17129	
587.48	15186	
587.67	15056	
587.87	17075	
588.06	17001	
588.25	16439	
588.44	15557	
588.63	16661	
588.83	17330	
589.02	15154	
589.21	14815	
589.4	16339	
589.59	16316	
589.78	14093	
589.98	14200	
590.17	15653	
590.36	16136	
590.55	13298	
590.74	13775	
590.94	17056	
591.13	15372	
591.32	13279	
591.51	12966	
591.7	15816	
591.89	15390	
592.09	13217	
592.28	13765	
592.47	14799	
592.66	16861	
592.85	13452	
593.05	13741	
593.24	15488	
593.43	16248	
593.62	13840	
593.81	14282	
594	15585	
594.19	15789	
594.39	13769	
594.58	13608	
594.77	15884	
594.96	16535	
595.15	13611	
595.34	14326	
595.54	15819	
595.73	15023	
595.92	12761	
596.11	13962	
596.3	16113	
596.49	14891	
596.68	13579	
596.88	14034	
597.07	15776	
597.26	14734	
597.45	13310	
597.64	14395	
597.83	15071	
598.02	15648	
598.22	13364	
598.41	13938	
598.6	15432	
598.79	14822	
598.98	13362	
599.17	14393	
599.36	15416	
599.55	16562	
599.74	15357	
599.94	15201	
600.13	15915	
600.32	14732	
600.51	12968	
600.7	13257	
600.89	16565	
601.08	16645	
601.27	12962	
601.47	13924	
601.66	15788	
601.85	16457	
602.04	13708	
602.23	13839	
602.42	14773	
602.61	15396	
602.8	13433	
602.99	13301	
603.18	15175	
603.37	15403	
603.57	13813	
603.76	14288	
603.95	16063	
604.14	15626	
604.33	13278	
604.52	13685	
604.71	15382	
604.9	14969	
605.09	14481	
605.28	14233	
605.47	16002	
605.66	15703	
605.86	13979	
606.05	13482	
606.24	16047	
606.43	14619	
606.62	13808	
606.81	14472	
607	15697	
607.19	15075	
607.38	13014	
607.57	13340	
607.76	14808	
607.95	14330	
608.14	13672	
608.33	14417	
608.52	14857	
608.72	15736	
608.91	12993	
609.1	12947	
609.29	14901	
609.48	14463	
609.67	13848	
609.86	12819	
610.05	14530	
610.24	14885	
610.43	12802	
610.62	12458	
610.81	15772	
611	15702	
611.19	12942	
611.38	13680	
611.57	15096	
611.76	16440	
611.95	12682	
612.14	12539	
612.33	14829	
612.52	14455	
612.71	13366	
612.9	12450	
613.09	14136	
613.28	16492	
613.47	12917	
613.66	13987	
613.85	15254	
614.04	14538	
614.24	13136	
614.43	12262	
614.62	15165	
614.81	15051	
615	13500	
615.19	13602	
615.38	14410	
615.57	14930	
615.76	13575	
615.95	14580	
616.14	15354	
616.33	15009	
616.52	13823	
616.71	14101	
616.9	15195	
617.09	15152	
617.28	13161	
617.47	14339	
617.66	14310	
617.85	14313	
618.04	14227	
618.22	13661	
618.41	14913	
618.6	15946	
618.79	13672	
618.98	13461	
619.17	16404	
619.36	14627	
619.55	13775	
619.74	13649	
619.93	15522	
620.12	15140	
620.31	14503	
620.5	14587	
620.69	16319	
620.88	16713	
621.07	15414	
621.26	14544	
621.45	16005	
621.64	16035	
621.83	14738	
622.02	13870	
622.21	16018	
622.4	15932	
622.59	15222	
622.78	15072	
622.97	15562	
623.16	16592	
623.35	14618	
623.54	13749	
623.72	15794	
623.91	15977	
624.1	15057	
624.29	13643	
624.48	17086	
624.67	16201	
624.86	14906	
625.05	13893	
625.24	17073	
625.43	15547	
625.62	16563	
625.81	14222	
626	16516	
626.19	16008	
626.38	15021	
626.56	14351	
626.75	15769	
626.94	16622	
627.13	15086	
627.32	13819	
627.51	16421	
627.7	17797	
627.89	13958	
628.08	15131	
628.27	15559	
628.46	15751	
628.65	14083	
628.83	13793	
629.02	16313	
629.21	15679	
629.4	14617	
629.59	14754	
629.78	15763	
629.97	16524	
630.16	14944	
630.35	14401	
630.54	17014	
630.72	16579	
630.91	14233	
631.1	14782	
631.29	16135	
631.48	16266	
631.67	15016	
631.86	14289	
632.05	15797	
632.24	15787	
632.42	13946	
632.61	14628	
632.8	15803	
632.99	15539	
633.18	14646	
633.37	14977	
633.56	16027	
633.75	15974	
633.93	14666	
634.12	14237	
634.31	16716	
634.5	16538	
634.69	14320	
634.88	14766	
635.07	15851	
635.25	16440	
635.44	15159	
635.63	15398	
635.82	15640	
636.01	15101	
636.2	15012	
636.39	14650	
636.57	16653	
636.76	16313	
636.95	13895	
637.14	15293	
637.33	16097	
637.52	17103	
637.7	13661	
637.89	14829	
638.08	15760	
638.27	17109	
638.46	14950	
638.65	15192	
638.83	17101	
639.02	15537	
639.21	14668	
639.4	15023	
639.59	15836	
639.78	15451	
639.96	13809	
640.15	13863	
640.34	15645	
640.53	15636	
640.72	13438	
640.91	13854	
641.09	14933	
641.28	16392	
641.47	13784	
641.66	14565	
641.85	15737	
642.03	15760	
642.22	14345	
642.41	13815	
642.6	15081	
642.79	14438	
642.97	13538	
643.16	14280	
643.35	14953	
643.54	14788	
643.73	13393	
643.91	14205	
644.1	14440	
644.29	15341	
644.48	13337	
644.67	13428	
644.85	14605	
645.04	15008	
645.23	12777	
645.42	13236	
645.6	14419	
645.79	15466	
645.98	12887	
646.17	11817	
646.36	13732	
646.54	14386	
646.73	13407	
646.92	12396	
647.11	13947	
647.29	15002	
647.48	12359	
647.67	12222	
647.86	15162	
648.05	15289	
648.23	12567	
648.42	13968	
648.61	14577	
648.8	14248	
648.98	12142	
649.17	12462	
649.36	13629	
649.55	13275	
649.73	12099	
649.92	12944	
650.11	13712	
650.3	14140	
650.48	12486	
650.67	12253	
650.86	14435	
651.05	13265	
651.23	12379	
651.42	12184	
651.61	13732	
651.79	13691	
651.98	12409	
652.17	12026	
652.36	14055	
652.54	13203	
652.73	12172	
652.92	11929	
653.11	14143	
653.29	14147	
653.48	11426	
653.67	12459	
653.85	13739	
654.04	14810	
654.23	12394	
654.42	11976	
654.6	13097	
654.79	13767	
654.98	11313	
655.16	11647	
655.35	12427	
655.54	12238	
655.73	10886	
655.91	10640	
656.1	13072	
656.29	11977	
656.47	10378	
656.66	12147	
656.85	12467	
657.03	12620	
657.22	11236	
657.41	11360	
657.59	12898	
657.78	12745	
657.97	11192	
658.16	11934	
658.34	13636	
658.53	14087	
658.72	12774	
658.9	13229	
659.09	13034	
659.28	13185	
659.46	11650	
659.65	11676	
659.84	12960	
660.02	13472	
660.21	11548	
660.4	11507	
660.58	14016	
660.77	13419	
660.96	12098	
661.14	11173	
661.33	14378	
661.52	14315	
661.7	11144	
661.89	14908	
662.08	12876	
662.26	12519	
662.45	11291	
662.64	11373	
662.82	13490	
663.01	12749	
663.2	11439	
663.38	12256	
663.57	13334	
663.75	13330	
663.94	11699	
664.13	13012	
664.31	12744	
664.5	13492	
664.69	11836	
664.87	12536	
665.06	12522	
665.25	13270	
665.43	12760	
665.62	12764	
665.8	13506	
665.99	12870	
666.18	11645	
666.36	11890	
666.55	13448	
666.74	13463	
666.92	11206	
667.11	12893	
667.29	12846	
667.48	13384	
667.67	12546	
667.85	11449	
668.04	12901	
668.22	12897	
668.41	11670	
668.6	11914	
668.78	12692	
668.97	12813	
669.15	11985	
669.34	10981	
669.53	12777	
669.71	13035	
669.9	11099	
670.08	11852	
670.27	12744	
670.46	13165	
670.64	11852	
670.83	12328	
671.01	12559	
671.2	12981	
671.38	11228	
671.57	10960	
671.76	13747	
671.94	14439	
672.13	11110	
672.31	12076	
672.5	13390	
672.69	12616	
672.87	11190	
673.06	11596	
673.24	13162	
673.43	12707	
673.61	11822	
673.8	11518	
673.98	13215	
674.17	13507	
674.36	12038	
674.54	11843	
674.73	12948	
674.91	13302	
675.1	11587	
675.28	11326	
675.47	12803	
675.65	13397	
675.84	11410	
676.03	11783	
676.21	12551	
676.4	12073	
676.58	12217	
676.77	12038	
676.95	14093	
677.14	12486	
677.32	11211	
677.51	10946	
677.69	13300	
677.88	12277	
678.06	11067	
678.25	11094	
678.44	12864	
678.62	12534	
678.81	10726	
678.99	11796	
679.18	13687	
679.36	13336	
679.55	11434	
679.73	12023	
679.92	13120	
680.1	12701	
680.29	12577	
680.47	11441	
680.66	12485	
680.84	13403	
681.03	10711	
681.21	11792	
681.4	12577	
681.58	12356	
681.77	11141	
681.95	11063	
682.14	13459	
682.32	13654	
682.51	12045	
682.69	10783	
682.88	12401	
683.06	12912	
683.25	11673	
683.43	12137	
683.62	12676	
683.8	13211	
683.99	12144	
684.17	11539	
684.36	13958	
684.54	12522	
684.73	10669	
684.91	10826	
685.1	12616	
685.28	11844	
685.46	10953	
685.65	10845	
685.83	12323	
686.02	11484	
686.2	9979.1	
686.39	10232	
686.57	11221	
686.76	13123	
686.94	10404	
687.13	10613	
687.31	12379	
687.5	11978	
687.68	10075	
687.86	11348	
688.05	13749	
688.23	11485	
688.42	11271	
688.6	10658	
688.79	11946	
688.97	11886	
689.16	11082	
689.34	10019	
689.52	12879	
689.71	13117	
689.89	11405	
690.08	10777	
690.26	12477	
690.45	12346	
690.63	11598	
690.81	10991	
691	12104	
691.18	12148	
691.37	11034	
691.55	13112	
691.74	11931	
691.92	13906	
692.1	10987	
692.29	10372	
692.47	12039	
692.66	11385	
692.84	10458	
693.02	11111	
693.21	11646	
693.39	12002	
693.58	11317	
693.76	10804	
693.94	13370	
694.13	13157	
694.31	10892	
694.5	11927	
694.68	12053	
694.86	12446	
695.05	11268	
695.23	11433	
695.42	13108	
695.6	15326	
695.78	11946	
695.97	11073	
696.15	13156	
696.34	12446	
696.52	10973	
696.7	11686	
696.89	12784	
697.07	12089	
697.25	11384	
697.44	12952	
697.62	12551	
697.81	12810	
697.99	11038	
698.17	11567	
698.36	11838	
698.54	12608	
698.72	11445	
698.91	10286	
699.09	12095	
699.28	11953	
699.46	10946	
699.64	10813	
699.83	11775	
700.01	13067	
700.19	11592	
700.38	10053	
700.56	13034	
700.74	11910	
700.93	10374	
701.11	11340	
701.29	12513	
701.48	13644	
701.66	10808	
701.84	10926	
702.03	12054	
702.21	12883	
702.39	10316	
702.58	11030	
702.76	12648	
702.94	12848	
703.13	10479	
703.31	12889	
703.49	11894	
703.68	13320	
703.86	10574	
704.04	11604	
704.23	12384	
704.41	12780	
704.59	10602	
704.78	11848	
704.96	13506	
705.14	12830	
705.33	10461	
705.51	11227	
705.69	12232	
705.87	12982	
706.06	11678	
706.24	10471	
706.42	12467	
706.61	12828	
706.79	11468	
706.97	10353	
707.16	11938	
707.34	12373	
707.52	11400	
707.7	10554	
707.89	12052	
708.07	11654	
708.25	11408	
708.44	11818	
708.62	11896	
708.8	13022	
708.98	11535	
709.17	10655	
709.35	12091	
709.53	12133	
709.72	10310	
709.9	10677	
710.08	12441	
710.26	12481	
710.45	11787	
710.63	10592	
710.81	11979	
710.99	12019	
711.18	11027	
711.36	10378	
711.54	11835	
711.72	12510	
711.91	10577	
712.09	9975.7	
712.27	11755	
712.45	12377	
712.64	10702	
712.82	9615.9	
713	11034	
713.18	11234	
713.37	9645.3	
713.55	10839	
713.73	12095	
713.91	10540	
714.1	9817.3	
714.28	9135.3	
714.46	11257	
714.64	10247	
714.83	8133.8	
715.01	8794	
715.19	9901.2	
715.37	9320.3	
715.55	8199.4	
715.74	8557.8	
715.92	10632	
716.1	8595.3	
716.28	9498.5	
716.47	8483.4	
716.65	9148.3	
716.83	9312.1	
717.01	8242.4	
717.19	8236.9	
717.38	11295	
717.56	8900.5	
717.74	8452	
717.92	7482.6	
718.1	10015	
718.29	9232.2	
718.47	7338.6	
718.65	8050.6	
718.83	10228	
719.01	10314	
719.2	7480.5	
719.38	8704.5	
719.56	10053	
719.74	11800	
719.92	8286.1	
720.11	9355.8	
720.29	10165	
720.47	9262.3	
720.65	7627.3	
720.83	8408.3	
721.02	9267.1	
721.2	8827.4	
721.38	8320.2	
721.56	7566.6	
721.74	8273.1	
721.92	8562.6	
722.11	8686.8	
722.29	8327.7	
722.47	9742.9	
722.65	8789.2	
722.83	7362.4	
723.01	8256	
723.2	8983.1	
723.38	9241.8	
723.56	6894.8	
723.74	7906.5	
723.92	8344.1	
724.1	9592.7	
724.29	7363.8	
724.47	8445.1	
724.65	8468.4	
724.83	8439.7	
725.01	7054.6	
725.19	7912.7	
725.37	8303.1	
725.56	8337.3	
725.74	6873.7	
725.92	7271.7	
726.1	8283.4	
726.28	8606.2	
726.46	7589.1	
726.64	7277.8	
726.83	8383.7	
727.01	8712.7	
727.19	6765.8	
727.37	7628	
727.55	8615.1	
727.73	9237	
727.91	6834.8	
728.09	6619	
728.28	9104.6	
728.46	9645.3	
728.64	7782.3	
728.82	7737.9	
729	10128	
729.18	9455.5	
729.36	6842.9	
729.54	9104.6	
729.72	10509	
729.91	8787.2	
730.09	8826.1	
730.27	7694.9	
730.45	8597.4	
730.63	9432.3	
730.81	8308.6	
730.99	7316	
731.17	9873.9	
731.35	8446.5	
731.53	7881.9	
731.71	7441	
731.9	9512.8	
732.08	9777	
732.26	7723.6	
732.44	7380.2	
732.62	9731.9	
732.8	9308.7	
732.98	7953.6	
733.16	7045.7	
733.34	9149.6	
733.52	7916.8	
733.7	7442.3	
733.88	7688.8	
734.07	8856.1	
734.25	8678.6	
734.43	6910.5	
734.61	8455.4	
734.79	10090	
734.97	8531.8	
735.15	6984.3	
735.33	7291.5	
735.51	8731.2	
735.69	8452	
735.87	8336.6	
736.05	7436.2	
736.23	8622.6	
736.41	8296.3	
736.59	7202	
736.77	7299.6	
736.95	8969.4	
737.13	8398	
737.32	6845.7	
737.5	7146	
737.68	9472.5	
737.86	8202.8	
738.04	6578.1	
738.22	8348.9	
738.4	7929.7	
738.58	8279.3	
738.76	7212.3	
738.94	6092.7	
739.12	8057.4	
739.3	7944.8	
739.48	7752.9	
739.66	7461.4	
739.84	8284.7	
740.02	8249.9	
740.2	6169.2	
740.38	6488	
740.56	8652	
740.74	7372.7	
740.92	7165.2	
741.1	6997.9	
741.28	7964.6	
741.46	7863.5	
741.64	6582.2	
741.82	7011.6	
742	7965.2	
742.18	7864.9	
742.36	6722.1	
742.54	6296.8	
742.72	8400.8	
742.9	7151.5	
743.08	7102.4	
743.26	5824.4	
743.44	8558.5	
743.62	8437.6	
743.8	7176.1	
743.98	6165.8	
744.16	8056	
744.34	7730.4	
744.52	6979.5	
744.7	6937.2	
744.88	8090.2	
745.06	7690.1	
745.24	6890	
745.42	7079.1	
745.6	8195.3	
745.78	7883.3	
745.96	5719.3	
746.14	5991	
746.32	8850	
746.5	8034.2	
746.68	6600.6	
746.86	5935	
747.03	8499.1	
747.21	6716	
747.39	6429.3	
747.57	5969.1	
747.75	7606.8	
747.93	8047.8	
748.11	5902.9	
748.29	5826.5	
748.47	9178.3	
748.65	7287.4	
748.83	6533.7	
749.01	6290.7	
749.19	7788.4	
749.37	6886.6	
749.55	6071.5	
749.73	6225.8	
749.91	7326.9	
750.09	7045	
750.26	6167.1	
750.44	5557.5	
750.62	7349.5	
750.8	7322.2	
750.98	5427.1	
751.16	5789.6	
751.34	7384.3	
751.52	6715.3	
751.7	6552.8	
751.88	5334.3	
752.06	7798.7	
752.24	7542	
752.42	5265.3	
752.59	5650.3	
752.77	7137.9	
752.95	8434.2	
753.13	6366.5	
753.31	5700.9	
753.49	6866.2	
753.67	7255.3	
753.85	6017.6	
754.03	5585.5	
754.21	7423.2	
754.38	7802.8	
754.56	5698.1	
754.74	4636.6	
754.92	6621.8	
755.1	7307.8	
755.28	4657.8	
755.46	4629.8	
755.64	7991.9	
755.82	8063.5	
755.99	4817.5	
756.17	4841.4	
756.35	5378	
756.53	6948.1	
756.71	3658.4	
756.89	4547.9	
757.07	6540.5	
757.25	5547.9	
757.42	5180	
757.6	5987.6	
757.78	6506.4	
757.96	5588.2	
758.14	4846.9	
758.32	4347.2	
758.5	5199.1	
758.67	5945.3	
758.85	4701.5	
759.03	4884.4	
759.21	6179.4	
759.39	5628.5	
759.57	4295.3	
759.75	5430.5	
759.92	6769.9	
760.1	6072.9	
760.28	5795.1	
760.46	6038.8	
760.64	5905.7	
760.82	5603.2	
760.99	5634.6	
761.17	4841.4	
761.35	6705	
761.53	5631.2	
761.71	5001.8	
761.89	5693.4	
762.06	6573.3	
762.24	6054.5	
762.42	5040.1	
762.6	4804.5	
762.78	6118.6	
762.96	6771.3	
763.13	5417.6	
763.31	5077.6	
763.49	6913.9	
763.67	6014.2	
763.85	5885.2	
764.02	6425.2	
764.2	7105.8	
764.38	6313.2	
764.56	4894.6	
764.74	5769.1	
764.91	7251.9	
765.09	6062.7	
765.27	4572.4	
765.45	4412	
765.63	7228.6	
765.8	7135.8	
765.98	4040.6	
766.16	4459.8	
766.34	5655.1	
766.52	5496.7	
766.69	5400.5	
766.87	4257.7	
767.05	6049	
767.23	6765.1	
767.41	4510.3	
767.58	4818.9	
767.76	6620.4	
767.94	6712.6	
768.12	4560.1	
768.29	5299.5	
768.47	6113.9	
768.65	6779.5	
768.83	4208.6	
769	5355.4	
769.18	5659.2	
769.36	6381.5	
769.54	5337.7	
769.72	4265.2	
769.89	6567.8	
770.07	6684.6	
770.25	4543.8	
770.43	5915.9	
770.6	7374.7	
770.78	7831.4	
770.96	4656.4	
771.14	4593.6	
771.31	6564.4	
771.49	5877.7	
771.67	3845.4	
771.85	4153.3	
772.02	5141.1	
772.2	5878.4	
772.38	4916.5	
772.55	4420.2	
772.73	6102.9	
772.91	5787.6	
773.09	4730.8	
773.26	4780.6	
773.44	6027.2	
773.62	5681.1	
773.8	4242.7	
773.97	3935.5	
774.15	6059.9	
774.33	5733.6	
774.5	4132.8	
774.68	4483.7	
774.86	6355.5	
775.04	5728.2	
775.21	4246.8	
775.39	4126	
775.57	6011.5	
775.74	6409.5	
775.92	3995.6	
776.1	4015.4	
776.27	5934.3	
776.45	7197.9	
776.63	4203.1	
776.81	3747.8	
776.98	5598.5	
777.16	6692.8	
777.34	4358.8	
777.51	4668.7	
777.69	5585.5	
777.87	5394.3	
778.04	4302.8	
778.22	4937.7	
778.4	5356.1	
778.57	6062.7	
778.75	3594.9	
778.93	3924.6	
779.1	5195.7	
779.28	5090.6	
779.46	3611.3	
779.64	4196.3	
779.81	6205.3	
779.99	7124.9	
780.17	4964.3	
780.34	5083.7	
780.52	5629.9	
780.69	5804.6	
780.87	4470	
781.05	3978.5	
781.22	5720.7	
781.4	5712.5	
781.58	4154.6	
781.75	3289	
781.93	5750.7	
782.11	5145.2	
782.28	5073.5	
782.46	4120.5	
782.64	4926.7	
782.81	5890	
782.99	4223.6	
783.17	4166.9	
783.34	5795.1	
783.52	5044.8	
783.69	4407.9	
783.87	5160.9	
784.05	5113.8	
784.22	5091.3	
784.4	5216.9	
784.58	4559.5	
784.75	6006	
784.93	5120.6	
785.1	4132.1	
785.28	4839.4	
785.46	5902.9	
785.63	5112.4	
785.81	4045.4	
785.99	4025.6	
786.16	5218.2	
786.34	5731.6	
786.51	3960.8	
786.69	4373.1	
786.87	4857.8	
787.04	5377.3	
787.22	3851.5	
787.39	4751.3	
787.57	5067.4	
787.75	6205.3	
787.92	4943.8	
788.1	4914.4	
788.27	5153.4	
788.45	4901.5	
788.63	4613.4	
788.8	3345	
788.98	5501.5	
789.15	4810.7	
789.33	3427.6	
789.5	4166.3	
789.68	6023.8	
789.86	6126.8	
790.03	4561.5	
790.21	4020.2	
790.38	6006	
790.56	5296.7	
790.73	3849.5	
790.91	3919.1	
791.09	5164.3	
791.26	5818.3	
791.44	4052.9	
791.61	3547.8	
791.79	5055.8	
791.96	5145.2	
792.14	3599	
792.32	3250.1	
792.49	5071.5	
792.67	5261.9	
792.84	3729.4	
793.02	3573.7	
793.19	5582.1	
793.37	6213.5	
793.54	3224.9	
793.72	3583.3	
793.89	6455.2	
794.07	5173.9	
794.25	4287.8	
794.42	3345	
794.6	6207.4	
794.77	5835.3	
794.95	4517.8	
795.12	3897.3	
795.3	5131.5	
795.47	5737.7	
795.65	4293.9	
795.82	4105.5	
796	4857.1	
796.17	6849.8	
796.35	4016.7	
796.52	4719.2	
796.7	5602.6	
796.87	5721.3	
797.05	4914.4	
797.22	4895.3	
797.4	5722	
797.57	6698.9	
797.75	4098	
797.92	3893.9	
798.1	5994.4	
798.27	5125.4	
798.45	3323.9	
798.62	3621.5	
798.8	5463.3	
798.97	5894.1	
799.15	4374.5	
799.32	4160.1	
799.5	4630.5	
799.67	5528.2	
799.85	4452.3	
800.02	3291.1	
800.2	5008	
800.37	5348.6	
800.55	4666.6	
800.72	3882.3	
800.9	5888.6	
801.07	6292.7	
801.25	5188.9	
801.42	4276.8	
801.6	5899.5	
801.77	5599.1	
801.95	3984	
802.12	3794.2	
802.29	5582.8	
802.47	5571.2	
802.64	4220.9	
802.82	3151.8	
802.99	5065.3	
803.17	6082.5	
803.34	4119.8	
803.52	3711.6	
803.69	6733.7	
803.87	4764.9	
804.04	4069.3	
804.21	4214	
804.39	6109.8	
804.56	5207.3	
804.74	3476.1	
804.91	4269.3	
805.09	5078.3	
805.26	5160.9	
805.44	3526.6	
805.61	3876.8	
805.78	5686.5	
805.96	5750	
806.13	4298.7	
806.31	4577.2	
806.48	4628.4	
806.66	5180	
806.83	4263.9	
807	4190.1	
807.18	5047.6	
807.35	5449.6	
807.53	4050.2	
807.7	3305.4	
807.87	6231.3	
808.05	5108.3	
808.22	4527.4	
808.4	3308.2	
808.57	5028.4	
808.74	4700.1	
808.92	3809.9	
809.09	4782.7	
809.27	4909	
809.44	5650.3	
809.61	3383.2	
809.79	3730	
809.96	6257.2	
810.14	5870.8	
810.31	3203	
810.48	3970.3	
810.66	5192.3	
810.83	5851.7	
811.01	3767.6	
811.18	4222.2	
811.35	5823.7	
811.53	4515.1	
811.7	4551.3	
811.87	4193.6	
812.05	5099.4	
812.22	4984.8	
812.39	3656.3	
812.57	3530.7	
812.74	5057.8	
812.92	6738.5	
813.09	3958	
813.26	4270.7	
813.44	6540.5	
813.61	5012.7	
813.78	3308.8	
813.96	4413.4	
814.13	5100.8	
814.3	4749.9	
814.48	4843.4	
814.65	3936.9	
814.82	6318	
815	4895.3	
815.17	4047.5	
815.34	4989.5	
815.52	5022.3	
815.69	5062.6	
815.87	4061.1	
816.04	3467.2	
816.21	5129.5	
816.38	4464.6	
816.56	3891.1	
816.73	3632.4	
816.9	6389	
817.08	5825.8	
817.25	3634.5	
817.42	4635.9	
817.6	4660.5	
817.77	5089.9	
817.94	4097.3	
818.12	3613.3	
818.29	4827.7	
818.46	7503.1	
818.64	3798.3	
818.81	3597.6	
818.98	4698.7	
819.16	6899.6	
819.33	4354	
819.5	4039.3	
819.67	5455.8	
819.85	6105.7	
820.02	3986	
820.19	4252.3	
820.37	5316.5	
820.54	4898.7	
820.71	4126	
820.88	5126.1	
821.06	5342.5	
821.23	4856.4	
821.4	4214	
821.58	4108.9	
821.75	5785.5	
821.92	5227.8	
822.09	3336.8	
822.27	3453.6	
822.44	5083.7	
822.61	4988.9	
822.79	3358	
822.96	6451.1	
823.13	5603.2	
823.3	4804.5	
823.48	3851.5	
823.65	3523.9	
823.82	5762.3	
823.99	4610.7	
824.17	4896	
824.34	3532.7	
824.51	6686.6	
824.68	5103.5	
824.86	3721.8	
825.03	4120.5	
825.2	5072.8	
825.37	6144.6	
825.55	3674.1	
825.72	4019.5	
825.89	6737.8	
826.06	6272.9	
826.24	3956	
826.41	3935.5	
826.58	6156.9	
826.75	5400.5	
826.92	3127.2	
827.1	3461.1	
827.27	8351.6	
827.44	6665.5	
827.61	3749.1	
827.79	4532.8	
827.96	4789.5	
828.13	5214.1	
828.3	3996.3	
828.47	3330.7	
828.65	5316.5	
828.82	5197.1	
828.99	5089.2	
829.16	4478.2	
829.34	5690.6	
829.51	5456.5	
829.68	4076.8	
829.85	4261.8	
830.02	5996.5	
830.2	5671.5	
830.37	3142.9	
830.54	4937	
830.71	6506.4	
830.88	5043.5	
831.05	3206.4	
831.23	3691.8	
831.4	6217	
831.57	6914.6	
831.74	3796.9	
831.91	3318.4	
832.09	5291.3	
832.26	5703.6	
832.43	3874.8	
832.6	4422.2	
832.77	5300.8	
832.94	6037.4	
833.12	3103.4	
833.29	3923.9	
833.46	5493.3	
833.63	7165.2	
833.8	4227	
833.97	3957.4	
834.15	5677	
834.32	5453.7	
834.49	4105.5	
834.66	4181.3	
834.83	5903.6	
835	4800.4	
835.17	3783.3	
835.35	3818.1	
835.52	5638.7	
835.69	5477.6	
835.86	3924.6	
836.03	3259.7	
836.2	5643.5	
836.37	5252.4	
836.55	3898	
836.72	3702	
836.89	5196.4	
837.06	5731.6	
837.23	4002.4	
837.4	4367.6	
837.57	6521.4	
837.75	7196.6	
837.92	3601.7	
838.09	3807.2	
838.26	5259.9	
838.43	5992.4	
838.6	4119.8	
838.77	3648.8	
838.94	6760.3	
839.11	6529.6	
839.29	3915	
839.46	3137.5	
839.63	5613.5	
839.8	5388.2	
839.97	3822.2	
840.14	3807.2	
840.31	5447.6	
840.48	5681.1	
840.65	3151.1	
840.82	3889.8	
841	5695.4	
841.17	5634	
841.34	3512.3	
841.51	3574.4	
841.68	5547.3	
841.85	5371.1	
842.02	3642.7	
842.19	2981.2	
842.36	5440.8	
842.53	5399.1	
842.7	3517	
842.87	4258.4	
843.05	7118.7	
843.22	5381.4	
843.39	3300.6	
843.56	3559.4	
843.73	5115.1	
843.9	5759.6	
844.07	5627.1	
844.24	4741.7	
844.41	8291.5	
844.58	4926.7	
844.75	3382.6	
844.92	3638.6	
845.09	5629.9	
845.26	5688.6	
845.43	3449.5	
845.6	3671.3	
845.77	5665.4	
845.94	5376.6	
846.12	3825.6	
846.29	4102.1	
846.46	5889.3	
846.63	5586.2	
846.8	3435.8	
846.97	4082.3	
847.14	6111.8	
847.31	5566.4	
847.48	3900	
847.65	4315.8	
847.82	5897.5	
847.99	5889.3	
848.16	4631.1	
848.33	4321.9	
848.5	5231.2	
848.67	6109.1	
848.84	3439.9	
849.01	3601	
849.18	5017.5	
849.35	4767	
849.52	4336.2	
849.69	3414.6	
849.86	5828.5	
850.03	6050.4	
850.2	3491.1	
850.37	4293.2	
850.54	6000.5	
850.71	5335.6	
850.88	4173.1	
851.05	3446.7	
851.22	5522.7	
851.39	6173.9	
851.56	3359.4	
851.73	3983.3	
851.9	4923.3	
852.07	5836.7	
852.24	3800.3	
852.41	3411.9	
852.58	5455.1	
852.75	5042.8	
852.92	3856.3	
853.09	3380.5	
853.26	5255.8	
853.43	6089.3	
853.6	3387.3	
853.77	2960	
853.94	6122.7	
854.11	4930.8	
854.28	5177.9	
854.44	3788.7	
854.61	6656.6	
854.78	5932.3	
854.95	3483.6	
855.12	4346.5	
855.29	4548.5	
855.46	6308.4	
855.63	3487	
855.8	4762.9	
855.97	5193	
856.14	5944.6	
856.31	4866.7	
856.48	3814	
856.65	5201.2	
856.82	4928.8	
856.99	3276.8	
857.16	3723.9	
857.33	6770.6	
857.49	5287.2	
857.66	3705.5	
857.83	4000.4	
858	5259.9	
858.17	5517.9	
858.34	3282.9	
858.51	3454.2	
858.68	6384.2	
858.85	6300.2	
859.02	4063.9	
859.19	4300.1	
859.36	4945.8	
859.52	4997	
859.69	3474	
859.86	4046.8	
860.03	5010	
860.2	6175.3	
860.37	3099.9	
860.54	3440.6	
860.71	5861.3	
860.88	6326.2	
861.05	3861.8	
861.21	4317.1	
861.38	6328.2	
861.55	4774.5	
861.72	3137.5	
861.89	3906.8	
862.06	5895.4	
862.23	6415.6	
862.4	3333.4	
862.56	3539.6	
862.73	5690.6	
862.9	5436	
863.07	3977.2	
863.24	3159.3	
863.41	4842.8	
863.58	4972.5	
863.75	3534.1	
863.91	3971.7	
864.08	6212.2	
864.25	5800.5	
864.42	4312.3	
864.59	4826.4	
864.76	6599.9	
864.93	4969.7	
865.09	3392.8	
865.26	3646.1	
865.43	6082.5	
865.6	6513.2	
865.77	2977.7	
865.94	3392.8	
866.1	6127.5	
866.27	5900.2	
866.44	5236.7	
866.61	3325.2	
866.78	5371.1	
866.95	5726.8	
867.11	3334.1	
867.28	3057.6	
867.45	6000.5	
867.62	5019.6	
867.79	4024.3	
867.96	3408.5	
868.12	4945.8	
868.29	5928.2	
868.46	2975.7	
868.63	4573.1	
868.8	6092	
868.97	5797.8	
869.13	3582.6	
869.3	3644.7	
869.47	5787.6	
869.64	5971.2	
869.81	3497.2	
869.97	3467.2	
870.14	5649	
870.31	6345.3	
870.48	3395.5	
870.65	4392.2	
870.81	5297.4	
870.98	5302.2	
871.15	3915.7	
871.32	3608.5	
871.48	5723.4	
871.65	6409.5	
871.82	3426.3	
871.99	3795.6	
872.16	6803.4	
872.32	6128.2	
872.49	3450.8	
872.66	3509.5	
872.83	5846.3	
872.99	5161.6	
873.16	3999	
873.33	3371	
873.5	5433.9	
873.67	5542.5	
873.83	3650.8	
874	4647.5	
874.17	5590.3	
874.34	6756.2	
874.5	4472.1	
874.67	4302.1	
874.84	6278.4	
875.01	4862.6	
875.17	4879.6	
875.34	3416.7	
875.51	5555.5	
875.68	6736.5	
875.84	4174.4	
876.01	5068	
876.18	5815.5	
876.34	5793	
876.51	3393.5	
876.68	3382.6	
876.85	5268.1	
877.01	6129.6	
877.18	4962.2	
877.35	3420.1	
877.52	5447.6	
877.68	4879.6	
877.85	3426.3	
878.02	3402.4	
878.18	5397.1	
878.35	5115.8	
878.52	2760	
878.69	3850.2	
878.85	5873.6	
879.02	5876.3	
879.19	4995	
879.35	3708.2	
879.52	5787.6	
879.69	6035.4	
879.86	2955.9	
880.02	3887	
880.19	5371.1	
880.36	6630	
880.52	3956.7	
880.69	4085.7	
880.86	5933.6	
881.02	6039.5	
881.19	3812	
881.36	3732.1	
881.52	5832.6	
881.69	5146.5	
881.86	3732.8	
882.02	3613.3	
882.19	6119.3	
882.36	7105.1	
882.52	3547.8	
882.69	4850.3	
882.86	5618.3	
883.02	5541.1	
883.19	4212.7	
883.36	3947.1	
883.52	5879	
883.69	6738.5	
883.86	3515.7	
884.02	3104.7	
884.19	5889.3	
884.36	5444.9	
884.52	3985.3	
884.69	3651.5	
884.86	5186.1	
885.02	6475	
885.19	3855.6	
885.36	3939.6	
885.52	5446.9	
885.69	5579.3	
885.86	5014.8	
886.02	4405.2	
886.19	5862	
886.35	5362.3	
886.52	3827	
886.69	4823.6	
886.85	4947.9	
887.02	6239.5	
887.19	6239.5	
887.35	6239.5	
887.52	6239.5	
887.68	6239.5	
887.85	6239.5	
888.02	6239.5	
888.18	6239.5	
888.35	6239.5	
888.51	6239.5	
888.68	6239.5	
888.85	6239.5	
889.01	6239.5	
889.18	6239.5	
889.35	6239.5	
889.51	6239.5	
889.68	6239.5	
889.84	6239.5	
890.01	6239.5	
890.17	6239.5	
890.34	6239.5	
890.51	6239.5	
890.67	6239.5	
890.84	6239.5	
891	6239.5	
891.17	6239.5	
891.34	6239.5	
891.5	6239.5	
891.67	6239.5	
891.83	6239.5	
892	6239.5	
892.16	6239.5	
892.33	6239.5	
892.5	6239.5	
892.66	6239.5	
892.83	6239.5	
892.99	6239.5	
893.16	6239.5	
893.32	6239.5	
893.49	6239.5	
893.65	6239.5	
893.82	6239.5	
893.99	6239.5	
894.15	6239.5	
894.32	6239.5	
894.48	6239.5	
894.65	6239.5	
894.81	6239.5	
894.98	6239.5	
895.14	6239.5	
895.31	6239.5	
895.47	6239.5	
895.64	6239.5	
895.81	6239.5	
895.97	6239.5	
896.14	6239.5	
896.3	6239.5	
896.47	6239.5	
896.63	6239.5	
896.8	6239.5	
896.96	6239.5	
897.13	6239.5	
897.29	6239.5	
897.46	6239.5	
897.62	6239.5	
897.79	6239.5	
897.95	6239.5	
898.12	6239.5	
898.28	6239.5	
898.45	6239.5	
898.61	6239.5	
898.78	6239.5	
898.94	6239.5	
899.11	6239.5	
899.27	6239.5	
899.44	6239.5	
899.6	6239.5	
899.77	6239.5	
899.93	6239.5	
900.1	6239.5	
900.26	6239.5	
900.43	6239.5	
900.59	6239.5	
900.76	6239.5	
900.92	6239.5	
901.09	6239.5	
901.25	6239.5	
901.42	6239.5	
901.58	6239.5	
901.75	6239.5	
901.91	6239.5	
902.07	6239.5	
902.24	6239.5	
902.4	6239.5	
902.57	6239.5	
902.73	6239.5	
902.9	6239.5	
903.06	6239.5	
903.23	6239.5	
903.39	6239.5	
903.56	6239.5	
903.72	6239.5	
903.88	6239.5	
904.05	6239.5	
904.21	6239.5	
904.38	6239.5	
904.54	6239.5	
904.71	6239.5	
904.87	6239.5	
905.03	6239.5	
905.2	6239.5	
905.36	6239.5	
905.53	6239.5	
905.69	6239.5	
905.86	6239.5	
906.02	6239.5	
906.18	6239.5	
906.35	6239.5	
906.51	6239.5	
906.68	6239.5	
906.84	6239.5	
907.01	6239.5	
907.17	6239.5	
907.33	6239.5	
907.5	6239.5	
907.66	6239.5	
907.83	6239.5	
907.99	6239.5	
908.15	6239.5	
908.32	6239.5	
908.48	6239.5	
908.65	6239.5	
908.81	6239.5	
908.97	6239.5	
909.14	6239.5	
909.3	6239.5	
909.47	6239.5	
909.63	6239.5	
909.79	6239.5	
909.96	6239.5	
910.12	6239.5	
910.28	6239.5	
910.45	6239.5	
910.61	6239.5	
910.78	6239.5	
910.94	6239.5	
911.1	6239.5	
911.27	6239.5	
911.43	6239.5	
911.59	6239.5	
911.76	6239.5	
911.92	6239.5	
912.08	6239.5	
912.25	6239.5	
912.41	6239.5	
912.57	6239.5	
912.74	6239.5	
912.9	6239.5	
913.07	6239.5	
913.23	6239.5	
913.39	6239.5	
913.56	6239.5	
913.72	6239.5	
913.88	6239.5	
914.05	6239.5	
914.21	6239.5	
914.37	6239.5	
914.54	6239.5	
914.7	6239.5	
914.86	6239.5	
915.03	6239.5	
915.19	6239.5	
