Wavelength	Intensities	
nm	a.u.	
179.22	1552.5	
179.44	1556.8	
179.65	1548.3	
179.86	1565.3	
180.08	1563.3	
180.29	3362.1	
180.51	2629.6	
180.72	4551.3	
180.94	4872.1	
181.15	2370.9	
181.37	2322.4	
181.58	4351.9	
181.79	4445.5	
182.01	2416.6	
182.22	2540.2	
182.44	4549.2	
182.65	3947.1	
182.87	3114.3	
183.08	2773.6	
183.29	4702.1	
183.51	4037.9	
183.72	2510.8	
183.94	3408.5	
184.15	4263.9	
184.37	4209.3	
184.58	2351.8	
184.79	2897.9	
185.01	4151.2	
185.22	4588.8	
185.44	3028.3	
185.65	2693.8	
185.86	4340.3	
186.08	4042.7	
186.29	2330.6	
186.51	2394.1	
186.72	4154	
186.94	4650.3	
187.15	2776.4	
187.36	2791.4	
187.58	5517.9	
187.79	4316.4	
188.01	2732	
188.22	4061.1	
188.43	5020.3	
188.65	4506.9	
188.86	2482.1	
189.08	2834.4	
189.29	4174.4	
189.5	4104.1	
189.72	2586.6	
189.93	2622.8	
190.15	4609.3	
190.36	5195.7	
190.57	2757.2	
190.79	2661.7	
191	4633.2	
191.22	4599.7	
191.43	2871.3	
191.64	2497.2	
191.86	4687.1	
192.07	4571.1	
192.29	2513.5	
192.5	2575.7	
192.71	4620.2	
192.93	4204.5	
193.14	2573.6	
193.35	2601.6	
193.57	4188.8	
193.78	4660.5	
194	2250.7	
194.21	2535.4	
194.42	4009.9	
194.64	4334.9	
194.85	2738.8	
195.07	3087.7	
195.28	4258.4	
195.49	3895.9	
195.71	3192.8	
195.92	2484.2	
196.13	4493.9	
196.35	4379.9	
196.56	3394.2	
196.78	2734	
196.99	5207.3	
197.2	4902.8	
197.42	3013.9	
197.63	2775.7	
197.84	3998.3	
198.06	4453.6	
198.27	2534.7	
198.48	3220.1	
198.7	4108.9	
198.91	4360.8	
199.13	2815.3	
199.34	2759.3	
199.55	4623.6	
199.77	3767.6	
199.98	2523.8	
200.19	2803.7	
200.41	4308.9	
200.62	4016.1	
200.83	2826.2	
201.05	3050.8	
201.26	4249.5	
201.47	4117.8	
201.69	2499.2	
201.9	2464.4	
202.11	4330.1	
202.33	4827.1	
202.54	2704.7	
202.76	2963.4	
202.97	4309.6	
203.18	4390.8	
203.4	2816.6	
203.61	2952.5	
203.82	4326.7	
204.04	4083.6	
204.25	2800.9	
204.46	2709.5	
204.68	4284.4	
204.89	4420.9	
205.1	2664.4	
205.32	2416.6	
205.53	4502.8	
205.74	4570.4	
205.96	2233.7	
206.17	2784.6	
206.38	4469.4	
206.6	4568.3	
206.81	3005.7	
207.02	2596.8	
207.24	4437.9	
207.45	4642.1	
207.66	2688.3	
207.88	2399.5	
208.09	4395.6	
208.3	4269.3	
208.52	2506.7	
208.73	2702	
208.94	4267.3	
209.15	4647.5	
209.37	2676	
209.58	2760	
209.79	4590.2	
210.01	4194.2	
210.22	2287.6	
210.43	2385.2	
210.65	4209.9	
210.86	4455	
211.07	2654.9	
211.29	2471.2	
211.5	4385.4	
211.71	4276.8	
211.93	2510.1	
212.14	2482.8	
212.35	4295.3	
212.56	4242.7	
212.78	2828.2	
212.99	2364	
213.2	4829.1	
213.42	4214.7	
213.63	2590.7	
213.84	2685.6	
214.06	3969.6	
214.27	3992.2	
214.48	2641.9	
214.69	2812.5	
214.91	4714.4	
215.12	4653.7	
215.33	2757.2	
215.55	2936.8	
215.76	4961.5	
215.97	4435.9	
216.18	2697.2	
216.4	2737.5	
216.61	4040.6	
216.82	4521.2	
217.04	2585.9	
217.25	2603	
217.46	4575.2	
217.67	4453.6	
217.89	2342.9	
218.1	2405.7	
218.31	4310.3	
218.53	4431.1	
218.74	2674	
218.95	2571.6	
219.16	4250.9	
219.38	4782	
219.59	2532	
219.8	2865.1	
220.01	5081	
220.23	4291.2	
220.44	3087.7	
220.65	2454.8	
220.87	4344.4	
221.08	4667.3	
221.29	2422.1	
221.5	2953.2	
221.72	5303.6	
221.93	4059.1	
222.14	2795.5	
222.35	3183.2	
222.57	4250.2	
222.78	4552	
222.99	2745.6	
223.2	2850.8	
223.42	4471.4	
223.63	4515.8	
223.84	2134	
224.05	2182.5	
224.27	4894	
224.48	4727.4	
224.69	3156.6	
224.9	2748.4	
225.12	4388.1	
225.33	4234.5	
225.54	2354.5	
225.75	2548.4	
225.97	4078.9	
226.18	4232.5	
226.39	2671.9	
226.6	2546.3	
226.82	4208.6	
227.03	4011.3	
227.24	2717	
227.45	2433.7	
227.67	4539	
227.88	4749.9	
228.09	3026.9	
228.3	3016	
228.52	4457.1	
228.73	4251.6	
228.94	2622.8	
229.15	2415.2	
229.36	4335.5	
229.58	4327.4	
229.79	2675.3	
230	2922.5	
230.21	4930.1	
230.43	4373.1	
230.64	2749.1	
230.85	2792.1	
231.06	4562.2	
231.28	4528.7	
231.49	2460.3	
231.7	2723.1	
231.91	4527.4	
232.12	4327.4	
232.34	2510.1	
232.55	2689	
232.76	4577.2	
232.97	4329.4	
233.18	2437.1	
233.4	2775.7	
233.61	4276.8	
233.82	4080.2	
234.03	2669.9	
234.25	2600.2	
234.46	5405.3	
234.67	4322.6	
234.88	2828.2	
235.09	2555.9	
235.31	4348.5	
235.52	4147.8	
235.73	2725.8	
235.94	2492.4	
236.15	4148.5	
236.37	4902.8	
236.58	2500.6	
236.79	2620.7	
237	4414.7	
237.21	3970.3	
237.43	2831.7	
237.64	2352.4	
237.85	6421.1	
238.06	4048.2	
238.27	2814.6	
238.48	2447.3	
238.7	4472.1	
238.91	4212	
239.12	2621.4	
239.33	2748.4	
239.54	4149.2	
239.76	4174.4	
239.97	2684.2	
240.18	2698.5	
240.39	4917.2	
240.6	4346.5	
240.82	2850.8	
241.03	2425.5	
241.24	4212.7	
241.45	4693.9	
241.66	2506.7	
241.87	2852.8	
242.09	4761.5	
242.3	4848.2	
242.51	2863.7	
242.72	2633.7	
242.93	4485.7	
243.14	4216.8	
243.36	3005.7	
243.57	3182.5	
243.78	4720.6	
243.99	4416.1	
244.2	2687.6	
244.41	2454.1	
244.63	3987.4	
244.84	4431.8	
245.05	2824.8	
245.26	2637.1	
245.47	4549.2	
245.68	4530.1	
245.9	3228.3	
246.11	2788	
246.32	4063.9	
246.53	4420.2	
246.74	3972.4	
246.95	2333.3	
247.16	4142.4	
247.38	4301.4	
247.59	2438.4	
247.8	2732	
248.01	3974.4	
248.22	4230.4	
248.43	2524.5	
248.64	2681.5	
248.86	3976.5	
249.07	4183.3	
249.28	2536.1	
249.49	2732.7	
249.7	4561.5	
249.91	4601.8	
250.12	2381.8	
250.34	2456.2	
250.55	4342.4	
250.76	4303.5	
250.97	2748.4	
251.18	2742.9	
251.39	4599.1	
251.6	4349.9	
251.81	2798.9	
252.03	2776.4	
252.24	4164.9	
252.45	4442.7	
252.66	2396.1	
252.87	2829.6	
253.08	4284.4	
253.29	5158.8	
253.5	2488.3	
253.72	3126.6	
253.93	4241.3	
254.14	4795.7	
254.35	2568.8	
254.56	2650.8	
254.77	4379.9	
254.98	4019.5	
255.19	2635.7	
255.41	3102.7	
255.62	4429.8	
255.83	4601.8	
256.04	2898.6	
256.25	2695.1	
256.46	4937	
256.67	4111.6	
256.88	2710.1	
257.09	3003.7	
257.31	3995.6	
257.52	4089.1	
257.73	3274.7	
257.94	2585.9	
258.15	4291.2	
258.36	4257.7	
258.57	3097.2	
258.78	2166.1	
258.99	4551.3	
259.2	4149.2	
259.41	2587.3	
259.63	2768.9	
259.84	4734.2	
260.05	4862.6	
260.26	3144.3	
260.47	2570.2	
260.68	4601.8	
260.89	4182	
261.1	3018.7	
261.31	2505.3	
261.52	4693.9	
261.73	4748.6	
261.95	3209.8	
262.16	2800.9	
262.37	4601.8	
262.58	4693.9	
262.79	3205.8	
263	2589.3	
263.21	4381.3	
263.42	4083.6	
263.63	2826.2	
263.84	2592.7	
264.05	4562.9	
264.26	4706.9	
264.47	3110.9	
264.69	2792.7	
264.9	4786.1	
265.11	4234.5	
265.32	2478	
265.53	2545.6	
265.74	4334.9	
265.95	3883.6	
266.16	2718.3	
266.37	2915.6	
266.58	4396.3	
266.79	4132.8	
267	2557.2	
267.21	2486.9	
267.42	3989.4	
267.63	4300.1	
267.84	2683.5	
268.06	2395.4	
268.27	4543.8	
268.48	4615.4	
268.69	2627.5	
268.9	2974.3	
269.11	4530.1	
269.32	3933.5	
269.53	2693.1	
269.74	2521.7	
269.95	4342.4	
270.16	3992.2	
270.37	2738.1	
270.58	3035.8	
270.79	4210.6	
271	4528.7	
271.21	2756.6	
271.42	2699.9	
271.63	4458.4	
271.84	3979.2	
272.05	2304.6	
272.26	2457.6	
272.47	4266.6	
272.68	4328	
272.89	2668.5	
273.11	2841.9	
273.32	4100.7	
273.53	4754.7	
273.74	2815.3	
273.95	2794.1	
274.16	4476.2	
274.37	4240	
274.58	2936.8	
274.79	2447.3	
275	4432.5	
275.21	4557.4	
275.42	3334.1	
275.63	2912.2	
275.84	4518.5	
276.05	5244.8	
276.26	2782.5	
276.47	2637.8	
276.68	4229.1	
276.89	4868.7	
277.1	2902.7	
277.31	2396.1	
277.52	4377.2	
277.73	4702.8	
277.94	2334	
278.15	2570.9	
278.36	4439.3	
278.57	4087.7	
278.78	2549.7	
278.99	2847.4	
279.2	4175.8	
279.41	4080.2	
279.62	3297.2	
279.83	2415.9	
280.04	4992.3	
280.25	4052.2	
280.46	3207.8	
280.67	2660.3	
280.88	4091.2	
281.09	4594.3	
281.3	2780.5	
281.51	3364.1	
281.72	4110.3	
281.93	4420.9	
282.14	2612.5	
282.35	2747	
282.56	4658.4	
282.77	4511.7	
282.98	2645.3	
283.19	3076	
283.4	5268.1	
283.61	4235.2	
283.82	2497.2	
284.03	3151.8	
284.24	4441.4	
284.45	4575.2	
284.66	3235.8	
284.87	2964.8	
285.08	4669.4	
285.29	4654.4	
285.5	2420.7	
285.71	2648	
285.92	4607.2	
286.12	4933.6	
286.33	3207.8	
286.54	2692.4	
286.75	4534.9	
286.96	4265.2	
287.17	2506.7	
287.38	3090.4	
287.59	4194.9	
287.8	4156.7	
288.01	2649.4	
288.22	2876.7	
288.43	4359.4	
288.64	3913.7	
288.85	3100.6	
289.06	2897.9	
289.27	4483.7	
289.48	4698	
289.69	3207.1	
289.9	2966.1	
290.11	4718.5	
290.32	4177.2	
290.53	3015.3	
290.74	2853.5	
290.94	4506.9	
291.15	4532.8	
291.36	2551.1	
291.57	2879.4	
291.78	4243.4	
291.99	3902.7	
292.2	2487.6	
292.41	2838.5	
292.62	4614.8	
292.83	4410.6	
293.04	3364.8	
293.25	2572.9	
293.46	4245.4	
293.67	4553.3	
293.88	2532	
294.09	2494.4	
294.29	4094.6	
294.5	4356	
294.71	2714.9	
294.92	2634.4	
295.13	4195.6	
295.34	4932.2	
295.55	2427.5	
295.76	2323.1	
295.97	4501.4	
296.18	4890.5	
296.39	2430.3	
296.6	2544.3	
296.81	4255	
297.01	4529.4	
297.22	2635.1	
297.43	2574.3	
297.64	4209.9	
297.85	4041.3	
298.06	2235	
298.27	2399.5	
298.48	4234.5	
298.69	4169	
298.9	2775.7	
299.11	2525.1	
299.31	4066.6	
299.52	4059.1	
299.73	2883.5	
299.94	2848.7	
300.15	4363.5	
300.36	4143.7	
300.57	2844.6	
300.78	2758.6	
300.99	4187.4	
301.2	4299.4	
301.4	2592	
301.61	2693.1	
301.82	4403.1	
302.03	4532.8	
302.24	2929.3	
302.45	2466.4	
302.66	4442	
302.87	4542.4	
303.08	2566.8	
303.29	3263.8	
303.49	4201.7	
303.7	4179.2	
303.91	2396.1	
304.12	3125.9	
304.33	3942.3	
304.54	4369.7	
304.75	2588.6	
304.96	2553.1	
305.16	4465.3	
305.37	4820.2	
305.58	2377.7	
305.79	2347	
306	4486.4	
306.21	3888.4	
306.42	2571.6	
306.63	3536.8	
306.83	4216.8	
307.04	4496	
307.25	2755.9	
307.46	2753.8	
307.67	3892.5	
307.88	4454.3	
308.09	2605.7	
308.29	2575.7	
308.5	4314.4	
308.71	4534.2	
308.92	2766.1	
309.13	2486.9	
309.34	4304.8	
309.55	4256.4	
309.75	3092.4	
309.96	2884.2	
310.17	4536.9	
310.38	4067.9	
310.59	2899.9	
310.8	2824.8	
311.01	4592.2	
311.21	4246.1	
311.42	2532.7	
311.63	2551.1	
311.84	4174.4	
312.05	4325.3	
312.26	2897.9	
312.46	2997.5	
312.67	4190.1	
312.88	3958	
313.09	2462.3	
313.3	2486.9	
313.51	4711.7	
313.71	4873.5	
313.92	2517	
314.13	2636.4	
314.34	4403.1	
314.55	4292.5	
314.76	3007.8	
314.96	2748.4	
315.17	4488.5	
315.38	4367	
315.59	2540.8	
315.8	2452.1	
316.01	4679.6	
316.21	4817.5	
316.42	2444.6	
316.63	2676.7	
316.84	4182	
317.05	4591.5	
317.26	2882.2	
317.46	2642.6	
317.67	4288.4	
317.88	4490.5	
318.09	2974.3	
318.3	2375	
318.5	4200.4	
318.71	4346.5	
318.92	3647.4	
319.13	2874.7	
319.34	4554.7	
319.54	4620.9	
319.75	2404.3	
319.96	2309.4	
320.17	4396.3	
320.38	4589.5	
320.58	2359.3	
320.79	2656.9	
321	4602.5	
321.21	4728.8	
321.42	2740.9	
321.62	2349	
321.83	4108.2	
322.04	4319.8	
322.25	2683.5	
322.46	2488.3	
322.66	4308.2	
322.87	4530.1	
323.08	2911.5	
323.29	2421.4	
323.5	4899.4	
323.7	4018.8	
323.91	3175	
324.12	2936.8	
324.33	4427.7	
324.53	4451.6	
324.74	2828.2	
324.95	2914.9	
325.16	4028.4	
325.37	4265.2	
325.57	2499.9	
325.78	2572.2	
325.99	4436.6	
326.2	4003.8	
326.4	3191.4	
326.61	2384.5	
326.82	4271.4	
327.03	4336.9	
327.24	3314.3	
327.44	3119.7	
327.65	4483.7	
327.86	3851.5	
328.07	2891.7	
328.27	2473.3	
328.48	4707.6	
328.69	4004.5	
328.9	3327.9	
329.1	2583.2	
329.31	4235.9	
329.52	4690.5	
329.73	2621.4	
329.93	2739.5	
330.14	4361.5	
330.35	4414.7	
330.56	3725.9	
330.76	2979.8	
330.97	4225.6	
331.18	4305.5	
331.39	2727.9	
331.59	2327.9	
331.8	4607.9	
332.01	4721.9	
332.22	2579.1	
332.42	2798.9	
332.63	4329.4	
332.84	4032.5	
333.05	2768.9	
333.25	2558.6	
333.46	4089.8	
333.67	4270.7	
333.88	2662.4	
334.08	2783.2	
334.29	5238	
334.5	4556	
334.7	2504	
334.91	3297.9	
335.12	3987.4	
335.33	4457.1	
335.53	2748.4	
335.74	3646.1	
335.95	4285.7	
336.16	3955.3	
336.36	2643.2	
336.57	3007.8	
336.78	3919.1	
336.98	4572.4	
337.19	3210.5	
337.4	2641.2	
337.61	4995	
337.81	4012.7	
338.02	2542.9	
338.23	3031.7	
338.43	4767	
338.64	4108.2	
338.85	2579.8	
339.05	3152.5	
339.26	4816.8	
339.47	3979.9	
339.68	2594.1	
339.88	3405.1	
340.09	4500.8	
340.3	4547.2	
340.5	2774.3	
340.71	2310.8	
340.92	4087.1	
341.13	4594.3	
341.33	2416.6	
341.54	2854.9	
341.75	4445.5	
341.95	4113.7	
342.16	2768.9	
342.37	2917	
342.57	4012.7	
342.78	4220.2	
342.99	2923.1	
343.19	2377	
343.4	4511.7	
343.61	4413.4	
343.81	2714.9	
344.02	2473.3	
344.23	4523.3	
344.43	4638	
344.64	2991.4	
344.85	2964.8	
345.06	4433.2	
345.26	4547.2	
345.47	2863.7	
345.68	3226.2	
345.88	3989.4	
346.09	4494.6	
346.3	2833.7	
346.5	2263	
346.71	4194.2	
346.92	4115.7	
347.12	2489.6	
347.33	2783.2	
347.54	4633.2	
347.74	4747.2	
347.95	2839.8	
348.16	2309.4	
348.36	4146.5	
348.57	4029.7	
348.78	2962.7	
348.98	2952.5	
349.19	4268	
349.39	3882.3	
349.6	2455.5	
349.81	2628.9	
350.01	4521.2	
350.22	4126.7	
350.43	2850.8	
350.63	3126.6	
350.84	4278.2	
351.05	4114.4	
351.25	2572.2	
351.46	2364.7	
351.67	4554.7	
351.87	4122.6	
352.08	2691	
352.29	2925.2	
352.49	4543.1	
352.7	4330.8	
352.9	2492.4	
353.11	2974.3	
353.32	4822.3	
353.52	4193.6	
353.73	2547.7	
353.94	3013.2	
354.14	4422.2	
354.35	4254.3	
354.55	2569.5	
354.76	2756.6	
354.97	4463.2	
355.17	4244.8	
355.38	2557.9	
355.59	3069.2	
355.79	4134.2	
356	4233.2	
356.2	2785.2	
356.41	2553.8	
356.62	4096.6	
356.82	4293.9	
357.03	3022.1	
357.24	2715.6	
357.44	4092.5	
357.65	4199.7	
357.85	3363.4	
358.06	2856.2	
358.27	4040.6	
358.47	4062.5	
358.68	2581.8	
358.88	2963.4	
359.09	4476.9	
359.3	4623.6	
359.5	3332	
359.71	3119.7	
359.91	4807.3	
360.12	4496	
360.33	3066.5	
360.53	3224.2	
360.74	4256.4	
360.94	4310.3	
361.15	3152.5	
361.36	2757.9	
361.56	4676.9	
361.77	4424.3	
361.97	3346.4	
362.18	2920.4	
362.38	4778.6	
362.59	4242.7	
362.8	2740.9	
363	2681.5	
363.21	4158.7	
363.41	4469.4	
363.62	3044	
363.83	3378.5	
364.03	4697.4	
364.24	4937.7	
364.44	3679.5	
364.65	3600.3	
364.85	4443.4	
365.06	4357.4	
365.27	2873.3	
365.47	2944.3	
365.68	4933.6	
365.88	4473.4	
366.09	3130.7	
366.29	2865.1	
366.5	4511.7	
366.71	4769	
366.91	3535.5	
367.12	3266.5	
367.32	5119.2	
367.53	4623.6	
367.73	3290.4	
367.94	3753.9	
368.14	4805.2	
368.35	5031.2	
368.56	3195.5	
368.76	2950.4	
368.97	4831.8	
369.17	5554.1	
369.38	2977.1	
369.58	3092.4	
369.79	4203.1	
369.99	5013.4	
370.2	3656.3	
370.4	3192.1	
370.61	4668	
370.82	5415.5	
371.02	3171.6	
371.23	2865.8	
371.43	4377.9	
371.64	5018.9	
371.84	3221.5	
372.05	3706.8	
372.25	5539.8	
372.46	4714.4	
372.66	3194.8	
372.87	3204.4	
373.07	4773.1	
373.28	5758.9	
373.48	3719.8	
373.69	3540.9	
373.9	4703.5	
374.1	4715.8	
374.31	3736.2	
374.51	3453.6	
374.72	5077.6	
374.92	4615.4	
375.13	3788.1	
375.33	3499.3	
375.54	4922.6	
375.74	4755.4	
375.95	3562.8	
376.15	4145.8	
376.36	5087.8	
376.56	4997.7	
376.77	3676.1	
376.97	3788.7	
377.18	5663.3	
377.38	5114.5	
377.59	3901.4	
377.79	3457	
378	4989.5	
378.2	5171.8	
378.41	3495.2	
378.61	3378.5	
378.82	5259.9	
379.02	4992.9	
379.23	3658.4	
379.43	4081.6	
379.64	5457.2	
379.84	5187.5	
380.05	3551.9	
380.25	3458.3	
380.46	5167	
380.66	4987.5	
380.87	4102.8	
381.07	4313	
381.28	5545.9	
381.48	5167.7	
381.69	3463.8	
381.89	3571.7	
382.1	4725.3	
382.3	5202.5	
382.51	3979.9	
382.71	4431.1	
382.91	5027.1	
383.12	5314.5	
383.32	3621.5	
383.53	3744.4	
383.73	5060.5	
383.94	5143.1	
384.14	3683.6	
384.35	3323.9	
384.55	4809.3	
384.76	5203.2	
384.96	3658.4	
385.17	3759.4	
385.37	5141.8	
385.58	4696	
385.78	3667.9	
385.98	3235.1	
386.19	4885.1	
386.39	5074.9	
386.6	3447.4	
386.8	3581.9	
387.01	5141.1	
387.21	5249.6	
387.42	3786	
387.62	4056.3	
387.83	4933.6	
388.03	4882.4	
388.23	3672	
388.44	4049.5	
388.64	4800.4	
388.85	4823	
389.05	3827	
389.26	4182.6	
389.46	5931.6	
389.67	5530.2	
389.87	3936.9	
390.07	3906.8	
390.28	5064.6	
390.48	4872.1	
390.69	3553.2	
390.89	3786.7	
391.1	5059.2	
391.3	5421.7	
391.5	4282.3	
391.71	4641.4	
391.91	5455.8	
392.12	5725.4	
392.32	4317.8	
392.53	3941.7	
392.73	5068	
392.93	5083.7	
393.14	3803.1	
393.34	4155.3	
393.55	5371.1	
393.75	5089.9	
393.95	3785.3	
394.16	3725.3	
394.36	5088.5	
394.57	5374.6	
394.77	3515	
394.98	3670.6	
395.18	5013.4	
395.38	5062.6	
395.59	4175.1	
395.79	3768.3	
396	5222.3	
396.2	5439.4	
396.4	4209.9	
396.61	4232.5	
396.81	5451.7	
397.02	5172.5	
397.22	4397	
397.42	4351.3	
397.63	5612.8	
397.83	5279.7	
398.04	3850.9	
398.24	4191.5	
398.44	5489.9	
398.65	5014.1	
398.85	3894.6	
399.05	3857	
399.26	5388.9	
399.46	6141.9	
399.67	4092.5	
399.87	4022.2	
400.07	5470.8	
400.28	5647.6	
400.48	4078.2	
400.69	4625.7	
400.89	5721.3	
401.09	6130.3	
401.3	4019.5	
401.5	4616.8	
401.7	6160.3	
401.91	6270.9	
402.11	4367	
402.32	4361.5	
402.52	5961.6	
402.72	5793	
402.93	4529.4	
403.13	3900	
403.33	6317.3	
403.54	5527.5	
403.74	4252.3	
403.94	4575.8	
404.15	5490.6	
404.35	6148.7	
404.56	4108.9	
404.76	4950.6	
404.96	5741.1	
405.17	5540.4	
405.37	4560.8	
405.57	4382.7	
405.78	5792.3	
405.98	5500.8	
406.18	4204.5	
406.39	4541.7	
406.59	5793	
406.79	5547.3	
407	4058.4	
407.2	4066.6	
407.4	6086.6	
407.61	5938.4	
407.81	4137.6	
408.01	4981.3	
408.22	5317.2	
408.42	6318.7	
408.62	4809.3	
408.83	4681.7	
409.03	5867.4	
409.23	5940.5	
409.44	4810.7	
409.64	4906.9	
409.84	6569.9	
410.05	6642.2	
410.25	5118.6	
410.45	4977.2	
410.66	6593.8	
410.86	7758.4	
411.06	5424.4	
411.27	5329.5	
411.47	7780.2	
411.67	6713.9	
411.88	5375.9	
412.08	5631.2	
412.28	7049.1	
412.49	7328.3	
412.69	5494	
412.89	5507	
413.09	7286	
413.3	7324.9	
413.5	5565	
413.7	5526.1	
413.91	6824.5	
414.11	7432.8	
414.31	5634	
414.52	5890	
414.72	7208.8	
414.92	7301.7	
415.12	5560.2	
415.33	5950.7	
415.53	7490.1	
415.73	7581.6	
415.94	6080.4	
416.14	5817.6	
416.34	7143.3	
416.55	6904.4	
416.75	6347.3	
416.95	6111.8	
417.15	7655.3	
417.36	7832.1	
417.56	6710.5	
417.76	6120	
417.97	7764.5	
418.17	7593.2	
418.37	5993.7	
418.57	6000.5	
418.78	7660.1	
418.98	7342.7	
419.18	6511.9	
419.38	6317.3	
419.59	7321.5	
419.79	7249.1	
419.99	5837.4	
420.2	6016.9	
420.4	7631.4	
420.6	7610.9	
420.8	5847.6	
421.01	5761.6	
421.21	7599.3	
421.41	7560.4	
421.61	5947.3	
421.82	5839.4	
422.02	7383.6	
422.22	7795.9	
422.42	6336.4	
422.63	5964.4	
422.83	7331.7	
423.03	8066.9	
423.23	6022.4	
423.44	5566.4	
423.64	7275.8	
423.84	7049.8	
424.04	5788.9	
424.25	5569.1	
424.45	7718.1	
424.65	7647.1	
424.85	5517.9	
425.06	5789.6	
425.26	7957	
425.46	7227.3	
425.66	5918.6	
425.87	5801.2	
426.07	7467.6	
426.27	7365.9	
426.47	5874.9	
426.67	5553.4	
426.88	7727	
427.08	7436.9	
427.28	6091.3	
427.48	5425.8	
427.69	6793.1	
427.89	7204.1	
428.09	5934.3	
428.29	5371.8	
428.5	7367.2	
428.7	7268.2	
428.9	5447.6	
429.1	5751.4	
429.3	7354.3	
429.51	7410.2	
429.71	5667.4	
429.91	6143.2	
430.11	7610.9	
430.31	7781.6	
430.52	5890	
430.72	6006.7	
430.92	7712	
431.12	7560.4	
431.32	5729.5	
431.53	5798.5	
431.73	7019.1	
431.93	7852.6	
432.13	5657.9	
432.33	5635.3	
432.54	7338.6	
432.74	7387	
432.94	5623.7	
433.14	6109.8	
433.34	7748.8	
433.55	7486.7	
433.75	6126.8	
433.95	7169.9	
434.15	7593.2	
434.35	7316.7	
434.56	5821.7	
434.76	5556.8	
434.96	7555	
435.16	7816.4	
435.36	5755.5	
435.56	6537.8	
435.77	7497.6	
435.97	7624.6	
436.17	6861.4	
436.37	6409.5	
436.57	7442.3	
436.78	7572	
436.98	6341.9	
437.18	6744	
437.38	7887.4	
437.58	7439.6	
437.78	6802.7	
437.99	6047.7	
438.19	7817.1	
438.39	8269.7	
438.59	6079.1	
438.79	5785.5	
438.99	8191.2	
439.2	7392.5	
439.4	5600.5	
439.6	5692.7	
439.8	7490.1	
440	8187.8	
440.2	6397.2	
440.4	6327.5	
440.61	7950.9	
440.81	8227.4	
441.01	6014.9	
441.21	6572.6	
441.41	8373.5	
441.61	8017.1	
441.81	6927.6	
442.02	7281.9	
442.22	8628.1	
442.42	8193.9	
442.62	6285.9	
442.82	6342.6	
443.02	8578.9	
443.22	8065.6	
443.43	6679.1	
443.63	6189	
443.83	7835.5	
444.03	7804.1	
444.23	6991.8	
444.43	6737.8	
444.63	8239.7	
444.83	8783.7	
445.04	6590.4	
445.24	7150.8	
445.44	8284	
445.64	8313.4	
445.84	6675.7	
446.04	6860	
446.24	8044.4	
446.44	8502.5	
446.65	6210.1	
446.85	6546	
447.05	7868.3	
447.25	8406.2	
447.45	6565.8	
447.65	6204.7	
447.85	8060.1	
448.05	7633.5	
448.25	6726.2	
448.46	6505.7	
448.66	8019.8	
448.86	7765.2	
449.06	6315.3	
449.26	6728.9	
449.46	8229.4	
449.66	7780.9	
449.86	6592.4	
450.06	6507.8	
450.26	7900.4	
450.47	8086.7	
450.67	6520	
450.87	6829.3	
451.07	8384.4	
451.27	8159.8	
451.47	6244.3	
451.67	6865.5	
451.87	8088.8	
452.07	8542.8	
452.27	6510.5	
452.47	6420.4	
452.67	8163.9	
452.88	8311.3	
453.08	6098.2	
453.28	7163.8	
453.48	8926.4	
453.68	7935.9	
453.88	6470.9	
454.08	6533.7	
454.28	8356.4	
454.48	8162.5	
454.68	6817.7	
454.88	6987	
455.08	8469.7	
455.28	8398	
455.48	6384.2	
455.68	6916.7	
455.89	8803.5	
456.09	8576.2	
456.29	6797.2	
456.49	6899.6	
456.69	8871.8	
456.89	8312	
457.09	7138.5	
457.29	7496.2	
457.49	8555.7	
457.69	8665.6	
457.89	7263.5	
458.09	6784.9	
458.29	8772.1	
458.49	9136	
458.69	7477.8	
458.89	7141.3	
459.09	9321.7	
459.29	9308.7	
459.49	7185.6	
459.69	7685.3	
459.9	9004.2	
460.1	8957.1	
460.3	7157.7	
460.5	7016.3	
460.7	9086.8	
460.9	8803.5	
461.1	6849.8	
461.3	7615.7	
461.5	9542.9	
461.7	9232.2	
461.9	7346.1	
462.1	7470.3	
462.3	9100.5	
462.5	9496.4	
462.7	7344.7	
462.9	7458.7	
463.1	10025	
463.3	9947.7	
463.5	7682.6	
463.7	8332.5	
463.9	9434.3	
464.1	9595.4	
464.3	7988.4	
464.5	7952.9	
464.7	9748.3	
464.9	9849.4	
465.1	8787.2	
465.3	8236.2	
465.5	9979.1	
465.7	10210	
465.9	8451.3	
466.1	8077.2	
466.3	10068	
466.5	9854.8	
466.7	8989.2	
466.9	8300.4	
467.1	10159	
467.3	10484	
467.5	8928.5	
467.7	8295	
467.9	10716	
468.1	11047	
468.3	8729.8	
468.5	9015.8	
468.7	10032	
468.9	10003	
469.1	8684.1	
469.3	9053.4	
469.5	11252	
469.7	10032	
469.9	8822	
470.1	8503.8	
470.3	10263	
470.5	10162	
470.7	9185.8	
470.9	8615.1	
471.1	10088	
471.3	10163	
471.5	8454.7	
471.69	9327.1	
471.89	10064	
472.09	9596.8	
472.29	8811.7	
472.49	8776.2	
472.69	9739.5	
472.89	10092	
473.09	8405.5	
473.29	8284	
473.49	9836.4	
473.69	9615.9	
473.89	8632.9	
474.09	8267	
474.29	10475	
474.49	10163	
474.69	8730.5	
474.89	8269.7	
475.09	9732.6	
475.29	9787.2	
475.49	8053.3	
475.69	8235.6	
475.88	10498	
476.08	9914.2	
476.28	7984.3	
476.48	8015.1	
476.68	10102	
476.88	9906.7	
477.08	8122.2	
477.28	8288.8	
477.48	9639.1	
477.68	9859.6	
477.88	7931.1	
478.08	8006.9	
478.28	10122	
478.48	9615.2	
478.67	8129.8	
478.87	7596.6	
479.07	10089	
479.27	9663.7	
479.47	8141.4	
479.67	8250.6	
479.87	9895.1	
480.07	10234	
480.27	7791.2	
480.47	8532.5	
480.67	9594.7	
480.87	10093	
481.06	8030.8	
481.26	8409.6	
481.46	9787.2	
481.66	9662.3	
481.86	8260.8	
482.06	8596.7	
482.26	9523.7	
482.46	9880.1	
482.66	8085.4	
482.86	7849.9	
483.05	9851.4	
483.25	9361.3	
483.45	9344.2	
483.65	8092.2	
483.85	9507.4	
484.05	9628.2	
484.25	8389.2	
484.45	8667.7	
484.65	9986.6	
484.84	10292	
485.04	8148.2	
485.24	8144.8	
485.44	10389	
485.64	9500.5	
485.84	7918.8	
486.04	8535.9	
486.24	9650	
486.44	9887.6	
486.63	7899.7	
486.83	8419.9	
487.03	9777.7	
487.23	9979.8	
487.43	8018.5	
487.63	9206.3	
487.83	10035	
488.02	10065	
488.22	8621.3	
488.42	9026.1	
488.62	10424	
488.82	9803.6	
489.02	8427.4	
489.22	8538	
489.41	10266	
489.61	10328	
489.81	8336.6	
490.01	8342.1	
490.21	10446	
490.41	10897	
490.61	8497.7	
490.8	8407.6	
491	10352	
491.2	9822.7	
491.4	8715.5	
491.6	8269	
491.8	10139	
491.99	10032	
492.19	8131.8	
492.39	8246.5	
492.59	10253	
492.79	10379	
492.99	8701.8	
493.18	8302.5	
493.38	10466	
493.58	10992	
493.78	8756.4	
493.98	8533.2	
494.18	10360	
494.37	10093	
494.57	9060.2	
494.77	8899.8	
494.97	10759	
495.17	10918	
495.37	8933.9	
495.56	8974.2	
495.76	11062	
495.96	11030	
496.16	9799.5	
496.36	9207	
496.55	11233	
496.75	10876	
496.95	9435.7	
497.15	9323	
497.35	11172	
497.54	11205	
497.74	9299.1	
497.94	10229	
498.14	11643	
498.34	11363	
498.53	9195.4	
498.73	9577.7	
498.93	10862	
499.13	11215	
499.33	9568.1	
499.52	9716.9	
499.72	11446	
499.92	11386	
500.12	9293.7	
500.32	9480	
500.51	11344	
500.71	11323	
500.91	9994.8	
501.11	9777	
501.31	11458	
501.5	11673	
501.7	10212	
501.9	9634.3	
502.1	11185	
502.29	11401	
502.49	9932.6	
502.69	9958.6	
502.89	11364	
503.09	11438	
503.28	9161.9	
503.48	9241.1	
503.68	10963	
503.88	10873	
504.07	9725.1	
504.27	9358.5	
504.47	11058	
504.67	11062	
504.86	9687.6	
505.06	9337.4	
505.26	10955	
505.46	11613	
505.65	9286.9	
505.85	9266.4	
506.05	10751	
506.25	10970	
506.44	8875.9	
506.64	9160.6	
506.84	10548	
507.04	10855	
507.23	8798.1	
507.43	9088.2	
507.63	11426	
507.83	10258	
508.02	9029.5	
508.22	8828.1	
508.42	11594	
508.62	10163	
508.81	8831.5	
509.01	9172.9	
509.21	10086	
509.4	10355	
509.6	8982.4	
509.8	8684.8	
510	10183	
510.19	10957	
510.39	8489.5	
510.59	8731.9	
510.79	10216	
510.98	11056	
511.18	8781.7	
511.38	8807.6	
511.57	10901	
511.77	10450	
511.97	9056.1	
512.17	8701.8	
512.36	10750	
512.56	10452	
512.76	8549.6	
512.95	8423.3	
513.15	10808	
513.35	9903.3	
513.55	9029.5	
513.74	8611.7	
513.94	10783	
514.14	10318	
514.33	9137.4	
514.53	9023.4	
514.73	10417	
514.92	10462	
515.12	8769.4	
515.32	8685.4	
515.51	10625	
515.71	10649	
515.91	9605	
516.11	8743.5	
516.3	11424	
516.5	10397	
516.7	9100.5	
516.89	9344.2	
517.09	10347	
517.29	10464	
517.48	9139.4	
517.68	8924.4	
517.88	10111	
518.07	10652	
518.27	9198.8	
518.47	8737.3	
518.66	10848	
518.86	10202	
519.06	8618.5	
519.25	8738.7	
519.45	10409	
519.65	11213	
519.84	9244.5	
520.04	9536.7	
520.24	11417	
520.43	10719	
520.63	9037.7	
520.83	8880.7	
521.02	10426	
521.22	10579	
521.42	9101.2	
521.61	9325.8	
521.81	10440	
522.01	10399	
522.2	9019.3	
522.4	8842.4	
522.6	10720	
522.79	10021	
522.99	8951.7	
523.18	8667	
523.38	10689	
523.58	10632	
523.77	9764	
523.97	8729.8	
524.17	11781	
524.36	11382	
524.56	9602.2	
524.76	9450.7	
524.95	10890	
525.15	10778	
525.34	9469.8	
525.54	9570.8	
525.74	11353	
525.93	10785	
526.13	10137	
526.33	9508	
526.52	11672	
526.72	11369	
526.91	10341	
527.11	9855.5	
527.31	11556	
527.5	11946	
527.7	9915.6	
527.89	9477.3	
528.09	11097	
528.29	11404	
528.48	10165	
528.68	9882.8	
528.87	11644	
529.07	11741	
529.27	10021	
529.46	9652.1	
529.66	11587	
529.85	11736	
530.05	9626.8	
530.25	10019	
530.44	12437	
530.64	11481	
530.83	9968.8	
531.03	9973.6	
531.23	11942	
531.42	11599	
531.62	10378	
531.81	10044	
532.01	11832	
532.21	11999	
532.4	10045	
532.6	10214	
532.79	12480	
532.99	12190	
533.18	10376	
533.38	10840	
533.58	11906	
533.77	12410	
533.97	10582	
534.16	10925	
534.36	12616	
534.55	12055	
534.75	11037	
534.95	10472	
535.14	12678	
535.34	12105	
535.53	10345	
535.73	11357	
535.92	13016	
536.12	12011	
536.31	10454	
536.51	10955	
536.71	12332	
536.9	11972	
537.1	10449	
537.29	10564	
537.49	12543	
537.68	11898	
537.88	10656	
538.07	10202	
538.27	12260	
538.46	12621	
538.66	10105	
538.86	10504	
539.05	12264	
539.25	12445	
539.44	10810	
539.64	10383	
539.83	12094	
540.03	12553	
540.22	10348	
540.42	10247	
540.61	12085	
540.81	12280	
541	10546	
541.2	11003	
541.39	11746	
541.59	11966	
541.78	10765	
541.98	10193	
542.18	11730	
542.37	11508	
542.57	10340	
542.76	10686	
542.96	11654	
543.15	11824	
543.35	10207	
543.54	9922.4	
543.74	11383	
543.93	11688	
544.13	9993.4	
544.32	10577	
544.52	11729	
544.71	11260	
544.91	9585.2	
545.1	10058	
545.3	11370	
545.49	11539	
545.69	9307.3	
545.88	9692.4	
546.08	12147	
546.27	11714	
546.47	9968.8	
546.66	9542.9	
546.86	11633	
547.05	11811	
547.24	9605	
547.44	9786.6	
547.63	11032	
547.83	11618	
548.02	9759.9	
548.22	9827.5	
548.41	10928	
548.61	11613	
548.8	9566.7	
549	9503.9	
549.19	11288	
549.39	11482	
549.58	9209	
549.78	9606.3	
549.97	11349	
550.17	11045	
550.36	9977	
550.55	10542	
550.75	11022	
550.94	11427	
551.14	9262.3	
551.33	9398.8	
551.53	10626	
551.72	11204	
551.92	9356.5	
552.11	9353.1	
552.31	11233	
552.5	11068	
552.69	10245	
552.89	9093	
553.08	11204	
553.28	10892	
553.47	9343.5	
553.67	9927.9	
553.86	11297	
554.06	10462	
554.25	8835.6	
554.44	9116.2	
554.64	11826	
554.83	11484	
555.03	9090.3	
555.22	9315.5	
555.42	11152	
555.61	10885	
555.8	9251.4	
556	9195.4	
556.19	10495	
556.39	10950	
556.58	9144.9	
556.78	9149.6	
556.97	10861	
557.16	10679	
557.36	9639.8	
557.55	8971.5	
557.75	10274	
557.94	11329	
558.13	8992.6	
558.33	8870.4	
558.52	11207	
558.72	10288	
558.91	8847.9	
559.1	8892.3	
559.3	10249	
559.49	10188	
559.69	8692.9	
559.88	9119.6	
560.07	10690	
560.27	10897	
560.46	9148.3	
560.66	9098.4	
560.85	10570	
561.04	9881.4	
561.24	8659.5	
561.43	8712.7	
561.63	10084	
561.82	10373	
562.01	9305.3	
562.21	8862.9	
562.4	10411	
562.59	11089	
562.79	8793.3	
562.98	8659.5	
563.18	10426	
563.37	11157	
563.56	8921	
563.76	8638.3	
563.95	10241	
564.14	10202	
564.34	8933.2	
564.53	8665.6	
564.73	10464	
564.92	10615	
565.11	8869.8	
565.31	8532.5	
565.5	10848	
565.69	10073	
565.89	8643.1	
566.08	8832.2	
566.27	10671	
566.47	11000	
566.66	9206.3	
566.85	8525	
567.05	10615	
567.24	10320	
567.44	8591.9	
567.63	9400.9	
567.82	10639	
568.02	10322	
568.21	8531.2	
568.4	8776.2	
568.6	10421	
568.79	10245	
568.98	8587.1	
569.18	8548.9	
569.37	10348	
569.56	11422	
569.76	8791.2	
569.95	9303.9	
570.14	10443	
570.34	10339	
570.53	8477.2	
570.72	8433.5	
570.91	10774	
571.11	10301	
571.3	8752.3	
571.49	9161.9	
571.69	10316	
571.88	9798.2	
572.07	8985.8	
572.27	8843.8	
572.46	9900.6	
572.65	10447	
572.85	8550.3	
573.04	8646.5	
573.23	10598	
573.43	10273	
573.62	8533.9	
573.81	8662.9	
574	10383	
574.2	10054	
574.39	8669.7	
574.58	8591.2	
574.78	10670	
574.97	10275	
575.16	8858.1	
575.36	8981.7	
575.55	10664	
575.74	10607	
575.93	8323.6	
576.13	9084.1	
576.32	10219	
576.51	10454	
576.71	8705.2	
576.9	9357.9	
577.09	10804	
577.28	10423	
577.48	8961.2	
577.67	8379.6	
577.86	10302	
578.05	10509	
578.25	8796	
578.44	8739.4	
578.63	10304	
578.83	11026	
579.02	8481.3	
579.21	9299.1	
579.4	10293	
579.6	10242	
579.79	8686.8	
579.98	9994.1	
580.17	10495	
580.37	10804	
580.56	8473.1	
580.75	8925	
580.94	10720	
581.14	10896	
581.33	9101.9	
581.52	8609	
581.71	10555	
581.91	10974	
582.1	8514.8	
582.29	8793.3	
582.48	10307	
582.68	10403	
582.87	9019.9	
583.06	8970.8	
583.25	10697	
583.45	10203	
583.64	9349	
583.83	9724.4	
584.02	10495	
584.21	10714	
584.41	9200.8	
584.6	8925.7	
584.79	10464	
584.98	10726	
585.18	8563.2	
585.37	8495.7	
585.56	10297	
585.75	10576	
585.94	8683.4	
586.14	9002.2	
586.33	10832	
586.52	10324	
586.71	9030.2	
586.91	8776.9	
587.1	9867.8	
587.29	10553	
587.48	8538.7	
587.67	8480	
587.87	10367	
588.06	10168	
588.25	9200.8	
588.44	8708.6	
588.63	10038	
588.83	10345	
589.02	8348.9	
589.21	8133.2	
589.4	9803.6	
589.59	9645.9	
589.78	7604.8	
589.98	7717.4	
590.17	9101.9	
590.36	9292.3	
590.55	7008.1	
590.74	7466.2	
590.94	9710.8	
591.13	8948.3	
591.32	7232.7	
591.51	6994.5	
591.7	9229.5	
591.89	8924.4	
592.09	7041.6	
592.28	7290.8	
592.47	8436.9	
592.66	9632.3	
592.85	7038.2	
593.05	7150.8	
593.24	8873.8	
593.43	9459.6	
593.62	7311.2	
593.81	7518.8	
594	9024	
594.19	9089.6	
594.39	7261.4	
594.58	7144	
594.77	9185.8	
594.96	9363.3	
595.15	7131.7	
595.34	7498.3	
595.54	9013.1	
595.73	8596.7	
595.92	6734.4	
596.11	7382.2	
596.3	9361.9	
596.49	8692.3	
596.68	7247.1	
596.88	7416.4	
597.07	9056.8	
597.26	8566	
597.45	7100.3	
597.64	7632.1	
597.83	8761.2	
598.02	9045.2	
598.22	7063.4	
598.41	7387.7	
598.6	9022	
598.79	8620.6	
598.98	7096.9	
599.17	7617.8	
599.36	8990.6	
599.55	9525.8	
599.74	8130.4	
599.94	8075.8	
600.13	9344.2	
600.32	8640.4	
600.51	7053.2	
600.7	7003.4	
600.89	9509.4	
601.08	9611.1	
601.27	6952.2	
601.47	7402	
601.66	9229.5	
601.85	9381.1	
602.04	7384.3	
602.23	7405.5	
602.42	8736	
602.61	9114.1	
602.8	7262.8	
602.99	7234.8	
603.18	8950.3	
603.37	8944.2	
603.57	7447.1	
603.76	7813.7	
603.95	9383.8	
604.14	9103.9	
604.33	7264.8	
604.52	7340.6	
604.71	9038.4	
604.9	8820.6	
605.09	7643	
605.28	7564.5	
605.47	9448	
605.66	8975.6	
605.86	7577.5	
606.05	7271.7	
606.24	9406.3	
606.43	8459.5	
606.62	7421.2	
606.81	7727.7	
607	9290.3	
607.19	8795.3	
607.38	7001.3	
607.57	7107.8	
607.76	8610.3	
607.95	8304.5	
608.14	7469.6	
608.33	7651.2	
608.52	8557.1	
608.72	9118.2	
608.91	6898.9	
609.1	6892.8	
609.29	8706.6	
609.48	8352.3	
609.67	7363.1	
609.86	6914.6	
610.05	8439	
610.24	8527.7	
610.43	6799.3	
610.62	6642.9	
610.81	9185.8	
611	9071.8	
611.19	6893.5	
611.38	7219.1	
611.57	8883.4	
611.76	9329.9	
611.95	6734.4	
612.14	6633.4	
612.33	8596.7	
612.52	8292.9	
612.71	6879.1	
612.9	6596.5	
613.09	8168.7	
613.28	9439.8	
613.47	6878.4	
613.66	7362.4	
613.85	8712.1	
614.04	8281.3	
614.24	6815.6	
614.43	6348	
614.62	8660.9	
614.81	8563.2	
615	7037.5	
615.19	7136.5	
615.38	8325	
615.57	8469.7	
615.76	7062.8	
615.95	7539.3	
616.14	8743.5	
616.33	8469	
616.52	7238.2	
616.71	7282.6	
616.9	8690.2	
617.09	8591.2	
617.28	6874.3	
617.47	7396.6	
617.66	8244.4	
617.85	8161.8	
618.04	7338.6	
618.22	6997.9	
618.41	8402.1	
618.6	8928.5	
618.79	6982.2	
618.98	6879.8	
619.17	9154.4	
619.36	8128.4	
619.55	7055.9	
619.74	7075.7	
619.93	8656.8	
620.12	8300.4	
620.31	7245.7	
620.5	7358.4	
620.69	9042.5	
620.88	9327.8	
621.07	7743.4	
621.26	7297.6	
621.45	8854.1	
621.64	8822	
621.83	7401.4	
622.02	6914.6	
622.21	8871.1	
622.4	8763.3	
622.59	7678.5	
622.78	7564.5	
622.97	8486.8	
623.16	8970.1	
623.35	7473	
623.54	6819.7	
623.72	8619.2	
623.91	8668.4	
624.1	7493.5	
624.29	6763.8	
624.48	9258.9	
624.67	8916.9	
624.86	7327.6	
625.05	6834.8	
625.24	9488.9	
625.43	8579.6	
625.62	8255.4	
625.81	7027.3	
626	8936	
626.19	8637.6	
626.38	7382.9	
626.56	7135.8	
626.75	8398	
626.94	8931.9	
627.13	7391.8	
627.32	6692.1	
627.51	8833.6	
627.7	9335.3	
627.89	6680.5	
628.08	7314.7	
628.27	8258.8	
628.46	8392.6	
628.65	6741.9	
628.83	6479.1	
629.02	8731.2	
629.21	8240.3	
629.4	7025.9	
629.59	7141.3	
629.78	8272.4	
629.97	8736.6	
630.16	7107.8	
630.35	6868.2	
630.54	9116.9	
630.72	8915.5	
630.91	6948.1	
631.1	7181.5	
631.29	8548.2	
631.48	8639.7	
631.67	7294.9	
631.86	6831.3	
632.05	8534.6	
632.24	8502.5	
632.42	6713.9	
632.61	7044.3	
632.8	8380.3	
632.99	8177.5	
633.18	7079.1	
633.37	7285.3	
633.56	8647.2	
633.75	8579.6	
633.93	7032	
634.12	7002	
634.31	9062.9	
634.5	8854.7	
634.69	7012.9	
634.88	7248.4	
635.07	8562.6	
635.25	8781	
635.44	7402	
635.63	7529.7	
635.82	8429.4	
636.01	7690.8	
636.2	7340.6	
636.39	7187.7	
636.57	9148.3	
636.76	8614.4	
636.95	6799.9	
637.14	7455.3	
637.33	8699.1	
637.52	9044.5	
637.7	6641.6	
637.89	7319.4	
638.08	8475.9	
638.27	9217.9	
638.46	7296.9	
638.65	7386.3	
638.83	9191.3	
639.02	8336.6	
639.21	7201.3	
639.4	7314.7	
639.59	8574.2	
639.78	8309.3	
639.96	6710.5	
640.15	6752.8	
640.34	8391.2	
640.53	8361.2	
640.72	6597.2	
640.91	6700.3	
641.09	7931.8	
641.28	8725.7	
641.47	6810.9	
641.66	7107.1	
641.85	8378.2	
642.03	8421.2	
642.22	6873	
642.41	6724.2	
642.6	8066.3	
642.79	7720.2	
642.97	6569.9	
643.16	6859.3	
643.35	7931.1	
643.54	7830.1	
643.73	6405.4	
643.91	6816.3	
644.1	7755.7	
644.29	8107.2	
644.48	6348	
644.67	6402.6	
644.85	7608.2	
645.04	7960.5	
645.23	6067.4	
645.42	6295.5	
645.6	7634.1	
645.79	8196.7	
645.98	6053.8	
646.17	5573.2	
646.36	7332.4	
646.54	7539.3	
646.73	6410.8	
646.92	5824.4	
647.11	7310.6	
647.29	7793.9	
647.48	5721.3	
647.67	5644.2	
647.86	7965.9	
648.05	7845.8	
648.23	5926.1	
648.42	6593.8	
648.61	7594.6	
648.8	7475.1	
648.98	5676.3	
649.17	5877	
649.36	7229.3	
649.55	7042.3	
649.73	5752.1	
649.92	6066.1	
650.11	7210.2	
650.3	7402.7	
650.48	5797.1	
650.67	5728.9	
650.86	7528.3	
651.05	6848.4	
651.23	5761.6	
651.42	5645.6	
651.61	7219.1	
651.79	7027.9	
651.98	5871.5	
652.17	5526.8	
652.36	7432.1	
652.54	6806.1	
652.73	5671.5	
652.92	5575.9	
653.11	7305.8	
653.29	7430	
653.48	5372.5	
653.67	5808.7	
653.85	7140.6	
654.04	7755	
654.23	5812.1	
654.42	5603.2	
654.6	6845	
654.79	7176.1	
654.98	5237.3	
655.16	5566.4	
655.35	6640.9	
655.54	6419.7	
655.73	5157.5	
655.91	5162.2	
656.1	7065.5	
656.29	6350.1	
656.47	4981.3	
656.66	5902.9	
656.85	6649.8	
657.03	6633.4	
657.22	5270.8	
657.41	5380.7	
657.59	6782.9	
657.78	6700.3	
657.97	5149.3	
658.16	5498.1	
658.34	7163.1	
658.53	7325.6	
658.72	6025.1	
658.9	6302.3	
659.09	7014.3	
659.28	6952.9	
659.46	5436.7	
659.65	5381.4	
659.84	6811.5	
660.02	7279.2	
660.21	5401.9	
660.4	5245.5	
660.58	7323.5	
660.77	6888.7	
660.96	5660.6	
661.14	5126.7	
661.33	7591.8	
661.52	7444.4	
661.7	5082.4	
661.89	6838.9	
662.08	6722.1	
662.26	6318	
662.45	5302.2	
662.64	5334.3	
662.82	7200	
663.01	6587	
663.2	5328.1	
663.38	5596.4	
663.57	6965.1	
663.75	6909.8	
663.94	5436	
664.13	6049.7	
664.31	6789	
664.5	7066.9	
664.69	5585.5	
664.87	5909.8	
665.06	6553.5	
665.25	6935.1	
665.43	6010.8	
665.62	5853.8	
665.8	6995.2	
665.99	6702.3	
666.18	5412.8	
666.36	5369.1	
666.55	6961.7	
666.74	6905.1	
666.92	5187.5	
667.11	6077	
667.29	6714.6	
667.48	7002	
667.67	5701.5	
667.85	5275.6	
668.04	6562.4	
668.22	6591.7	
668.41	5520.6	
668.6	5579.3	
668.78	6571.9	
668.97	6737.1	
669.15	5473.5	
669.34	4975.9	
669.53	6551.5	
669.71	6744.6	
669.9	5068.7	
670.08	5389.6	
670.27	6409.5	
670.46	6861.4	
670.64	5578	
670.83	5688.6	
671.01	6370.5	
671.2	6685.9	
671.38	5119.9	
671.57	5066.7	
671.76	7049.1	
671.94	7296.9	
672.13	5017.5	
672.31	5601.9	
672.5	6873	
672.69	6493.4	
672.87	5087.2	
673.06	5214.1	
673.24	6778.8	
673.43	6568.5	
673.61	5406	
673.8	5106.3	
673.98	6754.2	
674.17	6916	
674.36	5540.4	
674.54	5482.4	
674.73	6509.8	
674.91	6954.9	
675.1	5216.2	
675.28	5003.2	
675.47	6584.2	
675.65	6859.3	
675.84	5260.5	
676.03	5308.3	
676.21	6486.6	
676.4	6111.8	
676.58	5566.4	
676.77	5565.7	
676.95	7346.1	
677.14	6470.2	
677.32	4904.2	
677.51	5006.6	
677.69	6868.2	
677.88	6288.6	
678.06	4930.1	
678.25	5072.8	
678.44	6472.3	
678.62	6374	
678.81	4850.3	
678.99	5412.1	
679.18	6971.3	
679.36	6790.4	
679.55	5147.2	
679.73	5367	
679.92	6710.5	
680.1	6463.4	
680.29	5752.7	
680.47	5130.2	
680.66	6421.7	
680.84	6802.7	
681.03	4815.5	
681.21	5369.1	
681.4	6466.1	
681.58	6302.3	
681.77	4937.7	
681.95	5020.3	
682.14	6890.7	
682.32	6973.3	
682.51	5473.5	
682.69	4866	
682.88	6327.5	
683.06	6530.3	
683.25	5297.4	
683.43	5504.9	
683.62	6602	
683.8	6726.2	
683.99	5631.2	
684.17	5199.1	
684.36	7092.8	
684.54	6518.7	
684.73	4726.7	
684.91	4785.4	
685.1	6488	
685.28	6066.1	
685.46	5019.6	
685.65	5026.4	
685.83	6447	
686.02	6161.7	
686.2	4616.8	
686.39	4656.4	
686.57	5803.9	
686.76	6672.3	
686.94	4670.1	
687.13	4762.9	
687.31	6365.8	
687.5	6177.4	
687.68	4497.3	
687.86	5037.3	
688.05	7159.7	
688.23	5906.3	
688.42	5255.1	
688.6	4790.2	
688.79	6090.7	
688.97	6125.5	
689.16	5036	
689.34	4508.3	
689.52	6481.8	
689.71	6781.5	
689.89	5230.5	
690.08	4821.6	
690.26	6410.8	
690.45	6168.5	
690.63	5240.1	
690.81	4960.9	
691	6322.1	
691.18	6217.6	
691.37	5034.6	
691.55	6087.2	
691.74	6083.1	
691.92	7197.2	
692.1	4941.7	
692.29	4715.1	
692.47	6348.7	
692.66	5866.7	
692.84	4835.9	
693.02	5019.6	
693.21	5921.4	
693.39	6307.7	
693.58	5173.2	
693.76	4816.8	
693.94	6906.4	
694.13	6868.9	
694.31	4950.6	
694.5	5502.2	
694.68	6246.3	
694.86	6554.2	
695.05	5233.2	
695.23	5503.6	
695.42	6820.4	
695.6	7970.7	
695.78	5586.9	
695.97	5160.2	
696.15	6899.6	
696.34	6504.3	
696.52	5087.8	
696.7	5496.1	
696.89	6712.6	
697.07	6319.3	
697.25	5411.4	
697.44	6141.9	
697.62	6752.8	
697.81	6671.6	
697.99	5231.9	
698.17	5451	
698.36	6407.4	
698.54	6660	
698.72	5427.8	
698.91	4829.1	
699.09	6488.6	
699.28	6276.3	
699.46	5216.2	
699.64	5099.4	
699.83	6463.4	
700.01	6873.7	
700.19	5653.1	
700.38	4785.4	
700.56	6958.3	
700.74	6504.3	
700.93	5001.8	
701.11	5481.7	
701.29	6780.8	
701.48	7421.8	
701.66	5145.2	
701.84	5370.5	
702.03	6657.3	
702.21	7075	
702.39	5096	
702.58	5395	
702.76	7059.3	
702.94	6927.6	
703.13	5096.7	
703.31	6405.4	
703.49	6673	
703.68	7171.3	
703.86	5328.1	
704.04	5749.3	
704.23	6838.9	
704.41	7091.4	
704.59	5418.9	
704.78	5861.3	
704.96	7895.6	
705.14	7008.8	
705.33	5276.9	
705.51	5690.6	
705.69	6799.9	
705.87	7353.6	
706.06	5767.8	
706.24	5282.4	
706.42	6982.2	
706.61	7089.4	
706.79	5843.5	
706.97	5203.9	
707.16	6722.8	
707.34	7027.3	
707.52	5770.5	
707.7	5398.4	
707.89	6765.1	
708.07	6618.4	
708.25	5890.6	
708.44	6019.7	
708.62	6698.2	
708.8	7401.4	
708.98	5949.3	
709.17	5554.1	
709.35	6983.6	
709.53	7010.9	
709.72	5403.9	
709.9	5414.1	
710.08	7245.7	
710.26	7193.1	
710.45	6160.3	
710.63	5549.3	
710.81	6872.3	
710.99	7020.4	
711.18	5911.8	
711.36	5467.4	
711.54	6854.6	
711.72	7240.9	
711.91	5613.5	
712.09	5246.9	
712.27	6969.2	
712.45	7168.6	
712.64	5681.1	
712.82	5099.4	
713	6587.6	
713.18	6604	
713.37	5019.6	
713.55	5779.4	
713.73	6982.9	
713.91	6266.1	
714.1	5150.6	
714.28	4717.8	
714.46	6552.1	
714.64	6080.4	
714.83	4383.3	
715.01	4631.1	
715.19	6032.6	
715.37	5566.4	
715.55	4390.8	
715.74	4479.6	
715.92	6337.8	
716.1	5125.4	
716.28	5177.3	
716.47	4513	
716.65	5662	
716.83	5563.6	
717.01	4523.3	
717.19	4453	
717.38	6834.8	
717.56	5430.5	
717.74	4572.4	
717.92	4190.1	
718.1	6206.7	
718.29	5735.7	
718.47	4073.4	
718.65	4425	
718.83	6297.5	
719.01	6309.8	
719.2	4151.9	
719.38	4734.9	
719.56	6178.7	
719.74	7103.7	
719.92	4664.6	
720.11	5171.8	
720.29	6322.1	
720.47	5752.1	
720.65	4270	
720.83	4658.4	
721.02	5893.4	
721.2	5787.6	
721.38	4643.4	
721.56	4175.1	
721.74	5358.2	
721.92	5299.5	
722.11	4866.7	
722.29	4668	
722.47	6158.9	
722.65	5636.7	
722.83	4240.7	
723.01	4599.1	
723.2	5626.5	
723.38	5912.5	
723.56	3929.4	
723.74	4444.1	
723.92	5366.4	
724.1	5976	
724.29	4140.3	
724.47	4724	
724.65	5569.8	
724.83	5397.8	
725.01	4128.7	
725.19	4472.1	
725.37	5345.2	
725.56	5290.6	
725.74	4027	
725.92	4152.6	
726.1	5423.7	
726.28	5605.3	
726.46	4370.4	
726.64	4180.6	
726.83	5646.2	
727.01	5696.1	
727.19	4099.4	
727.37	4524.6	
727.55	5734.3	
727.73	6003.3	
727.91	4061.1	
728.09	3926	
728.28	6008.7	
728.46	6058.6	
728.64	4528.1	
728.82	4535.6	
729	6587	
729.18	6270.9	
729.36	4145.8	
729.54	5337.7	
729.72	6866.2	
729.91	5823.1	
730.09	5340.4	
730.27	4612.7	
730.45	5909.1	
730.63	6244.9	
730.81	5042.1	
730.99	4502.8	
731.17	6623.1	
731.35	5781.4	
731.53	4780	
731.71	4496.7	
731.9	6410.8	
732.08	6410.1	
732.26	4739	
732.44	4519.9	
732.62	6436.1	
732.8	6223.8	
732.98	4907.6	
733.16	4401.1	
733.34	6168.5	
733.52	5383.4	
733.7	4614.8	
733.88	4688.5	
734.07	6100.9	
734.25	5906.3	
734.43	4311	
734.61	5096.7	
734.79	6733	
734.97	5905	
735.15	4395.6	
735.33	4587.4	
735.51	6100.9	
735.69	5906.3	
735.87	5191.6	
736.05	4683	
736.23	5963	
736.41	5739.8	
736.59	4664.6	
736.77	4621.6	
736.95	6301.6	
737.13	5866.7	
737.32	4327.4	
737.5	4494.6	
737.68	6578.1	
737.86	5825.8	
738.04	4271.4	
738.22	5243.5	
738.4	5773.2	
738.58	5925.5	
738.76	4586.8	
738.94	4037.9	
739.12	5799.2	
739.3	5753.4	
739.48	4947.2	
739.66	4745.1	
739.84	5961.6	
740.02	5915.2	
740.2	4141.7	
740.38	4278.9	
740.56	6083.8	
740.74	5261.9	
740.92	4673.5	
741.1	4508.9	
741.28	5833.3	
741.46	5600.5	
741.64	4298.7	
741.82	4609.3	
742	5819	
742.18	5646.2	
742.36	4358.1	
742.54	4283	
742.72	6135.7	
742.9	5259.9	
743.08	4588.1	
743.26	3902.7	
743.44	6032	
743.62	6039.5	
743.8	4690.5	
743.98	4146.5	
744.16	5856.5	
744.34	5621.7	
744.52	4532.2	
744.7	4552.6	
744.88	5964.4	
745.06	5602.6	
745.24	4486.4	
745.42	4585.4	
745.6	6008.1	
745.78	5858.6	
745.96	3945.1	
746.14	4049.5	
746.32	6363.7	
746.5	5737.7	
746.68	4338.3	
746.86	4065.9	
747.03	5924.1	
747.21	5113.1	
747.39	4304.8	
747.57	3898.6	
747.75	5552.7	
747.93	5784.8	
748.11	3965.6	
748.29	3919.8	
748.47	6579.4	
748.65	5414.8	
748.83	4364.2	
749.01	4209.9	
749.19	5716.6	
749.37	5147.2	
749.55	4224.3	
749.73	4188.8	
749.91	5562.3	
750.09	5451.7	
750.26	4186	
750.44	3873.4	
750.62	5514.5	
750.8	5385.5	
750.98	3785.3	
751.16	3958	
751.34	5644.2	
751.52	5167	
751.7	4390.8	
751.88	3711.6	
752.06	5856.5	
752.24	5662	
752.42	3620.1	
752.59	3925.3	
752.77	5461.9	
752.95	6090	
753.13	4372.4	
753.31	3971.7	
753.49	5287.2	
753.67	5422.3	
753.85	4075.5	
754.03	3818.8	
754.21	5640.8	
754.38	5738.4	
754.56	3747.8	
754.74	3311.6	
754.92	5070.8	
755.1	5310.4	
755.28	3269.2	
755.46	3146.4	
755.64	5748.6	
755.82	5723.4	
755.99	3234.4	
756.17	3190.1	
756.35	4156.7	
756.53	4939	
756.71	2509.4	
756.89	3212.6	
757.07	4704.2	
757.25	4162.2	
757.42	3379.1	
757.6	3850.9	
757.78	4795.7	
757.96	4235.9	
758.14	3174.4	
758.32	2899.9	
758.5	4008.6	
758.67	4511	
758.85	3121.8	
759.03	3079.5	
759.21	4625.7	
759.39	4230.4	
759.57	2855.6	
759.75	3515.7	
759.92	4995	
760.1	4697.4	
760.28	3680.2	
760.46	3822.2	
760.64	4515.8	
760.82	4375.1	
760.99	3676.8	
761.17	3239.9	
761.35	5108.3	
761.53	4407.2	
761.71	3446	
761.89	3719.1	
762.06	4954	
762.24	4669.4	
762.42	3489.7	
762.6	3289	
762.78	4726.7	
762.96	5064.6	
763.13	3710.9	
763.31	3406.5	
763.49	5203.2	
763.67	4706.2	
763.85	3969.6	
764.02	4228.4	
764.2	5399.1	
764.38	4767	
764.56	3443.3	
764.74	3915	
764.91	5368.4	
765.09	4753.3	
765.27	3298.6	
765.45	3054.9	
765.63	5487.2	
765.8	5246.2	
765.98	3052.2	
766.16	3129.3	
766.34	4474.1	
766.52	4355.3	
766.69	3645.4	
766.87	3050.8	
767.05	4808.6	
767.23	5105.6	
767.41	3267.2	
767.58	3451.5	
767.76	5026.4	
767.94	5087.8	
768.12	3295.9	
768.29	3623.5	
768.47	4567	
768.65	5165	
768.83	3039.9	
769	3628.3	
769.18	4485.7	
769.36	4888.5	
769.54	3650.8	
769.72	2989.4	
769.89	5143.8	
770.07	5016.8	
770.25	3244	
770.43	3938.9	
770.6	5461.9	
770.78	5638.7	
770.96	3350.5	
771.14	3654.9	
771.31	5009.3	
771.49	4622.3	
771.67	2843.9	
771.85	2936.8	
772.02	4107.5	
772.2	4521.2	
772.38	3426.3	
772.55	3061	
772.73	4730.8	
772.91	4549.9	
773.09	3252.9	
773.26	3354.6	
773.44	4689.8	
773.62	4560.1	
773.8	2988	
773.97	2929.3	
774.15	4736.3	
774.33	4554.7	
774.5	2902.7	
774.68	3110.2	
774.86	4775.2	
775.04	4500.1	
775.21	3000.3	
775.39	2891.7	
775.57	4671.4	
775.74	4735.6	
775.92	2841.2	
776.1	2746.3	
776.27	4595.6	
776.45	5276.9	
776.63	2972.3	
776.81	2729.9	
776.98	4487.1	
777.16	4956.1	
777.34	3013.9	
777.51	3198.9	
777.69	4349.2	
777.87	4211.3	
778.04	3136.8	
778.22	3310.9	
778.4	4259.1	
778.57	4655	
778.75	2622.8	
778.93	2746.3	
779.1	4208.6	
779.28	4049.5	
779.46	2626.2	
779.64	2814.6	
779.81	4769	
779.99	5188.9	
780.17	3282.2	
780.34	3330	
780.52	4466.6	
780.69	4463.9	
780.87	3093.1	
781.05	2816	
781.22	4515.8	
781.4	4463.9	
781.58	2921.1	
781.75	2387.2	
781.93	4527.4	
782.11	4000.4	
782.28	3379.1	
782.46	2850.1	
782.64	3934.1	
782.81	4531.5	
782.99	2991.4	
783.17	2852.8	
783.34	4439.3	
783.52	4098	
783.69	2912.9	
783.87	3412.6	
784.05	4116.4	
784.22	4132.1	
784.4	3431.7	
784.58	3031	
784.75	4674.8	
784.93	4168.3	
785.1	2822.8	
785.28	3164.1	
785.46	4556	
785.63	3992.9	
785.81	2874	
785.99	2708.1	
786.16	4242	
786.34	4372.4	
786.51	2770.9	
786.69	3028.3	
786.87	3901.4	
787.04	4239.3	
787.22	2710.1	
787.39	3215.3	
787.57	4114.4	
787.75	4614.8	
787.92	3325.9	
788.1	3266.5	
788.27	4044.1	
788.45	3771.7	
788.63	3155.9	
788.8	2415.2	
788.98	4390.8	
789.15	3734.1	
789.33	2497.8	
789.5	2788	
789.68	4618.2	
789.86	4664.6	
790.03	3085.6	
790.21	2757.2	
790.38	4653.7	
790.56	4129.4	
790.73	2685.6	
790.91	2675.3	
791.09	4105.5	
791.26	4397.7	
791.44	2806.4	
791.61	2469.2	
791.79	4092.5	
791.96	4057.7	
792.14	2557.9	
792.32	2323.8	
792.49	4026.3	
792.67	4151.2	
792.84	2680.8	
793.02	2529.2	
793.19	4349.2	
793.37	4695.3	
793.54	2304.6	
793.72	2540.2	
793.89	4661.2	
794.07	3984.7	
794.25	2880.8	
794.42	2403.6	
794.6	4623.6	
794.77	4364.9	
794.95	2951.8	
795.12	2652.8	
795.3	4041.3	
795.47	4328.7	
795.65	2919.7	
795.82	2790.7	
796	3946.4	
796.17	4907.6	
796.35	2756.6	
796.52	3178.4	
796.7	4364.9	
796.87	4437.3	
797.05	2785.2	
797.22	3244.7	
797.4	4441.4	
797.57	4928.1	
797.75	2889.7	
797.92	2676	
798.1	4583.4	
798.27	3830.4	
798.45	2432.3	
798.62	2514.2	
798.8	4238.6	
798.97	4418.8	
799.15	2909.5	
799.32	2851.5	
799.5	3803.8	
799.67	4139.6	
799.85	3011.9	
800.02	2392	
800.2	4024.9	
800.37	4101.4	
800.55	3041.2	
800.72	2705.4	
800.9	4437.3	
801.07	4666.6	
801.25	3402.4	
801.42	2908.8	
801.6	4502.1	
801.77	4146.5	
801.95	2699.9	
802.12	2597.5	
802.29	4290.5	
802.47	4158.1	
802.64	2949.8	
802.82	2326.5	
802.99	4055	
803.17	4436.6	
803.34	2839.2	
803.52	2547.7	
803.69	4831.2	
803.87	3790.1	
804.04	2826.2	
804.21	2809.1	
804.39	4705.5	
804.56	4022.2	
804.74	2484.9	
804.91	2897.9	
805.09	3999.7	
805.26	4014.7	
805.44	2549	
805.61	2693.1	
805.78	4441.4	
805.96	4321.2	
806.13	2839.2	
806.31	3074.7	
806.48	3701.4	
806.66	4016.1	
806.83	2897.9	
807	2789.3	
807.18	4024.3	
807.35	4152.6	
807.53	2747	
807.7	2377.7	
807.87	4669.4	
808.05	3984	
808.22	2969.6	
808.4	2405	
808.57	3955.3	
808.74	3771	
808.92	2650.8	
809.09	3241.3	
809.27	4048.8	
809.44	4248.9	
809.61	2402.3	
809.79	2567.5	
809.96	4805.2	
810.14	4319.8	
810.31	2364	
810.48	2967.5	
810.66	4011.3	
810.83	4395.6	
811.01	2603.7	
811.18	2830.3	
811.35	4463.2	
811.53	3604.4	
811.7	3070.6	
811.87	2831.7	
812.05	4138.9	
812.22	3990.8	
812.39	2581.1	
812.57	2496.5	
812.74	4070.7	
812.92	4896	
813.09	2761.3	
813.26	2805	
813.44	4749.9	
813.61	3902.7	
813.78	2379.1	
813.96	2925.2	
814.13	4090.5	
814.3	3889.1	
814.48	3161.4	
814.65	2706.7	
814.82	4661.9	
815	3760.8	
815.17	2783.9	
815.34	3222.1	
815.52	3975.1	
815.69	3922.5	
815.87	2712.9	
816.04	2718.3	
816.21	3939.6	
816.38	3706.1	
816.56	2682.8	
816.73	2544.9	
816.9	4857.1	
817.08	4356.7	
817.25	2618.7	
817.42	2989.4	
817.6	3734.1	
817.77	3898	
817.94	2816.6	
818.12	2513.5	
818.29	3893.2	
818.46	5124.7	
818.64	2698.5	
818.81	2475.3	
818.98	3897.3	
819.16	4992.3	
819.33	2908.8	
819.5	2746.3	
819.67	4229.7	
819.85	4513	
820.02	2779.8	
820.19	2859	
820.37	4201.1	
820.54	3951.2	
820.71	2847.4	
820.88	3354.6	
821.06	4112.3	
821.23	3906.8	
821.4	2833.7	
821.58	2813.9	
821.75	4354	
821.92	4130.1	
822.09	2398.2	
822.27	2412.5	
822.44	4046.1	
822.61	3977.8	
822.79	2406.4	
822.96	4087.7	
823.13	4123.2	
823.3	3764.2	
823.48	2619.4	
823.65	2458.2	
823.82	4445.5	
823.99	3823.6	
824.17	3239.2	
824.34	2446	
824.51	4892.6	
824.68	4026.3	
824.86	2568.8	
825.03	2768.9	
825.2	3984.7	
825.37	4600.4	
825.55	2613.9	
825.72	2755.9	
825.89	4875.5	
826.06	4613.4	
826.24	2717.7	
826.41	2708.1	
826.58	4674.8	
826.75	4153.3	
826.92	2314.9	
827.1	2464.4	
827.27	5903.6	
827.44	4864.6	
827.61	2621.4	
827.79	3069.2	
827.96	3917.1	
828.13	3944.4	
828.3	2705.4	
828.47	2353.1	
828.65	4285.7	
828.82	4217.5	
828.99	3255.6	
829.16	2926.5	
829.34	4502.8	
829.51	4351.3	
829.68	2738.8	
829.85	2754.5	
830.02	4749.2	
830.2	4472.8	
830.37	2257.5	
830.54	3182.5	
830.71	4934.2	
830.88	4081.6	
831.05	2222.7	
831.23	2482.8	
831.4	4861.9	
831.57	5040.1	
831.74	2557.9	
831.91	2298.5	
832.09	4375.8	
832.26	4511	
832.43	2593.4	
832.6	2885.6	
832.77	4344.4	
832.94	4737.6	
833.12	2254.8	
833.29	2535.4	
833.46	4322.6	
833.63	5173.9	
833.8	2848	
833.97	2629.6	
834.15	4557.4	
834.32	4330.8	
834.49	2741.5	
834.66	2725.8	
834.83	4465.9	
835	3944.4	
835.17	2602.3	
835.35	2548.4	
835.52	4406.5	
835.69	4302.8	
835.86	2685.6	
836.03	2256.9	
836.2	4522.6	
836.37	4234.5	
836.55	2552.5	
836.72	2499.9	
836.89	4215.4	
837.06	4531.5	
837.23	2666.5	
837.4	2829.6	
837.57	4940.4	
837.75	5192.3	
837.92	2452.1	
838.09	2523.8	
838.26	4224.3	
838.43	4491.9	
838.6	2779.8	
838.77	2489	
838.94	4929.5	
839.11	4946.5	
839.29	2658.9	
839.46	2166.8	
839.63	4503.5	
839.8	4197	
839.97	2611.2	
840.14	2523.8	
840.31	4406.5	
840.48	4479.6	
840.65	2238.4	
840.82	2538.1	
841	4428.4	
841.17	4323.3	
841.34	2390.7	
841.51	2512.9	
841.68	4422.9	
841.85	4268.6	
842.02	2433	
842.19	2160.6	
842.36	4367	
842.53	4290.5	
842.7	2337.4	
842.87	2764.1	
843.05	5199.8	
843.22	4229.1	
843.39	2332	
843.56	2480.8	
843.73	4199.7	
843.9	4530.8	
844.07	3570.3	
844.24	2947	
844.41	5673.6	
844.58	4056.3	
844.75	2381.1	
844.92	2451.4	
845.09	4352.6	
845.26	4410.6	
845.43	2413.9	
845.6	2477.4	
845.77	4493.9	
845.94	4237.2	
846.12	2597.5	
846.29	2708.8	
846.46	4633.2	
846.63	4395.6	
846.8	2379.7	
846.97	2738.8	
847.14	4687.1	
847.31	4338.3	
847.48	2600.9	
847.65	2895.1	
847.82	4371	
847.99	4487.8	
848.16	3035.8	
848.33	2769.5	
848.5	4132.8	
848.67	4678.2	
848.84	2324.4	
849.01	2442.5	
849.18	4177.2	
849.35	3928.7	
849.52	2857.6	
849.69	2308.7	
849.86	4599.1	
850.03	4605.2	
850.2	2361.3	
850.37	2800.9	
850.54	4545.8	
850.71	4177.2	
850.88	2763.4	
851.05	2334.7	
851.22	4318.5	
851.39	4670.1	
851.56	2247.3	
851.73	2675.3	
851.9	4014.7	
852.07	4554	
852.24	2626.9	
852.41	2397.5	
852.58	4347.8	
852.75	4044.1	
852.92	2614.6	
853.09	2332.6	
853.26	4022.2	
853.43	4616.1	
853.6	2461	
853.77	2130.6	
853.94	4669.4	
854.11	3947.1	
854.28	3233.7	
854.44	2526.5	
854.61	4911.7	
854.78	4570.4	
854.95	2379.7	
855.12	2816.6	
855.29	3765.5	
855.46	4828.4	
855.63	2421.4	
855.8	3056.9	
855.97	4104.1	
856.14	4615.4	
856.31	3157.3	
856.48	2564.7	
856.65	4265.9	
856.82	3973.1	
856.99	2344.9	
857.16	2524.5	
857.33	5013.4	
857.49	4201.1	
857.66	2540.2	
857.83	2631	
858	4265.2	
858.17	4318.5	
858.34	2244.6	
858.51	2408.4	
858.68	4743.8	
858.85	4717.8	
859.02	2730.6	
859.19	2794.8	
859.36	4044.1	
859.52	3907.5	
859.69	2407	
859.86	2709.5	
860.03	3973.7	
860.2	4764.9	
860.37	2261	
860.54	2439.1	
860.71	4475.5	
860.88	4653	
861.05	2544.3	
861.21	2905.4	
861.38	4704.9	
861.55	3818.1	
861.72	2239.1	
861.89	2593.4	
862.06	4568.3	
862.23	4810	
862.4	2293	
862.56	2375.6	
862.73	4507.6	
862.9	4343.1	
863.07	2712.2	
863.24	2192	
863.41	3978.5	
863.58	4056.3	
863.75	2400.2	
863.91	2717	
864.08	4595.6	
864.25	4470.7	
864.42	2835.1	
864.59	3125.9	
864.76	4884.4	
864.93	4007.9	
865.09	2297.8	
865.26	2546.3	
865.43	4678.2	
865.6	4866	
865.77	2153.1	
865.94	2316.9	
866.1	4615.4	
866.27	4412	
866.44	3340.2	
866.61	2318.3	
866.78	4233.8	
866.95	4460.5	
867.11	2342.9	
867.28	2174.3	
867.45	4637.3	
867.62	3979.9	
867.79	2654.9	
867.96	2372.2	
868.12	3930.7	
868.29	4491.9	
868.46	2395.4	
868.63	2983.9	
868.8	4542.4	
868.97	4472.8	
869.13	2482.1	
869.3	2466.4	
869.47	4341	
869.64	4573.1	
869.81	2349.7	
869.97	2375.6	
870.14	4335.5	
870.31	4751.3	
870.48	2310.1	
870.65	2807.1	
870.81	4228.4	
870.98	4202.4	
871.15	2611.2	
871.32	2442.5	
871.48	4425	
871.65	4741	
871.82	2325.1	
871.99	2546.3	
872.16	4995.7	
872.32	4640	
872.49	2426.8	
872.66	2435	
872.83	4585.4	
872.99	4085.7	
873.16	2668.5	
873.33	2370.9	
873.5	4269.3	
873.67	4336.9	
873.83	2461.7	
874	2994.8	
874.17	4371.7	
874.34	4785.4	
874.5	2908.1	
874.67	2811.2	
874.84	4678.2	
875.01	3857	
875.17	3132.7	
875.34	2347	
875.51	4322.6	
875.68	5053.7	
875.84	2809.1	
876.01	3134.1	
876.18	4547.2	
876.34	4462.5	
876.51	2408.4	
876.68	2327.2	
876.85	4128.7	
877.01	4707.6	
877.18	3179.1	
877.35	2331.3	
877.52	4413.4	
877.68	4024.9	
877.85	2364.7	
878.02	2332.6	
878.18	3990.1	
878.35	4173.1	
878.52	2003.6	
878.69	2686.3	
878.85	4620.9	
879.02	4465.9	
879.19	3235.1	
879.35	2508.1	
879.52	4478.9	
879.69	4534.2	
879.86	2122.4	
880.02	2586.6	
880.19	4274.1	
880.36	4885.8	
880.52	2579.1	
880.69	2710.8	
880.86	4622.9	
881.02	4510.3	
881.19	2564.1	
881.36	2500.6	
881.52	4483	
881.69	4074.8	
881.86	2579.8	
882.02	2503.3	
882.19	4646.8	
882.36	5160.9	
882.52	2450.7	
882.69	3144.3	
882.86	4334.2	
883.02	4347.2	
883.19	2778.4	
883.36	2675.3	
883.52	4558.8	
883.69	4980	
883.86	2439.8	
884.02	2218.6	
884.19	4506.2	
884.36	4326	
884.52	2571.6	
884.69	2527.9	
884.86	4160.8	
885.02	4805.9	
885.19	2582.5	
885.36	2683.5	
885.52	4205.2	
885.69	4375.1	
885.86	3192.8	
886.02	2848.7	
886.19	4510.3	
886.35	4117.1	
886.52	2572.9	
886.69	3104.7	
886.85	3990.1	
887.02	4677.6	
887.19	4677.6	
887.35	4677.6	
887.52	4677.6	
887.68	4677.6	
887.85	4677.6	
888.02	4677.6	
888.18	4677.6	
888.35	4677.6	
888.51	4677.6	
888.68	4677.6	
888.85	4677.6	
889.01	4677.6	
889.18	4677.6	
889.35	4677.6	
889.51	4677.6	
889.68	4677.6	
889.84	4677.6	
890.01	4677.6	
890.17	4677.6	
890.34	4677.6	
890.51	4677.6	
890.67	4677.6	
890.84	4677.6	
891	4677.6	
891.17	4677.6	
891.34	4677.6	
891.5	4677.6	
891.67	4677.6	
891.83	4677.6	
892	4677.6	
892.16	4677.6	
892.33	4677.6	
892.5	4677.6	
892.66	4677.6	
892.83	4677.6	
892.99	4677.6	
893.16	4677.6	
893.32	4677.6	
893.49	4677.6	
893.65	4677.6	
893.82	4677.6	
893.99	4677.6	
894.15	4677.6	
894.32	4677.6	
894.48	4677.6	
894.65	4677.6	
894.81	4677.6	
894.98	4677.6	
895.14	4677.6	
895.31	4677.6	
895.47	4677.6	
895.64	4677.6	
895.81	4677.6	
895.97	4677.6	
896.14	4677.6	
896.3	4677.6	
896.47	4677.6	
896.63	4677.6	
896.8	4677.6	
896.96	4677.6	
897.13	4677.6	
897.29	4677.6	
897.46	4677.6	
897.62	4677.6	
897.79	4677.6	
897.95	4677.6	
898.12	4677.6	
898.28	4677.6	
898.45	4677.6	
898.61	4677.6	
898.78	4677.6	
898.94	4677.6	
899.11	4677.6	
899.27	4677.6	
899.44	4677.6	
899.6	4677.6	
899.77	4677.6	
899.93	4677.6	
900.1	4677.6	
900.26	4677.6	
900.43	4677.6	
900.59	4677.6	
900.76	4677.6	
900.92	4677.6	
901.09	4677.6	
901.25	4677.6	
901.42	4677.6	
901.58	4677.6	
901.75	4677.6	
901.91	4677.6	
902.07	4677.6	
902.24	4677.6	
902.4	4677.6	
902.57	4677.6	
902.73	4677.6	
902.9	4677.6	
903.06	4677.6	
903.23	4677.6	
903.39	4677.6	
903.56	4677.6	
903.72	4677.6	
903.88	4677.6	
904.05	4677.6	
904.21	4677.6	
904.38	4677.6	
904.54	4677.6	
904.71	4677.6	
904.87	4677.6	
905.03	4677.6	
905.2	4677.6	
905.36	4677.6	
905.53	4677.6	
905.69	4677.6	
905.86	4677.6	
906.02	4677.6	
906.18	4677.6	
906.35	4677.6	
906.51	4677.6	
906.68	4677.6	
906.84	4677.6	
907.01	4677.6	
907.17	4677.6	
907.33	4677.6	
907.5	4677.6	
907.66	4677.6	
907.83	4677.6	
907.99	4677.6	
908.15	4677.6	
908.32	4677.6	
908.48	4677.6	
908.65	4677.6	
908.81	4677.6	
908.97	4677.6	
909.14	4677.6	
909.3	4677.6	
909.47	4677.6	
909.63	4677.6	
909.79	4677.6	
909.96	4677.6	
910.12	4677.6	
910.28	4677.6	
910.45	4677.6	
910.61	4677.6	
910.78	4677.6	
910.94	4677.6	
911.1	4677.6	
911.27	4677.6	
911.43	4677.6	
911.59	4677.6	
911.76	4677.6	
911.92	4677.6	
912.08	4677.6	
912.25	4677.6	
912.41	4677.6	
912.57	4677.6	
912.74	4677.6	
912.9	4677.6	
913.07	4677.6	
913.23	4677.6	
913.39	4677.6	
913.56	4677.6	
913.72	4677.6	
913.88	4677.6	
914.05	4677.6	
914.21	4677.6	
914.37	4677.6	
914.54	4677.6	
914.7	4677.6	
914.86	4677.6	
915.03	4677.6	
915.19	4677.6	
