Wavelength	Intensities	
nm	a.u.	
179.22	1739.1	
179.44	1749.6	
179.65	1728.5	
179.86	1770.8	
180.08	1720.3	
180.29	4170.3	
180.51	3063.8	
180.72	5122	
180.94	5836.7	
181.15	2840.5	
181.37	2826.2	
181.58	4967	
181.79	5201.2	
182.01	2940.9	
182.22	3116.3	
182.44	5183.4	
182.65	4485.1	
182.87	3835.8	
183.08	3418.1	
183.29	5445.5	
183.51	4573.8	
183.72	3074.7	
183.94	4427	
184.15	4840	
184.37	4871.4	
184.58	2802.3	
184.79	3715.7	
185.01	4602.5	
185.22	5212.1	
185.44	3888.4	
185.65	3289.7	
185.86	4849.6	
186.08	4462.5	
186.29	2752.5	
186.51	2879.4	
186.72	4585.4	
186.94	5305.6	
187.15	3304.7	
187.36	3446	
187.58	6711.2	
187.79	4992.3	
188.01	3555.3	
188.22	5430.5	
188.43	5890.6	
188.65	5126.1	
188.86	2912.9	
189.08	3456.3	
189.29	4698	
189.5	4703.5	
189.72	3185.3	
189.93	3280.8	
190.15	5317.9	
190.36	6182.8	
190.57	3373.7	
190.79	3387.3	
191	5390.9	
191.22	5307	
191.43	3548.4	
191.64	2964.8	
191.86	5541.8	
192.07	5339.7	
192.29	3048.7	
192.5	3201.7	
192.71	5342.5	
192.93	4687.8	
193.14	3102	
193.35	3303.4	
193.57	4667.3	
193.78	5289.2	
194	2584.5	
194.21	3147	
194.42	4494.6	
194.64	4887.8	
194.85	3387.3	
195.07	3951.9	
195.28	4842.1	
195.49	4348.5	
195.71	4137.6	
195.92	3009.8	
196.13	5061.2	
196.35	5116.5	
196.56	4397.7	
196.78	3463.8	
196.99	6145.3	
197.2	5771.9	
197.42	3864.5	
197.63	3459	
197.84	4427	
198.06	5031.9	
198.27	3197.6	
198.48	4156.7	
198.7	4702.8	
198.91	4779.3	
199.13	3419.4	
199.34	3461.1	
199.55	5327.4	
199.77	4289.1	
199.98	3061	
200.19	3414	
200.41	4831.2	
200.62	4554.7	
200.83	3583.3	
201.05	3852.9	
201.26	4835.9	
201.47	4663.9	
201.69	3018	
201.9	2991.4	
202.11	4825	
202.33	5670.1	
202.54	3289	
202.76	3615.3	
202.97	4969.7	
203.18	5010	
203.4	3603.1	
203.61	3596.2	
203.82	4958.8	
204.04	4646.2	
204.25	3476.8	
204.46	3422.2	
204.68	4876.2	
204.89	5037.3	
205.1	3343	
205.32	2930	
205.53	5196.4	
205.74	5341.1	
205.96	2545.6	
206.17	3545	
206.38	5142.4	
206.6	5290.6	
206.81	3966.9	
207.02	3218.7	
207.24	5075.5	
207.45	5360.2	
207.66	3304.1	
207.88	2909.5	
208.09	5075.5	
208.3	4899.4	
208.52	3060.3	
208.73	3293.1	
208.94	4896	
209.15	5509.7	
209.37	3282.2	
209.58	3719.1	
209.79	5280.3	
210.01	4764.3	
210.22	2708.1	
210.43	2790.7	
210.65	4855.1	
210.86	5188.2	
211.07	3271.3	
211.29	3067.9	
211.5	5122.7	
211.71	4790.2	
211.93	3052.8	
212.14	3076.7	
212.35	4829.1	
212.56	4988.9	
212.78	3421.5	
212.99	2910.2	
213.2	5615.5	
213.42	4758.1	
213.63	3168.9	
213.84	3401.7	
214.06	4431.1	
214.27	4477.5	
214.48	3302	
214.69	3512.9	
214.91	5445.5	
215.12	5478.3	
215.33	3453.6	
215.55	3803.8	
215.76	5849.7	
215.97	5152.7	
216.18	3444.7	
216.4	3341.6	
216.61	4633.2	
216.82	5304.2	
217.04	3150.5	
217.25	3205.1	
217.46	5374.6	
217.67	5190.9	
217.89	2798.9	
218.1	2871.3	
218.31	4856.4	
218.53	5078.3	
218.74	3259	
218.95	3124.5	
219.16	4848.9	
219.38	5661.3	
219.59	3137.5	
219.8	3704.1	
220.01	6098.9	
220.23	4872.8	
220.44	3960.1	
220.65	3019.4	
220.87	5013.4	
221.08	5408	
221.29	2862.4	
221.5	3724.6	
221.72	6496.2	
221.93	4653	
222.14	3488.4	
222.35	4027	
222.57	4849.6	
222.78	5202.5	
222.99	3341.6	
223.2	3573	
223.42	5090.6	
223.63	5264	
223.84	2605.7	
224.05	2592.7	
224.27	6008.1	
224.48	5550	
224.69	4056.3	
224.9	3504.1	
225.12	5032.5	
225.33	4812	
225.54	2809.1	
225.75	3123.8	
225.97	4570.4	
226.18	4800.4	
226.39	3234.4	
226.6	3115	
226.82	4670.7	
227.03	4552	
227.24	3474.7	
227.45	2978.4	
227.67	5194.3	
227.88	5593	
228.09	3846.1	
228.3	3807.9	
228.52	5209.3	
228.73	4848.2	
228.94	3265.8	
229.15	2884.9	
229.36	4846.2	
229.58	4819.6	
229.79	3276.8	
230	3743.7	
230.21	5793.7	
230.43	4924	
230.64	3442	
230.85	3501.3	
231.06	5245.5	
231.28	5199.1	
231.49	2856.2	
231.7	3360	
231.91	5160.2	
232.12	4895.3	
232.34	2965.5	
232.55	3304.7	
232.76	5356.8	
232.97	4979.3	
233.18	3076.7	
233.4	3398.9	
233.61	5010	
233.82	4736.3	
234.03	3234.4	
234.25	3169.6	
234.46	6550.8	
234.67	4858.5	
234.88	3549.1	
235.09	3090.4	
235.31	5117.9	
235.52	4699.4	
235.73	3452.2	
235.94	2923.1	
236.15	4693.3	
236.37	5799.2	
236.58	3074	
236.79	3315	
237	5167.7	
237.21	4455.7	
237.43	3587.4	
237.64	2873.3	
237.85	8183.7	
238.06	4528.1	
238.27	3536.2	
238.48	2996.9	
238.7	5177.9	
238.91	4794.3	
239.12	3276.8	
239.33	3375.7	
239.54	4718.5	
239.76	4820.2	
239.97	3308.2	
240.18	3306.1	
240.39	5890.6	
240.6	5068.7	
240.82	3452.9	
241.03	2867.2	
241.24	4857.1	
241.45	5560.2	
241.66	3051.5	
241.87	3549.8	
242.09	5501.5	
242.3	5749.3	
242.51	3640.6	
242.72	3310.2	
242.93	5251	
243.14	4825.7	
243.36	3829	
243.57	4085	
243.78	5532.2	
243.99	5135.6	
244.2	3296.5	
244.41	3045.3	
244.63	4556	
244.84	5085.8	
245.05	3565.5	
245.26	3247.4	
245.47	5162.2	
245.68	5225.1	
245.9	4302.1	
246.11	3504.1	
246.32	4751.3	
246.53	5145.2	
246.74	5211.4	
246.95	2848.7	
247.16	4542.4	
247.38	4997	
247.59	2796.8	
247.8	3340.2	
248.01	4559.5	
248.22	4835.9	
248.43	3058.3	
248.64	3293.8	
248.86	4423.6	
249.07	4737.6	
249.28	3006.4	
249.49	3402.4	
249.7	5279	
249.91	5357.5	
250.12	2879.4	
250.34	2924.5	
250.55	4963.6	
250.76	4876.2	
250.97	3433.8	
251.18	3437.2	
251.39	5384.8	
251.6	4983.4	
251.81	3530	
252.03	3443.3	
252.24	4678.2	
252.45	5288.5	
252.66	2973	
252.87	3609.2	
253.08	4896	
253.29	6234.7	
253.5	2968.9	
253.72	3996.3	
253.93	4772.4	
254.14	5726.8	
254.35	3186.6	
254.56	3265.8	
254.77	5079.6	
254.98	4545.1	
255.19	3183.2	
255.41	3908.2	
255.62	4952.7	
255.83	5334.3	
256.04	3479.5	
256.25	3435.8	
256.46	5924.8	
256.67	4612.7	
256.88	3446.7	
257.09	3743.7	
257.31	4590.2	
257.52	4625	
257.73	4258.4	
257.94	3160	
258.15	4810	
258.36	4919.9	
258.57	3928.7	
258.78	2636.4	
258.99	5264	
259.2	4760.2	
259.41	3112.2	
259.63	3223.5	
259.84	5568.4	
260.05	5841.5	
260.26	4107.5	
260.47	3086.3	
260.68	5401.2	
260.89	4742.4	
261.1	3824.2	
261.31	3084.2	
261.52	5373.2	
261.73	5672.9	
261.95	4065.9	
262.16	3564.1	
262.37	5440.8	
262.58	5463.3	
262.79	4024.9	
263	3226.2	
263.21	4841.4	
263.42	4749.9	
263.63	3318.4	
263.84	3200.3	
264.05	5300.8	
264.26	5623	
264.47	3966.2	
264.69	3591.5	
264.9	5439.4	
265.11	5055.1	
265.32	3072.6	
265.53	3140.2	
265.74	4959.5	
265.95	4420.2	
266.16	3364.8	
266.37	3678.2	
266.58	4999.1	
266.79	4701.5	
267	3160	
267.21	2962.7	
267.42	4553.3	
267.63	4896.7	
267.84	3270.6	
268.06	2919.7	
268.27	5260.5	
268.48	5450.3	
268.69	3248.8	
268.9	3795.6	
269.11	5445.5	
269.32	4411.3	
269.53	3336.8	
269.74	3140.2	
269.95	5057.8	
270.16	4393.6	
270.37	3349.1	
270.58	3791.5	
270.79	4758.1	
271	5308.3	
271.21	3544.4	
271.42	3365.5	
271.63	5066.7	
271.84	4560.8	
272.05	2772.9	
272.26	3037.8	
272.47	4827.1	
272.68	5037.3	
272.89	3203.7	
273.11	3610.6	
273.32	4663.2	
273.53	5663.3	
273.74	3595.6	
273.95	3493.8	
274.16	5268.7	
274.37	4930.8	
274.58	3652.2	
274.79	2981.2	
275	5014.1	
275.21	5399.1	
275.42	4362.2	
275.63	3682.9	
275.84	5083.1	
276.05	6322.1	
276.26	3469.3	
276.47	3258.3	
276.68	4796.3	
276.89	5679	
277.1	3693.9	
277.31	2939.5	
277.52	5100.8	
277.73	5316.5	
277.94	2895.8	
278.15	3216.7	
278.36	5079	
278.57	4592.9	
278.78	3276.1	
278.99	3558.7	
279.2	4622.9	
279.41	4549.9	
279.62	4179.2	
279.83	2948.4	
280.04	5863.3	
280.25	4556.7	
280.46	4143	
280.67	3355.3	
280.88	4610.7	
281.09	5367.7	
281.3	3501.3	
281.51	4341	
281.72	4686.4	
281.93	5225.7	
282.14	3129.3	
282.35	3384.6	
282.56	5334.3	
282.77	5246.2	
282.98	3246.7	
283.19	3893.9	
283.4	6275.7	
283.61	4825	
283.82	3020.8	
284.03	4072.7	
284.24	5022.3	
284.45	5317.2	
284.66	4138.3	
284.87	3872.7	
285.08	5357.5	
285.29	5453.1	
285.5	2851.5	
285.71	3286.3	
285.92	5395.7	
286.12	5861.3	
286.33	4069.3	
286.54	3280.2	
286.75	5291.3	
286.96	4801.8	
287.17	3018	
287.38	3945.8	
287.59	4645.5	
287.8	4599.1	
288.01	3334.1	
288.22	3671.3	
288.43	5224.4	
288.64	4468	
288.85	3827	
289.06	3663.8	
289.27	5289.9	
289.48	5584.8	
289.69	4091.8	
289.9	3700	
290.11	5446.2	
290.32	4693.9	
290.53	3836.5	
290.74	3543	
290.94	5205.9	
291.15	5303.6	
291.36	3140.2	
291.57	3715.7	
291.78	4710.3	
291.99	4450.9	
292.2	3023.5	
292.41	3600.3	
292.62	5332.9	
292.83	5158.8	
293.04	4288.4	
293.25	3094.5	
293.46	4751.3	
293.67	5316.5	
293.88	3116.3	
294.09	3085.6	
294.29	4585.4	
294.5	4971.8	
294.71	3351.8	
294.92	3205.1	
295.13	4747.9	
295.34	5757.5	
295.55	2857.6	
295.76	2871.3	
295.97	5240.8	
296.18	5829.2	
296.39	3033	
296.6	3140.9	
296.81	4980.7	
297.01	5221.6	
297.22	3206.4	
297.43	3182.5	
297.64	4654.4	
297.85	4629.1	
298.06	2613.9	
298.27	2903.3	
298.48	4877.6	
298.69	4610.7	
298.9	3416	
299.11	3117.7	
299.31	4493.2	
299.52	4511	
299.73	3658.4	
299.94	3518.4	
300.15	4915.1	
300.36	4611.3	
300.57	3529.3	
300.78	3467.2	
300.99	4797.7	
301.2	4951.3	
301.4	3129.3	
301.61	3371	
301.82	5099.4	
302.03	5212.8	
302.24	3708.9	
302.45	3021.4	
302.66	5117.9	
302.87	5433.3	
303.08	3189.4	
303.29	4188.8	
303.49	4726	
303.7	4893.3	
303.91	2834.4	
304.12	4001.7	
304.33	4489.8	
304.54	5085.1	
304.75	3158.7	
304.96	2998.9	
305.16	5145.2	
305.37	5695.4	
305.58	2765.4	
305.79	2889.7	
306	5156.1	
306.21	4411.3	
306.42	3224.9	
306.63	4687.1	
306.83	4774.5	
307.04	5294	
307.25	3472	
307.46	3416	
307.67	4302.8	
307.88	5171.8	
308.09	3135.4	
308.29	3179.8	
308.5	4929.5	
308.71	5322	
308.92	3310.2	
309.13	3071.3	
309.34	4835.9	
309.55	4784.1	
309.75	3878.9	
309.96	3513.6	
310.17	5214.8	
310.38	4666	
310.59	3721.8	
310.8	2994.1	
311.01	4747.9	
311.21	4835.9	
311.42	3030.3	
311.63	3154.6	
311.84	4715.1	
312.05	4988.2	
312.26	3478.1	
312.46	3818.8	
312.67	4777.9	
312.88	4496.7	
313.09	3051.5	
313.3	3022.1	
313.51	5508.4	
313.71	5768.4	
313.92	3026.9	
314.13	3179.1	
314.34	5029.1	
314.55	4842.1	
314.76	3843.4	
314.96	3393.5	
315.17	4980.7	
315.38	5109.7	
315.59	3127.9	
315.8	2895.8	
316.01	5562.3	
316.21	5606.7	
316.42	2959.3	
316.63	3368.2	
316.84	4751.3	
317.05	5413.5	
317.26	3525.2	
317.46	3245.3	
317.67	4894.6	
317.88	5203.2	
318.09	3814	
318.3	2851.5	
318.5	4701.5	
318.71	5147.9	
318.92	4816.1	
319.13	3568.2	
319.34	5279	
319.54	5401.2	
319.75	2900.6	
319.96	2741.5	
320.17	5194.3	
320.38	5340.4	
320.58	2797.5	
320.79	3298.6	
321	5386.8	
321.21	5429.2	
321.42	3350.5	
321.62	2850.1	
321.83	4555.4	
322.04	4945.2	
322.25	3282.2	
322.46	3083.6	
322.66	4999.8	
322.87	5167.7	
323.08	3760.1	
323.29	2979.8	
323.5	5706.3	
323.7	4526.7	
323.91	4055.7	
324.12	3616.7	
324.33	4960.2	
324.53	5124	
324.74	3480.9	
324.95	3692.5	
325.16	4445.5	
325.37	4734.9	
325.57	3076.7	
325.78	3120.4	
325.99	5020.9	
326.2	4468	
326.4	4351.9	
326.61	2854.2	
326.82	4829.1	
327.03	4958.8	
327.24	4239.3	
327.44	3921.9	
327.65	5101.5	
327.86	4236.6	
328.07	3569.6	
328.27	2963.4	
328.48	5464	
328.69	4607.2	
328.9	4259.1	
329.1	3210.5	
329.31	4823.6	
329.52	5514.5	
329.73	3107.5	
329.93	3353.2	
330.14	4961.5	
330.35	5059.8	
330.56	4758.8	
330.76	3697.3	
330.97	4717.2	
331.18	5045.5	
331.39	3366.2	
331.59	2794.8	
331.8	5388.2	
332.01	5445.5	
332.22	3123.8	
332.42	3550.5	
332.63	5010.7	
332.84	4618.9	
333.05	3387.3	
333.25	3155.2	
333.46	4684.4	
333.67	4886.5	
333.88	3213.3	
334.08	3453.6	
334.29	6406.7	
334.5	5394.3	
334.7	2997.5	
334.91	4239.3	
335.12	4541	
335.33	5133.6	
335.53	3363.4	
335.74	4803.9	
335.95	4764.9	
336.16	4543.1	
336.36	3319.1	
336.57	3783.3	
336.78	4507.6	
336.98	5333.6	
337.19	4071.4	
337.4	3325.2	
337.61	5754.1	
337.81	4532.8	
338.02	3076	
338.23	3934.1	
338.43	5524.1	
338.64	4610.7	
338.85	3067.9	
339.05	3969	
339.26	5618.9	
339.47	4478.9	
339.68	3084.9	
339.88	4383.3	
340.09	5107.6	
340.3	5245.5	
340.5	3495.2	
340.71	2742.2	
340.92	4536.9	
341.13	5419.6	
341.33	2981.8	
341.54	3594.2	
341.75	5116.5	
341.95	4775.9	
342.16	3376.4	
342.37	3656.3	
342.57	4547.2	
342.78	4825.7	
342.99	3747.8	
343.19	2820.7	
343.4	5152	
343.61	5058.5	
343.81	3243.3	
344.02	2995.5	
344.23	5228.5	
344.43	5533.6	
344.64	3755.3	
344.85	3644	
345.06	5105.6	
345.26	5356.1	
345.47	3519.1	
345.68	4106.2	
345.88	4414.7	
346.09	5275.6	
346.3	3551.2	
346.5	2702	
346.71	4804.5	
346.92	4646.2	
347.12	2890.4	
347.33	3437.9	
347.54	5348.6	
347.74	5653.1	
347.95	3512.9	
348.16	2716.3	
348.36	4720.6	
348.57	4511.7	
348.78	3515.7	
348.98	3685	
349.19	4798.4	
349.39	4452.3	
349.6	2856.2	
349.81	3152.5	
350.01	5113.1	
350.22	4671.4	
350.43	3411.9	
350.63	3977.8	
350.84	4905.6	
351.05	4639.3	
351.25	3055.6	
351.46	2847.4	
351.67	5307	
351.87	4609.3	
352.08	3245.3	
352.29	3674.7	
352.49	5206.6	
352.7	5378.6	
352.9	2992.1	
353.11	3698.6	
353.32	5769.8	
353.52	4743.8	
353.73	2958.6	
353.94	3719.8	
354.14	5066	
354.35	4891.2	
354.55	3013.2	
354.76	3396.9	
354.97	5078.3	
355.17	4879.6	
355.38	2913.6	
355.59	3903.4	
355.79	4577.9	
356	4920.6	
356.2	3386	
356.41	2966.8	
356.62	4386.1	
356.82	4836.6	
357.03	3588	
357.24	3243.3	
357.44	4633.2	
357.65	4717.2	
357.85	4151.9	
358.06	3388	
358.27	4412.7	
358.47	4569.7	
358.68	2835.1	
358.88	3542.3	
359.09	5008.6	
359.3	5307.7	
359.5	4030.4	
359.71	3619.4	
359.91	5657.2	
360.12	5130.8	
360.33	3581.9	
360.53	3958.7	
360.74	4552.6	
360.94	4653	
361.15	3715.7	
361.36	3095.8	
361.56	5306.3	
361.77	4844.1	
361.97	4076.1	
362.18	3267.2	
362.38	5286.5	
362.59	4500.1	
362.8	3084.2	
363	2933.4	
363.21	4319.2	
363.41	4836.6	
363.62	3384.6	
363.83	4219.5	
364.03	4992.3	
364.24	5624.4	
364.44	4287.8	
364.65	4257.7	
364.85	4733.5	
365.06	4569.7	
365.27	3177.1	
365.47	3221.5	
365.68	5466	
365.88	4722.6	
366.09	3513.6	
366.29	3223.5	
366.5	4896.7	
366.71	5278.3	
366.91	4280.9	
367.12	3619.4	
367.32	5769.1	
367.53	5180	
367.73	3575.8	
367.94	4382	
368.14	5115.8	
368.35	5765.7	
368.56	3577.1	
368.76	3053.5	
368.97	5240.8	
369.17	6454.5	
369.38	3162.1	
369.58	3346.4	
369.79	4431.8	
369.99	5500.8	
370.2	4227.7	
370.4	3447.4	
370.61	4913.1	
370.82	5921.4	
371.02	3398.9	
371.23	2851.5	
371.43	4489.8	
371.64	5427.8	
371.84	3362.8	
372.05	4286.4	
372.25	6400.6	
372.46	5104.9	
372.66	3336.1	
372.87	3316.3	
373.07	5171.1	
373.28	6493.4	
373.48	4128.7	
373.69	3917.1	
373.9	4773.1	
374.1	4798.4	
374.31	4092.5	
374.51	3741.6	
374.72	5472.2	
374.92	4513.7	
375.13	4215.4	
375.33	3564.8	
375.54	5020.9	
375.74	4718.5	
375.95	3680.9	
376.15	4642.7	
376.36	5128.1	
376.56	4995.7	
376.77	3700.7	
376.97	4005.1	
377.18	5909.8	
377.38	5151.3	
377.59	4219.5	
377.79	3291.1	
378	4983.4	
378.2	5266.7	
378.41	3298.6	
378.61	3289.7	
378.82	5390.9	
379.02	4725.3	
379.23	3405.8	
379.43	4236.6	
379.64	5492	
379.84	5081.7	
380.05	3319.1	
380.25	3259	
380.46	5162.9	
380.66	4859.8	
380.87	4326	
381.07	4625.7	
381.28	5664	
381.48	5201.8	
381.69	3263.1	
381.89	3409.2	
382.1	4471.4	
382.3	5264.6	
382.51	4199.7	
382.71	4909	
382.91	5158.2	
383.12	5597.1	
383.32	3575.8	
383.53	3833.8	
383.73	5141.8	
383.94	4977.2	
384.14	3768.9	
384.35	3070.6	
384.55	4874.8	
384.76	5184.8	
384.96	3657	
385.17	3807.2	
385.37	5219.6	
385.58	4661.9	
385.78	3864.5	
385.98	3041.9	
386.19	4863.9	
386.39	5167	
386.6	3435.8	
386.8	3621.5	
387.01	5216.9	
387.21	5247.6	
387.42	3934.8	
387.62	4384.7	
387.83	4759.5	
388.03	5070.8	
388.23	3650.2	
388.44	4269.3	
388.64	4556	
388.85	4549.2	
389.05	3830.4	
389.26	4418.2	
389.46	6044.2	
389.67	5558.9	
389.87	3919.8	
390.07	3994.9	
390.28	4897.4	
390.48	4670.7	
390.69	3256.3	
390.89	3538.9	
391.1	4764.9	
391.3	5463.3	
391.5	4456.4	
391.71	4934.9	
391.91	5348.6	
392.12	6014.9	
392.32	4541	
392.53	3910.3	
392.73	4827.1	
392.93	4982.7	
393.14	3706.1	
393.34	4526	
393.55	5285.8	
393.75	4924.7	
393.95	3717.1	
394.16	3609.2	
394.36	4751.3	
394.57	5343.2	
394.77	3241.9	
394.98	3545.7	
395.18	4711.7	
395.38	4783.4	
395.59	4218.1	
395.79	3442	
396	4863.2	
396.2	5251.7	
396.4	4072	
396.61	4015.4	
396.81	5315.8	
397.02	4702.8	
397.22	4251.6	
397.42	4292.5	
397.63	5348.6	
397.83	4691.9	
398.04	3414	
398.24	3776.5	
398.44	5132.2	
398.65	4412.7	
398.85	3293.1	
399.05	3413.3	
399.26	4673.5	
399.46	5935	
399.67	3697.9	
399.87	3416.7	
400.07	4947.9	
400.28	5177.3	
400.48	3510.9	
400.69	4339.6	
400.89	5350.7	
401.09	5765	
401.3	3362.1	
401.5	4275.5	
401.7	5898.1	
401.91	6085.9	
402.11	3771	
402.32	3884.3	
402.52	5437.4	
402.72	5418.2	
402.93	4111.6	
403.13	3259	
403.33	6018.3	
403.54	5008.6	
403.74	3823.6	
403.94	4552.6	
404.15	5061.2	
404.35	5999.9	
404.56	3678.2	
404.76	5022.3	
404.96	5425.8	
405.17	5232.6	
405.37	4780.6	
405.57	4068.6	
405.78	5414.8	
405.98	5004.6	
406.18	3639.9	
406.39	4371.7	
406.59	5386.8	
406.79	5109	
407	3545	
407.2	3614	
407.4	5449.6	
407.61	5642.2	
407.81	3584.6	
408.01	5435.3	
408.22	4603.8	
408.42	6108.4	
408.62	4365.6	
408.83	4001	
409.03	5098.8	
409.23	5003.2	
409.44	3985.3	
409.64	4179.9	
409.84	5827.2	
410.05	5655.1	
410.25	4138.3	
410.45	3930.1	
410.66	5317.9	
410.86	7228.6	
411.06	4241.3	
411.27	4179.9	
411.47	7031.4	
411.67	5408	
411.88	4391.5	
412.08	4535.6	
412.28	5926.8	
412.49	6249	
412.69	4151.2	
412.89	4167.6	
413.09	6195.8	
413.3	6054.5	
413.5	4276.2	
413.7	3972.4	
413.91	5494	
414.11	6128.2	
414.31	4053.6	
414.52	4401.1	
414.72	5907.7	
414.92	5823.1	
415.12	4119.8	
415.33	4578.6	
415.53	6093.4	
415.73	6310.5	
415.94	4790.2	
416.14	4334.2	
416.34	5425.8	
416.55	5167.7	
416.75	5313.1	
416.95	4758.8	
417.15	6149.4	
417.36	6663.4	
417.56	5401.9	
417.76	4639.3	
417.97	6429.9	
418.17	6073.6	
418.37	4420.2	
418.57	4390.8	
418.78	6026.5	
418.98	5781.4	
419.18	5134.3	
419.38	5026.4	
419.59	5757.5	
419.79	5433.9	
419.99	4277.5	
420.2	4587.4	
420.4	6207.4	
420.6	6273.6	
420.8	4263.9	
421.01	4164.2	
421.21	6004.6	
421.41	6141.9	
421.61	4579.3	
421.82	4392.9	
422.02	5720	
422.22	6404	
422.42	4952.7	
422.63	4761.5	
422.83	5700.2	
423.03	6705.7	
423.23	4716.5	
423.44	3953.3	
423.64	5784.1	
423.84	5492	
424.04	4265.2	
424.25	4029.7	
424.45	6558.3	
424.65	6452.5	
424.85	3857.7	
425.06	4357.4	
425.26	6548	
425.46	5728.9	
425.66	4728.8	
425.87	4438.6	
426.07	6345.3	
426.27	6207.4	
426.47	4568.3	
426.67	4094.6	
426.88	6587.6	
427.08	6153.5	
427.28	4787.5	
427.48	4083.6	
427.69	5384.1	
427.89	5858.6	
428.09	4651.6	
428.29	4044.7	
428.5	6300.9	
428.7	5977.3	
428.9	4024.9	
429.1	4415.4	
429.3	5924.1	
429.51	6260.6	
429.71	4272.1	
429.91	4873.5	
430.11	6242.2	
430.31	6362.4	
430.52	4465.9	
430.72	4655	
430.92	6646.3	
431.12	6189	
431.32	4267.3	
431.53	4585.4	
431.73	5403.9	
431.93	6752.2	
432.13	4149.9	
432.33	4060.4	
432.54	5803.9	
432.74	5951.4	
432.94	3931.4	
433.14	4888.5	
433.34	6210.1	
433.55	5853.8	
433.75	4804.5	
433.95	6139.8	
434.15	6034	
434.35	5849	
434.56	4177.2	
434.76	3843.4	
434.96	5941.8	
435.16	6213.5	
435.36	4059.8	
435.56	4999.1	
435.77	5771.9	
435.97	5864.7	
436.17	5520.6	
436.37	4827.1	
436.57	5661.3	
436.78	5641.5	
436.98	4930.8	
437.18	5446.2	
437.38	6173.3	
437.58	5910.4	
437.78	5481.7	
437.99	4483	
438.19	6331.6	
438.39	7437.5	
438.59	4417.5	
438.79	3986	
438.99	6821.8	
439.2	5838.8	
439.4	4102.8	
439.6	4070	
439.8	6052.4	
440	6958.3	
440.2	4811.4	
440.4	4919.9	
440.61	6392.4	
440.81	6831.3	
441.01	4289.1	
441.21	4924	
441.41	6792.4	
441.61	6465.4	
441.81	5203.9	
442.02	5951.4	
442.22	7139.2	
442.42	6567.8	
442.62	4278.9	
442.82	4392.9	
443.02	6779.5	
443.22	6073.6	
443.43	4677.6	
443.63	4319.8	
443.83	5919.3	
444.03	5937.1	
444.23	5233.9	
444.43	5009.3	
444.63	6217.6	
444.83	7140.6	
445.04	4461.2	
445.24	5402.5	
445.44	6492.1	
445.64	6499.6	
445.84	5102.9	
446.04	5111.7	
446.24	6003.3	
446.44	6780.8	
446.65	4405.9	
446.85	4740.4	
447.05	6262.7	
447.25	6744	
447.45	4805.9	
447.65	4270	
447.85	6291.4	
448.05	5958.2	
448.25	5109.7	
448.46	4956.8	
448.66	6292.7	
448.86	5977.3	
449.06	4251.6	
449.26	5111	
449.46	6574.7	
449.66	5799.2	
449.86	4771.8	
450.06	4718.5	
450.26	5887.2	
450.47	6422.4	
450.67	4960.2	
450.87	5245.5	
451.07	6569.9	
451.27	6306.4	
451.47	4476.9	
451.67	4918.5	
451.87	6054.5	
452.07	7003.4	
452.27	4607.2	
452.47	4554	
452.67	6266.1	
452.88	6684.6	
453.08	4147.1	
453.28	5728.2	
453.48	7302.4	
453.68	6253.1	
453.88	4517.8	
454.08	4670.7	
454.28	6533	
454.48	6285.2	
454.68	5175.9	
454.88	5498.8	
455.08	6690	
455.28	6408.8	
455.48	4488.5	
455.68	4940.4	
455.89	7088.7	
456.09	6746.7	
456.29	4785.4	
456.49	4846.9	
456.69	6937.2	
456.89	6367.1	
457.09	5225.1	
457.29	5451.7	
457.49	6597.2	
457.69	6726.9	
457.89	5053	
458.09	4560.1	
458.29	6500.9	
458.49	6999.3	
458.69	5313.8	
458.89	4883.7	
459.09	7129.7	
459.29	7286.7	
459.49	5007.3	
459.69	5580.7	
459.9	6818.4	
460.1	6418.3	
460.3	4885.1	
460.5	4728.1	
460.7	6860.7	
460.9	6533.7	
461.1	4506.9	
461.3	5532.2	
461.5	7362.4	
461.7	7016.3	
461.9	4887.1	
462.1	5169.8	
462.3	6656.6	
462.5	7127.6	
462.7	4877.6	
462.9	4842.1	
463.1	7889.5	
463.3	7649.2	
463.5	5020.3	
463.7	5833.3	
463.9	6921.5	
464.1	7126.9	
464.3	5180.7	
464.5	5392.3	
464.7	7320.8	
464.9	6992.4	
465.1	6499.6	
465.3	5734.3	
465.5	7637.6	
465.7	7586.4	
465.9	5906.3	
466.1	5763.7	
466.3	7421.2	
466.5	7346.7	
466.7	6384.9	
466.9	5578	
467.1	7330.4	
467.3	8036.2	
467.5	6333	
467.7	5512.4	
467.9	8221.2	
468.1	8864.3	
468.3	6129.6	
468.5	6406	
468.7	7234.8	
468.9	7212.9	
469.1	5771.9	
469.3	6306.4	
469.5	8822	
469.7	7002	
469.9	6147.3	
470.1	5682.4	
470.3	7441	
470.5	7375.4	
470.7	6653.2	
470.9	5645.6	
471.1	7162.4	
471.3	7565.2	
471.5	5503.6	
471.69	7062.8	
471.89	7055.9	
472.09	6711.2	
472.29	6192.4	
472.49	6487.3	
472.69	6930.3	
472.89	7497.6	
473.09	5480.4	
473.29	5623.7	
473.49	7081.2	
473.69	7107.8	
473.89	6311.8	
474.09	5778.7	
474.29	8173.4	
474.49	7819.8	
474.69	6257.9	
474.89	5795.1	
475.09	7129	
475.29	7210.9	
475.49	5441.5	
475.69	5561.6	
475.88	8426	
476.08	7514	
476.28	5364.3	
476.48	5710.4	
476.68	7800.7	
476.88	7602.1	
477.08	5621	
477.28	5802.6	
477.48	7221.8	
477.68	7693.5	
477.88	5391.6	
478.08	5703.6	
478.28	8003.5	
478.48	7303.7	
478.67	5698.8	
478.87	5260.5	
479.07	7849.9	
479.27	7374.1	
479.47	5865.4	
479.67	5877	
479.87	7688.1	
480.07	8083.3	
480.27	5280.3	
480.47	6653.2	
480.67	7416.4	
480.87	7944.8	
481.06	5593	
481.26	6282.5	
481.46	7406.8	
481.66	7271.7	
481.86	6037.4	
482.06	6685.3	
482.26	7249.1	
482.46	7703.1	
482.66	5913.9	
482.86	5614.8	
483.05	7556.3	
483.25	6983.6	
483.45	7947.5	
483.65	5878.4	
483.85	7050.5	
484.05	7380.2	
484.25	6247.7	
484.45	6655.2	
484.65	8068.3	
484.84	8128.4	
485.04	5872.2	
485.24	5794.4	
485.44	8270.4	
485.64	7030	
485.84	5306.3	
486.04	6369.9	
486.24	7318.1	
486.44	7542	
486.63	5269.4	
486.83	5930.9	
487.03	7279.2	
487.23	7389.1	
487.43	5443.5	
487.63	7190.4	
487.83	7477.1	
488.02	8185.7	
488.22	6213.5	
488.42	6683.9	
488.62	8176.9	
488.82	7289.4	
489.02	5880.4	
489.22	5927.5	
489.41	8103.1	
489.61	7772.7	
489.81	5679.7	
490.01	5758.9	
490.21	7903.8	
490.41	8575.5	
490.61	5754.8	
490.8	5877.7	
491	7677.2	
491.2	7107.1	
491.4	6295.5	
491.6	5651	
491.8	7681.9	
491.99	7666.2	
492.19	5513.1	
492.39	5754.1	
492.59	7957	
492.79	7988.4	
492.99	6445	
493.18	5752.1	
493.38	8173.4	
493.58	8678.6	
493.78	6293.4	
493.98	5945.3	
494.18	7871	
494.37	7441	
494.57	6523.5	
494.77	6410.1	
494.97	8025.3	
495.17	8297	
495.37	6154.8	
495.56	6407.4	
495.76	8400.1	
495.96	8200.1	
496.16	7262.8	
496.36	6363	
496.55	8418.5	
496.75	7985.7	
496.95	6606.1	
497.15	6532.3	
497.35	8413.7	
497.54	8311.3	
497.74	6432	
497.94	7679.2	
498.14	8909.3	
498.34	8742.1	
498.53	6087.9	
498.73	6703.7	
498.93	7913.4	
499.13	8378.9	
499.33	6584.9	
499.52	7044.3	
499.72	8469	
499.92	8540.7	
500.12	6350.8	
500.32	6663.4	
500.51	8556.4	
500.71	8355.7	
500.91	7226.6	
501.11	6877.8	
501.31	8548.2	
501.5	8921.6	
501.7	7449.1	
501.9	6646.3	
502.1	8382.3	
502.29	8595.3	
502.49	7022.5	
502.69	7442.3	
502.89	8555.7	
503.09	8611	
503.28	6233.3	
503.48	6345.3	
503.68	7972.7	
503.88	8045.1	
504.07	7189.1	
504.27	6679.1	
504.47	8247.9	
504.67	8299.7	
504.86	7019.8	
505.06	6795.8	
505.26	8105.2	
505.46	9367.4	
505.65	6755.6	
505.85	6977.4	
506.05	7922.9	
506.25	8405.5	
506.44	6223.1	
506.64	6879.8	
506.84	7885.4	
507.04	8603.5	
507.23	6277.7	
507.43	6828.6	
507.63	9483.5	
507.83	7988.4	
508.02	6753.5	
508.22	6528.2	
508.42	9633	
508.62	7764.5	
508.81	6657.3	
509.01	7137.2	
509.21	7802.8	
509.4	8150.2	
509.6	6861.4	
509.8	6356.9	
510	8026.7	
510.19	9102.5	
510.39	6331.6	
510.59	6438.1	
510.79	7854	
510.98	8996.7	
511.18	6528.9	
511.38	6570.6	
511.57	8585.1	
511.77	8288.8	
511.97	7131.7	
512.17	6366.5	
512.36	8527.7	
512.56	8505.2	
512.76	6360.3	
512.95	6148.7	
513.15	8710	
513.35	7413	
513.55	7098.3	
513.74	6384.9	
513.94	8563.9	
514.14	8003.5	
514.33	7195.2	
514.53	6841.6	
514.73	8053.3	
514.92	8214.4	
515.12	6439.5	
515.32	6321.4	
515.51	8267.6	
515.71	8686.8	
515.91	7781.6	
516.11	6416.3	
516.3	9605	
516.5	8025.3	
516.7	6870.3	
516.89	7315.3	
517.09	8068.3	
517.29	8073.8	
517.48	7079.8	
517.68	6561	
517.88	7793.2	
518.07	8371.4	
518.27	7053.2	
518.47	6301.6	
518.66	8838.4	
518.86	7696.3	
519.06	6184.9	
519.25	6548	
519.45	7958.4	
519.65	9165.3	
519.84	7129	
520.04	7610.3	
520.24	9498.5	
520.43	8532.5	
520.63	6872.3	
520.83	6636.8	
521.02	7951.6	
521.22	8488.1	
521.42	7062.1	
521.61	7449.1	
521.81	8004.1	
522.01	8285.4	
522.2	6893.5	
522.4	6647.7	
522.6	8525.7	
522.79	7636.2	
522.99	6715.3	
523.18	6206	
523.38	8388.5	
523.58	8358.4	
523.77	7774.1	
523.97	6251.8	
524.17	9818.6	
524.36	9097.1	
524.56	7279.8	
524.76	7053.2	
524.95	8432.9	
525.15	8156.4	
525.34	6912.6	
525.54	6959	
525.74	8748.9	
525.93	8023.3	
526.13	7906.5	
526.33	6916	
526.52	9060.9	
526.72	8693.6	
526.91	8017.1	
527.11	7393.8	
527.31	9047.2	
527.5	9405	
527.7	7256.6	
527.89	6543.3	
528.09	8310.7	
528.29	8767.4	
528.48	7631.4	
528.68	7330.4	
528.87	9066.4	
529.07	9002.2	
529.27	7324.2	
529.46	6981.5	
529.66	8822	
529.85	9144.9	
530.05	6857.3	
530.25	7371.3	
530.44	9930.6	
530.64	8722.3	
530.83	7112.6	
531.03	7400	
531.23	9146.2	
531.42	8906.6	
531.62	7774.1	
531.81	7189.7	
532.01	9196.7	
532.21	9462.3	
532.4	7074.4	
532.6	7375.4	
532.79	9778.4	
532.99	9279.3	
533.18	7510.6	
533.38	8220.5	
533.58	9011.1	
533.77	9486.9	
533.97	7528.3	
534.16	8196.7	
534.36	9764	
534.55	9001.5	
534.75	8305.9	
534.95	7505.8	
535.14	9773.6	
535.34	8962.6	
535.53	7304.4	
535.73	8782.4	
535.92	10086	
536.12	9088.2	
536.31	7400	
536.51	8269	
536.71	9351.7	
536.9	8996.7	
537.1	7436.9	
537.29	7604.8	
537.49	9673.9	
537.68	8901.8	
537.88	7887.4	
538.07	7114	
538.27	9140.8	
538.46	10004	
538.66	7183.6	
538.86	7522.2	
539.05	9108.7	
539.25	9508.7	
539.44	7830.7	
539.64	7480.5	
539.83	9125.7	
540.03	10010	
540.22	7355.6	
540.42	7518.1	
540.61	9257.5	
540.81	9422	
541	7806.2	
541.2	8297	
541.39	8894.3	
541.59	9226.1	
541.78	8105.9	
541.98	7350.2	
542.18	8646.5	
542.37	8668.4	
542.57	7682.6	
542.76	8107.9	
542.96	8740	
543.15	9286.2	
543.35	7735.2	
543.54	7100.3	
543.74	9405	
543.93	9082.7	
544.13	7633.5	
544.32	8503.2	
544.52	9377.6	
544.71	8712.7	
544.91	6829.3	
545.1	7848.5	
545.3	8786.5	
545.49	9293	
545.69	6889.4	
545.88	7333.1	
546.08	10044	
546.27	9709.4	
546.47	7740.6	
546.66	7191.1	
546.86	9422	
547.05	9854.8	
547.24	7344	
547.44	7141.9	
547.63	8587.8	
547.83	9550.4	
548.02	7618.4	
548.22	7754.3	
548.41	8516.1	
548.61	9522.4	
548.8	7217	
549	7173.4	
549.19	9044.5	
549.39	9316.2	
549.58	6949.4	
549.78	7370.6	
549.97	9299.8	
550.17	8786.5	
550.36	8109.3	
550.55	8875.9	
550.75	8847.2	
550.94	9626.8	
551.14	7095.5	
551.33	7408.2	
551.53	8309.3	
551.72	9070.5	
551.92	7381.6	
552.11	7242.3	
552.31	9181.7	
552.5	9035	
552.69	8588.5	
552.89	6888.7	
553.08	9179	
553.28	8855.4	
553.47	7225.9	
553.67	8090.8	
553.86	9591.3	
554.06	8296.3	
554.25	6621.1	
554.44	7071.6	
554.64	10233	
554.83	9706.7	
555.03	7009.5	
555.22	7382.9	
555.42	9239.1	
555.61	8953.7	
555.8	7224.6	
556	7391.1	
556.19	8271.7	
556.39	9239.8	
556.58	7169.9	
556.78	7169.9	
556.97	9017.2	
557.16	8569.4	
557.36	8144.8	
557.55	7013.6	
557.75	8116.1	
557.94	9592	
558.13	6914.6	
558.33	6853.2	
558.52	9323	
558.72	8331.1	
558.91	6875.7	
559.1	6987.7	
559.3	8247.9	
559.49	7974.8	
559.69	6562.4	
559.88	7311.9	
560.07	8853.4	
560.27	9192	
560.46	7467.6	
560.66	7600	
560.85	8716.8	
561.04	8053.3	
561.24	6849.8	
561.43	6993.1	
561.63	8251.3	
561.82	8524.3	
562.01	7927.7	
562.21	7210.9	
562.4	8764.6	
562.59	9521	
562.79	7139.9	
562.98	6779.5	
563.18	8762.6	
563.37	9942.2	
563.56	7499.7	
563.76	6808.1	
563.95	8336.6	
564.14	8314.1	
564.34	7107.8	
564.53	6956.9	
564.73	8754.4	
564.92	9041.1	
565.11	7236.2	
565.31	6685.9	
565.5	9245.9	
565.69	8372.8	
565.89	7082.6	
566.08	7124.2	
566.27	9198.1	
566.47	9488.2	
566.66	7762.5	
566.85	6701	
567.05	8942.8	
567.24	8503.2	
567.44	6880.5	
567.63	8006.9	
567.82	9069.8	
568.02	8746.9	
568.21	6928.3	
568.4	7244.3	
568.6	8817.2	
568.79	8806.9	
568.98	6847.7	
569.18	6965.1	
569.37	8743.5	
569.56	10342	
569.76	7302.4	
569.95	8002.1	
570.14	9012.4	
570.34	9016.5	
570.53	6872.3	
570.72	6830	
570.91	9459.6	
571.11	8851.3	
571.3	7304.4	
571.49	8059.4	
571.69	8854.1	
571.88	8361.9	
572.07	7647.1	
572.27	7653.9	
572.46	8335.9	
572.65	9217.9	
572.85	7123.5	
573.04	7338.6	
573.23	9442.5	
573.43	8871.1	
573.62	6879.8	
573.81	7524.9	
574	8885.5	
574.2	8753	
574.39	7241.6	
574.58	7320.1	
574.78	9610.4	
574.97	9009	
575.16	7626.6	
575.36	7866.9	
575.55	9341.5	
575.74	9512.8	
575.93	6975.4	
576.13	7867.6	
576.32	8844.5	
576.51	9357.9	
576.71	7393.2	
576.9	8390.5	
577.09	9670.5	
577.28	9181	
577.48	7737.9	
577.67	6933.1	
577.86	8928.5	
578.05	9176.9	
578.25	7424.6	
578.44	7453.2	
578.63	9004.2	
578.83	9970.2	
579.02	7002	
579.21	8224	
579.4	9299.1	
579.6	8947.6	
579.79	7673.7	
579.98	9354.4	
580.17	9574.3	
580.37	9587.9	
580.56	7222.5	
580.75	7841	
580.94	9742.9	
581.14	9904	
581.33	8168	
581.52	7299	
581.71	9397.4	
581.91	9977	
582.1	7045	
582.29	7499	
582.48	9061.6	
582.68	9090.9	
582.87	7873.8	
583.06	7670.3	
583.25	9383.8	
583.45	8775.5	
583.64	8179.6	
583.83	8682.7	
584.02	8981.7	
584.21	9464.3	
584.41	8204.8	
584.6	7570	
584.79	9212.4	
584.98	9715.6	
585.18	7236.2	
585.37	7237.5	
585.56	8829.5	
585.75	9460.9	
585.94	7326.9	
586.14	7888.8	
586.33	9816.6	
586.52	9134.6	
586.71	7797.3	
586.91	7500.3	
587.1	8670.4	
587.29	9491.7	
587.48	7466.2	
587.67	7284.6	
587.87	9291.6	
588.06	9318.9	
588.25	8367.3	
588.44	7855.3	
588.63	9071.8	
588.83	9523.7	
589.02	7478.5	
589.21	7303.7	
589.4	8913.4	
589.59	8770.8	
589.78	6719.4	
589.98	6920.1	
590.17	8434.2	
590.36	8788.5	
590.55	6333.7	
590.74	6945.3	
590.94	9710.1	
591.13	8598.1	
591.32	6774.7	
591.51	6416.3	
591.7	8917.5	
591.89	8551.6	
592.09	6522.1	
592.28	6901	
592.47	7946.1	
592.66	9557.2	
592.85	6539.2	
593.05	6668.2	
593.24	8492.9	
593.43	9106	
593.62	6842.3	
593.81	7103	
594	8516.8	
594.19	8677.2	
594.39	6737.8	
594.58	6618.4	
594.77	8755.1	
594.96	9154.4	
595.15	6690	
595.34	7096.2	
595.54	8750.3	
595.73	8114.1	
595.92	6148.7	
596.11	7017.7	
596.3	9090.9	
596.49	8096.3	
596.68	6924.9	
596.88	7167.9	
597.07	8855.4	
597.26	7998.7	
597.45	6427.9	
597.64	7392.5	
597.83	8273.8	
598.02	8688.8	
598.22	6557.6	
598.41	6987	
598.6	8471.8	
598.79	8020.5	
598.98	6554.2	
599.17	7331.7	
599.36	8542.8	
599.55	9477.3	
599.74	8198.7	
599.94	7953.6	
600.13	8940.7	
600.32	7968.6	
600.51	6376.7	
600.7	6393.1	
600.89	9339.4	
601.08	9519.6	
601.27	6264.7	
601.47	6979.5	
601.66	8750.3	
601.85	9356.5	
602.04	6853.9	
602.23	6993.1	
602.42	8110.6	
602.61	8533.2	
602.8	6640.9	
602.99	6569.9	
603.18	8413.7	
603.37	8567.3	
603.57	7088	
603.76	7454.6	
603.95	9047.2	
604.14	8671.8	
604.33	6612.2	
604.52	6772.6	
604.71	8454.7	
604.9	8286.8	
605.09	7330.4	
605.28	7176.1	
605.47	8992.6	
605.66	8650.6	
605.86	7025.9	
606.05	6592.4	
606.24	9019.3	
606.43	7790.5	
606.62	6897.6	
606.81	7468.9	
607	8872.5	
607.19	8220.5	
607.38	6437.4	
607.57	6505.7	
607.76	8087.4	
607.95	7662.8	
608.14	6919.4	
608.33	7409.6	
608.52	8172.1	
608.72	8733.9	
608.91	6279.1	
609.1	6249.7	
609.29	8182.3	
609.48	7736.5	
609.67	7040.9	
609.86	6273.6	
610.05	7933.1	
610.24	8084.7	
610.43	6204.7	
610.62	5933.6	
610.81	9000.1	
611	8729.1	
611.19	6230.6	
611.38	6871.6	
611.57	8389.8	
611.76	9357.2	
611.95	6158.2	
612.14	6020.3	
612.33	8112.7	
612.52	7773.4	
612.71	6490.7	
612.9	5812.8	
613.09	7508.5	
613.28	9318.3	
613.47	6404.7	
613.66	7116	
613.85	8338	
614.04	7862.8	
614.24	6375.3	
614.43	5735	
614.62	8398.7	
614.81	8357.8	
615	6847.7	
615.19	6766.5	
615.38	7777.5	
615.57	8109.3	
615.76	6693.4	
615.95	7451.9	
616.14	8442.4	
616.33	8078.6	
616.52	6956.3	
616.71	7025.2	
616.9	8258.8	
617.09	8191.9	
617.28	6406	
617.47	7351.5	
617.66	7699	
617.85	7641.7	
618.04	7152.9	
618.22	6678.4	
618.41	7989.1	
618.6	8714.1	
618.79	6735.1	
618.98	6508.4	
619.17	8897.7	
619.36	7548.1	
619.55	6524.8	
619.74	6660.7	
619.93	8348.9	
620.12	7909.9	
620.31	7064.8	
620.5	7229.3	
620.69	9093.7	
620.88	9145.5	
621.07	7791.2	
621.26	7040.9	
621.45	8559.1	
621.64	8557.1	
621.83	7105.1	
622.02	6395.1	
622.21	8641.7	
622.4	8443.8	
622.59	7451.2	
622.78	7320.1	
622.97	8086.1	
623.16	8911.4	
623.35	7064.8	
623.54	6386.2	
623.72	8275.2	
623.91	8358.4	
624.1	7293.5	
624.29	6232.7	
624.48	9265	
624.67	8664.3	
624.86	7208.8	
625.05	6495.5	
625.24	9278.7	
625.43	8157.1	
625.62	8454.7	
625.81	6652.5	
626	8824	
626.19	8295.6	
626.38	7233.4	
626.56	6790.4	
626.75	8130.4	
626.94	8785.8	
627.13	7250.5	
627.32	6214.9	
627.51	8783.1	
627.7	9635.7	
627.89	6332.3	
628.08	7240.9	
628.27	8022.6	
628.46	8153	
628.65	6587.6	
628.83	6295.5	
629.02	8705.2	
629.21	8044.4	
629.4	6907.8	
629.59	7096.2	
629.78	7951.6	
629.97	8747.6	
630.16	7134.4	
630.35	6674.3	
630.54	9183.8	
630.72	9020.6	
630.91	6701	
631.1	7163.1	
631.29	8516.1	
631.48	8643.1	
631.67	7231.4	
631.86	6744.6	
632.05	8282	
632.24	8266.3	
632.42	6469.5	
632.61	6952.9	
632.8	8273.8	
632.99	7956.4	
633.18	6961	
633.37	7200.7	
633.56	8509.3	
633.75	8409	
633.93	6962.4	
634.12	6728.3	
634.31	9117.6	
634.5	8824	
634.69	6730.3	
634.88	7072.3	
635.07	8294.3	
635.25	8802.2	
635.44	7462.1	
635.63	7582.3	
635.82	8176.2	
636.01	7737.2	
636.2	7491.5	
636.39	7081.9	
636.57	9177.6	
636.76	8692.3	
636.95	6623.1	
637.14	7673.1	
637.33	8495	
637.52	9153.7	
637.7	6381.5	
637.89	7210.9	
638.08	8187.8	
638.27	9265.7	
638.46	7197.9	
638.65	7519.5	
638.83	9323	
639.02	8032.8	
639.21	7113.3	
639.4	7472.4	
639.59	8419.9	
639.78	8084	
639.96	6492.1	
640.15	6600.6	
640.34	8360.5	
640.53	8378.2	
640.72	6313.9	
640.91	6520	
641.09	7800.7	
641.28	8882	
641.47	6608.8	
641.66	7171.3	
641.85	8295.6	
642.03	8512	
642.22	6988.4	
642.41	6584.9	
642.6	7856	
642.79	7421.2	
642.97	6421.1	
643.16	6958.3	
643.35	7838.9	
643.54	7725.6	
643.73	6374.6	
643.91	6961	
644.1	7620.5	
644.29	8136.6	
644.48	6442.2	
644.67	6514.6	
644.85	7711.3	
645.04	8069	
645.23	6121.4	
645.42	6398.5	
645.6	7590.5	
645.79	8529.1	
645.98	6240.2	
646.17	5579.3	
646.36	7404.8	
646.54	7826.7	
646.73	6834.8	
646.92	5965.1	
647.11	7578.2	
647.29	8381	
647.48	6047.7	
647.67	5791.7	
647.86	8601.5	
648.05	8806.9	
648.23	6238.8	
648.42	7313.3	
648.61	7947.5	
648.8	7750.9	
648.98	5908.4	
649.17	6269.5	
649.36	7492.8	
649.55	7089.4	
649.73	6030.6	
649.92	6524.1	
650.11	7402	
650.3	7639.6	
650.48	6095.4	
650.67	5927.5	
650.86	7895.6	
651.05	6956.9	
651.23	6034	
651.42	5920.7	
651.61	7333.8	
651.79	7430.7	
651.98	6225.1	
652.17	5862.7	
652.36	7734.5	
652.54	7045.7	
652.73	5908.4	
652.92	5852.4	
653.11	7759.1	
653.29	7819.8	
653.48	5386.8	
653.67	6104.3	
653.85	7586.4	
654.04	8428.1	
654.23	6315.3	
654.42	5962.3	
654.6	7175.4	
654.79	7697.6	
654.98	5494.7	
655.16	5929.6	
655.35	6866.2	
655.54	6718	
655.73	5438.7	
655.91	5406.6	
656.1	7604.8	
656.29	6634.7	
656.47	4990.2	
656.66	6436.8	
656.85	6924.9	
657.03	6842.3	
657.22	5496.1	
657.41	5589.6	
657.59	7065.5	
657.78	6877.8	
657.97	5321.3	
658.16	5887.9	
658.34	7617.1	
658.53	7874.4	
658.72	6578.1	
658.9	6948.8	
659.09	7242.3	
659.28	7210.9	
659.46	5738.4	
659.65	5529.5	
659.84	6935.8	
660.02	7415.7	
660.21	5674.9	
660.4	5516.5	
660.58	7828.7	
660.77	7198.6	
660.96	6000.5	
661.14	5283.8	
661.33	8187.1	
661.52	8093.6	
661.7	5216.9	
661.89	8036.9	
662.08	6901	
662.26	6585.6	
662.45	5475.6	
662.64	5513.1	
662.82	7512.6	
663.01	6874.3	
663.2	5554.8	
663.38	6153.5	
663.57	7421.8	
663.75	7288	
663.94	5777.3	
664.13	6774.7	
664.31	6935.1	
664.5	7438.9	
664.69	6087.9	
664.87	6333.7	
665.06	6658.6	
665.25	7232.7	
665.43	6583.5	
665.62	6655.2	
665.8	7506.5	
665.99	7026.6	
666.18	5743.9	
666.36	5802.6	
666.55	7582.9	
666.74	7374.1	
666.92	5455.1	
667.11	6701	
667.29	6984.9	
667.48	7531.1	
667.67	6472.3	
667.85	5668.1	
668.04	6978.1	
668.22	6938.5	
668.41	5837.4	
668.6	6016.9	
668.78	6791.1	
668.97	6980.2	
669.15	6136.4	
669.34	5327.4	
669.53	6824.5	
669.71	7053.9	
669.9	5398.4	
670.08	5897.5	
670.27	6804	
670.46	7288.7	
670.64	6057.2	
670.83	6242.2	
671.01	6716.7	
671.2	7191.1	
671.38	5484.5	
671.57	5390.3	
671.76	7720.8	
671.94	8119.5	
672.13	5319.3	
672.31	6133.7	
672.5	7388.4	
672.69	6852.5	
672.87	5403.9	
673.06	5754.1	
673.24	7320.8	
673.43	6873.7	
673.61	6085.2	
673.8	5687.9	
673.98	7396.6	
674.17	7507.9	
674.36	6165.1	
674.54	6012.2	
674.73	7152.2	
674.91	7368.6	
675.1	5778.7	
675.28	5489.2	
675.47	6969.9	
675.65	7490.1	
675.84	5685.8	
676.03	5937.1	
676.21	6883.9	
676.4	6411.5	
676.58	6342.6	
676.77	6094.1	
676.95	8051.2	
677.14	6811.5	
677.32	5373.9	
677.51	5314.5	
677.69	7498.3	
677.88	6547.4	
678.06	5363.6	
678.25	5421.7	
678.44	6994.5	
678.62	6828.6	
678.81	5193.6	
678.99	5937.7	
679.18	7699	
679.36	7328.3	
679.55	5647.6	
679.73	6109.8	
679.92	7342.7	
680.1	6860.7	
680.29	6579.4	
680.47	5682.4	
680.66	6820.4	
680.84	7396.6	
681.03	5181.4	
681.21	5948.7	
681.4	6812.2	
681.58	6702.3	
681.77	5466	
681.95	5380.7	
682.14	7473	
682.32	7718.1	
682.51	6111.1	
682.69	5191.6	
682.88	6741.9	
683.06	7124.2	
683.25	5879.7	
683.43	6274.3	
683.62	6961.7	
683.8	7315.3	
683.99	6414.2	
684.17	5799.2	
684.36	8008.2	
684.54	6971.3	
684.73	5154.7	
684.91	5328.1	
685.1	7205.4	
685.28	6664.8	
685.46	5737	
685.65	5703.6	
685.83	7183.6	
686.02	6725.5	
686.2	5268.7	
686.39	5403.9	
686.57	6389	
686.76	7645.1	
686.94	5229.1	
687.13	5427.1	
687.31	7116	
687.5	6783.6	
687.68	4975.2	
687.86	5875.6	
688.05	8133.8	
688.23	6335	
688.42	5992.4	
688.6	5324	
688.79	6643.6	
688.97	6625.9	
689.16	5640.1	
689.34	4761.5	
689.52	7236.8	
689.71	7460.8	
689.89	5927.5	
690.08	5343.8	
690.26	6989.7	
690.45	6756.9	
690.63	5988.3	
690.81	5474.2	
691	6802	
691.18	6591.7	
691.37	5646.2	
691.55	7284.6	
691.74	6599.2	
691.92	8237.6	
692.1	5577.3	
692.29	5089.2	
692.47	6800.6	
692.66	6228.6	
692.84	5260.5	
693.02	5664.7	
693.21	6268.1	
693.39	6767.9	
693.58	5737.7	
693.76	5306.3	
693.94	7543.4	
694.13	7493.5	
694.31	5294.7	
694.5	6141.9	
694.68	6578.8	
694.86	6909.2	
695.05	5597.8	
695.23	5911.8	
695.42	7177.4	
695.6	8944.2	
695.78	6069.5	
695.97	5356.8	
696.15	7332.4	
696.34	6675.7	
696.52	5226.4	
696.7	5917.3	
696.89	7036.8	
697.07	6519.4	
697.25	5773.2	
697.44	6879.1	
697.62	7017.7	
697.81	7258.7	
697.99	5553.4	
698.17	5814.9	
698.36	6442.9	
698.54	7038.9	
698.72	5831.2	
698.91	4978.6	
699.09	6627.2	
699.28	6466.8	
699.46	5541.1	
699.64	5404.6	
699.83	6578.8	
700.01	7400	
700.19	6069.5	
700.38	4790.9	
700.56	7370	
700.74	6507.1	
700.93	5054.4	
701.11	5821	
701.29	6958.3	
701.48	7778.9	
701.66	5234.6	
701.84	5279	
702.03	6656.6	
702.21	7180.9	
702.39	4954	
702.58	5425.8	
702.76	7014.3	
702.94	7079.8	
703.13	4896.7	
703.31	6850.5	
703.49	6441.5	
703.68	7141.3	
703.86	5114.5	
704.04	5846.3	
704.23	6812.9	
704.41	7112.6	
704.59	5289.2	
704.78	6120.7	
704.96	7750.9	
705.14	7066.9	
705.33	4980	
705.51	5667.4	
705.69	6531	
705.87	7357.7	
706.06	5819.6	
706.24	4943.8	
706.42	6888	
706.61	7092.1	
706.79	5948	
706.97	4969.7	
707.16	6486.6	
707.34	6907.1	
707.52	5862.7	
707.7	5217.5	
707.89	6611.5	
708.07	6257.2	
708.25	5825.1	
708.44	5935	
708.62	6467.5	
708.8	7354.9	
708.98	5991	
709.17	5186.1	
709.35	6726.2	
709.53	6792.4	
709.72	4932.2	
709.9	5280.3	
710.08	7047.1	
710.26	6969.2	
710.45	6261.3	
710.63	5232.6	
710.81	6665.5	
710.99	6645	
711.18	5717.9	
711.36	5311.7	
711.54	6567.8	
711.72	7148.1	
711.91	5331.5	
712.09	4909	
712.27	6713.9	
712.45	7154.9	
712.64	5612.8	
712.82	4742.4	
713	6232	
713.18	6363.7	
713.37	4803.9	
713.55	5785.5	
713.73	7057.3	
713.91	6042.9	
714.1	5104.9	
714.28	4684.4	
714.46	6752.8	
714.64	6124.1	
714.83	4327.4	
715.01	4857.1	
715.19	6143.2	
715.37	5655.1	
715.55	4586.1	
715.74	4813.4	
715.92	6815.6	
716.1	5199.1	
716.28	5700.9	
716.47	4870.8	
716.65	5771.2	
716.83	5826.5	
717.01	4726.7	
717.19	4769.7	
717.38	7434.8	
717.56	5489.9	
717.74	4911	
717.92	4273.4	
718.1	6517.3	
718.29	5853.8	
718.47	3985.3	
718.65	4485.7	
718.83	6494.8	
719.01	6340.5	
719.2	3943.7	
719.38	4805.2	
719.56	6165.1	
719.74	7329	
719.92	4532.8	
720.11	5282.4	
720.29	6257.9	
720.47	5543.2	
720.65	4132.1	
720.83	4839.4	
721.02	5786.2	
721.2	5560.9	
721.38	4818.2	
721.56	4263.9	
721.74	5213.4	
721.92	5337.7	
722.11	5152	
722.29	4946.5	
722.47	6305.7	
722.65	5596.4	
722.83	4188.1	
723.01	4900.1	
723.2	5696.1	
723.38	5973.2	
723.56	3768.9	
723.74	4687.1	
723.92	5300.1	
724.1	6229.2	
724.29	4104.1	
724.47	5025.7	
724.65	5448.3	
724.83	5309	
725.01	4045.4	
725.19	4753.3	
725.37	5312.4	
725.56	5335.6	
725.74	3870	
725.92	4179.2	
726.1	5296	
726.28	5623.7	
726.46	4462.5	
726.64	4232.5	
726.83	5534.3	
727.01	5726.1	
727.19	3878.2	
727.37	4564.9	
727.55	5636	
727.73	6033.3	
727.91	3840.6	
728.09	3775.1	
728.28	6036	
728.46	6322.1	
728.64	4652.3	
728.82	4536.9	
729	6886.6	
729.18	6214.9	
729.36	3933.5	
729.54	5784.8	
729.72	7020.4	
729.91	5655.1	
730.09	5453.1	
730.27	4468	
730.45	5597.8	
730.63	6056.5	
730.81	4952	
730.99	4174.4	
731.17	6597.9	
731.35	5386.8	
731.53	4588.1	
731.71	4297.3	
731.9	6251.8	
732.08	6362.4	
732.26	4532.8	
732.44	4250.9	
732.62	6472.9	
732.8	6032	
732.98	4800.4	
733.16	4078.9	
733.34	6052.4	
733.52	5048.9	
733.7	4416.1	
733.88	4667.3	
734.07	5961	
734.25	5724.8	
734.43	3979.9	
734.61	5266	
734.79	6899.6	
734.97	5644.9	
735.15	4142.4	
735.33	4402.5	
735.51	5876.3	
735.69	5646.9	
735.87	5326.8	
736.05	4585.4	
736.23	5801.9	
736.41	5564.3	
736.59	4356.7	
736.77	4497.3	
736.95	6169.8	
737.13	5626.5	
737.32	4061.1	
737.5	4313	
737.68	6449.7	
737.86	5524.1	
738.04	3996.3	
738.22	5408.7	
738.4	5421.7	
738.58	5668.8	
738.76	4556.7	
738.94	3666.5	
739.12	5489.2	
739.3	5406	
739.48	4963.6	
739.66	4613.4	
739.84	5730.9	
740.02	5687.9	
740.2	3753.2	
740.38	3988.1	
740.56	5939.1	
740.74	5082.4	
740.92	4532.8	
741.1	4429.8	
741.28	5562.3	
741.46	5350	
741.64	4197.7	
741.82	4579.3	
742	5606.7	
742.18	5477.6	
742.36	4307.6	
742.54	4070.7	
742.72	6058.6	
742.9	5023.7	
743.08	4616.1	
743.26	3706.1	
743.44	6188.3	
743.62	5992.4	
743.8	4778.6	
743.98	3996.3	
744.16	5845.6	
744.34	5524.7	
744.52	4646.8	
744.7	4603.2	
744.88	5945.9	
745.06	5514.5	
745.24	4672.1	
745.42	4780	
745.6	5976	
745.78	5831.2	
745.96	3741.6	
746.14	4068.6	
746.32	6567.2	
746.5	5922	
746.68	4468	
746.86	3975.1	
747.03	6195.8	
747.21	4994.3	
747.39	4464.6	
747.57	4003.1	
747.75	5629.9	
747.93	5947.3	
748.11	4004.5	
748.29	3932.8	
748.47	6939.9	
748.65	5448.3	
748.83	4563.6	
749.01	4340.3	
749.19	5835.3	
749.37	5168.4	
749.55	4179.2	
749.73	4318.5	
749.91	5608.7	
750.09	5377.3	
750.26	4298.7	
750.44	3843.4	
750.62	5569.1	
750.8	5500.8	
750.98	3749.1	
751.16	4041.3	
751.34	5597.1	
751.52	5113.8	
751.7	4686.4	
751.88	3694.5	
752.06	6027.2	
752.24	5750	
752.42	3698.6	
752.59	3971.7	
752.77	5489.9	
752.95	6516.6	
753.13	4554.7	
753.31	4102.1	
753.49	5251.7	
753.67	5640.1	
753.85	4321.2	
754.03	4002.4	
754.21	5844.2	
754.38	6132.3	
754.56	4135.5	
754.74	3431.7	
754.92	5283.8	
755.1	5795.8	
755.28	3388	
755.46	3426.9	
755.64	6433.4	
755.82	6554.2	
755.99	3714.3	
756.17	3790.1	
756.35	4601.1	
756.53	5773.9	
756.71	2924.5	
756.89	3627	
757.07	5410.7	
757.25	4667.3	
757.42	4052.2	
757.6	4763.6	
757.78	5481.7	
757.96	4680.3	
758.14	3792.2	
758.32	3407.1	
758.5	4319.8	
758.67	5004.6	
758.85	3676.1	
759.03	3808.5	
759.21	5126.7	
759.39	4721.3	
759.57	3310.9	
759.75	4169.7	
759.92	5649.7	
760.1	5149.3	
760.28	4463.9	
760.46	4712.4	
760.64	4922	
760.82	4782.7	
760.99	4118.5	
761.17	3680.9	
761.35	5554.1	
761.53	4717.8	
761.71	3844.7	
761.89	4380.6	
762.06	5406	
762.24	5067.4	
762.42	3908.2	
762.6	3682.9	
762.78	5008.6	
762.96	5563	
763.13	4145.8	
763.31	3820.8	
763.49	5652.4	
763.67	4934.9	
763.85	4553.3	
764.02	5037.3	
764.2	5894.1	
764.38	5190.9	
764.56	3793.5	
764.74	4517.8	
764.91	5983.5	
765.09	5087.8	
765.27	3562.1	
765.45	3433.1	
765.63	5993	
765.8	5917.3	
765.98	3209.2	
766.16	3426.3	
766.34	4759.5	
766.52	4588.8	
766.69	4217.5	
766.87	3283.6	
767.05	5133.6	
767.23	5771.2	
767.41	3592.8	
767.58	3779.9	
767.76	5506.3	
767.94	5606.7	
768.12	3659	
768.29	4162.2	
768.47	5092.6	
768.65	5730.9	
768.83	3325.2	
769	4263.9	
769.18	4776.5	
769.36	5345.2	
769.54	4269.3	
769.72	3379.8	
769.89	5563.6	
770.07	5612.1	
770.25	3696.6	
770.43	4684.4	
770.6	6222.4	
770.78	6502.3	
770.96	3782.6	
771.14	4368.3	
771.31	5530.2	
771.49	5008	
771.67	3169.6	
771.85	3297.2	
772.02	4422.2	
772.2	4992.3	
772.38	3957.4	
772.55	3556	
772.73	5223.7	
772.91	5060.5	
773.09	3824.9	
773.26	3923.9	
773.44	5184.1	
773.62	4944.5	
773.8	3443.3	
773.97	3193.5	
774.15	5261.9	
774.33	4941.7	
774.5	3353.2	
774.68	3629	
774.86	5256.5	
775.04	4932.9	
775.21	3484.3	
775.39	3401	
775.57	5146.5	
775.74	5446.2	
775.92	3314.3	
776.1	3181.2	
776.27	5170.4	
776.45	6146	
776.63	3474.7	
776.81	3122.5	
776.98	4933.6	
777.16	5735.7	
777.34	3506.1	
777.51	3829.7	
777.69	4886.5	
777.87	4677.6	
778.04	3635.1	
778.22	4100.7	
778.4	4760.2	
778.57	5283.1	
778.75	2989.4	
778.93	3237.8	
779.1	4547.2	
779.28	4448.2	
779.46	3052.2	
779.64	3338.9	
779.81	5358.9	
779.99	6113.9	
780.17	3989.4	
780.34	4127.3	
780.52	4945.8	
780.69	5077.6	
780.87	3620.8	
781.05	3292.5	
781.22	5066.7	
781.4	5015.5	
781.58	3445.4	
781.75	2783.2	
781.93	5056.4	
782.11	4502.1	
782.28	4136.9	
782.46	3427.6	
782.64	4390.2	
782.81	5139	
782.99	3505.4	
783.17	3444.7	
783.34	5065.3	
783.52	4543.8	
783.69	3647.4	
783.87	4299.4	
784.05	4592.2	
784.22	4574.5	
784.4	4210.6	
784.58	3706.8	
784.75	5339.1	
784.93	4650.3	
785.1	3480.9	
785.28	3905.5	
785.46	5102.9	
785.63	4518.5	
785.81	3481.5	
785.99	3323.9	
786.16	4752	
786.34	4944.5	
786.51	3360.7	
786.69	3639.9	
786.87	4320.5	
787.04	4689.8	
787.22	3226.9	
787.39	3961.5	
787.57	4555.4	
787.75	5408	
787.92	4153.3	
788.1	4076.8	
788.27	4565.6	
788.45	4381.3	
788.63	3892.5	
788.8	2828.9	
788.98	4917.2	
789.15	4248.2	
789.33	2991.4	
789.5	3362.8	
789.68	5323.4	
789.86	5367.7	
790.03	3789.4	
790.21	3353.9	
790.38	5382.7	
790.56	4637.3	
790.73	3284.3	
790.91	3252.2	
791.09	4560.8	
791.26	5141.8	
791.44	3497.2	
791.61	3058.3	
791.79	4549.9	
791.96	4573.8	
792.14	3107.5	
792.32	2770.2	
792.49	4553.3	
792.67	4696	
792.84	3198.9	
793.02	3008.5	
793.19	4904.2	
793.37	5500.2	
793.54	2791.4	
793.72	3076	
793.89	5569.8	
794.07	4569	
794.25	3442.6	
794.42	2858.3	
794.6	5390.3	
794.77	5066.7	
794.95	3764.8	
795.12	3297.2	
795.3	4638	
795.47	5044.1	
795.65	3644.7	
795.82	3512.9	
796	4417.5	
796.17	5905.7	
796.35	3355.9	
796.52	3970.3	
796.7	5033.2	
796.87	5105.6	
797.05	3403.7	
797.22	4074.8	
797.4	5031.2	
797.57	5877.7	
797.75	3512.3	
797.92	3306.1	
798.1	5315.8	
798.27	4499.4	
798.45	2897.9	
798.62	3049.4	
798.8	4834.6	
798.97	5219.6	
799.15	3663.8	
799.32	3502.7	
799.5	4193.6	
799.67	4851	
799.85	3847.5	
800.02	2815.3	
800.2	4538.3	
800.37	4751.3	
800.55	3918.4	
800.72	3272.7	
800.9	5184.8	
801.07	5538.4	
801.25	4463.2	
801.42	3586.7	
801.6	5251.7	
801.77	4888.5	
801.95	3387.3	
802.12	3250.8	
802.29	5005.9	
802.47	4934.9	
802.64	3582.6	
802.82	2831	
802.99	4556	
803.17	5268.1	
803.34	3490.4	
803.52	3132.7	
803.69	5877.7	
803.87	4326	
804.04	3510.9	
804.21	3590.8	
804.39	5449.6	
804.56	4631.8	
804.74	3007.1	
804.91	3648.8	
805.09	4526	
805.26	4632.5	
805.44	3045.3	
805.61	3323.9	
805.78	5068.7	
805.96	5088.5	
806.13	3642.7	
806.31	3831.1	
806.48	4200.4	
806.66	4609.3	
806.83	3649.5	
807	3561.4	
807.18	4551.3	
807.35	4838	
807.53	3489.7	
807.7	2871.3	
807.87	5504.3	
808.05	4562.2	
808.22	3851.5	
808.4	2864.4	
808.57	4502.1	
808.74	4247.5	
808.92	3226.2	
809.09	4059.1	
809.27	4512.4	
809.44	4988.9	
809.61	2851.5	
809.79	3174.4	
809.96	5566.4	
810.14	5150	
810.31	2840.5	
810.48	3448.8	
810.66	4670.7	
810.83	5212.1	
811.01	3269.2	
811.18	3628.3	
811.35	5124	
811.53	4117.8	
811.7	3868.6	
811.87	3621.5	
812.05	4688.5	
812.22	4483.7	
812.39	3129.3	
812.57	3050.8	
812.74	4672.8	
812.92	5959.6	
813.09	3388.7	
813.26	3654.3	
813.44	5656.5	
813.61	4539.7	
813.78	2856.9	
813.96	3732.1	
814.13	4622.9	
814.3	4329.4	
814.48	4038.6	
814.65	3360.7	
814.82	5539.1	
815	4407.2	
815.17	3526.6	
815.34	4174.4	
815.52	4513.7	
815.69	4511.7	
815.87	3461.1	
816.04	3421.5	
816.21	4633.9	
816.38	4136.2	
816.56	3352.5	
816.73	3139.5	
816.9	5672.2	
817.08	5203.9	
817.25	3225.6	
817.42	3943	
817.6	4227	
817.77	4588.1	
817.94	3559.4	
818.12	3140.9	
818.29	4371.7	
818.46	6450.4	
818.64	3318.4	
818.81	3065.8	
818.98	4347.8	
819.16	6027.9	
819.33	3768.3	
819.5	3507.5	
819.67	4922	
819.85	5358.2	
820.02	3434.4	
820.19	3583.9	
820.37	4725.3	
820.54	4497.3	
820.71	3502.7	
820.88	4303.5	
821.06	4795	
821.23	4383.3	
821.4	3584.6	
821.58	3524.6	
821.75	5182.7	
821.92	4724	
822.09	2884.9	
822.27	3121.8	
822.44	4589.5	
822.61	4527.4	
822.79	2927.2	
822.96	5371.1	
823.13	4897.4	
823.3	4315.8	
823.48	3295.2	
823.65	3005.7	
823.82	5149.3	
823.99	4268	
824.17	4176.5	
824.34	3131.3	
824.51	5870.2	
824.68	4667.3	
824.86	3211.9	
825.03	3542.3	
825.2	4608.6	
825.37	5500.2	
825.55	3188.7	
825.72	3426.9	
825.89	5908.4	
826.06	5477.6	
826.24	3398.9	
826.41	3419.4	
826.58	5547.9	
826.75	4861.9	
826.92	2713.6	
827.1	3050.1	
827.27	7205.4	
827.44	5872.9	
827.61	3291.8	
827.79	3865.9	
827.96	4420.2	
828.13	4597.7	
828.3	3437.9	
828.47	2855.6	
828.65	4817.5	
828.82	4777.9	
828.99	4260.5	
829.16	3748.5	
829.34	5113.1	
829.51	4965.6	
829.68	3481.5	
829.85	3591.5	
830.02	5477.6	
830.2	5157.5	
830.37	2753.2	
830.54	4111.6	
830.71	5765	
830.88	4585.4	
831.05	2786.6	
831.23	3151.1	
831.4	5597.1	
831.57	6130.9	
831.74	3268.6	
831.91	2866.5	
832.09	4925.4	
832.26	5131.5	
832.43	3338.9	
832.6	3706.8	
832.77	4856.4	
832.94	5418.9	
833.12	2691	
833.29	3232.4	
833.46	4893.3	
833.63	6269.5	
833.8	3640.6	
833.97	3353.2	
834.15	5187.5	
834.32	4941.7	
834.49	3497.9	
834.66	3517.7	
834.83	5299.5	
835	4449.6	
835.17	3237.8	
835.35	3237.2	
835.52	5089.9	
835.69	4945.8	
835.86	3447.4	
836.03	2827.6	
836.2	5138.4	
836.37	4777.2	
836.55	3280.8	
836.72	3161.4	
836.89	4763.6	
837.06	5177.3	
837.23	3431	
837.4	3663.8	
837.57	5794.4	
837.75	6339.1	
837.92	3030.3	
838.09	3263.1	
838.26	4768.4	
838.43	5343.2	
838.6	3517	
838.77	3155.2	
838.94	6023.8	
839.11	5786.2	
839.29	3338.2	
839.46	2631	
839.63	5124	
839.8	4885.8	
839.97	3259	
840.14	3242.6	
840.31	4925.4	
840.48	5122.7	
840.65	2766.1	
840.82	3151.8	
841	5098.1	
841.17	5014.1	
841.34	3039.2	
841.51	3061	
841.68	5091.9	
841.85	4913.8	
842.02	3118.4	
842.19	2609.8	
842.36	4895.3	
842.53	4896	
842.7	2996.9	
842.87	3639.9	
843.05	6284.5	
843.22	4855.1	
843.39	2827.6	
843.56	3056.3	
843.73	4669.4	
843.9	5186.1	
844.07	4746.5	
844.24	3958	
844.41	7088	
844.58	4490.5	
844.75	2901.3	
844.92	3167.5	
845.09	5056.4	
845.26	5069.4	
845.43	2956.6	
845.6	3147.7	
845.77	5169.1	
845.94	4869.4	
846.12	3293.8	
846.29	3454.9	
846.46	5318.6	
846.63	5068	
846.8	2921.8	
846.97	3502	
847.14	5470.8	
847.31	5102.9	
847.48	3326.6	
847.65	3674.7	
847.82	5262.6	
847.99	5290.6	
848.16	3936.2	
848.33	3592.1	
848.5	4703.5	
848.67	5504.3	
848.84	2916.3	
849.01	3093.8	
849.18	4683	
849.35	4374.5	
849.52	3672.7	
849.69	2965.5	
849.86	5298.1	
850.03	5415.5	
850.2	2961.4	
850.37	3623.5	
850.54	5334.3	
850.71	4839.4	
850.88	3577.1	
851.05	2933.4	
851.22	4989.5	
851.39	5584.1	
851.56	2798.9	
851.73	3351.8	
851.9	4543.1	
852.07	5270.8	
852.24	3293.8	
852.41	2937.5	
852.58	5010.7	
852.75	4612.7	
852.92	3346.4	
853.09	2923.1	
853.26	4752.7	
853.43	5461.9	
853.6	2963.4	
853.77	2564.1	
853.94	5534.3	
854.11	4508.3	
854.28	4293.2	
854.44	3206.4	
854.61	5868.1	
854.78	5322.7	
854.95	2949.8	
855.12	3656.3	
855.29	4180.6	
855.46	5642.2	
855.63	2975	
855.8	4037.9	
855.97	4769.7	
856.14	5345.9	
856.31	4116.4	
856.48	3298.6	
856.65	4759.5	
856.82	4458.4	
856.99	2816.6	
857.16	3235.8	
857.33	6116.6	
857.49	4800.4	
857.66	3192.1	
857.83	3426.3	
858	4809.3	
858.17	5011.4	
858.34	2783.9	
858.51	2998.2	
858.68	5646.2	
858.85	5620.3	
859.02	3418.7	
859.19	3609.9	
859.36	4574.5	
859.52	4539	
859.69	2997.5	
859.86	3514.3	
860.03	4561.5	
860.2	5610.8	
860.37	2764.8	
860.54	3003	
860.71	5198.4	
860.88	5612.1	
861.05	3248.1	
861.21	3694.5	
861.38	5592.3	
861.55	4435.2	
861.72	2791.4	
861.89	3310.2	
862.06	5345.9	
862.23	5670.8	
862.4	2882.2	
862.56	3080.1	
862.73	5186.8	
862.9	5018.9	
863.07	3467.2	
863.24	2785.2	
863.41	4410.6	
863.58	4575.8	
863.75	3048.7	
863.91	3420.8	
864.08	5507	
864.25	5190.2	
864.42	3625.6	
864.59	4130.8	
864.76	5834.7	
864.93	4538.3	
865.09	2918.4	
865.26	3164.8	
865.43	5526.1	
865.6	5812.1	
865.77	2637.1	
865.94	2932	
866.1	5459.9	
866.27	5186.1	
866.44	4334.2	
866.61	2793.4	
866.78	4823	
866.95	5230.5	
867.11	2901.3	
867.28	2621.4	
867.45	5345.9	
867.62	4607.9	
867.79	3300.6	
867.96	2876.7	
868.12	4477.5	
868.29	5285.1	
868.46	2969.6	
868.63	3862.5	
868.8	5392.3	
868.97	5194.3	
869.13	3095.2	
869.3	3074	
869.47	5125.4	
869.64	5400.5	
869.81	2992.1	
869.97	2971.6	
870.14	5063.9	
870.31	5588.9	
870.48	2903.3	
870.65	3670	
870.81	4805.9	
870.98	4827.1	
871.15	3390.1	
871.32	3066.5	
871.48	5210.7	
871.65	5665.4	
871.82	2965.5	
871.99	3193.5	
872.16	5993.7	
872.32	5498.1	
872.49	3037.1	
872.66	3018	
872.83	5281.7	
872.99	4675.5	
873.16	3429	
873.33	2968.2	
873.5	5003.9	
873.67	5012.7	
873.83	3109.5	
874	3953.3	
874.17	5068.7	
874.34	5831.2	
874.5	3790.1	
874.67	3632.4	
874.84	5559.6	
875.01	4435.2	
875.17	4132.8	
875.34	2940.2	
875.51	4955.4	
875.68	5956.9	
875.84	3564.1	
876.01	4214.7	
876.18	5280.3	
876.34	5186.8	
876.51	2925.9	
876.68	2923.1	
876.85	4807.9	
877.01	5496.7	
877.18	4113.7	
877.35	2975	
877.52	5037.3	
877.68	4474.1	
877.85	2929.3	
878.02	2905.4	
878.18	4823.6	
878.35	4709	
878.52	2437.1	
878.69	3324.5	
878.85	5335.6	
879.02	5205.9	
879.19	4190.1	
879.35	3205.8	
879.52	5253	
879.69	5397.1	
879.86	2610.5	
880.02	3248.8	
880.19	4891.2	
880.36	5829.2	
880.52	3364.8	
880.69	3518.4	
880.86	5321.3	
881.02	5339.1	
881.19	3246.7	
881.36	3197.6	
881.52	5229.1	
881.69	4646.2	
881.86	3162.7	
882.02	3112.2	
882.19	5464	
882.36	6281.1	
882.52	3086.3	
882.69	4080.9	
882.86	5070.8	
883.02	5016.2	
883.19	3564.8	
883.36	3367.5	
883.52	5282.4	
883.69	5984.2	
883.86	3026.2	
884.02	2744.3	
884.19	5309.7	
884.36	4947.2	
884.52	3358	
884.69	3154.6	
884.86	4698.7	
885.02	5715.2	
885.19	3301.3	
885.36	3375.1	
885.52	4934.2	
885.69	5042.8	
885.86	4215.4	
886.02	3736.9	
886.19	5335.6	
886.35	4820.2	
886.52	3261.7	
886.69	4068.6	
886.85	4523.3	
887.02	5528.8	
887.19	5528.8	
887.35	5528.8	
887.52	5528.8	
887.68	5528.8	
887.85	5528.8	
888.02	5528.8	
888.18	5528.8	
888.35	5528.8	
888.51	5528.8	
888.68	5528.8	
888.85	5528.8	
889.01	5528.8	
889.18	5528.8	
889.35	5528.8	
889.51	5528.8	
889.68	5528.8	
889.84	5528.8	
890.01	5528.8	
890.17	5528.8	
890.34	5528.8	
890.51	5528.8	
890.67	5528.8	
890.84	5528.8	
891	5528.8	
891.17	5528.8	
891.34	5528.8	
891.5	5528.8	
891.67	5528.8	
891.83	5528.8	
892	5528.8	
892.16	5528.8	
892.33	5528.8	
892.5	5528.8	
892.66	5528.8	
892.83	5528.8	
892.99	5528.8	
893.16	5528.8	
893.32	5528.8	
893.49	5528.8	
893.65	5528.8	
893.82	5528.8	
893.99	5528.8	
894.15	5528.8	
894.32	5528.8	
894.48	5528.8	
894.65	5528.8	
894.81	5528.8	
894.98	5528.8	
895.14	5528.8	
895.31	5528.8	
895.47	5528.8	
895.64	5528.8	
895.81	5528.8	
895.97	5528.8	
896.14	5528.8	
896.3	5528.8	
896.47	5528.8	
896.63	5528.8	
896.8	5528.8	
896.96	5528.8	
897.13	5528.8	
897.29	5528.8	
897.46	5528.8	
897.62	5528.8	
897.79	5528.8	
897.95	5528.8	
898.12	5528.8	
898.28	5528.8	
898.45	5528.8	
898.61	5528.8	
898.78	5528.8	
898.94	5528.8	
899.11	5528.8	
899.27	5528.8	
899.44	5528.8	
899.6	5528.8	
899.77	5528.8	
899.93	5528.8	
900.1	5528.8	
900.26	5528.8	
900.43	5528.8	
900.59	5528.8	
900.76	5528.8	
900.92	5528.8	
901.09	5528.8	
901.25	5528.8	
901.42	5528.8	
901.58	5528.8	
901.75	5528.8	
901.91	5528.8	
902.07	5528.8	
902.24	5528.8	
902.4	5528.8	
902.57	5528.8	
902.73	5528.8	
902.9	5528.8	
903.06	5528.8	
903.23	5528.8	
903.39	5528.8	
903.56	5528.8	
903.72	5528.8	
903.88	5528.8	
904.05	5528.8	
904.21	5528.8	
904.38	5528.8	
904.54	5528.8	
904.71	5528.8	
904.87	5528.8	
905.03	5528.8	
905.2	5528.8	
905.36	5528.8	
905.53	5528.8	
905.69	5528.8	
905.86	5528.8	
906.02	5528.8	
906.18	5528.8	
906.35	5528.8	
906.51	5528.8	
906.68	5528.8	
906.84	5528.8	
907.01	5528.8	
907.17	5528.8	
907.33	5528.8	
907.5	5528.8	
907.66	5528.8	
907.83	5528.8	
907.99	5528.8	
908.15	5528.8	
908.32	5528.8	
908.48	5528.8	
908.65	5528.8	
908.81	5528.8	
908.97	5528.8	
909.14	5528.8	
909.3	5528.8	
909.47	5528.8	
909.63	5528.8	
909.79	5528.8	
909.96	5528.8	
910.12	5528.8	
910.28	5528.8	
910.45	5528.8	
910.61	5528.8	
910.78	5528.8	
910.94	5528.8	
911.1	5528.8	
911.27	5528.8	
911.43	5528.8	
911.59	5528.8	
911.76	5528.8	
911.92	5528.8	
912.08	5528.8	
912.25	5528.8	
912.41	5528.8	
912.57	5528.8	
912.74	5528.8	
912.9	5528.8	
913.07	5528.8	
913.23	5528.8	
913.39	5528.8	
913.56	5528.8	
913.72	5528.8	
913.88	5528.8	
914.05	5528.8	
914.21	5528.8	
914.37	5528.8	
914.54	5528.8	
914.7	5528.8	
914.86	5528.8	
915.03	5528.8	
915.19	5528.8	
