Wavelength	Intensities	
nm	a.u.	
179.22	1730.4	
179.44	1730.2	
179.65	1730.5	
179.86	1729.9	
180.08	1740.8	
180.29	4105.5	
180.51	3127.2	
180.72	5079	
180.94	5754.1	
181.15	2765.4	
181.37	2803.7	
181.58	4925.4	
181.79	5142.4	
182.01	2900.6	
182.22	3060.3	
182.44	5186.1	
182.65	4431.1	
182.87	3874.8	
183.08	3414	
183.29	5408.7	
183.51	4491.9	
183.72	3089.7	
183.94	4371	
184.15	4891.9	
184.37	4816.8	
184.58	2784.6	
184.79	3575.1	
185.01	4525.3	
185.22	5134.9	
185.44	3766.9	
185.65	3325.2	
185.86	4812	
186.08	4406.5	
186.29	2693.8	
186.51	2864.4	
186.72	4588.8	
186.94	5227.8	
187.15	3325.2	
187.36	3399.6	
187.58	6677.1	
187.79	4930.8	
188.01	3514.3	
188.22	5264	
188.43	5776.6	
188.65	5132.9	
188.86	2934.7	
189.08	3392.8	
189.29	4668.7	
189.5	4703.5	
189.72	3153.2	
189.93	3213.9	
190.15	5259.9	
190.36	6099.5	
190.57	3396.2	
190.79	3308.2	
191	5327.4	
191.22	5270.1	
191.43	3406.5	
191.64	2970.2	
191.86	5527.5	
192.07	5262.6	
192.29	3022.8	
192.5	3094.5	
192.71	5335	
192.93	4654.4	
193.14	3117	
193.35	3176.4	
193.57	4631.1	
193.78	5253	
194	2568.2	
194.21	3063.1	
194.42	4522.6	
194.64	4887.1	
194.85	3365.5	
195.07	3926	
195.28	4865.3	
195.49	4273.4	
195.71	4095.9	
195.92	2966.8	
196.13	5043.5	
196.35	5086.5	
196.56	4330.8	
196.78	3357.3	
196.99	6124.1	
197.2	5739.8	
197.42	3814.7	
197.63	3399.6	
197.84	4388.1	
198.06	4989.5	
198.27	3176.4	
198.48	4074.8	
198.7	4668	
198.91	4825.7	
199.13	3366.9	
199.34	3405.8	
199.55	5251.7	
199.77	4188.8	
199.98	3019.4	
200.19	3467.9	
200.41	4723.3	
200.62	4513.7	
200.83	3515	
201.05	3799.7	
201.26	4823.6	
201.47	4595	
201.69	3024.8	
201.9	2921.1	
202.11	4808.6	
202.33	5597.1	
202.54	3241.9	
202.76	3557.3	
202.97	4894.6	
203.18	4962.9	
203.4	3491.1	
203.61	3541.6	
203.82	4913.1	
204.04	4603.2	
204.25	3459.7	
204.46	3322.5	
204.68	4845.5	
204.89	5068	
205.1	3269.9	
205.32	2930.6	
205.53	5134.9	
205.74	5240.1	
205.96	2548.4	
206.17	3447.4	
206.38	5113.8	
206.6	5272.8	
206.81	3902.7	
207.02	3207.8	
207.24	5069.4	
207.45	5350	
207.66	3284.3	
207.88	2888.3	
208.09	4962.2	
208.3	4851.6	
208.52	2974.3	
208.73	3319.1	
208.94	4844.8	
209.15	5407.3	
209.37	3284.9	
209.58	3664.5	
209.79	5216.9	
210.01	4689.8	
210.22	2654.9	
210.43	2753.8	
210.65	4831.8	
210.86	5128.1	
211.07	3265.8	
211.29	3016.7	
211.5	5086.5	
211.71	4783.4	
211.93	3047.4	
212.14	3007.8	
212.35	4805.9	
212.56	4902.2	
212.78	3421.5	
212.99	2897.2	
213.2	5570.5	
213.42	4734.2	
213.63	3127.2	
213.84	3245.3	
214.06	4401.8	
214.27	4472.8	
214.48	3248.1	
214.69	3392.8	
214.91	5415.5	
215.12	5397.8	
215.33	3475.4	
215.55	3705.5	
215.76	5803.9	
215.97	5100.1	
216.18	3312.2	
216.4	3289.7	
216.61	4569	
216.82	5196.4	
217.04	3050.1	
217.25	3147.7	
217.46	5364.3	
217.67	5192.3	
217.89	2766.1	
218.1	2831	
218.31	4911	
218.53	4969.7	
218.74	3229.6	
218.95	3082.9	
219.16	4839.4	
219.38	5532.2	
219.59	3046.7	
219.8	3613.3	
220.01	5970.5	
220.23	4868	
220.44	3961.5	
220.65	2988	
220.87	4909	
221.08	5347.9	
221.29	2839.2	
221.5	3663.8	
221.72	6353.5	
221.93	4638	
222.14	3420.8	
222.35	3991.5	
222.57	4820.9	
222.78	5147.9	
222.99	3203	
223.2	3505.4	
223.42	5027.1	
223.63	5178.6	
223.84	2572.9	
224.05	2586.6	
224.27	5939.1	
224.48	5470.1	
224.69	4033.8	
224.9	3416.7	
225.12	4986.1	
225.33	4804.5	
225.54	2756.6	
225.75	3088.3	
225.97	4504.2	
226.18	4816.8	
226.39	3242.6	
226.6	3084.2	
226.82	4676.9	
227.03	4494.6	
227.24	3432.4	
227.45	2899.2	
227.67	5143.8	
227.88	5525.4	
228.09	3814.7	
228.3	3778.5	
228.52	5146.5	
228.73	4833.2	
228.94	3178.4	
229.15	2878.1	
229.36	4782.7	
229.58	4758.8	
229.79	3239.9	
230	3635.8	
230.21	5666.7	
230.43	4886.5	
230.64	3390.1	
230.85	3495.2	
231.06	5203.2	
231.28	5240.8	
231.49	2853.5	
231.7	3338.9	
231.91	5134.3	
232.12	4830.5	
232.34	2981.2	
232.55	3266.5	
232.76	5345.9	
232.97	4958.1	
233.18	3037.1	
233.4	3381.2	
233.61	4997.7	
233.82	4660.5	
234.03	3150.5	
234.25	3149.1	
234.46	6442.2	
234.67	4854.4	
234.88	3454.9	
235.09	3099.9	
235.31	5020.3	
235.52	4744.5	
235.73	3347.7	
235.94	2925.9	
236.15	4627.7	
236.37	5736.4	
236.58	3000.3	
236.79	3278.8	
237	5079	
237.21	4375.8	
237.43	3502	
237.64	2780.5	
237.85	8047.2	
238.06	4497.3	
238.27	3548.4	
238.48	2957.3	
238.7	5096	
238.91	4682.3	
239.12	3252.9	
239.33	3347.7	
239.54	4553.3	
239.76	4711.7	
239.97	3245.3	
240.18	3250.1	
240.39	5726.1	
240.6	4952.7	
240.82	3410.6	
241.03	2861	
241.24	4848.9	
241.45	5494.7	
241.66	2957.3	
241.87	3550.5	
242.09	5436.7	
242.3	5630.5	
242.51	3504.1	
242.72	3253.5	
242.93	5227.1	
243.14	4800.4	
243.36	3768.3	
243.57	4016.1	
243.78	5545.2	
243.99	5111.7	
244.2	3227.6	
244.41	2963.4	
244.63	4479.6	
244.84	5048.9	
245.05	3489.1	
245.26	3280.2	
245.47	5106.3	
245.68	5236.7	
245.9	4230.4	
246.11	3424.2	
246.32	4753.3	
246.53	5005.9	
246.74	5135.6	
246.95	2831	
247.16	4508.3	
247.38	4884.4	
247.59	2813.2	
247.8	3312.2	
248.01	4552	
248.22	4797.7	
248.43	3007.8	
248.64	3203.7	
248.86	4392.2	
249.07	4647.5	
249.28	2966.1	
249.49	3377.8	
249.7	5218.2	
249.91	5362.9	
250.12	2803.7	
250.34	2843.9	
250.55	4980.7	
250.76	4851	
250.97	3332.7	
251.18	3412.6	
251.39	5290.6	
251.6	4920.6	
251.81	3454.9	
252.03	3418.1	
252.24	4633.9	
252.45	5158.2	
252.66	2878.1	
252.87	3584.6	
253.08	4870.8	
253.29	6142.5	
253.5	2859.6	
253.72	3964.9	
253.93	4694.6	
254.14	5627.8	
254.35	3127.9	
254.56	3196.2	
254.77	4981.3	
254.98	4542.4	
255.19	3112.2	
255.41	3898	
255.62	4957.4	
255.83	5280.3	
256.04	3516.4	
256.25	3409.9	
256.46	5808.7	
256.67	4643.4	
256.88	3340.9	
257.09	3713	
257.31	4543.8	
257.52	4620.9	
257.73	4128	
257.94	3149.1	
258.15	4787.5	
258.36	4845.5	
258.57	3883.6	
258.78	2555.9	
258.99	5215.5	
259.2	4688.5	
259.41	3169.6	
259.63	3261.7	
259.84	5502.2	
260.05	5741.1	
260.26	4040.6	
260.47	3064.4	
260.68	5343.8	
260.89	4719.2	
261.1	3732.1	
261.31	2978.4	
261.52	5309.7	
261.73	5595.7	
261.95	4018.1	
262.16	3524.6	
262.37	5358.9	
262.58	5436	
262.79	3977.2	
263	3156.6	
263.21	4911.7	
263.42	4715.8	
263.63	3416.7	
263.84	3165.5	
264.05	5258.5	
264.26	5516.5	
264.47	3880.2	
264.69	3487	
264.9	5431.2	
265.11	5015.5	
265.32	3034.4	
265.53	3045.3	
265.74	4897.4	
265.95	4389.5	
266.16	3352.5	
266.37	3629	
266.58	4948.6	
266.79	4716.5	
267	3142.9	
267.21	2925.9	
267.42	4478.2	
267.63	4881.7	
267.84	3244	
268.06	2828.9	
268.27	5225.7	
268.48	5401.2	
268.69	3254.9	
268.9	3708.9	
269.11	5414.8	
269.32	4388.8	
269.53	3291.8	
269.74	3023.5	
269.95	5074.9	
270.16	4280.3	
270.37	3296.5	
270.58	3691.8	
270.79	4689.2	
271	5195.7	
271.21	3448.8	
271.42	3355.3	
271.63	5010	
271.84	4472.1	
272.05	2704.7	
272.26	2992.8	
272.47	4857.1	
272.68	5031.2	
272.89	3162.7	
273.11	3589.4	
273.32	4672.1	
273.53	5560.2	
273.74	3477.5	
273.95	3428.3	
274.16	5313.8	
274.37	4823	
274.58	3652.9	
274.79	2934.1	
275	4962.2	
275.21	5354.1	
275.42	4224.3	
275.63	3680.9	
275.84	5050.3	
276.05	6167.8	
276.26	3418.1	
276.47	3235.1	
276.68	4768.4	
276.89	5608.7	
277.1	3688.4	
277.31	2878.8	
277.52	5042.8	
277.73	5336.3	
277.94	2835.1	
278.15	3210.5	
278.36	5017.5	
278.57	4617.5	
278.78	3198.2	
278.99	3536.2	
279.2	4633.2	
279.41	4550.6	
279.62	4066.6	
279.83	2973.7	
280.04	5768.4	
280.25	4470.7	
280.46	4039.3	
280.67	3289	
280.88	4515.1	
281.09	5348.6	
281.3	3497.2	
281.51	4246.1	
281.72	4612	
281.93	5292.6	
282.14	3152.5	
282.35	3366.2	
282.56	5234.6	
282.77	5236	
282.98	3162.1	
283.19	3798.3	
283.4	6223.1	
283.61	4747.9	
283.82	2964.1	
284.03	3984.7	
284.24	4954.7	
284.45	5341.8	
284.66	4064.5	
284.87	3852.9	
285.08	5238	
285.29	5431.2	
285.5	2871.3	
285.71	3269.2	
285.92	5292	
286.12	5838.1	
286.33	4007.9	
286.54	3239.2	
286.75	5157.5	
286.96	4777.9	
287.17	3008.5	
287.38	3820.8	
287.59	4595.6	
287.8	4552	
288.01	3208.5	
288.22	3642	
288.43	5141.1	
288.64	4401.1	
288.85	3768.9	
289.06	3581.2	
289.27	5147.2	
289.48	5536.3	
289.69	4044.1	
289.9	3695.9	
290.11	5392.3	
290.32	4661.9	
290.53	3813.3	
290.74	3543	
290.94	5240.8	
291.15	5277.6	
291.36	3078.8	
291.57	3605.1	
291.78	4717.2	
291.99	4347.8	
292.2	3011.9	
292.41	3530	
292.62	5321.3	
292.83	5079.6	
293.04	4332.1	
293.25	2998.2	
293.46	4720.6	
293.67	5220.3	
293.88	3061	
294.09	3011.9	
294.29	4549.2	
294.5	4957.4	
294.71	3307.5	
294.92	3123.8	
295.13	4676.2	
295.34	5709.7	
295.55	2819.4	
295.76	2815.3	
295.97	5153.4	
296.18	5668.1	
296.39	2965.5	
296.6	3086.3	
296.81	4960.2	
297.01	5193.6	
297.22	3218.7	
297.43	3140.9	
297.64	4624.3	
297.85	4550.6	
298.06	2640.5	
298.27	2775	
298.48	4863.2	
298.69	4588.1	
298.9	3318.4	
299.11	3059	
299.31	4500.1	
299.52	4520.5	
299.73	3556	
299.94	3432.4	
300.15	4851.6	
300.36	4596.3	
300.57	3480.2	
300.78	3451.5	
300.99	4790.9	
301.2	4889.2	
301.4	3119.1	
301.61	3363.4	
301.82	5099.4	
302.03	5181.4	
302.24	3734.8	
302.45	2941.6	
302.66	5100.8	
302.87	5373.9	
303.08	3083.6	
303.29	4039.3	
303.49	4702.1	
303.7	4833.9	
303.91	2806.4	
304.12	3960.8	
304.33	4476.2	
304.54	4998.4	
304.75	3096.5	
304.96	3007.1	
305.16	5127.4	
305.37	5677.7	
305.58	2755.9	
305.79	2869.9	
306	5062.6	
306.21	4433.2	
306.42	3033.7	
306.63	4568.3	
306.83	4770.4	
307.04	5276.9	
307.25	3446	
307.46	3336.1	
307.67	4253.6	
307.88	5130.8	
308.09	3080.8	
308.29	3094.5	
308.5	4904.2	
308.71	5278.3	
308.92	3290.4	
309.13	3004.4	
309.34	4757.4	
309.55	4815.5	
309.75	3809.2	
309.96	3486.3	
310.17	5130.2	
310.38	4641.4	
310.59	3619.4	
310.8	2947.7	
311.01	5274.9	
311.21	4768.4	
311.42	2982.5	
311.63	3028.9	
311.84	4660.5	
312.05	4933.6	
312.26	3361.4	
312.46	3753.2	
312.67	4715.8	
312.88	4505.5	
313.09	2997.5	
313.3	2946.3	
313.51	5457.2	
313.71	5760.3	
313.92	2977.1	
314.13	3153.9	
314.34	5033.2	
314.55	4754.7	
314.76	3747.1	
314.96	3349.1	
315.17	4954	
315.38	5152	
315.59	3070.6	
315.8	2878.1	
316.01	5458.5	
316.21	5616.9	
316.42	2898.6	
316.63	3247.4	
316.84	4760.8	
317.05	5316.5	
317.26	3543	
317.46	3162.1	
317.67	4818.9	
317.88	5160.9	
318.09	3710.9	
318.3	2854.9	
318.5	4672.1	
318.71	5104.9	
318.92	4689.8	
319.13	3519.1	
319.34	5176.6	
319.54	5337	
319.75	2849.4	
319.96	2708.8	
320.17	5102.2	
320.38	5274.2	
320.58	2749.1	
320.79	3293.8	
321	5279.7	
321.21	5414.1	
321.42	3330.7	
321.62	2794.8	
321.83	4577.9	
322.04	4859.1	
322.25	3164.8	
322.46	3037.1	
322.66	4887.8	
322.87	5088.5	
323.08	3599.6	
323.29	2960	
323.5	5701.5	
323.7	4459.1	
323.91	4018.8	
324.12	3589.4	
324.33	4912.4	
324.53	5100.8	
324.74	3530.7	
324.95	3629	
325.16	4413.4	
325.37	4719.9	
325.57	3031.7	
325.78	3099.9	
325.99	4968.4	
326.2	4444.8	
326.4	4141	
326.61	2856.2	
326.82	4795	
327.03	4909	
327.24	4111.6	
327.44	3882.3	
327.65	5066	
327.86	4177.2	
328.07	3549.1	
328.27	2913.6	
328.48	5433.3	
328.69	4520.5	
328.9	4207.2	
329.1	3186	
329.31	4778.6	
329.52	5459.2	
329.73	3049.4	
329.93	3331.4	
330.14	4913.8	
330.35	5008.6	
330.56	4663.2	
330.76	3643.3	
330.97	4682.3	
331.18	4932.9	
331.39	3319.8	
331.59	2757.9	
331.8	5295.4	
332.01	5384.1	
332.22	3153.9	
332.42	3485.6	
332.63	4957.4	
332.84	4604.5	
333.05	3364.1	
333.25	3075.4	
333.46	4637.3	
333.67	4832.5	
333.88	3164.1	
334.08	3431.7	
334.29	6211.5	
334.5	5319.9	
334.7	2957.3	
334.91	4190.1	
335.12	4456.4	
335.33	5073.5	
335.53	3317	
335.74	4781.3	
335.95	4727.4	
336.16	4513	
336.36	3316.3	
336.57	3760.8	
336.78	4453	
336.98	5309	
337.19	4062.5	
337.4	3233.1	
337.61	5705	
337.81	4511.7	
338.02	3087	
338.23	3882.3	
338.43	5408	
338.64	4545.8	
338.85	3081.5	
339.05	3923.9	
339.26	5487.9	
339.47	4458.4	
339.68	3001.6	
339.88	4349.2	
340.09	5084.4	
340.3	5193	
340.5	3479.5	
340.71	2740.9	
340.92	4476.2	
341.13	5380.7	
341.33	2936.8	
341.54	3487.7	
341.75	5083.7	
341.95	4703.5	
342.16	3382.6	
342.37	3596.2	
342.57	4526	
342.78	4809.3	
342.99	3665.9	
343.19	2772.3	
343.4	5182.7	
343.61	5037.3	
343.81	3254.2	
344.02	2964.1	
344.23	5156.1	
344.43	5478.3	
344.64	3730	
344.85	3583.3	
345.06	5128.1	
345.26	5347.9	
345.47	3493.8	
345.68	3987.4	
345.88	4349.9	
346.09	5224.4	
346.3	3511.6	
346.5	2732	
346.71	4841.4	
346.92	4620.2	
347.12	2853.5	
347.33	3458.3	
347.54	5265.3	
347.74	5558.2	
347.95	3400.3	
348.16	2620.7	
348.36	4719.2	
348.57	4554	
348.78	3451.5	
348.98	3585.3	
349.19	4791.6	
349.39	4386.1	
349.6	2857.6	
349.81	3116.3	
350.01	5115.8	
350.22	4621.6	
350.43	3438.5	
350.63	3955.3	
350.84	4888.5	
351.05	4665.3	
351.25	3106.8	
351.46	2869.9	
351.67	5278.3	
351.87	4654.4	
352.08	3230.3	
352.29	3679.5	
352.49	5246.9	
352.7	5304.2	
352.9	3011.9	
353.11	3681.6	
353.32	5796.4	
353.52	4732.2	
353.73	2979.1	
353.94	3727.3	
354.14	5103.5	
354.35	4959.5	
354.55	3115.6	
354.76	3375.1	
354.97	5165	
355.17	4929.5	
355.38	2958.6	
355.59	3910.9	
355.79	4640.7	
356	4926	
356.2	3323.9	
356.41	2981.2	
356.62	4429.8	
356.82	4885.1	
357.03	3616.7	
357.24	3346.4	
357.44	4683.7	
357.65	4790.2	
357.85	4347.2	
358.06	3447.4	
358.27	4478.9	
358.47	4640.7	
358.68	3029.6	
358.88	3687	
359.09	5149.3	
359.3	5402.5	
359.5	4180.6	
359.71	3762.8	
359.91	5752.7	
360.12	5186.1	
360.33	3663.8	
360.53	4027	
360.74	4721.9	
360.94	4851.6	
361.15	3767.6	
361.36	3275.4	
361.56	5345.9	
361.77	4874.2	
361.97	4231.8	
362.18	3418.1	
362.38	5414.1	
362.59	4668.7	
362.8	3192.1	
363	3050.8	
363.21	4476.9	
363.41	5023.7	
363.62	3628.3	
363.83	4369.7	
364.03	5193	
364.24	5806	
364.44	4513	
364.65	4506.9	
364.85	4930.1	
365.06	4680.3	
365.27	3356.6	
365.47	3439.9	
365.68	5773.9	
365.88	4920.6	
366.09	3663.8	
366.29	3463.8	
366.5	5167	
366.71	5478.3	
366.91	4482.3	
367.12	3904.8	
367.32	5976	
367.53	5405.3	
367.73	3854.3	
367.94	4595.6	
368.14	5390.3	
368.35	5984.8	
368.56	3752.6	
368.76	3541.6	
368.97	5426.4	
369.17	6692.1	
369.38	3386	
369.58	3639.2	
369.79	4618.9	
369.99	5790.3	
370.2	4454.3	
370.4	3697.3	
370.61	5228.5	
370.82	6237.4	
371.02	3615.3	
371.23	3110.9	
371.43	4577.2	
371.64	5705	
371.84	3688.4	
372.05	4641.4	
372.25	6746.7	
372.46	5449.6	
372.66	3724.6	
372.87	3659.7	
373.07	5526.1	
373.28	6823.8	
373.48	4530.8	
373.69	4289.8	
373.9	5162.9	
374.1	5158.2	
374.31	4462.5	
374.51	4162.8	
374.72	5857.9	
374.92	4965.6	
375.13	4668	
375.33	3966.2	
375.54	5509.7	
375.74	5104.2	
375.95	4182	
376.15	5068.7	
376.36	5675.6	
376.56	5432.6	
376.77	4229.7	
376.97	4519.2	
377.18	6513.9	
377.38	5735.7	
377.59	4808.6	
377.79	3850.9	
378	5565.7	
378.2	5879	
378.41	3885.7	
378.61	3876.1	
378.82	6012.2	
379.02	5322	
379.23	4032.5	
379.43	4941.7	
379.64	6072.2	
379.84	5702.9	
380.05	3957.4	
380.25	3785.3	
380.46	5836.7	
380.66	5438	
380.87	4951.3	
381.07	5169.1	
381.28	6251.1	
381.48	5787.6	
381.69	3892.5	
381.89	3952.6	
382.1	4893.3	
382.3	5810.8	
382.51	4764.9	
382.71	5485.8	
382.91	5700.9	
383.12	6144.6	
383.32	4192.9	
383.53	4322.6	
383.73	5624.4	
383.94	5468.8	
384.14	4325.3	
384.35	3505.4	
384.55	5272.8	
384.76	5711.1	
384.96	4135.5	
385.17	4286.4	
385.37	5685.2	
385.58	5050.3	
385.78	4298	
385.98	3378.5	
386.19	5223.7	
386.39	5595.7	
386.6	3859.1	
386.8	4071.4	
387.01	5717.9	
387.21	5773.2	
387.42	4427	
387.62	4939	
387.83	5187.5	
388.03	5610.8	
388.23	4206.5	
388.44	4842.8	
388.64	4934.9	
388.85	5109.7	
389.05	4516.5	
389.26	5041.4	
389.46	6674.3	
389.67	6203.3	
389.87	4554.7	
390.07	4534.9	
390.28	5504.3	
390.48	5155.4	
390.69	3966.9	
390.89	4133.5	
391.1	5342.5	
391.3	6055.8	
391.5	5090.6	
391.71	5552	
391.91	5929.6	
392.12	6653.9	
392.32	5181.4	
392.53	4518.5	
392.73	5436	
392.93	5506.3	
393.14	4240.7	
393.34	5126.1	
393.55	5827.2	
393.75	5458.5	
393.95	4179.2	
394.16	4091.2	
394.36	5328.8	
394.57	5822.4	
394.77	3771.7	
394.98	4126	
395.18	5281	
395.38	5496.7	
395.59	4961.5	
395.79	4129.4	
396	5543.2	
396.2	5872.2	
396.4	4838	
396.61	4801.1	
396.81	6074.3	
397.02	5488.6	
397.22	5036.6	
397.42	5083.7	
397.63	6070.2	
397.83	5431.9	
398.04	4119.8	
398.24	4603.8	
398.44	5881.1	
398.65	5079.6	
398.85	4055.7	
399.05	4101.4	
399.26	5499.5	
399.46	6811.5	
399.67	4527.4	
399.87	4158.7	
400.07	5831.9	
400.28	6077	
400.48	4377.2	
400.69	5208	
400.89	6308.4	
401.09	6723.5	
401.3	4339.6	
401.5	5175.9	
401.7	6819.1	
401.91	7031.4	
402.11	4633.9	
402.32	4792.9	
402.52	6338.5	
402.72	6188.3	
402.93	4848.9	
403.13	3760.8	
403.33	6705	
403.54	5612.8	
403.74	4432.5	
403.94	5068.7	
404.15	5678.3	
404.35	6604.7	
404.56	4305.5	
404.76	5821	
404.96	6150.1	
405.17	5967.8	
405.37	5104.9	
405.57	4889.2	
405.78	6262.7	
405.98	5760.3	
406.18	4552.6	
406.39	5117.2	
406.59	6177.4	
406.79	5739.8	
407	4144.4	
407.2	4189.5	
407.4	6182.1	
407.61	6314.6	
407.81	4336.9	
408.01	6301.6	
408.22	5399.1	
408.42	7088	
408.62	5478.3	
408.83	5044.1	
409.03	6143.9	
409.23	6022.4	
409.44	5177.9	
409.64	5335.6	
409.84	6984.3	
410.05	6888.7	
410.25	5348.6	
410.45	5124	
410.66	6664.8	
410.86	8521.6	
411.06	5632.6	
411.27	5393.7	
411.47	8453.3	
411.67	6763.1	
411.88	5664.7	
412.08	5919.3	
412.28	7286	
412.49	7723.6	
412.69	5524.7	
412.89	5638.7	
413.09	7698.3	
413.3	7547.4	
413.5	5653.8	
413.7	5357.5	
413.91	6945.3	
414.11	7623.2	
414.31	5572.5	
414.52	5898.1	
414.72	7370	
414.92	7297.6	
415.12	5611.4	
415.33	5948	
415.53	7648.5	
415.73	7699.7	
415.94	6220.4	
416.14	5771.2	
416.34	6920.8	
416.55	6618.4	
416.75	6646.3	
416.95	6367.1	
417.15	7739.3	
417.36	8116.8	
417.56	7006.1	
417.76	6250.4	
417.97	7972.1	
418.17	7677.8	
418.37	5919.3	
418.57	5991.7	
418.78	7606.8	
418.98	7243.7	
419.18	6543.9	
419.38	6509.1	
419.59	7224.6	
419.79	6935.1	
419.99	5731.6	
420.2	6035.4	
420.4	7651.2	
420.6	7785.7	
420.8	5776	
421.01	5637.4	
421.21	7573.4	
421.41	7623.2	
421.61	6024.4	
421.82	5753.4	
422.02	7132.4	
422.22	7866.9	
422.42	6427.9	
422.63	6041.5	
422.83	7205.4	
423.03	8092.2	
423.23	6079.1	
423.44	5283.1	
423.64	7247.1	
423.84	6913.9	
424.04	5606	
424.25	5298.1	
424.45	7839.6	
424.65	7763.8	
424.85	5158.2	
425.06	5606.7	
425.26	7925.6	
425.46	6964.5	
425.66	5955.5	
425.87	5776	
426.07	7613.7	
426.27	7428.7	
426.47	5823.7	
426.67	5276.9	
426.88	7846.5	
427.08	7359	
427.28	6001.2	
427.48	5111.7	
427.69	6494.1	
427.89	7069.6	
428.09	5911.8	
428.29	5226.4	
428.5	7585	
428.7	7178.1	
428.9	5191.6	
429.1	5547.9	
429.3	7129	
429.51	7441	
429.71	5402.5	
429.91	6090.7	
430.11	7472.4	
430.31	7911.3	
430.52	5681.7	
430.72	6023.8	
430.92	7923.6	
431.12	7314	
431.32	5457.2	
431.53	5754.8	
431.73	6561.7	
431.93	7857.4	
432.13	5337	
432.33	5292	
432.54	6938.5	
432.74	7242.3	
432.94	5298.8	
433.14	6102.3	
433.34	7441.6	
433.55	7064.1	
433.75	6003.3	
433.95	7433.4	
434.15	7296.2	
434.35	6977.4	
434.56	5404.6	
434.76	5008	
434.96	7244.3	
435.16	7430.7	
435.36	5347.9	
435.56	6299.6	
435.77	7082.6	
435.97	7194.5	
436.17	6782.9	
436.37	6124.1	
436.57	7045	
436.78	6909.2	
436.98	6103.6	
437.18	6703	
437.38	7569.3	
437.58	7139.9	
437.78	6810.9	
437.99	5629.9	
438.19	7490.1	
438.39	8120.9	
438.59	5615.5	
438.79	5154.1	
438.99	7895.6	
439.2	6928.3	
439.4	5216.2	
439.6	5182.7	
439.8	7341.3	
440	8220.5	
440.2	6212.2	
440.4	6306.4	
440.61	7894.2	
440.81	8236.9	
441.01	5607.3	
441.21	6424.5	
441.41	8161.2	
441.61	7729	
441.81	6569.9	
442.02	7276.4	
442.22	8464.9	
442.42	7828.7	
442.62	5639.4	
442.82	5601.9	
443.02	8166.6	
443.22	7432.8	
443.43	6070.9	
443.63	5660.6	
443.83	7268.2	
444.03	7270.3	
444.23	6777.4	
444.43	6217	
444.63	7598.6	
444.83	8421.9	
445.04	5861.3	
445.24	6778.8	
445.44	7789.8	
445.64	7785	
445.84	6298.2	
446.04	6232.7	
446.24	7212.3	
446.44	7899.7	
446.65	5537	
446.85	5873.6	
447.05	7370	
447.25	7930.4	
447.45	5995.1	
447.65	5480.4	
447.85	7465.5	
448.05	7102.4	
448.25	6320.7	
448.46	6151.4	
448.66	7514	
448.86	7149.5	
449.06	5399.8	
449.26	6309.8	
449.46	7765.9	
449.66	6843.6	
449.86	6040.1	
450.06	5881.1	
450.26	7049.8	
450.47	7576.1	
450.67	6074.3	
450.87	6374.6	
451.07	7679.2	
451.27	7477.1	
451.47	5543.9	
451.67	6010.1	
451.87	7232.7	
452.07	8057.4	
452.27	5767.8	
452.47	5664	
452.67	7374.7	
452.88	7862.8	
453.08	5201.2	
453.28	6752.2	
453.48	8380.3	
453.68	7316	
453.88	5683.8	
454.08	5783.5	
454.28	7759.8	
454.48	7452.6	
454.68	6324.1	
454.88	6707.8	
455.08	7836.2	
455.28	7619.8	
455.48	5472.2	
455.68	6131.6	
455.89	8235.6	
456.09	7906.5	
456.29	5816.2	
456.49	5944.6	
456.69	8135.2	
456.89	7475.8	
457.09	6345.3	
457.29	6610.8	
457.49	7831.4	
457.69	7888.8	
457.89	6302.3	
458.09	5767.1	
458.29	7647.1	
458.49	8247.9	
458.69	6554.9	
458.89	6055.8	
459.09	8419.9	
459.29	8507.3	
459.49	6176.7	
459.69	6765.1	
459.9	7953.6	
460.1	7661.5	
460.3	6064	
460.5	5894.7	
460.7	7993.2	
460.9	7729	
461.1	5728.9	
461.3	6672.3	
461.5	8593.3	
461.7	8254.7	
461.9	6051.1	
462.1	6377.4	
462.3	7917.4	
462.5	8286.1	
462.7	5997.8	
462.9	6220.4	
463.1	9176.9	
463.3	8879.3	
463.5	6337.8	
463.7	7189.7	
463.9	8097.7	
464.1	8417.8	
464.3	6606.1	
464.5	6703.7	
464.7	8602.2	
464.9	8267.6	
465.1	7806.9	
465.3	6976.1	
465.5	8800.1	
465.7	8844.5	
465.9	7194.5	
466.1	6933.7	
466.3	8788.5	
466.5	8505.9	
466.7	7757	
466.9	6891.4	
467.1	8579.6	
467.3	9279.3	
467.5	7733.1	
467.7	6820.4	
467.9	9581.8	
468.1	10096	
468.3	7436.9	
468.5	7766.6	
468.7	8557.8	
468.9	8490.9	
469.1	7059.3	
469.3	7484.6	
469.5	10092	
469.7	8192.6	
469.9	7464.8	
470.1	6875	
470.3	8565.3	
470.5	8561.9	
470.7	7812.3	
470.9	6910.5	
471.1	8321.6	
471.3	8628.1	
471.5	6718	
471.69	8187.1	
471.89	8278.6	
472.09	7674.4	
472.29	7347.4	
472.49	7567.2	
472.69	8045.8	
472.89	8632.9	
473.09	6552.1	
473.29	6651.1	
473.49	8116.1	
473.69	8108.6	
473.89	7367.9	
474.09	6741.9	
474.29	9125.1	
474.49	8929.8	
474.69	7436.9	
474.89	6837.5	
475.09	8216.5	
475.29	8059.4	
475.49	6356.2	
475.69	6518	
475.88	9342.8	
476.08	8417.8	
476.28	6276.3	
476.48	6553.5	
476.68	8705.2	
476.88	8497.7	
477.08	6476.4	
477.28	6713.2	
477.48	8176.9	
477.68	8618.5	
477.88	6364.4	
478.08	6593.1	
478.28	8924.4	
478.48	8200.1	
478.67	6645.7	
478.87	6160.3	
479.07	8673.8	
479.27	8205.5	
479.47	6702.3	
479.67	6775.4	
479.87	8535.9	
480.07	8957.1	
480.27	6160.3	
480.47	7459.4	
480.67	8182.3	
480.87	8830.2	
481.06	6404.7	
481.26	7053.9	
481.46	8224.6	
481.66	8063.5	
481.86	6681.8	
482.06	7473.7	
482.26	7903.8	
482.46	8801.5	
482.66	6683.9	
482.86	6356.2	
483.05	8321.6	
483.25	7718.1	
483.45	8616.5	
483.65	6742.6	
483.85	7864.2	
484.05	8173.4	
484.25	6957.6	
484.45	7435.5	
484.65	8795.3	
484.84	8848.6	
485.04	6607.4	
485.24	6647.7	
485.44	9079.3	
485.64	7789.8	
485.84	6081.1	
486.04	7202	
486.24	8088.8	
486.44	8242.4	
486.63	6074.3	
486.83	6684.6	
487.03	7954.3	
487.23	8157.1	
487.43	6108.4	
487.63	7980.9	
487.83	8231.5	
488.02	8926.4	
488.22	6856.6	
488.42	7416.4	
488.62	8858.8	
488.82	8019.8	
489.02	6611.5	
489.22	6670.9	
489.41	8755.1	
489.61	8564.6	
489.81	6432	
490.01	6422.4	
490.21	8675.9	
490.41	9175.6	
490.61	6429.3	
490.8	6555.5	
491	8404.9	
491.2	7816.4	
491.4	6976.7	
491.6	6253.1	
491.8	8227.4	
491.99	8201.4	
492.19	6010.8	
492.39	6361	
492.59	8585.8	
492.79	8781	
492.99	7063.4	
493.18	6483.2	
493.38	8796.7	
493.58	9490.3	
493.78	6945.3	
493.98	6696.2	
494.18	8537.3	
494.37	8173.4	
494.57	7295.5	
494.77	7086	
494.97	8778.3	
495.17	9122.3	
495.37	6876.4	
495.56	7104.4	
495.76	9297.8	
495.96	8864.3	
496.16	7817.1	
496.36	6864.8	
496.55	9002.2	
496.75	8607.6	
496.95	7302.4	
497.15	7204.1	
497.35	9000.1	
497.54	8923	
497.74	7030	
497.94	8454	
498.14	9586.5	
498.34	9347.6	
498.53	6774	
498.73	7357.7	
498.93	8402.8	
499.13	8972.8	
499.33	7247.1	
499.52	7461.4	
499.72	9007.6	
499.92	9204.9	
500.12	6966.5	
500.32	7218.4	
500.51	9151	
500.71	9007	
500.91	7797.3	
501.11	7463.5	
501.31	9077.3	
501.5	9377	
501.7	8094.9	
501.9	7226.6	
502.1	8938.7	
502.29	9228.8	
502.49	7568.6	
502.69	7898.3	
502.89	9125.7	
503.09	9026.8	
503.28	6689.3	
503.48	6864.8	
503.68	8409.6	
503.88	8456.7	
504.07	7649.2	
504.27	7150.1	
504.47	8781	
504.67	8809	
504.86	7436.2	
505.06	7248.4	
505.26	8511.4	
505.46	9787.9	
505.65	7067.5	
505.85	7314.7	
506.05	8436.3	
506.25	8772.8	
506.44	6503.7	
506.64	7200	
506.84	8178.9	
507.04	8913.4	
507.23	6610.2	
507.43	7086.7	
507.63	9744.9	
507.83	8417.2	
508.02	7056.6	
508.22	6814.3	
508.42	9944.3	
508.62	8101.8	
508.81	7029.3	
509.01	7365.9	
509.21	8090.2	
509.4	8308.6	
509.6	7066.9	
509.8	6580.1	
510	8321.6	
510.19	9388.6	
510.39	6558.3	
510.59	6701.6	
510.79	8172.1	
510.98	9144.2	
511.18	6727.6	
511.38	6809.5	
511.57	8923	
511.77	8621.3	
511.97	7299	
512.17	6563.7	
512.36	8686.1	
512.56	8592.6	
512.76	6504.3	
512.95	6303.6	
513.15	8819.9	
513.35	7692.9	
513.55	7243.7	
513.74	6569.2	
513.94	8750.3	
514.14	8223.3	
514.33	7286	
514.53	7128.3	
514.73	8284	
514.92	8318.2	
515.12	6646.3	
515.32	6466.1	
515.51	8435.6	
515.71	8797.4	
515.91	8020.5	
516.11	6559.6	
516.3	9644.6	
516.5	8084.7	
516.7	7044.3	
516.89	7350.2	
517.09	8228.1	
517.29	8181.6	
517.48	7236.8	
517.68	6788.3	
517.88	7923.6	
518.07	8464.3	
518.27	7133.1	
518.47	6412.9	
518.66	8861.6	
518.86	7808.9	
519.06	6198.5	
519.25	6628.6	
519.45	8094.3	
519.65	9253.4	
519.84	7092.1	
520.04	7623.9	
520.24	9553.1	
520.43	8499.1	
520.63	6888	
520.83	6612.2	
521.02	7871.7	
521.22	8376.9	
521.42	6939.9	
521.61	7434.1	
521.81	8101.8	
522.01	8210.3	
522.2	6909.2	
522.4	6642.9	
522.6	8567.3	
522.79	7725.6	
522.99	6774.7	
523.18	6173.3	
523.38	8398	
523.58	8447.9	
523.77	7772	
523.97	6310.5	
524.17	9954.5	
524.36	9282.1	
524.56	7484.6	
524.76	7143.3	
524.95	8372.8	
525.15	8148.2	
525.34	6883.2	
525.54	6952.9	
525.74	8713.4	
525.93	7858.1	
526.13	7905.8	
526.33	6911.9	
526.52	9007.6	
526.72	8596.7	
526.91	7819.8	
527.11	7221.8	
527.31	8865.7	
527.5	9383.8	
527.7	7177.4	
527.89	6451.1	
528.09	8208.9	
528.29	8639	
528.48	7488.7	
528.68	7251.9	
528.87	8902.5	
529.07	8888.2	
529.27	7070.3	
529.46	6703.7	
529.66	8699.8	
529.85	9009	
530.05	6718	
530.25	7236.8	
530.44	9620.7	
530.64	8507.3	
530.83	6977.4	
531.03	7103.7	
531.23	8943.5	
531.42	8736	
531.62	7664.2	
531.81	7092.8	
532.01	9102.5	
532.21	9447.3	
532.4	6947.4	
532.6	7279.8	
532.79	9838.4	
532.99	9047.9	
533.18	7278.5	
533.38	8000.7	
533.58	8762.6	
533.77	9250.7	
533.97	7292.8	
534.16	7762.5	
534.36	9515.5	
534.55	8763.3	
534.75	8603.5	
534.95	7318.1	
535.14	9498.5	
535.34	8675.2	
535.53	7000	
535.73	8477.2	
535.92	9802.9	
536.12	8784.4	
536.31	7103	
536.51	8096.3	
536.71	9082.7	
536.9	8789.9	
537.1	7163.1	
537.29	7242.3	
537.49	9465.7	
537.68	8617.9	
537.88	7602.1	
538.07	6950.1	
538.27	8785.1	
538.46	9719	
538.66	6892.1	
538.86	7251.9	
539.05	8909.3	
539.25	9184.5	
539.44	7572	
539.64	7164.5	
539.83	8814.5	
540.03	9607	
540.22	7049.1	
540.42	7022.5	
540.61	8974.9	
540.81	8959.2	
541	7458.7	
541.2	8002.1	
541.39	8515.5	
541.59	8757.1	
541.78	7666.2	
541.98	7106.5	
542.18	8309.3	
542.37	8305.9	
542.57	7301.7	
542.76	7662.1	
542.96	8382.3	
543.15	8819.2	
543.35	7232.7	
543.54	6758.3	
543.74	9005.6	
543.93	8661.5	
544.13	7199.3	
544.32	8036.9	
544.52	8931.9	
544.71	8230.1	
544.91	6402.6	
545.1	7484.6	
545.3	8350.3	
545.49	8779.6	
545.69	6465.4	
545.88	6987	
546.08	9615.2	
546.27	9217.2	
546.47	7271	
546.66	6688	
546.86	9093.7	
547.05	9304.6	
547.24	6896.9	
547.44	6828.6	
547.63	8196.7	
547.83	9012.4	
548.02	7111.2	
548.22	7219.8	
548.41	7998	
548.61	9024.7	
548.8	6660.7	
549	6630	
549.19	8566	
549.39	8811	
549.58	6507.8	
549.78	6916	
549.97	8839.7	
550.17	8302.5	
550.36	7582.3	
550.55	8308.6	
550.75	8402.1	
550.94	9045.9	
551.14	6571.2	
551.33	6992.4	
551.53	7787.1	
551.72	8555	
551.92	7048.4	
552.11	6793.1	
552.31	8753.7	
552.5	8568.7	
552.69	8083.3	
552.89	6417	
553.08	8630.8	
553.28	8328.4	
553.47	6725.5	
553.67	7577.5	
553.86	9200.2	
554.06	7788.4	
554.25	6153.5	
554.44	6535.1	
554.64	9650	
554.83	9175.6	
555.03	6523.5	
555.22	6842.9	
555.42	8764.6	
555.61	8514.1	
555.8	6662.7	
556	6836.8	
556.19	7778.2	
556.39	8752.3	
556.58	6691.4	
556.78	6655.9	
556.97	8396.7	
557.16	8133.2	
557.36	7716.7	
557.55	6440.2	
557.75	7709.9	
557.94	9099.8	
558.13	6389	
558.33	6268.1	
558.52	8852	
558.72	7907.2	
558.91	6414.9	
559.1	6540.5	
559.3	7608.9	
559.49	7453.9	
559.69	5979.4	
559.88	6804	
560.07	8366.6	
560.27	8714.8	
560.46	6938.5	
560.66	7116	
560.85	8173.4	
561.04	7467.6	
561.24	6320.7	
561.43	6434	
561.63	7726.3	
561.82	7984.3	
562.01	7362.4	
562.21	6656.6	
562.4	8241	
562.59	9026.1	
562.79	6578.1	
562.98	6334.4	
563.18	8249.9	
563.37	9259.5	
563.56	7067.5	
563.76	6243.6	
563.95	7804.1	
564.14	7765.9	
564.34	6584.9	
564.53	6378.7	
564.73	8158.4	
564.92	8442.4	
565.11	6687.3	
565.31	6133	
565.5	8713.4	
565.69	7803.4	
565.89	6366.5	
566.08	6541.2	
566.27	8466.3	
566.47	8850.6	
566.66	7125.6	
566.85	6030.6	
567.05	8341.4	
567.24	7792.5	
567.44	6269.5	
567.63	7404.8	
567.82	8437.6	
568.02	8138.6	
568.21	6290.7	
568.4	6506.4	
568.6	8126.3	
568.79	8049.2	
568.98	6145.3	
569.18	6302.3	
569.37	8017.8	
569.56	9623.4	
569.76	6620.4	
569.95	7283.9	
570.14	8383	
570.34	8268.3	
570.53	6230.6	
570.72	6125.5	
570.91	8721.6	
571.11	7987.1	
571.3	6507.1	
571.49	7360.4	
571.69	8146.1	
571.88	7742	
572.07	6821.1	
572.27	6993.1	
572.46	7682.6	
572.65	8461.5	
572.85	6343.2	
573.04	6610.8	
573.23	8599.4	
573.43	8073.8	
573.62	6123.4	
573.81	6644.3	
574	8208.3	
574.2	7941.3	
574.39	6412.2	
574.58	6541.9	
574.78	8882	
574.97	8235.6	
575.16	6863.4	
575.36	6975.4	
575.55	8543.4	
575.74	8587.1	
575.93	6133	
576.13	7006.1	
576.32	8037.6	
576.51	8426	
576.71	6425.2	
576.9	7466.2	
577.09	8796	
577.28	8288.1	
577.48	6832.7	
577.67	6135	
577.86	8047.2	
578.05	8289.5	
578.25	6586.3	
578.44	6636.1	
578.63	8116.8	
578.83	9142.8	
579.02	6106.4	
579.21	7315.3	
579.4	8257.4	
579.6	8114.1	
579.79	6642.9	
579.98	8429.4	
580.17	8527.1	
580.37	8600.8	
580.56	6320	
580.75	6883.9	
580.94	8854.7	
581.14	8844.5	
581.33	7281.2	
581.52	6414.9	
581.71	8391.2	
581.91	9120.3	
582.1	6161	
582.29	6552.8	
582.48	8180.3	
582.68	8062.9	
582.87	7013.6	
583.06	6720.8	
583.25	8473.8	
583.45	7803.4	
583.64	7264.8	
583.83	7729	
584.02	8178.2	
584.21	8450.6	
584.41	7249.8	
584.6	6572.6	
584.79	8179.6	
584.98	8673.8	
585.18	6300.2	
585.37	6239.5	
585.56	7909.9	
585.75	8372.1	
585.94	6428.6	
586.14	6935.8	
586.33	8923	
586.52	8093.6	
586.71	6811.5	
586.91	6593.1	
587.1	7680.6	
587.29	8523	
587.48	6494.8	
587.67	6378.1	
587.87	8343.4	
588.06	8377.6	
588.25	7471	
588.44	6814.3	
588.63	7959.1	
588.83	8492.2	
589.02	6410.8	
589.21	6365.8	
589.4	7864.2	
589.59	7721.5	
589.78	5727.5	
589.98	5965.1	
590.17	7443	
590.36	7775.5	
590.55	5374.6	
590.74	6004	
590.94	8738.7	
591.13	7740	
591.32	5881.8	
591.51	5571.2	
591.7	7993.9	
591.89	7715.4	
592.09	5620.3	
592.28	5980.1	
592.47	7015	
592.66	8594	
592.85	5622.4	
593.05	5816.2	
593.24	7576.1	
593.43	8260.1	
593.62	5913.9	
593.81	6219	
594	7628	
594.19	7740.6	
594.39	5839.4	
594.58	5786.9	
594.77	7815	
594.96	8251.9	
595.15	5766.4	
595.34	6280.4	
595.54	7748.1	
595.73	7129	
595.92	5228.5	
596.11	6133.7	
596.3	8148.9	
596.49	7204.8	
596.68	5997.8	
596.88	6161	
597.07	8026.7	
597.26	7086	
597.45	5606	
597.64	6562.4	
597.83	7290.8	
598.02	7811.6	
598.22	5681.1	
598.41	6181.5	
598.6	7619.8	
598.79	7152.2	
598.98	5748	
599.17	6436.8	
599.36	7647.8	
599.55	8598.1	
599.74	7239.6	
599.94	7050.5	
600.13	8041.7	
600.32	7149.5	
600.51	5513.1	
600.7	5610.1	
600.89	8463.6	
601.08	8573.5	
601.27	5410.1	
601.47	6112.5	
601.66	7967.3	
601.85	8491.6	
602.04	6004.6	
602.23	6185.5	
602.42	7311.9	
602.61	7757	
602.8	5830.6	
602.99	5713.8	
603.18	7494.9	
603.37	7675.8	
603.57	6191	
603.76	6651.1	
603.95	8268.3	
604.14	7948.2	
604.33	5766.4	
604.52	6075	
604.71	7811.6	
604.9	7334.5	
605.09	6472.9	
605.28	6324.1	
605.47	8150.9	
605.66	7809.6	
605.86	6204.7	
606.05	5801.9	
606.24	8221.9	
606.43	6976.1	
606.62	6051.1	
606.81	6608.1	
607	8045.1	
607.19	7436.9	
607.38	5571.2	
607.57	5717.2	
607.76	7225.2	
607.95	6790.4	
608.14	6092	
608.33	6596.5	
608.52	7265.5	
608.72	7917.4	
608.91	5500.8	
609.1	5395.7	
609.29	7371.3	
609.48	6948.1	
609.67	6221	
609.86	5557.5	
610.05	7080.5	
610.24	7292.8	
610.43	5335.6	
610.62	5074.9	
610.81	8233.5	
611	7892.2	
611.19	5534.3	
611.38	6017.6	
611.57	7587	
611.76	8511.4	
611.95	5382.7	
612.14	5222.3	
612.33	7436.2	
612.52	6996.5	
612.71	5764.3	
612.9	5102.9	
613.09	6666.1	
613.28	8522.3	
613.47	5644.9	
613.66	6250.4	
613.85	7523.6	
614.04	7038.2	
614.24	5554.1	
614.43	4958.1	
614.62	7577.5	
614.81	7539.3	
615	6013.5	
615.19	6001.9	
615.38	7060	
615.57	7297.6	
615.76	5859.9	
615.95	6576.7	
616.14	7694.2	
616.33	7320.8	
616.52	6115.2	
616.71	6229.9	
616.9	7534.5	
617.09	7365.9	
617.28	5652.4	
617.47	6556.2	
617.66	6960.4	
617.85	6904.4	
618.04	6282.5	
618.22	5846.3	
618.41	7137.2	
618.6	7828	
618.79	5834.7	
618.98	5526.8	
619.17	8094.9	
619.36	6713.9	
619.55	5763.7	
619.74	5777.3	
619.93	7497.6	
620.12	7006.1	
620.31	6142.5	
620.5	6178.7	
620.69	7931.1	
620.88	8206.2	
621.07	6886.6	
621.26	6087.2	
621.45	7608.9	
621.64	7553.6	
621.83	6206.7	
622.02	5514.5	
622.21	7703.8	
622.4	7555.6	
622.59	6566.5	
622.78	6387.6	
622.97	7211.6	
623.16	7916.1	
623.35	6122.1	
623.54	5397.8	
623.72	7368.6	
623.91	7454.6	
624.1	6283.9	
624.29	5300.1	
624.48	8242.4	
624.67	7769.3	
624.86	6212.9	
625.05	5522	
625.24	8370.7	
625.43	7105.1	
625.62	7492.2	
625.81	5660.6	
626	7845.1	
626.19	7347.4	
626.38	6253.8	
626.56	5837.4	
626.75	7265.5	
626.94	7742.7	
627.13	6307.1	
627.32	5237.3	
627.51	7705.1	
627.7	8615.1	
627.89	5352	
628.08	6363	
628.27	7035.5	
628.46	7299	
628.65	5640.8	
628.83	5296.7	
629.02	7635.5	
629.21	7070.3	
629.4	5948.7	
629.59	6148	
629.78	7052.5	
629.97	7808.2	
630.16	6137.8	
630.35	5758.9	
630.54	8217.1	
630.72	7860.8	
630.91	5655.1	
631.1	6077	
631.29	7614.3	
631.48	7631.4	
631.67	6247.7	
631.86	5724.1	
632.05	7200	
632.24	7323.5	
632.42	5459.9	
632.61	5976	
632.8	7287.4	
632.99	7045	
633.18	5957.5	
633.37	6301.6	
633.56	7469.6	
633.75	7371.3	
633.93	6027.2	
634.12	5785.5	
634.31	8209.6	
634.5	7837.6	
634.69	5765	
634.88	6150.1	
635.07	7301	
635.25	7873.8	
635.44	6554.2	
635.63	6680.5	
635.82	7262.1	
636.01	6784.9	
636.2	6399.9	
636.39	6094.1	
636.57	8221.2	
636.76	7803.4	
636.95	5672.9	
637.14	6799.3	
637.33	7593.2	
637.52	8271.1	
637.7	5429.8	
637.89	6206.7	
638.08	7320.1	
638.27	8343.4	
638.46	6262	
638.65	6599.2	
638.83	8444.5	
639.02	7136.5	
639.21	6173.3	
639.4	6640.9	
639.59	7486.7	
639.78	7227.3	
639.96	5669.5	
640.15	5687.9	
640.34	7449.1	
640.53	7468.3	
640.72	5487.9	
640.91	5668.8	
641.09	6949.4	
641.28	7902.4	
641.47	5642.2	
641.66	6331	
641.85	7507.9	
642.03	7582.9	
642.22	6105.7	
642.41	5754.8	
642.6	6997.2	
642.79	6537.1	
642.97	5585.5	
643.16	6128.9	
643.35	6962.4	
643.54	6791.1	
643.73	5451	
643.91	6143.9	
644.1	6730.3	
644.29	7184.3	
644.48	5535.7	
644.67	5553.4	
644.85	6789.7	
645.04	7151.5	
645.23	5193.6	
645.42	5438	
645.6	6768.5	
645.79	7606.8	
645.98	5373.2	
646.17	4663.2	
646.36	6507.8	
646.54	6984.3	
646.73	6014.9	
646.92	5109	
647.11	6670.9	
647.29	7452.6	
647.48	5126.1	
647.67	4930.8	
647.86	7704.5	
648.05	7701.7	
648.23	5410.1	
648.42	6372.6	
648.61	7260	
648.8	7013.6	
648.98	5103.5	
649.17	5356.8	
649.36	6669.6	
649.55	6305.7	
649.73	5120.6	
649.92	5792.3	
650.11	6554.9	
650.3	6795.2	
650.48	5264.6	
650.67	5088.5	
650.86	7059.3	
651.05	6146	
651.23	5266	
651.42	5170.4	
651.61	6622.4	
651.79	6673.6	
651.98	5362.9	
652.17	5094.7	
652.36	6960.4	
652.54	6240.2	
652.73	5174.5	
652.92	4958.1	
653.11	7006.1	
653.29	7060	
653.48	4547.2	
653.67	5320.6	
653.85	6799.9	
654.04	7624.6	
654.23	5397.1	
654.42	5127.4	
654.6	6464.8	
654.79	6967.2	
654.98	4703.5	
655.16	5155.4	
655.35	6166.4	
655.54	6065.4	
655.73	4739.7	
655.91	4717.2	
656.1	6889.4	
656.29	5982.8	
656.47	4374.5	
656.66	5728.2	
656.85	6285.2	
657.03	6266.8	
657.22	4823.6	
657.41	4827.1	
657.59	6352.8	
657.78	6158.2	
657.97	4657.1	
658.16	5126.1	
658.34	6890	
658.53	7127.6	
658.72	5780.1	
658.9	6260	
659.09	6535.8	
659.28	6419.7	
659.46	5002.5	
659.65	4887.1	
659.84	6252.4	
660.02	6691.4	
660.21	4943.8	
660.4	4771.1	
660.58	7036.8	
660.77	6488	
660.96	5328.1	
661.14	4534.9	
661.33	7434.1	
661.52	7296.9	
661.7	4562.2	
661.89	7328.3	
662.08	6201.9	
662.26	5799.2	
662.45	4685.8	
662.64	4833.9	
662.82	6761.7	
663.01	6122.7	
663.2	4897.4	
663.38	5416.2	
663.57	6717.3	
663.75	6587	
663.94	5104.9	
664.13	6066.1	
664.31	6217.6	
664.5	6724.2	
664.69	5253.7	
664.87	5612.1	
665.06	6049	
665.25	6457.9	
665.43	5829.9	
665.62	5941.2	
665.8	6823.1	
665.99	6294.1	
666.18	5062.6	
666.36	5045.5	
666.55	6813.6	
666.74	6732.4	
666.92	4813.4	
667.11	6028.5	
667.29	6324.8	
667.48	6751.5	
667.67	5711.8	
667.85	4958.1	
668.04	6325.5	
668.22	6255.9	
668.41	5168.4	
668.6	5303.6	
668.78	6166.4	
668.97	6305.7	
669.15	5388.9	
669.34	4536.9	
669.53	6230.6	
669.71	6360.3	
669.9	4661.9	
670.08	5182.7	
670.27	6141.2	
670.46	6586.3	
670.64	5371.8	
670.83	5601.9	
671.01	5977.3	
671.2	6492.7	
671.38	4794.3	
671.57	4733.5	
671.76	7027.3	
671.94	7500.3	
672.13	4674.8	
672.31	5500.2	
672.5	6686.6	
672.69	6179.4	
672.87	4790.9	
673.06	5048.2	
673.24	6541.2	
673.43	6195.1	
673.61	5327.4	
673.8	4977.2	
673.98	6715.3	
674.17	6840.2	
674.36	5441.5	
674.54	5311.1	
674.73	6449.1	
674.91	6657.9	
675.1	5117.2	
675.28	4807.9	
675.47	6298.9	
675.65	6795.8	
675.84	4990.9	
676.03	5229.1	
676.21	6200.6	
676.4	5775.3	
676.58	5604.6	
676.77	5442.8	
676.95	7330.4	
677.14	6174.6	
677.32	4745.1	
677.51	4635.9	
677.69	6767.9	
677.88	5860.6	
678.06	4666	
678.25	4788.8	
678.44	6408.1	
678.62	6171.2	
678.81	4537.6	
678.99	5338.4	
679.18	6976.1	
679.36	6627.9	
679.55	5017.5	
679.73	5442.8	
679.92	6602	
680.1	6182.8	
680.29	5913.9	
680.47	5020.9	
680.66	6155.5	
680.84	6817.7	
681.03	4429.1	
681.21	5330.2	
681.4	6195.1	
681.58	6072.2	
681.77	4803.9	
681.95	4698.7	
682.14	6782.9	
682.32	7002	
682.51	5545.2	
682.69	4564.2	
682.88	6118	
683.06	6550.8	
683.25	5195.7	
683.43	5593.7	
683.62	6329.6	
683.8	6627.9	
683.99	5660.6	
684.17	5126.1	
684.36	7342.7	
684.54	6254.5	
684.73	4479.6	
684.91	4614.8	
685.1	6410.1	
685.28	5986.2	
685.46	5018.2	
685.65	5053	
685.83	6675.7	
686.02	6164.4	
686.2	4672.1	
686.39	4788.2	
686.57	5848.3	
686.76	7003.4	
686.94	4648.9	
687.13	4841.4	
687.31	6542.6	
687.5	6146	
687.68	4341	
687.86	5395	
688.05	7535.2	
688.23	5728.9	
688.42	5367.7	
688.6	4730.1	
688.79	6062	
688.97	6067.4	
689.16	5126.1	
689.34	4141.7	
689.52	6635.4	
689.71	6817	
689.89	5271.5	
690.08	4717.2	
690.26	6313.9	
690.45	6152.1	
690.63	5455.1	
690.81	4823.6	
691	6112.5	
691.18	6022.4	
691.37	4982	
691.55	6624.5	
691.74	5956.2	
691.92	7526.3	
692.1	5007.3	
692.29	4560.1	
692.47	6154.8	
692.66	5676.3	
692.84	4698	
693.02	5068	
693.21	5689.9	
693.39	6161	
693.58	5183.4	
693.76	4640	
693.94	7081.9	
694.13	6853.2	
694.31	4743.8	
694.5	5556.8	
694.68	5997.8	
694.86	6278.4	
695.05	4966.3	
695.23	5104.2	
695.42	6571.2	
695.6	8269.7	
695.78	5487.9	
695.97	4802.5	
696.15	6661.4	
696.34	6150.7	
696.52	4603.8	
696.7	5259.2	
696.89	6387.6	
697.07	5980.1	
697.25	5212.8	
697.44	6331	
697.62	6247	
697.81	6601.3	
697.99	4932.9	
698.17	5269.4	
698.36	5829.9	
698.54	6419	
698.72	5147.2	
698.91	4402.5	
699.09	6146	
699.28	5937.7	
699.46	4939.7	
699.64	4832.5	
699.83	5903.6	
700.01	6846.4	
700.19	5418.9	
700.38	4248.9	
700.56	6851.8	
700.74	5952.8	
700.93	4525.3	
701.11	5154.1	
701.29	6365.1	
701.48	7230.7	
701.66	4673.5	
701.84	4797	
702.03	6067.4	
702.21	6568.5	
702.39	4343.7	
702.58	4890.5	
702.76	6424.5	
702.94	6464.8	
703.13	4358.1	
703.31	6188.3	
703.49	5885.9	
703.68	6998.6	
703.86	4583.4	
704.04	5337	
704.23	6290	
704.41	6590.4	
704.59	4669.4	
704.78	5571.2	
704.96	7163.1	
705.14	6567.8	
705.33	4526	
705.51	5225.7	
705.69	6109.8	
705.87	6756.2	
706.06	5200.5	
706.24	4454.3	
706.42	6322.1	
706.61	6509.8	
706.79	5380	
706.97	4421.6	
707.16	6010.1	
707.34	6354.2	
707.52	5287.9	
707.7	4599.1	
707.89	5950	
708.07	5756.8	
708.25	5302.2	
708.44	5436.7	
708.62	5938.4	
708.8	6836.1	
708.98	5595.1	
709.17	4707.6	
709.35	6311.2	
709.53	6243.6	
709.72	4500.8	
709.9	4788.8	
710.08	6601.3	
710.26	6526.9	
710.45	5768.4	
710.63	4747.2	
710.81	6212.9	
710.99	6268.8	
711.18	5174.5	
711.36	4810.7	
711.54	6103.6	
711.72	6678.4	
711.91	4896	
712.09	4474.1	
712.27	6277.7	
712.45	7073.7	
712.64	5156.1	
712.82	4324.6	
713	5864	
713.18	5963.7	
713.37	4457.1	
713.55	5355.4	
713.73	6625.2	
713.91	5484.5	
714.1	4735.6	
714.28	4301.4	
714.46	6285.2	
714.64	5701.5	
714.83	3873.4	
715.01	4531.5	
715.19	5748.6	
715.37	5200.5	
715.55	4222.9	
715.74	4472.8	
715.92	6455.9	
716.1	4902.2	
716.28	5354.1	
716.47	4621.6	
716.65	5513.8	
716.83	5485.1	
717.01	4431.1	
717.19	4480.3	
717.38	7101	
717.56	5270.8	
717.74	4629.8	
717.92	3987.4	
718.1	6235.4	
718.29	5597.1	
718.47	3669.3	
718.65	4224.3	
718.83	6199.9	
719.01	6115.9	
719.2	3513.6	
719.38	4440	
719.56	5863.3	
719.74	7047.1	
719.92	4141	
720.11	4996.4	
720.29	5937.7	
720.47	5212.1	
720.65	3794.2	
720.83	4448.2	
721.02	5543.9	
721.2	5298.1	
721.38	4547.9	
721.56	3984	
721.74	4914.4	
721.92	5066.7	
722.11	4885.8	
722.29	4636.6	
722.47	6020.3	
722.65	5418.9	
722.83	3923.9	
723.01	4604.5	
723.2	5409.4	
723.38	5672.9	
723.56	3517.7	
723.74	4395.6	
723.92	5059.8	
724.1	5952.1	
724.29	3904.1	
724.47	4790.9	
724.65	5198.4	
724.83	5036	
725.01	3859.1	
725.19	4492.6	
725.37	5134.9	
725.56	5123.3	
725.74	3718.4	
725.92	3863.8	
726.1	5071.5	
726.28	5345.9	
726.46	4216.1	
726.64	4002.4	
726.83	5388.2	
727.01	5475.6	
727.19	3758.7	
727.37	4310.3	
727.55	5417.6	
727.73	5807.4	
727.91	3649.5	
728.09	3574.4	
728.28	5898.1	
728.46	6080.4	
728.64	4392.9	
728.82	4346.5	
729	6637.5	
729.18	6083.8	
729.36	3741	
729.54	5579.3	
729.72	6823.8	
729.91	5526.1	
730.09	5255.1	
730.27	4203.8	
730.45	5427.8	
730.63	5848.3	
730.81	4747.9	
730.99	4022.9	
731.17	6364.4	
731.35	5209.3	
731.53	4340.3	
731.71	4107.5	
731.9	6142.5	
732.08	6188.3	
732.26	4335.5	
732.44	4066.6	
732.62	6299.6	
732.8	5906.3	
732.98	4612	
733.16	3894.6	
733.34	5835.3	
733.52	4909.7	
733.7	4268.6	
733.88	4487.8	
734.07	5737.7	
734.25	5535.7	
734.43	3891.1	
734.61	5052.3	
734.79	6687.3	
734.97	5527.5	
735.15	3971.7	
735.33	4357.4	
735.51	5811.5	
735.69	5503.6	
735.87	5106.3	
736.05	4385.4	
736.23	5683.1	
736.41	5383.4	
736.59	4298.7	
736.77	4384	
736.95	5933	
737.13	5520	
737.32	4035.2	
737.5	4135.5	
737.68	6386.9	
737.86	5402.5	
738.04	3835.8	
738.22	5324	
738.4	5325.4	
738.58	5614.2	
738.76	4377.2	
738.94	3531.4	
739.12	5384.8	
739.3	5296.7	
739.48	4784.7	
739.66	4644.1	
739.84	5620.3	
740.02	5575.3	
740.2	3643.3	
740.38	3889.8	
740.56	5917.3	
740.74	4949.9	
740.92	4401.8	
741.1	4354.7	
741.28	5468.8	
741.46	5302.2	
741.64	4052.2	
741.82	4478.9	
742	5459.9	
742.18	5458.5	
742.36	4222.2	
742.54	3910.3	
742.72	5944.6	
742.9	4934.9	
743.08	4577.9	
743.26	3638.6	
743.44	6064.7	
743.62	5939.1	
743.8	4671.4	
743.98	3879.5	
744.16	5784.1	
744.34	5458.5	
744.52	4565.6	
744.7	4480.3	
744.88	5870.2	
745.06	5449	
745.24	4647.5	
745.42	4688.5	
745.6	5933.6	
745.78	5771.9	
745.96	3682.9	
746.14	3963.5	
746.32	6515.3	
746.5	5930.9	
746.68	4385.4	
746.86	3938.9	
747.03	6214.2	
747.21	4870.1	
747.39	4379.2	
747.57	3919.8	
747.75	5562.3	
747.93	5851	
748.11	3920.5	
748.29	3867.2	
748.47	6789.7	
748.65	5357.5	
748.83	4487.1	
749.01	4234.5	
749.19	5785.5	
749.37	5020.9	
749.55	4182.6	
749.73	4218.8	
749.91	5595.1	
750.09	5264	
750.26	4261.1	
750.44	3750.5	
750.62	5481	
750.8	5509	
750.98	3656.3	
751.16	3988.8	
751.34	5622.4	
751.52	5069.4	
751.7	4596.3	
751.88	3660.4	
752.06	5905.7	
752.24	5703.6	
752.42	3639.9	
752.59	3850.2	
752.77	5530.2	
752.95	6475.7	
753.13	4511	
753.31	4019.5	
753.49	5236	
753.67	5561.6	
753.85	4252.9	
754.03	3889.1	
754.21	5769.8	
754.38	6019	
754.56	3998.3	
754.74	3333.4	
754.92	5197.7	
755.1	5734.3	
755.28	3345.7	
755.46	3416	
755.64	6397.9	
755.82	6433.4	
755.99	3667.9	
756.17	3695.9	
756.35	4400.4	
756.53	5660.6	
756.71	2831.7	
756.89	3483.6	
757.07	5322	
757.25	4650.9	
757.42	3960.8	
757.6	4603.2	
757.78	5412.8	
757.96	4640	
758.14	3705.5	
758.32	3330	
758.5	4230.4	
758.67	4974.5	
758.85	3551.2	
759.03	3693.9	
759.21	5093.3	
759.39	4618.2	
759.57	3235.8	
759.75	4144.4	
759.92	5595.1	
760.1	5096	
760.28	4381.3	
760.46	4539	
760.64	4861.2	
760.82	4608.6	
760.99	4109.6	
761.17	3610.6	
761.35	5554.8	
761.53	4634.6	
761.71	3764.8	
761.89	4293.2	
762.06	5367.7	
762.24	4969.7	
762.42	3829.7	
762.6	3604.4	
762.78	4949.9	
762.96	5531.6	
763.13	4128.7	
763.31	3824.9	
763.49	5522.7	
763.67	4921.3	
763.85	4448.9	
764.02	4937	
764.2	5845.6	
764.38	5124.7	
764.56	3762.8	
764.74	4467.3	
764.91	5885.2	
765.09	4995.7	
765.27	3513.6	
765.45	3351.2	
765.63	5942.5	
765.8	5784.8	
765.98	3132.7	
766.16	3420.1	
766.34	4672.8	
766.52	4503.5	
766.69	4101.4	
766.87	3243.3	
767.05	5047.6	
767.23	5681.7	
767.41	3532.1	
767.58	3742.3	
767.76	5454.4	
767.94	5502.2	
768.12	3639.2	
768.29	4121.2	
768.47	5051.7	
768.65	5730.9	
768.83	3226.2	
769	4207.9	
769.18	4753.3	
769.36	5299.5	
769.54	4241.3	
769.72	3320.4	
769.89	5523.4	
770.07	5571.8	
770.25	3617.4	
770.43	4624.3	
770.6	6195.1	
770.78	6419.7	
770.96	3736.2	
771.14	4208.6	
771.31	5511.1	
771.49	4932.9	
771.67	3086.3	
771.85	3252.2	
772.02	4354	
772.2	4933.6	
772.38	3873.4	
772.55	3456.3	
772.73	5191.6	
772.91	4952	
773.09	3724.6	
773.26	3807.9	
773.44	5105.6	
773.62	4887.8	
773.8	3396.9	
773.97	3150.5	
774.15	5195.7	
774.33	4928.1	
774.5	3278.1	
774.68	3596.9	
774.86	5320.6	
775.04	4913.1	
775.21	3373	
775.39	3373.7	
775.57	5129.5	
775.74	5380	
775.92	3239.9	
776.1	3119.1	
776.27	5079	
776.45	6056.5	
776.63	3394.8	
776.81	3063.8	
776.98	4761.5	
777.16	5670.8	
777.34	3464.5	
777.51	3764.2	
777.69	4816.8	
777.87	4695.3	
778.04	3567.6	
778.22	3942.3	
778.4	4639.3	
778.57	5167.7	
778.75	2958.6	
778.93	3220.8	
779.1	4519.2	
779.28	4414.7	
779.46	2949.8	
779.64	3311.6	
779.81	5303.6	
779.99	5958.2	
780.17	3992.9	
780.34	4065.2	
780.52	4871.4	
780.69	5035.3	
780.87	3699.3	
781.05	3189.4	
781.22	4977.9	
781.4	5051.7	
781.58	3357.3	
781.75	2727.9	
781.93	5014.8	
782.11	4393.6	
782.28	4092.5	
782.46	3380.5	
782.64	4380.6	
782.81	5117.9	
782.99	3460.4	
783.17	3453.6	
783.34	5029.8	
783.52	4418.8	
783.69	3567.6	
783.87	4204.5	
784.05	4519.2	
784.22	4459.1	
784.4	4147.8	
784.58	3680.2	
784.75	5260.5	
784.93	4506.9	
785.1	3371	
785.28	3842	
785.46	5006.6	
785.63	4454.3	
785.81	3346.4	
785.99	3232.4	
786.16	4674.8	
786.34	4911	
786.51	3294.5	
786.69	3621.5	
786.87	4273.4	
787.04	4686.4	
787.22	3173	
787.39	3939.6	
787.57	4530.8	
787.75	5380	
787.92	4079.6	
788.1	4001.7	
788.27	4526	
788.45	4235.2	
788.63	3721.2	
788.8	2769.5	
788.98	4840	
789.15	4242.7	
789.33	2921.1	
789.5	3405.1	
789.68	5260.5	
789.86	5317.9	
790.03	3723.9	
790.21	3205.1	
790.38	5278.3	
790.56	4659.8	
790.73	3225.6	
790.91	3138.2	
791.09	4537.6	
791.26	5113.1	
791.44	3386	
791.61	2938.2	
791.79	4553.3	
791.96	4554.7	
792.14	3011.9	
792.32	2723.8	
792.49	4513	
792.67	4636.6	
792.84	3124.5	
793.02	2950.4	
793.19	4947.9	
793.37	5447.6	
793.54	2736.8	
793.72	2967.5	
793.89	5471.5	
794.07	4577.2	
794.25	3344.3	
794.42	2786.6	
794.6	5319.3	
794.77	5002.5	
794.95	3691.8	
795.12	3269.2	
795.3	4534.9	
795.47	4978.6	
795.65	3545.7	
795.82	3452.9	
796	4399.7	
796.17	5866.7	
796.35	3346.4	
796.52	3921.2	
796.7	4973.8	
796.87	5002.5	
797.05	3315	
797.22	4005.8	
797.4	4981.3	
797.57	5715.9	
797.75	3512.3	
797.92	3262.4	
798.1	5233.9	
798.27	4394.9	
798.45	2841.2	
798.62	3082.2	
798.8	4775.2	
798.97	5156.8	
799.15	3563.5	
799.32	3437.9	
799.5	4182	
799.67	4831.2	
799.85	3710.2	
800.02	2756.6	
800.2	4500.1	
800.37	4686.4	
800.55	3854.3	
800.72	3201.7	
800.9	5161.6	
801.07	5450.3	
801.25	4311	
801.42	3587.4	
801.6	5141.8	
801.77	4840.7	
801.95	3342.3	
802.12	3140.9	
802.29	4917.9	
802.47	4879.6	
802.64	3534.8	
802.82	2770.2	
802.99	4519.2	
803.17	5263.3	
803.34	3385.3	
803.52	3138.2	
803.69	5778.7	
803.87	4331.5	
804.04	3438.5	
804.21	3503.4	
804.39	5399.1	
804.56	4640	
804.74	2947	
804.91	3593.5	
805.09	4524	
805.26	4587.4	
805.44	2979.1	
805.61	3295.2	
805.78	5102.9	
805.96	5033.9	
806.13	3551.9	
806.31	3810.6	
806.48	4160.8	
806.66	4524.6	
806.83	3560.7	
807	3465.2	
807.18	4538.3	
807.35	4813.4	
807.53	3433.1	
807.7	2835.8	
807.87	5411.4	
808.05	4470.7	
808.22	3742.3	
808.4	2867.2	
808.57	4483.7	
808.74	4251.6	
808.92	3218	
809.09	4029	
809.27	4514.4	
809.44	4935.6	
809.61	2856.2	
809.79	3166.2	
809.96	5509.7	
810.14	5107.6	
810.31	2753.8	
810.48	3411.2	
810.66	4569	
810.83	5208	
811.01	3208.5	
811.18	3530.7	
811.35	5127.4	
811.53	4070	
811.7	3857.7	
811.87	3593.5	
812.05	4549.2	
812.22	4503.5	
812.39	3102.7	
812.57	3035.8	
812.74	4607.2	
812.92	5805.3	
813.09	3354.6	
813.26	3592.1	
813.44	5663.3	
813.61	4496.7	
813.78	2835.8	
813.96	3724.6	
814.13	4586.1	
814.3	4359.4	
814.48	4012.7	
814.65	3351.2	
814.82	5426.4	
815	4320.5	
815.17	3446	
815.34	4094.6	
815.52	4499.4	
815.69	4491.9	
815.87	3333.4	
816.04	3336.1	
816.21	4509.6	
816.38	4102.1	
816.56	3292.5	
816.73	3084.2	
816.9	5656.5	
817.08	5112.4	
817.25	3181.9	
817.42	3872.7	
817.6	4257	
817.77	4508.3	
817.94	3500	
818.12	3053.5	
818.29	4352.6	
818.46	6380.1	
818.64	3201	
818.81	3007.8	
818.98	4352.6	
819.16	6043.6	
819.33	3650.2	
819.5	3487.7	
819.67	4808.6	
819.85	5362.9	
820.02	3383.9	
820.19	3590.8	
820.37	4705.5	
820.54	4468	
820.71	3487	
820.88	4332.1	
821.06	4709.6	
821.23	4407.9	
821.4	3513.6	
821.58	3431	
821.75	5123.3	
821.92	4694.6	
822.09	2865.8	
822.27	2914.3	
822.44	4567.7	
822.61	4463.2	
822.79	2919	
822.96	5303.6	
823.13	4894	
823.3	4272.1	
823.48	3238.5	
823.65	2955.2	
823.82	5109	
823.99	4212	
824.17	4085.7	
824.34	3003.7	
824.51	5806.7	
824.68	4586.8	
824.86	3162.7	
825.03	3458.3	
825.2	4523.3	
825.37	5387.5	
825.55	3080.8	
825.72	3403.7	
825.89	5829.9	
826.06	5472.9	
826.24	3359.4	
826.41	3321.8	
826.58	5494.7	
826.75	4800.4	
826.92	2711.5	
827.1	2960.7	
827.27	7239.6	
827.44	5774.6	
827.61	3192.1	
827.79	3827	
827.96	4395.6	
828.13	4603.2	
828.3	3370.3	
828.47	2841.2	
828.65	4790.2	
828.82	4771.1	
828.99	4184.7	
829.16	3717.7	
829.34	5100.1	
829.51	4874.2	
829.68	3397.6	
829.85	3479.5	
830.02	5343.2	
830.2	5066.7	
830.37	2704.7	
830.54	4086.4	
830.71	5690.6	
830.88	4547.9	
831.05	2705.4	
831.23	3158	
831.4	5561.6	
831.57	6092	
831.74	3215.3	
831.91	2831.7	
832.09	4846.2	
832.26	5048.2	
832.43	3237.2	
832.6	3679.5	
832.77	4764.9	
832.94	5373.9	
833.12	2692.4	
833.29	3239.2	
833.46	4918.5	
833.63	6200.6	
833.8	3546.4	
833.97	3259.7	
834.15	5119.2	
834.32	4922	
834.49	3364.8	
834.66	3430.3	
834.83	5244.2	
835	4359.4	
835.17	3224.2	
835.35	3164.1	
835.52	4999.1	
835.69	4893.3	
835.86	3383.9	
836.03	2789.3	
836.2	5073.5	
836.37	4764.9	
836.55	3251.5	
836.72	3102	
836.89	4724	
837.06	5154.1	
837.23	3324.5	
837.4	3631.7	
837.57	5691.3	
837.75	6189	
837.92	3007.8	
838.09	3203.7	
838.26	4707.6	
838.43	5254.4	
838.6	3415.3	
838.77	3084.2	
838.94	5937.7	
839.11	5726.8	
839.29	3276.8	
839.46	2649.4	
839.63	5072.1	
839.8	4844.1	
839.97	3198.2	
840.14	3158	
840.31	4929.5	
840.48	5083.1	
840.65	2751.1	
840.82	3173	
841	5079.6	
841.17	4978.6	
841.34	2973	
841.51	3001.6	
841.68	4992.9	
841.85	4810.7	
842.02	3071.3	
842.19	2664.4	
842.36	4894.6	
842.53	4846.2	
842.7	2995.5	
842.87	3539.6	
843.05	6236.1	
843.22	4795.7	
843.39	2788.7	
843.56	3016.7	
843.73	4728.1	
843.9	5170.4	
844.07	4618.2	
844.24	3916.4	
844.41	7048.4	
844.58	4427.7	
844.75	2897.9	
844.92	3146.4	
845.09	5070.8	
845.26	5091.3	
845.43	2949.1	
845.6	3119.7	
845.77	5085.1	
845.94	4822.3	
846.12	3212.6	
846.29	3452.2	
846.46	5257.1	
846.63	4991.6	
846.8	2949.8	
846.97	3416	
847.14	5397.1	
847.31	5043.5	
847.48	3268.6	
847.65	3619.4	
847.82	5311.7	
847.99	5191.6	
848.16	3861.8	
848.33	3620.1	
848.5	4650.3	
848.67	5433.3	
848.84	2919	
849.01	3011.2	
849.18	4603.2	
849.35	4343.7	
849.52	3605.1	
849.69	2858.3	
849.86	5232.6	
850.03	5368.4	
850.2	2976.4	
850.37	3519.8	
850.54	5308.3	
850.71	4777.2	
850.88	3484.3	
851.05	2923.1	
851.22	4978.6	
851.39	5455.1	
851.56	2779.8	
851.73	3279.5	
851.9	4485.7	
852.07	5231.2	
852.24	3241.3	
852.41	2886.3	
852.58	4932.9	
852.75	4509.6	
852.92	3249.4	
853.09	2862.4	
853.26	4685.1	
853.43	5356.1	
853.6	2902.7	
853.77	2519.7	
853.94	5441.5	
854.11	4491.2	
854.28	4244.8	
854.44	3144.3	
854.61	5819.6	
854.78	5292.6	
854.95	2911.5	
855.12	3620.8	
855.29	4175.8	
855.46	5523.4	
855.63	2951.1	
855.8	4026.3	
855.97	4700.8	
856.14	5352	
856.31	4075.5	
856.48	3153.9	
856.65	4704.2	
856.82	4461.2	
856.99	2861	
857.16	3130	
857.33	5966.4	
857.49	4767	
857.66	3148.4	
857.83	3345	
858	4795.7	
858.17	4911.7	
858.34	2761.3	
858.51	2916.3	
858.68	5558.9	
858.85	5538.4	
859.02	3366.9	
859.19	3498.6	
859.36	4476.9	
859.52	4531.5	
859.69	2973.7	
859.86	3405.8	
860.03	4547.2	
860.2	5489.2	
860.37	2697.2	
860.54	2939.5	
860.71	5181.4	
860.88	5526.8	
861.05	3250.1	
861.21	3692.5	
861.38	5531.6	
861.55	4350.6	
861.72	2669.2	
861.89	3288.4	
862.06	5274.2	
862.23	5592.3	
862.4	2893.1	
862.56	3067.9	
862.73	5147.9	
862.9	4890.5	
863.07	3361.4	
863.24	2657.6	
863.41	4427	
863.58	4506.9	
863.75	2970.2	
863.91	3397.6	
864.08	5393.7	
864.25	5180	
864.42	3599	
864.59	3956.7	
864.76	5770.5	
864.93	4525.3	
865.09	2886.3	
865.26	3104	
865.43	5392.3	
865.6	5756.2	
865.77	2567.5	
865.94	2877.4	
866.1	5441.5	
866.27	5199.8	
866.44	4296.6	
866.61	2837.1	
866.78	4819.6	
866.95	5125.4	
867.11	2863.7	
867.28	2585.9	
867.45	5336.3	
867.62	4509.6	
867.79	3419.4	
867.96	2853.5	
868.12	4473.4	
868.29	5252.4	
868.46	2953.9	
868.63	3871.3	
868.8	5344.5	
868.97	5154.1	
869.13	2981.8	
869.3	3083.6	
869.47	5096	
869.64	5292.6	
869.81	2978.4	
869.97	2969.6	
870.14	4993.6	
870.31	5488.6	
870.48	2894.5	
870.65	3633.8	
870.81	4792.9	
870.98	4820.9	
871.15	3297.2	
871.32	3069.9	
871.48	5147.9	
871.65	5607.3	
871.82	2896.5	
871.99	3179.8	
872.16	5948	
872.32	5406	
872.49	3018.7	
872.66	3003	
872.83	5285.1	
872.99	4659.8	
873.16	3345.7	
873.33	2938.8	
873.5	4930.8	
873.67	4915.1	
873.83	3107.5	
874	3831.7	
874.17	5003.2	
874.34	5839.4	
874.5	3696.6	
874.67	3629	
874.84	5487.2	
875.01	4404.5	
875.17	4067.3	
875.34	2905.4	
875.51	5018.2	
875.68	5881.1	
875.84	3511.6	
876.01	4155.3	
876.18	5262.6	
876.34	5161.6	
876.51	2965.5	
876.68	2897.2	
876.85	4741.7	
877.01	5418.2	
877.18	4080.9	
877.35	2900.6	
877.52	4965.6	
877.68	4446.8	
877.85	2880.8	
878.02	2880.8	
878.18	4816.8	
878.35	4649.6	
878.52	2351.8	
878.69	3220.1	
878.85	5246.9	
879.02	5176.6	
879.19	4108.9	
879.35	3117	
879.52	5126.7	
879.69	5326.8	
879.86	2568.2	
880.02	3269.9	
880.19	4830.5	
880.36	5820.3	
880.52	3346.4	
880.69	3414.6	
880.86	5233.2	
881.02	5268.1	
881.19	3249.4	
881.36	3112.2	
881.52	5166.3	
881.69	4615.4	
881.86	3164.8	
882.02	3093.1	
882.19	5457.2	
882.36	6242.9	
882.52	3031.7	
882.69	4101.4	
882.86	4987.5	
883.02	5022.3	
883.19	3461.7	
883.36	3334.8	
883.52	5278.3	
883.69	5917.3	
883.86	3034.4	
884.02	2674.6	
884.19	5227.1	
884.36	4904.9	
884.52	3334.8	
884.69	3099.9	
884.86	4697.4	
885.02	5677.7	
885.19	3246	
885.36	3314.3	
885.52	4846.2	
885.69	5036	
885.86	4123.9	
886.02	3686.3	
886.19	5214.8	
886.35	4730.8	
886.52	3201	
886.69	4025.6	
886.85	4501.4	
887.02	5477	
887.19	5477	
887.35	5477	
887.52	5477	
887.68	5477	
887.85	5477	
888.02	5477	
888.18	5477	
888.35	5477	
888.51	5477	
888.68	5477	
888.85	5477	
889.01	5477	
889.18	5477	
889.35	5477	
889.51	5477	
889.68	5477	
889.84	5477	
890.01	5477	
890.17	5477	
890.34	5477	
890.51	5477	
890.67	5477	
890.84	5477	
891	5477	
891.17	5477	
891.34	5477	
891.5	5477	
891.67	5477	
891.83	5477	
892	5477	
892.16	5477	
892.33	5477	
892.5	5477	
892.66	5477	
892.83	5477	
892.99	5477	
893.16	5477	
893.32	5477	
893.49	5477	
893.65	5477	
893.82	5477	
893.99	5477	
894.15	5477	
894.32	5477	
894.48	5477	
894.65	5477	
894.81	5477	
894.98	5477	
895.14	5477	
895.31	5477	
895.47	5477	
895.64	5477	
895.81	5477	
895.97	5477	
896.14	5477	
896.3	5477	
896.47	5477	
896.63	5477	
896.8	5477	
896.96	5477	
897.13	5477	
897.29	5477	
897.46	5477	
897.62	5477	
897.79	5477	
897.95	5477	
898.12	5477	
898.28	5477	
898.45	5477	
898.61	5477	
898.78	5477	
898.94	5477	
899.11	5477	
899.27	5477	
899.44	5477	
899.6	5477	
899.77	5477	
899.93	5477	
900.1	5477	
900.26	5477	
900.43	5477	
900.59	5477	
900.76	5477	
900.92	5477	
901.09	5477	
901.25	5477	
901.42	5477	
901.58	5477	
901.75	5477	
901.91	5477	
902.07	5477	
902.24	5477	
902.4	5477	
902.57	5477	
902.73	5477	
902.9	5477	
903.06	5477	
903.23	5477	
903.39	5477	
903.56	5477	
903.72	5477	
903.88	5477	
904.05	5477	
904.21	5477	
904.38	5477	
904.54	5477	
904.71	5477	
904.87	5477	
905.03	5477	
905.2	5477	
905.36	5477	
905.53	5477	
905.69	5477	
905.86	5477	
906.02	5477	
906.18	5477	
906.35	5477	
906.51	5477	
906.68	5477	
906.84	5477	
907.01	5477	
907.17	5477	
907.33	5477	
907.5	5477	
907.66	5477	
907.83	5477	
907.99	5477	
908.15	5477	
908.32	5477	
908.48	5477	
908.65	5477	
908.81	5477	
908.97	5477	
909.14	5477	
909.3	5477	
909.47	5477	
909.63	5477	
909.79	5477	
909.96	5477	
910.12	5477	
910.28	5477	
910.45	5477	
910.61	5477	
910.78	5477	
910.94	5477	
911.1	5477	
911.27	5477	
911.43	5477	
911.59	5477	
911.76	5477	
911.92	5477	
912.08	5477	
912.25	5477	
912.41	5477	
912.57	5477	
912.74	5477	
912.9	5477	
913.07	5477	
913.23	5477	
913.39	5477	
913.56	5477	
913.72	5477	
913.88	5477	
914.05	5477	
914.21	5477	
914.37	5477	
914.54	5477	
914.7	5477	
914.86	5477	
915.03	5477	
915.19	5477	
