Wavelength	Intensities	
nm	a.u.	
179.22	1591.3	
179.44	1600.8	
179.65	1581.7	
179.86	1619.9	
180.08	1574.2	
180.29	3522.5	
180.51	2794.8	
180.72	4704.2	
180.94	5162.2	
181.15	2532	
181.37	2484.9	
181.58	4491.2	
181.79	4629.1	
182.01	2630.3	
182.22	2710.1	
182.44	4684.4	
182.65	4112.3	
182.87	3225.6	
183.08	2923.1	
183.29	4908.3	
183.51	4111.6	
183.72	2715.6	
183.94	3642	
184.15	4440	
184.37	4336.2	
184.58	2449.4	
184.79	3103.4	
185.01	4252.3	
185.22	4749.9	
185.44	3245.3	
185.65	2852.8	
185.86	4460.5	
186.08	4136.2	
186.29	2424.1	
186.51	2550.4	
186.72	4261.1	
186.94	4767	
187.15	2861.7	
187.36	2906.8	
187.58	5809.4	
187.79	4488.5	
188.01	2983.2	
188.22	4420.2	
188.43	5173.9	
188.65	4644.1	
188.86	2596.8	
189.08	2962.7	
189.29	4287.8	
189.5	4229.1	
189.72	2692.4	
189.93	2800.9	
190.15	4769	
190.36	5435.3	
190.57	2966.8	
190.79	2846.7	
191	4723.3	
191.22	4816.1	
191.43	3005.7	
191.64	2602.3	
191.86	4951.3	
192.07	4803.9	
192.29	2636.4	
192.5	2725.8	
192.71	4771.8	
192.93	4297.3	
193.14	2724.5	
193.35	2839.2	
193.57	4293.9	
193.78	4791.6	
194	2287.6	
194.21	2682.8	
194.42	4123.9	
194.64	4416.8	
194.85	2884.2	
195.07	3319.1	
195.28	4428.4	
195.49	4012	
195.71	3422.8	
195.92	2583.9	
196.13	4694.6	
196.35	4571.1	
196.56	3651.5	
196.78	2913.6	
196.99	5405.3	
197.2	5046.9	
197.42	3244	
197.63	2945	
197.84	4091.8	
198.06	4532.8	
198.27	2739.5	
198.48	3442	
198.7	4313	
198.91	4468	
199.13	2935.4	
199.34	2915.6	
199.55	4782.7	
199.77	3886.4	
199.98	2654.9	
200.19	2984.6	
200.41	4382.7	
200.62	4218.1	
200.83	2991.4	
201.05	3229	
201.26	4455.7	
201.47	4238.6	
201.69	2652.1	
201.9	2561.3	
202.11	4412	
202.33	4974.5	
202.54	2796.8	
202.76	3081.5	
202.97	4457.7	
203.18	4556.7	
203.4	3047.4	
203.61	3104	
203.82	4508.9	
204.04	4212.7	
204.25	2960.7	
204.46	2916.3	
204.68	4388.1	
204.89	4549.2	
205.1	2882.9	
205.32	2596.8	
205.53	4576.5	
205.74	4753.3	
205.96	2286.2	
206.17	2965.5	
206.38	4575.8	
206.6	4726.7	
206.81	3310.9	
207.02	2788	
207.24	4619.5	
207.45	4814.8	
207.66	2793.4	
207.88	2523.8	
208.09	4575.2	
208.3	4414.7	
208.52	2645.3	
208.73	2887.6	
208.94	4410	
209.15	4853	
209.37	2832.3	
209.58	2904.7	
209.79	4691.2	
210.01	4303.5	
210.22	2363.4	
210.43	2476.7	
210.65	4390.2	
210.86	4644.1	
211.07	2799.6	
211.29	2646	
211.5	4597.7	
211.71	4389.5	
211.93	2680.1	
212.14	2663	
212.35	4430.4	
212.56	4425.7	
212.78	2986.6	
212.99	2497.8	
213.2	4968.4	
213.42	4326.7	
213.63	2729.9	
213.84	2882.9	
214.06	4044.1	
214.27	4106.9	
214.48	2793.4	
214.69	2968.9	
214.91	4873.5	
215.12	4902.2	
215.33	2967.5	
215.55	3209.2	
215.76	5148.6	
215.97	4586.8	
216.18	2876.7	
216.4	2861.7	
216.61	4275.5	
216.82	4713.1	
217.04	2683.5	
217.25	2726.5	
217.46	4749.2	
217.67	4653	
217.89	2466.4	
218.1	2496.5	
218.31	4452.3	
218.53	4532.2	
218.74	2816.6	
218.95	2716.3	
219.16	4446.8	
219.38	4979.3	
219.59	2670.6	
219.8	3110.2	
220.01	5365.7	
220.23	4468.7	
220.44	3289.7	
220.65	2590.7	
220.87	4532.2	
221.08	4825.7	
221.29	2554.5	
221.5	3140.9	
221.72	5557.5	
221.93	4163.5	
222.14	2973	
222.35	3368.2	
222.57	4370.4	
222.78	4728.8	
222.99	2798.9	
223.2	3016.7	
223.42	4588.1	
223.63	4626.4	
223.84	2272.6	
224.05	2332	
224.27	5248.3	
224.48	4952.7	
224.69	3450.8	
224.9	2904	
225.12	4575.2	
225.33	4388.1	
225.54	2465.1	
225.75	2717.7	
225.97	4240	
226.18	4355.3	
226.39	2800.9	
226.6	2706.7	
226.82	4321.2	
227.03	4173.8	
227.24	2927.9	
227.45	2568.2	
227.67	4706.9	
227.88	4943.8	
228.09	3197.6	
228.3	3270.6	
228.52	4639.3	
228.73	4400.4	
228.94	2825.5	
229.15	2525.8	
229.36	4461.2	
229.58	4435.2	
229.79	2813.9	
230	3147	
230.21	5164.3	
230.43	4397	
230.64	2907.4	
230.85	2970.2	
231.06	4764.9	
231.28	4685.8	
231.49	2509.4	
231.7	2904.7	
231.91	4659.1	
232.12	4432.5	
232.34	2614.6	
232.55	2863.7	
232.76	4790.2	
232.97	4502.8	
233.18	2628.2	
233.4	2891	
233.61	4543.1	
233.82	4229.7	
234.03	2757.2	
234.25	2777	
234.46	5644.2	
234.67	4450.2	
234.88	2981.2	
235.09	2683.5	
235.31	4541.7	
235.52	4323.3	
235.73	2873.3	
235.94	2530.6	
236.15	4293.2	
236.37	5060.5	
236.58	2616.6	
236.79	2815.3	
237	4580.6	
237.21	4065.9	
237.43	3029.6	
237.64	2452.8	
237.85	6866.8	
238.06	4186	
238.27	2990	
238.48	2581.8	
238.7	4688.5	
238.91	4362.2	
239.12	2825.5	
239.33	2932.7	
239.54	4166.9	
239.76	4386.1	
239.97	2871.3	
240.18	2857.6	
240.39	5150	
240.6	4553.3	
240.82	2991.4	
241.03	2549	
241.24	4368.3	
241.45	4901.5	
241.66	2647.3	
241.87	3009.1	
242.09	4911	
242.3	5111	
242.51	3020.8	
242.72	2789.3	
242.93	4617.5	
243.14	4375.1	
243.36	3200.3	
243.57	3396.9	
243.78	4945.8	
243.99	4650.3	
244.2	2846.7	
244.41	2597.5	
244.63	4106.2	
244.84	4548.5	
245.05	3013.2	
245.26	2757.9	
245.47	4607.9	
245.68	4721.3	
245.9	3545.7	
246.11	2983.9	
246.32	4231.8	
246.53	4663.9	
246.74	4328.7	
246.95	2471.2	
247.16	4223.6	
247.38	4437.9	
247.59	2478.7	
247.8	2855.6	
248.01	4107.5	
248.22	4417.5	
248.43	2604.3	
248.64	2738.8	
248.86	4105.5	
249.07	4308.2	
249.28	2600.2	
249.49	2908.8	
249.7	4779.3	
249.91	4755.4	
250.12	2469.9	
250.34	2551.1	
250.55	4507.6	
250.76	4433.2	
250.97	2940.9	
251.18	2942.9	
251.39	4762.9	
251.6	4511	
251.81	2968.9	
252.03	2953.2	
252.24	4218.8	
252.45	4611.3	
252.66	2550.4	
252.87	3028.9	
253.08	4419.5	
253.29	5485.1	
253.5	2604.3	
253.72	3347.1	
253.93	4333.5	
254.14	5070.1	
254.35	2738.8	
254.56	2775.7	
254.77	4549.2	
254.98	4189.5	
255.19	2738.8	
255.41	3297.2	
255.62	4546.5	
255.83	4777.2	
256.04	3026.9	
256.25	2882.9	
256.46	5148.6	
256.67	4219.5	
256.88	2899.2	
257.09	3229	
257.31	4129.4	
257.52	4206.5	
257.73	3568.2	
257.94	2736.1	
258.15	4460.5	
258.36	4404.5	
258.57	3254.9	
258.78	2239.8	
258.99	4781.3	
259.2	4266.6	
259.41	2710.1	
259.63	2856.2	
259.84	4934.9	
260.05	5150	
260.26	3396.2	
260.47	2708.8	
260.68	4808.6	
260.89	4298.7	
261.1	3172.3	
261.31	2650.8	
261.52	4934.9	
261.73	5020.9	
261.95	3434.4	
262.16	2999.6	
262.37	4855.1	
262.58	4891.9	
262.79	3378.5	
263	2736.1	
263.21	4487.1	
263.42	4251.6	
263.63	2972.3	
263.84	2744.3	
264.05	4709	
264.26	4904.9	
264.47	3291.8	
264.69	3032.4	
264.9	4958.8	
265.11	4479.6	
265.32	2603.7	
265.53	2675.3	
265.74	4459.8	
265.95	4042.7	
266.16	2873.3	
266.37	3126.6	
266.58	4500.8	
266.79	4200.4	
267	2766.8	
267.21	2583.9	
267.42	4130.8	
267.63	4438.6	
267.84	2801.6	
268.06	2504	
268.27	4730.8	
268.48	4804.5	
268.69	2808.4	
268.9	3166.8	
269.11	4805.9	
269.32	4016.1	
269.53	2855.6	
269.74	2618.7	
269.95	4512.4	
270.16	4009.9	
270.37	2865.1	
270.58	3201.7	
270.79	4337.6	
271	4744.5	
271.21	2920.4	
271.42	2891	
271.63	4618.9	
271.84	4089.1	
272.05	2392	
272.26	2598.2	
272.47	4444.1	
272.68	4496.7	
272.89	2727.2	
273.11	3082.2	
273.32	4232.5	
273.53	4949.9	
273.74	3004.4	
273.95	2990.7	
274.16	4649.6	
274.37	4350.6	
274.58	3131.3	
274.79	2574.3	
275	4549.9	
275.21	4732.2	
275.42	3590.1	
275.63	3106.8	
275.84	4624.3	
276.05	5460.6	
276.26	2927.2	
276.47	2812.5	
276.68	4425	
276.89	5074.9	
277.1	3177.8	
277.31	2549	
277.52	4495.3	
277.73	4808.6	
277.94	2515.6	
278.15	2799.6	
278.36	4581.3	
278.57	4203.8	
278.78	2757.2	
278.99	3018	
279.2	4262.5	
279.41	4158.7	
279.62	3484.3	
279.83	2566.1	
280.04	5211.4	
280.25	4141.7	
280.46	3386.7	
280.67	2817.3	
280.88	4235.9	
281.09	4839.4	
281.3	2945	
281.51	3578.5	
281.72	4248.9	
281.93	4708.3	
282.14	2694.4	
282.35	2938.2	
282.56	4744.5	
282.77	4669.4	
282.98	2761.3	
283.19	3233.1	
283.4	5491.3	
283.61	4390.2	
283.82	2622.1	
284.03	3407.1	
284.24	4620.2	
284.45	4762.9	
284.66	3498.6	
284.87	3229	
285.08	4803.9	
285.29	4854.4	
285.5	2535.4	
285.71	2756.6	
285.92	4788.2	
286.12	5158.8	
286.33	3371	
286.54	2813.9	
286.75	4734.9	
286.96	4377.2	
287.17	2639.1	
287.38	3224.9	
287.59	4237.9	
287.8	4262.5	
288.01	2757.2	
288.22	3082.2	
288.43	4524	
288.64	3992.2	
288.85	3201	
289.06	3071.3	
289.27	4723.3	
289.48	4917.2	
289.69	3415.3	
289.9	3125.9	
290.11	4895.3	
290.32	4267.3	
290.53	3238.5	
290.74	2981.2	
290.94	4714.4	
291.15	4729.4	
291.36	2724.5	
291.57	3136.8	
291.78	4322.6	
291.99	4005.1	
292.2	2629.6	
292.41	2977.7	
292.62	4753.3	
292.83	4599.1	
293.04	3642.7	
293.25	2666.5	
293.46	4345.8	
293.67	4754.7	
293.88	2661	
294.09	2620	
294.29	4194.9	
294.5	4474.1	
294.71	2868.5	
294.92	2747	
295.13	4317.1	
295.34	5172.5	
295.55	2547	
295.76	2467.1	
295.97	4670.7	
296.18	5072.8	
296.39	2571.6	
296.6	2684.2	
296.81	4424.3	
297.01	4696	
297.22	2849.4	
297.43	2717.7	
297.64	4323.3	
297.85	4124.6	
298.06	2327.9	
298.27	2489	
298.48	4419.5	
298.69	4271.4	
298.9	2884.2	
299.11	2650.1	
299.31	4123.2	
299.52	4161.5	
299.73	3038.5	
299.94	3003	
300.15	4469.4	
300.36	4250.9	
300.57	2975	
300.78	2958.6	
300.99	4321.9	
301.2	4436.6	
301.4	2762.7	
301.61	2925.2	
301.82	4612.7	
302.03	4689.8	
302.24	3153.9	
302.45	2595.5	
302.66	4648.2	
302.87	4797.7	
303.08	2717	
303.29	3469.3	
303.49	4344.4	
303.7	4328	
303.91	2479.4	
304.12	3351.2	
304.33	4052.9	
304.54	4570.4	
304.75	2720.4	
304.96	2641.2	
305.16	4601.1	
305.37	4998.4	
305.58	2446.6	
305.79	2501.9	
306	4661.2	
306.21	4007.9	
306.42	2702.6	
306.63	3836.5	
306.83	4288.4	
307.04	4601.8	
307.25	2935.4	
307.46	2889.7	
307.67	3996.3	
307.88	4611.3	
308.09	2749.7	
308.29	2704	
308.5	4533.5	
308.71	4706.2	
308.92	2892.4	
309.13	2596.8	
309.34	4435.9	
309.55	4325.3	
309.75	3322.5	
309.96	2945.7	
310.17	4650.9	
310.38	4160.8	
310.59	3054.2	
310.8	2526.5	
311.01	5066.7	
311.21	4388.1	
311.42	2656.9	
311.63	2642.6	
311.84	4323.9	
312.05	4446.1	
312.26	2997.5	
312.46	3269.9	
312.67	4303.5	
312.88	4084.3	
313.09	2624.1	
313.3	2585.2	
313.51	4839.4	
313.71	5141.1	
313.92	2638.5	
314.13	2755.2	
314.34	4528.1	
314.55	4425.7	
314.76	3214.6	
314.96	2882.9	
315.17	4610	
315.38	4655	
315.59	2635.1	
315.8	2564.7	
316.01	4789.5	
316.21	4947.9	
316.42	2615.9	
316.63	2929.3	
316.84	4304.8	
317.05	4771.8	
317.26	3026.9	
317.46	2725.8	
317.67	4435.9	
317.88	4650.3	
318.09	3209.2	
318.3	2480.8	
318.5	4314.4	
318.71	4554.7	
318.92	3926	
319.13	3010.5	
319.34	4711.7	
319.54	4799.1	
319.75	2489.6	
319.96	2423.4	
320.17	4592.2	
320.38	4730.1	
320.58	2517.6	
320.79	2836.4	
321	4798.4	
321.21	4919.9	
321.42	2905.4	
321.62	2468.5	
321.83	4219.5	
322.04	4416.1	
322.25	2824.1	
322.46	2605	
322.66	4513	
322.87	4653.7	
323.08	3131.3	
323.29	2572.2	
323.5	5081	
323.7	4144.4	
323.91	3375.7	
324.12	3091.8	
324.33	4517.1	
324.53	4622.3	
324.74	2971.6	
324.95	3095.8	
325.16	4106.2	
325.37	4293.2	
325.57	2641.2	
325.78	2650.1	
325.99	4509.6	
326.2	4100.7	
326.4	3590.8	
326.61	2442.5	
326.82	4328.7	
327.03	4524	
327.24	3536.2	
327.44	3304.7	
327.65	4575.8	
327.86	3934.1	
328.07	2998.2	
328.27	2575.7	
328.48	4909.7	
328.69	4143.7	
328.9	3564.1	
329.1	2674	
329.31	4391.5	
329.52	4911	
329.73	2697.2	
329.93	2781.1	
330.14	4511	
330.35	4521.9	
330.56	3973.7	
330.76	3125.2	
330.97	4291.2	
331.18	4429.8	
331.39	2862.4	
331.59	2414.6	
331.8	4795.7	
332.01	4825	
332.22	2738.8	
332.42	2944.3	
332.63	4522.6	
332.84	4184.7	
333.05	2945	
333.25	2648	
333.46	4274.1	
333.67	4392.9	
333.88	2757.9	
334.08	2887.6	
334.29	5447.6	
334.5	4782.7	
334.7	2581.1	
334.91	3479.5	
335.12	4160.8	
335.33	4552	
335.53	2860.3	
335.74	3945.8	
335.95	4351.9	
336.16	4101.4	
336.36	2871.9	
336.57	3221.5	
336.78	4062.5	
336.98	4766.3	
337.19	3415.3	
337.4	2838.5	
337.61	5150	
337.81	4077.5	
338.02	2729.9	
338.23	3290.4	
338.43	4917.2	
338.64	4266.6	
338.85	2649.4	
339.05	3343	
339.26	4941.7	
339.47	4050.2	
339.68	2631.6	
339.88	3592.1	
340.09	4669.4	
340.3	4718.5	
340.5	3002.3	
340.71	2435.7	
340.92	4156.7	
341.13	4790.9	
341.33	2567.5	
341.54	3005.1	
341.75	4629.1	
341.95	4265.9	
342.16	2889.7	
342.37	3106.1	
342.57	4163.5	
342.78	4315.8	
342.99	3074	
343.19	2446	
343.4	4677.6	
343.61	4499.4	
343.81	2798.9	
344.02	2541.5	
344.23	4605.2	
344.43	4808.6	
344.64	3158.7	
344.85	3061.7	
345.06	4618.2	
345.26	4767.7	
345.47	2994.1	
345.68	3347.7	
345.88	4068.6	
346.09	4684.4	
346.3	3059.7	
346.5	2362.7	
346.71	4328	
346.92	4233.2	
347.12	2536.8	
347.33	2947.7	
347.54	4707.6	
347.74	4962.2	
347.95	2962.7	
348.16	2375	
348.36	4274.8	
348.57	4144.4	
348.78	3056.9	
348.98	3093.1	
349.19	4346.5	
349.39	4029.7	
349.6	2517.6	
349.81	2657.6	
350.01	4661.2	
350.22	4205.8	
350.43	2922.5	
350.63	3350.5	
350.84	4377.9	
351.05	4198.3	
351.25	2631.6	
351.46	2423.4	
351.67	4693.9	
351.87	4147.8	
352.08	2831	
352.29	3099.3	
352.49	4650.3	
352.7	4466.6	
352.9	2587.3	
353.11	3122.5	
353.32	5079	
353.52	4297.3	
353.73	2599.6	
353.94	3153.2	
354.14	4547.9	
354.35	4326	
354.55	2645.3	
354.76	2891.7	
354.97	4525.3	
355.17	4331.5	
355.38	2513.5	
355.59	3258.3	
355.79	4186	
356	4309.6	
356.2	2852.8	
356.41	2552.5	
356.62	4039.3	
356.82	4357.4	
357.03	3028.9	
357.24	2721.1	
357.44	4166.9	
357.65	4276.8	
357.85	3478.8	
358.06	2893.8	
358.27	4007.2	
358.47	4108.2	
358.68	2496.5	
358.88	3014.6	
359.09	4486.4	
359.3	4668.7	
359.5	3422.8	
359.71	3069.2	
359.91	4888.5	
360.12	4484.4	
360.33	3004.4	
360.53	3269.2	
360.74	4204.5	
360.94	4191.5	
361.15	3117.7	
361.36	2637.1	
361.56	4676.9	
361.77	4346.5	
361.97	3439.2	
362.18	2749.1	
362.38	4645.5	
362.59	4087.1	
362.8	2628.9	
363	2552.5	
363.21	4043.4	
363.41	4356.7	
363.62	2923.8	
363.83	3479.5	
364.03	4588.8	
364.24	4874.8	
364.44	3591.5	
364.65	3559.4	
364.85	4296.6	
365.06	4080.2	
365.27	2711.5	
365.47	2712.9	
365.68	4913.1	
365.88	4328.7	
366.09	2972.3	
366.29	2709.5	
366.5	4347.8	
366.71	4693.3	
366.91	3566.2	
367.12	3042.6	
367.32	5033.9	
367.53	4534.2	
367.73	3103.4	
367.94	3671.3	
368.14	4634.6	
368.35	4942.4	
368.56	3025.5	
368.76	2633	
368.97	4725.3	
369.17	5548.6	
369.38	2689.7	
369.58	2920.4	
369.79	4007.2	
369.99	4897.4	
370.2	3506.1	
370.4	2919	
370.61	4441.4	
370.82	5217.5	
371.02	2893.8	
371.23	2461	
371.43	4013.3	
371.64	4879.6	
371.84	2946.3	
372.05	3571.7	
372.25	5503.6	
372.46	4519.9	
372.66	2895.8	
372.87	2830.3	
373.07	4588.8	
373.28	5637.4	
373.48	3364.1	
373.69	3282.2	
373.9	4330.1	
374.1	4315.1	
374.31	3380.5	
374.51	3127.2	
374.72	4764.3	
374.92	4094.6	
375.13	3461.7	
375.33	3067.2	
375.54	4486.4	
375.74	4186.7	
375.95	3199.6	
376.15	3807.2	
376.36	4618.9	
376.56	4434.5	
376.77	3045.3	
376.97	3339.6	
377.18	5205.9	
377.38	4556.7	
377.59	3499.3	
377.79	2779.8	
378	4450.2	
378.2	4602.5	
378.41	2863.7	
378.61	2743.6	
378.82	4776.5	
379.02	4241.3	
379.23	2935.4	
379.43	3472	
379.64	4894.6	
379.84	4569.7	
380.05	2844.6	
380.25	2798.9	
380.46	4640.7	
380.66	4322.6	
380.87	3603.1	
381.07	3803.1	
381.28	5028.4	
381.48	4631.8	
381.69	2768.9	
381.89	2876	
382.1	3975.1	
382.3	4614.1	
382.51	3507.5	
382.71	4037.9	
382.91	4530.1	
383.12	4906.3	
383.32	3036.5	
383.53	3183.9	
383.73	4562.2	
383.94	4464.6	
384.14	3125.2	
384.35	2628.9	
384.55	4295.3	
384.76	4576.5	
384.96	3072.6	
385.17	3194.1	
385.37	4631.1	
385.58	4057	
385.78	3253.5	
385.98	2641.2	
386.19	4298.7	
386.39	4568.3	
386.6	2929.3	
386.8	3031.7	
387.01	4567.7	
387.21	4650.9	
387.42	3314.3	
387.62	3667.2	
387.83	4207.9	
388.03	4361.5	
388.23	3083.6	
388.44	3532.1	
388.64	4010.6	
388.85	4013.3	
389.05	3264.5	
389.26	3579.2	
389.46	5324	
389.67	4900.1	
389.87	3272	
390.07	3325.2	
390.28	4358.8	
390.48	4060.4	
390.69	2807.1	
390.89	2947	
391.1	4263.2	
391.3	4800.4	
391.5	3738.2	
391.71	3997	
391.91	4669.4	
392.12	5109.7	
392.32	3747.8	
392.53	3252.9	
392.73	4277.5	
392.93	4380.6	
393.14	3118.4	
393.34	3532.1	
393.55	4640.7	
393.75	4308.9	
393.95	3072.6	
394.16	3024.8	
394.36	4285	
394.57	4721.3	
394.77	2822.1	
394.98	2953.2	
395.18	4202.4	
395.38	4340.3	
395.59	3515.7	
395.79	2873.3	
396	4265.2	
396.2	4551.3	
396.4	3444.7	
396.61	3390.1	
396.81	4610	
397.02	4177.9	
397.22	3560.7	
397.42	3571	
397.63	4732.9	
397.83	4171	
398.04	2889	
398.24	3104.7	
398.44	4524	
398.65	3864.5	
398.85	2794.8	
399.05	2824.1	
399.26	4234.5	
399.46	5165	
399.67	3024.2	
399.87	2910.2	
400.07	4405.9	
400.28	4577.9	
400.48	2910.8	
400.69	3518.4	
400.89	4654.4	
401.09	5052.3	
401.3	2844.6	
401.5	3496.6	
401.7	5029.8	
401.91	5279	
402.11	3187.3	
402.32	3244	
402.52	4789.5	
402.72	4685.8	
402.93	3457	
403.13	2680.1	
403.33	5292.6	
403.54	4462.5	
403.74	3201.7	
403.94	3709.6	
404.15	4536.3	
404.35	5224.4	
404.56	3072	
404.76	4154.6	
404.96	4759.5	
405.17	4552	
405.37	3495.9	
405.57	3347.7	
405.78	4727.4	
405.98	4425	
406.18	3012.6	
406.39	3525.9	
406.59	4747.2	
406.79	4415.4	
407	2962.7	
407.2	2931.3	
407.4	5007.3	
407.61	4869.4	
407.81	2968.2	
408.01	4306.2	
408.22	4018.8	
408.42	5186.1	
408.62	3626.3	
408.83	3216	
409.03	4380.6	
409.23	4286.4	
409.44	3319.1	
409.64	3445.4	
409.84	4986.8	
410.05	4894.6	
410.25	3353.9	
410.45	3222.8	
410.66	4646.8	
410.86	6128.9	
411.06	3428.3	
411.27	3383.2	
411.47	5922.7	
411.67	4710.3	
411.88	3536.2	
412.08	3643.3	
412.28	5066.7	
412.49	5332.9	
412.69	3385.3	
412.89	3355.9	
413.09	5302.9	
413.3	5108.3	
413.5	3431	
413.7	3209.2	
413.91	4731.5	
414.11	5270.8	
414.31	3310.2	
414.52	3505.4	
414.72	5046.2	
414.92	4963.6	
415.12	3339.6	
415.33	3685.7	
415.53	5186.1	
415.73	5317.2	
415.94	3883.6	
416.14	3422.2	
416.34	4634.6	
416.55	4423.6	
416.75	4138.3	
416.95	3870	
417.15	5246.9	
417.36	5645.6	
417.56	4280.9	
417.76	3701.4	
417.97	5360.9	
418.17	5160.9	
418.37	3521.8	
418.57	3480.9	
418.78	5176.6	
418.98	4895.3	
419.18	4066.6	
419.38	4042.7	
419.59	4886.5	
419.79	4696	
419.99	3431	
420.2	3661.8	
420.4	5242.1	
420.6	5264.6	
420.8	3419.4	
421.01	3260.4	
421.21	5102.9	
421.41	5080.3	
421.61	3605.8	
421.82	3433.1	
422.02	4911.7	
422.22	5449.6	
422.42	3979.9	
422.63	3690.4	
422.83	4866	
423.03	5598.5	
423.23	3719.8	
423.44	3110.2	
423.64	4847.5	
423.84	4662.5	
424.04	3396.2	
424.25	3158	
424.45	5526.8	
424.65	5420.3	
424.85	3069.9	
425.06	3503.4	
425.26	5650.3	
425.46	4789.5	
425.66	3766.2	
425.87	3497.2	
426.07	5344.5	
426.27	5212.8	
426.47	3596.9	
426.67	3211.2	
426.88	5595.7	
427.08	5211.4	
427.28	3852.9	
427.48	3236.5	
427.69	4607.9	
427.89	4980.7	
428.09	3734.1	
428.29	3196.2	
428.5	5335.6	
428.7	5079.6	
428.9	3227.6	
429.1	3533.4	
429.3	5056.4	
429.51	5207.3	
429.71	3389.4	
429.91	3868.6	
430.11	5276.9	
430.31	5347.2	
430.52	3564.8	
430.72	3638.6	
430.92	5551.4	
431.12	5193	
431.32	3291.8	
431.53	3650.8	
431.73	4581.3	
431.93	5560.2	
432.13	3299.3	
432.33	3168.2	
432.54	4857.8	
432.74	4980.7	
432.94	3146.4	
433.14	3826.3	
433.34	5368.4	
433.55	4947.9	
433.75	3724.6	
433.95	4764.3	
434.15	5121.3	
434.35	4829.1	
434.56	3259.7	
434.76	2984.6	
434.96	5029.1	
435.16	5072.1	
435.36	3175.7	
435.56	3888.4	
435.77	4766.3	
435.97	4878.9	
436.17	4233.8	
436.37	3818.8	
436.57	4795.7	
436.78	4659.1	
436.98	3831.7	
437.18	4162.2	
437.38	5152.7	
437.58	4892.6	
437.78	4237.2	
437.99	3429	
438.19	5244.8	
438.39	5754.1	
438.59	3457	
438.79	3112.9	
438.99	5639.4	
439.2	4780.6	
439.4	3118.4	
439.6	3095.8	
439.8	4976.6	
440	5539.1	
440.2	3741.6	
440.4	3740.3	
440.61	5278.3	
440.81	5559.6	
441.01	3291.1	
441.21	3835.2	
441.41	5565.7	
441.61	5315.8	
441.81	4016.1	
442.02	4584	
442.22	5912.5	
442.42	5313.8	
442.62	3350.5	
442.82	3346.4	
443.02	5593	
443.22	5032.5	
443.43	3556	
443.63	3244.7	
443.83	4954.7	
444.03	4817.5	
444.23	3971	
444.43	3776.5	
444.63	5158.8	
444.83	5790.3	
445.04	3367.5	
445.24	4140.3	
445.44	5380.7	
445.64	5322.7	
445.84	3846.8	
446.04	3906.8	
446.24	4934.2	
446.44	5541.1	
446.65	3298.6	
446.85	3528	
447.05	5196.4	
447.25	5537	
447.45	3734.8	
447.65	3239.9	
447.85	5221.6	
448.05	4875.5	
448.25	3838.6	
448.46	3762.1	
448.66	5156.8	
448.86	4948.6	
449.06	3237.2	
449.26	3840.6	
449.46	5304.2	
449.66	4792.2	
449.86	3548.4	
450.06	3486.3	
450.26	4848.2	
450.47	5285.8	
450.67	3780.6	
450.87	3924.6	
451.07	5447.6	
451.27	5143.8	
451.47	3340.2	
451.67	3902.7	
451.87	4905.6	
452.07	5701.5	
452.27	3431.7	
452.47	3422.8	
452.67	5159.5	
452.88	5389.6	
453.08	3110.9	
453.28	4224.3	
453.48	5963.7	
453.68	5056.4	
453.88	3418.7	
454.08	3524.6	
454.28	5390.3	
454.48	5125.4	
454.68	3843.4	
454.88	4076.1	
455.08	5454.4	
455.28	5214.8	
455.48	3353.9	
455.68	3759.4	
455.89	5727.5	
456.09	5444.9	
456.29	3502.7	
456.49	3584.6	
456.69	5616.9	
456.89	5091.3	
457.09	3829	
457.29	4044.7	
457.49	5340.4	
457.69	5383.4	
457.89	3756.7	
458.09	3303.4	
458.29	5158.8	
458.49	5644.2	
458.69	3920.5	
458.89	3564.8	
459.09	5674.9	
459.29	5801.2	
459.49	3674.1	
459.69	4094.6	
459.9	5496.7	
460.1	5087.8	
460.3	3650.2	
460.5	3401.7	
460.7	5437.4	
460.9	5113.8	
461.1	3227.6	
461.3	3961.5	
461.5	5868.8	
461.7	5567.1	
461.9	3423.5	
462.1	3708.9	
462.3	5283.8	
462.5	5544.5	
462.7	3424.2	
462.9	3515	
463.1	6250.4	
463.3	5926.1	
463.5	3730.7	
463.7	4214	
463.9	5401.2	
464.1	5567.1	
464.3	3711.6	
464.5	3877.5	
464.7	5759.6	
464.9	5412.8	
465.1	4654.4	
465.3	4115.7	
465.5	5906.3	
465.7	5924.8	
465.9	4211.3	
466.1	4082.3	
466.3	5736.4	
466.5	5750.7	
466.7	4638.6	
466.9	3988.1	
467.1	5782.8	
467.3	6143.9	
467.5	4642.1	
467.7	3961.5	
467.9	6410.8	
468.1	6787.7	
468.3	4349.9	
468.5	4558.1	
468.7	5618.9	
468.9	5535.7	
469.1	4114.4	
469.3	4417.5	
469.5	6832	
469.7	5351.3	
469.9	4488.5	
470.1	3913	
470.3	5744.6	
470.5	5681.7	
470.7	4662.5	
470.9	4035.2	
471.1	5517.2	
471.3	5799.8	
471.5	3911.6	
471.69	4978.6	
471.89	5562.3	
472.09	5102.9	
472.29	4334.9	
472.49	4553.3	
472.69	5250.3	
472.89	5724.1	
473.09	3859.7	
473.29	4052.2	
473.49	5448.3	
473.69	5411.4	
473.89	4442	
474.09	4032.5	
474.29	6267.5	
474.49	6050.4	
474.69	4463.9	
474.89	4077.5	
475.09	5530.9	
475.29	5440.8	
475.49	3756.7	
475.69	3908.2	
475.88	6493.4	
476.08	5715.2	
476.28	3718.4	
476.48	3978.5	
476.68	6079.7	
476.88	5801.2	
477.08	3928.7	
477.28	4071.4	
477.48	5668.1	
477.68	5856.5	
477.88	3789.4	
478.08	3980.6	
478.28	6156.9	
478.48	5623	
478.67	4012.7	
478.87	3676.1	
479.07	5917.3	
479.27	5689.9	
479.47	4143	
479.67	4175.8	
479.87	5956.2	
480.07	6184.9	
480.27	3742.3	
480.47	4605.9	
480.67	5709.1	
480.87	6079.7	
481.06	3893.9	
481.26	4398.4	
481.46	5676.3	
481.66	5569.1	
481.86	4218.8	
482.06	4674.8	
482.26	5565.7	
482.46	6023.8	
482.66	4045.4	
482.86	3892.5	
483.05	5845.6	
483.25	5330.2	
483.45	5670.1	
483.65	4090.5	
483.85	5298.1	
484.05	5589.6	
484.25	4354.7	
484.45	4541.7	
484.65	6090.7	
484.84	6043.6	
485.04	4050.9	
485.24	4063.9	
485.44	6411.5	
485.64	5273.5	
485.84	3597.6	
486.04	4403.8	
486.24	5503.6	
486.44	5687.2	
486.63	3606.5	
486.83	4138.9	
487.03	5466	
487.23	5531.6	
487.43	3710.2	
487.63	4950.6	
487.83	5579.3	
488.02	5965.1	
488.22	4214.7	
488.42	4501.4	
488.62	6102.9	
488.82	5375.2	
489.02	4028.4	
489.22	3976.5	
489.41	5952.1	
489.61	5789.6	
489.81	3867.2	
490.01	3887	
490.21	5999.2	
490.41	6423.8	
490.61	3873.4	
490.8	3902.1	
491	5648.3	
491.2	5353.4	
491.4	4317.8	
491.6	3752.6	
491.8	5770.5	
491.99	5770.5	
492.19	3671.3	
492.39	3833.8	
492.59	5902.2	
492.79	6047.7	
492.99	4304.1	
493.18	3833.8	
493.38	6164.4	
493.58	6457.2	
493.78	4197.7	
493.98	3939.6	
494.18	5922	
494.37	5492	
494.57	4323.9	
494.77	4173.1	
494.97	5926.8	
495.17	6057.9	
495.37	3993.5	
495.56	4277.5	
495.76	6139.1	
495.96	5997.1	
496.16	4830.5	
496.36	4113	
496.55	6154.1	
496.75	5732.9	
496.95	4297.3	
497.15	4281.6	
497.35	6126.8	
497.54	5999.2	
497.74	4147.1	
497.94	5238.7	
498.14	6429.3	
498.34	6255.2	
498.53	3945.8	
498.73	4398.4	
498.93	5616.2	
499.13	6002.6	
499.33	4272.7	
499.52	4539	
499.72	6123.4	
499.92	6104.3	
500.12	4065.9	
500.32	4252.3	
500.51	6173.9	
500.71	5954.8	
500.91	4743.8	
501.11	4490.5	
501.31	6068.1	
501.5	6362.4	
501.7	4894	
501.9	4361.5	
502.1	5939.8	
502.29	6247	
502.49	4495.3	
502.69	4881	
502.89	6167.8	
503.09	6141.2	
503.28	4018.1	
503.48	4108.2	
503.68	5780.7	
503.88	5676.3	
504.07	4647.5	
504.27	4386.1	
504.47	5978	
504.67	6060.6	
504.86	4630.5	
505.06	4457.7	
505.26	5889.3	
505.46	6779.5	
505.65	4340.3	
505.85	4530.1	
506.05	5808	
506.25	6068.1	
506.44	3987.4	
506.64	4599.7	
506.84	5702.9	
507.04	6100.9	
507.23	4172.4	
507.43	4431.1	
507.63	6805.4	
507.83	5741.8	
508.02	4493.9	
508.22	4250.2	
508.42	7017.7	
508.62	5634	
508.81	4391.5	
509.01	4690.5	
509.21	5642.2	
509.4	5879	
509.6	4533.5	
509.8	4172.4	
510	5820.3	
510.19	6500.9	
510.39	4086.4	
510.59	4169	
510.79	5657.2	
510.98	6454.5	
511.18	4274.8	
511.38	4268	
511.57	6304.3	
511.77	5920	
511.97	4639.3	
512.17	4127.3	
512.36	6203.3	
512.56	6038.1	
512.76	4085.7	
512.95	3945.1	
513.15	6326.2	
513.35	5307.7	
513.55	4590.2	
513.74	4104.1	
513.94	6240.2	
514.14	5782.1	
514.33	4737	
514.53	4458.4	
514.73	5911.8	
514.92	5884.5	
515.12	4116.4	
515.32	4005.8	
515.51	6003.3	
515.71	6156.9	
515.91	5157.5	
516.11	4082.3	
516.3	6916.7	
516.5	5764.3	
516.7	4513.7	
516.89	4761.5	
517.09	5829.2	
517.29	5827.8	
517.48	4776.5	
517.68	4307.6	
517.88	5541.8	
518.07	5984.2	
518.27	4674.1	
518.47	4004.5	
518.66	6375.3	
518.86	5577.3	
519.06	3917.1	
519.25	4221.5	
519.45	5741.1	
519.65	6535.8	
519.84	4617.5	
520.04	4890.5	
520.24	6904.4	
520.43	6119.3	
520.63	4455.7	
520.83	4294.6	
521.02	5713.8	
521.22	6136.4	
521.42	4597.7	
521.61	4870.8	
521.81	5827.2	
522.01	5987.6	
522.2	4504.8	
522.4	4310.3	
522.6	6184.9	
522.79	5436.7	
522.99	4376.5	
523.18	3936.9	
523.38	6053.1	
523.58	5980.1	
523.77	5019.6	
523.97	3954.6	
524.17	7048.4	
524.36	6597.2	
524.56	4764.3	
524.76	4555.4	
524.95	5952.1	
525.15	5721.3	
525.34	4444.8	
525.54	4448.9	
525.74	6193.1	
525.93	5534.3	
526.13	5055.1	
526.33	4341	
526.52	6421.1	
526.72	5971.2	
526.91	5085.8	
527.11	4653.7	
527.31	6300.2	
527.5	6531	
527.7	4532.2	
527.89	3988.1	
528.09	5797.1	
528.29	5984.2	
528.48	4815.5	
528.68	4552.6	
528.87	6300.9	
529.07	6264.1	
529.27	4565.6	
529.46	4257	
529.66	6153.5	
529.85	6308.4	
530.05	4207.2	
530.25	4642.1	
530.44	6907.1	
530.64	6009.4	
530.83	4494.6	
531.03	4543.1	
531.23	6397.2	
531.42	6147.3	
531.62	4985.4	
531.81	4552	
532.01	6431.3	
532.21	6520	
532.4	4405.9	
532.6	4580.6	
532.79	6893.5	
532.99	6350.8	
533.18	4569.7	
533.38	5119.9	
533.58	6106.4	
533.77	6498.9	
533.97	4610.7	
534.16	4943.8	
534.36	6671.6	
534.55	6016.9	
534.75	5146.5	
534.95	4517.8	
535.14	6629.3	
535.34	6004	
535.53	4385.4	
535.73	5487.9	
535.92	6948.8	
536.12	6110.5	
536.31	4414.1	
536.51	5200.5	
536.71	6485.9	
536.9	6081.1	
537.1	4533.5	
537.29	4585.4	
537.49	6651.8	
537.68	6014.9	
537.88	4954.7	
538.07	4329.4	
538.27	6277.7	
538.46	6823.1	
538.66	4325.3	
538.86	4545.8	
539.05	6281.8	
539.25	6513.2	
539.44	4789.5	
539.64	4528.7	
539.83	6147.3	
540.03	6737.8	
540.22	4478.2	
540.42	4572.4	
540.61	6358.9	
540.81	6397.9	
541	4805.9	
541.2	5215.5	
541.39	5943.2	
541.59	6176.7	
541.78	5039.4	
541.98	4476.9	
542.18	5889.3	
542.37	5833.3	
542.57	4715.1	
542.76	4962.2	
542.96	5984.2	
543.15	6264.1	
543.35	4784.1	
543.54	4422.2	
543.74	6292.7	
543.93	6186.9	
544.13	4709	
544.32	5375.2	
544.52	6432	
544.71	5995.8	
544.91	4250.9	
545.1	4861.9	
545.3	6014.2	
545.49	6375.3	
545.69	4170.3	
545.88	4596.3	
546.08	7023.9	
546.27	6662.7	
546.47	4846.2	
546.66	4441.4	
546.86	6564.4	
547.05	6785.6	
547.24	4523.3	
547.44	4467.3	
547.63	5937.7	
547.83	6508.4	
548.02	4663.9	
548.22	4718.5	
548.41	5771.2	
548.61	6528.9	
548.8	4404.5	
549	4476.9	
549.19	6303.6	
549.39	6403.3	
549.58	4283.7	
549.78	4610	
549.97	6392.4	
550.17	6075	
550.36	5115.8	
550.55	5715.9	
550.75	6084.5	
550.94	6632	
551.14	4375.1	
551.33	4637.3	
551.53	5628.5	
551.72	6324.1	
551.92	4615.4	
552.11	4519.9	
552.31	6490	
552.5	6322.1	
552.69	5567.1	
552.89	4284.4	
553.08	6354.8	
553.28	6113.9	
553.47	4552	
553.67	5135.6	
553.86	6642.2	
554.06	5643.5	
554.25	4064.5	
554.44	4292.5	
554.64	7152.9	
554.83	6861.4	
555.03	4348.5	
555.22	4641.4	
555.42	6515.3	
555.61	6290	
555.8	4533.5	
556	4707.6	
556.19	5803.3	
556.39	6516.6	
556.58	4468	
556.78	4483.7	
556.97	6272.9	
557.16	6033.3	
557.36	5234.6	
557.55	4320.5	
557.75	5656.5	
557.94	6789	
558.13	4387.4	
558.33	4229.1	
558.52	6616.3	
558.72	5739.8	
558.91	4330.8	
559.1	4392.9	
559.3	5732.9	
559.49	5649.7	
559.69	4192.2	
559.88	4617.5	
560.07	6124.1	
560.27	6421.7	
560.46	4780	
560.66	4853.7	
560.85	6051.1	
561.04	5545.9	
561.24	4240	
561.43	4396.3	
561.63	5701.5	
561.82	5916.6	
562.01	5124.7	
562.21	4530.1	
562.4	6164.4	
562.59	6667.5	
562.79	4485.7	
562.98	4281.6	
563.18	6124.1	
563.37	6916.7	
563.56	4775.2	
563.76	4250.2	
563.95	5856.5	
564.14	5782.8	
564.34	4524.6	
564.53	4284.4	
564.73	6194.4	
564.92	6251.8	
565.11	4605.9	
565.31	4202.4	
565.5	6535.8	
565.69	5717.9	
565.89	4453	
566.08	4556.7	
566.27	6323.4	
566.47	6597.9	
566.66	4978.6	
566.85	4108.2	
567.05	6292.7	
567.24	5864	
567.44	4291.2	
567.63	5105.6	
567.82	6261.3	
568.02	5996.5	
568.21	4259.1	
568.4	4458.4	
568.6	6038.8	
568.79	5941.8	
568.98	4332.8	
569.18	4236.6	
569.37	5952.8	
569.56	7159	
569.76	4537.6	
569.95	5016.8	
570.14	6306.4	
570.34	6142.5	
570.53	4225	
570.72	4186	
570.91	6546	
571.11	6113.9	
571.3	4545.1	
571.49	5083.1	
571.69	6099.5	
571.88	5728.9	
572.07	4823	
572.27	4833.9	
572.46	5692.7	
572.65	6300.2	
572.85	4347.8	
573.04	4500.1	
573.23	6567.8	
573.43	6120.7	
573.62	4218.8	
573.81	4526	
574	6150.7	
574.2	5935	
574.39	4369	
574.58	4449.6	
574.78	6533.7	
574.97	6120	
575.16	4734.2	
575.36	4773.8	
575.55	6449.1	
575.74	6429.9	
575.93	4119.8	
576.13	4810.7	
576.32	5995.8	
576.51	6302.3	
576.71	4506.9	
576.9	5253	
577.09	6597.9	
577.28	6261.3	
577.48	4730.8	
577.67	4187.4	
577.86	6126.8	
578.05	6225.1	
578.25	4536.3	
578.44	4616.1	
578.63	6150.7	
578.83	6750.1	
579.02	4192.2	
579.21	5065.3	
579.4	6181.5	
579.6	5958.9	
579.79	4698	
579.98	5924.8	
580.17	6369.9	
580.37	6464.8	
580.56	4257.7	
580.75	4709	
580.94	6618.4	
581.14	6664.8	
581.33	4998.4	
581.52	4356	
581.71	6321.4	
581.91	6782.2	
582.1	4244.1	
582.29	4567.7	
582.48	6094.1	
582.68	6081.1	
582.87	4779.3	
583.06	4696	
583.25	6331	
583.45	5911.8	
583.64	5020.9	
583.83	5380.7	
584.02	6085.9	
584.21	6356.2	
584.41	5016.8	
584.6	4605.9	
584.79	6097.5	
584.98	6479.1	
585.18	4260.5	
585.37	4267.3	
585.56	5960.3	
585.75	6271.6	
585.94	4409.3	
586.14	4766.3	
586.33	6720.8	
586.52	6075.6	
586.71	4740.4	
586.91	4550.6	
587.1	5783.5	
587.29	6389.7	
587.48	4500.8	
587.67	4446.1	
587.87	6422.4	
588.06	6219	
588.25	5304.2	
588.44	4855.1	
588.63	6124.1	
588.83	6425.8	
589.02	4578.6	
589.21	4458.4	
589.4	6195.1	
589.59	5983.5	
589.78	4078.9	
589.98	4229.1	
590.17	5744.6	
590.36	5949.3	
590.55	3874.1	
590.74	4389.5	
590.94	6826.6	
591.13	5962.3	
591.32	4273.4	
591.51	3959.4	
591.7	6178	
591.89	5965.7	
592.09	4035.9	
592.28	4333.5	
592.47	5443.5	
592.66	6702.3	
592.85	4072.7	
593.05	4182.6	
593.24	5885.9	
593.43	6472.9	
593.62	4176.5	
593.81	4502.1	
594	5963.7	
594.19	6045.6	
594.39	4136.9	
594.58	4104.8	
594.77	6138.4	
594.96	6380.1	
595.15	4169.7	
595.34	4441.4	
595.54	6014.9	
595.73	5538.4	
595.92	3801.7	
596.11	4420.9	
596.3	6343.9	
596.49	5689.9	
596.68	4299.4	
596.88	4500.1	
597.07	6124.1	
597.26	5540.4	
597.45	4027.7	
597.64	4702.1	
597.83	5722	
598.02	6059.3	
598.22	4061.1	
598.41	4431.8	
598.6	5986.9	
598.79	5593.7	
598.98	4117.1	
599.17	4657.8	
599.36	5996.5	
599.55	6522.1	
599.74	5227.8	
599.94	5123.3	
600.13	6355.5	
600.32	5542.5	
600.51	3868.6	
600.7	4048.2	
600.89	6690.7	
601.08	6728.9	
601.27	3845.4	
601.47	4348.5	
601.66	6203.3	
601.85	6649.1	
602.04	4329.4	
602.23	4419.5	
602.42	5715.2	
602.61	6017.6	
602.8	4274.1	
602.99	4060.4	
603.18	5922	
603.37	6001.9	
603.57	4490.5	
603.76	4839.4	
603.95	6478.4	
604.14	6098.9	
604.33	4216.8	
604.52	4360.8	
604.71	6040.8	
604.9	5729.5	
605.09	4759.5	
605.28	4517.8	
605.47	6396.5	
605.66	6035.4	
605.86	4530.1	
606.05	4189.5	
606.24	6393.8	
606.43	5384.8	
606.62	4405.2	
606.81	4777.2	
607	6242.2	
607.19	5816.2	
607.38	4025.6	
607.57	4130.1	
607.76	5671.5	
607.95	5351.3	
608.14	4425.7	
608.33	4721.9	
608.52	5631.9	
608.72	6205.3	
608.91	3975.1	
609.1	3818.8	
609.29	5836.7	
609.48	5465.3	
609.67	4472.8	
609.86	4029	
610.05	5537.7	
610.24	5711.8	
610.43	3884.3	
610.62	3663.8	
610.81	6427.9	
611	6332.3	
611.19	3992.2	
611.38	4418.2	
611.57	5928.9	
611.76	6578.8	
611.95	3875.4	
612.14	3790.8	
612.33	5809.4	
612.52	5522.7	
612.71	4157.4	
612.9	3738.2	
613.09	5246.2	
613.28	6702.3	
613.47	4080.9	
613.66	4597.7	
613.85	5883.8	
614.04	5518.6	
614.24	4144.4	
614.43	3616	
614.62	5991	
614.81	5947.3	
615	4383.3	
615.19	4356.7	
615.38	5505.6	
615.57	5747.3	
615.76	4364.9	
615.95	4909	
616.14	5988.9	
616.33	5811.5	
616.52	4533.5	
616.71	4588.1	
616.9	5945.3	
617.09	5796.4	
617.28	4169	
617.47	4759.5	
617.66	5468.1	
617.85	5421	
618.04	4596.3	
618.22	4278.2	
618.41	5614.2	
618.6	6183.5	
618.79	4294.6	
618.98	4068.6	
619.17	6303	
619.36	5216.9	
619.55	4207.9	
619.74	4209.9	
619.93	5878.4	
620.12	5503.6	
620.31	4493.2	
620.5	4629.1	
620.69	6195.1	
620.88	6442.9	
621.07	5053.7	
621.26	4425.7	
621.45	6040.8	
621.64	5916.6	
621.83	4519.2	
622.02	4001	
622.21	6040.1	
622.4	5913.9	
622.59	4844.8	
622.78	4682.3	
622.97	5606.7	
623.16	6222.4	
623.35	4569	
623.54	3902.1	
623.72	5810.1	
623.91	5833.3	
624.1	4613.4	
624.29	3872.7	
624.48	6490.7	
624.67	6096.8	
624.86	4562.9	
625.05	4018.1	
625.24	6606.7	
625.43	5643.5	
625.62	5501.5	
625.81	4159.4	
626	6170.5	
626.19	5788.9	
626.38	4547.2	
626.56	4250.9	
626.75	5673.6	
626.94	6110.5	
627.13	4602.5	
627.32	3863.2	
627.51	6154.8	
627.7	6660	
627.89	3998.3	
628.08	4650.9	
628.27	5565	
628.46	5771.9	
628.65	4104.8	
628.83	3912.3	
629.02	6085.9	
629.21	5535.7	
629.4	4418.8	
629.59	4500.1	
629.78	5554.8	
629.97	6206.7	
630.16	4481.6	
630.35	4183.3	
630.54	6555.5	
630.72	6365.1	
630.91	4243.4	
631.1	4488.5	
631.29	5926.8	
631.48	5868.1	
631.67	4688.5	
631.86	4248.9	
632.05	5780.7	
632.24	5829.9	
632.42	4061.1	
632.61	4444.1	
632.8	5779.4	
632.99	5508.4	
633.18	4426.3	
633.37	4617.5	
633.56	5996.5	
633.75	5899.5	
633.93	4495.3	
634.12	4237.9	
634.31	6503	
634.5	6171.2	
634.69	4270.7	
634.88	4629.8	
635.07	5833.3	
635.25	6208.1	
635.44	4782.7	
635.63	4932.9	
635.82	5700.2	
636.01	5153.4	
636.2	4788.8	
636.39	4526	
636.57	6492.1	
636.76	6088.6	
636.95	4150.6	
637.14	5000.5	
637.33	6000.5	
637.52	6491.4	
637.7	4031.1	
637.89	4663.9	
638.08	5821.7	
638.27	6634.7	
638.46	4681.7	
638.65	4853	
638.83	6681.8	
639.02	5644.9	
639.21	4723.3	
639.4	4848.9	
639.59	5962.3	
639.78	5716.6	
639.96	4175.8	
640.15	4207.2	
640.34	5911.1	
640.53	5898.1	
640.72	4032.5	
640.91	4190.8	
641.09	5535.7	
641.28	6321.4	
641.47	4263.9	
641.66	4723.3	
641.85	5965.1	
642.03	6040.8	
642.22	4571.7	
642.41	4275.5	
642.6	5623	
642.79	5231.9	
642.97	4211.3	
643.16	4491.9	
643.35	5595.7	
643.54	5476.3	
643.73	4093.2	
643.91	4623.6	
644.1	5438	
644.29	5743.9	
644.48	4119.1	
644.67	4194.2	
644.85	5388.2	
645.04	5779.4	
645.23	3990.8	
645.42	4187.4	
645.6	5449.6	
645.79	6178	
645.98	4115.1	
646.17	3540.9	
646.36	5359.5	
646.54	5644.2	
646.73	4590.2	
646.92	3958	
647.11	5467.4	
647.29	6079.7	
647.48	3958.7	
647.67	3807.9	
647.86	6262	
648.05	6102.3	
648.23	4127.3	
648.42	4948.6	
648.61	5858.6	
648.8	5653.1	
648.98	4005.8	
649.17	4099.4	
649.36	5409.4	
649.55	5137.7	
649.73	3958.7	
649.92	4379.9	
650.11	5385.5	
650.3	5559.6	
650.48	4049.5	
650.67	3882.9	
650.86	5762.3	
651.05	5105.6	
651.23	3999.7	
651.42	3992.2	
651.61	5460.6	
651.79	5375.9	
651.98	4163.5	
652.17	3783.3	
652.36	5689.9	
652.54	5123.3	
652.73	3921.2	
652.92	3851.5	
653.11	5716.6	
653.29	5751.4	
653.48	3509.5	
653.67	4115.1	
653.85	5480.4	
654.04	6186.2	
654.23	4200.4	
654.42	3982.6	
654.6	5354.8	
654.79	5713.2	
654.98	3689.8	
655.16	4031.8	
655.35	5164.3	
655.54	4866.7	
655.73	3788.7	
655.91	3622.9	
656.1	5600.5	
656.29	4919.2	
656.47	3395.5	
656.66	4404.5	
656.85	5229.1	
657.03	5155.4	
657.22	3791.5	
657.41	3766.9	
657.59	5265.3	
657.78	5087.8	
657.97	3530.7	
658.16	4012	
658.34	5651.7	
658.53	5927.5	
658.72	4579.9	
658.9	4823	
659.09	5433.3	
659.28	5393.7	
659.46	3835.8	
659.65	3704.1	
659.84	5165	
660.02	5584.1	
660.21	3821.5	
660.4	3691.8	
660.58	5709.1	
660.77	5276.3	
660.96	4052.2	
661.14	3483.6	
661.33	6051.7	
661.52	6015.6	
661.7	3464.5	
661.89	5461.9	
662.08	5119.2	
662.26	4796.3	
662.45	3639.9	
662.64	3784.6	
662.82	5623.7	
663.01	5066.7	
663.2	3713.6	
663.38	4190.8	
663.57	5498.1	
663.75	5348.6	
663.94	3904.1	
664.13	4693.9	
664.31	5132.9	
664.5	5545.9	
664.69	4148.5	
664.87	4423.6	
665.06	4965	
665.25	5348.6	
665.43	4523.3	
665.62	4586.1	
665.8	5522	
665.99	5224.4	
666.18	3947.8	
666.36	3936.9	
666.55	5618.9	
666.74	5459.2	
666.92	3783.3	
667.11	4711	
667.29	5294.7	
667.48	5557.5	
667.67	4404.5	
667.85	3803.1	
668.04	5227.1	
668.22	5148.6	
668.41	4047.5	
668.6	4179.2	
668.78	5070.8	
668.97	5255.1	
669.15	4265.9	
669.34	3525.9	
669.53	5094	
669.71	5330.2	
669.9	3677.5	
670.08	4005.8	
670.27	5038.7	
670.46	5490.6	
670.64	4204.5	
670.83	4315.1	
671.01	4967	
671.2	5383.4	
671.38	3756.7	
671.57	3752.6	
671.76	5824.4	
671.94	6059.3	
672.13	3701.4	
672.31	4308.9	
672.5	5554.8	
672.69	5132.9	
672.87	3714.3	
673.06	3935.5	
673.24	5507	
673.43	5174.5	
673.61	4123.9	
673.8	3861.1	
673.98	5472.9	
674.17	5592.3	
674.36	4287.1	
674.54	4129.4	
674.73	5280.3	
674.91	5582.1	
675.1	3922.5	
675.28	3689.1	
675.47	5274.9	
675.65	5606.7	
675.84	3933.5	
676.03	4098	
676.21	5158.8	
676.4	4846.2	
676.58	4414.1	
676.77	4248.2	
676.95	6123.4	
677.14	5115.8	
677.32	3671.3	
677.51	3616.7	
677.69	5558.2	
677.88	4954	
678.06	3615.3	
678.25	3788.1	
678.44	5270.1	
678.62	5018.2	
678.81	3596.2	
678.99	4115.7	
679.18	5699.5	
679.36	5415.5	
679.55	3864.5	
679.73	4265.9	
679.92	5458.5	
680.1	5158.8	
680.29	4558.1	
680.47	3889.8	
680.66	5113.1	
680.84	5555.5	
681.03	3505.4	
681.21	4199	
681.4	5111	
681.58	5061.9	
681.77	3752.6	
681.95	3776.5	
682.14	5595.7	
682.32	5833.3	
682.51	4262.5	
682.69	3522.5	
682.88	5064.6	
683.06	5383.4	
683.25	4118.5	
683.43	4336.2	
683.62	5342.5	
683.8	5541.1	
683.99	4454.3	
684.17	4061.1	
684.36	5993	
684.54	5232.6	
684.73	3606.5	
684.91	3667.2	
685.1	5453.7	
685.28	5010.7	
685.46	4042	
685.65	4104.1	
685.83	5553.4	
686.02	5158.2	
686.2	3751.2	
686.39	3778.5	
686.57	4973.2	
686.76	5842.2	
686.94	3712.3	
687.13	3794.9	
687.31	5383.4	
687.5	5295.4	
687.68	3450.8	
687.86	4169	
688.05	6242.2	
688.23	4826.4	
688.42	4244.1	
688.6	3720.5	
688.79	5008.6	
688.97	5073.5	
689.16	4006.5	
689.34	3407.1	
689.52	5450.3	
689.71	5682.4	
689.89	4164.9	
690.08	3704.8	
690.26	5307.7	
690.45	5128.1	
690.63	4258.4	
690.81	3866.6	
691	5287.2	
691.18	5027.8	
691.37	3947.1	
691.55	5216.2	
691.74	5000.5	
691.92	6300.9	
692.1	3932.8	
692.29	3579.8	
692.47	5332.2	
692.66	4827.7	
692.84	3737.5	
693.02	3961.5	
693.21	4773.1	
693.39	5159.5	
693.58	4043.4	
693.76	3736.2	
693.94	5826.5	
694.13	5717.9	
694.31	3741	
694.5	4322.6	
694.68	5010.7	
694.86	5275.6	
695.05	3904.1	
695.23	4201.7	
695.42	5396.4	
695.6	6792.4	
695.78	4284.4	
695.97	3769.6	
696.15	5572.5	
696.34	5133.6	
696.52	3653.6	
696.7	4157.4	
696.89	5319.9	
697.07	5002.5	
697.25	4087.7	
697.44	4948.6	
697.62	5364.3	
697.81	5433.3	
697.99	3898.6	
698.17	4142.4	
698.36	5038	
698.54	5399.1	
698.72	4119.8	
698.91	3513.6	
699.09	5098.8	
699.28	4949.3	
699.46	3863.8	
699.64	3766.9	
699.83	5039.4	
700.01	5624.4	
700.19	4330.1	
700.38	3319.1	
700.56	5592.3	
700.74	4990.2	
700.93	3543.7	
701.11	4050.9	
701.29	5333.6	
701.48	5972.6	
701.66	3660.4	
701.84	3764.8	
702.03	5161.6	
702.21	5507.7	
702.39	3462.4	
702.58	3812	
702.76	5363.6	
702.94	5366.4	
703.13	3495.9	
703.31	4915.8	
703.49	5003.9	
703.68	5494	
703.86	3594.2	
704.04	4179.9	
704.23	5283.8	
704.41	5497.4	
704.59	3744.4	
704.78	4408.6	
704.96	6196.5	
705.14	5413.5	
705.33	3622.9	
705.51	4029	
705.69	5017.5	
705.87	5585.5	
706.06	4151.2	
706.24	3476.1	
706.42	5406	
706.61	5384.1	
706.79	4222.2	
706.97	3452.9	
707.16	5028.4	
707.34	5336.3	
707.52	4148.5	
707.7	3699.3	
707.89	5017.5	
708.07	4802.5	
708.25	4186	
708.44	4221.5	
708.62	4941.1	
708.8	5641.5	
708.98	4351.9	
709.17	3700	
709.35	5165.7	
709.53	5319.3	
709.72	3463.8	
709.9	3652.9	
710.08	5532.2	
710.26	5503.6	
710.45	4537.6	
710.63	3751.2	
710.81	5178.6	
710.99	5221.6	
711.18	4145.1	
711.36	3755.3	
711.54	5004.6	
711.72	5618.9	
711.91	3878.9	
712.09	3554.6	
712.27	5270.8	
712.45	5478.3	
712.64	4059.8	
712.82	3420.8	
713	4930.1	
713.18	5005.2	
713.37	3416.7	
713.55	4262.5	
713.73	5553.4	
713.91	4776.5	
714.1	3721.8	
714.28	3491.8	
714.46	5339.7	
714.64	4835.9	
714.83	3193.5	
715.01	3639.2	
715.19	5006.6	
715.37	4520.5	
715.55	3415.3	
715.74	3641.3	
715.92	5449.6	
716.1	4251.6	
716.28	4357.4	
716.47	3700	
716.65	4811.4	
716.83	4761.5	
717.01	3624.2	
717.19	3644.7	
717.38	6012.8	
717.56	4575.8	
717.74	3776.5	
717.92	3281.5	
718.1	5350.7	
718.29	4818.2	
718.47	2996.2	
718.65	3349.8	
718.83	5306.3	
719.01	5124	
719.2	2902.7	
719.38	3599.6	
719.56	4956.8	
719.74	5838.8	
719.92	3383.2	
720.11	3972.4	
720.29	5087.2	
720.47	4524.6	
720.65	3099.9	
720.83	3629	
721.02	4810	
721.2	4610	
721.38	3648.1	
721.56	3198.2	
721.74	4349.9	
721.92	4345.8	
722.11	3968.3	
722.29	3735.5	
722.47	5134.3	
722.65	4596.3	
722.83	3222.1	
723.01	3799.7	
723.2	4693.9	
723.38	4950.6	
723.56	2933.4	
723.74	3596.2	
723.92	4395.6	
724.1	5062.6	
724.29	3159.3	
724.47	3818.8	
724.65	4575.2	
724.83	4381.3	
725.01	3130	
725.19	3577.8	
725.37	4400.4	
725.56	4460.5	
725.74	3031	
725.92	3160.7	
726.1	4506.9	
726.28	4666	
726.46	3386	
726.64	3207.1	
726.83	4640.7	
727.01	4753.3	
727.19	3091.8	
727.37	3613.3	
727.55	4769	
727.73	4997.7	
727.91	3034.4	
728.09	2929.3	
728.28	5018.2	
728.46	5094.7	
728.64	3480.2	
728.82	3494.5	
729	5616.2	
729.18	5169.1	
729.36	3038.5	
729.54	4342.4	
729.72	5723.4	
729.91	4687.8	
730.09	4189.5	
730.27	3423.5	
730.45	4679.6	
730.63	5058.5	
730.81	3749.1	
730.99	3205.1	
731.17	5361.6	
731.35	4474.8	
731.53	3451.5	
731.71	3273.3	
731.9	5169.8	
732.08	5223	
732.26	3549.8	
732.44	3267.9	
732.62	5272.2	
732.8	5044.1	
732.98	3734.1	
733.16	3128.6	
733.34	5011.4	
733.52	4212.7	
733.7	3463.8	
733.88	3566.2	
734.07	4909	
734.25	4795	
734.43	3103.4	
734.61	4002.4	
734.79	5661.3	
734.97	4722.6	
735.15	3225.6	
735.33	3399.6	
735.51	4901.5	
735.69	4726.7	
735.87	3992.9	
736.05	3525.2	
736.23	4804.5	
736.41	4588.8	
736.59	3368.2	
736.77	3430.3	
736.95	5130.2	
737.13	4648.2	
737.32	3207.1	
737.5	3349.1	
737.68	5506.3	
737.86	4687.1	
738.04	3061.7	
738.22	4216.8	
738.4	4609.3	
738.58	4770.4	
738.76	3464.5	
738.94	2903.3	
739.12	4634.6	
739.3	4513	
739.48	3890.5	
739.66	3675.4	
739.84	4760.8	
740.02	4799.1	
740.2	2948.4	
740.38	3109.5	
740.56	4974.5	
740.74	4242	
740.92	3532.1	
741.1	3482.2	
741.28	4721.3	
741.46	4516.5	
741.64	3221.5	
741.82	3581.9	
742	4672.8	
742.18	4655.7	
742.36	3405.8	
742.54	3239.2	
742.72	5068	
742.9	4252.3	
743.08	3618.8	
743.26	2897.2	
743.44	5100.8	
743.62	5082.4	
743.8	3717.1	
743.98	3165.5	
744.16	4855.1	
744.34	4637.3	
744.52	3654.3	
744.7	3596.2	
744.88	5054.4	
745.06	4646.2	
745.24	3680.2	
745.42	3698.6	
745.6	5132.9	
745.78	5016.8	
745.96	2968.9	
746.14	3188	
746.32	5515.9	
746.5	4960.2	
746.68	3491.1	
746.86	3159.3	
747.03	5206.6	
747.21	4296	
747.39	3581.9	
747.57	3160.7	
747.75	4769.7	
747.93	5064.6	
748.11	3136.1	
748.29	3130	
748.47	5844.9	
748.65	4592.9	
748.83	3600.3	
749.01	3450.8	
749.19	4929.5	
749.37	4352.6	
749.55	3407.1	
749.73	3424.9	
749.91	4771.8	
750.09	4612	
750.26	3368.9	
750.44	3026.9	
750.62	4833.9	
750.8	4685.8	
750.98	3031.7	
751.16	3211.9	
751.34	4874.2	
751.52	4399	
751.7	3726.6	
751.88	2966.1	
752.06	5156.8	
752.24	4929.5	
752.42	3007.1	
752.59	3225.6	
752.77	4748.6	
752.95	5476.3	
753.13	3711.6	
753.31	3255.6	
753.49	4508.3	
753.67	4759.5	
753.85	3484.3	
754.03	3229.6	
754.21	5042.1	
754.38	5147.2	
754.56	3320.4	
754.74	2749.7	
754.92	4564.2	
755.1	4846.2	
755.28	2783.9	
755.46	2791.4	
755.64	5515.9	
755.82	5593	
755.99	3067.2	
756.17	3041.2	
756.35	4056.3	
756.53	4962.9	
756.71	2446	
756.89	3232.4	
757.07	4682.3	
757.25	4208.6	
757.42	3309.5	
757.6	3841.3	
757.78	4769	
757.96	4203.1	
758.14	3050.1	
758.32	2800.3	
758.5	3807.9	
758.67	4547.2	
758.85	2970.9	
759.03	3018	
759.21	4590.2	
759.39	4113.7	
759.57	2754.5	
759.75	3426.9	
759.92	4904.9	
760.1	4571.1	
760.28	3601	
760.46	3798.3	
760.64	4319.8	
760.82	4232.5	
760.99	3496.6	
761.17	3005.7	
761.35	4852.3	
761.53	4130.1	
761.71	3172.3	
761.89	3541.6	
762.06	4733.5	
762.24	4475.5	
762.42	3149.1	
762.6	2992.8	
762.78	4386.1	
762.96	4732.9	
763.13	3385.3	
763.31	3168.9	
763.49	4819.6	
763.67	4347.8	
763.85	3676.8	
764.02	3950.5	
764.2	5134.9	
764.38	4456.4	
764.56	3145.7	
764.74	3635.1	
764.91	5080.3	
765.09	4390.8	
765.27	2989.4	
765.45	2809.8	
765.63	5202.5	
765.8	4982.7	
765.98	2676.7	
766.16	2857.6	
766.34	4153.3	
766.52	4020.8	
766.69	3405.8	
766.87	2773.6	
767.05	4423.6	
767.23	4863.9	
767.41	2934.7	
767.58	3063.8	
767.76	4778.6	
767.94	4848.2	
768.12	3015.3	
768.29	3396.9	
768.47	4401.8	
768.65	4906.9	
768.83	2797.5	
769	3442.6	
769.18	4224.3	
769.36	4592.9	
769.54	3463.8	
769.72	2824.8	
769.89	4882.4	
770.07	4846.9	
770.25	3046.7	
770.43	3852.2	
770.6	5311.1	
770.78	5539.8	
770.96	3151.1	
771.14	3497.2	
771.31	4815.5	
771.49	4428.4	
771.67	2656.2	
771.85	2763.4	
772.02	3957.4	
772.2	4401.1	
772.38	3237.8	
772.55	2914.9	
772.73	4623.6	
772.91	4448.9	
773.09	3168.2	
773.26	3262.4	
773.44	4583.4	
773.62	4381.3	
773.8	2902	
773.97	2684.9	
774.15	4650.3	
774.33	4446.8	
774.5	2833.7	
774.68	3011.9	
774.86	4736.3	
775.04	4364.2	
775.21	2859	
775.39	2818	
775.57	4610.7	
775.74	4734.2	
775.92	2781.1	
776.1	2657.6	
776.27	4486.4	
776.45	5254.4	
776.63	2822.1	
776.81	2580.4	
776.98	4379.2	
777.16	4934.9	
777.34	2887	
777.51	3132.7	
777.69	4364.9	
777.87	4194.9	
778.04	3039.2	
778.22	3284.3	
778.4	4234.5	
778.57	4592.2	
778.75	2529.2	
778.93	2755.2	
779.1	4179.9	
779.28	3956	
779.46	2560.6	
779.64	2827.6	
779.81	4765.6	
779.99	5196.4	
780.17	3270.6	
780.34	3388	
780.52	4425	
780.69	4529.4	
780.87	3040.6	
781.05	2831.7	
781.22	4506.2	
781.4	4435.2	
781.58	2880.1	
781.75	2328.5	
781.93	4519.9	
782.11	3974.4	
782.28	3511.6	
782.46	2869.9	
782.64	3979.9	
782.81	4585.4	
782.99	2993.4	
783.17	2889.7	
783.34	4463.9	
783.52	4120.5	
783.69	2934.1	
783.87	3489.7	
784.05	4149.2	
784.22	4070	
784.4	3487.7	
784.58	3069.9	
784.75	4767.7	
784.93	4235.9	
785.1	2824.1	
785.28	3290.4	
785.46	4584	
785.63	4074.1	
785.81	2895.8	
785.99	2767.5	
786.16	4323.9	
786.34	4407.2	
786.51	2790	
786.69	3059	
786.87	3930.1	
787.04	4234.5	
787.22	2744.3	
787.39	3265.1	
787.57	4126	
787.75	4754	
787.92	3518.4	
788.1	3391.4	
788.27	4073.4	
788.45	3885.7	
788.63	3176.4	
788.8	2445.3	
788.98	4447.5	
789.15	3715	
789.33	2503.3	
789.5	2863.1	
789.68	4701.5	
789.86	4687.8	
790.03	3162.1	
790.21	2808.4	
790.38	4750.6	
790.56	4223.6	
790.73	2727.2	
790.91	2726.5	
791.09	4110.3	
791.26	4555.4	
791.44	2900.6	
791.61	2587.9	
791.79	4133.5	
791.96	4108.9	
792.14	2626.9	
792.32	2392	
792.49	4116.4	
792.67	4160.8	
792.84	2718.3	
793.02	2538.1	
793.19	4422.9	
793.37	4792.2	
793.54	2390	
793.72	2577.7	
793.89	4838.7	
794.07	4072	
794.25	2953.2	
794.42	2426.2	
794.6	4782	
794.77	4500.1	
794.95	3093.1	
795.12	2768.2	
795.3	4123.9	
795.47	4436.6	
795.65	3031	
795.82	2921.1	
796	4001	
796.17	5150.6	
796.35	2903.3	
796.52	3317.7	
796.7	4481.6	
796.87	4476.9	
797.05	2837.8	
797.22	3394.8	
797.4	4530.8	
797.57	5048.2	
797.75	3020.8	
797.92	2789.3	
798.1	4728.1	
798.27	3938.2	
798.45	2514.9	
798.62	2647.3	
798.8	4315.1	
798.97	4641.4	
799.15	3072.6	
799.32	2961.4	
799.5	3852.2	
799.67	4335.5	
799.85	3193.5	
800.02	2402.3	
800.2	4108.9	
800.37	4185.4	
800.55	3225.6	
800.72	2777.7	
800.9	4618.2	
801.07	4767.7	
801.25	3584.6	
801.42	3028.9	
801.6	4614.8	
801.77	4250.9	
801.95	2886.3	
802.12	2705.4	
802.29	4446.1	
802.47	4333.5	
802.64	3075.4	
802.82	2418.7	
802.99	4100.7	
803.17	4642.1	
803.34	2906.1	
803.52	2671.9	
803.69	5051.7	
803.87	3887.7	
804.04	2967.5	
804.21	2990.7	
804.39	4841.4	
804.56	4177.9	
804.74	2547.7	
804.91	3022.1	
805.09	4078.2	
805.26	4177.9	
805.44	2650.1	
805.61	2814.6	
805.78	4585.4	
805.96	4477.5	
806.13	3041.2	
806.31	3238.5	
806.48	3799	
806.66	4164.9	
806.83	3042.6	
807	2923.1	
807.18	4103.4	
807.35	4390.2	
807.53	2962	
807.7	2469.9	
807.87	4808.6	
808.05	4136.2	
808.22	3188.7	
808.4	2450.7	
808.57	4051.6	
808.74	3870.7	
808.92	2809.8	
809.09	3374.4	
809.27	4175.8	
809.44	4394.9	
809.61	2459.6	
809.79	2700.6	
809.96	4988.2	
810.14	4465.3	
810.31	2526.5	
810.48	3138.2	
810.66	4156.7	
810.83	4567	
811.01	2783.2	
811.18	2983.9	
811.35	4592.9	
811.53	3715.7	
811.7	3249.4	
811.87	3048.1	
812.05	4224.3	
812.22	4083.6	
812.39	2684.2	
812.57	2611.2	
812.74	4213.4	
812.92	5152	
813.09	2927.2	
813.26	3055.6	
813.44	4930.1	
813.61	4086.4	
813.78	2485.6	
813.96	3149.8	
814.13	4227.7	
814.3	4014.7	
814.48	3373	
814.65	2865.8	
814.82	4925.4	
815	3944.4	
815.17	2941.6	
815.34	3507.5	
815.52	4067.9	
815.69	4036.5	
815.87	2862.4	
816.04	2835.8	
816.21	4115.1	
816.38	3826.3	
816.56	2851.5	
816.73	2748.4	
816.9	5048.2	
817.08	4505.5	
817.25	2711.5	
817.42	3213.3	
817.6	3911.6	
817.77	4091.2	
817.94	2967.5	
818.12	2632.3	
818.29	3979.2	
818.46	5543.9	
818.64	2833	
818.81	2567.5	
818.98	3981.9	
819.16	5192.3	
819.33	3099.9	
819.5	2921.1	
819.67	4276.8	
819.85	4739	
820.02	2906.1	
820.19	3026.9	
820.37	4315.8	
820.54	4020.8	
820.71	2910.8	
820.88	3564.1	
821.06	4295.3	
821.23	3964.2	
821.4	2990	
821.58	2932.7	
821.75	4485.7	
821.92	4245.4	
822.09	2470.5	
822.27	2605.7	
822.44	4162.8	
822.61	4063.9	
822.79	2478.7	
822.96	4434.5	
823.13	4327.4	
823.3	3917.1	
823.48	2794.1	
823.65	2576.3	
823.82	4646.8	
823.99	3893.2	
824.17	3475.4	
824.34	2603	
824.51	5153.4	
824.68	4179.2	
824.86	2761.3	
825.03	2968.2	
825.2	4182	
825.37	4743.8	
825.55	2725.2	
825.72	2897.9	
825.89	5066	
826.06	4778.6	
826.24	2902.7	
826.41	2909.5	
826.58	4853	
826.75	4268	
826.92	2404.3	
827.1	2633.7	
827.27	6214.9	
827.44	5070.8	
827.61	2772.3	
827.79	3235.8	
827.96	4049.5	
828.13	4116.4	
828.3	2891.7	
828.47	2452.8	
828.65	4413.4	
828.82	4351.3	
828.99	3421.5	
829.16	3112.9	
829.34	4650.3	
829.51	4483	
829.68	2918.4	
829.85	2981.2	
830.02	4917.9	
830.2	4633.9	
830.37	2346.3	
830.54	3326.6	
830.71	5036.6	
830.88	4240.7	
831.05	2286.9	
831.23	2643.2	
831.4	5013.4	
831.57	5267.4	
831.74	2716.3	
831.91	2426.2	
832.09	4520.5	
832.26	4657.1	
832.43	2794.1	
832.6	3033	
832.77	4400.4	
832.94	4858.5	
833.12	2327.2	
833.29	2747.7	
833.46	4446.1	
833.63	5421	
833.8	3045.3	
833.97	2770.2	
834.15	4675.5	
834.32	4513.7	
834.49	2871.3	
834.66	2923.8	
834.83	4682.3	
835	4046.1	
835.17	2699.2	
835.35	2696.5	
835.52	4611.3	
835.69	4463.2	
835.86	2833.7	
836.03	2371.5	
836.2	4607.9	
836.37	4351.3	
836.55	2761.3	
836.72	2658.3	
836.89	4330.8	
837.06	4629.1	
837.23	2831	
837.4	2983.2	
837.57	5116.5	
837.75	5388.9	
837.92	2579.8	
838.09	2719	
838.26	4363.5	
838.43	4691.2	
838.6	2859.6	
838.77	2689.7	
838.94	5223.7	
839.11	5053.7	
839.29	2842.6	
839.46	2315.6	
839.63	4642.7	
839.8	4438.6	
839.97	2702.6	
840.14	2691	
840.31	4511	
840.48	4650.9	
840.65	2365.4	
840.82	2646	
841	4604.5	
841.17	4511.7	
841.34	2525.8	
841.51	2614.6	
841.68	4557.4	
841.85	4394.9	
842.02	2625.5	
842.19	2243.2	
842.36	4483	
842.53	4475.5	
842.7	2484.9	
842.87	2941.6	
843.05	5491.3	
843.22	4358.8	
843.39	2416.6	
843.56	2632.3	
843.73	4360.8	
843.9	4699.4	
844.07	3829	
844.24	3204.4	
844.41	6067.4	
844.58	4111	
844.75	2456.9	
844.92	2601.6	
845.09	4536.3	
845.26	4586.1	
845.43	2562.7	
845.6	2690.3	
845.77	4612.7	
845.94	4392.9	
846.12	2792.7	
846.29	2919	
846.46	4759.5	
846.63	4503.5	
846.8	2502.6	
846.97	2935.4	
847.14	4871.4	
847.31	4519.2	
847.48	2794.1	
847.65	3037.8	
847.82	4694.6	
847.99	4698.7	
848.16	3196.9	
848.33	3028.9	
848.5	4231.1	
848.67	4887.8	
848.84	2503.3	
849.01	2609.1	
849.18	4257	
849.35	4023.6	
849.52	3054.9	
849.69	2466.4	
849.86	4748.6	
850.03	4754.7	
850.2	2517	
850.37	3014.6	
850.54	4715.1	
850.71	4388.1	
850.88	2923.1	
851.05	2480.8	
851.22	4475.5	
851.39	4868.7	
851.56	2368.8	
851.73	2799.6	
851.9	4134.8	
852.07	4730.1	
852.24	2789.3	
852.41	2499.2	
852.58	4523.3	
852.75	4177.9	
852.92	2788.7	
853.09	2489	
853.26	4240.7	
853.43	4810.7	
853.6	2564.7	
853.77	2209.1	
853.94	4959.5	
854.11	4105.5	
854.28	3501.3	
854.44	2705.4	
854.61	5171.1	
854.78	4777.9	
854.95	2510.8	
855.12	3048.1	
855.29	3890.5	
855.46	4997.7	
855.63	2575	
855.8	3287.7	
855.97	4248.2	
856.14	4832.5	
856.31	3378.5	
856.48	2724.5	
856.65	4351.3	
856.82	4073.4	
856.99	2432.3	
857.16	2699.9	
857.33	5246.2	
857.49	4357.4	
857.66	2622.1	
857.83	2775	
858	4429.8	
858.17	4547.9	
858.34	2436.4	
858.51	2500.6	
858.68	4943.1	
858.85	4907.6	
859.02	2825.5	
859.19	2951.8	
859.36	4128	
859.52	4132.1	
859.69	2540.8	
859.86	2891	
860.03	4143.7	
860.2	4932.9	
860.37	2349	
860.54	2557.9	
860.71	4658.4	
860.88	4928.1	
861.05	2756.6	
861.21	3118.4	
861.38	4920.6	
861.55	3982.6	
861.72	2357.2	
861.89	2775.7	
862.06	4712.4	
862.23	5002.5	
862.4	2454.1	
862.56	2602.3	
862.73	4674.8	
862.9	4421.6	
863.07	2858.3	
863.24	2348.3	
863.41	4151.9	
863.58	4174.4	
863.75	2545.6	
863.91	2876	
864.08	4815.5	
864.25	4657.8	
864.42	3020.1	
864.59	3342.3	
864.76	5040.7	
864.93	4141.7	
865.09	2457.6	
865.26	2668.5	
865.43	4851	
865.6	5045.5	
865.77	2268.5	
865.94	2513.5	
866.1	4872.1	
866.27	4659.1	
866.44	3564.1	
866.61	2441.9	
866.78	4418.8	
866.95	4627.7	
867.11	2441.2	
867.28	2328.5	
867.45	4843.4	
867.62	4081.6	
867.79	2820.7	
867.96	2521	
868.12	4018.8	
868.29	4712.4	
868.46	2481.5	
868.63	3274.7	
868.8	4767	
868.97	4702.8	
869.13	2598.9	
869.3	2643.2	
869.47	4538.3	
869.64	4733.5	
869.81	2498.5	
869.97	2538.8	
870.14	4457.7	
870.31	4906.9	
870.48	2427.5	
870.65	3119.1	
870.81	4401.1	
870.98	4360.1	
871.15	2781.1	
871.32	2622.8	
871.48	4624.3	
871.65	4993.6	
871.82	2471.2	
871.99	2715.6	
872.16	5273.5	
872.32	4908.3	
872.49	2595.5	
872.66	2549	
872.83	4734.9	
872.99	4209.3	
873.16	2810.5	
873.33	2546.3	
873.5	4464.6	
873.67	4446.8	
873.83	2653.5	
874	3218	
874.17	4608.6	
874.34	5074.9	
874.5	3133.4	
874.67	2982.5	
874.84	4816.1	
875.01	3934.1	
875.17	3334.8	
875.34	2479.4	
875.51	4479.6	
875.68	5307	
875.84	2960.7	
876.01	3478.8	
876.18	4676.2	
876.34	4608.6	
876.51	2497.8	
876.68	2458.9	
876.85	4320.5	
877.01	4919.2	
877.18	3388.7	
877.35	2517.6	
877.52	4559.5	
877.68	4136.9	
877.85	2446	
878.02	2504.7	
878.18	4287.1	
878.35	4275.5	
878.52	2101.2	
878.69	2919.7	
878.85	4853	
879.02	4584.7	
879.19	3364.1	
879.35	2708.8	
879.52	4677.6	
879.69	4734.9	
879.86	2207.7	
880.02	2787.3	
880.19	4429.8	
880.36	5181.4	
880.52	2824.1	
880.69	2944.3	
880.86	4754	
881.02	4764.9	
881.19	2682.8	
881.36	2685.6	
881.52	4678.2	
881.69	4241.3	
881.86	2717.7	
882.02	2620	
882.19	4861.9	
882.36	5427.8	
882.52	2589.3	
882.69	3366.9	
882.86	4545.1	
883.02	4520.5	
883.19	2965.5	
883.36	2769.5	
883.52	4751.3	
883.69	5241.4	
883.86	2483.5	
884.02	2346.3	
884.19	4700.1	
884.36	4451.6	
884.52	2785.2	
884.69	2691	
884.86	4342.4	
885.02	5004.6	
885.19	2752.5	
885.36	2826.9	
885.52	4429.1	
885.69	4622.3	
885.86	3470.6	
886.02	3111.5	
886.19	4775.2	
886.35	4286.4	
886.52	2788	
886.69	3400.3	
886.85	4162.8	
887.02	4931.5	
887.19	4931.5	
887.35	4931.5	
887.52	4931.5	
887.68	4931.5	
887.85	4931.5	
888.02	4931.5	
888.18	4931.5	
888.35	4931.5	
888.51	4931.5	
888.68	4931.5	
888.85	4931.5	
889.01	4931.5	
889.18	4931.5	
889.35	4931.5	
889.51	4931.5	
889.68	4931.5	
889.84	4931.5	
890.01	4931.5	
890.17	4931.5	
890.34	4931.5	
890.51	4931.5	
890.67	4931.5	
890.84	4931.5	
891	4931.5	
891.17	4931.5	
891.34	4931.5	
891.5	4931.5	
891.67	4931.5	
891.83	4931.5	
892	4931.5	
892.16	4931.5	
892.33	4931.5	
892.5	4931.5	
892.66	4931.5	
892.83	4931.5	
892.99	4931.5	
893.16	4931.5	
893.32	4931.5	
893.49	4931.5	
893.65	4931.5	
893.82	4931.5	
893.99	4931.5	
894.15	4931.5	
894.32	4931.5	
894.48	4931.5	
894.65	4931.5	
894.81	4931.5	
894.98	4931.5	
895.14	4931.5	
895.31	4931.5	
895.47	4931.5	
895.64	4931.5	
895.81	4931.5	
895.97	4931.5	
896.14	4931.5	
896.3	4931.5	
896.47	4931.5	
896.63	4931.5	
896.8	4931.5	
896.96	4931.5	
897.13	4931.5	
897.29	4931.5	
897.46	4931.5	
897.62	4931.5	
897.79	4931.5	
897.95	4931.5	
898.12	4931.5	
898.28	4931.5	
898.45	4931.5	
898.61	4931.5	
898.78	4931.5	
898.94	4931.5	
899.11	4931.5	
899.27	4931.5	
899.44	4931.5	
899.6	4931.5	
899.77	4931.5	
899.93	4931.5	
900.1	4931.5	
900.26	4931.5	
900.43	4931.5	
900.59	4931.5	
900.76	4931.5	
900.92	4931.5	
901.09	4931.5	
901.25	4931.5	
901.42	4931.5	
901.58	4931.5	
901.75	4931.5	
901.91	4931.5	
902.07	4931.5	
902.24	4931.5	
902.4	4931.5	
902.57	4931.5	
902.73	4931.5	
902.9	4931.5	
903.06	4931.5	
903.23	4931.5	
903.39	4931.5	
903.56	4931.5	
903.72	4931.5	
903.88	4931.5	
904.05	4931.5	
904.21	4931.5	
904.38	4931.5	
904.54	4931.5	
904.71	4931.5	
904.87	4931.5	
905.03	4931.5	
905.2	4931.5	
905.36	4931.5	
905.53	4931.5	
905.69	4931.5	
905.86	4931.5	
906.02	4931.5	
906.18	4931.5	
906.35	4931.5	
906.51	4931.5	
906.68	4931.5	
906.84	4931.5	
907.01	4931.5	
907.17	4931.5	
907.33	4931.5	
907.5	4931.5	
907.66	4931.5	
907.83	4931.5	
907.99	4931.5	
908.15	4931.5	
908.32	4931.5	
908.48	4931.5	
908.65	4931.5	
908.81	4931.5	
908.97	4931.5	
909.14	4931.5	
909.3	4931.5	
909.47	4931.5	
909.63	4931.5	
909.79	4931.5	
909.96	4931.5	
910.12	4931.5	
910.28	4931.5	
910.45	4931.5	
910.61	4931.5	
910.78	4931.5	
910.94	4931.5	
911.1	4931.5	
911.27	4931.5	
911.43	4931.5	
911.59	4931.5	
911.76	4931.5	
911.92	4931.5	
912.08	4931.5	
912.25	4931.5	
912.41	4931.5	
912.57	4931.5	
912.74	4931.5	
912.9	4931.5	
913.07	4931.5	
913.23	4931.5	
913.39	4931.5	
913.56	4931.5	
913.72	4931.5	
913.88	4931.5	
914.05	4931.5	
914.21	4931.5	
914.37	4931.5	
914.54	4931.5	
914.7	4931.5	
914.86	4931.5	
915.03	4931.5	
915.19	4931.5	
