Wavelength	Intensities	
nm	a.u.	
179.22	1960.9	
179.44	1953.8	
179.65	1968.1	
179.86	1939.4	
180.08	1894.4	
180.29	5060.5	
180.51	3551.9	
180.72	5697.4	
180.94	6680.5	
181.15	3304.1	
181.37	3242.6	
181.58	5527.5	
181.79	5866.1	
182.01	3441.3	
182.22	3670.6	
182.44	5828.5	
182.65	4866	
182.87	4648.2	
183.08	4063.9	
183.29	6068.8	
183.51	5020.9	
183.72	3712.3	
183.94	5470.8	
184.15	5502.2	
184.37	5485.8	
184.58	3282.2	
184.79	4488.5	
185.01	5023.7	
185.22	5752.1	
185.44	4762.2	
185.65	4014.7	
185.86	5362.3	
186.08	4922.6	
186.29	3179.8	
186.51	3420.1	
186.72	5142.4	
186.94	6006.7	
187.15	3971	
187.36	4103.4	
187.58	7931.1	
187.79	5586.2	
188.01	4270.7	
188.22	6715.3	
188.43	6765.1	
188.65	5799.2	
188.86	3390.8	
189.08	4084.3	
189.29	5250.3	
189.5	5238.7	
189.72	3784.6	
189.93	3898	
190.15	6078.4	
190.36	7194.5	
190.57	4132.1	
190.79	4067.9	
191	6142.5	
191.22	6087.9	
191.43	4179.2	
191.64	3409.9	
191.86	6386.9	
192.07	6103.6	
192.29	3573	
192.5	3790.1	
192.71	6057.2	
192.93	5214.1	
193.14	3756.7	
193.35	3853.6	
193.57	5186.8	
193.78	6068.8	
194	3013.2	
194.21	3715	
194.42	5011.4	
194.64	5560.2	
194.85	4074.1	
195.07	4816.8	
195.28	5543.9	
195.49	4755.4	
195.71	5039.4	
195.92	3475.4	
196.13	5646.9	
196.35	5798.5	
196.56	5405.3	
196.78	4147.1	
196.99	7145.4	
197.2	6699.6	
197.42	4784.1	
197.63	4138.3	
197.84	4872.1	
198.06	5714.5	
198.27	3809.2	
198.48	5119.9	
198.7	5255.1	
198.91	5386.2	
199.13	4139.6	
199.34	4102.8	
199.55	5888.6	
199.77	4772.4	
199.98	3630.4	
200.19	4158.7	
200.41	5360.9	
200.62	5030.5	
200.83	4364.9	
201.05	4663.9	
201.26	5399.8	
201.47	5104.2	
201.69	3644.7	
201.9	3519.8	
202.11	5443.5	
202.33	6460.7	
202.54	3898.6	
202.76	4307.6	
202.97	5651	
203.18	5567.7	
203.4	4276.2	
203.61	4251.6	
203.82	5569.1	
204.04	5182.7	
204.25	4193.6	
204.46	4118.5	
204.68	5475.6	
204.89	5735	
205.1	4090.5	
205.32	3496.6	
205.53	5862	
205.74	6047.7	
205.96	2968.2	
206.17	4272.1	
206.38	5831.9	
206.6	5965.1	
206.81	4747.2	
207.02	3877.5	
207.24	5657.2	
207.45	6182.8	
207.66	3930.1	
207.88	3364.8	
208.09	5724.8	
208.3	5475.6	
208.52	3575.1	
208.73	4003.1	
208.94	5470.1	
209.15	6235.4	
209.37	3902.7	
209.58	4180.6	
209.79	6040.8	
210.01	5286.5	
210.22	3160.7	
210.43	3291.1	
210.65	5501.5	
210.86	5921.4	
211.07	3936.2	
211.29	3573	
211.5	5897.5	
211.71	5438.7	
211.93	3600.3	
212.14	3657	
212.35	5414.8	
212.56	5668.1	
212.78	4157.4	
212.99	3420.1	
213.2	6454.5	
213.42	5271.5	
213.63	3733.4	
213.84	4053.6	
214.06	4815.5	
214.27	4958.1	
214.48	3937.6	
214.69	4195.6	
214.91	6216.3	
215.12	6273.6	
215.33	4194.9	
215.55	4670.1	
215.76	6771.9	
215.97	5893.4	
216.18	4085	
216.4	3986.7	
216.61	5100.8	
216.82	5958.9	
217.04	3634.5	
217.25	3837.9	
217.46	6195.1	
217.67	5930.9	
217.89	3269.9	
218.1	3347.7	
218.31	5543.9	
218.53	5624.4	
218.74	3835.2	
218.95	3707.5	
219.16	5414.8	
219.38	6485.2	
219.59	3723.2	
219.8	4429.8	
220.01	7103	
220.23	5524.1	
220.44	4889.2	
220.65	3564.1	
220.87	5531.6	
221.08	6158.2	
221.29	3293.8	
221.5	4546.5	
221.72	7539.3	
221.93	5171.8	
222.14	4162.2	
222.35	4934.9	
222.57	5525.4	
222.78	5836	
222.99	3906.8	
223.2	4262.5	
223.42	5793.7	
223.63	5962.3	
223.84	2998.2	
224.05	3013.2	
224.27	7056.6	
224.48	6402.6	
224.69	4924.7	
224.9	4199	
225.12	5672.9	
225.33	5418.2	
225.54	3309.5	
225.75	3710.9	
225.97	5036.6	
226.18	5298.8	
226.39	4039.3	
226.6	3713	
226.82	5238	
227.03	5114.5	
227.24	4154.6	
227.45	3450.1	
227.67	5881.8	
227.88	6447	
228.09	4642.1	
228.3	4689.2	
228.52	5909.8	
228.73	5449	
228.94	3876.8	
229.15	3358	
229.36	5365.7	
229.58	5311.7	
229.79	3908.9	
230	4537.6	
230.21	6576	
230.43	5556.1	
230.64	4165.6	
230.85	4278.9	
231.06	5980.1	
231.28	5949.3	
231.49	3392.8	
231.7	4003.8	
231.91	5812.8	
232.12	5507	
232.34	3458.3	
232.55	4035.2	
232.76	6118	
232.97	5660.6	
233.18	3624.9	
233.4	4138.9	
233.61	5725.4	
233.82	5266	
234.03	3857	
234.25	3736.2	
234.46	7610.3	
234.67	5545.9	
234.88	4267.3	
235.09	3685	
235.31	5814.2	
235.52	5373.9	
235.73	4123.2	
235.94	3463.8	
236.15	5184.8	
236.37	6670.9	
236.58	3658.4	
236.79	3984.7	
237	5786.9	
237.21	4985.4	
237.43	4294.6	
237.64	3426.3	
237.85	10092	
238.06	5028.4	
238.27	4329.4	
238.48	3515.7	
238.7	5818.3	
238.91	5369.1	
239.12	3954.6	
239.33	3971.7	
239.54	5115.1	
239.76	5426.4	
239.97	3955.3	
240.18	3992.9	
240.39	6880.5	
240.6	5785.5	
240.82	4104.8	
241.03	3362.8	
241.24	5492.7	
241.45	6348	
241.66	3573.7	
241.87	4272.7	
242.09	6268.8	
242.3	6640.2	
242.51	4351.3	
242.72	4031.8	
242.93	5958.2	
243.14	5469.4	
243.36	4567.7	
243.57	5012.1	
243.78	6335.7	
243.99	5768.4	
244.2	3952.6	
244.41	3599.6	
244.63	5019.6	
244.84	5839.4	
245.05	4261.8	
245.26	3950.5	
245.47	5756.8	
245.68	6065.4	
245.9	5307	
246.11	4218.1	
246.32	5335.6	
246.53	5736.4	
246.74	6484.6	
246.95	3330	
247.16	4954.7	
247.38	5494	
247.59	3282.2	
247.8	3991.5	
248.01	5158.2	
248.22	5482.4	
248.43	3575.1	
248.64	3879.5	
248.86	4889.9	
249.07	5184.1	
249.28	3439.9	
249.49	4108.9	
249.7	6075	
249.91	6247.7	
250.12	3287	
250.34	3381.9	
250.55	5595.7	
250.76	5485.1	
250.97	4061.8	
251.18	4194.2	
251.39	6237.4	
251.6	5684.5	
251.81	4157.4	
252.03	4164.2	
252.24	5203.9	
252.45	5999.2	
252.66	3426.3	
252.87	4449.6	
253.08	5466.7	
253.29	7314	
253.5	3482.9	
253.72	4856.4	
253.93	5365.7	
254.14	6509.1	
254.35	3705.5	
254.56	3859.1	
254.77	5709.1	
254.98	5130.2	
255.19	3741.6	
255.41	4826.4	
255.62	5591	
255.83	6151.4	
256.04	4270.7	
256.25	4185.4	
256.46	6830.7	
256.67	5185.5	
256.88	4086.4	
257.09	4619.5	
257.31	5158.8	
257.52	5167	
257.73	5221	
257.94	3769.6	
258.15	5329.5	
258.36	5537.7	
258.57	4797	
258.78	3046.7	
258.99	5954.1	
259.2	5300.1	
259.41	3823.6	
259.63	3929.4	
259.84	6322.1	
260.05	6881.2	
260.26	4992.9	
260.47	3697.9	
260.68	6099.5	
260.89	5430.5	
261.1	4615.4	
261.31	3620.8	
261.52	6101.6	
261.73	6468.9	
261.95	4938.3	
262.16	4276.8	
262.37	6269.5	
262.58	6311.8	
262.79	4909	
263	3832.4	
263.21	5511.8	
263.42	4958.8	
263.63	3909.6	
263.84	3775.8	
264.05	6066.8	
264.26	6464.8	
264.47	4720.6	
264.69	4347.2	
264.9	6205.3	
265.11	5719.3	
265.32	3666.5	
265.53	3719.1	
265.74	5669.5	
265.95	4906.3	
266.16	4061.1	
266.37	4517.1	
266.58	5610.1	
266.79	5387.5	
267	3732.1	
267.21	3454.9	
267.42	5020.9	
267.63	5466.7	
267.84	4000.4	
268.06	3395.5	
268.27	5928.9	
268.48	6223.1	
268.69	3868.6	
268.9	4582.7	
269.11	6206	
269.32	4952.7	
269.53	3967.6	
269.74	3658.4	
269.95	5838.8	
270.16	4778.6	
270.37	3985.3	
270.58	4615.4	
270.79	5302.2	
271	6047	
271.21	4302.1	
271.42	3987.4	
271.63	5640.1	
271.84	5129.5	
272.05	3132	
272.26	3529.3	
272.47	5489.2	
272.68	5684.5	
272.89	3777.1	
273.11	4427	
273.32	5261.9	
273.53	6447.7	
273.74	4303.5	
273.95	4201.7	
274.16	6135.7	
274.37	5603.9	
274.58	4376.5	
274.79	3450.1	
275	5637.4	
275.21	6192.4	
275.42	5276.9	
275.63	4487.1	
275.84	5795.1	
276.05	7228.6	
276.26	4244.1	
276.47	3933.5	
276.68	5330.9	
276.89	6571.2	
277.1	4470	
277.31	3486.3	
277.52	5797.8	
277.73	5911.1	
277.94	3452.9	
278.15	3833.8	
278.36	5660.6	
278.57	5145.2	
278.78	3786.7	
278.99	4280.3	
279.2	5115.1	
279.41	5062.6	
279.62	5055.1	
279.83	3523.2	
280.04	6785.6	
280.25	4990.9	
280.46	5058.5	
280.67	3997.6	
280.88	5085.8	
281.09	6205.3	
281.3	4175.8	
281.51	5297.4	
281.72	5214.1	
281.93	6093.4	
282.14	3698.6	
282.35	4007.9	
282.56	5988.3	
282.77	5973.2	
282.98	3816.7	
283.19	4704.2	
283.4	7337.9	
283.61	5425.1	
283.82	3553.9	
284.03	4976.6	
284.24	5582.1	
284.45	6180.8	
284.66	5008.6	
284.87	4773.8	
285.08	6114.6	
285.29	6271.6	
285.5	3342.3	
285.71	3908.2	
285.92	6179.4	
286.12	6866.2	
286.33	4877.6	
286.54	3842	
286.75	6046.3	
286.96	5351.3	
287.17	3540.9	
287.38	4889.9	
287.59	5147.9	
287.8	4964.3	
288.01	3868.6	
288.22	4573.8	
288.43	5992.4	
288.64	5027.8	
288.85	4655	
289.06	4379.9	
289.27	5927.5	
289.48	6472.3	
289.69	4928.8	
289.9	4459.1	
290.11	6210.1	
290.32	5193	
290.53	4671.4	
290.74	4283.7	
290.94	5988.3	
291.15	6038.1	
291.36	3791.5	
291.57	4489.1	
291.78	5225.7	
291.99	4894	
292.2	3586.7	
292.41	4322.6	
292.62	6096.1	
292.83	5840.1	
293.04	5344.5	
293.25	3621.5	
293.46	5296.7	
293.67	6158.2	
293.88	3700.7	
294.09	3610.6	
294.29	5035.3	
294.5	5628.5	
294.71	4007.9	
294.92	3865.2	
295.13	5246.2	
295.34	6653.9	
295.55	3362.1	
295.76	3474.7	
295.97	5941.8	
296.18	6710.5	
296.39	3548.4	
296.6	3762.1	
296.81	5576.6	
297.01	5962.3	
297.22	3884.3	
297.43	3680.2	
297.64	5123.3	
297.85	5153.4	
298.06	3052.2	
298.27	3357.3	
298.48	5580	
298.69	5203.2	
298.9	4065.9	
299.11	3642.7	
299.31	4977.2	
299.52	5075.5	
299.73	4339	
299.94	4311	
300.15	5522	
300.36	5119.2	
300.57	4215.4	
300.78	4205.8	
300.99	5331.5	
301.2	5636.7	
301.4	3623.5	
301.61	4040.6	
301.82	5857.2	
302.03	5952.8	
302.24	4596.3	
302.45	3543.7	
302.66	5824.4	
302.87	6279.1	
303.08	3697.9	
303.29	5134.9	
303.49	5207.3	
303.7	5497.4	
303.91	3251.5	
304.12	4889.2	
304.33	5051.7	
304.54	5576.6	
304.75	3801.7	
304.96	3590.8	
305.16	5840.1	
305.37	6637.5	
305.58	3254.2	
305.79	3424.9	
306	5823.7	
306.21	4896.7	
306.42	3744.4	
306.63	5816.2	
306.83	5318.6	
307.04	6172.6	
307.25	4150.5	
307.46	4115.1	
307.67	4684.4	
307.88	5979.4	
308.09	3637.9	
308.29	3830.4	
308.5	5539.1	
308.71	6086.6	
308.92	3949.8	
309.13	3540.9	
309.34	5341.1	
309.55	5392.3	
309.75	4671.4	
309.96	4280.9	
310.17	5888.6	
310.38	5183.4	
310.59	4496	
310.8	3498.6	
311.01	5352	
311.21	5339.7	
311.42	3532.7	
311.63	3643.3	
311.84	5266.7	
312.05	5646.9	
312.26	4181.3	
312.46	4503.5	
312.67	5356.8	
312.88	5047.6	
313.09	3665.9	
313.3	3496.6	
313.51	6335.7	
313.71	6754.9	
313.92	3572.3	
314.13	3762.8	
314.34	5699.5	
314.55	5418.2	
314.76	4648.9	
314.96	4007.2	
315.17	5571.2	
315.38	6028.5	
315.59	3618.1	
315.8	3447.4	
316.01	6491.4	
316.21	6452.5	
316.42	3454.9	
316.63	3962.8	
316.84	5339.7	
317.05	6314.6	
317.26	4279.6	
317.46	3814	
317.67	5464	
317.88	5902.9	
318.09	4588.1	
318.3	3312.9	
318.5	5186.1	
318.71	5884.5	
318.92	5864	
319.13	4276.8	
319.34	6036.7	
319.54	6163.7	
319.75	3341.6	
319.96	3220.1	
320.17	5929.6	
320.38	6079.7	
320.58	3315.7	
320.79	3953.3	
321	6137.1	
321.21	6212.2	
321.42	3975.1	
321.62	3248.1	
321.83	5128.1	
322.04	5561.6	
322.25	3839.3	
322.46	3656.3	
322.66	5612.1	
322.87	5813.5	
323.08	4468.7	
323.29	3554.6	
323.5	6626.5	
323.7	5042.1	
323.91	4970.4	
324.12	4407.2	
324.33	5634	
324.53	5859.9	
324.74	4321.9	
324.95	4455	
325.16	4883.7	
325.37	5285.1	
325.57	3663.1	
325.78	3669.3	
325.99	5546.6	
326.2	4956.8	
326.4	5309.7	
326.61	3320.4	
326.82	5446.2	
327.03	5646.2	
327.24	5166.3	
327.44	4874.2	
327.65	5731.6	
327.86	4650.3	
328.07	4209.9	
328.27	3470.6	
328.48	6238.8	
328.69	5048.2	
328.9	5176.6	
329.1	3953.9	
329.31	5369.8	
329.52	6404.7	
329.73	3607.2	
329.93	4091.2	
330.14	5509	
330.35	5802.6	
330.56	6072.2	
330.76	4513	
330.97	5308.3	
331.18	5738.4	
331.39	4026.3	
331.59	3205.8	
331.8	6113.9	
332.01	6291.4	
332.22	3718.4	
332.42	4293.9	
332.63	5688.6	
332.84	5186.1	
333.05	4041.3	
333.25	3723.9	
333.46	5289.9	
333.67	5571.8	
333.88	3795.6	
334.08	4197.7	
334.29	7503.1	
334.5	6236.7	
334.7	3517.7	
334.91	5240.8	
335.12	5017.5	
335.33	5959.6	
335.53	4005.8	
335.74	6029.9	
335.95	5268.1	
336.16	5097.4	
336.36	4111.6	
336.57	4639.3	
336.78	5058.5	
336.98	6173.9	
337.19	4965.6	
337.4	3914.4	
337.61	6703	
337.81	5007.3	
338.02	3695.2	
338.23	4824.3	
338.43	6212.9	
338.64	5129.5	
338.85	3637.9	
339.05	4789.5	
339.26	6421.7	
339.47	4910.3	
339.68	3638.6	
339.88	5403.2	
340.09	5689.3	
340.3	5979.4	
340.5	4272.7	
340.71	3203	
340.92	5003.2	
341.13	6297.5	
341.33	3561.4	
341.54	4317.1	
341.75	5704.3	
341.95	5404.6	
342.16	4023.6	
342.37	4386.7	
342.57	5170.4	
342.78	5518.6	
342.99	4506.2	
343.19	3275.4	
343.4	5915.2	
343.61	5744.6	
343.81	3893.2	
344.02	3584.6	
344.23	5945.9	
344.43	6408.1	
344.64	4519.2	
344.85	4446.1	
345.06	5860.6	
345.26	6135	
345.47	4207.9	
345.68	4921.3	
345.88	4894.6	
346.09	6084.5	
346.3	4329.4	
346.5	3251.5	
346.71	5574.6	
346.92	5208	
347.12	3335.5	
347.33	4216.8	
347.54	6070.2	
347.74	6510.5	
347.95	4218.8	
348.16	3110.2	
348.36	5332.9	
348.57	5056.4	
348.78	4149.9	
348.98	4440	
349.19	5446.2	
349.39	4923.3	
349.6	3328.6	
349.81	3755.3	
350.01	5788.2	
350.22	5205.9	
350.43	3997.6	
350.63	4831.8	
350.84	5563	
351.05	5322.7	
351.25	3697.9	
351.46	3330.7	
351.67	6105.7	
351.87	5178.6	
352.08	3915.7	
352.29	4473.4	
352.49	6019.7	
352.7	6117.3	
352.9	3545	
353.11	4420.9	
353.32	6728.9	
353.52	5345.9	
353.73	3496.6	
353.94	4513.7	
354.14	5795.1	
354.35	5629.9	
354.55	3633.8	
354.76	4024.3	
354.97	5831.9	
355.17	5538.4	
355.38	3394.2	
355.59	4764.9	
355.79	5210.7	
356	5653.1	
356.2	4022.2	
356.41	3512.9	
356.62	4960.2	
356.82	5483.1	
357.03	4343.7	
357.24	3889.1	
357.44	5270.1	
357.65	5356.8	
357.85	5279	
358.06	4113.7	
358.27	4958.8	
358.47	5224.4	
358.68	3392.1	
358.88	4287.8	
359.09	5812.1	
359.3	6219.7	
359.5	5029.1	
359.71	4514.4	
359.91	6671.6	
360.12	5933	
360.33	4277.5	
360.53	4784.1	
360.74	5229.8	
360.94	5337	
361.15	4490.5	
361.36	3749.1	
361.56	6051.1	
361.77	5461.9	
361.97	5055.8	
362.18	3942.3	
362.38	6104.3	
362.59	5171.8	
362.8	3659	
363	3483.6	
363.21	4904.2	
363.41	5644.2	
363.62	4164.2	
363.83	5234.6	
364.03	5685.2	
364.24	6743.3	
364.44	5303.6	
364.65	5314.5	
364.85	5432.6	
365.06	5111.7	
365.27	3758	
365.47	3885.7	
365.68	6399.2	
365.88	5442.8	
366.09	4282.3	
366.29	3964.9	
366.5	5737.7	
366.71	6166.4	
366.91	5317.9	
367.12	4426.3	
367.32	6791.1	
367.53	5962.3	
367.73	4377.2	
367.94	5389.6	
368.14	5869.5	
368.35	6865.5	
368.56	4317.8	
368.76	4078.9	
368.97	6014.2	
369.17	7798.7	
369.38	3849.5	
369.58	4106.2	
369.79	5059.8	
369.99	6392.4	
370.2	5188.9	
370.4	4234.5	
370.61	5717.2	
370.82	6940.6	
371.02	4141	
371.23	3448.8	
371.43	4970.4	
371.64	6367.8	
371.84	4147.8	
372.05	5369.8	
372.25	7760.4	
372.46	6133.7	
372.66	4188.8	
372.87	4113.7	
373.07	6132.3	
373.28	7795.3	
373.48	5251	
373.69	4867.3	
373.9	5603.2	
374.1	5575.9	
374.31	5139.7	
374.51	4657.8	
374.72	6458.6	
374.92	5251.7	
375.13	5324.7	
375.33	4516.5	
375.54	5992.4	
375.74	5421	
375.95	4562.9	
376.15	5854.5	
376.36	6000.5	
376.56	5903.6	
376.77	4638.6	
376.97	5085.8	
377.18	7125.6	
377.38	6223.1	
377.59	5425.1	
377.79	4153.3	
378	5885.2	
378.2	6318	
378.41	4221.5	
378.61	4047.5	
378.82	6368.5	
379.02	5464.7	
379.23	4246.1	
379.43	5509	
379.64	6428.6	
379.84	6120.7	
380.05	4138.9	
380.25	4087.1	
380.46	6220.4	
380.66	5809.4	
380.87	5506.3	
381.07	5902.9	
381.28	6795.2	
381.48	6182.8	
381.69	4181.3	
381.89	4238.6	
382.1	5109.7	
382.3	6374.6	
382.51	5382.1	
382.71	6291.4	
382.91	6116.6	
383.12	6756.2	
383.32	4526.7	
383.53	4835.3	
383.73	6025.8	
383.94	5818.3	
384.14	4736.3	
384.35	3840.6	
384.55	5753.4	
384.76	6226.5	
384.96	4566.3	
385.17	4917.2	
385.37	6180.8	
385.58	5409.4	
385.78	4945.8	
385.98	3738.9	
386.19	5697.4	
386.39	6035.4	
386.6	4299.4	
386.8	4516.5	
387.01	6182.8	
387.21	6232	
387.42	5068	
387.62	5636.7	
387.83	5461.2	
388.03	6184.9	
388.23	4635.2	
388.44	5468.8	
388.64	5169.1	
388.85	5341.8	
389.05	5004.6	
389.26	5659.2	
389.46	7253.9	
389.67	6647	
389.87	4997	
390.07	5065.3	
390.28	5853.1	
390.48	5459.2	
390.69	4202.4	
390.89	4532.2	
391.1	5601.2	
391.3	6560.3	
391.5	5636	
391.71	6280.4	
391.91	6283.9	
392.12	7333.8	
392.32	5797.1	
392.53	5015.5	
392.73	5677	
392.93	5900.2	
393.14	4634.6	
393.34	5806.7	
393.55	6350.1	
393.75	5853.1	
393.95	4624.3	
394.16	4614.8	
394.36	5630.5	
394.57	6328.2	
394.77	4119.1	
394.98	4543.1	
395.18	5590.3	
395.38	5775.3	
395.59	5529.5	
395.79	4399	
396	5706.3	
396.2	6229.9	
396.4	5347.2	
396.61	5188.9	
396.81	6448.4	
397.02	5657.2	
397.22	5538.4	
397.42	5567.7	
397.63	6423.1	
397.83	5706.3	
398.04	4313.7	
398.24	4851	
398.44	6120	
398.65	5238.7	
398.85	4147.8	
399.05	4306.2	
399.26	5580.7	
399.46	7426.6	
399.67	4764.3	
399.87	4429.8	
400.07	5961	
400.28	6378.7	
400.48	4523.3	
400.69	5678.3	
400.89	6612.2	
401.09	7064.1	
401.3	4430.4	
401.5	5623.7	
401.7	7288	
401.91	7584.3	
402.11	4754	
402.32	4992.3	
402.52	6610.2	
402.72	6466.8	
402.93	5237.3	
403.13	4107.5	
403.33	7299.6	
403.54	6037.4	
403.74	4824.3	
403.94	5812.1	
404.15	6109.1	
404.35	7323.5	
404.56	4655.7	
404.76	6576	
404.96	6597.2	
405.17	6307.7	
405.37	5637.4	
405.57	5156.1	
405.78	6583.5	
405.98	6026.5	
406.18	4655.7	
406.39	5597.1	
406.59	6535.8	
406.79	6179.4	
407	4455.7	
407.2	4549.9	
407.4	6579.4	
407.61	6840.2	
407.81	4622.9	
408.01	6883.2	
408.22	5604.6	
408.42	7652.6	
408.62	5741.1	
408.83	5268.1	
409.03	6258.6	
409.23	6069.5	
409.44	5337.7	
409.64	5682.4	
409.84	7252.5	
410.05	7150.8	
410.25	5505.6	
410.45	5283.8	
410.66	6638.8	
410.86	9189.2	
411.06	5701.5	
411.27	5586.9	
411.47	8920.3	
411.67	6778.1	
411.88	5752.7	
412.08	6077.7	
412.28	7532.4	
412.49	7959.1	
412.69	5636	
412.89	5612.1	
413.09	7821.9	
413.3	7579.5	
413.5	5709.1	
413.7	5331.5	
413.91	6826.6	
414.11	7776.8	
414.31	5580	
414.52	6012.2	
414.72	7441	
414.92	7348.1	
415.12	5475.6	
415.33	6034.7	
415.53	7798	
415.73	7897	
415.94	6504.3	
416.14	5866.7	
416.34	6760.3	
416.55	6431.3	
416.75	7071.6	
416.95	6462.7	
417.15	7776.1	
417.36	8459.5	
417.56	7297.6	
417.76	6420.4	
417.97	8136.6	
418.17	7853.3	
418.37	5902.9	
418.57	6026.5	
418.78	7562.5	
418.98	7236.2	
419.18	6852.5	
419.38	6795.8	
419.59	7320.8	
419.79	6888.7	
419.99	5775.3	
420.2	6255.2	
420.4	7798.7	
420.6	7982.3	
420.8	5820.3	
421.01	5710.4	
421.21	7596.6	
421.41	7806.2	
421.61	6215.6	
421.82	5888.6	
422.02	7066.9	
422.22	8132.5	
422.42	6625.2	
422.63	6331.6	
422.83	7292.1	
423.03	8473.1	
423.23	6331.6	
423.44	5293.3	
423.64	7337.2	
423.84	7037.5	
424.04	5729.5	
424.25	5407.3	
424.45	8268.3	
424.65	8245.1	
424.85	5148.6	
425.06	5791.7	
425.26	8103.1	
425.46	6676.4	
425.66	6277	
425.87	5928.9	
426.07	7997.3	
426.27	7808.9	
426.47	6120	
426.67	5481	
426.88	8301.8	
427.08	7742.7	
427.28	6293.4	
427.48	5395.7	
427.69	6597.9	
427.89	7276.4	
428.09	6335	
428.29	5436.7	
428.5	7982.3	
428.7	7508.5	
428.9	5335	
429.1	5841.5	
429.3	7397.3	
429.51	7933.8	
429.71	5677	
429.91	6497.5	
430.11	7767.3	
430.31	8079.2	
430.52	5989.6	
430.72	6340.5	
430.92	8347.5	
431.12	7853.3	
431.32	5649.7	
431.53	6088.6	
431.73	6661.4	
431.93	8497.7	
432.13	5605.3	
432.33	5457.8	
432.54	7264.1	
432.74	7602.1	
432.94	5421	
433.14	6521.4	
433.34	7764.5	
433.55	7222.5	
433.75	6412.2	
433.95	8241.7	
434.15	7572.7	
434.35	7199.3	
434.56	5627.8	
434.76	5133.6	
434.96	7514.7	
435.16	7809.6	
435.36	5522	
435.56	6715.3	
435.77	7244.3	
435.97	7412.3	
436.17	7531.1	
436.37	6670.2	
436.57	7162.4	
436.78	7101	
436.98	6593.1	
437.18	7260	
437.38	7944.8	
437.58	7372	
437.78	7370.6	
437.99	5944.6	
438.19	7810.3	
438.39	8622.6	
438.59	5874.9	
438.79	5292	
438.99	8566	
439.2	7339.2	
439.4	5556.8	
439.6	5529.5	
439.8	7656	
440	8884.8	
440.2	6656.6	
440.4	6794.5	
440.61	8189.1	
440.81	8795.3	
441.01	5831.2	
441.21	6767.9	
441.41	8606.2	
441.61	8287.4	
441.81	7062.1	
442.02	8089.5	
442.22	9114.8	
442.42	8304.5	
442.62	5924.1	
442.82	5951.4	
443.02	8619.9	
443.22	7727.7	
443.43	6403.3	
443.63	5852.4	
443.83	7468.9	
444.03	7476.5	
444.23	7220.5	
444.43	6849.1	
444.63	7856.7	
444.83	9120.3	
445.04	5853.1	
445.24	7409.6	
445.44	8197.3	
445.64	8313.4	
445.84	6757.6	
446.04	6799.3	
446.24	7506.5	
446.44	8578.9	
446.65	5971.9	
446.85	6351.4	
447.05	7928.4	
447.25	8552.3	
447.45	6522.1	
447.65	5860.6	
447.85	7892.2	
448.05	7512.6	
448.25	6910.5	
448.46	6779.5	
448.66	7816.4	
448.86	7635.5	
449.06	5701.5	
449.26	6922.8	
449.46	8258.1	
449.66	7280.5	
449.86	6423.8	
450.06	6406	
450.26	7468.3	
450.47	8049.2	
450.67	6639.5	
450.87	7062.8	
451.07	8168.7	
451.27	8045.8	
451.47	5981.4	
451.67	6584.2	
451.87	7582.9	
452.07	8800.1	
452.27	6240.2	
452.47	6144.6	
452.67	7884	
452.88	8501.1	
453.08	5448.3	
453.28	7626.6	
453.48	9131.2	
453.68	7792.5	
453.88	6054.5	
454.08	6361	
454.28	8269	
454.48	7996	
454.68	6991.8	
454.88	7410.9	
455.08	8400.8	
455.28	8239.7	
455.48	5984.2	
455.68	6700.3	
455.89	8954.4	
456.09	8623.3	
456.29	6343.9	
456.49	6426.5	
456.69	8798.1	
456.89	8067.6	
457.09	7037.5	
457.29	7480.5	
457.49	8440.4	
457.69	8473.1	
457.89	6803.4	
458.09	6181.5	
458.29	8150.9	
458.49	8886.8	
458.69	7365.2	
458.89	6705.7	
459.09	9093.7	
459.29	9358.5	
459.49	6800.6	
459.69	7618.4	
459.9	8732.5	
460.1	8203.5	
460.3	6725.5	
460.5	6516.6	
460.7	8733.9	
460.9	8435.6	
461.1	6102.9	
461.3	7484	
461.5	9411.8	
461.7	9031.5	
461.9	6588.3	
462.1	7107.8	
462.3	8465.6	
462.5	9085.5	
462.7	6763.8	
462.9	6771.9	
463.1	10175	
463.3	9923.8	
463.5	7063.4	
463.7	8159.8	
463.9	8707.3	
464.1	9150.3	
464.3	7217	
464.5	7471.7	
464.7	9469.1	
464.9	9131.2	
465.1	8828.8	
465.3	7807.5	
465.5	9789.3	
465.7	9796.8	
465.9	8179.6	
466.1	7880.6	
466.3	9641.2	
466.5	9472.5	
466.7	8939.4	
466.9	7716.1	
467.1	9339.4	
467.3	10442	
467.5	8918.2	
467.7	7659.4	
467.9	10596	
468.1	11613	
468.3	8418.5	
468.5	8976.2	
468.7	9323	
468.9	9366.7	
469.1	7829.4	
469.3	8720.3	
469.5	11486	
469.7	8946.2	
469.9	8501.8	
470.1	7757.7	
470.3	9353.8	
470.5	9471.2	
470.7	8994.7	
470.9	7784.3	
471.1	9189.2	
471.3	9622.7	
471.5	7548.1	
471.69	9570.2	
471.89	8985.1	
472.09	8494.3	
472.29	8482.7	
472.49	8751.7	
472.69	8794	
472.89	9605.7	
473.09	7534.5	
473.29	7674.4	
473.49	9004.9	
473.69	9038.4	
473.89	8634.9	
474.09	7813	
474.29	10457	
474.49	10091	
474.69	8695.7	
474.89	7959.1	
475.09	9115.5	
475.29	9112.1	
475.49	7316	
475.69	7671	
475.88	10654	
476.08	9342.2	
476.28	7220.5	
476.48	7671	
476.68	9833.7	
476.88	9740.8	
477.08	7543.4	
477.28	7911.3	
477.48	9269.1	
477.68	9874.6	
477.88	7389.1	
478.08	7731.8	
478.28	10280	
478.48	9297.1	
478.67	7738.6	
478.87	7215	
479.07	10059	
479.27	9359.2	
479.47	7963.9	
479.67	7972.7	
479.87	9769.5	
480.07	10445	
480.27	7240.9	
480.47	8974.2	
480.67	9514.2	
480.87	10187	
481.06	7488.7	
481.26	8387.1	
481.46	9376.3	
481.66	9334	
481.86	8017.8	
482.06	9074.5	
482.26	9083.4	
482.46	10125	
482.66	8017.1	
482.86	7539.9	
483.05	9473.2	
483.25	8900.5	
483.45	10585	
483.65	7978.9	
483.85	9110.7	
484.05	9383.1	
484.25	8396.7	
484.45	8994	
484.65	10388	
484.84	10330	
485.04	7938.6	
485.24	7918.8	
485.44	10628	
485.64	8880.7	
485.84	7231.4	
486.04	8669.7	
486.24	9249.3	
486.44	9691.7	
486.63	7211.6	
486.83	8091.5	
487.03	9172.2	
487.23	9475.3	
487.43	7329.7	
487.63	9927.9	
487.83	9504.6	
488.02	10568	
488.22	8462.9	
488.42	9118.2	
488.62	10379	
488.82	9371.5	
489.02	8024.6	
489.22	8058.1	
489.41	10299	
489.61	9941.5	
489.81	7812.3	
490.01	7713.3	
490.21	10174	
490.41	10961	
490.61	7766.6	
490.8	7914.7	
491	9645.9	
491.2	8955.8	
491.4	8341.4	
491.6	7447.1	
491.8	9605.7	
491.99	9839.1	
492.19	7370.6	
492.39	7824.6	
492.59	10263	
492.79	10469	
492.99	8810.4	
493.18	7901.1	
493.38	10372	
493.58	11296	
493.78	8655.4	
493.98	8185.7	
494.18	10153	
494.37	9671.2	
494.57	8955.8	
494.77	8672.5	
494.97	10475	
495.17	10787	
495.37	8465.6	
495.56	8764.6	
495.76	10946	
495.96	10557	
496.16	9671.2	
496.36	8604.9	
496.55	10718	
496.75	10392	
496.95	8994	
497.15	8858.8	
497.35	10748	
497.54	10824	
497.74	8663.6	
497.94	10493	
498.14	11521	
498.34	11307	
498.53	8361.9	
498.73	9208.4	
498.93	10134	
499.13	10810	
499.33	9049.3	
499.52	9635	
499.72	10873	
499.92	11198	
500.12	8806.3	
500.32	9000.1	
500.51	11038	
500.71	10789	
500.91	9717.6	
501.11	9407.7	
501.31	10969	
501.5	11400	
501.7	10198	
501.9	8996.7	
502.1	10689	
502.29	11071	
502.49	9504.6	
502.69	9929.2	
502.89	10869	
503.09	10981	
503.28	8478.6	
503.48	8522.3	
503.68	10149	
503.88	10152	
504.07	9630.9	
504.27	9083.4	
504.47	10580	
504.67	10720	
504.86	9588.6	
505.06	9106	
505.26	10272	
505.46	12058	
505.65	9039.7	
505.85	9244.5	
506.05	10130	
506.25	10570	
506.44	8274.5	
506.64	9294.4	
506.84	9976.3	
507.04	11006	
507.23	8505.2	
507.43	9205.6	
507.63	12130	
507.83	10257	
508.02	9020.6	
508.22	8811	
508.42	12402	
508.62	9986.6	
508.81	8999.5	
509.01	9525.1	
509.21	9896.5	
509.4	10135	
509.6	9302.6	
509.8	8565.3	
510	10167	
510.19	11712	
510.39	8576.2	
510.59	8631.5	
510.79	10070	
510.98	11439	
511.18	8677.2	
511.38	8817.2	
511.57	10811	
511.77	10662	
511.97	9494.4	
512.17	8310.7	
512.36	10873	
512.56	10739	
512.76	8514.1	
512.95	8222.6	
513.15	10960	
513.35	9534.7	
513.55	9394.7	
513.74	8442.4	
513.94	10905	
514.14	10227	
514.33	9590.6	
514.53	9156.5	
514.73	10116	
514.92	10447	
515.12	8640.4	
515.32	8490.2	
515.51	10542	
515.71	11105	
515.91	10368	
516.11	8630.1	
516.3	12353	
516.5	10100	
516.7	9170.8	
516.89	9858.2	
517.09	10274	
517.29	10019	
517.48	9547.6	
517.68	8874.5	
517.88	9807.7	
518.07	10542	
518.27	9400.9	
518.47	8376.2	
518.66	11140	
518.86	9695.1	
519.06	8181	
519.25	8708.6	
519.45	10158	
519.65	11722	
519.84	9372.9	
520.04	10122	
520.24	12094	
520.43	10776	
520.63	9009.7	
520.83	8699.1	
521.02	9897.8	
521.22	10550	
521.42	9247.9	
521.61	9931.3	
521.81	10168	
522.01	10355	
522.2	9213.8	
522.4	9050	
522.6	10832	
522.79	9706	
522.99	8930.5	
523.18	8351.6	
523.38	10768	
523.58	10718	
523.77	10522	
523.97	8483.4	
524.17	12619	
524.36	11888	
524.56	10038	
524.76	9472.5	
524.95	10833	
525.15	10430	
525.34	9374.9	
525.54	9331.9	
525.74	11241	
525.93	10202	
526.13	10593	
526.33	9362.6	
526.52	11654	
526.72	10983	
526.91	10753	
527.11	9860.3	
527.31	11663	
527.5	12100	
527.7	9740.1	
527.89	8774.2	
528.09	10576	
528.29	11268	
528.48	10387	
528.68	9944.3	
528.87	11547	
529.07	11601	
529.27	9719	
529.46	9183.1	
529.66	11037	
529.85	11586	
530.05	9087.5	
530.25	9784.5	
530.44	12563	
530.64	10981	
530.83	9567.4	
531.03	9678.7	
531.23	11497	
531.42	11466	
531.62	10656	
531.81	9916.9	
532.01	11785	
532.21	12485	
532.4	9639.1	
532.6	10025	
532.79	12938	
532.99	11886	
533.18	10109	
533.38	11087	
533.58	11483	
533.77	12243	
533.97	10085	
534.16	10875	
534.36	12538	
534.55	11492	
534.75	11122	
534.95	10125	
535.14	12352	
535.34	11467	
535.53	9734	
535.73	11772	
535.92	12843	
536.12	11680	
536.31	9833.7	
536.51	11116	
536.71	11936	
536.9	11497	
537.1	10063	
537.29	10204	
537.49	12425	
537.68	11365	
537.88	10504	
538.07	9835.7	
538.27	11686	
538.46	12848	
538.66	9686.2	
538.86	10199	
539.05	11716	
539.25	12168	
539.44	10503	
539.64	10061	
539.83	11567	
540.03	12551	
540.22	9932	
540.42	9852.8	
540.61	11768	
540.81	11878	
541	10472	
541.2	11157	
541.39	11361	
541.59	11808	
541.78	10806	
541.98	9759.9	
542.18	10909	
542.37	10918	
542.57	10163	
542.76	10716	
542.96	10836	
543.15	11727	
543.35	10114	
543.54	9466.4	
543.74	11928	
543.93	11546	
544.13	10135	
544.32	11331	
544.52	11755	
544.71	11007	
544.91	9103.9	
545.1	10507	
545.3	11028	
545.49	11820	
545.69	9039.7	
545.88	9699.2	
546.08	12675	
546.27	12254	
546.47	10297	
546.66	9529.2	
546.86	11938	
547.05	12692	
547.24	9799.5	
547.44	9615.2	
547.63	10801	
547.83	12119	
548.02	9971.6	
548.22	10220	
548.41	10653	
548.61	12062	
548.8	9508	
549	9403.6	
549.19	11311	
549.39	11581	
549.58	9142.8	
549.78	9710.1	
549.97	11619	
550.17	11154	
550.36	11385	
550.55	11710	
550.75	11140	
550.94	12126	
551.14	9336.7	
551.33	9771.5	
551.53	10484	
551.72	11460	
551.92	9782.5	
552.11	9503.9	
552.31	11475	
552.5	11572	
552.69	11211	
552.89	9053.4	
553.08	11405	
553.28	11111	
553.47	9574.9	
553.67	10748	
553.86	12078	
554.06	10299	
554.25	8669.1	
554.44	9331.2	
554.64	12869	
554.83	12375	
555.03	9191.3	
555.22	9633.6	
555.42	11711	
555.61	11267	
555.8	9325.8	
556	9692.4	
556.19	10327	
556.39	11845	
556.58	9521.7	
556.78	9529.9	
556.97	11198	
557.16	10841	
557.36	10806	
557.55	9101.2	
557.75	10122	
557.94	11996	
558.13	9180.4	
558.33	9028.1	
558.52	11835	
558.72	10624	
558.91	9000.1	
559.1	9372.9	
559.3	10292	
559.49	9977	
559.69	8523	
559.88	9619.3	
560.07	11150	
560.27	11495	
560.46	9821.4	
560.66	9934	
560.85	10811	
561.04	10107	
561.24	9039.7	
561.43	9080	
561.63	10331	
561.82	10634	
562.01	10504	
562.21	9564.7	
562.4	11110	
562.59	12056	
562.79	9372.9	
562.98	9028.8	
563.18	10954	
563.37	12669	
563.56	9867.8	
563.76	9019.3	
563.95	10488	
564.14	10393	
564.34	9379.7	
564.53	9047.2	
564.73	10960	
564.92	11477	
565.11	9684.8	
565.31	8981.7	
565.5	11598	
565.69	10596	
565.89	9119.6	
566.08	9502.6	
566.27	11503	
566.47	11934	
566.66	10006	
566.85	8748.2	
567.05	11075	
567.24	10477	
567.44	9075.2	
567.63	10534	
567.82	11349	
568.02	11040	
568.21	9147.6	
568.4	9543.5	
568.6	10922	
568.79	10970	
568.98	8895.7	
569.18	9196.7	
569.37	11008	
569.56	13037	
569.76	9445.9	
569.95	10467	
570.14	11354	
570.34	11219	
570.53	9017.2	
570.72	8911.4	
570.91	11904	
571.11	10969	
571.3	9530.6	
571.49	10501	
571.69	11054	
571.88	10600	
572.07	10145	
572.27	10081	
572.46	10503	
572.65	11682	
572.85	9255.5	
573.04	9600.9	
573.23	11981	
573.43	11188	
573.62	9090.9	
573.81	9714.9	
574	11218	
574.2	11082	
574.39	9459.6	
574.58	9710.8	
574.78	12191	
574.97	11383	
575.16	10049	
575.36	10329	
575.55	11631	
575.74	11940	
575.93	9197.4	
576.13	10336	
576.32	11020	
576.51	11675	
576.71	9539.4	
576.9	11051	
577.09	12035	
577.28	11518	
577.48	10095	
577.67	9119.6	
577.86	11256	
578.05	11529	
578.25	9753.8	
578.44	9968.8	
578.63	11329	
578.83	12603	
579.02	9187.2	
579.21	10745	
579.4	11537	
579.6	11174	
579.79	10006	
579.98	12314	
580.17	11902	
580.37	11886	
580.56	9398.8	
580.75	10219	
580.94	12517	
581.14	12223	
581.33	10802	
581.52	9573.6	
581.71	11896	
581.91	12400	
582.1	9189.9	
582.29	9870.5	
582.48	11459	
582.68	11296	
582.87	10430	
583.06	9999.5	
583.25	11718	
583.45	11619	
583.64	10662	
583.83	11533	
584.02	11155	
584.21	11718	
584.41	10699	
584.6	9959.3	
584.79	11426	
584.98	12157	
585.18	9337.4	
585.37	9336	
585.56	10776	
585.75	11721	
585.94	9632.3	
586.14	10314	
586.33	12321	
586.52	11344	
586.71	10027	
586.91	9798.8	
587.1	10765	
587.29	11636	
587.48	9591.3	
587.67	9437	
587.87	11503	
588.06	11606	
588.25	10950	
588.44	10113	
588.63	11167	
588.83	11826	
589.02	9502.6	
589.21	9326.4	
589.4	10928	
589.59	10694	
589.78	8370	
589.98	8674.5	
590.17	10161	
590.36	10877	
590.55	8099.7	
590.74	8958.5	
590.94	12205	
591.13	10595	
591.32	8714.8	
591.51	8316.8	
591.7	11159	
591.89	10605	
592.09	8327	
592.28	8998.8	
592.47	9896.5	
592.66	11844	
592.85	8466.3	
593.05	8674.5	
593.24	10475	
593.43	11299	
593.62	8753.7	
593.81	9218.6	
594	10509	
594.19	10763	
594.39	8660.9	
594.58	8546.2	
594.77	10769	
594.96	11408	
595.15	8416.5	
595.34	9181	
595.54	10884	
595.73	9955.9	
595.92	7825.3	
596.11	9133.3	
596.3	11371	
596.49	9949.7	
596.68	8824	
596.88	9319.6	
597.07	11026	
597.26	9833.7	
597.45	8235.6	
597.64	9612.5	
597.83	10039	
598.02	10825	
598.22	8383.7	
598.41	9133.3	
598.6	10513	
598.79	9918.3	
598.98	8314.1	
599.17	9343.5	
599.36	10559	
599.55	11690	
599.74	10602	
599.94	10390	
600.13	11095	
600.32	9786.6	
600.51	8035.5	
600.7	8279.3	
600.89	11747	
601.08	11804	
601.27	8054	
601.47	9051.3	
601.66	10938	
601.85	11602	
602.04	8762.6	
602.23	8987.9	
602.42	9993.4	
602.61	10630	
602.8	8613.8	
602.99	8324.3	
603.18	10273	
603.37	10525	
603.57	8996	
603.76	9699.2	
603.95	11324	
604.14	10820	
604.33	8495	
604.52	8815.1	
604.71	10557	
604.9	10099	
605.09	9476	
605.28	9314.8	
605.47	11138	
605.66	10760	
605.86	9106	
606.05	8357.1	
606.24	11073	
606.43	9549	
606.62	8774.2	
606.81	9635	
607	10816	
607.19	10249	
607.38	8115.4	
607.57	8499.8	
607.76	9984.5	
607.95	9476	
608.14	8798.8	
608.33	9533.3	
608.52	9946.3	
608.72	10798	
608.91	8136.6	
609.1	7946.8	
609.29	10062	
609.48	9568.8	
609.67	9004.2	
609.86	8086.1	
610.05	9635.7	
610.24	9989.3	
610.43	7935.9	
610.62	7389.1	
610.81	11133	
611	10977	
611.19	8063.5	
611.38	8726.4	
611.57	10214	
611.76	11708	
611.95	7728.4	
612.14	7638.9	
612.33	10079	
612.52	9489.6	
612.71	8298.4	
612.9	7524.9	
613.09	9153.1	
613.28	11671	
613.47	8085.4	
613.66	9078.6	
613.85	10216	
614.04	9692.4	
614.24	8203.5	
614.43	7395.2	
614.62	10345	
614.81	10167	
615	8791.2	
615.19	8813.1	
615.38	9507.4	
615.57	9911.5	
615.76	8649.3	
615.95	9556.5	
616.14	10357	
616.33	10003	
616.52	8934.6	
616.71	9263.6	
616.9	10294	
617.09	10159	
617.28	8312.7	
617.47	9856.2	
617.66	9377	
617.85	9432.3	
618.04	9310.1	
618.22	8669.1	
618.41	9776.3	
618.6	10718	
618.79	8600.8	
618.98	8288.8	
619.17	11125	
619.36	9301.2	
619.55	8448.6	
619.74	8566	
619.93	10356	
620.12	9759.9	
620.31	9187.2	
620.5	9309.4	
620.69	10886	
620.88	11312	
621.07	10076	
621.26	9043.1	
621.45	10561	
621.64	10688	
621.83	9181	
622.02	8237.6	
622.21	10603	
622.4	10349	
622.59	9785.9	
622.78	9396.8	
622.97	9888.3	
623.16	10971	
623.35	9130.5	
623.54	8152.3	
623.72	10225	
623.91	10290	
624.1	9301.9	
624.29	7966.6	
624.48	11471	
624.67	10665	
624.86	9239.1	
625.05	8292.9	
625.24	11531	
625.43	9841.9	
625.62	11094	
625.81	8490.9	
626	11042	
626.19	10145	
626.38	9364.7	
626.56	8708.6	
626.75	10030	
626.94	10938	
627.13	9336	
627.32	7956.4	
627.51	10731	
627.7	12089	
627.89	8094.3	
628.08	9398.8	
628.27	9913.5	
628.46	10104	
628.65	8419.9	
628.83	8056	
629.02	10786	
629.21	10049	
629.4	8795.3	
629.59	9060.9	
629.78	9878	
629.97	10892	
630.16	9213.1	
630.35	8621.9	
630.54	11368	
630.72	10961	
630.91	8673.8	
631.1	9147.6	
631.29	10529	
631.48	10705	
631.67	9295.7	
631.86	8632.2	
632.05	10064	
632.24	10168	
632.42	8319.5	
632.61	8945.5	
632.8	10219	
632.99	9779.7	
633.18	8998.8	
633.37	9363.3	
633.56	10426	
633.75	10226	
633.93	8910	
634.12	8576.2	
634.31	11306	
634.5	10928	
634.69	8665	
634.88	9095	
635.07	10191	
635.25	10873	
635.44	9590.6	
635.63	9861	
635.82	10152	
636.01	9574.9	
636.2	9491	
636.39	9127.8	
636.57	11219	
636.76	10959	
636.95	8423.3	
637.14	9893.7	
637.33	10490	
637.52	11643	
637.7	8165.3	
637.89	9213.1	
638.08	10081	
638.27	11671	
638.46	9251.4	
638.65	9650	
638.83	11546	
639.02	9871.2	
639.21	9197.4	
639.4	9661.6	
639.59	10374	
639.78	9818.6	
639.96	8356.4	
640.15	8424.7	
640.34	10174	
640.53	10363	
640.72	8014.4	
640.91	8421.2	
641.09	9600.2	
641.28	10981	
641.47	8411	
641.66	9259.5	
641.85	10290	
642.03	10405	
642.22	8947.6	
642.41	8423.3	
642.6	9628.2	
642.79	9030.2	
642.97	8187.8	
643.16	9000.8	
643.35	9656.9	
643.54	9342.2	
643.73	8024.6	
643.91	8878.6	
644.1	9191.3	
644.29	9892.4	
644.48	8133.2	
644.67	8114.7	
644.85	9334	
645.04	9759.9	
645.23	7595.9	
645.42	7942	
645.6	9208.4	
645.79	10389	
645.98	7954.3	
646.17	6905.8	
646.36	8884.8	
646.54	9485.5	
646.73	8733.2	
646.92	7492.8	
647.11	9030.2	
647.29	10258	
647.48	7580.2	
647.67	7189.7	
647.86	10458	
648.05	10555	
648.23	7965.9	
648.42	9208.4	
648.61	9782.5	
648.8	9432.3	
648.98	7555	
649.17	7811	
649.36	9087.5	
649.55	8515.5	
649.73	7550.2	
649.92	8355	
650.11	8861.6	
650.3	9212.4	
650.48	7672.4	
650.67	7471	
650.86	9494.4	
651.05	8442.4	
651.23	7645.8	
651.42	7567.2	
651.61	8949.6	
651.79	9052.7	
651.98	7762.5	
652.17	7454.6	
652.36	9392	
652.54	8397.4	
652.73	7398.6	
652.92	7234.8	
653.11	9355.8	
653.29	9400.2	
653.48	6668.9	
653.67	7589.8	
653.85	9168.1	
654.04	10201	
654.23	7859.4	
654.42	7265.5	
654.6	8591.9	
654.79	9209	
654.98	6709.1	
655.16	7279.8	
655.35	8059.4	
655.54	8014.4	
655.73	6860	
655.91	6739.2	
656.1	9290.3	
656.29	8110	
656.47	6409.5	
656.66	8258.1	
656.85	8314.8	
657.03	8484.1	
657.22	7033.4	
657.41	7098.9	
657.59	8541.4	
657.78	8293.6	
657.97	6589	
658.16	7393.8	
658.34	9211.8	
658.53	9635.7	
658.72	8331.1	
658.9	8865.7	
659.09	8626.7	
659.28	8694.3	
659.46	7137.9	
659.65	7023.9	
659.84	8354.3	
660.02	8900.5	
660.21	6877.8	
660.4	6811.5	
660.58	9396.1	
660.77	8752.3	
660.96	7544.7	
661.14	6566.5	
661.33	9955.9	
661.52	9809.1	
661.7	6452.5	
661.89	10374	
662.08	8297	
662.26	7854	
662.45	6795.2	
662.64	6894.8	
662.82	9010.4	
663.01	8148.2	
663.2	6864.8	
663.38	7650.5	
663.57	8873.8	
663.75	8754.4	
663.94	7197.2	
664.13	8497.7	
664.31	8215.8	
664.5	8983.8	
664.69	7628	
664.87	8050.6	
665.06	7983.7	
665.25	8751.7	
665.43	8264.9	
665.62	8384.4	
665.8	9057.5	
665.99	8400.1	
666.18	7133.8	
666.36	7339.9	
666.55	9022.7	
666.74	8938	
666.92	6800.6	
667.11	8571.4	
667.29	8379.6	
667.48	8998.8	
667.67	8092.9	
667.85	7091.4	
668.04	8433.5	
668.22	8383	
668.41	7273	
668.6	7406.8	
668.78	8107.2	
668.97	8402.1	
669.15	7623.9	
669.34	6475.7	
669.53	8168.7	
669.71	8460.8	
669.9	6654.5	
670.08	7486.7	
670.27	8102.4	
670.46	8807.6	
670.64	7592.5	
670.83	7974.8	
671.01	8022.6	
671.2	8686.1	
671.38	6836.1	
671.57	6642.9	
671.76	9352.4	
671.94	10027	
672.13	6659.3	
672.31	7763.2	
672.5	8871.1	
672.69	8187.8	
672.87	6806.8	
673.06	7119.4	
673.24	8687.5	
673.43	8201.4	
673.61	7535.2	
673.8	7116.7	
673.98	8911.4	
674.17	9060.2	
674.36	7717.4	
674.54	7483.3	
674.73	8553.7	
674.91	8867	
675.1	7173.4	
675.28	6823.8	
675.47	8414.4	
675.65	9081.4	
675.84	7019.8	
676.03	7404.8	
676.21	8264.2	
676.4	7735.2	
676.58	7927.7	
676.77	7606.2	
676.95	9731.9	
677.14	8150.2	
677.32	6746.7	
677.51	6503.7	
677.69	9002.9	
677.88	7779.6	
678.06	6496.2	
678.25	6671.6	
678.44	8514.1	
678.62	8125.7	
678.81	6424.5	
678.99	7412.3	
679.18	9270.5	
679.36	8842.4	
679.55	7030	
679.73	7765.2	
679.92	8720.3	
680.1	8162.5	
680.29	8273.1	
680.47	7074.4	
680.66	8090.2	
680.84	8977.6	
681.03	6238.1	
681.21	7421.2	
681.4	8143.4	
681.58	7965.2	
681.77	6778.1	
681.95	6653.9	
682.14	9022	
682.32	9331.2	
682.51	7731.8	
682.69	6419	
682.88	8038.3	
683.06	8776.9	
683.25	7377.5	
683.43	7914	
683.62	8317.5	
683.8	8791.2	
683.99	7888.8	
684.17	7279.8	
684.36	9575.6	
684.54	8088.8	
684.73	6167.1	
684.91	6453.1	
685.1	8429.4	
685.28	7764.5	
685.46	7009.5	
685.65	7094.8	
685.83	8705.9	
686.02	8132.5	
686.2	6559.6	
686.39	6789	
686.57	7974.1	
686.76	9424.8	
686.94	6627.2	
687.13	6726.2	
687.31	8572.1	
687.5	8112	
687.68	6251.8	
687.86	7601.4	
688.05	9854.1	
688.23	7642.3	
688.42	7528.3	
688.6	6699.6	
688.79	8172.8	
688.97	7999.4	
689.16	7152.9	
689.34	5975.3	
689.52	8891.6	
689.71	9036.3	
689.89	7400	
690.08	6645	
690.26	8327	
690.45	8191.2	
690.63	7603.4	
690.81	6918	
691	7991.2	
691.18	7943.4	
691.37	6985.6	
691.55	9284.8	
691.74	7907.2	
691.92	10037	
692.1	7000	
692.29	6408.8	
692.47	8156.4	
692.66	7414.3	
692.84	6672.3	
693.02	7215	
693.21	7583.6	
693.39	8087.4	
693.58	7326.3	
693.76	6728.3	
693.94	9409.7	
694.13	9139.4	
694.31	6707.1	
694.5	7811.6	
694.68	8031.5	
694.86	8316.1	
695.05	7096.9	
695.23	7528.3	
695.42	8638.3	
695.6	11172	
695.78	7680.6	
695.97	6751.5	
696.15	8828.8	
696.34	8043.1	
696.52	6455.9	
696.7	7352.9	
696.89	8353	
697.07	7820.5	
697.25	7284.6	
697.44	8809	
697.62	8406.9	
697.81	8675.2	
697.99	6978.8	
698.17	7465.5	
698.36	7703.1	
698.54	8377.6	
698.72	7331	
698.91	6227.9	
699.09	8045.8	
699.28	7840.3	
699.46	6929.6	
699.64	6834.8	
699.83	7752.9	
700.01	9113.5	
700.19	7653.3	
700.38	5981.4	
700.56	9007	
700.74	7847.1	
700.93	6474.3	
701.11	7285.3	
701.29	8513.4	
701.48	9667.8	
701.66	6690	
701.84	6673.6	
702.03	7976.8	
702.21	8757.8	
702.39	6185.5	
702.58	6824.5	
702.76	8438.3	
702.94	8558.5	
703.13	6272.2	
703.31	8851.3	
703.49	7681.2	
703.68	8703.9	
703.86	6402	
704.04	7447.1	
704.23	8154.3	
704.41	8631.5	
704.59	6574	
704.78	7855.3	
704.96	9399.5	
705.14	8806.9	
705.33	6376	
705.51	7198.6	
705.69	8038.3	
705.87	8933.2	
706.06	7430.7	
706.24	6354.8	
706.42	8376.2	
706.61	8649.3	
706.79	7606.2	
706.97	6350.8	
707.16	7757	
707.34	8388.5	
707.52	7511.3	
707.7	6597.9	
707.89	8036.2	
708.07	7548.8	
708.25	7542.7	
708.44	7580.9	
708.62	7858.1	
708.8	9044.5	
708.98	7810.3	
709.17	6583.5	
709.35	8294.3	
709.53	8312.7	
709.72	6357.6	
709.9	6781.5	
710.08	8506.6	
710.26	8537.3	
710.45	8052.6	
710.63	6698.2	
710.81	8210.3	
710.99	8112	
711.18	7349.5	
711.36	6771.3	
711.54	7992.5	
711.72	8763.9	
711.91	6849.1	
712.09	6250.4	
712.27	8228.7	
712.45	8796.7	
712.64	7087.3	
712.82	6000.5	
713	7572.7	
713.18	7666.2	
713.37	6136.4	
713.55	7455.3	
713.73	8583	
713.91	7061.4	
714.1	6393.1	
714.28	5791	
714.46	8029.4	
714.64	7203.4	
714.83	5211.4	
715.01	6102.9	
715.19	7306.5	
715.37	6723.5	
715.55	5740.5	
715.74	6106.4	
715.92	8198.7	
716.1	6201.2	
716.28	7231.4	
716.47	6249.7	
716.65	6844.3	
716.83	6944	
717.01	6052.4	
717.19	6195.8	
717.38	9234.3	
717.56	6718.7	
717.74	6389.7	
717.92	5513.1	
718.1	8069	
718.29	7237.5	
718.47	5191.6	
718.65	5887.9	
718.83	7963.9	
719.01	7887.4	
719.2	5053	
719.38	6190.3	
719.56	7494.9	
719.74	9198.1	
719.92	5666	
720.11	6748.1	
720.29	7499	
720.47	6576.7	
720.65	5169.8	
720.83	6135	
721.02	6972	
721.2	6649.8	
721.38	6169.8	
721.56	5330.9	
721.74	6174.6	
721.92	6440.2	
722.11	6657.3	
722.29	6365.8	
722.47	7660.8	
722.65	6849.8	
722.83	5467.4	
723.01	6365.8	
723.2	7004.7	
723.38	7200	
723.56	4783.4	
723.74	6055.8	
723.92	6456.6	
724.1	7634.8	
724.29	5290.6	
724.47	6470.9	
724.65	6431.3	
724.83	6331	
725.01	5170.4	
725.19	6195.8	
725.37	6477.7	
725.56	6632.7	
725.74	5080.3	
725.92	5333.6	
726.1	6324.1	
726.28	6678.4	
726.46	5726.8	
726.64	5472.2	
726.83	6665.5	
727.01	7037.5	
727.19	5014.8	
727.37	5930.9	
727.55	6795.8	
727.73	7378.8	
727.91	5008.6	
728.09	4853	
728.28	7334.5	
728.46	8016.4	
728.64	6021.7	
728.82	6057.9	
729	8542.8	
729.18	7736.5	
729.36	5211.4	
729.54	7710.6	
729.72	8813.8	
729.91	7129.7	
730.09	7266.9	
730.27	5942.5	
730.45	6923.5	
730.63	7572	
730.81	6557.6	
730.99	5556.8	
731.17	8181.6	
731.35	6623.1	
731.53	6090	
731.71	5672.2	
731.9	7894.2	
732.08	8104.5	
732.26	5941.2	
732.44	5583.4	
732.62	8168	
732.8	7578.2	
732.98	6379.4	
733.16	5316.5	
733.34	7551.5	
733.52	6336.4	
733.7	5935.7	
733.88	6186.2	
734.07	7398.6	
734.25	7173.4	
734.43	5427.1	
734.61	7038.2	
734.79	8751.7	
734.97	7017	
735.15	5500.8	
735.33	5854.5	
735.51	7384.3	
735.69	6962.4	
735.87	7555.6	
736.05	6134.3	
736.23	7292.8	
736.41	7040.2	
736.59	5957.5	
736.77	6085.9	
736.95	7737.2	
737.13	7036.8	
737.32	5586.2	
737.5	5793	
737.68	8315.4	
737.86	7023.9	
738.04	5358.2	
738.22	7344.7	
738.4	6741.9	
738.58	7082.6	
738.76	6032.6	
738.94	4888.5	
739.12	6851.8	
739.3	6818.4	
739.48	6718	
739.66	6424.5	
739.84	7184.3	
740.02	7202	
740.2	4992.3	
740.38	5418.9	
740.56	7606.8	
740.74	6390.3	
740.92	6182.8	
741.1	6014.9	
741.28	6972	
741.46	6849.8	
741.64	5610.8	
741.82	6191	
742	6954.2	
742.18	7047.1	
742.36	5838.1	
742.54	5473.5	
742.72	7603.4	
742.9	6350.1	
743.08	6305.7	
743.26	4986.1	
743.44	7836.9	
743.62	7651.9	
743.8	6427.2	
743.98	5378.6	
744.16	7378.1	
744.34	7080.5	
744.52	6262	
744.7	6191	
744.88	7456	
745.06	6928.3	
745.24	6399.9	
745.42	6475	
745.6	7497.6	
745.78	7268.2	
745.96	5133.6	
746.14	5410.7	
746.32	8408.3	
746.5	7628	
746.68	6109.1	
746.86	5467.4	
747.03	7968.6	
747.21	6182.8	
747.39	5976.7	
747.57	5470.1	
747.75	7167.9	
747.93	7587.7	
748.11	5457.8	
748.29	5387.5	
748.47	8805.6	
748.65	6845	
748.83	6230.6	
749.01	5965.7	
749.19	7402	
749.37	6507.8	
749.55	5739.8	
749.73	5842.9	
749.91	7004.1	
750.09	6722.8	
750.26	5960.3	
750.44	5254.4	
750.62	7015.7	
750.8	7034.8	
750.98	5110.4	
751.16	5489.9	
751.34	7042.3	
751.52	6417.7	
751.7	6257.2	
751.88	5183.4	
752.06	7578.8	
752.24	7354.3	
752.42	5129.5	
752.59	5399.1	
752.77	6938.5	
752.95	8361.9	
753.13	6237.4	
753.31	5566.4	
753.49	6688.7	
753.67	7129	
753.85	5915.9	
754.03	5458.5	
754.21	7456.7	
754.38	7849.9	
754.56	5627.8	
754.74	4529.4	
754.92	6542.6	
755.1	7380.9	
755.28	4516.5	
755.46	4626.4	
755.64	7957.7	
755.82	8071.7	
755.99	4722.6	
756.17	4725.3	
756.35	5254.4	
756.53	6962.4	
756.71	3534.8	
756.89	4556.7	
757.07	6578.8	
757.25	5552	
757.42	5164.3	
757.6	6205.3	
757.78	6730.3	
757.96	5600.5	
758.14	4955.4	
758.32	4450.9	
758.5	5208.7	
758.67	6039.5	
758.85	4762.9	
759.03	4842.8	
759.21	6298.2	
759.39	5649	
759.57	4292.5	
759.75	5557.5	
759.92	6960.4	
760.1	6145.3	
760.28	5935.7	
760.46	6217.6	
760.64	5951.4	
760.82	5724.8	
760.99	5829.9	
761.17	4932.2	
761.35	6896.2	
761.53	5791	
761.71	5084.4	
761.89	5799.8	
762.06	6749.4	
762.24	6228.6	
762.42	5256.5	
762.6	4943.8	
762.78	6229.9	
762.96	6981.5	
763.13	5588.2	
763.31	5323.4	
763.49	7126.9	
763.67	6245.6	
763.85	6220.4	
764.02	6789.7	
764.2	7392.5	
764.38	6612.2	
764.56	5101.5	
764.74	6107	
764.91	7488.7	
765.09	6351.4	
765.27	4799.1	
765.45	4604.5	
765.63	7563.8	
765.8	7412.3	
765.98	4289.1	
766.16	4661.2	
766.34	5900.9	
766.52	5637.4	
766.69	5631.2	
766.87	4471.4	
767.05	6297.5	
767.23	6965.8	
767.41	4803.9	
767.58	4977.2	
767.76	6902.3	
767.94	6919.4	
768.12	4905.6	
768.29	5599.1	
768.47	6348	
768.65	7138.5	
768.83	4443.4	
769	5709.1	
769.18	5838.8	
769.36	6678.4	
769.54	5707	
769.72	4519.9	
769.89	6888.7	
770.07	7073.7	
770.25	4827.7	
770.43	6176.7	
770.6	7669	
770.78	8122.9	
770.96	4941.1	
771.14	5680.4	
771.31	6748.1	
771.49	6083.1	
771.67	4107.5	
771.85	4377.2	
772.02	5289.2	
772.2	6090	
772.38	5132.9	
772.55	4635.9	
772.73	6325.5	
772.91	6144.6	
773.09	4971.8	
773.26	5030.5	
773.44	6287.9	
773.62	5880.4	
773.8	4493.9	
773.97	4185.4	
774.15	6365.8	
774.33	5911.1	
774.5	4307.6	
774.68	4754.7	
774.86	6553.5	
775.04	5982.8	
775.21	4343.1	
775.39	4397	
775.57	6236.1	
775.74	6703	
775.92	4303.5	
776.1	4080.2	
776.27	6235.4	
776.45	7537.2	
776.63	4393.6	
776.81	3946.4	
776.98	5819.6	
777.16	7000.6	
777.34	4557.4	
777.51	4871.4	
777.69	5756.2	
777.87	5515.2	
778.04	4491.9	
778.22	5163.6	
778.4	5593.7	
778.57	6256.5	
778.75	3806.5	
778.93	4053.6	
779.1	5347.9	
779.28	5193	
779.46	3798.3	
779.64	4309.6	
779.81	6399.2	
779.99	7353.6	
780.17	5144.5	
780.34	5341.8	
780.52	5812.1	
780.69	6062.7	
780.87	4619.5	
781.05	4151.9	
781.22	5861.3	
781.4	5986.9	
781.58	4334.2	
781.75	3428.3	
781.93	5958.9	
782.11	5294	
782.28	5279	
782.46	4278.9	
782.64	5065.3	
782.81	6088.6	
782.99	4339	
783.17	4342.4	
783.34	5992.4	
783.52	5095.3	
783.69	4599.7	
783.87	5481.7	
784.05	5171.8	
784.22	5245.5	
784.4	5433.9	
784.58	4674.1	
784.75	6230.6	
784.93	5281	
785.1	4280.9	
785.28	4906.3	
785.46	5926.1	
785.63	5185.5	
785.81	4220.2	
785.99	4065.9	
786.16	5376.6	
786.34	5793	
786.51	4108.9	
786.69	4534.9	
786.87	4949.3	
787.04	5515.9	
787.22	3952.6	
787.39	4943.1	
787.57	5175.2	
787.75	6390.3	
787.92	5143.1	
788.1	5110.4	
788.27	5218.9	
788.45	5025	
788.63	4825	
788.8	3407.1	
788.98	5786.9	
789.15	4952	
789.33	3579.8	
789.5	4264.6	
789.68	6225.1	
789.86	6305	
790.03	4745.1	
790.21	4064.5	
790.38	6182.1	
790.56	5329.5	
790.73	3947.8	
790.91	4039.3	
791.09	5211.4	
791.26	6002.6	
791.44	4233.2	
791.61	3611.9	
791.79	5168.4	
791.96	5329.5	
792.14	3708.9	
792.32	3275.4	
792.49	5173.2	
792.67	5343.8	
792.84	3777.8	
793.02	3606.5	
793.19	5580.7	
793.37	6479.1	
793.54	3360	
793.72	3687	
793.89	6617.7	
794.07	5177.9	
794.25	4341	
794.42	3420.8	
794.6	6356.2	
794.77	5907	
794.95	4673.5	
795.12	4003.1	
795.3	5181.4	
795.47	5882.4	
795.65	4467.3	
795.82	4248.9	
796	4926.7	
796.17	7028.6	
796.35	4098	
796.52	4945.2	
796.7	5758.9	
796.87	5801.9	
797.05	5071.5	
797.22	5032.5	
797.4	5790.3	
797.57	6959	
797.75	4195.6	
797.92	3992.2	
798.1	6150.7	
798.27	5199.8	
798.45	3348.4	
798.62	3685	
798.8	5531.6	
798.97	6095.4	
799.15	4534.9	
799.32	4265.9	
799.5	4767.7	
799.67	5601.9	
799.85	4627.7	
800.02	3313.6	
800.2	5111	
800.37	5471.5	
800.55	4835.3	
800.72	3995.6	
800.9	5976.7	
801.07	6514.6	
801.25	5352.7	
801.42	4341.7	
801.6	6029.9	
801.77	5786.9	
801.95	4071.4	
802.12	3902.1	
802.29	5735	
802.47	5655.1	
802.64	4379.9	
802.82	3345	
802.99	5103.5	
803.17	6193.7	
803.34	4246.8	
803.52	3820.8	
803.69	6920.8	
803.87	4970.4	
804.04	4233.8	
804.21	4300.1	
804.39	6292.7	
804.56	5366.4	
804.74	3547.1	
804.91	4398.4	
805.09	5167	
805.26	5242.8	
805.44	3629.7	
805.61	4001.7	
805.78	5836.7	
805.96	5871.5	
806.13	4410	
806.31	4741.7	
806.48	4709.6	
806.66	5252.4	
806.83	4367.6	
807	4343.1	
807.18	5088.5	
807.35	5584.8	
807.53	4298	
807.7	3401.7	
807.87	6408.8	
808.05	5231.9	
808.22	4717.8	
808.4	3419.4	
808.57	5254.4	
808.74	4813.4	
808.92	3888.4	
809.09	5040.7	
809.27	5027.8	
809.44	5698.8	
809.61	3428.3	
809.79	3825.6	
809.96	6402	
810.14	6000.5	
810.31	3325.9	
810.48	4138.9	
810.66	5241.4	
810.83	6021	
811.01	4174.4	
811.18	4321.9	
811.35	5926.1	
811.53	4565.6	
811.7	4795	
811.87	4427.7	
812.05	5173.2	
812.22	5084.4	
812.39	3701.4	
812.57	3657	
812.74	5165.7	
812.92	6978.1	
813.09	4058.4	
813.26	4496.7	
813.44	6685.3	
813.61	5128.1	
813.78	3398.9	
813.96	4590.9	
814.13	5160.2	
814.3	4805.2	
814.48	4971.8	
814.65	4095.9	
814.82	6572.6	
815	4926.7	
815.17	4276.2	
815.34	5228.5	
815.52	5098.8	
815.69	5104.9	
815.87	4181.3	
816.04	3624.9	
816.21	5188.2	
816.38	4531.5	
816.56	4108.9	
816.73	3717.1	
816.9	6583.5	
817.08	6012.8	
817.25	3774.4	
817.42	4803.9	
817.6	4697.4	
817.77	5212.1	
817.94	4334.9	
818.12	3782.6	
818.29	4927.4	
818.46	7849.2	
818.64	3943	
818.81	3656.3	
818.98	4838.7	
819.16	7081.2	
819.33	4497.3	
819.5	4234.5	
819.67	5576.6	
819.85	6264.7	
820.02	4099.4	
820.19	4440	
820.37	5459.9	
820.54	4930.8	
820.71	4310.3	
820.88	5368.4	
821.06	5418.9	
821.23	4962.2	
821.4	4332.1	
821.58	4282.3	
821.75	6015.6	
821.92	5348.6	
822.09	3424.9	
822.27	3745.7	
822.44	5225.1	
822.61	5098.8	
822.79	3398.9	
822.96	6713.2	
823.13	5767.8	
823.3	4910.3	
823.48	3997.6	
823.65	3627	
823.82	5956.2	
823.99	4796.3	
824.17	5114.5	
824.34	3644	
824.51	6898.2	
824.68	5290.6	
824.86	3842.7	
825.03	4323.3	
825.2	5171.8	
825.37	6358.3	
825.55	3752.6	
825.72	4270.7	
825.89	6976.1	
826.06	6379.4	
826.24	4126	
826.41	4158.1	
826.58	6299.6	
826.75	5474.2	
826.92	3237.2	
827.1	3546.4	
827.27	8748.2	
827.44	6929	
827.61	3853.6	
827.79	4721.9	
827.96	4911	
828.13	5304.9	
828.3	4070.7	
828.47	3436.5	
828.65	5392.3	
828.82	5378	
828.99	5317.2	
829.16	4641.4	
829.34	5823.7	
829.51	5636.7	
829.68	4269.3	
829.85	4447.5	
830.02	6044.9	
830.2	5874.9	
830.37	3278.1	
830.54	5076.9	
830.71	6733.7	
830.88	5161.6	
831.05	3332.7	
831.23	3832.4	
831.4	6352.8	
831.57	7159	
831.74	3923.9	
831.91	3485	
832.09	5437.4	
832.26	5789.6	
832.43	4079.6	
832.6	4578.6	
832.77	5437.4	
832.94	6296.1	
833.12	3221.5	
833.29	3966.2	
833.46	5248.9	
833.63	7466.2	
833.8	4427	
833.97	4095.9	
834.15	5826.5	
834.32	5571.2	
834.49	4243.4	
834.66	4298	
834.83	6016.9	
835	4939.7	
835.17	3908.2	
835.35	3882.3	
835.52	5711.1	
835.69	5629.2	
835.86	4147.8	
836.03	3348.4	
836.2	5801.2	
836.37	5354.1	
836.55	4034.5	
836.72	3772.4	
836.89	5354.1	
837.06	5890	
837.23	4193.6	
837.4	4571.1	
837.57	6712.6	
837.75	7392.5	
837.92	3724.6	
838.09	3944.4	
838.26	5306.3	
838.43	6100.2	
838.6	4240.7	
838.77	3796.3	
838.94	6995.2	
839.11	6741.2	
839.29	4042.7	
839.46	3182.5	
839.63	5791	
839.8	5530.9	
839.97	3984	
840.14	3924.6	
840.31	5523.4	
840.48	5801.2	
840.65	3263.1	
840.82	4040	
841	5878.4	
841.17	5705	
841.34	3589.4	
841.51	3684.3	
841.68	5756.2	
841.85	5503.6	
842.02	3755.3	
842.19	3127.9	
842.36	5548.6	
842.53	5517.9	
842.7	3575.8	
842.87	4458.4	
843.05	7398.6	
843.22	5496.7	
843.39	3419.4	
843.56	3749.1	
843.73	5253	
843.9	5838.8	
844.07	6023.8	
844.24	4899.4	
844.41	8741.4	
844.58	5007.3	
844.75	3476.1	
844.92	3749.8	
845.09	5772.5	
845.26	5810.8	
845.43	3608.5	
845.6	3764.8	
845.77	5776	
845.94	5462.6	
846.12	4037.9	
846.29	4231.8	
846.46	6012.8	
846.63	5725.4	
846.8	3543	
846.97	4306.2	
847.14	6260	
847.31	5735.7	
847.48	4048.2	
847.65	4460.5	
847.82	6124.8	
847.99	6123.4	
848.16	4836.6	
848.33	4484.4	
848.5	5363.6	
848.67	6291.4	
848.84	3603.7	
849.01	3766.9	
849.18	5147.2	
849.35	4854.4	
849.52	4517.8	
849.69	3530	
849.86	5997.1	
850.03	6289.3	
850.2	3586.7	
850.37	4473.4	
850.54	6206	
850.71	5362.9	
850.88	4326.7	
851.05	3547.1	
851.22	5666.7	
851.39	6378.7	
851.56	3458.3	
851.73	4225.6	
851.9	5072.1	
852.07	6051.1	
852.24	3991.5	
852.41	3573	
852.58	5664	
852.75	5169.1	
852.92	4044.1	
853.09	3538.9	
853.26	5369.8	
853.43	6279.8	
853.6	3563.5	
853.77	3046.7	
853.94	6305.7	
854.11	5770.5	
854.28	5361.6	
854.44	3878.2	
854.61	6849.1	
854.78	6057.9	
854.95	3556.6	
855.12	4525.3	
855.29	4642.7	
855.46	6477	
855.63	3601.7	
855.8	5030.5	
855.97	5356.8	
856.14	6126.8	
856.31	5079	
856.48	3907.5	
856.65	5351.3	
856.82	5038.7	
856.99	3447.4	
857.16	3900.7	
857.33	7124.9	
857.49	5466.7	
857.66	3857	
857.83	4228.4	
858	5349.3	
858.17	5656.5	
858.34	3366.2	
858.51	3591.5	
858.68	6529.6	
858.85	6576	
859.02	4179.2	
859.19	4423.6	
859.36	5016.8	
859.52	5098.1	
859.69	3595.6	
859.86	4259.1	
860.03	5116.5	
860.2	6400.6	
860.37	3233.7	
860.54	3624.2	
860.71	6038.8	
860.88	6466.1	
861.05	4074.8	
861.21	4542.4	
861.38	6464.1	
861.55	4956.8	
861.72	3232.4	
861.89	4025.6	
862.06	6100.2	
862.23	6709.1	
862.4	3499.3	
862.56	3710.2	
862.73	5855.1	
862.9	5577.3	
863.07	4302.1	
863.24	3250.8	
863.41	4907.6	
863.58	5066.7	
863.75	3680.2	
863.91	4106.9	
864.08	6368.5	
864.25	5905	
864.42	4515.1	
864.59	5102.9	
864.76	6802.7	
864.93	5121.3	
865.09	3481.5	
865.26	3848.1	
865.43	6344.6	
865.6	6706.4	
865.77	3145.7	
865.94	3598.3	
866.1	6319.3	
866.27	6138.4	
866.44	5390.9	
866.61	3378.5	
866.78	5452.4	
866.95	5969.1	
867.11	3437.2	
867.28	3180.5	
867.45	6189.6	
867.62	5158.2	
867.79	4187.4	
867.96	3530	
868.12	5064.6	
868.29	6087.9	
868.46	3107.5	
868.63	4833.9	
868.8	6290	
868.97	5978.7	
869.13	3788.7	
869.3	3741.6	
869.47	5909.1	
869.64	6143.9	
869.81	3594.9	
869.97	3554.6	
870.14	5821	
870.31	6550.8	
870.48	3545	
870.65	4474.1	
870.81	5404.6	
870.98	5322.7	
871.15	4088.4	
871.32	3754.6	
871.48	5862.7	
871.65	6559.6	
871.82	3606.5	
871.99	3997	
872.16	6998.6	
872.32	6389.7	
872.49	3629	
872.66	3625.6	
872.83	6032	
872.99	5318.6	
873.16	4081.6	
873.33	3543	
873.5	5671.5	
873.67	5687.2	
873.83	3754.6	
874	4848.9	
874.17	5858.6	
874.34	6942.6	
874.5	4662.5	
874.67	4500.8	
874.84	6451.8	
875.01	5029.1	
875.17	5030.5	
875.34	3574.4	
875.51	5756.2	
875.68	6920.1	
875.84	4339.6	
876.01	5257.1	
876.18	6008.7	
876.34	5907.7	
876.51	3646.1	
876.68	3519.1	
876.85	5457.2	
877.01	6271.6	
877.18	5147.2	
877.35	3575.1	
877.52	5537.7	
877.68	4983.4	
877.85	3494.5	
878.02	3502.7	
878.18	5567.7	
878.35	5257.8	
878.52	2873.3	
878.69	4016.1	
878.85	6009.4	
879.02	5951.4	
879.19	5122	
879.35	3860.4	
879.52	5971.2	
879.69	6161.7	
879.86	3063.1	
880.02	4063.2	
880.19	5540.4	
880.36	6876.4	
880.52	4174.4	
880.69	4224.3	
880.86	6065.4	
881.02	6135	
881.19	3947.8	
881.36	3900	
881.52	5948.7	
881.69	5269.4	
881.86	3907.5	
882.02	3754.6	
882.19	6269.5	
882.36	7419.1	
882.52	3723.9	
882.69	5137	
882.86	5794.4	
883.02	5659.2	
883.19	4366.3	
883.36	4162.2	
883.52	6103.6	
883.69	6993.8	
883.86	3607.8	
884.02	3176.4	
884.19	6034.7	
884.36	5537.7	
884.52	4109.6	
884.69	3793.5	
884.86	5317.2	
885.02	6717.3	
885.19	4040	
885.36	4174.4	
885.52	5625.8	
885.69	5724.1	
885.86	5216.2	
886.02	4640	
886.19	6111.1	
886.35	5450.3	
886.52	3973.1	
886.69	5114.5	
886.85	5104.2	
887.02	6432.7	
887.19	6432.7	
887.35	6432.7	
887.52	6432.7	
887.68	6432.7	
887.85	6432.7	
888.02	6432.7	
888.18	6432.7	
888.35	6432.7	
888.51	6432.7	
888.68	6432.7	
888.85	6432.7	
889.01	6432.7	
889.18	6432.7	
889.35	6432.7	
889.51	6432.7	
889.68	6432.7	
889.84	6432.7	
890.01	6432.7	
890.17	6432.7	
890.34	6432.7	
890.51	6432.7	
890.67	6432.7	
890.84	6432.7	
891	6432.7	
891.17	6432.7	
891.34	6432.7	
891.5	6432.7	
891.67	6432.7	
891.83	6432.7	
892	6432.7	
892.16	6432.7	
892.33	6432.7	
892.5	6432.7	
892.66	6432.7	
892.83	6432.7	
892.99	6432.7	
893.16	6432.7	
893.32	6432.7	
893.49	6432.7	
893.65	6432.7	
893.82	6432.7	
893.99	6432.7	
894.15	6432.7	
894.32	6432.7	
894.48	6432.7	
894.65	6432.7	
894.81	6432.7	
894.98	6432.7	
895.14	6432.7	
895.31	6432.7	
895.47	6432.7	
895.64	6432.7	
895.81	6432.7	
895.97	6432.7	
896.14	6432.7	
896.3	6432.7	
896.47	6432.7	
896.63	6432.7	
896.8	6432.7	
896.96	6432.7	
897.13	6432.7	
897.29	6432.7	
897.46	6432.7	
897.62	6432.7	
897.79	6432.7	
897.95	6432.7	
898.12	6432.7	
898.28	6432.7	
898.45	6432.7	
898.61	6432.7	
898.78	6432.7	
898.94	6432.7	
899.11	6432.7	
899.27	6432.7	
899.44	6432.7	
899.6	6432.7	
899.77	6432.7	
899.93	6432.7	
900.1	6432.7	
900.26	6432.7	
900.43	6432.7	
900.59	6432.7	
900.76	6432.7	
900.92	6432.7	
901.09	6432.7	
901.25	6432.7	
901.42	6432.7	
901.58	6432.7	
901.75	6432.7	
901.91	6432.7	
902.07	6432.7	
902.24	6432.7	
902.4	6432.7	
902.57	6432.7	
902.73	6432.7	
902.9	6432.7	
903.06	6432.7	
903.23	6432.7	
903.39	6432.7	
903.56	6432.7	
903.72	6432.7	
903.88	6432.7	
904.05	6432.7	
904.21	6432.7	
904.38	6432.7	
904.54	6432.7	
904.71	6432.7	
904.87	6432.7	
905.03	6432.7	
905.2	6432.7	
905.36	6432.7	
905.53	6432.7	
905.69	6432.7	
905.86	6432.7	
906.02	6432.7	
906.18	6432.7	
906.35	6432.7	
906.51	6432.7	
906.68	6432.7	
906.84	6432.7	
907.01	6432.7	
907.17	6432.7	
907.33	6432.7	
907.5	6432.7	
907.66	6432.7	
907.83	6432.7	
907.99	6432.7	
908.15	6432.7	
908.32	6432.7	
908.48	6432.7	
908.65	6432.7	
908.81	6432.7	
908.97	6432.7	
909.14	6432.7	
909.3	6432.7	
909.47	6432.7	
909.63	6432.7	
909.79	6432.7	
909.96	6432.7	
910.12	6432.7	
910.28	6432.7	
910.45	6432.7	
910.61	6432.7	
910.78	6432.7	
910.94	6432.7	
911.1	6432.7	
911.27	6432.7	
911.43	6432.7	
911.59	6432.7	
911.76	6432.7	
911.92	6432.7	
912.08	6432.7	
912.25	6432.7	
912.41	6432.7	
912.57	6432.7	
912.74	6432.7	
912.9	6432.7	
913.07	6432.7	
913.23	6432.7	
913.39	6432.7	
913.56	6432.7	
913.72	6432.7	
913.88	6432.7	
914.05	6432.7	
914.21	6432.7	
914.37	6432.7	
914.54	6432.7	
914.7	6432.7	
914.86	6432.7	
915.03	6432.7	
915.19	6432.7	
