Wavelength	Intensities	
nm	a.u.	
179.22	1728.1	
179.44	1731.9	
179.65	1724.4	
179.86	1739.4	
180.08	1735.3	
180.29	4033.8	
180.51	3119.7	
180.72	5006.6	
180.94	5652.4	
181.15	2820.1	
181.37	2796.2	
181.58	4881.7	
181.79	5098.8	
182.01	2891	
182.22	3041.2	
182.44	5053.7	
182.65	4328	
182.87	3717.1	
183.08	3323.2	
183.29	5360.2	
183.51	4478.2	
183.72	3069.2	
183.94	4311.7	
184.15	4730.8	
184.37	4776.5	
184.58	2751.8	
184.79	3525.9	
185.01	4551.3	
185.22	5162.2	
185.44	3806.5	
185.65	3295.2	
185.86	4829.8	
186.08	4416.8	
186.29	2693.1	
186.51	2846	
186.72	4519.2	
186.94	5176.6	
187.15	3296.5	
187.36	3362.1	
187.58	6518.7	
187.79	4838.7	
188.01	3434.4	
188.22	5238	
188.43	5768.4	
188.65	5074.9	
188.86	2865.8	
189.08	3404.4	
189.29	4646.2	
189.5	4612	
189.72	3177.8	
189.93	3237.2	
190.15	5251.7	
190.36	6028.5	
190.57	3370.3	
190.79	3291.8	
191	5246.2	
191.22	5255.8	
191.43	3448.8	
191.64	2927.9	
191.86	5425.8	
192.07	5190.9	
192.29	2955.9	
192.5	3095.8	
192.71	5194.3	
192.93	4647.5	
193.14	3099.3	
193.35	3182.5	
193.57	4580.6	
193.78	5190.9	
194	2555.9	
194.21	3005.7	
194.42	4455.7	
194.64	4809.3	
194.85	3330	
195.07	3878.2	
195.28	4752.7	
195.49	4252.9	
195.71	4044.7	
195.92	2907.4	
196.13	5012.1	
196.35	5002.5	
196.56	4223.6	
196.78	3384.6	
196.99	5989.6	
197.2	5638.7	
197.42	3777.1	
197.63	3368.9	
197.84	4356	
198.06	4977.9	
198.27	3100.6	
198.48	4017.4	
198.7	4634.6	
198.91	4770.4	
199.13	3323.2	
199.34	3369.6	
199.55	5139	
199.77	4163.5	
199.98	2985.3	
200.19	3391.4	
200.41	4788.8	
200.62	4515.1	
200.83	3508.2	
201.05	3735.5	
201.26	4769.7	
201.47	4592.2	
201.69	2981.2	
201.9	2947.7	
202.11	4866.7	
202.33	5525.4	
202.54	3179.1	
202.76	3569.6	
202.97	4900.1	
203.18	4958.8	
203.4	3452.2	
203.61	3467.2	
203.82	4835.9	
204.04	4555.4	
204.25	3414.6	
204.46	3302.7	
204.68	4816.1	
204.89	5009.3	
205.1	3300.6	
205.32	2887	
205.53	5072.8	
205.74	5201.8	
205.96	2509.4	
206.17	3434.4	
206.38	5038.7	
206.6	5178.6	
206.81	3798.3	
207.02	3154.6	
207.24	4999.8	
207.45	5285.8	
207.66	3252.9	
207.88	2798.9	
208.09	4966.3	
208.3	4849.6	
208.52	3005.1	
208.73	3281.5	
208.94	4746.5	
209.15	5318.6	
209.37	3183.9	
209.58	3335.5	
209.79	5220.3	
210.01	4659.8	
210.22	2628.2	
210.43	2752.5	
210.65	4743.8	
210.86	5080.3	
211.07	3200.3	
211.29	2943.6	
211.5	5089.9	
211.71	4712.4	
211.93	3001.6	
212.14	2964.1	
212.35	4776.5	
212.56	4853	
212.78	3373.7	
212.99	2846	
213.2	5471.5	
213.42	4618.2	
213.63	3062.4	
213.84	3224.2	
214.06	4357.4	
214.27	4430.4	
214.48	3202.3	
214.69	3428.3	
214.91	5347.9	
215.12	5390.3	
215.33	3455.6	
215.55	3707.5	
215.76	5707.7	
215.97	5096	
216.18	3281.5	
216.4	3282.2	
216.61	4539	
216.82	5160.2	
217.04	2997.5	
217.25	3098.6	
217.46	5311.7	
217.67	5040.1	
217.89	2738.8	
218.1	2820.1	
218.31	4924	
218.53	4973.8	
218.74	3169.6	
218.95	3058.3	
219.16	4825	
219.38	5505.6	
219.59	3024.2	
219.8	3536.2	
220.01	5948.7	
220.23	4857.8	
220.44	3860.4	
220.65	2918.4	
220.87	4895.3	
221.08	5267.4	
221.29	2893.1	
221.5	3611.3	
221.72	6292	
221.93	4573.8	
222.14	3382.6	
222.35	3981.9	
222.57	4788.2	
222.78	5137.7	
222.99	3281.5	
223.2	3440.6	
223.42	5044.1	
223.63	5089.2	
223.84	2591.4	
224.05	2602.3	
224.27	5902.9	
224.48	5498.8	
224.69	3936.9	
224.9	3408.5	
225.12	4984.1	
225.33	4798.4	
225.54	2775.7	
225.75	3052.2	
225.97	4494.6	
226.18	4733.5	
226.39	3262.4	
226.6	3100.6	
226.82	4641.4	
227.03	4466.6	
227.24	3349.8	
227.45	2857.6	
227.67	5120.6	
227.88	5399.1	
228.09	3778.5	
228.3	3796.9	
228.52	5065.3	
228.73	4780.6	
228.94	3177.1	
229.15	2833.7	
229.36	4763.6	
229.58	4745.8	
229.79	3194.1	
230	3661.8	
230.21	5595.7	
230.43	4868.7	
230.64	3333.4	
230.85	3472.7	
231.06	5130.2	
231.28	5160.2	
231.49	2884.2	
231.7	3298.6	
231.91	5072.1	
232.12	4846.9	
232.34	2919	
232.55	3276.1	
232.76	5261.9	
232.97	4925.4	
233.18	2995.5	
233.4	3304.7	
233.61	4956.8	
233.82	4571.7	
234.03	3143.6	
234.25	3120.4	
234.46	6365.8	
234.67	4810.7	
234.88	3453.6	
235.09	3005.1	
235.31	4957.4	
235.52	4710.3	
235.73	3304.7	
235.94	2833.7	
236.15	4612	
236.37	5717.2	
236.58	2977.7	
236.79	3232.4	
237	5051	
237.21	4384	
237.43	3450.1	
237.64	2792.1	
237.85	7965.9	
238.06	4453	
238.27	3447.4	
238.48	2863.7	
238.7	5088.5	
238.91	4694.6	
239.12	3224.2	
239.33	3253.5	
239.54	4536.3	
239.76	4758.8	
239.97	3226.2	
240.18	3201	
240.39	5786.9	
240.6	4922	
240.82	3394.8	
241.03	2805.7	
241.24	4783.4	
241.45	5410.1	
241.66	3005.7	
241.87	3511.6	
242.09	5393.7	
242.3	5571.2	
242.51	3567.6	
242.72	3198.9	
242.93	5155.4	
243.14	4779.3	
243.36	3748.5	
243.57	3913.7	
243.78	5470.8	
243.99	4975.2	
244.2	3215.3	
244.41	2981.8	
244.63	4467.3	
244.84	5001.8	
245.05	3438.5	
245.26	3259	
245.47	5066	
245.68	5169.8	
245.9	4135.5	
246.11	3435.1	
246.32	4647.5	
246.53	5018.9	
246.74	5044.1	
246.95	2770.9	
247.16	4474.1	
247.38	4797	
247.59	2841.9	
247.8	3254.2	
248.01	4467.3	
248.22	4747.9	
248.43	2973.7	
248.64	3208.5	
248.86	4401.8	
249.07	4667.3	
249.28	2944.3	
249.49	3371.6	
249.7	5240.1	
249.91	5281	
250.12	2772.3	
250.34	2828.9	
250.55	4900.1	
250.76	4899.4	
250.97	3359.4	
251.18	3407.1	
251.39	5354.8	
251.6	5004.6	
251.81	3407.1	
252.03	3353.9	
252.24	4569	
252.45	5130.2	
252.66	2849.4	
252.87	3547.8	
253.08	4774.5	
253.29	5968.5	
253.5	2904.7	
253.72	3833.1	
253.93	4729.4	
254.14	5564.3	
254.35	3119.7	
254.56	3149.1	
254.77	4960.9	
254.98	4526.7	
255.19	3104.7	
255.41	3846.8	
255.62	4913.8	
255.83	5265.3	
256.04	3444.7	
256.25	3396.9	
256.46	5739.8	
256.67	4582	
256.88	3343	
257.09	3690.4	
257.31	4528.1	
257.52	4577.2	
257.73	4132.8	
257.94	3125.9	
258.15	4703.5	
258.36	4820.9	
258.57	3817.4	
258.78	2558.6	
258.99	5179.3	
259.2	4647.5	
259.41	3139.5	
259.63	3183.2	
259.84	5432.6	
260.05	5698.1	
260.26	3966.2	
260.47	3038.5	
260.68	5270.8	
260.89	4683.7	
261.1	3704.1	
261.31	3018	
261.52	5316.5	
261.73	5563.6	
261.95	3975.1	
262.16	3446.7	
262.37	5278.3	
262.58	5405.3	
262.79	3903.4	
263	3174.4	
263.21	4895.3	
263.42	4670.1	
263.63	3378.5	
263.84	3162.1	
264.05	5160.9	
264.26	5439.4	
264.47	3779.9	
264.69	3299.3	
264.9	5386.2	
265.11	4905.6	
265.32	3024.2	
265.53	3112.2	
265.74	4870.8	
265.95	4322.6	
266.16	3297.2	
266.37	3579.2	
266.58	4903.5	
266.79	4672.8	
267	3106.1	
267.21	2902	
267.42	4476.2	
267.63	4774.5	
267.84	3175	
268.06	2834.4	
268.27	5193	
268.48	5291.3	
268.69	3162.7	
268.9	3661.1	
269.11	5322	
269.32	4339	
269.53	3233.7	
269.74	3050.1	
269.95	4975.9	
270.16	4332.8	
270.37	3233.1	
270.58	3717.7	
270.79	4703.5	
271	5179.3	
271.21	3437.2	
271.42	3258.3	
271.63	4972.5	
271.84	4491.9	
272.05	2678.7	
272.26	2984.6	
272.47	4830.5	
272.68	4945.2	
272.89	3150.5	
273.11	3530	
273.32	4578.6	
273.53	5425.8	
273.74	3474	
273.95	3392.8	
274.16	5230.5	
274.37	4807.3	
274.58	3572.3	
274.79	2912.2	
275	4917.9	
275.21	5286.5	
275.42	4197.7	
275.63	3625.6	
275.84	5015.5	
276.05	6114.6	
276.26	3396.2	
276.47	3166.8	
276.68	4728.8	
276.89	5569.1	
277.1	3596.2	
277.31	2846	
277.52	4991.6	
277.73	5190.9	
277.94	2861	
278.15	3140.2	
278.36	4969.7	
278.57	4573.8	
278.78	3113.6	
278.99	3470.6	
279.2	4566.3	
279.41	4512.4	
279.62	3987.4	
279.83	2889.7	
280.04	5746.6	
280.25	4498.7	
280.46	3978.5	
280.67	3222.8	
280.88	4592.2	
281.09	5287.2	
281.3	3409.9	
281.51	4136.2	
281.72	4653	
281.93	5188.2	
282.14	3059	
282.35	3295.9	
282.56	5212.8	
282.77	5147.2	
282.98	3160.7	
283.19	3777.1	
283.4	6199.9	
283.61	4805.9	
283.82	2944.3	
284.03	3912.3	
284.24	4917.9	
284.45	5299.5	
284.66	3992.9	
284.87	3788.7	
285.08	5221.6	
285.29	5314.5	
285.5	2829.6	
285.71	3188.7	
285.92	5273.5	
286.12	5770.5	
286.33	3930.1	
286.54	3205.8	
286.75	5125.4	
286.96	4718.5	
287.17	2980.5	
287.38	3801	
287.59	4587.4	
287.8	4545.8	
288.01	3194.1	
288.22	3608.5	
288.43	5133.6	
288.64	4368.3	
288.85	3779.2	
289.06	3547.8	
289.27	5139.7	
289.48	5470.8	
289.69	3971.7	
289.9	3581.2	
290.11	5326.1	
290.32	4627.7	
290.53	3775.1	
290.74	3442.6	
290.94	5125.4	
291.15	5195	
291.36	3066.5	
291.57	3551.2	
291.78	4668	
291.99	4350.6	
292.2	2959.3	
292.41	3475.4	
292.62	5210	
292.83	5044.8	
293.04	4193.6	
293.25	3033.7	
293.46	4691.2	
293.67	5225.7	
293.88	3041.2	
294.09	2993.4	
294.29	4493.2	
294.5	4919.2	
294.71	3279.5	
294.92	3145	
295.13	4681.7	
295.34	5760.3	
295.55	2814.6	
295.76	2777.7	
295.97	5179.3	
296.18	5745.2	
296.39	2930.6	
296.6	3030.3	
296.81	4874.2	
297.01	5162.2	
297.22	3205.8	
297.43	3093.1	
297.64	4623.6	
297.85	4492.6	
298.06	2611.2	
298.27	2791.4	
298.48	4819.6	
298.69	4583.4	
298.9	3327.3	
299.11	3037.8	
299.31	4482.3	
299.52	4491.9	
299.73	3558.7	
299.94	3484.3	
300.15	4877.6	
300.36	4570.4	
300.57	3415.3	
300.78	3420.8	
300.99	4716.5	
301.2	4911	
301.4	3096.5	
301.61	3277.4	
301.82	5119.9	
302.03	5098.8	
302.24	3678.8	
302.45	2936.1	
302.66	5074.9	
302.87	5341.8	
303.08	3113.6	
303.29	4043.4	
303.49	4677.6	
303.7	4745.8	
303.91	2756.6	
304.12	3857	
304.33	4444.1	
304.54	4926.7	
304.75	3102	
304.96	2960.7	
305.16	5016.2	
305.37	5538.4	
305.58	2723.8	
305.79	2831.7	
306	5085.1	
306.21	4353.3	
306.42	3123.2	
306.63	4455.7	
306.83	4734.9	
307.04	5231.9	
307.25	3359.4	
307.46	3343	
307.67	4272.7	
307.88	5083.7	
308.09	3100.6	
308.29	3087.7	
308.5	4883	
308.71	5218.9	
308.92	3260.4	
309.13	2971.6	
309.34	4785.4	
309.55	4771.1	
309.75	3789.4	
309.96	3468.6	
310.17	5083.7	
310.38	4517.8	
310.59	3553.9	
310.8	2941.6	
311.01	4693.3	
311.21	4767.7	
311.42	2938.8	
311.63	3013.9	
311.84	4674.8	
312.05	4857.1	
312.26	3405.1	
312.46	3659.7	
312.67	4664.6	
312.88	4464.6	
313.09	2969.6	
313.3	2979.1	
313.51	5382.7	
313.71	5694.7	
313.92	2975.7	
314.13	3142.3	
314.34	5024.3	
314.55	4766.3	
314.76	3708.2	
314.96	3333.4	
315.17	4948.6	
315.38	5168.4	
315.59	2992.1	
315.8	2920.4	
316.01	5404.6	
316.21	5488.6	
316.42	2921.8	
316.63	3273.3	
316.84	4762.9	
317.05	5264	
317.26	3472.7	
317.46	3102.7	
317.67	4801.1	
317.88	5057.8	
318.09	3692.5	
318.3	2772.9	
318.5	4651.6	
318.71	5028.4	
318.92	4569	
319.13	3437.9	
319.34	5158.2	
319.54	5306.3	
319.75	2824.8	
319.96	2672.6	
320.17	5068.7	
320.38	5248.9	
320.58	2755.2	
320.79	3232.4	
321	5227.1	
321.21	5345.9	
321.42	3350.5	
321.62	2783.2	
321.83	4529.4	
322.04	4849.6	
322.25	3166.2	
322.46	3029.6	
322.66	4864.6	
322.87	5076.9	
323.08	3589.4	
323.29	2960	
323.5	5673.6	
323.7	4505.5	
323.91	3984	
324.12	3590.1	
324.33	4919.2	
324.53	5038	
324.74	3413.3	
324.95	3632.4	
325.16	4407.2	
325.37	4706.2	
325.57	2984.6	
325.78	3012.6	
325.99	4917.9	
326.2	4415.4	
326.4	4184	
326.61	2779.8	
326.82	4827.7	
327.03	4851.6	
327.24	4049.5	
327.44	3880.9	
327.65	5042.1	
327.86	4219.5	
328.07	3455.6	
328.27	2884.2	
328.48	5393	
328.69	4475.5	
328.9	4170.3	
329.1	3168.9	
329.31	4719.9	
329.52	5423	
329.73	2992.8	
329.93	3262.4	
330.14	4855.1	
330.35	4954	
330.56	4653	
330.76	3607.2	
330.97	4711	
331.18	4870.1	
331.39	3293.1	
331.59	2721.8	
331.8	5268.7	
332.01	5341.1	
332.22	3125.2	
332.42	3482.9	
332.63	4936.3	
332.84	4551.3	
333.05	3353.2	
333.25	3072.6	
333.46	4642.7	
333.67	4822.3	
333.88	3140.9	
334.08	3335.5	
334.29	6218.3	
334.5	5298.8	
334.7	2940.9	
334.91	4089.8	
335.12	4453.6	
335.33	5084.4	
335.53	3296.5	
335.74	4633.2	
335.95	4742.4	
336.16	4487.1	
336.36	3302	
336.57	3707.5	
336.78	4500.8	
336.98	5259.9	
337.19	3951.9	
337.4	3201	
337.61	5724.8	
337.81	4427.7	
338.02	3112.9	
338.23	3817.4	
338.43	5409.4	
338.64	4562.2	
338.85	3024.8	
339.05	3837.9	
339.26	5433.9	
339.47	4427.7	
339.68	2998.2	
339.88	4287.1	
340.09	5066.7	
340.3	5167	
340.5	3393.5	
340.71	2750.4	
340.92	4445.5	
341.13	5339.7	
341.33	2903.3	
341.54	3485	
341.75	4971.1	
341.95	4693.9	
342.16	3352.5	
342.37	3587.4	
342.57	4527.4	
342.78	4807.9	
342.99	3691.1	
343.19	2773.6	
343.4	5137	
343.61	5046.2	
343.81	3220.1	
344.02	2908.8	
344.23	5127.4	
344.43	5382.7	
344.64	3680.2	
344.85	3629.7	
345.06	5057.1	
345.26	5280.3	
345.47	3415.3	
345.68	3940.3	
345.88	4384	
346.09	5171.1	
346.3	3491.1	
346.5	2736.1	
346.71	4710.3	
346.92	4561.5	
347.12	2899.9	
347.33	3431.7	
347.54	5252.4	
347.74	5477	
347.95	3391.4	
348.16	2663	
348.36	4706.2	
348.57	4511.7	
348.78	3426.3	
348.98	3663.8	
349.19	4799.8	
349.39	4397.7	
349.6	2876.7	
349.81	3075.4	
350.01	5024.3	
350.22	4584.7	
350.43	3312.2	
350.63	3852.2	
350.84	4821.6	
351.05	4603.8	
351.25	3042.6	
351.46	2826.9	
351.67	5204.6	
351.87	4572.4	
352.08	3184.6	
352.29	3578.5	
352.49	5194.3	
352.7	5242.1	
352.9	2999.6	
353.11	3607.8	
353.32	5676.3	
353.52	4685.1	
353.73	2960	
353.94	3670.6	
354.14	5126.7	
354.35	4812	
354.55	3041.9	
354.76	3320.4	
354.97	5065.3	
355.17	4814.8	
355.38	2856.2	
355.59	3749.8	
355.79	4575.2	
356	4770.4	
356.2	3354.6	
356.41	2924.5	
356.62	4443.4	
356.82	4779.3	
357.03	3517.7	
357.24	3152.5	
357.44	4591.5	
357.65	4711	
357.85	4128.7	
358.06	3332	
358.27	4435.9	
358.47	4509.6	
358.68	2831.7	
358.88	3517.7	
359.09	4981.3	
359.3	5298.1	
359.5	3999.7	
359.71	3651.5	
359.91	5552	
360.12	5127.4	
360.33	3531.4	
360.53	3887.7	
360.74	4627	
360.94	4656.4	
361.15	3674.1	
361.36	3097.2	
361.56	5234.6	
361.77	4781.3	
361.97	4035.2	
362.18	3266.5	
362.38	5219.6	
362.59	4549.2	
362.8	3035.1	
363	2958.6	
363.21	4338.3	
363.41	4898.7	
363.62	3457.7	
363.83	4182	
364.03	5012.7	
364.24	5636	
364.44	4260.5	
364.65	4297.3	
364.85	4718.5	
365.06	4535.6	
365.27	3229.6	
365.47	3229	
365.68	5584.8	
365.88	4823.6	
366.09	3490.4	
366.29	3273.3	
366.5	4938.3	
366.71	5269.4	
366.91	4255.7	
367.12	3655.6	
367.32	5797.8	
367.53	5179.3	
367.73	3685.7	
367.94	4406.5	
368.14	5169.8	
368.35	5811.5	
368.56	3635.8	
368.76	3404.4	
368.97	5306.3	
369.17	6410.1	
369.38	3231	
369.58	3431.7	
369.79	4431.1	
369.99	5564.3	
370.2	4257	
370.4	3582.6	
370.61	5055.8	
370.82	6017.6	
371.02	3496.6	
371.23	3011.2	
371.43	4535.6	
371.64	5557.5	
371.84	3523.9	
372.05	4409.3	
372.25	6421.7	
372.46	5227.8	
372.66	3517.7	
372.87	3507.5	
373.07	5294	
373.28	6546.7	
373.48	4277.5	
373.69	4058.4	
373.9	5035.3	
374.1	5016.8	
374.31	4225.6	
374.51	3893.2	
374.72	5620.3	
374.92	4778.6	
375.13	4376.5	
375.33	3775.1	
375.54	5242.8	
375.74	4891.9	
375.95	3876.1	
376.15	4825.7	
376.36	5369.8	
376.56	5206.6	
376.77	3900	
376.97	4229.7	
377.18	6190.3	
377.38	5382.7	
377.59	4368.3	
377.79	3551.9	
378	5229.8	
378.2	5547.9	
378.41	3536.2	
378.61	3568.2	
378.82	5606	
379.02	5055.1	
379.23	3768.9	
379.43	4513.7	
379.64	5826.5	
379.84	5382.7	
380.05	3685	
380.25	3520.5	
380.46	5494	
380.66	5186.8	
380.87	4665.3	
381.07	4944.5	
381.28	5950.7	
381.48	5489.9	
381.69	3612.6	
381.89	3705.5	
382.1	4679.6	
382.3	5636.7	
382.51	4420.2	
382.71	5147.2	
382.91	5436	
383.12	5877.7	
383.32	3870.7	
383.53	4041.3	
383.73	5350	
383.94	5225.7	
384.14	4065.2	
384.35	3362.1	
384.55	5130.8	
384.76	5487.9	
384.96	3907.5	
385.17	4157.4	
385.37	5534.3	
385.58	4881.7	
385.78	4132.1	
385.98	3284.3	
386.19	5039.4	
386.39	5385.5	
386.6	3743	
386.8	3906.2	
387.01	5474.9	
387.21	5528.2	
387.42	4259.1	
387.62	4710.3	
387.83	5111	
388.03	5380.7	
388.23	4059.8	
388.44	4593.6	
388.64	4807.3	
388.85	4901.5	
389.05	4288.4	
389.26	4733.5	
389.46	6438.1	
389.67	5993	
389.87	4270	
390.07	4249.5	
390.28	5277.6	
390.48	4963.6	
390.69	3696.6	
390.89	3969	
391.1	5193.6	
391.3	5776	
391.5	4909.7	
391.71	5317.9	
391.91	5660.6	
392.12	6343.2	
392.32	4952.7	
392.53	4348.5	
392.73	5257.1	
392.93	5433.3	
393.14	4093.9	
393.34	4676.2	
393.55	5634	
393.75	5321.3	
393.95	4101.4	
394.16	3952.6	
394.36	5271.5	
394.57	5734.3	
394.77	3757.3	
394.98	4005.8	
395.18	5221	
395.38	5274.9	
395.59	4762.2	
395.79	3984	
396	5365.7	
396.2	5683.8	
396.4	4640.7	
396.61	4607.9	
396.81	5869.5	
397.02	5326.1	
397.22	4856.4	
397.42	4816.1	
397.63	5967.8	
397.83	5246.9	
398.04	3996.3	
398.24	4420.9	
398.44	5743.9	
398.65	5007.3	
398.85	3926	
399.05	3975.1	
399.26	5417.6	
399.46	6628.6	
399.67	4319.2	
399.87	4118.5	
400.07	5687.9	
400.28	5894.7	
400.48	4235.9	
400.69	5042.8	
400.89	6466.8	
401.09	6491.4	
401.3	4167.6	
401.5	4962.9	
401.7	6591.7	
401.91	6829.3	
402.11	4505.5	
402.32	4581.3	
402.52	6233.3	
402.72	6093.4	
402.93	4779.3	
403.13	3848.8	
403.33	6726.2	
403.54	5715.9	
403.74	4513.7	
403.94	5179.3	
404.15	5831.2	
404.35	6688	
404.56	4365.6	
404.76	5763.7	
404.96	6202.6	
405.17	5928.2	
405.37	5524.7	
405.57	4802.5	
405.78	6237.4	
405.98	5760.3	
406.18	4491.2	
406.39	5132.2	
406.59	6266.1	
406.79	5791.7	
407	4272.7	
407.2	4332.8	
407.4	6324.1	
407.61	6413.6	
407.81	4463.2	
408.01	6253.8	
408.22	5492.7	
408.42	7051.8	
408.62	5411.4	
408.83	5031.9	
409.03	6157.6	
409.23	6077	
409.44	5046.2	
409.64	5328.1	
409.84	7030.7	
410.05	6956.9	
410.25	5331.5	
410.45	5134.3	
410.66	6654.5	
410.86	8529.8	
411.06	5697.4	
411.27	5466.7	
411.47	8483.4	
411.67	6865.5	
411.88	5780.1	
412.08	5884.5	
412.28	7320.1	
412.49	7735.9	
412.69	5686.5	
412.89	5733.6	
413.09	7645.1	
413.3	7632.1	
413.5	5925.5	
413.7	5543.9	
413.91	7078.5	
414.11	7731.8	
414.31	5741.8	
414.52	6045.6	
414.72	7598	
414.92	7510.6	
415.12	5737.7	
415.33	6158.2	
415.53	7815	
415.73	7893.6	
415.94	6485.9	
416.14	6029.2	
416.34	7191.8	
416.55	6895.5	
416.75	6922.8	
416.95	6589	
417.15	7983	
417.36	8278.6	
417.56	7268.9	
417.76	6539.2	
417.97	8205.5	
418.17	7985.7	
418.37	6207.4	
418.57	6302.3	
418.78	7914	
418.98	7580.2	
419.18	6977.4	
419.38	6818.4	
419.59	7574.1	
419.79	7242.3	
419.99	6156.2	
420.2	6444.3	
420.4	8051.2	
420.6	8095.6	
420.8	6186.2	
421.01	6011.5	
421.21	8054	
421.41	7991.2	
421.61	6279.1	
421.82	6161.7	
422.02	7653.9	
422.22	8333.2	
422.42	6776	
422.63	6462	
422.83	7656	
423.03	8568	
423.23	6488.6	
423.44	5764.3	
423.64	7619.8	
423.84	7384.3	
424.04	6167.1	
424.25	5836	
424.45	8313.4	
424.65	8191.9	
424.85	5722	
425.06	6115.2	
425.26	8488.8	
425.46	7600.7	
425.66	6569.2	
425.87	6348.7	
426.07	8118.8	
426.27	7973.4	
426.47	6328.2	
426.67	5847	
426.88	8414.4	
427.08	7989.1	
427.28	6608.8	
427.48	5858.6	
427.69	7193.8	
427.89	7688.1	
428.09	6572.6	
428.29	5971.9	
428.5	8182.3	
428.7	7823.2	
428.9	5864.7	
429.1	6277.7	
429.3	7936.6	
429.51	8130.4	
429.71	6115.9	
429.91	6825.2	
430.11	8195.3	
430.31	8364.6	
430.52	6369.2	
430.72	6744.6	
430.92	8681.3	
431.12	8232.2	
431.32	6236.7	
431.53	6480.5	
431.73	7363.8	
431.93	8654	
432.13	6189	
432.33	6178.7	
432.54	7848.5	
432.74	8066.9	
432.94	6175.3	
433.14	6881.9	
433.34	8276.5	
433.55	8010.3	
433.75	6918	
433.95	8366	
434.15	8158.4	
434.35	7934.5	
434.56	6336.4	
434.76	6067.4	
434.96	8204.2	
435.16	8449.9	
435.36	6322.8	
435.56	7258.7	
435.77	8026.7	
435.97	8182.3	
436.17	7826	
436.37	7255.3	
436.57	8049.9	
436.78	8146.1	
436.98	8557.8	
437.18	7715.4	
437.38	8674.5	
437.58	8243.1	
437.78	7791.2	
437.99	6767.2	
438.19	8578.9	
438.39	9221.3	
438.59	6677.1	
438.79	6278.4	
438.99	9003.6	
439.2	8118.1	
439.4	6342.6	
439.6	6388.3	
439.8	8397.4	
440	9295	
440.2	7446.4	
440.4	7393.8	
440.61	8908	
440.81	9322.4	
441.01	6763.8	
441.21	7505.1	
441.41	9441.1	
441.61	8936	
441.81	7855.3	
442.02	8480	
442.22	9766.1	
442.42	9131.2	
442.62	6966.5	
442.82	6975.4	
443.02	9531.2	
443.22	8874.5	
443.43	7475.1	
443.63	6963.1	
443.83	8573.5	
444.03	8616.5	
444.23	8127.7	
444.43	7731.8	
444.63	9021.3	
444.83	9906.7	
445.04	7259.4	
445.24	8238.3	
445.44	9269.8	
445.64	9301.9	
445.84	7769.3	
446.04	7790.5	
446.24	8668.4	
446.44	9514.9	
446.65	7101	
446.85	7448.5	
447.05	8788.5	
447.25	9467.1	
447.45	7576.8	
447.65	7056.6	
447.85	9107.3	
448.05	8614.4	
448.25	7995.3	
448.46	7720.8	
448.66	9069.1	
448.86	8719.6	
449.06	7131	
449.26	7889.5	
449.46	9385.2	
449.66	8618.5	
449.86	7681.2	
450.06	7660.8	
450.26	8894.3	
450.47	9359.2	
450.67	7701	
450.87	8044.4	
451.07	9407.7	
451.27	9254.1	
451.47	7309.9	
451.67	7826.7	
451.87	9169.4	
452.07	9917.6	
452.27	7683.3	
452.47	7681.9	
452.67	9269.8	
452.88	9710.8	
453.08	7073	
453.28	8759.2	
453.48	10372	
453.68	9191.3	
453.88	7700.4	
454.08	7739.3	
454.28	9787.2	
454.48	9431.6	
454.68	8200.7	
454.88	8494.3	
455.08	9820	
455.28	9793.4	
455.48	7565.9	
455.68	8196	
455.89	10404	
456.09	10079	
456.29	7968	
456.49	8191.9	
456.69	10355	
456.89	9638.4	
457.09	8594	
457.29	8954.4	
457.49	10124	
457.69	10253	
457.89	8649.9	
458.09	8132.5	
458.29	10172	
458.49	10692	
458.69	9034.3	
458.89	8579.6	
459.09	11033	
459.29	10982	
459.49	8712.7	
459.69	9294.4	
459.9	10506	
460.1	10415	
460.3	8561.9	
460.5	8389.2	
460.7	10727	
460.9	10436	
461.1	8292.9	
461.3	9454.8	
461.5	11377	
461.7	11035	
461.9	8910	
462.1	9084.1	
462.3	10849	
462.5	11263	
462.7	9092.3	
462.9	9271.8	
463.1	12177	
463.3	12039	
463.5	9371.5	
463.7	10359	
463.9	11286	
464.1	11624	
464.3	9938.8	
464.5	9936.1	
464.7	11822	
464.9	11785	
465.1	10993	
465.3	10234	
465.5	12154	
465.7	12327	
465.9	10704	
466.1	10357	
466.3	12295	
466.5	11865	
466.7	11403	
466.9	10299	
467.1	12151	
467.3	12809	
467.5	11305	
467.7	10495	
467.9	13044	
468.1	13686	
468.3	10933	
468.5	11551	
468.7	12310	
468.9	12173	
469.1	10796	
469.3	11407	
469.5	13822	
469.7	12138	
469.9	11172	
470.1	10739	
470.3	12530	
470.5	12492	
470.7	11826	
470.9	10778	
471.1	12285	
471.3	12411	
471.5	10717	
471.69	12069	
471.89	12209	
472.09	11739	
472.29	11322	
472.49	11352	
472.69	12075	
472.89	12473	
473.09	10695	
473.29	10479	
473.49	12022	
473.69	11964	
473.89	11333	
474.09	10746	
474.29	13216	
474.49	12801	
474.69	11328	
474.89	10762	
475.09	12123	
475.29	12127	
475.49	10456	
475.69	10649	
475.88	13311	
476.08	12655	
476.28	10374	
476.48	10456	
476.68	12693	
476.88	12386	
477.08	10556	
477.28	10780	
477.48	12084	
477.68	12451	
477.88	10497	
478.08	10658	
478.28	13014	
478.48	12316	
478.67	10795	
478.87	10112	
479.07	12947	
479.27	12362	
479.47	10968	
479.67	10942	
479.87	12753	
480.07	13151	
480.27	10470	
480.47	11592	
480.67	12465	
480.87	13037	
481.06	10612	
481.26	11480	
481.46	12574	
481.66	12564	
481.86	11039	
482.06	11878	
482.26	12274	
482.46	12937	
482.66	11005	
482.86	10733	
483.05	12817	
483.25	12239	
483.45	13071	
483.65	11211	
483.85	12471	
484.05	12713	
484.25	11514	
484.45	12076	
484.65	13362	
484.84	13508	
485.04	11162	
485.24	11398	
485.44	13775	
485.64	12434	
485.84	10889	
486.04	12044	
486.24	12843	
486.44	13138	
486.63	10900	
486.83	11690	
487.03	13010	
487.23	13204	
487.43	11186	
487.63	12951	
487.83	13293	
488.02	13931	
488.22	12095	
488.42	12649	
488.62	13954	
488.82	13072	
489.02	11652	
489.22	11964	
489.41	13903	
489.61	13840	
489.81	11736	
490.01	11809	
490.21	14078	
490.41	14594	
490.61	11884	
490.8	11835	
491	13753	
491.2	13074	
491.4	12228	
491.6	11567	
491.8	13523	
491.99	13497	
492.19	11427	
492.39	11659	
492.59	13955	
492.79	14094	
492.99	12445	
493.18	11809	
493.38	14339	
493.58	15237	
493.78	12729	
493.98	12384	
494.18	14261	
494.37	14123	
494.57	13338	
494.77	13054	
494.97	14839	
495.17	15224	
495.37	13065	
495.56	13350	
495.76	15459	
495.96	15294	
496.16	14076	
496.36	13484	
496.55	15569	
496.75	15208	
496.95	13699	
497.15	13572	
497.35	15526	
497.54	15687	
497.74	13548	
497.94	15070	
498.14	16220	
498.34	16027	
498.53	13573	
498.73	14136	
498.93	15244	
499.13	15724	
499.33	14061	
499.52	14356	
499.72	16089	
499.92	16062	
500.12	13917	
500.32	14194	
500.51	16186	
500.71	16085	
500.91	14815	
501.11	14534	
501.31	16123	
501.5	16421	
501.7	15107	
501.9	14407	
502.1	15855	
502.29	16261	
502.49	14717	
502.69	14917	
502.89	16189	
503.09	16191	
503.28	13683	
503.48	13794	
503.68	15324	
503.88	15466	
504.07	14386	
504.27	14060	
504.47	15714	
504.67	15728	
504.86	14457	
505.06	14097	
505.26	15394	
505.46	16598	
505.65	13835	
505.85	14044	
506.05	15218	
506.25	15599	
506.44	13248	
506.64	13953	
506.84	15002	
507.04	15597	
507.23	13405	
507.43	13863	
507.63	16601	
507.83	15279	
508.02	13930	
508.22	13554	
508.42	16748	
508.62	15027	
508.81	13783	
509.01	14394	
509.21	14876	
509.4	15315	
509.6	13836	
509.8	13532	
510	15196	
510.19	16337	
510.39	13529	
510.59	13706	
510.79	15187	
510.98	16378	
511.18	13758	
511.38	13829	
511.57	15787	
511.77	15681	
511.97	14169	
512.17	13575	
512.36	15885	
512.56	15541	
512.76	13602	
512.95	13316	
513.15	15918	
513.35	14761	
513.55	14233	
513.74	13628	
513.94	15873	
514.14	15358	
514.33	14371	
514.53	14083	
514.73	15264	
514.92	15517	
515.12	13848	
515.32	13715	
515.51	15763	
515.71	15950	
515.91	15045	
516.11	13926	
516.3	17188	
516.5	15547	
516.7	14237	
516.89	14877	
517.09	15526	
517.29	15593	
517.48	14592	
517.68	14065	
517.88	15466	
518.07	15920	
518.27	14530	
518.47	13784	
518.66	16302	
518.86	15330	
519.06	13738	
519.25	14054	
519.45	15565	
519.65	16920	
519.84	14699	
520.04	15325	
520.24	17253	
520.43	16164	
520.63	14345	
520.83	14151	
521.02	15463	
521.22	15904	
521.42	14311	
521.61	14898	
521.81	15621	
522.01	15784	
522.2	14469	
522.4	14312	
522.6	16355	
522.79	15371	
522.99	14422	
523.18	14128	
523.38	16280	
523.58	16426	
523.77	15922	
523.97	14534	
524.17	18084	
524.36	17529	
524.56	15724	
524.76	15520	
524.95	17034	
525.15	16717	
525.34	15596	
525.54	15735	
525.74	17501	
525.93	16879	
526.13	16688	
526.33	15993	
526.52	18034	
526.72	17594	
526.91	16823	
527.11	16437	
527.31	18120	
527.5	18437	
527.7	16528	
527.89	15851	
528.09	17463	
528.29	18263	
528.48	16875	
528.68	16674	
528.87	18413	
529.07	18135	
529.27	16569	
529.46	16186	
529.66	18161	
529.85	18584	
530.05	16326	
530.25	16755	
530.44	19325	
530.64	17998	
530.83	16445	
531.03	16776	
531.23	18572	
531.42	18314	
531.62	17453	
531.81	16784	
532.01	19016	
532.21	19284	
532.4	17052	
532.6	17402	
532.79	19889	
532.99	19433	
533.18	17662	
533.38	18327	
533.58	19153	
533.77	19648	
533.97	17922	
534.16	18486	
534.36	20157	
534.55	19502	
534.75	18672	
534.95	18026	
535.14	20390	
535.34	19514	
535.53	17666	
535.73	19170	
535.92	20467	
536.12	19306	
536.31	17549	
536.51	18594	
536.71	19511	
536.9	19321	
537.1	17792	
537.29	17935	
537.49	20009	
537.68	19326	
537.88	18455	
538.07	17604	
538.27	19557	
538.46	20363	
538.66	17632	
538.86	18038	
539.05	19792	
539.25	20131	
539.44	18387	
539.64	17742	
539.83	19525	
540.03	20424	
540.22	17690	
540.42	17844	
540.61	19454	
540.81	19666	
541	17862	
541.2	18563	
541.39	19090	
541.59	19435	
541.78	18334	
541.98	17557	
542.18	18855	
542.37	18785	
542.57	17735	
542.76	18357	
542.96	18736	
543.15	19214	
543.35	17624	
543.54	17171	
543.74	19094	
543.93	19028	
544.13	17273	
544.32	18085	
544.52	19007	
544.71	18474	
544.91	16560	
545.1	17421	
545.3	18501	
545.49	18958	
545.69	16561	
545.88	17015	
546.08	19981	
546.27	19260	
546.47	17481	
546.66	16993	
546.86	18994	
547.05	19553	
547.24	17008	
547.44	16931	
547.63	18309	
547.83	19207	
548.02	17136	
548.22	17337	
548.41	17938	
548.61	19116	
548.8	16596	
549	16755	
549.19	18475	
549.39	18851	
549.58	16427	
549.78	16888	
549.97	18701	
550.17	18253	
550.36	17244	
550.55	18196	
550.75	18045	
550.94	18793	
551.14	16468	
551.33	16384	
551.53	17651	
551.72	18632	
551.92	16696	
552.11	16464	
552.31	18506	
552.5	18273	
552.69	17729	
552.89	16114	
553.08	18443	
553.28	18027	
553.47	16396	
553.67	17342	
553.86	18708	
554.06	17397	
554.25	15584	
554.44	16322	
554.64	19370	
554.83	18945	
555.03	16199	
555.22	16505	
555.42	18332	
555.61	18122	
555.8	16312	
556	16315	
556.19	17480	
556.39	18276	
556.58	16389	
556.78	16351	
556.97	18023	
557.16	17803	
557.36	17148	
557.55	15956	
557.75	17212	
557.94	18817	
558.13	16112	
558.33	16019	
558.52	18594	
558.72	17520	
558.91	15930	
559.1	16031	
559.3	17437	
559.49	16942	
559.69	15616	
559.88	16254	
560.07	17774	
560.27	18174	
560.46	16382	
560.66	16555	
560.85	17849	
561.04	16981	
561.24	15826	
561.43	15854	
561.63	17290	
561.82	17468	
562.01	16789	
562.21	16099	
562.4	17636	
562.59	18603	
562.79	16087	
562.98	15963	
563.18	17779	
563.37	19204	
563.56	16711	
563.76	16130	
563.95	17769	
564.14	17601	
564.34	16348	
564.53	16146	
564.73	18035	
564.92	18478	
565.11	16623	
565.31	16051	
565.5	18707	
565.69	17938	
565.89	16379	
566.08	16565	
566.27	18385	
566.47	18924	
566.66	17129	
566.85	16331	
567.05	18415	
567.24	18043	
567.44	16341	
567.63	17546	
567.82	18523	
568.02	18249	
568.21	16498	
568.4	16890	
568.6	18385	
568.79	18319	
568.98	16529	
569.18	16836	
569.37	18643	
569.56	20052	
569.76	17061	
569.95	17941	
570.14	18839	
570.34	18850	
570.53	16722	
570.72	16702	
570.91	19382	
571.11	18646	
571.3	17029	
571.49	17739	
571.69	18829	
571.88	18495	
572.07	17765	
572.27	17511	
572.46	18454	
572.65	19049	
572.85	16945	
573.04	17376	
573.23	19413	
573.43	18981	
573.62	16982	
573.81	17630	
574	19239	
574.2	19048	
574.39	17709	
574.58	17757	
574.78	20154	
574.97	19550	
575.16	18145	
575.36	18211	
575.55	20022	
575.74	20064	
575.93	17512	
576.13	18525	
576.32	19411	
576.51	19953	
576.71	17876	
576.9	19101	
577.09	20257	
577.28	19878	
577.48	18391	
577.67	17555	
577.86	19724	
578.05	19899	
578.25	18282	
578.44	18279	
578.63	19796	
578.83	20802	
579.02	17664	
579.21	19078	
579.4	19998	
579.6	19930	
579.79	18226	
579.98	20000	
580.17	20265	
580.37	20530	
580.56	17823	
580.75	18704	
580.94	20460	
581.14	20728	
581.33	18950	
581.52	18271	
581.71	20370	
581.91	20762	
582.1	18183	
582.29	18482	
582.48	19928	
582.68	20039	
582.87	18826	
583.06	18725	
583.25	20341	
583.45	19798	
583.64	19270	
583.83	19729	
584.02	20015	
584.21	20327	
584.41	19056	
584.6	18652	
584.79	20235	
584.98	20863	
585.18	18216	
585.37	18298	
585.56	19791	
585.75	20515	
585.94	18232	
586.14	18957	
586.33	20660	
586.52	20201	
586.71	18420	
586.91	18340	
587.1	19250	
587.29	20149	
587.48	17718	
587.67	18021	
587.87	19999	
588.06	19738	
588.25	18783	
588.44	18295	
588.63	19269	
588.83	19842	
589.02	17694	
589.21	17599	
589.4	19043	
589.59	18950	
589.78	16484	
589.98	16677	
590.17	17955	
590.36	18152	
590.55	15586	
590.74	16075	
590.94	18899	
591.13	17898	
591.32	15907	
591.51	15614	
591.7	18171	
591.89	17985	
592.09	15885	
592.28	16249	
592.47	17279	
592.66	18897	
592.85	15858	
593.05	16199	
593.24	17769	
593.43	18740	
593.62	16353	
593.81	16713	
594	18069	
594.19	18226	
594.39	16102	
594.58	16141	
594.77	18176	
594.96	18555	
595.15	16101	
595.34	16610	
595.54	18101	
595.73	17359	
595.92	15324	
596.11	16172	
596.3	18346	
596.49	17382	
596.68	15930	
596.88	16397	
597.07	18097	
597.26	17303	
597.45	15558	
597.64	16598	
597.83	17258	
598.02	17995	
598.22	15629	
598.41	16107	
598.6	17604	
598.79	17145	
598.98	15620	
599.17	16445	
599.36	17684	
599.55	18448	
599.74	17243	
599.94	17077	
600.13	18038	
600.32	17144	
600.51	15417	
600.7	15503	
600.89	18340	
601.08	18613	
601.27	15434	
601.47	16219	
601.66	17834	
601.85	18337	
602.04	15964	
602.23	15844	
602.42	17095	
602.61	17628	
602.8	15669	
602.99	15547	
603.18	17333	
603.37	17448	
603.57	15825	
603.76	16295	
603.95	18042	
604.14	17830	
604.33	15744	
604.52	16085	
604.71	17634	
604.9	17254	
605.09	16315	
605.28	16041	
605.47	17942	
605.66	17559	
605.86	16141	
606.05	15694	
606.24	17871	
606.43	16755	
606.62	15816	
606.81	16301	
607	17677	
607.19	17239	
607.38	15186	
607.57	15403	
607.76	16983	
607.95	16448	
608.14	15768	
608.33	16225	
608.52	17028	
608.72	17632	
608.91	15233	
609.1	15037	
609.29	16978	
609.48	16571	
609.67	15725	
609.86	15076	
610.05	16616	
610.24	16883	
610.43	15109	
610.62	14582	
610.81	17716	
611	17484	
611.19	14980	
611.38	15608	
611.57	17098	
611.76	18082	
611.95	14771	
612.14	14657	
612.33	16861	
612.52	16497	
612.71	15155	
612.9	14669	
613.09	16242	
613.28	17993	
613.47	15189	
613.66	15743	
613.85	17047	
614.04	16490	
614.24	14958	
614.43	14347	
614.62	17045	
614.81	16973	
615	15543	
615.19	15708	
615.38	16567	
615.57	16793	
615.76	15457	
615.95	16247	
616.14	17247	
616.33	16925	
616.52	15634	
616.71	15838	
616.9	17118	
617.09	17146	
617.28	15238	
617.47	16221	
617.66	16624	
617.85	16711	
618.04	15991	
618.22	15713	
618.41	17078	
618.6	18061	
618.79	15861	
618.98	15719	
619.17	18214	
619.36	16808	
619.55	15900	
619.74	15834	
619.93	17857	
620.12	17423	
620.31	16521	
620.5	16743	
620.69	18342	
620.88	18862	
621.07	17311	
621.26	16627	
621.45	18172	
621.64	18406	
621.83	16754	
622.02	16209	
622.21	18144	
622.4	18304	
622.59	17334	
622.78	17116	
622.97	18074	
623.16	18692	
623.35	16805	
623.54	16150	
623.72	18114	
623.91	18361	
624.1	17034	
624.29	16223	
624.48	19149	
624.67	18339	
624.86	17032	
625.05	16336	
625.24	19219	
625.43	18088	
625.62	18295	
625.81	16695	
626	18727	
626.19	18313	
626.38	17200	
626.56	16743	
626.75	18183	
626.94	18924	
627.13	17128	
627.32	16227	
627.51	18743	
627.7	19554	
627.89	16204	
628.08	17322	
628.27	18011	
628.46	18117	
628.65	16488	
628.83	16212	
629.02	18468	
629.21	18088	
629.4	16920	
629.59	16962	
629.78	18009	
629.97	18593	
630.16	17008	
630.35	16554	
630.54	18948	
630.72	18838	
630.91	16550	
631.1	16967	
631.29	18181	
631.48	18576	
631.67	17002	
631.86	16387	
632.05	18216	
632.24	18245	
632.42	16106	
632.61	16839	
632.8	17996	
632.99	17901	
633.18	16741	
633.37	16974	
633.56	18300	
633.75	18292	
633.93	16775	
634.12	16612	
634.31	18815	
634.5	18692	
634.69	16563	
634.88	16827	
635.07	18307	
635.25	18576	
635.44	17243	
635.63	17506	
635.82	17828	
636.01	17449	
636.2	17002	
636.39	16802	
636.57	18769	
636.76	18272	
636.95	16267	
637.14	17085	
637.33	18148	
637.52	18896	
637.7	16031	
637.89	16883	
638.08	17978	
638.27	19000	
638.46	16792	
638.65	16920	
638.83	18630	
639.02	17545	
639.21	16574	
639.4	16845	
639.59	17990	
639.78	17480	
639.96	15883	
640.15	15878	
640.34	17780	
640.53	17735	
640.72	15588	
640.91	15853	
641.09	17090	
641.28	18038	
641.47	15634	
641.66	16313	
641.85	17533	
642.03	17450	
642.22	16090	
642.41	15677	
642.6	17068	
642.79	16389	
642.97	15362	
643.16	15999	
643.35	16903	
643.54	16705	
643.73	15107	
643.91	15867	
644.1	16408	
644.29	16930	
644.48	15047	
644.67	15057	
644.85	16332	
645.04	16602	
645.23	14478	
645.42	14973	
645.6	16134	
645.79	16870	
645.98	14463	
646.17	13662	
646.36	15415	
646.54	15780	
646.73	14674	
646.92	13864	
647.11	15406	
647.29	16188	
647.48	13743	
647.67	13567	
647.86	16389	
648.05	16464	
648.23	14005	
648.42	14915	
648.61	15787	
648.8	15692	
648.98	13627	
649.17	13941	
649.36	15268	
649.55	14910	
649.73	13674	
649.92	14283	
650.11	15288	
650.3	15495	
650.48	13719	
650.67	13634	
650.86	15484	
651.05	14762	
651.23	13689	
651.42	13632	
651.61	15089	
651.79	14919	
651.98	13695	
652.17	13387	
652.36	15293	
652.54	14456	
652.73	13312	
652.92	13252	
653.11	15184	
653.29	15284	
653.48	12803	
653.67	13459	
653.85	14977	
654.04	15657	
654.23	13410	
654.42	13054	
654.6	14169	
654.79	14536	
654.98	12173	
655.16	12515	
655.35	13407	
655.54	13289	
655.73	11968	
655.91	11880	
656.1	14139	
656.29	13408	
656.47	11732	
656.66	13130	
656.85	13779	
657.03	13902	
657.22	12385	
657.41	12583	
657.59	14145	
657.78	13872	
657.97	12368	
658.16	12951	
658.34	14565	
658.53	15026	
658.72	13586	
658.9	13990	
659.09	14459	
659.28	14344	
659.46	12761	
659.65	12718	
659.84	14099	
660.02	14603	
660.21	12754	
660.4	12581	
660.58	14781	
660.77	14293	
660.96	13107	
661.14	12337	
661.33	15122	
661.52	15161	
661.7	12368	
661.89	14991	
662.08	13983	
662.26	13708	
662.45	12428	
662.64	12443	
662.82	14575	
663.01	14009	
663.2	12494	
663.38	13105	
663.57	14290	
663.75	14227	
663.94	12632	
664.13	13691	
664.31	13966	
664.5	14346	
664.69	12777	
664.87	13254	
665.06	13599	
665.25	14254	
665.43	13475	
665.62	13425	
665.8	14432	
665.99	13913	
666.18	12669	
666.36	12695	
666.55	14361	
666.74	14299	
666.92	12377	
667.11	13594	
667.29	13982	
667.48	14323	
667.67	13213	
667.85	12452	
668.04	13902	
668.22	13898	
668.41	12631	
668.6	12775	
668.78	13609	
668.97	13717	
669.15	12854	
669.34	11957	
669.53	13684	
669.71	13943	
669.9	12167	
670.08	12693	
670.27	13704	
670.46	14031	
670.64	12854	
670.83	12992	
671.01	13494	
671.2	13857	
671.38	12176	
671.57	12048	
671.76	14481	
671.94	15088	
672.13	12026	
672.31	12768	
672.5	14303	
672.69	13533	
672.87	12297	
673.06	12599	
673.24	14050	
673.43	13830	
673.61	12643	
673.8	12466	
673.98	14029	
674.17	14226	
674.36	12857	
674.54	12669	
674.73	13837	
674.91	14136	
675.1	12508	
675.28	12145	
675.47	13802	
675.65	14296	
675.84	12366	
676.03	12696	
676.21	13514	
676.4	13271	
676.58	12923	
676.77	12859	
676.95	14591	
677.14	13463	
677.32	12063	
677.51	12046	
677.69	14165	
677.88	13325	
678.06	12006	
678.25	12101	
678.44	13837	
678.62	13579	
678.81	11901	
678.99	12780	
679.18	14330	
679.36	13974	
679.55	12399	
679.73	12815	
679.92	13953	
680.1	13679	
680.29	13305	
680.47	12276	
680.66	13511	
680.84	14121	
681.03	11665	
681.21	12606	
681.4	13532	
681.58	13471	
681.77	12098	
681.95	12080	
682.14	14209	
682.32	14360	
682.51	12728	
682.69	11774	
682.88	13327	
683.06	13634	
683.25	12473	
683.43	12637	
683.62	13618	
683.8	13838	
683.99	12788	
684.17	12329	
684.36	14352	
684.54	13269	
684.73	11449	
684.91	11460	
685.1	13068	
685.28	12381	
685.46	11467	
685.65	11163	
685.83	12689	
686.02	12298	
686.2	10695	
686.39	10991	
686.57	12226	
686.76	13476	
686.94	11105	
687.13	11293	
687.31	12946	
687.5	12684	
687.68	10912	
687.86	11781	
688.05	14067	
688.23	12334	
688.42	11868	
688.6	11399	
688.79	12780	
688.97	12778	
689.16	11751	
689.34	10909	
689.52	13479	
689.71	13603	
689.89	12112	
690.08	11537	
690.26	13164	
690.45	13096	
690.63	12186	
690.81	11779	
691	12842	
691.18	12921	
691.37	11698	
691.55	13284	
691.74	12693	
691.92	14160	
692.1	11467	
692.29	11181	
692.47	12936	
692.66	12334	
692.84	11228	
693.02	11765	
693.21	12601	
693.39	12824	
693.58	11949	
693.76	11520	
693.94	13780	
694.13	13745	
694.31	11535	
694.5	12458	
694.68	12908	
694.86	13297	
695.05	12011	
695.23	12162	
695.42	13635	
695.6	15384	
695.78	12686	
695.97	11834	
696.15	13781	
696.34	13110	
696.52	11553	
696.7	12216	
696.89	13392	
697.07	12816	
697.25	11899	
697.44	13099	
697.62	13279	
697.81	13334	
697.99	11622	
698.17	12087	
698.36	12600	
698.54	13123	
698.72	11903	
698.91	11066	
699.09	12771	
699.28	12662	
699.46	11576	
699.64	11298	
699.83	12627	
700.01	13306	
700.19	12015	
700.38	11002	
700.56	13455	
700.74	12711	
700.93	11187	
701.11	11844	
701.29	13078	
701.48	14033	
701.66	11495	
701.84	11636	
702.03	12964	
702.21	13533	
702.39	11125	
702.58	11697	
702.76	13218	
702.94	13315	
703.13	11099	
703.31	13073	
703.49	12752	
703.68	13777	
703.86	11230	
704.04	12022	
704.23	12998	
704.41	13280	
704.59	11500	
704.78	12183	
704.96	14207	
705.14	13265	
705.33	11221	
705.51	11762	
705.69	12740	
705.87	13481	
706.06	11918	
706.24	11109	
706.42	13021	
706.61	13233	
706.79	11896	
706.97	10980	
707.16	12493	
707.34	12843	
707.52	11628	
707.7	11224	
707.89	12583	
708.07	12298	
708.25	11878	
708.44	12213	
708.62	12501	
708.8	13218	
708.98	11977	
709.17	11109	
709.35	12684	
709.53	12574	
709.72	10881	
709.9	11239	
710.08	12953	
710.26	12887	
710.45	11970	
710.63	11054	
710.81	12444	
710.99	12497	
711.18	11327	
711.36	10961	
711.54	12240	
711.72	12764	
711.91	10905	
712.09	10417	
712.27	12197	
712.45	12607	
712.64	10922	
712.82	10051	
713	11435	
713.18	11601	
713.37	9960	
713.55	10755	
713.73	12030	
713.91	10781	
714.1	9759.9	
714.28	9184.5	
714.46	11099	
714.64	10373	
714.83	8374.1	
715.01	8724.3	
715.19	9960.6	
715.37	9326.4	
715.55	8202.1	
715.74	8384.4	
715.92	10433	
716.1	8787.8	
716.28	9118.9	
716.47	8198	
716.65	9232.2	
716.83	9283.4	
717.01	8110.6	
717.19	8092.2	
717.38	10852	
717.56	8906.6	
717.74	8363.2	
717.92	7730.4	
718.1	9945.6	
718.29	9247.3	
718.47	7649.2	
718.65	8273.1	
718.83	10320	
719.01	10357	
719.2	8049.9	
719.38	8968.1	
719.56	10273	
719.74	11448	
719.92	8616.5	
720.11	9151	
720.29	10264	
720.47	9426.8	
720.65	7946.8	
720.83	8428.8	
721.02	9370.1	
721.2	9110.7	
721.38	8203.5	
721.56	7636.2	
721.74	8539.3	
721.92	8624.7	
722.11	8411.7	
722.29	8243.1	
722.47	9664.4	
722.65	8940.7	
722.83	7545.4	
723.01	8128.4	
723.2	9017.2	
723.38	9169.4	
723.56	7022.5	
723.74	7894.2	
723.92	8605.6	
724.1	9526.5	
724.29	7423.9	
724.47	8243.8	
724.65	8722.3	
724.83	8493.6	
725.01	7247.1	
725.19	7839.6	
725.37	8501.1	
725.56	8587.8	
725.74	7136.5	
725.92	7360.4	
726.1	8561.2	
726.28	8778.3	
726.46	7533.1	
726.64	7313.3	
726.83	8655.4	
727.01	8770.1	
727.19	7056.6	
727.37	7699.7	
727.55	8819.2	
727.73	9079.3	
727.91	6988.4	
728.09	6858	
728.28	9209.7	
728.46	9374.9	
728.64	7684	
728.82	7669	
729	9908.1	
729.18	9482.1	
729.36	7263.5	
729.54	8952.4	
729.72	10286	
729.91	9060.9	
730.09	8744.8	
730.27	7836.9	
730.45	9061.6	
730.63	9529.9	
730.81	8289.5	
730.99	7573.4	
731.17	10047	
731.35	8774.9	
731.53	7976.2	
731.71	7636.9	
731.9	9579.7	
732.08	9691.7	
732.26	7792.5	
732.44	7454.6	
732.62	9748.3	
732.8	9355.1	
732.98	8070.4	
733.16	7278.5	
733.34	9199.5	
733.52	8256.7	
733.7	7560.4	
733.88	7793.2	
734.07	9097.8	
734.25	8885.5	
734.43	7212.3	
734.61	8339.3	
734.79	10138	
734.97	8684.1	
735.15	7256	
735.33	7458	
735.51	8916.2	
735.69	8759.8	
735.87	8219.9	
736.05	7616.4	
736.23	8795.3	
736.41	8578.9	
736.59	7351.5	
736.77	7518.1	
736.95	9136	
737.13	8676.6	
737.32	7139.9	
737.5	7331.7	
737.68	9602.2	
737.86	8492.2	
738.04	6903	
738.22	8252.6	
738.4	8357.1	
738.58	8598.1	
738.76	7233.4	
738.94	6501.6	
739.12	8412.4	
739.3	8345.5	
739.48	7686.7	
739.66	7553.6	
739.84	8644.5	
740.02	8601.5	
740.2	6552.8	
740.38	6812.9	
740.56	8829.5	
740.74	7878.5	
740.92	7255.3	
741.1	7094.8	
741.28	8253.3	
741.46	8102.4	
741.64	6789.7	
741.82	7152.2	
742	8251.9	
742.18	8214.4	
742.36	6942.6	
742.54	6542.6	
742.72	8608.3	
742.9	7577.5	
743.08	7164.5	
743.26	6206	
743.44	8598.1	
743.62	8559.8	
743.8	7176.1	
743.98	6438.1	
744.16	8213	
744.34	7911.3	
744.52	7028.6	
744.7	6978.8	
744.88	8217.1	
745.06	7851.9	
745.24	6962.4	
745.42	7007.5	
745.6	8198.7	
745.78	8058.8	
745.96	6055.2	
746.14	6171.2	
746.32	8710	
746.5	8060.1	
746.68	6626.5	
746.86	6130.9	
747.03	8380.3	
747.21	7071	
747.39	6464.8	
747.57	6107	
747.75	7805.5	
747.93	7924.3	
748.11	6064	
748.29	5976	
748.47	8946.9	
748.65	7361.1	
748.83	6551.5	
749.01	6298.2	
749.19	7793.2	
749.37	7172	
749.55	6330.3	
749.73	6313.9	
749.91	7481.9	
750.09	7292.8	
750.26	6280.4	
750.44	5867.4	
750.62	7624.6	
750.8	7466.9	
750.98	5683.8	
751.16	5928.2	
751.34	7511.3	
751.52	7037.5	
751.7	6522.1	
751.88	5653.1	
752.06	7851.9	
752.24	7649.8	
752.42	5536.3	
752.59	5788.9	
752.77	7365.2	
752.95	8271.7	
753.13	6379.4	
753.31	5877	
753.49	7090.1	
753.67	7369.3	
753.85	6029.2	
754.03	5678.3	
754.21	7533.8	
754.38	7771.4	
754.56	5606	
754.74	4846.9	
754.92	6711.9	
755.1	7157.7	
755.28	4756.1	
755.46	4677.6	
755.64	7459.4	
755.82	7465.5	
755.99	4532.2	
756.17	4520.5	
756.35	5115.8	
756.53	6347.3	
756.71	3404.4	
756.89	4107.5	
757.07	5908.4	
757.25	5216.2	
757.42	4575.2	
757.6	5347.9	
757.78	6128.9	
757.96	5454.4	
758.14	4560.1	
758.32	4188.1	
758.5	5121.3	
758.67	5782.1	
758.85	4410	
759.03	4457.7	
759.21	5859.2	
759.39	5352	
759.57	4042.7	
759.75	4911	
759.92	6414.9	
760.1	5939.8	
760.28	5259.9	
760.46	5413.5	
760.64	5722	
760.82	5595.1	
760.99	5197.1	
761.17	4590.9	
761.35	6441.5	
761.53	5584.1	
761.71	4728.1	
761.89	5294	
762.06	6390.3	
762.24	6021	
762.42	4848.9	
762.6	4710.3	
762.78	6028.5	
762.96	6604.7	
763.13	5215.5	
763.31	4918.5	
763.49	6595.1	
763.67	6108.4	
763.85	5609.4	
764.02	5999.9	
764.2	6943.3	
764.38	6278.4	
764.56	4807.9	
764.74	5513.8	
764.91	6993.8	
765.09	6077	
765.27	4597	
765.45	4382.7	
765.63	6990.4	
765.8	6788.3	
765.98	4244.8	
766.16	4412	
766.34	5662.6	
766.52	5498.1	
766.69	5014.1	
766.87	4321.2	
767.05	5958.9	
767.23	6505.7	
767.41	4442	
767.58	4698	
767.76	6345.3	
767.94	6438.8	
768.12	4467.3	
768.29	4992.9	
768.47	5874.9	
768.65	6546	
768.83	4143.7	
769	5025	
769.18	5582.1	
769.36	6041.5	
769.54	5023	
769.72	4155.3	
769.89	6303	
770.07	6304.3	
770.25	4374.5	
770.43	5403.9	
770.6	6834.1	
770.78	7146.7	
770.96	4479.6	
771.14	4893.3	
771.31	6163	
771.49	5626.5	
771.67	3796.3	
771.85	3976.5	
772.02	5005.9	
772.2	5560.9	
772.38	4574.5	
772.55	4093.2	
772.73	5811.5	
772.91	5584.8	
773.09	4371	
773.26	4483.7	
773.44	5741.8	
773.62	5468.1	
773.8	4012	
773.97	3759.4	
774.15	5751.4	
774.33	5413.5	
774.5	3891.8	
774.68	4177.2	
774.86	5537	
775.04	5530.9	
775.21	3903.4	
775.39	3841.3	
775.57	5653.1	
775.74	5881.8	
775.92	3740.3	
776.1	3676.1	
776.27	5588.9	
776.45	6569.2	
776.63	3901.4	
776.81	3491.1	
776.98	5299.5	
777.16	6121.4	
777.34	3916.4	
777.51	4162.8	
777.69	5268.1	
777.87	5095.3	
778.04	3993.5	
778.22	4372.4	
778.4	5076.9	
778.57	5605.3	
778.75	3394.8	
778.93	3512.3	
779.1	4922.6	
779.28	4700.8	
779.46	3334.8	
779.64	3684.3	
779.81	5665.4	
779.99	6332.3	
780.17	4297.3	
780.34	4378.6	
780.52	5278.3	
780.69	5315.2	
780.87	3932.8	
781.05	3608.5	
781.22	5267.4	
781.4	5296.7	
781.58	3686.3	
781.75	3056.3	
781.93	5250.3	
782.11	4738.3	
782.28	4344.4	
782.46	3691.1	
782.64	4697.4	
782.81	5416.9	
782.99	3770.3	
783.17	3719.8	
783.34	5270.1	
783.52	4685.1	
783.69	3828.3	
783.87	4478.9	
784.05	4839.4	
784.22	4776.5	
784.4	4388.8	
784.58	3885.7	
784.75	5496.1	
784.93	4813.4	
785.1	3633.8	
785.28	4048.8	
785.46	5278.3	
785.63	4685.8	
785.81	3597.6	
785.99	3454.9	
786.16	4881	
786.34	5101.5	
786.51	3499.3	
786.69	3779.9	
786.87	4478.2	
787.04	4878.9	
787.22	3334.1	
787.39	4087.1	
787.57	4731.5	
787.75	5590.3	
787.92	4228.4	
788.1	4180.6	
788.27	4666.6	
788.45	4479.6	
788.63	3986.7	
788.8	2927.9	
788.98	5101.5	
789.15	4360.1	
789.33	3119.7	
789.5	3562.1	
789.68	5368.4	
789.86	5533.6	
790.03	3855.6	
790.21	3479.5	
790.38	5456.5	
790.56	4803.9	
790.73	3341.6	
790.91	3369.6	
791.09	4661.2	
791.26	5216.2	
791.44	3480.2	
791.61	3101.3	
791.79	4648.2	
791.96	4674.8	
792.14	3226.2	
792.32	2883.5	
792.49	4689.8	
792.67	4733.5	
792.84	3266.5	
793.02	3078.1	
793.19	5032.5	
793.37	5570.5	
793.54	2910.8	
793.72	3147	
793.89	5545.2	
794.07	4596.3	
794.25	3621.5	
794.42	2915.6	
794.6	5458.5	
794.77	5068	
794.95	3831.7	
795.12	3351.8	
795.3	4689.8	
795.47	5046.9	
795.65	3648.8	
795.82	3539.6	
796	4470	
796.17	5925.5	
796.35	3443.3	
796.52	3947.8	
796.7	5033.9	
796.87	5136.3	
797.05	3447.4	
797.22	4061.1	
797.4	5163.6	
797.57	5876.3	
797.75	3581.2	
797.92	3312.2	
798.1	5342.5	
798.27	4496.7	
798.45	2939.5	
798.62	3061.7	
798.8	4853	
798.97	5227.8	
799.15	3664.5	
799.32	3538.9	
799.5	4282.3	
799.67	4872.8	
799.85	3812	
800.02	2909.5	
800.2	4552.6	
800.37	4792.9	
800.55	3882.9	
800.72	3289.7	
800.9	5221.6	
801.07	5528.2	
801.25	4322.6	
801.42	3639.2	
801.6	5223.7	
801.77	4896	
801.95	3398.3	
802.12	3234.4	
802.29	4997.7	
802.47	4891.2	
802.64	3667.9	
802.82	2839.2	
802.99	4588.8	
803.17	5294.7	
803.34	3477.5	
803.52	3175.7	
803.69	5735	
803.87	4323.3	
804.04	3520.5	
804.21	3517	
804.39	5505.6	
804.56	4659.1	
804.74	2996.9	
804.91	3638.6	
805.09	4552.6	
805.26	4627	
805.44	3069.9	
805.61	3325.2	
805.78	5073.5	
805.96	5124.7	
806.13	3576.4	
806.31	3871.3	
806.48	4209.9	
806.66	4562.2	
806.83	3592.1	
807	3514.3	
807.18	4573.1	
807.35	4855.1	
807.53	3525.9	
807.7	2889	
807.87	5455.8	
808.05	4556	
808.22	3787.4	
808.4	2882.9	
808.57	4464.6	
808.74	4307.6	
808.92	3216.7	
809.09	3980.6	
809.27	4489.8	
809.44	4903.5	
809.61	2893.1	
809.79	3120.4	
809.96	5511.1	
810.14	5083.1	
810.31	2777.7	
810.48	3327.9	
810.66	4590.9	
810.83	5154.7	
811.01	3220.1	
811.18	3502	
811.35	5117.2	
811.53	4121.2	
811.7	3796.9	
811.87	3534.1	
812.05	4629.1	
812.22	4501.4	
812.39	3124.5	
812.57	3080.1	
812.74	4595	
812.92	5862.7	
813.09	3388.7	
813.26	3611.3	
813.44	5659.2	
813.61	4478.9	
813.78	2851.5	
813.96	3666.5	
814.13	4600.4	
814.3	4313.7	
814.48	3960.8	
814.65	3336.8	
814.82	5494	
815	4364.2	
815.17	3411.2	
815.34	4104.1	
815.52	4525.3	
815.69	4442	
815.87	3375.7	
816.04	3323.9	
816.21	4614.8	
816.38	4100	
816.56	3228.3	
816.73	3087.7	
816.9	5598.5	
817.08	5037.3	
817.25	3136.8	
817.42	3822.2	
817.6	4218.8	
817.77	4558.8	
817.94	3495.9	
818.12	3059.7	
818.29	4346.5	
818.46	6402.6	
818.64	3253.5	
818.81	2962.7	
818.98	4339	
819.16	5905.7	
819.33	3661.8	
819.5	3391.4	
819.67	4804.5	
819.85	5350	
820.02	3396.9	
820.19	3515.7	
820.37	4734.2	
820.54	4457.7	
820.71	3470.6	
820.88	4168.3	
821.06	4799.1	
821.23	4338.3	
821.4	3490.4	
821.58	3421.5	
821.75	5029.1	
821.92	4693.3	
822.09	2848.7	
822.27	2960	
822.44	4549.2	
822.61	4489.1	
822.79	2915.6	
822.96	5152.7	
823.13	4829.8	
823.3	4282.3	
823.48	3259	
823.65	3009.1	
823.82	5126.1	
823.99	4200.4	
824.17	4119.1	
824.34	3018.7	
824.51	5715.2	
824.68	4607.2	
824.86	3129.3	
825.03	3432.4	
825.2	4610	
825.37	5387.5	
825.55	3147	
825.72	3392.1	
825.89	5752.1	
826.06	5383.4	
826.24	3360.7	
826.41	3311.6	
826.58	5407.3	
826.75	4739	
826.92	2713.6	
827.1	2953.2	
827.27	7062.8	
827.44	5657.2	
827.61	3198.2	
827.79	3699.3	
827.96	4384.7	
828.13	4539	
828.3	3332.7	
828.47	2826.9	
828.65	4779.3	
828.82	4756.1	
828.99	4113.7	
829.16	3669.3	
829.34	5100.8	
829.51	4919.9	
829.68	3358	
829.85	3471.3	
830.02	5412.1	
830.2	5060.5	
830.37	2724.5	
830.54	4048.8	
830.71	5640.1	
830.88	4564.9	
831.05	2674	
831.23	3106.8	
831.4	5476.3	
831.57	5997.8	
831.74	3156.6	
831.91	2842.6	
832.09	4820.2	
832.26	5064.6	
832.43	3257	
832.6	3632.4	
832.77	4807.3	
832.94	5321.3	
833.12	2686.3	
833.29	3182.5	
833.46	4873.5	
833.63	6152.8	
833.8	3583.9	
833.97	3237.2	
834.15	5120.6	
834.32	4875.5	
834.49	3371.6	
834.66	3480.2	
834.83	5203.2	
835	4384.7	
835.17	3156.6	
835.35	3174.4	
835.52	4983.4	
835.69	4947.9	
835.86	3299.3	
836.03	2736.1	
836.2	5023	
836.37	4718.5	
836.55	3244	
836.72	3009.1	
836.89	4689.8	
837.06	5137	
837.23	3303.4	
837.4	3588	
837.57	5689.9	
837.75	6146	
837.92	3003.7	
838.09	3183.9	
838.26	4722.6	
838.43	5241.4	
838.6	3419.4	
838.77	3039.9	
838.94	5898.8	
839.11	5640.1	
839.29	3200.3	
839.46	2595.5	
839.63	5091.3	
839.8	4760.8	
839.97	3142.3	
840.14	3136.1	
840.31	4885.1	
840.48	5089.2	
840.65	2719.7	
840.82	3112.9	
841	5053	
841.17	4994.3	
841.34	2972.3	
841.51	2998.2	
841.68	4981.3	
841.85	4759.5	
842.02	3028.3	
842.19	2596.8	
842.36	4868	
842.53	4840	
842.7	2959.3	
842.87	3495.2	
843.05	6098.9	
843.22	4786.1	
843.39	2810.5	
843.56	3009.1	
843.73	4610.7	
843.9	5141.8	
844.07	4586.1	
844.24	3777.8	
844.41	6888.7	
844.58	4472.8	
844.75	2818	
844.92	3070.6	
845.09	5013.4	
845.26	4967	
845.43	2913.6	
845.6	3054.2	
845.77	5070.1	
845.94	4779.3	
846.12	3226.2	
846.29	3383.2	
846.46	5242.1	
846.63	4999.8	
846.8	2931.3	
846.97	3429	
847.14	5415.5	
847.31	4989.5	
847.48	3282.9	
847.65	3519.8	
847.82	5252.4	
847.99	5175.9	
848.16	3742.3	
848.33	3567.6	
848.5	4701.5	
848.67	5437.4	
848.84	2897.9	
849.01	3015.3	
849.18	4622.9	
849.35	4321.9	
849.52	3576.4	
849.69	2862.4	
849.86	5175.2	
850.03	5277.6	
850.2	2912.9	
850.37	3513.6	
850.54	5242.8	
850.71	4760.8	
850.88	3437.9	
851.05	2879.4	
851.22	4897.4	
851.39	5416.9	
851.56	2736.1	
851.73	3291.1	
851.9	4457.7	
852.07	5212.1	
852.24	3131.3	
852.41	2873.3	
852.58	4934.2	
852.75	4505.5	
852.92	3217.4	
853.09	2848	
853.26	4682.3	
853.43	5322	
853.6	2942.2	
853.77	2502.6	
853.94	5430.5	
854.11	4440	
854.28	4136.2	
854.44	3106.1	
854.61	5771.2	
854.78	5276.9	
854.95	2907.4	
855.12	3598.3	
855.29	4192.2	
855.46	5634.6	
855.63	2938.2	
855.8	3891.1	
855.97	4710.3	
856.14	5304.2	
856.31	4020.2	
856.48	3151.1	
856.65	4720.6	
856.82	4453	
856.99	2788	
857.16	3107.5	
857.33	5926.8	
857.49	4743.8	
857.66	3049.4	
857.83	3347.1	
858	4803.9	
858.17	4929.5	
858.34	2719	
858.51	2899.2	
858.68	5573.2	
858.85	5498.8	
859.02	3373.7	
859.19	3471.3	
859.36	4475.5	
859.52	4508.3	
859.69	2901.3	
859.86	3359.4	
860.03	4494.6	
860.2	5446.9	
860.37	2633.7	
860.54	2945.7	
860.71	5169.1	
860.88	5473.5	
861.05	3254.2	
861.21	3621.5	
861.38	5497.4	
861.55	4308.2	
861.72	2697.9	
861.89	3170.3	
862.06	5255.8	
862.23	5609.4	
862.4	2832.3	
862.56	2994.8	
862.73	5132.9	
862.9	4838.7	
863.07	3289	
863.24	2694.4	
863.41	4384.7	
863.58	4467.3	
863.75	2950.4	
863.91	3353.9	
864.08	5377.3	
864.25	5117.9	
864.42	3564.1	
864.59	3953.3	
864.76	5656.5	
864.93	4482.3	
865.09	2803.7	
865.26	3060.3	
865.43	5397.1	
865.6	5659.2	
865.77	2616.6	
865.94	2852.8	
866.1	5357.5	
866.27	5104.9	
866.44	4311.7	
866.61	2778.4	
866.78	4770.4	
866.95	5079	
867.11	2850.1	
867.28	2618	
867.45	5289.2	
867.62	4439.3	
867.79	3310.9	
867.96	2867.2	
868.12	4445.5	
868.29	5145.2	
868.46	2930	
868.63	3837.9	
868.8	5292	
868.97	5098.8	
869.13	3039.2	
869.3	2985.9	
869.47	5010	
869.64	5230.5	
869.81	2899.2	
869.97	2906.1	
870.14	4960.9	
870.31	5466	
870.48	2874.7	
870.65	3640.6	
870.81	4792.9	
870.98	4775.9	
871.15	3298.6	
871.32	3020.1	
871.48	5021.6	
871.65	5529.5	
871.82	2866.5	
871.99	3138.2	
872.16	5865.4	
872.32	5406	
872.49	2925.9	
872.66	2864.4	
872.83	5160.2	
872.99	4628.4	
873.16	3272	
873.33	2882.2	
873.5	4844.1	
873.67	4913.8	
873.83	3050.1	
874	3738.2	
874.17	4990.9	
874.34	5685.2	
874.5	3646.1	
874.67	3545.7	
874.84	5486.5	
875.01	4357.4	
875.17	3919.8	
875.34	2968.2	
875.51	4887.1	
875.68	5794.4	
875.84	3443.3	
876.01	4091.2	
876.18	5110.4	
876.34	5108.3	
876.51	2927.9	
876.68	2843.3	
876.85	4739	
877.01	5390.3	
877.18	3994.9	
877.35	2896.5	
877.52	4885.1	
877.68	4402.5	
877.85	2881.5	
878.02	2807.8	
878.18	4764.9	
878.35	4556	
878.52	2389.3	
878.69	3239.2	
878.85	5247.6	
879.02	5114.5	
879.19	3953.3	
879.35	3097.9	
879.52	5130.8	
879.69	5287.9	
879.86	2565.4	
880.02	3211.2	
880.19	4826.4	
880.36	5789.6	
880.52	3301.3	
880.69	3397.6	
880.86	5176.6	
881.02	5268.1	
881.19	3206.4	
881.36	3113.6	
881.52	5111	
881.69	4588.1	
881.86	3124.5	
882.02	2997.5	
882.19	5347.9	
882.36	6111.8	
882.52	2944.3	
882.69	3999.7	
882.86	4954.7	
883.02	4856.4	
883.19	3481.5	
883.36	3224.9	
883.52	5189.6	
883.69	5792.3	
883.86	2945	
884.02	2634.4	
884.19	5168.4	
884.36	4858.5	
884.52	3255.6	
884.69	3048.1	
884.86	4620.9	
885.02	5550	
885.19	3186.6	
885.36	3253.5	
885.52	4818.2	
885.69	4995	
885.86	4088.4	
886.02	3621.5	
886.19	5181.4	
886.35	4678.2	
886.52	3136.8	
886.69	3936.9	
886.85	4474.8	
887.02	5487.2	
887.19	5487.2	
887.35	5487.2	
887.52	5487.2	
887.68	5487.2	
887.85	5487.2	
888.02	5487.2	
888.18	5487.2	
888.35	5487.2	
888.51	5487.2	
888.68	5487.2	
888.85	5487.2	
889.01	5487.2	
889.18	5487.2	
889.35	5487.2	
889.51	5487.2	
889.68	5487.2	
889.84	5487.2	
890.01	5487.2	
890.17	5487.2	
890.34	5487.2	
890.51	5487.2	
890.67	5487.2	
890.84	5487.2	
891	5487.2	
891.17	5487.2	
891.34	5487.2	
891.5	5487.2	
891.67	5487.2	
891.83	5487.2	
892	5487.2	
892.16	5487.2	
892.33	5487.2	
892.5	5487.2	
892.66	5487.2	
892.83	5487.2	
892.99	5487.2	
893.16	5487.2	
893.32	5487.2	
893.49	5487.2	
893.65	5487.2	
893.82	5487.2	
893.99	5487.2	
894.15	5487.2	
894.32	5487.2	
894.48	5487.2	
894.65	5487.2	
894.81	5487.2	
894.98	5487.2	
895.14	5487.2	
895.31	5487.2	
895.47	5487.2	
895.64	5487.2	
895.81	5487.2	
895.97	5487.2	
896.14	5487.2	
896.3	5487.2	
896.47	5487.2	
896.63	5487.2	
896.8	5487.2	
896.96	5487.2	
897.13	5487.2	
897.29	5487.2	
897.46	5487.2	
897.62	5487.2	
897.79	5487.2	
897.95	5487.2	
898.12	5487.2	
898.28	5487.2	
898.45	5487.2	
898.61	5487.2	
898.78	5487.2	
898.94	5487.2	
899.11	5487.2	
899.27	5487.2	
899.44	5487.2	
899.6	5487.2	
899.77	5487.2	
899.93	5487.2	
900.1	5487.2	
900.26	5487.2	
900.43	5487.2	
900.59	5487.2	
900.76	5487.2	
900.92	5487.2	
901.09	5487.2	
901.25	5487.2	
901.42	5487.2	
901.58	5487.2	
901.75	5487.2	
901.91	5487.2	
902.07	5487.2	
902.24	5487.2	
902.4	5487.2	
902.57	5487.2	
902.73	5487.2	
902.9	5487.2	
903.06	5487.2	
903.23	5487.2	
903.39	5487.2	
903.56	5487.2	
903.72	5487.2	
903.88	5487.2	
904.05	5487.2	
904.21	5487.2	
904.38	5487.2	
904.54	5487.2	
904.71	5487.2	
904.87	5487.2	
905.03	5487.2	
905.2	5487.2	
905.36	5487.2	
905.53	5487.2	
905.69	5487.2	
905.86	5487.2	
906.02	5487.2	
906.18	5487.2	
906.35	5487.2	
906.51	5487.2	
906.68	5487.2	
906.84	5487.2	
907.01	5487.2	
907.17	5487.2	
907.33	5487.2	
907.5	5487.2	
907.66	5487.2	
907.83	5487.2	
907.99	5487.2	
908.15	5487.2	
908.32	5487.2	
908.48	5487.2	
908.65	5487.2	
908.81	5487.2	
908.97	5487.2	
909.14	5487.2	
909.3	5487.2	
909.47	5487.2	
909.63	5487.2	
909.79	5487.2	
909.96	5487.2	
910.12	5487.2	
910.28	5487.2	
910.45	5487.2	
910.61	5487.2	
910.78	5487.2	
910.94	5487.2	
911.1	5487.2	
911.27	5487.2	
911.43	5487.2	
911.59	5487.2	
911.76	5487.2	
911.92	5487.2	
912.08	5487.2	
912.25	5487.2	
912.41	5487.2	
912.57	5487.2	
912.74	5487.2	
912.9	5487.2	
913.07	5487.2	
913.23	5487.2	
913.39	5487.2	
913.56	5487.2	
913.72	5487.2	
913.88	5487.2	
914.05	5487.2	
914.21	5487.2	
914.37	5487.2	
914.54	5487.2	
914.7	5487.2	
914.86	5487.2	
915.03	5487.2	
915.19	5487.2	
