Wavelength	Intensities	
nm	a.u.	
179.22	1889.3	
179.44	1888.9	
179.65	1889.6	
179.86	1888.2	
180.08	1925.8	
180.29	4982.7	
180.51	3591.5	
180.72	5728.9	
180.94	6740.5	
181.15	3273.3	
181.37	3235.1	
181.58	5570.5	
181.79	5894.1	
182.01	3424.9	
182.22	3732.8	
182.44	5900.2	
182.65	4829.1	
182.87	4688.5	
183.08	4088.4	
183.29	6211.5	
183.51	5064.6	
183.72	3753.2	
183.94	5545.2	
184.15	5527.5	
184.37	5528.8	
184.58	3356.6	
184.79	4547.2	
185.01	5062.6	
185.22	5855.8	
185.44	4762.2	
185.65	3984.7	
185.86	5369.1	
186.08	4945.2	
186.29	3115.6	
186.51	3467.2	
186.72	5104.2	
186.94	6010.1	
187.15	4010.6	
187.36	4164.9	
187.58	7966.6	
187.79	5586.9	
188.01	4288.4	
188.22	6783.6	
188.43	6746	
188.65	5866.7	
188.86	3392.1	
189.08	4145.1	
189.29	5313.8	
189.5	5264.6	
189.72	3836.5	
189.93	3887.7	
190.15	6051.7	
190.36	7307.8	
190.57	4199.7	
190.79	4100	
191	6208.1	
191.22	6101.6	
191.43	4250.2	
191.64	3415.3	
191.86	6405.4	
192.07	6076.3	
192.29	3609.2	
192.5	3811.3	
192.71	6017.6	
192.93	5179.3	
193.14	3744.4	
193.35	3850.2	
193.57	5286.5	
193.78	6079.1	
194	3030.3	
194.21	3734.8	
194.42	4989.5	
194.64	5552.7	
194.85	4092.5	
195.07	4883.7	
195.28	5541.8	
195.49	4780	
195.71	5124.7	
195.92	3519.1	
196.13	5697.4	
196.35	5844.9	
196.56	5418.9	
196.78	4138.3	
196.99	7162.4	
197.2	6718	
197.42	4717.8	
197.63	4166.9	
197.84	4973.2	
198.06	5643.5	
198.27	3771.7	
198.48	5146.5	
198.7	5254.4	
198.91	5378.6	
199.13	4147.8	
199.34	4178.5	
199.55	5980.8	
199.77	4790.9	
199.98	3650.8	
200.19	4221.5	
200.41	5313.8	
200.62	5093.3	
200.83	4319.2	
201.05	4717.2	
201.26	5372.5	
201.47	5154.7	
201.69	3688.4	
201.9	3524.6	
202.11	5517.2	
202.33	6519.4	
202.54	3933.5	
202.76	4384.7	
202.97	5651	
203.18	5595.1	
203.4	4351.9	
203.61	4233.8	
203.82	5569.1	
204.04	5120.6	
204.25	4176.5	
204.46	4120.5	
204.68	5457.8	
204.89	5801.9	
205.1	4103.4	
205.32	3523.9	
205.53	5896.1	
205.74	6142.5	
205.96	2951.1	
206.17	4214	
206.38	5899.5	
206.6	5995.1	
206.81	4842.1	
207.02	3915	
207.24	5764.3	
207.45	6149.4	
207.66	3908.9	
207.88	3312.9	
208.09	5651	
208.3	5513.1	
208.52	3630.4	
208.73	3941	
208.94	5540.4	
209.15	6226.5	
209.37	3979.9	
209.58	4163.5	
209.79	6096.8	
210.01	5303.6	
210.22	3167.5	
210.43	3318.4	
210.65	5582.1	
210.86	5890.6	
211.07	3961.5	
211.29	3618.8	
211.5	5806	
211.71	5431.2	
211.93	3600.3	
212.14	3629.7	
212.35	5446.2	
212.56	5717.9	
212.78	4208.6	
212.99	3491.1	
213.2	6558.3	
213.42	5266	
213.63	3777.8	
213.84	4013.3	
214.06	4840.7	
214.27	4914.4	
214.48	3942.3	
214.69	4237.2	
214.91	6231.3	
215.12	6310.5	
215.33	4337.6	
215.55	4702.8	
215.76	6817.7	
215.97	5819	
216.18	4057.7	
216.4	3990.1	
216.61	5210	
216.82	6042.9	
217.04	3651.5	
217.25	3738.9	
217.46	6198.5	
217.67	5890.6	
217.89	3250.8	
218.1	3387.3	
218.31	5531.6	
218.53	5731.6	
218.74	3838.6	
218.95	3706.8	
219.16	5450.3	
219.38	6455.2	
219.59	3730.7	
219.8	4439.3	
220.01	7160.4	
220.23	5514.5	
220.44	4946.5	
220.65	3639.9	
220.87	5537	
221.08	6166.4	
221.29	3364.1	
221.5	4532.2	
221.72	7581.6	
221.93	5238	
222.14	4233.8	
222.35	4954	
222.57	5556.8	
222.78	5836	
222.99	3970.3	
223.2	4261.8	
223.42	5793.7	
223.63	5941.8	
223.84	3032.4	
224.05	3013.9	
224.27	7075.7	
224.48	6425.2	
224.69	4960.2	
224.9	4158.7	
225.12	5729.5	
225.33	5469.4	
225.54	3274	
225.75	3730.7	
225.97	5035.3	
226.18	5356.1	
226.39	4064.5	
226.6	3715.7	
226.82	5246.9	
227.03	5078.3	
227.24	4205.2	
227.45	3449.5	
227.67	5885.2	
227.88	6524.1	
228.09	4683.7	
228.3	4643.4	
228.52	5952.8	
228.73	5450.3	
228.94	3898.6	
229.15	3478.8	
229.36	5379.3	
229.58	5296.7	
229.79	3886.4	
230	4579.9	
230.21	6545.3	
230.43	5630.5	
230.64	4143	
230.85	4322.6	
231.06	5947.3	
231.28	6011.5	
231.49	3386	
231.7	4064.5	
231.91	5797.1	
232.12	5526.8	
232.34	3480.9	
232.55	4068.6	
232.76	6135	
232.97	5728.2	
233.18	3642.7	
233.4	4087.7	
233.61	5751.4	
233.82	5238	
234.03	3781.9	
234.25	3769.6	
234.46	7735.9	
234.67	5525.4	
234.88	4213.4	
235.09	3695.2	
235.31	5820.3	
235.52	5317.9	
235.73	4182.6	
235.94	3520.5	
236.15	5186.8	
236.37	6696.2	
236.58	3644	
236.79	4017.4	
237	5879.7	
237.21	4964.3	
237.43	4246.1	
237.64	3360	
237.85	10138	
238.06	5043.5	
238.27	4360.1	
238.48	3482.2	
238.7	5870.2	
238.91	5374.6	
239.12	3998.3	
239.33	4076.8	
239.54	5231.9	
239.76	5444.2	
239.97	3938.9	
240.18	3983.3	
240.39	6951.5	
240.6	5797.1	
240.82	4129.4	
241.03	3417.4	
241.24	5479	
241.45	6429.3	
241.66	3630.4	
241.87	4298.7	
242.09	6224.5	
242.3	6631.3	
242.51	4323.9	
242.72	4012	
242.93	5945.3	
243.14	5423	
243.36	4599.1	
243.57	5037.3	
243.78	6402	
243.99	5774.6	
244.2	3941.7	
244.41	3609.2	
244.63	5039.4	
244.84	5869.5	
245.05	4316.4	
245.26	3950.5	
245.47	5803.3	
245.68	6084.5	
245.9	5299.5	
246.11	4154.6	
246.32	5339.1	
246.53	5664	
246.74	6529.6	
246.95	3369.6	
247.16	4973.2	
247.38	5547.3	
247.59	3249.4	
247.8	4024.3	
248.01	5184.1	
248.22	5490.6	
248.43	3656.3	
248.64	3850.9	
248.86	4836.6	
249.07	5223	
249.28	3519.1	
249.49	4149.9	
249.7	6075	
249.91	6178.7	
250.12	3336.8	
250.34	3358	
250.55	5609.4	
250.76	5508.4	
250.97	4127.3	
251.18	4183.3	
251.39	6256.5	
251.6	5702.2	
251.81	4263.9	
252.03	4216.1	
252.24	5238.7	
252.45	6078.4	
252.66	3437.9	
252.87	4382	
253.08	5514.5	
253.29	7276.4	
253.5	3512.3	
253.72	4906.9	
253.93	5343.8	
254.14	6496.8	
254.35	3739.6	
254.56	3904.8	
254.77	5760.3	
254.98	5050.3	
255.19	3749.1	
255.41	4892.6	
255.62	5564.3	
255.83	6239.5	
256.04	4303.5	
256.25	4224.3	
256.46	6797.2	
256.67	5162.9	
256.88	4128.7	
257.09	4643.4	
257.31	5197.1	
257.52	5160.2	
257.73	5172.5	
257.94	3772.4	
258.15	5406	
258.36	5473.5	
258.57	4779.3	
258.78	3039.9	
258.99	6105	
259.2	5345.2	
259.41	3873.4	
259.63	3911.6	
259.84	6417.7	
260.05	6923.5	
260.26	5070.1	
260.47	3758.7	
260.68	6145.3	
260.89	5382.7	
261.1	4592.9	
261.31	3614.7	
261.52	6060.6	
261.73	6516.6	
261.95	4958.8	
262.16	4312.3	
262.37	6291.4	
262.58	6347.3	
262.79	4986.8	
263	3898	
263.21	5501.5	
263.42	5005.9	
263.63	3986.7	
263.84	3853.6	
264.05	6110.5	
264.26	6549.4	
264.47	4984.8	
264.69	4337.6	
264.9	6229.9	
265.11	5724.1	
265.32	3693.2	
265.53	3773	
265.74	5644.9	
265.95	4941.7	
266.16	4034.5	
266.37	4489.8	
266.58	5603.2	
266.79	5279	
267	3746.4	
267.21	3515	
267.42	5081	
267.63	5533.6	
267.84	3972.4	
268.06	3448.1	
268.27	5976.7	
268.48	6266.8	
268.69	3870.7	
268.9	4576.5	
269.11	6244.9	
269.32	4943.1	
269.53	3999	
269.74	3753.2	
269.95	5872.9	
270.16	4853	
270.37	4009.9	
270.58	4605.2	
270.79	5352.7	
271	6079.7	
271.21	4290.5	
271.42	4038.6	
271.63	5678.3	
271.84	5167.7	
272.05	3206.4	
272.26	3621.5	
272.47	5540.4	
272.68	5725.4	
272.89	3861.1	
273.11	4447.5	
273.32	5326.8	
273.53	6472.9	
273.74	4302.1	
273.95	4210.6	
274.16	6236.7	
274.37	5634	
274.58	4388.1	
274.79	3480.9	
275	5665.4	
275.21	6217	
275.42	5255.1	
275.63	4517.1	
275.84	5787.6	
276.05	7337.2	
276.26	4250.2	
276.47	3992.2	
276.68	5314.5	
276.89	6523.5	
277.1	4497.3	
277.31	3534.8	
277.52	5802.6	
277.73	5967.1	
277.94	3435.1	
278.15	3848.8	
278.36	5652.4	
278.57	5098.8	
278.78	3831.1	
278.99	4320.5	
279.2	5103.5	
279.41	5074.9	
279.62	5087.2	
279.83	3505.4	
280.04	6728.3	
280.25	4995.7	
280.46	5115.8	
280.67	4006.5	
280.88	5131.5	
281.09	6207.4	
281.3	4199	
281.51	5331.5	
281.72	5236.7	
281.93	6075.6	
282.14	3704.8	
282.35	4027.7	
282.56	6092.7	
282.77	6013.5	
282.98	3872.7	
283.19	4762.2	
283.4	7414.3	
283.61	5423	
283.82	3517.7	
284.03	4974.5	
284.24	5588.9	
284.45	6174.6	
284.66	4947.9	
284.87	4814.8	
285.08	6115.9	
285.29	6315.3	
285.5	3361.4	
285.71	3919.1	
285.92	6125.5	
286.12	6868.2	
286.33	4957.4	
286.54	3933.5	
286.75	5981.4	
286.96	5349.3	
287.17	3558.7	
287.38	4877.6	
287.59	5192.3	
287.8	5044.1	
288.01	3951.2	
288.22	4562.9	
288.43	6123.4	
288.64	4975.9	
288.85	4659.1	
289.06	4448.9	
289.27	5928.2	
289.48	6508.4	
289.69	4941.7	
289.9	4531.5	
290.11	6219.7	
290.32	5205.3	
290.53	4773.8	
290.74	4358.1	
290.94	5997.8	
291.15	6008.7	
291.36	3792.8	
291.57	4509.6	
291.78	5201.8	
291.99	4937	
292.2	3552.5	
292.41	4316.4	
292.62	6137.8	
292.83	5848.3	
293.04	5395	
293.25	3614.7	
293.46	5308.3	
293.67	6132.3	
293.88	3739.6	
294.09	3554.6	
294.29	5006.6	
294.5	5603.2	
294.71	4089.8	
294.92	3827	
295.13	5272.2	
295.34	6668.9	
295.55	3330	
295.76	3482.2	
295.97	5933	
296.18	6811.5	
296.39	3525.9	
296.6	3788.1	
296.81	5638.1	
297.01	5952.8	
297.22	3966.9	
297.43	3721.2	
297.64	5145.2	
297.85	5162.9	
298.06	3053.5	
298.27	3320.4	
298.48	5573.9	
298.69	5225.1	
298.9	4003.1	
299.11	3683.6	
299.31	5025.7	
299.52	4990.2	
299.73	4399.7	
299.94	4244.1	
300.15	5528.8	
300.36	5137	
300.57	4293.2	
300.78	4270	
300.99	5376.6	
301.2	5645.6	
301.4	3753.2	
301.61	4082.3	
301.82	5844.9	
302.03	5940.5	
302.24	4550.6	
302.45	3548.4	
302.66	5813.5	
302.87	6346.7	
303.08	3702.7	
303.29	5169.8	
303.49	5283.8	
303.7	5558.2	
303.91	3310.9	
304.12	4970.4	
304.33	5034.6	
304.54	5595.1	
304.75	3773.7	
304.96	3588	
305.16	5874.3	
305.37	6634.1	
305.58	3263.1	
305.79	3384.6	
306	5932.3	
306.21	4928.1	
306.42	3723.2	
306.63	5803.9	
306.83	5350	
307.04	6139.8	
307.25	4157.4	
307.46	4143	
307.67	4714.4	
307.88	6090.7	
308.09	3680.9	
308.29	3853.6	
308.5	5642.8	
308.71	6079.1	
308.92	3990.1	
309.13	3598.3	
309.34	5289.9	
309.55	5460.6	
309.75	4717.2	
309.96	4325.3	
310.17	5965.7	
310.38	5211.4	
310.59	4540.3	
310.8	3535.5	
311.01	5371.1	
311.21	5403.9	
311.42	3524.6	
311.63	3693.9	
311.84	5230.5	
312.05	5660.6	
312.26	4179.2	
312.46	4612	
312.67	5328.8	
312.88	5062.6	
313.09	3606.5	
313.3	3543.7	
313.51	6343.9	
313.71	6724.8	
313.92	3588.7	
314.13	3805.1	
314.34	5704.3	
314.55	5462.6	
314.76	4730.1	
314.96	4065.9	
315.17	5571.8	
315.38	5973.2	
315.59	3618.8	
315.8	3437.9	
316.01	6445.6	
316.21	6464.8	
316.42	3515	
316.63	3938.9	
316.84	5401.2	
317.05	6326.9	
317.26	4296.6	
317.46	3929.4	
317.67	5421	
317.88	5922.7	
318.09	4562.2	
318.3	3331.4	
318.5	5154.7	
318.71	5860.6	
318.92	5875.6	
319.13	4249.5	
319.34	6079.1	
319.54	6204.7	
319.75	3366.9	
319.96	3164.1	
320.17	5909.8	
320.38	6085.2	
320.58	3306.8	
320.79	3957.4	
321	6074.3	
321.21	6203.3	
321.42	3979.9	
321.62	3272	
321.83	5081.7	
322.04	5537	
322.25	3848.1	
322.46	3622.2	
322.66	5584.1	
322.87	5820.3	
323.08	4465.3	
323.29	3528.7	
323.5	6647.7	
323.7	5036	
323.91	4970.4	
324.12	4470.7	
324.33	5580	
324.53	5842.9	
324.74	4250.9	
324.95	4545.8	
325.16	4854.4	
325.37	5313.1	
325.57	3656.3	
325.78	3666.5	
325.99	5584.1	
326.2	4989.5	
326.4	5184.8	
326.61	3336.8	
326.82	5453.1	
327.03	5663.3	
327.24	5204.6	
327.44	4913.1	
327.65	5750	
327.86	4672.8	
328.07	4216.8	
328.27	3383.2	
328.48	6260	
328.69	5128.8	
328.9	5289.9	
329.1	3940.3	
329.31	5372.5	
329.52	6382.8	
329.73	3620.1	
329.93	4054.3	
330.14	5513.8	
330.35	5795.1	
330.56	6042.9	
330.76	4529.4	
330.97	5357.5	
331.18	5822.4	
331.39	4047.5	
331.59	3261.7	
331.8	6160.3	
332.01	6219	
332.22	3711.6	
332.42	4297.3	
332.63	5647.6	
332.84	5234.6	
333.05	4057	
333.25	3689.1	
333.46	5296	
333.67	5571.8	
333.88	3778.5	
334.08	4209.3	
334.29	7417.1	
334.5	6270.2	
334.7	3534.1	
334.91	5197.1	
335.12	5115.8	
335.33	5961	
335.53	4000.4	
335.74	6054.5	
335.95	5255.8	
336.16	5126.1	
336.36	4111.6	
336.57	4675.5	
336.78	5033.2	
336.98	6190.3	
337.19	4956.8	
337.4	3942.3	
337.61	6709.1	
337.81	5076.2	
338.02	3711.6	
338.23	4835.9	
338.43	6304.3	
338.64	5158.2	
338.85	3696.6	
339.05	4810	
339.26	6437.4	
339.47	4988.2	
339.68	3679.5	
339.88	5430.5	
340.09	5829.9	
340.3	5995.1	
340.5	4304.1	
340.71	3233.1	
340.92	5007.3	
341.13	6261.3	
341.33	3551.9	
341.54	4304.1	
341.75	5773.2	
341.95	5373.2	
342.16	4138.3	
342.37	4470.7	
342.57	5048.2	
342.78	5524.7	
342.99	4536.9	
343.19	3247.4	
343.4	5970.5	
343.61	5808	
343.81	3911.6	
344.02	3583.9	
344.23	5974.6	
344.43	6373.3	
344.64	4545.1	
344.85	4405.9	
345.06	5805.3	
345.26	6150.7	
345.47	4222.2	
345.68	4908.3	
345.88	4861.2	
346.09	6038.8	
346.3	4263.9	
346.5	3265.1	
346.71	5503.6	
346.92	5203.9	
347.12	3318.4	
347.33	4200.4	
347.54	6092.7	
347.74	6549.4	
347.95	4163.5	
348.16	3044.6	
348.36	5311.1	
348.57	5150.6	
348.78	4148.5	
348.98	4516.5	
349.19	5438.7	
349.39	5006.6	
349.6	3286.3	
349.81	3702.7	
350.01	5770.5	
350.22	5207.3	
350.43	3998.3	
350.63	4902.2	
350.84	5605.3	
351.05	5264	
351.25	3654.9	
351.46	3320.4	
351.67	6136.4	
351.87	5248.3	
352.08	3953.3	
352.29	4488.5	
352.49	5967.1	
352.7	6168.5	
352.9	3495.9	
353.11	4420.2	
353.32	6677.7	
353.52	5339.7	
353.73	3502	
353.94	4461.2	
354.14	5814.9	
354.35	5602.6	
354.55	3563.5	
354.76	4027	
354.97	5826.5	
355.17	5589.6	
355.38	3406.5	
355.59	4763.6	
355.79	5141.1	
356	5643.5	
356.2	3972.4	
356.41	3455.6	
356.62	4888.5	
356.82	5434.6	
357.03	4308.9	
357.24	3844.7	
357.44	5236	
357.65	5347.2	
357.85	5234.6	
358.06	4004.5	
358.27	4845.5	
358.47	5087.2	
358.68	3269.2	
358.88	4214	
359.09	5720	
359.3	6115.2	
359.5	4935.6	
359.71	4339.6	
359.91	6614.9	
360.12	5898.1	
360.33	4166.9	
360.53	4736.3	
360.74	5108.3	
360.94	5216.2	
361.15	4363.5	
361.36	3594.9	
361.56	5972.6	
361.77	5353.4	
361.97	4914.4	
362.18	3816.7	
362.38	5944.6	
362.59	4967.7	
362.8	3514.3	
363	3383.9	
363.21	4752.7	
363.41	5502.9	
363.62	4122.6	
363.83	5199.1	
364.03	5580.7	
364.24	6619	
364.44	5203.9	
364.65	5227.1	
364.85	5347.9	
365.06	4910.3	
365.27	3678.2	
365.47	3679.5	
365.68	6317.3	
365.88	5269.4	
366.09	4135.5	
366.29	3758	
366.5	5569.8	
366.71	6052.4	
366.91	5130.8	
367.12	4301.4	
367.32	6567.8	
367.53	5879	
367.73	4231.1	
367.94	5199.1	
368.14	5797.8	
368.35	6730.3	
368.56	4173.8	
368.76	3502.7	
368.97	5871.5	
369.17	7627.3	
369.38	3692.5	
369.58	3961.5	
369.79	4982	
369.99	6262.7	
370.2	4973.2	
370.4	4115.1	
370.61	5617.6	
370.82	6801.3	
371.02	3930.1	
371.23	3201	
371.43	4774.5	
371.64	6190.3	
371.84	3904.8	
372.05	5199.8	
372.25	7567.9	
372.46	5918.6	
372.66	3922.5	
372.87	3882.9	
373.07	5976	
373.28	7613.7	
373.48	4956.8	
373.69	4697.4	
373.9	5329.5	
374.1	5385.5	
374.31	4886.5	
374.51	4427	
374.72	6248.4	
374.92	5014.1	
375.13	5087.2	
375.33	4222.9	
375.54	5778	
375.74	5149.3	
375.95	4342.4	
376.15	5558.2	
376.36	5723.4	
376.56	5586.9	
376.77	4323.3	
376.97	4795.7	
377.18	6768.5	
377.38	5814.2	
377.59	5122.7	
377.79	3768.9	
378	5571.2	
378.2	6057.2	
378.41	3840.6	
378.61	3689.8	
378.82	6118	
379.02	5117.2	
379.23	3973.1	
379.43	5147.2	
379.64	6127.5	
379.84	5718.6	
380.05	3825.6	
380.25	3757.3	
380.46	5881.1	
380.66	5433.9	
380.87	5173.9	
381.07	5621.7	
381.28	6546	
381.48	5894.1	
381.69	3859.7	
381.89	3913.7	
382.1	4783.4	
382.3	6022.4	
382.51	4996.4	
382.71	5991	
382.91	5933	
383.12	6486.6	
383.32	4230.4	
383.53	4521.2	
383.73	5750	
383.94	5503.6	
384.14	4377.2	
384.35	3460.4	
384.55	5438.7	
384.76	5959.6	
384.96	4283	
385.17	4625.7	
385.37	5879	
385.58	5160.9	
385.78	4616.1	
385.98	3358.7	
386.19	5414.8	
386.39	5771.9	
386.6	3994.2	
386.8	4231.1	
387.01	5926.8	
387.21	5939.8	
387.42	4666	
387.62	5274.2	
387.83	5144.5	
388.03	5935.7	
388.23	4216.8	
388.44	5194.3	
388.64	4757.4	
388.85	4965.6	
389.05	4627	
389.26	5246.2	
389.46	6890.7	
389.67	6346	
389.87	4601.1	
390.07	4655	
390.28	5501.5	
390.48	5082.4	
390.69	3782.6	
390.89	4174.4	
391.1	5152	
391.3	6224.5	
391.5	5390.9	
391.71	6007.4	
391.91	5933.6	
392.12	6997.2	
392.32	5520	
392.53	4661.2	
392.73	5272.8	
392.93	5499.5	
393.14	4300.1	
393.34	5126.1	
393.55	6130.9	
393.75	5489.2	
393.95	4291.2	
394.16	4260.5	
394.36	5210	
394.57	5958.9	
394.77	3742.3	
394.98	4204.5	
395.18	5183.4	
395.38	5273.5	
395.59	5063.9	
395.79	3953.3	
396	5245.5	
396.2	5752.7	
396.4	4766.3	
396.61	4759.5	
396.81	5979.4	
397.02	5199.1	
397.22	5066	
397.42	5137	
397.63	5945.9	
397.83	5101.5	
398.04	3884.3	
398.24	4402.5	
398.44	5730.9	
398.65	4785.4	
398.85	3753.9	
399.05	3828.3	
399.26	5123.3	
399.46	6891.4	
399.67	4255.7	
399.87	3938.2	
400.07	5436	
400.28	5849.7	
400.48	4026.3	
400.69	5106.3	
400.89	6047	
401.09	6479.1	
401.3	3891.1	
401.5	5064.6	
401.7	6769.2	
401.91	7002.7	
402.11	4238.6	
402.32	4510.3	
402.52	6080.4	
402.72	6044.9	
402.93	4748.6	
403.13	3579.2	
403.33	6853.2	
403.54	5547.3	
403.74	4410	
403.94	5412.8	
404.15	5677	
404.35	6795.2	
404.56	4205.2	
404.76	6171.2	
404.96	6062.7	
405.17	5837.4	
405.37	5476.3	
405.57	4724	
405.78	6066.8	
405.98	5540.4	
406.18	4187.4	
406.39	5240.8	
406.59	6120	
406.79	5726.1	
407	4009.9	
407.2	4102.8	
407.4	5982.8	
407.61	6368.5	
407.81	4100.7	
408.01	5909.1	
408.22	4929.5	
408.42	6998.6	
408.62	5126.1	
408.83	4526.7	
409.03	5555.5	
409.23	5334.3	
409.44	4650.3	
409.64	4921.3	
409.84	6455.9	
410.05	6321.4	
410.25	4707.6	
410.45	4464.6	
410.66	5711.8	
410.86	8349.6	
411.06	4872.8	
411.27	4751.3	
411.47	8069.7	
411.67	5960.3	
411.88	4985.4	
412.08	5217.5	
412.28	6527.6	
412.49	7085.3	
412.69	4625	
412.89	4667.3	
413.09	6927.6	
413.3	6741.9	
413.5	4783.4	
413.7	4383.3	
413.91	5997.1	
414.11	6877.1	
414.31	4614.1	
414.52	5005.2	
414.72	6510.5	
414.92	6377.4	
415.12	4666	
415.33	5098.8	
415.53	6754.9	
415.73	7045	
415.94	5560.2	
416.14	4954	
416.34	5764.3	
416.55	5526.8	
416.75	6133.7	
416.95	5523.4	
417.15	6748.7	
417.36	7588.4	
417.56	6361	
417.76	5413.5	
417.97	7177.4	
418.17	6802	
418.37	4872.8	
418.57	4936.3	
418.78	6557.6	
418.98	6283.9	
419.18	5955.5	
419.38	5866.7	
419.59	6331	
419.79	5926.1	
419.99	4879.6	
420.2	5288.5	
420.4	6849.8	
420.6	7005.4	
420.8	4787.5	
421.01	4642.7	
421.21	6619.7	
421.41	6887.3	
421.61	5210	
421.82	4881	
422.02	6184.9	
422.22	7160.4	
422.42	5759.6	
422.63	5414.8	
422.83	6293.4	
423.03	7479.9	
423.23	5361.6	
423.44	4283.7	
423.64	6404	
423.84	6144.6	
424.04	4857.1	
424.25	4500.1	
424.45	7378.8	
424.65	7385	
424.85	4303.5	
425.06	4916.5	
425.26	7238.2	
425.46	5755.5	
425.66	5447.6	
425.87	5051	
426.07	7078.5	
426.27	6930.3	
426.47	5197.1	
426.67	4506.2	
426.88	7441	
427.08	6879.1	
427.28	5498.1	
427.48	4566.3	
427.69	5655.1	
427.89	6391.7	
428.09	5431.2	
428.29	4601.1	
428.5	7206.8	
428.7	6656.6	
428.9	4461.2	
429.1	4921.3	
429.3	6505.7	
429.51	6972	
429.71	4807.9	
429.91	5550.7	
430.11	6851.1	
430.31	7460.8	
430.52	5061.2	
430.72	5460.6	
430.92	7499.7	
431.12	6958.3	
431.32	4744.5	
431.53	5224.4	
431.73	5686.5	
431.93	7505.1	
432.13	4658.4	
432.33	4486.4	
432.54	6238.1	
432.74	6591	
432.94	4408.6	
433.14	5595.7	
433.34	6806.1	
433.55	6221	
433.75	5448.3	
433.95	7306.5	
434.15	6543.3	
434.35	6228.6	
434.56	4639.3	
434.76	4109.6	
434.96	6426.5	
435.16	6748.7	
435.36	4513.7	
435.56	5625.1	
435.77	6167.1	
435.97	6292.7	
436.17	6379.4	
436.37	5617.6	
436.57	6152.8	
436.78	6004	
436.98	5549.3	
437.18	6202.6	
437.38	6765.8	
437.58	6379.4	
437.78	6480.5	
437.99	4932.9	
438.19	6940.6	
438.39	7797.3	
438.59	4882.4	
438.79	4376.5	
438.99	7632.1	
439.2	6333.7	
439.4	4529.4	
439.6	4442	
439.8	6654.5	
440	7771.4	
440.2	5528.8	
440.4	5674.2	
440.61	7063.4	
440.81	7687.4	
441.01	4543.8	
441.21	5627.1	
441.41	7425.9	
441.61	7150.8	
441.81	5903.6	
442.02	7112.6	
442.22	8023.9	
442.42	7210.2	
442.62	4679.6	
442.82	4823.6	
443.02	7397.9	
443.22	6498.2	
443.43	5171.8	
443.63	4711	
443.83	6304.3	
444.03	6386.2	
444.23	6059.9	
444.43	5631.2	
444.63	6627.2	
444.83	7935.2	
445.04	4833.2	
445.24	6258.6	
445.44	7089.4	
445.64	7188.4	
445.84	5730.2	
446.04	5725.4	
446.24	6388.3	
446.44	7502.4	
446.65	4866.7	
446.85	5250.3	
447.05	6583.5	
447.25	7454.6	
447.45	5362.9	
447.65	4715.8	
447.85	6815.6	
448.05	6476.4	
448.25	5831.9	
448.46	5588.2	
448.66	6777.4	
448.86	6551.5	
449.06	4482.3	
449.26	5885.2	
449.46	7197.2	
449.66	6148.7	
449.86	5250.3	
450.06	5313.8	
450.26	6331	
450.47	6973.3	
450.67	5580	
450.87	5991.7	
451.07	7007.5	
451.27	6828.6	
451.47	4818.9	
451.67	5447.6	
451.87	6475	
452.07	7753.6	
452.27	5052.3	
452.47	5100.1	
452.67	6795.8	
452.88	7354.9	
453.08	4502.8	
453.28	6510.5	
453.48	8133.2	
453.68	6723.5	
453.88	4956.8	
454.08	5195.7	
454.28	7155.6	
454.48	6791.1	
454.68	5819	
454.88	6407.4	
455.08	7255.3	
455.28	6940.6	
455.48	4867.3	
455.68	5459.9	
455.89	7703.8	
456.09	7389.1	
456.29	5231.9	
456.49	5236	
456.69	7585.7	
456.89	6795.8	
457.09	5735	
457.29	6105.7	
457.49	7205.4	
457.69	7239.6	
457.89	5513.8	
458.09	4939	
458.29	6874.3	
458.49	7592.5	
458.69	6037.4	
458.89	5413.5	
459.09	7907.2	
459.29	8041.7	
459.49	5416.9	
459.69	6410.1	
459.9	7451.2	
460.1	6823.1	
460.3	5410.1	
460.5	5144.5	
460.7	7376.8	
460.9	7063.4	
461.1	4761.5	
461.3	6154.1	
461.5	8043.1	
461.7	7625.3	
461.9	5089.9	
462.1	5732.9	
462.3	7054.6	
462.5	7694.2	
462.7	5239.4	
462.9	5352	
463.1	8825.4	
463.3	8338	
463.5	5582.8	
463.7	6539.8	
463.9	7245.7	
464.1	7582.9	
464.3	5629.2	
464.5	5958.2	
464.7	7955.7	
464.9	7542.7	
465.1	7362.4	
465.3	6227.9	
465.5	8280.6	
465.7	8173.4	
465.9	6550.1	
466.1	6490.7	
466.3	8043.7	
466.5	7857.4	
466.7	7233.4	
466.9	6092.7	
467.1	7748.1	
467.3	8817.9	
467.5	7133.1	
467.7	5958.2	
467.9	8984.4	
468.1	9841.9	
468.3	6911.2	
468.5	7333.1	
468.7	7779.6	
468.9	7748.8	
469.1	6279.8	
469.3	7069.6	
469.5	9836.4	
469.7	7263.5	
469.9	6836.8	
470.1	6098.2	
470.3	7682.6	
470.5	7835.5	
470.7	7425.9	
470.9	6227.9	
471.1	7534.5	
471.3	8053.3	
471.5	5976	
471.69	8036.9	
471.89	7408.9	
472.09	7010.2	
472.29	6860	
472.49	7314	
472.69	7169.3	
472.89	8110.6	
473.09	5858.6	
473.29	6105.7	
473.49	7345.4	
473.69	7513.3	
473.89	7008.1	
474.09	6224.5	
474.29	8933.2	
474.49	8525.7	
474.69	7010.2	
474.89	6318	
475.09	7574.1	
475.29	7595.2	
475.49	5862.7	
475.69	5991.7	
475.88	9327.1	
476.08	7904.5	
476.28	5741.1	
476.48	6214.2	
476.68	8440.4	
476.88	8271.7	
477.08	6036.7	
477.28	6351.4	
477.48	7668.3	
477.68	8335.9	
477.88	5846.3	
478.08	6229.2	
478.28	8721.6	
478.48	7856	
478.67	6260	
478.87	5702.9	
479.07	8475.2	
479.27	7987.8	
479.47	6592.4	
479.67	6503.7	
479.87	8284.7	
480.07	8838.4	
480.27	5750	
480.47	7498.3	
480.67	8046.5	
480.87	8645.2	
481.06	6081.1	
481.26	6929.6	
481.46	7934.5	
481.66	7859.4	
481.86	6563.1	
482.06	7631.4	
482.26	7677.8	
482.46	8746.2	
482.66	6393.8	
482.86	6052.4	
483.05	7982.3	
483.25	7406.1	
483.45	8982.4	
483.65	6442.9	
483.85	7619.8	
484.05	7857.4	
484.25	6922.1	
484.45	7445.7	
484.65	8826.1	
484.84	8832.9	
485.04	6344.6	
485.24	6339.1	
485.44	9099.1	
485.64	7291.5	
485.84	5563	
486.04	7118.7	
486.24	7729	
486.44	8107.9	
486.63	5594.4	
486.83	6428.6	
487.03	7506.5	
487.23	7795.9	
487.43	5646.2	
487.63	8282	
487.83	7924.3	
488.02	8893	
488.22	6761.7	
488.42	7431.4	
488.62	8831.5	
488.82	7681.9	
489.02	6417.7	
489.22	6427.2	
489.41	8652	
489.61	8212.4	
489.81	6138.4	
490.01	6208.8	
490.21	8496.3	
490.41	9288.9	
490.61	6139.8	
490.8	6260	
491	8075.8	
491.2	7387.7	
491.4	6995.9	
491.6	5948	
491.8	7978.9	
491.99	8213.7	
492.19	5743.2	
492.39	6169.8	
492.59	8519.6	
492.79	8704.5	
492.99	6991.8	
493.18	6075.6	
493.38	8723.7	
493.58	9447.3	
493.78	6860.7	
493.98	6430.6	
494.18	8426.7	
494.37	7755.7	
494.57	7025.9	
494.77	6928.3	
494.97	8635.6	
495.17	8945.5	
495.37	6518	
495.56	6810.9	
495.76	9072.5	
495.96	8718.9	
496.16	7846.5	
496.36	6673.6	
496.55	8926.4	
496.75	8460.8	
496.95	7087.3	
497.15	6929	
497.35	8818.6	
497.54	8817.9	
497.74	6743.3	
497.94	8568.7	
498.14	9602.2	
498.34	9463	
498.53	6394.4	
498.73	7224.6	
498.93	8201.4	
499.13	8820.6	
499.33	7051.2	
499.52	7695.6	
499.72	8787.2	
499.92	9096.4	
500.12	6771.9	
500.32	7101	
500.51	9097.1	
500.71	8889.5	
500.91	7981.6	
501.11	7472.4	
501.31	9014.5	
501.5	9538.1	
501.7	8143.4	
501.9	7034.8	
502.1	8845.9	
502.29	9208.4	
502.49	7666.9	
502.69	8071.7	
502.89	9104.6	
503.09	9002.9	
503.28	6585.6	
503.48	6705	
503.68	8249.2	
503.88	8355.7	
504.07	7730.4	
504.27	7267.6	
504.47	8671.8	
504.67	8841.8	
504.86	7686.7	
505.06	7355.6	
505.26	8381	
505.46	10342	
505.65	7243	
505.85	7469.6	
506.05	8267	
506.25	8852.7	
506.44	6548	
506.64	7572.7	
506.84	8208.3	
507.04	9293	
507.23	6707.1	
507.43	7445	
507.63	10348	
507.83	8516.1	
508.02	7376.8	
508.22	7086.7	
508.42	10648	
508.62	8299.7	
508.81	7284.6	
509.01	7899	
509.21	8107.9	
509.4	8382.3	
509.6	7432.8	
509.8	6736.5	
510	8471.1	
510.19	10023	
510.39	6780.1	
510.59	6954.9	
510.79	8262.2	
510.98	9770.9	
511.18	6896.2	
511.38	7048.4	
511.57	9167.4	
511.77	9013.1	
511.97	7776.8	
512.17	6681.8	
512.36	9134.6	
512.56	9162.6	
512.76	6776.7	
512.95	6537.1	
513.15	9232.9	
513.35	7763.8	
513.55	7684.7	
513.74	6809.5	
513.94	9142.1	
514.14	8561.9	
514.33	7830.7	
514.53	7550.9	
514.73	8501.1	
514.92	8712.1	
515.12	7025.2	
515.32	6866.2	
515.51	8772.8	
515.71	9411.1	
515.91	8619.2	
516.11	6851.1	
516.3	10591	
516.5	8347.5	
516.7	7496.9	
516.89	8194.6	
517.09	8597.4	
517.29	8340	
517.48	7785.7	
517.68	7173.4	
517.88	8211.7	
518.07	8881.4	
518.27	7610.3	
518.47	6676.4	
518.66	9426.8	
518.86	8018.5	
519.06	6544.6	
519.25	6997.9	
519.45	8408.3	
519.65	9933.3	
519.84	7634.8	
520.04	8368.7	
520.24	10411	
520.43	9140.1	
520.63	7463.5	
520.83	7094.8	
521.02	8257.4	
521.22	9017.9	
521.42	7660.1	
521.61	8240.3	
521.81	8443.1	
522.01	8603.5	
522.2	7529	
522.4	7230	
522.6	9187.2	
522.79	7909.3	
522.99	7275.1	
523.18	6589	
523.38	8953	
523.58	8882.7	
523.77	8690.2	
523.97	6671.6	
524.17	10849	
524.36	9994.1	
524.56	8118.1	
524.76	7677.8	
524.95	8953.7	
525.15	8570.1	
525.34	7462.1	
525.54	7551.5	
525.74	9312.1	
525.93	8284.7	
526.13	8746.2	
526.33	7477.1	
526.52	9669.1	
526.72	9231.6	
526.91	8763.3	
527.11	7986.4	
527.31	9856.9	
527.5	10164	
527.7	7859.4	
527.89	6806.8	
528.09	8587.8	
528.29	9192	
528.48	8342.1	
528.68	7939.3	
528.87	9609.1	
529.07	9704.6	
529.27	7834.8	
529.46	7329.7	
529.66	9171.5	
529.85	9680.1	
530.05	7219.8	
530.25	7964.6	
530.44	10604	
530.64	9129.8	
530.83	7538.6	
531.03	7863.5	
531.23	9477.3	
531.42	9455.5	
531.62	8558.5	
531.81	7757.7	
532.01	9773.6	
532.21	10229	
532.4	7478.5	
532.6	7949.5	
532.79	10520	
532.99	9803.6	
533.18	7990.5	
533.38	9104.6	
533.58	9296.4	
533.77	10052	
533.97	7928.4	
534.16	8822	
534.36	10377	
534.55	9355.8	
534.75	8995.4	
534.95	7991.2	
535.14	10156	
535.34	9399.5	
535.53	7661.5	
535.73	9727.9	
535.92	10884	
536.12	9637.1	
536.31	7725.6	
536.51	9015.2	
536.71	9856.2	
536.9	9430.9	
537.1	7944.8	
537.29	8116.1	
537.49	10253	
537.68	9253.4	
537.88	8503.8	
538.07	7621.9	
538.27	9544.2	
538.46	10733	
538.66	7581.6	
538.86	7968.6	
539.05	9551.7	
539.25	10232	
539.44	8276.5	
539.64	7953.6	
539.83	9506	
540.03	10558	
540.22	7740	
540.42	7951.6	
540.61	9736	
540.81	9968.8	
541	8448.6	
541.2	9078.6	
541.39	9196.1	
541.59	9716.2	
541.78	8698.4	
541.98	7892.9	
542.18	8877.3	
542.37	8892.3	
542.57	8228.7	
542.76	8753	
542.96	8943.5	
543.15	9846	
543.35	8249.9	
543.54	7529	
543.74	10114	
543.93	9700.5	
544.13	8158.4	
544.32	9336.7	
544.52	9887.6	
544.71	9093	
544.91	7217	
545.1	8582.4	
545.3	9137.4	
545.49	9935.4	
545.69	7248.4	
545.88	7886.7	
546.08	10856	
546.27	10365	
546.47	8459.5	
546.66	7593.2	
546.86	10115	
547.05	10883	
547.24	7933.1	
547.44	7773.4	
547.63	9046.6	
547.83	10213	
548.02	8208.9	
548.22	8398.7	
548.41	8862.9	
548.61	10266	
548.8	7728.4	
549	7557	
549.19	9407.7	
549.39	9781.1	
549.58	7334.5	
549.78	8042.4	
549.97	9966.8	
550.17	9450	
550.36	8932.6	
550.55	9915.6	
550.75	9327.1	
550.94	10341	
551.14	7596.6	
551.33	7946.8	
551.53	8667.7	
551.72	9752.4	
551.92	8094.9	
552.11	7723.6	
552.31	9697.8	
552.5	9740.8	
552.69	9643.9	
552.89	7428	
553.08	9696.4	
553.28	9458.9	
553.47	7767.3	
553.67	9009	
553.86	10522	
554.06	8658.8	
554.25	6947.4	
554.44	7648.5	
554.64	11237	
554.83	10707	
555.03	7630.7	
555.22	7958.4	
555.42	10013	
555.61	9596.8	
555.8	7730.4	
556	8121.6	
556.19	8764.6	
556.39	10189	
556.58	7802.8	
556.78	7778.9	
556.97	9506.7	
557.16	9215.2	
557.36	9167.4	
557.55	7418.4	
557.75	8456.1	
557.94	10327	
558.13	7601.4	
558.33	7290.8	
558.52	10073	
558.72	8979.7	
558.91	7462.8	
559.1	7634.1	
559.3	8709.3	
559.49	8352.3	
559.69	6898.2	
559.88	8009.6	
560.07	9476	
560.27	9916.9	
560.46	8172.1	
560.66	8354.3	
560.85	9280	
561.04	8462.2	
561.24	7376.8	
561.43	7586.4	
561.63	8670.4	
561.82	8921	
562.01	8873.2	
562.21	7932.5	
562.4	9388.6	
562.59	10429	
562.79	7701	
562.98	7359	
563.18	9407.7	
563.37	10989	
563.56	8308.6	
563.76	7328.3	
563.95	8775.5	
564.14	8764.6	
564.34	7769.3	
564.53	7458.7	
564.73	9398.8	
564.92	9819.3	
565.11	7876.5	
565.31	7307.2	
565.5	10017	
565.69	8869.1	
565.89	7474.4	
566.08	7769.3	
566.27	9887.6	
566.47	10332	
566.66	8462.2	
566.85	7027.9	
567.05	9485.5	
567.24	8826.1	
567.44	7502.4	
567.63	8911.4	
567.82	9693	
568.02	9445.2	
568.21	7376.1	
568.4	7922.2	
568.6	9287.5	
568.79	9340.1	
568.98	7174.7	
569.18	7449.8	
569.37	9356.5	
569.56	11458	
569.76	7822.6	
569.95	8868.4	
570.14	9775.6	
570.34	9586.5	
570.53	7331.7	
570.72	7362.4	
570.91	10177	
571.11	9255.5	
571.3	7911.3	
571.49	8818.6	
571.69	9251.4	
571.88	8880.7	
572.07	8483.4	
572.27	8372.1	
572.46	8817.9	
572.65	10038	
572.85	7593.9	
573.04	7911.3	
573.23	10220	
573.43	9403.6	
573.62	7432.1	
573.81	8030.8	
574	9409.7	
574.2	9265.7	
574.39	7727	
574.58	7912.7	
574.78	10317	
574.97	9607	
575.16	8346.8	
575.36	8578.3	
575.55	10049	
575.74	10184	
575.93	7397.9	
576.13	8581	
576.32	9371.5	
576.51	10010	
576.71	7831.4	
576.9	9313.5	
577.09	10344	
577.28	9889.6	
577.48	8260.8	
577.67	7293.5	
577.86	9517.6	
578.05	9849.4	
578.25	8018.5	
578.44	8140.7	
578.63	9607.7	
578.83	10862	
579.02	7434.1	
579.21	9038.4	
579.4	9812.5	
579.6	9394	
579.79	8258.8	
579.98	10537	
580.17	10195	
580.37	10121	
580.56	7651.9	
580.75	8413.7	
580.94	10748	
581.14	10543	
581.33	8931.2	
581.52	7788.4	
581.71	10028	
581.91	10776	
582.1	7528.3	
582.29	8171.4	
582.48	9639.8	
582.68	9602.9	
582.87	8594.6	
583.06	8140	
583.25	9927.2	
583.45	9441.8	
583.64	8909.3	
583.83	9712.2	
584.02	9394.7	
584.21	9905.3	
584.41	8990.6	
584.6	8176.2	
584.79	9617.9	
584.98	10469	
585.18	7542	
585.37	7651.2	
585.56	9200.8	
585.75	9970.9	
585.94	7877.9	
586.14	8491.6	
586.33	10689	
586.52	9541.5	
586.71	8395.3	
586.91	8086.7	
587.1	8998.1	
587.29	10093	
587.48	8010.3	
587.67	7840.3	
587.87	9984.5	
588.06	10051	
588.25	9314.8	
588.44	8644.5	
588.63	9629.5	
588.83	10103	
589.02	7947.5	
589.21	7875.1	
589.4	9348.3	
589.59	9217.9	
589.78	7100.3	
589.98	7372.7	
590.17	8849.3	
590.36	9368.8	
590.55	6686.6	
590.74	7522.2	
590.94	10774	
591.13	9120.3	
591.32	7333.1	
591.51	6837.5	
591.7	9682.8	
591.89	9273.9	
592.09	6948.1	
592.28	7462.8	
592.47	8404.9	
592.66	10386	
592.85	6980.2	
593.05	7288.7	
593.24	9037.7	
593.43	9814.5	
593.62	7247.8	
593.81	7871.7	
594	9092.3	
594.19	9291	
594.39	7249.8	
594.58	7129.7	
594.77	9406.3	
594.96	10063	
595.15	7082.6	
595.34	7856.7	
595.54	9519.6	
595.73	8586.5	
595.92	6470.2	
596.11	7664.9	
596.3	9910.1	
596.49	8602.8	
596.68	7468.9	
596.88	7955	
597.07	9701.9	
597.26	8363.2	
597.45	6911.2	
597.64	8147.5	
597.83	8684.1	
598.02	9399.5	
598.22	7039.6	
598.41	7801.4	
598.6	9108.7	
598.79	8591.2	
598.98	7070.3	
599.17	8024.6	
599.36	9109.4	
599.55	10249	
599.74	9170.8	
599.94	8992.6	
600.13	9697.1	
600.32	8386.4	
600.51	6660	
600.7	6903.7	
600.89	10337	
601.08	10417	
601.27	6685.3	
601.47	7714.7	
601.66	9702.6	
601.85	10303	
602.04	7324.2	
602.23	7596.6	
602.42	8554.4	
602.61	9240.4	
602.8	7309.2	
602.99	7039.6	
603.18	8931.9	
603.37	9193.3	
603.57	7742	
603.76	8292.2	
603.95	9919.7	
604.14	9525.8	
604.33	7107.1	
604.52	7494.2	
604.71	9179.7	
604.9	8814.5	
605.09	8136.6	
605.28	8011.7	
605.47	9748.3	
605.66	9483.5	
605.86	7798.7	
606.05	7117.4	
606.24	9766.8	
606.43	8248.5	
606.62	7464.2	
606.81	8282.7	
607	9562	
607.19	8819.2	
607.38	6865.5	
607.57	7149.5	
607.76	8668.4	
607.95	8048.5	
608.14	7564.5	
608.33	8230.8	
608.52	8711.4	
608.72	9504.6	
608.91	6696.9	
609.1	6648.4	
609.29	8802.2	
609.48	8207.6	
609.67	7802.8	
609.86	6726.2	
610.05	8258.8	
610.24	8732.5	
610.43	6549.4	
610.62	6231.3	
610.81	9815.2	
611	9579	
611.19	6771.3	
611.38	7478.5	
611.57	8982.4	
611.76	10492	
611.95	6502.3	
612.14	6351.4	
612.33	8837	
612.52	8290.2	
612.71	7174.7	
612.9	6267.5	
613.09	7910.6	
613.28	10401	
613.47	6765.1	
613.66	7860.1	
613.85	8944.8	
614.04	8452	
614.24	6877.1	
614.43	6034.7	
614.62	9037.7	
614.81	9004.9	
615	7576.1	
615.19	7510.6	
615.38	8297.7	
615.57	8671.8	
615.76	7279.8	
615.95	8381	
616.14	9080	
616.33	8726.4	
616.52	7674.4	
616.71	7924.3	
616.9	9078.6	
617.09	8884.8	
617.28	6949.4	
617.47	8594	
617.66	8056	
617.85	8101.1	
618.04	7950.9	
618.22	7419.8	
618.41	8456.1	
618.6	9434.3	
618.79	7297.6	
618.98	6974	
619.17	9818.6	
619.36	7970.7	
619.55	7157.7	
619.74	7181.5	
619.93	8898.4	
620.12	8352.3	
620.31	7789.1	
620.5	7936.6	
620.69	9590.6	
620.88	9992.7	
621.07	8631.5	
621.26	7684	
621.45	9216.5	
621.64	9265.7	
621.83	7727	
622.02	6852.5	
622.21	9211.1	
622.4	9035.6	
622.59	8367.3	
622.78	8069.7	
622.97	8581.7	
623.16	9601.6	
623.35	7693.5	
623.54	6784.9	
623.72	8862.2	
623.91	9039.7	
624.1	8034.9	
624.29	6642.2	
624.48	10100	
624.67	9282.1	
624.86	7880.6	
625.05	6874.3	
625.24	10110	
625.43	8433.5	
625.62	9607	
625.81	7162.4	
626	9577	
626.19	8777.6	
626.38	8028	
626.56	7320.1	
626.75	8623.3	
626.94	9416.6	
627.13	7985	
627.32	6631.3	
627.51	9370.1	
627.7	10686	
627.89	6723.5	
628.08	7913.4	
628.27	8564.6	
628.46	8723	
628.65	6982.9	
628.83	6668.2	
629.02	9413.8	
629.21	8527.1	
629.4	7498.3	
629.59	7783.6	
629.78	8544.8	
629.97	9667.1	
630.16	7788.4	
630.35	7247.8	
630.54	9968.8	
630.72	9710.8	
630.91	7174.7	
631.1	7632.8	
631.29	9056.8	
631.48	9347.6	
631.67	7903.1	
631.86	7223.2	
632.05	8660.9	
632.24	8719.6	
632.42	6897.6	
632.61	7598.6	
632.8	8809	
632.99	8419.2	
633.18	7565.2	
633.37	8027.4	
633.56	9099.8	
633.75	8927.8	
633.93	7613.7	
634.12	7233.4	
634.31	9964.1	
634.5	9513.5	
634.69	7271	
634.88	7845.1	
635.07	8743.5	
635.25	9499.8	
635.44	8234.9	
635.63	8397.4	
635.82	8574.8	
636.01	8210.3	
636.2	8182.3	
636.39	7638.2	
636.57	9752.4	
636.76	9576.3	
636.95	7060	
637.14	8597.4	
637.33	9051.3	
637.52	10138	
637.7	6840.9	
637.89	7798.7	
638.08	8699.8	
638.27	10264	
638.46	7841.7	
638.65	8367.3	
638.83	10194	
639.02	8499.1	
639.21	7822.6	
639.4	8322.9	
639.59	8985.8	
639.78	8535.3	
639.96	7058	
640.15	7006.8	
640.34	8875.2	
640.53	9084.8	
640.72	6766.5	
640.91	7096.2	
641.09	8194.6	
641.28	9648	
641.47	7216.4	
641.66	7968.6	
641.85	8929.1	
642.03	9264.3	
642.22	7722.9	
642.41	7198.6	
642.6	8407.6	
642.79	7692.9	
642.97	6961	
643.16	7765.9	
643.35	8364.6	
643.54	8135.9	
643.73	6846.4	
643.91	7613.7	
644.1	8028.7	
644.29	8647.2	
644.48	6933.1	
644.67	6948.1	
644.85	8232.8	
645.04	8457.4	
645.23	6494.1	
645.42	6784.2	
645.6	7983.7	
645.79	9283.4	
645.98	6806.1	
646.17	5768.4	
646.36	7776.8	
646.54	8432.9	
646.73	7688.8	
646.92	6381.5	
647.11	8029.4	
647.29	9127.8	
647.48	6479.1	
647.67	6345.3	
647.86	9381.7	
648.05	9430.9	
648.23	6851.8	
648.42	8217.1	
648.61	8652.7	
648.8	8441.7	
648.98	6433.4	
649.17	6817	
649.36	7903.8	
649.55	7398.6	
649.73	6504.3	
649.92	7247.8	
650.11	7901.1	
650.3	8294.3	
650.48	6651.8	
650.67	6278.4	
650.86	8522.3	
651.05	7372	
651.23	6578.8	
651.42	6574.7	
651.61	7850.5	
651.79	8072.4	
651.98	6809.5	
652.17	6309.1	
652.36	8375.5	
652.54	7395.9	
652.73	6440.2	
652.92	6182.1	
653.11	8455.4	
653.29	8503.8	
653.48	5655.8	
653.67	6655.9	
653.85	8126.3	
654.04	9325.1	
654.23	6954.9	
654.42	6475.7	
654.6	7714.7	
654.79	8406.9	
654.98	5864.7	
655.16	6367.8	
655.35	7184.3	
655.54	7132.4	
655.73	5828.5	
655.91	5797.8	
656.1	8482	
656.29	7152.9	
656.47	5384.8	
656.66	7219.8	
656.85	7447.8	
657.03	7440.3	
657.22	5951.4	
657.41	6070.2	
657.59	7590.5	
657.78	7372	
657.97	5731.6	
658.16	6462.7	
658.34	8299.1	
658.53	8613.8	
658.72	7391.1	
658.9	7944.1	
659.09	7640.3	
659.28	7772.7	
659.46	6173.3	
659.65	6143.9	
659.84	7385	
660.02	8007.6	
660.21	5919.3	
660.4	5936.4	
660.58	8414.4	
660.77	7738.6	
660.96	6648.4	
661.14	5614.8	
661.33	9063.6	
661.52	8829.5	
661.7	5543.9	
661.89	9551.7	
662.08	7320.1	
662.26	6905.8	
662.45	5857.2	
662.64	5988.9	
662.82	8125	
663.01	7219.1	
663.2	5991.7	
663.38	6780.8	
663.57	8025.3	
663.75	7867.6	
663.94	6366.5	
664.13	7699.7	
664.31	7284.6	
664.5	8006.9	
664.69	6806.1	
664.87	7227.3	
665.06	7096.2	
665.25	7879.9	
665.43	7491.5	
665.62	7457.3	
665.8	8258.1	
665.99	7486	
666.18	6367.8	
666.36	6437.4	
666.55	8125	
666.74	8101.1	
666.92	5905	
667.11	7669	
667.29	7437.5	
667.48	8134.5	
667.67	7246.4	
667.85	6214.9	
668.04	7582.3	
668.22	7529.7	
668.41	6329.6	
668.6	6534.4	
668.78	7247.1	
668.97	7606.2	
669.15	6775.4	
669.34	5720	
669.53	7413	
669.71	7755.7	
669.9	5843.5	
670.08	6569.9	
670.27	7331.7	
670.46	7918.1	
670.64	6809.5	
670.83	7066.9	
671.01	7187.7	
671.2	7810.3	
671.38	5967.8	
671.57	5834	
671.76	8503.8	
671.94	9150.3	
672.13	5764.3	
672.31	6861.4	
672.5	7978.2	
672.69	7302.4	
672.87	5939.1	
673.06	6330.3	
673.24	7874.4	
673.43	7329.7	
673.61	6748.7	
673.8	6297.5	
673.98	7956.4	
674.17	8260.8	
674.36	6939.9	
674.54	6739.2	
674.73	7853.3	
674.91	8094.3	
675.1	6396.5	
675.28	5960.3	
675.47	7578.8	
675.65	8145.5	
675.84	6305.7	
676.03	6508.4	
676.21	7349.5	
676.4	6834.1	
676.58	7126.2	
676.77	6803.4	
676.95	8839	
677.14	7349.5	
677.32	5903.6	
677.51	5706.3	
677.69	8099	
677.88	6877.8	
678.06	5756.8	
678.25	5905	
678.44	7594.6	
678.62	7283.9	
678.81	5518.6	
678.99	6685.3	
679.18	8449.9	
679.36	7956.4	
679.55	6143.2	
679.73	6892.1	
679.92	7996	
680.1	7309.9	
680.29	7528.3	
680.47	6137.8	
680.66	7200.7	
680.84	8118.8	
681.03	5501.5	
681.21	6537.8	
681.4	7379.5	
681.58	7123.5	
681.77	5935.7	
681.95	5851.7	
682.14	8094.3	
682.32	8548.9	
682.51	6905.8	
682.69	5689.9	
682.88	7247.8	
683.06	7937.2	
683.25	6564.4	
683.43	7060.7	
683.62	7531.1	
683.8	7950.9	
683.99	7202	
684.17	6393.8	
684.36	8862.2	
684.54	7456.7	
684.73	5580	
684.91	5797.1	
685.1	7794.6	
685.28	7143.3	
685.46	6312.5	
685.65	6455.9	
685.83	7994.6	
686.02	7337.9	
686.2	5795.1	
686.39	6008.7	
686.57	7047.1	
686.76	8692.9	
686.94	5790.3	
687.13	5950	
687.31	7905.2	
687.5	7378.1	
687.68	5406	
687.86	6866.8	
688.05	8964	
688.23	6731.7	
688.42	6915.3	
688.6	5869.5	
688.79	7215.7	
688.97	7291.5	
689.16	6333.7	
689.34	5240.1	
689.52	8104.5	
689.71	8184.4	
689.89	6659.3	
690.08	5902.2	
690.26	7546.8	
690.45	7357.7	
690.63	6799.9	
690.81	6142.5	
691	7246.4	
691.18	7187.7	
691.37	6211.5	
691.55	8557.1	
691.74	7159	
691.92	9361.3	
692.1	6190.3	
692.29	5562.3	
692.47	7394.5	
692.66	6568.5	
692.84	5816.2	
693.02	6432.7	
693.21	6756.2	
693.39	7352.9	
693.58	6552.8	
693.76	5941.8	
693.94	8544.8	
694.13	8307.2	
694.31	5859.2	
694.5	6968.6	
694.68	7077.1	
694.86	7516.7	
695.05	6274.3	
695.23	6668.9	
695.42	7926.3	
695.6	10279	
695.78	6990.4	
695.97	6010.8	
696.15	7905.8	
696.34	7335.1	
696.52	5693.4	
696.7	6569.9	
696.89	7686	
697.07	7078.5	
697.25	6561	
697.44	8164.6	
697.62	7664.9	
697.81	8041.7	
697.99	6229.2	
698.17	6681.8	
698.36	6922.8	
698.54	7704.5	
698.72	6494.8	
698.91	5473.5	
699.09	7238.2	
699.28	7075	
699.46	6180.1	
699.64	6026.5	
699.83	6987	
700.01	8363.2	
700.19	6858	
700.38	5223	
700.56	8283.4	
700.74	7147.4	
700.93	5657.9	
701.11	6565.1	
701.29	7694.9	
701.48	8783.1	
701.66	5888.6	
701.84	5885.9	
702.03	7187.7	
702.21	7931.8	
702.39	5409.4	
702.58	6130.9	
702.76	7630.7	
702.94	7780.9	
703.13	5465.3	
703.31	8055.3	
703.49	6873	
703.68	7916.8	
703.86	5675.6	
704.04	6763.1	
704.23	7462.8	
704.41	7940.7	
704.59	5816.2	
704.78	7167.9	
704.96	8583	
705.14	7982.3	
705.33	5504.9	
705.51	6461.3	
705.69	7305.8	
705.87	8143.4	
706.06	6738.5	
706.24	5507.7	
706.42	7614.3	
706.61	7905.2	
706.79	6810.9	
706.97	5578.7	
707.16	7018.4	
707.34	7694.2	
707.52	6718.7	
707.7	5797.8	
707.89	7270.3	
708.07	6918	
708.25	6678.4	
708.44	6842.3	
708.62	7114	
708.8	8293.6	
708.98	6992.4	
709.17	5879.7	
709.35	7517.4	
709.53	7615	
709.72	5539.1	
709.9	6093.4	
710.08	7739.3	
710.26	7892.9	
710.45	7365.9	
710.63	5890.6	
710.81	7446.4	
710.99	7508.5	
711.18	6597.9	
711.36	6008.1	
711.54	7260	
711.72	7997.3	
711.91	6210.1	
712.09	5467.4	
712.27	7474.4	
712.45	8156.4	
712.64	6416.3	
712.82	5311.7	
713	6870.3	
713.18	6956.9	
713.37	5537	
713.55	6756.9	
713.73	8021.2	
713.91	6457.9	
714.1	5915.9	
714.28	5319.9	
714.46	7587	
714.64	6798.6	
714.83	4717.8	
715.01	5682.4	
715.19	6761.7	
715.37	6234	
715.55	5292.6	
715.74	5612.8	
715.92	7741.3	
716.1	5781.4	
716.28	6939.9	
716.47	5772.5	
716.65	6427.2	
716.83	6528.2	
717.01	5627.8	
717.19	5724.8	
717.38	8723	
717.56	6173.9	
717.74	5886.5	
717.92	4904.9	
718.1	7570.7	
718.29	6667.5	
718.47	4611.3	
718.65	5324.7	
718.83	7372.7	
719.01	7264.1	
719.2	4421.6	
719.38	5674.2	
719.56	6990.4	
719.74	8607.6	
719.92	5171.8	
720.11	6384.2	
720.29	7021.8	
720.47	6114.6	
720.65	4651.6	
720.83	5629.2	
721.02	6524.8	
721.2	6230.6	
721.38	5663.3	
721.56	4894	
721.74	5736.4	
721.92	5944.6	
722.11	6184.9	
722.29	5890.6	
722.47	7221.8	
722.65	6386.9	
722.83	4934.2	
723.01	5926.8	
723.2	6434.7	
723.38	6664.8	
723.56	4330.1	
723.74	5550	
723.92	5894.7	
724.1	7109.9	
724.29	4840	
724.47	6091.3	
724.65	5986.9	
724.83	5958.2	
725.01	4761.5	
725.19	5659.9	
725.37	5973.9	
725.56	6158.2	
725.74	4625.7	
725.92	4815.5	
726.1	5956.2	
726.28	6234.7	
726.46	5265.3	
726.64	5001.8	
726.83	6223.1	
727.01	6520	
727.19	4585.4	
727.37	5424.4	
727.55	6351.4	
727.73	6855.2	
727.91	4530.1	
728.09	4350.6	
728.28	6955.6	
728.46	7525.6	
728.64	5551.4	
728.82	5468.1	
729	8051.9	
729.18	7233.4	
729.36	4673.5	
729.54	7093.5	
729.72	8331.1	
729.91	6479.1	
730.09	6704.4	
730.27	5328.1	
730.45	6370.5	
730.63	7054.6	
730.81	5984.8	
730.99	4900.8	
731.17	7601.4	
731.35	6065.4	
731.53	5634.6	
731.71	5100.8	
731.9	7270.3	
732.08	7490.1	
732.26	5406.6	
732.44	5115.8	
732.62	7568.6	
732.8	7016.3	
732.98	5941.2	
733.16	4797.7	
733.34	6982.9	
733.52	5730.2	
733.7	5360.2	
733.88	5658.5	
734.07	6813.6	
734.25	6612.2	
734.43	4797.7	
734.61	6513.9	
734.79	8090.8	
734.97	6380.1	
735.15	4941.1	
735.33	5298.1	
735.51	6853.2	
735.69	6399.9	
735.87	6599.9	
736.05	5544.5	
736.23	6604	
736.41	6336.4	
736.59	5385.5	
736.77	5388.9	
736.95	7116	
737.13	6537.8	
737.32	4943.8	
737.5	5208	
737.68	7707.9	
737.86	6425.8	
738.04	4716.5	
738.22	6748.1	
738.4	6107.7	
738.58	6535.8	
738.76	5386.2	
738.94	4326.7	
739.12	6343.9	
739.3	6154.8	
739.48	6085.2	
739.66	5799.2	
739.84	6532.3	
740.02	6635.4	
740.2	4397.7	
740.38	4801.1	
740.56	6976.7	
740.74	5735.7	
740.92	5460.6	
741.1	5467.4	
741.28	6381.5	
741.46	6229.9	
741.64	5036.6	
741.82	5542.5	
742	6440.9	
742.18	6408.8	
742.36	5239.4	
742.54	4838.7	
742.72	6952.9	
742.9	5741.1	
743.08	5638.1	
743.26	4460.5	
743.44	7249.1	
743.62	7091.4	
743.8	5851	
743.98	4848.9	
744.16	6774	
744.34	6521.4	
744.52	5759.6	
744.7	5695.4	
744.88	6942.6	
745.06	6447	
745.24	5745.2	
745.42	5913.2	
745.6	7048.4	
745.78	6774.7	
745.96	4510.3	
746.14	4883	
746.32	7808.2	
746.5	6952.2	
746.68	5498.1	
746.86	4914.4	
747.03	7555.6	
747.21	5705.6	
747.39	5516.5	
747.57	4953.4	
747.75	6620.4	
747.93	7042.3	
748.11	4887.1	
748.29	4816.1	
748.47	8282.7	
748.65	6266.1	
748.83	5656.5	
749.01	5367.7	
749.19	6832.7	
749.37	5946.6	
749.55	5236.7	
749.73	5384.1	
749.91	6423.8	
750.09	6087.2	
750.26	5390.3	
750.44	4791.6	
750.62	6519.4	
750.8	6517.3	
750.98	4537.6	
751.16	5011.4	
751.34	6550.1	
751.52	5849	
751.7	5740.5	
751.88	4560.8	
752.06	7026.6	
752.24	6701.6	
752.42	4530.8	
752.59	4891.9	
752.77	6492.7	
752.95	7801.4	
753.13	5674.9	
753.31	5044.1	
753.49	6096.8	
753.67	6589.7	
753.85	5362.9	
754.03	4879.6	
754.21	6886.6	
754.38	7246.4	
754.56	5099.4	
754.74	4111.6	
754.92	6106.4	
755.1	6971.3	
755.28	4144.4	
755.46	4173.1	
755.64	7662.1	
755.82	7802.1	
755.99	4502.8	
756.17	4579.9	
756.35	5115.1	
756.53	6779.5	
756.71	3390.1	
756.89	4423.6	
757.07	6356.9	
757.25	5401.2	
757.42	5015.5	
757.6	5963	
757.78	6434.7	
757.96	5336.3	
758.14	4705.5	
758.32	4108.2	
758.5	4861.2	
758.67	5789.6	
758.85	4498	
759.03	4651.6	
759.21	5988.9	
759.39	5392.3	
759.57	4051.6	
759.75	5251	
759.92	6652.5	
760.1	5921.4	
760.28	5605.3	
760.46	5925.5	
760.64	5615.5	
760.82	5364.3	
760.99	5512.4	
761.17	4545.1	
761.35	6503.7	
761.53	5408	
761.71	4668	
761.89	5499.5	
762.06	6363.7	
762.24	5855.1	
762.42	4775.9	
762.6	4530.1	
762.78	5901.6	
762.96	6555.5	
763.13	5172.5	
763.31	4825.7	
763.49	6742.6	
763.67	5799.2	
763.85	5729.5	
764.02	6381.5	
764.2	7004.7	
764.38	6077.7	
764.56	4668	
764.74	5707	
764.91	7094.2	
765.09	5940.5	
765.27	4371.7	
765.45	4213.4	
765.63	7163.8	
765.8	6997.9	
765.98	3837.9	
766.16	4297.3	
766.34	5442.8	
766.52	5219.6	
766.69	5328.1	
766.87	4053.6	
767.05	5905	
767.23	6669.6	
767.41	4431.8	
767.58	4646.2	
767.76	6528.9	
767.94	6590.4	
768.12	4473.4	
768.29	5377.3	
768.47	6007.4	
768.65	6764.4	
768.83	4101.4	
769	5350.7	
769.18	5493.3	
769.36	6264.1	
769.54	5349.3	
769.72	4123.2	
769.89	6587	
770.07	6729.6	
770.25	4472.1	
770.43	5840.8	
770.6	7329	
770.78	7731.8	
770.96	4672.1	
771.14	5378	
771.31	6467.5	
771.49	5796.4	
771.67	3809.9	
771.85	4029.7	
772.02	4991.6	
772.2	5784.1	
772.38	4900.1	
772.55	4291.2	
772.73	6092.7	
772.91	5825.8	
773.09	4739	
773.26	4803.2	
773.44	5998.5	
773.62	5741.8	
773.8	4188.8	
773.97	3932.1	
774.15	6119.3	
774.33	5699.5	
774.5	4048.2	
774.68	4493.9	
774.86	6278.4	
775.04	5731.6	
775.21	4182	
775.39	4164.9	
775.57	6027.9	
775.74	6475.7	
775.92	4011.3	
776.1	3925.3	
776.27	6003.3	
776.45	7330.4	
776.63	4121.2	
776.81	3707.5	
776.98	5560.9	
777.16	6797.2	
777.34	4325.3	
777.51	4748.6	
777.69	5666	
777.87	5316.5	
778.04	4397	
778.22	5050.3	
778.4	5414.1	
778.57	6118.6	
778.75	3566.2	
778.93	3860.4	
779.1	5201.2	
779.28	5033.2	
779.46	3595.6	
779.64	4132.1	
779.81	6253.1	
779.99	7187	
780.17	5010.7	
780.34	5150	
780.52	5643.5	
780.69	5915.9	
780.87	4512.4	
781.05	4013.3	
781.22	5778	
781.4	5872.2	
781.58	4201.7	
781.75	3304.1	
781.93	5635.3	
782.11	5126.1	
782.28	5124	
782.46	4106.9	
782.64	4988.2	
782.81	5982.1	
782.99	4275.5	
783.17	4209.9	
783.34	5814.2	
783.52	4970.4	
783.69	4489.1	
783.87	5362.3	
784.05	5083.1	
784.22	5130.2	
784.4	5339.7	
784.58	4573.1	
784.75	6109.8	
784.93	5154.1	
785.1	4156.7	
785.28	4921.3	
785.46	5847	
785.63	5163.6	
785.81	4130.1	
785.99	4001	
786.16	5277.6	
786.34	5743.9	
786.51	4081.6	
786.69	4460.5	
786.87	4951.3	
787.04	5438	
787.22	3878.9	
787.39	4909	
787.57	5091.9	
787.75	6323.4	
787.92	5103.5	
788.1	5040.7	
788.27	5140.4	
788.45	4875.5	
788.63	4678.9	
788.8	3353.9	
788.98	5593.7	
789.15	4872.1	
789.33	3465.2	
789.5	4211.3	
789.68	6182.8	
789.86	6315.9	
790.03	4700.1	
790.21	3993.5	
790.38	6087.9	
790.56	5291.3	
790.73	3902.1	
790.91	4008.6	
791.09	5136.3	
791.26	6061.3	
791.44	4134.8	
791.61	3570.3	
791.79	5156.1	
791.96	5234.6	
792.14	3749.8	
792.32	3188	
792.49	5163.6	
792.67	5286.5	
792.84	3768.9	
793.02	3620.8	
793.19	5649	
793.37	6361	
793.54	3248.1	
793.72	3637.9	
793.89	6603.3	
794.07	5179.3	
794.25	4147.1	
794.42	3400.3	
794.6	6268.8	
794.77	5925.5	
794.95	4599.7	
795.12	3990.8	
795.3	5154.1	
795.47	5779.4	
795.65	4461.2	
795.82	4254.3	
796	4931.5	
796.17	7016.3	
796.35	4098.7	
796.52	4868.7	
796.7	5737	
796.87	5834	
797.05	5121.3	
797.22	4995.7	
797.4	5824.4	
797.57	6856.6	
797.75	4250.2	
797.92	3934.8	
798.1	6121.4	
798.27	5156.1	
798.45	3362.1	
798.62	3637.2	
798.8	5474.9	
798.97	6034.7	
799.15	4465.9	
799.32	4261.8	
799.5	4701.5	
799.67	5554.1	
799.85	4653.7	
800.02	3308.2	
800.2	5072.8	
800.37	5468.1	
800.55	4749.9	
800.72	3981.3	
800.9	5922	
801.07	6423.8	
801.25	5433.3	
801.42	4420.2	
801.6	5987.6	
801.77	5700.2	
801.95	4040	
802.12	3880.9	
802.29	5712.5	
802.47	5724.8	
802.64	4326.7	
802.82	3243.3	
802.99	5089.9	
803.17	6225.1	
803.34	4185.4	
803.52	3785.3	
803.69	6877.8	
803.87	4910.3	
804.04	4192.9	
804.21	4333.5	
804.39	6254.5	
804.56	5324.7	
804.74	3571	
804.91	4440.7	
805.09	5182	
805.26	5218.2	
805.44	3614.7	
805.61	3987.4	
805.78	5834	
805.96	5923.4	
806.13	4400.4	
806.31	4743.1	
806.48	4676.2	
806.66	5276.9	
806.83	4395.6	
807	4373.1	
807.18	5115.8	
807.35	5526.8	
807.53	4241.3	
807.7	3406.5	
807.87	6402.6	
808.05	5181.4	
808.22	4732.9	
808.4	3340.9	
808.57	5248.3	
808.74	4823.6	
808.92	3871.3	
809.09	5009.3	
809.27	5047.6	
809.44	5717.2	
809.61	3416.7	
809.79	3796.3	
809.96	6366.5	
810.14	6019	
810.31	3351.2	
810.48	4112.3	
810.66	5283.1	
810.83	6037.4	
811.01	3863.8	
811.18	4300.7	
811.35	6009.4	
811.53	4639.3	
811.7	4799.8	
811.87	4400.4	
812.05	5195	
812.22	5089.9	
812.39	3779.2	
812.57	3642.7	
812.74	5200.5	
812.92	7025.9	
813.09	4131.4	
813.26	4483.7	
813.44	6669.6	
813.61	5148.6	
813.78	3387.3	
813.96	4647.5	
814.13	5244.8	
814.3	4835.9	
814.48	4992.3	
814.65	4121.9	
814.82	6533.7	
815	4948.6	
815.17	4246.8	
815.34	5188.9	
815.52	5113.1	
815.69	5063.3	
815.87	4224.3	
816.04	4051.6	
816.21	5212.1	
816.38	4528.7	
816.56	4054.3	
816.73	3762.1	
816.9	6584.9	
817.08	6010.1	
817.25	3731.4	
817.42	4926	
817.6	4719.2	
817.77	5274.2	
817.94	4304.8	
818.12	3765.5	
818.29	4925.4	
818.46	7851.9	
818.64	3932.8	
818.81	3717.7	
818.98	4881.7	
819.16	7189.1	
819.33	4552	
819.5	4229.1	
819.67	5623	
819.85	6294.8	
820.02	4125.3	
820.19	4407.9	
820.37	5440.8	
820.54	4978.6	
820.71	4364.9	
820.88	5395	
821.06	5456.5	
821.23	4950.6	
821.4	4340.3	
821.58	4269.3	
821.75	5932.3	
821.92	5332.2	
822.09	3441.3	
822.27	3679.5	
822.44	5243.5	
822.61	5148.6	
822.79	3544.4	
822.96	6768.5	
823.13	5716.6	
823.3	4923.3	
823.48	4007.2	
823.65	3651.5	
823.82	5928.9	
823.99	4711	
824.17	5156.8	
824.34	3649.5	
824.51	6875	
824.68	5302.9	
824.86	3857	
825.03	4310.3	
825.2	5201.2	
825.37	6337.8	
825.55	3753.9	
825.72	4236.6	
825.89	6953.5	
826.06	6450.4	
826.24	4098.7	
826.41	4176.5	
826.58	6397.9	
826.75	5518.6	
826.92	3220.8	
827.1	3616.7	
827.27	8796	
827.44	6932.4	
827.61	3863.2	
827.79	4811.4	
827.96	4956.1	
828.13	5264.6	
828.3	4070.7	
828.47	3463.1	
828.65	5393.7	
828.82	5319.3	
828.99	5340.4	
829.16	4642.7	
829.34	5819.6	
829.51	5596.4	
829.68	4297.3	
829.85	4455	
830.02	6140.5	
830.2	5896.8	
830.37	3273.3	
830.54	5130.2	
830.71	6704.4	
830.88	5160.9	
831.05	3325.9	
831.23	3820.1	
831.4	6376.7	
831.57	7202	
831.74	3898	
831.91	3445.4	
832.09	5425.1	
832.26	5836.7	
832.43	4050.2	
832.6	4656.4	
832.77	5478.3	
832.94	6297.5	
833.12	3168.2	
833.29	4052.2	
833.46	5637.4	
833.63	7492.8	
833.8	4446.8	
833.97	4137.6	
834.15	5868.1	
834.32	5577.3	
834.49	4248.2	
834.66	4356.7	
834.83	6083.1	
835	4918.5	
835.17	3893.2	
835.35	3967.6	
835.52	5747.3	
835.69	5573.2	
835.86	4216.8	
836.03	3446.7	
836.2	5752.7	
836.37	5358.9	
836.55	4125.3	
836.72	3816.7	
836.89	5336.3	
837.06	5902.2	
837.23	4145.8	
837.4	4503.5	
837.57	6755.6	
837.75	7427.3	
837.92	3717.1	
838.09	3978.5	
838.26	5326.8	
838.43	6217.6	
838.6	4248.9	
838.77	3842.7	
838.94	7071	
839.11	6711.2	
839.29	4089.1	
839.46	3174.4	
839.63	5698.8	
839.8	5547.3	
839.97	3914.4	
840.14	3908.2	
840.31	5605.3	
840.48	5803.3	
840.65	3256.3	
840.82	3895.9	
841	5793.7	
841.17	5742.5	
841.34	3607.2	
841.51	3725.3	
841.68	5720.7	
841.85	5446.9	
842.02	3733.4	
842.19	3119.7	
842.36	5520	
842.53	5569.8	
842.7	3620.8	
842.87	4474.8	
843.05	7382.9	
843.22	5501.5	
843.39	3461.7	
843.56	3751.2	
843.73	5153.4	
843.9	5926.1	
844.07	5978	
844.24	4938.3	
844.41	8715.5	
844.58	5033.9	
844.75	3497.9	
844.92	3826.3	
845.09	5779.4	
845.26	5750.7	
845.43	3567.6	
845.6	3769.6	
845.77	5812.8	
845.94	5533.6	
846.12	4027	
846.29	4280.3	
846.46	5963	
846.63	5767.8	
846.8	3620.8	
846.97	4328	
847.14	6303.6	
847.31	5745.2	
847.48	4073.4	
847.65	4524	
847.82	6133	
847.99	6158.9	
848.16	4913.8	
848.33	4478.2	
848.5	5322.7	
848.67	6329.6	
848.84	3609.2	
849.01	3814.7	
849.18	5186.8	
849.35	4853	
849.52	4578.6	
849.69	3504.1	
849.86	5983.5	
850.03	6279.8	
850.2	3623.5	
850.37	4427.7	
850.54	6182.1	
850.71	5480.4	
850.88	4352.6	
851.05	3586	
851.22	5732.3	
851.39	6439.5	
851.56	3384.6	
851.73	4099.4	
851.9	5044.8	
852.07	6067.4	
852.24	3999	
852.41	3599.6	
852.58	5600.5	
852.75	5169.8	
852.92	4021.5	
853.09	3545	
853.26	5394.3	
853.43	6279.8	
853.6	3561.4	
853.77	3098.6	
853.94	6381.5	
854.11	5732.3	
854.28	5360.9	
854.44	3887.7	
854.61	6872.3	
854.78	6216.3	
854.95	3640.6	
855.12	4593.6	
855.29	4689.8	
855.46	6621.1	
855.63	3610.6	
855.8	4997.7	
855.97	5374.6	
856.14	6202.6	
856.31	5154.7	
856.48	3919.8	
856.65	5257.1	
856.82	5021.6	
856.99	3446	
857.16	3989.4	
857.33	7189.7	
857.49	5444.9	
857.66	3866.6	
857.83	4187.4	
858	5384.8	
858.17	5620.3	
858.34	3399.6	
858.51	3605.8	
858.68	6582.9	
858.85	6601.3	
859.02	4242.7	
859.19	4439.3	
859.36	5066	
859.52	5171.1	
859.69	3587.4	
859.86	4330.1	
860.03	5147.9	
860.2	6382.8	
860.37	3250.1	
860.54	3610.6	
860.71	6083.1	
860.88	6495.5	
861.05	4061.8	
861.21	4627.7	
861.38	6508.4	
861.55	4962.9	
861.72	3272	
861.89	4078.2	
862.06	6126.8	
862.23	6698.2	
862.4	3510.2	
862.56	3789.4	
862.73	5912.5	
862.9	5603.2	
863.07	4263.2	
863.24	3244.7	
863.41	4928.1	
863.58	5093.3	
863.75	3689.8	
863.91	4145.8	
864.08	6457.9	
864.25	6019.7	
864.42	4550.6	
864.59	5126.7	
864.76	6838.2	
864.93	5139	
865.09	3512.9	
865.26	3801.7	
865.43	6305.7	
865.6	6718	
865.77	3186.6	
865.94	3580.5	
866.1	6416.3	
866.27	6057.9	
866.44	5494	
866.61	3462.4	
866.78	5547.3	
866.95	5940.5	
867.11	3466.5	
867.28	3185.3	
867.45	6177.4	
867.62	5221	
867.79	4225	
867.96	3586	
868.12	5068	
868.29	6087.2	
868.46	3524.6	
868.63	4872.1	
868.8	6347.3	
868.97	6025.1	
869.13	3862.5	
869.3	3831.1	
869.47	5872.2	
869.64	6210.8	
869.81	3675.4	
869.97	3628.3	
870.14	5763	
870.31	6518.7	
870.48	3487	
870.65	4580.6	
870.81	5377.3	
870.98	5459.9	
871.15	4113.7	
871.32	3709.6	
871.48	5889.3	
871.65	6577.4	
871.82	3562.8	
871.99	3956	
872.16	7083.9	
872.32	6339.8	
872.49	3640.6	
872.66	3631.7	
872.83	6038.8	
872.99	5291.3	
873.16	4109.6	
873.33	3603.1	
873.5	5710.4	
873.67	5701.5	
873.83	3756	
874	4895.3	
874.17	5780.1	
874.34	6917.4	
874.5	4685.8	
874.67	4526.7	
874.84	6442.2	
875.01	5071.5	
875.17	5165.7	
875.34	3573.7	
875.51	5749.3	
875.68	6935.8	
875.84	4424.3	
876.01	5340.4	
876.18	6040.8	
876.34	5989.6	
876.51	3620.1	
876.68	3530	
876.85	5496.1	
877.01	6296.1	
877.18	5165	
877.35	3538.2	
877.52	5558.9	
877.68	4999.1	
877.85	3518.4	
878.02	3537.5	
878.18	5573.2	
878.35	5276.3	
878.52	2899.9	
878.69	4076.1	
878.85	6066.8	
879.02	6006.7	
879.19	5161.6	
879.35	3907.5	
879.52	6028.5	
879.69	6286.6	
879.86	3091.8	
880.02	4044.7	
880.19	5539.8	
880.36	6882.5	
880.52	4160.1	
880.69	4303.5	
880.86	6095.4	
881.02	6168.5	
881.19	3994.2	
881.36	3953.9	
881.52	6023.1	
881.69	5299.5	
881.86	3926	
882.02	3807.9	
882.19	6286.6	
882.36	7412.3	
882.52	3673.4	
882.69	5160.2	
882.86	5877	
883.02	5641.5	
883.19	4390.8	
883.36	4207.9	
883.52	6088.6	
883.69	7059.3	
883.86	3635.8	
884.02	3255.6	
884.19	6135	
884.36	5606	
884.52	4102.1	
884.69	3815.4	
884.86	5307.7	
885.02	6720.8	
885.19	4050.9	
885.36	4201.7	
885.52	5651.7	
885.69	5770.5	
885.86	5256.5	
886.02	4648.2	
886.19	6030.6	
886.35	5495.4	
886.52	3973.7	
886.69	5063.3	
886.85	5128.1	
887.02	6481.8	
887.19	6481.8	
887.35	6481.8	
887.52	6481.8	
887.68	6481.8	
887.85	6481.8	
888.02	6481.8	
888.18	6481.8	
888.35	6481.8	
888.51	6481.8	
888.68	6481.8	
888.85	6481.8	
889.01	6481.8	
889.18	6481.8	
889.35	6481.8	
889.51	6481.8	
889.68	6481.8	
889.84	6481.8	
890.01	6481.8	
890.17	6481.8	
890.34	6481.8	
890.51	6481.8	
890.67	6481.8	
890.84	6481.8	
891	6481.8	
891.17	6481.8	
891.34	6481.8	
891.5	6481.8	
891.67	6481.8	
891.83	6481.8	
892	6481.8	
892.16	6481.8	
892.33	6481.8	
892.5	6481.8	
892.66	6481.8	
892.83	6481.8	
892.99	6481.8	
893.16	6481.8	
893.32	6481.8	
893.49	6481.8	
893.65	6481.8	
893.82	6481.8	
893.99	6481.8	
894.15	6481.8	
894.32	6481.8	
894.48	6481.8	
894.65	6481.8	
894.81	6481.8	
894.98	6481.8	
895.14	6481.8	
895.31	6481.8	
895.47	6481.8	
895.64	6481.8	
895.81	6481.8	
895.97	6481.8	
896.14	6481.8	
896.3	6481.8	
896.47	6481.8	
896.63	6481.8	
896.8	6481.8	
896.96	6481.8	
897.13	6481.8	
897.29	6481.8	
897.46	6481.8	
897.62	6481.8	
897.79	6481.8	
897.95	6481.8	
898.12	6481.8	
898.28	6481.8	
898.45	6481.8	
898.61	6481.8	
898.78	6481.8	
898.94	6481.8	
899.11	6481.8	
899.27	6481.8	
899.44	6481.8	
899.6	6481.8	
899.77	6481.8	
899.93	6481.8	
900.1	6481.8	
900.26	6481.8	
900.43	6481.8	
900.59	6481.8	
900.76	6481.8	
900.92	6481.8	
901.09	6481.8	
901.25	6481.8	
901.42	6481.8	
901.58	6481.8	
901.75	6481.8	
901.91	6481.8	
902.07	6481.8	
902.24	6481.8	
902.4	6481.8	
902.57	6481.8	
902.73	6481.8	
902.9	6481.8	
903.06	6481.8	
903.23	6481.8	
903.39	6481.8	
903.56	6481.8	
903.72	6481.8	
903.88	6481.8	
904.05	6481.8	
904.21	6481.8	
904.38	6481.8	
904.54	6481.8	
904.71	6481.8	
904.87	6481.8	
905.03	6481.8	
905.2	6481.8	
905.36	6481.8	
905.53	6481.8	
905.69	6481.8	
905.86	6481.8	
906.02	6481.8	
906.18	6481.8	
906.35	6481.8	
906.51	6481.8	
906.68	6481.8	
906.84	6481.8	
907.01	6481.8	
907.17	6481.8	
907.33	6481.8	
907.5	6481.8	
907.66	6481.8	
907.83	6481.8	
907.99	6481.8	
908.15	6481.8	
908.32	6481.8	
908.48	6481.8	
908.65	6481.8	
908.81	6481.8	
908.97	6481.8	
909.14	6481.8	
909.3	6481.8	
909.47	6481.8	
909.63	6481.8	
909.79	6481.8	
909.96	6481.8	
910.12	6481.8	
910.28	6481.8	
910.45	6481.8	
910.61	6481.8	
910.78	6481.8	
910.94	6481.8	
911.1	6481.8	
911.27	6481.8	
911.43	6481.8	
911.59	6481.8	
911.76	6481.8	
911.92	6481.8	
912.08	6481.8	
912.25	6481.8	
912.41	6481.8	
912.57	6481.8	
912.74	6481.8	
912.9	6481.8	
913.07	6481.8	
913.23	6481.8	
913.39	6481.8	
913.56	6481.8	
913.72	6481.8	
913.88	6481.8	
914.05	6481.8	
914.21	6481.8	
914.37	6481.8	
914.54	6481.8	
914.7	6481.8	
914.86	6481.8	
915.03	6481.8	
915.19	6481.8	
