Wavelength	Intensities	
nm	a.u.	
179.22	1951.7	
179.44	1944.2	
179.65	1959.2	
179.86	1929.2	
180.08	1948.3	
180.29	5024.3	
180.51	3574.4	
180.72	5726.1	
180.94	6726.2	
181.15	3300	
181.37	3190.1	
181.58	5585.5	
181.79	5887.9	
182.01	3459	
182.22	3724.6	
182.44	5864	
182.65	4890.5	
182.87	4694.6	
183.08	4102.8	
183.29	6241.5	
183.51	5094.7	
183.72	3782.6	
183.94	5515.2	
184.15	5482.4	
184.37	5554.8	
184.58	3274.7	
184.79	4558.1	
185.01	5044.8	
185.22	5887.2	
185.44	4813.4	
185.65	4097.3	
185.86	5378.6	
186.08	4948.6	
186.29	3202.3	
186.51	3463.1	
186.72	5119.2	
186.94	6057.9	
187.15	3956	
187.36	4158.7	
187.58	7943.4	
187.79	5631.9	
188.01	4295.3	
188.22	6778.1	
188.43	6764.4	
188.65	5878.4	
188.86	3439.2	
189.08	4132.8	
189.29	5328.8	
189.5	5293.3	
189.72	3807.2	
189.93	3932.8	
190.15	6098.2	
190.36	7301	
190.57	4217.5	
190.79	4126.7	
191	6192.4	
191.22	6185.5	
191.43	4216.1	
191.64	3392.1	
191.86	6272.9	
192.07	6109.8	
192.29	3634.5	
192.5	3857.7	
192.71	6123.4	
192.93	5230.5	
193.14	3778.5	
193.35	3915.7	
193.57	5333.6	
193.78	6116.6	
194	3016	
194.21	3738.2	
194.42	4977.9	
194.64	5502.9	
194.85	4130.1	
195.07	4854.4	
195.28	5623	
195.49	4756.1	
195.71	5154.1	
195.92	3555.3	
196.13	5637.4	
196.35	5835.3	
196.56	5509	
196.78	4212.7	
196.99	7217	
197.2	6679.1	
197.42	4748.6	
197.63	4214	
197.84	4974.5	
198.06	5657.2	
198.27	3818.8	
198.48	5094	
198.7	5270.8	
198.91	5347.9	
199.13	4193.6	
199.34	4168.3	
199.55	5930.2	
199.77	4767.7	
199.98	3647.4	
200.19	4209.9	
200.41	5381.4	
200.62	5119.9	
200.83	4374.5	
201.05	4669.4	
201.26	5352	
201.47	5143.1	
201.69	3695.2	
201.9	3586.7	
202.11	5456.5	
202.33	6634.7	
202.54	3929.4	
202.76	4396.3	
202.97	5648.3	
203.18	5608	
203.4	4339	
203.61	4247.5	
203.82	5608.7	
204.04	5203.2	
204.25	4214.7	
204.46	4110.3	
204.68	5503.6	
204.89	5774.6	
205.1	4040.6	
205.32	3532.1	
205.53	5909.8	
205.74	6055.2	
205.96	2983.2	
206.17	4234.5	
206.38	5859.9	
206.6	6036	
206.81	4835.9	
207.02	3889.8	
207.24	5765	
207.45	6208.1	
207.66	3910.3	
207.88	3364.8	
208.09	5688.6	
208.3	5492.7	
208.52	3607.8	
208.73	3931.4	
208.94	5485.8	
209.15	6254.5	
209.37	4005.8	
209.58	4215.4	
209.79	6030.6	
210.01	5332.9	
210.22	3155.2	
210.43	3254.2	
210.65	5528.8	
210.86	5892	
211.07	3978.5	
211.29	3619.4	
211.5	5851.7	
211.71	5452.4	
211.93	3654.3	
212.14	3588.7	
212.35	5396.4	
212.56	5782.8	
212.78	4193.6	
212.99	3415.3	
213.2	6521.4	
213.42	5229.8	
213.63	3739.6	
213.84	4018.8	
214.06	4904.2	
214.27	4953.4	
214.48	3907.5	
214.69	4224.3	
214.91	6193.7	
215.12	6277	
215.33	4312.3	
215.55	4742.4	
215.76	6784.2	
215.97	5935	
216.18	4131.4	
216.4	4043.4	
216.61	5190.2	
216.82	5989.6	
217.04	3622.9	
217.25	3842.7	
217.46	6193.1	
217.67	5954.8	
217.89	3241.9	
218.1	3438.5	
218.31	5611.4	
218.53	5677	
218.74	3864.5	
218.95	3661.8	
219.16	5506.3	
219.38	6443.6	
219.59	3736.2	
219.8	4499.4	
220.01	7163.8	
220.23	5535.7	
220.44	4909	
220.65	3618.8	
220.87	5593.7	
221.08	6160.3	
221.29	3372.3	
221.5	4567	
221.72	7587	
221.93	5221	
222.14	4257	
222.35	4947.9	
222.57	5522	
222.78	5899.5	
222.99	4031.1	
223.2	4336.2	
223.42	5831.2	
223.63	5971.9	
223.84	3035.1	
224.05	3016	
224.27	7095.5	
224.48	6537.8	
224.69	5001.8	
224.9	4147.1	
225.12	5707	
225.33	5448.3	
225.54	3332	
225.75	3717.1	
225.97	4982.7	
226.18	5397.1	
226.39	4053.6	
226.6	3710.2	
226.82	5222.3	
227.03	5135.6	
227.24	4224.3	
227.45	3456.3	
227.67	5903.6	
227.88	6505	
228.09	4649.6	
228.3	4680.3	
228.52	5976.7	
228.73	5466	
228.94	3860.4	
229.15	3460.4	
229.36	5395	
229.58	5341.8	
229.79	3895.9	
230	4629.1	
230.21	6533	
230.43	5637.4	
230.64	4128	
230.85	4306.9	
231.06	5915.2	
231.28	5915.9	
231.49	3428.3	
231.7	4093.2	
231.91	5861.3	
232.12	5540.4	
232.34	3556.6	
232.55	4055.7	
232.76	6131.6	
232.97	5681.7	
233.18	3665.9	
233.4	4155.3	
233.61	5705	
233.82	5242.8	
234.03	3878.9	
234.25	3777.1	
234.46	7653.9	
234.67	5562.3	
234.88	4238.6	
235.09	3684.3	
235.31	5860.6	
235.52	5398.4	
235.73	4105.5	
235.94	3489.1	
236.15	5205.3	
236.37	6769.9	
236.58	3629	
236.79	4018.1	
237	5816.9	
237.21	5010.7	
237.43	4335.5	
237.64	3364.1	
237.85	10169	
238.06	5039.4	
238.27	4392.2	
238.48	3424.9	
238.7	5902.2	
238.91	5373.2	
239.12	3960.1	
239.33	4042.7	
239.54	5100.8	
239.76	5425.8	
239.97	3937.6	
240.18	3975.8	
240.39	6924.9	
240.6	5869.5	
240.82	4089.8	
241.03	3431	
241.24	5536.3	
241.45	6436.1	
241.66	3672.7	
241.87	4350.6	
242.09	6217.6	
242.3	6615.6	
242.51	4373.8	
242.72	4031.1	
242.93	6008.1	
243.14	5450.3	
243.36	4651.6	
243.57	5032.5	
243.78	6387.6	
243.99	5913.9	
244.2	3956.7	
244.41	3685.7	
244.63	5101.5	
244.84	5867.4	
245.05	4285	
245.26	4015.4	
245.47	5815.5	
245.68	6123.4	
245.9	5392.3	
246.11	4208.6	
246.32	5346.6	
246.53	5841.5	
246.74	6565.8	
246.95	3332	
247.16	4982.7	
247.38	5515.2	
247.59	3302.7	
247.8	4042.7	
248.01	5204.6	
248.22	5410.7	
248.43	3653.6	
248.64	3930.7	
248.86	4896	
249.07	5284.4	
249.28	3525.9	
249.49	4131.4	
249.7	6070.9	
249.91	6272.2	
250.12	3325.9	
250.34	3401	
250.55	5571.8	
250.76	5505.6	
250.97	4169.7	
251.18	4205.8	
251.39	6247.7	
251.6	5670.1	
251.81	4237.9	
252.03	4273.4	
252.24	5215.5	
252.45	6048.3	
252.66	3478.8	
252.87	4474.1	
253.08	5527.5	
253.29	7352.2	
253.5	3532.7	
253.72	4881.7	
253.93	5372.5	
254.14	6599.2	
254.35	3799.7	
254.56	3972.4	
254.77	5810.1	
254.98	5065.3	
255.19	3684.3	
255.41	4836.6	
255.62	5618.9	
255.83	6186.9	
256.04	4251.6	
256.25	4179.9	
256.46	6612.9	
256.67	5160.9	
256.88	4105.5	
257.09	4639.3	
257.31	5180	
257.52	5254.4	
257.73	5186.8	
257.94	3791.5	
258.15	5442.8	
258.36	5559.6	
258.57	4846.9	
258.78	3007.8	
258.99	5991	
259.2	5414.8	
259.41	3860.4	
259.63	3930.7	
259.84	6387.6	
260.05	6879.1	
260.26	5078.3	
260.47	3736.2	
260.68	6113.2	
260.89	5452.4	
261.1	4617.5	
261.31	3623.5	
261.52	6112.5	
261.73	6512.5	
261.95	4985.4	
262.16	4330.8	
262.37	6273.6	
262.58	6379.4	
262.79	4937	
263	3861.8	
263.21	5468.1	
263.42	5013.4	
263.63	3958	
263.84	3848.1	
264.05	6136.4	
264.26	6513.9	
264.47	4775.2	
264.69	4374.5	
264.9	6161.7	
265.11	5767.1	
265.32	3709.6	
265.53	3775.8	
265.74	5640.1	
265.95	4930.8	
266.16	4081.6	
266.37	4538.3	
266.58	5681.7	
266.79	5362.9	
267	3739.6	
267.21	3531.4	
267.42	5042.8	
267.63	5524.7	
267.84	3968.3	
268.06	3442	
268.27	5899.5	
268.48	6313.9	
268.69	3921.9	
268.9	4663.9	
269.11	6271.6	
269.32	4982	
269.53	4040	
269.74	3684.3	
269.95	5850.4	
270.16	4827.1	
270.37	4020.2	
270.58	4700.1	
270.79	5361.6	
271	6061.3	
271.21	4327.4	
271.42	4012.7	
271.63	5674.2	
271.84	5237.3	
272.05	3186	
272.26	3640.6	
272.47	5519.3	
272.68	5769.8	
272.89	3848.1	
273.11	4489.1	
273.32	5310.4	
273.53	6539.2	
273.74	4268	
273.95	4293.2	
274.16	6189	
274.37	5580.7	
274.58	4411.3	
274.79	3491.1	
275	5655.8	
275.21	6202.6	
275.42	5285.1	
275.63	4474.8	
275.84	5738.4	
276.05	7269.6	
276.26	4214	
276.47	3978.5	
276.68	5386.2	
276.89	6535.8	
277.1	4494.6	
277.31	3503.4	
277.52	5711.1	
277.73	5979.4	
277.94	3486.3	
278.15	3895.2	
278.36	5724.8	
278.57	5141.1	
278.78	3845.4	
278.99	4317.8	
279.2	5169.1	
279.41	5033.9	
279.62	5057.1	
279.83	3564.1	
280.04	6815.6	
280.25	4971.8	
280.46	5080.3	
280.67	4018.8	
280.88	5119.9	
281.09	6250.4	
281.3	4227	
281.51	5384.1	
281.72	5247.6	
281.93	6061.3	
282.14	3792.8	
282.35	4025.6	
282.56	5971.9	
282.77	6031.3	
282.98	3872	
283.19	4797	
283.4	7481.2	
283.61	5428.5	
283.82	3432.4	
284.03	5018.2	
284.24	5654.4	
284.45	6246.3	
284.66	4977.9	
284.87	4762.9	
285.08	6123.4	
285.29	6267.5	
285.5	3390.1	
285.71	3934.1	
285.92	6204	
286.12	6872.3	
286.33	4939.7	
286.54	3890.5	
286.75	5994.4	
286.96	5429.2	
287.17	3545.7	
287.38	4864.6	
287.59	5158.2	
287.8	5057.1	
288.01	3905.5	
288.22	4560.1	
288.43	6111.8	
288.64	5042.1	
288.85	4634.6	
289.06	4390.2	
289.27	5992.4	
289.48	6535.8	
289.69	5015.5	
289.9	4500.8	
290.11	6221.7	
290.32	5210	
290.53	4796.3	
290.74	4390.2	
290.94	6025.1	
291.15	6005.3	
291.36	3741.6	
291.57	4487.1	
291.78	5261.9	
291.99	4959.5	
292.2	3587.4	
292.41	4347.2	
292.62	6131.6	
292.83	5847	
293.04	5411.4	
293.25	3655.6	
293.46	5312.4	
293.67	6182.1	
293.88	3756.7	
294.09	3590.1	
294.29	5098.1	
294.5	5662	
294.71	3988.8	
294.92	3851.5	
295.13	5373.9	
295.34	6707.8	
295.55	3406.5	
295.76	3500.7	
295.97	5981.4	
296.18	6717.3	
296.39	3549.8	
296.6	3793.5	
296.81	5679.7	
297.01	5963	
297.22	3951.9	
297.43	3745.7	
297.64	5102.2	
297.85	5162.2	
298.06	3082.9	
298.27	3377.1	
298.48	5619.6	
298.69	5254.4	
298.9	4064.5	
299.11	3631	
299.31	5019.6	
299.52	5044.1	
299.73	4378.6	
299.94	4254.3	
300.15	5514.5	
300.36	5175.9	
300.57	4280.3	
300.78	4325.3	
300.99	5410.7	
301.2	5708.4	
301.4	3706.1	
301.61	4072.7	
301.82	5900.2	
302.03	5929.6	
302.24	4582.7	
302.45	3558	
302.66	5815.5	
302.87	6337.1	
303.08	3764.2	
303.29	5168.4	
303.49	5268.7	
303.7	5574.6	
303.91	3323.2	
304.12	4969.7	
304.33	5036	
304.54	5653.1	
304.75	3829.7	
304.96	3635.8	
305.16	5870.8	
305.37	6663.4	
305.58	3245.3	
305.79	3431.7	
306	5910.4	
306.21	4954	
306.42	3648.1	
306.63	5831.9	
306.83	5413.5	
307.04	6191.7	
307.25	4135.5	
307.46	4192.9	
307.67	4717.8	
307.88	6025.8	
308.09	3639.9	
308.29	3831.1	
308.5	5654.4	
308.71	6143.2	
308.92	3996.3	
309.13	3610.6	
309.34	5492.7	
309.55	5408.7	
309.75	4747.2	
309.96	4278.2	
310.17	5924.1	
310.38	5186.8	
310.59	4490.5	
310.8	4216.8	
311.01	6358.9	
311.21	5385.5	
311.42	3558.7	
311.63	3719.1	
311.84	5224.4	
312.05	5712.5	
312.26	4113	
312.46	4603.2	
312.67	5319.3	
312.88	5072.1	
313.09	3639.9	
313.3	3550.5	
313.51	6367.8	
313.71	6785.6	
313.92	3645.4	
314.13	3850.2	
314.34	5666.7	
314.55	5479	
314.76	4666.6	
314.96	4024.3	
315.17	5568.4	
315.38	6107.7	
315.59	3611.9	
315.8	3500	
316.01	6414.2	
316.21	6464.8	
316.42	3452.9	
316.63	4022.9	
316.84	5421	
317.05	6276.3	
317.26	4303.5	
317.46	3913.7	
317.67	5470.8	
317.88	5958.2	
318.09	4644.8	
318.3	3365.5	
318.5	5250.3	
318.71	5898.8	
318.92	6003.3	
319.13	4274.8	
319.34	6081.8	
319.54	6230.6	
319.75	3351.2	
319.96	3240.6	
320.17	5961.6	
320.38	6136.4	
320.58	3321.1	
320.79	4012.7	
321	6186.9	
321.21	6295.5	
321.42	4074.8	
321.62	3288.4	
321.83	5148.6	
322.04	5571.8	
322.25	3839.3	
322.46	3641.3	
322.66	5649.7	
322.87	5844.2	
323.08	4556.7	
323.29	3565.5	
323.5	6681.8	
323.7	5035.3	
323.91	5047.6	
324.12	4486.4	
324.33	5634.6	
324.53	5942.5	
324.74	4339.6	
324.95	4550.6	
325.16	4902.8	
325.37	5363.6	
325.57	3670	
325.78	3713	
325.99	5606.7	
326.2	5003.9	
326.4	5326.1	
326.61	3389.4	
326.82	5481	
327.03	5662	
327.24	5231.2	
327.44	4915.8	
327.65	5836.7	
327.86	4640	
328.07	4278.2	
328.27	3453.6	
328.48	6300.2	
328.69	5130.2	
328.9	5283.8	
329.1	3929.4	
329.31	5452.4	
329.52	6417	
329.73	3587.4	
329.93	4161.5	
330.14	5559.6	
330.35	5786.2	
330.56	6034.7	
330.76	4481.6	
330.97	5347.9	
331.18	5762.3	
331.39	4040	
331.59	3315.7	
331.8	6163.7	
332.01	6317.3	
332.22	3742.3	
332.42	4326	
332.63	5679	
332.84	5251	
333.05	4096.6	
333.25	3684.3	
333.46	5297.4	
333.67	5502.2	
333.88	3834.5	
334.08	4311	
334.29	7475.8	
334.5	6269.5	
334.7	3532.1	
334.91	5218.9	
335.12	5101.5	
335.33	5961.6	
335.53	4033.1	
335.74	6061.3	
335.95	5318.6	
336.16	5163.6	
336.36	4033.8	
336.57	4696	
336.78	4998.4	
336.98	6122.1	
337.19	4945.8	
337.4	3986	
337.61	6701	
337.81	5095.3	
338.02	3703.4	
338.23	4860.5	
338.43	6327.5	
338.64	5208.7	
338.85	3637.9	
339.05	4846.2	
339.26	6505.7	
339.47	4977.2	
339.68	3667.9	
339.88	5447.6	
340.09	5795.8	
340.3	5974.6	
340.5	4262.5	
340.71	3248.8	
340.92	5018.2	
341.13	6287.3	
341.33	3542.3	
341.54	4343.7	
341.75	5791.7	
341.95	5428.5	
342.16	4118.5	
342.37	4482.3	
342.57	5107	
342.78	5570.5	
342.99	4587.4	
343.19	3246	
343.4	6009.4	
343.61	5779.4	
343.81	3930.7	
344.02	3593.5	
344.23	6014.2	
344.43	6425.2	
344.64	4505.5	
344.85	4425.7	
345.06	5859.2	
345.26	6193.1	
345.47	4231.1	
345.68	4975.9	
345.88	4898.1	
346.09	6066.8	
346.3	4328	
346.5	3291.1	
346.71	5592.3	
346.92	5263.3	
347.12	3313.6	
347.33	4227	
347.54	6066.8	
347.74	6542.6	
347.95	4206.5	
348.16	3130.7	
348.36	5439.4	
348.57	5059.8	
348.78	4151.2	
348.98	4523.3	
349.19	5494	
349.39	5007.3	
349.6	3333.4	
349.81	3756	
350.01	5859.9	
350.22	5246.2	
350.43	4057.7	
350.63	4901.5	
350.84	5591.6	
351.05	5328.1	
351.25	3707.5	
351.46	3358.7	
351.67	6186.9	
351.87	5279.7	
352.08	3890.5	
352.29	4496.7	
352.49	5980.8	
352.7	5763	
352.9	3587.4	
353.11	4434.5	
353.32	6752.2	
353.52	5357.5	
353.73	3477.5	
353.94	4528.7	
354.14	5867.4	
354.35	5671.5	
354.55	3642.7	
354.76	4074.8	
354.97	5863.3	
355.17	5578	
355.38	3398.9	
355.59	4757.4	
355.79	5248.9	
356	5714.5	
356.2	3987.4	
356.41	3495.2	
356.62	5008.6	
356.82	5408.7	
357.03	4292.5	
357.24	3888.4	
357.44	5302.2	
357.65	5343.8	
357.85	5198.4	
358.06	4063.9	
358.27	4928.8	
358.47	5242.1	
358.68	3409.9	
358.88	4265.2	
359.09	5800.5	
359.3	6271.6	
359.5	5005.9	
359.71	4476.2	
359.91	6754.9	
360.12	6004	
360.33	4283	
360.53	4820.2	
360.74	5232.6	
360.94	5249.6	
361.15	4500.1	
361.36	3723.2	
361.56	6072.9	
361.77	5451	
361.97	5020.3	
362.18	3915	
362.38	6048.3	
362.59	5134.3	
362.8	3575.1	
363	3480.2	
363.21	4911.7	
363.41	5728.2	
363.62	4185.4	
363.83	5231.2	
364.03	5676.3	
364.24	6772.6	
364.44	5317.9	
364.65	5332.9	
364.85	5477	
365.06	5291.3	
365.27	3816	
365.47	3820.1	
365.68	6469.5	
365.88	5338.4	
366.09	4216.1	
366.29	3988.1	
366.5	5709.7	
366.71	6098.9	
366.91	5285.1	
367.12	4442	
367.32	6765.1	
367.53	6032	
367.73	4336.2	
367.94	5392.3	
368.14	5905	
368.35	6900.3	
368.56	4332.1	
368.76	3941.7	
368.97	6012.8	
369.17	7823.2	
369.38	3794.2	
369.58	4134.8	
369.79	5045.5	
369.99	6428.6	
370.2	5162.9	
370.4	4286.4	
370.61	5776	
370.82	6980.2	
371.02	4098.7	
371.23	3405.1	
371.43	4965.6	
371.64	6394.4	
371.84	4126	
372.05	5413.5	
372.25	7755	
372.46	6113.9	
372.66	4141.7	
372.87	4088.4	
373.07	6178.7	
373.28	7761.1	
373.48	5164.3	
373.69	4878.9	
373.9	5575.9	
374.1	5621	
374.31	5159.5	
374.51	4658.4	
374.72	6468.9	
374.92	5291.3	
375.13	5334.3	
375.33	4470.7	
375.54	5992.4	
375.74	5462.6	
375.95	4513	
376.15	5872.2	
376.36	5967.1	
376.56	5847.6	
376.77	4581.3	
376.97	5076.9	
377.18	7126.9	
377.38	6175.3	
377.59	5455.8	
377.79	4066.6	
378	5949.3	
378.2	6403.3	
378.41	4134.8	
378.61	4089.1	
378.82	6384.2	
379.02	5495.4	
379.23	4336.9	
379.43	5483.1	
379.64	6479.1	
379.84	6072.9	
380.05	4189.5	
380.25	4043.4	
380.46	6222.4	
380.66	5739.1	
380.87	5542.5	
381.07	5969.1	
381.28	6855.2	
381.48	6218.3	
381.69	4218.1	
381.89	4234.5	
382.1	5080.3	
382.3	6435.4	
382.51	5372.5	
382.71	6272.2	
382.91	6237.4	
383.12	6855.9	
383.32	4550.6	
383.53	4743.8	
383.73	6019.7	
383.94	5829.2	
384.14	4683.7	
384.35	3822.2	
384.55	5758.9	
384.76	6231.3	
384.96	4504.8	
385.17	4942.4	
385.37	6214.9	
385.58	5508.4	
385.78	4925.4	
385.98	3749.1	
386.19	5699.5	
386.39	6058.6	
386.6	4322.6	
386.8	4672.1	
387.01	6272.9	
387.21	6282.5	
387.42	5082.4	
387.62	5687.2	
387.83	5560.9	
388.03	6313.2	
388.23	4672.8	
388.44	5519.3	
388.64	5227.1	
388.85	5361.6	
389.05	5089.9	
389.26	5663.3	
389.46	7344.7	
389.67	6731.7	
389.87	5005.2	
390.07	5014.1	
390.28	5879.7	
390.48	5409.4	
390.69	4277.5	
390.89	4571.7	
391.1	5791.7	
391.3	6651.1	
391.5	5763.7	
391.71	6509.8	
391.91	6364.4	
392.12	7502.4	
392.32	5877.7	
392.53	5103.5	
392.73	5757.5	
392.93	5983.5	
393.14	4677.6	
393.34	5596.4	
393.55	6498.9	
393.75	5917.3	
393.95	4766.3	
394.16	4706.2	
394.36	5677.7	
394.57	6450.4	
394.77	4277.5	
394.98	4721.3	
395.18	5691.3	
395.38	5980.1	
395.59	5621.7	
395.79	4558.8	
396	5870.2	
396.2	6389.7	
396.4	5513.8	
396.61	5314.5	
396.81	6583.5	
397.02	5810.8	
397.22	5687.2	
397.42	5728.9	
397.63	6574	
397.83	5740.5	
398.04	4496.7	
398.24	5087.8	
398.44	6328.9	
398.65	5433.3	
398.85	4356	
399.05	4518.5	
399.26	5754.8	
399.46	7641	
399.67	4909	
399.87	4649.6	
400.07	6179.4	
400.28	6563.1	
400.48	4791.6	
400.69	5899.5	
400.89	6873.7	
401.09	7303.7	
401.3	4676.9	
401.5	5752.1	
401.7	7494.9	
401.91	7752.2	
402.11	4966.3	
402.32	5262.6	
402.52	6806.1	
402.72	6682.5	
402.93	5343.2	
403.13	4243.4	
403.33	7496.9	
403.54	6182.1	
403.74	5085.8	
403.94	6019.7	
404.15	6328.9	
404.35	7593.2	
404.56	4988.9	
404.76	6845.7	
404.96	6824.5	
405.17	6602.7	
405.37	6328.2	
405.57	5425.1	
405.78	6894.8	
405.98	6225.8	
406.18	4911.7	
406.39	5949.3	
406.59	6811.5	
406.79	6492.7	
407	4767.7	
407.2	4957.4	
407.4	6931.7	
407.61	7123.5	
407.81	5006.6	
408.01	7220.5	
408.22	5992.4	
408.42	8188.5	
408.62	6197.8	
408.83	5591.6	
409.03	6701	
409.23	6524.1	
409.44	5742.5	
409.64	6096.8	
409.84	7705.8	
410.05	7583.6	
410.25	6001.2	
410.45	5794.4	
410.66	7138.5	
410.86	9685.5	
411.06	6276.3	
411.27	6152.1	
411.47	9494.4	
411.67	7376.8	
411.88	6366.5	
412.08	6657.3	
412.28	8102.4	
412.49	8594	
412.69	6225.1	
412.89	6215.6	
413.09	8487.5	
413.3	8277.9	
413.5	6310.5	
413.7	5936.4	
413.91	7603.4	
414.11	8511.4	
414.31	6172.6	
414.52	6769.2	
414.72	8120.2	
414.92	8045.8	
415.12	6280.4	
415.33	6790.4	
415.53	8463.6	
415.73	8695.7	
415.94	7238.2	
416.14	6630.6	
416.34	7443	
416.55	7217.7	
416.75	7857.4	
416.95	7277.8	
417.15	8574.8	
417.36	9329.2	
417.56	8163.9	
417.76	7273	
417.97	8986.5	
418.17	8732.5	
418.37	6727.6	
418.57	6776.7	
418.78	8389.8	
418.98	8054	
419.18	7699	
419.38	7653.3	
419.59	8205.5	
419.79	7656.7	
419.99	6711.2	
420.2	7182.9	
420.4	8689.5	
420.6	8908	
420.8	6727.6	
421.01	6397.2	
421.21	8519.5	
421.41	8735.3	
421.61	7085.3	
421.82	6819.7	
422.02	8087.4	
422.22	8992.6	
422.42	7552.2	
422.63	7148.8	
422.83	8260.8	
423.03	9397.4	
423.23	7221.1	
423.44	6212.2	
423.64	8271.1	
423.84	7951.6	
424.04	6645	
424.25	6303.6	
424.45	9149.6	
424.65	9121.7	
424.85	6068.1	
425.06	6744	
425.26	9110	
425.46	7985	
425.66	7205.4	
425.87	6931.7	
426.07	9030.9	
426.27	8678.6	
426.47	7033.4	
426.67	6325.5	
426.88	9266.4	
427.08	8660.2	
427.28	7322.9	
427.48	6274.3	
427.69	7587	
427.89	8323.6	
428.09	7386.3	
428.29	6381.5	
428.5	9077.3	
428.7	8540.7	
428.9	6371.2	
429.1	6965.8	
429.3	8490.9	
429.51	8959.2	
429.71	6710.5	
429.91	7593.9	
430.11	8761.2	
430.31	9140.1	
430.52	7091.4	
430.72	7401.4	
430.92	9497.8	
431.12	8908.7	
431.32	6810.9	
431.53	7168.6	
431.73	7828	
431.93	9645.9	
432.13	6662.7	
432.33	6585.6	
432.54	8341.4	
432.74	8766.7	
432.94	6657.3	
433.14	7630	
433.34	8847.2	
433.55	8541.4	
433.75	7684	
433.95	9550.4	
434.15	8816.5	
434.35	8456.1	
434.56	6843.6	
434.76	6466.1	
434.96	8854.7	
435.16	9150.3	
435.36	6666.1	
435.56	8057.4	
435.77	8544.1	
435.97	8743.5	
436.17	8905.9	
436.37	8018.5	
436.57	8500.4	
436.78	8437.6	
436.98	9420.7	
437.18	8545.5	
437.38	9328.5	
437.58	8624	
437.78	8756.4	
437.99	7194.5	
438.19	9128.5	
438.39	10028	
438.59	7246.4	
438.79	6696.2	
438.99	10066	
439.2	8892.3	
439.4	6933.7	
439.6	6998.6	
439.8	9284.1	
440	10447	
440.2	8178.2	
440.4	8264.2	
440.61	9761.3	
440.81	10290	
441.01	7281.2	
441.21	8358.4	
441.41	10172	
441.61	9743.6	
441.81	8745.5	
442.02	9801.6	
442.22	10815	
442.42	9931.3	
442.62	7532.4	
442.82	7655.3	
443.02	10350	
443.22	9549	
443.43	8060.1	
443.63	7662.8	
443.83	9225.4	
444.03	9371.5	
444.23	9071.1	
444.43	8624	
444.63	9650.7	
444.83	10985	
445.04	7785	
445.24	9077.3	
445.44	9949	
445.64	10096	
445.84	8483.4	
446.04	8563.9	
446.24	9260.2	
446.44	10390	
446.65	7662.1	
446.85	8178.9	
447.05	9679.4	
447.25	10341	
447.45	8228.1	
447.65	7585.7	
447.85	9624.8	
448.05	9301.2	
448.25	8796	
448.46	8597.4	
448.66	9762	
448.86	9498.5	
449.06	7527.7	
449.26	8757.1	
449.46	10179	
449.66	9054.8	
449.86	8323.6	
450.06	8232.8	
450.26	9379.7	
450.47	9972.2	
450.67	8477.9	
450.87	9047.2	
451.07	9988.6	
451.27	10010	
451.47	7918.8	
451.67	8628.1	
451.87	9611.8	
452.07	10729	
452.27	8276.5	
452.47	8174.8	
452.67	9871.2	
452.88	10538	
453.08	7399.3	
453.28	9727.9	
453.48	11290	
453.68	9857.6	
453.88	8281.3	
454.08	8473.8	
454.28	10434	
454.48	10178	
454.68	9082.7	
454.88	9680.1	
455.08	10656	
455.28	10548	
455.48	8079.2	
455.68	8885.5	
455.89	11228	
456.09	10938	
456.29	8698.4	
456.49	8849.3	
456.69	11200	
456.89	10376	
457.09	9511.4	
457.29	9966.8	
457.49	10819	
457.69	11168	
457.89	9398.1	
458.09	8673.1	
458.29	10705	
458.49	11564	
458.69	9888.3	
458.89	9202.2	
459.09	11867	
459.29	11890	
459.49	9390.6	
459.69	10225	
459.9	11264	
460.1	10984	
460.3	9258.9	
460.5	9086.8	
460.7	11452	
460.9	11230	
461.1	8846.5	
461.3	10305	
461.5	12235	
461.7	11834	
461.9	9629.5	
462.1	9915.6	
462.3	11471	
462.5	12217	
462.7	9721	
462.9	9873.9	
463.1	13360	
463.3	13077	
463.5	10150	
463.7	11357	
463.9	11941	
464.1	12301	
464.3	10344	
464.5	10690	
464.7	12658	
464.9	12479	
465.1	12074	
465.3	11134	
465.5	13072	
465.7	13145	
465.9	11570	
466.1	11102	
466.3	13166	
466.5	12822	
466.7	12533	
466.9	11253	
467.1	12949	
467.3	14045	
467.5	12581	
467.7	11300	
467.9	14234	
468.1	15350	
468.3	12065	
468.5	12669	
468.7	13153	
468.9	13111	
469.1	11671	
469.3	12602	
469.5	15255	
469.7	12764	
469.9	12119	
470.1	11499	
470.3	13143	
470.5	13239	
470.7	12831	
470.9	11510	
471.1	13008	
471.3	13203	
471.5	11357	
471.69	13434	
471.89	12738	
472.09	12338	
472.29	12167	
472.49	12503	
472.69	12652	
472.89	13385	
473.09	11385	
473.29	11301	
473.49	12727	
473.69	12830	
473.89	12500	
474.09	11542	
474.29	14213	
474.49	13824	
474.69	12420	
474.89	11528	
475.09	12939	
475.29	12818	
475.49	11022	
475.69	11419	
475.88	14396	
476.08	13164	
476.28	10944	
476.48	11387	
476.68	13631	
476.88	13438	
477.08	11301	
477.28	11633	
477.48	12884	
477.68	13553	
477.88	11204	
478.08	11450	
478.28	14083	
478.48	13016	
478.67	11684	
478.87	10733	
479.07	13851	
479.27	13197	
479.47	11837	
479.67	11761	
479.87	13760	
480.07	14221	
480.27	11127	
480.47	12676	
480.67	13333	
480.87	14098	
481.06	11302	
481.26	12374	
481.46	13335	
481.66	13267	
481.86	11884	
482.06	13102	
482.26	12954	
482.46	13984	
482.66	11835	
482.86	11545	
483.05	13581	
483.25	12914	
483.45	14498	
483.65	12001	
483.85	13162	
484.05	13450	
484.25	12492	
484.45	13219	
484.65	14457	
484.84	14629	
485.04	12024	
485.24	12170	
485.44	14876	
485.64	13060	
485.84	11540	
486.04	12921	
486.24	13534	
486.44	13967	
486.63	11546	
486.83	12478	
487.03	13560	
487.23	13998	
487.43	11689	
487.63	14471	
487.83	14020	
488.02	15239	
488.22	12995	
488.42	13753	
488.62	14857	
488.82	13916	
489.02	12532	
489.22	12913	
489.41	14820	
489.61	14711	
489.81	12401	
490.01	12441	
490.21	14784	
490.41	15505	
490.61	12143	
490.8	12329	
491	14173	
491.2	13420	
491.4	13061	
491.6	12026	
491.8	14169	
491.99	14426	
492.19	12127	
492.39	12637	
492.59	15114	
492.79	15318	
492.99	13784	
493.18	12826	
493.38	15337	
493.58	16317	
493.78	13624	
493.98	13222	
494.18	15330	
494.37	15078	
494.57	14264	
494.77	14194	
494.97	15953	
495.17	16369	
495.37	13901	
495.56	14309	
495.76	16548	
495.96	16054	
496.16	15326	
496.36	14228	
496.55	16428	
496.75	15993	
496.95	14574	
497.15	14470	
497.35	16434	
497.54	16546	
497.74	14368	
497.94	16303	
498.14	17380	
498.34	17266	
498.53	14389	
498.73	15141	
498.93	16127	
499.13	16724	
499.33	15122	
499.52	15712	
499.72	17071	
499.92	17111	
500.12	14810	
500.32	15104	
500.51	17102	
500.71	17049	
500.91	15998	
501.11	15603	
501.31	17096	
501.5	17381	
501.7	16208	
501.9	15077	
502.1	16862	
502.29	17073	
502.49	15605	
502.69	15823	
502.89	17001	
503.09	17027	
503.28	14362	
503.48	14429	
503.68	16001	
503.88	16152	
504.07	15614	
504.27	14941	
504.47	16520	
504.67	16536	
504.86	15375	
505.06	15051	
505.26	15965	
505.46	17873	
505.65	14797	
505.85	15033	
506.05	15874	
506.25	16309	
506.44	13889	
506.64	14975	
506.84	15741	
507.04	16569	
507.23	14076	
507.43	14622	
507.63	17582	
507.83	15856	
508.02	14618	
508.22	14211	
508.42	18102	
508.62	15557	
508.81	14506	
509.01	15205	
509.21	15462	
509.4	15945	
509.6	14885	
509.8	14242	
510	15689	
510.19	17509	
510.39	14184	
510.59	14317	
510.79	15641	
510.98	17106	
511.18	14244	
511.38	14473	
511.57	16574	
511.77	16395	
511.97	15147	
512.17	13914	
512.36	16571	
512.56	16480	
512.76	14150	
512.95	13904	
513.15	16625	
513.35	15384	
513.55	15261	
513.74	14325	
513.94	16589	
514.14	16065	
514.33	15398	
514.53	15195	
514.73	16073	
514.92	16373	
515.12	14700	
515.32	14530	
515.51	16422	
515.71	17111	
515.91	16421	
516.11	14580	
516.3	18406	
516.5	16013	
516.7	15223	
516.89	15846	
517.09	16222	
517.29	16121	
517.48	15584	
517.68	14919	
517.88	15982	
518.07	16636	
518.27	15575	
518.47	14520	
518.66	17262	
518.86	15964	
519.06	14250	
519.25	14856	
519.45	16214	
519.65	17942	
519.84	15375	
520.04	16131	
520.24	18086	
520.43	16561	
520.63	14994	
520.83	14680	
521.02	15905	
521.22	16636	
521.42	15240	
521.61	15954	
521.81	16294	
522.01	16409	
522.2	15313	
522.4	15124	
522.6	17242	
522.79	16104	
522.99	15338	
523.18	14790	
523.38	17206	
523.58	17219	
523.77	17109	
523.97	15034	
524.17	19357	
524.36	18407	
524.56	16722	
524.76	16378	
524.95	17712	
525.15	17251	
525.34	16120	
525.54	16251	
525.74	18203	
525.93	17097	
526.13	17584	
526.33	16520	
526.52	18635	
526.72	18226	
526.91	18029	
527.11	17219	
527.31	18922	
527.5	19464	
527.7	17223	
527.89	16242	
528.09	17995	
528.29	18845	
528.48	17751	
528.68	17238	
528.87	18923	
529.07	18899	
529.27	16862	
529.46	16300	
529.66	18159	
529.85	18589	
530.05	16072	
530.25	16916	
530.44	19925	
530.64	18207	
530.83	16937	
531.03	17361	
531.23	19071	
531.42	19037	
531.62	18304	
531.81	17461	
532.01	19557	
532.21	20116	
532.4	17508	
532.6	17945	
532.79	20525	
532.99	19871	
533.18	18039	
533.38	18994	
533.58	19505	
533.77	20327	
533.97	18217	
534.16	19042	
534.36	20630	
534.55	19669	
534.75	19240	
534.95	18208	
535.14	20636	
535.34	19374	
535.53	17628	
535.73	19781	
535.92	20934	
536.12	19606	
536.31	17827	
536.51	19082	
536.71	19952	
536.9	19542	
537.1	18012	
537.29	18318	
537.49	20510	
537.68	19575	
537.88	18778	
538.07	17893	
538.27	19981	
538.46	20932	
538.66	17879	
538.86	18282	
539.05	19790	
539.25	20334	
539.44	18733	
539.64	17972	
539.83	19494	
540.03	20677	
540.22	17901	
540.42	17876	
540.61	19660	
540.81	20110	
541	18359	
541.2	19181	
541.39	19090	
541.59	19617	
541.78	18743	
541.98	17511	
542.18	18683	
542.37	18643	
542.57	17824	
542.76	18660	
542.96	18581	
543.15	19289	
543.35	17797	
543.54	17034	
543.74	19533	
543.93	19261	
544.13	17535	
544.32	18782	
544.52	19279	
544.71	18422	
544.91	16646	
545.1	18003	
545.3	18565	
545.49	19374	
545.69	16500	
545.88	17133	
546.08	20302	
546.27	19746	
546.47	17760	
546.66	16971	
546.86	19374	
547.05	20065	
547.24	17172	
547.44	17021	
547.63	18176	
547.83	19446	
548.02	17453	
548.22	17604	
548.41	17944	
548.61	19250	
548.8	16718	
549	16777	
549.19	18525	
549.39	19004	
549.58	16303	
549.78	16961	
549.97	18903	
550.17	18271	
550.36	17737	
550.55	18937	
550.75	18268	
550.94	19397	
551.14	16617	
551.33	16796	
551.53	17628	
551.72	18792	
551.92	17057	
552.11	16704	
552.31	18596	
552.5	18809	
552.69	18443	
552.89	16128	
553.08	18720	
553.28	18321	
553.47	16543	
553.67	17866	
553.86	19257	
554.06	17368	
554.25	15623	
554.44	16260	
554.64	19763	
554.83	19424	
555.03	16358	
555.22	16740	
555.42	18690	
555.61	18292	
555.8	16355	
556	16763	
556.19	17494	
556.39	18637	
556.58	16599	
556.78	16581	
556.97	18283	
557.16	17945	
557.36	17686	
557.55	16133	
557.75	17066	
557.94	19105	
558.13	16186	
558.33	15991	
558.52	18704	
558.72	17492	
558.91	15907	
559.1	16121	
559.3	17241	
559.49	16791	
559.69	15358	
559.88	16512	
560.07	18069	
560.27	18473	
560.46	16659	
560.66	16858	
560.85	17608	
561.04	16888	
561.24	15917	
561.43	15896	
561.63	17115	
561.82	17426	
562.01	17377	
562.21	16395	
562.4	17973	
562.59	19006	
562.79	16265	
562.98	16014	
563.18	17833	
563.37	19567	
563.56	16824	
563.76	15895	
563.95	17526	
564.14	17348	
564.34	16479	
564.53	16152	
564.73	17937	
564.92	18598	
565.11	16714	
565.31	15987	
565.5	18729	
565.69	17698	
565.89	16098	
566.08	16617	
566.27	18605	
566.47	19097	
566.66	17080	
566.85	15924	
567.05	18170	
567.24	17559	
567.44	16143	
567.63	17627	
567.82	18373	
568.02	18290	
568.21	16365	
568.4	16759	
568.6	18293	
568.79	18323	
568.98	16096	
569.18	16391	
569.37	18348	
569.56	20364	
569.76	16831	
569.95	17634	
570.14	18675	
570.34	18590	
570.53	16081	
570.72	16202	
570.91	19058	
571.11	18048	
571.3	16597	
571.49	17582	
571.69	18189	
571.88	17888	
572.07	17284	
572.27	17210	
572.46	17731	
572.65	18994	
572.85	16553	
573.04	17018	
573.23	19343	
573.43	18520	
573.62	16378	
573.81	17228	
574	18833	
574.2	18487	
574.39	17135	
574.58	17143	
574.78	19779	
574.97	18905	
575.16	17575	
575.36	17783	
575.55	19434	
575.74	19549	
575.93	16703	
576.13	18013	
576.32	18628	
576.51	19431	
576.71	17228	
576.9	18693	
577.09	19753	
577.28	19181	
577.48	17936	
577.67	16787	
577.86	18791	
578.05	19321	
578.25	17492	
578.44	17638	
578.63	18964	
578.83	20414	
579.02	16837	
579.21	18738	
579.4	19374	
579.6	19222	
579.79	17742	
579.98	20214	
580.17	19826	
580.37	19954	
580.56	17244	
580.75	18368	
580.94	20494	
581.14	20340	
581.33	18774	
581.52	17484	
581.71	19917	
581.91	20474	
582.1	17469	
582.29	18069	
582.48	19594	
582.68	19484	
582.87	18548	
583.06	18271	
583.25	19971	
583.45	19380	
583.64	18949	
583.83	19869	
584.02	19390	
584.21	19884	
584.41	18844	
584.6	18106	
584.79	19719	
584.98	20459	
585.18	17690	
585.37	17605	
585.56	19150	
585.75	19945	
585.94	17552	
586.14	18480	
586.33	20360	
586.52	19420	
586.71	18056	
586.91	17765	
587.1	18572	
587.29	19647	
587.48	17418	
587.67	17472	
587.87	19310	
588.06	19226	
588.25	18572	
588.44	17679	
588.63	18608	
588.83	19085	
589.02	16556	
589.21	16292	
589.4	17523	
589.59	17354	
589.78	14871	
589.98	15201	
590.17	16569	
590.36	17074	
590.55	14354	
590.74	14930	
590.94	18387	
591.13	16886	
591.32	15059	
591.51	14646	
591.7	17441	
591.89	17078	
592.09	14704	
592.28	15359	
592.47	16178	
592.66	18270	
592.85	14869	
593.05	15008	
593.24	16809	
593.43	17796	
593.62	15309	
593.81	15793	
594	17035	
594.19	17263	
594.39	15066	
594.58	15036	
594.77	17154	
594.96	17844	
595.15	14747	
595.34	15518	
595.54	17170	
595.73	16133	
595.92	14061	
596.11	15485	
596.3	17809	
596.49	16311	
596.68	15125	
596.88	15543	
597.07	17473	
597.26	16217	
597.45	14614	
597.64	16083	
597.83	16545	
598.02	17252	
598.22	14851	
598.41	15507	
598.6	16903	
598.79	16414	
598.98	14784	
599.17	16019	
599.36	17073	
599.55	18265	
599.74	17079	
599.94	16827	
600.13	17666	
600.32	16423	
600.51	14713	
600.7	14847	
600.89	18139	
601.08	18448	
601.27	14705	
601.47	15796	
601.66	17476	
601.85	18230	
602.04	15324	
602.23	15526	
602.42	16552	
602.61	17335	
602.8	15345	
602.99	15070	
603.18	16920	
603.37	17288	
603.57	15702	
603.76	16440	
603.95	18061	
604.14	17665	
604.33	15158	
604.52	15708	
604.71	17380	
604.9	16877	
605.09	16131	
605.28	15929	
605.47	17854	
605.66	17497	
605.86	15836	
606.05	15217	
606.24	17779	
606.43	16201	
606.62	15459	
606.81	16463	
607	17664	
607.19	17010	
607.38	14853	
607.57	15144	
607.76	16741	
607.95	16000	
608.14	15503	
608.33	16192	
608.52	16632	
608.72	17451	
608.91	14685	
609.1	14598	
609.29	16698	
609.48	16141	
609.67	15650	
609.86	14607	
610.05	16082	
610.24	16669	
610.43	14493	
610.62	14128	
610.81	17725	
611	17427	
611.19	14646	
611.38	15339	
611.57	16905	
611.76	18199	
611.95	14477	
612.14	14149	
612.33	16632	
612.52	16111	
612.71	14937	
612.9	14117	
613.09	15720	
613.28	18204	
613.47	14560	
613.66	15853	
613.85	16901	
614.04	16135	
614.24	14787	
614.43	13936	
614.62	16929	
614.81	16917	
615	15474	
615.19	15588	
615.38	16142	
615.57	16567	
615.76	15272	
615.95	16247	
616.14	17031	
616.33	16690	
616.52	15513	
616.71	16034	
616.9	17000	
617.09	17027	
617.28	14950	
617.47	16416	
617.66	16210	
617.85	16271	
618.04	16250	
618.22	15497	
618.41	16756	
618.6	17764	
618.79	15539	
618.98	15449	
619.17	18139	
619.36	16438	
619.55	15588	
619.74	15630	
619.93	17481	
620.12	17062	
620.31	16322	
620.5	16741	
620.69	18344	
620.88	18615	
621.07	17473	
621.26	16456	
621.45	17903	
621.64	17947	
621.83	16434	
622.02	15575	
622.21	17948	
622.4	17865	
622.59	17233	
622.78	16910	
622.97	17408	
623.16	18507	
623.35	16517	
623.54	15643	
623.72	17547	
623.91	17828	
624.1	16821	
624.29	15397	
624.48	18987	
624.67	17983	
624.86	16698	
625.05	15795	
625.24	19125	
625.43	17297	
625.62	18506	
625.81	15986	
626	18363	
626.19	17613	
626.38	16813	
626.56	16085	
626.75	17400	
626.94	18137	
627.13	16546	
627.32	15107	
627.51	18017	
627.7	19542	
627.89	15279	
628.08	16645	
628.27	17002	
628.46	17253	
628.65	15626	
628.83	15332	
629.02	17838	
629.21	17150	
629.4	16222	
629.59	16360	
629.78	17320	
629.97	18172	
630.16	16536	
630.35	15901	
630.54	18760	
630.72	18421	
630.91	15862	
631.1	16490	
631.29	17837	
631.48	18150	
631.67	16557	
631.86	15937	
632.05	17529	
632.24	17572	
632.42	15621	
632.61	16307	
632.8	17628	
632.99	17342	
633.18	16470	
633.37	16668	
633.56	17787	
633.75	17690	
633.93	16445	
634.12	16032	
634.31	18738	
634.5	18491	
634.69	16217	
634.88	16469	
635.07	17705	
635.25	18419	
635.44	17068	
635.63	17294	
635.82	17442	
636.01	16892	
636.2	16928	
636.39	16543	
636.57	18663	
636.76	18230	
636.95	15872	
637.14	17361	
637.33	17883	
637.52	19030	
637.7	15502	
637.89	16547	
638.08	17606	
638.27	18981	
638.46	16643	
638.65	16870	
638.83	18826	
639.02	17139	
639.21	16374	
639.4	16889	
639.59	17621	
639.78	17119	
639.96	15601	
640.15	15548	
640.34	17364	
640.53	17563	
640.72	15202	
640.91	15539	
641.09	16598	
641.28	18187	
641.47	15341	
641.66	16408	
641.85	17420	
642.03	17576	
642.22	16087	
642.41	15417	
642.6	16640	
642.79	16003	
642.97	15137	
643.16	15953	
643.35	16695	
643.54	16272	
643.73	15016	
643.91	15667	
644.1	15859	
644.29	16681	
644.48	14700	
644.67	14635	
644.85	15741	
645.04	16150	
645.23	13936	
645.42	14162	
645.6	15315	
645.79	16554	
645.98	13846	
646.17	12808	
646.36	14715	
646.54	15321	
646.73	14368	
646.92	13125	
647.11	14658	
647.29	15666	
647.48	13252	
647.67	12846	
647.86	15983	
648.05	16256	
648.23	13607	
648.42	15085	
648.61	15736	
648.8	15423	
648.98	13319	
649.17	13801	
649.36	14885	
649.55	14461	
649.73	13386	
649.92	13998	
650.11	14708	
650.3	15081	
650.48	13284	
650.67	13175	
650.86	15287	
651.05	14203	
651.23	13403	
651.42	13149	
651.61	14754	
651.79	14840	
651.98	13583	
652.17	13037	
652.36	15058	
652.54	14194	
652.73	13026	
652.92	12804	
653.11	14952	
653.29	14982	
653.48	12100	
653.67	13044	
653.85	14481	
654.04	15511	
654.23	13025	
654.42	12397	
654.6	13437	
654.79	14162	
654.98	11591	
655.16	12280	
655.35	13107	
655.54	13102	
655.73	11822	
655.91	11885	
656.1	14429	
656.29	13373	
656.47	11572	
656.66	13424	
656.85	13766	
657.03	13795	
657.22	12426	
657.41	12537	
657.59	13802	
657.78	13912	
657.97	12113	
658.16	13011	
658.34	14713	
658.53	15122	
658.72	13894	
658.9	14466	
659.09	14173	
659.28	14347	
659.46	12719	
659.65	12766	
659.84	14147	
660.02	14585	
660.21	12592	
660.4	12471	
660.58	15001	
660.77	14356	
660.96	13146	
661.14	12109	
661.33	15444	
661.52	15438	
661.7	11990	
661.89	15968	
662.08	13777	
662.26	13459	
662.45	12195	
662.64	12426	
662.82	14397	
663.01	13741	
663.2	12318	
663.38	13204	
663.57	14388	
663.75	14307	
663.94	12811	
664.13	14006	
664.31	13682	
664.5	14532	
664.69	12813	
664.87	13600	
665.06	13464	
665.25	14211	
665.43	13762	
665.62	13794	
665.8	14534	
665.99	13752	
666.18	12658	
666.36	12755	
666.55	14415	
666.74	14455	
666.92	12177	
667.11	13893	
667.29	13766	
667.48	14383	
667.67	13444	
667.85	12594	
668.04	13788	
668.22	13771	
668.41	12556	
668.6	12663	
668.78	13525	
668.97	13597	
669.15	12977	
669.34	11701	
669.53	13558	
669.71	13850	
669.9	11988	
670.08	12742	
670.27	13444	
670.46	14008	
670.64	12952	
670.83	13233	
671.01	13318	
671.2	14121	
671.38	12192	
671.57	11933	
671.76	14622	
671.94	15317	
672.13	11901	
672.31	12958	
672.5	14248	
672.69	13487	
672.87	12078	
673.06	12292	
673.24	14106	
673.43	13592	
673.61	12845	
673.8	12292	
673.98	14122	
674.17	14397	
674.36	12959	
674.54	12922	
674.73	13871	
674.91	14097	
675.1	12622	
675.28	12084	
675.47	13700	
675.65	14348	
675.84	12266	
676.03	12721	
676.21	13353	
676.4	13031	
676.58	13199	
676.77	12942	
676.95	14990	
677.14	13344	
677.32	11981	
677.51	11660	
677.69	14205	
677.88	12990	
678.06	11813	
678.25	11986	
678.44	13788	
678.62	13381	
678.81	11622	
678.99	12749	
679.18	14503	
679.36	14122	
679.55	12267	
679.73	12994	
679.92	14018	
680.1	13510	
680.29	13654	
680.47	12223	
680.66	13329	
680.84	14236	
681.03	11538	
681.21	12764	
681.4	13409	
681.58	13145	
681.77	11910	
681.95	11778	
682.14	14111	
682.32	14479	
682.51	12904	
682.69	11492	
682.88	13075	
683.06	13680	
683.25	12457	
683.43	12961	
683.62	13375	
683.8	13678	
683.99	12674	
684.17	11717	
684.36	13974	
684.54	12334	
684.73	10255	
684.91	10501	
685.1	12334	
685.28	11679	
685.46	10804	
685.65	10998	
685.83	12536	
686.02	11978	
686.2	10314	
686.39	10647	
686.57	11830	
686.76	13510	
686.94	10500	
687.13	10831	
687.31	12613	
687.5	12272	
687.68	10223	
687.86	11759	
688.05	13965	
688.23	11813	
688.42	11729	
688.6	10987	
688.79	12519	
688.97	12376	
689.16	11418	
689.34	10251	
689.52	13197	
689.71	13321	
689.89	11779	
690.08	10807	
690.26	12517	
690.45	12417	
690.63	11616	
690.81	10967	
691	12015	
691.18	12005	
691.37	11009	
691.55	13355	
691.74	11893	
691.92	14100	
692.1	11060	
692.29	10330	
692.47	12306	
692.66	11449	
692.84	10716	
693.02	11410	
693.21	11855	
693.39	12366	
693.58	11729	
693.76	11164	
693.94	13890	
694.13	13809	
694.31	11301	
694.5	12569	
694.68	12691	
694.86	13044	
695.05	11818	
695.23	11898	
695.42	13397	
695.6	15880	
695.78	12366	
695.97	11249	
696.15	13276	
696.34	12570	
696.52	10959	
696.7	11792	
696.89	12846	
697.07	12071	
697.25	11512	
697.44	13261	
697.62	12647	
697.81	13004	
697.99	10963	
698.17	11697	
698.36	11824	
698.54	12632	
698.72	11562	
698.91	10370	
699.09	12135	
699.28	11965	
699.46	10961	
699.64	10877	
699.83	11920	
700.01	13182	
700.19	11849	
700.38	10253	
700.56	13290	
700.74	12243	
700.93	10713	
701.11	11708	
701.29	12887	
701.48	14087	
701.66	11076	
701.84	11080	
702.03	12333	
702.21	13139	
702.39	10529	
702.58	11295	
702.76	12884	
702.94	13044	
703.13	10487	
703.31	13278	
703.49	12033	
703.68	13822	
703.86	10748	
704.04	11918	
704.23	12591	
704.41	13013	
704.59	10922	
704.78	12121	
704.96	13764	
705.14	13121	
705.33	10747	
705.51	11647	
705.69	12446	
705.87	13325	
706.06	11921	
706.24	10753	
706.42	12816	
706.61	13093	
706.79	11904	
706.97	10747	
707.16	12158	
707.34	12792	
707.52	11755	
707.7	10901	
707.89	12411	
708.07	12045	
708.25	11867	
708.44	12027	
708.62	12132	
708.8	13229	
708.98	12093	
709.17	10895	
709.35	12526	
709.53	12540	
709.72	10523	
709.9	10724	
710.08	12676	
710.26	12788	
710.45	12179	
710.63	10824	
710.81	12271	
710.99	12288	
711.18	11381	
711.36	10705	
711.54	11916	
711.72	12683	
711.91	10600	
712.09	9882.1	
712.27	11957	
712.45	12583	
712.64	10589	
712.82	9523.7	
713	10755	
713.18	10966	
713.37	9152.4	
713.55	10281	
713.73	11374	
713.91	9613.8	
714.1	8794	
714.28	8129.1	
714.46	10370	
714.64	9292.3	
714.83	7283.9	
715.01	8086.7	
715.19	9133.3	
715.37	8602.2	
715.55	7580.2	
715.74	7843	
715.92	10100	
716.1	7879.9	
716.28	8988.5	
716.47	7913.4	
716.65	8568	
716.83	8759.2	
717.01	7761.1	
717.19	7793.2	
717.38	11159	
717.56	8565.3	
717.74	8357.1	
717.92	7561.8	
718.1	10148	
718.29	9412.5	
718.47	7415.7	
718.65	8288.8	
718.83	10339	
719.01	10432	
719.2	7504.4	
719.38	8690.9	
719.56	9911.5	
719.74	11549	
719.92	8008.2	
720.11	9015.8	
720.29	9691	
720.47	8656.8	
720.65	7187.7	
720.83	8068.3	
721.02	8699.1	
721.2	8402.1	
721.38	8075.1	
721.56	7135.1	
721.74	7927.7	
721.92	8026.7	
722.11	8488.1	
722.29	8153	
722.47	9444.5	
722.65	8584.4	
722.83	7132.4	
723.01	8090.8	
723.2	8665	
723.38	8986.5	
723.56	6526.2	
723.74	7694.9	
723.92	8077.2	
724.1	9366.7	
724.29	7057.3	
724.47	8221.2	
724.65	8173.4	
724.83	8084	
725.01	6860	
725.19	7851.2	
725.37	8090.2	
725.56	8253.3	
725.74	6758.3	
725.92	7071	
726.1	8118.1	
726.28	8481.3	
726.46	7508.5	
726.64	7163.1	
726.83	8333.2	
727.01	8662.2	
727.19	6640.9	
727.37	7565.2	
727.55	8510.7	
727.73	8985.1	
727.91	6616.3	
728.09	6621.8	
728.28	9147.6	
728.46	9817.3	
728.64	7836.9	
728.82	7866.2	
729	10630	
729.18	9777	
729.36	7290.8	
729.54	9790	
729.72	11082	
729.91	9300.5	
730.09	9400.9	
730.27	8106.5	
730.45	9151.7	
730.63	9980.4	
730.81	8869.1	
730.99	7884.7	
731.17	10535	
731.35	8936	
731.53	8473.1	
731.71	7832.8	
731.9	10047	
732.08	10236	
732.26	8006.2	
732.44	7712.7	
732.62	10300	
732.8	9817.3	
732.98	8560.5	
733.16	7491.5	
733.34	9669.8	
733.52	8459.5	
733.7	8122.9	
733.88	8500.4	
734.07	9529.2	
734.25	9341.5	
734.43	7525.6	
734.61	9226.1	
734.79	10965	
734.97	9189.2	
735.15	7610.3	
735.33	8030.1	
735.51	9534	
735.69	9219.3	
735.87	9319.6	
736.05	8305.9	
736.23	9463	
736.41	9245.9	
736.59	8133.2	
736.77	8350.3	
736.95	10037	
737.13	9400.9	
737.32	7764.5	
737.5	8170	
737.68	10581	
737.86	9244.5	
738.04	7574.8	
738.22	9620	
738.4	8940.1	
738.58	9277.3	
738.76	8325	
738.94	7168.6	
739.12	9090.3	
739.3	9074.5	
739.48	8894.3	
739.66	8686.8	
739.84	9506	
740.02	9511.4	
740.2	7329.7	
740.38	7652.6	
740.56	9909.4	
740.74	8604.2	
740.92	8439.7	
741.1	8222.6	
741.28	9207	
741.46	9096.4	
741.64	7870.3	
741.82	8447.2	
742	9227.5	
742.18	9136.7	
742.36	8065.6	
742.54	7564.5	
742.72	9784.5	
742.9	8421.9	
743.08	8472.4	
743.26	7051.8	
743.44	9942.2	
743.62	9758.6	
743.8	8627.4	
743.98	7563.8	
744.16	9486.2	
744.34	9142.1	
744.52	8434.9	
744.7	8330.5	
744.88	9458.2	
745.06	9087.5	
745.24	8361.9	
745.42	8437.6	
745.6	9623.4	
745.78	9258.2	
745.96	6997.9	
746.14	7335.8	
746.32	10331	
746.5	9528.5	
746.68	8052.6	
746.86	7350.8	
747.03	10117	
747.21	8100.4	
747.39	7939.3	
747.57	7398.6	
747.75	9060.9	
747.93	9528.5	
748.11	7279.2	
748.29	7235.5	
748.47	10788	
748.65	8847.9	
748.83	8017.8	
749.01	7844.4	
749.19	9384.5	
749.37	8497	
749.55	7645.8	
749.73	7847.1	
749.91	8877.3	
750.09	8628.1	
750.26	7812.3	
750.44	7182.2	
750.62	9028.8	
750.8	8903.9	
750.98	7050.5	
751.16	7377.5	
751.34	9012.4	
751.52	8312.7	
751.7	8265.6	
751.88	6965.1	
752.06	9542.9	
752.24	9322.4	
752.42	6991.8	
752.59	7309.9	
752.77	8808.3	
752.95	10189	
753.13	8132.5	
753.31	7535.8	
753.49	8553	
753.67	9037.7	
753.85	7789.8	
754.03	7258	
754.21	9149.6	
754.38	9500.5	
754.56	7359.7	
754.74	6159.6	
754.92	8133.8	
755.1	8708.6	
755.28	5767.8	
755.46	5520	
755.64	8749.6	
755.82	8590.5	
755.99	5008.6	
756.17	5171.1	
756.35	5437.4	
756.53	7110.5	
756.71	3687.7	
756.89	4735.6	
757.07	6756.9	
757.25	5905.7	
757.42	5595.7	
757.6	6732.4	
757.78	7228.6	
757.96	6236.1	
758.14	5540.4	
758.32	4927.4	
758.5	5579.3	
758.67	6884.6	
758.85	5147.9	
759.03	5244.8	
759.21	6591.7	
759.39	5995.1	
759.57	4734.2	
759.75	5985.5	
759.92	7393.8	
760.1	6696.2	
760.28	6567.2	
760.46	6851.8	
760.64	6607.4	
760.82	6409.5	
760.99	6600.6	
761.17	5782.8	
761.35	7716.7	
761.53	6699.6	
761.71	6096.8	
761.89	6836.1	
762.06	7811	
762.24	7352.9	
762.42	6325.5	
762.6	6154.1	
762.78	7484	
762.96	8254.7	
763.13	6965.1	
763.31	6664.8	
763.49	8459.5	
763.67	7622.5	
763.85	7542.7	
764.02	8177.5	
764.2	8873.8	
764.38	7895.6	
764.56	6507.1	
764.74	7427.3	
764.91	8964.6	
765.09	7714.7	
765.27	6260.6	
765.45	5930.9	
765.63	8959.2	
765.8	8815.8	
765.98	5626.5	
766.16	6061.3	
766.34	7261.4	
766.52	6939.9	
766.69	6983.6	
766.87	5822.4	
767.05	7632.1	
767.23	8452	
767.41	6092	
767.58	6397.2	
767.76	8173.4	
767.94	8290.9	
768.12	6145.3	
768.29	7026.6	
768.47	7598	
768.65	8388.5	
768.83	5661.3	
769	6902.3	
769.18	7079.1	
769.36	7927.7	
769.54	6677.7	
769.72	5722.7	
769.89	8114.1	
770.07	8236.2	
770.25	5963	
770.43	7324.2	
770.6	8841.8	
770.78	9278	
770.96	6107	
771.14	6811.5	
771.31	7824.6	
771.49	7197.9	
771.67	5147.2	
771.85	5442.8	
772.02	6453.1	
772.2	7215	
772.38	6205.3	
772.55	5671.5	
772.73	7363.8	
772.91	7172	
773.09	5997.8	
773.26	6063.4	
773.44	7260	
773.62	6882.5	
773.8	5453.7	
773.97	5113.1	
774.15	7329	
774.33	6834.8	
774.5	5338.4	
774.68	5663.3	
774.86	7399.3	
775.04	6858.6	
775.21	5284.4	
775.39	5253.7	
775.57	7086	
775.74	7567.2	
775.92	5060.5	
776.1	5010.7	
776.27	7006.1	
776.45	8387.1	
776.63	5167	
776.81	4666	
776.98	6623.1	
777.16	7799.3	
777.34	5356.8	
777.51	5672.2	
777.69	6589.7	
777.87	6208.8	
778.04	5300.8	
778.22	6111.1	
778.4	6365.1	
778.57	6985.6	
778.75	4474.8	
778.93	4788.8	
779.1	6058.6	
779.28	5925.5	
779.46	4457.1	
779.64	4983.4	
779.81	7095.5	
779.99	7965.9	
780.17	5776.6	
780.34	5951.4	
780.52	6505.7	
780.69	6643.6	
780.87	5275.6	
781.05	4695.3	
781.22	6503	
781.4	6611.5	
781.58	4887.1	
781.75	3977.2	
781.93	6503.7	
782.11	5854.5	
782.28	5805.3	
782.46	4771.8	
782.64	5564.3	
782.81	6505	
782.99	4838	
783.17	4904.2	
783.34	6478.4	
783.52	5606	
783.69	5029.8	
783.87	5903.6	
784.05	5612.8	
784.22	5692	
784.4	5843.5	
784.58	5087.2	
784.75	6674.3	
784.93	5685.8	
785.1	4708.3	
785.28	5345.2	
785.46	6341.9	
785.63	5627.8	
785.81	4662.5	
785.99	4482.3	
786.16	5759.6	
786.34	6197.8	
786.51	4438.6	
786.69	4945.2	
786.87	5281.7	
787.04	5863.3	
787.22	3931.4	
787.39	5317.9	
787.57	5588.9	
787.75	6777.4	
787.92	5504.3	
788.1	5453.1	
788.27	5541.8	
788.45	5352	
788.63	5241.4	
788.8	3811.3	
788.98	5930.9	
789.15	5275.6	
789.33	3979.2	
789.5	4586.1	
789.68	6533	
789.86	6631.3	
790.03	5047.6	
790.21	4424.3	
790.38	6536.4	
790.56	5595.1	
790.73	4244.8	
790.91	4315.1	
791.09	5477.6	
791.26	6248.4	
791.44	4450.2	
791.61	3898.6	
791.79	5432.6	
791.96	5553.4	
792.14	3994.2	
792.32	3527.3	
792.49	5517.2	
792.67	5520	
792.84	4051.6	
793.02	3858.4	
793.19	5864.7	
793.37	6659.3	
793.54	3688.4	
793.72	3951.9	
793.89	6831.3	
794.07	5386.2	
794.25	4592.2	
794.42	3677.5	
794.6	6639.5	
794.77	6115.2	
794.95	4830.5	
795.12	4274.1	
795.3	5367.7	
795.47	6034.7	
795.65	4603.8	
795.82	4497.3	
796	5184.1	
796.17	7190.4	
796.35	4291.9	
796.52	5058.5	
796.7	5894.1	
796.87	6062	
797.05	5330.2	
797.22	5211.4	
797.4	6022.4	
797.57	7066.9	
797.75	4369.7	
797.92	4117.1	
798.1	6295.5	
798.27	5345.2	
798.45	3588	
798.62	3857	
798.8	5705.6	
798.97	6178.7	
799.15	4622.9	
799.32	4442	
799.5	4920.6	
799.67	5741.8	
799.85	4799.8	
800.02	3476.8	
800.2	5250.3	
800.37	5701.5	
800.55	5021.6	
800.72	4146.5	
800.9	6127.5	
801.07	6584.2	
801.25	5596.4	
801.42	4560.8	
801.6	6181.5	
801.77	5902.2	
801.95	4093.2	
802.12	4015.4	
802.29	5857.9	
802.47	5828.5	
802.64	4504.2	
802.82	3403.7	
802.99	5281	
803.17	6328.2	
803.34	4379.2	
803.52	3948.5	
803.69	6958.3	
803.87	5016.8	
804.04	4339	
804.21	4476.2	
804.39	6382.8	
804.56	5524.7	
804.74	3677.5	
804.91	4567.7	
805.09	5242.8	
805.26	5374.6	
805.44	3750.5	
805.61	4132.8	
805.78	6015.6	
805.96	5956.2	
806.13	4464.6	
806.31	4782.7	
806.48	4784.7	
806.66	5362.9	
806.83	4478.9	
807	4339	
807.18	5148.6	
807.35	5619.6	
807.53	4291.2	
807.7	3475.4	
807.87	6436.8	
808.05	5277.6	
808.22	4773.8	
808.4	3409.9	
808.57	5274.2	
808.74	4868.7	
808.92	3929.4	
809.09	4972.5	
809.27	5073.5	
809.44	5801.2	
809.61	3515	
809.79	3895.2	
809.96	6406	
810.14	6066.8	
810.31	3354.6	
810.48	4157.4	
810.66	5325.4	
810.83	6099.5	
811.01	3919.1	
811.18	4674.1	
811.35	6122.1	
811.53	4649.6	
811.7	4723.3	
811.87	4517.1	
812.05	5221	
812.22	5205.3	
812.39	3792.2	
812.57	3679.5	
812.74	5218.9	
812.92	7040.2	
813.09	4162.8	
813.26	4543.8	
813.44	6778.8	
813.61	5181.4	
813.78	3431.7	
813.96	4670.7	
814.13	5211.4	
814.3	4864.6	
814.48	5038	
814.65	4193.6	
814.82	6546.7	
815	5074.2	
815.17	4233.8	
815.34	5249.6	
815.52	5146.5	
815.69	5165	
815.87	4240.7	
816.04	3629	
816.21	5298.8	
816.38	4582	
816.56	4154.6	
816.73	3831.1	
816.9	6653.9	
817.08	6091.3	
817.25	3826.3	
817.42	4889.2	
817.6	4780.6	
817.77	5245.5	
817.94	4373.8	
818.12	3777.8	
818.29	4924	
818.46	7899	
818.64	3927.3	
818.81	3699.3	
818.98	4863.9	
819.16	7210.2	
819.33	4617.5	
819.5	4240.7	
819.67	5638.7	
819.85	6361.7	
820.02	4233.2	
820.19	4414.7	
820.37	5457.2	
820.54	5027.1	
820.71	4371	
820.88	5373.2	
821.06	5504.9	
821.23	5041.4	
821.4	4334.2	
821.58	4305.5	
821.75	6022.4	
821.92	5431.2	
822.09	3468.6	
822.27	3571	
822.44	5228.5	
822.61	5132.2	
822.79	3478.1	
822.96	6792.4	
823.13	5751.4	
823.3	4923.3	
823.48	4047.5	
823.65	3657.7	
823.82	5976	
823.99	4727.4	
824.17	5137.7	
824.34	3708.9	
824.51	6924.2	
824.68	5311.7	
824.86	3809.2	
825.03	4259.1	
825.2	5163.6	
825.37	6435.4	
825.55	3848.8	
825.72	4308.9	
825.89	7046.4	
826.06	6481.1	
826.24	4202.4	
826.41	4117.8	
826.58	6410.1	
826.75	5524.7	
826.92	3315.7	
827.1	3562.8	
827.27	8813.8	
827.44	7007.5	
827.61	3945.8	
827.79	4788.8	
827.96	4885.8	
828.13	5332.2	
828.3	4139.6	
828.47	3412.6	
828.65	5484.5	
828.82	5362.3	
828.99	5393.7	
829.16	4721.3	
829.34	5956.9	
829.51	5677.7	
829.68	4327.4	
829.85	4442.7	
830.02	6226.5	
830.2	5900.9	
830.37	3263.1	
830.54	5210.7	
830.71	6700.3	
830.88	5214.1	
831.05	3390.1	
831.23	3904.8	
831.4	6418.3	
831.57	7243.7	
831.74	3898	
831.91	3449.5	
832.09	5416.9	
832.26	5843.5	
832.43	4108.9	
832.6	4605.2	
832.77	5422.3	
832.94	6254.5	
833.12	3201	
833.29	4090.5	
833.46	5671.5	
833.63	7561.1	
833.8	4505.5	
833.97	4163.5	
834.15	5905	
834.32	5545.9	
834.49	4281.6	
834.66	4400.4	
834.83	6112.5	
835	4949.9	
835.17	3962.8	
835.35	4028.4	
835.52	5788.2	
835.69	5607.3	
835.86	4237.2	
836.03	3381.2	
836.2	5789.6	
836.37	5390.3	
836.55	4133.5	
836.72	3858.4	
836.89	5358.2	
837.06	5883.8	
837.23	4171.7	
837.4	4625.7	
837.57	6746	
837.75	7543.4	
837.92	3734.1	
838.09	4035.2	
838.26	5337	
838.43	6226.5	
838.6	4337.6	
838.77	3844.7	
838.94	7105.1	
839.11	6709.1	
839.29	4022.9	
839.46	3231.7	
839.63	5853.8	
839.8	5587.5	
839.97	4072.7	
840.14	3985.3	
840.31	5593	
840.48	5896.1	
840.65	3222.8	
840.82	3898.6	
841	5829.2	
841.17	5751.4	
841.34	3646.1	
841.51	3735.5	
841.68	5750.7	
841.85	5498.1	
842.02	3799	
842.19	3118.4	
842.36	5564.3	
842.53	5549.3	
842.7	3645.4	
842.87	4471.4	
843.05	7427.3	
843.22	5479	
843.39	3412.6	
843.56	3713.7	
843.73	5210	
843.9	5909.8	
844.07	5969.1	
844.24	4975.9	
844.41	8708.6	
844.58	4993.6	
844.75	3498.6	
844.92	3762.8	
845.09	5856.5	
845.26	5800.5	
845.43	3567.6	
845.6	3822.9	
845.77	5802.6	
845.94	5497.4	
846.12	4063.9	
846.29	4308.9	
846.46	5999.2	
846.63	5888.6	
846.8	3658.4	
846.97	4364.2	
847.14	6372.6	
847.31	5788.2	
847.48	4141.7	
847.65	4572.4	
847.82	6141.2	
847.99	6095.4	
848.16	4892.6	
848.33	4513	
848.5	5350	
848.67	6378.7	
848.84	3647.4	
849.01	3744.4	
849.18	5253.7	
849.35	4891.9	
849.52	4525.3	
849.69	3526.6	
849.86	6027.9	
850.03	6272.9	
850.2	3657.7	
850.37	4381.3	
850.54	6224.5	
850.71	5532.9	
850.88	4328.7	
851.05	3616	
851.22	5691.3	
851.39	6352.1	
851.56	3465.2	
851.73	4141	
851.9	5119.2	
852.07	6130.3	
852.24	4019.5	
852.41	3558	
852.58	5636	
852.75	5214.1	
852.92	4047.5	
853.09	3527.3	
853.26	5410.1	
853.43	6279.8	
853.6	3613.3	
853.77	3068.5	
853.94	6451.8	
854.11	5108.3	
854.28	5492.7	
854.44	3896.6	
854.61	6866.2	
854.78	5890.6	
854.95	3599.6	
855.12	4584.7	
855.29	4711.7	
855.46	6614.9	
855.63	3588	
855.8	5076.9	
855.97	5389.6	
856.14	6204	
856.31	5174.5	
856.48	3930.1	
856.65	5327.4	
856.82	5014.1	
856.99	3480.2	
857.16	3899.3	
857.33	7116.7	
857.49	5425.1	
857.66	3914.4	
857.83	4200.4	
858	5457.8	
858.17	5591.6	
858.34	3431	
858.51	3609.9	
858.68	6637.5	
858.85	6554.2	
859.02	4244.8	
859.19	4506.9	
859.36	5113.8	
859.52	5165	
859.69	3671.3	
859.86	4293.2	
860.03	5165.7	
860.2	6412.9	
860.37	3246.7	
860.54	3679.5	
860.71	6087.9	
860.88	6466.1	
861.05	4052.2	
861.21	4564.2	
861.38	6563.7	
861.55	5024.3	
861.72	3291.8	
861.89	4059.8	
862.06	6173.9	
862.23	6661.4	
862.4	3521.1	
862.56	3788.1	
862.73	5935	
862.9	5594.4	
863.07	4319.8	
863.24	3276.7	
863.41	4944.5	
863.58	5074.9	
863.75	3717.1	
863.91	4199.7	
864.08	6457.9	
864.25	6006.7	
864.42	4590.9	
864.59	5068.7	
864.76	6744.6	
864.93	5137.7	
865.09	3508.2	
865.26	3856.3	
865.43	6335.1	
865.6	6747.4	
865.77	3173	
865.94	3622.2	
866.1	6385.6	
866.27	6133.7	
866.44	5514.5	
866.61	3422.2	
866.78	5495.4	
866.95	5969.1	
867.11	3453.6	
867.28	3205.1	
867.45	6235.4	
867.62	5170.4	
867.79	4297.3	
867.96	3593.5	
868.12	5165	
868.29	6090	
868.46	3121.8	
868.63	4890.5	
868.8	6264.1	
868.97	6028.5	
869.13	3762.8	
869.3	3784.6	
869.47	5911.8	
869.64	6134.3	
869.81	3616	
869.97	3646.1	
870.14	5828.5	
870.31	6506.4	
870.48	3481.5	
870.65	4553.3	
870.81	5448.3	
870.98	5351.3	
871.15	4074.8	
871.32	3718.4	
871.48	5905.7	
871.65	6603.3	
871.82	3605.1	
871.99	4018.8	
872.16	7058.7	
872.32	6322.8	
872.49	3594.2	
872.66	3696.6	
872.83	6104.3	
872.99	5338.4	
873.16	4194.2	
873.33	3639.2	
873.5	5657.2	
873.67	5708.4	
873.83	3812.6	
874	4891.9	
874.17	5789.6	
874.34	6933.1	
874.5	4716.5	
874.67	4521.9	
874.84	6520	
875.01	5111.7	
875.17	5199.8	
875.34	3586	
875.51	5766.4	
875.68	6922.1	
875.84	4427.7	
876.01	5336.3	
876.18	6058.6	
876.34	5877.7	
876.51	3630.4	
876.68	3547.8	
876.85	5500.2	
877.01	6320.7	
877.18	5210	
877.35	3562.1	
877.52	5597.8	
877.68	4983.4	
877.85	3557.3	
878.02	3480.9	
878.18	5586.2	
878.35	5319.3	
878.52	2891	
878.69	4009.2	
878.85	6069.5	
879.02	6005.3	
879.19	5141.8	
879.35	3831.7	
879.52	6001.2	
879.69	6219.7	
879.86	3074.7	
880.02	4083	
880.19	5591	
880.36	6785.6	
880.52	4167.6	
880.69	4299.4	
880.86	6126.2	
881.02	6198.5	
881.19	3953.3	
881.36	3955.3	
881.52	5978	
881.69	5258.5	
881.86	3904.1	
882.02	3805.1	
882.19	6285.2	
882.36	7385	
882.52	3693.9	
882.69	5103.5	
882.86	5810.1	
883.02	5651.7	
883.19	4341	
883.36	4163.5	
883.52	6169.2	
883.69	7019.1	
883.86	3661.1	
884.02	3267.9	
884.19	6061.3	
884.36	5555.5	
884.52	4131.4	
884.69	3837.9	
884.86	5326.8	
885.02	6695.5	
885.19	4047.5	
885.36	4179.9	
885.52	5608.7	
885.69	5737	
885.86	5354.8	
886.02	4682.3	
886.19	6139.1	
886.35	5501.5	
886.52	4007.2	
886.69	5131.5	
886.85	5097.4	
887.02	6458.6	
887.19	6458.6	
887.35	6458.6	
887.52	6458.6	
887.68	6458.6	
887.85	6458.6	
888.02	6458.6	
888.18	6458.6	
888.35	6458.6	
888.51	6458.6	
888.68	6458.6	
888.85	6458.6	
889.01	6458.6	
889.18	6458.6	
889.35	6458.6	
889.51	6458.6	
889.68	6458.6	
889.84	6458.6	
890.01	6458.6	
890.17	6458.6	
890.34	6458.6	
890.51	6458.6	
890.67	6458.6	
890.84	6458.6	
891	6458.6	
891.17	6458.6	
891.34	6458.6	
891.5	6458.6	
891.67	6458.6	
891.83	6458.6	
892	6458.6	
892.16	6458.6	
892.33	6458.6	
892.5	6458.6	
892.66	6458.6	
892.83	6458.6	
892.99	6458.6	
893.16	6458.6	
893.32	6458.6	
893.49	6458.6	
893.65	6458.6	
893.82	6458.6	
893.99	6458.6	
894.15	6458.6	
894.32	6458.6	
894.48	6458.6	
894.65	6458.6	
894.81	6458.6	
894.98	6458.6	
895.14	6458.6	
895.31	6458.6	
895.47	6458.6	
895.64	6458.6	
895.81	6458.6	
895.97	6458.6	
896.14	6458.6	
896.3	6458.6	
896.47	6458.6	
896.63	6458.6	
896.8	6458.6	
896.96	6458.6	
897.13	6458.6	
897.29	6458.6	
897.46	6458.6	
897.62	6458.6	
897.79	6458.6	
897.95	6458.6	
898.12	6458.6	
898.28	6458.6	
898.45	6458.6	
898.61	6458.6	
898.78	6458.6	
898.94	6458.6	
899.11	6458.6	
899.27	6458.6	
899.44	6458.6	
899.6	6458.6	
899.77	6458.6	
899.93	6458.6	
900.1	6458.6	
900.26	6458.6	
900.43	6458.6	
900.59	6458.6	
900.76	6458.6	
900.92	6458.6	
901.09	6458.6	
901.25	6458.6	
901.42	6458.6	
901.58	6458.6	
901.75	6458.6	
901.91	6458.6	
902.07	6458.6	
902.24	6458.6	
902.4	6458.6	
902.57	6458.6	
902.73	6458.6	
902.9	6458.6	
903.06	6458.6	
903.23	6458.6	
903.39	6458.6	
903.56	6458.6	
903.72	6458.6	
903.88	6458.6	
904.05	6458.6	
904.21	6458.6	
904.38	6458.6	
904.54	6458.6	
904.71	6458.6	
904.87	6458.6	
905.03	6458.6	
905.2	6458.6	
905.36	6458.6	
905.53	6458.6	
905.69	6458.6	
905.86	6458.6	
906.02	6458.6	
906.18	6458.6	
906.35	6458.6	
906.51	6458.6	
906.68	6458.6	
906.84	6458.6	
907.01	6458.6	
907.17	6458.6	
907.33	6458.6	
907.5	6458.6	
907.66	6458.6	
907.83	6458.6	
907.99	6458.6	
908.15	6458.6	
908.32	6458.6	
908.48	6458.6	
908.65	6458.6	
908.81	6458.6	
908.97	6458.6	
909.14	6458.6	
909.3	6458.6	
909.47	6458.6	
909.63	6458.6	
909.79	6458.6	
909.96	6458.6	
910.12	6458.6	
910.28	6458.6	
910.45	6458.6	
910.61	6458.6	
910.78	6458.6	
910.94	6458.6	
911.1	6458.6	
911.27	6458.6	
911.43	6458.6	
911.59	6458.6	
911.76	6458.6	
911.92	6458.6	
912.08	6458.6	
912.25	6458.6	
912.41	6458.6	
912.57	6458.6	
912.74	6458.6	
912.9	6458.6	
913.07	6458.6	
913.23	6458.6	
913.39	6458.6	
913.56	6458.6	
913.72	6458.6	
913.88	6458.6	
914.05	6458.6	
914.21	6458.6	
914.37	6458.6	
914.54	6458.6	
914.7	6458.6	
914.86	6458.6	
915.03	6458.6	
915.19	6458.6	
