Wavelength	Intensities	
nm	a.u.	
179.22	1917.1	
179.44	1927.5	
179.65	1906.7	
179.86	1948.3	
180.08	1863.7	
180.29	4892.6	
180.51	3532.1	
180.72	5655.1	
180.94	6657.9	
181.15	3275.4	
181.37	3162.1	
181.58	5470.1	
181.79	5836	
182.01	3420.8	
182.22	3667.2	
182.44	5757.5	
182.65	4795	
182.87	4564.9	
183.08	3978.5	
183.29	6034	
183.51	5036	
183.72	3641.3	
183.94	5386.8	
184.15	5481.7	
184.37	5411.4	
184.58	3210.5	
184.79	4421.6	
185.01	5004.6	
185.22	5847.6	
185.44	4661.2	
185.65	4003.8	
185.86	5350.7	
186.08	4906.9	
186.29	3105.4	
186.51	3396.2	
186.72	5078.3	
186.94	5938.4	
187.15	3976.5	
187.36	4069.3	
187.58	7785.7	
187.79	5511.1	
188.01	4276.8	
188.22	6584.9	
188.43	6643.6	
188.65	5720.7	
188.86	3338.2	
189.08	3996.3	
189.29	5235.3	
189.5	5222.3	
189.72	3733.4	
189.93	3779.9	
190.15	6012.8	
190.36	7236.8	
190.57	4108.9	
190.79	3992.2	
191	6125.5	
191.22	6088.6	
191.43	4106.2	
191.64	3405.8	
191.86	6339.1	
192.07	6030.6	
192.29	3549.1	
192.5	3772.4	
192.71	6083.8	
192.93	5157.5	
193.14	3702.7	
193.35	3801	
193.57	5187.5	
193.78	5993.7	
194	3027.6	
194.21	3671.3	
194.42	4934.9	
194.64	5454.4	
194.85	4070.7	
195.07	4810	
195.28	5460.6	
195.49	4729.4	
195.71	4924	
195.92	3448.1	
196.13	5660.6	
196.35	5758.2	
196.56	5294	
196.78	4041.3	
196.99	7040.9	
197.2	6578.1	
197.42	4618.9	
197.63	4091.8	
197.84	4861.2	
198.06	5613.5	
198.27	3713.7	
198.48	4993.6	
198.7	5201.2	
198.91	5330.2	
199.13	4056.3	
199.34	4113.7	
199.55	5831.2	
199.77	4689.8	
199.98	3563.5	
200.19	4151.2	
200.41	5341.1	
200.62	5009.3	
200.83	4228.4	
201.05	4577.2	
201.26	5277.6	
201.47	5076.2	
201.69	3650.8	
201.9	3442	
202.11	5391.6	
202.33	6432.7	
202.54	3867.2	
202.76	4351.9	
202.97	5497.4	
203.18	5523.4	
203.4	4242.7	
203.61	4065.9	
203.82	5456.5	
204.04	5056.4	
204.25	4149.9	
204.46	4037.9	
204.68	5449	
204.89	5687.9	
205.1	4026.3	
205.32	3459.7	
205.53	5797.8	
205.74	5988.9	
205.96	2958.6	
206.17	4224.3	
206.38	5834.7	
206.6	5956.2	
206.81	4666.6	
207.02	3859.7	
207.24	5715.9	
207.45	6045.6	
207.66	3907.5	
207.88	3308.8	
208.09	5642.2	
208.3	5490.6	
208.52	3548.4	
208.73	3863.2	
208.94	5461.2	
209.15	6132.3	
209.37	3806.5	
209.58	4061.8	
209.79	5983.5	
210.01	5233.9	
210.22	3155.2	
210.43	3242.6	
210.65	5441.5	
210.86	5864.7	
211.07	3865.9	
211.29	3562.1	
211.5	5807.4	
211.71	5386.8	
211.93	3555.3	
212.14	3547.1	
212.35	5380.7	
212.56	5591	
212.78	4169	
212.99	3358.7	
213.2	6393.1	
213.42	5173.9	
213.63	3629	
213.84	3937.6	
214.06	4831.2	
214.27	4932.9	
214.48	3863.8	
214.69	4207.2	
214.91	6164.4	
215.12	6200.6	
215.33	4184	
215.55	4693.9	
215.76	6706.4	
215.97	5833.3	
216.18	4026.3	
216.4	3901.4	
216.61	5124.7	
216.82	5979.4	
217.04	3546.4	
217.25	3747.1	
217.46	6108.4	
217.67	5884.5	
217.89	3186	
218.1	3321.8	
218.31	5556.1	
218.53	5631.9	
218.74	3722.5	
218.95	3650.2	
219.16	5408.7	
219.38	6354.2	
219.59	3628.3	
219.8	4341	
220.01	7064.1	
220.23	5468.1	
220.44	4853.7	
220.65	3519.8	
220.87	5516.5	
221.08	6094.1	
221.29	3302.7	
221.5	4397.7	
221.72	7456.7	
221.93	5151.3	
222.14	4147.1	
222.35	4796.3	
222.57	5411.4	
222.78	5816.2	
222.99	3891.1	
223.2	4228.4	
223.42	5711.1	
223.63	5911.8	
223.84	3015.3	
224.05	3003.7	
224.27	6983.6	
224.48	6380.8	
224.69	4851	
224.9	4147.1	
225.12	5595.1	
225.33	5425.1	
225.54	3294.5	
225.75	3648.8	
225.97	4992.9	
226.18	5320.6	
226.39	3920.5	
226.6	3642.7	
226.82	5201.8	
227.03	5062.6	
227.24	4083	
227.45	3367.5	
227.67	5739.1	
227.88	6373.3	
228.09	4513	
228.3	4610.7	
228.52	5887.2	
228.73	5409.4	
228.94	3775.1	
229.15	3371.6	
229.36	5292.6	
229.58	5292.6	
229.79	3879.5	
230	4498	
230.21	6429.3	
230.43	5567.7	
230.64	4060.4	
230.85	4282.3	
231.06	5874.9	
231.28	5859.2	
231.49	3338.9	
231.7	3988.8	
231.91	5780.1	
232.12	5470.8	
232.34	3465.8	
232.55	3999	
232.76	6071.5	
232.97	5635.3	
233.18	3541.6	
233.4	4034.5	
233.61	5708.4	
233.82	5123.3	
234.03	3729.4	
234.25	3657	
234.46	7567.9	
234.67	5489.9	
234.88	4134.8	
235.09	3631	
235.31	5732.9	
235.52	5313.8	
235.73	4090.5	
235.94	3447.4	
236.15	5127.4	
236.37	6621.1	
236.58	3612.6	
236.79	3894.6	
237	5763	
237.21	4908.3	
237.43	4128	
237.64	3290.4	
237.85	10011	
238.06	4990.2	
238.27	4291.9	
238.48	3420.8	
238.7	5786.9	
238.91	5274.9	
239.12	3949.2	
239.33	3917.8	
239.54	5188.2	
239.76	5352.7	
239.97	3908.2	
240.18	3870	
240.39	6847.7	
240.6	5722.7	
240.82	3958	
241.03	3286.3	
241.24	5378.6	
241.45	6308.4	
241.66	3566.9	
241.87	4173.1	
242.09	6130.9	
242.3	6582.9	
242.51	4179.2	
242.72	3928.7	
242.93	5935	
243.14	5380	
243.36	4545.8	
243.57	4894.6	
243.78	6340.5	
243.99	5797.1	
244.2	3943	
244.41	3553.9	
244.63	4972.5	
244.84	5787.6	
245.05	4205.8	
245.26	3938.9	
245.47	5729.5	
245.68	5959.6	
245.9	5162.9	
246.11	4074.1	
246.32	5267.4	
246.53	5707	
246.74	6339.8	
246.95	3292.5	
247.16	4920.6	
247.38	5428.5	
247.59	3243.3	
247.8	3914.4	
248.01	5089.2	
248.22	5388.9	
248.43	3579.8	
248.64	3833.8	
248.86	4816.1	
249.07	5265.3	
249.28	3457.7	
249.49	4052.2	
249.7	6034	
249.91	6189	
250.12	3256.3	
250.34	3272.7	
250.55	5594.4	
250.76	5405.3	
250.97	4087.7	
251.18	4102.1	
251.39	6122.1	
251.6	5666	
251.81	4156	
252.03	4121.9	
252.24	5190.2	
252.45	5987.6	
252.66	3428.3	
252.87	4372.4	
253.08	5514.5	
253.29	7191.8	
253.5	3442.6	
253.72	4762.2	
253.93	5253	
254.14	6401.3	
254.35	3777.1	
254.56	3799	
254.77	5664.7	
254.98	5017.5	
255.19	3705.5	
255.41	4674.1	
255.62	5514.5	
255.83	6113.2	
256.04	4260.5	
256.25	4134.8	
256.46	6449.1	
256.67	5134.9	
256.88	4081.6	
257.09	4531.5	
257.31	5086.5	
257.52	5182.7	
257.73	5064.6	
257.94	3769.6	
258.15	5274.9	
258.36	5423.7	
258.57	4728.8	
258.78	3016.7	
258.99	5959.6	
259.2	5297.4	
259.41	3738.9	
259.63	3846.8	
259.84	6296.1	
260.05	6776	
260.26	4915.8	
260.47	3639.2	
260.68	6024.4	
260.89	5361.6	
261.1	4543.1	
261.31	3567.6	
261.52	5953.4	
261.73	6397.9	
261.95	4806.6	
262.16	4257.7	
262.37	6198.5	
262.58	6195.1	
262.79	4797.7	
263	3794.9	
263.21	5529.5	
263.42	4966.3	
263.63	3850.9	
263.84	3760.8	
264.05	6050.4	
264.26	6400.6	
264.47	4640	
264.69	4177.9	
264.9	6141.9	
265.11	5682.4	
265.32	3603.7	
265.53	3683.6	
265.74	5558.2	
265.95	4911	
266.16	3943.7	
266.37	4364.9	
266.58	5590.3	
266.79	5300.1	
267	3701.4	
267.21	3457	
267.42	5046.9	
267.63	5452.4	
267.84	3906.2	
268.06	3310.2	
268.27	5925.5	
268.48	6137.8	
268.69	3829.7	
268.9	4497.3	
269.11	6216.3	
269.32	4917.9	
269.53	3961.5	
269.74	3607.2	
269.95	5845.6	
270.16	4831.8	
270.37	3931.4	
270.58	4555.4	
270.79	5292	
271	6014.9	
271.21	4265.2	
271.42	3960.1	
271.63	5626.5	
271.84	5087.8	
272.05	3123.2	
272.26	3559.4	
272.47	5483.8	
272.68	5689.3	
272.89	3741.6	
273.11	4304.1	
273.32	5192.3	
273.53	6455.9	
273.74	4216.8	
273.95	4136.2	
274.16	6137.8	
274.37	5500.2	
274.58	4275.5	
274.79	3448.1	
275	5590.3	
275.21	6194.4	
275.42	5188.9	
275.63	4457.1	
275.84	5713.8	
276.05	7212.3	
276.26	4161.5	
276.47	3887	
276.68	5302.9	
276.89	6419	
277.1	4436.6	
277.31	3442	
277.52	5752.7	
277.73	5877	
277.94	3405.1	
278.15	3774.4	
278.36	5634	
278.57	5101.5	
278.78	3749.1	
278.99	4201.1	
279.2	5095.3	
279.41	4984.8	
279.62	4945.8	
279.83	3432.4	
280.04	6643.6	
280.25	4989.5	
280.46	4952.7	
280.67	3939.6	
280.88	5056.4	
281.09	6123.4	
281.3	4159.4	
281.51	5254.4	
281.72	5164.3	
281.93	5964.4	
282.14	3654.3	
282.35	3953.9	
282.56	5948	
282.77	5963.7	
282.98	3797.6	
283.19	4683	
283.4	7308.5	
283.61	5427.1	
283.82	3417.4	
284.03	4925.4	
284.24	5509	
284.45	6092	
284.66	4821.6	
284.87	4669.4	
285.08	5985.5	
285.29	6232.7	
285.5	3319.1	
285.71	3827	
285.92	6066.1	
286.12	6787	
286.33	4750.6	
286.54	3749.8	
286.75	5982.1	
286.96	5291.3	
287.17	3501.3	
287.38	4801.8	
287.59	5076.2	
287.8	4981.3	
288.01	3867.2	
288.22	4469.4	
288.43	5973.9	
288.64	4954	
288.85	4483.7	
289.06	4390.8	
289.27	5847	
289.48	6380.1	
289.69	4857.1	
289.9	4406.5	
290.11	6165.8	
290.32	5167	
290.53	4678.2	
290.74	4288.4	
290.94	5904.3	
291.15	5976.7	
291.36	3607.8	
291.57	4397.7	
291.78	5188.9	
291.99	4872.1	
292.2	3516.4	
292.41	4209.9	
292.62	5994.4	
292.83	5731.6	
293.04	5270.1	
293.25	3506.8	
293.46	5180.7	
293.67	6068.8	
293.88	3666.5	
294.09	3570.3	
294.29	4941.7	
294.5	5580	
294.71	3976.5	
294.92	3785.3	
295.13	5245.5	
295.34	6607.4	
295.55	3288.4	
295.76	3395.5	
295.97	5847.6	
296.18	6587	
296.39	3459	
296.6	3712.3	
296.81	5547.3	
297.01	5858.6	
297.22	3816	
297.43	3607.2	
297.64	5097.4	
297.85	5132.9	
298.06	3094.5	
298.27	3312.9	
298.48	5502.2	
298.69	5152	
298.9	3979.2	
299.11	3613.3	
299.31	4976.6	
299.52	5002.5	
299.73	4242.7	
299.94	4162.8	
300.15	5431.2	
300.36	5076.2	
300.57	4155.3	
300.78	4187.4	
300.99	5347.2	
301.2	5558.2	
301.4	3617.4	
301.61	3970.3	
301.82	5794.4	
302.03	5888.6	
302.24	4466.6	
302.45	3493.2	
302.66	5719.3	
302.87	6206.7	
303.08	3701.4	
303.29	5067.4	
303.49	5172.5	
303.7	5500.8	
303.91	3235.1	
304.12	4811.4	
304.33	4975.9	
304.54	5555.5	
304.75	3705.5	
304.96	3491.8	
305.16	5781.4	
305.37	6488.6	
305.58	3241.3	
305.79	3349.1	
306	5760.9	
306.21	4855.1	
306.42	3636.5	
306.63	5664.7	
306.83	5330.9	
307.04	6047.7	
307.25	4077.5	
307.46	4063.2	
307.67	4664.6	
307.88	5999.9	
308.09	3611.3	
308.29	3798.3	
308.5	5572.5	
308.71	6085.9	
308.92	4005.8	
309.13	3575.8	
309.34	5403.2	
309.55	5408.7	
309.75	4614.8	
309.96	4194.2	
310.17	5878.4	
310.38	5196.4	
310.59	4377.9	
310.8	3464.5	
311.01	5274.2	
311.21	5294	
311.42	3476.8	
311.63	3572.3	
311.84	5173.2	
312.05	5586.2	
312.26	4083.6	
312.46	4457.7	
312.67	5306.3	
312.88	5012.1	
313.09	3547.1	
313.3	3493.2	
313.51	6279.1	
313.71	6694.1	
313.92	3504.1	
314.13	3745.7	
314.34	5624.4	
314.55	5299.5	
314.76	4592.9	
314.96	3992.9	
315.17	5531.6	
315.38	5855.1	
315.59	3594.2	
315.8	3428.3	
316.01	6344.6	
316.21	6379.4	
316.42	3426.9	
316.63	3900.7	
316.84	5289.2	
317.05	6185.5	
317.26	4194.9	
317.46	3773.7	
317.67	5421.7	
317.88	5819.6	
318.09	4554	
318.3	3325.9	
318.5	5171.8	
318.71	5821	
318.92	5788.9	
319.13	4176.5	
319.34	5993.7	
319.54	6089.3	
319.75	3276.8	
319.96	3194.8	
320.17	5835.3	
320.38	6061.3	
320.58	3185.3	
320.79	3923.9	
321	6120.7	
321.21	6170.5	
321.42	3940.3	
321.62	3254.9	
321.83	5048.9	
322.04	5438.7	
322.25	3777.1	
322.46	3571	
322.66	5578	
322.87	5792.3	
323.08	4449.6	
323.29	3459.7	
323.5	6543.3	
323.7	5011.4	
323.91	4864.6	
324.12	4363.5	
324.33	5489.9	
324.53	5819.6	
324.74	4205.8	
324.95	4410	
325.16	4852.3	
325.37	5320.6	
325.57	3549.1	
325.78	3646.7	
325.99	5535.7	
326.2	4928.1	
326.4	5155.4	
326.61	3268.6	
326.82	5417.6	
327.03	5576.6	
327.24	5070.8	
327.44	4820.9	
327.65	5667.4	
327.86	4625	
328.07	4210.6	
328.27	3423.5	
328.48	6172.6	
328.69	5074.2	
328.9	5157.5	
329.1	3865.9	
329.31	5296.7	
329.52	6280.4	
329.73	3506.1	
329.93	4025.6	
330.14	5429.8	
330.35	5696.1	
330.56	5862	
330.76	4414.7	
330.97	5272.2	
331.18	5685.2	
331.39	3909.6	
331.59	3242.6	
331.8	6072.2	
332.01	6204	
332.22	3680.2	
332.42	4183.3	
332.63	5601.9	
332.84	5187.5	
333.05	4001	
333.25	3607.2	
333.46	5302.2	
333.67	5476.3	
333.88	3787.4	
334.08	4164.9	
334.29	7279.8	
334.5	6137.1	
334.7	3472	
334.91	5080.3	
335.12	4982.7	
335.33	5879.7	
335.53	3932.8	
335.74	5919.3	
335.95	5228.5	
336.16	5074.2	
336.36	3981.9	
336.57	4503.5	
336.78	4990.2	
336.98	6066.1	
337.19	4924.7	
337.4	3918.4	
337.61	6710.5	
337.81	5010	
338.02	3648.1	
338.23	4762.2	
338.43	6301.6	
338.64	5122.7	
338.85	3532.7	
339.05	4709	
339.26	6316.6	
339.47	4886.5	
339.68	3606.5	
339.88	5343.2	
340.09	5706.3	
340.3	5885.9	
340.5	4136.9	
340.71	3217.4	
340.92	4916.5	
341.13	6235.4	
341.33	3479.5	
341.54	4232.5	
341.75	5650.3	
341.95	5331.5	
342.16	3978.5	
342.37	4324.6	
342.57	5012.7	
342.78	5421	
342.99	4530.8	
343.19	3252.2	
343.4	5863.3	
343.61	5707	
343.81	3815.4	
344.02	3500	
344.23	5913.9	
344.43	6336.4	
344.64	4507.6	
344.85	4370.4	
345.06	5732.9	
345.26	6091.3	
345.47	4160.8	
345.68	4903.5	
345.88	4820.9	
346.09	5920	
346.3	4244.1	
346.5	3143.6	
346.71	5433.3	
346.92	5124.7	
347.12	3274	
347.33	4154	
347.54	6038.1	
347.74	6408.8	
347.95	4078.9	
348.16	3020.1	
348.36	5281	
348.57	4953.4	
348.78	4084.3	
348.98	4401.8	
349.19	5405.3	
349.39	4932.9	
349.6	3245.3	
349.81	3642	
350.01	5716.6	
350.22	5114.5	
350.43	3975.1	
350.63	4746.5	
350.84	5466	
351.05	5213.4	
351.25	3602.4	
351.46	3237.8	
351.67	6068.8	
351.87	5139.7	
352.08	3852.2	
352.29	4376.5	
352.49	5934.3	
352.7	6028.5	
352.9	3472.7	
353.11	4361.5	
353.32	6626.5	
353.52	5291.3	
353.73	3465.2	
353.94	4412.7	
354.14	5809.4	
354.35	5642.8	
354.55	3543.7	
354.76	3949.2	
354.97	5747.3	
355.17	5488.6	
355.38	3388.7	
355.59	4724	
355.79	5184.1	
356	5598.5	
356.2	3941	
356.41	3403.7	
356.62	4883	
356.82	5395.7	
357.03	4228.4	
357.24	3768.9	
357.44	5104.9	
357.65	5297.4	
357.85	5102.2	
358.06	3971.7	
358.27	4883.7	
358.47	5096	
358.68	3375.1	
358.88	4169	
359.09	5720	
359.3	6165.1	
359.5	4956.8	
359.71	4345.8	
359.91	6591.7	
360.12	5841.5	
360.33	4216.8	
360.53	4724	
360.74	5145.2	
360.94	5169.8	
361.15	4420.2	
361.36	3585.3	
361.56	6025.1	
361.77	5412.1	
361.97	4960.2	
362.18	3856.3	
362.38	6000.5	
362.59	5014.1	
362.8	3551.2	
363	3365.5	
363.21	4824.3	
363.41	5457.8	
363.62	4111.6	
363.83	5120.6	
364.03	5630.5	
364.24	6655.9	
364.44	5252.4	
364.65	5214.8	
364.85	5291.3	
365.06	5219.6	
365.27	3697.3	
365.47	3800.3	
365.68	6297.5	
365.88	5328.1	
366.09	4101.4	
366.29	3816	
366.5	5580.7	
366.71	6033.3	
366.91	5113.1	
367.12	4311	
367.32	6642.2	
367.53	5921.4	
367.73	4205.2	
367.94	5276.9	
368.14	5817.6	
368.35	6795.2	
368.56	4231.1	
368.76	3599.6	
368.97	5924.8	
369.17	7661.5	
369.38	3672	
369.58	3997	
369.79	4964.3	
369.99	6282.5	
370.2	4990.2	
370.4	4082.3	
370.61	5588.9	
370.82	6822.5	
371.02	3991.5	
371.23	3291.1	
371.43	4876.2	
371.64	6151.4	
371.84	4038.6	
372.05	5307	
372.25	7520.8	
372.46	5939.1	
372.66	3968.3	
372.87	3978.5	
373.07	5939.1	
373.28	7624.6	
373.48	5071.5	
373.69	4773.8	
373.9	5423.7	
374.1	5496.1	
374.31	4940.4	
374.51	4521.9	
374.72	6305	
374.92	5075.5	
375.13	5134.9	
375.33	4310.3	
375.54	5876.3	
375.74	5231.2	
375.95	4343.1	
376.15	5683.1	
376.36	5833.3	
376.56	5699.5	
376.77	4493.2	
376.97	4838	
377.18	6959.7	
377.38	5982.1	
377.59	5276.9	
377.79	3913	
378	5764.3	
378.2	6208.8	
378.41	4003.8	
378.61	3910.3	
378.82	6219.7	
379.02	5264	
379.23	4182.6	
379.43	5294.7	
379.64	6253.1	
379.84	5885.9	
380.05	3930.7	
380.25	3879.5	
380.46	5978	
380.66	5527.5	
380.87	5336.3	
381.07	5722	
381.28	6647	
381.48	6039.5	
381.69	3962.1	
381.89	4039.3	
382.1	4916.5	
382.3	6142.5	
382.51	5130.8	
382.71	6122.7	
382.91	5982.1	
383.12	6589.7	
383.32	4358.8	
383.53	4564.9	
383.73	5855.8	
383.94	5634	
384.14	4468.7	
384.35	3607.2	
384.55	5597.1	
384.76	6024.4	
384.96	4332.8	
385.17	4773.1	
385.37	5961.6	
385.58	5267.4	
385.78	4685.8	
385.98	3543	
386.19	5494.7	
386.39	5872.9	
386.6	4083.6	
386.8	4407.2	
387.01	6012.8	
387.21	6049.7	
387.42	4844.8	
387.62	5419.6	
387.83	5299.5	
388.03	5986.9	
388.23	4430.4	
388.44	5259.2	
388.64	5069.4	
388.85	5116.5	
389.05	4810.7	
389.26	5366.4	
389.46	7066.9	
389.67	6462	
389.87	4720.6	
390.07	4841.4	
390.28	5626.5	
390.48	5216.9	
390.69	4017.4	
390.89	4306.9	
391.1	5387.5	
391.3	6331	
391.5	5531.6	
391.71	6173.3	
391.91	6109.8	
392.12	7107.1	
392.32	5609.4	
392.53	4726	
392.73	5447.6	
392.93	5650.3	
393.14	4427.7	
393.34	5253	
393.55	6204	
393.75	5642.8	
393.95	4463.2	
394.16	4359.4	
394.36	5438	
394.57	6122.1	
394.77	3899.3	
394.98	4379.2	
395.18	5358.9	
395.38	5476.3	
395.59	5331.5	
395.79	4166.9	
396	5533.6	
396.2	5993	
396.4	5055.8	
396.61	4927.4	
396.81	6281.1	
397.02	5449.6	
397.22	5205.9	
397.42	5339.1	
397.63	6229.9	
397.83	5364.3	
398.04	4107.5	
398.24	4687.1	
398.44	5955.5	
398.65	4990.9	
398.85	3977.2	
399.05	4138.9	
399.26	5364.3	
399.46	7118.1	
399.67	4526.7	
399.87	4232.5	
400.07	5732.9	
400.28	6103.6	
400.48	4304.8	
400.69	5397.1	
400.89	6311.8	
401.09	6788.3	
401.3	4139.6	
401.5	5303.6	
401.7	7011.6	
401.91	7218.4	
402.11	4476.2	
402.32	4752	
402.52	6328.2	
402.72	6225.8	
402.93	4881.7	
403.13	3738.9	
403.33	7060.7	
403.54	5755.5	
403.74	4610	
403.94	5599.1	
404.15	5847	
404.35	7034.8	
404.56	4484.4	
404.76	6325.5	
404.96	6317.3	
405.17	6151.4	
405.37	5754.1	
405.57	4911.7	
405.78	6309.8	
405.98	5839.4	
406.18	4343.1	
406.39	5317.9	
406.59	6265.4	
406.79	5933.6	
407	4214.7	
407.2	4374.5	
407.4	6306.4	
407.61	6574	
407.81	4339.6	
408.01	6746	
408.22	5322.7	
408.42	7447.8	
408.62	5507.7	
408.83	5023	
409.03	5982.8	
409.23	5747.3	
409.44	5039.4	
409.64	5409.4	
409.84	6969.9	
410.05	6822.5	
410.25	5209.3	
410.45	4969.7	
410.66	6272.9	
410.86	8786.5	
411.06	5395	
411.27	5230.5	
411.47	8551.6	
411.67	6508.4	
411.88	5458.5	
412.08	5743.9	
412.28	7103	
412.49	7641.7	
412.69	5202.5	
412.89	5184.1	
413.09	7489.4	
413.3	7247.1	
413.5	5332.2	
413.7	4870.8	
413.91	6515.3	
414.11	7434.8	
414.31	5182.7	
414.52	5632.6	
414.72	7008.8	
414.92	6954.2	
415.12	5151.3	
415.33	5666.7	
415.53	7344.7	
415.73	7574.1	
415.94	6080.4	
416.14	5459.2	
416.34	6352.8	
416.55	6102.3	
416.75	6713.2	
416.95	6129.6	
417.15	7369.3	
417.36	8086.7	
417.56	6929	
417.76	5930.9	
417.97	7746.8	
418.17	7392.5	
418.37	5472.2	
418.57	5535.7	
418.78	7045	
418.98	6807.4	
419.18	6384.2	
419.38	6369.9	
419.59	6946	
419.79	6469.5	
419.99	5458.5	
420.2	5809.4	
420.4	7407.5	
420.6	7604.8	
420.8	5345.9	
421.01	5187.5	
421.21	7199.3	
421.41	7332.4	
421.61	5666.7	
421.82	5471.5	
422.02	6610.2	
422.22	7661.5	
422.42	6309.1	
422.63	5934.3	
422.83	6823.1	
423.03	7997.3	
423.23	5842.9	
423.44	4815.5	
423.64	6952.2	
423.84	6656.6	
424.04	5299.5	
424.25	4861.9	
424.45	7817.8	
424.65	7776.1	
424.85	4801.8	
425.06	5328.8	
425.26	7780.9	
425.46	6759.7	
425.66	5846.3	
425.87	5523.4	
426.07	7544	
426.27	7358.4	
426.47	5695.4	
426.67	5024.3	
426.88	7920.2	
427.08	7239.6	
427.28	5956.9	
427.48	4916.5	
427.69	6203.3	
427.89	6888.7	
428.09	5874.3	
428.29	5009.3	
428.5	7559.1	
428.7	7035.5	
428.9	4919.2	
429.1	5595.7	
429.3	6993.1	
429.51	7432.1	
429.71	5283.8	
429.91	6156.9	
430.11	7280.5	
430.31	7529	
430.52	5509	
430.72	5863.3	
430.92	7894.9	
431.12	7382.2	
431.32	5174.5	
431.53	5637.4	
431.73	6285.2	
431.93	7993.2	
432.13	5175.2	
432.33	5061.9	
432.54	6735.8	
432.74	7115.3	
432.94	4941.7	
433.14	6087.9	
433.34	7304.4	
433.55	6775.4	
433.75	5920	
433.95	7806.9	
434.15	7087.3	
434.35	6759	
434.56	5206.6	
434.76	4638.6	
434.96	7107.8	
435.16	7376.8	
435.36	5111.7	
435.56	6233.3	
435.77	6707.1	
435.97	6915.3	
436.17	6952.9	
436.37	6113.2	
436.57	6715.3	
436.78	6615.6	
436.98	6054.5	
437.18	6626.5	
437.38	7343.3	
437.58	6827.9	
437.78	6860	
437.99	5393.7	
438.19	7348.8	
438.39	8324.3	
438.59	5351.3	
438.79	4926	
438.99	8105.9	
439.2	6926.9	
439.4	5142.4	
439.6	5086.5	
439.8	7292.8	
440	8375.5	
440.2	6098.9	
440.4	6249.7	
440.61	7660.1	
440.81	8228.1	
441.01	5210	
441.21	6059.3	
441.41	8028.7	
441.61	7599.3	
441.81	6475	
442.02	7382.9	
442.22	8546.2	
442.42	7754.3	
442.62	5356.1	
442.82	5404.6	
443.02	7982.3	
443.22	7115.3	
443.43	5814.2	
443.63	5374.6	
443.83	6926.2	
444.03	7079.1	
444.23	6645.7	
444.43	6250.4	
444.63	7212.3	
444.83	8449.9	
445.04	5388.2	
445.24	6662	
445.44	7585.7	
445.64	7665.5	
445.84	6214.9	
446.04	6133.7	
446.24	6900.3	
446.44	8039.6	
446.65	5500.2	
446.85	5784.1	
447.05	7057.3	
447.25	8017.8	
447.45	5915.2	
447.65	5215.5	
447.85	7314.7	
448.05	6962.4	
448.25	6380.8	
448.46	6086.6	
448.66	7266.9	
448.86	6951.5	
449.06	5143.8	
449.26	6393.1	
449.46	7735.2	
449.66	6714.6	
449.86	5872.9	
450.06	5795.8	
450.26	6795.2	
450.47	7433.4	
450.67	6004.6	
450.87	6438.8	
451.07	7563.1	
451.27	7315.3	
451.47	5357.5	
451.67	5956.2	
451.87	6998.6	
452.07	8159.1	
452.27	5562.3	
452.47	5565	
452.67	7297.6	
452.88	7952.3	
453.08	4912.4	
453.28	6955.6	
453.48	8460.8	
453.68	7210.2	
453.88	5457.8	
454.08	5809.4	
454.28	7684.7	
454.48	7326.3	
454.68	6300.9	
454.88	6796.5	
455.08	7836.9	
455.28	7596.6	
455.48	5393	
455.68	6058.6	
455.89	8319.5	
456.09	7959.8	
456.29	5779.4	
456.49	5771.9	
456.69	8150.9	
456.89	7443.7	
457.09	6315.9	
457.29	6706.4	
457.49	7813	
457.69	7940	
457.89	6235.4	
458.09	5585.5	
458.29	7502.4	
458.49	8266.3	
458.69	6585.6	
458.89	5988.9	
459.09	8428.8	
459.29	8516.1	
459.49	6059.9	
459.69	6922.1	
459.9	7977.5	
460.1	7475.8	
460.3	6006	
460.5	5747.3	
460.7	7962.5	
460.9	7673.7	
461.1	5413.5	
461.3	6732.4	
461.5	8555	
461.7	8140	
461.9	5866.7	
462.1	6316.6	
462.3	7713.3	
462.5	8311.3	
462.7	5885.9	
462.9	5984.2	
463.1	9383.8	
463.3	9089.6	
463.5	6169.8	
463.7	7225.2	
463.9	7897.7	
464.1	8397.4	
464.3	6276.3	
464.5	6536.4	
464.7	8614.4	
464.9	8241.7	
465.1	8011	
465.3	6903.7	
465.5	8944.2	
465.7	8774.2	
465.9	7215.7	
466.1	7074.4	
466.3	8744.1	
466.5	8578.3	
466.7	7903.8	
466.9	6825.2	
467.1	8436.9	
467.3	9501.9	
467.5	7914	
467.7	6702.3	
467.9	9708.7	
468.1	10621	
468.3	7626	
468.5	7954.3	
468.7	8443.8	
468.9	8415.1	
469.1	6993.1	
469.3	7664.9	
469.5	10391	
469.7	7973.4	
469.9	7403.4	
470.1	6719.4	
470.3	8371.4	
470.5	8436.9	
470.7	7964.6	
470.9	6824.5	
471.1	8187.1	
471.3	8658.1	
471.5	6553.5	
471.69	8480.6	
471.89	8013.7	
472.09	7535.2	
472.29	7420.5	
472.49	7872.4	
472.69	7807.5	
472.89	8644.5	
473.09	6449.7	
473.29	6678.4	
473.49	8017.8	
473.69	8184.4	
473.89	7660.1	
474.09	6801.3	
474.29	9430.9	
474.49	9161.2	
474.69	7645.8	
474.89	6920.1	
475.09	8194.6	
475.29	8064.9	
475.49	6324.8	
475.69	6548	
475.88	9782.5	
476.08	8388.5	
476.28	6221.7	
476.48	6749.4	
476.68	8957.1	
476.88	8690.2	
477.08	6541.2	
477.28	6915.3	
477.48	8271.7	
477.68	9028.1	
477.88	6419	
478.08	6823.8	
478.28	9260.2	
478.48	8398	
478.67	6793.1	
478.87	6156.9	
479.07	8903.9	
479.27	8374.1	
479.47	6945.3	
479.67	6852.5	
479.87	8781.7	
480.07	9271.8	
480.27	6279.1	
480.47	7937.2	
480.67	8487.5	
480.87	9151.7	
481.06	6469.5	
481.26	7345.4	
481.46	8329.8	
481.66	8320.9	
481.86	7009.5	
482.06	8061.5	
482.26	8015.7	
482.46	9053.4	
482.66	6890.7	
482.86	6500.9	
483.05	8491.6	
483.25	7856	
483.45	9445.2	
483.65	6904.4	
483.85	8094.9	
484.05	8325.7	
484.25	7400	
484.45	7838.9	
484.65	9254.1	
484.84	9256.8	
485.04	6814.3	
485.24	6862.1	
485.44	9443.9	
485.64	7772	
485.84	6092.7	
486.04	7587	
486.24	8311.3	
486.44	8574.8	
486.63	6079.7	
486.83	6968.6	
487.03	8137.3	
487.23	8381.7	
487.43	6231.3	
487.63	8701.8	
487.83	8341.4	
488.02	9569.5	
488.22	7230	
488.42	7850.5	
488.62	9302.6	
488.82	8192.6	
489.02	6811.5	
489.22	6870.3	
489.41	9144.2	
489.61	8716.8	
489.81	6549.4	
490.01	6673.6	
490.21	9020.6	
490.41	9725.1	
490.61	6509.8	
490.8	6701.6	
491	8404.2	
491.2	7869	
491.4	7301	
491.6	6429.3	
491.8	8471.1	
491.99	8638.3	
492.19	6267.5	
492.39	6706.4	
492.59	9073.2	
492.79	9205.6	
492.99	7582.3	
493.18	6639.5	
493.38	9218.6	
493.58	9952.4	
493.78	7445.7	
493.98	7060	
494.18	8887.5	
494.37	8423.3	
494.57	7639.6	
494.77	7577.5	
494.97	9076.6	
495.17	9393.3	
495.37	7104.4	
495.56	7422.5	
495.76	9636.4	
495.96	9252.7	
496.16	8385.7	
496.36	7212.9	
496.55	9430.2	
496.75	9014.5	
496.95	7591.8	
497.15	7443.7	
497.35	9342.8	
497.54	9334.6	
497.74	7274.4	
497.94	9062.9	
498.14	10039	
498.34	9960.6	
498.53	6941.2	
498.73	7805.5	
498.93	8766	
499.13	9412.5	
499.33	7607.5	
499.52	8245.8	
499.72	9382.4	
499.92	9779.1	
500.12	7222.5	
500.32	7578.8	
500.51	9574.9	
500.71	9325.8	
500.91	8378.2	
501.11	7903.8	
501.31	9674.6	
501.5	9897.8	
501.7	8516.8	
501.9	7497.6	
502.1	9369.5	
502.29	9549.7	
502.49	8023.9	
502.69	8365.3	
502.89	9523.1	
503.09	9368.1	
503.28	6984.3	
503.48	7091.4	
503.68	8690.9	
503.88	8751.7	
504.07	8108.6	
504.27	7567.9	
504.47	9108	
504.67	9303.2	
504.86	8019.8	
505.06	7654.6	
505.26	8749.6	
505.46	10636	
505.65	7539.9	
505.85	7753.6	
506.05	8545.5	
506.25	9135.3	
506.44	6891.4	
506.64	7849.9	
506.84	8543.4	
507.04	9503.9	
507.23	7083.9	
507.43	7641	
507.63	10497	
507.83	8776.2	
508.02	7587.7	
508.22	7120.8	
508.42	10738	
508.62	8444.5	
508.81	7417.1	
509.01	8009.6	
509.21	8443.1	
509.4	8692.9	
509.6	7780.9	
509.8	7042.3	
510	8647.2	
510.19	10066	
510.39	6945.3	
510.59	7040.9	
510.79	8350.3	
510.98	9943.6	
511.18	7081.2	
511.38	7256.6	
511.57	9256.8	
511.77	9025.4	
511.97	7852.6	
512.17	6808.1	
512.36	9325.8	
512.56	9258.9	
512.76	6916	
512.95	6715.3	
513.15	9431.6	
513.35	8001.4	
513.55	7928.4	
513.74	7051.2	
513.94	9384.5	
514.14	8744.8	
514.33	8063.5	
514.53	7703.8	
514.73	8789.2	
514.92	8940.7	
515.12	7159.7	
515.32	7066.9	
515.51	9043.1	
515.71	9637.1	
515.91	8816.5	
516.11	7139.9	
516.3	10884	
516.5	8580.3	
516.7	7701	
516.89	8382.3	
517.09	8786.5	
517.29	8646.5	
517.48	8155.7	
517.68	7410.2	
517.88	8546.9	
518.07	9101.9	
518.27	7970	
518.47	6972.7	
518.66	9709.4	
518.86	8260.1	
519.06	6820.4	
519.25	7318.8	
519.45	8738	
519.65	10170	
519.84	7898.3	
520.04	8536.6	
520.24	10495	
520.43	9215.9	
520.63	7629.4	
520.83	7342	
521.02	8479.3	
521.22	9161.2	
521.42	7890.8	
521.61	8402.8	
521.81	8729.8	
522.01	8979.7	
522.2	7785.7	
522.4	7578.2	
522.6	9394	
522.79	8185.7	
522.99	7636.9	
523.18	6934.4	
523.38	9254.8	
523.58	9161.9	
523.77	8980.3	
523.97	6967.2	
524.17	11075	
524.36	10277	
524.56	8288.1	
524.76	7945.4	
524.95	9227.5	
525.15	8765.3	
525.34	7732.4	
525.54	7681.2	
525.74	9532.6	
525.93	8549.6	
526.13	8907.3	
526.33	7621.2	
526.52	9867.1	
526.72	9314.2	
526.91	8972.2	
527.11	8157.1	
527.31	10021	
527.5	10396	
527.7	8121.6	
527.89	7131	
528.09	8819.9	
528.29	9443.2	
528.48	8582.4	
528.68	8178.2	
528.87	9761.3	
529.07	9800.9	
529.27	7980.9	
529.46	7459.4	
529.66	9341.5	
529.85	9725.8	
530.05	7250.5	
530.25	8072.4	
530.44	10738	
530.64	9434.3	
530.83	7775.5	
531.03	8001.4	
531.23	9814.5	
531.42	9651.4	
531.62	8840.4	
531.81	8023.3	
532.01	9891.7	
532.21	10390	
532.4	7793.2	
532.6	8144.8	
532.79	10861	
532.99	9898.5	
533.18	8074.5	
533.38	9254.1	
533.58	9445.2	
533.77	10314	
533.97	8129.8	
534.16	8936.7	
534.36	10447	
534.55	9527.8	
534.75	8989.9	
534.95	8066.9	
535.14	10264	
535.34	9514.9	
535.53	7725.6	
535.73	9807	
535.92	10907	
536.12	9693.7	
536.31	7888.8	
536.51	9164.7	
536.71	10008	
536.9	9542.9	
537.1	8127	
537.29	8224	
537.49	10457	
537.68	9478.7	
537.88	8606.9	
538.07	7772.7	
538.27	9738.8	
538.46	10893	
538.66	7734.5	
538.86	8176.9	
539.05	9833	
539.25	10439	
539.44	8353	
539.64	8073.8	
539.83	9535.3	
540.03	10568	
540.22	7892.9	
540.42	7975.5	
540.61	9792.7	
540.81	10006	
541	8521.6	
541.2	9146.2	
541.39	9384.5	
541.59	9705.3	
541.78	8677.9	
541.98	7871	
542.18	8986.5	
542.37	8958.5	
542.57	8207.6	
542.76	8721.6	
542.96	8977.6	
543.15	9728.5	
543.35	8244.4	
543.54	7481.2	
543.74	10086	
543.93	9473.2	
544.13	8146.8	
544.32	9170.8	
544.52	9840.5	
544.71	9052	
544.91	7137.2	
545.1	8576.2	
545.3	9070.5	
545.49	9851.4	
545.69	7174	
545.88	7734.5	
546.08	10755	
546.27	10353	
546.47	8327	
546.66	7592.5	
546.86	10064	
547.05	10600	
547.24	7834.2	
547.44	7703.8	
547.63	8892.3	
547.83	9997.5	
548.02	8077.2	
548.22	8209.6	
548.41	8787.2	
548.61	10166	
548.8	7580.9	
549	7586.4	
549.19	9428.8	
549.39	9752.4	
549.58	7190.4	
549.78	7849.2	
549.97	9716.2	
550.17	9402.2	
550.36	8818.6	
550.55	9742.2	
550.75	9309.4	
550.94	10314	
551.14	7522.2	
551.33	7976.8	
551.53	8681.3	
551.72	9565.4	
551.92	8037.6	
552.11	7709.2	
552.31	9724.4	
552.5	9706	
552.69	9477.3	
552.89	7303.7	
553.08	9702.6	
553.28	9405.6	
553.47	7700.4	
553.67	8936.7	
553.86	10357	
554.06	8584.4	
554.25	6934.4	
554.44	7486.7	
554.64	11062	
554.83	10675	
555.03	7466.2	
555.22	7815	
555.42	9880.1	
555.61	9590	
555.8	7714.7	
556	8011.7	
556.19	8665.6	
556.39	10008	
556.58	7749.5	
556.78	7768.6	
556.97	9405	
557.16	9029.5	
557.36	9028.1	
557.55	7410.2	
557.75	8391.2	
557.94	10240	
558.13	7467.6	
558.33	7213.6	
558.52	9960.6	
558.72	8903.2	
558.91	7270.3	
559.1	7588.4	
559.3	8557.1	
559.49	8332.5	
559.69	6864.8	
559.88	7870.3	
560.07	9394.7	
560.27	9815.2	
560.46	8072.4	
560.66	8221.9	
560.85	9229.5	
561.04	8243.8	
561.24	7249.8	
561.43	7453.2	
561.63	8626	
561.82	8933.9	
562.01	8783.7	
562.21	7776.8	
562.4	9282.1	
562.59	10374	
562.79	7742	
562.98	7277.8	
563.18	9215.9	
563.37	10812	
563.56	8019.2	
563.76	7096.9	
563.95	8658.8	
564.14	8607.6	
564.34	7591.8	
564.53	7314.7	
564.73	9194.7	
564.92	9590.6	
565.11	7747.5	
565.31	7125.6	
565.5	9843.9	
565.69	8670.4	
565.89	7279.2	
566.08	7666.9	
566.27	9645.3	
566.47	10088	
566.66	8192.6	
566.85	6907.8	
567.05	9210.4	
567.24	8641.7	
567.44	7150.8	
567.63	8670.4	
567.82	9454.1	
568.02	9187.9	
568.21	7241.6	
568.4	7600	
568.6	9099.8	
568.79	9028.8	
568.98	6989.7	
569.18	7183.6	
569.37	9029.5	
569.56	10969	
569.76	7501	
569.95	8411	
570.14	9239.1	
570.34	9267.1	
570.53	6936.5	
570.72	6936.5	
570.91	9759.9	
571.11	8752.3	
571.3	7376.1	
571.49	8276.5	
571.69	8789.9	
571.88	8424.7	
572.07	7965.2	
572.27	8009.6	
572.46	8525	
572.65	9502.6	
572.85	7187.7	
573.04	7500.3	
573.23	9739.5	
573.43	9030.2	
573.62	6973.3	
573.81	7517.4	
574	8928.5	
574.2	8862.9	
574.39	7290.8	
574.58	7423.9	
574.78	9854.8	
574.97	9099.1	
575.16	7789.1	
575.36	7967.3	
575.55	9410.4	
575.74	9559.9	
575.93	6845.7	
576.13	7977.5	
576.32	8809	
576.51	9503.3	
576.71	7357	
576.9	8670.4	
577.09	9753.8	
577.28	9312.1	
577.48	7838.3	
577.67	6817.7	
577.86	8892.3	
578.05	9185.1	
578.25	7376.1	
578.44	7605.5	
578.63	9042.5	
578.83	10260	
579.02	6873.7	
579.21	8460.8	
579.4	9313.5	
579.6	8895.7	
579.79	7701.7	
579.98	9919	
580.17	9495.1	
580.37	9682.1	
580.56	7106.5	
580.75	7971.4	
580.94	10162	
581.14	10006	
581.33	8479.3	
581.52	7330.4	
581.71	9570.8	
581.91	10206	
582.1	7001.3	
582.29	7675.8	
582.48	9176.9	
582.68	9090.3	
582.87	8136.6	
583.06	7716.1	
583.25	9422.7	
583.45	8871.8	
583.64	8434.2	
583.83	9244.5	
584.02	8996	
584.21	9521.7	
584.41	8451.3	
584.6	7689.4	
584.79	9125.1	
584.98	9912.9	
585.18	7157.7	
585.37	7167.2	
585.56	8712.1	
585.75	9497.1	
585.94	7451.9	
586.14	8062.2	
586.33	10136	
586.52	9046.6	
586.71	7963.9	
586.91	7563.1	
587.1	8424	
587.29	9514.9	
587.48	7491.5	
587.67	7306.5	
587.87	9334	
588.06	9400.9	
588.25	8596	
588.44	7839.6	
588.63	8862.2	
588.83	9416.6	
589.02	7248.4	
589.21	7006.1	
589.4	8445.1	
589.59	8221.9	
589.78	6144.6	
589.98	6473.6	
590.17	7851.2	
590.36	8514.8	
590.55	5809.4	
590.74	6648.4	
590.94	9846.6	
591.13	8476.5	
591.32	6453.1	
591.51	6051.7	
591.7	8889.5	
591.89	8370	
592.09	6126.2	
592.28	6697.5	
592.47	7525.6	
592.66	9529.2	
592.85	6184.2	
593.05	6391	
593.24	8288.8	
593.43	9017.9	
593.62	6438.8	
593.81	7019.8	
594	8200.7	
594.19	8534.6	
594.39	6486.6	
594.58	6382.2	
594.77	8576.9	
594.96	9070.5	
595.15	6274.3	
595.34	6981.5	
595.54	8528.4	
595.73	7777.5	
595.92	5745.9	
596.11	6936.5	
596.3	9097.8	
596.49	7832.1	
596.68	6628.6	
596.88	7121.5	
597.07	8927.1	
597.26	7726.3	
597.45	6237.4	
597.64	7470.3	
597.83	7917.4	
598.02	8654	
598.22	6403.3	
598.41	7008.8	
598.6	8458.1	
598.79	7806.2	
598.98	6483.9	
599.17	7399.3	
599.36	8439.7	
599.55	9711.5	
599.74	8484.1	
599.94	8237.6	
600.13	9129.8	
600.32	7829.4	
600.51	6257.2	
600.7	6305	
600.89	9740.1	
601.08	9859.6	
601.27	6115.2	
601.47	7260	
601.66	8994	
601.85	9738.1	
602.04	6860	
602.23	7167.2	
602.42	8151.6	
602.61	8798.1	
602.8	6776.7	
602.99	6599.9	
603.18	8607.6	
603.37	8801.5	
603.57	7380.2	
603.76	7927.7	
603.95	9580.4	
604.14	9123.7	
604.33	6749.4	
604.52	7053.9	
604.71	8674.5	
604.9	8353	
605.09	7720.8	
605.28	7452.6	
605.47	9306	
605.66	9036.3	
605.86	7393.2	
606.05	6764.4	
606.24	9331.9	
606.43	7847.8	
606.62	7116	
606.81	7890.8	
607	9207.7	
607.19	8432.2	
607.38	6472.9	
607.57	6726.9	
607.76	8292.9	
607.95	7723.6	
608.14	7181.5	
608.33	7751.6	
608.52	8263.6	
608.72	9172.9	
608.91	6437.4	
609.1	6284.5	
609.29	8379.6	
609.48	7817.8	
609.67	7343.3	
609.86	6453.8	
610.05	7929.7	
610.24	8337.3	
610.43	6214.2	
610.62	5913.9	
610.81	9466.4	
611	9142.1	
611.19	6389	
611.38	7104.4	
611.57	8642.4	
611.76	10001	
611.95	6181.5	
612.14	6041.5	
612.33	8439.7	
612.52	7954.3	
612.71	6675.7	
612.9	5848.3	
613.09	7543.4	
613.28	9897.8	
613.47	6489.3	
613.66	7383.6	
613.85	8553	
614.04	8076.5	
614.24	6582.9	
614.43	5771.9	
614.62	8730.5	
614.81	8599.4	
615	7227.3	
615.19	7051.8	
615.38	7864.9	
615.57	8342.1	
615.76	6877.1	
615.95	7946.1	
616.14	8654	
616.33	8325.7	
616.52	7256.6	
616.71	7614.3	
616.9	8670.4	
617.09	8527.1	
617.28	6631.3	
617.47	7912.7	
617.66	7754.3	
617.85	7862.8	
618.04	7615	
618.22	7015.7	
618.41	8090.2	
618.6	9039.7	
618.79	6888	
618.98	6508.4	
619.17	9301.2	
619.36	7634.1	
619.55	6758.3	
619.74	6772.6	
619.93	8592.6	
620.12	7985	
620.31	7382.2	
620.5	7581.6	
620.69	9161.2	
620.88	9557.9	
621.07	8195.3	
621.26	7212.3	
621.45	8727.8	
621.64	8873.8	
621.83	7372.7	
622.02	6472.3	
622.21	8827.4	
622.4	8611	
622.59	7882.6	
622.78	7573.4	
622.97	8084.7	
623.16	9133.9	
623.35	7230.7	
623.54	6348.7	
623.72	8316.8	
623.91	8464.3	
624.1	7503.1	
624.29	6137.1	
624.48	9547.6	
624.67	8806.3	
624.86	7385.7	
625.05	6374.6	
625.24	9725.1	
625.43	7916.8	
625.62	8970.8	
625.81	6569.9	
626	9059.5	
626.19	8281.3	
626.38	7350.8	
626.56	6712.6	
626.75	7994.6	
626.94	8787.8	
627.13	7187.7	
627.32	5940.5	
627.51	8637.6	
627.7	10116	
627.89	6128.2	
628.08	7258.7	
628.27	7828.7	
628.46	8099.7	
628.65	6462	
628.83	6076.3	
629.02	8742.8	
629.21	8016.4	
629.4	6877.8	
629.59	7073	
629.78	7879.2	
629.97	8884.8	
630.16	7155.6	
630.35	6574	
630.54	9369.5	
630.72	9085.5	
630.91	6537.8	
631.1	7175.4	
631.29	8523.6	
631.48	8714.8	
631.67	7303.1	
631.86	6679.8	
632.05	8049.2	
632.24	8160.5	
632.42	6420.4	
632.61	6955.6	
632.8	8306.6	
632.99	7876.5	
633.18	6988.4	
633.37	7471	
633.56	8544.1	
633.75	8373.5	
633.93	6941.2	
634.12	6709.1	
634.31	9383.1	
634.5	8991.9	
634.69	6758.3	
634.88	7273.7	
635.07	8331.1	
635.25	8955.1	
635.44	7649.2	
635.63	7909.3	
635.82	8101.8	
636.01	7677.2	
636.2	7601.4	
636.39	7129.7	
636.57	9309.4	
636.76	9018.6	
636.95	6565.8	
637.14	8034.2	
637.33	8634.2	
637.52	9592.7	
637.7	6326.9	
637.89	7291.5	
638.08	8175.5	
638.27	9702.6	
638.46	7379.5	
638.65	7869	
638.83	9723.8	
639.02	7973.4	
639.21	7301.7	
639.4	7823.2	
639.59	8570.7	
639.78	8077.2	
639.96	6518	
640.15	6608.1	
640.34	8385.7	
640.53	8524.3	
640.72	6348	
640.91	6667.5	
641.09	7796.6	
641.28	9286.9	
641.47	6612.9	
641.66	7458.7	
641.85	8469.7	
642.03	8772.8	
642.22	7296.9	
642.41	6686.6	
642.6	7900.4	
642.79	7288.7	
642.97	6414.2	
643.16	7240.9	
643.35	7834.8	
643.54	7702.4	
643.73	6402	
643.91	7115.3	
644.1	7474.4	
644.29	8084.7	
644.48	6378.7	
644.67	6429.3	
644.85	7647.1	
645.04	7925.6	
645.23	5884.5	
645.42	6171.9	
645.6	7342.7	
645.79	8654.7	
645.98	6199.2	
646.17	5266.7	
646.36	7169.9	
646.54	7783.6	
646.73	6983.6	
646.92	5722	
647.11	7386.3	
647.29	8495.7	
647.48	5848.3	
647.67	5567.7	
647.86	8756.4	
648.05	8727.1	
648.23	6217.6	
648.42	7619.8	
648.61	8133.8	
648.8	7751.6	
648.98	5888.6	
649.17	6183.5	
649.36	7393.2	
649.55	6933.7	
649.73	5961	
649.92	6652.5	
650.11	7294.2	
650.3	7623.9	
650.48	6095.4	
650.67	5850.4	
650.86	7957.7	
651.05	6837.5	
651.23	6143.2	
651.42	6029.9	
651.61	7350.2	
651.79	7526.3	
651.98	6232.7	
652.17	5862.7	
652.36	7843	
652.54	6949.4	
652.73	5838.1	
652.92	5710.4	
653.11	7834.2	
653.29	7852.6	
653.48	5182.7	
653.67	6221	
653.85	7690.8	
654.04	8647.9	
654.23	6378.7	
654.42	5917.3	
654.6	7209.5	
654.79	7778.2	
654.98	5390.3	
655.16	5972.6	
655.35	6858	
655.54	6746.7	
655.73	5508.4	
655.91	5547.3	
656.1	8052.6	
656.29	6752.8	
656.47	5025	
656.66	6831.3	
656.85	7072.3	
657.03	7098.9	
657.22	5665.4	
657.41	5674.2	
657.59	7150.8	
657.78	6913.9	
657.97	5261.9	
658.16	6115.2	
658.34	7860.8	
658.53	8219.2	
658.72	6965.8	
658.9	7576.1	
659.09	7309.9	
659.28	7343.3	
659.46	5836.7	
659.65	5826.5	
659.84	7086.7	
660.02	7626	
660.21	5624.4	
660.4	5610.1	
660.58	8116.1	
660.77	7431.4	
660.96	6253.1	
661.14	5303.6	
661.33	8647.2	
661.52	8469	
661.7	5201.2	
661.89	9100.5	
662.08	7019.8	
662.26	6595.1	
662.45	5511.1	
662.64	5651.7	
662.82	7746.1	
663.01	6941.9	
663.2	5646.9	
663.38	6479.1	
663.57	7692.9	
663.75	7554.3	
663.94	6004.6	
664.13	7336.5	
664.31	7010.9	
664.5	7726.3	
664.69	6389	
664.87	6858.6	
665.06	6778.8	
665.25	7537.9	
665.43	7030	
665.62	7131	
665.8	7860.8	
665.99	7118.7	
666.18	5930.2	
666.36	6117.3	
666.55	7805.5	
666.74	7701	
666.92	5618.9	
667.11	7314.7	
667.29	7169.3	
667.48	7730.4	
667.67	6855.9	
667.85	5959.6	
668.04	7287.4	
668.22	7186.3	
668.41	6037.4	
668.6	6298.2	
668.78	6954.9	
668.97	7195.9	
669.15	6419	
669.34	5333.6	
669.53	6987.7	
669.71	7362.4	
669.9	5583.4	
670.08	6227.2	
670.27	6924.9	
670.46	7538.6	
670.64	6445.6	
670.83	6744.6	
671.01	6885.3	
671.2	7531.1	
671.38	5631.2	
671.57	5500.8	
671.76	8168.7	
671.94	8810.4	
672.13	5477	
672.31	6625.9	
672.5	7733.1	
672.69	7052.5	
672.87	5591.6	
673.06	5947.3	
673.24	7569.3	
673.43	7067.5	
673.61	6403.3	
673.8	5935	
673.98	7734.5	
674.17	7884	
674.36	6496.8	
674.54	6300.9	
674.73	7436.9	
674.91	7707.9	
675.1	6068.8	
675.28	5673.6	
675.47	7256	
675.65	7852.6	
675.84	5935.7	
676.03	6242.9	
676.21	7051.2	
676.4	6515.3	
676.58	6696.2	
676.77	6500.3	
676.95	8514.8	
677.14	6969.9	
677.32	5625.8	
677.51	5312.4	
677.69	7769.3	
677.88	6633.4	
678.06	5470.1	
678.25	5601.9	
678.44	7163.8	
678.62	7001.3	
678.81	5282.4	
678.99	6363.7	
679.18	8062.2	
679.36	7631.4	
679.55	5808	
679.73	6512.5	
679.92	7584.3	
680.1	6943.3	
680.29	7134.4	
680.47	5883.1	
680.66	6892.1	
680.84	7780.2	
681.03	5111.7	
681.21	6316.6	
681.4	6945.3	
681.58	6907.8	
681.77	5621	
681.95	5550.7	
682.14	7831.4	
682.32	8114.7	
682.51	6471.6	
682.69	5283.1	
682.88	6850.5	
683.06	7578.2	
683.25	6177.4	
683.43	6616.3	
683.62	7137.9	
683.8	7509.2	
683.99	6675.7	
684.17	5936.4	
684.36	8320.9	
684.54	6935.1	
684.73	4996.4	
684.91	5244.8	
685.1	7251.9	
685.28	6639.5	
685.46	5847.6	
685.65	5933	
685.83	7537.2	
686.02	6877.8	
686.2	5350	
686.39	5433.3	
686.57	6382.8	
686.76	8113.4	
686.94	5354.1	
687.13	5522.7	
687.31	7347.4	
687.5	6793.8	
687.68	4967	
687.86	6291.4	
688.05	8624	
688.23	6359.6	
688.42	6344.6	
688.6	5353.4	
688.79	6876.4	
688.97	6704.4	
689.16	5831.9	
689.34	4703.5	
689.52	7524.9	
689.71	7634.8	
689.89	6131.6	
690.08	5345.9	
690.26	6950.8	
690.45	6777.4	
690.63	6298.2	
690.81	5483.8	
691	6711.9	
691.18	6546.7	
691.37	5580.7	
691.55	7800.7	
691.74	6543.3	
691.92	8641.7	
692.1	5625.8	
692.29	5046.9	
692.47	6842.3	
692.66	6011.5	
692.84	5258.5	
693.02	5959.6	
693.21	6230.6	
693.39	6789	
693.58	5943.9	
693.76	5413.5	
693.94	8051.2	
694.13	7816.4	
694.31	5459.2	
694.5	6444.3	
694.68	6685.3	
694.86	7027.3	
695.05	5741.1	
695.23	5933.6	
695.42	7313.3	
695.6	9748.3	
695.78	6408.1	
695.97	5431.9	
696.15	7339.2	
696.34	6751.5	
696.52	5175.9	
696.7	5971.2	
696.89	7046.4	
697.07	6497.5	
697.25	5894.7	
697.44	7551.5	
697.62	7021.8	
697.81	7348.8	
697.99	5543.2	
698.17	6111.1	
698.36	6354.2	
698.54	7065.5	
698.72	5882.4	
698.91	4927.4	
699.09	6569.2	
699.28	6519.4	
699.46	5515.2	
699.64	5560.9	
699.83	6472.9	
700.01	7800	
700.19	6312.5	
700.38	4803.9	
700.56	7762.5	
700.74	6580.1	
700.93	5160.9	
701.11	5984.8	
701.29	7158.3	
701.48	8232.2	
701.66	5400.5	
701.84	5366.4	
702.03	6709.8	
702.21	7352.2	
702.39	5016.2	
702.58	5556.8	
702.76	7164.5	
702.94	7321.5	
703.13	4924.7	
703.31	7533.8	
703.49	6363	
703.68	7383.6	
703.86	5098.1	
704.04	6208.8	
704.23	6886	
704.41	7370	
704.59	5274.9	
704.78	6560.3	
704.96	8064.2	
705.14	7440.3	
705.33	5145.9	
705.51	5984.8	
705.69	6834.8	
705.87	7636.2	
706.06	6209.4	
706.24	5038	
706.42	7117.4	
706.61	7440.3	
706.79	6324.8	
706.97	5075.5	
707.16	6606.1	
707.34	7193.1	
707.52	6283.2	
707.7	5367	
707.89	6774	
708.07	6477.7	
708.25	6223.8	
708.44	6387.6	
708.62	6673.6	
708.8	7856	
708.98	6502.3	
709.17	5479	
709.35	7112.6	
709.53	7093.5	
709.72	5135.6	
709.9	5310.4	
710.08	7294.2	
710.26	7321.5	
710.45	6853.2	
710.63	5482.4	
710.81	7019.8	
710.99	7099.6	
711.18	6185.5	
711.36	5586.9	
711.54	6770.6	
711.72	7620.5	
711.91	5657.9	
712.09	5035.3	
712.27	6987	
712.45	8146.8	
712.64	5904.3	
712.82	4771.1	
713	6335.7	
713.18	6546.7	
713.37	4878.3	
713.55	6337.1	
713.73	7272.3	
713.91	5831.9	
714.1	5269.4	
714.28	4668	
714.46	6970.6	
714.64	6232.7	
714.83	4134.8	
715.01	5070.8	
715.19	6225.8	
715.37	5638.1	
715.55	4705.5	
715.74	5016.2	
715.92	7193.8	
716.1	5197.1	
716.28	6271.6	
716.47	5203.9	
716.65	5872.9	
716.83	5924.1	
717.01	5107	
717.19	5204.6	
717.38	8227.4	
717.56	5712.5	
717.74	5404.6	
717.92	4447.5	
718.1	6991.1	
718.29	6185.5	
718.47	4154	
718.65	4781.3	
718.83	6904.4	
719.01	6742.6	
719.2	3999.7	
719.38	5137	
719.56	6495.5	
719.74	8069.7	
719.92	4618.9	
720.11	5747.3	
720.29	6479.8	
720.47	5571.2	
720.65	4199.7	
720.83	5109.7	
721.02	5969.1	
721.2	5696.8	
721.38	5081.7	
721.56	4375.8	
721.74	5199.8	
721.92	5486.5	
722.11	5625.1	
722.29	5367.7	
722.47	6752.2	
722.65	5884.5	
722.83	4387.4	
723.01	5345.2	
723.2	5963	
723.38	6257.9	
723.56	3782.6	
723.74	5033.2	
723.92	5391.6	
724.1	6599.2	
724.29	4306.9	
724.47	5545.2	
724.65	5558.9	
724.83	5440.1	
725.01	4246.1	
725.19	5265.3	
725.37	5496.7	
725.56	5560.2	
725.74	4149.2	
725.92	4361.5	
726.1	5454.4	
726.28	5758.2	
726.46	4879.6	
726.64	4613.4	
726.83	5739.1	
727.01	6045.6	
727.19	4087.1	
727.37	4986.8	
727.55	5845.6	
727.73	6478.4	
727.91	4046.1	
728.09	3962.1	
728.28	6462.7	
728.46	7040.9	
728.64	5146.5	
728.82	5118.6	
729	7642.3	
729.18	6828.6	
729.36	4311	
729.54	6705.7	
729.72	7865.6	
729.91	6151.4	
730.09	6298.9	
730.27	4985.4	
730.45	6007.4	
730.63	6673.6	
730.81	5696.1	
730.99	4604.5	
731.17	7253.2	
731.35	5788.9	
731.53	5143.8	
731.71	4783.4	
731.9	6931.7	
732.08	7163.1	
732.26	5046.9	
732.44	4651.6	
732.62	7186.3	
732.8	6660	
732.98	5501.5	
733.16	4469.4	
733.34	6608.8	
733.52	5406	
733.7	5005.9	
733.88	5448.3	
734.07	6551.5	
734.25	6305	
734.43	4485.1	
734.61	6206.7	
734.79	7861.5	
734.97	6152.1	
735.15	4738.3	
735.33	5050.3	
735.51	6631.3	
735.69	6195.8	
735.87	6285.2	
736.05	5294	
736.23	6485.9	
736.41	6184.9	
736.59	5095.3	
736.77	5179.3	
736.95	6881.9	
737.13	6281.8	
737.32	4844.1	
737.5	5001.1	
737.68	7510.6	
737.86	6229.9	
738.04	4592.2	
738.22	6520	
738.4	6025.1	
738.58	6363	
738.76	5326.1	
738.94	4205.8	
739.12	6179.4	
739.3	6100.2	
739.48	5975.3	
739.66	5689.9	
739.84	6461.3	
740.02	6498.2	
740.2	4302.1	
740.38	4783.4	
740.56	6926.2	
740.74	5664	
740.92	5425.1	
741.1	5346.6	
741.28	6287.9	
741.46	6108.4	
741.64	4988.2	
741.82	5479	
742	6346.7	
742.18	6344.6	
742.36	5196.4	
742.54	4732.2	
742.72	6961	
742.9	5685.8	
743.08	5622.4	
743.26	4378.6	
743.44	7236.2	
743.62	7032.7	
743.8	5750	
743.98	4788.8	
744.16	6739.9	
744.34	6411.5	
744.52	5705	
744.7	5644.2	
744.88	6865.5	
745.06	6349.4	
745.24	5776	
745.42	5843.5	
745.6	6959	
745.78	6673.6	
745.96	4571.7	
746.14	4802.5	
746.32	7783	
746.5	6984.9	
746.68	5466.7	
746.86	4898.7	
747.03	7474.4	
747.21	5664	
747.39	5493.3	
747.57	4879.6	
747.75	6590.4	
747.93	6993.1	
748.11	4923.3	
748.29	4768.4	
748.47	8203.5	
748.65	6275.7	
748.83	5699.5	
749.01	5287.2	
749.19	6829.3	
749.37	5957.5	
749.55	5225.7	
749.73	5397.8	
749.91	6425.2	
750.09	6148.7	
750.26	5428.5	
750.44	4753.3	
750.62	6459.3	
750.8	6378.7	
750.98	4545.1	
751.16	4944.5	
751.34	6591.7	
751.52	5862.7	
751.7	5742.5	
751.88	4642.1	
752.06	7098.9	
752.24	6920.8	
752.42	4547.9	
752.59	4886.5	
752.77	6445	
752.95	7745.4	
753.13	5682.4	
753.31	5081.7	
753.49	6182.8	
753.67	6651.8	
753.85	5397.8	
754.03	4999.1	
754.21	6929.6	
754.38	7266.9	
754.56	5085.1	
754.74	4071.4	
754.92	6092	
755.1	6752.8	
755.28	4121.2	
755.46	4061.8	
755.64	7425.9	
755.82	7561.8	
755.99	4290.5	
756.17	4374.5	
756.35	4894.6	
756.53	6669.6	
756.71	3212.6	
756.89	4197.7	
757.07	6179.4	
757.25	5197.1	
757.42	4760.2	
757.6	5741.8	
757.78	6302.3	
757.96	5270.8	
758.14	4448.2	
758.32	3965.6	
758.5	4698.7	
758.67	5572.5	
758.85	4271.4	
759.03	4384	
759.21	5800.5	
759.39	5190.9	
759.57	3807.9	
759.75	5055.1	
759.92	6384.9	
760.1	5658.5	
760.28	5435.3	
760.46	5800.5	
760.64	5516.5	
760.82	5271.5	
760.99	5080.3	
761.17	4478.2	
761.35	6346.7	
761.53	5268.7	
761.71	4573.1	
761.89	5336.3	
762.06	6315.3	
762.24	5710.4	
762.42	4722.6	
762.6	4476.2	
762.78	5806.7	
762.96	6490	
763.13	5141.1	
763.31	4822.3	
763.49	6812.9	
763.67	5801.2	
763.85	5794.4	
764.02	6331.6	
764.2	6984.3	
764.38	6169.2	
764.56	4790.2	
764.74	5703.6	
764.91	7106.5	
765.09	6002.6	
765.27	4448.2	
765.45	4220.2	
765.63	7220.5	
765.8	7053.9	
765.98	3997	
766.16	4410	
766.34	5598.5	
766.52	5365.7	
766.69	5336.3	
766.87	4214	
767.05	6011.5	
767.23	6769.2	
767.41	4463.9	
767.58	4790.9	
767.76	6581.5	
767.94	6690	
768.12	4589.5	
768.29	5449.6	
768.47	6089.3	
768.65	6871.6	
768.83	4212	
769	5493.3	
769.18	5587.5	
769.36	6337.8	
769.54	5160.9	
769.72	4259.1	
769.89	6636.8	
770.07	6825.2	
770.25	4573.8	
770.43	5909.1	
770.6	7504.4	
770.78	7967.3	
770.96	4810.7	
771.14	5493.3	
771.31	6550.8	
771.49	5866.7	
771.67	3936.9	
771.85	4259.8	
772.02	5101.5	
772.2	5887.9	
772.38	4913.1	
772.55	4392.2	
772.73	6183.5	
772.91	5935	
773.09	4867.3	
773.26	4908.3	
773.44	6039.5	
773.62	5845.6	
773.8	4311	
773.97	4010.6	
774.15	6191.7	
774.33	5771.2	
774.5	4209.9	
774.68	4562.9	
774.86	6335.7	
775.04	5760.9	
775.21	4262.5	
775.39	4223.6	
775.57	6053.1	
775.74	6527.6	
775.92	4115.1	
776.1	4007.9	
776.27	6032	
776.45	7287.4	
776.63	4262.5	
776.81	3781.9	
776.98	5709.1	
777.16	6898.2	
777.34	4403.1	
777.51	4703.5	
777.69	5675.6	
777.87	5464.7	
778.04	4428.4	
778.22	5144.5	
778.4	5395.7	
778.57	6057.9	
778.75	3676.8	
778.93	3982.6	
779.1	5217.5	
779.28	5072.1	
779.46	3637.2	
779.64	4212.7	
779.81	6321.4	
779.99	7200	
780.17	5047.6	
780.34	5182	
780.52	5657.9	
780.69	5897.5	
780.87	4429.1	
781.05	4038.6	
781.22	5715.2	
781.4	5826.5	
781.58	4199.7	
781.75	3319.8	
781.93	5649	
782.11	5182.7	
782.28	5053.7	
782.46	4169.7	
782.64	4984.8	
782.81	6025.1	
782.99	4227	
783.17	4215.4	
783.34	5820.3	
783.52	5040.7	
783.69	4483.7	
783.87	5233.2	
784.05	5137	
784.22	5093.3	
784.4	5298.1	
784.58	4551.3	
784.75	6148	
784.93	5174.5	
785.1	4227.7	
785.28	4804.5	
785.46	5819.6	
785.63	5154.1	
785.81	4085.7	
785.99	3988.8	
786.16	5295.4	
786.34	5749.3	
786.51	4005.8	
786.69	4484.4	
786.87	4889.9	
787.04	5423.7	
787.22	3878.2	
787.39	4848.2	
787.57	5110.4	
787.75	6260	
787.92	5033.2	
788.1	5037.3	
788.27	5151.3	
788.45	4954.7	
788.63	4730.1	
788.8	3365.5	
788.98	5664	
789.15	4851.6	
789.33	3485	
789.5	4196.3	
789.68	6102.3	
789.86	6247.7	
790.03	4635.9	
790.21	3994.2	
790.38	6095.4	
790.56	5242.8	
790.73	3929.4	
790.91	3929.4	
791.09	5128.8	
791.26	5978.7	
791.44	4093.9	
791.61	3581.2	
791.79	5117.9	
791.96	5202.5	
792.14	3751.9	
792.32	3267.9	
792.49	5167	
792.67	5238.7	
792.84	3797.6	
793.02	3583.3	
793.19	5567.1	
793.37	6422.4	
793.54	3237.8	
793.72	3660.4	
793.89	6440.9	
794.07	5086.5	
794.25	4291.2	
794.42	3326.6	
794.6	6184.9	
794.77	5829.9	
794.95	4648.2	
795.12	3999	
795.3	5064.6	
795.47	5758.9	
795.65	4369	
795.82	4214.7	
796	4881.7	
796.17	6969.2	
796.35	4005.1	
796.52	4749.2	
796.7	5739.1	
796.87	5720	
797.05	4973.2	
797.22	4896.7	
797.4	5763	
797.57	6735.1	
797.75	4204.5	
797.92	3948.5	
798.1	6118	
798.27	5114.5	
798.45	3355.3	
798.62	3621.5	
798.8	5410.7	
798.97	5963.7	
799.15	4384	
799.32	4169.7	
799.5	4635.2	
799.67	5500.2	
799.85	4533.5	
800.02	3326.6	
800.2	5111	
800.37	5401.9	
800.55	4704.9	
800.72	3923.2	
800.9	5883.1	
801.07	6399.9	
801.25	5324.7	
801.42	4301.4	
801.6	5959.6	
801.77	5672.2	
801.95	3829.7	
802.12	3799.7	
802.29	5630.5	
802.47	5682.4	
802.64	4283	
802.82	3228.3	
802.99	5001.1	
803.17	6135	
803.34	4237.2	
803.52	3768.3	
803.69	6842.3	
803.87	4849.6	
804.04	4184.7	
804.21	4194.9	
804.39	6255.2	
804.56	5309.7	
804.74	3541.6	
804.91	4310.3	
805.09	5098.8	
805.26	5142.4	
805.44	3607.2	
805.61	3986	
805.78	5754.1	
805.96	5884.5	
806.13	4317.8	
806.31	4698	
806.48	4631.8	
806.66	5208	
806.83	4332.8	
807	4261.1	
807.18	5033.9	
807.35	5503.6	
807.53	4214.7	
807.7	3336.8	
807.87	6325.5	
808.05	5125.4	
808.22	4576.5	
808.4	3310.2	
808.57	5130.8	
808.74	4827.1	
808.92	3828.3	
809.09	4936.3	
809.27	5017.5	
809.44	5636	
809.61	3349.8	
809.79	3760.8	
809.96	6266.8	
810.14	5971.9	
810.31	3267.9	
810.48	4024.9	
810.66	5228.5	
810.83	6032	
811.01	3842.7	
811.18	4607.9	
811.35	5961	
811.53	4539.7	
811.7	4674.8	
811.87	4348.5	
812.05	5144.5	
812.22	5059.2	
812.39	3710.9	
812.57	3588.7	
812.74	5188.2	
812.92	6921.5	
813.09	4013.3	
813.26	4384.7	
813.44	6571.9	
813.61	5087.2	
813.78	3401.7	
813.96	4552	
814.13	5144.5	
814.3	4828.4	
814.48	4871.4	
814.65	4070	
814.82	6756.9	
815	4957.4	
815.17	4149.2	
815.34	5095.3	
815.52	5088.5	
815.69	5067.4	
815.87	4164.2	
816.04	3537.5	
816.21	5166.3	
816.38	4493.9	
816.56	4041.3	
816.73	3667.2	
816.9	6470.9	
817.08	5929.6	
817.25	3786	
817.42	4693.9	
817.6	4700.8	
817.77	5170.4	
817.94	4246.8	
818.12	3656.3	
818.29	4914.4	
818.46	7679.2	
818.64	3892.5	
818.81	3619.4	
818.98	4751.3	
819.16	7072.3	
819.33	4453	
819.5	4136.9	
819.67	5500.8	
819.85	6188.3	
820.02	4092.5	
820.19	4365.6	
820.37	5386.8	
820.54	4939	
820.71	4239.3	
820.88	5276.3	
821.06	5394.3	
821.23	4896.7	
821.4	4235.9	
821.58	4162.8	
821.75	5945.3	
821.92	5279	
822.09	3379.1	
822.27	3474	
822.44	5197.7	
822.61	5065.3	
822.79	3396.2	
822.96	6587.6	
823.13	5659.2	
823.3	4855.7	
823.48	3984.7	
823.65	3575.1	
823.82	5828.5	
823.99	4671.4	
824.17	5040.7	
824.34	3597.6	
824.51	6832	
824.68	5172.5	
824.86	3763.5	
825.03	4233.2	
825.2	5132.9	
825.37	6334.4	
825.55	3706.8	
825.72	4190.1	
825.89	6827.9	
826.06	6409.5	
826.24	4044.7	
826.41	4160.1	
826.58	6317.3	
826.75	5428.5	
826.92	3206.4	
827.1	3521.8	
827.27	8588.5	
827.44	6870.9	
827.61	3842	
827.79	4698.7	
827.96	4838.7	
828.13	5276.9	
828.3	4020.2	
828.47	3355.3	
828.65	5406	
828.82	5341.8	
828.99	5162.9	
829.16	4562.9	
829.34	5823.7	
829.51	5546.6	
829.68	4175.8	
829.85	4386.7	
830.02	6056.5	
830.2	5806.7	
830.37	3198.2	
830.54	5066.7	
830.71	6679.1	
830.88	5098.1	
831.05	3224.2	
831.23	3756.7	
831.4	6321.4	
831.57	7128.3	
831.74	3897.3	
831.91	3427.6	
832.09	5374.6	
832.26	5762.3	
832.43	4005.8	
832.6	4457.7	
832.77	5406	
832.94	6149.4	
833.12	3186.6	
833.29	3932.1	
833.46	5016.8	
833.63	7366.5	
833.8	4401.8	
833.97	4040.6	
834.15	5805.3	
834.32	5502.9	
834.49	4160.8	
834.66	4244.8	
834.83	5976.7	
835	4858.5	
835.17	3848.8	
835.35	3929.4	
835.52	5740.5	
835.69	5573.9	
835.86	4105.5	
836.03	3308.2	
836.2	5717.9	
836.37	5317.9	
836.55	4029.7	
836.72	3790.8	
836.89	5310.4	
837.06	5816.2	
837.23	4070	
837.4	4488.5	
837.57	6627.9	
837.75	7344	
837.92	3685.7	
838.09	3911.6	
838.26	5266.7	
838.43	6158.9	
838.6	4259.1	
838.77	3738.2	
838.94	6932.4	
839.11	6594.5	
839.29	3997.6	
839.46	3169.6	
839.63	5745.9	
839.8	5479.7	
839.97	3870.7	
840.14	3852.2	
840.31	5564.3	
840.48	5745.2	
840.65	3235.8	
840.82	3852.2	
841	5717.9	
841.17	5771.2	
841.34	3596.9	
841.51	3594.2	
841.68	5685.2	
841.85	5492.7	
842.02	3707.5	
842.19	3067.9	
842.36	5530.2	
842.53	5502.9	
842.7	3547.1	
842.87	4434.5	
843.05	7285.3	
843.22	5403.9	
843.39	3416	
843.56	3663.1	
843.73	5244.2	
843.9	5830.6	
844.07	5793.7	
844.24	4857.8	
844.41	8585.8	
844.58	5031.2	
844.75	3431.7	
844.92	3788.7	
845.09	5765.7	
845.26	5728.9	
845.43	3616.7	
845.6	3746.4	
845.77	5768.4	
845.94	5479	
846.12	3914.4	
846.29	4100	
846.46	5972.6	
846.63	5765.7	
846.8	3586	
846.97	4240	
847.14	6272.9	
847.31	5709.1	
847.48	4038.6	
847.65	4453	
847.82	6069.5	
847.99	6050.4	
848.16	4807.9	
848.33	4405.2	
848.5	5344.5	
848.67	6249.7	
848.84	3536.8	
849.01	3693.2	
849.18	5142.4	
849.35	4819.6	
849.52	4484.4	
849.69	3496.6	
849.86	5974.6	
850.03	6184.2	
850.2	3596.2	
850.37	4362.9	
850.54	6105.7	
850.71	5355.4	
850.88	4233.8	
851.05	3560.1	
851.22	5586.9	
851.39	6333.7	
851.56	3353.2	
851.73	4113.7	
851.9	5001.1	
852.07	5956.2	
852.24	3943.7	
852.41	3481.5	
852.58	5535.7	
852.75	5125.4	
852.92	3974.4	
853.09	3513.6	
853.26	5352.7	
853.43	6237.4	
853.6	3510.9	
853.77	3056.3	
853.94	6253.1	
854.11	5031.2	
854.28	5330.2	
854.44	3842.7	
854.61	6822.5	
854.78	5853.8	
854.95	3579.2	
855.12	4463.2	
855.29	4625.7	
855.46	6406.7	
855.63	3536.8	
855.8	4972.5	
855.97	5276.3	
856.14	6071.5	
856.31	4967.7	
856.48	3860.4	
856.65	5278.3	
856.82	5029.1	
856.99	3407.8	
857.16	3777.1	
857.33	7020.4	
857.49	5438.7	
857.66	3882.3	
857.83	4129.4	
858	5393.7	
858.17	5552.7	
858.34	3366.2	
858.51	3589.4	
858.68	6556.9	
858.85	6553.5	
859.02	4132.1	
859.19	4321.2	
859.36	5011.4	
859.52	5124	
859.69	3583.3	
859.86	4177.9	
860.03	5048.2	
860.2	6361.7	
860.37	3234.4	
860.54	3556.6	
860.71	5952.1	
860.88	6388.3	
861.05	4102.1	
861.21	4502.8	
861.38	6436.1	
861.55	4868	
861.72	3293.1	
861.89	3994.2	
862.06	5998.5	
862.23	6557.6	
862.4	3483.6	
862.56	3738.9	
862.73	5831.2	
862.9	5532.2	
863.07	4192.9	
863.24	3220.1	
863.41	4955.4	
863.58	5122	
863.75	3676.8	
863.91	4100.7	
864.08	6406	
864.25	5958.9	
864.42	4566.3	
864.59	4980.7	
864.76	6704.4	
864.93	5046.9	
865.09	3467.9	
865.26	3815.4	
865.43	6240.8	
865.6	6654.5	
865.77	3107.5	
865.94	3505.4	
866.1	6331.6	
866.27	6069.5	
866.44	5347.9	
866.61	3331.4	
866.78	5446.2	
866.95	5905.7	
867.11	3457.7	
867.28	3151.8	
867.45	6093.4	
867.62	5113.8	
867.79	4128.7	
867.96	3495.9	
868.12	5038.7	
868.29	6073.6	
868.46	3000.3	
868.63	4767.7	
868.8	6211.5	
868.97	5941.2	
869.13	3793.5	
869.3	3648.1	
869.47	5867.4	
869.64	6018.3	
869.81	3598.3	
869.97	3564.1	
870.14	5739.1	
870.31	6447.7	
870.48	3448.8	
870.65	4493.2	
870.81	5367.7	
870.98	5269.4	
871.15	4064.5	
871.32	3669.3	
871.48	5814.9	
871.65	6438.8	
871.82	3500.7	
871.99	3961.5	
872.16	6944	
872.32	6305.7	
872.49	3567.6	
872.66	3598.3	
872.83	5966.4	
872.99	5259.9	
873.16	4068.6	
873.33	3519.8	
873.5	5587.5	
873.67	5646.9	
873.83	3778.5	
874	4801.1	
874.17	5701.5	
874.34	6786.3	
874.5	4539	
874.67	4392.9	
874.84	6386.2	
875.01	5046.9	
875.17	5044.1	
875.34	3525.9	
875.51	5728.2	
875.68	6784.2	
875.84	4312.3	
876.01	5291.3	
876.18	5967.1	
876.34	5879	
876.51	3573.7	
876.68	3502	
876.85	5404.6	
877.01	6224.5	
877.18	5079.6	
877.35	3551.2	
877.52	5482.4	
877.68	4935.6	
877.85	3475.4	
878.02	3502.7	
878.18	5569.8	
878.35	5236	
878.52	2859.6	
878.69	3981.9	
878.85	5949.3	
879.02	5879	
879.19	5036.6	
879.35	3842.7	
879.52	5944.6	
879.69	6161.7	
879.86	3022.8	
880.02	4026.3	
880.19	5514.5	
880.36	6690.7	
880.52	4031.8	
880.69	4227	
880.86	6046.3	
881.02	6163.7	
881.19	3893.2	
881.36	3920.5	
881.52	5922.7	
881.69	5240.1	
881.86	3867.2	
882.02	3752.6	
882.19	6280.4	
882.36	7268.2	
882.52	3660.4	
882.69	5017.5	
882.86	5698.1	
883.02	5583.4	
883.19	4351.9	
883.36	4079.6	
883.52	6041.5	
883.69	6923.5	
883.86	3652.9	
884.02	3175.7	
884.19	6012.2	
884.36	5542.5	
884.52	4051.6	
884.69	3743.7	
884.86	5227.8	
885.02	6672.3	
885.19	3983.3	
885.36	4100	
885.52	5518.6	
885.69	5711.8	
885.86	5156.8	
886.02	4558.1	
886.19	6006.7	
886.35	5352	
886.52	3943.7	
886.69	4949.3	
886.85	5097.4	
887.02	6279.8	
887.19	6279.8	
887.35	6279.8	
887.52	6279.8	
887.68	6279.8	
887.85	6279.8	
888.02	6279.8	
888.18	6279.8	
888.35	6279.8	
888.51	6279.8	
888.68	6279.8	
888.85	6279.8	
889.01	6279.8	
889.18	6279.8	
889.35	6279.8	
889.51	6279.8	
889.68	6279.8	
889.84	6279.8	
890.01	6279.8	
890.17	6279.8	
890.34	6279.8	
890.51	6279.8	
890.67	6279.8	
890.84	6279.8	
891	6279.8	
891.17	6279.8	
891.34	6279.8	
891.5	6279.8	
891.67	6279.8	
891.83	6279.8	
892	6279.8	
892.16	6279.8	
892.33	6279.8	
892.5	6279.8	
892.66	6279.8	
892.83	6279.8	
892.99	6279.8	
893.16	6279.8	
893.32	6279.8	
893.49	6279.8	
893.65	6279.8	
893.82	6279.8	
893.99	6279.8	
894.15	6279.8	
894.32	6279.8	
894.48	6279.8	
894.65	6279.8	
894.81	6279.8	
894.98	6279.8	
895.14	6279.8	
895.31	6279.8	
895.47	6279.8	
895.64	6279.8	
895.81	6279.8	
895.97	6279.8	
896.14	6279.8	
896.3	6279.8	
896.47	6279.8	
896.63	6279.8	
896.8	6279.8	
896.96	6279.8	
897.13	6279.8	
897.29	6279.8	
897.46	6279.8	
897.62	6279.8	
897.79	6279.8	
897.95	6279.8	
898.12	6279.8	
898.28	6279.8	
898.45	6279.8	
898.61	6279.8	
898.78	6279.8	
898.94	6279.8	
899.11	6279.8	
899.27	6279.8	
899.44	6279.8	
899.6	6279.8	
899.77	6279.8	
899.93	6279.8	
900.1	6279.8	
900.26	6279.8	
900.43	6279.8	
900.59	6279.8	
900.76	6279.8	
900.92	6279.8	
901.09	6279.8	
901.25	6279.8	
901.42	6279.8	
901.58	6279.8	
901.75	6279.8	
901.91	6279.8	
902.07	6279.8	
902.24	6279.8	
902.4	6279.8	
902.57	6279.8	
902.73	6279.8	
902.9	6279.8	
903.06	6279.8	
903.23	6279.8	
903.39	6279.8	
903.56	6279.8	
903.72	6279.8	
903.88	6279.8	
904.05	6279.8	
904.21	6279.8	
904.38	6279.8	
904.54	6279.8	
904.71	6279.8	
904.87	6279.8	
905.03	6279.8	
905.2	6279.8	
905.36	6279.8	
905.53	6279.8	
905.69	6279.8	
905.86	6279.8	
906.02	6279.8	
906.18	6279.8	
906.35	6279.8	
906.51	6279.8	
906.68	6279.8	
906.84	6279.8	
907.01	6279.8	
907.17	6279.8	
907.33	6279.8	
907.5	6279.8	
907.66	6279.8	
907.83	6279.8	
907.99	6279.8	
908.15	6279.8	
908.32	6279.8	
908.48	6279.8	
908.65	6279.8	
908.81	6279.8	
908.97	6279.8	
909.14	6279.8	
909.3	6279.8	
909.47	6279.8	
909.63	6279.8	
909.79	6279.8	
909.96	6279.8	
910.12	6279.8	
910.28	6279.8	
910.45	6279.8	
910.61	6279.8	
910.78	6279.8	
910.94	6279.8	
911.1	6279.8	
911.27	6279.8	
911.43	6279.8	
911.59	6279.8	
911.76	6279.8	
911.92	6279.8	
912.08	6279.8	
912.25	6279.8	
912.41	6279.8	
912.57	6279.8	
912.74	6279.8	
912.9	6279.8	
913.07	6279.8	
913.23	6279.8	
913.39	6279.8	
913.56	6279.8	
913.72	6279.8	
913.88	6279.8	
914.05	6279.8	
914.21	6279.8	
914.37	6279.8	
914.54	6279.8	
914.7	6279.8	
914.86	6279.8	
915.03	6279.8	
915.19	6279.8	
