Wavelength	Intensities	
nm	a.u.	
179.22	1917.1	
179.44	1913.8	
179.65	1920.3	
179.86	1907.3	
180.08	1952.4	
180.29	5062.6	
180.51	3595.6	
180.72	5687.2	
180.94	6713.9	
181.15	3313.6	
181.37	3193.5	
181.58	5558.9	
181.79	5928.2	
182.01	3371.6	
182.22	3712.3	
182.44	5799.8	
182.65	4825	
182.87	4629.8	
183.08	4111	
183.29	6149.4	
183.51	5085.8	
183.72	3717.1	
183.94	5491.3	
184.15	5478.3	
184.37	5444.9	
184.58	3342.3	
184.79	4515.8	
185.01	5098.1	
185.22	5803.3	
185.44	4846.2	
185.65	4056.3	
185.86	5319.3	
186.08	4980.7	
186.29	3132	
186.51	3433.1	
186.72	5081	
186.94	6012.8	
187.15	3984.7	
187.36	4095.3	
187.58	7912	
187.79	5599.1	
188.01	4279.6	
188.22	6766.5	
188.43	6738.5	
188.65	5840.8	
188.86	3398.9	
189.08	4083	
189.29	5294.7	
189.5	5255.8	
189.72	3742.3	
189.93	3889.1	
190.15	6035.4	
190.36	7249.8	
190.57	4236.6	
190.79	4033.8	
191	6155.5	
191.22	6159.6	
191.43	4149.9	
191.64	3417.4	
191.86	6300.9	
192.07	6033.3	
192.29	3604.4	
192.5	3830.4	
192.71	6090	
192.93	5200.5	
193.14	3702.7	
193.35	3826.3	
193.57	5257.1	
193.78	5984.2	
194	3072	
194.21	3749.1	
194.42	4997	
194.64	5524.7	
194.85	4121.2	
195.07	4786.8	
195.28	5516.5	
195.49	4734.9	
195.71	5063.9	
195.92	3530.7	
196.13	5713.2	
196.35	5847.6	
196.56	5468.8	
196.78	4062.5	
196.99	7124.2	
197.2	6742.6	
197.42	4767.7	
197.63	4151.2	
197.84	4887.1	
198.06	5713.8	
198.27	3825.6	
198.48	5107.6	
198.7	5203.9	
198.91	5385.5	
199.13	4091.2	
199.34	4083.6	
199.55	5926.1	
199.77	4726.7	
199.98	3638.6	
200.19	4179.2	
200.41	5399.1	
200.62	5088.5	
200.83	4332.8	
201.05	4660.5	
201.26	5393	
201.47	5112.4	
201.69	3670.6	
201.9	3489.7	
202.11	5462.6	
202.33	6574.7	
202.54	3933.5	
202.76	4401.1	
202.97	5594.4	
203.18	5618.9	
203.4	4287.8	
203.61	4220.9	
203.82	5535	
204.04	5164.3	
204.25	4159.4	
204.46	4063.2	
204.68	5489.9	
204.89	5795.1	
205.1	4019.5	
205.32	3444.7	
205.53	5924.1	
205.74	6101.6	
205.96	2920.4	
206.17	4244.8	
206.38	5822.4	
206.6	5995.8	
206.81	4736.3	
207.02	3900	
207.24	5774.6	
207.45	6163	
207.66	3944.4	
207.88	3385.3	
208.09	5720	
208.3	5528.8	
208.52	3550.5	
208.73	3990.8	
208.94	5428.5	
209.15	6221	
209.37	3941	
209.58	4160.8	
209.79	6045.6	
210.01	5292	
210.22	3141.6	
210.43	3351.8	
210.65	5492.7	
210.86	5984.2	
211.07	3915.7	
211.29	3609.2	
211.5	5821	
211.71	5438	
211.93	3620.8	
212.14	3579.2	
212.35	5397.8	
212.56	5659.2	
212.78	4235.2	
212.99	3436.5	
213.2	6492.1	
213.42	5259.2	
213.63	3706.1	
213.84	4020.8	
214.06	4819.6	
214.27	4974.5	
214.48	3921.2	
214.69	4246.8	
214.91	6165.1	
215.12	6318.7	
215.33	4265.9	
215.55	4776.5	
215.76	6793.8	
215.97	5936.4	
216.18	4101.4	
216.4	3924.6	
216.61	5182	
216.82	5937.7	
217.04	3624.2	
217.25	3781.9	
217.46	6236.7	
217.67	5913.9	
217.89	3245.3	
218.1	3322.5	
218.31	5562.3	
218.53	5625.8	
218.74	3851.5	
218.95	3663.1	
219.16	5467.4	
219.38	6463.4	
219.59	3744.4	
219.8	4440	
220.01	7141.9	
220.23	5506.3	
220.44	4928.8	
220.65	3639.9	
220.87	5482.4	
221.08	6110.5	
221.29	3354.6	
221.5	4541	
221.72	7526.3	
221.93	5196.4	
222.14	4255	
222.35	4881	
222.57	5485.8	
222.78	5846.3	
222.99	4033.8	
223.2	4334.9	
223.42	5841.5	
223.63	5982.1	
223.84	3016	
224.05	2989.4	
224.27	7034.8	
224.48	6483.9	
224.69	4863.2	
224.9	4141	
225.12	5729.5	
225.33	5463.3	
225.54	3261.7	
225.75	3677.5	
225.97	5023	
226.18	5337.7	
226.39	3987.4	
226.6	3692.5	
226.82	5290.6	
227.03	5071.5	
227.24	4169.7	
227.45	3459.7	
227.67	5883.1	
227.88	6419.7	
228.09	4631.8	
228.3	4655	
228.52	5965.7	
228.73	5412.8	
228.94	3880.2	
229.15	3426.3	
229.36	5374.6	
229.58	5345.2	
229.79	3905.5	
230	4548.5	
230.21	6552.1	
230.43	5602.6	
230.64	4116.4	
230.85	4286.4	
231.06	5857.9	
231.28	5902.9	
231.49	3395.5	
231.7	4029	
231.91	5801.9	
232.12	5516.5	
232.34	3501.3	
232.55	4067.3	
232.76	6113.9	
232.97	5671.5	
233.18	3632.4	
233.4	4083	
233.61	5723.4	
233.82	5253	
234.03	3824.2	
234.25	3747.8	
234.46	7641.7	
234.67	5503.6	
234.88	4215.4	
235.09	3665.2	
235.31	5812.8	
235.52	5354.1	
235.73	4070.7	
235.94	3480.9	
236.15	5209.3	
236.37	6679.8	
236.58	3613.3	
236.79	3973.7	
237	5804.6	
237.21	5003.9	
237.43	4224.3	
237.64	3392.1	
237.85	10073	
238.06	4987.5	
238.27	4334.2	
238.48	3453.6	
238.7	5829.9	
238.91	5339.7	
239.12	3948.5	
239.33	4037.2	
239.54	5047.6	
239.76	5370.5	
239.97	3915.7	
240.18	3972.4	
240.39	6901	
240.6	5739.8	
240.82	4128	
241.03	3340.2	
241.24	5519.3	
241.45	6455.2	
241.66	3607.8	
241.87	4308.2	
242.09	6270.2	
242.3	6658.6	
242.51	4334.9	
242.72	3973.7	
242.93	6016.2	
243.14	5423	
243.36	4666	
243.57	5052.3	
243.78	6416.3	
243.99	5848.3	
244.2	4044.1	
244.41	3631.7	
244.63	5051.7	
244.84	5874.9	
245.05	4226.3	
245.26	3979.2	
245.47	5767.1	
245.68	6092	
245.9	5328.1	
246.11	4164.2	
246.32	5355.4	
246.53	5744.6	
246.74	6406.7	
246.95	3287.7	
247.16	4936.3	
247.38	5471.5	
247.59	3269.2	
247.8	3987.4	
248.01	5227.1	
248.22	5513.1	
248.43	3603.7	
248.64	3919.8	
248.86	4863.9	
249.07	5262.6	
249.28	3471.3	
249.49	4113.7	
249.7	6078.4	
249.91	6266.1	
250.12	3299.3	
250.34	3349.8	
250.55	5569.1	
250.76	5481.7	
250.97	4058.4	
251.18	4199.7	
251.39	6253.8	
251.6	5737.7	
251.81	4188.1	
252.03	4173.8	
252.24	5330.2	
252.45	5985.5	
252.66	3435.1	
252.87	4462.5	
253.08	5494	
253.29	7283.9	
253.5	3466.5	
253.72	4824.3	
253.93	5293.3	
254.14	6518.7	
254.35	3770.3	
254.56	3923.9	
254.77	5709.7	
254.98	5151.3	
255.19	3738.9	
255.41	4840	
255.62	5606.7	
255.83	6146.6	
256.04	4295.3	
256.25	4163.5	
256.46	6822.5	
256.67	5201.8	
256.88	4121.9	
257.09	4629.8	
257.31	5122.7	
257.52	5102.9	
257.73	5147.2	
257.94	3786.7	
258.15	5388.2	
258.36	5507.7	
258.57	4798.4	
258.78	3007.8	
258.99	5965.1	
259.2	5333.6	
259.41	3836.5	
259.63	3903.4	
259.84	6307.7	
260.05	6822.5	
260.26	5091.3	
260.47	3686.3	
260.68	6075	
260.89	5453.1	
261.1	4586.8	
261.31	3596.9	
261.52	6068.8	
261.73	6470.2	
261.95	4889.9	
262.16	4343.7	
262.37	6272.2	
262.58	6256.5	
262.79	4909.7	
263	3910.3	
263.21	5457.8	
263.42	4986.8	
263.63	3919.8	
263.84	3852.2	
264.05	6107.7	
264.26	6479.1	
264.47	4751.3	
264.69	4250.9	
264.9	6263.4	
265.11	5760.9	
265.32	3732.1	
265.53	3813.3	
265.74	5619.6	
265.95	4902.2	
266.16	4081.6	
266.37	4494.6	
266.58	5593.7	
266.79	5343.2	
267	3769.6	
267.21	3474.7	
267.42	5061.9	
267.63	5515.2	
267.84	4009.2	
268.06	3412.6	
268.27	5922	
268.48	6244.9	
268.69	3826.3	
268.9	4597	
269.11	6223.8	
269.32	4971.8	
269.53	4055	
269.74	3652.9	
269.95	5837.4	
270.16	4838	
270.37	3944.4	
270.58	4618.9	
270.79	5354.8	
271	6085.2	
271.21	4328	
271.42	4052.2	
271.63	5606	
271.84	5107	
272.05	3182.5	
272.26	3611.3	
272.47	5537	
272.68	5750	
272.89	3824.2	
273.11	4367	
273.32	5307	
273.53	6513.2	
273.74	4349.2	
273.95	4283	
274.16	6143.2	
274.37	5612.8	
274.58	4341.7	
274.79	3463.1	
275	5612.1	
275.21	6257.9	
275.42	5175.2	
275.63	4509.6	
275.84	5732.9	
276.05	7251.2	
276.26	4225	
276.47	3941	
276.68	5378.6	
276.89	6483.9	
277.1	4458.4	
277.31	3517	
277.52	5788.2	
277.73	5941.8	
277.94	3424.2	
278.15	3816.7	
278.36	5752.1	
278.57	5122	
278.78	3803.8	
278.99	4315.1	
279.2	5105.6	
279.41	5061.2	
279.62	5063.3	
279.83	3504.1	
280.04	6741.9	
280.25	4980	
280.46	5040.1	
280.67	3999.7	
280.88	5079	
281.09	6234	
281.3	4210.6	
281.51	5360.9	
281.72	5171.8	
281.93	6025.1	
282.14	3741	
282.35	3966.9	
282.56	6012.8	
282.77	5933.6	
282.98	3846.8	
283.19	4757.4	
283.4	7371.3	
283.61	5441.5	
283.82	3423.5	
284.03	4902.8	
284.24	5613.5	
284.45	6219	
284.66	4913.1	
284.87	4784.1	
285.08	6038.8	
285.29	6186.9	
285.5	3428.3	
285.71	3949.8	
285.92	6189	
286.12	6853.9	
286.33	4941.7	
286.54	3825.6	
286.75	5991.7	
286.96	5323.4	
287.17	3564.1	
287.38	4810	
287.59	5080.3	
287.8	5051.7	
288.01	3938.9	
288.22	4450.2	
288.43	6088.6	
288.64	4991.6	
288.85	4635.2	
289.06	4416.8	
289.27	5981.4	
289.48	6483.9	
289.69	4919.2	
289.9	4487.8	
290.11	6171.9	
290.32	5164.3	
290.53	4693.9	
290.74	4257.7	
290.94	5961.6	
291.15	5980.1	
291.36	3720.5	
291.57	4493.9	
291.78	5239.4	
291.99	4883	
292.2	3544.4	
292.41	4338.3	
292.62	6079.7	
292.83	5863.3	
293.04	5324	
293.25	3620.8	
293.46	5333.6	
293.67	6077.7	
293.88	3723.2	
294.09	3617.4	
294.29	5057.1	
294.5	5668.8	
294.71	4018.1	
294.92	3788.7	
295.13	5314.5	
295.34	6604	
295.55	3349.1	
295.76	3466.5	
295.97	5949.3	
296.18	6753.5	
296.39	3520.5	
296.6	3791.5	
296.81	5629.2	
297.01	5941.2	
297.22	3918.4	
297.43	3690.4	
297.64	5117.2	
297.85	5134.9	
298.06	3106.8	
298.27	3350.5	
298.48	5586.2	
298.69	5180.7	
298.9	4052.2	
299.11	3646.7	
299.31	5032.5	
299.52	5025	
299.73	4339.6	
299.94	4265.2	
300.15	5517.2	
300.36	5139	
300.57	4237.9	
300.78	4240	
300.99	5394.3	
301.2	5634	
301.4	3728.7	
301.61	3987.4	
301.82	5828.5	
302.03	5948	
302.24	4548.5	
302.45	3549.1	
302.66	5844.9	
302.87	6249	
303.08	3765.5	
303.29	5113.1	
303.49	5257.1	
303.7	5528.2	
303.91	3324.5	
304.12	4872.1	
304.33	4985.4	
304.54	5656.5	
304.75	3765.5	
304.96	3538.2	
305.16	5793	
305.37	6621.1	
305.58	3236.5	
305.79	3396.2	
306	5840.8	
306.21	4952.7	
306.42	3650.8	
306.63	5873.6	
306.83	5410.7	
307.04	6219.7	
307.25	4114.4	
307.46	4115.7	
307.67	4737	
307.88	5983.5	
308.09	3717.7	
308.29	3826.3	
308.5	5616.9	
308.71	6138.4	
308.92	4006.5	
309.13	3615.3	
309.34	5348.6	
309.55	5466.7	
309.75	4641.4	
309.96	4304.8	
310.17	5940.5	
310.38	5164.3	
310.59	4473.4	
310.8	4252.9	
311.01	5317.9	
311.21	5378	
311.42	3519.8	
311.63	3672.7	
311.84	5270.1	
312.05	5631.2	
312.26	4198.3	
312.46	4539.7	
312.67	5326.8	
312.88	5061.2	
313.09	3587.4	
313.3	3517.7	
313.51	6322.1	
313.71	6705	
313.92	3594.2	
314.13	3792.2	
314.34	5733.6	
314.55	5417.6	
314.76	4675.5	
314.96	4085.7	
315.17	5575.3	
315.38	5973.2	
315.59	3637.2	
315.8	3394.2	
316.01	6455.9	
316.21	6453.1	
316.42	3468.6	
316.63	3975.8	
316.84	5354.1	
317.05	6310.5	
317.26	4306.2	
317.46	3808.5	
317.67	5454.4	
317.88	5960.3	
318.09	4575.8	
318.3	3373.7	
318.5	5189.6	
318.71	5852.4	
318.92	5839.4	
319.13	4232.5	
319.34	6061.3	
319.54	6178	
319.75	3348.4	
319.96	3179.1	
320.17	5896.1	
320.38	6025.8	
320.58	3253.5	
320.79	3985.3	
321	6097.5	
321.21	6157.6	
321.42	4002.4	
321.62	3311.6	
321.83	5102.9	
322.04	5560.2	
322.25	3800.3	
322.46	3581.9	
322.66	5575.9	
322.87	5782.1	
323.08	4496	
323.29	3533.4	
323.5	6607.4	
323.7	5035.3	
323.91	5002.5	
324.12	4457.7	
324.33	5520.6	
324.53	5912.5	
324.74	4248.2	
324.95	4506.2	
325.16	4881.7	
325.37	5349.3	
325.57	3655.6	
325.78	3663.1	
325.99	5546.6	
326.2	5031.9	
326.4	5128.8	
326.61	3343	
326.82	5433.3	
327.03	5672.9	
327.24	5126.1	
327.44	4887.8	
327.65	5791.7	
327.86	4642.7	
328.07	4244.8	
328.27	3445.4	
328.48	6191.7	
328.69	5098.8	
328.9	5281.7	
329.1	3891.1	
329.31	5401.9	
329.52	6395.8	
329.73	3634.5	
329.93	4083	
330.14	5487.9	
330.35	5764.3	
330.56	6077	
330.76	4479.6	
330.97	5342.5	
331.18	5705.6	
331.39	4039.3	
331.59	3222.1	
331.8	6124.1	
332.01	6254.5	
332.22	3701.4	
332.42	4257	
332.63	5653.8	
332.84	5255.1	
333.05	4064.5	
333.25	3693.2	
333.46	5304.2	
333.67	5540.4	
333.88	3833.1	
334.08	4271.4	
334.29	7429.3	
334.5	6219	
334.7	3485.6	
334.91	5237.3	
335.12	5020.9	
335.33	5958.9	
335.53	4003.8	
335.74	6031.3	
335.95	5266.7	
336.16	5113.1	
336.36	4038.6	
336.57	4694.6	
336.78	5010	
336.98	6182.1	
337.19	5017.5	
337.4	3949.8	
337.61	6661.4	
337.81	5012.7	
338.02	3730.7	
338.23	4878.3	
338.43	6342.6	
338.64	5193	
338.85	3660.4	
339.05	4772.4	
339.26	6371.9	
339.47	4933.6	
339.68	3658.4	
339.88	5418.9	
340.09	5738.4	
340.3	6022.4	
340.5	4261.1	
340.71	3254.9	
340.92	4997.7	
341.13	6295.5	
341.33	3505.4	
341.54	4330.1	
341.75	5789.6	
341.95	5378	
342.16	4048.2	
342.37	4457.1	
342.57	5128.8	
342.78	5430.5	
342.99	4568.3	
343.19	3282.9	
343.4	5990.3	
343.61	5738.4	
343.81	3891.1	
344.02	3526.6	
344.23	5856.5	
344.43	6424.5	
344.64	4496.7	
344.85	4494.6	
345.06	5840.1	
345.26	6147.3	
345.47	4186	
345.68	4982	
345.88	4863.9	
346.09	5958.9	
346.3	4289.1	
346.5	3161.4	
346.71	5515.9	
346.92	5269.4	
347.12	3287	
347.33	4208.6	
347.54	6042.2	
347.74	6584.9	
347.95	4136.2	
348.16	3086.3	
348.36	5334.3	
348.57	5141.8	
348.78	4181.3	
348.98	4498	
349.19	5460.6	
349.39	4968.4	
349.6	3266.5	
349.81	3729.4	
350.01	5813.5	
350.22	5253.7	
350.43	3969	
350.63	4858.5	
350.84	5554.8	
351.05	5347.2	
351.25	3727.3	
351.46	3287.7	
351.67	6154.1	
351.87	5200.5	
352.08	3915.7	
352.29	4468.7	
352.49	5956.2	
352.7	5626.5	
352.9	3547.1	
353.11	4432.5	
353.32	6695.5	
353.52	5391.6	
353.73	3462.4	
353.94	4434.5	
354.14	5791	
354.35	5649.7	
354.55	3599.6	
354.76	4055.7	
354.97	5760.3	
355.17	5561.6	
355.38	3418.7	
355.59	4805.9	
355.79	5184.1	
356	5689.3	
356.2	4037.2	
356.41	3517	
356.62	4930.8	
356.82	5424.4	
357.03	4315.1	
357.24	3812.6	
357.44	5186.1	
357.65	5280.3	
357.85	5240.1	
358.06	4074.8	
358.27	4943.1	
358.47	5110.4	
358.68	3383.2	
358.88	4252.9	
359.09	5786.2	
359.3	6172.6	
359.5	4982.7	
359.71	4383.3	
359.91	6666.8	
360.12	5933	
360.33	4252.3	
360.53	4767	
360.74	5179.3	
360.94	5283.8	
361.15	4526.7	
361.36	3656.3	
361.56	6072.9	
361.77	5446.9	
361.97	4983.4	
362.18	3904.8	
362.38	6038.8	
362.59	5059.2	
362.8	3635.1	
363	3480.9	
363.21	4843.4	
363.41	5532.2	
363.62	4143	
363.83	5201.8	
364.03	5591.6	
364.24	6675	
364.44	5294	
364.65	5307	
364.85	5426.4	
365.06	5003.2	
365.27	3812.6	
365.47	3763.5	
365.68	6415.6	
365.88	5364.3	
366.09	4162.2	
366.29	3837.9	
366.5	5672.9	
366.71	6059.3	
366.91	5226.4	
367.12	4375.1	
367.32	6742.6	
367.53	5930.9	
367.73	4316.4	
367.94	5281	
368.14	5918.6	
368.35	6869.6	
368.56	4286.4	
368.76	3641.3	
368.97	6014.2	
369.17	7762.5	
369.38	3762.1	
369.58	4030.4	
369.79	5016.8	
369.99	6400.6	
370.2	5084.4	
370.4	4109.6	
370.61	5664	
370.82	6959	
371.02	4029.7	
371.23	3431.7	
371.43	4967	
371.64	6260	
371.84	4078.2	
372.05	5315.2	
372.25	7705.1	
372.46	6003.3	
372.66	4083.6	
372.87	4005.8	
373.07	6098.9	
373.28	7752.9	
373.48	5101.5	
373.69	4797.7	
373.9	5561.6	
374.1	5527.5	
374.31	5079	
374.51	4554.7	
374.72	6430.6	
374.92	5218.9	
375.13	5235.3	
375.33	4369.7	
375.54	5898.1	
375.74	5335.6	
375.95	4412.7	
376.15	5674.9	
376.36	5926.8	
376.56	5795.1	
376.77	4493.9	
376.97	5072.8	
377.18	7052.5	
377.38	6019.7	
377.59	5319.3	
377.79	3967.6	
378	5864	
378.2	6236.7	
378.41	4102.1	
378.61	4013.3	
378.82	6304.3	
379.02	5399.8	
379.23	4274.8	
379.43	5445.5	
379.64	6408.1	
379.84	6023.1	
380.05	4108.9	
380.25	4014.7	
380.46	6110.5	
380.66	5694	
380.87	5474.2	
381.07	5837.4	
381.28	6765.1	
381.48	6045.6	
381.69	4077.5	
381.89	4135.5	
382.1	4990.2	
382.3	6304.3	
382.51	5325.4	
382.71	6134.3	
382.91	6162.3	
383.12	6670.2	
383.32	4461.8	
383.53	4741	
383.73	5974.6	
383.94	5783.5	
384.14	4552	
384.35	3720.5	
384.55	5679	
384.76	6173.3	
384.96	4470	
385.17	4800.4	
385.37	6110.5	
385.58	5369.8	
385.78	4817.5	
385.98	3619.4	
386.19	5554.1	
386.39	6010.8	
386.6	4171.7	
386.8	4455	
387.01	6059.9	
387.21	6094.8	
387.42	4930.1	
387.62	5498.1	
387.83	5368.4	
388.03	6062	
388.23	4472.1	
388.44	5307.7	
388.64	4983.4	
388.85	5179.3	
389.05	4823	
389.26	5457.8	
389.46	7106.5	
389.67	6505	
389.87	4845.5	
390.07	4901.5	
390.28	5703.6	
390.48	5285.1	
390.69	4041.3	
390.89	4342.4	
391.1	5460.6	
391.3	6520.7	
391.5	5629.9	
391.71	6271.6	
391.91	6115.2	
392.12	7314.7	
392.32	5610.1	
392.53	4891.9	
392.73	5532.2	
392.93	5722	
393.14	4557.4	
393.34	5302.9	
393.55	6283.2	
393.75	5683.8	
393.95	4533.5	
394.16	4468	
394.36	5486.5	
394.57	6176	
394.77	3988.1	
394.98	4456.4	
395.18	5393.7	
395.38	5659.2	
395.59	5309.7	
395.79	4226.3	
396	5542.5	
396.2	6004.6	
396.4	5113.1	
396.61	5004.6	
396.81	6197.2	
397.02	5528.2	
397.22	5307	
397.42	5468.1	
397.63	6263.4	
397.83	5434.6	
398.04	4218.1	
398.24	4661.2	
398.44	6006	
398.65	5055.1	
398.85	4031.8	
399.05	4149.9	
399.26	5383.4	
399.46	7230	
399.67	4552	
399.87	4257.7	
400.07	5821.7	
400.28	6146.6	
400.48	4299.4	
400.69	5504.9	
400.89	6969.9	
401.09	6797.2	
401.3	4228.4	
401.5	5451	
401.7	7110.5	
401.91	7426.6	
402.11	4617.5	
402.32	4842.8	
402.52	6470.2	
402.72	6305.7	
402.93	5044.1	
403.13	3871.3	
403.33	7221.8	
403.54	5853.1	
403.74	4785.4	
403.94	5716.6	
404.15	5946.6	
404.35	7059.3	
404.56	4444.8	
404.76	6361.7	
404.96	6350.1	
405.17	6088.6	
405.37	5808	
405.57	4956.1	
405.78	6429.3	
405.98	5819.6	
406.18	4467.3	
406.39	5480.4	
406.59	6433.4	
406.79	5977.3	
407	4272.1	
407.2	4472.8	
407.4	6408.1	
407.61	6646.3	
407.81	4398.4	
408.01	6818.4	
408.22	5258.5	
408.42	7393.2	
408.62	5396.4	
408.83	4885.8	
409.03	5885.9	
409.23	5764.3	
409.44	5025.7	
409.64	5307	
409.84	6913.9	
410.05	6781.5	
410.25	5131.5	
410.45	4937.7	
410.66	6255.2	
410.86	8799.4	
411.06	5275.6	
411.27	5208	
411.47	8651.3	
411.67	6430.6	
411.88	5455.1	
412.08	5732.3	
412.28	7077.1	
412.49	7606.2	
412.69	5215.5	
412.89	5221	
413.09	7474.4	
413.3	7366.5	
413.5	5303.6	
413.7	4940.4	
413.91	6508.4	
414.11	7387	
414.31	5121.3	
414.52	5617.6	
414.72	7048.4	
414.92	6969.9	
415.12	5189.6	
415.33	5659.2	
415.53	7366.5	
415.73	7531.1	
415.94	6062	
416.14	5481	
416.34	6350.8	
416.55	6115.2	
416.75	6696.9	
416.95	6120	
417.15	7361.8	
417.36	8137.9	
417.56	6938.5	
417.76	5920.7	
417.97	7729	
418.17	7336.5	
418.37	5455.1	
418.57	5535.7	
418.78	7098.3	
418.98	6861.4	
419.18	6516.6	
419.38	6406.7	
419.59	6886.6	
419.79	6468.9	
419.99	5464.7	
420.2	5864	
420.4	7391.8	
420.6	7606.8	
420.8	5283.8	
421.01	5147.2	
421.21	7220.5	
421.41	7355.6	
421.61	5741.1	
421.82	5372.5	
422.02	6621.8	
422.22	7706.5	
422.42	6286.6	
422.63	5956.2	
422.83	6812.9	
423.03	8014.4	
423.23	5907.7	
423.44	4858.5	
423.64	6862.7	
423.84	6539.8	
424.04	5378	
424.25	4939	
424.45	7841.7	
424.65	7767.3	
424.85	4756.1	
425.06	5319.3	
425.26	7758.4	
425.46	6300.9	
425.66	5868.8	
425.87	5487.9	
426.07	7528.3	
426.27	7382.9	
426.47	5715.2	
426.67	4986.8	
426.88	7929.1	
427.08	7243.7	
427.28	5962.3	
427.48	5005.2	
427.69	6175.3	
427.89	6835.4	
428.09	5803.3	
428.29	4937.7	
428.5	7564.5	
428.7	7053.2	
428.9	4838	
429.1	5440.8	
429.3	6920.8	
429.51	7468.3	
429.71	5199.1	
429.91	5970.5	
430.11	7257.3	
430.31	7479.9	
430.52	5442.8	
430.72	5735.7	
430.92	7894.9	
431.12	7279.8	
431.32	5117.2	
431.53	5604.6	
431.73	6218.3	
431.93	8040.3	
432.13	5038	
432.33	4956.8	
432.54	6636.8	
432.74	6978.8	
432.94	4760.8	
433.14	5991.7	
433.34	7149.5	
433.55	6604	
433.75	5926.8	
433.95	7731.8	
434.15	6905.1	
434.35	6676.4	
434.56	5048.9	
434.76	4528.1	
434.96	6920.8	
435.16	7161.7	
435.36	4934.2	
435.56	6043.6	
435.77	6571.2	
435.97	6692.8	
436.17	6865.5	
436.37	6032.6	
436.57	6568.5	
436.78	6519.4	
436.98	7899	
437.18	6586.3	
437.38	7264.1	
437.58	6739.2	
437.78	6868.9	
437.99	5364.3	
438.19	7336.5	
438.39	8130.4	
438.59	5334.3	
438.79	4835.9	
438.99	7988.4	
439.2	6769.9	
439.4	4916.5	
439.6	4816.1	
439.8	7025.2	
440	8143.4	
440.2	5815.5	
440.4	5947.3	
440.61	7320.8	
440.81	7923.6	
441.01	5048.2	
441.21	5869.5	
441.41	7815.7	
441.61	7462.1	
441.81	6296.1	
442.02	7470.3	
442.22	8456.7	
442.42	7494.2	
442.62	5196.4	
442.82	5184.1	
443.02	7784.3	
443.22	6875	
443.43	5578	
443.63	5133.6	
443.83	6638.8	
444.03	6716	
444.23	6382.8	
444.43	5982.8	
444.63	7048.4	
444.83	8363.2	
445.04	5115.8	
445.24	6603.3	
445.44	7455.3	
445.64	7615.7	
445.84	6094.1	
446.04	6129.6	
446.24	6838.9	
446.44	7912	
446.65	5245.5	
446.85	5667.4	
447.05	6943.3	
447.25	7789.1	
447.45	5680.4	
447.65	5034.6	
447.85	7094.8	
448.05	6741.9	
448.25	6122.7	
448.46	5890.6	
448.66	7088	
448.86	6813.6	
449.06	4790.2	
449.26	6140.5	
449.46	7456	
449.66	6410.8	
449.86	5547.9	
450.06	5555.5	
450.26	6603.3	
450.47	7281.2	
450.67	5829.2	
450.87	6279.8	
451.07	7332.4	
451.27	7155.6	
451.47	5129.5	
451.67	5694	
451.87	6708.5	
452.07	7948.2	
452.27	5414.8	
452.47	5394.3	
452.67	7111.9	
452.88	7678.5	
453.08	4628.4	
453.28	6824.5	
453.48	8227.4	
453.68	6984.3	
453.88	5190.9	
454.08	5517.2	
454.28	7385	
454.48	7036.1	
454.68	5950.7	
454.88	6538.5	
455.08	7435.5	
455.28	7192.5	
455.48	5048.9	
455.68	5640.8	
455.89	7942	
456.09	7626	
456.29	5419.6	
456.49	5474.2	
456.69	7809.6	
456.89	7027.9	
457.09	5969.1	
457.29	6376	
457.49	7286.7	
457.69	7501.7	
457.89	5732.9	
458.09	5076.9	
458.29	7141.3	
458.49	7774.8	
458.69	6182.8	
458.89	5496.7	
459.09	8087.4	
459.29	8150.9	
459.49	5643.5	
459.69	6474.3	
459.9	7669.6	
460.1	7121.5	
460.3	5578.7	
460.5	5362.3	
460.7	7515.4	
460.9	7276.4	
461.1	4992.9	
461.3	6336.4	
461.5	8239.7	
461.7	7767.3	
461.9	5283.1	
462.1	5874.3	
462.3	7231.4	
462.5	7865.6	
462.7	5423.7	
462.9	5492.7	
463.1	8951	
463.3	8557.8	
463.5	5669.5	
463.7	6623.8	
463.9	7364.5	
464.1	7800	
464.3	5825.8	
464.5	6134.3	
464.7	8088.8	
464.9	7690.8	
465.1	7542	
465.3	6371.2	
465.5	8444.5	
465.7	8372.1	
465.9	6696.2	
466.1	6619.7	
466.3	8124.3	
466.5	8042.4	
466.7	7377.5	
466.9	6230.6	
467.1	7838.9	
467.3	8930.5	
467.5	7301	
467.7	6133.7	
467.9	8995.4	
468.1	10029	
468.3	7003.4	
468.5	7348.8	
468.7	7871	
468.9	7842.4	
469.1	6442.9	
469.3	7143.3	
469.5	9884.2	
469.7	7383.6	
469.9	6924.9	
470.1	6130.9	
470.3	7899.7	
470.5	7971.4	
470.7	7551.5	
470.9	6315.3	
471.1	7671	
471.3	8176.9	
471.5	6107.7	
471.69	8114.7	
471.89	7538.6	
472.09	7051.2	
472.29	6843.6	
472.49	7414.3	
472.69	7331.7	
472.89	8103.8	
473.09	5948.7	
473.29	6132.3	
473.49	7484	
473.69	7600.7	
473.89	7230.7	
474.09	6276.3	
474.29	8931.2	
474.49	8633.6	
474.69	7023.9	
474.89	6412.2	
475.09	7624.6	
475.29	7600	
475.49	5834	
475.69	6107.7	
475.88	9374.9	
476.08	7932.5	
476.28	5791.7	
476.48	6174.6	
476.68	8429.4	
476.88	8297.7	
477.08	6093.4	
477.28	6429.9	
477.48	7673.7	
477.68	8357.8	
477.88	5877.7	
478.08	6137.1	
478.28	8667.7	
478.48	7794.6	
478.67	6205.3	
478.87	5685.8	
479.07	8406.9	
479.27	7918.8	
479.47	6483.9	
479.67	6494.1	
479.87	8312	
480.07	8884.8	
480.27	5743.9	
480.47	7427.3	
480.67	7917.4	
480.87	8638.3	
481.06	5947.3	
481.26	6899.6	
481.46	7779.6	
481.66	7839.6	
481.86	6419.7	
482.06	7561.1	
482.26	7607.5	
482.46	8639	
482.66	6363	
482.86	5941.8	
483.05	7912.7	
483.25	7236.8	
483.45	8908	
483.65	6337.1	
483.85	7501	
484.05	7730.4	
484.25	6756.9	
484.45	7294.9	
484.65	8660.9	
484.84	8651.3	
485.04	6240.2	
485.24	6322.1	
485.44	8921.6	
485.64	7129	
485.84	5409.4	
486.04	6976.7	
486.24	7539.3	
486.44	7939.3	
486.63	5533.6	
486.83	6358.9	
487.03	7384.3	
487.23	7672.4	
487.43	5559.6	
487.63	8082.6	
487.83	7647.8	
488.02	8646.5	
488.22	6567.2	
488.42	7234.1	
488.62	8611	
488.82	7511.9	
489.02	6177.4	
489.22	6165.8	
489.41	8433.5	
489.61	7993.9	
489.81	5882.4	
490.01	6002.6	
490.21	8347.5	
490.41	9030.2	
490.61	5892	
490.8	6051.7	
491	7775.5	
491.2	7122.8	
491.4	6694.1	
491.6	5775.3	
491.8	7864.9	
491.99	8052.6	
492.19	5537	
492.39	6034	
492.59	8444.5	
492.79	8324.3	
492.99	6721.4	
493.18	5786.9	
493.38	8366.6	
493.58	9084.1	
493.78	6556.2	
493.98	6087.2	
494.18	8106.5	
494.37	7486	
494.57	6752.8	
494.77	6639.5	
494.97	8224.6	
495.17	8536.6	
495.37	6166.4	
495.56	6511.9	
495.76	8660.2	
495.96	8247.2	
496.16	7385.7	
496.36	6302.3	
496.55	8531.2	
496.75	7939.3	
496.95	6819.7	
497.15	6645.7	
497.35	8464.3	
497.54	8454	
497.74	6350.8	
497.94	8047.8	
498.14	9239.8	
498.34	8928.5	
498.53	6027.9	
498.73	6845	
498.93	7781.6	
499.13	8325	
499.33	6580.1	
499.52	7157.7	
499.72	8204.8	
499.92	8635.6	
500.12	6326.2	
500.32	6550.1	
500.51	8613.1	
500.71	8417.8	
500.91	7374.7	
501.11	6976.7	
501.31	8504.5	
501.5	8999.5	
501.7	7718.8	
501.9	6575.3	
502.1	8380.3	
502.29	8701.8	
502.49	6976.1	
502.69	7552.9	
502.89	8542.8	
503.09	8546.2	
503.28	6114.6	
503.48	6242.2	
503.68	7752.2	
503.88	7740	
504.07	7239.6	
504.27	6724.2	
504.47	8093.6	
504.67	8429.4	
504.86	7283.3	
505.06	6776	
505.26	7886.7	
505.46	9751.1	
505.65	6724.8	
505.85	6975.4	
506.05	7779.6	
506.25	8310.7	
506.44	6079.1	
506.64	7071	
506.84	7708.6	
507.04	8804.2	
507.23	6290	
507.43	6930.3	
507.63	9747	
507.83	8023.9	
508.02	6776.7	
508.22	6368.5	
508.42	10144	
508.62	7745.4	
508.81	6666.1	
509.01	7329	
509.21	7559.1	
509.4	7900.4	
509.6	6834.1	
509.8	6217.6	
510	7843	
510.19	9297.1	
510.39	6193.1	
510.59	6260	
510.79	7539.9	
510.98	9038.4	
511.18	6361	
511.38	6483.9	
511.57	8436.9	
511.77	8415.8	
511.97	7227.3	
512.17	6056.5	
512.36	8437.6	
512.56	8519.5	
512.76	6133.7	
512.95	5909.1	
513.15	8529.8	
513.35	7139.9	
513.55	7033.4	
513.74	6191	
513.94	8475.9	
514.14	7846.5	
514.33	7103	
514.53	6867.5	
514.73	7828	
514.92	7976.8	
515.12	6234	
515.32	6113.9	
515.51	8072.4	
515.71	8682	
515.91	7893.6	
516.11	6161.7	
516.3	9748.3	
516.5	7559.1	
516.7	6776	
516.89	7395.9	
517.09	7792.5	
517.29	7594.6	
517.48	7105.8	
517.68	6427.2	
517.88	7407.5	
518.07	8126.3	
518.27	6918.7	
518.47	5926.1	
518.66	8654	
518.86	7256	
519.06	5772.5	
519.25	6285.2	
519.45	7663.5	
519.65	9111.4	
519.84	6905.8	
520.04	7576.1	
520.24	9544.2	
520.43	8284	
520.63	6580.8	
520.83	6367.1	
521.02	7492.2	
521.22	8181.6	
521.42	6892.1	
521.61	7536.5	
521.81	7698.3	
522.01	7979.6	
522.2	6688	
522.4	6523.5	
522.6	8361.2	
522.79	7037.5	
522.99	6519.4	
523.18	5713.2	
523.38	8089.5	
523.58	7951.6	
523.77	7692.9	
523.97	5662	
524.17	9861.7	
524.36	9008.3	
524.56	7077.1	
524.76	6765.8	
524.95	7902.4	
525.15	7572	
525.34	6416.3	
525.54	6561.7	
525.74	8260.1	
525.93	7255.3	
526.13	7685.3	
526.33	6442.9	
526.52	8673.8	
526.72	8069	
526.91	7718.1	
527.11	6967.9	
527.31	8628.1	
527.5	9051.3	
527.7	6826.6	
527.89	5743.2	
528.09	7410.2	
528.29	7995.3	
528.48	7118.1	
528.68	6857.3	
528.87	8444.5	
529.07	8580.3	
529.27	6685.9	
529.46	6255.9	
529.66	8172.8	
529.85	8565.3	
530.05	6051.1	
530.25	6935.8	
530.44	9637.1	
530.64	8035.5	
530.83	6472.9	
531.03	6699.6	
531.23	8432.9	
531.42	8314.1	
531.62	7492.8	
531.81	6606.1	
532.01	8401.5	
532.21	9040.4	
532.4	6326.9	
532.6	6660.7	
532.79	9545.6	
532.99	8450.6	
533.18	6742.6	
533.38	7723.6	
533.58	8041	
533.77	8882	
533.97	6564.4	
534.16	7450.5	
534.36	9100.5	
534.55	8092.2	
534.75	7710.6	
534.95	6606.1	
535.14	8768.7	
535.34	8090.2	
535.53	6352.8	
535.73	8410.3	
535.92	9492.3	
536.12	8288.8	
536.31	6410.8	
536.51	7767.3	
536.71	8562.6	
536.9	8093.6	
537.1	6620.4	
537.29	6782.2	
537.49	9037.7	
537.68	7965.9	
537.88	7106.5	
538.07	6313.2	
538.27	8121.6	
538.46	9269.1	
538.66	6255.2	
538.86	6625.9	
539.05	8221.9	
539.25	8682.7	
539.44	6999.3	
539.64	6553.5	
539.83	8197.3	
540.03	9174.2	
540.22	6355.5	
540.42	6677.1	
540.61	8450.6	
540.81	8505.9	
541	7149.5	
541.2	7706.5	
541.39	7860.1	
541.59	8334.6	
541.78	7365.2	
541.98	6423.1	
542.18	7588.4	
542.37	7619.1	
542.57	6858	
542.76	7375.4	
542.96	7695.6	
543.15	8480.6	
543.35	6808.1	
543.54	6206	
543.74	8776.9	
543.93	8284.7	
544.13	6898.2	
544.32	7980.3	
544.52	8553.7	
544.71	7727.7	
544.91	5885.9	
545.1	7296.9	
545.3	7762.5	
545.49	8537.3	
545.69	5888.6	
545.88	6541.9	
546.08	9516.9	
546.27	9148.3	
546.47	7124.9	
546.66	6293.4	
546.86	8761.9	
547.05	9258.9	
547.24	6556.2	
547.44	6439.5	
547.63	7637.6	
547.83	8820.6	
548.02	6804.7	
548.22	7023.9	
548.41	7421.2	
548.61	8967.4	
548.8	6332.3	
549	6244.3	
549.19	8113.4	
549.39	8473.8	
549.58	6006.7	
549.78	6597.2	
549.97	8522.3	
550.17	8065.6	
550.36	7574.8	
550.55	8643.1	
550.75	8031.5	
550.94	9021.3	
551.14	6252.4	
551.33	6662	
551.53	7415.7	
551.72	8379.6	
551.92	6744.6	
552.11	6451.1	
552.31	8466.3	
552.5	8568.7	
552.69	8289.5	
552.89	6039.5	
553.08	8358.4	
553.28	8075.1	
553.47	6441.5	
553.67	7630	
553.86	9153.1	
554.06	7346.7	
554.25	5609.4	
554.44	6262.7	
554.64	9908.8	
554.83	9336.7	
555.03	6174.6	
555.22	6602	
555.42	8542.8	
555.61	8250.6	
555.8	6458.6	
556	6746.7	
556.19	7294.2	
556.39	8632.9	
556.58	6470.9	
556.78	6434.7	
556.97	8204.8	
557.16	7784.3	
557.36	7720.2	
557.55	6071.5	
557.75	7139.2	
557.94	8922.3	
558.13	6170.5	
558.33	5930.9	
558.52	8738	
558.72	7555.6	
558.91	6102.9	
559.1	6300.9	
559.3	7308.5	
559.49	6981.5	
559.69	5567.7	
559.88	6703	
560.07	8142.7	
560.27	8454	
560.46	6839.5	
560.66	7019.8	
560.85	7898.3	
561.04	7055.3	
561.24	5987.6	
561.43	6249	
561.63	7323.5	
561.82	7555	
562.01	7582.9	
562.21	6577.4	
562.4	8118.8	
562.59	9065.7	
562.79	6356.2	
562.98	5995.1	
563.18	7929.1	
563.37	9553.1	
563.56	6902.3	
563.76	5821.7	
563.95	7445.7	
564.14	7298.3	
564.34	6283.9	
564.53	6084.5	
564.73	7954.3	
564.92	8278.6	
565.11	6532.3	
565.31	5803.9	
565.5	8460.8	
565.69	7408.2	
565.89	5995.1	
566.08	6313.2	
566.27	8433.5	
566.47	8802.9	
566.66	6929	
566.85	5640.1	
567.05	8027.4	
567.24	7299.6	
567.44	6002.6	
567.63	7366.5	
567.82	8158.4	
568.02	7959.8	
568.21	5900.2	
568.4	6398.5	
568.6	7709.9	
568.79	7743.4	
568.98	5727.5	
569.18	5850.4	
569.37	7656	
569.56	9823.4	
569.76	6303.6	
569.95	7238.2	
570.14	8090.2	
570.34	7998	
570.53	5737.7	
570.72	5785.5	
570.91	8576.2	
571.11	7700.4	
571.3	6298.9	
571.49	7234.1	
571.69	7690.1	
571.88	7316.7	
572.07	6788.3	
572.27	6929	
572.46	7288.7	
572.65	8417.8	
572.85	5991.7	
573.04	6335.1	
573.23	8537.3	
573.43	7800	
573.62	5672.2	
573.81	6404.7	
574	7725.6	
574.2	7557	
574.39	6066.1	
574.58	6182.1	
574.78	8674.5	
574.97	7854	
575.16	6636.8	
575.36	6812.9	
575.55	8175.5	
575.74	8378.2	
575.93	5682.4	
576.13	6764.4	
576.32	7597.3	
576.51	8155	
576.71	6174.6	
576.9	7534.5	
577.09	8545.5	
577.28	7983	
577.48	6675.7	
577.67	5496.7	
577.86	7589.8	
578.05	7993.9	
578.25	6281.1	
578.44	6405.4	
578.63	7872.4	
578.83	9006.3	
579.02	5578.7	
579.21	7189.7	
579.4	7966.6	
579.6	7624.6	
579.79	6449.1	
579.98	8661.5	
580.17	8364.6	
580.37	8366	
580.56	5805.3	
580.75	6531.7	
580.94	8853.4	
581.14	8651.3	
581.33	7039.6	
581.52	5923.4	
581.71	8143.4	
581.91	8894.3	
582.1	5615.5	
582.29	6352.8	
582.48	7745.4	
582.68	7677.8	
582.87	6847	
583.06	6331	
583.25	8117.5	
583.45	7886	
583.64	7030.7	
583.83	7757.7	
584.02	7552.2	
584.21	8056.7	
584.41	7072.3	
584.6	6279.1	
584.79	7807.5	
584.98	8555.7	
585.18	5755.5	
585.37	5754.1	
585.56	7258	
585.75	8075.8	
585.94	6014.2	
586.14	6688.7	
586.33	8771.5	
586.52	7784.3	
586.71	6503.7	
586.91	6245.6	
587.1	7154.2	
587.29	8239.7	
587.48	6274.3	
587.67	6089.3	
587.87	8081.3	
588.06	8245.8	
588.25	7433.4	
588.44	6813.6	
588.63	7798	
588.83	8433.5	
589.02	6146.6	
589.21	6141.9	
589.4	7642.3	
589.59	7436.9	
589.78	5380.7	
589.98	5761.6	
590.17	7254.6	
590.36	7855.3	
590.55	5184.1	
590.74	6155.5	
590.94	9244.5	
591.13	7742	
591.32	5802.6	
591.51	5333.6	
591.7	8146.8	
591.89	7506.5	
592.09	5443.5	
592.28	5924.1	
592.47	6812.9	
592.66	8752.3	
592.85	5426.4	
593.05	5642.2	
593.24	7422.5	
593.43	8210.3	
593.62	5659.2	
593.81	6130.9	
594	7443.7	
594.19	7678.5	
594.39	5621.7	
594.58	5534.3	
594.77	7708.6	
594.96	8407.6	
595.15	5507	
595.34	6269.5	
595.54	7852.6	
595.73	6934.4	
595.92	4870.8	
596.11	6109.1	
596.3	8414.4	
596.49	7004.7	
596.68	5851.7	
596.88	6302.3	
597.07	8088.8	
597.26	6799.9	
597.45	5342.5	
597.64	6569.9	
597.83	7089.4	
598.02	7711.3	
598.22	5408.7	
598.41	6152.1	
598.6	7561.1	
598.79	6892.1	
598.98	5383.4	
599.17	6498.2	
599.36	7484	
599.55	8789.9	
599.74	7582.3	
599.94	7331	
600.13	8126.3	
600.32	6929.6	
600.51	5186.1	
600.7	5304.9	
600.89	8839	
601.08	8727.1	
601.27	5154.1	
601.47	6186.9	
601.66	8075.1	
601.85	8729.8	
602.04	5869.5	
602.23	6087.2	
602.42	7030	
602.61	7708.6	
602.8	5787.6	
602.99	5520.6	
603.18	7353.6	
603.37	7659.4	
603.57	6181.5	
603.76	6716.7	
603.95	8478.6	
604.14	7877.2	
604.33	5582.1	
604.52	5833.3	
604.71	7582.9	
604.9	7147.4	
605.09	6516	
605.28	6400.6	
605.47	8148.9	
605.66	7884.7	
605.86	6169.2	
606.05	5636.7	
606.24	8230.8	
606.43	6706.4	
606.62	5942.5	
606.81	6754.2	
607	8088.1	
607.19	7288	
607.38	5362.9	
607.57	5600.5	
607.76	7116	
607.95	6556.2	
608.14	6050.4	
608.33	6646.3	
608.52	7150.8	
608.72	8071.7	
608.91	5217.5	
609.1	5168.4	
609.29	7250.5	
609.48	6725.5	
609.67	6206	
609.86	5254.4	
610.05	6843.6	
610.24	7258	
610.43	5122	
610.62	4737	
610.81	8384.4	
611	8116.1	
611.19	5261.2	
611.38	5987.6	
611.57	7445	
611.76	8854.1	
611.95	5010.7	
612.14	4905.6	
612.33	7340.6	
612.52	6759.7	
612.71	5649	
612.9	4818.2	
613.09	6429.3	
613.28	8754.4	
613.47	5270.8	
613.66	6307.7	
613.85	7458.7	
614.04	6898.9	
614.24	5442.8	
614.43	4566.3	
614.62	7496.9	
614.81	7509.2	
615	6009.4	
615.19	5982.1	
615.38	6755.6	
615.57	7152.9	
615.76	5889.3	
615.95	6785.6	
616.14	7536.5	
616.33	7208.2	
616.52	6187.6	
616.71	6365.8	
616.9	7468.9	
617.09	7335.8	
617.28	5384.1	
617.47	6784.9	
617.66	6573.3	
617.85	6500.3	
618.04	6410.8	
618.22	5782.8	
618.41	6834.1	
618.6	7787.7	
618.79	5691.3	
618.98	5369.8	
619.17	8116.1	
619.36	6414.9	
619.55	5478.3	
619.74	5621	
619.93	7354.9	
620.12	6698.9	
620.31	6085.9	
620.5	6204	
620.69	7956.4	
620.88	8248.5	
621.07	6981.5	
621.26	5937.1	
621.45	7445	
621.64	7458	
621.83	6115.2	
622.02	5238.7	
622.21	7494.9	
622.4	7258.7	
622.59	6648.4	
622.78	6406	
622.97	6818.4	
623.16	7890.8	
623.35	5943.2	
623.54	5094.7	
623.72	7073.7	
623.91	7266.2	
624.1	6233.3	
624.29	4894.6	
624.48	8349.6	
624.67	7475.8	
624.86	6130.9	
625.05	5177.9	
625.24	8468.4	
625.43	6739.9	
625.62	7909.9	
625.81	5390.9	
626	7808.2	
626.19	7075.7	
626.38	6184.9	
626.56	5578.7	
626.75	6953.5	
626.94	7623.2	
627.13	6201.2	
627.32	4849.6	
627.51	7567.2	
627.7	8990.6	
627.89	4965.6	
628.08	6230.6	
628.27	6778.1	
628.46	6922.8	
628.65	5345.9	
628.83	4963.6	
629.02	7580.9	
629.21	6799.9	
629.4	5716.6	
629.59	5945.3	
629.78	6822.5	
629.97	7680.6	
630.16	6091.3	
630.35	5472.9	
630.54	8262.9	
630.72	7836.9	
630.91	5362.3	
631.1	5999.2	
631.29	7289.4	
631.48	7578.8	
631.67	6075.6	
631.86	5624.4	
632.05	6882.5	
632.24	6972	
632.42	5205.3	
632.61	5866.7	
632.8	7063.4	
632.99	6716.7	
633.18	5776.6	
633.37	6240.8	
633.56	7341.3	
633.75	7114.6	
633.93	5823.7	
634.12	5522.7	
634.31	8107.2	
634.5	7748.1	
634.69	5492	
634.88	6083.8	
635.07	7110.5	
635.25	7677.8	
635.44	6517.3	
635.63	6684.6	
635.82	7000	
636.01	6406.7	
636.2	6438.8	
636.39	5935.7	
636.57	8132.5	
636.76	7845.1	
636.95	5324	
637.14	6814.3	
637.33	7348.8	
637.52	8409.6	
637.7	5089.2	
637.89	6047	
638.08	6983.6	
638.27	8498.4	
638.46	6163	
638.65	6726.9	
638.83	8493.6	
639.02	6879.8	
639.21	6155.5	
639.4	6630	
639.59	7404.8	
639.78	6901	
639.96	5423.7	
640.15	5419.6	
640.34	7198.6	
640.53	7441	
640.72	5162.2	
640.91	5519.3	
641.09	6605.4	
641.28	8075.8	
641.47	5475.6	
641.66	6418.3	
641.85	7276.4	
642.03	7547.4	
642.22	6128.2	
642.41	5567.1	
642.6	6792.4	
642.79	6145.3	
642.97	5384.1	
643.16	6177.4	
643.35	6796.5	
643.54	6605.4	
643.73	5258.5	
643.91	6119.3	
644.1	6442.2	
644.29	7047.1	
644.48	5466	
644.67	5493.3	
644.85	6724.2	
645.04	6994.5	
645.23	5106.3	
645.42	5388.2	
645.6	6551.5	
645.79	7764.5	
645.98	5375.9	
646.17	4457.1	
646.36	6335.1	
646.54	7083.9	
646.73	6300.9	
646.92	5036.6	
647.11	6593.1	
647.29	7668.3	
647.48	5218.9	
647.67	4942.4	
647.86	7964.6	
648.05	7921.5	
648.23	5483.1	
648.42	6834.8	
648.61	7389.1	
648.8	7098.9	
648.98	5169.1	
649.17	5412.8	
649.36	6627.9	
649.55	6077	
649.73	5087.8	
649.92	5900.2	
650.11	6507.1	
650.3	6855.2	
650.48	5273.5	
650.67	4937.7	
650.86	7219.1	
651.05	6025.1	
651.23	5226.4	
651.42	5249.6	
651.61	6597.9	
651.79	6759.7	
651.98	5369.1	
652.17	5057.8	
652.36	7061.4	
652.54	6184.2	
652.73	5098.8	
652.92	4930.8	
653.11	7061.4	
653.29	7167.9	
653.48	4396.3	
653.67	5472.2	
653.85	6899.6	
654.04	8032.8	
654.23	5655.1	
654.42	5221	
654.6	6477	
654.79	7253.9	
654.98	4730.8	
655.16	5286.5	
655.35	6106.4	
655.54	6062	
655.73	4814.1	
655.91	4731.5	
656.1	7186.3	
656.29	5962.3	
656.47	4283.7	
656.66	6055.8	
656.85	6239.5	
657.03	6222.4	
657.22	4846.2	
657.41	4887.8	
657.59	6355.5	
657.78	6081.8	
657.97	4469.4	
658.16	5285.1	
658.34	7115.3	
658.53	7435.5	
658.72	6153.5	
658.9	6723.5	
659.09	6415.6	
659.28	6514.6	
659.46	5009.3	
659.65	4887.1	
659.84	6193.7	
660.02	6791.1	
660.21	4754.7	
660.4	4724.7	
660.58	7295.5	
660.77	6540.5	
660.96	5392.3	
661.14	4375.1	
661.33	7775.5	
661.52	7623.2	
661.7	4332.8	
661.89	8333.9	
662.08	6154.1	
662.26	5774.6	
662.45	4672.8	
662.64	4774.5	
662.82	6892.8	
663.01	6016.9	
663.2	4778.6	
663.38	5541.1	
663.57	6735.8	
663.75	6680.5	
663.94	5132.9	
664.13	6505	
664.31	6146	
664.5	6918.7	
664.69	5552.7	
664.87	5993	
665.06	5887.2	
665.25	6690.7	
665.43	6179.4	
665.62	6308.4	
665.8	7040.2	
665.99	6281.8	
666.18	5126.7	
666.36	5240.8	
666.55	6957.6	
666.74	6794.5	
666.92	4736.3	
667.11	6453.1	
667.29	6302.3	
667.48	6918.7	
667.67	6097.5	
667.85	5145.9	
668.04	6291.4	
668.22	6284.5	
668.41	5181.4	
668.6	5331.5	
668.78	6027.9	
668.97	6393.1	
669.15	5596.4	
669.34	4584	
669.53	6146	
669.71	6467.5	
669.9	4724.7	
670.08	5428.5	
670.27	6186.2	
670.46	6707.8	
670.64	5537.7	
670.83	5831.2	
671.01	6038.8	
671.2	6698.9	
671.38	4739	
671.57	4654.4	
671.76	7316	
671.94	7935.2	
672.13	4536.9	
672.31	5805.3	
672.5	6922.8	
672.69	6132.3	
672.87	4747.9	
673.06	5089.2	
673.24	6574	
673.43	6127.5	
673.61	5522	
673.8	5102.9	
673.98	6852.5	
674.17	7101	
674.36	5721.3	
674.54	5496.1	
674.73	6626.5	
674.91	6868.9	
675.1	5177.9	
675.28	4864.6	
675.47	6396.5	
675.65	6973.3	
675.84	5009.3	
676.03	5479	
676.21	6166.4	
676.4	5657.9	
676.58	5963.7	
676.77	5625.1	
676.95	7679.9	
677.14	6146	
677.32	4774.5	
677.51	4521.2	
677.69	6913.9	
677.88	5761.6	
678.06	4576.5	
678.25	4713.7	
678.44	6391.7	
678.62	6099.5	
678.81	4418.2	
678.99	5438	
679.18	7245	
679.36	6808.1	
679.55	5042.8	
679.73	5737	
679.92	6718.7	
680.1	6075.6	
680.29	6310.5	
680.47	5040.1	
680.66	6066.1	
680.84	7024.5	
681.03	4277.5	
681.21	5414.1	
681.4	6120.7	
681.58	6000.5	
681.77	4782	
681.95	4782.7	
682.14	7067.5	
682.32	7391.1	
682.51	5687.9	
682.69	4517.1	
682.88	6077	
683.06	6819.7	
683.25	5468.8	
683.43	5879	
683.62	6277	
683.8	6771.3	
683.99	5979.4	
684.17	5337.7	
684.36	7728.4	
684.54	6346.7	
684.73	4475.5	
684.91	4774.5	
685.1	6809.5	
685.28	6197.2	
685.46	5413.5	
685.65	5465.3	
685.83	7073.7	
686.02	6310.5	
686.2	4831.2	
686.39	4938.3	
686.57	6173.3	
686.76	7675.8	
686.94	4796.3	
687.13	4934.9	
687.31	6806.1	
687.5	6261.3	
687.68	4337.6	
687.86	5703.6	
688.05	7908.6	
688.23	5756.2	
688.42	5713.2	
688.6	4829.8	
688.79	6165.8	
688.97	6115.2	
689.16	5231.2	
689.34	4082.3	
689.52	6852.5	
689.71	7155.6	
689.89	5448.3	
690.08	4741	
690.26	6382.8	
690.45	6263.4	
690.63	5689.9	
690.81	4944.5	
691	6198.5	
691.18	6031.3	
691.37	5142.4	
691.55	7462.1	
691.74	6079.7	
691.92	8179.6	
692.1	5128.1	
692.29	4501.4	
692.47	6292.7	
692.66	5518.6	
692.84	4767	
693.02	5255.1	
693.21	5674.9	
693.39	6239.5	
693.58	5436	
693.76	4840	
693.94	7470.3	
694.13	7126.2	
694.31	4790.9	
694.5	5835.3	
694.68	5976	
694.86	6216.3	
695.05	5140.4	
695.23	5160.2	
695.42	6686.6	
695.6	9160.6	
695.78	5741.8	
695.97	4782.7	
696.15	6735.1	
696.34	6071.5	
696.52	4560.8	
696.7	5472.2	
696.89	6569.9	
697.07	5879	
697.25	5408	
697.44	6933.1	
697.62	6351.4	
697.81	6853.9	
697.99	5044.8	
698.17	5540.4	
698.36	5759.6	
698.54	6499.6	
698.72	5416.2	
698.91	4403.8	
699.09	6075.6	
699.28	5913.2	
699.46	4982	
699.64	4959.5	
699.83	5791	
700.01	7241.6	
700.19	5711.1	
700.38	4108.9	
700.56	7112.6	
700.74	5870.8	
700.93	4473.4	
701.11	5429.8	
701.29	6512.5	
701.48	7546.1	
701.66	4676.9	
701.84	4713.7	
702.03	6011.5	
702.21	6688.7	
702.39	4218.8	
702.58	4933.6	
702.76	6380.1	
702.94	6543.3	
703.13	4233.2	
703.31	6711.2	
703.49	5756.8	
703.68	7294.2	
703.86	4389.5	
704.04	5545.9	
704.23	6305	
704.41	6670.9	
704.59	4625	
704.78	5892	
704.96	7373.4	
705.14	6709.8	
705.33	4364.9	
705.51	5255.8	
705.69	6047.7	
705.87	6982.9	
706.06	5552.7	
706.24	4366.3	
706.42	6438.8	
706.61	6628.6	
706.79	5564.3	
706.97	4348.5	
707.16	5812.8	
707.34	6485.9	
707.52	5549.3	
707.7	4650.3	
707.89	5934.3	
708.07	5628.5	
708.25	5475.6	
708.44	5631.2	
708.62	5956.9	
708.8	7111.9	
708.98	5750.7	
709.17	4676.2	
709.35	6321.4	
709.53	6358.3	
709.72	4342.4	
709.9	4554.7	
710.08	6582.9	
710.26	6706.4	
710.45	6170.5	
710.63	4745.1	
710.81	6237.4	
710.99	6340.5	
711.18	5416.9	
711.36	4917.2	
711.54	6070.9	
711.72	6863.4	
711.91	4971.1	
712.09	4386.1	
712.27	6255.9	
712.45	7002.7	
712.64	5262.6	
712.82	4140.3	
713	5750	
713.18	5969.8	
713.37	4442	
713.55	5960.3	
713.73	7060.7	
713.91	5511.8	
714.1	5018.9	
714.28	4454.3	
714.46	6780.8	
714.64	5883.1	
714.83	3916.4	
715.01	4844.1	
715.19	6036	
715.37	5456.5	
715.55	4543.8	
715.74	4809.3	
715.92	7019.8	
716.1	5004.6	
716.28	6059.9	
716.47	5066	
716.65	5717.9	
716.83	5713.2	
717.01	4930.8	
717.19	4990.2	
717.38	7912	
717.56	5479.7	
717.74	5152	
717.92	4193.6	
718.1	6721.4	
718.29	5790.3	
718.47	3738.9	
718.65	4444.8	
718.83	6464.1	
719.01	6374.6	
719.2	3611.3	
719.38	4687.8	
719.56	6052.4	
719.74	7723.6	
719.92	4292.5	
720.11	5412.8	
720.29	6185.5	
720.47	5236	
720.65	3866.6	
720.83	4853.7	
721.02	5722.7	
721.2	5437.4	
721.38	4944.5	
721.56	4133.5	
721.74	5008.6	
721.92	5163.6	
722.11	5430.5	
722.29	5103.5	
722.47	6494.8	
722.65	5560.2	
722.83	4212.7	
723.01	5162.2	
723.2	5722	
723.38	5975.3	
723.56	3576.4	
723.74	4784.1	
723.92	5186.1	
724.1	6404	
724.29	4106.2	
724.47	5368.4	
724.65	5278.3	
724.83	5172.5	
725.01	3936.2	
725.19	4963.6	
725.37	5197.7	
725.56	5335	
725.74	3809.9	
725.92	4089.8	
726.1	5171.1	
726.28	5533.6	
726.46	4546.5	
726.64	4254.3	
726.83	5466.7	
727.01	5838.1	
727.19	3803.1	
727.37	4638	
727.55	5590.3	
727.73	6130.9	
727.91	3753.2	
728.09	3590.8	
728.28	6163	
728.46	6796.5	
728.64	4745.1	
728.82	4760.2	
729	7309.2	
729.18	6483.2	
729.36	3857	
729.54	6345.3	
729.72	7492.2	
729.91	5683.1	
730.09	5862.7	
730.27	4524	
730.45	5493.3	
730.63	6176.7	
730.81	5127.4	
730.99	4132.8	
731.17	6760.3	
731.35	5239.4	
731.53	4713.7	
731.71	4257	
731.9	6535.1	
732.08	6670.9	
732.26	4582.7	
732.44	4175.8	
732.62	6739.9	
732.8	6105	
732.98	5042.8	
733.16	3990.1	
733.34	6173.3	
733.52	4926.7	
733.7	4545.8	
733.88	4878.3	
734.07	5994.4	
734.25	5723.4	
734.43	3989.4	
734.61	5584.1	
734.79	7332.4	
734.97	5669.5	
735.15	4131.4	
735.33	4545.8	
735.51	5993	
735.69	5699.5	
735.87	5745.2	
736.05	4760.2	
736.23	5841.5	
736.41	5535.7	
736.59	4502.1	
736.77	4657.8	
736.95	6309.8	
737.13	5638.1	
737.32	4234.5	
737.5	4381.3	
737.68	6838.9	
737.86	5525.4	
738.04	4004.5	
738.22	6010.1	
738.4	5381.4	
738.58	5705.6	
738.76	4683	
738.94	3532.7	
739.12	5578	
739.3	5323.4	
739.48	5399.8	
739.66	4928.1	
739.84	5831.2	
740.02	5764.3	
740.2	3585.3	
740.38	4041.3	
740.56	6214.2	
740.74	5018.9	
740.92	4689.8	
741.1	4716.5	
741.28	5642.2	
741.46	5479	
741.64	4261.1	
741.82	4872.1	
742	5627.8	
742.18	5640.8	
742.36	4515.8	
742.54	4055	
742.72	6239.5	
742.9	4926	
743.08	4966.3	
743.26	3639.9	
743.44	6513.9	
743.62	6347.3	
743.8	5135.6	
743.98	4100	
744.16	6109.1	
744.34	5697.4	
744.52	5092.6	
744.7	4932.9	
744.88	6209.4	
745.06	5743.2	
745.24	5112.4	
745.42	5236	
745.6	6312.5	
745.78	6059.9	
745.96	3896.6	
746.14	4225	
746.32	7146	
746.5	6316.6	
746.68	4811.4	
746.86	4245.4	
747.03	6806.8	
747.21	4991.6	
747.39	4853	
747.57	4319.8	
747.75	5930.2	
747.93	6363	
748.11	4246.1	
748.29	4192.2	
748.47	7634.8	
748.65	5656.5	
748.83	5029.1	
749.01	4734.2	
749.19	6231.3	
749.37	5318.6	
749.55	4611.3	
749.73	4698.7	
749.91	5805.3	
750.09	5564.3	
750.26	4683	
750.44	4138.9	
750.62	5827.8	
750.8	5812.8	
750.98	3931.4	
751.16	4343.1	
751.34	5924.8	
751.52	5136.3	
751.7	5176.6	
751.88	3951.9	
752.06	6391.7	
752.24	6248.4	
752.42	3919.1	
752.59	4293.9	
752.77	5803.3	
752.95	7197.9	
753.13	5044.1	
753.31	4443.4	
753.49	5471.5	
753.67	6013.5	
753.85	4752	
754.03	4313.7	
754.21	6241.5	
754.38	6660	
754.56	4522.6	
754.74	3572.3	
754.92	5603.2	
755.1	6376.7	
755.28	3695.2	
755.46	3777.1	
755.64	7246.4	
755.82	7487.4	
755.99	4192.2	
756.17	4318.5	
756.35	4861.2	
756.53	6560.3	
756.71	3208.5	
756.89	4151.9	
757.07	6191	
757.25	5201.2	
757.42	4715.1	
757.6	5668.1	
757.78	6107.7	
757.96	4969.7	
758.14	4341.7	
758.32	3843.4	
758.5	4605.2	
758.67	5440.8	
758.85	4178.5	
759.03	4318.5	
759.21	5738.4	
759.39	5076.9	
759.57	3717.7	
759.75	4943.1	
759.92	6311.2	
760.1	5512.4	
760.28	5343.8	
760.46	5508.4	
760.64	5255.1	
760.82	5038.7	
760.99	5075.5	
761.17	4220.2	
761.35	6134.3	
761.53	5030.5	
761.71	4233.8	
761.89	5061.2	
762.06	5968.5	
762.24	5386.2	
762.42	4401.1	
762.6	4072	
762.78	5403.9	
762.96	6055.8	
763.13	4747.2	
763.31	4370.4	
763.49	6289.3	
763.67	5320.6	
763.85	5236.7	
764.02	5862.7	
764.2	6464.8	
764.38	5682.4	
764.56	4287.1	
764.74	5262.6	
764.91	6636.1	
765.09	5526.1	
765.27	3937.6	
765.45	3692.5	
765.63	6707.8	
765.8	6560.3	
765.98	3407.8	
766.16	3772.4	
766.34	5070.8	
766.52	4841.4	
766.69	4835.9	
766.87	3660.4	
767.05	5503.6	
767.23	6225.1	
767.41	4044.1	
767.58	4301.4	
767.76	6074.3	
767.94	6199.2	
768.12	4169.7	
768.29	4919.9	
768.47	5558.2	
768.65	6364.4	
768.83	3753.2	
769	4973.8	
769.18	5112.4	
769.36	5954.1	
769.54	4975.2	
769.72	3799.7	
769.89	6214.9	
770.07	6384.9	
770.25	4185.4	
770.43	5512.4	
770.6	7076.4	
770.78	7533.1	
770.96	4379.2	
771.14	4973.8	
771.31	6118.6	
771.49	5478.3	
771.67	3441.3	
771.85	3790.8	
772.02	4670.1	
772.2	5531.6	
772.38	4660.5	
772.55	4033.1	
772.73	5791.7	
772.91	5572.5	
773.09	4465.3	
773.26	4559.5	
773.44	5735	
773.62	5422.3	
773.8	3919.1	
773.97	3686.3	
774.15	5845.6	
774.33	5451.7	
774.5	3831.7	
774.68	4257	
774.86	6007.4	
775.04	5470.8	
775.21	3977.8	
775.39	3971.7	
775.57	5752.7	
775.74	6243.6	
775.92	3745.1	
776.1	3657.7	
776.27	5763	
776.45	7080.5	
776.63	3906.2	
776.81	3459	
776.98	5342.5	
777.16	6620.4	
777.34	4044.7	
777.51	4099.4	
777.69	5386.8	
777.87	5139	
778.04	4138.3	
778.22	4869.4	
778.4	5178.6	
778.57	5906.3	
778.75	3355.9	
778.93	3698.6	
779.1	4971.1	
779.28	4889.9	
779.46	3435.8	
779.64	4002.4	
779.81	6057.9	
779.99	6984.3	
780.17	4872.1	
780.34	5023	
780.52	5468.8	
780.69	5754.8	
780.87	4353.3	
781.05	3852.2	
781.22	5498.8	
781.4	5640.8	
781.58	4014.7	
781.75	3179.8	
781.93	5587.5	
782.11	4974.5	
782.28	4893.3	
782.46	4078.2	
782.64	4827.7	
782.81	5905.7	
782.99	4134.2	
783.17	4070.7	
783.34	5694.7	
783.52	4855.7	
783.69	4311	
783.87	5210.7	
784.05	4930.1	
784.22	5059.8	
784.4	5214.1	
784.58	4425	
784.75	5939.8	
784.93	4991.6	
785.1	4090.5	
785.28	4788.2	
785.46	5694.7	
785.63	5007.3	
785.81	4022.9	
785.99	3834.5	
786.16	5186.8	
786.34	5605.3	
786.51	3964.9	
786.69	4336.9	
786.87	4806.6	
787.04	5324.7	
787.22	3784	
787.39	4844.1	
787.57	4973.2	
787.75	6221	
787.92	4994.3	
788.1	4930.1	
788.27	5072.1	
788.45	4815.5	
788.63	4613.4	
788.8	3244	
788.98	5417.6	
789.15	4732.9	
789.33	3407.1	
789.5	4056.3	
789.68	6034.7	
789.86	6134.3	
790.03	4627.7	
790.21	3971.7	
790.38	6005.3	
790.56	5225.7	
790.73	3760.8	
790.91	3880.2	
791.09	5008	
791.26	5891.3	
791.44	4062.5	
791.61	3497.9	
791.79	5038	
791.96	5127.4	
792.14	3647.4	
792.32	3164.1	
792.49	5084.4	
792.67	5172.5	
792.84	3726.6	
793.02	3519.8	
793.19	5593	
793.37	6350.8	
793.54	3248.1	
793.72	3623.5	
793.89	6440.9	
794.07	5143.8	
794.25	4265.9	
794.42	3278.8	
794.6	6243.6	
794.77	5825.8	
794.95	4566.3	
795.12	3955.3	
795.3	5062.6	
795.47	5737.7	
795.65	4317.8	
795.82	4178.5	
796	4893.3	
796.17	6997.2	
796.35	4036.5	
796.52	4800.4	
796.7	5683.8	
796.87	5801.9	
797.05	5068.7	
797.22	4933.6	
797.4	5717.2	
797.57	6791.7	
797.75	4218.1	
797.92	3871.3	
798.1	6068.8	
798.27	5154.1	
798.45	3301.3	
798.62	3620.8	
798.8	5442.1	
798.97	5879	
799.15	4388.1	
799.32	4201.7	
799.5	4640	
799.67	5513.1	
799.85	4554.7	
800.02	3221.5	
800.2	5058.5	
800.37	5407.3	
800.55	4751.3	
800.72	3889.1	
800.9	5882.4	
801.07	6388.3	
801.25	5302.9	
801.42	4298	
801.6	5969.8	
801.77	5647.6	
801.95	4046.1	
802.12	3858.4	
802.29	5613.5	
802.47	5603.9	
802.64	4221.5	
802.82	3201.7	
802.99	5023	
803.17	6191	
803.34	4125.3	
803.52	3747.1	
803.69	6866.2	
803.87	4876.2	
804.04	4173.8	
804.21	4252.9	
804.39	6249	
804.56	5302.2	
804.74	3485	
804.91	4313	
805.09	5111.7	
805.26	5247.6	
805.44	3540.9	
805.61	3986.7	
805.78	5836.7	
805.96	5845.6	
806.13	4292.5	
806.31	4750.6	
806.48	4667.3	
806.66	5228.5	
806.83	4339.6	
807	4227	
807.18	5098.8	
807.35	5591.6	
807.53	4201.1	
807.7	3325.2	
807.87	6330.3	
808.05	5206.6	
808.22	4741	
808.4	3351.2	
808.57	5178.6	
808.74	4753.3	
808.92	3861.8	
809.09	4925.4	
809.27	5003.2	
809.44	5678.3	
809.61	3415.3	
809.79	3792.2	
809.96	6284.5	
810.14	5941.2	
810.31	3264.5	
810.48	4113.7	
810.66	5254.4	
810.83	6103.6	
811.01	3834.5	
811.18	4362.2	
811.35	5920	
811.53	4560.8	
811.7	4713.7	
811.87	4387.4	
812.05	5141.8	
812.22	5081.7	
812.39	3703.4	
812.57	3592.1	
812.74	5199.1	
812.92	7046.4	
813.09	4068.6	
813.26	4483.7	
813.44	6675.7	
813.61	5082.4	
813.78	3421.5	
813.96	4589.5	
814.13	5158.8	
814.3	4811.4	
814.48	4999.8	
814.65	4073.4	
814.82	6530.3	
815	4977.2	
815.17	4212.7	
815.34	5091.9	
815.52	5052.3	
815.69	5092.6	
815.87	4187.4	
816.04	3586	
816.21	5231.9	
816.38	4487.8	
816.56	4001.7	
816.73	3781.9	
816.9	6568.5	
817.08	5973.2	
817.25	3784.6	
817.42	4795.7	
817.6	4717.2	
817.77	5241.4	
817.94	4259.8	
818.12	3711.6	
818.29	4795.7	
818.46	7838.3	
818.64	3914.4	
818.81	3677.5	
818.98	4793.6	
819.16	7079.1	
819.33	4549.2	
819.5	4233.8	
819.67	5597.1	
819.85	6206	
820.02	4066.6	
820.19	4362.2	
820.37	5407.3	
820.54	4936.3	
820.71	4223.6	
820.88	5270.1	
821.06	5440.8	
821.23	4969.1	
821.4	4289.8	
821.58	4227	
821.75	5979.4	
821.92	5287.9	
822.09	3398.3	
822.27	3567.6	
822.44	5237.3	
822.61	5031.9	
822.79	3446	
822.96	6654.5	
823.13	5707	
823.3	4897.4	
823.48	3986	
823.65	3543	
823.82	5900.9	
823.99	4724	
824.17	5054.4	
824.34	3654.9	
824.51	6869.6	
824.68	5287.9	
824.86	3794.9	
825.03	4286.4	
825.2	5162.2	
825.37	6326.9	
825.55	3741	
825.72	4217.5	
825.89	7002	
826.06	6447.7	
826.24	4082.3	
826.41	4100	
826.58	6324.1	
826.75	5460.6	
826.92	3278.8	
827.1	3526.6	
827.27	8692.3	
827.44	6965.1	
827.61	3873.4	
827.79	4685.8	
827.96	4961.5	
828.13	5296	
828.3	4021.5	
828.47	3465.8	
828.65	5371.8	
828.82	5326.1	
828.99	5248.9	
829.16	4643.4	
829.34	5789.6	
829.51	5625.8	
829.68	4243.4	
829.85	4373.8	
830.02	6066.8	
830.2	5836.7	
830.37	3269.9	
830.54	5083.1	
830.71	6711.9	
830.88	5193	
831.05	3296.5	
831.23	3818.1	
831.4	6333	
831.57	7189.7	
831.74	3854.3	
831.91	3439.9	
832.09	5450.3	
832.26	5854.5	
832.43	4020.2	
832.6	4595	
832.77	5429.8	
832.94	6233.3	
833.12	3158	
833.29	3941	
833.46	5026.4	
833.63	7478.5	
833.8	4334.9	
833.97	4069.3	
834.15	5795.1	
834.32	5596.4	
834.49	4228.4	
834.66	4330.1	
834.83	6033.3	
835	4909	
835.17	3909.6	
835.35	3916.4	
835.52	5810.8	
835.69	5598.5	
835.86	4027	
836.03	3396.2	
836.2	5739.1	
836.37	5368.4	
836.55	4041.3	
836.72	3799	
836.89	5346.6	
837.06	5824.4	
837.23	4136.9	
837.4	4553.3	
837.57	6624.5	
837.75	7487.4	
837.92	3719.8	
838.09	3949.8	
838.26	5381.4	
838.43	6098.9	
838.6	4289.1	
838.77	3795.6	
838.94	7086	
839.11	6712.6	
839.29	4067.9	
839.46	3192.8	
839.63	5778.7	
839.8	5504.3	
839.97	3887	
840.14	3898.6	
840.31	5552.7	
840.48	5756.2	
840.65	3232.4	
840.82	3834.5	
841	5752.1	
841.17	5729.5	
841.34	3717.7	
841.51	3666.5	
841.68	5717.2	
841.85	5509	
842.02	3755.3	
842.19	3046.7	
842.36	5528.8	
842.53	5499.5	
842.7	3623.5	
842.87	4511	
843.05	7277.1	
843.22	5429.8	
843.39	3431.7	
843.56	3698.6	
843.73	5242.1	
843.9	5874.3	
844.07	5902.2	
844.24	4971.1	
844.41	8639.7	
844.58	5042.8	
844.75	3489.7	
844.92	3764.8	
845.09	5831.2	
845.26	5831.9	
845.43	3603.1	
845.6	3770.3	
845.77	5844.9	
845.94	5515.9	
846.12	3981.9	
846.29	4245.4	
846.46	6025.1	
846.63	5799.8	
846.8	3606.5	
846.97	4270	
847.14	6332.3	
847.31	5690.6	
847.48	3990.1	
847.65	4496	
847.82	6106.4	
847.99	6058.6	
848.16	4868	
848.33	4448.9	
848.5	5374.6	
848.67	6318.7	
848.84	3543.7	
849.01	3750.5	
849.18	5200.5	
849.35	4829.1	
849.52	4520.5	
849.69	3489.1	
849.86	5993.7	
850.03	6236.1	
850.2	3603.1	
850.37	4384	
850.54	6189	
850.71	5486.5	
850.88	4312.3	
851.05	3575.8	
851.22	5705.6	
851.39	6413.6	
851.56	3403	
851.73	4177.2	
851.9	5074.9	
852.07	6016.2	
852.24	3968.3	
852.41	3594.2	
852.58	5630.5	
852.75	5070.1	
852.92	3962.1	
853.09	3512.3	
853.26	5375.9	
853.43	6275	
853.6	3609.9	
853.77	3079.5	
853.94	6376.7	
854.11	5707	
854.28	5400.5	
854.44	3881.6	
854.61	6847	
854.78	6090	
854.95	3574.4	
855.12	4516.5	
855.29	4583.4	
855.46	6638.8	
855.63	3620.8	
855.8	4967.7	
855.97	5335	
856.14	6166.4	
856.31	5157.5	
856.48	3920.5	
856.65	5281	
856.82	4988.2	
856.99	3412.6	
857.16	3895.9	
857.33	7092.8	
857.49	5389.6	
857.66	3842	
857.83	4173.1	
858	5403.9	
858.17	5644.9	
858.34	3407.1	
858.51	3553.2	
858.68	6520	
858.85	6591	
859.02	4190.8	
859.19	4493.9	
859.36	5075.5	
859.52	5139	
859.69	3609.9	
859.86	4248.2	
860.03	5097.4	
860.2	6380.8	
860.37	3256.3	
860.54	3663.1	
860.71	6003.3	
860.88	6471.6	
861.05	4033.8	
861.21	4493.2	
861.38	6543.9	
861.55	4950.6	
861.72	3269.9	
861.89	4017.4	
862.06	6091.3	
862.23	6608.8	
862.4	3491.1	
862.56	3794.9	
862.73	5917.9	
862.9	5621	
863.07	4237.2	
863.24	3230.3	
863.41	4943.1	
863.58	5115.8	
863.75	3688.4	
863.91	4195.6	
864.08	6417.7	
864.25	5935	
864.42	4530.8	
864.59	5055.8	
864.76	6725.5	
864.93	5113.1	
865.09	3517	
865.26	3885	
865.43	6199.9	
865.6	6748.1	
865.77	3106.8	
865.94	3591.5	
866.1	6331	
866.27	6134.3	
866.44	5489.9	
866.61	3396.9	
866.78	5470.8	
866.95	5961.6	
867.11	3435.1	
867.28	3218	
867.45	6130.9	
867.62	5187.5	
867.79	4205.2	
867.96	3616.7	
868.12	5094	
868.29	6153.5	
868.46	3546.4	
868.63	4799.1	
868.8	6230.6	
868.97	6033.3	
869.13	3732.8	
869.3	3770.3	
869.47	5907	
869.64	6163.7	
869.81	3614.7	
869.97	3538.9	
870.14	5799.2	
870.31	6496.8	
870.48	3479.5	
870.65	4555.4	
870.81	5352.7	
870.98	5411.4	
871.15	4028.4	
871.32	3739.6	
871.48	5884.5	
871.65	6591	
871.82	3587.4	
871.99	3922.5	
872.16	7048.4	
872.32	6448.4	
872.49	3550.5	
872.66	3614.7	
872.83	6072.2	
872.99	5244.2	
873.16	4136.9	
873.33	3607.2	
873.5	5700.9	
873.67	5653.8	
873.83	3774.4	
874	4855.1	
874.17	5765.7	
874.34	6916.7	
874.5	4655.7	
874.67	4521.2	
874.84	6514.6	
875.01	5066.7	
875.17	5071.5	
875.34	3608.5	
875.51	5735	
875.68	6951.5	
875.84	4358.8	
876.01	5360.9	
876.18	6002.6	
876.34	5933.6	
876.51	3684.3	
876.68	3523.2	
876.85	5501.5	
877.01	6289.3	
877.18	5143.8	
877.35	3567.6	
877.52	5593.7	
877.68	4981.3	
877.85	3498.6	
878.02	3566.2	
878.18	5564.3	
878.35	5302.9	
878.52	2845.3	
878.69	4007.9	
878.85	6046.3	
879.02	5949.3	
879.19	5109	
879.35	3902.7	
879.52	5976.7	
879.69	6240.8	
879.86	3100.6	
880.02	4002.4	
880.19	5514.5	
880.36	6868.9	
880.52	4155.3	
880.69	4301.4	
880.86	6133	
881.02	6155.5	
881.19	3938.2	
881.36	3936.2	
881.52	5939.1	
881.69	5337	
881.86	3870.7	
882.02	3841.3	
882.19	6241.5	
882.36	7337.2	
882.52	3680.9	
882.69	5139.7	
882.86	5820.3	
883.02	5659.9	
883.19	4400.4	
883.36	4160.8	
883.52	6072.9	
883.69	6965.8	
883.86	3633.8	
884.02	3266.5	
884.19	6044.2	
884.36	5528.8	
884.52	4063.9	
884.69	3774.4	
884.86	5288.5	
885.02	6645.7	
885.19	4046.8	
885.36	4176.5	
885.52	5589.6	
885.69	5731.6	
885.86	5268.1	
886.02	4642.7	
886.19	6050.4	
886.35	5546.6	
886.52	3973.7	
886.69	5067.4	
886.85	5101.5	
887.02	6490	
887.19	6490	
887.35	6490	
887.52	6490	
887.68	6490	
887.85	6490	
888.02	6490	
888.18	6490	
888.35	6490	
888.51	6490	
888.68	6490	
888.85	6490	
889.01	6490	
889.18	6490	
889.35	6490	
889.51	6490	
889.68	6490	
889.84	6490	
890.01	6490	
890.17	6490	
890.34	6490	
890.51	6490	
890.67	6490	
890.84	6490	
891	6490	
891.17	6490	
891.34	6490	
891.5	6490	
891.67	6490	
891.83	6490	
892	6490	
892.16	6490	
892.33	6490	
892.5	6490	
892.66	6490	
892.83	6490	
892.99	6490	
893.16	6490	
893.32	6490	
893.49	6490	
893.65	6490	
893.82	6490	
893.99	6490	
894.15	6490	
894.32	6490	
894.48	6490	
894.65	6490	
894.81	6490	
894.98	6490	
895.14	6490	
895.31	6490	
895.47	6490	
895.64	6490	
895.81	6490	
895.97	6490	
896.14	6490	
896.3	6490	
896.47	6490	
896.63	6490	
896.8	6490	
896.96	6490	
897.13	6490	
897.29	6490	
897.46	6490	
897.62	6490	
897.79	6490	
897.95	6490	
898.12	6490	
898.28	6490	
898.45	6490	
898.61	6490	
898.78	6490	
898.94	6490	
899.11	6490	
899.27	6490	
899.44	6490	
899.6	6490	
899.77	6490	
899.93	6490	
900.1	6490	
900.26	6490	
900.43	6490	
900.59	6490	
900.76	6490	
900.92	6490	
901.09	6490	
901.25	6490	
901.42	6490	
901.58	6490	
901.75	6490	
901.91	6490	
902.07	6490	
902.24	6490	
902.4	6490	
902.57	6490	
902.73	6490	
902.9	6490	
903.06	6490	
903.23	6490	
903.39	6490	
903.56	6490	
903.72	6490	
903.88	6490	
904.05	6490	
904.21	6490	
904.38	6490	
904.54	6490	
904.71	6490	
904.87	6490	
905.03	6490	
905.2	6490	
905.36	6490	
905.53	6490	
905.69	6490	
905.86	6490	
906.02	6490	
906.18	6490	
906.35	6490	
906.51	6490	
906.68	6490	
906.84	6490	
907.01	6490	
907.17	6490	
907.33	6490	
907.5	6490	
907.66	6490	
907.83	6490	
907.99	6490	
908.15	6490	
908.32	6490	
908.48	6490	
908.65	6490	
908.81	6490	
908.97	6490	
909.14	6490	
909.3	6490	
909.47	6490	
909.63	6490	
909.79	6490	
909.96	6490	
910.12	6490	
910.28	6490	
910.45	6490	
910.61	6490	
910.78	6490	
910.94	6490	
911.1	6490	
911.27	6490	
911.43	6490	
911.59	6490	
911.76	6490	
911.92	6490	
912.08	6490	
912.25	6490	
912.41	6490	
912.57	6490	
912.74	6490	
912.9	6490	
913.07	6490	
913.23	6490	
913.39	6490	
913.56	6490	
913.72	6490	
913.88	6490	
914.05	6490	
914.21	6490	
914.37	6490	
914.54	6490	
914.7	6490	
914.86	6490	
915.03	6490	
915.19	6490	
