Wavelength	Intensities	
nm	a.u.	
179.22	1689.1	
179.44	1683.8	
179.65	1694.4	
179.86	1673.2	
180.08	1675.2	
180.29	3944.4	
180.51	3044	
180.72	4964.3	
180.94	5591	
181.15	2736.1	
181.37	2682.2	
181.58	4804.5	
181.79	5031.9	
182.01	2854.2	
182.22	2978.4	
182.44	5025.7	
182.65	4337.6	
182.87	3663.8	
183.08	3265.1	
183.29	5289.9	
183.51	4420.2	
183.72	2979.8	
183.94	4206.5	
184.15	4774.5	
184.37	4650.9	
184.58	2704	
184.79	3548.4	
185.01	4488.5	
185.22	5128.8	
185.44	3701.4	
185.65	3258.3	
185.86	4786.1	
186.08	4378.6	
186.29	2696.5	
186.51	2809.8	
186.72	4538.3	
186.94	5145.2	
187.15	3283.6	
187.36	3276.1	
187.58	6421.7	
187.79	4829.8	
188.01	3386	
188.22	5073.5	
188.43	5675.6	
188.65	5023.7	
188.86	2864.4	
189.08	3286.3	
189.29	4570.4	
189.5	4608.6	
189.72	3072.6	
189.93	3133.4	
190.15	5120.6	
190.36	6000.5	
190.57	3375.7	
190.79	3237.2	
191	5246.2	
191.22	5223	
191.43	3396.9	
191.64	2939.5	
191.86	5393	
192.07	5194.3	
192.29	2936.1	
192.5	3036.5	
192.71	5160.9	
192.93	4653.7	
193.14	3078.8	
193.35	3142.3	
193.57	4599.7	
193.78	5193.6	
194	2539.5	
194.21	2973.7	
194.42	4436.6	
194.64	4767.7	
194.85	3269.9	
195.07	3786.7	
195.28	4771.8	
195.49	4281.6	
195.71	3947.1	
195.92	2868.5	
196.13	4953.4	
196.35	4973.8	
196.56	4098.7	
196.78	3289.7	
196.99	6011.5	
197.2	5608	
197.42	3676.8	
197.63	3300	
197.84	4347.8	
198.06	4935.6	
198.27	3078.8	
198.48	3928.7	
198.7	4605.2	
198.91	4775.9	
199.13	3343.7	
199.34	3345.7	
199.55	5124.7	
199.77	4205.8	
199.98	2950.4	
200.19	3344.3	
200.41	4771.1	
200.62	4467.3	
200.83	3399.6	
201.05	3691.1	
201.26	4706.2	
201.47	4519.2	
201.69	2992.1	
201.9	2936.1	
202.11	4760.2	
202.33	5526.1	
202.54	3171.6	
202.76	3448.1	
202.97	4835.9	
203.18	4922.6	
203.4	3484.3	
203.61	3467.2	
203.82	4834.6	
204.04	4519.9	
204.25	3327.9	
204.46	3287.7	
204.68	4785.4	
204.89	4952.7	
205.1	3244	
205.32	2893.8	
205.53	5016.2	
205.74	5158.8	
205.96	2501.9	
206.17	3392.8	
206.38	4980.7	
206.6	5137.7	
206.81	3735.5	
207.02	3142.3	
207.24	4947.2	
207.45	5216.9	
207.66	3170.9	
207.88	2854.2	
208.09	4917.9	
208.3	4760.8	
208.52	2960	
208.73	3216	
208.94	4768.4	
209.15	5248.9	
209.37	3207.1	
209.58	3347.1	
209.79	5170.4	
210.01	4633.2	
210.22	2615.3	
210.43	2747.7	
210.65	4681.7	
210.86	5024.3	
211.07	3176.4	
211.29	2974.3	
211.5	4979.3	
211.71	4742.4	
211.93	2959.3	
212.14	2993.4	
212.35	4762.9	
212.56	4783.4	
212.78	3392.8	
212.99	2762	
213.2	5429.8	
213.42	4622.9	
213.63	3031	
213.84	3226.9	
214.06	4321.9	
214.27	4405.9	
214.48	3177.1	
214.69	3387.3	
214.91	5310.4	
215.12	5343.2	
215.33	3347.7	
215.55	3674.1	
215.76	5679	
215.97	5036.6	
216.18	3263.8	
216.4	3222.8	
216.61	4532.8	
216.82	5098.1	
217.04	2998.2	
217.25	3051.5	
217.46	5170.4	
217.67	5067.4	
217.89	2669.9	
218.1	2804.4	
218.31	4833.2	
218.53	4895.3	
218.74	3147.7	
218.95	3044.6	
219.16	4806.6	
219.38	5421.7	
219.59	3001.6	
219.8	3553.9	
220.01	5905.7	
220.23	4769.7	
220.44	3812	
220.65	2886.3	
220.87	4834.6	
221.08	5295.4	
221.29	2829.6	
221.5	3558.7	
221.72	6123.4	
221.93	4489.1	
222.14	3371	
222.35	3923.2	
222.57	4789.5	
222.78	5074.2	
222.99	3228.3	
223.2	3391.4	
223.42	4985.4	
223.63	5040.1	
223.84	2523.8	
224.05	2626.9	
224.27	5821.7	
224.48	5413.5	
224.69	3815.4	
224.9	3329.3	
225.12	4928.8	
225.33	4741.7	
225.54	2748.4	
225.75	2985.9	
225.97	4426.3	
226.18	4672.1	
226.39	3276.8	
226.6	3032.4	
226.82	4587.4	
227.03	4440	
227.24	3371.6	
227.45	2806.4	
227.67	5105.6	
227.88	5404.6	
228.09	3708.9	
228.3	3659	
228.52	5046.9	
228.73	4743.8	
228.94	3098.6	
229.15	2837.8	
229.36	4772.4	
229.58	4683.7	
229.79	3168.2	
230	3564.1	
230.21	5536.3	
230.43	4801.1	
230.64	3232.4	
230.85	3396.9	
231.06	5099.4	
231.28	5097.4	
231.49	2836.4	
231.7	3288.4	
231.91	5041.4	
232.12	4765.6	
232.34	2890.4	
232.55	3218	
232.76	5234.6	
232.97	4839.4	
233.18	2956.6	
233.4	3281.5	
233.61	4934.9	
233.82	4591.5	
234.03	3126.6	
234.25	3097.9	
234.46	6292	
234.67	4844.1	
234.88	3388	
235.09	3028.3	
235.31	4880.3	
235.52	4693.3	
235.73	3318.4	
235.94	2843.3	
236.15	4596.3	
236.37	5582.1	
236.58	2977.1	
236.79	3236.5	
237	4961.5	
237.21	4363.5	
237.43	3438.5	
237.64	2770.9	
237.85	7798.7	
238.06	4492.6	
238.27	3470.6	
238.48	2915.6	
238.7	5025.7	
238.91	4675.5	
239.12	3151.8	
239.33	3296.5	
239.54	4659.1	
239.76	4662.5	
239.97	3231.7	
240.18	3228.3	
240.39	5684.5	
240.6	4916.5	
240.82	3353.2	
241.03	2806.4	
241.24	4716.5	
241.45	5395	
241.66	2927.9	
241.87	3458.3	
242.09	5327.4	
242.3	5527.5	
242.51	3487	
242.72	3188.7	
242.93	5079.6	
243.14	4711	
243.36	3607.8	
243.57	3939.6	
243.78	5414.1	
243.99	5005.2	
244.2	3177.8	
244.41	2917.7	
244.63	4484.4	
244.84	4957.4	
245.05	3412.6	
245.26	3186.6	
245.47	5028.4	
245.68	5112.4	
245.9	4052.9	
246.11	3306.8	
246.32	4638	
246.53	4950.6	
246.74	4978.6	
246.95	2775.7	
247.16	4472.1	
247.38	4752	
247.59	2805	
247.8	3239.9	
248.01	4470.7	
248.22	4740.4	
248.43	3032.4	
248.64	3133.4	
248.86	4386.7	
249.07	4614.8	
249.28	2876.7	
249.49	3262.4	
249.7	5208	
249.91	5195	
250.12	2831.7	
250.34	2820.1	
250.55	4871.4	
250.76	4790.9	
250.97	3263.1	
251.18	3327.9	
251.39	5284.4	
251.6	4900.1	
251.81	3336.8	
252.03	3340.2	
252.24	4599.7	
252.45	5166.3	
252.66	2881.5	
252.87	3480.2	
253.08	4803.2	
253.29	5919.3	
253.5	2881.5	
253.72	3814	
253.93	4711	
254.14	5571.8	
254.35	3057.6	
254.56	3143.6	
254.77	4917.9	
254.98	4429.8	
255.19	3097.2	
255.41	3780.6	
255.62	4896	
255.83	5177.9	
256.04	3478.8	
256.25	3321.1	
256.46	5612.8	
256.67	4560.1	
256.88	3299.3	
257.09	3605.8	
257.31	4444.1	
257.52	4500.1	
257.73	4076.1	
257.94	3044	
258.15	4783.4	
258.36	4704.2	
258.57	3786	
258.78	2570.9	
258.99	5145.2	
259.2	4706.9	
259.41	3094.5	
259.63	3173	
259.84	5392.3	
260.05	5600.5	
260.26	3917.8	
260.47	3015.3	
260.68	5244.2	
260.89	4660.5	
261.1	3682.2	
261.31	3000.3	
261.52	5279	
261.73	5459.2	
261.95	3898.6	
262.16	3382.6	
262.37	5220.3	
262.58	5380.7	
262.79	3824.9	
263	3102	
263.21	4859.1	
263.42	4391.5	
263.63	3374.4	
263.84	3145	
264.05	5122.7	
264.26	5411.4	
264.47	3725.9	
264.69	3250.1	
264.9	5330.9	
265.11	4911.7	
265.32	3026.9	
265.53	3037.8	
265.74	4911.7	
265.95	4258.4	
266.16	3268.6	
266.37	3531.4	
266.58	4887.1	
266.79	4620.2	
267	3061	
267.21	2892.4	
267.42	4458.4	
267.63	4741.7	
267.84	3183.9	
268.06	2835.1	
268.27	5137	
268.48	5213.4	
268.69	3174.4	
268.9	3617.4	
269.11	5269.4	
269.32	4294.6	
269.53	3218	
269.74	3059.7	
269.95	4953.4	
270.16	4300.7	
270.37	3222.1	
270.58	3687	
270.79	4689.2	
271	5154.1	
271.21	3371	
271.42	3225.6	
271.63	4929.5	
271.84	4414.1	
272.05	2684.2	
272.26	2921.1	
272.47	4790.2	
272.68	4885.8	
272.89	3104	
273.11	3465.2	
273.32	4566.3	
273.53	5416.2	
273.74	3408.5	
273.95	3373.7	
274.16	5137.7	
274.37	4786.1	
274.58	3497.9	
274.79	2924.5	
275	4911	
275.21	5201.8	
275.42	4166.3	
275.63	3588	
275.84	5012.7	
276.05	6059.3	
276.26	3348.4	
276.47	3142.9	
276.68	4724.7	
276.89	5483.1	
277.1	3548.4	
277.31	2931.3	
277.52	4948.6	
277.73	5189.6	
277.94	2826.9	
278.15	3075.4	
278.36	4962.9	
278.57	4559.5	
278.78	3119.7	
278.99	3435.1	
279.2	4616.8	
279.41	4472.8	
279.62	3978.5	
279.83	2898.6	
280.04	5595.1	
280.25	4533.5	
280.46	3908.9	
280.67	3191.4	
280.88	4551.3	
281.09	5240.8	
281.3	3385.3	
281.51	4078.9	
281.72	4577.9	
281.93	5128.1	
282.14	3059.7	
282.35	3251.5	
282.56	5221	
282.77	5122	
282.98	3177.8	
283.19	3696.6	
283.4	6103.6	
283.61	4772.4	
283.82	2912.2	
284.03	3883.6	
284.24	4948.6	
284.45	5197.7	
284.66	3946.4	
284.87	3685	
285.08	5206.6	
285.29	5286.5	
285.5	2824.1	
285.71	3154.6	
285.92	5203.9	
286.12	5687.2	
286.33	3869.3	
286.54	3166.8	
286.75	5110.4	
286.96	4709	
287.17	2952.5	
287.38	3730.7	
287.59	4575.2	
287.8	4530.8	
288.01	3166.8	
288.22	3609.9	
288.43	5029.8	
288.64	4302.8	
288.85	3693.2	
289.06	3520.5	
289.27	5115.1	
289.48	5418.2	
289.69	3885.7	
289.9	3553.9	
290.11	5308.3	
290.32	4561.5	
290.53	3667.9	
290.74	3390.8	
290.94	5109.7	
291.15	5128.8	
291.36	3072	
291.57	3575.1	
291.78	4635.2	
291.99	4350.6	
292.2	2994.1	
292.41	3493.8	
292.62	5199.8	
292.83	5029.8	
293.04	4164.2	
293.25	2998.2	
293.46	4663.2	
293.67	5188.9	
293.88	3046.7	
294.09	2949.8	
294.29	4498.7	
294.5	4917.9	
294.71	3199.6	
294.92	3072.6	
295.13	4664.6	
295.34	5622.4	
295.55	2783.9	
295.76	2754.5	
295.97	5135.6	
296.18	5595.7	
296.39	2885.6	
296.6	3055.6	
296.81	4854.4	
297.01	5055.8	
297.22	3173	
297.43	3030.3	
297.64	4594.3	
297.85	4513.7	
298.06	2678.1	
298.27	2762	
298.48	4775.2	
298.69	4604.5	
298.9	3292.5	
299.11	3007.8	
299.31	4489.1	
299.52	4487.1	
299.73	3457.7	
299.94	3396.9	
300.15	4840.7	
300.36	4548.5	
300.57	3422.8	
300.78	3353.2	
300.99	4620.9	
301.2	4823.6	
301.4	3072.6	
301.61	3295.9	
301.82	5047.6	
302.03	5096.7	
302.24	3615.3	
302.45	2915.6	
302.66	4994.3	
302.87	5290.6	
303.08	3109.5	
303.29	3958	
303.49	4640.7	
303.7	4782.7	
303.91	2801.6	
304.12	3794.9	
304.33	4462.5	
304.54	4863.2	
304.75	3085.6	
304.96	2971.6	
305.16	5053.7	
305.37	5588.9	
305.58	2745.6	
305.79	2805	
306	5046.2	
306.21	4325.3	
306.42	3050.8	
306.63	4464.6	
306.83	4655	
307.04	5131.5	
307.25	3340.9	
307.46	3248.1	
307.67	4280.3	
307.88	5046.2	
308.09	3105.4	
308.29	3091.1	
308.5	4842.8	
308.71	5169.8	
308.92	3265.1	
309.13	2920.4	
309.34	4731.5	
309.55	4752	
309.75	3719.1	
309.96	3429.7	
310.17	5117.2	
310.38	4586.8	
310.59	3505.4	
310.8	2857.6	
311.01	4731.5	
311.21	4769.7	
311.42	2983.2	
311.63	3025.5	
311.84	4589.5	
312.05	4804.5	
312.26	3329.3	
312.46	3624.2	
312.67	4671.4	
312.88	4425	
313.09	2921.1	
313.3	2907.4	
313.51	5381.4	
313.71	5656.5	
313.92	2969.6	
314.13	3119.7	
314.34	4956.8	
314.55	4709	
314.76	3666.5	
314.96	3243.3	
315.17	4934.9	
315.38	5066.7	
315.59	3009.8	
315.8	2882.2	
316.01	5344.5	
316.21	5497.4	
316.42	2902	
316.63	3226.2	
316.84	4717.8	
317.05	5306.3	
317.26	3415.3	
317.46	3102	
317.67	4757.4	
317.88	5098.8	
318.09	3675.4	
318.3	2784.6	
318.5	4640	
318.71	5011.4	
318.92	4489.8	
319.13	3416.7	
319.34	5152.7	
319.54	5225.1	
319.75	2795.5	
319.96	2666.5	
320.17	5032.5	
320.38	5193	
320.58	2712.9	
320.79	3229.6	
321	5204.6	
321.21	5303.6	
321.42	3241.9	
321.62	2791.4	
321.83	4506.9	
322.04	4795.7	
322.25	3148.4	
322.46	2968.9	
322.66	4878.3	
322.87	5005.2	
323.08	3528.7	
323.29	2884.2	
323.5	5580	
323.7	4413.4	
323.91	3904.1	
324.12	3508.2	
324.33	4913.1	
324.53	5049.6	
324.74	3431.7	
324.95	3580.5	
325.16	4364.2	
325.37	4618.9	
325.57	2954.5	
325.78	2994.8	
325.99	4928.1	
326.2	4390.8	
326.4	4025.6	
326.61	2768.2	
326.82	4752	
327.03	4874.2	
327.24	4074.1	
327.44	3769.6	
327.65	5004.6	
327.86	4174.4	
328.07	3401	
328.27	2890.4	
328.48	5268.7	
328.69	4531.5	
328.9	4094.6	
329.1	3121.1	
329.31	4730.8	
329.52	5434.6	
329.73	2988	
329.93	3288.4	
330.14	4833.2	
330.35	4898.1	
330.56	4622.9	
330.76	3536.2	
330.97	4622.9	
331.18	4933.6	
331.39	3329.3	
331.59	2720.4	
331.8	5216.2	
332.01	5365.7	
332.22	3123.2	
332.42	3389.4	
332.63	4874.2	
332.84	4526.7	
333.05	3293.8	
333.25	3035.8	
333.46	4614.1	
333.67	4807.9	
333.88	3153.9	
334.08	3347.1	
334.29	6148	
334.5	5276.9	
334.7	2906.1	
334.91	4003.8	
335.12	4406.5	
335.33	5083.1	
335.53	3271.3	
335.74	4553.3	
335.95	4713.1	
336.16	4472.8	
336.36	3187.3	
336.57	3704.8	
336.78	4443.4	
336.98	5238	
337.19	3965.6	
337.4	3212.6	
337.61	5640.8	
337.81	4428.4	
338.02	3080.8	
338.23	3820.8	
338.43	5410.1	
338.64	4600.4	
338.85	2986.6	
339.05	3808.5	
339.26	5500.2	
339.47	4395.6	
339.68	3005.1	
339.88	4229.7	
340.09	5040.7	
340.3	5157.5	
340.5	3418.7	
340.71	2717	
340.92	4502.8	
341.13	5357.5	
341.33	2902	
341.54	3356.6	
341.75	4960.2	
341.95	4704.2	
342.16	3311.6	
342.37	3592.8	
342.57	4472.8	
342.78	4748.6	
342.99	3581.2	
343.19	2742.2	
343.4	5094.7	
343.61	5027.8	
343.81	3186.6	
344.02	2937.5	
344.23	5109.7	
344.43	5362.3	
344.64	3674.1	
344.85	3497.2	
345.06	5087.8	
345.26	5243.5	
345.47	3475.4	
345.68	3969.6	
345.88	4391.5	
346.09	5184.8	
346.3	3495.2	
346.5	2711.5	
346.71	4816.1	
346.92	4595.6	
347.12	2938.2	
347.33	3367.5	
347.54	5160.9	
347.74	5498.8	
347.95	3465.2	
348.16	2693.1	
348.36	4703.5	
348.57	4537.6	
348.78	3460.4	
348.98	3645.4	
349.19	4841.4	
349.39	4403.1	
349.6	2895.8	
349.81	3110.9	
350.01	5075.5	
350.22	4621.6	
350.43	3358	
350.63	3861.1	
350.84	4844.1	
351.05	4671.4	
351.25	3139.5	
351.46	2798.9	
351.67	5291.3	
351.87	4577.9	
352.08	3267.2	
352.29	3673.4	
352.49	5208	
352.7	5246.2	
352.9	3046	
353.11	3639.9	
353.32	5706.3	
353.52	4732.9	
353.73	2999.6	
353.94	3672	
354.14	5130.8	
354.35	4940.4	
354.55	3135.4	
354.76	3377.1	
354.97	5130.8	
355.17	4922.6	
355.38	3044	
355.59	3955.3	
355.79	4734.2	
356	4947.9	
356.2	3452.9	
356.41	3044.6	
356.62	4633.2	
356.82	4909	
357.03	3569.6	
357.24	3362.1	
357.44	4747.2	
357.65	4819.6	
357.85	4259.8	
358.06	3508.9	
358.27	4571.1	
358.47	4716.5	
358.68	3062.4	
358.88	3641.3	
359.09	5221	
359.3	5440.1	
359.5	4237.9	
359.71	3778.5	
359.91	5791.7	
360.12	5244.8	
360.33	3736.9	
360.53	4094.6	
360.74	4943.8	
360.94	4927.4	
361.15	3904.1	
361.36	3437.2	
361.56	5578.7	
361.77	5085.8	
361.97	4237.9	
362.18	3586	
362.38	5563.6	
362.59	4890.5	
362.8	3360	
363	3318.4	
363.21	4766.3	
363.41	5229.8	
363.62	3841.3	
363.83	4527.4	
364.03	5401.2	
364.24	5984.2	
364.44	4699.4	
364.65	4631.8	
364.85	5225.1	
365.06	4977.9	
365.27	3619.4	
365.47	3670.6	
365.68	5988.3	
365.88	5249.6	
366.09	3988.1	
366.29	3743.7	
366.5	5390.9	
366.71	5730.9	
366.91	4729.4	
367.12	4146.5	
367.32	6270.2	
367.53	5653.8	
367.73	4162.2	
367.94	4904.2	
368.14	5714.5	
368.35	6258.6	
368.56	4128	
368.76	3728	
368.97	5842.9	
369.17	6946.7	
369.38	3796.3	
369.58	3989.4	
369.79	5038.7	
369.99	6046.3	
370.2	4774.5	
370.4	4061.1	
370.61	5646.2	
370.82	6463.4	
371.02	4030.4	
371.23	3494.5	
371.43	5075.5	
371.64	6060.6	
371.84	4096.6	
372.05	4976.6	
372.25	6981.5	
372.46	5829.2	
372.66	4230.4	
372.87	4194.2	
373.07	6023.1	
373.28	7225.9	
373.48	4952	
373.69	4848.9	
373.9	5709.1	
374.1	5812.1	
374.31	5093.3	
374.51	4698.7	
374.72	6409.5	
374.92	5634.6	
375.13	5278.3	
375.33	4631.1	
375.54	6184.9	
375.74	5885.9	
375.95	4818.2	
376.15	5720	
376.36	6423.1	
376.56	6289.3	
376.77	4926.7	
376.97	5259.2	
377.18	7275.1	
377.38	6533	
377.59	5616.9	
377.79	4724	
378	6444.3	
378.2	6716	
378.41	4803.2	
378.61	4805.9	
378.82	6844.3	
379.02	6283.9	
379.23	5133.6	
379.43	5863.3	
379.64	7060.7	
379.84	6835.4	
380.05	4950.6	
380.25	4888.5	
380.46	6809.5	
380.66	6455.2	
380.87	5877	
381.07	6000.5	
381.28	7258.7	
381.48	6752.2	
381.69	4921.3	
381.89	4959.5	
382.1	5960.3	
382.3	6830.7	
382.51	5725.4	
382.71	6378.7	
382.91	6645.7	
383.12	7126.9	
383.32	5121.3	
383.53	5248.9	
383.73	6554.2	
383.94	6569.9	
384.14	5281.7	
384.35	4592.2	
384.55	6354.8	
384.76	6697.5	
384.96	5218.2	
385.17	5287.9	
385.37	6646.3	
385.58	6111.1	
385.78	5267.4	
385.98	4521.2	
386.19	6176	
386.39	6613.6	
386.6	4895.3	
386.8	5039.4	
387.01	6696.9	
387.21	6724.2	
387.42	5470.1	
387.62	5935	
387.83	6361.7	
388.03	6679.1	
388.23	5427.1	
388.44	5995.8	
388.64	6199.2	
388.85	6389.7	
389.05	5700.2	
389.26	6213.5	
389.46	7907.2	
389.67	7470.3	
389.87	5858.6	
390.07	5868.1	
390.28	6945.3	
390.48	6631.3	
390.69	5401.2	
390.89	5640.1	
391.1	6774	
391.3	7505.1	
391.5	6432	
391.71	6944.7	
391.91	7307.2	
392.12	7975.5	
392.32	6568.5	
392.53	6027.9	
392.73	6966.5	
392.93	6991.8	
393.14	5767.8	
393.34	6314.6	
393.55	7302.4	
393.75	6959	
393.95	5702.2	
394.16	5623.7	
394.36	6867.5	
394.57	7273	
394.77	5332.2	
394.98	5500.2	
395.18	6878.4	
395.38	6997.9	
395.59	6339.8	
395.79	5767.8	
396	7109.2	
396.2	7514.7	
396.4	6475	
396.61	6565.1	
396.81	7836.9	
397.02	7324.2	
397.22	6935.1	
397.42	6948.1	
397.63	8064.9	
397.83	7579.5	
398.04	6124.8	
398.24	6687.3	
398.44	7787.1	
398.65	7325.6	
398.85	6159.6	
399.05	6195.1	
399.26	7863.5	
399.46	8954.4	
399.67	6568.5	
399.87	6371.9	
400.07	8032.8	
400.28	8340.7	
400.48	6567.2	
400.69	7450.5	
400.89	8656.8	
401.09	8910.7	
401.3	6750.1	
401.5	7491.5	
401.7	9368.8	
401.91	9506.7	
402.11	7240.3	
402.32	7258	
402.52	9026.1	
402.72	8705.9	
402.93	7491.5	
403.13	6553.5	
403.33	9365.4	
403.54	7968	
403.74	6914.6	
403.94	7329	
404.15	7925.6	
404.35	8798.1	
404.56	6470.2	
404.76	7720.8	
404.96	8246.5	
405.17	8056.7	
405.37	7594.6	
405.57	7193.8	
405.78	8757.8	
405.98	8209.6	
406.18	7129	
406.39	7590.5	
406.59	8827.4	
406.79	8490.2	
407	6796.5	
407.2	6943.3	
407.4	9002.2	
407.61	8873.8	
407.81	6930.3	
408.01	8507.3	
408.22	8166.6	
408.42	9718.3	
408.62	8248.5	
408.83	8129.1	
409.03	9288.9	
409.23	9383.1	
409.44	8585.1	
409.64	8826.1	
409.84	10743	
410.05	10860	
410.25	9308.7	
410.45	9052	
410.66	10968	
410.86	12643	
411.06	10084	
411.27	9744.2	
411.47	13032	
411.67	11395	
411.88	10109	
412.08	10735	
412.28	12186	
412.49	12566	
412.69	10563	
412.89	10673	
413.09	12560	
413.3	12639	
413.5	10912	
413.7	10670	
413.91	12099	
414.11	13007	
414.31	10989	
414.52	11594	
414.72	12729	
414.92	12893	
415.12	11055	
415.33	11677	
415.53	13342	
415.73	13538	
415.94	11935	
416.14	11587	
416.34	12793	
416.55	12404	
416.75	12491	
416.95	12168	
417.15	13779	
417.36	13741	
417.56	13158	
417.76	12284	
417.97	13898	
418.17	14029	
418.37	12066	
418.57	12439	
418.78	13930	
418.98	13597	
419.18	13076	
419.38	12858	
419.59	13824	
419.79	13193	
419.99	12058	
420.2	12303	
420.4	14056	
420.6	13766	
420.8	12013	
421.01	11921	
421.21	14062	
421.41	14076	
421.61	12409	
421.82	12375	
422.02	13939	
422.22	14281	
422.42	12921	
422.63	12136	
422.83	13824	
423.03	14844	
423.23	12505	
423.44	11806	
423.64	13791	
423.84	13218	
424.04	12114	
424.25	11832	
424.45	14138	
424.65	14042	
424.85	11512	
425.06	11996	
425.26	14304	
425.46	13473	
425.66	12287	
425.87	12058	
426.07	13905	
426.27	13814	
426.47	12242	
426.67	11675	
426.88	14163	
427.08	13745	
427.28	12614	
427.48	11479	
427.69	12794	
427.89	13353	
428.09	12343	
428.29	11624	
428.5	13756	
428.7	13553	
428.9	11794	
429.1	12015	
429.3	13648	
429.51	14064	
429.71	11781	
429.91	12654	
430.11	14218	
430.31	14738	
430.52	12513	
430.72	13000	
430.92	14811	
431.12	14435	
431.32	12669	
431.53	12684	
431.73	13871	
431.93	14857	
432.13	12283	
432.33	12424	
432.54	14098	
432.74	14403	
432.94	12646	
433.14	13130	
433.34	14609	
433.55	14817	
433.75	13338	
433.95	15291	
434.15	14836	
434.35	14792	
434.56	12982	
434.76	13140	
434.96	15102	
435.16	15603	
435.36	13417	
435.56	14441	
435.77	15266	
435.97	15406	
436.17	15060	
436.37	14552	
436.57	15307	
436.78	15728	
436.98	14093	
437.18	14969	
437.38	16537	
437.58	15469	
437.78	15014	
437.99	14135	
438.19	15859	
438.39	16709	
438.59	14098	
438.79	13454	
438.99	16159	
439.2	15342	
439.4	13028	
439.6	13273	
439.8	15229	
440	16191	
440.2	14358	
440.4	14412	
440.61	16337	
440.81	16903	
441.01	14611	
441.21	15591	
441.41	17868	
441.61	17086	
441.81	16206	
442.02	16959	
442.22	18079	
442.42	17512	
442.62	15552	
442.82	15085	
443.02	17830	
443.22	17462	
443.43	15855	
443.63	15211	
443.83	16845	
444.03	17222	
444.23	16848	
444.43	16363	
444.63	18023	
444.83	18514	
445.04	16371	
445.24	17117	
445.44	17986	
445.64	18228	
445.84	16303	
446.04	16769	
446.24	17426	
446.44	18245	
446.65	15335	
446.85	16305	
447.05	16767	
447.25	17703	
447.45	15743	
447.65	15404	
447.85	17432	
448.05	16631	
448.25	16325	
448.46	16094	
448.66	17480	
448.86	17037	
449.06	15593	
449.26	16194	
449.46	17961	
449.66	16986	
449.86	16439	
450.06	16213	
450.26	17604	
450.47	18024	
450.67	16296	
450.87	16909	
451.07	18215	
451.27	18275	
451.47	16115	
451.67	16996	
451.87	18264	
452.07	18424	
452.27	16842	
452.47	16425	
452.67	18140	
452.88	18862	
453.08	15834	
453.28	17707	
453.48	19817	
453.68	18015	
453.88	17011	
454.08	16789	
454.28	18994	
454.48	18473	
454.68	17257	
454.88	17484	
455.08	18801	
455.28	19384	
455.48	16484	
455.68	17700	
455.89	20013	
456.09	19896	
456.29	17569	
456.49	18379	
456.69	20463	
456.89	19582	
457.09	18628	
457.29	19369	
457.49	20157	
457.69	20489	
457.89	19329	
458.09	18338	
458.29	20721	
458.49	21314	
458.69	19775	
458.89	19559	
459.09	22068	
459.29	22036	
459.49	19570	
459.69	20404	
459.9	21423	
460.1	21948	
460.3	19283	
460.5	19430	
460.7	21859	
460.9	21481	
461.1	19138	
461.3	20625	
461.5	22622	
461.7	22231	
461.9	20559	
462.1	20502	
462.3	22426	
462.5	23085	
462.7	20858	
462.9	21249	
463.1	23848	
463.3	24411	
463.5	21525	
463.7	23166	
463.9	23654	
464.1	24070	
464.3	23029	
464.5	22529	
464.7	24904	
464.9	25398	
465.1	24254	
465.3	23571	
465.5	25075	
465.7	25648	
465.9	24146	
466.1	22950	
466.3	25989	
466.5	25080	
466.7	25361	
466.9	23858	
467.1	25957	
467.3	26452	
467.5	25600	
467.7	24548	
467.9	26964	
468.1	27816	
468.3	24873	
468.5	25815	
468.7	26715	
468.9	26343	
469.1	25335	
469.3	26397	
469.5	28498	
469.7	27009	
469.9	25411	
470.1	25783	
470.3	27217	
470.5	27052	
470.7	26673	
470.9	25474	
471.1	27334	
471.3	26604	
471.5	25698	
471.69	26766	
471.89	26621	
472.09	26166	
472.29	26220	
472.49	25456	
472.69	26796	
472.89	26863	
473.09	25575	
473.29	24742	
473.49	26425	
473.69	26206	
473.89	25627	
474.09	25022	
474.29	27213	
474.49	26690	
474.69	25776	
474.89	24972	
475.09	26234	
475.29	26565	
475.49	24247	
475.69	25189	
475.88	26992	
476.08	26713	
476.28	24901	
476.48	24449	
476.68	26542	
476.88	26222	
477.08	24237	
477.28	24901	
477.48	25630	
477.68	25747	
477.88	24323	
478.08	24362	
478.28	26757	
478.48	25800	
478.67	24688	
478.87	23575	
479.07	27230	
479.27	25930	
479.47	24901	
479.67	25114	
479.87	26842	
480.07	27204	
480.27	24517	
480.47	25435	
480.67	26197	
480.87	27185	
481.06	24647	
481.26	25595	
481.46	26614	
481.66	26557	
481.86	25296	
482.06	25977	
482.26	26527	
482.46	26951	
482.66	25225	
482.86	25156	
483.05	26972	
483.25	26265	
483.45	26985	
483.65	25387	
483.85	26788	
484.05	27023	
484.25	25751	
484.45	26725	
484.65	27643	
484.84	28373	
485.04	25729	
485.24	25862	
485.44	28317	
485.64	27106	
485.84	26082	
486.04	26970	
486.24	27671	
486.44	27926	
486.63	26057	
486.83	27030	
487.03	28240	
487.23	28672	
487.43	26299	
487.63	28276	
487.83	28670	
488.02	29352	
488.22	27841	
488.42	28672	
488.62	29782	
488.82	28956	
489.02	27268	
489.22	28246	
489.41	29427	
489.61	29935	
489.81	27510	
490.01	27841	
490.21	30071	
490.41	30775	
490.61	28127	
490.8	28111	
491	30100	
491.2	29191	
491.4	28409	
491.6	27977	
491.8	29545	
491.99	29196	
492.19	27212	
492.39	27505	
492.59	29403	
492.79	29489	
492.99	28041	
493.18	27492	
493.38	29864	
493.58	31226	
493.78	28796	
493.98	28557	
494.18	30639	
494.37	31064	
494.57	30416	
494.77	30203	
494.97	32247	
495.17	32864	
495.37	30897	
495.56	31092	
495.76	33652	
495.96	33675	
496.16	32503	
496.36	32286	
496.55	34400	
496.75	34242	
496.95	32716	
497.15	32737	
497.35	34331	
497.54	34704	
497.74	32357	
497.94	33834	
498.14	35138	
498.34	34880	
498.53	32694	
498.73	32920	
498.93	34691	
499.13	35157	
499.33	33548	
499.52	33322	
499.72	35895	
499.92	35437	
500.12	33552	
500.32	33958	
500.51	35786	
500.71	36174	
500.91	34783	
501.11	34421	
501.31	36356	
501.5	36246	
501.7	35163	
501.9	34303	
502.1	35573	
502.29	36072	
502.49	35048	
502.69	34744	
502.89	36220	
503.09	36420	
503.28	33413	
503.48	33527	
503.68	34979	
503.88	35067	
504.07	34140	
504.27	33202	
504.47	35230	
504.67	34792	
504.86	33947	
505.06	33499	
505.26	34630	
505.46	35751	
505.65	33161	
505.85	33191	
506.05	34108	
506.25	34461	
506.44	31852	
506.64	32248	
506.84	33486	
507.04	33797	
507.23	31627	
507.43	31918	
507.63	34443	
507.83	33454	
508.02	32096	
508.22	31819	
508.42	34973	
508.62	33400	
508.81	31776	
509.01	32836	
509.21	32628	
509.4	33480	
509.6	31800	
509.8	31547	
510	32894	
510.19	34439	
510.39	31455	
510.59	31647	
510.79	33161	
510.98	34549	
511.18	32235	
511.38	32473	
511.57	34145	
511.77	34096	
511.97	32599	
512.17	31819	
512.36	34215	
512.56	33579	
512.76	31524	
512.95	31288	
513.15	33856	
513.35	32887	
513.55	32096	
513.74	31453	
513.94	33616	
514.14	33374	
514.33	32377	
514.53	32154	
514.73	33606	
514.92	33727	
515.12	32106	
515.32	31984	
515.51	33953	
515.71	34176	
515.91	33111	
516.11	32264	
516.3	35404	
516.5	33875	
516.7	32670	
516.89	33334	
517.09	33918	
517.29	34138	
517.48	33081	
517.68	32448	
517.88	33734	
518.07	34335	
518.27	32967	
518.47	31904	
518.66	34460	
518.86	33558	
519.06	31533	
519.25	32227	
519.45	33730	
519.65	35099	
519.84	32934	
520.04	33744	
520.24	35504	
520.43	34420	
520.63	32638	
520.83	32672	
521.02	33923	
521.22	34329	
521.42	32496	
521.61	33063	
521.81	33439	
522.01	33276	
522.2	32049	
522.4	31480	
522.6	33882	
522.79	33187	
522.99	32097	
523.18	32296	
523.38	34280	
523.58	34641	
523.77	34226	
523.97	33249	
524.17	36735	
524.36	36375	
524.56	34678	
524.76	34744	
524.95	36427	
525.15	36108	
525.34	35221	
525.54	35753	
525.74	37504	
525.93	37085	
526.13	36939	
526.33	36641	
526.52	38565	
526.72	38230	
526.91	37573	
527.11	37216	
527.31	38726	
527.5	39155	
527.7	37152	
527.89	36584	
528.09	38237	
528.29	39095	
528.48	37231	
528.68	36960	
528.87	39062	
529.07	38899	
529.27	37627	
529.46	37808	
529.66	39780	
529.85	40275	
530.05	37881	
530.25	38461	
530.44	41114	
530.64	39673	
530.83	37861	
531.03	38295	
531.23	39553	
531.42	39115	
531.62	38083	
531.81	37602	
532.01	39955	
532.21	40448	
532.4	38723	
532.6	39274	
532.79	41390	
532.99	41842	
533.18	40304	
533.38	40740	
533.58	42242	
533.77	42344	
533.97	41049	
534.16	41363	
534.36	43011	
534.55	42610	
534.75	41411	
534.95	41009	
535.14	43781	
535.34	42811	
535.53	41089	
535.73	42618	
535.92	44211	
536.12	42507	
536.31	40902	
536.51	41781	
536.71	42516	
536.9	41944	
537.1	40363	
537.29	40809	
537.49	42405	
537.68	42035	
537.88	41092	
538.07	40326	
538.27	42572	
538.46	43110	
538.66	40466	
538.86	41095	
539.05	42579	
539.25	42777	
539.44	42178	
539.64	40783	
539.83	42589	
540.03	43437	
540.22	41336	
540.42	40593	
540.61	42276	
540.81	42750	
541	40276	
541.2	41372	
541.39	41477	
541.59	41955	
541.78	41450	
541.98	39985	
542.18	41648	
542.37	41376	
542.57	39869	
542.76	41155	
542.96	40811	
543.15	41345	
543.35	39660	
543.54	39176	
543.74	40946	
543.93	40837	
544.13	38817	
544.32	39492	
544.52	40187	
544.71	39701	
544.91	37833	
545.1	38451	
545.3	39804	
545.49	40206	
545.69	37614	
545.88	38027	
546.08	41400	
546.27	40334	
546.47	38558	
546.66	37855	
546.86	39914	
547.05	40266	
547.24	37884	
547.44	38164	
547.63	39030	
547.83	40114	
548.02	38253	
548.22	38249	
548.41	39027	
548.61	39899	
548.8	37416	
549	37562	
549.19	39034	
549.39	39604	
549.58	37093	
549.78	37411	
549.97	39188	
550.17	38625	
550.36	37406	
550.55	38353	
550.75	38480	
550.94	39024	
551.14	36498	
551.33	36448	
551.53	37589	
551.72	38473	
551.92	36389	
552.11	36521	
552.31	38295	
552.5	38008	
552.69	37547	
552.89	35951	
553.08	38253	
553.28	37775	
553.47	36169	
553.67	37232	
553.86	38090	
554.06	36973	
554.25	35039	
554.44	35891	
554.64	38537	
554.83	38325	
555.03	35578	
555.22	35887	
555.42	37542	
555.61	37669	
555.8	35715	
556	35550	
556.19	36871	
556.39	37297	
556.58	35185	
556.78	35181	
556.97	36832	
557.16	37042	
557.36	36128	
557.55	35336	
557.75	36065	
557.94	37855	
558.13	34995	
558.33	35035	
558.52	37604	
558.72	36608	
558.91	35103	
559.1	35022	
559.3	36377	
559.49	35908	
559.69	34529	
559.88	35310	
560.07	36409	
560.27	36846	
560.46	35031	
560.66	35210	
560.85	36341	
561.04	35480	
561.24	34536	
561.43	34302	
561.63	35867	
561.82	35876	
562.01	35287	
562.21	34312	
562.4	35876	
562.59	36936	
562.79	34228	
562.98	34267	
563.18	36074	
563.37	37386	
563.56	34932	
563.76	34933	
563.95	36420	
564.14	36214	
564.34	35149	
564.53	34773	
564.73	36721	
564.92	37129	
565.11	35243	
565.31	35215	
565.5	37390	
565.69	36455	
565.89	35564	
566.08	35712	
566.27	37427	
566.47	38016	
566.66	36188	
566.85	35308	
567.05	37481	
567.24	37124	
567.44	35605	
567.63	36696	
567.82	37795	
568.02	37560	
568.21	35669	
568.4	36000	
568.6	37482	
568.79	37497	
568.98	35587	
569.18	35680	
569.37	37797	
569.56	39335	
569.76	36515	
569.95	37176	
570.14	37943	
570.34	38512	
570.53	36319	
570.72	36486	
570.91	38854	
571.11	37936	
571.3	36767	
571.49	37104	
571.69	38350	
571.88	37849	
572.07	37190	
572.27	37095	
572.46	38028	
572.65	38522	
572.85	36794	
573.04	36949	
573.23	39083	
573.43	38395	
573.62	36787	
573.81	37285	
574	38752	
574.2	38607	
574.39	37521	
574.58	37726	
574.78	40174	
574.97	39690	
575.16	38447	
575.36	38825	
575.55	40668	
575.74	40557	
575.93	38120	
576.13	39453	
576.32	39946	
576.51	40826	
576.71	38539	
576.9	39835	
577.09	40961	
577.28	40643	
577.48	39133	
577.67	38222	
577.86	40309	
578.05	40847	
578.25	38896	
578.44	39045	
578.63	40336	
578.83	41512	
579.02	38371	
579.21	39974	
579.4	40849	
579.6	40881	
579.79	39494	
579.98	41155	
580.17	41230	
580.37	41496	
580.56	38716	
580.75	39670	
580.94	41473	
581.14	41198	
581.33	40058	
581.52	38790	
581.71	41128	
581.91	41497	
582.1	39256	
582.29	39211	
582.48	41054	
582.68	41360	
582.87	39837	
583.06	40007	
583.25	41467	
583.45	41219	
583.64	40633	
583.83	41256	
584.02	41250	
584.21	41844	
584.41	40232	
584.6	40246	
584.79	41682	
584.98	42398	
585.18	39737	
585.37	39836	
585.56	41409	
585.75	41912	
585.94	39253	
586.14	40343	
586.33	41625	
586.52	41379	
586.71	39521	
586.91	39514	
587.1	40014	
587.29	41062	
587.48	38587	
587.67	38724	
587.87	40524	
588.06	40087	
588.25	39251	
588.44	38619	
588.63	39443	
588.83	40147	
589.02	37810	
589.21	37597	
589.4	38756	
589.59	39273	
589.78	36236	
589.98	36313	
590.17	37242	
590.36	37545	
590.55	34397	
590.74	34326	
590.94	37087	
591.13	35519	
591.32	33514	
591.51	32912	
591.7	35370	
591.89	35195	
592.09	33094	
592.28	33628	
592.47	34745	
592.66	36913	
592.85	33936	
593.05	34114	
593.24	35862	
593.43	36545	
593.62	34270	
593.81	34559	
594	35938	
594.19	35973	
594.39	34184	
594.58	34029	
594.77	35955	
594.96	36450	
595.15	33908	
595.34	34492	
595.54	35616	
595.73	34994	
595.92	33015	
596.11	33589	
596.3	35561	
596.49	34935	
596.68	33024	
596.88	33284	
597.07	35189	
597.26	34442	
597.45	32744	
597.64	33918	
597.83	34846	
598.02	35215	
598.22	32932	
598.41	33361	
598.6	34951	
598.79	34466	
598.98	33003	
599.17	33755	
599.36	34691	
599.55	35369	
599.74	34409	
599.94	34011	
600.13	34913	
600.32	33954	
600.51	32513	
600.7	32499	
600.89	35307	
601.08	35370	
601.27	32272	
601.47	32928	
601.66	34730	
601.85	35037	
602.04	32923	
602.23	32520	
602.42	34026	
602.61	34349	
602.8	32387	
602.99	32181	
603.18	34143	
603.37	34090	
603.57	32115	
603.76	32718	
603.95	34371	
604.14	34142	
604.33	32208	
604.52	32357	
604.71	34220	
604.9	33779	
605.09	32787	
605.28	32901	
605.47	34938	
605.66	34344	
605.86	32766	
606.05	32258	
606.24	34443	
606.43	33385	
606.62	32505	
606.81	32933	
607	33934	
607.19	33819	
607.38	31387	
607.57	31830	
607.76	33349	
607.95	32863	
608.14	32025	
608.33	32517	
608.52	33158	
608.72	34036	
608.91	31400	
609.1	31364	
609.29	33266	
609.48	32720	
609.67	31560	
609.86	31036	
610.05	32630	
610.24	32738	
610.43	31055	
610.62	30840	
610.81	33271	
611	33262	
611.19	31007	
611.38	31360	
611.57	32989	
611.76	33903	
611.95	30604	
612.14	30272	
612.33	32629	
612.52	32380	
612.71	31016	
612.9	30602	
613.09	32098	
613.28	33797	
613.47	30802	
613.66	31483	
613.85	32826	
614.04	32174	
614.24	30784	
614.43	30138	
614.62	32949	
614.81	32589	
615	31122	
615.19	31313	
615.38	32034	
615.57	32719	
615.76	31212	
615.95	31909	
616.14	33021	
616.33	32752	
616.52	31494	
616.71	31531	
616.9	32787	
617.09	32893	
617.28	30958	
617.47	31656	
617.66	32433	
617.85	32384	
618.04	31937	
618.22	31274	
618.41	32828	
618.6	34106	
618.79	31682	
618.98	32037	
619.17	34466	
619.36	33160	
619.55	32265	
619.74	32256	
619.93	34025	
620.12	33768	
620.31	32994	
620.5	33275	
620.69	35013	
620.88	35759	
621.07	33992	
621.26	33362	
621.45	35286	
621.64	35316	
621.83	33664	
622.02	33267	
622.21	35197	
622.4	35218	
622.59	34323	
622.78	34120	
622.97	34828	
623.16	35912	
623.35	33914	
623.54	33231	
623.72	35370	
623.91	35188	
624.1	34080	
624.29	33484	
624.48	36285	
624.67	35572	
624.86	34295	
625.05	33580	
625.24	36523	
625.43	35336	
625.62	35570	
625.81	33685	
626	35778	
626.19	35510	
626.38	34512	
626.56	33882	
626.75	35467	
626.94	36241	
627.13	34303	
627.32	33632	
627.51	36053	
627.7	36824	
627.89	33646	
628.08	34355	
628.27	35181	
628.46	35174	
628.65	33069	
628.83	33173	
629.02	35206	
629.21	34815	
629.4	33811	
629.59	33695	
629.78	35049	
629.97	35387	
630.16	33839	
630.35	33444	
630.54	36052	
630.72	35605	
630.91	33525	
631.1	33718	
631.29	35345	
631.48	35444	
631.67	33968	
631.86	33186	
632.05	35185	
632.24	35209	
632.42	32816	
632.61	33606	
632.8	34828	
632.99	34841	
633.18	33813	
633.37	33658	
633.56	35020	
633.75	35231	
633.93	33628	
634.12	33569	
634.31	35511	
634.5	35691	
634.69	33466	
634.88	33536	
635.07	35043	
635.25	35323	
635.44	34146	
635.63	34505	
635.82	34904	
636.01	34065	
636.2	33688	
636.39	33515	
636.57	35571	
636.76	34834	
636.95	33152	
637.14	33781	
637.33	34750	
637.52	35470	
637.7	32638	
637.89	33500	
638.08	34976	
638.27	35522	
638.46	33574	
638.65	33424	
638.83	35193	
639.02	34214	
639.21	33159	
639.4	33495	
639.59	34244	
639.78	33936	
639.96	32103	
640.15	32208	
640.34	33909	
640.53	33768	
640.72	31505	
640.91	31720	
641.09	33021	
641.28	34050	
641.47	32093	
641.66	32012	
641.85	33512	
642.03	33140	
642.22	31899	
642.41	31533	
642.6	32817	
642.79	32481	
642.97	30864	
643.16	31804	
643.35	32730	
643.54	32319	
643.73	30784	
643.91	31491	
644.1	31799	
644.29	32577	
644.48	30457	
644.67	30625	
644.85	31520	
645.04	32070	
645.23	29542	
645.42	29924	
645.6	30918	
645.79	31519	
645.98	29100	
646.17	28085	
646.36	29620	
646.54	29889	
646.73	28928	
646.92	28192	
647.11	29558	
647.29	30308	
647.48	28008	
647.67	27636	
647.86	30170	
648.05	30432	
648.23	27758	
648.42	28850	
648.61	29564	
648.8	29547	
648.98	27182	
649.17	27449	
649.36	28766	
649.55	28738	
649.73	27044	
649.92	27832	
650.11	28973	
650.3	29285	
650.48	27300	
650.67	27295	
650.86	29138	
651.05	28488	
651.23	27154	
651.42	26969	
651.61	28463	
651.79	27938	
651.98	27220	
652.17	26700	
652.36	28280	
652.54	27711	
652.73	26795	
652.92	26319	
653.11	28357	
653.29	28578	
653.48	26087	
653.67	26708	
653.85	28196	
654.04	28743	
654.23	26510	
654.42	26034	
654.6	26941	
654.79	27351	
654.98	24737	
655.16	25062	
655.35	25812	
655.54	25344	
655.73	23655	
655.91	23216	
656.1	25472	
656.29	24704	
656.47	22885	
656.66	24445	
656.85	25226	
657.03	25483	
657.22	24239	
657.41	24746	
657.59	26086	
657.78	26275	
657.97	24592	
658.16	25245	
658.34	26955	
658.53	27171	
658.72	25931	
658.9	26305	
659.09	26816	
659.28	26638	
659.46	25313	
659.65	25341	
659.84	26587	
660.02	27078	
660.21	25242	
660.4	25204	
660.58	27290	
660.77	26768	
660.96	25685	
661.14	24837	
661.33	27682	
661.52	27598	
661.7	24754	
661.89	27314	
662.08	26335	
662.26	26172	
662.45	24940	
662.64	24662	
662.82	26892	
663.01	26245	
663.2	24612	
663.38	25277	
663.57	26329	
663.75	26325	
663.94	24832	
664.13	25694	
664.31	25944	
664.5	26450	
664.69	25054	
664.87	25404	
665.06	25819	
665.25	26303	
665.43	25565	
665.62	25514	
665.8	26454	
665.99	25923	
666.18	24536	
666.36	24696	
666.55	26130	
666.74	26174	
666.92	24235	
667.11	25257	
667.29	25820	
667.48	26202	
667.67	24967	
667.85	24321	
668.04	25791	
668.22	25850	
668.41	24492	
668.6	24411	
668.78	25540	
668.97	25669	
669.15	24396	
669.34	23561	
669.53	25481	
669.71	25731	
669.9	23821	
670.08	24276	
670.27	25343	
670.46	25636	
670.64	24236	
670.83	24765	
671.01	25031	
671.2	25382	
671.38	23868	
671.57	23532	
671.76	25862	
671.94	26527	
672.13	23461	
672.31	24211	
672.5	25854	
672.69	25359	
672.87	23817	
673.06	24092	
673.24	25636	
673.43	25405	
673.61	24169	
673.8	23911	
673.98	25533	
674.17	25745	
674.36	24283	
674.54	24045	
674.73	25213	
674.91	25489	
675.1	23903	
675.28	23462	
675.47	25235	
675.65	25733	
675.84	23664	
676.03	24030	
676.21	24967	
676.4	24581	
676.58	24232	
676.77	24262	
676.95	26082	
677.14	24921	
677.32	23271	
677.51	23475	
677.69	25529	
677.88	24700	
678.06	23397	
678.25	23390	
678.44	25233	
678.62	24899	
678.81	23007	
678.99	24025	
679.18	25648	
679.36	25387	
679.55	23615	
679.73	23935	
679.92	25251	
680.1	24933	
680.29	24674	
680.47	23376	
680.66	24637	
680.84	25398	
681.03	23097	
681.21	23806	
681.4	24845	
681.58	24681	
681.77	23274	
681.95	23195	
682.14	25093	
682.32	25324	
682.51	23794	
682.69	22836	
682.88	24313	
683.06	24397	
683.25	23411	
683.43	23725	
683.62	24640	
683.8	24688	
683.99	23707	
684.17	23003	
684.36	25335	
684.54	24155	
684.73	22191	
684.91	21917	
685.1	23552	
685.28	22782	
685.46	21328	
685.65	21084	
685.83	21999	
686.02	21402	
686.2	19563	
686.39	19669	
686.57	21018	
686.76	22287	
686.94	20200	
687.13	20356	
687.31	21910	
687.5	22008	
687.68	20036	
687.86	21013	
688.05	23481	
688.23	21468	
688.42	21190	
688.6	21009	
688.79	22193	
688.97	22163	
689.16	21338	
689.34	20559	
689.52	23183	
689.71	23234	
689.89	21837	
690.08	21412	
690.26	23099	
690.45	22907	
690.63	21850	
690.81	21772	
691	22806	
691.18	22881	
691.37	21637	
691.55	22983	
691.74	22457	
691.92	23909	
692.1	21232	
692.29	20737	
692.47	22490	
692.66	21984	
692.84	20701	
693.02	21097	
693.21	22051	
693.39	22178	
693.58	21461	
693.76	21037	
693.94	23300	
694.13	23598	
694.31	21471	
694.5	22123	
694.68	22619	
694.86	23271	
695.05	22064	
695.23	22106	
695.42	23805	
695.6	25502	
695.78	22957	
695.97	22098	
696.15	24144	
696.34	23507	
696.52	21837	
696.7	22334	
696.89	23494	
697.07	22972	
697.25	21805	
697.44	22934	
697.62	23068	
697.81	23002	
697.99	21121	
698.17	21883	
698.36	22257	
698.54	22653	
698.72	21398	
698.91	20594	
699.09	22375	
699.28	22018	
699.46	21044	
699.64	20728	
699.83	21924	
700.01	22410	
700.19	21280	
700.38	20306	
700.56	22728	
700.74	21945	
700.93	20548	
701.11	20981	
701.29	22235	
701.48	23479	
701.66	20833	
701.84	20962	
702.03	22317	
702.21	23030	
702.39	20538	
702.58	21375	
702.76	22801	
702.94	22672	
703.13	20461	
703.31	22511	
703.49	22018	
703.68	23028	
703.86	20601	
704.04	21305	
704.23	22295	
704.41	22381	
704.59	20592	
704.78	21175	
704.96	23366	
705.14	22334	
705.33	20424	
705.51	20593	
705.69	22013	
705.87	22457	
706.06	21042	
706.24	20276	
706.42	22117	
706.61	22259	
706.79	20696	
706.97	20025	
707.16	21284	
707.34	21837	
707.52	20341	
707.7	20155	
707.89	21317	
708.07	21207	
708.25	20444	
708.44	20753	
708.62	21137	
708.8	21776	
708.98	20440	
709.17	19777	
709.35	21420	
709.53	21111	
709.72	19357	
709.9	19419	
710.08	21322	
710.26	21188	
710.45	20091	
710.63	19323	
710.81	20618	
710.99	20672	
711.18	19490	
711.36	18889	
711.54	20237	
711.72	20562	
711.91	18773	
712.09	18269	
712.27	19722	
712.45	20111	
712.64	18345	
712.82	17628	
713	18806	
713.18	18581	
713.37	17228	
713.55	17671	
713.73	18883	
713.91	17632	
714.1	16583	
714.28	15899	
714.46	17630	
714.64	16380	
714.83	14239	
715.01	14355	
715.19	15196	
715.37	14433	
715.55	13080	
715.74	13042	
715.92	15045	
716.1	13525	
716.28	13790	
716.47	12860	
716.65	13759	
716.83	13772	
717.01	12512	
717.19	12440	
717.38	15061	
717.56	13203	
717.74	12626	
717.92	12056	
718.1	14117	
718.29	13599	
718.47	11873	
718.65	12501	
718.83	14849	
719.01	15120	
719.2	12859	
719.38	13811	
719.56	15215	
719.74	16542	
719.92	13585	
720.11	14298	
720.29	15101	
720.47	14437	
720.65	12734	
720.83	13028	
721.02	13880	
721.2	13487	
721.38	12381	
721.56	11759	
721.74	12665	
721.92	12709	
722.11	12375	
722.29	12192	
722.47	13613	
722.65	12874	
722.83	11420	
723.01	11766	
723.2	12736	
723.38	13092	
723.56	10977	
723.74	11571	
723.92	12326	
724.1	13211	
724.29	11108	
724.47	11837	
724.65	12504	
724.83	12311	
725.01	10846	
725.19	11295	
725.37	11912	
725.56	11938	
725.74	10549	
725.92	10898	
726.1	12136	
726.28	12299	
726.46	11021	
726.64	10733	
726.83	12014	
727.01	12102	
727.19	10299	
727.37	11075	
727.55	12207	
727.73	12523	
727.91	10249	
728.09	10135	
728.28	12407	
728.46	12519	
728.64	10868	
728.82	10845	
729	13160	
729.18	12661	
729.36	10384	
729.54	12054	
729.72	13652	
729.91	12504	
730.09	12139	
730.27	11306	
730.45	12481	
730.63	12847	
730.81	11570	
730.99	10929	
731.17	13314	
731.35	12268	
731.53	11372	
731.71	11125	
731.9	12934	
732.08	12910	
732.26	10995	
732.44	10720	
732.62	12885	
732.8	12551	
732.98	11132	
733.16	10417	
733.34	12297	
733.52	11270	
733.7	10444	
733.88	10682	
734.07	11906	
734.25	11873	
734.43	10119	
734.61	11241	
734.79	12842	
734.97	11643	
735.15	10054	
735.33	10443	
735.51	11768	
735.69	11498	
735.87	10921	
736.05	10241	
736.23	11570	
736.41	11295	
736.59	10073	
736.77	10152	
736.95	11712	
737.13	11232	
737.32	9551	
737.5	9846.6	
737.68	12027	
737.86	11005	
738.04	9331.2	
738.22	10633	
738.4	10695	
738.58	10892	
738.76	9615.2	
738.94	8897.7	
739.12	10770	
739.3	10764	
739.48	9979.1	
739.66	9873.3	
739.84	10907	
740.02	10754	
740.2	8937.3	
740.38	9089.6	
740.56	11030	
740.74	10029	
740.92	9473.9	
741.1	9211.8	
741.28	10404	
741.46	10010	
741.64	8815.8	
741.82	9213.8	
742	10209	
742.18	10127	
742.36	8830.8	
742.54	8557.8	
742.72	10563	
742.9	9509.4	
743.08	9063.6	
743.26	8091.5	
743.44	10490	
743.62	10328	
743.8	8952.4	
743.98	8235.6	
744.16	9952.4	
744.34	9792	
744.52	8647.2	
744.7	8623.3	
744.88	9976.3	
745.06	9569.5	
745.24	8527.7	
745.42	8549.6	
745.6	9925.1	
745.78	9753.1	
745.96	7525.6	
746.14	7659.4	
746.32	10148	
746.5	9638.4	
746.68	7994.6	
746.86	7552.9	
747.03	9837.8	
747.21	8497.7	
747.39	7898.3	
747.57	7435.5	
747.75	9106	
747.93	9372.9	
748.11	7362.4	
748.29	7317.4	
748.47	10322	
748.65	8828.8	
748.83	7857.4	
749.01	7635.5	
749.19	9176.3	
749.37	8429.4	
749.55	7417.7	
749.73	7475.8	
749.91	8822	
750.09	8520.2	
750.26	7413	
750.44	6951.5	
750.62	8708.6	
750.8	8627.4	
750.98	6883.9	
751.16	7002	
751.34	8776.9	
751.52	8169.3	
751.7	7698.3	
751.88	6823.1	
752.06	8941.4	
752.24	8633.6	
752.42	6660	
752.59	6855.9	
752.77	8419.2	
752.95	9422.7	
753.13	7464.8	
753.31	6848.4	
753.49	8083.3	
753.67	8359.8	
753.85	7051.2	
754.03	6641.6	
754.21	8445.1	
754.38	8523.6	
754.56	6478.4	
754.74	5741.8	
754.92	7430.7	
755.1	7756.3	
755.28	5317.9	
755.46	5223.7	
755.64	7976.2	
755.82	7838.3	
755.99	4988.9	
756.17	4853.7	
756.35	5595.7	
756.53	6604.7	
756.71	3827.7	
756.89	4487.1	
757.07	6210.8	
757.25	5610.1	
757.42	4875.5	
757.6	5613.5	
757.78	6443.6	
757.96	5766.4	
758.14	4894.6	
758.32	4572.4	
758.5	5550	
758.67	6137.1	
758.85	4711	
759.03	4839.4	
759.21	6246.3	
759.39	5795.8	
759.57	4462.5	
759.75	5239.4	
759.92	6791.1	
760.1	6339.1	
760.28	5661.3	
760.46	5842.2	
760.64	6197.2	
760.82	6044.2	
760.99	5621	
761.17	5128.8	
761.35	6989.7	
761.53	6158.9	
761.71	5304.9	
761.89	5745.9	
762.06	6894.1	
762.24	6577.4	
762.42	5374.6	
762.6	5264.6	
762.78	6653.9	
762.96	7066.2	
763.13	5758.2	
763.31	5461.9	
763.49	7212.9	
763.67	6687.3	
763.85	6156.2	
764.02	6528.2	
764.2	7501	
764.38	6787.7	
764.56	5337	
764.74	5954.8	
764.91	7438.2	
765.09	6595.1	
765.27	5195.7	
765.45	4976.6	
765.63	7555.6	
765.8	7315.3	
765.98	4755.4	
766.16	4923.3	
766.34	6238.8	
766.52	6046.3	
766.69	5583.4	
766.87	4767.7	
767.05	6468.9	
767.23	7092.8	
767.41	4974.5	
767.58	5134.9	
767.76	6824.5	
767.94	6899.6	
768.12	4941.1	
768.29	5369.8	
768.47	6374.6	
768.65	6953.5	
768.83	4642.1	
769	5441.5	
769.18	6072.9	
769.36	6486.6	
769.54	5414.8	
769.72	4620.9	
769.89	6815	
770.07	6728.9	
770.25	4845.5	
770.43	5776.6	
770.6	7294.9	
770.78	7488.7	
770.96	4882.4	
771.14	4746.5	
771.31	6561	
771.49	6034.7	
771.67	4287.1	
771.85	4388.8	
772.02	5500.8	
772.2	6086.6	
772.38	4934.9	
772.55	4496	
772.73	6211.5	
772.91	5969.8	
773.09	4755.4	
773.26	4799.8	
773.44	6105.7	
773.62	5894.1	
773.8	4421.6	
773.97	4202.4	
774.15	6073.6	
774.33	5878.4	
774.5	4271.4	
774.68	4516.5	
774.86	6038.1	
775.04	5816.9	
775.21	4289.1	
775.39	4156	
775.57	6008.1	
775.74	6223.1	
775.92	4093.9	
776.1	3995.6	
776.27	5885.9	
776.45	6780.1	
776.63	4184	
776.81	3855	
776.98	5646.2	
777.16	6357.6	
777.34	4282.3	
777.51	4521.9	
777.69	5576.6	
777.87	5370.5	
778.04	4263.9	
778.22	4634.6	
778.4	5438	
778.57	5862.7	
778.75	3649.5	
778.93	3932.1	
779.1	5298.1	
779.28	5137.7	
779.46	3652.2	
779.64	4052.9	
779.81	5927.5	
779.99	6593.1	
780.17	4558.8	
780.34	4675.5	
780.52	5520	
780.69	5606	
780.87	4246.8	
781.05	3893.9	
781.22	5538.4	
781.4	5487.9	
781.58	3953.9	
781.75	3337.5	
781.93	5565.7	
782.11	5057.1	
782.28	4582.7	
782.46	3915.7	
782.64	4932.2	
782.81	5595.7	
782.99	4020.8	
783.17	3932.1	
783.34	5515.9	
783.52	4962.9	
783.69	4037.9	
783.87	4616.1	
784.05	5024.3	
784.22	4981.3	
784.4	4537.6	
784.58	4095.9	
784.75	5738.4	
784.93	5034.6	
785.1	3857	
785.28	4293.2	
785.46	5464.7	
785.63	4970.4	
785.81	3801	
785.99	3662.5	
786.16	5115.8	
786.34	5332.2	
786.51	3697.3	
786.69	4037.2	
786.87	4690.5	
787.04	5075.5	
787.22	3577.8	
787.39	4272.7	
787.57	4889.2	
787.75	5726.8	
787.92	4411.3	
788.1	4346.5	
788.27	4909.7	
788.45	4672.1	
788.63	4134.2	
788.8	3205.8	
788.98	5151.3	
789.15	4617.5	
789.33	3342.3	
789.5	3745.1	
789.68	5490.6	
789.86	5627.1	
790.03	4083	
790.21	3637.9	
790.38	5556.8	
790.56	4981.3	
790.73	3512.3	
790.91	3512.9	
791.09	4835.9	
791.26	5382.1	
791.44	3771.7	
791.61	3292.5	
791.79	4852.3	
791.96	4857.1	
792.14	3316.3	
792.32	3066.5	
792.49	4862.6	
792.67	4888.5	
792.84	3446.7	
793.02	3246.7	
793.19	5200.5	
793.37	5687.2	
793.54	3100.6	
793.72	3276.1	
793.89	5712.5	
794.07	4741	
794.25	3734.8	
794.42	3071.3	
794.6	5597.8	
794.77	5199.8	
794.95	3943	
795.12	3479.5	
795.3	4824.3	
795.47	5224.4	
795.65	3777.8	
795.82	3652.2	
796	4624.3	
796.17	6026.5	
796.35	3540.3	
796.52	4015.4	
796.7	5177.3	
796.87	5301.5	
797.05	3497.9	
797.22	4198.3	
797.4	5180	
797.57	5920	
797.75	3607.2	
797.92	3450.8	
798.1	5457.8	
798.27	4703.5	
798.45	3087	
798.62	3224.9	
798.8	4952	
798.97	5289.9	
799.15	3775.1	
799.32	3649.5	
799.5	4470.7	
799.67	4941.1	
799.85	3895.9	
800.02	2969.6	
800.2	4669.4	
800.37	4894	
800.55	3971.7	
800.72	3450.8	
800.9	5285.1	
801.07	5640.1	
801.25	4398.4	
801.42	3714.3	
801.6	5332.2	
801.77	4966.3	
801.95	3508.9	
802.12	3394.2	
802.29	5059.8	
802.47	5027.8	
802.64	3715.7	
802.82	2940.9	
802.99	4689.2	
803.17	5401.9	
803.34	3566.2	
803.52	3256.3	
803.69	5824.4	
803.87	4450.2	
804.04	3583.9	
804.21	3570.3	
804.39	5454.4	
804.56	4799.1	
804.74	3085.6	
804.91	3659.7	
805.09	4645.5	
805.26	4706.9	
805.44	3140.9	
805.61	3383.2	
805.78	5118.6	
805.96	5132.2	
806.13	3673.4	
806.31	3833.1	
806.48	4255	
806.66	4655.7	
806.83	3619.4	
807	3556.6	
807.18	4660.5	
807.35	4878.9	
807.53	3549.8	
807.7	2960.7	
807.87	5444.9	
808.05	4588.8	
808.22	3763.5	
808.4	2929.3	
808.57	4534.9	
808.74	4304.1	
808.92	3269.2	
809.09	4007.2	
809.27	4544.4	
809.44	4956.1	
809.61	2933.4	
809.79	3182.5	
809.96	5521.3	
810.14	5097.4	
810.31	2884.9	
810.48	3422.2	
810.66	4638.6	
810.83	5183.4	
811.01	3225.6	
811.18	3560.7	
811.35	5141.1	
811.53	4103.4	
811.7	3820.1	
811.87	3607.2	
812.05	4616.1	
812.22	4526.7	
812.39	3111.5	
812.57	3071.3	
812.74	4595	
812.92	5784.1	
813.09	3378.5	
813.26	3554.6	
813.44	5539.8	
813.61	4452.3	
813.78	2917	
813.96	3686.3	
814.13	4622.9	
814.3	4420.9	
814.48	3982.6	
814.65	3395.5	
814.82	5350.7	
815	4377.2	
815.17	3489.1	
815.34	4061.8	
815.52	4487.8	
815.69	4483	
815.87	3373.7	
816.04	3298.6	
816.21	4561.5	
816.38	4130.8	
816.56	3325.9	
816.73	3164.1	
816.9	5597.1	
817.08	5085.1	
817.25	3158	
817.42	3745.7	
817.6	4212.7	
817.77	4549.2	
817.94	3451.5	
818.12	3093.1	
818.29	4355.3	
818.46	6256.5	
818.64	3277.4	
818.81	3028.3	
818.98	4403.8	
819.16	5895.4	
819.33	3649.5	
819.5	3459	
819.67	4840	
819.85	5325.4	
820.02	3430.3	
820.19	3534.8	
820.37	4717.8	
820.54	4488.5	
820.71	3508.9	
820.88	4182	
821.06	4693.9	
821.23	4432.5	
821.4	3485	
821.58	3485	
821.75	5048.2	
821.92	4730.8	
822.09	2900.6	
822.27	2949.8	
822.44	4586.8	
822.61	4531.5	
822.79	2867.2	
822.96	5084.4	
823.13	4857.8	
823.3	4352.6	
823.48	3269.2	
823.65	2932	
823.82	5096.7	
823.99	4268	
824.17	4032.5	
824.34	2989.4	
824.51	5786.9	
824.68	4584.7	
824.86	3120.4	
825.03	3398.9	
825.2	4530.8	
825.37	5367	
825.55	3102.7	
825.72	3373.7	
825.89	5758.9	
826.06	5401.2	
826.24	3336.8	
826.41	3321.1	
826.58	5399.8	
826.75	4716.5	
826.92	2721.1	
827.1	2974.3	
827.27	6964.5	
827.44	5642.2	
827.61	3145	
827.79	3725.3	
827.96	4425	
828.13	4556.7	
828.3	3324.5	
828.47	2796.2	
828.65	4759.5	
828.82	4796.3	
828.99	4105.5	
829.16	3644	
829.34	5143.8	
829.51	4911	
829.68	3340.9	
829.85	3457	
830.02	5383.4	
830.2	5006.6	
830.37	2693.1	
830.54	3934.1	
830.71	5631.2	
830.88	4554.7	
831.05	2719.7	
831.23	3091.1	
831.4	5466.7	
831.57	5951.4	
831.74	3163.4	
831.91	2863.1	
832.09	4902.8	
832.26	5080.3	
832.43	3237.8	
832.6	3556	
832.77	4811.4	
832.94	5388.2	
833.12	2680.1	
833.29	3206.4	
833.46	4513.7	
833.63	6083.1	
833.8	3504.8	
833.97	3244.7	
834.15	5050.3	
834.32	4847.5	
834.49	3368.9	
834.66	3414.6	
834.83	5182	
835	4386.7	
835.17	3168.9	
835.35	3144.3	
835.52	4958.1	
835.69	4852.3	
835.86	3242.6	
836.03	2756.6	
836.2	5057.8	
836.37	4745.1	
836.55	3192.8	
836.72	3046	
836.89	4730.8	
837.06	5107.6	
837.23	3274.7	
837.4	3534.1	
837.57	5631.2	
837.75	6075	
837.92	2966.8	
838.09	3181.9	
838.26	4707.6	
838.43	5179.3	
838.6	3373	
838.77	3083.6	
838.94	5808.7	
839.11	5606.7	
839.29	3271.3	
839.46	2604.3	
839.63	5055.8	
839.8	4837.3	
839.97	3142.9	
840.14	3126.6	
840.31	4926	
840.48	5027.8	
840.65	2718.3	
840.82	3127.9	
841	5057.8	
841.17	4885.1	
841.34	2855.6	
841.51	2994.8	
841.68	4996.4	
841.85	4757.4	
842.02	3025.5	
842.19	2549	
842.36	4902.8	
842.53	4817.5	
842.7	2960	
842.87	3447.4	
843.05	6109.8	
843.22	4741	
843.39	2826.2	
843.56	2996.2	
843.73	4676.2	
843.9	5079	
844.07	4413.4	
844.24	3788.7	
844.41	6804.7	
844.58	4425	
844.75	2884.9	
844.92	3069.9	
845.09	4975.2	
845.26	4989.5	
845.43	2874	
845.6	3062.4	
845.77	5044.1	
845.94	4834.6	
846.12	3166.2	
846.29	3285.6	
846.46	5184.8	
846.63	4983.4	
846.8	2923.8	
846.97	3405.8	
847.14	5397.1	
847.31	4937	
847.48	3221.5	
847.65	3433.1	
847.82	5189.6	
847.99	5112.4	
848.16	3772.4	
848.33	3456.3	
848.5	4624.3	
848.67	5400.5	
848.84	2854.2	
849.01	3041.2	
849.18	4554	
849.35	4350.6	
849.52	3515	
849.69	2895.1	
849.86	5155.4	
850.03	5237.3	
850.2	2904	
850.37	3484.3	
850.54	5285.1	
850.71	4732.9	
850.88	3370.3	
851.05	2865.8	
851.22	4831.8	
851.39	5325.4	
851.56	2746.3	
851.73	3295.2	
851.9	4465.3	
852.07	5137.7	
852.24	3134.8	
852.41	2854.2	
852.58	4938.3	
852.75	4536.3	
852.92	3130.7	
853.09	2846	
853.26	4625.7	
853.43	5258.5	
853.6	2945.7	
853.77	2549	
853.94	5428.5	
854.11	4453	
854.28	4070.7	
854.44	3099.3	
854.61	5620.3	
854.78	5160.2	
854.95	2921.8	
855.12	3491.8	
855.29	4174.4	
855.46	5475.6	
855.63	2856.9	
855.8	3850.2	
855.97	4620.9	
856.14	5254.4	
856.31	3984.7	
856.48	3102	
856.65	4657.8	
856.82	4442.7	
856.99	2768.2	
857.16	3044.6	
857.33	5836	
857.49	4741.7	
857.66	3037.1	
857.83	3260.4	
858	4758.1	
858.17	4934.2	
858.34	2760	
858.51	2923.8	
858.68	5407.3	
858.85	5461.9	
859.02	3328.6	
859.19	3486.3	
859.36	4471.4	
859.52	4450.2	
859.69	2946.3	
859.86	3306.1	
860.03	4502.8	
860.2	5340.4	
860.37	2637.8	
860.54	2908.1	
860.71	5130.2	
860.88	5418.2	
861.05	3179.1	
861.21	3596.2	
861.38	5359.5	
861.55	4323.9	
861.72	2620.7	
861.89	3155.9	
862.06	5187.5	
862.23	5509	
862.4	2768.9	
862.56	2943.6	
862.73	4995	
862.9	4778.6	
863.07	3259	
863.24	2645.3	
863.41	4347.8	
863.58	4438.6	
863.75	2907.4	
863.91	3279.5	
864.08	5296	
864.25	5042.1	
864.42	3480.2	
864.59	3884.3	
864.76	5623.7	
864.93	4470.7	
865.09	2813.2	
865.26	3032.4	
865.43	5355.4	
865.6	5585.5	
865.77	2592.7	
865.94	2853.5	
866.1	5221.6	
866.27	5124	
866.44	4132.1	
866.61	2788	
866.78	4748.6	
866.95	5027.1	
867.11	2833	
867.28	2591.4	
867.45	5310.4	
867.62	4444.8	
867.79	3226.9	
867.96	2818	
868.12	4403.8	
868.29	5100.8	
868.46	2891	
868.63	3676.1	
868.8	5283.8	
868.97	5097.4	
869.13	2996.9	
869.3	2919	
869.47	5014.8	
869.64	5188.2	
869.81	2863.1	
869.97	2885.6	
870.14	4879.6	
870.31	5442.1	
870.48	2791.4	
870.65	3545	
870.81	4690.5	
870.98	4727.4	
871.15	3229	
871.32	2977.7	
871.48	5022.3	
871.65	5470.8	
871.82	2800.9	
871.99	3162.7	
872.16	5776.6	
872.32	5242.8	
872.49	2869.2	
872.66	2893.8	
872.83	5107.6	
872.99	4558.8	
873.16	3241.9	
873.33	2816	
873.5	4816.1	
873.67	4851	
873.83	3005.1	
874	3665.2	
874.17	4853	
874.34	5650.3	
874.5	3633.8	
874.67	3450.8	
874.84	5377.3	
875.01	4285	
875.17	3829.7	
875.34	2836.4	
875.51	4883	
875.68	5823.7	
875.84	3383.9	
876.01	3994.9	
876.18	5121.3	
876.34	5030.5	
876.51	2874.7	
876.68	2807.1	
876.85	4640	
877.01	5301.5	
877.18	3946.4	
877.35	2790.7	
877.52	4893.3	
877.68	4438.6	
877.85	2816.6	
878.02	2805.7	
878.18	4693.9	
878.35	4543.8	
878.52	2342.9	
878.69	3108.1	
878.85	5150.6	
879.02	5055.8	
879.19	3916.4	
879.35	3054.2	
879.52	5098.1	
879.69	5134.9	
879.86	2547	
880.02	3125.9	
880.19	4791.6	
880.36	5627.1	
880.52	3219.4	
880.69	3308.2	
880.86	5197.1	
881.02	5150	
881.19	3072.6	
881.36	3053.5	
881.52	5043.5	
881.69	4552	
881.86	3020.8	
882.02	3026.2	
882.19	5253.7	
882.36	5986.2	
882.52	2878.8	
882.69	3889.8	
882.86	4902.2	
883.02	4861.2	
883.19	3379.8	
883.36	3235.8	
883.52	5114.5	
883.69	5719.3	
883.86	2879.4	
884.02	2624.8	
884.19	5085.8	
884.36	4790.9	
884.52	3192.8	
884.69	3018	
884.86	4605.9	
885.02	5481.7	
885.19	3065.1	
885.36	3233.7	
885.52	4724	
885.69	4919.9	
885.86	4024.3	
886.02	3519.1	
886.19	5115.1	
886.35	4625.7	
886.52	3105.4	
886.69	3848.1	
886.85	4461.2	
887.02	5343.2	
887.19	5343.2	
887.35	5343.2	
887.52	5343.2	
887.68	5343.2	
887.85	5343.2	
888.02	5343.2	
888.18	5343.2	
888.35	5343.2	
888.51	5343.2	
888.68	5343.2	
888.85	5343.2	
889.01	5343.2	
889.18	5343.2	
889.35	5343.2	
889.51	5343.2	
889.68	5343.2	
889.84	5343.2	
890.01	5343.2	
890.17	5343.2	
890.34	5343.2	
890.51	5343.2	
890.67	5343.2	
890.84	5343.2	
891	5343.2	
891.17	5343.2	
891.34	5343.2	
891.5	5343.2	
891.67	5343.2	
891.83	5343.2	
892	5343.2	
892.16	5343.2	
892.33	5343.2	
892.5	5343.2	
892.66	5343.2	
892.83	5343.2	
892.99	5343.2	
893.16	5343.2	
893.32	5343.2	
893.49	5343.2	
893.65	5343.2	
893.82	5343.2	
893.99	5343.2	
894.15	5343.2	
894.32	5343.2	
894.48	5343.2	
894.65	5343.2	
894.81	5343.2	
894.98	5343.2	
895.14	5343.2	
895.31	5343.2	
895.47	5343.2	
895.64	5343.2	
895.81	5343.2	
895.97	5343.2	
896.14	5343.2	
896.3	5343.2	
896.47	5343.2	
896.63	5343.2	
896.8	5343.2	
896.96	5343.2	
897.13	5343.2	
897.29	5343.2	
897.46	5343.2	
897.62	5343.2	
897.79	5343.2	
897.95	5343.2	
898.12	5343.2	
898.28	5343.2	
898.45	5343.2	
898.61	5343.2	
898.78	5343.2	
898.94	5343.2	
899.11	5343.2	
899.27	5343.2	
899.44	5343.2	
899.6	5343.2	
899.77	5343.2	
899.93	5343.2	
900.1	5343.2	
900.26	5343.2	
900.43	5343.2	
900.59	5343.2	
900.76	5343.2	
900.92	5343.2	
901.09	5343.2	
901.25	5343.2	
901.42	5343.2	
901.58	5343.2	
901.75	5343.2	
901.91	5343.2	
902.07	5343.2	
902.24	5343.2	
902.4	5343.2	
902.57	5343.2	
902.73	5343.2	
902.9	5343.2	
903.06	5343.2	
903.23	5343.2	
903.39	5343.2	
903.56	5343.2	
903.72	5343.2	
903.88	5343.2	
904.05	5343.2	
904.21	5343.2	
904.38	5343.2	
904.54	5343.2	
904.71	5343.2	
904.87	5343.2	
905.03	5343.2	
905.2	5343.2	
905.36	5343.2	
905.53	5343.2	
905.69	5343.2	
905.86	5343.2	
906.02	5343.2	
906.18	5343.2	
906.35	5343.2	
906.51	5343.2	
906.68	5343.2	
906.84	5343.2	
907.01	5343.2	
907.17	5343.2	
907.33	5343.2	
907.5	5343.2	
907.66	5343.2	
907.83	5343.2	
907.99	5343.2	
908.15	5343.2	
908.32	5343.2	
908.48	5343.2	
908.65	5343.2	
908.81	5343.2	
908.97	5343.2	
909.14	5343.2	
909.3	5343.2	
909.47	5343.2	
909.63	5343.2	
909.79	5343.2	
909.96	5343.2	
910.12	5343.2	
910.28	5343.2	
910.45	5343.2	
910.61	5343.2	
910.78	5343.2	
910.94	5343.2	
911.1	5343.2	
911.27	5343.2	
911.43	5343.2	
911.59	5343.2	
911.76	5343.2	
911.92	5343.2	
912.08	5343.2	
912.25	5343.2	
912.41	5343.2	
912.57	5343.2	
912.74	5343.2	
912.9	5343.2	
913.07	5343.2	
913.23	5343.2	
913.39	5343.2	
913.56	5343.2	
913.72	5343.2	
913.88	5343.2	
914.05	5343.2	
914.21	5343.2	
914.37	5343.2	
914.54	5343.2	
914.7	5343.2	
914.86	5343.2	
915.03	5343.2	
915.19	5343.2	
