Wavelength	Intensities	
nm	a.u.	
179.22	1944.2	
179.44	1942.2	
179.65	1946.3	
179.86	1938.1	
180.08	1922.4	
180.29	5036	
180.51	3605.1	
180.72	5700.2	
180.94	6662	
181.15	3259	
181.37	3281.5	
181.58	5563	
181.79	5880.4	
182.01	3451.5	
182.22	3676.8	
182.44	5815.5	
182.65	4864.6	
182.87	4654.4	
183.08	4077.5	
183.29	6182.8	
183.51	4992.3	
183.72	3747.1	
183.94	5478.3	
184.15	5466	
184.37	5509.7	
184.58	3281.5	
184.79	4491.2	
185.01	5072.8	
185.22	5800.5	
185.44	4760.8	
185.65	4024.9	
185.86	5343.8	
186.08	4934.9	
186.29	3177.8	
186.51	3396.2	
186.72	5107	
186.94	6041.5	
187.15	3994.9	
187.36	4102.1	
187.58	7892.9	
187.79	5522.7	
188.01	4333.5	
188.22	6695.5	
188.43	6729.6	
188.65	5828.5	
188.86	3504.8	
189.08	4084.3	
189.29	5296.7	
189.5	5232.6	
189.72	3804.4	
189.93	3867.9	
190.15	6012.2	
190.36	7261.4	
190.57	4213.4	
190.79	4042	
191	6173.9	
191.22	6072.9	
191.43	4179.2	
191.64	3429.7	
191.86	6338.5	
192.07	6123.4	
192.29	3595.6	
192.5	3775.1	
192.71	6055.2	
192.93	5194.3	
193.14	3749.8	
193.35	3863.2	
193.57	5244.2	
193.78	6009.4	
194	2998.2	
194.21	3718.4	
194.42	5029.8	
194.64	5490.6	
194.85	4111	
195.07	4788.2	
195.28	5541.8	
195.49	4826.4	
195.71	5081	
195.92	3493.2	
196.13	5713.2	
196.35	5774.6	
196.56	5444.2	
196.78	4076.1	
196.99	7192.5	
197.2	6782.9	
197.42	4650.9	
197.63	4102.8	
197.84	4871.4	
198.06	5651	
198.27	3823.6	
198.48	5103.5	
198.7	5261.2	
198.91	5354.1	
199.13	4134.8	
199.34	4134.8	
199.55	5897.5	
199.77	4811.4	
199.98	3590.1	
200.19	4152.6	
200.41	5397.8	
200.62	5076.9	
200.83	4255	
201.05	4639.3	
201.26	5423	
201.47	5097.4	
201.69	3689.1	
201.9	3532.1	
202.11	5433.3	
202.33	6491.4	
202.54	3918.4	
202.76	4427	
202.97	5606.7	
203.18	5624.4	
203.4	4313	
203.61	4240.7	
203.82	5558.9	
204.04	5150.6	
204.25	4211.3	
204.46	4123.2	
204.68	5481	
204.89	5765.7	
205.1	4070	
205.32	3551.2	
205.53	5877.7	
205.74	6058.6	
205.96	2978.4	
206.17	4260.5	
206.38	5889.3	
206.6	6032	
206.81	4848.9	
207.02	3876.1	
207.24	5724.8	
207.45	6186.9	
207.66	3926.6	
207.88	3383.2	
208.09	5660.6	
208.3	5459.9	
208.52	3603.7	
208.73	4012	
208.94	5461.2	
209.15	6205.3	
209.37	3931.4	
209.58	4132.8	
209.79	5983.5	
210.01	5273.5	
210.22	3115.6	
210.43	3258.3	
210.65	5503.6	
210.86	5986.9	
211.07	4018.1	
211.29	3607.8	
211.5	5857.2	
211.71	5410.7	
211.93	3571.7	
212.14	3570.3	
212.35	5444.2	
212.56	5652.4	
212.78	4182.6	
212.99	3437.2	
213.2	6462	
213.42	5222.3	
213.63	3743	
213.84	4062.5	
214.06	4804.5	
214.27	4934.2	
214.48	3898	
214.69	4214	
214.91	6250.4	
215.12	6273.6	
215.33	4266.6	
215.55	4724.7	
215.76	6756.2	
215.97	5847.6	
216.18	4051.6	
216.4	4010.6	
216.61	5147.9	
216.82	6019.7	
217.04	3663.8	
217.25	3786.7	
217.46	6167.8	
217.67	5886.5	
217.89	3251.5	
218.1	3357.3	
218.31	5533.6	
218.53	5719.3	
218.74	3811.3	
218.95	3678.2	
219.16	5506.3	
219.38	6399.9	
219.59	3744.4	
219.8	4422.2	
220.01	7193.8	
220.23	5483.8	
220.44	4869.4	
220.65	3643.3	
220.87	5548.6	
221.08	6145.3	
221.29	3379.8	
221.5	4539	
221.72	7520.1	
221.93	5233.2	
222.14	4174.4	
222.35	4921.3	
222.57	5540.4	
222.78	5784.8	
222.99	3979.9	
223.2	4302.8	
223.42	5811.5	
223.63	5947.3	
223.84	3001.6	
224.05	2984.6	
224.27	7090.1	
224.48	6461.3	
224.69	4930.8	
224.9	4147.8	
225.12	5722	
225.33	5472.2	
225.54	3304.1	
225.75	3682.2	
225.97	5069.4	
226.18	5335	
226.39	4001.7	
226.6	3710.9	
226.82	5214.1	
227.03	5107	
227.24	4136.2	
227.45	3426.3	
227.67	5893.4	
227.88	6503.7	
228.09	4634.6	
228.3	4640	
228.52	5976.7	
228.73	5487.9	
228.94	3850.2	
229.15	3397.6	
229.36	5425.8	
229.58	5296	
229.79	3953.3	
230	4529.4	
230.21	6566.5	
230.43	5524.7	
230.64	4134.2	
230.85	4298.7	
231.06	5868.1	
231.28	5920	
231.49	3464.5	
231.7	4079.6	
231.91	5786.2	
232.12	5483.1	
232.34	3497.9	
232.55	4024.3	
232.76	6180.8	
232.97	5649.7	
233.18	3644	
233.4	4105.5	
233.61	5786.2	
233.82	5224.4	
234.03	3814.7	
234.25	3800.3	
234.46	7676.5	
234.67	5489.9	
234.88	4326.7	
235.09	3709.6	
235.31	5824.4	
235.52	5398.4	
235.73	4105.5	
235.94	3429.7	
236.15	5217.5	
236.37	6694.8	
236.58	3639.2	
236.79	3979.2	
237	5782.8	
237.21	4973.2	
237.43	4268	
237.64	3302	
237.85	10109	
238.06	5026.4	
238.27	4414.7	
238.48	3465.2	
238.7	5834.7	
238.91	5331.5	
239.12	3934.8	
239.33	3943	
239.54	5019.6	
239.76	5416.2	
239.97	3924.6	
240.18	3931.4	
240.39	6890	
240.6	5773.2	
240.82	4081.6	
241.03	3359.4	
241.24	5486.5	
241.45	6389	
241.66	3646.1	
241.87	4263.2	
242.09	6201.2	
242.3	6661.4	
242.51	4263.2	
242.72	3984.7	
242.93	6016.9	
243.14	5408.7	
243.36	4610.7	
243.57	4965.6	
243.78	6438.1	
243.99	5844.2	
244.2	4033.1	
244.41	3639.9	
244.63	5045.5	
244.84	5788.9	
245.05	4227.7	
245.26	4004.5	
245.47	5774.6	
245.68	6021	
245.9	5364.3	
246.11	4142.4	
246.32	5315.8	
246.53	5748.6	
246.74	6535.8	
246.95	3339.6	
247.16	4966.3	
247.38	5489.9	
247.59	3310.2	
247.8	4059.1	
248.01	5186.8	
248.22	5407.3	
248.43	3575.1	
248.64	3939.6	
248.86	4856.4	
249.07	5247.6	
249.28	3514.3	
249.49	4076.8	
249.7	6077	
249.91	6260	
250.12	3293.8	
250.34	3368.9	
250.55	5662.6	
250.76	5477.6	
250.97	4079.6	
251.18	4171	
251.39	6217	
251.6	5718.6	
251.81	4235.2	
252.03	4226.3	
252.24	5212.1	
252.45	6040.1	
252.66	3478.1	
252.87	4416.8	
253.08	5524.7	
253.29	7269.6	
253.5	3473.4	
253.72	4832.5	
253.93	5287.9	
254.14	6524.8	
254.35	3801	
254.56	3906.8	
254.77	5751.4	
254.98	5039.4	
255.19	3753.2	
255.41	4833.9	
255.62	5608	
255.83	6231.3	
256.04	4319.2	
256.25	4186	
256.46	6739.9	
256.67	5104.9	
256.88	4104.1	
257.09	4549.2	
257.31	5145.2	
257.52	5139.7	
257.73	5127.4	
257.94	3743	
258.15	5292.6	
258.36	5507	
258.57	4721.9	
258.78	2992.1	
258.99	6044.9	
259.2	5302.9	
259.41	3802.4	
259.63	3895.2	
259.84	6406.7	
260.05	6890	
260.26	5042.8	
260.47	3645.4	
260.68	6124.8	
260.89	5394.3	
261.1	4602.5	
261.31	3629.7	
261.52	6076.3	
261.73	6487.3	
261.95	4883.7	
262.16	4319.8	
262.37	6288.6	
262.58	6354.8	
262.79	4901.5	
263	3861.1	
263.21	5643.5	
263.42	5018.9	
263.63	3915	
263.84	3825.6	
264.05	6104.3	
264.26	6490	
264.47	4758.8	
264.69	4297.3	
264.9	6238.1	
265.11	5744.6	
265.32	3721.2	
265.53	3803.1	
265.74	5630.5	
265.95	4892.6	
266.16	4012.7	
266.37	4538.3	
266.58	5613.5	
266.79	5296.7	
267	3777.1	
267.21	3426.9	
267.42	5071.5	
267.63	5535	
267.84	3970.3	
268.06	3373	
268.27	5969.1	
268.48	6243.6	
268.69	3860.4	
268.9	4638.6	
269.11	6186.2	
269.32	4898.1	
269.53	3997	
269.74	3662.5	
269.95	5808.7	
270.16	4824.3	
270.37	4018.8	
270.58	4600.4	
270.79	5332.2	
271	6021	
271.21	4265.2	
271.42	3996.3	
271.63	5619.6	
271.84	5080.3	
272.05	3184.6	
272.26	3548.4	
272.47	5521.3	
272.68	5741.1	
272.89	3798.3	
273.11	4434.5	
273.32	5287.2	
273.53	6532.3	
273.74	4313	
273.95	4251.6	
274.16	6148.7	
274.37	5560.2	
274.58	4370.4	
274.79	3478.1	
275	5599.1	
275.21	6246.3	
275.42	5291.3	
275.63	4515.8	
275.84	5780.1	
276.05	7340.6	
276.26	4225.6	
276.47	3957.4	
276.68	5279	
276.89	6565.8	
277.1	4504.8	
277.31	3502	
277.52	5792.3	
277.73	5955.5	
277.94	3431	
278.15	3861.8	
278.36	5719.3	
278.57	5172.5	
278.78	3781.9	
278.99	4261.1	
279.2	5076.9	
279.41	5100.8	
279.62	5063.9	
279.83	3556	
280.04	6735.8	
280.25	5035.3	
280.46	5057.1	
280.67	4018.1	
280.88	5109.7	
281.09	6201.2	
281.3	4220.9	
281.51	5352.7	
281.72	5221	
281.93	6023.8	
282.14	3751.2	
282.35	4047.5	
282.56	5994.4	
282.77	5991	
282.98	3828.3	
283.19	4752	
283.4	7462.8	
283.61	5440.1	
283.82	3544.4	
284.03	4929.5	
284.24	5628.5	
284.45	6096.1	
284.66	4974.5	
284.87	4760.8	
285.08	6112.5	
285.29	6281.1	
285.5	3373.7	
285.71	3904.1	
285.92	6192.4	
286.12	6833.4	
286.33	4915.1	
286.54	3859.1	
286.75	5967.8	
286.96	5355.4	
287.17	3521.1	
287.38	4825.7	
287.59	5070.8	
287.8	5044.8	
288.01	3963.5	
288.22	4511	
288.43	6038.1	
288.64	5035.3	
288.85	4622.3	
289.06	4424.3	
289.27	5955.5	
289.48	6504.3	
289.69	5038	
289.9	4481	
290.11	6175.3	
290.32	5214.8	
290.53	4722.6	
290.74	4326	
290.94	5938.4	
291.15	6003.3	
291.36	3825.6	
291.57	4484.4	
291.78	5192.3	
291.99	4895.3	
292.2	3597.6	
292.41	4345.1	
292.62	6047	
292.83	5861.3	
293.04	5375.2	
293.25	3631	
293.46	5298.1	
293.67	6127.5	
293.88	3728	
294.09	3619.4	
294.29	5061.2	
294.5	5713.8	
294.71	3979.9	
294.92	3870.7	
295.13	5264.6	
295.34	6640.2	
295.55	3355.9	
295.76	3438.5	
295.97	5931.6	
296.18	6708.5	
296.39	3548.4	
296.6	3761.4	
296.81	5631.9	
297.01	5947.3	
297.22	3902.1	
297.43	3742.3	
297.64	5099.4	
297.85	5116.5	
298.06	3076.7	
298.27	3379.1	
298.48	5531.6	
298.69	5236.7	
298.9	4054.3	
299.11	3634.5	
299.31	4969.1	
299.52	5011.4	
299.73	4333.5	
299.94	4233.2	
300.15	5431.9	
300.36	5104.2	
300.57	4283.7	
300.78	4288.4	
300.99	5380	
301.2	5661.3	
301.4	3689.8	
301.61	4076.1	
301.82	5839.4	
302.03	5926.8	
302.24	4564.9	
302.45	3517.7	
302.66	5782.8	
302.87	6292.7	
303.08	3724.6	
303.29	5170.4	
303.49	5212.8	
303.7	5571.8	
303.91	3280.2	
304.12	4874.8	
304.33	4964.3	
304.54	5615.5	
304.75	3821.5	
304.96	3572.3	
305.16	5849.7	
305.37	6604.7	
305.58	3229.6	
305.79	3394.8	
306	5795.8	
306.21	4937.7	
306.42	3703.4	
306.63	5776.6	
306.83	5355.4	
307.04	6062.7	
307.25	4154.6	
307.46	4061.1	
307.67	4709.6	
307.88	6010.8	
308.09	3672	
308.29	3877.5	
308.5	5582.1	
308.71	6064	
308.92	3957.4	
309.13	3590.1	
309.34	5332.9	
309.55	5416.9	
309.75	4730.8	
309.96	4305.5	
310.17	5973.2	
310.38	5223	
310.59	4549.2	
310.8	4175.1	
311.01	5315.2	
311.21	5403.2	
311.42	3575.1	
311.63	3673.4	
311.84	5257.1	
312.05	5652.4	
312.26	4103.4	
312.46	4588.8	
312.67	5350.7	
312.88	4975.9	
313.09	3599	
313.3	3490.4	
313.51	6292.7	
313.71	6731.7	
313.92	3650.2	
314.13	3779.9	
314.34	5739.8	
314.55	5437.4	
314.76	4717.2	
314.96	4061.1	
315.17	5597.8	
315.38	5922.7	
315.59	3553.2	
315.8	3431.7	
316.01	6405.4	
316.21	6483.9	
316.42	3469.9	
316.63	3973.1	
316.84	5356.1	
317.05	6199.2	
317.26	4290.5	
317.46	3841.3	
317.67	5457.2	
317.88	5927.5	
318.09	4610.7	
318.3	3320.4	
318.5	5224.4	
318.71	5905	
318.92	5878.4	
319.13	4236.6	
319.34	6090.7	
319.54	6123.4	
319.75	3343.7	
319.96	3232.4	
320.17	5896.8	
320.38	6149.4	
320.58	3308.2	
320.79	3951.2	
321	6071.5	
321.21	6198.5	
321.42	4003.1	
321.62	3281.5	
321.83	5083.1	
322.04	5469.4	
322.25	3824.2	
322.46	3606.5	
322.66	5610.1	
322.87	5811.5	
323.08	4496	
323.29	3566.2	
323.5	6550.1	
323.7	5018.2	
323.91	4890.5	
324.12	4366.3	
324.33	5588.9	
324.53	5810.1	
324.74	4317.8	
324.95	4484.4	
325.16	4875.5	
325.37	5309.7	
325.57	3639.2	
325.78	3692.5	
325.99	5602.6	
326.2	5002.5	
326.4	5330.2	
326.61	3330.7	
326.82	5426.4	
327.03	5654.4	
327.24	5110.4	
327.44	4895.3	
327.65	5758.2	
327.86	4640	
328.07	4253.6	
328.27	3484.3	
328.48	6165.8	
328.69	5049.6	
328.9	5305.6	
329.1	3866.6	
329.31	5418.2	
329.52	6353.5	
329.73	3599.6	
329.93	4098	
330.14	5492	
330.35	5814.2	
330.56	5931.6	
330.76	4499.4	
330.97	5322	
331.18	5671.5	
331.39	3997.6	
331.59	3251.5	
331.8	6191	
332.01	6272.9	
332.22	3713	
332.42	4313	
332.63	5606.7	
332.84	5234.6	
333.05	4126	
333.25	3668.6	
333.46	5269.4	
333.67	5551.4	
333.88	3724.6	
334.08	4242.7	
334.29	7392.5	
334.5	6299.6	
334.7	3500.7	
334.91	5186.8	
335.12	5073.5	
335.33	5957.5	
335.53	4008.6	
335.74	5953.4	
335.95	5289.9	
336.16	5158.8	
336.36	4113	
336.57	4635.2	
336.78	4988.9	
336.98	6144.6	
337.19	5023	
337.4	3978.5	
337.61	6650.4	
337.81	5031.9	
338.02	3734.1	
338.23	4749.9	
338.43	6292	
338.64	5129.5	
338.85	3672	
339.05	4774.5	
339.26	6444.3	
339.47	4945.2	
339.68	3622.9	
339.88	5442.8	
340.09	5795.8	
340.3	5978.7	
340.5	4250.9	
340.71	3288.4	
340.92	4990.2	
341.13	6305	
341.33	3523.2	
341.54	4268	
341.75	5681.7	
341.95	5385.5	
342.16	4087.1	
342.37	4418.8	
342.57	5078.3	
342.78	5478.3	
342.99	4575.8	
343.19	3237.2	
343.4	5855.8	
343.61	5841.5	
343.81	3839.3	
344.02	3573	
344.23	5959.6	
344.43	6385.6	
344.64	4577.9	
344.85	4442	
345.06	5778	
345.26	6119.3	
345.47	4209.9	
345.68	4934.9	
345.88	4831.8	
346.09	6057.2	
346.3	4298	
346.5	3250.8	
346.71	5542.5	
346.92	5247.6	
347.12	3335.5	
347.33	4202.4	
347.54	6058.6	
347.74	6548	
347.95	4207.9	
348.16	3081.5	
348.36	5298.1	
348.57	5159.5	
348.78	4157.4	
348.98	4456.4	
349.19	5472.9	
349.39	4948.6	
349.6	3285.6	
349.81	3703.4	
350.01	5776	
350.22	5221	
350.43	3977.2	
350.63	4879.6	
350.84	5612.1	
351.05	5256.5	
351.25	3670.6	
351.46	3280.2	
351.67	6057.2	
351.87	5150	
352.08	3902.7	
352.29	4407.9	
352.49	5997.8	
352.7	6097.5	
352.9	3534.1	
353.11	4469.4	
353.32	6634.7	
353.52	5362.9	
353.73	3511.6	
353.94	4435.2	
354.14	5840.1	
354.35	5606	
354.55	3610.6	
354.76	4046.1	
354.97	5742.5	
355.17	5550	
355.38	3390.1	
355.59	4792.2	
355.79	5210	
356	5619.6	
356.2	3988.8	
356.41	3421.5	
356.62	4917.2	
356.82	5429.8	
357.03	4283.7	
357.24	3848.1	
357.44	5225.1	
357.65	5296.7	
357.85	5238	
358.06	3991.5	
358.27	4953.4	
358.47	5127.4	
358.68	3332	
358.88	4323.9	
359.09	5765.7	
359.3	6221.7	
359.5	5011.4	
359.71	4461.2	
359.91	6636.8	
360.12	6045.6	
360.33	4199	
360.53	4758.8	
360.74	5199.1	
360.94	5272.2	
361.15	4434.5	
361.36	3651.5	
361.56	6012.2	
361.77	5451.7	
361.97	5007.3	
362.18	3875.4	
362.38	6096.8	
362.59	5076.2	
362.8	3674.1	
363	3397.6	
363.21	4858.5	
363.41	5478.3	
363.62	4127.3	
363.83	5217.5	
364.03	5646.9	
364.24	6687.3	
364.44	5309	
364.65	5229.1	
364.85	5381.4	
365.06	5040.1	
365.27	3830.4	
365.47	3760.8	
365.68	6429.3	
365.88	5361.6	
366.09	4169.7	
366.29	3835.2	
366.5	5671.5	
366.71	6113.9	
366.91	5173.2	
367.12	4430.4	
367.32	6709.1	
367.53	5907.7	
367.73	4291.9	
367.94	5283.8	
368.14	5866.1	
368.35	6808.8	
368.56	4243.4	
368.76	3690.4	
368.97	6042.2	
369.17	7716.7	
369.38	3742.3	
369.58	4065.2	
369.79	5006.6	
369.99	6314.6	
370.2	5137.7	
370.4	4180.6	
370.61	5665.4	
370.82	6903.7	
371.02	4071.4	
371.23	3374.4	
371.43	4950.6	
371.64	6303.6	
371.84	4057	
372.05	5312.4	
372.25	7674.4	
372.46	6024.4	
372.66	4069.3	
372.87	4030.4	
373.07	6059.3	
373.28	7771.4	
373.48	5078.3	
373.69	4779.3	
373.9	5538.4	
374.1	5491.3	
374.31	5115.1	
374.51	4554.7	
374.72	6343.2	
374.92	5197.7	
375.13	5241.4	
375.33	4354.7	
375.54	5986.2	
375.74	5380.7	
375.95	4474.1	
376.15	5784.1	
376.36	5933	
376.56	5748	
376.77	4503.5	
376.97	4990.9	
377.18	6939.9	
377.38	6025.8	
377.59	5347.9	
377.79	3988.8	
378	5763	
378.2	6256.5	
378.41	4024.9	
378.61	3932.8	
378.82	6276.3	
379.02	5417.6	
379.23	4231.1	
379.43	5465.3	
379.64	6412.9	
379.84	5972.6	
380.05	4031.8	
380.25	3957.4	
380.46	6132.3	
380.66	5705.6	
380.87	5441.5	
381.07	5831.9	
381.28	6737.8	
381.48	6118	
381.69	4126.7	
381.89	4124.6	
382.1	5023	
382.3	6318.7	
382.51	5236	
382.71	6191	
382.91	6176	
383.12	6632.7	
383.32	4496.7	
383.53	4736.3	
383.73	5973.2	
383.94	5751.4	
384.14	4614.1	
384.35	3728.7	
384.55	5740.5	
384.76	6089.3	
384.96	4483.7	
385.17	4726.7	
385.37	6100.9	
385.58	5365.7	
385.78	4782	
385.98	3579.2	
386.19	5773.2	
386.39	5991	
386.6	4198.3	
386.8	4447.5	
387.01	6044.9	
387.21	6067.4	
387.42	4881	
387.62	5524.7	
387.83	5397.8	
388.03	6077	
388.23	4459.8	
388.44	5333.6	
388.64	5182.7	
388.85	5197.1	
389.05	4919.2	
389.26	5464.7	
389.46	7139.2	
389.67	6479.8	
389.87	4775.9	
390.07	4873.5	
390.28	5700.2	
390.48	5268.7	
390.69	4035.2	
390.89	4370.4	
391.1	5498.1	
391.3	6472.3	
391.5	5630.5	
391.71	6195.1	
391.91	6108.4	
392.12	7202.7	
392.32	5646.2	
392.53	4812.7	
392.73	5598.5	
392.93	5787.6	
393.14	4555.4	
393.34	5685.8	
393.55	6318.7	
393.75	5678.3	
393.95	4508.9	
394.16	4455	
394.36	5475.6	
394.57	6150.7	
394.77	3936.2	
394.98	4421.6	
395.18	5390.3	
395.38	5635.3	
395.59	5281.7	
395.79	4228.4	
396	5518.6	
396.2	5996.5	
396.4	5057.1	
396.61	4976.6	
396.81	6309.8	
397.02	5485.1	
397.22	5330.2	
397.42	5401.9	
397.63	6263.4	
397.83	5390.9	
398.04	4184	
398.24	4730.1	
398.44	6010.8	
398.65	5064.6	
398.85	4046.8	
399.05	4111	
399.26	5409.4	
399.46	7172.7	
399.67	4537.6	
399.87	4163.5	
400.07	5796.4	
400.28	6148.7	
400.48	4274.1	
400.69	5397.1	
400.89	6427.9	
401.09	6801.3	
401.3	4166.9	
401.5	5421.7	
401.7	7153.6	
401.91	7378.8	
402.11	4593.6	
402.32	4899.4	
402.52	6457.9	
402.72	6391	
402.93	5089.2	
403.13	3843.4	
403.33	7189.1	
403.54	5828.5	
403.74	4743.8	
403.94	5617.6	
404.15	5907	
404.35	7086	
404.56	4507.6	
404.76	6377.4	
404.96	6296.1	
405.17	6071.5	
405.37	5380	
405.57	4912.4	
405.78	6356.9	
405.98	5766.4	
406.18	4521.9	
406.39	5479	
406.59	6358.9	
406.79	6025.8	
407	4300.7	
407.2	4410	
407.4	6406.7	
407.61	6614.9	
407.81	4403.1	
408.01	6677.7	
408.22	5286.5	
408.42	7317.4	
408.62	5411.4	
408.83	4855.7	
409.03	5951.4	
409.23	5639.4	
409.44	4932.2	
409.64	5319.3	
409.84	6847	
410.05	6770.6	
410.25	5076.9	
410.45	4880.3	
410.66	6201.2	
410.86	8731.2	
411.06	5279	
411.27	5210	
411.47	8517.5	
411.67	6367.8	
411.88	5459.2	
412.08	5679.7	
412.28	7060	
412.49	7613	
412.69	5247.6	
412.89	5139.7	
413.09	7367.9	
413.3	7222.5	
413.5	5279	
413.7	4834.6	
413.91	6512.5	
414.11	7413	
414.31	5093.3	
414.52	5584.8	
414.72	7012.9	
414.92	6962.4	
415.12	5119.9	
415.33	5699.5	
415.53	7364.5	
415.73	7473.7	
415.94	6071.5	
416.14	5463.3	
416.34	6234	
416.55	6056.5	
416.75	6653.2	
416.95	6019	
417.15	7269.6	
417.36	8006.9	
417.56	6850.5	
417.76	5930.2	
417.97	7676.5	
418.17	7356.3	
418.37	5390.3	
418.57	5514.5	
418.78	7018.4	
418.98	6766.5	
419.18	6425.8	
419.38	6292	
419.59	6793.1	
419.79	6416.3	
419.99	5373.9	
420.2	5834	
420.4	7298.3	
420.6	7512.6	
420.8	5239.4	
421.01	5096.7	
421.21	7025.9	
421.41	7346.7	
421.61	5683.8	
421.82	5325.4	
422.02	6571.9	
422.22	7612.3	
422.42	6235.4	
422.63	5780.1	
422.83	6818.4	
423.03	8027.4	
423.23	5862	
423.44	4760.8	
423.64	6836.1	
423.84	6566.5	
424.04	5279	
424.25	4874.8	
424.45	7810.3	
424.65	7737.2	
424.85	4749.9	
425.06	5289.2	
425.26	7692.9	
425.46	6137.1	
425.66	5780.7	
425.87	5464	
426.07	7445.7	
426.27	7342.7	
426.47	5620.3	
426.67	4908.3	
426.88	7823.9	
427.08	7307.8	
427.28	5819	
427.48	4881	
427.69	6114.6	
427.89	6829.3	
428.09	5857.9	
428.29	4938.3	
428.5	7545.4	
428.7	6973.3	
428.9	4808.6	
429.1	5334.3	
429.3	6887.3	
429.51	7356.3	
429.71	5137	
429.91	5934.3	
430.11	7179.5	
430.31	7472.4	
430.52	5475.6	
430.72	5684.5	
430.92	7790.5	
431.12	7204.8	
431.32	5068.7	
431.53	5534.3	
431.73	6090.7	
431.93	7845.1	
432.13	5038	
432.33	4856.4	
432.54	6522.1	
432.74	6928.3	
432.94	4749.9	
433.14	5890	
433.34	7108.5	
433.55	6594.5	
433.75	5799.8	
433.95	7591.1	
434.15	6868.9	
434.35	6550.8	
434.56	5010	
434.76	4475.5	
434.96	6888.7	
435.16	7115.3	
435.36	4878.3	
435.56	6010.8	
435.77	6474.3	
435.97	6657.9	
436.17	6775.4	
436.37	5954.1	
436.57	6488	
436.78	6369.9	
436.98	7678.5	
437.18	6568.5	
437.38	7131.7	
437.58	6705	
437.78	6720.8	
437.99	5322.7	
438.19	7278.5	
438.39	8077.2	
438.59	5227.1	
438.79	4726.7	
438.99	7963.9	
439.2	6677.1	
439.4	4911.7	
439.6	4773.1	
439.8	6919.4	
440	8073.1	
440.2	5821.7	
440.4	5881.8	
440.61	7273	
440.81	7877.2	
441.01	4980	
441.21	5928.2	
441.41	7742	
441.61	7417.7	
441.81	6189	
442.02	7332.4	
442.22	8305.2	
442.42	7479.9	
442.62	5048.2	
442.82	5113.8	
443.02	7780.2	
443.22	6815	
443.43	5483.8	
443.63	5036	
443.83	6614.9	
444.03	6623.1	
444.23	6349.4	
444.43	5933.6	
444.63	6946.7	
444.83	8253.3	
445.04	5117.9	
445.24	6530.3	
445.44	7365.9	
445.64	7501	
445.84	5976	
446.04	5973.9	
446.24	6677.1	
446.44	7812.3	
446.65	5149.3	
446.85	5582.8	
447.05	6841.6	
447.25	7703.8	
447.45	5657.2	
447.65	4976.6	
447.85	7023.2	
448.05	6722.8	
448.25	6057.2	
448.46	5894.1	
448.66	6954.9	
448.86	6712.6	
449.06	4732.2	
449.26	6047.7	
449.46	7350.8	
449.66	6307.1	
449.86	5471.5	
450.06	5477	
450.26	6549.4	
450.47	7201.3	
450.67	5784.8	
450.87	6161.7	
451.07	7187.7	
451.27	7060	
451.47	5092.6	
451.67	5651.7	
451.87	6673.6	
452.07	7881.3	
452.27	5253.7	
452.47	5244.2	
452.67	7055.9	
452.88	7492.8	
453.08	4617.5	
453.28	6689.3	
453.48	8176.2	
453.68	6953.5	
453.88	5148.6	
454.08	5382.1	
454.28	7352.2	
454.48	6961.7	
454.68	5969.1	
454.88	6513.9	
455.08	7406.1	
455.28	7114.6	
455.48	5006.6	
455.68	5696.8	
455.89	7856	
456.09	7570.7	
456.29	5323.4	
456.49	5356.8	
456.69	7782.3	
456.89	6999.3	
457.09	5927.5	
457.29	6307.7	
457.49	7335.1	
457.69	7455.3	
457.89	5663.3	
458.09	5078.3	
458.29	7000.6	
458.49	7716.7	
458.69	6071.5	
458.89	5569.1	
459.09	7988.4	
459.29	8188.5	
459.49	5719.3	
459.69	6436.8	
459.9	7523.6	
460.1	7034.1	
460.3	5516.5	
460.5	5318.6	
460.7	7469.6	
460.9	7188.4	
461.1	4933.6	
461.3	6353.5	
461.5	8158.4	
461.7	7757	
461.9	5306.3	
462.1	5843.5	
462.3	7189.7	
462.5	7802.8	
462.7	5468.1	
462.9	5489.2	
463.1	8842.4	
463.3	8409	
463.5	5597.1	
463.7	6541.9	
463.9	7404.8	
464.1	7843.7	
464.3	5767.8	
464.5	6053.1	
464.7	7970	
464.9	7568.6	
465.1	7460.8	
465.3	6387.6	
465.5	8363.2	
465.7	8396.7	
465.9	6681.2	
466.1	6552.1	
466.3	8046.5	
466.5	7900.4	
466.7	7374.7	
466.9	6150.1	
467.1	7783	
467.3	8862.2	
467.5	7275.1	
467.7	6075	
467.9	9085.5	
468.1	10025	
468.3	6909.8	
468.5	7309.9	
468.7	7811	
468.9	7726.3	
469.1	6362.4	
469.3	7047.7	
469.5	9841.9	
469.7	7386.3	
469.9	6896.2	
470.1	6139.1	
470.3	7843.7	
470.5	7817.8	
470.7	7337.9	
470.9	6126.2	
471.1	7537.9	
471.3	8112	
471.5	5969.1	
471.69	8007.6	
471.89	7518.8	
472.09	6966.5	
472.29	6851.8	
472.49	7290.8	
472.69	7194.5	
472.89	8139.3	
473.09	5891.3	
473.29	6077.7	
473.49	7365.9	
473.69	7600	
473.89	7023.9	
474.09	6267.5	
474.29	8841.8	
474.49	8543.4	
474.69	7032.7	
474.89	6365.8	
475.09	7595.9	
475.29	7534.5	
475.49	5773.9	
475.69	6052.4	
475.88	9245.9	
476.08	7798	
476.28	5674.2	
476.48	6253.1	
476.68	8335.9	
476.88	8313.4	
477.08	6034.7	
477.28	6289.3	
477.48	7692.2	
477.68	8344.8	
477.88	5778.7	
478.08	6111.8	
478.28	8618.5	
478.48	7696.3	
478.67	6102.3	
478.87	5606.7	
479.07	8413.1	
479.27	7847.8	
479.47	6458.6	
479.67	6450.4	
479.87	8258.1	
480.07	8787.8	
480.27	5646.9	
480.47	7289.4	
480.67	7892.2	
480.87	8552.3	
481.06	5956.2	
481.26	6774	
481.46	7808.9	
481.66	7744.7	
481.86	6368.5	
482.06	7477.8	
482.26	7583.6	
482.46	8433.5	
482.66	6250.4	
482.86	5888.6	
483.05	7871	
483.25	7268.9	
483.45	8830.2	
483.65	6256.5	
483.85	7415	
484.05	7755	
484.25	6721.4	
484.45	7208.2	
484.65	8617.2	
484.84	8580.3	
485.04	6210.1	
485.24	6124.1	
485.44	8971.5	
485.64	7197.2	
485.84	5410.7	
486.04	6881.2	
486.24	7531.7	
486.44	7899.7	
486.63	5350	
486.83	6249	
487.03	7379.5	
487.23	7651.2	
487.43	5486.5	
487.63	7970	
487.83	7591.1	
488.02	8670.4	
488.22	6472.9	
488.42	7089.4	
488.62	8518.9	
488.82	7417.1	
489.02	6163	
489.22	6125.5	
489.41	8415.8	
489.61	8017.1	
489.81	5924.1	
490.01	5915.9	
490.21	8329.8	
490.41	9061.6	
490.61	5860.6	
490.8	6012.2	
491	7732.4	
491.2	7075.7	
491.4	6661.4	
491.6	5681.1	
491.8	7756.3	
491.99	7933.8	
492.19	5552.7	
492.39	5948	
492.59	8323.6	
492.79	8320.9	
492.99	6705	
493.18	5861.3	
493.38	8414.4	
493.58	9241.1	
493.78	6559.6	
493.98	6065.4	
494.18	8032.8	
494.37	7475.8	
494.57	6717.3	
494.77	6654.5	
494.97	8178.9	
495.17	8526.4	
495.37	6176	
495.56	6445.6	
495.76	8659.5	
495.96	8315.4	
496.16	7416.4	
496.36	6279.8	
496.55	8439	
496.75	7961.1	
496.95	6653.9	
497.15	6584.2	
497.35	8479.3	
497.54	8434.9	
497.74	6383.5	
497.94	8204.2	
498.14	9190.6	
498.34	9026.8	
498.53	5895.4	
498.73	6879.8	
498.93	7744.7	
499.13	8366	
499.33	6583.5	
499.52	7253.9	
499.72	8281.3	
499.92	8709.3	
500.12	6220.4	
500.32	6523.5	
500.51	8637	
500.71	8375.5	
500.91	7376.8	
501.11	6968.6	
501.31	8503.8	
501.5	9019.3	
501.7	7585.7	
501.9	6582.9	
502.1	8341.4	
502.29	8669.7	
502.49	6991.1	
502.69	7574.8	
502.89	8541.4	
503.09	8529.1	
503.28	6119.3	
503.48	6236.7	
503.68	7699.7	
503.88	7755.7	
504.07	7204.8	
504.27	6670.2	
504.47	8178.2	
504.67	8355.7	
504.86	7087.3	
505.06	6840.9	
505.26	7878.5	
505.46	9737.4	
505.65	6708.5	
505.85	6955.6	
506.05	7816.4	
506.25	8232.8	
506.44	6083.8	
506.64	7118.7	
506.84	7693.5	
507.04	8758.5	
507.23	6244.9	
507.43	6830.7	
507.63	9856.9	
507.83	7998.7	
508.02	6874.3	
508.22	6449.1	
508.42	10109	
508.62	7686.7	
508.81	7082.6	
509.01	7316	
509.21	7605.5	
509.4	7930.4	
509.6	6895.5	
509.8	6253.8	
510	7898.3	
510.19	9377	
510.39	6211.5	
510.59	6300.2	
510.79	7600.7	
510.98	9082.7	
511.18	6388.3	
511.38	6409.5	
511.57	8513.4	
511.77	8454	
511.97	7237.5	
512.17	6066.8	
512.36	8413.1	
512.56	8479.3	
512.76	6193.1	
512.95	5975.3	
513.15	8586.5	
513.35	7133.8	
513.55	7086	
513.74	6197.8	
513.94	8495.7	
514.14	7793.2	
514.33	7124.2	
514.53	6767.9	
514.73	7859.4	
514.92	8032.1	
515.12	6404.7	
515.32	6196.5	
515.51	8073.8	
515.71	8684.8	
515.91	7912	
516.11	6138.4	
516.3	9880.1	
516.5	7643.7	
516.7	6761.7	
516.89	7477.8	
517.09	7778.9	
517.29	7636.2	
517.48	7137.9	
517.68	6521.4	
517.88	7543.4	
518.07	8224	
518.27	7009.5	
518.47	5978.7	
518.66	8896.4	
518.86	7212.9	
519.06	5857.2	
519.25	6238.1	
519.45	7635.5	
519.65	9286.2	
519.84	6946	
520.04	7647.1	
520.24	9646.6	
520.43	8279.9	
520.63	6650.4	
520.83	6308.4	
521.02	7603.4	
521.22	8186.4	
521.42	6991.1	
521.61	7554.3	
521.81	7834.2	
522.01	7940.7	
522.2	6744.6	
522.4	6513.9	
522.6	8441	
522.79	7126.9	
522.99	6644.3	
523.18	5805.3	
523.38	8089.5	
523.58	8064.2	
523.77	7860.1	
523.97	5791	
524.17	9908.1	
524.36	9185.8	
524.56	7149.5	
524.76	6815	
524.95	7995.3	
525.15	7721.5	
525.34	6514.6	
525.54	6608.8	
525.74	8417.8	
525.93	7308.5	
526.13	7748.1	
526.33	6471.6	
526.52	8755.1	
526.72	8196.7	
526.91	7791.8	
527.11	7003.4	
527.31	8791.2	
527.5	9243.2	
527.7	6952.9	
527.89	5864	
528.09	7520.8	
528.29	8163.9	
528.48	7323.5	
528.68	6901.7	
528.87	8537.3	
529.07	8652	
529.27	6836.8	
529.46	6429.3	
529.66	8236.2	
529.85	8655.4	
530.05	6134.3	
530.25	6966.5	
530.44	9682.1	
530.64	8211.7	
530.83	6611.5	
531.03	6836.1	
531.23	8510	
531.42	8512	
531.62	7664.9	
531.81	6730.3	
532.01	8639	
532.21	9134.6	
532.4	6425.8	
532.6	6704.4	
532.79	9503.3	
532.99	8574.2	
533.18	6726.9	
533.38	7887.4	
533.58	8163.9	
533.77	9110.7	
533.97	6754.2	
534.16	7656	
534.36	9170.1	
534.55	8208.9	
534.75	7808.2	
534.95	6853.2	
535.14	8983.1	
535.34	8149.6	
535.53	6531	
535.73	8574.2	
535.92	9529.9	
536.12	8426.7	
536.31	6596.5	
536.51	7904.5	
536.71	8720.9	
536.9	8284.7	
537.1	6757.6	
537.29	6972.7	
537.49	9158.5	
537.68	8064.2	
537.88	7255.3	
538.07	6466.8	
538.27	8320.2	
538.46	9379	
538.66	6356.2	
538.86	6819.1	
539.05	8403.5	
539.25	8882.7	
539.44	7109.9	
539.64	6749.4	
539.83	8388.5	
540.03	9235	
540.22	6620.4	
540.42	6769.9	
540.61	8492.9	
540.81	8643.1	
541	7273.7	
541.2	7907.2	
541.39	8044.4	
541.59	8525.7	
541.78	7468.9	
541.98	6657.9	
542.18	7787.1	
542.37	7720.2	
542.57	7078.5	
542.76	7565.2	
542.96	7815.7	
543.15	8563.2	
543.35	7066.2	
543.54	6343.2	
543.74	8889.5	
543.93	8368.7	
544.13	7055.3	
544.32	8218.5	
544.52	8886.1	
544.71	7869.7	
544.91	6069.5	
545.1	7442.3	
545.3	7965.2	
545.49	8693.6	
545.69	6065.4	
545.88	6713.2	
546.08	9682.8	
546.27	9226.8	
546.47	7230	
546.66	6478.4	
546.86	8946.2	
547.05	9633.6	
547.24	6788.3	
547.44	6569.2	
547.63	7863.5	
547.83	9031.5	
548.02	6986.3	
548.22	7174	
548.41	7621.2	
548.61	9064.3	
548.8	6425.8	
549	6384.9	
549.19	8346.2	
549.39	8609.7	
549.58	6234	
549.78	6845.7	
549.97	8773.5	
550.17	8277.9	
550.36	7722.2	
550.55	8758.5	
550.75	8193.2	
550.94	9236.3	
551.14	6410.1	
551.33	6938.5	
551.53	7551.5	
551.72	8606.9	
551.92	6912.6	
552.11	6513.2	
552.31	8626.7	
552.5	8595.3	
552.69	8383	
552.89	6234.7	
553.08	8591.9	
553.28	8247.2	
553.47	6731	
553.67	7834.8	
553.86	9237.7	
554.06	7544.7	
554.25	5776.6	
554.44	6317.3	
554.64	10163	
554.83	9508	
555.03	6384.2	
555.22	6822.5	
555.42	8718.9	
555.61	8424	
555.8	6591	
556	6918	
556.19	7544.7	
556.39	8968.1	
556.58	6677.1	
556.78	6582.2	
556.97	8294.3	
557.16	8035.5	
557.36	7881.3	
557.55	6283.2	
557.75	7313.3	
557.94	9226.1	
558.13	6467.5	
558.33	6130.3	
558.52	8926.4	
558.72	7759.8	
558.91	6314.6	
559.1	6577.4	
559.3	7433.4	
559.49	7218.4	
559.69	5814.9	
559.88	6853.9	
560.07	8320.9	
560.27	8797.4	
560.46	7112.6	
560.66	7198.6	
560.85	8116.1	
561.04	7358.4	
561.24	6225.8	
561.43	6452.5	
561.63	7492.2	
561.82	7766.6	
562.01	7724.3	
562.21	6703.7	
562.4	8329.8	
562.59	9222	
562.79	6584.9	
562.98	6227.9	
563.18	8217.1	
563.37	9609.8	
563.56	7083.9	
563.76	6081.8	
563.95	7583.6	
564.14	7532.4	
564.34	6491.4	
564.53	6325.5	
564.73	8150.2	
564.92	8529.8	
565.11	6675.7	
565.31	6087.2	
565.5	8735.3	
565.69	7748.8	
565.89	6263.4	
566.08	6581.5	
566.27	8615.1	
566.47	9061.6	
566.66	7114.6	
566.85	5812.1	
567.05	8200.1	
567.24	7525.6	
567.44	6100.9	
567.63	7621.2	
567.82	8429.4	
568.02	8213.7	
568.21	6146.6	
568.4	6557.6	
568.6	7961.8	
568.79	8021.2	
568.98	5883.1	
569.18	6160.3	
569.37	7968.6	
569.56	10054	
569.76	6537.8	
569.95	7565.2	
570.14	8394.6	
570.34	8276.5	
570.53	6001.9	
570.72	6002.6	
570.91	8839	
571.11	7956.4	
571.3	6518	
571.49	7448.5	
571.69	7930.4	
571.88	7551.5	
572.07	7082.6	
572.27	7070.3	
572.46	7570	
572.65	8649.9	
572.85	6214.2	
573.04	6632	
573.23	8768	
573.43	8037.6	
573.62	5958.9	
573.81	6649.1	
574	8049.2	
574.2	7922.9	
574.39	6305	
574.58	6480.5	
574.78	8957.8	
574.97	8232.2	
575.16	6938.5	
575.36	7005.4	
575.55	8501.1	
575.74	8699.1	
575.93	6021.7	
576.13	7111.9	
576.32	7846.5	
576.51	8514.1	
576.71	6437.4	
576.9	7775.5	
577.09	8796	
577.28	8340.7	
577.48	6873.7	
577.67	5846.3	
577.86	7954.3	
578.05	8260.8	
578.25	6507.8	
578.44	6634.7	
578.63	8072.4	
578.83	9379.7	
579.02	5898.2	
579.21	7520.1	
579.4	8293.6	
579.6	7940.7	
579.79	6718.7	
579.98	9081.4	
580.17	8633.6	
580.37	8656.8	
580.56	6141.2	
580.75	6918	
580.94	9155.8	
581.14	8968.1	
581.33	7326.3	
581.52	6259.3	
581.71	8502.5	
581.91	9170.8	
582.1	5905	
582.29	6578.1	
582.48	8087.4	
582.68	7975.5	
582.87	7103.7	
583.06	6696.2	
583.25	8406.2	
583.45	7887.4	
583.64	7314.7	
583.83	8044.4	
584.02	7849.9	
584.21	8346.8	
584.41	7307.2	
584.6	6636.1	
584.79	8060.8	
584.98	8837.7	
585.18	5956.2	
585.37	6036	
585.56	7622.5	
585.75	8419.9	
585.94	6395.8	
586.14	6882.5	
586.33	9034.3	
586.52	7975.5	
586.71	6874.3	
586.91	6502.3	
587.1	7531.7	
587.29	8557.8	
587.48	6541.2	
587.67	6348.7	
587.87	8392.6	
588.06	8569.4	
588.25	7789.8	
588.44	7070.3	
588.63	8107.9	
588.83	8729.1	
589.02	6501.6	
589.21	6365.1	
589.4	7871	
589.59	7702.4	
589.78	5654.4	
589.98	5956.9	
590.17	7494.9	
590.36	8023.3	
590.55	5424.4	
590.74	6252.4	
590.94	9508	
591.13	7955	
591.32	6050.4	
591.51	5567.7	
591.7	8452.6	
591.89	7838.3	
592.09	5699.5	
592.28	6100.2	
592.47	7030.7	
592.66	9022	
592.85	5683.1	
593.05	5895.4	
593.24	7652.6	
593.43	8460.2	
593.62	5941.2	
593.81	6535.1	
594	7767.3	
594.19	7989.8	
594.39	5840.8	
594.58	5792.3	
594.77	8019.2	
594.96	8652.7	
595.15	5774.6	
595.34	6449.1	
595.54	8101.1	
595.73	7208.2	
595.92	5151.3	
596.11	6380.1	
596.3	8599.4	
596.49	7279.2	
596.68	6137.1	
596.88	6646.3	
597.07	8346.2	
597.26	7154.9	
597.45	5652.4	
597.64	6822.5	
597.83	7386.3	
598.02	8032.1	
598.22	5668.1	
598.41	6359.6	
598.6	7833.5	
598.79	7232.7	
598.98	5747.3	
599.17	6737.1	
599.36	7801.4	
599.55	9043.8	
599.74	7868.3	
599.94	7630.7	
600.13	8389.2	
600.32	7149.5	
600.51	5554.1	
600.7	5632.6	
600.89	9019.9	
601.08	9090.3	
601.27	5425.1	
601.47	6468.9	
601.66	8359.1	
601.85	8950.3	
602.04	5996.5	
602.23	6371.9	
602.42	7212.9	
602.61	7967.3	
602.8	6026.5	
602.99	5808	
603.18	7617.1	
603.37	7870.3	
603.57	6461.3	
603.76	7005.4	
603.95	8684.8	
604.14	8269	
604.33	5835.3	
604.52	6225.8	
604.71	7875.8	
604.9	7452.6	
605.09	6868.9	
605.28	6752.2	
605.47	8450.6	
605.66	8183.7	
605.86	6484.6	
606.05	5920	
606.24	8477.9	
606.43	6993.1	
606.62	6195.8	
606.81	6974.7	
607	8311.3	
607.19	7654.6	
607.38	5603.2	
607.57	5930.9	
607.76	7367.9	
607.95	6816.3	
608.14	6249.7	
608.33	6967.9	
608.52	7461.4	
608.72	8291.5	
608.91	5507	
609.1	5410.1	
609.29	7449.1	
609.48	6971.3	
609.67	6578.8	
609.86	5500.8	
610.05	7011.6	
610.24	7514.7	
610.43	5343.8	
610.62	4962.9	
610.81	8560.5	
611	8333.9	
611.19	5514.5	
611.38	6290	
611.57	7780.9	
611.76	9179	
611.95	5229.8	
612.14	5096.7	
612.33	7553.6	
612.52	7057.3	
612.71	5868.1	
612.9	4997.7	
613.09	6679.8	
613.28	9150.3	
613.47	5469.4	
613.66	6612.9	
613.85	7626.6	
614.04	7212.9	
614.24	5684.5	
614.43	4807.3	
614.62	7836.2	
614.81	7738.6	
615	6290.7	
615.19	6215.6	
615.38	7041.6	
615.57	7347.4	
615.76	6090	
615.95	7060	
616.14	7789.8	
616.33	7499	
616.52	6406	
616.71	6627.2	
616.9	7805.5	
617.09	7468.9	
617.28	5708.4	
617.47	7257.3	
617.66	6803.4	
617.85	6919.4	
618.04	6688.7	
618.22	6050.4	
618.41	7120.8	
618.6	8092.9	
618.79	6009.4	
618.98	5671.5	
619.17	8424.7	
619.36	6664.8	
619.55	5721.3	
619.74	5890	
619.93	7573.4	
620.12	7050.5	
620.31	6479.8	
620.5	6614.3	
620.69	8451.3	
620.88	8645.8	
621.07	7303.7	
621.26	6314.6	
621.45	7780.2	
621.64	7830.7	
621.83	6399.9	
622.02	5530.9	
622.21	7794.6	
622.4	7536.5	
622.59	6890	
622.78	6653.9	
622.97	7142.6	
623.16	8152.3	
623.35	6229.2	
623.54	5468.8	
623.72	7404.8	
623.91	7566.6	
624.1	6483.9	
624.29	5195	
624.48	8568	
624.67	7819.8	
624.86	6408.1	
625.05	5451.7	
625.24	8828.8	
625.43	7081.2	
625.62	8206.2	
625.81	5696.8	
626	8128.4	
626.19	7418.4	
626.38	6525.5	
626.56	5892	
626.75	7198.6	
626.94	7969.3	
627.13	6566.5	
627.32	5208	
627.51	7830.1	
627.7	9247.3	
627.89	5358.2	
628.08	6475	
628.27	7042.3	
628.46	7280.5	
628.65	5668.1	
628.83	5252.4	
629.02	7909.9	
629.21	7095.5	
629.4	6108.4	
629.59	6319.3	
629.78	6991.1	
629.97	8142.7	
630.16	6366.5	
630.35	5807.4	
630.54	8454.7	
630.72	8252.6	
630.91	5743.9	
631.1	6455.9	
631.29	7629.4	
631.48	7875.1	
631.67	6377.4	
631.86	5926.8	
632.05	7207.5	
632.24	7352.2	
632.42	5508.4	
632.61	6195.8	
632.8	7423.2	
632.99	7070.3	
633.18	6140.5	
633.37	6619	
633.56	7626	
633.75	7426.6	
633.93	6118	
634.12	5783.5	
634.31	8436.3	
634.5	8010.3	
634.69	5836	
634.88	6455.9	
635.07	7443	
635.25	8067.6	
635.44	6781.5	
635.63	7002	
635.82	7240.3	
636.01	6763.1	
636.2	6742.6	
636.39	6281.8	
636.57	8354.3	
636.76	8153.6	
636.95	5623	
637.14	7083.9	
637.33	7785.7	
637.52	8699.8	
637.7	5513.1	
637.89	6368.5	
638.08	7301	
638.27	8759.8	
638.46	6556.2	
638.65	6970.6	
638.83	8873.2	
639.02	7103.7	
639.21	6496.2	
639.4	7038.9	
639.59	7724.3	
639.78	7286.7	
639.96	5767.1	
640.15	5757.5	
640.34	7519.5	
640.53	7723.6	
640.72	5414.1	
640.91	5811.5	
641.09	6984.3	
641.28	8376.9	
641.47	5785.5	
641.66	6638.8	
641.85	7688.1	
642.03	8043.7	
642.22	6541.2	
642.41	5856.5	
642.6	7065.5	
642.79	6478.4	
642.97	5633.3	
643.16	6400.6	
643.35	7041.6	
643.54	6916.7	
643.73	5643.5	
643.91	6443.6	
644.1	6731.7	
644.29	7358.4	
644.48	5707	
644.67	5741.1	
644.85	6956.9	
645.04	7275.1	
645.23	5298.8	
645.42	5603.9	
645.6	6920.1	
645.79	8122.9	
645.98	5667.4	
646.17	4729.4	
646.36	6595.8	
646.54	7343.3	
646.73	6583.5	
646.92	5339.1	
647.11	6873.7	
647.29	8059.4	
647.48	5413.5	
647.67	5167.7	
647.86	8262.2	
648.05	8333.2	
648.23	5825.1	
648.42	7116.7	
648.61	7660.1	
648.8	7329	
648.98	5285.8	
649.17	5749.3	
649.36	6878.4	
649.55	6365.8	
649.73	5408.7	
649.92	6242.2	
650.11	6724.8	
650.3	7123.5	
650.48	5567.7	
650.67	5343.2	
650.86	7471	
651.05	6298.9	
651.23	5472.9	
651.42	5469.4	
651.61	6873.7	
651.79	6997.2	
651.98	5686.5	
652.17	5279.7	
652.36	7305.8	
652.54	6404	
652.73	5373.2	
652.92	5177.9	
653.11	7430	
653.29	7439.6	
653.48	4588.8	
653.67	5682.4	
653.85	7152.2	
654.04	8279.9	
654.23	6004	
654.42	5449	
654.6	6716.7	
654.79	7393.8	
654.98	4924.7	
655.16	5474.9	
655.35	6324.1	
655.54	6249.7	
655.73	5124	
655.91	4911	
656.1	7479.2	
656.29	6235.4	
656.47	4493.2	
656.66	6305.7	
656.85	6492.7	
657.03	6503	
657.22	5030.5	
657.41	5148.6	
657.59	6638.1	
657.78	6378.7	
657.97	4758.8	
658.16	5498.8	
658.34	7268.2	
658.53	7696.9	
658.72	6440.2	
658.9	6952.9	
659.09	6688	
659.28	6726.2	
659.46	5186.1	
659.65	5149.3	
659.84	6477.7	
660.02	6993.1	
660.21	5051	
660.4	4973.8	
660.58	7494.2	
660.77	6827.2	
660.96	5655.1	
661.14	4691.2	
661.33	8008.2	
661.52	7887.4	
661.7	4603.8	
661.89	8447.2	
662.08	6395.8	
662.26	5970.5	
662.45	4915.1	
662.64	5002.5	
662.82	7126.9	
663.01	6319.3	
663.2	4996.4	
663.38	5835.3	
663.57	6966.5	
663.75	6919.4	
663.94	5401.9	
664.13	6819.1	
664.31	6368.5	
664.5	7096.9	
664.69	5799.2	
664.87	6272.9	
665.06	6073.6	
665.25	6944	
665.43	6485.2	
665.62	6479.8	
665.8	7256.6	
665.99	6561.7	
666.18	5347.9	
666.36	5502.2	
666.55	7225.9	
666.74	7110.5	
666.92	4956.1	
667.11	6651.1	
667.29	6493.4	
667.48	7202.7	
667.67	6361.7	
667.85	5252.4	
668.04	6627.2	
668.22	6531.7	
668.41	5481	
668.6	5653.8	
668.78	6384.9	
668.97	6621.1	
669.15	5870.2	
669.34	4766.3	
669.53	6443.6	
669.71	6805.4	
669.9	4928.8	
670.08	5647.6	
670.27	6350.1	
670.46	7011.6	
670.64	5825.8	
670.83	6085.9	
671.01	6275.7	
671.2	6939.9	
671.38	5059.2	
671.57	4913.1	
671.76	7592.5	
671.94	8203.5	
672.13	4836.6	
672.31	6072.2	
672.5	7089.4	
672.69	6327.5	
672.87	4997.7	
673.06	5290.6	
673.24	6905.1	
673.43	6360.3	
673.61	5840.8	
673.8	5315.8	
673.98	7153.6	
674.17	7381.6	
674.36	5905	
674.54	5754.8	
674.73	6860.7	
674.91	7161.7	
675.1	5499.5	
675.28	5105.6	
675.47	6673.6	
675.65	7228.6	
675.84	5347.9	
676.03	5745.9	
676.21	6364.4	
676.4	5871.5	
676.58	6132.3	
676.77	5834	
676.95	7915.4	
677.14	6351.4	
677.32	4974.5	
677.51	4763.6	
677.69	7178.1	
677.88	6032.6	
678.06	4891.2	
678.25	4931.5	
678.44	6642.9	
678.62	6389.7	
678.81	4696	
678.99	5623.7	
679.18	7546.1	
679.36	7025.9	
679.55	5257.8	
679.73	5926.8	
679.92	7000.6	
680.1	6374.6	
680.29	6516.6	
680.47	5242.8	
680.66	6314.6	
680.84	7206.8	
681.03	4595	
681.21	5724.8	
681.4	6361.7	
681.58	6283.2	
681.77	5067.4	
681.95	4928.8	
682.14	7191.1	
682.32	7604.8	
682.51	6037.4	
682.69	4768.4	
682.88	6298.9	
683.06	7087.3	
683.25	5661.3	
683.43	6134.3	
683.62	6503	
683.8	7071.6	
683.99	6242.2	
684.17	5506.3	
684.36	8014.4	
684.54	6575.3	
684.73	4694.6	
684.91	4992.3	
685.1	6916	
685.28	6281.8	
685.46	5558.9	
685.65	5699.5	
685.83	7263.5	
686.02	6573.3	
686.2	5062.6	
686.39	5182.7	
686.57	6122.7	
686.76	7925.6	
686.94	5004.6	
687.13	5240.1	
687.31	7051.2	
687.5	6479.8	
687.68	4624.3	
687.86	5940.5	
688.05	8202.8	
688.23	5928.9	
688.42	5953.4	
688.6	5109	
688.79	6343.9	
688.97	6412.9	
689.16	5510.4	
689.34	4399	
689.52	7175.4	
689.71	7380.2	
689.89	5842.9	
690.08	5036	
690.26	6654.5	
690.45	6567.8	
690.63	5983.5	
690.81	5189.6	
691	6361	
691.18	6354.2	
691.37	5419.6	
691.55	7701.7	
691.74	6313.2	
691.92	8389.2	
692.1	5400.5	
692.29	4689.2	
692.47	6595.8	
692.66	5801.2	
692.84	4952	
693.02	5545.9	
693.21	5963	
693.39	6477.7	
693.58	5644.2	
693.76	5018.9	
693.94	7725.6	
694.13	7449.8	
694.31	4999.1	
694.5	6164.4	
694.68	6209.4	
694.86	6614.9	
695.05	5372.5	
695.23	5833.3	
695.42	6988.4	
695.6	9432.9	
695.78	5997.8	
695.97	5010.7	
696.15	6974	
696.34	6445	
696.52	4814.8	
696.7	5712.5	
696.89	6790.4	
697.07	6186.2	
697.25	5636	
697.44	7236.2	
697.62	6757.6	
697.81	7036.1	
697.99	5316.5	
698.17	5899.5	
698.36	6074.3	
698.54	6795.8	
698.72	5599.8	
698.91	4619.5	
699.09	6290.7	
699.28	6257.2	
699.46	5301.5	
699.64	5181.4	
699.83	6208.1	
700.01	7501	
700.19	6029.9	
700.38	4379.2	
700.56	7395.2	
700.74	6267.5	
700.93	4747.9	
701.11	5619.6	
701.29	6790.4	
701.48	7866.2	
701.66	4982.7	
701.84	4995.7	
702.03	6366.5	
702.21	6967.2	
702.39	4592.2	
702.58	5071.5	
702.76	6688	
702.94	6912.6	
703.13	4489.1	
703.31	7092.8	
703.49	6020.3	
703.68	7001.3	
703.86	4715.1	
704.04	5796.4	
704.23	6572.6	
704.41	6896.2	
704.59	4932.9	
704.78	6225.8	
704.96	7716.7	
705.14	7001.3	
705.33	4710.3	
705.51	5580	
705.69	6432.7	
705.87	7260	
706.06	5837.4	
706.24	4622.9	
706.42	6759	
706.61	6999.3	
706.79	5816.2	
706.97	4686.4	
707.16	6150.7	
707.34	6795.2	
707.52	5826.5	
707.7	4923.3	
707.89	6389	
708.07	5988.3	
708.25	5848.3	
708.44	5913.2	
708.62	6244.3	
708.8	7383.6	
708.98	6098.9	
709.17	5046.2	
709.35	6608.1	
709.53	6689.3	
709.72	4727.4	
709.9	5188.9	
710.08	6920.1	
710.26	6901	
710.45	6441.5	
710.63	4971.8	
710.81	6540.5	
710.99	6647	
711.18	5717.9	
711.36	5223	
711.54	6370.5	
711.72	7147.4	
711.91	5283.1	
712.09	4660.5	
712.27	6650.4	
712.45	7156.3	
712.64	5629.9	
712.82	4596.3	
713	6083.1	
713.18	6313.2	
713.37	4734.2	
713.55	6056.5	
713.73	7222.5	
713.91	5788.9	
714.1	5173.2	
714.28	4622.9	
714.46	6979.5	
714.64	6008.7	
714.83	4134.2	
715.01	5036.6	
715.19	6289.3	
715.37	5612.8	
715.55	4734.2	
715.74	5126.1	
715.92	7203.4	
716.1	5194.3	
716.28	6287.9	
716.47	5303.6	
716.65	5879	
716.83	6029.2	
717.01	5102.2	
717.19	5161.6	
717.38	8152.3	
717.56	5625.1	
717.74	5390.3	
717.92	4424.3	
718.1	6984.9	
718.29	6059.9	
718.47	4011.3	
718.65	4685.1	
718.83	6797.2	
719.01	6653.9	
719.2	3838.6	
719.38	4975.2	
719.56	6328.9	
719.74	7937.9	
719.92	4511.7	
720.11	5588.2	
720.29	6374	
720.47	5507.7	
720.65	4139.6	
720.83	5046.2	
721.02	5950.7	
721.2	5626.5	
721.38	5130.8	
721.56	4390.2	
721.74	5141.8	
721.92	5464.7	
722.11	5707	
722.29	5395	
722.47	6686.6	
722.65	5787.6	
722.83	4362.2	
723.01	5406.6	
723.2	5908.4	
723.38	6185.5	
723.56	3749.8	
723.74	4987.5	
723.92	5354.8	
724.1	6649.8	
724.29	4281.6	
724.47	5584.8	
724.65	5483.8	
724.83	5378.6	
725.01	4218.1	
725.19	5103.5	
725.37	5536.3	
725.56	5623.7	
725.74	4031.1	
725.92	4304.8	
726.1	5392.3	
726.28	5737.7	
726.46	4825.7	
726.64	4451.6	
726.83	5723.4	
727.01	6023.8	
727.19	4029	
727.37	4891.2	
727.55	5777.3	
727.73	6357.6	
727.91	4007.9	
728.09	3827.7	
728.28	6352.1	
728.46	7084.6	
728.64	5067.4	
728.82	4900.8	
729	7475.1	
729.18	6725.5	
729.36	4137.6	
729.54	6558.3	
729.72	7752.2	
729.91	5907	
730.09	6118	
730.27	4782.7	
730.45	5852.4	
730.63	6475.7	
730.81	5423	
730.99	4403.8	
731.17	6970.6	
731.35	5470.8	
731.53	4977.2	
731.71	4562.9	
731.9	6663.4	
732.08	6976.7	
732.26	4870.1	
732.44	4511	
732.62	7043	
732.8	6376.7	
732.98	5313.8	
733.16	4233.2	
733.34	6459.3	
733.52	5137	
733.7	4834.6	
733.88	5091.9	
734.07	6257.9	
734.25	5979.4	
734.43	4231.8	
734.61	5920	
734.79	7573.4	
734.97	5878.4	
735.15	4425.7	
735.33	4754.7	
735.51	6315.3	
735.69	5862	
735.87	6260	
736.05	5020.3	
736.23	6100.2	
736.41	5928.9	
736.59	4795	
736.77	4922.6	
736.95	6589.7	
737.13	5983.5	
737.32	4480.3	
737.5	4710.3	
737.68	7177.4	
737.86	5842.9	
738.04	4257.7	
738.22	6244.9	
738.4	5606.7	
738.58	5982.1	
738.76	4886.5	
738.94	3825.6	
739.12	5849	
739.3	5638.7	
739.48	5577.3	
739.66	5343.2	
739.84	6084.5	
740.02	6031.3	
740.2	3892.5	
740.38	4349.2	
740.56	6489.3	
740.74	5273.5	
740.92	4999.1	
741.1	4932.9	
741.28	5855.1	
741.46	5692.7	
741.64	4514.4	
741.82	5118.6	
742	5922	
742.18	5919.3	
742.36	4799.1	
742.54	4306.9	
742.72	6524.1	
742.9	5216.2	
743.08	5236	
743.26	3910.3	
743.44	6826.6	
743.62	6591.7	
743.8	5388.2	
743.98	4386.1	
744.16	6305	
744.34	5982.8	
744.52	5281.7	
744.7	5257.8	
744.88	6533.7	
745.06	5953.4	
745.24	5300.8	
745.42	5484.5	
745.6	6556.2	
745.78	6340.5	
745.96	4157.4	
746.14	4508.3	
746.32	7365.2	
746.5	6642.9	
746.68	5051	
746.86	4536.9	
747.03	7041.6	
747.21	5334.3	
747.39	5072.1	
747.57	4507.6	
747.75	6257.9	
747.93	6607.4	
748.11	4519.2	
748.29	4388.1	
748.47	7831.4	
748.65	5887.2	
748.83	5253	
749.01	4917.9	
749.19	6350.8	
749.37	5611.4	
749.55	4797	
749.73	4918.5	
749.91	6064.7	
750.09	5773.2	
750.26	4995.7	
750.44	4317.1	
750.62	6034.7	
750.8	6062	
750.98	4214	
751.16	4567.7	
751.34	6176	
751.52	5412.1	
751.7	5399.1	
751.88	4198.3	
752.06	6606.7	
752.24	6490.7	
752.42	4164.9	
752.59	4460.5	
752.77	6076.3	
752.95	7395.2	
753.13	5235.3	
753.31	4640.7	
753.49	5778.7	
753.67	6255.9	
753.85	5042.1	
754.03	4507.6	
754.21	6520.7	
754.38	6875.7	
754.56	4780	
754.74	3781.2	
754.92	5694	
755.1	6582.2	
755.28	3858.4	
755.46	3902.7	
755.64	7370.6	
755.82	7580.9	
755.99	4294.6	
756.17	4443.4	
756.35	4897.4	
756.53	6692.8	
756.71	3270.6	
756.89	4265.2	
757.07	6241.5	
757.25	5223.7	
757.42	4797.7	
757.6	5728.9	
757.78	6253.8	
757.96	5130.8	
758.14	4495.3	
758.32	3927.3	
758.5	4683	
758.67	5543.9	
758.85	4263.9	
759.03	4437.3	
759.21	5767.8	
759.39	5186.8	
759.57	3872	
759.75	5107	
759.92	6431.3	
760.1	5670.1	
760.28	5460.6	
760.46	5667.4	
760.64	5384.8	
760.82	5155.4	
760.99	5207.3	
761.17	4358.1	
761.35	6248.4	
761.53	5184.8	
761.71	4442.7	
761.89	5175.2	
762.06	6113.9	
762.24	5509.7	
762.42	4504.2	
762.6	4344.4	
762.78	5610.8	
762.96	6302.3	
763.13	4935.6	
763.31	4595	
763.49	6474.3	
763.67	5489.2	
763.85	5477.6	
764.02	6125.5	
764.2	6669.6	
764.38	5885.9	
764.56	4479.6	
764.74	5370.5	
764.91	6790.4	
765.09	5660.6	
765.27	4034.5	
765.45	3933.5	
765.63	6827.2	
765.8	6692.8	
765.98	3617.4	
766.16	4011.3	
766.34	5231.9	
766.52	5072.8	
766.69	5003.2	
766.87	3815.4	
767.05	5682.4	
767.23	6405.4	
767.41	4083	
767.58	4449.6	
767.76	6315.3	
767.94	6352.1	
768.12	4241.3	
768.29	5141.8	
768.47	5812.8	
768.65	6520.7	
768.83	3872.7	
769	5126.7	
769.18	5369.1	
769.36	6128.2	
769.54	5173.2	
769.72	3985.3	
769.89	6303	
770.07	6539.8	
770.25	4213.4	
770.43	5665.4	
770.6	7193.8	
770.78	7684	
770.96	4506.9	
771.14	4264.6	
771.31	6301.6	
771.49	5638.1	
771.67	3601	
771.85	3924.6	
772.02	4801.1	
772.2	5622.4	
772.38	4714.4	
772.55	4154.6	
772.73	5900.2	
772.91	5653.1	
773.09	4559.5	
773.26	4690.5	
773.44	5798.5	
773.62	5606	
773.8	4029	
773.97	3791.5	
774.15	5899.5	
774.33	5563.6	
774.5	4001	
774.68	4349.9	
774.86	6019.7	
775.04	5588.9	
775.21	4040	
775.39	4061.1	
775.57	5870.2	
775.74	6319.3	
775.92	3914.4	
776.1	3805.1	
776.27	5816.9	
776.45	7176.8	
776.63	4031.1	
776.81	3526.6	
776.98	5457.8	
777.16	6640.2	
777.34	4226.3	
777.51	4581.3	
777.69	5563.6	
777.87	5255.8	
778.04	4195.6	
778.22	4902.8	
778.4	5291.3	
778.57	6059.9	
778.75	3526.6	
778.93	3779.2	
779.1	5020.9	
779.28	4930.1	
779.46	3541.6	
779.64	3964.9	
779.81	6160.3	
779.99	7103	
780.17	4961.5	
780.34	5087.8	
780.52	5556.1	
780.69	5780.1	
780.87	4334.9	
781.05	3867.9	
781.22	5647.6	
781.4	5742.5	
781.58	4042	
781.75	3213.9	
781.93	5700.2	
782.11	5063.9	
782.28	5036.6	
782.46	4093.9	
782.64	4881.7	
782.81	5862.7	
782.99	4183.3	
783.17	4197	
783.34	5752.1	
783.52	4976.6	
783.69	4363.5	
783.87	5252.4	
784.05	4997	
784.22	5081.7	
784.4	5262.6	
784.58	4487.1	
784.75	6073.6	
784.93	5104.9	
785.1	4070.7	
785.28	4842.8	
785.46	5808.7	
785.63	5007.3	
785.81	4113	
785.99	3983.3	
786.16	5242.8	
786.34	5662.6	
786.51	3943	
786.69	4407.2	
786.87	4816.1	
787.04	5314.5	
787.22	3791.5	
787.39	4881.7	
787.57	5034.6	
787.75	6254.5	
787.92	4964.3	
788.1	4999.8	
788.27	5082.4	
788.45	4816.1	
788.63	4653	
788.8	3300.6	
788.98	5507	
789.15	4784.1	
789.33	3496.6	
789.5	4221.5	
789.68	6056.5	
789.86	6279.1	
790.03	4620.2	
790.21	4008.6	
790.38	6095.4	
790.56	5296.7	
790.73	3922.5	
790.91	3870.7	
791.09	5118.6	
791.26	5949.3	
791.44	4153.3	
791.61	3548.4	
791.79	5068	
791.96	5187.5	
792.14	3641.3	
792.32	3191.4	
792.49	5083.7	
792.67	5282.4	
792.84	3757.3	
793.02	3573	
793.19	5541.8	
793.37	6369.9	
793.54	3256.3	
793.72	3609.9	
793.89	6539.2	
794.07	5115.8	
794.25	4147.8	
794.42	3300.6	
794.6	6204.7	
794.77	5796.4	
794.95	4588.8	
795.12	3956.7	
795.3	5139.7	
795.47	5812.1	
795.65	4353.3	
795.82	4186	
796	4883	
796.17	7071	
796.35	4106.9	
796.52	4803.9	
796.7	5693.4	
796.87	5838.8	
797.05	5027.8	
797.22	4907.6	
797.4	5740.5	
797.57	6851.1	
797.75	4182	
797.92	3925.3	
798.1	6018.3	
798.27	5101.5	
798.45	3338.2	
798.62	3641.3	
798.8	5443.5	
798.97	5930.9	
799.15	4457.1	
799.32	4169.7	
799.5	4677.6	
799.67	5511.1	
799.85	4590.9	
800.02	3300	
800.2	5058.5	
800.37	5480.4	
800.55	4785.4	
800.72	3937.6	
800.9	5938.4	
801.07	6392.4	
801.25	5381.4	
801.42	4285	
801.6	5986.2	
801.77	5671.5	
801.95	4004.5	
802.12	3863.8	
802.29	5755.5	
802.47	5602.6	
802.64	4329.4	
802.82	3280.2	
802.99	5076.2	
803.17	6158.9	
803.34	4152.6	
803.52	3778.5	
803.69	6819.1	
803.87	4851	
804.04	4180.6	
804.21	4336.9	
804.39	6244.9	
804.56	5336.3	
804.74	3569.6	
804.91	4384.7	
805.09	5091.9	
805.26	5286.5	
805.44	3607.8	
805.61	3958	
805.78	5823.1	
805.96	5863.3	
806.13	4392.9	
806.31	4655	
806.48	4644.1	
806.66	5225.1	
806.83	4384.7	
807	4258.4	
807.18	5091.9	
807.35	5537.7	
807.53	4240	
807.7	3368.2	
807.87	6300.9	
808.05	5242.8	
808.22	4708.3	
808.4	3348.4	
808.57	5212.8	
808.74	4814.8	
808.92	3905.5	
809.09	4986.1	
809.27	5010.7	
809.44	5694	
809.61	3443.3	
809.79	3741	
809.96	6331.6	
810.14	5967.1	
810.31	3267.2	
810.48	4093.9	
810.66	5224.4	
810.83	6080.4	
811.01	3904.1	
811.18	4306.9	
811.35	5864	
811.53	4633.2	
811.7	4700.1	
811.87	4381.3	
812.05	5167	
812.22	5102.2	
812.39	3789.4	
812.57	3643.3	
812.74	5167	
812.92	6974.7	
813.09	4084.3	
813.26	4463.9	
813.44	6667.5	
813.61	5076.9	
813.78	3396.9	
813.96	4565.6	
814.13	5202.5	
814.3	4820.9	
814.48	4939.7	
814.65	4091.8	
814.82	6447.7	
815	4944.5	
815.17	4138.3	
815.34	5119.2	
815.52	5057.1	
815.69	5115.1	
815.87	4177.9	
816.04	4099.4	
816.21	5222.3	
816.38	4573.8	
816.56	4023.6	
816.73	3746.4	
816.9	6599.9	
817.08	5979.4	
817.25	3765.5	
817.42	4760.8	
817.6	4720.6	
817.77	5208.7	
817.94	4295.3	
818.12	3719.8	
818.29	4970.4	
818.46	7817.8	
818.64	3884.3	
818.81	3678.8	
818.98	4786.1	
819.16	7097.6	
819.33	4495.3	
819.5	4148.5	
819.67	5591.6	
819.85	6270.2	
820.02	4079.6	
820.19	4380.6	
820.37	5418.2	
820.54	4964.3	
820.71	4293.9	
820.88	5343.2	
821.06	5437.4	
821.23	4932.9	
821.4	4311.7	
821.58	4231.1	
821.75	5866.7	
821.92	5298.1	
822.09	3409.9	
822.27	3533.4	
822.44	5228.5	
822.61	5108.3	
822.79	3409.2	
822.96	6754.9	
823.13	5711.8	
823.3	4888.5	
823.48	4011.3	
823.65	3616.7	
823.82	5899.5	
823.99	4728.1	
824.17	5135.6	
824.34	3659.7	
824.51	6855.9	
824.68	5274.2	
824.86	3820.8	
825.03	4263.2	
825.2	5147.2	
825.37	6329.6	
825.55	3734.1	
825.72	4272.7	
825.89	6990.4	
826.06	6435.4	
826.24	4114.4	
826.41	4168.3	
826.58	6370.5	
826.75	5495.4	
826.92	3176.4	
827.1	3595.6	
827.27	8743.5	
827.44	6959	
827.61	3863.8	
827.79	4769	
827.96	4868	
828.13	5308.3	
828.3	4019.5	
828.47	3436.5	
828.65	5420.3	
828.82	5336.3	
828.99	5314.5	
829.16	4640	
829.34	5821.7	
829.51	5565.7	
829.68	4221.5	
829.85	4347.8	
830.02	6122.1	
830.2	5805.3	
830.37	3275.4	
830.54	5105.6	
830.71	6723.5	
830.88	5205.9	
831.05	3358	
831.23	3814	
831.4	6351.4	
831.57	7186.3	
831.74	3867.2	
831.91	3440.6	
832.09	5412.8	
832.26	5849.7	
832.43	4056.3	
832.6	4552.6	
832.77	5439.4	
832.94	6220.4	
833.12	3212.6	
833.29	3966.2	
833.46	5021.6	
833.63	7434.8	
833.8	4379.2	
833.97	4078.2	
834.15	5840.1	
834.32	5637.4	
834.49	4210.6	
834.66	4304.1	
834.83	6014.9	
835	4921.3	
835.17	3914.4	
835.35	3932.8	
835.52	5732.3	
835.69	5683.8	
835.86	4154.6	
836.03	3369.6	
836.2	5745.2	
836.37	5372.5	
836.55	4076.1	
836.72	3749.1	
836.89	5343.2	
837.06	5887.9	
837.23	4102.1	
837.4	4545.8	
837.57	6712.6	
837.75	7501	
837.92	3684.3	
838.09	3965.6	
838.26	5311.7	
838.43	6207.4	
838.6	4251.6	
838.77	3794.9	
838.94	7030	
839.11	6691.4	
839.29	4078.2	
839.46	3164.8	
839.63	5731.6	
839.8	5512.4	
839.97	3936.2	
840.14	3885	
840.31	5536.3	
840.48	5871.5	
840.65	3235.8	
840.82	3856.3	
841	5754.1	
841.17	5766.4	
841.34	3628.3	
841.51	3653.6	
841.68	5696.1	
841.85	5520.6	
842.02	3842.7	
842.19	3069.2	
842.36	5539.8	
842.53	5455.8	
842.7	3601.7	
842.87	4453	
843.05	7423.2	
843.22	5520	
843.39	3426.3	
843.56	3741	
843.73	5193.6	
843.9	5892	
844.07	5934.3	
844.24	4856.4	
844.41	8600.1	
844.58	5016.2	
844.75	3492.5	
844.92	3792.2	
845.09	5808.7	
845.26	5782.8	
845.43	3575.1	
845.6	3789.4	
845.77	5804.6	
845.94	5507.7	
846.12	3995.6	
846.29	4183.3	
846.46	6025.8	
846.63	5796.4	
846.8	3629	
846.97	4317.8	
847.14	6298.2	
847.31	5743.9	
847.48	4068.6	
847.65	4521.2	
847.82	6031.3	
847.99	6064.7	
848.16	4845.5	
848.33	4483.7	
848.5	5304.2	
848.67	6324.8	
848.84	3607.2	
849.01	3758.7	
849.18	5220.3	
849.35	4812.7	
849.52	4547.2	
849.69	3528.7	
849.86	5982.8	
850.03	6228.6	
850.2	3576.4	
850.37	4462.5	
850.54	6186.2	
850.71	5515.9	
850.88	4365.6	
851.05	3537.5	
851.22	5694.7	
851.39	6415.6	
851.56	3351.8	
851.73	4143.7	
851.9	5087.8	
852.07	6025.8	
852.24	4007.2	
852.41	3548.4	
852.58	5631.2	
852.75	5150	
852.92	4008.6	
853.09	3491.8	
853.26	5341.1	
853.43	6323.4	
853.6	3596.9	
853.77	3041.9	
853.94	6272.2	
854.11	5777.3	
854.28	5414.8	
854.44	3881.6	
854.61	6679.8	
854.78	6147.3	
854.95	3564.1	
855.12	4569	
855.29	4638	
855.46	6579.4	
855.63	3576.4	
855.8	4971.1	
855.97	5329.5	
856.14	6183.5	
856.31	5196.4	
856.48	3908.2	
856.65	5352	
856.82	5062.6	
856.99	3429	
857.16	3909.6	
857.33	7084.6	
857.49	5415.5	
857.66	3930.1	
857.83	4214.7	
858	5427.8	
858.17	5599.8	
858.34	3375.1	
858.51	3616	
858.68	6543.9	
858.85	6587	
859.02	4188.8	
859.19	4428.4	
859.36	5013.4	
859.52	5096.7	
859.69	3599	
859.86	4243.4	
860.03	5121.3	
860.2	6389	
860.37	3229.6	
860.54	3663.1	
860.71	6034.7	
860.88	6475	
861.05	4074.8	
861.21	4516.5	
861.38	6526.9	
861.55	4983.4	
861.72	3241.3	
861.89	4037.2	
862.06	6156.9	
862.23	6645.7	
862.4	3510.2	
862.56	3728	
862.73	5907.7	
862.9	5515.9	
863.07	4212	
863.24	3250.1	
863.41	4962.9	
863.58	5094.7	
863.75	3680.2	
863.91	4132.8	
864.08	6468.9	
864.25	5933.6	
864.42	4556.7	
864.59	5108.3	
864.76	6777.4	
864.93	5126.7	
865.09	3496.6	
865.26	3850.2	
865.43	6304.3	
865.6	6769.2	
865.77	3080.1	
865.94	3512.9	
866.1	6365.1	
866.27	6112.5	
866.44	5404.6	
866.61	3417.4	
866.78	5558.9	
866.95	5857.2	
867.11	3503.4	
867.28	3205.1	
867.45	6158.2	
867.62	5172.5	
867.79	4141	
867.96	3560.1	
868.12	5020.9	
868.29	6092.7	
868.46	3061	
868.63	4811.4	
868.8	6313.2	
868.97	5939.1	
869.13	3796.3	
869.3	3719.8	
869.47	5874.9	
869.64	6177.4	
869.81	3623.5	
869.97	3610.6	
870.14	5776	
870.31	6488	
870.48	3476.8	
870.65	4556	
870.81	5418.9	
870.98	5359.5	
871.15	4083.6	
871.32	3745.1	
871.48	5926.8	
871.65	6513.9	
871.82	3536.8	
871.99	3943	
872.16	6983.6	
872.32	6366.5	
872.49	3618.1	
872.66	3569.6	
872.83	6051.7	
872.99	5267.4	
873.16	4120.5	
873.33	3611.3	
873.5	5626.5	
873.67	5693.4	
873.83	3762.1	
874	4787.5	
874.17	5784.8	
874.34	7000.6	
874.5	4628.4	
874.67	4511.7	
874.84	6467.5	
875.01	5073.5	
875.17	5127.4	
875.34	3568.2	
875.51	5708.4	
875.68	7011.6	
875.84	4380.6	
876.01	5332.9	
876.18	6012.8	
876.34	5902.9	
876.51	3695.9	
876.68	3553.2	
876.85	5479.7	
877.01	6319.3	
877.18	5221.6	
877.35	3569.6	
877.52	5597.8	
877.68	4939.7	
877.85	3489.7	
878.02	3521.1	
878.18	5553.4	
878.35	5177.3	
878.52	2888.3	
878.69	4006.5	
878.85	5995.8	
879.02	5930.2	
879.19	5166.3	
879.35	3844.7	
879.52	5997.8	
879.69	6225.1	
879.86	3060.3	
880.02	4063.9	
880.19	5552.7	
880.36	6803.4	
880.52	4106.2	
880.69	4280.9	
880.86	6073.6	
881.02	6209.4	
881.19	4000.4	
881.36	3897.3	
881.52	5919.3	
881.69	5233.2	
881.86	3883.6	
882.02	3805.8	
882.19	6284.5	
882.36	7395.9	
882.52	3689.8	
882.69	5124	
882.86	5780.7	
883.02	5659.2	
883.19	4379.9	
883.36	4135.5	
883.52	6049	
883.69	7008.1	
883.86	3610.6	
884.02	3265.1	
884.19	6122.7	
884.36	5637.4	
884.52	4128.7	
884.69	3812	
884.86	5303.6	
885.02	6732.4	
885.19	4031.8	
885.36	4132.1	
885.52	5597.8	
885.69	5758.9	
885.86	5259.9	
886.02	4663.2	
886.19	6042.2	
886.35	5498.1	
886.52	4001	
886.69	5101.5	
886.85	5102.9	
887.02	6468.2	
887.19	6468.2	
887.35	6468.2	
887.52	6468.2	
887.68	6468.2	
887.85	6468.2	
888.02	6468.2	
888.18	6468.2	
888.35	6468.2	
888.51	6468.2	
888.68	6468.2	
888.85	6468.2	
889.01	6468.2	
889.18	6468.2	
889.35	6468.2	
889.51	6468.2	
889.68	6468.2	
889.84	6468.2	
890.01	6468.2	
890.17	6468.2	
890.34	6468.2	
890.51	6468.2	
890.67	6468.2	
890.84	6468.2	
891	6468.2	
891.17	6468.2	
891.34	6468.2	
891.5	6468.2	
891.67	6468.2	
891.83	6468.2	
892	6468.2	
892.16	6468.2	
892.33	6468.2	
892.5	6468.2	
892.66	6468.2	
892.83	6468.2	
892.99	6468.2	
893.16	6468.2	
893.32	6468.2	
893.49	6468.2	
893.65	6468.2	
893.82	6468.2	
893.99	6468.2	
894.15	6468.2	
894.32	6468.2	
894.48	6468.2	
894.65	6468.2	
894.81	6468.2	
894.98	6468.2	
895.14	6468.2	
895.31	6468.2	
895.47	6468.2	
895.64	6468.2	
895.81	6468.2	
895.97	6468.2	
896.14	6468.2	
896.3	6468.2	
896.47	6468.2	
896.63	6468.2	
896.8	6468.2	
896.96	6468.2	
897.13	6468.2	
897.29	6468.2	
897.46	6468.2	
897.62	6468.2	
897.79	6468.2	
897.95	6468.2	
898.12	6468.2	
898.28	6468.2	
898.45	6468.2	
898.61	6468.2	
898.78	6468.2	
898.94	6468.2	
899.11	6468.2	
899.27	6468.2	
899.44	6468.2	
899.6	6468.2	
899.77	6468.2	
899.93	6468.2	
900.1	6468.2	
900.26	6468.2	
900.43	6468.2	
900.59	6468.2	
900.76	6468.2	
900.92	6468.2	
901.09	6468.2	
901.25	6468.2	
901.42	6468.2	
901.58	6468.2	
901.75	6468.2	
901.91	6468.2	
902.07	6468.2	
902.24	6468.2	
902.4	6468.2	
902.57	6468.2	
902.73	6468.2	
902.9	6468.2	
903.06	6468.2	
903.23	6468.2	
903.39	6468.2	
903.56	6468.2	
903.72	6468.2	
903.88	6468.2	
904.05	6468.2	
904.21	6468.2	
904.38	6468.2	
904.54	6468.2	
904.71	6468.2	
904.87	6468.2	
905.03	6468.2	
905.2	6468.2	
905.36	6468.2	
905.53	6468.2	
905.69	6468.2	
905.86	6468.2	
906.02	6468.2	
906.18	6468.2	
906.35	6468.2	
906.51	6468.2	
906.68	6468.2	
906.84	6468.2	
907.01	6468.2	
907.17	6468.2	
907.33	6468.2	
907.5	6468.2	
907.66	6468.2	
907.83	6468.2	
907.99	6468.2	
908.15	6468.2	
908.32	6468.2	
908.48	6468.2	
908.65	6468.2	
908.81	6468.2	
908.97	6468.2	
909.14	6468.2	
909.3	6468.2	
909.47	6468.2	
909.63	6468.2	
909.79	6468.2	
909.96	6468.2	
910.12	6468.2	
910.28	6468.2	
910.45	6468.2	
910.61	6468.2	
910.78	6468.2	
910.94	6468.2	
911.1	6468.2	
911.27	6468.2	
911.43	6468.2	
911.59	6468.2	
911.76	6468.2	
911.92	6468.2	
912.08	6468.2	
912.25	6468.2	
912.41	6468.2	
912.57	6468.2	
912.74	6468.2	
912.9	6468.2	
913.07	6468.2	
913.23	6468.2	
913.39	6468.2	
913.56	6468.2	
913.72	6468.2	
913.88	6468.2	
914.05	6468.2	
914.21	6468.2	
914.37	6468.2	
914.54	6468.2	
914.7	6468.2	
914.86	6468.2	
915.03	6468.2	
915.19	6468.2	
