Wavelength	Intensities	
nm	a.u.	
179.22	1728.5	
179.44	1721	
179.65	1736	
179.86	1706	
180.08	1706.6	
180.29	4050.9	
180.51	3061.7	
180.72	4983.4	
180.94	5626.5	
181.15	2745	
181.37	2722.4	
181.58	4874.2	
181.79	5022.3	
182.01	2878.8	
182.22	3046.7	
182.44	5062.6	
182.65	4345.1	
182.87	3669.3	
183.08	3308.8	
183.29	5278.3	
183.51	4427.7	
183.72	3026.2	
183.94	4226.3	
184.15	4747.2	
184.37	4766.3	
184.58	2695.1	
184.79	3530	
185.01	4455	
185.22	5098.1	
185.44	3706.8	
185.65	3192.8	
185.86	4771.8	
186.08	4397	
186.29	2676	
186.51	2807.8	
186.72	4511.7	
186.94	5178.6	
187.15	3269.9	
187.36	3283.6	
187.58	6441.5	
187.79	4866.7	
188.01	3396.9	
188.22	5177.9	
188.43	5650.3	
188.65	5012.1	
188.86	2817.3	
189.08	3284.3	
189.29	4594.3	
189.5	4606.6	
189.72	3046.7	
189.93	3119.7	
190.15	5157.5	
190.36	5994.4	
190.57	3334.8	
190.79	3242.6	
191	5165	
191.22	5183.4	
191.43	3323.9	
191.64	2867.8	
191.86	5326.8	
192.07	5208	
192.29	2985.9	
192.5	3065.1	
192.71	5193	
192.93	4592.2	
193.14	3050.8	
193.35	3166.2	
193.57	4542.4	
193.78	5252.4	
194	2508.8	
194.21	2968.2	
194.42	4439.3	
194.64	4766.3	
194.85	3254.2	
195.07	3766.9	
195.28	4738.3	
195.49	4239.3	
195.71	3951.2	
195.92	2879.4	
196.13	4949.9	
196.35	4960.9	
196.56	4169	
196.78	3268.6	
196.99	5970.5	
197.2	5578.7	
197.42	3619.4	
197.63	3362.1	
197.84	4343.1	
198.06	4949.3	
198.27	3100.6	
198.48	3992.2	
198.7	4574.5	
198.91	4703.5	
199.13	3346.4	
199.34	3302	
199.55	5188.9	
199.77	4181.3	
199.98	2983.9	
200.19	3314.3	
200.41	4709	
200.62	4432.5	
200.83	3452.9	
201.05	3702.7	
201.26	4704.9	
201.47	4538.3	
201.69	3007.1	
201.9	2832.3	
202.11	4752	
202.33	5522	
202.54	3110.2	
202.76	3495.2	
202.97	4799.8	
203.18	4904.2	
203.4	3414	
203.61	3466.5	
203.82	4766.3	
204.04	4489.1	
204.25	3277.4	
204.46	3304.1	
204.68	4738.3	
204.89	4925.4	
205.1	3220.1	
205.32	2898.6	
205.53	4977.9	
205.74	5218.9	
205.96	2518.3	
206.17	3375.7	
206.38	5075.5	
206.6	5152	
206.81	3758.7	
207.02	3145.7	
207.24	4995	
207.45	5259.9	
207.66	3182.5	
207.88	2799.6	
208.09	4943.1	
208.3	4772.4	
208.52	2972.3	
208.73	3205.1	
208.94	4730.1	
209.15	5277.6	
209.37	3188.7	
209.58	3581.2	
209.79	5197.7	
210.01	4640	
210.22	2643.9	
210.43	2717	
210.65	4693.9	
210.86	5050.3	
211.07	3201	
211.29	2949.8	
211.5	4959.5	
211.71	4684.4	
211.93	2949.1	
212.14	2932	
212.35	4706.2	
212.56	4808.6	
212.78	3325.9	
212.99	2752.5	
213.2	5438	
213.42	4588.1	
213.63	2991.4	
213.84	3211.2	
214.06	4337.6	
214.27	4405.2	
214.48	3187.3	
214.69	3381.2	
214.91	5318.6	
215.12	5313.8	
215.33	3324.5	
215.55	3615.3	
215.76	5696.8	
215.97	5020.9	
216.18	3201	
216.4	3254.2	
216.61	4496.7	
216.82	5166.3	
217.04	2962.7	
217.25	3033	
217.46	5242.8	
217.67	5059.8	
217.89	2696.5	
218.1	2732	
218.31	4791.6	
218.53	4911.7	
218.74	3166.2	
218.95	3034.4	
219.16	4751.3	
219.38	5399.8	
219.59	3017.3	
219.8	3466.5	
220.01	5790.3	
220.23	4785.4	
220.44	3717.7	
220.65	2886.3	
220.87	4783.4	
221.08	5186.1	
221.29	2786.6	
221.5	3586	
221.72	6204.7	
221.93	4533.5	
222.14	3363.4	
222.35	3864.5	
222.57	4780.6	
222.78	5071.5	
222.99	3205.8	
223.2	3365.5	
223.42	4967.7	
223.63	5061.9	
223.84	2536.8	
224.05	2600.9	
224.27	5810.8	
224.48	5343.8	
224.69	3848.8	
224.9	3346.4	
225.12	4883.7	
225.33	4734.9	
225.54	2710.8	
225.75	3016.7	
225.97	4463.9	
226.18	4669.4	
226.39	3192.1	
226.6	3031	
226.82	4558.1	
227.03	4459.1	
227.24	3351.2	
227.45	2804.4	
227.67	5086.5	
227.88	5440.1	
228.09	3682.2	
228.3	3673.4	
228.52	4995.7	
228.73	4704.9	
228.94	3145	
229.15	2788	
229.36	4738.3	
229.58	4693.3	
229.79	3090.4	
230	3649.5	
230.21	5550	
230.43	4781.3	
230.64	3325.9	
230.85	3451.5	
231.06	5132.2	
231.28	5085.1	
231.49	2798.2	
231.7	3326.6	
231.91	5020.9	
232.12	4767	
232.34	2910.2	
232.55	3210.5	
232.76	5218.9	
232.97	4857.8	
233.18	2969.6	
233.4	3269.2	
233.61	4903.5	
233.82	4565.6	
234.03	3092.4	
234.25	3091.8	
234.46	6264.7	
234.67	4763.6	
234.88	3429.7	
235.09	2988.7	
235.31	4881	
235.52	4646.8	
235.73	3301.3	
235.94	2793.4	
236.15	4595.6	
236.37	5632.6	
236.58	2931.3	
236.79	3187.3	
237	4991.6	
237.21	4341	
237.43	3411.2	
237.64	2747.7	
237.85	7832.8	
238.06	4422.2	
238.27	3413.3	
238.48	2835.8	
238.7	5039.4	
238.91	4699.4	
239.12	3123.2	
239.33	3196.2	
239.54	4506.2	
239.76	4715.8	
239.97	3186.6	
240.18	3186	
240.39	5722	
240.6	4885.1	
240.82	3370.3	
241.03	2768.9	
241.24	4700.1	
241.45	5384.8	
241.66	2957.9	
241.87	3412.6	
242.09	5369.8	
242.3	5595.1	
242.51	3457	
242.72	3184.6	
242.93	5143.1	
243.14	4751.3	
243.36	3594.2	
243.57	3889.8	
243.78	5399.1	
243.99	5030.5	
244.2	3211.2	
244.41	2955.2	
244.63	4380.6	
244.84	4945.8	
245.05	3419.4	
245.26	3231.7	
245.47	4962.9	
245.68	5158.2	
245.9	4095.9	
246.11	3364.8	
246.32	4588.8	
246.53	4941.7	
246.74	5029.8	
246.95	2728.6	
247.16	4491.9	
247.38	4749.9	
247.59	2762.7	
247.8	3197.6	
248.01	4459.8	
248.22	4723.3	
248.43	2971.6	
248.64	3140.2	
248.86	4344.4	
249.07	4571.7	
249.28	2863.1	
249.49	3267.2	
249.7	5209.3	
249.91	5229.1	
250.12	2771.6	
250.34	2786.6	
250.55	4864.6	
250.76	4776.5	
250.97	3328.6	
251.18	3311.6	
251.39	5171.8	
251.6	4899.4	
251.81	3325.2	
252.03	3321.1	
252.24	4536.9	
252.45	5111	
252.66	2817.3	
252.87	3438.5	
253.08	4765.6	
253.29	5963.7	
253.5	2848.7	
253.72	3819.5	
253.93	4676.2	
254.14	5465.3	
254.35	3069.2	
254.56	3109.5	
254.77	4962.2	
254.98	4470	
255.19	3063.8	
255.41	3770.3	
255.62	4860.5	
255.83	5264	
256.04	3345	
256.25	3315	
256.46	5671.5	
256.67	4515.1	
256.88	3317.7	
257.09	3629	
257.31	4489.1	
257.52	4499.4	
257.73	4012	
257.94	3041.2	
258.15	4682.3	
258.36	4760.2	
258.57	3737.5	
258.78	2468.5	
258.99	5135.6	
259.2	4645.5	
259.41	3068.5	
259.63	3151.8	
259.84	5394.3	
260.05	5637.4	
260.26	3923.2	
260.47	2996.2	
260.68	5182	
260.89	4672.1	
261.1	3665.9	
261.31	2970.9	
261.52	5180.7	
261.73	5501.5	
261.95	3844	
262.16	3422.8	
262.37	5307	
262.58	5372.5	
262.79	3787.4	
263	3065.1	
263.21	4766.3	
263.42	4631.8	
263.63	3361.4	
263.84	3118.4	
264.05	5145.2	
264.26	5412.8	
264.47	3736.9	
264.69	3314.3	
264.9	5340.4	
265.11	4944.5	
265.32	2980.5	
265.53	3056.3	
265.74	4820.2	
265.95	4315.1	
266.16	3228.3	
266.37	3537.5	
266.58	4860.5	
266.79	4607.2	
267	3068.5	
267.21	2839.2	
267.42	4422.9	
267.63	4756.1	
267.84	3158.7	
268.06	2814.6	
268.27	5141.1	
268.48	5277.6	
268.69	3112.9	
268.9	3644	
269.11	5251	
269.32	4347.2	
269.53	3171.6	
269.74	3010.5	
269.95	4906.3	
270.16	4259.1	
270.37	3181.2	
270.58	3640.6	
270.79	4632.5	
271	5100.8	
271.21	3392.8	
271.42	3256.3	
271.63	4885.8	
271.84	4422.2	
272.05	2655.5	
272.26	2884.9	
272.47	4799.1	
272.68	4866	
272.89	3146.4	
273.11	3525.2	
273.32	4548.5	
273.53	5422.3	
273.74	3422.2	
273.95	3379.1	
274.16	5147.2	
274.37	4797.7	
274.58	3515.7	
274.79	2825.5	
275	4879.6	
275.21	5183.4	
275.42	4104.8	
275.63	3588.7	
275.84	4994.3	
276.05	6060.6	
276.26	3320.4	
276.47	3121.1	
276.68	4659.1	
276.89	5500.2	
277.1	3587.4	
277.31	2821.4	
277.52	4886.5	
277.73	5119.9	
277.94	2796.8	
278.15	3044.6	
278.36	4919.9	
278.57	4515.8	
278.78	3123.2	
278.99	3405.1	
279.2	4586.1	
279.41	4432.5	
279.62	4028.4	
279.83	2884.2	
280.04	5659.9	
280.25	4465.9	
280.46	3909.6	
280.67	3230.3	
280.88	4532.2	
281.09	5256.5	
281.3	3343.7	
281.51	4046.8	
281.72	4584.7	
281.93	5107.6	
282.14	3013.9	
282.35	3288.4	
282.56	5189.6	
282.77	5107	
282.98	3096.5	
283.19	3687.7	
283.4	6105.7	
283.61	4678.2	
283.82	2899.9	
284.03	3868.6	
284.24	4903.5	
284.45	5231.9	
284.66	3932.1	
284.87	3672	
285.08	5201.2	
285.29	5334.3	
285.5	2791.4	
285.71	3132.7	
285.92	5202.5	
286.12	5714.5	
286.33	3822.2	
286.54	3155.2	
286.75	5110.4	
286.96	4691.2	
287.17	2910.8	
287.38	3812.6	
287.59	4595	
287.8	4500.8	
288.01	3099.9	
288.22	3474	
288.43	5031.2	
288.64	4353.3	
288.85	3695.9	
289.06	3517	
289.27	5105.6	
289.48	5407.3	
289.69	3891.8	
289.9	3565.5	
290.11	5284.4	
290.32	4572.4	
290.53	3614	
290.74	3469.9	
290.94	5112.4	
291.15	5154.7	
291.36	3020.1	
291.57	3525.9	
291.78	4638	
291.99	4308.2	
292.2	2951.1	
292.41	3427.6	
292.62	5163.6	
292.83	5033.9	
293.04	4183.3	
293.25	3003.7	
293.46	4679.6	
293.67	5186.8	
293.88	3047.4	
294.09	2912.9	
294.29	4503.5	
294.5	4875.5	
294.71	3239.9	
294.92	3054.2	
295.13	4640	
295.34	5625.1	
295.55	2744.3	
295.76	2714.2	
295.97	5090.6	
296.18	5576.6	
296.39	2891	
296.6	3019.4	
296.81	4820.9	
297.01	5036	
297.22	3132.7	
297.43	3006.4	
297.64	4534.2	
297.85	4448.2	
298.06	2580.4	
298.27	2781.1	
298.48	4807.9	
298.69	4515.8	
298.9	3282.9	
299.11	2996.2	
299.31	4445.5	
299.52	4463.2	
299.73	3483.6	
299.94	3325.2	
300.15	4817.5	
300.36	4531.5	
300.57	3398.9	
300.78	3355.3	
300.99	4685.1	
301.2	4812	
301.4	3005.1	
301.61	3253.5	
301.82	5029.8	
302.03	5095.3	
302.24	3532.1	
302.45	2891.7	
302.66	4924	
302.87	5237.3	
303.08	3016.7	
303.29	4044.7	
303.49	4629.8	
303.7	4730.8	
303.91	2777	
304.12	3781.9	
304.33	4373.8	
304.54	4902.2	
304.75	3077.4	
304.96	2938.8	
305.16	5081	
305.37	5492.7	
305.58	2736.1	
305.79	2807.8	
306	4965.6	
306.21	4324.6	
306.42	3016	
306.63	4460.5	
306.83	4629.1	
307.04	5030.5	
307.25	3312.9	
307.46	3224.9	
307.67	4246.8	
307.88	5045.5	
308.09	3006.4	
308.29	3081.5	
308.5	4829.8	
308.71	5154.1	
308.92	3203.7	
309.13	2936.1	
309.34	4707.6	
309.55	4681.7	
309.75	3683.6	
309.96	3423.5	
310.17	5068	
310.38	4573.8	
310.59	3526.6	
310.8	2849.4	
311.01	5210	
311.21	4668	
311.42	2900.6	
311.63	2944.3	
311.84	4599.1	
312.05	4820.9	
312.26	3384.6	
312.46	3600.3	
312.67	4717.2	
312.88	4388.8	
313.09	2894.5	
313.3	2861.7	
313.51	5375.2	
313.71	5601.9	
313.92	2951.1	
314.13	3065.8	
314.34	4942.4	
314.55	4717.8	
314.76	3644.7	
314.96	3218.7	
315.17	4908.3	
315.38	4990.2	
315.59	2919.7	
315.8	2834.4	
316.01	5339.1	
316.21	5438.7	
316.42	2874	
316.63	3188	
316.84	4724.7	
317.05	5186.1	
317.26	3428.3	
317.46	3084.9	
317.67	4713.1	
317.88	5074.2	
318.09	3565.5	
318.3	2764.8	
318.5	4642.1	
318.71	4982	
318.92	4564.2	
319.13	3409.9	
319.34	5109	
319.54	5242.8	
319.75	2760.7	
319.96	2695.8	
320.17	5008	
320.38	5203.9	
320.58	2725.8	
320.79	3168.9	
321	5213.4	
321.21	5333.6	
321.42	3213.9	
321.62	2736.1	
321.83	4504.2	
322.04	4812	
322.25	3134.1	
322.46	2927.9	
322.66	4875.5	
322.87	5003.9	
323.08	3525.2	
323.29	2887.6	
323.5	5595.7	
323.7	4403.1	
323.91	3839.3	
324.12	3504.1	
324.33	4833.9	
324.53	5051.7	
324.74	3385.3	
324.95	3532.7	
325.16	4370.4	
325.37	4623.6	
325.57	2964.8	
325.78	2975	
325.99	4851	
326.2	4315.8	
326.4	4044.7	
326.61	2822.1	
326.82	4696.7	
327.03	4846.2	
327.24	4060.4	
327.44	3838.6	
327.65	5014.1	
327.86	4123.2	
328.07	3408.5	
328.27	2826.9	
328.48	5335.6	
328.69	4429.1	
328.9	4062.5	
329.1	3105.4	
329.31	4710.3	
329.52	5406.6	
329.73	2973	
329.93	3247.4	
330.14	4823	
330.35	4924.7	
330.56	4614.8	
330.76	3524.6	
330.97	4606.6	
331.18	4836.6	
331.39	3224.2	
331.59	2728.6	
331.8	5182.7	
332.01	5237.3	
332.22	3069.9	
332.42	3418.7	
332.63	4838	
332.84	4486.4	
333.05	3251.5	
333.25	2966.1	
333.46	4550.6	
333.67	4797.7	
333.88	3138.2	
334.08	3355.9	
334.29	6105	
334.5	5206.6	
334.7	2932.7	
334.91	4005.1	
335.12	4409.3	
335.33	5032.5	
335.53	3234.4	
335.74	4534.9	
335.95	4637.3	
336.16	4431.1	
336.36	3201	
336.57	3652.2	
336.78	4378.6	
336.98	5166.3	
337.19	3826.3	
337.4	3147.7	
337.61	5626.5	
337.81	4393.6	
338.02	2994.1	
338.23	3726.6	
338.43	5327.4	
338.64	4505.5	
338.85	3026.2	
339.05	3766.9	
339.26	5416.2	
339.47	4336.9	
339.68	2983.2	
339.88	4251.6	
340.09	4960.2	
340.3	5100.8	
340.5	3379.1	
340.71	2693.1	
340.92	4418.2	
341.13	5264.6	
341.33	2816.6	
341.54	3426.3	
341.75	4926	
341.95	4624.3	
342.16	3274	
342.37	3509.5	
342.57	4453.6	
342.78	4743.1	
342.99	3574.4	
343.19	2710.8	
343.4	5082.4	
343.61	4906.9	
343.81	3119.1	
344.02	2880.8	
344.23	5063.9	
344.43	5352.7	
344.64	3614.7	
344.85	3549.8	
345.06	4931.5	
345.26	5208.7	
345.47	3375.1	
345.68	3872	
345.88	4293.9	
346.09	5115.8	
346.3	3439.2	
346.5	2654.9	
346.71	4711.7	
346.92	4530.1	
347.12	2802.3	
347.33	3336.8	
347.54	5145.2	
347.74	5384.8	
347.95	3340.9	
348.16	2550.4	
348.36	4557.4	
348.57	4414.1	
348.78	3347.7	
348.98	3544.4	
349.19	4683.7	
349.39	4284.4	
349.6	2769.5	
349.81	2931.3	
350.01	4995	
350.22	4553.3	
350.43	3212.6	
350.63	3806.5	
350.84	4777.2	
351.05	4550.6	
351.25	2978.4	
351.46	2751.8	
351.67	5167	
351.87	4497.3	
352.08	3137.5	
352.29	3508.2	
352.49	5097.4	
352.7	4847.5	
352.9	2863.7	
353.11	3474.7	
353.32	5574.6	
353.52	4603.2	
353.73	2860.3	
353.94	3535.5	
354.14	4935.6	
354.35	4760.2	
354.55	2905.4	
354.76	3203	
354.97	4942.4	
355.17	4679.6	
355.38	2794.8	
355.59	3734.1	
355.79	4440.7	
356	4683	
356.2	3193.5	
356.41	2851.5	
356.62	4326.7	
356.82	4651.6	
357.03	3435.1	
357.24	3090.4	
357.44	4504.8	
357.65	4584.7	
357.85	4046.1	
358.06	3233.7	
358.27	4296	
358.47	4362.9	
358.68	2770.9	
358.88	3388	
359.09	4891.9	
359.3	5061.2	
359.5	3851.5	
359.71	3480.9	
359.91	5433.3	
360.12	4939.7	
360.33	3372.3	
360.53	3762.8	
360.74	4457.7	
360.94	4517.8	
361.15	3547.8	
361.36	2954.5	
361.56	5068.7	
361.77	4686.4	
361.97	3788.7	
362.18	3082.2	
362.38	5055.8	
362.59	4401.1	
362.8	2867.8	
363	2727.2	
363.21	4166.9	
363.41	4675.5	
363.62	3275.4	
363.83	3961.5	
364.03	4880.3	
364.24	5383.4	
364.44	4093.2	
364.65	3966.9	
364.85	4601.8	
365.06	4330.8	
365.27	2955.9	
365.47	3069.2	
365.68	5275.6	
365.88	4571.7	
366.09	3332	
366.29	3031	
366.5	4689.2	
366.71	5003.9	
366.91	4029	
367.12	3383.9	
367.32	5599.1	
367.53	4975.2	
367.73	3416.7	
367.94	4115.1	
368.14	4952.7	
368.35	5514.5	
368.56	3375.1	
368.76	3211.2	
368.97	5044.1	
369.17	6209.4	
369.38	3044	
369.58	3206.4	
369.79	4293.2	
369.99	5305.6	
370.2	4044.7	
370.4	3278.8	
370.61	4782	
370.82	5757.5	
371.02	3230.3	
371.23	2697.9	
371.43	4239.3	
371.64	5264.6	
371.84	3192.8	
372.05	4036.5	
372.25	6070.9	
372.46	4907.6	
372.66	3142.3	
372.87	3204.4	
373.07	4944.5	
373.28	6167.8	
373.48	3928	
373.69	3674.1	
373.9	4591.5	
374.1	4626.4	
374.31	3841.3	
374.51	3489.7	
374.72	5266	
374.92	4403.1	
375.13	3933.5	
375.33	3356.6	
375.54	4838	
375.74	4511.7	
375.95	3396.2	
376.15	4383.3	
376.36	4944.5	
376.56	4763.6	
376.77	3459.7	
376.97	3759.4	
377.18	5704.3	
377.38	4945.8	
377.59	3957.4	
377.79	3069.2	
378	4776.5	
378.2	5015.5	
378.41	3118.4	
378.61	3072.6	
378.82	5122	
379.02	4491.2	
379.23	3192.1	
379.43	3973.1	
379.64	5180	
379.84	4860.5	
380.05	3133.4	
380.25	3046.7	
380.46	4968.4	
380.66	4705.5	
380.87	4052.9	
381.07	4321.9	
381.28	5406.6	
381.48	4960.9	
381.69	3152.5	
381.89	3215.3	
382.1	4207.9	
382.3	5089.2	
382.51	3936.9	
382.71	4637.3	
382.91	4936.3	
383.12	5361.6	
383.32	3390.8	
383.53	3551.9	
383.73	4900.8	
383.94	4764.9	
384.14	3564.8	
384.35	2884.2	
384.55	4575.2	
384.76	4969.1	
384.96	3428.3	
385.17	3710.9	
385.37	5011.4	
385.58	4407.2	
385.78	3623.5	
385.98	2839.2	
386.19	4656.4	
386.39	4939.7	
386.6	3257	
386.8	3402.4	
387.01	4958.8	
387.21	5002.5	
387.42	3727.3	
387.62	4110.3	
387.83	4511	
388.03	4861.2	
388.23	3506.1	
388.44	4018.1	
388.64	4328.7	
388.85	4338.3	
389.05	3626.3	
389.26	4144.4	
389.46	5763.7	
389.67	5304.9	
389.87	3596.2	
390.07	3715.7	
390.28	4660.5	
390.48	4377.2	
390.69	3078.1	
390.89	3329.3	
391.1	4588.8	
391.3	5175.2	
391.5	4171.7	
391.71	4646.2	
391.91	5040.1	
392.12	5638.1	
392.32	4242.7	
392.53	3680.9	
392.73	4615.4	
392.93	4678.9	
393.14	3442.6	
393.34	4029	
393.55	5066	
393.75	4713.1	
393.95	3471.3	
394.16	3399.6	
394.36	4583.4	
394.57	5074.9	
394.77	3106.8	
394.98	3369.6	
395.18	4531.5	
395.38	4627	
395.59	4009.2	
395.79	3250.8	
396	4576.5	
396.2	4909.7	
396.4	3853.6	
396.61	3727.3	
396.81	5055.1	
397.02	4512.4	
397.22	4014	
397.42	4048.2	
397.63	5087.8	
397.83	4457.1	
398.04	3171.6	
398.24	3541.6	
398.44	4878.9	
398.65	4128	
398.85	3080.8	
399.05	3055.6	
399.26	4498	
399.46	5622.4	
399.67	3450.8	
399.87	3198.9	
400.07	4730.8	
400.28	4924	
400.48	3258.3	
400.69	4032.5	
400.89	5103.5	
401.09	5511.1	
401.3	3216.7	
401.5	3992.2	
401.7	5522.7	
401.91	5768.4	
402.11	3463.1	
402.32	3607.8	
402.52	5188.2	
402.72	5176.6	
402.93	3870.7	
403.13	2930	
403.33	5826.5	
403.54	4834.6	
403.74	3568.9	
403.94	4222.9	
404.15	4889.2	
404.35	5724.1	
404.56	3391.4	
404.76	4738.3	
404.96	5091.3	
405.17	4984.8	
405.37	4039.3	
405.57	3689.1	
405.78	5170.4	
405.98	4766.3	
406.18	3411.2	
406.39	4079.6	
406.59	5158.8	
406.79	4796.3	
407	3277.4	
407.2	3334.1	
407.4	5225.7	
407.61	5233.9	
407.81	3291.8	
408.01	4784.7	
408.22	4386.1	
408.42	5758.9	
408.62	4098.7	
408.83	3622.9	
409.03	4790.2	
409.23	4657.1	
409.44	3657.7	
409.64	3877.5	
409.84	5513.8	
410.05	5352	
410.25	3773.7	
410.45	3637.2	
410.66	5007.3	
410.86	6694.1	
411.06	3883.6	
411.27	3778.5	
411.47	6630.6	
411.67	5132.2	
411.88	4055.7	
412.08	4136.9	
412.28	5581.4	
412.49	5871.5	
412.69	3792.8	
412.89	3816.7	
413.09	5788.2	
413.3	5672.9	
413.5	3834.5	
413.7	3599	
413.91	5156.8	
414.11	5752.1	
414.31	3729.4	
414.52	3952.6	
414.72	5590.3	
414.92	5443.5	
415.12	3738.2	
415.33	4182.6	
415.53	5694	
415.73	5810.8	
415.94	4416.1	
416.14	3944.4	
416.34	5064.6	
416.55	4827.1	
416.75	4857.1	
416.95	4357.4	
417.15	5777.3	
417.36	6255.9	
417.56	4977.2	
417.76	4274.1	
417.97	5987.6	
418.17	5707	
418.37	4040.6	
418.57	3985.3	
418.78	5683.8	
418.98	5408.7	
419.18	4681.7	
419.38	4734.2	
419.59	5380	
419.79	5104.9	
419.99	3971.7	
420.2	4207.9	
420.4	5807.4	
420.6	5917.9	
420.8	3893.9	
421.01	3731.4	
421.21	5634	
421.41	5687.9	
421.61	4199.7	
421.82	3941	
422.02	5276.3	
422.22	5973.2	
422.42	4485.1	
422.63	4327.4	
422.83	5328.1	
423.03	6247.7	
423.23	4368.3	
423.44	3581.9	
423.64	5485.8	
423.84	5169.8	
424.04	3953.9	
424.25	3652.2	
424.45	6169.2	
424.65	6122.1	
424.85	3475.4	
425.06	3960.1	
425.26	6197.8	
425.46	5311.1	
425.66	4306.9	
425.87	4121.9	
426.07	5883.1	
426.27	5777.3	
426.47	4164.9	
426.67	3764.2	
426.88	6181.5	
427.08	5780.1	
427.28	4384.7	
427.48	3654.3	
427.69	5074.2	
427.89	5427.8	
428.09	4277.5	
428.29	3719.1	
428.5	5877.7	
428.7	5685.8	
428.9	3657.7	
429.1	4029	
429.3	5612.8	
429.51	5807.4	
429.71	3921.2	
429.91	4539	
430.11	5801.9	
430.31	5974.6	
430.52	4085	
430.72	4324.6	
430.92	6184.2	
431.12	5848.3	
431.32	3871.3	
431.53	4222.2	
431.73	5027.8	
431.93	6295.5	
432.13	3826.3	
432.33	3694.5	
432.54	5436.7	
432.74	5634	
432.94	3690.4	
433.14	4465.9	
433.34	5906.3	
433.55	5446.9	
433.75	4410.6	
433.95	5693.4	
434.15	5641.5	
434.35	5378.6	
434.56	3829.7	
434.76	3459.7	
434.96	5561.6	
435.16	5757.5	
435.36	3766.2	
435.56	4574.5	
435.77	5366.4	
435.97	5499.5	
436.17	5061.9	
436.37	4444.1	
436.57	5266.7	
436.78	5281.7	
436.98	5765.7	
437.18	4984.1	
437.38	5769.1	
437.58	5496.1	
437.78	5083.7	
437.99	4061.8	
438.19	5847	
438.39	6548	
438.59	4083.6	
438.79	3702	
438.99	6391	
439.2	5521.3	
439.4	3725.9	
439.6	3657	
439.8	5612.8	
440	6386.2	
440.2	4440.7	
440.4	4497.3	
440.61	5984.2	
440.81	6326.9	
441.01	3851.5	
441.21	4462.5	
441.41	6257.2	
441.61	5997.1	
441.81	4711	
442.02	5528.2	
442.22	6668.2	
442.42	6133	
442.62	3919.1	
442.82	4063.9	
443.02	6305.7	
443.22	5666	
443.43	4277.5	
443.63	3941.7	
443.83	5543.2	
444.03	5494	
444.23	4868	
444.43	4580.6	
444.63	5778	
444.83	6682.5	
445.04	4101.4	
445.24	4934.9	
445.44	6123.4	
445.64	6105	
445.84	4594.3	
446.04	4644.1	
446.24	5674.9	
446.44	6415.6	
446.65	4057	
446.85	4321.9	
447.05	5958.9	
447.25	6370.5	
447.45	4445.5	
447.65	3905.5	
447.85	5932.3	
448.05	5530.2	
448.25	4691.9	
448.46	4538.3	
448.66	5868.8	
448.86	5600.5	
449.06	3897.3	
449.26	4702.8	
449.46	6124.8	
449.66	5455.1	
449.86	4302.8	
450.06	4335.5	
450.26	5615.5	
450.47	5971.2	
450.67	4612	
450.87	4811.4	
451.07	6176	
451.27	5898.8	
451.47	4001	
451.67	4467.3	
451.87	5738.4	
452.07	6577.4	
452.27	4283.7	
452.47	4213.4	
452.67	6012.8	
452.88	6271.6	
453.08	3820.1	
453.28	5298.8	
453.48	6877.8	
453.68	5933	
453.88	4154	
454.08	4311	
454.28	6190.3	
454.48	5863.3	
454.68	4736.3	
454.88	5091.3	
455.08	6293.4	
455.28	6018.3	
455.48	4037.9	
455.68	4579.9	
455.89	6623.8	
456.09	6326.2	
456.29	4330.1	
456.49	4429.8	
456.69	6507.8	
456.89	5937.1	
457.09	4712.4	
457.29	5009.3	
457.49	6189.6	
457.69	6182.1	
457.89	4640	
458.09	4169.7	
458.29	6108.4	
458.49	6570.6	
458.69	4912.4	
458.89	4492.6	
459.09	6735.1	
459.29	6810.9	
459.49	4610	
459.69	5185.5	
459.9	6417.7	
460.1	6087.2	
460.3	4534.2	
460.5	4388.8	
460.7	6462	
460.9	6119.3	
461.1	4138.9	
461.3	5122.7	
461.5	6917.4	
461.7	6647	
461.9	4485.7	
462.1	4758.8	
462.3	6290.7	
462.5	6623.8	
462.7	4480.3	
462.9	4495.3	
463.1	7416.4	
463.3	7213.6	
463.5	4732.9	
463.7	5390.9	
463.9	6463.4	
464.1	6645	
464.3	4844.8	
464.5	4969.7	
464.7	6881.9	
464.9	6617	
465.1	5945.9	
465.3	5221	
465.5	7152.2	
465.7	7131	
465.9	5516.5	
466.1	5308.3	
466.3	7000	
466.5	6873.7	
466.7	5945.3	
466.9	5213.4	
467.1	6925.5	
467.3	7552.9	
467.5	5891.3	
467.7	5089.9	
467.9	7679.2	
468.1	8298.4	
468.3	5617.6	
468.5	5951.4	
468.7	6783.6	
468.9	6789	
469.1	5358.2	
469.3	5920	
469.5	8277.9	
469.7	6559.6	
469.9	5768.4	
470.1	5154.1	
470.3	6970.6	
470.5	6916.7	
470.7	6155.5	
470.9	5291.3	
471.1	6745.3	
471.3	7055.3	
471.5	5250.3	
471.69	6597.2	
471.89	6760.3	
472.09	6327.5	
472.29	5678.3	
472.49	5982.1	
472.69	6461.3	
472.89	7012.9	
473.09	5039.4	
473.29	5231.9	
473.49	6619	
473.69	6690	
473.89	5802.6	
474.09	5324.7	
474.29	7672.4	
474.49	7428.7	
474.69	5920.7	
474.89	5449	
475.09	6770.6	
475.29	6762.4	
475.49	5044.1	
475.69	5234.6	
475.88	7944.8	
476.08	7094.2	
476.28	4977.2	
476.48	5264	
476.68	7320.8	
476.88	7192.5	
477.08	5202.5	
477.28	5422.3	
477.48	6876.4	
477.68	7228.6	
477.88	4993.6	
478.08	5296.7	
478.28	7495.6	
478.48	6959	
478.67	5370.5	
478.87	4884.4	
479.07	7410.2	
479.27	7040.2	
479.47	5513.8	
479.67	5502.9	
479.87	7311.9	
480.07	7730.4	
480.27	4975.2	
480.47	6162.3	
480.67	7027.3	
480.87	7519.5	
481.06	5243.5	
481.26	5920	
481.46	7056.6	
481.66	6907.1	
481.86	5606.7	
482.06	6350.1	
482.26	6838.9	
482.46	7570	
482.66	5479	
482.86	5228.5	
483.05	7197.9	
483.25	6624.5	
483.45	7365.2	
483.65	5579.3	
483.85	6728.9	
484.05	6954.2	
484.25	5833.3	
484.45	6167.8	
484.65	7598	
484.84	7607.5	
485.04	5535.7	
485.24	5494	
485.44	7964.6	
485.64	6608.1	
485.84	4994.3	
486.04	6063.4	
486.24	6905.1	
486.44	7102.4	
486.63	5014.8	
486.83	5668.1	
487.03	6913.3	
487.23	7074.4	
487.43	5102.2	
487.63	6787.7	
487.83	7094.8	
488.02	7724.3	
488.22	5844.9	
488.42	6294.1	
488.62	7720.8	
488.82	6896.2	
489.02	5604.6	
489.22	5553.4	
489.41	7587.7	
489.61	7407.5	
489.81	5372.5	
490.01	5432.6	
490.21	7593.9	
490.41	8114.1	
490.61	5377.3	
490.8	5478.3	
491	7320.1	
491.2	6818.4	
491.4	5961.6	
491.6	5347.9	
491.8	7341.3	
491.99	7323.5	
492.19	5292.6	
492.39	5516.5	
492.59	7602.7	
492.79	7616.4	
492.99	6075.6	
493.18	5358.2	
493.38	7707.2	
493.58	8297	
493.78	5918.6	
493.98	5651.7	
494.18	7558.4	
494.37	7153.6	
494.57	6186.9	
494.77	5999.2	
494.97	7763.2	
495.17	7965.9	
495.37	5814.9	
495.56	6113.2	
495.76	8123.6	
495.96	7817.8	
496.16	6735.1	
496.36	5988.3	
496.55	8036.2	
496.75	7677.2	
496.95	6343.9	
497.15	6123.4	
497.35	8064.9	
497.54	7957.7	
497.74	6033.3	
497.94	7453.2	
498.14	8622.6	
498.34	8356.4	
498.53	5789.6	
498.73	6449.1	
498.93	7475.1	
499.13	8048.5	
499.33	6242.2	
499.52	6655.2	
499.72	8054.7	
499.92	8190.5	
500.12	6044.2	
500.32	6298.2	
500.51	8198.7	
500.71	8052.6	
500.91	6834.1	
501.11	6576.7	
501.31	8217.8	
501.5	8572.8	
501.7	7074.4	
501.9	6308.4	
502.1	8084	
502.29	8341.4	
502.49	6690	
502.69	7038.9	
502.89	8251.9	
503.09	8276.5	
503.28	5997.8	
503.48	6063.4	
503.68	7756.3	
503.88	7710.6	
504.07	6769.2	
504.27	6378.1	
504.47	8005.5	
504.67	8135.9	
504.86	6778.8	
505.06	6442.9	
505.26	7812.3	
505.46	9013.1	
505.65	6402.6	
505.85	6609.5	
506.05	7720.8	
506.25	8142	
506.44	5920	
506.64	6595.1	
506.84	7604.8	
507.04	8238.3	
507.23	6087.2	
507.43	6483.2	
507.63	9079.3	
507.83	7777.5	
508.02	6542.6	
508.22	6242.9	
508.42	9303.2	
508.62	7621.9	
508.81	6417	
509.01	6873.7	
509.21	7585	
509.4	7821.9	
509.6	6584.2	
509.8	6085.2	
510	7793.2	
510.19	8784.4	
510.39	5997.1	
510.59	6169.2	
510.79	7623.9	
510.98	8665	
511.18	6266.1	
511.38	6242.9	
511.57	8419.9	
511.77	8103.1	
511.97	6851.8	
512.17	6124.1	
512.36	8363.9	
512.56	8138.6	
512.76	6133	
512.95	5943.9	
513.15	8415.8	
513.35	7208.8	
513.55	6744	
513.74	6090.7	
513.94	8229.4	
514.14	7802.8	
514.33	6806.8	
514.53	6612.2	
514.73	7880.6	
514.92	7955	
515.12	6138.4	
515.32	6047.7	
515.51	8056	
515.71	8374.1	
515.91	7309.2	
516.11	6140.5	
516.3	9170.1	
516.5	7664.2	
516.7	6607.4	
516.89	7053.2	
517.09	7824.6	
517.29	7858.7	
517.48	6836.8	
517.68	6389	
517.88	7673.7	
518.07	8101.8	
518.27	6807.4	
518.47	6125.5	
518.66	8584.4	
518.86	7546.1	
519.06	5888.6	
519.25	6276.3	
519.45	7772.7	
519.65	8935.3	
519.84	6784.2	
520.04	7349.5	
520.24	9208.4	
520.43	8214.4	
520.63	6621.8	
520.83	6379.4	
521.02	7790.5	
521.22	8241	
521.42	6840.2	
521.61	7216.4	
521.81	7945.4	
522.01	8032.8	
522.2	6590.4	
522.4	6461.3	
522.6	8436.3	
522.79	7432.1	
522.99	6552.1	
523.18	6025.1	
523.38	8202.8	
523.58	8184.4	
523.77	7481.9	
523.97	6064	
524.17	9534.7	
524.36	9038.4	
524.56	7073	
524.76	6873.7	
524.95	8252.6	
525.15	7989.1	
525.34	6711.2	
525.54	6802.7	
525.74	8586.5	
525.93	7959.8	
526.13	7753.6	
526.33	6780.8	
526.52	8983.8	
526.72	8464.9	
526.91	7727.7	
527.11	7148.1	
527.31	8911.4	
527.5	9178.3	
527.7	7179.5	
527.89	6401.3	
528.09	8041.7	
528.29	8546.2	
528.48	7385	
528.68	7147.4	
528.87	8825.4	
529.07	8873.8	
529.27	7145.4	
529.46	6864.8	
529.66	8697.7	
529.85	8998.8	
530.05	6780.1	
530.25	7348.8	
530.44	9776.3	
530.64	8605.6	
530.83	6978.1	
531.03	7250.5	
531.23	8921.6	
531.42	8780.3	
531.62	7650.5	
531.81	7165.8	
532.01	9011.7	
532.21	9276.6	
532.4	6875.7	
532.6	7239.6	
532.79	9736	
532.99	9105.3	
533.18	7372.7	
533.38	8069.7	
533.58	8757.1	
533.77	9336.7	
533.97	7357.7	
534.16	7917.4	
534.36	9621.4	
534.55	8831.5	
534.75	8094.3	
534.95	7344	
535.14	9576.3	
535.34	8914.1	
535.53	7306.5	
535.73	8720.3	
535.92	9965.4	
536.12	9026.8	
536.31	7369.3	
536.51	8292.9	
536.71	9313.5	
536.9	8883.4	
537.1	7399.3	
537.29	7580.9	
537.49	9546.3	
537.68	8860.2	
537.88	7776.1	
538.07	7185.6	
538.27	9056.8	
538.46	9850	
538.66	7042.3	
538.86	7488.7	
539.05	9136.7	
539.25	9422	
539.44	7762.5	
539.64	7370.6	
539.83	8981.7	
540.03	9764.7	
540.22	7352.9	
540.42	7329.7	
540.61	9258.2	
540.81	9325.8	
541	7757	
541.2	8275.8	
541.39	8747.6	
541.59	9108.7	
541.78	7983.7	
541.98	7283.3	
542.18	8642.4	
542.37	8503.8	
542.57	7537.2	
542.76	7941.3	
542.96	8731.9	
543.15	9127.8	
543.35	7676.5	
543.54	7033.4	
543.74	9296.4	
543.93	8964	
544.13	7512.6	
544.32	8309.3	
544.52	9350.3	
544.71	8710	
544.91	6895.5	
545.1	7735.9	
545.3	8621.9	
545.49	9113.5	
545.69	6804	
545.88	7341.3	
546.08	10003	
546.27	9572.2	
546.47	7578.8	
546.66	7165.2	
546.86	9239.1	
547.05	9830.2	
547.24	7297.6	
547.44	7215.7	
547.63	8660.2	
547.83	9347.6	
548.02	7449.1	
548.22	7610.3	
548.41	8458.8	
548.61	9372.9	
548.8	7058.7	
549	7190.4	
549.19	8920.3	
549.39	9278.7	
549.58	6959.7	
549.78	7328.3	
549.97	9282.1	
550.17	8743.5	
550.36	7948.2	
550.55	8710	
550.75	8840.4	
550.94	9491.7	
551.14	7204.8	
551.33	7277.1	
551.53	8329.8	
551.72	9003.6	
551.92	7301	
552.11	7198.6	
552.31	9129.2	
552.5	9067	
552.69	8382.3	
552.89	6965.8	
553.08	9146.9	
553.28	8845.9	
553.47	7218.4	
553.67	8046.5	
553.86	9585.2	
554.06	8290.2	
554.25	6535.1	
554.44	7074.4	
554.64	10049	
554.83	9750.4	
555.03	6969.9	
555.22	7221.1	
555.42	9248.6	
555.61	8912.1	
555.8	7120.8	
556	7316	
556.19	8293.6	
556.39	9080	
556.58	7133.8	
556.78	7148.1	
556.97	8951.7	
557.16	8639	
557.36	8054.7	
557.55	6838.2	
557.75	8173.4	
557.94	9532.6	
558.13	6954.2	
558.33	6771.3	
558.52	9352.4	
558.72	8424	
558.91	6830.7	
559.1	7073	
559.3	8300.4	
559.49	8066.9	
559.69	6617	
559.88	7357.7	
560.07	8826.7	
560.27	9099.8	
560.46	7432.1	
560.66	7578.2	
560.85	8689.5	
561.04	8058.8	
561.24	6793.1	
561.43	6970.6	
561.63	8334.6	
561.82	8551	
562.01	7828	
562.21	7162.4	
562.4	8838.4	
562.59	9562.6	
562.79	7086	
562.98	6845	
563.18	8736	
563.37	9805	
563.56	7458	
563.76	6877.1	
563.95	8319.5	
564.14	8290.9	
564.34	7111.2	
564.53	6883.2	
564.73	8841.1	
564.92	8964.6	
565.11	7256.6	
565.31	6819.7	
565.5	9321	
565.69	8397.4	
565.89	7005.4	
566.08	7198.6	
566.27	9127.1	
566.47	9437.7	
566.66	7731.1	
566.85	6710.5	
567.05	9009.7	
567.24	8548.2	
567.44	6984.3	
567.63	8002.8	
567.82	9093.7	
568.02	8804.2	
568.21	6960.4	
568.4	7229.3	
568.6	8851.3	
568.79	8841.8	
568.98	6951.5	
569.18	6933.7	
569.37	8828.1	
569.56	10216	
569.76	7382.9	
569.95	8036.9	
570.14	9187.9	
570.34	8976.9	
570.53	7006.8	
570.72	6935.8	
570.91	9519	
571.11	8766.7	
571.3	7387.7	
571.49	7991.9	
571.69	8951	
571.88	8497.7	
572.07	7781.6	
572.27	7707.9	
572.46	8444.5	
572.65	9246.6	
572.85	7236.2	
573.04	7490.1	
573.23	9506.7	
573.43	8966	
573.62	7075	
573.81	7486.7	
574	9022	
574.2	8839	
574.39	7380.2	
574.58	7425.9	
574.78	9702.6	
574.97	9166.7	
575.16	7806.9	
575.36	7917.4	
575.55	9438.4	
575.74	9545.6	
575.93	7110.5	
576.13	7987.8	
576.32	9013.1	
576.51	9501.9	
576.71	7537.2	
576.9	8484.1	
577.09	9766.8	
577.28	9321.7	
577.48	7819.8	
577.67	7081.9	
577.86	9188.6	
578.05	9318.3	
578.25	7639.6	
578.44	7698.3	
578.63	9073.9	
578.83	10058	
579.02	7180.9	
579.21	8276.5	
579.4	9280	
579.6	9067	
579.79	7750.9	
579.98	9280.7	
580.17	9565.4	
580.37	9715.6	
580.56	7421.2	
580.75	7897	
580.94	9893.7	
581.14	9914.2	
581.33	8224	
581.52	7456.7	
581.71	9514.2	
581.91	10104	
582.1	7300.3	
582.29	7655.3	
582.48	9257.5	
582.68	9172.9	
582.87	8051.2	
583.06	7804.8	
583.25	9643.2	
583.45	9107.3	
583.64	8227.4	
583.83	8830.2	
584.02	9149.6	
584.21	9424.1	
584.41	8225.3	
584.6	7834.2	
584.79	9259.5	
584.98	9721.7	
585.18	7411.6	
585.37	7323.5	
585.56	8983.1	
585.75	9544.2	
585.94	7574.1	
586.14	7996.6	
586.33	10031	
586.52	9317.6	
586.71	7990.5	
586.91	7722.2	
587.1	8819.2	
587.29	9632.3	
587.48	7649.2	
587.67	7464.8	
587.87	9503.3	
588.06	9468.4	
588.25	8483.4	
588.44	7907.9	
588.63	9216.5	
588.83	9667.8	
589.02	7648.5	
589.21	7527	
589.4	9092.3	
589.59	9028.1	
589.78	6922.8	
589.98	7221.1	
590.17	8629.5	
590.36	8983.1	
590.55	6625.2	
590.74	7209.5	
590.94	9868.5	
591.13	8873.2	
591.32	7006.8	
591.51	6679.8	
591.7	9073.9	
591.89	8751.7	
592.09	6651.8	
592.28	7077.1	
592.47	8086.1	
592.66	9689.6	
592.85	6755.6	
593.05	6931.7	
593.24	8775.5	
593.43	9353.1	
593.62	6980.8	
593.81	7338.6	
594	8743.5	
594.19	8928.5	
594.39	6886.6	
594.58	6832.7	
594.77	8985.8	
594.96	9290.3	
595.15	6806.1	
595.34	7296.2	
595.54	8978.3	
595.73	8335.9	
595.92	6382.2	
596.11	7238.9	
596.3	9239.1	
596.49	8377.6	
596.68	7014.3	
596.88	7402.7	
597.07	9002.9	
597.26	8157.7	
597.45	6640.9	
597.64	7648.5	
597.83	8461.5	
598.02	8915.5	
598.22	6764.4	
598.41	7186.3	
598.6	8766	
598.79	8351.6	
598.98	6821.1	
599.17	7443.7	
599.36	8748.9	
599.55	9503.9	
599.74	8192.6	
599.94	8062.2	
600.13	9080.7	
600.32	8206.9	
600.51	6559.6	
600.7	6644.3	
600.89	9452.7	
601.08	9572.2	
601.27	6488.6	
601.47	7208.8	
601.66	8983.8	
601.85	9402.2	
602.04	6958.3	
602.23	7130.3	
602.42	8238.3	
602.61	8666.3	
602.8	6836.8	
602.99	6758.3	
603.18	8427.4	
603.37	8680	
603.57	7080.5	
603.76	7570.7	
603.95	9258.9	
604.14	8840.4	
604.33	6795.8	
604.52	6971.3	
604.71	8731.9	
604.9	8290.2	
605.09	7451.9	
605.28	7292.1	
605.47	9195.4	
605.66	8755.1	
605.86	7203.4	
606.05	6789.7	
606.24	9120.3	
606.43	7950.9	
606.62	7017.7	
606.81	7587	
607	9005.6	
607.19	8408.3	
607.38	6541.2	
607.57	6744	
607.76	8275.8	
607.95	7874.4	
608.14	7127.6	
608.33	7501.7	
608.52	8308.6	
608.72	8949.6	
608.91	6436.8	
609.1	6417.7	
609.29	8361.9	
609.48	7946.8	
609.67	7182.2	
609.86	6526.9	
610.05	8076.5	
610.24	8308.6	
610.43	6365.8	
610.62	6126.8	
610.81	9142.8	
611	8946.9	
611.19	6543.9	
611.38	7000	
611.57	8507.9	
611.76	9485.5	
611.95	6309.1	
612.14	6276.3	
612.33	8335.9	
612.52	7985	
612.71	6731.7	
612.9	6236.7	
613.09	7717.4	
613.28	9416.6	
613.47	6619.7	
613.66	7233.4	
613.85	8420.6	
614.04	8043.7	
614.24	6593.1	
614.43	5967.1	
614.62	8617.2	
614.81	8497.7	
615	6978.1	
615.19	6976.1	
615.38	8032.8	
615.57	8368.7	
615.76	6902.3	
615.95	7542.7	
616.14	8571.4	
616.33	8321.6	
616.52	7128.3	
616.71	7303.7	
616.9	8569.4	
617.09	8437.6	
617.28	6679.1	
617.47	7546.8	
617.66	7887.4	
617.85	7902.4	
618.04	7238.2	
618.22	6836.8	
618.41	8168.7	
618.6	8822.6	
618.79	6898.9	
618.98	6697.5	
619.17	9114.8	
619.36	7718.8	
619.55	6810.2	
619.74	6829.3	
619.93	8570.7	
620.12	8132.5	
620.31	7286	
620.5	7360.4	
620.69	8985.8	
620.88	9374.2	
621.07	7830.7	
621.26	7243	
621.45	8847.2	
621.64	8814.5	
621.83	7281.2	
622.02	6698.9	
622.21	8893.6	
622.4	8694.3	
622.59	7724.3	
622.78	7615.7	
622.97	8402.8	
623.16	9098.4	
623.35	7337.9	
623.54	6628.6	
623.72	8520.2	
623.91	8649.9	
624.1	7447.8	
624.29	6539.8	
624.48	9469.8	
624.67	8951	
624.86	7378.8	
625.05	6753.5	
625.24	9607	
625.43	8402.1	
625.62	8779.6	
625.81	6834.1	
626	9055.4	
626.19	8505.2	
626.38	7418.4	
626.56	7040.2	
626.75	8443.8	
626.94	9062.9	
627.13	7559.1	
627.32	6564.4	
627.51	9007.6	
627.7	9881.4	
627.89	6675	
628.08	7519.5	
628.27	8294.3	
628.46	8514.1	
628.65	6849.8	
628.83	6657.3	
629.02	8875.2	
629.21	8378.9	
629.4	7137.9	
629.59	7400	
629.78	8359.8	
629.97	9075.2	
630.16	7421.2	
630.35	6966.5	
630.54	9439.8	
630.72	9187.9	
630.91	7032.7	
631.1	7348.1	
631.29	8804.9	
631.48	8863.6	
631.67	7491.5	
631.86	7011.6	
632.05	8443.1	
632.24	8538.7	
632.42	6851.8	
632.61	7219.1	
632.8	8581.7	
632.99	8254	
633.18	7294.2	
633.37	7518.1	
633.56	8807.6	
633.75	8598.7	
633.93	7225.9	
634.12	7008.1	
634.31	9339.4	
634.5	9011.7	
634.69	6969.9	
634.88	7377.5	
635.07	8548.2	
635.25	8998.8	
635.44	7592.5	
635.63	7812.3	
635.82	8488.1	
636.01	7922.9	
636.2	7559.7	
636.39	7200	
636.57	9372.2	
636.76	8935.3	
636.95	6916.7	
637.14	7855.3	
637.33	8781.7	
637.52	9441.8	
637.7	6769.9	
637.89	7429.3	
638.08	8561.9	
638.27	9560.6	
638.46	7466.9	
638.65	7815	
638.83	9549.7	
639.02	8294.3	
639.21	7406.1	
639.4	7672.4	
639.59	8727.1	
639.78	8520.9	
639.96	6782.2	
640.15	6834.1	
640.34	8600.8	
640.53	8636.3	
640.72	6623.1	
640.91	6790.4	
641.09	8129.1	
641.28	9157.8	
641.47	6890	
641.66	7396.6	
641.85	8616.5	
642.03	8710.7	
642.22	7264.1	
642.41	6931	
642.6	8191.9	
642.79	7722.9	
642.97	6829.3	
643.16	7273.7	
643.35	8185.7	
643.54	7993.2	
643.73	6651.8	
643.91	7232.1	
644.1	7933.8	
644.29	8426.7	
644.48	6733.7	
644.67	6786.3	
644.85	8080.6	
645.04	8368.7	
645.23	6406.7	
645.42	6690.7	
645.6	7952.3	
645.79	8814.5	
645.98	6509.1	
646.17	5869.5	
646.36	7671.7	
646.54	8107.9	
646.73	7122.2	
646.92	6264.1	
647.11	7764.5	
647.29	8557.8	
647.48	6303	
647.67	6053.8	
647.86	8735.3	
648.05	8734.6	
648.23	6507.8	
648.42	7533.1	
648.61	8292.9	
648.8	8052.6	
648.98	6158.2	
649.17	6507.1	
649.36	7732.4	
649.55	7418.4	
649.73	6245.6	
649.92	6836.1	
650.11	7584.3	
650.3	7877.2	
650.48	6301.6	
650.67	6113.9	
650.86	8090.8	
651.05	7290.1	
651.23	6373.3	
651.42	6200.6	
651.61	7699	
651.79	7646.4	
651.98	6462	
652.17	6150.1	
652.36	8075.8	
652.54	7316	
652.73	6189.6	
652.92	5994.4	
653.11	8071	
653.29	8074.5	
653.48	5679.7	
653.67	6386.9	
653.85	7824.6	
654.04	8640.4	
654.23	6533.7	
654.42	6197.2	
654.6	7508.5	
654.79	7948.8	
654.98	5787.6	
655.16	6111.8	
655.35	7073.7	
655.54	6949.4	
655.73	5792.3	
655.91	5627.1	
656.1	7744.7	
656.29	6873	
656.47	5301.5	
656.66	6565.1	
656.85	7158.3	
657.03	7111.9	
657.22	5735	
657.41	5753.4	
657.59	7255.3	
657.78	7100.3	
657.97	5489.2	
658.16	6079.7	
658.34	7768.6	
658.53	8081.3	
658.72	6731.7	
658.9	7079.8	
659.09	7464.8	
659.28	7422.5	
659.46	5969.1	
659.65	5852.4	
659.84	7178.1	
660.02	7636.9	
660.21	5834	
660.4	5746.6	
660.58	8003.5	
660.77	7460.8	
660.96	6249.7	
661.14	5487.2	
661.33	8279.3	
661.52	8127	
661.7	5480.4	
661.89	8010.3	
662.08	7235.5	
662.26	6809.5	
662.45	5750	
662.64	5751.4	
662.82	7757	
663.01	7009.5	
663.2	5748	
663.38	6344.6	
663.57	7591.8	
663.75	7436.2	
663.94	5973.9	
664.13	6868.2	
664.31	7131.7	
664.5	7610.3	
664.69	6124.8	
664.87	6538.5	
665.06	6917.4	
665.25	7509.2	
665.43	6709.1	
665.62	6825.9	
665.8	7641	
665.99	7218.4	
666.18	5928.9	
666.36	5986.9	
666.55	7712.7	
666.74	7533.1	
666.92	5719.3	
667.11	6926.9	
667.29	7255.3	
667.48	7629.4	
667.67	6593.8	
667.85	5885.9	
668.04	7124.2	
668.22	7162.4	
668.41	6012.2	
668.6	6190.3	
668.78	7027.9	
668.97	7135.1	
669.15	6188.3	
669.34	5406.6	
669.53	7075.7	
669.71	7316.7	
669.9	5537.7	
670.08	6068.8	
670.27	6995.9	
670.46	7463.5	
670.64	6303.6	
670.83	6434	
671.01	6899.6	
671.2	7351.5	
671.38	5704.3	
671.57	5622.4	
671.76	7886	
671.94	8245.8	
672.13	5519.3	
672.31	6363.7	
672.5	7610.9	
672.69	6988.4	
672.87	5665.4	
673.06	5954.1	
673.24	7425.9	
673.43	7134.4	
673.61	6176.7	
673.8	5820.3	
673.98	7494.2	
674.17	7652.6	
674.36	6300.2	
674.54	6149.4	
674.73	7264.1	
674.91	7633.5	
675.1	5910.4	
675.28	5642.8	
675.47	7189.1	
675.65	7615.7	
675.84	5947.3	
676.03	6076.3	
676.21	7069.6	
676.4	6609.5	
676.58	6409.5	
676.77	6361	
676.95	8123.6	
677.14	6948.1	
677.32	5553.4	
677.51	5500.2	
677.69	7604.1	
677.88	6817.7	
678.06	5578	
678.25	5660.6	
678.44	7169.3	
678.62	6926.9	
678.81	5496.1	
678.99	6040.8	
679.18	7791.8	
679.36	7488.7	
679.55	5771.2	
679.73	6238.8	
679.92	7448.5	
680.1	6993.8	
680.29	6739.2	
680.47	5788.9	
680.66	6926.9	
680.84	7614.3	
681.03	5306.3	
681.21	6125.5	
681.4	7066.2	
681.58	6891.4	
681.77	5613.5	
681.95	5578	
682.14	7649.2	
682.32	7799.3	
682.51	6303.6	
682.69	5464	
682.88	6992.4	
683.06	7421.2	
683.25	5945.3	
683.43	6377.4	
683.62	7210.9	
683.8	7474.4	
683.99	6474.3	
684.17	5915.9	
684.36	8110.6	
684.54	7105.1	
684.73	5405.3	
684.91	5477.6	
685.1	7323.5	
685.28	6839.5	
685.46	5898.1	
685.65	5853.8	
685.83	7346.1	
686.02	6823.1	
686.2	5355.4	
686.39	5441.5	
686.57	6560.3	
686.76	7734.5	
686.94	5377.3	
687.13	5541.8	
687.31	7130.3	
687.5	6964.5	
687.68	5182	
687.86	5913.2	
688.05	8168.7	
688.23	6472.3	
688.42	5993.7	
688.6	5489.2	
688.79	6871.6	
688.97	6827.9	
689.16	5750.7	
689.34	5012.7	
689.52	7384.3	
689.71	7578.2	
689.89	6003.3	
690.08	5461.9	
690.26	7105.1	
690.45	6961	
690.63	6098.2	
690.81	5665.4	
691	6952.2	
691.18	6816.3	
691.37	5735.7	
691.55	7303.1	
691.74	6739.9	
691.92	8322.9	
692.1	5736.4	
692.29	5329.5	
692.47	6906.4	
692.66	6406	
692.84	5373.2	
693.02	5848.3	
693.21	6466.8	
693.39	6898.2	
693.58	5854.5	
693.76	5414.8	
693.94	7817.1	
694.13	7607.5	
694.31	5494	
694.5	6256.5	
694.68	6772.6	
694.86	7077.1	
695.05	5721.3	
695.23	5794.4	
695.42	7376.1	
695.6	8933.9	
695.78	6178	
695.97	5567.7	
696.15	7502.4	
696.34	6867.5	
696.52	5448.3	
696.7	6036.7	
696.89	7182.2	
697.07	6724.2	
697.25	5956.2	
697.44	7086	
697.62	7165.8	
697.81	7321.5	
697.99	5749.3	
698.17	6068.8	
698.36	6660.7	
698.54	7161.7	
698.72	5941.2	
698.91	5244.2	
699.09	6845.7	
699.28	6696.9	
699.46	5634	
699.64	5517.9	
699.83	6651.8	
700.01	7464.2	
700.19	6201.9	
700.38	4895.3	
700.56	7533.8	
700.74	6647	
700.93	5198.4	
701.11	5873.6	
701.29	7018.4	
701.48	7870.3	
701.66	5375.2	
701.84	5411.4	
702.03	6788.3	
702.21	7308.5	
702.39	5127.4	
702.58	5495.4	
702.76	7150.8	
702.94	7181.5	
703.13	5119.2	
703.31	6886	
703.49	6578.1	
703.68	7329	
703.86	5311.7	
704.04	6010.1	
704.23	6938.5	
704.41	7222.5	
704.59	5380.7	
704.78	6248.4	
704.96	8164.6	
705.14	7260	
705.33	5214.1	
705.51	5720	
705.69	6753.5	
705.87	7486.7	
706.06	5950	
706.24	5099.4	
706.42	7015	
706.61	7150.1	
706.79	5883.8	
706.97	5091.9	
707.16	6615.6	
707.34	6967.2	
707.52	5882.4	
707.7	5327.4	
707.89	6638.1	
708.07	6482.5	
708.25	5891.3	
708.44	5984.2	
708.62	6503.7	
708.8	7436.9	
708.98	6049.7	
709.17	5382.7	
709.35	6923.5	
709.53	6877.8	
709.72	5111	
709.9	5398.4	
710.08	7052.5	
710.26	7103.7	
710.45	6206.7	
710.63	5327.4	
710.81	6761.7	
710.99	6770.6	
711.18	5752.7	
711.36	5401.9	
711.54	6607.4	
711.72	7176.1	
711.91	5440.1	
712.09	5100.1	
712.27	6787	
712.45	7200.7	
712.64	5558.9	
712.82	4839.4	
713	6394.4	
713.18	6455.9	
713.37	4920.6	
713.55	5806.7	
713.73	7057.3	
713.91	6036	
714.1	5073.5	
714.28	4767.7	
714.46	6720.1	
714.64	6130.3	
714.83	4315.8	
715.01	4942.4	
715.19	6236.1	
715.37	5608.7	
715.55	4583.4	
715.74	4786.8	
715.92	6712.6	
716.1	5283.1	
716.28	5619.6	
716.47	4921.3	
716.65	5877.7	
716.83	5844.9	
717.01	4768.4	
717.19	4747.2	
717.38	7393.2	
717.56	5552.7	
717.74	4864.6	
717.92	4305.5	
718.1	6470.2	
718.29	5853.8	
718.47	3973.1	
718.65	4442.7	
718.83	6461.3	
719.01	6337.8	
719.2	3928	
719.38	4758.1	
719.56	6139.8	
719.74	7258.7	
719.92	4506.9	
720.11	5272.8	
720.29	6204.7	
720.47	5610.1	
720.65	4111	
720.83	4770.4	
721.02	5791.7	
721.2	5631.2	
721.38	4748.6	
721.56	4199	
721.74	5183.4	
721.92	5322	
722.11	4983.4	
722.29	4854.4	
722.47	6339.8	
722.65	5582.8	
722.83	4222.9	
723.01	4883.7	
723.2	5672.9	
723.38	5909.1	
723.56	3774.4	
723.74	4632.5	
723.92	5289.9	
724.1	6161.7	
724.29	4099.4	
724.47	4998.4	
724.65	5443.5	
724.83	5268.1	
725.01	4052.2	
725.19	4663.9	
725.37	5270.8	
725.56	5272.2	
725.74	3947.8	
725.92	4153.3	
726.1	5306.3	
726.28	5521.3	
726.46	4377.9	
726.64	4192.9	
726.83	5515.2	
727.01	5664	
727.19	3831.1	
727.37	4459.8	
727.55	5604.6	
727.73	5935.7	
727.91	3827.7	
728.09	3710.9	
728.28	5906.3	
728.46	6117.3	
728.64	4548.5	
728.82	4419.5	
729	6692.1	
729.18	6141.9	
729.36	3876.8	
729.54	5591	
729.72	6850.5	
729.91	5623	
730.09	5366.4	
730.27	4352.6	
730.45	5635.3	
730.63	5908.4	
730.81	4782.7	
730.99	4181.3	
731.17	6403.3	
731.35	5299.5	
731.53	4406.5	
731.71	4191.5	
731.9	6138.4	
732.08	6221.7	
732.26	4425.7	
732.44	4131.4	
732.62	6293.4	
732.8	5915.2	
732.98	4653.7	
733.16	3971.7	
733.34	5961.6	
733.52	4917.9	
733.7	4289.1	
733.88	4524.6	
734.07	5776.6	
734.25	5629.2	
734.43	3940.3	
734.61	5021.6	
734.79	6710.5	
734.97	5462.6	
735.15	4057.7	
735.33	4242.7	
735.51	5855.1	
735.69	5542.5	
735.87	5072.8	
736.05	4414.1	
736.23	5662.6	
736.41	5342.5	
736.59	4308.9	
736.77	4365.6	
736.95	5959.6	
737.13	5510.4	
737.32	3975.1	
737.5	4106.2	
737.68	6380.1	
737.86	5460.6	
738.04	3855	
738.22	5240.8	
738.4	5289.9	
738.58	5554.1	
738.76	4261.8	
738.94	3496.6	
739.12	5393.7	
739.3	5283.8	
739.48	4736.3	
739.66	4555.4	
739.84	5569.1	
740.02	5537.7	
740.2	3592.1	
740.38	3775.1	
740.56	5764.3	
740.74	4937.7	
740.92	4336.2	
741.1	4224.3	
741.28	5423	
741.46	5212.8	
741.64	4025.6	
741.82	4416.8	
742	5419.6	
742.18	5319.3	
742.36	4063.9	
742.54	3881.6	
742.72	5864.7	
742.9	4829.8	
743.08	4449.6	
743.26	3504.1	
743.44	5919.3	
743.62	5846.3	
743.8	4504.8	
743.98	3838.6	
744.16	5602.6	
744.34	5358.9	
744.52	4364.9	
744.7	4418.8	
744.88	5720	
745.06	5423	
745.24	4397.7	
745.42	4517.8	
745.6	5798.5	
745.78	5642.2	
745.96	3585.3	
746.14	3825.6	
746.32	6316.6	
746.5	5722	
746.68	4202.4	
746.86	3800.3	
747.03	5999.9	
747.21	4804.5	
747.39	4218.1	
747.57	3822.2	
747.75	5443.5	
747.93	5730.2	
748.11	3747.8	
748.29	3744.4	
748.47	6618.4	
748.65	5255.1	
748.83	4323.9	
749.01	4108.9	
749.19	5616.9	
749.37	4973.2	
749.55	4064.5	
749.73	4088.4	
749.91	5397.1	
750.09	5204.6	
750.26	4102.1	
750.44	3732.1	
750.62	5354.1	
750.8	5347.2	
750.98	3543	
751.16	3831.7	
751.34	5485.1	
751.52	4925.4	
751.7	4418.8	
751.88	3545	
752.06	5818.3	
752.24	5540.4	
752.42	3528	
752.59	3805.1	
752.77	5350.7	
752.95	6307.7	
753.13	4354	
753.31	3870.7	
753.49	5069.4	
753.67	5391.6	
753.85	4150.6	
754.03	3767.6	
754.21	5663.3	
754.38	5855.8	
754.56	3952.6	
754.74	3244.7	
754.92	5076.2	
755.1	5571.2	
755.28	3261	
755.46	3286.3	
755.64	6208.1	
755.82	6217.6	
755.99	3493.8	
756.17	3619.4	
756.35	4436.6	
756.53	5530.9	
756.71	2808.4	
756.89	3403	
757.07	5307	
757.25	4558.8	
757.42	3866.6	
757.6	4449.6	
757.78	5336.3	
757.96	4534.9	
758.14	3660.4	
758.32	3250.8	
758.5	4233.8	
758.67	4874.8	
758.85	3411.2	
759.03	3600.3	
759.21	5066.7	
759.39	4605.9	
759.57	3177.8	
759.75	4027	
759.92	5518.6	
760.1	4992.9	
760.28	4339.6	
760.46	4492.6	
760.64	4802.5	
760.82	4635.2	
760.99	4177.2	
761.17	3519.8	
761.35	5369.1	
761.53	4573.8	
761.71	3674.1	
761.89	4142.4	
762.06	5268.1	
762.24	4888.5	
762.42	3735.5	
762.6	3515.7	
762.78	4833.9	
762.96	5358.2	
763.13	3963.5	
763.31	3725.9	
763.49	5410.7	
763.67	4822.3	
763.85	4341	
764.02	4735.6	
764.2	5726.8	
764.38	4975.2	
764.56	3638.6	
764.74	4208.6	
764.91	5737	
765.09	4900.8	
765.27	3355.3	
765.45	3252.2	
765.63	5812.1	
765.8	5645.6	
765.98	3063.1	
766.16	3261.7	
766.34	4616.1	
766.52	4404.5	
766.69	4009.2	
766.87	3138.2	
767.05	4944.5	
767.23	5519.3	
767.41	3401	
767.58	3601.7	
767.76	5360.9	
767.94	5421.7	
768.12	3497.9	
768.29	3954.6	
768.47	4948.6	
768.65	5494	
768.83	3180.5	
769	4025.6	
769.18	4638	
769.36	5134.3	
769.54	4071.4	
769.72	3187.3	
769.89	5400.5	
770.07	5449	
770.25	3495.9	
770.43	4432.5	
770.6	5961.6	
770.78	6265.4	
770.96	3615.3	
771.14	4074.1	
771.31	5280.3	
771.49	4839.4	
771.67	3003	
771.85	3160	
772.02	4291.2	
772.2	4827.7	
772.38	3811.3	
772.55	3338.2	
772.73	5096	
772.91	4849.6	
773.09	3650.2	
773.26	3725.9	
773.44	5051.7	
773.62	4769.7	
773.8	3274	
773.97	3087	
774.15	5055.1	
774.33	4821.6	
774.5	3213.3	
774.68	3519.1	
774.86	5231.2	
775.04	4784.1	
775.21	3316.3	
775.39	3287.7	
775.57	5005.9	
775.74	5223	
775.92	3177.1	
776.1	3033.7	
776.27	5014.1	
776.45	6015.6	
776.63	3255.6	
776.81	2949.1	
776.98	4732.2	
777.16	5538.4	
777.34	3362.8	
777.51	3598.3	
777.69	4743.1	
777.87	4530.1	
778.04	3467.2	
778.22	3818.8	
778.4	4603.2	
778.57	5093.3	
778.75	2897.9	
778.93	3089.7	
779.1	4500.8	
779.28	4336.2	
779.46	2915.6	
779.64	3235.8	
779.81	5231.9	
779.99	5809.4	
780.17	3760.8	
780.34	3948.5	
780.52	4792.9	
780.69	4900.1	
780.87	3448.8	
781.05	3160	
781.22	4898.1	
781.4	4885.8	
781.58	3291.8	
781.75	2654.2	
781.93	4909.7	
782.11	4384.7	
782.28	3959.4	
782.46	3317.7	
782.64	4276.2	
782.81	5048.2	
782.99	3395.5	
783.17	3330.7	
783.34	4882.4	
783.52	4369	
783.69	3460.4	
783.87	4095.3	
784.05	4450.9	
784.22	4442.7	
784.4	4069.3	
784.58	3603.1	
784.75	5238.7	
784.93	4552	
785.1	3277.4	
785.28	3743.7	
785.46	4959.5	
785.63	4448.2	
785.81	3266.5	
785.99	3138.2	
786.16	4631.8	
786.34	4816.1	
786.51	3237.8	
786.69	3542.3	
786.87	4182.6	
787.04	4627.7	
787.22	3102	
787.39	3827.7	
787.57	4465.9	
787.75	5283.1	
787.92	4014	
788.1	3910.9	
788.27	4422.2	
788.45	4235.2	
788.63	3692.5	
788.8	2769.5	
788.98	4823.6	
789.15	4158.1	
789.33	2880.8	
789.5	3300	
789.68	5122.7	
789.86	5248.3	
790.03	3613.3	
790.21	3159.3	
790.38	5182.7	
790.56	4599.1	
790.73	3067.2	
790.91	3091.8	
791.09	4457.7	
791.26	5003.2	
791.44	3271.3	
791.61	2875.3	
791.79	4483.7	
791.96	4429.8	
792.14	2957.3	
792.32	2671.2	
792.49	4437.3	
792.67	4537.6	
792.84	3024.8	
793.02	2872.6	
793.19	4807.9	
793.37	5319.3	
793.54	2658.9	
793.72	2884.9	
793.89	5312.4	
794.07	4407.9	
794.25	3304.1	
794.42	2714.9	
794.6	5220.3	
794.77	4945.2	
794.95	3608.5	
795.12	3134.8	
795.3	4473.4	
795.47	4881	
795.65	3463.1	
795.82	3362.8	
796	4299.4	
796.17	5662.6	
796.35	3246	
796.52	3867.2	
796.7	4867.3	
796.87	4936.3	
797.05	3258.3	
797.22	3872	
797.4	4995	
797.57	5596.4	
797.75	3374.4	
797.92	3154.6	
798.1	5156.8	
798.27	4341	
798.45	2719.7	
798.62	2940.2	
798.8	4679.6	
798.97	5028.4	
799.15	3543	
799.32	3391.4	
799.5	4095.9	
799.67	4674.1	
799.85	3598.3	
800.02	2719	
800.2	4394.3	
800.37	4635.9	
800.55	3747.1	
800.72	3151.8	
800.9	5007.3	
801.07	5320.6	
801.25	4115.1	
801.42	3502	
801.6	5059.8	
801.77	4712.4	
801.95	3239.2	
802.12	3103.4	
802.29	4818.9	
802.47	4739.7	
802.64	3443.3	
802.82	2686.9	
802.99	4429.1	
803.17	5180	
803.34	3294.5	
803.52	3076	
803.69	5614.2	
803.87	4222.2	
804.04	3337.5	
804.21	3366.2	
804.39	5330.2	
804.56	4504.8	
804.74	2924.5	
804.91	3415.3	
805.09	4427.7	
805.26	4472.1	
805.44	2980.5	
805.61	3213.3	
805.78	4894	
805.96	4904.9	
806.13	3443.3	
806.31	3670.6	
806.48	4058.4	
806.66	4493.9	
806.83	3426.9	
807	3371	
807.18	4422.2	
807.35	4704.9	
807.53	3297.2	
807.7	2780.5	
807.87	5331.5	
808.05	4461.8	
808.22	3640.6	
808.4	2770.9	
808.57	4441.4	
808.74	4195.6	
808.92	3114.3	
809.09	3837.2	
809.27	4431.1	
809.44	4849.6	
809.61	2788.7	
809.79	3026.9	
809.96	5386.2	
810.14	4967	
810.31	2727.2	
810.48	3276.8	
810.66	4515.8	
810.83	5077.6	
811.01	3133.4	
811.18	3424.2	
811.35	5104.9	
811.53	4022.2	
811.7	3694.5	
811.87	3453.6	
812.05	4562.2	
812.22	4390.2	
812.39	3028.3	
812.57	2951.8	
812.74	4512.4	
812.92	5711.1	
813.09	3275.4	
813.26	3461.1	
813.44	5513.1	
813.61	4373.8	
813.78	2781.8	
813.96	3616.7	
814.13	4475.5	
814.3	4240	
814.48	3831.7	
814.65	3268.6	
814.82	5367	
815	4177.9	
815.17	3338.9	
815.34	3942.3	
815.52	4414.7	
815.69	4394.3	
815.87	3319.1	
816.04	3188	
816.21	4485.1	
816.38	4019.5	
816.56	3244	
816.73	3055.6	
816.9	5517.9	
817.08	5038.7	
817.25	3018	
817.42	3696.6	
817.6	4144.4	
817.77	4390.8	
817.94	3382.6	
818.12	3016.7	
818.29	4320.5	
818.46	6267.5	
818.64	3183.2	
818.81	2930	
818.98	4233.2	
819.16	5854.5	
819.33	3539.6	
819.5	3312.2	
819.67	4711	
819.85	5273.5	
820.02	3271.3	
820.19	3442	
820.37	4616.1	
820.54	4381.3	
820.71	3354.6	
820.88	4102.1	
821.06	4646.8	
821.23	4271.4	
821.4	3411.2	
821.58	3406.5	
821.75	4990.9	
821.92	4610.7	
822.09	2792.7	
822.27	2828.9	
822.44	4478.2	
822.61	4392.9	
822.79	2788	
822.96	5085.1	
823.13	4792.9	
823.3	4241.3	
823.48	3104.7	
823.65	2915.6	
823.82	5017.5	
823.99	4136.2	
824.17	3928	
824.34	2934.7	
824.51	5691.3	
824.68	4550.6	
824.86	3067.9	
825.03	3334.1	
825.2	4465.9	
825.37	5259.9	
825.55	3057.6	
825.72	3274	
825.89	5675.6	
826.06	5317.2	
826.24	3192.1	
826.41	3238.5	
826.58	5352	
826.75	4755.4	
826.92	2686.3	
827.1	2921.1	
827.27	6958.3	
827.44	5621	
827.61	3110.9	
827.79	3690.4	
827.96	4298.7	
828.13	4437.9	
828.3	3246.7	
828.47	2755.2	
828.65	4752	
828.82	4662.5	
828.99	4033.8	
829.16	3592.1	
829.34	5039.4	
829.51	4853.7	
829.68	3364.1	
829.85	3396.9	
830.02	5307.7	
830.2	5033.2	
830.37	2640.5	
830.54	3926.6	
830.71	5614.8	
830.88	4517.8	
831.05	2621.4	
831.23	3028.9	
831.4	5435.3	
831.57	5888.6	
831.74	3119.7	
831.91	2768.2	
832.09	4790.9	
832.26	4969.1	
832.43	3146.4	
832.6	3482.2	
832.77	4730.1	
832.94	5318.6	
833.12	2598.2	
833.29	3110.9	
833.46	4769	
833.63	6039.5	
833.8	3465.2	
833.97	3167.5	
834.15	5033.2	
834.32	4843.4	
834.49	3305.4	
834.66	3375.1	
834.83	5114.5	
835	4313	
835.17	3067.9	
835.35	3078.1	
835.52	4983.4	
835.69	4788.2	
835.86	3221.5	
836.03	2680.1	
836.2	4990.2	
836.37	4621.6	
836.55	3157.3	
836.72	2970.9	
836.89	4663.2	
837.06	5058.5	
837.23	3260.4	
837.4	3436.5	
837.57	5630.5	
837.75	6044.9	
837.92	2899.2	
838.09	3095.8	
838.26	4653.7	
838.43	5202.5	
838.6	3323.2	
838.77	3011.2	
838.94	5756.2	
839.11	5627.8	
839.29	3208.5	
839.46	2585.2	
839.63	5025	
839.8	4745.1	
839.97	3110.2	
840.14	3075.4	
840.31	4848.2	
840.48	5028.4	
840.65	2600.2	
840.82	3022.8	
841	4947.2	
841.17	4890.5	
841.34	2795.5	
841.51	2938.2	
841.68	4928.1	
841.85	4715.1	
842.02	3011.9	
842.19	2495.8	
842.36	4805.9	
842.53	4833.2	
842.7	2904.7	
842.87	3403	
843.05	6040.8	
843.22	4724	
843.39	2753.8	
843.56	2989.4	
843.73	4614.1	
843.9	5085.8	
844.07	4439.3	
844.24	3762.1	
844.41	6790.4	
844.58	4373.1	
844.75	2802.3	
844.92	2999.6	
845.09	4975.2	
845.26	4947.9	
845.43	2919.7	
845.6	2993.4	
845.77	4979.3	
845.94	4778.6	
846.12	3214.6	
846.29	3305.4	
846.46	5170.4	
846.63	4902.2	
846.8	2865.8	
846.97	3391.4	
847.14	5355.4	
847.31	4912.4	
847.48	3164.1	
847.65	3493.2	
847.82	5143.1	
847.99	5098.1	
848.16	3775.1	
848.33	3447.4	
848.5	4571.1	
848.67	5298.8	
848.84	2856.9	
849.01	2994.8	
849.18	4547.2	
849.35	4311	
849.52	3500	
849.69	2822.1	
849.86	5171.1	
850.03	5190.2	
850.2	2861	
850.37	3394.2	
850.54	5222.3	
850.71	4739.7	
850.88	3373	
851.05	2872.6	
851.22	4818.9	
851.39	5344.5	
851.56	2717	
851.73	3229.6	
851.9	4410.6	
852.07	5132.9	
852.24	3142.9	
852.41	2845.3	
852.58	4851.6	
852.75	4505.5	
852.92	3162.1	
853.09	2801.6	
853.26	4616.8	
853.43	5307	
853.6	2861	
853.77	2475.3	
853.94	5417.6	
854.11	4422.9	
854.28	4065.9	
854.44	3018	
854.61	5670.8	
854.78	5177.9	
854.95	2831.7	
855.12	3459.7	
855.29	4098.7	
855.46	5468.8	
855.63	2876.7	
855.8	3855.6	
855.97	4609.3	
856.14	5226.4	
856.31	3898.6	
856.48	3126.6	
856.65	4616.1	
856.82	4402.5	
856.99	2744.3	
857.16	3059	
857.33	5872.9	
857.49	4743.1	
857.66	3055.6	
857.83	3263.1	
858	4705.5	
858.17	4839.4	
858.34	2663.7	
858.51	2869.9	
858.68	5475.6	
858.85	5442.1	
859.02	3241.3	
859.19	3404.4	
859.36	4455	
859.52	4455	
859.69	2893.1	
859.86	3323.2	
860.03	4455.7	
860.2	5410.7	
860.37	2652.8	
860.54	2881.5	
860.71	5113.1	
860.88	5428.5	
861.05	3147	
861.21	3493.8	
861.38	5401.2	
861.55	4273.4	
861.72	2605	
861.89	3137.5	
862.06	5205.3	
862.23	5515.9	
862.4	2836.4	
862.56	2912.2	
862.73	5079	
862.9	4769.7	
863.07	3279.5	
863.24	2646.7	
863.41	4346.5	
863.58	4432.5	
863.75	2914.3	
863.91	3278.8	
864.08	5263.3	
864.25	5027.1	
864.42	3485	
864.59	3926	
864.76	5643.5	
864.93	4402.5	
865.09	2764.1	
865.26	3068.5	
865.43	5344.5	
865.6	5629.9	
865.77	2495.1	
865.94	2792.7	
866.1	5303.6	
866.27	5085.8	
866.44	4109.6	
866.61	2724.5	
866.78	4787.5	
866.95	5043.5	
867.11	2751.1	
867.28	2581.8	
867.45	5233.2	
867.62	4394.9	
867.79	3189.4	
867.96	2813.9	
868.12	4394.3	
868.29	5119.2	
868.46	2809.1	
868.63	3705.5	
868.8	5228.5	
868.97	5098.1	
869.13	2949.1	
869.3	2981.2	
869.47	4990.9	
869.64	5171.8	
869.81	2846	
869.97	2834.4	
870.14	4887.1	
870.31	5429.2	
870.48	2784.6	
870.65	3524.6	
870.81	4671.4	
870.98	4754	
871.15	3167.5	
871.32	2962	
871.48	4985.4	
871.65	5477.6	
871.82	2827.6	
871.99	3131.3	
872.16	5782.8	
872.32	5319.9	
872.49	2892.4	
872.66	2898.6	
872.83	5165.7	
872.99	4588.8	
873.16	3240.6	
873.33	2850.8	
873.5	4805.9	
873.67	4869.4	
873.83	3013.9	
874	3674.1	
874.17	4946.5	
874.34	5680.4	
874.5	3603.1	
874.67	3476.1	
874.84	5429.8	
875.01	4308.9	
875.17	3917.8	
875.34	2835.8	
875.51	4887.1	
875.68	5720	
875.84	3439.9	
876.01	4050.2	
876.18	5072.8	
876.34	5051.7	
876.51	2828.2	
876.68	2798.2	
876.85	4693.3	
877.01	5326.1	
877.18	4002.4	
877.35	2798.2	
877.52	4872.1	
877.68	4415.4	
877.85	2790	
878.02	2775.7	
878.18	4764.9	
878.35	4569.7	
878.52	2292.4	
878.69	3151.8	
878.85	5207.3	
879.02	5039.4	
879.19	3965.6	
879.35	3067.2	
879.52	5068	
879.69	5177.9	
879.86	2503.3	
880.02	3190.1	
880.19	4769	
880.36	5655.1	
880.52	3219.4	
880.69	3300.6	
880.86	5120.6	
881.02	5127.4	
881.19	3127.2	
881.36	3082.9	
881.52	5033.2	
881.69	4524.6	
881.86	3084.9	
882.02	2993.4	
882.19	5236	
882.36	6010.8	
882.52	2942.2	
882.69	3961.5	
882.86	4889.9	
883.02	4907.6	
883.19	3435.8	
883.36	3220.1	
883.52	5180.7	
883.69	5739.1	
883.86	2934.7	
884.02	2613.2	
884.19	5144.5	
884.36	4823	
884.52	3161.4	
884.69	2990	
884.86	4622.3	
885.02	5582.1	
885.19	3151.8	
885.36	3234.4	
885.52	4762.9	
885.69	4968.4	
885.86	4014	
886.02	3597.6	
886.19	5104.9	
886.35	4629.8	
886.52	3146.4	
886.69	3873.4	
886.85	4436.6	
887.02	5341.1	
887.19	5341.1	
887.35	5341.1	
887.52	5341.1	
887.68	5341.1	
887.85	5341.1	
888.02	5341.1	
888.18	5341.1	
888.35	5341.1	
888.51	5341.1	
888.68	5341.1	
888.85	5341.1	
889.01	5341.1	
889.18	5341.1	
889.35	5341.1	
889.51	5341.1	
889.68	5341.1	
889.84	5341.1	
890.01	5341.1	
890.17	5341.1	
890.34	5341.1	
890.51	5341.1	
890.67	5341.1	
890.84	5341.1	
891	5341.1	
891.17	5341.1	
891.34	5341.1	
891.5	5341.1	
891.67	5341.1	
891.83	5341.1	
892	5341.1	
892.16	5341.1	
892.33	5341.1	
892.5	5341.1	
892.66	5341.1	
892.83	5341.1	
892.99	5341.1	
893.16	5341.1	
893.32	5341.1	
893.49	5341.1	
893.65	5341.1	
893.82	5341.1	
893.99	5341.1	
894.15	5341.1	
894.32	5341.1	
894.48	5341.1	
894.65	5341.1	
894.81	5341.1	
894.98	5341.1	
895.14	5341.1	
895.31	5341.1	
895.47	5341.1	
895.64	5341.1	
895.81	5341.1	
895.97	5341.1	
896.14	5341.1	
896.3	5341.1	
896.47	5341.1	
896.63	5341.1	
896.8	5341.1	
896.96	5341.1	
897.13	5341.1	
897.29	5341.1	
897.46	5341.1	
897.62	5341.1	
897.79	5341.1	
897.95	5341.1	
898.12	5341.1	
898.28	5341.1	
898.45	5341.1	
898.61	5341.1	
898.78	5341.1	
898.94	5341.1	
899.11	5341.1	
899.27	5341.1	
899.44	5341.1	
899.6	5341.1	
899.77	5341.1	
899.93	5341.1	
900.1	5341.1	
900.26	5341.1	
900.43	5341.1	
900.59	5341.1	
900.76	5341.1	
900.92	5341.1	
901.09	5341.1	
901.25	5341.1	
901.42	5341.1	
901.58	5341.1	
901.75	5341.1	
901.91	5341.1	
902.07	5341.1	
902.24	5341.1	
902.4	5341.1	
902.57	5341.1	
902.73	5341.1	
902.9	5341.1	
903.06	5341.1	
903.23	5341.1	
903.39	5341.1	
903.56	5341.1	
903.72	5341.1	
903.88	5341.1	
904.05	5341.1	
904.21	5341.1	
904.38	5341.1	
904.54	5341.1	
904.71	5341.1	
904.87	5341.1	
905.03	5341.1	
905.2	5341.1	
905.36	5341.1	
905.53	5341.1	
905.69	5341.1	
905.86	5341.1	
906.02	5341.1	
906.18	5341.1	
906.35	5341.1	
906.51	5341.1	
906.68	5341.1	
906.84	5341.1	
907.01	5341.1	
907.17	5341.1	
907.33	5341.1	
907.5	5341.1	
907.66	5341.1	
907.83	5341.1	
907.99	5341.1	
908.15	5341.1	
908.32	5341.1	
908.48	5341.1	
908.65	5341.1	
908.81	5341.1	
908.97	5341.1	
909.14	5341.1	
909.3	5341.1	
909.47	5341.1	
909.63	5341.1	
909.79	5341.1	
909.96	5341.1	
910.12	5341.1	
910.28	5341.1	
910.45	5341.1	
910.61	5341.1	
910.78	5341.1	
910.94	5341.1	
911.1	5341.1	
911.27	5341.1	
911.43	5341.1	
911.59	5341.1	
911.76	5341.1	
911.92	5341.1	
912.08	5341.1	
912.25	5341.1	
912.41	5341.1	
912.57	5341.1	
912.74	5341.1	
912.9	5341.1	
913.07	5341.1	
913.23	5341.1	
913.39	5341.1	
913.56	5341.1	
913.72	5341.1	
913.88	5341.1	
914.05	5341.1	
914.21	5341.1	
914.37	5341.1	
914.54	5341.1	
914.7	5341.1	
914.86	5341.1	
915.03	5341.1	
915.19	5341.1	
