Wavelength	Intensities	
nm	a.u.	
179.22	1600.7	
179.44	1597.1	
179.65	1604.2	
179.86	1589.9	
180.08	1530.5	
180.29	3476.1	
180.51	2752.5	
180.72	4673.5	
180.94	5102.9	
181.15	2508.8	
181.37	2484.9	
181.58	4469.4	
181.79	4681.7	
182.01	2569.5	
182.22	2722.4	
182.44	4728.8	
182.65	4108.2	
182.87	3267.2	
183.08	2924.5	
183.29	4835.3	
183.51	4159.4	
183.72	2652.8	
183.94	3674.1	
184.15	4409.3	
184.37	4348.5	
184.58	2404.3	
184.79	3091.1	
185.01	4241.3	
185.22	4758.8	
185.44	3224.2	
185.65	2839.8	
185.86	4465.3	
186.08	4112.3	
186.29	2405.7	
186.51	2542.2	
186.72	4266.6	
186.94	4782.7	
187.15	2925.9	
187.36	2920.4	
187.58	5780.1	
187.79	4526.7	
188.01	2942.9	
188.22	4367	
188.43	5168.4	
188.65	4687.1	
188.86	2583.9	
189.08	2974.3	
189.29	4250.2	
189.5	4313.7	
189.72	2714.9	
189.93	2754.5	
190.15	4733.5	
190.36	5353.4	
190.57	2983.2	
190.79	2859	
191	4754	
191.22	4764.3	
191.43	3013.9	
191.64	2610.5	
191.86	4914.4	
192.07	4775.9	
192.29	2637.8	
192.5	2686.9	
192.71	4791.6	
192.93	4337.6	
193.14	2686.3	
193.35	2816	
193.57	4287.8	
193.78	4820.9	
194	2296.5	
194.21	2680.8	
194.42	4124.6	
194.64	4425	
194.85	2879.4	
195.07	3318.4	
195.28	4445.5	
195.49	4022.2	
195.71	3399.6	
195.92	2605	
196.13	4606.6	
196.35	4609.3	
196.56	3549.1	
196.78	2955.2	
196.99	5444.2	
197.2	5023.7	
197.42	3234.4	
197.63	2957.3	
197.84	4067.9	
198.06	4583.4	
198.27	2749.7	
198.48	3460.4	
198.7	4263.2	
198.91	4482.3	
199.13	2912.9	
199.34	2927.2	
199.55	4788.8	
199.77	3917.1	
199.98	2686.3	
200.19	2983.2	
200.41	4455.7	
200.62	4172.4	
200.83	2998.9	
201.05	3228.3	
201.26	4437.9	
201.47	4242	
201.69	2666.5	
201.9	2599.6	
202.11	4499.4	
202.33	5072.8	
202.54	2764.8	
202.76	3062.4	
202.97	4438.6	
203.18	4556	
203.4	3037.8	
203.61	3052.8	
203.82	4479.6	
204.04	4164.9	
204.25	2977.7	
204.46	2914.3	
204.68	4480.3	
204.89	4545.1	
205.1	2830.3	
205.32	2607.7	
205.53	4662.5	
205.74	4782.7	
205.96	2273.2	
206.17	2995.5	
206.38	4639.3	
206.6	4750.6	
206.81	3369.6	
207.02	2745.6	
207.24	4615.4	
207.45	4862.6	
207.66	2821.4	
207.88	2521	
208.09	4582	
208.3	4390.8	
208.52	2639.1	
208.73	2905.4	
208.94	4388.1	
209.15	4835.3	
209.37	2803	
209.58	2935.4	
209.79	4748.6	
210.01	4364.2	
210.22	2427.5	
210.43	2442.5	
210.65	4392.9	
210.86	4644.1	
211.07	2813.9	
211.29	2615.3	
211.5	4618.2	
211.71	4431.8	
211.93	2654.2	
212.14	2688.3	
212.35	4386.7	
212.56	4505.5	
212.78	2937.5	
212.99	2483.5	
213.2	5017.5	
213.42	4302.8	
213.63	2710.1	
213.84	2813.9	
214.06	4117.8	
214.27	4073.4	
214.48	2757.2	
214.69	3015.3	
214.91	4854.4	
215.12	4871.4	
215.33	2985.3	
215.55	3154.6	
215.76	5197.1	
215.97	4624.3	
216.18	2878.1	
216.4	2871.9	
216.61	4173.1	
216.82	4726.7	
217.04	2661	
217.25	2689	
217.46	4786.8	
217.67	4661.2	
217.89	2436.4	
218.1	2535.4	
218.31	4451.6	
218.53	4599.7	
218.74	2811.2	
218.95	2666.5	
219.16	4434.5	
219.38	4985.4	
219.59	2651.4	
219.8	3086.3	
220.01	5326.8	
220.23	4431.1	
220.44	3261.7	
220.65	2577	
220.87	4538.3	
221.08	4825	
221.29	2499.9	
221.5	3130	
221.72	5526.8	
221.93	4203.1	
222.14	2938.2	
222.35	3321.8	
222.57	4396.3	
222.78	4685.8	
222.99	2833.7	
223.2	2968.2	
223.42	4632.5	
223.63	4696.7	
223.84	2272.6	
224.05	2293.7	
224.27	5230.5	
224.48	4933.6	
224.69	3405.1	
224.9	2905.4	
225.12	4568.3	
225.33	4383.3	
225.54	2461	
225.75	2679.4	
225.97	4149.2	
226.18	4395.6	
226.39	2830.3	
226.6	2718.3	
226.82	4302.8	
227.03	4128.7	
227.24	2906.1	
227.45	2579.1	
227.67	4737	
227.88	4917.9	
228.09	3189.4	
228.3	3229.6	
228.52	4676.2	
228.73	4377.2	
228.94	2775.7	
229.15	2526.5	
229.36	4382	
229.58	4463.2	
229.79	2810.5	
230	3148.4	
230.21	5139	
230.43	4420.2	
230.64	2893.8	
230.85	2959.3	
231.06	4754	
231.28	4683.7	
231.49	2547.7	
231.7	2933.4	
231.91	4670.1	
232.12	4442	
232.34	2608.4	
232.55	2867.2	
232.76	4764.9	
232.97	4479.6	
233.18	2671.2	
233.4	2921.8	
233.61	4487.8	
233.82	4266.6	
234.03	2810.5	
234.25	2752.5	
234.46	5644.2	
234.67	4437.9	
234.88	2988	
235.09	2714.9	
235.31	4572.4	
235.52	4341	
235.73	2888.3	
235.94	2532.7	
236.15	4261.1	
236.37	5169.1	
236.58	2618	
236.79	2852.8	
237	4641.4	
237.21	4102.1	
237.43	2994.1	
237.64	2518.3	
237.85	6852.5	
238.06	4111.6	
238.27	2964.8	
238.48	2577	
238.7	4671.4	
238.91	4319.2	
239.12	2773.6	
239.33	2927.9	
239.54	4166.9	
239.76	4365.6	
239.97	2799.6	
240.18	2863.1	
240.39	5190.2	
240.6	4537.6	
240.82	2972.3	
241.03	2522.4	
241.24	4392.9	
241.45	4886.5	
241.66	2664.4	
241.87	3107.5	
242.09	4936.3	
242.3	5035.3	
242.51	3054.9	
242.72	2826.9	
242.93	4680.3	
243.14	4416.8	
243.36	3211.9	
243.57	3376.4	
243.78	4926.7	
243.99	4618.9	
244.2	2820.1	
244.41	2599.6	
244.63	4152.6	
244.84	4541.7	
245.05	2987.3	
245.26	2778.4	
245.47	4702.8	
245.68	4681	
245.9	3489.1	
246.11	2930.6	
246.32	4260.5	
246.53	4588.8	
246.74	4355.3	
246.95	2534.7	
247.16	4193.6	
247.38	4485.1	
247.59	2521.7	
247.8	2894.5	
248.01	4146.5	
248.22	4397.7	
248.43	2648	
248.64	2828.9	
248.86	4173.1	
249.07	4308.9	
249.28	2642.6	
249.49	2919.7	
249.7	4758.1	
249.91	4757.4	
250.12	2541.5	
250.34	2540.2	
250.55	4564.9	
250.76	4428.4	
250.97	2932	
251.18	2947.7	
251.39	4783.4	
251.6	4505.5	
251.81	2962	
252.03	2928.6	
252.24	4308.9	
252.45	4691.9	
252.66	2575	
252.87	3080.8	
253.08	4449.6	
253.29	5466.7	
253.5	2562	
253.72	3402.4	
253.93	4358.8	
254.14	5001.1	
254.35	2749.7	
254.56	2749.7	
254.77	4556	
254.98	4224.3	
255.19	2734	
255.41	3312.9	
255.62	4571.1	
255.83	4807.9	
256.04	3060.3	
256.25	2888.3	
256.46	5182	
256.67	4248.2	
256.88	2891.7	
257.09	3130	
257.31	4148.5	
257.52	4216.1	
257.73	3534.1	
257.94	2767.5	
258.15	4368.3	
258.36	4369	
258.57	3288.4	
258.78	2295.1	
258.99	4745.1	
259.2	4290.5	
259.41	2732.7	
259.63	2800.9	
259.84	4913.8	
260.05	5061.2	
260.26	3355.3	
260.47	2712.9	
260.68	4741.7	
260.89	4377.9	
261.1	3270.6	
261.31	2669.9	
261.52	4878.9	
261.73	5014.8	
261.95	3396.9	
262.16	3028.9	
262.37	4820.2	
262.58	4961.5	
262.79	3383.2	
263	2797.5	
263.21	4431.8	
263.42	4235.9	
263.63	2961.4	
263.84	2735.4	
264.05	4699.4	
264.26	4985.4	
264.47	3287	
264.69	3010.5	
264.9	4883.7	
265.11	4466.6	
265.32	2668.5	
265.53	2723.8	
265.74	4532.2	
265.95	4018.8	
266.16	2856.9	
266.37	3129.3	
266.58	4539.7	
266.79	4296	
267	2749.1	
267.21	2571.6	
267.42	4160.8	
267.63	4457.1	
267.84	2792.7	
268.06	2523.1	
268.27	4724.7	
268.48	4837.3	
268.69	2728.6	
268.9	3158.7	
269.11	4795	
269.32	4022.2	
269.53	2884.2	
269.74	2670.6	
269.95	4578.6	
270.16	4059.1	
270.37	2888.3	
270.58	3188.7	
270.79	4394.3	
271	4742.4	
271.21	3004.4	
271.42	2842.6	
271.63	4629.8	
271.84	4105.5	
272.05	2445.3	
272.26	2611.8	
272.47	4448.2	
272.68	4530.8	
272.89	2808.4	
273.11	3045.3	
273.32	4274.1	
273.53	4963.6	
273.74	3024.8	
273.95	3005.1	
274.16	4681.7	
274.37	4409.3	
274.58	3136.1	
274.79	2603.7	
275	4519.2	
275.21	4731.5	
275.42	3555.3	
275.63	3087.7	
275.84	4620.2	
276.05	5517.2	
276.26	2960.7	
276.47	2729.3	
276.68	4452.3	
276.89	5022.3	
277.1	3160	
277.31	2553.1	
277.52	4532.2	
277.73	4919.9	
277.94	2540.2	
278.15	2779.8	
278.36	4531.5	
278.57	4240.7	
278.78	2766.8	
278.99	2974.3	
279.2	4298.7	
279.41	4164.2	
279.62	3491.1	
279.83	2593.4	
280.04	5167	
280.25	4117.1	
280.46	3403	
280.67	2834.4	
280.88	4212.7	
281.09	4825.7	
281.3	2921.1	
281.51	3567.6	
281.72	4246.8	
281.93	4649.6	
282.14	2710.1	
282.35	2891	
282.56	4754.7	
282.77	4678.2	
282.98	2765.4	
283.19	3240.6	
283.4	5464	
283.61	4388.8	
283.82	2606.4	
284.03	3334.1	
284.24	4622.3	
284.45	4725.3	
284.66	3384.6	
284.87	3252.9	
285.08	4831.8	
285.29	4867.3	
285.5	2471.2	
285.71	2788	
285.92	4774.5	
286.12	5192.3	
286.33	3360	
286.54	2808.4	
286.75	4680.3	
286.96	4337.6	
287.17	2652.1	
287.38	3286.3	
287.59	4283.7	
287.8	4293.2	
288.01	2822.8	
288.22	3080.8	
288.43	4486.4	
288.64	4040.6	
288.85	3231.7	
289.06	3092.4	
289.27	4704.9	
289.48	4908.3	
289.69	3445.4	
289.9	3139.5	
290.11	4887.1	
290.32	4260.5	
290.53	3211.2	
290.74	3028.3	
290.94	4678.9	
291.15	4730.1	
291.36	2757.9	
291.57	3038.5	
291.78	4351.9	
291.99	4031.1	
292.2	2651.4	
292.41	3035.8	
292.62	4721.3	
292.83	4627.7	
293.04	3605.1	
293.25	2654.2	
293.46	4327.4	
293.67	4691.9	
293.88	2645.3	
294.09	2641.2	
294.29	4225	
294.5	4456.4	
294.71	2829.6	
294.92	2782.5	
295.13	4322.6	
295.34	5139	
295.55	2558.6	
295.76	2508.1	
295.97	4657.8	
296.18	5111.7	
296.39	2561.3	
296.6	2702.6	
296.81	4447.5	
297.01	4687.1	
297.22	2829.6	
297.43	2740.9	
297.64	4334.9	
297.85	4135.5	
298.06	2341.5	
298.27	2512.2	
298.48	4394.3	
298.69	4229.7	
298.9	2896.5	
299.11	2690.3	
299.31	4188.8	
299.52	4171.7	
299.73	3033.7	
299.94	2963.4	
300.15	4508.3	
300.36	4248.2	
300.57	3009.8	
300.78	2970.9	
300.99	4340.3	
301.2	4474.8	
301.4	2740.2	
301.61	2882.2	
301.82	4586.8	
302.03	4688.5	
302.24	3177.1	
302.45	2638.5	
302.66	4612	
302.87	4723.3	
303.08	2717.7	
303.29	3442	
303.49	4359.4	
303.7	4356	
303.91	2477.4	
304.12	3348.4	
304.33	4121.9	
304.54	4529.4	
304.75	2691	
304.96	2671.9	
305.16	4687.1	
305.37	4995	
305.58	2493.1	
305.79	2516.3	
306	4609.3	
306.21	4062.5	
306.42	2659.6	
306.63	3820.1	
306.83	4356.7	
307.04	4610	
307.25	2906.1	
307.46	2860.3	
307.67	4037.9	
307.88	4629.8	
308.09	2727.2	
308.29	2727.2	
308.5	4500.8	
308.71	4788.8	
308.92	2848.7	
309.13	2625.5	
309.34	4472.8	
309.55	4403.8	
309.75	3304.7	
309.96	2993.4	
310.17	4707.6	
310.38	4247.5	
310.59	3046	
310.8	2534.7	
311.01	4294.6	
311.21	4414.7	
311.42	2670.6	
311.63	2725.8	
311.84	4263.9	
312.05	4465.9	
312.26	2988.7	
312.46	3188	
312.67	4320.5	
312.88	4126	
313.09	2593.4	
313.3	2576.3	
313.51	4903.5	
313.71	5121.3	
313.92	2620	
314.13	2744.3	
314.34	4547.2	
314.55	4421.6	
314.76	3216	
314.96	2854.9	
315.17	4592.9	
315.38	4622.9	
315.59	2656.9	
315.8	2534.7	
316.01	4840.7	
316.21	5004.6	
316.42	2603.7	
316.63	2860.3	
316.84	4356	
317.05	4777.9	
317.26	3035.8	
317.46	2731.3	
317.67	4412.7	
317.88	4689.8	
318.09	3212.6	
318.3	2493.1	
318.5	4340.3	
318.71	4519.9	
318.92	3886.4	
319.13	3040.6	
319.34	4716.5	
319.54	4823	
319.75	2517	
319.96	2423.4	
320.17	4567.7	
320.38	4790.9	
320.58	2445.3	
320.79	2874.7	
321	4798.4	
321.21	4867.3	
321.42	2874.7	
321.62	2486.2	
321.83	4240	
322.04	4438.6	
322.25	2845.3	
322.46	2661.7	
322.66	4465.9	
322.87	4661.2	
323.08	3115.6	
323.29	2546.3	
323.5	5043.5	
323.7	4160.1	
323.91	3391.4	
324.12	3097.2	
324.33	4543.1	
324.53	4640.7	
324.74	2952.5	
324.95	3090.4	
325.16	4141	
325.37	4358.8	
325.57	2670.6	
325.78	2691.7	
325.99	4626.4	
326.2	4134.2	
326.4	3620.1	
326.61	2520.4	
326.82	4358.1	
327.03	4484.4	
327.24	3535.5	
327.44	3298.6	
327.65	4631.1	
327.86	3913.7	
328.07	2999.6	
328.27	2580.4	
328.48	4893.3	
328.69	4128	
328.9	3491.8	
329.1	2789.3	
329.31	4360.1	
329.52	4882.4	
329.73	2716.3	
329.93	2860.3	
330.14	4511	
330.35	4575.2	
330.56	3960.1	
330.76	3095.8	
330.97	4383.3	
331.18	4398.4	
331.39	2899.9	
331.59	2473.3	
331.8	4807.3	
332.01	4885.1	
332.22	2757.2	
332.42	2961.4	
332.63	4483.7	
332.84	4232.5	
333.05	2889.7	
333.25	2708.8	
333.46	4258.4	
333.67	4429.1	
333.88	2794.1	
334.08	2936.8	
334.29	5481.7	
334.5	4779.3	
334.7	2571.6	
334.91	3528	
335.12	4151.9	
335.33	4647.5	
335.53	2891.7	
335.74	3927.3	
335.95	4379.2	
336.16	4099.4	
336.36	2821.4	
336.57	3203.7	
336.78	4070	
336.98	4780	
337.19	3437.2	
337.4	2848	
337.61	5201.8	
337.81	4141.7	
338.02	2729.3	
338.23	3226.2	
338.43	4872.1	
338.64	4258.4	
338.85	2650.8	
339.05	3379.8	
339.26	5010	
339.47	4080.2	
339.68	2679.4	
339.88	3659.7	
340.09	4688.5	
340.3	4775.2	
340.5	3007.8	
340.71	2417.3	
340.92	4175.1	
341.13	4810.7	
341.33	2547.7	
341.54	2985.3	
341.75	4572.4	
341.95	4343.1	
342.16	2882.9	
342.37	3100.6	
342.57	4167.6	
342.78	4364.2	
342.99	3177.1	
343.19	2478.7	
343.4	4711.7	
343.61	4542.4	
343.81	2827.6	
344.02	2582.5	
344.23	4698	
344.43	4822.3	
344.64	3194.8	
344.85	3121.8	
345.06	4617.5	
345.26	4752.7	
345.47	3009.8	
345.68	3349.8	
345.88	4067.9	
346.09	4685.1	
346.3	3020.8	
346.5	2426.8	
346.71	4358.8	
346.92	4229.1	
347.12	2534	
347.33	2934.7	
347.54	4746.5	
347.74	4976.6	
347.95	2941.6	
348.16	2375.6	
348.36	4287.1	
348.57	4211.3	
348.78	3097.2	
348.98	3148.4	
349.19	4347.8	
349.39	4006.5	
349.6	2537.4	
349.81	2717	
350.01	4666	
350.22	4203.1	
350.43	2911.5	
350.63	3338.2	
350.84	4440.7	
351.05	4250.2	
351.25	2708.1	
351.46	2502.6	
351.67	4660.5	
351.87	4197	
352.08	2835.8	
352.29	3081.5	
352.49	4710.3	
352.7	4499.4	
352.9	2604.3	
353.11	3114.3	
353.32	5073.5	
353.52	4295.3	
353.73	2593.4	
353.94	3136.8	
354.14	4547.2	
354.35	4461.8	
354.55	2745.6	
354.76	2923.8	
354.97	4592.2	
355.17	4388.8	
355.38	2626.2	
355.59	3299.3	
355.79	4212.7	
356	4349.9	
356.2	2929.3	
356.41	2656.2	
356.62	4135.5	
356.82	4366.3	
357.03	3084.2	
357.24	2850.8	
357.44	4200.4	
357.65	4255.7	
357.85	3532.1	
358.06	2946.3	
358.27	4059.8	
358.47	4129.4	
358.68	2599.6	
358.88	3049.4	
359.09	4559.5	
359.3	4779.3	
359.5	3468.6	
359.71	3149.8	
359.91	4949.9	
360.12	4583.4	
360.33	3086.3	
360.53	3338.9	
360.74	4302.8	
360.94	4285	
361.15	3251.5	
361.36	2761.3	
361.56	4772.4	
361.77	4435.2	
361.97	3439.2	
362.18	2882.2	
362.38	4756.1	
362.59	4144.4	
362.8	2735.4	
363	2693.1	
363.21	4162.8	
363.41	4478.9	
363.62	3043.3	
363.83	3557.3	
364.03	4631.1	
364.24	4993.6	
364.44	3792.8	
364.65	3678.8	
364.85	4367	
365.06	4299.4	
365.27	2871.3	
365.47	2911.5	
365.68	5031.9	
365.88	4431.8	
366.09	3099.9	
366.29	2849.4	
366.5	4488.5	
366.71	4777.9	
366.91	3664.5	
367.12	3236.5	
367.32	5190.9	
367.53	4698.7	
367.73	3229.6	
367.94	3731.4	
368.14	4804.5	
368.35	5111.7	
368.56	3223.5	
368.76	2803.7	
368.97	4823	
369.17	5647.6	
369.38	2788	
369.58	3037.8	
369.79	4158.1	
369.99	4987.5	
370.2	3697.3	
370.4	3070.6	
370.61	4552	
370.82	5399.1	
371.02	3099.9	
371.23	2663	
371.43	4240.7	
371.64	4992.3	
371.84	3155.9	
372.05	3702	
372.25	5669.5	
372.46	4698.7	
372.66	3141.6	
372.87	3093.1	
373.07	4772.4	
373.28	5816.2	
373.48	3699.3	
373.69	3477.5	
373.9	4550.6	
374.1	4575.8	
374.31	3661.8	
374.51	3405.1	
374.72	4967.7	
374.92	4394.3	
375.13	3771.7	
375.33	3262.4	
375.54	4730.8	
375.74	4464.6	
375.95	3435.1	
376.15	4058.4	
376.36	4876.2	
376.56	4764.3	
376.77	3435.1	
376.97	3620.8	
377.18	5511.8	
377.38	4914.4	
377.59	3812	
377.79	3164.8	
378	4818.9	
378.2	4896.7	
378.41	3185.3	
378.61	3142.9	
378.82	5073.5	
379.02	4653	
379.23	3293.8	
379.43	3934.1	
379.64	5263.3	
379.84	4917.9	
380.05	3242.6	
380.25	3170.3	
380.46	4906.9	
380.66	4687.1	
380.87	3954.6	
381.07	4162.2	
381.28	5354.1	
381.48	4975.9	
381.69	3177.1	
381.89	3207.1	
382.1	4368.3	
382.3	4984.1	
382.51	3835.2	
382.71	4291.2	
382.91	4859.1	
383.12	5203.9	
383.32	3439.2	
383.53	3539.6	
383.73	4861.2	
383.94	4853	
384.14	3462.4	
384.35	2969.6	
384.55	4621.6	
384.76	4908.3	
384.96	3439.2	
385.17	3580.5	
385.37	4932.9	
385.58	4394.3	
385.78	3519.8	
385.98	2968.2	
386.19	4650.3	
386.39	4955.4	
386.6	3295.9	
386.8	3414.6	
387.01	4956.8	
387.21	5047.6	
387.42	3672	
387.62	3957.4	
387.83	4638	
388.03	4788.2	
388.23	3536.8	
388.44	3943	
388.64	4489.8	
388.85	4542.4	
389.05	3715.7	
389.26	4065.9	
389.46	5807.4	
389.67	5329.5	
389.87	3737.5	
390.07	3713	
390.28	4751.3	
390.48	4563.6	
390.69	3254.9	
390.89	3493.8	
391.1	4743.1	
391.3	5197.7	
391.5	4217.5	
391.71	4414.7	
391.91	5157.5	
392.12	5567.7	
392.32	4223.6	
392.53	3758	
392.73	4826.4	
392.93	4906.3	
393.14	3545	
393.34	4005.1	
393.55	5131.5	
393.75	4860.5	
393.95	3616.7	
394.16	3523.2	
394.36	4822.3	
394.57	5113.8	
394.77	3282.2	
394.98	3456.3	
395.18	4700.1	
395.38	4818.2	
395.59	4048.2	
395.79	3469.3	
396	4915.1	
396.2	5150.6	
396.4	3986.7	
396.61	3951.2	
396.81	5206.6	
397.02	4801.1	
397.22	4145.8	
397.42	4137.6	
397.63	5343.8	
397.83	4892.6	
398.04	3503.4	
398.24	3837.9	
398.44	5163.6	
398.65	4549.9	
398.85	3387.3	
399.05	3446	
399.26	4911.7	
399.46	5850.4	
399.67	3787.4	
399.87	3599	
400.07	5174.5	
400.28	5328.1	
400.48	3689.8	
400.69	4338.3	
400.89	5424.4	
401.09	5791.7	
401.3	3714.3	
401.5	4306.9	
401.7	5851	
401.91	6030.6	
402.11	3967.6	
402.32	4001.7	
402.52	5567.1	
402.72	5489.2	
402.93	4166.3	
403.13	3437.2	
403.33	5922	
403.54	5081	
403.74	3933.5	
403.94	4391.5	
404.15	5132.9	
404.35	5907	
404.56	3739.6	
404.76	4718.5	
404.96	5457.8	
405.17	5319.9	
405.37	4265.2	
405.57	4100	
405.78	5591.6	
405.98	5227.8	
406.18	3857.7	
406.39	4310.3	
406.59	5511.1	
406.79	5106.3	
407	3661.8	
407.2	3670.6	
407.4	5739.8	
407.61	5708.4	
407.81	3844	
408.01	5137	
408.22	4880.3	
408.42	6110.5	
408.62	4595.6	
408.83	4365.6	
409.03	5474.2	
409.23	5496.1	
409.44	4432.5	
409.64	4563.6	
409.84	6234.7	
410.05	6115.9	
410.25	4548.5	
410.45	4460.5	
410.66	5945.3	
410.86	7397.3	
411.06	4828.4	
411.27	4805.9	
411.47	7294.9	
411.67	6100.9	
411.88	4931.5	
412.08	5085.1	
412.28	6451.1	
412.49	6845.7	
412.69	4868	
412.89	4837.3	
413.09	6709.1	
413.3	6752.2	
413.5	4970.4	
413.7	4792.2	
413.91	6217	
414.11	6797.2	
414.31	4896	
414.52	5179.3	
414.72	6718	
414.92	6574	
415.12	4947.9	
415.33	5366.4	
415.53	6864.1	
415.73	6965.8	
415.94	5424.4	
416.14	5143.1	
416.34	6411.5	
416.55	6138.4	
416.75	5821	
416.95	5561.6	
417.15	6944.7	
417.36	7265.5	
417.56	6180.1	
417.76	5578	
417.97	7178.8	
418.17	7012.2	
418.37	5361.6	
418.57	5322.7	
418.78	7046.4	
418.98	6808.1	
419.18	5905.7	
419.38	5833.3	
419.59	6684.6	
419.79	6460.7	
419.99	5253.7	
420.2	5450.3	
420.4	7097.6	
420.6	7003.4	
420.8	5214.8	
421.01	5180.7	
421.21	7082.6	
421.41	7011.6	
421.61	5507.7	
421.82	5359.5	
422.02	6785.6	
422.22	7265.5	
422.42	5739.8	
422.63	5501.5	
422.83	6699.6	
423.03	7572	
423.23	5629.9	
423.44	4920.6	
423.64	6744	
423.84	6470.2	
424.04	5336.3	
424.25	5051	
424.45	7251.9	
424.65	7318.8	
424.85	4922	
425.06	5279.7	
425.26	7430.7	
425.46	6761	
425.66	5593	
425.87	5345.9	
426.07	7114	
426.27	7013.6	
426.47	5457.2	
426.67	5003.2	
426.88	7335.8	
427.08	6971.3	
427.28	5717.9	
427.48	4973.2	
427.69	6400.6	
427.89	6761	
428.09	5564.3	
428.29	4972.5	
428.5	7154.9	
428.7	6879.1	
428.9	5096.7	
429.1	5388.2	
429.3	6959.7	
429.51	7063.4	
429.71	5174.5	
429.91	5795.8	
430.11	7327.6	
430.31	7298.3	
430.52	5403.2	
430.72	5629.9	
430.92	7533.1	
431.12	7107.8	
431.32	5327.4	
431.53	5581.4	
431.73	6552.8	
431.93	7522.2	
432.13	5227.8	
432.33	5305.6	
432.54	6920.8	
432.74	6986.3	
432.94	5358.2	
433.14	5915.9	
433.34	7397.9	
433.55	7194.5	
433.75	5846.3	
433.95	6964.5	
434.15	7279.2	
434.35	7030.7	
434.56	5435.3	
434.76	5278.3	
434.96	7311.9	
435.16	7492.2	
435.36	5451	
435.56	6219	
435.77	7187	
435.97	7279.8	
436.17	6625.2	
436.37	6204	
436.57	7059.3	
436.78	7171.3	
436.98	7144	
437.18	6556.9	
437.38	7556.3	
437.58	7223.2	
437.78	6572.6	
437.99	5756.8	
438.19	7641	
438.39	8391.9	
438.59	5741.8	
438.79	5374.6	
438.99	7792.5	
439.2	7152.2	
439.4	5316.5	
439.6	5434.6	
439.8	7309.9	
440	8077.9	
440.2	6212.2	
440.4	6260.6	
440.61	7905.8	
440.81	8142	
441.01	5900.9	
441.21	6479.8	
441.41	8330.5	
441.61	7953.6	
441.81	6763.8	
442.02	7184.3	
442.22	8566	
442.42	8089.5	
442.62	5962.3	
442.82	6040.1	
443.02	8383	
443.22	7825.3	
443.43	6406	
443.63	6130.9	
443.83	7707.2	
444.03	7682.6	
444.23	6918	
444.43	6651.8	
444.63	8047.2	
444.83	8618.5	
445.04	6426.5	
445.24	6963.1	
445.44	8255.4	
445.64	8219.9	
445.84	6592.4	
446.04	6669.6	
446.24	7685.3	
446.44	8284.7	
446.65	6109.8	
446.85	6374.6	
447.05	7621.9	
447.25	8234.2	
447.45	6433.4	
447.65	6025.1	
447.85	8017.1	
448.05	7504.4	
448.25	6719.4	
448.46	6537.1	
448.66	7963.2	
448.86	7673.1	
449.06	6101.6	
449.26	6666.8	
449.46	8175.5	
449.66	7679.2	
449.86	6561.7	
450.06	6553.5	
450.26	7783.6	
450.47	8163.9	
450.67	6616.3	
450.87	6832	
451.07	8305.9	
451.27	8198.7	
451.47	6238.1	
451.67	6859.3	
451.87	8017.8	
452.07	8572.8	
452.27	6492.1	
452.47	6435.4	
452.67	8217.1	
452.88	8376.9	
453.08	6047.7	
453.28	7326.9	
453.48	8987.9	
453.68	7993.2	
453.88	6537.1	
454.08	6556.9	
454.28	8502.5	
454.48	8239.7	
454.68	6879.1	
454.88	7148.1	
455.08	8589.9	
455.28	8416.5	
455.48	6509.8	
455.68	6977.4	
455.89	8957.8	
456.09	8835.6	
456.29	6806.1	
456.49	7030	
456.69	9088.9	
456.89	8396	
457.09	7242.3	
457.29	7544.7	
457.49	8804.2	
457.69	8882.7	
457.89	7380.9	
458.09	6894.1	
458.29	8853.4	
458.49	9250.7	
458.69	7563.1	
458.89	7322.9	
459.09	9485.5	
459.29	9503.3	
459.49	7322.2	
459.69	7709.2	
459.9	9167.4	
460.1	9060.9	
460.3	7201.3	
460.5	7199.3	
460.7	9222	
460.9	8809	
461.1	6959	
461.3	7870.3	
461.5	9766.8	
461.7	9547.6	
461.9	7514.7	
462.1	7692.9	
462.3	9417.2	
462.5	9668.5	
462.7	7617.1	
462.9	7712	
463.1	10321	
463.3	10216	
463.5	7806.2	
463.7	8688.2	
463.9	9721.7	
464.1	9934	
464.3	8241	
464.5	8277.2	
464.7	10163	
464.9	10130	
465.1	9155.1	
465.3	8588.5	
465.5	10326	
465.7	10593	
465.9	8959.2	
466.1	8587.1	
466.3	10497	
466.5	10206	
466.7	9493	
466.9	8665.6	
467.1	10626	
467.3	11027	
467.5	9552.4	
467.7	8909.3	
467.9	11134	
468.1	11646	
468.3	9259.5	
468.5	9532.6	
468.7	10550	
468.9	10436	
469.1	9050	
469.3	9705.3	
469.5	11881	
469.7	10426	
469.9	9317.6	
470.1	9071.8	
470.3	10757	
470.5	10890	
470.7	9787.9	
470.9	9013.1	
471.1	10620	
471.3	10621	
471.5	9059.5	
471.69	10069	
471.89	10455	
472.09	9982.5	
472.29	9371.5	
472.49	9466.4	
472.69	10378	
472.89	10801	
473.09	8890.9	
473.29	8888.9	
473.49	10466	
473.69	10294	
473.89	9519	
474.09	8919.6	
474.29	11172	
474.49	10786	
474.69	9369.5	
474.89	8995.4	
475.09	10514	
475.29	10415	
475.49	8774.9	
475.69	8918.9	
475.88	11264	
476.08	10717	
476.28	8697	
476.48	8759.2	
476.68	10948	
476.88	10594	
477.08	8698.4	
477.28	8996	
477.48	10315	
477.68	10586	
477.88	8653.4	
478.08	8834.9	
478.28	11029	
478.48	10507	
478.67	9046.6	
478.87	8445.1	
479.07	10940	
479.27	10576	
479.47	9040.4	
479.67	9073.2	
479.87	10768	
480.07	11037	
480.27	8582.4	
480.47	9558.6	
480.67	10490	
480.87	11083	
481.06	8828.1	
481.26	9359.2	
481.46	10714	
481.66	10580	
481.86	9158.5	
482.06	9622	
482.26	10497	
482.46	11016	
482.66	9129.8	
482.86	8874.5	
483.05	10871	
483.25	10277	
483.45	10496	
483.65	9180.4	
483.85	10474	
484.05	10643	
484.25	9447.3	
484.45	9820.7	
484.65	11153	
484.84	11319	
485.04	9209	
485.24	9319.6	
485.44	11576	
485.64	10578	
485.84	8959.9	
486.04	9820	
486.24	10889	
486.44	11072	
486.63	9105.3	
486.83	9594.7	
487.03	10953	
487.23	11078	
487.43	9086.8	
487.63	10549	
487.83	11232	
488.02	11557	
488.22	9889	
488.42	10219	
488.62	11845	
488.82	11118	
489.02	9575.6	
489.22	9704	
489.41	11521	
489.61	11563	
489.81	9465	
490.01	9458.2	
490.21	11599	
490.41	12241	
490.61	9548.3	
490.8	9694.4	
491	11526	
491.2	11041	
491.4	10060	
491.6	9415.9	
491.8	11385	
491.99	11237	
492.19	9148.3	
492.39	9357.9	
492.59	11619	
492.79	11682	
492.99	10161	
493.18	9464.3	
493.38	11927	
493.58	12521	
493.78	10165	
493.98	10019	
494.18	11854	
494.37	11633	
494.57	10681	
494.77	10518	
494.97	12304	
495.17	12579	
495.37	10475	
495.56	10788	
495.76	12721	
495.96	12726	
496.16	11516	
496.36	10913	
496.55	12960	
496.75	12695	
496.95	11140	
497.15	11077	
497.35	12870	
497.54	12848	
497.74	10976	
497.94	12136	
498.14	13482	
498.34	13248	
498.53	10891	
498.73	11379	
498.93	12724	
499.13	12984	
499.33	11425	
499.52	11525	
499.72	13321	
499.92	13127	
500.12	11272	
500.32	11441	
500.51	13292	
500.71	13257	
500.91	11948	
501.11	11708	
501.31	13343	
501.5	13610	
501.7	12186	
501.9	11558	
502.1	13188	
502.29	13575	
502.49	11850	
502.69	12087	
502.89	13347	
503.09	13323	
503.28	11146	
503.48	11082	
503.68	12869	
503.88	12717	
504.07	11586	
504.27	11260	
504.47	13087	
504.67	12978	
504.86	11669	
505.06	11411	
505.26	12904	
505.46	13732	
505.65	11349	
505.85	11301	
506.05	12566	
506.25	12899	
506.44	10763	
506.64	11252	
506.84	12379	
507.04	12854	
507.23	10744	
507.43	11114	
507.63	13582	
507.83	12435	
508.02	11148	
508.22	10896	
508.42	13775	
508.62	12335	
508.81	10888	
509.01	11381	
509.21	12229	
509.4	12502	
509.6	11065	
509.8	10887	
510	12467	
510.19	13233	
510.39	10606	
510.59	10813	
510.79	12532	
510.98	13307	
511.18	11069	
511.38	11052	
511.57	13084	
511.77	12656	
511.97	11385	
512.17	10720	
512.36	12904	
512.56	12630	
512.76	10753	
512.95	10632	
513.15	12943	
513.35	12060	
513.55	11323	
513.74	10802	
513.94	12959	
514.14	12555	
514.33	11525	
514.53	11308	
514.73	12641	
514.92	12742	
515.12	10980	
515.32	10821	
515.51	12799	
515.71	12972	
515.91	12107	
516.11	11010	
516.3	13923	
516.5	12673	
516.7	11414	
516.89	11809	
517.09	12699	
517.29	12697	
517.48	11501	
517.68	11000	
517.88	12519	
518.07	12990	
518.27	11499	
518.47	10825	
518.66	13203	
518.86	12480	
519.06	10820	
519.25	11099	
519.45	12604	
519.65	13592	
519.84	11587	
520.04	12070	
520.24	13904	
520.43	13052	
520.63	11334	
520.83	11218	
521.02	12661	
521.22	12856	
521.42	11310	
521.61	11664	
521.81	12555	
522.01	12736	
522.2	11356	
522.4	11097	
522.6	13065	
522.79	12306	
522.99	11325	
523.18	11032	
523.38	13133	
523.58	13181	
523.77	12330	
523.97	11267	
524.17	14562	
524.36	14060	
524.56	12334	
524.76	11947	
524.95	13732	
525.15	13384	
525.34	12108	
525.54	12112	
525.74	14086	
525.93	13459	
526.13	12987	
526.33	12439	
526.52	14502	
526.72	14043	
526.91	13268	
527.11	12720	
527.31	14364	
527.5	14715	
527.7	12893	
527.89	12297	
528.09	14003	
528.29	14519	
528.48	13154	
528.68	12837	
528.87	14573	
529.07	14711	
529.27	12983	
529.46	12686	
529.66	14603	
529.85	14820	
530.05	12685	
530.25	13033	
530.44	15500	
530.64	14410	
530.83	12812	
531.03	12987	
531.23	14943	
531.42	14629	
531.62	13411	
531.81	13048	
532.01	15042	
532.21	15246	
532.4	13188	
532.6	13504	
532.79	15765	
532.99	15631	
533.18	13831	
533.38	14286	
533.58	15347	
533.77	15712	
533.97	14090	
534.16	14258	
534.36	16065	
534.55	15446	
534.75	14488	
534.95	14036	
535.14	16273	
535.34	15606	
535.53	13803	
535.73	14955	
535.92	16440	
536.12	15427	
536.31	13819	
536.51	14493	
536.71	15656	
536.9	15286	
537.1	13622	
537.29	13951	
537.49	15812	
537.68	15451	
537.88	14272	
538.07	13734	
538.27	15724	
538.46	16322	
538.66	13724	
538.86	14024	
539.05	15794	
539.25	15997	
539.44	14422	
539.64	13901	
539.83	15735	
540.03	16264	
540.22	13871	
540.42	13777	
540.61	15596	
540.81	15750	
541	13930	
541.2	14595	
541.39	15129	
541.59	15416	
541.78	14357	
541.98	13731	
542.18	15062	
542.37	15042	
542.57	13779	
542.76	14411	
542.96	14969	
543.15	15308	
543.35	13634	
543.54	13342	
543.74	15051	
543.93	15134	
544.13	13422	
544.32	14233	
544.52	15212	
544.71	14715	
544.91	12944	
545.1	13543	
545.3	14980	
545.49	15142	
545.69	12854	
545.88	13311	
546.08	15830	
546.27	15360	
546.47	13590	
546.66	13099	
546.86	15210	
547.05	15435	
547.24	13207	
547.44	13093	
547.63	14596	
547.83	15236	
548.02	13375	
548.22	13354	
548.41	14482	
548.61	15090	
548.8	13091	
549	12927	
549.19	14780	
549.39	15075	
549.58	12732	
549.78	13216	
549.97	15047	
550.17	14452	
550.36	13439	
550.55	14131	
550.75	14445	
550.94	14961	
551.14	12691	
551.33	12906	
551.53	14108	
551.72	14663	
551.92	12811	
552.11	12830	
552.31	14711	
552.5	14532	
552.69	13744	
552.89	12517	
553.08	14527	
553.28	14393	
553.47	12863	
553.67	13396	
553.86	14894	
554.06	13895	
554.25	12208	
554.44	12527	
554.64	15418	
554.83	15010	
555.03	12629	
555.22	12680	
555.42	14713	
555.61	14464	
555.8	12499	
556	12634	
556.19	13912	
556.39	14476	
556.58	12532	
556.78	12592	
556.97	14341	
557.16	14203	
557.36	13371	
557.55	12420	
557.75	13685	
557.94	14960	
558.13	12400	
558.33	12293	
558.52	14645	
558.72	13793	
558.91	12286	
559.1	12401	
559.3	13684	
559.49	13445	
559.69	12100	
559.88	12525	
560.07	13994	
560.27	14446	
560.46	12573	
560.66	12695	
560.85	14065	
561.04	13373	
561.24	12118	
561.43	12157	
561.63	13507	
561.82	13809	
562.01	12841	
562.21	12287	
562.4	13870	
562.59	14540	
562.79	12292	
562.98	12286	
563.18	14014	
563.37	14792	
563.56	12560	
563.76	12288	
563.95	13730	
564.14	13706	
564.34	12581	
564.53	12237	
564.73	14159	
564.92	14263	
565.11	12564	
565.31	12188	
565.5	14544	
565.69	13723	
565.89	12562	
566.08	12647	
566.27	14352	
566.47	14747	
566.66	13069	
566.85	12234	
567.05	14351	
567.24	13920	
567.44	12504	
567.63	13209	
567.82	14618	
568.02	14227	
568.21	12445	
568.4	12639	
568.6	14287	
568.79	14161	
568.98	12458	
569.18	12550	
569.37	14294	
569.56	15569	
569.76	12935	
569.95	13381	
570.14	14527	
570.34	14489	
570.53	12546	
570.72	12507	
570.91	14910	
571.11	14287	
571.3	12679	
571.49	13153	
571.69	14446	
571.88	13975	
572.07	13115	
572.27	12994	
572.46	14072	
572.65	14605	
572.85	12664	
573.04	12773	
573.23	14952	
573.43	14352	
573.62	12630	
573.81	12877	
574	14672	
574.2	14394	
574.39	12998	
574.58	12980	
574.78	15210	
574.97	14703	
575.16	13420	
575.36	13469	
575.55	15252	
575.74	15121	
575.93	12879	
576.13	13501	
576.32	14680	
576.51	14991	
576.71	13192	
576.9	14085	
577.09	15308	
577.28	14871	
577.48	13426	
577.67	12906	
577.86	14881	
578.05	14952	
578.25	13290	
578.44	13193	
578.63	14897	
578.83	15741	
579.02	12995	
579.21	13904	
579.4	14952	
579.6	14927	
579.79	13298	
579.98	14825	
580.17	15255	
580.37	15362	
580.56	13091	
580.75	13541	
580.94	15418	
581.14	15500	
581.33	13928	
581.52	13220	
581.71	15239	
581.91	15565	
582.1	13265	
582.29	13373	
582.48	15000	
582.68	15233	
582.87	13805	
583.06	13517	
583.25	15306	
583.45	15111	
583.64	14083	
583.83	14448	
584.02	15141	
584.21	15412	
584.41	13867	
584.6	13650	
584.79	15192	
584.98	15550	
585.18	13346	
585.37	13196	
585.56	14934	
585.75	15423	
585.94	13207	
586.14	13814	
586.33	15530	
586.52	15050	
586.71	13600	
586.91	13490	
587.1	14423	
587.29	15208	
587.48	13105	
587.67	12999	
587.87	14944	
588.06	14721	
588.25	13728	
588.44	13419	
588.63	14531	
588.83	14818	
589.02	12947	
589.21	12693	
589.4	14253	
589.59	14218	
589.78	11925	
589.98	12058	
590.17	13446	
590.36	13682	
590.55	11309	
590.74	11523	
590.94	14136	
591.13	13117	
591.32	11454	
591.51	11080	
591.7	13355	
591.89	13219	
592.09	11217	
592.28	11544	
592.47	12755	
592.66	14047	
592.85	11374	
593.05	11476	
593.24	13347	
593.43	13814	
593.62	11791	
593.81	11924	
594	13282	
594.19	13417	
594.39	11614	
594.58	11572	
594.77	13490	
594.96	13749	
595.15	11475	
595.34	11762	
595.54	13259	
595.73	12857	
595.92	11034	
596.11	11561	
596.3	13568	
596.49	12786	
596.68	11288	
596.88	11611	
597.07	13363	
597.26	12712	
597.45	11073	
597.64	11959	
597.83	12966	
598.02	13222	
598.22	11235	
598.41	11690	
598.6	13035	
598.79	12764	
598.98	11206	
599.17	11776	
599.36	13123	
599.55	13698	
599.74	12354	
599.94	12286	
600.13	13528	
600.32	12686	
600.51	10982	
600.7	11088	
600.89	13734	
601.08	13752	
601.27	10936	
601.47	11646	
601.66	13246	
601.85	13510	
602.04	11420	
602.23	11441	
602.42	12668	
602.61	13201	
602.8	11123	
602.99	10994	
603.18	12951	
603.37	13009	
603.57	11353	
603.76	11699	
603.95	13442	
604.14	13196	
604.33	11114	
604.52	11269	
604.71	13097	
604.9	12748	
605.09	11728	
605.28	11572	
605.47	13597	
605.66	13025	
605.86	11436	
606.05	11121	
606.24	13380	
606.43	12392	
606.62	11361	
606.81	11749	
607	13258	
607.19	12757	
607.38	10897	
607.57	11144	
607.76	12544	
607.95	12221	
608.14	11277	
608.33	11530	
608.52	12523	
608.72	13142	
608.91	10679	
609.1	10796	
609.29	12693	
609.48	12211	
609.67	11319	
609.86	10791	
610.05	12326	
610.24	12447	
610.43	10640	
610.62	10365	
610.81	13130	
611	13045	
611.19	10733	
611.38	11092	
611.57	12628	
611.76	13351	
611.95	10529	
612.14	10465	
612.33	12494	
612.52	12353	
612.71	10838	
612.9	10484	
613.09	12000	
613.28	13413	
613.47	10722	
613.66	11202	
613.85	12506	
614.04	12195	
614.24	10664	
614.43	10228	
614.62	12662	
614.81	12551	
615	10936	
615.19	11089	
615.38	12105	
615.57	12407	
615.76	11099	
615.95	11664	
616.14	12717	
616.33	12441	
616.52	11258	
616.71	11161	
616.9	12626	
617.09	12525	
617.28	10671	
617.47	11422	
617.66	12181	
617.85	12232	
618.04	11426	
618.22	11100	
618.41	12458	
618.6	13166	
618.79	11204	
618.98	11002	
619.17	13393	
619.36	12287	
619.55	11213	
619.74	11252	
619.93	12921	
620.12	12575	
620.31	11613	
620.5	11682	
620.69	13421	
620.88	13747	
621.07	12170	
621.26	11800	
621.45	13321	
621.64	13204	
621.83	11792	
622.02	11344	
622.21	13270	
622.4	13151	
622.59	12063	
622.78	12043	
622.97	13060	
623.16	13618	
623.35	11813	
623.54	11356	
623.72	13162	
623.91	13217	
624.1	11956	
624.29	11142	
624.48	13935	
624.67	13383	
624.86	11895	
625.05	11374	
625.24	13986	
625.43	13001	
625.62	12867	
625.81	11561	
626	13513	
626.19	13130	
626.38	11934	
626.56	11603	
626.75	13011	
626.94	13588	
627.13	11983	
627.32	11082	
627.51	13586	
627.7	14003	
627.89	11133	
628.08	11862	
628.27	12794	
628.46	13073	
628.65	11265	
628.83	11001	
629.02	13220	
629.21	12906	
629.4	11600	
629.59	11741	
629.78	12903	
629.97	13371	
630.16	11736	
630.35	11465	
630.54	13867	
630.72	13517	
630.91	11538	
631.1	11763	
631.29	13186	
631.48	13207	
631.67	11817	
631.86	11512	
632.05	13026	
632.24	13008	
632.42	11209	
632.61	11687	
632.8	13015	
632.99	12781	
633.18	11794	
633.37	11796	
633.56	13253	
633.75	13160	
633.93	11735	
634.12	11497	
634.31	13683	
634.5	13471	
634.69	11552	
634.88	11729	
635.07	13177	
635.25	13449	
635.44	12097	
635.63	12170	
635.82	13000	
636.01	12323	
636.2	11895	
636.39	11665	
636.57	13607	
636.76	13194	
636.95	11407	
637.14	12025	
637.33	13266	
637.52	13586	
637.7	11166	
637.89	11802	
638.08	13093	
638.27	13760	
638.46	11777	
638.65	11942	
638.83	13567	
639.02	12803	
639.21	11550	
639.4	11847	
639.59	12966	
639.78	12652	
639.96	11005	
640.15	11088	
640.34	12874	
640.53	12738	
640.72	10888	
640.91	11056	
641.09	12340	
641.28	13071	
641.47	10931	
641.66	11567	
641.85	12680	
642.03	12721	
642.22	11252	
642.41	10978	
642.6	12312	
642.79	11934	
642.97	10827	
643.16	11099	
643.35	12301	
643.54	12035	
643.73	10619	
643.91	11052	
644.1	11879	
644.29	12407	
644.48	10585	
644.67	10466	
644.85	11897	
645.04	12061	
645.23	10200	
645.42	10309	
645.6	11740	
645.79	12298	
645.98	10161	
646.17	9510.8	
646.36	11315	
646.54	11521	
646.73	10361	
646.92	9755.2	
647.11	11142	
647.29	11758	
647.48	9675.3	
647.67	9447.3	
647.86	11923	
648.05	11907	
648.23	9751.1	
648.42	10559	
648.61	11574	
648.8	11359	
648.98	9534.7	
649.17	9688.3	
649.36	11055	
649.55	10806	
649.73	9510.8	
649.92	10096	
650.11	11101	
650.3	11251	
650.48	9658.2	
650.67	9538.1	
650.86	11368	
651.05	10588	
651.23	9514.2	
651.42	9443.2	
651.61	10972	
651.79	10741	
651.98	9635.7	
652.17	9255.5	
652.36	11167	
652.54	10580	
652.73	9297.1	
652.92	9278.7	
653.11	11163	
653.29	11215	
653.48	8880	
653.67	9334	
653.85	10880	
654.04	11432	
654.23	9366	
654.42	9191.3	
654.6	10464	
654.79	10733	
654.98	8659.5	
655.16	8798.1	
655.35	9896.5	
655.54	9638.4	
655.73	8446.5	
655.91	8270.4	
656.1	10344	
656.29	9619.3	
656.47	8155	
656.66	9174.2	
656.85	10129	
657.03	10107	
657.22	8648.6	
657.41	8832.2	
657.59	10272	
657.78	10304	
657.97	8563.2	
658.16	9143.5	
658.34	10734	
658.53	10987	
658.72	9720.3	
658.9	9869.8	
659.09	10516	
659.28	10440	
659.46	8891.6	
659.65	8809	
659.84	10219	
660.02	10697	
660.21	8950.3	
660.4	8772.8	
660.58	10898	
660.77	10390	
660.96	9158.5	
661.14	8645.8	
661.33	11146	
661.52	11135	
661.7	8510.7	
661.89	10623	
662.08	10130	
662.26	9887.6	
662.45	8739.4	
662.64	8769.4	
662.82	10607	
663.01	10133	
663.2	8654.7	
663.38	9151	
663.57	10461	
663.75	10391	
663.94	8990.6	
664.13	9560.6	
664.31	10065	
664.5	10542	
664.69	9118.9	
664.87	9312.1	
665.06	10100	
665.25	10454	
665.43	9580.4	
665.62	9379.7	
665.8	10516	
665.99	10033	
666.18	8901.2	
666.36	8855.4	
666.55	10479	
666.74	10460	
666.92	8622.6	
667.11	9464.3	
667.29	10209	
667.48	10394	
667.67	9286.2	
667.85	8695.7	
668.04	10060	
668.22	10068	
668.41	8772.8	
668.6	8908	
668.78	9953.8	
668.97	10045	
669.15	8967.4	
669.34	8393.3	
669.53	9961.3	
669.71	10204	
669.9	8430.1	
670.08	8837.7	
670.27	9858.9	
670.46	10242	
670.64	9037	
670.83	9099.8	
671.01	9663.7	
671.2	10118	
671.38	8564.6	
671.57	8463.6	
671.76	10619	
671.94	10859	
672.13	8344.8	
672.31	8987.2	
672.5	10412	
672.69	9925.8	
672.87	8462.9	
673.06	8692.9	
673.24	10243	
673.43	9957.2	
673.61	8857.5	
673.8	8619.2	
673.98	10167	
674.17	10305	
674.36	9011.1	
674.54	8853.4	
674.73	9960	
674.91	10339	
675.1	8679.3	
675.28	8460.8	
675.47	9962	
675.65	10394	
675.84	8613.1	
676.03	8791.9	
676.21	9942.9	
676.4	9543.5	
676.58	9093.7	
676.77	8953	
676.95	10786	
677.14	9789.3	
677.32	8379.6	
677.51	8373.5	
677.69	10365	
677.88	9817.3	
678.06	8421.9	
678.25	8459.5	
678.44	10047	
678.62	9822.7	
678.81	8230.1	
678.99	8839.7	
679.18	10380	
679.36	10176	
679.55	8549.6	
679.73	8887.5	
679.92	10144	
680.1	9851.4	
680.29	9261.6	
680.47	8555.7	
680.66	9772.2	
680.84	10261	
681.03	8118.8	
681.21	8913.4	
681.4	9878	
681.58	9677.3	
681.77	8411.7	
681.95	8366.6	
682.14	10350	
682.32	10553	
682.51	9007.6	
682.69	8163.9	
682.88	9654.1	
683.06	9961.3	
683.25	8790.6	
683.43	8989.2	
683.62	9933.3	
683.8	10131	
683.99	9067	
684.17	8538	
684.36	10619	
684.54	9759.3	
684.73	7913.4	
684.91	8028	
685.1	9640.5	
685.28	9116.9	
685.46	7965.2	
685.65	7921.5	
685.83	9323	
686.02	8927.8	
686.2	7427.3	
686.39	7590.5	
686.57	8724.3	
686.76	9722.4	
686.94	7658.7	
687.13	7735.2	
687.31	9312.1	
687.5	9250.7	
687.68	7516.7	
687.86	8157.1	
688.05	10277	
688.23	8979	
688.42	8249.2	
688.6	7770.7	
688.79	9323	
688.97	9252.7	
689.16	8319.5	
689.34	7537.2	
689.52	9726.5	
689.71	9955.9	
689.89	8475.9	
690.08	8107.9	
690.26	9628.9	
690.45	9479.4	
690.63	8599.4	
690.81	8221.9	
691	9648.7	
691.18	9411.1	
691.37	8174.8	
691.55	9381.1	
691.74	9230.9	
691.92	10466	
692.1	8191.9	
692.29	7839.6	
692.47	9563.3	
692.66	8996	
692.84	7986.4	
693.02	8244.4	
693.21	9117.6	
693.39	9465.7	
693.58	8486.8	
693.76	8151.6	
693.94	10260	
694.13	10236	
694.31	8286.8	
694.5	8853.4	
694.68	9530.6	
694.86	9893.1	
695.05	8627.4	
695.23	8842.4	
695.42	10325	
695.6	11443	
695.78	9153.1	
695.97	8490.9	
696.15	10347	
696.34	9884.2	
696.52	8378.9	
696.7	8804.2	
696.89	10009	
697.07	9544.9	
697.25	8710.7	
697.44	9512.8	
697.62	10005	
697.81	10044	
697.99	8454.7	
698.17	8809.7	
698.36	9532.6	
698.54	10010	
698.72	8661.5	
698.91	8056.7	
699.09	9665.7	
699.28	9488.9	
699.46	8474.5	
699.64	8381.7	
699.83	9661.6	
700.01	10073	
700.19	8880	
700.38	8030.8	
700.56	10244	
700.74	9662.3	
700.93	8204.2	
701.11	8701.8	
701.29	10041	
701.48	10793	
701.66	8461.5	
701.84	8518.2	
702.03	9895.1	
702.21	10421	
702.39	8274.5	
702.58	8756.4	
702.76	10194	
702.94	10312	
703.13	8216.5	
703.31	9698.5	
703.49	9850	
703.68	10448	
703.86	8385.1	
704.04	9055.4	
704.23	10047	
704.41	10264	
704.59	8536.6	
704.78	9200.2	
704.96	11140	
705.14	10228	
705.33	8387.8	
705.51	8828.8	
705.69	9985.2	
705.87	10502	
706.06	9072.5	
706.24	8291.5	
706.42	10222	
706.61	10303	
706.79	9152.4	
706.97	8354.3	
707.16	9800.2	
707.34	10150	
707.52	8916.9	
707.7	8501.1	
707.89	9932.6	
708.07	9703.3	
708.25	9100.5	
708.44	9066.4	
708.62	9798.8	
708.8	10546	
708.98	9152.4	
709.17	8553	
709.35	10068	
709.53	10036	
709.72	8452	
709.9	8449.2	
710.08	10333	
710.26	10292	
710.45	9258.2	
710.63	8525.7	
710.81	9783.1	
710.99	9867.8	
711.18	8953	
711.36	8343.4	
711.54	9795.4	
711.72	10187	
711.91	8520.2	
712.09	8013.7	
712.27	9815.9	
712.45	10002	
712.64	8357.8	
712.82	7842.4	
713	9322.4	
713.18	9366.7	
713.37	7714	
713.55	8363.2	
713.73	9711.5	
713.91	8785.1	
714.1	7570	
714.28	7219.8	
714.46	8896.4	
714.64	8296.3	
714.83	6440.9	
715.01	6800.6	
715.19	8002.8	
715.37	7477.8	
715.55	6337.8	
715.74	6429.3	
715.92	8290.2	
716.1	7002.7	
716.28	7090.8	
716.47	6464.1	
716.65	7566.6	
716.83	7476.5	
717.01	6294.8	
717.19	6219	
717.38	8681.3	
717.56	7200.7	
717.74	6449.7	
717.92	6103.6	
718.1	8009.6	
718.29	7615	
718.47	5848.3	
718.65	6433.4	
718.83	8419.9	
719.01	8370.7	
719.2	6282.5	
719.38	6925.5	
719.56	8340	
719.74	9256.1	
719.92	6782.9	
720.11	7286	
720.29	8450.6	
720.47	7825.3	
720.65	6316.6	
720.83	6683.9	
721.02	7845.8	
721.2	7496.9	
721.38	6462	
721.56	5996.5	
721.74	7143.3	
721.92	7170.6	
722.11	6642.2	
722.29	6491.4	
722.47	7899	
722.65	7389.8	
722.83	5934.3	
723.01	6457.2	
723.2	7361.1	
723.38	7590.5	
723.56	5642.2	
723.74	6270.9	
723.92	7109.9	
724.1	7832.8	
724.29	5799.2	
724.47	6517.3	
724.65	7232.1	
724.83	7173.4	
725.01	5858.6	
725.19	6285.2	
725.37	7121.5	
725.56	6997.9	
725.74	5686.5	
725.92	5848.3	
726.1	7066.2	
726.28	7347.4	
726.46	6066.1	
726.64	5879.7	
726.83	7260	
727.01	7260.7	
727.19	5720.7	
727.37	6126.8	
727.55	7375.4	
727.73	7634.8	
727.91	5652.4	
728.09	5463.3	
728.28	7576.1	
728.46	7725.6	
728.64	6189.6	
728.82	6208.8	
729	8275.2	
729.18	7942	
729.36	5819	
729.54	7149.5	
729.72	8563.2	
729.91	7626	
730.09	7072.3	
730.27	6378.7	
730.45	7679.2	
730.63	7987.8	
730.81	6695.5	
730.99	6272.2	
731.17	8421.9	
731.35	7554.3	
731.53	6453.8	
731.71	6278.4	
731.9	8200.1	
732.08	8153.6	
732.26	6457.2	
732.44	6104.3	
732.62	8219.2	
732.8	7869.7	
732.98	6636.1	
733.16	6055.2	
733.34	7989.1	
733.52	7064.1	
733.7	6217	
733.88	6453.8	
734.07	7740	
734.25	7491.5	
734.43	6000.5	
734.61	6823.1	
734.79	8593.3	
734.97	7530.4	
735.15	6017.6	
735.33	6206	
735.51	7704.5	
735.69	7496.2	
735.87	6805.4	
736.05	6239.5	
736.23	7560.4	
736.41	7303.1	
736.59	6127.5	
736.77	6184.2	
736.95	7849.9	
737.13	7437.5	
737.32	5950	
737.5	6008.1	
737.68	8188.5	
737.86	7385.7	
738.04	5819	
738.22	6785.6	
738.4	7169.3	
738.58	7439.6	
738.76	6088.6	
738.94	5466	
739.12	7221.8	
739.3	7230.7	
739.48	6503.7	
739.66	6352.1	
739.84	7378.1	
740.02	7369.3	
740.2	5528.8	
740.38	5706.3	
740.56	7589.1	
740.74	6715.3	
740.92	6116.6	
741.1	5898.8	
741.28	7167.2	
741.46	6966.5	
741.64	5746.6	
741.82	6049	
742	7115.3	
742.18	7088	
742.36	5844.2	
742.54	5576.6	
742.72	7520.1	
742.9	6593.8	
743.08	6029.2	
743.26	5251	
743.44	7352.9	
743.62	7361.8	
743.8	6008.1	
743.98	5438	
744.16	7141.9	
744.34	6975.4	
744.52	5919.3	
744.7	5801.9	
744.88	7223.2	
745.06	6881.9	
745.24	5930.2	
745.42	5840.1	
745.6	7326.9	
745.78	7090.8	
745.96	5122	
746.14	5287.9	
746.32	7626	
746.5	6958.3	
746.68	5448.3	
746.86	5235.3	
747.03	7209.5	
747.21	6333	
747.39	5463.3	
747.57	5107.6	
747.75	6731	
747.93	6980.8	
748.11	5121.3	
748.29	5139.7	
748.47	7715.4	
748.65	6593.8	
748.83	5543.2	
749.01	5369.1	
749.19	6847	
749.37	6260.6	
749.55	5264	
749.73	5316.5	
749.91	6767.9	
750.09	6517.3	
750.26	5239.4	
750.44	4970.4	
750.62	6561	
750.8	6501.6	
750.98	4936.3	
751.16	5046.9	
751.34	6673.6	
751.52	6152.8	
751.7	5464.7	
751.88	4823	
752.06	6929	
752.24	6716.7	
752.42	4743.8	
752.59	5023	
752.77	6461.3	
752.95	7280.5	
753.13	5377.3	
753.31	4995.7	
753.49	6253.1	
753.67	6516	
753.85	5189.6	
754.03	4840	
754.21	6637.5	
754.38	6819.1	
754.56	4788.8	
754.74	4263.9	
754.92	6008.7	
755.1	6336.4	
755.28	4110.3	
755.46	3994.2	
755.64	6580.1	
755.82	6475	
755.99	3854.3	
756.17	3830.4	
756.35	4663.2	
756.53	5455.8	
756.71	2939.5	
756.89	3720.5	
757.07	5174.5	
757.25	4790.2	
757.42	3891.1	
757.6	4395.6	
757.78	5440.8	
757.96	4941.7	
758.14	3870	
758.32	3581.2	
758.5	4618.9	
758.67	5301.5	
758.85	3710.9	
759.03	3736.9	
759.21	5193	
759.39	4793.6	
759.57	3474.7	
759.75	4059.8	
759.92	5637.4	
760.1	5318.6	
760.28	4424.3	
760.46	4561.5	
760.64	5233.9	
760.82	5111.7	
760.99	4396.3	
761.17	3910.3	
761.35	5705	
761.53	5075.5	
761.71	4075.5	
761.89	4440	
762.06	5722.7	
762.24	5433.3	
762.42	4160.8	
762.6	4093.9	
762.78	5433.9	
762.96	5850.4	
763.13	4571.7	
763.31	4293.9	
763.49	5872.9	
763.67	5467.4	
763.85	4789.5	
764.02	5042.8	
764.2	6165.8	
764.38	5563.6	
764.56	4190.1	
764.74	4673.5	
764.91	6199.9	
765.09	5462.6	
765.27	4084.3	
765.45	3863.2	
765.63	6296.1	
765.8	6090.7	
765.98	3816	
766.16	3902.1	
766.34	5164.3	
766.52	5058.5	
766.69	4416.8	
766.87	3788.1	
767.05	5511.1	
767.23	5873.6	
767.41	3936.9	
767.58	4035.9	
767.76	5728.2	
767.94	5792.3	
768.12	3953.3	
768.29	4335.5	
768.47	5320.6	
768.65	5831.9	
768.83	3683.6	
769	4355.3	
769.18	5115.1	
769.36	5437.4	
769.54	4292.5	
769.72	3664.5	
769.89	5719.3	
770.07	5618.3	
770.25	3925.3	
770.43	4603.2	
770.6	6107	
770.78	6247	
770.96	3980.6	
771.14	4282.3	
771.31	5634	
771.49	5186.8	
771.67	3474	
771.85	3536.8	
772.02	4728.1	
772.2	5102.9	
772.38	3996.3	
772.55	3665.2	
772.73	5348.6	
772.91	5139	
773.09	3876.1	
773.26	3898.6	
773.44	5279	
773.62	5139.7	
773.8	3538.9	
773.97	3386	
774.15	5274.9	
774.33	5029.8	
774.5	3503.4	
774.68	3663.1	
774.86	5300.8	
775.04	5028.4	
775.21	3439.9	
775.39	3411.9	
775.57	5208.7	
775.74	5262.6	
775.92	3409.9	
776.1	3223.5	
776.27	5083.7	
776.45	5849	
776.63	3424.9	
776.81	3256.3	
776.98	4905.6	
777.16	5474.2	
777.34	3461.7	
777.51	3699.3	
777.69	4911	
777.87	4704.9	
778.04	3566.9	
778.22	3809.9	
778.4	4735.6	
778.57	5087.2	
778.75	3056.9	
778.93	3224.2	
779.1	4642.1	
779.28	4448.9	
779.46	3032.4	
779.64	3289.7	
779.81	5104.9	
779.99	5640.1	
780.17	3731.4	
780.34	3826.3	
780.52	4885.1	
780.69	4916.5	
780.87	3531.4	
781.05	3243.3	
781.22	4900.8	
781.4	4889.2	
781.58	3330	
781.75	2719.7	
781.93	4833.9	
782.11	4414.1	
782.28	3810.6	
782.46	3248.8	
782.64	4358.1	
782.81	5012.1	
782.99	3327.9	
783.17	3246	
783.34	4819.6	
783.52	4486.4	
783.69	3366.9	
783.87	3848.1	
784.05	4498.7	
784.22	4432.5	
784.4	3863.8	
784.58	3409.9	
784.75	5023	
784.93	4599.1	
785.1	3153.2	
785.28	3622.9	
785.46	4875.5	
785.63	4429.1	
785.81	3191.4	
785.99	3059	
786.16	4601.1	
786.34	4711.7	
786.51	3077.4	
786.69	3385.3	
786.87	4200.4	
787.04	4512.4	
787.22	3041.2	
787.39	3538.9	
787.57	4450.2	
787.75	4976.6	
787.92	3672.7	
788.1	3579.8	
788.27	4344.4	
788.45	4146.5	
788.63	3476.8	
788.8	2698.5	
788.98	4680.3	
789.15	4115.7	
789.33	2776.4	
789.5	3160	
789.68	4874.8	
789.86	4973.8	
790.03	3402.4	
790.21	3038.5	
790.38	5003.9	
790.56	4468	
790.73	3016	
790.91	2949.8	
791.09	4349.9	
791.26	4728.1	
791.44	3169.6	
791.61	2831.7	
791.79	4355.3	
791.96	4298	
792.14	2879.4	
792.32	2643.2	
792.49	4308.2	
792.67	4459.1	
792.84	2925.9	
793.02	2798.2	
793.19	4618.2	
793.37	5015.5	
793.54	2598.2	
793.72	2831	
793.89	5023	
794.07	4250.2	
794.25	3161.4	
794.42	2637.8	
794.6	4977.2	
794.77	4645.5	
794.95	3299.3	
795.12	2922.5	
795.3	4326.7	
795.47	4597	
795.65	3222.8	
795.82	3067.9	
796	4186.7	
796.17	5202.5	
796.35	3028.3	
796.52	3505.4	
796.7	4620.2	
796.87	4676.2	
797.05	2975.7	
797.22	3482.2	
797.4	4673.5	
797.57	5251.7	
797.75	3110.9	
797.92	2941.6	
798.1	4898.1	
798.27	4102.8	
798.45	2627.5	
798.62	2800.9	
798.8	4477.5	
798.97	4759.5	
799.15	3202.3	
799.32	3085.6	
799.5	3991.5	
799.67	4453.6	
799.85	3323.9	
800.02	2603.7	
800.2	4287.8	
800.37	4319.2	
800.55	3349.1	
800.72	2940.9	
800.9	4762.2	
801.07	4971.8	
801.25	3709.6	
801.42	3152.5	
801.6	4801.1	
801.77	4417.5	
801.95	2975.7	
802.12	2883.5	
802.29	4591.5	
802.47	4525.3	
802.64	3187.3	
802.82	2565.4	
802.99	4224.3	
803.17	4744.5	
803.34	3019.4	
803.52	2839.2	
803.69	5205.9	
803.87	4063.9	
804.04	3046	
804.21	3091.8	
804.39	4935.6	
804.56	4274.1	
804.74	2678.7	
804.91	3142.9	
805.09	4244.1	
805.26	4271.4	
805.44	2733.4	
805.61	2956.6	
805.78	4706.9	
805.96	4652.3	
806.13	3119.1	
806.31	3289.7	
806.48	3946.4	
806.66	4241.3	
806.83	3175	
807	3041.2	
807.18	4235.2	
807.35	4397.7	
807.53	3045.3	
807.7	2597.5	
807.87	4913.1	
808.05	4227	
808.22	3203.7	
808.4	2581.1	
808.57	4123.2	
808.74	3960.1	
808.92	2827.6	
809.09	3435.1	
809.27	4280.3	
809.44	4461.8	
809.61	2549.7	
809.79	2769.5	
809.96	5044.8	
810.14	4558.8	
810.31	2577.7	
810.48	3237.2	
810.66	4229.1	
810.83	4614.8	
811.01	2816	
811.18	3020.1	
811.35	4645.5	
811.53	3809.2	
811.7	3317.7	
811.87	3045.3	
812.05	4287.8	
812.22	4192.9	
812.39	2762.7	
812.57	2691.7	
812.74	4243.4	
812.92	5173.9	
813.09	2983.9	
813.26	3075.4	
813.44	5009.3	
813.61	4074.8	
813.78	2542.9	
813.96	3156.6	
814.13	4228.4	
814.3	4085	
814.48	3369.6	
814.65	2856.2	
814.82	5009.3	
815	3977.2	
815.17	2959.3	
815.34	3463.8	
815.52	4115.1	
815.69	4119.1	
815.87	2925.9	
816.04	2913.6	
816.21	4132.8	
816.38	3899.3	
816.56	2934.1	
816.73	2729.9	
816.9	5060.5	
817.08	4601.1	
817.25	2775.7	
817.42	3244.7	
817.6	3934.1	
817.77	4108.2	
817.94	2991.4	
818.12	2723.8	
818.29	4046.8	
818.46	5585.5	
818.64	2861	
818.81	2676.7	
818.98	4070.7	
819.16	5290.6	
819.33	3209.8	
819.5	2942.9	
819.67	4407.9	
819.85	4782.7	
820.02	2988	
820.19	3084.9	
820.37	4336.9	
820.54	4113.7	
820.71	3037.1	
820.88	3594.2	
821.06	4358.1	
821.23	4045.4	
821.4	2984.6	
821.58	3028.9	
821.75	4610	
821.92	4279.6	
822.09	2594.8	
822.27	2708.1	
822.44	4219.5	
822.61	4116.4	
822.79	2590.7	
822.96	4362.9	
823.13	4377.9	
823.3	3923.2	
823.48	2809.1	
823.65	2635.7	
823.82	4677.6	
823.99	3971.7	
824.17	3463.1	
824.34	2701.3	
824.51	5187.5	
824.68	4216.1	
824.86	2785.9	
825.03	3002.3	
825.2	4237.2	
825.37	4737	
825.55	2740.2	
825.72	2985.3	
825.89	5099.4	
826.06	4876.9	
826.24	2862.4	
826.41	2925.9	
826.58	4869.4	
826.75	4334.9	
826.92	2445.3	
827.1	2575	
827.27	6180.1	
827.44	5068.7	
827.61	2798.9	
827.79	3245.3	
827.96	4102.1	
828.13	4159.4	
828.3	2919	
828.47	2491	
828.65	4481.6	
828.82	4394.3	
828.99	3506.8	
829.16	3082.9	
829.34	4678.2	
829.51	4561.5	
829.68	2903.3	
829.85	2994.1	
830.02	4985.4	
830.2	4704.2	
830.37	2385.2	
830.54	3344.3	
830.71	5130.2	
830.88	4209.9	
831.05	2389.3	
831.23	2727.9	
831.4	4982.7	
831.57	5329.5	
831.74	2792.1	
831.91	2451.4	
832.09	4543.1	
832.26	4665.3	
832.43	2803.7	
832.6	3119.1	
832.77	4452.3	
832.94	4901.5	
833.12	2403	
833.29	2816.6	
833.46	4457.1	
833.63	5433.3	
833.8	2992.8	
833.97	2789.3	
834.15	4664.6	
834.32	4575.2	
834.49	2972.3	
834.66	3000.3	
834.83	4727.4	
835	4097.3	
835.17	2787.3	
835.35	2701.3	
835.52	4575.8	
835.69	4495.3	
835.86	2858.3	
836.03	2454.1	
836.2	4676.2	
836.37	4396.3	
836.55	2757.9	
836.72	2734.7	
836.89	4387.4	
837.06	4728.1	
837.23	2826.2	
837.4	3091.1	
837.57	5158.8	
837.75	5478.3	
837.92	2585.9	
838.09	2729.9	
838.26	4405.2	
838.43	4729.4	
838.6	2957.3	
838.77	2644.6	
838.94	5244.8	
839.11	5174.5	
839.29	2833.7	
839.46	2306.7	
839.63	4702.1	
839.8	4450.9	
839.97	2738.1	
840.14	2737.5	
840.31	4572.4	
840.48	4606.6	
840.65	2392	
840.82	2764.1	
841	4617.5	
841.17	4498.7	
841.34	2528.6	
841.51	2666.5	
841.68	4590.9	
841.85	4390.2	
842.02	2649.4	
842.19	2272.6	
842.36	4472.8	
842.53	4482.3	
842.7	2581.8	
842.87	2974.3	
843.05	5427.8	
843.22	4411.3	
843.39	2476.7	
843.56	2661.7	
843.73	4442	
843.9	4737	
844.07	3855.6	
844.24	3257	
844.41	6049	
844.58	4100.7	
844.75	2519.7	
844.92	2662.4	
845.09	4590.9	
845.26	4603.8	
845.43	2546.3	
845.6	2694.4	
845.77	4626.4	
845.94	4406.5	
846.12	2811.2	
846.29	2822.8	
846.46	4775.9	
846.63	4605.9	
846.8	2549	
846.97	2934.7	
847.14	4870.1	
847.31	4575.2	
847.48	2813.2	
847.65	3066.5	
847.82	4640	
847.99	4668.7	
848.16	3241.9	
848.33	2968.9	
848.5	4281.6	
848.67	4872.8	
848.84	2541.5	
849.01	2597.5	
849.18	4315.8	
849.35	4038.6	
849.52	3119.1	
849.69	2552.5	
849.86	4770.4	
850.03	4810	
850.2	2540.8	
850.37	2978.4	
850.54	4759.5	
850.71	4386.7	
850.88	2970.2	
851.05	2532.7	
851.22	4464.6	
851.39	4917.2	
851.56	2390	
851.73	2853.5	
851.9	4169.7	
852.07	4742.4	
852.24	2753.8	
852.41	2491	
852.58	4548.5	
852.75	4165.6	
852.92	2781.1	
853.09	2522.4	
853.26	4194.9	
853.43	4809.3	
853.6	2579.8	
853.77	2207	
853.94	4926	
854.11	4067.9	
854.28	3479.5	
854.44	2676.7	
854.61	5197.1	
854.78	4744.5	
854.95	2537.4	
855.12	3050.8	
855.29	3865.9	
855.46	5057.8	
855.63	2598.9	
855.8	3267.2	
855.97	4259.1	
856.14	4831.8	
856.31	3372.3	
856.48	2749.7	
856.65	4354	
856.82	4076.1	
856.99	2464.4	
857.16	2747.7	
857.33	5309.7	
857.49	4350.6	
857.66	2681.5	
857.83	2837.1	
858	4425.7	
858.17	4582.7	
858.34	2415.2	
858.51	2587.9	
858.68	4938.3	
858.85	4981.3	
859.02	2895.8	
859.19	2957.3	
859.36	4187.4	
859.52	4165.6	
859.69	2512.2	
859.86	2941.6	
860.03	4146.5	
860.2	4887.8	
860.37	2394.8	
860.54	2581.1	
860.71	4760.8	
860.88	4911.7	
861.05	2745.6	
861.21	3067.9	
861.38	4896	
861.55	4037.2	
861.72	2385.2	
861.89	2763.4	
862.06	4691.9	
862.23	4952.7	
862.4	2484.9	
862.56	2596.1	
862.73	4617.5	
862.9	4457.7	
863.07	2837.8	
863.24	2334.7	
863.41	4179.2	
863.58	4180.6	
863.75	2531.3	
863.91	2904	
864.08	4840	
864.25	4650.9	
864.42	3047.4	
864.59	3379.8	
864.76	5130.8	
864.93	4151.9	
865.09	2456.2	
865.26	2650.1	
865.43	4913.1	
865.6	5097.4	
865.77	2327.9	
865.94	2495.8	
866.1	4866.7	
866.27	4574.5	
866.44	3586.7	
866.61	2482.8	
866.78	4369	
866.95	4661.2	
867.11	2497.2	
867.28	2364.7	
867.45	4822.3	
867.62	4115.1	
867.79	2837.1	
867.96	2482.8	
868.12	3990.8	
868.29	4638	
868.46	2540.8	
868.63	3225.6	
868.8	4767.7	
868.97	4672.8	
869.13	2623.4	
869.3	2676.7	
869.47	4625	
869.64	4760.8	
869.81	2506	
869.97	2532	
870.14	4533.5	
870.31	4911	
870.48	2465.1	
870.65	3119.7	
870.81	4367	
870.98	4329.4	
871.15	2811.2	
871.32	2568.8	
871.48	4609.3	
871.65	4978.6	
871.82	2500.6	
871.99	2734.7	
872.16	5247.6	
872.32	4861.2	
872.49	2605.7	
872.66	2550.4	
872.83	4702.8	
872.99	4239.3	
873.16	2805.7	
873.33	2525.8	
873.5	4445.5	
873.67	4490.5	
873.83	2669.9	
874	3246	
874.17	4521.2	
874.34	5152.7	
874.5	3102.7	
874.67	3067.2	
874.84	4890.5	
875.01	4007.2	
875.17	3308.8	
875.34	2475.3	
875.51	4541.7	
875.68	5302.9	
875.84	2940.2	
876.01	3456.3	
876.18	4654.4	
876.34	4594.3	
876.51	2526.5	
876.68	2487.6	
876.85	4329.4	
877.01	4896.7	
877.18	3420.1	
877.35	2516.3	
877.52	4618.2	
877.68	4113.7	
877.85	2464.4	
878.02	2493.7	
878.18	4285	
878.35	4274.8	
878.52	2130.6	
878.69	2905.4	
878.85	4822.3	
879.02	4614.1	
879.19	3389.4	
879.35	2684.9	
879.52	4724	
879.69	4711	
879.86	2283.5	
880.02	2792.7	
880.19	4444.8	
880.36	5147.9	
880.52	2809.1	
880.69	2887.6	
880.86	4705.5	
881.02	4745.1	
881.19	2722.4	
881.36	2691	
881.52	4683.7	
881.69	4173.1	
881.86	2768.2	
882.02	2656.9	
882.19	4833.9	
882.36	5430.5	
882.52	2573.6	
882.69	3369.6	
882.86	4478.9	
883.02	4512.4	
883.19	2931.3	
883.36	2832.3	
883.52	4717.2	
883.69	5201.2	
883.86	2571.6	
884.02	2355.8	
884.19	4658.4	
884.36	4521.2	
884.52	2779.1	
884.69	2727.2	
884.86	4269.3	
885.02	5038.7	
885.19	2739.5	
885.36	2826.2	
885.52	4362.2	
885.69	4594.3	
885.86	3364.8	
886.02	3126.6	
886.19	4742.4	
886.35	4232.5	
886.52	2768.2	
886.69	3353.2	
886.85	4100	
887.02	4898.1	
887.19	4898.1	
887.35	4898.1	
887.52	4898.1	
887.68	4898.1	
887.85	4898.1	
888.02	4898.1	
888.18	4898.1	
888.35	4898.1	
888.51	4898.1	
888.68	4898.1	
888.85	4898.1	
889.01	4898.1	
889.18	4898.1	
889.35	4898.1	
889.51	4898.1	
889.68	4898.1	
889.84	4898.1	
890.01	4898.1	
890.17	4898.1	
890.34	4898.1	
890.51	4898.1	
890.67	4898.1	
890.84	4898.1	
891	4898.1	
891.17	4898.1	
891.34	4898.1	
891.5	4898.1	
891.67	4898.1	
891.83	4898.1	
892	4898.1	
892.16	4898.1	
892.33	4898.1	
892.5	4898.1	
892.66	4898.1	
892.83	4898.1	
892.99	4898.1	
893.16	4898.1	
893.32	4898.1	
893.49	4898.1	
893.65	4898.1	
893.82	4898.1	
893.99	4898.1	
894.15	4898.1	
894.32	4898.1	
894.48	4898.1	
894.65	4898.1	
894.81	4898.1	
894.98	4898.1	
895.14	4898.1	
895.31	4898.1	
895.47	4898.1	
895.64	4898.1	
895.81	4898.1	
895.97	4898.1	
896.14	4898.1	
896.3	4898.1	
896.47	4898.1	
896.63	4898.1	
896.8	4898.1	
896.96	4898.1	
897.13	4898.1	
897.29	4898.1	
897.46	4898.1	
897.62	4898.1	
897.79	4898.1	
897.95	4898.1	
898.12	4898.1	
898.28	4898.1	
898.45	4898.1	
898.61	4898.1	
898.78	4898.1	
898.94	4898.1	
899.11	4898.1	
899.27	4898.1	
899.44	4898.1	
899.6	4898.1	
899.77	4898.1	
899.93	4898.1	
900.1	4898.1	
900.26	4898.1	
900.43	4898.1	
900.59	4898.1	
900.76	4898.1	
900.92	4898.1	
901.09	4898.1	
901.25	4898.1	
901.42	4898.1	
901.58	4898.1	
901.75	4898.1	
901.91	4898.1	
902.07	4898.1	
902.24	4898.1	
902.4	4898.1	
902.57	4898.1	
902.73	4898.1	
902.9	4898.1	
903.06	4898.1	
903.23	4898.1	
903.39	4898.1	
903.56	4898.1	
903.72	4898.1	
903.88	4898.1	
904.05	4898.1	
904.21	4898.1	
904.38	4898.1	
904.54	4898.1	
904.71	4898.1	
904.87	4898.1	
905.03	4898.1	
905.2	4898.1	
905.36	4898.1	
905.53	4898.1	
905.69	4898.1	
905.86	4898.1	
906.02	4898.1	
906.18	4898.1	
906.35	4898.1	
906.51	4898.1	
906.68	4898.1	
906.84	4898.1	
907.01	4898.1	
907.17	4898.1	
907.33	4898.1	
907.5	4898.1	
907.66	4898.1	
907.83	4898.1	
907.99	4898.1	
908.15	4898.1	
908.32	4898.1	
908.48	4898.1	
908.65	4898.1	
908.81	4898.1	
908.97	4898.1	
909.14	4898.1	
909.3	4898.1	
909.47	4898.1	
909.63	4898.1	
909.79	4898.1	
909.96	4898.1	
910.12	4898.1	
910.28	4898.1	
910.45	4898.1	
910.61	4898.1	
910.78	4898.1	
910.94	4898.1	
911.1	4898.1	
911.27	4898.1	
911.43	4898.1	
911.59	4898.1	
911.76	4898.1	
911.92	4898.1	
912.08	4898.1	
912.25	4898.1	
912.41	4898.1	
912.57	4898.1	
912.74	4898.1	
912.9	4898.1	
913.07	4898.1	
913.23	4898.1	
913.39	4898.1	
913.56	4898.1	
913.72	4898.1	
913.88	4898.1	
914.05	4898.1	
914.21	4898.1	
914.37	4898.1	
914.54	4898.1	
914.7	4898.1	
914.86	4898.1	
915.03	4898.1	
915.19	4898.1	
