Wavelength	Intensities	
nm	a.u.	
179.22	1722.9	
179.44	1717.9	
179.65	1727.8	
179.86	1708	
180.08	1718.2	
180.29	3987.4	
180.51	3062.4	
180.72	5013.4	
180.94	5610.1	
181.15	2766.8	
181.37	2728.6	
181.58	4797.7	
181.79	5031.2	
182.01	2852.8	
182.22	3007.1	
182.44	5057.1	
182.65	4385.4	
182.87	3694.5	
183.08	3255.6	
183.29	5236.7	
183.51	4411.3	
183.72	3009.8	
183.94	4212	
184.15	4798.4	
184.37	4728.8	
184.58	2710.1	
184.79	3524.6	
185.01	4465.3	
185.22	5017.5	
185.44	3744.4	
185.65	3218.7	
185.86	4756.7	
186.08	4374.5	
186.29	2631.6	
186.51	2808.4	
186.72	4527.4	
186.94	5178.6	
187.15	3278.1	
187.36	3269.9	
187.58	6384.9	
187.79	4797.7	
188.01	3430.3	
188.22	5109.7	
188.43	5631.9	
188.65	5003.2	
188.86	2847.4	
189.08	3300	
189.29	4584	
189.5	4560.8	
189.72	3020.8	
189.93	3104.7	
190.15	5154.1	
190.36	5941.8	
190.57	3331.4	
190.79	3235.1	
191	5230.5	
191.22	5199.1	
191.43	3410.6	
191.64	2889	
191.86	5388.2	
192.07	5190.2	
192.29	2947	
192.5	3039.2	
192.71	5221	
192.93	4577.2	
193.14	3040.6	
193.35	3104	
193.57	4554.7	
193.78	5133.6	
194	2491	
194.21	3019.4	
194.42	4453	
194.64	4752	
194.85	3251.5	
195.07	3862.5	
195.28	4760.2	
195.49	4242.7	
195.71	3969	
195.92	2865.8	
196.13	4919.2	
196.35	4995.7	
196.56	4135.5	
196.78	3287	
196.99	5954.1	
197.2	5570.5	
197.42	3661.8	
197.63	3325.2	
197.84	4306.9	
198.06	4939.7	
198.27	3028.9	
198.48	3995.6	
198.7	4532.8	
198.91	4786.1	
199.13	3309.5	
199.34	3310.9	
199.55	5154.1	
199.77	4191.5	
199.98	2937.5	
200.19	3369.6	
200.41	4719.2	
200.62	4435.9	
200.83	3366.2	
201.05	3645.4	
201.26	4719.9	
201.47	4541	
201.69	2988	
201.9	2878.1	
202.11	4773.8	
202.33	5459.9	
202.54	3198.9	
202.76	3441.3	
202.97	4757.4	
203.18	4857.1	
203.4	3410.6	
203.61	3474.7	
203.82	4847.5	
204.04	4528.1	
204.25	3266.5	
204.46	3264.5	
204.68	4809.3	
204.89	5004.6	
205.1	3225.6	
205.32	2803.7	
205.53	5021.6	
205.74	5157.5	
205.96	2467.8	
206.17	3385.3	
206.38	5027.8	
206.6	5124.7	
206.81	3780.6	
207.02	3086.3	
207.24	4962.2	
207.45	5205.3	
207.66	3191.4	
207.88	2809.8	
208.09	4905.6	
208.3	4747.2	
208.52	2964.1	
208.73	3241.3	
208.94	4746.5	
209.15	5268.7	
209.37	3167.5	
209.58	3595.6	
209.79	5191.6	
210.01	4654.4	
210.22	2642.6	
210.43	2685.6	
210.65	4763.6	
210.86	5037.3	
211.07	3128.6	
211.29	2944.3	
211.5	4978.6	
211.71	4689.2	
211.93	2960	
212.14	2951.8	
212.35	4743.1	
212.56	4844.1	
212.78	3333.4	
212.99	2766.1	
213.2	5446.2	
213.42	4633.2	
213.63	3069.9	
213.84	3157.3	
214.06	4278.9	
214.27	4368.3	
214.48	3149.8	
214.69	3343	
214.91	5285.8	
215.12	5288.5	
215.33	3383.2	
215.55	3612.6	
215.76	5684.5	
215.97	5000.5	
216.18	3218	
216.4	3234.4	
216.61	4516.5	
216.82	5144.5	
217.04	2964.8	
217.25	3056.3	
217.46	5262.6	
217.67	5023.7	
217.89	2692.4	
218.1	2771.6	
218.31	4830.5	
218.53	4904.9	
218.74	3095.2	
218.95	3024.2	
219.16	4758.1	
219.38	5424.4	
219.59	2984.6	
219.8	3495.9	
220.01	5799.2	
220.23	4803.2	
220.44	3794.2	
220.65	2938.8	
220.87	4815.5	
221.08	5288.5	
221.29	2761.3	
221.5	3542.3	
221.72	6201.2	
221.93	4527.4	
222.14	3346.4	
222.35	3867.9	
222.57	4800.4	
222.78	5080.3	
222.99	3192.1	
223.2	3365.5	
223.42	4974.5	
223.63	5051.7	
223.84	2493.1	
224.05	2520.4	
224.27	5822.4	
224.48	5394.3	
224.69	3842.7	
224.9	3324.5	
225.12	4889.2	
225.33	4750.6	
225.54	2707.4	
225.75	2970.2	
225.97	4474.1	
226.18	4767.7	
226.39	3165.5	
226.6	3037.8	
226.82	4585.4	
227.03	4394.9	
227.24	3327.3	
227.45	2811.9	
227.67	5058.5	
227.88	5378	
228.09	3717.7	
228.3	3660.4	
228.52	5095.3	
228.73	4717.8	
228.94	3121.8	
229.15	2770.2	
229.36	4766.3	
229.58	4686.4	
229.79	3157.3	
230	3549.8	
230.21	5569.8	
230.43	4818.9	
230.64	3299.3	
230.85	3407.1	
231.06	4978.6	
231.28	5111	
231.49	2813.9	
231.7	3258.3	
231.91	5051.7	
232.12	4754	
232.34	2908.1	
232.55	3227.6	
232.76	5210	
232.97	4864.6	
233.18	3000.3	
233.4	3259	
233.61	4905.6	
233.82	4579.9	
234.03	3108.1	
234.25	3035.1	
234.46	6321.4	
234.67	4816.8	
234.88	3412.6	
235.09	2997.5	
235.31	4917.9	
235.52	4694.6	
235.73	3286.3	
235.94	2846	
236.15	4537.6	
236.37	5644.2	
236.58	2949.8	
236.79	3167.5	
237	4996.4	
237.21	4356	
237.43	3437.2	
237.64	2760.7	
237.85	7830.1	
238.06	4441.4	
238.27	3422.2	
238.48	2867.2	
238.7	5003.2	
238.91	4648.9	
239.12	3160	
239.33	3286.3	
239.54	4500.1	
239.76	4610	
239.97	3153.9	
240.18	3162.1	
240.39	5698.8	
240.6	4906.9	
240.82	3332	
241.03	2772.3	
241.24	4691.9	
241.45	5385.5	
241.66	2927.2	
241.87	3422.2	
242.09	5261.2	
242.3	5617.6	
242.51	3439.2	
242.72	3180.5	
242.93	5085.1	
243.14	4731.5	
243.36	3665.2	
243.57	3942.3	
243.78	5406	
243.99	5028.4	
244.2	3179.1	
244.41	2953.2	
244.63	4420.2	
244.84	4949.9	
245.05	3375.7	
245.26	3164.1	
245.47	5033.2	
245.68	5109	
245.9	4108.2	
246.11	3315	
246.32	4569	
246.53	4891.9	
246.74	4973.2	
246.95	2706.7	
247.16	4461.2	
247.38	4728.8	
247.59	2757.9	
247.8	3207.1	
248.01	4442.7	
248.22	4772.4	
248.43	2971.6	
248.64	3147.7	
248.86	4326.7	
249.07	4561.5	
249.28	2901.3	
249.49	3297.2	
249.7	5150.6	
249.91	5228.5	
250.12	2710.1	
250.34	2772.9	
250.55	4863.2	
250.76	4777.9	
250.97	3304.1	
251.18	3321.8	
251.39	5236.7	
251.6	4872.1	
251.81	3360.7	
252.03	3291.1	
252.24	4578.6	
252.45	5121.3	
252.66	2802.3	
252.87	3437.2	
253.08	4784.1	
253.29	5969.8	
253.5	2867.2	
253.72	3819.5	
253.93	4693.9	
254.14	5502.2	
254.35	3059	
254.56	3152.5	
254.77	4920.6	
254.98	4448.2	
255.19	3085.6	
255.41	3807.9	
255.62	4885.8	
255.83	5272.8	
256.04	3380.5	
256.25	3333.4	
256.46	5648.3	
256.67	4537.6	
256.88	3262.4	
257.09	3616	
257.31	4488.5	
257.52	4528.1	
257.73	4091.2	
257.94	3050.8	
258.15	4629.1	
258.36	4750.6	
258.57	3756	
258.78	2521.7	
258.99	5160.9	
259.2	4644.8	
259.41	3044.6	
259.63	3166.8	
259.84	5397.8	
260.05	5672.9	
260.26	3876.8	
260.47	2997.5	
260.68	5128.1	
260.89	4659.1	
261.1	3605.1	
261.31	2953.9	
261.52	5248.9	
261.73	5462.6	
261.95	3839.3	
262.16	3391.4	
262.37	5229.1	
262.58	5367.7	
262.79	3862.5	
263	3046	
263.21	4787.5	
263.42	4627.7	
263.63	3347.7	
263.84	3154.6	
264.05	5143.1	
264.26	5432.6	
264.47	3729.4	
264.69	3323.9	
264.9	5383.4	
265.11	4887.8	
265.32	2987.3	
265.53	3052.8	
265.74	4872.8	
265.95	4288.4	
266.16	3204.4	
266.37	3511.6	
266.58	4821.6	
266.79	4573.8	
267	3082.2	
267.21	2821.4	
267.42	4392.2	
267.63	4799.1	
267.84	3233.1	
268.06	2762	
268.27	5119.2	
268.48	5264.6	
268.69	3168.9	
268.9	3641.3	
269.11	5296	
269.32	4349.9	
269.53	3197.6	
269.74	3013.2	
269.95	4960.2	
270.16	4280.9	
270.37	3235.1	
270.58	3610.6	
270.79	4641.4	
271	5205.9	
271.21	3403	
271.42	3247.4	
271.63	4929.5	
271.84	4444.1	
272.05	2628.9	
272.26	2859.6	
272.47	4745.8	
272.68	4887.1	
272.89	3115.6	
273.11	3511.6	
273.32	4555.4	
273.53	5453.1	
273.74	3398.3	
273.95	3332	
274.16	5169.1	
274.37	4747.9	
274.58	3461.7	
274.79	2851.5	
275	4907.6	
275.21	5149.3	
275.42	4121.2	
275.63	3521.1	
275.84	5019.6	
276.05	6023.1	
276.26	3312.9	
276.47	3153.2	
276.68	4685.8	
276.89	5507.7	
277.1	3547.1	
277.31	2836.4	
277.52	4868	
277.73	5143.8	
277.94	2805.7	
278.15	3074.7	
278.36	4912.4	
278.57	4512.4	
278.78	3063.1	
278.99	3439.9	
279.2	4584	
279.41	4471.4	
279.62	3941.7	
279.83	2870.6	
280.04	5678.3	
280.25	4419.5	
280.46	3972.4	
280.67	3222.8	
280.88	4474.8	
281.09	5221.6	
281.3	3315	
281.51	4144.4	
281.72	5134.3	
281.93	5131.5	
282.14	3054.9	
282.35	3278.1	
282.56	5169.8	
282.77	5124.7	
282.98	3140.2	
283.19	3768.9	
283.4	6088.6	
283.61	4691.9	
283.82	2903.3	
284.03	3807.9	
284.24	4860.5	
284.45	5188.2	
284.66	3898	
284.87	3685	
285.08	5218.9	
285.29	5306.3	
285.5	2806.4	
285.71	3161.4	
285.92	5199.1	
286.12	5697.4	
286.33	3906.2	
286.54	3138.2	
286.75	5115.8	
286.96	4666	
287.17	2889	
287.38	3763.5	
287.59	4541	
287.8	4492.6	
288.01	3151.1	
288.22	3526.6	
288.43	5040.7	
288.64	4334.2	
288.85	3670.6	
289.06	3516.4	
289.27	5102.2	
289.48	5403.2	
289.69	3867.9	
289.9	3568.2	
290.11	5323.4	
290.32	4595.6	
290.53	3614	
290.74	3449.5	
290.94	5095.3	
291.15	5203.9	
291.36	3024.2	
291.57	3536.2	
291.78	4593.6	
291.99	4279.6	
292.2	2936.8	
292.41	3406.5	
292.62	5160.2	
292.83	5048.9	
293.04	4186	
293.25	3008.5	
293.46	4651.6	
293.67	5158.2	
293.88	3013.9	
294.09	2902	
294.29	4483.7	
294.5	4834.6	
294.71	3225.6	
294.92	3064.4	
295.13	4588.8	
295.34	5585.5	
295.55	2763.4	
295.76	2691	
295.97	5109	
296.18	5584.1	
296.39	2857.6	
296.6	2994.1	
296.81	4829.8	
297.01	5090.6	
297.22	3153.2	
297.43	3027.6	
297.64	4550.6	
297.85	4483	
298.06	2593.4	
298.27	2772.3	
298.48	4725.3	
298.69	4477.5	
298.9	3280.8	
299.11	2942.9	
299.31	4455.7	
299.52	4405.9	
299.73	3442	
299.94	3380.5	
300.15	4829.1	
300.36	4505.5	
300.57	3331.4	
300.78	3366.9	
300.99	4663.2	
301.2	4873.5	
301.4	3005.1	
301.61	3244	
301.82	5018.2	
302.03	5072.1	
302.24	3548.4	
302.45	2897.2	
302.66	4943.1	
302.87	5190.2	
303.08	3055.6	
303.29	3999	
303.49	4600.4	
303.7	4769.7	
303.91	2770.2	
304.12	3803.8	
304.33	4379.9	
304.54	4831.2	
304.75	3024.2	
304.96	2906.8	
305.16	5053.7	
305.37	5541.1	
305.58	2695.1	
305.79	2751.1	
306	4966.3	
306.21	4311	
306.42	3006.4	
306.63	4431.1	
306.83	4657.1	
307.04	5095.3	
307.25	3245.3	
307.46	3250.1	
307.67	4222.9	
307.88	4992.3	
308.09	3024.2	
308.29	3103.4	
308.5	4824.3	
308.71	5159.5	
308.92	3234.4	
309.13	2918.4	
309.34	4717.8	
309.55	4699.4	
309.75	3711.6	
309.96	3434.4	
310.17	5045.5	
310.38	4485.1	
310.59	3519.1	
310.8	3351.2	
311.01	5132.9	
311.21	4728.1	
311.42	2884.9	
311.63	2962	
311.84	4603.2	
312.05	4792.9	
312.26	3369.6	
312.46	3566.9	
312.67	4642.7	
312.88	4381.3	
313.09	2908.8	
313.3	2887	
313.51	5371.1	
313.71	5575.3	
313.92	2923.8	
314.13	3102.7	
314.34	4904.9	
314.55	4724.7	
314.76	3631.7	
314.96	3259.7	
315.17	4876.2	
315.38	5059.8	
315.59	3001.6	
315.8	2802.3	
316.01	5317.9	
316.21	5494	
316.42	2912.9	
316.63	3219.4	
316.84	4650.9	
317.05	5223.7	
317.26	3433.8	
317.46	3147.7	
317.67	4801.1	
317.88	5095.3	
318.09	3648.1	
318.3	2745	
318.5	4589.5	
318.71	4968.4	
318.92	4498.7	
319.13	3410.6	
319.34	5204.6	
319.54	5270.8	
319.75	2768.9	
319.96	2645.3	
320.17	5004.6	
320.38	5118.6	
320.58	2676	
320.79	3198.2	
321	5253.7	
321.21	5264	
321.42	3255.6	
321.62	2699.2	
321.83	4549.9	
322.04	4775.2	
322.25	3132.7	
322.46	2947	
322.66	4856.4	
322.87	4960.2	
323.08	3516.4	
323.29	2859.6	
323.5	5591.6	
323.7	4412	
323.91	3893.9	
324.12	3488.4	
324.33	4840.7	
324.53	5029.8	
324.74	3427.6	
324.95	3493.8	
325.16	4335.5	
325.37	4633.2	
325.57	2950.4	
325.78	2986.6	
325.99	4840	
326.2	4372.4	
326.4	4096.6	
326.61	2745.6	
326.82	4734.9	
327.03	4809.3	
327.24	4069.3	
327.44	3787.4	
327.65	4975.9	
327.86	4143	
328.07	3339.6	
328.27	2849.4	
328.48	5261.2	
328.69	4444.1	
328.9	4080.9	
329.1	3080.1	
329.31	4648.9	
329.52	5350.7	
329.73	2957.3	
329.93	3222.1	
330.14	4807.9	
330.35	4883.7	
330.56	4585.4	
330.76	3463.1	
330.97	4624.3	
331.18	4903.5	
331.39	3216.7	
331.59	2685.6	
331.8	5201.2	
332.01	5298.1	
332.22	3007.1	
332.42	3411.2	
332.63	4874.8	
332.84	4461.8	
333.05	3236.5	
333.25	2981.8	
333.46	4517.8	
333.67	4790.2	
333.88	3113.6	
334.08	3319.1	
334.29	6205.3	
334.5	5228.5	
334.7	2858.3	
334.91	4011.3	
335.12	4420.2	
335.33	5040.1	
335.53	3207.8	
335.74	4553.3	
335.95	4648.2	
336.16	4514.4	
336.36	3201.7	
336.57	3670.6	
336.78	4412.7	
336.98	5175.9	
337.19	3850.2	
337.4	3188	
337.61	5646.2	
337.81	4377.2	
338.02	3015.3	
338.23	3799	
338.43	5307.7	
338.64	4490.5	
338.85	2989.4	
339.05	3781.9	
339.26	5461.9	
339.47	4302.1	
339.68	2961.4	
339.88	4205.8	
340.09	4972.5	
340.3	5153.4	
340.5	3405.8	
340.71	2682.8	
340.92	4416.8	
341.13	5301.5	
341.33	2823.5	
341.54	3343	
341.75	4973.8	
341.95	4627	
342.16	3257	
342.37	3543	
342.57	4433.9	
342.78	4766.3	
342.99	3524.6	
343.19	2678.7	
343.4	5037.3	
343.61	4916.5	
343.81	3093.8	
344.02	2876.7	
344.23	5027.8	
344.43	5335	
344.64	3609.9	
344.85	3482.2	
345.06	4951.3	
345.26	5214.8	
345.47	3420.1	
345.68	3900	
345.88	4321.9	
346.09	5119.9	
346.3	3405.1	
346.5	2610.5	
346.71	4705.5	
346.92	4529.4	
347.12	2801.6	
347.33	3362.8	
347.54	5153.4	
347.74	5448.3	
347.95	3327.9	
348.16	2614.6	
348.36	4623.6	
348.57	4458.4	
348.78	3373	
348.98	3571.7	
349.19	4719.2	
349.39	4291.2	
349.6	2732.7	
349.81	2979.1	
350.01	4993.6	
350.22	4526.7	
350.43	3321.1	
350.63	3856.3	
350.84	4752.7	
351.05	4570.4	
351.25	2938.8	
351.46	2723.1	
351.67	5119.9	
351.87	4490.5	
352.08	3167.5	
352.29	3486.3	
352.49	5057.8	
352.7	4811.4	
352.9	2901.3	
353.11	3555.3	
353.32	5608.7	
353.52	4571.7	
353.73	2850.1	
353.94	3533.4	
354.14	4969.7	
354.35	4792.2	
354.55	2952.5	
354.76	3280.2	
354.97	4976.6	
355.17	4769.7	
355.38	2839.2	
355.59	3724.6	
355.79	4515.8	
356	4767	
356.2	3248.1	
356.41	2850.8	
356.62	4340.3	
356.82	4686.4	
357.03	3476.1	
357.24	3135.4	
357.44	4519.2	
357.65	4559.5	
357.85	4101.4	
358.06	3316.3	
358.27	4319.8	
358.47	4461.2	
358.68	2796.2	
358.88	3409.9	
359.09	4955.4	
359.3	5165.7	
359.5	3902.1	
359.71	3562.8	
359.91	5532.2	
360.12	4925.4	
360.33	3450.8	
360.53	3814.7	
360.74	4554	
360.94	4578.6	
361.15	3583.9	
361.36	3006.4	
361.56	5164.3	
361.77	4737.6	
361.97	3927.3	
362.18	3210.5	
362.38	5138.4	
362.59	4434.5	
362.8	2969.6	
363	2913.6	
363.21	4290.5	
363.41	4756.7	
363.62	3321.8	
363.83	4076.8	
364.03	4925.4	
364.24	5541.8	
364.44	4248.9	
364.65	4094.6	
364.85	4676.9	
365.06	4462.5	
365.27	3106.1	
365.47	3151.8	
365.68	5418.2	
365.88	4719.2	
366.09	3436.5	
366.29	3140.9	
366.5	4811.4	
366.71	5186.8	
366.91	4117.8	
367.12	3543	
367.32	5672.2	
367.53	5053	
367.73	3536.8	
367.94	4254.3	
368.14	5113.1	
368.35	5672.9	
368.56	3451.5	
368.76	3025.5	
368.97	5197.7	
369.17	6247.7	
369.38	3113.6	
369.58	3323.9	
369.79	4384.7	
369.99	5378	
370.2	4121.9	
370.4	3388	
370.61	4909	
370.82	5865.4	
371.02	3364.1	
371.23	2855.6	
371.43	4383.3	
371.64	5401.9	
371.84	3399.6	
372.05	4189.5	
372.25	6264.7	
372.46	5068	
372.66	3392.1	
372.87	3315.7	
373.07	5119.9	
373.28	6402	
373.48	4158.1	
373.69	3874.8	
373.9	4827.7	
374.1	4813.4	
374.31	4076.8	
374.51	3747.8	
374.72	5418.9	
374.92	4579.3	
375.13	4222.2	
375.33	3644	
375.54	5029.1	
375.74	4754.7	
375.95	3673.4	
376.15	4556	
376.36	5197.1	
376.56	5104.9	
376.77	3740.3	
376.97	4024.3	
377.18	5994.4	
377.38	5229.8	
377.59	4277.5	
377.79	3407.8	
378	5041.4	
378.2	5361.6	
378.41	3426.3	
378.61	3305.4	
378.82	5429.2	
379.02	4808.6	
379.23	3555.3	
379.43	4305.5	
379.64	5533.6	
379.84	5162.9	
380.05	3443.3	
380.25	3365.5	
380.46	5290.6	
380.66	4965.6	
380.87	4396.3	
381.07	4627	
381.28	5723.4	
381.48	5307	
381.69	3455.6	
381.89	3452.9	
382.1	4502.8	
382.3	5302.9	
382.51	4275.5	
382.71	4881	
382.91	5240.1	
383.12	5601.2	
383.32	3588.7	
383.53	3858.4	
383.73	5136.3	
383.94	5059.8	
384.14	3803.8	
384.35	3118.4	
384.55	4882.4	
384.76	5228.5	
384.96	3717.7	
385.17	3883.6	
385.37	5204.6	
385.58	4661.2	
385.78	3847.5	
385.98	3076.7	
386.19	4861.9	
386.39	5164.3	
386.6	3507.5	
386.8	3614.7	
387.01	5256.5	
387.21	5251	
387.42	4015.4	
387.62	4426.3	
387.83	4821.6	
388.03	5150	
388.23	3730	
388.44	4305.5	
388.64	4547.9	
388.85	4603.8	
389.05	3913.7	
389.26	4386.7	
389.46	6146	
389.67	5575.9	
389.87	3998.3	
390.07	4006.5	
390.28	4959.5	
390.48	4692.6	
390.69	3489.7	
390.89	3682.9	
391.1	4860.5	
391.3	5484.5	
391.5	4498.7	
391.71	5020.3	
391.91	5407.3	
392.12	5991	
392.32	4601.1	
392.53	3951.9	
392.73	4939.7	
392.93	5038.7	
393.14	3723.2	
393.34	4339	
393.55	5322.7	
393.75	4999.8	
393.95	3752.6	
394.16	3614.7	
394.36	4905.6	
394.57	5311.1	
394.77	3371.6	
394.98	3655.6	
395.18	4848.2	
395.38	4896	
395.59	4392.9	
395.79	3577.8	
396	5031.2	
396.2	5354.1	
396.4	4280.3	
396.61	4131.4	
396.81	5443.5	
397.02	4913.8	
397.22	4405.2	
397.42	4475.5	
397.63	5502.2	
397.83	4873.5	
398.04	3628.3	
398.24	3984.7	
398.44	5326.1	
398.65	4588.8	
398.85	3512.9	
399.05	3583.3	
399.26	4964.3	
399.46	6129.6	
399.67	3913	
399.87	3644	
400.07	5224.4	
400.28	5418.2	
400.48	3730	
400.69	4492.6	
400.89	5601.2	
401.09	5954.8	
401.3	3663.1	
401.5	4556.7	
401.7	6107.7	
401.91	6248.4	
402.11	3979.2	
402.32	4094.6	
402.52	5666	
402.72	5562.3	
402.93	4236.6	
403.13	3370.3	
403.33	6214.2	
403.54	5139.7	
403.74	3957.4	
403.94	4631.1	
404.15	5298.8	
404.35	6178	
404.56	3842.7	
404.76	5134.9	
404.96	5635.3	
405.17	5410.1	
405.37	4745.8	
405.57	4242.7	
405.78	5628.5	
405.98	5257.8	
406.18	3883.6	
406.39	4498.7	
406.59	5571.2	
406.79	5271.5	
407	3696.6	
407.2	3772.4	
407.4	5704.3	
407.61	5792.3	
407.81	3871.3	
408.01	5396.4	
408.22	4952	
408.42	6418.3	
408.62	4689.8	
408.83	4342.4	
409.03	5446.2	
409.23	5408.7	
409.44	4443.4	
409.64	4545.1	
409.84	6217	
410.05	6102.9	
410.25	4566.3	
410.45	4278.2	
410.66	5866.7	
410.86	7602.1	
411.06	4741.7	
411.27	4614.1	
411.47	7485.3	
411.67	5934.3	
411.88	4758.1	
412.08	5003.2	
412.28	6359.6	
412.49	6764.4	
412.69	4688.5	
412.89	4624.3	
413.09	6666.1	
413.3	6552.8	
413.5	4802.5	
413.7	4467.3	
413.91	6066.1	
414.11	6731.7	
414.31	4661.9	
414.52	4976.6	
414.72	6392.4	
414.92	6410.1	
415.12	4687.1	
415.33	5061.9	
415.53	6715.3	
415.73	6741.9	
415.94	5306.3	
416.14	4897.4	
416.34	5963.7	
416.55	5773.9	
416.75	5808	
416.95	5410.7	
417.15	6751.5	
417.36	7189.7	
417.56	5932.3	
417.76	5281.7	
417.97	6972	
418.17	6724.8	
418.37	4981.3	
418.57	5038	
418.78	6580.1	
418.98	6322.1	
419.18	5675.6	
419.38	5575.9	
419.59	6300.9	
419.79	6080.4	
419.99	4904.2	
420.2	5187.5	
420.4	6812.9	
420.6	6875	
420.8	4924.7	
421.01	4728.1	
421.21	6653.9	
421.41	6761	
421.61	5149.3	
421.82	4949.3	
422.02	6358.3	
422.22	6980.8	
422.42	5577.3	
422.63	5231.2	
422.83	6337.1	
423.03	7262.1	
423.23	5264.6	
423.44	4408.6	
423.64	6385.6	
423.84	6117.3	
424.04	4838.7	
424.25	4583.4	
424.45	7053.9	
424.65	6958.3	
424.85	4421.6	
425.06	4861.2	
425.26	7086	
425.46	6238.1	
425.66	5227.1	
425.87	5041.4	
426.07	6836.1	
426.27	6685.9	
426.47	5113.8	
426.67	4603.8	
426.88	7052.5	
427.08	6673.6	
427.28	5322.7	
427.48	4535.6	
427.69	5889.3	
427.89	6310.5	
428.09	5284.4	
428.29	4582	
428.5	6840.2	
428.7	6452.5	
428.9	4575.2	
429.1	4919.2	
429.3	6534.4	
429.51	6714.6	
429.71	4820.9	
429.91	5414.8	
430.11	6805.4	
430.31	6935.8	
430.52	4999.1	
430.72	5168.4	
430.92	7098.3	
431.12	6765.1	
431.32	4813.4	
431.53	5117.9	
431.73	5939.1	
431.93	7110.5	
432.13	4713.7	
432.33	4615.4	
432.54	6315.9	
432.74	6506.4	
432.94	4652.3	
433.14	5469.4	
433.34	6881.2	
433.55	6414.2	
433.75	5335	
433.95	6743.3	
434.15	6694.1	
434.35	6373.3	
434.56	4780.6	
434.76	4465.3	
434.96	6594.5	
435.16	6784.2	
435.36	4664.6	
435.56	5614.8	
435.77	6364.4	
435.97	6511.9	
436.17	6105	
436.37	5545.9	
436.57	6354.8	
436.78	6340.5	
436.98	6848.4	
437.18	5965.7	
437.38	6870.3	
437.58	6483.9	
437.78	6083.1	
437.99	5055.1	
438.19	6890.7	
438.39	7439.6	
438.59	5027.8	
438.79	4560.1	
438.99	7387	
439.2	6440.9	
439.4	4762.9	
439.6	4709.6	
439.8	6689.3	
440	7552.2	
440.2	5595.1	
440.4	5642.8	
440.61	7122.2	
440.81	7412.3	
441.01	4948.6	
441.21	5715.9	
441.41	7475.8	
441.61	7159	
441.81	5963	
442.02	6600.6	
442.22	7865.6	
442.42	7214.3	
442.62	5134.3	
442.82	5085.1	
443.02	7568.6	
443.22	6780.8	
443.43	5542.5	
443.63	4937	
443.83	6718	
444.03	6699.6	
444.23	5990.3	
444.43	5701.5	
444.63	6962.4	
444.83	7852.6	
445.04	5266.7	
445.24	6137.1	
445.44	7230	
445.64	7321.5	
445.84	5784.1	
446.04	5807.4	
446.24	6664.1	
446.44	7496.2	
446.65	5145.2	
446.85	5492.7	
447.05	6951.5	
447.25	7443.7	
447.45	5474.9	
447.65	5001.8	
447.85	7035.5	
448.05	6630	
448.25	5852.4	
448.46	5586.9	
448.66	6992.4	
448.86	6687.3	
449.06	5000.5	
449.26	5854.5	
449.46	7212.9	
449.66	6522.8	
449.86	5455.8	
450.06	5437.4	
450.26	6691.4	
450.47	7177.4	
450.67	5621	
450.87	5879	
451.07	7286.7	
451.27	7037.5	
451.47	5188.2	
451.67	5633.3	
451.87	6851.8	
452.07	7749.5	
452.27	5396.4	
452.47	5247.6	
452.67	7119.4	
452.88	7405.5	
453.08	4858.5	
453.28	6391	
453.48	8034.9	
453.68	6961	
453.88	5234.6	
454.08	5510.4	
454.28	7381.6	
454.48	7057.3	
454.68	5877.7	
454.88	6282.5	
455.08	7500.3	
455.28	7240.3	
455.48	5206.6	
455.68	5750	
455.89	7855.3	
456.09	7494.2	
456.29	5520	
456.49	5642.8	
456.69	7780.2	
456.89	7334.5	
457.09	6040.8	
457.29	6234	
457.49	7537.9	
457.69	7522.2	
457.89	5949.3	
458.09	5386.2	
458.29	7445.7	
458.49	7986.4	
458.69	6228.6	
458.89	5812.1	
459.09	8114.1	
459.29	8147.5	
459.49	5866.7	
459.69	6524.1	
459.9	7708.6	
460.1	7369.3	
460.3	5750.7	
460.5	5649.7	
460.7	7692.9	
460.9	7444.4	
461.1	5393.7	
461.3	6275	
461.5	8305.9	
461.7	7934.5	
461.9	5773.9	
462.1	6094.8	
462.3	7559.1	
462.5	8068.3	
462.7	5843.5	
462.9	5965.1	
463.1	8812.4	
463.3	8620.6	
463.5	6090	
463.7	6819.1	
463.9	7873.1	
464.1	8132.5	
464.3	6370.5	
464.5	6481.8	
464.7	8349.6	
464.9	8109.3	
465.1	7458	
465.3	6750.8	
465.5	8615.8	
465.7	8679.3	
465.9	7074.4	
466.1	6781.5	
466.3	8530.5	
466.5	8265.6	
466.7	7545.4	
466.9	6828.6	
467.1	8491.6	
467.3	9131.2	
467.5	7499	
467.7	6683.9	
467.9	9317.6	
468.1	9914.2	
468.3	7236.8	
468.5	7637.6	
468.7	8425.3	
468.9	8407.6	
469.1	6907.1	
469.3	7535.8	
469.5	9955.2	
469.7	8169.3	
469.9	7353.6	
470.1	6819.7	
470.3	8640.4	
470.5	8549.6	
470.7	7722.2	
470.9	6814.3	
471.1	8338	
471.3	8657.4	
471.5	6736.5	
471.69	8039.6	
471.89	8293.6	
472.09	7783.6	
472.29	7365.9	
472.49	7525.6	
472.69	8032.1	
472.89	8538.7	
473.09	6653.2	
473.29	6667.5	
473.49	8161.8	
473.69	8188.5	
473.89	7382.9	
474.09	6762.4	
474.29	9159.9	
474.49	8826.7	
474.69	7342.7	
474.89	7014.3	
475.09	8327	
475.29	8203.5	
475.49	6477	
475.69	6687.3	
475.88	9393.4	
476.08	8486.1	
476.28	6432.7	
476.48	6582.9	
476.68	8876.6	
476.88	8576.9	
477.08	6572.6	
477.28	6772.6	
477.48	8312.7	
477.68	8734.6	
477.88	6458.6	
478.08	6744	
478.28	9056.8	
478.48	8376.2	
478.67	6786.3	
478.87	6269.5	
479.07	8879.3	
479.27	8396.7	
479.47	6946	
479.67	6932.4	
479.87	8770.1	
480.07	9135.3	
480.27	6466.1	
480.47	7561.1	
480.67	8478.6	
480.87	9000.8	
481.06	6630	
481.26	7296.2	
481.46	8566	
481.66	8447.9	
481.86	6986.3	
482.06	7739.3	
482.26	8302.5	
482.46	8943.5	
482.66	6873.7	
482.86	6637.5	
483.05	8604.2	
483.25	8037.6	
483.45	8746.2	
483.65	6985.6	
483.85	8242.4	
484.05	8402.8	
484.25	7305.8	
484.45	7644.4	
484.65	9015.8	
484.84	9128.5	
485.04	6888.7	
485.24	6973.3	
485.44	9369.5	
485.64	8087.4	
485.84	6452.5	
486.04	7460.1	
486.24	8348.2	
486.44	8670.4	
486.63	6495.5	
486.83	7116.7	
487.03	8447.9	
487.23	8477.9	
487.43	6537.8	
487.63	8305.2	
487.83	8640.4	
488.02	9271.8	
488.22	7309.9	
488.42	7816.4	
488.62	9198.8	
488.82	8418.5	
489.02	7056.6	
489.22	7118.7	
489.41	9168.8	
489.61	8988.5	
489.81	6877.1	
490.01	7007.5	
490.21	9144.2	
490.41	9716.9	
490.61	6909.8	
490.8	7010.9	
491	8799.4	
491.2	8272.4	
491.4	7412.3	
491.6	6735.8	
491.8	8764.6	
491.99	8802.2	
492.19	6627.2	
492.39	6926.9	
492.59	9081.4	
492.79	9211.8	
492.99	7595.9	
493.18	6868.9	
493.38	9316.9	
493.58	9815.9	
493.78	7527.7	
493.98	7140.6	
494.18	9124.4	
494.37	8740.7	
494.57	7785	
494.77	7593.2	
494.97	9473.9	
495.17	9711.5	
495.37	7587.7	
495.56	7758.4	
495.76	9799.5	
495.96	9573.6	
496.16	8523.6	
496.36	7716.7	
496.55	9869.2	
496.75	9328.5	
496.95	8069	
497.15	7889.5	
497.35	9802.3	
497.54	9782.5	
497.74	7881.3	
497.94	9200.8	
498.14	10377	
498.34	10227	
498.53	7695.6	
498.73	8124.3	
498.93	9274.6	
499.13	9758.6	
499.33	8083.3	
499.52	8276.5	
499.72	9977.7	
499.92	9987.3	
500.12	7899.7	
500.32	8076.5	
500.51	9946.3	
500.71	9861.7	
500.91	8718.2	
501.11	8322.9	
501.31	10019	
501.5	10310	
501.7	8988.5	
501.9	8160.5	
502.1	9916.3	
502.29	10088	
502.49	8544.8	
502.69	8765.3	
502.89	9886.9	
503.09	9986.6	
503.28	7756.3	
503.48	7806.9	
503.68	9462.3	
503.88	9330.5	
504.07	8538	
504.27	8035.5	
504.47	9678	
504.67	9743.6	
504.86	8402.8	
505.06	8102.4	
505.26	9410.4	
505.46	10653	
505.65	8076.5	
505.85	8320.9	
506.05	9426.1	
506.25	9782.5	
506.44	7576.8	
506.64	8197.3	
506.84	9200.2	
507.04	9845.3	
507.23	7659.4	
507.43	8072.4	
507.63	10656	
507.83	9404.3	
508.02	8078.6	
508.22	7767.9	
508.42	10901	
508.62	9346.2	
508.81	7932.5	
509.01	8467.7	
509.21	9172.9	
509.4	9361.3	
509.6	8161.8	
509.8	7720.8	
510	9422.7	
510.19	10441	
510.39	7588.4	
510.59	7662.8	
510.79	9186.5	
510.98	10393	
511.18	7832.1	
511.38	7845.1	
511.57	9910.8	
511.77	9615.2	
511.97	8317.5	
512.17	7651.2	
512.36	9845.3	
512.56	9726.5	
512.76	7622.5	
512.95	7457.3	
513.15	10014	
513.35	8805.6	
513.55	8321.6	
513.74	7550.2	
513.94	9865.1	
514.14	9278	
514.33	8385.7	
514.53	8115.4	
514.73	9389.3	
514.92	9479.4	
515.12	7819.1	
515.32	7643.7	
515.51	9568.1	
515.71	9937.4	
515.91	8861.6	
516.11	7774.8	
516.3	10781	
516.5	9238.4	
516.7	8083.3	
516.89	8553.7	
517.09	9370.1	
517.29	9355.1	
517.48	8282.7	
517.68	7813.7	
517.88	9081.4	
518.07	9577.7	
518.27	8208.9	
518.47	7455.3	
518.66	9940.8	
518.86	8964	
519.06	7411.6	
519.25	7757	
519.45	9241.8	
519.65	10320	
519.84	8274.5	
520.04	8758.5	
520.24	10591	
520.43	9663	
520.63	7983	
520.83	7783.6	
521.02	9183.1	
521.22	9598.8	
521.42	8162.5	
521.61	8464.9	
521.81	9273.2	
522.01	9443.9	
522.2	8098.4	
522.4	7770	
522.6	9757.2	
522.79	8856.1	
522.99	7827.3	
523.18	7378.8	
523.38	9605.7	
523.58	9624.1	
523.77	8881.4	
523.97	7546.1	
524.17	10987	
524.36	10443	
524.56	8540.7	
524.76	8217.1	
524.95	9723.8	
525.15	9539.4	
525.34	8195.3	
525.54	8229.4	
525.74	10210	
525.93	9318.3	
526.13	9181	
526.33	8189.8	
526.52	10301	
526.72	10034	
526.91	9200.8	
527.11	8649.9	
527.31	10293	
527.5	10769	
527.7	8615.1	
527.89	7937.2	
528.09	9671.2	
528.29	10106	
528.48	8965.3	
528.68	8606.2	
528.87	10370	
529.07	10397	
529.27	8684.8	
529.46	8360.5	
529.66	10141	
529.85	10447	
530.05	8169.3	
530.25	8779.6	
530.44	11288	
530.64	10140	
530.83	8548.9	
531.03	8708.6	
531.23	10561	
531.42	10357	
531.62	9252	
531.81	8662.9	
532.01	10639	
532.21	10974	
532.4	8621.3	
532.6	8932.6	
532.79	11336	
532.99	10751	
533.18	8953	
533.38	9725.1	
533.58	10484	
533.77	10968	
533.97	9116.2	
534.16	9639.1	
534.36	11288	
534.55	10495	
534.75	9748.3	
534.95	9129.2	
535.14	11235	
535.34	10455	
535.53	8857.5	
535.73	10300	
535.92	11684	
536.12	10554	
536.31	8859.5	
536.51	9791.3	
536.71	10949	
536.9	10479	
537.1	8925	
537.29	9025.4	
537.49	11126	
537.68	10438	
537.88	9299.8	
538.07	8775.5	
538.27	10622	
538.46	11337	
538.66	8613.8	
538.86	9004.2	
539.05	10726	
539.25	10932	
539.44	9366	
539.64	8974.9	
539.83	10520	
540.03	11273	
540.22	8907.3	
540.42	8841.1	
540.61	10748	
540.81	10856	
541	9225.4	
541.2	9657.5	
541.39	10333	
541.59	10532	
541.78	9468.4	
541.98	8750.3	
542.18	10152	
542.37	10092	
542.57	9060.2	
542.76	9495.1	
542.96	10158	
543.15	10641	
543.35	9069.1	
543.54	8624.7	
543.74	10793	
543.93	10438	
544.13	9007	
544.32	9744.9	
544.52	10669	
544.71	10115	
544.91	8334.6	
545.1	9138	
545.3	10160	
545.49	10608	
545.69	8148.2	
545.88	8648.6	
546.08	11358	
546.27	10937	
546.47	9112.1	
546.66	8609	
546.86	10839	
547.05	11084	
547.24	8688.8	
547.44	8738.7	
547.63	9884.2	
547.83	10787	
548.02	8843.1	
548.22	8944.8	
548.41	9693	
548.61	10775	
548.8	8475.9	
549	8530.5	
549.19	10298	
549.39	10570	
549.58	8284.7	
549.78	8645.2	
549.97	10539	
550.17	10141	
550.36	9191.3	
550.55	9977.7	
550.75	10054	
550.94	10761	
551.14	8383.7	
551.33	8691.6	
551.53	9641.2	
551.72	10385	
551.92	8548.9	
552.11	8339.3	
552.31	10402	
552.5	10340	
552.69	9640.5	
552.89	8198	
553.08	10361	
553.28	10174	
553.47	8499.1	
553.67	9299.1	
553.86	10806	
554.06	9535.3	
554.25	7744.1	
554.44	8168	
554.64	11225	
554.83	10985	
555.03	8137.3	
555.22	8488.8	
555.42	10365	
555.61	10245	
555.8	8310	
556	8446.5	
556.19	9515.5	
556.39	10383	
556.58	8368	
556.78	8327.7	
556.97	10012	
557.16	9909.4	
557.36	9200.2	
557.55	8047.2	
557.75	9280	
557.94	10707	
558.13	8148.2	
558.33	8000	
558.52	10461	
558.72	9600.2	
558.91	8135.9	
559.1	8125.7	
559.3	9380.4	
559.49	9142.1	
559.69	7847.8	
559.88	8502.5	
560.07	9927.2	
560.27	10349	
560.46	8647.9	
560.66	8667.7	
560.85	9865.1	
561.04	9066.4	
561.24	7982.3	
561.43	8028.7	
561.63	9343.5	
561.82	9577	
562.01	9024	
562.21	8369.4	
562.4	9899.9	
562.59	10529	
562.79	8234.2	
562.98	7879.2	
563.18	9843.9	
563.37	10978	
563.56	8585.1	
563.76	8006.2	
563.95	9491	
564.14	9446.6	
564.34	8279.3	
564.53	8000.7	
564.73	9935.4	
564.92	10096	
565.11	8367.3	
565.31	7913.4	
565.5	10399	
565.69	9465	
565.89	8131.1	
566.08	8286.1	
566.27	10302	
566.47	10654	
566.66	8828.8	
566.85	7834.2	
567.05	10114	
567.24	9645.3	
567.44	8103.1	
567.63	9167.4	
567.82	10271	
568.02	10032	
568.21	8169.3	
568.4	8464.9	
568.6	9958.6	
568.79	9952.4	
568.98	8099.7	
569.18	8084	
569.37	9960.6	
569.56	11416	
569.76	8462.9	
569.95	9179.7	
570.14	10313	
570.34	10081	
570.53	8172.8	
570.72	8072.4	
570.91	10723	
571.11	10078	
571.3	8566.7	
571.49	9213.8	
571.69	10059	
571.88	9613.8	
572.07	8872.5	
572.27	8914.8	
572.46	9630.9	
572.65	10424	
572.85	8368	
573.04	8564.6	
573.23	10703	
573.43	10105	
573.62	8111.3	
573.81	8591.2	
574	10169	
574.2	9947.7	
574.39	8436.3	
574.58	8553.7	
574.78	10882	
574.97	10299	
575.16	8785.1	
575.36	9037	
575.55	10623	
575.74	10742	
575.93	8232.2	
576.13	9157.8	
576.32	10147	
576.51	10511	
576.71	8572.1	
576.9	9641.2	
577.09	10845	
577.28	10471	
577.48	8976.2	
577.67	8165.3	
577.86	10212	
578.05	10555	
578.25	8817.2	
578.44	8846.5	
578.63	10331	
578.83	11279	
579.02	8385.1	
579.21	9488.9	
579.4	10375	
579.6	10241	
579.79	8881.4	
579.98	10478	
580.17	10762	
580.37	10915	
580.56	8469.7	
580.75	9075.9	
580.94	11125	
581.14	11005	
581.33	9376.3	
581.52	8565.3	
581.71	10562	
581.91	11093	
582.1	8370.7	
582.29	8732.5	
582.48	10374	
582.68	10309	
582.87	9120.3	
583.06	8877.3	
583.25	10711	
583.45	10337	
583.64	9474.6	
583.83	9944.9	
584.02	10374	
584.21	10709	
584.41	9371.5	
584.6	8888.2	
584.79	10518	
584.98	10944	
585.18	8620.6	
585.37	8355.7	
585.56	10109	
585.75	10649	
585.94	8624.7	
586.14	9123	
586.33	11084	
586.52	10310	
586.71	8959.9	
586.91	8809.7	
587.1	9886.2	
587.29	10728	
587.48	8628.1	
587.67	8615.8	
587.87	10593	
588.06	10518	
588.25	9590	
588.44	9028.8	
588.63	10168	
588.83	10608	
589.02	8538.7	
589.21	8522.3	
589.4	10019	
589.59	9896.5	
589.78	7793.2	
589.98	8060.8	
590.17	9565.4	
590.36	9951.8	
590.55	7508.5	
590.74	8043.1	
590.94	10735	
591.13	9628.9	
591.32	7881.9	
591.51	7469.6	
591.7	9886.2	
591.89	9620.7	
592.09	7576.1	
592.28	7930.4	
592.47	9003.6	
592.66	10482	
592.85	7640.3	
593.05	7767.3	
593.24	9537.4	
593.43	10131	
593.62	7939.3	
593.81	8110	
594	9605.7	
594.19	9725.1	
594.39	7809.6	
594.58	7731.1	
594.77	9826.2	
594.96	10145	
595.15	7707.2	
595.34	8151.6	
595.54	9738.1	
595.73	9116.9	
595.92	7237.5	
596.11	8012.3	
596.3	10166	
596.49	9065.7	
596.68	7886	
596.88	8170	
597.07	9886.9	
597.26	9024.7	
597.45	7496.2	
597.64	8428.8	
597.83	9243.8	
598.02	9759.9	
598.22	7616.4	
598.41	8032.8	
598.6	9586.5	
598.79	9020.6	
598.98	7568.6	
599.17	8270.4	
599.36	9523.1	
599.55	10377	
599.74	9170.8	
599.94	8952.4	
600.13	9985.9	
600.32	8970.1	
600.51	7425.3	
600.7	7508.5	
600.89	10290	
601.08	10358	
601.27	7309.9	
601.47	7955	
601.66	9850.7	
601.85	10185	
602.04	7851.2	
602.23	8003.5	
602.42	9107.3	
602.61	9652.1	
602.8	7712.7	
602.99	7521.5	
603.18	9405.6	
603.37	9544.9	
603.57	8097	
603.76	8413.1	
603.95	10148	
604.14	9799.5	
604.33	7734.5	
604.52	7838.9	
604.71	9648	
604.9	9212.4	
605.09	8303.1	
605.28	8115.4	
605.47	9955.2	
605.66	9669.1	
605.86	8144.8	
606.05	7647.8	
606.24	10004	
606.43	8852	
606.62	7844.4	
606.81	8378.9	
607	9843.2	
607.19	9239.8	
607.38	7389.1	
607.57	7539.3	
607.76	9030.9	
607.95	8594.6	
608.14	7913.4	
608.33	8461.5	
608.52	9114.8	
608.72	9769.5	
608.91	7275.1	
609.1	7331.7	
609.29	9217.9	
609.48	8743.5	
609.67	7907.2	
609.86	7275.1	
610.05	8888.9	
610.24	9106.6	
610.43	7131.7	
610.62	6793.8	
610.81	9936.7	
611	9741.5	
611.19	7224.6	
611.38	7730.4	
611.57	9219.3	
611.76	10194	
611.95	7040.9	
612.14	6880.5	
612.33	9122.3	
612.52	8831.5	
612.71	7540.6	
612.9	6883.2	
613.09	8560.5	
613.28	10142	
613.47	7419.8	
613.66	8046.5	
613.85	9196.7	
614.04	8908	
614.24	7288	
614.43	6765.1	
614.62	9323	
614.81	9187.2	
615	7753.6	
615.19	7763.8	
615.38	8762.6	
615.57	8995.4	
615.76	7565.9	
615.95	8338	
616.14	9376.3	
616.33	9030.2	
616.52	7941.3	
616.71	8053.3	
616.9	9221.3	
617.09	9133.3	
617.28	7399.3	
617.47	8286.1	
617.66	8568	
617.85	8606.2	
618.04	8024.6	
618.22	7568.6	
618.41	8884.1	
618.6	9704	
618.79	7578.8	
618.98	7363.1	
619.17	9759.3	
619.36	8598.1	
619.55	7518.1	
619.74	7445.7	
619.93	9282.1	
620.12	8875.9	
620.31	8062.2	
620.5	8114.1	
620.69	9770.2	
620.88	10052	
621.07	8680	
621.26	7975.5	
621.45	9522.4	
621.64	9564.7	
621.83	8061.5	
622.02	7493.5	
622.21	9587.2	
622.4	9364	
622.59	8480.6	
622.78	8298.4	
622.97	9021.3	
623.16	9740.8	
623.35	8003.5	
623.54	7292.1	
623.72	9176.3	
623.91	9342.2	
624.1	8105.9	
624.29	7202	
624.48	10115	
624.67	9493.7	
624.86	8103.8	
625.05	7435.5	
625.24	10275	
625.43	9069.1	
625.62	9486.2	
625.81	7660.8	
626	9798.8	
626.19	9294.4	
626.38	8104.5	
626.56	7770	
626.75	9207.7	
626.94	9805	
627.13	8233.5	
627.32	7254.6	
627.51	9738.8	
627.7	10496	
627.89	7271	
628.08	8247.2	
628.27	9087.5	
628.46	9308.7	
628.65	7651.9	
628.83	7344.7	
629.02	9561.3	
629.21	9099.1	
629.4	7854.6	
629.59	7959.1	
629.78	9032.2	
629.97	9695.8	
630.16	7996	
630.35	7600	
630.54	10181	
630.72	9871.9	
630.91	7720.8	
631.1	8027.4	
631.29	9492.3	
631.48	9612.5	
631.67	8163.2	
631.86	7745.4	
632.05	9207.7	
632.24	9332.6	
632.42	7536.5	
632.61	8020.5	
632.8	9286.9	
632.99	8986.5	
633.18	7989.8	
633.37	8229.4	
633.56	9550.4	
633.75	9443.9	
633.93	7993.9	
634.12	7795.3	
634.31	10330	
634.5	9921	
634.69	7864.9	
634.88	8098.4	
635.07	9413.1	
635.25	9818.6	
635.44	8486.1	
635.63	8535.9	
635.82	9228.1	
636.01	8687.5	
636.2	8369.4	
636.39	8030.1	
636.57	10197	
636.76	9645.3	
636.95	7628.7	
637.14	8639.7	
637.33	9524.4	
637.52	10241	
637.7	7401.4	
637.89	8228.7	
638.08	9316.9	
638.27	10400	
638.46	8227.4	
638.65	8570.1	
638.83	10291	
639.02	9202.9	
639.21	8205.5	
639.4	8499.8	
639.59	9504.6	
639.78	9191.3	
639.96	7597.3	
640.15	7663.5	
640.34	9444.5	
640.53	9446.6	
640.72	7425.3	
640.91	7603.4	
641.09	8937.3	
641.28	9953.1	
641.47	7632.1	
641.66	8174.8	
641.85	9378.3	
642.03	9536.7	
642.22	8025.3	
642.41	7717.4	
642.6	8976.9	
642.79	8456.7	
642.97	7465.5	
643.16	8001.4	
643.35	8938	
643.54	8716.2	
643.73	7441.6	
643.91	7991.2	
644.1	8681.3	
644.29	9135.3	
644.48	7350.8	
644.67	7506.5	
644.85	8675.2	
645.04	8975.6	
645.23	7093.5	
645.42	7325.6	
645.6	8587.1	
645.79	9377	
645.98	7222.5	
646.17	6423.8	
646.36	8246.5	
646.54	8748.9	
646.73	7832.1	
646.92	6911.9	
647.11	8434.2	
647.29	9194.7	
647.48	6886.6	
647.67	6662.7	
647.86	9395.4	
648.05	9327.1	
648.23	7074.4	
648.42	8002.8	
648.61	8871.8	
648.8	8640.4	
648.98	6743.3	
649.17	6987	
649.36	8356.4	
649.55	7880.6	
649.73	6817	
649.92	7290.8	
650.11	8191.9	
650.3	8434.2	
650.48	6842.3	
650.67	6736.5	
650.86	8626.7	
651.05	7808.2	
651.23	6847.7	
651.42	6838.9	
651.61	8350.3	
651.79	8090.8	
651.98	6972.7	
652.17	6656.6	
652.36	8518.9	
652.54	7847.8	
652.73	6774	
652.92	6553.5	
653.11	8571.4	
653.29	8581.7	
653.48	6192.4	
653.67	6932.4	
653.85	8363.2	
654.04	9179	
654.23	7041.6	
654.42	6629.3	
654.6	7950.2	
654.79	8495.7	
654.98	6253.8	
655.16	6602	
655.35	7615	
655.54	7443	
655.73	6249.7	
655.91	6122.1	
656.1	8245.8	
656.29	7406.8	
656.47	5737.7	
656.66	7115.3	
656.85	7699.7	
657.03	7701	
657.22	6186.2	
657.41	6324.8	
657.59	7830.7	
657.78	7590.5	
657.97	6010.1	
658.16	6589	
658.34	8376.9	
658.53	8619.2	
658.72	7276.4	
658.9	7651.9	
659.09	8009.6	
659.28	7939.3	
659.46	6425.2	
659.65	6303.6	
659.84	7806.2	
660.02	8164.6	
660.21	6435.4	
660.4	6276.3	
660.58	8584.4	
660.77	7940	
660.96	6739.2	
661.14	6052.4	
661.33	8914.8	
661.52	8803.5	
661.7	5950	
661.89	8630.8	
662.08	7727.7	
662.26	7239.6	
662.45	6117.3	
662.64	6258.6	
662.82	8301.1	
663.01	7507.2	
663.2	6245.6	
663.38	6847.7	
663.57	8169.3	
663.75	8003.5	
663.94	6537.1	
664.13	7408.9	
664.31	7692.9	
664.5	8261.5	
664.69	6716	
664.87	7116	
665.06	7537.2	
665.25	7966.6	
665.43	7280.5	
665.62	7238.9	
665.8	8196	
665.99	7743.4	
666.18	6490.7	
666.36	6653.2	
666.55	8222.6	
666.74	8156.4	
666.92	6223.1	
667.11	7428.7	
667.29	7750.9	
667.48	8101.1	
667.67	7006.1	
667.85	6374	
668.04	7712.7	
668.22	7701.7	
668.41	6511.9	
668.6	6736.5	
668.78	7536.5	
668.97	7747.5	
669.15	6733	
669.34	5894.7	
669.53	7613	
669.71	7741.3	
669.9	6020.3	
670.08	6550.1	
670.27	7428	
670.46	8014.4	
670.64	6740.5	
670.83	6935.1	
671.01	7438.9	
671.2	7849.9	
671.38	6235.4	
671.57	6074.3	
671.76	8338.6	
671.94	8772.8	
672.13	5902.9	
672.31	6867.5	
672.5	8185	
672.69	7550.9	
672.87	6149.4	
673.06	6444.3	
673.24	7980.3	
673.43	7535.8	
673.61	6612.2	
673.8	6325.5	
673.98	8049.2	
674.17	8228.1	
674.36	6737.8	
674.54	6625.2	
674.73	7780.2	
674.91	8081.3	
675.1	6335.1	
675.28	6095.4	
675.47	7717.4	
675.65	8064.2	
675.84	6268.8	
676.03	6561	
676.21	7554.3	
676.4	7165.2	
676.58	6898.2	
676.77	6849.8	
676.95	8697.7	
677.14	7487.4	
677.32	6087.9	
677.51	5948.7	
677.69	8116.1	
677.88	7240.3	
678.06	6096.8	
678.25	6144.6	
678.44	7742.7	
678.62	7517.4	
678.81	5935	
678.99	6640.2	
679.18	8315.4	
679.36	7950.9	
679.55	6380.8	
679.73	6753.5	
679.92	7933.1	
680.1	7562.5	
680.29	7287.4	
680.47	6253.1	
680.66	7497.6	
680.84	8082	
681.03	5770.5	
681.21	6574	
681.4	7570	
681.58	7385	
681.77	6162.3	
681.95	6056.5	
682.14	8197.3	
682.32	8379.6	
682.51	6782.2	
682.69	5825.8	
682.88	7436.2	
683.06	7809.6	
683.25	6533.7	
683.43	6915.3	
683.62	7765.9	
683.8	7989.1	
683.99	7014.3	
684.17	6460	
684.36	8579.6	
684.54	7548.8	
684.73	5859.9	
684.91	5920.7	
685.1	7792.5	
685.28	7275.1	
685.46	6335.7	
685.65	6293.4	
685.83	7811	
686.02	7308.5	
686.2	5791.7	
686.39	5811.5	
686.57	6909.8	
686.76	8179.6	
686.94	5758.2	
687.13	5911.1	
687.31	7537.2	
687.5	7346.7	
687.68	5540.4	
687.86	6369.2	
688.05	8662.2	
688.23	6931.7	
688.42	6521.4	
688.6	5895.4	
688.79	7387	
688.97	7266.9	
689.16	6239.5	
689.34	5365	
689.52	7828	
689.71	7947.5	
689.89	6474.3	
690.08	5991.7	
690.26	7533.8	
690.45	7333.8	
690.63	6535.1	
690.81	6097.5	
691	7307.8	
691.18	7294.2	
691.37	6161.7	
691.55	7853.3	
691.74	7253.9	
691.92	8643.1	
692.1	6164.4	
692.29	5732.9	
692.47	7372.7	
692.66	6845	
692.84	5858.6	
693.02	6280.4	
693.21	6880.5	
693.39	7381.6	
693.58	6389.7	
693.76	5871.5	
693.94	8217.1	
694.13	7999.4	
694.31	5942.5	
694.5	6705	
694.68	7155.6	
694.86	7449.8	
695.05	6251.1	
695.23	6325.5	
695.42	7727.7	
695.6	9453.4	
695.78	6724.8	
695.97	5965.1	
696.15	7877.2	
696.34	7247.1	
696.52	5808	
696.7	6434	
696.89	7651.2	
697.07	7078.5	
697.25	6334.4	
697.44	7430	
697.62	7559.1	
697.81	7709.9	
697.99	6062.7	
698.17	6389.7	
698.36	7084.6	
698.54	7539.9	
698.72	6356.9	
698.91	5600.5	
699.09	7237.5	
699.28	7012.9	
699.46	6072.2	
699.64	5940.5	
699.83	7065.5	
700.01	7859.4	
700.19	6566.5	
700.38	5318.6	
700.56	7892.2	
700.74	7073	
700.93	5680.4	
701.11	6279.8	
701.29	7448.5	
701.48	8317.5	
701.66	5833.3	
701.84	5868.8	
702.03	7204.1	
702.21	7808.9	
702.39	5504.3	
702.58	5943.2	
702.76	7586.4	
702.94	7578.2	
703.13	5438.7	
703.31	7417.1	
703.49	7025.2	
703.68	7849.2	
703.86	5696.8	
704.04	6397.2	
704.23	7419.1	
704.41	7637.6	
704.59	5730.2	
704.78	6537.1	
704.96	8587.1	
705.14	7647.1	
705.33	5557.5	
705.51	6199.9	
705.69	7111.2	
705.87	7769.3	
706.06	6422.4	
706.24	5516.5	
706.42	7430.7	
706.61	7602.7	
706.79	6384.2	
706.97	5549.3	
707.16	6987.7	
707.34	7400	
707.52	6305.7	
707.7	5666	
707.89	7021.8	
708.07	6823.8	
708.25	6335.7	
708.44	6402	
708.62	6991.8	
708.8	7884.7	
708.98	6443.6	
709.17	5717.9	
709.35	7230	
709.53	7298.3	
709.72	5478.3	
709.9	5782.8	
710.08	7538.6	
710.26	7434.1	
710.45	6663.4	
710.63	5797.1	
710.81	7185	
710.99	7107.8	
711.18	6136.4	
711.36	5758.2	
711.54	6996.5	
711.72	7496.2	
711.91	5698.8	
712.09	5317.9	
712.27	7087.3	
712.45	7505.1	
712.64	5879	
712.82	5100.1	
713	6543.9	
713.18	6643.6	
713.37	5145.9	
713.55	6092	
713.73	7316	
713.91	6219	
714.1	5303.6	
714.28	4965.6	
714.46	7000	
714.64	6352.8	
714.83	4500.1	
715.01	5079.6	
715.19	6432	
715.37	5795.1	
715.55	4764.3	
715.74	4926.7	
715.92	6961.7	
716.1	5358.2	
716.28	5812.1	
716.47	5025	
716.65	5973.9	
716.83	5969.1	
717.01	4963.6	
717.19	4928.1	
717.38	7465.5	
717.56	5600.5	
717.74	5130.2	
717.92	4387.4	
718.1	6725.5	
718.29	6020.3	
718.47	4101.4	
718.65	4668.7	
718.83	6533.7	
719.01	6501.6	
719.2	4073.4	
719.38	4910.3	
719.56	6292.7	
719.74	7405.5	
719.92	4696.7	
720.11	5423	
720.29	6392.4	
720.47	5741.1	
720.65	4277.5	
720.83	4909	
721.02	5938.4	
721.2	5698.8	
721.38	4913.8	
721.56	4250.9	
721.74	5322.7	
721.92	5404.6	
722.11	5234.6	
722.29	5075.5	
722.47	6425.2	
722.65	5761.6	
722.83	4309.6	
723.01	4975.2	
723.2	5808	
723.38	6059.3	
723.56	3921.9	
723.74	4745.8	
723.92	5446.9	
724.1	6225.1	
724.29	4190.1	
724.47	5098.8	
724.65	5504.3	
724.83	5444.9	
725.01	4176.5	
725.19	4806.6	
725.37	5419.6	
725.56	5355.4	
725.74	4030.4	
725.92	4192.9	
726.1	5431.9	
726.28	5583.4	
726.46	4530.1	
726.64	4306.9	
726.83	5595.1	
727.01	5754.8	
727.19	3992.2	
727.37	4580.6	
727.55	5751.4	
727.73	6117.3	
727.91	3952.6	
728.09	3813.3	
728.28	6089.3	
728.46	6333	
728.64	4656.4	
728.82	4556.7	
729	6859.3	
729.18	6271.6	
729.36	3926.6	
729.54	5694.7	
729.72	7120.1	
729.91	5677	
730.09	5541.1	
730.27	4509.6	
730.45	5716.6	
730.63	6141.2	
730.81	4986.8	
730.99	4246.1	
731.17	6463.4	
731.35	5398.4	
731.53	4619.5	
731.71	4307.6	
731.9	6299.6	
732.08	6457.9	
732.26	4540.3	
732.44	4249.5	
732.62	6481.8	
732.8	6023.1	
732.98	4812	
733.16	4142.4	
733.34	6115.2	
733.52	5050.3	
733.7	4431.1	
733.88	4571.7	
734.07	5949.3	
734.25	5720	
734.43	4024.9	
734.61	5128.8	
734.79	6860.7	
734.97	5599.8	
735.15	4131.4	
735.33	4384	
735.51	5849.7	
735.69	5646.2	
735.87	5128.8	
736.05	4455.7	
736.23	5754.8	
736.41	5481	
736.59	4387.4	
736.77	4462.5	
736.95	6057.9	
737.13	5629.9	
737.32	4050.9	
737.5	4250.2	
737.68	6534.4	
737.86	5435.3	
738.04	3997.6	
738.22	5343.2	
738.4	5380.7	
738.58	5627.8	
738.76	4381.3	
738.94	3599	
739.12	5438	
739.3	5324	
739.48	4883	
739.66	4629.1	
739.84	5677.7	
740.02	5599.1	
740.2	3629	
740.38	3926.6	
740.56	5921.4	
740.74	4982.7	
740.92	4442.7	
741.1	4360.1	
741.28	5468.8	
741.46	5289.9	
741.64	4117.1	
741.82	4491.9	
742	5526.1	
742.18	5391.6	
742.36	4247.5	
742.54	3915.7	
742.72	5906.3	
742.9	4823	
743.08	4506.2	
743.26	3539.6	
743.44	6015.6	
743.62	5904.3	
743.8	4644.8	
743.98	3876.1	
744.16	5689.9	
744.34	5438	
744.52	4477.5	
744.7	4465.9	
744.88	5801.2	
745.06	5404.6	
745.24	4533.5	
745.42	4613.4	
745.6	5882.4	
745.78	5676.3	
745.96	3657	
746.14	3873.4	
746.32	6485.2	
746.5	5840.1	
746.68	4262.5	
746.86	3906.2	
747.03	6068.8	
747.21	4885.1	
747.39	4270.7	
747.57	3889.1	
747.75	5507	
747.93	5750	
748.11	3843.4	
748.29	3763.5	
748.47	6665.5	
748.65	5285.1	
748.83	4417.5	
749.01	4188.1	
749.19	5679	
749.37	4923.3	
749.55	4099.4	
749.73	4173.1	
749.91	5447.6	
750.09	5239.4	
750.26	4167.6	
750.44	3691.1	
750.62	5390.9	
750.8	5314.5	
750.98	3620.8	
751.16	3870.7	
751.34	5468.8	
751.52	4903.5	
751.7	4457.7	
751.88	3603.7	
752.06	5799.2	
752.24	5623	
752.42	3572.3	
752.59	3822.2	
752.77	5410.1	
752.95	6344.6	
753.13	4330.8	
753.31	3958.7	
753.49	5164.3	
753.67	5438	
753.85	4186.7	
754.03	3824.2	
754.21	5700.9	
754.38	5920.7	
754.56	3936.2	
754.74	3182.5	
754.92	5085.8	
755.1	5571.8	
755.28	3226.9	
755.46	3265.1	
755.64	6258.6	
755.82	6330.3	
755.99	3540.3	
756.17	3579.2	
756.35	4417.5	
756.53	5569.8	
756.71	2777.7	
756.89	3481.5	
757.07	5292	
757.25	4569.7	
757.42	3875.4	
757.6	4529.4	
757.78	5300.8	
757.96	4573.8	
758.14	3600.3	
758.32	3302	
758.5	4218.1	
758.67	4889.9	
758.85	3497.9	
759.03	3581.9	
759.21	5046.9	
759.39	4517.1	
759.57	3177.1	
759.75	4012.7	
759.92	5544.5	
760.1	5026.4	
760.28	4323.9	
760.46	4453.6	
760.64	4803.9	
760.82	4631.8	
760.99	4216.1	
761.17	3581.2	
761.35	5355.4	
761.53	4593.6	
761.71	3679.5	
761.89	4165.6	
762.06	5304.9	
762.24	4903.5	
762.42	3728.7	
762.6	3547.1	
762.78	4859.8	
762.96	5342.5	
763.13	4029	
763.31	3734.1	
763.49	5489.2	
763.67	4847.5	
763.85	4308.9	
764.02	4807.3	
764.2	5720.7	
764.38	5025.7	
764.56	3708.2	
764.74	4360.1	
764.91	5823.7	
765.09	4899.4	
765.27	3469.9	
765.45	3204.4	
765.63	5866.7	
765.8	5659.9	
765.98	3030.3	
766.16	3302	
766.34	4618.2	
766.52	4429.8	
766.69	4009.2	
766.87	3211.9	
767.05	4977.9	
767.23	5573.9	
767.41	3486.3	
767.58	3650.2	
767.76	5370.5	
767.94	5404.6	
768.12	3468.6	
768.29	4072	
768.47	5012.1	
768.65	5582.8	
768.83	3201	
769	4051.6	
769.18	4658.4	
769.36	5139.7	
769.54	4050.9	
769.72	3223.5	
769.89	5475.6	
770.07	5496.1	
770.25	3552.5	
770.43	4480.3	
770.6	6102.3	
770.78	6257.9	
770.96	3691.1	
771.14	4070.7	
771.31	5410.7	
771.49	4867.3	
771.67	3020.8	
771.85	3196.9	
772.02	4243.4	
772.2	4891.9	
772.38	3809.2	
772.55	3377.1	
772.73	5175.9	
772.91	4897.4	
773.09	3627	
773.26	3714.3	
773.44	5070.1	
773.62	4845.5	
773.8	3338.9	
773.97	3079.5	
774.15	5112.4	
774.33	4844.1	
774.5	3199.6	
774.68	3474	
774.86	5227.1	
775.04	4861.2	
775.21	3271.3	
775.39	3286.3	
775.57	5056.4	
775.74	5328.1	
775.92	3140.2	
776.1	3099.9	
776.27	5037.3	
776.45	5931.6	
776.63	3296.5	
776.81	2942.2	
776.98	4788.8	
777.16	5543.2	
777.34	3360.7	
777.51	3633.1	
777.69	4807.3	
777.87	4549.9	
778.04	3485	
778.22	3885	
778.4	4610.7	
778.57	5083.7	
778.75	2897.9	
778.93	3126.6	
779.1	4500.8	
779.28	4304.8	
779.46	2882.2	
779.64	3281.5	
779.81	5216.9	
779.99	5860.6	
780.17	3819.5	
780.34	3954.6	
780.52	4824.3	
780.69	4951.3	
780.87	3544.4	
781.05	3235.8	
781.22	4869.4	
781.4	4863.9	
781.58	3310.2	
781.75	2698.5	
781.93	4961.5	
782.11	4360.8	
782.28	4004.5	
782.46	3282.9	
782.64	4294.6	
782.81	5055.8	
782.99	3374.4	
783.17	3329.3	
783.34	4937	
783.52	4402.5	
783.69	3471.3	
783.87	4156.7	
784.05	4449.6	
784.22	4414.7	
784.4	4110.3	
784.58	3543	
784.75	5163.6	
784.93	4554	
785.1	3288.4	
785.28	3802.4	
785.46	4956.1	
785.63	4418.8	
785.81	3323.2	
785.99	3177.8	
786.16	4614.1	
786.34	4842.8	
786.51	3224.9	
786.69	3546.4	
786.87	4205.2	
787.04	4607.9	
787.22	3137.5	
787.39	3826.3	
787.57	4448.9	
787.75	5315.8	
787.92	4016.7	
788.1	3867.9	
788.27	4549.2	
788.45	4250.9	
788.63	3751.9	
788.8	2708.8	
788.98	4870.8	
789.15	4156.7	
789.33	2893.8	
789.5	3253.5	
789.68	5137	
789.86	5240.8	
790.03	3630.4	
790.21	3193.5	
790.38	5197.7	
790.56	4544.4	
790.73	3183.2	
790.91	3080.8	
791.09	4439.3	
791.26	5038.7	
791.44	3300	
791.61	2893.1	
791.79	4482.3	
791.96	4468	
792.14	3001	
792.32	2650.8	
792.49	4450.9	
792.67	4489.8	
792.84	3069.9	
793.02	2843.3	
793.19	4825.7	
793.37	5345.2	
793.54	2629.6	
793.72	2933.4	
793.89	5406.6	
794.07	4423.6	
794.25	3273.3	
794.42	2760	
794.6	5254.4	
794.77	4956.8	
794.95	3612.6	
795.12	3148.4	
795.3	4495.3	
795.47	4905.6	
795.65	3469.9	
795.82	3334.8	
796	4309.6	
796.17	5726.8	
796.35	3218.7	
796.52	3760.1	
796.7	4832.5	
796.87	4909	
797.05	3216	
797.22	3878.9	
797.4	4909.7	
797.57	5659.2	
797.75	3350.5	
797.92	3166.8	
798.1	5172.5	
798.27	4349.9	
798.45	2741.5	
798.62	2977.7	
798.8	4687.1	
798.97	5042.1	
799.15	3506.1	
799.32	3358	
799.5	4114.4	
799.67	4734.9	
799.85	3607.8	
800.02	2707.4	
800.2	4459.8	
800.37	4592.9	
800.55	3710.2	
800.72	3134.8	
800.9	5034.6	
801.07	5315.8	
801.25	4130.1	
801.42	3464.5	
801.6	5033.2	
801.77	4755.4	
801.95	3279.5	
802.12	3099.9	
802.29	4844.1	
802.47	4775.2	
802.64	3506.8	
802.82	2667.8	
802.99	4460.5	
803.17	5157.5	
803.34	3371	
803.52	3039.2	
803.69	5658.5	
803.87	4250.2	
804.04	3331.4	
804.21	3397.6	
804.39	5303.6	
804.56	4552.6	
804.74	2870.6	
804.91	3452.9	
805.09	4491.2	
805.26	4461.8	
805.44	2921.8	
805.61	3196.2	
805.78	4976.6	
805.96	4920.6	
806.13	3433.8	
806.31	3680.2	
806.48	4095.3	
806.66	4482.3	
806.83	3479.5	
807	3337.5	
807.18	4446.8	
807.35	4717.8	
807.53	3320.4	
807.7	2750.4	
807.87	5328.1	
808.05	4445.5	
808.22	3678.2	
808.4	2790	
808.57	4356.7	
808.74	4202.4	
808.92	3119.1	
809.09	3814	
809.27	4422.9	
809.44	4866.7	
809.61	2800.3	
809.79	3066.5	
809.96	5435.3	
810.14	5005.2	
810.31	2713.6	
810.48	3310.2	
810.66	4511.7	
810.83	4991.6	
811.01	3084.9	
811.18	3394.8	
811.35	5014.8	
811.53	4014	
811.7	3682.2	
811.87	3469.3	
812.05	4522.6	
812.22	4411.3	
812.39	3052.2	
812.57	2983.2	
812.74	4465.9	
812.92	5694	
813.09	3226.9	
813.26	3525.2	
813.44	5528.2	
813.61	4411.3	
813.78	2816.6	
813.96	3618.8	
814.13	4498.7	
814.3	4265.9	
814.48	3859.7	
814.65	3229.6	
814.82	5308.3	
815	4207.9	
815.17	3301.3	
815.34	3979.2	
815.52	4378.6	
815.69	4414.1	
815.87	3244	
816.04	3254.2	
816.21	4464.6	
816.38	4077.5	
816.56	3233.1	
816.73	3017.3	
816.9	5469.4	
817.08	5057.8	
817.25	3047.4	
817.42	3709.6	
817.6	4108.2	
817.77	4425.7	
817.94	3424.9	
818.12	3011.9	
818.29	4293.2	
818.46	6224.5	
818.64	3169.6	
818.81	2949.8	
818.98	4248.9	
819.16	5787.6	
819.33	3534.1	
819.5	3347.1	
819.67	4742.4	
819.85	5238.7	
820.02	3302.7	
820.19	3430.3	
820.37	4681.7	
820.54	4420.2	
820.71	3373	
820.88	4133.5	
821.06	4631.1	
821.23	4323.9	
821.4	3435.8	
821.58	3341.6	
821.75	4954	
821.92	4589.5	
822.09	2792.7	
822.27	2895.8	
822.44	4489.8	
822.61	4427.7	
822.79	2803.7	
822.96	5132.9	
823.13	4744.5	
823.3	4224.3	
823.48	3189.4	
823.65	2899.2	
823.82	5042.1	
823.99	4147.1	
824.17	3972.4	
824.34	2933.4	
824.51	5667.4	
824.68	4551.3	
824.86	3016	
825.03	3400.3	
825.2	4466.6	
825.37	5242.8	
825.55	3037.1	
825.72	3343.7	
825.89	5744.6	
826.06	5281.7	
826.24	3250.1	
826.41	3227.6	
826.58	5330.9	
826.75	4690.5	
826.92	2667.8	
827.1	2913.6	
827.27	6983.6	
827.44	5595.7	
827.61	3088.3	
827.79	3700	
827.96	4350.6	
828.13	4501.4	
828.3	3238.5	
828.47	2714.2	
828.65	4735.6	
828.82	4696	
828.99	4019.5	
829.16	3594.9	
829.34	5035.3	
829.51	4829.8	
829.68	3284.9	
829.85	3347.1	
830.02	5245.5	
830.2	5016.8	
830.37	2608.4	
830.54	3926.6	
830.71	5543.9	
830.88	4501.4	
831.05	2633	
831.23	3004.4	
831.4	5375.9	
831.57	5881.1	
831.74	3119.7	
831.91	2795.5	
832.09	4734.2	
832.26	4960.2	
832.43	3158.7	
832.6	3525.9	
832.77	4745.1	
832.94	5266.7	
833.12	2553.1	
833.29	3151.8	
833.46	4351.9	
833.63	6064.7	
833.8	3448.1	
833.97	3207.1	
834.15	5051	
834.32	4801.1	
834.49	3336.1	
834.66	3381.2	
834.83	5065.3	
835	4308.9	
835.17	3063.1	
835.35	3052.8	
835.52	4941.7	
835.69	4845.5	
835.86	3249.4	
836.03	2646	
836.2	4965	
836.37	4705.5	
836.55	3151.8	
836.72	3008.5	
836.89	4638.6	
837.06	5065.3	
837.23	3223.5	
837.4	3466.5	
837.57	5569.8	
837.75	6017.6	
837.92	2929.3	
838.09	3059	
838.26	4648.2	
838.43	5129.5	
838.6	3283.6	
838.77	3054.2	
838.94	5753.4	
839.11	5606	
839.29	3202.3	
839.46	2544.9	
839.63	4972.5	
839.8	4745.1	
839.97	3110.2	
840.14	3097.2	
840.31	4893.3	
840.48	4998.4	
840.65	2626.2	
840.82	3028.3	
841	4975.9	
841.17	4883.7	
841.34	2852.1	
841.51	2979.1	
841.68	4941.7	
841.85	4689.8	
842.02	2981.2	
842.19	2536.8	
842.36	4825.7	
842.53	4766.3	
842.7	2912.9	
842.87	3407.8	
843.05	6068.8	
843.22	4747.2	
843.39	2767.5	
843.56	3010.5	
843.73	4584.7	
843.9	5058.5	
844.07	4427	
844.24	3728	
844.41	6784.9	
844.58	4394.3	
844.75	2766.8	
844.92	3055.6	
845.09	5040.1	
845.26	4950.6	
845.43	2811.2	
845.6	3048.7	
845.77	4995	
845.94	4782.7	
846.12	3112.2	
846.29	3294.5	
846.46	5197.1	
846.63	4904.9	
846.8	2850.8	
846.97	3364.8	
847.14	5313.1	
847.31	4892.6	
847.48	3179.1	
847.65	3470.6	
847.82	5195	
847.99	5112.4	
848.16	3693.9	
848.33	3496.6	
848.5	4627.7	
848.67	5343.8	
848.84	2846.7	
849.01	2982.5	
849.18	4600.4	
849.35	4297.3	
849.52	3485	
849.69	2799.6	
849.86	5134.9	
850.03	5223	
850.2	2831	
850.37	3340.9	
850.54	5221	
850.71	4691.9	
850.88	3370.3	
851.05	2822.8	
851.22	4874.2	
851.39	5362.3	
851.56	2721.1	
851.73	3226.2	
851.9	4429.8	
852.07	5152.7	
852.24	3119.1	
852.41	2795.5	
852.58	4908.3	
852.75	4518.5	
852.92	3211.2	
853.09	2783.9	
853.26	4643.4	
853.43	5252.4	
853.6	2811.2	
853.77	2428.9	
853.94	5332.2	
854.11	4403.1	
854.28	4099.4	
854.44	3059.7	
854.61	5683.8	
854.78	5238.7	
854.95	2865.1	
855.12	3541.6	
855.29	4101.4	
855.46	5542.5	
855.63	2822.8	
855.8	3798.3	
855.97	4619.5	
856.14	5207.3	
856.31	3886.4	
856.48	3067.2	
856.65	4672.1	
856.82	4399	
856.99	2738.1	
857.16	3052.2	
857.33	5865.4	
857.49	4704.2	
857.66	3007.1	
857.83	3240.6	
858	4756.1	
858.17	4858.5	
858.34	2662.4	
858.51	2875.3	
858.68	5424.4	
858.85	5433.9	
859.02	3282.2	
859.19	3411.9	
859.36	4463.2	
859.52	4436.6	
859.69	2862.4	
859.86	3334.1	
860.03	4461.2	
860.2	5394.3	
860.37	2618	
860.54	2887.6	
860.71	5111	
860.88	5362.3	
861.05	3139.5	
861.21	3542.3	
861.38	5389.6	
861.55	4319.8	
861.72	2635.1	
861.89	3151.8	
862.06	5183.4	
862.23	5538.4	
862.4	2767.5	
862.56	2934.7	
862.73	5036	
862.9	4766.3	
863.07	3279.5	
863.24	2633	
863.41	4324.6	
863.58	4416.8	
863.75	2924.5	
863.91	3257	
864.08	5360.2	
864.25	5042.8	
864.42	3542.3	
864.59	3890.5	
864.76	5648.3	
864.93	4424.3	
865.09	2788	
865.26	3002.3	
865.43	5343.2	
865.6	5617.6	
865.77	2543.6	
865.94	2747	
866.1	5318.6	
866.27	5093.3	
866.44	4201.1	
866.61	2762	
866.78	4720.6	
866.95	5017.5	
867.11	2755.9	
867.28	2572.9	
867.45	5223	
867.62	4489.8	
867.79	3202.3	
867.96	2870.6	
868.12	4431.1	
868.29	5115.1	
868.46	2853.5	
868.63	3710.2	
868.8	5213.4	
868.97	5097.4	
869.13	2979.1	
869.3	2950.4	
869.47	4976.6	
869.64	5177.9	
869.81	2824.1	
869.97	2874	
870.14	4892.6	
870.31	5430.5	
870.48	2813.2	
870.65	3563.5	
870.81	4724	
870.98	4742.4	
871.15	3221.5	
871.32	2919.7	
871.48	5004.6	
871.65	5516.5	
871.82	2790.7	
871.99	3132.7	
872.16	5796.4	
872.32	5289.9	
872.49	2961.4	
872.66	2915.6	
872.83	5154.7	
872.99	4574.5	
873.16	3245.3	
873.33	2786.6	
873.5	4816.1	
873.67	4845.5	
873.83	2987.3	
874	3747.8	
874.17	4965	
874.34	5679.7	
874.5	3601.7	
874.67	3453.6	
874.84	5472.2	
875.01	4320.5	
875.17	3905.5	
875.34	2863.1	
875.51	4836.6	
875.68	5793.7	
875.84	3346.4	
876.01	4016.7	
876.18	5154.7	
876.34	5018.9	
876.51	2858.3	
876.68	2807.8	
876.85	4662.5	
877.01	5358.9	
877.18	3937.6	
877.35	2834.4	
877.52	4926	
877.68	4379.2	
877.85	2768.2	
878.02	2817.3	
878.18	4706.2	
878.35	4569	
878.52	2327.2	
878.69	3132	
878.85	5182.7	
879.02	5058.5	
879.19	3964.2	
879.35	3035.8	
879.52	5126.1	
879.69	5186.1	
879.86	2536.1	
880.02	3145	
880.19	4794.3	
880.36	5657.2	
880.52	3202.3	
880.69	3366.9	
880.86	5096.7	
881.02	5229.8	
881.19	3147	
881.36	3104	
881.52	4977.2	
881.69	4567.7	
881.86	3080.8	
882.02	2960.7	
882.19	5307.7	
882.36	6001.9	
882.52	2909.5	
882.69	3893.2	
882.86	4878.3	
883.02	4876.9	
883.19	3378.5	
883.36	3226.2	
883.52	5186.1	
883.69	5788.9	
883.86	2919	
884.02	2635.7	
884.19	5096.7	
884.36	4799.1	
884.52	3190.1	
884.69	3053.5	
884.86	4646.8	
885.02	5514.5	
885.19	3187.3	
885.36	3265.8	
885.52	4742.4	
885.69	4926	
885.86	3967.6	
886.02	3590.1	
886.19	5167	
886.35	4650.9	
886.52	3146.4	
886.69	3824.9	
886.85	4422.9	
887.02	5399.1	
887.19	5399.1	
887.35	5399.1	
887.52	5399.1	
887.68	5399.1	
887.85	5399.1	
888.02	5399.1	
888.18	5399.1	
888.35	5399.1	
888.51	5399.1	
888.68	5399.1	
888.85	5399.1	
889.01	5399.1	
889.18	5399.1	
889.35	5399.1	
889.51	5399.1	
889.68	5399.1	
889.84	5399.1	
890.01	5399.1	
890.17	5399.1	
890.34	5399.1	
890.51	5399.1	
890.67	5399.1	
890.84	5399.1	
891	5399.1	
891.17	5399.1	
891.34	5399.1	
891.5	5399.1	
891.67	5399.1	
891.83	5399.1	
892	5399.1	
892.16	5399.1	
892.33	5399.1	
892.5	5399.1	
892.66	5399.1	
892.83	5399.1	
892.99	5399.1	
893.16	5399.1	
893.32	5399.1	
893.49	5399.1	
893.65	5399.1	
893.82	5399.1	
893.99	5399.1	
894.15	5399.1	
894.32	5399.1	
894.48	5399.1	
894.65	5399.1	
894.81	5399.1	
894.98	5399.1	
895.14	5399.1	
895.31	5399.1	
895.47	5399.1	
895.64	5399.1	
895.81	5399.1	
895.97	5399.1	
896.14	5399.1	
896.3	5399.1	
896.47	5399.1	
896.63	5399.1	
896.8	5399.1	
896.96	5399.1	
897.13	5399.1	
897.29	5399.1	
897.46	5399.1	
897.62	5399.1	
897.79	5399.1	
897.95	5399.1	
898.12	5399.1	
898.28	5399.1	
898.45	5399.1	
898.61	5399.1	
898.78	5399.1	
898.94	5399.1	
899.11	5399.1	
899.27	5399.1	
899.44	5399.1	
899.6	5399.1	
899.77	5399.1	
899.93	5399.1	
900.1	5399.1	
900.26	5399.1	
900.43	5399.1	
900.59	5399.1	
900.76	5399.1	
900.92	5399.1	
901.09	5399.1	
901.25	5399.1	
901.42	5399.1	
901.58	5399.1	
901.75	5399.1	
901.91	5399.1	
902.07	5399.1	
902.24	5399.1	
902.4	5399.1	
902.57	5399.1	
902.73	5399.1	
902.9	5399.1	
903.06	5399.1	
903.23	5399.1	
903.39	5399.1	
903.56	5399.1	
903.72	5399.1	
903.88	5399.1	
904.05	5399.1	
904.21	5399.1	
904.38	5399.1	
904.54	5399.1	
904.71	5399.1	
904.87	5399.1	
905.03	5399.1	
905.2	5399.1	
905.36	5399.1	
905.53	5399.1	
905.69	5399.1	
905.86	5399.1	
906.02	5399.1	
906.18	5399.1	
906.35	5399.1	
906.51	5399.1	
906.68	5399.1	
906.84	5399.1	
907.01	5399.1	
907.17	5399.1	
907.33	5399.1	
907.5	5399.1	
907.66	5399.1	
907.83	5399.1	
907.99	5399.1	
908.15	5399.1	
908.32	5399.1	
908.48	5399.1	
908.65	5399.1	
908.81	5399.1	
908.97	5399.1	
909.14	5399.1	
909.3	5399.1	
909.47	5399.1	
909.63	5399.1	
909.79	5399.1	
909.96	5399.1	
910.12	5399.1	
910.28	5399.1	
910.45	5399.1	
910.61	5399.1	
910.78	5399.1	
910.94	5399.1	
911.1	5399.1	
911.27	5399.1	
911.43	5399.1	
911.59	5399.1	
911.76	5399.1	
911.92	5399.1	
912.08	5399.1	
912.25	5399.1	
912.41	5399.1	
912.57	5399.1	
912.74	5399.1	
912.9	5399.1	
913.07	5399.1	
913.23	5399.1	
913.39	5399.1	
913.56	5399.1	
913.72	5399.1	
913.88	5399.1	
914.05	5399.1	
914.21	5399.1	
914.37	5399.1	
914.54	5399.1	
914.7	5399.1	
914.86	5399.1	
915.03	5399.1	
915.19	5399.1	
