Wavelength	Intensities	
nm	a.u.	
179.22	1598.3	
179.44	1591.6	
179.65	1604.9	
179.86	1578.3	
180.08	1581	
180.29	3465.2	
180.51	2739.5	
180.72	4633.9	
180.94	5043.5	
181.15	2462.3	
181.37	2486.9	
181.58	4470.7	
181.79	4615.4	
182.01	2575	
182.22	2669.2	
182.44	4700.1	
182.65	4089.1	
182.87	3216	
183.08	2877.4	
183.29	4930.1	
183.51	4159.4	
183.72	2684.9	
183.94	3609.2	
184.15	4465.3	
184.37	4319.2	
184.58	2411.1	
184.79	3063.1	
185.01	4231.1	
185.22	4688.5	
185.44	3150.5	
185.65	2869.9	
185.86	4452.3	
186.08	4078.9	
186.29	2446.6	
186.51	2568.8	
186.72	4229.7	
186.94	4724.7	
187.15	2874.7	
187.36	2927.9	
187.58	5789.6	
187.79	4453.6	
188.01	2988	
188.22	4317.1	
188.43	5129.5	
188.65	4595	
188.86	2565.4	
189.08	2919.7	
189.29	4331.5	
189.5	4235.2	
189.72	2706.7	
189.93	2733.4	
190.15	4772.4	
190.36	5371.8	
190.57	2992.1	
190.79	2817.3	
191	4703.5	
191.22	4743.1	
191.43	3013.2	
191.64	2566.8	
191.86	4960.2	
192.07	4767	
192.29	2581.1	
192.5	2693.1	
192.71	4788.8	
192.93	4250.2	
193.14	2674	
193.35	2742.9	
193.57	4258.4	
193.78	4724.7	
194	2301.9	
194.21	2638.5	
194.42	4119.1	
194.64	4442.7	
194.85	2869.9	
195.07	3262.4	
195.28	4368.3	
195.49	3986	
195.71	3418.1	
195.92	2567.5	
196.13	4572.4	
196.35	4534.9	
196.56	3566.2	
196.78	2917	
196.99	5375.2	
197.2	5065.3	
197.42	3207.1	
197.63	2887	
197.84	4087.1	
198.06	4598.4	
198.27	2699.2	
198.48	3371.6	
198.7	4296.6	
198.91	4414.7	
199.13	2922.5	
199.34	2905.4	
199.55	4785.4	
199.77	3891.8	
199.98	2652.1	
200.19	2909.5	
200.41	4354	
200.62	4145.8	
200.83	2977.1	
201.05	3198.9	
201.26	4397.7	
201.47	4270	
201.69	2643.9	
201.9	2611.8	
202.11	4416.1	
202.33	4980.7	
202.54	2768.9	
202.76	3082.9	
202.97	4406.5	
203.18	4544.4	
203.4	3001.6	
203.61	3034.4	
203.82	4469.4	
204.04	4182	
204.25	2957.9	
204.46	2892.4	
204.68	4439.3	
204.89	4571.7	
205.1	2871.3	
205.32	2521	
205.53	4595	
205.74	4764.9	
205.96	2293	
206.17	2903.3	
206.38	4612	
206.6	4673.5	
206.81	3242.6	
207.02	2723.8	
207.24	4571.7	
207.45	4844.8	
207.66	2808.4	
207.88	2511.5	
208.09	4493.9	
208.3	4430.4	
208.52	2631.6	
208.73	2842.6	
208.94	4395.6	
209.15	4830.5	
209.37	2815.3	
209.58	2893.8	
209.79	4765.6	
210.01	4325.3	
210.22	2366.8	
210.43	2478.7	
210.65	4368.3	
210.86	4612	
211.07	2774.3	
211.29	2615.9	
211.5	4571.7	
211.71	4371.7	
211.93	2647.3	
212.14	2628.2	
212.35	4349.9	
212.56	4371.7	
212.78	2982.5	
212.99	2463.7	
213.2	4968.4	
213.42	4304.8	
213.63	2630.3	
213.84	2818.7	
214.06	4063.2	
214.27	4085	
214.48	2746.3	
214.69	2962.7	
214.91	4856.4	
215.12	4827.1	
215.33	2921.1	
215.55	3163.4	
215.76	5140.4	
215.97	4573.1	
216.18	2848	
216.4	2882.9	
216.61	4176.5	
216.82	4686.4	
217.04	2643.2	
217.25	2716.3	
217.46	4769.7	
217.67	4657.8	
217.89	2458.2	
218.1	2499.2	
218.31	4455.7	
218.53	4510.3	
218.74	2798.9	
218.95	2680.1	
219.16	4377.2	
219.38	5001.8	
219.59	2665.8	
219.8	3058.3	
220.01	5283.8	
220.23	4457.1	
220.44	3310.2	
220.65	2590.7	
220.87	4418.8	
221.08	4820.2	
221.29	2521	
221.5	3127.2	
221.72	5473.5	
221.93	4142.4	
222.14	2906.8	
222.35	3371	
222.57	4392.2	
222.78	4647.5	
222.99	2825.5	
223.2	2940.9	
223.42	4567.7	
223.63	4620.2	
223.84	2241.8	
224.05	2276.7	
224.27	5173.2	
224.48	4966.3	
224.69	3325.9	
224.9	2913.6	
225.12	4552.6	
225.33	4377.2	
225.54	2420	
225.75	2691	
225.97	4185.4	
226.18	4376.5	
226.39	2790.7	
226.6	2654.9	
226.82	4261.1	
227.03	4121.2	
227.24	2902	
227.45	2523.8	
227.67	4706.9	
227.88	4915.8	
228.09	3261	
228.3	3196.2	
228.52	4600.4	
228.73	4324.6	
228.94	2727.9	
229.15	2498.5	
229.36	4384	
229.58	4366.3	
229.79	2748.4	
230	3117	
230.21	5098.8	
230.43	4359.4	
230.64	2934.1	
230.85	2944.3	
231.06	4715.1	
231.28	4644.8	
231.49	2471.9	
231.7	2859.6	
231.91	4645.5	
232.12	4394.3	
232.34	2603	
232.55	2827.6	
232.76	4784.1	
232.97	4474.8	
233.18	2654.9	
233.4	2902.7	
233.61	4462.5	
233.82	4263.2	
234.03	2747.7	
234.25	2779.1	
234.46	5621	
234.67	4418.2	
234.88	2988.7	
235.09	2680.8	
235.31	4497.3	
235.52	4288.4	
235.73	2890.4	
235.94	2571.6	
236.15	4278.2	
236.37	5025.7	
236.58	2635.1	
236.79	2839.2	
237	4585.4	
237.21	4080.9	
237.43	3013.9	
237.64	2510.8	
237.85	6852.5	
238.06	4212.7	
238.27	2972.3	
238.48	2510.8	
238.7	4672.1	
238.91	4323.9	
239.12	2733.4	
239.33	2883.5	
239.54	4132.1	
239.76	4371	
239.97	2807.8	
240.18	2858.3	
240.39	5089.9	
240.6	4544.4	
240.82	2938.8	
241.03	2517	
241.24	4398.4	
241.45	4879.6	
241.66	2634.4	
241.87	3004.4	
242.09	4896.7	
242.3	5053.7	
242.51	3029.6	
242.72	2772.3	
242.93	4643.4	
243.14	4351.3	
243.36	3201	
243.57	3374.4	
243.78	4894	
243.99	4550.6	
244.2	2825.5	
244.41	2534	
244.63	4089.8	
244.84	4569	
245.05	2960.7	
245.26	2783.2	
245.47	4663.2	
245.68	4651.6	
245.9	3530	
246.11	2906.8	
246.32	4238.6	
246.53	4595.6	
246.74	4302.8	
246.95	2438.4	
247.16	4212	
247.38	4421.6	
247.59	2503.3	
247.8	2813.9	
248.01	4130.8	
248.22	4403.1	
248.43	2624.8	
248.64	2804.4	
248.86	4098.7	
249.07	4260.5	
249.28	2639.8	
249.49	2938.8	
249.7	4673.5	
249.91	4745.8	
250.12	2442.5	
250.34	2536.1	
250.55	4489.8	
250.76	4460.5	
250.97	2873.3	
251.18	2923.1	
251.39	4752.7	
251.6	4521.9	
251.81	2904.7	
252.03	2897.2	
252.24	4287.8	
252.45	4596.3	
252.66	2552.5	
252.87	3073.3	
253.08	4427	
253.29	5438	
253.5	2563.4	
253.72	3310.9	
253.93	4382	
254.14	4973.8	
254.35	2701.3	
254.56	2751.1	
254.77	4549.2	
254.98	4172.4	
255.19	2730.6	
255.41	3261	
255.62	4534.9	
255.83	4749.9	
256.04	3048.1	
256.25	2887.6	
256.46	5095.3	
256.67	4229.1	
256.88	2877.4	
257.09	3142.3	
257.31	4111	
257.52	4160.1	
257.73	3508.2	
257.94	2712.9	
258.15	4414.1	
258.36	4338.3	
258.57	3295.9	
258.78	2225.5	
258.99	4722.6	
259.2	4260.5	
259.41	2728.6	
259.63	2760	
259.84	4939.7	
260.05	5085.8	
260.26	3349.8	
260.47	2649.4	
260.68	4743.1	
260.89	4313.7	
261.1	3114.3	
261.31	2637.1	
261.52	4891.9	
261.73	4973.2	
261.95	3354.6	
262.16	2995.5	
262.37	4857.1	
262.58	4823.6	
262.79	3287	
263	2721.8	
263.21	4401.1	
263.42	4236.6	
263.63	2964.8	
263.84	2714.2	
264.05	4683.7	
264.26	4928.1	
264.47	3302	
264.69	3001	
264.9	4927.4	
265.11	4481	
265.32	2665.1	
265.53	2661	
265.74	4503.5	
265.95	3951.2	
266.16	2875.3	
266.37	3125.2	
266.58	4461.2	
266.79	4254.3	
267	2661	
267.21	2533.3	
267.42	4090.5	
267.63	4357.4	
267.84	2797.5	
268.06	2495.8	
268.27	4696.7	
268.48	4784.1	
268.69	2739.5	
268.9	3141.6	
269.11	4771.1	
269.32	3988.1	
269.53	2798.9	
269.74	2632.3	
269.95	4539.7	
270.16	4024.9	
270.37	2845.3	
270.58	3175.7	
270.79	4339	
271	4772.4	
271.21	2937.5	
271.42	2865.8	
271.63	4615.4	
271.84	4065.9	
272.05	2372.2	
272.26	2571.6	
272.47	4420.2	
272.68	4491.9	
272.89	2799.6	
273.11	2998.2	
273.32	4236.6	
273.53	4902.8	
273.74	3013.9	
273.95	3044	
274.16	4682.3	
274.37	4377.2	
274.58	3099.3	
274.79	2554.5	
275	4588.8	
275.21	4742.4	
275.42	3556	
275.63	3068.5	
275.84	4633.9	
276.05	5440.1	
276.26	2923.8	
276.47	2736.1	
276.68	4364.9	
276.89	5002.5	
277.1	3112.2	
277.31	2507.4	
277.52	4590.2	
277.73	4814.8	
277.94	2506	
278.15	2742.9	
278.36	4578.6	
278.57	4189.5	
278.78	2732	
278.99	2985.3	
279.2	4289.8	
279.41	4123.2	
279.62	3431.7	
279.83	2577.7	
280.04	5212.8	
280.25	4106.2	
280.46	3400.3	
280.67	2798.2	
280.88	4205.8	
281.09	4780	
281.3	2905.4	
281.51	3529.3	
281.72	4289.1	
281.93	4677.6	
282.14	2743.6	
282.35	2880.1	
282.56	4745.8	
282.77	4663.2	
282.98	2788	
283.19	3234.4	
283.4	5465.3	
283.61	4345.8	
283.82	2636.4	
284.03	3355.3	
284.24	4590.2	
284.45	4699.4	
284.66	3388	
284.87	3220.1	
285.08	4773.8	
285.29	4868	
285.5	2555.9	
285.71	2774.3	
285.92	4756.7	
286.12	5175.2	
286.33	3383.9	
286.54	2831.7	
286.75	4692.6	
286.96	4371.7	
287.17	2643.2	
287.38	3220.1	
287.59	4302.1	
287.8	4235.9	
288.01	2732.7	
288.22	3043.3	
288.43	4576.5	
288.64	4014	
288.85	3227.6	
289.06	3037.1	
289.27	4709.6	
289.48	4869.4	
289.69	3405.8	
289.9	3134.1	
290.11	4810	
290.32	4252.3	
290.53	3201.7	
290.74	2975.7	
290.94	4682.3	
291.15	4735.6	
291.36	2708.8	
291.57	3093.1	
291.78	4296.6	
291.99	3999.7	
292.2	2647.3	
292.41	3022.8	
292.62	4780.6	
292.83	4633.2	
293.04	3562.8	
293.25	2671.2	
293.46	4347.8	
293.67	4750.6	
293.88	2602.3	
294.09	2627.5	
294.29	4132.8	
294.5	4534.9	
294.71	2863.7	
294.92	2736.1	
295.13	4350.6	
295.34	5109.7	
295.55	2470.5	
295.76	2448.7	
295.97	4659.1	
296.18	5057.8	
296.39	2550.4	
296.6	2674	
296.81	4443.4	
297.01	4654.4	
297.22	2763.4	
297.43	2654.9	
297.64	4334.9	
297.85	4163.5	
298.06	2320.3	
298.27	2530.6	
298.48	4363.5	
298.69	4259.1	
298.9	2887	
299.11	2595.5	
299.31	4087.1	
299.52	4193.6	
299.73	3041.2	
299.94	2988	
300.15	4433.2	
300.36	4244.1	
300.57	3003.7	
300.78	2955.9	
300.99	4301.4	
301.2	4446.8	
301.4	2712.9	
301.61	2804.4	
301.82	4589.5	
302.03	4644.1	
302.24	3149.8	
302.45	2587.9	
302.66	4616.1	
302.87	4772.4	
303.08	2714.9	
303.29	3446.7	
303.49	4350.6	
303.7	4324.6	
303.91	2484.9	
304.12	3364.8	
304.33	4029.7	
304.54	4483.7	
304.75	2772.9	
304.96	2643.9	
305.16	4646.8	
305.37	5015.5	
305.58	2461.7	
305.79	2448.7	
306	4625.7	
306.21	4017.4	
306.42	2643.9	
306.63	3799	
306.83	4296.6	
307.04	4616.1	
307.25	2848	
307.46	2860.3	
307.67	4001	
307.88	4600.4	
308.09	2730.6	
308.29	2732	
308.5	4426.3	
308.71	4727.4	
308.92	2870.6	
309.13	2589.3	
309.34	4452.3	
309.55	4351.3	
309.75	3304.1	
309.96	2961.4	
310.17	4682.3	
310.38	4183.3	
310.59	3054.9	
310.8	2931.3	
311.01	4558.8	
311.21	4386.1	
311.42	2653.5	
311.63	2689	
311.84	4334.2	
312.05	4437.9	
312.26	2983.2	
312.46	3162.7	
312.67	4335.5	
312.88	4032.5	
313.09	2580.4	
313.3	2581.1	
313.51	4871.4	
313.71	5114.5	
313.92	2631	
314.13	2708.1	
314.34	4563.6	
314.55	4409.3	
314.76	3213.9	
314.96	2860.3	
315.17	4545.1	
315.38	4550.6	
315.59	2686.9	
315.8	2538.1	
316.01	4828.4	
316.21	5000.5	
316.42	2558.6	
316.63	2847.4	
316.84	4309.6	
317.05	4722.6	
317.26	3001	
317.46	2783.2	
317.67	4396.3	
317.88	4642.7	
318.09	3148.4	
318.3	2485.6	
318.5	4332.1	
318.71	4515.1	
318.92	3903.4	
319.13	2998.9	
319.34	4746.5	
319.54	4810	
319.75	2468.5	
319.96	2396.1	
320.17	4581.3	
320.38	4723.3	
320.58	2476	
320.79	2817.3	
321	4754.7	
321.21	4818.9	
321.42	2864.4	
321.62	2478.7	
321.83	4152.6	
322.04	4421.6	
322.25	2813.2	
322.46	2633	
322.66	4479.6	
322.87	4598.4	
323.08	3106.1	
323.29	2589.3	
323.5	5066.7	
323.7	4109.6	
323.91	3378.5	
324.12	3136.1	
324.33	4489.1	
324.53	4571.1	
324.74	2938.8	
324.95	3080.1	
325.16	4097.3	
325.37	4313.7	
325.57	2578.4	
325.78	2689	
325.99	4503.5	
326.2	4052.9	
326.4	3461.1	
326.61	2453.5	
326.82	4373.1	
327.03	4477.5	
327.24	3545	
327.44	3277.4	
327.65	4622.3	
327.86	3898.6	
328.07	3033.7	
328.27	2583.2	
328.48	4853.7	
328.69	4117.8	
328.9	3474	
329.1	2686.3	
329.31	4388.8	
329.52	4866	
329.73	2641.9	
329.93	2826.2	
330.14	4510.3	
330.35	4500.1	
330.56	3942.3	
330.76	3110.9	
330.97	4326	
331.18	4412	
331.39	2833.7	
331.59	2424.1	
331.8	4790.2	
332.01	4857.1	
332.22	2704.7	
332.42	2937.5	
332.63	4460.5	
332.84	4115.1	
333.05	2893.1	
333.25	2633	
333.46	4253.6	
333.67	4351.3	
333.88	2749.7	
334.08	2906.8	
334.29	5448.3	
334.5	4812.7	
334.7	2553.8	
334.91	3445.4	
335.12	4101.4	
335.33	4595	
335.53	2888.3	
335.74	3831.1	
335.95	4369.7	
336.16	4080.2	
336.36	2878.1	
336.57	3188.7	
336.78	4098.7	
336.98	4738.3	
337.19	3381.2	
337.4	2809.8	
337.61	5150.6	
337.81	4115.7	
338.02	2740.9	
338.23	3220.1	
338.43	4875.5	
338.64	4218.8	
338.85	2649.4	
339.05	3304.7	
339.26	4960.2	
339.47	4035.9	
339.68	2637.8	
339.88	3565.5	
340.09	4653.7	
340.3	4737	
340.5	3011.2	
340.71	2407.7	
340.92	4128.7	
341.13	4760.8	
341.33	2498.5	
341.54	3009.1	
341.75	4518.5	
341.95	4259.1	
342.16	2878.8	
342.37	3020.1	
342.57	4128.7	
342.78	4347.2	
342.99	3167.5	
343.19	2443.9	
343.4	4680.3	
343.61	4514.4	
343.81	2750.4	
344.02	2534.7	
344.23	4604.5	
344.43	4849.6	
344.64	3122.5	
344.85	3057.6	
345.06	4622.3	
345.26	4738.3	
345.47	2996.2	
345.68	3353.9	
345.88	4087.7	
346.09	4651.6	
346.3	2976.4	
346.5	2352.4	
346.71	4377.9	
346.92	4216.1	
347.12	2552.5	
347.33	2972.3	
347.54	4727.4	
347.74	4890.5	
347.95	2936.8	
348.16	2373.6	
348.36	4242.7	
348.57	4130.1	
348.78	3055.6	
348.98	3110.2	
349.19	4304.8	
349.39	4006.5	
349.6	2519	
349.81	2702.6	
350.01	4638	
350.22	4196.3	
350.43	2902	
350.63	3310.2	
350.84	4423.6	
351.05	4182	
351.25	2641.2	
351.46	2495.1	
351.67	4734.2	
351.87	4145.1	
352.08	2773.6	
352.29	3057.6	
352.49	4675.5	
352.7	4471.4	
352.9	2567.5	
353.11	3070.6	
353.32	5020.3	
353.52	4303.5	
353.73	2616.6	
353.94	3107.5	
354.14	4519.2	
354.35	4325.3	
354.55	2639.8	
354.76	2899.9	
354.97	4605.2	
355.17	4359.4	
355.38	2592	
355.59	3310.2	
355.79	4152.6	
356	4339.6	
356.2	2871.3	
356.41	2624.1	
356.62	4064.5	
356.82	4334.9	
357.03	3059	
357.24	2749.1	
357.44	4130.8	
357.65	4252.3	
357.85	3442	
358.06	2896.5	
358.27	3996.3	
358.47	4105.5	
358.68	2497.8	
358.88	3031	
359.09	4504.8	
359.3	4712.4	
359.5	3362.8	
359.71	3136.1	
359.91	4948.6	
360.12	4502.8	
360.33	3024.8	
360.53	3265.1	
360.74	4146.5	
360.94	4220.2	
361.15	3126.6	
361.36	2629.6	
361.56	4676.9	
361.77	4369	
361.97	3407.1	
362.18	2772.3	
362.38	4693.3	
362.59	4065.9	
362.8	2628.2	
363	2551.1	
363.21	4023.6	
363.41	4378.6	
363.62	2914.9	
363.83	3436.5	
364.03	4583.4	
364.24	4859.1	
364.44	3571	
364.65	3523.9	
364.85	4263.9	
365.06	4108.9	
365.27	2717.7	
365.47	2805.7	
365.68	4829.8	
365.88	4294.6	
366.09	2963.4	
366.29	2779.1	
366.5	4418.8	
366.71	4629.1	
366.91	3527.3	
367.12	3087	
367.32	5069.4	
367.53	4544.4	
367.73	3107.5	
367.94	3678.8	
368.14	4579.9	
368.35	4931.5	
368.56	3059	
368.76	2671.9	
368.97	4696.7	
369.17	5537	
369.38	2690.3	
369.58	2920.4	
369.79	4040.6	
369.99	4899.4	
370.2	3534.1	
370.4	2943.6	
370.61	4420.2	
370.82	5221	
371.02	2919.7	
371.23	2530.6	
371.43	4135.5	
371.64	4855.7	
371.84	2913.6	
372.05	3503.4	
372.25	5496.7	
372.46	4522.6	
372.66	2856.2	
372.87	2927.2	
373.07	4613.4	
373.28	5628.5	
373.48	3428.3	
373.69	3242.6	
373.9	4360.1	
374.1	4389.5	
374.31	3429.7	
374.51	3133.4	
374.72	4795.7	
374.92	4169	
375.13	3503.4	
375.33	3018	
375.54	4493.2	
375.74	4217.5	
375.95	3156.6	
376.15	3848.8	
376.36	4625	
376.56	4519.9	
376.77	3142.9	
376.97	3400.3	
377.18	5279	
377.38	4631.1	
377.59	3493.8	
377.79	2865.8	
378	4445.5	
378.2	4670.1	
378.41	2869.9	
378.61	2768.9	
378.82	4846.2	
379.02	4242	
379.23	2970.2	
379.43	3553.9	
379.64	4895.3	
379.84	4536.9	
380.05	2906.8	
380.25	2822.8	
380.46	4625	
380.66	4377.9	
380.87	3663.1	
381.07	3808.5	
381.28	5025.7	
381.48	4561.5	
381.69	2861.7	
381.89	2889.7	
382.1	4087.1	
382.3	4706.2	
382.51	3522.5	
382.71	4086.4	
382.91	4557.4	
383.12	4921.3	
383.32	3048.7	
383.53	3250.8	
383.73	4568.3	
383.94	4463.2	
384.14	3203	
384.35	2685.6	
384.55	4326.7	
384.76	4601.1	
384.96	3125.2	
385.17	3288.4	
385.37	4706.9	
385.58	4157.4	
385.78	3265.1	
385.98	2670.6	
386.19	4386.7	
386.39	4599.1	
386.6	2914.9	
386.8	3073.3	
387.01	4586.1	
387.21	4709	
387.42	3303.4	
387.62	3660.4	
387.83	4338.3	
388.03	4412	
388.23	3198.9	
388.44	3534.8	
388.64	4071.4	
388.85	4108.9	
389.05	3274	
389.26	3587.4	
389.46	5449.6	
389.67	4943.1	
389.87	3310.2	
390.07	3346.4	
390.28	4386.1	
390.48	4173.8	
390.69	2788	
390.89	3104.7	
391.1	4362.2	
391.3	4775.2	
391.5	3742.3	
391.71	4000.4	
391.91	4728.8	
392.12	5160.9	
392.32	3814.7	
392.53	3292.5	
392.73	4403.8	
392.93	4430.4	
393.14	3138.2	
393.34	3603.7	
393.55	4674.8	
393.75	4405.2	
393.95	3169.6	
394.16	3115.6	
394.36	4364.2	
394.57	4766.3	
394.77	2872.6	
394.98	3113.6	
395.18	4296.6	
395.38	4333.5	
395.59	3581.2	
395.79	2990	
396	4388.1	
396.2	4681.7	
396.4	3510.9	
396.61	3480.9	
396.81	4748.6	
397.02	4310.3	
397.22	3604.4	
397.42	3637.9	
397.63	4786.1	
397.83	4246.8	
398.04	2946.3	
398.24	3244	
398.44	4649.6	
398.65	4001.7	
398.85	2864.4	
399.05	2863.1	
399.26	4323.3	
399.46	5294.7	
399.67	3178.4	
399.87	3004.4	
400.07	4564.9	
400.28	4653.7	
400.48	3009.8	
400.69	3650.8	
400.89	4826.4	
401.09	5106.3	
401.3	2994.8	
401.5	3644	
401.7	5222.3	
401.91	5316.5	
402.11	3263.1	
402.32	3333.4	
402.52	4928.1	
402.72	4766.3	
402.93	3447.4	
403.13	2799.6	
403.33	5347.2	
403.54	4541	
403.74	3330.7	
403.94	3794.9	
404.15	4650.3	
404.35	5337.7	
404.56	3194.8	
404.76	4201.7	
404.96	4862.6	
405.17	4691.2	
405.37	3659.7	
405.57	3480.2	
405.78	4879.6	
405.98	4564.9	
406.18	3175.7	
406.39	3663.8	
406.59	4885.1	
406.79	4505.5	
407	3049.4	
407.2	3093.1	
407.4	5116.5	
407.61	4990.2	
407.81	3140.9	
408.01	4370.4	
408.22	4164.2	
408.42	5302.2	
408.62	3748.5	
408.83	3456.3	
409.03	4591.5	
409.23	4542.4	
409.44	3447.4	
409.64	3501.3	
409.84	5221.6	
410.05	5130.2	
410.25	3541.6	
410.45	3446.7	
410.66	4808.6	
410.86	6270.9	
411.06	3666.5	
411.27	3472.7	
411.47	6135	
411.67	4858.5	
411.88	3652.9	
412.08	3800.3	
412.28	5257.1	
412.49	5560.9	
412.69	3604.4	
412.89	3638.6	
413.09	5455.1	
413.3	5429.8	
413.5	3715.7	
413.7	3502	
413.91	4992.9	
414.11	5475.6	
414.31	3479.5	
414.52	3784	
414.72	5290.6	
414.92	5183.4	
415.12	3586	
415.33	3889.1	
415.53	5410.1	
415.73	5544.5	
415.94	4022.9	
416.14	3732.8	
416.34	4833.9	
416.55	4680.3	
416.75	4457.1	
416.95	4135.5	
417.15	5566.4	
417.36	5876.3	
417.56	4569.7	
417.76	3996.3	
417.97	5597.8	
418.17	5398.4	
418.37	3824.2	
418.57	3815.4	
418.78	5453.7	
418.98	5200.5	
419.18	4321.9	
419.38	4304.8	
419.59	5167	
419.79	5025	
419.99	3786	
420.2	3947.1	
420.4	5597.8	
420.6	5565	
420.8	3644.7	
421.01	3605.1	
421.21	5463.3	
421.41	5388.2	
421.61	3878.9	
421.82	3768.9	
422.02	5173.9	
422.22	5721.3	
422.42	4180.6	
422.63	4053.6	
422.83	5149.3	
423.03	5940.5	
423.23	4143	
423.44	3401	
423.64	5119.9	
423.84	4982	
424.04	3715	
424.25	3516.4	
424.45	5765.7	
424.65	5696.1	
424.85	3411.2	
425.06	3702.7	
425.26	5954.8	
425.46	5156.1	
425.66	4031.1	
425.87	3876.8	
426.07	5577.3	
426.27	5431.9	
426.47	3951.2	
426.67	3517	
426.88	5924.1	
427.08	5500.8	
427.28	4141.7	
427.48	3527.3	
427.69	4891.9	
427.89	5210	
428.09	4018.1	
428.29	3537.5	
428.5	5542.5	
428.7	5517.9	
428.9	3495.9	
429.1	3788.1	
429.3	5495.4	
429.51	5571.2	
429.71	3739.6	
429.91	4227.7	
430.11	5596.4	
430.31	5662	
430.52	3876.1	
430.72	3979.2	
430.92	5830.6	
431.12	5531.6	
431.32	3710.9	
431.53	4004.5	
431.73	4965.6	
431.93	5868.8	
432.13	3703.4	
432.33	3582.6	
432.54	5287.2	
432.74	5355.4	
432.94	3493.2	
433.14	4248.9	
433.34	5686.5	
433.55	5352	
433.75	4098.7	
433.95	5115.8	
434.15	5423.7	
434.35	5173.2	
434.56	3712.3	
434.76	3333.4	
434.96	5449.6	
435.16	5508.4	
435.36	3611.9	
435.56	4356	
435.77	5214.8	
435.97	5341.1	
436.17	4638	
436.37	4203.1	
436.57	5132.9	
436.78	5152.7	
436.98	5285.1	
437.18	4575.2	
437.38	5578.7	
437.58	5328.8	
437.78	4635.9	
437.99	3907.5	
438.19	5713.2	
438.39	6525.5	
438.59	3923.2	
438.79	3548.4	
438.99	6050.4	
439.2	5318.6	
439.4	3588	
439.6	3588	
439.8	5358.2	
440	6065.4	
440.2	4227	
440.4	4234.5	
440.61	5819	
440.81	5975.3	
441.01	3754.6	
441.21	4314.4	
441.41	5999.9	
441.61	5694.7	
441.81	4496.7	
442.02	5042.8	
442.22	6346.7	
442.42	5902.9	
442.62	3751.2	
442.82	3849.5	
443.02	6095.4	
443.22	5552.7	
443.43	4106.2	
443.63	3766.2	
443.83	5393	
444.03	5368.4	
444.23	4561.5	
444.43	4339	
444.63	5740.5	
444.83	6281.1	
445.04	3940.3	
445.24	4689.8	
445.44	5938.4	
445.64	5919.3	
445.84	4388.1	
446.04	4440.7	
446.24	5517.9	
446.44	6113.2	
446.65	3955.3	
446.85	4109.6	
447.05	5518.6	
447.25	6065.4	
447.45	4232.5	
447.65	3788.7	
447.85	5719.3	
448.05	5386.8	
448.25	4455.7	
448.46	4317.8	
448.66	5712.5	
448.86	5509	
449.06	3850.2	
449.26	4370.4	
449.46	5902.2	
449.66	5388.2	
449.86	4179.9	
450.06	4080.9	
450.26	5481	
450.47	5897.5	
450.67	4369	
450.87	4509.6	
451.07	6001.9	
451.27	5749.3	
451.47	3959.4	
451.67	4531.5	
451.87	5638.1	
452.07	6311.8	
452.27	4142.4	
452.47	4084.3	
452.67	5853.8	
452.88	6012.2	
453.08	3737.5	
453.28	4896.7	
453.48	6571.9	
453.68	5685.8	
453.88	4126	
454.08	4165.6	
454.28	5982.8	
454.48	5756.2	
454.68	4509.6	
454.88	4749.9	
455.08	6110.5	
455.28	5902.9	
455.48	4040.6	
455.68	4433.2	
455.89	6409.5	
456.09	6122.1	
456.29	4263.2	
456.49	4304.1	
456.69	6273.6	
456.89	5846.3	
457.09	4545.8	
457.29	4805.2	
457.49	6072.2	
457.69	6121.4	
457.89	4518.5	
458.09	4034.5	
458.29	6019.7	
458.49	6432	
458.69	4754.7	
458.89	4350.6	
459.09	6532.3	
459.29	6608.1	
459.49	4423.6	
459.69	5001.1	
459.9	6300.9	
460.1	5959.6	
460.3	4395.6	
460.5	4300.1	
460.7	6266.8	
460.9	5982.8	
461.1	4095.3	
461.3	4857.8	
461.5	6737.1	
461.7	6467.5	
461.9	4384.7	
462.1	4674.1	
462.3	6227.2	
462.5	6490.7	
462.7	4564.2	
462.9	4526	
463.1	7174	
463.3	6848.4	
463.5	4677.6	
463.7	5261.9	
463.9	6351.4	
464.1	6526.9	
464.3	4815.5	
464.5	4934.2	
464.7	6724.8	
464.9	6519.4	
465.1	5636	
465.3	5038.7	
465.5	6985.6	
465.7	6950.8	
465.9	5306.3	
466.1	5187.5	
466.3	6853.9	
466.5	6765.8	
466.7	5712.5	
466.9	5119.9	
467.1	6902.3	
467.3	7266.2	
467.5	5734.3	
467.7	5089.9	
467.9	7454.6	
468.1	7884	
468.3	5436.7	
468.5	5724.8	
468.7	6676.4	
468.9	6630.6	
469.1	5276.9	
469.3	5707.7	
469.5	7913.4	
469.7	6543.3	
469.9	5618.3	
470.1	5149.3	
470.3	6909.2	
470.5	6919.4	
470.7	5940.5	
470.9	5236	
471.1	6705	
471.3	7049.8	
471.5	5122	
471.69	6206	
471.89	6670.2	
472.09	6299.6	
472.29	5595.1	
472.49	5764.3	
472.69	6469.5	
472.89	6872.3	
473.09	5060.5	
473.29	5150	
473.49	6587.6	
473.69	6609.5	
473.89	5657.9	
474.09	5210.7	
474.29	7500.3	
474.49	7160.4	
474.69	5619.6	
474.89	5285.1	
475.09	6660.7	
475.29	6603.3	
475.49	4953.4	
475.69	5111.7	
475.88	7662.8	
476.08	6932.4	
476.28	4912.4	
476.48	5193	
476.68	7305.8	
476.88	7017.7	
477.08	5157.5	
477.28	5272.2	
477.48	6849.8	
477.68	7061.4	
477.88	4956.1	
478.08	5111.7	
478.28	7371.3	
478.48	6836.1	
478.67	5285.1	
478.87	4782	
479.07	7271.7	
479.27	6875.7	
479.47	5331.5	
479.67	5429.2	
479.87	7163.1	
480.07	7384.3	
480.27	5012.1	
480.47	5860.6	
480.67	6872.3	
480.87	7369.3	
481.06	5192.3	
481.26	5755.5	
481.46	6991.8	
481.66	6913.9	
481.86	5477.6	
482.06	5977.3	
482.26	6864.1	
482.46	7318.1	
482.66	5464	
482.86	5223.7	
483.05	7248.4	
483.25	6630	
483.45	6881.9	
483.65	5360.2	
483.85	6701.6	
484.05	6922.1	
484.25	5760.9	
484.45	5992.4	
484.65	7402.7	
484.84	7526.3	
485.04	5448.3	
485.24	5415.5	
485.44	7735.9	
485.64	6573.3	
485.84	4956.1	
486.04	5801.9	
486.24	6872.3	
486.44	7126.2	
486.63	5048.2	
486.83	5686.5	
487.03	6982.2	
487.23	6975.4	
487.43	5102.2	
487.63	6433.4	
487.83	7165.8	
488.02	7402	
488.22	5690.6	
488.42	6115.9	
488.62	7609.6	
488.82	6911.2	
489.02	5532.9	
489.22	5540.4	
489.41	7425.9	
489.61	7402	
489.81	5441.5	
490.01	5380.7	
490.21	7576.1	
490.41	8016.4	
490.61	5434.6	
490.8	5512.4	
491	7303.1	
491.2	6916.7	
491.4	5942.5	
491.6	5388.2	
491.8	7402	
491.99	7233.4	
492.19	5371.8	
492.39	5406	
492.59	7529.7	
492.79	7555	
492.99	5930.2	
493.18	5472.9	
493.38	7717.4	
493.58	8109.3	
493.78	5881.1	
493.98	5606	
494.18	7452.6	
494.37	7131.7	
494.57	6094.1	
494.77	5948	
494.97	7769.3	
495.17	7906.5	
495.37	5832.6	
495.56	6006.7	
495.76	7956.4	
495.96	7813.7	
496.16	6664.1	
496.36	6059.3	
496.55	8046.5	
496.75	7716.1	
496.95	6239.5	
497.15	6242.2	
497.35	8027.4	
497.54	8024.6	
497.74	6077	
497.94	7144	
498.14	8486.1	
498.34	8259.5	
498.53	5904.3	
498.73	6395.8	
498.93	7600	
499.13	7941.3	
499.33	6349.4	
499.52	6519.4	
499.72	8162.5	
499.92	8205.5	
500.12	6073.6	
500.32	6289.3	
500.51	8204.8	
500.71	8050.6	
500.91	6759.7	
501.11	6552.1	
501.31	8206.2	
501.5	8504.5	
501.7	6976.7	
501.9	6530.3	
502.1	8115.4	
502.29	8332.5	
502.49	6695.5	
502.69	6900.3	
502.89	8219.9	
503.09	8302.5	
503.28	6059.3	
503.48	6296.8	
503.68	7898.3	
503.88	7754.3	
504.07	6717.3	
504.27	6412.9	
504.47	7975.5	
504.67	8069	
504.86	6703.7	
505.06	6500.3	
505.26	7953.6	
505.46	8875.2	
505.65	6448.4	
505.85	6533	
506.05	7912	
506.25	8245.8	
506.44	5929.6	
506.64	6522.8	
506.84	7696.3	
507.04	8275.8	
507.23	6192.4	
507.43	6461.3	
507.63	8850.6	
507.83	7697.6	
508.02	6431.3	
508.22	6145.3	
508.42	9064.3	
508.62	7746.1	
508.81	6405.4	
509.01	6771.9	
509.21	7699.7	
509.4	7869.7	
509.6	6549.4	
509.8	6252.4	
510	7758.4	
510.19	8471.8	
510.39	6094.8	
510.59	6232	
510.79	7808.9	
510.98	8576.9	
511.18	6371.9	
511.38	6369.9	
511.57	8453.3	
511.77	8033.5	
511.97	6682.5	
512.17	6160.3	
512.36	8327	
512.56	8147.5	
512.76	6188.3	
512.95	6093.4	
513.15	8408.3	
513.35	7401.4	
513.55	6685.3	
513.74	6104.3	
513.94	8321.6	
514.14	7892.9	
514.33	6791.7	
514.53	6696.2	
514.73	8056	
514.92	8001.4	
515.12	6386.9	
515.32	6265.4	
515.51	8183	
515.71	8249.2	
515.91	7233.4	
516.11	6277.7	
516.3	9137.4	
516.5	7885.4	
516.7	6667.5	
516.89	7010.9	
517.09	8015.7	
517.29	7974.8	
517.48	6890	
517.68	6439.5	
517.88	7797.3	
518.07	8285.4	
518.27	6834.1	
518.47	6296.8	
518.66	8637	
518.86	7802.8	
519.06	6195.8	
519.25	6493.4	
519.45	7970	
519.65	8771.5	
519.84	6787.7	
520.04	7266.2	
520.24	9192.6	
520.43	8431.5	
520.63	6798.6	
520.83	6622.4	
521.02	8063.5	
521.22	8385.7	
521.42	6821.8	
521.61	7212.3	
521.81	8087.4	
522.01	8208.9	
522.2	6780.8	
522.4	6528.2	
522.6	8544.8	
522.79	7767.3	
522.99	6759.7	
523.18	6305.7	
523.38	8385.7	
523.58	8333.9	
523.77	7460.8	
523.97	6359.6	
524.17	9521	
524.36	9106	
524.56	7227.3	
524.76	7025.9	
524.95	8503.8	
525.15	8414.4	
525.34	6947.4	
525.54	7027.3	
525.74	8845.9	
525.93	8232.2	
526.13	7757	
526.33	7051.8	
526.52	9157.2	
526.72	8777.6	
526.91	7877.2	
527.11	7494.2	
527.31	9069.8	
527.5	9328.5	
527.7	7472.4	
527.89	6861.4	
528.09	8577.6	
528.29	8832.9	
528.48	7615	
528.68	7371.3	
528.87	9179.7	
529.07	9188.6	
529.27	7464.8	
529.46	7189.7	
529.66	9110	
529.85	9461.6	
530.05	7294.2	
530.25	7703.1	
530.44	9979.1	
530.64	9035.6	
530.83	7439.6	
531.03	7530.4	
531.23	9436.4	
531.42	9231.6	
531.62	7893.6	
531.81	7446.4	
532.01	9499.2	
532.21	9612.5	
532.4	7469.6	
532.6	7706.5	
532.79	10058	
532.99	9536	
533.18	7767.3	
533.38	8436.3	
533.58	9497.8	
533.77	9785.9	
533.97	7963.9	
534.16	8424	
534.36	9984.5	
534.55	9464.3	
534.75	8374.8	
534.95	7901.7	
535.14	10064	
535.34	9425.4	
535.53	7734.5	
535.73	9065.7	
535.92	10404	
536.12	9581.1	
536.31	7897.7	
536.51	8628.1	
536.71	9856.9	
536.9	9431.6	
537.1	7871.7	
537.29	8026.7	
537.49	10016	
537.68	9376.3	
537.88	8303.8	
538.07	7705.1	
538.27	9631.6	
538.46	10252	
538.66	7646.4	
538.86	8019.2	
539.05	9570.2	
539.25	9962	
539.44	8297.7	
539.64	7903.8	
539.83	9652.1	
540.03	10325	
540.22	7977.5	
540.42	7927	
540.61	9819.3	
540.81	9934.7	
541	8142	
541.2	8573.5	
541.39	9533.3	
541.59	9684.8	
541.78	8492.2	
541.98	7921.5	
542.18	9340.1	
542.37	9366	
542.57	8140	
542.76	8439.7	
542.96	9408.4	
543.15	9684.8	
543.35	8145.5	
543.54	7757	
543.74	9495.1	
543.93	9629.5	
544.13	8049.2	
544.32	8752.3	
544.52	9792.7	
544.71	9190.6	
544.91	7508.5	
545.1	8181.6	
545.3	9363.3	
545.49	9717.6	
545.69	7504.4	
545.88	7800.7	
546.08	10361	
546.27	9929.2	
546.47	8100.4	
546.66	7630	
546.86	9770.2	
547.05	10118	
547.24	7909.9	
547.44	7855.3	
547.63	9192.6	
547.83	9802.9	
548.02	7980.3	
548.22	8092.9	
548.41	9073.2	
548.61	9820.7	
548.8	7662.8	
549	7663.5	
549.19	9560.6	
549.39	9744.2	
549.58	7486.7	
549.78	7849.2	
549.97	9774.3	
550.17	9364	
550.36	8372.1	
550.55	8948.3	
550.75	9568.1	
550.94	9914.2	
551.14	7612.3	
551.33	7879.9	
551.53	8938.7	
551.72	9509.4	
551.92	7849.2	
552.11	7782.3	
552.31	9663.7	
552.5	9642.5	
552.69	8732.5	
552.89	7552.2	
553.08	9610.4	
553.28	9413.8	
553.47	7745.4	
553.67	8387.1	
553.86	9873.9	
554.06	8933.2	
554.25	7326.9	
554.44	7519.5	
554.64	10330	
554.83	10081	
555.03	7569.3	
555.22	7916.1	
555.42	9733.3	
555.61	9548.3	
555.8	7686	
556	7859.4	
556.19	9100.5	
556.39	9602.9	
556.58	7758.4	
556.78	7704.5	
556.97	9440.5	
557.16	9338.1	
557.36	8443.1	
557.55	7593.9	
557.75	8748.9	
557.94	10005	
558.13	7632.1	
558.33	7497.6	
558.52	9812.5	
558.72	8987.9	
558.91	7542	
559.1	7660.8	
559.3	8947.6	
559.49	8858.8	
559.69	7413	
559.88	7823.2	
560.07	9389.9	
560.27	9648.7	
560.46	8017.1	
560.66	8051.2	
560.85	9267.7	
561.04	8753	
561.24	7507.9	
561.43	7632.1	
561.63	9031.5	
561.82	9175.6	
562.01	8336.6	
562.21	7723.6	
562.4	9344.2	
562.59	10020	
562.79	7672.4	
562.98	7578.8	
563.18	9420	
563.37	10167	
563.56	7993.2	
563.76	7552.9	
563.95	9141.4	
564.14	9082.1	
564.34	7772.7	
564.53	7547.4	
564.73	9519	
564.92	9577.7	
565.11	7941.3	
565.31	7489.4	
565.5	9858.9	
565.69	9069.8	
565.89	7747.5	
566.08	7778.9	
566.27	9715.6	
566.47	10004	
566.66	8318.8	
566.85	7454.6	
567.05	9710.8	
567.24	9182.4	
567.44	7643.7	
567.63	8459.5	
567.82	9803.6	
568.02	9476	
568.21	7671.7	
568.4	7995.3	
568.6	9515.5	
568.79	9400.2	
568.98	7586.4	
569.18	7707.9	
569.37	9483.5	
569.56	10701	
569.76	8009.6	
569.95	8593.3	
570.14	9748.3	
570.34	9653.4	
570.53	7733.1	
570.72	7677.2	
570.91	10096	
571.11	9542.9	
571.3	7964.6	
571.49	8499.1	
571.69	9544.2	
571.88	9271.8	
572.07	8364.6	
572.27	8176.2	
572.46	9273.9	
572.65	9806.4	
572.85	7933.1	
573.04	8182.3	
573.23	10106	
573.43	9646.6	
573.62	7724.9	
573.81	8172.8	
574	9796.1	
574.2	9525.1	
574.39	7987.8	
574.58	8110	
574.78	10267	
574.97	9916.3	
575.16	8445.1	
575.36	8421.2	
575.55	10152	
575.74	10164	
575.93	7908.6	
576.13	8583	
576.32	9766.8	
576.51	10114	
576.71	8263.6	
576.9	9057.5	
577.09	10363	
577.28	10006	
577.48	8486.1	
577.67	7950.9	
577.86	9869.8	
578.05	10016	
578.25	8350.3	
578.44	8299.1	
578.63	9970.9	
578.83	10760	
579.02	8009.6	
579.21	8887.5	
579.4	10136	
579.6	9956.5	
579.79	8480	
579.98	9851.4	
580.17	10221	
580.37	10407	
580.56	8136.6	
580.75	8626.7	
580.94	10605	
581.14	10613	
581.33	8921	
581.52	8312	
581.71	10248	
581.91	10717	
582.1	8270.4	
582.29	8495	
582.48	10053	
582.68	9988.6	
582.87	8703.2	
583.06	8572.8	
583.25	10413	
583.45	9893.1	
583.64	9050.7	
583.83	9457.5	
584.02	10213	
584.21	10343	
584.41	8953.7	
584.6	8603.5	
584.79	10226	
584.98	10675	
585.18	8283.4	
585.37	8248.5	
585.56	9931.3	
585.75	10340	
585.94	8469.7	
586.14	8967.4	
586.33	10674	
586.52	10146	
586.71	8820.6	
586.91	8546.9	
587.1	9744.2	
587.29	10400	
587.48	8347.5	
587.67	8421.2	
587.87	10245	
588.06	10192	
588.25	9184.5	
588.44	8639.7	
588.63	9938.1	
588.83	10290	
589.02	8409.6	
589.21	8268.3	
589.4	9849.4	
589.59	9868.5	
589.78	7755.7	
589.98	7862.2	
590.17	9377	
590.36	9598.8	
590.55	7364.5	
590.74	7777.5	
590.94	10209	
591.13	9349.7	
591.32	7580.2	
591.51	7162.4	
591.7	9503.3	
591.89	9203.6	
592.09	7292.1	
592.28	7644.4	
592.47	8640.4	
592.66	10094	
592.85	7430	
593.05	7590.5	
593.24	9187.2	
593.43	9953.8	
593.62	7687.4	
593.81	7943.4	
594	9399.5	
594.19	9401.5	
594.39	7496.9	
594.58	7578.2	
594.77	9684.8	
594.96	9920.4	
595.15	7595.9	
595.34	7970	
595.54	9407	
595.73	9054.1	
595.92	7131.7	
596.11	7714.7	
596.3	9804.3	
596.49	9022	
596.68	7597.3	
596.88	7832.1	
597.07	9541.5	
597.26	8892.3	
597.45	7278.5	
597.64	8062.2	
597.83	9181	
598.02	9542.2	
598.22	7373.4	
598.41	7822.6	
598.6	9307.3	
598.79	8962.6	
598.98	7475.1	
599.17	7950.2	
599.36	9371.5	
599.55	9938.1	
599.74	8613.8	
599.94	8475.2	
600.13	9665	
600.32	8973.5	
600.51	7283.9	
600.7	7366.5	
600.89	9999.5	
601.08	10079	
601.27	7324.2	
601.47	7763.8	
601.66	9613.8	
601.85	9944.9	
602.04	7756.3	
602.23	7673.7	
602.42	9039.7	
602.61	9486.2	
602.8	7562.5	
602.99	7462.8	
603.18	9286.2	
603.37	9346.9	
603.57	7839.6	
603.76	8159.1	
603.95	9790	
604.14	9521	
604.33	7538.6	
604.52	7815	
604.71	9433.6	
604.9	9187.2	
605.09	8088.1	
605.28	7985	
605.47	9867.1	
605.66	9450	
605.86	7884	
606.05	7634.8	
606.24	9865.1	
606.43	8920.3	
606.62	7750.9	
606.81	8162.5	
607	9701.2	
607.19	9197.4	
607.38	7408.9	
607.57	7537.2	
607.76	9071.8	
607.95	8724.3	
608.14	7832.8	
608.33	8051.9	
608.52	9114.1	
608.72	9782.5	
608.91	7369.3	
609.1	7380.9	
609.29	9200.8	
609.48	8865.7	
609.67	7885.4	
609.86	7331	
610.05	9009.7	
610.24	9069.1	
610.43	7313.3	
610.62	7045	
610.81	9824.8	
611	9656.2	
611.19	7314.7	
611.38	7776.1	
611.57	9355.8	
611.76	10022	
611.95	7177.4	
612.14	7137.2	
612.33	9166	
612.52	8938.7	
612.71	7517.4	
612.9	7103.7	
613.09	8722.3	
613.28	10075	
613.47	7465.5	
613.66	7916.8	
613.85	9301.2	
614.04	8944.8	
614.24	7516	
614.43	6881.9	
614.62	9355.1	
614.81	9230.9	
615	7761.1	
615.19	7785.7	
615.38	8908	
615.57	9173.5	
615.76	7749.5	
615.95	8348.2	
616.14	9454.8	
616.33	9176.3	
616.52	7914	
616.71	7940	
616.9	9415.2	
617.09	9210.4	
617.28	7503.8	
617.47	8260.1	
617.66	8860.9	
617.85	8876.6	
618.04	8004.1	
618.22	7665.5	
618.41	9129.2	
618.6	9779.7	
618.79	7752.9	
618.98	7701.7	
619.17	9930.6	
619.36	8846.5	
619.55	7804.1	
619.74	7832.1	
619.93	9524.4	
620.12	9151	
620.31	8206.2	
620.5	8274.5	
620.69	9858.2	
620.88	10249	
621.07	8669.7	
621.26	8193.9	
621.45	9796.8	
621.64	9794.1	
621.83	8207.6	
622.02	7866.2	
622.21	9818	
622.4	9798.8	
622.59	8617.9	
622.78	8505.9	
622.97	9448.6	
623.16	10053	
623.35	8335.9	
623.54	7680.6	
623.72	9482.8	
623.91	9644.6	
624.1	8383	
624.29	7732.4	
624.48	10264	
624.67	9845.3	
624.86	8408.3	
625.05	7800.7	
625.24	10498	
625.43	9476.6	
625.62	9241.1	
625.81	7905.8	
626	10034	
626.19	9630.9	
626.38	8482.7	
626.56	8062.2	
626.75	9460.3	
626.94	10017	
627.13	8447.9	
627.32	7732.4	
627.51	9991.4	
627.7	10588	
627.89	7838.3	
628.08	8417.8	
628.27	9433.6	
628.46	9588.6	
628.65	7887.4	
628.83	7638.9	
629.02	9762.7	
629.21	9442.5	
629.4	8129.8	
629.59	8219.9	
629.78	9441.1	
629.97	9913.5	
630.16	8304.5	
630.35	8047.2	
630.54	10413	
630.72	10181	
630.91	8094.9	
631.1	8323.6	
631.29	9767.4	
631.48	9800.9	
631.67	8447.2	
631.86	8073.8	
632.05	9672.6	
632.24	9580.4	
632.42	7907.9	
632.61	8204.8	
632.8	9572.9	
632.99	9334.6	
633.18	8258.1	
633.37	8510.7	
633.56	9870.5	
633.75	9766.8	
633.93	8279.3	
634.12	7987.1	
634.31	10419	
634.5	9954.5	
634.69	8162.5	
634.88	8377.6	
635.07	9746.3	
635.25	10112	
635.44	8763.9	
635.63	8798.1	
635.82	9553.1	
636.01	9016.5	
636.2	8612.4	
636.39	8371.4	
636.57	10352	
636.76	9891	
636.95	8079.9	
637.14	8825.4	
637.33	9947	
637.52	10322	
637.7	7949.5	
637.89	8516.8	
638.08	9756.5	
638.27	10378	
638.46	8458.8	
638.65	8754.4	
638.83	10432	
639.02	9499.2	
639.21	8351.6	
639.4	8703.9	
639.59	9731.9	
639.78	9531.9	
639.96	7827.3	
640.15	7972.7	
640.34	9691.7	
640.53	9630.9	
640.72	7761.8	
640.91	7897	
641.09	9238.4	
641.28	10050	
641.47	7909.9	
641.66	8402.8	
641.85	9667.8	
642.03	9630.9	
642.22	8178.2	
642.41	7963.9	
642.6	9307.3	
642.79	8945.5	
642.97	7854.6	
643.16	8202.1	
643.35	9236.3	
643.54	9030.2	
643.73	7856.7	
643.91	8194.6	
644.1	8913.4	
644.29	9493.7	
644.48	7669.6	
644.67	7756.3	
644.85	8949.6	
645.04	9347.6	
645.23	7433.4	
645.42	7623.9	
645.6	8838.4	
645.79	9562	
645.98	7460.8	
646.17	6825.2	
646.36	8619.9	
646.54	8886.8	
646.73	7813.7	
646.92	7171.3	
647.11	8675.9	
647.29	9295	
647.48	7192.5	
647.67	6935.8	
647.86	9450.7	
648.05	9338.1	
648.23	7277.8	
648.42	8077.2	
648.61	9054.1	
648.8	8954.4	
648.98	7119.4	
649.17	7242.3	
649.36	8616.5	
649.55	8262.9	
649.73	7193.1	
649.92	7584.3	
650.11	8577.6	
650.3	8767.4	
650.48	7212.3	
650.67	7158.3	
650.86	9031.5	
651.05	8256	
651.23	7075	
651.42	7103.7	
651.61	8566.7	
651.79	8476.5	
651.98	7208.2	
652.17	6984.9	
652.36	8873.8	
652.54	8191.2	
652.73	7139.9	
652.92	7002.7	
653.11	8823.3	
653.29	8882	
653.48	6602.7	
653.67	7175.4	
653.85	8699.8	
654.04	9155.8	
654.23	7225.2	
654.42	7038.9	
654.6	8268.3	
654.79	8716.2	
654.98	6638.8	
655.16	6894.8	
655.35	7975.5	
655.54	7825.3	
655.73	6463.4	
655.91	6298.2	
656.1	8325.7	
656.29	7599.3	
656.47	6154.1	
656.66	7200	
656.85	7942	
657.03	7958.4	
657.22	6563.7	
657.41	6731	
657.59	8115.4	
657.78	7982.3	
657.97	6494.8	
658.16	6925.5	
658.34	8536.6	
658.53	8877.3	
658.72	7443.7	
658.9	7757	
659.09	8380.3	
659.28	8310.7	
659.46	6849.8	
659.65	6716	
659.84	8200.7	
660.02	8585.1	
660.21	6857.3	
660.4	6739.2	
660.58	8746.9	
660.77	8345.5	
660.96	7068.2	
661.14	6481.8	
661.33	9112.1	
661.52	9047.2	
661.7	6581.5	
661.89	8514.8	
662.08	8168.7	
662.26	7830.1	
662.45	6672.3	
662.64	6723.5	
662.82	8697	
663.01	8047.2	
663.2	6705	
663.38	7178.8	
663.57	8446.5	
663.75	8406.9	
663.94	6918.7	
664.13	7604.1	
664.31	8036.9	
664.5	8455.4	
664.69	7101.7	
664.87	7406.1	
665.06	7958.4	
665.25	8464.3	
665.43	7539.9	
665.62	7471.7	
665.8	8441.7	
665.99	8202.1	
666.18	6952.9	
666.36	6901.7	
666.55	8526.4	
666.74	8540	
666.92	6713.9	
667.11	7639.6	
667.29	8185.7	
667.48	8449.9	
667.67	7382.9	
667.85	6710.5	
668.04	8139.3	
668.22	8100.4	
668.41	6974	
668.6	7085.3	
668.78	8049.9	
668.97	8155	
669.15	7109.2	
669.34	6534.4	
669.53	8086.1	
669.71	8273.8	
669.9	6636.1	
670.08	6978.1	
670.27	8008.2	
670.46	8449.2	
670.64	7086	
670.83	7288.7	
671.01	7750.9	
671.2	8318.2	
671.38	6578.1	
671.57	6591.7	
671.76	8676.6	
671.94	9006.3	
672.13	6555.5	
672.31	7128.3	
672.5	8533.2	
672.69	8062.2	
672.87	6737.1	
673.06	6902.3	
673.24	8393.3	
673.43	8116.8	
673.61	6998.6	
673.8	6739.2	
673.98	8454.7	
674.17	8484.1	
674.36	7280.5	
674.54	7019.8	
674.73	8211.7	
674.91	8510.7	
675.1	6821.1	
675.28	6534.4	
675.47	8060.8	
675.65	8469	
675.84	6832	
676.03	6956.9	
676.21	8068.3	
676.4	7654.6	
676.58	7243.7	
676.77	7182.9	
676.95	9002.2	
677.14	8105.2	
677.32	6576.7	
677.51	6554.2	
677.69	8557.1	
677.88	7905.2	
678.06	6535.8	
678.25	6641.6	
678.44	8161.2	
678.62	7856	
678.81	6445	
678.99	7051.2	
679.18	8655.4	
679.36	8439.7	
679.55	6866.8	
679.73	7178.8	
679.92	8362.5	
680.1	7999.4	
680.29	7404.1	
680.47	6743.3	
680.66	8047.2	
680.84	8502.5	
681.03	6442.9	
681.21	7122.2	
681.4	7975.5	
681.58	7951.6	
681.77	6641.6	
681.95	6550.1	
682.14	8601.5	
682.32	8735.3	
682.51	7155.6	
682.69	6410.8	
682.88	7920.2	
683.06	8245.8	
683.25	6955.6	
683.43	7195.2	
683.62	8234.2	
683.8	8411	
683.99	7370.6	
684.17	6808.8	
684.36	8780.3	
684.54	8055.3	
684.73	6332.3	
684.91	6395.8	
685.1	8215.8	
685.28	7780.9	
685.46	6697.5	
685.65	6565.1	
685.83	7963.2	
686.02	7532.4	
686.2	6052.4	
686.39	6014.9	
686.57	7247.1	
686.76	8050.6	
686.94	6107	
687.13	6199.2	
687.31	7747.5	
687.5	7674.4	
687.68	5971.2	
687.86	6645	
688.05	8787.8	
688.23	7358.4	
688.42	6736.5	
688.6	6301.6	
688.79	7655.3	
688.97	7639.6	
689.16	6636.8	
689.34	5998.5	
689.52	8151.6	
689.71	8404.2	
689.89	6847.7	
690.08	6487.3	
690.26	8041.7	
690.45	7919.5	
690.63	6972.7	
690.81	6646.3	
691	7982.3	
691.18	7851.2	
691.37	6673.6	
691.55	7959.1	
691.74	7758.4	
691.92	8978.3	
692.1	6705.7	
692.29	6292.7	
692.47	8097.7	
692.66	7526.3	
692.84	6402	
693.02	6641.6	
693.21	7549.5	
693.39	7886.7	
693.58	6777.4	
693.76	6438.8	
693.94	8552.3	
694.13	8529.8	
694.31	6586.3	
694.5	7127.6	
694.68	7829.4	
694.86	8202.1	
695.05	6842.3	
695.23	7186.3	
695.42	8502.5	
695.6	9821.4	
695.78	7312.6	
695.97	6683.9	
696.15	8652.7	
696.34	8165.9	
696.52	6657.3	
696.7	7197.9	
696.89	8322.9	
697.07	7953.6	
697.25	7086	
697.44	7876.5	
697.62	8363.2	
697.81	8398.7	
697.99	6903	
698.17	7083.2	
698.36	7921.5	
698.54	8234.2	
698.72	6962.4	
698.91	6455.2	
699.09	8110	
699.28	7882.6	
699.46	6750.8	
699.64	6674.3	
699.83	7907.2	
700.01	8477.9	
700.19	7258.7	
700.38	6248.4	
700.56	8510.7	
700.74	7959.1	
700.93	6438.1	
701.11	7057.3	
701.29	8299.1	
701.48	8987.2	
701.66	6645.7	
701.84	6763.8	
702.03	8190.5	
702.21	8679.3	
702.39	6507.8	
702.58	6923.5	
702.76	8553	
702.94	8571.4	
703.13	6477	
703.31	8004.1	
703.49	8146.1	
703.68	8734.6	
703.86	6638.1	
704.04	7303.7	
704.23	8405.5	
704.41	8532.5	
704.59	6814.3	
704.78	7321.5	
704.96	9406.3	
705.14	8591.9	
705.33	6688.7	
705.51	7185	
705.69	8105.9	
705.87	8716.2	
706.06	7221.8	
706.24	6580.1	
706.42	8486.8	
706.61	8654	
706.79	7321.5	
706.97	6619	
707.16	8170.7	
707.34	8410.3	
707.52	7235.5	
707.7	6749.4	
707.89	8113.4	
708.07	7975.5	
708.25	7291.5	
708.44	7443	
708.62	8030.8	
708.8	8767.4	
708.98	7373.4	
709.17	6848.4	
709.35	8312	
709.53	8264.2	
709.72	6657.9	
709.9	6705.7	
710.08	8640.4	
710.26	8568	
710.45	7607.5	
710.63	6765.1	
710.81	8198	
710.99	8228.7	
711.18	7079.1	
711.36	6776	
711.54	8133.8	
711.72	8501.8	
711.91	6840.2	
712.09	6486.6	
712.27	8165.9	
712.45	8439	
712.64	6821.1	
712.82	6193.1	
713	7702.4	
713.18	7739.3	
713.37	6232.7	
713.55	6832	
713.73	8194.6	
713.91	7354.3	
714.1	6358.9	
714.28	5963.7	
714.46	7767.9	
714.64	7157	
714.83	5356.8	
715.01	5659.9	
715.19	6949.4	
715.37	6370.5	
715.55	5333.6	
715.74	5490.6	
715.92	7311.9	
716.1	6025.1	
716.28	6092.7	
716.47	5461.9	
716.65	6445.6	
716.83	6437.4	
717.01	5257.1	
717.19	5258.5	
717.38	7674.4	
717.56	6171.2	
717.74	5355.4	
717.92	4841.4	
718.1	6991.1	
718.29	6481.8	
718.47	4687.1	
718.65	5113.8	
718.83	7097.6	
719.01	7075	
719.2	4932.2	
719.38	5691.3	
719.56	7055.3	
719.74	8056.7	
719.92	5525.4	
720.11	5978	
720.29	7206.8	
720.47	6638.1	
720.65	5178.6	
720.83	5545.9	
721.02	6622.4	
721.2	6445	
721.38	5406	
721.56	4884.4	
721.74	5965.1	
721.92	6085.2	
722.11	5630.5	
722.29	5443.5	
722.47	6819.1	
722.65	6410.1	
722.83	4919.2	
723.01	5310.4	
723.2	6341.2	
723.38	6575.3	
723.56	4541.7	
723.74	5271.5	
723.92	6026.5	
724.1	6726.9	
724.29	4842.8	
724.47	5445.5	
724.65	6238.1	
724.83	6015.6	
725.01	4793.6	
725.19	5183.4	
725.37	6023.1	
725.56	5907	
725.74	4664.6	
725.92	4732.9	
726.1	6008.1	
726.28	6255.2	
726.46	4948.6	
726.64	4790.9	
726.83	6226.5	
727.01	6264.7	
727.19	4571.7	
727.37	5111	
727.55	6273.6	
727.73	6559.6	
727.91	4584.7	
728.09	4457.1	
728.28	6525.5	
728.46	6661.4	
728.64	5140.4	
728.82	5085.1	
729	7191.1	
729.18	6826.6	
729.36	4672.8	
729.54	5982.1	
729.72	7324.2	
729.91	6419	
730.09	5830.6	
730.27	5144.5	
730.45	6409.5	
730.63	6750.8	
730.81	5461.2	
730.99	4965	
731.17	7089.4	
731.35	6238.8	
731.53	5158.2	
731.71	5089.2	
731.9	6982.2	
732.08	6860.7	
732.26	5181.4	
732.44	4925.4	
732.62	6976.1	
732.8	6694.1	
732.98	5412.8	
733.16	4762.2	
733.34	6627.2	
733.52	5752.7	
733.7	5049.6	
733.88	5053.7	
734.07	6473.6	
734.25	6393.1	
734.43	4691.2	
734.61	5532.9	
734.79	7266.2	
734.97	6321.4	
735.15	4829.1	
735.33	4943.8	
735.51	6449.1	
735.69	6269.5	
735.87	5659.2	
736.05	5025.7	
736.23	6321.4	
736.41	6122.1	
736.59	4866.7	
736.77	4991.6	
736.95	6639.5	
737.13	6189.6	
737.32	4770.4	
737.5	4874.8	
737.68	6970.6	
737.86	6113.9	
738.04	4585.4	
738.22	5661.3	
738.4	6055.8	
738.58	6247.7	
738.76	4862.6	
738.94	4266.6	
739.12	6116.6	
739.3	5982.1	
739.48	5253	
739.66	5070.8	
739.84	6210.8	
740.02	6138.4	
740.2	4364.2	
740.38	4459.1	
740.56	6370.5	
740.74	5603.2	
740.92	4891.2	
741.1	4775.9	
741.28	5995.8	
741.46	5764.3	
741.64	4591.5	
741.82	4914.4	
742	6012.8	
742.18	5982.8	
742.36	4653.7	
742.54	4438.6	
742.72	6378.7	
742.9	5511.1	
743.08	4791.6	
743.26	4085.7	
743.44	6293.4	
743.62	6214.9	
743.8	4916.5	
743.98	4382	
744.16	6100.2	
744.34	5842.2	
744.52	4838.7	
744.7	4727.4	
744.88	6143.2	
745.06	5773.2	
745.24	4780.6	
745.42	4849.6	
745.6	6225.1	
745.78	6071.5	
745.96	4071.4	
746.14	4280.3	
746.32	6511.9	
746.5	5990.3	
746.68	4506.2	
746.86	4154.6	
747.03	6251.1	
747.21	5329.5	
747.39	4500.8	
747.57	4067.9	
747.75	5791.7	
747.93	5902.9	
748.11	4138.9	
748.29	4078.2	
748.47	6730.3	
748.65	5520	
748.83	4555.4	
749.01	4485.7	
749.19	5808	
749.37	5281.7	
749.55	4343.7	
749.73	4354.7	
749.91	5739.1	
750.09	5517.2	
750.26	4371.7	
750.44	3960.1	
750.62	5674.9	
750.8	5565.7	
750.98	3941.7	
751.16	4052.9	
751.34	5721.3	
751.52	5266.7	
751.7	4495.3	
751.88	3867.9	
752.06	5932.3	
752.24	5750.7	
752.42	3845.4	
752.59	4019.5	
752.77	5582.8	
752.95	6253.8	
753.13	4413.4	
753.31	4066.6	
753.49	5335	
753.67	5554.8	
753.85	4257.7	
754.03	3933.5	
754.21	5695.4	
754.38	5868.1	
754.56	4016.1	
754.74	3425.6	
754.92	5134.3	
755.1	5486.5	
755.28	3364.1	
755.46	3309.5	
755.64	5934.3	
755.82	6003.3	
755.99	3323.9	
756.17	3394.8	
756.35	4305.5	
756.53	5191.6	
756.71	2650.1	
756.89	3478.1	
757.07	4937	
757.25	4432.5	
757.42	3540.9	
757.6	4070.7	
757.78	5070.1	
757.96	4416.1	
758.14	3395.5	
758.32	3159.3	
758.5	4207.2	
758.67	4880.3	
758.85	3297.9	
759.03	3275.4	
759.21	4847.5	
759.39	4433.2	
759.57	3000.3	
759.75	3685	
759.92	5197.1	
760.1	4830.5	
760.28	3934.1	
760.46	4103.4	
760.64	4689.2	
760.82	4601.8	
760.99	3881.6	
761.17	3391.4	
761.35	5273.5	
761.53	4597.7	
761.71	3640.6	
761.89	3865.9	
762.06	5145.9	
762.24	4887.8	
762.42	3590.1	
762.6	3432.4	
762.78	4881	
762.96	5240.8	
763.13	3809.2	
763.31	3623.5	
763.49	5302.2	
763.67	4857.8	
763.85	4094.6	
764.02	4412.7	
764.2	5547.3	
764.38	4937	
764.56	3528.7	
764.74	4027.7	
764.91	5517.2	
765.09	4837.3	
765.27	3453.6	
765.45	3260.4	
765.63	5614.2	
765.8	5440.8	
765.98	3151.1	
766.16	3278.1	
766.34	4604.5	
766.52	4449.6	
766.69	3779.2	
766.87	3250.1	
767.05	4913.8	
767.23	5255.8	
767.41	3407.1	
767.58	3563.5	
767.76	5214.1	
767.94	5257.1	
768.12	3403.7	
768.29	3763.5	
768.47	4829.1	
768.65	5257.1	
768.83	3097.9	
769	3777.1	
769.18	4638.6	
769.36	5033.2	
769.54	3829.7	
769.72	3166.2	
769.89	5309.7	
770.07	5214.8	
770.25	3349.1	
770.43	4130.1	
770.6	5580	
770.78	5877.7	
770.96	3516.4	
771.14	3863.8	
771.31	5161.6	
771.49	4762.2	
771.67	2970.2	
771.85	3056.9	
772.02	4259.1	
772.2	4675.5	
772.38	3529.3	
772.55	3261	
772.73	4879.6	
772.91	4726	
773.09	3389.4	
773.26	3491.1	
773.44	4873.5	
773.62	4674.8	
773.8	3130	
773.97	3052.2	
774.15	4884.4	
774.33	4689.2	
774.5	3083.6	
774.68	3258.3	
774.86	5003.9	
775.04	4629.8	
775.21	3170.3	
775.39	3112.9	
775.57	4831.8	
775.74	4957.4	
775.92	2996.2	
776.1	2923.8	
776.27	4764.3	
776.45	5487.2	
776.63	3100.6	
776.81	2897.2	
776.98	4602.5	
777.16	5165	
777.34	3148.4	
777.51	3336.1	
777.69	4550.6	
777.87	4401.8	
778.04	3270.6	
778.22	3469.3	
778.4	4421.6	
778.57	4801.1	
778.75	2760.7	
778.93	2947.7	
779.1	4310.3	
779.28	4203.8	
779.46	2728.6	
779.64	2988	
779.81	4901.5	
779.99	5425.1	
780.17	3467.2	
780.34	3538.9	
780.52	4634.6	
780.69	4663.2	
780.87	3235.1	
781.05	2964.8	
781.22	4667.3	
781.4	4584.7	
781.58	3078.8	
781.75	2553.1	
781.93	4666.6	
782.11	4169	
782.28	3583.9	
782.46	3012.6	
782.64	4160.1	
782.81	4743.8	
782.99	3108.1	
783.17	3053.5	
783.34	4598.4	
783.52	4287.1	
783.69	3115.6	
783.87	3632.4	
784.05	4295.3	
784.22	4220.2	
784.4	3552.5	
784.58	3230.3	
784.75	4883.7	
784.93	4387.4	
785.1	2986.6	
785.28	3383.2	
785.46	4694.6	
785.63	4154.6	
785.81	3039.2	
785.99	2914.9	
786.16	4396.3	
786.34	4569.7	
786.51	2900.6	
786.69	3196.9	
786.87	4005.8	
787.04	4410.6	
787.22	2873.3	
787.39	3405.1	
787.57	4224.3	
787.75	4851.6	
787.92	3562.8	
788.1	3474.7	
788.27	4193.6	
788.45	4017.4	
788.63	3356.6	
788.8	2563.4	
788.98	4595	
789.15	3902.1	
789.33	2667.1	
789.5	2974.3	
789.68	4754	
789.86	4846.2	
790.03	3231.7	
790.21	2908.1	
790.38	4805.2	
790.56	4242	
790.73	2839.8	
790.91	2821.4	
791.09	4201.7	
791.26	4618.2	
791.44	3026.9	
791.61	2717.7	
791.79	4218.1	
791.96	4207.9	
792.14	2691	
792.32	2512.9	
792.49	4170.3	
792.67	4290.5	
792.84	2798.2	
793.02	2605.7	
793.19	4511.7	
793.37	4851	
793.54	2528.6	
793.72	2688.3	
793.89	4930.8	
794.07	4111.6	
794.25	3003	
794.42	2506.7	
794.6	4816.1	
794.77	4569.7	
794.95	3154.6	
795.12	2866.5	
795.3	4216.1	
795.47	4472.8	
795.65	3063.8	
795.82	2956.6	
796	4056.3	
796.17	5155.4	
796.35	2994.1	
796.52	3381.2	
796.7	4514.4	
796.87	4579.9	
797.05	2904	
797.22	3410.6	
797.4	4554	
797.57	5109.7	
797.75	3004.4	
797.92	2836.4	
798.1	4803.2	
798.27	4033.8	
798.45	2571.6	
798.62	2643.2	
798.8	4431.1	
798.97	4670.1	
799.15	3119.1	
799.32	2959.3	
799.5	3893.2	
799.67	4317.8	
799.85	3210.5	
800.02	2488.3	
800.2	4179.2	
800.37	4312.3	
800.55	3252.2	
800.72	2843.3	
800.9	4630.5	
801.07	4872.8	
801.25	3659	
801.42	3082.9	
801.6	4722.6	
801.77	4328.7	
801.95	2900.6	
802.12	2757.2	
802.29	4472.8	
802.47	4383.3	
802.64	3102.7	
802.82	2473.3	
802.99	4159.4	
803.17	4691.9	
803.34	2977.1	
803.52	2751.1	
803.69	5132.9	
803.87	3930.1	
804.04	2951.8	
804.21	2991.4	
804.39	4876.2	
804.56	4250.2	
804.74	2602.3	
804.91	3067.2	
805.09	4117.8	
805.26	4172.4	
805.44	2695.8	
805.61	2860.3	
805.78	4627.7	
805.96	4582.7	
806.13	3002.3	
806.31	3209.2	
806.48	3825.6	
806.66	4177.2	
806.83	3030.3	
807	2965.5	
807.18	4199	
807.35	4360.1	
807.53	2981.2	
807.7	2528.6	
807.87	4823	
808.05	4108.9	
808.22	3186.6	
808.4	2495.8	
808.57	4085.7	
808.74	3886.4	
808.92	2772.9	
809.09	3435.8	
809.27	4168.3	
809.44	4427	
809.61	2477.4	
809.79	2703.3	
809.96	5001.1	
810.14	4514.4	
810.31	2493.1	
810.48	3212.6	
810.66	4167.6	
810.83	4554.7	
811.01	2749.1	
811.18	3016	
811.35	4612.7	
811.53	3736.2	
811.7	3257.6	
811.87	3034.4	
812.05	4266.6	
812.22	4128.7	
812.39	2755.2	
812.57	2623.4	
812.74	4231.1	
812.92	5116.5	
813.09	2899.9	
813.26	3072	
813.44	4964.3	
813.61	4070.7	
813.78	2512.9	
813.96	3104	
814.13	4182.6	
814.3	4042.7	
814.48	3371	
814.65	2842.6	
814.82	4922.6	
815	3908.9	
815.17	2915.6	
815.34	3437.9	
815.52	4081.6	
815.69	4060.4	
815.87	2855.6	
816.04	2856.2	
816.21	4165.6	
816.38	3826.3	
816.56	2881.5	
816.73	2747	
816.9	5104.2	
817.08	4500.1	
817.25	2790.7	
817.42	3218	
817.6	3881.6	
817.77	4052.2	
817.94	2976.4	
818.12	2718.3	
818.29	4009.9	
818.46	5446.2	
818.64	2806.4	
818.81	2607.1	
818.98	3994.9	
819.16	5230.5	
819.33	3079.5	
819.5	3000.3	
819.67	4376.5	
819.85	4811.4	
820.02	2885.6	
820.19	3045.3	
820.37	4282.3	
820.54	4099.4	
820.71	2970.2	
820.88	3562.8	
821.06	4286.4	
821.23	3960.8	
821.4	2928.6	
821.58	2887.6	
821.75	4506.2	
821.92	4242	
822.09	2491.7	
822.27	2529.9	
822.44	4160.8	
822.61	4050.9	
822.79	2565.4	
822.96	4286.4	
823.13	4353.3	
823.3	3919.1	
823.48	2757.2	
823.65	2536.8	
823.82	4637.3	
823.99	3891.1	
824.17	3481.5	
824.34	2636.4	
824.51	5131.5	
824.68	4166.3	
824.86	2759.3	
825.03	2912.9	
825.2	4181.3	
825.37	4737	
825.55	2708.1	
825.72	2899.2	
825.89	5027.8	
826.06	4810	
826.24	2866.5	
826.41	2918.4	
826.58	4842.8	
826.75	4282.3	
826.92	2457.6	
827.1	2586.6	
827.27	6176.7	
827.44	4999.8	
827.61	2747.7	
827.79	3144.3	
827.96	4007.9	
828.13	4052.9	
828.3	2865.1	
828.47	2458.9	
828.65	4443.4	
828.82	4321.2	
828.99	3461.1	
829.16	3076.7	
829.34	4588.8	
829.51	4487.1	
829.68	2859	
829.85	2970.2	
830.02	4943.8	
830.2	4605.9	
830.37	2320.3	
830.54	3304.1	
830.71	5057.8	
830.88	4220.2	
831.05	2386.6	
831.23	2657.6	
831.4	4956.8	
831.57	5271.5	
831.74	2705.4	
831.91	2443.2	
832.09	4453.6	
832.26	4646.2	
832.43	2714.9	
832.6	3059.7	
832.77	4382	
832.94	4844.1	
833.12	2289.6	
833.29	2699.2	
833.46	4119.8	
833.63	5446.2	
833.8	2982.5	
833.97	2750.4	
834.15	4701.5	
834.32	4553.3	
834.49	2942.2	
834.66	2864.4	
834.83	4645.5	
835	4047.5	
835.17	2723.8	
835.35	2656.2	
835.52	4603.2	
835.69	4432.5	
835.86	2783.9	
836.03	2412.5	
836.2	4664.6	
836.37	4376.5	
836.55	2734.7	
836.72	2628.9	
836.89	4373.8	
837.06	4668	
837.23	2805.7	
837.4	2975.7	
837.57	5113.1	
837.75	5437.4	
837.92	2551.8	
838.09	2746.3	
838.26	4331.5	
838.43	4702.1	
838.6	2904	
838.77	2601.6	
838.94	5231.9	
839.11	5089.2	
839.29	2802.3	
839.46	2306	
839.63	4684.4	
839.8	4403.1	
839.97	2756.6	
840.14	2624.1	
840.31	4534.9	
840.48	4621.6	
840.65	2377.7	
840.82	2660.3	
841	4549.2	
841.17	4481.6	
841.34	2485.6	
841.51	2600.2	
841.68	4580.6	
841.85	4359.4	
842.02	2658.3	
842.19	2276	
842.36	4455.7	
842.53	4524	
842.7	2549.7	
842.87	2928.6	
843.05	5426.4	
843.22	4393.6	
843.39	2422.1	
843.56	2605	
843.73	4324.6	
843.9	4681.7	
844.07	3775.8	
844.24	3231	
844.41	5923.4	
844.58	4113	
844.75	2490.3	
844.92	2632.3	
845.09	4543.8	
845.26	4579.3	
845.43	2499.9	
845.6	2688.3	
845.77	4599.7	
845.94	4408.6	
846.12	2785.9	
846.29	2887	
846.46	4742.4	
846.63	4570.4	
846.8	2560	
846.97	2920.4	
847.14	4860.5	
847.31	4524	
847.48	2848	
847.65	3013.9	
847.82	4656.4	
847.99	4664.6	
848.16	3226.2	
848.33	2964.8	
848.5	4269.3	
848.67	4811.4	
848.84	2452.1	
849.01	2579.1	
849.18	4287.8	
849.35	4003.8	
849.52	2992.8	
849.69	2451.4	
849.86	4810	
850.03	4786.1	
850.2	2537.4	
850.37	2961.4	
850.54	4729.4	
850.71	4329.4	
850.88	2933.4	
851.05	2430.3	
851.22	4496.7	
851.39	4891.9	
851.56	2364.7	
851.73	2841.2	
851.9	4098.7	
852.07	4734.9	
852.24	2720.4	
852.41	2441.9	
852.58	4551.3	
852.75	4136.9	
852.92	2785.2	
853.09	2432.3	
853.26	4190.1	
853.43	4783.4	
853.6	2517	
853.77	2211.1	
853.94	4919.9	
854.11	4106.2	
854.28	3525.9	
854.44	2735.4	
854.61	5093.3	
854.78	4737.6	
854.95	2467.8	
855.12	3039.2	
855.29	3896.6	
855.46	4977.2	
855.63	2529.9	
855.8	3289.7	
855.97	4285.7	
856.14	4794.3	
856.31	3355.9	
856.48	2736.1	
856.65	4382	
856.82	4036.5	
856.99	2481.5	
857.16	2690.3	
857.33	5264	
857.49	4309.6	
857.66	2643.2	
857.83	2806.4	
858	4407.9	
858.17	4461.2	
858.34	2394.8	
858.51	2535.4	
858.68	4911	
858.85	4934.9	
859.02	2889.7	
859.19	2989.4	
859.36	4166.9	
859.52	4116.4	
859.69	2512.9	
859.86	2870.6	
860.03	4095.3	
860.2	4915.1	
860.37	2320.3	
860.54	2537.4	
860.71	4671.4	
860.88	4928.1	
861.05	2755.2	
861.21	3061.7	
861.38	4934.2	
861.55	3966.9	
861.72	2324.4	
861.89	2744.3	
862.06	4700.1	
862.23	4991.6	
862.4	2465.1	
862.56	2575	
862.73	4617.5	
862.9	4400.4	
863.07	2876	
863.24	2329.9	
863.41	4059.1	
863.58	4141	
863.75	2557.9	
863.91	2846	
864.08	4739.7	
864.25	4590.9	
864.42	2968.2	
864.59	3338.2	
864.76	5063.3	
864.93	4123.9	
865.09	2444.6	
865.26	2667.1	
865.43	4904.2	
865.6	5033.9	
865.77	2239.8	
865.94	2458.9	
866.1	4816.1	
866.27	4666	
866.44	3530.7	
866.61	2413.2	
866.78	4369	
866.95	4654.4	
867.11	2482.8	
867.28	2269.8	
867.45	4801.1	
867.62	4087.1	
867.79	2814.6	
867.96	2478	
868.12	4046.1	
868.29	4672.8	
868.46	2458.9	
868.63	3192.8	
868.8	4730.8	
868.97	4641.4	
869.13	2555.9	
869.3	2562	
869.47	4522.6	
869.64	4703.5	
869.81	2521.7	
869.97	2483.5	
870.14	4493.9	
870.31	4932.9	
870.48	2478.7	
870.65	3061.7	
870.81	4346.5	
870.98	4289.1	
871.15	2738.8	
871.32	2553.8	
871.48	4564.9	
871.65	4954.7	
871.82	2476	
871.99	2691.7	
872.16	5192.3	
872.32	4842.1	
872.49	2581.1	
872.66	2544.9	
872.83	4686.4	
872.99	4236.6	
873.16	2777.7	
873.33	2527.2	
873.5	4433.9	
873.67	4472.8	
873.83	2626.2	
874	3166.2	
874.17	4558.1	
874.34	5050.3	
874.5	3097.9	
874.67	2942.9	
874.84	4860.5	
875.01	3995.6	
875.17	3359.4	
875.34	2471.9	
875.51	4472.8	
875.68	5296	
875.84	2880.1	
876.01	3409.9	
876.18	4608.6	
876.34	4629.8	
876.51	2465.1	
876.68	2496.5	
876.85	4302.8	
877.01	4809.3	
877.18	3367.5	
877.35	2437.8	
877.52	4556.7	
877.68	4082.3	
877.85	2478	
878.02	2466.4	
878.18	4192.9	
878.35	4273.4	
878.52	2077.3	
878.69	2854.2	
878.85	4771.1	
879.02	4667.3	
879.19	3353.9	
879.35	2643.2	
879.52	4625.7	
879.69	4759.5	
879.86	2228.2	
880.02	2729.9	
880.19	4394.3	
880.36	5169.1	
880.52	2754.5	
880.69	2895.1	
880.86	4702.8	
881.02	4711	
881.19	2660.3	
881.36	2644.6	
881.52	4668.7	
881.69	4213.4	
881.86	2729.3	
882.02	2661.7	
882.19	4756.7	
882.36	5386.2	
882.52	2544.3	
882.69	3309.5	
882.86	4502.8	
883.02	4530.8	
883.19	2882.9	
883.36	2792.1	
883.52	4700.8	
883.69	5127.4	
883.86	2532.7	
884.02	2349.7	
884.19	4647.5	
884.36	4476.2	
884.52	2788.7	
884.69	2676.7	
884.86	4266.6	
885.02	4978.6	
885.19	2766.1	
885.36	2754.5	
885.52	4375.1	
885.69	4549.2	
885.86	3425.6	
886.02	3076	
886.19	4668.7	
886.35	4252.9	
886.52	2676	
886.69	3280.8	
886.85	4098	
887.02	4838	
887.19	4838	
887.35	4838	
887.52	4838	
887.68	4838	
887.85	4838	
888.02	4838	
888.18	4838	
888.35	4838	
888.51	4838	
888.68	4838	
888.85	4838	
889.01	4838	
889.18	4838	
889.35	4838	
889.51	4838	
889.68	4838	
889.84	4838	
890.01	4838	
890.17	4838	
890.34	4838	
890.51	4838	
890.67	4838	
890.84	4838	
891	4838	
891.17	4838	
891.34	4838	
891.5	4838	
891.67	4838	
891.83	4838	
892	4838	
892.16	4838	
892.33	4838	
892.5	4838	
892.66	4838	
892.83	4838	
892.99	4838	
893.16	4838	
893.32	4838	
893.49	4838	
893.65	4838	
893.82	4838	
893.99	4838	
894.15	4838	
894.32	4838	
894.48	4838	
894.65	4838	
894.81	4838	
894.98	4838	
895.14	4838	
895.31	4838	
895.47	4838	
895.64	4838	
895.81	4838	
895.97	4838	
896.14	4838	
896.3	4838	
896.47	4838	
896.63	4838	
896.8	4838	
896.96	4838	
897.13	4838	
897.29	4838	
897.46	4838	
897.62	4838	
897.79	4838	
897.95	4838	
898.12	4838	
898.28	4838	
898.45	4838	
898.61	4838	
898.78	4838	
898.94	4838	
899.11	4838	
899.27	4838	
899.44	4838	
899.6	4838	
899.77	4838	
899.93	4838	
900.1	4838	
900.26	4838	
900.43	4838	
900.59	4838	
900.76	4838	
900.92	4838	
901.09	4838	
901.25	4838	
901.42	4838	
901.58	4838	
901.75	4838	
901.91	4838	
902.07	4838	
902.24	4838	
902.4	4838	
902.57	4838	
902.73	4838	
902.9	4838	
903.06	4838	
903.23	4838	
903.39	4838	
903.56	4838	
903.72	4838	
903.88	4838	
904.05	4838	
904.21	4838	
904.38	4838	
904.54	4838	
904.71	4838	
904.87	4838	
905.03	4838	
905.2	4838	
905.36	4838	
905.53	4838	
905.69	4838	
905.86	4838	
906.02	4838	
906.18	4838	
906.35	4838	
906.51	4838	
906.68	4838	
906.84	4838	
907.01	4838	
907.17	4838	
907.33	4838	
907.5	4838	
907.66	4838	
907.83	4838	
907.99	4838	
908.15	4838	
908.32	4838	
908.48	4838	
908.65	4838	
908.81	4838	
908.97	4838	
909.14	4838	
909.3	4838	
909.47	4838	
909.63	4838	
909.79	4838	
909.96	4838	
910.12	4838	
910.28	4838	
910.45	4838	
910.61	4838	
910.78	4838	
910.94	4838	
911.1	4838	
911.27	4838	
911.43	4838	
911.59	4838	
911.76	4838	
911.92	4838	
912.08	4838	
912.25	4838	
912.41	4838	
912.57	4838	
912.74	4838	
912.9	4838	
913.07	4838	
913.23	4838	
913.39	4838	
913.56	4838	
913.72	4838	
913.88	4838	
914.05	4838	
914.21	4838	
914.37	4838	
914.54	4838	
914.7	4838	
914.86	4838	
915.03	4838	
915.19	4838	
