Wavelength	Intensities	
nm	a.u.	
179.22	1921.8	
179.44	1926.1	
179.65	1917.6	
179.86	1934.6	
180.08	1929.9	
180.29	5113.8	
180.51	3571	
180.72	5778.7	
180.94	6756.2	
181.15	3325.2	
181.37	3257.6	
181.58	5591	
181.79	5935.7	
182.01	3444.7	
182.22	3719.1	
182.44	5933	
182.65	4896.7	
182.87	4670.1	
183.08	4154.6	
183.29	6235.4	
183.51	5105.6	
183.72	3781.2	
183.94	5567.1	
184.15	5433.3	
184.37	5513.1	
184.58	3297.2	
184.79	4589.5	
185.01	5100.1	
185.22	5911.8	
185.44	4827.7	
185.65	4071.4	
185.86	5368.4	
186.08	4943.1	
186.29	3173	
186.51	3480.9	
186.72	5117.9	
186.94	6010.8	
187.15	3923.9	
187.36	4136.2	
187.58	8026.7	
187.79	5593.7	
188.01	4371	
188.22	6778.1	
188.43	6746	
188.65	5863.3	
188.86	3452.2	
189.08	4111	
189.29	5313.8	
189.5	5307	
189.72	3796.9	
189.93	3850.9	
190.15	6053.1	
190.36	7310.6	
190.57	4198.3	
190.79	4153.3	
191	6242.9	
191.22	6145.3	
191.43	4242.7	
191.64	3454.9	
191.86	6376.7	
192.07	6122.1	
192.29	3624.9	
192.5	3879.5	
192.71	6040.1	
192.93	5214.1	
193.14	3749.8	
193.35	3899.3	
193.57	5281	
193.78	6119.3	
194	3029.6	
194.21	3730.7	
194.42	5054.4	
194.64	5549.3	
194.85	4134.2	
195.07	4925.4	
195.28	5634	
195.49	4842.8	
195.71	5134.3	
195.92	3553.2	
196.13	5683.8	
196.35	5879	
196.56	5479.7	
196.78	4148.5	
196.99	7317.4	
197.2	6789.7	
197.42	4739.7	
197.63	4214.7	
197.84	4971.1	
198.06	5675.6	
198.27	3840.6	
198.48	5198.4	
198.7	5270.8	
198.91	5413.5	
199.13	4125.3	
199.34	4199.7	
199.55	5945.9	
199.77	4815.5	
199.98	3624.9	
200.19	4247.5	
200.41	5365	
200.62	5105.6	
200.83	4403.1	
201.05	4713.1	
201.26	5461.9	
201.47	5123.3	
201.69	3700.7	
201.9	3549.1	
202.11	5474.9	
202.33	6537.1	
202.54	4005.8	
202.76	4403.8	
202.97	5657.2	
203.18	5641.5	
203.4	4383.3	
203.61	4249.5	
203.82	5556.1	
204.04	5139	
204.25	4225.6	
204.46	4141	
204.68	5511.8	
204.89	5797.8	
205.1	4078.2	
205.32	3554.6	
205.53	5978	
205.74	6090.7	
205.96	3013.2	
206.17	4297.3	
206.38	5937.1	
206.6	6075	
206.81	4788.8	
207.02	3890.5	
207.24	5815.5	
207.45	6307.7	
207.66	3986.7	
207.88	3392.1	
208.09	5765.7	
208.3	5568.4	
208.52	3609.2	
208.73	4045.4	
208.94	5550.7	
209.15	6270.2	
209.37	4034.5	
209.58	4216.1	
209.79	6086.6	
210.01	5359.5	
210.22	3175	
210.43	3300	
210.65	5569.8	
210.86	5961	
211.07	3957.4	
211.29	3629	
211.5	5905	
211.71	5475.6	
211.93	3632.4	
212.14	3655.6	
212.35	5427.8	
212.56	5769.8	
212.78	4199	
212.99	3419.4	
213.2	6515.3	
213.42	5245.5	
213.63	3755.3	
213.84	4070.7	
214.06	4899.4	
214.27	5010	
214.48	3997.6	
214.69	4289.1	
214.91	6230.6	
215.12	6297.5	
215.33	4273.4	
215.55	4770.4	
215.76	6829.3	
215.97	5901.6	
216.18	4104.8	
216.4	4040.6	
216.61	5182.7	
216.82	6068.8	
217.04	3709.6	
217.25	3801	
217.46	6241.5	
217.67	5995.1	
217.89	3315	
218.1	3430.3	
218.31	5601.2	
218.53	5684.5	
218.74	3827.7	
218.95	3706.1	
219.16	5496.7	
219.38	6492.1	
219.59	3764.2	
219.8	4473.4	
220.01	7208.8	
220.23	5615.5	
220.44	4969.1	
220.65	3667.2	
220.87	5584.1	
221.08	6164.4	
221.29	3365.5	
221.5	4523.3	
221.72	7628	
221.93	5267.4	
222.14	4209.3	
222.35	4963.6	
222.57	5530.9	
222.78	5881.8	
222.99	3999.7	
223.2	4334.9	
223.42	5839.4	
223.63	5906.3	
223.84	3064.4	
224.05	3036.5	
224.27	7144	
224.48	6439.5	
224.69	4971.8	
224.9	4194.2	
225.12	5739.1	
225.33	5494.7	
225.54	3357.3	
225.75	3761.4	
225.97	5091.3	
226.18	5373.9	
226.39	4049.5	
226.6	3787.4	
226.82	5265.3	
227.03	5119.2	
227.24	4199.7	
227.45	3459	
227.67	5892	
227.88	6511.2	
228.09	4730.1	
228.3	4667.3	
228.52	6001.9	
228.73	5493.3	
228.94	3921.9	
229.15	3500.7	
229.36	5410.1	
229.58	5360.9	
229.79	3875.4	
230	4630.5	
230.21	6591	
230.43	5601.9	
230.64	4158.7	
230.85	4308.9	
231.06	5997.1	
231.28	5967.8	
231.49	3477.5	
231.7	4075.5	
231.91	5844.2	
232.12	5592.3	
232.34	3545.7	
232.55	4042	
232.76	6246.3	
232.97	5694.7	
233.18	3635.8	
233.4	4137.6	
233.61	5795.8	
233.82	5212.1	
234.03	3844	
234.25	3820.8	
234.46	7748.8	
234.67	5515.2	
234.88	4261.8	
235.09	3691.8	
235.31	5915.2	
235.52	5401.9	
235.73	4109.6	
235.94	3512.9	
236.15	5251	
236.37	6784.9	
236.58	3712.3	
236.79	4009.2	
237	5901.6	
237.21	5009.3	
237.43	4357.4	
237.64	3372.3	
237.85	10245	
238.06	5072.8	
238.27	4423.6	
238.48	3497.9	
238.7	5875.6	
238.91	5374.6	
239.12	3991.5	
239.33	4094.6	
239.54	5239.4	
239.76	5446.2	
239.97	3976.5	
240.18	4012.7	
240.39	7012.9	
240.6	5809.4	
240.82	4154	
241.03	3411.2	
241.24	5550	
241.45	6465.4	
241.66	3663.8	
241.87	4336.9	
242.09	6340.5	
242.3	6782.9	
242.51	4381.3	
242.72	4036.5	
242.93	5993	
243.14	5466.7	
243.36	4633.9	
243.57	5064.6	
243.78	6485.9	
243.99	5902.9	
244.2	4050.2	
244.41	3646.7	
244.63	5083.1	
244.84	5885.9	
245.05	4259.8	
245.26	4054.3	
245.47	5789.6	
245.68	6126.8	
245.9	5375.2	
246.11	4188.8	
246.32	5387.5	
246.53	5819.6	
246.74	6551.5	
246.95	3405.8	
247.16	5070.8	
247.38	5494.7	
247.59	3354.6	
247.8	4049.5	
248.01	5160.2	
248.22	5498.1	
248.43	3624.2	
248.64	3908.2	
248.86	4876.2	
249.07	5279	
249.28	3493.2	
249.49	4096.6	
249.7	6155.5	
249.91	6250.4	
250.12	3347.1	
250.34	3438.5	
250.55	5629.2	
250.76	5509	
250.97	4146.5	
251.18	4166.3	
251.39	6288.6	
251.6	5735.7	
251.81	4317.1	
252.03	4272.7	
252.24	5253	
252.45	6109.8	
252.66	3474.7	
252.87	4453	
253.08	5544.5	
253.29	7364.5	
253.5	3470.6	
253.72	4902.8	
253.93	5367.7	
254.14	6614.3	
254.35	3799	
254.56	3930.7	
254.77	5773.2	
254.98	5111	
255.19	3769.6	
255.41	4861.9	
255.62	5644.9	
255.83	6186.2	
256.04	4343.7	
256.25	4207.9	
256.46	6881.2	
256.67	5165.7	
256.88	4150.6	
257.09	4633.2	
257.31	5182.7	
257.52	5240.8	
257.73	5224.4	
257.94	3801	
258.15	5396.4	
258.36	5610.1	
258.57	4876.9	
258.78	3013.2	
258.99	6110.5	
259.2	5403.9	
259.41	3907.5	
259.63	3949.2	
259.84	6432.7	
260.05	6901	
260.26	5104.9	
260.47	3721.8	
260.68	6171.2	
260.89	5435.3	
261.1	4655.7	
261.31	3656.3	
261.52	6121.4	
261.73	6554.2	
261.95	5023	
262.16	4358.8	
262.37	6218.3	
262.58	6404	
262.79	4992.9	
263	3962.1	
263.21	5543.9	
263.42	5003.2	
263.63	3943	
263.84	3917.1	
264.05	6152.1	
264.26	6496.8	
264.47	4848.9	
264.69	4373.1	
264.9	6241.5	
265.11	5737.7	
265.32	3697.9	
265.53	3837.2	
265.74	5672.2	
265.95	4884.4	
266.16	4158.7	
266.37	4548.5	
266.58	5630.5	
266.79	5307.7	
267	3801.7	
267.21	3523.2	
267.42	5063.3	
267.63	5537.7	
267.84	4025.6	
268.06	3452.9	
268.27	6023.8	
268.48	6276.3	
268.69	3866.6	
268.9	4668	
269.11	6294.8	
269.32	5016.2	
269.53	4066.6	
269.74	3710.9	
269.95	5909.1	
270.16	4872.8	
270.37	4028.4	
270.58	4642.7	
270.79	5379.3	
271	6132.3	
271.21	4323.3	
271.42	4072.7	
271.63	5714.5	
271.84	5173.9	
272.05	3137.5	
272.26	3576.4	
272.47	5551.4	
272.68	5752.1	
272.89	3855	
273.11	4489.8	
273.32	5353.4	
273.53	6534.4	
273.74	4373.8	
273.95	4282.3	
274.16	6226.5	
274.37	5633.3	
274.58	4382	
274.79	3477.5	
275	5662.6	
275.21	6267.5	
275.42	5322	
275.63	4596.3	
275.84	5807.4	
276.05	7405.5	
276.26	4284.4	
276.47	4003.8	
276.68	5358.2	
276.89	6530.3	
277.1	4575.8	
277.31	3511.6	
277.52	5786.9	
277.73	5963	
277.94	3474	
278.15	3886.4	
278.36	5772.5	
278.57	5189.6	
278.78	3896.6	
278.99	4415.4	
279.2	5134.9	
279.41	5128.8	
279.62	5092.6	
279.83	3513.6	
280.04	6838.2	
280.25	5016.8	
280.46	4999.1	
280.67	4043.4	
280.88	5152	
281.09	6266.8	
281.3	4225	
281.51	5382.1	
281.72	5264	
281.93	6131.6	
282.14	3706.8	
282.35	4031.1	
282.56	6051.1	
282.77	6100.9	
282.98	3866.6	
283.19	4783.4	
283.4	7529.7	
283.61	5526.8	
283.82	3558.7	
284.03	5001.8	
284.24	5664.7	
284.45	6195.8	
284.66	4999.1	
284.87	4854.4	
285.08	6156.2	
285.29	6270.9	
285.5	3431	
285.71	3959.4	
285.92	6254.5	
286.12	6912.6	
286.33	4989.5	
286.54	3923.9	
286.75	6049	
286.96	5429.2	
287.17	3533.4	
287.38	4958.8	
287.59	5135.6	
287.8	5066.7	
288.01	3984	
288.22	4532.2	
288.43	6158.9	
288.64	5076.2	
288.85	4730.8	
289.06	4451.6	
289.27	5986.9	
289.48	6554.9	
289.69	5036.6	
289.9	4567.7	
290.11	6274.3	
290.32	5200.5	
290.53	4764.9	
290.74	4416.1	
290.94	6043.6	
291.15	6200.6	
291.36	3782.6	
291.57	4461.8	
291.78	5303.6	
291.99	4944.5	
292.2	3639.2	
292.41	4403.1	
292.62	6155.5	
292.83	5928.2	
293.04	5457.2	
293.25	3673.4	
293.46	5307	
293.67	6202.6	
293.88	3776.5	
294.09	3627.6	
294.29	5011.4	
294.5	5713.2	
294.71	4060.4	
294.92	3818.8	
295.13	5259.2	
295.34	6698.2	
295.55	3343.7	
295.76	3528	
295.97	6004	
296.18	6828.6	
296.39	3558.7	
296.6	3730.7	
296.81	5685.8	
297.01	5968.5	
297.22	3936.9	
297.43	3726.6	
297.64	5113.8	
297.85	5155.4	
298.06	3067.9	
298.27	3404.4	
298.48	5615.5	
298.69	5227.1	
298.9	4079.6	
299.11	3670.6	
299.31	5019.6	
299.52	5070.1	
299.73	4378.6	
299.94	4279.6	
300.15	5538.4	
300.36	5130.8	
300.57	4334.2	
300.78	4219.5	
300.99	5443.5	
301.2	5638.7	
301.4	3728	
301.61	4104.8	
301.82	5913.9	
302.03	6034	
302.24	4622.3	
302.45	3543	
302.66	5811.5	
302.87	6368.5	
303.08	3824.9	
303.29	5155.4	
303.49	5297.4	
303.7	5580	
303.91	3365.5	
304.12	4962.9	
304.33	5072.1	
304.54	5659.2	
304.75	3744.4	
304.96	3609.9	
305.16	5889.3	
305.37	6681.2	
305.58	3313.6	
305.79	3416	
306	5891.3	
306.21	4984.1	
306.42	3786.7	
306.63	5844.9	
306.83	5421.7	
307.04	6205.3	
307.25	4171	
307.46	4180.6	
307.67	4691.9	
307.88	6061.3	
308.09	3659	
308.29	3845.4	
308.5	5653.1	
308.71	6213.5	
308.92	4035.2	
309.13	3595.6	
309.34	5425.1	
309.55	5486.5	
309.75	4752	
309.96	4348.5	
310.17	6042.9	
310.38	5224.4	
310.59	4579.9	
310.8	3571	
311.01	5422.3	
311.21	5374.6	
311.42	3635.8	
311.63	3665.9	
311.84	5266	
312.05	5705.6	
312.26	4205.2	
312.46	4678.2	
312.67	5337	
312.88	5074.9	
313.09	3664.5	
313.3	3549.8	
313.51	6397.2	
313.71	6803.4	
313.92	3607.2	
314.13	3859.1	
314.34	5714.5	
314.55	5462.6	
314.76	4670.1	
314.96	4046.8	
315.17	5565.7	
315.38	5976.7	
315.59	3646.1	
315.8	3467.2	
316.01	6496.2	
316.21	6516.6	
316.42	3508.9	
316.63	4060.4	
316.84	5393.7	
317.05	6328.9	
317.26	4337.6	
317.46	3873.4	
317.67	5452.4	
317.88	5941.8	
318.09	4618.9	
318.3	3403.7	
318.5	5218.2	
318.71	5896.8	
318.92	5976.7	
319.13	4347.8	
319.34	6055.2	
319.54	6261.3	
319.75	3416.7	
319.96	3204.4	
320.17	5954.8	
320.38	6207.4	
320.58	3274.7	
320.79	4000.4	
321	6102.3	
321.21	6212.2	
321.42	4061.8	
321.62	3316.3	
321.83	5078.3	
322.04	5571.8	
322.25	3884.3	
322.46	3675.4	
322.66	5708.4	
322.87	5797.8	
323.08	4496	
323.29	3577.8	
323.5	6648.4	
323.7	5094.7	
323.91	5012.7	
324.12	4508.3	
324.33	5670.1	
324.53	5849.7	
324.74	4347.2	
324.95	4500.8	
325.16	4948.6	
325.37	5332.9	
325.57	3659.7	
325.78	3703.4	
325.99	5591.6	
326.2	5061.2	
326.4	5350.7	
326.61	3376.4	
326.82	5423	
327.03	5692.7	
327.24	5218.9	
327.44	4967	
327.65	5811.5	
327.86	4749.9	
328.07	4345.1	
328.27	3491.8	
328.48	6301.6	
328.69	5117.9	
328.9	5317.2	
329.1	3908.2	
329.31	5487.2	
329.52	6397.2	
329.73	3659	
329.93	4134.2	
330.14	5533.6	
330.35	5847	
330.56	6075	
330.76	4572.4	
330.97	5361.6	
331.18	5811.5	
331.39	4022.9	
331.59	3295.9	
331.8	6210.8	
332.01	6343.2	
332.22	3778.5	
332.42	4368.3	
332.63	5674.9	
332.84	5196.4	
333.05	4105.5	
333.25	3708.9	
333.46	5266	
333.67	5573.9	
333.88	3764.2	
334.08	4194.9	
334.29	7458.7	
334.5	6252.4	
334.7	3556	
334.91	5269.4	
335.12	5097.4	
335.33	6035.4	
335.53	4009.9	
335.74	6121.4	
335.95	5339.7	
336.16	5173.9	
336.36	4103.4	
336.57	4741.7	
336.78	5031.2	
336.98	6159.6	
337.19	5059.2	
337.4	4016.1	
337.61	6776	
337.81	5092.6	
338.02	3743.7	
338.23	4892.6	
338.43	6328.2	
338.64	5188.9	
338.85	3703.4	
339.05	4795.7	
339.26	6508.4	
339.47	4987.5	
339.68	3665.2	
339.88	5494	
340.09	5834	
340.3	6096.1	
340.5	4275.5	
340.71	3277.4	
340.92	4991.6	
341.13	6355.5	
341.33	3562.1	
341.54	4357.4	
341.75	5774.6	
341.95	5445.5	
342.16	4186.7	
342.37	4468	
342.57	5093.3	
342.78	5581.4	
342.99	4579.3	
343.19	3284.9	
343.4	6010.8	
343.61	5823.7	
343.81	3958	
344.02	3596.9	
344.23	6034.7	
344.43	6478.4	
344.64	4530.8	
344.85	4448.9	
345.06	5872.2	
345.26	6143.2	
345.47	4248.2	
345.68	4997.7	
345.88	4863.9	
346.09	6066.1	
346.3	4378.6	
346.5	3219.4	
346.71	5509	
346.92	5284.4	
347.12	3323.9	
347.33	4301.4	
347.54	6123.4	
347.74	6577.4	
347.95	4240.7	
348.16	3107.5	
348.36	5327.4	
348.57	5176.6	
348.78	4192.2	
348.98	4494.6	
349.19	5539.1	
349.39	5034.6	
349.6	3292.5	
349.81	3726.6	
350.01	5829.9	
350.22	5257.8	
350.43	4089.1	
350.63	4954.7	
350.84	5592.3	
351.05	5367.7	
351.25	3736.2	
351.46	3376.4	
351.67	6189.6	
351.87	5201.8	
352.08	4001.7	
352.29	4553.3	
352.49	6079.1	
352.7	5713.2	
352.9	3540.9	
353.11	4458.4	
353.32	6790.4	
353.52	5366.4	
353.73	3478.1	
353.94	4526	
354.14	5885.9	
354.35	5720	
354.55	3637.2	
354.76	4087.7	
354.97	5875.6	
355.17	5591.6	
355.38	3474	
355.59	4789.5	
355.79	5244.2	
356	5682.4	
356.2	4037.2	
356.41	3491.1	
356.62	4913.1	
356.82	5444.2	
357.03	4334.9	
357.24	3889.1	
357.44	5241.4	
357.65	5352	
357.85	5244.8	
358.06	4033.8	
358.27	4956.8	
358.47	5150	
358.68	3378.5	
358.88	4343.1	
359.09	5786.2	
359.3	6201.9	
359.5	4952	
359.71	4437.9	
359.91	6733.7	
360.12	6025.8	
360.33	4240	
360.53	4788.8	
360.74	5171.1	
360.94	5257.1	
361.15	4499.4	
361.36	3659.7	
361.56	6073.6	
361.77	5433.3	
361.97	4964.3	
362.18	3878.9	
362.38	6090	
362.59	5046.9	
362.8	3635.1	
363	3425.6	
363.21	4908.3	
363.41	5574.6	
363.62	4080.2	
363.83	5270.1	
364.03	5641.5	
364.24	6657.3	
364.44	5350	
364.65	5241.4	
364.85	5345.2	
365.06	4928.8	
365.27	3730	
365.47	3800.3	
365.68	6435.4	
365.88	5359.5	
366.09	4180.6	
366.29	3858.4	
366.5	5616.2	
366.71	6059.3	
366.91	5228.5	
367.12	4360.1	
367.32	6696.9	
367.53	5928.9	
367.73	4308.9	
367.94	5319.3	
368.14	5954.1	
368.35	6890	
368.56	4297.3	
368.76	3622.2	
368.97	5959.6	
369.17	7771.4	
369.38	3751.9	
369.58	4054.3	
369.79	4960.9	
369.99	6381.5	
370.2	5105.6	
370.4	4117.8	
370.61	5666.7	
370.82	6932.4	
371.02	3952.6	
371.23	3361.4	
371.43	4821.6	
371.64	6255.9	
371.84	4063.2	
372.05	5363.6	
372.25	7774.1	
372.46	6031.3	
372.66	3998.3	
372.87	3952.6	
373.07	6065.4	
373.28	7747.5	
373.48	5143.1	
373.69	4755.4	
373.9	5445.5	
374.1	5488.6	
374.31	5025.7	
374.51	4513	
374.72	6352.1	
374.92	5080.3	
375.13	5245.5	
375.33	4290.5	
375.54	5922.7	
375.74	5272.8	
375.95	4372.4	
376.15	5680.4	
376.36	5907.7	
376.56	5644.9	
376.77	4462.5	
376.97	4945.2	
377.18	6952.2	
377.38	5953.4	
377.59	5319.9	
377.79	3893.2	
378	5724.1	
378.2	6206.7	
378.41	3971.7	
378.61	3837.9	
378.82	6300.2	
379.02	5284.4	
379.23	4121.2	
379.43	5283.8	
379.64	6298.2	
379.84	5898.8	
380.05	3958.7	
380.25	3865.9	
380.46	6008.7	
380.66	5537.7	
380.87	5369.8	
381.07	5713.2	
381.28	6694.1	
381.48	6030.6	
381.69	3964.2	
381.89	4024.3	
382.1	4865.3	
382.3	6264.7	
382.51	5240.8	
382.71	6159.6	
382.91	6124.8	
383.12	6564.4	
383.32	4315.8	
383.53	4600.4	
383.73	5969.8	
383.94	5638.7	
384.14	4497.3	
384.35	3609.9	
384.55	5616.9	
384.76	6086.6	
384.96	4371.7	
385.17	4749.9	
385.37	6013.5	
385.58	5335.6	
385.78	4790.9	
385.98	3474.7	
386.19	5551.4	
386.39	5884.5	
386.6	4151.2	
386.8	4373.8	
387.01	5991.7	
387.21	6031.3	
387.42	4906.9	
387.62	5451	
387.83	5268.1	
388.03	5991.7	
388.23	4433.9	
388.44	5321.3	
388.64	4913.1	
388.85	5056.4	
389.05	4818.9	
389.26	5442.8	
389.46	7083.9	
389.67	6427.9	
389.87	4769.7	
390.07	4841.4	
390.28	5609.4	
390.48	5221	
390.69	3972.4	
390.89	4209.9	
391.1	5337	
391.3	6376.7	
391.5	5526.1	
391.71	6270.9	
391.91	6156.9	
392.12	7210.2	
392.32	5639.4	
392.53	4812	
392.73	5403.2	
392.93	5676.3	
393.14	4442.7	
393.34	5298.1	
393.55	6275.7	
393.75	5666	
393.95	4438.6	
394.16	4387.4	
394.36	5349.3	
394.57	6126.8	
394.77	3897.3	
394.98	4343.1	
395.18	5264.6	
395.38	5443.5	
395.59	5283.8	
395.79	4128.7	
396	5429.8	
396.2	5975.3	
396.4	5029.1	
396.61	4961.5	
396.81	6229.9	
397.02	5368.4	
397.22	5254.4	
397.42	5317.2	
397.63	6113.2	
397.83	5324.7	
398.04	4074.8	
398.24	4576.5	
398.44	5932.3	
398.65	4882.4	
398.85	3888.4	
399.05	4009.2	
399.26	5220.3	
399.46	7131	
399.67	4442.7	
399.87	4139.6	
400.07	5683.8	
400.28	6081.1	
400.48	4205.8	
400.69	5387.5	
400.89	6244.9	
401.09	6705	
401.3	4034.5	
401.5	5294	
401.7	6919.4	
401.91	7208.2	
402.11	4455	
402.32	4757.4	
402.52	6307.7	
402.72	6275	
402.93	4998.4	
403.13	3687	
403.33	7098.9	
403.54	5757.5	
403.74	4632.5	
403.94	5575.9	
404.15	5866.7	
404.35	7044.3	
404.56	4428.4	
404.76	6358.9	
404.96	6301.6	
405.17	6071.5	
405.37	5440.1	
405.57	4914.4	
405.78	6352.1	
405.98	5784.8	
406.18	4447.5	
406.39	5337	
406.59	6283.2	
406.79	5921.4	
407	4196.3	
407.2	4310.3	
407.4	6239.5	
407.61	6554.2	
407.81	4354.7	
408.01	6754.2	
408.22	5165	
408.42	7357	
408.62	5476.3	
408.83	4787.5	
409.03	5735.7	
409.23	5535	
409.44	4924.7	
409.64	5285.8	
409.84	6817	
410.05	6647.7	
410.25	5031.2	
410.45	4803.2	
410.66	6006.7	
410.86	8749.6	
411.06	5207.3	
411.27	5110.4	
411.47	8448.6	
411.67	6272.9	
411.88	5302.2	
412.08	5584.8	
412.28	6993.8	
412.49	7473.7	
412.69	5031.2	
412.89	5075.5	
413.09	7264.8	
413.3	7150.1	
413.5	5196.4	
413.7	4657.1	
413.91	6262	
414.11	7163.8	
414.31	4909.7	
414.52	5373.9	
414.72	6861.4	
414.92	6724.8	
415.12	4942.4	
415.33	5477.6	
415.53	7156.3	
415.73	7421.2	
415.94	5929.6	
416.14	5281	
416.34	6050.4	
416.55	5733.6	
416.75	6578.1	
416.95	5854.5	
417.15	7087.3	
417.36	8005.5	
417.56	6766.5	
417.76	5715.2	
417.97	7567.9	
418.17	7191.1	
418.37	5255.1	
418.57	5350.7	
418.78	6866.2	
418.98	6677.1	
419.18	6232	
419.38	6214.2	
419.59	6654.5	
419.79	6279.1	
419.99	5225.1	
420.2	5659.9	
420.4	7157	
420.6	7426.6	
420.8	5080.3	
421.01	4943.8	
421.21	7001.3	
421.41	7210.2	
421.61	5627.1	
421.82	5219.6	
422.02	6468.2	
422.22	7544.7	
422.42	6121.4	
422.63	5727.5	
422.83	6632.7	
423.03	7885.4	
423.23	5722.7	
423.44	4595.6	
423.64	6673	
423.84	6438.1	
424.04	5160.9	
424.25	4807.9	
424.45	7722.2	
424.65	7543.4	
424.85	4547.9	
425.06	5246.9	
425.26	7705.8	
425.46	6124.1	
425.66	5737.7	
425.87	5375.9	
426.07	7436.2	
426.27	7263.5	
426.47	5550.7	
426.67	4834.6	
426.88	7766.6	
427.08	7105.8	
427.28	5697.4	
427.48	4801.8	
427.69	6016.2	
427.89	6713.9	
428.09	5785.5	
428.29	4944.5	
428.5	7525.6	
428.7	6933.7	
428.9	4671.4	
429.1	5341.8	
429.3	6842.9	
429.51	7347.4	
429.71	5082.4	
429.91	5976.7	
430.11	7118.1	
430.31	7425.9	
430.52	5438.7	
430.72	5665.4	
430.92	7811.6	
431.12	7201.3	
431.32	5089.9	
431.53	5497.4	
431.73	6046.3	
431.93	7891.5	
432.13	4936.3	
432.33	4815.5	
432.54	6525.5	
432.74	6985.6	
432.94	4762.9	
433.14	5853.8	
433.34	7065.5	
433.55	6518.7	
433.75	5828.5	
433.95	7711.3	
434.15	6845.7	
434.35	6548.7	
434.56	4981.3	
434.76	4427.7	
434.96	6942.6	
435.16	7084.6	
435.36	4796.3	
435.56	6006	
435.77	6466.8	
435.97	6659.3	
436.17	6748.1	
436.37	6029.9	
436.57	6414.9	
436.78	6311.2	
436.98	7852.6	
437.18	6526.2	
437.38	7197.2	
437.58	6768.5	
437.78	6771.9	
437.99	5271.5	
438.19	7221.1	
438.39	8024.6	
438.59	5132.9	
438.79	4713.1	
438.99	7883.3	
439.2	6649.8	
439.4	4840	
439.6	4738.3	
439.8	6997.2	
440	8187.8	
440.2	5844.9	
440.4	6084.5	
440.61	7419.8	
440.81	7950.9	
441.01	4935.6	
441.21	5937.1	
441.41	7783.6	
441.61	7385	
441.81	6286.6	
442.02	7344.7	
442.22	8387.1	
442.42	7492.8	
442.62	5027.8	
442.82	5066	
443.02	7802.1	
443.22	6784.2	
443.43	5548.6	
443.63	5074.9	
443.83	6619	
444.03	6647	
444.23	6428.6	
444.43	6044.2	
444.63	6982.9	
444.83	8314.8	
445.04	5139.7	
445.24	6589.7	
445.44	7454.6	
445.64	7561.1	
445.84	6024.4	
446.04	5971.2	
446.24	6727.6	
446.44	7852.6	
446.65	5184.1	
446.85	5614.2	
447.05	7186.3	
447.25	7815	
447.45	5677	
447.65	5083.1	
447.85	7103.7	
448.05	6690.7	
448.25	6219.7	
448.46	5944.6	
448.66	7090.1	
448.86	6757.6	
449.06	4882.4	
449.26	6122.1	
449.46	7550.9	
449.66	6451.1	
449.86	5636	
450.06	5544.5	
450.26	6662.7	
450.47	7273.7	
450.67	5910.4	
450.87	6290.7	
451.07	7400	
451.27	7217.7	
451.47	5119.2	
451.67	5718.6	
451.87	6728.3	
452.07	8016.4	
452.27	5397.1	
452.47	5344.5	
452.67	7192.5	
452.88	7621.9	
453.08	4774.5	
453.28	6866.2	
453.48	8363.9	
453.68	7066.2	
453.88	5304.9	
454.08	5517.2	
454.28	7393.2	
454.48	7113.3	
454.68	6110.5	
454.88	6662	
455.08	7603.4	
455.28	7302.4	
455.48	5057.8	
455.68	5782.1	
455.89	8047.2	
456.09	7722.2	
456.29	5454.4	
456.49	5448.3	
456.69	7964.6	
456.89	7078.5	
457.09	6098.2	
457.29	6395.8	
457.49	7449.1	
457.69	7593.2	
457.89	5852.4	
458.09	5272.2	
458.29	7209.5	
458.49	8046.5	
458.69	6276.3	
458.89	5675.6	
459.09	8236.2	
459.29	8339.3	
459.49	5846.3	
459.69	6660.7	
459.9	7751.6	
460.1	7288	
460.3	5716.6	
460.5	5446.2	
460.7	7727	
460.9	7436.9	
461.1	5139	
461.3	6522.1	
461.5	8286.8	
461.7	7942.7	
461.9	5579.3	
462.1	6085.9	
462.3	7324.2	
462.5	8071	
462.7	5660.6	
462.9	5726.8	
463.1	9214.5	
463.3	8769.4	
463.5	5838.1	
463.7	6923.5	
463.9	7557.7	
464.1	7950.2	
464.3	6037.4	
464.5	6351.4	
464.7	8342.1	
464.9	7886	
465.1	7805.5	
465.3	6712.6	
465.5	8641.1	
465.7	8579.6	
465.9	6965.1	
466.1	6795.2	
466.3	8372.1	
466.5	8313.4	
466.7	7671	
466.9	6434	
467.1	8105.9	
467.3	9145.5	
467.5	7582.3	
467.7	6379.4	
467.9	9413.8	
468.1	10262	
468.3	7305.8	
468.5	7640.3	
468.7	8056.7	
468.9	8146.8	
469.1	6602.7	
469.3	7459.4	
469.5	10243	
469.7	7569.3	
469.9	7188.4	
470.1	6405.4	
470.3	8069.7	
470.5	8176.2	
470.7	7776.8	
470.9	6475.7	
471.1	7838.9	
471.3	8353	
471.5	6331	
471.69	8282.7	
471.89	7718.8	
472.09	7253.9	
472.29	7217.7	
472.49	7589.8	
472.69	7468.9	
472.89	8366	
473.09	6195.1	
473.29	6380.1	
473.49	7599.3	
473.69	7918.1	
473.89	7345.4	
474.09	6529.6	
474.29	9179.7	
474.49	8852.7	
474.69	7339.2	
474.89	6636.8	
475.09	7853.3	
475.29	7860.8	
475.49	6134.3	
475.69	6341.2	
475.88	9556.5	
476.08	8193.9	
476.28	5943.9	
476.48	6582.2	
476.68	8669.1	
476.88	8525.7	
477.08	6345.3	
477.28	6621.1	
477.48	7928.4	
477.68	8720.3	
477.88	6125.5	
478.08	6526.2	
478.28	8941.4	
478.48	8150.9	
478.67	6596.5	
478.87	5993.7	
479.07	8774.2	
479.27	8163.9	
479.47	6780.1	
479.67	6752.8	
479.87	8585.1	
480.07	9212.4	
480.27	6021	
480.47	7805.5	
480.67	8319.5	
480.87	8964.6	
481.06	6349.4	
481.26	7144.7	
481.46	8116.1	
481.66	8133.2	
481.86	6779.5	
482.06	7899.7	
482.26	7879.2	
482.46	8878.6	
482.66	6728.3	
482.86	6218.3	
483.05	8242.4	
483.25	7586.4	
483.45	9232.2	
483.65	6694.8	
483.85	7871	
484.05	8154.3	
484.25	7108.5	
484.45	7749.5	
484.65	9092.3	
484.84	9127.8	
485.04	6645.7	
485.24	6637.5	
485.44	9334	
485.64	7559.1	
485.84	5822.4	
486.04	7352.9	
486.24	7920.9	
486.44	8413.7	
486.63	5758.9	
486.83	6672.3	
487.03	7832.8	
487.23	8036.2	
487.43	6011.5	
487.63	8510	
487.83	8065.6	
488.02	9100.5	
488.22	6993.1	
488.42	7679.9	
488.62	9046.6	
488.82	7824.6	
489.02	6625.9	
489.22	6619	
489.41	8944.8	
489.61	8466.3	
489.81	6337.1	
490.01	6407.4	
490.21	8857.5	
490.41	9502.6	
490.61	6311.8	
490.8	6425.8	
491	8236.2	
491.2	7540.6	
491.4	7077.8	
491.6	6148	
491.8	8261.5	
491.99	8445.1	
492.19	6036.7	
492.39	6341.2	
492.59	8850	
492.79	8928.5	
492.99	7344	
493.18	6339.8	
493.38	8972.2	
493.58	9697.8	
493.78	7154.9	
493.98	6698.2	
494.18	8647.9	
494.37	8067.6	
494.57	7461.4	
494.77	7277.1	
494.97	8904.6	
495.17	9140.1	
495.37	6728.3	
495.56	7140.6	
495.76	9385.2	
495.96	8914.1	
496.16	8047.8	
496.36	6893.5	
496.55	9078	
496.75	8689.5	
496.95	7294.9	
497.15	7172	
497.35	9105.3	
497.54	9058.8	
497.74	6999.3	
497.94	8701.8	
498.14	9781.8	
498.34	9538.1	
498.53	6565.8	
498.73	7523.6	
498.93	8348.9	
499.13	8955.8	
499.33	7334.5	
499.52	7832.8	
499.72	8983.8	
499.92	9357.9	
500.12	6926.2	
500.32	7213.6	
500.51	9332.6	
500.71	9086.8	
500.91	8117.5	
501.11	7649.8	
501.31	9225.4	
501.5	9635.7	
501.7	8320.2	
501.9	7192.5	
502.1	8995.4	
502.29	9396.1	
502.49	7766.6	
502.69	8206.2	
502.89	9211.8	
503.09	9144.9	
503.28	6675	
503.48	6799.3	
503.68	8329.8	
503.88	8369.4	
504.07	7900.4	
504.27	7370.6	
504.47	8798.8	
504.67	8918.2	
504.86	7757.7	
505.06	7526.3	
505.26	8569.4	
505.46	10507	
505.65	7372.7	
505.85	7568.6	
506.05	8344.8	
506.25	8852	
506.44	6670.2	
506.64	7701.7	
506.84	8305.2	
507.04	9325.8	
507.23	6799.9	
507.43	7438.2	
507.63	10529	
507.83	8535.9	
508.02	7447.1	
508.22	7114.6	
508.42	10768	
508.62	8306.6	
508.81	7377.5	
509.01	8001.4	
509.21	8274.5	
509.4	8443.8	
509.6	7580.2	
509.8	6825.2	
510	8481.3	
510.19	10083	
510.39	6862.7	
510.59	6867.5	
510.79	8202.8	
510.98	9754.5	
511.18	7002.7	
511.38	7061.4	
511.57	9069.8	
511.77	8983.8	
511.97	7799.3	
512.17	6791.1	
512.36	9095.7	
512.56	9165.3	
512.76	6805.4	
512.95	6579.4	
513.15	9236.3	
513.35	7829.4	
513.55	7775.5	
513.74	6932.4	
513.94	9241.1	
514.14	8514.8	
514.33	7885.4	
514.53	7669.6	
514.73	8512	
514.92	8751	
515.12	7080.5	
515.32	6882.5	
515.51	8772.8	
515.71	9462.3	
515.91	8742.8	
516.11	6987	
516.3	10649	
516.5	8340	
516.7	7510.6	
516.89	8172.8	
517.09	8600.1	
517.29	8339.3	
517.48	7835.5	
517.68	7193.1	
517.88	8198	
518.07	8901.8	
518.27	7680.6	
518.47	6720.8	
518.66	9533.3	
518.86	7995.3	
519.06	6459.3	
519.25	7135.1	
519.45	8411.7	
519.65	10068	
519.84	7708.6	
520.04	8490.9	
520.24	10437	
520.43	9012.4	
520.63	7400	
520.83	7128.3	
521.02	8213.7	
521.22	8939.4	
521.42	7768.6	
521.61	8330.5	
521.81	8462.2	
522.01	8765.3	
522.2	7487.4	
522.4	7309.2	
522.6	9217.2	
522.79	7924.3	
522.99	7329	
523.18	6661.4	
523.38	9031.5	
523.58	8912.1	
523.77	8781.7	
523.97	6651.8	
524.17	11009	
524.36	9994.8	
524.56	8049.2	
524.76	7707.9	
524.95	9018.6	
525.15	8591.9	
525.34	7537.9	
525.54	7503.8	
525.74	9356.5	
525.93	8250.6	
526.13	8817.9	
526.33	7466.2	
526.52	9719	
526.72	9121	
526.91	8693.6	
527.11	7964.6	
527.31	9751.1	
527.5	10081	
527.7	7855.3	
527.89	6823.8	
528.09	8475.9	
528.29	9228.8	
528.48	8236.9	
528.68	7899.7	
528.87	9581.1	
529.07	9686.9	
529.27	7785.7	
529.46	7262.1	
529.66	9022.7	
529.85	9671.2	
530.05	7049.8	
530.25	7956.4	
530.44	10562	
530.64	8931.2	
530.83	7514	
531.03	7800.7	
531.23	9576.3	
531.42	9420	
531.62	8598.7	
531.81	7775.5	
532.01	9680.1	
532.21	10251	
532.4	7451.9	
532.6	7883.3	
532.79	10639	
532.99	9852.1	
533.18	7873.8	
533.38	8968.1	
533.58	9248.6	
533.77	10053	
533.97	7821.2	
534.16	8662.2	
534.36	10350	
534.55	9291.6	
534.75	9111.4	
534.95	7889.5	
535.14	10111	
535.34	9396.8	
535.53	7544.7	
535.73	9709.4	
535.92	10765	
536.12	9388.6	
536.31	7641	
536.51	9037	
536.71	9843.9	
536.9	9419.3	
537.1	7778.2	
537.29	8064.2	
537.49	10397	
537.68	9220	
537.88	8486.1	
538.07	7602.1	
538.27	9405	
538.46	10636	
538.66	7416.4	
538.86	7968	
539.05	9477.3	
539.25	10053	
539.44	8247.2	
539.64	7826	
539.83	9272.5	
540.03	10401	
540.22	7709.2	
540.42	7769.3	
540.61	9662.3	
540.81	9732.6	
541	8243.1	
541.2	9001.5	
541.39	9045.2	
541.59	9646.6	
541.78	8608.3	
541.98	7699	
542.18	8759.2	
542.37	8800.1	
542.57	8059.4	
542.76	8658.1	
542.96	8878.6	
543.15	9691	
543.35	8150.2	
543.54	7429.3	
543.74	9893.7	
543.93	9435	
544.13	8110.6	
544.32	9253.4	
544.52	9737.4	
544.71	8968.7	
544.91	7149.5	
545.1	8428.1	
545.3	9026.1	
545.49	9693.7	
545.69	7155.6	
545.88	7722.9	
546.08	10690	
546.27	10363	
546.47	8254.7	
546.66	7484.6	
546.86	9991.4	
547.05	10681	
547.24	7801.4	
547.44	7598.6	
547.63	8813.1	
547.83	10086	
548.02	8075.1	
548.22	8163.2	
548.41	8660.9	
548.61	10129	
548.8	7469.6	
549	7505.8	
549.19	9325.8	
549.39	9662.3	
549.58	7121.5	
549.78	7695.6	
549.97	9751.7	
550.17	9228.8	
550.36	8738	
550.55	9862.3	
550.75	9145.5	
550.94	10137	
551.14	7390.4	
551.33	7865.6	
551.53	8484.7	
551.72	9622	
551.92	7937.9	
552.11	7610.3	
552.31	9498.5	
552.5	9603.6	
552.69	9412.5	
552.89	7277.8	
553.08	9553.8	
553.28	9254.1	
553.47	7680.6	
553.67	8892.3	
553.86	10269	
554.06	8566	
554.25	6797.9	
554.44	7444.4	
554.64	11069	
554.83	10626	
555.03	7415	
555.22	7783	
555.42	9723.8	
555.61	9488.2	
555.8	7582.3	
556	7975.5	
556.19	8567.3	
556.39	10037	
556.58	7692.2	
556.78	7623.2	
556.97	9303.9	
557.16	9021.3	
557.36	8863.6	
557.55	7191.1	
557.75	8236.2	
557.94	10168	
558.13	7294.2	
558.33	7139.2	
558.52	9937.4	
558.72	8740.7	
558.91	7130.3	
559.1	7473	
559.3	8431.5	
559.49	8101.8	
559.69	6775.4	
559.88	7802.1	
560.07	9293.7	
560.27	9862.3	
560.46	8010.3	
560.66	8152.3	
560.85	9021.3	
561.04	8218.5	
561.24	7199.3	
561.43	7472.4	
561.63	8406.9	
561.82	8806.3	
562.01	8731.9	
562.21	7689.4	
562.4	9278.7	
562.59	10284	
562.79	7552.9	
562.98	7152.9	
563.18	9232.9	
563.37	10840	
563.56	8103.1	
563.76	7105.1	
563.95	8545.5	
564.14	8525.7	
564.34	7518.1	
564.53	7246.4	
564.73	9158.5	
564.92	9520.3	
565.11	7705.1	
565.31	7012.2	
565.5	9833.7	
565.69	8752.3	
565.89	7377.5	
566.08	7580.2	
566.27	9615.9	
566.47	10043	
566.66	8214.4	
566.85	6786.3	
567.05	9211.8	
567.24	8561.2	
567.44	7174.7	
567.63	8621.3	
567.82	9482.1	
568.02	9272.5	
568.21	7241.6	
568.4	7696.3	
568.6	9014.5	
568.79	9055.4	
568.98	6930.3	
569.18	7186.3	
569.37	9037	
569.56	11168	
569.76	7596.6	
569.95	8657.4	
570.14	9432.9	
570.34	9283.4	
570.53	7078.5	
570.72	7019.8	
570.91	9814.5	
571.11	8918.2	
571.3	7582.9	
571.49	8467	
571.69	8987.2	
571.88	8574.8	
572.07	8060.1	
572.27	8038.3	
572.46	8673.1	
572.65	9647.3	
572.85	7197.2	
573.04	7615	
573.23	9875.3	
573.43	9083.4	
573.62	7051.2	
573.81	7647.1	
574	9105.3	
574.2	8905.9	
574.39	7429.3	
574.58	7602.7	
574.78	10004	
574.97	9196.7	
575.16	7935.2	
575.36	8151.6	
575.55	9574.9	
575.74	9763.3	
575.93	6976.7	
576.13	8238.3	
576.32	8975.6	
576.51	9579.7	
576.71	7499.7	
576.9	8897.7	
577.09	9943.6	
577.28	9420.7	
577.48	7898.3	
577.67	6887.3	
577.86	9011.7	
578.05	9331.9	
578.25	7636.2	
578.44	7729.7	
578.63	9144.9	
578.83	10450	
579.02	6931	
579.21	8586.5	
579.4	9410.4	
579.6	9049.3	
579.79	7791.2	
579.98	10048	
580.17	9642.5	
580.37	9849.4	
580.56	7198.6	
580.75	8054.7	
580.94	10290	
581.14	10120	
581.33	8548.2	
581.52	7415	
581.71	9566.1	
581.91	10318	
582.1	7049.8	
582.29	7711.3	
582.48	9201.5	
582.68	9027.4	
582.87	8181.6	
583.06	7675.8	
583.25	9488.2	
583.45	8821.3	
583.64	8373.5	
583.83	9235	
584.02	8886.8	
584.21	9395.4	
584.41	8468.4	
584.6	7678.5	
584.79	9214.5	
584.98	10073	
585.18	7132.4	
585.37	7139.2	
585.56	8618.5	
585.75	9684.8	
585.94	7501	
586.14	8146.1	
586.33	10251	
586.52	9113.5	
586.71	7918.8	
586.91	7623.9	
587.1	8486.8	
587.29	9598.8	
587.48	7525.6	
587.67	7428	
587.87	9456.2	
588.06	9522.4	
588.25	8828.1	
588.44	8054.7	
588.63	9091.6	
588.83	9678	
589.02	7393.8	
589.21	7314.7	
589.4	8856.1	
589.59	8559.8	
589.78	6464.8	
589.98	6840.9	
590.17	8217.1	
590.36	8826.7	
590.55	6085.2	
590.74	7005.4	
590.94	10348	
591.13	8732.5	
591.32	6788.3	
591.51	6262.7	
591.7	9270.5	
591.89	8710.7	
592.09	6483.9	
592.28	7029.3	
592.47	7885.4	
592.66	9796.8	
592.85	6428.6	
593.05	6671.6	
593.24	8472.4	
593.43	9231.6	
593.62	6755.6	
593.81	7290.1	
594	8554.4	
594.19	8796	
594.39	6691.4	
594.58	6640.2	
594.77	8938.7	
594.96	9518.3	
595.15	6574.7	
595.34	7320.1	
595.54	8975.6	
595.73	7932.5	
595.92	5916.6	
596.11	7142.6	
596.3	9458.9	
596.49	8073.8	
596.68	6930.3	
596.88	7429.3	
597.07	9253.4	
597.26	7860.8	
597.45	6478.4	
597.64	7769.3	
597.83	8208.3	
598.02	8951	
598.22	6526.9	
598.41	7239.6	
598.6	8574.8	
598.79	8039	
598.98	6613.6	
599.17	7560.4	
599.36	8647.2	
599.55	9969.5	
599.74	8719.6	
599.94	8449.9	
600.13	9205.6	
600.32	7974.8	
600.51	6277	
600.7	6412.2	
600.89	9919.7	
601.08	10000	
601.27	6266.8	
601.47	7324.2	
601.66	9122.3	
601.85	9846.6	
602.04	6913.3	
602.23	7291.5	
602.42	8180.3	
602.61	8794	
602.8	6901	
602.99	6754.2	
603.18	8531.8	
603.37	8810.4	
603.57	7373.4	
603.76	7893.6	
603.95	9656.2	
604.14	9110.7	
604.33	6781.5	
604.52	7118.7	
604.71	8774.2	
604.9	8389.8	
605.09	7711.3	
605.28	7483.3	
605.47	9337.4	
605.66	9027.4	
605.86	7410.2	
606.05	6758.3	
606.24	9361.9	
606.43	7845.8	
606.62	6997.2	
606.81	7925.6	
607	9138	
607.19	8453.3	
607.38	6401.3	
607.57	6688	
607.76	8221.9	
607.95	7630.7	
608.14	7112.6	
608.33	7774.8	
608.52	8244.4	
608.72	9171.5	
608.91	6386.9	
609.1	6222.4	
609.29	8350.3	
609.48	7855.3	
609.67	7331	
609.86	6262	
610.05	7899	
610.24	8342.7	
610.43	6241.5	
610.62	5760.3	
610.81	9511.4	
611	9237	
611.19	6291.4	
611.38	7149.5	
611.57	8549.6	
611.76	9985.9	
611.95	6144.6	
612.14	5883.8	
612.33	8335.2	
612.52	7874.4	
612.71	6760.3	
612.9	5793.7	
613.09	7494.9	
613.28	9959.3	
613.47	6330.3	
613.66	7494.9	
613.85	8419.9	
614.04	7941.3	
614.24	6466.1	
614.43	5659.9	
614.62	8628.1	
614.81	8578.9	
615	7092.8	
615.19	7099.6	
615.38	7840.3	
615.57	8140.7	
615.76	6948.8	
615.95	7888.8	
616.14	8679.3	
616.33	8373.5	
616.52	7199.3	
616.71	7535.2	
616.9	8559.1	
617.09	8398	
617.28	6584.2	
617.47	8192.6	
617.66	7578.8	
617.85	7688.8	
618.04	7634.8	
618.22	6999.3	
618.41	7964.6	
618.6	9037	
618.79	6849.1	
618.98	6524.1	
619.17	9325.1	
619.36	7606.2	
619.55	6659.3	
619.74	6759	
619.93	8559.1	
620.12	7920.2	
620.31	7307.8	
620.5	7536.5	
620.69	9179	
620.88	9553.1	
621.07	8219.2	
621.26	7185	
621.45	8684.1	
621.64	8723.7	
621.83	7342	
622.02	6416.3	
622.21	8677.9	
622.4	8512.7	
622.59	7901.1	
622.78	7570.7	
622.97	8069	
623.16	9166	
623.35	7172	
623.54	6337.8	
623.72	8308.6	
623.91	8443.1	
624.1	7453.9	
624.29	6081.1	
624.48	9576.3	
624.67	8756.4	
624.86	7303.7	
625.05	6365.8	
625.24	9678.7	
625.43	7880.6	
625.62	9254.8	
625.81	6638.8	
626	9082.7	
626.19	8258.8	
626.38	7405.5	
626.56	6806.1	
626.75	8101.8	
626.94	8892.3	
627.13	7362.4	
627.32	6014.2	
627.51	8746.2	
627.7	10116	
627.89	6149.4	
628.08	7382.9	
628.27	7936.6	
628.46	8208.3	
628.65	6544.6	
628.83	6205.3	
629.02	8740	
629.21	8064.9	
629.4	6944	
629.59	7211.6	
629.78	7862.8	
629.97	9080.7	
630.16	7221.8	
630.35	6658.6	
630.54	9336.7	
630.72	9134.6	
630.91	6624.5	
631.1	7245	
631.29	8523.6	
631.48	8751	
631.67	7326.9	
631.86	6725.5	
632.05	8157.1	
632.24	8150.2	
632.42	6333.7	
632.61	6975.4	
632.8	8266.3	
632.99	7839.6	
633.18	7089.4	
633.37	7443	
633.56	8525.7	
633.75	8396	
633.93	6966.5	
634.12	6626.5	
634.31	9439.1	
634.5	8927.8	
634.69	6744	
634.88	7218.4	
635.07	8202.1	
635.25	8923.7	
635.44	7662.1	
635.63	7961.8	
635.82	8082	
636.01	7630.7	
636.2	7619.8	
636.39	7168.6	
636.57	9291.6	
636.76	9029.5	
636.95	6447	
637.14	8061.5	
637.33	8583	
637.52	9601.6	
637.7	6235.4	
637.89	7271	
638.08	8174.8	
638.27	9682.8	
638.46	7363.8	
638.65	7804.8	
638.83	9746.3	
639.02	7945.4	
639.21	7255.3	
639.4	7816.4	
639.59	8528.4	
639.78	8027.4	
639.96	6513.9	
640.15	6568.5	
640.34	8347.5	
640.53	8507.3	
640.72	6130.3	
640.91	6558.3	
641.09	7689.4	
641.28	9114.1	
641.47	6492.1	
641.66	7450.5	
641.85	8448.6	
642.03	8792.6	
642.22	7204.1	
642.41	6635.4	
642.6	7801.4	
642.79	7133.1	
642.97	6385.6	
643.16	7206.1	
643.35	7795.3	
643.54	7602.1	
643.73	6268.8	
643.91	7178.1	
644.1	7436.9	
644.29	8071.7	
644.48	6372.6	
644.67	6500.3	
644.85	7735.9	
645.04	8064.2	
645.23	5950	
645.42	6294.1	
645.6	7499	
645.79	8789.9	
645.98	6174.6	
646.17	5240.8	
646.36	7179.5	
646.54	7887.4	
646.73	7187.7	
646.92	5874.9	
647.11	7465.5	
647.29	8583.7	
647.48	5973.2	
647.67	5747.3	
647.86	8832.9	
648.05	8929.1	
648.23	6320.7	
648.42	7761.1	
648.61	8203.5	
648.8	7905.2	
648.98	5883.1	
649.17	6262.7	
649.36	7518.8	
649.55	6896.2	
649.73	5965.1	
649.92	6845	
650.11	7372.7	
650.3	7690.8	
650.48	6097.5	
650.67	5914.5	
650.86	7998.7	
651.05	6840.9	
651.23	6036	
651.42	6041.5	
651.61	7360.4	
651.79	7547.4	
651.98	6266.8	
652.17	5855.8	
652.36	7899.7	
652.54	6939.9	
652.73	5786.2	
652.92	5674.9	
653.11	7908.6	
653.29	8011	
653.48	5101.5	
653.67	6264.7	
653.85	7671	
654.04	8817.2	
654.23	6477.7	
654.42	5983.5	
654.6	7246.4	
654.79	7921.5	
654.98	5418.9	
655.16	5986.2	
655.35	6786.3	
655.54	6737.1	
655.73	5494	
655.91	5386.2	
656.1	7995.3	
656.29	6681.8	
656.47	4938.3	
656.66	6830	
656.85	7008.1	
657.03	7050.5	
657.22	5553.4	
657.41	5694.7	
657.59	7090.1	
657.78	6940.6	
657.97	5176.6	
658.16	6012.8	
658.34	7797.3	
658.53	8220.5	
658.72	6961.7	
658.9	7529	
659.09	7167.2	
659.28	7239.6	
659.46	5700.9	
659.65	5684.5	
659.84	6964.5	
660.02	7505.1	
660.21	5567.1	
660.4	5509	
660.58	8025.3	
660.77	7328.3	
660.96	6207.4	
661.14	5184.8	
661.33	8584.4	
661.52	8357.8	
661.7	5059.8	
661.89	9099.8	
662.08	6890	
662.26	6505	
662.45	5402.5	
662.64	5466.7	
662.82	7638.9	
663.01	6889.4	
663.2	5651.7	
663.38	6354.8	
663.57	7621.2	
663.75	7360.4	
663.94	5924.8	
664.13	7338.6	
664.31	6883.2	
664.5	7641	
664.69	6083.1	
664.87	6707.1	
665.06	6642.9	
665.25	7396.6	
665.43	6931.7	
665.62	7152.2	
665.8	7778.2	
665.99	7053.2	
666.18	5815.5	
666.36	6021.7	
666.55	7720.2	
666.74	7613	
666.92	5442.8	
667.11	7243.7	
667.29	7072.3	
667.48	7711.3	
667.67	6773.3	
667.85	5748	
668.04	7116.7	
668.22	7008.8	
668.41	5950.7	
668.6	6136.4	
668.78	6855.9	
668.97	7141.3	
669.15	6295.5	
669.34	5248.9	
669.53	6851.1	
669.71	7185.6	
669.9	5436	
670.08	6156.2	
670.27	6774.7	
670.46	7446.4	
670.64	6359.6	
670.83	6612.2	
671.01	6718	
671.2	7347.4	
671.38	5497.4	
671.57	5432.6	
671.76	8062.2	
671.94	8727.1	
672.13	5303.6	
672.31	6594.5	
672.5	7572.7	
672.69	6829.3	
672.87	5532.2	
673.06	5866.7	
673.24	7430	
673.43	6859.3	
673.61	6298.9	
673.8	5773.9	
673.98	7644.4	
674.17	7799.3	
674.36	6381.5	
674.54	6330.3	
674.73	7391.8	
674.91	7565.9	
675.1	5920	
675.28	5569.8	
675.47	7094.8	
675.65	7666.2	
675.84	5832.6	
676.03	6099.5	
676.21	6840.2	
676.4	6378.7	
676.58	6745.3	
676.77	6372.6	
676.95	8458.8	
677.14	6764.4	
677.32	5446.9	
677.51	5212.8	
677.69	7587	
677.88	6383.5	
678.06	5281	
678.25	5395	
678.44	7144.7	
678.62	6886	
678.81	5089.9	
678.99	6154.8	
679.18	7978.9	
679.36	7487.4	
679.55	5785.5	
679.73	6438.8	
679.92	7480.5	
680.1	6891.4	
680.29	7066.9	
680.47	5750.7	
680.66	6765.1	
680.84	7712	
681.03	4987.5	
681.21	6334.4	
681.4	6924.9	
681.58	6746.7	
681.77	5520.6	
681.95	5374.6	
682.14	7677.2	
682.32	8102.4	
682.51	6349.4	
682.69	5214.1	
682.88	6695.5	
683.06	7482.6	
683.25	6142.5	
683.43	6643.6	
683.62	7060	
683.8	7505.1	
683.99	6666.8	
684.17	5931.6	
684.36	8437.6	
684.54	6980.2	
684.73	5059.2	
684.91	5330.2	
685.1	7236.2	
685.28	6713.2	
685.46	5841.5	
685.65	6010.1	
685.83	7560.4	
686.02	6878.4	
686.2	5411.4	
686.39	5584.1	
686.57	6600.6	
686.76	8287.4	
686.94	5408	
687.13	5579.3	
687.31	7417.1	
687.5	6937.8	
687.68	4886.5	
687.86	6373.3	
688.05	8771.5	
688.23	6341.9	
688.42	6368.5	
688.6	5454.4	
688.79	6731.7	
688.97	6844.3	
689.16	5900.9	
689.34	4779.3	
689.52	7652.6	
689.71	7800.7	
689.89	6184.9	
690.08	5426.4	
690.26	7072.3	
690.45	6885.3	
690.63	6423.1	
690.81	5579.3	
691	6724.2	
691.18	6716	
691.37	5728.2	
691.55	8103.8	
691.74	6674.3	
691.92	8836.3	
692.1	5760.9	
692.29	5089.2	
692.47	6905.1	
692.66	6150.7	
692.84	5360.2	
693.02	5958.9	
693.21	6259.3	
693.39	6914.6	
693.58	6080.4	
693.76	5459.9	
693.94	8198.7	
694.13	7863.5	
694.31	5448.3	
694.5	6574	
694.68	6614.3	
694.86	6945.3	
695.05	5817.6	
695.23	5906.3	
695.42	7405.5	
695.6	9845.3	
695.78	6426.5	
695.97	5492	
696.15	7437.5	
696.34	6755.6	
696.52	5185.5	
696.7	6137.1	
696.89	7209.5	
697.07	6610.8	
697.25	6087.9	
697.44	7583.6	
697.62	7124.9	
697.81	7515.4	
697.99	5707.7	
698.17	6272.9	
698.36	6356.9	
698.54	7210.2	
698.72	6071.5	
698.91	5043.5	
699.09	6752.8	
699.28	6613.6	
699.46	5694.7	
699.64	5622.4	
699.83	6460	
700.01	7958.4	
700.19	6469.5	
700.38	4792.9	
700.56	7822.6	
700.74	6692.1	
700.93	5248.9	
701.11	6077	
701.29	7298.3	
701.48	8348.2	
701.66	5468.1	
701.84	5506.3	
702.03	6801.3	
702.21	7571.3	
702.39	5034.6	
702.58	5666.7	
702.76	7238.2	
702.94	7427.3	
703.13	5000.5	
703.31	7720.8	
703.49	6458.6	
703.68	7466.2	
703.86	5229.8	
704.04	6308.4	
704.23	7058	
704.41	7517.4	
704.59	5421.7	
704.78	6772.6	
704.96	8219.9	
705.14	7577.5	
705.33	5111.7	
705.51	6156.2	
705.69	6884.6	
705.87	7813	
706.06	6402.6	
706.24	5085.8	
706.42	7246.4	
706.61	7530.4	
706.79	6455.9	
706.97	5225.7	
707.16	6662	
707.34	7283.9	
707.52	6445.6	
707.7	5464.7	
707.89	6919.4	
708.07	6494.8	
708.25	6431.3	
708.44	6543.9	
708.62	6859.3	
708.8	8081.3	
708.98	6693.4	
709.17	5564.3	
709.35	7241.6	
709.53	7240.3	
709.72	5205.9	
709.9	5399.1	
710.08	7460.1	
710.26	7590.5	
710.45	7007.5	
710.63	5638.7	
710.81	7190.4	
710.99	7132.4	
711.18	6269.5	
711.36	5769.1	
711.54	6934.4	
711.72	7774.8	
711.91	5826.5	
712.09	5210.7	
712.27	7114	
712.45	7814.4	
712.64	6193.7	
712.82	4996.4	
713	6563.7	
713.18	6780.8	
713.37	5180.7	
713.55	6491.4	
713.73	7636.9	
713.91	6169.8	
714.1	5522.7	
714.28	5028.4	
714.46	7324.9	
714.64	6498.9	
714.83	4472.1	
715.01	5354.8	
715.19	6552.1	
715.37	5943.2	
715.55	5061.2	
715.74	5451	
715.92	7663.5	
716.1	5507	
716.28	6593.1	
716.47	5558.2	
716.65	6156.9	
716.83	6268.8	
717.01	5394.3	
717.19	5422.3	
717.38	8451.3	
717.56	5900.2	
717.74	5789.6	
717.92	4762.9	
718.1	7284.6	
718.29	6400.6	
718.47	4346.5	
718.65	5100.8	
718.83	7212.3	
719.01	7137.2	
719.2	4233.2	
719.38	5479.7	
719.56	6823.8	
719.74	8506.6	
719.92	4961.5	
720.11	6251.1	
720.29	6855.9	
720.47	5876.3	
720.65	4479.6	
720.83	5498.8	
721.02	6287.9	
721.2	5973.9	
721.38	5481.7	
721.56	4700.1	
721.74	5498.1	
721.92	5730.9	
722.11	6066.8	
722.29	5778.7	
722.47	7157.7	
722.65	6182.8	
722.83	4748.6	
723.01	5821	
723.2	6309.1	
723.38	6528.9	
723.56	4181.3	
723.74	5426.4	
723.92	5773.9	
724.1	7023.2	
724.29	4698	
724.47	5911.1	
724.65	5798.5	
724.83	5771.2	
725.01	4581.3	
725.19	5571.8	
725.37	5844.9	
725.56	5911.8	
725.74	4437.9	
725.92	4696	
726.1	5755.5	
726.28	6123.4	
726.46	5201.8	
726.64	4890.5	
726.83	6079.7	
727.01	6416.3	
727.19	4420.2	
727.37	5319.9	
727.55	6235.4	
727.73	6821.8	
727.91	4367	
728.09	4175.1	
728.28	6829.3	
728.46	7589.8	
728.64	5554.8	
728.82	5451	
729	8051.2	
729.18	7217	
729.36	4606.6	
729.54	7113.3	
729.72	8308.6	
729.91	6370.5	
730.09	6608.8	
730.27	5303.6	
730.45	6297.5	
730.63	7045	
730.81	6001.2	
730.99	4964.3	
731.17	7603.4	
731.35	6001.9	
731.53	5526.8	
731.71	5107	
731.9	7316	
732.08	7473.7	
732.26	5367.7	
732.44	4981.3	
732.62	7608.9	
732.8	6982.9	
732.98	5892.7	
733.16	4795.7	
733.34	6986.3	
733.52	5679.7	
733.7	5396.4	
733.88	5653.8	
734.07	6854.6	
734.25	6578.8	
734.43	4773.1	
734.61	6597.9	
734.79	8249.2	
734.97	6433.4	
735.15	5017.5	
735.33	5289.2	
735.51	6823.1	
735.69	6453.8	
735.87	6541.2	
736.05	5613.5	
736.23	6711.2	
736.41	6429.9	
736.59	5385.5	
736.77	5537	
736.95	7185.6	
737.13	6528.9	
737.32	5051	
737.5	5260.5	
737.68	7773.4	
737.86	6457.9	
738.04	4754	
738.22	6895.5	
738.4	6156.9	
738.58	6517.3	
738.76	5552.7	
738.94	4343.1	
739.12	6432	
739.3	6207.4	
739.48	6176.7	
739.66	5876.3	
739.84	6654.5	
740.02	6696.2	
740.2	4448.9	
740.38	4915.1	
740.56	7235.5	
740.74	5852.4	
740.92	5520.6	
741.1	5528.8	
741.28	6405.4	
741.46	6292.7	
741.64	5098.8	
741.82	5748.6	
742	6499.6	
742.18	6483.9	
742.36	5394.3	
742.54	4842.1	
742.72	7169.3	
742.9	5692.7	
743.08	5810.1	
743.26	4483.7	
743.44	7359	
743.62	7248.4	
743.8	5900.2	
743.98	4932.9	
744.16	6918	
744.34	6513.9	
744.52	5868.8	
744.7	5831.2	
744.88	7073	
745.06	6507.8	
745.24	5869.5	
745.42	6021.7	
745.6	7099.6	
745.78	6899.6	
745.96	4622.3	
746.14	5000.5	
746.32	7955.7	
746.5	7173.4	
746.68	5622.4	
746.86	5061.9	
747.03	7619.1	
747.21	5794.4	
747.39	5556.8	
747.57	5040.1	
747.75	6735.8	
747.93	7176.8	
748.11	5087.2	
748.29	4957.4	
748.47	8380.3	
748.65	6483.9	
748.83	5801.9	
749.01	5507.7	
749.19	6890	
749.37	6064.7	
749.55	5348.6	
749.73	5490.6	
749.91	6563.1	
750.09	6340.5	
750.26	5498.1	
750.44	4868.7	
750.62	6615.6	
750.8	6614.3	
750.98	4713.1	
751.16	5089.9	
751.34	6674.3	
751.52	5982.8	
751.7	5952.1	
751.88	4584.7	
752.06	7215.7	
752.24	7015	
752.42	4583.4	
752.59	5017.5	
752.77	6578.1	
752.95	7969.3	
753.13	5839.4	
753.31	5193	
753.49	6193.1	
753.67	6729.6	
753.85	5505.6	
754.03	5065.3	
754.21	7074.4	
754.38	7447.8	
754.56	5287.2	
754.74	4149.2	
754.92	6166.4	
755.1	7000	
755.28	4218.8	
755.46	4209.9	
755.64	7714	
755.82	7925.6	
755.99	4498.7	
756.17	4601.8	
756.35	5070.8	
756.53	6830	
756.71	3367.5	
756.89	4419.5	
757.07	6354.2	
757.25	5396.4	
757.42	4968.4	
757.6	5976	
757.78	6524.1	
757.96	5375.2	
758.14	4702.8	
758.32	4193.6	
758.5	4859.1	
758.67	5850.4	
758.85	4525.3	
759.03	4620.2	
759.21	6066.1	
759.39	5403.2	
759.57	4018.1	
759.75	5378.6	
759.92	6460	
760.1	5782.8	
760.28	5730.2	
760.46	6014.9	
760.64	5653.1	
760.82	5360.2	
760.99	5591.6	
761.17	4650.3	
761.35	6565.1	
761.53	5421.7	
761.71	4786.1	
761.89	5517.2	
762.06	6477	
762.24	5806.7	
762.42	4902.2	
762.6	4599.1	
762.78	5856.5	
762.96	6670.2	
763.13	5302.2	
763.31	4999.8	
763.49	6857.3	
763.67	5911.8	
763.85	5864	
764.02	6528.2	
764.2	7144.7	
764.38	6242.9	
764.56	4853	
764.74	5821	
764.91	7238.2	
765.09	6055.8	
765.27	4436.6	
765.45	4205.8	
765.63	7236.2	
765.8	7144.7	
765.98	3887	
766.16	4294.6	
766.34	5504.9	
766.52	5307	
766.69	5411.4	
766.87	4114.4	
767.05	5961	
767.23	6821.1	
767.41	4524.6	
767.58	4818.9	
767.76	6589.7	
767.94	6727.6	
768.12	4525.3	
768.29	5439.4	
768.47	6186.2	
768.65	6819.1	
768.83	4166.9	
769	5546.6	
769.18	5528.8	
769.36	6407.4	
769.54	5487.9	
769.72	4262.5	
769.89	6703.7	
770.07	6855.2	
770.25	4546.5	
770.43	5982.1	
770.6	7494.2	
770.78	7909.9	
770.96	4771.8	
771.14	4613.4	
771.31	6574.7	
771.49	5825.8	
771.67	3876.8	
771.85	4121.9	
772.02	5018.2	
772.2	5884.5	
772.38	4761.5	
772.55	4392.2	
772.73	6144.6	
772.91	5897.5	
773.09	4803.2	
773.26	4844.8	
773.44	6075.6	
773.62	5702.9	
773.8	4254.3	
773.97	3898	
774.15	6196.5	
774.33	5717.2	
774.5	4117.1	
774.68	4548.5	
774.86	6331	
775.04	5782.8	
775.21	4262.5	
775.39	4250.9	
775.57	6079.7	
775.74	6555.5	
775.92	3996.3	
776.1	4030.4	
776.27	6078.4	
776.45	7452.6	
776.63	4192.9	
776.81	3707.5	
776.98	5659.9	
777.16	6827.9	
777.34	4403.1	
777.51	4731.5	
777.69	5661.3	
777.87	5447.6	
778.04	4445.5	
778.22	5180.7	
778.4	5436	
778.57	6197.8	
778.75	3582.6	
778.93	3878.2	
779.1	5188.9	
779.28	5013.4	
779.46	3669.3	
779.64	4229.7	
779.81	6298.9	
779.99	7295.5	
780.17	5053	
780.34	5240.1	
780.52	5685.2	
780.69	5973.9	
780.87	4541.7	
781.05	4103.4	
781.22	5716.6	
781.4	5936.4	
781.58	4231.1	
781.75	3245.3	
781.93	5808.7	
782.11	5249.6	
782.28	5200.5	
782.46	4210.6	
782.64	5012.1	
782.81	6008.7	
782.99	4346.5	
783.17	4321.2	
783.34	5887.2	
783.52	5031.2	
783.69	4532.8	
783.87	5438.7	
784.05	5187.5	
784.22	5134.9	
784.4	5374.6	
784.58	4616.8	
784.75	6170.5	
784.93	5180.7	
785.1	4261.8	
785.28	4927.4	
785.46	5894.7	
785.63	5173.9	
785.81	4182	
785.99	4057.7	
786.16	5287.9	
786.34	5757.5	
786.51	4056.3	
786.69	4511.7	
786.87	4904.9	
787.04	5491.3	
787.22	3862.5	
787.39	4959.5	
787.57	5110.4	
787.75	6357.6	
787.92	5154.1	
788.1	5070.1	
788.27	5238	
788.45	4939.7	
788.63	4740.4	
788.8	3343.7	
788.98	5524.7	
789.15	4861.2	
789.33	3453.6	
789.5	4252.9	
789.68	6242.2	
789.86	6292.7	
790.03	4651.6	
790.21	4049.5	
790.38	6186.9	
790.56	5318.6	
790.73	3936.9	
790.91	3946.4	
791.09	5100.1	
791.26	5976.7	
791.44	4217.5	
791.61	3614	
791.79	5135.6	
791.96	5263.3	
792.14	3745.7	
792.32	3235.1	
792.49	5172.5	
792.67	5330.9	
792.84	3757.3	
793.02	3577.8	
793.19	5659.9	
793.37	6441.5	
793.54	3257	
793.72	3688.4	
793.89	6627.9	
794.07	5209.3	
794.25	4394.3	
794.42	3400.3	
794.6	6302.3	
794.77	5952.1	
794.95	4632.5	
795.12	4048.8	
795.3	5183.4	
795.47	5846.3	
795.65	4453	
795.82	4250.2	
796	4958.1	
796.17	7084.6	
796.35	4123.2	
796.52	4885.1	
796.7	5774.6	
796.87	5850.4	
797.05	5133.6	
797.22	5052.3	
797.4	5746.6	
797.57	6917.4	
797.75	4251.6	
797.92	4013.3	
798.1	6126.8	
798.27	5201.8	
798.45	3430.3	
798.62	3682.2	
798.8	5509.7	
798.97	6083.1	
799.15	4564.9	
799.32	4304.8	
799.5	4726.7	
799.67	5622.4	
799.85	4665.3	
800.02	3313.6	
800.2	5123.3	
800.37	5472.2	
800.55	4855.7	
800.72	4027.7	
800.9	5990.3	
801.07	6535.8	
801.25	5457.8	
801.42	4397.7	
801.6	6040.1	
801.77	5789.6	
801.95	4106.2	
802.12	3910.3	
802.29	5705.6	
802.47	5708.4	
802.64	4393.6	
802.82	3255.6	
802.99	5094.7	
803.17	6275.7	
803.34	4280.9	
803.52	3835.8	
803.69	6929	
803.87	4916.5	
804.04	4222.2	
804.21	4407.9	
804.39	6304.3	
804.56	5391.6	
804.74	3631.7	
804.91	4446.8	
805.09	5175.2	
805.26	5352	
805.44	3647.4	
805.61	4055.7	
805.78	5862	
805.96	5917.9	
806.13	4433.2	
806.31	4771.1	
806.48	4680.3	
806.66	5287.2	
806.83	4407.2	
807	4310.3	
807.18	5109	
807.35	5539.8	
807.53	4244.1	
807.7	3383.9	
807.87	6482.5	
808.05	5217.5	
808.22	4747.2	
808.4	3441.3	
808.57	5141.1	
808.74	4816.8	
808.92	3986	
809.09	5008.6	
809.27	5066	
809.44	5730.2	
809.61	3477.5	
809.79	3908.9	
809.96	6440.2	
810.14	6059.9	
810.31	3270.6	
810.48	4173.1	
810.66	5354.1	
810.83	6142.5	
811.01	3930.1	
811.18	4391.5	
811.35	6017.6	
811.53	4616.1	
811.7	4829.1	
811.87	4429.8	
812.05	5141.1	
812.22	5079.6	
812.39	3784	
812.57	3725.3	
812.74	5220.3	
812.92	7035.5	
813.09	4085	
813.26	4507.6	
813.44	6745.3	
813.61	5116.5	
813.78	3353.2	
813.96	4609.3	
814.13	5228.5	
814.3	4910.3	
814.48	5051.7	
814.65	4192.9	
814.82	6510.5	
815	4969.1	
815.17	4268.6	
815.34	5222.3	
815.52	5084.4	
815.69	5171.8	
815.87	4225.6	
816.04	4177.9	
816.21	5275.6	
816.38	4543.8	
816.56	4040.6	
816.73	3797.6	
816.9	6703.7	
817.08	6094.1	
817.25	3805.1	
817.42	4831.8	
817.6	4709	
817.77	5251	
817.94	4357.4	
818.12	3782.6	
818.29	4900.1	
818.46	7903.1	
818.64	3985.3	
818.81	3729.4	
818.98	4837.3	
819.16	7189.1	
819.33	4675.5	
819.5	4293.9	
819.67	5623	
819.85	6305.7	
820.02	4163.5	
820.19	4435.9	
820.37	5436.7	
820.54	4972.5	
820.71	4317.1	
820.88	5467.4	
821.06	5485.8	
821.23	4968.4	
821.4	4341	
821.58	4276.8	
821.75	6032	
821.92	5369.8	
822.09	3460.4	
822.27	3771.7	
822.44	5241.4	
822.61	5128.8	
822.79	3478.1	
822.96	6741.9	
823.13	5853.8	
823.3	4932.2	
823.48	4051.6	
823.65	3635.8	
823.82	5921.4	
823.99	4762.9	
824.17	5075.5	
824.34	3661.1	
824.51	6995.9	
824.68	5246.2	
824.86	3799	
825.03	4317.1	
825.2	5300.1	
825.37	6363	
825.55	3839.3	
825.72	4314.4	
825.89	7038.2	
826.06	6532.3	
826.24	4078.2	
826.41	4233.8	
826.58	6348.7	
826.75	5588.2	
826.92	3259	
827.1	3665.2	
827.27	8737.3	
827.44	7047.1	
827.61	3926	
827.79	4797.7	
827.96	4915.1	
828.13	5383.4	
828.3	4108.2	
828.47	3495.9	
828.65	5403.2	
828.82	5373.9	
828.99	5341.1	
829.16	4647.5	
829.34	5883.1	
829.51	5609.4	
829.68	4266.6	
829.85	4486.4	
830.02	6166.4	
830.2	5862	
830.37	3289	
830.54	5166.3	
830.71	6761	
830.88	5148.6	
831.05	3318.4	
831.23	3863.8	
831.4	6423.8	
831.57	7219.1	
831.74	3925.3	
831.91	3494.5	
832.09	5445.5	
832.26	5810.1	
832.43	4134.2	
832.6	4575.2	
832.77	5449	
832.94	6240.2	
833.12	3261.7	
833.29	4106.9	
833.46	5567.1	
833.63	7535.2	
833.8	4411.3	
833.97	4169.7	
834.15	5909.8	
834.32	5628.5	
834.49	4325.3	
834.66	4386.7	
834.83	6192.4	
835	4937	
835.17	3949.2	
835.35	3987.4	
835.52	5769.8	
835.69	5638.7	
835.86	4164.2	
836.03	3433.1	
836.2	5860.6	
836.37	5367.7	
836.55	4143.7	
836.72	3837.9	
836.89	5438.7	
837.06	5935.7	
837.23	4156.7	
837.4	4593.6	
837.57	6733	
837.75	7468.9	
837.92	3727.3	
838.09	3945.1	
838.26	5412.1	
838.43	6187.6	
838.6	4362.2	
838.77	3894.6	
838.94	7144	
839.11	6787	
839.29	4098	
839.46	3249.4	
839.63	5839.4	
839.8	5518.6	
839.97	4012.7	
840.14	4034.5	
840.31	5626.5	
840.48	5862	
840.65	3269.2	
840.82	3893.2	
841	5844.9	
841.17	5853.8	
841.34	3665.9	
841.51	3670.6	
841.68	5754.8	
841.85	5446.2	
842.02	3813.3	
842.19	3151.8	
842.36	5497.4	
842.53	5601.9	
842.7	3616.7	
842.87	4489.8	
843.05	7451.2	
843.22	5508.4	
843.39	3433.1	
843.56	3728	
843.73	5260.5	
843.9	5963	
844.07	5950	
844.24	4967	
844.41	8791.9	
844.58	5091.3	
844.75	3509.5	
844.92	3876.1	
845.09	5843.5	
845.26	5788.2	
845.43	3614.7	
845.6	3831.7	
845.77	5811.5	
845.94	5504.3	
846.12	4049.5	
846.29	4313	
846.46	6066.8	
846.63	5816.9	
846.8	3620.8	
846.97	4320.5	
847.14	6382.2	
847.31	5801.2	
847.48	4105.5	
847.65	4532.8	
847.82	6160.3	
847.99	6156.2	
848.16	4941.1	
848.33	4601.8	
848.5	5381.4	
848.67	6412.2	
848.84	3661.8	
849.01	3803.1	
849.18	5209.3	
849.35	4901.5	
849.52	4629.8	
849.69	3599.6	
849.86	6019	
850.03	6300.9	
850.2	3637.9	
850.37	4488.5	
850.54	6240.8	
850.71	5542.5	
850.88	4358.1	
851.05	3573	
851.22	5728.9	
851.39	6449.7	
851.56	3422.8	
851.73	4177.2	
851.9	5154.7	
852.07	6083.1	
852.24	4078.2	
852.41	3611.9	
852.58	5646.9	
852.75	5160.9	
852.92	4038.6	
853.09	3618.8	
853.26	5444.9	
853.43	6262	
853.6	3594.2	
853.77	3098.6	
853.94	6469.5	
854.11	5780.7	
854.28	5395	
854.44	3946.4	
854.61	6824.5	
854.78	6198.5	
854.95	3635.8	
855.12	4650.9	
855.29	4650.3	
855.46	6701.6	
855.63	3601.7	
855.8	5089.2	
855.97	5373.2	
856.14	6165.1	
856.31	5238.7	
856.48	3979.2	
856.65	5313.1	
856.82	5044.8	
856.99	3490.4	
857.16	4002.4	
857.33	7180.2	
857.49	5496.1	
857.66	3931.4	
857.83	4293.2	
858	5363.6	
858.17	5709.7	
858.34	3391.4	
858.51	3632.4	
858.68	6571.2	
858.85	6576	
859.02	4274.1	
859.19	4472.1	
859.36	5077.6	
859.52	5153.4	
859.69	3635.8	
859.86	4279.6	
860.03	5229.1	
860.2	6397.2	
860.37	3229	
860.54	3647.4	
860.71	6068.8	
860.88	6587.6	
861.05	4173.8	
861.21	4606.6	
861.38	6550.1	
861.55	4998.4	
861.72	3310.9	
861.89	4085	
862.06	6143.9	
862.23	6698.2	
862.4	3541.6	
862.56	3809.2	
862.73	5963.7	
862.9	5616.9	
863.07	4255	
863.24	3319.1	
863.41	4977.9	
863.58	5122	
863.75	3756	
863.91	4167.6	
864.08	6486.6	
864.25	6025.1	
864.42	4584.7	
864.59	5161.6	
864.76	6813.6	
864.93	5114.5	
865.09	3506.8	
865.26	3928	
865.43	6363.7	
865.6	6787.7	
865.77	3184.6	
865.94	3600.3	
866.1	6459.3	
866.27	6165.1	
866.44	5511.1	
866.61	3445.4	
866.78	5545.2	
866.95	5976	
867.11	3516.4	
867.28	3200.3	
867.45	6176.7	
867.62	5151.3	
867.79	4233.2	
867.96	3646.1	
868.12	5077.6	
868.29	6151.4	
868.46	3627	
868.63	4840.7	
868.8	6338.5	
868.97	6022.4	
869.13	3820.8	
869.3	3820.1	
869.47	5911.1	
869.64	6223.8	
869.81	3625.6	
869.97	3627.6	
870.14	5847	
870.31	6568.5	
870.48	3565.5	
870.65	4600.4	
870.81	5517.9	
870.98	5440.8	
871.15	4151.2	
871.32	3757.3	
871.48	5938.4	
871.65	6692.1	
871.82	3605.8	
871.99	4038.6	
872.16	7086.7	
872.32	6384.2	
872.49	3636.5	
872.66	3680.2	
872.83	6070.9	
872.99	5356.1	
873.16	4165.6	
873.33	3602.4	
873.5	5685.8	
873.67	5686.5	
873.83	3814.7	
874	4923.3	
874.17	5822.4	
874.34	7049.1	
874.5	4686.4	
874.67	4574.5	
874.84	6512.5	
875.01	5067.4	
875.17	5186.8	
875.34	3635.1	
875.51	5777.3	
875.68	6992.4	
875.84	4433.9	
876.01	5419.6	
876.18	5972.6	
876.34	6051.7	
876.51	3729.4	
876.68	3564.1	
876.85	5532.9	
877.01	6322.1	
877.18	5306.3	
877.35	3594.2	
877.52	5591	
877.68	5079	
877.85	3511.6	
878.02	3554.6	
878.18	5591	
878.35	5365.7	
878.52	2893.8	
878.69	4070	
878.85	6090.7	
879.02	6062	
879.19	5098.8	
879.35	3930.7	
879.52	6012.2	
879.69	6346.7	
879.86	3121.8	
880.02	4078.2	
880.19	5581.4	
880.36	6848.4	
880.52	4242	
880.69	4302.1	
880.86	6156.2	
881.02	6242.9	
881.19	4031.1	
881.36	4017.4	
881.52	6063.4	
881.69	5316.5	
881.86	3948.5	
882.02	3848.8	
882.19	6297.5	
882.36	7485.3	
882.52	3703.4	
882.69	5173.2	
882.86	5836.7	
883.02	5707	
883.19	4474.8	
883.36	4138.3	
883.52	6152.8	
883.69	7048.4	
883.86	3678.8	
884.02	3268.6	
884.19	6124.8	
884.36	5637.4	
884.52	4154	
884.69	3874.8	
884.86	5327.4	
885.02	6823.1	
885.19	4019.5	
885.36	4222.2	
885.52	5674.2	
885.69	5819.6	
885.86	5289.9	
886.02	4666	
886.19	6173.9	
886.35	5512.4	
886.52	4021.5	
886.69	5158.8	
886.85	5156.8	
887.02	6570.6	
887.19	6570.6	
887.35	6570.6	
887.52	6570.6	
887.68	6570.6	
887.85	6570.6	
888.02	6570.6	
888.18	6570.6	
888.35	6570.6	
888.51	6570.6	
888.68	6570.6	
888.85	6570.6	
889.01	6570.6	
889.18	6570.6	
889.35	6570.6	
889.51	6570.6	
889.68	6570.6	
889.84	6570.6	
890.01	6570.6	
890.17	6570.6	
890.34	6570.6	
890.51	6570.6	
890.67	6570.6	
890.84	6570.6	
891	6570.6	
891.17	6570.6	
891.34	6570.6	
891.5	6570.6	
891.67	6570.6	
891.83	6570.6	
892	6570.6	
892.16	6570.6	
892.33	6570.6	
892.5	6570.6	
892.66	6570.6	
892.83	6570.6	
892.99	6570.6	
893.16	6570.6	
893.32	6570.6	
893.49	6570.6	
893.65	6570.6	
893.82	6570.6	
893.99	6570.6	
894.15	6570.6	
894.32	6570.6	
894.48	6570.6	
894.65	6570.6	
894.81	6570.6	
894.98	6570.6	
895.14	6570.6	
895.31	6570.6	
895.47	6570.6	
895.64	6570.6	
895.81	6570.6	
895.97	6570.6	
896.14	6570.6	
896.3	6570.6	
896.47	6570.6	
896.63	6570.6	
896.8	6570.6	
896.96	6570.6	
897.13	6570.6	
897.29	6570.6	
897.46	6570.6	
897.62	6570.6	
897.79	6570.6	
897.95	6570.6	
898.12	6570.6	
898.28	6570.6	
898.45	6570.6	
898.61	6570.6	
898.78	6570.6	
898.94	6570.6	
899.11	6570.6	
899.27	6570.6	
899.44	6570.6	
899.6	6570.6	
899.77	6570.6	
899.93	6570.6	
900.1	6570.6	
900.26	6570.6	
900.43	6570.6	
900.59	6570.6	
900.76	6570.6	
900.92	6570.6	
901.09	6570.6	
901.25	6570.6	
901.42	6570.6	
901.58	6570.6	
901.75	6570.6	
901.91	6570.6	
902.07	6570.6	
902.24	6570.6	
902.4	6570.6	
902.57	6570.6	
902.73	6570.6	
902.9	6570.6	
903.06	6570.6	
903.23	6570.6	
903.39	6570.6	
903.56	6570.6	
903.72	6570.6	
903.88	6570.6	
904.05	6570.6	
904.21	6570.6	
904.38	6570.6	
904.54	6570.6	
904.71	6570.6	
904.87	6570.6	
905.03	6570.6	
905.2	6570.6	
905.36	6570.6	
905.53	6570.6	
905.69	6570.6	
905.86	6570.6	
906.02	6570.6	
906.18	6570.6	
906.35	6570.6	
906.51	6570.6	
906.68	6570.6	
906.84	6570.6	
907.01	6570.6	
907.17	6570.6	
907.33	6570.6	
907.5	6570.6	
907.66	6570.6	
907.83	6570.6	
907.99	6570.6	
908.15	6570.6	
908.32	6570.6	
908.48	6570.6	
908.65	6570.6	
908.81	6570.6	
908.97	6570.6	
909.14	6570.6	
909.3	6570.6	
909.47	6570.6	
909.63	6570.6	
909.79	6570.6	
909.96	6570.6	
910.12	6570.6	
910.28	6570.6	
910.45	6570.6	
910.61	6570.6	
910.78	6570.6	
910.94	6570.6	
911.1	6570.6	
911.27	6570.6	
911.43	6570.6	
911.59	6570.6	
911.76	6570.6	
911.92	6570.6	
912.08	6570.6	
912.25	6570.6	
912.41	6570.6	
912.57	6570.6	
912.74	6570.6	
912.9	6570.6	
913.07	6570.6	
913.23	6570.6	
913.39	6570.6	
913.56	6570.6	
913.72	6570.6	
913.88	6570.6	
914.05	6570.6	
914.21	6570.6	
914.37	6570.6	
914.54	6570.6	
914.7	6570.6	
914.86	6570.6	
915.03	6570.6	
915.19	6570.6	
