Wavelength	Intensities	
nm	a.u.	
179.22	1446	
179.44	1446.9	
179.65	1445.2	
179.86	1448.6	
180.08	1497.1	
180.29	3044.6	
180.51	2496.5	
180.72	4333.5	
180.94	4575.8	
181.15	2182.5	
181.37	2244.6	
181.58	4108.2	
181.79	4142.4	
182.01	2307.4	
182.22	2339.5	
182.44	4324.6	
182.65	3773.7	
182.87	2818.7	
183.08	2570.9	
183.29	4483.7	
183.51	3824.9	
183.72	2326.5	
183.94	3076	
184.15	4061.8	
184.37	3978.5	
184.58	2123.7	
184.79	2631.6	
185.01	3934.8	
185.22	4437.9	
185.44	2719	
185.65	2473.3	
185.86	4203.1	
186.08	3768.3	
186.29	2134	
186.51	2280.8	
186.72	3960.1	
186.94	4373.1	
187.15	2561.3	
187.36	2519.7	
187.58	5121.3	
187.79	4168.3	
188.01	2538.1	
188.22	3586.7	
188.43	4629.8	
188.65	4285	
188.86	2273.2	
189.08	2593.4	
189.29	3998.3	
189.5	3859.7	
189.72	2354.5	
189.93	2435	
190.15	4341.7	
190.36	4845.5	
190.57	2553.1	
190.79	2469.9	
191	4283.7	
191.22	4312.3	
191.43	2617.3	
191.64	2279.4	
191.86	4483.7	
192.07	4323.3	
192.29	2319.7	
192.5	2340.1	
192.71	4378.6	
192.93	3977.8	
193.14	2366.8	
193.35	2462.3	
193.57	3910.9	
193.78	4392.9	
194	2036.4	
194.21	2310.8	
194.42	3723.9	
194.64	4097.3	
194.85	2499.2	
195.07	2799.6	
195.28	3994.2	
195.49	3723.9	
195.71	2925.2	
195.92	2256.9	
196.13	4240.7	
196.35	4148.5	
196.56	3039.9	
196.78	2575.7	
196.99	4827.1	
197.2	4564.9	
197.42	2804.4	
197.63	2542.2	
197.84	3799	
198.06	4165.6	
198.27	2372.9	
198.48	2910.8	
198.7	3935.5	
198.91	4155.3	
199.13	2530.6	
199.34	2534	
199.55	4470.7	
199.77	3552.5	
199.98	2340.1	
200.19	2619.4	
200.41	4171.7	
200.62	3859.1	
200.83	2619.4	
201.05	2785.2	
201.26	4158.7	
201.47	3933.5	
201.69	2315.6	
201.9	2347	
202.11	4116.4	
202.33	4522.6	
202.54	2420.7	
202.76	2661	
202.97	4062.5	
203.18	4180.6	
203.4	2590	
203.61	2694.4	
203.82	4164.9	
204.04	3814.7	
204.25	2594.1	
204.46	2502.6	
204.68	4099.4	
204.89	4140.3	
205.1	2443.2	
205.32	2249.4	
205.53	4140.3	
205.74	4376.5	
205.96	2078	
206.17	2527.9	
206.38	4203.1	
206.6	4302.8	
206.81	2773.6	
207.02	2458.9	
207.24	4236.6	
207.45	4416.1	
207.66	2491	
207.88	2205	
208.09	4134.8	
208.3	4058.4	
208.52	2351.8	
208.73	2507.4	
208.94	4080.2	
209.15	4396.3	
209.37	2490.3	
209.58	2459.6	
209.79	4272.7	
210.01	4003.8	
210.22	2120.3	
210.43	2198.2	
210.65	3988.8	
210.86	4185.4	
211.07	2399.5	
211.29	2304.6	
211.5	4158.7	
211.71	4073.4	
211.93	2369.5	
212.14	2338.1	
212.35	4065.2	
212.56	4028.4	
212.78	2551.8	
212.99	2209.8	
213.2	4545.1	
213.42	3969.6	
213.63	2408.4	
213.84	2416.6	
214.06	3851.5	
214.27	3768.9	
214.48	2402.9	
214.69	2592.7	
214.91	4435.2	
215.12	4355.3	
215.33	2509.4	
215.55	2670.6	
215.76	4736.3	
215.97	4190.1	
216.18	2470.5	
216.4	2477.4	
216.61	3865.9	
216.82	4268	
217.04	2387.9	
217.25	2383.8	
217.46	4402.5	
217.67	4222.9	
217.89	2191.3	
218.1	2197.5	
218.31	4057.7	
218.53	4202.4	
218.74	2463.7	
218.95	2337.4	
219.16	4105.5	
219.38	4516.5	
219.59	2347	
219.8	2607.1	
220.01	4727.4	
220.23	4114.4	
220.44	2779.1	
220.65	2260.3	
220.87	4171.7	
221.08	4398.4	
221.29	2263.7	
221.5	2707.4	
221.72	4870.1	
221.93	3845.4	
222.14	2547.7	
222.35	2880.8	
222.57	4063.2	
222.78	4293.2	
222.99	2484.9	
223.2	2594.1	
223.42	4163.5	
223.63	4187.4	
223.84	2041.1	
224.05	2026.1	
224.27	4611.3	
224.48	4470	
224.69	2897.9	
224.9	2568.8	
225.12	4119.1	
225.33	4028.4	
225.54	2149.7	
225.75	2358.6	
225.97	3882.9	
226.18	4071.4	
226.39	2480.8	
226.6	2347.7	
226.82	3955.3	
227.03	3867.2	
227.24	2540.2	
227.45	2241.2	
227.67	4392.2	
227.88	4401.8	
228.09	2802.3	
228.3	2682.8	
228.52	4259.1	
228.73	4014	
228.94	2420.7	
229.15	2197.5	
229.36	4142.4	
229.58	4106.9	
229.79	2499.2	
230	2706.7	
230.21	4665.3	
230.43	4008.6	
230.64	2512.2	
230.85	2564.1	
231.06	4308.2	
231.28	4276.8	
231.49	2222	
231.7	2536.8	
231.91	4263.2	
232.12	4040.6	
232.34	2320.3	
232.55	2482.8	
232.76	4403.1	
232.97	4118.5	
233.18	2319	
233.4	2556.5	
233.61	4060.4	
233.82	3889.8	
234.03	2415.9	
234.25	2405.7	
234.46	5043.5	
234.67	4028.4	
234.88	2598.9	
235.09	2393.4	
235.31	4083	
235.52	3964.2	
235.73	2527.2	
235.94	2271.2	
236.15	3919.8	
236.37	4607.9	
236.58	2271.2	
236.79	2442.5	
237	4209.3	
237.21	3743	
237.43	2609.1	
237.64	2240.5	
237.85	5920.7	
238.06	3841.3	
238.27	2532	
238.48	2276	
238.7	4264.6	
238.91	4009.2	
239.12	2399.5	
239.33	2579.1	
239.54	3904.8	
239.76	3955.3	
239.97	2449.4	
240.18	2452.8	
240.39	4544.4	
240.6	4115.7	
240.82	2591.4	
241.03	2212.5	
241.24	4001	
241.45	4427	
241.66	2310.1	
241.87	2641.2	
242.09	4467.3	
242.3	4506.2	
242.51	2630.3	
242.72	2387.2	
242.93	4275.5	
243.14	3925.3	
243.36	2763.4	
243.57	2857.6	
243.78	4517.1	
243.99	4178.5	
244.2	2460.3	
244.41	2263	
244.63	3796.3	
244.84	4118.5	
245.05	2600.2	
245.26	2465.8	
245.47	4303.5	
245.68	4224.3	
245.9	2949.1	
246.11	2570.2	
246.32	3850.9	
246.53	4196.3	
246.74	3618.1	
246.95	2151.7	
247.16	3973.1	
247.38	4090.5	
247.59	2308.7	
247.8	2476.7	
248.01	3626.3	
248.22	4108.9	
248.43	2308.1	
248.64	2435	
248.86	3852.2	
249.07	3953.9	
249.28	2325.1	
249.49	2542.2	
249.7	4244.8	
249.91	4287.8	
250.12	2222	
250.34	2271.2	
250.55	4100.7	
250.76	4056.3	
250.97	2511.5	
251.18	2536.1	
251.39	4323.3	
251.6	4125.3	
251.81	2514.2	
252.03	2517.6	
252.24	3855	
252.45	4190.8	
252.66	2219.3	
252.87	2577.7	
253.08	4047.5	
253.29	4790.9	
253.5	2298.5	
253.72	2877.4	
253.93	3989.4	
254.14	4553.3	
254.35	2409.8	
254.56	2416.6	
254.77	4136.2	
254.98	3910.3	
255.19	2439.1	
255.41	2824.8	
255.62	4240.7	
255.83	4316.4	
256.04	2624.8	
256.25	2514.9	
256.46	4642.7	
256.67	3828.3	
256.88	2532.7	
257.09	2717.7	
257.31	3733.4	
257.52	3837.9	
257.73	3046.7	
257.94	2404.3	
258.15	4098	
258.36	4037.2	
258.57	2806.4	
258.78	2041.1	
258.99	4376.5	
259.2	3997.6	
259.41	2400.2	
259.63	2482.8	
259.84	4467.3	
260.05	4497.3	
260.26	2889.7	
260.47	2368.8	
260.68	4311	
260.89	3971	
261.1	2754.5	
261.31	2298.5	
261.52	4490.5	
261.73	4488.5	
261.95	2911.5	
262.16	2590	
262.37	4358.8	
262.58	4400.4	
262.79	2906.1	
263	2422.1	
263.21	4069.3	
263.42	3852.9	
263.63	2537.4	
263.84	2397.5	
264.05	4295.3	
264.26	4388.8	
264.47	2777	
264.69	2553.8	
264.9	4554.7	
265.11	3942.3	
265.32	2286.9	
265.53	2327.2	
265.74	4113	
265.95	3720.5	
266.16	2461.7	
266.37	2621.4	
266.58	4193.6	
266.79	3909.6	
267	2396.8	
267.21	2261.6	
267.42	3766.9	
267.63	4039.3	
267.84	2444.6	
268.06	2261.6	
268.27	4256.4	
268.48	4369	
268.69	2465.1	
268.9	2685.6	
269.11	4095.3	
269.32	3732.1	
269.53	2462.3	
269.74	2311.5	
269.95	4106.9	
270.16	3773	
270.37	2497.8	
270.58	2742.2	
270.79	4018.1	
271	4283.7	
271.21	2538.8	
271.42	2523.1	
271.63	4268	
271.84	3753.9	
272.05	2112.8	
272.26	2297.8	
272.47	4033.8	
272.68	4121.2	
272.89	2446	
273.11	2594.8	
273.32	3807.2	
273.53	4482.3	
273.74	2605	
273.95	2616.6	
274.16	4156	
274.37	4011.3	
274.58	2754.5	
274.79	2284.9	
275	4222.9	
275.21	4297.3	
275.42	3089	
275.63	2621.4	
275.84	4263.9	
276.05	4925.4	
276.26	2529.2	
276.47	2427.5	
276.68	4081.6	
276.89	4517.8	
277.1	2699.9	
277.31	2243.2	
277.52	4128.7	
277.73	4470.7	
277.94	2183.8	
278.15	2405.7	
278.36	4206.5	
278.57	3951.9	
278.78	2411.1	
278.99	2595.5	
279.2	3984	
279.41	3912.3	
279.62	2994.1	
279.83	2293.7	
280.04	4673.5	
280.25	3885.7	
280.46	2914.3	
280.67	2469.2	
280.88	3914.4	
281.09	4324.6	
281.3	2546.3	
281.51	3058.3	
281.72	3934.8	
281.93	4148.5	
282.14	2364	
282.35	2554.5	
282.56	4389.5	
282.77	4217.5	
282.98	2420.7	
283.19	2823.5	
283.4	4906.3	
283.61	4040.6	
283.82	2323.1	
284.03	2823.5	
284.24	4279.6	
284.45	4276.8	
284.66	2952.5	
284.87	2707.4	
285.08	4414.7	
285.29	4340.3	
285.5	2245.9	
285.71	2430.9	
285.92	4276.8	
286.12	4670.1	
286.33	2887.6	
286.54	2473.9	
286.75	4263.9	
286.96	3965.6	
287.17	2358.6	
287.38	2722.4	
287.59	4011.3	
287.8	3997.6	
288.01	2440.5	
288.22	2635.7	
288.43	3993.5	
288.64	3664.5	
288.85	2781.8	
289.06	2671.9	
289.27	4344.4	
289.48	4382	
289.69	2932.7	
289.9	2700.6	
290.11	4471.4	
290.32	3973.7	
290.53	2734	
290.74	2584.5	
290.94	4267.3	
291.15	4279.6	
291.36	2379.7	
291.57	2650.8	
291.78	4028.4	
291.99	3754.6	
292.2	2334	
292.41	2553.8	
292.62	4358.1	
292.83	4246.1	
293.04	3076.7	
293.25	2372.9	
293.46	3986.7	
293.67	4329.4	
293.88	2321.7	
294.09	2329.9	
294.29	3874.1	
294.5	4098.7	
294.71	2496.5	
294.92	2405	
295.13	3979.2	
295.34	4620.2	
295.55	2255.5	
295.76	2184.5	
295.97	4244.8	
296.18	4558.1	
296.39	2242.5	
296.6	2346.3	
296.81	3984	
297.01	4300.1	
297.22	2455.5	
297.43	2400.2	
297.64	4016.1	
297.85	3830.4	
298.06	2089.6	
298.27	2249.4	
298.48	4029.7	
298.69	3916.4	
298.9	2513.5	
299.11	2305.3	
299.31	3885	
299.52	3932.1	
299.73	2637.1	
299.94	2582.5	
300.15	4127.3	
300.36	3951.9	
300.57	2587.9	
300.78	2512.2	
300.99	3949.8	
301.2	4129.4	
301.4	2423.4	
301.61	2462.3	
301.82	4126.7	
302.03	4284.4	
302.24	2766.1	
302.45	2301.9	
302.66	4222.2	
302.87	4210.6	
303.08	2410.5	
303.29	2934.1	
303.49	4040.6	
303.7	3882.3	
303.91	2262.3	
304.12	2800.9	
304.33	3683.6	
304.54	4171.7	
304.75	2426.8	
304.96	2352.4	
305.16	4244.8	
305.37	4530.1	
305.58	2220	
305.79	2194.1	
306	4237.9	
306.21	3683.6	
306.42	2419.3	
306.63	3217.4	
306.83	3983.3	
307.04	4126.7	
307.25	2567.5	
307.46	2459.6	
307.67	3745.1	
307.88	4147.8	
308.09	2435.7	
308.29	2386.6	
308.5	4147.1	
308.71	4308.9	
308.92	2490.3	
309.13	2306.7	
309.34	4175.8	
309.55	4014	
309.75	2829.6	
309.96	2571.6	
310.17	4284.4	
310.38	3885.7	
310.59	2671.9	
310.8	2552.5	
311.01	4501.4	
311.21	4078.2	
311.42	2375.6	
311.63	2313.5	
311.84	4010.6	
312.05	4071.4	
312.26	2618.7	
312.46	2685.6	
312.67	3968.3	
312.88	3747.8	
313.09	2285.5	
313.3	2273.9	
313.51	4445.5	
313.71	4677.6	
313.92	2302.6	
314.13	2347	
314.34	4194.9	
314.55	4095.3	
314.76	2747.7	
314.96	2488.3	
315.17	4267.3	
315.38	4002.4	
315.59	2355.2	
315.8	2269.8	
316.01	4335.5	
316.21	4503.5	
316.42	2303.3	
316.63	2513.5	
316.84	3996.3	
317.05	4306.9	
317.26	2666.5	
317.46	2414.6	
317.67	4070.7	
317.88	4232.5	
318.09	2727.9	
318.3	2208.4	
318.5	4031.8	
318.71	4140.3	
318.92	3288.4	
319.13	2600.9	
319.34	4273.4	
319.54	4377.9	
319.75	2210.4	
319.96	2131.3	
320.17	4119.8	
320.38	4332.1	
320.58	2165.4	
320.79	2437.1	
321	4406.5	
321.21	4477.5	
321.42	2560	
321.62	2191.3	
321.83	3973.7	
322.04	4055	
322.25	2498.5	
322.46	2273.9	
322.66	4083	
322.87	4302.8	
323.08	2646.7	
323.29	2193.4	
323.5	4608.6	
323.7	3822.2	
323.91	2940.9	
324.12	2646.7	
324.33	4189.5	
324.53	4246.1	
324.74	2562	
324.95	2664.4	
325.16	3819.5	
325.37	3973.7	
325.57	2243.9	
325.78	2349.7	
325.99	4249.5	
326.2	3792.8	
326.4	2947.7	
326.61	2206.3	
326.82	4002.4	
327.03	4100.7	
327.24	2942.2	
327.44	2741.5	
327.65	4263.2	
327.86	3628.3	
328.07	2604.3	
328.27	2297.8	
328.48	4496	
328.69	3801	
328.9	2971.6	
329.1	2337.4	
329.31	4013.3	
329.52	4403.8	
329.73	2372.9	
329.93	2424.1	
330.14	4194.2	
330.35	4139.6	
330.56	3335.5	
330.76	2684.9	
330.97	4003.8	
331.18	4013.3	
331.39	2508.8	
331.59	2169.5	
331.8	4321.2	
332.01	4431.8	
332.22	2430.3	
332.42	2482.8	
332.63	4141	
332.84	3761.4	
333.05	2532.7	
333.25	2396.1	
333.46	3874.8	
333.67	4054.3	
333.88	2435.7	
334.08	2499.9	
334.29	4956.8	
334.5	4248.2	
334.7	2324.4	
334.91	2940.9	
335.12	3790.1	
335.33	4212.7	
335.53	2540.2	
335.74	3304.7	
335.95	4061.8	
336.16	3759.4	
336.36	2415.9	
336.57	2715.6	
336.78	3565.5	
336.98	4336.2	
337.19	2909.5	
337.4	2418.7	
337.61	4665.3	
337.81	3799	
338.02	2403.6	
338.23	2812.5	
338.43	4453	
338.64	3908.9	
338.85	2321.7	
339.05	2918.4	
339.26	4513.7	
339.47	3805.1	
339.68	2319.7	
339.88	3039.9	
340.09	4261.8	
340.3	4328.7	
340.5	2601.6	
340.71	2154.5	
340.92	3867.2	
341.13	4344.4	
341.33	2250	
341.54	2557.2	
341.75	4216.8	
341.95	3913.7	
342.16	2483.5	
342.37	2679.4	
342.57	3822.2	
342.78	3986	
342.99	2672.6	
343.19	2222	
343.4	4269.3	
343.61	4126	
343.81	2465.1	
344.02	2236.4	
344.23	4216.8	
344.43	4370.4	
344.64	2719	
344.85	2661	
345.06	4212.7	
345.26	4286.4	
345.47	2608.4	
345.68	2898.6	
345.88	3782.6	
346.09	4233.2	
346.3	2638.5	
346.5	2095.8	
346.71	3965.6	
346.92	3903.4	
347.12	2257.5	
347.33	2538.8	
347.54	4336.9	
347.74	4427.7	
347.95	2563.4	
348.16	2125.8	
348.36	3940.3	
348.57	3812.6	
348.78	2601.6	
348.98	2648	
349.19	4024.9	
349.39	3698.6	
349.6	2268.5	
349.81	2353.1	
350.01	4269.3	
350.22	3859.7	
350.43	2544.3	
350.63	2817.3	
350.84	4033.8	
351.05	3870	
351.25	2371.5	
351.46	2206.3	
351.67	4141	
351.87	3894.6	
352.08	2452.8	
352.29	2677.4	
352.49	4222.9	
352.7	4227.7	
352.9	2257.5	
353.11	2664.4	
353.32	4536.3	
353.52	3948.5	
353.73	2314.9	
353.94	2709.5	
354.14	4189.5	
354.35	3936.2	
354.55	2340.1	
354.76	2523.8	
354.97	4157.4	
355.17	4003.8	
355.38	2310.8	
355.59	2811.2	
355.79	3864.5	
356	4074.8	
356.2	2499.2	
356.41	2282.1	
356.62	3803.8	
356.82	3996.3	
357.03	2666.5	
357.24	2433.7	
357.44	3787.4	
357.65	3908.2	
357.85	2970.9	
358.06	2521	
358.27	3725.9	
358.47	3705.5	
358.68	2284.2	
358.88	2637.8	
359.09	4138.9	
359.3	4250.9	
359.5	2950.4	
359.71	2691.7	
359.91	4403.8	
360.12	4005.8	
360.33	2661	
360.53	2828.2	
360.74	3893.9	
360.94	3876.8	
361.15	2691.7	
361.36	2386.6	
361.56	4258.4	
361.77	4033.1	
361.97	2930.6	
362.18	2425.5	
362.38	4272.1	
362.59	3764.2	
362.8	2326.5	
363	2336.7	
363.21	3725.9	
363.41	3958	
363.62	2577.7	
363.83	2995.5	
364.03	4237.2	
364.24	4407.9	
364.44	3166.8	
364.65	3053.5	
364.85	3956	
365.06	3876.8	
365.27	2428.2	
365.47	2523.8	
365.68	4408.6	
365.88	4009.2	
366.09	2608.4	
366.29	2456.2	
366.5	3990.1	
366.71	4250.2	
366.91	2996.9	
367.12	2749.1	
367.32	4614.1	
367.53	4107.5	
367.73	2770.9	
367.94	3132	
368.14	4280.3	
368.35	4317.1	
368.56	2691.7	
368.76	2414.6	
368.97	4134.8	
369.17	4913.8	
369.38	2430.9	
369.58	2588.6	
369.79	3730	
369.99	4502.8	
370.2	3132.7	
370.4	2605.7	
370.61	4090.5	
370.82	4725.3	
371.02	2568.2	
371.23	2250	
371.43	3799	
371.64	4450.2	
371.84	2672.6	
372.05	3087.7	
372.25	4844.1	
372.46	4068.6	
372.66	2600.2	
372.87	2605.7	
373.07	4104.1	
373.28	5046.9	
373.48	3058.3	
373.69	2897.2	
373.9	4031.8	
374.1	4049.5	
374.31	3059	
374.51	2770.9	
374.72	4334.9	
374.92	3934.8	
375.13	3104.7	
375.33	2768.9	
375.54	4174.4	
375.74	3962.8	
375.95	2832.3	
376.15	3359.4	
376.36	4304.1	
376.56	4152.6	
376.77	2816.6	
376.97	2915.6	
377.18	4827.1	
377.38	4283.7	
377.59	3084.9	
377.79	2589.3	
378	4192.9	
378.2	4257.7	
378.41	2587.3	
378.61	2546.3	
378.82	4487.8	
379.02	4083.6	
379.23	2682.8	
379.43	3153.9	
379.64	4584.7	
379.84	4269.3	
380.05	2697.2	
380.25	2551.1	
380.46	4344.4	
380.66	4131.4	
380.87	3186	
381.07	3418.1	
381.28	4571.7	
381.48	4283	
381.69	2569.5	
381.89	2669.2	
382.1	3791.5	
382.3	4256.4	
382.51	3127.2	
382.71	3534.1	
382.91	4158.1	
383.12	4427	
383.32	2797.5	
383.53	2824.8	
383.73	4226.3	
383.94	4178.5	
384.14	2857.6	
384.35	2434.4	
384.55	3873.4	
384.76	4221.5	
384.96	2888.3	
385.17	2955.2	
385.37	4321.2	
385.58	3865.9	
385.78	2884.9	
385.98	2436.4	
386.19	4083	
386.39	4335.5	
386.6	2699.9	
386.8	2743.6	
387.01	4253.6	
387.21	4371	
387.42	2944.3	
387.62	3197.6	
387.83	4037.2	
388.03	4065.9	
388.23	2928.6	
388.44	3158	
388.64	3829	
388.85	3814.7	
389.05	2985.3	
389.26	3216.7	
389.46	5046.2	
389.67	4629.1	
389.87	2978.4	
390.07	2977.7	
390.28	4087.7	
390.48	3937.6	
390.69	2587.9	
390.89	2817.3	
391.1	4125.3	
391.3	4491.2	
391.5	3371.6	
391.71	3574.4	
391.91	4461.8	
392.12	4676.9	
392.32	3370.3	
392.53	3015.3	
392.73	4128.7	
392.93	4136.9	
393.14	2880.8	
393.34	3214.6	
393.55	4440	
393.75	4091.2	
393.95	2862.4	
394.16	2780.5	
394.36	4152.6	
394.57	4425.7	
394.77	2614.6	
394.98	2733.4	
395.18	4030.4	
395.38	4033.8	
395.59	3263.8	
395.79	2750.4	
396	4182.6	
396.2	4437.3	
396.4	3137.5	
396.61	3104.7	
396.81	4399.7	
397.02	4027	
397.22	3220.1	
397.42	3300.6	
397.63	4509.6	
397.83	4107.5	
398.04	2717	
398.24	3013.2	
398.44	4359.4	
398.65	3776.5	
398.85	2712.2	
399.05	2657.6	
399.26	4205.8	
399.46	4931.5	
399.67	2906.1	
399.87	2736.8	
400.07	4306.9	
400.28	4392.9	
400.48	2784.6	
400.69	3330.7	
400.89	4414.7	
401.09	4784.7	
401.3	2783.9	
401.5	3237.2	
401.7	4742.4	
401.91	4987.5	
402.11	3052.2	
402.32	3056.3	
402.52	4597.7	
402.72	4515.1	
402.93	3216	
403.13	2568.8	
403.33	4926.7	
403.54	4268.6	
403.74	2970.2	
403.94	3464.5	
404.15	4296.6	
404.35	4954.7	
404.56	2898.6	
404.76	3691.8	
404.96	4544.4	
405.17	4369.7	
405.37	3398.3	
405.57	3149.1	
405.78	4510.3	
405.98	4275.5	
406.18	2984.6	
406.39	3269.9	
406.59	4476.2	
406.79	4212	
407	2836.4	
407.2	2869.2	
407.4	4843.4	
407.61	4698.7	
407.81	2839.8	
408.01	3713.7	
408.22	3891.8	
408.42	4901.5	
408.62	3439.2	
408.83	3179.8	
409.03	4341.7	
409.23	4344.4	
409.44	3236.5	
409.64	3381.2	
409.84	4942.4	
410.05	4906.3	
410.25	3272	
410.45	3250.1	
410.66	4726	
410.86	5896.8	
411.06	3533.4	
411.27	3403.7	
411.47	5751.4	
411.67	4733.5	
411.88	3481.5	
412.08	3593.5	
412.28	5104.9	
412.49	5294.7	
412.69	3481.5	
412.89	3420.1	
413.09	5284.4	
413.3	5125.4	
413.5	3528.7	
413.7	3329.3	
413.91	4657.8	
414.11	5218.2	
414.31	3390.1	
414.52	3607.8	
414.72	5096	
414.92	5121.3	
415.12	3415.3	
415.33	3710.9	
415.53	5092.6	
415.73	5369.1	
415.94	3917.1	
416.14	3520.5	
416.34	4854.4	
416.55	4660.5	
416.75	4157.4	
416.95	3883.6	
417.15	5451.7	
417.36	5608	
417.56	4242.7	
417.76	3748.5	
417.97	5410.7	
418.17	5292.6	
418.37	3736.2	
418.57	3627	
418.78	5335.6	
418.98	5094.7	
419.18	4115.7	
419.38	3998.3	
419.59	5062.6	
419.79	4905.6	
419.99	3642.7	
420.2	3695.2	
420.4	5341.1	
420.6	5341.1	
420.8	3550.5	
421.01	3502	
421.21	5351.3	
421.41	5232.6	
421.61	3693.2	
421.82	3649.5	
422.02	5128.8	
422.22	5502.9	
422.42	3984	
422.63	3813.3	
422.83	5062.6	
423.03	5707	
423.23	3859.7	
423.44	3386	
423.64	5036	
423.84	4803.9	
424.04	3622.9	
424.25	3405.8	
424.45	5474.9	
424.65	5430.5	
424.85	3332	
425.06	3604.4	
425.26	5773.9	
425.46	5036.6	
425.66	3834.5	
425.87	3662.5	
426.07	5365	
426.27	5267.4	
426.47	3687.7	
426.67	3454.9	
426.88	5520	
427.08	5270.1	
427.28	3926	
427.48	3354.6	
427.69	4810.7	
427.89	5003.2	
428.09	3778.5	
428.29	3416.7	
428.5	5266.7	
428.7	5177.9	
428.9	3449.5	
429.1	3648.1	
429.3	5238.7	
429.51	5296	
429.71	3602.4	
429.91	3977.2	
430.11	5401.9	
430.31	5446.2	
430.52	3768.9	
430.72	3812	
430.92	5633.3	
431.12	5240.1	
431.32	3629.7	
431.53	3805.1	
431.73	4893.3	
431.93	5636.7	
432.13	3560.1	
432.33	3494.5	
432.54	5161.6	
432.74	5180.7	
432.94	3430.3	
433.14	3944.4	
433.34	5555.5	
433.55	5302.2	
433.75	3958.7	
433.95	4684.4	
434.15	5384.8	
434.35	5087.8	
434.56	3587.4	
434.76	3377.1	
434.96	5318.6	
435.16	5461.9	
435.36	3536.8	
435.56	4074.8	
435.77	5162.2	
435.97	5256.5	
436.17	4368.3	
436.37	4052.9	
436.57	5084.4	
436.78	5115.1	
436.98	4257	
437.18	4285	
437.38	5208.7	
437.58	5120.6	
437.78	4387.4	
437.99	3682.9	
438.19	5494.7	
438.39	6185.5	
438.59	3814.7	
438.79	3478.8	
438.99	5793	
439.2	5100.8	
439.4	3544.4	
439.6	3491.8	
439.8	5173.9	
440	5847	
440.2	4031.1	
440.4	4042.7	
440.61	5595.1	
440.81	5796.4	
441.01	3721.2	
441.21	4184.7	
441.41	5905.7	
441.61	5674.9	
441.81	4248.2	
442.02	4758.8	
442.22	6108.4	
442.42	5760.3	
442.62	3795.6	
442.82	3818.8	
443.02	5988.3	
443.22	5510.4	
443.43	4106.2	
443.63	3798.3	
443.83	5393.7	
444.03	5375.9	
444.23	4369	
444.43	4130.1	
444.63	5626.5	
444.83	6150.1	
445.04	3940.3	
445.24	4453.6	
445.44	5722.7	
445.64	5766.4	
445.84	4240	
446.04	4301.4	
446.24	5454.4	
446.44	5857.2	
446.65	3822.9	
446.85	4087.7	
447.05	5560.9	
447.25	5780.1	
447.45	4151.9	
447.65	3775.1	
447.85	5638.1	
448.05	5311.7	
448.25	4184	
448.46	4117.8	
448.66	5597.1	
448.86	5406.6	
449.06	3821.5	
449.26	4229.7	
449.46	5774.6	
449.66	5352.7	
449.86	4055	
450.06	4037.9	
450.26	5371.1	
450.47	5724.1	
450.67	4189.5	
450.87	4244.1	
451.07	5971.9	
451.27	5636	
451.47	3857	
451.67	4317.8	
451.87	5529.5	
452.07	6087.9	
452.27	4022.2	
452.47	3999.7	
452.67	5673.6	
452.88	5722.7	
453.08	3722.5	
453.28	4577.9	
453.48	6287.9	
453.68	5575.3	
453.88	3961.5	
454.08	4000.4	
454.28	5924.1	
454.48	5719.3	
454.68	4323.9	
454.88	4470	
455.08	5954.1	
455.28	5709.1	
455.48	3965.6	
455.68	4295.3	
455.89	6169.2	
456.09	5990.3	
456.29	4159.4	
456.49	4228.4	
456.69	6141.9	
456.89	5773.2	
457.09	4401.8	
457.29	4638	
457.49	5992.4	
457.69	5991	
457.89	4515.1	
458.09	4141.7	
458.29	5933.6	
458.49	6326.2	
458.69	4607.9	
458.89	4296	
459.09	6364.4	
459.29	6361.7	
459.49	4440.7	
459.69	4723.3	
459.9	6092.7	
460.1	5950.7	
460.3	4334.9	
460.5	4182	
460.7	6211.5	
460.9	5900.9	
461.1	4124.6	
461.3	4696.7	
461.5	6490	
461.7	6270.9	
461.9	4349.9	
462.1	4548.5	
462.3	6204.7	
462.5	6359.6	
462.7	4444.8	
462.9	4438.6	
463.1	6899.6	
463.3	6748.1	
463.5	4649.6	
463.7	5074.9	
463.9	6346	
464.1	6434	
464.3	4765.6	
464.5	4816.1	
464.7	6537.8	
464.9	6468.9	
465.1	5380	
465.3	5010.7	
465.5	6787.7	
465.7	6866.2	
465.9	5154.1	
466.1	4961.5	
466.3	6664.8	
466.5	6569.2	
466.7	5417.6	
466.9	5001.8	
467.1	6823.1	
467.3	7123.5	
467.5	5554.8	
467.7	5035.3	
467.9	7253.9	
468.1	7524.9	
468.3	5279.7	
468.5	5532.9	
468.7	6640.9	
468.9	6638.8	
469.1	5189.6	
469.3	5545.2	
469.5	7697.6	
469.7	6516.6	
469.9	5355.4	
470.1	5119.9	
470.3	6932.4	
470.5	6710.5	
470.7	5644.9	
470.9	5128.1	
471.1	6601.3	
471.3	6840.2	
471.5	5104.9	
471.69	5894.7	
471.89	6688	
472.09	6260.6	
472.29	5408.7	
472.49	5458.5	
472.69	6469.5	
472.89	6787	
473.09	4990.2	
473.29	4980.7	
473.49	6490.7	
473.69	6342.6	
473.89	5378.6	
474.09	5089.9	
474.29	7098.9	
474.49	6933.7	
474.69	5420.3	
474.89	5107	
475.09	6546	
475.29	6571.9	
475.49	4924.7	
475.69	5018.9	
475.88	7220.5	
476.08	6812.9	
476.28	4812.7	
476.48	4955.4	
476.68	7053.9	
476.88	6743.3	
477.08	5071.5	
477.28	5101.5	
477.48	6640.2	
477.68	6755.6	
477.88	4799.1	
478.08	5036	
478.28	7081.9	
478.48	6650.4	
478.67	5055.1	
478.87	4694.6	
479.07	6909.8	
479.27	6693.4	
479.47	5190.2	
479.67	5221	
479.87	6852.5	
480.07	7073.7	
480.27	4862.6	
480.47	5442.8	
480.67	6554.9	
480.87	7080.5	
481.06	4916.5	
481.26	5375.9	
481.46	6759	
481.66	6584.9	
481.86	5266.7	
482.06	5593	
482.26	6627.2	
482.46	6984.9	
482.66	5111	
482.86	4920.6	
483.05	6883.9	
483.25	6394.4	
483.45	6313.2	
483.65	5187.5	
483.85	6343.2	
484.05	6603.3	
484.25	5433.3	
484.45	5588.9	
484.65	6837.5	
484.84	7103.7	
485.04	5165.7	
485.24	5198.4	
485.44	7387.7	
485.64	6484.6	
485.84	4957.4	
486.04	5526.1	
486.24	6755.6	
486.44	6873.7	
486.63	4926.7	
486.83	5297.4	
487.03	6745.3	
487.23	6823.8	
487.43	4961.5	
487.63	5915.2	
487.83	6859.3	
488.02	6677.1	
488.22	5418.2	
488.42	5711.1	
488.62	7286	
488.82	6769.9	
489.02	5352	
489.22	5349.3	
489.41	6947.4	
489.61	7241.6	
489.81	5151.3	
490.01	5210	
490.21	7289.4	
490.41	7634.8	
490.61	5342.5	
490.8	5232.6	
491	7051.8	
491.2	6720.1	
491.4	5573.9	
491.6	5169.1	
491.8	6924.9	
491.99	6952.9	
492.19	5070.1	
492.39	5132.2	
492.59	7083.9	
492.79	7258	
492.99	5562.3	
493.18	5276.3	
493.38	7464.8	
493.58	7647.1	
493.78	5583.4	
493.98	5357.5	
494.18	7106.5	
494.37	6749.4	
494.57	5862.7	
494.77	5728.9	
494.97	7346.7	
495.17	7546.8	
495.37	5638.7	
495.56	5782.1	
495.76	7473	
495.96	7546.1	
496.16	6298.9	
496.36	5803.9	
496.55	7682.6	
496.75	7330.4	
496.95	5890.6	
497.15	5926.8	
497.35	7717.4	
497.54	7647.8	
497.74	5785.5	
497.94	6508.4	
498.14	8062.9	
498.34	7807.5	
498.53	5687.9	
498.73	6007.4	
498.93	7311.9	
499.13	7706.5	
499.33	6057.2	
499.52	6105.7	
499.72	7900.4	
499.92	7791.2	
500.12	5847.6	
500.32	6042.9	
500.51	7871.7	
500.71	7667.6	
500.91	6423.8	
501.11	6248.4	
501.31	7852.6	
501.5	8110.6	
501.7	6625.9	
501.9	6116.6	
502.1	7733.1	
502.29	8019.2	
502.49	6350.8	
502.69	6447	
502.89	7860.1	
503.09	7817.1	
503.28	5773.9	
503.48	5851	
503.68	7591.8	
503.88	7341.3	
504.07	6217.6	
504.27	6016.9	
504.47	7649.8	
504.67	7681.2	
504.86	6210.1	
505.06	6017.6	
505.26	7552.2	
505.46	8125.7	
505.65	5945.9	
505.85	6047	
506.05	7489.4	
506.25	7754.3	
506.44	5640.8	
506.64	5980.8	
506.84	7363.1	
507.04	7643	
507.23	5704.3	
507.43	5938.4	
507.63	8089.5	
507.83	7247.1	
508.02	6006	
508.22	5755.5	
508.42	8338.6	
508.62	7223.9	
508.81	5932.3	
509.01	6099.5	
509.21	7214.3	
509.4	7479.2	
509.6	6027.2	
509.8	5750.7	
510	7392.5	
510.19	7798.7	
510.39	5630.5	
510.59	5721.3	
510.79	7304.4	
510.98	7946.8	
511.18	5854.5	
511.38	5821	
511.57	7866.2	
511.77	7470.3	
511.97	6102.3	
512.17	5765.7	
512.36	7818.5	
512.56	7544	
512.76	5659.9	
512.95	5556.1	
513.15	7909.3	
513.35	6960.4	
513.55	6139.8	
513.74	5710.4	
513.94	7775.5	
514.14	7419.1	
514.33	6186.9	
514.53	6039.5	
514.73	7406.1	
514.92	7441	
515.12	5799.2	
515.32	5765	
515.51	7591.8	
515.71	7542.7	
515.91	6594.5	
516.11	5655.8	
516.3	8303.1	
516.5	7451.9	
516.7	6049	
516.89	6225.1	
517.09	7483.3	
517.29	7514.7	
517.48	6314.6	
517.68	5895.4	
517.88	7004.1	
518.07	7658	
518.27	6187.6	
518.47	5780.7	
518.66	7873.1	
518.86	7277.8	
519.06	5644.9	
519.25	5926.8	
519.45	7501.7	
519.65	8141.4	
519.84	6227.2	
520.04	6535.1	
520.24	8406.9	
520.43	7724.3	
520.63	6030.6	
520.83	5963.7	
521.02	7463.5	
521.22	7591.8	
521.42	6070.2	
521.61	6389	
521.81	7397.9	
522.01	7632.8	
522.2	6084.5	
522.4	5984.2	
522.6	7872.4	
522.79	7189.7	
522.99	6015.6	
523.18	5739.1	
523.38	7759.8	
523.58	7714.7	
523.77	6660.7	
523.97	5855.8	
524.17	8639	
524.36	8180.3	
524.56	6576	
524.76	6350.1	
524.95	7891.5	
525.15	7762.5	
525.34	6336.4	
525.54	6378.1	
525.74	8179.6	
525.93	7645.8	
526.13	6906.4	
526.33	6404.7	
526.52	8408.3	
526.72	8018.5	
526.91	7019.8	
527.11	6649.1	
527.31	8232.8	
527.5	8439.7	
527.7	6614.9	
527.89	6208.8	
528.09	7908.6	
528.29	8178.2	
528.48	6918.7	
528.68	6569.9	
528.87	8357.1	
529.07	8402.8	
529.27	6645	
529.46	6372.6	
529.66	8323.6	
529.85	8356.4	
530.05	6415.6	
530.25	6721.4	
530.44	8905.3	
530.64	8146.1	
530.83	6567.8	
531.03	6722.8	
531.23	8607.6	
531.42	8256	
531.62	7002	
531.81	6683.9	
532.01	8421.9	
532.21	8564.6	
532.4	6629.3	
532.6	6838.9	
532.79	8893	
532.99	8667.7	
533.18	6925.5	
533.38	7382.2	
533.58	8564.6	
533.77	8701.1	
533.97	6978.1	
534.16	7304.4	
534.36	8986.5	
534.55	8569.4	
534.75	7381.6	
534.95	6967.2	
535.14	8971.5	
535.34	8488.1	
535.53	6831.3	
535.73	7647.8	
535.92	9221.3	
536.12	8480.6	
536.31	6815	
536.51	7425.3	
536.71	8785.8	
536.9	8488.8	
537.1	6909.8	
537.29	6983.6	
537.49	8946.9	
537.68	8402.1	
537.88	7314	
538.07	6754.2	
538.27	8682	
538.46	9058.2	
538.66	6735.1	
538.86	6961.7	
539.05	8723	
539.25	8826.1	
539.44	7314.7	
539.64	6873	
539.83	8723	
540.03	9022	
540.22	6916.7	
540.42	6931.7	
540.61	8775.5	
540.81	8746.2	
541	7079.1	
541.2	7431.4	
541.39	8284	
541.59	8506.6	
541.78	7282.6	
541.98	6767.2	
542.18	8315.4	
542.37	8201.4	
542.57	6950.1	
542.76	7240.3	
542.96	8210.3	
543.15	8403.5	
543.35	7019.1	
543.54	6700.3	
543.74	7984.3	
543.93	8456.1	
544.13	6930.3	
544.32	7337.9	
544.52	8630.8	
544.71	8204.2	
544.91	6454.5	
545.1	6850.5	
545.3	8273.1	
545.49	8285.4	
545.69	6456.6	
545.88	6678.4	
546.08	8956.4	
546.27	8708.6	
546.47	6898.2	
546.66	6467.5	
546.86	8550.3	
547.05	8639.7	
547.24	6646.3	
547.44	6537.1	
547.63	8075.8	
547.83	8553.7	
548.02	6689.3	
548.22	6804	
548.41	7958.4	
548.61	8621.3	
548.8	6477.7	
549	6487.3	
549.19	8295	
549.39	8433.5	
549.58	6338.5	
549.78	6624.5	
549.97	8394.6	
550.17	8114.7	
550.36	6979.5	
550.55	7404.8	
550.75	8082	
550.94	8566	
551.14	6453.1	
551.33	6576.7	
551.53	7834.2	
551.72	8289.5	
551.92	6605.4	
552.11	6598.6	
552.31	8418.5	
552.5	8220.5	
552.69	7264.8	
552.89	6347.3	
553.08	8325.7	
553.28	8043.7	
553.47	6479.1	
553.67	6951.5	
553.86	8533.9	
554.06	7740	
554.25	6089.3	
554.44	6472.3	
554.64	8867.7	
554.83	8563.2	
555.03	6339.8	
555.22	6534.4	
555.42	8356.4	
555.61	8154.3	
555.8	6433.4	
556	6535.8	
556.19	7878.5	
556.39	8181	
556.58	6464.8	
556.78	6444.3	
556.97	8296.3	
557.16	7946.8	
557.36	6972.7	
557.55	6335.7	
557.75	7617.1	
557.94	8556.4	
558.13	6293.4	
558.33	6221	
558.52	8413.7	
558.72	7614.3	
558.91	6227.9	
559.1	6351.4	
559.3	7634.1	
559.49	7512.6	
559.69	6275.7	
559.88	6436.1	
560.07	8043.7	
560.27	8331.1	
560.46	6552.8	
560.66	6705.7	
560.85	7970.7	
561.04	7521.5	
561.24	6132.3	
561.43	6223.1	
561.63	7696.9	
561.82	7820.5	
562.01	6884.6	
562.21	6331	
562.4	8103.8	
562.59	8460.8	
562.79	6284.5	
562.98	6167.1	
563.18	7946.8	
563.37	8547.5	
563.56	6561	
563.76	6227.9	
563.95	7731.8	
564.14	7775.5	
564.34	6485.2	
564.53	6225.1	
564.73	8131.8	
564.92	8071.7	
565.11	6457.9	
565.31	6189	
565.5	8406.9	
565.69	7641	
565.89	6382.8	
566.08	6397.2	
566.27	8069	
566.47	8475.2	
566.66	6862.7	
566.85	6181.5	
567.05	8138.6	
567.24	7927.7	
567.44	6255.2	
567.63	6846.4	
567.82	8201.4	
568.02	7988.4	
568.21	6287.3	
568.4	6506.4	
568.6	8048.5	
568.79	7955.7	
568.98	6210.1	
569.18	6167.8	
569.37	7942.7	
569.56	8845.2	
569.76	6468.9	
569.95	6952.9	
570.14	8197.3	
570.34	8011.7	
570.53	6303.6	
570.72	6287.9	
570.91	8428.8	
571.11	8037.6	
571.3	6496.2	
571.49	6838.9	
571.69	8181	
571.88	7756.3	
572.07	6629.3	
572.27	6592.4	
572.46	7712.7	
572.65	8250.6	
572.85	6440.2	
573.04	6498.2	
573.23	8472.4	
573.43	8121.6	
573.62	6307.1	
573.81	6463.4	
574	8225.3	
574.2	7980.9	
574.39	6467.5	
574.58	6504.3	
574.78	8570.7	
574.97	8335.9	
575.16	6808.1	
575.36	6745.3	
575.55	8535.3	
575.74	8363.2	
575.93	6327.5	
576.13	6696.9	
576.32	8178.9	
576.51	8462.9	
576.71	6539.8	
576.9	7239.6	
577.09	8591.9	
577.28	8269	
577.48	6802	
577.67	6371.2	
577.86	8260.8	
578.05	8293.6	
578.25	6720.1	
578.44	6621.8	
578.63	8217.8	
578.83	8744.8	
579.02	6476.4	
579.21	7174	
579.4	8342.1	
579.6	8260.8	
579.79	6746	
579.98	7767.3	
580.17	8512.7	
580.37	8601.5	
580.56	6479.1	
580.75	6873	
580.94	8515.5	
581.14	8864.3	
581.33	7087.3	
581.52	6634.1	
581.71	8424.7	
581.91	8871.1	
582.1	6609.5	
582.29	6718	
582.48	8320.9	
582.68	8322.3	
582.87	7007.5	
583.06	6846.4	
583.25	8632.9	
583.45	8221.9	
583.64	7221.1	
583.83	7493.5	
584.02	8400.8	
584.21	8687.5	
584.41	7051.8	
584.6	6854.6	
584.79	8507.3	
584.98	8628.8	
585.18	6617.7	
585.37	6668.2	
585.56	8316.1	
585.75	8507.3	
585.94	6701	
586.14	6932.4	
586.33	8741.4	
586.52	8314.8	
586.71	6878.4	
586.91	6662	
587.1	7949.5	
587.29	8409	
587.48	6654.5	
587.67	6509.1	
587.87	8475.2	
588.06	8255.4	
588.25	7138.5	
588.44	6742.6	
588.63	8094.3	
588.83	8382.3	
589.02	6571.9	
589.21	6436.8	
589.4	8006.9	
589.59	7951.6	
589.78	6002.6	
589.98	6057.9	
590.17	7614.3	
590.36	7718.8	
590.55	5724.1	
590.74	6062.7	
590.94	8143.4	
591.13	7573.4	
591.32	5947.3	
591.51	5698.8	
591.7	7646.4	
591.89	7486.7	
592.09	5764.3	
592.28	5911.8	
592.47	7087.3	
592.66	8236.9	
592.85	5815.5	
593.05	5905.7	
593.24	7473.7	
593.43	8051.9	
593.62	6001.2	
593.81	6141.2	
594	7733.1	
594.19	7653.9	
594.39	5829.9	
594.58	5880.4	
594.77	7826	
594.96	7948.8	
595.15	5926.1	
595.34	6095.4	
595.54	7638.9	
595.73	7246.4	
595.92	5565.7	
596.11	6020.3	
596.3	7856.7	
596.49	7298.3	
596.68	5937.7	
596.88	6168.5	
597.07	7679.2	
597.26	7225.9	
597.45	5721.3	
597.64	6319.3	
597.83	7424.6	
598.02	7694.9	
598.22	5740.5	
598.41	6117.3	
598.6	7520.1	
598.79	7245	
598.98	5814.9	
599.17	6191.7	
599.36	7672.4	
599.55	7986.4	
599.74	6656.6	
599.94	6565.1	
600.13	7858.1	
600.32	7282.6	
600.51	5672.9	
600.7	5687.2	
600.89	8038.3	
601.08	8224	
601.27	5588.2	
601.47	6134.3	
601.66	7762.5	
601.85	7946.1	
602.04	6011.5	
602.23	5899.5	
602.42	7387.7	
602.61	7680.6	
602.8	5902.9	
602.99	5835.3	
603.18	7516.7	
603.37	7533.8	
603.57	6042.2	
603.76	6314.6	
603.95	7862.8	
604.14	7576.1	
604.33	5806.7	
604.52	5920	
604.71	7636.2	
604.9	7256	
605.09	6291.4	
605.28	6146	
605.47	7998.7	
605.66	7559.1	
605.86	6098.2	
606.05	5844.2	
606.24	7872.4	
606.43	7135.8	
606.62	6070.9	
606.81	6296.8	
607	7776.1	
607.19	7407.5	
607.38	5600.5	
607.57	5758.2	
607.76	7275.8	
607.95	6858.6	
608.14	6046.3	
608.33	6238.8	
608.52	7347.4	
608.72	7742	
608.91	5579.3	
609.1	5479	
609.29	7339.9	
609.48	7070.3	
609.67	6006	
609.86	5630.5	
610.05	7141.9	
610.24	7226.6	
610.43	5536.3	
610.62	5398.4	
610.81	7842.4	
611	7756.3	
611.19	5711.1	
611.38	5937.7	
611.57	7462.8	
611.76	7899.7	
611.95	5557.5	
612.14	5381.4	
612.33	7343.3	
612.52	7033.4	
612.71	5717.9	
612.9	5427.8	
613.09	6992.4	
613.28	8087.4	
613.47	5627.8	
613.66	6095.4	
613.85	7455.3	
614.04	7030	
614.24	5653.1	
614.43	5318.6	
614.62	7505.8	
614.81	7480.5	
615	5889.3	
615.19	5905.7	
615.38	7118.1	
615.57	7361.1	
615.76	5843.5	
615.95	6316.6	
616.14	7563.8	
616.33	7359	
616.52	6001.9	
616.71	6001.2	
616.9	7459.4	
617.09	7361.8	
617.28	5772.5	
617.47	6275	
617.66	7131.7	
617.85	7120.8	
618.04	6147.3	
618.22	5866.1	
618.41	7064.1	
618.6	7746.1	
618.79	5956.2	
618.98	5807.4	
619.17	7877.2	
619.36	6990.4	
619.55	5859.2	
619.74	5935.7	
619.93	7578.2	
620.12	7305.1	
620.31	6172.6	
620.5	6252.4	
620.69	7823.2	
620.88	8129.1	
621.07	6564.4	
621.26	6113.9	
621.45	7669	
621.64	7692.9	
621.83	6171.9	
622.02	5838.1	
622.21	7697.6	
622.4	7629.4	
622.59	6450.4	
622.78	6391.7	
622.97	7552.9	
623.16	7840.3	
623.35	6285.9	
623.54	5724.1	
623.72	7529	
623.91	7580.9	
624.1	6367.1	
624.29	5720	
624.48	8147.5	
624.67	7914.7	
624.86	6240.8	
625.05	5841.5	
625.24	8232.8	
625.43	7498.3	
625.62	6963.1	
625.81	6037.4	
626	7811.6	
626.19	7507.2	
626.38	6229.9	
626.56	6059.3	
626.75	7293.5	
626.94	7843.7	
627.13	6363.7	
627.32	5717.2	
627.51	7878.5	
627.7	8144.8	
627.89	5697.4	
628.08	6285.2	
628.27	7293.5	
628.46	7492.8	
628.65	5801.9	
628.83	5692	
629.02	7671	
629.21	7265.5	
629.4	6002.6	
629.59	6038.8	
629.78	7306.5	
629.97	7765.2	
630.16	6148.7	
630.35	5899.5	
630.54	8082.6	
630.72	7923.6	
630.91	5986.2	
631.1	6089.3	
631.29	7466.9	
631.48	7555.6	
631.67	6318.7	
631.86	5897.5	
632.05	7574.1	
632.24	7505.8	
632.42	5816.9	
632.61	6038.8	
632.8	7479.2	
632.99	7186.3	
633.18	6111.1	
633.37	6236.7	
633.56	7707.2	
633.75	7562.5	
633.93	6149.4	
634.12	6066.8	
634.31	8168	
634.5	7746.1	
634.69	5993	
634.88	6173.3	
635.07	7595.9	
635.25	7811.6	
635.44	6415.6	
635.63	6477	
635.82	7426.6	
636.01	6626.5	
636.2	6353.5	
636.39	6206	
636.57	8059.4	
636.76	7623.2	
636.95	5881.1	
637.14	6441.5	
637.33	7666.2	
637.52	7951.6	
637.7	5771.9	
637.89	6340.5	
638.08	7494.9	
638.27	8087.4	
638.46	6275	
638.65	6410.8	
638.83	8095.6	
639.02	7362.4	
639.21	6280.4	
639.4	6370.5	
639.59	7585	
639.78	7371.3	
639.96	5784.8	
640.15	5883.1	
640.34	7576.8	
640.53	7356.3	
640.72	5788.2	
640.91	5906.3	
641.09	7225.9	
641.28	7730.4	
641.47	5989.6	
641.66	6161.7	
641.85	7455.3	
642.03	7542	
642.22	6010.8	
642.41	5815.5	
642.6	7221.8	
642.79	6941.9	
642.97	5731.6	
643.16	5949.3	
643.35	7112.6	
643.54	7011.6	
643.73	5681.7	
643.91	5987.6	
644.1	7034.8	
644.29	7327.6	
644.48	5606	
644.67	5614.8	
644.85	6693.4	
645.04	7265.5	
645.23	5451	
645.42	5560.2	
645.6	6879.1	
645.79	7461.4	
645.98	5432.6	
646.17	5000.5	
646.36	6505.7	
646.54	6862.1	
646.73	5666.7	
646.92	5252.4	
647.11	6696.2	
647.29	7154.9	
647.48	5214.8	
647.67	5051.7	
647.86	7288	
648.05	7193.8	
648.23	5328.1	
648.42	5872.2	
648.61	7006.8	
648.8	6950.1	
648.98	5139.7	
649.17	5355.4	
649.36	6701.6	
649.55	6531	
649.73	5219.6	
649.92	5571.2	
650.11	6627.9	
650.3	6797.2	
650.48	5172.5	
650.67	5107.6	
650.86	6864.8	
651.05	6387.6	
651.23	5180	
651.42	5161.6	
651.61	6655.2	
651.79	6562.4	
651.98	5216.9	
652.17	5078.3	
652.36	6849.1	
652.54	6325.5	
652.73	5147.2	
652.92	5098.1	
653.11	6781.5	
653.29	6879.1	
653.48	4760.8	
653.67	5251	
653.85	6551.5	
654.04	7124.9	
654.23	5311.1	
654.42	5100.1	
654.6	6332.3	
654.79	6732.4	
654.98	4823	
655.16	5085.8	
655.35	6210.8	
655.54	5891.3	
655.73	4754.7	
655.91	4716.5	
656.1	6485.9	
656.29	5943.9	
656.47	4571.1	
656.66	5302.2	
656.85	6234.7	
657.03	6097.5	
657.22	4820.2	
657.41	4834.6	
657.59	6289.3	
657.78	6279.8	
657.97	4738.3	
658.16	5020.3	
658.34	6744	
658.53	6884.6	
658.72	5429.8	
658.9	5629.2	
659.09	6511.2	
659.28	6419.7	
659.46	4965	
659.65	5051	
659.84	6312.5	
660.02	6720.1	
660.21	4973.2	
660.4	4881	
660.58	6799.9	
660.77	6433.4	
660.96	5121.3	
661.14	4717.8	
661.33	7037.5	
661.52	6967.2	
661.7	4663.2	
661.89	6225.1	
662.08	6261.3	
662.26	5933	
662.45	4887.8	
662.64	4859.1	
662.82	6666.1	
663.01	6173.3	
663.2	4845.5	
663.38	5139.7	
663.57	6573.3	
663.75	6459.3	
663.94	5056.4	
664.13	5509	
664.31	6313.9	
664.5	6610.8	
664.69	5197.7	
664.87	5281.7	
665.06	6104.3	
665.25	6410.8	
665.43	5383.4	
665.62	5393	
665.8	6518.7	
665.99	6274.3	
666.18	5020.3	
666.36	5012.7	
666.55	6587.6	
666.74	6462	
666.92	4888.5	
667.11	5564.3	
667.29	6348	
667.48	6521.4	
667.67	5344.5	
667.85	4812.7	
668.04	6211.5	
668.22	6202.6	
668.41	5063.9	
668.6	5169.8	
668.78	6177.4	
668.97	6308.4	
669.15	5191.6	
669.34	4673.5	
669.53	6195.1	
669.71	6364.4	
669.9	4721.3	
670.08	4958.1	
670.27	6064.7	
670.46	6393.8	
670.64	5121.3	
670.83	5232.6	
671.01	5992.4	
671.2	6271.6	
671.38	4807.3	
671.57	4748.6	
671.76	6670.2	
671.94	6826.6	
672.13	4687.1	
672.31	5096.7	
672.5	6569.9	
672.69	6174.6	
672.87	4784.1	
673.06	4968.4	
673.24	6357.6	
673.43	6217	
673.61	4982.7	
673.8	4877.6	
673.98	6447	
674.17	6456.6	
674.36	5208	
674.54	5025.7	
674.73	6016.9	
674.91	6503	
675.1	4923.3	
675.28	4672.8	
675.47	6251.1	
675.65	6502.3	
675.84	4903.5	
676.03	4948.6	
676.21	6265.4	
676.4	5855.8	
676.58	5262.6	
676.77	5139	
676.95	6968.6	
677.14	6087.2	
677.32	4676.9	
677.51	4692.6	
677.69	6569.9	
677.88	6050.4	
678.06	4754.7	
678.25	4821.6	
678.44	6160.3	
678.62	6035.4	
678.81	4634.6	
678.99	4996.4	
679.18	6595.8	
679.36	6421.7	
679.55	4915.1	
679.73	5066.7	
679.92	6317.3	
680.1	6130.3	
680.29	5394.3	
680.47	4855.7	
680.66	6128.2	
680.84	6529.6	
681.03	4615.4	
681.21	5017.5	
681.4	6055.8	
681.58	6071.5	
681.77	4792.9	
681.95	4731.5	
682.14	6513.9	
682.32	6610.2	
682.51	5068	
682.69	4586.8	
682.88	6074.3	
683.06	6220.4	
683.25	4915.8	
683.43	5109.7	
683.62	6270.9	
683.8	6336.4	
683.99	5190.9	
684.17	4812.7	
684.36	6652.5	
684.54	6049.7	
684.73	4553.3	
684.91	4488.5	
685.1	6194.4	
685.28	5805.3	
685.46	4689.8	
685.65	4688.5	
685.83	6113.2	
686.02	5831.2	
686.2	4360.1	
686.39	4377.2	
686.57	5627.1	
686.76	6300.2	
686.94	4412	
687.13	4556.7	
687.31	5973.9	
687.5	5896.8	
687.68	4303.5	
687.86	4660.5	
688.05	6684.6	
688.23	5609.4	
688.42	4762.2	
688.6	4469.4	
688.79	5887.9	
688.97	5920	
689.16	4732.9	
689.34	4201.7	
689.52	6107	
689.71	6377.4	
689.89	4800.4	
690.08	4579.9	
690.26	6092.7	
690.45	5798.5	
690.63	4941.7	
690.81	4684.4	
691	6084.5	
691.18	5883.8	
691.37	4607.9	
691.55	5562.3	
691.74	5830.6	
691.92	6728.9	
692.1	4619.5	
692.29	4418.8	
692.47	6005.3	
692.66	5657.2	
692.84	4414.1	
693.02	4665.3	
693.21	5561.6	
693.39	5965.1	
693.58	4784.7	
693.76	4461.2	
693.94	6439.5	
694.13	6354.2	
694.31	4578.6	
694.5	5086.5	
694.68	5796.4	
694.86	6118.6	
695.05	4752.7	
695.23	4894.6	
695.42	6251.8	
695.6	7196.6	
695.78	5139	
695.97	4705.5	
696.15	6425.8	
696.34	5924.8	
696.52	4616.8	
696.7	4975.2	
696.89	6145.3	
697.07	5794.4	
697.25	4775.9	
697.44	5418.9	
697.62	6138.4	
697.81	6182.8	
697.99	4659.8	
698.17	4914.4	
698.36	5943.9	
698.54	6118	
698.72	4845.5	
698.91	4351.3	
699.09	5961.6	
699.28	5763	
699.46	4630.5	
699.64	4631.1	
699.83	5868.1	
700.01	6130.3	
700.19	4986.8	
700.38	4276.8	
700.56	6141.2	
700.74	5917.9	
700.93	4425.7	
701.11	4829.8	
701.29	6228.6	
701.48	6651.1	
701.66	4586.1	
701.84	4645.5	
702.03	6063.4	
702.21	6356.2	
702.39	4391.5	
702.58	4773.1	
702.76	6368.5	
702.94	6240.8	
703.13	4410	
703.31	5472.9	
703.49	5967.1	
703.68	6347.3	
703.86	4517.1	
704.04	5005.9	
704.23	6164.4	
704.41	6272.9	
704.59	4642.1	
704.78	5053.7	
704.96	6990.4	
705.14	6245.6	
705.33	4504.8	
705.51	4820.2	
705.69	5905.7	
705.87	6379.4	
706.06	4944.5	
706.24	4483	
706.42	6150.1	
706.61	6277	
706.79	5043.5	
706.97	4395.6	
707.16	5924.8	
707.34	6135	
707.52	4900.1	
707.7	4521.9	
707.89	5718.6	
708.07	5760.3	
708.25	4956.1	
708.44	5070.1	
708.62	5823.7	
708.8	6383.5	
708.98	5077.6	
709.17	4596.3	
709.35	6007.4	
709.53	6178	
709.72	4453.6	
709.9	4591.5	
710.08	6329.6	
710.26	6288.6	
710.45	5217.5	
710.63	4577.9	
710.81	5977.3	
710.99	6024.4	
711.18	4828.4	
711.36	4600.4	
711.54	5905	
711.72	6216.3	
711.91	4683	
712.09	4423.6	
712.27	6123.4	
712.45	6344.6	
712.64	4680.3	
712.82	4198.3	
713	5717.9	
713.18	5736.4	
713.37	4232.5	
713.55	4718.5	
713.73	6060.6	
713.91	5436.7	
714.1	4308.2	
714.28	4020.8	
714.46	5745.9	
714.64	5346.6	
714.83	3771.7	
715.01	3964.9	
715.19	5377.3	
715.37	4874.2	
715.55	3764.8	
715.74	3850.9	
715.92	5593.7	
716.1	4575.2	
716.28	4429.8	
716.47	3862.5	
716.65	5148.6	
716.83	5046.9	
717.01	3777.1	
717.19	3740.3	
717.38	5943.2	
717.56	4830.5	
717.74	3887	
717.92	3535.5	
718.1	5492.7	
718.29	5019.6	
718.47	3390.8	
718.65	3693.2	
718.83	5562.3	
719.01	5503.6	
719.2	3519.1	
719.38	3971.7	
719.56	5381.4	
719.74	6144.6	
719.92	3865.2	
720.11	4322.6	
720.29	5543.2	
720.47	5053	
720.65	3610.6	
720.83	3941.7	
721.02	5152.7	
721.2	4960.2	
721.38	3954.6	
721.56	3541.6	
721.74	4719.2	
721.92	4719.9	
722.11	4058.4	
722.29	3977.8	
722.47	5415.5	
722.65	4959.5	
722.83	3492.5	
723.01	3872	
723.2	4887.8	
723.38	5199.8	
723.56	3331.4	
723.74	3850.2	
723.92	4654.4	
724.1	5211.4	
724.29	3465.8	
724.47	3941	
724.65	4914.4	
724.83	4734.9	
725.01	3428.3	
725.19	3729.4	
725.37	4773.1	
725.56	4694.6	
725.74	3409.2	
725.92	3460.4	
726.1	4742.4	
726.28	4872.1	
726.46	3640.6	
726.64	3500.7	
726.83	4987.5	
727.01	5029.8	
727.19	3373	
727.37	3750.5	
727.55	5066.7	
727.73	5249.6	
727.91	3347.1	
728.09	3268.6	
728.28	5053	
728.46	5246.2	
728.64	3706.8	
728.82	3768.3	
729	5670.1	
729.18	5468.8	
729.36	3420.8	
729.54	4401.8	
729.72	5832.6	
729.91	5059.8	
730.09	4356.7	
730.27	3764.8	
730.45	5079	
730.63	5340.4	
730.81	3997.6	
730.99	3658.4	
731.17	5705.6	
731.35	4951.3	
731.53	3861.8	
731.71	3743.7	
731.9	5493.3	
732.08	5480.4	
732.26	3872.7	
732.44	3626.3	
732.62	5569.1	
732.8	5322.7	
732.98	3984	
733.16	3554.6	
733.34	5350	
733.52	4648.2	
733.7	3705.5	
733.88	3880.9	
734.07	5251	
734.25	5109	
734.43	3516.4	
734.61	4147.8	
734.79	5810.1	
734.97	5089.9	
735.15	3617.4	
735.33	3719.8	
735.51	5258.5	
735.69	5122.7	
735.87	4167.6	
736.05	3750.5	
736.23	5158.2	
736.41	4914.4	
736.59	3814	
736.77	3782.6	
736.95	5449.6	
737.13	5002.5	
737.32	3598.3	
737.5	3672.7	
737.68	5681.1	
737.86	4971.1	
738.04	3570.3	
738.22	4359.4	
738.4	4988.2	
738.58	5072.8	
738.76	3711.6	
738.94	3335.5	
739.12	5024.3	
739.3	4965	
739.48	3997.6	
739.66	3853.6	
739.84	5096	
740.02	5026.4	
740.2	3386.7	
740.38	3461.1	
740.56	5313.1	
740.74	4473.4	
740.92	3882.9	
741.1	3663.8	
741.28	5054.4	
741.46	4884.4	
741.64	3596.9	
741.82	3822.9	
742	5055.8	
742.18	4944.5	
742.36	3648.1	
742.54	3513.6	
742.72	5319.9	
742.9	4543.1	
743.08	3756.7	
743.26	3168.2	
743.44	5177.9	
743.62	5180	
743.8	3807.2	
743.98	3418.7	
744.16	5037.3	
744.34	4876.2	
744.52	3704.1	
744.7	3784	
744.88	5150	
745.06	4915.1	
745.24	3747.1	
745.42	3773.7	
745.6	5252.4	
745.78	5113.8	
745.96	3239.9	
746.14	3347.1	
746.32	5575.9	
746.5	4939.7	
746.68	3605.1	
746.86	3316.3	
747.03	5164.3	
747.21	4561.5	
747.39	3564.1	
747.57	3343	
747.75	4825	
747.93	4999.8	
748.11	3304.1	
748.29	3264.5	
748.47	5719.3	
748.65	4889.9	
748.83	3615.3	
749.01	3493.8	
749.19	4986.1	
749.37	4521.9	
749.55	3502	
749.73	3519.8	
749.91	4891.9	
750.09	4776.5	
750.26	3521.8	
750.44	3228.3	
750.62	4860.5	
750.8	4780	
750.98	3200.3	
751.16	3318.4	
751.34	4977.2	
751.52	4586.8	
751.7	3639.9	
751.88	3183.9	
752.06	5136.3	
752.24	4975.2	
752.42	3133.4	
752.59	3293.8	
752.77	4874.8	
752.95	5425.8	
753.13	3631.7	
753.31	3314.3	
753.49	4657.1	
753.67	4859.1	
753.85	3550.5	
754.03	3219.4	
754.21	4956.1	
754.38	5173.9	
754.56	3240.6	
754.74	2902	
754.92	4550.6	
755.1	4763.6	
755.28	2764.1	
755.46	2751.8	
755.64	5233.2	
755.82	5115.1	
755.99	2843.9	
756.17	2842.6	
756.35	3894.6	
756.53	4543.1	
756.71	2278	
756.89	2856.9	
757.07	4401.1	
757.25	3916.4	
757.42	2975	
757.6	3341.6	
757.78	4429.1	
757.96	4022.9	
758.14	2826.9	
758.32	2676	
758.5	3736.2	
758.67	4143.7	
758.85	2757.9	
759.03	2745	
759.21	4282.3	
759.39	3852.2	
759.57	2586.6	
759.75	3018	
759.92	4642.1	
760.1	4306.9	
760.28	3194.1	
760.46	3379.1	
760.64	4203.1	
760.82	4218.1	
760.99	3226.2	
761.17	2845.3	
761.35	4582.7	
761.53	4034.5	
761.71	2943.6	
761.89	3230.3	
762.06	4473.4	
762.24	4318.5	
762.42	3043.3	
762.6	2824.1	
762.78	4268.6	
762.96	4603.8	
763.13	3233.7	
763.31	2955.9	
763.49	4605.9	
763.67	4355.3	
763.85	3397.6	
764.02	3647.4	
764.2	4926	
764.38	4282.3	
764.56	3037.8	
764.74	3356.6	
764.91	4819.6	
765.09	4252.3	
765.27	2912.2	
765.45	2676	
765.63	5005.2	
765.8	4698	
765.98	2680.8	
766.16	2762.7	
766.34	3966.9	
766.52	4002.4	
766.69	3219.4	
766.87	2701.3	
767.05	4326.7	
767.23	4668.7	
767.41	2839.8	
767.58	2956.6	
767.76	4662.5	
767.94	4627	
768.12	2902.7	
768.29	3156.6	
768.47	4045.4	
768.65	4713.1	
768.83	2665.1	
769	3160.7	
769.18	4097.3	
769.36	4447.5	
769.54	3148.4	
769.72	2740.2	
769.89	4674.8	
770.07	4593.6	
770.25	2882.2	
770.43	3464.5	
770.6	4909	
770.78	5028.4	
770.96	2975.7	
771.14	3133.4	
771.31	4597	
771.49	4272.7	
771.67	2553.1	
771.85	2589.3	
772.02	3858.4	
772.2	4195.6	
772.38	3024.2	
772.55	2664.4	
772.73	4316.4	
772.91	4177.2	
773.09	2871.3	
773.26	2957.3	
773.44	4372.4	
773.62	4270	
773.8	2731.3	
773.97	2592	
774.15	4368.3	
774.33	4199.7	
774.5	2608.4	
774.68	2812.5	
774.86	4354.7	
775.04	4210.6	
775.21	2693.8	
775.39	2645.3	
775.57	4257.7	
775.74	4384	
775.92	2523.8	
776.1	2417.3	
776.27	4199	
776.45	4824.3	
776.63	2656.2	
776.81	2439.1	
776.98	4158.7	
777.16	4603.2	
777.34	2704	
777.51	2812.5	
777.69	4210.6	
777.87	3962.1	
778.04	2790	
778.22	2935.4	
778.4	3954.6	
778.57	4321.2	
778.75	2375	
778.93	2427.5	
779.1	3941	
779.28	3733.4	
779.46	2333.3	
779.64	2571.6	
779.81	4436.6	
779.99	4745.8	
780.17	2917.7	
780.34	2945.7	
780.52	4114.4	
780.69	4156.7	
780.87	2742.9	
781.05	2543.6	
781.22	4225.6	
781.4	4192.2	
781.58	2582.5	
781.75	2195.4	
781.93	4164.9	
782.11	3734.1	
782.28	3019.4	
782.46	2580.4	
782.64	3764.8	
782.81	4269.3	
782.99	2654.9	
783.17	2592.7	
783.34	4087.1	
783.52	3870.7	
783.69	2633.7	
783.87	3026.9	
784.05	3940.3	
784.22	3872	
784.4	3044.6	
784.58	2740.2	
784.75	4380.6	
784.93	4041.3	
785.1	2526.5	
785.28	2821.4	
785.46	4285	
785.63	3792.8	
785.81	2579.8	
785.99	2429.6	
786.16	4037.2	
786.34	4101.4	
786.51	2446.6	
786.69	2712.2	
786.87	3719.8	
787.04	3918.4	
787.22	2485.6	
787.39	2886.3	
787.57	3866.6	
787.75	4361.5	
787.92	3013.9	
788.1	2947	
788.27	3768.9	
788.45	3489.7	
788.63	2815.3	
788.8	2212.5	
788.98	4102.8	
789.15	3520.5	
789.33	2338.8	
789.5	2527.9	
789.68	4296	
789.86	4308.2	
790.03	2760.7	
790.21	2446	
790.38	4370.4	
790.56	3912.3	
790.73	2459.6	
790.91	2432.3	
791.09	3879.5	
791.26	4192.2	
791.44	2594.8	
791.61	2334.7	
791.79	3824.2	
791.96	3810.6	
792.14	2358.6	
792.32	2193.4	
792.49	3801	
792.67	3897.3	
792.84	2477.4	
793.02	2299.9	
793.19	4133.5	
793.37	4377.2	
793.54	2143.5	
793.72	2272.6	
793.89	4381.3	
794.07	3784.6	
794.25	2564.7	
794.42	2183.8	
794.6	4356.7	
794.77	4121.9	
794.95	2648	
795.12	2441.2	
795.3	3803.8	
795.47	4063.9	
795.65	2658.3	
795.82	2554.5	
796	3719.8	
796.17	4551.3	
796.35	2530.6	
796.52	2868.5	
796.7	4087.7	
796.87	4135.5	
797.05	2468.5	
797.22	2848.7	
797.4	4197.7	
797.57	4506.9	
797.75	2611.2	
797.92	2529.2	
798.1	4354	
798.27	3540.3	
798.45	2263	
798.62	2330.6	
798.8	3960.1	
798.97	4199.7	
799.15	2658.3	
799.32	2599.6	
799.5	3619.4	
799.67	3941.7	
799.85	2763.4	
800.02	2125.8	
800.2	3881.6	
800.37	3836.5	
800.55	2721.8	
800.72	2443.2	
800.9	4203.8	
801.07	4296	
801.25	3074.7	
801.42	2634.4	
801.6	4211.3	
801.77	3886.4	
801.95	2540.2	
802.12	2405	
802.29	4117.1	
802.47	3939.6	
802.64	2724.5	
802.82	2192.7	
802.99	3831.1	
803.17	4191.5	
803.34	2604.3	
803.52	2365.4	
803.69	4437.3	
803.87	3642.7	
804.04	2565.4	
804.21	2590	
804.39	4382.7	
804.56	3814.7	
804.74	2295.1	
804.91	2607.7	
805.09	3824.2	
805.26	3764.8	
805.44	2329.2	
805.61	2475.3	
805.78	4210.6	
805.96	4095.9	
806.13	2603.7	
806.31	2793.4	
806.48	3530	
806.66	3812.6	
806.83	2637.1	
807	2490.3	
807.18	3818.1	
807.35	3951.2	
807.53	2542.9	
807.7	2248	
807.87	4387.4	
808.05	3861.1	
808.22	2734.7	
808.4	2179	
808.57	3696.6	
808.74	3583.3	
808.92	2408.4	
809.09	2916.3	
809.27	3874.8	
809.44	3929.4	
809.61	2203.6	
809.79	2341.5	
809.96	4547.2	
810.14	4078.2	
810.31	2196.1	
810.48	2693.1	
810.66	3831.1	
810.83	4130.8	
811.01	2473.9	
811.18	2594.8	
811.35	4219.5	
811.53	3470.6	
811.7	2792.1	
811.87	2621.4	
812.05	3918.4	
812.22	3800.3	
812.39	2334	
812.57	2312.2	
812.74	3921.9	
812.92	4579.3	
813.09	2558.6	
813.26	2580.4	
813.44	4464.6	
813.61	3689.1	
813.78	2177	
813.96	2678.1	
814.13	3872	
814.3	3713	
814.48	2880.8	
814.65	2511.5	
814.82	4263.9	
815	3622.2	
815.17	2521.7	
815.34	2850.1	
815.52	3756.7	
815.69	3766.9	
815.87	2460.3	
816.04	2464.4	
816.21	3661.1	
816.38	3588.7	
816.56	2480.1	
816.73	2340.8	
816.9	4556	
817.08	4087.7	
817.25	2421.4	
817.42	2742.2	
817.6	3595.6	
817.77	3670.6	
817.94	2552.5	
818.12	2365.4	
818.29	3726.6	
818.46	4826.4	
818.64	2508.1	
818.81	2279.4	
818.98	3708.9	
819.16	4598.4	
819.33	2669.2	
819.5	2573.6	
819.67	3962.8	
819.85	4248.2	
820.02	2540.2	
820.19	2609.8	
820.37	3909.6	
820.54	3711.6	
820.71	2585.2	
820.88	2994.1	
821.06	3928	
821.23	3685.7	
821.4	2568.2	
821.58	2542.9	
821.75	4117.8	
821.92	3923.9	
822.09	2205	
822.27	2355.8	
822.44	3848.8	
822.61	3764.2	
822.79	2220	
822.96	3579.2	
823.13	3881.6	
823.3	3573	
823.48	2417.3	
823.65	2271.9	
823.82	4227.7	
823.99	3611.3	
824.17	2945.7	
824.34	2308.1	
824.51	4586.8	
824.68	3842.7	
824.86	2423.4	
825.03	2506	
825.2	3773	
825.37	4279.6	
825.55	2383.2	
825.72	2499.2	
825.89	4462.5	
826.06	4358.1	
826.24	2505.3	
826.41	2474.6	
826.58	4375.1	
826.75	3818.1	
826.92	2209.8	
827.1	2321	
827.27	5390.3	
827.44	4467.3	
827.61	2419.3	
827.79	2747.7	
827.96	3755.3	
828.13	3706.1	
828.3	2519	
828.47	2178.4	
828.65	4129.4	
828.82	3994.2	
828.99	2874.7	
829.16	2621.4	
829.34	4156.7	
829.51	4197	
829.68	2499.2	
829.85	2440.5	
830.02	4571.1	
830.2	4271.4	
830.37	2073.2	
830.54	2854.2	
830.71	4606.6	
830.88	3932.8	
831.05	2013.8	
831.23	2312.8	
831.4	4517.8	
831.57	4732.2	
831.74	2402.3	
831.91	2168.8	
832.09	4222.9	
832.26	4274.8	
832.43	2402.3	
832.6	2634.4	
832.77	4035.2	
832.94	4478.2	
833.12	2041.1	
833.29	2308.7	
833.46	3754.6	
833.63	4743.1	
833.8	2568.2	
833.97	2352.4	
834.15	4263.2	
834.32	4199	
834.49	2476	
834.66	2495.8	
834.83	4138.3	
835	3771	
835.17	2332.6	
835.35	2297.8	
835.52	4255	
835.69	4133.5	
835.86	2413.2	
836.03	2048.7	
836.2	4260.5	
836.37	4056.3	
836.55	2309.4	
836.72	2241.8	
836.89	4035.2	
837.06	4297.3	
837.23	2441.2	
837.4	2512.2	
837.57	4638	
837.75	4823.6	
837.92	2260.3	
838.09	2329.2	
838.26	4040.6	
838.43	4217.5	
838.6	2418.7	
838.77	2275.3	
838.94	4625.7	
839.11	4592.2	
839.29	2437.1	
839.46	2015.9	
839.63	4326	
839.8	3965.6	
839.97	2307.4	
840.14	2290.3	
840.31	4173.8	
840.48	4282.3	
840.65	2067.1	
840.82	2295.1	
841	4252.9	
841.17	4071.4	
841.34	2126.5	
841.51	2295.8	
841.68	4250.9	
841.85	4003.8	
842.02	2277.3	
842.19	1982.4	
842.36	4125.3	
842.53	4179.9	
842.7	2244.6	
842.87	2463	
843.05	4820.9	
843.22	4022.2	
843.39	2144.9	
843.56	2328.5	
843.73	3976.5	
843.9	4302.8	
844.07	3152.5	
844.24	2663.7	
844.41	5213.4	
844.58	3846.8	
844.75	2162.7	
844.92	2306.7	
845.09	4063.2	
845.26	4158.1	
845.43	2234.3	
845.6	2335.4	
845.77	4233.8	
845.94	4080.2	
846.12	2424.8	
846.29	2448	
846.46	4379.9	
846.63	4164.9	
846.8	2211.1	
846.97	2497.2	
847.14	4377.9	
847.31	4188.1	
847.48	2373.6	
847.65	2536.1	
847.82	3929.4	
847.99	4242	
848.16	2698.5	
848.33	2559.3	
848.5	3952.6	
848.67	4404.5	
848.84	2139.4	
849.01	2237.7	
849.18	3978.5	
849.35	3697.9	
849.52	2592	
849.69	2170.2	
849.86	4349.2	
850.03	4244.8	
850.2	2187.9	
850.37	2518.3	
850.54	4328.7	
850.71	3839.9	
850.88	2480.8	
851.05	2138.1	
851.22	4095.9	
851.39	4382.7	
851.56	2028.2	
851.73	2424.1	
851.9	3838.6	
852.07	4306.9	
852.24	2330.6	
852.41	2151.7	
852.58	4233.8	
852.75	3859.7	
852.92	2339.5	
853.09	2130.6	
853.26	3688.4	
853.43	4278.2	
853.6	2187.2	
853.77	1946.9	
853.94	4477.5	
854.11	3785.3	
854.28	2925.9	
854.44	2311.5	
854.61	4634.6	
854.78	4341.7	
854.95	2172.9	
855.12	2553.8	
855.29	3622.2	
855.46	4398.4	
855.63	2187.9	
855.8	2701.3	
855.97	3921.9	
856.14	4427	
856.31	2796.2	
856.48	2337.4	
856.65	4053.6	
856.82	3799.7	
856.99	2135.3	
857.16	2304.6	
857.33	4719.2	
857.49	4007.2	
857.66	2275.3	
857.83	2421.4	
858	4113.7	
858.17	4115.1	
858.34	2113.5	
858.51	2218	
858.68	4470.7	
858.85	4435.9	
859.02	2439.1	
859.19	2538.8	
859.36	3876.1	
859.52	3576.4	
859.69	2243.2	
859.86	2491.7	
860.03	3705.5	
860.2	4488.5	
860.37	2079.4	
860.54	2225.5	
860.71	4215.4	
860.88	4470	
861.05	2396.1	
861.21	2652.8	
861.38	4420.2	
861.55	3663.8	
861.72	2076.6	
861.89	2387.2	
862.06	4323.9	
862.23	4455	
862.4	2109.4	
862.56	2215.9	
862.73	4208.6	
862.9	4035.9	
863.07	2431.6	
863.24	2050	
863.41	3771.7	
863.58	3829.7	
863.75	2248	
863.91	2499.2	
864.08	4282.3	
864.25	4128	
864.42	2568.8	
864.59	2808.4	
864.76	4508.3	
864.93	3796.3	
865.09	2093	
865.26	2257.5	
865.43	4395.6	
865.6	4566.3	
865.77	1970.1	
865.94	2155.8	
866.1	4328	
866.27	4084.3	
866.44	2964.8	
866.61	2149.7	
866.78	3994.2	
866.95	4210.6	
867.11	2192	
867.28	2030.9	
867.45	4441.4	
867.62	3758	
867.79	2426.8	
867.96	2157.2	
868.12	3773	
868.29	4201.1	
868.46	2188.6	
868.63	2702.6	
868.8	4298.7	
868.97	4253.6	
869.13	2244.6	
869.3	2293.7	
869.47	4136.9	
869.64	4299.4	
869.81	2134.7	
869.97	2179.7	
870.14	4001	
870.31	4410.6	
870.48	2164.7	
870.65	2613.9	
870.81	4031.8	
870.98	4007.9	
871.15	2372.2	
871.32	2245.9	
871.48	4168.3	
871.65	4487.1	
871.82	2159.2	
871.99	2410.5	
872.16	4674.1	
872.32	4354	
872.49	2228.9	
872.66	2207	
872.83	4351.3	
872.99	3878.9	
873.16	2411.1	
873.33	2157.9	
873.5	4039.3	
873.67	4094.6	
873.83	2304	
874	2720.4	
874.17	4193.6	
874.34	4429.8	
874.5	2617.3	
874.67	2532	
874.84	4381.3	
875.01	3695.2	
875.17	2811.9	
875.34	2143.5	
875.51	4119.1	
875.68	4721.3	
875.84	2527.9	
876.01	2869.2	
876.18	4214	
876.34	4184	
876.51	2141.5	
876.68	2127.2	
876.85	3917.1	
877.01	4450.9	
877.18	2846	
877.35	2160.6	
877.52	4255	
877.68	3809.9	
877.85	2194.1	
878.02	2140.1	
878.18	3692.5	
878.35	3991.5	
878.52	1853.4	
878.69	2486.9	
878.85	4383.3	
879.02	4173.1	
879.19	2851.5	
879.35	2256.2	
879.52	4302.1	
879.69	4186.7	
879.86	1997.5	
880.02	2349.7	
880.19	4057.7	
880.36	4616.1	
880.52	2351.1	
880.69	2431.6	
880.86	4268.6	
881.02	4260.5	
881.19	2330.6	
881.36	2306	
881.52	4193.6	
881.69	3873.4	
881.86	2343.6	
882.02	2237.7	
882.19	4367	
882.36	4860.5	
882.52	2265.1	
882.69	2820.7	
882.86	4059.1	
883.02	4175.1	
883.19	2443.9	
883.36	2396.1	
883.52	4272.7	
883.69	4655.7	
883.86	2235.7	
884.02	2056.2	
884.19	4250.2	
884.36	4077.5	
884.52	2366.1	
884.69	2388.6	
884.86	4014	
885.02	4493.9	
885.19	2342.2	
885.36	2366.8	
885.52	3832.4	
885.69	4193.6	
885.86	2919.7	
886.02	2628.2	
886.19	4226.3	
886.35	3906.8	
886.52	2332	
886.69	2790	
886.85	3786.7	
887.02	4345.1	
887.19	4345.1	
887.35	4345.1	
887.52	4345.1	
887.68	4345.1	
887.85	4345.1	
888.02	4345.1	
888.18	4345.1	
888.35	4345.1	
888.51	4345.1	
888.68	4345.1	
888.85	4345.1	
889.01	4345.1	
889.18	4345.1	
889.35	4345.1	
889.51	4345.1	
889.68	4345.1	
889.84	4345.1	
890.01	4345.1	
890.17	4345.1	
890.34	4345.1	
890.51	4345.1	
890.67	4345.1	
890.84	4345.1	
891	4345.1	
891.17	4345.1	
891.34	4345.1	
891.5	4345.1	
891.67	4345.1	
891.83	4345.1	
892	4345.1	
892.16	4345.1	
892.33	4345.1	
892.5	4345.1	
892.66	4345.1	
892.83	4345.1	
892.99	4345.1	
893.16	4345.1	
893.32	4345.1	
893.49	4345.1	
893.65	4345.1	
893.82	4345.1	
893.99	4345.1	
894.15	4345.1	
894.32	4345.1	
894.48	4345.1	
894.65	4345.1	
894.81	4345.1	
894.98	4345.1	
895.14	4345.1	
895.31	4345.1	
895.47	4345.1	
895.64	4345.1	
895.81	4345.1	
895.97	4345.1	
896.14	4345.1	
896.3	4345.1	
896.47	4345.1	
896.63	4345.1	
896.8	4345.1	
896.96	4345.1	
897.13	4345.1	
897.29	4345.1	
897.46	4345.1	
897.62	4345.1	
897.79	4345.1	
897.95	4345.1	
898.12	4345.1	
898.28	4345.1	
898.45	4345.1	
898.61	4345.1	
898.78	4345.1	
898.94	4345.1	
899.11	4345.1	
899.27	4345.1	
899.44	4345.1	
899.6	4345.1	
899.77	4345.1	
899.93	4345.1	
900.1	4345.1	
900.26	4345.1	
900.43	4345.1	
900.59	4345.1	
900.76	4345.1	
900.92	4345.1	
901.09	4345.1	
901.25	4345.1	
901.42	4345.1	
901.58	4345.1	
901.75	4345.1	
901.91	4345.1	
902.07	4345.1	
902.24	4345.1	
902.4	4345.1	
902.57	4345.1	
902.73	4345.1	
902.9	4345.1	
903.06	4345.1	
903.23	4345.1	
903.39	4345.1	
903.56	4345.1	
903.72	4345.1	
903.88	4345.1	
904.05	4345.1	
904.21	4345.1	
904.38	4345.1	
904.54	4345.1	
904.71	4345.1	
904.87	4345.1	
905.03	4345.1	
905.2	4345.1	
905.36	4345.1	
905.53	4345.1	
905.69	4345.1	
905.86	4345.1	
906.02	4345.1	
906.18	4345.1	
906.35	4345.1	
906.51	4345.1	
906.68	4345.1	
906.84	4345.1	
907.01	4345.1	
907.17	4345.1	
907.33	4345.1	
907.5	4345.1	
907.66	4345.1	
907.83	4345.1	
907.99	4345.1	
908.15	4345.1	
908.32	4345.1	
908.48	4345.1	
908.65	4345.1	
908.81	4345.1	
908.97	4345.1	
909.14	4345.1	
909.3	4345.1	
909.47	4345.1	
909.63	4345.1	
909.79	4345.1	
909.96	4345.1	
910.12	4345.1	
910.28	4345.1	
910.45	4345.1	
910.61	4345.1	
910.78	4345.1	
910.94	4345.1	
911.1	4345.1	
911.27	4345.1	
911.43	4345.1	
911.59	4345.1	
911.76	4345.1	
911.92	4345.1	
912.08	4345.1	
912.25	4345.1	
912.41	4345.1	
912.57	4345.1	
912.74	4345.1	
912.9	4345.1	
913.07	4345.1	
913.23	4345.1	
913.39	4345.1	
913.56	4345.1	
913.72	4345.1	
913.88	4345.1	
914.05	4345.1	
914.21	4345.1	
914.37	4345.1	
914.54	4345.1	
914.7	4345.1	
914.86	4345.1	
915.03	4345.1	
915.19	4345.1	
