Wavelength	Intensities	
nm	a.u.	
179.22	1790.1	
179.44	1788.9	
179.65	1791.3	
179.86	1786.5	
180.08	1779.7	
180.29	4377.9	
180.51	3243.3	
180.72	5238.7	
180.94	6025.1	
181.15	2956.6	
181.37	2907.4	
181.58	5124.7	
181.79	5342.5	
182.01	3073.3	
182.22	3261	
182.44	5369.8	
182.65	4468.7	
182.87	4047.5	
183.08	3547.8	
183.29	5643.5	
183.51	4664.6	
183.72	3265.1	
183.94	4642.1	
184.15	5012.1	
184.37	5035.3	
184.58	2893.8	
184.79	3833.1	
185.01	4716.5	
185.22	5350	
185.44	4031.1	
185.65	3461.1	
185.86	4976.6	
186.08	4573.8	
186.29	2832.3	
186.51	3049.4	
186.72	4728.8	
186.94	5491.3	
187.15	3478.1	
187.36	3608.5	
187.58	7013.6	
187.79	5105.6	
188.01	3682.2	
188.22	5750.7	
188.43	6042.2	
188.65	5310.4	
188.86	3089	
189.08	3614.7	
189.29	4848.9	
189.5	4809.3	
189.72	3323.9	
189.93	3395.5	
190.15	5555.5	
190.36	6423.8	
190.57	3595.6	
190.79	3511.6	
191	5551.4	
191.22	5433.9	
191.43	3650.8	
191.64	3073.3	
191.86	5707.7	
192.07	5487.2	
192.29	3162.7	
192.5	3300	
192.71	5506.3	
192.93	4771.1	
193.14	3349.1	
193.35	3380.5	
193.57	4787.5	
193.78	5519.3	
194	2707.4	
194.21	3190.1	
194.42	4647.5	
194.64	5027.8	
194.85	3556.6	
195.07	4155.3	
195.28	5040.1	
195.49	4428.4	
195.71	4414.7	
195.92	3129.3	
196.13	5202.5	
196.35	5275.6	
196.56	4593.6	
196.78	3587.4	
196.99	6406.7	
197.2	5954.8	
197.42	3551.2	
197.63	3578.5	
197.84	4525.3	
198.06	5150.6	
198.27	3321.8	
198.48	4359.4	
198.7	4813.4	
198.91	4945.2	
199.13	3608.5	
199.34	3637.2	
199.55	5431.9	
199.77	4346.5	
199.98	3248.1	
200.19	3652.2	
200.41	4900.8	
200.62	4683	
200.83	3728.7	
201.05	4010.6	
201.26	4959.5	
201.47	4727.4	
201.69	3246	
201.9	3100.6	
202.11	5020.9	
202.33	5834.7	
202.54	3446.7	
202.76	3806.5	
202.97	5066.7	
203.18	5098.1	
203.4	3830.4	
203.61	3675.4	
203.82	5067.4	
204.04	4743.8	
204.25	3708.9	
204.46	3551.2	
204.68	4988.9	
204.89	5233.2	
205.1	3560.7	
205.32	3034.4	
205.53	5367	
205.74	5476.3	
205.96	2676.7	
206.17	3712.3	
206.38	5324.7	
206.6	5431.2	
206.81	4054.3	
207.02	3360.7	
207.24	5223.7	
207.45	5611.4	
207.66	3454.9	
207.88	2989.4	
208.09	5208.7	
208.3	5018.2	
208.52	3198.9	
208.73	3506.8	
208.94	4981.3	
209.15	5629.9	
209.37	3399.6	
209.58	3619.4	
209.79	5462.6	
210.01	4858.5	
210.22	2794.1	
210.43	2951.8	
210.65	5010	
210.86	5433.3	
211.07	3418.1	
211.29	3196.9	
211.5	5294.7	
211.71	4999.1	
211.93	3169.6	
212.14	3181.9	
212.35	4966.3	
212.56	5143.8	
212.78	3606.5	
212.99	3010.5	
213.2	5832.6	
213.42	4796.3	
213.63	3317	
213.84	3474.7	
214.06	4494.6	
214.27	4625.7	
214.48	3418.1	
214.69	3652.9	
214.91	5550	
215.12	5694.7	
215.33	3685.7	
215.55	4106.9	
215.76	6176	
215.97	5331.5	
216.18	3553.2	
216.4	3448.8	
216.61	4721.3	
216.82	5387.5	
217.04	3224.9	
217.25	3354.6	
217.46	5611.4	
217.67	5334.3	
217.89	2884.2	
218.1	2968.2	
218.31	5019.6	
218.53	5141.8	
218.74	3377.1	
218.95	3260.4	
219.16	4977.2	
219.38	5816.2	
219.59	3248.1	
219.8	3837.2	
220.01	6361	
220.23	5044.8	
220.44	4164.9	
220.65	3147.7	
220.87	5063.3	
221.08	5556.8	
221.29	3009.8	
221.5	3963.5	
221.72	6721.4	
221.93	4775.9	
222.14	3627.6	
222.35	4248.2	
222.57	5038	
222.78	5354.8	
222.99	3415.3	
223.2	3724.6	
223.42	5240.8	
223.63	5420.3	
223.84	2777.7	
224.05	2703.3	
224.27	6255.2	
224.48	5816.9	
224.69	4515.1	
224.9	3670	
225.12	5195.7	
225.33	4992.9	
225.54	2914.9	
225.75	3269.9	
225.97	4665.3	
226.18	4925.4	
226.39	3524.6	
226.6	3233.1	
226.82	4840.7	
227.03	4657.8	
227.24	3622.9	
227.45	3076	
227.67	5384.1	
227.88	5745.9	
228.09	3998.3	
228.3	4023.6	
228.52	5365	
228.73	4994.3	
228.94	3347.7	
229.15	3019.4	
229.36	4982	
229.58	4911	
229.79	3408.5	
230	3943	
230.21	5961.6	
230.43	5099.4	
230.64	3587.4	
230.85	3678.8	
231.06	5449.6	
231.28	5382.7	
231.49	3020.8	
231.7	3568.2	
231.91	5291.3	
232.12	5046.9	
232.34	3080.1	
232.55	3509.5	
232.76	5563.6	
232.97	5146.5	
233.18	3215.3	
233.4	3566.2	
233.61	5172.5	
233.82	4820.2	
234.03	3360	
234.25	3307.5	
234.46	6821.1	
234.67	5071.5	
234.88	3731.4	
235.09	3263.8	
235.31	5216.9	
235.52	4919.9	
235.73	3528	
235.94	3075.4	
236.15	4820.9	
236.37	6019.7	
236.58	3189.4	
236.79	3482.2	
237	5292	
237.21	4565.6	
237.43	3644	
237.64	2947.7	
237.85	8617.2	
238.06	4661.9	
238.27	3706.8	
238.48	3118.4	
238.7	5331.5	
238.91	4874.2	
239.12	3492.5	
239.33	3537.5	
239.54	4647.5	
239.76	4938.3	
239.97	3428.3	
240.18	3468.6	
240.39	6156.9	
240.6	5234.6	
240.82	3578.5	
241.03	3024.2	
241.24	4988.9	
241.45	5782.8	
241.66	3214.6	
241.87	3728.7	
242.09	5648.3	
242.3	5962.3	
242.51	3773	
242.72	3455.6	
242.93	5415.5	
243.14	4962.9	
243.36	4005.1	
243.57	4244.1	
243.78	5791.7	
243.99	5362.9	
244.2	3474	
244.41	3178.4	
244.63	4620.2	
244.84	5294	
245.05	3722.5	
245.26	3445.4	
245.47	5337.7	
245.68	5426.4	
245.9	4580.6	
246.11	3644.7	
246.32	4874.2	
246.53	5220.3	
246.74	5471.5	
246.95	2900.6	
247.16	4658.4	
247.38	5040.1	
247.59	2940.2	
247.8	3480.9	
248.01	4696	
248.22	5006.6	
248.43	3218	
248.64	3445.4	
248.86	4549.9	
249.07	4807.9	
249.28	3086.3	
249.49	3594.2	
249.7	5487.9	
249.91	5584.8	
250.12	2908.8	
250.34	2999.6	
250.55	5100.1	
250.76	4977.9	
250.97	3597.6	
251.18	3622.2	
251.39	5624.4	
251.6	5132.2	
251.81	3672.7	
252.03	3650.8	
252.24	4816.8	
252.45	5427.8	
252.66	3024.8	
252.87	3841.3	
253.08	5046.9	
253.29	6417	
253.5	3096.5	
253.72	4207.2	
253.93	4935.6	
254.14	5890	
254.35	3297.9	
254.56	3390.8	
254.77	5175.2	
254.98	4668	
255.19	3292.5	
255.41	4123.2	
255.62	5143.1	
255.83	5582.8	
256.04	3739.6	
256.25	3593.5	
256.46	6102.9	
256.67	4734.9	
256.88	3517.7	
257.09	3935.5	
257.31	4688.5	
257.52	4797.7	
257.73	4435.2	
257.94	3324.5	
258.15	4905.6	
258.36	5033.9	
258.57	4084.3	
258.78	2704	
258.99	5453.7	
259.2	4857.8	
259.41	3314.3	
259.63	3416.7	
259.84	5724.8	
260.05	6075.6	
260.26	4269.3	
260.47	3291.1	
260.68	5483.1	
260.89	4958.1	
261.1	4007.9	
261.31	3150.5	
261.52	5569.8	
261.73	5844.2	
261.95	4262.5	
262.16	3704.1	
262.37	5613.5	
262.58	5689.3	
262.79	4211.3	
263	3445.4	
263.21	5036.6	
263.42	4913.8	
263.63	3399.6	
263.84	3315	
264.05	5444.9	
264.26	5844.9	
264.47	4099.4	
264.69	3734.8	
264.9	5642.8	
265.11	5167.7	
265.32	3241.3	
265.53	3320.4	
265.74	5106.3	
265.95	4549.9	
266.16	3624.2	
266.37	3848.1	
266.58	5155.4	
266.79	4869.4	
267	3301.3	
267.21	3072.6	
267.42	4620.2	
267.63	5025	
267.84	3457	
268.06	3007.8	
268.27	5388.9	
268.48	5638.1	
268.69	3358.7	
268.9	3943	
269.11	5622.4	
269.32	4521.9	
269.53	3452.2	
269.74	3236.5	
269.95	5281.7	
270.16	4472.1	
270.37	3464.5	
270.58	3989.4	
270.79	4911.7	
271	5427.8	
271.21	3679.5	
271.42	3484.3	
271.63	5122	
271.84	4626.4	
272.05	2809.8	
272.26	3151.8	
272.47	5032.5	
272.68	5215.5	
272.89	3396.9	
273.11	3844.7	
273.32	4808.6	
273.53	5811.5	
273.74	3699.3	
273.95	3685	
274.16	5517.9	
274.37	5036	
274.58	3771.7	
274.79	3093.1	
275	5150	
275.21	5601.9	
275.42	4519.9	
275.63	3797.6	
275.84	5272.2	
276.05	6507.1	
276.26	3658.4	
276.47	3414.6	
276.68	4945.2	
276.89	5868.1	
277.1	3916.4	
277.31	3029.6	
277.52	5260.5	
277.73	5398.4	
277.94	2977.1	
278.15	3370.3	
278.36	5197.1	
278.57	4722.6	
278.78	3352.5	
278.99	3695.2	
279.2	4735.6	
279.41	4734.2	
279.62	4412.7	
279.83	3100.6	
280.04	6021	
280.25	4657.8	
280.46	4307.6	
280.67	3495.9	
280.88	4699.4	
281.09	5626.5	
281.3	3632.4	
281.51	4562.2	
281.72	4810	
281.93	5433.9	
282.14	3278.8	
282.35	3512.3	
282.56	5449	
282.77	5412.8	
282.98	3407.8	
283.19	4021.5	
283.4	6579.4	
283.61	4937.7	
283.82	3090.4	
284.03	4266.6	
284.24	5180	
284.45	5540.4	
284.66	4293.2	
284.87	4055.7	
285.08	5509.7	
285.29	5606	
285.5	2983.9	
285.71	3355.9	
285.92	5502.2	
286.12	6128.2	
286.33	4193.6	
286.54	3404.4	
286.75	5511.1	
286.96	4921.3	
287.17	3158	
287.38	4134.8	
287.59	4760.8	
287.8	4715.1	
288.01	3417.4	
288.22	3870.7	
288.43	5424.4	
288.64	4578.6	
288.85	3967.6	
289.06	3867.9	
289.27	5390.9	
289.48	5804.6	
289.69	4332.1	
289.9	3883.6	
290.11	5649.7	
290.32	4806.6	
290.53	4089.8	
290.74	3711.6	
290.94	5405.3	
291.15	5463.3	
291.36	3249.4	
291.57	3853.6	
291.78	4799.1	
291.99	4516.5	
292.2	3160	
292.41	3774.4	
292.62	5536.3	
292.83	5281.7	
293.04	4595.6	
293.25	3190.1	
293.46	4867.3	
293.67	5532.2	
293.88	3244	
294.09	3132	
294.29	4675.5	
294.5	5193.6	
294.71	3543.7	
294.92	3344.3	
295.13	4838	
295.34	6010.1	
295.55	2965.5	
295.76	3017.3	
295.97	5378	
296.18	6002.6	
296.39	3104.7	
296.6	3271.3	
296.81	5099.4	
297.01	5416.2	
297.22	3401	
297.43	3286.3	
297.64	4788.2	
297.85	4677.6	
298.06	2764.1	
298.27	2957.3	
298.48	5036	
298.69	4781.3	
298.9	3568.9	
299.11	3194.1	
299.31	4629.1	
299.52	4661.2	
299.73	3783.3	
299.94	3664.5	
300.15	5039.4	
300.36	4723.3	
300.57	3686.3	
300.78	3732.1	
300.99	4904.9	
301.2	5127.4	
301.4	3255.6	
301.61	3484.3	
301.82	5358.2	
302.03	5426.4	
302.24	3948.5	
302.45	3070.6	
302.66	5268.7	
302.87	5650.3	
303.08	3321.8	
303.29	4402.5	
303.49	4829.1	
303.7	5029.8	
303.91	2959.3	
304.12	4180.6	
304.33	4616.8	
304.54	5152	
304.75	3304.1	
304.96	3134.1	
305.16	5313.1	
305.37	5920	
305.58	2906.1	
305.79	2996.9	
306	5300.8	
306.21	4564.9	
306.42	3325.2	
306.63	4900.1	
306.83	4924	
307.04	5459.2	
307.25	3565.5	
307.46	3592.8	
307.67	4410	
307.88	5414.8	
308.09	3294.5	
308.29	3333.4	
308.5	5110.4	
308.71	5509	
308.92	3479.5	
309.13	3110.2	
309.34	4980	
309.55	4999.1	
309.75	3989.4	
309.96	3666.5	
310.17	5365.7	
310.38	4790.2	
310.59	3880.9	
310.8	3073.3	
311.01	4886.5	
311.21	4935.6	
311.42	3156.6	
311.63	3239.9	
311.84	4824.3	
312.05	5094.7	
312.26	3588.7	
312.46	3979.2	
312.67	4938.3	
312.88	4598.4	
313.09	3161.4	
313.3	3141.6	
313.51	5688.6	
313.71	6021	
313.92	3161.4	
314.13	3340.9	
314.34	5239.4	
314.55	4941.7	
314.76	3975.1	
314.96	3565.5	
315.17	5141.1	
315.38	5363.6	
315.59	3223.5	
315.8	3016	
316.01	5739.8	
316.21	5844.2	
316.42	3096.5	
316.63	3521.8	
316.84	4854.4	
317.05	5614.2	
317.26	3763.5	
317.46	3372.3	
317.67	4988.2	
317.88	5339.7	
318.09	3996.3	
318.3	2979.8	
318.5	4777.2	
318.71	5319.3	
318.92	5047.6	
319.13	3721.2	
319.34	5446.2	
319.54	5577.3	
319.75	3011.2	
319.96	2863.7	
320.17	5317.9	
320.38	5490.6	
320.58	2875.3	
320.79	3412.6	
321	5485.1	
321.21	5672.2	
321.42	3531.4	
321.62	2925.2	
321.83	4721.9	
322.04	5018.9	
322.25	3366.2	
322.46	3145.7	
322.66	5155.4	
322.87	5332.2	
323.08	3872	
323.29	3121.1	
323.5	5956.2	
323.7	4656.4	
323.91	4274.8	
324.12	3906.8	
324.33	5115.1	
324.53	5313.1	
324.74	3684.3	
324.95	3879.5	
325.16	4566.3	
325.37	4906.9	
325.57	3222.1	
325.78	3240.6	
325.99	5174.5	
326.2	4558.8	
326.4	4631.1	
326.61	2966.8	
326.82	5018.2	
327.03	5149.3	
327.24	4440	
327.44	4153.3	
327.65	5248.3	
327.86	4343.1	
328.07	3734.8	
328.27	3048.1	
328.48	5634.6	
328.69	4695.3	
328.9	4416.1	
329.1	3385.3	
329.31	4951.3	
329.52	5769.8	
329.73	3235.1	
329.93	3587.4	
330.14	5008	
330.35	5229.1	
330.56	5106.3	
330.76	3848.1	
330.97	4843.4	
331.18	5188.2	
331.39	3524.6	
331.59	2913.6	
331.8	5565	
332.01	5543.9	
332.22	3319.1	
332.42	3716.4	
332.63	5177.3	
332.84	4764.9	
333.05	3492.5	
333.25	3200.3	
333.46	4822.3	
333.67	5048.2	
333.88	3340.2	
334.08	3697.9	
334.29	6529.6	
334.5	5570.5	
334.7	3142.9	
334.91	4419.5	
335.12	4653	
335.33	5343.8	
335.53	3517.7	
335.74	5024.3	
335.95	4870.8	
336.16	4687.1	
336.36	3445.4	
336.57	4000.4	
336.78	4688.5	
336.98	5492	
337.19	4290.5	
337.4	3468.6	
337.61	6030.6	
337.81	4653.7	
338.02	3257	
338.23	4111	
338.43	5659.2	
338.64	4713.7	
338.85	3195.5	
339.05	4180.6	
339.26	5763.7	
339.47	4548.5	
339.68	3209.8	
339.88	4638	
340.09	5283.8	
340.3	5441.5	
340.5	3713	
340.71	2928.6	
340.92	4662.5	
341.13	5659.9	
341.33	3078.1	
341.54	3814.7	
341.75	5168.4	
341.95	4909	
342.16	3570.3	
342.37	3828.3	
342.57	4699.4	
342.78	4938.3	
342.99	3903.4	
343.19	2878.8	
343.4	5373.2	
343.61	5258.5	
343.81	3457.7	
344.02	3127.2	
344.23	5380.7	
344.43	5703.6	
344.64	3964.9	
344.85	3844	
345.06	5279	
345.26	5569.1	
345.47	3702.7	
345.68	4278.9	
345.88	4494.6	
346.09	5435.3	
346.3	3768.3	
346.5	2845.3	
346.71	5026.4	
346.92	4747.9	
347.12	2988	
347.33	3702	
347.54	5478.3	
347.74	5828.5	
347.95	3613.3	
348.16	2793.4	
348.36	4888.5	
348.57	4746.5	
348.78	3618.1	
348.98	3873.4	
349.19	5007.3	
349.39	4552	
349.6	2975.7	
349.81	3255.6	
350.01	5223	
350.22	4761.5	
350.43	3526.6	
350.63	4194.2	
350.84	5046.9	
351.05	4825	
351.25	3203	
351.46	2960.7	
351.67	5439.4	
351.87	4700.1	
352.08	3443.3	
352.29	3863.8	
352.49	5471.5	
352.7	5450.3	
352.9	3112.9	
353.11	3849.5	
353.32	5969.8	
353.52	4825	
353.73	3122.5	
353.94	3922.5	
354.14	5273.5	
354.35	5079.6	
354.55	3170.9	
354.76	3527.3	
354.97	5261.9	
355.17	5063.3	
355.38	2979.8	
355.59	4085	
355.79	4724	
356	5090.6	
356.2	3453.6	
356.41	3019.4	
356.62	4539.7	
356.82	4938.3	
357.03	3675.4	
357.24	3383.9	
357.44	4720.6	
357.65	4885.1	
357.85	4379.9	
358.06	3488.4	
358.27	4506.2	
358.47	4692.6	
358.68	3013.2	
358.88	3740.3	
359.09	5163.6	
359.3	5502.9	
359.5	4215.4	
359.71	3848.8	
359.91	5811.5	
360.12	5274.2	
360.33	3676.8	
360.53	4100	
360.74	4764.3	
360.94	4771.8	
361.15	3861.1	
361.36	3173	
361.56	5402.5	
361.77	4904.9	
361.97	4217.5	
362.18	3344.3	
362.38	5474.2	
362.59	4605.2	
362.8	3132.7	
363	3010.5	
363.21	4472.8	
363.41	4995.7	
363.62	3536.2	
363.83	4474.8	
364.03	5136.3	
364.24	5899.5	
364.44	4560.8	
364.65	4546.5	
364.85	4945.8	
365.06	4630.5	
365.27	3287	
365.47	3345	
365.68	5778	
365.88	4865.3	
366.09	3611.9	
366.29	3306.1	
366.5	5113.8	
366.71	5523.4	
366.91	4488.5	
367.12	3783.3	
367.32	5954.1	
367.53	5307.7	
367.73	3745.1	
367.94	4584.7	
368.14	5336.3	
368.35	6043.6	
368.56	3692.5	
368.76	3229	
368.97	5431.9	
369.17	6761	
369.38	3299.3	
369.58	3510.9	
369.79	4566.3	
369.99	5739.1	
370.2	4412.7	
370.4	3646.1	
370.61	5117.9	
370.82	6152.1	
371.02	3511.6	
371.23	2981.2	
371.43	4548.5	
371.64	5649	
371.84	3519.8	
372.05	4574.5	
372.25	6670.2	
372.46	5377.3	
372.66	3556.6	
372.87	3487	
373.07	5409.4	
373.28	6795.2	
373.48	4409.3	
373.69	4108.9	
373.9	5008.6	
374.1	4986.8	
374.31	4280.9	
374.51	3945.8	
374.72	5696.8	
374.92	4692.6	
375.13	4435.9	
375.33	3767.6	
375.54	5328.8	
375.74	4838	
375.95	3859.1	
376.15	4878.9	
376.36	5290.6	
376.56	5162.2	
376.77	3872.7	
376.97	4272.1	
377.18	6270.2	
377.38	5404.6	
377.59	4512.4	
377.79	3425.6	
378	5151.3	
378.2	5606	
378.41	3538.9	
378.61	3416.7	
378.82	5623.7	
379.02	4859.8	
379.23	3721.2	
379.43	4553.3	
379.64	5772.5	
379.84	5302.2	
380.05	3514.3	
380.25	3468.6	
380.46	5423.7	
380.66	5090.6	
380.87	4657.8	
381.07	4915.1	
381.28	6001.2	
381.48	5424.4	
381.69	3523.9	
381.89	3618.1	
382.1	4566.3	
382.3	5543.2	
382.51	4467.3	
382.71	5302.2	
382.91	5444.2	
383.12	5899.5	
383.32	3869.3	
383.53	4005.8	
383.73	5367.7	
383.94	5167.7	
384.14	3999.7	
384.35	3263.1	
384.55	5039.4	
384.76	5470.8	
384.96	3900	
385.17	4151.2	
385.37	5522	
385.58	4834.6	
385.78	4141	
385.98	3162.1	
386.19	5035.3	
386.39	5315.8	
386.6	3639.9	
386.8	3852.9	
387.01	5417.6	
387.21	5435.3	
387.42	4190.8	
387.62	4698.7	
387.83	4941.1	
388.03	5356.8	
388.23	3928.7	
388.44	4548.5	
388.64	4534.2	
388.85	4674.1	
389.05	4172.4	
389.26	4703.5	
389.46	6384.2	
389.67	5808	
389.87	4156	
390.07	4173.1	
390.28	5145.9	
390.48	4824.3	
390.69	3565.5	
390.89	3760.8	
391.1	4943.1	
391.3	5748.6	
391.5	4818.2	
391.71	5298.1	
391.91	5483.8	
392.12	6331.6	
392.32	4829.8	
392.53	4141.7	
392.73	5050.3	
392.93	5118.6	
393.14	3978.5	
393.34	4579.3	
393.55	5565	
393.75	5185.5	
393.95	3913	
394.16	3851.5	
394.36	4937.7	
394.57	5573.2	
394.77	3434.4	
394.98	3833.8	
395.18	4870.1	
395.38	5004.6	
395.59	4538.3	
395.79	3635.1	
396	5037.3	
396.2	5416.2	
396.4	4344.4	
396.61	4317.8	
396.81	5616.9	
397.02	5044.1	
397.22	4575.2	
397.42	4616.8	
397.63	5702.2	
397.83	4905.6	
398.04	3627.6	
398.24	4056.3	
398.44	5388.9	
398.65	4568.3	
398.85	3526.6	
399.05	3622.2	
399.26	4972.5	
399.46	6385.6	
399.67	3967.6	
399.87	3717.7	
400.07	5285.8	
400.28	5508.4	
400.48	3670	
400.69	4650.3	
400.89	5722	
401.09	6086.6	
401.3	3639.2	
401.5	4613.4	
401.7	6255.2	
401.91	6462	
402.11	4012.7	
402.32	4145.8	
402.52	5778	
402.72	5733.6	
402.93	4401.8	
403.13	3429	
403.33	6402	
403.54	5278.3	
403.74	4147.8	
403.94	4937	
404.15	5398.4	
404.35	6318.7	
404.56	3945.8	
404.76	5449	
404.96	5700.9	
405.17	5570.5	
405.37	4924	
405.57	4323.9	
405.78	5709.1	
405.98	5291.3	
406.18	3904.1	
406.39	4741.7	
406.59	5784.1	
406.79	5372.5	
407	3762.8	
407.2	3874.1	
407.4	5797.1	
407.61	5908.4	
407.81	3844.7	
408.01	5728.9	
408.22	4820.2	
408.42	6510.5	
408.62	4723.3	
408.83	4317.1	
409.03	5401.2	
409.23	5223.7	
409.44	4404.5	
409.64	4599.1	
409.84	6171.2	
410.05	6082.5	
410.25	4450.2	
410.45	4318.5	
410.66	5637.4	
410.86	7754.3	
411.06	4691.9	
411.27	4582	
411.47	7576.8	
411.67	5869.5	
411.88	4743.8	
412.08	4939.7	
412.28	6343.2	
412.49	6752.2	
412.69	4621.6	
412.89	4596.3	
413.09	6680.5	
413.3	6524.8	
413.5	4687.1	
413.7	4333.5	
413.91	5955.5	
414.11	6637.5	
414.31	4530.1	
414.52	4828.4	
414.72	6348	
414.92	6276.3	
415.12	4470.7	
415.33	5018.9	
415.53	6576.7	
415.73	6817.7	
415.94	5358.9	
416.14	4762.9	
416.34	5805.3	
416.55	5444.2	
416.75	5773.9	
416.95	5326.8	
417.15	6670.2	
417.36	7182.2	
417.56	5958.2	
417.76	5174.5	
417.97	6962.4	
418.17	6719.4	
418.37	4846.9	
418.57	4951.3	
418.78	6524.8	
418.98	6141.2	
419.18	5650.3	
419.38	5561.6	
419.59	6192.4	
419.79	5932.3	
419.99	4826.4	
420.2	5126.7	
420.4	6707.1	
420.6	6830	
420.8	4716.5	
421.01	4571.1	
421.21	6506.4	
421.41	6608.1	
421.61	5048.9	
421.82	4805.2	
422.02	6210.8	
422.22	6890	
422.42	5433.9	
422.63	5197.7	
422.83	6251.8	
423.03	7232.7	
423.23	5186.1	
423.44	4336.9	
423.64	6204.7	
423.84	6015.6	
424.04	4754.7	
424.25	4465.9	
424.45	7039.6	
424.65	6982.9	
424.85	4254.3	
425.06	4772.4	
425.26	7117.4	
425.46	6149.4	
425.66	5143.1	
425.87	4864.6	
426.07	6819.7	
426.27	6683.2	
426.47	5030.5	
426.67	4526	
426.88	7161.7	
427.08	6696.2	
427.28	5309	
427.48	4415.4	
427.69	5763.7	
427.89	6248.4	
428.09	5259.9	
428.29	4492.6	
428.5	6873	
428.7	6461.3	
428.9	4364.9	
429.1	4833.9	
429.3	6387.6	
429.51	6705	
429.71	4636.6	
429.91	5330.9	
430.11	6625.2	
430.31	6790.4	
430.52	4949.3	
430.72	5088.5	
430.92	7176.1	
431.12	6588.3	
431.32	4599.1	
431.53	5024.3	
431.73	5755.5	
431.93	7134.4	
432.13	4590.2	
432.33	4433.9	
432.54	6163	
432.74	6482.5	
432.94	4386.7	
433.14	5339.1	
433.34	6653.9	
433.55	6215.6	
433.75	5195	
433.95	6767.9	
434.15	6447	
434.35	6288.6	
434.56	4543.1	
434.76	4203.8	
434.96	6417	
435.16	6692.1	
435.36	4504.2	
435.56	5536.3	
435.77	6167.8	
435.97	6253.8	
436.17	6098.2	
436.37	5416.9	
436.57	6111.1	
436.78	6096.8	
436.98	5924.1	
437.18	5961	
437.38	6740.5	
437.58	6311.8	
437.78	6064.7	
437.99	4896.7	
438.19	6769.2	
438.39	7473.7	
438.59	4848.9	
438.79	4381.3	
438.99	7305.8	
439.2	6255.2	
439.4	4452.3	
439.6	4476.9	
439.8	6587	
440	7434.1	
440.2	5327.4	
440.4	5386.8	
440.61	6888	
440.81	7350.2	
441.01	4717.2	
441.21	5462.6	
441.41	7305.8	
441.61	6909.2	
441.81	5708.4	
442.02	6626.5	
442.22	7716.1	
442.42	7004.7	
442.62	4760.8	
442.82	4850.3	
443.02	7331	
443.22	6595.8	
443.43	5229.8	
443.63	4758.1	
443.83	6352.1	
444.03	6355.5	
444.23	5900.2	
444.43	5464	
444.63	6655.2	
444.83	7687.4	
445.04	4958.8	
445.24	5969.8	
445.44	6987	
445.64	7065.5	
445.84	5627.8	
446.04	5689.3	
446.24	6465.4	
446.44	7329	
446.65	4893.3	
446.85	5263.3	
447.05	6724.8	
447.25	7209.5	
447.45	5304.2	
447.65	4756.1	
447.85	6754.9	
448.05	6359.6	
448.25	5712.5	
448.46	5465.3	
448.66	6761	
448.86	6434	
449.06	4606.6	
449.26	5634.6	
449.46	6980.2	
449.66	6246.3	
449.86	5296.7	
450.06	5190.9	
450.26	6378.7	
450.47	6950.8	
450.67	5469.4	
450.87	5766.4	
451.07	7068.2	
451.27	6781.5	
451.47	4928.1	
451.67	5364.3	
451.87	6505	
452.07	7471.7	
452.27	5148.6	
452.47	5129.5	
452.67	6823.8	
452.88	7164.5	
453.08	4530.1	
453.28	6247.7	
453.48	7777.5	
453.68	6653.9	
453.88	4981.3	
454.08	5164.3	
454.28	7113.3	
454.48	6822.5	
454.68	5664	
454.88	6058.6	
455.08	7180.9	
455.28	6898.2	
455.48	4876.9	
455.68	5481	
455.89	7515.4	
456.09	7282.6	
456.29	5184.1	
456.49	5203.9	
456.69	7470.3	
456.89	6767.9	
457.09	5688.6	
457.29	5946.6	
457.49	7146.7	
457.69	7218.4	
457.89	5494.7	
458.09	5019.6	
458.29	6972.7	
458.49	7590.5	
458.69	5915.2	
458.89	5395	
459.09	7780.2	
459.29	7906.5	
459.49	5541.1	
459.69	6104.3	
459.9	7381.6	
460.1	7006.1	
460.3	5386.2	
460.5	5233.2	
460.7	7434.8	
460.9	7043.6	
461.1	4992.3	
461.3	6038.8	
461.5	7958.4	
461.7	7566.6	
461.9	5330.2	
462.1	5692.7	
462.3	7166.5	
462.5	7685.3	
462.7	5477.6	
462.9	5493.3	
463.1	8561.2	
463.3	8277.9	
463.5	5687.2	
463.7	6518.7	
463.9	7395.9	
464.1	7646.4	
464.3	5858.6	
464.5	5984.8	
464.7	7966.6	
464.9	7636.9	
465.1	7161.1	
465.3	6377.4	
465.5	8194.6	
465.7	8247.2	
465.9	6535.1	
466.1	6403.3	
466.3	8040.3	
466.5	7899	
466.7	7126.2	
466.9	6138.4	
467.1	7912	
467.3	8703.9	
467.5	7120.1	
467.7	6137.8	
467.9	8918.2	
468.1	9625.5	
468.3	6832.7	
468.5	7133.8	
468.7	7832.1	
468.9	7874.4	
469.1	6395.8	
469.3	7101	
469.5	9619.3	
469.7	7556.3	
469.9	6827.9	
470.1	6176.7	
470.3	7944.8	
470.5	7926.3	
470.7	7314.7	
470.9	6338.5	
471.1	7818.5	
471.3	8115.4	
471.5	6110.5	
471.69	7760.4	
471.89	7653.3	
472.09	7154.9	
472.29	6891.4	
472.49	7191.8	
472.69	7425.3	
472.89	8131.8	
473.09	6111.1	
473.29	6204	
473.49	7571.3	
473.69	7647.8	
473.89	6933.1	
474.09	6333.7	
474.29	8841.8	
474.49	8544.1	
474.69	6999.3	
474.89	6490	
475.09	7669	
475.29	7740.6	
475.49	5963	
475.69	6171.2	
475.88	9040.4	
476.08	8060.1	
476.28	5877	
476.48	6213.5	
476.68	8459.5	
476.88	8167.3	
477.08	6214.9	
477.28	6412.2	
477.48	7822.6	
477.68	8413.1	
477.88	5963.7	
478.08	6276.3	
478.28	8614.4	
478.48	7919.5	
478.67	6333	
478.87	5809.4	
479.07	8465.6	
479.27	8026	
479.47	6488	
479.67	6521.4	
479.87	8362.5	
480.07	8720.3	
480.27	5840.8	
480.47	7177.4	
480.67	7970.7	
480.87	8531.2	
481.06	6111.1	
481.26	6855.9	
481.46	7981.6	
481.66	7976.8	
481.86	6576	
482.06	7353.6	
482.26	7757	
482.46	8344.1	
482.66	6567.8	
482.86	6112.5	
483.05	8062.2	
483.25	7488.1	
483.45	8588.5	
483.65	6534.4	
483.85	7602.7	
484.05	8005.5	
484.25	6840.9	
484.45	7291.5	
484.65	8655.4	
484.84	8649.3	
485.04	6448.4	
485.24	6464.8	
485.44	8919.6	
485.64	7519.5	
485.84	5912.5	
486.04	7013.6	
486.24	7879.9	
486.44	8105.9	
486.63	5802.6	
486.83	6668.2	
487.03	7783.6	
487.23	7948.2	
487.43	5951.4	
487.63	8006.2	
487.83	7987.1	
488.02	8858.1	
488.22	6797.9	
488.42	7292.8	
488.62	8830.2	
488.82	7802.8	
489.02	6526.9	
489.22	6483.9	
489.41	8606.9	
489.61	8426	
489.81	6272.2	
490.01	6289.3	
490.21	8583.7	
490.41	9188.6	
490.61	6322.8	
490.8	6400.6	
491	8230.1	
491.2	7619.1	
491.4	6954.9	
491.6	6202.6	
491.8	8175.5	
491.99	8210.3	
492.19	6036.7	
492.39	6296.1	
492.59	8537.3	
492.79	8605.6	
492.99	6993.1	
493.18	6255.2	
493.38	8763.3	
493.58	9314.2	
493.78	6966.5	
493.98	6584.9	
494.18	8474.5	
494.37	8006.9	
494.57	7211.6	
494.77	7006.8	
494.97	8710.7	
495.17	8964	
495.37	6663.4	
495.56	7087.3	
495.76	9170.8	
495.96	8813.8	
496.16	7847.1	
496.36	6915.3	
496.55	9050.7	
496.75	8680	
496.95	7249.8	
497.15	7164.5	
497.35	8942.8	
497.54	8938	
497.74	6939.2	
497.94	8406.2	
498.14	9638.4	
498.34	9417.2	
498.53	6744.6	
498.73	7414.3	
498.93	8430.1	
499.13	9059.5	
499.33	7225.2	
499.52	7618.4	
499.72	9048.6	
499.92	9234.3	
500.12	7031.4	
500.32	7233.4	
500.51	9170.8	
500.71	9057.5	
500.91	7899	
501.11	7574.1	
501.31	9207	
501.5	9472.5	
501.7	8253.3	
501.9	7238.9	
502.1	9030.2	
502.29	9231.6	
502.49	7752.9	
502.69	8063.5	
502.89	9168.8	
503.09	9164	
503.28	6878.4	
503.48	6911.9	
503.68	8555	
503.88	8574.2	
504.07	7679.9	
504.27	7256	
504.47	8827.4	
504.67	9102.5	
504.86	7720.8	
505.06	7395.9	
505.26	8664.3	
505.46	10133	
505.65	7337.9	
505.85	7600	
506.05	8621.9	
506.25	8949.6	
506.44	6813.6	
506.64	7513.3	
506.84	8360.5	
507.04	9121.7	
507.23	6930.3	
507.43	7405.5	
507.63	10164	
507.83	8665.6	
508.02	7282.6	
508.22	7040.2	
508.42	10234	
508.62	8373.5	
508.81	7505.8	
509.01	7686	
509.21	8269	
509.4	8629.5	
509.6	7436.9	
509.8	6888.7	
510	8599.4	
510.19	9697.1	
510.39	6884.6	
510.59	7010.9	
510.79	8449.2	
510.98	9538.8	
511.18	7082.6	
511.38	7116	
511.57	9145.5	
511.77	8898.4	
511.97	7654.6	
512.17	6896.2	
512.36	9196.1	
512.56	9047.2	
512.76	6866.2	
512.95	6738.5	
513.15	9274.6	
513.35	7944.8	
513.55	7656	
513.74	6884.6	
513.94	9141.4	
514.14	8558.5	
514.33	7724.9	
514.53	7559.7	
514.73	8632.9	
514.92	8762.6	
515.12	7055.9	
515.32	6993.1	
515.51	8917.5	
515.71	9237.7	
515.91	8501.1	
516.11	6920.1	
516.3	10299	
516.5	8618.5	
516.7	7501	
516.89	8026.7	
517.09	8716.8	
517.29	8589.2	
517.48	7718.8	
517.68	7304.4	
517.88	8426	
518.07	8991.3	
518.27	7706.5	
518.47	6839.5	
518.66	9395.4	
518.86	8269	
519.06	6778.8	
519.25	7159.7	
519.45	8561.2	
519.65	9866.4	
519.84	7727.7	
520.04	8265.6	
520.24	10146	
520.43	9198.1	
520.63	7465.5	
520.83	7236.8	
521.02	8448.6	
521.22	9052.7	
521.42	7610.9	
521.61	8087.4	
521.81	8677.9	
522.01	8890.2	
522.2	7544	
522.4	7341.3	
522.6	9237	
522.79	8170.7	
522.99	7369.3	
523.18	6812.9	
523.38	9073.2	
523.58	9041.8	
523.77	8494.3	
523.97	6819.7	
524.17	10642	
524.36	9903.3	
524.56	8099	
524.76	7786.4	
524.95	9098.4	
525.15	8895.7	
525.34	7695.6	
525.54	7645.1	
525.74	9487.6	
525.93	8685.4	
526.13	8737.3	
526.33	7692.2	
526.52	9845.3	
526.72	9391.3	
526.91	8861.6	
527.11	8052.6	
527.31	9813.2	
527.5	10169	
527.7	8004.1	
527.89	7279.2	
528.09	8964	
528.29	9523.1	
528.48	8487.5	
528.68	8083.3	
528.87	9807	
529.07	9846.6	
529.27	8122.9	
529.46	7715.4	
529.66	9531.2	
529.85	9951.1	
530.05	7555.6	
530.25	8179.6	
530.44	10706	
530.64	9379.7	
530.83	7825.3	
531.03	8120.2	
531.23	9776.3	
531.42	9624.8	
531.62	8670.4	
531.81	8043.1	
532.01	10060	
532.21	10275	
532.4	7862.2	
532.6	8155.7	
532.79	10600	
532.99	10148	
533.18	8282	
533.38	9113.5	
533.58	9684.2	
533.77	10377	
533.97	8302.5	
534.16	9009	
534.36	10574	
534.55	9742.2	
534.75	9109.4	
534.95	8339.3	
535.14	10603	
535.34	9858.2	
535.53	8121.6	
535.73	9712.8	
535.92	11006	
536.12	9931.3	
536.31	8178.9	
536.51	9224.1	
536.71	10226	
536.9	9785.9	
537.1	8260.8	
537.29	8372.8	
537.49	10548	
537.68	9726.5	
537.88	8785.8	
538.07	7963.9	
538.27	9929.2	
538.46	10778	
538.66	8064.2	
538.86	8417.2	
539.05	9994.1	
539.25	10345	
539.44	8723	
539.64	8331.8	
539.83	9830.9	
540.03	10813	
540.22	8127.7	
540.42	8208.3	
540.61	10036	
540.81	10107	
541	8671.8	
541.2	9265.7	
541.39	9671.9	
541.59	9939.5	
541.78	9069.8	
541.98	8208.3	
542.18	9329.9	
542.37	9346.9	
542.57	8470.4	
542.76	8912.1	
542.96	9409.7	
543.15	10058	
543.35	8420.6	
543.54	7886.7	
543.74	10156	
543.93	9809.8	
544.13	8413.1	
544.32	9337.4	
544.52	10104	
544.71	9428.8	
544.91	7633.5	
545.1	8589.2	
545.3	9398.8	
545.49	10081	
545.69	7503.8	
545.88	8043.1	
546.08	10889	
546.27	10509	
546.47	8475.9	
546.66	7962.5	
546.86	10111	
547.05	10713	
547.24	8021.9	
547.44	7980.9	
547.63	9321	
547.83	10200	
548.02	8372.1	
548.22	8445.1	
548.41	9180.4	
548.61	10259	
548.8	7812.3	
549	7768.6	
549.19	9753.8	
549.39	9984.5	
549.58	7542.7	
549.78	8113.4	
549.97	9992	
550.17	9599.5	
550.36	8847.2	
550.55	9688.9	
550.75	9619.3	
550.94	10335	
551.14	7855.3	
551.33	8137.9	
551.53	9012.4	
551.72	9805	
551.92	8234.2	
552.11	7886.7	
552.31	9863	
552.5	9873.3	
552.69	9382.4	
552.89	7599.3	
553.08	9912.2	
553.28	9596.8	
553.47	7949.5	
553.67	8920.3	
553.86	10364	
554.06	8966	
554.25	7168.6	
554.44	7804.1	
554.64	11075	
554.83	10596	
555.03	7650.5	
555.22	8039.6	
555.42	10059	
555.61	9674.6	
555.8	7824.6	
556	8044.4	
556.19	8964.6	
556.39	9984.5	
556.58	7912	
556.78	7845.8	
556.97	9598.8	
557.16	9422.7	
557.36	8905.3	
557.55	7517.4	
557.75	8834.9	
557.94	10287	
558.13	7647.1	
558.33	7451.9	
558.52	10103	
558.72	9058.8	
558.91	7561.8	
559.1	7884	
559.3	8914.8	
559.49	8664.3	
559.69	7146.7	
559.88	8041	
560.07	9605	
560.27	9830.9	
560.46	8237.6	
560.66	8279.9	
560.85	9336	
561.04	8705.9	
561.24	7460.1	
561.43	7629.4	
561.63	8849.3	
561.82	9148.3	
562.01	8718.2	
562.21	7910.6	
562.4	9474.6	
562.59	10297	
562.79	7862.8	
562.98	7489.4	
563.18	9418.6	
563.37	10680	
563.56	8238.3	
563.76	7461.4	
563.95	8941.4	
564.14	8938	
564.34	7846.5	
564.53	7522.2	
564.73	9477.3	
564.92	9797.5	
565.11	7983	
565.31	7436.9	
565.5	9938.1	
565.69	9061.6	
565.89	7682.6	
566.08	7830.1	
566.27	9868.5	
566.47	10167	
566.66	8412.4	
566.85	7208.2	
567.05	9549.7	
567.24	9039.1	
567.44	7574.8	
567.63	8763.3	
567.82	9707.4	
568.02	9562	
568.21	7524.9	
568.4	8062.2	
568.6	9359.9	
568.79	9370.1	
568.98	7465.5	
569.18	7500.3	
569.37	9384.5	
569.56	11038	
569.76	7984.3	
569.95	8669.1	
570.14	9665.7	
570.34	9509.4	
570.53	7531.7	
570.72	7437.5	
570.91	10122	
571.11	9336	
571.3	7864.9	
571.49	8628.1	
571.69	9335.3	
571.88	9018.6	
572.07	8273.1	
572.27	8303.1	
572.46	8920.3	
572.65	9847.3	
572.85	7592.5	
573.04	7945.4	
573.23	10159	
573.43	9452.7	
573.62	7554.3	
573.81	8012.3	
574	9416.6	
574.2	9239.8	
574.39	7801.4	
574.58	7871	
574.78	10271	
574.97	9597.5	
575.16	8286.1	
575.36	8420.6	
575.55	10029	
575.74	10077	
575.93	7492.8	
576.13	8527.1	
576.32	9330.5	
576.51	9886.2	
576.71	7983.7	
576.9	9053.4	
577.09	10214	
577.28	9808.4	
577.48	8256.7	
577.67	7401.4	
577.86	9434.3	
578.05	9654.1	
578.25	8037.6	
578.44	8098.4	
578.63	9558.6	
578.83	10565	
579.02	7522.2	
579.21	8814.5	
579.4	9722.4	
579.6	9490.3	
579.79	8101.8	
579.98	10007	
580.17	9987.3	
580.37	10064	
580.56	7634.1	
580.75	8267.6	
580.94	10378	
581.14	10316	
581.33	8792.6	
581.52	7781.6	
581.71	9891.7	
581.91	10487	
582.1	7541.3	
582.29	8005.5	
582.48	9606.3	
582.68	9591.3	
582.87	8495.7	
583.06	8234.2	
583.25	9984.5	
583.45	9417.9	
583.64	8705.9	
583.83	9338.7	
584.02	9548.3	
584.21	9962.7	
584.41	8727.8	
584.6	8137.3	
584.79	9758.6	
584.98	10204	
585.18	7619.8	
585.37	7703.8	
585.56	9242.5	
585.75	9923.8	
585.94	7864.9	
586.14	8461.5	
586.33	10449	
586.52	9581.1	
586.71	8316.1	
586.91	8071	
587.1	9038.4	
587.29	9944.3	
587.48	7973.4	
587.67	7838.9	
587.87	9805	
588.06	9820	
588.25	9025.4	
588.44	8317.5	
588.63	9461.6	
588.83	9988.6	
589.02	7843	
589.21	7729.7	
589.4	9285.5	
589.59	9129.2	
589.78	7067.5	
589.98	7210.2	
590.17	8667	
590.36	9130.5	
590.55	6602	
590.74	7353.6	
590.94	10163	
591.13	8880	
591.32	7058	
591.51	6700.3	
591.7	9246.6	
591.89	8907.3	
592.09	6819.1	
592.28	7222.5	
592.47	8208.9	
592.66	9927.9	
592.85	6817.7	
593.05	7045	
593.24	8800.1	
593.43	9479.4	
593.62	7004.1	
593.81	7576.8	
594	8789.2	
594.19	9108	
594.39	7084.6	
594.58	6986.3	
594.77	9109.4	
594.96	9640.5	
595.15	6944	
595.34	7531.7	
595.54	9036.3	
595.73	8377.6	
595.92	6400.6	
596.11	7329.7	
596.3	9499.8	
596.49	8439.7	
596.68	7216.4	
596.88	7522.9	
597.07	9290.3	
597.26	8339.3	
597.45	6721.4	
597.64	7853.3	
597.83	8481.3	
598.02	9114.1	
598.22	6823.1	
598.41	7421.8	
598.6	8865.7	
598.79	8376.9	
598.98	6888	
599.17	7765.2	
599.36	8901.8	
599.55	9856.2	
599.74	8590.5	
599.94	8350.3	
600.13	9363.3	
600.32	8310.7	
600.51	6690.7	
600.7	6801.3	
600.89	9986.6	
601.08	9987.3	
601.27	6602	
601.47	7408.2	
601.66	9310.1	
601.85	9697.1	
602.04	7226.6	
602.23	7430	
602.42	8452	
602.61	9110.7	
602.8	7187.7	
602.99	6946.7	
603.18	8792.6	
603.37	8949.6	
603.57	7373.4	
603.76	7954.3	
603.95	9635.7	
604.14	9222.7	
604.33	7021.1	
604.52	7282.6	
604.71	8973.5	
604.9	8531.8	
605.09	7948.8	
605.28	7596.6	
605.47	9430.9	
605.66	9116.9	
605.86	7489.4	
606.05	7000.6	
606.24	9392.7	
606.43	8139.3	
606.62	7314	
606.81	7818.5	
607	9349.7	
607.19	8696.4	
607.38	6741.2	
607.57	6967.9	
607.76	8452	
607.95	8073.8	
608.14	7287.4	
608.33	7855.3	
608.52	8499.8	
608.72	9293.7	
608.91	6589.7	
609.1	6646.3	
609.29	8535.9	
609.48	8123.6	
609.67	7441.6	
609.86	6629.3	
610.05	8262.9	
610.24	8506.6	
610.43	6522.1	
610.62	6320	
610.81	9503.9	
611	9255.5	
611.19	6656.6	
611.38	7245	
611.57	8763.9	
611.76	9792.7	
611.95	6414.2	
612.14	6348	
612.33	8527.1	
612.52	8066.9	
612.71	6996.5	
612.9	6251.1	
613.09	7825.3	
613.28	9861	
613.47	6723.5	
613.66	7477.1	
613.85	8716.8	
614.04	8208.9	
614.24	6724.2	
614.43	6085.2	
614.62	8800.8	
614.81	8738.7	
615	7145.4	
615.19	7195.9	
615.38	8236.2	
615.57	8480	
615.76	7057.3	
615.95	7894.2	
616.14	8846.5	
616.33	8532.5	
616.52	7403.4	
616.71	7543.4	
616.9	8762.6	
617.09	8607.6	
617.28	6830.7	
617.47	7875.1	
617.66	7979.6	
617.85	8039	
618.04	7596.6	
618.22	7092.8	
618.41	8323.6	
618.6	9147.6	
618.79	7004.7	
618.98	6789.7	
619.17	9331.2	
619.36	7893.6	
619.55	6983.6	
619.74	6928.3	
619.93	8720.9	
620.12	8366	
620.31	7432.8	
620.5	7585	
620.69	9303.9	
620.88	9644.6	
621.07	8206.9	
621.26	7351.5	
621.45	9011.1	
621.64	8993.3	
621.83	7572.7	
622.02	6841.6	
622.21	9067.7	
622.4	8798.8	
622.59	7989.8	
622.78	7854.6	
622.97	8404.9	
623.16	9340.8	
623.35	7472.4	
623.54	6783.6	
623.72	8609	
623.91	8711.4	
624.1	7780.9	
624.29	6604	
624.48	9713.5	
624.67	9096.4	
624.86	7632.1	
625.05	6731	
625.24	9754.5	
625.43	8431.5	
625.62	8996	
625.81	7045	
626	9229.5	
626.19	8633.6	
626.38	7625.3	
626.56	7156.3	
626.75	8481.3	
626.94	9187.9	
627.13	7635.5	
627.32	6649.8	
627.51	9101.2	
627.7	10169	
627.89	6638.8	
628.08	7655.3	
628.27	8337.3	
628.46	8546.2	
628.65	6892.1	
628.83	6587.6	
629.02	9053.4	
629.21	8411.7	
629.4	7303.7	
629.59	7491.5	
629.78	8351.6	
629.97	9197.4	
630.16	7468.3	
630.35	6980.8	
630.54	9550.4	
630.72	9359.2	
630.91	7028.6	
631.1	7442.3	
631.29	8899.8	
631.48	8929.8	
631.67	7582.3	
631.86	7077.1	
632.05	8469	
632.24	8538	
632.42	6716.7	
632.61	7376.8	
632.8	8704.5	
632.99	8292.2	
633.18	7326.9	
633.37	7542.7	
633.56	8862.2	
633.75	8822	
633.93	7313.3	
634.12	6979.5	
634.31	9486.9	
634.5	9205.6	
634.69	7109.2	
634.88	7456.7	
635.07	8662.2	
635.25	9096.4	
635.44	7888.8	
635.63	8007.6	
635.82	8539.3	
636.01	8124.3	
636.2	7746.1	
636.39	7395.9	
636.57	9528.5	
636.76	9143.5	
636.95	6876.4	
637.14	8029.4	
637.33	8929.8	
637.52	9590	
637.7	6744	
637.89	7511.3	
638.08	8587.1	
638.27	9775	
638.46	7516	
638.65	8020.5	
638.83	9733.3	
639.02	8295.6	
639.21	7570	
639.4	7959.8	
639.59	8697.7	
639.78	8389.2	
639.96	6799.3	
640.15	6874.3	
640.34	8677.2	
640.53	8720.9	
640.72	6605.4	
640.91	6877.1	
641.09	8104.5	
641.28	9313.5	
641.47	6872.3	
641.66	7588.4	
641.85	8678.6	
642.03	8903.9	
642.22	7312.6	
642.41	6918.7	
642.6	8183	
642.79	7677.2	
642.97	6709.8	
643.16	7366.5	
643.35	8187.8	
643.54	7994.6	
643.73	6587.6	
643.91	7273	
644.1	7884.7	
644.29	8338.6	
644.48	6756.9	
644.67	6739.2	
644.85	7964.6	
645.04	8320.2	
645.23	6326.2	
645.42	6632.7	
645.6	7890.1	
645.79	8880.7	
645.98	6489.3	
646.17	5687.9	
646.36	7515.4	
646.54	7986.4	
646.73	7094.2	
646.92	6154.8	
647.11	7730.4	
647.29	8598.1	
647.48	6201.2	
647.67	6016.2	
647.86	8800.1	
648.05	8804.9	
648.23	6400.6	
648.42	7547.4	
648.61	8282.7	
648.8	8046.5	
648.98	6165.1	
649.17	6400.6	
649.36	7715.4	
649.55	7234.1	
649.73	6179.4	
649.92	6740.5	
650.11	7580.9	
650.3	7857.4	
650.48	6300.9	
650.67	6138.4	
650.86	8073.8	
651.05	7152.9	
651.23	6259.3	
651.42	6197.8	
651.61	7667.6	
651.79	7664.2	
651.98	6384.9	
652.17	6094.8	
652.36	7961.8	
652.54	7113.3	
652.73	6085.9	
652.92	6008.1	
653.11	7961.8	
653.29	8053.3	
653.48	5531.6	
653.67	6326.9	
653.85	7805.5	
654.04	8736.6	
654.23	6523.5	
654.42	6085.9	
654.6	7393.2	
654.79	7961.8	
654.98	5610.8	
655.16	6059.3	
655.35	6985.6	
655.54	6891.4	
655.73	5636	
655.91	5640.1	
656.1	7834.2	
656.29	6856.6	
656.47	5174.5	
656.66	6636.1	
656.85	7135.8	
657.03	7172	
657.22	5741.8	
657.41	5743.9	
657.59	7278.5	
657.78	7120.1	
657.97	5436.7	
658.16	6100.2	
658.34	7880.6	
658.53	8273.1	
658.72	6802.7	
658.9	7256	
659.09	7447.1	
659.28	7434.1	
659.46	5885.2	
659.65	5828.5	
659.84	7205.4	
660.02	7744.1	
660.21	5758.9	
660.4	5717.2	
660.58	8017.1	
660.77	7432.1	
660.96	6250.4	
661.14	5445.5	
661.33	8314.8	
661.52	8303.8	
661.7	5408.7	
661.89	8520.9	
662.08	7101.7	
662.26	6777.4	
662.45	5613.5	
662.64	5775.3	
662.82	7747.5	
663.01	6977.4	
663.2	5756.8	
663.38	6300.2	
663.57	7585	
663.75	7543.4	
663.94	6004	
664.13	6946	
664.31	7126.2	
664.5	7740	
664.69	6335.7	
664.87	6636.8	
665.06	6913.3	
665.25	7444.4	
665.43	6819.1	
665.62	6850.5	
665.8	7737.2	
665.99	7238.9	
666.18	5958.9	
666.36	6032	
666.55	7735.9	
666.74	7617.1	
666.92	5665.4	
667.11	7089.4	
667.29	7206.8	
667.48	7710.6	
667.67	6662	
667.85	5822.4	
668.04	7187	
668.22	7098.3	
668.41	5991	
668.6	6156.2	
668.78	6978.1	
668.97	7175.4	
669.15	6340.5	
669.34	5373.2	
669.53	6982.2	
669.71	7304.4	
669.9	5573.2	
670.08	6177.4	
670.27	6962.4	
670.46	7531.1	
670.64	6404	
670.83	6524.8	
671.01	6859.3	
671.2	7438.9	
671.38	5631.9	
671.57	5526.1	
671.76	7909.9	
671.94	8406.2	
672.13	5515.9	
672.31	6456.6	
672.5	7733.1	
672.69	6834.1	
672.87	5651	
673.06	5878.4	
673.24	7499	
673.43	7075	
673.61	6373.3	
673.8	5853.8	
673.98	7563.1	
674.17	7748.1	
674.36	6350.1	
674.54	6215.6	
674.73	7331.7	
674.91	7646.4	
675.1	6006.7	
675.28	5690.6	
675.47	7236.2	
675.65	7715.4	
675.84	5929.6	
676.03	6157.6	
676.21	7013.6	
676.4	6619	
676.58	6550.8	
676.77	6367.8	
676.95	8284.7	
677.14	7002	
677.32	5573.2	
677.51	5446.2	
677.69	7681.9	
677.88	6724.2	
678.06	5573.9	
678.25	5673.6	
678.44	7225.9	
678.62	6992.4	
678.81	5356.8	
678.99	6234	
679.18	7970.7	
679.36	7533.8	
679.55	5873.6	
679.73	6315.9	
679.92	7537.2	
680.1	7015.7	
680.29	6823.1	
680.47	5815.5	
680.66	6948.8	
680.84	7742	
681.03	5269.4	
681.21	6272.2	
681.4	7021.1	
681.58	6945.3	
681.77	5670.8	
681.95	5565.7	
682.14	7752.9	
682.32	8011	
682.51	6419	
682.69	5466	
682.88	6881.2	
683.06	7494.2	
683.25	6119.3	
683.43	6479.8	
683.62	7218.4	
683.8	7550.9	
683.99	6608.8	
684.17	6037.4	
684.36	8166.6	
684.54	7133.8	
684.73	5279	
684.91	5386.2	
685.1	7320.8	
685.28	6827.9	
685.46	5963	
685.65	5947.3	
685.83	7473	
686.02	6898.9	
686.2	5322.7	
686.39	5479.7	
686.57	6623.1	
686.76	7946.8	
686.94	5438.7	
687.13	5499.5	
687.31	7337.9	
687.5	6954.2	
687.68	5086.5	
687.86	6238.1	
688.05	8430.1	
688.23	6501.6	
688.42	6208.1	
688.6	5494.7	
688.79	6896.9	
688.97	6855.2	
689.16	5862.7	
689.34	4977.9	
689.52	7585	
689.71	7663.5	
689.89	6120	
690.08	5519.3	
690.26	7075.7	
690.45	6942.6	
690.63	6204.7	
690.81	5701.5	
691	6873.7	
691.18	6842.3	
691.37	5841.5	
691.55	7559.1	
691.74	6801.3	
691.92	8445.1	
692.1	5727.5	
692.29	5246.9	
692.47	6924.9	
692.66	6380.1	
692.84	5504.3	
693.02	5936.4	
693.21	6447.7	
693.39	6944.7	
693.58	5997.1	
693.76	5460.6	
693.94	7956.4	
694.13	7808.9	
694.31	5504.3	
694.5	6484.6	
694.68	6781.5	
694.86	7076.4	
695.05	5870.2	
695.23	6180.1	
695.42	7453.9	
695.6	9399.5	
695.78	6430.6	
695.97	5569.8	
696.15	7585.7	
696.34	6992.4	
696.52	5440.8	
696.7	6186.9	
696.89	7239.6	
697.07	6753.5	
697.25	6070.2	
697.44	7326.3	
697.62	7230	
697.81	7481.9	
697.99	5851.7	
698.17	6154.1	
698.36	6690	
698.54	7223.9	
698.72	6093.4	
698.91	5169.1	
699.09	6923.5	
699.28	6771.9	
699.46	5788.9	
699.64	5627.1	
699.83	6703	
700.01	7701	
700.19	6320	
700.38	4958.8	
700.56	7723.6	
700.74	6746	
700.93	5405.3	
701.11	6073.6	
701.29	7371.3	
701.48	8262.9	
701.66	5577.3	
701.84	5599.8	
702.03	7019.8	
702.21	7540.6	
702.39	5261.9	
702.58	5768.4	
702.76	7316.7	
702.94	7437.5	
703.13	5251	
703.31	7315.3	
703.49	6683.2	
703.68	7981.6	
703.86	5387.5	
704.04	6318	
704.23	7234.1	
704.41	7477.8	
704.59	5621	
704.78	6510.5	
704.96	8163.2	
705.14	7617.1	
705.33	5421	
705.51	6069.5	
705.69	7103	
705.87	7759.1	
706.06	6336.4	
706.24	5339.7	
706.42	7315.3	
706.61	7610.9	
706.79	6420.4	
706.97	5348.6	
707.16	6829.3	
707.34	7365.2	
707.52	6323.4	
707.7	5579.3	
707.89	7060.7	
708.07	6725.5	
708.25	6373.3	
708.44	6492.1	
708.62	6860.7	
708.8	7930.4	
708.98	6629.3	
709.17	5673.6	
709.35	7224.6	
709.53	7258.7	
709.72	5475.6	
709.9	5903.6	
710.08	7603.4	
710.26	7567.9	
710.45	6827.2	
710.63	5689.9	
710.81	7200.7	
710.99	7230.7	
711.18	6253.8	
711.36	5879	
711.54	7005.4	
711.72	7782.3	
711.91	5843.5	
712.09	5420.3	
712.27	7174.7	
712.45	7706.5	
712.64	6034	
712.82	5218.2	
713	6733	
713.18	6849.1	
713.37	5348.6	
713.55	6373.3	
713.73	7522.9	
713.91	6404.7	
714.1	5555.5	
714.28	5128.1	
714.46	7248.4	
714.64	6561.7	
714.83	4571.1	
715.01	5215.5	
715.19	6533.7	
715.37	5874.3	
715.55	4948.6	
715.74	5229.8	
715.92	7195.9	
716.1	5533.6	
716.28	6130.3	
716.47	5283.1	
716.65	6146.6	
716.83	6209.4	
717.01	5196.4	
717.19	5236.7	
717.38	8014.4	
717.56	5886.5	
717.74	5452.4	
717.92	4648.9	
718.1	6937.2	
718.29	6247	
718.47	4409.3	
718.65	4937	
718.83	6934.4	
719.01	6888.7	
719.2	4337.6	
719.38	5311.1	
719.56	6681.2	
719.74	8026.7	
719.92	4876.2	
720.11	5912.5	
720.29	6745.3	
720.47	6050.4	
720.65	4541	
720.83	5302.2	
721.02	6241.5	
721.2	6027.9	
721.38	5345.2	
721.56	4687.8	
721.74	5653.1	
721.92	5774.6	
722.11	5683.8	
722.29	5427.1	
722.47	6782.2	
722.65	6139.1	
722.83	4670.1	
723.01	5431.2	
723.2	6187.6	
723.38	6409.5	
723.56	4232.5	
723.74	5182.7	
723.92	5810.1	
724.1	6725.5	
724.29	4607.9	
724.47	5646.9	
724.65	5877.7	
724.83	5787.6	
725.01	4585.4	
725.19	5300.8	
725.37	5862.7	
725.56	5817.6	
725.74	4418.8	
725.92	4689.2	
726.1	5847.6	
726.28	6031.3	
726.46	5016.8	
726.64	4717.8	
726.83	6019	
727.01	6249.7	
727.19	4420.2	
727.37	5246.2	
727.55	6160.3	
727.73	6589	
727.91	4382.7	
728.09	4239.3	
728.28	6594.5	
728.46	7038.9	
728.64	5192.3	
728.82	5213.4	
729	7506.5	
729.18	6913.3	
729.36	4476.2	
729.54	6479.8	
729.72	7815	
729.91	6314.6	
730.09	6268.8	
730.27	5145.2	
730.45	6287.9	
730.63	6836.8	
730.81	5657.2	
730.99	4810	
731.17	7351.5	
731.35	6070.2	
731.53	5276.3	
731.71	5008.6	
731.9	7016.3	
732.08	7139.2	
732.26	5132.2	
732.44	4891.9	
732.62	7253.2	
732.8	6778.1	
732.98	5550	
733.16	4742.4	
733.34	6789.7	
733.52	5704.3	
733.7	5199.1	
733.88	5345.2	
734.07	6564.4	
734.25	6451.1	
734.43	4754.7	
734.61	5993	
734.79	7733.1	
734.97	6285.2	
735.15	4822.3	
735.33	5095.3	
735.51	6549.4	
735.69	6363.7	
735.87	6118	
736.05	5268.1	
736.23	6340.5	
736.41	6229.9	
736.59	5123.3	
736.77	5212.8	
736.95	6860	
737.13	6350.1	
737.32	4904.9	
737.5	5017.5	
737.68	7332.4	
737.86	6257.2	
738.04	4678.2	
738.22	6222.4	
738.4	6097.5	
738.58	6356.9	
738.76	5212.1	
738.94	4312.3	
739.12	6246.3	
739.3	6087.2	
739.48	5663.3	
739.66	5418.2	
739.84	6407.4	
740.02	6379.4	
740.2	4388.8	
740.38	4613.4	
740.56	6730.3	
740.74	5741.1	
740.92	5231.9	
741.1	5143.8	
741.28	6313.2	
741.46	6143.9	
741.64	4894.6	
741.82	5296.7	
742	6305.7	
742.18	6262	
742.36	5029.8	
742.54	4653.7	
742.72	6713.9	
742.9	5608	
743.08	5367.7	
743.26	4251.6	
743.44	6891.4	
743.62	6742.6	
743.8	5467.4	
743.98	4586.1	
744.16	6503.7	
744.34	6139.8	
744.52	5383.4	
744.7	5276.3	
744.88	6586.3	
745.06	6132.3	
745.24	5338.4	
745.42	5411.4	
745.6	6660.7	
745.78	6522.8	
745.96	4390.2	
746.14	4640.7	
746.32	7253.2	
746.5	6593.1	
746.68	5111.7	
746.86	4646.2	
747.03	6939.2	
747.21	5513.8	
747.39	5072.8	
747.57	4632.5	
747.75	6279.1	
747.93	6556.9	
748.11	4581.3	
748.29	4564.9	
748.47	7656.7	
748.65	6015.6	
748.83	5276.3	
749.01	4907.6	
749.19	6477	
749.37	5708.4	
749.55	4848.9	
749.73	4973.2	
749.91	6163.7	
750.09	5858.6	
750.26	4962.2	
750.44	4459.1	
750.62	6204	
750.8	6146.6	
750.98	4290.5	
751.16	4627	
751.34	6275.7	
751.52	5584.1	
751.7	5326.1	
751.88	4229.1	
752.06	6702.3	
752.24	6387.6	
752.42	4261.1	
752.59	4550.6	
752.77	6108.4	
752.95	7203.4	
753.13	5136.3	
753.31	4622.9	
753.49	5777.3	
753.67	6247.7	
753.85	4889.2	
754.03	4513	
754.21	6462.7	
754.38	6703.7	
754.56	4604.5	
754.74	3794.9	
754.92	5716.6	
755.1	6322.1	
755.28	3844.7	
755.46	3833.8	
755.64	6974	
755.82	7051.8	
755.99	3994.2	
756.17	4054.3	
756.35	4834.6	
756.53	6093.4	
756.71	3122.5	
756.89	3919.8	
757.07	5715.2	
757.25	4986.8	
757.42	4410	
757.6	5134.9	
757.78	5871.5	
757.96	4900.8	
758.14	4249.5	
758.32	3699.3	
758.5	4581.3	
758.67	5345.9	
758.85	3966.2	
759.03	4118.5	
759.21	5461.9	
759.39	5002.5	
759.57	3627	
759.75	4658.4	
759.92	6093.4	
760.1	5540.4	
760.28	4941.7	
760.46	5126.1	
760.64	5264.6	
760.82	5031.9	
760.99	4803.9	
761.17	4132.1	
761.35	5959.6	
761.53	5070.1	
761.71	4220.2	
761.89	4735.6	
762.06	5877	
762.24	5406.6	
762.42	4360.8	
762.6	4095.3	
762.78	5382.7	
762.96	5974.6	
763.13	4681.7	
763.31	4289.1	
763.49	6092	
763.67	5377.3	
763.85	5007.3	
764.02	5554.8	
764.2	6382.2	
764.38	5553.4	
764.56	4235.2	
764.74	4995.7	
764.91	6437.4	
765.09	5442.1	
765.27	3922.5	
765.45	3731.4	
765.63	6526.9	
765.8	6279.8	
765.98	3560.1	
766.16	3835.8	
766.34	5068	
766.52	4876.2	
766.69	4683	
766.87	3669.3	
767.05	5473.5	
767.23	6037.4	
767.41	3950.5	
767.58	4145.1	
767.76	5964.4	
767.94	6010.8	
768.12	4001	
768.29	4631.1	
768.47	5441.5	
768.65	6074.3	
768.83	3670.6	
769	4635.2	
769.18	5096.7	
769.36	5719.3	
769.54	4678.2	
769.72	3674.7	
769.89	5994.4	
770.07	6023.1	
770.25	3986	
770.43	5081	
770.6	6641.6	
770.78	6934.4	
770.96	4119.8	
771.14	4732.2	
771.31	5870.8	
771.49	5296.7	
771.67	3448.1	
771.85	3640.6	
772.02	4646.2	
772.2	5295.4	
772.38	4379.9	
772.55	3825.6	
772.73	5543.2	
772.91	5337	
773.09	4149.2	
773.26	4268.6	
773.44	5506.3	
773.62	5251.7	
773.8	3788.1	
773.97	3514.3	
774.15	5510.4	
774.33	5243.5	
774.5	3654.9	
774.68	3990.8	
774.86	5720.7	
775.04	5241.4	
775.21	3728.7	
775.39	3687	
775.57	5442.8	
775.74	5830.6	
775.92	3538.2	
776.1	3348.4	
776.27	5442.1	
776.45	6579.4	
776.63	3627.6	
776.81	3324.5	
776.98	5193.6	
777.16	6081.8	
777.34	3758.7	
777.51	4078.9	
777.69	5162.9	
777.87	4904.9	
778.04	3852.9	
778.22	4362.9	
778.4	4987.5	
778.57	5515.9	
778.75	3173.7	
778.93	3463.8	
779.1	4837.3	
779.28	4677.6	
779.46	3212.6	
779.64	3644	
779.81	5651	
779.99	6376.7	
780.17	4323.3	
780.34	4458.4	
780.52	5178.6	
780.69	5390.3	
780.87	3980.6	
781.05	3618.1	
781.22	5242.1	
781.4	5301.5	
781.58	3685.7	
781.75	2968.9	
781.93	5268.7	
782.11	4725.3	
782.28	4455.7	
782.46	3622.9	
782.64	4612.7	
782.81	5363.6	
782.99	3757.3	
783.17	3663.8	
783.34	5313.1	
783.52	4645.5	
783.69	3902.7	
783.87	4616.1	
784.05	4777.9	
784.22	4739.7	
784.4	4591.5	
784.58	3958	
784.75	5550	
784.93	4789.5	
785.1	3654.9	
785.28	4171	
785.46	5315.2	
785.63	4678.2	
785.81	3619.4	
785.99	3528.7	
786.16	4872.1	
786.34	5171.8	
786.51	3560.1	
786.69	3882.9	
786.87	4541.7	
787.04	4969.1	
787.22	3426.3	
787.39	4216.8	
787.57	4771.8	
787.75	5745.2	
787.92	4427	
788.1	4293.9	
788.27	4739	
788.45	4532.2	
788.63	4080.9	
788.8	2989.4	
788.98	5210	
789.15	4420.9	
789.33	3130	
789.5	3663.1	
789.68	5524.7	
789.86	5616.9	
790.03	4045.4	
790.21	3573	
790.38	5564.3	
790.56	4858.5	
790.73	3431	
790.91	3462.4	
791.09	4762.2	
791.26	5438	
791.44	3706.8	
791.61	3181.2	
791.79	4739	
791.96	4750.6	
792.14	3342.3	
792.32	2940.2	
792.49	4756.7	
792.67	4811.4	
792.84	3321.1	
793.02	3169.6	
793.19	5096	
793.37	5713.8	
793.54	2985.9	
793.72	3244.7	
793.89	5837.4	
794.07	4756.7	
794.25	3693.2	
794.42	3046	
794.6	5630.5	
794.77	5342.5	
794.95	3990.1	
795.12	3509.5	
795.3	4770.4	
795.47	5316.5	
795.65	3811.3	
795.82	3673.4	
796	4567	
796.17	6188.3	
796.35	3625.6	
796.52	4173.8	
796.7	5212.1	
796.87	5254.4	
797.05	3575.1	
797.22	4285	
797.4	5323.4	
797.57	6076.3	
797.75	3695.2	
797.92	3454.9	
798.1	5509	
798.27	4622.3	
798.45	3070.6	
798.62	3254.9	
798.8	4984.1	
798.97	5444.2	
799.15	3893.2	
799.32	3704.8	
799.5	4391.5	
799.67	5035.3	
799.85	4033.8	
800.02	2960.7	
800.2	4746.5	
800.37	4939.7	
800.55	4115.1	
800.72	3460.4	
800.9	5370.5	
801.07	5771.9	
801.25	4629.8	
801.42	3796.9	
801.6	5474.2	
801.77	5101.5	
801.95	3525.2	
802.12	3386.7	
802.29	5183.4	
802.47	5152	
802.64	3839.9	
802.82	2932.7	
802.99	4691.2	
803.17	5477	
803.34	3708.9	
803.52	3313.6	
803.69	6131.6	
803.87	4459.8	
804.04	3670.6	
804.21	3727.3	
804.39	5649	
804.56	4874.8	
804.74	3137.5	
804.91	3805.1	
805.09	4766.3	
805.26	4833.2	
805.44	3229	
805.61	3518.4	
805.78	5337.7	
805.96	5347.2	
806.13	3786.7	
806.31	4098	
806.48	4307.6	
806.66	4767	
806.83	3838.6	
807	3702.7	
807.18	4677.6	
807.35	5046.2	
807.53	3691.1	
807.7	3054.2	
807.87	5663.3	
808.05	4743.8	
808.22	4073.4	
808.4	3001.6	
808.57	4711	
808.74	4412	
808.92	3422.2	
809.09	4341	
809.27	4692.6	
809.44	5220.3	
809.61	3003.7	
809.79	3368.2	
809.96	5739.8	
810.14	5353.4	
810.31	2983.2	
810.48	3609.9	
810.66	4777.9	
810.83	5451.7	
811.01	3422.2	
811.18	3777.8	
811.35	5358.2	
811.53	4248.2	
811.7	4119.1	
811.87	3837.9	
812.05	4796.3	
812.22	4680.3	
812.39	3290.4	
812.57	3190.1	
812.74	4775.2	
812.92	6184.2	
813.09	3600.3	
813.26	3924.6	
813.44	5984.2	
813.61	4613.4	
813.78	2941.6	
813.96	3990.1	
814.13	4816.1	
814.3	4534.2	
814.48	4283.7	
814.65	3591.5	
814.82	5971.2	
815	4490.5	
815.17	3643.3	
815.34	4434.5	
815.52	4646.2	
815.69	4711	
815.87	3676.1	
816.04	3581.9	
816.21	4717.2	
816.38	4259.1	
816.56	3539.6	
816.73	3292.5	
816.9	5895.4	
817.08	5358.9	
817.25	3327.9	
817.42	4126	
817.6	4375.8	
817.77	4750.6	
817.94	3765.5	
818.12	3271.3	
818.29	4463.2	
818.46	6707.8	
818.64	3491.1	
818.81	3169.6	
818.98	4476.9	
819.16	6340.5	
819.33	3903.4	
819.5	3661.8	
819.67	5091.9	
819.85	5552	
820.02	3614.7	
820.19	3759.4	
820.37	4915.8	
820.54	4564.2	
820.71	3695.9	
820.88	4564.2	
821.06	4909	
821.23	4532.8	
821.4	3752.6	
821.58	3652.9	
821.75	5338.4	
821.92	4895.3	
822.09	3018.7	
822.27	3198.9	
822.44	4769.7	
822.61	4676.9	
822.79	3041.2	
822.96	5631.9	
823.13	5124.7	
823.3	4453	
823.48	3497.2	
823.65	3175.7	
823.82	5344.5	
823.99	4394.9	
824.17	4361.5	
824.34	3187.3	
824.51	6140.5	
824.68	4760.2	
824.86	3295.9	
825.03	3695.2	
825.2	4739.7	
825.37	5646.2	
825.55	3315	
825.72	3658.4	
825.89	6203.3	
826.06	5692.7	
826.24	3564.8	
826.41	3549.1	
826.58	5687.2	
826.75	4956.8	
826.92	2891	
827.1	3149.8	
827.27	7597.3	
827.44	6150.7	
827.61	3407.1	
827.79	4132.1	
827.96	4515.1	
828.13	4769	
828.3	3602.4	
828.47	3020.1	
828.65	4971.1	
828.82	4930.1	
828.99	4530.1	
829.16	3975.1	
829.34	5247.6	
829.51	5071.5	
829.68	3639.9	
829.85	3780.6	
830.02	5559.6	
830.2	5306.3	
830.37	2886.3	
830.54	4385.4	
830.71	5962.3	
830.88	4726	
831.05	2902.7	
831.23	3327.3	
831.4	5757.5	
831.57	6348.7	
831.74	3461.1	
831.91	3008.5	
832.09	5036.6	
832.26	5296	
832.43	3488.4	
832.6	3911.6	
832.77	4989.5	
832.94	5674.9	
833.12	2835.1	
833.29	3415.3	
833.46	4959.5	
833.63	6550.1	
833.8	3847.5	
833.97	3467.2	
834.15	5345.9	
834.32	5142.4	
834.49	3635.8	
834.66	3724.6	
834.83	5474.2	
835	4569.7	
835.17	3442.6	
835.35	3379.8	
835.52	5219.6	
835.69	5103.5	
835.86	3579.2	
836.03	2953.9	
836.2	5272.8	
836.37	4931.5	
836.55	3487.7	
836.72	3316.3	
836.89	4924	
837.06	5331.5	
837.23	3531.4	
837.4	3924.6	
837.57	6020.3	
837.75	6524.1	
837.92	3198.9	
838.09	3377.1	
838.26	4880.3	
838.43	5522	
838.6	3677.5	
838.77	3293.1	
838.94	6312.5	
839.11	6049	
839.29	3502.7	
839.46	2807.1	
839.63	5324.7	
839.8	5045.5	
839.97	3401	
840.14	3383.2	
840.31	5150.6	
840.48	5312.4	
840.65	2838.5	
840.82	3286.3	
841	5267.4	
841.17	5206.6	
841.34	3122.5	
841.51	3166.8	
841.68	5213.4	
841.85	5029.1	
842.02	3241.3	
842.19	2719.7	
842.36	5079	
842.53	5029.8	
842.7	3108.1	
842.87	3814.7	
843.05	6590.4	
843.22	4975.9	
843.39	2957.3	
843.56	3346.4	
843.73	4780	
843.9	5416.2	
844.07	4986.8	
844.24	4156	
844.41	7511.9	
844.58	4646.8	
844.75	3072.6	
844.92	3289.7	
845.09	5254.4	
845.26	5266.7	
845.43	3117.7	
845.6	3265.1	
845.77	5279.7	
845.94	4980.7	
846.12	3452.2	
846.29	3621.5	
846.46	5470.8	
846.63	5270.1	
846.8	3153.2	
846.97	3674.7	
847.14	5660.6	
847.31	5174.5	
847.48	3472	
847.65	3792.8	
847.82	5449	
847.99	5477.6	
848.16	4125.3	
848.33	3808.5	
848.5	4865.3	
848.67	5735	
848.84	3106.8	
849.01	3262.4	
849.18	4805.2	
849.35	4534.2	
849.52	3836.5	
849.69	3059.7	
849.86	5410.7	
850.03	5575.9	
850.2	3132.7	
850.37	3772.4	
850.54	5548.6	
850.71	4991.6	
850.88	3664.5	
851.05	3097.2	
851.22	5190.9	
851.39	5760.3	
851.56	2949.8	
851.73	3522.5	
851.9	4649.6	
852.07	5430.5	
852.24	3487	
852.41	3039.2	
852.58	5181.4	
852.75	4732.9	
852.92	3439.9	
853.09	3052.8	
853.26	4889.9	
853.43	5653.1	
853.6	3115	
853.77	2686.9	
853.94	5693.4	
854.11	5192.3	
854.28	4556.7	
854.44	3386.7	
854.61	6118.6	
854.78	5536.3	
854.95	3115.6	
855.12	3962.8	
855.29	4292.5	
855.46	5765	
855.63	3091.8	
855.8	4290.5	
855.97	4895.3	
856.14	5550.7	
856.31	4334.2	
856.48	3382.6	
856.65	4845.5	
856.82	4577.9	
856.99	2970.2	
857.16	3347.7	
857.33	6302.3	
857.49	5008.6	
857.66	3369.6	
857.83	3577.1	
858	4998.4	
858.17	5104.9	
858.34	2943.6	
858.51	3135.4	
858.68	5833.3	
858.85	5856.5	
859.02	3620.8	
859.19	3824.9	
859.36	4628.4	
859.52	4691.2	
859.69	3132.7	
859.86	3653.6	
860.03	4720.6	
860.2	5751.4	
860.37	2863.1	
860.54	3148.4	
860.71	5396.4	
860.88	5791	
861.05	3468.6	
861.21	3907.5	
861.38	5765	
861.55	4501.4	
861.72	2833	
861.89	3492.5	
862.06	5520	
862.23	5907.7	
862.4	3036.5	
862.56	3226.9	
862.73	5330.9	
862.9	5068.7	
863.07	3645.4	
863.24	2870.6	
863.41	4581.3	
863.58	4693.9	
863.75	3229	
863.91	3620.1	
864.08	5757.5	
864.25	5338.4	
864.42	3841.3	
864.59	4351.9	
864.76	6014.9	
864.93	4635.9	
865.09	2992.8	
865.26	3333.4	
865.43	5648.3	
865.6	6036.7	
865.77	2764.8	
865.94	3104	
866.1	5703.6	
866.27	5433.3	
866.44	4625.7	
866.61	2949.8	
866.78	4986.1	
866.95	5382.1	
867.11	3006.4	
867.28	2764.1	
867.45	5552.7	
867.62	4685.1	
867.79	3594.9	
867.96	3080.8	
868.12	4658.4	
868.29	5483.1	
868.46	2721.8	
868.63	4118.5	
868.8	5571.2	
868.97	5388.9	
869.13	3271.3	
869.3	3257.6	
869.47	5292	
869.64	5547.3	
869.81	3158	
869.97	3137.5	
870.14	5223.7	
870.31	5812.8	
870.48	3011.2	
870.65	3908.2	
870.81	4900.8	
870.98	5026.4	
871.15	3461.1	
871.32	3183.9	
871.48	5300.1	
871.65	5780.1	
871.82	3117	
871.99	3415.3	
872.16	6204.7	
872.32	5664.7	
872.49	3169.6	
872.66	3168.2	
872.83	5442.8	
872.99	4765.6	
873.16	3573	
873.33	3153.9	
873.5	5117.9	
873.67	5175.9	
873.83	3275.4	
874	4067.3	
874.17	5308.3	
874.34	6064.7	
874.5	3939.6	
874.67	3888.4	
874.84	5771.2	
875.01	4579.3	
875.17	4353.3	
875.34	3132	
875.51	5195	
875.68	6195.8	
875.84	3771.7	
876.01	4518.5	
876.18	5438.7	
876.34	5343.2	
876.51	3134.1	
876.68	3059.7	
876.85	4971.1	
877.01	5755.5	
877.18	4465.9	
877.35	3105.4	
877.52	5143.1	
877.68	4592.2	
877.85	2990	
878.02	3088.3	
878.18	5024.3	
878.35	4836.6	
878.52	2532	
878.69	3472.7	
878.85	5504.9	
879.02	5364.3	
879.19	4401.8	
879.35	3389.4	
879.52	5401.2	
879.69	5540.4	
879.86	2727.2	
880.02	3477.5	
880.19	5076.9	
880.36	6102.3	
880.52	3592.1	
880.69	3636.5	
880.86	5464	
881.02	5486.5	
881.19	3439.9	
881.36	3371	
881.52	5410.7	
881.69	4775.9	
881.86	3401.7	
882.02	3273.3	
882.19	5619.6	
882.36	6494.1	
882.52	3228.3	
882.69	4369.7	
882.86	5199.8	
883.02	5170.4	
883.19	3803.1	
883.36	3536.2	
883.52	5498.1	
883.69	6212.9	
883.86	3190.7	
884.02	2863.1	
884.19	5474.9	
884.36	5104.9	
884.52	3474.7	
884.69	3299.3	
884.86	4870.1	
885.02	5906.3	
885.19	3447.4	
885.36	3629	
885.52	5034.6	
885.69	5223	
885.86	4427.7	
886.02	3886.4	
886.19	5514.5	
886.35	4956.1	
886.52	3478.8	
886.69	4340.3	
886.85	4706.9	
887.02	5694.7	
887.19	5694.7	
887.35	5694.7	
887.52	5694.7	
887.68	5694.7	
887.85	5694.7	
888.02	5694.7	
888.18	5694.7	
888.35	5694.7	
888.51	5694.7	
888.68	5694.7	
888.85	5694.7	
889.01	5694.7	
889.18	5694.7	
889.35	5694.7	
889.51	5694.7	
889.68	5694.7	
889.84	5694.7	
890.01	5694.7	
890.17	5694.7	
890.34	5694.7	
890.51	5694.7	
890.67	5694.7	
890.84	5694.7	
891	5694.7	
891.17	5694.7	
891.34	5694.7	
891.5	5694.7	
891.67	5694.7	
891.83	5694.7	
892	5694.7	
892.16	5694.7	
892.33	5694.7	
892.5	5694.7	
892.66	5694.7	
892.83	5694.7	
892.99	5694.7	
893.16	5694.7	
893.32	5694.7	
893.49	5694.7	
893.65	5694.7	
893.82	5694.7	
893.99	5694.7	
894.15	5694.7	
894.32	5694.7	
894.48	5694.7	
894.65	5694.7	
894.81	5694.7	
894.98	5694.7	
895.14	5694.7	
895.31	5694.7	
895.47	5694.7	
895.64	5694.7	
895.81	5694.7	
895.97	5694.7	
896.14	5694.7	
896.3	5694.7	
896.47	5694.7	
896.63	5694.7	
896.8	5694.7	
896.96	5694.7	
897.13	5694.7	
897.29	5694.7	
897.46	5694.7	
897.62	5694.7	
897.79	5694.7	
897.95	5694.7	
898.12	5694.7	
898.28	5694.7	
898.45	5694.7	
898.61	5694.7	
898.78	5694.7	
898.94	5694.7	
899.11	5694.7	
899.27	5694.7	
899.44	5694.7	
899.6	5694.7	
899.77	5694.7	
899.93	5694.7	
900.1	5694.7	
900.26	5694.7	
900.43	5694.7	
900.59	5694.7	
900.76	5694.7	
900.92	5694.7	
901.09	5694.7	
901.25	5694.7	
901.42	5694.7	
901.58	5694.7	
901.75	5694.7	
901.91	5694.7	
902.07	5694.7	
902.24	5694.7	
902.4	5694.7	
902.57	5694.7	
902.73	5694.7	
902.9	5694.7	
903.06	5694.7	
903.23	5694.7	
903.39	5694.7	
903.56	5694.7	
903.72	5694.7	
903.88	5694.7	
904.05	5694.7	
904.21	5694.7	
904.38	5694.7	
904.54	5694.7	
904.71	5694.7	
904.87	5694.7	
905.03	5694.7	
905.2	5694.7	
905.36	5694.7	
905.53	5694.7	
905.69	5694.7	
905.86	5694.7	
906.02	5694.7	
906.18	5694.7	
906.35	5694.7	
906.51	5694.7	
906.68	5694.7	
906.84	5694.7	
907.01	5694.7	
907.17	5694.7	
907.33	5694.7	
907.5	5694.7	
907.66	5694.7	
907.83	5694.7	
907.99	5694.7	
908.15	5694.7	
908.32	5694.7	
908.48	5694.7	
908.65	5694.7	
908.81	5694.7	
908.97	5694.7	
909.14	5694.7	
909.3	5694.7	
909.47	5694.7	
909.63	5694.7	
909.79	5694.7	
909.96	5694.7	
910.12	5694.7	
910.28	5694.7	
910.45	5694.7	
910.61	5694.7	
910.78	5694.7	
910.94	5694.7	
911.1	5694.7	
911.27	5694.7	
911.43	5694.7	
911.59	5694.7	
911.76	5694.7	
911.92	5694.7	
912.08	5694.7	
912.25	5694.7	
912.41	5694.7	
912.57	5694.7	
912.74	5694.7	
912.9	5694.7	
913.07	5694.7	
913.23	5694.7	
913.39	5694.7	
913.56	5694.7	
913.72	5694.7	
913.88	5694.7	
914.05	5694.7	
914.21	5694.7	
914.37	5694.7	
914.54	5694.7	
914.7	5694.7	
914.86	5694.7	
915.03	5694.7	
915.19	5694.7	
