Wavelength	Intensities	
nm	a.u.	
179.22	1683.1	
179.44	1677.3	
179.65	1688.9	
179.86	1665.7	
180.08	1692.3	
180.29	3792.2	
180.51	2971.6	
180.72	4924	
180.94	5453.1	
181.15	2693.8	
181.37	2682.2	
181.58	4709.6	
181.79	4952	
182.01	2773.6	
182.22	2922.5	
182.44	4947.9	
182.65	4283.7	
182.87	3560.1	
183.08	3200.3	
183.29	5188.2	
183.51	4367	
183.72	2890.4	
183.94	4059.1	
184.15	4672.8	
184.37	4577.9	
184.58	2634.4	
184.79	3433.8	
185.01	4403.1	
185.22	4969.7	
185.44	3572.3	
185.65	3093.8	
185.86	4686.4	
186.08	4300.1	
186.29	2565.4	
186.51	2720.4	
186.72	4411.3	
186.94	5057.1	
187.15	3153.2	
187.36	3140.9	
187.58	6227.2	
187.79	4713.1	
188.01	3256.3	
188.22	4829.1	
188.43	5504.9	
188.65	4909.7	
188.86	2760	
189.08	3227.6	
189.29	4492.6	
189.5	4510.3	
189.72	2908.8	
189.93	3030.3	
190.15	5134.9	
190.36	5831.2	
190.57	3201	
190.79	3121.8	
191	5082.4	
191.22	5057.1	
191.43	3291.1	
191.64	2745.6	
191.86	5320.6	
192.07	5055.1	
192.29	2867.2	
192.5	2925.2	
192.71	5035.3	
192.93	4482.3	
193.14	2936.8	
193.35	3015.3	
193.57	4476.2	
193.78	5089.2	
194	2471.9	
194.21	2848	
194.42	4338.3	
194.64	4711.7	
194.85	3170.9	
195.07	3617.4	
195.28	4635.9	
195.49	4162.2	
195.71	3775.8	
195.92	2792.1	
196.13	4846.2	
196.35	4889.9	
196.56	4011.3	
196.78	3179.1	
196.99	5791.7	
197.2	5448.3	
197.42	3557.3	
197.63	3173	
197.84	4295.3	
198.06	4849.6	
198.27	2947.7	
198.48	3754.6	
198.7	4511.7	
198.91	4689.8	
199.13	3190.1	
199.34	3186.6	
199.55	5068	
199.77	4041.3	
199.98	2899.2	
200.19	3259.7	
200.41	4681.7	
200.62	4390.2	
200.83	3247.4	
201.05	3540.3	
201.26	4614.1	
201.47	4428.4	
201.69	2895.1	
201.9	2783.9	
202.11	4661.9	
202.33	5364.3	
202.54	3056.9	
202.76	3371.6	
202.97	4695.3	
203.18	4790.9	
203.4	3296.5	
203.61	3339.6	
203.82	4709.6	
204.04	4446.8	
204.25	3127.9	
204.46	3151.1	
204.68	4633.9	
204.89	4868	
205.1	3138.2	
205.32	2743.6	
205.53	4940.4	
205.74	5114.5	
205.96	2476	
206.17	3229	
206.38	4928.1	
206.6	5036	
206.81	3657	
207.02	3047.4	
207.24	4857.1	
207.45	5169.8	
207.66	3095.8	
207.88	2652.1	
208.09	4777.9	
208.3	4647.5	
208.52	2900.6	
208.73	3134.8	
208.94	4708.3	
209.15	5198.4	
209.37	3070.6	
209.58	3160	
209.79	5029.1	
210.01	4571.7	
210.22	2579.8	
210.43	2640.5	
210.65	4646.8	
210.86	4963.6	
211.07	3114.3	
211.29	2835.8	
211.5	4909.7	
211.71	4586.8	
211.93	2840.5	
212.14	2904	
212.35	4638.6	
212.56	4709	
212.78	3210.5	
212.99	2693.8	
213.2	5306.3	
213.42	4493.9	
213.63	2995.5	
213.84	3094.5	
214.06	4268	
214.27	4239.3	
214.48	3076.7	
214.69	3216	
214.91	5158.2	
215.12	5195	
215.33	3239.2	
215.55	3492.5	
215.76	5549.3	
215.97	4876.2	
216.18	3125.2	
216.4	3108.8	
216.61	4461.8	
216.82	5048.9	
217.04	2951.8	
217.25	2969.6	
217.46	5102.9	
217.67	4945.2	
217.89	2609.8	
218.1	2717	
218.31	4743.1	
218.53	4795.7	
218.74	3061	
218.95	2921.1	
219.16	4672.1	
219.38	5321.3	
219.59	2896.5	
219.8	3398.9	
220.01	5679	
220.23	4648.9	
220.44	3728.7	
220.65	2837.1	
220.87	4758.1	
221.08	5119.9	
221.29	2725.8	
221.5	3425.6	
221.72	5981.4	
221.93	4418.8	
222.14	3166.8	
222.35	3684.3	
222.57	4621.6	
222.78	4949.9	
222.99	3080.8	
223.2	3285.6	
223.42	4874.2	
223.63	4995	
223.84	2407.7	
224.05	2459.6	
224.27	5689.3	
224.48	5291.3	
224.69	3728	
224.9	3218.7	
225.12	4784.7	
225.33	4651.6	
225.54	2640.5	
225.75	2887.6	
225.97	4360.8	
226.18	4605.2	
226.39	3090.4	
226.6	2882.2	
226.82	4499.4	
227.03	4332.8	
227.24	3205.1	
227.45	2725.2	
227.67	4954	
227.88	5212.8	
228.09	3573	
228.3	3525.2	
228.52	4915.8	
228.73	4594.3	
228.94	2996.9	
229.15	2682.2	
229.36	4573.8	
229.58	4629.1	
229.79	3026.9	
230	3412.6	
230.21	5457.2	
230.43	4676.9	
230.64	3206.4	
230.85	3250.8	
231.06	5012.7	
231.28	4924	
231.49	2715.6	
231.7	3158	
231.91	4922.6	
232.12	4698	
232.34	2762.7	
232.55	3089	
232.76	5082.4	
232.97	4730.1	
233.18	2851.5	
233.4	3176.4	
233.61	4769.7	
233.82	4484.4	
234.03	3072.6	
234.25	2999.6	
234.46	6111.8	
234.67	4700.1	
234.88	3317	
235.09	2936.1	
235.31	4792.9	
235.52	4598.4	
235.73	3196.2	
235.94	2709.5	
236.15	4457.1	
236.37	5419.6	
236.58	2854.2	
236.79	3103.4	
237	4898.1	
237.21	4278.9	
237.43	3291.8	
237.64	2662.4	
237.85	7577.5	
238.06	4351.3	
238.27	3250.1	
238.48	2770.9	
238.7	4894	
238.91	4579.3	
239.12	3064.4	
239.33	3155.2	
239.54	4414.1	
239.76	4514.4	
239.97	3052.2	
240.18	3105.4	
240.39	5540.4	
240.6	4830.5	
240.82	3209.8	
241.03	2699.2	
241.24	4663.9	
241.45	5245.5	
241.66	2853.5	
241.87	3325.2	
242.09	5259.2	
242.3	5369.8	
242.51	3328.6	
242.72	3063.8	
242.93	4947.2	
243.14	4659.1	
243.36	3528	
243.57	3759.4	
243.78	5244.2	
243.99	4925.4	
244.2	3079.5	
244.41	2820.1	
244.63	4317.1	
244.84	4842.8	
245.05	3272	
245.26	3098.6	
245.47	4900.1	
245.68	4984.8	
245.9	3880.9	
246.11	3183.2	
246.32	4461.2	
246.53	4886.5	
246.74	4783.4	
246.95	2710.8	
247.16	4359.4	
247.38	4671.4	
247.59	2698.5	
247.8	3057.6	
248.01	4346.5	
248.22	4674.1	
248.43	2865.8	
248.64	2998.2	
248.86	4291.9	
249.07	4482.3	
249.28	2772.9	
249.49	3149.1	
249.7	5040.7	
249.91	5063.9	
250.12	2668.5	
250.34	2702.6	
250.55	4773.1	
250.76	4629.1	
250.97	3176.4	
251.18	3203	
251.39	5098.8	
251.6	4776.5	
251.81	3235.1	
252.03	3204.4	
252.24	4490.5	
252.45	4964.3	
252.66	2725.8	
252.87	3360	
253.08	4696	
253.29	5705.6	
253.5	2785.9	
253.72	3705.5	
253.93	4610.7	
254.14	5346.6	
254.35	2967.5	
254.56	3016	
254.77	4778.6	
254.98	4377.2	
255.19	2967.5	
255.41	3588	
255.62	4791.6	
255.83	5125.4	
256.04	3245.3	
256.25	3202.3	
256.46	5514.5	
256.67	4466.6	
256.88	3171.6	
257.09	3473.4	
257.31	4340.3	
257.52	4463.2	
257.73	3927.3	
257.94	2949.1	
258.15	4596.3	
258.36	4682.3	
258.57	3598.3	
258.78	2463.7	
258.99	5016.2	
259.2	4555.4	
259.41	2968.9	
259.63	3110.2	
259.84	5276.9	
260.05	5452.4	
260.26	3702.7	
260.47	2953.9	
260.68	5081.7	
260.89	4556.7	
261.1	3480.9	
261.31	2837.8	
261.52	5133.6	
261.73	5330.2	
261.95	3762.8	
262.16	3284.3	
262.37	5113.1	
262.58	5252.4	
262.79	3715.7	
263	2968.9	
263.21	4682.3	
263.42	4244.8	
263.63	3245.3	
263.84	3019.4	
264.05	5074.2	
264.26	5274.2	
264.47	3607.8	
264.69	3179.8	
264.9	5225.1	
265.11	4801.1	
265.32	2888.3	
265.53	2947.7	
265.74	4724	
265.95	4192.9	
266.16	3076	
266.37	3437.9	
266.58	4764.3	
266.79	4474.8	
267	3009.8	
267.21	2811.9	
267.42	4330.8	
267.63	4634.6	
267.84	3046	
268.06	2691.7	
268.27	5034.6	
268.48	5113.1	
268.69	3062.4	
268.9	3472	
269.11	5118.6	
269.32	4231.1	
269.53	3096.5	
269.74	2879.4	
269.95	4833.2	
270.16	4181.3	
270.37	3095.8	
270.58	3508.2	
270.79	4591.5	
271	5007.3	
271.21	3247.4	
271.42	3134.8	
271.63	4820.9	
271.84	4365.6	
272.05	2566.1	
272.26	2812.5	
272.47	4653.7	
272.68	4831.2	
272.89	3026.9	
273.11	3354.6	
273.32	4515.8	
273.53	5286.5	
273.74	3274	
273.95	3150.5	
274.16	5041.4	
274.37	4656.4	
274.58	3396.9	
274.79	2788	
275	4785.4	
275.21	5070.1	
275.42	3960.8	
275.63	3444.7	
275.84	4865.3	
276.05	5886.5	
276.26	3216	
276.47	3095.2	
276.68	4620.9	
276.89	5358.9	
277.1	3461.7	
277.31	2767.5	
277.52	4814.1	
277.73	5100.8	
277.94	2745	
278.15	2995.5	
278.36	4833.9	
278.57	4461.2	
278.78	3009.1	
278.99	3259	
279.2	4447.5	
279.41	4345.8	
279.62	3865.9	
279.83	2800.9	
280.04	5489.9	
280.25	4377.2	
280.46	3822.2	
280.67	3112.2	
280.88	4401.8	
281.09	5138.4	
281.3	3295.2	
281.51	4017.4	
281.72	4470.7	
281.93	5006.6	
282.14	2949.8	
282.35	3089.7	
282.56	5026.4	
282.77	4987.5	
282.98	3011.9	
283.19	3612.6	
283.4	5897.5	
283.61	4612	
283.82	2843.3	
284.03	3694.5	
284.24	4844.8	
284.45	5116.5	
284.66	3762.1	
284.87	3577.8	
285.08	5048.2	
285.29	5182.7	
285.5	2727.2	
285.71	3072	
285.92	5081.7	
286.12	5550.7	
286.33	3720.5	
286.54	3014.6	
286.75	4958.8	
286.96	4577.9	
287.17	2853.5	
287.38	3600.3	
287.59	4482.3	
287.8	4462.5	
288.01	3021.4	
288.22	3444	
288.43	4889.2	
288.64	4234.5	
288.85	3636.5	
289.06	3379.1	
289.27	4944.5	
289.48	5278.3	
289.69	3752.6	
289.9	3416.7	
290.11	5109.7	
290.32	4489.8	
290.53	3531.4	
290.74	3310.2	
290.94	4993.6	
291.15	5018.2	
291.36	2953.2	
291.57	3377.1	
291.78	4552	
291.99	4218.8	
292.2	2834.4	
292.41	3351.8	
292.62	5036.6	
292.83	4887.8	
293.04	3990.8	
293.25	2899.2	
293.46	4531.5	
293.67	5048.2	
293.88	2904.7	
294.09	2866.5	
294.29	4367	
294.5	4745.8	
294.71	3081.5	
294.92	2988	
295.13	4534.9	
295.34	5473.5	
295.55	2701.3	
295.76	2646.7	
295.97	4923.3	
296.18	5461.2	
296.39	2805.7	
296.6	2922.5	
296.81	4704.9	
297.01	4945.8	
297.22	3060.3	
297.43	2932	
297.64	4448.2	
297.85	4358.8	
298.06	2490.3	
298.27	2709.5	
298.48	4649.6	
298.69	4460.5	
298.9	3181.9	
299.11	2893.1	
299.31	4311.7	
299.52	4331.5	
299.73	3383.9	
299.94	3294.5	
300.15	4659.8	
300.36	4443.4	
300.57	3241.3	
300.78	3252.2	
300.99	4551.3	
301.2	4737	
301.4	2950.4	
301.61	3095.2	
301.82	4899.4	
302.03	5029.1	
302.24	3467.2	
302.45	2812.5	
302.66	4909	
302.87	5109.7	
303.08	2930.6	
303.29	3809.2	
303.49	4549.2	
303.7	4628.4	
303.91	2704.7	
304.12	3664.5	
304.33	4292.5	
304.54	4786.8	
304.75	2940.9	
304.96	2811.2	
305.16	4929.5	
305.37	5452.4	
305.58	2646	
305.79	2700.6	
306	4889.9	
306.21	4243.4	
306.42	2904.7	
306.63	4204.5	
306.83	4550.6	
307.04	4944.5	
307.25	3225.6	
307.46	3136.1	
307.67	4168.3	
307.88	4913.1	
308.09	2923.1	
308.29	2972.3	
308.5	4734.9	
308.71	5089.9	
308.92	3123.8	
309.13	2826.9	
309.34	4664.6	
309.55	4638.6	
309.75	3568.2	
309.96	3211.9	
310.17	4975.9	
310.38	4398.4	
310.59	3419.4	
310.8	2811.9	
311.01	5262.6	
311.21	4597	
311.42	2856.9	
311.63	2924.5	
311.84	4523.3	
312.05	4784.7	
312.26	3252.9	
312.46	3508.2	
312.67	4542.4	
312.88	4319.8	
313.09	2841.9	
313.3	2837.1	
313.51	5182.7	
313.71	5478.3	
313.92	2866.5	
314.13	3001.6	
314.34	4840	
314.55	4623.6	
314.76	3476.8	
314.96	3093.1	
315.17	4815.5	
315.38	4838.7	
315.59	2910.2	
315.8	2746.3	
316.01	5242.1	
316.21	5332.9	
316.42	2770.9	
316.63	3104	
316.84	4584.7	
317.05	5082.4	
317.26	3353.9	
317.46	3002.3	
317.67	4655.7	
317.88	4937	
318.09	3450.1	
318.3	2686.3	
318.5	4553.3	
318.71	4831.8	
318.92	4329.4	
319.13	3292.5	
319.34	5036.6	
319.54	5118.6	
319.75	2684.2	
319.96	2601.6	
320.17	4885.1	
320.38	5068	
320.58	2631	
320.79	3106.1	
321	5128.8	
321.21	5169.8	
321.42	3089.7	
321.62	2670.6	
321.83	4462.5	
322.04	4653.7	
322.25	3035.1	
322.46	2810.5	
322.66	4726.7	
322.87	4943.8	
323.08	3433.8	
323.29	2755.2	
323.5	5464.7	
323.7	4322.6	
323.91	3754.6	
324.12	3364.8	
324.33	4765.6	
324.53	4862.6	
324.74	3278.8	
324.95	3411.2	
325.16	4274.1	
325.37	4471.4	
325.57	2874	
325.78	2904	
325.99	4805.2	
326.2	4305.5	
326.4	3885	
326.61	2680.1	
326.82	4624.3	
327.03	4725.3	
327.24	3935.5	
327.44	3665.9	
327.65	4880.3	
327.86	4079.6	
328.07	3250.1	
328.27	2760	
328.48	5161.6	
328.69	4330.1	
328.9	3938.2	
329.1	3010.5	
329.31	4673.5	
329.52	5148.6	
329.73	2884.9	
329.93	3102.7	
330.14	4756.1	
330.35	4797	
330.56	4420.2	
330.76	3382.6	
330.97	4563.6	
331.18	4769.7	
331.39	3130	
331.59	2611.2	
331.8	5105.6	
332.01	5173.2	
332.22	2897.2	
332.42	3274	
332.63	4752	
332.84	4389.5	
333.05	3168.2	
333.25	2867.2	
333.46	4508.3	
333.67	4655.7	
333.88	2966.8	
334.08	3243.3	
334.29	5917.9	
334.5	5112.4	
334.7	2840.5	
334.91	3881.6	
335.12	4348.5	
335.33	4917.2	
335.53	3120.4	
335.74	4397.7	
335.95	4555.4	
336.16	4360.8	
336.36	3095.8	
336.57	3512.3	
336.78	4336.2	
336.98	5081.7	
337.19	3766.9	
337.4	3054.2	
337.61	5492.7	
337.81	4314.4	
338.02	2927.2	
338.23	3549.8	
338.43	5157.5	
338.64	4427	
338.85	2878.8	
339.05	3627.6	
339.26	5268.1	
339.47	4247.5	
339.68	2888.3	
339.88	4051.6	
340.09	4876.2	
340.3	5025.7	
340.5	3265.8	
340.71	2604.3	
340.92	4343.1	
341.13	5132.9	
341.33	2759.3	
341.54	3293.8	
341.75	4859.1	
341.95	4546.5	
342.16	3134.1	
342.37	3388	
342.57	4335.5	
342.78	4618.9	
342.99	3462.4	
343.19	2650.8	
343.4	4978.6	
343.61	4820.2	
343.81	3067.2	
344.02	2738.1	
344.23	4897.4	
344.43	5183.4	
344.64	3452.2	
344.85	3381.2	
345.06	4893.3	
345.26	5077.6	
345.47	3306.1	
345.68	3689.8	
345.88	4242	
346.09	4967.7	
346.3	3317.7	
346.5	2536.1	
346.71	4631.8	
346.92	4419.5	
347.12	2682.2	
347.33	3224.2	
347.54	4983.4	
347.74	5305.6	
347.95	3229.6	
348.16	2505.3	
348.36	4522.6	
348.57	4377.2	
348.78	3287	
348.98	3394.8	
349.19	4615.4	
349.39	4184	
349.6	2734.7	
349.81	2885.6	
350.01	4851	
350.22	4410.6	
350.43	3192.8	
350.63	3693.9	
350.84	4671.4	
351.05	4433.2	
351.25	2882.2	
351.46	2712.9	
351.67	4977.2	
351.87	4371	
352.08	3065.8	
352.29	3443.3	
352.49	5006.6	
352.7	5042.1	
352.9	2780.5	
353.11	3366.9	
353.32	5472.2	
353.52	4444.8	
353.73	2826.2	
353.94	3426.9	
354.14	4820.2	
354.35	4659.1	
354.55	2852.8	
354.76	3140.2	
354.97	4830.5	
355.17	4607.2	
355.38	2736.1	
355.59	3573	
355.79	4431.1	
356	4577.2	
356.2	3073.3	
356.41	2727.9	
356.62	4246.8	
356.82	4539	
357.03	3358	
357.24	2962	
357.44	4323.3	
357.65	4464.6	
357.85	3821.5	
358.06	3128.6	
358.27	4173.8	
358.47	4310.3	
358.68	2684.9	
358.88	3307.5	
359.09	4712.4	
359.3	5000.5	
359.5	3764.2	
359.71	3315.7	
359.91	5252.4	
360.12	4800.4	
360.33	3301.3	
360.53	3595.6	
360.74	4381.3	
360.94	4467.3	
361.15	3453.6	
361.36	2886.3	
361.56	4956.1	
361.77	4604.5	
361.97	3729.4	
362.18	2982.5	
362.38	4974.5	
362.59	4321.2	
362.8	2807.8	
363	2730.6	
363.21	4107.5	
363.41	4577.9	
363.62	3156.6	
363.83	3766.2	
364.03	4712.4	
364.24	5271.5	
364.44	3964.2	
364.65	3873.4	
364.85	4532.2	
365.06	4245.4	
365.27	2950.4	
365.47	2982.5	
365.68	5177.3	
365.88	4493.2	
366.09	3235.1	
366.29	2972.3	
366.5	4579.3	
366.71	4962.2	
366.91	3818.8	
367.12	3300	
367.32	5319.9	
367.53	4824.3	
367.73	3300.6	
367.94	3932.1	
368.14	4829.1	
368.35	5410.1	
368.56	3190.1	
368.76	2943.6	
368.97	4881.7	
369.17	5986.2	
369.38	2899.9	
369.58	3082.9	
369.79	4202.4	
369.99	5136.3	
370.2	3818.1	
370.4	3198.2	
370.61	4642.7	
370.82	5525.4	
371.02	3117	
371.23	2650.1	
371.43	4202.4	
371.64	5132.2	
371.84	3153.2	
372.05	3915	
372.25	5959.6	
372.46	4795	
372.66	3046.7	
372.87	3042.6	
373.07	4903.5	
373.28	6033.3	
373.48	3793.5	
373.69	3564.8	
373.9	4549.9	
374.1	4537.6	
374.31	3785.3	
374.51	3411.2	
374.72	5036	
374.92	4311.7	
375.13	3803.8	
375.33	3219.4	
375.54	4747.2	
375.74	4417.5	
375.95	3360.7	
376.15	4141	
376.36	4878.9	
376.56	4678.9	
376.77	3351.2	
376.97	3667.9	
377.18	5575.9	
377.38	4841.4	
377.59	3821.5	
377.79	3042.6	
378	4691.2	
378.2	4909.7	
378.41	3041.2	
378.61	2950.4	
378.82	5045.5	
379.02	4451.6	
379.23	3145	
379.43	3902.7	
379.64	5171.1	
379.84	4754.7	
380.05	3072.6	
380.25	2964.1	
380.46	4838	
380.66	4571.1	
380.87	3926.6	
381.07	4203.1	
381.28	5344.5	
381.48	4874.8	
381.69	3089.7	
381.89	3060.3	
382.1	4218.1	
382.3	4913.1	
382.51	3809.2	
382.71	4415.4	
382.91	4855.1	
383.12	5222.3	
383.32	3270.6	
383.53	3455.6	
383.73	4805.2	
383.94	4707.6	
384.14	3445.4	
384.35	2852.8	
384.55	4584	
384.76	4810	
384.96	3279.5	
385.17	3474.7	
385.37	4846.2	
385.58	4357.4	
385.78	3508.9	
385.98	2815.3	
386.19	4524.6	
386.39	4796.3	
386.6	3087	
386.8	3302	
387.01	4851.6	
387.21	4963.6	
387.42	3583.9	
387.62	3909.6	
387.83	4436.6	
388.03	4730.1	
388.23	3327.3	
388.44	3906.2	
388.64	4224.3	
388.85	4209.9	
389.05	3541.6	
389.26	3977.2	
389.46	5657.9	
389.67	5214.1	
389.87	3521.8	
390.07	3545	
390.28	4536.9	
390.48	4271.4	
390.69	2991.4	
390.89	3216.7	
391.1	4518.5	
391.3	5040.7	
391.5	4088.4	
391.71	4410	
391.91	4930.8	
392.12	5534.3	
392.32	4089.1	
392.53	3489.7	
392.73	4511	
392.93	4627	
393.14	3307.5	
393.34	3861.8	
393.55	4997	
393.75	4549.9	
393.95	3332.7	
394.16	3295.2	
394.36	4485.7	
394.57	4945.2	
394.77	3024.2	
394.98	3226.2	
395.18	4422.9	
395.38	4453	
395.59	3857	
395.79	3165.5	
396	4481.6	
396.2	4834.6	
396.4	3667.2	
396.61	3656.3	
396.81	4966.3	
397.02	4405.2	
397.22	3847.5	
397.42	3836.5	
397.63	4924.7	
397.83	4349.2	
398.04	3082.9	
398.24	3353.2	
398.44	4751.3	
398.65	4036.5	
398.85	2973.7	
399.05	3011.9	
399.26	4421.6	
399.46	5526.1	
399.67	3289	
399.87	3136.1	
400.07	4627.7	
400.28	4876.2	
400.48	3082.2	
400.69	3844.7	
400.89	5018.9	
401.09	5286.5	
401.3	3031.7	
401.5	3838.6	
401.7	5428.5	
401.91	5606	
402.11	3422.2	
402.32	3515.7	
402.52	5035.3	
402.72	4982.7	
402.93	3675.4	
403.13	2884.9	
403.33	5626.5	
403.54	4659.8	
403.74	3486.3	
403.94	4046.8	
404.15	4745.8	
404.35	5527.5	
404.56	3295.2	
404.76	4485.1	
404.96	4986.1	
405.17	4830.5	
405.37	4018.8	
405.57	3580.5	
405.78	4974.5	
405.98	4661.2	
406.18	3265.1	
406.39	3845.4	
406.59	5059.2	
406.79	4635.2	
407	3155.9	
407.2	3213.9	
407.4	5234.6	
407.61	5088.5	
407.81	3237.2	
408.01	4341.7	
408.22	4203.1	
408.42	5603.9	
408.62	3915.7	
408.83	3476.1	
409.03	4678.2	
409.23	4567.7	
409.44	3528	
409.64	3665.9	
409.84	5337.7	
410.05	5225.1	
410.25	3693.9	
410.45	3513.6	
410.66	4906.9	
410.86	6578.8	
411.06	3747.8	
411.27	3653.6	
411.47	6349.4	
411.67	4930.1	
411.88	3811.3	
412.08	3960.1	
412.28	5405.3	
412.49	5735	
412.69	3586	
412.89	3653.6	
413.09	5611.4	
413.3	5495.4	
413.5	3758	
413.7	3447.4	
413.91	5028.4	
414.11	5570.5	
414.31	3570.3	
414.52	3812.6	
414.72	5347.9	
414.92	5230.5	
415.12	3573.7	
415.33	3928	
415.53	5496.7	
415.73	5618.9	
415.94	4181.3	
416.14	3710.9	
416.34	4838.7	
416.55	4618.2	
416.75	4590.2	
416.95	4203.8	
417.15	5539.1	
417.36	6046.3	
417.56	4717.8	
417.76	4043.4	
417.97	5762.3	
418.17	5517.9	
418.37	3827.7	
418.57	3807.2	
418.78	5530.9	
418.98	5188.2	
419.18	4405.2	
419.38	4392.2	
419.59	5153.4	
419.79	4944.5	
419.99	3801.7	
420.2	3913	
420.4	5588.9	
420.6	5647.6	
420.8	3678.8	
421.01	3557.3	
421.21	5449.6	
421.41	5480.4	
421.61	3979.9	
421.82	3752.6	
422.02	5173.9	
422.22	5779.4	
422.42	4306.9	
422.63	4123.9	
422.83	5214.1	
423.03	6015.6	
423.23	4108.2	
423.44	3364.8	
423.64	5169.8	
423.84	5036	
424.04	3715.7	
424.25	3445.4	
424.45	5956.2	
424.65	5802.6	
424.85	3375.1	
425.06	3735.5	
425.26	6018.3	
425.46	5154.1	
425.66	4121.2	
425.87	3872.7	
426.07	5722	
426.27	5545.9	
426.47	4001	
426.67	3549.1	
426.88	5986.2	
427.08	5563.6	
427.28	4245.4	
427.48	3489.1	
427.69	4833.2	
427.89	5233.2	
428.09	4089.1	
428.29	3543.7	
428.5	5677.7	
428.7	5440.8	
428.9	3457	
429.1	3780.6	
429.3	5394.3	
429.51	5550.7	
429.71	3760.1	
429.91	4249.5	
430.11	5568.4	
430.31	5705	
430.52	3882.9	
430.72	4031.1	
430.92	5958.2	
431.12	5549.3	
431.32	3620.8	
431.53	3927.3	
431.73	4877.6	
431.93	5967.8	
432.13	3609.9	
432.33	3499.3	
432.54	5197.1	
432.74	5394.3	
432.94	3433.8	
433.14	4239.3	
433.34	5697.4	
433.55	5252.4	
433.75	4174.4	
433.95	5332.2	
434.15	5417.6	
434.35	5167	
434.56	3647.4	
434.76	3216	
434.96	5367.7	
435.16	5611.4	
435.36	3510.9	
435.56	4359.4	
435.77	5114.5	
435.97	5253	
436.17	4731.5	
436.37	4214	
436.57	5083.1	
436.78	5003.2	
436.98	5454.4	
437.18	4707.6	
437.38	5510.4	
437.58	5279.7	
437.78	4737.6	
437.99	3835.8	
438.19	5664	
438.39	6201.2	
438.59	3826.3	
438.79	3448.8	
438.99	6116.6	
439.2	5188.2	
439.4	3521.1	
439.6	3463.8	
439.8	5458.5	
440	6169.2	
440.2	4206.5	
440.4	4238.6	
440.61	5779.4	
440.81	6047	
441.01	3612.6	
441.21	4220.2	
441.41	6021	
441.61	5722.7	
441.81	4423.6	
442.02	5123.3	
442.22	6308.4	
442.42	5825.8	
442.62	3677.5	
442.82	3790.1	
443.02	6068.1	
443.22	5421	
443.43	4014	
443.63	3629	
443.83	5301.5	
444.03	5317.2	
444.23	4507.6	
444.43	4224.3	
444.63	5526.1	
444.83	6351.4	
445.04	3818.1	
445.24	4677.6	
445.44	5849.7	
445.64	5827.2	
445.84	4278.2	
446.04	4236.6	
446.24	5404.6	
446.44	6012.8	
446.65	3764.2	
446.85	4030.4	
447.05	5612.1	
447.25	6024.4	
447.45	4204.5	
447.65	3631.7	
447.85	5603.9	
448.05	5301.5	
448.25	4431.1	
448.46	4222.2	
448.66	5572.5	
448.86	5348.6	
449.06	3612.6	
449.26	4375.8	
449.46	5810.8	
449.66	5188.2	
449.86	4098	
450.06	3976.5	
450.26	5298.8	
450.47	5648.3	
450.67	4265.9	
450.87	4474.8	
451.07	5880.4	
451.27	5670.8	
451.47	3740.3	
451.67	4324.6	
451.87	5385.5	
452.07	6217	
452.27	3950.5	
452.47	3904.8	
452.67	5660.6	
452.88	5867.4	
453.08	3507.5	
453.28	4784.1	
453.48	6472.9	
453.68	5532.2	
453.88	3783.3	
454.08	3979.2	
454.28	5808	
454.48	5590.3	
454.68	4376.5	
454.88	4665.3	
455.08	5966.4	
455.28	5591	
455.48	3754.6	
455.68	4208.6	
455.89	6268.8	
456.09	5985.5	
456.29	3977.8	
456.49	4004.5	
456.69	6165.1	
456.89	5591.6	
457.09	4308.9	
457.29	4650.9	
457.49	5881.8	
457.69	5961.6	
457.89	4249.5	
458.09	3786.7	
458.29	5732.3	
458.49	6225.8	
458.69	4571.7	
458.89	4082.3	
459.09	6337.8	
459.29	6427.2	
459.49	4251.6	
459.69	4715.8	
459.9	5996.5	
460.1	5636.7	
460.3	4141.7	
460.5	3953.3	
460.7	5982.8	
460.9	5662	
461.1	3739.6	
461.3	4588.8	
461.5	6464.1	
461.7	6117.3	
461.9	3973.1	
462.1	4315.1	
462.3	5842.2	
462.5	6198.5	
462.7	4060.4	
462.9	4095.3	
463.1	6938.5	
463.3	6617	
463.5	4214	
463.7	4935.6	
463.9	5908.4	
464.1	6178.7	
464.3	4308.9	
464.5	4478.9	
464.7	6328.9	
464.9	6039.5	
465.1	5405.3	
465.3	4702.8	
465.5	6593.1	
465.7	6612.2	
465.9	4919.9	
466.1	4793.6	
466.3	6393.8	
466.5	6322.8	
466.7	5403.9	
466.9	4642.7	
467.1	6371.2	
467.3	6961.7	
467.5	5340.4	
467.7	4526.7	
467.9	7111.2	
468.1	7571.3	
468.3	5051.7	
468.5	5319.3	
468.7	6234	
468.9	6238.1	
469.1	4830.5	
469.3	5245.5	
469.5	7623.9	
469.7	5954.1	
469.9	5172.5	
470.1	4575.8	
470.3	6346	
470.5	6371.9	
470.7	5560.2	
470.9	4666.6	
471.1	6143.2	
471.3	6513.9	
471.5	4526	
471.69	5853.1	
471.89	6124.1	
472.09	5763.7	
472.29	5057.1	
472.49	5379.3	
472.69	5911.1	
472.89	6367.1	
473.09	4527.4	
473.29	4633.2	
473.49	6096.1	
473.69	6071.5	
473.89	5205.9	
474.09	4749.2	
474.29	7146	
474.49	6741.2	
474.69	5261.9	
474.89	4803.9	
475.09	6148	
475.29	6087.2	
475.49	4421.6	
475.69	4618.2	
475.88	7278.5	
476.08	6458.6	
476.28	4328.7	
476.48	4632.5	
476.68	6739.2	
476.88	6559	
477.08	4626.4	
477.28	4769.7	
477.48	6265.4	
477.68	6621.8	
477.88	4453.6	
478.08	4662.5	
478.28	6951.5	
478.48	6291.4	
478.67	4743.8	
478.87	4357.4	
479.07	6774	
479.27	6414.9	
479.47	4835.9	
479.67	4943.8	
479.87	6637.5	
480.07	6935.1	
480.27	4376.5	
480.47	5444.9	
480.67	6312.5	
480.87	6832.7	
481.06	4599.7	
481.26	5167	
481.46	6460	
481.66	6306.4	
481.86	5003.2	
482.06	5608	
482.26	6180.8	
482.46	6791.7	
482.66	4855.7	
482.86	4535.6	
483.05	6540.5	
483.25	5941.8	
483.45	6607.4	
483.65	4781.3	
483.85	6027.9	
484.05	6404	
484.25	5183.4	
484.45	5393.7	
484.65	6853.2	
484.84	6896.2	
485.04	4805.9	
485.24	4827.7	
485.44	7101.7	
485.64	5946.6	
485.84	4268	
486.04	5219.6	
486.24	6237.4	
486.44	6412.2	
486.63	4250.2	
486.83	4831.2	
487.03	6180.8	
487.23	6283.2	
487.43	4388.8	
487.63	5915.9	
487.83	6328.9	
488.02	6797.2	
488.22	5038.7	
488.42	5419.6	
488.62	6965.8	
488.82	6129.6	
489.02	4810.7	
489.22	4787.5	
489.41	6840.9	
489.61	6605.4	
489.81	4508.9	
490.01	4580.6	
490.21	6802.7	
490.41	7223.9	
490.61	4541	
490.8	4700.1	
491	6367.1	
491.2	6048.3	
491.4	5102.9	
491.6	4542.4	
491.8	6526.2	
491.99	6481.1	
492.19	4358.8	
492.39	4645.5	
492.59	6795.8	
492.79	6886	
492.99	5149.3	
493.18	4623.6	
493.38	6933.7	
493.58	7357	
493.78	5066.7	
493.98	4732.2	
494.18	6655.2	
494.37	6265.4	
494.57	5208.7	
494.77	5076.2	
494.97	6763.8	
495.17	6907.8	
495.37	4889.2	
495.56	5127.4	
495.76	7124.9	
495.96	6832	
496.16	5727.5	
496.36	4931.5	
496.55	7003.4	
496.75	6677.7	
496.95	5221	
497.15	5203.9	
497.35	7110.5	
497.54	6894.8	
497.74	5085.1	
497.94	6279.1	
498.14	7561.8	
498.34	7322.9	
498.53	4793.6	
498.73	5387.5	
498.93	6496.2	
499.13	6944.7	
499.33	5218.2	
499.52	5476.3	
499.72	7008.1	
499.92	7073	
500.12	4986.8	
500.32	5202.5	
500.51	7118.7	
500.71	6962.4	
500.91	5739.8	
501.11	5421	
501.31	7107.1	
501.5	7460.8	
501.7	6022.4	
501.9	5244.2	
502.1	7001.3	
502.29	7220.5	
502.49	5603.2	
502.69	5891.3	
502.89	7089.4	
503.09	7081.9	
503.28	4942.4	
503.48	5073.5	
503.68	6718	
503.88	6558.3	
504.07	5688.6	
504.27	5412.1	
504.47	6939.9	
504.67	7043	
504.86	5653.8	
505.06	5399.8	
505.26	6740.5	
505.46	7935.2	
505.65	5339.1	
505.85	5531.6	
506.05	6768.5	
506.25	7094.8	
506.44	4939.7	
506.64	5481	
506.84	6647.7	
507.04	7192.5	
507.23	5052.3	
507.43	5485.1	
507.63	7999.4	
507.83	6748.1	
508.02	5485.1	
508.22	5248.9	
508.42	8256	
508.62	6668.2	
508.81	5336.3	
509.01	5702.2	
509.21	6600.6	
509.4	6841.6	
509.6	5607.3	
509.8	5122.7	
510	6754.9	
510.19	7608.9	
510.39	5038	
510.59	5222.3	
510.79	6643.6	
510.98	7606.2	
511.18	5313.1	
511.38	5260.5	
511.57	7395.9	
511.77	6987	
511.97	5735.7	
512.17	5151.3	
512.36	7337.9	
512.56	7167.2	
512.76	5134.9	
512.95	4932.9	
513.15	7461.4	
513.35	6338.5	
513.55	5717.2	
513.74	5099.4	
513.94	7249.8	
514.14	6890	
514.33	5833.3	
514.53	5608	
514.73	6879.8	
514.92	6977.4	
515.12	5265.3	
515.32	5109	
515.51	7006.8	
515.71	7333.1	
515.91	6486.6	
516.11	5227.8	
516.3	8277.2	
516.5	6796.5	
516.7	5659.2	
516.89	5989.6	
517.09	6972	
517.29	6880.5	
517.48	5831.9	
517.68	5451	
517.88	6696.2	
518.07	7187.7	
518.27	5889.3	
518.47	5193	
518.66	7581.6	
518.86	6690.7	
519.06	5023.7	
519.25	5285.1	
519.45	6862.7	
519.65	8011	
519.84	5795.8	
520.04	6303.6	
520.24	8238.3	
520.43	7398.6	
520.63	5681.1	
520.83	5513.8	
521.02	6928.3	
521.22	7324.2	
521.42	5825.8	
521.61	6204	
521.81	7086	
522.01	7211.6	
522.2	5793.7	
522.4	5661.3	
522.6	7572	
522.79	6649.8	
522.99	5717.9	
523.18	5262.6	
523.38	7349.5	
523.58	7283.9	
523.77	6610.8	
523.97	5265.3	
524.17	8714.8	
524.36	8103.1	
524.56	6271.6	
524.76	6015.6	
524.95	7378.8	
525.15	7149.5	
525.34	5859.9	
525.54	5847	
525.74	7744.1	
525.93	7046.4	
526.13	6798.6	
526.33	5943.9	
526.52	8019.8	
526.72	7606.8	
526.91	6805.4	
527.11	6376	
527.31	8047.8	
527.5	8313.4	
527.7	6230.6	
527.89	5638.1	
528.09	7392.5	
528.29	7717.4	
528.48	6649.1	
528.68	6288.6	
528.87	8001.4	
529.07	8110	
529.27	6329.6	
529.46	6049	
529.66	7921.5	
529.85	8126.3	
530.05	5996.5	
530.25	6545.3	
530.44	8914.8	
530.64	7826	
530.83	6250.4	
531.03	6448.4	
531.23	8292.9	
531.42	8075.8	
531.62	6966.5	
531.81	6430.6	
532.01	8400.8	
532.21	8521.6	
532.4	6296.8	
532.6	6554.2	
532.79	8987.2	
532.99	8453.3	
533.18	6577.4	
533.38	7327.6	
533.58	8191.9	
533.77	8644.5	
533.97	6691.4	
534.16	7206.8	
534.36	8933.2	
534.55	8226.7	
534.75	7434.8	
534.95	6788.3	
535.14	8865.7	
535.34	8213.7	
535.53	6460	
535.73	7888.1	
535.92	9308	
536.12	8363.9	
536.31	6674.3	
536.51	7415.7	
536.71	8669.7	
536.9	8232.2	
537.1	6737.1	
537.29	6842.3	
537.49	8905.9	
537.68	8192.6	
537.88	7182.9	
538.07	6607.4	
538.27	8442.4	
538.46	9128.5	
538.66	6554.2	
538.86	6789.7	
539.05	8507.9	
539.25	8815.8	
539.44	7031.4	
539.64	6787	
539.83	8477.2	
540.03	9212.4	
540.22	6680.5	
540.42	6781.5	
540.61	8593.3	
540.81	8581	
541	7151.5	
541.2	7579.5	
541.39	8215.1	
541.59	8461.5	
541.78	7362.4	
541.98	6827.2	
542.18	8085.4	
542.37	8060.1	
542.57	6956.3	
542.76	7298.3	
542.96	8082.7	
543.15	8550.3	
543.35	7096.2	
543.54	6538.5	
543.74	8716.8	
543.93	8482.7	
544.13	6990.4	
544.32	7767.9	
544.52	8684.8	
544.71	8137.9	
544.91	6281.1	
545.1	7204.8	
545.3	8131.1	
545.49	8697	
545.69	6313.9	
545.88	6752.2	
546.08	9355.1	
546.27	8888.2	
546.47	7135.1	
546.66	6661.4	
546.86	8736	
547.05	9026.1	
547.24	6769.2	
547.44	6678.4	
547.63	8013	
547.83	8727.1	
548.02	6966.5	
548.22	7150.1	
548.41	7880.6	
548.61	8945.5	
548.8	6655.9	
549	6582.2	
549.19	8507.9	
549.39	8677.9	
549.58	6361.7	
549.78	6842.3	
549.97	8742.1	
550.17	8287.4	
550.36	7406.1	
550.55	8066.3	
550.75	8285.4	
550.94	8913.4	
551.14	6539.2	
551.33	6797.2	
551.53	7813	
551.72	8565.3	
551.92	6761.7	
552.11	6647	
552.31	8639	
552.5	8572.1	
552.69	7864.9	
552.89	6440.2	
553.08	8480.6	
553.28	8284	
553.47	6679.1	
553.67	7476.5	
553.86	8929.8	
554.06	7744.7	
554.25	6124.1	
554.44	6536.4	
554.64	9495.1	
554.83	9155.8	
555.03	6543.3	
555.22	6832.7	
555.42	8763.3	
555.61	8440.4	
555.8	6630	
556	6807.4	
556.19	7865.6	
556.39	8659.5	
556.58	6657.9	
556.78	6757.6	
556.97	8416.5	
557.16	8141.4	
557.36	7525.6	
557.55	6442.2	
557.75	7697.6	
557.94	8899.1	
558.13	6484.6	
558.33	6317.3	
558.52	8798.8	
558.72	7983.7	
558.91	6445.6	
559.1	6549.4	
559.3	7740	
559.49	7596.6	
559.69	6152.8	
559.88	6737.1	
560.07	8364.6	
560.27	8619.9	
560.46	6862.1	
560.66	7073.7	
560.85	8217.1	
561.04	7621.9	
561.24	6331	
561.43	6459.3	
561.63	7759.1	
561.82	8020.5	
562.01	7323.5	
562.21	6666.1	
562.4	8257.4	
562.59	8832.2	
562.79	6548	
562.98	6354.2	
563.18	8201.4	
563.37	9159.9	
563.56	6880.5	
563.76	6316.6	
563.95	7849.2	
564.14	7752.2	
564.34	6576.7	
564.53	6435.4	
564.73	8278.6	
564.92	8405.5	
565.11	6639.5	
565.31	6235.4	
565.5	8625.4	
565.69	7696.3	
565.89	6433.4	
566.08	6596.5	
566.27	8516.1	
566.47	8775.5	
566.66	7059.3	
566.85	6068.8	
567.05	8301.8	
567.24	7843	
567.44	6351.4	
567.63	7276.4	
567.82	8409.6	
568.02	8065.6	
568.21	6270.9	
568.4	6592.4	
568.6	8138.6	
568.79	8054.7	
568.98	6294.1	
569.18	6262.7	
569.37	8099	
569.56	9460.9	
569.76	6595.8	
569.95	7301	
570.14	8316.1	
570.34	8188.5	
570.53	6199.2	
570.72	6225.8	
570.91	8780.3	
571.11	8059.4	
571.3	6642.9	
571.49	7252.5	
571.69	8196.7	
571.88	7748.1	
572.07	6923.5	
572.27	6874.3	
572.46	7758.4	
572.65	8397.4	
572.85	6397.2	
573.04	6578.1	
573.23	8590.5	
573.43	8108.6	
573.62	6272.2	
573.81	6608.1	
574	8208.3	
574.2	7952.9	
574.39	6470.2	
574.58	6478.4	
574.78	8784.4	
574.97	8134.5	
575.16	6868.2	
575.36	6949.4	
575.55	8630.8	
575.74	8499.8	
575.93	6159.6	
576.13	6957.6	
576.32	8052.6	
576.51	8443.1	
576.71	6567.8	
576.9	7403.4	
577.09	8688.8	
577.28	8275.2	
577.48	6787.7	
577.67	6099.5	
577.86	8071	
578.05	8221.9	
578.25	6737.8	
578.44	6634.7	
578.63	8138.6	
578.83	8974.2	
579.02	6186.2	
579.21	7241.6	
579.4	8213	
579.6	8127	
579.79	6718	
579.98	8171.4	
580.17	8497	
580.37	8587.1	
580.56	6292	
580.75	6879.1	
580.94	8752.3	
581.14	8724.3	
581.33	7114.6	
581.52	6364.4	
581.71	8348.2	
581.91	8875.2	
582.1	6147.3	
582.29	6604.7	
582.48	8159.1	
582.68	8073.8	
582.87	6892.1	
583.06	6608.8	
583.25	8411	
583.45	8170	
583.64	7019.1	
583.83	7491.5	
584.02	8058.1	
584.21	8332.5	
584.41	7071	
584.6	6617.7	
584.79	8073.8	
584.98	8628.8	
585.18	6178.7	
585.37	6161.7	
585.56	7890.8	
585.75	8399.4	
585.94	6386.2	
586.14	6796.5	
586.33	8790.6	
586.52	8106.5	
586.71	6663.4	
586.91	6529.6	
587.1	7611.6	
587.29	8412.4	
587.48	6494.1	
587.67	6316.6	
587.87	8307.9	
588.06	8187.8	
588.25	7363.1	
588.44	6786.3	
588.63	7946.8	
588.83	8386.4	
589.02	6398.5	
589.21	6298.9	
589.4	7995.3	
589.59	7847.8	
589.78	5773.2	
589.98	5900.9	
590.17	7499	
590.36	7763.8	
590.55	5530.2	
590.74	6118.6	
590.94	8684.8	
591.13	7700.4	
591.32	5927.5	
591.51	5575.3	
591.7	7981.6	
591.89	7638.2	
592.09	5629.2	
592.28	5924.8	
592.47	7109.2	
592.66	8464.9	
592.85	5648.3	
593.05	5816.2	
593.24	7542	
593.43	8165.9	
593.62	5961	
593.81	6308.4	
594	7605.5	
594.19	7748.1	
594.39	5836.7	
594.58	5756.2	
594.77	7881.3	
594.96	8187.1	
595.15	5758.2	
595.34	6206	
595.54	7753.6	
595.73	7252.5	
595.92	5311.1	
596.11	6145.3	
596.3	8152.3	
596.49	7261.4	
596.68	6021	
596.88	6188.3	
597.07	7911.3	
597.26	7141.3	
597.45	5647.6	
597.64	6398.5	
597.83	7274.4	
598.02	7744.1	
598.22	5700.9	
598.41	6109.1	
598.6	7590.5	
598.79	7139.2	
598.98	5685.2	
599.17	6193.1	
599.36	7623.9	
599.55	8346.2	
599.74	7034.8	
599.94	6862.7	
600.13	7967.3	
600.32	7121.5	
600.51	5497.4	
600.7	5511.1	
600.89	8338	
601.08	8381	
601.27	5389.6	
601.47	6058.6	
601.66	7871.7	
601.85	8286.8	
602.04	5870.2	
602.23	5909.1	
602.42	7226.6	
602.61	7626	
602.8	5832.6	
602.99	5671.5	
603.18	7517.4	
603.37	7530.4	
603.57	6057.2	
603.76	6507.1	
603.95	8096.3	
604.14	7780.9	
604.33	5747.3	
604.52	5895.4	
604.71	7649.2	
604.9	7251.2	
605.09	6312.5	
605.28	6127.5	
605.47	8030.1	
605.66	7635.5	
605.86	6111.1	
606.05	5719.3	
606.24	7940.7	
606.43	6929	
606.62	5960.3	
606.81	6312.5	
607	7825.3	
607.19	7330.4	
607.38	5515.2	
607.57	5633.3	
607.76	7152.9	
607.95	6739.9	
608.14	6032	
608.33	6386.9	
608.52	7185.6	
608.72	7703.1	
608.91	5414.8	
609.1	5380.7	
609.29	7274.4	
609.48	6836.1	
609.67	6081.1	
609.86	5422.3	
610.05	7021.8	
610.24	7208.8	
610.43	5369.1	
610.62	5012.1	
610.81	7932.5	
611	7757.7	
611.19	5421	
611.38	5868.8	
611.57	7440.3	
611.76	8278.6	
611.95	5205.9	
612.14	5126.7	
612.33	7210.2	
612.52	6898.2	
612.71	5601.9	
612.9	5091.9	
613.09	6638.8	
613.28	8413.1	
613.47	5556.8	
613.66	6092.7	
613.85	7361.8	
614.04	6950.8	
614.24	5509	
614.43	4926.7	
614.62	7393.2	
614.81	7344.7	
615	5814.9	
615.19	5829.2	
615.38	6913.3	
615.57	7170.6	
615.76	5773.2	
615.95	6335.1	
616.14	7500.3	
616.33	7204.8	
616.52	5894.7	
616.71	6020.3	
616.9	7429.3	
617.09	7160.4	
617.28	5511.1	
617.47	6331.6	
617.66	6825.9	
617.85	6839.5	
618.04	6163.7	
618.22	5729.5	
618.41	6994.5	
618.6	7703.8	
618.79	5664.7	
618.98	5530.2	
619.17	7916.1	
619.36	6591	
619.55	5569.1	
619.74	5672.9	
619.93	7382.2	
620.12	6972	
620.31	5997.8	
620.5	6189	
620.69	7720.2	
620.88	8030.8	
621.07	6531.7	
621.26	5955.5	
621.45	7531.1	
621.64	7479.9	
621.83	6050.4	
622.02	5479	
622.21	7595.9	
622.4	7317.4	
622.59	6347.3	
622.78	6305.7	
622.97	7128.3	
623.16	7694.9	
623.35	6053.8	
623.54	5363.6	
623.72	7224.6	
623.91	7354.9	
624.1	6221	
624.29	5301.5	
624.48	8031.5	
624.67	7531.7	
624.86	6100.2	
625.05	5498.8	
625.24	8221.2	
625.43	7047.7	
625.62	7258	
625.81	5563	
626	7783	
626.19	7301	
626.38	6034.7	
626.56	5710.4	
626.75	7178.8	
626.94	7610.3	
627.13	6111.8	
627.32	5292	
627.51	7679.2	
627.7	8344.1	
627.89	5385.5	
628.08	6234	
628.27	7053.9	
628.46	7232.7	
628.65	5605.3	
628.83	5334.3	
629.02	7609.6	
629.21	6988.4	
629.4	5909.8	
629.59	5963	
629.78	7043.6	
629.97	7646.4	
630.16	6049.7	
630.35	5728.2	
630.54	8115.4	
630.72	7836.2	
630.91	5660.6	
631.1	6050.4	
631.29	7437.5	
631.48	7507.2	
631.67	6091.3	
631.86	5718.6	
632.05	7236.8	
632.24	7257.3	
632.42	5555.5	
632.61	5880.4	
632.8	7252.5	
632.99	6950.1	
633.18	5938.4	
633.37	6176	
633.56	7488.1	
633.75	7329	
633.93	5939.8	
634.12	5706.3	
634.31	7994.6	
634.5	7718.8	
634.69	5789.6	
634.88	6127.5	
635.07	7254.6	
635.25	7749.5	
635.44	6354.2	
635.63	6489.3	
635.82	7252.5	
636.01	6759.7	
636.2	6279.8	
636.39	6023.8	
636.57	8078.6	
636.76	7576.1	
636.95	5610.1	
637.14	6535.8	
637.33	7591.8	
637.52	8029.4	
637.7	5416.2	
637.89	6187.6	
638.08	7280.5	
638.27	8132.5	
638.46	6141.9	
638.65	6440.9	
638.83	8153	
639.02	7051.2	
639.21	6084.5	
639.4	6345.3	
639.59	7386.3	
639.78	7116	
639.96	5508.4	
640.15	5511.1	
640.34	7254.6	
640.53	7283.9	
640.72	5387.5	
640.91	5573.9	
641.09	6810.9	
641.28	7747.5	
641.47	5615.5	
641.66	6157.6	
641.85	7365.9	
642.03	7480.5	
642.22	5899.5	
642.41	5518.6	
642.6	6811.5	
642.79	6533.7	
642.97	5390.9	
643.16	5906.3	
643.35	6857.3	
643.54	6690	
643.73	5407.3	
643.91	5947.3	
644.1	6707.1	
644.29	7056.6	
644.48	5359.5	
644.67	5419.6	
644.85	6709.8	
645.04	7038.2	
645.23	5139.7	
645.42	5364.3	
645.6	6634.7	
645.79	7486	
645.98	5272.8	
646.17	4648.2	
646.36	6481.8	
646.54	6830.7	
646.73	5808	
646.92	5020.3	
647.11	6554.2	
647.29	7281.2	
647.48	5011.4	
647.67	4857.8	
647.86	7491.5	
648.05	7369.3	
648.23	5231.9	
648.42	6133	
648.61	7062.1	
648.8	6777.4	
648.98	4930.8	
649.17	5236.7	
649.36	6525.5	
649.55	6192.4	
649.73	5025.7	
649.92	5557.5	
650.11	6442.2	
650.3	6631.3	
650.48	5096.7	
650.67	4981.3	
650.86	6837.5	
651.05	6019.7	
651.23	5068.7	
651.42	5048.2	
651.61	6520	
651.79	6411.5	
651.98	5191.6	
652.17	4885.1	
652.36	6784.2	
652.54	6115.9	
652.73	4930.1	
652.92	4863.9	
653.11	6763.8	
653.29	6907.1	
653.48	4444.8	
653.67	5137.7	
653.85	6585.6	
654.04	7285.3	
654.23	5251	
654.42	4942.4	
654.6	6287.9	
654.79	6647	
654.98	4626.4	
655.16	4982.7	
655.35	6008.7	
655.54	5756.2	
655.73	4599.7	
655.91	4607.9	
656.1	6627.9	
656.29	5793	
656.47	4290.5	
656.66	5423.7	
656.85	6168.5	
657.03	6062.7	
657.22	4600.4	
657.41	4682.3	
657.59	6107	
657.78	5958.2	
657.97	4421.6	
658.16	4951.3	
658.34	6631.3	
658.53	6894.1	
658.72	5566.4	
658.9	5840.8	
659.09	6347.3	
659.28	6294.8	
659.46	4773.1	
659.65	4690.5	
659.84	6053.1	
660.02	6505	
660.21	4758.8	
660.4	4564.9	
660.58	6714.6	
660.77	6163.7	
660.96	5017.5	
661.14	4332.1	
661.33	7094.2	
661.52	6967.2	
661.7	4279.6	
661.89	6746.7	
662.08	5961.6	
662.26	5598.5	
662.45	4550.6	
662.64	4629.8	
662.82	6480.5	
663.01	5849	
663.2	4539.7	
663.38	5127.4	
663.57	6351.4	
663.75	6264.1	
663.94	4800.4	
664.13	5646.9	
664.31	6008.1	
664.5	6428.6	
664.69	5107.6	
664.87	5238	
665.06	5743.9	
665.25	6236.7	
665.43	5479.7	
665.62	5471.5	
665.8	6438.1	
665.99	5977.3	
666.18	4783.4	
666.36	4797	
666.55	6505.7	
666.74	6378.1	
666.92	4579.3	
667.11	5581.4	
667.29	5990.3	
667.48	6429.9	
667.67	5343.8	
667.85	4650.3	
668.04	6023.8	
668.22	5996.5	
668.41	4773.1	
668.6	4992.3	
668.78	5801.9	
668.97	6009.4	
669.15	4995.7	
669.34	4314.4	
669.53	5892	
669.71	6115.9	
669.9	4364.2	
670.08	4880.3	
670.27	5795.8	
670.46	6272.9	
670.64	5029.8	
670.83	5246.2	
671.01	5733.6	
671.2	6088.6	
671.38	4505.5	
671.57	4374.5	
671.76	6623.1	
671.94	6924.9	
672.13	4210.6	
672.31	5117.9	
672.5	6354.8	
672.69	5866.7	
672.87	4509.6	
673.06	4747.2	
673.24	6205.3	
673.43	5862.7	
673.61	4960.9	
673.8	4655	
673.98	6269.5	
674.17	6386.2	
674.36	5081	
674.54	5010.7	
674.73	6040.8	
674.91	6367.1	
675.1	4728.8	
675.28	4455.7	
675.47	5973.2	
675.65	6310.5	
675.84	4686.4	
676.03	4809.3	
676.21	5939.8	
676.4	5503.6	
676.58	5265.3	
676.77	5045.5	
676.95	6904.4	
677.14	5868.1	
677.32	4430.4	
677.51	4318.5	
677.69	6456.6	
677.88	5687.9	
678.06	4378.6	
678.25	4436.6	
678.44	6049.7	
678.62	5843.5	
678.81	4283	
678.99	4866	
679.18	6554.2	
679.36	6259.3	
679.55	4678.9	
679.73	5068	
679.92	6249	
680.1	5879.7	
680.29	5456.5	
680.47	4588.1	
680.66	5864	
680.84	6401.3	
681.03	4207.2	
681.21	4885.8	
681.4	5875.6	
681.58	5757.5	
681.77	4471.4	
681.95	4470	
682.14	6476.4	
682.32	6617	
682.51	5189.6	
682.69	4347.8	
682.88	5822.4	
683.06	6227.2	
683.25	4917.9	
683.43	5240.8	
683.62	6106.4	
683.8	6421.1	
683.99	5349.3	
684.17	4869.4	
684.36	6886.6	
684.54	6041.5	
684.73	4327.4	
684.91	4468.7	
685.1	6251.8	
685.28	5838.1	
685.46	4816.1	
685.65	4875.5	
685.83	6376.7	
686.02	5958.2	
686.2	4478.9	
686.39	4604.5	
686.57	5682.4	
686.76	6739.9	
686.94	4459.8	
687.13	4722.6	
687.31	6279.8	
687.5	5987.6	
687.68	4274.8	
687.86	5073.5	
688.05	7253.9	
688.23	5646.2	
688.42	5130.2	
688.6	4597	
688.79	5933.6	
688.97	6031.3	
689.16	4989.5	
689.34	4169	
689.52	6583.5	
689.71	6730.3	
689.89	5170.4	
690.08	4717.8	
690.26	6296.1	
690.45	6211.5	
690.63	5381.4	
690.81	4905.6	
691	6210.8	
691.18	6124.1	
691.37	5044.8	
691.55	6528.9	
691.74	6100.2	
691.92	7459.4	
692.1	5048.9	
692.29	4656.4	
692.47	6306.4	
692.66	5840.8	
692.84	4887.8	
693.02	5154.7	
693.21	5952.1	
693.39	6360.3	
693.58	5337	
693.76	4937.7	
693.94	7139.2	
694.13	7031.4	
694.31	4930.8	
694.5	5699.5	
694.68	6277.7	
694.86	6615.6	
695.05	5332.2	
695.23	5375.9	
695.42	6861.4	
695.6	8424	
695.78	5747.3	
695.97	5096.7	
696.15	7047.7	
696.34	6453.8	
696.52	5084.4	
696.7	5636	
696.89	6832.7	
697.07	6375.3	
697.25	5526.8	
697.44	6611.5	
697.62	6891.4	
697.81	7092.8	
697.99	5441.5	
698.17	5804.6	
698.36	6522.8	
698.54	7000.6	
698.72	5684.5	
698.91	4977.9	
699.09	6656.6	
699.28	6597.2	
699.46	5531.6	
699.64	5396.4	
699.83	6553.5	
700.01	7430	
700.19	6079.1	
700.38	4947.2	
700.56	7377.5	
700.74	6666.8	
700.93	5251	
701.11	5883.8	
701.29	7165.2	
701.48	7974.8	
701.66	5481	
701.84	5575.3	
702.03	6974.7	
702.21	7391.1	
702.39	5298.8	
702.58	5762.3	
702.76	7393.8	
702.94	7298.3	
703.13	5323.4	
703.31	6993.1	
703.49	6872.3	
703.68	7969.3	
703.86	5509	
704.04	6262	
704.23	7292.8	
704.41	7551.5	
704.59	5721.3	
704.78	6539.2	
704.96	8434.2	
705.14	7599.3	
705.33	5593	
705.51	6189	
705.69	7189.7	
705.87	7888.1	
706.06	6368.5	
706.24	5634	
706.42	7484	
706.61	7626	
706.79	6499.6	
706.97	5613.5	
707.16	7217	
707.34	7555.6	
707.52	6358.9	
707.7	5928.9	
707.89	7264.8	
708.07	7088	
708.25	6573.3	
708.44	6704.4	
708.62	7238.2	
708.8	8092.9	
708.98	6752.2	
709.17	6016.9	
709.35	7604.8	
709.53	7518.1	
709.72	5752.7	
709.9	6012.2	
710.08	7821.9	
710.26	7793.9	
710.45	7033.4	
710.63	6068.8	
710.81	7574.1	
710.99	7537.9	
711.18	6538.5	
711.36	6179.4	
711.54	7453.9	
711.72	7961.1	
711.91	6285.9	
712.09	5896.1	
712.27	7643	
712.45	8018.5	
712.64	6444.3	
712.82	5728.9	
713	7201.3	
713.18	7273.7	
713.37	5831.9	
713.55	6610.8	
713.73	7880.6	
713.91	6953.5	
714.1	5994.4	
714.28	5572.5	
714.46	7562.5	
714.64	6939.2	
714.83	5051.7	
715.01	5571.2	
715.19	6919.4	
715.37	6316.6	
715.55	5251.7	
715.74	5474.2	
715.92	7389.8	
716.1	5907.7	
716.28	6253.8	
716.47	5540.4	
716.65	6550.8	
716.83	6602.7	
717.01	5431.9	
717.19	5440.1	
717.38	7921.5	
717.56	6232	
717.74	5634	
717.92	5055.8	
718.1	7235.5	
718.29	6664.8	
718.47	4931.5	
718.65	5392.3	
718.83	7390.4	
719.01	7283.3	
719.2	5040.1	
719.38	5816.9	
719.56	7215	
719.74	8260.1	
719.92	5506.3	
720.11	6171.9	
720.29	7271.7	
720.47	6623.1	
720.65	5147.2	
720.83	5726.1	
721.02	6824.5	
721.2	6570.6	
721.38	5694.7	
721.56	5156.8	
721.74	6183.5	
721.92	6276.3	
722.11	5922	
722.29	5756.2	
722.47	7155.6	
722.65	6563.1	
722.83	5209.3	
723.01	5701.5	
723.2	6635.4	
723.38	6940.6	
723.56	4753.3	
723.74	5637.4	
723.92	6380.8	
724.1	7072.3	
724.29	5199.1	
724.47	5939.8	
724.65	6447.7	
724.83	6283.2	
725.01	5072.1	
725.19	5625.8	
725.37	6374.6	
725.56	6335.7	
725.74	5067.4	
725.92	5147.9	
726.1	6395.8	
726.28	6537.8	
726.46	5412.1	
726.64	5188.2	
726.83	6560.3	
727.01	6692.1	
727.19	4970.4	
727.37	5597.8	
727.55	6660.7	
727.73	7055.3	
727.91	4994.3	
728.09	4866.7	
728.28	7082.6	
728.46	7194.5	
728.64	5668.1	
728.82	5535.7	
729	7832.1	
729.18	7352.2	
729.36	5107	
729.54	6705	
729.72	8052.6	
729.91	6882.5	
730.09	6574.7	
730.27	5743.2	
730.45	6950.1	
730.63	7318.1	
730.81	6047.7	
730.99	5474.2	
731.17	7702.4	
731.35	6707.8	
731.53	5787.6	
731.71	5608	
731.9	7501	
732.08	7578.2	
732.26	5764.3	
732.44	5484.5	
732.62	7624.6	
732.8	7276.4	
732.98	6049	
733.16	5354.1	
733.34	7249.1	
733.52	6322.1	
733.7	5713.8	
733.88	5759.6	
734.07	7116.7	
734.25	6926.2	
734.43	5295.4	
734.61	6321.4	
734.79	8023.9	
734.97	6874.3	
735.15	5370.5	
735.33	5588.9	
735.51	7023.9	
735.69	6860.7	
735.87	6365.8	
736.05	5680.4	
736.23	7036.8	
736.41	6808.8	
736.59	5651	
736.77	5642.2	
736.95	7265.5	
737.13	6813.6	
737.32	5304.2	
737.5	5500.8	
737.68	7652.6	
737.86	6723.5	
738.04	5232.6	
738.22	6452.5	
738.4	6651.1	
738.58	6873	
738.76	5567.7	
738.94	4904.2	
739.12	6721.4	
739.3	6652.5	
739.48	6042.9	
739.66	5788.9	
739.84	6892.8	
740.02	6938.5	
740.2	5017.5	
740.38	5150	
740.56	7059.3	
740.74	6313.9	
740.92	5604.6	
741.1	5593	
741.28	6734.4	
741.46	6489.3	
741.64	5242.8	
741.82	5605.3	
742	6683.2	
742.18	6602.7	
742.36	5354.8	
742.54	5113.1	
742.72	7019.8	
742.9	6095.4	
743.08	5583.4	
743.26	4706.9	
743.44	7096.9	
743.62	7042.3	
743.8	5677.7	
743.98	4998.4	
744.16	6832.7	
744.34	6482.5	
744.52	5560.2	
744.7	5514.5	
744.88	6908.5	
745.06	6505.7	
745.24	5578	
745.42	5646.2	
745.6	6877.1	
745.78	6632.7	
745.96	4741.7	
746.14	4885.8	
746.32	7299	
746.5	6718	
746.68	5271.5	
746.86	4878.9	
747.03	7042.3	
747.21	5939.8	
747.39	5259.2	
747.57	4813.4	
747.75	6393.8	
747.93	6720.1	
748.11	4778.6	
748.29	4789.5	
748.47	7619.1	
748.65	6282.5	
748.83	5328.1	
749.01	5157.5	
749.19	6657.3	
749.37	5913.2	
749.55	4988.2	
749.73	5128.8	
749.91	6386.9	
750.09	6242.9	
750.26	5037.3	
750.44	4665.3	
750.62	6298.9	
750.8	6322.1	
750.98	4566.3	
751.16	4747.9	
751.34	6437.4	
751.52	5909.8	
751.7	5352	
751.88	4531.5	
752.06	6722.8	
752.24	6470.9	
752.42	4463.2	
752.59	4779.3	
752.77	6212.2	
752.95	7131	
753.13	5270.8	
753.31	4750.6	
753.49	5991	
753.67	6389	
753.85	5026.4	
754.03	4674.1	
754.21	6549.4	
754.38	6627.9	
754.56	4656.4	
754.74	4001	
754.92	5819	
755.1	6250.4	
755.28	3938.9	
755.46	3930.7	
755.64	6635.4	
755.82	6657.3	
755.99	3902.1	
756.17	3878.9	
756.35	4717.8	
756.53	5727.5	
756.71	3029.6	
756.89	3689.1	
757.07	5398.4	
757.25	4736.3	
757.42	4095.3	
757.6	4704.2	
757.78	5624.4	
757.96	4956.8	
758.14	3922.5	
758.32	3623.5	
758.5	4602.5	
758.67	5181.4	
758.85	3760.1	
759.03	3793.5	
759.21	5346.6	
759.39	4886.5	
759.57	3522.5	
759.75	4209.3	
759.92	5854.5	
760.1	5386.2	
760.28	4561.5	
760.46	4814.8	
760.64	5214.1	
760.82	5094	
760.99	4511.7	
761.17	3969.6	
761.35	5870.2	
761.53	5005.2	
761.71	4067.3	
761.89	4560.8	
762.06	5702.9	
762.24	5346.6	
762.42	4239.3	
762.6	4057	
762.78	5401.9	
762.96	5895.4	
763.13	4495.3	
763.31	4281.6	
763.49	5943.9	
763.67	5412.1	
763.85	4896	
764.02	5262.6	
764.2	6177.4	
764.38	5516.5	
764.56	4198.3	
764.74	4825	
764.91	6286.6	
765.09	5443.5	
765.27	3982.6	
765.45	3831.7	
765.63	6341.9	
765.8	6168.5	
765.98	3568.9	
766.16	3819.5	
766.34	5106.3	
766.52	4870.8	
766.69	4532.8	
766.87	3645.4	
767.05	5380	
767.23	5983.5	
767.41	3981.3	
767.58	4059.8	
767.76	5808	
767.94	5827.2	
768.12	3923.9	
768.29	4394.9	
768.47	5352	
768.65	5965.7	
768.83	3670.6	
769	4497.3	
769.18	5107.6	
769.36	5556.1	
769.54	4424.3	
769.72	3647.4	
769.89	5796.4	
770.07	5789.6	
770.25	3884.3	
770.43	4770.4	
770.6	6303	
770.78	6503.7	
770.96	4002.4	
771.14	3844.7	
771.31	5691.3	
771.49	5125.4	
771.67	3426.9	
771.85	3489.7	
772.02	4646.2	
772.2	5114.5	
772.38	4091.2	
772.55	3654.3	
772.73	5406.6	
772.91	5167.7	
773.09	3951.9	
773.26	4015.4	
773.44	5335.6	
773.62	5126.1	
773.8	3543.7	
773.97	3392.1	
774.15	5320.6	
774.33	5109	
774.5	3433.1	
774.68	3732.8	
774.86	5434.6	
775.04	5043.5	
775.21	3576.4	
775.39	3522.5	
775.57	5335	
775.74	5449.6	
775.92	3350.5	
776.1	3322.5	
776.27	5190.2	
776.45	6055.8	
776.63	3489.7	
776.81	3155.2	
776.98	4939.7	
777.16	5725.4	
777.34	3543.7	
777.51	3803.1	
777.69	4965	
777.87	4833.2	
778.04	3624.9	
778.22	3962.1	
778.4	4726	
778.57	5221.6	
778.75	3072	
778.93	3325.9	
779.1	4645.5	
779.28	4492.6	
779.46	3041.9	
779.64	3388	
779.81	5341.1	
779.99	5885.9	
780.17	3961.5	
780.34	4056.3	
780.52	5000.5	
780.69	5087.8	
780.87	3687	
781.05	3287.7	
781.22	5031.9	
781.4	5008	
781.58	3454.9	
781.75	2800.9	
781.93	4987.5	
782.11	4516.5	
782.28	4060.4	
782.46	3396.2	
782.64	4405.9	
782.81	5115.8	
782.99	3453.6	
783.17	3366.2	
783.34	4974.5	
783.52	4517.1	
783.69	3472.7	
783.87	4103.4	
784.05	4639.3	
784.22	4511.7	
784.4	4095.3	
784.58	3647.4	
784.75	5245.5	
784.93	4592.2	
785.1	3352.5	
785.28	3844	
785.46	4945.2	
785.63	4455	
785.81	3408.5	
785.99	3229.6	
786.16	4650.3	
786.34	4924.7	
786.51	3239.9	
786.69	3541.6	
786.87	4287.1	
787.04	4640	
787.22	3168.2	
787.39	3812	
787.57	4456.4	
787.75	5214.1	
787.92	4007.2	
788.1	3860.4	
788.27	4461.2	
788.45	4302.1	
788.63	3700	
788.8	2762	
788.98	4870.8	
789.15	4201.7	
789.33	2921.8	
789.5	3255.6	
789.68	5112.4	
789.86	5219.6	
790.03	3581.2	
790.21	3241.3	
790.38	5203.9	
790.56	4590.2	
790.73	3109.5	
790.91	3104.7	
791.09	4489.8	
791.26	4992.9	
791.44	3331.4	
791.61	2919.7	
791.79	4514.4	
791.96	4439.3	
792.14	3023.5	
792.32	2721.1	
792.49	4414.1	
792.67	4526	
792.84	3060.3	
793.02	2928.6	
793.19	4829.8	
793.37	5310.4	
793.54	2667.1	
793.72	2960.7	
793.89	5314.5	
794.07	4498	
794.25	3295.2	
794.42	2751.1	
794.6	5227.8	
794.77	4869.4	
794.95	3573.7	
795.12	3171.6	
795.3	4476.2	
795.47	4860.5	
795.65	3422.8	
795.82	3265.8	
796	4333.5	
796.17	5651	
796.35	3257.6	
796.52	3790.8	
796.7	4853	
796.87	4902.8	
797.05	3180.5	
797.22	3827	
797.4	4947.2	
797.57	5532.9	
797.75	3338.9	
797.92	3155.9	
798.1	5110.4	
798.27	4311.7	
798.45	2756.6	
798.62	2926.5	
798.8	4703.5	
798.97	5010	
799.15	3482.2	
799.32	3305.4	
799.5	4121.2	
799.67	4679.6	
799.85	3626.3	
800.02	2726.5	
800.2	4410.6	
800.37	4574.5	
800.55	3656.3	
800.72	3106.8	
800.9	4929.5	
801.07	5239.4	
801.25	4100.7	
801.42	3382.6	
801.6	5042.8	
801.77	4662.5	
801.95	3184.6	
802.12	3104.7	
802.29	4769.7	
802.47	4704.2	
802.64	3409.9	
802.82	2682.8	
802.99	4410.6	
803.17	5078.3	
803.34	3308.2	
803.52	2996.2	
803.69	5518.6	
803.87	4233.2	
804.04	3254.2	
804.21	3327.3	
804.39	5247.6	
804.56	4465.3	
804.74	2894.5	
804.91	3401	
805.09	4356.7	
805.26	4461.8	
805.44	2907.4	
805.61	3181.9	
805.78	4878.3	
805.96	4851	
806.13	3407.1	
806.31	3607.2	
806.48	4091.8	
806.66	4478.2	
806.83	3350.5	
807	3301.3	
807.18	4405.9	
807.35	4655.7	
807.53	3317.7	
807.7	2740.9	
807.87	5250.3	
808.05	4418.2	
808.22	3603.1	
808.4	2729.3	
808.57	4375.1	
808.74	4151.9	
808.92	3079.5	
809.09	3755.3	
809.27	4410.6	
809.44	4713.1	
809.61	2727.2	
809.79	3004.4	
809.96	5304.2	
810.14	4851	
810.31	2667.8	
810.48	3187.3	
810.66	4446.8	
810.83	4963.6	
811.01	3075.4	
811.18	3306.8	
811.35	4933.6	
811.53	3931.4	
811.7	3618.1	
811.87	3377.8	
812.05	4479.6	
812.22	4351.3	
812.39	2945	
812.57	2868.5	
812.74	4469.4	
812.92	5585.5	
813.09	3222.1	
813.26	3408.5	
813.44	5447.6	
813.61	4306.2	
813.78	2716.3	
813.96	3480.2	
814.13	4459.8	
814.3	4234.5	
814.48	3768.3	
814.65	3163.4	
814.82	5215.5	
815	4108.2	
815.17	3258.3	
815.34	3842	
815.52	4369.7	
815.69	4347.8	
815.87	3174.4	
816.04	3150.5	
816.21	4424.3	
816.38	3971	
816.56	3117	
816.73	2957.9	
816.9	5414.1	
817.08	4929.5	
817.25	3013.2	
817.42	3581.2	
817.6	4123.2	
817.77	4360.1	
817.94	3302.7	
818.12	2939.5	
818.29	4188.8	
818.46	6031.3	
818.64	3153.2	
818.81	2896.5	
818.98	4220.9	
819.16	5598.5	
819.33	3426.9	
819.5	3233.1	
819.67	4716.5	
819.85	5068	
820.02	3244	
820.19	3388.7	
820.37	4540.3	
820.54	4343.1	
820.71	3323.2	
820.88	4018.8	
821.06	4542.4	
821.23	4235.9	
821.4	3310.2	
821.58	3297.2	
821.75	4861.9	
821.92	4522.6	
822.09	2759.3	
822.27	2744.3	
822.44	4468.7	
822.61	4373.1	
822.79	2747.7	
822.96	4848.9	
823.13	4642.7	
823.3	4111.6	
823.48	3084.2	
823.65	2881.5	
823.82	4947.2	
823.99	4083.6	
824.17	3829.7	
824.34	2861.7	
824.51	5505.6	
824.68	4455	
824.86	2966.1	
825.03	3262.4	
825.2	4347.2	
825.37	5133.6	
825.55	2996.9	
825.72	3208.5	
825.89	5539.1	
826.06	5174.5	
826.24	3116.3	
826.41	3197.6	
826.58	5236	
826.75	4573.8	
826.92	2617.3	
827.1	2844.6	
827.27	6752.2	
827.44	5438.7	
827.61	2992.8	
827.79	3603.7	
827.96	4261.1	
828.13	4390.8	
828.3	3147	
828.47	2691	
828.65	4672.8	
828.82	4570.4	
828.99	3894.6	
829.16	3392.8	
829.34	4961.5	
829.51	4753.3	
829.68	3271.3	
829.85	3273.3	
830.02	5190.9	
830.2	4919.9	
830.37	2562.7	
830.54	3772.4	
830.71	5428.5	
830.88	4416.8	
831.05	2621.4	
831.23	3013.2	
831.4	5321.3	
831.57	5717.9	
831.74	3050.1	
831.91	2656.2	
832.09	4748.6	
832.26	4899.4	
832.43	3122.5	
832.6	3419.4	
832.77	4631.8	
832.94	5195.7	
833.12	2503.3	
833.29	3057.6	
833.46	4734.9	
833.63	5926.1	
833.8	3297.9	
833.97	3132	
834.15	4973.8	
834.32	4759.5	
834.49	3212.6	
834.66	3252.9	
834.83	5094.7	
835	4246.8	
835.17	2989.4	
835.35	2923.8	
835.52	4876.2	
835.69	4651.6	
835.86	3115.6	
836.03	2624.8	
836.2	4930.8	
836.37	4593.6	
836.55	3076	
836.72	2957.3	
836.89	4627.7	
837.06	4975.9	
837.23	3108.1	
837.4	3452.2	
837.57	5441.5	
837.75	5877	
837.92	2835.1	
838.09	2914.9	
838.26	4654.4	
838.43	5042.8	
838.6	3190.7	
838.77	2950.4	
838.94	5607.3	
839.11	5500.2	
839.29	3147	
839.46	2488.3	
839.63	4931.5	
839.8	4672.1	
839.97	2997.5	
840.14	3003.7	
840.31	4816.1	
840.48	4833.2	
840.65	2544.9	
840.82	2961.4	
841	4894	
841.17	4764.3	
841.34	2798.2	
841.51	2830.3	
841.68	4836.6	
841.85	4591.5	
842.02	2889	
842.19	2443.2	
842.36	4688.5	
842.53	4700.8	
842.7	2769.5	
842.87	3308.2	
843.05	5929.6	
843.22	4598.4	
843.39	2708.1	
843.56	2871.9	
843.73	4559.5	
843.9	4939	
844.07	4312.3	
844.24	3558	
844.41	6576.7	
844.58	4244.1	
844.75	2674	
844.92	2927.9	
845.09	4891.9	
845.26	4852.3	
845.43	2763.4	
845.6	2908.1	
845.77	4888.5	
845.94	4701.5	
846.12	3069.9	
846.29	3200.3	
846.46	5057.1	
846.63	4814.8	
846.8	2789.3	
846.97	3194.8	
847.14	5184.1	
847.31	4845.5	
847.48	3057.6	
847.65	3319.8	
847.82	5014.1	
847.99	5027.1	
848.16	3586.7	
848.33	3315	
848.5	4570.4	
848.67	5232.6	
848.84	2778.4	
849.01	2863.1	
849.18	4437.3	
849.35	4278.9	
849.52	3373	
849.69	2708.1	
849.86	5087.2	
850.03	5139.7	
850.2	2787.3	
850.37	3280.2	
850.54	5111.7	
850.71	4588.1	
850.88	3223.5	
851.05	2704	
851.22	4791.6	
851.39	5257.1	
851.56	2617.3	
851.73	3121.1	
851.9	4371	
852.07	5033.9	
852.24	3032.4	
852.41	2736.8	
852.58	4828.4	
852.75	4426.3	
852.92	3081.5	
853.09	2736.8	
853.26	4555.4	
853.43	5115.8	
853.6	2737.5	
853.77	2411.8	
853.94	5266	
854.11	4328.7	
854.28	3878.2	
854.44	2955.2	
854.61	5511.1	
854.78	5082.4	
854.95	2742.9	
855.12	3348.4	
855.29	4029	
855.46	5223.7	
855.63	2807.1	
855.8	3676.1	
855.97	4534.2	
856.14	5079	
856.31	3764.8	
856.48	2966.8	
856.65	4588.8	
856.82	4324.6	
856.99	2650.8	
857.16	2917.7	
857.33	5631.2	
857.49	4651.6	
857.66	2975	
857.83	3061	
858	4653.7	
858.17	4762.9	
858.34	2619.4	
858.51	2784.6	
858.68	5294.7	
858.85	5279	
859.02	3161.4	
859.19	3282.9	
859.36	4400.4	
859.52	4347.2	
859.69	2742.2	
859.86	3175	
860.03	4398.4	
860.2	5286.5	
860.37	2581.1	
860.54	2761.3	
860.71	5005.2	
860.88	5289.9	
861.05	3067.9	
861.21	3413.3	
861.38	5251.7	
861.55	4223.6	
861.72	2540.8	
861.89	3069.9	
862.06	5014.8	
862.23	5359.5	
862.4	2693.8	
862.56	2867.8	
862.73	4940.4	
862.9	4681	
863.07	3170.9	
863.24	2528.6	
863.41	4246.8	
863.58	4414.1	
863.75	2831.7	
863.91	3132.7	
864.08	5207.3	
864.25	4976.6	
864.42	3402.4	
864.59	3755.3	
864.76	5475.6	
864.93	4390.2	
865.09	2686.9	
865.26	2934.1	
865.43	5176.6	
865.6	5434.6	
865.77	2484.2	
865.94	2689	
866.1	5165.7	
866.27	4935.6	
866.44	3919.1	
866.61	2665.1	
866.78	4650.3	
866.95	4939.7	
867.11	2649.4	
867.28	2503.3	
867.45	5089.2	
867.62	4348.5	
867.79	3148.4	
867.96	2805	
868.12	4280.9	
868.29	5040.7	
868.46	2725.2	
868.63	3605.8	
868.8	5135.6	
868.97	4971.8	
869.13	2891	
869.3	2882.2	
869.47	4868	
869.64	5069.4	
869.81	2753.8	
869.97	2797.5	
870.14	4767.7	
870.31	5311.7	
870.48	2674.6	
870.65	3375.1	
870.81	4560.1	
870.98	4642.1	
871.15	3086.3	
871.32	2826.9	
871.48	4926	
871.65	5337.7	
871.82	2723.8	
871.99	3000.3	
872.16	5638.7	
872.32	5132.2	
872.49	2854.2	
872.66	2775.7	
872.83	5029.8	
872.99	4446.1	
873.16	3107.5	
873.33	2728.6	
873.5	4701.5	
873.67	4797	
873.83	2923.1	
874	3580.5	
874.17	4810.7	
874.34	5521.3	
874.5	3512.9	
874.67	3286.3	
874.84	5244.8	
875.01	4220.2	
875.17	3712.3	
875.34	2762.7	
875.51	4812	
875.68	5610.8	
875.84	3289.7	
876.01	3899.3	
876.18	5025	
876.34	4903.5	
876.51	2789.3	
876.68	2745	
876.85	4588.1	
877.01	5238	
877.18	3830.4	
877.35	2737.5	
877.52	4786.8	
877.68	4315.1	
877.85	2755.2	
878.02	2718.3	
878.18	4643.4	
878.35	4456.4	
878.52	2284.2	
878.69	3041.9	
878.85	5081.7	
879.02	4909	
879.19	3809.9	
879.35	2963.4	
879.52	4987.5	
879.69	5003.9	
879.86	2437.1	
880.02	3078.1	
880.19	4702.1	
880.36	5511.8	
880.52	3155.9	
880.69	3225.6	
880.86	5097.4	
881.02	5037.3	
881.19	2992.1	
881.36	2939.5	
881.52	4922	
881.69	4455	
881.86	2964.1	
882.02	2901.3	
882.19	5127.4	
882.36	5869.5	
882.52	2841.2	
882.69	3725.9	
882.86	4825	
883.02	4755.4	
883.19	3201.7	
883.36	3087.7	
883.52	5040.1	
883.69	5584.8	
883.86	2818.7	
884.02	2581.8	
884.19	4988.2	
884.36	4787.5	
884.52	3099.9	
884.69	2938.2	
884.86	4491.9	
885.02	5358.2	
885.19	3060.3	
885.36	3093.1	
885.52	4657.1	
885.69	4834.6	
885.86	3900	
886.02	3429.7	
886.19	5061.9	
886.35	4609.3	
886.52	3018.7	
886.69	3710.2	
886.85	4349.9	
887.02	5251.7	
887.19	5251.7	
887.35	5251.7	
887.52	5251.7	
887.68	5251.7	
887.85	5251.7	
888.02	5251.7	
888.18	5251.7	
888.35	5251.7	
888.51	5251.7	
888.68	5251.7	
888.85	5251.7	
889.01	5251.7	
889.18	5251.7	
889.35	5251.7	
889.51	5251.7	
889.68	5251.7	
889.84	5251.7	
890.01	5251.7	
890.17	5251.7	
890.34	5251.7	
890.51	5251.7	
890.67	5251.7	
890.84	5251.7	
891	5251.7	
891.17	5251.7	
891.34	5251.7	
891.5	5251.7	
891.67	5251.7	
891.83	5251.7	
892	5251.7	
892.16	5251.7	
892.33	5251.7	
892.5	5251.7	
892.66	5251.7	
892.83	5251.7	
892.99	5251.7	
893.16	5251.7	
893.32	5251.7	
893.49	5251.7	
893.65	5251.7	
893.82	5251.7	
893.99	5251.7	
894.15	5251.7	
894.32	5251.7	
894.48	5251.7	
894.65	5251.7	
894.81	5251.7	
894.98	5251.7	
895.14	5251.7	
895.31	5251.7	
895.47	5251.7	
895.64	5251.7	
895.81	5251.7	
895.97	5251.7	
896.14	5251.7	
896.3	5251.7	
896.47	5251.7	
896.63	5251.7	
896.8	5251.7	
896.96	5251.7	
897.13	5251.7	
897.29	5251.7	
897.46	5251.7	
897.62	5251.7	
897.79	5251.7	
897.95	5251.7	
898.12	5251.7	
898.28	5251.7	
898.45	5251.7	
898.61	5251.7	
898.78	5251.7	
898.94	5251.7	
899.11	5251.7	
899.27	5251.7	
899.44	5251.7	
899.6	5251.7	
899.77	5251.7	
899.93	5251.7	
900.1	5251.7	
900.26	5251.7	
900.43	5251.7	
900.59	5251.7	
900.76	5251.7	
900.92	5251.7	
901.09	5251.7	
901.25	5251.7	
901.42	5251.7	
901.58	5251.7	
901.75	5251.7	
901.91	5251.7	
902.07	5251.7	
902.24	5251.7	
902.4	5251.7	
902.57	5251.7	
902.73	5251.7	
902.9	5251.7	
903.06	5251.7	
903.23	5251.7	
903.39	5251.7	
903.56	5251.7	
903.72	5251.7	
903.88	5251.7	
904.05	5251.7	
904.21	5251.7	
904.38	5251.7	
904.54	5251.7	
904.71	5251.7	
904.87	5251.7	
905.03	5251.7	
905.2	5251.7	
905.36	5251.7	
905.53	5251.7	
905.69	5251.7	
905.86	5251.7	
906.02	5251.7	
906.18	5251.7	
906.35	5251.7	
906.51	5251.7	
906.68	5251.7	
906.84	5251.7	
907.01	5251.7	
907.17	5251.7	
907.33	5251.7	
907.5	5251.7	
907.66	5251.7	
907.83	5251.7	
907.99	5251.7	
908.15	5251.7	
908.32	5251.7	
908.48	5251.7	
908.65	5251.7	
908.81	5251.7	
908.97	5251.7	
909.14	5251.7	
909.3	5251.7	
909.47	5251.7	
909.63	5251.7	
909.79	5251.7	
909.96	5251.7	
910.12	5251.7	
910.28	5251.7	
910.45	5251.7	
910.61	5251.7	
910.78	5251.7	
910.94	5251.7	
911.1	5251.7	
911.27	5251.7	
911.43	5251.7	
911.59	5251.7	
911.76	5251.7	
911.92	5251.7	
912.08	5251.7	
912.25	5251.7	
912.41	5251.7	
912.57	5251.7	
912.74	5251.7	
912.9	5251.7	
913.07	5251.7	
913.23	5251.7	
913.39	5251.7	
913.56	5251.7	
913.72	5251.7	
913.88	5251.7	
914.05	5251.7	
914.21	5251.7	
914.37	5251.7	
914.54	5251.7	
914.7	5251.7	
914.86	5251.7	
915.03	5251.7	
915.19	5251.7	
