Wavelength	Intensities	
nm	a.u.	
179.22	1719.4	
179.44	1715.2	
179.65	1723.7	
179.86	1706.6	
180.08	1698.4	
180.29	3979.2	
180.51	3107.5	
180.72	5033.2	
180.94	5639.4	
181.15	2785.9	
181.37	2743.6	
181.58	4875.5	
181.79	5054.4	
182.01	2866.5	
182.22	3044	
182.44	5059.8	
182.65	4388.1	
182.87	3739.6	
183.08	3284.9	
183.29	5323.4	
183.51	4503.5	
183.72	2996.2	
183.94	4204.5	
184.15	4741	
184.37	4670.1	
184.58	2735.4	
184.79	3515.7	
185.01	4532.2	
185.22	5125.4	
185.44	3744.4	
185.65	3214.6	
185.86	4801.8	
186.08	4406.5	
186.29	2723.8	
186.51	2846	
186.72	4474.8	
186.94	5184.1	
187.15	3292.5	
187.36	3321.1	
187.58	6473.6	
187.79	4851.6	
188.01	3406.5	
188.22	5111.7	
188.43	5745.2	
188.65	5059.8	
188.86	2838.5	
189.08	3392.8	
189.29	4632.5	
189.5	4625.7	
189.72	3108.1	
189.93	3198.2	
190.15	5266	
190.36	5972.6	
190.57	3418.1	
190.79	3247.4	
191	5209.3	
191.22	5216.9	
191.43	3368.9	
191.64	2889.7	
191.86	5404.6	
192.07	5114.5	
192.29	2994.1	
192.5	3125.9	
192.71	5226.4	
192.93	4657.8	
193.14	3120.4	
193.35	3153.2	
193.57	4570.4	
193.78	5247.6	
194	2525.8	
194.21	3036.5	
194.42	4448.2	
194.64	4843.4	
194.85	3276.8	
195.07	3821.5	
195.28	4739	
195.49	4276.8	
195.71	4022.2	
195.92	2902.7	
196.13	4986.8	
196.35	5020.9	
196.56	4240	
196.78	3371.6	
196.99	5954.8	
197.2	5676.3	
197.42	3690.4	
197.63	3384.6	
197.84	4383.3	
198.06	4975.2	
198.27	3165.5	
198.48	3941.7	
198.7	4606.6	
198.91	4776.5	
199.13	3375.1	
199.34	3381.9	
199.55	5221	
199.77	4180.6	
199.98	3053.5	
200.19	3427.6	
200.41	4758.8	
200.62	4470	
200.83	3441.3	
201.05	3688.4	
201.26	4750.6	
201.47	4536.9	
201.69	3013.2	
201.9	2883.5	
202.11	4818.9	
202.33	5564.3	
202.54	3229.6	
202.76	3510.9	
202.97	4851.6	
203.18	4912.4	
203.4	3433.1	
203.61	3448.1	
203.82	4842.8	
204.04	4532.8	
204.25	3351.8	
204.46	3269.2	
204.68	4858.5	
204.89	4946.5	
205.1	3308.2	
205.32	2859.6	
205.53	5129.5	
205.74	5221.6	
205.96	2534	
206.17	3407.8	
206.38	5093.3	
206.6	5171.1	
206.81	3823.6	
207.02	3189.4	
207.24	5014.1	
207.45	5320.6	
207.66	3248.1	
207.88	2820.1	
208.09	4930.1	
208.3	4847.5	
208.52	3007.1	
208.73	3235.1	
208.94	4803.9	
209.15	5380	
209.37	3258.3	
209.58	3570.3	
209.79	5186.8	
210.01	4629.8	
210.22	2645.3	
210.43	2757.2	
210.65	4837.3	
210.86	5100.8	
211.07	3186.6	
211.29	2957.3	
211.5	5007.3	
211.71	4754.7	
211.93	2942.9	
212.14	2929.3	
212.35	4775.2	
212.56	4862.6	
212.78	3409.2	
212.99	2835.8	
213.2	5499.5	
213.42	4662.5	
213.63	3077.4	
213.84	3205.8	
214.06	4319.2	
214.27	4386.7	
214.48	3190.7	
214.69	3375.7	
214.91	5308.3	
215.12	5358.9	
215.33	3432.4	
215.55	3672.7	
215.76	5695.4	
215.97	5059.8	
216.18	3257.6	
216.4	3291.8	
216.61	4545.1	
216.82	5127.4	
217.04	2991.4	
217.25	3120.4	
217.46	5275.6	
217.67	5101.5	
217.89	2695.1	
218.1	2782.5	
218.31	4863.2	
218.53	4972.5	
218.74	3160.7	
218.95	3044	
219.16	4757.4	
219.38	5491.3	
219.59	3014.6	
219.8	3511.6	
220.01	5919.3	
220.23	4803.9	
220.44	3802.4	
220.65	2952.5	
220.87	4852.3	
221.08	5309.7	
221.29	2829.6	
221.5	3607.8	
221.72	6245.6	
221.93	4539.7	
222.14	3388.7	
222.35	3901.4	
222.57	4807.3	
222.78	5094	
222.99	3179.1	
223.2	3386	
223.42	5026.4	
223.63	5132.2	
223.84	2515.6	
224.05	2551.1	
224.27	5840.8	
224.48	5425.1	
224.69	3873.4	
224.9	3416	
225.12	4958.1	
225.33	4769.7	
225.54	2745	
225.75	3020.1	
225.97	4495.3	
226.18	4676.2	
226.39	3199.6	
226.6	3050.8	
226.82	4608.6	
227.03	4465.3	
227.24	3387.3	
227.45	2888.3	
227.67	5135.6	
227.88	5438	
228.09	3717.1	
228.3	3706.1	
228.52	5042.8	
228.73	4706.2	
228.94	3150.5	
229.15	2824.8	
229.36	4746.5	
229.58	4759.5	
229.79	3170.9	
230	3612.6	
230.21	5609.4	
230.43	4822.3	
230.64	3360.7	
230.85	3433.8	
231.06	5172.5	
231.28	5126.1	
231.49	2814.6	
231.7	3295.2	
231.91	5044.1	
232.12	4797	
232.34	2922.5	
232.55	3253.5	
232.76	5268.7	
232.97	4898.7	
233.18	2969.6	
233.4	3325.2	
233.61	4987.5	
233.82	4605.9	
234.03	3126.6	
234.25	3075.4	
234.46	6359.6	
234.67	4815.5	
234.88	3384.6	
235.09	3010.5	
235.31	4947.2	
235.52	4709	
235.73	3327.3	
235.94	2877.4	
236.15	4561.5	
236.37	5620.3	
236.58	2980.5	
236.79	3256.3	
237	4974.5	
237.21	4388.8	
237.43	3398.9	
237.64	2765.4	
237.85	7896.3	
238.06	4476.9	
238.27	3437.2	
238.48	2874.7	
238.7	5020.3	
238.91	4699.4	
239.12	3210.5	
239.33	3272	
239.54	4477.5	
239.76	4715.8	
239.97	3161.4	
240.18	3238.5	
240.39	5705.6	
240.6	4958.1	
240.82	3336.8	
241.03	2862.4	
241.24	4749.9	
241.45	5416.2	
241.66	2997.5	
241.87	3498.6	
242.09	5360.9	
242.3	5602.6	
242.51	3454.9	
242.72	3207.8	
242.93	5060.5	
243.14	4743.8	
243.36	3670.6	
243.57	3965.6	
243.78	5413.5	
243.99	5074.9	
244.2	3201.7	
244.41	2917.7	
244.63	4420.2	
244.84	4973.2	
245.05	3441.3	
245.26	3162.7	
245.47	4988.9	
245.68	5117.2	
245.9	4164.9	
246.11	3404.4	
246.32	4633.9	
246.53	4960.2	
246.74	5063.9	
246.95	2788.7	
247.16	4465.3	
247.38	4831.2	
247.59	2832.3	
247.8	3269.2	
248.01	4525.3	
248.22	4801.8	
248.43	2923.8	
248.64	3137.5	
248.86	4363.5	
249.07	4668.7	
249.28	2904.7	
249.49	3297.9	
249.7	5158.8	
249.91	5225.7	
250.12	2743.6	
250.34	2825.5	
250.55	4922	
250.76	4761.5	
250.97	3369.6	
251.18	3362.8	
251.39	5252.4	
251.6	4863.9	
251.81	3418.1	
252.03	3353.2	
252.24	4606.6	
252.45	5123.3	
252.66	2911.5	
252.87	3482.2	
253.08	4808.6	
253.29	5999.2	
253.5	2882.2	
253.72	3846.1	
253.93	4723.3	
254.14	5556.8	
254.35	3112.2	
254.56	3143.6	
254.77	4992.3	
254.98	4502.1	
255.19	3011.2	
255.41	3854.3	
255.62	4913.8	
255.83	5235.3	
256.04	3449.5	
256.25	3334.1	
256.46	5713.2	
256.67	4609.3	
256.88	3301.3	
257.09	3633.1	
257.31	4461.2	
257.52	4558.8	
257.73	4087.1	
257.94	3104.7	
258.15	4741.7	
258.36	4764.3	
258.57	3807.2	
258.78	2568.8	
258.99	5138.4	
259.2	4668	
259.41	3091.8	
259.63	3194.8	
259.84	5408.7	
260.05	5733.6	
260.26	3821.5	
260.47	3004.4	
260.68	5225.1	
260.89	4741.7	
261.1	3669.3	
261.31	3005.7	
261.52	5253.7	
261.73	5542.5	
261.95	3869.3	
262.16	3410.6	
262.37	5319.9	
262.58	5343.8	
262.79	3917.1	
263	3125.2	
263.21	4778.6	
263.42	4644.1	
263.63	3405.8	
263.84	3136.8	
264.05	5167	
264.26	5432.6	
264.47	3781.2	
264.69	3280.8	
264.9	5352.7	
265.11	4923.3	
265.32	3001	
265.53	3061.7	
265.74	4855.7	
265.95	4340.3	
266.16	3223.5	
266.37	3540.9	
266.58	4901.5	
266.79	4641.4	
267	3080.8	
267.21	2870.6	
267.42	4483.7	
267.63	4786.1	
267.84	3176.4	
268.06	2863.7	
268.27	5158.2	
268.48	5283.8	
268.69	3147.7	
268.9	3666.5	
269.11	5327.4	
269.32	4370.4	
269.53	3242.6	
269.74	3020.1	
269.95	4973.8	
270.16	4302.1	
270.37	3267.2	
270.58	3691.1	
270.79	4655	
271	5173.2	
271.21	3432.4	
271.42	3281.5	
271.63	4949.3	
271.84	4442	
272.05	2683.5	
272.26	2928.6	
272.47	4788.8	
272.68	4938.3	
272.89	3120.4	
273.11	3457	
273.32	4580.6	
273.53	5517.2	
273.74	3396.2	
273.95	3363.4	
274.16	5162.2	
274.37	4816.8	
274.58	3503.4	
274.79	2878.8	
275	4968.4	
275.21	5212.8	
275.42	4207.2	
275.63	3560.7	
275.84	5029.1	
276.05	6066.1	
276.26	3376.4	
276.47	3178.4	
276.68	4676.2	
276.89	5578	
277.1	3592.1	
277.31	2855.6	
277.52	4913.1	
277.73	5160.2	
277.94	2830.3	
278.15	3091.8	
278.36	4960.9	
278.57	4592.2	
278.78	3101.3	
278.99	3464.5	
279.2	4583.4	
279.41	4511	
279.62	4082.3	
279.83	2926.5	
280.04	5709.1	
280.25	4382.7	
280.46	3992.2	
280.67	3241.9	
280.88	4521.9	
281.09	5270.1	
281.3	3392.8	
281.51	4171	
281.72	4562.9	
281.93	5134.3	
282.14	3039.9	
282.35	3268.6	
282.56	5218.9	
282.77	5149.3	
282.98	3154.6	
283.19	3765.5	
283.4	6138.4	
283.61	4734.2	
283.82	2993.4	
284.03	3912.3	
284.24	4941.1	
284.45	5239.4	
284.66	3979.9	
284.87	3732.8	
285.08	5265.3	
285.29	5341.8	
285.5	2813.2	
285.71	3160	
285.92	5259.9	
286.12	5767.1	
286.33	3891.8	
286.54	3209.2	
286.75	5184.1	
286.96	4698.7	
287.17	2941.6	
287.38	3818.1	
287.59	4553.3	
287.8	4517.8	
288.01	3167.5	
288.22	3579.8	
288.43	5098.1	
288.64	4349.2	
288.85	3773.7	
289.06	3593.5	
289.27	5147.2	
289.48	5442.1	
289.69	3990.8	
289.9	3607.2	
290.11	5350	
290.32	4599.7	
290.53	3754.6	
290.74	3422.2	
290.94	5142.4	
291.15	5185.5	
291.36	3056.9	
291.57	3568.2	
291.78	4659.1	
291.99	4321.2	
292.2	2977.1	
292.41	3458.3	
292.62	5181.4	
292.83	5044.8	
293.04	4174.4	
293.25	2986.6	
293.46	4693.9	
293.67	5227.1	
293.88	3000.3	
294.09	2953.9	
294.29	4474.1	
294.5	4901.5	
294.71	3250.1	
294.92	3090.4	
295.13	4668.7	
295.34	5638.1	
295.55	2789.3	
295.76	2796.8	
295.97	5047.6	
296.18	5645.6	
296.39	2881.5	
296.6	3030.3	
296.81	4859.8	
297.01	5091.9	
297.22	3170.9	
297.43	3082.9	
297.64	4644.8	
297.85	4503.5	
298.06	2611.8	
298.27	2771.6	
298.48	4769	
298.69	4584.7	
298.9	3329.3	
299.11	3038.5	
299.31	4468.7	
299.52	4472.1	
299.73	3539.6	
299.94	3411.2	
300.15	4798.4	
300.36	4531.5	
300.57	3507.5	
300.78	3392.1	
300.99	4696	
301.2	4853	
301.4	3095.8	
301.61	3260.4	
301.82	5040.1	
302.03	5147.2	
302.24	3613.3	
302.45	2930	
302.66	4985.4	
302.87	5309.7	
303.08	3041.2	
303.29	4035.9	
303.49	4648.9	
303.7	4784.7	
303.91	2769.5	
304.12	3875.4	
304.33	4399.7	
304.54	4957.4	
304.75	3060.3	
304.96	2940.9	
305.16	5061.2	
305.37	5582.1	
305.58	2724.5	
305.79	2847.4	
306	5058.5	
306.21	4347.8	
306.42	3080.1	
306.63	4477.5	
306.83	4657.1	
307.04	5201.2	
307.25	3349.8	
307.46	3267.9	
307.67	4233.8	
307.88	5102.2	
308.09	3094.5	
308.29	3038.5	
308.5	4861.2	
308.71	5244.2	
308.92	3226.2	
309.13	2938.2	
309.34	4724	
309.55	4704.9	
309.75	3767.6	
309.96	3449.5	
310.17	5068.7	
310.38	4549.2	
310.59	3580.5	
310.8	3392.8	
311.01	4690.5	
311.21	4745.1	
311.42	2978.4	
311.63	3014.6	
311.84	4601.1	
312.05	4807.3	
312.26	3433.8	
312.46	3716.4	
312.67	4676.9	
312.88	4418.8	
313.09	2949.1	
313.3	2899.9	
313.51	5381.4	
313.71	5658.5	
313.92	2989.4	
314.13	3108.8	
314.34	4982.7	
314.55	4786.8	
314.76	3672	
314.96	3236.5	
315.17	4926	
315.38	5197.7	
315.59	2972.3	
315.8	2924.5	
316.01	5388.2	
316.21	5468.1	
316.42	2935.4	
316.63	3276.1	
316.84	4700.8	
317.05	5302.9	
317.26	3477.5	
317.46	3164.1	
317.67	4728.1	
317.88	5114.5	
318.09	3659.7	
318.3	2809.8	
318.5	4643.4	
318.71	4989.5	
318.92	4613.4	
319.13	3521.8	
319.34	5197.7	
319.54	5269.4	
319.75	2832.3	
319.96	2677.4	
320.17	5081.7	
320.38	5192.3	
320.58	2739.5	
320.79	3225.6	
321	5276.9	
321.21	5331.5	
321.42	3244.7	
321.62	2749.1	
321.83	4556	
322.04	4787.5	
322.25	3118.4	
322.46	3003.7	
322.66	4896.7	
322.87	5051.7	
323.08	3603.1	
323.29	2893.1	
323.5	5612.8	
323.7	4428.4	
323.91	3937.6	
324.12	3558	
324.33	4863.2	
324.53	5101.5	
324.74	3402.4	
324.95	3556	
325.16	4360.8	
325.37	4672.1	
325.57	2988	
325.78	3057.6	
325.99	4896	
326.2	4416.8	
326.4	4040.6	
326.61	2782.5	
326.82	4786.1	
327.03	4851	
327.24	4071.4	
327.44	3829	
327.65	5047.6	
327.86	4160.8	
328.07	3368.9	
328.27	2925.2	
328.48	5275.6	
328.69	4457.1	
328.9	4087.1	
329.1	3134.1	
329.31	4755.4	
329.52	5403.9	
329.73	2991.4	
329.93	3293.8	
330.14	4872.8	
330.35	4954	
330.56	4633.9	
330.76	3543.7	
330.97	4644.8	
331.18	4913.1	
331.39	3235.1	
331.59	2734	
331.8	5242.8	
332.01	5338.4	
332.22	3111.5	
332.42	3396.9	
332.63	4930.8	
332.84	4546.5	
333.05	3308.2	
333.25	3071.3	
333.46	4606.6	
333.67	4777.9	
333.88	3149.1	
334.08	3365.5	
334.29	6168.5	
334.5	5268.7	
334.7	2918.4	
334.91	4059.1	
335.12	4453.6	
335.33	5092.6	
335.53	3293.8	
335.74	4613.4	
335.95	4692.6	
336.16	4491.9	
336.36	3298.6	
336.57	3745.7	
336.78	4448.9	
336.98	5203.9	
337.19	3973.1	
337.4	3216.7	
337.61	5662.6	
337.81	4424.3	
338.02	3059	
338.23	3788.1	
338.43	5387.5	
338.64	4544.4	
338.85	3009.8	
339.05	3805.8	
339.26	5473.5	
339.47	4404.5	
339.68	3022.1	
339.88	4223.6	
340.09	5058.5	
340.3	5183.4	
340.5	3450.1	
340.71	2696.5	
340.92	4441.4	
341.13	5302.9	
341.33	2907.4	
341.54	3468.6	
341.75	5016.2	
341.95	4749.2	
342.16	3316.3	
342.37	3583.3	
342.57	4478.9	
342.78	4738.3	
342.99	3631.7	
343.19	2738.8	
343.4	5116.5	
343.61	4929.5	
343.81	3205.1	
344.02	2921.1	
344.23	5165	
344.43	5411.4	
344.64	3627	
344.85	3540.3	
345.06	5066	
345.26	5289.2	
345.47	3454.9	
345.68	3951.2	
345.88	4379.9	
346.09	5186.1	
346.3	3454.9	
346.5	2723.8	
346.71	4784.7	
346.92	4646.2	
347.12	2818	
347.33	3383.9	
347.54	5197.1	
347.74	5476.3	
347.95	3435.1	
348.16	2650.1	
348.36	4643.4	
348.57	4539	
348.78	3448.8	
348.98	3579.8	
349.19	4720.6	
349.39	4394.9	
349.6	2840.5	
349.81	3072.6	
350.01	5063.3	
350.22	4553.3	
350.43	3317.7	
350.63	3865.2	
350.84	4851.6	
351.05	4594.3	
351.25	3057.6	
351.46	2829.6	
351.67	5227.1	
351.87	4586.8	
352.08	3211.9	
352.29	3622.2	
352.49	5210	
352.7	5240.8	
352.9	2917.7	
353.11	3634.5	
353.32	5672.2	
353.52	4690.5	
353.73	2947.7	
353.94	3654.9	
354.14	5040.7	
354.35	4906.3	
354.55	3035.8	
354.76	3345.7	
354.97	5051	
355.17	4800.4	
355.38	2960.7	
355.59	3861.1	
355.79	4601.8	
356	4822.3	
356.2	3397.6	
356.41	3035.1	
356.62	4458.4	
356.82	4801.1	
357.03	3606.5	
357.24	3244.7	
357.44	4589.5	
357.65	4758.8	
357.85	4119.1	
358.06	3441.3	
358.27	4468.7	
358.47	4597	
358.68	2954.5	
358.88	3532.1	
359.09	5120.6	
359.3	5307	
359.5	4125.3	
359.71	3648.1	
359.91	5680.4	
360.12	5173.2	
360.33	3625.6	
360.53	3955.3	
360.74	4747.2	
360.94	4755.4	
361.15	3734.1	
361.36	3218.7	
361.56	5354.8	
361.77	4926.7	
361.97	4141	
362.18	3334.1	
362.38	5394.3	
362.59	4670.7	
362.8	3149.1	
363	3151.8	
363.21	4541	
363.41	5000.5	
363.62	3631.7	
363.83	4306.9	
364.03	5156.1	
364.24	5692	
364.44	4407.2	
364.65	4317.1	
364.85	4919.9	
365.06	4773.8	
365.27	3324.5	
365.47	3419.4	
365.68	5679.7	
365.88	4960.9	
366.09	3724.6	
366.29	3442	
366.5	5076.9	
366.71	5375.2	
366.91	4388.8	
367.12	3829.7	
367.32	5896.1	
367.53	5367.7	
367.73	3833.1	
367.94	4534.2	
368.14	5354.8	
368.35	5922.7	
368.56	3779.9	
368.76	3355.3	
368.97	5453.1	
369.17	6647.7	
369.38	3442	
369.58	3609.9	
369.79	4728.8	
369.99	5700.2	
370.2	4333.5	
370.4	3682.2	
370.61	5162.9	
370.82	6141.9	
371.02	3605.8	
371.23	3121.1	
371.43	4703.5	
371.64	5726.1	
371.84	3710.9	
372.05	4489.1	
372.25	6535.1	
372.46	5418.9	
372.66	3665.2	
372.87	3729.4	
373.07	5503.6	
373.28	6664.1	
373.48	4428.4	
373.69	4154.6	
373.9	5165.7	
374.1	5214.8	
374.31	4450.9	
374.51	4048.8	
374.72	5779.4	
374.92	5003.9	
375.13	4547.9	
375.33	4017.4	
375.54	5481	
375.74	5213.4	
375.95	4087.1	
376.15	5025.7	
376.36	5666.7	
376.56	5515.9	
376.77	4169.7	
376.97	4492.6	
377.18	6440.9	
377.38	5729.5	
377.59	4668.7	
377.79	3934.1	
378	5546.6	
378.2	5835.3	
378.41	4003.1	
378.61	3861.1	
378.82	5965.7	
379.02	5416.2	
379.23	4099.4	
379.43	4894	
379.64	6147.3	
379.84	5784.1	
380.05	4031.8	
380.25	3932.1	
380.46	5819	
380.66	5546.6	
380.87	4934.2	
381.07	5182	
381.28	6285.2	
381.48	5813.5	
381.69	4011.3	
381.89	4067.9	
382.1	5063.3	
382.3	5851	
382.51	4781.3	
382.71	5416.2	
382.91	5803.9	
383.12	6166.4	
383.32	4235.2	
383.53	4390.8	
383.73	5644.2	
383.94	5578.7	
384.14	4399.7	
384.35	3706.1	
384.55	5421.7	
384.76	5840.1	
384.96	4228.4	
385.17	4375.1	
385.37	5783.5	
385.58	5175.2	
385.78	4387.4	
385.98	3666.5	
386.19	5415.5	
386.39	5656.5	
386.6	4001.7	
386.8	4188.1	
387.01	5754.1	
387.21	5862	
387.42	4508.3	
387.62	4956.1	
387.83	5365	
388.03	5692.7	
388.23	4323.9	
388.44	4866.7	
388.64	5199.1	
388.85	5319.9	
389.05	4666	
389.26	5071.5	
389.46	6621.8	
389.67	6270.9	
389.87	4646.2	
390.07	4688.5	
390.28	5655.8	
390.48	5385.5	
390.69	4125.3	
390.89	4369	
391.1	5591	
391.3	6191.7	
391.5	5206.6	
391.71	5706.3	
391.91	6066.8	
392.12	6705	
392.32	5313.8	
392.53	4823	
392.73	5693.4	
392.93	5788.9	
393.14	4524.6	
393.34	5076.9	
393.55	6023.1	
393.75	5747.3	
393.95	4388.8	
394.16	4384	
394.36	5545.9	
394.57	5930.9	
394.77	4061.8	
394.98	4319.2	
395.18	5610.8	
395.38	5722.7	
395.59	5090.6	
395.79	4323.9	
396	5850.4	
396.2	6129.6	
396.4	5045.5	
396.61	4977.2	
396.81	6267.5	
397.02	5800.5	
397.22	5256.5	
397.42	5346.6	
397.63	6365.1	
397.83	5817.6	
398.04	4473.4	
398.24	4964.3	
398.44	6180.8	
398.65	5591	
398.85	4367.6	
399.05	4539	
399.26	5913.9	
399.46	7036.1	
399.67	4771.1	
399.87	4676.2	
400.07	6186.9	
400.28	6455.2	
400.48	4719.2	
400.69	5536.3	
400.89	6613.6	
401.09	7019.8	
401.3	4717.8	
401.5	5559.6	
401.7	7244.3	
401.91	7393.8	
402.11	5150	
402.32	5164.3	
402.52	6868.9	
402.72	6649.8	
402.93	5373.2	
403.13	4394.3	
403.33	7256	
403.54	6080.4	
403.74	4900.1	
403.94	5483.8	
404.15	6097.5	
404.35	6931.7	
404.56	4684.4	
404.76	5937.7	
404.96	6464.8	
405.17	6303	
405.37	5429.2	
405.57	5213.4	
405.78	6672.3	
405.98	6244.3	
406.18	4965.6	
406.39	5662	
406.59	6731	
406.79	6313.9	
407	4668.7	
407.2	4775.2	
407.4	6662.7	
407.61	6757.6	
407.81	4828.4	
408.01	6113.2	
408.22	5823.7	
408.42	7456	
408.62	5842.9	
408.83	5528.2	
409.03	6729.6	
409.23	6654.5	
409.44	5788.9	
409.64	5888.6	
409.84	7661.5	
410.05	7664.9	
410.25	6085.2	
410.45	5937.1	
410.66	7491.5	
410.86	9244.5	
411.06	6450.4	
411.27	6305	
411.47	9267.1	
411.67	7735.2	
411.88	6522.1	
412.08	6817.7	
412.28	8239.7	
412.49	8667	
412.69	6556.2	
412.89	6539.2	
413.09	8542.8	
413.3	8483.4	
413.5	6769.9	
413.7	6479.8	
413.91	7979.6	
414.11	8602.2	
414.31	6732.4	
414.52	7111.9	
414.72	8520.9	
414.92	8436.9	
415.12	6745.3	
415.33	7150.1	
415.53	8850.6	
415.73	8890.2	
415.94	7434.8	
416.14	7021.1	
416.34	8189.8	
416.55	7951.6	
416.75	7951.6	
416.95	7641.7	
417.15	9061.6	
417.36	9308	
417.56	8325.7	
417.76	7632.8	
417.97	9259.5	
418.17	9114.1	
418.37	7302.4	
418.57	7379.5	
418.78	9043.8	
418.98	8680	
419.18	8101.1	
419.38	7962.5	
419.59	8640.4	
419.79	8247.9	
419.99	7309.2	
420.2	7477.1	
420.4	9086.8	
420.6	9120.3	
420.8	7144	
421.01	7017	
421.21	9071.8	
421.41	9138	
421.61	7407.5	
421.82	7251.2	
422.02	8822	
422.22	9388.6	
422.42	8002.8	
422.63	7462.1	
422.83	8810.4	
423.03	9729.9	
423.23	7582.3	
423.44	6869.6	
423.64	8779	
423.84	8422.6	
424.04	7096.9	
424.25	6861.4	
424.45	9347.6	
424.65	9199.5	
424.85	6709.1	
425.06	7159.7	
425.26	9403.6	
425.46	8564.6	
425.66	7494.2	
425.87	7246.4	
426.07	9166	
426.27	9012.4	
426.47	7436.9	
426.67	6865.5	
426.88	9325.1	
427.08	8912.1	
427.28	7644.4	
427.48	6761.7	
427.69	8076.5	
427.89	8639.7	
428.09	7516.7	
428.29	6845.7	
428.5	8994.7	
428.7	8703.2	
428.9	6880.5	
429.1	7189.7	
429.3	8808.3	
429.51	9086.8	
429.71	6973.3	
429.91	7727.7	
430.11	9140.1	
430.31	9282.8	
430.52	7445.7	
430.72	7712.7	
430.92	9573.6	
431.12	9129.2	
431.32	7283.9	
431.53	7507.2	
431.73	8450.6	
431.93	9607.7	
432.13	7107.8	
432.33	7146.7	
432.54	8737.3	
432.74	8965.3	
432.94	7171.3	
433.14	7874.4	
433.34	9271.2	
433.55	9095	
433.75	7897	
433.95	9404.3	
434.15	9254.1	
434.35	8961.9	
434.56	7340.6	
434.76	7228.6	
434.96	9224.1	
435.16	9570.2	
435.36	7367.9	
435.56	8387.8	
435.77	9197.4	
435.97	9354.4	
436.17	8979.7	
436.37	8406.9	
436.57	9232.9	
436.78	9345.6	
436.98	9596.1	
437.18	8843.1	
437.38	9960	
437.58	9351.7	
437.78	8910.7	
437.99	7968.6	
438.19	9602.9	
438.39	10250	
438.59	7828	
438.79	7329.7	
438.99	10157	
439.2	9104.6	
439.4	7187.7	
439.6	7243	
439.8	9328.5	
440	10268	
440.2	8350.3	
440.4	8351.6	
440.61	10042	
440.81	10421	
441.01	7998.7	
441.21	8745.5	
441.41	10677	
441.61	10339	
441.81	9161.9	
442.02	9802.3	
442.22	11091	
442.42	10397	
442.62	8277.2	
442.82	8150.2	
443.02	10758	
443.22	10131	
443.43	8775.5	
443.63	8296.3	
443.83	9923.8	
444.03	9871.9	
444.23	9466.4	
444.43	8981	
444.63	10502	
444.83	11205	
445.04	8624	
445.24	9628.2	
445.44	10641	
445.64	10712	
445.84	9058.2	
446.04	9141.4	
446.24	10032	
446.44	10876	
446.65	8284	
446.85	8732.5	
447.05	10099	
447.25	10738	
447.45	8654	
447.65	8202.1	
447.85	10191	
448.05	9694.4	
448.25	9066.4	
448.46	8925.7	
448.66	10209	
448.86	9851.4	
449.06	8166.6	
449.26	9061.6	
449.46	10705	
449.66	9772.2	
449.86	8889.5	
450.06	8736	
450.26	10038	
450.47	10538	
450.67	8953	
450.87	9282.8	
451.07	10689	
451.27	10514	
451.47	8473.8	
451.67	9064.3	
451.87	10313	
452.07	11010	
452.27	8987.2	
452.47	8705.9	
452.67	10532	
452.88	10942	
453.08	8185.7	
453.28	9849.4	
453.48	11522	
453.68	10219	
453.88	8911.4	
454.08	8865	
454.28	10873	
454.48	10621	
454.68	9336	
454.88	9611.1	
455.08	10975	
455.28	10957	
455.48	8602.8	
455.68	9430.2	
455.89	11521	
456.09	11264	
456.29	9212.4	
456.49	9402.2	
456.69	11600	
456.89	10819	
457.09	9792	
457.29	10232	
457.49	11314	
457.69	11531	
457.89	10101	
458.09	9321.7	
458.29	11430	
458.49	12018	
458.69	10414	
458.89	10016	
459.09	12420	
459.29	12341	
459.49	9960	
459.69	10724	
459.9	11838	
460.1	11704	
460.3	9755.2	
460.5	9727.2	
460.7	11977	
460.9	11669	
461.1	9615.2	
461.3	10682	
461.5	12708	
461.7	12290	
461.9	10253	
462.1	10376	
462.3	12271	
462.5	12680	
462.7	10266	
462.9	10572	
463.1	13488	
463.3	13338	
463.5	10720	
463.7	11685	
463.9	12696	
464.1	12917	
464.3	11374	
464.5	11428	
464.7	13205	
464.9	13302	
465.1	12437	
465.3	11865	
465.5	13512	
465.7	13787	
465.9	12207	
466.1	11657	
466.3	13786	
466.5	13446	
466.7	12950	
466.9	11850	
467.1	13798	
467.3	14361	
467.5	12916	
467.7	12129	
467.9	14635	
468.1	15275	
468.3	12585	
468.5	13060	
468.7	14018	
468.9	13895	
469.1	12592	
469.3	13186	
469.5	15576	
469.7	13850	
469.9	12678	
470.1	12506	
470.3	14228	
470.5	14207	
470.7	13364	
470.9	12485	
471.1	14037	
471.3	14059	
471.5	12428	
471.69	13762	
471.89	13834	
472.09	13352	
472.29	13003	
472.49	12879	
472.69	13654	
472.89	14141	
473.09	12218	
473.29	12025	
473.49	13708	
473.69	13522	
473.89	12863	
474.09	12192	
474.29	14566	
474.49	14128	
474.69	12857	
474.89	12349	
475.09	13672	
475.29	13706	
475.49	11703	
475.69	12286	
475.88	14775	
476.08	13953	
476.28	11839	
476.48	11862	
476.68	14035	
476.88	13801	
477.08	11848	
477.28	12117	
477.48	13409	
477.68	13865	
477.88	11770	
478.08	11992	
478.28	14356	
478.48	13543	
478.67	12120	
478.87	11441	
479.07	14311	
479.27	13583	
479.47	12312	
479.67	12283	
479.87	14188	
480.07	14403	
480.27	11814	
480.47	12865	
480.67	13722	
480.87	14282	
481.06	11966	
481.26	12613	
481.46	13868	
481.66	13710	
481.86	12423	
482.06	13068	
482.26	13583	
482.46	14285	
482.66	12285	
482.86	12013	
483.05	13936	
483.25	13420	
483.45	14251	
483.65	12265	
483.85	13658	
484.05	13916	
484.25	12664	
484.45	13243	
484.65	14335	
484.84	14780	
485.04	12496	
485.24	12527	
485.44	15023	
485.64	13753	
485.84	12151	
486.04	13197	
486.24	14016	
486.44	14314	
486.63	12205	
486.83	12962	
487.03	14169	
487.23	14463	
487.43	12275	
487.63	14033	
487.83	14491	
488.02	15204	
488.22	13276	
488.42	13873	
488.62	15305	
488.82	14412	
489.02	13003	
489.22	13218	
489.41	15063	
489.61	15100	
489.81	12861	
490.01	12867	
490.21	15265	
490.41	15793	
490.61	12955	
490.8	12990	
491	14927	
491.2	14336	
491.4	13566	
491.6	12829	
491.8	14724	
491.99	14508	
492.19	12516	
492.39	12673	
492.59	14932	
492.79	15076	
492.99	13517	
493.18	12872	
493.38	15335	
493.58	16099	
493.78	13768	
493.98	13375	
494.18	15341	
494.37	15103	
494.57	14257	
494.77	14189	
494.97	16127	
495.17	16372	
495.37	14371	
495.56	14540	
495.76	16804	
495.96	16459	
496.16	15461	
496.36	14614	
496.55	16753	
496.75	16625	
496.95	15013	
497.15	14974	
497.35	16799	
497.54	16955	
497.74	14858	
497.94	16325	
498.14	17398	
498.34	17179	
498.53	14577	
498.73	15267	
498.93	16488	
499.13	16980	
499.33	15470	
499.52	15616	
499.72	17346	
499.92	17288	
500.12	15213	
500.32	15546	
500.51	17608	
500.71	17342	
500.91	16044	
501.11	15851	
501.31	17445	
501.5	17768	
501.7	16429	
501.9	15563	
502.1	17199	
502.29	17577	
502.49	16075	
502.69	16203	
502.89	17537	
503.09	17539	
503.28	14917	
503.48	15070	
503.68	16719	
503.88	16775	
504.07	15765	
504.27	15225	
504.47	16989	
504.67	16890	
504.86	15522	
505.06	15457	
505.26	16554	
505.46	17759	
505.65	15226	
505.85	15188	
506.05	16404	
506.25	16668	
506.44	14405	
506.64	14943	
506.84	16121	
507.04	16524	
507.23	14463	
507.43	14769	
507.63	17536	
507.83	16135	
508.02	14947	
508.22	14661	
508.42	17823	
508.62	16070	
508.81	14792	
509.01	15197	
509.21	15838	
509.4	16102	
509.6	14773	
509.8	14504	
510	16095	
510.19	17182	
510.39	14493	
510.59	14524	
510.79	16050	
510.98	17291	
511.18	14629	
511.38	14847	
511.57	16686	
511.77	16479	
511.97	15055	
512.17	14456	
512.36	16680	
512.56	16334	
512.76	14349	
512.95	14037	
513.15	16642	
513.35	15566	
513.55	15081	
513.74	14339	
513.94	16640	
514.14	16100	
514.33	15119	
514.53	14870	
514.73	16137	
514.92	16264	
515.12	14601	
515.32	14451	
515.51	16389	
515.71	16678	
515.91	15782	
516.11	14610	
516.3	17864	
516.5	16214	
516.7	15048	
516.89	15486	
517.09	16283	
517.29	16346	
517.48	15326	
517.68	14763	
517.88	16092	
518.07	16595	
518.27	15273	
518.47	14421	
518.66	16903	
518.86	15900	
519.06	14184	
519.25	14731	
519.45	16186	
519.65	17466	
519.84	15337	
520.04	15858	
520.24	17782	
520.43	16724	
520.63	14895	
520.83	14859	
521.02	16014	
521.22	16363	
521.42	14902	
521.61	15455	
521.81	16125	
522.01	16142	
522.2	14887	
522.4	14584	
522.6	16604	
522.79	15722	
522.99	14738	
523.18	14488	
523.38	16762	
523.58	16765	
523.77	16201	
523.97	14721	
524.17	18417	
524.36	17850	
524.56	16064	
524.76	15814	
524.95	17452	
525.15	17010	
525.34	15982	
525.54	16016	
525.74	17983	
525.93	17157	
526.13	16952	
526.33	16362	
526.52	18412	
526.72	18102	
526.91	17232	
527.11	16736	
527.31	18523	
527.5	18854	
527.7	16791	
527.89	16237	
528.09	18032	
528.29	18437	
528.48	17090	
528.68	16745	
528.87	18703	
529.07	18536	
529.27	16966	
529.46	16623	
529.66	18563	
529.85	18971	
530.05	16619	
530.25	17103	
530.44	19755	
530.64	18415	
530.83	16698	
531.03	16970	
531.23	18740	
531.42	18623	
531.62	17458	
531.81	16903	
532.01	19017	
532.21	19435	
532.4	17130	
532.6	17565	
532.79	20060	
532.99	19512	
533.18	17979	
533.38	18464	
533.58	19519	
533.77	20023	
533.97	18139	
534.16	18591	
534.36	20377	
534.55	19773	
534.75	18916	
534.95	18355	
535.14	20689	
535.34	19624	
535.53	17894	
535.73	19455	
535.92	20904	
536.12	19540	
536.31	17996	
536.51	18833	
536.71	19766	
536.9	19541	
537.1	17842	
537.29	18039	
537.49	20002	
537.68	19450	
537.88	18423	
538.07	17731	
538.27	19652	
538.46	20378	
538.66	17845	
538.86	18195	
539.05	19759	
539.25	20273	
539.44	18694	
539.64	18028	
539.83	19744	
540.03	20471	
540.22	18090	
540.42	17848	
540.61	19631	
540.81	19804	
541	18080	
541.2	18753	
541.39	19157	
541.59	19627	
541.78	18450	
541.98	17688	
542.18	19062	
542.37	18952	
542.57	17832	
542.76	18547	
542.96	18933	
543.15	19442	
543.35	17751	
543.54	17249	
543.74	19206	
543.93	19011	
544.13	17336	
544.32	18203	
544.52	19077	
544.71	18468	
544.91	16665	
545.1	17449	
545.3	18604	
545.49	18950	
545.69	16515	
545.88	16944	
546.08	19841	
546.27	19243	
546.47	17404	
546.66	16791	
546.86	18921	
547.05	19336	
547.24	16888	
547.44	16951	
547.63	18091	
547.83	19099	
548.02	17222	
548.22	17126	
548.41	18023	
548.61	18935	
548.8	16561	
549	16751	
549.19	18531	
549.39	18722	
549.58	16232	
549.78	16980	
549.97	18714	
550.17	18086	
550.36	17227	
550.55	17919	
550.75	18081	
550.94	18839	
551.14	16253	
551.33	16307	
551.53	17532	
551.72	18182	
551.92	16396	
552.11	16240	
552.31	18144	
552.5	17989	
552.69	17527	
552.89	15879	
553.08	18181	
553.28	17786	
553.47	16229	
553.67	17165	
553.86	18389	
554.06	17172	
554.25	15470	
554.44	15913	
554.64	18889	
554.83	18641	
555.03	15902	
555.22	16210	
555.42	18032	
555.61	17765	
555.8	15927	
556	16008	
556.19	17133	
556.39	18027	
556.58	15967	
556.78	15941	
556.97	17619	
557.16	17486	
557.36	16938	
557.55	15610	
557.75	16785	
557.94	18269	
558.13	15651	
558.33	15515	
558.52	18142	
558.72	17174	
558.91	15565	
559.1	15776	
559.3	16926	
559.49	16545	
559.69	15139	
559.88	15836	
560.07	17361	
560.27	17717	
560.46	15967	
560.66	16143	
560.85	17274	
561.04	16510	
561.24	15264	
561.43	15397	
561.63	16531	
561.82	16929	
562.01	16311	
562.21	15646	
562.4	17176	
562.59	17933	
562.79	15494	
562.98	15339	
563.18	17096	
563.37	18153	
563.56	15933	
563.76	15440	
563.95	16976	
564.14	16887	
564.34	15879	
564.53	15477	
564.73	17246	
564.92	17583	
565.11	15871	
565.31	15565	
565.5	17849	
565.69	16956	
565.89	15558	
566.08	15892	
566.27	17795	
566.47	18292	
566.66	16418	
566.85	15583	
567.05	17620	
567.24	17109	
567.44	15696	
567.63	16651	
567.82	17789	
568.02	17578	
568.21	15693	
568.4	15925	
568.6	17508	
568.79	17502	
568.98	15730	
569.18	15813	
569.37	17802	
569.56	19156	
569.76	16207	
569.95	17037	
570.14	17856	
570.34	17867	
570.53	15811	
570.72	15828	
570.91	18447	
571.11	17642	
571.3	16252	
571.49	16800	
571.69	17714	
571.88	17327	
572.07	16702	
572.27	16528	
572.46	17271	
572.65	18039	
572.85	16007	
573.04	16402	
573.23	18430	
573.43	17826	
573.62	15899	
573.81	16500	
574	18142	
574.2	17981	
574.39	16367	
574.58	16608	
574.78	18918	
574.97	18157	
575.16	16990	
575.36	17118	
575.55	18967	
575.74	18841	
575.93	16238	
576.13	17438	
576.32	18256	
576.51	18795	
576.71	16932	
576.9	17892	
577.09	19166	
577.28	18577	
577.48	17119	
577.67	16408	
577.86	18446	
578.05	18673	
578.25	16975	
578.44	16921	
578.63	18466	
578.83	19441	
579.02	16578	
579.21	17819	
579.4	18740	
579.6	18528	
579.79	16986	
579.98	18868	
580.17	18961	
580.37	19152	
580.56	16530	
580.75	17313	
580.94	19246	
581.14	19197	
581.33	17701	
581.52	16804	
581.71	18901	
581.91	19527	
582.1	16802	
582.29	16943	
582.48	18637	
582.68	18622	
582.87	17500	
583.06	17301	
583.25	18961	
583.45	18466	
583.64	17916	
583.83	18310	
584.02	18716	
584.21	19132	
584.41	17693	
584.6	17367	
584.79	18783	
584.98	19426	
585.18	16932	
585.37	16954	
585.56	18581	
585.75	19095	
585.94	16918	
586.14	17552	
586.33	19315	
586.52	18692	
586.71	17285	
586.91	17075	
587.1	17931	
587.29	18850	
587.48	16534	
587.67	16668	
587.87	18471	
588.06	18473	
588.25	17447	
588.44	16943	
588.63	18043	
588.83	18516	
589.02	16468	
589.21	16161	
589.4	17746	
589.59	17723	
589.78	15358	
589.98	15447	
590.17	16754	
590.36	17208	
590.55	14493	
590.74	14860	
590.94	17595	
591.13	16371	
591.32	14505	
591.51	14160	
591.7	16759	
591.89	16393	
592.09	14536	
592.28	14832	
592.47	15810	
592.66	17502	
592.85	14539	
593.05	14772	
593.24	16380	
593.43	17141	
593.62	14825	
593.81	15092	
594	16584	
594.19	16732	
594.39	14700	
594.58	14641	
594.77	16830	
594.96	17021	
595.15	14532	
595.34	15005	
595.54	16652	
595.73	15895	
595.92	13928	
596.11	14762	
596.3	16942	
596.49	15915	
596.68	14524	
596.88	14934	
597.07	16464	
597.26	15694	
597.45	14081	
597.64	15139	
597.83	15917	
598.02	16432	
598.22	14269	
598.41	14722	
598.6	16291	
598.79	15645	
598.98	14230	
599.17	14858	
599.36	16221	
599.55	16888	
599.74	15728	
599.94	15371	
600.13	16474	
600.32	15522	
600.51	13885	
600.7	13963	
600.89	16938	
601.08	16978	
601.27	13938	
601.47	14515	
601.66	16283	
601.85	16842	
602.04	14337	
602.23	14317	
602.42	15614	
602.61	16029	
602.8	14092	
602.99	13872	
603.18	15692	
603.37	15909	
603.57	14205	
603.76	14749	
603.95	16352	
604.14	16012	
604.33	14047	
604.52	14187	
604.71	16063	
604.9	15574	
605.09	14682	
605.28	14375	
605.47	16375	
605.66	15976	
605.86	14381	
606.05	13970	
606.24	16232	
606.43	15089	
606.62	14177	
606.81	14723	
607	16085	
607.19	15599	
607.38	13640	
607.57	13740	
607.76	15332	
607.95	14829	
608.14	14151	
608.33	14481	
608.52	15317	
608.72	15909	
608.91	13412	
609.1	13393	
609.29	15312	
609.48	14853	
609.67	14078	
609.86	13309	
610.05	14958	
610.24	15111	
610.43	13404	
610.62	13043	
610.81	15887	
611	15821	
611.19	13382	
611.38	13777	
611.57	15289	
611.76	16221	
611.95	13031	
612.14	12886	
612.33	15081	
612.52	14842	
612.71	13454	
612.9	12787	
613.09	14494	
613.28	16178	
613.47	13378	
613.66	13936	
613.85	15219	
614.04	14663	
614.24	13316	
614.43	12603	
614.62	15250	
614.81	15190	
615	13650	
615.19	13781	
615.38	14699	
615.57	15143	
615.76	13530	
615.95	14405	
616.14	15414	
616.33	15046	
616.52	13884	
616.71	13934	
616.9	15237	
617.09	15198	
617.28	13319	
617.47	14204	
617.66	14732	
617.85	14729	
618.04	14186	
618.22	13735	
618.41	15181	
618.6	15934	
618.79	13788	
618.98	13679	
619.17	16328	
619.36	14801	
619.55	13841	
619.74	13981	
619.93	15549	
620.12	15241	
620.31	14345	
620.5	14455	
620.69	16452	
620.88	16723	
621.07	15138	
621.26	14527	
621.45	16088	
621.64	16065	
621.83	14707	
622.02	14025	
622.21	16135	
622.4	16057	
622.59	15147	
622.78	15015	
622.97	15879	
623.16	16535	
623.35	14665	
623.54	13996	
623.72	16019	
623.91	15979	
624.1	14896	
624.29	14031	
624.48	16891	
624.67	16214	
624.86	14937	
625.05	14240	
625.24	16868	
625.43	15730	
625.62	16106	
625.81	14414	
626	16427	
626.19	16089	
626.38	14949	
626.56	14484	
626.75	15905	
626.94	16507	
627.13	14980	
627.32	13984	
627.51	16354	
627.7	17299	
627.89	14018	
628.08	14851	
628.27	15759	
628.46	15899	
628.65	14216	
628.83	13889	
629.02	16317	
629.21	15646	
629.4	14414	
629.59	14664	
629.78	15795	
629.97	16269	
630.16	14670	
630.35	14227	
630.54	16923	
630.72	16570	
630.91	14338	
631.1	14674	
631.29	16111	
631.48	16121	
631.67	14730	
631.86	14277	
632.05	15879	
632.24	15834	
632.42	13999	
632.61	14606	
632.8	15880	
632.99	15616	
633.18	14662	
633.37	14662	
633.56	16032	
633.75	16025	
633.93	14547	
634.12	14274	
634.31	16642	
634.5	16315	
634.69	14393	
634.88	14678	
635.07	15922	
635.25	16335	
635.44	14906	
635.63	15158	
635.82	15682	
636.01	15171	
636.2	14732	
636.39	14451	
636.57	16528	
636.76	16137	
636.95	14017	
637.14	14967	
637.33	16073	
637.52	16495	
637.7	13810	
637.89	14591	
638.08	15692	
638.27	16716	
638.46	14572	
638.65	14793	
638.83	16552	
639.02	15380	
639.21	14320	
639.4	14783	
639.59	15709	
639.78	15380	
639.96	13573	
640.15	13696	
640.34	15460	
640.53	15422	
640.72	13493	
640.91	13633	
641.09	14919	
641.28	15710	
641.47	13620	
641.66	14154	
641.85	15426	
642.03	15429	
642.22	13979	
642.41	13564	
642.6	15019	
642.79	14504	
642.97	13323	
643.16	13857	
643.35	14757	
643.54	14507	
643.73	13219	
643.91	13803	
644.1	14297	
644.29	14856	
644.48	12962	
644.67	13042	
644.85	14358	
645.04	14615	
645.23	12513	
645.42	12883	
645.6	14044	
645.79	14922	
645.98	12507	
646.17	11761	
646.36	13557	
646.54	13747	
646.73	12882	
646.92	12013	
647.11	13433	
647.29	14229	
647.48	11977	
647.67	11807	
647.86	14259	
648.05	14590	
648.23	12085	
648.42	13059	
648.61	13881	
648.8	13659	
648.98	11718	
649.17	12067	
649.36	13231	
649.55	12895	
649.73	11716	
649.92	12428	
650.11	13297	
650.3	13560	
650.48	11842	
650.67	11823	
650.86	13659	
651.05	12810	
651.23	11688	
651.42	11737	
651.61	13246	
651.79	13017	
651.98	11868	
652.17	11489	
652.36	13376	
652.54	12619	
652.73	11366	
652.92	11324	
653.11	13379	
653.29	13379	
653.48	10890	
653.67	11615	
653.85	13140	
654.04	13916	
654.23	11599	
654.42	11338	
654.6	12533	
654.79	12848	
654.98	10564	
655.16	10770	
655.35	11848	
655.54	11552	
655.73	10292	
655.91	10238	
656.1	12393	
656.29	11616	
656.47	9923.1	
656.66	11277	
656.85	12088	
657.03	12015	
657.22	10690	
657.41	10785	
657.59	12171	
657.78	12035	
657.97	10527	
658.16	11021	
658.34	12848	
658.53	13033	
658.72	11763	
658.9	12065	
659.09	12445	
659.28	12462	
659.46	10972	
659.65	10746	
659.84	12205	
660.02	12652	
660.21	10921	
660.4	10603	
660.58	12934	
660.77	12448	
660.96	11174	
661.14	10441	
661.33	13300	
661.52	13154	
661.7	10465	
661.89	13143	
662.08	11987	
662.26	11672	
662.45	10654	
662.64	10535	
662.82	12615	
663.01	11898	
663.2	10580	
663.38	11166	
663.57	12407	
663.75	12338	
663.94	10746	
664.13	11654	
664.31	11851	
664.5	12500	
664.69	10959	
664.87	11371	
665.06	11734	
665.25	12328	
665.43	11555	
665.62	11547	
665.8	12381	
665.99	11897	
666.18	10613	
666.36	10701	
666.55	12470	
666.74	12505	
666.92	10424	
667.11	11585	
667.29	11989	
667.48	12360	
667.67	11206	
667.85	10526	
668.04	11929	
668.22	11820	
668.41	10623	
668.6	10774	
668.78	11785	
668.97	11845	
669.15	10843	
669.34	10113	
669.53	11776	
669.71	12099	
669.9	10205	
670.08	10750	
670.27	11662	
670.46	12125	
670.64	10906	
670.83	11074	
671.01	11475	
671.2	11993	
671.38	10239	
671.57	10127	
671.76	12606	
671.94	12940	
672.13	10135	
672.31	10886	
672.5	12273	
672.69	11658	
672.87	10271	
673.06	10585	
673.24	12070	
673.43	11794	
673.61	10678	
673.8	10372	
673.98	12007	
674.17	12248	
674.36	10936	
674.54	10686	
674.73	11847	
674.91	12244	
675.1	10520	
675.28	10141	
675.47	11761	
675.65	12263	
675.84	10430	
676.03	10712	
676.21	11521	
676.4	11160	
676.58	10926	
676.77	10808	
676.95	12622	
677.14	11592	
677.32	10162	
677.51	10114	
677.69	12175	
677.88	11380	
678.06	10065	
678.25	10162	
678.44	11809	
678.62	11400	
678.81	9871.9	
678.99	10820	
679.18	12237	
679.36	12156	
679.55	10443	
679.73	10858	
679.92	11982	
680.1	11695	
680.29	11307	
680.47	10232	
680.66	11441	
680.84	12161	
681.03	9904	
681.21	10655	
681.4	11522	
681.58	11475	
681.77	10150	
681.95	10007	
682.14	12178	
682.32	12278	
682.51	10828	
682.69	9807.7	
682.88	11379	
683.06	11678	
683.25	10477	
683.43	10772	
683.62	11694	
683.8	11913	
683.99	10816	
684.17	10299	
684.36	12570	
684.54	11355	
684.73	9516.2	
684.91	9570.8	
685.1	11292	
685.28	10684	
685.46	9679.4	
685.65	9616.6	
685.83	11099	
686.02	10582	
686.2	9107.3	
686.39	9224.1	
686.57	10449	
686.76	11622	
686.94	9231.6	
687.13	9408.4	
687.31	11061	
687.5	10774	
687.68	9022	
687.86	9920.4	
688.05	12177	
688.23	10405	
688.42	9984.5	
688.6	9493	
688.79	10871	
688.97	10911	
689.16	9905.3	
689.34	9033.6	
689.52	11501	
689.71	11685	
689.89	10116	
690.08	9585.2	
690.26	11211	
690.45	11099	
690.63	10258	
690.81	9914.9	
691	11175	
691.18	11017	
691.37	9806.4	
691.55	11365	
691.74	10841	
691.92	12343	
692.1	9693.7	
692.29	9203.6	
692.47	10918	
692.66	10438	
692.84	9431.6	
693.02	9825.5	
693.21	10539	
693.39	10820	
693.58	10033	
693.76	9508	
693.94	11898	
694.13	11837	
694.31	9719	
694.5	10485	
694.68	11030	
694.86	11394	
695.05	10088	
695.23	10394	
695.42	11695	
695.6	13418	
695.78	10584	
695.97	9905.3	
696.15	11802	
696.34	11265	
696.52	9764.7	
696.7	10288	
696.89	11551	
697.07	10940	
697.25	10221	
697.44	11247	
697.62	11371	
697.81	11584	
697.99	9793.4	
698.17	10301	
698.36	10805	
698.54	11215	
698.72	10081	
698.91	9290.3	
699.09	11021	
699.28	10855	
699.46	9821.4	
699.64	9713.5	
699.83	10735	
700.01	11530	
700.19	10250	
700.38	9187.2	
700.56	11619	
700.74	10826	
700.93	9454.1	
701.11	9994.8	
701.29	11383	
701.48	12178	
701.66	9620	
701.84	9799.5	
702.03	11110	
702.21	11769	
702.39	9325.1	
702.58	9984.5	
702.76	11467	
702.94	11559	
703.13	9432.3	
703.31	11236	
703.49	10981	
703.68	11813	
703.86	9471.9	
704.04	10299	
704.23	11220	
704.41	11486	
704.59	9621.4	
704.78	10455	
704.96	12463	
705.14	11562	
705.33	9582.4	
705.51	9969.5	
705.69	11067	
705.87	11772	
706.06	10155	
706.24	9369.5	
706.42	11312	
706.61	11565	
706.79	10260	
706.97	9405	
707.16	10797	
707.34	11295	
707.52	10103	
707.7	9564	
707.89	10892	
708.07	10672	
708.25	10211	
708.44	10262	
708.62	10820	
708.8	11608	
708.98	10297	
709.17	9493.7	
709.35	11087	
709.53	11113	
709.72	9255.5	
709.9	9572.9	
710.08	11303	
710.26	11282	
710.45	10426	
710.63	9485.5	
710.81	10957	
710.99	10914	
711.18	9902.6	
711.36	9427.5	
711.54	10707	
711.72	11206	
711.91	9546.3	
712.09	8982.4	
712.27	10741	
712.45	11111	
712.64	9318.9	
712.82	8671.1	
713	10105	
713.18	10096	
713.37	8595.3	
713.55	9525.8	
713.73	10689	
713.91	9494.4	
714.1	8531.2	
714.28	8028.7	
714.46	9891	
714.64	9195.4	
714.83	7209.5	
715.01	7667.6	
715.19	8880	
715.37	8250.6	
715.55	7162.4	
715.74	7268.2	
715.92	9374.2	
716.1	7657.4	
716.28	8088.8	
716.47	7288.7	
716.65	8310	
716.83	8255.4	
717.01	7168.6	
717.19	7087.3	
717.38	9802.9	
717.56	7958.4	
717.74	7393.8	
717.92	6667.5	
718.1	8940.7	
718.29	8391.9	
718.47	6672.3	
718.65	7152.2	
718.83	9125.1	
719.01	9258.9	
719.2	6802	
719.38	7735.2	
719.56	9007	
719.74	10333	
719.92	7421.2	
720.11	8159.1	
720.29	9118.2	
720.47	8377.6	
720.65	6922.1	
720.83	7404.1	
721.02	8348.9	
721.2	8145.5	
721.38	7227.3	
721.56	6677.1	
721.74	7630.7	
721.92	7683.3	
722.11	7506.5	
722.29	7275.8	
722.47	8649.9	
722.65	8045.1	
722.83	6561.7	
723.01	7129.7	
723.2	8018.5	
723.38	8285.4	
723.56	6090.7	
723.74	6974.7	
723.92	7658	
724.1	8637.6	
724.29	6450.4	
724.47	7288.7	
724.65	7854	
724.83	7638.9	
725.01	6296.1	
725.19	6984.3	
725.37	7618.4	
725.56	7634.1	
725.74	6191.7	
725.92	6442.2	
726.1	7623.9	
726.28	7792.5	
726.46	6589.7	
726.64	6421.1	
726.83	7785.7	
727.01	7989.1	
727.19	6154.8	
727.37	6825.2	
727.55	7888.8	
727.73	8314.1	
727.91	6105	
728.09	5986.2	
728.28	8213	
728.46	8453.3	
728.64	6856.6	
728.82	6877.1	
729	8987.9	
729.18	8480	
729.36	6243.6	
729.54	7854.6	
729.72	9379	
729.91	8161.2	
730.09	7804.1	
730.27	6905.8	
730.45	8112	
730.63	8469	
730.81	7332.4	
730.99	6690	
731.17	9004.9	
731.35	7981.6	
731.53	6992.4	
731.71	6782.2	
731.9	8837	
732.08	8752.3	
732.26	6795.8	
732.44	6640.9	
732.62	8854.7	
732.8	8503.2	
732.98	7171.3	
733.16	6413.6	
733.34	8372.8	
733.52	7429.3	
733.7	6729.6	
733.88	6886.6	
734.07	8159.8	
734.25	8033.5	
734.43	6376.7	
734.61	7465.5	
734.79	9185.8	
734.97	7940.7	
735.15	6414.9	
735.33	6615.6	
735.51	8207.6	
735.69	7843.7	
735.87	7428.7	
736.05	6716	
736.23	7971.4	
736.41	7729.7	
736.59	6593.8	
736.77	6637.5	
736.95	8387.1	
737.13	7912.7	
737.32	6294.8	
737.5	6481.8	
737.68	8698.4	
737.86	7710.6	
738.04	6204.7	
738.22	7477.8	
738.4	7523.6	
738.58	7708.6	
738.76	6530.3	
738.94	5813.5	
739.12	7564.5	
739.3	7608.9	
739.48	6973.3	
739.66	6773.3	
739.84	7747.5	
740.02	7793.9	
740.2	5865.4	
740.38	5995.1	
740.56	8008.2	
740.74	7101	
740.92	6437.4	
741.1	6343.2	
741.28	7529.7	
741.46	7266.2	
741.64	6036.7	
741.82	6452.5	
742	7558.4	
742.18	7434.1	
742.36	6199.2	
742.54	5877.7	
742.72	7972.7	
742.9	6895.5	
743.08	6436.1	
743.26	5572.5	
743.44	7905.8	
743.62	7835.5	
743.8	6498.9	
743.98	5779.4	
744.16	7602.7	
744.34	7326.3	
744.52	6365.1	
744.7	6262.7	
744.88	7598.6	
745.06	7266.2	
745.24	6347.3	
745.42	6380.8	
745.6	7757	
745.78	7503.1	
745.96	5440.1	
746.14	5586.9	
746.32	8103.8	
746.5	7509.9	
746.68	5997.8	
746.86	5617.6	
747.03	7761.1	
747.21	6586.3	
747.39	5975.3	
747.57	5507	
747.75	7172.7	
747.93	7381.6	
748.11	5461.2	
748.29	5503.6	
748.47	8390.5	
748.65	6903	
748.83	6035.4	
749.01	5797.8	
749.19	7191.1	
749.37	6645.7	
749.55	5729.5	
749.73	5709.7	
749.91	6989	
750.09	6804	
750.26	5836.7	
750.44	5297.4	
750.62	6992.4	
750.8	6929.6	
750.98	5260.5	
751.16	5434.6	
751.34	7094.8	
751.52	6450.4	
751.7	6021.7	
751.88	5116.5	
752.06	7325.6	
752.24	7189.7	
752.42	5057.8	
752.59	5384.1	
752.77	6814.3	
752.95	7769.3	
753.13	5870.2	
753.31	5461.9	
753.49	6632.7	
753.67	6919.4	
753.85	5563	
754.03	5257.1	
754.21	7123.5	
754.38	7356.3	
754.56	5240.1	
754.74	4579.3	
754.92	6320.7	
755.1	6770.6	
755.28	4435.9	
755.46	4343.7	
755.64	7193.8	
755.82	7182.2	
755.99	4287.1	
756.17	4229.7	
756.35	5044.8	
756.53	6092	
756.71	3294.5	
756.89	3966.9	
757.07	5742.5	
757.25	5156.8	
757.42	4443.4	
757.6	5190.2	
757.78	5933	
757.96	5231.2	
758.14	4332.1	
758.32	3921.2	
758.5	5009.3	
758.67	5591	
758.85	4138.3	
759.03	4287.8	
759.21	5701.5	
759.39	5268.7	
759.57	3824.2	
759.75	4694.6	
759.92	6239.5	
760.1	5780.1	
760.28	4998.4	
760.46	5227.8	
760.64	5603.2	
760.82	5485.1	
760.99	5043.5	
761.17	4392.2	
761.35	6217	
761.53	5487.9	
761.71	4503.5	
761.89	5054.4	
762.06	6127.5	
762.24	5760.3	
762.42	4687.1	
762.6	4472.8	
762.78	5901.6	
762.96	6306.4	
763.13	5005.9	
763.31	4693.9	
763.49	6414.9	
763.67	5861.3	
763.85	5375.9	
764.02	5782.1	
764.2	6662	
764.38	6044.9	
764.56	4644.8	
764.74	5249.6	
764.91	6701	
765.09	5879.7	
765.27	4457.7	
765.45	4149.9	
765.63	6789	
765.8	6519.4	
765.98	4030.4	
766.16	4270	
766.34	5525.4	
766.52	5361.6	
766.69	4902.2	
766.87	4108.9	
767.05	5820.3	
767.23	6415.6	
767.41	4265.2	
767.58	4444.8	
767.76	6202.6	
767.94	6238.1	
768.12	4331.5	
768.29	4843.4	
768.47	5759.6	
768.65	6331	
768.83	4026.3	
769	4836.6	
769.18	5446.2	
769.36	5934.3	
769.54	4851	
769.72	4031.8	
769.89	6236.7	
770.07	6192.4	
770.25	4268.6	
770.43	5166.3	
770.6	6710.5	
770.78	7015	
770.96	4358.8	
771.14	4798.4	
771.31	6100.2	
771.49	5593.7	
771.67	3656.3	
771.85	3801.7	
772.02	5003.9	
772.2	5451.7	
772.38	4367	
772.55	4022.9	
772.73	5722	
772.91	5540.4	
773.09	4300.1	
773.26	4363.5	
773.44	5648.3	
773.62	5394.3	
773.8	3984.7	
773.97	3763.5	
774.15	5634.6	
774.33	5414.8	
774.5	3815.4	
774.68	4044.7	
774.86	5662.6	
775.04	5354.8	
775.21	3814	
775.39	3752.6	
775.57	5572.5	
775.74	5754.8	
775.92	3687.7	
776.1	3543.7	
776.27	5458.5	
776.45	6454.5	
776.63	3837.9	
776.81	3494.5	
776.98	5216.2	
777.16	5943.2	
777.34	3834.5	
777.51	4095.3	
777.69	5207.3	
777.87	5008	
778.04	3994.2	
778.22	4229.7	
778.4	5036	
778.57	5547.9	
778.75	3321.8	
778.93	3532.1	
779.1	4928.8	
779.28	4732.2	
779.46	3280.2	
779.64	3636.5	
779.81	5564.3	
779.99	6267.5	
780.17	4257	
780.34	4418.2	
780.52	5250.3	
780.69	5305.6	
780.87	3933.5	
781.05	3627.6	
781.22	5251.7	
781.4	5259.2	
781.58	3634.5	
781.75	2988.7	
781.93	5225.7	
782.11	4697.4	
782.28	4328	
782.46	3664.5	
782.64	4629.1	
782.81	5309	
782.99	3695.9	
783.17	3598.3	
783.34	5259.9	
783.52	4717.2	
783.69	3832.4	
783.87	4380.6	
784.05	4776.5	
784.22	4760.8	
784.4	4325.3	
784.58	3844.7	
784.75	5466	
784.93	4801.8	
785.1	3629.7	
785.28	4052.2	
785.46	5189.6	
785.63	4691.9	
785.81	3540.9	
785.99	3435.8	
786.16	4874.8	
786.34	5120.6	
786.51	3523.2	
786.69	3768.3	
786.87	4459.1	
787.04	4866.7	
787.22	3387.3	
787.39	4028.4	
787.57	4706.2	
787.75	5477.6	
787.92	4250.9	
788.1	4232.5	
788.27	4693.9	
788.45	4430.4	
788.63	3944.4	
788.8	2903.3	
788.98	5021.6	
789.15	4424.3	
789.33	3099.3	
789.5	3539.6	
789.68	5346.6	
789.86	5444.9	
790.03	3910.9	
790.21	3416	
790.38	5409.4	
790.56	4762.2	
790.73	3299.3	
790.91	3324.5	
791.09	4614.1	
791.26	5283.1	
791.44	3502.7	
791.61	3110.9	
791.79	4656.4	
791.96	4716.5	
792.14	3165.5	
792.32	2847.4	
792.49	4658.4	
792.67	4690.5	
792.84	3293.1	
793.02	3089.7	
793.19	5028.4	
793.37	5495.4	
793.54	2855.6	
793.72	3130	
793.89	5539.8	
794.07	4633.9	
794.25	3620.1	
794.42	2952.5	
794.6	5375.9	
794.77	5108.3	
794.95	3780.6	
795.12	3323.9	
795.3	4621.6	
795.47	5032.5	
795.65	3617.4	
795.82	3507.5	
796	4496.7	
796.17	5949.3	
796.35	3441.3	
796.52	4008.6	
796.7	5047.6	
796.87	5156.8	
797.05	3392.8	
797.22	4055	
797.4	5094	
797.57	5802.6	
797.75	3514.3	
797.92	3322.5	
798.1	5325.4	
798.27	4504.8	
798.45	2925.2	
798.62	3112.2	
798.8	4832.5	
798.97	5204.6	
799.15	3608.5	
799.32	3494.5	
799.5	4291.2	
799.67	4814.8	
799.85	3728	
800.02	2822.8	
800.2	4583.4	
800.37	4826.4	
800.55	3891.1	
800.72	3284.3	
800.9	5147.2	
801.07	5528.2	
801.25	4328	
801.42	3573.7	
801.6	5242.1	
801.77	4903.5	
801.95	3409.2	
802.12	3237.2	
802.29	4984.8	
802.47	4898.1	
802.64	3572.3	
802.82	2852.8	
802.99	4523.3	
803.17	5303.6	
803.34	3486.3	
803.52	3162.1	
803.69	5795.8	
803.87	4355.3	
804.04	3454.9	
804.21	3508.2	
804.39	5416.9	
804.56	4619.5	
804.74	3032.4	
804.91	3540.9	
805.09	4581.3	
805.26	4612	
805.44	3061.7	
805.61	3315	
805.78	5081.7	
805.96	5068.7	
806.13	3528	
806.31	3849.5	
806.48	4258.4	
806.66	4610	
806.83	3590.8	
807	3520.5	
807.18	4549.2	
807.35	4821.6	
807.53	3423.5	
807.7	2846.7	
807.87	5431.2	
808.05	4592.2	
808.22	3784.6	
808.4	2886.3	
808.57	4495.3	
808.74	4263.2	
808.92	3192.8	
809.09	3948.5	
809.27	4589.5	
809.44	4914.4	
809.61	2905.4	
809.79	3180.5	
809.96	5504.3	
810.14	5092.6	
810.31	2848	
810.48	3369.6	
810.66	4592.2	
810.83	5083.7	
811.01	3169.6	
811.18	3534.1	
811.35	5091.3	
811.53	4068.6	
811.7	3756	
811.87	3523.2	
812.05	4602.5	
812.22	4530.8	
812.39	3111.5	
812.57	3044.6	
812.74	4582	
812.92	5801.9	
813.09	3404.4	
813.26	3556.6	
813.44	5668.1	
813.61	4475.5	
813.78	2831	
813.96	3679.5	
814.13	4589.5	
814.3	4323.3	
814.48	3973.1	
814.65	3358	
814.82	5448.3	
815	4320.5	
815.17	3371.6	
815.34	4063.2	
815.52	4528.1	
815.69	4493.9	
815.87	3340.9	
816.04	3350.5	
816.21	4547.9	
816.38	4116.4	
816.56	3375.1	
816.73	3108.1	
816.9	5638.7	
817.08	5053	
817.25	3090.4	
817.42	3740.3	
817.6	4175.8	
817.77	4531.5	
817.94	3504.8	
818.12	3086.3	
818.29	4333.5	
818.46	6258.6	
818.64	3274	
818.81	3021.4	
818.98	4349.9	
819.16	5890.6	
819.33	3650.8	
819.5	3385.3	
819.67	4855.7	
819.85	5354.8	
820.02	3379.8	
820.19	3516.4	
820.37	4693.3	
820.54	4487.1	
820.71	3454.2	
820.88	4188.1	
821.06	4694.6	
821.23	4346.5	
821.4	3468.6	
821.58	3442	
821.75	5055.1	
821.92	4660.5	
822.09	2843.3	
822.27	2899.9	
822.44	4530.8	
822.61	4412	
822.79	2906.1	
822.96	5185.5	
823.13	4829.8	
823.3	4262.5	
823.48	3244	
823.65	2954.5	
823.82	5125.4	
823.99	4208.6	
824.17	4007.9	
824.34	3040.6	
824.51	5814.2	
824.68	4559.5	
824.86	3125.9	
825.03	3413.3	
825.2	4605.2	
825.37	5337	
825.55	3095.2	
825.72	3392.1	
825.89	5741.1	
826.06	5414.8	
826.24	3339.6	
826.41	3355.9	
826.58	5383.4	
826.75	4756.1	
826.92	2745	
827.1	2997.5	
827.27	7063.4	
827.44	5722	
827.61	3166.8	
827.79	3768.3	
827.96	4372.4	
828.13	4560.8	
828.3	3303.4	
828.47	2813.9	
828.65	4829.1	
828.82	4726	
828.99	4145.1	
829.16	3651.5	
829.34	5112.4	
829.51	4919.9	
829.68	3400.3	
829.85	3504.1	
830.02	5351.3	
830.2	5076.2	
830.37	2708.8	
830.54	4027	
830.71	5611.4	
830.88	4573.1	
831.05	2693.8	
831.23	3102.7	
831.4	5549.3	
831.57	5938.4	
831.74	3147	
831.91	2816	
832.09	4868.7	
832.26	5108.3	
832.43	3267.2	
832.6	3598.3	
832.77	4806.6	
832.94	5363.6	
833.12	2681.5	
833.29	3207.8	
833.46	4510.3	
833.63	6128.2	
833.8	3528	
833.97	3229.6	
834.15	5163.6	
834.32	4879.6	
834.49	3394.2	
834.66	3452.9	
834.83	5208	
835	4336.2	
835.17	3153.2	
835.35	3153.9	
835.52	4995.7	
835.69	4868	
835.86	3326.6	
836.03	2743.6	
836.2	5047.6	
836.37	4685.8	
836.55	3235.8	
836.72	3016	
836.89	4713.7	
837.06	5121.3	
837.23	3222.1	
837.4	3596.2	
837.57	5674.9	
837.75	6126.2	
837.92	2988	
838.09	3176.4	
838.26	4696	
838.43	5210.7	
838.6	3382.6	
838.77	3010.5	
838.94	5856.5	
839.11	5701.5	
839.29	3265.1	
839.46	2634.4	
839.63	5026.4	
839.8	4788.2	
839.97	3150.5	
840.14	3123.2	
840.31	4859.1	
840.48	5035.3	
840.65	2727.2	
840.82	3107.5	
841	5038.7	
841.17	4939	
841.34	2951.1	
841.51	2990	
841.68	5030.5	
841.85	4766.3	
842.02	2941.6	
842.19	2542.2	
842.36	4863.2	
842.53	4875.5	
842.7	2935.4	
842.87	3474.7	
843.05	6111.8	
843.22	4778.6	
843.39	2783.9	
843.56	3007.1	
843.73	4642.7	
843.9	5133.6	
844.07	4470.7	
844.24	3801	
844.41	6824.5	
844.58	4518.5	
844.75	2854.9	
844.92	3007.8	
845.09	5017.5	
845.26	5031.9	
845.43	2913.6	
845.6	3073.3	
845.77	5025.7	
845.94	4835.9	
846.12	3155.2	
846.29	3340.9	
846.46	5231.9	
846.63	5027.8	
846.8	2905.4	
846.97	3398.9	
847.14	5338.4	
847.31	4962.9	
847.48	3229	
847.65	3594.9	
847.82	5208.7	
847.99	5225.7	
848.16	3822.2	
848.33	3556.6	
848.5	4669.4	
848.67	5386.2	
848.84	2854.2	
849.01	2990.7	
849.18	4605.2	
849.35	4339	
849.52	3590.1	
849.69	2841.2	
849.86	5223	
850.03	5294.7	
850.2	2891	
850.37	3409.2	
850.54	5229.8	
850.71	4741	
850.88	3431.7	
851.05	2883.5	
851.22	4910.3	
851.39	5407.3	
851.56	2773.6	
851.73	3296.5	
851.9	4486.4	
852.07	5216.9	
852.24	3218.7	
852.41	2899.9	
852.58	4908.3	
852.75	4464.6	
852.92	3190.1	
853.09	2862.4	
853.26	4647.5	
853.43	5314.5	
853.6	2846.7	
853.77	2540.2	
853.94	5455.1	
854.11	4397	
854.28	4215.4	
854.44	3139.5	
854.61	5722.7	
854.78	5213.4	
854.95	2849.4	
855.12	3557.3	
855.29	4173.1	
855.46	5569.1	
855.63	2906.8	
855.8	3917.8	
855.97	4659.1	
856.14	5273.5	
856.31	3926	
856.48	3151.8	
856.65	4688.5	
856.82	4386.1	
856.99	2746.3	
857.16	3110.9	
857.33	5943.2	
857.49	4760.8	
857.66	3112.9	
857.83	3305.4	
858	4771.1	
858.17	4905.6	
858.34	2808.4	
858.51	2925.2	
858.68	5461.9	
858.85	5508.4	
859.02	3285.6	
859.19	3510.9	
859.36	4453.6	
859.52	4475.5	
859.69	2893.8	
859.86	3387.3	
860.03	4524	
860.2	5359.5	
860.37	2713.6	
860.54	2937.5	
860.71	5131.5	
860.88	5426.4	
861.05	3259	
861.21	3616.7	
861.38	5408.7	
861.55	4330.8	
861.72	2674	
861.89	3188.7	
862.06	5193.6	
862.23	5524.1	
862.4	2806.4	
862.56	3007.8	
862.73	5056.4	
862.9	4838.7	
863.07	3364.1	
863.24	2648	
863.41	4382	
863.58	4464.6	
863.75	2912.9	
863.91	3293.8	
864.08	5375.9	
864.25	5068.7	
864.42	3594.9	
864.59	3981.3	
864.76	5701.5	
864.93	4406.5	
865.09	2827.6	
865.26	3067.9	
865.43	5391.6	
865.6	5657.2	
865.77	2564.7	
865.94	2816.6	
866.1	5393	
866.27	5175.9	
866.44	4168.3	
866.61	2815.3	
866.78	4748.6	
866.95	5074.2	
867.11	2841.2	
867.28	2571.6	
867.45	5286.5	
867.62	4499.4	
867.79	3306.8	
867.96	2891	
868.12	4401.1	
868.29	5186.1	
868.46	2873.3	
868.63	3776.5	
868.8	5234.6	
868.97	5068.7	
869.13	2979.8	
869.3	2974.3	
869.47	5012.1	
869.64	5199.8	
869.81	2865.1	
869.97	2878.1	
870.14	4914.4	
870.31	5493.3	
870.48	2805.7	
870.65	3609.9	
870.81	4769.7	
870.98	4760.8	
871.15	3257	
871.32	2931.3	
871.48	5031.9	
871.65	5543.9	
871.82	2856.2	
871.99	3138.9	
872.16	5844.9	
872.32	5286.5	
872.49	2973	
872.66	2907.4	
872.83	5199.1	
872.99	4601.8	
873.16	3279.5	
873.33	2839.2	
873.5	4833.2	
873.67	4914.4	
873.83	3092.4	
874	3714.3	
874.17	4999.1	
874.34	5767.8	
874.5	3683.6	
874.67	3502.7	
874.84	5410.7	
875.01	4367	
875.17	3904.1	
875.34	2878.1	
875.51	4891.2	
875.68	5864	
875.84	3431	
876.01	4141	
876.18	5134.3	
876.34	5069.4	
876.51	2858.3	
876.68	2871.9	
876.85	4730.1	
877.01	5398.4	
877.18	3986.7	
877.35	2839.2	
877.52	4903.5	
877.68	4424.3	
877.85	2814.6	
878.02	2862.4	
878.18	4702.8	
878.35	4556.7	
878.52	2362	
878.69	3179.8	
878.85	5194.3	
879.02	5048.9	
879.19	4009.9	
879.35	3077.4	
879.52	5142.4	
879.69	5263.3	
879.86	2499.9	
880.02	3217.4	
880.19	4820.2	
880.36	5697.4	
880.52	3301.3	
880.69	3358.7	
880.86	5179.3	
881.02	5243.5	
881.19	3135.4	
881.36	3147.7	
881.52	5083.7	
881.69	4573.8	
881.86	3056.9	
882.02	3009.1	
882.19	5305.6	
882.36	6057.9	
882.52	2946.3	
882.69	3924.6	
882.86	4998.4	
883.02	4919.2	
883.19	3474	
883.36	3246	
883.52	5218.9	
883.69	5802.6	
883.86	2916.3	
884.02	2654.2	
884.19	5137	
884.36	4902.2	
884.52	3265.8	
884.69	3050.1	
884.86	4635.2	
885.02	5649	
885.19	3142.9	
885.36	3283.6	
885.52	4816.8	
885.69	4993.6	
885.86	4062.5	
886.02	3594.9	
886.19	5156.1	
886.35	4698	
886.52	3212.6	
886.69	3943.7	
886.85	4483.7	
887.02	5391.6	
887.19	5391.6	
887.35	5391.6	
887.52	5391.6	
887.68	5391.6	
887.85	5391.6	
888.02	5391.6	
888.18	5391.6	
888.35	5391.6	
888.51	5391.6	
888.68	5391.6	
888.85	5391.6	
889.01	5391.6	
889.18	5391.6	
889.35	5391.6	
889.51	5391.6	
889.68	5391.6	
889.84	5391.6	
890.01	5391.6	
890.17	5391.6	
890.34	5391.6	
890.51	5391.6	
890.67	5391.6	
890.84	5391.6	
891	5391.6	
891.17	5391.6	
891.34	5391.6	
891.5	5391.6	
891.67	5391.6	
891.83	5391.6	
892	5391.6	
892.16	5391.6	
892.33	5391.6	
892.5	5391.6	
892.66	5391.6	
892.83	5391.6	
892.99	5391.6	
893.16	5391.6	
893.32	5391.6	
893.49	5391.6	
893.65	5391.6	
893.82	5391.6	
893.99	5391.6	
894.15	5391.6	
894.32	5391.6	
894.48	5391.6	
894.65	5391.6	
894.81	5391.6	
894.98	5391.6	
895.14	5391.6	
895.31	5391.6	
895.47	5391.6	
895.64	5391.6	
895.81	5391.6	
895.97	5391.6	
896.14	5391.6	
896.3	5391.6	
896.47	5391.6	
896.63	5391.6	
896.8	5391.6	
896.96	5391.6	
897.13	5391.6	
897.29	5391.6	
897.46	5391.6	
897.62	5391.6	
897.79	5391.6	
897.95	5391.6	
898.12	5391.6	
898.28	5391.6	
898.45	5391.6	
898.61	5391.6	
898.78	5391.6	
898.94	5391.6	
899.11	5391.6	
899.27	5391.6	
899.44	5391.6	
899.6	5391.6	
899.77	5391.6	
899.93	5391.6	
900.1	5391.6	
900.26	5391.6	
900.43	5391.6	
900.59	5391.6	
900.76	5391.6	
900.92	5391.6	
901.09	5391.6	
901.25	5391.6	
901.42	5391.6	
901.58	5391.6	
901.75	5391.6	
901.91	5391.6	
902.07	5391.6	
902.24	5391.6	
902.4	5391.6	
902.57	5391.6	
902.73	5391.6	
902.9	5391.6	
903.06	5391.6	
903.23	5391.6	
903.39	5391.6	
903.56	5391.6	
903.72	5391.6	
903.88	5391.6	
904.05	5391.6	
904.21	5391.6	
904.38	5391.6	
904.54	5391.6	
904.71	5391.6	
904.87	5391.6	
905.03	5391.6	
905.2	5391.6	
905.36	5391.6	
905.53	5391.6	
905.69	5391.6	
905.86	5391.6	
906.02	5391.6	
906.18	5391.6	
906.35	5391.6	
906.51	5391.6	
906.68	5391.6	
906.84	5391.6	
907.01	5391.6	
907.17	5391.6	
907.33	5391.6	
907.5	5391.6	
907.66	5391.6	
907.83	5391.6	
907.99	5391.6	
908.15	5391.6	
908.32	5391.6	
908.48	5391.6	
908.65	5391.6	
908.81	5391.6	
908.97	5391.6	
909.14	5391.6	
909.3	5391.6	
909.47	5391.6	
909.63	5391.6	
909.79	5391.6	
909.96	5391.6	
910.12	5391.6	
910.28	5391.6	
910.45	5391.6	
910.61	5391.6	
910.78	5391.6	
910.94	5391.6	
911.1	5391.6	
911.27	5391.6	
911.43	5391.6	
911.59	5391.6	
911.76	5391.6	
911.92	5391.6	
912.08	5391.6	
912.25	5391.6	
912.41	5391.6	
912.57	5391.6	
912.74	5391.6	
912.9	5391.6	
913.07	5391.6	
913.23	5391.6	
913.39	5391.6	
913.56	5391.6	
913.72	5391.6	
913.88	5391.6	
914.05	5391.6	
914.21	5391.6	
914.37	5391.6	
914.54	5391.6	
914.7	5391.6	
914.86	5391.6	
915.03	5391.6	
915.19	5391.6	
