Wavelength	Intensities	
nm	a.u.	
179.22	1923.7	
179.44	1916.2	
179.65	1931.2	
179.86	1901.2	
180.08	1908	
180.29	5048.2	
180.51	3636.5	
180.72	5715.9	
180.94	6704.4	
181.15	3273.3	
181.37	3201	
181.58	5568.4	
181.79	5892.7	
182.01	3392.8	
182.22	3693.9	
182.44	5849.7	
182.65	4870.1	
182.87	4627.7	
183.08	4074.8	
183.29	6191	
183.51	5071.5	
183.72	3685.7	
183.94	5442.8	
184.15	5427.1	
184.37	5455.1	
184.58	3241.9	
184.79	4511	
185.01	5069.4	
185.22	5854.5	
185.44	4762.2	
185.65	3956.7	
185.86	5397.1	
186.08	4948.6	
186.29	3129.3	
186.51	3426.3	
186.72	5098.1	
186.94	6006	
187.15	4045.4	
187.36	4142.4	
187.58	7906.5	
187.79	5612.8	
188.01	4356.7	
188.22	6671.6	
188.43	6727.6	
188.65	5793.7	
188.86	3408.5	
189.08	4061.1	
189.29	5250.3	
189.5	5289.2	
189.72	3768.9	
189.93	3858.4	
190.15	6107.7	
190.36	7260	
190.57	4177.9	
190.79	4038.6	
191	6135.7	
191.22	6070.2	
191.43	4182	
191.64	3414	
191.86	6378.1	
192.07	6115.2	
192.29	3574.4	
192.5	3835.2	
192.71	6128.9	
192.93	5242.8	
193.14	3782.6	
193.35	3906.2	
193.57	5185.5	
193.78	6068.8	
194	3030.3	
194.21	3710.2	
194.42	5028.4	
194.64	5528.2	
194.85	4123.9	
195.07	4793.6	
195.28	5518.6	
195.49	4751.3	
195.71	5080.3	
195.92	3538.2	
196.13	5634.6	
196.35	5819	
196.56	5468.8	
196.78	4070	
196.99	7188.4	
197.2	6679.8	
197.42	4711.7	
197.63	4201.7	
197.84	4911.7	
198.06	5709.7	
198.27	3829.7	
198.48	5097.4	
198.7	5216.9	
198.91	5376.6	
199.13	4138.3	
199.34	4166.9	
199.55	5919.3	
199.77	4762.2	
199.98	3686.3	
200.19	4182	
200.41	5323.4	
200.62	5074.9	
200.83	4341.7	
201.05	4648.9	
201.26	5382.7	
201.47	5081	
201.69	3708.2	
201.9	3525.2	
202.11	5401.9	
202.33	6547.4	
202.54	3944.4	
202.76	4416.1	
202.97	5672.2	
203.18	5614.2	
203.4	4361.5	
203.61	4210.6	
203.82	5568.4	
204.04	5184.1	
204.25	4192.2	
204.46	4151.2	
204.68	5356.1	
204.89	5733.6	
205.1	4091.2	
205.32	3508.2	
205.53	5895.4	
205.74	6070.9	
205.96	2965.5	
206.17	4287.8	
206.38	5855.8	
206.6	6013.5	
206.81	4769.7	
207.02	3919.8	
207.24	5792.3	
207.45	6186.2	
207.66	3890.5	
207.88	3343.7	
208.09	5719.3	
208.3	5533.6	
208.52	3584.6	
208.73	3908.2	
208.94	5500.2	
209.15	6205.3	
209.37	3969	
209.58	4138.9	
209.79	5974.6	
210.01	5299.5	
210.22	3124.5	
210.43	3331.4	
210.65	5565	
210.86	5939.8	
211.07	3981.9	
211.29	3608.5	
211.5	5813.5	
211.71	5429.2	
211.93	3611.3	
212.14	3627.6	
212.35	5353.4	
212.56	5664.7	
212.78	4207.9	
212.99	3447.4	
213.2	6544.6	
213.42	5191.6	
213.63	3726.6	
213.84	4000.4	
214.06	4848.9	
214.27	4985.4	
214.48	3928	
214.69	4179.9	
214.91	6140.5	
215.12	6287.3	
215.33	4282.3	
215.55	4726	
215.76	6782.9	
215.97	5890.6	
216.18	4055	
216.4	3970.3	
216.61	5160.2	
216.82	6010.1	
217.04	3596.2	
217.25	3804.4	
217.46	6130.9	
217.67	5925.5	
217.89	3272	
218.1	3385.3	
218.31	5563	
218.53	5657.9	
218.74	3874.8	
218.95	3711.6	
219.16	5400.5	
219.38	6449.1	
219.59	3706.1	
219.8	4393.6	
220.01	7123.5	
220.23	5504.3	
220.44	4899.4	
220.65	3657.7	
220.87	5542.5	
221.08	6155.5	
221.29	3318.4	
221.5	4505.5	
221.72	7586.4	
221.93	5271.5	
222.14	4197.7	
222.35	4905.6	
222.57	5511.1	
222.78	5909.1	
222.99	3962.8	
223.2	4268.6	
223.42	5844.9	
223.63	5896.1	
223.84	3048.1	
224.05	2985.3	
224.27	6974.7	
224.48	6496.8	
224.69	4953.4	
224.9	4167.6	
225.12	5704.3	
225.33	5415.5	
225.54	3275.4	
225.75	3708.2	
225.97	5057.1	
226.18	5337.7	
226.39	3991.5	
226.6	3725.3	
226.82	5189.6	
227.03	5087.8	
227.24	4148.5	
227.45	3422.8	
227.67	5864	
227.88	6407.4	
228.09	4614.8	
228.3	4651.6	
228.52	5941.2	
228.73	5427.1	
228.94	3867.2	
229.15	3375.7	
229.36	5401.2	
229.58	5289.2	
229.79	3873.4	
230	4517.8	
230.21	6602	
230.43	5590.3	
230.64	4108.9	
230.85	4397.7	
231.06	5963.7	
231.28	5881.1	
231.49	3420.8	
231.7	4035.2	
231.91	5857.2	
232.12	5547.3	
232.34	3517	
232.55	4047.5	
232.76	6141.2	
232.97	5714.5	
233.18	3626.3	
233.4	4076.8	
233.61	5752.1	
233.82	5172.5	
234.03	3808.5	
234.25	3753.9	
234.46	7636.2	
234.67	5568.4	
234.88	4244.1	
235.09	3679.5	
235.31	5816.2	
235.52	5393	
235.73	4087.7	
235.94	3470.6	
236.15	5218.9	
236.37	6703	
236.58	3607.8	
236.79	4042	
237	5869.5	
237.21	4966.3	
237.43	4305.5	
237.64	3343	
237.85	10023	
238.06	5016.8	
238.27	4328	
238.48	3472	
238.7	5808	
238.91	5353.4	
239.12	3919.8	
239.33	3915	
239.54	5109.7	
239.76	5446.9	
239.97	3896.6	
240.18	3941.7	
240.39	6903.7	
240.6	5767.8	
240.82	4123.2	
241.03	3395.5	
241.24	5500.2	
241.45	6396.5	
241.66	3659.7	
241.87	4246.8	
242.09	6255.2	
242.3	6625.9	
242.51	4304.8	
242.72	3982.6	
242.93	6003.3	
243.14	5421	
243.36	4605.9	
243.57	4997	
243.78	6386.2	
243.99	5831.2	
244.2	4012	
244.41	3594.2	
244.63	5068	
244.84	5777.3	
245.05	4274.1	
245.26	4001	
245.47	5747.3	
245.68	6056.5	
245.9	5347.9	
246.11	4197	
246.32	5326.8	
246.53	5758.2	
246.74	6441.5	
246.95	3277.4	
247.16	4942.4	
247.38	5517.2	
247.59	3297.2	
247.8	3981.3	
248.01	5180.7	
248.22	5429.2	
248.43	3588	
248.64	3843.4	
248.86	4853.7	
249.07	5236	
249.28	3526.6	
249.49	4045.4	
249.7	6109.1	
249.91	6195.8	
250.12	3310.2	
250.34	3404.4	
250.55	5593	
250.76	5519.3	
250.97	4088.4	
251.18	4185.4	
251.39	6195.1	
251.6	5696.1	
251.81	4208.6	
252.03	4122.6	
252.24	5229.1	
252.45	6051.1	
252.66	3449.5	
252.87	4458.4	
253.08	5544.5	
253.29	7320.8	
253.5	3509.5	
253.72	4830.5	
253.93	5319.9	
254.14	6495.5	
254.35	3790.8	
254.56	3899.3	
254.77	5698.1	
254.98	5118.6	
255.19	3720.5	
255.41	4866	
255.62	5627.8	
255.83	6201.9	
256.04	4283.7	
256.25	4173.8	
256.46	6617	
256.67	5126.7	
256.88	4145.1	
257.09	4559.5	
257.31	5178.6	
257.52	5179.3	
257.73	5203.2	
257.94	3797.6	
258.15	5328.8	
258.36	5514.5	
258.57	4795.7	
258.78	2998.9	
258.99	6024.4	
259.2	5334.3	
259.41	3812.6	
259.63	3911.6	
259.84	6354.2	
260.05	6873	
260.26	5060.5	
260.47	3693.9	
260.68	6150.7	
260.89	5401.9	
261.1	4530.1	
261.31	3603.1	
261.52	6069.5	
261.73	6438.1	
261.95	4924.7	
262.16	4271.4	
262.37	6202.6	
262.58	6333.7	
262.79	4901.5	
263	3839.3	
263.21	5446.2	
263.42	4945.2	
263.63	3927.3	
263.84	3839.9	
264.05	6063.4	
264.26	6496.2	
264.47	4771.8	
264.69	4127.3	
264.9	6220.4	
265.11	5696.1	
265.32	3717.1	
265.53	3732.1	
265.74	5610.8	
265.95	4892.6	
266.16	4024.9	
266.37	4505.5	
266.58	5564.3	
266.79	5353.4	
267	3747.8	
267.21	3476.8	
267.42	5074.9	
267.63	5470.1	
267.84	3988.8	
268.06	3372.3	
268.27	5982.1	
268.48	6285.2	
268.69	3867.2	
268.9	4607.9	
269.11	6227.9	
269.32	4982.7	
269.53	3958.7	
269.74	3743	
269.95	5795.8	
270.16	4852.3	
270.37	3999.7	
270.58	4650.3	
270.79	5328.1	
271	6094.8	
271.21	4287.8	
271.42	4011.3	
271.63	5626.5	
271.84	5121.3	
272.05	3148.4	
272.26	3594.2	
272.47	5472.2	
272.68	5702.2	
272.89	3771.7	
273.11	4444.8	
273.32	5317.9	
273.53	6498.9	
273.74	4297.3	
273.95	4211.3	
274.16	6169.8	
274.37	5582.1	
274.58	4418.2	
274.79	3463.8	
275	5612.1	
275.21	6234	
275.42	5258.5	
275.63	4584.7	
275.84	5786.2	
276.05	7271	
276.26	4208.6	
276.47	3930.1	
276.68	5272.8	
276.89	6570.6	
277.1	4543.8	
277.31	3467.2	
277.52	5786.2	
277.73	5900.9	
277.94	3422.2	
278.15	3861.1	
278.36	5731.6	
278.57	5154.7	
278.78	3782.6	
278.99	4362.9	
279.2	5118.6	
279.41	5076.2	
279.62	5076.2	
279.83	3536.8	
280.04	6680.5	
280.25	5063.9	
280.46	4993.6	
280.67	3981.3	
280.88	5074.2	
281.09	6201.9	
281.3	4241.3	
281.51	5367.7	
281.72	5199.1	
281.93	6026.5	
282.14	3741	
282.35	4009.9	
282.56	6077	
282.77	6032	
282.98	3806.5	
283.19	4784.1	
283.4	7393.2	
283.61	5498.1	
283.82	3434.4	
284.03	4973.8	
284.24	5636.7	
284.45	6189	
284.66	4985.4	
284.87	4743.1	
285.08	6169.2	
285.29	6241.5	
285.5	3379.1	
285.71	3904.1	
285.92	6191	
286.12	6860.7	
286.33	4971.8	
286.54	3853.6	
286.75	6033.3	
286.96	5357.5	
287.17	3530	
287.38	4791.6	
287.59	5135.6	
287.8	5027.1	
288.01	3910.9	
288.22	4426.3	
288.43	6033.3	
288.64	5043.5	
288.85	4598.4	
289.06	4406.5	
289.27	6031.3	
289.48	6472.3	
289.69	4965	
289.9	4476.9	
290.11	6201.9	
290.32	5195	
290.53	4687.1	
290.74	4344.4	
290.94	5980.1	
291.15	6035.4	
291.36	3777.1	
291.57	4502.8	
291.78	5227.1	
291.99	4980.7	
292.2	3607.8	
292.41	4313	
292.62	6049.7	
292.83	5903.6	
293.04	5414.8	
293.25	3608.5	
293.46	5368.4	
293.67	6198.5	
293.88	3700.7	
294.09	3559.4	
294.29	5040.7	
294.5	5645.6	
294.71	4059.8	
294.92	3829.7	
295.13	5306.3	
295.34	6673	
295.55	3348.4	
295.76	3447.4	
295.97	5955.5	
296.18	6754.9	
296.39	3510.2	
296.6	3787.4	
296.81	5606.7	
297.01	5907	
297.22	3870	
297.43	3725.3	
297.64	5133.6	
297.85	5171.1	
298.06	3067.9	
298.27	3396.2	
298.48	5537	
298.69	5226.4	
298.9	3981.9	
299.11	3682.2	
299.31	5015.5	
299.52	5014.8	
299.73	4369	
299.94	4255.7	
300.15	5529.5	
300.36	5091.9	
300.57	4261.1	
300.78	4188.1	
300.99	5421	
301.2	5698.8	
301.4	3659	
301.61	4082.3	
301.82	5866.1	
302.03	5969.8	
302.24	4597	
302.45	3528	
302.66	5793.7	
302.87	6322.1	
303.08	3708.9	
303.29	5124.7	
303.49	5256.5	
303.7	5553.4	
303.91	3282.9	
304.12	4891.9	
304.33	5034.6	
304.54	5621.7	
304.75	3789.4	
304.96	3592.1	
305.16	5852.4	
305.37	6604	
305.58	3254.2	
305.79	3383.2	
306	5879	
306.21	4876.9	
306.42	3708.9	
306.63	5711.8	
306.83	5394.3	
307.04	6115.2	
307.25	4138.9	
307.46	4089.1	
307.67	4730.8	
307.88	6006.7	
308.09	3669.3	
308.29	3838.6	
308.5	5606.7	
308.71	6183.5	
308.92	4009.2	
309.13	3592.1	
309.34	5494	
309.55	5448.3	
309.75	4726.7	
309.96	4266.6	
310.17	5941.8	
310.38	5185.5	
310.59	4520.5	
310.8	3543.7	
311.01	6107.7	
311.21	5352	
311.42	3580.5	
311.63	3690.4	
311.84	5240.1	
312.05	5618.3	
312.26	4194.9	
312.46	4570.4	
312.67	5337	
312.88	5074.9	
313.09	3566.2	
313.3	3518.4	
313.51	6336.4	
313.71	6782.9	
313.92	3604.4	
314.13	3786.7	
314.34	5674.9	
314.55	5390.3	
314.76	4698	
314.96	4009.2	
315.17	5606	
315.38	5887.9	
315.59	3637.9	
315.8	3497.2	
316.01	6430.6	
316.21	6505.7	
316.42	3437.2	
316.63	3972.4	
316.84	5362.9	
317.05	6266.8	
317.26	4289.8	
317.46	3841.3	
317.67	5438.7	
317.88	5971.9	
318.09	4588.1	
318.3	3399.6	
318.5	5216.2	
318.71	5885.2	
318.92	5907	
319.13	4237.9	
319.34	6027.2	
319.54	6186.2	
319.75	3353.9	
319.96	3211.9	
320.17	5855.1	
320.38	6098.9	
320.58	3278.8	
320.79	3953.3	
321	6113.2	
321.21	6309.1	
321.42	3922.5	
321.62	3282.2	
321.83	5096	
322.04	5603.2	
322.25	3813.3	
322.46	3635.8	
322.66	5654.4	
322.87	5829.2	
323.08	4509.6	
323.29	3620.8	
323.5	6629.3	
323.7	5076.9	
323.91	4979.3	
324.12	4459.8	
324.33	5575.9	
324.53	5867.4	
324.74	4237.9	
324.95	4510.3	
325.16	4879.6	
325.37	5354.8	
325.57	3629	
325.78	3647.4	
325.99	5573.9	
326.2	5042.1	
326.4	5167.7	
326.61	3418.1	
326.82	5441.5	
327.03	5608.7	
327.24	5156.1	
327.44	4928.1	
327.65	5801.9	
327.86	4670.1	
328.07	4277.5	
328.27	3450.8	
328.48	6206.7	
328.69	5103.5	
328.9	5224.4	
329.1	3876.1	
329.31	5459.9	
329.52	6364.4	
329.73	3648.1	
329.93	4138.9	
330.14	5506.3	
330.35	5823.7	
330.56	6021	
330.76	4474.8	
330.97	5308.3	
331.18	5786.9	
331.39	4082.3	
331.59	3234.4	
331.8	6129.6	
332.01	6275	
332.22	3761.4	
332.42	4269.3	
332.63	5646.9	
332.84	5254.4	
333.05	4076.1	
333.25	3717.7	
333.46	5276.3	
333.67	5575.9	
333.88	3725.3	
334.08	4227	
334.29	7427.3	
334.5	6247	
334.7	3526.6	
334.91	5274.9	
335.12	5052.3	
335.33	6001.9	
335.53	4003.8	
335.74	6003.3	
335.95	5319.3	
336.16	5126.7	
336.36	4037.2	
336.57	4744.5	
336.78	5031.9	
336.98	6166.4	
337.19	4961.5	
337.4	3947.8	
337.61	6716	
337.81	5066.7	
338.02	3672	
338.23	4820.2	
338.43	6361	
338.64	5234.6	
338.85	3625.6	
339.05	4753.3	
339.26	6459.3	
339.47	4913.8	
339.68	3640.6	
339.88	5388.2	
340.09	5784.1	
340.3	5950	
340.5	4274.8	
340.71	3235.1	
340.92	4999.8	
341.13	6299.6	
341.33	3573.7	
341.54	4324.6	
341.75	5741.1	
341.95	5347.2	
342.16	4078.9	
342.37	4494.6	
342.57	5082.4	
342.78	5500.2	
342.99	4538.3	
343.19	3280.2	
343.4	5968.5	
343.61	5790.3	
343.81	3895.9	
344.02	3629	
344.23	6012.8	
344.43	6442.2	
344.64	4582	
344.85	4481.6	
345.06	5874.3	
345.26	6168.5	
345.47	4168.3	
345.68	4923.3	
345.88	4872.1	
346.09	6008.7	
346.3	4331.5	
346.5	3207.1	
346.71	5557.5	
346.92	5199.8	
347.12	3278.8	
347.33	4173.1	
347.54	6148.7	
347.74	6598.6	
347.95	4192.9	
348.16	3088.3	
348.36	5304.2	
348.57	5076.2	
348.78	4177.2	
348.98	4461.2	
349.19	5463.3	
349.39	4988.2	
349.6	3309.5	
349.81	3727.3	
350.01	5763.7	
350.22	5231.2	
350.43	3977.8	
350.63	4874.8	
350.84	5563.6	
351.05	5307.7	
351.25	3596.9	
351.46	3312.2	
351.67	6146	
351.87	5218.2	
352.08	3895.9	
352.29	4448.2	
352.49	5962.3	
352.7	5645.6	
352.9	3517	
353.11	4444.1	
353.32	6662.7	
353.52	5339.7	
353.73	3469.3	
353.94	4500.1	
354.14	5833.3	
354.35	5685.2	
354.55	3609.9	
354.76	4057.7	
354.97	5854.5	
355.17	5561.6	
355.38	3387.3	
355.59	4814.1	
355.79	5208.7	
356	5667.4	
356.2	4003.1	
356.41	3437.9	
356.62	4892.6	
356.82	5457.8	
357.03	4295.3	
357.24	3861.1	
357.44	5294	
357.65	5378.6	
357.85	5227.1	
358.06	3998.3	
358.27	4967	
358.47	5200.5	
358.68	3375.7	
358.88	4259.1	
359.09	5785.5	
359.3	6214.2	
359.5	5048.2	
359.71	4425	
359.91	6666.8	
360.12	5975.3	
360.33	4247.5	
360.53	4786.1	
360.74	5217.5	
360.94	5255.8	
361.15	4528.1	
361.36	3663.1	
361.56	6092	
361.77	5442.8	
361.97	4986.8	
362.18	3911.6	
362.38	6031.3	
362.59	5087.8	
362.8	3611.3	
363	3434.4	
363.21	4829.1	
363.41	5565.7	
363.62	4199.7	
363.83	5211.4	
364.03	5642.8	
364.24	6685.3	
364.44	5293.3	
364.65	5329.5	
364.85	5404.6	
365.06	5340.4	
365.27	3881.6	
365.47	3836.5	
365.68	6425.2	
365.88	5385.5	
366.09	4189.5	
366.29	3945.8	
366.5	5622.4	
366.71	6128.9	
366.91	5304.9	
367.12	4383.3	
367.32	6698.2	
367.53	5963.7	
367.73	4300.1	
367.94	5361.6	
368.14	5909.1	
368.35	6896.2	
368.56	4236.6	
368.76	3721.8	
368.97	5976.7	
369.17	7810.3	
369.38	3767.6	
369.58	4012	
369.79	5019.6	
369.99	6427.9	
370.2	5128.1	
370.4	4188.8	
370.61	5717.2	
370.82	6984.9	
371.02	4061.8	
371.23	3422.2	
371.43	4901.5	
371.64	6328.9	
371.84	4143	
372.05	5385.5	
372.25	7750.2	
372.46	6114.6	
372.66	4124.6	
372.87	4093.2	
373.07	6187.6	
373.28	7791.8	
373.48	5156.8	
373.69	4848.9	
373.9	5652.4	
374.1	5579.3	
374.31	5111.7	
374.51	4615.4	
374.72	6417.7	
374.92	5309	
375.13	5304.9	
375.33	4500.8	
375.54	5998.5	
375.74	5423	
375.95	4485.1	
376.15	5745.9	
376.36	6016.2	
376.56	5836.7	
376.77	4626.4	
376.97	5047.6	
377.18	7194.5	
377.38	6141.9	
377.59	5436	
377.79	4037.2	
378	5890.6	
378.2	6382.2	
378.41	4174.4	
378.61	4008.6	
378.82	6393.8	
379.02	5517.2	
379.23	4304.1	
379.43	5537	
379.64	6519.4	
379.84	6075.6	
380.05	4144.4	
380.25	4116.4	
380.46	6138.4	
380.66	5799.2	
380.87	5529.5	
381.07	5872.9	
381.28	6866.8	
381.48	6231.3	
381.69	4180.6	
381.89	4231.1	
382.1	5134.3	
382.3	6393.1	
382.51	5326.8	
382.71	6341.9	
382.91	6287.9	
383.12	6725.5	
383.32	4519.2	
383.53	4777.2	
383.73	6062.7	
383.94	5821	
384.14	4687.1	
384.35	3822.2	
384.55	5765	
384.76	6242.9	
384.96	4552	
385.17	4915.1	
385.37	6139.8	
385.58	5479	
385.78	4887.1	
385.98	3720.5	
386.19	5696.8	
386.39	6133	
386.6	4308.9	
386.8	4541.7	
387.01	6189	
387.21	6253.1	
387.42	5054.4	
387.62	5689.3	
387.83	5549.3	
388.03	6217.6	
388.23	4695.3	
388.44	5580	
388.64	5233.2	
388.85	5380.7	
389.05	5006.6	
389.26	5664	
389.46	7331.7	
389.67	6740.5	
389.87	5009.3	
390.07	5139	
390.28	5905.7	
390.48	5468.8	
390.69	4257	
390.89	4587.4	
391.1	5683.1	
391.3	6724.2	
391.5	5788.9	
391.71	6476.4	
391.91	6416.3	
392.12	7486	
392.32	5884.5	
392.53	5061.9	
392.73	5784.1	
392.93	6010.1	
393.14	4648.9	
393.34	5436	
393.55	6309.1	
393.75	5972.6	
393.95	4711	
394.16	4648.9	
394.36	5689.9	
394.57	6414.9	
394.77	4225.6	
394.98	4754	
395.18	5732.3	
395.38	5930.9	
395.59	5638.1	
395.79	4536.3	
396	5824.4	
396.2	6501.6	
396.4	5399.1	
396.61	5375.9	
396.81	6567.2	
397.02	5859.2	
397.22	5700.2	
397.42	5783.5	
397.63	6535.1	
397.83	5830.6	
398.04	4582	
398.24	5072.8	
398.44	6370.5	
398.65	5453.7	
398.85	4383.3	
399.05	4536.3	
399.26	5738.4	
399.46	7577.5	
399.67	4921.3	
399.87	4702.8	
400.07	6206.7	
400.28	6651.8	
400.48	4790.9	
400.69	5866.7	
400.89	6864.8	
401.09	7308.5	
401.3	4720.6	
401.5	5869.5	
401.7	7458.7	
401.91	7759.1	
402.11	4982.7	
402.32	5207.3	
402.52	6827.2	
402.72	6647	
402.93	5386.8	
403.13	4259.1	
403.33	7505.8	
403.54	6192.4	
403.74	5101.5	
403.94	6029.9	
404.15	6287.3	
404.35	7578.8	
404.56	4876.9	
404.76	6807.4	
404.96	6774	
405.17	6551.5	
405.37	6315.9	
405.57	5437.4	
405.78	6876.4	
405.98	6210.1	
406.18	4917.2	
406.39	5910.4	
406.59	6830.7	
406.79	6446.3	
407	4795	
407.2	5000.5	
407.4	6939.2	
407.61	7215	
407.81	5012.7	
408.01	7370	
408.22	6032	
408.42	8115.4	
408.62	6178	
408.83	5614.2	
409.03	6701	
409.23	6472.3	
409.44	5834.7	
409.64	6125.5	
409.84	7712.7	
410.05	7634.8	
410.25	5928.2	
410.45	5705.6	
410.66	7167.2	
410.86	9695.8	
411.06	6339.8	
411.27	6143.9	
411.47	9557.9	
411.67	7354.9	
411.88	6410.8	
412.08	6735.8	
412.28	8064.9	
412.49	8578.3	
412.69	6202.6	
412.89	6219.7	
413.09	8348.2	
413.3	8250.6	
413.5	6406.7	
413.7	5968.5	
413.91	7527.7	
414.11	8494.3	
414.31	6232.7	
414.52	6706.4	
414.72	8131.8	
414.92	8030.1	
415.12	6225.8	
415.33	6823.1	
415.53	8478.6	
415.73	8684.1	
415.94	7207.5	
416.14	6608.8	
416.34	7503.8	
416.55	7135.8	
416.75	8008.9	
416.95	7357	
417.15	8566.7	
417.36	9313.5	
417.56	8214.4	
417.76	7215.7	
417.97	9098.4	
418.17	8698.4	
418.37	6689.3	
418.57	6788.3	
418.78	8327	
418.98	8030.8	
419.18	7698.3	
419.38	7630	
419.59	8247.2	
419.79	7735.9	
419.99	6729.6	
420.2	7157	
420.4	8636.3	
420.6	8793.3	
420.8	6657.3	
421.01	6464.1	
421.21	8495.7	
421.41	8716.8	
421.61	6971.3	
421.82	6741.9	
422.02	8019.2	
422.22	8948.9	
422.42	7601.4	
422.63	7153.6	
422.83	8123.6	
423.03	9349	
423.23	7225.9	
423.44	6105	
423.64	8178.9	
423.84	7899	
424.04	6633.4	
424.25	6268.8	
424.45	9196.7	
424.65	9078.6	
424.85	6040.1	
425.06	6696.9	
425.26	9100.5	
425.46	8007.6	
425.66	7137.2	
425.87	6793.8	
426.07	8888.2	
426.27	8688.8	
426.47	7029.3	
426.67	6309.1	
426.88	9242.5	
427.08	8641.7	
427.28	7310.6	
427.48	6320.7	
427.69	7445.7	
427.89	8204.8	
428.09	7317.4	
428.29	6391.7	
428.5	8988.5	
428.7	8503.8	
428.9	6349.4	
429.1	6922.8	
429.3	8378.2	
429.51	8915.5	
429.71	6712.6	
429.91	7484.6	
430.11	8749.6	
430.31	9101.9	
430.52	7000.6	
430.72	7376.8	
430.92	9344.2	
431.12	8920.3	
431.32	6731	
431.53	7122.8	
431.73	7694.9	
431.93	9542.2	
432.13	6655.9	
432.33	6647	
432.54	8316.1	
432.74	8757.1	
432.94	6570.6	
433.14	7684.7	
433.34	8934.6	
433.55	8518.2	
433.75	7623.2	
433.95	9609.1	
434.15	8718.9	
434.35	8454	
434.56	6836.8	
434.76	6368.5	
434.96	8725	
435.16	9055.4	
435.36	6688.7	
435.56	8017.1	
435.77	8458.1	
435.97	8621.9	
436.17	8675.9	
436.37	7880.6	
436.57	8484.7	
436.78	8377.6	
436.98	8438.3	
437.18	8614.4	
437.38	9243.2	
437.58	8623.3	
437.78	8650.6	
437.99	7209.5	
438.19	9098.4	
438.39	9898.5	
438.59	7127.6	
438.79	6684.6	
438.99	9975.7	
439.2	8841.8	
439.4	6902.3	
439.6	6917.4	
439.8	9240.4	
440	10338	
440.2	8039	
440.4	8217.1	
440.61	9707.4	
440.81	10257	
441.01	7311.9	
441.21	8274.5	
441.41	10253	
441.61	9712.2	
441.81	8611	
442.02	9684.2	
442.22	10763	
442.42	9881.4	
442.62	7432.1	
442.82	7480.5	
443.02	10318	
443.22	9359.2	
443.43	8046.5	
443.63	7552.2	
443.83	9135.3	
444.03	9213.1	
444.23	8906.6	
444.43	8484.7	
444.63	9617.3	
444.83	10798	
445.04	7676.5	
445.24	8997.4	
445.44	9806.4	
445.64	9956.5	
445.84	8338	
446.04	8514.8	
446.24	9128.5	
446.44	10334	
446.65	7595.2	
446.85	8092.9	
447.05	9559.9	
447.25	10172	
447.45	8137.9	
447.65	7484.6	
447.85	9553.1	
448.05	9140.8	
448.25	8669.7	
448.46	8466.3	
448.66	9701.2	
448.86	9315.5	
449.06	7471.7	
449.26	8669.7	
449.46	10098	
449.66	9059.5	
449.86	8243.1	
450.06	8260.8	
450.26	9235	
450.47	9944.9	
450.67	8449.2	
450.87	8918.2	
451.07	9980.4	
451.27	9839.1	
451.47	7733.8	
451.67	8567.3	
451.87	9364.7	
452.07	10634	
452.27	8112	
452.47	8054.7	
452.67	9779.7	
452.88	10490	
453.08	7326.9	
453.28	9577	
453.48	11180	
453.68	9706	
453.88	8145.5	
454.08	8463.6	
454.28	10255	
454.48	9999.5	
454.68	8942.1	
454.88	9439.1	
455.08	10476	
455.28	10417	
455.48	7999.4	
455.68	8850	
455.89	11138	
456.09	10729	
456.29	8458.1	
456.49	8733.9	
456.69	11092	
456.89	10350	
457.09	9299.1	
457.29	9779.7	
457.49	10727	
457.69	10997	
457.89	9303.9	
458.09	8559.1	
458.29	10666	
458.49	11349	
458.69	9692.4	
458.89	9130.5	
459.09	11604	
459.29	11806	
459.49	9190.6	
459.69	9967.5	
459.9	11238	
460.1	10900	
460.3	9123.7	
460.5	8927.1	
460.7	11370	
460.9	10998	
461.1	8680.7	
461.3	10216	
461.5	12156	
461.7	11800	
461.9	9433.6	
462.1	9821.4	
462.3	11300	
462.5	11881	
462.7	9623.4	
462.9	9692.4	
463.1	13190	
463.3	12851	
463.5	9972.9	
463.7	11149	
463.9	11727	
464.1	12211	
464.3	10423	
464.5	10419	
464.7	12497	
464.9	12295	
465.1	11893	
465.3	10968	
465.5	12887	
465.7	12959	
465.9	11432	
466.1	11026	
466.3	12899	
466.5	12529	
466.7	12304	
466.9	10912	
467.1	12590	
467.3	13713	
467.5	12271	
467.7	11120	
467.9	14003	
468.1	15076	
468.3	11893	
468.5	12319	
468.7	12833	
468.9	12738	
469.1	11463	
469.3	12160	
469.5	14994	
469.7	12469	
469.9	11856	
470.1	11213	
470.3	12932	
470.5	12912	
470.7	12671	
470.9	11302	
471.1	12876	
471.3	12932	
471.5	11139	
471.69	13223	
471.89	12551	
472.09	12032	
472.29	12078	
472.49	12200	
472.69	12296	
472.89	13147	
473.09	11121	
473.29	10970	
473.49	12413	
473.69	12564	
473.89	12223	
474.09	11222	
474.29	13902	
474.49	13579	
474.69	12240	
474.89	11400	
475.09	12639	
475.29	12572	
475.49	10780	
475.69	11068	
475.88	14116	
476.08	12891	
476.28	10821	
476.48	11138	
476.68	13324	
476.88	13156	
477.08	10950	
477.28	11410	
477.48	12560	
477.68	13264	
477.88	10778	
478.08	11233	
478.28	13757	
478.48	12781	
478.67	11374	
478.87	10456	
479.07	13684	
479.27	12780	
479.47	11557	
479.67	11564	
479.87	13429	
480.07	14044	
480.27	10820	
480.47	12460	
480.67	13047	
480.87	13799	
481.06	11120	
481.26	11989	
481.46	13035	
481.66	13009	
481.86	11622	
482.06	12740	
482.26	12869	
482.46	13877	
482.66	11651	
482.86	11299	
483.05	13266	
483.25	12623	
483.45	14248	
483.65	11742	
483.85	12861	
484.05	13197	
484.25	12165	
484.45	12888	
484.65	14115	
484.84	14225	
485.04	11699	
485.24	11749	
485.44	14573	
485.64	12867	
485.84	11245	
486.04	12811	
486.24	13384	
486.44	13632	
486.63	11239	
486.83	12157	
487.03	13399	
487.23	13548	
487.43	11316	
487.63	13924	
487.83	13723	
488.02	14875	
488.22	12674	
488.42	13396	
488.62	14568	
488.82	13579	
489.02	12224	
489.22	12428	
489.41	14567	
489.61	14067	
489.81	12023	
490.01	12002	
490.21	14453	
490.41	15153	
490.61	11910	
490.8	11943	
491	13842	
491.2	13032	
491.4	12589	
491.6	11737	
491.8	13915	
491.99	14161	
492.19	11676	
492.39	12164	
492.59	14791	
492.79	14764	
492.99	13262	
493.18	12355	
493.38	14928	
493.58	16081	
493.78	13390	
493.98	12876	
494.18	14837	
494.37	14500	
494.57	13936	
494.77	13773	
494.97	15457	
495.17	15852	
495.37	13482	
495.56	13855	
495.76	16076	
495.96	15713	
496.16	14844	
496.36	13782	
496.55	15905	
496.75	15485	
496.95	14132	
497.15	14063	
497.35	15898	
497.54	16059	
497.74	13921	
497.94	15374	
498.14	16944	
498.34	16725	
498.53	13835	
498.73	14678	
498.93	15603	
499.13	16339	
499.33	14577	
499.52	14896	
499.72	16348	
499.92	16522	
500.12	14249	
500.32	14508	
500.51	16621	
500.71	16508	
500.91	15469	
501.11	15043	
501.31	16668	
501.5	16947	
501.7	15726	
501.9	14727	
502.1	16429	
502.29	16642	
502.49	15165	
502.69	15386	
502.89	16391	
503.09	16595	
503.28	13736	
503.48	14010	
503.68	15498	
503.88	15647	
504.07	14999	
504.27	14332	
504.47	15909	
504.67	15936	
504.86	14849	
505.06	14299	
505.26	15425	
505.46	17281	
505.65	14356	
505.85	14535	
506.05	15322	
506.25	15671	
506.44	13422	
506.64	14371	
506.84	15152	
507.04	16094	
507.23	13611	
507.43	14122	
507.63	17209	
507.83	15423	
508.02	14187	
508.22	13755	
508.42	17433	
508.62	15132	
508.81	14395	
509.01	14731	
509.21	15012	
509.4	15236	
509.6	14259	
509.8	13835	
510	15251	
510.19	17019	
510.39	13727	
510.59	13814	
510.79	15244	
510.98	16703	
511.18	13865	
511.38	14010	
511.57	15942	
511.77	16006	
511.97	14481	
512.17	13433	
512.36	16042	
512.56	15943	
512.76	13741	
512.95	13346	
513.15	16274	
513.35	14787	
513.55	14718	
513.74	13822	
513.94	16164	
514.14	15632	
514.33	14831	
514.53	14739	
514.73	15594	
514.92	15829	
515.12	14156	
515.32	13993	
515.51	15935	
515.71	16569	
515.91	15834	
516.11	14047	
516.3	17894	
516.5	15571	
516.7	14511	
516.89	15347	
517.09	15677	
517.29	15586	
517.48	15114	
517.68	14283	
517.88	15400	
518.07	16154	
518.27	14982	
518.47	13893	
518.66	16647	
518.86	15285	
519.06	13764	
519.25	14298	
519.45	15685	
519.65	17344	
519.84	14837	
520.04	15662	
520.24	17380	
520.43	16006	
520.63	14394	
520.83	14122	
521.02	15263	
521.22	15973	
521.42	14720	
521.61	15287	
521.81	15532	
522.01	15829	
522.2	14679	
522.4	14454	
522.6	16607	
522.79	15545	
522.99	14828	
523.18	14343	
523.38	16597	
523.58	16624	
523.77	16508	
523.97	14465	
524.17	18820	
524.36	17933	
524.56	16241	
524.76	15763	
524.95	17141	
525.15	16619	
525.34	15632	
525.54	15666	
525.74	17473	
525.93	16305	
526.13	16982	
526.33	15745	
526.52	18107	
526.72	17489	
526.91	17245	
527.11	16444	
527.31	18235	
527.5	18809	
527.7	16457	
527.89	15481	
528.09	17223	
528.29	17930	
528.48	16870	
528.68	16477	
528.87	18241	
529.07	18023	
529.27	16362	
529.46	15586	
529.66	17546	
529.85	17934	
530.05	15461	
530.25	16339	
530.44	19245	
530.64	17641	
530.83	16227	
531.03	16708	
531.23	18327	
531.42	18150	
531.62	17462	
531.81	16737	
532.01	18745	
532.21	19375	
532.4	16630	
532.6	17161	
532.79	19781	
532.99	19114	
533.18	17274	
533.38	18233	
533.58	18762	
533.77	19500	
533.97	17310	
534.16	18259	
534.36	19709	
534.55	18947	
534.75	18381	
534.95	17492	
535.14	19639	
535.34	18711	
535.53	16791	
535.73	18985	
535.92	20196	
536.12	18824	
536.31	17076	
536.51	18171	
536.71	19147	
536.9	18721	
537.1	17281	
537.29	17413	
537.49	19629	
537.68	18781	
537.88	17987	
538.07	17092	
538.27	19060	
538.46	20067	
538.66	17030	
538.86	17612	
539.05	19070	
539.25	19442	
539.44	17858	
539.64	17116	
539.83	18720	
540.03	19673	
540.22	17177	
540.42	17193	
540.61	19049	
540.81	19228	
541	17595	
541.2	18498	
541.39	18333	
541.59	18784	
541.78	17991	
541.98	16959	
542.18	17961	
542.37	17959	
542.57	17065	
542.76	17757	
542.96	17887	
543.15	18596	
543.35	16928	
543.54	16318	
543.74	18681	
543.93	18318	
544.13	16765	
544.32	18064	
544.52	18565	
544.71	17649	
544.91	15853	
545.1	17245	
545.3	17762	
545.49	18546	
545.69	15805	
545.88	16489	
546.08	19516	
546.27	18841	
546.47	16981	
546.66	16204	
546.86	18652	
547.05	19523	
547.24	16397	
547.44	16232	
547.63	17286	
547.83	18864	
548.02	16623	
548.22	16858	
548.41	17239	
548.61	18748	
548.8	16094	
549	15941	
549.19	17669	
549.39	18251	
549.58	15642	
549.78	16225	
549.97	18178	
550.17	17590	
550.36	17053	
550.55	18072	
550.75	17614	
550.94	18587	
551.14	15676	
551.33	16077	
551.53	16967	
551.72	18065	
551.92	16219	
552.11	16030	
552.31	17979	
552.5	18000	
552.69	17544	
552.89	15453	
553.08	17892	
553.28	17560	
553.47	15951	
553.67	17172	
553.86	18520	
554.06	16760	
554.25	14938	
554.44	15608	
554.64	19177	
554.83	18810	
555.03	15574	
555.22	16006	
555.42	17866	
555.61	17820	
555.8	15629	
556	15967	
556.19	16738	
556.39	17968	
556.58	15662	
556.78	15674	
556.97	17448	
557.16	17193	
557.36	17139	
557.55	15478	
557.75	16365	
557.94	18277	
558.13	15428	
558.33	15256	
558.52	18017	
558.72	16832	
558.91	15209	
559.1	15463	
559.3	16617	
559.49	16035	
559.69	14752	
559.88	15816	
560.07	17288	
560.27	17671	
560.46	15935	
560.66	16131	
560.85	17019	
561.04	16096	
561.24	15115	
561.43	15204	
561.63	16348	
561.82	16645	
562.01	16595	
562.21	15806	
562.4	17211	
562.59	18356	
562.79	15613	
562.98	15343	
563.18	17350	
563.37	18902	
563.56	16131	
563.76	15323	
563.95	16660	
564.14	16657	
564.34	15685	
564.53	15503	
564.73	17377	
564.92	17737	
565.11	15916	
565.31	15347	
565.5	17995	
565.69	16910	
565.89	15482	
566.08	15786	
566.27	17868	
566.47	18585	
566.66	16479	
566.85	15096	
567.05	17562	
567.24	16910	
567.44	15502	
567.63	16984	
567.82	17738	
568.02	17499	
568.21	15523	
568.4	15901	
568.6	17457	
568.79	17348	
568.98	15504	
569.18	15698	
569.37	17555	
569.56	19603	
569.76	16070	
569.95	16905	
570.14	17643	
570.34	17791	
570.53	15430	
570.72	15337	
570.91	18325	
571.11	17285	
571.3	15825	
571.49	16722	
571.69	17447	
571.88	16985	
572.07	16662	
572.27	16503	
572.46	17101	
572.65	18054	
572.85	15846	
573.04	16252	
573.23	18651	
573.43	17648	
573.62	15942	
573.81	16478	
574	17972	
574.2	17658	
574.39	16295	
574.58	16461	
574.78	18869	
574.97	18122	
575.16	16869	
575.36	17059	
575.55	18573	
575.74	18791	
575.93	15821	
576.13	17378	
576.32	17864	
576.51	18776	
576.71	16461	
576.9	17894	
577.09	18966	
577.28	18386	
577.48	17137	
577.67	15923	
577.86	18166	
578.05	18517	
578.25	16706	
578.44	16810	
578.63	18203	
578.83	19516	
579.02	16029	
579.21	17813	
579.4	18548	
579.6	18258	
579.79	16911	
579.98	19299	
580.17	19110	
580.37	19146	
580.56	16507	
580.75	17438	
580.94	19641	
581.14	19530	
581.33	17908	
581.52	16780	
581.71	19037	
581.91	19798	
582.1	16638	
582.29	17110	
582.48	18675	
582.68	18753	
582.87	17821	
583.06	17451	
583.25	19217	
583.45	18376	
583.64	18105	
583.83	18986	
584.02	18609	
584.21	19250	
584.41	18105	
584.6	17422	
584.79	18766	
584.98	19921	
585.18	16849	
585.37	16776	
585.56	18264	
585.75	19161	
585.94	16838	
586.14	17596	
586.33	19384	
586.52	18587	
586.71	17187	
586.91	17055	
587.1	17731	
587.29	18757	
587.48	16633	
587.67	16589	
587.87	18446	
588.06	18509	
588.25	17701	
588.44	16974	
588.63	17826	
588.83	18452	
589.02	15900	
589.21	15604	
589.4	16836	
589.59	16733	
589.78	14209	
589.98	14470	
590.17	15804	
590.36	16555	
590.55	13702	
590.74	14455	
590.94	17776	
591.13	16266	
591.32	14348	
591.51	13888	
591.7	16914	
591.89	16356	
592.09	13925	
592.28	14588	
592.47	15575	
592.66	17712	
592.85	14240	
593.05	14519	
593.24	16224	
593.43	17069	
593.62	14702	
593.81	15246	
594	16335	
594.19	16656	
594.39	14510	
594.58	14226	
594.77	16586	
594.96	17133	
595.15	14186	
595.34	14737	
595.54	16455	
595.73	15463	
595.92	13540	
596.11	14902	
596.3	16998	
596.49	15714	
596.68	14500	
596.88	15111	
597.07	16754	
597.26	15646	
597.45	14129	
597.64	15464	
597.83	15896	
598.02	16595	
598.22	14096	
598.41	14837	
598.6	16292	
598.79	15642	
598.98	14231	
599.17	15391	
599.36	16336	
599.55	17524	
599.74	16575	
599.94	16177	
600.13	16866	
600.32	15753	
600.51	14063	
600.7	14190	
600.89	17473	
601.08	17699	
601.27	13953	
601.47	15088	
601.66	16821	
601.85	17663	
602.04	14676	
602.23	14759	
602.42	15955	
602.61	16515	
602.8	14743	
602.99	14375	
603.18	16376	
603.37	16610	
603.57	15001	
603.76	15579	
603.95	17409	
604.14	17035	
604.33	14498	
604.52	15025	
604.71	16616	
604.9	16120	
605.09	15528	
605.28	15247	
605.47	17240	
605.66	16819	
605.86	15141	
606.05	14528	
606.24	17068	
606.43	15681	
606.62	14987	
606.81	15606	
607	16991	
607.19	16298	
607.38	14165	
607.57	14554	
607.76	16236	
607.95	15436	
608.14	14741	
608.33	15505	
608.52	16001	
608.72	16973	
608.91	14055	
609.1	14037	
609.29	15961	
609.48	15386	
609.67	15014	
609.86	13981	
610.05	15553	
610.24	16008	
610.43	13916	
610.62	13429	
610.81	17067	
611	16924	
611.19	13991	
611.38	14763	
611.57	16252	
611.76	17563	
611.95	13812	
612.14	13564	
612.33	15950	
612.52	15580	
612.71	14342	
612.9	13440	
613.09	15119	
613.28	17639	
613.47	14014	
613.66	15088	
613.85	16237	
614.04	15742	
614.24	14143	
614.43	13334	
614.62	16380	
614.81	16197	
615	14665	
615.19	14820	
615.38	15532	
615.57	15924	
615.76	14622	
615.95	15636	
616.14	16263	
616.33	15926	
616.52	14928	
616.71	15294	
616.9	16354	
617.09	16248	
617.28	14345	
617.47	15737	
617.66	15615	
617.85	15631	
618.04	15699	
618.22	14924	
618.41	16182	
618.6	17217	
618.79	14922	
618.98	14712	
619.17	17578	
619.36	15815	
619.55	15008	
619.74	14921	
619.93	16963	
620.12	16370	
620.31	15699	
620.5	15967	
620.69	17666	
620.88	17985	
621.07	16609	
621.26	15571	
621.45	17290	
621.64	17197	
621.83	15879	
622.02	14987	
622.21	17297	
622.4	17193	
622.59	16425	
622.78	16251	
622.97	16765	
623.16	17862	
623.35	15789	
623.54	14886	
623.72	16940	
623.91	17122	
624.1	16229	
624.29	14756	
624.48	18226	
624.67	17388	
624.86	16083	
625.05	15077	
625.24	18333	
625.43	16691	
625.62	17952	
625.81	15221	
626	17727	
626.19	17004	
626.38	16087	
626.56	15351	
626.75	16707	
626.94	17548	
627.13	15764	
627.32	14497	
627.51	17212	
627.7	18827	
627.89	14544	
628.08	15935	
628.27	16386	
628.46	16614	
628.65	14854	
628.83	14724	
629.02	17132	
629.21	16421	
629.4	15433	
629.59	15690	
629.78	16477	
629.97	17492	
630.16	15827	
630.35	15314	
630.54	18019	
630.72	17606	
630.91	15212	
631.1	15703	
631.29	17122	
631.48	17340	
631.67	15932	
631.86	15393	
632.05	16839	
632.24	16905	
632.42	14980	
632.61	15728	
632.8	17013	
632.99	16608	
633.18	15768	
633.37	16023	
633.56	17075	
633.75	17177	
633.93	15806	
634.12	15382	
634.31	18079	
634.5	17712	
634.69	15441	
634.88	15768	
635.07	17101	
635.25	17514	
635.44	16329	
635.63	16733	
635.82	16803	
636.01	16343	
636.2	16225	
636.39	15924	
636.57	18001	
636.76	17585	
636.95	15294	
637.14	16736	
637.33	17319	
637.52	18288	
637.7	14910	
637.89	16046	
638.08	16785	
638.27	18344	
638.46	16074	
638.65	16406	
638.83	18155	
639.02	16528	
639.21	15793	
639.4	16196	
639.59	17022	
639.78	16646	
639.96	14901	
640.15	14906	
640.34	16693	
640.53	16815	
640.72	14555	
640.91	14938	
641.09	16010	
641.28	17447	
641.47	14913	
641.66	15870	
641.85	16795	
642.03	16903	
642.22	15497	
642.41	14860	
642.6	16071	
642.79	15388	
642.97	14342	
643.16	15244	
643.35	16006	
643.54	15659	
643.73	14284	
643.91	15098	
644.1	15280	
644.29	16079	
644.48	14126	
644.67	14111	
644.85	15296	
645.04	15557	
645.23	13347	
645.42	13734	
645.6	14755	
645.79	15997	
645.98	13325	
646.17	12426	
646.36	14162	
646.54	14752	
646.73	13853	
646.92	12589	
647.11	14269	
647.29	15347	
647.48	12668	
647.67	12332	
647.86	15528	
648.05	15787	
648.23	13190	
648.42	14476	
648.61	15104	
648.8	14818	
648.98	12796	
649.17	13327	
649.36	14495	
649.55	13955	
649.73	12834	
649.92	13667	
650.11	14313	
650.3	14553	
650.48	12904	
650.67	12603	
650.86	14815	
651.05	13812	
651.23	12806	
651.42	12803	
651.61	14241	
651.79	14334	
651.98	13142	
652.17	12531	
652.36	14633	
652.54	13637	
652.73	12605	
652.92	12383	
653.11	14472	
653.29	14650	
653.48	11636	
653.67	12635	
653.85	13966	
654.04	15123	
654.23	12665	
654.42	11946	
654.6	13034	
654.79	13796	
654.98	11203	
655.16	11831	
655.35	12701	
655.54	12876	
655.73	11509	
655.91	11479	
656.1	14052	
656.29	12853	
656.47	11226	
656.66	13029	
656.85	13264	
657.03	13442	
657.22	11928	
657.41	11992	
657.59	13548	
657.78	13277	
657.97	11713	
658.16	12459	
658.34	14358	
658.53	14820	
658.72	13474	
658.9	13882	
659.09	13723	
659.28	13897	
659.46	12274	
659.65	12256	
659.84	13580	
660.02	14120	
660.21	12038	
660.4	12100	
660.58	14513	
660.77	13793	
660.96	12697	
661.14	11740	
661.33	14947	
661.52	14938	
661.7	11559	
661.89	15420	
662.08	13345	
662.26	13064	
662.45	11909	
662.64	11954	
662.82	14102	
663.01	13306	
663.2	11897	
663.38	12802	
663.57	13817	
663.75	13870	
663.94	12250	
664.13	13646	
664.31	13178	
664.5	13956	
664.69	12454	
664.87	13260	
665.06	13041	
665.25	13777	
665.43	13252	
665.62	13347	
665.8	14140	
665.99	13461	
666.18	12151	
666.36	12315	
666.55	14113	
666.74	13938	
666.92	11741	
667.11	13344	
667.29	13398	
667.48	13965	
667.67	12984	
667.85	12101	
668.04	13329	
668.22	13439	
668.41	12112	
668.6	12357	
668.78	13144	
668.97	13329	
669.15	12563	
669.34	11363	
669.53	13089	
669.71	13467	
669.9	11588	
670.08	12216	
670.27	13227	
670.46	13681	
670.64	12540	
670.83	12700	
671.01	12914	
671.2	13571	
671.38	11768	
671.57	11465	
671.76	14207	
671.94	14964	
672.13	11469	
672.31	12590	
672.5	13898	
672.69	13104	
672.87	11753	
673.06	12031	
673.24	13687	
673.43	13205	
673.61	12487	
673.8	12017	
673.98	13725	
674.17	13958	
674.36	12654	
674.54	12288	
674.73	13491	
674.91	13725	
675.1	12101	
675.28	11736	
675.47	13218	
675.65	13921	
675.84	11956	
676.03	12424	
676.21	13072	
676.4	12600	
676.58	12777	
676.77	12570	
676.95	14618	
677.14	12969	
677.32	11615	
677.51	11344	
677.69	13842	
677.88	12683	
678.06	11580	
678.25	11631	
678.44	13417	
678.62	13046	
678.81	11239	
678.99	12325	
679.18	14029	
679.36	13704	
679.55	11932	
679.73	12446	
679.92	13736	
680.1	13119	
680.29	13224	
680.47	11777	
680.66	12921	
680.84	13863	
681.03	11142	
681.21	12209	
681.4	13053	
681.58	12836	
681.77	11631	
681.95	11501	
682.14	13855	
682.32	14119	
682.51	12472	
682.69	11159	
682.88	12725	
683.06	13440	
683.25	12077	
683.43	12521	
683.62	12903	
683.8	13291	
683.99	12239	
684.17	11451	
684.36	13713	
684.54	12136	
684.73	9886.9	
684.91	10052	
685.1	12010	
685.28	11473	
685.46	10558	
685.65	10687	
685.83	12199	
686.02	11688	
686.2	10124	
686.39	10309	
686.57	11713	
686.76	13300	
686.94	10370	
687.13	10594	
687.31	12271	
687.5	11966	
687.68	10043	
687.86	11361	
688.05	13922	
688.23	11574	
688.42	11570	
688.6	10710	
688.79	12058	
688.97	12037	
689.16	11238	
689.34	9978.4	
689.52	12874	
689.71	13147	
689.89	11428	
690.08	10598	
690.26	12385	
690.45	12028	
690.63	11412	
690.81	10681	
691	11761	
691.18	11743	
691.37	10692	
691.55	13003	
691.74	11686	
691.92	13688	
692.1	10703	
692.29	10136	
692.47	11843	
692.66	11186	
692.84	10533	
693.02	11182	
693.21	11516	
693.39	12035	
693.58	11377	
693.76	10785	
693.94	13521	
694.13	13391	
694.31	11071	
694.5	12179	
694.68	12328	
694.86	12708	
695.05	11411	
695.23	11852	
695.42	13073	
695.6	15401	
695.78	12013	
695.97	10919	
696.15	12994	
696.34	12244	
696.52	10580	
696.7	11415	
696.89	12482	
697.07	11850	
697.25	11249	
697.44	13049	
697.62	12311	
697.81	12691	
697.99	10854	
698.17	11297	
698.36	11527	
698.54	12197	
698.72	11316	
698.91	10133	
699.09	11850	
699.28	11672	
699.46	10769	
699.64	10592	
699.83	11588	
700.01	12922	
700.19	11565	
700.38	10093	
700.56	13131	
700.74	11875	
700.93	10411	
701.11	11386	
701.29	12689	
701.48	13732	
701.66	10669	
701.84	10832	
702.03	12055	
702.21	12878	
702.39	10257	
702.58	10981	
702.76	12507	
702.94	12655	
703.13	10216	
703.31	12937	
703.49	11744	
703.68	13223	
703.86	10550	
704.04	11586	
704.23	12323	
704.41	12751	
704.59	10699	
704.78	11989	
704.96	13540	
705.14	12732	
705.33	10433	
705.51	11262	
705.69	12184	
705.87	13028	
706.06	11670	
706.24	10445	
706.42	12529	
706.61	12800	
706.79	11701	
706.97	10379	
707.16	11867	
707.34	12523	
707.52	11483	
707.7	10705	
707.89	11972	
708.07	11716	
708.25	11516	
708.44	11670	
708.62	11904	
708.8	13064	
708.98	11839	
709.17	10717	
709.35	12359	
709.53	12309	
709.72	10288	
709.9	10411	
710.08	12402	
710.26	12493	
710.45	11977	
710.63	10679	
710.81	12078	
710.99	12033	
711.18	11058	
711.36	10559	
711.54	11662	
711.72	12322	
711.91	10267	
712.09	9766.1	
712.27	11591	
712.45	12278	
712.64	10561	
712.82	9251.4	
713	10665	
713.18	10699	
713.37	9004.9	
713.55	9992	
713.73	11028	
713.91	9443.9	
714.1	8666.3	
714.28	7977.5	
714.46	10144	
714.64	9211.8	
714.83	7107.1	
715.01	7862.8	
715.19	9081.4	
715.37	8381.7	
715.55	7413	
715.74	7716.7	
715.92	9912.2	
716.1	7742	
716.28	8800.1	
716.47	7696.9	
716.65	8388.5	
716.83	8643.1	
717.01	7582.3	
717.19	7798.7	
717.38	10910	
717.56	8413.7	
717.74	8205.5	
717.92	7429.3	
718.1	9985.9	
718.29	9279.3	
718.47	7264.8	
718.65	8083.3	
718.83	10276	
719.01	10144	
719.2	7316	
719.38	8468.4	
719.56	9812.5	
719.74	11454	
719.92	7800.7	
720.11	8888.9	
720.29	9579.7	
720.47	8464.3	
720.65	7101.7	
720.83	7853.3	
721.02	8634.2	
721.2	8400.1	
721.38	7851.2	
721.56	7021.8	
721.74	7852.6	
721.92	8006.2	
722.11	8291.5	
722.29	7990.5	
722.47	9370.8	
722.65	8440.4	
722.83	7002	
723.01	7996	
723.2	8453.3	
723.38	8811.7	
723.56	6430.6	
723.74	7594.6	
723.92	7974.8	
724.1	9269.8	
724.29	6831.3	
724.47	8058.8	
724.65	8036.2	
724.83	7995.3	
725.01	6721.4	
725.19	7804.1	
725.37	8069	
725.56	8195.3	
725.74	6638.8	
725.92	6935.8	
726.1	7959.8	
726.28	8305.9	
726.46	7318.8	
726.64	6980.8	
726.83	8266.3	
727.01	8607.6	
727.19	6457.2	
727.37	7470.3	
727.55	8398	
727.73	8924.4	
727.91	6627.2	
728.09	6516	
728.28	9045.2	
728.46	9766.1	
728.64	7807.5	
728.82	7653.9	
729	10367	
729.18	9684.8	
729.36	7208.2	
729.54	9678.7	
729.72	10948	
729.91	9101.9	
730.09	9293	
730.27	8041	
730.45	9056.1	
730.63	9846	
730.81	8739.4	
730.99	7588.4	
731.17	10352	
731.35	8853.4	
731.53	8292.9	
731.71	7899	
731.9	9952.4	
732.08	10129	
732.26	7986.4	
732.44	7636.2	
732.62	10166	
732.8	9652.8	
732.98	8480.6	
733.16	7510.6	
733.34	9609.8	
733.52	8357.8	
733.7	7960.5	
733.88	8303.8	
734.07	9556.5	
734.25	9271.8	
734.43	7445.7	
734.61	9168.8	
734.79	10848	
734.97	9070.5	
735.15	7597.3	
735.33	7915.4	
735.51	9536	
735.69	9142.8	
735.87	9131.2	
736.05	8243.1	
736.23	9301.2	
736.41	9096.4	
736.59	8044.4	
736.77	8166.6	
736.95	9995.5	
737.13	9289.6	
737.32	7776.8	
737.5	8029.4	
737.68	10500	
737.86	9197.4	
738.04	7478.5	
738.22	9404.3	
738.4	8798.8	
738.58	9204.9	
738.76	8172.8	
738.94	7100.3	
739.12	9119.6	
739.3	9000.8	
739.48	8826.7	
739.66	8681.3	
739.84	9397.4	
740.02	9436.4	
740.2	7129.7	
740.38	7567.2	
740.56	9815.2	
740.74	8609.7	
740.92	8284	
741.1	8165.3	
741.28	9075.9	
741.46	8899.1	
741.64	7747.5	
741.82	8310	
742	9102.5	
742.18	9109.4	
742.36	8009.6	
742.54	7468.3	
742.72	9712.2	
742.9	8377.6	
743.08	8383.7	
743.26	6980.8	
743.44	9910.1	
743.62	9688.3	
743.8	8465.6	
743.98	7494.9	
744.16	9383.8	
744.34	8979	
744.52	8333.2	
744.7	8262.2	
744.88	9454.8	
745.06	8990.6	
745.24	8255.4	
745.42	8415.1	
745.6	9490.3	
745.78	9175.6	
745.96	6909.2	
746.14	7299.6	
746.32	10200	
746.5	9541.5	
746.68	7925.6	
746.86	7334.5	
747.03	10008	
747.21	8039	
747.39	7820.5	
747.57	7263.5	
747.75	8971.5	
747.93	9468.4	
748.11	7318.1	
748.29	7243.7	
748.47	10742	
748.65	8662.9	
748.83	8130.4	
749.01	7826	
749.19	9265	
749.37	8389.2	
749.55	7617.1	
749.73	7660.8	
749.91	8824.7	
750.09	8544.1	
750.26	7825.3	
750.44	7133.8	
750.62	8944.2	
750.8	8838.4	
750.98	6899.6	
751.16	7351.5	
751.34	8923.7	
751.52	8176.9	
751.7	8151.6	
751.88	6901	
752.06	9465.7	
752.24	9262.3	
752.42	6853.9	
752.59	7326.9	
752.77	8789.2	
752.95	10281	
753.13	7992.5	
753.31	7304.4	
753.49	8480.6	
753.67	8941.4	
753.85	7623.2	
754.03	7219.1	
754.21	9183.1	
754.38	9495.7	
754.56	7145.4	
754.74	6109.1	
754.92	8060.8	
755.1	8659.5	
755.28	5680.4	
755.46	5477	
755.64	8529.1	
755.82	8499.8	
755.99	5028.4	
756.17	4999.8	
756.35	5446.2	
756.53	7111.2	
756.71	3712.3	
756.89	4732.2	
757.07	6718	
757.25	5837.4	
757.42	5545.2	
757.6	6711.2	
757.78	7251.9	
757.96	6150.1	
758.14	5511.8	
758.32	4952.7	
758.5	5636	
758.67	6376.7	
758.85	5126.1	
759.03	5190.2	
759.21	6571.9	
759.39	5988.3	
759.57	4693.9	
759.75	5941.8	
759.92	7342.7	
760.1	6648.4	
760.28	6434	
760.46	6791.1	
760.64	6630.6	
760.82	6412.9	
760.99	6579.4	
761.17	5768.4	
761.35	7744.7	
761.53	6627.9	
761.71	6047.7	
761.89	6807.4	
762.06	7828	
762.24	7361.8	
762.42	6369.9	
762.6	6139.1	
762.78	7473.7	
762.96	8137.9	
763.13	6861.4	
763.31	6606.7	
763.49	8405.5	
763.67	7497.6	
763.85	7445	
764.02	8120.9	
764.2	8676.6	
764.38	7865.6	
764.56	6494.1	
764.74	7415.7	
764.91	8930.5	
765.09	7752.9	
765.27	6172.6	
765.45	5909.8	
765.63	8914.1	
765.8	8746.2	
765.98	5572.5	
766.16	5937.1	
766.34	7115.3	
766.52	7016.3	
766.69	6875	
766.87	5702.9	
767.05	7571.3	
767.23	8335.9	
767.41	6035.4	
767.58	6268.1	
767.76	8034.9	
767.94	8177.5	
768.12	6007.4	
768.29	6857.3	
768.47	7561.1	
768.65	8324.3	
768.83	5560.2	
769	6852.5	
769.18	7017	
769.36	7728.4	
769.54	6536.4	
769.72	5619.6	
769.89	8011	
770.07	8165.9	
770.25	5884.5	
770.43	7177.4	
770.6	8871.8	
770.78	9151.7	
770.96	6083.8	
771.14	6684.6	
771.31	7795.9	
771.49	7107.8	
771.67	5138.4	
771.85	5329.5	
772.02	6296.1	
772.2	7088	
772.38	6076.3	
772.55	5552	
772.73	7303.7	
772.91	7047.1	
773.09	5865.4	
773.26	6007.4	
773.44	7222.5	
773.62	6846.4	
773.8	5352.7	
773.97	5004.6	
774.15	7193.8	
774.33	6804.7	
774.5	5094.7	
774.68	5563	
774.86	7107.1	
775.04	6780.1	
775.21	5241.4	
775.39	5214.8	
775.57	6978.8	
775.74	7466.9	
775.92	5031.2	
776.1	4915.8	
776.27	6941.9	
776.45	8221.2	
776.63	5145.2	
776.81	4646.8	
776.98	6522.8	
777.16	7679.2	
777.34	5219.6	
777.51	5622.4	
777.69	6447.7	
777.87	6206.7	
778.04	5191.6	
778.22	5912.5	
778.4	6206	
778.57	6845	
778.75	4431.8	
778.93	4688.5	
779.1	5912.5	
779.28	5820.3	
779.46	4343.1	
779.64	4863.2	
779.81	6987	
779.99	7842.4	
780.17	5724.1	
780.34	5876.3	
780.52	6372.6	
780.69	6593.1	
780.87	5213.4	
781.05	4648.2	
781.22	6382.8	
781.4	6469.5	
781.58	4831.2	
781.75	3971.7	
781.93	6389	
782.11	5787.6	
782.28	5743.2	
782.46	4791.6	
782.64	5587.5	
782.81	6445	
782.99	4760.8	
783.17	4812	
783.34	6381.5	
783.52	5573.9	
783.69	4971.8	
783.87	5800.5	
784.05	5628.5	
784.22	5532.2	
784.4	5783.5	
784.58	4969.7	
784.75	6606.1	
784.93	5643.5	
785.1	4658.4	
785.28	5264.6	
785.46	6225.8	
785.63	5597.8	
785.81	4554	
785.99	4386.7	
786.16	5733.6	
786.34	6193.1	
786.51	4418.8	
786.69	4847.5	
786.87	5283.1	
787.04	5810.8	
787.22	3855.6	
787.39	5272.8	
787.57	5505.6	
787.75	6692.8	
787.92	5447.6	
788.1	5365.7	
788.27	5464.7	
788.45	5294.7	
788.63	5057.1	
788.8	3722.5	
788.98	6035.4	
789.15	5153.4	
789.33	3912.3	
789.5	4520.5	
789.68	6429.3	
789.86	6604	
790.03	4994.3	
790.21	4367	
790.38	6406.7	
790.56	5640.1	
790.73	4179.9	
790.91	4214	
791.09	5430.5	
791.26	6244.9	
791.44	4395.6	
791.61	3837.2	
791.79	5440.8	
791.96	5460.6	
792.14	3903.4	
792.32	3493.2	
792.49	5335.6	
792.67	5524.1	
792.84	4094.6	
793.02	3828.3	
793.19	5822.4	
793.37	6591	
793.54	3559.4	
793.72	3899.3	
793.89	6847.7	
794.07	5360.2	
794.25	4560.8	
794.42	3575.8	
794.6	6481.8	
794.77	6082.5	
794.95	4797	
795.12	4123.9	
795.3	5384.1	
795.47	5998.5	
795.65	4613.4	
795.82	4415.4	
796	5123.3	
796.17	7264.1	
796.35	4246.1	
796.52	5003.9	
796.7	5891.3	
796.87	6011.5	
797.05	5307.7	
797.22	5165	
797.4	5915.2	
797.57	6938.5	
797.75	4397	
797.92	4100	
798.1	6247	
798.27	5327.4	
798.45	3541.6	
798.62	3783.3	
798.8	5677.7	
798.97	6135	
799.15	4572.4	
799.32	4413.4	
799.5	4839.4	
799.67	5674.9	
799.85	4757.4	
800.02	3457	
800.2	5197.7	
800.37	5640.8	
800.55	4911	
800.72	4111.6	
800.9	6058.6	
801.07	6612.9	
801.25	5593	
801.42	4459.8	
801.6	6125.5	
801.77	5881.1	
801.95	4059.8	
802.12	3994.2	
802.29	5791	
802.47	5788.2	
802.64	4412	
802.82	3381.9	
802.99	5217.5	
803.17	6268.1	
803.34	4375.8	
803.52	3863.2	
803.69	6946.7	
803.87	5008.6	
804.04	4319.2	
804.21	4365.6	
804.39	6344.6	
804.56	5427.8	
804.74	3631.7	
804.91	4472.8	
805.09	5261.9	
805.26	5279	
805.44	3674.7	
805.61	4067.3	
805.78	5925.5	
805.96	5997.1	
806.13	4468	
806.31	4778.6	
806.48	4670.1	
806.66	5286.5	
806.83	4420.2	
807	4321.2	
807.18	5239.4	
807.35	5563	
807.53	4283	
807.7	3442.6	
807.87	6436.1	
808.05	5257.8	
808.22	4829.1	
808.4	3434.4	
808.57	5264.6	
808.74	4841.4	
808.92	3958	
809.09	4917.9	
809.27	5046.2	
809.44	5782.1	
809.61	3420.1	
809.79	3825.6	
809.96	6419.7	
810.14	5969.8	
810.31	3342.3	
810.48	4114.4	
810.66	5360.9	
810.83	6085.2	
811.01	3920.5	
811.18	4713.1	
811.35	6030.6	
811.53	4676.2	
811.7	4780	
811.87	4438.6	
812.05	5181.4	
812.22	5128.1	
812.39	3781.9	
812.57	3702	
812.74	5262.6	
812.92	6997.9	
813.09	4085	
813.26	4461.2	
813.44	6670.2	
813.61	5128.1	
813.78	3390.8	
813.96	4605.2	
814.13	5295.4	
814.3	4883.7	
814.48	5028.4	
814.65	4147.1	
814.82	6520.7	
815	4957.4	
815.17	4222.2	
815.34	5145.2	
815.52	5113.8	
815.69	5189.6	
815.87	4182	
816.04	3657.7	
816.21	5272.8	
816.38	4578.6	
816.56	4072.7	
816.73	3758	
816.9	6578.1	
817.08	5974.6	
817.25	3805.8	
817.42	4824.3	
817.6	4717.8	
817.77	5256.5	
817.94	4360.8	
818.12	3773.7	
818.29	4876.9	
818.46	7819.8	
818.64	3938.2	
818.81	3723.9	
818.98	4873.5	
819.16	7124.2	
819.33	4549.9	
819.5	4199.7	
819.67	5533.6	
819.85	6287.3	
820.02	4119.8	
820.19	4411.3	
820.37	5440.8	
820.54	4976.6	
820.71	4306.2	
820.88	5338.4	
821.06	5506.3	
821.23	4950.6	
821.4	4356	
821.58	4247.5	
821.75	5981.4	
821.92	5337.7	
822.09	3409.9	
822.27	3769.6	
822.44	5177.3	
822.61	5120.6	
822.79	3447.4	
822.96	6696.2	
823.13	5705	
823.3	4863.9	
823.48	4052.2	
823.65	3615.3	
823.82	5936.4	
823.99	4683.7	
824.17	5107	
824.34	3626.3	
824.51	6920.8	
824.68	5259.2	
824.86	3814.7	
825.03	4287.1	
825.2	5172.5	
825.37	6367.1	
825.55	3767.6	
825.72	4281.6	
825.89	6959	
826.06	6466.8	
826.24	4128	
826.41	4190.1	
826.58	6346.7	
826.75	5555.5	
826.92	3237.2	
827.1	3624.9	
827.27	8662.2	
827.44	6920.8	
827.61	3986	
827.79	4782	
827.96	4889.2	
828.13	5339.7	
828.3	4030.4	
828.47	3440.6	
828.65	5429.2	
828.82	5322	
828.99	5322.7	
829.16	4696	
829.34	5821	
829.51	5578.7	
829.68	4185.4	
829.85	4444.8	
830.02	6198.5	
830.2	5812.8	
830.37	3303.4	
830.54	5175.2	
830.71	6672.3	
830.88	5147.2	
831.05	3345.7	
831.23	3841.3	
831.4	6352.1	
831.57	7196.6	
831.74	3907.5	
831.91	3485.6	
832.09	5466.7	
832.26	5851.7	
832.43	4086.4	
832.6	4573.1	
832.77	5416.9	
832.94	6258.6	
833.12	3203	
833.29	4013.3	
833.46	5063.9	
833.63	7475.1	
833.8	4460.5	
833.97	4068.6	
834.15	5866.7	
834.32	5569.8	
834.49	4242	
834.66	4384.7	
834.83	6066.8	
835	4892.6	
835.17	3922.5	
835.35	3958.7	
835.52	5694.7	
835.69	5634	
835.86	4188.1	
836.03	3432.4	
836.2	5820.3	
836.37	5451.7	
836.55	4022.2	
836.72	3850.2	
836.89	5361.6	
837.06	5810.1	
837.23	4192.9	
837.4	4554.7	
837.57	6702.3	
837.75	7456.7	
837.92	3676.1	
838.09	4005.1	
838.26	5349.3	
838.43	6145.3	
838.6	4260.5	
838.77	3812.6	
838.94	7028.6	
839.11	6731.7	
839.29	4119.1	
839.46	3193.5	
839.63	5793	
839.8	5497.4	
839.97	3928	
840.14	3952.6	
840.31	5617.6	
840.48	5847	
840.65	3274	
840.82	3826.3	
841	5773.9	
841.17	5782.8	
841.34	3642.7	
841.51	3701.4	
841.68	5765	
841.85	5457.2	
842.02	3815.4	
842.19	3096.5	
842.36	5584.8	
842.53	5575.9	
842.7	3643.3	
842.87	4459.8	
843.05	7372.7	
843.22	5428.5	
843.39	3461.7	
843.56	3774.4	
843.73	5274.9	
843.9	5900.2	
844.07	5931.6	
844.24	4952	
844.41	8710.7	
844.58	5040.7	
844.75	3493.2	
844.92	3721.2	
845.09	5779.4	
845.26	5771.9	
845.43	3574.4	
845.6	3810.6	
845.77	5839.4	
845.94	5534.3	
846.12	4014	
846.29	4251.6	
846.46	5987.6	
846.63	5855.8	
846.8	3614.7	
846.97	4302.1	
847.14	6329.6	
847.31	5758.2	
847.48	4076.1	
847.65	4481	
847.82	6065.4	
847.99	6072.2	
848.16	4830.5	
848.33	4487.8	
848.5	5366.4	
848.67	6318.7	
848.84	3646.1	
849.01	3768.3	
849.18	5171.1	
849.35	4833.9	
849.52	4511.7	
849.69	3517	
849.86	5988.9	
850.03	6270.9	
850.2	3592.8	
850.37	4442.7	
850.54	6146	
850.71	5441.5	
850.88	4298.7	
851.05	3572.3	
851.22	5682.4	
851.39	6380.1	
851.56	3430.3	
851.73	4136.9	
851.9	5008	
852.07	6038.8	
852.24	4009.9	
852.41	3532.7	
852.58	5527.5	
852.75	5183.4	
852.92	4050.9	
853.09	3523.2	
853.26	5356.1	
853.43	6325.5	
853.6	3602.4	
853.77	3084.2	
853.94	6315.3	
854.11	5051	
854.28	5345.2	
854.44	3907.5	
854.61	6819.1	
854.78	5890	
854.95	3555.3	
855.12	4515.1	
855.29	4666.6	
855.46	6394.4	
855.63	3603.1	
855.8	5012.7	
855.97	5388.2	
856.14	6147.3	
856.31	5145.2	
856.48	3898	
856.65	5293.3	
856.82	5031.9	
856.99	3485.6	
857.16	3858.4	
857.33	7071.6	
857.49	5459.9	
857.66	3861.1	
857.83	4150.5	
858	5387.5	
858.17	5572.5	
858.34	3377.8	
858.51	3602.4	
858.68	6559.6	
858.85	6606.1	
859.02	4236.6	
859.19	4515.8	
859.36	5027.1	
859.52	5160.2	
859.69	3616	
859.86	4237.9	
860.03	5148.6	
860.2	6399.2	
860.37	3248.8	
860.54	3624.2	
860.71	5993	
860.88	6414.9	
861.05	4074.1	
861.21	4570.4	
861.38	6486.6	
861.55	4949.3	
861.72	3268.6	
861.89	4052.9	
862.06	6148	
862.23	6675.7	
862.4	3476.8	
862.56	3790.8	
862.73	5911.8	
862.9	5566.4	
863.07	4187.4	
863.24	3174.4	
863.41	4951.3	
863.58	5090.6	
863.75	3633.8	
863.91	4136.2	
864.08	6415.6	
864.25	5888.6	
864.42	4573.8	
864.59	5053	
864.76	6810.9	
864.93	5063.9	
865.09	3543.7	
865.26	3805.1	
865.43	6345.3	
865.6	6651.1	
865.77	3127.2	
865.94	3580.5	
866.1	6416.3	
866.27	6094.1	
866.44	5416.9	
866.61	3340.9	
866.78	5489.2	
866.95	5945.9	
867.11	3444.7	
867.28	3170.3	
867.45	6142.5	
867.62	5139	
867.79	4084.3	
867.96	3561.4	
868.12	5074.2	
868.29	6116.6	
868.46	3109.5	
868.63	4833.9	
868.8	6240.2	
868.97	5967.1	
869.13	3760.1	
869.3	3752.6	
869.47	5887.9	
869.64	6189	
869.81	3654.9	
869.97	3583.9	
870.14	5836.7	
870.31	6493.4	
870.48	3474	
870.65	4514.4	
870.81	5393.7	
870.98	5302.9	
871.15	4095.9	
871.32	3741.6	
871.48	5886.5	
871.65	6594.5	
871.82	3549.8	
871.99	3940.3	
872.16	7012.2	
872.32	6331.6	
872.49	3652.9	
872.66	3642	
872.83	6040.8	
872.99	5304.9	
873.16	4131.4	
873.33	3557.3	
873.5	5613.5	
873.67	5638.7	
873.83	3779.2	
874	4861.9	
874.17	5755.5	
874.34	6893.5	
874.5	4681.7	
874.67	4504.2	
874.84	6448.4	
875.01	5066.7	
875.17	5117.2	
875.34	3583.3	
875.51	5752.7	
875.68	6943.3	
875.84	4367	
876.01	5290.6	
876.18	5988.9	
876.34	5890.6	
876.51	3626.3	
876.68	3491.8	
876.85	5440.8	
877.01	6311.8	
877.18	5168.4	
877.35	3596.2	
877.52	5567.7	
877.68	4942.4	
877.85	3467.9	
878.02	3585.3	
878.18	5536.3	
878.35	5205.3	
878.52	2851.5	
878.69	4013.3	
878.85	6023.8	
879.02	5962.3	
879.19	5128.8	
879.35	3875.4	
879.52	5938.4	
879.69	6207.4	
879.86	3056.9	
880.02	4017.4	
880.19	5472.9	
880.36	6738.5	
880.52	4150.5	
880.69	4270.7	
880.86	6079.7	
881.02	6165.8	
881.19	3903.4	
881.36	3895.2	
881.52	5977.3	
881.69	5284.4	
881.86	3845.4	
882.02	3768.9	
882.19	6268.8	
882.36	7352.9	
882.52	3667.9	
882.69	5072.8	
882.86	5726.1	
883.02	5682.4	
883.19	4432.5	
883.36	4111	
883.52	6094.8	
883.69	6985.6	
883.86	3622.9	
884.02	3289.7	
884.19	6032	
884.36	5611.4	
884.52	4081.6	
884.69	3805.1	
884.86	5333.6	
885.02	6676.4	
885.19	4019.5	
885.36	4143.7	
885.52	5582.1	
885.69	5729.5	
885.86	5227.8	
886.02	4526	
886.19	6029.9	
886.35	5485.8	
886.52	3952.6	
886.69	5098.1	
886.85	5053	
887.02	6449.7	
887.19	6449.7	
887.35	6449.7	
887.52	6449.7	
887.68	6449.7	
887.85	6449.7	
888.02	6449.7	
888.18	6449.7	
888.35	6449.7	
888.51	6449.7	
888.68	6449.7	
888.85	6449.7	
889.01	6449.7	
889.18	6449.7	
889.35	6449.7	
889.51	6449.7	
889.68	6449.7	
889.84	6449.7	
890.01	6449.7	
890.17	6449.7	
890.34	6449.7	
890.51	6449.7	
890.67	6449.7	
890.84	6449.7	
891	6449.7	
891.17	6449.7	
891.34	6449.7	
891.5	6449.7	
891.67	6449.7	
891.83	6449.7	
892	6449.7	
892.16	6449.7	
892.33	6449.7	
892.5	6449.7	
892.66	6449.7	
892.83	6449.7	
892.99	6449.7	
893.16	6449.7	
893.32	6449.7	
893.49	6449.7	
893.65	6449.7	
893.82	6449.7	
893.99	6449.7	
894.15	6449.7	
894.32	6449.7	
894.48	6449.7	
894.65	6449.7	
894.81	6449.7	
894.98	6449.7	
895.14	6449.7	
895.31	6449.7	
895.47	6449.7	
895.64	6449.7	
895.81	6449.7	
895.97	6449.7	
896.14	6449.7	
896.3	6449.7	
896.47	6449.7	
896.63	6449.7	
896.8	6449.7	
896.96	6449.7	
897.13	6449.7	
897.29	6449.7	
897.46	6449.7	
897.62	6449.7	
897.79	6449.7	
897.95	6449.7	
898.12	6449.7	
898.28	6449.7	
898.45	6449.7	
898.61	6449.7	
898.78	6449.7	
898.94	6449.7	
899.11	6449.7	
899.27	6449.7	
899.44	6449.7	
899.6	6449.7	
899.77	6449.7	
899.93	6449.7	
900.1	6449.7	
900.26	6449.7	
900.43	6449.7	
900.59	6449.7	
900.76	6449.7	
900.92	6449.7	
901.09	6449.7	
901.25	6449.7	
901.42	6449.7	
901.58	6449.7	
901.75	6449.7	
901.91	6449.7	
902.07	6449.7	
902.24	6449.7	
902.4	6449.7	
902.57	6449.7	
902.73	6449.7	
902.9	6449.7	
903.06	6449.7	
903.23	6449.7	
903.39	6449.7	
903.56	6449.7	
903.72	6449.7	
903.88	6449.7	
904.05	6449.7	
904.21	6449.7	
904.38	6449.7	
904.54	6449.7	
904.71	6449.7	
904.87	6449.7	
905.03	6449.7	
905.2	6449.7	
905.36	6449.7	
905.53	6449.7	
905.69	6449.7	
905.86	6449.7	
906.02	6449.7	
906.18	6449.7	
906.35	6449.7	
906.51	6449.7	
906.68	6449.7	
906.84	6449.7	
907.01	6449.7	
907.17	6449.7	
907.33	6449.7	
907.5	6449.7	
907.66	6449.7	
907.83	6449.7	
907.99	6449.7	
908.15	6449.7	
908.32	6449.7	
908.48	6449.7	
908.65	6449.7	
908.81	6449.7	
908.97	6449.7	
909.14	6449.7	
909.3	6449.7	
909.47	6449.7	
909.63	6449.7	
909.79	6449.7	
909.96	6449.7	
910.12	6449.7	
910.28	6449.7	
910.45	6449.7	
910.61	6449.7	
910.78	6449.7	
910.94	6449.7	
911.1	6449.7	
911.27	6449.7	
911.43	6449.7	
911.59	6449.7	
911.76	6449.7	
911.92	6449.7	
912.08	6449.7	
912.25	6449.7	
912.41	6449.7	
912.57	6449.7	
912.74	6449.7	
912.9	6449.7	
913.07	6449.7	
913.23	6449.7	
913.39	6449.7	
913.56	6449.7	
913.72	6449.7	
913.88	6449.7	
914.05	6449.7	
914.21	6449.7	
914.37	6449.7	
914.54	6449.7	
914.7	6449.7	
914.86	6449.7	
915.03	6449.7	
915.19	6449.7	
