Wavelength	Intensities	
nm	a.u.	
179.22	1711.8	
179.44	1721	
179.65	1702.5	
179.86	1739.4	
180.08	1731.9	
180.29	4169	
180.51	3078.1	
180.72	5056.4	
180.94	5769.8	
181.15	2837.8	
181.37	2805.7	
181.58	4927.4	
181.79	5152	
182.01	2933.4	
182.22	3110.9	
182.44	5158.8	
182.65	4390.8	
182.87	3793.5	
183.08	3462.4	
183.29	5472.2	
183.51	4592.9	
183.72	3149.1	
183.94	4374.5	
184.15	4880.3	
184.37	4824.3	
184.58	2837.1	
184.79	3665.2	
185.01	4605.2	
185.22	5145.9	
185.44	3913.7	
185.65	3339.6	
185.86	4890.5	
186.08	4470	
186.29	2769.5	
186.51	2947	
186.72	4590.9	
186.94	5285.1	
187.15	3349.8	
187.36	3444.7	
187.58	6722.1	
187.79	4997	
188.01	3570.3	
188.22	5410.1	
188.43	5842.2	
188.65	5141.1	
188.86	2961.4	
189.08	3471.3	
189.29	4709.6	
189.5	4734.2	
189.72	3202.3	
189.93	3263.8	
190.15	5369.1	
190.36	6181.5	
190.57	3502.7	
190.79	3302	
191	5339.1	
191.22	5352.7	
191.43	3519.1	
191.64	2948.4	
191.86	5577.3	
192.07	5393.7	
192.29	3049.4	
192.5	3231.7	
192.71	5403.9	
192.93	4682.3	
193.14	3189.4	
193.35	3233.7	
193.57	4673.5	
193.78	5366.4	
194	2654.2	
194.21	3151.1	
194.42	4531.5	
194.64	4901.5	
194.85	3421.5	
195.07	3953.3	
195.28	4920.6	
195.49	4332.8	
195.71	4177.9	
195.92	3015.3	
196.13	5074.2	
196.35	5133.6	
196.56	4419.5	
196.78	3469.9	
196.99	6223.1	
197.2	5741.1	
197.42	3850.9	
197.63	3515.7	
197.84	4460.5	
198.06	5109	
198.27	3198.9	
198.48	4143	
198.7	4693.3	
198.91	4857.8	
199.13	3501.3	
199.34	3495.9	
199.55	5281	
199.77	4290.5	
199.98	3099.3	
200.19	3521.1	
200.41	4891.2	
200.62	4552.6	
200.83	3647.4	
201.05	3805.1	
201.26	4838	
201.47	4596.3	
201.69	3116.3	
201.9	3008.5	
202.11	4901.5	
202.33	5619.6	
202.54	3313.6	
202.76	3648.8	
202.97	4992.9	
203.18	4958.1	
203.4	3536.8	
203.61	3564.8	
203.82	4945.8	
204.04	4571.1	
204.25	3493.2	
204.46	3437.2	
204.68	4900.8	
204.89	5052.3	
205.1	3354.6	
205.32	2977.1	
205.53	5212.8	
205.74	5312.4	
205.96	2634.4	
206.17	3554.6	
206.38	5189.6	
206.6	5326.1	
206.81	3987.4	
207.02	3226.9	
207.24	5074.2	
207.45	5418.2	
207.66	3326.6	
207.88	2919.7	
208.09	5042.8	
208.3	4837.3	
208.52	3112.9	
208.73	3326.6	
208.94	4879.6	
209.15	5442.8	
209.37	3340.9	
209.58	3763.5	
209.79	5339.1	
210.01	4762.9	
210.22	2747.7	
210.43	2800.9	
210.65	4872.1	
210.86	5229.8	
211.07	3303.4	
211.29	3005.1	
211.5	5146.5	
211.71	4829.8	
211.93	3097.9	
212.14	3060.3	
212.35	4882.4	
212.56	4995.7	
212.78	3466.5	
212.99	2910.8	
213.2	5636	
213.42	4678.9	
213.63	3156.6	
213.84	3293.1	
214.06	4434.5	
214.27	4479.6	
214.48	3350.5	
214.69	3510.2	
214.91	5416.9	
215.12	5463.3	
215.33	3515	
215.55	3815.4	
215.76	5830.6	
215.97	5156.8	
216.18	3403.7	
216.4	3341.6	
216.61	4644.8	
216.82	5291.3	
217.04	3132	
217.25	3207.1	
217.46	5446.9	
217.67	5203.2	
217.89	2830.3	
218.1	2876	
218.31	4911.7	
218.53	5091.9	
218.74	3244	
218.95	3151.8	
219.16	4870.1	
219.38	5641.5	
219.59	3067.9	
219.8	3714.3	
220.01	6143.2	
220.23	4928.1	
220.44	3972.4	
220.65	3022.1	
220.87	4929.5	
221.08	5398.4	
221.29	2937.5	
221.5	3682.9	
221.72	6451.8	
221.93	4676.9	
222.14	3523.2	
222.35	4038.6	
222.57	4872.1	
222.78	5216.9	
222.99	3368.9	
223.2	3559.4	
223.42	5154.1	
223.63	5266.7	
223.84	2585.9	
224.05	2633	
224.27	6019	
224.48	5612.8	
224.69	4089.1	
224.9	3514.3	
225.12	5075.5	
225.33	4826.4	
225.54	2838.5	
225.75	3149.8	
225.97	4554	
226.18	4825.7	
226.39	3311.6	
226.6	3138.2	
226.82	4737.6	
227.03	4562.2	
227.24	3492.5	
227.45	2899.9	
227.67	5187.5	
227.88	5675.6	
228.09	3865.9	
228.3	3846.8	
228.52	5199.1	
228.73	4870.8	
228.94	3283.6	
229.15	2930	
229.36	4844.8	
229.58	4788.8	
229.79	3283.6	
230	3728.7	
230.21	5771.2	
230.43	4953.4	
230.64	3456.3	
230.85	3528.7	
231.06	5261.9	
231.28	5253.7	
231.49	2927.9	
231.7	3377.8	
231.91	5121.3	
232.12	4889.9	
232.34	3017.3	
232.55	3366.9	
232.76	5356.1	
232.97	5027.8	
233.18	3075.4	
233.4	3451.5	
233.61	5040.1	
233.82	4700.8	
234.03	3303.4	
234.25	3176.4	
234.46	6549.4	
234.67	4901.5	
234.88	3534.1	
235.09	3079.5	
235.31	5130.2	
235.52	4814.8	
235.73	3422.2	
235.94	2955.9	
236.15	4685.1	
236.37	5777.3	
236.58	3110.2	
236.79	3338.9	
237	5122	
237.21	4461.8	
237.43	3566.9	
237.64	2900.6	
237.85	8192.6	
238.06	4548.5	
238.27	3555.3	
238.48	2938.2	
238.7	5177.3	
238.91	4751.3	
239.12	3282.2	
239.33	3440.6	
239.54	4616.1	
239.76	4874.2	
239.97	3252.9	
240.18	3271.3	
240.39	5847	
240.6	5117.9	
240.82	3483.6	
241.03	2897.9	
241.24	4885.8	
241.45	5545.2	
241.66	3084.2	
241.87	3601	
242.09	5510.4	
242.3	5722	
242.51	3678.2	
242.72	3334.1	
242.93	5233.2	
243.14	4873.5	
243.36	3844.7	
243.57	4115.7	
243.78	5547.9	
243.99	5192.3	
244.2	3293.8	
244.41	3048.7	
244.63	4544.4	
244.84	5078.3	
245.05	3495.2	
245.26	3331.4	
245.47	5174.5	
245.68	5262.6	
245.9	4233.8	
246.11	3480.9	
246.32	4742.4	
246.53	5091.3	
246.74	5180.7	
246.95	2828.2	
247.16	4522.6	
247.38	4917.9	
247.59	2909.5	
247.8	3345	
248.01	4619.5	
248.22	4842.1	
248.43	3129.3	
248.64	3286.3	
248.86	4441.4	
249.07	4721.3	
249.28	3002.3	
249.49	3383.2	
249.7	5300.8	
249.91	5429.8	
250.12	2881.5	
250.34	2875.3	
250.55	5018.2	
250.76	4906.3	
250.97	3444.7	
251.18	3487	
251.39	5418.2	
251.6	5057.1	
251.81	3494.5	
252.03	3518.4	
252.24	4709	
252.45	5259.9	
252.66	2937.5	
252.87	3685.7	
253.08	4929.5	
253.29	6157.6	
253.5	3004.4	
253.72	4020.2	
253.93	4840.7	
254.14	5718.6	
254.35	3235.8	
254.56	3291.8	
254.77	5107	
254.98	4556.7	
255.19	3161.4	
255.41	3992.2	
255.62	5027.8	
255.83	5448.3	
256.04	3582.6	
256.25	3477.5	
256.46	5861.3	
256.67	4634.6	
256.88	3454.9	
257.09	3779.2	
257.31	4569	
257.52	4631.1	
257.73	4252.9	
257.94	3235.8	
258.15	4780	
258.36	4896	
258.57	3972.4	
258.78	2622.8	
258.99	5196.4	
259.2	4771.8	
259.41	3185.3	
259.63	3276.1	
259.84	5608	
260.05	5843.5	
260.26	4074.1	
260.47	3121.8	
260.68	5347.9	
260.89	4803.2	
261.1	3817.4	
261.31	3157.3	
261.52	5421	
261.73	5679	
261.95	4081.6	
262.16	3536.8	
262.37	5464.7	
262.58	5586.2	
262.79	4050.9	
263	3269.9	
263.21	4900.8	
263.42	4755.4	
263.63	3523.2	
263.84	3255.6	
264.05	5344.5	
264.26	5596.4	
264.47	3917.1	
264.69	3605.1	
264.9	5499.5	
265.11	5066	
265.32	3149.1	
265.53	3173.7	
265.74	4992.3	
265.95	4422.2	
266.16	3375.7	
266.37	3715	
266.58	4984.1	
266.79	4693.3	
267	3214.6	
267.21	2978.4	
267.42	4497.3	
267.63	4915.8	
267.84	3362.8	
268.06	2882.9	
268.27	5287.9	
268.48	5453.7	
268.69	3320.4	
268.9	3787.4	
269.11	5449.6	
269.32	4457.7	
269.53	3366.9	
269.74	3093.8	
269.95	5082.4	
270.16	4429.8	
270.37	3365.5	
270.58	3822.2	
270.79	4792.9	
271	5373.9	
271.21	3569.6	
271.42	3431.7	
271.63	5029.8	
271.84	4562.9	
272.05	2737.5	
272.26	3025.5	
272.47	4932.2	
272.68	5066	
272.89	3250.8	
273.11	3659	
273.32	4726	
273.53	5587.5	
273.74	3558.7	
273.95	3506.1	
274.16	5350	
274.37	4955.4	
274.58	3597.6	
274.79	2982.5	
275	5070.8	
275.21	5377.3	
275.42	4339.6	
275.63	3673.4	
275.84	5184.8	
276.05	6234.7	
276.26	3493.2	
276.47	3263.1	
276.68	4840	
276.89	5732.9	
277.1	3773	
277.31	3006.4	
277.52	5132.2	
277.73	5310.4	
277.94	2967.5	
278.15	3218	
278.36	5123.3	
278.57	4667.3	
278.78	3261.7	
278.99	3590.1	
279.2	4677.6	
279.41	4577.9	
279.62	4160.1	
279.83	3014.6	
280.04	5862	
280.25	4582	
280.46	4057	
280.67	3376.4	
280.88	4676.2	
281.09	5423.7	
281.3	3499.3	
281.51	4351.9	
281.72	4681	
281.93	5329.5	
282.14	3193.5	
282.35	3435.1	
282.56	5326.8	
282.77	5277.6	
282.98	3287	
283.19	3874.1	
283.4	6356.9	
283.61	4826.4	
283.82	3044	
284.03	4065.2	
284.24	5065.3	
284.45	5408.7	
284.66	4057.7	
284.87	3926	
285.08	5410.7	
285.29	5419.6	
285.5	2880.8	
285.71	3295.9	
285.92	5338.4	
286.12	5881.1	
286.33	4028.4	
286.54	3304.1	
286.75	5299.5	
286.96	4841.4	
287.17	3067.2	
287.38	3988.8	
287.59	4657.8	
287.8	4646.2	
288.01	3345.7	
288.22	3694.5	
288.43	5208	
288.64	4490.5	
288.85	3853.6	
289.06	3664.5	
289.27	5284.4	
289.48	5612.8	
289.69	4098	
289.9	3799.7	
290.11	5490.6	
290.32	4706.2	
290.53	3958.7	
290.74	3616.7	
290.94	5253.7	
291.15	5304.2	
291.36	3168.9	
291.57	3665.9	
291.78	4753.3	
291.99	4410	
292.2	3059	
292.41	3577.8	
292.62	5383.4	
292.83	5179.3	
293.04	4392.9	
293.25	3115.6	
293.46	4818.2	
293.67	5350	
293.88	3124.5	
294.09	3042.6	
294.29	4552.6	
294.5	5014.8	
294.71	3407.8	
294.92	3205.8	
295.13	4745.8	
295.34	5818.3	
295.55	2912.9	
295.76	2804.4	
295.97	5238.7	
296.18	5823.7	
296.39	3005.7	
296.6	3160	
296.81	4993.6	
297.01	5208	
297.22	3327.3	
297.43	3160.7	
297.64	4690.5	
297.85	4587.4	
298.06	2719	
298.27	2870.6	
298.48	4929.5	
298.69	4705.5	
298.9	3447.4	
299.11	3114.3	
299.31	4574.5	
299.52	4547.2	
299.73	3618.1	
299.94	3609.2	
300.15	4937	
300.36	4697.4	
300.57	3556.6	
300.78	3532.7	
300.99	4791.6	
301.2	4988.9	
301.4	3176.4	
301.61	3407.1	
301.82	5214.1	
302.03	5286.5	
302.24	3788.1	
302.45	2988.7	
302.66	5096	
302.87	5395	
303.08	3196.2	
303.29	4204.5	
303.49	4735.6	
303.7	4909.7	
303.91	2864.4	
304.12	4010.6	
304.33	4505.5	
304.54	5085.8	
304.75	3200.3	
304.96	3071.3	
305.16	5215.5	
305.37	5698.1	
305.58	2848	
305.79	2899.9	
306	5208.7	
306.21	4423.6	
306.42	3138.2	
306.63	4648.9	
306.83	4784.7	
307.04	5288.5	
307.25	3474	
307.46	3405.8	
307.67	4318.5	
307.88	5258.5	
308.09	3131.3	
308.29	3207.1	
308.5	4971.8	
308.71	5343.2	
308.92	3402.4	
309.13	3065.1	
309.34	4898.1	
309.55	4804.5	
309.75	3873.4	
309.96	3624.2	
310.17	5253	
310.38	4672.8	
310.59	3732.1	
310.8	2978.4	
311.01	4805.9	
311.21	4856.4	
311.42	3074.7	
311.63	3097.2	
311.84	4721.3	
312.05	5002.5	
312.26	3540.9	
312.46	3813.3	
312.67	4726	
312.88	4550.6	
313.09	3074	
313.3	3040.6	
313.51	5499.5	
313.71	5821	
313.92	3074.7	
314.13	3257.6	
314.34	5047.6	
314.55	4836.6	
314.76	3850.9	
314.96	3400.3	
315.17	5088.5	
315.38	5173.9	
315.59	3090.4	
315.8	2973	
316.01	5557.5	
316.21	5630.5	
316.42	2978.4	
316.63	3370.3	
316.84	4786.8	
317.05	5509	
317.26	3590.8	
317.46	3280.8	
317.67	4819.6	
317.88	5237.3	
318.09	3842	
318.3	2927.2	
318.5	4705.5	
318.71	5104.2	
318.92	4754.7	
319.13	3546.4	
319.34	5381.4	
319.54	5441.5	
319.75	2938.2	
319.96	2763.4	
320.17	5182.7	
320.38	5386.2	
320.58	2769.5	
320.79	3375.1	
321	5359.5	
321.21	5459.9	
321.42	3452.9	
321.62	2901.3	
321.83	4662.5	
322.04	4965.6	
322.25	3277.4	
322.46	3051.5	
322.66	4996.4	
322.87	5137	
323.08	3717.1	
323.29	3021.4	
323.5	5824.4	
323.7	4548.5	
323.91	4034.5	
324.12	3648.1	
324.33	5063.3	
324.53	5189.6	
324.74	3550.5	
324.95	3732.8	
325.16	4480.3	
325.37	4767.7	
325.57	3068.5	
325.78	3179.8	
325.99	5061.9	
326.2	4541.7	
326.4	4338.3	
326.61	2871.3	
326.82	4901.5	
327.03	5010	
327.24	4267.3	
327.44	3979.2	
327.65	5139	
327.86	4306.9	
328.07	3564.8	
328.27	2953.9	
328.48	5501.5	
328.69	4540.3	
328.9	4345.8	
329.1	3237.2	
329.31	4874.8	
329.52	5543.2	
329.73	3117.7	
329.93	3462.4	
330.14	4934.2	
330.35	5165	
330.56	4842.8	
330.76	3777.1	
330.97	4793.6	
331.18	5031.9	
331.39	3453.6	
331.59	2826.9	
331.8	5352	
332.01	5537.7	
332.22	3209.8	
332.42	3551.2	
332.63	5016.8	
332.84	4651.6	
333.05	3463.1	
333.25	3129.3	
333.46	4669.4	
333.67	4915.1	
333.88	3209.8	
334.08	3521.1	
334.29	6348.7	
334.5	5430.5	
334.7	2966.8	
334.91	4252.9	
335.12	4553.3	
335.33	5238.7	
335.53	3392.8	
335.74	4850.3	
335.95	4825.7	
336.16	4556	
336.36	3414.6	
336.57	3826.3	
336.78	4596.3	
336.98	5403.9	
337.19	4098	
337.4	3345	
337.61	5879	
337.81	4519.9	
338.02	3205.8	
338.23	3937.6	
338.43	5596.4	
338.64	4710.3	
338.85	3054.9	
339.05	3947.1	
339.26	5612.1	
339.47	4510.3	
339.68	3186.6	
339.88	4351.9	
340.09	5177.3	
340.3	5298.1	
340.5	3613.3	
340.71	2812.5	
340.92	4547.2	
341.13	5526.8	
341.33	2976.4	
341.54	3612.6	
341.75	5137	
341.95	4798.4	
342.16	3429.7	
342.37	3747.8	
342.57	4604.5	
342.78	4867.3	
342.99	3750.5	
343.19	2828.9	
343.4	5251.7	
343.61	5124.7	
343.81	3293.8	
344.02	3030.3	
344.23	5229.8	
344.43	5513.1	
344.64	3751.9	
344.85	3735.5	
345.06	5182	
345.26	5416.9	
345.47	3582.6	
345.68	4091.2	
345.88	4465.3	
346.09	5290.6	
346.3	3642.7	
346.5	2758.6	
346.71	4889.2	
346.92	4772.4	
347.12	2934.7	
347.33	3504.8	
347.54	5426.4	
347.74	5644.9	
347.95	3571	
348.16	2747.7	
348.36	4789.5	
348.57	4645.5	
348.78	3564.8	
348.98	3762.8	
349.19	4881.7	
349.39	4520.5	
349.6	2913.6	
349.81	3158	
350.01	5188.9	
350.22	4724	
350.43	3519.8	
350.63	4084.3	
350.84	4962.9	
351.05	4758.8	
351.25	3154.6	
351.46	2908.8	
351.67	5422.3	
351.87	4728.8	
352.08	3330	
352.29	3772.4	
352.49	5316.5	
352.7	5428.5	
352.9	3099.9	
353.11	3779.2	
353.32	5864	
353.52	4810	
353.73	3095.8	
353.94	3851.5	
354.14	5203.9	
354.35	4999.8	
354.55	3175.7	
354.76	3478.1	
354.97	5216.2	
355.17	4973.2	
355.38	3031	
355.59	4075.5	
355.79	4752.7	
356	4994.3	
356.2	3495.2	
356.41	3153.2	
356.62	4575.8	
356.82	4977.9	
357.03	3762.8	
357.24	3364.1	
357.44	4784.7	
357.65	4937.7	
357.85	4328	
358.06	3596.9	
358.27	4627.7	
358.47	4798.4	
358.68	3084.2	
358.88	3743	
359.09	5243.5	
359.3	5502.2	
359.5	4341	
359.71	3874.1	
359.91	5860.6	
360.12	5423	
360.33	3821.5	
360.53	4166.3	
360.74	4861.9	
360.94	4903.5	
361.15	3981.3	
361.36	3469.9	
361.56	5527.5	
361.77	5072.1	
361.97	4345.1	
362.18	3571.7	
362.38	5608	
362.59	4830.5	
362.8	3351.8	
363	3249.4	
363.21	4709.6	
363.41	5258.5	
363.62	3766.2	
363.83	4566.3	
364.03	5361.6	
364.24	5989.6	
364.44	4771.8	
364.65	4609.3	
364.85	5146.5	
365.06	4889.9	
365.27	3602.4	
365.47	3592.1	
365.68	5862	
365.88	5113.8	
366.09	3902.1	
366.29	3670.6	
366.5	5376.6	
366.71	5687.2	
366.91	4718.5	
367.12	4111	
367.32	6191	
367.53	5604.6	
367.73	4115.1	
367.94	4870.8	
368.14	5639.4	
368.35	6297.5	
368.56	4085.7	
368.76	3931.4	
368.97	5719.3	
369.17	6970.6	
369.38	3685.7	
369.58	3988.8	
369.79	4913.1	
369.99	5984.2	
370.2	4693.3	
370.4	3979.2	
370.61	5515.9	
370.82	6483.2	
371.02	3934.1	
371.23	3390.8	
371.43	4891.9	
371.64	6046.3	
371.84	4021.5	
372.05	4887.1	
372.25	7009.5	
372.46	5735.7	
372.66	4066.6	
372.87	4020.8	
373.07	5851	
373.28	7124.2	
373.48	4836.6	
373.69	4592.2	
373.9	5524.1	
374.1	5591	
374.31	4880.3	
374.51	4490.5	
374.72	6236.1	
374.92	5359.5	
375.13	5055.1	
375.33	4494.6	
375.54	5967.1	
375.74	5586.2	
375.95	4594.3	
376.15	5520	
376.36	6075.6	
376.56	5967.8	
376.77	4670.7	
376.97	4975.2	
377.18	6956.9	
377.38	6298.2	
377.59	5233.2	
377.79	4390.2	
378	6068.1	
378.2	6476.4	
378.41	4518.5	
378.61	4405.2	
378.82	6516	
379.02	5907.7	
379.23	4663.2	
379.43	5540.4	
379.64	6686.6	
379.84	6341.9	
380.05	4465.9	
380.25	4446.8	
380.46	6389.7	
380.66	6104.3	
380.87	5584.8	
381.07	5793	
381.28	6899.6	
381.48	6357.6	
381.69	4547.2	
381.89	4646.8	
382.1	5552.7	
382.3	6417	
382.51	5418.2	
382.71	6117.3	
382.91	6310.5	
383.12	6770.6	
383.32	4839.4	
383.53	4974.5	
383.73	6242.9	
383.94	6094.8	
384.14	4881	
384.35	4188.1	
384.55	6060.6	
384.76	6407.4	
384.96	4849.6	
385.17	4959.5	
385.37	6402.6	
385.58	5759.6	
385.78	4961.5	
385.98	4123.2	
386.19	5912.5	
386.39	6278.4	
386.6	4523.3	
386.8	4740.4	
387.01	6448.4	
387.21	6404.7	
387.42	5140.4	
387.62	5634	
387.83	5932.3	
388.03	6394.4	
388.23	4909	
388.44	5532.9	
388.64	5660.6	
388.85	5961	
389.05	5304.9	
389.26	5823.7	
389.46	7552.9	
389.67	7037.5	
389.87	5356.8	
390.07	5444.2	
390.28	6396.5	
390.48	6081.1	
390.69	4878.9	
390.89	5081.7	
391.1	6258.6	
391.3	7031.4	
391.5	6023.1	
391.71	6488	
391.91	6858.6	
392.12	7594.6	
392.32	6160.3	
392.53	5523.4	
392.73	6410.1	
392.93	6485.2	
393.14	5316.5	
393.34	5821	
393.55	6819.1	
393.75	6490	
393.95	5264.6	
394.16	5133.6	
394.36	6368.5	
394.57	6769.2	
394.77	4800.4	
394.98	5039.4	
395.18	6341.2	
395.38	6393.8	
395.59	5944.6	
395.79	5205.3	
396	6614.9	
396.2	7024.5	
396.4	5977.3	
396.61	5860.6	
396.81	7146.7	
397.02	6679.8	
397.22	6345.3	
397.42	6402.6	
397.63	7339.9	
397.83	6768.5	
398.04	5474.9	
398.24	5941.8	
398.44	7171.3	
398.65	6556.9	
398.85	5445.5	
399.05	5525.4	
399.26	6968.6	
399.46	8152.3	
399.67	5834.7	
399.87	5628.5	
400.07	7314.7	
400.28	7538.6	
400.48	5838.8	
400.69	6713.9	
400.89	7832.1	
401.09	8120.9	
401.3	5917.9	
401.5	6768.5	
401.7	8477.2	
401.91	8746.2	
402.11	6292.7	
402.32	6412.2	
402.52	8133.8	
402.72	7897.7	
402.93	6660	
403.13	5705.6	
403.33	8566	
403.54	7242.3	
403.74	6152.1	
403.94	6781.5	
404.15	7286.7	
404.35	8209.6	
404.56	5808	
404.76	7248.4	
404.96	7641.7	
405.17	7367.2	
405.37	6597.9	
405.57	6367.8	
405.78	7905.8	
405.98	7382.2	
406.18	6214.9	
406.39	6932.4	
406.59	8001.4	
406.79	7651.9	
407	5991.7	
407.2	6022.4	
407.4	8011.7	
407.61	8209.6	
407.81	6147.3	
408.01	8053.3	
408.22	7291.5	
408.42	8862.2	
408.62	7419.1	
408.83	7071	
409.03	8241	
409.23	8294.3	
409.44	7391.1	
409.64	7661.5	
409.84	9516.2	
410.05	9660.3	
410.25	7998	
410.45	7821.2	
410.66	9635	
410.86	11404	
411.06	8625.4	
411.27	8313.4	
411.47	11564	
411.67	9881.4	
411.88	8716.2	
412.08	9236.3	
412.28	10447	
412.49	10884	
412.69	8960.5	
412.89	8923.7	
413.09	10883	
413.3	10881	
413.5	9277.3	
413.7	9021.3	
413.91	10484	
414.11	11217	
414.31	9224.7	
414.52	9841.2	
414.72	11013	
414.92	11152	
415.12	9361.3	
415.33	9885.5	
415.53	11619	
415.73	11728	
415.94	10131	
416.14	9712.8	
416.34	10841	
416.55	10632	
416.75	10752	
416.95	10365	
417.15	11875	
417.36	12245	
417.56	11161	
417.76	10509	
417.97	12227	
418.17	12210	
418.37	10232	
418.57	10395	
418.78	11983	
418.98	11567	
419.18	11166	
419.38	10929	
419.59	11745	
419.79	11247	
419.99	10167	
420.2	10519	
420.4	12131	
420.6	12120	
420.8	10248	
421.01	10024	
421.21	12278	
421.41	12227	
421.61	10582	
421.82	10289	
422.02	11830	
422.22	12396	
422.42	11008	
422.63	10396	
422.83	11919	
423.03	12899	
423.23	10710	
423.44	9942.9	
423.64	11976	
423.84	11411	
424.04	10261	
424.25	9882.1	
424.45	12314	
424.65	12268	
424.85	9682.8	
425.06	10221	
425.26	12551	
425.46	11663	
425.66	10537	
425.87	10377	
426.07	12252	
426.27	11962	
426.47	10398	
426.67	9803.6	
426.88	12377	
427.08	11942	
427.28	10744	
427.48	9899.2	
427.69	11070	
427.89	11675	
428.09	10552	
428.29	9873.9	
428.5	12261	
428.7	11802	
428.9	9894.4	
429.1	10219	
429.3	11936	
429.51	12208	
429.71	10064	
429.91	10944	
430.11	12445	
430.31	12656	
430.52	10611	
430.72	11064	
430.92	12977	
431.12	12577	
431.32	10587	
431.53	10834	
431.73	11875	
431.93	13102	
432.13	10445	
432.33	10488	
432.54	12154	
432.74	12495	
432.94	10716	
433.14	11247	
433.34	12683	
433.55	12725	
433.75	11454	
433.95	13279	
434.15	12829	
434.35	12781	
434.56	10896	
434.76	11001	
434.96	12962	
435.16	13518	
435.36	11075	
435.56	12238	
435.77	13072	
435.97	13340	
436.17	12916	
436.37	12627	
436.57	13209	
436.78	13436	
436.98	13561	
437.18	12828	
437.38	14217	
437.58	13388	
437.78	12959	
437.99	11850	
438.19	13693	
438.39	14845	
438.59	11926	
438.79	11252	
438.99	14126	
439.2	13137	
439.4	10954	
439.6	11177	
439.8	13359	
440	14303	
440.2	12400	
440.4	12615	
440.61	14092	
440.81	14749	
441.01	12266	
441.21	13325	
441.41	15332	
441.61	14710	
441.81	13792	
442.02	14463	
442.22	15501	
442.42	15052	
442.62	12918	
442.82	12667	
443.02	15459	
443.22	14948	
443.43	13365	
443.63	13034	
443.83	14498	
444.03	14670	
444.23	14364	
444.43	13913	
444.63	15361	
444.83	16163	
445.04	13732	
445.24	14586	
445.44	15558	
445.64	15752	
445.84	13756	
446.04	14188	
446.24	14788	
446.44	15699	
446.65	13058	
446.85	13677	
447.05	14591	
447.25	15464	
447.45	13457	
447.65	13018	
447.85	14881	
448.05	14321	
448.25	13882	
448.46	13803	
448.66	14894	
448.86	14539	
449.06	13059	
449.26	13990	
449.46	15543	
449.66	14642	
449.86	14063	
450.06	13872	
450.26	15042	
450.47	15634	
450.67	13830	
450.87	14379	
451.07	15757	
451.27	15826	
451.47	13525	
451.67	14386	
451.87	15659	
452.07	16129	
452.27	14160	
452.47	13966	
452.67	15636	
452.88	16272	
453.08	13267	
453.28	15168	
453.48	17170	
453.68	15501	
453.88	14238	
454.08	14152	
454.28	16277	
454.48	15896	
454.68	14660	
454.88	14992	
455.08	16220	
455.28	16662	
455.48	13815	
455.68	15033	
455.89	17262	
456.09	17142	
456.29	14733	
456.49	15467	
456.69	17582	
456.89	16653	
457.09	15803	
457.29	16358	
457.49	17310	
457.69	17701	
457.89	16302	
458.09	15511	
458.29	17851	
458.49	18370	
458.69	16881	
458.89	16412	
459.09	19096	
459.29	18925	
459.49	16379	
459.69	17417	
459.9	18406	
460.1	18677	
460.3	16173	
460.5	16243	
460.7	18766	
460.9	18372	
461.1	16208	
461.3	17454	
461.5	19648	
461.7	19319	
461.9	17418	
462.1	17253	
462.3	19311	
462.5	19715	
462.7	17472	
462.9	17908	
463.1	20684	
463.3	20919	
463.5	18073	
463.7	19552	
463.9	20395	
464.1	20581	
464.3	19426	
464.5	19148	
464.7	21143	
464.9	21681	
465.1	20473	
465.3	19996	
465.5	21532	
465.7	21870	
465.9	20579	
466.1	19450	
466.3	22220	
466.5	21407	
466.7	21422	
466.9	20067	
467.1	22151	
467.3	22922	
467.5	21740	
467.7	20791	
467.9	22978	
468.1	24041	
468.3	20945	
468.5	21794	
468.7	22706	
468.9	22536	
469.1	21304	
469.3	22212	
469.5	24721	
469.7	22882	
469.9	21571	
470.1	21670	
470.3	23175	
470.5	23301	
470.7	22681	
470.9	21500	
471.1	23295	
471.3	22665	
471.5	21648	
471.69	22853	
471.89	22581	
472.09	22199	
472.29	22203	
472.49	21743	
472.69	22913	
472.89	23238	
473.09	21421	
473.29	20730	
473.49	22549	
473.69	22365	
473.89	21836	
474.09	21091	
474.29	23494	
474.49	23107	
474.69	22014	
474.89	21160	
475.09	22456	
475.29	22722	
475.49	20874	
475.69	21230	
475.88	23561	
476.08	22903	
476.28	20822	
476.48	20597	
476.68	22907	
476.88	22498	
477.08	20645	
477.28	21089	
477.48	21838	
477.68	22268	
477.88	20629	
478.08	20584	
478.28	23124	
478.48	22127	
478.67	21045	
478.87	19947	
479.07	23457	
479.27	22399	
479.47	20968	
479.67	21432	
479.87	23072	
480.07	23494	
480.27	20781	
480.47	21933	
480.67	22547	
480.87	23436	
481.06	21052	
481.26	21917	
481.46	22941	
481.66	22747	
481.86	21666	
482.06	22344	
482.26	22805	
482.46	23290	
482.66	21419	
482.86	21242	
483.05	23278	
483.25	22608	
483.45	23576	
483.65	21536	
483.85	23027	
484.05	23403	
484.25	22012	
484.45	22874	
484.65	24008	
484.84	24522	
485.04	21979	
485.24	22063	
485.44	24780	
485.64	23425	
485.84	22041	
486.04	23123	
486.24	23836	
486.44	24135	
486.63	21928	
486.83	23071	
487.03	24262	
487.23	24734	
487.43	22328	
487.63	24399	
487.83	24913	
488.02	25544	
488.22	23780	
488.42	24391	
488.62	25597	
488.82	24909	
489.02	23351	
489.22	24019	
489.41	25419	
489.61	25682	
489.81	23484	
490.01	23707	
490.21	25876	
490.41	26610	
490.61	23831	
490.8	23821	
491	26088	
491.2	25033	
491.4	24177	
491.6	23476	
491.8	25326	
491.99	25025	
492.19	23015	
492.39	23182	
492.59	25527	
492.79	25713	
492.99	24064	
493.18	23488	
493.38	25962	
493.58	27305	
493.78	24632	
493.98	24418	
494.18	26533	
494.37	26699	
494.57	26085	
494.77	25946	
494.97	27830	
495.17	28513	
495.37	26229	
495.56	26514	
495.76	29134	
495.96	29067	
496.16	27925	
496.36	27409	
496.55	29529	
496.75	29360	
496.95	27770	
497.15	27713	
497.35	29295	
497.54	29917	
497.74	27424	
497.94	29173	
498.14	30520	
498.34	30117	
498.53	27985	
498.73	28168	
498.93	29570	
499.13	30214	
499.33	28584	
499.52	28824	
499.72	30808	
499.92	30326	
500.12	28743	
500.32	29072	
500.51	30802	
500.71	31214	
500.91	29700	
501.11	29575	
501.31	30909	
501.5	31431	
501.7	30122	
501.9	29354	
502.1	30766	
502.29	31319	
502.49	29803	
502.69	29958	
502.89	30765	
503.09	31176	
503.28	28366	
503.48	28577	
503.68	29886	
503.88	30072	
504.07	29012	
504.27	28533	
504.47	30493	
504.67	30031	
504.86	28971	
505.06	28687	
505.26	29668	
505.46	31045	
505.65	28404	
505.85	28280	
506.05	29367	
506.25	29721	
506.44	27111	
506.64	27702	
506.84	28914	
507.04	29227	
507.23	27126	
507.43	27540	
507.63	30190	
507.83	28921	
508.02	27620	
508.22	27458	
508.42	30681	
508.62	29012	
508.81	27469	
509.01	28089	
509.21	28447	
509.4	28899	
509.6	27607	
509.8	27248	
510	28698	
510.19	30172	
510.39	27106	
510.59	27349	
510.79	29053	
510.98	30336	
511.18	27566	
511.38	27839	
511.57	29610	
511.77	29635	
511.97	28147	
512.17	27276	
512.36	29795	
512.56	29362	
512.76	27119	
512.95	26984	
513.15	29465	
513.35	28565	
513.55	27935	
513.74	27352	
513.94	29469	
514.14	28976	
514.33	28222	
514.53	27930	
514.73	29080	
514.92	29548	
515.12	27527	
515.32	27410	
515.51	29555	
515.71	29846	
515.91	29001	
516.11	27844	
516.3	31295	
516.5	29524	
516.7	28346	
516.89	28975	
517.09	29490	
517.29	29784	
517.48	28805	
517.68	28134	
517.88	29432	
518.07	29866	
518.27	28667	
518.47	27729	
518.66	30304	
518.86	28993	
519.06	27476	
519.25	27921	
519.45	29440	
519.65	31125	
519.84	28648	
520.04	29425	
520.24	31457	
520.43	30284	
520.63	28314	
520.83	28177	
521.02	29652	
521.22	29984	
521.42	28117	
521.61	28703	
521.81	29240	
522.01	29348	
522.2	28132	
522.4	27707	
522.6	29883	
522.79	29097	
522.99	28062	
523.18	27873	
523.38	30389	
523.58	30562	
523.77	30216	
523.97	28993	
524.17	32610	
524.36	32384	
524.56	30449	
524.76	30457	
524.95	32098	
525.15	31731	
525.34	30589	
525.54	31053	
525.74	33251	
525.93	32544	
526.13	32494	
526.33	31878	
526.52	33795	
526.72	33520	
526.91	33120	
527.11	32482	
527.31	33994	
527.5	34652	
527.7	32585	
527.89	31812	
528.09	33634	
528.29	34364	
528.48	32837	
528.68	32422	
528.87	34509	
529.07	34392	
529.27	32955	
529.46	32694	
529.66	34843	
529.85	35148	
530.05	33257	
530.25	33433	
530.44	36252	
530.64	34555	
530.83	33011	
531.03	33253	
531.23	34955	
531.42	34635	
531.62	33824	
531.81	32950	
532.01	35401	
532.21	35948	
532.4	33972	
532.6	34572	
532.79	36837	
532.99	36859	
533.18	35197	
533.38	35927	
533.58	36885	
533.77	37186	
533.97	35675	
534.16	36364	
534.36	38230	
534.55	37503	
534.75	36956	
534.95	36066	
535.14	38657	
535.34	37764	
535.53	35837	
535.73	37485	
535.92	38849	
536.12	37512	
536.31	35808	
536.51	36528	
536.71	37524	
536.9	36894	
537.1	35266	
537.29	35944	
537.49	37524	
537.68	37066	
537.88	36257	
538.07	35407	
538.27	37451	
538.46	38320	
538.66	35534	
538.86	36171	
539.05	37870	
539.25	38071	
539.44	36867	
539.64	35928	
539.83	37295	
540.03	38425	
540.22	35954	
540.42	35579	
540.61	37169	
540.81	37713	
541	35316	
541.2	36809	
541.39	36652	
541.59	37355	
541.78	36562	
541.98	35119	
542.18	36666	
542.37	36683	
542.57	35253	
542.76	36316	
542.96	36104	
543.15	36565	
543.35	34949	
543.54	34599	
543.74	36102	
543.93	35929	
544.13	34084	
544.32	35058	
544.52	35684	
544.71	35039	
544.91	33258	
545.1	34016	
545.3	35342	
545.49	35768	
545.69	33261	
545.88	33485	
546.08	36700	
546.27	35812	
546.47	33918	
546.66	33431	
546.86	35376	
547.05	35988	
547.24	33434	
547.44	33841	
547.63	34577	
547.83	35878	
548.02	33912	
548.22	33858	
548.41	34316	
548.61	35474	
548.8	33125	
549	33216	
549.19	34706	
549.39	35228	
549.58	32778	
549.78	33084	
549.97	35003	
550.17	34331	
550.36	33203	
550.55	34385	
550.75	34047	
550.94	34982	
551.14	32319	
551.33	32253	
551.53	33689	
551.72	34332	
551.92	32482	
552.11	32197	
552.31	34095	
552.5	33945	
552.69	33400	
552.89	31651	
553.08	34037	
553.28	33723	
553.47	32237	
553.67	33008	
553.86	34193	
554.06	32811	
554.25	31128	
554.44	31888	
554.64	34512	
554.83	34392	
555.03	31858	
555.22	31955	
555.42	33746	
555.61	33288	
555.8	31343	
556	31784	
556.19	32800	
556.39	33476	
556.58	31588	
556.78	31393	
556.97	33290	
557.16	32991	
557.36	32506	
557.55	31343	
557.75	32275	
557.94	34143	
558.13	31258	
558.33	31198	
558.52	33815	
558.72	32803	
558.91	30961	
559.1	31193	
559.3	32438	
559.49	31901	
559.69	30730	
559.88	31425	
560.07	32899	
560.27	33316	
560.46	31438	
560.66	31462	
560.85	32765	
561.04	31694	
561.24	30801	
561.43	30468	
561.63	32133	
561.82	32121	
562.01	31673	
562.21	30900	
562.4	32216	
562.59	33380	
562.79	30735	
562.98	30733	
563.18	32437	
563.37	33897	
563.56	31577	
563.76	31104	
563.95	32539	
564.14	32560	
564.34	31515	
564.53	31198	
564.73	32948	
564.92	33516	
565.11	31756	
565.31	31202	
565.5	33591	
565.69	32920	
565.89	31654	
566.08	31890	
566.27	33583	
566.47	34412	
566.66	32307	
566.85	31634	
567.05	33673	
567.24	33347	
567.44	31783	
567.63	33034	
567.82	33923	
568.02	33965	
568.21	31982	
568.4	32392	
568.6	33935	
568.79	33923	
568.98	31967	
569.18	32324	
569.37	34358	
569.56	35595	
569.76	32670	
569.95	33625	
570.14	34366	
570.34	34801	
570.53	32478	
570.72	32663	
570.91	35322	
571.11	34336	
571.3	32912	
571.49	33585	
571.69	34575	
571.88	33929	
572.07	33713	
572.27	33181	
572.46	34247	
572.65	35089	
572.85	33046	
573.04	33318	
573.23	35477	
573.43	34660	
573.62	33236	
573.81	33700	
574	35304	
574.2	34928	
574.39	33946	
574.58	33968	
574.78	36505	
574.97	36095	
575.16	34678	
575.36	35012	
575.55	36951	
575.74	36696	
575.93	34047	
576.13	35702	
576.32	36250	
576.51	36995	
576.71	34952	
576.9	36161	
577.09	37037	
577.28	36721	
577.48	35193	
577.67	34577	
577.86	36403	
578.05	36893	
578.25	35204	
578.44	35117	
578.63	36536	
578.83	37867	
579.02	34612	
579.21	36406	
579.4	37132	
579.6	37050	
579.79	35366	
579.98	37481	
580.17	37280	
580.37	37711	
580.56	34907	
580.75	35830	
580.94	37703	
581.14	37586	
581.33	36358	
581.52	35243	
581.71	37429	
581.91	37789	
582.1	35405	
582.29	35465	
582.48	37268	
582.68	37644	
582.87	36169	
583.06	35813	
583.25	37586	
583.45	37308	
583.64	36891	
583.83	37474	
584.02	37352	
584.21	37954	
584.41	36257	
584.6	36267	
584.79	37812	
584.98	38378	
585.18	35771	
585.37	35617	
585.56	37356	
585.75	38194	
585.94	35529	
586.14	36635	
586.33	37778	
586.52	37449	
586.71	35766	
586.91	35497	
587.1	36326	
587.29	37434	
587.48	34699	
587.67	34992	
587.87	36650	
588.06	36557	
588.25	35833	
588.44	35013	
588.63	36074	
588.83	36562	
589.02	34462	
589.21	33991	
589.4	35297	
589.59	35401	
589.78	32570	
589.98	32613	
590.17	33765	
590.36	34171	
590.55	30828	
590.74	30964	
590.94	33828	
591.13	32256	
591.32	30418	
591.51	29817	
591.7	32660	
591.89	32356	
592.09	30239	
592.28	30763	
592.47	31871	
592.66	33866	
592.85	30854	
593.05	31078	
593.24	32598	
593.43	33658	
593.62	31344	
593.81	31661	
594	32884	
594.19	32751	
594.39	30930	
594.58	31022	
594.77	33038	
594.96	33391	
595.15	30786	
595.34	31264	
595.54	32643	
595.73	31918	
595.92	30065	
596.11	30795	
596.3	32638	
596.49	31739	
596.68	30330	
596.88	30634	
597.07	32305	
597.26	31619	
597.45	29848	
597.64	31010	
597.83	31830	
598.02	32301	
598.22	30215	
598.41	30701	
598.6	32120	
598.79	31614	
598.98	29905	
599.17	30948	
599.36	31923	
599.55	32607	
599.74	31447	
599.94	31454	
600.13	32294	
600.32	31052	
600.51	29427	
600.7	29790	
600.89	32299	
601.08	32720	
601.27	29650	
601.47	30152	
601.66	31823	
601.85	32459	
602.04	30027	
602.23	29972	
602.42	31045	
602.61	31527	
602.8	29524	
602.99	29075	
603.18	31227	
603.37	31412	
603.57	29514	
603.76	30131	
603.95	31746	
604.14	31610	
604.33	29452	
604.52	29780	
604.71	31582	
604.9	31137	
605.09	30122	
605.28	30087	
605.47	32197	
605.66	31642	
605.86	29939	
606.05	29406	
606.24	31732	
606.43	30586	
606.62	29699	
606.81	30171	
607	31619	
607.19	31152	
607.38	29044	
607.57	29114	
607.76	30667	
607.95	30197	
608.14	29459	
608.33	29868	
608.52	30578	
608.72	31503	
608.91	28638	
609.1	28805	
609.29	30631	
609.48	29888	
609.67	29010	
609.86	28369	
610.05	30020	
610.24	30201	
610.43	28270	
610.62	27992	
610.81	30892	
611	30909	
611.19	28368	
611.38	28784	
611.57	30453	
611.76	31384	
611.95	28028	
612.14	27925	
612.33	30075	
612.52	29891	
612.71	28476	
612.9	28050	
613.09	29629	
613.28	31464	
613.47	28149	
613.66	29116	
613.85	30446	
614.04	29816	
614.24	28244	
614.43	27514	
614.62	30193	
614.81	30264	
615	28498	
615.19	28809	
615.38	29714	
615.57	30327	
615.76	28751	
615.95	29418	
616.14	30611	
616.33	30307	
616.52	29089	
616.71	29268	
616.9	30372	
617.09	30565	
617.28	28579	
617.47	29502	
617.66	29840	
617.85	30087	
618.04	29566	
618.22	28927	
618.41	30556	
618.6	31767	
618.79	29376	
618.98	29611	
619.17	32033	
619.36	30765	
619.55	29789	
619.74	29978	
619.93	31751	
620.12	31371	
620.31	30507	
620.5	30806	
620.69	32574	
620.88	33288	
621.07	31529	
621.26	31115	
621.45	32718	
621.64	32757	
621.83	31197	
622.02	30727	
622.21	32738	
622.4	32663	
622.59	31879	
622.78	31491	
622.97	32514	
623.16	33346	
623.35	31483	
623.54	30794	
623.72	32721	
623.91	32892	
624.1	31934	
624.29	30569	
624.48	33873	
624.67	33084	
624.86	31894	
625.05	30941	
625.24	33778	
625.43	32750	
625.62	33035	
625.81	31477	
626	33137	
626.19	33048	
626.38	32066	
626.56	31554	
626.75	32871	
626.94	33956	
627.13	31973	
627.32	30924	
627.51	33438	
627.7	34540	
627.89	30834	
628.08	32047	
628.27	32496	
628.46	32691	
628.65	31066	
628.83	30903	
629.02	32884	
629.21	32605	
629.4	31531	
629.59	31502	
629.78	32718	
629.97	33138	
630.16	31717	
630.35	31232	
630.54	33662	
630.72	33307	
630.91	31064	
631.1	31709	
631.29	33078	
631.48	33050	
631.67	31573	
631.86	30942	
632.05	32823	
632.24	32712	
632.42	30679	
632.61	31204	
632.8	32703	
632.99	32463	
633.18	31434	
633.37	31588	
633.56	32791	
633.75	32918	
633.93	31337	
634.12	31190	
634.31	33393	
634.5	33348	
634.69	31204	
634.88	31391	
635.07	32787	
635.25	32989	
635.44	31698	
635.63	32051	
635.82	32404	
636.01	31900	
636.2	31348	
636.39	31195	
636.57	33206	
636.76	32754	
636.95	30603	
637.14	31570	
637.33	32715	
637.52	33317	
637.7	30345	
637.89	31268	
638.08	32554	
638.27	33243	
638.46	31159	
638.65	31256	
638.83	33151	
639.02	31817	
639.21	30813	
639.4	31260	
639.59	31896	
639.78	31665	
639.96	29859	
640.15	29877	
640.34	31883	
640.53	31485	
640.72	29392	
640.91	29601	
641.09	30861	
641.28	31593	
641.47	29319	
641.66	30274	
641.85	31439	
642.03	31154	
642.22	29612	
642.41	29158	
642.6	30767	
642.79	30063	
642.97	28525	
643.16	29651	
643.35	30478	
643.54	30044	
643.73	28721	
643.91	29040	
644.1	29593	
644.29	30331	
644.48	28308	
644.67	28233	
644.85	29351	
645.04	29898	
645.23	27344	
645.42	27982	
645.6	28763	
645.79	29424	
645.98	27174	
646.17	26060	
646.36	27586	
646.54	28067	
646.73	26815	
646.92	26018	
647.11	27515	
647.29	28312	
647.48	25998	
647.67	25707	
647.86	28219	
648.05	28547	
648.23	25865	
648.42	26862	
648.61	27736	
648.8	27551	
648.98	25557	
649.17	25605	
649.36	26858	
649.55	26839	
649.73	25340	
649.92	26159	
650.11	27193	
650.3	27235	
650.48	25493	
650.67	25286	
650.86	27331	
651.05	26338	
651.23	25376	
651.42	25251	
651.61	26559	
651.79	26342	
651.98	25364	
652.17	24865	
652.36	26688	
652.54	26037	
652.73	24863	
652.92	24570	
653.11	26546	
653.29	26812	
653.48	24020	
653.67	24821	
653.85	26200	
654.04	26926	
654.23	24591	
654.42	24196	
654.6	25062	
654.79	25509	
654.98	22937	
655.16	23240	
655.35	23840	
655.54	23574	
655.73	21971	
655.91	21718	
656.1	23971	
656.29	23316	
656.47	21668	
656.66	23198	
656.85	23683	
657.03	24064	
657.22	22675	
657.41	23025	
657.59	24495	
657.78	24660	
657.97	22848	
658.16	23432	
658.34	25123	
658.53	25741	
658.72	24330	
658.9	24794	
659.09	25060	
659.28	25118	
659.46	23449	
659.65	23466	
659.84	24825	
660.02	25366	
660.21	23446	
660.4	23442	
660.58	25615	
660.77	25149	
660.96	23870	
661.14	22941	
661.33	25881	
661.52	25924	
661.7	22852	
661.89	25842	
662.08	24614	
662.26	24398	
662.45	23107	
662.64	23111	
662.82	25230	
663.01	24447	
663.2	22928	
663.38	23679	
663.57	24853	
663.75	24668	
663.94	23201	
664.13	24066	
664.31	24266	
664.5	24880	
664.69	23339	
664.87	23832	
665.06	24033	
665.25	24805	
665.43	24059	
665.62	23921	
665.8	24893	
665.99	23965	
666.18	23033	
666.36	23071	
666.55	24529	
666.74	24701	
666.92	22680	
667.11	23576	
667.29	24139	
667.48	24588	
667.67	23419	
667.85	22542	
668.04	24092	
668.22	24103	
668.41	22792	
668.6	23006	
668.78	23960	
668.97	24090	
669.15	22795	
669.34	22010	
669.53	23941	
669.71	24181	
669.9	22182	
670.08	22762	
670.27	23900	
670.46	24156	
670.64	22812	
670.83	23185	
671.01	23584	
671.2	23850	
671.38	22416	
671.57	22029	
671.76	24541	
671.94	25062	
672.13	22046	
672.31	22758	
672.5	24467	
672.69	23713	
672.87	22365	
673.06	22575	
673.24	24056	
673.43	23892	
673.61	22719	
673.8	22337	
673.98	23940	
674.17	24118	
674.36	22856	
674.54	22664	
674.73	23655	
674.91	23999	
675.1	22610	
675.28	22102	
675.47	23701	
675.65	24086	
675.84	22338	
676.03	22479	
676.21	23556	
676.4	23113	
676.58	22799	
676.77	22855	
676.95	24692	
677.14	23506	
677.32	21910	
677.51	21876	
677.69	24062	
677.88	23264	
678.06	22001	
678.25	22041	
678.44	23799	
678.62	23447	
678.81	21692	
678.99	22647	
679.18	24137	
679.36	23971	
679.55	22173	
679.73	22689	
679.92	23623	
680.1	23480	
680.29	23193	
680.47	22291	
680.66	23264	
680.84	23904	
681.03	21624	
681.21	22464	
681.4	23475	
681.58	23256	
681.77	21843	
681.95	21897	
682.14	23853	
682.32	24116	
682.51	22471	
682.69	21282	
682.88	23042	
683.06	23419	
683.25	22155	
683.43	22166	
683.62	23233	
683.8	23390	
683.99	22463	
684.17	21818	
684.36	24033	
684.54	22655	
684.73	20564	
684.91	20776	
685.1	22182	
685.28	21495	
685.46	20067	
685.65	19800	
685.83	21214	
686.02	20440	
686.2	18932	
686.39	19003	
686.57	20200	
686.76	21675	
686.94	19269	
687.13	19676	
687.31	21115	
687.5	21113	
687.68	19196	
687.86	20129	
688.05	22631	
688.23	20930	
688.42	20465	
688.6	20138	
688.79	21427	
688.97	21367	
689.16	20366	
689.34	19637	
689.52	22216	
689.71	22526	
689.89	20989	
690.08	20464	
690.26	22124	
690.45	21959	
690.63	20885	
690.81	20679	
691	21719	
691.18	21690	
691.37	20342	
691.55	22048	
691.74	21323	
691.92	22983	
692.1	20153	
692.29	19723	
692.47	21277	
692.66	20811	
692.84	19796	
693.02	20252	
693.21	21135	
693.39	21166	
693.58	20533	
693.76	20014	
693.94	22411	
694.13	22446	
694.31	20469	
694.5	21318	
694.68	21730	
694.86	22110	
695.05	20942	
695.23	21108	
695.42	22767	
695.6	24673	
695.78	21668	
695.97	20953	
696.15	23009	
696.34	22338	
696.52	20682	
696.7	21355	
696.89	22319	
697.07	21851	
697.25	20850	
697.44	22085	
697.62	22147	
697.81	22117	
697.99	20318	
698.17	20757	
698.36	21234	
698.54	21903	
698.72	20650	
698.91	19579	
699.09	21370	
699.28	21254	
699.46	20103	
699.64	19818	
699.83	20960	
700.01	21591	
700.19	20395	
700.38	19266	
700.56	21867	
700.74	21067	
700.93	19432	
701.11	20246	
701.29	21346	
701.48	22570	
701.66	19799	
701.84	20127	
702.03	21371	
702.21	22257	
702.39	19553	
702.58	20322	
702.76	21976	
702.94	21820	
703.13	19536	
703.31	21551	
703.49	21133	
703.68	22260	
703.86	19625	
704.04	20497	
704.23	21321	
704.41	21653	
704.59	19688	
704.78	20361	
704.96	22286	
705.14	21590	
705.33	19369	
705.51	19964	
705.69	21001	
705.87	21838	
706.06	20165	
706.24	19353	
706.42	21291	
706.61	21678	
706.79	20046	
706.97	19199	
707.16	20505	
707.34	20981	
707.52	19452	
707.7	19239	
707.89	20613	
708.07	20182	
708.25	19650	
708.44	20052	
708.62	20209	
708.8	21148	
708.98	19678	
709.17	19059	
709.35	20544	
709.53	20358	
709.72	18530	
709.9	18691	
710.08	20334	
710.26	20376	
710.45	19463	
710.63	18523	
710.81	19932	
710.99	19968	
711.18	18794	
711.36	18277	
711.54	19495	
711.72	19837	
711.91	18132	
712.09	17580	
712.27	19243	
712.45	19338	
712.64	17675	
712.82	17002	
713	18245	
713.18	18082	
713.37	16401	
713.55	17287	
713.73	18476	
713.91	16951	
714.1	15935	
714.28	15088	
714.46	16941	
714.64	15855	
714.83	13697	
715.01	13773	
715.19	14889	
715.37	14078	
715.55	12825	
715.74	12970	
715.92	14835	
716.1	13090	
716.28	13654	
716.47	12624	
716.65	13414	
716.83	13589	
717.01	12331	
717.19	12203	
717.38	15070	
717.56	13112	
717.74	12306	
717.92	11711	
718.1	14191	
718.29	13521	
718.47	11781	
718.65	12590	
718.83	14902	
719.01	15001	
719.2	12737	
719.38	13629	
719.56	15094	
719.74	16393	
719.92	13356	
720.11	14025	
720.29	14824	
720.47	14046	
720.65	12444	
720.83	12895	
721.02	13713	
721.2	13254	
721.38	12308	
721.56	11560	
721.74	12532	
721.92	12547	
722.11	12329	
722.29	12237	
722.47	13558	
722.65	12747	
722.83	11196	
723.01	11723	
723.2	12787	
723.38	12908	
723.56	10662	
723.74	11715	
723.92	12220	
724.1	13146	
724.29	11098	
724.47	11822	
724.65	12312	
724.83	12103	
725.01	10724	
725.19	11354	
725.37	11912	
725.56	12010	
725.74	10593	
725.92	10802	
726.1	12099	
726.28	12183	
726.46	11027	
726.64	10624	
726.83	11914	
727.01	12134	
727.19	10411	
727.37	10943	
727.55	12141	
727.73	12497	
727.91	10275	
728.09	10098	
728.28	12440	
728.46	12648	
728.64	11115	
728.82	11033	
729	13345	
729.18	12801	
729.36	10464	
729.54	12278	
729.72	13757	
729.91	12464	
730.09	12226	
730.27	11325	
730.45	12489	
730.63	12917	
730.81	11698	
730.99	11036	
731.17	13439	
731.35	12294	
731.53	11426	
731.71	11086	
731.9	13005	
732.08	13052	
732.26	11116	
732.44	10714	
732.62	12924	
732.8	12602	
732.98	11197	
733.16	10505	
733.34	12385	
733.52	11312	
733.7	10671	
733.88	10810	
734.07	12011	
734.25	11967	
734.43	10241	
734.61	11409	
734.79	13310	
734.97	11826	
735.15	10185	
735.33	10464	
735.51	11969	
735.69	11641	
735.87	11283	
736.05	10469	
736.23	11757	
736.41	11469	
736.59	10215	
736.77	10402	
736.95	12084	
737.13	11495	
737.32	9871.2	
737.5	10129	
737.68	12336	
737.86	11361	
738.04	9605.7	
738.22	10914	
738.4	11016	
738.58	11178	
738.76	9973.6	
738.94	9082.1	
739.12	11093	
739.3	11003	
739.48	10337	
739.66	10162	
739.84	11253	
740.02	11099	
740.2	9217.2	
740.38	9414.5	
740.56	11371	
740.74	10347	
740.92	9819.3	
741.1	9546.3	
741.28	10683	
741.46	10484	
741.64	9166	
741.82	9626.1	
742	10611	
742.18	10449	
742.36	9219.3	
742.54	8816.5	
742.72	10931	
742.9	9811.8	
743.08	9469.1	
743.26	8424.7	
743.44	10804	
743.62	10816	
743.8	9420	
743.98	8582.4	
744.16	10340	
744.34	10109	
744.52	9083.4	
744.7	9082.1	
744.88	10272	
745.06	9947.7	
745.24	8966.7	
745.42	9073.9	
745.6	10309	
745.78	10073	
745.96	7916.1	
746.14	8147.5	
746.32	10703	
746.5	10095	
746.68	8352.3	
746.86	8051.9	
747.03	10238	
747.21	9000.8	
747.39	8318.8	
747.57	7962.5	
747.75	9565.4	
747.93	9816.6	
748.11	7914	
748.29	7828.7	
748.47	10826	
748.65	9296.4	
748.83	8350.9	
749.01	8232.2	
749.19	9549.7	
749.37	8837	
749.55	7922.2	
749.73	8045.8	
749.91	9243.2	
750.09	9081.4	
750.26	8110.6	
750.44	7498.3	
750.62	9222.7	
750.8	9110	
750.98	7305.1	
751.16	7499.7	
751.34	9237.7	
751.52	8678.6	
751.7	8154.3	
751.88	7254.6	
752.06	9550.4	
752.24	9258.2	
752.42	7084.6	
752.59	7413	
752.77	8961.2	
752.95	9889.6	
753.13	7993.2	
753.31	7438.2	
753.49	8593.3	
753.67	9007.6	
753.85	7664.2	
754.03	7175.4	
754.21	9017.9	
754.38	9201.5	
754.56	7041.6	
754.74	6253.8	
754.92	8004.8	
755.1	8388.5	
755.28	5895.4	
755.46	5768.4	
755.64	8546.2	
755.82	8432.9	
755.99	5320.6	
756.17	5257.1	
756.35	5907.7	
756.53	6956.9	
756.71	3952.6	
756.89	4752.7	
757.07	6570.6	
757.25	5894.1	
757.42	5330.2	
757.6	5995.8	
757.78	6886	
757.96	6260.6	
758.14	5298.1	
758.32	5014.1	
758.5	5827.8	
758.67	6561	
758.85	5188.9	
759.03	5248.3	
759.21	6612.9	
759.39	6137.8	
759.57	4824.3	
759.75	5670.8	
759.92	7259.4	
760.1	6645.7	
760.28	6095.4	
760.46	6322.1	
760.64	6576	
760.82	6436.8	
760.99	5920	
761.17	5556.1	
761.35	7387.7	
761.53	6621.1	
761.71	5679.7	
761.89	6351.4	
762.06	7389.1	
762.24	7063.4	
762.42	5923.4	
762.6	5753.4	
762.78	7105.8	
762.96	7598	
763.13	6292.7	
763.31	6079.1	
763.49	7705.8	
763.67	7167.2	
763.85	6699.6	
764.02	7135.8	
764.2	8039.6	
764.38	7247.1	
764.56	5879	
764.74	6542.6	
764.91	8027.4	
765.09	7106.5	
765.27	5528.2	
765.45	5396.4	
765.63	8050.6	
765.8	7826.7	
765.98	5116.5	
766.16	5397.1	
766.34	6610.8	
766.52	6458.6	
766.69	6128.2	
766.87	5144.5	
767.05	6924.9	
767.23	7494.2	
767.41	5350.7	
767.58	5575.9	
767.76	7312.6	
767.94	7365.2	
768.12	5346.6	
768.29	5847.6	
768.47	6784.9	
768.65	7348.8	
768.83	4993.6	
769	5888.6	
769.18	6420.4	
769.36	6912.6	
769.54	5885.2	
769.72	4955.4	
769.89	7134.4	
770.07	7179.5	
770.25	5129.5	
770.43	6126.2	
770.6	7711.3	
770.78	7980.3	
770.96	5284.4	
771.14	5758.2	
771.31	6926.2	
771.49	6397.9	
771.67	4531.5	
771.85	4740.4	
772.02	5707	
772.2	6302.3	
772.38	5239.4	
772.55	4762.2	
772.73	6578.1	
772.91	6245.6	
773.09	5032.5	
773.26	5134.3	
773.44	6331.6	
773.62	6143.2	
773.8	4667.3	
773.97	4389.5	
774.15	6315.3	
774.33	6092.7	
774.5	4463.9	
774.68	4775.9	
774.86	6496.8	
775.04	6002.6	
775.21	4506.2	
775.39	4539.7	
775.57	6229.9	
775.74	6458.6	
775.92	4311.7	
776.1	4203.8	
776.27	6146	
776.45	7123.5	
776.63	4404.5	
776.81	4048.2	
776.98	5820.3	
777.16	6645.7	
777.34	4477.5	
777.51	4672.1	
777.69	5769.8	
777.87	5560.9	
778.04	4474.1	
778.22	5001.8	
778.4	5592.3	
778.57	6102.9	
778.75	3847.5	
778.93	4050.9	
779.1	5445.5	
779.28	5228.5	
779.46	3775.8	
779.64	4155.3	
779.81	6167.8	
779.99	6840.2	
780.17	4804.5	
780.34	4903.5	
780.52	5724.8	
780.69	5855.8	
780.87	4474.8	
781.05	4085.7	
781.22	5700.9	
781.4	5762.3	
781.58	4172.4	
781.75	3441.3	
781.93	5738.4	
782.11	5113.8	
782.28	4857.8	
782.46	4066.6	
782.64	5059.2	
782.81	5791.7	
782.99	4152.6	
783.17	4035.9	
783.34	5705	
783.52	5018.9	
783.69	4206.5	
783.87	4865.3	
784.05	5136.3	
784.22	5044.1	
784.4	4865.3	
784.58	4265.2	
784.75	5896.8	
784.93	5111	
785.1	3996.3	
785.28	4440	
785.46	5609.4	
785.63	4961.5	
785.81	3945.8	
785.99	3823.6	
786.16	5180	
786.34	5412.8	
786.51	3809.9	
786.69	4164.9	
786.87	4867.3	
787.04	5324.7	
787.22	3721.2	
787.39	4502.8	
787.57	5005.2	
787.75	5896.8	
787.92	4629.8	
788.1	4549.2	
788.27	4975.9	
788.45	4793.6	
788.63	4315.8	
788.8	3266.5	
788.98	5425.8	
789.15	4725.3	
789.33	3366.9	
789.5	3876.8	
789.68	5698.8	
789.86	5804.6	
790.03	4197.7	
790.21	3678.8	
790.38	5696.1	
790.56	5055.8	
790.73	3666.5	
790.91	3604.4	
791.09	4969.1	
791.26	5563	
791.44	3830.4	
791.61	3364.8	
791.79	4909.7	
791.96	4896	
792.14	3424.2	
792.32	3108.8	
792.49	4916.5	
792.67	5006.6	
792.84	3491.8	
793.02	3325.9	
793.19	5321.3	
793.37	5823.7	
793.54	3090.4	
793.72	3416.7	
793.89	5829.9	
794.07	4880.3	
794.25	3799	
794.42	3115	
794.6	5754.8	
794.77	5337.7	
794.95	4076.1	
795.12	3593.5	
795.3	4857.1	
795.47	5345.2	
795.65	3917.1	
795.82	3773.7	
796	4696	
796.17	6197.2	
796.35	3682.2	
796.52	4225.6	
796.7	5341.1	
796.87	5354.8	
797.05	3624.2	
797.22	4301.4	
797.4	5371.8	
797.57	6081.8	
797.75	3740.3	
797.92	3571.7	
798.1	5579.3	
798.27	4773.1	
798.45	3104	
798.62	3315	
798.8	5064.6	
798.97	5489.9	
799.15	3973.7	
799.32	3799	
799.5	4486.4	
799.67	5076.9	
799.85	4038.6	
800.02	3030.3	
800.2	4786.8	
800.37	4984.1	
800.55	4168.3	
800.72	3580.5	
800.9	5437.4	
801.07	5799.2	
801.25	4543.8	
801.42	3800.3	
801.6	5452.4	
801.77	5178.6	
801.95	3639.9	
802.12	3414.6	
802.29	5216.2	
802.47	5070.1	
802.64	3801.7	
802.82	2972.3	
802.99	4776.5	
803.17	5465.3	
803.34	3720.5	
803.52	3362.8	
803.69	6029.9	
803.87	4559.5	
804.04	3637.9	
804.21	3741	
804.39	5655.1	
804.56	4861.9	
804.74	3183.9	
804.91	3776.5	
805.09	4721.9	
805.26	4773.8	
805.44	3237.2	
805.61	3533.4	
805.78	5352	
805.96	5233.9	
806.13	3788.1	
806.31	4033.1	
806.48	4390.2	
806.66	4814.1	
806.83	3774.4	
807	3687.7	
807.18	4727.4	
807.35	5013.4	
807.53	3602.4	
807.7	3037.8	
807.87	5692.7	
808.05	4714.4	
808.22	3948.5	
808.4	3044	
808.57	4663.2	
808.74	4396.3	
808.92	3424.2	
809.09	4214.7	
809.27	4640.7	
809.44	5070.8	
809.61	2993.4	
809.79	3331.4	
809.96	5673.6	
810.14	5268.7	
810.31	2862.4	
810.48	3528	
810.66	4761.5	
810.83	5307.7	
811.01	3332.7	
811.18	3731.4	
811.35	5352	
811.53	4209.3	
811.7	4020.2	
811.87	3716.4	
812.05	4745.8	
812.22	4615.4	
812.39	3257	
812.57	3177.8	
812.74	4737.6	
812.92	6023.8	
813.09	3545.7	
813.26	3739.6	
813.44	5799.8	
813.61	4575.8	
813.78	2944.3	
813.96	3866.6	
814.13	4720.6	
814.3	4444.1	
814.48	4186.7	
814.65	3531.4	
814.82	5651.7	
815	4453.6	
815.17	3586	
815.34	4265.9	
815.52	4562.9	
815.69	4658.4	
815.87	3487.7	
816.04	3473.4	
816.21	4666.6	
816.38	4210.6	
816.56	3396.2	
816.73	3211.9	
816.9	5798.5	
817.08	5270.1	
817.25	3290.4	
817.42	3990.8	
817.6	4322.6	
817.77	4639.3	
817.94	3656.3	
818.12	3181.9	
818.29	4409.3	
818.46	6515.3	
818.64	3411.2	
818.81	3164.1	
818.98	4476.2	
819.16	6207.4	
819.33	3809.9	
819.5	3595.6	
819.67	4981.3	
819.85	5492.7	
820.02	3506.8	
820.19	3725.9	
820.37	4883.7	
820.54	4537.6	
820.71	3609.2	
820.88	4383.3	
821.06	4859.1	
821.23	4432.5	
821.4	3640.6	
821.58	3616	
821.75	5231.2	
821.92	4782.7	
822.09	2984.6	
822.27	3098.6	
822.44	4671.4	
822.61	4588.8	
822.79	3024.2	
822.96	5475.6	
823.13	5032.5	
823.3	4374.5	
823.48	3390.1	
823.65	3035.1	
823.82	5197.7	
823.99	4278.2	
824.17	4213.4	
824.34	3119.7	
824.51	5914.5	
824.68	4662.5	
824.86	3270.6	
825.03	3581.9	
825.2	4685.1	
825.37	5497.4	
825.55	3265.8	
825.72	3543	
825.89	5954.8	
826.06	5526.8	
826.24	3472.7	
826.41	3491.8	
826.58	5576.6	
826.75	4887.1	
826.92	2799.6	
827.1	3093.1	
827.27	7307.2	
827.44	5830.6	
827.61	3275.4	
827.79	3941	
827.96	4514.4	
828.13	4711.7	
828.3	3469.9	
828.47	3003	
828.65	4904.2	
828.82	4865.3	
828.99	4360.1	
829.16	3840.6	
829.34	5240.1	
829.51	4988.9	
829.68	3567.6	
829.85	3675.4	
830.02	5509	
830.2	5195.7	
830.37	2850.1	
830.54	4199.7	
830.71	5877	
830.88	4657.8	
831.05	2823.5	
831.23	3172.3	
831.4	5649	
831.57	6193.1	
831.74	3299.3	
831.91	2924.5	
832.09	4951.3	
832.26	5215.5	
832.43	3351.2	
832.6	3799.7	
832.77	4889.9	
832.94	5468.1	
833.12	2775.7	
833.29	3323.9	
833.46	4988.2	
833.63	6324.1	
833.8	3616.7	
833.97	3403	
834.15	5255.1	
834.32	5027.8	
834.49	3504.1	
834.66	3601	
834.83	5340.4	
835	4468.7	
835.17	3272.7	
835.35	3292.5	
835.52	5094	
835.69	5003.2	
835.86	3353.9	
836.03	2870.6	
836.2	5137	
836.37	4844.8	
836.55	3414.6	
836.72	3183.9	
836.89	4851	
837.06	5225.7	
837.23	3474.7	
837.4	3702	
837.57	5858.6	
837.75	6372.6	
837.92	3084.2	
838.09	3312.2	
838.26	4851.6	
838.43	5373.2	
838.6	3519.1	
838.77	3214.6	
838.94	6090.7	
839.11	5823.1	
839.29	3366.9	
839.46	2704.7	
839.63	5206.6	
839.8	4917.9	
839.97	3265.1	
840.14	3234.4	
840.31	5038	
840.48	5232.6	
840.65	2775.7	
840.82	3254.2	
841	5142.4	
841.17	5052.3	
841.34	3012.6	
841.51	3149.8	
841.68	5063.9	
841.85	4881.7	
842.02	3160	
842.19	2713.6	
842.36	4963.6	
842.53	4928.1	
842.7	3072.6	
842.87	3592.8	
843.05	6296.8	
843.22	4883.7	
843.39	2928.6	
843.56	3138.9	
843.73	4723.3	
843.9	5235.3	
844.07	4726	
844.24	3936.9	
844.41	7079.1	
844.58	4564.9	
844.75	2965.5	
844.92	3196.2	
845.09	5152.7	
845.26	5147.9	
845.43	2994.1	
845.6	3164.1	
845.77	5126.1	
845.94	4934.9	
846.12	3370.3	
846.29	3450.1	
846.46	5365.7	
846.63	5158.8	
846.8	3034.4	
846.97	3575.1	
847.14	5524.1	
847.31	5112.4	
847.48	3341.6	
847.65	3720.5	
847.82	5340.4	
847.99	5296.7	
848.16	3926	
848.33	3666.5	
848.5	4764.9	
848.67	5466.7	
848.84	2999.6	
849.01	3082.2	
849.18	4748.6	
849.35	4463.2	
849.52	3726.6	
849.69	2910.2	
849.86	5347.9	
850.03	5408	
850.2	3010.5	
850.37	3607.2	
850.54	5433.9	
850.71	4848.2	
850.88	3575.1	
851.05	3018.7	
851.22	5018.2	
851.39	5601.9	
851.56	2895.8	
851.73	3446.7	
851.9	4512.4	
852.07	5293.3	
852.24	3349.8	
852.41	2963.4	
852.58	5054.4	
852.75	4617.5	
852.92	3379.1	
853.09	2972.3	
853.26	4745.1	
853.43	5481	
853.6	2991.4	
853.77	2609.8	
853.94	5589.6	
854.11	4561.5	
854.28	4289.1	
854.44	3213.3	
854.61	5836.7	
854.78	5380	
854.95	3006.4	
855.12	3660.4	
855.29	4241.3	
855.46	5638.7	
855.63	2958.6	
855.8	4062.5	
855.97	4696	
856.14	5383.4	
856.31	4110.3	
856.48	3287	
856.65	4820.9	
856.82	4526	
856.99	2943.6	
857.16	3228.3	
857.33	6113.2	
857.49	4816.8	
857.66	3170.9	
857.83	3403.7	
858	4884.4	
858.17	5031.2	
858.34	2887.6	
858.51	2993.4	
858.68	5626.5	
858.85	5602.6	
859.02	3420.8	
859.19	3626.3	
859.36	4601.8	
859.52	4620.2	
859.69	3016	
859.86	3472	
860.03	4581.3	
860.2	5577.3	
860.37	2752.5	
860.54	3005.1	
860.71	5305.6	
860.88	5624.4	
861.05	3357.3	
861.21	3742.3	
861.38	5594.4	
861.55	4401.8	
861.72	2727.9	
861.89	3322.5	
862.06	5308.3	
862.23	5668.1	
862.4	2917	
862.56	3112.2	
862.73	5195.7	
862.9	4937	
863.07	3450.1	
863.24	2741.5	
863.41	4451.6	
863.58	4603.2	
863.75	3072	
863.91	3422.8	
864.08	5530.2	
864.25	5221.6	
864.42	3684.3	
864.59	4090.5	
864.76	5879.7	
864.93	4573.1	
865.09	2893.8	
865.26	3187.3	
865.43	5483.1	
865.6	5827.2	
865.77	2653.5	
865.94	2981.2	
866.1	5528.8	
866.27	5169.8	
866.44	4372.4	
866.61	2906.8	
866.78	4847.5	
866.95	5212.1	
867.11	2910.8	
867.28	2639.1	
867.45	5393	
867.62	4569	
867.79	3431.7	
867.96	3052.8	
868.12	4535.6	
868.29	5272.8	
868.46	2951.1	
868.63	3956.7	
868.8	5408.7	
868.97	5275.6	
869.13	3093.8	
869.3	3076	
869.47	5087.8	
869.64	5347.2	
869.81	2983.2	
869.97	3028.3	
870.14	5059.8	
870.31	5657.9	
870.48	2955.9	
870.65	3718.4	
870.81	4819.6	
870.98	4867.3	
871.15	3310.9	
871.32	3025.5	
871.48	5105.6	
871.65	5673.6	
871.82	2982.5	
871.99	3289.7	
872.16	6010.1	
872.32	5445.5	
872.49	3022.8	
872.66	3026.2	
872.83	5260.5	
872.99	4674.1	
873.16	3373	
873.33	2964.1	
873.5	4976.6	
873.67	4971.1	
873.83	3137.5	
874	3949.2	
874.17	5110.4	
874.34	5897.5	
874.5	3778.5	
874.67	3652.9	
874.84	5548.6	
875.01	4435.2	
875.17	4107.5	
875.34	3001.6	
875.51	5048.2	
875.68	5953.4	
875.84	3557.3	
876.01	4214	
876.18	5246.2	
876.34	5201.8	
876.51	2938.8	
876.68	2901.3	
876.85	4845.5	
877.01	5477	
877.18	4139.6	
877.35	2963.4	
877.52	5057.1	
877.68	4516.5	
877.85	2952.5	
878.02	2921.1	
878.18	4836.6	
878.35	4702.1	
878.52	2419.3	
878.69	3306.8	
878.85	5317.2	
879.02	5221.6	
879.19	4156.7	
879.35	3207.8	
879.52	5232.6	
879.69	5368.4	
879.86	2615.3	
880.02	3318.4	
880.19	4892.6	
880.36	5912.5	
880.52	3356.6	
880.69	3483.6	
880.86	5296.7	
881.02	5319.9	
881.19	3265.8	
881.36	3215.3	
881.52	5170.4	
881.69	4634.6	
881.86	3183.2	
882.02	3058.3	
882.19	5441.5	
882.36	6288.6	
882.52	3025.5	
882.69	4037.2	
882.86	5042.8	
883.02	4982.7	
883.19	3542.3	
883.36	3328.6	
883.52	5324.7	
883.69	5913.2	
883.86	2994.8	
884.02	2712.2	
884.19	5261.2	
884.36	4928.1	
884.52	3321.1	
884.69	3161.4	
884.86	4727.4	
885.02	5655.1	
885.19	3306.1	
885.36	3371	
885.52	4883.7	
885.69	5036	
885.86	4183.3	
886.02	3720.5	
886.19	5274.2	
886.35	4775.9	
886.52	3267.9	
886.69	4063.2	
886.85	4513	
887.02	5503.6	
887.19	5503.6	
887.35	5503.6	
887.52	5503.6	
887.68	5503.6	
887.85	5503.6	
888.02	5503.6	
888.18	5503.6	
888.35	5503.6	
888.51	5503.6	
888.68	5503.6	
888.85	5503.6	
889.01	5503.6	
889.18	5503.6	
889.35	5503.6	
889.51	5503.6	
889.68	5503.6	
889.84	5503.6	
890.01	5503.6	
890.17	5503.6	
890.34	5503.6	
890.51	5503.6	
890.67	5503.6	
890.84	5503.6	
891	5503.6	
891.17	5503.6	
891.34	5503.6	
891.5	5503.6	
891.67	5503.6	
891.83	5503.6	
892	5503.6	
892.16	5503.6	
892.33	5503.6	
892.5	5503.6	
892.66	5503.6	
892.83	5503.6	
892.99	5503.6	
893.16	5503.6	
893.32	5503.6	
893.49	5503.6	
893.65	5503.6	
893.82	5503.6	
893.99	5503.6	
894.15	5503.6	
894.32	5503.6	
894.48	5503.6	
894.65	5503.6	
894.81	5503.6	
894.98	5503.6	
895.14	5503.6	
895.31	5503.6	
895.47	5503.6	
895.64	5503.6	
895.81	5503.6	
895.97	5503.6	
896.14	5503.6	
896.3	5503.6	
896.47	5503.6	
896.63	5503.6	
896.8	5503.6	
896.96	5503.6	
897.13	5503.6	
897.29	5503.6	
897.46	5503.6	
897.62	5503.6	
897.79	5503.6	
897.95	5503.6	
898.12	5503.6	
898.28	5503.6	
898.45	5503.6	
898.61	5503.6	
898.78	5503.6	
898.94	5503.6	
899.11	5503.6	
899.27	5503.6	
899.44	5503.6	
899.6	5503.6	
899.77	5503.6	
899.93	5503.6	
900.1	5503.6	
900.26	5503.6	
900.43	5503.6	
900.59	5503.6	
900.76	5503.6	
900.92	5503.6	
901.09	5503.6	
901.25	5503.6	
901.42	5503.6	
901.58	5503.6	
901.75	5503.6	
901.91	5503.6	
902.07	5503.6	
902.24	5503.6	
902.4	5503.6	
902.57	5503.6	
902.73	5503.6	
902.9	5503.6	
903.06	5503.6	
903.23	5503.6	
903.39	5503.6	
903.56	5503.6	
903.72	5503.6	
903.88	5503.6	
904.05	5503.6	
904.21	5503.6	
904.38	5503.6	
904.54	5503.6	
904.71	5503.6	
904.87	5503.6	
905.03	5503.6	
905.2	5503.6	
905.36	5503.6	
905.53	5503.6	
905.69	5503.6	
905.86	5503.6	
906.02	5503.6	
906.18	5503.6	
906.35	5503.6	
906.51	5503.6	
906.68	5503.6	
906.84	5503.6	
907.01	5503.6	
907.17	5503.6	
907.33	5503.6	
907.5	5503.6	
907.66	5503.6	
907.83	5503.6	
907.99	5503.6	
908.15	5503.6	
908.32	5503.6	
908.48	5503.6	
908.65	5503.6	
908.81	5503.6	
908.97	5503.6	
909.14	5503.6	
909.3	5503.6	
909.47	5503.6	
909.63	5503.6	
909.79	5503.6	
909.96	5503.6	
910.12	5503.6	
910.28	5503.6	
910.45	5503.6	
910.61	5503.6	
910.78	5503.6	
910.94	5503.6	
911.1	5503.6	
911.27	5503.6	
911.43	5503.6	
911.59	5503.6	
911.76	5503.6	
911.92	5503.6	
912.08	5503.6	
912.25	5503.6	
912.41	5503.6	
912.57	5503.6	
912.74	5503.6	
912.9	5503.6	
913.07	5503.6	
913.23	5503.6	
913.39	5503.6	
913.56	5503.6	
913.72	5503.6	
913.88	5503.6	
914.05	5503.6	
914.21	5503.6	
914.37	5503.6	
914.54	5503.6	
914.7	5503.6	
914.86	5503.6	
915.03	5503.6	
915.19	5503.6	
