Wavelength	Intensities	
nm	a.u.	
179.22	1483.1	
179.44	1487.5	
179.65	1478.6	
179.86	1496.4	
180.08	1528.5	
180.29	3224.2	
180.51	2611.8	
180.72	4498	
180.94	4846.2	
181.15	2385.9	
181.37	2327.2	
181.58	4283.7	
181.79	4407.9	
182.01	2419.3	
182.22	2522.4	
182.44	4476.9	
182.65	3950.5	
182.87	3005.1	
183.08	2694.4	
183.29	4676.2	
183.51	3969.6	
183.72	2537.4	
183.94	3308.8	
184.15	4218.8	
184.37	4087.1	
184.58	2291	
184.79	2804.4	
185.01	4057	
185.22	4544.4	
185.44	2928.6	
185.65	2653.5	
185.86	4310.3	
186.08	3981.3	
186.29	2277.3	
186.51	2386.6	
186.72	4106.9	
186.94	4542.4	
187.15	2680.8	
187.36	2701.3	
187.58	5461.2	
187.79	4320.5	
188.01	2736.8	
188.22	3942.3	
188.43	4914.4	
188.65	4463.9	
188.86	2416.6	
189.08	2690.3	
189.29	4088.4	
189.5	4040.6	
189.72	2520.4	
189.93	2594.8	
190.15	4554	
190.36	5025.7	
190.57	2674.6	
190.79	2639.1	
191	4492.6	
191.22	4546.5	
191.43	2768.2	
191.64	2404.3	
191.86	4611.3	
192.07	4567.7	
192.29	2418.7	
192.5	2478	
192.71	4560.8	
192.93	4164.9	
193.14	2515.6	
193.35	2618	
193.57	4072	
193.78	4498.7	
194	2147	
194.21	2512.2	
194.42	3905.5	
194.64	4192.2	
194.85	2674.6	
195.07	3035.8	
195.28	4153.3	
195.49	3859.7	
195.71	3168.9	
195.92	2435.7	
196.13	4367.6	
196.35	4332.1	
196.56	3287.7	
196.78	2694.4	
196.99	5163.6	
197.2	4754.7	
197.42	2934.7	
197.63	2708.1	
197.84	3944.4	
198.06	4343.1	
198.27	2510.1	
198.48	3123.2	
198.7	4099.4	
198.91	4295.3	
199.13	2696.5	
199.34	2699.2	
199.55	4560.8	
199.77	3695.9	
199.98	2470.5	
200.19	2742.9	
200.41	4236.6	
200.62	3978.5	
200.83	2775.7	
201.05	2925.2	
201.26	4209.3	
201.47	4015.4	
201.69	2412.5	
201.9	2468.5	
202.11	4250.2	
202.33	4749.2	
202.54	2604.3	
202.76	2785.9	
202.97	4233.8	
203.18	4380.6	
203.4	2777	
203.61	2819.4	
203.82	4256.4	
204.04	3988.1	
204.25	2719.7	
204.46	2637.1	
204.68	4218.1	
204.89	4366.3	
205.1	2644.6	
205.32	2377.7	
205.53	4364.2	
205.74	4496	
205.96	2157.2	
206.17	2757.9	
206.38	4341	
206.6	4480.3	
206.81	2920.4	
207.02	2556.5	
207.24	4369	
207.45	4602.5	
207.66	2648.7	
207.88	2383.2	
208.09	4354.7	
208.3	4225.6	
208.52	2434.4	
208.73	2622.8	
208.94	4190.8	
209.15	4611.3	
209.37	2586.6	
209.58	2679.4	
209.79	4468	
210.01	4235.9	
210.22	2236.4	
210.43	2344.2	
210.65	4111.6	
210.86	4356.7	
211.07	2620	
211.29	2420.7	
211.5	4302.8	
211.71	4185.4	
211.93	2493.7	
212.14	2432.3	
212.35	4250.2	
212.56	4171	
212.78	2707.4	
212.99	2335.4	
213.2	4752	
213.42	4138.3	
213.63	2514.2	
213.84	2622.1	
214.06	3893.9	
214.27	3951.9	
214.48	2578.4	
214.69	2775.7	
214.91	4632.5	
215.12	4603.8	
215.33	2740.9	
215.55	2877.4	
215.76	4889.9	
215.97	4418.8	
216.18	2597.5	
216.4	2682.2	
216.61	4048.2	
216.82	4500.1	
217.04	2463.7	
217.25	2571.6	
217.46	4562.9	
217.67	4419.5	
217.89	2296.5	
218.1	2303.3	
218.31	4252.9	
218.53	4397	
218.74	2605	
218.95	2465.1	
219.16	4242	
219.38	4716.5	
219.59	2457.6	
219.8	2829.6	
220.01	4921.3	
220.23	4300.7	
220.44	3001	
220.65	2403.6	
220.87	4317.8	
221.08	4546.5	
221.29	2409.1	
221.5	2811.9	
221.72	5136.3	
221.93	3983.3	
222.14	2671.2	
222.35	3113.6	
222.57	4223.6	
222.78	4518.5	
222.99	2671.9	
223.2	2705.4	
223.42	4333.5	
223.63	4414.7	
223.84	2078	
224.05	2228.2	
224.27	4870.1	
224.48	4655.7	
224.69	3131.3	
224.9	2681.5	
225.12	4307.6	
225.33	4231.1	
225.54	2267.8	
225.75	2480.1	
225.97	3991.5	
226.18	4233.8	
226.39	2554.5	
226.6	2465.1	
226.82	4103.4	
227.03	3947.1	
227.24	2742.2	
227.45	2377	
227.67	4568.3	
227.88	4612	
228.09	2966.8	
228.3	2897.9	
228.52	4403.8	
228.73	4180.6	
228.94	2480.8	
229.15	2333.3	
229.36	4246.8	
229.58	4258.4	
229.79	2596.1	
230	2820.7	
230.21	4894.6	
230.43	4200.4	
230.64	2627.5	
230.85	2755.9	
231.06	4487.8	
231.28	4496	
231.49	2346.3	
231.7	2710.1	
231.91	4450.2	
232.12	4207.2	
232.34	2407.7	
232.55	2595.5	
232.76	4547.2	
232.97	4214.7	
233.18	2475.3	
233.4	2697.2	
233.61	4261.1	
233.82	4026.3	
234.03	2632.3	
234.25	2558.6	
234.46	5348.6	
234.67	4252.9	
234.88	2791.4	
235.09	2536.1	
235.31	4255.7	
235.52	4151.2	
235.73	2639.1	
235.94	2314.2	
236.15	4053.6	
236.37	4818.9	
236.58	2417.3	
236.79	2608.4	
237	4403.1	
237.21	3886.4	
237.43	2751.8	
237.64	2305.3	
237.85	6292	
238.06	3995.6	
238.27	2725.2	
238.48	2429.6	
238.7	4448.9	
238.91	4190.1	
239.12	2535.4	
239.33	2712.9	
239.54	3969.6	
239.76	4115.7	
239.97	2560	
240.18	2572.2	
240.39	4778.6	
240.6	4250.2	
240.82	2755.2	
241.03	2348.3	
241.24	4148.5	
241.45	4639.3	
241.66	2390	
241.87	2773.6	
242.09	4655.7	
242.3	4754.7	
242.51	2806.4	
242.72	2611.8	
242.93	4395.6	
243.14	4167.6	
243.36	2945.7	
243.57	3085.6	
243.78	4666.6	
243.99	4393.6	
244.2	2585.2	
244.41	2362.7	
244.63	3903.4	
244.84	4300.7	
245.05	2721.8	
245.26	2600.9	
245.47	4450.2	
245.68	4478.2	
245.9	3160.7	
246.11	2696.5	
246.32	3999	
246.53	4377.9	
246.74	3882.9	
246.95	2307.4	
247.16	4096.6	
247.38	4217.5	
247.59	2392.7	
247.8	2656.2	
248.01	3850.9	
248.22	4184.7	
248.43	2426.2	
248.64	2641.2	
248.86	3966.9	
249.07	4075.5	
249.28	2448	
249.49	2697.9	
249.7	4441.4	
249.91	4403.1	
250.12	2304	
250.34	2396.8	
250.55	4335.5	
250.76	4216.8	
250.97	2730.6	
251.18	2676.7	
251.39	4463.2	
251.6	4276.8	
251.81	2719.7	
252.03	2682.8	
252.24	4072	
252.45	4392.9	
252.66	2333.3	
252.87	2796.8	
253.08	4202.4	
253.29	5091.3	
253.5	2422.1	
253.72	3084.2	
253.93	4193.6	
254.14	4735.6	
254.35	2519.7	
254.56	2565.4	
254.77	4307.6	
254.98	3989.4	
255.19	2584.5	
255.41	3004.4	
255.62	4357.4	
255.83	4505.5	
256.04	2803	
256.25	2661	
256.46	4854.4	
256.67	4030.4	
256.88	2678.1	
257.09	2874.7	
257.31	3905.5	
257.52	3960.8	
257.73	3275.4	
257.94	2572.2	
258.15	4255	
258.36	4203.1	
258.57	2964.1	
258.78	2146.3	
258.99	4536.9	
259.2	4095.3	
259.41	2499.2	
259.63	2600.9	
259.84	4642.1	
260.05	4780	
260.26	3029.6	
260.47	2502.6	
260.68	4556	
260.89	4127.3	
261.1	2916.3	
261.31	2396.8	
261.52	4627	
261.73	4696.7	
261.95	3084.2	
262.16	2739.5	
262.37	4543.1	
262.58	4605.9	
262.79	3050.8	
263	2557.9	
263.21	4239.3	
263.42	4033.1	
263.63	2804.4	
263.84	2551.1	
264.05	4509.6	
264.26	4700.8	
264.47	2966.1	
264.69	2788	
264.9	4699.4	
265.11	4199	
265.32	2444.6	
265.53	2532	
265.74	4278.2	
265.95	3863.2	
266.16	2678.7	
266.37	2854.2	
266.58	4367	
266.79	4093.9	
267	2514.9	
267.21	2392	
267.42	3971	
267.63	4175.1	
267.84	2590	
268.06	2350.4	
268.27	4484.4	
268.48	4577.2	
268.69	2575.7	
268.9	2956.6	
269.11	4446.8	
269.32	3843.4	
269.53	2622.1	
269.74	2451.4	
269.95	4255	
270.16	3916.4	
270.37	2680.8	
270.58	2921.1	
270.79	4166.9	
271	4470.7	
271.21	2692.4	
271.42	2606.4	
271.63	4384	
271.84	3885.7	
272.05	2290.3	
272.26	2452.1	
272.47	4240	
272.68	4246.8	
272.89	2584.5	
273.11	2804.4	
273.32	4031.1	
273.53	4636.6	
273.74	2769.5	
273.95	2776.4	
274.16	4345.8	
274.37	4147.1	
274.58	2837.1	
274.79	2421.4	
275	4362.2	
275.21	4421.6	
275.42	3250.1	
275.63	2801.6	
275.84	4402.5	
276.05	5096.7	
276.26	2740.9	
276.47	2596.1	
276.68	4259.1	
276.89	4797.7	
277.1	2824.1	
277.31	2375.6	
277.52	4341.7	
277.73	4661.9	
277.94	2311.5	
278.15	2473.9	
278.36	4353.3	
278.57	4050.2	
278.78	2538.1	
278.99	2716.3	
279.2	4106.2	
279.41	4023.6	
279.62	3144.3	
279.83	2397.5	
280.04	4868.7	
280.25	3970.3	
280.46	3114.3	
280.67	2604.3	
280.88	4039.3	
281.09	4568.3	
281.3	2688.3	
281.51	3229	
281.72	4493.2	
281.93	4364.2	
282.14	2503.3	
282.35	2650.8	
282.56	4507.6	
282.77	4450.2	
282.98	2609.1	
283.19	2965.5	
283.4	5137	
283.61	4169	
283.82	2476	
284.03	3039.2	
284.24	4360.1	
284.45	4488.5	
284.66	3159.3	
284.87	2946.3	
285.08	4537.6	
285.29	4595	
285.5	2383.8	
285.71	2547.7	
285.92	4478.9	
286.12	4851	
286.33	3078.8	
286.54	2604.3	
286.75	4443.4	
286.96	4158.7	
287.17	2457.6	
287.38	2956.6	
287.59	4135.5	
287.8	4124.6	
288.01	2568.2	
288.22	2795.5	
288.43	4280.3	
288.64	3863.8	
288.85	2991.4	
289.06	2820.1	
289.27	4481.6	
289.48	4583.4	
289.69	3089.7	
289.9	2934.1	
290.11	4605.9	
290.32	4121.9	
290.53	2952.5	
290.74	2725.2	
290.94	4455.7	
291.15	4455.7	
291.36	2509.4	
291.57	2842.6	
291.78	4156.7	
291.99	3824.9	
292.2	2495.8	
292.41	2777	
292.62	4538.3	
292.83	4407.2	
293.04	3218	
293.25	2492.4	
293.46	4192.9	
293.67	4502.1	
293.88	2519	
294.09	2467.1	
294.29	4027.7	
294.5	4268	
294.71	2628.9	
294.92	2536.8	
295.13	4128.7	
295.34	4831.8	
295.55	2360.6	
295.76	2249.4	
295.97	4426.3	
296.18	4730.1	
296.39	2366.8	
296.6	2495.1	
296.81	4144.4	
297.01	4408.6	
297.22	2567.5	
297.43	2542.9	
297.64	4119.8	
297.85	3925.3	
298.06	2180.4	
298.27	2312.8	
298.48	4106.9	
298.69	4059.1	
298.9	2660.3	
299.11	2482.1	
299.31	3999.7	
299.52	3953.9	
299.73	2787.3	
299.94	2739.5	
300.15	4256.4	
300.36	4065.2	
300.57	2780.5	
300.78	2682.8	
300.99	4114.4	
301.2	4265.2	
301.4	2559.3	
301.61	2645.3	
301.82	4300.7	
302.03	4430.4	
302.24	2936.1	
302.45	2396.1	
302.66	4361.5	
302.87	4450.2	
303.08	2521.7	
303.29	3207.1	
303.49	4148.5	
303.7	4107.5	
303.91	2363.4	
304.12	3053.5	
304.33	3911.6	
304.54	4286.4	
304.75	2523.8	
304.96	2502.6	
305.16	4349.2	
305.37	4735.6	
305.58	2330.6	
305.79	2284.9	
306	4435.2	
306.21	3887	
306.42	2540.8	
306.63	3457	
306.83	4136.9	
307.04	4364.2	
307.25	2699.9	
307.46	2643.9	
307.67	3887	
307.88	4308.9	
308.09	2544.3	
308.29	2458.2	
308.5	4270.7	
308.71	4442.7	
308.92	2667.8	
309.13	2380.4	
309.34	4265.2	
309.55	4148.5	
309.75	3004.4	
309.96	2722.4	
310.17	4435.9	
310.38	4042	
310.59	2835.1	
310.8	2672.6	
311.01	4722.6	
311.21	4212	
311.42	2489.6	
311.63	2505.3	
311.84	4124.6	
312.05	4205.8	
312.26	2797.5	
312.46	2917	
312.67	4136.9	
312.88	3886.4	
313.09	2439.8	
313.3	2463	
313.51	4631.1	
313.71	4820.9	
313.92	2487.6	
314.13	2538.1	
314.34	4381.3	
314.55	4222.2	
314.76	2912.2	
314.96	2630.3	
315.17	4344.4	
315.38	4219.5	
315.59	2478.7	
315.8	2384.5	
316.01	4580.6	
316.21	4683	
316.42	2428.2	
316.63	2653.5	
316.84	4171.7	
317.05	4498.7	
317.26	2780.5	
317.46	2571.6	
317.67	4229.7	
317.88	4398.4	
318.09	2913.6	
318.3	2315.6	
318.5	4153.3	
318.71	4294.6	
318.92	3518.4	
319.13	2793.4	
319.34	4498.7	
319.54	4571.7	
319.75	2329.9	
319.96	2241.2	
320.17	4287.8	
320.38	4485.1	
320.58	2301.9	
320.79	2617.3	
321	4504.2	
321.21	4601.8	
321.42	2675.3	
321.62	2332	
321.83	4093.9	
322.04	4230.4	
322.25	2622.8	
322.46	2461.7	
322.66	4228.4	
322.87	4437.9	
323.08	2850.8	
323.29	2319	
323.5	4798.4	
323.7	3956	
323.91	3118.4	
324.12	2849.4	
324.33	4306.2	
324.53	4427.7	
324.74	2724.5	
324.95	2818.7	
325.16	3976.5	
325.37	4141	
325.57	2405	
325.78	2484.9	
325.99	4356.7	
326.2	3897.3	
326.4	3175	
326.61	2295.8	
326.82	4197	
327.03	4267.3	
327.24	3202.3	
327.44	2978.4	
327.65	4385.4	
327.86	3758	
328.07	2765.4	
328.27	2407.7	
328.48	4581.3	
328.69	3917.8	
328.9	3231	
329.1	2486.2	
329.31	4192.9	
329.52	4601.1	
329.73	2482.8	
329.93	2600.9	
330.14	4294.6	
330.35	4337.6	
330.56	3601.7	
330.76	2903.3	
330.97	4121.2	
331.18	4201.1	
331.39	2689.7	
331.59	2256.9	
331.8	4539	
332.01	4595.6	
332.22	2544.9	
332.42	2727.2	
332.63	4283.7	
332.84	3943.7	
333.05	2712.9	
333.25	2484.9	
333.46	4037.2	
333.67	4207.9	
333.88	2581.8	
334.08	2704.7	
334.29	5152	
334.5	4480.3	
334.7	2435.7	
334.91	3180.5	
335.12	3910.9	
335.33	4343.7	
335.53	2667.1	
335.74	3540.3	
335.95	4237.9	
336.16	3829	
336.36	2656.9	
336.57	2923.8	
336.78	3803.1	
336.98	4487.1	
337.19	3106.8	
337.4	2573.6	
337.61	4860.5	
337.81	3928.7	
338.02	2568.2	
338.23	2973	
338.43	4640	
338.64	4074.1	
338.85	2489	
339.05	3066.5	
339.26	4721.3	
339.47	3899.3	
339.68	2485.6	
339.88	3290.4	
340.09	4430.4	
340.3	4482.3	
340.5	2746.3	
340.71	2272.6	
340.92	3969.6	
341.13	4526.7	
341.33	2361.3	
341.54	2757.9	
341.75	4319.8	
341.95	4073.4	
342.16	2674.6	
342.37	2804.4	
342.57	3964.2	
342.78	4113	
342.99	2854.2	
343.19	2338.8	
343.4	4433.9	
343.61	4338.3	
343.81	2597.5	
344.02	2383.2	
344.23	4432.5	
344.43	4532.2	
344.64	2853.5	
344.85	2880.8	
345.06	4369.7	
345.26	4448.9	
345.47	2809.8	
345.68	3123.8	
345.88	3914.4	
346.09	4444.8	
346.3	2770.2	
346.5	2196.8	
346.71	4161.5	
346.92	4079.6	
347.12	2393.4	
347.33	2762.7	
347.54	4498	
347.74	4653.7	
347.95	2739.5	
348.16	2166.8	
348.36	4055.7	
348.57	3991.5	
348.78	2798.2	
348.98	2833.7	
349.19	4150.5	
349.39	3807.2	
349.6	2353.8	
349.81	2507.4	
350.01	4492.6	
350.22	4046.1	
350.43	2726.5	
350.63	3069.2	
350.84	4175.1	
351.05	3994.9	
351.25	2458.9	
351.46	2320.3	
351.67	4408.6	
351.87	3932.8	
352.08	2555.9	
352.29	2837.1	
352.49	4453	
352.7	4421.6	
352.9	2412.5	
353.11	2860.3	
353.32	4721.3	
353.52	4111.6	
353.73	2464.4	
353.94	2871.9	
354.14	4362.9	
354.35	4072	
354.55	2563.4	
354.76	2638.5	
354.97	4299.4	
355.17	4101.4	
355.38	2437.8	
355.59	3024.8	
355.79	3971.7	
356	4105.5	
356.2	2652.1	
356.41	2413.9	
356.62	3920.5	
356.82	4188.8	
357.03	2850.8	
357.24	2581.8	
357.44	3943.7	
357.65	4009.2	
357.85	3151.8	
358.06	2680.1	
358.27	3842.7	
358.47	3931.4	
358.68	2387.9	
358.88	2820.1	
359.09	4296	
359.3	4384.7	
359.5	3072	
359.71	2871.3	
359.91	4586.8	
360.12	4254.3	
360.33	2856.2	
360.53	2973	
360.74	3978.5	
360.94	4036.5	
361.15	2906.1	
361.36	2461.7	
361.56	4474.1	
361.77	4154	
361.97	3100.6	
362.18	2590	
362.38	4436.6	
362.59	3923.9	
362.8	2427.5	
363	2393.4	
363.21	3889.8	
363.41	4159.4	
363.62	2710.8	
363.83	3071.3	
364.03	4356.7	
364.24	4582	
364.44	3360.7	
364.65	3295.9	
364.85	4121.9	
365.06	3988.8	
365.27	2534	
365.47	2652.8	
365.68	4578.6	
365.88	4133.5	
366.09	2783.9	
366.29	2581.8	
366.5	4126.7	
366.71	4476.2	
366.91	3155.9	
367.12	2863.7	
367.32	4796.3	
367.53	4315.1	
367.73	2927.2	
367.94	3371.6	
368.14	4359.4	
368.35	4622.9	
368.56	2828.2	
368.76	2675.3	
368.97	4417.5	
369.17	5208.7	
369.38	2615.3	
369.58	2706.7	
369.79	3885.7	
369.99	4678.2	
370.2	3257.6	
370.4	2770.9	
370.61	4235.9	
370.82	5000.5	
371.02	2746.3	
371.23	2414.6	
371.43	4011.3	
371.64	4638.6	
371.84	2762.7	
372.05	3286.3	
372.25	5171.8	
372.46	4263.2	
372.66	2721.8	
372.87	2792.7	
373.07	4273.4	
373.28	5237.3	
373.48	3219.4	
373.69	3054.9	
373.9	4173.1	
374.1	4224.3	
374.31	3148.4	
374.51	2909.5	
374.72	4551.3	
374.92	4026.3	
375.13	3269.9	
375.33	2824.8	
375.54	4338.3	
375.74	4123.9	
375.95	2957.9	
376.15	3580.5	
376.36	4442.7	
376.56	4349.2	
376.77	2937.5	
376.97	3127.9	
377.18	5004.6	
377.38	4425.7	
377.59	3223.5	
377.79	2734.7	
378	4274.8	
378.2	4442.7	
378.41	2730.6	
378.61	2678.1	
378.82	4590.2	
379.02	4190.8	
379.23	2828.2	
379.43	3340.9	
379.64	4762.9	
379.84	4386.1	
380.05	2764.8	
380.25	2715.6	
380.46	4464.6	
380.66	4210.6	
380.87	3457.7	
381.07	3574.4	
381.28	4806.6	
381.48	4420.2	
381.69	2727.9	
381.89	2770.2	
382.1	3930.1	
382.3	4444.8	
382.51	3285.6	
382.71	3721.8	
382.91	4371.7	
383.12	4670.7	
383.32	2936.8	
383.53	3021.4	
383.73	4387.4	
383.94	4298	
384.14	3028.3	
384.35	2548.4	
384.55	4121.9	
384.76	4341	
384.96	2951.1	
385.17	3063.1	
385.37	4422.2	
385.58	3997	
385.78	3067.2	
385.98	2568.2	
386.19	4205.8	
386.39	4448.9	
386.6	2785.2	
386.8	2897.2	
387.01	4459.8	
387.21	4512.4	
387.42	3080.1	
387.62	3396.9	
387.83	4188.1	
388.03	4219.5	
388.23	2996.2	
388.44	3302.7	
388.64	4037.9	
388.85	3974.4	
389.05	3125.9	
389.26	3429.7	
389.46	5185.5	
389.67	4781.3	
389.87	3134.1	
390.07	3103.4	
390.28	4255.7	
390.48	3990.8	
390.69	2713.6	
390.89	2946.3	
391.1	4232.5	
391.3	4638.6	
391.5	3497.9	
391.71	3825.6	
391.91	4577.2	
392.12	4909.7	
392.32	3599.6	
392.53	3145.7	
392.73	4255	
392.93	4289.1	
393.14	2960.7	
393.34	3392.8	
393.55	4576.5	
393.75	4245.4	
393.95	2972.3	
394.16	2907.4	
394.36	4265.2	
394.57	4569	
394.77	2780.5	
394.98	2922.5	
395.18	4195.6	
395.38	4235.9	
395.59	3459.7	
395.79	2885.6	
396	4309.6	
396.2	4570.4	
396.4	3317	
396.61	3241.3	
396.81	4548.5	
397.02	4156	
397.22	3439.9	
397.42	3398.9	
397.63	4679.6	
397.83	4231.1	
398.04	2794.1	
398.24	3106.1	
398.44	4385.4	
398.65	3892.5	
398.85	2826.2	
399.05	2756.6	
399.26	4285	
399.46	5044.1	
399.67	3052.2	
399.87	2877.4	
400.07	4420.9	
400.28	4553.3	
400.48	2950.4	
400.69	3482.9	
400.89	4558.1	
401.09	4930.1	
401.3	2908.8	
401.5	3421.5	
401.7	5010.7	
401.91	5136.3	
402.11	3136.1	
402.32	3216	
402.52	4739	
402.72	4617.5	
402.93	3295.9	
403.13	2707.4	
403.33	5126.1	
403.54	4373.8	
403.74	3134.1	
403.94	3599.6	
404.15	4430.4	
404.35	5083.7	
404.56	3068.5	
404.76	3947.1	
404.96	4725.3	
405.17	4563.6	
405.37	3386	
405.57	3282.9	
405.78	4681.7	
405.98	4390.2	
406.18	3087.7	
406.39	3366.9	
406.59	4724.7	
406.79	4384.7	
407	2926.5	
407.2	2955.9	
407.4	4963.6	
407.61	4860.5	
407.81	3035.8	
408.01	4102.1	
408.22	4063.9	
408.42	5068.7	
408.62	3557.3	
408.83	3306.1	
409.03	4502.8	
409.23	4509.6	
409.44	3308.2	
409.64	3443.3	
409.84	5087.2	
410.05	5016.8	
410.25	3460.4	
410.45	3347.1	
410.66	4797.7	
410.86	6053.1	
411.06	3656.3	
411.27	3519.8	
411.47	5973.2	
411.67	4859.1	
411.88	3626.3	
412.08	3719.8	
412.28	5187.5	
412.49	5427.8	
412.69	3494.5	
412.89	3553.9	
413.09	5344.5	
413.3	5290.6	
413.5	3610.6	
413.7	3437.9	
413.91	4889.2	
414.11	5393	
414.31	3515.7	
414.52	3725.9	
414.72	5234.6	
414.92	5068	
415.12	3567.6	
415.33	3841.3	
415.53	5320.6	
415.73	5453.7	
415.94	4028.4	
416.14	3600.3	
416.34	4939	
416.55	4657.8	
416.75	4302.1	
416.95	4022.9	
417.15	5494.7	
417.36	5710.4	
417.56	4440	
417.76	3867.9	
417.97	5568.4	
418.17	5345.2	
418.37	3702.7	
418.57	3745.7	
418.78	5434.6	
418.98	5205.9	
419.18	4154.6	
419.38	4158.1	
419.59	5145.9	
419.79	4939	
419.99	3639.9	
420.2	3793.5	
420.4	5491.3	
420.6	5452.4	
420.8	3604.4	
421.01	3561.4	
421.21	5365	
421.41	5306.3	
421.61	3788.7	
421.82	3715	
422.02	5137	
422.22	5616.2	
422.42	4090.5	
422.63	3946.4	
422.83	5138.4	
423.03	5776.6	
423.23	3943.7	
423.44	3417.4	
423.64	5070.8	
423.84	4922.6	
424.04	3695.2	
424.25	3415.3	
424.45	5667.4	
424.65	5576.6	
424.85	3349.1	
425.06	3653.6	
425.26	5825.1	
425.46	5119.2	
425.66	3940.3	
425.87	3713	
426.07	5436	
426.27	5369.8	
426.47	3830.4	
426.67	3435.8	
426.88	5749.3	
427.08	5354.8	
427.28	3980.6	
427.48	3473.4	
427.69	4874.8	
427.89	5124.7	
428.09	3903.4	
428.29	3403	
428.5	5441.5	
428.7	5236.7	
428.9	3442.6	
429.1	3692.5	
429.3	5260.5	
429.51	5399.1	
429.71	3611.9	
429.91	4021.5	
430.11	5439.4	
430.31	5705	
430.52	3736.9	
430.72	3867.2	
430.92	5711.1	
431.12	5390.9	
431.32	3628.3	
431.53	3853.6	
431.73	4881	
431.93	5643.5	
432.13	3576.4	
432.33	3536.2	
432.54	5207.3	
432.74	5216.2	
432.94	3433.1	
433.14	3952.6	
433.34	5556.1	
433.55	5255.1	
433.75	3979.2	
433.95	4848.9	
434.15	5372.5	
434.35	5064.6	
434.56	3601	
434.76	3325.2	
434.96	5340.4	
435.16	5431.2	
435.36	3528	
435.56	4182.6	
435.77	5227.8	
435.97	5260.5	
436.17	4466.6	
436.37	4080.9	
436.57	5168.4	
436.78	5057.8	
436.98	4109.6	
437.18	4361.5	
437.38	5397.1	
437.58	5201.2	
437.78	4489.8	
437.99	3743.7	
438.19	5528.8	
438.39	5946.6	
438.59	3779.9	
438.79	3508.2	
438.99	5878.4	
439.2	5137.7	
439.4	3466.5	
439.6	3472	
439.8	5227.1	
440	5896.1	
440.2	4090.5	
440.4	4156	
440.61	5643.5	
440.81	5778.7	
441.01	3704.1	
441.21	4058.4	
441.41	5861.3	
441.61	5641.5	
441.81	4267.3	
442.02	4775.2	
442.22	6092	
442.42	5749.3	
442.62	3742.3	
442.82	3786.7	
443.02	6004.6	
443.22	5461.9	
443.43	4052.2	
443.63	3694.5	
443.83	5337.7	
444.03	5280.3	
444.23	4441.4	
444.43	4177.2	
444.63	5590.3	
444.83	6121.4	
445.04	3921.2	
445.24	4472.1	
445.44	5745.9	
445.64	5778.7	
445.84	4211.3	
446.04	4253.6	
446.24	5326.1	
446.44	5814.9	
446.65	3760.1	
446.85	3994.9	
447.05	5550	
447.25	5852.4	
447.45	4079.6	
447.65	3700.7	
447.85	5623	
448.05	5237.3	
448.25	4231.1	
448.46	4154.6	
448.66	5558.2	
448.86	5332.2	
449.06	3776.5	
449.26	4273.4	
449.46	5722	
449.66	5245.5	
449.86	4054.3	
450.06	3969.6	
450.26	5394.3	
450.47	5624.4	
450.67	4169	
450.87	4291.2	
451.07	5802.6	
451.27	5504.9	
451.47	3824.9	
451.67	4306.9	
451.87	5444.9	
452.07	6100.2	
452.27	3945.1	
452.47	3900	
452.67	5666.7	
452.88	5739.8	
453.08	3623.5	
453.28	4565.6	
453.48	6331.6	
453.68	5519.3	
453.88	3896.6	
454.08	3948.5	
454.28	5816.2	
454.48	5597.1	
454.68	4276.2	
454.88	4419.5	
455.08	5970.5	
455.28	5705.6	
455.48	3895.9	
455.68	4250.9	
455.89	6161.7	
456.09	5811.5	
456.29	4046.8	
456.49	4108.2	
456.69	6094.8	
456.89	5593	
457.09	4422.9	
457.29	4587.4	
457.49	5860.6	
457.69	5908.4	
457.89	4347.2	
458.09	3893.9	
458.29	5751.4	
458.49	6197.8	
458.69	4398.4	
458.89	4185.4	
459.09	6331.6	
459.29	6322.1	
459.49	4225	
459.69	4687.8	
459.9	6056.5	
460.1	5793	
460.3	4153.3	
460.5	4047.5	
460.7	6055.2	
460.9	5766.4	
461.1	4009.9	
461.3	4511	
461.5	6450.4	
461.7	6197.8	
461.9	4230.4	
462.1	4457.7	
462.3	5999.2	
462.5	6279.1	
462.7	4266.6	
462.9	4278.2	
463.1	6858	
463.3	6582.2	
463.5	4478.9	
463.7	4863.9	
463.9	6147.3	
464.1	6268.1	
464.3	4533.5	
464.5	4633.9	
464.7	6402.6	
464.9	6222.4	
465.1	5283.8	
465.3	4782	
465.5	6591	
465.7	6703	
465.9	5025	
466.1	4781.3	
466.3	6537.8	
466.5	6447.7	
466.7	5302.2	
466.9	4715.1	
467.1	6606.7	
467.3	6983.6	
467.5	5302.2	
467.7	4846.2	
467.9	7053.2	
468.1	7462.1	
468.3	5108.3	
468.5	5400.5	
468.7	6459.3	
468.9	6323.4	
469.1	4857.1	
469.3	5341.1	
469.5	7494.2	
469.7	6238.1	
469.9	5232.6	
470.1	4807.9	
470.3	6656.6	
470.5	6505.7	
470.7	5442.1	
470.9	4855.7	
471.1	6387.6	
471.3	6630.6	
471.5	4835.9	
471.69	5646.2	
471.89	6442.2	
472.09	6047	
472.29	5185.5	
472.49	5322.7	
472.69	6170.5	
472.89	6551.5	
473.09	4757.4	
473.29	4827.1	
473.49	6330.3	
473.69	6163.7	
473.89	5261.2	
474.09	4896.7	
474.29	6962.4	
474.49	6749.4	
474.69	5280.3	
474.89	4860.5	
475.09	6317.3	
475.29	6323.4	
475.49	4671.4	
475.69	4791.6	
475.88	7114	
476.08	6557.6	
476.28	4575.8	
476.48	4784.7	
476.68	6860	
476.88	6596.5	
477.08	4779.3	
477.28	4902.8	
477.48	6437.4	
477.68	6614.9	
477.88	4613.4	
478.08	4747.9	
478.28	6916.7	
478.48	6435.4	
478.67	4857.1	
478.87	4461.8	
479.07	6731.7	
479.27	6529.6	
479.47	4898.7	
479.67	4968.4	
479.87	6698.9	
480.07	6954.2	
480.27	4615.4	
480.47	5296.7	
480.67	6486.6	
480.87	6856.6	
481.06	4726.7	
481.26	5195	
481.46	6578.1	
481.66	6368.5	
481.86	4980.7	
482.06	5416.9	
482.26	6406.7	
482.46	6825.9	
482.66	4973.2	
482.86	4726.7	
483.05	6741.9	
483.25	6102.9	
483.45	6254.5	
483.65	4919.9	
483.85	6218.3	
484.05	6389	
484.25	5161.6	
484.45	5344.5	
484.65	6705.7	
484.84	6919.4	
485.04	4932.2	
485.24	4853.7	
485.44	7150.8	
485.64	6159.6	
485.84	4713.1	
486.04	5253	
486.24	6488	
486.44	6559	
486.63	4513.7	
486.83	5132.2	
487.03	6447.7	
487.23	6522.1	
487.43	4677.6	
487.63	5698.8	
487.83	6608.1	
488.02	6655.9	
488.22	5173.2	
488.42	5457.8	
488.62	7008.8	
488.82	6368.5	
489.02	4952.7	
489.22	4998.4	
489.41	6763.8	
489.61	6863.4	
489.81	4810	
490.01	4884.4	
490.21	6905.1	
490.41	7238.2	
490.61	4882.4	
490.8	4857.8	
491	6696.9	
491.2	6342.6	
491.4	5186.8	
491.6	4766.3	
491.8	6765.8	
491.99	6623.8	
492.19	4728.8	
492.39	4782	
492.59	6846.4	
492.79	7005.4	
492.99	5322.7	
493.18	4874.2	
493.38	7096.2	
493.58	7406.8	
493.78	5260.5	
493.98	4995	
494.18	6869.6	
494.37	6425.8	
494.57	5377.3	
494.77	5328.8	
494.97	7092.8	
495.17	7157.7	
495.37	5170.4	
495.56	5434.6	
495.76	7114	
495.96	7146	
496.16	5829.2	
496.36	5319.9	
496.55	7344	
496.75	6834.1	
496.95	5453.1	
497.15	5450.3	
497.35	7312.6	
497.54	7137.9	
497.74	5298.8	
497.94	6309.8	
498.14	7671.7	
498.34	7327.6	
498.53	5284.4	
498.73	5623	
498.93	6883.2	
499.13	7227.3	
499.33	5486.5	
499.52	5651.7	
499.72	7294.9	
499.92	7398.6	
500.12	5401.2	
500.32	5504.9	
500.51	7427.3	
500.71	7253.9	
500.91	5853.1	
501.11	5682.4	
501.31	7413.6	
501.5	7653.3	
501.7	6123.4	
501.9	5549.3	
502.1	7206.8	
502.29	7454.6	
502.49	5792.3	
502.69	5985.5	
502.89	7374.7	
503.09	7364.5	
503.28	5229.1	
503.48	5344.5	
503.68	7045.7	
503.88	6959	
504.07	5837.4	
504.27	5532.9	
504.47	7157	
504.67	7185	
504.86	5736.4	
505.06	5527.5	
505.26	7118.1	
505.46	7721.5	
505.65	5562.3	
505.85	5672.2	
506.05	6993.1	
506.25	7324.9	
506.44	5215.5	
506.64	5542.5	
506.84	6870.3	
507.04	7219.8	
507.23	5358.2	
507.43	5536.3	
507.63	7799.3	
507.83	6825.9	
508.02	5547.9	
508.22	5347.9	
508.42	8000	
508.62	6763.8	
508.81	5338.4	
509.01	5704.3	
509.21	6720.8	
509.4	6967.2	
509.6	5577.3	
509.8	5143.8	
510	6941.2	
510.19	7374.7	
510.39	5132.2	
510.59	5258.5	
510.79	6863.4	
510.98	7530.4	
511.18	5415.5	
511.38	5304.9	
511.57	7361.1	
511.77	7004.7	
511.97	5714.5	
512.17	5160.2	
512.36	7288	
512.56	7062.8	
512.76	5162.2	
512.95	5040.1	
513.15	7508.5	
513.35	6542.6	
513.55	5682.4	
513.74	5244.2	
513.94	7294.2	
514.14	6950.8	
514.33	5748	
514.53	5590.3	
514.73	7068.2	
514.92	7024.5	
515.12	5266.7	
515.32	5225.7	
515.51	7109.9	
515.71	7196.6	
515.91	6214.9	
516.11	5288.5	
516.3	8013.7	
516.5	6924.9	
516.7	5630.5	
516.89	5859.2	
517.09	7002.7	
517.29	7036.8	
517.48	5679	
517.68	5418.2	
517.88	6709.1	
518.07	7265.5	
518.27	5761.6	
518.47	5233.2	
518.66	7522.9	
518.86	6789	
519.06	5171.8	
519.25	5360.2	
519.45	7018.4	
519.65	7699.7	
519.84	5739.1	
520.04	6165.1	
520.24	7974.8	
520.43	7262.1	
520.63	5629.2	
520.83	5520	
521.02	7021.8	
521.22	7176.8	
521.42	5712.5	
521.61	5991.7	
521.81	7013.6	
522.01	7158.3	
522.2	5644.2	
522.4	5517.2	
522.6	7442.3	
522.79	6689.3	
522.99	5612.8	
523.18	5246.9	
523.38	7310.6	
523.58	7251.9	
523.77	6168.5	
523.97	5224.4	
524.17	8191.2	
524.36	7841	
524.56	6042.2	
524.76	5930.2	
524.95	7320.1	
525.15	7137.9	
525.34	5791.7	
525.54	5829.2	
525.74	7587	
525.93	7051.2	
526.13	6496.2	
526.33	5907	
526.52	7875.8	
526.72	7426.6	
526.91	6520	
527.11	6145.3	
527.31	7749.5	
527.5	7937.2	
527.7	6040.8	
527.89	5562.3	
528.09	7305.1	
528.29	7542.7	
528.48	6270.9	
528.68	6019.7	
528.87	7777.5	
529.07	7826	
529.27	6108.4	
529.46	5908.4	
529.66	7692.2	
529.85	7855.3	
530.05	5773.9	
530.25	6098.2	
530.44	8428.1	
530.64	7465.5	
530.83	5981.4	
531.03	6087.2	
531.23	7933.1	
531.42	7711.3	
531.62	6494.1	
531.81	6056.5	
532.01	7952.3	
532.21	8065.6	
532.4	6001.9	
532.6	6227.2	
532.79	8480	
532.99	8003.5	
533.18	6238.8	
533.38	6765.8	
533.58	7825.3	
533.77	8105.2	
533.97	6282.5	
534.16	6720.8	
534.36	8404.2	
534.55	7865.6	
534.75	6788.3	
534.95	6322.1	
535.14	8321.6	
535.34	7817.1	
535.53	6132.3	
535.73	7090.8	
535.92	8561.9	
536.12	7811	
536.31	6219.7	
536.51	6824.5	
536.71	8221.9	
536.9	7891.5	
537.1	6197.8	
537.29	6407.4	
537.49	8281.3	
537.68	7780.9	
537.88	6618.4	
538.07	6106.4	
538.27	7979.6	
538.46	8456.1	
538.66	6032.6	
538.86	6266.1	
539.05	8047.2	
539.25	8250.6	
539.44	6546	
539.64	6240.2	
539.83	7922.9	
540.03	8412.4	
540.22	6176.7	
540.42	6267.5	
540.61	8061.5	
540.81	8052.6	
541	6363.7	
541.2	6736.5	
541.39	7647.1	
541.59	7866.2	
541.78	6675.7	
541.98	6181.5	
542.18	7578.2	
542.37	7574.1	
542.57	6346.7	
542.76	6650.4	
542.96	7641	
543.15	7922.9	
543.35	6306.4	
543.54	6041.5	
543.74	7561.8	
543.93	7841	
544.13	6248.4	
544.32	6801.3	
544.52	7977.5	
544.71	7537.2	
544.91	5794.4	
545.1	6368.5	
545.3	7631.4	
545.49	7828.7	
545.69	5782.8	
545.88	6096.1	
546.08	8389.8	
546.27	8060.1	
546.47	6346	
546.66	5924.8	
546.86	8008.2	
547.05	8174.1	
547.24	6021.7	
547.44	5922.7	
547.63	7482.6	
547.83	7935.2	
548.02	6210.1	
548.22	6186.2	
548.41	7281.9	
548.61	8027.4	
548.8	5873.6	
549	5914.5	
549.19	7759.8	
549.39	7856.7	
549.58	5793.7	
549.78	6022.4	
549.97	7816.4	
550.17	7505.1	
550.36	6503	
550.55	6889.4	
550.75	7540.6	
550.94	7980.9	
551.14	5826.5	
551.33	6050.4	
551.53	7103.7	
551.72	7746.1	
551.92	6010.1	
552.11	5963	
552.31	7819.1	
552.5	7702.4	
552.69	6848.4	
552.89	5712.5	
553.08	7793.2	
553.28	7519.5	
553.47	5931.6	
553.67	6404.7	
553.86	8034.2	
554.06	7210.9	
554.25	5465.3	
554.44	5803.3	
554.64	8363.9	
554.83	8162.5	
555.03	5797.1	
555.22	5942.5	
555.42	7909.3	
555.61	7725.6	
555.8	5867.4	
556	5939.8	
556.19	7343.3	
556.39	7653.9	
556.58	5818.3	
556.78	5828.5	
556.97	7565.9	
557.16	7436.2	
557.36	6464.1	
557.55	5668.1	
557.75	7050.5	
557.94	8092.9	
558.13	5697.4	
558.33	5567.7	
558.52	7927	
558.72	7093.5	
558.91	5607.3	
559.1	5735.7	
559.3	7143.3	
559.49	6967.2	
559.69	5614.2	
559.88	5910.4	
560.07	7518.1	
560.27	7677.2	
560.46	6062.7	
560.66	6049.7	
560.85	7457.3	
561.04	6886	
561.24	5594.4	
561.43	5655.8	
561.63	7060.7	
561.82	7237.5	
562.01	6349.4	
562.21	5795.1	
562.4	7453.2	
562.59	7919.5	
562.79	5823.1	
562.98	5514.5	
563.18	7359	
563.37	8140	
563.56	5921.4	
563.76	5646.2	
563.95	7177.4	
564.14	7196.6	
564.34	5871.5	
564.53	5695.4	
564.73	7557	
564.92	7479.9	
565.11	5879	
565.31	5471.5	
565.5	7792.5	
565.69	6969.9	
565.89	5754.8	
566.08	5735	
566.27	7613.7	
566.47	7852.6	
566.66	6191.7	
566.85	5472.2	
567.05	7509.9	
567.24	7190.4	
567.44	5616.9	
567.63	6352.1	
567.82	7617.8	
568.02	7396.6	
568.21	5558.2	
568.4	5812.1	
568.6	7333.1	
568.79	7273	
568.98	5611.4	
569.18	5574.6	
569.37	7370.6	
569.56	8312	
569.76	5924.8	
569.95	6245.6	
570.14	7586.4	
570.34	7410.9	
570.53	5584.1	
570.72	5547.9	
570.91	7731.1	
571.11	7390.4	
571.3	5756.8	
571.49	6242.9	
571.69	7428	
571.88	7083.2	
572.07	6025.1	
572.27	6028.5	
572.46	7026.6	
572.65	7609.6	
572.85	5664	
573.04	5837.4	
573.23	7773.4	
573.43	7421.8	
573.62	5608.7	
573.81	5814.2	
574	7467.6	
574.2	7320.1	
574.39	5788.2	
574.58	5796.4	
574.78	7767.9	
574.97	7538.6	
575.16	6012.8	
575.36	6169.2	
575.55	7752.9	
575.74	7696.9	
575.93	5517.9	
576.13	6032.6	
576.32	7407.5	
576.51	7589.1	
576.71	5816.9	
576.9	6487.3	
577.09	7934.5	
577.28	7547.4	
577.48	6008.1	
577.67	5507.7	
577.86	7429.3	
578.05	7599.3	
578.25	5866.1	
578.44	5937.7	
578.63	7501.7	
578.83	8158.4	
579.02	5561.6	
579.21	6410.1	
579.4	7593.9	
579.6	7456.7	
579.79	5990.3	
579.98	7075.7	
580.17	7711.3	
580.37	7839.6	
580.56	5597.8	
580.75	6111.8	
580.94	7768.6	
581.14	7970.7	
581.33	6348	
581.52	5715.9	
581.71	7660.8	
581.91	8051.9	
582.1	5712.5	
582.29	5871.5	
582.48	7480.5	
582.68	7445	
582.87	6149.4	
583.06	5918.6	
583.25	7788.4	
583.45	7602.7	
583.64	6346.7	
583.83	6655.9	
584.02	7542.7	
584.21	7735.2	
584.41	6328.9	
584.6	5981.4	
584.79	7598.6	
584.98	7752.9	
585.18	5782.1	
585.37	5638.7	
585.56	7419.1	
585.75	7680.6	
585.94	5808	
586.14	6131.6	
586.33	7933.8	
586.52	7462.8	
586.71	5967.1	
586.91	5868.8	
587.1	7174.7	
587.29	7733.8	
587.48	5788.2	
587.67	5743.2	
587.87	7673.7	
588.06	7477.8	
588.25	6406	
588.44	6044.2	
588.63	7373.4	
588.83	7542	
589.02	5762.3	
589.21	5558.2	
589.4	7322.2	
589.59	7177.4	
589.78	5261.2	
589.98	5349.3	
590.17	6871.6	
590.36	6963.8	
590.55	4874.2	
590.74	5329.5	
590.94	7621.9	
591.13	6896.2	
591.32	5208	
591.51	4941.7	
591.7	6992.4	
591.89	6780.1	
592.09	5046.9	
592.28	5238	
592.47	6356.9	
592.66	7561.1	
592.85	4960.9	
593.05	5136.3	
593.24	6810.9	
593.43	7404.1	
593.62	5205.3	
593.81	5421	
594	6931	
594.19	6939.9	
594.39	5164.3	
594.58	5091.3	
594.77	7077.8	
594.96	7288	
595.15	5169.1	
595.34	5394.3	
595.54	6862.1	
595.73	6547.4	
595.92	4822.3	
596.11	5255.1	
596.3	7299	
596.49	6547.4	
596.68	5272.8	
596.88	5385.5	
597.07	7036.1	
597.26	6517.3	
597.45	5031.9	
597.64	5496.1	
597.83	6667.5	
598.02	6983.6	
598.22	5023	
598.41	5367	
598.6	6861.4	
598.79	6533	
598.98	5025.7	
599.17	5557.5	
599.36	6936.5	
599.55	7412.3	
599.74	6046.3	
599.94	6029.9	
600.13	7240.3	
600.32	6597.9	
600.51	4900.8	
600.7	4955.4	
600.89	7490.8	
601.08	7518.1	
601.27	4912.4	
601.47	5332.2	
601.66	7092.1	
601.85	7382.2	
602.04	5347.9	
602.23	5328.1	
602.42	6604.7	
602.61	6948.8	
602.8	5235.3	
602.99	5036.6	
603.18	6803.4	
603.37	6817	
603.57	5390.9	
603.76	5665.4	
603.95	7342	
604.14	7053.2	
604.33	5202.5	
604.52	5253	
604.71	7000.6	
604.9	6587.6	
605.09	5668.1	
605.28	5382.1	
605.47	7238.2	
605.66	6929	
605.86	5438	
606.05	5134.9	
606.24	7312.6	
606.43	6397.9	
606.62	5371.8	
606.81	5687.9	
607	7187	
607.19	6668.9	
607.38	4937	
607.57	5107.6	
607.76	6532.3	
607.95	6324.1	
608.14	5361.6	
608.33	5572.5	
608.52	6567.2	
608.72	7055.3	
608.91	4904.9	
609.1	4863.2	
609.29	6735.1	
609.48	6380.1	
609.67	5300.8	
609.86	4893.3	
610.05	6500.9	
610.24	6568.5	
610.43	4973.2	
610.62	4628.4	
610.81	7161.1	
611	7026.6	
611.19	4872.8	
611.38	5269.4	
611.57	6849.1	
611.76	7301	
611.95	4784.7	
612.14	4725.3	
612.33	6603.3	
612.52	6445.6	
612.71	5071.5	
612.9	4734.2	
613.09	6225.1	
613.28	7467.6	
613.47	4996.4	
613.66	5422.3	
613.85	6821.1	
614.04	6376.7	
614.24	4991.6	
614.43	4544.4	
614.62	6803.4	
614.81	6831.3	
615	5208.7	
615.19	5202.5	
615.38	6462.7	
615.57	6703.7	
615.76	5196.4	
615.95	5677.7	
616.14	6765.8	
616.33	6610.8	
616.52	5342.5	
616.71	5395	
616.9	6854.6	
617.09	6668.9	
617.28	5111.7	
617.47	5556.1	
617.66	6408.8	
617.85	6422.4	
618.04	5409.4	
618.22	5153.4	
618.41	6525.5	
618.6	7023.9	
618.79	5186.1	
618.98	5047.6	
619.17	7160.4	
619.36	6179.4	
619.55	5210	
619.74	5145.2	
619.93	6812.9	
620.12	6421.1	
620.31	5500.2	
620.5	5491.3	
620.69	7169.3	
620.88	7385.7	
621.07	5853.1	
621.26	5337	
621.45	6894.8	
621.64	6941.9	
621.83	5477.6	
622.02	5080.3	
622.21	6913.9	
622.4	6803.4	
622.59	5729.5	
622.78	5640.8	
622.97	6660.7	
623.16	7149.5	
623.35	5462.6	
623.54	5006.6	
623.72	6778.1	
623.91	6846.4	
624.1	5576.6	
624.29	4877.6	
624.48	7420.5	
624.67	7046.4	
624.86	5501.5	
625.05	5017.5	
625.24	7408.9	
625.43	6627.2	
625.62	6285.2	
625.81	5142.4	
626	7101.7	
626.19	6831.3	
626.38	5464	
626.56	5222.3	
626.75	6592.4	
626.94	7017	
627.13	5510.4	
627.32	4807.3	
627.51	7049.1	
627.7	7434.1	
627.89	4943.1	
628.08	5447.6	
628.27	6541.2	
628.46	6644.3	
628.65	4986.8	
628.83	4859.8	
629.02	6960.4	
629.21	6518.7	
629.4	5276.9	
629.59	5368.4	
629.78	6530.3	
629.97	6915.3	
630.16	5380.7	
630.35	5099.4	
630.54	7395.9	
630.72	7147.4	
630.91	5180.7	
631.1	5398.4	
631.29	6721.4	
631.48	6707.8	
631.67	5504.9	
631.86	5081	
632.05	6716	
632.24	6679.8	
632.42	5043.5	
632.61	5238.7	
632.8	6595.8	
632.99	6445.6	
633.18	5266.7	
633.37	5474.9	
633.56	6858	
633.75	6755.6	
633.93	5316.5	
634.12	5227.1	
634.31	7342	
634.5	6961.7	
634.69	5182.7	
634.88	5451.7	
635.07	6711.9	
635.25	7033.4	
635.44	5644.2	
635.63	5638.7	
635.82	6696.2	
636.01	5906.3	
636.2	5573.9	
636.39	5397.8	
636.57	7270.3	
636.76	6907.1	
636.95	5066	
637.14	5737.7	
637.33	6872.3	
637.52	7242.3	
637.7	4937	
637.89	5577.3	
638.08	6738.5	
638.27	7324.9	
638.46	5498.8	
638.65	5640.8	
638.83	7400.7	
639.02	6579.4	
639.21	5497.4	
639.4	5608	
639.59	6687.3	
639.78	6582.9	
639.96	4962.2	
640.15	5096	
640.34	6720.1	
640.53	6634.1	
640.72	4891.2	
640.91	5066.7	
641.09	6341.9	
641.28	7074.4	
641.47	5216.2	
641.66	5396.4	
641.85	6722.1	
642.03	6780.8	
642.22	5254.4	
642.41	5059.8	
642.6	6361	
642.79	6054.5	
642.97	4906.3	
643.16	5237.3	
643.35	6324.1	
643.54	6251.1	
643.73	4835.3	
643.91	5248.3	
644.1	6171.9	
644.29	6556.2	
644.48	4893.3	
644.67	4930.1	
644.85	6031.3	
645.04	6569.2	
645.23	4560.1	
645.42	4928.1	
645.6	6201.2	
645.79	6812.2	
645.98	4664.6	
646.17	4323.9	
646.36	5877	
646.54	6172.6	
646.73	5134.9	
646.92	4500.1	
647.11	5951.4	
647.29	6541.9	
647.48	4472.1	
647.67	4432.5	
647.86	6716	
648.05	6591	
648.23	4614.8	
648.42	5293.3	
648.61	6406	
648.8	6213.5	
648.98	4442	
649.17	4670.1	
649.36	6081.1	
649.55	5730.2	
649.73	4539.7	
649.92	4883	
650.11	5890	
650.3	6156.9	
650.48	4584	
650.67	4519.9	
650.86	6301.6	
651.05	5678.3	
651.23	4542.4	
651.42	4496	
651.61	5976	
651.79	5827.8	
651.98	4630.5	
652.17	4408.6	
652.36	6167.8	
652.54	5679	
652.73	4513	
652.92	4455	
653.11	6191	
653.29	6273.6	
653.48	4164.9	
653.67	4534.2	
653.85	5993.7	
654.04	6597.9	
654.23	4669.4	
654.42	4463.2	
654.6	5788.9	
654.79	6108.4	
654.98	4150.6	
655.16	4519.9	
655.35	5608.7	
655.54	5346.6	
655.73	4130.8	
655.91	4108.2	
656.1	5995.8	
656.29	5384.8	
656.47	3956.7	
656.66	4817.5	
656.85	5737	
657.03	5603.9	
657.22	4311.7	
657.41	4233.2	
657.59	5666	
657.78	5603.9	
657.97	4044.7	
658.16	4369	
658.34	6140.5	
658.53	6305	
658.72	4917.2	
658.9	5132.2	
659.09	5889.3	
659.28	5872.9	
659.46	4341.7	
659.65	4257.7	
659.84	5676.3	
660.02	6098.2	
660.21	4358.1	
660.4	4248.2	
660.58	6172.6	
660.77	5798.5	
660.96	4605.2	
661.14	4047.5	
661.33	6477.7	
661.52	6379.4	
661.7	4015.4	
661.89	5694	
662.08	5728.9	
662.26	5316.5	
662.45	4168.3	
662.64	4298.7	
662.82	6079.7	
663.01	5550	
663.2	4252.9	
663.38	4578.6	
663.57	5950.7	
663.75	5870.8	
663.94	4459.1	
664.13	5049.6	
664.31	5636.7	
664.5	5981.4	
664.69	4502.1	
664.87	4766.3	
665.06	5522.7	
665.25	5782.1	
665.43	4939.7	
665.62	4894	
665.8	5950.7	
665.99	5674.9	
666.18	4431.8	
666.36	4413.4	
666.55	6064	
666.74	5958.9	
666.92	4257	
667.11	5044.1	
667.29	5778.7	
667.48	5961.6	
667.67	4793.6	
667.85	4347.8	
668.04	5631.9	
668.22	5651.7	
668.41	4448.9	
668.6	4642.7	
668.78	5646.9	
668.97	5651	
669.15	4599.1	
669.34	4006.5	
669.53	5631.2	
669.71	5666	
669.9	4108.2	
670.08	4458.4	
670.27	5467.4	
670.46	5926.1	
670.64	4562.2	
670.83	4687.8	
671.01	5423.7	
671.2	5707.7	
671.38	4242.7	
671.57	4140.3	
671.76	6135	
671.94	6322.8	
672.13	4086.4	
672.31	4605.9	
672.5	6012.2	
672.69	5527.5	
672.87	4153.3	
673.06	4397	
673.24	5826.5	
673.43	5638.7	
673.61	4452.3	
673.8	4294.6	
673.98	5815.5	
674.17	5942.5	
674.36	4645.5	
674.54	4558.1	
674.73	5541.8	
674.91	6059.9	
675.1	4327.4	
675.28	4151.2	
675.47	5687.2	
675.65	5930.2	
675.84	4392.9	
676.03	4442.7	
676.21	5537	
676.4	5257.1	
676.58	4642.1	
676.77	4545.1	
676.95	6382.8	
677.14	5532.9	
677.32	4066.6	
677.51	4050.9	
677.69	5942.5	
677.88	5494	
678.06	4117.1	
678.25	4213.4	
678.44	5612.8	
678.62	5477.6	
678.81	4092.5	
678.99	4481	
679.18	6122.7	
679.36	5806	
679.55	4304.1	
679.73	4579.3	
679.92	5806	
680.1	5559.6	
680.29	4904.9	
680.47	4190.1	
680.66	5578.7	
680.84	5969.1	
681.03	4007.2	
681.21	4618.2	
681.4	5298.1	
681.58	5468.1	
681.77	4162.2	
681.95	4123.2	
682.14	6019	
682.32	6108.4	
682.51	4622.9	
682.69	3997	
682.88	5538.4	
683.06	5695.4	
683.25	4456.4	
683.43	4591.5	
683.62	5778	
683.8	5849.7	
683.99	4729.4	
684.17	4339	
684.36	6258.6	
684.54	5537.7	
684.73	3975.8	
684.91	3941.7	
685.1	5754.1	
685.28	5303.6	
685.46	4309.6	
685.65	4283.7	
685.83	5662.6	
686.02	5376.6	
686.2	3971.7	
686.39	4054.3	
686.57	5175.2	
686.76	5931.6	
686.94	3985.3	
687.13	4061.8	
687.31	5595.7	
687.5	5494.7	
687.68	3781.9	
687.86	4316.4	
688.05	6388.3	
688.23	5091.3	
688.42	4371	
688.6	4018.8	
688.79	5410.7	
688.97	5416.9	
689.16	4246.1	
689.34	3710.9	
689.52	5722	
689.71	6001.2	
689.89	4375.1	
690.08	4048.2	
690.26	5584.8	
690.45	5360.2	
690.63	4437.3	
690.81	4188.8	
691	5576.6	
691.18	5347.9	
691.37	4182	
691.55	5320.6	
691.74	5380.7	
691.92	6372.6	
692.1	4086.4	
692.29	4005.1	
692.47	5644.2	
692.66	5115.8	
692.84	4021.5	
693.02	4237.9	
693.21	5109	
693.39	5486.5	
693.58	4330.1	
693.76	3944.4	
693.94	6033.3	
694.13	5900.2	
694.31	4098	
694.5	4605.9	
694.68	5363.6	
694.86	5633.3	
695.05	4251.6	
695.23	4528.1	
695.42	5743.9	
695.6	6935.1	
695.78	4591.5	
695.97	4166.3	
696.15	5863.3	
696.34	5470.8	
696.52	4039.3	
696.7	4493.9	
696.89	5652.4	
697.07	5365	
697.25	4367	
697.44	5079	
697.62	5732.3	
697.81	5649.7	
697.99	4313	
698.17	4465.9	
698.36	5425.8	
698.54	5702.9	
698.72	4413.4	
698.91	3900.7	
699.09	5519.3	
699.28	5312.4	
699.46	4276.8	
699.64	4162.8	
699.83	5448.3	
700.01	5775.3	
700.19	4625.7	
700.38	3753.9	
700.56	5853.1	
700.74	5416.2	
700.93	3908.9	
701.11	4402.5	
701.29	5765.7	
701.48	6280.4	
701.66	4119.8	
701.84	4219.5	
702.03	5524.7	
702.21	5982.8	
702.39	4058.4	
702.58	4265.2	
702.76	5858.6	
702.94	5795.1	
703.13	3904.8	
703.31	5156.1	
703.49	5516.5	
703.68	6150.7	
703.86	4056.3	
704.04	4607.9	
704.23	5792.3	
704.41	5919.3	
704.59	4218.1	
704.78	4790.2	
704.96	6582.2	
705.14	5841.5	
705.33	4120.5	
705.51	4401.8	
705.69	5576.6	
705.87	5956.9	
706.06	4663.2	
706.24	4040.6	
706.42	5795.1	
706.61	5887.2	
706.79	4636.6	
706.97	4017.4	
707.16	5528.8	
707.34	5771.9	
707.52	4583.4	
707.7	4218.8	
707.89	5413.5	
708.07	5413.5	
708.25	4690.5	
708.44	4812	
708.62	5481	
708.8	6137.8	
708.98	4760.2	
709.17	4210.6	
709.35	5719.3	
709.53	5711.8	
709.72	4052.2	
709.9	4176.5	
710.08	5993	
710.26	5956.2	
710.45	4975.9	
710.63	4263.2	
710.81	5689.9	
710.99	5702.2	
711.18	4634.6	
711.36	4285	
711.54	5628.5	
711.72	6027.9	
711.91	4416.1	
712.09	4089.1	
712.27	5754.8	
712.45	6196.5	
712.64	4454.3	
712.82	3933.5	
713	5468.8	
713.18	5497.4	
713.37	3923.9	
713.55	4634.6	
713.73	5917.9	
713.91	5229.8	
714.1	4075.5	
714.28	3808.5	
714.46	5621	
714.64	5138.4	
714.83	3463.8	
715.01	3836.5	
715.19	5304.2	
715.37	4788.8	
715.55	3664.5	
715.74	3799.7	
715.92	5538.4	
716.1	4459.8	
716.28	4376.5	
716.47	3868.6	
716.65	4990.2	
716.83	4967	
717.01	3762.1	
717.19	3726.6	
717.38	5923.4	
717.56	4719.2	
717.74	3872	
717.92	3482.2	
718.1	5416.2	
718.29	5100.1	
718.47	3296.5	
718.65	3581.2	
718.83	5496.7	
719.01	5437.4	
719.2	3308.2	
719.38	3849.5	
719.56	5256.5	
719.74	6129.6	
719.92	3802.4	
720.11	4231.8	
720.29	5390.3	
720.47	4878.3	
720.65	3528.7	
720.83	3886.4	
721.02	5081.7	
721.2	4926	
721.38	3895.2	
721.56	3497.9	
721.74	4640.7	
721.92	4669.4	
722.11	4178.5	
722.29	3965.6	
722.47	5393.7	
722.65	4957.4	
722.83	3487	
723.01	3929.4	
723.2	4903.5	
723.38	5143.1	
723.56	3236.5	
723.74	3809.9	
723.92	4620.9	
724.1	5199.1	
724.29	3419.4	
724.47	4057	
724.65	4844.8	
724.83	4681.7	
725.01	3416.7	
725.19	3815.4	
725.37	4707.6	
725.56	4655.7	
725.74	3354.6	
725.92	3486.3	
726.1	4688.5	
726.28	4947.9	
726.46	3620.1	
726.64	3525.2	
726.83	4995	
727.01	5006.6	
727.19	3380.5	
727.37	3792.2	
727.55	5047.6	
727.73	5208.7	
727.91	3282.9	
728.09	3226.2	
728.28	5262.6	
728.46	5366.4	
728.64	3736.2	
728.82	3728	
729	5777.3	
729.18	5481	
729.36	3373	
729.54	4588.8	
729.72	5950	
729.91	5057.8	
730.09	4470	
730.27	3771	
730.45	5127.4	
730.63	5425.1	
730.81	4111	
730.99	3670	
731.17	5804.6	
731.35	4945.2	
731.53	3882.3	
731.71	3760.8	
731.9	5578.7	
732.08	5475.6	
732.26	3833.1	
732.44	3629.7	
732.62	5712.5	
732.8	5359.5	
732.98	4121.2	
733.16	3544.4	
733.34	5444.9	
733.52	4569.7	
733.7	3801.7	
733.88	3852.2	
734.07	5311.7	
734.25	5167.7	
734.43	3519.8	
734.61	4287.1	
734.79	6004	
734.97	5140.4	
735.15	3636.5	
735.33	3820.1	
735.51	5305.6	
735.69	5119.9	
735.87	4476.9	
736.05	3873.4	
736.23	5196.4	
736.41	4959.5	
736.59	3863.2	
736.77	3822.9	
736.95	5429.8	
737.13	5126.7	
737.32	3661.1	
737.5	3728	
737.68	5828.5	
737.86	5018.9	
738.04	3553.2	
738.22	4463.9	
738.4	5016.2	
738.58	5203.2	
738.76	3803.8	
738.94	3335.5	
739.12	5059.2	
739.3	5016.8	
739.48	4096.6	
739.66	3974.4	
739.84	5145.2	
740.02	5160.9	
740.2	3425.6	
740.38	3502.7	
740.56	5382.7	
740.74	4631.1	
740.92	3892.5	
741.1	3785.3	
741.28	5057.8	
741.46	4842.1	
741.64	3627.6	
741.82	3906.8	
742	5104.9	
742.18	4988.2	
742.36	3715	
742.54	3489.7	
742.72	5395.7	
742.9	4627.7	
743.08	3910.9	
743.26	3216	
743.44	5320.6	
743.62	5322.7	
743.8	3997	
743.98	3458.3	
744.16	5162.2	
744.34	4959.5	
744.52	3894.6	
744.7	3919.8	
744.88	5262.6	
745.06	4931.5	
745.24	3870.7	
745.42	3920.5	
745.6	5335.6	
745.78	5270.8	
745.96	3270.6	
746.14	3443.3	
746.32	5661.3	
746.5	5084.4	
746.68	3647.4	
746.86	3364.8	
747.03	5324	
747.21	4575.8	
747.39	3725.3	
747.57	3403	
747.75	4986.8	
747.93	5167	
748.11	3362.8	
748.29	3395.5	
748.47	5886.5	
748.65	4769	
748.83	3808.5	
749.01	3619.4	
749.19	5143.8	
749.37	4620.2	
749.55	3605.1	
749.73	3621.5	
749.91	5076.2	
750.09	4858.5	
750.26	3648.1	
750.44	3341.6	
750.62	4933.6	
750.8	4846.2	
750.98	3258.3	
751.16	3405.1	
751.34	5039.4	
751.52	4631.8	
751.7	3830.4	
751.88	3164.1	
752.06	5272.2	
752.24	5111.7	
752.42	3252.2	
752.59	3351.2	
752.77	4932.2	
752.95	5539.1	
753.13	3747.8	
753.31	3370.3	
753.49	4756.1	
753.67	4936.3	
753.85	3558	
754.03	3360.7	
754.21	5147.2	
754.38	5250.3	
754.56	3390.1	
754.74	2933.4	
754.92	4695.3	
755.1	4914.4	
755.28	2881.5	
755.46	2885.6	
755.64	5401.2	
755.82	5423.7	
755.99	3009.1	
756.17	2973	
756.35	4012.7	
756.53	4743.8	
756.71	2373.6	
756.89	3033	
757.07	4502.8	
757.25	4058.4	
757.42	3109.5	
757.6	3575.8	
757.78	4573.8	
757.96	4144.4	
758.14	2996.2	
758.32	2724.5	
758.5	3843.4	
758.67	4296	
758.85	2929.3	
759.03	2975	
759.21	4386.1	
759.39	4068.6	
759.57	2667.8	
759.75	3236.5	
759.92	4851.6	
760.1	4511	
760.28	3396.2	
760.46	3570.3	
760.64	4343.1	
760.82	4232.5	
760.99	3401	
761.17	3007.1	
761.35	4809.3	
761.53	4158.7	
761.71	3153.9	
761.89	3398.3	
762.06	4647.5	
762.24	4449.6	
762.42	3132	
762.6	2994.8	
762.78	4408.6	
762.96	4713.1	
763.13	3399.6	
763.31	3096.5	
763.49	4838	
763.67	4439.3	
763.85	3591.5	
764.02	3896.6	
764.2	5059.2	
764.38	4396.3	
764.56	3127.2	
764.74	3547.1	
764.91	5000.5	
765.09	4378.6	
765.27	3006.4	
765.45	2808.4	
765.63	5185.5	
765.8	4945.8	
765.98	2804.4	
766.16	2902	
766.34	4176.5	
766.52	4096.6	
766.69	3351.8	
766.87	2790.7	
767.05	4455.7	
767.23	4872.1	
767.41	2944.3	
767.58	3121.8	
767.76	4715.1	
767.94	4786.8	
768.12	3037.1	
768.29	3274	
768.47	4321.9	
768.65	4860.5	
768.83	2827.6	
769	3357.3	
769.18	4203.8	
769.36	4502.1	
769.54	3356.6	
769.72	2790.7	
769.89	4823.6	
770.07	4769	
770.25	3025.5	
770.43	3684.3	
770.6	5140.4	
770.78	5245.5	
770.96	3089	
771.14	3374.4	
771.31	4727.4	
771.49	4370.4	
771.67	2628.9	
771.85	2730.6	
772.02	4003.1	
772.2	4284.4	
772.38	3081.5	
772.55	2826.2	
772.73	4508.9	
772.91	4375.8	
773.09	3029.6	
773.26	3137.5	
773.44	4521.2	
773.62	4441.4	
773.8	2832.3	
773.97	2639.8	
774.15	4487.1	
774.33	4375.8	
774.5	2738.8	
774.68	2895.1	
774.86	4556	
775.04	4342.4	
775.21	2803.7	
775.39	2691.7	
775.57	4448.9	
775.74	4614.8	
775.92	2609.8	
776.1	2585.2	
776.27	4391.5	
776.45	5041.4	
776.63	2795.5	
776.81	2594.1	
776.98	4320.5	
777.16	4781.3	
777.34	2863.1	
777.51	3003	
777.69	4311.7	
777.87	4113	
778.04	2949.1	
778.22	3076.7	
778.4	4123.9	
778.57	4443.4	
778.75	2508.1	
778.93	2616.6	
779.1	4083.6	
779.28	3933.5	
779.46	2501.9	
779.64	2678.1	
779.81	4638	
779.99	4976.6	
780.17	3091.1	
780.34	3226.2	
780.52	4266.6	
780.69	4345.1	
780.87	2915.6	
781.05	2697.2	
781.22	4397	
781.4	4290.5	
781.58	2763.4	
781.75	2288.3	
781.93	4324.6	
782.11	3926.6	
782.28	3160.7	
782.46	2751.1	
782.64	3881.6	
782.81	4396.3	
782.99	2827.6	
783.17	2758.6	
783.34	4278.9	
783.52	4013.3	
783.69	2762.7	
783.87	3211.9	
784.05	4070	
784.22	3999.7	
784.4	3244.7	
784.58	2920.4	
784.75	4567.7	
784.93	4160.8	
785.1	2694.4	
785.28	3001	
785.46	4473.4	
785.63	3914.4	
785.81	2782.5	
785.99	2613.2	
786.16	4207.9	
786.34	4271.4	
786.51	2656.9	
786.69	2918.4	
786.87	3829	
787.04	4123.9	
787.22	2669.9	
787.39	3052.8	
787.57	4030.4	
787.75	4530.8	
787.92	3229	
788.1	3122.5	
788.27	3937.6	
788.45	3681.6	
788.63	2925.2	
788.8	2315.6	
788.98	4317.1	
789.15	3696.6	
789.33	2465.8	
789.5	2648.7	
789.68	4479.6	
789.86	4481.6	
790.03	2934.1	
790.21	2617.3	
790.38	4564.9	
790.56	4097.3	
790.73	2656.2	
790.91	2526.5	
791.09	4014.7	
791.26	4336.2	
791.44	2732	
791.61	2410.5	
791.79	4037.9	
791.96	3917.1	
792.14	2484.2	
792.32	2346.3	
792.49	3948.5	
792.67	4034.5	
792.84	2553.8	
793.02	2470.5	
793.19	4314.4	
793.37	4476.9	
793.54	2303.3	
793.72	2480.8	
793.89	4629.1	
794.07	3940.3	
794.25	2799.6	
794.42	2301.2	
794.6	4479.6	
794.77	4263.2	
794.95	2909.5	
795.12	2626.9	
795.3	3986	
795.47	4222.9	
795.65	2820.7	
795.82	2671.2	
796	3902.7	
796.17	4762.2	
796.35	2678.7	
796.52	3041.2	
796.7	4259.8	
796.87	4353.3	
797.05	2665.1	
797.22	3138.2	
797.4	4362.9	
797.57	4757.4	
797.75	2792.1	
797.92	2597.5	
798.1	4543.8	
798.27	3762.1	
798.45	2386.6	
798.62	2463	
798.8	4158.1	
798.97	4385.4	
799.15	2869.2	
799.32	2756.6	
799.5	3736.2	
799.67	4076.1	
799.85	2887	
800.02	2310.1	
800.2	3930.7	
800.37	4037.9	
800.55	2964.8	
800.72	2622.8	
800.9	4413.4	
801.07	4543.1	
801.25	3325.2	
801.42	2798.9	
801.6	4433.9	
801.77	4026.3	
801.95	2673.3	
802.12	2549.7	
802.29	4234.5	
802.47	4117.1	
802.64	2867.2	
802.82	2241.2	
802.99	3945.1	
803.17	4455	
803.34	2753.8	
803.52	2551.1	
803.69	4731.5	
803.87	3736.9	
804.04	2698.5	
804.21	2734	
804.39	4663.2	
804.56	4037.9	
804.74	2454.8	
804.91	2817.3	
805.09	3908.2	
805.26	3941.7	
805.44	2454.1	
805.61	2636.4	
805.78	4368.3	
805.96	4248.2	
806.13	2783.2	
806.31	2961.4	
806.48	3673.4	
806.66	3958.7	
806.83	2825.5	
807	2673.3	
807.18	3993.5	
807.35	4103.4	
807.53	2766.8	
807.7	2332.6	
807.87	4555.4	
808.05	3938.2	
808.22	2882.2	
808.4	2351.1	
808.57	3810.6	
808.74	3731.4	
808.92	2573.6	
809.09	3132	
809.27	4017.4	
809.44	4175.1	
809.61	2355.8	
809.79	2461.7	
809.96	4728.8	
810.14	4276.8	
810.31	2336.7	
810.48	2921.8	
810.66	3954.6	
810.83	4323.3	
811.01	2570.9	
811.18	2765.4	
811.35	4358.1	
811.53	3574.4	
811.7	2953.9	
811.87	2776.4	
812.05	4025.6	
812.22	3900.7	
812.39	2559.3	
812.57	2392	
812.74	4073.4	
812.92	4842.8	
813.09	2764.1	
813.26	2777	
813.44	4661.2	
813.61	3799.7	
813.78	2308.7	
813.96	2822.1	
814.13	4018.8	
814.3	3843.4	
814.48	3088.3	
814.65	2651.4	
814.82	4558.8	
815	3724.6	
815.17	2671.2	
815.34	3254.2	
815.52	3938.2	
815.69	3880.9	
815.87	2654.9	
816.04	2656.9	
816.21	3880.2	
816.38	3663.1	
816.56	2610.5	
816.73	2492.4	
816.9	4829.1	
817.08	4304.1	
817.25	2558.6	
817.42	2951.8	
817.6	3697.3	
817.77	3851.5	
817.94	2726.5	
818.12	2472.6	
818.29	3829	
818.46	5087.8	
818.64	2598.9	
818.81	2423.4	
818.98	3823.6	
819.16	4895.3	
819.33	2875.3	
819.5	2719.7	
819.67	4141.7	
819.85	4467.3	
820.02	2673.3	
820.19	2778.4	
820.37	4104.1	
820.54	3859.1	
820.71	2769.5	
820.88	3284.3	
821.06	4083	
821.23	3837.2	
821.4	2748.4	
821.58	2735.4	
821.75	4236.6	
821.92	4091.8	
822.09	2359.3	
822.27	2439.1	
822.44	3970.3	
822.61	3882.3	
822.79	2340.8	
822.96	3928.7	
823.13	4074.1	
823.3	3727.3	
823.48	2582.5	
823.65	2394.1	
823.82	4406.5	
823.99	3760.8	
824.17	3155.2	
824.34	2411.1	
824.51	4810.7	
824.68	3993.5	
824.86	2535.4	
825.03	2695.1	
825.2	3981.3	
825.37	4471.4	
825.55	2506	
825.72	2716.3	
825.89	4696	
826.06	4537.6	
826.24	2656.2	
826.41	2686.9	
826.58	4649.6	
826.75	4044.7	
826.92	2283.5	
827.1	2422.1	
827.27	5747.3	
827.44	4670.1	
827.61	2535.4	
827.79	2937.5	
827.96	3890.5	
828.13	3890.5	
828.3	2631	
828.47	2334	
828.65	4222.2	
828.82	4215.4	
828.99	3066.5	
829.16	2808.4	
829.34	4368.3	
829.51	4283.7	
829.68	2650.1	
829.85	2658.3	
830.02	4751.3	
830.2	4401.1	
830.37	2196.1	
830.54	3008.5	
830.71	4818.2	
830.88	3997.6	
831.05	2204.3	
831.23	2450.7	
831.4	4764.3	
831.57	4857.1	
831.74	2530.6	
831.91	2319	
832.09	4298.7	
832.26	4377.9	
832.43	2544.3	
832.6	2861	
832.77	4234.5	
832.94	4582.7	
833.12	2158.6	
833.29	2472.6	
833.46	4224.3	
833.63	5075.5	
833.8	2725.8	
833.97	2545.6	
834.15	4481	
834.32	4353.3	
834.49	2623.4	
834.66	2702.6	
834.83	4426.3	
835	3866.6	
835.17	2459.6	
835.35	2499.2	
835.52	4374.5	
835.69	4272.7	
835.86	2631.6	
836.03	2178.4	
836.2	4420.2	
836.37	4131.4	
836.55	2454.8	
836.72	2409.8	
836.89	4178.5	
837.06	4476.2	
837.23	2523.8	
837.4	2702.6	
837.57	4881.7	
837.75	5114.5	
837.92	2398.2	
838.09	2448.7	
838.26	4159.4	
838.43	4488.5	
838.6	2623.4	
838.77	2427.5	
838.94	4867.3	
839.11	4815.5	
839.29	2623.4	
839.46	2129.9	
839.63	4470	
839.8	4194.9	
839.97	2511.5	
840.14	2473.9	
840.31	4377.2	
840.48	4444.8	
840.65	2224.8	
840.82	2495.8	
841	4397.7	
841.17	4252.9	
841.34	2257.5	
841.51	2413.9	
841.68	4330.1	
841.85	4189.5	
842.02	2405	
842.19	2106	
842.36	4265.9	
842.53	4273.4	
842.7	2357.2	
842.87	2719.7	
843.05	5097.4	
843.22	4167.6	
843.39	2239.1	
843.56	2448.7	
843.73	4162.2	
843.9	4477.5	
844.07	3407.8	
844.24	2878.1	
844.41	5499.5	
844.58	3975.8	
844.75	2282.1	
844.92	2436.4	
845.09	4281.6	
845.26	4307.6	
845.43	2320.3	
845.6	2443.9	
845.77	4432.5	
845.94	4199.7	
846.12	2539.5	
846.29	2631.6	
846.46	4536.3	
846.63	4273.4	
846.8	2316.3	
846.97	2703.3	
847.14	4562.9	
847.31	4334.9	
847.48	2514.2	
847.65	2737.5	
847.82	4229.1	
847.99	4431.1	
848.16	2907.4	
848.33	2700.6	
848.5	4079.6	
848.67	4609.3	
848.84	2299.2	
849.01	2415.2	
849.18	4119.1	
849.35	3868.6	
849.52	2790	
849.69	2299.9	
849.86	4549.9	
850.03	4476.2	
850.2	2326.5	
850.37	2670.6	
850.54	4493.2	
850.71	4100	
850.88	2729.9	
851.05	2218.6	
851.22	4262.5	
851.39	4612	
851.56	2229.6	
851.73	2582.5	
851.9	3973.7	
852.07	4562.2	
852.24	2519.7	
852.41	2322.4	
852.58	4356	
852.75	4006.5	
852.92	2495.1	
853.09	2259.6	
853.26	3913.7	
853.43	4566.3	
853.6	2354.5	
853.77	2070.5	
853.94	4637.3	
854.11	3889.1	
854.28	3196.9	
854.44	2476.7	
854.61	4843.4	
854.78	4457.1	
854.95	2340.1	
855.12	2713.6	
855.29	3707.5	
855.46	4706.2	
855.63	2344.2	
855.8	2983.2	
855.97	4050.9	
856.14	4548.5	
856.31	3053.5	
856.48	2428.9	
856.65	4210.6	
856.82	3870.7	
856.99	2271.9	
857.16	2438.4	
857.33	5020.9	
857.49	4157.4	
857.66	2430.9	
857.83	2538.8	
858	4285.7	
858.17	4290.5	
858.34	2207.7	
858.51	2357.9	
858.68	4653.7	
858.85	4622.3	
859.02	2577	
859.19	2725.8	
859.36	3997.6	
859.52	3855.6	
859.69	2291.7	
859.86	2621.4	
860.03	3945.1	
860.2	4647.5	
860.37	2205	
860.54	2316.3	
860.71	4448.2	
860.88	4681	
861.05	2554.5	
861.21	2840.5	
861.38	4587.4	
861.55	3779.9	
861.72	2149	
861.89	2542.2	
862.06	4442	
862.23	4640	
862.4	2283.5	
862.56	2409.1	
862.73	4446.1	
862.9	4256.4	
863.07	2580.4	
863.24	2170.8	
863.41	3915.7	
863.58	3988.8	
863.75	2370.2	
863.91	2641.2	
864.08	4500.8	
864.25	4353.3	
864.42	2753.8	
864.59	3046	
864.76	4788.8	
864.93	3975.1	
865.09	2239.8	
865.26	2448.7	
865.43	4616.1	
865.6	4794.3	
865.77	2131.3	
865.94	2278	
866.1	4569	
866.27	4341	
866.44	3229	
866.61	2214.5	
866.78	4189.5	
866.95	4399	
867.11	2264.4	
867.28	2138.1	
867.45	4602.5	
867.62	3914.4	
867.79	2569.5	
867.96	2301.9	
868.12	3866.6	
868.29	4373.1	
868.46	2343.6	
868.63	2832.3	
868.8	4446.1	
868.97	4370.4	
869.13	2400.2	
869.3	2383.2	
869.47	4277.5	
869.64	4493.2	
869.81	2293.7	
869.97	2322.4	
870.14	4244.1	
870.31	4652.3	
870.48	2294.4	
870.65	2794.8	
870.81	4188.1	
870.98	4189.5	
871.15	2538.1	
871.32	2380.4	
871.48	4360.1	
871.65	4713.7	
871.82	2278.7	
871.99	2476	
872.16	4915.1	
872.32	4605.2	
872.49	2389.3	
872.66	2316.3	
872.83	4454.3	
872.99	4033.1	
873.16	2600.9	
873.33	2322.4	
873.5	4200.4	
873.67	4233.8	
873.83	2469.9	
874	2904.7	
874.17	4364.9	
874.34	4752.7	
874.5	2839.8	
874.67	2729.3	
874.84	4620.2	
875.01	3788.1	
875.17	3039.9	
875.34	2309.4	
875.51	4317.8	
875.68	4976.6	
875.84	2714.2	
876.01	3114.3	
876.18	4431.1	
876.34	4388.1	
876.51	2319	
876.68	2274.6	
876.85	4103.4	
877.01	4585.4	
877.18	3065.8	
877.35	2274.6	
877.52	4374.5	
877.68	3970.3	
877.85	2267.1	
878.02	2312.2	
878.18	3975.8	
878.35	4101.4	
878.52	1976.3	
878.69	2659.6	
878.85	4582.7	
879.02	4407.2	
879.19	3072.6	
879.35	2445.3	
879.52	4397.7	
879.69	4417.5	
879.86	2091.7	
880.02	2482.1	
880.19	4241.3	
880.36	4819.6	
880.52	2544.3	
880.69	2656.9	
880.86	4474.8	
881.02	4423.6	
881.19	2519.7	
881.36	2430.9	
881.52	4420.2	
881.69	3962.1	
881.86	2511.5	
882.02	2422.7	
882.19	4547.9	
882.36	5078.3	
882.52	2349.7	
882.69	3035.1	
882.86	4328.7	
883.02	4311.7	
883.19	2713.6	
883.36	2588.6	
883.52	4475.5	
883.69	4890.5	
883.86	2360.6	
884.02	2212.5	
884.19	4461.2	
884.36	4244.8	
884.52	2554.5	
884.69	2473.3	
884.86	4138.9	
885.02	4661.2	
885.19	2488.3	
885.36	2592.7	
885.52	4114.4	
885.69	4308.9	
885.86	3136.8	
886.02	2800.3	
886.19	4427.7	
886.35	3994.2	
886.52	2525.8	
886.69	3021.4	
886.85	3975.1	
887.02	4576.5	
887.19	4576.5	
887.35	4576.5	
887.52	4576.5	
887.68	4576.5	
887.85	4576.5	
888.02	4576.5	
888.18	4576.5	
888.35	4576.5	
888.51	4576.5	
888.68	4576.5	
888.85	4576.5	
889.01	4576.5	
889.18	4576.5	
889.35	4576.5	
889.51	4576.5	
889.68	4576.5	
889.84	4576.5	
890.01	4576.5	
890.17	4576.5	
890.34	4576.5	
890.51	4576.5	
890.67	4576.5	
890.84	4576.5	
891	4576.5	
891.17	4576.5	
891.34	4576.5	
891.5	4576.5	
891.67	4576.5	
891.83	4576.5	
892	4576.5	
892.16	4576.5	
892.33	4576.5	
892.5	4576.5	
892.66	4576.5	
892.83	4576.5	
892.99	4576.5	
893.16	4576.5	
893.32	4576.5	
893.49	4576.5	
893.65	4576.5	
893.82	4576.5	
893.99	4576.5	
894.15	4576.5	
894.32	4576.5	
894.48	4576.5	
894.65	4576.5	
894.81	4576.5	
894.98	4576.5	
895.14	4576.5	
895.31	4576.5	
895.47	4576.5	
895.64	4576.5	
895.81	4576.5	
895.97	4576.5	
896.14	4576.5	
896.3	4576.5	
896.47	4576.5	
896.63	4576.5	
896.8	4576.5	
896.96	4576.5	
897.13	4576.5	
897.29	4576.5	
897.46	4576.5	
897.62	4576.5	
897.79	4576.5	
897.95	4576.5	
898.12	4576.5	
898.28	4576.5	
898.45	4576.5	
898.61	4576.5	
898.78	4576.5	
898.94	4576.5	
899.11	4576.5	
899.27	4576.5	
899.44	4576.5	
899.6	4576.5	
899.77	4576.5	
899.93	4576.5	
900.1	4576.5	
900.26	4576.5	
900.43	4576.5	
900.59	4576.5	
900.76	4576.5	
900.92	4576.5	
901.09	4576.5	
901.25	4576.5	
901.42	4576.5	
901.58	4576.5	
901.75	4576.5	
901.91	4576.5	
902.07	4576.5	
902.24	4576.5	
902.4	4576.5	
902.57	4576.5	
902.73	4576.5	
902.9	4576.5	
903.06	4576.5	
903.23	4576.5	
903.39	4576.5	
903.56	4576.5	
903.72	4576.5	
903.88	4576.5	
904.05	4576.5	
904.21	4576.5	
904.38	4576.5	
904.54	4576.5	
904.71	4576.5	
904.87	4576.5	
905.03	4576.5	
905.2	4576.5	
905.36	4576.5	
905.53	4576.5	
905.69	4576.5	
905.86	4576.5	
906.02	4576.5	
906.18	4576.5	
906.35	4576.5	
906.51	4576.5	
906.68	4576.5	
906.84	4576.5	
907.01	4576.5	
907.17	4576.5	
907.33	4576.5	
907.5	4576.5	
907.66	4576.5	
907.83	4576.5	
907.99	4576.5	
908.15	4576.5	
908.32	4576.5	
908.48	4576.5	
908.65	4576.5	
908.81	4576.5	
908.97	4576.5	
909.14	4576.5	
909.3	4576.5	
909.47	4576.5	
909.63	4576.5	
909.79	4576.5	
909.96	4576.5	
910.12	4576.5	
910.28	4576.5	
910.45	4576.5	
910.61	4576.5	
910.78	4576.5	
910.94	4576.5	
911.1	4576.5	
911.27	4576.5	
911.43	4576.5	
911.59	4576.5	
911.76	4576.5	
911.92	4576.5	
912.08	4576.5	
912.25	4576.5	
912.41	4576.5	
912.57	4576.5	
912.74	4576.5	
912.9	4576.5	
913.07	4576.5	
913.23	4576.5	
913.39	4576.5	
913.56	4576.5	
913.72	4576.5	
913.88	4576.5	
914.05	4576.5	
914.21	4576.5	
914.37	4576.5	
914.54	4576.5	
914.7	4576.5	
914.86	4576.5	
915.03	4576.5	
915.19	4576.5	
