Wavelength	Intensities	
nm	a.u.	
179.22	1909.9	
179.44	1906.3	
179.65	1913.5	
179.86	1899.1	
180.08	1905.3	
180.29	5037.3	
180.51	3537.5	
180.72	5748.6	
180.94	6710.5	
181.15	3332.7	
181.37	3238.5	
181.58	5615.5	
181.79	5892	
182.01	3463.8	
182.22	3762.1	
182.44	5885.9	
182.65	4914.4	
182.87	4636.6	
183.08	4098	
183.29	6219.7	
183.51	5076.9	
183.72	3749.1	
183.94	5530.2	
184.15	5521.3	
184.37	5545.2	
184.58	3275.4	
184.79	4579.3	
185.01	5067.4	
185.22	5849.7	
185.44	4764.9	
185.65	4011.3	
185.86	5387.5	
186.08	4951.3	
186.29	3218	
186.51	3507.5	
186.72	5095.3	
186.94	6126.8	
187.15	4009.2	
187.36	4147.8	
187.58	8006.2	
187.79	5605.3	
188.01	4298	
188.22	6741.9	
188.43	6778.8	
188.65	5881.8	
188.86	3403	
189.08	4095.3	
189.29	5313.1	
189.5	5319.9	
189.72	3846.1	
189.93	3931.4	
190.15	6100.2	
190.36	7374.7	
190.57	4213.4	
190.79	4098.7	
191	6167.8	
191.22	6081.8	
191.43	4227.7	
191.64	3459.7	
191.86	6397.2	
192.07	6109.1	
192.29	3620.1	
192.5	3870.7	
192.71	6109.1	
192.93	5223.7	
193.14	3818.1	
193.35	3929.4	
193.57	5233.2	
193.78	6125.5	
194	3120.4	
194.21	3721.8	
194.42	5031.2	
194.64	5560.2	
194.85	4166.3	
195.07	4883.7	
195.28	5593	
195.49	4769	
195.71	5126.7	
195.92	3580.5	
196.13	5707	
196.35	5825.1	
196.56	5528.2	
196.78	4096.6	
196.99	7172.7	
197.2	6709.8	
197.42	4732.9	
197.63	4218.8	
197.84	4891.9	
198.06	5762.3	
198.27	3807.9	
198.48	5175.9	
198.7	5292.6	
198.91	5433.3	
199.13	4189.5	
199.34	4258.4	
199.55	5976.7	
199.77	4793.6	
199.98	3692.5	
200.19	4246.8	
200.41	5321.3	
200.62	5116.5	
200.83	4390.8	
201.05	4675.5	
201.26	5367.7	
201.47	5128.8	
201.69	3675.4	
201.9	3575.1	
202.11	5468.8	
202.33	6515.3	
202.54	3971.7	
202.76	4397.7	
202.97	5609.4	
203.18	5571.8	
203.4	4412	
203.61	4225.6	
203.82	5597.1	
204.04	5195	
204.25	4221.5	
204.46	4124.6	
204.68	5522	
204.89	5782.8	
205.1	4043.4	
205.32	3534.8	
205.53	5909.1	
205.74	6054.5	
205.96	2955.9	
206.17	4337.6	
206.38	5905	
206.6	6053.8	
206.81	4857.1	
207.02	3882.9	
207.24	5823.1	
207.45	6202.6	
207.66	3946.4	
207.88	3397.6	
208.09	5675.6	
208.3	5553.4	
208.52	3652.2	
208.73	4110.3	
208.94	5524.1	
209.15	6206.7	
209.37	4010.6	
209.58	4243.4	
209.79	6070.2	
210.01	5296	
210.22	3118.4	
210.43	3318.4	
210.65	5507	
210.86	5967.8	
211.07	4020.2	
211.29	3683.6	
211.5	5867.4	
211.71	5477	
211.93	3628.3	
212.14	3652.9	
212.35	5459.9	
212.56	5758.2	
212.78	4235.2	
212.99	3472.7	
213.2	6518.7	
213.42	5243.5	
213.63	3742.3	
213.84	4031.1	
214.06	4887.8	
214.27	4973.2	
214.48	3947.8	
214.69	4261.8	
214.91	6223.1	
215.12	6379.4	
215.33	4310.3	
215.55	4819.6	
215.76	6895.5	
215.97	5995.1	
216.18	4112.3	
216.4	3956	
216.61	5174.5	
216.82	6099.5	
217.04	3638.6	
217.25	3863.2	
217.46	6168.5	
217.67	5905	
217.89	3293.8	
218.1	3435.8	
218.31	5626.5	
218.53	5698.1	
218.74	3874.8	
218.95	3743.7	
219.16	5466.7	
219.38	6474.3	
219.59	3751.9	
219.8	4483	
220.01	7140.6	
220.23	5534.3	
220.44	4880.3	
220.65	3649.5	
220.87	5538.4	
221.08	6165.8	
221.29	3431.7	
221.5	4549.2	
221.72	7621.2	
221.93	5275.6	
222.14	4175.8	
222.35	4962.9	
222.57	5556.1	
222.78	5902.2	
222.99	3961.5	
223.2	4300.7	
223.42	5789.6	
223.63	5944.6	
223.84	3018.7	
224.05	3001	
224.27	7099.6	
224.48	6505	
224.69	4971.8	
224.9	4265.9	
225.12	5750	
225.33	5489.9	
225.54	3296.5	
225.75	3648.1	
225.97	5023.7	
226.18	5343.2	
226.39	4012.7	
226.6	3756	
226.82	5275.6	
227.03	5111	
227.24	4201.7	
227.45	3483.6	
227.67	5870.2	
227.88	6493.4	
228.09	4775.9	
228.3	4655.7	
228.52	5972.6	
228.73	5457.2	
228.94	3862.5	
229.15	3489.1	
229.36	5371.8	
229.58	5346.6	
229.79	3894.6	
230	4536.9	
230.21	6612.9	
230.43	5595.7	
230.64	4166.3	
230.85	4291.9	
231.06	5943.9	
231.28	6018.3	
231.49	3467.9	
231.7	4115.1	
231.91	5814.9	
232.12	5516.5	
232.34	3558	
232.55	4115.7	
232.76	6244.3	
232.97	5724.8	
233.18	3629	
233.4	4135.5	
233.61	5802.6	
233.82	5274.9	
234.03	3848.8	
234.25	3740.3	
234.46	7754.3	
234.67	5620.3	
234.88	4261.1	
235.09	3703.4	
235.31	5808.7	
235.52	5386.8	
235.73	4184.7	
235.94	3508.2	
236.15	5242.8	
236.37	6743.3	
236.58	3682.9	
236.79	3988.1	
237	5866.1	
237.21	4980	
237.43	4288.4	
237.64	3419.4	
237.85	10118	
238.06	5028.4	
238.27	4366.3	
238.48	3498.6	
238.7	5917.3	
238.91	5366.4	
239.12	3969	
239.33	4080.9	
239.54	5081	
239.76	5454.4	
239.97	3958	
240.18	3986	
240.39	7029.3	
240.6	5825.1	
240.82	4143	
241.03	3402.4	
241.24	5526.1	
241.45	6449.7	
241.66	3620.8	
241.87	4300.1	
242.09	6292	
242.3	6690	
242.51	4415.4	
242.72	4035.9	
242.93	6031.3	
243.14	5416.2	
243.36	4646.2	
243.57	4970.4	
243.78	6457.9	
243.99	5936.4	
244.2	4030.4	
244.41	3652.2	
244.63	5008.6	
244.84	5843.5	
245.05	4294.6	
245.26	4107.5	
245.47	5783.5	
245.68	6036	
245.9	5325.4	
246.11	4319.8	
246.32	5348.6	
246.53	5727.5	
246.74	6505	
246.95	3347.1	
247.16	4969.7	
247.38	5575.9	
247.59	3321.8	
247.8	4039.3	
248.01	5145.9	
248.22	5402.5	
248.43	3601	
248.64	3894.6	
248.86	4915.8	
249.07	5229.8	
249.28	3504.1	
249.49	4175.1	
249.7	6108.4	
249.91	6198.5	
250.12	3357.3	
250.34	3416	
250.55	5629.2	
250.76	5510.4	
250.97	4152.6	
251.18	4207.9	
251.39	6238.8	
251.6	5715.2	
251.81	4261.8	
252.03	4227	
252.24	5244.2	
252.45	6061.3	
252.66	3496.6	
252.87	4424.3	
253.08	5524.7	
253.29	7323.5	
253.5	3528	
253.72	4879.6	
253.93	5375.9	
254.14	6571.2	
254.35	3785.3	
254.56	3923.2	
254.77	5744.6	
254.98	5132.9	
255.19	3763.5	
255.41	4877.6	
255.62	5615.5	
255.83	6222.4	
256.04	4374.5	
256.25	4235.2	
256.46	6859.3	
256.67	5231.9	
256.88	4138.9	
257.09	4657.1	
257.31	5193	
257.52	5187.5	
257.73	5182.7	
257.94	3768.3	
258.15	5342.5	
258.36	5573.2	
258.57	4855.1	
258.78	3028.3	
258.99	6083.1	
259.2	5346.6	
259.41	3841.3	
259.63	3956.7	
259.84	6370.5	
260.05	6907.1	
260.26	5026.4	
260.47	3665.2	
260.68	6159.6	
260.89	5449.6	
261.1	4610	
261.31	3624.2	
261.52	6089.3	
261.73	6493.4	
261.95	5003.2	
262.16	4336.2	
262.37	6247	
262.58	6381.5	
262.79	4905.6	
263	3863.2	
263.21	5517.9	
263.42	5000.5	
263.63	3995.6	
263.84	3884.3	
264.05	6164.4	
264.26	6496.2	
264.47	4816.1	
264.69	4360.8	
264.9	6254.5	
265.11	5816.9	
265.32	3646.1	
265.53	3761.4	
265.74	5697.4	
265.95	4924.7	
266.16	4091.8	
266.37	4548.5	
266.58	5684.5	
266.79	5328.8	
267	3762.8	
267.21	3540.3	
267.42	5170.4	
267.63	5527.5	
267.84	3979.9	
268.06	3440.6	
268.27	6011.5	
268.48	6272.2	
268.69	3930.1	
268.9	4645.5	
269.11	6292.7	
269.32	4973.2	
269.53	4038.6	
269.74	3700.7	
269.95	5899.5	
270.16	4820.9	
270.37	4036.5	
270.58	4672.1	
270.79	5391.6	
271	6036.7	
271.21	4304.8	
271.42	4104.1	
271.63	5692	
271.84	5224.4	
272.05	3231.7	
272.26	3650.2	
272.47	5604.6	
272.68	5740.5	
272.89	3854.3	
273.11	4503.5	
273.32	5313.1	
273.53	6537.8	
273.74	4300.7	
273.95	4273.4	
274.16	6265.4	
274.37	5636	
274.58	4459.1	
274.79	3493.2	
275	5654.4	
275.21	6253.1	
275.42	5278.3	
275.63	4625	
275.84	5886.5	
276.05	7339.9	
276.26	4300.7	
276.47	3999	
276.68	5358.2	
276.89	6613.6	
277.1	4538.3	
277.31	3528	
277.52	5840.1	
277.73	6035.4	
277.94	3495.2	
278.15	3878.2	
278.36	5733.6	
278.57	5161.6	
278.78	3868.6	
278.99	4317.8	
279.2	5150.6	
279.41	5091.3	
279.62	5084.4	
279.83	3565.5	
280.04	6815.6	
280.25	5070.1	
280.46	5079	
280.67	3975.1	
280.88	5144.5	
281.09	6219.7	
281.3	4221.5	
281.51	5337.7	
281.72	5251.7	
281.93	6072.2	
282.14	3778.5	
282.35	4076.1	
282.56	5997.1	
282.77	6040.1	
282.98	3883.6	
283.19	4758.1	
283.4	7454.6	
283.61	5477.6	
283.82	3538.9	
284.03	5039.4	
284.24	5611.4	
284.45	6202.6	
284.66	4993.6	
284.87	4748.6	
285.08	6085.9	
285.29	6293.4	
285.5	3413.3	
285.71	3977.2	
285.92	6212.9	
286.12	6889.4	
286.33	4991.6	
286.54	3874.1	
286.75	6065.4	
286.96	5373.9	
287.17	3627.6	
287.38	4885.1	
287.59	5163.6	
287.8	5064.6	
288.01	3974.4	
288.22	4572.4	
288.43	6165.8	
288.64	5059.2	
288.85	4676.9	
289.06	4447.5	
289.27	6296.8	
289.48	6572.6	
289.69	4971.1	
289.9	4485.7	
290.11	6231.3	
290.32	5257.8	
290.53	4785.4	
290.74	4360.1	
290.94	5958.9	
291.15	6014.2	
291.36	3826.3	
291.57	4536.3	
291.78	5255.8	
291.99	4951.3	
292.2	3595.6	
292.41	4360.1	
292.62	6120	
292.83	5828.5	
293.04	5403.9	
293.25	3717.1	
293.46	5370.5	
293.67	6182.8	
293.88	3818.1	
294.09	3643.3	
294.29	5036.6	
294.5	5692	
294.71	4069.3	
294.92	3902.7	
295.13	5270.1	
295.34	6713.2	
295.55	3321.1	
295.76	3459	
295.97	5938.4	
296.18	6743.3	
296.39	3581.9	
296.6	3781.2	
296.81	5678.3	
297.01	6012.2	
297.22	3969	
297.43	3773.7	
297.64	5177.3	
297.85	5129.5	
298.06	3134.8	
298.27	3381.2	
298.48	5619.6	
298.69	5253.7	
298.9	4130.8	
299.11	3697.9	
299.31	5035.3	
299.52	5079.6	
299.73	4373.8	
299.94	4273.4	
300.15	5557.5	
300.36	5162.9	
300.57	4309.6	
300.78	4269.3	
300.99	5403.9	
301.2	5657.9	
301.4	3700.7	
301.61	4121.9	
301.82	5900.9	
302.03	6023.1	
302.24	4592.2	
302.45	3576.4	
302.66	5885.2	
302.87	6342.6	
303.08	3776.5	
303.29	5222.3	
303.49	5261.2	
303.7	5579.3	
303.91	3354.6	
304.12	4917.9	
304.33	5072.8	
304.54	5644.9	
304.75	3807.9	
304.96	3583.9	
305.16	5931.6	
305.37	6580.8	
305.58	3296.5	
305.79	3426.3	
306	5899.5	
306.21	4985.4	
306.42	3745.7	
306.63	5825.1	
306.83	5365.7	
307.04	6235.4	
307.25	4178.5	
307.46	4133.5	
307.67	4695.3	
307.88	6028.5	
308.09	3696.6	
308.29	3884.3	
308.5	5593.7	
308.71	6210.8	
308.92	4024.9	
309.13	3640.6	
309.34	5379.3	
309.55	5478.3	
309.75	4732.9	
309.96	4312.3	
310.17	6024.4	
310.38	5257.8	
310.59	4552.6	
310.8	4260.5	
311.01	5763.7	
311.21	5406.6	
311.42	3552.5	
311.63	3679.5	
311.84	5315.8	
312.05	5717.2	
312.26	4210.6	
312.46	4604.5	
312.67	5432.6	
312.88	5041.4	
313.09	3659.7	
313.3	3558.7	
313.51	6410.8	
313.71	6727.6	
313.92	3609.9	
314.13	3836.5	
314.34	5710.4	
314.55	5461.9	
314.76	4678.9	
314.96	4146.5	
315.17	5605.3	
315.38	6034.7	
315.59	3618.1	
315.8	3489.7	
316.01	6503.7	
316.21	6558.3	
316.42	3525.2	
316.63	4042.7	
316.84	5406	
317.05	6346.7	
317.26	4308.2	
317.46	3869.3	
317.67	5488.6	
317.88	5930.9	
318.09	4688.5	
318.3	3399.6	
318.5	5217.5	
318.71	5984.2	
318.92	6001.9	
319.13	4280.3	
319.34	6125.5	
319.54	6227.9	
319.75	3406.5	
319.96	3241.3	
320.17	5956.2	
320.38	6156.2	
320.58	3310.2	
320.79	3985.3	
321	6132.3	
321.21	6251.8	
321.42	4061.1	
321.62	3351.2	
321.83	5164.3	
322.04	5669.5	
322.25	3845.4	
322.46	3678.2	
322.66	5682.4	
322.87	5834	
323.08	4504.2	
323.29	3571.7	
323.5	6694.8	
323.7	5077.6	
323.91	5023.7	
324.12	4496	
324.33	5633.3	
324.53	5937.7	
324.74	4347.2	
324.95	4498.7	
325.16	4926	
325.37	5397.8	
325.57	3667.2	
325.78	3764.2	
325.99	5550	
326.2	5021.6	
326.4	5248.9	
326.61	3369.6	
326.82	5494.7	
327.03	5701.5	
327.24	5200.5	
327.44	4906.9	
327.65	5858.6	
327.86	4700.8	
328.07	4344.4	
328.27	3491.1	
328.48	6275.7	
328.69	5101.5	
328.9	5310.4	
329.1	3943	
329.31	5403.9	
329.52	6432.7	
329.73	3603.7	
329.93	4171	
330.14	5547.9	
330.35	5833.3	
330.56	6017.6	
330.76	4545.1	
330.97	5375.9	
331.18	5754.1	
331.39	4122.6	
331.59	3293.1	
331.8	6164.4	
332.01	6343.2	
332.22	3794.2	
332.42	4315.1	
332.63	5691.3	
332.84	5250.3	
333.05	4111.6	
333.25	3715	
333.46	5397.1	
333.67	5569.8	
333.88	3817.4	
334.08	4290.5	
334.29	7480.5	
334.5	6321.4	
334.7	3525.2	
334.91	5205.9	
335.12	5135.6	
335.33	6015.6	
335.53	4089.8	
335.74	6082.5	
335.95	5328.8	
336.16	5148.6	
336.36	4087.1	
336.57	4655	
336.78	5107	
336.98	6193.1	
337.19	5014.1	
337.4	3969.6	
337.61	6764.4	
337.81	5042.8	
338.02	3711.6	
338.23	4849.6	
338.43	6384.9	
338.64	5197.1	
338.85	3691.8	
339.05	4842.8	
339.26	6412.9	
339.47	5030.5	
339.68	3660.4	
339.88	5471.5	
340.09	5819	
340.3	6059.3	
340.5	4324.6	
340.71	3271.3	
340.92	4960.2	
341.13	6316.6	
341.33	3560.1	
341.54	4353.3	
341.75	5803.3	
341.95	5479.7	
342.16	4130.8	
342.37	4500.1	
342.57	5199.1	
342.78	5550.7	
342.99	4599.7	
343.19	3295.2	
343.4	5989.6	
343.61	5871.5	
343.81	3949.2	
344.02	3614	
344.23	6034	
344.43	6444.3	
344.64	4590.2	
344.85	4455.7	
345.06	5849.7	
345.26	6293.4	
345.47	4296.6	
345.68	5007.3	
345.88	4896	
346.09	6040.8	
346.3	4341	
346.5	3291.8	
346.71	5642.8	
346.92	5272.8	
347.12	3278.1	
347.33	4252.9	
347.54	6188.3	
347.74	6550.1	
347.95	4204.5	
348.16	3145.7	
348.36	5398.4	
348.57	5188.9	
348.78	4157.4	
348.98	4564.2	
349.19	5599.1	
349.39	4986.1	
349.6	3387.3	
349.81	3768.3	
350.01	5822.4	
350.22	5199.8	
350.43	4067.3	
350.63	5006.6	
350.84	5642.2	
351.05	5378.6	
351.25	3754.6	
351.46	3366.2	
351.67	6193.1	
351.87	5279	
352.08	3975.1	
352.29	4534.9	
352.49	6063.4	
352.7	5757.5	
352.9	3575.1	
353.11	4524.6	
353.32	6829.3	
353.52	5416.9	
353.73	3561.4	
353.94	4588.1	
354.14	5986.2	
354.35	5767.8	
354.55	3662.5	
354.76	4104.1	
354.97	5902.2	
355.17	5580.7	
355.38	3484.3	
355.59	4872.1	
355.79	5268.1	
356	5736.4	
356.2	4101.4	
356.41	3552.5	
356.62	5016.2	
356.82	5526.1	
357.03	4370.4	
357.24	4007.9	
357.44	5341.8	
357.65	5442.1	
357.85	5337.7	
358.06	4143	
358.27	5128.1	
358.47	5304.2	
358.68	3508.9	
358.88	4455.7	
359.09	5934.3	
359.3	6333	
359.5	5175.2	
359.71	4641.4	
359.91	6888.7	
360.12	6154.1	
360.33	4400.4	
360.53	4944.5	
360.74	5391.6	
360.94	5506.3	
361.15	4714.4	
361.36	3936.9	
361.56	6212.9	
361.77	5637.4	
361.97	5270.8	
362.18	4121.2	
362.38	6318.7	
362.59	5341.8	
362.8	3882.9	
363	3670	
363.21	5131.5	
363.41	5925.5	
363.62	4435.2	
363.83	5611.4	
364.03	5980.8	
364.24	7021.1	
364.44	5722.7	
364.65	5531.6	
364.85	5726.8	
365.06	5408	
365.27	4126	
365.47	4184.7	
365.68	6744	
365.88	5686.5	
366.09	4554.7	
366.29	4278.9	
366.5	6067.4	
366.71	6498.2	
366.91	5620.3	
367.12	4809.3	
367.32	7150.8	
367.53	6370.5	
367.73	4684.4	
367.94	5820.3	
368.14	6305	
368.35	7288.7	
368.56	4739.7	
368.76	4044.1	
368.97	6421.1	
369.17	8253.3	
369.38	4210.6	
369.58	4478.9	
369.79	5410.7	
369.99	6765.8	
370.2	5605.3	
370.4	4612	
370.61	6178.7	
370.82	7412.3	
371.02	4519.9	
371.23	3740.3	
371.43	5322	
371.64	6803.4	
371.84	4608.6	
372.05	5876.3	
372.25	8237.6	
372.46	6586.3	
372.66	4663.2	
372.87	4566.3	
373.07	6651.1	
373.28	8365.3	
373.48	5705	
373.69	5487.2	
373.9	6105	
374.1	6128.9	
374.31	5777.3	
374.51	5329.5	
374.72	7101.7	
374.92	5826.5	
375.13	5969.1	
375.33	5120.6	
375.54	6717.3	
375.74	6066.1	
375.95	5253.7	
376.15	6516	
376.36	6739.9	
376.56	6599.2	
376.77	5388.9	
376.97	5815.5	
377.18	7933.1	
377.38	6958.3	
377.59	6299.6	
377.79	4835.9	
378	6673.6	
378.2	7253.9	
378.41	5017.5	
378.61	4958.1	
378.82	7306.5	
379.02	6354.8	
379.23	5220.3	
379.43	6503	
379.64	7377.5	
379.84	7028.6	
380.05	4999.8	
380.25	4973.2	
380.46	7100.3	
380.66	6606.1	
380.87	6528.9	
381.07	6795.2	
381.28	7764.5	
381.48	7060	
381.69	5038	
381.89	5053.7	
382.1	5883.1	
382.3	7280.5	
382.51	6152.1	
382.71	7147.4	
382.91	7140.6	
383.12	7594.6	
383.32	5422.3	
383.53	5577.3	
383.73	6888.7	
383.94	6661.4	
384.14	5501.5	
384.35	4513	
384.55	6576	
384.76	7064.1	
384.96	5347.2	
385.17	5635.3	
385.37	6953.5	
385.58	6186.2	
385.78	5699.5	
385.98	4423.6	
386.19	6462.7	
386.39	6802	
386.6	5089.9	
386.8	5388.9	
387.01	6968.6	
387.21	7054.6	
387.42	5752.7	
387.62	6415.6	
387.83	6241.5	
388.03	7059.3	
388.23	5396.4	
388.44	6312.5	
388.64	5956.9	
388.85	6290	
389.05	5915.2	
389.26	6612.2	
389.46	8211	
389.67	7660.1	
389.87	5970.5	
390.07	5992.4	
390.28	6851.8	
390.48	6328.2	
390.69	5219.6	
390.89	5492.7	
391.1	6531	
391.3	7620.5	
391.5	6824.5	
391.71	7419.8	
391.91	7408.9	
392.12	8435.6	
392.32	6867.5	
392.53	5986.9	
392.73	6682.5	
392.93	6887.3	
393.14	5756.2	
393.34	6499.6	
393.55	7311.9	
393.75	6800.6	
393.95	5614.8	
394.16	5520.6	
394.36	6481.1	
394.57	7311.9	
394.77	5058.5	
394.98	5502.2	
395.18	6595.1	
395.38	6777.4	
395.59	6498.9	
395.79	5502.9	
396	6828.6	
396.2	7363.1	
396.4	6608.1	
396.61	6441.5	
396.81	7771.4	
397.02	6972	
397.22	6845	
397.42	6904.4	
397.63	7662.8	
397.83	6890.7	
398.04	5601.9	
398.24	6317.3	
398.44	7442.3	
398.65	6549.4	
398.85	5526.1	
399.05	5690.6	
399.26	6892.8	
399.46	8899.1	
399.67	6051.1	
399.87	5829.2	
400.07	7415	
400.28	7817.8	
400.48	6029.2	
400.69	7159	
400.89	8175.5	
401.09	8573.5	
401.3	5974.6	
401.5	7173.4	
401.7	9045.2	
401.91	9196.1	
402.11	6386.2	
402.32	6650.4	
402.52	8268.3	
402.72	8005.5	
402.93	6814.3	
403.13	5492.7	
403.33	8880	
403.54	7359	
403.74	6246.3	
403.94	7159	
404.15	7385	
404.35	8672.5	
404.56	5990.3	
404.76	8046.5	
404.96	7908.6	
405.17	7661.5	
405.37	7701	
405.57	6636.8	
405.78	8163.2	
405.98	7480.5	
406.18	6219	
406.39	7241.6	
406.59	8045.8	
406.79	7746.1	
407	5998.5	
407.2	6054.5	
407.4	8160.5	
407.61	8411	
407.81	6161	
408.01	8452.6	
408.22	7344	
408.42	9417.9	
408.62	7678.5	
408.83	7084.6	
409.03	8230.8	
409.23	8083.3	
409.44	7445	
409.64	7703.1	
409.84	9540.8	
410.05	9494.4	
410.25	7839.6	
410.45	7565.2	
410.66	9069.1	
410.86	11665	
411.06	8327.7	
411.27	8075.8	
411.47	11664	
411.67	9448.6	
411.88	8366.6	
412.08	8841.8	
412.28	10193	
412.49	10791	
412.69	8429.4	
412.89	8422.6	
413.09	10619	
413.3	10565	
413.5	8598.7	
413.7	8170	
413.91	9735.4	
414.11	10798	
414.31	8460.2	
414.52	9184.5	
414.72	10423	
414.92	10401	
415.12	8465.6	
415.33	9149	
415.53	10844	
415.73	11071	
415.94	9458.2	
416.14	8925.7	
416.34	9783.1	
416.55	9510.1	
416.75	10303	
416.95	9648.7	
417.15	10974	
417.36	11514	
417.56	10674	
417.76	9641.2	
417.97	11404	
418.17	11187	
418.37	8991.9	
418.57	9342.2	
418.78	10773	
418.98	10447	
419.18	10180	
419.38	9968.8	
419.59	10551	
419.79	10074	
419.99	9039.1	
420.2	9420	
420.4	10954	
420.6	11108	
420.8	8969.4	
421.01	8611	
421.21	10873	
421.41	11064	
421.61	9370.1	
421.82	8971.5	
422.02	10332	
422.22	11250	
422.42	9856.9	
422.63	9224.1	
422.83	10434	
423.03	11665	
423.23	9323	
423.44	8290.9	
423.64	10492	
423.84	10081	
424.04	8819.2	
424.25	8470.4	
424.45	11344	
424.65	11128	
424.85	8226.7	
425.06	8806.9	
425.26	11173	
425.46	9645.9	
425.66	9258.2	
425.87	8931.2	
426.07	10944	
426.27	10793	
426.47	9060.9	
426.67	8351.6	
426.88	11179	
427.08	10753	
427.28	9379.7	
427.48	8144.1	
427.69	9523.7	
427.89	10191	
428.09	9260.2	
428.29	8359.1	
428.5	10927	
428.7	10428	
428.9	8348.2	
429.1	8686.8	
429.3	10275	
429.51	10764	
429.71	8484.7	
429.91	9583.8	
430.11	10702	
430.31	11197	
430.52	8947.6	
430.72	9450.7	
430.92	11520	
431.12	10940	
431.32	8825.4	
431.53	8986.5	
431.73	9723.1	
431.93	11540	
432.13	8570.1	
432.33	8443.8	
432.54	10261	
432.74	10658	
432.94	8531.8	
433.14	9645.9	
433.34	10806	
433.55	10604	
433.75	9648.7	
433.95	11662	
434.15	10771	
434.35	10516	
434.56	8780.3	
434.76	8402.1	
434.96	10796	
435.16	11248	
435.36	8821.3	
435.56	10073	
435.77	10622	
435.97	10756	
436.17	10981	
436.37	10074	
436.57	10501	
436.78	10654	
436.98	9940.8	
437.18	10566	
437.38	11394	
437.58	10806	
437.78	10806	
437.99	9232.9	
438.19	11165	
438.39	12131	
438.59	9193.3	
438.79	8510	
438.99	11867	
439.2	10604	
439.4	8699.8	
439.6	8748.2	
439.8	11109	
440	12255	
440.2	9990.7	
440.4	10146	
440.61	11746	
440.81	12297	
441.01	9291	
441.21	10421	
441.41	12449	
441.61	11792	
441.81	10888	
442.02	11907	
442.22	12903	
442.42	12047	
442.62	9596.8	
442.82	9594.7	
443.02	12302	
443.22	11542	
443.43	10173	
443.63	9695.1	
443.83	11242	
444.03	11214	
444.23	11181	
444.43	10578	
444.63	11951	
444.83	13035	
445.04	9976.3	
445.24	11315	
445.44	12072	
445.64	12233	
445.84	10546	
446.04	10669	
446.24	11282	
446.44	12265	
446.65	9688.9	
446.85	10144	
447.05	11057	
447.25	12179	
447.45	10072	
447.65	9530.6	
447.85	11579	
448.05	11019	
448.25	10678	
448.46	10437	
448.66	11510	
448.86	11251	
449.06	9358.5	
449.26	10660	
449.46	11994	
449.66	10853	
449.86	10138	
450.06	10114	
450.26	11154	
450.47	11884	
450.67	10245	
450.87	10787	
451.07	11981	
451.27	11785	
451.47	9730.6	
451.67	10438	
451.87	11548	
452.07	12437	
452.27	10144	
452.47	9948.3	
452.67	11736	
452.88	12325	
453.08	9073.9	
453.28	11435	
453.48	13098	
453.68	11625	
453.88	10029	
454.08	10202	
454.28	12239	
454.48	11820	
454.68	10775	
454.88	11396	
455.08	12189	
455.28	12378	
455.48	9747.6	
455.68	10727	
455.89	12994	
456.09	12622	
456.29	10357	
456.49	10732	
456.69	13041	
456.89	12147	
457.09	11329	
457.29	11794	
457.49	12605	
457.69	12812	
457.89	11230	
458.09	10375	
458.29	12579	
458.49	13346	
458.69	11852	
458.89	11240	
459.09	13787	
459.29	13973	
459.49	11280	
459.69	12171	
459.9	13325	
460.1	12920	
460.3	10966	
460.5	10791	
460.7	13234	
460.9	13013	
461.1	10714	
461.3	12099	
461.5	14049	
461.7	13658	
461.9	11359	
462.1	11724	
462.3	13416	
462.5	13973	
462.7	11475	
462.9	11802	
463.1	15097	
463.3	14978	
463.5	11948	
463.7	13291	
463.9	13854	
464.1	14324	
464.3	12448	
464.5	12649	
464.7	14670	
464.9	14674	
465.1	14233	
465.3	13201	
465.5	15091	
465.7	15285	
465.9	13682	
466.1	13077	
466.3	15096	
466.5	14682	
466.7	14728	
466.9	13024	
467.1	14930	
467.3	15944	
467.5	14556	
467.7	13379	
467.9	16063	
468.1	17150	
468.3	13938	
468.5	14681	
468.7	15087	
468.9	15012	
469.1	13688	
469.3	14636	
469.5	17281	
469.7	14709	
469.9	13951	
470.1	13653	
470.3	15113	
470.5	15107	
470.7	14818	
470.9	13440	
471.1	14991	
471.3	15150	
471.5	13406	
471.69	15350	
471.89	14678	
472.09	14130	
472.29	14323	
472.49	14262	
472.69	14517	
472.89	15255	
473.09	13115	
473.29	12994	
473.49	14464	
473.69	14592	
473.89	14141	
474.09	13371	
474.29	15937	
474.49	15556	
474.69	14240	
474.89	13425	
475.09	14678	
475.29	14598	
475.49	12709	
475.69	13108	
475.88	16145	
476.08	14780	
476.28	12695	
476.48	13065	
476.68	15165	
476.88	14954	
477.08	12788	
477.28	13317	
477.48	14139	
477.68	15094	
477.88	12647	
478.08	12956	
478.28	15568	
478.48	14410	
478.67	12951	
478.87	12240	
479.07	15321	
479.27	14603	
479.47	13311	
479.67	13223	
479.87	15085	
480.07	15677	
480.27	12451	
480.47	14188	
480.67	14642	
480.87	15460	
481.06	12741	
481.26	13667	
481.46	14639	
481.66	14547	
481.86	13283	
482.06	14315	
482.26	14248	
482.46	15385	
482.66	13192	
482.86	12766	
483.05	14882	
483.25	14237	
483.45	15923	
483.65	13187	
483.85	14363	
484.05	14734	
484.25	13758	
484.45	14382	
484.65	15659	
484.84	15903	
485.04	13237	
485.24	13350	
485.44	16089	
485.64	14294	
485.84	12708	
486.04	14283	
486.24	14779	
486.44	15273	
486.63	12731	
486.83	13706	
487.03	14882	
487.23	15169	
487.43	12963	
487.63	15597	
487.83	15219	
488.02	16231	
488.22	14194	
488.42	14897	
488.62	16238	
488.82	15092	
489.02	13816	
489.22	14016	
489.41	15881	
489.61	15752	
489.81	13499	
490.01	13652	
490.21	16059	
490.41	16782	
490.61	13612	
490.8	13775	
491	15427	
491.2	14608	
491.4	14207	
491.6	13346	
491.8	15380	
491.99	15382	
492.19	13104	
492.39	13446	
492.59	15977	
492.79	15920	
492.99	14508	
493.18	13627	
493.38	16214	
493.58	17271	
493.78	14645	
493.98	14204	
494.18	16259	
494.37	15920	
494.57	15233	
494.77	15068	
494.97	16777	
495.17	17292	
495.37	14868	
495.56	15224	
495.76	17492	
495.96	17073	
496.16	16404	
496.36	15285	
496.55	17474	
496.75	17086	
496.95	15695	
497.15	15431	
497.35	17473	
497.54	17481	
497.74	15208	
497.94	17169	
498.14	18333	
498.34	18211	
498.53	15206	
498.73	15954	
498.93	17022	
499.13	17495	
499.33	16015	
499.52	16402	
499.72	17896	
499.92	17869	
500.12	15649	
500.32	15990	
500.51	17962	
500.71	17830	
500.91	16934	
501.11	16294	
501.31	18002	
501.5	18329	
501.7	17074	
501.9	15997	
502.1	17775	
502.29	18084	
502.49	16595	
502.69	16692	
502.89	17875	
503.09	17842	
503.28	15205	
503.48	15397	
503.68	16853	
503.88	17091	
504.07	16311	
504.27	15797	
504.47	17320	
504.67	17243	
504.86	16281	
505.06	15877	
505.26	16775	
505.46	18628	
505.65	15543	
505.85	15799	
506.05	16465	
506.25	17021	
506.44	14657	
506.64	15502	
506.84	16360	
507.04	17327	
507.23	14571	
507.43	15400	
507.63	18236	
507.83	16509	
508.02	15210	
508.22	14926	
508.42	18527	
508.62	16115	
508.81	14876	
509.01	15757	
509.21	15841	
509.4	16171	
509.6	15279	
509.8	14674	
510	16118	
510.19	17791	
510.39	14626	
510.59	14615	
510.79	16038	
510.98	17578	
511.18	14758	
511.38	15172	
511.57	16920	
511.77	16833	
511.97	15621	
512.17	14412	
512.36	16941	
512.56	16865	
512.76	14470	
512.95	14208	
513.15	16919	
513.35	15575	
513.55	15518	
513.74	14541	
513.94	16890	
514.14	16150	
514.33	15633	
514.53	15365	
514.73	16335	
514.92	16545	
515.12	14743	
515.32	14755	
515.51	16670	
515.71	17397	
515.91	16567	
516.11	14738	
516.3	18600	
516.5	16187	
516.7	15292	
516.89	16125	
517.09	16446	
517.29	16277	
517.48	15616	
517.68	14998	
517.88	16217	
518.07	16858	
518.27	15698	
518.47	14589	
518.66	17387	
518.86	15956	
519.06	14454	
519.25	14844	
519.45	16250	
519.65	18064	
519.84	15504	
520.04	16313	
520.24	18301	
520.43	16911	
520.63	15193	
520.83	14943	
521.02	16053	
521.22	16799	
521.42	15341	
521.61	16033	
521.81	16352	
522.01	16452	
522.2	15367	
522.4	14924	
522.6	16929	
522.79	15907	
522.99	15186	
523.18	14664	
523.38	16978	
523.58	17206	
523.77	16853	
523.97	14878	
524.17	19215	
524.36	18357	
524.56	16732	
524.76	16195	
524.95	17594	
525.15	17178	
525.34	16212	
525.54	16255	
525.74	18069	
525.93	17177	
526.13	17715	
526.33	16221	
526.52	18575	
526.72	17980	
526.91	17745	
527.11	17017	
527.31	18751	
527.5	19273	
527.7	17045	
527.89	16077	
528.09	17758	
528.29	18542	
528.48	17395	
528.68	16940	
528.87	18828	
529.07	18800	
529.27	17024	
529.46	16425	
529.66	18401	
529.85	18869	
530.05	16318	
530.25	17131	
530.44	19886	
530.64	18363	
530.83	16765	
531.03	17183	
531.23	18868	
531.42	18688	
531.62	18041	
531.81	17053	
532.01	19101	
532.21	19833	
532.4	17106	
532.6	17838	
532.79	20400	
532.99	19787	
533.18	17813	
533.38	18841	
533.58	19343	
533.77	20005	
533.97	18044	
534.16	18885	
534.36	20554	
534.55	19467	
534.75	19302	
534.95	18155	
535.14	20502	
535.34	19445	
535.53	17665	
535.73	19804	
535.92	20847	
536.12	19544	
536.31	17740	
536.51	18831	
536.71	19701	
536.9	19207	
537.1	17854	
537.29	18224	
537.49	20324	
537.68	19242	
537.88	18523	
538.07	17585	
538.27	19555	
538.46	20599	
538.66	17561	
538.86	18073	
539.05	19603	
539.25	20133	
539.44	18659	
539.64	17813	
539.83	19394	
540.03	20517	
540.22	17576	
540.42	17593	
540.61	19428	
540.81	19791	
541	18200	
541.2	19002	
541.39	18791	
541.59	19480	
541.78	18571	
541.98	17456	
542.18	18528	
542.37	18530	
542.57	17663	
542.76	18454	
542.96	18357	
543.15	19123	
543.35	17529	
543.54	16949	
543.74	19261	
543.93	18779	
544.13	17230	
544.32	18473	
544.52	18790	
544.71	18133	
544.91	16290	
545.1	17622	
545.3	18333	
545.49	18998	
545.69	16109	
545.88	16779	
546.08	19897	
546.27	19402	
546.47	17326	
546.66	16561	
546.86	19066	
547.05	19695	
547.24	16808	
547.44	16675	
547.63	17806	
547.83	19089	
548.02	17062	
548.22	17261	
548.41	17615	
548.61	18965	
548.8	16264	
549	16421	
549.19	18149	
549.39	18583	
549.58	15962	
549.78	16531	
549.97	18471	
550.17	17832	
550.36	17318	
550.55	18430	
550.75	17884	
550.94	18897	
551.14	16120	
551.33	16269	
551.53	17170	
551.72	18348	
551.92	16520	
552.11	16300	
552.31	18275	
552.5	18195	
552.69	18028	
552.89	15693	
553.08	18079	
553.28	17798	
553.47	16231	
553.67	17363	
553.86	18772	
554.06	16942	
554.25	15072	
554.44	15877	
554.64	19396	
554.83	18915	
555.03	15784	
555.22	16294	
555.42	18086	
555.61	17760	
555.8	15948	
556	16197	
556.19	16801	
556.39	18276	
556.58	15900	
556.78	15827	
556.97	17681	
557.16	17469	
557.36	17251	
557.55	15500	
557.75	16386	
557.94	18394	
558.13	15615	
558.33	15393	
558.52	18315	
558.72	16939	
558.91	15360	
559.1	15520	
559.3	16656	
559.49	16178	
559.69	14947	
559.88	15881	
560.07	17410	
560.27	17804	
560.46	16025	
560.66	16094	
560.85	17094	
561.04	16281	
561.24	15167	
561.43	15345	
561.63	16436	
561.82	16774	
562.01	16725	
562.21	15806	
562.4	17055	
562.59	18357	
562.79	15427	
562.98	15188	
563.18	17103	
563.37	18880	
563.56	16156	
563.76	15294	
563.95	16794	
564.14	16684	
564.34	15661	
564.53	15359	
564.73	17344	
564.92	17654	
565.11	15882	
565.31	15249	
565.5	17983	
565.69	16888	
565.89	15421	
566.08	15724	
566.27	17802	
566.47	18320	
566.66	16550	
566.85	15008	
567.05	17405	
567.24	16792	
567.44	15463	
567.63	16800	
567.82	17707	
568.02	17410	
568.21	15375	
568.4	15730	
568.6	17287	
568.79	17275	
568.98	15255	
569.18	15482	
569.37	17240	
569.56	19378	
569.76	15928	
569.95	16952	
570.14	17570	
570.34	17608	
570.53	15199	
570.72	15177	
570.91	18065	
571.11	17116	
571.3	15736	
571.49	16520	
571.69	17304	
571.88	16664	
572.07	16309	
572.27	16081	
572.46	16661	
572.65	17875	
572.85	15527	
573.04	15857	
573.23	18267	
573.43	17433	
573.62	15159	
573.81	16148	
574	17503	
574.2	17382	
574.39	15831	
574.58	16118	
574.78	18645	
574.97	17758	
575.16	16522	
575.36	16735	
575.55	18202	
575.74	18486	
575.93	15575	
576.13	16797	
576.32	17499	
576.51	18260	
576.71	15948	
576.9	17517	
577.09	18492	
577.28	17974	
577.48	16500	
577.67	15597	
577.86	17631	
578.05	18109	
578.25	16180	
578.44	16238	
578.63	17824	
578.83	19027	
579.02	15597	
579.21	17336	
579.4	18025	
579.6	17909	
579.79	16399	
579.98	18826	
580.17	18415	
580.37	18626	
580.56	15997	
580.75	16770	
580.94	19052	
581.14	18809	
581.33	17349	
581.52	16044	
581.71	18426	
581.91	18987	
582.1	15864	
582.29	16440	
582.48	18021	
582.68	18064	
582.87	16941	
583.06	16683	
583.25	18445	
583.45	17696	
583.64	17538	
583.83	18255	
584.02	17929	
584.21	18451	
584.41	17264	
584.6	16570	
584.79	18166	
584.98	19013	
585.18	16008	
585.37	15999	
585.56	17578	
585.75	18518	
585.94	15999	
586.14	16877	
586.33	18901	
586.52	17976	
586.71	16533	
586.91	16302	
587.1	17058	
587.29	18049	
587.48	15859	
587.67	15776	
587.87	17795	
588.06	17828	
588.25	16984	
588.44	16236	
588.63	17046	
588.83	17668	
589.02	15347	
589.21	14965	
589.4	16347	
589.59	16140	
589.78	13633	
589.98	13839	
590.17	15184	
590.36	15809	
590.55	12790	
590.74	13542	
590.94	16761	
591.13	15205	
591.32	13379	
591.51	12813	
591.7	15783	
591.89	15225	
592.09	13113	
592.28	13503	
592.47	14435	
592.66	16553	
592.85	13074	
593.05	13433	
593.24	15167	
593.43	16022	
593.62	13469	
593.81	14130	
594	15331	
594.19	15559	
594.39	13413	
594.58	13431	
594.77	15726	
594.96	16181	
595.15	13254	
595.34	13981	
595.54	15514	
595.73	14575	
595.92	12611	
596.11	13747	
596.3	16139	
596.49	14555	
596.68	13493	
596.88	14104	
597.07	15631	
597.26	14633	
597.45	13057	
597.64	14450	
597.83	14806	
598.02	15578	
598.22	13192	
598.41	13874	
598.6	15332	
598.79	14863	
598.98	13222	
599.17	14264	
599.36	15423	
599.55	16743	
599.74	15528	
599.94	15226	
600.13	15973	
600.32	14754	
600.51	12981	
600.7	13288	
600.89	16718	
601.08	16761	
601.27	13009	
601.47	14144	
601.66	15969	
601.85	16677	
602.04	13889	
602.23	13889	
602.42	14915	
602.61	15740	
602.8	13644	
602.99	13501	
603.18	15413	
603.37	15591	
603.57	14164	
603.76	14757	
603.95	16463	
604.14	16072	
604.33	13558	
604.52	13956	
604.71	15743	
604.9	15273	
605.09	14556	
605.28	14296	
605.47	16445	
605.66	15859	
605.86	14148	
606.05	13487	
606.24	16123	
606.43	14655	
606.62	13960	
606.81	14711	
607	16031	
607.19	15328	
607.38	13316	
607.57	13536	
607.76	14975	
607.95	14390	
608.14	13885	
608.33	14481	
608.52	15029	
608.72	16047	
608.91	13025	
609.1	12927	
609.29	14997	
609.48	14387	
609.67	14016	
609.86	12910	
610.05	14628	
610.24	14891	
610.43	12742	
610.62	12411	
610.81	16043	
611	15770	
611.19	12914	
611.38	13636	
611.57	15159	
611.76	16626	
611.95	12495	
612.14	12351	
612.33	14983	
612.52	14356	
612.71	13104	
612.9	12338	
613.09	14038	
613.28	16577	
613.47	12925	
613.66	13955	
613.85	14997	
614.04	14453	
614.24	13021	
614.43	12192	
614.62	15139	
614.81	14963	
615	13500	
615.19	13660	
615.38	14317	
615.57	14784	
615.76	13393	
615.95	14417	
616.14	15109	
616.33	14660	
616.52	13719	
616.71	13966	
616.9	15022	
617.09	14870	
617.28	13031	
617.47	14666	
617.66	14202	
617.85	14255	
618.04	14132	
618.22	13575	
618.41	14698	
618.6	15705	
618.79	13541	
618.98	13231	
619.17	16140	
619.36	14303	
619.55	13533	
619.74	13472	
619.93	15456	
620.12	14858	
620.31	14139	
620.5	14339	
620.69	16494	
620.88	16479	
621.07	15248	
621.26	14159	
621.45	15730	
621.64	15806	
621.83	14232	
622.02	13416	
622.21	15670	
622.4	15550	
622.59	14881	
622.78	14687	
622.97	15056	
623.16	16165	
623.35	14235	
623.54	13409	
623.72	15324	
623.91	15479	
624.1	14566	
624.29	13049	
624.48	16698	
624.67	15834	
624.86	14532	
625.05	13398	
625.24	16647	
625.43	15038	
625.62	16221	
625.81	13619	
626	15979	
626.19	15474	
626.38	14560	
626.56	13751	
626.75	15098	
626.94	15978	
627.13	14253	
627.32	12950	
627.51	15655	
627.7	17073	
627.89	13031	
628.08	14261	
628.27	14858	
628.46	15070	
628.65	13148	
628.83	12860	
629.02	15496	
629.21	14740	
629.4	13701	
629.59	13950	
629.78	14756	
629.97	15828	
630.16	14159	
630.35	13337	
630.54	16412	
630.72	15986	
630.91	13340	
631.1	14037	
631.29	15467	
631.48	15634	
631.67	14167	
631.86	13534	
632.05	15050	
632.24	15072	
632.42	13016	
632.61	13887	
632.8	15014	
632.99	14706	
633.18	13921	
633.37	14316	
633.56	15403	
633.75	15091	
633.93	13867	
634.12	13585	
634.31	16152	
634.5	15877	
634.69	13493	
634.88	13941	
635.07	15162	
635.25	15786	
635.44	14495	
635.63	14749	
635.82	15001	
636.01	14262	
636.2	14335	
636.39	13874	
636.57	16040	
636.76	15732	
636.95	13218	
637.14	14775	
637.33	15349	
637.52	16474	
637.7	12923	
637.89	14060	
638.08	14962	
638.27	16496	
638.46	14248	
638.65	14546	
638.83	16364	
639.02	14672	
639.21	13986	
639.4	14446	
639.59	15075	
639.78	14567	
639.96	13007	
640.15	12931	
640.34	14994	
640.53	15130	
640.72	12581	
640.91	12994	
641.09	14186	
641.28	15669	
641.47	12993	
641.66	13965	
641.85	15027	
642.03	15151	
642.22	13563	
642.41	12930	
642.6	14107	
642.79	13562	
642.97	12594	
643.16	13510	
643.35	14111	
643.54	13756	
643.73	12415	
643.91	13260	
644.1	13470	
644.29	14169	
644.48	12312	
644.67	12392	
644.85	13536	
645.04	13763	
645.23	11561	
645.42	12069	
645.6	13088	
645.79	14304	
645.98	11770	
646.17	10610	
646.36	12373	
646.54	13147	
646.73	12108	
646.92	10922	
647.11	12502	
647.29	13620	
647.48	10959	
647.67	10655	
647.86	13895	
648.05	13969	
648.23	11419	
648.42	12654	
648.61	13215	
648.8	13019	
648.98	10833	
649.17	11401	
649.36	12486	
649.55	12174	
649.73	11111	
649.92	11905	
650.11	12500	
650.3	12805	
650.48	11187	
650.67	10929	
650.86	12955	
651.05	11918	
651.23	11025	
651.42	10992	
651.61	12474	
651.79	12534	
651.98	11299	
652.17	10880	
652.36	12800	
652.54	11865	
652.73	10873	
652.92	10666	
653.11	12794	
653.29	12867	
653.48	10023	
653.67	11035	
653.85	12425	
654.04	13556	
654.23	11090	
654.42	10548	
654.6	11541	
654.79	12329	
654.98	9760.6	
655.16	10345	
655.35	11049	
655.54	10950	
655.73	9821.4	
655.91	9777	
656.1	12329	
656.29	11034	
656.47	9371.5	
656.66	11202	
656.85	11493	
657.03	11597	
657.22	10203	
657.41	10285	
657.59	11802	
657.78	11598	
657.97	9854.8	
658.16	10771	
658.34	12451	
658.53	12968	
658.72	11696	
658.9	12295	
659.09	11883	
659.28	12002	
659.46	10457	
659.65	10409	
659.84	11729	
660.02	12421	
660.21	10305	
660.4	10263	
660.58	12783	
660.77	12054	
660.96	10999	
661.14	9786.6	
661.33	13355	
661.52	13128	
661.7	9857.6	
661.89	13747	
662.08	11643	
662.26	11180	
662.45	10170	
662.64	10147	
662.82	12443	
663.01	11464	
663.2	10262	
663.38	11018	
663.57	12241	
663.75	12134	
663.94	10527	
664.13	11906	
664.31	11460	
664.5	12260	
664.69	10733	
664.87	11343	
665.06	11219	
665.25	12029	
665.43	11580	
665.62	11669	
665.8	12409	
665.99	11523	
666.18	10340	
666.36	10597	
666.55	12285	
666.74	12218	
666.92	10023	
667.11	11799	
667.29	11573	
667.48	12154	
667.67	11355	
667.85	10282	
668.04	11591	
668.22	11617	
668.41	10416	
668.6	10635	
668.78	11381	
668.97	11604	
669.15	10745	
669.34	9631.6	
669.53	11320	
669.71	11701	
669.9	9880.1	
670.08	10560	
670.27	11459	
670.46	11915	
670.64	10749	
670.83	10998	
671.01	11128	
671.2	11835	
671.38	10065	
671.57	9850.7	
671.76	12510	
671.94	13136	
672.13	9755.8	
672.31	10871	
672.5	12125	
672.69	11312	
672.87	9946.3	
673.06	10293	
673.24	11942	
673.43	11363	
673.61	10586	
673.8	10309	
673.98	12007	
674.17	12239	
674.36	10865	
674.54	10695	
674.73	11658	
674.91	11955	
675.1	10425	
675.28	9970.9	
675.47	11649	
675.65	12271	
675.84	10210	
676.03	10514	
676.21	11312	
676.4	10770	
676.58	11055	
676.77	10819	
676.95	12766	
677.14	11229	
677.32	9867.8	
677.51	9608.4	
677.69	11963	
677.88	10848	
678.06	9656.9	
678.25	9788.6	
678.44	11567	
678.62	11209	
678.81	9450	
678.99	10476	
679.18	12435	
679.36	11882	
679.55	10135	
679.73	10805	
679.92	11812	
680.1	11224	
680.29	11299	
680.47	10109	
680.66	11165	
680.84	12064	
681.03	9349.7	
681.21	10464	
681.4	11162	
681.58	10997	
681.77	9706	
681.95	9621.4	
682.14	12003	
682.32	12432	
682.51	10720	
682.69	9373.6	
682.88	11007	
683.06	11650	
683.25	10403	
683.43	10679	
683.62	11318	
683.8	11758	
683.99	10826	
684.17	9934	
684.36	12370	
684.54	10858	
684.73	8800.8	
684.91	9050.7	
685.1	10883	
685.28	10183	
685.46	9323.7	
685.65	9348.3	
685.83	10876	
686.02	10275	
686.2	8757.8	
686.39	8892.3	
686.57	9910.8	
686.76	11846	
686.94	8897.7	
687.13	9037.7	
687.31	10918	
687.5	10469	
687.68	8497.7	
687.86	9890.3	
688.05	12265	
688.23	9975.7	
688.42	10015	
688.6	9129.8	
688.79	10548	
688.97	10421	
689.16	9503.9	
689.34	8441	
689.52	11239	
689.71	11490	
689.89	9854.1	
690.08	9036.3	
690.26	10687	
690.45	10532	
690.63	9847.3	
690.81	9213.1	
691	10221	
691.18	10250	
691.37	9254.8	
691.55	11484	
691.74	9998.9	
691.92	12245	
692.1	9152.4	
692.29	8501.1	
692.47	10242	
692.66	9585.2	
692.84	8802.9	
693.02	9393.3	
693.21	9795.4	
693.39	10241	
693.58	9554.5	
693.76	8895	
693.94	11702	
694.13	11544	
694.31	9127.8	
694.5	10387	
694.68	10432	
694.86	10782	
695.05	9579	
695.23	10171	
695.42	11381	
695.6	13904	
695.78	10362	
695.97	9383.1	
696.15	11333	
696.34	10615	
696.52	9041.8	
696.7	9943.6	
696.89	10911	
697.07	10311	
697.25	9562.6	
697.44	11333	
697.62	10667	
697.81	11042	
697.99	9182.4	
698.17	9774.3	
698.36	9932.6	
698.54	10655	
698.72	9538.8	
698.91	8503.2	
699.09	10221	
699.28	10131	
699.46	9140.8	
699.64	8983.8	
699.83	9979.8	
700.01	11376	
700.19	9938.1	
700.38	8278.6	
700.56	11382	
700.74	10219	
700.93	8807.6	
701.11	9724.4	
701.29	10901	
701.48	12005	
701.66	9208.4	
701.84	9181	
702.03	10511	
702.21	11376	
702.39	8683.4	
702.58	9401.5	
702.76	10863	
702.94	11161	
703.13	8634.9	
703.31	11329	
703.49	10221	
703.68	11226	
703.86	8966.7	
704.04	9987.3	
704.23	10778	
704.41	11123	
704.59	9056.1	
704.78	10367	
704.96	11888	
705.14	11241	
705.33	8857.5	
705.51	9757.9	
705.69	10549	
705.87	11542	
706.06	10107	
706.24	8886.8	
706.42	10955	
706.61	11347	
706.79	10106	
706.97	8922.3	
707.16	10389	
707.34	11105	
707.52	10038	
707.7	9168.8	
707.89	10526	
708.07	10245	
708.25	10084	
708.44	10325	
708.62	10415	
708.8	11706	
708.98	10355	
709.17	9308	
709.35	10968	
709.53	10955	
709.72	8987.2	
709.9	9410.4	
710.08	11069	
710.26	11213	
710.45	10590	
710.63	9196.7	
710.81	10764	
710.99	10741	
711.18	9762.7	
711.36	9228.8	
711.54	10527	
711.72	11191	
711.91	9155.1	
712.09	8499.8	
712.27	10576	
712.45	11092	
712.64	9206.3	
712.82	8151.6	
713	9633	
713.18	9829.6	
713.37	8104.5	
713.55	9301.9	
713.73	10346	
713.91	8776.9	
714.1	7966.6	
714.28	7324.9	
714.46	9505.3	
714.64	8523	
714.83	6373.3	
715.01	7236.2	
715.19	8277.9	
715.37	7595.9	
715.55	6691.4	
715.74	6986.3	
715.92	9192.6	
716.1	7081.2	
716.28	8174.8	
716.47	7130.3	
716.65	7742	
716.83	7897.7	
717.01	6967.2	
717.19	6956.3	
717.38	10046	
717.56	7524.2	
717.74	7286.7	
717.92	6396.5	
718.1	8966	
718.29	8228.1	
718.47	6218.3	
718.65	7075.7	
718.83	9261.6	
719.01	9256.1	
719.2	6488	
719.38	7598.6	
719.56	9050	
719.74	10657	
719.92	7131	
720.11	8145.5	
720.29	8896.4	
720.47	7886.7	
720.65	6542.6	
720.83	7309.9	
721.02	8025.3	
721.2	7679.9	
721.38	7173.4	
721.56	6391	
721.74	7114	
721.92	7414.3	
722.11	7570	
722.29	7288.7	
722.47	8697	
722.65	7749.5	
722.83	6346	
723.01	7376.1	
723.2	7856	
723.38	8179.6	
723.56	5682.4	
723.74	7049.8	
723.92	7372	
724.1	8672.5	
724.29	6277.7	
724.47	7509.2	
724.65	7395.9	
724.83	7365.2	
725.01	6087.2	
725.19	7129	
725.37	7436.2	
725.56	7499.7	
725.74	6087.9	
725.92	6386.2	
726.1	7466.2	
726.28	7662.8	
726.46	6737.8	
726.64	6436.1	
726.83	7618.4	
727.01	7917.4	
727.19	5956.2	
727.37	6870.3	
727.55	7746.1	
727.73	8397.4	
727.91	5999.9	
728.09	5832.6	
728.28	8362.5	
728.46	9155.8	
728.64	7045.7	
728.82	7076.4	
729	9730.6	
729.18	8944.8	
729.36	6466.1	
729.54	8911.4	
729.72	10292	
729.91	8382.3	
730.09	8593.3	
730.27	7339.9	
730.45	8404.2	
730.63	9098.4	
730.81	8065.6	
730.99	7016.3	
731.17	9715.6	
731.35	8232.2	
731.53	7695.6	
731.71	7238.2	
731.9	9319.6	
732.08	9554.5	
732.26	7373.4	
732.44	7097.6	
732.62	9562	
732.8	9096.4	
732.98	7804.1	
733.16	6764.4	
733.34	9031.5	
733.52	7656	
733.7	7271.7	
733.88	7712	
734.07	8715.5	
734.25	8599.4	
734.43	6829.3	
734.61	8538.7	
734.79	10289	
734.97	8504.5	
735.15	6978.1	
735.33	7415	
735.51	8852.7	
735.69	8510.7	
735.87	8710	
736.05	7610.3	
736.23	8649.9	
736.41	8466.3	
736.59	7419.8	
736.77	7546.1	
736.95	9271.8	
737.13	8675.9	
737.32	7087.3	
737.5	7371.3	
737.68	9936.1	
737.86	8518.9	
738.04	6826.6	
738.22	8865.7	
738.4	8195.3	
738.58	8501.1	
738.76	7516.7	
738.94	6371.9	
739.12	8467	
739.3	8227.4	
739.48	8218.5	
739.66	7985.7	
739.84	8780.3	
740.02	8773.5	
740.2	6577.4	
740.38	7000.6	
740.56	9170.8	
740.74	7881.3	
740.92	7601.4	
741.1	7658	
741.28	8542.1	
741.46	8334.6	
741.64	7051.8	
741.82	7686.7	
742	8482.7	
742.18	8458.1	
742.36	7289.4	
742.54	6838.9	
742.72	9032.2	
742.9	7677.8	
743.08	7712	
743.26	6365.8	
743.44	9324.4	
743.62	9101.9	
743.8	7848.5	
743.98	6857.3	
744.16	8791.9	
744.34	8365.3	
744.52	7704.5	
744.7	7648.5	
744.88	8812.4	
745.06	8383.7	
745.24	7709.2	
745.42	7765.9	
745.6	8816.5	
745.78	8614.4	
745.96	6293.4	
746.14	6627.2	
746.32	9637.1	
746.5	8828.8	
746.68	7290.1	
746.86	6759.7	
747.03	9329.2	
747.21	7390.4	
747.39	7266.2	
747.57	6665.5	
747.75	8346.8	
747.93	8789.2	
748.11	6685.3	
748.29	6588.3	
748.47	10079	
748.65	7993.2	
748.83	7427.3	
749.01	7084.6	
749.19	8544.1	
749.37	7705.1	
749.55	6975.4	
749.73	6901	
749.91	8157.1	
750.09	7780.9	
750.26	7116.7	
750.44	6346.7	
750.62	8230.1	
750.8	8133.2	
750.98	6234.7	
751.16	6589.7	
751.34	8232.2	
751.52	7508.5	
751.7	7409.6	
751.88	6220.4	
752.06	8725	
752.24	8420.6	
752.42	6063.4	
752.59	6539.8	
752.77	8092.9	
752.95	9361.3	
753.13	7368.6	
753.31	6685.3	
753.49	7641	
753.67	8265.6	
753.85	6893.5	
754.03	6467.5	
754.21	8389.8	
754.38	8736	
754.56	6485.9	
754.74	5411.4	
754.92	7404.8	
755.1	8172.8	
755.28	5256.5	
755.46	5188.9	
755.64	8466.3	
755.82	8449.2	
755.99	5036	
756.17	5066	
756.35	5513.1	
756.53	7189.7	
756.71	3756	
756.89	4702.8	
757.07	6709.8	
757.25	5783.5	
757.42	5411.4	
757.6	6366.5	
757.78	6979.5	
757.96	5915.2	
758.14	5281	
758.32	4777.9	
758.5	5387.5	
758.67	6309.8	
758.85	4925.4	
759.03	5133.6	
759.21	6387.6	
759.39	5786.9	
759.57	4562.9	
759.75	5806	
759.92	7228	
760.1	6368.5	
760.28	6195.8	
760.46	6503.7	
760.64	6231.3	
760.82	6077	
760.99	5920.7	
761.17	5311.1	
761.35	7309.2	
761.53	6189.6	
761.71	5484.5	
761.89	6286.6	
762.06	7234.8	
762.24	6711.2	
762.42	5671.5	
762.6	5456.5	
762.78	6698.9	
762.96	7524.9	
763.13	6219.7	
763.31	5963	
763.49	7746.1	
763.67	6747.4	
763.85	6726.2	
764.02	7422.5	
764.2	7991.2	
764.38	7188.4	
764.56	5717.9	
764.74	6730.3	
764.91	8118.1	
765.09	6920.1	
765.27	5459.9	
765.45	5189.6	
765.63	8115.4	
765.8	8039.6	
765.98	4868	
766.16	5269.4	
766.34	6399.9	
766.52	6275.7	
766.69	6238.1	
766.87	4977.2	
767.05	6855.2	
767.23	7766.6	
767.41	5282.4	
767.58	5556.1	
767.76	7410.2	
767.94	7396.6	
768.12	5371.1	
768.29	6225.8	
768.47	6933.1	
768.65	7630	
768.83	4947.2	
769	6190.3	
769.18	6293.4	
769.36	7128.3	
769.54	6184.2	
769.72	4900.1	
769.89	7362.4	
770.07	7481.2	
770.25	5268.7	
770.43	6593.1	
770.6	8183	
770.78	8653.4	
770.96	5383.4	
771.14	6092.7	
771.31	7212.9	
771.49	6440.9	
771.67	4520.5	
771.85	4835.3	
772.02	5646.9	
772.2	6524.8	
772.38	5486.5	
772.55	5008	
772.73	6760.3	
772.91	6520.7	
773.09	5339.7	
773.26	5432.6	
773.44	6670.9	
773.62	6311.8	
773.8	4887.8	
773.97	4489.8	
774.15	6694.8	
774.33	6257.9	
774.5	4653.7	
774.68	5085.1	
774.86	6798.6	
775.04	6270.9	
775.21	4757.4	
775.39	4717.2	
775.57	6525.5	
775.74	7011.6	
775.92	4531.5	
776.1	4369.7	
776.27	6490	
776.45	7851.2	
776.63	4657.8	
776.81	4167.6	
776.98	6076.3	
777.16	7271	
777.34	4838	
777.51	5118.6	
777.69	6012.8	
777.87	5847.6	
778.04	4849.6	
778.22	5562.3	
778.4	5849.7	
778.57	6567.8	
778.75	4023.6	
778.93	4358.1	
779.1	5598.5	
779.28	5415.5	
779.46	4003.1	
779.64	4554.7	
779.81	6656.6	
779.99	7628	
780.17	5430.5	
780.34	5591	
780.52	6023.8	
780.69	6232.7	
780.87	4892.6	
781.05	4377.2	
781.22	6016.2	
781.4	6184.2	
781.58	4484.4	
781.75	3596.2	
781.93	6098.9	
782.11	5441.5	
782.28	5468.8	
782.46	4456.4	
782.64	5304.2	
782.81	6257.9	
782.99	4547.9	
783.17	4513	
783.34	6185.5	
783.52	5339.1	
783.69	4731.5	
783.87	5658.5	
784.05	5344.5	
784.22	5387.5	
784.4	5520	
784.58	4792.9	
784.75	6367.8	
784.93	5389.6	
785.1	4413.4	
785.28	5137	
785.46	6096.1	
785.63	5330.2	
785.81	4352.6	
785.99	4240.7	
786.16	5532.2	
786.34	5920.7	
786.51	4232.5	
786.69	4717.2	
786.87	5070.8	
787.04	5625.1	
787.22	4061.1	
787.39	5076.9	
787.57	5351.3	
787.75	6550.1	
787.92	5328.8	
788.1	5284.4	
788.27	5431.9	
788.45	5143.1	
788.63	4882.4	
788.8	3547.1	
788.98	5905.7	
789.15	5002.5	
789.33	3725.9	
789.5	4367	
789.68	6306.4	
789.86	6444.3	
790.03	4906.9	
790.21	4231.1	
790.38	6251.1	
790.56	5414.8	
790.73	4059.8	
790.91	4124.6	
791.09	5259.2	
791.26	6081.1	
791.44	4328.7	
791.61	3766.2	
791.79	5272.8	
791.96	5362.3	
792.14	3947.8	
792.32	3399.6	
792.49	5315.2	
792.67	5407.3	
792.84	3905.5	
793.02	3724.6	
793.19	5760.3	
793.37	6532.3	
793.54	3454.9	
793.72	3805.1	
793.89	6776	
794.07	5268.7	
794.25	4282.3	
794.42	3506.1	
794.6	6428.6	
794.77	6044.9	
794.95	4747.9	
795.12	4097.3	
795.3	5197.1	
795.47	5945.9	
795.65	4478.2	
795.82	4321.2	
796	5033.9	
796.17	7209.5	
796.35	4213.4	
796.52	5008	
796.7	5801.2	
796.87	5930.2	
797.05	5225.7	
797.22	5122	
797.4	5899.5	
797.57	7023.2	
797.75	4354.7	
797.92	4095.3	
798.1	6244.9	
798.27	5319.9	
798.45	3456.3	
798.62	3738.2	
798.8	5570.5	
798.97	6141.9	
799.15	4643.4	
799.32	4344.4	
799.5	4753.3	
799.67	5644.9	
799.85	4728.1	
800.02	3360	
800.2	5165.7	
800.37	5548.6	
800.55	4902.8	
800.72	4011.3	
800.9	6049.7	
801.07	6571.2	
801.25	5477	
801.42	4463.2	
801.6	6107.7	
801.77	5778	
801.95	4162.8	
802.12	4001.7	
802.29	5778	
802.47	5738.4	
802.64	4493.9	
802.82	3368.9	
802.99	5200.5	
803.17	6220.4	
803.34	4313	
803.52	3902.1	
803.69	7023.9	
803.87	4945.2	
804.04	4237.9	
804.21	4444.8	
804.39	6449.7	
804.56	5404.6	
804.74	3616	
804.91	4537.6	
805.09	5151.3	
805.26	5270.8	
805.44	3775.1	
805.61	4104.8	
805.78	5878.4	
805.96	6114.6	
806.13	4454.3	
806.31	4850.3	
806.48	4724.7	
806.66	5298.8	
806.83	4425.7	
807	4394.9	
807.18	5157.5	
807.35	5623	
807.53	4319.8	
807.7	3480.2	
807.87	6468.9	
808.05	5265.3	
808.22	4782.7	
808.4	3429	
808.57	5285.8	
808.74	4861.2	
808.92	3955.3	
809.09	5063.3	
809.27	5072.1	
809.44	5808	
809.61	3463.1	
809.79	3889.1	
809.96	6429.3	
810.14	6031.3	
810.31	3343	
810.48	4177.9	
810.66	5327.4	
810.83	6134.3	
811.01	3951.9	
811.18	4375.8	
811.35	6018.3	
811.53	4640.7	
811.7	4781.3	
811.87	4511.7	
812.05	5212.8	
812.22	5119.2	
812.39	3887	
812.57	3756	
812.74	5258.5	
812.92	7008.8	
813.09	4130.8	
813.26	4556	
813.44	6804.7	
813.61	5229.8	
813.78	3430.3	
813.96	4624.3	
814.13	5285.1	
814.3	4947.2	
814.48	5029.8	
814.65	4163.5	
814.82	6520.7	
815	5014.1	
815.17	4278.2	
815.34	5247.6	
815.52	5122.7	
815.69	5201.2	
815.87	4239.3	
816.04	3705.5	
816.21	5301.5	
816.38	4600.4	
816.56	4126	
816.73	3760.1	
816.9	6651.1	
817.08	6046.3	
817.25	3863.8	
817.42	4819.6	
817.6	4790.2	
817.77	5256.5	
817.94	4384.7	
818.12	3749.8	
818.29	4922.6	
818.46	7933.1	
818.64	3946.4	
818.81	3682.9	
818.98	4883	
819.16	7240.9	
819.33	4565.6	
819.5	4316.4	
819.67	5629.2	
819.85	6361	
820.02	4188.1	
820.19	4441.4	
820.37	5472.2	
820.54	5020.9	
820.71	4326.7	
820.88	5432.6	
821.06	5461.9	
821.23	4995	
821.4	4333.5	
821.58	4272.1	
821.75	6044.9	
821.92	5435.3	
822.09	3463.1	
822.27	3645.4	
822.44	5299.5	
822.61	5131.5	
822.79	3492.5	
822.96	6822.5	
823.13	5768.4	
823.3	4952	
823.48	4055.7	
823.65	3654.9	
823.82	6012.8	
823.99	4715.1	
824.17	5175.2	
824.34	3700.7	
824.51	6780.8	
824.68	5334.3	
824.86	3887.7	
825.03	4337.6	
825.2	5221.6	
825.37	6429.3	
825.55	3834.5	
825.72	4319.2	
825.89	7103.7	
826.06	6505	
826.24	4114.4	
826.41	4171	
826.58	6402	
826.75	5601.9	
826.92	3318.4	
827.1	3647.4	
827.27	8798.1	
827.44	6986.3	
827.61	3982.6	
827.79	4816.8	
827.96	4924	
828.13	5375.9	
828.3	4106.9	
828.47	3478.1	
828.65	5488.6	
828.82	5436	
828.99	5341.1	
829.16	4716.5	
829.34	5849.7	
829.51	5675.6	
829.68	4260.5	
829.85	4499.4	
830.02	6181.5	
830.2	5911.8	
830.37	3321.1	
830.54	5231.2	
830.71	6726.9	
830.88	5212.8	
831.05	3362.8	
831.23	3917.1	
831.4	6425.2	
831.57	7230	
831.74	3969	
831.91	3519.1	
832.09	5420.3	
832.26	5847.6	
832.43	4074.8	
832.6	4609.3	
832.77	5468.1	
832.94	6330.3	
833.12	3207.8	
833.29	4125.3	
833.46	5670.8	
833.63	7550.2	
833.8	4492.6	
833.97	4127.3	
834.15	5919.3	
834.32	5591	
834.49	4279.6	
834.66	4420.2	
834.83	6111.8	
835	4921.3	
835.17	3970.3	
835.35	4008.6	
835.52	5715.9	
835.69	5595.7	
835.86	4202.4	
836.03	3467.9	
836.2	5803.3	
836.37	5439.4	
836.55	4041.3	
836.72	3840.6	
836.89	5371.8	
837.06	5906.3	
837.23	4194.9	
837.4	4547.9	
837.57	6722.1	
837.75	7497.6	
837.92	3721.8	
838.09	4004.5	
838.26	5415.5	
838.43	6259.3	
838.6	4338.3	
838.77	3814.7	
838.94	7175.4	
839.11	6810.9	
839.29	4117.8	
839.46	3160	
839.63	5829.9	
839.8	5594.4	
839.97	4002.4	
840.14	3980.6	
840.31	5584.1	
840.48	5870.8	
840.65	3306.8	
840.82	4012	
841	5846.3	
841.17	5806.7	
841.34	3684.3	
841.51	3747.8	
841.68	5770.5	
841.85	5457.8	
842.02	3784.6	
842.19	3127.2	
842.36	5641.5	
842.53	5530.9	
842.7	3667.2	
842.87	4534.2	
843.05	7400	
843.22	5504.9	
843.39	3512.9	
843.56	3717.7	
843.73	5258.5	
843.9	5902.2	
844.07	5969.8	
844.24	4934.9	
844.41	8732.5	
844.58	5044.1	
844.75	3568.2	
844.92	3850.9	
845.09	5791.7	
845.26	5866.1	
845.43	3641.3	
845.6	3857.7	
845.77	5836	
845.94	5591	
846.12	4083	
846.29	4285	
846.46	6057.9	
846.63	5851	
846.8	3639.2	
846.97	4338.3	
847.14	6292	
847.31	5758.9	
847.48	4104.8	
847.65	4491.9	
847.82	6119.3	
847.99	6147.3	
848.16	4948.6	
848.33	4498	
848.5	5371.1	
848.67	6329.6	
848.84	3616	
849.01	3795.6	
849.18	5242.8	
849.35	4914.4	
849.52	4532.8	
849.69	3664.5	
849.86	6068.8	
850.03	6292	
850.2	3667.9	
850.37	4489.1	
850.54	6225.1	
850.71	5527.5	
850.88	4377.9	
851.05	3609.9	
851.22	5701.5	
851.39	6464.1	
851.56	3414	
851.73	4167.6	
851.9	5098.8	
852.07	6076.3	
852.24	4020.8	
852.41	3607.8	
852.58	5626.5	
852.75	5160.9	
852.92	4099.4	
853.09	3525.2	
853.26	5341.8	
853.43	6342.6	
853.6	3647.4	
853.77	3107.5	
853.94	6432.7	
854.11	5828.5	
854.28	5455.1	
854.44	3914.4	
854.61	6820.4	
854.78	6208.8	
854.95	3642	
855.12	4568.3	
855.29	4691.2	
855.46	6505.7	
855.63	3702	
855.8	5069.4	
855.97	5369.1	
856.14	6163.7	
856.31	5222.3	
856.48	3938.9	
856.65	5407.3	
856.82	5056.4	
856.99	3482.9	
857.16	3907.5	
857.33	7165.2	
857.49	5455.8	
857.66	3963.5	
857.83	4208.6	
858	5398.4	
858.17	5676.3	
858.34	3411.9	
858.51	3657.7	
858.68	6596.5	
858.85	6628.6	
859.02	4237.2	
859.19	4542.4	
859.36	5117.9	
859.52	5164.3	
859.69	3586	
859.86	4308.2	
860.03	5166.3	
860.2	6419	
860.37	3323.9	
860.54	3683.6	
860.71	6073.6	
860.88	6496.2	
861.05	4104.8	
861.21	4614.8	
861.38	6526.9	
861.55	4977.9	
861.72	3238.5	
861.89	4063.2	
862.06	6128.9	
862.23	6710.5	
862.4	3544.4	
862.56	3821.5	
862.73	5905.7	
862.9	5640.8	
863.07	4292.5	
863.24	3293.1	
863.41	4983.4	
863.58	5107	
863.75	3744.4	
863.91	4149.9	
864.08	6493.4	
864.25	6014.2	
864.42	4607.9	
864.59	5105.6	
864.76	6799.9	
864.93	5151.3	
865.09	3513.6	
865.26	3831.7	
865.43	6337.8	
865.6	6743.3	
865.77	3151.1	
865.94	3607.2	
866.1	6432	
866.27	6165.1	
866.44	5488.6	
866.61	3446.7	
866.78	5577.3	
866.95	5963.7	
867.11	3500.7	
867.28	3167.5	
867.45	6190.3	
867.62	5147.2	
867.79	4226.3	
867.96	3611.3	
868.12	5140.4	
868.29	6167.1	
868.46	3105.4	
868.63	4904.9	
868.8	6306.4	
868.97	6025.1	
869.13	3810.6	
869.3	3792.8	
869.47	5949.3	
869.64	6136.4	
869.81	3631.7	
869.97	3651.5	
870.14	5863.3	
870.31	6589	
870.48	3594.9	
870.65	4568.3	
870.81	5449.6	
870.98	5401.9	
871.15	4156.7	
871.32	3799.7	
871.48	5950.7	
871.65	6613.6	
871.82	3614.7	
871.99	4052.9	
872.16	7030.7	
872.32	6337.8	
872.49	3734.8	
872.66	3685.7	
872.83	6047	
872.99	5354.1	
873.16	4206.5	
873.33	3530.7	
873.5	5693.4	
873.67	5731.6	
873.83	3807.9	
874	4891.9	
874.17	5782.1	
874.34	7073	
874.5	4674.8	
874.67	4532.2	
874.84	6539.2	
875.01	5132.2	
875.17	5216.2	
875.34	3581.9	
875.51	5684.5	
875.68	6950.8	
875.84	4389.5	
876.01	5373.2	
876.18	6020.3	
876.34	5961.6	
876.51	3650.2	
876.68	3543	
876.85	5478.3	
877.01	6331	
877.18	5205.9	
877.35	3594.2	
877.52	5534.3	
877.68	5020.9	
877.85	3500.7	
878.02	3591.5	
878.18	5570.5	
878.35	5294	
878.52	2899.2	
878.69	4097.3	
878.85	6105.7	
879.02	5939.1	
879.19	5183.4	
879.35	3904.8	
879.52	6021.7	
879.69	6275	
879.86	3142.9	
880.02	4089.1	
880.19	5570.5	
880.36	6883.9	
880.52	4178.5	
880.69	4336.2	
880.86	6126.2	
881.02	6227.2	
881.19	4007.9	
881.36	3970.3	
881.52	6021.7	
881.69	5285.8	
881.86	3923.2	
882.02	3789.4	
882.19	6303	
882.36	7471.7	
882.52	3690.4	
882.69	5183.4	
882.86	5829.9	
883.02	5668.1	
883.19	4460.5	
883.36	4213.4	
883.52	6150.7	
883.69	7072.3	
883.86	3661.8	
884.02	3233.7	
884.19	6079.7	
884.36	5637.4	
884.52	4092.5	
884.69	3829.7	
884.86	5273.5	
885.02	6785.6	
885.19	4144.4	
885.36	4171.7	
885.52	5592.3	
885.69	5821	
885.86	5287.2	
886.02	4715.1	
886.19	6081.1	
886.35	5502.9	
886.52	4006.5	
886.69	5145.9	
886.85	5152	
887.02	6426.5	
887.19	6426.5	
887.35	6426.5	
887.52	6426.5	
887.68	6426.5	
887.85	6426.5	
888.02	6426.5	
888.18	6426.5	
888.35	6426.5	
888.51	6426.5	
888.68	6426.5	
888.85	6426.5	
889.01	6426.5	
889.18	6426.5	
889.35	6426.5	
889.51	6426.5	
889.68	6426.5	
889.84	6426.5	
890.01	6426.5	
890.17	6426.5	
890.34	6426.5	
890.51	6426.5	
890.67	6426.5	
890.84	6426.5	
891	6426.5	
891.17	6426.5	
891.34	6426.5	
891.5	6426.5	
891.67	6426.5	
891.83	6426.5	
892	6426.5	
892.16	6426.5	
892.33	6426.5	
892.5	6426.5	
892.66	6426.5	
892.83	6426.5	
892.99	6426.5	
893.16	6426.5	
893.32	6426.5	
893.49	6426.5	
893.65	6426.5	
893.82	6426.5	
893.99	6426.5	
894.15	6426.5	
894.32	6426.5	
894.48	6426.5	
894.65	6426.5	
894.81	6426.5	
894.98	6426.5	
895.14	6426.5	
895.31	6426.5	
895.47	6426.5	
895.64	6426.5	
895.81	6426.5	
895.97	6426.5	
896.14	6426.5	
896.3	6426.5	
896.47	6426.5	
896.63	6426.5	
896.8	6426.5	
896.96	6426.5	
897.13	6426.5	
897.29	6426.5	
897.46	6426.5	
897.62	6426.5	
897.79	6426.5	
897.95	6426.5	
898.12	6426.5	
898.28	6426.5	
898.45	6426.5	
898.61	6426.5	
898.78	6426.5	
898.94	6426.5	
899.11	6426.5	
899.27	6426.5	
899.44	6426.5	
899.6	6426.5	
899.77	6426.5	
899.93	6426.5	
900.1	6426.5	
900.26	6426.5	
900.43	6426.5	
900.59	6426.5	
900.76	6426.5	
900.92	6426.5	
901.09	6426.5	
901.25	6426.5	
901.42	6426.5	
901.58	6426.5	
901.75	6426.5	
901.91	6426.5	
902.07	6426.5	
902.24	6426.5	
902.4	6426.5	
902.57	6426.5	
902.73	6426.5	
902.9	6426.5	
903.06	6426.5	
903.23	6426.5	
903.39	6426.5	
903.56	6426.5	
903.72	6426.5	
903.88	6426.5	
904.05	6426.5	
904.21	6426.5	
904.38	6426.5	
904.54	6426.5	
904.71	6426.5	
904.87	6426.5	
905.03	6426.5	
905.2	6426.5	
905.36	6426.5	
905.53	6426.5	
905.69	6426.5	
905.86	6426.5	
906.02	6426.5	
906.18	6426.5	
906.35	6426.5	
906.51	6426.5	
906.68	6426.5	
906.84	6426.5	
907.01	6426.5	
907.17	6426.5	
907.33	6426.5	
907.5	6426.5	
907.66	6426.5	
907.83	6426.5	
907.99	6426.5	
908.15	6426.5	
908.32	6426.5	
908.48	6426.5	
908.65	6426.5	
908.81	6426.5	
908.97	6426.5	
909.14	6426.5	
909.3	6426.5	
909.47	6426.5	
909.63	6426.5	
909.79	6426.5	
909.96	6426.5	
910.12	6426.5	
910.28	6426.5	
910.45	6426.5	
910.61	6426.5	
910.78	6426.5	
910.94	6426.5	
911.1	6426.5	
911.27	6426.5	
911.43	6426.5	
911.59	6426.5	
911.76	6426.5	
911.92	6426.5	
912.08	6426.5	
912.25	6426.5	
912.41	6426.5	
912.57	6426.5	
912.74	6426.5	
912.9	6426.5	
913.07	6426.5	
913.23	6426.5	
913.39	6426.5	
913.56	6426.5	
913.72	6426.5	
913.88	6426.5	
914.05	6426.5	
914.21	6426.5	
914.37	6426.5	
914.54	6426.5	
914.7	6426.5	
914.86	6426.5	
915.03	6426.5	
915.19	6426.5	
