Wavelength	Intensities	
nm	a.u.	
179.22	1922.4	
179.44	1925.1	
179.65	1919.6	
179.86	1930.6	
180.08	1935.3	
180.29	4990.9	
180.51	3540.3	
180.72	5690.6	
180.94	6699.6	
181.15	3270.6	
181.37	3233.7	
181.58	5558.2	
181.79	5885.2	
182.01	3464.5	
182.22	3657.7	
182.44	5849	
182.65	4899.4	
182.87	4618.9	
183.08	4031.8	
183.29	6150.7	
183.51	5013.4	
183.72	3686.3	
183.94	5483.1	
184.15	5487.2	
184.37	5504.3	
184.58	3248.1	
184.79	4517.8	
185.01	5018.2	
185.22	5765.7	
185.44	4780.6	
185.65	3926	
185.86	5381.4	
186.08	4873.5	
186.29	3160	
186.51	3407.8	
186.72	5073.5	
186.94	5969.8	
187.15	3926	
187.36	4070	
187.58	7811.6	
187.79	5551.4	
188.01	4233.2	
188.22	6641.6	
188.43	6716.7	
188.65	5782.1	
188.86	3378.5	
189.08	4036.5	
189.29	5269.4	
189.5	5205.3	
189.72	3790.1	
189.93	3843.4	
190.15	6021	
190.36	7314	
190.57	4125.3	
190.79	4042	
191	6148	
191.22	6113.2	
191.43	4194.9	
191.64	3402.4	
191.86	6339.1	
192.07	6096.8	
192.29	3545	
192.5	3813.3	
192.71	6064	
192.93	5195	
193.14	3750.5	
193.35	3834.5	
193.57	5281.7	
193.78	6002.6	
194	2978.4	
194.21	3732.1	
194.42	4948.6	
194.64	5498.1	
194.85	4050.2	
195.07	4853	
195.28	5546.6	
195.49	4746.5	
195.71	5052.3	
195.92	3547.1	
196.13	5674.9	
196.35	5816.9	
196.56	5451.7	
196.78	4101.4	
196.99	7148.1	
197.2	6717.3	
197.42	4689.2	
197.63	4169.7	
197.84	4876.2	
198.06	5695.4	
198.27	3728	
198.48	5019.6	
198.7	5245.5	
198.91	5352	
199.13	4109.6	
199.34	4126	
199.55	5930.2	
199.77	4756.7	
199.98	3608.5	
200.19	4194.2	
200.41	5369.1	
200.62	5021.6	
200.83	4304.8	
201.05	4614.8	
201.26	5390.9	
201.47	5102.9	
201.69	3642	
201.9	3509.5	
202.11	5430.5	
202.33	6442.9	
202.54	3884.3	
202.76	4330.8	
202.97	5594.4	
203.18	5604.6	
203.4	4289.1	
203.61	4163.5	
203.82	5578.7	
204.04	5102.9	
204.25	4148.5	
204.46	4054.3	
204.68	5453.1	
204.89	5767.1	
205.1	4046.1	
205.32	3501.3	
205.53	5923.4	
205.74	6029.9	
205.96	2943.6	
206.17	4225.6	
206.38	5843.5	
206.6	5947.3	
206.81	4713.1	
207.02	3838.6	
207.24	5735	
207.45	6128.2	
207.66	3907.5	
207.88	3329.3	
208.09	5653.8	
208.3	5456.5	
208.52	3568.9	
208.73	4026.3	
208.94	5502.9	
209.15	6239.5	
209.37	3959.4	
209.58	4145.8	
209.79	6043.6	
210.01	5189.6	
210.22	3092.4	
210.43	3244	
210.65	5550	
210.86	5885.9	
211.07	3903.4	
211.29	3636.5	
211.5	5841.5	
211.71	5409.4	
211.93	3624.2	
212.14	3581.9	
212.35	5380	
212.56	5654.4	
212.78	4122.6	
212.99	3360	
213.2	6492.1	
213.42	5223.7	
213.63	3764.8	
213.84	3975.8	
214.06	4786.1	
214.27	4960.2	
214.48	3936.2	
214.69	4153.3	
214.91	6127.5	
215.12	6228.6	
215.33	4274.1	
215.55	4715.1	
215.76	6796.5	
215.97	5838.8	
216.18	4134.8	
216.4	3966.9	
216.61	5109	
216.82	6008.7	
217.04	3635.8	
217.25	3812	
217.46	6123.4	
217.67	5868.1	
217.89	3232.4	
218.1	3330.7	
218.31	5577.3	
218.53	5608	
218.74	3764.8	
218.95	3677.5	
219.16	5410.1	
219.38	6402.6	
219.59	3723.2	
219.8	4384.7	
220.01	7141.3	
220.23	5471.5	
220.44	4884.4	
220.65	3603.7	
220.87	5513.8	
221.08	6134.3	
221.29	3349.8	
221.5	4463.2	
221.72	7523.6	
221.93	5176.6	
222.14	4144.4	
222.35	4891.2	
222.57	5588.9	
222.78	5816.9	
222.99	3979.2	
223.2	4273.4	
223.42	5786.9	
223.63	5957.5	
223.84	2997.5	
224.05	3004.4	
224.27	7055.9	
224.48	6400.6	
224.69	4856.4	
224.9	4134.2	
225.12	5690.6	
225.33	5375.9	
225.54	3322.5	
225.75	3638.6	
225.97	5021.6	
226.18	5275.6	
226.39	3979.2	
226.6	3747.8	
226.82	5205.9	
227.03	5051	
227.24	4164.9	
227.45	3431	
227.67	5844.9	
227.88	6433.4	
228.09	4638	
228.3	4689.8	
228.52	5901.6	
228.73	5404.6	
228.94	3783.3	
229.15	3433.8	
229.36	5351.3	
229.58	5319.9	
229.79	3842	
230	4497.3	
230.21	6555.5	
230.43	5614.8	
230.64	4085	
230.85	4339	
231.06	5947.3	
231.28	5880.4	
231.49	3442	
231.7	4052.2	
231.91	5816.2	
232.12	5501.5	
232.34	3470.6	
232.55	4035.9	
232.76	6118.6	
232.97	5631.2	
233.18	3622.2	
233.4	4095.3	
233.61	5730.9	
233.82	5295.4	
234.03	3751.9	
234.25	3756	
234.46	7645.8	
234.67	5517.9	
234.88	4268	
235.09	3665.9	
235.31	5826.5	
235.52	5345.9	
235.73	4121.9	
235.94	3476.8	
236.15	5196.4	
236.37	6694.8	
236.58	3641.3	
236.79	3960.1	
237	5792.3	
237.21	4996.4	
237.43	4209.3	
237.64	3331.4	
237.85	10099	
238.06	5032.5	
238.27	4371	
238.48	3467.2	
238.7	5881.1	
238.91	5304.2	
239.12	3966.2	
239.33	4001	
239.54	5012.7	
239.76	5350.7	
239.97	3917.8	
240.18	3979.9	
240.39	6940.6	
240.6	5771.2	
240.82	4082.3	
241.03	3414	
241.24	5478.3	
241.45	6410.1	
241.66	3592.1	
241.87	4234.5	
242.09	6226.5	
242.3	6588.3	
242.51	4323.9	
242.72	3900	
242.93	5934.3	
243.14	5384.8	
243.36	4571.7	
243.57	4982.7	
243.78	6369.2	
243.99	5836	
244.2	4029.7	
244.41	3602.4	
244.63	4996.4	
244.84	5755.5	
245.05	4225	
245.26	3994.9	
245.47	5739.1	
245.68	6059.3	
245.9	5274.9	
246.11	4154	
246.32	5280.3	
246.53	5720.7	
246.74	6440.9	
246.95	3317.7	
247.16	4927.4	
247.38	5457.8	
247.59	3269.9	
247.8	3981.3	
248.01	5162.9	
248.22	5418.9	
248.43	3574.4	
248.64	3890.5	
248.86	4822.3	
249.07	5244.2	
249.28	3457.7	
249.49	4087.7	
249.7	6035.4	
249.91	6176	
250.12	3310.2	
250.34	3382.6	
250.55	5640.1	
250.76	5502.9	
250.97	4078.9	
251.18	4091.8	
251.39	6172.6	
251.6	5688.6	
251.81	4223.6	
252.03	4204.5	
252.24	5190.9	
252.45	6062.7	
252.66	3426.3	
252.87	4440	
253.08	5532.9	
253.29	7281.2	
253.5	3449.5	
253.72	4817.5	
253.93	5305.6	
254.14	6524.1	
254.35	3712.3	
254.56	3887.7	
254.77	5791.7	
254.98	5043.5	
255.19	3686.3	
255.41	4804.5	
255.62	5593.7	
255.83	6189.6	
256.04	4183.3	
256.25	4213.4	
256.46	6858	
256.67	5169.8	
256.88	4066.6	
257.09	4553.3	
257.31	5160.9	
257.52	5205.9	
257.73	5166.3	
257.94	3763.5	
258.15	5339.1	
258.36	5541.1	
258.57	4764.9	
258.78	2988	
258.99	5969.8	
259.2	5328.1	
259.41	3787.4	
259.63	3851.5	
259.84	6335	
260.05	6806.1	
260.26	4980	
260.47	3647.4	
260.68	6080.4	
260.89	5375.9	
261.1	4570.4	
261.31	3592.8	
261.52	6075.6	
261.73	6495.5	
261.95	4917.2	
262.16	4267.3	
262.37	6251.8	
262.58	6341.9	
262.79	4834.6	
263	3820.1	
263.21	5450.3	
263.42	4965	
263.63	3882.3	
263.84	3808.5	
264.05	6031.3	
264.26	6472.9	
264.47	4754.7	
264.69	4319.2	
264.9	6236.1	
265.11	5780.7	
265.32	3658.4	
265.53	3723.9	
265.74	5638.7	
265.95	4845.5	
266.16	4057	
266.37	4487.8	
266.58	5608.7	
266.79	5325.4	
267	3730.7	
267.21	3422.2	
267.42	5091.3	
267.63	5452.4	
267.84	3946.4	
268.06	3397.6	
268.27	5927.5	
268.48	6261.3	
268.69	3812.6	
268.9	4614.1	
269.11	6262.7	
269.32	4945.8	
269.53	3975.1	
269.74	3713	
269.95	5797.1	
270.16	4832.5	
270.37	3928.7	
270.58	4552	
270.79	5337	
271	6016.9	
271.21	4204.5	
271.42	4019.5	
271.63	5642.2	
271.84	5128.1	
272.05	3135.4	
272.26	3598.3	
272.47	5514.5	
272.68	5677	
272.89	3779.9	
273.11	4385.4	
273.32	5279	
273.53	6455.2	
273.74	4248.2	
273.95	4218.1	
274.16	6124.1	
274.37	5581.4	
274.58	4308.2	
274.79	3457	
275	5615.5	
275.21	6203.3	
275.42	5225.7	
275.63	4487.8	
275.84	5737.7	
276.05	7277.8	
276.26	4130.1	
276.47	3882.9	
276.68	5304.9	
276.89	6608.1	
277.1	4496.7	
277.31	3491.8	
277.52	5822.4	
277.73	5896.1	
277.94	3397.6	
278.15	3863.2	
278.36	5638.7	
278.57	5105.6	
278.78	3834.5	
278.99	4339	
279.2	5110.4	
279.41	5086.5	
279.62	5083.7	
279.83	3549.8	
280.04	6772.6	
280.25	5016.8	
280.46	5045.5	
280.67	3944.4	
280.88	5069.4	
281.09	6243.6	
281.3	4206.5	
281.51	5291.3	
281.72	5230.5	
281.93	6001.2	
282.14	3705.5	
282.35	3961.5	
282.56	5999.9	
282.77	5940.5	
282.98	3786.7	
283.19	4716.5	
283.4	7489.4	
283.61	5438	
283.82	3528	
284.03	4990.2	
284.24	5604.6	
284.45	6163.7	
284.66	4915.8	
284.87	4773.8	
285.08	6106.4	
285.29	6227.9	
285.5	3336.8	
285.71	3859.1	
285.92	6178.7	
286.12	6823.8	
286.33	4827.1	
286.54	3863.8	
286.75	6014.2	
286.96	5362.9	
287.17	3536.2	
287.38	4793.6	
287.59	5134.3	
287.8	5003.9	
288.01	3882.3	
288.22	4511	
288.43	6026.5	
288.64	4989.5	
288.85	4651.6	
289.06	4424.3	
289.27	5905.7	
289.48	6420.4	
289.69	4943.1	
289.9	4508.9	
290.11	6158.2	
290.32	5223	
290.53	4702.8	
290.74	4280.3	
290.94	5950	
291.15	6016.9	
291.36	3710.9	
291.57	4415.4	
291.78	5209.3	
291.99	4926	
292.2	3518.4	
292.41	4296.6	
292.62	6094.1	
292.83	5803.9	
293.04	5279	
293.25	3617.4	
293.46	5328.1	
293.67	6050.4	
293.88	3720.5	
294.09	3583.9	
294.29	5001.8	
294.5	5670.1	
294.71	4025.6	
294.92	3812.6	
295.13	5252.4	
295.34	6587.6	
295.55	3343.7	
295.76	3435.8	
295.97	5976.7	
296.18	6730.3	
296.39	3506.1	
296.6	3719.8	
296.81	5569.8	
297.01	5903.6	
297.22	3942.3	
297.43	3712.3	
297.64	5107	
297.85	5114.5	
298.06	3060.3	
298.27	3280.8	
298.48	5570.5	
298.69	5218.2	
298.9	4052.9	
299.11	3644.7	
299.31	4930.8	
299.52	4991.6	
299.73	4348.5	
299.94	4203.8	
300.15	5456.5	
300.36	5085.1	
300.57	4281.6	
300.78	4166.3	
300.99	5334.3	
301.2	5649.7	
301.4	3682.2	
301.61	4037.2	
301.82	5831.9	
302.03	5937.7	
302.24	4531.5	
302.45	3475.4	
302.66	5786.2	
302.87	6290.7	
303.08	3725.9	
303.29	5128.8	
303.49	5256.5	
303.7	5497.4	
303.91	3339.6	
304.12	4918.5	
304.33	5025	
304.54	5644.9	
304.75	3822.9	
304.96	3531.4	
305.16	5835.3	
305.37	6596.5	
305.58	3195.5	
305.79	3368.9	
306	5857.9	
306.21	4868.7	
306.42	3652.2	
306.63	5756.8	
306.83	5356.8	
307.04	6105.7	
307.25	4143.7	
307.46	4106.9	
307.67	4694.6	
307.88	6007.4	
308.09	3606.5	
308.29	3816.7	
308.5	5591	
308.71	6084.5	
308.92	3967.6	
309.13	3602.4	
309.34	5357.5	
309.55	5410.7	
309.75	4667.3	
309.96	4252.9	
310.17	5968.5	
310.38	5139.7	
310.59	4483.7	
310.8	3498.6	
311.01	6504.3	
311.21	5317.9	
311.42	3484.3	
311.63	3674.1	
311.84	5276.9	
312.05	5636	
312.26	4157.4	
312.46	4473.4	
312.67	5306.3	
312.88	5018.2	
313.09	3571	
313.3	3491.8	
313.51	6414.9	
313.71	6679.8	
313.92	3564.8	
314.13	3830.4	
314.34	5727.5	
314.55	5406	
314.76	4633.9	
314.96	4006.5	
315.17	5535	
315.38	6003.3	
315.59	3586.7	
315.8	3466.5	
316.01	6298.2	
316.21	6401.3	
316.42	3521.1	
316.63	4010.6	
316.84	5360.2	
317.05	6168.5	
317.26	4287.1	
317.46	3833.1	
317.67	5350	
317.88	5926.1	
318.09	4603.8	
318.3	3340.2	
318.5	5154.1	
318.71	5814.9	
318.92	5885.9	
319.13	4229.7	
319.34	6007.4	
319.54	6184.9	
319.75	3341.6	
319.96	3168.9	
320.17	5929.6	
320.38	6077	
320.58	3267.9	
320.79	3978.5	
321	6083.1	
321.21	6161	
321.42	4006.5	
321.62	3269.2	
321.83	5065.3	
322.04	5512.4	
322.25	3797.6	
322.46	3632.4	
322.66	5625.1	
322.87	5781.4	
323.08	4446.1	
323.29	3578.5	
323.5	6623.1	
323.7	5030.5	
323.91	5010	
324.12	4452.3	
324.33	5509	
324.53	5881.1	
324.74	4242.7	
324.95	4457.7	
325.16	4823	
325.37	5313.1	
325.57	3634.5	
325.78	3677.5	
325.99	5513.8	
326.2	5006.6	
326.4	5221	
326.61	3345.7	
326.82	5438	
327.03	5596.4	
327.24	5188.9	
327.44	4803.2	
327.65	5807.4	
327.86	4595	
328.07	4182.6	
328.27	3464.5	
328.48	6178	
328.69	5094	
328.9	5227.8	
329.1	3908.2	
329.31	5388.2	
329.52	6345.3	
329.73	3611.3	
329.93	4106.2	
330.14	5480.4	
330.35	5802.6	
330.56	5975.3	
330.76	4481.6	
330.97	5279.7	
331.18	5662	
331.39	4017.4	
331.59	3201	
331.8	6096.8	
332.01	6247	
332.22	3716.4	
332.42	4298.7	
332.63	5650.3	
332.84	5208	
333.05	4018.8	
333.25	3730	
333.46	5281.7	
333.67	5517.9	
333.88	3762.1	
334.08	4256.4	
334.29	7380.9	
334.5	6149.4	
334.7	3478.8	
334.91	5114.5	
335.12	5031.9	
335.33	5952.8	
335.53	3951.9	
335.74	5966.4	
335.95	5274.9	
336.16	5116.5	
336.36	3966.9	
336.57	4610	
336.78	4982	
336.98	6137.8	
337.19	5013.4	
337.4	3889.8	
337.61	6712.6	
337.81	4977.9	
338.02	3692.5	
338.23	4795	
338.43	6299.6	
338.64	5104.9	
338.85	3648.1	
339.05	4750.6	
339.26	6382.8	
339.47	4898.1	
339.68	3554.6	
339.88	5396.4	
340.09	5788.2	
340.3	5976.7	
340.5	4272.7	
340.71	3226.2	
340.92	4962.9	
341.13	6216.3	
341.33	3506.8	
341.54	4296.6	
341.75	5696.8	
341.95	5401.2	
342.16	4048.2	
342.37	4396.3	
342.57	5113.1	
342.78	5436.7	
342.99	4490.5	
343.19	3227.6	
343.4	5840.1	
343.61	5737.7	
343.81	3851.5	
344.02	3546.4	
344.23	5937.7	
344.43	6266.1	
344.64	4478.2	
344.85	4398.4	
345.06	5784.8	
345.26	6075.6	
345.47	4139.6	
345.68	4920.6	
345.88	4835.3	
346.09	5948	
346.3	4296.6	
346.5	3213.3	
346.71	5528.2	
346.92	5193	
347.12	3265.8	
347.33	4194.9	
347.54	6063.4	
347.74	6479.8	
347.95	4134.8	
348.16	3041.9	
348.36	5266	
348.57	5117.2	
348.78	4115.1	
348.98	4444.1	
349.19	5456.5	
349.39	4922	
349.6	3303.4	
349.81	3679.5	
350.01	5708.4	
350.22	5201.8	
350.43	3969.6	
350.63	4838	
350.84	5550	
351.05	5298.8	
351.25	3660.4	
351.46	3302	
351.67	6029.9	
351.87	5186.1	
352.08	3860.4	
352.29	4418.8	
352.49	5930.9	
352.7	6087.2	
352.9	3497.2	
353.11	4282.3	
353.32	6713.2	
353.52	5212.8	
353.73	3444.7	
353.94	4453.6	
354.14	5815.5	
354.35	5569.1	
354.55	3532.1	
354.76	3960.1	
354.97	5766.4	
355.17	5511.8	
355.38	3355.3	
355.59	4749.9	
355.79	5148.6	
356	5557.5	
356.2	3915	
356.41	3411.2	
356.62	4863.2	
356.82	5317.9	
357.03	4242.7	
357.24	3749.8	
357.44	5145.2	
357.65	5295.4	
357.85	5105.6	
358.06	3941	
358.27	4841.4	
358.47	5137.7	
358.68	3274	
358.88	4227	
359.09	5728.2	
359.3	6157.6	
359.5	4945.8	
359.71	4328	
359.91	6518	
360.12	5858.6	
360.33	4119.1	
360.53	4728.1	
360.74	5073.5	
360.94	5098.1	
361.15	4391.5	
361.36	3588.7	
361.56	5892	
361.77	5362.3	
361.97	4870.8	
362.18	3852.2	
362.38	5912.5	
362.59	4910.3	
362.8	3503.4	
363	3246.7	
363.21	4699.4	
363.41	5467.4	
363.62	3983.3	
363.83	5042.1	
364.03	5493.3	
364.24	6582.2	
364.44	5165.7	
364.65	5018.9	
364.85	5243.5	
365.06	4816.1	
365.27	3608.5	
365.47	3631.7	
365.68	6301.6	
365.88	5222.3	
366.09	4083	
366.29	3750.5	
366.5	5494.7	
366.71	5944.6	
366.91	5010.7	
367.12	4289.1	
367.32	6583.5	
367.53	5795.8	
367.73	4151.9	
367.94	5170.4	
368.14	5742.5	
368.35	6646.3	
368.56	4022.9	
368.76	3574.4	
368.97	5855.8	
369.17	7619.1	
369.38	3613.3	
369.58	3863.8	
369.79	4885.8	
369.99	6195.1	
370.2	4913.8	
370.4	3949.8	
370.61	5553.4	
370.82	6682.5	
371.02	3899.3	
371.23	3191.4	
371.43	4721.9	
371.64	6142.5	
371.84	3915.7	
372.05	5134.9	
372.25	7413.6	
372.46	5807.4	
372.66	3839.9	
372.87	3832.4	
373.07	5826.5	
373.28	7519.5	
373.48	4926	
373.69	4620.2	
373.9	5251.7	
374.1	5294.7	
374.31	4799.1	
374.51	4381.3	
374.72	6087.2	
374.92	4911	
375.13	4960.2	
375.33	4076.1	
375.54	5717.2	
375.74	5059.8	
375.95	4126.7	
376.15	5470.1	
376.36	5642.2	
376.56	5454.4	
376.77	4204.5	
376.97	4666	
377.18	6738.5	
377.38	5677	
377.59	5022.3	
377.79	3652.9	
378	5460.6	
378.2	5905	
378.41	3721.8	
378.61	3603.7	
378.82	5999.2	
379.02	5016.8	
379.23	3878.2	
379.43	5053	
379.64	6009.4	
379.84	5625.8	
380.05	3671.3	
380.25	3632.4	
380.46	5739.1	
380.66	5350	
380.87	5085.8	
381.07	5533.6	
381.28	6369.2	
381.48	5735.7	
381.69	3741	
381.89	3829	
382.1	4737.6	
382.3	6014.9	
382.51	4973.8	
382.71	5801.9	
382.91	5821.7	
383.12	6352.8	
383.32	4198.3	
383.53	4428.4	
383.73	5623	
383.94	5358.9	
384.14	4278.9	
384.35	3377.1	
384.55	5372.5	
384.76	5852.4	
384.96	4177.2	
385.17	4493.2	
385.37	5769.1	
385.58	5039.4	
385.78	4532.2	
385.98	3315	
386.19	5258.5	
386.39	5673.6	
386.6	3901.4	
386.8	4099.4	
387.01	5755.5	
387.21	5794.4	
387.42	4600.4	
387.62	5210	
387.83	5058.5	
388.03	5748	
388.23	4126.7	
388.44	4973.8	
388.64	4798.4	
388.85	4862.6	
389.05	4495.3	
389.26	5153.4	
389.46	6776	
389.67	6122.7	
389.87	4485.1	
390.07	4536.9	
390.28	5350.7	
390.48	4900.8	
390.69	3661.8	
390.89	4022.2	
391.1	5187.5	
391.3	6053.8	
391.5	5225.1	
391.71	5870.8	
391.91	5785.5	
392.12	6901.7	
392.32	5301.5	
392.53	4539	
392.73	5229.8	
392.93	5410.7	
393.14	4158.7	
393.34	5096	
393.55	5904.3	
393.75	5362.9	
393.95	4242.7	
394.16	4139.6	
394.36	5079	
394.57	5825.1	
394.77	3570.3	
394.98	4081.6	
395.18	4984.1	
395.38	5235.3	
395.59	4972.5	
395.79	3865.9	
396	5150.6	
396.2	5638.1	
396.4	4728.1	
396.61	4614.1	
396.81	5797.8	
397.02	5074.9	
397.22	4884.4	
397.42	4945.2	
397.63	5784.1	
397.83	4971.1	
398.04	3734.8	
398.24	4212	
398.44	5608.7	
398.65	4624.3	
398.85	3534.1	
399.05	3723.2	
399.26	4900.8	
399.46	6693.4	
399.67	4051.6	
399.87	3768.9	
400.07	5264	
400.28	5655.1	
400.48	3831.1	
400.69	4937.7	
400.89	5925.5	
401.09	6350.8	
401.3	3690.4	
401.5	4870.1	
401.7	6523.5	
401.91	6840.9	
402.11	4063.2	
402.32	4369.7	
402.52	5829.2	
402.72	5912.5	
402.93	4549.2	
403.13	3409.2	
403.33	6704.4	
403.54	5383.4	
403.74	4285	
403.94	5218.9	
404.15	5525.4	
404.35	6685.3	
404.56	4063.2	
404.76	5913.9	
404.96	5907	
405.17	5706.3	
405.37	4951.3	
405.57	4518.5	
405.78	5949.3	
405.98	5470.8	
406.18	4009.2	
406.39	4942.4	
406.59	5949.3	
406.79	5489.2	
407	3828.3	
407.2	3985.3	
407.4	5879.7	
407.61	6102.3	
407.81	3874.1	
408.01	6018.3	
408.22	4700.1	
408.42	6823.1	
408.62	4883.7	
408.83	4345.8	
409.03	5322.7	
409.23	5098.1	
409.44	4415.4	
409.64	4688.5	
409.84	6219	
410.05	6118.6	
410.25	4439.3	
410.45	4257.7	
410.66	5507.7	
410.86	8052.6	
411.06	4556.7	
411.27	4475.5	
411.47	7786.4	
411.67	5677.7	
411.88	4745.1	
412.08	4931.5	
412.28	6300.2	
412.49	6867.5	
412.69	4404.5	
412.89	4406.5	
413.09	6674.3	
413.3	6425.8	
413.5	4474.1	
413.7	3993.5	
413.91	5681.7	
414.11	6583.5	
414.31	4300.1	
414.52	4668	
414.72	6195.8	
414.92	6104.3	
415.12	4302.8	
415.33	4816.8	
415.53	6452.5	
415.73	6692.8	
415.94	5210.7	
416.14	4590.9	
416.34	5417.6	
416.55	5227.1	
416.75	5784.1	
416.95	5170.4	
417.15	6403.3	
417.36	7219.1	
417.56	5937.7	
417.76	4967	
417.97	6875.7	
418.17	6472.9	
418.37	4593.6	
418.57	4717.2	
418.78	6207.4	
418.98	5950	
419.18	5580.7	
419.38	5513.8	
419.59	5939.1	
419.79	5582.8	
419.99	4501.4	
420.2	4993.6	
420.4	6554.2	
420.6	6721.4	
420.8	4390.2	
421.01	4293.9	
421.21	6247.7	
421.41	6466.8	
421.61	4878.9	
421.82	4586.8	
422.02	5764.3	
422.22	6782.2	
422.42	5337	
422.63	5078.3	
422.83	5983.5	
423.03	7167.2	
423.23	5037.3	
423.44	3906.8	
423.64	6021	
423.84	5807.4	
424.04	4470.7	
424.25	4158.1	
424.45	7060.7	
424.65	6916	
424.85	3959.4	
425.06	4545.8	
425.26	6920.8	
425.46	5432.6	
425.66	5066.7	
425.87	4753.3	
426.07	6784.2	
426.27	6610.2	
426.47	4937	
426.67	4286.4	
426.88	7150.8	
427.08	6614.9	
427.28	5137	
427.48	4209.9	
427.69	5382.1	
427.89	6057.2	
428.09	5204.6	
428.29	4230.4	
428.5	6868.2	
428.7	6271.6	
428.9	4098	
429.1	4644.8	
429.3	6171.2	
429.51	6624.5	
429.71	4416.1	
429.91	5240.8	
430.11	6504.3	
430.31	6704.4	
430.52	4774.5	
430.72	5049.6	
430.92	7127.6	
431.12	6563.1	
431.32	4324.6	
431.53	4815.5	
431.73	5358.9	
431.93	7187.7	
432.13	4289.8	
432.33	4132.1	
432.54	5817.6	
432.74	6211.5	
432.94	4007.9	
433.14	5242.1	
433.34	6415.6	
433.55	5801.9	
433.75	5051	
433.95	6853.2	
434.15	6208.8	
434.35	5868.8	
434.56	4310.3	
434.76	3760.8	
434.96	6149.4	
435.16	6393.8	
435.36	4059.8	
435.56	5280.3	
435.77	5707	
435.97	5909.8	
436.17	5936.4	
436.37	5234.6	
436.57	5727.5	
436.78	5648.3	
436.98	5771.2	
437.18	5845.6	
437.38	6419.7	
437.58	5938.4	
437.78	5967.1	
437.99	4624.3	
438.19	6567.2	
438.39	7400.7	
438.59	4531.5	
438.79	3939.6	
438.99	7182.9	
439.2	5915.9	
439.4	4167.6	
439.6	4019.5	
439.8	6343.2	
440	7371.3	
440.2	5137	
440.4	5215.5	
440.61	6567.2	
440.81	7148.1	
441.01	4199	
441.21	5143.8	
441.41	7000.6	
441.61	6654.5	
441.81	5485.8	
442.02	6557.6	
442.22	7514.7	
442.42	6753.5	
442.62	4269.3	
442.82	4370.4	
443.02	7026.6	
443.22	6059.9	
443.43	4777.2	
443.63	4228.4	
443.83	5818.3	
444.03	5896.8	
444.23	5531.6	
444.43	5184.1	
444.63	6173.9	
444.83	7518.8	
445.04	4369.7	
445.24	5754.1	
445.44	6670.9	
445.64	6743.3	
445.84	5328.1	
446.04	5221	
446.24	5991.7	
446.44	7071.6	
446.65	4408.6	
446.85	4801.8	
447.05	6457.9	
447.25	7020.4	
447.45	4932.9	
447.65	4203.8	
447.85	6368.5	
448.05	6006.7	
448.25	5367	
448.46	5078.3	
448.66	6326.9	
448.86	6008.1	
449.06	4151.9	
449.26	5345.9	
449.46	6621.1	
449.66	5640.1	
449.86	4800.4	
450.06	4750.6	
450.26	5848.3	
450.47	6480.5	
450.67	5145.2	
450.87	5497.4	
451.07	6569.2	
451.27	6368.5	
451.47	4380.6	
451.67	4946.5	
451.87	5945.9	
452.07	7221.8	
452.27	4571.7	
452.47	4586.1	
452.67	6321.4	
452.88	6830.7	
453.08	3960.1	
453.28	6081.8	
453.48	7529	
453.68	6244.9	
453.88	4403.1	
454.08	4796.3	
454.28	6604.7	
454.48	6234	
454.68	5307	
454.88	5814.9	
455.08	6728.9	
455.28	6417.7	
455.48	4337.6	
455.68	4986.8	
455.89	7208.2	
456.09	6811.5	
456.29	4668.7	
456.49	4612.7	
456.69	7055.9	
456.89	6267.5	
457.09	5216.9	
457.29	5512.4	
457.49	6595.8	
457.69	6729.6	
457.89	4922.6	
458.09	4354.7	
458.29	6283.2	
458.49	7035.5	
458.69	5379.3	
458.89	4691.2	
459.09	7304.4	
459.29	7470.3	
459.49	4939	
459.69	5808	
459.9	6847.7	
460.1	6193.7	
460.3	4780.6	
460.5	4559.5	
460.7	6831.3	
460.9	6460.7	
461.1	4209.9	
461.3	5565	
461.5	7367.9	
461.7	6987	
461.9	4545.1	
462.1	5117.2	
462.3	6440.9	
462.5	7087.3	
462.7	4670.1	
462.9	4650.9	
463.1	8107.9	
463.3	7687.4	
463.5	4892.6	
463.7	5810.8	
463.9	6542.6	
464.1	7006.8	
464.3	4928.1	
464.5	5270.8	
464.7	7321.5	
464.9	6847	
465.1	6642.9	
465.3	5588.2	
465.5	7697.6	
465.7	7450.5	
465.9	5867.4	
466.1	5674.9	
466.3	7303.7	
466.5	7180.9	
466.7	6511.2	
466.9	5352.7	
467.1	7095.5	
467.3	8058.1	
467.5	6460.7	
467.7	5238.7	
467.9	8226.7	
468.1	9143.5	
468.3	6145.3	
468.5	6491.4	
468.7	7016.3	
468.9	6933.7	
469.1	5543.2	
469.3	6348	
469.5	9090.3	
469.7	6534.4	
469.9	6113.9	
470.1	5210.7	
470.3	7019.1	
470.5	7052.5	
470.7	6577.4	
470.9	5423	
471.1	6762.4	
471.3	7361.1	
471.5	5259.2	
471.69	7365.9	
471.89	6655.9	
472.09	6197.2	
472.29	6096.1	
472.49	6612.2	
472.69	6387.6	
472.89	7303.1	
473.09	5134.3	
473.29	5369.8	
473.49	6607.4	
473.69	6818.4	
473.89	6362.4	
474.09	5518.6	
474.29	8132.5	
474.49	7794.6	
474.69	6232	
474.89	5670.1	
475.09	6844.3	
475.29	6739.9	
475.49	5078.3	
475.69	5264.6	
475.88	8576.2	
476.08	7183.6	
476.28	4943.8	
476.48	5572.5	
476.68	7739.3	
476.88	7527	
477.08	5339.1	
477.28	5670.1	
477.48	6935.8	
477.68	7703.8	
477.88	5136.3	
478.08	5498.1	
478.28	8014.4	
478.48	7094.8	
478.67	5532.2	
478.87	4982.7	
479.07	7773.4	
479.27	7200	
479.47	5751.4	
479.67	5776.6	
479.87	7553.6	
480.07	8135.2	
480.27	4927.4	
480.47	6697.5	
480.67	7264.1	
480.87	7944.8	
481.06	5283.8	
481.26	6186.9	
481.46	7238.2	
481.66	7137.9	
481.86	5821.7	
482.06	6883.2	
482.26	6889.4	
482.46	7911.3	
482.66	5758.2	
482.86	5304.2	
483.05	7215	
483.25	6689.3	
483.45	8304.5	
483.65	5753.4	
483.85	6871.6	
484.05	7169.9	
484.25	6257.9	
484.45	6711.9	
484.65	8109.3	
484.84	7993.2	
485.04	5615.5	
485.24	5591.6	
485.44	8329.1	
485.64	6493.4	
485.84	4873.5	
486.04	6347.3	
486.24	6924.2	
486.44	7344.7	
486.63	4818.9	
486.83	5685.8	
487.03	6732.4	
487.23	7000.6	
487.43	4919.9	
487.63	7462.8	
487.83	7098.3	
488.02	8084.7	
488.22	5926.1	
488.42	6613.6	
488.62	7929.7	
488.82	6791.7	
489.02	5629.9	
489.22	5578	
489.41	7845.1	
489.61	7471.7	
489.81	5329.5	
490.01	5401.2	
490.21	7648.5	
490.41	8393.3	
490.61	5234.6	
490.8	5482.4	
491	7220.5	
491.2	6571.2	
491.4	6065.4	
491.6	5139.7	
491.8	7208.8	
491.99	7490.8	
492.19	4950.6	
492.39	5400.5	
492.59	7708.6	
492.79	7838.3	
492.99	6196.5	
493.18	5220.3	
493.38	7852.6	
493.58	8686.1	
493.78	6039.5	
493.98	5579.3	
494.18	7518.8	
494.37	6887.3	
494.57	6203.3	
494.77	6135	
494.97	7681.2	
495.17	7974.1	
495.37	5606.7	
495.56	5948	
495.76	8105.2	
495.96	7736.5	
496.16	6905.8	
496.36	5754.1	
496.55	7932.5	
496.75	7491.5	
496.95	6165.8	
497.15	5934.3	
497.35	7823.2	
497.54	7842.4	
497.74	5808	
497.94	7627.3	
498.14	8654.7	
498.34	8378.9	
498.53	5456.5	
498.73	6336.4	
498.93	7112.6	
499.13	7743.4	
499.33	5986.2	
499.52	6535.8	
499.72	7727	
499.92	8202.8	
500.12	5642.2	
500.32	6025.8	
500.51	8152.3	
500.71	7822.6	
500.91	6843.6	
501.11	6526.2	
501.31	7978.9	
501.5	8457.4	
501.7	7153.6	
501.9	6014.2	
502.1	7888.1	
502.29	8134.5	
502.49	6496.8	
502.69	7211.6	
502.89	8067.6	
503.09	8077.2	
503.28	5610.8	
503.48	5659.2	
503.68	7232.7	
503.88	7307.2	
504.07	6720.1	
504.27	6268.8	
504.47	7691.5	
504.67	7873.8	
504.86	6625.9	
505.06	6337.8	
505.26	7460.1	
505.46	9354.4	
505.65	6229.9	
505.85	6420.4	
506.05	7316.7	
506.25	7831.4	
506.44	5601.9	
506.64	6632	
506.84	7251.2	
507.04	8307.9	
507.23	5754.8	
507.43	6507.1	
507.63	9338.1	
507.83	7660.1	
508.02	6479.8	
508.22	6033.3	
508.42	9668.5	
508.62	7328.3	
508.81	6367.8	
509.01	6913.3	
509.21	7212.3	
509.4	7492.2	
509.6	6488.6	
509.8	5879.7	
510	7372	
510.19	8979.7	
510.39	5877.7	
510.59	5870.8	
510.79	7247.8	
510.98	8799.4	
511.18	5935.7	
511.38	6114.6	
511.57	8185.7	
511.77	8050.6	
511.97	6815.6	
512.17	5720	
512.36	8152.3	
512.56	8144.8	
512.76	5862.7	
512.95	5560.2	
513.15	8251.9	
513.35	6832	
513.55	6741.9	
513.74	5900.2	
513.94	8248.5	
514.14	7496.2	
514.33	6879.1	
514.53	6587.6	
514.73	7497.6	
514.92	7749.5	
515.12	6107	
515.32	5810.8	
515.51	7784.3	
515.71	8376.9	
515.91	7680.6	
516.11	5829.2	
516.3	9534.7	
516.5	7387.7	
516.7	6513.9	
516.89	7230	
517.09	7586.4	
517.29	7403.4	
517.48	6770.6	
517.68	6233.3	
517.88	7190.4	
518.07	7860.8	
518.27	6693.4	
518.47	5683.1	
518.66	8467.7	
518.86	7027.9	
519.06	5504.3	
519.25	6063.4	
519.45	7413	
519.65	8905.9	
519.84	6735.8	
520.04	7380.9	
520.24	9413.8	
520.43	8110.6	
520.63	6446.3	
520.83	6159.6	
521.02	7292.8	
521.22	8008.9	
521.42	6706.4	
521.61	7281.2	
521.81	7385	
522.01	7746.1	
522.2	6529.6	
522.4	6305	
522.6	8293.6	
522.79	6931.7	
522.99	6404	
523.18	5677.7	
523.38	7910.6	
523.58	7840.3	
523.77	7638.9	
523.97	5726.8	
524.17	9795.4	
524.36	9022.7	
524.56	7038.2	
524.76	6683.2	
524.95	7931.1	
525.15	7475.8	
525.34	6393.1	
525.54	6325.5	
525.74	8243.1	
525.93	7193.1	
526.13	7704.5	
526.33	6387.6	
526.52	8613.8	
526.72	7944.1	
526.91	7656	
527.11	6879.8	
527.31	8554.4	
527.5	9021.3	
527.7	6780.8	
527.89	5718.6	
528.09	7332.4	
528.29	7984.3	
528.48	7221.8	
528.68	6801.3	
528.87	8419.2	
529.07	8417.2	
529.27	6652.5	
529.46	6159.6	
529.66	8004.1	
529.85	8535.9	
530.05	6042.2	
530.25	6899.6	
530.44	9482.8	
530.64	8015.1	
530.83	6427.9	
531.03	6653.2	
531.23	8338.6	
531.42	8261.5	
531.62	7369.3	
531.81	6641.6	
532.01	8520.2	
532.21	9062.3	
532.4	6260.6	
532.6	6725.5	
532.79	9447.3	
532.99	8617.9	
533.18	6717.3	
533.38	7764.5	
533.58	8047.8	
533.77	8793.3	
533.97	6638.8	
534.16	7520.1	
534.36	9080	
534.55	8100.4	
534.75	7707.9	
534.95	6793.1	
535.14	8907.3	
535.34	8070.4	
535.53	6476.4	
535.73	8510.7	
535.92	9611.1	
536.12	8353	
536.31	6480.5	
536.51	7734.5	
536.71	8608.3	
536.9	8197.3	
537.1	6677.1	
537.29	6853.9	
537.49	9139.4	
537.68	8051.2	
537.88	7218.4	
538.07	6384.9	
538.27	8352.3	
538.46	9364	
538.66	6272.9	
538.86	6772.6	
539.05	8354.3	
539.25	8748.2	
539.44	6975.4	
539.64	6625.9	
539.83	8168	
540.03	9302.6	
540.22	6447.7	
540.42	6724.8	
540.61	8501.1	
540.81	8645.8	
541	7146	
541.2	7761.1	
541.39	8054.7	
541.59	8450.6	
541.78	7450.5	
541.98	6584.2	
542.18	7614.3	
542.37	7677.2	
542.57	7025.9	
542.76	7460.8	
542.96	7705.1	
543.15	8609	
543.35	6980.2	
543.54	6279.8	
543.74	8879.3	
543.93	8381.7	
544.13	6923.5	
544.32	8060.8	
544.52	8807.6	
544.71	7888.1	
544.91	5993.7	
545.1	7410.2	
545.3	7915.4	
545.49	8660.2	
545.69	6026.5	
545.88	6752.2	
546.08	9609.1	
546.27	9228.8	
546.47	7164.5	
546.66	6476.4	
546.86	8911.4	
547.05	9573.6	
547.24	6623.1	
547.44	6567.8	
547.63	7723.6	
547.83	8996	
548.02	6969.2	
548.22	7215	
548.41	7655.3	
548.61	9017.9	
548.8	6492.1	
549	6508.4	
549.19	8368.7	
549.39	8594	
549.58	6169.8	
549.78	6817	
549.97	8790.6	
550.17	8210.3	
550.36	8477.9	
550.55	8801.5	
550.75	8203.5	
550.94	9174.2	
551.14	6442.9	
551.33	6893.5	
551.53	7537.2	
551.72	8502.5	
551.92	6936.5	
552.11	6664.1	
552.31	8624.7	
552.5	8770.1	
552.69	8389.8	
552.89	6284.5	
553.08	8602.2	
553.28	8319.5	
553.47	6690	
553.67	7907.2	
553.86	9248.6	
554.06	7498.3	
554.25	5820.3	
554.44	6484.6	
554.64	10109	
554.83	9478.7	
555.03	6323.4	
555.22	6768.5	
555.42	8737.3	
555.61	8372.8	
555.8	6661.4	
556	6901	
556.19	7533.8	
556.39	9045.9	
556.58	6694.1	
556.78	6688	
556.97	8334.6	
557.16	8098.4	
557.36	7952.3	
557.55	6264.1	
557.75	7279.8	
557.94	9234.3	
558.13	6462.7	
558.33	6162.3	
558.52	8921	
558.72	7847.8	
558.91	6291.4	
559.1	6576.7	
559.3	7504.4	
559.49	7296.9	
559.69	5857.2	
559.88	6950.8	
560.07	8375.5	
560.27	8774.9	
560.46	7105.8	
560.66	7338.6	
560.85	8243.8	
561.04	7314	
561.24	6274.3	
561.43	6600.6	
561.63	7602.1	
561.82	7834.2	
562.01	7725.6	
562.21	6813.6	
562.4	8348.9	
562.59	9432.3	
562.79	6638.8	
562.98	6323.4	
563.18	8334.6	
563.37	9706.7	
563.56	7203.4	
563.76	6227.2	
563.95	7708.6	
564.14	7635.5	
564.34	6679.8	
564.53	6371.9	
564.73	8302.5	
564.92	8612.4	
565.11	6810.2	
565.31	6169.2	
565.5	8877.3	
565.69	7779.6	
565.89	6440.9	
566.08	6720.8	
566.27	8712.1	
566.47	9178.3	
566.66	7347.4	
566.85	5918.6	
567.05	8322.9	
567.24	7672.4	
567.44	6282.5	
567.63	7821.2	
567.82	8632.2	
568.02	8272.4	
568.21	6323.4	
568.4	6748.7	
568.6	8162.5	
568.79	8171.4	
568.98	6045.6	
569.18	6368.5	
569.37	8158.4	
569.56	10172	
569.76	6651.1	
569.95	7719.5	
570.14	8674.5	
570.34	8445.1	
570.53	6237.4	
570.72	6209.4	
570.91	9000.8	
571.11	8118.8	
571.3	6643.6	
571.49	7656	
571.69	8173.4	
571.88	7703.8	
572.07	7253.9	
572.27	7271	
572.46	7751.6	
572.65	8850	
572.85	6402	
573.04	6885.3	
573.23	9016.5	
573.43	8255.4	
573.62	6118.6	
573.81	6823.1	
574	8249.9	
574.2	8122.2	
574.39	6541.2	
574.58	6815	
574.78	9188.6	
574.97	8299.7	
575.16	7146.7	
575.36	7259.4	
575.55	8763.3	
575.74	8940.7	
575.93	6200.6	
576.13	7226.6	
576.32	8134.5	
576.51	8794	
576.71	6698.2	
576.9	8092.2	
577.09	9114.8	
577.28	8538.7	
577.48	7163.1	
577.67	6120	
577.86	8219.9	
578.05	8636.3	
578.25	6778.1	
578.44	6906.4	
578.63	8400.8	
578.83	9683.5	
579.02	6184.2	
579.21	7767.3	
579.4	8540.7	
579.6	8241	
579.79	7069.6	
579.98	9252	
580.17	8908.7	
580.37	8961.2	
580.56	6333	
580.75	7212.9	
580.94	9430.9	
581.14	9289.6	
581.33	7696.9	
581.52	6448.4	
581.71	8783.1	
581.91	9409.7	
582.1	6260.6	
582.29	6937.8	
582.48	8406.2	
582.68	8283.4	
582.87	7419.1	
583.06	6910.5	
583.25	8599.4	
583.45	8499.1	
583.64	7656.7	
583.83	8398	
584.02	8230.1	
584.21	8703.2	
584.41	7628	
584.6	6860.7	
584.79	8327.7	
584.98	9191.3	
585.18	6350.1	
585.37	6290	
585.56	7827.3	
585.75	8630.8	
585.94	6610.8	
586.14	7322.2	
586.33	9495.7	
586.52	8361.2	
586.71	7152.2	
586.91	6931	
587.1	7791.2	
587.29	8832.2	
587.48	6813.6	
587.67	6618.4	
587.87	8654.7	
588.06	8882.7	
588.25	8137.3	
588.44	7367.2	
588.63	8378.2	
588.83	8983.8	
589.02	6889.4	
589.21	6808.1	
589.4	8219.2	
589.59	8025.3	
589.78	5965.1	
589.98	6332.3	
590.17	7790.5	
590.36	8317.5	
590.55	5662	
590.74	6546.7	
590.94	9705.3	
591.13	8231.5	
591.32	6290.7	
591.51	5840.8	
591.7	8755.1	
591.89	8188.5	
592.09	5934.3	
592.28	6485.2	
592.47	7473.7	
592.66	9323.7	
592.85	5991.7	
593.05	6229.2	
593.24	7931.1	
593.43	8735.3	
593.62	6316.6	
593.81	6835.4	
594	8008.2	
594.19	8245.8	
594.39	6197.2	
594.58	6101.6	
594.77	8403.5	
594.96	8979	
595.15	6056.5	
595.34	6834.8	
595.54	8419.2	
595.73	7505.8	
595.92	5397.1	
596.11	6570.6	
596.3	8879.3	
596.49	7506.5	
596.68	6377.4	
596.88	6889.4	
597.07	8601.5	
597.26	7428	
597.45	5970.5	
597.64	7119.4	
597.83	7630.7	
598.02	8268.3	
598.22	6047	
598.41	6734.4	
598.6	8092.2	
598.79	7522.2	
598.98	6049.7	
599.17	6979.5	
599.36	8021.9	
599.55	9343.5	
599.74	8199.4	
599.94	7829.4	
600.13	8647.9	
600.32	7427.3	
600.51	5713.2	
600.7	5881.8	
600.89	9361.9	
601.08	9372.9	
601.27	5634	
601.47	6710.5	
601.66	8587.1	
601.85	9217.2	
602.04	6393.8	
602.23	6655.9	
602.42	7612.3	
602.61	8233.5	
602.8	6292	
602.99	6070.2	
603.18	7919.5	
603.37	8175.5	
603.57	6776.7	
603.76	7332.4	
603.95	9008.3	
604.14	8556.4	
604.33	6173.9	
604.52	6504.3	
604.71	8144.1	
604.9	7762.5	
605.09	7076.4	
605.28	6927.6	
605.47	8776.2	
605.66	8395.3	
605.86	6663.4	
606.05	6055.2	
606.24	8695	
606.43	7228	
606.62	6452.5	
606.81	7206.1	
607	8596	
607.19	7895.6	
607.38	5791	
607.57	6111.8	
607.76	7643.7	
607.95	7131	
608.14	6468.9	
608.33	7071	
608.52	7688.8	
608.72	8589.2	
608.91	5732.9	
609.1	5636	
609.29	7722.2	
609.48	7288.7	
609.67	6789	
609.86	5754.8	
610.05	7374.1	
610.24	7756.3	
610.43	5588.9	
610.62	5197.7	
610.81	8852.7	
611	8562.6	
611.19	5765.7	
611.38	6479.1	
611.57	8010.3	
611.76	9383.1	
611.95	5577.3	
612.14	5421.7	
612.33	7791.2	
612.52	7286	
612.71	6091.3	
612.9	5272.2	
613.09	6956.3	
613.28	9383.8	
613.47	5887.9	
613.66	6918	
613.85	7936.6	
614.04	7470.3	
614.24	5884.5	
614.43	5156.8	
614.62	7985	
614.81	7998.7	
615	6479.8	
615.19	6559.6	
615.38	7279.2	
615.57	7712.7	
615.76	6435.4	
615.95	7357	
616.14	8135.2	
616.33	7700.4	
616.52	6728.9	
616.71	6984.3	
616.9	8049.2	
617.09	7854.6	
617.28	5939.8	
617.47	7465.5	
617.66	7133.1	
617.85	7074.4	
618.04	6947.4	
618.22	6393.8	
618.41	7464.8	
618.6	8373.5	
618.79	6234.7	
618.98	5982.1	
619.17	8744.1	
619.36	7019.8	
619.55	6096.1	
619.74	6201.9	
619.93	7986.4	
620.12	7308.5	
620.31	6769.2	
620.5	6972	
620.69	8587.1	
620.88	8974.9	
621.07	7654.6	
621.26	6581.5	
621.45	8249.9	
621.64	8135.2	
621.83	6808.1	
622.02	5943.9	
622.21	8206.9	
622.4	7918.8	
622.59	7290.1	
622.78	7046.4	
622.97	7559.7	
623.16	8593.3	
623.35	6714.6	
623.54	5722.7	
623.72	7740	
623.91	7910.6	
624.1	6935.8	
624.29	5562.3	
624.48	9042.5	
624.67	8255.4	
624.86	6794.5	
625.05	5827.8	
625.24	9114.1	
625.43	7433.4	
625.62	8632.2	
625.81	6057.2	
626	8578.9	
626.19	7880.6	
626.38	6903.7	
626.56	6269.5	
626.75	7660.8	
626.94	8435.6	
627.13	6906.4	
627.32	5637.4	
627.51	8336.6	
627.7	9659.6	
627.89	5760.3	
628.08	6961	
628.27	7482.6	
628.46	7716.7	
628.65	6087.2	
628.83	5640.8	
629.02	8401.5	
629.21	7520.8	
629.4	6578.8	
629.59	6661.4	
629.78	7476.5	
629.97	8479.3	
630.16	6791.7	
630.35	6181.5	
630.54	8964	
630.72	8682	
630.91	6143.9	
631.1	6761	
631.29	8066.3	
631.48	8190.5	
631.67	6894.1	
631.86	6298.9	
632.05	7598	
632.24	7643.7	
632.42	5866.1	
632.61	6558.3	
632.8	7843	
632.99	7354.3	
633.18	6505.7	
633.37	6926.9	
633.56	8022.6	
633.75	7864.9	
633.93	6457.9	
634.12	6143.9	
634.31	8886.8	
634.5	8435.6	
634.69	6225.8	
634.88	6823.1	
635.07	7706.5	
635.25	8370.7	
635.44	7176.8	
635.63	7341.3	
635.82	7570	
636.01	7030.7	
636.2	7161.7	
636.39	6605.4	
636.57	8764.6	
636.76	8512	
636.95	5937.1	
637.14	7539.3	
637.33	8088.1	
637.52	9248.6	
637.7	5773.2	
637.89	6769.2	
638.08	7605.5	
638.27	9171.5	
638.46	6789.7	
638.65	7387	
638.83	9234.3	
639.02	7437.5	
639.21	6755.6	
639.4	7322.9	
639.59	7976.2	
639.78	7628	
639.96	6044.2	
640.15	6057.9	
640.34	7875.1	
640.53	8076.5	
640.72	5718.6	
640.91	6109.1	
641.09	7268.9	
641.28	8586.5	
641.47	6055.8	
641.66	7012.2	
641.85	7995.3	
642.03	8286.1	
642.22	6729.6	
642.41	6241.5	
642.6	7406.8	
642.79	6815	
642.97	5949.3	
643.16	6778.8	
643.35	7432.1	
643.54	7195.9	
643.73	5966.4	
643.91	6797.2	
644.1	7040.2	
644.29	7679.2	
644.48	6010.1	
644.67	6025.8	
644.85	7224.6	
645.04	7658.7	
645.23	5598.5	
645.42	5866.7	
645.6	7189.1	
645.79	8312.7	
645.98	5994.4	
646.17	4976.6	
646.36	6923.5	
646.54	7580.9	
646.73	6847.7	
646.92	5587.5	
647.11	7198.6	
647.29	8282.7	
647.48	5658.5	
647.67	5350	
647.86	8567.3	
648.05	8570.7	
648.23	5973.9	
648.42	7335.8	
648.61	7855.3	
648.8	7511.9	
648.98	5627.8	
649.17	6002.6	
649.36	7110.5	
649.55	6521.4	
649.73	5661.3	
649.92	6493.4	
650.11	7051.2	
650.3	7288	
650.48	5799.8	
650.67	5464.7	
650.86	7653.9	
651.05	6470.9	
651.23	5681.1	
651.42	5684.5	
651.61	7029.3	
651.79	7307.2	
651.98	5954.1	
652.17	5522	
652.36	7638.2	
652.54	6526.9	
652.73	5599.8	
652.92	5401.2	
653.11	7673.7	
653.29	7710.6	
653.48	4873.5	
653.67	5918.6	
653.85	7417.1	
654.04	8476.5	
654.23	6102.9	
654.42	5712.5	
654.6	6929	
654.79	7627.3	
654.98	5051.7	
655.16	5770.5	
655.35	6437.4	
655.54	6426.5	
655.73	5143.1	
655.91	5117.2	
656.1	7625.3	
656.29	6406.7	
656.47	4655	
656.66	6477	
656.85	6719.4	
657.03	6752.2	
657.22	5239.4	
657.41	5262.6	
657.59	6761	
657.78	6587	
657.97	4950.6	
658.16	5712.5	
658.34	7512.6	
658.53	7912	
658.72	6579.4	
658.9	7199.3	
659.09	6844.3	
659.28	6931.7	
659.46	5508.4	
659.65	5339.1	
659.84	6627.9	
660.02	7179.5	
660.21	5201.2	
660.4	5202.5	
660.58	7690.1	
660.77	7008.8	
660.96	5840.8	
661.14	4805.9	
661.33	8206.2	
661.52	8082.6	
661.7	4789.5	
661.89	8688.2	
662.08	6593.1	
662.26	6206.7	
662.45	5053.7	
662.64	5188.9	
662.82	7346.1	
663.01	6478.4	
663.2	5288.5	
663.38	6029.9	
663.57	7193.8	
663.75	7146.7	
663.94	5569.1	
664.13	6926.9	
664.31	6476.4	
664.5	7340.6	
664.69	5999.2	
664.87	6462	
665.06	6336.4	
665.25	7062.1	
665.43	6759.7	
665.62	6731	
665.8	7469.6	
665.99	6726.9	
666.18	5528.8	
666.36	5668.8	
666.55	7428	
666.74	7359	
666.92	5244.2	
667.11	6973.3	
667.29	6690	
667.48	7394.5	
667.67	6498.9	
667.85	5494.7	
668.04	6778.8	
668.22	6759	
668.41	5594.4	
668.6	5858.6	
668.78	6546	
668.97	6759	
669.15	6080.4	
669.34	4952	
669.53	6610.2	
669.71	6829.3	
669.9	5147.2	
670.08	5782.8	
670.27	6503	
670.46	7217	
670.64	6008.7	
670.83	6304.3	
671.01	6406.7	
671.2	7093.5	
671.38	5193	
671.57	5061.2	
671.76	7749.5	
671.94	8333.9	
672.13	5038.7	
672.31	6205.3	
672.5	7260	
672.69	6522.1	
672.87	5225.1	
673.06	5525.4	
673.24	7057.3	
673.43	6606.7	
673.61	6085.9	
673.8	5513.1	
673.98	7283.3	
674.17	7497.6	
674.36	6158.9	
674.54	5969.8	
674.73	7040.2	
674.91	7245	
675.1	5612.1	
675.28	5265.3	
675.47	6820.4	
675.65	7365.9	
675.84	5470.8	
676.03	5902.9	
676.21	6628.6	
676.4	6081.1	
676.58	6353.5	
676.77	6060.6	
676.95	8227.4	
677.14	6528.2	
677.32	5213.4	
677.51	4992.3	
677.69	7359.7	
677.88	6172.6	
678.06	5001.8	
678.25	5138.4	
678.44	6855.9	
678.62	6578.8	
678.81	4900.8	
678.99	5837.4	
679.18	7651.9	
679.36	7225.9	
679.55	5430.5	
679.73	6068.8	
679.92	7193.8	
680.1	6554.9	
680.29	6778.8	
680.47	5547.3	
680.66	6485.9	
680.84	7433.4	
681.03	4725.3	
681.21	5892.7	
681.4	6572.6	
681.58	6482.5	
681.77	5224.4	
681.95	5101.5	
682.14	7489.4	
682.32	7881.3	
682.51	6153.5	
682.69	4909.7	
682.88	6500.9	
683.06	7173.4	
683.25	5872.2	
683.43	6379.4	
683.62	6799.3	
683.8	7273	
683.99	6443.6	
684.17	5735	
684.36	8179.6	
684.54	6767.2	
684.73	4881.7	
684.91	5141.1	
685.1	7125.6	
685.28	6508.4	
685.46	5763	
685.65	5867.4	
685.83	7441.6	
686.02	6640.9	
686.2	5195	
686.39	5396.4	
686.57	6384.2	
686.76	8043.1	
686.94	5162.9	
687.13	5383.4	
687.31	7296.2	
687.5	6685.9	
687.68	4765.6	
687.86	6147.3	
688.05	8553	
688.23	6197.2	
688.42	6189.6	
688.6	5231.9	
688.79	6516.6	
688.97	6580.1	
689.16	5700.9	
689.34	4599.7	
689.52	7345.4	
689.71	7586.4	
689.89	6019.7	
690.08	5221.6	
690.26	6855.9	
690.45	6796.5	
690.63	6169.8	
690.81	5433.3	
691	6525.5	
691.18	6485.9	
691.37	5560.2	
691.55	7884.7	
691.74	6475.7	
691.92	8617.2	
692.1	5597.8	
692.29	4935.6	
692.47	6725.5	
692.66	5950	
692.84	5210	
693.02	5809.4	
693.21	6081.1	
693.39	6574.7	
693.58	5835.3	
693.76	5186.8	
693.94	7845.8	
694.13	7671	
694.31	5140.4	
694.5	6328.9	
694.68	6406.7	
694.86	6750.1	
695.05	5466.7	
695.23	5971.9	
695.42	7178.8	
695.6	9686.2	
695.78	6229.9	
695.97	5177.9	
696.15	7144.7	
696.34	6567.2	
696.52	5018.2	
696.7	5967.8	
696.89	6912.6	
697.07	6367.1	
697.25	5883.1	
697.44	7453.9	
697.62	6879.8	
697.81	7305.1	
697.99	5444.9	
698.17	5991.7	
698.36	6238.1	
698.54	6924.2	
698.72	5839.4	
698.91	4749.2	
699.09	6515.3	
699.28	6440.9	
699.46	5504.9	
699.64	5280.3	
699.83	6272.9	
700.01	7661.5	
700.19	6183.5	
700.38	4504.8	
700.56	7566.6	
700.74	6373.3	
700.93	4986.1	
701.11	5840.8	
701.29	7019.8	
701.48	8034.2	
701.66	5186.8	
701.84	5202.5	
702.03	6403.3	
702.21	7143.3	
702.39	4713.7	
702.58	5319.9	
702.76	6905.8	
702.94	7024.5	
703.13	4713.7	
703.31	7140.6	
703.49	6120.7	
703.68	7829.4	
703.86	4896.7	
704.04	5982.8	
704.23	6724.2	
704.41	7187.7	
704.59	5079	
704.78	6457.2	
704.96	7856.7	
705.14	7204.8	
705.33	4769	
705.51	5692	
705.69	6523.5	
705.87	7420.5	
706.06	6118	
706.24	4837.3	
706.42	6775.4	
706.61	7098.3	
706.79	5971.2	
706.97	4752.7	
707.16	6247.7	
707.34	6952.9	
707.52	6055.2	
707.7	5026.4	
707.89	6522.8	
708.07	6107.7	
708.25	6006	
708.44	6115.9	
708.62	6283.9	
708.8	7509.2	
708.98	6244.3	
709.17	5079	
709.35	6763.1	
709.53	6812.9	
709.72	4825	
709.9	5338.4	
710.08	6955.6	
710.26	7081.9	
710.45	6556.9	
710.63	5195.7	
710.81	6680.5	
710.99	6682.5	
711.18	5866.7	
711.36	5316.5	
711.54	6561.7	
711.72	7289.4	
711.91	5373.2	
712.09	4796.3	
712.27	6740.5	
712.45	7889.5	
712.64	5801.2	
712.82	4605.2	
713	6224.5	
713.18	6414.9	
713.37	4888.5	
713.55	6143.2	
713.73	7393.2	
713.91	5941.8	
714.1	5382.7	
714.28	4712.4	
714.46	7036.1	
714.64	6233.3	
714.83	4263.9	
715.01	5158.8	
715.19	6383.5	
715.37	5749.3	
715.55	4820.2	
715.74	5225.1	
715.92	7397.9	
716.1	5292	
716.28	6358.3	
716.47	5368.4	
716.65	5935.7	
716.83	6090	
717.01	5184.1	
717.19	5246.9	
717.38	8288.8	
717.56	5670.8	
717.74	5336.3	
717.92	4475.5	
718.1	7042.3	
718.29	6132.3	
718.47	4025.6	
718.65	4754.7	
718.83	6832	
719.01	6639.5	
719.2	3858.4	
719.38	5098.8	
719.56	6444.3	
719.74	8039.6	
719.92	4569.7	
720.11	5720	
720.29	6488.6	
720.47	5541.8	
720.65	4171	
720.83	5124	
721.02	6000.5	
721.2	5751.4	
721.38	5171.8	
721.56	4388.8	
721.74	5197.7	
721.92	5460.6	
722.11	5781.4	
722.29	5414.8	
722.47	6824.5	
722.65	5931.6	
722.83	4444.8	
723.01	5458.5	
723.2	6035.4	
723.38	6279.8	
723.56	3812	
723.74	5102.2	
723.92	5492.7	
724.1	6707.1	
724.29	4407.2	
724.47	5617.6	
724.65	5486.5	
724.83	5403.9	
725.01	4199	
725.19	5233.9	
725.37	5522	
725.56	5662.6	
725.74	4117.8	
725.92	4360.1	
726.1	5348.6	
726.28	5750	
726.46	4919.9	
726.64	4586.8	
726.83	5780.7	
727.01	6008.7	
727.19	4129.4	
727.37	4965	
727.55	5784.8	
727.73	6463.4	
727.91	4076.1	
728.09	3833.8	
728.28	6442.9	
728.46	7092.1	
728.64	5086.5	
728.82	4928.8	
729	7557.7	
729.18	6718	
729.36	4115.1	
729.54	6646.3	
729.72	7741.3	
729.91	5955.5	
730.09	6130.9	
730.27	4827.7	
730.45	5779.4	
730.63	6520.7	
730.81	5471.5	
730.99	4402.5	
731.17	6996.5	
731.35	5541.8	
731.53	5008.6	
731.71	4534.9	
731.9	6771.3	
732.08	6948.8	
732.26	4862.6	
732.44	4457.7	
732.62	7075	
732.8	6428.6	
732.98	5327.4	
733.16	4269.3	
733.34	6431.3	
733.52	5236.7	
733.7	4806.6	
733.88	5098.1	
734.07	6251.8	
734.25	5996.5	
734.43	4218.8	
734.61	5962.3	
734.79	7615.7	
734.97	5890.6	
735.15	4367.6	
735.33	4726.7	
735.51	6214.9	
735.69	5859.2	
735.87	5969.8	
736.05	4986.8	
736.23	6089.3	
736.41	5825.1	
736.59	4715.8	
736.77	4879.6	
736.95	6518.7	
737.13	5928.2	
737.32	4461.8	
737.5	4597	
737.68	7148.1	
737.86	5807.4	
738.04	4235.9	
738.22	6157.6	
738.4	5628.5	
738.58	5912.5	
738.76	4929.5	
738.94	3706.8	
739.12	5806	
739.3	5559.6	
739.48	5582.8	
739.66	5289.2	
739.84	6092.7	
740.02	6059.3	
740.2	3870	
740.38	4292.5	
740.56	6479.1	
740.74	5268.7	
740.92	5005.2	
741.1	4898.7	
741.28	5856.5	
741.46	5675.6	
741.64	4508.9	
741.82	5053.7	
742	5888.6	
742.18	5852.4	
742.36	4780.6	
742.54	4220.9	
742.72	6464.8	
742.9	5130.2	
743.08	5132.9	
743.26	3850.2	
743.44	6669.6	
743.62	6562.4	
743.8	5332.9	
743.98	4344.4	
744.16	6224.5	
744.34	5962.3	
744.52	5217.5	
744.7	5180	
744.88	6393.1	
745.06	5886.5	
745.24	5265.3	
745.42	5390.3	
745.6	6483.2	
745.78	6296.8	
745.96	4018.1	
746.14	4324.6	
746.32	7289.4	
746.5	6574	
746.68	4994.3	
746.86	4345.8	
747.03	7015	
747.21	5152.7	
747.39	4991.6	
747.57	4425.7	
747.75	6139.1	
747.93	6570.6	
748.11	4406.5	
748.29	4302.8	
748.47	7793.9	
748.65	5827.8	
748.83	5193	
749.01	4885.8	
749.19	6369.2	
749.37	5447.6	
749.55	4754	
749.73	4788.2	
749.91	5978.7	
750.09	5630.5	
750.26	4880.3	
750.44	4251.6	
750.62	6016.2	
750.8	5993.7	
750.98	4052.2	
751.16	4487.8	
751.34	6076.3	
751.52	5403.9	
751.7	5360.9	
751.88	4007.2	
752.06	6553.5	
752.24	6320	
752.42	4046.8	
752.59	4438.6	
752.77	5945.9	
752.95	7337.2	
753.13	5212.1	
753.31	4625.7	
753.49	5603.9	
753.67	6124.1	
753.85	4897.4	
754.03	4501.4	
754.21	6402	
754.38	6818.4	
754.56	4656.4	
754.74	3676.1	
754.92	5668.1	
755.1	6536.4	
755.28	3820.8	
755.46	3870.7	
755.64	7416.4	
755.82	7516	
755.99	4296.6	
756.17	4366.3	
756.35	4940.4	
756.53	6634.1	
756.71	3230.3	
756.89	4235.9	
757.07	6201.2	
757.25	5239.4	
757.42	4745.8	
757.6	5683.1	
757.78	6198.5	
757.96	5096	
758.14	4455	
758.32	3926.6	
758.5	4676.9	
758.67	5575.3	
758.85	4274.1	
759.03	4456.4	
759.21	5771.9	
759.39	5169.1	
759.57	3794.2	
759.75	5097.4	
759.92	6398.5	
760.1	5622.4	
760.28	5414.8	
760.46	5662.6	
760.64	5357.5	
760.82	5132.2	
760.99	5143.1	
761.17	4279.6	
761.35	6202.6	
761.53	5092.6	
761.71	4389.5	
761.89	5129.5	
762.06	6103.6	
762.24	5431.9	
762.42	4410	
762.6	4186	
762.78	5545.2	
762.96	6208.8	
763.13	4866	
763.31	4436.6	
763.49	6376.7	
763.67	5465.3	
763.85	5343.8	
764.02	6008.7	
764.2	6610.8	
764.38	5728.9	
764.56	4315.1	
764.74	5341.8	
764.91	6740.5	
765.09	5592.3	
765.27	3999.7	
765.45	3880.9	
765.63	6809.5	
765.8	6670.2	
765.98	3504.1	
766.16	3930.1	
766.34	5093.3	
766.52	4907.6	
766.69	4926.7	
766.87	3731.4	
767.05	5655.1	
767.23	6346	
767.41	4088.4	
767.58	4362.2	
767.76	6141.2	
767.94	6270.9	
768.12	4137.6	
768.29	4943.8	
768.47	5715.2	
768.65	6414.9	
768.83	3766.2	
769	5087.2	
769.18	5239.4	
769.36	5941.2	
769.54	5045.5	
769.72	3865.2	
769.89	6266.1	
770.07	6470.2	
770.25	4233.2	
770.43	5474.9	
770.6	7101	
770.78	7622.5	
770.96	4403.8	
771.14	4222.9	
771.31	6206	
771.49	5447.6	
771.67	3541.6	
771.85	3799	
772.02	4702.1	
772.2	5593.7	
772.38	4577.9	
772.55	4067.9	
772.73	5761.6	
772.91	5571.2	
773.09	4477.5	
773.26	4558.1	
773.44	5810.1	
773.62	5348.6	
773.8	3974.4	
773.97	3682.9	
774.15	5857.9	
774.33	5425.1	
774.5	3829	
774.68	4312.3	
774.86	6072.9	
775.04	5494	
775.21	3999.7	
775.39	3950.5	
775.57	5804.6	
775.74	6203.3	
775.92	3822.9	
776.1	3675.4	
776.27	5778.7	
776.45	7093.5	
776.63	3964.9	
776.81	3490.4	
776.98	5365.7	
777.16	6620.4	
777.34	4155.3	
777.51	4483	
777.69	5405.3	
777.87	5191.6	
778.04	4187.4	
778.22	4835.3	
778.4	5221	
778.57	5947.3	
778.75	3430.3	
778.93	3723.9	
779.1	4983.4	
779.28	4816.1	
779.46	3421.5	
779.64	3964.9	
779.81	6029.2	
779.99	7040.9	
780.17	4806.6	
780.34	4999.1	
780.52	5545.2	
780.69	5709.7	
780.87	4355.3	
781.05	3846.8	
781.22	5582.1	
781.4	5664	
781.58	4045.4	
781.75	3127.9	
781.93	5707.7	
782.11	5033.9	
782.28	5042.8	
782.46	4037.2	
782.64	4813.4	
782.81	5752.7	
782.99	4091.8	
783.17	4129.4	
783.34	5720.7	
783.52	4914.4	
783.69	4353.3	
783.87	5191.6	
784.05	4973.8	
784.22	5008.6	
784.4	5168.4	
784.58	4401.1	
784.75	6005.3	
784.93	5078.3	
785.1	4051.6	
785.28	4740.4	
785.46	5726.8	
785.63	4992.3	
785.81	4032.5	
785.99	3877.5	
786.16	5175.2	
786.34	5603.9	
786.51	3917.8	
786.69	4315.1	
786.87	4758.8	
787.04	5318.6	
787.22	3780.6	
787.39	4795	
787.57	5008.6	
787.75	6176	
787.92	4986.8	
788.1	4981.3	
788.27	5055.1	
788.45	4811.4	
788.63	4607.2	
788.8	3304.7	
788.98	5436.7	
789.15	4751.3	
789.33	3390.8	
789.5	4157.4	
789.68	6017.6	
789.86	6164.4	
790.03	4505.5	
790.21	3992.9	
790.38	6049.7	
790.56	5190.2	
790.73	3775.8	
790.91	3868.6	
791.09	5084.4	
791.26	5897.5	
791.44	4093.2	
791.61	3504.1	
791.79	5004.6	
791.96	5154.1	
792.14	3640.6	
792.32	3191.4	
792.49	5057.8	
792.67	5153.4	
792.84	3700	
793.02	3500.7	
793.19	5578	
793.37	6317.3	
793.54	3278.1	
793.72	3609.2	
793.89	6470.9	
794.07	5063.3	
794.25	4241.3	
794.42	3312.2	
794.6	6156.9	
794.77	5800.5	
794.95	4538.3	
795.12	3921.2	
795.3	5082.4	
795.47	5759.6	
795.65	4358.1	
795.82	4203.1	
796	4897.4	
796.17	6916	
796.35	3964.9	
796.52	4718.5	
796.7	5668.1	
796.87	5802.6	
797.05	4969.7	
797.22	4968.4	
797.4	5670.1	
797.57	6758.3	
797.75	4147.8	
797.92	3923.9	
798.1	6055.2	
798.27	5088.5	
798.45	3340.2	
798.62	3642.7	
798.8	5369.1	
798.97	5938.4	
799.15	4463.9	
799.32	4156.7	
799.5	4659.8	
799.67	5537.7	
799.85	4530.8	
800.02	3221.5	
800.2	5020.3	
800.37	5424.4	
800.55	4781.3	
800.72	3858.4	
800.9	5933	
801.07	6425.2	
801.25	5338.4	
801.42	4331.5	
801.6	5924.8	
801.77	5597.8	
801.95	3983.3	
802.12	3756.7	
802.29	5667.4	
802.47	5610.1	
802.64	4261.8	
802.82	3188	
802.99	5100.1	
803.17	6135	
803.34	4162.2	
803.52	3698.6	
803.69	6831.3	
803.87	4917.9	
804.04	4103.4	
804.21	4247.5	
804.39	6247	
804.56	5303.6	
804.74	3504.1	
804.91	4392.2	
805.09	5140.4	
805.26	5229.8	
805.44	3642.7	
805.61	3944.4	
805.78	5788.2	
805.96	5847.6	
806.13	4301.4	
806.31	4700.8	
806.48	4585.4	
806.66	5194.3	
806.83	4319.8	
807	4246.1	
807.18	5070.8	
807.35	5534.3	
807.53	4213.4	
807.7	3275.4	
807.87	6373.3	
808.05	5145.2	
808.22	4618.2	
808.4	3352.5	
808.57	5171.8	
808.74	4743.8	
808.92	3832.4	
809.09	4969.1	
809.27	5027.8	
809.44	5687.9	
809.61	3372.3	
809.79	3788.7	
809.96	6290.7	
810.14	5862	
810.31	3278.1	
810.48	4067.3	
810.66	5160.9	
810.83	6077.7	
811.01	3827	
811.18	4304.1	
811.35	5916.6	
811.53	4556.7	
811.7	4718.5	
811.87	4384.7	
812.05	5109.7	
812.22	5072.8	
812.39	3757.3	
812.57	3582.6	
812.74	5133.6	
812.92	6978.8	
813.09	4051.6	
813.26	4496	
813.44	6657.3	
813.61	5091.9	
813.78	3359.4	
813.96	4547.2	
814.13	5184.1	
814.3	4771.8	
814.48	4878.9	
814.65	4114.4	
814.82	6401.3	
815	4942.4	
815.17	4158.1	
815.34	5104.9	
815.52	5095.3	
815.69	5089.2	
815.87	4147.1	
816.04	3504.1	
816.21	5145.9	
816.38	4519.9	
816.56	4012	
816.73	3746.4	
816.9	6550.1	
817.08	5948.7	
817.25	3704.8	
817.42	4857.8	
817.6	4673.5	
817.77	5203.9	
817.94	4259.1	
818.12	3733.4	
818.29	4856.4	
818.46	7747.5	
818.64	3910.3	
818.81	3633.8	
818.98	4777.2	
819.16	7132.4	
819.33	4464.6	
819.5	4203.8	
819.67	5562.3	
819.85	6263.4	
820.02	4072	
820.19	4375.1	
820.37	5354.8	
820.54	4984.1	
820.71	4240	
820.88	5315.2	
821.06	5401.2	
821.23	4898.7	
821.4	4272.7	
821.58	4213.4	
821.75	5892	
821.92	5246.2	
822.09	3411.9	
822.27	3471.3	
822.44	5186.1	
822.61	5072.8	
822.79	3434.4	
822.96	6660.7	
823.13	5716.6	
823.3	4885.1	
823.48	3921.9	
823.65	3583.9	
823.82	5876.3	
823.99	4667.3	
824.17	5093.3	
824.34	3689.8	
824.51	6860	
824.68	5173.9	
824.86	3778.5	
825.03	4215.4	
825.2	5209.3	
825.37	6335	
825.55	3718.4	
825.72	4184.7	
825.89	6916	
826.06	6454.5	
826.24	4133.5	
826.41	4098.7	
826.58	6340.5	
826.75	5498.1	
826.92	3152.5	
827.1	3585.3	
827.27	8712.1	
827.44	6941.2	
827.61	3902.7	
827.79	4744.5	
827.96	4866	
828.13	5279.7	
828.3	4080.9	
828.47	3459.7	
828.65	5405.3	
828.82	5334.3	
828.99	5257.1	
829.16	4549.9	
829.34	5814.2	
829.51	5509.7	
829.68	4202.4	
829.85	4405.2	
830.02	6035.4	
830.2	5810.1	
830.37	3224.2	
830.54	5143.8	
830.71	6684.6	
830.88	5165	
831.05	3319.1	
831.23	3841.3	
831.4	6357.6	
831.57	7230.7	
831.74	3865.9	
831.91	3435.8	
832.09	5371.1	
832.26	5890	
832.43	4037.9	
832.6	4523.3	
832.77	5390.9	
832.94	6221.7	
833.12	3206.4	
833.29	3938.2	
833.46	5032.5	
833.63	7417.7	
833.8	4436.6	
833.97	4032.5	
834.15	5838.8	
834.32	5578	
834.49	4164.2	
834.66	4272.7	
834.83	6107	
835	4870.8	
835.17	3871.3	
835.35	3926.6	
835.52	5682.4	
835.69	5608	
835.86	4128.7	
836.03	3302.7	
836.2	5650.3	
836.37	5326.8	
836.55	4040	
836.72	3762.8	
836.89	5326.1	
837.06	5803.9	
837.23	4033.1	
837.4	4495.3	
837.57	6637.5	
837.75	7436.9	
837.92	3704.1	
838.09	3943	
838.26	5295.4	
838.43	6074.3	
838.6	4275.5	
838.77	3773.7	
838.94	7030.7	
839.11	6746	
839.29	4067.3	
839.46	3232.4	
839.63	5709.1	
839.8	5524.7	
839.97	3940.3	
840.14	3955.3	
840.31	5481	
840.48	5805.3	
840.65	3197.6	
840.82	3928.7	
841	5788.2	
841.17	5769.1	
841.34	3627	
841.51	3603.7	
841.68	5677.7	
841.85	5457.8	
842.02	3742.3	
842.19	3057.6	
842.36	5543.9	
842.53	5513.1	
842.7	3334.8	
842.87	4476.9	
843.05	7331.7	
843.22	5455.1	
843.39	3347.1	
843.56	3721.8	
843.73	5223	
843.9	5855.1	
844.07	5843.5	
844.24	4880.3	
844.41	8647.2	
844.58	4975.9	
844.75	3478.1	
844.92	3743	
845.09	5773.2	
845.26	5754.8	
845.43	3516.4	
845.6	3788.7	
845.77	5756.2	
845.94	5444.2	
846.12	3978.5	
846.29	4197.7	
846.46	5995.8	
846.63	5794.4	
846.8	3585.3	
846.97	4297.3	
847.14	6268.1	
847.31	5735	
847.48	4020.2	
847.65	4460.5	
847.82	6115.9	
847.99	5982.1	
848.16	4827.7	
848.33	4524	
848.5	5276.3	
848.67	6264.1	
848.84	3545.7	
849.01	3745.1	
849.18	5143.8	
849.35	4823.6	
849.52	4537.6	
849.69	3508.9	
849.86	5950.7	
850.03	6238.1	
850.2	3588	
850.37	4433.2	
850.54	6165.8	
850.71	5365.7	
850.88	4326	
851.05	3491.8	
851.22	5698.1	
851.39	6352.8	
851.56	3342.3	
851.73	4143	
851.9	5017.5	
852.07	6019.7	
852.24	3900.7	
852.41	3536.2	
852.58	5595.7	
852.75	5104.9	
852.92	4024.3	
853.09	3468.6	
853.26	5429.2	
853.43	6290.7	
853.6	3507.5	
853.77	3001.6	
853.94	6329.6	
854.11	5722	
854.28	5358.2	
854.44	3867.2	
854.61	6791.7	
854.78	6027.9	
854.95	3530	
855.12	4502.1	
855.29	4609.3	
855.46	6319.3	
855.63	3523.2	
855.8	5013.4	
855.97	5285.8	
856.14	6195.1	
856.31	5053	
856.48	3875.4	
856.65	5340.4	
856.82	5048.9	
856.99	3387.3	
857.16	3843.4	
857.33	7066.2	
857.49	5432.6	
857.66	3856.3	
857.83	4182.6	
858	5419.6	
858.17	5690.6	
858.34	3347.7	
858.51	3558	
858.68	6492.7	
858.85	6514.6	
859.02	4128	
859.19	4407.2	
859.36	5036.6	
859.52	5053.7	
859.69	3528	
859.86	4224.3	
860.03	5072.1	
860.2	6389.7	
860.37	3269.2	
860.54	3635.8	
860.71	5984.8	
860.88	6464.8	
861.05	4026.3	
861.21	4573.8	
861.38	6513.2	
861.55	4949.3	
861.72	3215.3	
861.89	4066.6	
862.06	6123.4	
862.23	6617.7	
862.4	3448.8	
862.56	3758.7	
862.73	5920.7	
862.9	5545.9	
863.07	4231.8	
863.24	3231.7	
863.41	4921.3	
863.58	5099.4	
863.75	3637.2	
863.91	4160.1	
864.08	6422.4	
864.25	6001.2	
864.42	4508.3	
864.59	5085.8	
864.76	6841.6	
864.93	5122	
865.09	3416.7	
865.26	3821.5	
865.43	6279.8	
865.6	6682.5	
865.77	3139.5	
865.94	3564.1	
866.1	6377.4	
866.27	6054.5	
866.44	5440.1	
866.61	3382.6	
866.78	5455.8	
866.95	5894.1	
867.11	3457.7	
867.28	3138.2	
867.45	6078.4	
867.62	5124.7	
867.79	4181.3	
867.96	3525.9	
868.12	5051	
868.29	6036.7	
868.46	3105.4	
868.63	4770.4	
868.8	6255.9	
868.97	5980.1	
869.13	3734.1	
869.3	3706.8	
869.47	5926.1	
869.64	6121.4	
869.81	3636.5	
869.97	3570.3	
870.14	5793.7	
870.31	6518	
870.48	3591.5	
870.65	4575.2	
870.81	5390.9	
870.98	5247.6	
871.15	4098	
871.32	3727.3	
871.48	5896.8	
871.65	6519.4	
871.82	3541.6	
871.99	3953.3	
872.16	6944	
872.32	6303	
872.49	3615.3	
872.66	3642.7	
872.83	6009.4	
872.99	5274.9	
873.16	4127.3	
873.33	3545	
873.5	5608	
873.67	5612.8	
873.83	3717.7	
874	4780.6	
874.17	5837.4	
874.34	6892.1	
874.5	4633.9	
874.67	4491.2	
874.84	6519.4	
875.01	5089.9	
875.17	5092.6	
875.34	3543.7	
875.51	5669.5	
875.68	6886	
875.84	4315.8	
876.01	5354.8	
876.18	5966.4	
876.34	5958.9	
876.51	3618.8	
876.68	3473.4	
876.85	5489.9	
877.01	6329.6	
877.18	5184.8	
877.35	3590.1	
877.52	5532.2	
877.68	4969.7	
877.85	3473.4	
878.02	3478.1	
878.18	5569.8	
878.35	5206.6	
878.52	2863.7	
878.69	4031.1	
878.85	5968.5	
879.02	5965.1	
879.19	5095.3	
879.35	3853.6	
879.52	5966.4	
879.69	6158.2	
879.86	3033.7	
880.02	3994.9	
880.19	5598.5	
880.36	6853.9	
880.52	4106.9	
880.69	4249.5	
880.86	6084.5	
881.02	6135.7	
881.19	3970.3	
881.36	3881.6	
881.52	5935	
881.69	5284.4	
881.86	3845.4	
882.02	3765.5	
882.19	6266.1	
882.36	7288	
882.52	3736.2	
882.69	5115.8	
882.86	5810.8	
883.02	5605.3	
883.19	4401.8	
883.36	4161.5	
883.52	5997.8	
883.69	6935.8	
883.86	3582.6	
884.02	3218	
884.19	6069.5	
884.36	5549.3	
884.52	4043.4	
884.69	3789.4	
884.86	5243.5	
885.02	6722.1	
885.19	3984	
885.36	4160.1	
885.52	5555.5	
885.69	5714.5	
885.86	5206.6	
886.02	4639.3	
886.19	6069.5	
886.35	5486.5	
886.52	3961.5	
886.69	5102.9	
886.85	5109.7	
887.02	6430.6	
887.19	6430.6	
887.35	6430.6	
887.52	6430.6	
887.68	6430.6	
887.85	6430.6	
888.02	6430.6	
888.18	6430.6	
888.35	6430.6	
888.51	6430.6	
888.68	6430.6	
888.85	6430.6	
889.01	6430.6	
889.18	6430.6	
889.35	6430.6	
889.51	6430.6	
889.68	6430.6	
889.84	6430.6	
890.01	6430.6	
890.17	6430.6	
890.34	6430.6	
890.51	6430.6	
890.67	6430.6	
890.84	6430.6	
891	6430.6	
891.17	6430.6	
891.34	6430.6	
891.5	6430.6	
891.67	6430.6	
891.83	6430.6	
892	6430.6	
892.16	6430.6	
892.33	6430.6	
892.5	6430.6	
892.66	6430.6	
892.83	6430.6	
892.99	6430.6	
893.16	6430.6	
893.32	6430.6	
893.49	6430.6	
893.65	6430.6	
893.82	6430.6	
893.99	6430.6	
894.15	6430.6	
894.32	6430.6	
894.48	6430.6	
894.65	6430.6	
894.81	6430.6	
894.98	6430.6	
895.14	6430.6	
895.31	6430.6	
895.47	6430.6	
895.64	6430.6	
895.81	6430.6	
895.97	6430.6	
896.14	6430.6	
896.3	6430.6	
896.47	6430.6	
896.63	6430.6	
896.8	6430.6	
896.96	6430.6	
897.13	6430.6	
897.29	6430.6	
897.46	6430.6	
897.62	6430.6	
897.79	6430.6	
897.95	6430.6	
898.12	6430.6	
898.28	6430.6	
898.45	6430.6	
898.61	6430.6	
898.78	6430.6	
898.94	6430.6	
899.11	6430.6	
899.27	6430.6	
899.44	6430.6	
899.6	6430.6	
899.77	6430.6	
899.93	6430.6	
900.1	6430.6	
900.26	6430.6	
900.43	6430.6	
900.59	6430.6	
900.76	6430.6	
900.92	6430.6	
901.09	6430.6	
901.25	6430.6	
901.42	6430.6	
901.58	6430.6	
901.75	6430.6	
901.91	6430.6	
902.07	6430.6	
902.24	6430.6	
902.4	6430.6	
902.57	6430.6	
902.73	6430.6	
902.9	6430.6	
903.06	6430.6	
903.23	6430.6	
903.39	6430.6	
903.56	6430.6	
903.72	6430.6	
903.88	6430.6	
904.05	6430.6	
904.21	6430.6	
904.38	6430.6	
904.54	6430.6	
904.71	6430.6	
904.87	6430.6	
905.03	6430.6	
905.2	6430.6	
905.36	6430.6	
905.53	6430.6	
905.69	6430.6	
905.86	6430.6	
906.02	6430.6	
906.18	6430.6	
906.35	6430.6	
906.51	6430.6	
906.68	6430.6	
906.84	6430.6	
907.01	6430.6	
907.17	6430.6	
907.33	6430.6	
907.5	6430.6	
907.66	6430.6	
907.83	6430.6	
907.99	6430.6	
908.15	6430.6	
908.32	6430.6	
908.48	6430.6	
908.65	6430.6	
908.81	6430.6	
908.97	6430.6	
909.14	6430.6	
909.3	6430.6	
909.47	6430.6	
909.63	6430.6	
909.79	6430.6	
909.96	6430.6	
910.12	6430.6	
910.28	6430.6	
910.45	6430.6	
910.61	6430.6	
910.78	6430.6	
910.94	6430.6	
911.1	6430.6	
911.27	6430.6	
911.43	6430.6	
911.59	6430.6	
911.76	6430.6	
911.92	6430.6	
912.08	6430.6	
912.25	6430.6	
912.41	6430.6	
912.57	6430.6	
912.74	6430.6	
912.9	6430.6	
913.07	6430.6	
913.23	6430.6	
913.39	6430.6	
913.56	6430.6	
913.72	6430.6	
913.88	6430.6	
914.05	6430.6	
914.21	6430.6	
914.37	6430.6	
914.54	6430.6	
914.7	6430.6	
914.86	6430.6	
915.03	6430.6	
915.19	6430.6	
