Wavelength	Intensities	
nm	a.u.	
179.22	1524.9	
179.44	1526.8	
179.65	1523	
179.86	1530.5	
180.08	1540.1	
180.29	3295.9	
180.51	2654.9	
180.72	4519.2	
180.94	4872.8	
181.15	2419.3	
181.37	2390.7	
181.58	4278.2	
181.79	4446.8	
182.01	2489.6	
182.22	2557.2	
182.44	4564.2	
182.65	3977.2	
182.87	3033.7	
183.08	2785.2	
183.29	4747.9	
183.51	4058.4	
183.72	2539.5	
183.94	3413.3	
184.15	4276.8	
184.37	4200.4	
184.58	2327.2	
184.79	2826.2	
185.01	4139.6	
185.22	4635.9	
185.44	3019.4	
185.65	2719	
185.86	4362.2	
186.08	3959.4	
186.29	2309.4	
186.51	2433.7	
186.72	4100	
186.94	4638.6	
187.15	2699.9	
187.36	2825.5	
187.58	5488.6	
187.79	4324.6	
188.01	2792.1	
188.22	4071.4	
188.43	4984.8	
188.65	4527.4	
188.86	2492.4	
189.08	2803.7	
189.29	4158.7	
189.5	4132.1	
189.72	2599.6	
189.93	2648.7	
190.15	4577.2	
190.36	5183.4	
190.57	2811.9	
190.79	2681.5	
191	4603.8	
191.22	4543.1	
191.43	2824.8	
191.64	2433	
191.86	4724	
192.07	4584	
192.29	2489.6	
192.5	2600.9	
192.71	4599.7	
192.93	4220.2	
193.14	2585.2	
193.35	2669.9	
193.57	4199.7	
193.78	4625	
194	2149	
194.21	2542.2	
194.42	4013.3	
194.64	4330.1	
194.85	2693.8	
195.07	3105.4	
195.28	4259.8	
195.49	3883.6	
195.71	3221.5	
195.92	2452.1	
196.13	4498	
196.35	4388.8	
196.56	3353.2	
196.78	2818	
196.99	5240.8	
197.2	4878.3	
197.42	3005.7	
197.63	2800.9	
197.84	3945.8	
198.06	4428.4	
198.27	2594.8	
198.48	3213.9	
198.7	4113.7	
198.91	4371	
199.13	2785.9	
199.34	2815.3	
199.55	4673.5	
199.77	3784.6	
199.98	2536.1	
200.19	2783.9	
200.41	4337.6	
200.62	4063.9	
200.83	2824.8	
201.05	2992.1	
201.26	4277.5	
201.47	4157.4	
201.69	2559.3	
201.9	2489.6	
202.11	4352.6	
202.33	4870.8	
202.54	2611.8	
202.76	2895.1	
202.97	4349.9	
203.18	4414.1	
203.4	2862.4	
203.61	2944.3	
203.82	4334.9	
204.04	4119.1	
204.25	2806.4	
204.46	2718.3	
204.68	4330.8	
204.89	4414.7	
205.1	2725.8	
205.32	2405	
205.53	4490.5	
205.74	4565.6	
205.96	2209.1	
206.17	2787.3	
206.38	4439.3	
206.6	4563.6	
206.81	3059	
207.02	2607.1	
207.24	4432.5	
207.45	4645.5	
207.66	2648	
207.88	2435	
208.09	4418.8	
208.3	4287.1	
208.52	2536.8	
208.73	2689.7	
208.94	4283.7	
209.15	4690.5	
209.37	2674	
209.58	2748.4	
209.79	4571.1	
210.01	4175.8	
210.22	2313.5	
210.43	2377	
210.65	4255	
210.86	4444.1	
211.07	2624.8	
211.29	2486.9	
211.5	4404.5	
211.71	4252.9	
211.93	2595.5	
212.14	2536.8	
212.35	4298	
212.56	4258.4	
212.78	2782.5	
212.99	2336.7	
213.2	4818.2	
213.42	4179.9	
213.63	2585.9	
213.84	2658.9	
214.06	3975.1	
214.27	3990.1	
214.48	2633	
214.69	2809.1	
214.91	4720.6	
215.12	4713.7	
215.33	2788.7	
215.55	2960	
215.76	4965.6	
215.97	4488.5	
216.18	2746.3	
216.4	2739.5	
216.61	4069.3	
216.82	4567.7	
217.04	2527.2	
217.25	2600.9	
217.46	4622.9	
217.67	4489.1	
217.89	2350.4	
218.1	2385.9	
218.31	4323.9	
218.53	4405.2	
218.74	2647.3	
218.95	2512.9	
219.16	4283.7	
219.38	4846.2	
219.59	2572.9	
219.8	2889	
220.01	4982.7	
220.23	4315.1	
220.44	3022.8	
220.65	2493.7	
220.87	4379.9	
221.08	4684.4	
221.29	2436.4	
221.5	2938.8	
221.72	5282.4	
221.93	4090.5	
222.14	2740.9	
222.35	3173.7	
222.57	4321.2	
222.78	4579.9	
222.99	2736.1	
223.2	2784.6	
223.42	4468	
223.63	4506.9	
223.84	2179.7	
224.05	2220	
224.27	4944.5	
224.48	4758.1	
224.69	3213.3	
224.9	2775.7	
225.12	4356.7	
225.33	4276.2	
225.54	2370.9	
225.75	2568.2	
225.97	4100.7	
226.18	4258.4	
226.39	2628.9	
226.6	2531.3	
226.82	4199	
227.03	4057.7	
227.24	2764.1	
227.45	2385.9	
227.67	4553.3	
227.88	4709	
228.09	3090.4	
228.3	3005.7	
228.52	4449.6	
228.73	4205.2	
228.94	2619.4	
229.15	2392	
229.36	4226.3	
229.58	4309.6	
229.79	2680.1	
230	2954.5	
230.21	4975.2	
230.43	4257.7	
230.64	2754.5	
230.85	2813.9	
231.06	4595.6	
231.28	4521.9	
231.49	2392.7	
231.7	2753.2	
231.91	4530.1	
232.12	4240	
232.34	2514.9	
232.55	2685.6	
232.76	4580.6	
232.97	4349.2	
233.18	2514.2	
233.4	2749.1	
233.61	4388.8	
233.82	4138.9	
234.03	2656.2	
234.25	2666.5	
234.46	5369.1	
234.67	4278.9	
234.88	2826.2	
235.09	2575	
235.31	4310.3	
235.52	4222.9	
235.73	2742.9	
235.94	2368.8	
236.15	4123.2	
236.37	4878.9	
236.58	2497.2	
236.79	2638.5	
237	4496	
237.21	3955.3	
237.43	2863.7	
237.64	2385.2	
237.85	6393.1	
238.06	4058.4	
238.27	2767.5	
238.48	2473.9	
238.7	4487.8	
238.91	4218.8	
239.12	2624.8	
239.33	2736.8	
239.54	4158.1	
239.76	4226.3	
239.97	2686.3	
240.18	2691.7	
240.39	4880.3	
240.6	4317.1	
240.82	2863.7	
241.03	2399.5	
241.24	4235.9	
241.45	4749.9	
241.66	2558.6	
241.87	2848.7	
242.09	4741.7	
242.3	4856.4	
242.51	2892.4	
242.72	2685.6	
242.93	4478.9	
243.14	4240	
243.36	3013.2	
243.57	3198.2	
243.78	4683	
243.99	4479.6	
244.2	2667.8	
244.41	2434.4	
244.63	3947.1	
244.84	4382	
245.05	2839.8	
245.26	2671.9	
245.47	4504.2	
245.68	4496	
245.9	3319.1	
246.11	2774.3	
246.32	4113	
246.53	4464.6	
246.74	3997.6	
246.95	2360.6	
247.16	4134.8	
247.38	4276.2	
247.59	2383.8	
247.8	2681.5	
248.01	4014	
248.22	4337.6	
248.43	2491	
248.64	2653.5	
248.86	4026.3	
249.07	4192.9	
249.28	2513.5	
249.49	2766.8	
249.7	4536.9	
249.91	4549.9	
250.12	2392	
250.34	2447.3	
250.55	4336.9	
250.76	4218.8	
250.97	2773.6	
251.18	2751.1	
251.39	4569	
251.6	4415.4	
251.81	2809.1	
252.03	2790	
252.24	4130.8	
252.45	4446.8	
252.66	2411.8	
252.87	2854.2	
253.08	4265.9	
253.29	5173.9	
253.5	2392.7	
253.72	3183.2	
253.93	4278.9	
254.14	4804.5	
254.35	2582.5	
254.56	2643.9	
254.77	4429.1	
254.98	4035.9	
255.19	2620	
255.41	3095.8	
255.62	4397	
255.83	4666	
256.04	2888.3	
256.25	2722.4	
256.46	4977.2	
256.67	4104.8	
256.88	2712.2	
257.09	2986.6	
257.31	3964.2	
257.52	4062.5	
257.73	3366.2	
257.94	2590	
258.15	4260.5	
258.36	4254.3	
258.57	3082.2	
258.78	2155.1	
258.99	4557.4	
259.2	4140.3	
259.41	2583.9	
259.63	2661.7	
259.84	4766.3	
260.05	4889.9	
260.26	3119.7	
260.47	2555.2	
260.68	4642.1	
260.89	4156	
261.1	2977.7	
261.31	2535.4	
261.52	4704.9	
261.73	4818.2	
261.95	3211.2	
262.16	2803.7	
262.37	4661.9	
262.58	4706.2	
262.79	3155.2	
263	2616.6	
263.21	4373.1	
263.42	4059.8	
263.63	2807.1	
263.84	2641.2	
264.05	4556.7	
264.26	4668.7	
264.47	3082.2	
264.69	2871.3	
264.9	4737	
265.11	4303.5	
265.32	2491	
265.53	2552.5	
265.74	4341	
265.95	3965.6	
266.16	2692.4	
266.37	2917	
266.58	4382	
266.79	4110.3	
267	2615.3	
267.21	2482.8	
267.42	4010.6	
267.63	4254.3	
267.84	2620	
268.06	2370.2	
268.27	4531.5	
268.48	4634.6	
268.69	2667.8	
268.9	3013.2	
269.11	4530.8	
269.32	3936.9	
269.53	2667.1	
269.74	2532.7	
269.95	4358.8	
270.16	3962.1	
270.37	2665.8	
270.58	2990	
270.79	4251.6	
271	4586.1	
271.21	2764.1	
271.42	2705.4	
271.63	4469.4	
271.84	3967.6	
272.05	2341.5	
272.26	2459.6	
272.47	4293.9	
272.68	4378.6	
272.89	2685.6	
273.11	2890.4	
273.32	4143	
273.53	4765.6	
273.74	2812.5	
273.95	2877.4	
274.16	4450.2	
274.37	4228.4	
274.58	2923.8	
274.79	2452.8	
275	4399.7	
275.21	4532.8	
275.42	3320.4	
275.63	2872.6	
275.84	4461.8	
276.05	5195.7	
276.26	2818.7	
276.47	2654.9	
276.68	4305.5	
276.89	4846.2	
277.1	2898.6	
277.31	2420.7	
277.52	4354	
277.73	4713.7	
277.94	2375.6	
278.15	2546.3	
278.36	4403.1	
278.57	4110.3	
278.78	2643.9	
278.99	2864.4	
279.2	4200.4	
279.41	4071.4	
279.62	3303.4	
279.83	2478.7	
280.04	4936.3	
280.25	4036.5	
280.46	3229	
280.67	2661	
280.88	4132.8	
281.09	4623.6	
281.3	2784.6	
281.51	3382.6	
281.72	4113.7	
281.93	4459.1	
282.14	2536.8	
282.35	2748.4	
282.56	4569	
282.77	4539.7	
282.98	2605.7	
283.19	3085.6	
283.4	5278.3	
283.61	4247.5	
283.82	2486.2	
284.03	3196.9	
284.24	4478.2	
284.45	4541	
284.66	3251.5	
284.87	3005.1	
285.08	4592.2	
285.29	4687.1	
285.5	2438.4	
285.71	2668.5	
285.92	4536.9	
286.12	4975.2	
286.33	3204.4	
286.54	2655.5	
286.75	4520.5	
286.96	4250.2	
287.17	2519	
287.38	3031.7	
287.59	4158.7	
287.8	4209.3	
288.01	2649.4	
288.22	2890.4	
288.43	4411.3	
288.64	3913	
288.85	3028.9	
289.06	2965.5	
289.27	4517.8	
289.48	4689.2	
289.69	3211.9	
289.9	2969.6	
290.11	4649.6	
290.32	4154	
290.53	2982.5	
290.74	2811.2	
290.94	4543.1	
291.15	4505.5	
291.36	2605.7	
291.57	2900.6	
291.78	4240	
291.99	3932.1	
292.2	2547.7	
292.41	2808.4	
292.62	4562.2	
292.83	4464.6	
293.04	3377.8	
293.25	2594.8	
293.46	4209.3	
293.67	4526.7	
293.88	2535.4	
294.09	2504.7	
294.29	4091.2	
294.5	4336.2	
294.71	2665.8	
294.92	2633	
295.13	4225	
295.34	4913.8	
295.55	2383.2	
295.76	2335.4	
295.97	4500.8	
296.18	4866	
296.39	2476.7	
296.6	2557.9	
296.81	4272.7	
297.01	4529.4	
297.22	2636.4	
297.43	2656.9	
297.64	4172.4	
297.85	4023.6	
298.06	2254.8	
298.27	2422.1	
298.48	4263.2	
298.69	4106.9	
298.9	2779.8	
299.11	2503.3	
299.31	4078.9	
299.52	4034.5	
299.73	2875.3	
299.94	2859.6	
300.15	4339.6	
300.36	4147.1	
300.57	2823.5	
300.78	2781.8	
300.99	4151.2	
301.2	4298	
301.4	2602.3	
301.61	2678.7	
301.82	4439.3	
302.03	4506.2	
302.24	2988.7	
302.45	2463.7	
302.66	4459.1	
302.87	4529.4	
303.08	2549.7	
303.29	3315	
303.49	4216.1	
303.7	4199	
303.91	2365.4	
304.12	3188	
304.33	3910.3	
304.54	4382.7	
304.75	2570.2	
304.96	2563.4	
305.16	4523.3	
305.37	4836.6	
305.58	2375	
305.79	2344.2	
306	4487.1	
306.21	3889.1	
306.42	2596.8	
306.63	3589.4	
306.83	4172.4	
307.04	4452.3	
307.25	2795.5	
307.46	2729.9	
307.67	3913.7	
307.88	4399.7	
308.09	2598.2	
308.29	2551.8	
308.5	4334.9	
308.71	4559.5	
308.92	2698.5	
309.13	2495.1	
309.34	4323.9	
309.55	4255.7	
309.75	3048.7	
309.96	2815.3	
310.17	4511.7	
310.38	4083	
310.59	2889.7	
310.8	2788.7	
311.01	4179.9	
311.21	4248.2	
311.42	2537.4	
311.63	2510.1	
311.84	4213.4	
312.05	4319.8	
312.26	2864.4	
312.46	3008.5	
312.67	4167.6	
312.88	3937.6	
313.09	2430.3	
313.3	2498.5	
313.51	4692.6	
313.71	4904.9	
313.92	2538.8	
314.13	2626.2	
314.34	4418.8	
314.55	4306.2	
314.76	2962.7	
314.96	2747.7	
315.17	4505.5	
315.38	4339.6	
315.59	2529.2	
315.8	2454.8	
316.01	4664.6	
316.21	4797.7	
316.42	2515.6	
316.63	2721.1	
316.84	4240.7	
317.05	4569.7	
317.26	2865.1	
317.46	2648	
317.67	4296.6	
317.88	4429.1	
318.09	3038.5	
318.3	2377.7	
318.5	4182.6	
318.71	4397.7	
318.92	3682.9	
319.13	2891	
319.34	4511.7	
319.54	4633.2	
319.75	2370.2	
319.96	2312.8	
320.17	4442	
320.38	4572.4	
320.58	2382.5	
320.79	2723.8	
321	4605.2	
321.21	4695.3	
321.42	2745.6	
321.62	2335.4	
321.83	4121.9	
322.04	4303.5	
322.25	2656.9	
322.46	2523.1	
322.66	4349.2	
322.87	4574.5	
323.08	2932	
323.29	2441.9	
323.5	4893.3	
323.7	4003.1	
323.91	3183.9	
324.12	2856.9	
324.33	4392.9	
324.53	4470.7	
324.74	2858.3	
324.95	2908.1	
325.16	4032.5	
325.37	4189.5	
325.57	2502.6	
325.78	2544.9	
325.99	4412.7	
326.2	3978.5	
326.4	3283.6	
326.61	2439.1	
326.82	4207.2	
327.03	4367.6	
327.24	3288.4	
327.44	3065.8	
327.65	4467.3	
327.86	3800.3	
328.07	2869.9	
328.27	2452.1	
328.48	4739	
328.69	4047.5	
328.9	3297.9	
329.1	2590.7	
329.31	4217.5	
329.52	4735.6	
329.73	2579.8	
329.93	2702.6	
330.14	4392.2	
330.35	4362.2	
330.56	3751.2	
330.76	2972.3	
330.97	4173.8	
331.18	4297.3	
331.39	2799.6	
331.59	2335.4	
331.8	4603.8	
332.01	4654.4	
332.22	2566.8	
332.42	2805	
332.63	4376.5	
332.84	4035.9	
333.05	2768.9	
333.25	2543.6	
333.46	4114.4	
333.67	4283	
333.88	2682.8	
334.08	2766.1	
334.29	5195	
334.5	4547.9	
334.7	2495.1	
334.91	3225.6	
335.12	3966.9	
335.33	4464.6	
335.53	2758.6	
335.74	3621.5	
335.95	4280.9	
336.16	4023.6	
336.36	2689	
336.57	3031	
336.78	3926	
336.98	4595	
337.19	3259.7	
337.4	2664.4	
337.61	4949.9	
337.81	3965.6	
338.02	2554.5	
338.23	3050.8	
338.43	4741.7	
338.64	4108.2	
338.85	2521	
339.05	3147	
339.26	4859.1	
339.47	3991.5	
339.68	2536.1	
339.88	3412.6	
340.09	4558.8	
340.3	4579.9	
340.5	2817.3	
340.71	2298.5	
340.92	4056.3	
341.13	4612	
341.33	2408.4	
341.54	2821.4	
341.75	4453	
341.95	4167.6	
342.16	2781.1	
342.37	2934.7	
342.57	3986	
342.78	4156	
342.99	2992.8	
343.19	2348.3	
343.4	4566.3	
343.61	4423.6	
343.81	2671.9	
344.02	2405.7	
344.23	4536.3	
344.43	4726	
344.64	2977.7	
344.85	2882.9	
345.06	4396.3	
345.26	4616.1	
345.47	2887	
345.68	3220.1	
345.88	3956.7	
346.09	4522.6	
346.3	2901.3	
346.5	2291	
346.71	4209.9	
346.92	4143	
347.12	2472.6	
347.33	2778.4	
347.54	4529.4	
347.74	4711.7	
347.95	2792.1	
348.16	2286.2	
348.36	4126.7	
348.57	4068.6	
348.78	2887	
348.98	2936.8	
349.19	4277.5	
349.39	3921.2	
349.6	2443.9	
349.81	2583.2	
350.01	4496.7	
350.22	4094.6	
350.43	2786.6	
350.63	3153.9	
350.84	4263.2	
351.05	4094.6	
351.25	2542.2	
351.46	2353.1	
351.67	4545.1	
351.87	4034.5	
352.08	2721.1	
352.29	2979.1	
352.49	4560.8	
352.7	4324.6	
352.9	2512.2	
353.11	2933.4	
353.32	4839.4	
353.52	4213.4	
353.73	2541.5	
353.94	3049.4	
354.14	4422.2	
354.35	4239.3	
354.55	2517.6	
354.76	2735.4	
354.97	4495.3	
355.17	4259.1	
355.38	2570.9	
355.59	3090.4	
355.79	4058.4	
356	4209.3	
356.2	2732	
356.41	2493.1	
356.62	4041.3	
356.82	4229.7	
357.03	2950.4	
357.24	2682.8	
357.44	4059.1	
357.65	4147.8	
357.85	3292.5	
358.06	2790.7	
358.27	3947.8	
358.47	4085.7	
358.68	2496.5	
358.88	2889	
359.09	4379.9	
359.3	4529.4	
359.5	3239.2	
359.71	2945	
359.91	4742.4	
360.12	4371	
360.33	2925.9	
360.53	3206.4	
360.74	4114.4	
360.94	4170.3	
361.15	3030.3	
361.36	2639.8	
361.56	4625	
361.77	4289.1	
361.97	3263.8	
362.18	2744.3	
362.38	4603.8	
362.59	4076.8	
362.8	2587.3	
363	2620.7	
363.21	4001	
363.41	4261.1	
363.62	2887.6	
363.83	3305.4	
364.03	4437.3	
364.24	4754.7	
364.44	3526.6	
364.65	3431.7	
364.85	4296	
365.06	4094.6	
365.27	2718.3	
365.47	2783.9	
365.68	4792.9	
365.88	4339	
366.09	2976.4	
366.29	2745.6	
366.5	4330.1	
366.71	4568.3	
366.91	3460.4	
367.12	3046	
367.32	5003.9	
367.53	4554.7	
367.73	3077.4	
367.94	3506.1	
368.14	4586.8	
368.35	4842.8	
368.56	2966.8	
368.76	2695.1	
368.97	4589.5	
369.17	5426.4	
369.38	2724.5	
369.58	2910.2	
369.79	4063.9	
369.99	4835.9	
370.2	3472	
370.4	2973	
370.61	4435.9	
370.82	5231.2	
371.02	2930.6	
371.23	2642.6	
371.43	4133.5	
371.64	4859.8	
371.84	2981.2	
372.05	3453.6	
372.25	5325.4	
372.46	4556	
372.66	2926.5	
372.87	3016.7	
373.07	4547.9	
373.28	5525.4	
373.48	3444	
373.69	3297.9	
373.9	4426.3	
374.1	4390.2	
374.31	3381.9	
374.51	3143.6	
374.72	4744.5	
374.92	4227.7	
375.13	3484.3	
375.33	3099.9	
375.54	4533.5	
375.74	4341.7	
375.95	3230.3	
376.15	3805.8	
376.36	4712.4	
376.56	4585.4	
376.77	3205.1	
376.97	3349.8	
377.18	5305.6	
377.38	4704.9	
377.59	3516.4	
377.79	2998.2	
378	4536.3	
378.2	4698.7	
378.41	3014.6	
378.61	2962	
378.82	4836.6	
379.02	4466.6	
379.23	3114.3	
379.43	3652.9	
379.64	5018.2	
379.84	4702.1	
380.05	3067.9	
380.25	3041.2	
380.46	4759.5	
380.66	4493.9	
380.87	3708.2	
381.07	3830.4	
381.28	5090.6	
381.48	4730.1	
381.69	3020.1	
381.89	3077.4	
382.1	4244.1	
382.3	4760.2	
382.51	3633.8	
382.71	4042.7	
382.91	4632.5	
383.12	4990.2	
383.32	3223.5	
383.53	3334.8	
383.73	4683.7	
383.94	4669.4	
384.14	3295.9	
384.35	2895.8	
384.55	4367	
384.76	4728.8	
384.96	3278.1	
385.17	3353.2	
385.37	4771.1	
385.58	4304.8	
385.78	3338.9	
385.98	2858.3	
386.19	4487.8	
386.39	4717.2	
386.6	3108.8	
386.8	3265.8	
387.01	4752	
387.21	4809.3	
387.42	3433.1	
387.62	3689.8	
387.83	4534.9	
388.03	4589.5	
388.23	3307.5	
388.44	3632.4	
388.64	4300.1	
388.85	4387.4	
389.05	3403.7	
389.26	3760.1	
389.46	5474.2	
389.67	5095.3	
389.87	3490.4	
390.07	3496.6	
390.28	4554	
390.48	4377.9	
390.69	3155.2	
390.89	3248.8	
391.1	4577.9	
391.3	5006.6	
391.5	3916.4	
391.71	4179.2	
391.91	4936.3	
392.12	5265.3	
392.32	3969.6	
392.53	3500	
392.73	4609.3	
392.93	4665.3	
393.14	3368.2	
393.34	3683.6	
393.55	4954	
393.75	4614.8	
393.95	3401	
394.16	3305.4	
394.36	4584.7	
394.57	4928.8	
394.77	3141.6	
394.98	3319.8	
395.18	4610.7	
395.38	4616.1	
395.59	3841.3	
395.79	3240.6	
396	4689.8	
396.2	4958.1	
396.4	3786	
396.61	3683.6	
396.81	4991.6	
397.02	4605.2	
397.22	3863.8	
397.42	3858.4	
397.63	5091.9	
397.83	4657.1	
398.04	3257	
398.24	3557.3	
398.44	4918.5	
398.65	4383.3	
398.85	3297.2	
399.05	3223.5	
399.26	4800.4	
399.46	5542.5	
399.67	3564.8	
399.87	3378.5	
400.07	4860.5	
400.28	5051.7	
400.48	3428.3	
400.69	4028.4	
400.89	5090.6	
401.09	5533.6	
401.3	3438.5	
401.5	4038.6	
401.7	5500.8	
401.91	5638.1	
402.11	3682.2	
402.32	3722.5	
402.52	5279.7	
402.72	5102.2	
402.93	3880.2	
403.13	3224.9	
403.33	5637.4	
403.54	4932.9	
403.74	3653.6	
403.94	4131.4	
404.15	5036	
404.35	5631.2	
404.56	3624.9	
404.76	4481.6	
404.96	5315.2	
405.17	5044.1	
405.37	4042	
405.57	3850.9	
405.78	5300.8	
405.98	4943.8	
406.18	3592.8	
406.39	4056.3	
406.59	5223.7	
406.79	4995.7	
407	3536.2	
407.2	3534.1	
407.4	5549.3	
407.61	5428.5	
407.81	3625.6	
408.01	4844.1	
408.22	4769	
408.42	5860.6	
408.62	4262.5	
408.83	4023.6	
409.03	5221	
409.23	5253.7	
409.44	4084.3	
409.64	4236.6	
409.84	5885.9	
410.05	5809.4	
410.25	4307.6	
410.45	4136.2	
410.66	5690.6	
410.86	6952.2	
411.06	4509.6	
411.27	4329.4	
411.47	6939.2	
411.67	5804.6	
411.88	4564.2	
412.08	4741.7	
412.28	6109.8	
412.49	6425.8	
412.69	4463.2	
412.89	4515.8	
413.09	6384.2	
413.3	6336.4	
413.5	4659.8	
413.7	4454.3	
413.91	5926.1	
414.11	6408.8	
414.31	4515.8	
414.52	4810	
414.72	6315.3	
414.92	6249.7	
415.12	4584	
415.33	4919.9	
415.53	6389	
415.73	6554.9	
415.94	5046.2	
416.14	4708.3	
416.34	6025.8	
416.55	5816.9	
416.75	5434.6	
416.95	5173.2	
417.15	6709.8	
417.36	6802	
417.56	5669.5	
417.76	5050.3	
417.97	6760.3	
418.17	6543.9	
418.37	4938.3	
418.57	4958.8	
418.78	6544.6	
418.98	6381.5	
419.18	5356.1	
419.38	5311.1	
419.59	6277	
419.79	6119.3	
419.99	4831.2	
420.2	4971.8	
420.4	6599.2	
420.6	6624.5	
420.8	4837.3	
421.01	4743.8	
421.21	6701.6	
421.41	6649.1	
421.61	5012.7	
421.82	4898.7	
422.02	6390.3	
422.22	6744	
422.42	5350	
422.63	5049.6	
422.83	6257.9	
423.03	7108.5	
423.23	5141.8	
423.44	4565.6	
423.64	6368.5	
423.84	6120.7	
424.04	4899.4	
424.25	4640.7	
424.45	6747.4	
424.65	6729.6	
424.85	4603.8	
425.06	4821.6	
425.26	7077.8	
425.46	6318.7	
425.66	5111	
425.87	4893.3	
426.07	6668.2	
426.27	6519.4	
426.47	4991.6	
426.67	4733.5	
426.88	6938.5	
427.08	6624.5	
427.28	5261.2	
427.48	4618.9	
427.69	6034	
427.89	6323.4	
428.09	5138.4	
428.29	4640	
428.5	6688.7	
428.7	6539.8	
428.9	4731.5	
429.1	4901.5	
429.3	6503.7	
429.51	6660	
429.71	4834.6	
429.91	5436	
430.11	6821.8	
430.31	7005.4	
430.52	5079.6	
430.72	5218.9	
430.92	6979.5	
431.12	6733	
431.32	4956.1	
431.53	5138.4	
431.73	6226.5	
431.93	6965.8	
432.13	4849.6	
432.33	4866.7	
432.54	6505.7	
432.74	6584.9	
432.94	4846.2	
433.14	5446.9	
433.34	6985.6	
433.55	6744	
433.75	5345.9	
433.95	6397.2	
434.15	6823.8	
434.35	6590.4	
434.56	5072.1	
434.76	4840.7	
434.96	6815.6	
435.16	6965.1	
435.36	5031.2	
435.56	5722	
435.77	6753.5	
435.97	6731	
436.17	6029.2	
436.37	5726.8	
436.57	6672.3	
436.78	6666.8	
436.98	6522.1	
437.18	6028.5	
437.38	7037.5	
437.58	6795.8	
437.78	6029.9	
437.99	5406	
438.19	7045	
438.39	7587.7	
438.59	5277.6	
438.79	4988.9	
438.99	7411.6	
439.2	6746	
439.4	4976.6	
439.6	5104.9	
439.8	6871.6	
440	7576.1	
440.2	5738.4	
440.4	5773.9	
440.61	7386.3	
440.81	7502.4	
441.01	5338.4	
441.21	5906.3	
441.41	7687.4	
441.61	7354.3	
441.81	6131.6	
442.02	6516	
442.22	7972.1	
442.42	7451.2	
442.62	5538.4	
442.82	5527.5	
443.02	7785.7	
443.22	7304.4	
443.43	5765	
443.63	5523.4	
443.83	7154.9	
444.03	7105.8	
444.23	6331.6	
444.43	6034.7	
444.63	7591.8	
444.83	8052.6	
445.04	5815.5	
445.24	6354.2	
445.44	7629.4	
445.64	7617.1	
445.84	6092	
446.04	6186.9	
446.24	7256.6	
446.44	7736.5	
446.65	5556.8	
446.85	5928.9	
447.05	7228	
447.25	7755.7	
447.45	5948	
447.65	5644.9	
447.85	7539.9	
448.05	7110.5	
448.25	6129.6	
448.46	6023.1	
448.66	7509.2	
448.86	7150.8	
449.06	5650.3	
449.26	6100.2	
449.46	7617.8	
449.66	7157	
449.86	6032	
450.06	5965.1	
450.26	7336.5	
450.47	7696.9	
450.67	6070.9	
450.87	6272.2	
451.07	7847.8	
451.27	7591.1	
451.47	5791.7	
451.67	6366.5	
451.87	7455.3	
452.07	8047.2	
452.27	6075.6	
452.47	6006	
452.67	7780.2	
452.88	7828.7	
453.08	5608.7	
453.28	6683.9	
453.48	8370	
453.68	7536.5	
453.88	6064	
454.08	6075	
454.28	7880.6	
454.48	7750.9	
454.68	6397.2	
454.88	6582.2	
455.08	8088.8	
455.28	7950.9	
455.48	5947.3	
455.68	6500.9	
455.89	8471.1	
456.09	8264.2	
456.29	6275.7	
456.49	6472.9	
456.69	8485.4	
456.89	7851.9	
457.09	6769.9	
457.29	6909.8	
457.49	8329.1	
457.69	8353.7	
457.89	6863.4	
458.09	6410.1	
458.29	8153	
458.49	8738.7	
458.69	6997.2	
458.89	6698.2	
459.09	8843.1	
459.29	8857.5	
459.49	6744	
459.69	7258.7	
459.9	8613.8	
460.1	8464.3	
460.3	6639.5	
460.5	6589.7	
460.7	8702.5	
460.9	8392.6	
461.1	6562.4	
461.3	7307.2	
461.5	9150.3	
461.7	9039.1	
461.9	6945.3	
462.1	7165.8	
462.3	8729.1	
462.5	8983.1	
462.7	7172.7	
462.9	7260	
463.1	9744.2	
463.3	9633	
463.5	7400	
463.7	8088.8	
463.9	9109.4	
464.1	9268.4	
464.3	7685.3	
464.5	7696.3	
464.7	9587.2	
464.9	9436.4	
465.1	8497	
465.3	8017.1	
465.5	9706.7	
465.7	9886.9	
465.9	8234.9	
466.1	7963.9	
466.3	9710.1	
466.5	9596.1	
466.7	8831.5	
466.9	8059.4	
467.1	9955.2	
467.3	10211	
467.5	8767.4	
467.7	8264.2	
467.9	10500	
468.1	10876	
468.3	8545.5	
468.5	8797.4	
468.7	9867.8	
468.9	9663.7	
469.1	8359.8	
469.3	8908.7	
469.5	11050	
469.7	9800.2	
469.9	8607.6	
470.1	8293.6	
470.3	10146	
470.5	9978.4	
470.7	9071.1	
470.9	8389.2	
471.1	9877.4	
471.3	10028	
471.5	8297.7	
471.69	9277.3	
471.89	9906	
472.09	9480.7	
472.29	8818.6	
472.49	8728.4	
472.69	9741.5	
472.89	10082	
473.09	8226	
473.29	8140.7	
473.49	9731.3	
473.69	9626.8	
473.89	8695	
474.09	8281.3	
474.29	10393	
474.49	10216	
474.69	8826.7	
474.89	8464.3	
475.09	9913.5	
475.29	9797.5	
475.49	8155	
475.69	8339.3	
475.88	10555	
476.08	10091	
476.28	8132.5	
476.48	8151.6	
476.68	10197	
476.88	10108	
477.08	8202.8	
477.28	8339.3	
477.48	9826.8	
477.68	9874.6	
477.88	8073.8	
478.08	8133.2	
478.28	10489	
478.48	9871.9	
478.67	8365.3	
478.87	7790.5	
479.07	10408	
479.27	9847.3	
479.47	8358.4	
479.67	8462.2	
479.87	10269	
480.07	10373	
480.27	8109.3	
480.47	8875.2	
480.67	9999.5	
480.87	10530	
481.06	8352.3	
481.26	8822	
481.46	10105	
481.66	9966.1	
481.86	8607.6	
482.06	9053.4	
482.26	10035	
482.46	10445	
482.66	8486.1	
482.86	8456.1	
483.05	10410	
483.25	9879.4	
483.45	10002	
483.65	8570.1	
483.85	9933.3	
484.05	10161	
484.25	8906.6	
484.45	9286.2	
484.65	10523	
484.84	10823	
485.04	8780.3	
485.24	8627.4	
485.44	11056	
485.64	9962.7	
485.84	8461.5	
486.04	9107.3	
486.24	10335	
486.44	10451	
486.63	8452.6	
486.83	9093	
487.03	10525	
487.23	10614	
487.43	8688.8	
487.63	9896.5	
487.83	10651	
488.02	10890	
488.22	9334	
488.42	9652.8	
488.62	11101	
488.82	10450	
489.02	9132.6	
489.22	9269.1	
489.41	11031	
489.61	11182	
489.81	8972.2	
490.01	9026.1	
490.21	11239	
490.41	11689	
490.61	9096.4	
490.8	9192.6	
491	11097	
491.2	10662	
491.4	9510.8	
491.6	9039.7	
491.8	10953	
491.99	10733	
492.19	8907.3	
492.39	9023.4	
492.59	11131	
492.79	11337	
492.99	9727.9	
493.18	9252	
493.38	11542	
493.58	12030	
493.78	9829.6	
493.98	9448.6	
494.18	11413	
494.37	11232	
494.57	10194	
494.77	10009	
494.97	11798	
495.17	11941	
495.37	10044	
495.56	10311	
495.76	12295	
495.96	12134	
496.16	10839	
496.36	10374	
496.55	12403	
496.75	12144	
496.95	10542	
497.15	10470	
497.35	12256	
497.54	12397	
497.74	10443	
497.94	11424	
498.14	12961	
498.34	12611	
498.53	10479	
498.73	10916	
498.93	12123	
499.13	12566	
499.33	10856	
499.52	10974	
499.72	12862	
499.92	12613	
500.12	10696	
500.32	11022	
500.51	12688	
500.71	12734	
500.91	11292	
501.11	11127	
501.31	12791	
501.5	12988	
501.7	11596	
501.9	11017	
502.1	12678	
502.29	12970	
502.49	11338	
502.69	11514	
502.89	12809	
503.09	12805	
503.28	10535	
503.48	10615	
503.68	12392	
503.88	12326	
504.07	11205	
504.27	10666	
504.47	12562	
504.67	12493	
504.86	11154	
505.06	10970	
505.26	12295	
505.46	13052	
505.65	10782	
505.85	10806	
506.05	12199	
506.25	12435	
506.44	10256	
506.64	10681	
506.84	11982	
507.04	12261	
507.23	10354	
507.43	10582	
507.63	13010	
507.83	11944	
508.02	10714	
508.22	10383	
508.42	13188	
508.62	12010	
508.81	10473	
509.01	10862	
509.21	11848	
509.4	12317	
509.6	10802	
509.8	10372	
510	11965	
510.19	12717	
510.39	10359	
510.59	10459	
510.79	12185	
510.98	12823	
511.18	10714	
511.38	10626	
511.57	12650	
511.77	12403	
511.97	10920	
512.17	10389	
512.36	12474	
512.56	12299	
512.76	10454	
512.95	10253	
513.15	12704	
513.35	11796	
513.55	10968	
513.74	10593	
513.94	12708	
514.14	12241	
514.33	11029	
514.53	10834	
514.73	12305	
514.92	12229	
515.12	10647	
515.32	10601	
515.51	12616	
515.71	12671	
515.91	11579	
516.11	10750	
516.3	13371	
516.5	12443	
516.7	11000	
516.89	11288	
517.09	12342	
517.29	12501	
517.48	11291	
517.68	10818	
517.88	12183	
518.07	12590	
518.27	11203	
518.47	10537	
518.66	12955	
518.86	12218	
519.06	10531	
519.25	10795	
519.45	12417	
519.65	13290	
519.84	11240	
520.04	11721	
520.24	13607	
520.43	12857	
520.63	11074	
520.83	10920	
521.02	12446	
521.22	12592	
521.42	11000	
521.61	11324	
521.81	12436	
522.01	12662	
522.2	11112	
522.4	10824	
522.6	12990	
522.79	12245	
522.99	10972	
523.18	10834	
523.38	12988	
523.58	12962	
523.77	12002	
523.97	11109	
524.17	14038	
524.36	13750	
524.56	11961	
524.76	11818	
524.95	13440	
525.15	13196	
525.34	11903	
525.54	12030	
525.74	13944	
525.93	13208	
526.13	12770	
526.33	12159	
526.52	14216	
526.72	13924	
526.91	12893	
527.11	12426	
527.31	14173	
527.5	14472	
527.7	12668	
527.89	12130	
528.09	13916	
528.29	14175	
528.48	12940	
528.68	12633	
528.87	14509	
529.07	14358	
529.27	12624	
529.46	12377	
529.66	14233	
529.85	14513	
530.05	12392	
530.25	12801	
530.44	15048	
530.64	14184	
530.83	12620	
531.03	12834	
531.23	14788	
531.42	14426	
531.62	13239	
531.81	12812	
532.01	14816	
532.21	14912	
532.4	12952	
532.6	13332	
532.79	15512	
532.99	15125	
533.18	13523	
533.38	13962	
533.58	15034	
533.77	15202	
533.97	13661	
534.16	13979	
534.36	15685	
534.55	15223	
534.75	14106	
534.95	13802	
535.14	15870	
535.34	15119	
535.53	13524	
535.73	14475	
535.92	16033	
536.12	15144	
536.31	13554	
536.51	14065	
536.71	15459	
536.9	15137	
537.1	13481	
537.29	13728	
537.49	15646	
537.68	15079	
537.88	13968	
538.07	13386	
538.27	15380	
538.46	15866	
538.66	13496	
538.86	13824	
539.05	15465	
539.25	15614	
539.44	14105	
539.64	13554	
539.83	15327	
540.03	15841	
540.22	13592	
540.42	13442	
540.61	15240	
540.81	15406	
541	13579	
541.2	14201	
541.39	14947	
541.59	15216	
541.78	14007	
541.98	13445	
542.18	14764	
542.37	14754	
542.57	13444	
542.76	13828	
542.96	14790	
543.15	15051	
543.35	13426	
543.54	13034	
543.74	14606	
543.93	14932	
544.13	13220	
544.32	13803	
544.52	14930	
544.71	14463	
544.91	12655	
545.1	13257	
545.3	14603	
545.49	14641	
545.69	12499	
545.88	12932	
546.08	15412	
546.27	14931	
546.47	13229	
546.66	12757	
546.86	14851	
547.05	15035	
547.24	12820	
547.44	12941	
547.63	14257	
547.83	14974	
548.02	13072	
548.22	13039	
548.41	14022	
548.61	14824	
548.8	12677	
549	12671	
549.19	14495	
549.39	14773	
549.58	12425	
549.78	12813	
549.97	14689	
550.17	14156	
550.36	13177	
550.55	13708	
550.75	14268	
550.94	14691	
551.14	12565	
551.33	12542	
551.53	13853	
551.72	14329	
551.92	12587	
552.11	12562	
552.31	14412	
552.5	14193	
552.69	13458	
552.89	12324	
553.08	14457	
553.28	14132	
553.47	12515	
553.67	13138	
553.86	14601	
554.06	13566	
554.25	11981	
554.44	12356	
554.64	15035	
554.83	14655	
555.03	12278	
555.22	12491	
555.42	14435	
555.61	14248	
555.8	12339	
556	12361	
556.19	13669	
556.39	14244	
556.58	12360	
556.78	12338	
556.97	14138	
557.16	13773	
557.36	13115	
557.55	12262	
557.75	13427	
557.94	14698	
558.13	12254	
558.33	12051	
558.52	14493	
558.72	13586	
558.91	12114	
559.1	12186	
559.3	13538	
559.49	13337	
559.69	12032	
559.88	12238	
560.07	13819	
560.27	14264	
560.46	12479	
560.66	12383	
560.85	13913	
561.04	13265	
561.24	11876	
561.43	12015	
561.63	13374	
561.82	13628	
562.01	12730	
562.21	12101	
562.4	13751	
562.59	14487	
562.79	12184	
562.98	12038	
563.18	13914	
563.37	14741	
563.56	12508	
563.76	12251	
563.95	13646	
564.14	13761	
564.34	12346	
564.53	12226	
564.73	14149	
564.92	14106	
565.11	12506	
565.31	12211	
565.5	14504	
565.69	13637	
565.89	12404	
566.08	12541	
566.27	14326	
566.47	14678	
566.66	13089	
566.85	12271	
567.05	14252	
567.24	14062	
567.44	12375	
567.63	13121	
567.82	14439	
568.02	14131	
568.21	12411	
568.4	12588	
568.6	14188	
568.79	14134	
568.98	12436	
569.18	12656	
569.37	14351	
569.56	15412	
569.76	12936	
569.95	13358	
570.14	14526	
570.34	14441	
570.53	12586	
570.72	12439	
570.91	14917	
571.11	14403	
571.3	12714	
571.49	13304	
571.69	14629	
571.88	14083	
572.07	13107	
572.27	12997	
572.46	14009	
572.65	14648	
572.85	12749	
573.04	12934	
573.23	15051	
573.43	14540	
573.62	12747	
573.81	13102	
574	14767	
574.2	14559	
574.39	13203	
574.58	13103	
574.78	15304	
574.97	14913	
575.16	13494	
575.36	13593	
575.55	15385	
575.74	15338	
575.93	12977	
576.13	13790	
576.32	14920	
576.51	15270	
576.71	13357	
576.9	14301	
577.09	15526	
577.28	15109	
577.48	13610	
577.67	13117	
577.86	15054	
578.05	15350	
578.25	13564	
578.44	13515	
578.63	15136	
578.83	15759	
579.02	13235	
579.21	14296	
579.4	15192	
579.6	15114	
579.79	13542	
579.98	14849	
580.17	15543	
580.37	15582	
580.56	13386	
580.75	13837	
580.94	15571	
581.14	15677	
581.33	14024	
581.52	13529	
581.71	15374	
581.91	15988	
582.1	13439	
582.29	13781	
582.48	15301	
582.68	15285	
582.87	14013	
583.06	13875	
583.25	15641	
583.45	15186	
583.64	14470	
583.83	14586	
584.02	15399	
584.21	15783	
584.41	14199	
584.6	13920	
584.79	15485	
584.98	15754	
585.18	13589	
585.37	13575	
585.56	15431	
585.75	15702	
585.94	13735	
586.14	14151	
586.33	15852	
586.52	15369	
586.71	13872	
586.91	13697	
587.1	14840	
587.29	15454	
587.48	13426	
587.67	13477	
587.87	15352	
588.06	15109	
588.25	14059	
588.44	13634	
588.63	14910	
588.83	15281	
589.02	13230	
589.21	12938	
589.4	14582	
589.59	14514	
589.78	12325	
589.98	12534	
590.17	13801	
590.36	13932	
590.55	11662	
590.74	11843	
590.94	14383	
591.13	13547	
591.32	11853	
591.51	11529	
591.7	13838	
591.89	13685	
592.09	11749	
592.28	11847	
592.47	13188	
592.66	14341	
592.85	11856	
593.05	11930	
593.24	13639	
593.43	14223	
593.62	12169	
593.81	12206	
594	13708	
594.19	13838	
594.39	11957	
594.58	11862	
594.77	13898	
594.96	14084	
595.15	11868	
595.34	12162	
595.54	13611	
595.73	13162	
595.92	11312	
596.11	11931	
596.3	13874	
596.49	13288	
596.68	11738	
596.88	12007	
597.07	13723	
597.26	13080	
597.45	11632	
597.64	12302	
597.83	13415	
598.02	13611	
598.22	11669	
598.41	11929	
598.6	13592	
598.79	13078	
598.98	11693	
599.17	12154	
599.36	13553	
599.55	13976	
599.74	12723	
599.94	12613	
600.13	13825	
600.32	13211	
600.51	11517	
600.7	11592	
600.89	14071	
601.08	14127	
601.27	11486	
601.47	11884	
601.66	13650	
601.85	14002	
602.04	11958	
602.23	11845	
602.42	13196	
602.61	13466	
602.8	11658	
602.99	11454	
603.18	13361	
603.37	13446	
603.57	11876	
603.76	12143	
603.95	13751	
604.14	13536	
604.33	11662	
604.52	11693	
604.71	13587	
604.9	13155	
605.09	12082	
605.28	11894	
605.47	13847	
605.66	13448	
605.86	11982	
606.05	11574	
606.24	13720	
606.43	12962	
606.62	11799	
606.81	12106	
607	13761	
607.19	13273	
607.38	11482	
607.57	11584	
607.76	13251	
607.95	12705	
608.14	11818	
608.33	12138	
608.52	13054	
608.72	13543	
608.91	11265	
609.1	11290	
609.29	13104	
609.48	12819	
609.67	11792	
609.86	11192	
610.05	12811	
610.24	12955	
610.43	11191	
610.62	11016	
610.81	13538	
611	13383	
611.19	11185	
611.38	11592	
611.57	13155	
611.76	13738	
611.95	11137	
612.14	10829	
612.33	13007	
612.52	12871	
612.71	11398	
612.9	11046	
613.09	12510	
613.28	13909	
613.47	11297	
613.66	11644	
613.85	13024	
614.04	12843	
614.24	11311	
614.43	10800	
614.62	13170	
614.81	13090	
615	11436	
615.19	11637	
615.38	12713	
615.57	13076	
615.76	11551	
615.95	12054	
616.14	13330	
616.33	13106	
616.52	11639	
616.71	11767	
616.9	13198	
617.09	13183	
617.28	11449	
617.47	11991	
617.66	12890	
617.85	12820	
618.04	11952	
618.22	11625	
618.41	13098	
618.6	13736	
618.79	11899	
618.98	11727	
619.17	14056	
619.36	12965	
619.55	11906	
619.74	11813	
619.93	13592	
620.12	13330	
620.31	12273	
620.5	12375	
620.69	13933	
620.88	14401	
621.07	12770	
621.26	12387	
621.45	13889	
621.64	14079	
621.83	12430	
622.02	12053	
622.21	13928	
622.4	13914	
622.59	12736	
622.78	12669	
622.97	13759	
623.16	14255	
623.35	12583	
623.54	11972	
623.72	13875	
623.91	13861	
624.1	12708	
624.29	12092	
624.48	14478	
624.67	14138	
624.86	12755	
625.05	12193	
625.24	14739	
625.43	13875	
625.62	13459	
625.81	12333	
626	14307	
626.19	13992	
626.38	12736	
626.56	12435	
626.75	13830	
626.94	14476	
627.13	12727	
627.32	12031	
627.51	14304	
627.7	14724	
627.89	11927	
628.08	12633	
628.27	13517	
628.46	13842	
628.65	12129	
628.83	11953	
629.02	14025	
629.21	13705	
629.4	12439	
629.59	12601	
629.78	13641	
629.97	14242	
630.16	12546	
630.35	12342	
630.54	14579	
630.72	14317	
630.91	12238	
631.1	12626	
631.29	13969	
631.48	14071	
631.67	12637	
631.86	12223	
632.05	13951	
632.24	14042	
632.42	11992	
632.61	12405	
632.8	13906	
632.99	13573	
633.18	12579	
633.37	12603	
633.56	14113	
633.75	13913	
633.93	12549	
634.12	12523	
634.31	14506	
634.5	14213	
634.69	12333	
634.88	12594	
635.07	14207	
635.25	14164	
635.44	12821	
635.63	13105	
635.82	13764	
636.01	13226	
636.2	12791	
636.39	12512	
636.57	14461	
636.76	14002	
636.95	12224	
637.14	12790	
637.33	14042	
637.52	14504	
637.7	12028	
637.89	12564	
638.08	13878	
638.27	14535	
638.46	12508	
638.65	12717	
638.83	14442	
639.02	13725	
639.21	12462	
639.4	12693	
639.59	13784	
639.78	13525	
639.96	11889	
640.15	11981	
640.34	13786	
640.53	13621	
640.72	11745	
640.91	11888	
641.09	13177	
641.28	13919	
641.47	12053	
641.66	12338	
641.85	13607	
642.03	13748	
642.22	12038	
642.41	11761	
642.6	13246	
642.79	12927	
642.97	11617	
643.16	11985	
643.35	13082	
643.54	12936	
643.73	11413	
643.91	11886	
644.1	12701	
644.29	13279	
644.48	11329	
644.67	11496	
644.85	12668	
645.04	12899	
645.23	10935	
645.42	11211	
645.6	12545	
645.79	13021	
645.98	10784	
646.17	10372	
646.36	11987	
646.54	12103	
646.73	11039	
646.92	10458	
647.11	11966	
647.29	12422	
647.48	10423	
647.67	10358	
647.86	12577	
648.05	12552	
648.23	10443	
648.42	11216	
648.61	12329	
648.8	12138	
648.98	10247	
649.17	10494	
649.36	11820	
649.55	11535	
649.73	10232	
649.92	10792	
650.11	11921	
650.3	11948	
650.48	10474	
650.67	10279	
650.86	12101	
651.05	11362	
651.23	10247	
651.42	10056	
651.61	11761	
651.79	11464	
651.98	10318	
652.17	10078	
652.36	11863	
652.54	11211	
652.73	10070	
652.92	10045	
653.11	11777	
653.29	11970	
653.48	9688.3	
653.67	10116	
653.85	11622	
654.04	12249	
654.23	10133	
654.42	9906	
654.6	11057	
654.79	11469	
654.98	9175.6	
655.16	9562	
655.35	10690	
655.54	10462	
655.73	9156.5	
655.91	9048.6	
656.1	10961	
656.29	10411	
656.47	8935.3	
656.66	9917.6	
656.85	10870	
657.03	10848	
657.22	9431.6	
657.41	9596.1	
657.59	10877	
657.78	10959	
657.97	9352.4	
658.16	9798.8	
658.34	11395	
658.53	11710	
658.72	10325	
658.9	10496	
659.09	11404	
659.28	11238	
659.46	9697.8	
659.65	9565.4	
659.84	11085	
660.02	11526	
660.21	9637.1	
660.4	9656.9	
660.58	11682	
660.77	11239	
660.96	9924.5	
661.14	9432.3	
661.33	11910	
661.52	11907	
661.7	9475.3	
661.89	11228	
662.08	11075	
662.26	10738	
662.45	9571.5	
662.64	9627.5	
662.82	11447	
663.01	10926	
663.2	9448.6	
663.38	10034	
663.57	11209	
663.75	11200	
663.94	9698.5	
664.13	10344	
664.31	11027	
664.5	11292	
664.69	9833.7	
664.87	10028	
665.06	10843	
665.25	11220	
665.43	10271	
665.62	10163	
665.8	11270	
665.99	10950	
666.18	9732.6	
666.36	9747.6	
666.55	11265	
666.74	11175	
666.92	9450.7	
667.11	10371	
667.29	10967	
667.48	11237	
667.67	9966.1	
667.85	9620	
668.04	10892	
668.22	10873	
668.41	9605.7	
668.6	9807.7	
668.78	10765	
668.97	10934	
669.15	9712.8	
669.34	9226.1	
669.53	10860	
669.71	11062	
669.9	9278.7	
670.08	9680.7	
670.27	10717	
670.46	11053	
670.64	9809.1	
670.83	9947	
671.01	10599	
671.2	10879	
671.38	9437	
671.57	9224.7	
671.76	11319	
671.94	11616	
672.13	9237.7	
672.31	9680.7	
672.5	11308	
672.69	10715	
672.87	9401.5	
673.06	9637.7	
673.24	11178	
673.43	10817	
673.61	9630.2	
673.8	9383.8	
673.98	10987	
674.17	11146	
674.36	9863.7	
674.54	9686.2	
674.73	10748	
674.91	11166	
675.1	9581.8	
675.28	9272.5	
675.47	10935	
675.65	11112	
675.84	9411.8	
676.03	9673.9	
676.21	10764	
676.4	10402	
676.58	9905.3	
676.77	9794.1	
676.95	11581	
677.14	10740	
677.32	9220	
677.51	9280	
677.69	11112	
677.88	10579	
678.06	9246.6	
678.25	9278.7	
678.44	10804	
678.62	10630	
678.81	9136	
678.99	9691	
679.18	11309	
679.36	11058	
679.55	9399.5	
679.73	9801.6	
679.92	10994	
680.1	10651	
680.29	10012	
680.47	9441.1	
680.66	10720	
680.84	11153	
681.03	9049.3	
681.21	9544.9	
681.4	10725	
681.58	10489	
681.77	9334.6	
681.95	9195.4	
682.14	11142	
682.32	11234	
682.51	9770.9	
682.69	8985.8	
682.88	10643	
683.06	10808	
683.25	9529.9	
683.43	9765.4	
683.62	10700	
683.8	10835	
683.99	9779.1	
684.17	9306.7	
684.36	11349	
684.54	10425	
684.73	8670.4	
684.91	8662.2	
685.1	10356	
685.28	9757.2	
685.46	8626	
685.65	8534.6	
685.83	9932	
686.02	9528.5	
686.2	8179.6	
686.39	8137.9	
686.57	9361.9	
686.76	10270	
686.94	8342.1	
687.13	8350.3	
687.31	9968.1	
687.5	9850.7	
687.68	8097.7	
687.86	8710.7	
688.05	10808	
688.23	9505.3	
688.42	8843.8	
688.6	8507.3	
688.79	9883.5	
688.97	9932.6	
689.16	8819.9	
689.34	8213	
689.52	10307	
689.71	10573	
689.89	9103.9	
690.08	8741.4	
690.26	10298	
690.45	10049	
690.63	9095.7	
690.81	8767.4	
691	10163	
691.18	10034	
691.37	8822	
691.55	9797.5	
691.74	9783.1	
691.92	10991	
692.1	8716.8	
692.29	8393.3	
692.47	10028	
692.66	9602.2	
692.84	8450.6	
693.02	8649.3	
693.21	9658.2	
693.39	10056	
693.58	8923.7	
693.76	8571.4	
693.94	10705	
694.13	10572	
694.31	8784.4	
694.5	9299.8	
694.68	10009	
694.86	10430	
695.05	9145.5	
695.23	9159.2	
695.42	10595	
695.6	11934	
695.78	9470.5	
695.97	9041.8	
696.15	10768	
696.34	10218	
696.52	8886.1	
696.7	9243.2	
696.89	10503	
697.07	10025	
697.25	9069.1	
697.44	9800.9	
697.62	10401	
697.81	10445	
697.99	8789.9	
698.17	9080.7	
698.36	9899.2	
698.54	10266	
698.72	8983.8	
698.91	8330.5	
699.09	9985.9	
699.28	9777.7	
699.46	8744.8	
699.64	8613.1	
699.83	9904	
700.01	10312	
700.19	9072.5	
700.38	8281.3	
700.56	10297	
700.74	9968.1	
700.93	8396.7	
701.11	8903.9	
701.29	10235	
701.48	10892	
701.66	8611.7	
701.84	8796.7	
702.03	10152	
702.21	10686	
702.39	8503.8	
702.58	8921	
702.76	10475	
702.94	10427	
703.13	8540.7	
703.31	9802.9	
703.49	10051	
703.68	10543	
703.86	8575.5	
704.04	9103.2	
704.23	10283	
704.41	10365	
704.59	8777.6	
704.78	9129.8	
704.96	11241	
705.14	10402	
705.33	8576.9	
705.51	8832.9	
705.69	10038	
705.87	10573	
706.06	9110	
706.24	8495	
706.42	10284	
706.61	10497	
706.79	9048.6	
706.97	8505.2	
707.16	9828.9	
707.34	10193	
707.52	8864.3	
707.7	8516.1	
707.89	9904.7	
708.07	9749.7	
708.25	8921.6	
708.44	9130.5	
708.62	9701.9	
708.8	10400	
708.98	9027.4	
709.17	8562.6	
709.35	9919.7	
709.53	9932.6	
709.72	8338	
709.9	8322.9	
710.08	10138	
710.26	10197	
710.45	9111.4	
710.63	8393.9	
710.81	9794.1	
710.99	9854.1	
711.18	8627.4	
711.36	8273.8	
711.54	9587.9	
711.72	9991.4	
711.91	8332.5	
712.09	7983	
712.27	9514.9	
712.45	10059	
712.64	8168	
712.82	7589.1	
713	9119.6	
713.18	9120.3	
713.37	7520.8	
713.55	7998.7	
713.73	9314.2	
713.91	8544.1	
714.1	7369.3	
714.28	6901.7	
714.46	8770.8	
714.64	8101.8	
714.83	6285.9	
715.01	6469.5	
715.19	7897	
715.37	7254.6	
715.55	6126.8	
715.74	6201.9	
715.92	8004.1	
716.1	6786.3	
716.28	6690.7	
716.47	6159.6	
716.65	7311.2	
716.83	7263.5	
717.01	5939.8	
717.19	5933.6	
717.38	8278.6	
717.56	7076.4	
717.74	6127.5	
717.92	5710.4	
718.1	7688.8	
718.29	7284.6	
718.47	5670.1	
718.65	6025.1	
718.83	7950.2	
719.01	7956.4	
719.2	6026.5	
719.38	6640.2	
719.56	7946.8	
719.74	8791.2	
719.92	6358.9	
720.11	6935.8	
720.29	8036.2	
720.47	7451.2	
720.65	5905.7	
720.83	6310.5	
721.02	7432.8	
721.2	7173.4	
721.38	6155.5	
721.56	5539.1	
721.74	6786.3	
721.92	6798.6	
722.11	6260.6	
722.29	6133.7	
722.47	7604.1	
722.65	7104.4	
722.83	5601.2	
723.01	5995.8	
723.2	7008.8	
723.38	7226.6	
723.56	5294	
723.74	5903.6	
723.92	6718.7	
724.1	7360.4	
724.29	5532.2	
724.47	6155.5	
724.65	6917.4	
724.83	6692.8	
725.01	5460.6	
725.19	5800.5	
725.37	6608.8	
725.56	6599.9	
725.74	5346.6	
725.92	5483.8	
726.1	6692.8	
726.28	6912.6	
726.46	5594.4	
726.64	5398.4	
726.83	6917.4	
727.01	6876.4	
727.19	5353.4	
727.37	5757.5	
727.55	7000	
727.73	7192.5	
727.91	5147.9	
728.09	5158.2	
728.28	7152.2	
728.46	7301.7	
728.64	5772.5	
728.82	5684.5	
729	7738.6	
729.18	7488.7	
729.36	5376.6	
729.54	6494.8	
729.72	8032.1	
729.91	7109.9	
730.09	6554.2	
730.27	5864.7	
730.45	7150.1	
730.63	7462.1	
730.81	6143.9	
730.99	5715.2	
731.17	7841.7	
731.35	7030.7	
731.53	5907.7	
731.71	5801.9	
731.9	7602.1	
732.08	7614.3	
732.26	5900.2	
732.44	5662.6	
732.62	7618.4	
732.8	7410.2	
732.98	6008.7	
733.16	5501.5	
733.34	7306.5	
733.52	6565.8	
733.7	5735	
733.88	5875.6	
734.07	7165.2	
734.25	7050.5	
734.43	5490.6	
734.61	6224.5	
734.79	7925.6	
734.97	7067.5	
735.15	5461.2	
735.33	5674.2	
735.51	7146	
735.69	6954.2	
735.87	6305.7	
736.05	5728.9	
736.23	7057.3	
736.41	6783.6	
736.59	5711.1	
736.77	5646.2	
736.95	7291.5	
737.13	6899.6	
737.32	5327.4	
737.5	5539.8	
737.68	7567.2	
737.86	6814.3	
738.04	5308.3	
738.22	6202.6	
738.4	6686.6	
738.58	6955.6	
738.76	5484.5	
738.94	5017.5	
739.12	6724.8	
739.3	6778.1	
739.48	5798.5	
739.66	5685.8	
739.84	6815	
740.02	6849.8	
740.2	5032.5	
740.38	5175.9	
740.56	6962.4	
740.74	6189.6	
740.92	5586.2	
741.1	5375.2	
741.28	6694.1	
741.46	6423.8	
741.64	5212.8	
741.82	5423.7	
742	6688.7	
742.18	6557.6	
742.36	5248.3	
742.54	5085.1	
742.72	6917.4	
742.9	6130.3	
743.08	5398.4	
743.26	4711	
743.44	6894.1	
743.62	6806.8	
743.8	5378	
743.98	4957.4	
744.16	6624.5	
744.34	6326.9	
744.52	5326.1	
744.7	5324	
744.88	6704.4	
745.06	6356.2	
745.24	5251.7	
745.42	5349.3	
745.6	6702.3	
745.78	6604.7	
745.96	4601.8	
746.14	4843.4	
746.32	6975.4	
746.5	6467.5	
746.68	5061.9	
746.86	4657.1	
747.03	6608.1	
747.21	5814.9	
747.39	4899.4	
747.57	4696.7	
747.75	6184.9	
747.93	6401.3	
748.11	4588.1	
748.29	4592.2	
748.47	7171.3	
748.65	6059.3	
748.83	4951.3	
749.01	4825.7	
749.19	6298.9	
749.37	5768.4	
749.55	4747.9	
749.73	4788.2	
749.91	6251.8	
750.09	6078.4	
750.26	4856.4	
750.44	4531.5	
750.62	6157.6	
750.8	6073.6	
750.98	4446.8	
751.16	4594.3	
751.34	6170.5	
751.52	5739.8	
751.7	5009.3	
751.88	4356.7	
752.06	6380.8	
752.24	6260.6	
752.42	4329.4	
752.59	4489.8	
752.77	6041.5	
752.95	6691.4	
753.13	4891.2	
753.31	4563.6	
753.49	5855.1	
753.67	6002.6	
753.85	4709.6	
754.03	4399.7	
754.21	6084.5	
754.38	6277	
754.56	4326.7	
754.74	3834.5	
754.92	5520	
755.1	5810.8	
755.28	3695.2	
755.46	3594.9	
755.64	6090	
755.82	6006	
755.99	3506.8	
756.17	3453.6	
756.35	4375.1	
756.53	5121.3	
756.71	2671.2	
756.89	3452.2	
757.07	4849.6	
757.25	4427.7	
757.42	3564.1	
757.6	4042	
757.78	5067.4	
757.96	4589.5	
758.14	3473.4	
758.32	3222.1	
758.5	4291.2	
758.67	4780	
758.85	3351.8	
759.03	3403.7	
759.21	4887.8	
759.39	4545.1	
759.57	3112.9	
759.75	3698.6	
759.92	5267.4	
760.1	4980	
760.28	4034.5	
760.46	4123.9	
760.64	4878.3	
760.82	4766.3	
760.99	3986.7	
761.17	3608.5	
761.35	5389.6	
761.53	4732.2	
761.71	3745.1	
761.89	4037.2	
762.06	5339.1	
762.24	5041.4	
762.42	3833.1	
762.6	3698.6	
762.78	5102.2	
762.96	5453.1	
763.13	4040.6	
763.31	3855.6	
763.49	5475.6	
763.67	5158.2	
763.85	4354	
764.02	4619.5	
764.2	5732.3	
764.38	5195	
764.56	3742.3	
764.74	4277.5	
764.91	5749.3	
765.09	5064.6	
765.27	3670.6	
765.45	3498.6	
765.63	5833.3	
765.8	5616.2	
765.98	3460.4	
766.16	3508.2	
766.34	4803.9	
766.52	4703.5	
766.69	4013.3	
766.87	3439.9	
767.05	5123.3	
767.23	5501.5	
767.41	3590.1	
767.58	3725.3	
767.76	5371.1	
767.94	5438	
768.12	3556	
768.29	3975.8	
768.47	4988.2	
768.65	5482.4	
768.83	3325.9	
769	3919.1	
769.18	4805.2	
769.36	5140.4	
769.54	3927.3	
769.72	3336.1	
769.89	5407.3	
770.07	5326.1	
770.25	3557.3	
770.43	4136.2	
770.6	5734.3	
770.78	5788.9	
770.96	3649.5	
771.14	3855.6	
771.31	5233.9	
771.49	4840	
771.67	3119.7	
771.85	3239.9	
772.02	4437.3	
772.2	4731.5	
772.38	3648.8	
772.55	3301.3	
772.73	4984.8	
772.91	4807.3	
773.09	3496.6	
773.26	3602.4	
773.44	4943.8	
773.62	4799.1	
773.8	3279.5	
773.97	3133.4	
774.15	4968.4	
774.33	4724.7	
774.5	3193.5	
774.68	3358	
774.86	5027.8	
775.04	4762.2	
775.21	3248.1	
775.39	3173	
775.57	4856.4	
775.74	4960.2	
775.92	3069.9	
776.1	2931.3	
776.27	4846.2	
776.45	5433.9	
776.63	3240.6	
776.81	2914.3	
776.98	4643.4	
777.16	5120.6	
777.34	3226.2	
777.51	3381.9	
777.69	4631.1	
777.87	4478.2	
778.04	3295.2	
778.22	3482.9	
778.4	4473.4	
778.57	4819.6	
778.75	2781.8	
778.93	2934.1	
779.1	4403.8	
779.28	4190.1	
779.46	2811.2	
779.64	3020.8	
779.81	4918.5	
779.99	5292.6	
780.17	3405.1	
780.34	3465.8	
780.52	4580.6	
780.69	4620.2	
780.87	3222.8	
781.05	2994.8	
781.22	4649.6	
781.4	4622.9	
781.58	3039.2	
781.75	2518.3	
781.93	4655	
782.11	4154	
782.28	3493.8	
782.46	2990.7	
782.64	4172.4	
782.81	4711	
782.99	3140.9	
783.17	2946.3	
783.34	4625	
783.52	4333.5	
783.69	3104	
783.87	3536.8	
784.05	4335.5	
784.22	4237.9	
784.4	3526.6	
784.58	3192.8	
784.75	4825	
784.93	4352.6	
785.1	2970.9	
785.28	3300.6	
785.46	4634.6	
785.63	4102.8	
785.81	2945.7	
785.99	2864.4	
786.16	4336.9	
786.34	4467.3	
786.51	2870.6	
786.69	3097.2	
786.87	4001.7	
787.04	4323.3	
787.22	2855.6	
787.39	3296.5	
787.57	4202.4	
787.75	4761.5	
787.92	3459.7	
788.1	3334.8	
788.27	4145.1	
788.45	3844.7	
788.63	3246	
788.8	2517	
788.98	4422.2	
789.15	3856.3	
789.33	2613.9	
789.5	2916.3	
789.68	4683	
789.86	4694.6	
790.03	3155.9	
790.21	2802.3	
790.38	4751.3	
790.56	4269.3	
790.73	2821.4	
790.91	2736.1	
791.09	4179.9	
791.26	4511.7	
791.44	2972.3	
791.61	2600.2	
791.79	4227	
791.96	4100	
792.14	2693.1	
792.32	2473.9	
792.49	4143.7	
792.67	4215.4	
792.84	2735.4	
793.02	2613.2	
793.19	4463.9	
793.37	4762.9	
793.54	2441.9	
793.72	2620.7	
793.89	4794.3	
794.07	4078.2	
794.25	2981.8	
794.42	2508.8	
794.6	4663.2	
794.77	4448.2	
794.95	3017.3	
795.12	2727.9	
795.3	4108.9	
795.47	4389.5	
795.65	3018	
795.82	2863.7	
796	4003.8	
796.17	4950.6	
796.35	2853.5	
796.52	3267.9	
796.7	4472.8	
796.87	4481.6	
797.05	2828.2	
797.22	3282.2	
797.4	4486.4	
797.57	4939	
797.75	2919.7	
797.92	2755.9	
798.1	4702.1	
798.27	3946.4	
798.45	2528.6	
798.62	2592	
798.8	4250.2	
798.97	4499.4	
799.15	2950.4	
799.32	2904.7	
799.5	3880.2	
799.67	4177.2	
799.85	3085.6	
800.02	2458.9	
800.2	4136.9	
800.37	4173.8	
800.55	3119.7	
800.72	2752.5	
800.9	4527.4	
801.07	4763.6	
801.25	3448.8	
801.42	2960	
801.6	4541	
801.77	4253.6	
801.95	2809.8	
802.12	2725.2	
802.29	4371	
802.47	4323.3	
802.64	2997.5	
802.82	2369.5	
802.99	4132.8	
803.17	4536.3	
803.34	2861	
803.52	2576.3	
803.69	4859.8	
803.87	3893.9	
804.04	2891	
804.21	2854.2	
804.39	4730.8	
804.56	4154	
804.74	2560.6	
804.91	2943.6	
805.09	4073.4	
805.26	4037.9	
805.44	2610.5	
805.61	2735.4	
805.78	4499.4	
805.96	4430.4	
806.13	2913.6	
806.31	3106.8	
806.48	3728.7	
806.66	4083	
806.83	2948.4	
807	2848	
807.18	4098	
807.35	4200.4	
807.53	2846.7	
807.7	2465.1	
807.87	4683.7	
808.05	4104.8	
808.22	3052.2	
808.4	2404.3	
808.57	3965.6	
808.74	3851.5	
808.92	2701.3	
809.09	3261.7	
809.27	4077.5	
809.44	4263.2	
809.61	2423.4	
809.79	2615.9	
809.96	4820.2	
810.14	4328.7	
810.31	2390	
810.48	2938.2	
810.66	4028.4	
810.83	4360.1	
811.01	2682.8	
811.18	2902	
811.35	4535.6	
811.53	3653.6	
811.7	3058.3	
811.87	2876.7	
812.05	4136.9	
812.22	3988.1	
812.39	2620	
812.57	2566.1	
812.74	4144.4	
812.92	4855.7	
813.09	2828.9	
813.26	2880.1	
813.44	4827.7	
813.61	3913.7	
813.78	2396.8	
813.96	2976.4	
814.13	4084.3	
814.3	3899.3	
814.48	3247.4	
814.65	2704	
814.82	4687.1	
815	3824.9	
815.17	2813.9	
815.34	3282.9	
815.52	4003.8	
815.69	4000.4	
815.87	2692.4	
816.04	2757.2	
816.21	3997	
816.38	3750.5	
816.56	2738.8	
816.73	2615.9	
816.9	4872.8	
817.08	4405.2	
817.25	2602.3	
817.42	2990.7	
817.6	3763.5	
817.77	4038.6	
817.94	2848	
818.12	2457.6	
818.29	3884.3	
818.46	5188.2	
818.64	2695.8	
818.81	2502.6	
818.98	3985.3	
819.16	4994.3	
819.33	2951.8	
819.5	2858.3	
819.67	4199.7	
819.85	4590.2	
820.02	2796.8	
820.19	2865.1	
820.37	4131.4	
820.54	3944.4	
820.71	2806.4	
820.88	3340.9	
821.06	4128	
821.23	3899.3	
821.4	2821.4	
821.58	2807.1	
821.75	4367	
821.92	4155.3	
822.09	2418	
822.27	2500.6	
822.44	4052.2	
822.61	4005.8	
822.79	2427.5	
822.96	4090.5	
823.13	4180.6	
823.3	3778.5	
823.48	2641.9	
823.65	2497.8	
823.82	4489.8	
823.99	3825.6	
824.17	3261.7	
824.34	2511.5	
824.51	4958.8	
824.68	4038.6	
824.86	2608.4	
825.03	2823.5	
825.2	4056.3	
825.37	4595	
825.55	2614.6	
825.72	2775.7	
825.89	4915.8	
826.06	4681	
826.24	2768.2	
826.41	2756.6	
826.58	4650.3	
826.75	4132.1	
826.92	2334.7	
827.1	2538.8	
827.27	5870.8	
827.44	4909.7	
827.61	2650.8	
827.79	3001.6	
827.96	3986.7	
828.13	3976.5	
828.3	2747.7	
828.47	2396.1	
828.65	4349.2	
828.82	4147.8	
828.99	3215.3	
829.16	2840.5	
829.34	4433.2	
829.51	4379.2	
829.68	2732.7	
829.85	2760	
830.02	4829.1	
830.2	4515.8	
830.37	2250.7	
830.54	3106.1	
830.71	4878.3	
830.88	4103.4	
831.05	2219.3	
831.23	2477.4	
831.4	4878.3	
831.57	5050.3	
831.74	2669.2	
831.91	2351.1	
832.09	4426.3	
832.26	4492.6	
832.43	2637.1	
832.6	2957.3	
832.77	4255	
832.94	4697.4	
833.12	2252.8	
833.29	2567.5	
833.46	4005.8	
833.63	5197.7	
833.8	2882.9	
833.97	2639.1	
834.15	4495.3	
834.32	4404.5	
834.49	2763.4	
834.66	2798.9	
834.83	4502.8	
835	3993.5	
835.17	2550.4	
835.35	2562	
835.52	4439.3	
835.69	4377.9	
835.86	2702.6	
836.03	2261	
836.2	4528.1	
836.37	4242.7	
836.55	2579.1	
836.72	2523.8	
836.89	4216.8	
837.06	4525.3	
837.23	2665.8	
837.4	2855.6	
837.57	4914.4	
837.75	5173.9	
837.92	2454.8	
838.09	2550.4	
838.26	4262.5	
838.43	4590.9	
838.6	2737.5	
838.77	2495.8	
838.94	5015.5	
839.11	4934.9	
839.29	2686.9	
839.46	2138.1	
839.63	4535.6	
839.8	4247.5	
839.97	2557.2	
840.14	2544.3	
840.31	4427	
840.48	4483	
840.65	2304	
840.82	2596.8	
841	4399.7	
841.17	4345.1	
841.34	2361.3	
841.51	2510.8	
841.68	4459.1	
841.85	4248.2	
842.02	2512.2	
842.19	2162	
842.36	4384	
842.53	4369	
842.7	2440.5	
842.87	2766.8	
843.05	5256.5	
843.22	4234.5	
843.39	2314.2	
843.56	2490.3	
843.73	4267.3	
843.9	4531.5	
844.07	3519.8	
844.24	3017.3	
844.41	5638.7	
844.58	3992.2	
844.75	2368.8	
844.92	2493.7	
845.09	4330.1	
845.26	4447.5	
845.43	2461.7	
845.6	2544.9	
845.77	4473.4	
845.94	4317.1	
846.12	2594.8	
846.29	2662.4	
846.46	4672.8	
846.63	4380.6	
846.8	2435.7	
846.97	2764.8	
847.14	4667.3	
847.31	4396.3	
847.48	2635.7	
847.65	2820.1	
847.82	4378.6	
847.99	4534.2	
848.16	2955.9	
848.33	2809.1	
848.5	4121.2	
848.67	4668	
848.84	2372.9	
849.01	2450.7	
849.18	4175.8	
849.35	3932.1	
849.52	2824.1	
849.69	2333.3	
849.86	4581.3	
850.03	4584.7	
850.2	2448	
850.37	2828.9	
850.54	4598.4	
850.71	4151.2	
850.88	2817.3	
851.05	2340.8	
851.22	4335.5	
851.39	4702.1	
851.56	2265.1	
851.73	2683.5	
851.9	3980.6	
852.07	4574.5	
852.24	2619.4	
852.41	2361.3	
852.58	4421.6	
852.75	4052.2	
852.92	2594.8	
853.09	2342.9	
853.26	4021.5	
853.43	4633.9	
853.6	2433	
853.77	2101.9	
853.94	4730.8	
854.11	4001	
854.28	3209.8	
854.44	2557.9	
854.61	4889.2	
854.78	4600.4	
854.95	2362.7	
855.12	2789.3	
855.29	3784.6	
855.46	4798.4	
855.63	2375	
855.8	3132.7	
855.97	4138.9	
856.14	4643.4	
856.31	3189.4	
856.48	2583.9	
856.65	4270	
856.82	3965.6	
856.99	2318.3	
857.16	2497.2	
857.33	5066.7	
857.49	4240.7	
857.66	2536.8	
857.83	2704	
858	4277.5	
858.17	4361.5	
858.34	2303.3	
858.51	2405.7	
858.68	4693.9	
858.85	4717.8	
859.02	2715.6	
859.19	2793.4	
859.36	4031.1	
859.52	3907.5	
859.69	2378.4	
859.86	2725.2	
860.03	3991.5	
860.2	4739	
860.37	2215.9	
860.54	2449.4	
860.71	4562.9	
860.88	4728.8	
861.05	2598.2	
861.21	2906.8	
861.38	4635.2	
861.55	3900.7	
861.72	2284.2	
861.89	2587.3	
862.06	4605.2	
862.23	4724.7	
862.4	2357.9	
862.56	2446.6	
862.73	4518.5	
862.9	4248.9	
863.07	2691.7	
863.24	2252.8	
863.41	3964.9	
863.58	4037.2	
863.75	2401.6	
863.91	2739.5	
864.08	4584	
864.25	4500.8	
864.42	2840.5	
864.59	3119.7	
864.76	4903.5	
864.93	4033.8	
865.09	2314.2	
865.26	2588.6	
865.43	4714.4	
865.6	4937.7	
865.77	2151.7	
865.94	2373.6	
866.1	4647.5	
866.27	4410.6	
866.44	3351.2	
866.61	2304	
866.78	4262.5	
866.95	4422.2	
867.11	2391.3	
867.28	2199.5	
867.45	4657.8	
867.62	3994.2	
867.79	2667.8	
867.96	2359.9	
868.12	3951.2	
868.29	4478.2	
868.46	2394.1	
868.63	3013.2	
868.8	4536.3	
868.97	4427.7	
869.13	2485.6	
869.3	2471.9	
869.47	4341.7	
869.64	4584.7	
869.81	2394.1	
869.97	2409.8	
870.14	4311	
870.31	4728.1	
870.48	2338.1	
870.65	2874	
870.81	4237.2	
870.98	4235.2	
871.15	2617.3	
871.32	2469.9	
871.48	4442.7	
871.65	4725.3	
871.82	2355.2	
871.99	2596.1	
872.16	5018.9	
872.32	4619.5	
872.49	2450.7	
872.66	2400.9	
872.83	4536.3	
872.99	4121.9	
873.16	2659.6	
873.33	2376.3	
873.5	4279.6	
873.67	4319.2	
873.83	2508.1	
874	2988.7	
874.17	4420.2	
874.34	4774.5	
874.5	2876.7	
874.67	2837.8	
874.84	4664.6	
875.01	3872	
875.17	3098.6	
875.34	2335.4	
875.51	4349.9	
875.68	4975.9	
875.84	2751.1	
876.01	3201.7	
876.18	4517.8	
876.34	4456.4	
876.51	2354.5	
876.68	2325.8	
876.85	4168.3	
877.01	4673.5	
877.18	3167.5	
877.35	2328.5	
877.52	4474.1	
877.68	4019.5	
877.85	2342.2	
878.02	2349.7	
878.18	4082.3	
878.35	4178.5	
878.52	2008.4	
878.69	2693.8	
878.85	4642.7	
879.02	4459.8	
879.19	3225.6	
879.35	2475.3	
879.52	4481.6	
879.69	4516.5	
879.86	2170.2	
880.02	2551.1	
880.19	4313	
880.36	4909	
880.52	2624.1	
880.69	2723.1	
880.86	4506.2	
881.02	4577.2	
881.19	2566.1	
881.36	2471.9	
881.52	4426.3	
881.69	4057.7	
881.86	2591.4	
882.02	2497.8	
882.19	4609.3	
882.36	5161.6	
882.52	2419.3	
882.69	3136.8	
882.86	4353.3	
883.02	4349.2	
883.19	2756.6	
883.36	2635.1	
883.52	4536.9	
883.69	4922.6	
883.86	2407	
884.02	2230.9	
884.19	4547.9	
884.36	4296.6	
884.52	2600.9	
884.69	2562.7	
884.86	4179.2	
885.02	4757.4	
885.19	2568.8	
885.36	2642.6	
885.52	4166.3	
885.69	4431.8	
885.86	3212.6	
886.02	2896.5	
886.19	4552	
886.35	4070	
886.52	2542.9	
886.69	3135.4	
886.85	3964.2	
887.02	4638	
887.19	4638	
887.35	4638	
887.52	4638	
887.68	4638	
887.85	4638	
888.02	4638	
888.18	4638	
888.35	4638	
888.51	4638	
888.68	4638	
888.85	4638	
889.01	4638	
889.18	4638	
889.35	4638	
889.51	4638	
889.68	4638	
889.84	4638	
890.01	4638	
890.17	4638	
890.34	4638	
890.51	4638	
890.67	4638	
890.84	4638	
891	4638	
891.17	4638	
891.34	4638	
891.5	4638	
891.67	4638	
891.83	4638	
892	4638	
892.16	4638	
892.33	4638	
892.5	4638	
892.66	4638	
892.83	4638	
892.99	4638	
893.16	4638	
893.32	4638	
893.49	4638	
893.65	4638	
893.82	4638	
893.99	4638	
894.15	4638	
894.32	4638	
894.48	4638	
894.65	4638	
894.81	4638	
894.98	4638	
895.14	4638	
895.31	4638	
895.47	4638	
895.64	4638	
895.81	4638	
895.97	4638	
896.14	4638	
896.3	4638	
896.47	4638	
896.63	4638	
896.8	4638	
896.96	4638	
897.13	4638	
897.29	4638	
897.46	4638	
897.62	4638	
897.79	4638	
897.95	4638	
898.12	4638	
898.28	4638	
898.45	4638	
898.61	4638	
898.78	4638	
898.94	4638	
899.11	4638	
899.27	4638	
899.44	4638	
899.6	4638	
899.77	4638	
899.93	4638	
900.1	4638	
900.26	4638	
900.43	4638	
900.59	4638	
900.76	4638	
900.92	4638	
901.09	4638	
901.25	4638	
901.42	4638	
901.58	4638	
901.75	4638	
901.91	4638	
902.07	4638	
902.24	4638	
902.4	4638	
902.57	4638	
902.73	4638	
902.9	4638	
903.06	4638	
903.23	4638	
903.39	4638	
903.56	4638	
903.72	4638	
903.88	4638	
904.05	4638	
904.21	4638	
904.38	4638	
904.54	4638	
904.71	4638	
904.87	4638	
905.03	4638	
905.2	4638	
905.36	4638	
905.53	4638	
905.69	4638	
905.86	4638	
906.02	4638	
906.18	4638	
906.35	4638	
906.51	4638	
906.68	4638	
906.84	4638	
907.01	4638	
907.17	4638	
907.33	4638	
907.5	4638	
907.66	4638	
907.83	4638	
907.99	4638	
908.15	4638	
908.32	4638	
908.48	4638	
908.65	4638	
908.81	4638	
908.97	4638	
909.14	4638	
909.3	4638	
909.47	4638	
909.63	4638	
909.79	4638	
909.96	4638	
910.12	4638	
910.28	4638	
910.45	4638	
910.61	4638	
910.78	4638	
910.94	4638	
911.1	4638	
911.27	4638	
911.43	4638	
911.59	4638	
911.76	4638	
911.92	4638	
912.08	4638	
912.25	4638	
912.41	4638	
912.57	4638	
912.74	4638	
912.9	4638	
913.07	4638	
913.23	4638	
913.39	4638	
913.56	4638	
913.72	4638	
913.88	4638	
914.05	4638	
914.21	4638	
914.37	4638	
914.54	4638	
914.7	4638	
914.86	4638	
915.03	4638	
915.19	4638	
