Wavelength	Intensities	
nm	a.u.	
179.22	1872.7	
179.44	1868.1	
179.65	1877.3	
179.86	1858.9	
180.08	1884.1	
180.29	4824.3	
180.51	3461.7	
180.72	5550	
180.94	6524.1	
181.15	3175	
181.37	3152.5	
181.58	5414.8	
181.79	5725.4	
182.01	3303.4	
182.22	3571.7	
182.44	5721.3	
182.65	4784.7	
182.87	4488.5	
183.08	3943	
183.29	6041.5	
183.51	5031.9	
183.72	3601.7	
183.94	5187.5	
184.15	5326.8	
184.37	5337	
184.58	3165.5	
184.79	4358.1	
185.01	4953.4	
185.22	5705.6	
185.44	4636.6	
185.65	3833.8	
185.86	5231.2	
186.08	4876.2	
186.29	3049.4	
186.51	3362.8	
186.72	5009.3	
186.94	5838.1	
187.15	3800.3	
187.36	3981.3	
187.58	7607.5	
187.79	5404.6	
188.01	4133.5	
188.22	6441.5	
188.43	6533	
188.65	5714.5	
188.86	3312.2	
189.08	3964.9	
189.29	5226.4	
189.5	5193.6	
189.72	3644.7	
189.93	3725.9	
190.15	5865.4	
190.36	7062.1	
190.57	4032.5	
190.79	3857	
191	5899.5	
191.22	5941.2	
191.43	3980.6	
191.64	3290.4	
191.86	6216.3	
192.07	5931.6	
192.29	3422.2	
192.5	3637.2	
192.71	5907.7	
192.93	5072.1	
193.14	3568.2	
193.35	3733.4	
193.57	5145.2	
193.78	5848.3	
194	2967.5	
194.21	3541.6	
194.42	4880.3	
194.64	5429.8	
194.85	3975.1	
195.07	4653.7	
195.28	5389.6	
195.49	4664.6	
195.71	4902.2	
195.92	3457.7	
196.13	5564.3	
196.35	5631.9	
196.56	5229.1	
196.78	4039.3	
196.99	6890	
197.2	6522.1	
197.42	4511.7	
197.63	3996.3	
197.84	4760.8	
198.06	5558.2	
198.27	3674.1	
198.48	4901.5	
198.7	5115.8	
198.91	5308.3	
199.13	3954.6	
199.34	3982.6	
199.55	5795.1	
199.77	4678.2	
199.98	3512.9	
200.19	4033.1	
200.41	5235.3	
200.62	4961.5	
200.83	4171	
201.05	4471.4	
201.26	5275.6	
201.47	5025	
201.69	3579.8	
201.9	3372.3	
202.11	5337	
202.33	6272.2	
202.54	3779.2	
202.76	4229.7	
202.97	5446.9	
203.18	5450.3	
203.4	4220.2	
203.61	4107.5	
203.82	5399.1	
204.04	5015.5	
204.25	4012.7	
204.46	3950.5	
204.68	5378.6	
204.89	5628.5	
205.1	3951.2	
205.32	3379.1	
205.53	5764.3	
205.74	5903.6	
205.96	2904	
206.17	4098	
206.38	5741.8	
206.6	5882.4	
206.81	4544.4	
207.02	3758.7	
207.24	5608	
207.45	6059.9	
207.66	3808.5	
207.88	3265.1	
208.09	5573.9	
208.3	5352	
208.52	3477.5	
208.73	3822.9	
208.94	5352.7	
209.15	6059.3	
209.37	3793.5	
209.58	3926.6	
209.79	5840.1	
210.01	5184.8	
210.22	3077.4	
210.43	3205.8	
210.65	5332.9	
210.86	5707.7	
211.07	3844.7	
211.29	3466.5	
211.5	5767.1	
211.71	5296.7	
211.93	3538.2	
212.14	3463.1	
212.35	5247.6	
212.56	5543.2	
212.78	4000.4	
212.99	3299.3	
213.2	6340.5	
213.42	5129.5	
213.63	3592.8	
213.84	3891.1	
214.06	4706.2	
214.27	4896.7	
214.48	3795.6	
214.69	4060.4	
214.91	6089.3	
215.12	6064	
215.33	4142.4	
215.55	4524	
215.76	6492.7	
215.97	5679.7	
216.18	3930.1	
216.4	3767.6	
216.61	5034.6	
216.82	5863.3	
217.04	3517.7	
217.25	3676.8	
217.46	6005.3	
217.67	5752.7	
217.89	3139.5	
218.1	3305.4	
218.31	5431.2	
218.53	5560.2	
218.74	3614	
218.95	3537.5	
219.16	5334.3	
219.38	6248.4	
219.59	3571	
219.8	4244.8	
220.01	6903	
220.23	5403.2	
220.44	4682.3	
220.65	3478.1	
220.87	5414.1	
221.08	5975.3	
221.29	3262.4	
221.5	4371.7	
221.72	7300.3	
221.93	5094.7	
222.14	4067.9	
222.35	4747.2	
222.57	5413.5	
222.78	5716.6	
222.99	3843.4	
223.2	4117.1	
223.42	5670.1	
223.63	5764.3	
223.84	2947	
224.05	2921.8	
224.27	6836.1	
224.48	6184.2	
224.69	4663.9	
224.9	4016.7	
225.12	5558.9	
225.33	5305.6	
225.54	3181.9	
225.75	3624.9	
225.97	4917.9	
226.18	5251	
226.39	3850.9	
226.6	3594.9	
226.82	5137	
227.03	5005.9	
227.24	4015.4	
227.45	3332	
227.67	5740.5	
227.88	6250.4	
228.09	4445.5	
228.3	4516.5	
228.52	5763.7	
228.73	5343.2	
228.94	3690.4	
229.15	3311.6	
229.36	5289.2	
229.58	5238	
229.79	3743.7	
230	4425.7	
230.21	6366.5	
230.43	5436	
230.64	3943	
230.85	4166.3	
231.06	5750	
231.28	5793	
231.49	3269.2	
231.7	3885.7	
231.91	5662.6	
232.12	5418.9	
232.34	3401	
232.55	3859.7	
232.76	5984.2	
232.97	5497.4	
233.18	3526.6	
233.4	3971.7	
233.61	5587.5	
233.82	5092.6	
234.03	3697.9	
234.25	3657.7	
234.46	7384.3	
234.67	5419.6	
234.88	4101.4	
235.09	3582.6	
235.31	5623.7	
235.52	5229.1	
235.73	3941	
235.94	3339.6	
236.15	5086.5	
236.37	6494.8	
236.58	3521.1	
236.79	3807.9	
237	5658.5	
237.21	4864.6	
237.43	4091.8	
237.64	3253.5	
237.85	9671.2	
238.06	4937.7	
238.27	4153.3	
238.48	3374.4	
238.7	5762.3	
238.91	5226.4	
239.12	3798.3	
239.33	3867.9	
239.54	4946.5	
239.76	5310.4	
239.97	3770.3	
240.18	3820.8	
240.39	6707.1	
240.6	5665.4	
240.82	3973.1	
241.03	3289	
241.24	5376.6	
241.45	6184.9	
241.66	3478.8	
241.87	4132.1	
242.09	6109.1	
242.3	6388.3	
242.51	4173.8	
242.72	3861.1	
242.93	5809.4	
243.14	5319.9	
243.36	4390.2	
243.57	4798.4	
243.78	6219.7	
243.99	5646.9	
244.2	3822.9	
244.41	3547.1	
244.63	4881.7	
244.84	5687.2	
245.05	4093.9	
245.26	3820.8	
245.47	5691.3	
245.68	5913.2	
245.9	5115.1	
246.11	4056.3	
246.32	5229.1	
246.53	5570.5	
246.74	6171.9	
246.95	3226.2	
247.16	4875.5	
247.38	5325.4	
247.59	3188.7	
247.8	3859.7	
248.01	5059.2	
248.22	5236	
248.43	3515.7	
248.64	3726.6	
248.86	4790.2	
249.07	5128.8	
249.28	3414	
249.49	3970.3	
249.7	5976.7	
249.91	6010.1	
250.12	3188.7	
250.34	3295.9	
250.55	5410.1	
250.76	5378.6	
250.97	3919.8	
251.18	4083.6	
251.39	6043.6	
251.6	5518.6	
251.81	4063.2	
252.03	4045.4	
252.24	5091.9	
252.45	5816.2	
252.66	3377.1	
252.87	4241.3	
253.08	5381.4	
253.29	7042.3	
253.5	3351.2	
253.72	4678.9	
253.93	5194.3	
254.14	6312.5	
254.35	3631.7	
254.56	3764.2	
254.77	5623.7	
254.98	5015.5	
255.19	3630.4	
255.41	4678.2	
255.62	5449	
255.83	5970.5	
256.04	4057	
256.25	4012	
256.46	6574.7	
256.67	5073.5	
256.88	3928	
257.09	4379.2	
257.31	5034.6	
257.52	5071.5	
257.73	4991.6	
257.94	3631.7	
258.15	5289.2	
258.36	5369.8	
258.57	4580.6	
258.78	2918.4	
258.99	5883.1	
259.2	5249.6	
259.41	3678.8	
259.63	3787.4	
259.84	6197.8	
260.05	6606.1	
260.26	4818.2	
260.47	3549.8	
260.68	5922.7	
260.89	5289.9	
261.1	4362.2	
261.31	3485	
261.52	5972.6	
261.73	6259.3	
261.95	4743.1	
262.16	4100.7	
262.37	6083.8	
262.58	6135	
262.79	4746.5	
263	3764.2	
263.21	5485.8	
263.42	4902.2	
263.63	3819.5	
263.84	3708.2	
264.05	5892.7	
264.26	6280.4	
264.47	4578.6	
264.69	4141	
264.9	6029.9	
265.11	5535	
265.32	3539.6	
265.53	3646.7	
265.74	5477	
265.95	4806.6	
266.16	3880.2	
266.37	4326.7	
266.58	5526.1	
266.79	5242.8	
267	3676.8	
267.21	3394.8	
267.42	5006.6	
267.63	5406	
267.84	3820.1	
268.06	3252.2	
268.27	5802.6	
268.48	6105.7	
268.69	3785.3	
268.9	4452.3	
269.11	6047.7	
269.32	4838	
269.53	3862.5	
269.74	3536.8	
269.95	5733.6	
270.16	4751.3	
270.37	3849.5	
270.58	4339.6	
270.79	5227.8	
271	5912.5	
271.21	4138.3	
271.42	3866.6	
271.63	5483.1	
271.84	5029.8	
272.05	3057.6	
272.26	3443.3	
272.47	5375.9	
272.68	5550.7	
272.89	3638.6	
273.11	4245.4	
273.32	5185.5	
273.53	6339.1	
273.74	4146.5	
273.95	4070.7	
274.16	5913.9	
274.37	5410.1	
274.58	4247.5	
274.79	3323.9	
275	5505.6	
275.21	6085.2	
275.42	5088.5	
275.63	4347.2	
275.84	5631.9	
276.05	7109.2	
276.26	4046.8	
276.47	3776.5	
276.68	5247.6	
276.89	6394.4	
277.1	4328	
277.31	3433.1	
277.52	5641.5	
277.73	5745.2	
277.94	3311.6	
278.15	3671.3	
278.36	5575.9	
278.57	5062.6	
278.78	3657.7	
278.99	4138.3	
279.2	4999.1	
279.41	5008.6	
279.62	4818.9	
279.83	3466.5	
280.04	6541.9	
280.25	4892.6	
280.46	4814.1	
280.67	3827.7	
280.88	4999.8	
281.09	6013.5	
281.3	4065.2	
281.51	5044.1	
281.72	5106.3	
281.93	5889.3	
282.14	3628.3	
282.35	3876.8	
282.56	5857.9	
282.77	5836.7	
282.98	3674.7	
283.19	4606.6	
283.4	7197.9	
283.61	5298.8	
283.82	3323.2	
284.03	4750.6	
284.24	5472.9	
284.45	6003.3	
284.66	4722.6	
284.87	4604.5	
285.08	5930.2	
285.29	6040.1	
285.5	3256.3	
285.71	3732.1	
285.92	5971.2	
286.12	6580.1	
286.33	4746.5	
286.54	3764.8	
286.75	5842.9	
286.96	5233.2	
287.17	3435.8	
287.38	4628.4	
287.59	5008.6	
287.8	4980.7	
288.01	3777.1	
288.22	4341	
288.43	5884.5	
288.64	4912.4	
288.85	4442.7	
289.06	4226.3	
289.27	5816.2	
289.48	6267.5	
289.69	4742.4	
289.9	4300.1	
290.11	6023.8	
290.32	5119.2	
290.53	4546.5	
290.74	4173.8	
290.94	5785.5	
291.15	5939.8	
291.36	3686.3	
291.57	4300.1	
291.78	5117.9	
291.99	4793.6	
292.2	3517	
292.41	4201.7	
292.62	5915.2	
292.83	5689.9	
293.04	5168.4	
293.25	3505.4	
293.46	5223.7	
293.67	5908.4	
293.88	3600.3	
294.09	3482.2	
294.29	4889.2	
294.5	5582.1	
294.71	3807.2	
294.92	3691.8	
295.13	5202.5	
295.34	6473.6	
295.55	3202.3	
295.76	3346.4	
295.97	5775.3	
296.18	6534.4	
296.39	3467.9	
296.6	3637.2	
296.81	5483.1	
297.01	5782.1	
297.22	3840.6	
297.43	3583.9	
297.64	5044.1	
297.85	5029.1	
298.06	2981.8	
298.27	3261.7	
298.48	5413.5	
298.69	5087.2	
298.9	3887	
299.11	3538.9	
299.31	4837.3	
299.52	4892.6	
299.73	4233.8	
299.94	4108.9	
300.15	5394.3	
300.36	5064.6	
300.57	4132.1	
300.78	4129.4	
300.99	5273.5	
301.2	5499.5	
301.4	3618.1	
301.61	3951.2	
301.82	5642.8	
302.03	5735.7	
302.24	4347.2	
302.45	3420.8	
302.66	5694.7	
302.87	6077	
303.08	3562.1	
303.29	4958.1	
303.49	5132.2	
303.7	5352	
303.91	3195.5	
304.12	4721.9	
304.33	4848.9	
304.54	5466	
304.75	3611.3	
304.96	3475.4	
305.16	5712.5	
305.37	6400.6	
305.58	3199.6	
305.79	3293.8	
306	5705.6	
306.21	4799.8	
306.42	3547.8	
306.63	5550.7	
306.83	5313.8	
307.04	5906.3	
307.25	4052.9	
307.46	3917.8	
307.67	4629.8	
307.88	5817.6	
308.09	3562.8	
308.29	3730	
308.5	5449	
308.71	5963.7	
308.92	3866.6	
309.13	3464.5	
309.34	5358.9	
309.55	5306.3	
309.75	4457.7	
309.96	4106.9	
310.17	5780.7	
310.38	5071.5	
310.59	4358.1	
310.8	4104.8	
311.01	5366.4	
311.21	5276.9	
311.42	3452.9	
311.63	3526.6	
311.84	5106.3	
312.05	5543.9	
312.26	4012.7	
312.46	4446.8	
312.67	5261.2	
312.88	4911.7	
313.09	3465.2	
313.3	3437.2	
313.51	6176.7	
313.71	6486.6	
313.92	3460.4	
314.13	3709.6	
314.34	5575.3	
314.55	5238	
314.76	4498	
314.96	3893.9	
315.17	5477.6	
315.38	5771.2	
315.59	3482.2	
315.8	3351.8	
316.01	6214.2	
316.21	6256.5	
316.42	3401.7	
316.63	3827.7	
316.84	5252.4	
317.05	6044.9	
317.26	4134.2	
317.46	3699.3	
317.67	5335	
317.88	5749.3	
318.09	4499.4	
318.3	3254.2	
318.5	5114.5	
318.71	5701.5	
318.92	5622.4	
319.13	4090.5	
319.34	5848.3	
319.54	6041.5	
319.75	3230.3	
319.96	3075.4	
320.17	5754.1	
320.38	5924.8	
320.58	3164.1	
320.79	3835.8	
321	5982.1	
321.21	6156.9	
321.42	3855	
321.62	3168.2	
321.83	5041.4	
322.04	5388.9	
322.25	3681.6	
322.46	3493.2	
322.66	5478.3	
322.87	5698.8	
323.08	4342.4	
323.29	3439.2	
323.5	6450.4	
323.7	4942.4	
323.91	4805.2	
324.12	4301.4	
324.33	5457.2	
324.53	5720.7	
324.74	4177.2	
324.95	4300.7	
325.16	4820.2	
325.37	5214.8	
325.57	3535.5	
325.78	3553.2	
325.99	5445.5	
326.2	4868	
326.4	4924.7	
326.61	3234.4	
326.82	5300.1	
327.03	5477	
327.24	4975.9	
327.44	4732.2	
327.65	5644.2	
327.86	4571.7	
328.07	4160.1	
328.27	3373.7	
328.48	6047	
328.69	4890.5	
328.9	5042.8	
329.1	3751.9	
329.31	5343.8	
329.52	6204.7	
329.73	3483.6	
329.93	3981.3	
330.14	5368.4	
330.35	5610.1	
330.56	5771.2	
330.76	4389.5	
330.97	5209.3	
331.18	5603.9	
331.39	3907.5	
331.59	3146.4	
331.8	5930.9	
332.01	6150.7	
332.22	3560.7	
332.42	4162.2	
332.63	5495.4	
332.84	5107	
333.05	3975.1	
333.25	3607.8	
333.46	5158.8	
333.67	5352.7	
333.88	3639.2	
334.08	4071.4	
334.29	7294.2	
334.5	6120.7	
334.7	3411.9	
334.91	4992.3	
335.12	4956.1	
335.33	5834.7	
335.53	3879.5	
335.74	5748.6	
335.95	5200.5	
336.16	5044.1	
336.36	3936.2	
336.57	4474.1	
336.78	4952.7	
336.98	5941.8	
337.19	4849.6	
337.4	3818.1	
337.61	6462	
337.81	4925.4	
338.02	3569.6	
338.23	4709.6	
338.43	6112.5	
338.64	4998.4	
338.85	3508.9	
339.05	4579.9	
339.26	6182.8	
339.47	4837.3	
339.68	3491.8	
339.88	5208.7	
340.09	5655.1	
340.3	5904.3	
340.5	4115.7	
340.71	3173	
340.92	4875.5	
341.13	6144.6	
341.33	3363.4	
341.54	4130.1	
341.75	5642.8	
341.95	5287.2	
342.16	3911.6	
342.37	4244.1	
342.57	4941.1	
342.78	5354.8	
342.99	4362.2	
343.19	3188	
343.4	5817.6	
343.61	5640.8	
343.81	3725.9	
344.02	3446	
344.23	5810.8	
344.43	6223.1	
344.64	4374.5	
344.85	4302.8	
345.06	5695.4	
345.26	5932.3	
345.47	4089.1	
345.68	4802.5	
345.88	4773.1	
346.09	5898.1	
346.3	4187.4	
346.5	3109.5	
346.71	5375.9	
346.92	5095.3	
347.12	3212.6	
347.33	4082.3	
347.54	5966.4	
347.74	6350.1	
347.95	4030.4	
348.16	2996.9	
348.36	5192.3	
348.57	4888.5	
348.78	3994.9	
348.98	4311.7	
349.19	5360.9	
349.39	4853.7	
349.6	3237.2	
349.81	3602.4	
350.01	5644.9	
350.22	5117.9	
350.43	3853.6	
350.63	4704.9	
350.84	5438	
351.05	5218.9	
351.25	3469.9	
351.46	3216.7	
351.67	5976.7	
351.87	5037.3	
352.08	3785.3	
352.29	4291.2	
352.49	5828.5	
352.7	5968.5	
352.9	3472	
353.11	4331.5	
353.32	6496.8	
353.52	5165	
353.73	3401.7	
353.94	4303.5	
354.14	5675.6	
354.35	5478.3	
354.55	3489.7	
354.76	3934.1	
354.97	5636	
355.17	5399.8	
355.38	3274	
355.59	4629.1	
355.79	5091.9	
356	5493.3	
356.2	3878.2	
356.41	3394.2	
356.62	4790.2	
356.82	5314.5	
357.03	4189.5	
357.24	3725.3	
357.44	5102.2	
357.65	5172.5	
357.85	4997	
358.06	3901.4	
358.27	4836.6	
358.47	5053	
358.68	3257	
358.88	4130.1	
359.09	5642.8	
359.3	6009.4	
359.5	4838	
359.71	4286.4	
359.91	6468.9	
360.12	5822.4	
360.33	4098	
360.53	4608.6	
360.74	5116.5	
360.94	5162.2	
361.15	4328.7	
361.36	3545.7	
361.56	5890.6	
361.77	5309	
361.97	4836.6	
362.18	3808.5	
362.38	5900.2	
362.59	4968.4	
362.8	3501.3	
363	3318.4	
363.21	4785.4	
363.41	5456.5	
363.62	4065.2	
363.83	4973.2	
364.03	5526.1	
364.24	6423.1	
364.44	5115.8	
364.65	5122.7	
364.85	5244.8	
365.06	5175.9	
365.27	3693.9	
365.47	3715	
365.68	6309.8	
365.88	5289.9	
366.09	4115.7	
366.29	3796.9	
366.5	5531.6	
366.71	5914.5	
366.91	5048.9	
367.12	4262.5	
367.32	6509.8	
367.53	5788.9	
367.73	4195.6	
367.94	5125.4	
368.14	5801.2	
368.35	6660.7	
368.56	4229.1	
368.76	3528	
368.97	5885.2	
369.17	7471.7	
369.38	3707.5	
369.58	3922.5	
369.79	4961.5	
369.99	6193.1	
370.2	4977.9	
370.4	4057.7	
370.61	5614.8	
370.82	6689.3	
371.02	3945.1	
371.23	3227.6	
371.43	4859.1	
371.64	6153.5	
371.84	3934.1	
372.05	5177.9	
372.25	7465.5	
372.46	5875.6	
372.66	3930.1	
372.87	3906.8	
373.07	5868.8	
373.28	7486	
373.48	4992.3	
373.69	4592.9	
373.9	5395.7	
374.1	5431.2	
374.31	4932.9	
374.51	4394.9	
374.72	6223.8	
374.92	5057.1	
375.13	5040.1	
375.33	4265.9	
375.54	5856.5	
375.74	5233.9	
375.95	4309.6	
376.15	5580.7	
376.36	5831.2	
376.56	5653.1	
376.77	4425.7	
376.97	4799.1	
377.18	6848.4	
377.38	5963	
377.59	5161.6	
377.79	3845.4	
378	5664	
378.2	6072.9	
378.41	3947.1	
378.61	3898.6	
378.82	6201.2	
379.02	5285.1	
379.23	4122.6	
379.43	5227.1	
379.64	6257.9	
379.84	5865.4	
380.05	3966.2	
380.25	3857	
380.46	5930.2	
380.66	5640.1	
380.87	5309	
381.07	5608.7	
381.28	6597.9	
381.48	5958.2	
381.69	4019.5	
381.89	4009.9	
382.1	4911	
382.3	6083.8	
382.51	5063.9	
382.71	5956.2	
382.91	5945.9	
383.12	6541.2	
383.32	4332.8	
383.53	4576.5	
383.73	5758.2	
383.94	5559.6	
384.14	4387.4	
384.35	3618.8	
384.55	5522.7	
384.76	5930.9	
384.96	4365.6	
385.17	4681.7	
385.37	5913.2	
385.58	5248.9	
385.78	4681.7	
385.98	3549.1	
386.19	5538.4	
386.39	5873.6	
386.6	4083	
386.8	4319.8	
387.01	5952.8	
387.21	5999.2	
387.42	4732.9	
387.62	5286.5	
387.83	5240.1	
388.03	5913.2	
388.23	4390.2	
388.44	5164.3	
388.64	5046.2	
388.85	5111.7	
389.05	4703.5	
389.26	5317.9	
389.46	6953.5	
389.67	6433.4	
389.87	4709	
390.07	4746.5	
390.28	5659.9	
390.48	5185.5	
390.69	4007.2	
390.89	4255.7	
391.1	5384.8	
391.3	6383.5	
391.5	5481	
391.71	6030.6	
391.91	5993	
392.12	7034.8	
392.32	5555.5	
392.53	4763.6	
392.73	5429.8	
392.93	5629.9	
393.14	4412	
393.34	5225.1	
393.55	6010.1	
393.75	5389.6	
393.95	4389.5	
394.16	4327.4	
394.36	5395.7	
394.57	6107	
394.77	3919.8	
394.98	4282.3	
395.18	5358.2	
395.38	5463.3	
395.59	5119.2	
395.79	4141.7	
396	5431.9	
396.2	5955.5	
396.4	4969.1	
396.61	4930.1	
396.81	6175.3	
397.02	5474.2	
397.22	5113.8	
397.42	5255.1	
397.63	6111.8	
397.83	5367	
398.04	4091.2	
398.24	4621.6	
398.44	5862.7	
398.65	5003.9	
398.85	3964.2	
399.05	4099.4	
399.26	5350	
399.46	7073.7	
399.67	4441.4	
399.87	4222.2	
400.07	5690.6	
400.28	6075	
400.48	4237.9	
400.69	5332.2	
400.89	6741.9	
401.09	6745.3	
401.3	4169.7	
401.5	5292	
401.7	6952.9	
401.91	7163.1	
402.11	4461.2	
402.32	4733.5	
402.52	6241.5	
402.72	6176	
402.93	4894.6	
403.13	3746.4	
403.33	6997.9	
403.54	5781.4	
403.74	4642.7	
403.94	5494.7	
404.15	5871.5	
404.35	7021.1	
404.56	4372.4	
404.76	6284.5	
404.96	6246.3	
405.17	6025.8	
405.37	5335.6	
405.57	4846.9	
405.78	6300.2	
405.98	5769.1	
406.18	4428.4	
406.39	5352	
406.59	6265.4	
406.79	5970.5	
407	4257.7	
407.2	4342.4	
407.4	6275.7	
407.61	6507.1	
407.81	4375.1	
408.01	6031.3	
408.22	5309	
408.42	7247.1	
408.62	5393	
408.83	4843.4	
409.03	5868.8	
409.23	5699.5	
409.44	4953.4	
409.64	5244.8	
409.84	6845.7	
410.05	6721.4	
410.25	5107.6	
410.45	4879.6	
410.66	6202.6	
410.86	8643.1	
411.06	5272.2	
411.27	5197.1	
411.47	8463.6	
411.67	6404	
411.88	5431.9	
412.08	5615.5	
412.28	7049.8	
412.49	7459.4	
412.69	5146.5	
412.89	5169.1	
413.09	7314.7	
413.3	7134.4	
413.5	5216.9	
413.7	4892.6	
413.91	6440.2	
414.11	7311.9	
414.31	5097.4	
414.52	5470.8	
414.72	7027.9	
414.92	6907.1	
415.12	5116.5	
415.33	5621.7	
415.53	7247.1	
415.73	7458.7	
415.94	5999.9	
416.14	5393	
416.34	6237.4	
416.55	6085.2	
416.75	6589	
416.95	6002.6	
417.15	7239.6	
417.36	8054	
417.56	6806.1	
417.76	5770.5	
417.97	7644.4	
418.17	7287.4	
418.37	5390.3	
418.57	5470.8	
418.78	7036.8	
418.98	6752.2	
419.18	6299.6	
419.38	6279.8	
419.59	6839.5	
419.79	6496.8	
419.99	5330.9	
420.2	5782.1	
420.4	7318.1	
420.6	7523.6	
420.8	5257.1	
421.01	5171.8	
421.21	7091.4	
421.41	7316.7	
421.61	5629.9	
421.82	5322.7	
422.02	6613.6	
422.22	7600	
422.42	6176	
422.63	5778	
422.83	6757.6	
423.03	7929.7	
423.23	5816.2	
423.44	4773.1	
423.64	6787.7	
423.84	6563.1	
424.04	5276.9	
424.25	4916.5	
424.45	7681.9	
424.65	7639.6	
424.85	4694.6	
425.06	5362.3	
425.26	7640.3	
425.46	6711.2	
425.66	5816.2	
425.87	5424.4	
426.07	7428	
426.27	7297.6	
426.47	5506.3	
426.67	5048.2	
426.88	7714.7	
427.08	7191.1	
427.28	5744.6	
427.48	4922	
427.69	6119.3	
427.89	6763.8	
428.09	5801.9	
428.29	4999.8	
428.5	7481.2	
428.7	7019.1	
428.9	4846.9	
429.1	5502.2	
429.3	6952.9	
429.51	7390.4	
429.71	5188.9	
429.91	5937.1	
430.11	7162.4	
430.31	7394.5	
430.52	5494.7	
430.72	5668.1	
430.92	7782.3	
431.12	7203.4	
431.32	5167	
431.53	5604.6	
431.73	6191	
431.93	7923.6	
432.13	5130.8	
432.33	4887.1	
432.54	6663.4	
432.74	7041.6	
432.94	4829.8	
433.14	5886.5	
433.34	7202.7	
433.55	6640.2	
433.75	5857.9	
433.95	7683.3	
434.15	6945.3	
434.35	6620.4	
434.56	5106.3	
434.76	4654.4	
434.96	6959.7	
435.16	7218.4	
435.36	4969.1	
435.56	5992.4	
435.77	6597.2	
435.97	6763.8	
436.17	6740.5	
436.37	5907.7	
436.57	6557.6	
436.78	6438.1	
436.98	5986.9	
437.18	6583.5	
437.38	7232.1	
437.58	6666.8	
437.78	6695.5	
437.99	5313.8	
438.19	7249.1	
438.39	8097	
438.59	5293.3	
438.79	4823.6	
438.99	8006.2	
439.2	6806.1	
439.4	4963.6	
439.6	4904.2	
439.8	7141.3	
440	8107.9	
440.2	5892	
440.4	6071.5	
440.61	7421.8	
440.81	7937.2	
441.01	5101.5	
441.21	6034	
441.41	7849.2	
441.61	7408.9	
441.81	6313.9	
442.02	7279.8	
442.22	8308.6	
442.42	7580.2	
442.62	5245.5	
442.82	5322.7	
443.02	7877.2	
443.22	6976.7	
443.43	5662.6	
443.63	5185.5	
443.83	6744.6	
444.03	6850.5	
444.23	6468.9	
444.43	6045.6	
444.63	7156.3	
444.83	8355	
445.04	5238.7	
445.24	6588.3	
445.44	7501.7	
445.64	7598.6	
445.84	6084.5	
446.04	6067.4	
446.24	6842.9	
446.44	7813.7	
446.65	5371.1	
446.85	5655.8	
447.05	7249.1	
447.25	7780.2	
447.45	5769.1	
447.65	5130.8	
447.85	7212.3	
448.05	6832.7	
448.25	6193.1	
448.46	5905.7	
448.66	7167.2	
448.86	6864.8	
449.06	5069.4	
449.26	6245.6	
449.46	7525.6	
449.66	6560.3	
449.86	5741.8	
450.06	5657.9	
450.26	6785.6	
450.47	7368.6	
450.67	5907.7	
450.87	6258.6	
451.07	7380.9	
451.27	7238.9	
451.47	5275.6	
451.67	5780.7	
451.87	6897.6	
452.07	8043.7	
452.27	5507	
452.47	5434.6	
452.67	7251.2	
452.88	7791.8	
453.08	4840.7	
453.28	6885.3	
453.48	8359.1	
453.68	7135.8	
453.88	5410.1	
454.08	5597.1	
454.28	7606.2	
454.48	7134.4	
454.68	6113.2	
454.88	6539.2	
455.08	7600.7	
455.28	7397.3	
455.48	5268.7	
455.68	5842.9	
455.89	8120.9	
456.09	7689.4	
456.29	5578	
456.49	5622.4	
456.69	8028.7	
456.89	7212.3	
457.09	6189.6	
457.29	6502.3	
457.49	7585	
457.69	7762.5	
457.89	5927.5	
458.09	5394.3	
458.29	7359	
458.49	8023.3	
458.69	6369.2	
458.89	5887.9	
459.09	8260.1	
459.29	8348.9	
459.49	5860.6	
459.69	6745.3	
459.9	7828.7	
460.1	7440.3	
460.3	5831.2	
460.5	5625.8	
460.7	7746.1	
460.9	7524.9	
461.1	5237.3	
461.3	6614.9	
461.5	8460.8	
461.7	7976.2	
461.9	5709.1	
462.1	6169.8	
462.3	7475.8	
462.5	8183.7	
462.7	5793	
462.9	5834.7	
463.1	9168.1	
463.3	8771.5	
463.5	6043.6	
463.7	6954.9	
463.9	7767.9	
464.1	8037.6	
464.3	6172.6	
464.5	6372.6	
464.7	8475.2	
464.9	8046.5	
465.1	7763.8	
465.3	6774	
465.5	8684.1	
465.7	8702.5	
465.9	7007.5	
466.1	6814.3	
466.3	8548.2	
466.5	8353	
466.7	7752.2	
466.9	6557.6	
467.1	8297	
467.3	9237.7	
467.5	7622.5	
467.7	6492.7	
467.9	9396.8	
468.1	10364	
468.3	7265.5	
468.5	7684	
468.7	8214.4	
468.9	8171.4	
469.1	6836.8	
469.3	7420.5	
469.5	10269	
469.7	7774.8	
469.9	7218.4	
470.1	6515.3	
470.3	8232.2	
470.5	8217.8	
470.7	7832.1	
470.9	6602.7	
471.1	8020.5	
471.3	8510	
471.5	6475.7	
471.69	8275.2	
471.89	7894.9	
472.09	7489.4	
472.29	7229.3	
472.49	7591.1	
472.69	7675.1	
472.89	8488.1	
473.09	6328.2	
473.29	6564.4	
473.49	7843	
473.69	8019.8	
473.89	7442.3	
474.09	6716.7	
474.29	9192	
474.49	8849.3	
474.69	7466.9	
474.89	6748.1	
475.09	8055.3	
475.29	7950.9	
475.49	6164.4	
475.69	6434.7	
475.88	9558.6	
476.08	8245.8	
476.28	6121.4	
476.48	6582.2	
476.68	8787.2	
476.88	8567.3	
477.08	6399.9	
477.28	6741.2	
477.48	8079.9	
477.68	8731.2	
477.88	6239.5	
478.08	6598.6	
478.28	8987.9	
478.48	8173.4	
478.67	6609.5	
478.87	5981.4	
479.07	8944.8	
479.27	8340	
479.47	6829.3	
479.67	6865.5	
479.87	8728.4	
480.07	9318.3	
480.27	6089.3	
480.47	7748.1	
480.67	8325.7	
480.87	9006.3	
481.06	6374	
481.26	7160.4	
481.46	8299.7	
481.66	8232.2	
481.86	6836.1	
482.06	7847.1	
482.26	7983	
482.46	8921	
482.66	6739.2	
482.86	6354.2	
483.05	8404.2	
483.25	7673.7	
483.45	9121.7	
483.65	6763.1	
483.85	7916.8	
484.05	8207.6	
484.25	7223.2	
484.45	7606.2	
484.65	9056.8	
484.84	9187.2	
485.04	6674.3	
485.24	6644.3	
485.44	9327.8	
485.64	7653.3	
485.84	5967.8	
486.04	7371.3	
486.24	8049.9	
486.44	8380.3	
486.63	6029.9	
486.83	6784.2	
487.03	7985	
487.23	8153	
487.43	6117.3	
487.63	8449.9	
487.83	8244.4	
488.02	9310.7	
488.22	7117.4	
488.42	7644.4	
488.62	9095.7	
488.82	8079.9	
489.02	6822.5	
489.22	6796.5	
489.41	8987.2	
489.61	8616.5	
489.81	6489.3	
490.01	6561.7	
490.21	8912.8	
490.41	9571.5	
490.61	6458.6	
490.8	6574.7	
491	8423.3	
491.2	7750.2	
491.4	7210.9	
491.6	6369.2	
491.8	8450.6	
491.99	8620.6	
492.19	6111.1	
492.39	6507.1	
492.59	8910	
492.79	9033.6	
492.99	7403.4	
493.18	6501.6	
493.38	9055.4	
493.58	9705.3	
493.78	7179.5	
493.98	6774	
494.18	8731.2	
494.37	8201.4	
494.57	7445.7	
494.77	7283.9	
494.97	9000.8	
495.17	9207.7	
495.37	6829.3	
495.56	7180.9	
495.76	9367.4	
495.96	9083.4	
496.16	8189.8	
496.36	7052.5	
496.55	9260.9	
496.75	8787.8	
496.95	7459.4	
497.15	7343.3	
497.35	9248.6	
497.54	9261.6	
497.74	7147.4	
497.94	8790.6	
498.14	9902.6	
498.34	9704	
498.53	6823.1	
498.73	7595.9	
498.93	8581	
499.13	9183.1	
499.33	7461.4	
499.52	7985	
499.72	9140.8	
499.92	9427.5	
500.12	7157	
500.32	7376.8	
500.51	9474.6	
500.71	9183.1	
500.91	8172.8	
501.11	7690.8	
501.31	9384.5	
501.5	9706	
501.7	8436.3	
501.9	7423.2	
502.1	9212.4	
502.29	9400.2	
502.49	7844.4	
502.69	8294.3	
502.89	9381.7	
503.09	9334.6	
503.28	6908.5	
503.48	7088	
503.68	8680	
503.88	8677.2	
504.07	7959.8	
504.27	7414.3	
504.47	8989.2	
504.67	9121.7	
504.86	7866.9	
505.06	7624.6	
505.26	8658.1	
505.46	10474	
505.65	7449.8	
505.85	7732.4	
506.05	8505.2	
506.25	9077.3	
506.44	6787.7	
506.64	7727	
506.84	8460.2	
507.04	9350.3	
507.23	6956.3	
507.43	7650.5	
507.63	10434	
507.83	8763.3	
508.02	7476.5	
508.22	7101	
508.42	10627	
508.62	8410.3	
508.81	7324.9	
509.01	7924.3	
509.21	8282	
509.4	8667.7	
509.6	7559.7	
509.8	6939.9	
510	8600.1	
510.19	10011	
510.39	6958.3	
510.59	6937.2	
510.79	8379.6	
510.98	9718.3	
511.18	7047.7	
511.38	7208.2	
511.57	9312.8	
511.77	9090.3	
511.97	7880.6	
512.17	6823.8	
512.36	9213.1	
512.56	9213.8	
512.76	6967.2	
512.95	6709.1	
513.15	9251.4	
513.35	7909.3	
513.55	7789.8	
513.74	6910.5	
513.94	9243.2	
514.14	8602.8	
514.33	8004.1	
514.53	7621.9	
514.73	8587.1	
514.92	8806.9	
515.12	7171.3	
515.32	6963.1	
515.51	8946.2	
515.71	9439.1	
515.91	8741.4	
516.11	6931	
516.3	10575	
516.5	8511.4	
516.7	7553.6	
516.89	8271.7	
517.09	8613.1	
517.29	8559.8	
517.48	7900.4	
517.68	7273.7	
517.88	8412.4	
518.07	9079.3	
518.27	7792.5	
518.47	6908.5	
518.66	9615.2	
518.86	8231.5	
519.06	6688	
519.25	7177.4	
519.45	8521.6	
519.65	10045	
519.84	7772.7	
520.04	8373.5	
520.24	10431	
520.43	9240.4	
520.63	7476.5	
520.83	7309.2	
521.02	8523	
521.22	9134.6	
521.42	7853.3	
521.61	8342.1	
521.81	8669.7	
522.01	8840.4	
522.2	7619.8	
522.4	7297.6	
522.6	9391.3	
522.79	8168.7	
522.99	7528.3	
523.18	6815.6	
523.38	9026.1	
523.58	9163.3	
523.77	8665.6	
523.97	6759	
524.17	10935	
524.36	9883.5	
524.56	8191.9	
524.76	7815	
524.95	9153.1	
525.15	8660.9	
525.34	7634.8	
525.54	7551.5	
525.74	9424.8	
525.93	8443.8	
526.13	8856.1	
526.33	7656	
526.52	9791.3	
526.72	9303.9	
526.91	8862.2	
527.11	8049.2	
527.31	9912.2	
527.5	10247	
527.7	7982.3	
527.89	6990.4	
528.09	8752.3	
528.29	9296.4	
528.48	8364.6	
528.68	7980.9	
528.87	9682.8	
529.07	9789.3	
529.27	7929.1	
529.46	7451.9	
529.66	9379	
529.85	9776.3	
530.05	7299.6	
530.25	8170.7	
530.44	10804	
530.64	9288.2	
530.83	7658	
531.03	7929.1	
531.23	9758.6	
531.42	9625.5	
531.62	8686.8	
531.81	7813	
532.01	9807	
532.21	10274	
532.4	7660.1	
532.6	8008.9	
532.79	10768	
532.99	9966.1	
533.18	8043.7	
533.38	9114.1	
533.58	9452.7	
533.77	10238	
533.97	8048.5	
534.16	8822.6	
534.36	10490	
534.55	9507.4	
534.75	9118.2	
534.95	8149.6	
535.14	10300	
535.34	9512.8	
535.53	7823.2	
535.73	9780.4	
535.92	10943	
536.12	9703.3	
536.31	7869	
536.51	9065.7	
536.71	9955.2	
536.9	9534.7	
537.1	8000.7	
537.29	8176.2	
537.49	10313	
537.68	9477.3	
537.88	8563.9	
538.07	7767.9	
538.27	9636.4	
538.46	10754	
538.66	7688.1	
538.86	8103.1	
539.05	9805.7	
539.25	10062	
539.44	8348.2	
539.64	7985.7	
539.83	9549	
540.03	10512	
540.22	7965.9	
540.42	8034.9	
540.61	9824.8	
540.81	9919.7	
541	8503.2	
541.2	9081.4	
541.39	9357.9	
541.59	9688.9	
541.78	8758.5	
541.98	7785.7	
542.18	9011.7	
542.37	9028.1	
542.57	8290.9	
542.76	8817.9	
542.96	9086.2	
543.15	9860.3	
543.35	8342.1	
543.54	7580.2	
543.74	10088	
543.93	9611.1	
544.13	8284	
544.32	9286.9	
544.52	9884.2	
544.71	9094.3	
544.91	7321.5	
545.1	8568.7	
545.3	9122.3	
545.49	9827.5	
545.69	7232.1	
545.88	7845.8	
546.08	10740	
546.27	10385	
546.47	8404.2	
546.66	7572.7	
546.86	10023	
547.05	10611	
547.24	7966.6	
547.44	7660.8	
547.63	8998.1	
547.83	10189	
548.02	8121.6	
548.22	8311.3	
548.41	8733.2	
548.61	10226	
548.8	7710.6	
549	7575.4	
549.19	9470.5	
549.39	9747.6	
549.58	7283.3	
549.78	7939.3	
549.97	9751.1	
550.17	9340.1	
550.36	8759.2	
550.55	9763.3	
550.75	9389.9	
550.94	10287	
551.14	7521.5	
551.33	7929.1	
551.53	8704.5	
551.72	9587.9	
551.92	8004.1	
552.11	7742	
552.31	9742.9	
552.5	9678	
552.69	9439.8	
552.89	7349.5	
553.08	9699.2	
553.28	9430.2	
553.47	7806.2	
553.67	8882.7	
553.86	10441	
554.06	8664.3	
554.25	6987	
554.44	7548.1	
554.64	11041	
554.83	10601	
555.03	7560.4	
555.22	7891.5	
555.42	9901.9	
555.61	9623.4	
555.8	7768.6	
556	8011	
556.19	8698.4	
556.39	9968.1	
556.58	7781.6	
556.78	7737.2	
556.97	9496.4	
557.16	9208.4	
557.36	8998.1	
557.55	7425.3	
557.75	8452	
557.94	10286	
558.13	7542.7	
558.33	7195.2	
558.52	10077	
558.72	9037	
558.91	7525.6	
559.1	7560.4	
559.3	8674.5	
559.49	8401.5	
559.69	7012.9	
559.88	7881.3	
560.07	9514.2	
560.27	9852.1	
560.46	8153	
560.66	8336.6	
560.85	9213.8	
561.04	8531.2	
561.24	7413	
561.43	7692.9	
561.63	8619.9	
561.82	9045.2	
562.01	8751.7	
562.21	7924.3	
562.4	9437	
562.59	10305	
562.79	7765.2	
562.98	7307.2	
563.18	9296.4	
563.37	10805	
563.56	8181.6	
563.76	7311.2	
563.95	8819.2	
564.14	8772.8	
564.34	7662.8	
564.53	7421.2	
564.73	9300.5	
564.92	9635	
565.11	7791.2	
565.31	7216.4	
565.5	9919.7	
565.69	8852	
565.89	7476.5	
566.08	7680.6	
566.27	9781.8	
566.47	10153	
566.66	8299.1	
566.85	6963.8	
567.05	9426.8	
567.24	8766.7	
567.44	7432.1	
567.63	8827.4	
567.82	9609.1	
568.02	9321	
568.21	7425.9	
568.4	7811.6	
568.6	9257.5	
568.79	9196.7	
568.98	7230.7	
569.18	7376.1	
569.37	9201.5	
569.56	11118	
569.76	7746.8	
569.95	8649.9	
570.14	9583.1	
570.34	9526.5	
570.53	7258	
570.72	7249.8	
570.91	9990.7	
571.11	9086.2	
571.3	7671.7	
571.49	8482.7	
571.69	9060.9	
571.88	8631.5	
572.07	8148.9	
572.27	8174.8	
572.46	8651.3	
572.65	9679.4	
572.85	7484.6	
573.04	7693.5	
573.23	9953.1	
573.43	9287.5	
573.62	7133.1	
573.81	7933.1	
574	9273.9	
574.2	9138.7	
574.39	7484.6	
574.58	7764.5	
574.78	10030	
574.97	9413.1	
575.16	8002.1	
575.36	8233.5	
575.55	9698.5	
575.74	9841.2	
575.93	7291.5	
576.13	8290.2	
576.32	9030.9	
576.51	9726.5	
576.71	7638.9	
576.9	8964.6	
577.09	10033	
577.28	9520.3	
577.48	8110.6	
577.67	7108.5	
577.86	9169.4	
578.05	9545.6	
578.25	7771.4	
578.44	7880.6	
578.63	9433.6	
578.83	10484	
579.02	7206.8	
579.21	8704.5	
579.4	9557.9	
579.6	9219.3	
579.79	7962.5	
579.98	10121	
580.17	9906.7	
580.37	9917.6	
580.56	7471.7	
580.75	8097	
580.94	10344	
581.14	10211	
581.33	8667.7	
581.52	7605.5	
581.71	9802.3	
581.91	10434	
582.1	7238.9	
582.29	7875.8	
582.48	9507.4	
582.68	9446.6	
582.87	8425.3	
583.06	8000	
583.25	9753.8	
583.45	9139.4	
583.64	8786.5	
583.83	9327.1	
584.02	9284.8	
584.21	9746.3	
584.41	8754.4	
584.6	7991.2	
584.79	9508	
584.98	10280	
585.18	7494.9	
585.37	7465.5	
585.56	9068.4	
585.75	9912.2	
585.94	7746.8	
586.14	8371.4	
586.33	10395	
586.52	9562	
586.71	8158.4	
586.91	7996	
587.1	8860.2	
587.29	9908.1	
587.48	7823.9	
587.67	7716.1	
587.87	9694.4	
588.06	9808.4	
588.25	8987.9	
588.44	8320.9	
588.63	9376.3	
588.83	9921	
589.02	7735.2	
589.21	7555.6	
589.4	9054.1	
589.59	8940.7	
589.78	6817	
589.98	7042.3	
590.17	8455.4	
590.36	9058.8	
590.55	6445	
590.74	7234.1	
590.94	10384	
591.13	8746.2	
591.32	6832	
591.51	6455.2	
591.7	9141.4	
591.89	8695	
592.09	6516	
592.28	7025.9	
592.47	7998.7	
592.66	9878.7	
592.85	6552.8	
593.05	6792.4	
593.24	8661.5	
593.43	9327.8	
593.62	6870.9	
593.81	7382.2	
594	8681.3	
594.19	8890.9	
594.39	6825.2	
594.58	6743.3	
594.77	9043.8	
594.96	9529.2	
595.15	6754.2	
595.34	7464.2	
595.54	9015.8	
595.73	8192.6	
595.92	6144.6	
596.11	7356.3	
596.3	9527.8	
596.49	8177.5	
596.68	6963.8	
596.88	7556.3	
597.07	9228.8	
597.26	8011	
597.45	6576.7	
597.64	7780.9	
597.83	8319.5	
598.02	8924.4	
598.22	6698.2	
598.41	7325.6	
598.6	8798.8	
598.79	8275.2	
598.98	6728.9	
599.17	7700.4	
599.36	8767.4	
599.55	10007	
599.74	8867.7	
599.94	8594	
600.13	9353.1	
600.32	8225.3	
600.51	6590.4	
600.7	6724.2	
600.89	10032	
601.08	10128	
601.27	6538.5	
601.47	7550.2	
601.66	9371.5	
601.85	10060	
602.04	7210.2	
602.23	7414.3	
602.42	8447.2	
602.61	9140.1	
602.8	7134.4	
602.99	6972.7	
603.18	8854.1	
603.37	9054.8	
603.57	7649.2	
603.76	8102.4	
603.95	9846	
604.14	9332.6	
604.33	7043	
604.52	7349.5	
604.71	9082.7	
604.9	8712.1	
605.09	8038.3	
605.28	7816.4	
605.47	9684.2	
605.66	9419.3	
605.86	7703.8	
606.05	7114.6	
606.24	9566.7	
606.43	8258.8	
606.62	7449.1	
606.81	8173.4	
607	9427.5	
607.19	8774.9	
607.38	6823.1	
607.57	7083.9	
607.76	8658.1	
607.95	8108.6	
608.14	7458	
608.33	8064.9	
608.52	8680.7	
608.72	9415.9	
608.91	6790.4	
609.1	6698.9	
609.29	8751.7	
609.48	8264.2	
609.67	7744.1	
609.86	6747.4	
610.05	8372.1	
610.24	8649.9	
610.43	6590.4	
610.62	6257.2	
610.81	9826.2	
611	9544.2	
611.19	6733.7	
611.38	7465.5	
611.57	8935.3	
611.76	10222	
611.95	6436.8	
612.14	6320.7	
612.33	8816.5	
612.52	8343.4	
612.71	7092.8	
612.9	6323.4	
613.09	7920.9	
613.28	10073	
613.47	6819.1	
613.66	7803.4	
613.85	8890.2	
614.04	8413.1	
614.24	6847.7	
614.43	6109.1	
614.62	9078	
614.81	8910	
615	7359	
615.19	7461.4	
615.38	8266.3	
615.57	8703.9	
615.76	7299.6	
615.95	8202.1	
616.14	8983.1	
616.33	8808.3	
616.52	7733.8	
616.71	7927	
616.9	8957.1	
617.09	8875.9	
617.28	7046.4	
617.47	8226	
617.66	8157.1	
617.85	8143.4	
618.04	7942.7	
618.22	7358.4	
618.41	8578.3	
618.6	9397.4	
618.79	7307.8	
618.98	6994.5	
619.17	9724.4	
619.36	8062.2	
619.55	7137.9	
619.74	7194.5	
619.93	8955.1	
620.12	8447.2	
620.31	7762.5	
620.5	7962.5	
620.69	9637.7	
620.88	9952.4	
621.07	8673.1	
621.26	7653.3	
621.45	9224.7	
621.64	9142.1	
621.83	7767.3	
622.02	6842.3	
622.21	9213.1	
622.4	8925.7	
622.59	8244.4	
622.78	7976.2	
622.97	8571.4	
623.16	9659.6	
623.35	7700.4	
623.54	6860.7	
623.72	8804.9	
623.91	8999.5	
624.1	8000.7	
624.29	6666.8	
624.48	10019	
624.67	9270.5	
624.86	7935.9	
625.05	6926.9	
625.24	10136	
625.43	8525.7	
625.62	9577.7	
625.81	7110.5	
626	9483.5	
626.19	8820.6	
626.38	7859.4	
626.56	7329	
626.75	8556.4	
626.94	9259.5	
627.13	7865.6	
627.32	6579.4	
627.51	9243.8	
627.7	10565	
627.89	6708.5	
628.08	7720.2	
628.27	8372.8	
628.46	8572.1	
628.65	6902.3	
628.83	6679.8	
629.02	9122.3	
629.21	8436.9	
629.4	7395.2	
629.59	7550.2	
629.78	8348.9	
629.97	9385.8	
630.16	7626	
630.35	7092.8	
630.54	9810.5	
630.72	9516.2	
630.91	7043	
631.1	7709.2	
631.29	8948.9	
631.48	9188.6	
631.67	7769.3	
631.86	7207.5	
632.05	8595.3	
632.24	8727.8	
632.42	6792.4	
632.61	7475.8	
632.8	8698.4	
632.99	8277.2	
633.18	7442.3	
633.37	7852.6	
633.56	8955.1	
633.75	8791.2	
633.93	7537.9	
634.12	7114	
634.31	9821.4	
634.5	9508	
634.69	7238.9	
634.88	7666.9	
635.07	8744.1	
635.25	9339.4	
635.44	8150.2	
635.63	8331.8	
635.82	8647.9	
636.01	8195.3	
636.2	8112	
636.39	7642.3	
636.57	9848.7	
636.76	9432.3	
636.95	7047.1	
637.14	8393.9	
637.33	9172.9	
637.52	10030	
637.7	6858.6	
637.89	7748.1	
638.08	8667	
638.27	10080	
638.46	7901.7	
638.65	8288.8	
638.83	10019	
639.02	8540	
639.21	7798	
639.4	8249.2	
639.59	8937.3	
639.78	8500.4	
639.96	7118.7	
640.15	7096.9	
640.34	8861.6	
640.53	8989.2	
640.72	6839.5	
640.91	7073.7	
641.09	8240.3	
641.28	9609.8	
641.47	7335.1	
641.66	7914.7	
641.85	8918.9	
642.03	9153.1	
642.22	7761.8	
642.41	7230.7	
642.6	8351.6	
642.79	7817.8	
642.97	6894.1	
643.16	7621.9	
643.35	8478.6	
643.54	8234.9	
643.73	6883.9	
643.91	7685.3	
644.1	8040.3	
644.29	8597.4	
644.48	6877.8	
644.67	7005.4	
644.85	8185.7	
645.04	8449.9	
645.23	6540.5	
645.42	6787.7	
645.6	7935.2	
645.79	9168.1	
645.98	6728.3	
646.17	5774.6	
646.36	7672.4	
646.54	8275.2	
646.73	7479.9	
646.92	6240.8	
647.11	7855.3	
647.29	8964.6	
647.48	6380.8	
647.67	6066.8	
647.86	9187.2	
648.05	9147.6	
648.23	6656.6	
648.42	7962.5	
648.61	8557.8	
648.8	8270.4	
648.98	6221	
649.17	6625.9	
649.36	7847.8	
649.55	7296.9	
649.73	6404	
649.92	7166.5	
650.11	7837.6	
650.3	8187.8	
650.48	6532.3	
650.67	6329.6	
650.86	8490.2	
651.05	7376.1	
651.23	6488.6	
651.42	6483.9	
651.61	7815.7	
651.79	7974.1	
651.98	6622.4	
652.17	6300.9	
652.36	8269	
652.54	7417.7	
652.73	6330.3	
652.92	6217.6	
653.11	8322.9	
653.29	8428.1	
653.48	5695.4	
653.67	6625.9	
653.85	8156.4	
654.04	9221.3	
654.23	6822.5	
654.42	6350.8	
654.6	7656	
654.79	8249.2	
654.98	5894.7	
655.16	6401.3	
655.35	7269.6	
655.54	7157.7	
655.73	5933	
655.91	5844.2	
656.1	8336.6	
656.29	7077.1	
656.47	5456.5	
656.66	7181.5	
656.85	7445.7	
657.03	7493.5	
657.22	6047	
657.41	6167.8	
657.59	7662.1	
657.78	7425.9	
657.97	5821	
658.16	6475.7	
658.34	8386.4	
658.53	8701.1	
658.72	7394.5	
658.9	7926.3	
659.09	7701	
659.28	7811.6	
659.46	6215.6	
659.65	6098.2	
659.84	7536.5	
660.02	8061.5	
660.21	6093.4	
660.4	6074.3	
660.58	8518.9	
660.77	7930.4	
660.96	6713.2	
661.14	5708.4	
661.33	9013.1	
661.52	8880.7	
661.7	5696.8	
661.89	9405.6	
662.08	7542	
662.26	7159	
662.45	6044.2	
662.64	6241.5	
662.82	8239.7	
663.01	7420.5	
663.2	6168.5	
663.38	6922.1	
663.57	8141.4	
663.75	8088.8	
663.94	6448.4	
664.13	7703.8	
664.31	7542	
664.5	8191.9	
664.69	6682.5	
664.87	7200	
665.06	7303.7	
665.25	8077.9	
665.43	7511.3	
665.62	7518.8	
665.8	8310.7	
665.99	7572	
666.18	6451.1	
666.36	6595.1	
666.55	8348.9	
666.74	8200.7	
666.92	6059.9	
667.11	7716.7	
667.29	7680.6	
667.48	8314.8	
667.67	7353.6	
667.85	6490.7	
668.04	7693.5	
668.22	7686.7	
668.41	6517.3	
668.6	6677.1	
668.78	7401.4	
668.97	7703.8	
669.15	6883.2	
669.34	5863.3	
669.53	7523.6	
669.71	7834.2	
669.9	6092.7	
670.08	6689.3	
670.27	7534.5	
670.46	8086.7	
670.64	6962.4	
670.83	7129	
671.01	7330.4	
671.2	7959.1	
671.38	6092.7	
671.57	5997.1	
671.76	8590.5	
671.94	9135.3	
672.13	5993	
672.31	6995.9	
672.5	8193.2	
672.69	7499.7	
672.87	6142.5	
673.06	6438.1	
673.24	7980.3	
673.43	7465.5	
673.61	6795.8	
673.8	6386.2	
673.98	8193.9	
674.17	8347.5	
674.36	6986.3	
674.54	6812.9	
674.73	7942.7	
674.91	8155.7	
675.1	6518.7	
675.28	6191.7	
675.47	7743.4	
675.65	8363.2	
675.84	6481.1	
676.03	6704.4	
676.21	7551.5	
676.4	7083.9	
676.58	7198.6	
676.77	6901	
676.95	8987.2	
677.14	7506.5	
677.32	6122.1	
677.51	5913.2	
677.69	8226	
677.88	7200.7	
678.06	5933	
678.25	6092.7	
678.44	7744.1	
678.62	7464.2	
678.81	5831.9	
678.99	6745.3	
679.18	8560.5	
679.36	8088.8	
679.55	6365.1	
679.73	7062.8	
679.92	8077.9	
680.1	7524.9	
680.29	7554.3	
680.47	6359.6	
680.66	7452.6	
680.84	8299.7	
681.03	5703.6	
681.21	6784.2	
681.4	7465.5	
681.58	7336.5	
681.77	6155.5	
681.95	5901.6	
682.14	8279.9	
682.32	8707.3	
682.51	6956.9	
682.69	5902.9	
682.88	7382.9	
683.06	8028	
683.25	6685.3	
683.43	7152.9	
683.62	7689.4	
683.8	8058.8	
683.99	7167.9	
684.17	6620.4	
684.36	8859.5	
684.54	7590.5	
684.73	5676.3	
684.91	5952.1	
685.1	7871	
685.28	7210.9	
685.46	6402.6	
685.65	6417	
685.83	7907.2	
686.02	7223.9	
686.2	5729.5	
686.39	5901.6	
686.57	6927.6	
686.76	8555.7	
686.94	5846.3	
687.13	5920	
687.31	7747.5	
687.5	7294.9	
687.68	5441.5	
687.86	6702.3	
688.05	9003.6	
688.23	6836.1	
688.42	6698.2	
688.6	5896.8	
688.79	7227.3	
688.97	7221.1	
689.16	6316.6	
689.34	5231.2	
689.52	7968	
689.71	8223.3	
689.89	6591.7	
690.08	5867.4	
690.26	7493.5	
690.45	7324.2	
690.63	6754.9	
690.81	6085.2	
691	7210.9	
691.18	7135.1	
691.37	6139.8	
691.55	8262.2	
691.74	7066.9	
691.92	9047.2	
692.1	6083.1	
692.29	5492.7	
692.47	7329.7	
692.66	6567.8	
692.84	5653.8	
693.02	6348	
693.21	6673	
693.39	7276.4	
693.58	6335.1	
693.76	5879.7	
693.94	8443.8	
694.13	8206.2	
694.31	5816.2	
694.5	6947.4	
694.68	7114	
694.86	7520.1	
695.05	6290.7	
695.23	6371.2	
695.42	7850.5	
695.6	10208	
695.78	6948.8	
695.97	5997.1	
696.15	7967.3	
696.34	7372.7	
696.52	5784.8	
696.7	6602	
696.89	7679.2	
697.07	7046.4	
697.25	6487.3	
697.44	8071.7	
697.62	7529	
697.81	7927	
697.99	6079.7	
698.17	6623.8	
698.36	6911.9	
698.54	7608.9	
698.72	6427.2	
698.91	5505.6	
699.09	7189.7	
699.28	7044.3	
699.46	6143.9	
699.64	5946.6	
699.83	6924.9	
700.01	8239.7	
700.19	6730.3	
700.38	5207.3	
700.56	8150.9	
700.74	7001.3	
700.93	5554.8	
701.11	6503	
701.29	7689.4	
701.48	8718.9	
701.66	5886.5	
701.84	5933	
702.03	7381.6	
702.21	7818.5	
702.39	5437.4	
702.58	6070.9	
702.76	7652.6	
702.94	7767.3	
703.13	5466.7	
703.31	7871.7	
703.49	6894.8	
703.68	8041.7	
703.86	5647.6	
704.04	6579.4	
704.23	7500.3	
704.41	7809.6	
704.59	5864.7	
704.78	7042.3	
704.96	8563.2	
705.14	7974.1	
705.33	5621.7	
705.51	6442.9	
705.69	7330.4	
705.87	8138.6	
706.06	6744.6	
706.24	5685.2	
706.42	7604.8	
706.61	7906.5	
706.79	6831.3	
706.97	5607.3	
707.16	7065.5	
707.34	7631.4	
707.52	6649.1	
707.7	5857.2	
707.89	7271.7	
708.07	6956.9	
708.25	6769.2	
708.44	6815.6	
708.62	7125.6	
708.8	8348.9	
708.98	7035.5	
709.17	5874.9	
709.35	7619.1	
709.53	7617.8	
709.72	5622.4	
709.9	5765.7	
710.08	7817.8	
710.26	7863.5	
710.45	7301.7	
710.63	6034.7	
710.81	7507.2	
710.99	7492.8	
711.18	6602.7	
711.36	6049	
711.54	7295.5	
711.72	8008.2	
711.91	6085.2	
712.09	5588.2	
712.27	7468.9	
712.45	8479.3	
712.64	6428.6	
712.82	5337	
713	6785.6	
713.18	7022.5	
713.37	5358.9	
713.55	6681.2	
713.73	7866.9	
713.91	6425.8	
714.1	5816.9	
714.28	5215.5	
714.46	7461.4	
714.64	6566.5	
714.83	4630.5	
715.01	5440.1	
715.19	6552.1	
715.37	6016.2	
715.55	5031.9	
715.74	5361.6	
715.92	7533.8	
716.1	5547.9	
716.28	6429.3	
716.47	5528.2	
716.65	6195.8	
716.83	6325.5	
717.01	5311.1	
717.19	5464.7	
717.38	8429.4	
717.56	5926.8	
717.74	5659.9	
717.92	4733.5	
718.1	7221.8	
718.29	6412.2	
718.47	4367.6	
718.65	5018.9	
718.83	7124.9	
719.01	7014.3	
719.2	4315.8	
719.38	5432.6	
719.56	6780.8	
719.74	8373.5	
719.92	5007.3	
720.11	6091.3	
720.29	6873	
720.47	5999.9	
720.65	4600.4	
720.83	5416.9	
721.02	6282.5	
721.2	6034	
721.38	5414.8	
721.56	4666.6	
721.74	5566.4	
721.92	5765	
722.11	5872.9	
722.29	5670.1	
722.47	7029.3	
722.65	6146	
722.83	4667.3	
723.01	5555.5	
723.2	6225.1	
723.38	6453.8	
723.56	4188.1	
723.74	5294.7	
723.92	5716.6	
724.1	6864.8	
724.29	4678.9	
724.47	5803.9	
724.65	5837.4	
724.83	5741.8	
725.01	4562.2	
725.19	5376.6	
725.37	5788.2	
725.56	5863.3	
725.74	4389.5	
725.92	4691.2	
726.1	5729.5	
726.28	6057.2	
726.46	5097.4	
726.64	4844.8	
726.83	6057.9	
727.01	6262	
727.19	4358.1	
727.37	5197.1	
727.55	6092	
727.73	6617	
727.91	4299.4	
728.09	4194.9	
728.28	6640.9	
728.46	7308.5	
728.64	5335.6	
728.82	5265.3	
729	7746.8	
729.18	7077.1	
729.36	4489.1	
729.54	6861.4	
729.72	8026	
729.91	6311.8	
730.09	6382.2	
730.27	5272.2	
730.45	6261.3	
730.63	6901	
730.81	5786.9	
730.99	4876.9	
731.17	7425.9	
731.35	5971.2	
731.53	5385.5	
731.71	5021.6	
731.9	7157.7	
732.08	7346.1	
732.26	5247.6	
732.44	4968.4	
732.62	7349.5	
732.8	6861.4	
732.98	5686.5	
733.16	4693.9	
733.34	6860	
733.52	5702.2	
733.7	5216.9	
733.88	5459.9	
734.07	6619.7	
734.25	6504.3	
734.43	4704.2	
734.61	6292.7	
734.79	7963.2	
734.97	6335	
735.15	4855.7	
735.33	5160.2	
735.51	6688.7	
735.69	6320	
735.87	6313.9	
736.05	5439.4	
736.23	6613.6	
736.41	6330.3	
736.59	5231.9	
736.77	5326.8	
736.95	6980.2	
737.13	6426.5	
737.32	4940.4	
737.5	5165.7	
737.68	7645.8	
737.86	6362.4	
738.04	4740.4	
738.22	6588.3	
738.4	6079.1	
738.58	6440.9	
738.76	5369.8	
738.94	4317.1	
739.12	6268.1	
739.3	6098.9	
739.48	5996.5	
739.66	5644.9	
739.84	6538.5	
740.02	6488	
740.2	4416.1	
740.38	4782.7	
740.56	6871.6	
740.74	5814.9	
740.92	5457.2	
741.1	5364.3	
741.28	6371.2	
741.46	6255.9	
741.64	4898.7	
741.82	5455.8	
742	6391	
742.18	6335.7	
742.36	5185.5	
742.54	4745.1	
742.72	6909.8	
742.9	5780.7	
743.08	5537.7	
743.26	4463.9	
743.44	7174.7	
743.62	7040.9	
743.8	5811.5	
743.98	4775.2	
744.16	6720.8	
744.34	6393.1	
744.52	5619.6	
744.7	5612.1	
744.88	6772.6	
745.06	6373.3	
745.24	5674.9	
745.42	5831.9	
745.6	6931.7	
745.78	6677.1	
745.96	4504.2	
746.14	4777.2	
746.32	7686	
746.5	6903.7	
746.68	5314.5	
746.86	4810.7	
747.03	7346.7	
747.21	5651	
747.39	5360.9	
747.57	4791.6	
747.75	6418.3	
747.93	6906.4	
748.11	4857.8	
748.29	4711	
748.47	8076.5	
748.65	6204.7	
748.83	5505.6	
749.01	5285.1	
749.19	6713.2	
749.37	5888.6	
749.55	5125.4	
749.73	5201.8	
749.91	6343.2	
750.09	6068.8	
750.26	5229.8	
750.44	4631.1	
750.62	6424.5	
750.8	6383.5	
750.98	4515.1	
751.16	4837.3	
751.34	6447.7	
751.52	5773.9	
751.7	5640.1	
751.88	4465.3	
752.06	6860.7	
752.24	6625.2	
752.42	4400.4	
752.59	4784.7	
752.77	6263.4	
752.95	7565.2	
753.13	5477	
753.31	4909.7	
753.49	6008.1	
753.67	6393.1	
753.85	5234.6	
754.03	4719.9	
754.21	6718	
754.38	7055.9	
754.56	5025	
754.74	4012	
754.92	5991.7	
755.1	6668.9	
755.28	3994.2	
755.46	3993.5	
755.64	7382.9	
755.82	7494.9	
755.99	4306.9	
756.17	4371.7	
756.35	4962.9	
756.53	6530.3	
756.71	3264.5	
756.89	4214.7	
757.07	6156.2	
757.25	5231.2	
757.42	4812	
757.6	5638.1	
757.78	6198.5	
757.96	5162.2	
758.14	4447.5	
758.32	3951.2	
758.5	4738.3	
758.67	5582.8	
758.85	4298.7	
759.03	4441.4	
759.21	5818.3	
759.39	5220.3	
759.57	3870	
759.75	5013.4	
759.92	6427.9	
760.1	5715.9	
760.28	5400.5	
760.46	5599.1	
760.64	5448.3	
760.82	5190.2	
760.99	5198.4	
761.17	4377.2	
761.35	6314.6	
761.53	5273.5	
761.71	4530.1	
761.89	5193.6	
762.06	6175.3	
762.24	5689.3	
762.42	4650.3	
762.6	4363.5	
762.78	5700.9	
762.96	6356.2	
763.13	5053.7	
763.31	4646.2	
763.49	6529.6	
763.67	5589.6	
763.85	5470.1	
764.02	6042.9	
764.2	6764.4	
764.38	5922.7	
764.56	4532.2	
764.74	5394.3	
764.91	6917.4	
765.09	5768.4	
765.27	4214.7	
765.45	4030.4	
765.63	6870.9	
765.8	6770.6	
765.98	3739.6	
766.16	4095.9	
766.34	5352.7	
766.52	5036.6	
766.69	5103.5	
766.87	3924.6	
767.05	5760.9	
767.23	6490.7	
767.41	4265.2	
767.58	4509.6	
767.76	6299.6	
767.94	6389.7	
768.12	4376.5	
768.29	5091.3	
768.47	5799.8	
768.65	6518	
768.83	3981.3	
769	5070.1	
769.18	5375.2	
769.36	6115.2	
769.54	5195	
769.72	4014.7	
769.89	6369.2	
770.07	6527.6	
770.25	4371	
770.43	5611.4	
770.6	7156.3	
770.78	7539.3	
770.96	4529.4	
771.14	5173.9	
771.31	6261.3	
771.49	5677	
771.67	3665.2	
771.85	3973.1	
772.02	4930.8	
772.2	5642.2	
772.38	4725.3	
772.55	4180.6	
772.73	5952.8	
772.91	5681.1	
773.09	4557.4	
773.26	4638.6	
773.44	5916.6	
773.62	5581.4	
773.8	4056.3	
773.97	3844	
774.15	6015.6	
774.33	5541.8	
774.5	3984.7	
774.68	4328	
774.86	6119.3	
775.04	5578.7	
775.21	4065.2	
775.39	4055	
775.57	5864	
775.74	6284.5	
775.92	3894.6	
776.1	3741	
776.27	5864.7	
776.45	7122.2	
776.63	4109.6	
776.81	3618.8	
776.98	5511.8	
777.16	6580.1	
777.34	4184.7	
777.51	4173.8	
777.69	5412.1	
777.87	5255.1	
778.04	4276.2	
778.22	4907.6	
778.4	5331.5	
778.57	5957.5	
778.75	3585.3	
778.93	3791.5	
779.1	5083.7	
779.28	4901.5	
779.46	3521.1	
779.64	4064.5	
779.81	6137.1	
779.99	6997.2	
780.17	4839.4	
780.34	4986.8	
780.52	5528.2	
780.69	5759.6	
780.87	4427	
781.05	3899.3	
781.22	5611.4	
781.4	5673.6	
781.58	4055.7	
781.75	3188	
781.93	5667.4	
782.11	5051	
782.28	4827.7	
782.46	4003.1	
782.64	4942.4	
782.81	5963	
782.99	4141.7	
783.17	4126	
783.34	5761.6	
783.52	4945.8	
783.69	4378.6	
783.87	5170.4	
784.05	5038.7	
784.22	5067.4	
784.4	5089.9	
784.58	4388.8	
784.75	6027.9	
784.93	5070.8	
785.1	4061.8	
785.28	4752.7	
785.46	5728.2	
785.63	5046.9	
785.81	3999.7	
785.99	3862.5	
786.16	5208.7	
786.34	5583.4	
786.51	4009.9	
786.69	4347.8	
786.87	4818.9	
787.04	5372.5	
787.22	3808.5	
787.39	4752.7	
787.57	5038	
787.75	6092.7	
787.92	4873.5	
788.1	4829.1	
788.27	5079.6	
788.45	4797	
788.63	4599.7	
788.8	3289	
788.98	5446.9	
789.15	4799.8	
789.33	3426.3	
789.5	4091.8	
789.68	6054.5	
789.86	6165.8	
790.03	4499.4	
790.21	3928	
790.38	5960.3	
790.56	5210.7	
790.73	3788.7	
790.91	3861.8	
791.09	5052.3	
791.26	5901.6	
791.44	4016.7	
791.61	3516.4	
791.79	5012.7	
791.96	5068.7	
792.14	3644	
792.32	3229	
792.49	5103.5	
792.67	5190.2	
792.84	3708.2	
793.02	3472	
793.19	5907	
793.37	6207.4	
793.54	3233.1	
793.72	3549.8	
793.89	6393.1	
794.07	5083.1	
794.25	4260.5	
794.42	3332	
794.6	6105.7	
794.77	5829.9	
794.95	4410.6	
795.12	3868.6	
795.3	5070.8	
795.47	5705.6	
795.65	4302.8	
795.82	4080.2	
796	4894.6	
796.17	6805.4	
796.35	3921.2	
796.52	4716.5	
796.7	5616.9	
796.87	5735	
797.05	4940.4	
797.22	4806.6	
797.4	5740.5	
797.57	6741.2	
797.75	4084.3	
797.92	3863.2	
798.1	6034	
798.27	5055.1	
798.45	3301.3	
798.62	3591.5	
798.8	5408	
798.97	5910.4	
799.15	4358.1	
799.32	4149.2	
799.5	4673.5	
799.67	5436	
799.85	4483.7	
800.02	3241.3	
800.2	5060.5	
800.37	5293.3	
800.55	4687.1	
800.72	3916.4	
800.9	5821.7	
801.07	6177.4	
801.25	5152	
801.42	4289.8	
801.6	5881.8	
801.77	5598.5	
801.95	3957.4	
802.12	3791.5	
802.29	5582.1	
802.47	5541.8	
802.64	4253.6	
802.82	3179.8	
802.99	4983.4	
803.17	6025.8	
803.34	4145.8	
803.52	3741	
803.69	6659.3	
803.87	4835.3	
804.04	4106.2	
804.21	4186.7	
804.39	6149.4	
804.56	5319.3	
804.74	3508.9	
804.91	4315.1	
805.09	5064.6	
805.26	5109.7	
805.44	3561.4	
805.61	3900.7	
805.78	5700.2	
805.96	5710.4	
806.13	4268.6	
806.31	4535.6	
806.48	4642.1	
806.66	5180	
806.83	4184.7	
807	4148.5	
807.18	5020.3	
807.35	5492.7	
807.53	4097.3	
807.7	3351.2	
807.87	6231.3	
808.05	5128.8	
808.22	4565.6	
808.4	3297.2	
808.57	5097.4	
808.74	4677.6	
808.92	3792.2	
809.09	4904.2	
809.27	4973.8	
809.44	5576.6	
809.61	3360.7	
809.79	3680.9	
809.96	6249.7	
810.14	5848.3	
810.31	3241.9	
810.48	4027.7	
810.66	5171.1	
810.83	5882.4	
811.01	3798.3	
811.18	4199	
811.35	5857.2	
811.53	4569.7	
811.7	4554.7	
811.87	4233.8	
812.05	5125.4	
812.22	5040.1	
812.39	3684.3	
812.57	3578.5	
812.74	5091.9	
812.92	6750.8	
813.09	3989.4	
813.26	4379.2	
813.44	6531	
813.61	5008.6	
813.78	3255.6	
813.96	4423.6	
814.13	5139.7	
814.3	4771.1	
814.48	4799.8	
814.65	4022.2	
814.82	6326.9	
815	4915.8	
815.17	4089.8	
815.34	5026.4	
815.52	4988.9	
815.69	5051	
815.87	4108.9	
816.04	3540.9	
816.21	5098.1	
816.38	4493.9	
816.56	3927.3	
816.73	3663.8	
816.9	6452.5	
817.08	5875.6	
817.25	3689.8	
817.42	4659.1	
817.6	4631.8	
817.77	5145.2	
817.94	4241.3	
818.12	3710.2	
818.29	4848.9	
818.46	7593.2	
818.64	3844	
818.81	3591.5	
818.98	4774.5	
819.16	6827.2	
819.33	4382	
819.5	4053.6	
819.67	5451.7	
819.85	6113.2	
820.02	4054.3	
820.19	4258.4	
820.37	5265.3	
820.54	4870.1	
820.71	4127.3	
820.88	5142.4	
821.06	5367	
821.23	4846.9	
821.4	4197	
821.58	4141.7	
821.75	5802.6	
821.92	5282.4	
822.09	3377.8	
822.27	3489.1	
822.44	5139.7	
822.61	5010.7	
822.79	3346.4	
822.96	6445.6	
823.13	5517.2	
823.3	4833.9	
823.48	3867.2	
823.65	3571	
823.82	5778	
823.99	4639.3	
824.17	4926.7	
824.34	3584.6	
824.51	6741.2	
824.68	5158.2	
824.86	3768.9	
825.03	4121.9	
825.2	5074.2	
825.37	6189	
825.55	3660.4	
825.72	4110.3	
825.89	6825.2	
826.06	6306.4	
826.24	4035.2	
826.41	4071.4	
826.58	6191.7	
826.75	5374.6	
826.92	3168.2	
827.1	3466.5	
827.27	8457.4	
827.44	6705.7	
827.61	3809.9	
827.79	4639.3	
827.96	4843.4	
828.13	5219.6	
828.3	3975.1	
828.47	3307.5	
828.65	5304.2	
828.82	5285.1	
828.99	5167.7	
829.16	4526	
829.34	5728.9	
829.51	5475.6	
829.68	4101.4	
829.85	4264.6	
830.02	6085.2	
830.2	5774.6	
830.37	3199.6	
830.54	4973.2	
830.71	6537.1	
830.88	5103.5	
831.05	3222.1	
831.23	3730	
831.4	6240.8	
831.57	6968.6	
831.74	3873.4	
831.91	3364.1	
832.09	5338.4	
832.26	5667.4	
832.43	3926.6	
832.6	4453.6	
832.77	5311.7	
832.94	6086.6	
833.12	3134.1	
833.29	3859.7	
833.46	4986.1	
833.63	7233.4	
833.8	4303.5	
833.97	3996.3	
834.15	5743.2	
834.32	5484.5	
834.49	4149.2	
834.66	4200.4	
834.83	5947.3	
835	4834.6	
835.17	3855	
835.35	3801	
835.52	5580	
835.69	5470.8	
835.86	3966.2	
836.03	3311.6	
836.2	5711.8	
836.37	5383.4	
836.55	3991.5	
836.72	3697.9	
836.89	5254.4	
837.06	5704.3	
837.23	4043.4	
837.4	4406.5	
837.57	6621.8	
837.75	7163.8	
837.92	3596.9	
838.09	3860.4	
838.26	5325.4	
838.43	6016.2	
838.6	4130.1	
838.77	3683.6	
838.94	6834.8	
839.11	6554.2	
839.29	3935.5	
839.46	3131.3	
839.63	5656.5	
839.8	5427.8	
839.97	3795.6	
840.14	3857.7	
840.31	5511.1	
840.48	5711.1	
840.65	3194.8	
840.82	3749.8	
841	5681.1	
841.17	5622.4	
841.34	3527.3	
841.51	3564.1	
841.68	5615.5	
841.85	5406.6	
842.02	3665.9	
842.19	3044	
842.36	5453.7	
842.53	5472.9	
842.7	3560.7	
842.87	4296.6	
843.05	7119.4	
843.22	5416.9	
843.39	3358.7	
843.56	3741.6	
843.73	5130.8	
843.9	5757.5	
844.07	5648.3	
844.24	4739	
844.41	8338	
844.58	4972.5	
844.75	3441.3	
844.92	3713	
845.09	5732.3	
845.26	5629.2	
845.43	3533.4	
845.6	3704.8	
845.77	5693.4	
845.94	5415.5	
846.12	3889.1	
846.29	4104.8	
846.46	5933.6	
846.63	5728.2	
846.8	3479.5	
846.97	4195.6	
847.14	6225.1	
847.31	5606	
847.48	3936.9	
847.65	4388.8	
847.82	5977.3	
847.99	5996.5	
848.16	4714.4	
848.33	4390.2	
848.5	5265.3	
848.67	6196.5	
848.84	3505.4	
849.01	3689.8	
849.18	5124.7	
849.35	4781.3	
849.52	4418.8	
849.69	3444	
849.86	5855.8	
850.03	6152.8	
850.2	3540.9	
850.37	4334.2	
850.54	6084.5	
850.71	5332.2	
850.88	4214	
851.05	3452.9	
851.22	5550	
851.39	6258.6	
851.56	3311.6	
851.73	4059.1	
851.9	4998.4	
852.07	5890.6	
852.24	3874.8	
852.41	3446.7	
852.58	5541.1	
852.75	5036	
852.92	3967.6	
853.09	3411.2	
853.26	5303.6	
853.43	6173.3	
853.6	3495.9	
853.77	2996.2	
853.94	6204	
854.11	5601.9	
854.28	5179.3	
854.44	3808.5	
854.61	6633.4	
854.78	5773.2	
854.95	3447.4	
855.12	4371	
855.29	4670.7	
855.46	6241.5	
855.63	3479.5	
855.8	4848.9	
855.97	5283.1	
856.14	6057.9	
856.31	4933.6	
856.48	3812.6	
856.65	5253	
856.82	4981.3	
856.99	3392.1	
857.16	3746.4	
857.33	6974	
857.49	5326.1	
857.66	3764.2	
857.83	4057	
858	5343.2	
858.17	5504.3	
858.34	3295.2	
858.51	3487.7	
858.68	6425.2	
858.85	6406.7	
859.02	4028.4	
859.19	4352.6	
859.36	4943.8	
859.52	5043.5	
859.69	3517.7	
859.86	4154	
860.03	5109	
860.2	6210.8	
860.37	3200.3	
860.54	3530	
860.71	5892.7	
860.88	6344.6	
861.05	3928.7	
861.21	4391.5	
861.38	6328.2	
861.55	4921.3	
861.72	3201	
861.89	3888.4	
862.06	5913.2	
862.23	6489.3	
862.4	3383.2	
862.56	3650.2	
862.73	5713.8	
862.9	5455.8	
863.07	4053.6	
863.24	3160	
863.41	4896	
863.58	5029.8	
863.75	3571	
863.91	4075.5	
864.08	6328.2	
864.25	5853.8	
864.42	4376.5	
864.59	4904.9	
864.76	6528.9	
864.93	4991.6	
865.09	3417.4	
865.26	3746.4	
865.43	6167.1	
865.6	6564.4	
865.77	3066.5	
865.94	3431	
866.1	6235.4	
866.27	5951.4	
866.44	5248.9	
866.61	3356.6	
866.78	5416.9	
866.95	5864	
867.11	3406.5	
867.28	3127.9	
867.45	6057.2	
867.62	5044.8	
867.79	3986	
867.96	3450.1	
868.12	5008	
868.29	5994.4	
868.46	3520.5	
868.63	4669.4	
868.8	6107.7	
868.97	5893.4	
869.13	3659	
869.3	3670	
869.47	5761.6	
869.64	6080.4	
869.81	3550.5	
869.97	3540.9	
870.14	5655.8	
870.31	6356.2	
870.48	3411.9	
870.65	4460.5	
870.81	5322.7	
870.98	5263.3	
871.15	3976.5	
871.32	3723.2	
871.48	5810.1	
871.65	6373.3	
871.82	3438.5	
871.99	3830.4	
872.16	6846.4	
872.32	6216.3	
872.49	3545.7	
872.66	3598.3	
872.83	5862.7	
872.99	5205.9	
873.16	4050.2	
873.33	3467.9	
873.5	5502.2	
873.67	5593	
873.83	3680.2	
874	4632.5	
874.17	5700.9	
874.34	6749.4	
874.5	4514.4	
874.67	4409.3	
874.84	6329.6	
875.01	5019.6	
875.17	4905.6	
875.34	3460.4	
875.51	5584.1	
875.68	6735.1	
875.84	4242	
876.01	5164.3	
876.18	5898.8	
876.34	5819.6	
876.51	3532.1	
876.68	3435.8	
876.85	5334.3	
877.01	6192.4	
877.18	5051	
877.35	3457	
877.52	5492.7	
877.68	4923.3	
877.85	3416.7	
878.02	3437.9	
878.18	5510.4	
878.35	5182.7	
878.52	2783.2	
878.69	3911.6	
878.85	5967.8	
879.02	5875.6	
879.19	4934.2	
879.35	3830.4	
879.52	5883.1	
879.69	6054.5	
879.86	3030.3	
880.02	3915.7	
880.19	5408	
880.36	6675.7	
880.52	3971	
880.69	4184	
880.86	5946.6	
881.02	6024.4	
881.19	3826.3	
881.36	3812.6	
881.52	5838.1	
881.69	5212.1	
881.86	3801	
882.02	3663.1	
882.19	6150.1	
882.36	7219.8	
882.52	3575.1	
882.69	4911.7	
882.86	5644.2	
883.02	5556.8	
883.19	4288.4	
883.36	4063.9	
883.52	5972.6	
883.69	6870.9	
883.86	3513.6	
884.02	3170.3	
884.19	5885.2	
884.36	5468.1	
884.52	3929.4	
884.69	3735.5	
884.86	5227.1	
885.02	6567.2	
885.19	3903.4	
885.36	4033.1	
885.52	5485.8	
885.69	5669.5	
885.86	5075.5	
886.02	4528.1	
886.19	5920.7	
886.35	5390.9	
886.52	3910.9	
886.69	4898.7	
886.85	5012.1	
887.02	6339.1	
887.19	6339.1	
887.35	6339.1	
887.52	6339.1	
887.68	6339.1	
887.85	6339.1	
888.02	6339.1	
888.18	6339.1	
888.35	6339.1	
888.51	6339.1	
888.68	6339.1	
888.85	6339.1	
889.01	6339.1	
889.18	6339.1	
889.35	6339.1	
889.51	6339.1	
889.68	6339.1	
889.84	6339.1	
890.01	6339.1	
890.17	6339.1	
890.34	6339.1	
890.51	6339.1	
890.67	6339.1	
890.84	6339.1	
891	6339.1	
891.17	6339.1	
891.34	6339.1	
891.5	6339.1	
891.67	6339.1	
891.83	6339.1	
892	6339.1	
892.16	6339.1	
892.33	6339.1	
892.5	6339.1	
892.66	6339.1	
892.83	6339.1	
892.99	6339.1	
893.16	6339.1	
893.32	6339.1	
893.49	6339.1	
893.65	6339.1	
893.82	6339.1	
893.99	6339.1	
894.15	6339.1	
894.32	6339.1	
894.48	6339.1	
894.65	6339.1	
894.81	6339.1	
894.98	6339.1	
895.14	6339.1	
895.31	6339.1	
895.47	6339.1	
895.64	6339.1	
895.81	6339.1	
895.97	6339.1	
896.14	6339.1	
896.3	6339.1	
896.47	6339.1	
896.63	6339.1	
896.8	6339.1	
896.96	6339.1	
897.13	6339.1	
897.29	6339.1	
897.46	6339.1	
897.62	6339.1	
897.79	6339.1	
897.95	6339.1	
898.12	6339.1	
898.28	6339.1	
898.45	6339.1	
898.61	6339.1	
898.78	6339.1	
898.94	6339.1	
899.11	6339.1	
899.27	6339.1	
899.44	6339.1	
899.6	6339.1	
899.77	6339.1	
899.93	6339.1	
900.1	6339.1	
900.26	6339.1	
900.43	6339.1	
900.59	6339.1	
900.76	6339.1	
900.92	6339.1	
901.09	6339.1	
901.25	6339.1	
901.42	6339.1	
901.58	6339.1	
901.75	6339.1	
901.91	6339.1	
902.07	6339.1	
902.24	6339.1	
902.4	6339.1	
902.57	6339.1	
902.73	6339.1	
902.9	6339.1	
903.06	6339.1	
903.23	6339.1	
903.39	6339.1	
903.56	6339.1	
903.72	6339.1	
903.88	6339.1	
904.05	6339.1	
904.21	6339.1	
904.38	6339.1	
904.54	6339.1	
904.71	6339.1	
904.87	6339.1	
905.03	6339.1	
905.2	6339.1	
905.36	6339.1	
905.53	6339.1	
905.69	6339.1	
905.86	6339.1	
906.02	6339.1	
906.18	6339.1	
906.35	6339.1	
906.51	6339.1	
906.68	6339.1	
906.84	6339.1	
907.01	6339.1	
907.17	6339.1	
907.33	6339.1	
907.5	6339.1	
907.66	6339.1	
907.83	6339.1	
907.99	6339.1	
908.15	6339.1	
908.32	6339.1	
908.48	6339.1	
908.65	6339.1	
908.81	6339.1	
908.97	6339.1	
909.14	6339.1	
909.3	6339.1	
909.47	6339.1	
909.63	6339.1	
909.79	6339.1	
909.96	6339.1	
910.12	6339.1	
910.28	6339.1	
910.45	6339.1	
910.61	6339.1	
910.78	6339.1	
910.94	6339.1	
911.1	6339.1	
911.27	6339.1	
911.43	6339.1	
911.59	6339.1	
911.76	6339.1	
911.92	6339.1	
912.08	6339.1	
912.25	6339.1	
912.41	6339.1	
912.57	6339.1	
912.74	6339.1	
912.9	6339.1	
913.07	6339.1	
913.23	6339.1	
913.39	6339.1	
913.56	6339.1	
913.72	6339.1	
913.88	6339.1	
914.05	6339.1	
914.21	6339.1	
914.37	6339.1	
914.54	6339.1	
914.7	6339.1	
914.86	6339.1	
915.03	6339.1	
915.19	6339.1	
