Wavelength	Intensities	
nm	a.u.	
179.22	1917.1	
179.44	1913.8	
179.65	1920.3	
179.86	1907.3	
180.08	1903.9	
180.29	4891.2	
180.51	3472.7	
180.72	5677	
180.94	6651.8	
181.15	3280.2	
181.37	3213.3	
181.58	5518.6	
181.79	5812.8	
182.01	3373	
182.22	3685.7	
182.44	5825.1	
182.65	4833.2	
182.87	4567.7	
183.08	4020.8	
183.29	6107.7	
183.51	4968.4	
183.72	3639.9	
183.94	5289.9	
184.15	5397.1	
184.37	5436	
184.58	3206.4	
184.79	4415.4	
185.01	4982.7	
185.22	5788.2	
185.44	4720.6	
185.65	3928.7	
185.86	5314.5	
186.08	4894	
186.29	3123.8	
186.51	3401	
186.72	5036.6	
186.94	5969.1	
187.15	3877.5	
187.36	3999	
187.58	7747.5	
187.79	5491.3	
188.01	4201.1	
188.22	6590.4	
188.43	6590.4	
188.65	5749.3	
188.86	3336.1	
189.08	4012.7	
189.29	5247.6	
189.5	5212.8	
189.72	3732.1	
189.93	3857	
190.15	5914.5	
190.36	7134.4	
190.57	4137.6	
190.79	3944.4	
191	6090	
191.22	5996.5	
191.43	4098	
191.64	3349.1	
191.86	6268.8	
192.07	5974.6	
192.29	3539.6	
192.5	3756.7	
192.71	5993.7	
192.93	5178.6	
193.14	3758	
193.35	3783.3	
193.57	5198.4	
193.78	5965.1	
194	3025.5	
194.21	3652.2	
194.42	4995	
194.64	5442.8	
194.85	4095.3	
195.07	4780	
195.28	5446.2	
195.49	4745.8	
195.71	4986.1	
195.92	3522.5	
196.13	5579.3	
196.35	5723.4	
196.56	5314.5	
196.78	3987.4	
196.99	7039.6	
197.2	6564.4	
197.42	4599.1	
197.63	4074.8	
197.84	4842.1	
198.06	5641.5	
198.27	3736.2	
198.48	4977.9	
198.7	5191.6	
198.91	5315.2	
199.13	4087.1	
199.34	4091.8	
199.55	5842.9	
199.77	4689.8	
199.98	3591.5	
200.19	4108.2	
200.41	5398.4	
200.62	4986.1	
200.83	4222.2	
201.05	4535.6	
201.26	5357.5	
201.47	5038.7	
201.69	3607.8	
201.9	3493.2	
202.11	5315.8	
202.33	6444.3	
202.54	3861.1	
202.76	4306.9	
202.97	5589.6	
203.18	5572.5	
203.4	4257.7	
203.61	4110.3	
203.82	5500.8	
204.04	5052.3	
204.25	4108.9	
204.46	4007.2	
204.68	5405.3	
204.89	5575.9	
205.1	3980.6	
205.32	3396.2	
205.53	5876.3	
205.74	5952.8	
205.96	2959.3	
206.17	4185.4	
206.38	5763	
206.6	5928.2	
206.81	4638.6	
207.02	3795.6	
207.24	5689.9	
207.45	6137.1	
207.66	3872.7	
207.88	3318.4	
208.09	5618.3	
208.3	5384.8	
208.52	3556.6	
208.73	3882.9	
208.94	5419.6	
209.15	6081.8	
209.37	3906.8	
209.58	4111.6	
209.79	5967.1	
210.01	5237.3	
210.22	3085.6	
210.43	3237.2	
210.65	5415.5	
210.86	5840.1	
211.07	3894.6	
211.29	3575.1	
211.5	5778	
211.71	5350.7	
211.93	3583.9	
212.14	3593.5	
212.35	5348.6	
212.56	5643.5	
212.78	4047.5	
212.99	3299.3	
213.2	6395.8	
213.42	5169.8	
213.63	3673.4	
213.84	3918.4	
214.06	4789.5	
214.27	4883	
214.48	3834.5	
214.69	4132.8	
214.91	6110.5	
215.12	6186.2	
215.33	4256.4	
215.55	4673.5	
215.76	6700.3	
215.97	5775.3	
216.18	4007.2	
216.4	3913	
216.61	5061.2	
216.82	5943.9	
217.04	3530	
217.25	3780.6	
217.46	6069.5	
217.67	5775.3	
217.89	3190.7	
218.1	3315.7	
218.31	5547.9	
218.53	5584.1	
218.74	3766.2	
218.95	3616	
219.16	5330.2	
219.38	6352.8	
219.59	3621.5	
219.8	4337.6	
220.01	7026.6	
220.23	5469.4	
220.44	4732.9	
220.65	3522.5	
220.87	5496.1	
221.08	6041.5	
221.29	3246.7	
221.5	4416.1	
221.72	7431.4	
221.93	5167	
222.14	4143.7	
222.35	4823	
222.57	5443.5	
222.78	5778	
222.99	3835.2	
223.2	4216.1	
223.42	5755.5	
223.63	5865.4	
223.84	3050.1	
224.05	2938.8	
224.27	6967.9	
224.48	6326.2	
224.69	4788.2	
224.9	4136.9	
225.12	5618.9	
225.33	5358.2	
225.54	3193.5	
225.75	3659.7	
225.97	5033.9	
226.18	5300.8	
226.39	3925.3	
226.6	3646.7	
226.82	5174.5	
227.03	5025	
227.24	4060.4	
227.45	3382.6	
227.67	5803.3	
227.88	6457.9	
228.09	4500.8	
228.3	4577.9	
228.52	5825.1	
228.73	5358.2	
228.94	3803.1	
229.15	3322.5	
229.36	5363.6	
229.58	5255.1	
229.79	3828.3	
230	4426.3	
230.21	6496.2	
230.43	5571.2	
230.64	4080.2	
230.85	4240	
231.06	5817.6	
231.28	5874.9	
231.49	3379.8	
231.7	3889.1	
231.91	5790.3	
232.12	5456.5	
232.34	3420.8	
232.55	3972.4	
232.76	6011.5	
232.97	5562.3	
233.18	3599.6	
233.4	4054.3	
233.61	5649	
233.82	5181.4	
234.03	3728	
234.25	3734.8	
234.46	7552.9	
234.67	5500.2	
234.88	4175.8	
235.09	3576.4	
235.31	5731.6	
235.52	5324.7	
235.73	4085.7	
235.94	3435.1	
236.15	5195.7	
236.37	6626.5	
236.58	3579.8	
236.79	3824.2	
237	5747.3	
237.21	4947.9	
237.43	4224.3	
237.64	3310.9	
237.85	9897.2	
238.06	4988.2	
238.27	4258.4	
238.48	3381.9	
238.7	5788.9	
238.91	5253.7	
239.12	3861.1	
239.33	3914.4	
239.54	5032.5	
239.76	5345.9	
239.97	3826.3	
240.18	3906.2	
240.39	6773.3	
240.6	5794.4	
240.82	4127.3	
241.03	3336.8	
241.24	5466	
241.45	6220.4	
241.66	3579.2	
241.87	4229.7	
242.09	6210.8	
242.3	6551.5	
242.51	4274.8	
242.72	3917.8	
242.93	5940.5	
243.14	5418.2	
243.36	4507.6	
243.57	4820.9	
243.78	6365.8	
243.99	5801.2	
244.2	3932.1	
244.41	3528	
244.63	4984.1	
244.84	5810.8	
245.05	4180.6	
245.26	3849.5	
245.47	5740.5	
245.68	6033.3	
245.9	5255.1	
246.11	4113	
246.32	5266	
246.53	5689.9	
246.74	6346.7	
246.95	3285.6	
247.16	4859.8	
247.38	5414.8	
247.59	3237.8	
247.8	3951.2	
248.01	5091.3	
248.22	5294.7	
248.43	3530.7	
248.64	3812.6	
248.86	4820.9	
249.07	5218.2	
249.28	3455.6	
249.49	4012	
249.7	5972.6	
249.91	6118.6	
250.12	3218.7	
250.34	3346.4	
250.55	5526.1	
250.76	5393.7	
250.97	4035.9	
251.18	4138.3	
251.39	6121.4	
251.6	5631.2	
251.81	4092.5	
252.03	4083.6	
252.24	5158.8	
252.45	5944.6	
252.66	3402.4	
252.87	4307.6	
253.08	5466.7	
253.29	7158.3	
253.5	3411.2	
253.72	4739.7	
253.93	5341.8	
254.14	6494.8	
254.35	3677.5	
254.56	3866.6	
254.77	5707	
254.98	4999.8	
255.19	3664.5	
255.41	4721.3	
255.62	5524.1	
255.83	6166.4	
256.04	4158.7	
256.25	4182	
256.46	6632.7	
256.67	5117.9	
256.88	4027	
257.09	4533.5	
257.31	5085.1	
257.52	5163.6	
257.73	5092.6	
257.94	3736.2	
258.15	5212.8	
258.36	5465.3	
258.57	4729.4	
258.78	2934.1	
258.99	5955.5	
259.2	5270.8	
259.41	3739.6	
259.63	3831.1	
259.84	6235.4	
260.05	6720.1	
260.26	4927.4	
260.47	3642	
260.68	6059.3	
260.89	5396.4	
261.1	4483.7	
261.31	3545	
261.52	6021.7	
261.73	6413.6	
261.95	4829.1	
262.16	4242.7	
262.37	6123.4	
262.58	6277	
262.79	4807.9	
263	3826.3	
263.21	5440.1	
263.42	4939.7	
263.63	3879.5	
263.84	3747.8	
264.05	5982.1	
264.26	6366.5	
264.47	4667.3	
264.69	4201.7	
264.9	6186.2	
265.11	5642.2	
265.32	3603.1	
265.53	3648.8	
265.74	5530.9	
265.95	4794.3	
266.16	4002.4	
266.37	4397.7	
266.58	5567.1	
266.79	5270.8	
267	3657.7	
267.21	3383.9	
267.42	4964.3	
267.63	5378	
267.84	3931.4	
268.06	3310.2	
268.27	5834.7	
268.48	6126.2	
268.69	3827.7	
268.9	4550.6	
269.11	6109.1	
269.32	4853.7	
269.53	3913	
269.74	3610.6	
269.95	5732.3	
270.16	4737	
270.37	3871.3	
270.58	4507.6	
270.79	5289.2	
271	5988.9	
271.21	4185.4	
271.42	3969.6	
271.63	5591.6	
271.84	5079	
272.05	3158	
272.26	3579.2	
272.47	5440.1	
272.68	5687.2	
272.89	3775.8	
273.11	4354	
273.32	5205.9	
273.53	6361.7	
273.74	4244.8	
273.95	4151.9	
274.16	6063.4	
274.37	5456.5	
274.58	4302.1	
274.79	3418.1	
275	5618.3	
275.21	6155.5	
275.42	5175.2	
275.63	4384.7	
275.84	5705.6	
276.05	7197.2	
276.26	4141.7	
276.47	3869.3	
276.68	5281	
276.89	6451.1	
277.1	4396.3	
277.31	3484.3	
277.52	5684.5	
277.73	5870.2	
277.94	3425.6	
278.15	3748.5	
278.36	5629.2	
278.57	5049.6	
278.78	3650.8	
278.99	4228.4	
279.2	5101.5	
279.41	4957.4	
279.62	4964.3	
279.83	3531.4	
280.04	6665.5	
280.25	4952.7	
280.46	4922	
280.67	3847.5	
280.88	5071.5	
281.09	6068.1	
281.3	4147.8	
281.51	5216.9	
281.72	5175.2	
281.93	5952.8	
282.14	3635.1	
282.35	3986.7	
282.56	5941.8	
282.77	5929.6	
282.98	3787.4	
283.19	4610	
283.4	7252.5	
283.61	5375.2	
283.82	3423.5	
284.03	4859.1	
284.24	5585.5	
284.45	6113.2	
284.66	4871.4	
284.87	4695.3	
285.08	6055.2	
285.29	6198.5	
285.5	3330	
285.71	3859.7	
285.92	6144.6	
286.12	6703	
286.33	4823	
286.54	3803.8	
286.75	5954.1	
286.96	5287.2	
287.17	3482.9	
287.38	4775.9	
287.59	5027.8	
287.8	5033.2	
288.01	3878.2	
288.22	4425.7	
288.43	5897.5	
288.64	4969.1	
288.85	4524.6	
289.06	4358.1	
289.27	5863.3	
289.48	6413.6	
289.69	4926	
289.9	4371.7	
290.11	6130.9	
290.32	5134.9	
290.53	4626.4	
290.74	4244.8	
290.94	5845.6	
291.15	5945.3	
291.36	3653.6	
291.57	4381.3	
291.78	5164.3	
291.99	4848.9	
292.2	3585.3	
292.41	4335.5	
292.62	5977.3	
292.83	5800.5	
293.04	5323.4	
293.25	3576.4	
293.46	5283.8	
293.67	5995.8	
293.88	3671.3	
294.09	3538.9	
294.29	4957.4	
294.5	5556.1	
294.71	3929.4	
294.92	3747.1	
295.13	5203.9	
295.34	6564.4	
295.55	3278.8	
295.76	3427.6	
295.97	5864.7	
296.18	6663.4	
296.39	3425.6	
296.6	3710.2	
296.81	5563	
297.01	5872.9	
297.22	3876.1	
297.43	3599	
297.64	5057.8	
297.85	5010.7	
298.06	3054.2	
298.27	3305.4	
298.48	5451	
298.69	5173.2	
298.9	3940.3	
299.11	3541.6	
299.31	4961.5	
299.52	4967.7	
299.73	4208.6	
299.94	4164.2	
300.15	5446.9	
300.36	5102.9	
300.57	4207.9	
300.78	4138.9	
300.99	5315.8	
301.2	5517.9	
301.4	3672.7	
301.61	4051.6	
301.82	5767.8	
302.03	5866.7	
302.24	4459.1	
302.45	3538.9	
302.66	5703.6	
302.87	6206	
303.08	3683.6	
303.29	5038	
303.49	5177.3	
303.7	5547.9	
303.91	3253.5	
304.12	4797	
304.33	4927.4	
304.54	5569.8	
304.75	3751.2	
304.96	3498.6	
305.16	5814.9	
305.37	6512.5	
305.58	3231	
305.79	3346.4	
306	5728.2	
306.21	4850.3	
306.42	3680.2	
306.63	5621	
306.83	5330.2	
307.04	6097.5	
307.25	4063.9	
307.46	4066.6	
307.67	4620.9	
307.88	5972.6	
308.09	3618.8	
308.29	3760.1	
308.5	5557.5	
308.71	6044.2	
308.92	3891.1	
309.13	3542.3	
309.34	5406	
309.55	5389.6	
309.75	4609.3	
309.96	4160.8	
310.17	5908.4	
310.38	5135.6	
310.59	4416.1	
310.8	4117.1	
311.01	6596.5	
311.21	5244.2	
311.42	3480.2	
311.63	3619.4	
311.84	5173.9	
312.05	5594.4	
312.26	4044.1	
312.46	4558.1	
312.67	5277.6	
312.88	4990.9	
313.09	3528	
313.3	3468.6	
313.51	6186.9	
313.71	6723.5	
313.92	3515	
314.13	3789.4	
314.34	5614.2	
314.55	5295.4	
314.76	4593.6	
314.96	4016.1	
315.17	5517.9	
315.38	5842.9	
315.59	3524.6	
315.8	3443.3	
316.01	6296.8	
316.21	6367.1	
316.42	3419.4	
316.63	3922.5	
316.84	5270.8	
317.05	6174.6	
317.26	4194.2	
317.46	3773.7	
317.67	5435.3	
317.88	5851	
318.09	4478.2	
318.3	3310.2	
318.5	5117.2	
318.71	5770.5	
318.92	5793.7	
319.13	4163.5	
319.34	5926.8	
319.54	6178.7	
319.75	3321.1	
319.96	3192.8	
320.17	5816.9	
320.38	6075	
320.58	3267.2	
320.79	3910.3	
321	5971.9	
321.21	6218.3	
321.42	3934.8	
321.62	3244	
321.83	5017.5	
322.04	5484.5	
322.25	3749.8	
322.46	3597.6	
322.66	5592.3	
322.87	5731.6	
323.08	4442	
323.29	3512.3	
323.5	6511.9	
323.7	5043.5	
323.91	4836.6	
324.12	4365.6	
324.33	5526.8	
324.53	5751.4	
324.74	4146.5	
324.95	4412	
325.16	4881	
325.37	5305.6	
325.57	3632.4	
325.78	3594.2	
325.99	5513.8	
326.2	4934.2	
326.4	5212.8	
326.61	3288.4	
326.82	5355.4	
327.03	5582.8	
327.24	5070.1	
327.44	4832.5	
327.65	5683.8	
327.86	4602.5	
328.07	4179.9	
328.27	3429.7	
328.48	6142.5	
328.69	5035.3	
328.9	5147.9	
329.1	3838.6	
329.31	5380	
329.52	6315.9	
329.73	3532.1	
329.93	3994.2	
330.14	5427.8	
330.35	5673.6	
330.56	5858.6	
330.76	4392.9	
330.97	5280.3	
331.18	5630.5	
331.39	3992.2	
331.59	3200.3	
331.8	6074.3	
332.01	6098.9	
332.22	3652.9	
332.42	4194.9	
332.63	5586.2	
332.84	5180	
333.05	3958	
333.25	3661.8	
333.46	5213.4	
333.67	5478.3	
333.88	3717.7	
334.08	4149.9	
334.29	7287.4	
334.5	6135	
334.7	3480.9	
334.91	5096.7	
335.12	5010	
335.33	5901.6	
335.53	3938.9	
335.74	5900.2	
335.95	5180.7	
336.16	5119.2	
336.36	3987.4	
336.57	4550.6	
336.78	4943.1	
336.98	6002.6	
337.19	4870.8	
337.4	3912.3	
337.61	6665.5	
337.81	4988.9	
338.02	3579.2	
338.23	4758.8	
338.43	6166.4	
338.64	5102.9	
338.85	3556.6	
339.05	4724	
339.26	6357.6	
339.47	4920.6	
339.68	3603.1	
339.88	5378	
340.09	5683.1	
340.3	5966.4	
340.5	4204.5	
340.71	3168.9	
340.92	4953.4	
341.13	6223.8	
341.33	3428.3	
341.54	4222.2	
341.75	5705.6	
341.95	5299.5	
342.16	4049.5	
342.37	4351.9	
342.57	5021.6	
342.78	5410.7	
342.99	4444.1	
343.19	3161.4	
343.4	5909.1	
343.61	5730.9	
343.81	3800.3	
344.02	3506.8	
344.23	5875.6	
344.43	6339.1	
344.64	4483.7	
344.85	4332.1	
345.06	5699.5	
345.26	6148	
345.47	4128	
345.68	4813.4	
345.88	4828.4	
346.09	5956.2	
346.3	4223.6	
346.5	3182.5	
346.71	5469.4	
346.92	5150.6	
347.12	3241.3	
347.33	4126	
347.54	5972.6	
347.74	6429.9	
347.95	4095.3	
348.16	3050.8	
348.36	5276.3	
348.57	5034.6	
348.78	4051.6	
348.98	4403.8	
349.19	5441.5	
349.39	4887.1	
349.6	3334.8	
349.81	3661.1	
350.01	5728.9	
350.22	5158.2	
350.43	3934.8	
350.63	4740.4	
350.84	5549.3	
351.05	5297.4	
351.25	3590.1	
351.46	3249.4	
351.67	6001.2	
351.87	5162.9	
352.08	3895.2	
352.29	4442	
352.49	5945.9	
352.7	5612.1	
352.9	3508.9	
353.11	4405.2	
353.32	6618.4	
353.52	5245.5	
353.73	3435.1	
353.94	4354	
354.14	5758.2	
354.35	5597.1	
354.55	3561.4	
354.76	3962.1	
354.97	5688.6	
355.17	5476.3	
355.38	3354.6	
355.59	4665.3	
355.79	5185.5	
356	5547.3	
356.2	3897.3	
356.41	3413.3	
356.62	4904.9	
356.82	5407.3	
357.03	4246.8	
357.24	3839.9	
357.44	5204.6	
357.65	5256.5	
357.85	5017.5	
358.06	3971.7	
358.27	4866	
358.47	5059.2	
358.68	3256.3	
358.88	4192.9	
359.09	5707	
359.3	6141.2	
359.5	4921.3	
359.71	4335.5	
359.91	6508.4	
360.12	5898.8	
360.33	4216.1	
360.53	4603.8	
360.74	5124.7	
360.94	5130.2	
361.15	4375.1	
361.36	3619.4	
361.56	6012.8	
361.77	5314.5	
361.97	4901.5	
362.18	3900.7	
362.38	5956.9	
362.59	5048.2	
362.8	3526.6	
363	3416.7	
363.21	4854.4	
363.41	5494.7	
363.62	4056.3	
363.83	5132.9	
364.03	5599.8	
364.24	6541.9	
364.44	5267.4	
364.65	5203.9	
364.85	5370.5	
365.06	5210	
365.27	3747.1	
365.47	3784	
365.68	6333	
365.88	5300.1	
366.09	4089.1	
366.29	3871.3	
366.5	5585.5	
366.71	6026.5	
366.91	5163.6	
367.12	4298	
367.32	6565.8	
367.53	5841.5	
367.73	4195.6	
367.94	5229.8	
368.14	5814.9	
368.35	6738.5	
368.56	4183.3	
368.76	4015.4	
368.97	5992.4	
369.17	7587	
369.38	3750.5	
369.58	3997	
369.79	4929.5	
369.99	6264.7	
370.2	5043.5	
370.4	4120.5	
370.61	5677	
370.82	6860.7	
371.02	3988.8	
371.23	3323.2	
371.43	4891.2	
371.64	6270.2	
371.84	4070.7	
372.05	5266.7	
372.25	7550.9	
372.46	5978	
372.66	4067.9	
372.87	3999.7	
373.07	5965.1	
373.28	7692.9	
373.48	5125.4	
373.69	4720.6	
373.9	5489.9	
374.1	5492	
374.31	5007.3	
374.51	4558.1	
374.72	6318.7	
374.92	5185.5	
375.13	5142.4	
375.33	4345.8	
375.54	5890.6	
375.74	5315.8	
375.95	4403.1	
376.15	5668.8	
376.36	5849.7	
376.56	5735.7	
376.77	4534.9	
376.97	4980.7	
377.18	6925.5	
377.38	6043.6	
377.59	5266.7	
377.79	3990.8	
378	5709.1	
378.2	6250.4	
378.41	4049.5	
378.61	4020.8	
378.82	6253.8	
379.02	5365.7	
379.23	4227	
379.43	5327.4	
379.64	6389.7	
379.84	5952.1	
380.05	4111.6	
380.25	4008.6	
380.46	6086.6	
380.66	5683.8	
380.87	5345.9	
381.07	5760.3	
381.28	6649.8	
381.48	6109.1	
381.69	4095.3	
381.89	4118.5	
382.1	5041.4	
382.3	6251.1	
382.51	5172.5	
382.71	6191.7	
382.91	6061.3	
383.12	6579.4	
383.32	4405.2	
383.53	4616.1	
383.73	5898.8	
383.94	5696.8	
384.14	4581.3	
384.35	3728.7	
384.55	5615.5	
384.76	6077.7	
384.96	4448.2	
385.17	4724	
385.37	6073.6	
385.58	5312.4	
385.78	4747.2	
385.98	3651.5	
386.19	5561.6	
386.39	5930.2	
386.6	4209.3	
386.8	4493.9	
387.01	6064	
387.21	6068.8	
387.42	4911	
387.62	5428.5	
387.83	5337.7	
388.03	6038.8	
388.23	4506.9	
388.44	5313.8	
388.64	5161.6	
388.85	5211.4	
389.05	4813.4	
389.26	5398.4	
389.46	7161.1	
389.67	6485.9	
389.87	4791.6	
390.07	4896	
390.28	5702.2	
390.48	5380	
390.69	4088.4	
390.89	4390.2	
391.1	5509.7	
391.3	6472.9	
391.5	5597.1	
391.71	6237.4	
391.91	6162.3	
392.12	7191.1	
392.32	5711.8	
392.53	4889.2	
392.73	5496.1	
392.93	5784.8	
393.14	4573.1	
393.34	5337.7	
393.55	6163.7	
393.75	5776.6	
393.95	4582.7	
394.16	4500.8	
394.36	5532.9	
394.57	6231.3	
394.77	4002.4	
394.98	4504.2	
395.18	5479	
395.38	5655.8	
395.59	5376.6	
395.79	4274.1	
396	5621.7	
396.2	6167.8	
396.4	5111	
396.61	5013.4	
396.81	6294.1	
397.02	5603.2	
397.22	5422.3	
397.42	5464.7	
397.63	6385.6	
397.83	5502.9	
398.04	4241.3	
398.24	4831.2	
398.44	6085.9	
398.65	5096.7	
398.85	4101.4	
399.05	4218.8	
399.26	5511.8	
399.46	7223.9	
399.67	4623.6	
399.87	4345.8	
400.07	5812.1	
400.28	6217.6	
400.48	4477.5	
400.69	5534.3	
400.89	6414.9	
401.09	6915.3	
401.3	4310.3	
401.5	5509.7	
401.7	7159	
401.91	7443.7	
402.11	4648.2	
402.32	4930.8	
402.52	6451.1	
402.72	6402.6	
402.93	5102.9	
403.13	3961.5	
403.33	7248.4	
403.54	5907.7	
403.74	4848.9	
403.94	5704.3	
404.15	5986.2	
404.35	7229.3	
404.56	4582	
404.76	6473.6	
404.96	6506.4	
405.17	6262	
405.37	5900.9	
405.57	5104.2	
405.78	6490.7	
405.98	5913.9	
406.18	4618.9	
406.39	5588.9	
406.59	6466.1	
406.79	6100.9	
407	4440.7	
407.2	4516.5	
407.4	6549.4	
407.61	6721.4	
407.81	4604.5	
408.01	6978.8	
408.22	5605.3	
408.42	7612.3	
408.62	5711.1	
408.83	5185.5	
409.03	6133	
409.23	6005.3	
409.44	5272.8	
409.64	5570.5	
409.84	7159	
410.05	7021.8	
410.25	5437.4	
410.45	5105.6	
410.66	6542.6	
410.86	9041.8	
411.06	5688.6	
411.27	5559.6	
411.47	8818.6	
411.67	6752.8	
411.88	5750	
412.08	6006.7	
412.28	7361.8	
412.49	7928.4	
412.69	5466	
412.89	5567.7	
413.09	7773.4	
413.3	7580.2	
413.5	5700.9	
413.7	5227.8	
413.91	6780.1	
414.11	7726.3	
414.31	5438	
414.52	5971.9	
414.72	7421.2	
414.92	7266.9	
415.12	5498.8	
415.33	5969.8	
415.53	7676.5	
415.73	7914	
415.94	6399.2	
416.14	5756.8	
416.34	6640.9	
416.55	6431.3	
416.75	7070.3	
416.95	6472.9	
417.15	7698.3	
417.36	8401.5	
417.56	7231.4	
417.76	6288.6	
417.97	8120.2	
418.17	7783	
418.37	5877	
418.57	5921.4	
418.78	7468.9	
418.98	7189.1	
419.18	6859.3	
419.38	6808.1	
419.59	7299.6	
419.79	6853.2	
419.99	5797.1	
420.2	6266.8	
420.4	7830.7	
420.6	8002.8	
420.8	5716.6	
421.01	5617.6	
421.21	7613	
421.41	7808.2	
421.61	6135	
421.82	5780.7	
422.02	7093.5	
422.22	8078.6	
422.42	6688	
422.63	6243.6	
422.83	7259.4	
423.03	8452	
423.23	6348	
423.44	5233.2	
423.64	7303.1	
423.84	7010.9	
424.04	5737.7	
424.25	5329.5	
424.45	8220.5	
424.65	8092.9	
424.85	5204.6	
425.06	5713.2	
425.26	8163.9	
425.46	7185.6	
425.66	6242.9	
425.87	5927.5	
426.07	7925.6	
426.27	7783.6	
426.47	6074.3	
426.67	5459.9	
426.88	8288.1	
427.08	7777.5	
427.28	6352.8	
427.48	5335	
427.69	6614.3	
427.89	7273	
428.09	6273.6	
428.29	5425.8	
428.5	8034.2	
428.7	7498.3	
428.9	5398.4	
429.1	5920.7	
429.3	7467.6	
429.51	7888.1	
429.71	5623.7	
429.91	6511.9	
430.11	7774.8	
430.31	8006.2	
430.52	6010.8	
430.72	6294.1	
430.92	8285.4	
431.12	7803.4	
431.32	5698.8	
431.53	6077	
431.73	6595.1	
431.93	8460.2	
432.13	5584.8	
432.33	5431.9	
432.54	7178.1	
432.74	7591.8	
432.94	5379.3	
433.14	6498.2	
433.34	7681.9	
433.55	7269.6	
433.75	6376	
433.95	8275.8	
434.15	7493.5	
434.35	7182.9	
434.56	5636	
434.76	5145.2	
434.96	7503.1	
435.16	7776.8	
435.36	5507	
435.56	6647.7	
435.77	7193.1	
435.97	7335.1	
436.17	7383.6	
436.37	6611.5	
436.57	7187	
436.78	7123.5	
436.98	8374.1	
437.18	7232.1	
437.38	7909.9	
437.58	7404.1	
437.78	7339.9	
437.99	5901.6	
438.19	7935.2	
438.39	9414.5	
438.59	5829.2	
438.79	5394.3	
438.99	8470.4	
439.2	7376.1	
439.4	5530.9	
439.6	5470.8	
439.8	7743.4	
440	8847.2	
440.2	6539.8	
440.4	6789	
440.61	8133.2	
440.81	8708	
441.01	5762.3	
441.21	6674.3	
441.41	8591.9	
441.61	8243.1	
441.81	7014.3	
442.02	8079.2	
442.22	9072.5	
442.42	8249.2	
442.62	5845.6	
442.82	5967.8	
443.02	8628.8	
443.22	7694.9	
443.43	6378.7	
443.63	5936.4	
443.83	7559.7	
444.03	7533.8	
444.23	7079.8	
444.43	6779.5	
444.63	7852.6	
444.83	9096.4	
445.04	6018.3	
445.24	7316.7	
445.44	8221.2	
445.64	8348.9	
445.84	6831.3	
446.04	6789	
446.24	7557.7	
446.44	8588.5	
446.65	6009.4	
446.85	6411.5	
447.05	7967.3	
447.25	8594.6	
447.45	6377.4	
447.65	5831.9	
447.85	7946.8	
448.05	7599.3	
448.25	6982.2	
448.46	6707.1	
448.66	7835.5	
448.86	7639.6	
449.06	5713.2	
449.26	6908.5	
449.46	8269	
449.66	7308.5	
449.86	6395.1	
450.06	6406.7	
450.26	7463.5	
450.47	8070.4	
450.67	6661.4	
450.87	7063.4	
451.07	8140	
451.27	7977.5	
451.47	5984.8	
451.67	6565.1	
451.87	7605.5	
452.07	8772.8	
452.27	6203.3	
452.47	6214.2	
452.67	7975.5	
452.88	8534.6	
453.08	5489.2	
453.28	7639.6	
453.48	9152.4	
453.68	7894.2	
453.88	6126.8	
454.08	6441.5	
454.28	8319.5	
454.48	7975.5	
454.68	6959.7	
454.88	7428	
455.08	8428.1	
455.28	8196	
455.48	5998.5	
455.68	6669.6	
455.89	8968.7	
456.09	8610.3	
456.29	6388.3	
456.49	6500.9	
456.69	8837.7	
456.89	8357.8	
457.09	7005.4	
457.29	7531.7	
457.49	8484.7	
457.69	8577.6	
457.89	6945.3	
458.09	6246.3	
458.29	8283.4	
458.49	8985.8	
458.69	7354.9	
458.89	6696.2	
459.09	9354.4	
459.29	9396.8	
459.49	6819.1	
459.69	7593.9	
459.9	8818.6	
460.1	8314.8	
460.3	6691.4	
460.5	6524.1	
460.7	8717.5	
460.9	8466.3	
461.1	6234	
461.3	7524.2	
461.5	9413.8	
461.7	9142.8	
461.9	6673.6	
462.1	7058	
462.3	8620.6	
462.5	9149.6	
462.7	6765.8	
462.9	6892.1	
463.1	10189	
463.3	9882.8	
463.5	6971.3	
463.7	8064.2	
463.9	8799.4	
464.1	9217.9	
464.3	7311.2	
464.5	7514	
464.7	9518.3	
464.9	9172.2	
465.1	8801.5	
465.3	7908.6	
465.5	9941.5	
465.7	9865.7	
465.9	8195.3	
466.1	7918.1	
466.3	9727.2	
466.5	9437.7	
466.7	8889.5	
466.9	7725.6	
467.1	9418.6	
467.3	10436	
467.5	8929.8	
467.7	7777.5	
467.9	10654	
468.1	11586	
468.3	8505.2	
468.5	8989.9	
468.7	9476	
468.9	9482.1	
469.1	7958.4	
469.3	8806.9	
469.5	11535	
469.7	9080	
469.9	8429.4	
470.1	7815.7	
470.3	9476	
470.5	9437.7	
470.7	9055.4	
470.9	7836.9	
471.1	9260.2	
471.3	9658.2	
471.5	7669	
471.69	9650	
471.89	9091.6	
472.09	8667	
472.29	8473.1	
472.49	8857.5	
472.69	8841.8	
472.89	9725.8	
473.09	7508.5	
473.29	7677.2	
473.49	9038.4	
473.69	9110	
473.89	8680	
474.09	7842.4	
474.29	10451	
474.49	10107	
474.69	8615.8	
474.89	7995.3	
475.09	9204.9	
475.29	9109.4	
475.49	7376.8	
475.69	7625.3	
475.88	10842	
476.08	9509.4	
476.28	7228	
476.48	7777.5	
476.68	9851.4	
476.88	9781.8	
477.08	7593.9	
477.28	7903.8	
477.48	9205.6	
477.68	9955.2	
477.88	7387.7	
478.08	7835.5	
478.28	10285	
478.48	9379.7	
478.67	7896.3	
478.87	7189.1	
479.07	10173	
479.27	9413.8	
479.47	7885.4	
479.67	8006.2	
479.87	9845.3	
480.07	10371	
480.27	7238.2	
480.47	9011.7	
480.67	9446.6	
480.87	10236	
481.06	7503.1	
481.26	8401.5	
481.46	9425.4	
481.66	9339.4	
481.86	8020.5	
482.06	9135.3	
482.26	9123	
482.46	10237	
482.66	7978.2	
482.86	7575.4	
483.05	9529.9	
483.25	8903.9	
483.45	10484	
483.65	7991.2	
483.85	9161.2	
484.05	9514.9	
484.25	8406.2	
484.45	8957.8	
484.65	10368	
484.84	10374	
485.04	7965.2	
485.24	7935.9	
485.44	10608	
485.64	8982.4	
485.84	7212.3	
486.04	8742.8	
486.24	9291	
486.44	9742.2	
486.63	7232.1	
486.83	8044.4	
487.03	9240.4	
487.23	9540.1	
487.43	7386.3	
487.63	9839.1	
487.83	9577.7	
488.02	10652	
488.22	8425.3	
488.42	9043.1	
488.62	10479	
488.82	9389.9	
489.02	7980.3	
489.22	8158.4	
489.41	10331	
489.61	9895.8	
489.81	7793.2	
490.01	7881.9	
490.21	10237	
490.41	10849	
490.61	7677.8	
490.8	7902.4	
491	9736.7	
491.2	8948.9	
491.4	8456.7	
491.6	7570.7	
491.8	9677.3	
491.99	9835	
492.19	7499.7	
492.39	7862.8	
492.59	10310	
492.79	10382	
492.99	8830.8	
493.18	7897	
493.38	10473	
493.58	11178	
493.78	8601.5	
493.98	8305.9	
494.18	10241	
494.37	9649.3	
494.57	9009.7	
494.77	8804.2	
494.97	10507	
495.17	10782	
495.37	8402.8	
495.56	8719.6	
495.76	10987	
495.96	10552	
496.16	9718.3	
496.36	8563.9	
496.55	10770	
496.75	10330	
496.95	8940.1	
497.15	8867.7	
497.35	10803	
497.54	10774	
497.74	8660.2	
497.94	10510	
498.14	11467	
498.34	11340	
498.53	8454.7	
498.73	9215.2	
498.93	10200	
499.13	10867	
499.33	9079.3	
499.52	9588.6	
499.72	10800	
499.92	11019	
500.12	8679.3	
500.32	9025.4	
500.51	11067	
500.71	10907	
500.91	9899.2	
501.11	9414.5	
501.31	10990	
501.5	11437	
501.7	10075	
501.9	8940.1	
502.1	10729	
502.29	11091	
502.49	9377	
502.69	9884.2	
502.89	10975	
503.09	10939	
503.28	8459.5	
503.48	8518.9	
503.68	10099	
503.88	10100	
504.07	9540.1	
504.27	9022.7	
504.47	10523	
504.67	10641	
504.86	9445.2	
505.06	9111.4	
505.26	10140	
505.46	12005	
505.65	8973.5	
505.85	9170.8	
506.05	10050	
506.25	10576	
506.44	8218.5	
506.64	9245.2	
506.84	9983.8	
507.04	10847	
507.23	8413.1	
507.43	8996.7	
507.63	11960	
507.83	10147	
508.02	8967.4	
508.22	8538.7	
508.42	12232	
508.62	9932.6	
508.81	8932.6	
509.01	9459.6	
509.21	9745.6	
509.4	10036	
509.6	9133.3	
509.8	8379.6	
510	10056	
510.19	11564	
510.39	8379.6	
510.59	8523	
510.79	9871.9	
510.98	11253	
511.18	8504.5	
511.38	8690.9	
511.57	10656	
511.77	10603	
511.97	9295	
512.17	8324.3	
512.36	10602	
512.56	10655	
512.76	8361.9	
512.95	8044.4	
513.15	10692	
513.35	9384.5	
513.55	9205.6	
513.74	8469.7	
513.94	10795	
514.14	10116	
514.33	9488.2	
514.53	9024	
514.73	10115	
514.92	10303	
515.12	8617.2	
515.32	8361.2	
515.51	10469	
515.71	10884	
515.91	10133	
516.11	8478.6	
516.3	12218	
516.5	10057	
516.7	9062.3	
516.89	9659.6	
517.09	10193	
517.29	9992	
517.48	9409.7	
517.68	8746.2	
517.88	9858.2	
518.07	10467	
518.27	9297.1	
518.47	8292.2	
518.66	11125	
518.86	9723.1	
519.06	8187.8	
519.25	8609.7	
519.45	10112	
519.65	11647	
519.84	9241.8	
520.04	9911.5	
520.24	11955	
520.43	10632	
520.63	8944.2	
520.83	8682.7	
521.02	9829.6	
521.22	10551	
521.42	9235.7	
521.61	9814.5	
521.81	10046	
522.01	10205	
522.2	9067	
522.4	8960.5	
522.6	10817	
522.79	9575.6	
522.99	9070.5	
523.18	8331.8	
523.38	10602	
523.58	10526	
523.77	10342	
523.97	8359.1	
524.17	12519	
524.36	11814	
524.56	9802.9	
524.76	9374.9	
524.95	10722	
525.15	10373	
525.34	9181	
525.54	9270.5	
525.74	11020	
525.93	10071	
526.13	10395	
526.33	9224.1	
526.52	11441	
526.72	10849	
526.91	10473	
527.11	9756.5	
527.31	11477	
527.5	11930	
527.7	9617.3	
527.89	8672.5	
528.09	10445	
528.29	11064	
528.48	9993.4	
528.68	9708.1	
528.87	11398	
529.07	11365	
529.27	9487.6	
529.46	9011.1	
529.66	10978	
529.85	11381	
530.05	8708.6	
530.25	9648.7	
530.44	12369	
530.64	10998	
530.83	9330.5	
531.03	9613.2	
531.23	11467	
531.42	11232	
531.62	10473	
531.81	9576.3	
532.01	11635	
532.21	12099	
532.4	9432.9	
532.6	9762.7	
532.79	12599	
532.99	11595	
533.18	9837.1	
533.38	10882	
533.58	11228	
533.77	11985	
533.97	9900.6	
534.16	10589	
534.36	12273	
534.55	11133	
534.75	10789	
534.95	9857.6	
535.14	12047	
535.34	11290	
535.53	9602.2	
535.73	11568	
535.92	12538	
536.12	11346	
536.31	9607.7	
536.51	10833	
536.71	11632	
536.9	11308	
537.1	9774.3	
537.29	9869.8	
537.49	12172	
537.68	11155	
537.88	10335	
538.07	9508	
538.27	11323	
538.46	12630	
538.66	9505.3	
538.86	9896.5	
539.05	11509	
539.25	11871	
539.44	10144	
539.64	9732.6	
539.83	11275	
540.03	12316	
540.22	9624.8	
540.42	9688.3	
540.61	11496	
540.81	11611	
541	10146	
541.2	10814	
541.39	11083	
541.59	11471	
541.78	10428	
541.98	9564.7	
542.18	10728	
542.37	10673	
542.57	9878	
542.76	10343	
542.96	10675	
543.15	11508	
543.35	9879.4	
543.54	9197.4	
543.74	11690	
543.93	11170	
544.13	9790.7	
544.32	10939	
544.52	11622	
544.71	10753	
544.91	8893	
545.1	10111	
545.3	10797	
545.49	11492	
545.69	8800.1	
545.88	9463	
546.08	12340	
546.27	11941	
546.47	10065	
546.66	9133.3	
546.86	11629	
547.05	12308	
547.24	9478	
547.44	9386.5	
547.63	10512	
547.83	11789	
548.02	9706	
548.22	9893.1	
548.41	10277	
548.61	11611	
548.8	9229.5	
549	9105.3	
549.19	10976	
549.39	11282	
549.58	8845.2	
549.78	9432.9	
549.97	11370	
550.17	10807	
550.36	10349	
550.55	11344	
550.75	10876	
550.94	11695	
551.14	9024	
551.33	9335.3	
551.53	10128	
551.72	11254	
551.92	9490.3	
552.11	9276.6	
552.31	11190	
552.5	11278	
552.69	10852	
552.89	8800.8	
553.08	11168	
553.28	10857	
553.47	9342.8	
553.67	10430	
553.86	11761	
554.06	10002	
554.25	8344.1	
554.44	8991.9	
554.64	12479	
554.83	12052	
555.03	8937.3	
555.22	9355.8	
555.42	11273	
555.61	10942	
555.8	9153.7	
556	9383.1	
556.19	10062	
556.39	11468	
556.58	9164.7	
556.78	9139.4	
556.97	10890	
557.16	10657	
557.36	10404	
557.55	8808.3	
557.75	9943.6	
557.94	11728	
558.13	8860.9	
558.33	8562.6	
558.52	11536	
558.72	10258	
558.91	8718.9	
559.1	8973.5	
559.3	9977.7	
559.49	9667.8	
559.69	8311.3	
559.88	9312.8	
560.07	10858	
560.27	11213	
560.46	9469.8	
560.66	9562.6	
560.85	10617	
561.04	9755.2	
561.24	8726.4	
561.43	8888.2	
561.63	10010	
561.82	10233	
562.01	10123	
562.21	9216.5	
562.4	10769	
562.59	11755	
562.79	9043.8	
562.98	8617.9	
563.18	10717	
563.37	12246	
563.56	9507.4	
563.76	8641.7	
563.95	10083	
564.14	10018	
564.34	9114.8	
564.53	8834.9	
564.73	10701	
564.92	11002	
565.11	9268.4	
565.31	8424	
565.5	11205	
565.69	10171	
565.89	8764.6	
566.08	9090.9	
566.27	11240	
566.47	11575	
566.66	9809.8	
566.85	8295	
567.05	10735	
567.24	10088	
567.44	8704.5	
567.63	10160	
567.82	10953	
568.02	10612	
568.21	8747.6	
568.4	9155.1	
568.6	10568	
568.79	10662	
568.98	8464.3	
569.18	8745.5	
569.37	10572	
569.56	12648	
569.76	9127.8	
569.95	10062	
570.14	11006	
570.34	10758	
570.53	8613.1	
570.72	8578.3	
570.91	11354	
571.11	10446	
571.3	8972.8	
571.49	9985.2	
571.69	10528	
571.88	10051	
572.07	9635	
572.27	9533.3	
572.46	10023	
572.65	11072	
572.85	8827.4	
573.04	9195.4	
573.23	11490	
573.43	10704	
573.62	8585.8	
573.81	9292.3	
574	10678	
574.2	10514	
574.39	9049.3	
574.58	9155.8	
574.78	11555	
574.97	10846	
575.16	9546.9	
575.36	9690.3	
575.55	11165	
575.74	11331	
575.93	8554.4	
576.13	9785.2	
576.32	10614	
576.51	11229	
576.71	9082.7	
576.9	10462	
577.09	11618	
577.28	11006	
577.48	9522.4	
577.67	8504.5	
577.86	10658	
578.05	10948	
578.25	9129.2	
578.44	9288.2	
578.63	10755	
578.83	12032	
579.02	8575.5	
579.21	10112	
579.4	11069	
579.6	10617	
579.79	9428.2	
579.98	11679	
580.17	11304	
580.37	11464	
580.56	8826.7	
580.75	9660.3	
580.94	11998	
581.14	11708	
581.33	10111	
581.52	9028.1	
581.71	11238	
581.91	11928	
582.1	8680.7	
582.29	9371.5	
582.48	10907	
582.68	10949	
582.87	9846	
583.06	9542.2	
583.25	11213	
583.45	11058	
583.64	10258	
583.83	10911	
584.02	10666	
584.21	11196	
584.41	10112	
584.6	9478	
584.79	10991	
584.98	11693	
585.18	8879.3	
585.37	8823.3	
585.56	10411	
585.75	11196	
585.94	9004.9	
586.14	9794.1	
586.33	11895	
586.52	10795	
586.71	9614.5	
586.91	9334.6	
587.1	10233	
587.29	11240	
587.48	9129.8	
587.67	9033.6	
587.87	11040	
588.06	11128	
588.25	10380	
588.44	9501.2	
588.63	10604	
588.83	11131	
589.02	8882.7	
589.21	8711.4	
589.4	10148	
589.59	9960	
589.78	7770	
589.98	8159.8	
590.17	9590.6	
590.36	10131	
590.55	7395.9	
590.74	8290.2	
590.94	11409	
591.13	10068	
591.32	8054	
591.51	7568.6	
591.7	10510	
591.89	10005	
592.09	7671.7	
592.28	8223.3	
592.47	9212.4	
592.66	11164	
592.85	7761.8	
593.05	8013	
593.24	9699.9	
593.43	10577	
593.62	7994.6	
593.81	8549.6	
594	9858.9	
594.19	10133	
594.39	7960.5	
594.58	7939.3	
594.77	10144	
594.96	10788	
595.15	7869	
595.34	8578.9	
595.54	10203	
595.73	9276.6	
595.92	7224.6	
596.11	8442.4	
596.3	10615	
596.49	9384.5	
596.68	8144.8	
596.88	8717.5	
597.07	10410	
597.26	9213.1	
597.45	7606.2	
597.64	8907.3	
597.83	9444.5	
598.02	10163	
598.22	7824.6	
598.41	8551.6	
598.6	9964.7	
598.79	9407	
598.98	7896.3	
599.17	8806.9	
599.36	10002	
599.55	11142	
599.74	9957.9	
599.94	9759.9	
600.13	10436	
600.32	9273.9	
600.51	7630	
600.7	7675.8	
600.89	11138	
601.08	11161	
601.27	7595.2	
601.47	8588.5	
601.66	10441	
601.85	11068	
602.04	8277.2	
602.23	8279.3	
602.42	9488.2	
602.61	10109	
602.8	8237.6	
602.99	7910.6	
603.18	9983.8	
603.37	10160	
603.57	8661.5	
603.76	9148.3	
603.95	10880	
604.14	10502	
604.33	8089.5	
604.52	8357.1	
604.71	10097	
604.9	9628.2	
605.09	8984.4	
605.28	8829.5	
605.47	10685	
605.66	10356	
605.86	8668.4	
606.05	8045.1	
606.24	10670	
606.43	9182.4	
606.62	8415.1	
606.81	9208.4	
607	10492	
607.19	9846.6	
607.38	7777.5	
607.57	8043.1	
607.76	9499.8	
607.95	9007	
608.14	8428.1	
608.33	9080.7	
608.52	9554.5	
608.72	10531	
608.91	7705.8	
609.1	7595.9	
609.29	9654.8	
609.48	9165.3	
609.67	8606.9	
609.86	7626	
610.05	9234.3	
610.24	9600.9	
610.43	7483.3	
610.62	7117.4	
610.81	10688	
611	10587	
611.19	7622.5	
611.38	8445.8	
611.57	9897.8	
611.76	11278	
611.95	7415.7	
612.14	7214.3	
612.33	9723.8	
612.52	9181	
612.71	8076.5	
612.9	7119.4	
613.09	8764.6	
613.28	11200	
613.47	7699	
613.66	8750.3	
613.85	9767.4	
614.04	9286.9	
614.24	7793.9	
614.43	6957.6	
614.62	9964.1	
614.81	9866.4	
615	8374.1	
615.19	8458.8	
615.38	9153.7	
615.57	9600.9	
615.76	8325.7	
615.95	9151	
616.14	9994.8	
616.33	9581.8	
616.52	8594.6	
616.71	8928.5	
616.9	9902.6	
617.09	9738.8	
617.28	7913.4	
617.47	9256.1	
617.66	8957.1	
617.85	9050.7	
618.04	8929.1	
618.22	8315.4	
618.41	9413.1	
618.6	10299	
618.79	8165.3	
618.98	7922.9	
619.17	10667	
619.36	8950.3	
619.55	8087.4	
619.74	8074.5	
619.93	9983.8	
620.12	9396.1	
620.31	8777.6	
620.5	8818.6	
620.69	10628	
620.88	10856	
621.07	9544.9	
621.26	8621.3	
621.45	10110	
621.64	10238	
621.83	8794	
622.02	7869	
622.21	10179	
622.4	10002	
622.59	9384.5	
622.78	8981	
622.97	9529.2	
623.16	10619	
623.35	8605.6	
623.54	7795.3	
623.72	9734	
623.91	9927.2	
624.1	8950.3	
624.29	7548.1	
624.48	11099	
624.67	10172	
624.86	8880.7	
625.05	7849.9	
625.24	11035	
625.43	9447.3	
625.62	10535	
625.81	8075.8	
626	10556	
626.19	9716.2	
626.38	8899.8	
626.56	8237.6	
626.75	9542.2	
626.94	10294	
627.13	8830.8	
627.32	7463.5	
627.51	10115	
627.7	11527	
627.89	7601.4	
628.08	8791.2	
628.27	9288.9	
628.46	9516.2	
628.65	8001.4	
628.83	7462.1	
629.02	10163	
629.21	9497.8	
629.4	8419.9	
629.59	8564.6	
629.78	9300.5	
629.97	10329	
630.16	8638.3	
630.35	8043.1	
630.54	10839	
630.72	10471	
630.91	8014.4	
631.1	8664.3	
631.29	9887.6	
631.48	10134	
631.67	8753.7	
631.86	8200.1	
632.05	9567.4	
632.24	9628.2	
632.42	7888.8	
632.61	8488.1	
632.8	9676.7	
632.99	9372.9	
633.18	8435.6	
633.37	8799.4	
633.56	9907.4	
633.75	9751.7	
633.93	8531.8	
634.12	8194.6	
634.31	10711	
634.5	10445	
634.69	8117.5	
634.88	8690.9	
635.07	9699.9	
635.25	10361	
635.44	9164	
635.63	9305.3	
635.82	9599.5	
636.01	9039.7	
636.2	8970.1	
636.39	8542.1	
636.57	10651	
636.76	10369	
636.95	7996	
637.14	9367.4	
637.33	10066	
637.52	10916	
637.7	7733.8	
637.89	8695	
638.08	9635	
638.27	11032	
638.46	8748.2	
638.65	9202.9	
638.83	11057	
639.02	9425.4	
639.21	8656.8	
639.4	9184.5	
639.59	9895.1	
639.78	9405	
639.96	7890.8	
640.15	7867.6	
640.34	9736.7	
640.53	9888.3	
640.72	7608.2	
640.91	7890.1	
641.09	9049.3	
641.28	10576	
641.47	7963.9	
641.66	8774.2	
641.85	9757.9	
642.03	10124	
642.22	8503.8	
642.41	7948.8	
642.6	9119.6	
642.79	8510.7	
642.97	7759.1	
643.16	8522.3	
643.35	9189.9	
643.54	8898.4	
643.73	7578.8	
643.91	8473.8	
644.1	8727.8	
644.29	9419.3	
644.48	7605.5	
644.67	7685.3	
644.85	8824.7	
645.04	9136	
645.23	7200.7	
645.42	7442.3	
645.6	8581.7	
645.79	9837.8	
645.98	7392.5	
646.17	6414.9	
646.36	8325.7	
646.54	8976.9	
646.73	8147.5	
646.92	6860	
647.11	8536.6	
647.29	9557.2	
647.48	7035.5	
647.67	6730.3	
647.86	9832.3	
648.05	9940.2	
648.23	7370.6	
648.42	8684.1	
648.61	9207	
648.8	8933.9	
648.98	6989.7	
649.17	7328.3	
649.36	8531.8	
649.55	8129.8	
649.73	7068.2	
649.92	7821.2	
650.11	8436.9	
650.3	8816.5	
650.48	7224.6	
650.67	6928.3	
650.86	9008.3	
651.05	7944.1	
651.23	7060.7	
651.42	7044.3	
651.61	8512	
651.79	8622.6	
651.98	7340.6	
652.17	6905.1	
652.36	8993.3	
652.54	8122.9	
652.73	6977.4	
652.92	6701.6	
653.11	8972.2	
653.29	8974.2	
653.48	6150.1	
653.67	7180.9	
653.85	8616.5	
654.04	9747.6	
654.23	7429.3	
654.42	6864.8	
654.6	8004.8	
654.79	8718.2	
654.98	6342.6	
655.16	6883.2	
655.35	7663.5	
655.54	7605.5	
655.73	6384.9	
655.91	6393.1	
656.1	8922.3	
656.29	7692.2	
656.47	6025.1	
656.66	7777.5	
656.85	7977.5	
657.03	8095.6	
657.22	6679.8	
657.41	6645	
657.59	8130.4	
657.78	7920.9	
657.97	6281.1	
658.16	7056.6	
658.34	8800.1	
658.53	9177.6	
658.72	7928.4	
658.9	8477.9	
659.09	8223.3	
659.28	8359.1	
659.46	6808.8	
659.65	6714.6	
659.84	8047.8	
660.02	8574.2	
660.21	6617.7	
660.4	6531	
660.58	8947.6	
660.77	8430.8	
660.96	7159	
661.14	6193.1	
661.33	9478.7	
661.52	9413.1	
661.7	6133	
661.89	10021	
662.08	8019.8	
662.26	7594.6	
662.45	6449.1	
662.64	6554.9	
662.82	8707.3	
663.01	7881.3	
663.2	6536.4	
663.38	7382.9	
663.57	8525.7	
663.75	8378.2	
663.94	6920.1	
664.13	8105.9	
664.31	7879.2	
664.5	8703.2	
664.69	7342.7	
664.87	7744.7	
665.06	7654.6	
665.25	8436.9	
665.43	7996	
665.62	8124.3	
665.8	8767.4	
665.99	8000	
666.18	6907.1	
666.36	6977.4	
666.55	8696.4	
666.74	8640.4	
666.92	6494.1	
667.11	8213.7	
667.29	8016.4	
667.48	8660.2	
667.67	7817.8	
667.85	6900.3	
668.04	7993.9	
668.22	8084.7	
668.41	6895.5	
668.6	7106.5	
668.78	7820.5	
668.97	8168	
669.15	7283.9	
669.34	6173.9	
669.53	7884.7	
669.71	8228.1	
669.9	6459.3	
670.08	7149.5	
670.27	7878.5	
670.46	8441	
670.64	7202.7	
670.83	7568.6	
671.01	7774.1	
671.2	8432.9	
671.38	6501.6	
671.57	6470.9	
671.76	9007.6	
671.94	9619.3	
672.13	6333	
672.31	7377.5	
672.5	8646.5	
672.69	7934.5	
672.87	6470.2	
673.06	6829.3	
673.24	8401.5	
673.43	7853.3	
673.61	7276.4	
673.8	6729.6	
673.98	8575.5	
674.17	8785.8	
674.36	7310.6	
674.54	7210.9	
674.73	8391.2	
674.91	8514.8	
675.1	6947.4	
675.28	6535.1	
675.47	8075.8	
675.65	8680	
675.84	6688	
676.03	7139.9	
676.21	7907.2	
676.4	7450.5	
676.58	7659.4	
676.77	7344	
676.95	9393.3	
677.14	7814.4	
677.32	6554.2	
677.51	6206.7	
677.69	8602.8	
677.88	7453.2	
678.06	6300.9	
678.25	6416.3	
678.44	8105.2	
678.62	7807.5	
678.81	6098.9	
678.99	7142.6	
679.18	9007	
679.36	8522.3	
679.55	6666.1	
679.73	7377.5	
679.92	8372.8	
680.1	7833.5	
680.29	7971.4	
680.47	6722.1	
680.66	7742	
680.84	8633.6	
681.03	6039.5	
681.21	7135.8	
681.4	7881.9	
681.58	7720.2	
681.77	6499.6	
681.95	6363	
682.14	8662.2	
682.32	9060.9	
682.51	7287.4	
682.69	6161.7	
682.88	7703.8	
683.06	8417.8	
683.25	7032	
683.43	7546.1	
683.62	7954.3	
683.8	8431.5	
683.99	7464.8	
684.17	6811.5	
684.36	9156.5	
684.54	7751.6	
684.73	5840.8	
684.91	6100.2	
685.1	7983.7	
685.28	7328.3	
685.46	6563.1	
685.65	6664.8	
685.83	8193.9	
686.02	7604.1	
686.2	6087.2	
686.39	6223.8	
686.57	7277.8	
686.76	8899.1	
686.94	6123.4	
687.13	6328.9	
687.31	7989.8	
687.5	7662.1	
687.68	5647.6	
687.86	7081.9	
688.05	9250	
688.23	7171.3	
688.42	7132.4	
688.6	6234.7	
688.79	7576.1	
688.97	7557	
689.16	6651.8	
689.34	5574.6	
689.52	8309.3	
689.71	8532.5	
689.89	6982.2	
690.08	6223.1	
690.26	7800.7	
690.45	7684.7	
690.63	7011.6	
690.81	6301.6	
691	7475.8	
691.18	7435.5	
691.37	6414.9	
691.55	8617.2	
691.74	7356.3	
691.92	9499.8	
692.1	6359.6	
692.29	5820.3	
692.47	7591.8	
692.66	6916	
692.84	6031.3	
693.02	6792.4	
693.21	7084.6	
693.39	7548.1	
693.58	6728.9	
693.76	6224.5	
693.94	8845.2	
694.13	8631.5	
694.31	6179.4	
694.5	7423.2	
694.68	7451.9	
694.86	7802.1	
695.05	6548.7	
695.23	7027.9	
695.42	8255.4	
695.6	10689	
695.78	7153.6	
695.97	6282.5	
696.15	8163.9	
696.34	7573.4	
696.52	6021.7	
696.7	6784.9	
696.89	7933.8	
697.07	7363.1	
697.25	6696.9	
697.44	8374.1	
697.62	7831.4	
697.81	8225.3	
697.99	6431.3	
698.17	6861.4	
698.36	7118.7	
698.54	7914	
698.72	6657.3	
698.91	5766.4	
699.09	7473.7	
699.28	7279.2	
699.46	6432	
699.64	6327.5	
699.83	7152.2	
700.01	8610.3	
700.19	7121.5	
700.38	5487.9	
700.56	8579.6	
700.74	7436.9	
700.93	5898.1	
701.11	6925.5	
701.29	7961.1	
701.48	9077.3	
701.66	6184.2	
701.84	6180.8	
702.03	7456	
702.21	8176.9	
702.39	5727.5	
702.58	6384.2	
702.76	7916.8	
702.94	8028	
703.13	5710.4	
703.31	8120.9	
703.49	7228.6	
703.68	8553	
703.86	5868.1	
704.04	6978.8	
704.23	7745.4	
704.41	8199.4	
704.59	6030.6	
704.78	7330.4	
704.96	8907.3	
705.14	8237.6	
705.33	5883.1	
705.51	6737.1	
705.69	7602.7	
705.87	8354.3	
706.06	6988.4	
706.24	5836	
706.42	7874.4	
706.61	8230.1	
706.79	6987.7	
706.97	5885.2	
707.16	7273	
707.34	7851.2	
707.52	6974.7	
707.7	6159.6	
707.89	7614.3	
708.07	7171.3	
708.25	7027.3	
708.44	7195.9	
708.62	7449.1	
708.8	8581.7	
708.98	7284.6	
709.17	6226.5	
709.35	7819.1	
709.53	7899	
709.72	5930.2	
709.9	6054.5	
710.08	8020.5	
710.26	8122.9	
710.45	7542	
710.63	6199.2	
710.81	7704.5	
710.99	7764.5	
711.18	6812.9	
711.36	6249.7	
711.54	7539.3	
711.72	8271.1	
711.91	6347.3	
712.09	5733.6	
712.27	7724.9	
712.45	8258.1	
712.64	6611.5	
712.82	5516.5	
713	7027.3	
713.18	7195.9	
713.37	5551.4	
713.55	6833.4	
713.73	7995.3	
713.91	6557.6	
714.1	5848.3	
714.28	5201.2	
714.46	7443.7	
714.64	6664.8	
714.83	4625.7	
715.01	5468.8	
715.19	6642.9	
715.37	6070.9	
715.55	5190.9	
715.74	5558.2	
715.92	7631.4	
716.1	5560.2	
716.28	6569.9	
716.47	5595.1	
716.65	6292	
716.83	6468.9	
717.01	5467.4	
717.19	5584.8	
717.38	8544.8	
717.56	6077	
717.74	5832.6	
717.92	4977.2	
718.1	7453.2	
718.29	6570.6	
718.47	4621.6	
718.65	5307.7	
718.83	7359.7	
719.01	7249.1	
719.2	4483	
719.38	5646.2	
719.56	6947.4	
719.74	8606.2	
719.92	5134.3	
720.11	6257.9	
720.29	6968.6	
720.47	6045.6	
720.65	4659.1	
720.83	5565.7	
721.02	6380.8	
721.2	6116.6	
721.38	5596.4	
721.56	4799.8	
721.74	5630.5	
721.92	5842.9	
722.11	6084.5	
722.29	5741.1	
722.47	7164.5	
722.65	6238.8	
722.83	4835.9	
723.01	5773.9	
723.2	6384.2	
723.38	6657.9	
723.56	4225.6	
723.74	5490.6	
723.92	5836.7	
724.1	7092.8	
724.29	4782	
724.47	5999.9	
724.65	5898.8	
724.83	5831.2	
725.01	4686.4	
725.19	5666	
725.37	5903.6	
725.56	6081.1	
725.74	4456.4	
725.92	4738.3	
726.1	5811.5	
726.28	6128.9	
726.46	5208	
726.64	4917.2	
726.83	6082.5	
727.01	6466.1	
727.19	4492.6	
727.37	5373.2	
727.55	6282.5	
727.73	6791.1	
727.91	4433.2	
728.09	4289.8	
728.28	6869.6	
728.46	7510.6	
728.64	5507	
728.82	5484.5	
729	8023.3	
729.18	7295.5	
729.36	4681	
729.54	7120.1	
729.72	8342.7	
729.91	6536.4	
730.09	6733.7	
730.27	5444.2	
730.45	6410.1	
730.63	7172.7	
730.81	6092.7	
730.99	5068	
731.17	7630.7	
731.35	6197.8	
731.53	5692	
731.71	5188.9	
731.9	7338.6	
732.08	7587.7	
732.26	5438	
732.44	5025.7	
732.62	7649.8	
732.8	7084.6	
732.98	5883.8	
733.16	4889.2	
733.34	7058	
733.52	5822.4	
733.7	5474.2	
733.88	5839.4	
734.07	6962.4	
734.25	6707.8	
734.43	4900.1	
734.61	6556.9	
734.79	8218.5	
734.97	6602.7	
735.15	5079	
735.33	5421	
735.51	6941.2	
735.69	6599.9	
735.87	6632.7	
736.05	5738.4	
736.23	6836.8	
736.41	6546.7	
736.59	5533.6	
736.77	5635.3	
736.95	7287.4	
737.13	6652.5	
737.32	5165	
737.5	5410.1	
737.68	7819.8	
737.86	6570.6	
738.04	4891.9	
738.22	6861.4	
738.4	6350.8	
738.58	6690.7	
738.76	5626.5	
738.94	4491.2	
739.12	6513.9	
739.3	6372.6	
739.48	6264.1	
739.66	6044.9	
739.84	6853.2	
740.02	6873.7	
740.2	4568.3	
740.38	5048.9	
740.56	7169.3	
740.74	6058.6	
740.92	5743.2	
741.1	5654.4	
741.28	6640.9	
741.46	6470.2	
741.64	5235.3	
741.82	5821.7	
742	6656.6	
742.18	6657.9	
742.36	5489.9	
742.54	5013.4	
742.72	7235.5	
742.9	5905	
743.08	5895.4	
743.26	4586.8	
743.44	7475.8	
743.62	7245	
743.8	6026.5	
743.98	5081.7	
744.16	6936.5	
744.34	6653.2	
744.52	5880.4	
744.7	5823.1	
744.88	7031.4	
745.06	6651.8	
745.24	5967.8	
745.42	6105.7	
745.6	7146	
745.78	6924.9	
745.96	4679.6	
746.14	5023	
746.32	7991.2	
746.5	7225.9	
746.68	5609.4	
746.86	5096	
747.03	7641.7	
747.21	5797.1	
747.39	5681.1	
747.57	5151.3	
747.75	6812.9	
747.93	7167.9	
748.11	5160.9	
748.29	4934.2	
748.47	8312	
748.65	6391	
748.83	5847.6	
749.01	5581.4	
749.19	7013.6	
749.37	6157.6	
749.55	5420.3	
749.73	5418.2	
749.91	6627.9	
750.09	6331	
750.26	5568.4	
750.44	4904.2	
750.62	6666.8	
750.8	6672.3	
750.98	4786.1	
751.16	5130.8	
751.34	6755.6	
751.52	5999.2	
751.7	5941.2	
751.88	4748.6	
752.06	7210.9	
752.24	7044.3	
752.42	4685.8	
752.59	5070.8	
752.77	6670.2	
752.95	7907.2	
753.13	5804.6	
753.31	5160.2	
753.49	6249	
753.67	6769.2	
753.85	5516.5	
754.03	5085.1	
754.21	7019.1	
754.38	7410.9	
754.56	5247.6	
754.74	4240	
754.92	6234.7	
755.1	6935.8	
755.28	4242.7	
755.46	4211.3	
755.64	7569.3	
755.82	7714.7	
755.99	4359.4	
756.17	4490.5	
756.35	5031.9	
756.53	6627.9	
756.71	3285.6	
756.89	4311	
757.07	6145.3	
757.25	5260.5	
757.42	4885.8	
757.6	5758.9	
757.78	6402	
757.96	5322	
758.14	4631.8	
758.32	4084.3	
758.5	4821.6	
758.67	5679	
758.85	4351.3	
759.03	4483	
759.21	5881.8	
759.39	5248.3	
759.57	3923.9	
759.75	5081	
759.92	6519.4	
760.1	5757.5	
760.28	5567.7	
760.46	5829.9	
760.64	5571.8	
760.82	5306.3	
760.99	5397.1	
761.17	4523.3	
761.35	6481.8	
761.53	5391.6	
761.71	4756.1	
761.89	5436	
762.06	6397.9	
762.24	5878.4	
762.42	4838	
762.6	4605.9	
762.78	5892	
762.96	6543.3	
763.13	5288.5	
763.31	4881.7	
763.49	6863.4	
763.67	5873.6	
763.85	5791.7	
764.02	6431.3	
764.2	7040.2	
764.38	6267.5	
764.56	4788.8	
764.74	5720.7	
764.91	7172.7	
765.09	6044.2	
765.27	4519.2	
765.45	4289.1	
765.63	7280.5	
765.8	7059.3	
765.98	4030.4	
766.16	4319.8	
766.34	5597.1	
766.52	5359.5	
766.69	5380	
766.87	4167.6	
767.05	6013.5	
767.23	6804.7	
767.41	4505.5	
767.58	4814.1	
767.76	6590.4	
767.94	6646.3	
768.12	4610	
768.29	5403.9	
768.47	6090.7	
768.65	6782.9	
768.83	4204.5	
769	5464	
769.18	5627.8	
769.36	6374.6	
769.54	5382.1	
769.72	4266.6	
769.89	6675	
770.07	6714.6	
770.25	4559.5	
770.43	5920	
770.6	7350.2	
770.78	7870.3	
770.96	4742.4	
771.14	4597	
771.31	6483.9	
771.49	5836	
771.67	3962.8	
771.85	4146.5	
772.02	5073.5	
772.2	5859.2	
772.38	4939.7	
772.55	4365.6	
772.73	6161	
772.91	5856.5	
773.09	4818.9	
773.26	4883.7	
773.44	6086.6	
773.62	5789.6	
773.8	4197	
773.97	3975.8	
774.15	6131.6	
774.33	5699.5	
774.5	4126	
774.68	4574.5	
774.86	6338.5	
775.04	5741.8	
775.21	4237.9	
775.39	4225	
775.57	6057.2	
775.74	6464.8	
775.92	4061.8	
776.1	4005.8	
776.27	6046.3	
776.45	7313.3	
776.63	4177.9	
776.81	3713	
776.98	5649.7	
777.16	6807.4	
777.34	4316.4	
777.51	4298	
777.69	5608.7	
777.87	5432.6	
778.04	4351.9	
778.22	5072.8	
778.4	5438	
778.57	6179.4	
778.75	3634.5	
778.93	3947.8	
779.1	5177.3	
779.28	5104.9	
779.46	3691.1	
779.64	4162.8	
779.81	6273.6	
779.99	7211.6	
780.17	4915.8	
780.34	5141.1	
780.52	5629.2	
780.69	5896.8	
780.87	4496	
781.05	4027.7	
781.22	5718.6	
781.4	5839.4	
781.58	4171.7	
781.75	3312.2	
781.93	5762.3	
782.11	5129.5	
782.28	5104.2	
782.46	4202.4	
782.64	4960.9	
782.81	5999.9	
782.99	4214.7	
783.17	4223.6	
783.34	5827.2	
783.52	5027.8	
783.69	4382	
783.87	5228.5	
784.05	5072.8	
784.22	5119.2	
784.4	5221.6	
784.58	4519.2	
784.75	6049.7	
784.93	5130.2	
785.1	4159.4	
785.28	4819.6	
785.46	5735.7	
785.63	5103.5	
785.81	4100	
785.99	3954.6	
786.16	5249.6	
786.34	5711.8	
786.51	4007.2	
786.69	4448.9	
786.87	4819.6	
787.04	5437.4	
787.22	3836.5	
787.39	4798.4	
787.57	5096.7	
787.75	6292	
787.92	5079.6	
788.1	5005.2	
788.27	5125.4	
788.45	4883.7	
788.63	4661.2	
788.8	3325.9	
788.98	5668.1	
789.15	4763.6	
789.33	3406.5	
789.5	4214	
789.68	6098.9	
789.86	6140.5	
790.03	4671.4	
790.21	3992.9	
790.38	6028.5	
790.56	5240.8	
790.73	3851.5	
790.91	3884.3	
791.09	5126.1	
791.26	5868.1	
791.44	4108.9	
791.61	3517.7	
791.79	5117.9	
791.96	5207.3	
792.14	3560.7	
792.32	3259.7	
792.49	5157.5	
792.67	5276.9	
792.84	3710.9	
793.02	3455.6	
793.19	5545.9	
793.37	6278.4	
793.54	3237.8	
793.72	3588	
793.89	6466.1	
794.07	5098.1	
794.25	4316.4	
794.42	3307.5	
794.6	6233.3	
794.77	5781.4	
794.95	4485.7	
795.12	3912.3	
795.3	5102.9	
795.47	5770.5	
795.65	4302.1	
795.82	4164.9	
796	4926	
796.17	6929.6	
796.35	4050.2	
796.52	4737	
796.7	5618.9	
796.87	5789.6	
797.05	4990.9	
797.22	4851	
797.4	5759.6	
797.57	6784.9	
797.75	4137.6	
797.92	3921.9	
798.1	6083.1	
798.27	5106.3	
798.45	3366.2	
798.62	3578.5	
798.8	5423.7	
798.97	5954.1	
799.15	4384	
799.32	4223.6	
799.5	4628.4	
799.67	5457.2	
799.85	4481	
800.02	3216	
800.2	4987.5	
800.37	5427.1	
800.55	4755.4	
800.72	3886.4	
800.9	5953.4	
801.07	6371.2	
801.25	5256.5	
801.42	4324.6	
801.6	5896.8	
801.77	5599.1	
801.95	3962.1	
802.12	3814	
802.29	5649.7	
802.47	5555.5	
802.64	4273.4	
802.82	3211.2	
802.99	5066.7	
803.17	6075	
803.34	4157.4	
803.52	3763.5	
803.69	6812.2	
803.87	4803.2	
804.04	4093.2	
804.21	4212.7	
804.39	6238.8	
804.56	5322.7	
804.74	3463.1	
804.91	4351.3	
805.09	5043.5	
805.26	5240.8	
805.44	3558.7	
805.61	3910.3	
805.78	5712.5	
805.96	5844.9	
806.13	4363.5	
806.31	4591.5	
806.48	4616.1	
806.66	5160.2	
806.83	4271.4	
807	4188.1	
807.18	4994.3	
807.35	5498.1	
807.53	4200.4	
807.7	3267.9	
807.87	6303	
808.05	5137	
808.22	4673.5	
808.4	3305.4	
808.57	5155.4	
808.74	4713.7	
808.92	3774.4	
809.09	4803.2	
809.27	4979.3	
809.44	5638.7	
809.61	3374.4	
809.79	3743.7	
809.96	6330.3	
810.14	5921.4	
810.31	3262.4	
810.48	4012	
810.66	5207.3	
810.83	5999.9	
811.01	3853.6	
811.18	4225	
811.35	5889.3	
811.53	4539	
811.7	4635.9	
811.87	4355.3	
812.05	5109.7	
812.22	5072.8	
812.39	3698.6	
812.57	3576.4	
812.74	5113.1	
812.92	6816.3	
813.09	3969	
813.26	4332.8	
813.44	6567.2	
813.61	5019.6	
813.78	3382.6	
813.96	4504.2	
814.13	5145.9	
814.3	4724.7	
814.48	4825.7	
814.65	4019.5	
814.82	6343.9	
815	4918.5	
815.17	4134.8	
815.34	5096.7	
815.52	5029.8	
815.69	5009.3	
815.87	4112.3	
816.04	3547.1	
816.21	5192.3	
816.38	4497.3	
816.56	3934.8	
816.73	3635.8	
816.9	6454.5	
817.08	5971.2	
817.25	3739.6	
817.42	4686.4	
817.6	4656.4	
817.77	5107	
817.94	4242.7	
818.12	3642	
818.29	4842.8	
818.46	7721.5	
818.64	3896.6	
818.81	3628.3	
818.98	4761.5	
819.16	7036.8	
819.33	4459.8	
819.5	4078.2	
819.67	5485.1	
819.85	6124.8	
820.02	4033.8	
820.19	4320.5	
820.37	5350	
820.54	4898.7	
820.71	4168.3	
820.88	5229.8	
821.06	5395.7	
821.23	4910.3	
821.4	4167.6	
821.58	4184	
821.75	5861.3	
821.92	5246.9	
822.09	3320.4	
822.27	3604.4	
822.44	5096	
822.61	5027.1	
822.79	3368.9	
822.96	6536.4	
823.13	5666	
823.3	4862.6	
823.48	3874.1	
823.65	3517	
823.82	5866.1	
823.99	4695.3	
824.17	4973.2	
824.34	3596.9	
824.51	6746	
824.68	5171.8	
824.86	3715.7	
825.03	4207.2	
825.2	5066.7	
825.37	6304.3	
825.55	3672	
825.72	4077.5	
825.89	6802	
826.06	6361.7	
826.24	3989.4	
826.41	4042	
826.58	6251.8	
826.75	5433.3	
826.92	3177.8	
827.1	3461.1	
827.27	8566	
827.44	6738.5	
827.61	3805.1	
827.79	4631.8	
827.96	4862.6	
828.13	5187.5	
828.3	3998.3	
828.47	3315.7	
828.65	5358.9	
828.82	5319.3	
828.99	5231.9	
829.16	4536.9	
829.34	5724.8	
829.51	5511.1	
829.68	4073.4	
829.85	4267.3	
830.02	6048.3	
830.2	5757.5	
830.37	3181.2	
830.54	4984.8	
830.71	6582.9	
830.88	5131.5	
831.05	3229	
831.23	3732.1	
831.4	6236.1	
831.57	7055.9	
831.74	3833.1	
831.91	3371	
832.09	5286.5	
832.26	5712.5	
832.43	3937.6	
832.6	4465.9	
832.77	5369.1	
832.94	6111.8	
833.12	3217.4	
833.29	3920.5	
833.46	5042.1	
833.63	7361.8	
833.8	4300.1	
833.97	4044.1	
834.15	5800.5	
834.32	5513.8	
834.49	4113.7	
834.66	4227	
834.83	5913.2	
835	4847.5	
835.17	3824.9	
835.35	3872	
835.52	5710.4	
835.69	5513.1	
835.86	4023.6	
836.03	3329.3	
836.2	5727.5	
836.37	5263.3	
836.55	3920.5	
836.72	3702.7	
836.89	5296	
837.06	5765	
837.23	3997	
837.4	4464.6	
837.57	6575.3	
837.75	7404.1	
837.92	3618.1	
838.09	3924.6	
838.26	5322	
838.43	5998.5	
838.6	4153.3	
838.77	3694.5	
838.94	6912.6	
839.11	6606.1	
839.29	3971	
839.46	3110.9	
839.63	5657.9	
839.8	5407.3	
839.97	3852.9	
840.14	3864.5	
840.31	5470.8	
840.48	5700.9	
840.65	3196.9	
840.82	3773	
841	5696.1	
841.17	5716.6	
841.34	3523.9	
841.51	3589.4	
841.68	5647.6	
841.85	5377.3	
842.02	3695.9	
842.19	3027.6	
842.36	5494.7	
842.53	5444.2	
842.7	3575.8	
842.87	4379.2	
843.05	7226.6	
843.22	5386.2	
843.39	3338.9	
843.56	3620.8	
843.73	5223.7	
843.9	5752.7	
844.07	5696.8	
844.24	4818.2	
844.41	8478.6	
844.58	4954.7	
844.75	3376.4	
844.92	3767.6	
845.09	5689.3	
845.26	5715.9	
845.43	3509.5	
845.6	3705.5	
845.77	5711.1	
845.94	5443.5	
846.12	3929.4	
846.29	4110.3	
846.46	5956.2	
846.63	5683.1	
846.8	3560.7	
846.97	4186.7	
847.14	6212.2	
847.31	5672.2	
847.48	3988.1	
847.65	4406.5	
847.82	6004.6	
847.99	6032	
848.16	4758.8	
848.33	4379.2	
848.5	5276.9	
848.67	6258.6	
848.84	3467.9	
849.01	3586	
849.18	5072.8	
849.35	4797.7	
849.52	4420.2	
849.69	3426.3	
849.86	5935	
850.03	6160.3	
850.2	3487	
850.37	4367	
850.54	6108.4	
850.71	5441.5	
850.88	4288.4	
851.05	3504.8	
851.22	5603.9	
851.39	6303	
851.56	3254.2	
851.73	4033.8	
851.9	5046.9	
852.07	5911.8	
852.24	3891.1	
852.41	3500	
852.58	5550.7	
852.75	5061.9	
852.92	3924.6	
853.09	3441.3	
853.26	5296.7	
853.43	6199.2	
853.6	3507.5	
853.77	3005.1	
853.94	6287.3	
854.11	5661.3	
854.28	5242.8	
854.44	3791.5	
854.61	6698.9	
854.78	5773.2	
854.95	3484.3	
855.12	4464.6	
855.29	4572.4	
855.46	6494.1	
855.63	3477.5	
855.8	4881	
855.97	5198.4	
856.14	6064.7	
856.31	5005.9	
856.48	3811.3	
856.65	5244.2	
856.82	4959.5	
856.99	3383.2	
857.16	3767.6	
857.33	6998.6	
857.49	5341.8	
857.66	3818.1	
857.83	4085	
858	5328.8	
858.17	5545.2	
858.34	3336.8	
858.51	3525.2	
858.68	6458.6	
858.85	6485.2	
859.02	4145.8	
859.19	4313	
859.36	4968.4	
859.52	5075.5	
859.69	3502.7	
859.86	4191.5	
860.03	5079.6	
860.2	6323.4	
860.37	3173.7	
860.54	3472.7	
860.71	5908.4	
860.88	6425.8	
861.05	3998.3	
861.21	4457.7	
861.38	6344.6	
861.55	4911.7	
861.72	3186.6	
861.89	3927.3	
862.06	6038.8	
862.23	6468.2	
862.4	3427.6	
862.56	3659.7	
862.73	5820.3	
862.9	5483.1	
863.07	4162.8	
863.24	3179.8	
863.41	4857.8	
863.58	5021.6	
863.75	3602.4	
863.91	4091.8	
864.08	6367.1	
864.25	5832.6	
864.42	4469.4	
864.59	4979.3	
864.76	6632	
864.93	4986.1	
865.09	3420.8	
865.26	3741.6	
865.43	6233.3	
865.6	6613.6	
865.77	3063.8	
865.94	3507.5	
866.1	6223.1	
866.27	6005.3	
866.44	5309.7	
866.61	3290.4	
866.78	5424.4	
866.95	5814.9	
867.11	3457	
867.28	3098.6	
867.45	6072.2	
867.62	5059.8	
867.79	4126	
867.96	3496.6	
868.12	5051	
868.29	6021.7	
868.46	3491.1	
868.63	4752	
868.8	6141.2	
868.97	5892.7	
869.13	3745.1	
869.3	3693.2	
869.47	5846.3	
869.64	6020.3	
869.81	3560.1	
869.97	3573	
870.14	5703.6	
870.31	6453.8	
870.48	3404.4	
870.65	4401.8	
870.81	5308.3	
870.98	5330.9	
871.15	3994.2	
871.32	3702.7	
871.48	5713.8	
871.65	6518.7	
871.82	3469.9	
871.99	3894.6	
872.16	6867.5	
872.32	6248.4	
872.49	3551.9	
872.66	3572.3	
872.83	5924.8	
872.99	5244.8	
873.16	4044.7	
873.33	3435.1	
873.5	5584.1	
873.67	5599.1	
873.83	3697.3	
874	4762.9	
874.17	5759.6	
874.34	6879.1	
874.5	4556.7	
874.67	4404.5	
874.84	6370.5	
875.01	4980.7	
875.17	5012.7	
875.34	3503.4	
875.51	5571.8	
875.68	6837.5	
875.84	4276.8	
876.01	5199.8	
876.18	5861.3	
876.34	5865.4	
876.51	3510.9	
876.68	3435.1	
876.85	5388.9	
877.01	6247.7	
877.18	4993.6	
877.35	3454.9	
877.52	5524.1	
877.68	4943.1	
877.85	3448.8	
878.02	3465.2	
878.18	5513.8	
878.35	5160.2	
878.52	2800.9	
878.69	3960.1	
878.85	5943.2	
879.02	5920.7	
879.19	5077.6	
879.35	3839.3	
879.52	5827.8	
879.69	6133	
879.86	3052.8	
880.02	3906.8	
880.19	5451.7	
880.36	6670.2	
880.52	4017.4	
880.69	4239.3	
880.86	5977.3	
881.02	6109.8	
881.19	3874.8	
881.36	3857.7	
881.52	5895.4	
881.69	5233.9	
881.86	3768.9	
882.02	3646.7	
882.19	6195.8	
882.36	7222.5	
882.52	3615.3	
882.69	4994.3	
882.86	5699.5	
883.02	5573.2	
883.19	4345.1	
883.36	4064.5	
883.52	6032	
883.69	6916	
883.86	3605.1	
884.02	3153.2	
884.19	5947.3	
884.36	5489.2	
884.52	3945.8	
884.69	3673.4	
884.86	5223	
885.02	6577.4	
885.19	3941	
885.36	4082.3	
885.52	5509.7	
885.69	5681.1	
885.86	5096	
886.02	4562.2	
886.19	5952.8	
886.35	5463.3	
886.52	3885	
886.69	4931.5	
886.85	5072.1	
887.02	6317.3	
887.19	6317.3	
887.35	6317.3	
887.52	6317.3	
887.68	6317.3	
887.85	6317.3	
888.02	6317.3	
888.18	6317.3	
888.35	6317.3	
888.51	6317.3	
888.68	6317.3	
888.85	6317.3	
889.01	6317.3	
889.18	6317.3	
889.35	6317.3	
889.51	6317.3	
889.68	6317.3	
889.84	6317.3	
890.01	6317.3	
890.17	6317.3	
890.34	6317.3	
890.51	6317.3	
890.67	6317.3	
890.84	6317.3	
891	6317.3	
891.17	6317.3	
891.34	6317.3	
891.5	6317.3	
891.67	6317.3	
891.83	6317.3	
892	6317.3	
892.16	6317.3	
892.33	6317.3	
892.5	6317.3	
892.66	6317.3	
892.83	6317.3	
892.99	6317.3	
893.16	6317.3	
893.32	6317.3	
893.49	6317.3	
893.65	6317.3	
893.82	6317.3	
893.99	6317.3	
894.15	6317.3	
894.32	6317.3	
894.48	6317.3	
894.65	6317.3	
894.81	6317.3	
894.98	6317.3	
895.14	6317.3	
895.31	6317.3	
895.47	6317.3	
895.64	6317.3	
895.81	6317.3	
895.97	6317.3	
896.14	6317.3	
896.3	6317.3	
896.47	6317.3	
896.63	6317.3	
896.8	6317.3	
896.96	6317.3	
897.13	6317.3	
897.29	6317.3	
897.46	6317.3	
897.62	6317.3	
897.79	6317.3	
897.95	6317.3	
898.12	6317.3	
898.28	6317.3	
898.45	6317.3	
898.61	6317.3	
898.78	6317.3	
898.94	6317.3	
899.11	6317.3	
899.27	6317.3	
899.44	6317.3	
899.6	6317.3	
899.77	6317.3	
899.93	6317.3	
900.1	6317.3	
900.26	6317.3	
900.43	6317.3	
900.59	6317.3	
900.76	6317.3	
900.92	6317.3	
901.09	6317.3	
901.25	6317.3	
901.42	6317.3	
901.58	6317.3	
901.75	6317.3	
901.91	6317.3	
902.07	6317.3	
902.24	6317.3	
902.4	6317.3	
902.57	6317.3	
902.73	6317.3	
902.9	6317.3	
903.06	6317.3	
903.23	6317.3	
903.39	6317.3	
903.56	6317.3	
903.72	6317.3	
903.88	6317.3	
904.05	6317.3	
904.21	6317.3	
904.38	6317.3	
904.54	6317.3	
904.71	6317.3	
904.87	6317.3	
905.03	6317.3	
905.2	6317.3	
905.36	6317.3	
905.53	6317.3	
905.69	6317.3	
905.86	6317.3	
906.02	6317.3	
906.18	6317.3	
906.35	6317.3	
906.51	6317.3	
906.68	6317.3	
906.84	6317.3	
907.01	6317.3	
907.17	6317.3	
907.33	6317.3	
907.5	6317.3	
907.66	6317.3	
907.83	6317.3	
907.99	6317.3	
908.15	6317.3	
908.32	6317.3	
908.48	6317.3	
908.65	6317.3	
908.81	6317.3	
908.97	6317.3	
909.14	6317.3	
909.3	6317.3	
909.47	6317.3	
909.63	6317.3	
909.79	6317.3	
909.96	6317.3	
910.12	6317.3	
910.28	6317.3	
910.45	6317.3	
910.61	6317.3	
910.78	6317.3	
910.94	6317.3	
911.1	6317.3	
911.27	6317.3	
911.43	6317.3	
911.59	6317.3	
911.76	6317.3	
911.92	6317.3	
912.08	6317.3	
912.25	6317.3	
912.41	6317.3	
912.57	6317.3	
912.74	6317.3	
912.9	6317.3	
913.07	6317.3	
913.23	6317.3	
913.39	6317.3	
913.56	6317.3	
913.72	6317.3	
913.88	6317.3	
914.05	6317.3	
914.21	6317.3	
914.37	6317.3	
914.54	6317.3	
914.7	6317.3	
914.86	6317.3	
915.03	6317.3	
915.19	6317.3	
