Wavelength	Intensities	
nm	a.u.	
179.22	1882.4	
179.44	1886.9	
179.65	1878	
179.86	1895.7	
180.08	1865.7	
180.29	4889.2	
180.51	3463.1	
180.72	5656.5	
180.94	6635.4	
181.15	3250.8	
181.37	3134.1	
181.58	5476.3	
181.79	5795.1	
182.01	3327.9	
182.22	3668.6	
182.44	5755.5	
182.65	4789.5	
182.87	4559.5	
183.08	4027	
183.29	6137.1	
183.51	5043.5	
183.72	3603.1	
183.94	5390.3	
184.15	5417.6	
184.37	5377.3	
184.58	3218	
184.79	4406.5	
185.01	4961.5	
185.22	5804.6	
185.44	4741	
185.65	3925.3	
185.86	5329.5	
186.08	4880.3	
186.29	3097.9	
186.51	3426.9	
186.72	5072.8	
186.94	6004.6	
187.15	3887.7	
187.36	4023.6	
187.58	7786.4	
187.79	5471.5	
188.01	4214	
188.22	6644.3	
188.43	6685.9	
188.65	5719.3	
188.86	3383.2	
189.08	4042	
189.29	5225.7	
189.5	5240.1	
189.72	3756	
189.93	3863.2	
190.15	5969.1	
190.36	7174.7	
190.57	4135.5	
190.79	4035.2	
191	6036.7	
191.22	6004	
191.43	4142.4	
191.64	3405.1	
191.86	6219	
192.07	5958.9	
192.29	3573	
192.5	3740.3	
192.71	6023.1	
192.93	5190.9	
193.14	3746.4	
193.35	3758.7	
193.57	5193.6	
193.78	5963.7	
194	2940.9	
194.21	3674.1	
194.42	4930.1	
194.64	5453.1	
194.85	4020.8	
195.07	4715.8	
195.28	5472.2	
195.49	4700.8	
195.71	5013.4	
195.92	3459	
196.13	5646.9	
196.35	5725.4	
196.56	5373.2	
196.78	4035.9	
196.99	7024.5	
197.2	6641.6	
197.42	4642.7	
197.63	4129.4	
197.84	4851.6	
198.06	5659.9	
198.27	3755.3	
198.48	4932.2	
198.7	5183.4	
198.91	5350.7	
199.13	4095.3	
199.34	4105.5	
199.55	5881.1	
199.77	4749.2	
199.98	3633.1	
200.19	4203.1	
200.41	5340.4	
200.62	5051	
200.83	4340.3	
201.05	4573.1	
201.26	5358.2	
201.47	5108.3	
201.69	3596.2	
201.9	3485	
202.11	5375.9	
202.33	6438.1	
202.54	3861.8	
202.76	4367.6	
202.97	5537.7	
203.18	5569.1	
203.4	4248.2	
203.61	4130.1	
203.82	5535	
204.04	5134.3	
204.25	4132.1	
204.46	4004.5	
204.68	5418.9	
204.89	5683.8	
205.1	3975.8	
205.32	3420.8	
205.53	5820.3	
205.74	6020.3	
205.96	2945.7	
206.17	4217.5	
206.38	5819.6	
206.6	5963	
206.81	4654.4	
207.02	3857	
207.24	5673.6	
207.45	6146.6	
207.66	3850.9	
207.88	3287.7	
208.09	5607.3	
208.3	5428.5	
208.52	3543	
208.73	3865.2	
208.94	5446.2	
209.15	6109.1	
209.37	3899.3	
209.58	4063.9	
209.79	6004	
210.01	5162.9	
210.22	3107.5	
210.43	3272.7	
210.65	5400.5	
210.86	5849	
211.07	3927.3	
211.29	3550.5	
211.5	5771.9	
211.71	5371.1	
211.93	3553.2	
212.14	3591.5	
212.35	5315.8	
212.56	5642.8	
212.78	4085	
212.99	3355.9	
213.2	6431.3	
213.42	5223.7	
213.63	3698.6	
213.84	3943.7	
214.06	4818.2	
214.27	4895.3	
214.48	3886.4	
214.69	4144.4	
214.91	6078.4	
215.12	6188.3	
215.33	4218.1	
215.55	4606.6	
215.76	6694.8	
215.97	5808.7	
216.18	3971	
216.4	3891.1	
216.61	5127.4	
216.82	5967.1	
217.04	3576.4	
217.25	3766.9	
217.46	6117.3	
217.67	5825.8	
217.89	3168.9	
218.1	3344.3	
218.31	5490.6	
218.53	5631.9	
218.74	3803.1	
218.95	3616.7	
219.16	5405.3	
219.38	6362.4	
219.59	3670	
219.8	4367	
220.01	6997.2	
220.23	5448.3	
220.44	4760.8	
220.65	3540.3	
220.87	5498.1	
221.08	6076.3	
221.29	3308.2	
221.5	4429.8	
221.72	7509.2	
221.93	5110.4	
222.14	4166.9	
222.35	4805.9	
222.57	5418.2	
222.78	5855.1	
222.99	3887	
223.2	4143.7	
223.42	5685.2	
223.63	5889.3	
223.84	2989.4	
224.05	2985.9	
224.27	6964.5	
224.48	6275	
224.69	4878.3	
224.9	4123.2	
225.12	5642.8	
225.33	5433.9	
225.54	3282.9	
225.75	3620.1	
225.97	5001.8	
226.18	5312.4	
226.39	3918.4	
226.6	3692.5	
226.82	5146.5	
227.03	5037.3	
227.24	4083	
227.45	3401.7	
227.67	5832.6	
227.88	6384.9	
228.09	4519.2	
228.3	4621.6	
228.52	5821	
228.73	5350	
228.94	3775.8	
229.15	3378.5	
229.36	5356.8	
229.58	5266.7	
229.79	3801	
230	4460.5	
230.21	6509.8	
230.43	5574.6	
230.64	4070.7	
230.85	4280.3	
231.06	5835.3	
231.28	5874.3	
231.49	3360.7	
231.7	3983.3	
231.91	5713.8	
232.12	5488.6	
232.34	3448.8	
232.55	4020.2	
232.76	6095.4	
232.97	5621.7	
233.18	3564.8	
233.4	4042	
233.61	5712.5	
233.82	5170.4	
234.03	3717.1	
234.25	3702	
234.46	7526.3	
234.67	5447.6	
234.88	4193.6	
235.09	3635.8	
235.31	5704.3	
235.52	5293.3	
235.73	4065.2	
235.94	3463.1	
236.15	5132.9	
236.37	6527.6	
236.58	3583.3	
236.79	3963.5	
237	5786.2	
237.21	4903.5	
237.43	4227.7	
237.64	3317	
237.85	9899.2	
238.06	4951.3	
238.27	4293.2	
238.48	3424.9	
238.7	5777.3	
238.91	5309	
239.12	3880.2	
239.33	3975.1	
239.54	5055.8	
239.76	5367	
239.97	3834.5	
240.18	3896.6	
240.39	6845	
240.6	5699.5	
240.82	4006.5	
241.03	3274.7	
241.24	5457.2	
241.45	6253.1	
241.66	3562.1	
241.87	4222.9	
242.09	6153.5	
242.3	6571.2	
242.51	4230.4	
242.72	3964.9	
242.93	5921.4	
243.14	5408.7	
243.36	4565.6	
243.57	4891.9	
243.78	6300.2	
243.99	5650.3	
244.2	3953.3	
244.41	3560.1	
244.63	4946.5	
244.84	5732.3	
245.05	4176.5	
245.26	3863.2	
245.47	5748.6	
245.68	6020.3	
245.9	5268.1	
246.11	4122.6	
246.32	5280.3	
246.53	5720	
246.74	6348.7	
246.95	3341.6	
247.16	4911	
247.38	5446.9	
247.59	3275.4	
247.8	3975.8	
248.01	5076.9	
248.22	5385.5	
248.43	3616	
248.64	3753.2	
248.86	4838	
249.07	5193	
249.28	3474.7	
249.49	4033.8	
249.7	6008.7	
249.91	6165.1	
250.12	3285.6	
250.34	3312.9	
250.55	5557.5	
250.76	5445.5	
250.97	4035.2	
251.18	4072	
251.39	6098.9	
251.6	5622.4	
251.81	4212.7	
252.03	4151.9	
252.24	5144.5	
252.45	5960.3	
252.66	3374.4	
252.87	4402.5	
253.08	5463.3	
253.29	7190.4	
253.5	3428.3	
253.72	4840.7	
253.93	5285.1	
254.14	6443.6	
254.35	3771	
254.56	3823.6	
254.77	5674.2	
254.98	5011.4	
255.19	3651.5	
255.41	4703.5	
255.62	5565	
255.83	6085.2	
256.04	4230.4	
256.25	4144.4	
256.46	6520	
256.67	5109	
256.88	4060.4	
257.09	4534.9	
257.31	5098.1	
257.52	5096.7	
257.73	5061.2	
257.94	3697.3	
258.15	5339.7	
258.36	5429.2	
258.57	4706.9	
258.78	2988.7	
258.99	5950	
259.2	5270.8	
259.41	3717.1	
259.63	3859.7	
259.84	6320.7	
260.05	6748.7	
260.26	4919.2	
260.47	3660.4	
260.68	6078.4	
260.89	5362.3	
261.1	4518.5	
261.31	3551.2	
261.52	6066.1	
261.73	6422.4	
261.95	4786.1	
262.16	4230.4	
262.37	6220.4	
262.58	6281.1	
262.79	4824.3	
263	3850.2	
263.21	5401.9	
263.42	4999.8	
263.63	3891.1	
263.84	3786.7	
264.05	5983.5	
264.26	6383.5	
264.47	4754	
264.69	4261.8	
264.9	6188.3	
265.11	5681.1	
265.32	3697.9	
265.53	3723.9	
265.74	5610.8	
265.95	4848.2	
266.16	3994.2	
266.37	4469.4	
266.58	5541.8	
266.79	5259.9	
267	3664.5	
267.21	3460.4	
267.42	5035.3	
267.63	5414.1	
267.84	3919.8	
268.06	3349.1	
268.27	5885.2	
268.48	6239.5	
268.69	3785.3	
268.9	4567	
269.11	6198.5	
269.32	4871.4	
269.53	3923.2	
269.74	3636.5	
269.95	5835.3	
270.16	4838	
270.37	3953.3	
270.58	4547.2	
270.79	5265.3	
271	5958.9	
271.21	4253.6	
271.42	3980.6	
271.63	5568.4	
271.84	5031.2	
272.05	3155.9	
272.26	3538.9	
272.47	5474.2	
272.68	5645.6	
272.89	3756.7	
273.11	4343.1	
273.32	5248.9	
273.53	6462	
273.74	4259.8	
273.95	4134.2	
274.16	6072.2	
274.37	5535.7	
274.58	4349.9	
274.79	3383.2	
275	5677.7	
275.21	6163	
275.42	5119.9	
275.63	4410	
275.84	5737.7	
276.05	7173.4	
276.26	4164.2	
276.47	3897.3	
276.68	5252.4	
276.89	6437.4	
277.1	4453	
277.31	3446	
277.52	5768.4	
277.73	5877	
277.94	3406.5	
278.15	3776.5	
278.36	5669.5	
278.57	5100.1	
278.78	3792.8	
278.99	4244.1	
279.2	5036	
279.41	5056.4	
279.62	4913.8	
279.83	3460.4	
280.04	6667.5	
280.25	4972.5	
280.46	4900.8	
280.67	3941	
280.88	5045.5	
281.09	6086.6	
281.3	4129.4	
281.51	5248.3	
281.72	5186.1	
281.93	5983.5	
282.14	3643.3	
282.35	4028.4	
282.56	5950	
282.77	5954.8	
282.98	3828.3	
283.19	4627	
283.4	7324.9	
283.61	5393.7	
283.82	3396.2	
284.03	4812	
284.24	5526.1	
284.45	6134.3	
284.66	4853.7	
284.87	4721.9	
285.08	6016.9	
285.29	6162.3	
285.5	3325.9	
285.71	3805.1	
285.92	6116.6	
286.12	6683.9	
286.33	4857.8	
286.54	3796.9	
286.75	5930.2	
286.96	5295.4	
287.17	3517.7	
287.38	4732.9	
287.59	5076.2	
287.8	5012.7	
288.01	3887.7	
288.22	4448.9	
288.43	6013.5	
288.64	4969.1	
288.85	4558.1	
289.06	4359.4	
289.27	5892.7	
289.48	6402.6	
289.69	4875.5	
289.9	4393.6	
290.11	6182.1	
290.32	5152	
290.53	4652.3	
290.74	4293.9	
290.94	5906.3	
291.15	5962.3	
291.36	3665.2	
291.57	4360.1	
291.78	5198.4	
291.99	4821.6	
292.2	3528	
292.41	4316.4	
292.62	5980.1	
292.83	5836	
293.04	5252.4	
293.25	3524.6	
293.46	5266.7	
293.67	6050.4	
293.88	3700	
294.09	3592.8	
294.29	4995	
294.5	5624.4	
294.71	3919.8	
294.92	3749.1	
295.13	5190.2	
295.34	6492.7	
295.55	3305.4	
295.76	3431.7	
295.97	5818.3	
296.18	6689.3	
296.39	3498.6	
296.6	3674.1	
296.81	5537	
297.01	5844.2	
297.22	3809.2	
297.43	3603.7	
297.64	5079.6	
297.85	5061.9	
298.06	3058.3	
298.27	3341.6	
298.48	5552	
298.69	5183.4	
298.9	4014.7	
299.11	3583.9	
299.31	4958.8	
299.52	5001.1	
299.73	4289.1	
299.94	4163.5	
300.15	5408.7	
300.36	5086.5	
300.57	4229.1	
300.78	4157.4	
300.99	5367	
301.2	5616.9	
301.4	3622.2	
301.61	3977.2	
301.82	5814.9	
302.03	5890	
302.24	4499.4	
302.45	3489.7	
302.66	5813.5	
302.87	6259.3	
303.08	3638.6	
303.29	5037.3	
303.49	5186.1	
303.7	5465.3	
303.91	3254.2	
304.12	4773.1	
304.33	4926	
304.54	5580	
304.75	3734.1	
304.96	3545.7	
305.16	5820.3	
305.37	6584.2	
305.58	3207.1	
305.79	3322.5	
306	5771.2	
306.21	4884.4	
306.42	3683.6	
306.63	5611.4	
306.83	5339.1	
307.04	6024.4	
307.25	4071.4	
307.46	4029	
307.67	4640	
307.88	5916.6	
308.09	3607.2	
308.29	3754.6	
308.5	5597.1	
308.71	6073.6	
308.92	3949.8	
309.13	3545.7	
309.34	5367.7	
309.55	5371.1	
309.75	4604.5	
309.96	4213.4	
310.17	5949.3	
310.38	5122.7	
310.59	4360.1	
310.8	3490.4	
311.01	5328.8	
311.21	5318.6	
311.42	3517	
311.63	3568.2	
311.84	5128.8	
312.05	5589.6	
312.26	4134.8	
312.46	4498	
312.67	5258.5	
312.88	4987.5	
313.09	3487	
313.3	3469.9	
313.51	6266.1	
313.71	6589	
313.92	3575.1	
314.13	3768.3	
314.34	5547.3	
314.55	5354.8	
314.76	4554.7	
314.96	4017.4	
315.17	5537	
315.38	5994.4	
315.59	3624.9	
315.8	3472	
316.01	6307.1	
316.21	6358.9	
316.42	3415.3	
316.63	3949.2	
316.84	5253.7	
317.05	6172.6	
317.26	4222.2	
317.46	3770.3	
317.67	5374.6	
317.88	5834.7	
318.09	4513.7	
318.3	3375.7	
318.5	5130.2	
318.71	5784.8	
318.92	5806.7	
319.13	4202.4	
319.34	5931.6	
319.54	6139.1	
319.75	3327.9	
319.96	3190.7	
320.17	5854.5	
320.38	6049	
320.58	3191.4	
320.79	3923.2	
321	6008.7	
321.21	6182.8	
321.42	3920.5	
321.62	3231.7	
321.83	5009.3	
322.04	5501.5	
322.25	3797.6	
322.46	3586.7	
322.66	5571.8	
322.87	5752.1	
323.08	4434.5	
323.29	3507.5	
323.5	6537.8	
323.7	5030.5	
323.91	4912.4	
324.12	4384	
324.33	5516.5	
324.53	5844.2	
324.74	4272.1	
324.95	4439.3	
325.16	4815.5	
325.37	5285.1	
325.57	3580.5	
325.78	3601	
325.99	5532.9	
326.2	4905.6	
326.4	5068.7	
326.61	3302.7	
326.82	5341.1	
327.03	5618.9	
327.24	5044.1	
327.44	4850.3	
327.65	5715.9	
327.86	4657.1	
328.07	4247.5	
328.27	3404.4	
328.48	6163.7	
328.69	5035.3	
328.9	5176.6	
329.1	3850.9	
329.31	5387.5	
329.52	6296.1	
329.73	3558.7	
329.93	4061.8	
330.14	5502.2	
330.35	5692	
330.56	5887.9	
330.76	4446.1	
330.97	5307	
331.18	5648.3	
331.39	4058.4	
331.59	3219.4	
331.8	5982.1	
332.01	6189	
332.22	3649.5	
332.42	4246.1	
332.63	5587.5	
332.84	5150	
333.05	3996.3	
333.25	3678.2	
333.46	5205.3	
333.67	5507.7	
333.88	3736.2	
334.08	4149.2	
334.29	7304.4	
334.5	6193.7	
334.7	3469.9	
334.91	5132.2	
335.12	5022.3	
335.33	5893.4	
335.53	3968.3	
335.74	5921.4	
335.95	5200.5	
336.16	5044.8	
336.36	3913.7	
336.57	4574.5	
336.78	4996.4	
336.98	6083.1	
337.19	4923.3	
337.4	3893.9	
337.61	6599.2	
337.81	5042.1	
338.02	3648.8	
338.23	4752.7	
338.43	6238.1	
338.64	5105.6	
338.85	3575.8	
339.05	4656.4	
339.26	6275	
339.47	4890.5	
339.68	3561.4	
339.88	5386.2	
340.09	5728.2	
340.3	5884.5	
340.5	4235.9	
340.71	3214.6	
340.92	4924	
341.13	6203.3	
341.33	3465.8	
341.54	4237.2	
341.75	5675.6	
341.95	5337	
342.16	3984.7	
342.37	4345.8	
342.57	5019.6	
342.78	5357.5	
342.99	4493.2	
343.19	3221.5	
343.4	5868.1	
343.61	5773.2	
343.81	3766.2	
344.02	3518.4	
344.23	5879.7	
344.43	6290	
344.64	4448.2	
344.85	4345.1	
345.06	5707.7	
345.26	6100.9	
345.47	4124.6	
345.68	4860.5	
345.88	4805.2	
346.09	5917.3	
346.3	4252.3	
346.5	3196.9	
346.71	5451.7	
346.92	5085.8	
347.12	3270.6	
347.33	4177.9	
347.54	6050.4	
347.74	6426.5	
347.95	4089.1	
348.16	3007.8	
348.36	5298.8	
348.57	4986.8	
348.78	4064.5	
348.98	4427	
349.19	5414.1	
349.39	4925.4	
349.6	3272.7	
349.81	3645.4	
350.01	5703.6	
350.22	5126.7	
350.43	3961.5	
350.63	4782	
350.84	5483.1	
351.05	5246.9	
351.25	3605.8	
351.46	3272	
351.67	6094.8	
351.87	5173.2	
352.08	3842	
352.29	4374.5	
352.49	5909.8	
352.7	5991	
352.9	3486.3	
353.11	4337.6	
353.32	6588.3	
353.52	5200.5	
353.73	3426.3	
353.94	4454.3	
354.14	5729.5	
354.35	5509.7	
354.55	3491.1	
354.76	3916.4	
354.97	5726.1	
355.17	5466	
355.38	3326.6	
355.59	4666	
355.79	5128.8	
356	5567.7	
356.2	3925.3	
356.41	3439.2	
356.62	4848.2	
356.82	5305.6	
357.03	4257	
357.24	3768.3	
357.44	5119.2	
357.65	5225.7	
357.85	5114.5	
358.06	3963.5	
358.27	4846.9	
358.47	5129.5	
358.68	3259.7	
358.88	4157.4	
359.09	5693.4	
359.3	6105.7	
359.5	4934.2	
359.71	4347.8	
359.91	6570.6	
360.12	5870.2	
360.33	4128	
360.53	4618.2	
360.74	5123.3	
360.94	5227.8	
361.15	4313	
361.36	3595.6	
361.56	5918.6	
361.77	5350.7	
361.97	4906.3	
362.18	3779.2	
362.38	5878.4	
362.59	5025	
362.8	3534.1	
363	3334.1	
363.21	4780	
363.41	5489.2	
363.62	4036.5	
363.83	5095.3	
364.03	5561.6	
364.24	6571.9	
364.44	5174.5	
364.65	5140.4	
364.85	5316.5	
365.06	5198.4	
365.27	3679.5	
365.47	3707.5	
365.68	6369.9	
365.88	5311.1	
366.09	4117.8	
366.29	3794.2	
366.5	5582.1	
366.71	5944.6	
366.91	5080.3	
367.12	4214.7	
367.32	6585.6	
367.53	5806.7	
367.73	4221.5	
367.94	5167.7	
368.14	5765	
368.35	6722.1	
368.56	4197	
368.76	3523.9	
368.97	5841.5	
369.17	7653.9	
369.38	3680.9	
369.58	3986	
369.79	4917.2	
369.99	6292	
370.2	4973.8	
370.4	4055.7	
370.61	5619.6	
370.82	6743.3	
371.02	3908.9	
371.23	3292.5	
371.43	4805.2	
371.64	6260	
371.84	4055	
372.05	5166.3	
372.25	7527	
372.46	5877	
372.66	3956.7	
372.87	3974.4	
373.07	5948.7	
373.28	7610.3	
373.48	4982.7	
373.69	4700.1	
373.9	5380	
374.1	5491.3	
374.31	4926.7	
374.51	4414.1	
374.72	6199.2	
374.92	5042.8	
375.13	5140.4	
375.33	4298	
375.54	5844.9	
375.74	5222.3	
375.95	4315.8	
376.15	5526.1	
376.36	5806	
376.56	5626.5	
376.77	4405.2	
376.97	4856.4	
377.18	6825.9	
377.38	5866.1	
377.59	5195.7	
377.79	3829.7	
378	5681.7	
378.2	6098.9	
378.41	3969	
378.61	3818.1	
378.82	6156.2	
379.02	5249.6	
379.23	4070	
379.43	5279	
379.64	6193.1	
379.84	5828.5	
380.05	3885	
380.25	3835.2	
380.46	5970.5	
380.66	5483.8	
380.87	5302.9	
381.07	5583.4	
381.28	6604	
381.48	5958.2	
381.69	3997.6	
381.89	4009.9	
382.1	4936.3	
382.3	6167.8	
382.51	5055.8	
382.71	6016.9	
382.91	5925.5	
383.12	6502.3	
383.32	4329.4	
383.53	4550.6	
383.73	5771.9	
383.94	5586.2	
384.14	4382.7	
384.35	3644.7	
384.55	5442.1	
384.76	5988.9	
384.96	4320.5	
385.17	4563.6	
385.37	5985.5	
385.58	5229.1	
385.78	4661.2	
385.98	3544.4	
386.19	5443.5	
386.39	5837.4	
386.6	4136.9	
386.8	4300.7	
387.01	5958.9	
387.21	5965.1	
387.42	4771.1	
387.62	5309.7	
387.83	5298.1	
388.03	5956.2	
388.23	4356.7	
388.44	5132.9	
388.64	4875.5	
388.85	5094	
389.05	4778.6	
389.26	5401.2	
389.46	6907.8	
389.67	6378.7	
389.87	4701.5	
390.07	4749.2	
390.28	5598.5	
390.48	5139	
390.69	3911.6	
390.89	4241.3	
391.1	5305.6	
391.3	6290.7	
391.5	5421	
391.71	6110.5	
391.91	6030.6	
392.12	7073.7	
392.32	5498.1	
392.53	4746.5	
392.73	5398.4	
392.93	5597.1	
393.14	4364.2	
393.34	5169.1	
393.55	6171.9	
393.75	5631.2	
393.95	4419.5	
394.16	4315.8	
394.36	5304.2	
394.57	6010.8	
394.77	3809.2	
394.98	4272.7	
395.18	5295.4	
395.38	5380.7	
395.59	5209.3	
395.79	4133.5	
396	5419.6	
396.2	5950.7	
396.4	4945.8	
396.61	4846.9	
396.81	6057.2	
397.02	5417.6	
397.22	5119.9	
397.42	5270.8	
397.63	6107	
397.83	5302.9	
398.04	3999.7	
398.24	4530.8	
398.44	5896.8	
398.65	4960.2	
398.85	3863.8	
399.05	3984	
399.26	5266	
399.46	6980.2	
399.67	4345.8	
399.87	4093.2	
400.07	5620.3	
400.28	6023.1	
400.48	4170.3	
400.69	5263.3	
400.89	6727.6	
401.09	6612.9	
401.3	4020.2	
401.5	5264	
401.7	6936.5	
401.91	7230.7	
402.11	4385.4	
402.32	4661.9	
402.52	6294.8	
402.72	6142.5	
402.93	4850.3	
403.13	3709.6	
403.33	7006.1	
403.54	5700.2	
403.74	4554.7	
403.94	5461.9	
404.15	5773.9	
404.35	6940.6	
404.56	4381.3	
404.76	6211.5	
404.96	6240.2	
405.17	6053.1	
405.37	5621	
405.57	4853	
405.78	6241.5	
405.98	5752.1	
406.18	4345.1	
406.39	5261.9	
406.59	6277.7	
406.79	5877.7	
407	4167.6	
407.2	4275.5	
407.4	6245.6	
407.61	6516.6	
407.81	4313.7	
408.01	6171.9	
408.22	5199.8	
408.42	7361.8	
408.62	5365	
408.83	4784.1	
409.03	5769.1	
409.23	5644.2	
409.44	4864.6	
409.64	5243.5	
409.84	6731.7	
410.05	6618.4	
410.25	5067.4	
410.45	4798.4	
410.66	6062	
410.86	8717.5	
411.06	5264.6	
411.27	5071.5	
411.47	8360.5	
411.67	6323.4	
411.88	5354.8	
412.08	5517.9	
412.28	6919.4	
412.49	7427.3	
412.69	5011.4	
412.89	5110.4	
413.09	7268.2	
413.3	7064.8	
413.5	5150	
413.7	4687.8	
413.91	6338.5	
414.11	7235.5	
414.31	4945.8	
414.52	5373.9	
414.72	6868.9	
414.92	6802.7	
415.12	4964.3	
415.33	5445.5	
415.53	7118.1	
415.73	7356.3	
415.94	5889.3	
416.14	5311.7	
416.34	6133	
416.55	5802.6	
416.75	6545.3	
416.95	5840.1	
417.15	7129	
417.36	7900.4	
417.56	6729.6	
417.76	5735	
417.97	7516	
418.17	7201.3	
418.37	5289.9	
418.57	5400.5	
418.78	6924.2	
418.98	6625.9	
419.18	6194.4	
419.38	6242.9	
419.59	6670.2	
419.79	6227.2	
419.99	5201.8	
420.2	5563	
420.4	7180.2	
420.6	7419.8	
420.8	5171.1	
421.01	4988.9	
421.21	6989.7	
421.41	7195.9	
421.61	5547.3	
421.82	5229.8	
422.02	6518	
422.22	7458.7	
422.42	5968.5	
422.63	5711.1	
422.83	6599.9	
423.03	7826	
423.23	5730.9	
423.44	4664.6	
423.64	6719.4	
423.84	6434.7	
424.04	5145.9	
424.25	4806.6	
424.45	7619.1	
424.65	7574.1	
424.85	4627.7	
425.06	5207.3	
425.26	7649.8	
425.46	6622.4	
425.66	5652.4	
425.87	5308.3	
426.07	7357	
426.27	7203.4	
426.47	5564.3	
426.67	4788.8	
426.88	7671	
427.08	7097.6	
427.28	5709.1	
427.48	4803.9	
427.69	6004.6	
427.89	6673.6	
428.09	5737.7	
428.29	4853.7	
428.5	7479.9	
428.7	6968.6	
428.9	4777.2	
429.1	5367.7	
429.3	6806.1	
429.51	7208.2	
429.71	5036.6	
429.91	5857.2	
430.11	7197.9	
430.31	7335.1	
430.52	5299.5	
430.72	5687.9	
430.92	7697.6	
431.12	7138.5	
431.32	5143.8	
431.53	5501.5	
431.73	6022.4	
431.93	7830.7	
432.13	4925.4	
432.33	4838.7	
432.54	6555.5	
432.74	6926.9	
432.94	4778.6	
433.14	5828.5	
433.34	7080.5	
433.55	6537.8	
433.75	5752.1	
433.95	7547.4	
434.15	6901	
434.35	6535.8	
434.56	4969.1	
434.76	4504.8	
434.96	6840.9	
435.16	7066.9	
435.36	4795.7	
435.56	5982.1	
435.77	6462	
435.97	6692.8	
436.17	6698.9	
436.37	5882.4	
436.57	6435.4	
436.78	6374.6	
436.98	7836.9	
437.18	6488.6	
437.38	7166.5	
437.58	6681.8	
437.78	6631.3	
437.99	5281.7	
438.19	7200.7	
438.39	8769.4	
438.59	5195	
438.79	4724.7	
438.99	7942	
439.2	6576	
439.4	4891.9	
439.6	4817.5	
439.8	7003.4	
440	8135.2	
440.2	5803.9	
440.4	5900.9	
440.61	7462.8	
440.81	7918.1	
441.01	5057.8	
441.21	5941.2	
441.41	7802.1	
441.61	7412.3	
441.81	6189.6	
442.02	7188.4	
442.22	8258.1	
442.42	7460.8	
442.62	5068	
442.82	5107	
443.02	7748.8	
443.22	6883.2	
443.43	5492	
443.63	5115.8	
443.83	6665.5	
444.03	6726.9	
444.23	6304.3	
444.43	5920.7	
444.63	6977.4	
444.83	8310	
445.04	5170.4	
445.24	6492.1	
445.44	7413.6	
445.64	7518.8	
445.84	5998.5	
446.04	6021	
446.24	6715.3	
446.44	7760.4	
446.65	5199.8	
446.85	5557.5	
447.05	6779.5	
447.25	7688.1	
447.45	5659.2	
447.65	4987.5	
447.85	7071	
448.05	6703	
448.25	6140.5	
448.46	5829.9	
448.66	7045	
448.86	6792.4	
449.06	4781.3	
449.26	6081.8	
449.46	7416.4	
449.66	6401.3	
449.86	5632.6	
450.06	5494	
450.26	6696.9	
450.47	7248.4	
450.67	5789.6	
450.87	6203.3	
451.07	7284.6	
451.27	7147.4	
451.47	5161.6	
451.67	5725.4	
451.87	6759.7	
452.07	7912.7	
452.27	5375.2	
452.47	5327.4	
452.67	7073	
452.88	7674.4	
453.08	4694.6	
453.28	6842.9	
453.48	8253.3	
453.68	7021.1	
453.88	5222.3	
454.08	5539.8	
454.28	7445	
454.48	7071.6	
454.68	6128.2	
454.88	6632.7	
455.08	7522.9	
455.28	7243.7	
455.48	5128.8	
455.68	5794.4	
455.89	8015.7	
456.09	7581.6	
456.29	5517.2	
456.49	5494.7	
456.69	7841.7	
456.89	7140.6	
457.09	6030.6	
457.29	6409.5	
457.49	7501.7	
457.69	7529	
457.89	5884.5	
458.09	5255.1	
458.29	7209.5	
458.49	7845.1	
458.69	6259.3	
458.89	5632.6	
459.09	8135.2	
459.29	8240.3	
459.49	5763	
459.69	6604	
459.9	7713.3	
460.1	7223.9	
460.3	5707.7	
460.5	5406.6	
460.7	7679.9	
460.9	7389.8	
461.1	5096	
461.3	6462.7	
461.5	8329.1	
461.7	7859.4	
461.9	5505.6	
462.1	6014.2	
462.3	7370.6	
462.5	8004.8	
462.7	5651.7	
462.9	5722.7	
463.1	9042.5	
463.3	8675.9	
463.5	5951.4	
463.7	6845.7	
463.9	7634.8	
464.1	7992.5	
464.3	5991	
464.5	6275	
464.7	8264.9	
464.9	7894.2	
465.1	7675.1	
465.3	6563.1	
465.5	8534.6	
465.7	8538	
465.9	6849.1	
466.1	6735.1	
466.3	8400.1	
466.5	8174.1	
466.7	7569.3	
466.9	6410.8	
467.1	8146.1	
467.3	9051.3	
467.5	7539.3	
467.7	6343.9	
467.9	9250.7	
468.1	10193	
468.3	7197.9	
468.5	7529.7	
468.7	7982.3	
468.9	8133.8	
469.1	6575.3	
469.3	7388.4	
469.5	10123	
469.7	7578.8	
469.9	7144.7	
470.1	6384.9	
470.3	8118.1	
470.5	8084	
470.7	7686.7	
470.9	6440.2	
471.1	7858.7	
471.3	8363.2	
471.5	6292.7	
471.69	8216.5	
471.89	7723.6	
472.09	7226.6	
472.29	7113.3	
472.49	7495.6	
472.69	7469.6	
472.89	8299.7	
473.09	6158.9	
473.29	6361	
473.49	7632.8	
473.69	7816.4	
473.89	7270.3	
474.09	6500.9	
474.29	9179	
474.49	8817.9	
474.69	7219.8	
474.89	6608.8	
475.09	7865.6	
475.29	7803.4	
475.49	5995.8	
475.69	6346.7	
475.88	9417.2	
476.08	8123.6	
476.28	5976.7	
476.48	6434	
476.68	8569.4	
476.88	8404.9	
477.08	6213.5	
477.28	6568.5	
477.48	7940	
477.68	8598.1	
477.88	6047	
478.08	6380.1	
478.28	8877.9	
478.48	8077.9	
478.67	6421.1	
478.87	5950	
479.07	8710.7	
479.27	8118.1	
479.47	6735.8	
479.67	6602.7	
479.87	8426	
480.07	9002.9	
480.27	5862.7	
480.47	7624.6	
480.67	8110	
480.87	8789.9	
481.06	6176	
481.26	7083.9	
481.46	8148.2	
481.66	7976.2	
481.86	6666.1	
482.06	7732.4	
482.26	7793.9	
482.46	8890.2	
482.66	6549.4	
482.86	6181.5	
483.05	8114.7	
483.25	7594.6	
483.45	9088.2	
483.65	6588.3	
483.85	7726.3	
484.05	8048.5	
484.25	7064.8	
484.45	7551.5	
484.65	8903.9	
484.84	9007.6	
485.04	6555.5	
485.24	6567.8	
485.44	9106.6	
485.64	7477.1	
485.84	5787.6	
486.04	7288	
486.24	7937.9	
486.44	8314.8	
486.63	5768.4	
486.83	6545.3	
487.03	7755	
487.23	8055.3	
487.43	5940.5	
487.63	8377.6	
487.83	8016.4	
488.02	9123.7	
488.22	6851.8	
488.42	7496.9	
488.62	8877.3	
488.82	7815.7	
489.02	6554.2	
489.22	6638.8	
489.41	8846.5	
489.61	8413.1	
489.81	6335.7	
490.01	6345.3	
490.21	8619.9	
490.41	9331.9	
490.61	6247	
490.8	6322.8	
491	8193.2	
491.2	7489.4	
491.4	7036.8	
491.6	6124.1	
491.8	8234.9	
491.99	8402.1	
492.19	5913.2	
492.39	6396.5	
492.59	8854.7	
492.79	8927.8	
492.99	7296.9	
493.18	6310.5	
493.38	8995.4	
493.58	9629.5	
493.78	7053.2	
493.98	6584.2	
494.18	8613.8	
494.37	7985.7	
494.57	7279.2	
494.77	7206.1	
494.97	8826.1	
495.17	9039.1	
495.37	6757.6	
495.56	7040.2	
495.76	9268.4	
495.96	8820.6	
496.16	7900.4	
496.36	6894.8	
496.55	8943.5	
496.75	8566.7	
496.95	7264.8	
497.15	7027.9	
497.35	8891.6	
497.54	8990.6	
497.74	6876.4	
497.94	8699.8	
498.14	9745.6	
498.34	9511.4	
498.53	6596.5	
498.73	7461.4	
498.93	8388.5	
499.13	9068.4	
499.33	7324.9	
499.52	7841.7	
499.72	8963.3	
499.92	9250.7	
500.12	6854.6	
500.32	7179.5	
500.51	9235	
500.71	9025.4	
500.91	7971.4	
501.11	7589.8	
501.31	9188.6	
501.5	9557.9	
501.7	8250.6	
501.9	7165.2	
502.1	8931.2	
502.29	9198.8	
502.49	7630	
502.69	8185.7	
502.89	9097.1	
503.09	9144.9	
503.28	6651.8	
503.48	6742.6	
503.68	8326.4	
503.88	8412.4	
504.07	7832.1	
504.27	7300.3	
504.47	8723	
504.67	8856.8	
504.86	7718.8	
505.06	7310.6	
505.26	8489.5	
505.46	10297	
505.65	7188.4	
505.85	7503.8	
506.05	8333.9	
506.25	8787.2	
506.44	6664.1	
506.64	7486.7	
506.84	8255.4	
507.04	9235.7	
507.23	6810.2	
507.43	7383.6	
507.63	10290	
507.83	8576.9	
508.02	7344	
508.22	6982.9	
508.42	10578	
508.62	8253.3	
508.81	7268.2	
509.01	7776.1	
509.21	8134.5	
509.4	8422.6	
509.6	7460.1	
509.8	6795.2	
510	8403.5	
510.19	9905.3	
510.39	6771.9	
510.59	6875	
510.79	8107.2	
510.98	9579.7	
511.18	6871.6	
511.38	6987	
511.57	9031.5	
511.77	8902.5	
511.97	7693.5	
512.17	6674.3	
512.36	9086.8	
512.56	9054.8	
512.76	6747.4	
512.95	6539.8	
513.15	9248.6	
513.35	7736.5	
513.55	7662.8	
513.74	6763.8	
513.94	9173.5	
514.14	8469.7	
514.33	7793.9	
514.53	7520.1	
514.73	8487.5	
514.92	8752.3	
515.12	7013.6	
515.32	6882.5	
515.51	8772.1	
515.71	9346.9	
515.91	8615.1	
516.11	6936.5	
516.3	10669	
516.5	8409	
516.7	7453.2	
516.89	8163.2	
517.09	8581	
517.29	8404.2	
517.48	7735.9	
517.68	7163.1	
517.88	8310.7	
518.07	8887.5	
518.27	7610.3	
518.47	6765.1	
518.66	9448.6	
518.86	8105.9	
519.06	6558.3	
519.25	7000	
519.45	8452	
519.65	10047	
519.84	7669.6	
520.04	8391.2	
520.24	10315	
520.43	9173.5	
520.63	7469.6	
520.83	7089.4	
521.02	8329.1	
521.22	9065	
521.42	7745.4	
521.61	8183.7	
521.81	8486.8	
522.01	8734.6	
522.2	7569.3	
522.4	7299.6	
522.6	9190.6	
522.79	8047.2	
522.99	7496.2	
523.18	6711.9	
523.38	9022.7	
523.58	9064.3	
523.77	8781.7	
523.97	6755.6	
524.17	11013	
524.36	10079	
524.56	8170.7	
524.76	7738.6	
524.95	9028.8	
525.15	8751	
525.34	7612.3	
525.54	7569.3	
525.74	9509.4	
525.93	8366.6	
526.13	8862.9	
526.33	7555.6	
526.52	9832.3	
526.72	9232.2	
526.91	8856.1	
527.11	8059.4	
527.31	9890.3	
527.5	10300	
527.7	8011.7	
527.89	7036.8	
528.09	8708.6	
528.29	9395.4	
528.48	8453.3	
528.68	8133.8	
528.87	9714.9	
529.07	9718.3	
529.27	7996.6	
529.46	7416.4	
529.66	9265	
529.85	9762.7	
530.05	7216.4	
530.25	8086.1	
530.44	10835	
530.64	9344.2	
530.83	7752.2	
531.03	8084	
531.23	9754.5	
531.42	9579	
531.62	8796	
531.81	7940.7	
532.01	9934	
532.21	10501	
532.4	7725.6	
532.6	8090.2	
532.79	10778	
532.99	9970.9	
533.18	8140.7	
533.38	9204.9	
533.58	9546.9	
533.77	10305	
533.97	8099.7	
534.16	8927.1	
534.36	10501	
534.55	9682.8	
534.75	9318.9	
534.95	8210.3	
535.14	10352	
535.34	9563.3	
535.53	7862.8	
535.73	9927.2	
535.92	10985	
536.12	9770.2	
536.31	7951.6	
536.51	9268.4	
536.71	10053	
536.9	9714.9	
537.1	8188.5	
537.29	8400.1	
537.49	10592	
537.68	9580.4	
537.88	8785.8	
538.07	7953.6	
538.27	9886.2	
538.46	10855	
538.66	7786.4	
538.86	8387.1	
539.05	9944.9	
539.25	10254	
539.44	8480.6	
539.64	8215.8	
539.83	9699.2	
540.03	10798	
540.22	8034.2	
540.42	8192.6	
540.61	9950.4	
540.81	10121	
541	8686.1	
541.2	9272.5	
541.39	9505.3	
541.59	9894.4	
541.78	8945.5	
541.98	8015.1	
542.18	9146.9	
542.37	9207	
542.57	8402.8	
542.76	9024.7	
542.96	9166.7	
543.15	9966.8	
543.35	8378.2	
543.54	7801.4	
543.74	10169	
543.93	9783.8	
544.13	8428.1	
544.32	9514.9	
544.52	10114	
544.71	9349	
544.91	7461.4	
545.1	8822.6	
545.3	9318.3	
545.49	10118	
545.69	7460.1	
545.88	8077.9	
546.08	11058	
546.27	10610	
546.47	8626	
546.66	7805.5	
546.86	10354	
547.05	10943	
547.24	8086.7	
547.44	7950.9	
547.63	9159.2	
547.83	10411	
548.02	8372.1	
548.22	8523	
548.41	9077.3	
548.61	10423	
548.8	7959.1	
549	7822.6	
549.19	9661	
549.39	9983.8	
549.58	7466.2	
549.78	8178.2	
549.97	10074	
550.17	9581.1	
550.36	8970.8	
550.55	10142	
550.75	9639.8	
550.94	10510	
551.14	7763.8	
551.33	8238.3	
551.53	8910	
551.72	10026	
551.92	8236.9	
552.11	8034.9	
552.31	9882.8	
552.5	10003	
552.69	9833.7	
552.89	7629.4	
553.08	9858.2	
553.28	9525.8	
553.47	8074.5	
553.67	9230.9	
553.86	10617	
554.06	8858.8	
554.25	7218.4	
554.44	7860.1	
554.64	11400	
554.83	10924	
555.03	7731.1	
555.22	8110.6	
555.42	10065	
555.61	9781.1	
555.8	7965.9	
556	8303.8	
556.19	8819.9	
556.39	10258	
556.58	8069.7	
556.78	7968	
556.97	9677.3	
557.16	9402.2	
557.36	9342.2	
557.55	7567.9	
557.75	8712.7	
557.94	10517	
558.13	7777.5	
558.33	7522.2	
558.52	10312	
558.72	9178.3	
558.91	7576.1	
559.1	7822.6	
559.3	8823.3	
559.49	8565.3	
559.69	7120.1	
559.88	8224	
560.07	9678	
560.27	10120	
560.46	8293.6	
560.66	8544.8	
560.85	9422	
561.04	8624.7	
561.24	7602.7	
561.43	7752.9	
561.63	8869.1	
561.82	9209.7	
562.01	9078	
562.21	8156.4	
562.4	9680.1	
562.59	10602	
562.79	7942	
562.98	7593.2	
563.18	9599.5	
563.37	11118	
563.56	8503.8	
563.76	7549.5	
563.95	8916.2	
564.14	8932.6	
564.34	7811.6	
564.53	7628	
564.73	9437.7	
564.92	9869.8	
565.11	8038.3	
565.31	7374.7	
565.5	10047	
565.69	9005.6	
565.89	7634.1	
566.08	7870.3	
566.27	9906.7	
566.47	10454	
566.66	8559.8	
566.85	7165.2	
567.05	9525.8	
567.24	8880	
567.44	7446.4	
567.63	9009.7	
567.82	9823.4	
568.02	9510.1	
568.21	7520.8	
568.4	7929.7	
568.6	9311.4	
568.79	9393.4	
568.98	7434.8	
569.18	7501.7	
569.37	9322.4	
569.56	11364	
569.76	7899	
569.95	8718.9	
570.14	9781.1	
570.34	9557.2	
570.53	7408.2	
570.72	7293.5	
570.91	10122	
571.11	9172.2	
571.3	7750.9	
571.49	8637	
571.69	9279.3	
571.88	8807.6	
572.07	8392.6	
572.27	8254.7	
572.46	8720.3	
572.65	9846.6	
572.85	7460.1	
573.04	7951.6	
573.23	10000	
573.43	9305.3	
573.62	7214.3	
573.81	8027.4	
574	9401.5	
574.2	9207.7	
574.39	7638.2	
574.58	7812.3	
574.78	10193	
574.97	9478	
575.16	8118.1	
575.36	8373.5	
575.55	9846.6	
575.74	10004	
575.93	7243	
576.13	8429.4	
576.32	9219.3	
576.51	9707.4	
576.71	7724.3	
576.9	9586.5	
577.09	10129	
577.28	9601.6	
577.48	8217.1	
577.67	7160.4	
577.86	9171.5	
578.05	9479.4	
578.25	7802.1	
578.44	7928.4	
578.63	9432.9	
578.83	10574	
579.02	7160.4	
579.21	8665	
579.4	9613.2	
579.6	9191.3	
579.79	7963.9	
579.98	10254	
580.17	9948.3	
580.37	9907.4	
580.56	7413	
580.75	8145.5	
580.94	10436	
581.14	10291	
581.33	8712.1	
581.52	7654.6	
581.71	9830.2	
581.91	10467	
582.1	7310.6	
582.29	7927	
582.48	9399.5	
582.68	9297.1	
582.87	8414.4	
583.06	7943.4	
583.25	9828.2	
583.45	9164	
583.64	8658.1	
583.83	9422	
584.02	9245.9	
584.21	9669.1	
584.41	8722.3	
584.6	7904.5	
584.79	9390.6	
584.98	10252	
585.18	7375.4	
585.37	7374.1	
585.56	9007	
585.75	9742.9	
585.94	7617.8	
586.14	8307.9	
586.33	10269	
586.52	9437.7	
586.71	8100.4	
586.91	7846.5	
587.1	8682.7	
587.29	9719.7	
587.48	7731.1	
587.67	7604.1	
587.87	9565.4	
588.06	9759.9	
588.25	8854.7	
588.44	8242.4	
588.63	9144.9	
588.83	9721.7	
589.02	7432.1	
589.21	7264.1	
589.4	8826.7	
589.59	8648.6	
589.78	6516	
589.98	6774	
590.17	8284	
590.36	8862.9	
590.55	6177.4	
590.74	7044.3	
590.94	10267	
591.13	8716.2	
591.32	6791.1	
591.51	6252.4	
591.7	9142.1	
591.89	8597.4	
592.09	6496.8	
592.28	6974.7	
592.47	7869.7	
592.66	9731.9	
592.85	6488.6	
593.05	6716	
593.24	8508.6	
593.43	9316.2	
593.62	6772.6	
593.81	7387	
594	8596	
594.19	8847.2	
594.39	6769.9	
594.58	6666.8	
594.77	8907.3	
594.96	9518.3	
595.15	6561	
595.34	7292.1	
595.54	8953.7	
595.73	7985	
595.92	5934.3	
596.11	7232.7	
596.3	9495.1	
596.49	8118.1	
596.68	6898.2	
596.88	7395.9	
597.07	9274.6	
597.26	8025.3	
597.45	6479.8	
597.64	7751.6	
597.83	8228.7	
598.02	8940.1	
598.22	6554.2	
598.41	7324.2	
598.6	8714.8	
598.79	8140	
598.98	6740.5	
599.17	7582.9	
599.36	8735.3	
599.55	9889.6	
599.74	8753.7	
599.94	8560.5	
600.13	9400.9	
600.32	8224	
600.51	6415.6	
600.7	6656.6	
600.89	10008	
601.08	10105	
601.27	6368.5	
601.47	7415	
601.66	9219.3	
601.85	9951.1	
602.04	7127.6	
602.23	7362.4	
602.42	8348.9	
602.61	8974.9	
602.8	7024.5	
602.99	6837.5	
603.18	8737.3	
603.37	8980.3	
603.57	7538.6	
603.76	8127.7	
603.95	9720.3	
604.14	9315.5	
604.33	6890	
604.52	7185	
604.71	8850.6	
604.9	8548.9	
605.09	7914	
605.28	7640.3	
605.47	9540.1	
605.66	9187.2	
605.86	7490.1	
606.05	6931.7	
606.24	9477.3	
606.43	8058.1	
606.62	7211.6	
606.81	8002.1	
607	9369.5	
607.19	8634.9	
607.38	6612.9	
607.57	6956.3	
607.76	8484.7	
607.95	7892.9	
608.14	7333.1	
608.33	7889.5	
608.52	8447.2	
608.72	9361.3	
608.91	6560.3	
609.1	6411.5	
609.29	8480	
609.48	7955	
609.67	7507.9	
609.86	6496.2	
610.05	8130.4	
610.24	8531.8	
610.43	6404.7	
610.62	6025.8	
610.81	9641.8	
611	9417.2	
611.19	6468.9	
611.38	7358.4	
611.57	8723.7	
611.76	10109	
611.95	6242.2	
612.14	6132.3	
612.33	8485.4	
612.52	8168	
612.71	6842.3	
612.9	6076.3	
613.09	7748.1	
613.28	10069	
613.47	6501.6	
613.66	7600	
613.85	8696.4	
614.04	8183.7	
614.24	6620.4	
614.43	5957.5	
614.62	8798.1	
614.81	8802.2	
615	7294.9	
615.19	7238.9	
615.38	8045.8	
615.57	8453.3	
615.76	7075	
615.95	8058.1	
616.14	8838.4	
616.33	8500.4	
616.52	7378.8	
616.71	7729	
616.9	8741.4	
617.09	8637.6	
617.28	6759	
617.47	8116.8	
617.66	7909.3	
617.85	7889.5	
618.04	7645.8	
618.22	7031.4	
618.41	8240.3	
618.6	9211.1	
618.79	7062.8	
618.98	6707.1	
619.17	9435.7	
619.36	7748.1	
619.55	6854.6	
619.74	6859.3	
619.93	8704.5	
620.12	8093.6	
620.31	7479.2	
620.5	7628.7	
620.69	9690.3	
620.88	9669.8	
621.07	8328.4	
621.26	7295.5	
621.45	8848.6	
621.64	8871.8	
621.83	7472.4	
622.02	6593.1	
622.21	8939.4	
622.4	8634.2	
622.59	7984.3	
622.78	7819.8	
622.97	8283.4	
623.16	9272.5	
623.35	7318.8	
623.54	6522.8	
623.72	8461.5	
623.91	8668.4	
624.1	7596.6	
624.29	6345.3	
624.48	9710.1	
624.67	8914.1	
624.86	7473	
625.05	6573.3	
625.24	9794.8	
625.43	8121.6	
625.62	9162.6	
625.81	6728.9	
626	9213.1	
626.19	8488.8	
626.38	7563.1	
626.56	6978.8	
626.75	8139.3	
626.94	8997.4	
627.13	7410.9	
627.32	6170.5	
627.51	8852.7	
627.7	10279	
627.89	6318	
628.08	7453.9	
628.27	7974.8	
628.46	8279.9	
628.65	6652.5	
628.83	6217	
629.02	8867.7	
629.21	8156.4	
629.4	7163.1	
629.59	7288	
629.78	8068.3	
629.97	9056.1	
630.16	7338.6	
630.35	6818.4	
630.54	9463	
630.72	9169.4	
630.91	6752.2	
631.1	7340.6	
631.29	8679.3	
631.48	8813.8	
631.67	7439.6	
631.86	6905.8	
632.05	8239.7	
632.24	8335.9	
632.42	6517.3	
632.61	7176.8	
632.8	8377.6	
632.99	8060.8	
633.18	7229.3	
633.37	7562.5	
633.56	8673.8	
633.75	8547.5	
633.93	7177.4	
634.12	6802	
634.31	9385.8	
634.5	9146.9	
634.69	6820.4	
634.88	7474.4	
635.07	8531.8	
635.25	9060.9	
635.44	7788.4	
635.63	8072.4	
635.82	8236.2	
636.01	7893.6	
636.2	7841	
636.39	7329.7	
636.57	9450.7	
636.76	9154.4	
636.95	6728.9	
637.14	8193.2	
637.33	8763.3	
637.52	9786.6	
637.7	6460	
637.89	7522.2	
638.08	8310	
638.27	9863	
638.46	7455.3	
638.65	8078.6	
638.83	9870.5	
639.02	8124.3	
639.21	7438.2	
639.4	7938.6	
639.59	8731.9	
639.78	8242.4	
639.96	6741.9	
640.15	6729.6	
640.34	8423.3	
640.53	8653.4	
640.72	6446.3	
640.91	6757.6	
641.09	7919.5	
641.28	9325.8	
641.47	6718	
641.66	7649.8	
641.85	8667.7	
642.03	8957.1	
642.22	7338.6	
642.41	6776.7	
642.6	8023.3	
642.79	7386.3	
642.97	6606.7	
643.16	7341.3	
643.35	7969.3	
643.54	7807.5	
643.73	6468.2	
643.91	7257.3	
644.1	7590.5	
644.29	8208.3	
644.48	6569.9	
644.67	6586.3	
644.85	7790.5	
645.04	8056	
645.23	6041.5	
645.42	6384.9	
645.6	7473	
645.79	8723	
645.98	6311.2	
646.17	5329.5	
646.36	7288	
646.54	7881.9	
646.73	7118.7	
646.92	5903.6	
647.11	7501	
647.29	8609	
647.48	5967.1	
647.67	5713.8	
647.86	8893	
648.05	8895.7	
648.23	6369.9	
648.42	7629.4	
648.61	8171.4	
648.8	7957.7	
648.98	5957.5	
649.17	6369.9	
649.36	7524.2	
649.55	7035.5	
649.73	6031.3	
649.92	6838.9	
650.11	7417.7	
650.3	7775.5	
650.48	6154.8	
650.67	5936.4	
650.86	8036.2	
651.05	6881.9	
651.23	6165.8	
651.42	6096.8	
651.61	7445.7	
651.79	7607.5	
651.98	6307.7	
652.17	5971.9	
652.36	7997.3	
652.54	7114.6	
652.73	6016.9	
652.92	5739.8	
653.11	8002.8	
653.29	8024.6	
653.48	5276.3	
653.67	6348.7	
653.85	7739.3	
654.04	8806.3	
654.23	6555.5	
654.42	5954.1	
654.6	7247.8	
654.79	7894.2	
654.98	5445.5	
655.16	5995.1	
655.35	6802.7	
655.54	6875	
655.73	5580.7	
655.91	5514.5	
656.1	8035.5	
656.29	6795.2	
656.47	5102.2	
656.66	6840.9	
656.85	7154.2	
657.03	7126.9	
657.22	5699.5	
657.41	5734.3	
657.59	7183.6	
657.78	7035.5	
657.97	5376.6	
658.16	6151.4	
658.34	7883.3	
658.53	8260.1	
658.72	7000	
658.9	7550.2	
659.09	7288.7	
659.28	7502.4	
659.46	5829.9	
659.65	5786.9	
659.84	7137.9	
660.02	7716.7	
660.21	5646.2	
660.4	5657.2	
660.58	8122.9	
660.77	7430.7	
660.96	6284.5	
661.14	5303.6	
661.33	8628.8	
661.52	8512.7	
661.7	5223	
661.89	9041.1	
662.08	7069.6	
662.26	6638.8	
662.45	5539.1	
662.64	5680.4	
662.82	7735.9	
663.01	6853.2	
663.2	5704.3	
663.38	6561	
663.57	7691.5	
663.75	7550.9	
663.94	5950.7	
664.13	7246.4	
664.31	6959.7	
664.5	7680.6	
664.69	6350.1	
664.87	6756.2	
665.06	6777.4	
665.25	7544	
665.43	7064.8	
665.62	7129.7	
665.8	7883.3	
665.99	7111.9	
666.18	6010.8	
666.36	6104.3	
666.55	7773.4	
666.74	7718.1	
666.92	5585.5	
667.11	7280.5	
667.29	7174	
667.48	7723.6	
667.67	6920.8	
667.85	5984.8	
668.04	7216.4	
668.22	7141.3	
668.41	6084.5	
668.6	6210.1	
668.78	6989.7	
668.97	7128.3	
669.15	6496.8	
669.34	5336.3	
669.53	6967.9	
669.71	7247.1	
669.9	5524.1	
670.08	6189	
670.27	6971.3	
670.46	7535.8	
670.64	6461.3	
670.83	6730.3	
671.01	6886	
671.2	7463.5	
671.38	5574.6	
671.57	5452.4	
671.76	8129.8	
671.94	8723	
672.13	5446.2	
672.31	6605.4	
672.5	7692.9	
672.69	7017	
672.87	5612.8	
673.06	6032	
673.24	7503.1	
673.43	6983.6	
673.61	6369.2	
673.8	5909.8	
673.98	7716.7	
674.17	7804.8	
674.36	6533	
674.54	6333	
674.73	7431.4	
674.91	7745.4	
675.1	6053.1	
675.28	5674.2	
675.47	7266.9	
675.65	7703.1	
675.84	5893.4	
676.03	6202.6	
676.21	6972.7	
676.4	6555.5	
676.58	6711.9	
676.77	6464.1	
676.95	8550.3	
677.14	6907.8	
677.32	5624.4	
677.51	5298.8	
677.69	7789.1	
677.88	6550.8	
678.06	5438	
678.25	5517.2	
678.44	7258	
678.62	6950.1	
678.81	5287.2	
678.99	6305.7	
679.18	8028.7	
679.36	7672.4	
679.55	5899.5	
679.73	6571.9	
679.92	7597.3	
680.1	7064.1	
680.29	7079.8	
680.47	5823.7	
680.66	6939.9	
680.84	7749.5	
681.03	5170.4	
681.21	6305	
681.4	6931.7	
681.58	6855.9	
681.77	5663.3	
681.95	5581.4	
682.14	7836.2	
682.32	8213	
682.51	6495.5	
682.69	5360.2	
682.88	6843.6	
683.06	7555	
683.25	6259.3	
683.43	6734.4	
683.62	7160.4	
683.8	7572	
683.99	6690.7	
684.17	5963	
684.36	8415.1	
684.54	7102.4	
684.73	5173.9	
684.91	5287.2	
685.1	7239.6	
685.28	6673.6	
685.46	5970.5	
685.65	6055.8	
685.83	7645.8	
686.02	6976.7	
686.2	5483.8	
686.39	5662.6	
686.57	6574.7	
686.76	8305.2	
686.94	5542.5	
687.13	5666	
687.31	7500.3	
687.5	6977.4	
687.68	5053	
687.86	6438.8	
688.05	8639	
688.23	6496.2	
688.42	6420.4	
688.6	5573.9	
688.79	6921.5	
688.97	6964.5	
689.16	6010.1	
689.34	4914.4	
689.52	7754.3	
689.71	7897	
689.89	6315.3	
690.08	5591	
690.26	7138.5	
690.45	7077.1	
690.63	6490	
690.81	5728.9	
691	6942.6	
691.18	6888.7	
691.37	5917.9	
691.55	8061.5	
691.74	6815.6	
691.92	8906.6	
692.1	5881.8	
692.29	5328.1	
692.47	7095.5	
692.66	6416.3	
692.84	5530.2	
693.02	6292	
693.21	6563.1	
693.39	7089.4	
693.58	6286.6	
693.76	5763.7	
693.94	8460.2	
694.13	8178.2	
694.31	5719.3	
694.5	6839.5	
694.68	7053.2	
694.86	7339.2	
695.05	6139.1	
695.23	6602	
695.42	7738.6	
695.6	10116	
695.78	6856.6	
695.97	5949.3	
696.15	7851.2	
696.34	7090.1	
696.52	5648.3	
696.7	6534.4	
696.89	7553.6	
697.07	7040.2	
697.25	6439.5	
697.44	8070.4	
697.62	7535.8	
697.81	7991.2	
697.99	6081.1	
698.17	6660.7	
698.36	6882.5	
698.54	7544	
698.72	6518	
698.91	5515.2	
699.09	7195.9	
699.28	7125.6	
699.46	6190.3	
699.64	6085.2	
699.83	7081.2	
700.01	8449.9	
700.19	6845	
700.38	5348.6	
700.56	8316.1	
700.74	7241.6	
700.93	5817.6	
701.11	6613.6	
701.29	7900.4	
701.48	8961.2	
701.66	6029.2	
701.84	6143.9	
702.03	7462.1	
702.21	8150.2	
702.39	5673.6	
702.58	6393.8	
702.76	7899.7	
702.94	7965.2	
703.13	5752.7	
703.31	8251.3	
703.49	7222.5	
703.68	8450.6	
703.86	5918.6	
704.04	6995.9	
704.23	7754.3	
704.41	8170.7	
704.59	6128.9	
704.78	7479.2	
704.96	8926.4	
705.14	8294.3	
705.33	6042.9	
705.51	6844.3	
705.69	7727	
705.87	8586.5	
706.06	7120.1	
706.24	5973.9	
706.42	8130.4	
706.61	8375.5	
706.79	7195.2	
706.97	6111.8	
707.16	7584.3	
707.34	8192.6	
707.52	7248.4	
707.7	6335.1	
707.89	7842.4	
708.07	7549.5	
708.25	7288.7	
708.44	7363.8	
708.62	7773.4	
708.8	8883.4	
708.98	7562.5	
709.17	6468.2	
709.35	8185.7	
709.53	8256	
709.72	6176.7	
709.9	6434.7	
710.08	8497	
710.26	8501.1	
710.45	7974.1	
710.63	6579.4	
710.81	8132.5	
710.99	8216.5	
711.18	7200	
711.36	6638.8	
711.54	7920.9	
711.72	8734.6	
711.91	6816.3	
712.09	6128.9	
712.27	7998.7	
712.45	8697	
712.64	7040.2	
712.82	5961	
713	7394.5	
713.18	7589.1	
713.37	5905.7	
713.55	7100.3	
713.73	8323.6	
713.91	6806.1	
714.1	6078.4	
714.28	5513.8	
714.46	7746.1	
714.64	6907.8	
714.83	4907.6	
715.01	5735.7	
715.19	6907.1	
715.37	6376.7	
715.55	5390.3	
715.74	5702.9	
715.92	7907.2	
716.1	5842.9	
716.28	6918	
716.47	5857.9	
716.65	6526.9	
716.83	6724.2	
717.01	5722.7	
717.19	5851	
717.38	8895	
717.56	6397.9	
717.74	6178.7	
717.92	5328.8	
718.1	7888.8	
718.29	7049.8	
718.47	5004.6	
718.65	5762.3	
718.83	7821.2	
719.01	7755.7	
719.2	5072.1	
719.38	6147.3	
719.56	7505.1	
719.74	9138	
719.92	5644.9	
720.11	6750.8	
720.29	7471	
720.47	6577.4	
720.65	5197.7	
720.83	6035.4	
721.02	6848.4	
721.2	6574.7	
721.38	5998.5	
721.56	5251	
721.74	6107.7	
721.92	6328.9	
722.11	6462.7	
722.29	6214.2	
722.47	7637.6	
722.65	6714.6	
722.83	5309.7	
723.01	6280.4	
723.2	6804	
723.38	7120.1	
723.56	4717.2	
723.74	5926.8	
723.92	6278.4	
724.1	7550.9	
724.29	5232.6	
724.47	6457.2	
724.65	6411.5	
724.83	6361.7	
725.01	5197.1	
725.19	6114.6	
725.37	6404.7	
725.56	6566.5	
725.74	5059.8	
725.92	5366.4	
726.1	6374.6	
726.28	6707.1	
726.46	5822.4	
726.64	5514.5	
726.83	6719.4	
727.01	6956.9	
727.19	5042.8	
727.37	5943.2	
727.55	6844.3	
727.73	7393.2	
727.91	5045.5	
728.09	4913.1	
728.28	7529.7	
728.46	8114.1	
728.64	6176.7	
728.82	6075	
729	8772.1	
729.18	7987.8	
729.36	5496.1	
729.54	7955.7	
729.72	9199.5	
729.91	7432.8	
730.09	7567.2	
730.27	6291.4	
730.45	7344	
730.63	8073.8	
730.81	7082.6	
730.99	6038.1	
731.17	8617.9	
731.35	7128.3	
731.53	6616.3	
731.71	6102.9	
731.9	8285.4	
732.08	8460.8	
732.26	6397.2	
732.44	6124.8	
732.62	8475.2	
732.8	8074.5	
732.98	6843.6	
733.16	5870.8	
733.34	7990.5	
733.52	6843.6	
733.7	6489.3	
733.88	6685.9	
734.07	7877.2	
734.25	7709.9	
734.43	5898.8	
734.61	7545.4	
734.79	9233.6	
734.97	7605.5	
735.15	6019.7	
735.33	6412.2	
735.51	8029.4	
735.69	7559.7	
735.87	7619.8	
736.05	6724.8	
736.23	7862.8	
736.41	7633.5	
736.59	6608.1	
736.77	6746.7	
736.95	8353.7	
737.13	7792.5	
737.32	6195.8	
737.5	6539.8	
737.68	8928.5	
737.86	7768.6	
738.04	6087.9	
738.22	7972.7	
738.4	7508.5	
738.58	7793.9	
738.76	6787	
738.94	5679.7	
739.12	7636.9	
739.3	7518.8	
739.48	7483.3	
739.66	7141.9	
739.84	7978.9	
740.02	8032.8	
740.2	5754.8	
740.38	6250.4	
740.56	8432.9	
740.74	7268.2	
740.92	6905.8	
741.1	6815.6	
741.28	7752.2	
741.46	7636.2	
741.64	6296.1	
741.82	7012.9	
742	7782.3	
742.18	7791.8	
742.36	6718.7	
742.54	6180.1	
742.72	8512	
742.9	7132.4	
743.08	6956.9	
743.26	5816.2	
743.44	8581	
743.62	8369.4	
743.8	7243	
743.98	6146.6	
744.16	8122.2	
744.34	7800	
744.52	7048.4	
744.7	6942.6	
744.88	8211.7	
745.06	7746.1	
745.24	7057.3	
745.42	7172	
745.6	8234.9	
745.78	8004.8	
745.96	5831.9	
746.14	6202.6	
746.32	9002.9	
746.5	8213	
746.68	6835.4	
746.86	6128.9	
747.03	8664.3	
747.21	6988.4	
747.39	6741.2	
747.57	6209.4	
747.75	7836.9	
747.93	8244.4	
748.11	6227.2	
748.29	6168.5	
748.47	9477.3	
748.65	7532.4	
748.83	6909.8	
749.01	6670.9	
749.19	8154.3	
749.37	7213.6	
749.55	6529.6	
749.73	6632	
749.91	7726.3	
750.09	7459.4	
750.26	6623.1	
750.44	6031.3	
750.62	7712.7	
750.8	7720.2	
750.98	5823.1	
751.16	6185.5	
751.34	7852.6	
751.52	7095.5	
751.7	7064.1	
751.88	5878.4	
752.06	8273.1	
752.24	8028	
752.42	5730.9	
752.59	6169.8	
752.77	7624.6	
752.95	8990.6	
753.13	6918.7	
753.31	6308.4	
753.49	7260.7	
753.67	7755	
753.85	6581.5	
754.03	6158.9	
754.21	8027.4	
754.38	8398.7	
754.56	6165.1	
754.74	5130.2	
754.92	7057.3	
755.1	7724.3	
755.28	4831.8	
755.46	4818.2	
755.64	8021.9	
755.82	8074.5	
755.99	4631.8	
756.17	5033.9	
756.35	5244.8	
756.53	6877.1	
756.71	3469.9	
756.89	4390.8	
757.07	6476.4	
757.25	5553.4	
757.42	5168.4	
757.6	6117.3	
757.78	6703.7	
757.96	5676.3	
758.14	4976.6	
758.32	4399.7	
758.5	5208.7	
758.67	5965.1	
758.85	4652.3	
759.03	4758.1	
759.21	6162.3	
759.39	5554.8	
759.57	4236.6	
759.75	5468.8	
759.92	6831.3	
760.1	6122.7	
760.28	5926.1	
760.46	6236.1	
760.64	5988.3	
760.82	5823.1	
760.99	5704.3	
761.17	5074.2	
761.35	6950.8	
761.53	5996.5	
761.71	5300.1	
761.89	6036	
762.06	6981.5	
762.24	6475.7	
762.42	5492	
762.6	5360.9	
762.78	6586.3	
762.96	7270.3	
763.13	5900.9	
763.31	5670.1	
763.49	7590.5	
763.67	6662	
763.85	6538.5	
764.02	7155.6	
764.2	7893.6	
764.38	6955.6	
764.56	5552.7	
764.74	6415.6	
764.91	7943.4	
765.09	6733	
765.27	5257.1	
765.45	5073.5	
765.63	7952.9	
765.8	7869.7	
765.98	4756.7	
766.16	5139.7	
766.34	6313.2	
766.52	6086.6	
766.69	6049.7	
766.87	4896	
767.05	6767.2	
767.23	7516.7	
767.41	5177.9	
767.58	5469.4	
767.76	7273	
767.94	7342.7	
768.12	5310.4	
768.29	6022.4	
768.47	6729.6	
768.65	7539.3	
768.83	4896	
769	6115.9	
769.18	6267.5	
769.36	7071.6	
769.54	5812.8	
769.72	4882.4	
769.89	7221.8	
770.07	7403.4	
770.25	5169.8	
770.43	6534.4	
770.6	8035.5	
770.78	8538	
770.96	5362.9	
771.14	6043.6	
771.31	7079.1	
771.49	6414.9	
771.67	4476.9	
771.85	4767	
772.02	5672.9	
772.2	6391	
772.38	5480.4	
772.55	4931.5	
772.73	6688.7	
772.91	6483.2	
773.09	5223	
773.26	5455.8	
773.44	6646.3	
773.62	6310.5	
773.8	4815.5	
773.97	4438.6	
774.15	6653.2	
774.33	6249.7	
774.5	4629.8	
774.68	5039.4	
774.86	6808.8	
775.04	6242.9	
775.21	4772.4	
775.39	4706.2	
775.57	6540.5	
775.74	6932.4	
775.92	4501.4	
776.1	4418.8	
776.27	6404.7	
776.45	7735.9	
776.63	4620.9	
776.81	4114.4	
776.98	6055.2	
777.16	7176.8	
777.34	4738.3	
777.51	4883.7	
777.69	6040.8	
777.87	5808	
778.04	4723.3	
778.22	5474.2	
778.4	5883.1	
778.57	6521.4	
778.75	3940.3	
778.93	4311.7	
779.1	5546.6	
779.28	5461.9	
779.46	4007.9	
779.64	4524	
779.81	6592.4	
779.99	7489.4	
780.17	5346.6	
780.34	5418.2	
780.52	6021.7	
780.69	6201.9	
780.87	4807.9	
781.05	4316.4	
781.22	6001.2	
781.4	6133.7	
781.58	4473.4	
781.75	3588.7	
781.93	6079.1	
782.11	5400.5	
782.28	5395.7	
782.46	4418.2	
782.64	5267.4	
782.81	6218.3	
782.99	4526.7	
783.17	4475.5	
783.34	6073.6	
783.52	5283.1	
783.69	4655.7	
783.87	5475.6	
784.05	5311.7	
784.22	5404.6	
784.4	5455.1	
784.58	4732.2	
784.75	6219	
784.93	5336.3	
785.1	4365.6	
785.28	5005.2	
785.46	5956.9	
785.63	5298.1	
785.81	4360.8	
785.99	4165.6	
786.16	5452.4	
786.34	5859.9	
786.51	4226.3	
786.69	4618.2	
786.87	5034.6	
787.04	5620.3	
787.22	4022.2	
787.39	5020.3	
787.57	5252.4	
787.75	6421.7	
787.92	5224.4	
788.1	5104.2	
788.27	5345.9	
788.45	5104.9	
788.63	4913.1	
788.8	3538.9	
788.98	5841.5	
789.15	4997.7	
789.33	3684.3	
789.5	4318.5	
789.68	6275.7	
789.86	6385.6	
790.03	4795	
790.21	4119.8	
790.38	6166.4	
790.56	5404.6	
790.73	4010.6	
790.91	4039.3	
791.09	5304.9	
791.26	6043.6	
791.44	4263.9	
791.61	3659	
791.79	5259.2	
791.96	5332.9	
792.14	3779.9	
792.32	3373.7	
792.49	5307	
792.67	5369.8	
792.84	3858.4	
793.02	3658.4	
793.19	5698.8	
793.37	6473.6	
793.54	3338.9	
793.72	3710.2	
793.89	6604	
794.07	5313.1	
794.25	4384.7	
794.42	3467.9	
794.6	6359.6	
794.77	5943.9	
794.95	4621.6	
795.12	4087.7	
795.3	5153.4	
795.47	5890	
795.65	4442.7	
795.82	4340.3	
796	5051.7	
796.17	7059.3	
796.35	4136.9	
796.52	4870.1	
796.7	5772.5	
796.87	5892	
797.05	5072.8	
797.22	5003.9	
797.4	5848.3	
797.57	6885.3	
797.75	4198.3	
797.92	4048.2	
798.1	6167.8	
798.27	5260.5	
798.45	3431	
798.62	3661.1	
798.8	5499.5	
798.97	6027.9	
799.15	4528.1	
799.32	4240	
799.5	4763.6	
799.67	5614.8	
799.85	4626.4	
800.02	3373.7	
800.2	5152.7	
800.37	5499.5	
800.55	4803.9	
800.72	4005.1	
800.9	5978.7	
801.07	6399.9	
801.25	5369.8	
801.42	4365.6	
801.6	6035.4	
801.77	5777.3	
801.95	3933.5	
802.12	3952.6	
802.29	5753.4	
802.47	5709.7	
802.64	4325.3	
802.82	3290.4	
802.99	5101.5	
803.17	6222.4	
803.34	4278.2	
803.52	3839.9	
803.69	6907.1	
803.87	4947.2	
804.04	4254.3	
804.21	4355.3	
804.39	6296.8	
804.56	5335.6	
804.74	3605.1	
804.91	4378.6	
805.09	5091.3	
805.26	5244.2	
805.44	3669.3	
805.61	3972.4	
805.78	5845.6	
805.96	5879	
806.13	4363.5	
806.31	4720.6	
806.48	4669.4	
806.66	5265.3	
806.83	4342.4	
807	4279.6	
807.18	5062.6	
807.35	5566.4	
807.53	4203.8	
807.7	3364.8	
807.87	6296.1	
808.05	5193.6	
808.22	4674.1	
808.4	3373	
808.57	5216.2	
808.74	4739	
808.92	3873.4	
809.09	4924.7	
809.27	4990.2	
809.44	5650.3	
809.61	3377.8	
809.79	3823.6	
809.96	6325.5	
810.14	5942.5	
810.31	3304.1	
810.48	4072	
810.66	5246.2	
810.83	6087.2	
811.01	3884.3	
811.18	4575.2	
811.35	5952.1	
811.53	4623.6	
811.7	4700.1	
811.87	4324.6	
812.05	5154.1	
812.22	5066	
812.39	3697.3	
812.57	3629.7	
812.74	5172.5	
812.92	6921.5	
813.09	4037.2	
813.26	4462.5	
813.44	6662.7	
813.61	5068.7	
813.78	3343	
813.96	4519.9	
814.13	5178.6	
814.3	4793.6	
814.48	4917.2	
814.65	4089.1	
814.82	6485.2	
815	4960.2	
815.17	4244.1	
815.34	5115.1	
815.52	5068.7	
815.69	5086.5	
815.87	4215.4	
816.04	3566.2	
816.21	5169.1	
816.38	4518.5	
816.56	4027	
816.73	3745.7	
816.9	6534.4	
817.08	5933.6	
817.25	3796.9	
817.42	4766.3	
817.6	4675.5	
817.77	5246.2	
817.94	4264.6	
818.12	3703.4	
818.29	4865.3	
818.46	7772.7	
818.64	3895.9	
818.81	3618.8	
818.98	4844.1	
819.16	7034.1	
819.33	4436.6	
819.5	4192.2	
819.67	5643.5	
819.85	6187.6	
820.02	4047.5	
820.19	4334.9	
820.37	5432.6	
820.54	4902.2	
820.71	4207.2	
820.88	5285.1	
821.06	5401.9	
821.23	4911	
821.4	4263.2	
821.58	4234.5	
821.75	5874.9	
821.92	5287.2	
822.09	3357.3	
822.27	3514.3	
822.44	5221.6	
822.61	5030.5	
822.79	3437.9	
822.96	6625.9	
823.13	5657.2	
823.3	4895.3	
823.48	3949.2	
823.65	3574.4	
823.82	5883.1	
823.99	4656.4	
824.17	5017.5	
824.34	3678.8	
824.51	6813.6	
824.68	5252.4	
824.86	3734.1	
825.03	4250.2	
825.2	5145.9	
825.37	6286.6	
825.55	3715	
825.72	4151.2	
825.89	6879.1	
826.06	6414.9	
826.24	4096.6	
826.41	4137.6	
826.58	6287.9	
826.75	5502.2	
826.92	3231	
827.1	3591.5	
827.27	8672.5	
827.44	6830	
827.61	3881.6	
827.79	4709	
827.96	4859.8	
828.13	5246.9	
828.3	4019.5	
828.47	3411.9	
828.65	5328.8	
828.82	5367.7	
828.99	5268.1	
829.16	4581.3	
829.34	5832.6	
829.51	5569.1	
829.68	4151.2	
829.85	4329.4	
830.02	6092	
830.2	5791.7	
830.37	3253.5	
830.54	5096.7	
830.71	6690.7	
830.88	5199.1	
831.05	3306.1	
831.23	3847.5	
831.4	6278.4	
831.57	7046.4	
831.74	3908.9	
831.91	3401	
832.09	5426.4	
832.26	5816.9	
832.43	4023.6	
832.6	4486.4	
832.77	5384.1	
832.94	6207.4	
833.12	3186	
833.29	3966.9	
833.46	5010	
833.63	7337.9	
833.8	4346.5	
833.97	4068.6	
834.15	5787.6	
834.32	5556.1	
834.49	4154.6	
834.66	4291.9	
834.83	6024.4	
835	4872.1	
835.17	3899.3	
835.35	3919.1	
835.52	5661.3	
835.69	5554.8	
835.86	4074.1	
836.03	3358	
836.2	5718.6	
836.37	5373.9	
836.55	3985.3	
836.72	3816	
836.89	5341.8	
837.06	5786.9	
837.23	4111	
837.4	4495.3	
837.57	6659.3	
837.75	7355.6	
837.92	3704.1	
838.09	3882.3	
838.26	5323.4	
838.43	6105.7	
838.6	4234.5	
838.77	3814	
838.94	6976.1	
839.11	6652.5	
839.29	4057	
839.46	3171.6	
839.63	5710.4	
839.8	5541.1	
839.97	3881.6	
840.14	3897.3	
840.31	5517.9	
840.48	5776	
840.65	3269.9	
840.82	3816.7	
841	5770.5	
841.17	5763	
841.34	3617.4	
841.51	3609.2	
841.68	5687.9	
841.85	5477	
842.02	3751.9	
842.19	3068.5	
842.36	5524.7	
842.53	5451	
842.7	3646.7	
842.87	4346.5	
843.05	7367.9	
843.22	5401.9	
843.39	3365.5	
843.56	3645.4	
843.73	5165	
843.9	5847	
844.07	5896.8	
844.24	4838.7	
844.41	8591.2	
844.58	4963.6	
844.75	3460.4	
844.92	3775.1	
845.09	5729.5	
845.26	5717.2	
845.43	3560.1	
845.6	3769.6	
845.77	5737	
845.94	5522.7	
846.12	3962.8	
846.29	4225.6	
846.46	5969.1	
846.63	5694.7	
846.8	3580.5	
846.97	4271.4	
847.14	6274.3	
847.31	5726.1	
847.48	4070	
847.65	4485.1	
847.82	6052.4	
847.99	6002.6	
848.16	4832.5	
848.33	4437.9	
848.5	5300.1	
848.67	6259.3	
848.84	3563.5	
849.01	3743	
849.18	5151.3	
849.35	4811.4	
849.52	4463.9	
849.69	3482.2	
849.86	5919.3	
850.03	6137.8	
850.2	3582.6	
850.37	4341	
850.54	6150.1	
850.71	5446.2	
850.88	4328	
851.05	3495.9	
851.22	5677	
851.39	6339.1	
851.56	3387.3	
851.73	4098.7	
851.9	5035.3	
852.07	6013.5	
852.24	3941	
852.41	3571.7	
852.58	5599.1	
852.75	5095.3	
852.92	4022.2	
853.09	3488.4	
853.26	5362.3	
853.43	6214.2	
853.6	3529.3	
853.77	2977.1	
853.94	6356.9	
854.11	5027.1	
854.28	5302.2	
854.44	3860.4	
854.61	6817	
854.78	5859.9	
854.95	3543.7	
855.12	4444.8	
855.29	4644.8	
855.46	6420.4	
855.63	3574.4	
855.8	4959.5	
855.97	5285.8	
856.14	6117.3	
856.31	5081	
856.48	3884.3	
856.65	5317.9	
856.82	4986.8	
856.99	3442	
857.16	3814	
857.33	6982.9	
857.49	5395	
857.66	3835.8	
857.83	4164.9	
858	5287.9	
858.17	5515.2	
858.34	3336.1	
858.51	3551.9	
858.68	6471.6	
858.85	6496.8	
859.02	4152.6	
859.19	4457.1	
859.36	5046.2	
859.52	5085.1	
859.69	3583.3	
859.86	4246.8	
860.03	5168.4	
860.2	6389.7	
860.37	3228.3	
860.54	3627.6	
860.71	5995.1	
860.88	6419.7	
861.05	4044.1	
861.21	4485.7	
861.38	6498.9	
861.55	4898.1	
861.72	3232.4	
861.89	3982.6	
862.06	6075	
862.23	6575.3	
862.4	3467.9	
862.56	3647.4	
862.73	5898.8	
862.9	5557.5	
863.07	4198.3	
863.24	3192.1	
863.41	4986.8	
863.58	5071.5	
863.75	3674.1	
863.91	4103.4	
864.08	6379.4	
864.25	5919.3	
864.42	4489.1	
864.59	5023.7	
864.76	6690	
864.93	5072.8	
865.09	3472.7	
865.26	3827	
865.43	6214.2	
865.6	6718	
865.77	3110.2	
865.94	3503.4	
866.1	6240.8	
866.27	6080.4	
866.44	5350.7	
866.61	3377.8	
866.78	5427.1	
866.95	5880.4	
867.11	3439.9	
867.28	3186.6	
867.45	6016.9	
867.62	5085.8	
867.79	4194.2	
867.96	3504.1	
868.12	5066.7	
868.29	6095.4	
868.46	3031.7	
868.63	4724	
868.8	6237.4	
868.97	5995.8	
869.13	3704.8	
869.3	3676.8	
869.47	5916.6	
869.64	6122.7	
869.81	3605.8	
869.97	3566.9	
870.14	5722	
870.31	6468.2	
870.48	3519.8	
870.65	4519.2	
870.81	5427.1	
870.98	5285.8	
871.15	4043.4	
871.32	3702.7	
871.48	5880.4	
871.65	6519.4	
871.82	3534.1	
871.99	3963.5	
872.16	6872.3	
872.32	6281.8	
872.49	3603.1	
872.66	3595.6	
872.83	6005.3	
872.99	5236	
873.16	4085.7	
873.33	3523.9	
873.5	5599.8	
873.67	5632.6	
873.83	3752.6	
874	4788.8	
874.17	5745.2	
874.34	6833.4	
874.5	4609.3	
874.67	4481	
874.84	6481.1	
875.01	5058.5	
875.17	5077.6	
875.34	3573	
875.51	5646.9	
875.68	6778.8	
875.84	4302.8	
876.01	5249.6	
876.18	5898.8	
876.34	5869.5	
876.51	3575.1	
876.68	3502.7	
876.85	5464	
877.01	6213.5	
877.18	5168.4	
877.35	3531.4	
877.52	5532.9	
877.68	4975.9	
877.85	3482.2	
878.02	3482.9	
878.18	5548.6	
878.35	5264	
878.52	2843.9	
878.69	3992.2	
878.85	6008.7	
879.02	5917.9	
879.19	5135.6	
879.35	3812	
879.52	5957.5	
879.69	6229.2	
879.86	3056.3	
880.02	3997	
880.19	5504.9	
880.36	6733.7	
880.52	4074.8	
880.69	4200.4	
880.86	6040.1	
881.02	6146.6	
881.19	3982.6	
881.36	3876.8	
881.52	5922	
881.69	5229.1	
881.86	3848.1	
882.02	3775.8	
882.19	6221.7	
882.36	7328.3	
882.52	3703.4	
882.69	5029.8	
882.86	5724.8	
883.02	5633.3	
883.19	4314.4	
883.36	4067.3	
883.52	6097.5	
883.69	6959	
883.86	3659.7	
884.02	3199.6	
884.19	5999.2	
884.36	5586.9	
884.52	4087.1	
884.69	3791.5	
884.86	5251	
885.02	6601.3	
885.19	3981.9	
885.36	4147.8	
885.52	5587.5	
885.69	5696.1	
885.86	5136.3	
886.02	4605.2	
886.19	5993.7	
886.35	5428.5	
886.52	3995.6	
886.69	5012.7	
886.85	5096.7	
887.02	6374	
887.19	6374	
887.35	6374	
887.52	6374	
887.68	6374	
887.85	6374	
888.02	6374	
888.18	6374	
888.35	6374	
888.51	6374	
888.68	6374	
888.85	6374	
889.01	6374	
889.18	6374	
889.35	6374	
889.51	6374	
889.68	6374	
889.84	6374	
890.01	6374	
890.17	6374	
890.34	6374	
890.51	6374	
890.67	6374	
890.84	6374	
891	6374	
891.17	6374	
891.34	6374	
891.5	6374	
891.67	6374	
891.83	6374	
892	6374	
892.16	6374	
892.33	6374	
892.5	6374	
892.66	6374	
892.83	6374	
892.99	6374	
893.16	6374	
893.32	6374	
893.49	6374	
893.65	6374	
893.82	6374	
893.99	6374	
894.15	6374	
894.32	6374	
894.48	6374	
894.65	6374	
894.81	6374	
894.98	6374	
895.14	6374	
895.31	6374	
895.47	6374	
895.64	6374	
895.81	6374	
895.97	6374	
896.14	6374	
896.3	6374	
896.47	6374	
896.63	6374	
896.8	6374	
896.96	6374	
897.13	6374	
897.29	6374	
897.46	6374	
897.62	6374	
897.79	6374	
897.95	6374	
898.12	6374	
898.28	6374	
898.45	6374	
898.61	6374	
898.78	6374	
898.94	6374	
899.11	6374	
899.27	6374	
899.44	6374	
899.6	6374	
899.77	6374	
899.93	6374	
900.1	6374	
900.26	6374	
900.43	6374	
900.59	6374	
900.76	6374	
900.92	6374	
901.09	6374	
901.25	6374	
901.42	6374	
901.58	6374	
901.75	6374	
901.91	6374	
902.07	6374	
902.24	6374	
902.4	6374	
902.57	6374	
902.73	6374	
902.9	6374	
903.06	6374	
903.23	6374	
903.39	6374	
903.56	6374	
903.72	6374	
903.88	6374	
904.05	6374	
904.21	6374	
904.38	6374	
904.54	6374	
904.71	6374	
904.87	6374	
905.03	6374	
905.2	6374	
905.36	6374	
905.53	6374	
905.69	6374	
905.86	6374	
906.02	6374	
906.18	6374	
906.35	6374	
906.51	6374	
906.68	6374	
906.84	6374	
907.01	6374	
907.17	6374	
907.33	6374	
907.5	6374	
907.66	6374	
907.83	6374	
907.99	6374	
908.15	6374	
908.32	6374	
908.48	6374	
908.65	6374	
908.81	6374	
908.97	6374	
909.14	6374	
909.3	6374	
909.47	6374	
909.63	6374	
909.79	6374	
909.96	6374	
910.12	6374	
910.28	6374	
910.45	6374	
910.61	6374	
910.78	6374	
910.94	6374	
911.1	6374	
911.27	6374	
911.43	6374	
911.59	6374	
911.76	6374	
911.92	6374	
912.08	6374	
912.25	6374	
912.41	6374	
912.57	6374	
912.74	6374	
912.9	6374	
913.07	6374	
913.23	6374	
913.39	6374	
913.56	6374	
913.72	6374	
913.88	6374	
914.05	6374	
914.21	6374	
914.37	6374	
914.54	6374	
914.7	6374	
914.86	6374	
915.03	6374	
915.19	6374	
